#,Wave/freq,Total,N2,O2,H2O,Rayleigh,CIA
4.000000000e-01,4.14098e-01,9.99999e-01,9.99999e-01,9.99900e-01,4.14139e-01,9.99999e-01
4.020000000e-01,4.21395e-01,9.99999e-01,9.99999e-01,9.99938e-01,4.21421e-01,9.99999e-01
4.040100000e-01,4.28665e-01,9.99999e-01,9.99999e-01,9.99973e-01,4.28676e-01,9.99999e-01
4.060300500e-01,4.35906e-01,9.99999e-01,9.99999e-01,9.99993e-01,4.35908e-01,9.99999e-01
4.080602003e-01,4.43116e-01,9.99999e-01,9.99999e-01,9.99997e-01,4.43117e-01,9.99999e-01
4.101005013e-01,4.50298e-01,9.99999e-01,9.99999e-01,9.99999e-01,4.50298e-01,9.99999e-01
4.121510038e-01,4.57449e-01,9.99999e-01,9.99999e-01,9.99995e-01,4.57451e-01,9.99999e-01
4.142117588e-01,4.64560e-01,9.99999e-01,9.99999e-01,9.99971e-01,4.64572e-01,9.99999e-01
4.162828176e-01,4.71603e-01,9.99999e-01,9.99999e-01,9.99876e-01,4.71661e-01,9.99999e-01
4.183642317e-01,4.78679e-01,9.99999e-01,9.99999e-01,9.99926e-01,4.78714e-01,9.99999e-01
4.204560528e-01,4.85709e-01,9.99999e-01,9.99999e-01,9.99954e-01,4.85731e-01,9.99999e-01
4.225583331e-01,4.92701e-01,9.99999e-01,9.99999e-01,9.99982e-01,4.92709e-01,9.99999e-01
4.246711247e-01,4.99639e-01,9.99999e-01,9.99999e-01,9.99986e-01,4.99646e-01,9.99999e-01
4.267944804e-01,5.06531e-01,9.99999e-01,9.99999e-01,9.99979e-01,5.06541e-01,9.99999e-01
4.289284528e-01,5.13384e-01,9.99999e-01,9.99999e-01,9.99984e-01,5.13392e-01,9.99999e-01
4.310730950e-01,5.20194e-01,9.99999e-01,9.99999e-01,9.99993e-01,5.20198e-01,9.99999e-01
4.332284605e-01,5.26956e-01,9.99999e-01,9.99999e-01,9.99997e-01,5.26957e-01,9.99999e-01
4.353946028e-01,5.33667e-01,9.99999e-01,9.99999e-01,9.99998e-01,5.33667e-01,9.99999e-01
4.375715758e-01,5.40321e-01,9.99999e-01,9.99999e-01,9.99987e-01,5.40328e-01,9.99999e-01
4.397594337e-01,5.46878e-01,9.99999e-01,9.99999e-01,9.99890e-01,5.46938e-01,9.99999e-01
4.419582309e-01,5.53189e-01,9.99999e-01,9.99999e-01,9.99444e-01,5.53496e-01,9.99999e-01
4.441680220e-01,5.59762e-01,9.99999e-01,9.99999e-01,9.99573e-01,5.60001e-01,9.99999e-01
4.463888621e-01,5.66199e-01,9.99999e-01,9.99999e-01,9.99553e-01,5.66451e-01,9.99999e-01
4.486208064e-01,5.72688e-01,9.99999e-01,9.99999e-01,9.99723e-01,5.72846e-01,9.99999e-01
4.508639105e-01,5.79110e-01,9.99999e-01,9.99999e-01,9.99870e-01,5.79185e-01,9.99999e-01
4.531182300e-01,5.85437e-01,9.99999e-01,9.99999e-01,9.99948e-01,5.85467e-01,9.99999e-01
4.553838212e-01,5.91670e-01,9.99999e-01,9.99999e-01,9.99964e-01,5.91691e-01,9.99999e-01
4.576607403e-01,5.97846e-01,9.99999e-01,9.99999e-01,9.99983e-01,5.97856e-01,9.99999e-01
4.599490440e-01,6.03955e-01,9.99999e-01,9.99999e-01,9.99988e-01,6.03962e-01,9.99999e-01
4.622487892e-01,6.10006e-01,9.99999e-01,9.99999e-01,9.99997e-01,6.10007e-01,9.99999e-01
4.645600332e-01,6.15987e-01,9.99999e-01,9.99999e-01,9.99991e-01,6.15992e-01,9.99999e-01
4.668828333e-01,6.21834e-01,9.99999e-01,9.99999e-01,9.99867e-01,6.21916e-01,9.99999e-01
4.692172475e-01,6.27602e-01,9.99999e-01,9.99999e-01,9.99719e-01,6.27778e-01,9.99999e-01
4.715633337e-01,6.33461e-01,9.99999e-01,9.99999e-01,9.99816e-01,6.33577e-01,9.99999e-01
4.739211504e-01,6.39203e-01,9.99999e-01,9.99999e-01,9.99825e-01,6.39314e-01,9.99999e-01
4.762907561e-01,6.44931e-01,9.99999e-01,9.99999e-01,9.99909e-01,6.44989e-01,9.99999e-01
4.786722099e-01,6.50576e-01,9.99999e-01,9.99999e-01,9.99962e-01,6.50600e-01,9.99999e-01
4.810655710e-01,6.56140e-01,9.99999e-01,9.99999e-01,9.99988e-01,6.56147e-01,9.99999e-01
4.834708988e-01,6.61559e-01,9.99999e-01,9.99999e-01,9.99890e-01,6.61631e-01,9.99999e-01
4.858882533e-01,6.66920e-01,9.99999e-01,9.99999e-01,9.99801e-01,6.67052e-01,9.99999e-01
4.883176946e-01,6.72296e-01,9.99999e-01,9.99999e-01,9.99833e-01,6.72408e-01,9.99999e-01
4.907592831e-01,6.77599e-01,9.99999e-01,9.99999e-01,9.99850e-01,6.77700e-01,9.99999e-01
4.932130795e-01,6.82855e-01,9.99999e-01,9.99999e-01,9.99893e-01,6.82928e-01,9.99999e-01
4.956791449e-01,6.88053e-01,9.99999e-01,9.99999e-01,9.99943e-01,6.88092e-01,9.99999e-01
4.981575406e-01,6.92996e-01,9.99999e-01,9.99999e-01,9.99717e-01,6.93191e-01,9.99999e-01
5.006483283e-01,6.97711e-01,9.99999e-01,9.99999e-01,9.99264e-01,6.98227e-01,9.99994e-01
5.031515699e-01,7.00572e-01,9.99999e-01,9.99999e-01,9.96303e-01,7.03199e-01,9.99960e-01
5.056673278e-01,7.06696e-01,9.99999e-01,9.99999e-01,9.98052e-01,7.08107e-01,9.99955e-01
5.081956644e-01,7.11181e-01,9.99999e-01,9.99999e-01,9.97543e-01,7.12951e-01,9.99972e-01
5.107366428e-01,7.16539e-01,9.99999e-01,9.99999e-01,9.98342e-01,7.17732e-01,9.99994e-01
5.132903260e-01,7.21765e-01,9.99999e-01,9.99999e-01,9.99053e-01,7.22449e-01,9.99998e-01
5.158567776e-01,7.26813e-01,9.99999e-01,9.99999e-01,9.99600e-01,7.27103e-01,9.99999e-01
5.184360615e-01,7.31578e-01,9.99999e-01,9.99999e-01,9.99839e-01,7.31695e-01,9.99999e-01
5.210282418e-01,7.36179e-01,9.99999e-01,9.99999e-01,9.99939e-01,7.36223e-01,9.99999e-01
5.236333830e-01,7.40510e-01,9.99999e-01,9.99999e-01,9.99758e-01,7.40690e-01,9.99997e-01
5.262515499e-01,7.44981e-01,9.99999e-01,9.99999e-01,9.99848e-01,7.45095e-01,9.99997e-01
5.288828077e-01,7.49333e-01,9.99999e-01,9.99999e-01,9.99860e-01,7.49438e-01,9.99997e-01
5.315272217e-01,7.53628e-01,9.99999e-01,9.99999e-01,9.99878e-01,7.53720e-01,9.99999e-01
5.341848578e-01,7.57880e-01,9.99999e-01,9.99999e-01,9.99919e-01,7.57941e-01,9.99999e-01
5.368557821e-01,7.61886e-01,9.99999e-01,9.99999e-01,9.99717e-01,7.62102e-01,9.99998e-01
5.395400610e-01,7.65413e-01,9.99999e-01,9.99999e-01,9.98978e-01,7.66202e-01,9.99989e-01
5.422377613e-01,7.69220e-01,9.99999e-01,9.99999e-01,9.98694e-01,7.70243e-01,9.99975e-01
5.449489501e-01,7.73261e-01,9.99999e-01,9.99999e-01,9.98778e-01,7.74225e-01,9.99974e-01
5.476736949e-01,7.77303e-01,9.99999e-01,9.99999e-01,9.98925e-01,7.78148e-01,9.99987e-01
5.504120634e-01,7.81401e-01,9.99999e-01,9.99999e-01,9.99219e-01,7.82013e-01,9.99996e-01
5.531641237e-01,7.85512e-01,9.99999e-01,9.99999e-01,9.99607e-01,7.85821e-01,9.99999e-01
5.559299443e-01,7.89421e-01,9.99999e-01,9.99999e-01,9.99810e-01,7.89571e-01,9.99999e-01
5.587095940e-01,7.93170e-01,9.99999e-01,9.99999e-01,9.99880e-01,7.93264e-01,9.99999e-01
5.615031420e-01,7.96796e-01,9.99999e-01,9.99999e-01,9.99866e-01,7.96901e-01,9.99999e-01
5.643106577e-01,8.00360e-01,9.99999e-01,9.99999e-01,9.99847e-01,8.00483e-01,9.99998e-01
5.671322110e-01,8.02508e-01,9.99999e-01,9.99999e-01,9.98147e-01,8.04009e-01,9.99983e-01
5.699678720e-01,8.05883e-01,9.99999e-01,9.99999e-01,9.98070e-01,8.07481e-01,9.99949e-01
5.728177114e-01,8.09222e-01,9.99999e-01,9.99999e-01,9.97972e-01,8.10899e-01,9.99958e-01
5.756818000e-01,8.12732e-01,9.99999e-01,9.99999e-01,9.98142e-01,8.14263e-01,9.99975e-01
5.785602090e-01,8.16248e-01,9.99999e-01,9.99999e-01,9.98383e-01,8.17575e-01,9.99992e-01
5.814530100e-01,8.19497e-01,9.99999e-01,9.99999e-01,9.98373e-01,8.20834e-01,9.99996e-01
5.843602750e-01,8.22427e-01,9.99999e-01,9.99999e-01,9.98051e-01,8.24041e-01,9.99988e-01
5.872820764e-01,8.13341e-01,9.99999e-01,9.99999e-01,9.83363e-01,8.27197e-01,9.99882e-01
5.902184868e-01,8.13409e-01,9.99999e-01,9.99999e-01,9.79966e-01,8.30303e-01,9.99679e-01
5.931695792e-01,8.21269e-01,9.99999e-01,9.99999e-01,9.85795e-01,8.33358e-01,9.99692e-01
5.961354271e-01,8.23214e-01,9.99999e-01,9.99999e-01,9.84450e-01,8.36365e-01,9.99822e-01
5.991161043e-01,8.29743e-01,9.99999e-01,9.99999e-01,9.88641e-01,8.39322e-01,9.99944e-01
6.021116848e-01,8.36790e-01,9.99999e-01,9.99999e-01,9.93545e-01,8.42231e-01,9.99993e-01
6.051222432e-01,8.42329e-01,9.99999e-01,9.99999e-01,9.96730e-01,8.45092e-01,9.99999e-01
6.081478544e-01,8.46709e-01,9.99999e-01,9.99999e-01,9.98587e-01,8.47906e-01,9.99999e-01
6.111885937e-01,8.50167e-01,9.99999e-01,9.99999e-01,9.99403e-01,8.50674e-01,9.99999e-01
6.142445367e-01,8.53168e-01,9.99999e-01,9.99999e-01,9.99732e-01,8.53396e-01,9.99999e-01
6.173157594e-01,8.55946e-01,9.99999e-01,9.99999e-01,9.99852e-01,8.56072e-01,9.99999e-01
6.204023382e-01,8.58596e-01,9.99999e-01,9.99999e-01,9.99874e-01,8.58704e-01,9.99999e-01
6.235043498e-01,8.60811e-01,9.99999e-01,9.99999e-01,9.99442e-01,8.61292e-01,9.99998e-01
6.266218716e-01,8.61304e-01,9.99999e-01,9.99999e-01,9.97088e-01,8.63836e-01,9.99979e-01
6.297549810e-01,8.65376e-01,9.99999e-01,9.99999e-01,9.98931e-01,8.66337e-01,9.99958e-01
6.329037559e-01,8.66937e-01,9.99999e-01,9.99999e-01,9.97893e-01,8.68796e-01,9.99966e-01
6.360682746e-01,8.69628e-01,9.99999e-01,9.99999e-01,9.98199e-01,8.71213e-01,9.99980e-01
6.392486160e-01,8.71547e-01,9.99999e-01,9.99999e-01,9.97671e-01,8.73588e-01,9.99990e-01
6.424448591e-01,8.73165e-01,9.99999e-01,9.99999e-01,9.96865e-01,8.75923e-01,9.99984e-01
6.456570834e-01,8.65443e-01,9.99999e-01,9.99999e-01,9.85538e-01,8.78218e-01,9.99911e-01
6.488853688e-01,8.71019e-01,9.99999e-01,9.99999e-01,9.89483e-01,8.80474e-01,9.99775e-01
6.521297956e-01,8.73074e-01,9.99999e-01,9.99999e-01,9.89288e-01,8.82691e-01,9.99814e-01
6.553904446e-01,8.75265e-01,9.99999e-01,9.99999e-01,9.89282e-01,8.84869e-01,9.99861e-01
6.586673968e-01,8.78852e-01,9.99999e-01,9.99999e-01,9.90849e-01,8.87009e-01,9.99953e-01
6.619607338e-01,8.84561e-01,9.99999e-01,9.99999e-01,9.94889e-01,8.89113e-01,9.99989e-01
6.652705375e-01,8.88439e-01,9.99999e-01,9.99999e-01,9.96930e-01,8.91179e-01,9.99994e-01
6.685968902e-01,8.92043e-01,9.99999e-01,9.99999e-01,9.98695e-01,8.93209e-01,9.99998e-01
6.719398746e-01,8.94613e-01,9.99999e-01,9.99999e-01,9.99339e-01,8.95204e-01,9.99999e-01
6.752995740e-01,8.96851e-01,9.99999e-01,9.99999e-01,9.99650e-01,8.97164e-01,9.99999e-01
6.786760719e-01,8.98619e-01,9.99999e-01,9.99999e-01,9.99477e-01,8.99089e-01,9.99998e-01
6.820694522e-01,9.00175e-01,9.99999e-01,9.99999e-01,9.99110e-01,9.00980e-01,9.99994e-01
6.854797995e-01,9.01793e-01,9.99999e-01,9.99999e-01,9.98852e-01,9.02837e-01,9.99989e-01
6.889071985e-01,9.02103e-01,9.99999e-01,9.99999e-01,9.97195e-01,9.04662e-01,9.99974e-01
6.923517345e-01,8.65995e-01,9.99999e-01,9.99999e-01,9.55571e-01,9.06454e-01,9.99782e-01
6.958134932e-01,8.86922e-01,9.99999e-01,9.99999e-01,9.77024e-01,9.08214e-01,9.99519e-01
6.992925606e-01,8.89332e-01,9.99999e-01,9.99999e-01,9.77771e-01,9.09943e-01,9.99566e-01
7.027890234e-01,8.86533e-01,9.99999e-01,9.99999e-01,9.72779e-01,9.11641e-01,9.99669e-01
7.063029686e-01,8.92183e-01,9.99999e-01,9.99999e-01,9.77029e-01,9.13308e-01,9.99835e-01
7.098344834e-01,8.94679e-01,9.99999e-01,9.99999e-01,9.77944e-01,9.14946e-01,9.99902e-01
7.133836558e-01,8.89384e-01,9.99999e-01,9.99999e-01,9.70543e-01,9.16554e-01,9.99806e-01
7.169505741e-01,7.24930e-01,9.99999e-01,9.99999e-01,7.90771e-01,9.18132e-01,9.98479e-01
7.205353270e-01,8.18247e-01,9.99999e-01,9.99999e-01,8.92096e-01,9.19683e-01,9.97318e-01
7.241380036e-01,7.93330e-01,9.99999e-01,9.99999e-01,8.63185e-01,9.21205e-01,9.97684e-01
7.277586936e-01,8.06595e-01,9.99999e-01,9.99999e-01,8.75826e-01,9.22699e-01,9.98106e-01
7.313974871e-01,8.01845e-01,9.99999e-01,9.99999e-01,8.68410e-01,9.24167e-01,9.99112e-01
7.350544745e-01,8.56397e-01,9.99999e-01,9.99999e-01,9.25511e-01,9.25608e-01,9.99691e-01
7.387297469e-01,8.75461e-01,9.99999e-01,9.99999e-01,9.44512e-01,9.27022e-01,9.99858e-01
7.424233956e-01,9.02827e-01,9.99999e-01,9.99999e-01,9.72466e-01,9.28411e-01,9.99974e-01
7.461355126e-01,9.14151e-01,9.99999e-01,9.99999e-01,9.83200e-01,9.29774e-01,9.99995e-01
7.498661902e-01,9.23811e-01,9.99999e-01,9.99999e-01,9.92160e-01,9.31112e-01,9.99997e-01
7.536155211e-01,9.28825e-01,9.99999e-01,9.99999e-01,9.96138e-01,9.32426e-01,9.99998e-01
7.573835987e-01,9.31858e-01,9.99999e-01,9.99999e-01,9.98011e-01,9.33715e-01,9.99999e-01
7.611705167e-01,9.33825e-01,9.99999e-01,9.99999e-01,9.98763e-01,9.34981e-01,9.99999e-01
7.649763693e-01,9.35497e-01,9.99999e-01,9.99999e-01,9.99224e-01,9.36223e-01,9.99999e-01
7.688012511e-01,9.36936e-01,9.99999e-01,9.99999e-01,9.99459e-01,9.37443e-01,9.99999e-01
7.726452574e-01,9.38222e-01,9.99999e-01,9.99999e-01,9.99554e-01,9.38640e-01,9.99999e-01
7.765084837e-01,9.39216e-01,9.99999e-01,9.99999e-01,9.99363e-01,9.39814e-01,9.99998e-01
7.803910261e-01,9.38378e-01,9.99999e-01,9.99999e-01,9.97250e-01,9.40967e-01,9.99996e-01
7.842929812e-01,9.33070e-01,9.99999e-01,9.99999e-01,9.90432e-01,9.42099e-01,9.99981e-01
7.882144461e-01,9.24692e-01,9.99999e-01,9.99999e-01,9.80499e-01,9.43210e-01,9.99864e-01
7.921555184e-01,9.33983e-01,9.99999e-01,9.99999e-01,9.89305e-01,9.44299e-01,9.99765e-01
7.961162960e-01,9.27223e-01,9.99999e-01,9.99999e-01,9.81023e-01,9.45369e-01,9.99776e-01
8.000968774e-01,9.25544e-01,9.99999e-01,9.99999e-01,9.78175e-01,9.46419e-01,9.99762e-01
8.040973618e-01,9.26586e-01,9.99999e-01,9.99999e-01,9.78156e-01,9.47449e-01,9.99818e-01
8.081178486e-01,9.02192e-01,9.99999e-01,9.99999e-01,9.51392e-01,9.48459e-01,9.99816e-01
8.121584379e-01,7.72693e-01,9.99999e-01,9.99999e-01,8.14396e-01,9.49451e-01,9.99305e-01
8.162192301e-01,7.44883e-01,9.99999e-01,9.99999e-01,7.85786e-01,9.50425e-01,9.97390e-01
8.203003262e-01,8.42669e-01,9.99999e-01,9.99999e-01,8.88446e-01,9.51380e-01,9.96945e-01
8.244018279e-01,8.09340e-01,9.99999e-01,9.99999e-01,8.51934e-01,9.52317e-01,9.97568e-01
8.285238370e-01,8.22426e-01,9.99999e-01,9.99999e-01,8.64422e-01,9.53236e-01,9.98089e-01
8.326664562e-01,8.23511e-01,9.99999e-01,9.99999e-01,8.63775e-01,9.54138e-01,9.99209e-01
8.368297885e-01,8.59418e-01,9.99999e-01,9.99999e-01,9.00054e-01,9.55024e-01,9.99818e-01
8.410139374e-01,8.97733e-01,9.99999e-01,9.99999e-01,9.39255e-01,9.55892e-01,9.99893e-01
8.452190071e-01,9.27718e-01,9.99999e-01,9.99999e-01,9.69722e-01,9.56744e-01,9.99936e-01
8.494451021e-01,9.40548e-01,9.99999e-01,9.99999e-01,9.82262e-01,9.57580e-01,9.99948e-01
8.536923276e-01,9.48308e-01,9.99999e-01,9.99999e-01,9.89499e-01,9.58400e-01,9.99968e-01
8.579607893e-01,9.52970e-01,9.99999e-01,9.99999e-01,9.93507e-01,9.59205e-01,9.99992e-01
8.622505932e-01,9.56036e-01,9.99999e-01,9.99999e-01,9.95877e-01,9.59994e-01,9.99998e-01
8.665618462e-01,9.58311e-01,9.99999e-01,9.99999e-01,9.97441e-01,9.60769e-01,9.99998e-01
8.708946554e-01,9.58707e-01,9.99999e-01,9.99999e-01,9.97066e-01,9.61529e-01,9.99997e-01
8.752491287e-01,9.58498e-01,9.99999e-01,9.99999e-01,9.96079e-01,9.62274e-01,9.99995e-01
8.796253743e-01,9.57757e-01,9.99999e-01,9.99999e-01,9.94561e-01,9.63005e-01,9.99987e-01
8.840235012e-01,9.57707e-01,9.99999e-01,9.99999e-01,9.93794e-01,9.63723e-01,9.99961e-01
8.884436187e-01,9.42538e-01,9.99999e-01,9.99999e-01,9.77408e-01,9.64426e-01,9.99892e-01
8.928858368e-01,7.62684e-01,9.99999e-01,9.99999e-01,7.90740e-01,9.65116e-01,9.99379e-01
8.973502660e-01,6.39245e-01,9.99999e-01,9.99999e-01,6.63991e-01,9.65794e-01,9.96827e-01
9.018370173e-01,7.81211e-01,9.99999e-01,9.99999e-01,8.12372e-01,9.66458e-01,9.95015e-01
9.063462024e-01,7.99303e-01,9.99999e-01,9.99999e-01,8.30121e-01,9.67109e-01,9.95620e-01
9.108779334e-01,7.21695e-01,9.99999e-01,9.99999e-01,7.49155e-01,9.67748e-01,9.95449e-01
9.154323231e-01,6.93918e-01,9.99999e-01,9.99999e-01,7.19285e-01,9.68375e-01,9.96237e-01
9.200094847e-01,7.48377e-01,9.99999e-01,9.99999e-01,7.73957e-01,9.68990e-01,9.97892e-01
9.246095321e-01,6.57573e-01,9.99999e-01,9.99999e-01,6.79845e-01,9.69593e-01,9.97571e-01
9.292325798e-01,9.75390e-02,9.99999e-01,9.99999e-01,1.01723e-01,9.70185e-01,9.88331e-01
9.338787427e-01,4.62647e-02,9.99999e-01,9.99999e-01,4.97234e-02,9.70765e-01,9.58461e-01
9.385481364e-01,2.72112e-01,9.99999e-01,9.99999e-01,2.93510e-01,9.71334e-01,9.54456e-01
9.432408771e-01,1.82698e-01,9.99999e-01,9.99999e-01,1.95695e-01,9.71892e-01,9.60583e-01
9.479570815e-01,9.49980e-02,9.99999e-01,9.99999e-01,1.00940e-01,9.72440e-01,9.67800e-01
9.526968669e-01,1.59763e-01,9.99999e-01,9.99999e-01,1.67511e-01,9.72977e-01,9.80235e-01
9.574603512e-01,1.74050e-01,9.99999e-01,9.99999e-01,1.80610e-01,9.73503e-01,9.89910e-01
9.622476530e-01,2.32864e-01,9.99999e-01,9.99999e-01,2.40758e-01,9.74020e-01,9.93012e-01
9.670588912e-01,4.20980e-01,9.99999e-01,9.99999e-01,4.34060e-01,9.74526e-01,9.95215e-01
9.718941857e-01,5.63307e-01,9.99999e-01,9.99999e-01,5.79779e-01,9.75023e-01,9.96475e-01
9.767536566e-01,6.18000e-01,9.99999e-01,9.99999e-01,6.35225e-01,9.75510e-01,9.97305e-01
9.816374249e-01,6.95039e-01,9.99999e-01,9.99999e-01,7.12803e-01,9.75988e-01,9.99066e-01
9.865456120e-01,7.89316e-01,9.99999e-01,9.99999e-01,8.08504e-01,9.76457e-01,9.99805e-01
9.914783401e-01,8.56110e-01,9.99999e-01,9.99999e-01,8.76386e-01,9.76916e-01,9.99945e-01
9.964357318e-01,9.09559e-01,9.99999e-01,9.99999e-01,9.30650e-01,9.77367e-01,9.99968e-01
1.001417910e+00,9.36510e-01,9.99999e-01,9.99999e-01,9.57808e-01,9.77809e-01,9.99951e-01
1.006425000e+00,9.54385e-01,9.99999e-01,9.99999e-01,9.75678e-01,9.78243e-01,9.99930e-01
1.011457125e+00,9.63795e-01,9.99999e-01,9.99999e-01,9.84864e-01,9.78668e-01,9.99935e-01
1.016514411e+00,9.68946e-01,9.99999e-01,9.99999e-01,9.89688e-01,9.79085e-01,9.99954e-01
1.021596983e+00,9.71391e-01,9.99999e-01,9.99999e-01,9.91770e-01,9.79494e-01,9.99955e-01
1.026704968e+00,9.73571e-01,9.99999e-01,9.99999e-01,9.93574e-01,9.79894e-01,9.99971e-01
1.031838492e+00,9.75705e-01,9.99999e-01,9.99999e-01,9.95333e-01,9.80288e-01,9.99991e-01
1.036997685e+00,9.77948e-01,9.99999e-01,9.99999e-01,9.97221e-01,9.80673e-01,9.99998e-01
1.042182673e+00,9.77793e-01,9.99999e-01,9.99999e-01,9.96679e-01,9.81051e-01,9.99998e-01
1.047393587e+00,9.77108e-01,9.99999e-01,9.99999e-01,9.95604e-01,9.81422e-01,9.99998e-01
1.052630555e+00,9.75861e-01,9.99999e-01,9.99999e-01,9.93966e-01,9.81786e-01,9.99997e-01
1.057893707e+00,9.72256e-01,9.99999e-01,9.99999e-01,9.89936e-01,9.82142e-01,9.99996e-01
1.063183176e+00,9.66284e-01,9.99999e-01,9.99999e-01,9.83511e-01,9.82492e-01,9.99990e-01
1.068499092e+00,9.55869e-01,9.99999e-01,9.99999e-01,9.72581e-01,9.82835e-01,9.99980e-01
1.073841587e+00,9.51668e-01,9.99999e-01,9.99999e-01,9.67997e-01,9.83171e-01,9.99958e-01
1.079210795e+00,9.43294e-01,9.99999e-01,9.99999e-01,9.59225e-01,9.83500e-01,9.99888e-01
1.084606849e+00,9.23505e-01,9.99999e-01,9.99999e-01,9.38939e-01,9.83824e-01,9.99732e-01
1.090029883e+00,8.98419e-01,9.99999e-01,9.99999e-01,9.13401e-01,9.84141e-01,9.99446e-01
1.095480033e+00,7.68976e-01,9.99999e-01,9.99999e-01,7.81903e-01,9.84451e-01,9.98998e-01
1.100957433e+00,5.31970e-01,9.99999e-01,9.99999e-01,5.41201e-01,9.84756e-01,9.98158e-01
1.106462220e+00,2.25064e-01,9.99999e-01,9.99999e-01,2.29194e-01,9.85055e-01,9.96878e-01
1.111994531e+00,4.91899e-02,9.99999e-01,9.99999e-01,5.03373e-02,9.85348e-01,9.91734e-01
1.117554504e+00,9.63718e-03,9.99999e-01,9.99999e-01,1.00750e-02,9.85635e-01,9.70479e-01
1.123142276e+00,4.20086e-02,9.99999e-01,9.99999e-01,4.57466e-02,9.85917e-01,9.31406e-01
1.128757988e+00,9.80372e-02,9.99999e-01,9.99999e-01,1.07927e-01,9.86193e-01,9.21083e-01
1.134401778e+00,4.62047e-02,9.99999e-01,9.99999e-01,5.02298e-02,9.86464e-01,9.32487e-01
1.140073787e+00,2.27533e-01,9.99999e-01,9.99999e-01,2.43837e-01,9.86730e-01,9.45682e-01
1.145774156e+00,6.56392e-02,9.99999e-01,9.99999e-01,6.99925e-02,9.86990e-01,9.50163e-01
1.151503026e+00,4.96976e-02,9.99999e-01,9.99999e-01,5.17938e-02,9.87245e-01,9.71922e-01
1.157260541e+00,6.49386e-02,9.99999e-01,9.99999e-01,6.63232e-02,9.87496e-01,9.91520e-01
1.163046844e+00,1.30098e-01,9.99999e-01,9.99999e-01,1.32031e-01,9.87741e-01,9.97589e-01
1.168862078e+00,2.28082e-01,9.99999e-01,9.99999e-01,2.31144e-01,9.87982e-01,9.98757e-01
1.174706389e+00,3.97112e-01,9.99999e-01,9.99999e-01,4.02509e-01,9.88218e-01,9.98352e-01
1.180579921e+00,5.63657e-01,9.99999e-01,9.99999e-01,5.71666e-01,9.88449e-01,9.97510e-01
1.186482820e+00,7.16090e-01,9.99999e-01,9.99999e-01,7.26146e-01,9.88676e-01,9.97445e-01
1.192415234e+00,8.18055e-01,9.99999e-01,9.99999e-01,8.28824e-01,9.88898e-01,9.98085e-01
1.198377311e+00,8.42767e-01,9.99999e-01,9.99999e-01,8.53582e-01,9.89116e-01,9.98191e-01
1.204369197e+00,8.51011e-01,9.99999e-01,9.99999e-01,8.61597e-01,9.89330e-01,9.98363e-01
1.210391043e+00,8.56936e-01,9.99999e-01,9.99999e-01,8.66856e-01,9.89540e-01,9.99004e-01
1.216442998e+00,8.76101e-01,9.99999e-01,9.99999e-01,8.85717e-01,9.89745e-01,9.99389e-01
1.222525213e+00,9.00066e-01,9.99999e-01,9.99999e-01,9.09550e-01,9.89947e-01,9.99620e-01
1.228637839e+00,9.26826e-01,9.99999e-01,9.99999e-01,9.36215e-01,9.90144e-01,9.99823e-01
