#,Wave/freq,Total,N2,O2,H2O,Rayleigh,CIA
4.000000000e-01,5.43293e-02,9.99999e-01,9.99999e-01,9.99671e-01,5.43471e-02,9.99999e-01
4.020000000e-01,5.75569e-02,9.99999e-01,9.99999e-01,9.99796e-01,5.75685e-02,9.99999e-01
4.040100000e-01,6.09028e-02,9.99999e-01,9.99999e-01,9.99913e-01,6.09080e-02,9.99999e-01
4.060300500e-01,6.43683e-02,9.99999e-01,9.99999e-01,9.99979e-01,6.43695e-02,9.99999e-01
4.080602003e-01,6.79531e-02,9.99999e-01,9.99999e-01,9.99993e-01,6.79535e-02,9.99999e-01
4.101005013e-01,7.16602e-02,9.99999e-01,9.99999e-01,9.99999e-01,7.16603e-02,9.99999e-01
4.121510038e-01,7.54891e-02,9.99999e-01,9.99999e-01,9.99987e-01,7.54900e-02,9.99999e-01
4.142117588e-01,7.94355e-02,9.99999e-01,9.99999e-01,9.99908e-01,7.94427e-02,9.99999e-01
4.162828176e-01,8.34842e-02,9.99999e-01,9.99999e-01,9.99593e-01,8.35181e-02,9.99999e-01
4.183642317e-01,8.76947e-02,9.99999e-01,9.99999e-01,9.99757e-01,8.77159e-02,9.99999e-01
4.204560528e-01,9.20218e-02,9.99999e-01,9.99999e-01,9.99851e-01,9.20354e-02,9.99999e-01
4.225583331e-01,9.64707e-02,9.99999e-01,9.99999e-01,9.99944e-01,9.64760e-02,9.99999e-01
4.246711247e-01,1.01032e-01,9.99999e-01,9.99999e-01,9.99955e-01,1.01037e-01,9.99999e-01
4.267944804e-01,1.05710e-01,9.99999e-01,9.99999e-01,9.99934e-01,1.05717e-01,9.99999e-01
4.289284528e-01,1.10509e-01,9.99999e-01,9.99999e-01,9.99949e-01,1.10514e-01,9.99999e-01
4.310730950e-01,1.15426e-01,9.99999e-01,9.99999e-01,9.99978e-01,1.15429e-01,9.99999e-01
4.332284605e-01,1.20457e-01,9.99999e-01,9.99999e-01,9.99994e-01,1.20458e-01,9.99999e-01
4.353946028e-01,1.25600e-01,9.99999e-01,9.99999e-01,9.99997e-01,1.25601e-01,9.99999e-01
4.375715758e-01,1.30849e-01,9.99999e-01,9.99999e-01,9.99958e-01,1.30854e-01,9.99999e-01
4.397594337e-01,1.36169e-01,9.99999e-01,9.99999e-01,9.99639e-01,1.36218e-01,9.99999e-01
4.419582309e-01,1.41429e-01,9.99999e-01,9.99999e-01,9.98166e-01,1.41689e-01,9.99999e-01
4.441680220e-01,1.47057e-01,9.99999e-01,9.99999e-01,9.98590e-01,1.47265e-01,9.99999e-01
4.463888621e-01,1.52718e-01,9.99999e-01,9.99999e-01,9.98526e-01,1.52943e-01,9.99999e-01
4.486208064e-01,1.58578e-01,9.99999e-01,9.99999e-01,9.99088e-01,1.58722e-01,9.99999e-01
4.508639105e-01,1.64529e-01,9.99999e-01,9.99999e-01,9.99573e-01,1.64599e-01,9.99999e-01
4.531182300e-01,1.70542e-01,9.99999e-01,9.99999e-01,9.99831e-01,1.70571e-01,9.99999e-01
4.553838212e-01,1.76615e-01,9.99999e-01,9.99999e-01,9.99884e-01,1.76635e-01,9.99999e-01
4.576607403e-01,1.82779e-01,9.99999e-01,9.99999e-01,9.99946e-01,1.82788e-01,9.99999e-01
4.599490440e-01,1.89021e-01,9.99999e-01,9.99999e-01,9.99962e-01,1.89028e-01,9.99999e-01
4.622487892e-01,1.95351e-01,9.99999e-01,9.99999e-01,9.99993e-01,1.95352e-01,9.99999e-01
4.645600332e-01,2.01750e-01,9.99999e-01,9.99999e-01,9.99973e-01,2.01756e-01,9.99999e-01
4.668828333e-01,2.08146e-01,9.99999e-01,9.99999e-01,9.99564e-01,2.08237e-01,9.99999e-01
4.692172475e-01,2.14593e-01,9.99999e-01,9.99999e-01,9.99075e-01,2.14792e-01,9.99999e-01
4.715633337e-01,2.21283e-01,9.99999e-01,9.99999e-01,9.99394e-01,2.21417e-01,9.99999e-01
4.739211504e-01,2.27979e-01,9.99999e-01,9.99999e-01,9.99423e-01,2.28110e-01,9.99999e-01
4.762907561e-01,2.34798e-01,9.99999e-01,9.99999e-01,9.99701e-01,2.34868e-01,9.99999e-01
4.786722099e-01,2.41656e-01,9.99999e-01,9.99999e-01,9.99877e-01,2.41686e-01,9.99999e-01
4.810655710e-01,2.48552e-01,9.99999e-01,9.99999e-01,9.99962e-01,2.48561e-01,9.99999e-01
4.834708988e-01,2.55399e-01,9.99999e-01,9.99999e-01,9.99639e-01,2.55491e-01,9.99999e-01
4.858882533e-01,2.62299e-01,9.99999e-01,9.99999e-01,9.99346e-01,2.62471e-01,9.99999e-01
4.883176946e-01,2.69350e-01,9.99999e-01,9.99999e-01,9.99450e-01,2.69498e-01,9.99999e-01
4.907592831e-01,2.76432e-01,9.99999e-01,9.99999e-01,9.99505e-01,2.76569e-01,9.99999e-01
4.932130795e-01,2.83581e-01,9.99999e-01,9.99999e-01,9.99649e-01,2.83680e-01,9.99999e-01
4.956791449e-01,2.90775e-01,9.99999e-01,9.99999e-01,9.99814e-01,2.90829e-01,9.99999e-01
4.981575406e-01,2.97733e-01,9.99999e-01,9.99999e-01,9.99068e-01,2.98011e-01,9.99999e-01
5.006483283e-01,3.04478e-01,9.99999e-01,9.99999e-01,9.97576e-01,3.05223e-01,9.99983e-01
5.031515699e-01,3.08630e-01,9.99999e-01,9.99999e-01,9.87861e-01,3.12462e-01,9.99871e-01
5.056673278e-01,3.17626e-01,9.99999e-01,9.99999e-01,9.93582e-01,3.19725e-01,9.99853e-01
5.081956644e-01,3.24334e-01,9.99999e-01,9.99999e-01,9.91910e-01,3.27008e-01,9.99910e-01
5.107366428e-01,3.32477e-01,9.99999e-01,9.99999e-01,9.94538e-01,3.34308e-01,9.99984e-01
5.132903260e-01,3.40556e-01,9.99999e-01,9.99999e-01,9.96880e-01,3.41622e-01,9.99997e-01
5.158567776e-01,3.48488e-01,9.99999e-01,9.99999e-01,9.98683e-01,3.48947e-01,9.99999e-01
5.184360615e-01,3.56092e-01,9.99999e-01,9.99999e-01,9.99472e-01,3.56280e-01,9.99999e-01
5.210282418e-01,3.63545e-01,9.99999e-01,9.99999e-01,9.99801e-01,3.63617e-01,9.99999e-01
5.236333830e-01,3.70659e-01,9.99999e-01,9.99999e-01,9.99204e-01,3.70956e-01,9.99993e-01
5.262515499e-01,3.78103e-01,9.99999e-01,9.99999e-01,9.99501e-01,3.78294e-01,9.99991e-01
5.288828077e-01,3.85449e-01,9.99999e-01,9.99999e-01,9.99541e-01,3.85628e-01,9.99994e-01
5.315272217e-01,3.92798e-01,9.99999e-01,9.99999e-01,9.99600e-01,3.92955e-01,9.99998e-01
5.341848578e-01,4.00167e-01,9.99999e-01,9.99999e-01,9.99736e-01,4.00272e-01,9.99999e-01
5.368557821e-01,4.07197e-01,9.99999e-01,9.99999e-01,9.99069e-01,4.07577e-01,9.99997e-01
5.395400610e-01,4.13457e-01,9.99999e-01,9.99999e-01,9.96631e-01,4.14867e-01,9.99967e-01
5.422377613e-01,4.20289e-01,9.99999e-01,9.99999e-01,9.95693e-01,4.22140e-01,9.99920e-01
5.449489501e-01,4.27629e-01,9.99999e-01,9.99999e-01,9.95971e-01,4.29393e-01,9.99918e-01
5.476736949e-01,4.35059e-01,9.99999e-01,9.99999e-01,9.96456e-01,4.36623e-01,9.99959e-01
5.504120634e-01,4.42682e-01,9.99999e-01,9.99999e-01,9.97426e-01,4.43829e-01,9.99988e-01
5.531641237e-01,4.50423e-01,9.99999e-01,9.99999e-01,9.98705e-01,4.51007e-01,9.99997e-01
5.559299443e-01,4.57871e-01,9.99999e-01,9.99999e-01,9.99375e-01,4.58157e-01,9.99999e-01
5.587095940e-01,4.65093e-01,9.99999e-01,9.99999e-01,9.99606e-01,4.65276e-01,9.99999e-01
5.615031420e-01,4.72154e-01,9.99999e-01,9.99999e-01,9.99561e-01,4.72361e-01,9.99998e-01
5.643106577e-01,4.79168e-01,9.99999e-01,9.99999e-01,9.99498e-01,4.79411e-01,9.99995e-01
5.671322110e-01,4.83436e-01,9.99999e-01,9.99999e-01,9.93911e-01,4.86423e-01,9.99946e-01
5.699678720e-01,4.90183e-01,9.99999e-01,9.99999e-01,9.93647e-01,4.93397e-01,9.99835e-01
5.728177114e-01,4.96920e-01,9.99999e-01,9.99999e-01,9.93319e-01,5.00330e-01,9.99863e-01
5.756818000e-01,5.04077e-01,9.99999e-01,9.99999e-01,9.93879e-01,5.07221e-01,9.99920e-01
5.785602090e-01,5.11319e-01,9.99999e-01,9.99999e-01,9.94674e-01,5.14068e-01,9.99976e-01
5.814530100e-01,5.18073e-01,9.99999e-01,9.99999e-01,9.94642e-01,5.20869e-01,9.99988e-01
5.843602750e-01,5.24220e-01,9.99999e-01,9.99999e-01,9.93585e-01,5.27623e-01,9.99963e-01
5.872820764e-01,5.05582e-01,9.99999e-01,9.99999e-01,9.46565e-01,5.34329e-01,9.99612e-01
5.902184868e-01,5.05551e-01,9.99999e-01,9.99999e-01,9.35485e-01,5.40985e-01,9.98946e-01
5.931695792e-01,5.21942e-01,9.99999e-01,9.99999e-01,9.54128e-01,5.47590e-01,9.98986e-01
5.961354271e-01,5.25976e-01,9.99999e-01,9.99999e-01,9.49724e-01,5.54142e-01,9.99417e-01
5.991161043e-01,5.39820e-01,9.99999e-01,9.99999e-01,9.63034e-01,5.60642e-01,9.99819e-01
6.021116848e-01,5.55097e-01,9.99999e-01,9.99999e-01,9.78876e-01,5.67087e-01,9.99979e-01
6.051222432e-01,5.67317e-01,9.99999e-01,9.99999e-01,9.89259e-01,5.73476e-01,9.99998e-01
6.081478544e-01,5.77114e-01,9.99999e-01,9.99999e-01,9.95351e-01,5.79810e-01,9.99999e-01
6.111885937e-01,5.84935e-01,9.99999e-01,9.99999e-01,9.98035e-01,5.86086e-01,9.99999e-01
6.142445367e-01,5.91783e-01,9.99999e-01,9.99999e-01,9.99120e-01,5.92304e-01,9.99999e-01
6.173157594e-01,5.98173e-01,9.99999e-01,9.99999e-01,9.99514e-01,5.98463e-01,9.99999e-01
6.204023382e-01,6.04313e-01,9.99999e-01,9.99999e-01,9.99587e-01,6.04563e-01,9.99999e-01
6.235043498e-01,6.09479e-01,9.99999e-01,9.99999e-01,9.98164e-01,6.10602e-01,9.99995e-01
6.266218716e-01,6.10636e-01,9.99999e-01,9.99999e-01,9.90424e-01,6.16581e-01,9.99932e-01
6.297549810e-01,6.20222e-01,9.99999e-01,9.99999e-01,9.96477e-01,6.22499e-01,9.99864e-01
6.329037559e-01,6.23926e-01,9.99999e-01,9.99999e-01,9.93059e-01,6.28354e-01,9.99891e-01
6.360682746e-01,6.30347e-01,9.99999e-01,9.99999e-01,9.94068e-01,6.34148e-01,9.99935e-01
6.392486160e-01,6.34955e-01,9.99999e-01,9.99999e-01,9.92331e-01,6.39879e-01,9.99971e-01
6.424448591e-01,6.38864e-01,9.99999e-01,9.99999e-01,9.89696e-01,6.45547e-01,9.99948e-01
6.456570834e-01,6.20506e-01,9.99999e-01,9.99999e-01,9.53210e-01,6.51152e-01,9.99710e-01
6.488853688e-01,6.33801e-01,9.99999e-01,9.99999e-01,9.65853e-01,6.56693e-01,9.99260e-01
6.521297956e-01,6.38800e-01,9.99999e-01,9.99999e-01,9.65294e-01,6.62171e-01,9.99389e-01
6.553904446e-01,6.43985e-01,9.99999e-01,9.99999e-01,9.65087e-01,6.67585e-01,9.99545e-01
6.586673968e-01,6.52779e-01,9.99999e-01,9.99999e-01,9.70194e-01,6.72934e-01,9.99847e-01
6.619607338e-01,6.66839e-01,9.99999e-01,9.99999e-01,9.83250e-01,6.78220e-01,9.99967e-01
6.652705375e-01,6.76535e-01,9.99999e-01,9.99999e-01,9.89910e-01,6.83442e-01,9.99983e-01
6.685968902e-01,6.85639e-01,9.99999e-01,9.99999e-01,9.95703e-01,6.88599e-01,9.99996e-01
6.719398746e-01,6.92183e-01,9.99999e-01,9.99999e-01,9.97823e-01,6.93693e-01,9.99999e-01
6.752995740e-01,6.97919e-01,9.99999e-01,9.99999e-01,9.98850e-01,6.98722e-01,9.99999e-01
6.786760719e-01,7.02474e-01,9.99999e-01,9.99999e-01,9.98277e-01,7.03687e-01,9.99997e-01
6.820694522e-01,7.06501e-01,9.99999e-01,9.99999e-01,9.97067e-01,7.08589e-01,9.99984e-01
6.854797995e-01,7.10704e-01,9.99999e-01,9.99999e-01,9.96214e-01,7.13427e-01,9.99966e-01
6.889071985e-01,7.11534e-01,9.99999e-01,9.99999e-01,9.90797e-01,7.18201e-01,9.99918e-01
6.923517345e-01,6.22904e-01,9.99999e-01,9.99999e-01,8.62274e-01,7.22912e-01,9.99285e-01
6.958134932e-01,6.73482e-01,9.99999e-01,9.99999e-01,9.27136e-01,7.27560e-01,9.98417e-01
6.992925606e-01,6.79107e-01,9.99999e-01,9.99999e-01,9.28880e-01,7.32146e-01,9.98574e-01
7.027890234e-01,6.72135e-01,9.99999e-01,9.99999e-01,9.13392e-01,7.36668e-01,9.98911e-01
7.063029686e-01,6.86165e-01,9.99999e-01,9.99999e-01,9.26339e-01,7.41129e-01,9.99457e-01
7.098344834e-01,6.92471e-01,9.99999e-01,9.99999e-01,9.29131e-01,7.45527e-01,9.99679e-01
7.133836558e-01,6.79730e-01,9.99999e-01,9.99999e-01,9.07047e-01,7.49865e-01,9.99362e-01
7.169505741e-01,3.66109e-01,9.99999e-01,9.99999e-01,4.87906e-01,7.54140e-01,9.94997e-01
7.205353270e-01,5.24511e-01,9.99999e-01,9.99999e-01,6.97788e-01,7.58355e-01,9.91191e-01
7.241380036e-01,4.74741e-01,9.99999e-01,9.99999e-01,6.27377e-01,7.62510e-01,9.92389e-01
7.277586936e-01,5.00916e-01,9.99999e-01,9.99999e-01,6.57514e-01,7.66605e-01,9.93774e-01
7.313974871e-01,4.88509e-01,9.99999e-01,9.99999e-01,6.35756e-01,7.70640e-01,9.97079e-01
7.350544745e-01,6.01989e-01,9.99999e-01,9.99999e-01,7.77934e-01,7.74616e-01,9.98983e-01
7.387297469e-01,6.45613e-01,9.99999e-01,9.99999e-01,8.29654e-01,7.78533e-01,9.99533e-01
7.424233956e-01,7.13740e-01,9.99999e-01,9.99999e-01,9.12326e-01,7.82393e-01,9.99918e-01
7.461355126e-01,7.43543e-01,9.99999e-01,9.99999e-01,9.45762e-01,7.86194e-01,9.99985e-01
7.498661902e-01,7.69717e-01,9.99999e-01,9.99999e-01,9.74405e-01,7.89939e-01,9.99993e-01
7.536155211e-01,7.83569e-01,9.99999e-01,9.99999e-01,9.87329e-01,7.93627e-01,9.99996e-01
7.573835987e-01,7.92044e-01,9.99999e-01,9.99999e-01,9.93459e-01,7.97258e-01,9.99998e-01
7.611705167e-01,7.97576e-01,9.99999e-01,9.99999e-01,9.95931e-01,8.00834e-01,9.99999e-01
7.649763693e-01,8.02302e-01,9.99999e-01,9.99999e-01,9.97446e-01,8.04355e-01,9.99999e-01
7.688012511e-01,8.06384e-01,9.99999e-01,9.99999e-01,9.98219e-01,8.07822e-01,9.99999e-01
7.726452574e-01,8.10044e-01,9.99999e-01,9.99999e-01,9.98533e-01,8.11234e-01,9.99998e-01
7.765084837e-01,8.12885e-01,9.99999e-01,9.99999e-01,9.97904e-01,8.14593e-01,9.99997e-01
7.803910261e-01,8.10503e-01,9.99999e-01,9.99999e-01,9.90964e-01,8.17900e-01,9.99990e-01
7.842929812e-01,7.95538e-01,9.99999e-01,9.99999e-01,9.68860e-01,8.21154e-01,9.99941e-01
7.882144461e-01,7.72239e-01,9.99999e-01,9.99999e-01,9.37194e-01,8.24356e-01,9.99555e-01
7.921555184e-01,7.98120e-01,9.99999e-01,9.99999e-01,9.65231e-01,8.27507e-01,9.99227e-01
7.961162960e-01,7.79365e-01,9.99999e-01,9.99999e-01,9.38996e-01,8.30608e-01,9.99265e-01
8.000968774e-01,7.74526e-01,9.99999e-01,9.99999e-01,9.29794e-01,8.33658e-01,9.99218e-01
8.040973618e-01,7.77491e-01,9.99999e-01,9.99999e-01,9.29834e-01,8.36659e-01,9.99403e-01
8.081178486e-01,7.13596e-01,9.99999e-01,9.99999e-01,8.50424e-01,8.39612e-01,9.99395e-01
8.121584379e-01,4.40233e-01,9.99999e-01,9.99999e-01,5.23718e-01,8.42516e-01,9.97713e-01
8.162192301e-01,3.94881e-01,9.99999e-01,9.99999e-01,4.71146e-01,8.45373e-01,9.91428e-01
8.203003262e-01,5.88845e-01,9.99999e-01,9.99999e-01,7.01276e-01,8.48182e-01,9.89970e-01
8.244018279e-01,5.31125e-01,9.99999e-01,9.99999e-01,6.29185e-01,8.50945e-01,9.92010e-01
8.285238370e-01,5.32353e-01,9.99999e-01,9.99999e-01,6.27551e-01,8.53663e-01,9.93719e-01
8.326664562e-01,5.36323e-01,9.99999e-01,9.99999e-01,6.27933e-01,8.56335e-01,9.97397e-01
8.368297885e-01,6.10009e-01,9.99999e-01,9.99999e-01,7.10592e-01,8.58962e-01,9.99404e-01
8.410139374e-01,7.01827e-01,9.99999e-01,9.99999e-01,8.14897e-01,8.61545e-01,9.99651e-01
8.452190071e-01,7.80919e-01,9.99999e-01,9.99999e-01,9.03939e-01,8.64085e-01,9.99791e-01
8.494451021e-01,8.16827e-01,9.99999e-01,9.99999e-01,9.42741e-01,8.66582e-01,9.99832e-01
8.536923276e-01,8.39240e-01,9.99999e-01,9.99999e-01,9.65810e-01,8.69037e-01,9.99898e-01
8.579607893e-01,8.52914e-01,9.99999e-01,9.99999e-01,9.78753e-01,8.71450e-01,9.99975e-01
8.622505932e-01,8.61998e-01,9.99999e-01,9.99999e-01,9.86472e-01,8.73821e-01,9.99995e-01
8.665618462e-01,8.68783e-01,9.99999e-01,9.99999e-01,9.91591e-01,8.76152e-01,9.99997e-01
8.708946554e-01,8.69971e-01,9.99999e-01,9.99999e-01,9.90359e-01,8.78443e-01,9.99994e-01
8.752491287e-01,8.69347e-01,9.99999e-01,9.99999e-01,9.87127e-01,8.80695e-01,9.99985e-01
8.796253743e-01,8.67139e-01,9.99999e-01,9.99999e-01,9.82178e-01,8.82908e-01,9.99959e-01
8.840235012e-01,8.67002e-01,9.99999e-01,9.99999e-01,9.79693e-01,8.85082e-01,9.99875e-01
8.884436187e-01,8.23870e-01,9.99999e-01,9.99999e-01,9.28926e-01,8.87219e-01,9.99645e-01
8.928858368e-01,4.32446e-01,9.99999e-01,9.99999e-01,4.87260e-01,8.89319e-01,9.97958e-01
8.973502660e-01,2.54672e-01,9.99999e-01,9.99999e-01,2.88712e-01,8.91382e-01,9.89582e-01
9.018370173e-01,4.67251e-01,9.99999e-01,9.99999e-01,5.31680e-01,8.93408e-01,9.83669e-01
9.063462024e-01,4.97443e-01,9.99999e-01,9.99999e-01,5.63647e-01,8.95400e-01,9.85640e-01
9.108779334e-01,3.64215e-01,9.99999e-01,9.99999e-01,4.12021e-01,8.97356e-01,9.85082e-01
9.154323231e-01,3.17756e-01,9.99999e-01,9.99999e-01,3.57763e-01,8.99278e-01,9.87654e-01
9.200094847e-01,4.06355e-01,9.99999e-01,9.99999e-01,4.54067e-01,9.01165e-01,9.93071e-01
9.246095321e-01,2.87327e-01,9.99999e-01,9.99999e-01,3.20743e-01,9.03020e-01,9.92020e-01
9.292325798e-01,7.50290e-03,9.99999e-01,9.99999e-01,8.61895e-03,9.04841e-01,9.62059e-01
9.338787427e-01,3.12269e-04,9.99999e-01,9.99999e-01,3.96113e-04,9.06630e-01,8.69519e-01
9.385481364e-01,3.08411e-02,9.99999e-01,9.99999e-01,3.95886e-02,9.08387e-01,8.57604e-01
9.432408771e-01,1.24306e-02,9.99999e-01,9.99999e-01,1.55938e-02,9.10113e-01,8.75882e-01
9.479570815e-01,1.31177e-03,9.99999e-01,9.99999e-01,1.60249e-03,9.11807e-01,8.97756e-01
9.526968669e-01,5.36045e-03,9.99999e-01,9.99999e-01,6.26723e-03,9.13472e-01,9.36331e-01
9.574603512e-01,7.37720e-03,9.99999e-01,9.99999e-01,8.33551e-03,9.15106e-01,9.67135e-01
9.622476530e-01,1.65307e-02,9.99999e-01,9.99999e-01,1.84542e-02,9.16711e-01,9.77158e-01
9.670588912e-01,8.36695e-02,9.99999e-01,9.99999e-01,9.25659e-02,9.18287e-01,9.84321e-01
9.718941857e-01,1.66308e-01,9.99999e-01,9.99999e-01,1.82917e-01,9.19835e-01,9.88434e-01
9.767536566e-01,2.21570e-01,9.99999e-01,9.99999e-01,2.42630e-01,9.21354e-01,9.91149e-01
9.816374249e-01,3.12065e-01,9.99999e-01,9.99999e-01,3.39197e-01,9.22846e-01,9.96928e-01
9.865456120e-01,4.64192e-01,9.99999e-01,9.99999e-01,5.02524e-01,9.24311e-01,9.99359e-01
9.914783401e-01,6.01238e-01,9.99999e-01,9.99999e-01,6.49576e-01,9.25749e-01,9.99822e-01
9.964357318e-01,7.32591e-01,9.99999e-01,9.99999e-01,7.90226e-01,9.27161e-01,9.99895e-01
1.001417910e+00,8.05754e-01,9.99999e-01,9.99999e-01,8.67895e-01,9.28547e-01,9.99841e-01
1.006425000e+00,8.57277e-01,9.99999e-01,9.99999e-01,9.22103e-01,9.29907e-01,9.99773e-01
1.011457125e+00,8.85433e-01,9.99999e-01,9.99999e-01,9.51006e-01,9.31243e-01,9.99789e-01
1.016514411e+00,9.01102e-01,9.99999e-01,9.99999e-01,9.66415e-01,9.32554e-01,9.99851e-01
1.021596983e+00,9.08614e-01,9.99999e-01,9.99999e-01,9.73125e-01,9.33841e-01,9.99854e-01
1.026704968e+00,9.15353e-01,9.99999e-01,9.99999e-01,9.78966e-01,9.35105e-01,9.99908e-01
1.031838492e+00,9.21990e-01,9.99999e-01,9.99999e-01,9.84695e-01,9.36345e-01,9.99972e-01
1.036997685e+00,9.28998e-01,9.99999e-01,9.99999e-01,9.90869e-01,9.37562e-01,9.99995e-01
1.042182673e+00,9.28517e-01,9.99999e-01,9.99999e-01,9.89093e-01,9.38757e-01,9.99997e-01
1.047393587e+00,9.26374e-01,9.99999e-01,9.99999e-01,9.85580e-01,9.39930e-01,9.99996e-01
1.052630555e+00,9.22491e-01,9.99999e-01,9.99999e-01,9.80250e-01,9.41080e-01,9.99994e-01
1.057893707e+00,9.11331e-01,9.99999e-01,9.99999e-01,9.67237e-01,9.42210e-01,9.99988e-01
1.063183176e+00,8.93106e-01,9.99999e-01,9.99999e-01,9.46796e-01,9.43318e-01,9.99971e-01
1.068499092e+00,8.61984e-01,9.99999e-01,9.99999e-01,9.12781e-01,9.44406e-01,9.99937e-01
1.073841587e+00,8.50112e-01,9.99999e-01,9.99999e-01,8.99259e-01,9.45474e-01,9.99864e-01
1.079210795e+00,8.25583e-01,9.99999e-01,9.99999e-01,8.72546e-01,9.46521e-01,9.99634e-01
1.084606849e+00,7.70992e-01,9.99999e-01,9.99999e-01,8.14385e-01,9.47550e-01,9.99120e-01
1.090029883e+00,7.06942e-01,9.99999e-01,9.99999e-01,7.46640e-01,9.48558e-01,9.98177e-01
1.095480033e+00,4.30279e-01,9.99999e-01,9.99999e-01,4.54637e-01,9.49548e-01,9.96705e-01
1.100957433e+00,1.45183e-01,9.99999e-01,9.99999e-01,1.53671e-01,9.50520e-01,9.93944e-01
1.106462220e+00,1.55796e-02,9.99999e-01,9.99999e-01,1.65437e-02,9.51473e-01,9.89749e-01
1.111994531e+00,2.07464e-04,9.99999e-01,9.99999e-01,2.23871e-04,9.52408e-01,9.73019e-01
1.117554504e+00,5.78140e-06,9.99999e-01,9.99999e-01,6.69387e-06,9.53326e-01,9.05969e-01
1.123142276e+00,3.09652e-04,9.99999e-01,9.99999e-01,4.10132e-04,9.54227e-01,7.91222e-01
1.128757988e+00,1.29477e-03,9.99999e-01,9.99999e-01,1.77742e-03,9.55110e-01,7.62689e-01
1.134401778e+00,1.28327e-03,9.99999e-01,9.99999e-01,1.69009e-03,9.55977e-01,7.94254e-01
1.140073787e+00,1.17884e-02,9.99999e-01,9.99999e-01,1.48099e-02,9.56828e-01,8.31896e-01
1.145774156e+00,9.96781e-04,9.99999e-01,9.99999e-01,1.23183e-03,9.57662e-01,8.44957e-01
1.151503026e+00,2.82131e-04,9.99999e-01,9.99999e-01,3.23315e-04,9.58481e-01,9.10418e-01
1.157260541e+00,2.90765e-04,9.99999e-01,9.99999e-01,3.11732e-04,9.59284e-01,9.72329e-01
1.163046844e+00,2.41262e-03,9.99999e-01,9.99999e-01,2.53302e-03,9.60072e-01,9.92078e-01
1.168862078e+00,1.22229e-02,9.99999e-01,9.99999e-01,1.27732e-02,9.60845e-01,9.95911e-01
1.174706389e+00,5.80808e-02,9.99999e-01,9.99999e-01,6.07288e-02,9.61603e-01,9.94583e-01
1.180579921e+00,1.65348e-01,9.99999e-01,9.99999e-01,1.73234e-01,9.62347e-01,9.91821e-01
1.186482820e+00,3.39407e-01,9.99999e-01,9.99999e-01,3.55402e-01,9.63077e-01,9.91605e-01
1.192415234e+00,5.18212e-01,9.99999e-01,9.99999e-01,5.41084e-01,9.63793e-01,9.93707e-01
1.198377311e+00,5.71782e-01,9.99999e-01,9.99999e-01,5.96375e-01,9.64495e-01,9.94054e-01
1.204369197e+00,5.93911e-01,9.99999e-01,9.99999e-01,6.18662e-01,9.65184e-01,9.94619e-01
1.210391043e+00,6.05126e-01,9.99999e-01,9.99999e-01,6.28574e-01,9.65860e-01,9.96723e-01
1.216442998e+00,6.50228e-01,9.99999e-01,9.99999e-01,6.74103e-01,9.66523e-01,9.97991e-01
1.222525213e+00,7.08123e-01,9.99999e-01,9.99999e-01,7.33071e-01,9.67173e-01,9.98752e-01
1.228637839e+00,7.79030e-01,9.99999e-01,9.99999e-01,8.05407e-01,9.67811e-01,9.99419e-01
