#,Wave/freq,Total,N2,O2,H2O,Rayleigh,CIA
4.000000000e-01,1.40832e-01,9.99999e-01,9.99999e-01,9.99778e-01,1.40863e-01,9.99999e-01
4.020000000e-01,1.46409e-01,9.99999e-01,9.99999e-01,9.99862e-01,1.46429e-01,9.99999e-01
4.040100000e-01,1.52084e-01,9.99999e-01,9.99999e-01,9.99941e-01,1.52092e-01,9.99999e-01
4.060300500e-01,1.57855e-01,9.99999e-01,9.99999e-01,9.99986e-01,1.57857e-01,9.99999e-01
4.080602003e-01,1.63718e-01,9.99999e-01,9.99999e-01,9.99995e-01,1.63719e-01,9.99999e-01
4.101005013e-01,1.69677e-01,9.99999e-01,9.99999e-01,9.99999e-01,1.69677e-01,9.99999e-01
4.121510038e-01,1.75726e-01,9.99999e-01,9.99999e-01,9.99991e-01,1.75727e-01,9.99999e-01
4.142117588e-01,1.81857e-01,9.99999e-01,9.99999e-01,9.99938e-01,1.81868e-01,9.99999e-01
4.162828176e-01,1.88044e-01,9.99999e-01,9.99999e-01,9.99725e-01,1.88095e-01,9.99999e-01
4.183642317e-01,1.94375e-01,9.99999e-01,9.99999e-01,9.99836e-01,1.94406e-01,9.99999e-01
4.204560528e-01,2.00778e-01,9.99999e-01,9.99999e-01,9.99899e-01,2.00798e-01,9.99999e-01
4.225583331e-01,2.07260e-01,9.99999e-01,9.99999e-01,9.99962e-01,2.07268e-01,9.99999e-01
4.246711247e-01,2.13806e-01,9.99999e-01,9.99999e-01,9.99969e-01,2.13812e-01,9.99999e-01
4.267944804e-01,2.20418e-01,9.99999e-01,9.99999e-01,9.99955e-01,2.20428e-01,9.99999e-01
4.289284528e-01,2.27103e-01,9.99999e-01,9.99999e-01,9.99965e-01,2.27111e-01,9.99999e-01
4.310730950e-01,2.33856e-01,9.99999e-01,9.99999e-01,9.99985e-01,2.33859e-01,9.99999e-01
4.332284605e-01,2.40667e-01,9.99999e-01,9.99999e-01,9.99995e-01,2.40668e-01,9.99999e-01
4.353946028e-01,2.47535e-01,9.99999e-01,9.99999e-01,9.99997e-01,2.47535e-01,9.99999e-01
4.375715758e-01,2.54450e-01,9.99999e-01,9.99999e-01,9.99972e-01,2.54457e-01,9.99999e-01
4.397594337e-01,2.61367e-01,9.99999e-01,9.99999e-01,9.99759e-01,2.61430e-01,9.99999e-01
4.419582309e-01,2.68123e-01,9.99999e-01,9.99999e-01,9.98782e-01,2.68450e-01,9.99999e-01
4.441680220e-01,2.75252e-01,9.99999e-01,9.99999e-01,9.99045e-01,2.75515e-01,9.99999e-01
4.463888621e-01,2.82340e-01,9.99999e-01,9.99999e-01,9.99007e-01,2.82620e-01,9.99999e-01
4.486208064e-01,2.89585e-01,9.99999e-01,9.99999e-01,9.99383e-01,2.89763e-01,9.99999e-01
4.508639105e-01,2.96855e-01,9.99999e-01,9.99999e-01,9.99711e-01,2.96941e-01,9.99999e-01
4.531182300e-01,3.04114e-01,9.99999e-01,9.99999e-01,9.99885e-01,3.04148e-01,9.99999e-01
4.553838212e-01,3.11360e-01,9.99999e-01,9.99999e-01,9.99922e-01,3.11384e-01,9.99999e-01
4.576607403e-01,3.18632e-01,9.99999e-01,9.99999e-01,9.99963e-01,3.18643e-01,9.99999e-01
4.599490440e-01,3.25915e-01,9.99999e-01,9.99999e-01,9.99974e-01,3.25923e-01,9.99999e-01
4.622487892e-01,3.33220e-01,9.99999e-01,9.99999e-01,9.99995e-01,3.33221e-01,9.99999e-01
4.645600332e-01,3.40528e-01,9.99999e-01,9.99999e-01,9.99982e-01,3.40534e-01,9.99999e-01
4.668828333e-01,3.47756e-01,9.99999e-01,9.99999e-01,9.99708e-01,3.47857e-01,9.99999e-01
4.692172475e-01,3.54968e-01,9.99999e-01,9.99999e-01,9.99377e-01,3.55189e-01,9.99999e-01
4.715633337e-01,3.62378e-01,9.99999e-01,9.99999e-01,9.99593e-01,3.62526e-01,9.99999e-01
4.739211504e-01,3.69721e-01,9.99999e-01,9.99999e-01,9.99610e-01,3.69865e-01,9.99999e-01
4.762907561e-01,3.77127e-01,9.99999e-01,9.99999e-01,9.99797e-01,3.77203e-01,9.99999e-01
4.786722099e-01,3.84506e-01,9.99999e-01,9.99999e-01,9.99917e-01,3.84538e-01,9.99999e-01
4.810655710e-01,3.91856e-01,9.99999e-01,9.99999e-01,9.99974e-01,3.91866e-01,9.99999e-01
4.834708988e-01,3.99090e-01,9.99999e-01,9.99999e-01,9.99762e-01,3.99185e-01,9.99999e-01
4.858882533e-01,4.06313e-01,9.99999e-01,9.99999e-01,9.99558e-01,4.06492e-01,9.99999e-01
4.883176946e-01,4.13632e-01,9.99999e-01,9.99999e-01,9.99631e-01,4.13784e-01,9.99999e-01
4.907592831e-01,4.20919e-01,9.99999e-01,9.99999e-01,9.99666e-01,4.21060e-01,9.99999e-01
4.932130795e-01,4.28214e-01,9.99999e-01,9.99999e-01,9.99763e-01,4.28315e-01,9.99999e-01
4.956791449e-01,4.35495e-01,9.99999e-01,9.99999e-01,9.99874e-01,4.35549e-01,9.99999e-01
4.981575406e-01,4.42482e-01,9.99999e-01,9.99999e-01,9.99374e-01,4.42759e-01,9.99999e-01
5.006483283e-01,4.49209e-01,9.99999e-01,9.99999e-01,9.98382e-01,4.49942e-01,9.99988e-01
5.031515699e-01,4.53321e-01,9.99999e-01,9.99999e-01,9.91825e-01,4.57096e-01,9.99913e-01
5.056673278e-01,4.62164e-01,9.99999e-01,9.99999e-01,9.95671e-01,4.64219e-01,9.99900e-01
5.081956644e-01,4.68707e-01,9.99999e-01,9.99999e-01,9.94540e-01,4.71309e-01,9.99935e-01
5.107366428e-01,4.76594e-01,9.99999e-01,9.99999e-01,9.96310e-01,4.78365e-01,9.99987e-01
5.132903260e-01,4.84358e-01,9.99999e-01,9.99999e-01,9.97889e-01,4.85383e-01,9.99998e-01
5.158567776e-01,4.91924e-01,9.99999e-01,9.99999e-01,9.99108e-01,4.92363e-01,9.99999e-01
5.184360615e-01,4.99124e-01,9.99999e-01,9.99999e-01,9.99642e-01,4.99302e-01,9.99999e-01
5.210282418e-01,5.06132e-01,9.99999e-01,9.99999e-01,9.99866e-01,5.06199e-01,9.99999e-01
5.236333830e-01,5.12776e-01,9.99999e-01,9.99999e-01,9.99464e-01,5.13052e-01,9.99995e-01
5.262515499e-01,5.19684e-01,9.99999e-01,9.99999e-01,9.99664e-01,5.19860e-01,9.99994e-01
5.288828077e-01,5.26458e-01,9.99999e-01,9.99999e-01,9.99692e-01,5.26622e-01,9.99996e-01
5.315272217e-01,5.33190e-01,9.99999e-01,9.99999e-01,9.99729e-01,5.33335e-01,9.99998e-01
5.341848578e-01,5.39903e-01,9.99999e-01,9.99999e-01,9.99823e-01,5.39998e-01,9.99999e-01
5.368557821e-01,5.46270e-01,9.99999e-01,9.99999e-01,9.99377e-01,5.46611e-01,9.99998e-01
5.395400610e-01,5.51920e-01,9.99999e-01,9.99999e-01,9.97756e-01,5.53171e-01,9.99981e-01
5.422377613e-01,5.58023e-01,9.99999e-01,9.99999e-01,9.97092e-01,5.59679e-01,9.99946e-01
5.449489501e-01,5.64572e-01,9.99999e-01,9.99999e-01,9.97299e-01,5.66132e-01,9.99945e-01
5.476736949e-01,5.71143e-01,9.99999e-01,9.99999e-01,9.97604e-01,5.72530e-01,9.99972e-01
5.504120634e-01,5.77861e-01,9.99999e-01,9.99999e-01,9.98261e-01,5.78871e-01,9.99992e-01
5.531641237e-01,5.84644e-01,9.99999e-01,9.99999e-01,9.99124e-01,5.85156e-01,9.99998e-01
5.559299443e-01,5.91133e-01,9.99999e-01,9.99999e-01,9.99577e-01,5.91383e-01,9.99999e-01
5.587095940e-01,5.97393e-01,9.99999e-01,9.99999e-01,9.99735e-01,5.97551e-01,9.99999e-01
5.615031420e-01,6.03481e-01,9.99999e-01,9.99999e-01,9.99705e-01,6.03659e-01,9.99999e-01
5.643106577e-01,6.09503e-01,9.99999e-01,9.99999e-01,9.99666e-01,6.09708e-01,9.99996e-01
5.671322110e-01,6.13188e-01,9.99999e-01,9.99999e-01,9.95962e-01,6.15696e-01,9.99963e-01
5.699678720e-01,6.18871e-01,9.99999e-01,9.99999e-01,9.95683e-01,6.21623e-01,9.99889e-01
5.728177114e-01,6.24613e-01,9.99999e-01,9.99999e-01,9.95509e-01,6.27488e-01,9.99907e-01
5.756818000e-01,6.30644e-01,9.99999e-01,9.99999e-01,9.95877e-01,6.33290e-01,9.99943e-01
5.785602090e-01,6.36723e-01,9.99999e-01,9.99999e-01,9.96405e-01,6.39031e-01,9.99982e-01
5.814530100e-01,6.42377e-01,9.99999e-01,9.99999e-01,9.96390e-01,6.44708e-01,9.99991e-01
5.843602750e-01,6.47515e-01,9.99999e-01,9.99999e-01,9.95706e-01,6.50322e-01,9.99975e-01
5.872820764e-01,6.31965e-01,9.99999e-01,9.99999e-01,9.63797e-01,6.55873e-01,9.99738e-01
5.902184868e-01,6.31805e-01,9.99999e-01,9.99999e-01,9.55988e-01,6.61360e-01,9.99289e-01
5.931695792e-01,6.45563e-01,9.99999e-01,9.99999e-01,9.68835e-01,6.66784e-01,9.99316e-01
5.961354271e-01,6.48895e-01,9.99999e-01,9.99999e-01,9.65790e-01,6.72143e-01,9.99607e-01
5.991161043e-01,6.60351e-01,9.99999e-01,9.99999e-01,9.74894e-01,6.77438e-01,9.99878e-01
6.021116848e-01,6.72879e-01,9.99999e-01,9.99999e-01,9.85673e-01,6.82669e-01,9.99984e-01
6.051222432e-01,6.82831e-01,9.99999e-01,9.99999e-01,9.92724e-01,6.87836e-01,9.99998e-01
6.081478544e-01,6.90761e-01,9.99999e-01,9.99999e-01,9.96856e-01,6.92939e-01,9.99999e-01
6.111885937e-01,6.97049e-01,9.99999e-01,9.99999e-01,9.98668e-01,6.97978e-01,9.99999e-01
6.142445367e-01,7.02535e-01,9.99999e-01,9.99999e-01,9.99405e-01,7.02953e-01,9.99999e-01
6.173157594e-01,7.07632e-01,9.99999e-01,9.99999e-01,9.99671e-01,7.07864e-01,9.99999e-01
6.204023382e-01,7.12514e-01,9.99999e-01,9.99999e-01,9.99722e-01,7.12712e-01,9.99999e-01
6.235043498e-01,7.16619e-01,9.99999e-01,9.99999e-01,9.98781e-01,7.17495e-01,9.99996e-01
6.266218716e-01,7.17524e-01,9.99999e-01,9.99999e-01,9.93547e-01,7.22216e-01,9.99954e-01
6.297549810e-01,7.25085e-01,9.99999e-01,9.99999e-01,9.97629e-01,7.26873e-01,9.99908e-01
6.329037559e-01,7.27988e-01,9.99999e-01,9.99999e-01,9.95314e-01,7.31468e-01,9.99926e-01
6.360682746e-01,7.33034e-01,9.99999e-01,9.99999e-01,9.96012e-01,7.36000e-01,9.99956e-01
6.392486160e-01,7.36629e-01,9.99999e-01,9.99999e-01,9.94832e-01,7.40469e-01,9.99980e-01
6.424448591e-01,7.39719e-01,9.99999e-01,9.99999e-01,9.93104e-01,7.44877e-01,9.99969e-01
6.456570834e-01,7.25446e-01,9.99999e-01,9.99999e-01,9.68435e-01,7.49223e-01,9.99821e-01
6.488853688e-01,7.35644e-01,9.99999e-01,9.99999e-01,9.76778e-01,7.53508e-01,9.99501e-01
6.521297956e-01,7.39524e-01,9.99999e-01,9.99999e-01,9.76370e-01,7.57732e-01,9.99588e-01
6.553904446e-01,7.43679e-01,9.99999e-01,9.99999e-01,9.76388e-01,7.61896e-01,9.99693e-01
6.586673968e-01,7.50420e-01,9.99999e-01,9.99999e-01,9.79761e-01,7.66000e-01,9.99897e-01
6.619607338e-01,7.60968e-01,9.99999e-01,9.99999e-01,9.88234e-01,7.70044e-01,9.99977e-01
6.652705375e-01,7.68734e-01,9.99999e-01,9.99999e-01,9.93170e-01,7.74028e-01,9.99988e-01
6.685968902e-01,7.75481e-01,9.99999e-01,9.99999e-01,9.96821e-01,7.77955e-01,9.99997e-01
6.719398746e-01,7.80671e-01,9.99999e-01,9.99999e-01,9.98526e-01,7.81823e-01,9.99999e-01
6.752995740e-01,7.85006e-01,9.99999e-01,9.99999e-01,9.99201e-01,7.85633e-01,9.99999e-01
6.786760719e-01,7.88476e-01,9.99999e-01,9.99999e-01,9.98848e-01,7.89386e-01,9.99997e-01
6.820694522e-01,7.91510e-01,9.99999e-01,9.99999e-01,9.98027e-01,7.93082e-01,9.99989e-01
6.854797995e-01,7.94679e-01,9.99999e-01,9.99999e-01,9.97456e-01,7.96722e-01,9.99977e-01
6.889071985e-01,7.95366e-01,9.99999e-01,9.99999e-01,9.93880e-01,8.00306e-01,9.99944e-01
6.923517345e-01,7.27204e-01,9.99999e-01,9.99999e-01,9.05102e-01,8.03835e-01,9.99518e-01
6.958134932e-01,7.65660e-01,9.99999e-01,9.99999e-01,9.49420e-01,8.07310e-01,9.98933e-01
6.992925606e-01,7.70831e-01,9.99999e-01,9.99999e-01,9.51699e-01,8.10730e-01,9.99038e-01
7.027890234e-01,7.65181e-01,9.99999e-01,9.99999e-01,9.40603e-01,8.14097e-01,9.99265e-01
7.063029686e-01,7.76015e-01,9.99999e-01,9.99999e-01,9.49702e-01,8.17411e-01,9.99634e-01
7.098344834e-01,7.80824e-01,9.99999e-01,9.99999e-01,9.51648e-01,8.20673e-01,9.99783e-01
7.133836558e-01,7.71405e-01,9.99999e-01,9.99999e-01,9.36705e-01,8.23883e-01,9.99570e-01
7.169505741e-01,5.00891e-01,9.99999e-01,9.99999e-01,6.07692e-01,8.27042e-01,9.96625e-01
7.205353270e-01,6.42745e-01,9.99999e-01,9.99999e-01,7.78883e-01,8.30150e-01,9.94053e-01
7.241380036e-01,6.02614e-01,9.99999e-01,9.99999e-01,7.26979e-01,8.33208e-01,9.94863e-01
7.277586936e-01,6.24718e-01,9.99999e-01,9.99999e-01,7.50227e-01,8.36216e-01,9.95798e-01
7.313974871e-01,6.14179e-01,9.99999e-01,9.99999e-01,7.33327e-01,8.39176e-01,9.98029e-01
7.350544745e-01,7.09351e-01,9.99999e-01,9.99999e-01,8.42948e-01,8.42087e-01,9.99314e-01
7.387297469e-01,7.44194e-01,9.99999e-01,9.99999e-01,8.81030e-01,8.44951e-01,9.99685e-01
7.424233956e-01,7.96572e-01,9.99999e-01,9.99999e-01,9.39667e-01,8.47767e-01,9.99939e-01
7.461355126e-01,8.19023e-01,9.99999e-01,9.99999e-01,9.62957e-01,8.50537e-01,9.99988e-01
7.498661902e-01,8.38381e-01,9.99999e-01,9.99999e-01,9.82563e-01,8.53261e-01,9.99995e-01
7.536155211e-01,8.48587e-01,9.99999e-01,9.99999e-01,9.91410e-01,8.55940e-01,9.99997e-01
7.573835987e-01,8.54770e-01,9.99999e-01,9.99999e-01,9.95569e-01,8.58574e-01,9.99998e-01
7.611705167e-01,8.58792e-01,9.99999e-01,9.99999e-01,9.97245e-01,8.61164e-01,9.99999e-01
7.649763693e-01,8.62219e-01,9.99999e-01,9.99999e-01,9.98272e-01,8.63710e-01,9.99999e-01
7.688012511e-01,8.65172e-01,9.99999e-01,9.99999e-01,9.98797e-01,8.66213e-01,9.99999e-01
7.726452574e-01,8.67815e-01,9.99999e-01,9.99999e-01,9.99010e-01,8.68674e-01,9.99998e-01
7.765084837e-01,8.69869e-01,9.99999e-01,9.99999e-01,9.98595e-01,8.71093e-01,9.99997e-01
7.803910261e-01,8.68180e-01,9.99999e-01,9.99999e-01,9.93947e-01,8.73471e-01,9.99993e-01
7.842929812e-01,8.57431e-01,9.99999e-01,9.99999e-01,9.79054e-01,8.75808e-01,9.99960e-01
7.882144461e-01,8.40327e-01,9.99999e-01,9.99999e-01,9.57232e-01,8.78105e-01,9.99732e-01
7.921555184e-01,8.59074e-01,9.99999e-01,9.99999e-01,9.76321e-01,8.80363e-01,9.99483e-01
7.961162960e-01,8.45673e-01,9.99999e-01,9.99999e-01,9.58655e-01,8.82581e-01,9.99504e-01
8.000968774e-01,8.42009e-01,9.99999e-01,9.99999e-01,9.52179e-01,8.84761e-01,9.99472e-01
8.040973618e-01,8.44185e-01,9.99999e-01,9.99999e-01,9.52232e-01,8.86904e-01,9.99581e-01
8.081178486e-01,7.96818e-01,9.99999e-01,9.99999e-01,8.96650e-01,8.89009e-01,9.99607e-01
8.121584379e-01,5.71629e-01,9.99999e-01,9.99999e-01,6.42493e-01,8.91077e-01,9.98458e-01
8.162192301e-01,5.27028e-01,9.99999e-01,9.99999e-01,5.93538e-01,8.93109e-01,9.94214e-01
8.203003262e-01,6.95081e-01,9.99999e-01,9.99999e-01,7.81828e-01,8.95106e-01,9.93228e-01
8.244018279e-01,6.39757e-01,9.99999e-01,9.99999e-01,7.17031e-01,8.97067e-01,9.94607e-01
8.285238370e-01,6.51690e-01,9.99999e-01,9.99999e-01,7.27994e-01,8.98994e-01,9.95762e-01
8.326664562e-01,6.53589e-01,9.99999e-01,9.99999e-01,7.26769e-01,9.00887e-01,9.98245e-01
8.368297885e-01,7.15108e-01,9.99999e-01,9.99999e-01,7.92465e-01,9.02746e-01,9.99598e-01
8.410139374e-01,7.86992e-01,9.99999e-01,9.99999e-01,8.70218e-01,9.04572e-01,9.99765e-01
8.452190071e-01,8.46256e-01,9.99999e-01,9.99999e-01,9.33810e-01,9.06366e-01,9.99859e-01
8.494451021e-01,8.72600e-01,9.99999e-01,9.99999e-01,9.60985e-01,9.08128e-01,9.99887e-01
8.536923276e-01,8.88626e-01,9.99999e-01,9.99999e-01,9.76731e-01,9.09858e-01,9.99931e-01
8.579607893e-01,8.98427e-01,9.99999e-01,9.99999e-01,9.85610e-01,9.11557e-01,9.99983e-01
8.622505932e-01,9.04851e-01,9.99999e-01,9.99999e-01,9.90831e-01,9.13226e-01,9.99996e-01
8.665618462e-01,9.09670e-01,9.99999e-01,9.99999e-01,9.94322e-01,9.14865e-01,9.99997e-01
8.708946554e-01,9.10518e-01,9.99999e-01,9.99999e-01,9.93504e-01,9.16474e-01,9.99995e-01
8.752491287e-01,9.10074e-01,9.99999e-01,9.99999e-01,9.91316e-01,9.18055e-01,9.99990e-01
8.796253743e-01,9.08550e-01,9.99999e-01,9.99999e-01,9.88003e-01,9.19606e-01,9.99972e-01
8.840235012e-01,9.08445e-01,9.99999e-01,9.99999e-01,9.86310e-01,9.21130e-01,9.99915e-01
8.884436187e-01,8.78046e-01,9.99999e-01,9.99999e-01,9.51908e-01,9.22626e-01,9.99761e-01
8.928858368e-01,5.60983e-01,9.99999e-01,9.99999e-01,6.07898e-01,9.24095e-01,9.98623e-01
8.973502660e-01,3.85344e-01,9.99999e-01,9.99999e-01,4.19295e-01,9.25537e-01,9.92965e-01
9.018370173e-01,5.87730e-01,9.99999e-01,9.99999e-01,6.41121e-01,9.26952e-01,9.88962e-01
9.063462024e-01,6.18958e-01,9.99999e-01,9.99999e-01,6.73266e-01,9.28342e-01,9.90297e-01
9.108779334e-01,4.97463e-01,9.99999e-01,9.99999e-01,5.40523e-01,9.29707e-01,9.89920e-01
9.154323231e-01,4.54250e-01,9.99999e-01,9.99999e-01,4.91994e-01,9.31046e-01,9.91661e-01
9.200094847e-01,5.36046e-01,9.99999e-01,9.99999e-01,5.77634e-01,9.32361e-01,9.95324e-01
9.246095321e-01,4.20952e-01,9.99999e-01,9.99999e-01,4.53307e-01,9.33652e-01,9.94614e-01
9.292325798e-01,2.00017e-02,9.99999e-01,9.99999e-01,2.18494e-02,9.34918e-01,9.79160e-01
9.338787427e-01,2.64070e-03,9.99999e-01,9.99999e-01,3.07736e-03,9.36162e-01,9.16621e-01
9.385481364e-01,7.95286e-02,9.99999e-01,9.99999e-01,9.40969e-02,9.37383e-01,9.01635e-01
9.432408771e-01,4.02021e-02,9.99999e-01,9.99999e-01,4.68352e-02,9.38581e-01,9.14543e-01
9.479570815e-01,8.98891e-03,9.99999e-01,9.99999e-01,1.02865e-02,9.39757e-01,9.29877e-01
9.526968669e-01,2.46404e-02,9.99999e-01,9.99999e-01,2.73752e-02,9.40911e-01,9.56624e-01
9.574603512e-01,2.98183e-02,9.99999e-01,9.99999e-01,3.23739e-02,9.42043e-01,9.77726e-01
9.622476530e-01,5.20596e-02,9.99999e-01,9.99999e-01,5.60637e-02,9.43155e-01,9.84544e-01
9.670588912e-01,1.69423e-01,9.99999e-01,9.99999e-01,1.81348e-01,9.44246e-01,9.89404e-01
9.718941857e-01,2.90106e-01,9.99999e-01,9.99999e-01,3.09303e-01,9.45316e-01,9.92189e-01
9.767536566e-01,3.53694e-01,9.99999e-01,9.99999e-01,3.75985e-01,9.46367e-01,9.94025e-01
9.816374249e-01,4.50757e-01,9.99999e-01,9.99999e-01,4.76772e-01,9.47398e-01,9.97928e-01
9.865456120e-01,5.93207e-01,9.99999e-01,9.99999e-01,6.25745e-01,9.48410e-01,9.99567e-01
9.914783401e-01,7.08525e-01,9.99999e-01,9.99999e-01,7.46374e-01,9.49402e-01,9.99879e-01
9.964357318e-01,8.10173e-01,9.99999e-01,9.99999e-01,8.52534e-01,9.50377e-01,9.99929e-01
1.001417910e+00,8.64256e-01,9.99999e-01,9.99999e-01,9.08565e-01,9.51333e-01,9.99892e-01
1.006425000e+00,9.01414e-01,9.99999e-01,9.99999e-01,9.46738e-01,9.52271e-01,9.99847e-01
1.011457125e+00,9.21218e-01,9.99999e-01,9.99999e-01,9.66593e-01,9.53191e-01,9.99858e-01
1.016514411e+00,9.32241e-01,9.99999e-01,9.99999e-01,9.77192e-01,9.54094e-01,9.99899e-01
1.021596983e+00,9.37493e-01,9.99999e-01,9.99999e-01,9.81786e-01,9.54980e-01,9.99899e-01
1.026704968e+00,9.42181e-01,9.99999e-01,9.99999e-01,9.85765e-01,9.55849e-01,9.99932e-01
1.031838492e+00,9.46767e-01,9.99999e-01,9.99999e-01,9.89633e-01,9.56702e-01,9.99981e-01
1.036997685e+00,9.51631e-01,9.99999e-01,9.99999e-01,9.93832e-01,9.57539e-01,9.99996e-01
1.042182673e+00,9.51319e-01,9.99999e-01,9.99999e-01,9.92654e-01,9.58360e-01,9.99998e-01
1.047393587e+00,9.49828e-01,9.99999e-01,9.99999e-01,9.90266e-01,9.59165e-01,9.99997e-01
1.052630555e+00,9.47158e-01,9.99999e-01,9.99999e-01,9.86671e-01,9.59956e-01,9.99995e-01
1.057893707e+00,9.39457e-01,9.99999e-01,9.99999e-01,9.77864e-01,9.60731e-01,9.99991e-01
1.063183176e+00,9.26737e-01,9.99999e-01,9.99999e-01,9.63871e-01,9.61491e-01,9.99980e-01
1.068499092e+00,9.04761e-01,9.99999e-01,9.99999e-01,9.40306e-01,9.62237e-01,9.99958e-01
1.073841587e+00,8.96285e-01,9.99999e-01,9.99999e-01,9.30835e-01,9.62969e-01,9.99908e-01
1.079210795e+00,8.78632e-01,9.99999e-01,9.99999e-01,9.11963e-01,9.63687e-01,9.99753e-01
1.084606849e+00,8.38849e-01,9.99999e-01,9.99999e-01,8.70337e-01,9.64392e-01,9.99406e-01
1.090029883e+00,7.91084e-01,9.99999e-01,9.99999e-01,8.20714e-01,9.65082e-01,9.98770e-01
1.095480033e+00,5.63897e-01,9.99999e-01,9.99999e-01,5.85188e-01,9.65760e-01,9.97777e-01
1.100957433e+00,2.61803e-01,9.99999e-01,9.99999e-01,2.72009e-01,9.66425e-01,9.95914e-01
1.106462220e+00,5.02687e-02,9.99999e-01,9.99999e-01,5.23422e-02,9.67077e-01,9.93078e-01
1.111994531e+00,2.37603e-03,9.99999e-01,9.99999e-01,2.50097e-03,9.67717e-01,9.81732e-01
1.117554504e+00,1.39898e-04,9.99999e-01,9.99999e-01,1.54414e-04,9.68344e-01,9.35602e-01
1.123142276e+00,2.53510e-03,9.99999e-01,9.99999e-01,3.06367e-03,9.68960e-01,8.53976e-01
1.128757988e+00,9.02303e-03,9.99999e-01,9.99999e-01,1.11707e-02,9.69563e-01,8.33093e-01
1.134401778e+00,5.88485e-03,9.99999e-01,9.99999e-01,7.08481e-03,9.70156e-01,8.56181e-01
1.140073787e+00,4.53027e-02,9.99999e-01,9.99999e-01,5.28326e-02,9.70736e-01,8.83325e-01
1.145774156e+00,5.76056e-03,9.99999e-01,9.99999e-01,6.64395e-03,9.71306e-01,8.92650e-01
1.151503026e+00,2.75179e-03,9.99999e-01,9.99999e-01,3.01636e-03,9.71865e-01,9.38697e-01
1.157260541e+00,3.38972e-03,9.99999e-01,9.99999e-01,3.55244e-03,9.72413e-01,9.81262e-01
1.163046844e+00,1.44928e-02,9.99999e-01,9.99999e-01,1.49758e-02,9.72950e-01,9.94653e-01
1.168862078e+00,4.42339e-02,9.99999e-01,9.99999e-01,4.55647e-02,9.73477e-01,9.97241e-01
1.174706389e+00,1.38217e-01,9.99999e-01,9.99999e-01,1.42428e-01,9.73994e-01,9.96345e-01
1.180579921e+00,2.88517e-01,9.99999e-01,9.99999e-01,2.97709e-01,9.74501e-01,9.94479e-01
1.186482820e+00,4.79321e-01,9.99999e-01,9.99999e-01,4.94413e-01,9.74999e-01,9.94333e-01
1.192415234e+00,6.40967e-01,9.99999e-01,9.99999e-01,6.59876e-01,9.75486e-01,9.95753e-01
1.198377311e+00,6.85271e-01,9.99999e-01,9.99999e-01,7.04974e-01,9.75965e-01,9.95988e-01
1.204369197e+00,7.01665e-01,9.99999e-01,9.99999e-01,7.21217e-01,9.76434e-01,9.96370e-01
1.210391043e+00,7.11369e-01,9.99999e-01,9.99999e-01,7.29806e-01,9.76894e-01,9.97790e-01
1.216442998e+00,7.46545e-01,9.99999e-01,9.99999e-01,7.64885e-01,9.77345e-01,9.98645e-01
1.222525213e+00,7.91798e-01,9.99999e-01,9.99999e-01,8.10466e-01,9.77787e-01,9.99158e-01
1.228637839e+00,8.44837e-01,9.99999e-01,9.99999e-01,8.63983e-01,9.78221e-01,9.99608e-01
