#,Wave/freq,Total,N2,O2,H2O,Rayleigh,CIA
4.000000000e-01,8.00662e-01,9.99999e-01,9.99999e-01,9.99974e-01,8.00682e-01,9.99999e-01
4.020000000e-01,8.04197e-01,9.99999e-01,9.99999e-01,9.99983e-01,8.04209e-01,9.99999e-01
4.040100000e-01,8.07673e-01,9.99999e-01,9.99999e-01,9.99992e-01,8.07678e-01,9.99999e-01
4.060300500e-01,8.11091e-01,9.99999e-01,9.99999e-01,9.99997e-01,8.11093e-01,9.99999e-01
4.080602003e-01,8.14454e-01,9.99999e-01,9.99999e-01,9.99999e-01,8.14454e-01,9.99999e-01
4.101005013e-01,8.17762e-01,9.99999e-01,9.99999e-01,9.99999e-01,8.17762e-01,9.99999e-01
4.121510038e-01,8.21018e-01,9.99999e-01,9.99999e-01,9.99998e-01,8.21019e-01,9.99999e-01
4.142117588e-01,8.24217e-01,9.99999e-01,9.99999e-01,9.99992e-01,8.24223e-01,9.99999e-01
4.162828176e-01,8.27350e-01,9.99999e-01,9.99999e-01,9.99968e-01,8.27376e-01,9.99999e-01
4.183642317e-01,8.30464e-01,9.99999e-01,9.99999e-01,9.99981e-01,8.30479e-01,9.99999e-01
4.204560528e-01,8.33522e-01,9.99999e-01,9.99999e-01,9.99988e-01,8.33532e-01,9.99999e-01
4.225583331e-01,8.36531e-01,9.99999e-01,9.99999e-01,9.99995e-01,8.36535e-01,9.99999e-01
4.246711247e-01,8.39486e-01,9.99999e-01,9.99999e-01,9.99996e-01,8.39489e-01,9.99999e-01
4.267944804e-01,8.42391e-01,9.99999e-01,9.99999e-01,9.99994e-01,8.42395e-01,9.99999e-01
4.289284528e-01,8.45251e-01,9.99999e-01,9.99999e-01,9.99995e-01,8.45254e-01,9.99999e-01
4.310730950e-01,8.48064e-01,9.99999e-01,9.99999e-01,9.99997e-01,8.48066e-01,9.99999e-01
4.332284605e-01,8.50830e-01,9.99999e-01,9.99999e-01,9.99999e-01,8.50831e-01,9.99999e-01
4.353946028e-01,8.53550e-01,9.99999e-01,9.99999e-01,9.99999e-01,8.53550e-01,9.99999e-01
4.375715758e-01,8.56221e-01,9.99999e-01,9.99999e-01,9.99996e-01,8.56224e-01,9.99999e-01
4.397594337e-01,8.58830e-01,9.99999e-01,9.99999e-01,9.99972e-01,8.58853e-01,9.99999e-01
4.419582309e-01,8.61321e-01,9.99999e-01,9.99999e-01,9.99863e-01,8.61438e-01,9.99999e-01
4.441680220e-01,8.63886e-01,9.99999e-01,9.99999e-01,9.99890e-01,8.63980e-01,9.99999e-01
4.463888621e-01,8.66381e-01,9.99999e-01,9.99999e-01,9.99886e-01,8.66478e-01,9.99999e-01
4.486208064e-01,8.68874e-01,9.99999e-01,9.99999e-01,9.99929e-01,8.68935e-01,9.99999e-01
4.508639105e-01,8.71321e-01,9.99999e-01,9.99999e-01,9.99966e-01,8.71349e-01,9.99999e-01
4.531182300e-01,8.73711e-01,9.99999e-01,9.99999e-01,9.99986e-01,8.73723e-01,9.99999e-01
4.553838212e-01,8.76048e-01,9.99999e-01,9.99999e-01,9.99990e-01,8.76056e-01,9.99999e-01
4.576607403e-01,8.78345e-01,9.99999e-01,9.99999e-01,9.99995e-01,8.78348e-01,9.99999e-01
4.599490440e-01,8.80599e-01,9.99999e-01,9.99999e-01,9.99996e-01,8.80602e-01,9.99999e-01
4.622487892e-01,8.82816e-01,9.99999e-01,9.99999e-01,9.99999e-01,8.82816e-01,9.99999e-01
4.645600332e-01,8.84991e-01,9.99999e-01,9.99999e-01,9.99997e-01,8.84992e-01,9.99999e-01
4.668828333e-01,8.87101e-01,9.99999e-01,9.99999e-01,9.99966e-01,8.87131e-01,9.99999e-01
4.692172475e-01,8.89169e-01,9.99999e-01,9.99999e-01,9.99928e-01,8.89232e-01,9.99999e-01
4.715633337e-01,8.91255e-01,9.99999e-01,9.99999e-01,9.99953e-01,8.91296e-01,9.99999e-01
4.739211504e-01,8.93285e-01,9.99999e-01,9.99999e-01,9.99955e-01,8.93324e-01,9.99999e-01
4.762907561e-01,8.95296e-01,9.99999e-01,9.99999e-01,9.99976e-01,8.95317e-01,9.99999e-01
4.786722099e-01,8.97266e-01,9.99999e-01,9.99999e-01,9.99990e-01,8.97275e-01,9.99999e-01
4.810655710e-01,8.99195e-01,9.99999e-01,9.99999e-01,9.99996e-01,8.99198e-01,9.99999e-01
4.834708988e-01,9.01063e-01,9.99999e-01,9.99999e-01,9.99973e-01,9.01087e-01,9.99999e-01
4.858882533e-01,9.02897e-01,9.99999e-01,9.99999e-01,9.99949e-01,9.02943e-01,9.99999e-01
4.883176946e-01,9.04728e-01,9.99999e-01,9.99999e-01,9.99957e-01,9.04765e-01,9.99999e-01
4.907592831e-01,9.06521e-01,9.99999e-01,9.99999e-01,9.99961e-01,9.06556e-01,9.99999e-01
4.932130795e-01,9.08290e-01,9.99999e-01,9.99999e-01,9.99972e-01,9.08314e-01,9.99999e-01
4.956791449e-01,9.10028e-01,9.99999e-01,9.99999e-01,9.99985e-01,9.10041e-01,9.99999e-01
4.981575406e-01,9.11673e-01,9.99999e-01,9.99999e-01,9.99928e-01,9.11737e-01,9.99999e-01
5.006483283e-01,9.13235e-01,9.99999e-01,9.99999e-01,9.99817e-01,9.13403e-01,9.99998e-01
5.031515699e-01,9.14178e-01,9.99999e-01,9.99999e-01,9.99069e-01,9.15038e-01,9.99989e-01
5.056673278e-01,9.16183e-01,9.99999e-01,9.99999e-01,9.99506e-01,9.16645e-01,9.99988e-01
5.081956644e-01,9.17644e-01,9.99999e-01,9.99999e-01,9.99377e-01,9.18222e-01,9.99992e-01
5.107366428e-01,9.19383e-01,9.99999e-01,9.99999e-01,9.99579e-01,9.19770e-01,9.99998e-01
5.132903260e-01,9.21069e-01,9.99999e-01,9.99999e-01,9.99759e-01,9.21291e-01,9.99999e-01
5.158567776e-01,9.22690e-01,9.99999e-01,9.99999e-01,9.99897e-01,9.22784e-01,9.99999e-01
5.184360615e-01,9.24212e-01,9.99999e-01,9.99999e-01,9.99958e-01,9.24250e-01,9.99999e-01
5.210282418e-01,9.25675e-01,9.99999e-01,9.99999e-01,9.99984e-01,9.25689e-01,9.99999e-01
5.236333830e-01,9.27045e-01,9.99999e-01,9.99999e-01,9.99938e-01,9.27102e-01,9.99999e-01
5.262515499e-01,9.28453e-01,9.99999e-01,9.99999e-01,9.99961e-01,9.28489e-01,9.99998e-01
5.288828077e-01,9.29818e-01,9.99999e-01,9.99999e-01,9.99964e-01,9.29851e-01,9.99999e-01
5.315272217e-01,9.31159e-01,9.99999e-01,9.99999e-01,9.99968e-01,9.31188e-01,9.99999e-01
5.341848578e-01,9.32481e-01,9.99999e-01,9.99999e-01,9.99979e-01,9.32500e-01,9.99999e-01
5.368557821e-01,9.33722e-01,9.99999e-01,9.99999e-01,9.99929e-01,9.33788e-01,9.99999e-01
5.395400610e-01,9.34815e-01,9.99999e-01,9.99999e-01,9.99747e-01,9.35052e-01,9.99997e-01
5.422377613e-01,9.35978e-01,9.99999e-01,9.99999e-01,9.99668e-01,9.36294e-01,9.99993e-01
5.449489501e-01,9.37220e-01,9.99999e-01,9.99999e-01,9.99694e-01,9.37512e-01,9.99993e-01
5.476736949e-01,9.38448e-01,9.99999e-01,9.99999e-01,9.99726e-01,9.38707e-01,9.99996e-01
5.504120634e-01,9.39694e-01,9.99999e-01,9.99999e-01,9.99801e-01,9.39881e-01,9.99998e-01
5.531641237e-01,9.40939e-01,9.99999e-01,9.99999e-01,9.99899e-01,9.41033e-01,9.99999e-01
5.559299443e-01,9.42118e-01,9.99999e-01,9.99999e-01,9.99951e-01,9.42163e-01,9.99999e-01
5.587095940e-01,9.43244e-01,9.99999e-01,9.99999e-01,9.99969e-01,9.43272e-01,9.99999e-01
5.615031420e-01,9.44330e-01,9.99999e-01,9.99999e-01,9.99966e-01,9.44361e-01,9.99999e-01
5.643106577e-01,9.45394e-01,9.99999e-01,9.99999e-01,9.99962e-01,9.45430e-01,9.99999e-01
5.671322110e-01,9.46047e-01,9.99999e-01,9.99999e-01,9.99547e-01,9.46478e-01,9.99995e-01
5.699678720e-01,9.47027e-01,9.99999e-01,9.99999e-01,9.99504e-01,9.47507e-01,9.99986e-01
5.728177114e-01,9.48024e-01,9.99999e-01,9.99999e-01,9.99490e-01,9.48517e-01,9.99989e-01
5.756818000e-01,9.49057e-01,9.99999e-01,9.99999e-01,9.99531e-01,9.49507e-01,9.99993e-01
5.785602090e-01,9.50089e-01,9.99999e-01,9.99999e-01,9.99590e-01,9.50480e-01,9.99997e-01
5.814530100e-01,9.51043e-01,9.99999e-01,9.99999e-01,9.99589e-01,9.51434e-01,9.99998e-01
5.843602750e-01,9.51906e-01,9.99999e-01,9.99999e-01,9.99514e-01,9.52370e-01,9.99996e-01
5.872820764e-01,9.49274e-01,9.99999e-01,9.99999e-01,9.95817e-01,9.53288e-01,9.99969e-01
5.902184868e-01,9.49235e-01,9.99999e-01,9.99999e-01,9.94887e-01,9.54189e-01,9.99918e-01
5.931695792e-01,9.51559e-01,9.99999e-01,9.99999e-01,9.96397e-01,9.55074e-01,9.99921e-01
5.961354271e-01,9.52114e-01,9.99999e-01,9.99999e-01,9.96042e-01,9.55941e-01,9.99952e-01
5.991161043e-01,9.54014e-01,9.99999e-01,9.99999e-01,9.97109e-01,9.56792e-01,9.99985e-01
6.021116848e-01,9.56053e-01,9.99999e-01,9.99999e-01,9.98357e-01,9.57627e-01,9.99997e-01
6.051222432e-01,9.57650e-01,9.99999e-01,9.99999e-01,9.99168e-01,9.58447e-01,9.99999e-01
6.081478544e-01,9.58907e-01,9.99999e-01,9.99999e-01,9.99641e-01,9.59250e-01,9.99999e-01
6.111885937e-01,9.59893e-01,9.99999e-01,9.99999e-01,9.99847e-01,9.60039e-01,9.99999e-01
6.142445367e-01,9.60748e-01,9.99999e-01,9.99999e-01,9.99931e-01,9.60813e-01,9.99999e-01
6.173157594e-01,9.61536e-01,9.99999e-01,9.99999e-01,9.99962e-01,9.61572e-01,9.99999e-01
6.204023382e-01,9.62286e-01,9.99999e-01,9.99999e-01,9.99968e-01,9.62316e-01,9.99999e-01
6.235043498e-01,9.62915e-01,9.99999e-01,9.99999e-01,9.99863e-01,9.63047e-01,9.99999e-01
6.266218716e-01,9.63051e-01,9.99999e-01,9.99999e-01,9.99265e-01,9.63763e-01,9.99994e-01
6.297549810e-01,9.64197e-01,9.99999e-01,9.99999e-01,9.99730e-01,9.64466e-01,9.99989e-01
6.329037559e-01,9.64633e-01,9.99999e-01,9.99999e-01,9.99465e-01,9.65156e-01,9.99991e-01
6.360682746e-01,9.65390e-01,9.99999e-01,9.99999e-01,9.99547e-01,9.65832e-01,9.99994e-01
6.392486160e-01,9.65925e-01,9.99999e-01,9.99999e-01,9.99412e-01,9.66495e-01,9.99997e-01
6.424448591e-01,9.66462e-01,9.99999e-01,9.99999e-01,9.99295e-01,9.67146e-01,9.99996e-01
6.456570834e-01,9.64287e-01,9.99999e-01,9.99999e-01,9.96406e-01,9.67784e-01,9.99979e-01
6.488853688e-01,9.65311e-01,9.99999e-01,9.99999e-01,9.96855e-01,9.68411e-01,9.99942e-01
6.521297956e-01,9.66333e-01,9.99999e-01,9.99999e-01,9.97269e-01,9.69025e-01,9.99952e-01
6.553904446e-01,9.66980e-01,9.99999e-01,9.99999e-01,9.97304e-01,9.69627e-01,9.99963e-01
6.586673968e-01,9.67946e-01,9.99999e-01,9.99999e-01,9.97669e-01,9.70218e-01,9.99987e-01
6.619607338e-01,9.69488e-01,9.99999e-01,9.99999e-01,9.98652e-01,9.70798e-01,9.99997e-01
6.652705375e-01,9.70605e-01,9.99999e-01,9.99999e-01,9.99217e-01,9.71366e-01,9.99998e-01
6.685968902e-01,9.71571e-01,9.99999e-01,9.99999e-01,9.99636e-01,9.71924e-01,9.99999e-01
6.719398746e-01,9.72307e-01,9.99999e-01,9.99999e-01,9.99831e-01,9.72471e-01,9.99999e-01
6.752995740e-01,9.72919e-01,9.99999e-01,9.99999e-01,9.99908e-01,9.73007e-01,9.99999e-01
6.786760719e-01,9.73406e-01,9.99999e-01,9.99999e-01,9.99869e-01,9.73533e-01,9.99999e-01
6.820694522e-01,9.73830e-01,9.99999e-01,9.99999e-01,9.99775e-01,9.74049e-01,9.99998e-01
6.854797995e-01,9.74272e-01,9.99999e-01,9.99999e-01,9.99711e-01,9.74555e-01,9.99997e-01
6.889071985e-01,9.74375e-01,9.99999e-01,9.99999e-01,9.99312e-01,9.75051e-01,9.99993e-01
6.923517345e-01,9.64451e-01,9.99999e-01,9.99999e-01,9.88688e-01,9.75538e-01,9.99944e-01
6.958134932e-01,9.70027e-01,9.99999e-01,9.99999e-01,9.93986e-01,9.76015e-01,9.99876e-01
6.992925606e-01,9.70907e-01,9.99999e-01,9.99999e-01,9.94396e-01,9.76483e-01,9.99890e-01
7.027890234e-01,9.70053e-01,9.99999e-01,9.99999e-01,9.93030e-01,9.76942e-01,9.99916e-01
7.063029686e-01,9.71629e-01,9.99999e-01,9.99999e-01,9.94143e-01,9.77393e-01,9.99958e-01
7.098344834e-01,9.72316e-01,9.99999e-01,9.99999e-01,9.94380e-01,9.77834e-01,9.99974e-01
7.133836558e-01,9.70993e-01,9.99999e-01,9.99999e-01,9.92611e-01,9.78267e-01,9.99950e-01
7.169505741e-01,9.21255e-01,9.99999e-01,9.99999e-01,9.41673e-01,9.78692e-01,9.99615e-01
7.205353270e-01,9.49587e-01,9.99999e-01,9.99999e-01,9.70505e-01,9.79108e-01,9.99322e-01
7.241380036e-01,9.42949e-01,9.99999e-01,9.99999e-01,9.63234e-01,9.79517e-01,9.99410e-01
7.277586936e-01,9.46857e-01,9.99999e-01,9.99999e-01,9.66734e-01,9.79917e-01,9.99510e-01
7.313974871e-01,9.45241e-01,9.99999e-01,9.99999e-01,9.64442e-01,9.80310e-01,9.99775e-01
7.350544745e-01,9.61459e-01,9.99999e-01,9.99999e-01,9.80461e-01,9.80695e-01,9.99921e-01
7.387297469e-01,9.66889e-01,9.99999e-01,9.99999e-01,9.85577e-01,9.81073e-01,9.99963e-01
7.424233956e-01,9.74472e-01,9.99999e-01,9.99999e-01,9.92903e-01,9.81443e-01,9.99992e-01
7.461355126e-01,9.77585e-01,9.99999e-01,9.99999e-01,9.95701e-01,9.81806e-01,9.99998e-01
7.498661902e-01,9.80190e-01,9.99999e-01,9.99999e-01,9.97991e-01,9.82162e-01,9.99999e-01
7.536155211e-01,9.81546e-01,9.99999e-01,9.99999e-01,9.99017e-01,9.82512e-01,9.99999e-01
7.573835987e-01,9.82357e-01,9.99999e-01,9.99999e-01,9.99493e-01,9.82854e-01,9.99999e-01
7.611705167e-01,9.82881e-01,9.99999e-01,9.99999e-01,9.99685e-01,9.83190e-01,9.99999e-01
7.649763693e-01,9.83326e-01,9.99999e-01,9.99999e-01,9.99802e-01,9.83519e-01,9.99999e-01
7.688012511e-01,9.83707e-01,9.99999e-01,9.99999e-01,9.99862e-01,9.83842e-01,9.99999e-01
7.726452574e-01,9.84048e-01,9.99999e-01,9.99999e-01,9.99887e-01,9.84159e-01,9.99999e-01
7.765084837e-01,9.84313e-01,9.99999e-01,9.99999e-01,9.99840e-01,9.84469e-01,9.99999e-01
7.803910261e-01,9.84099e-01,9.99999e-01,9.99999e-01,9.99315e-01,9.84773e-01,9.99998e-01
7.842929812e-01,9.82715e-01,9.99999e-01,9.99999e-01,9.97611e-01,9.85072e-01,9.99995e-01
7.882144461e-01,9.80449e-01,9.99999e-01,9.99999e-01,9.95041e-01,9.85365e-01,9.99969e-01
7.921555184e-01,9.82899e-01,9.99999e-01,9.99999e-01,9.97264e-01,9.85652e-01,9.99940e-01
7.961162960e-01,9.81168e-01,9.99999e-01,9.99999e-01,9.95222e-01,9.85933e-01,9.99943e-01
8.000968774e-01,9.80679e-01,9.99999e-01,9.99999e-01,9.94452e-01,9.86209e-01,9.99939e-01
8.040973618e-01,9.80967e-01,9.99999e-01,9.99999e-01,9.94458e-01,9.86479e-01,9.99951e-01
8.081178486e-01,9.74492e-01,9.99999e-01,9.99999e-01,9.87626e-01,9.86745e-01,9.99954e-01
8.121584379e-01,9.36778e-01,9.99999e-01,9.99999e-01,9.49278e-01,9.87005e-01,9.99824e-01
8.162192301e-01,9.26906e-01,9.99999e-01,9.99999e-01,9.39485e-01,9.87260e-01,9.99340e-01
8.203003262e-01,9.57078e-01,9.99999e-01,9.99999e-01,9.69930e-01,9.87510e-01,9.99228e-01
8.244018279e-01,9.44910e-01,9.99999e-01,9.99999e-01,9.57210e-01,9.87755e-01,9.99385e-01
8.285238370e-01,9.51644e-01,9.99999e-01,9.99999e-01,9.63671e-01,9.87995e-01,9.99517e-01
8.326664562e-01,9.51612e-01,9.99999e-01,9.99999e-01,9.63135e-01,9.88231e-01,9.99800e-01
8.368297885e-01,9.62214e-01,9.99999e-01,9.99999e-01,9.73489e-01,9.88462e-01,9.99953e-01
8.410139374e-01,9.73004e-01,9.99999e-01,9.99999e-01,9.84161e-01,9.88689e-01,9.99972e-01
8.452190071e-01,9.81179e-01,9.99999e-01,9.99999e-01,9.92196e-01,9.88911e-01,9.99983e-01
8.494451021e-01,9.84649e-01,9.99999e-01,9.99999e-01,9.95482e-01,9.89129e-01,9.99986e-01
8.536923276e-01,9.86681e-01,9.99999e-01,9.99999e-01,9.97317e-01,9.89342e-01,9.99991e-01
8.579607893e-01,9.87920e-01,9.99999e-01,9.99999e-01,9.98352e-01,9.89552e-01,9.99997e-01
8.622505932e-01,9.88719e-01,9.99999e-01,9.99999e-01,9.98950e-01,9.89757e-01,9.99999e-01
8.665618462e-01,9.89318e-01,9.99999e-01,9.99999e-01,9.99353e-01,9.89958e-01,9.99999e-01
8.708946554e-01,9.89424e-01,9.99999e-01,9.99999e-01,9.99261e-01,9.90156e-01,9.99999e-01
8.752491287e-01,9.89369e-01,9.99999e-01,9.99999e-01,9.99010e-01,9.90349e-01,9.99998e-01
8.796253743e-01,9.89184e-01,9.99999e-01,9.99999e-01,9.98634e-01,9.90539e-01,9.99996e-01
8.840235012e-01,9.89169e-01,9.99999e-01,9.99999e-01,9.98438e-01,9.90725e-01,9.99989e-01
8.884436187e-01,9.85345e-01,9.99999e-01,9.99999e-01,9.94413e-01,9.90907e-01,9.99972e-01
8.928858368e-01,9.33390e-01,9.99999e-01,9.99999e-01,9.41931e-01,9.91086e-01,9.99843e-01
8.973502660e-01,8.90105e-01,9.99999e-01,9.99999e-01,8.98671e-01,9.91261e-01,9.99198e-01
9.018370173e-01,9.37267e-01,9.99999e-01,9.99999e-01,9.46557e-01,9.91433e-01,9.98740e-01
9.063462024e-01,9.44468e-01,9.99999e-01,9.99999e-01,9.53521e-01,9.91602e-01,9.98893e-01
9.108779334e-01,9.19404e-01,9.99999e-01,9.99999e-01,9.28103e-01,9.91767e-01,9.98849e-01
9.154323231e-01,9.10284e-01,9.99999e-01,9.99999e-01,9.18563e-01,9.91929e-01,9.99049e-01
9.200094847e-01,9.27602e-01,9.99999e-01,9.99999e-01,9.35497e-01,9.92088e-01,9.99467e-01
9.246095321e-01,8.95569e-01,9.99999e-01,9.99999e-01,9.03123e-01,9.92243e-01,9.99386e-01
9.292325798e-01,4.99602e-01,9.99999e-01,9.99999e-01,5.04635e-01,9.92396e-01,9.97611e-01
9.338787427e-01,4.03956e-01,9.99999e-01,9.99999e-01,4.11032e-01,9.92545e-01,9.90163e-01
9.385481364e-01,6.84754e-01,9.99999e-01,9.99999e-01,6.97952e-01,9.92692e-01,9.88311e-01
9.432408771e-01,6.00998e-01,9.99999e-01,9.99999e-01,6.11505e-01,9.92836e-01,9.89908e-01
9.479570815e-01,5.01432e-01,9.99999e-01,9.99999e-01,5.09164e-01,9.92977e-01,9.91778e-01
9.526968669e-01,5.91118e-01,9.99999e-01,9.99999e-01,5.98220e-01,9.93115e-01,9.94977e-01
9.574603512e-01,6.15171e-01,9.99999e-01,9.99999e-01,6.20937e-01,9.93251e-01,9.97445e-01
9.622476530e-01,6.71380e-01,9.99999e-01,9.99999e-01,6.77047e-01,9.93383e-01,9.98232e-01
9.670588912e-01,7.92569e-01,9.99999e-01,9.99999e-01,7.98708e-01,9.93514e-01,9.98790e-01
9.718941857e-01,8.62403e-01,9.99999e-01,9.99999e-01,8.68694e-01,9.93641e-01,9.99109e-01
9.767536566e-01,8.83591e-01,9.99999e-01,9.99999e-01,8.89737e-01,9.93767e-01,9.99319e-01
9.816374249e-01,9.11022e-01,9.99999e-01,9.99999e-01,9.16838e-01,9.93889e-01,9.99764e-01
9.865456120e-01,9.41455e-01,9.99999e-01,9.99999e-01,9.47174e-01,9.94010e-01,9.99950e-01
9.914783401e-01,9.61338e-01,9.99999e-01,9.99999e-01,9.67029e-01,9.94128e-01,9.99985e-01
9.964357318e-01,9.76245e-01,9.99999e-01,9.99999e-01,9.81905e-01,9.94243e-01,9.99991e-01
1.001417910e+00,9.83521e-01,9.99999e-01,9.99999e-01,9.89114e-01,9.94357e-01,9.99987e-01
1.006425000e+00,9.88279e-01,9.99999e-01,9.99999e-01,9.93793e-01,9.94468e-01,9.99982e-01
1.011457125e+00,9.90716e-01,9.99999e-01,9.99999e-01,9.96133e-01,9.94577e-01,9.99983e-01
1.016514411e+00,9.92065e-01,9.99999e-01,9.99999e-01,9.97378e-01,9.94684e-01,9.99988e-01
1.021596983e+00,9.92700e-01,9.99999e-01,9.99999e-01,9.97911e-01,9.94788e-01,9.99988e-01
1.026704968e+00,9.93264e-01,9.99999e-01,9.99999e-01,9.98372e-01,9.94891e-01,9.99991e-01
1.031838492e+00,9.93810e-01,9.99999e-01,9.99999e-01,9.98814e-01,9.94992e-01,9.99997e-01
1.036997685e+00,9.94391e-01,9.99999e-01,9.99999e-01,9.99296e-01,9.95090e-01,9.99999e-01
1.042182673e+00,9.94356e-01,9.99999e-01,9.99999e-01,9.99164e-01,9.95187e-01,9.99999e-01
1.047393587e+00,9.94178e-01,9.99999e-01,9.99999e-01,9.98890e-01,9.95282e-01,9.99999e-01
1.052630555e+00,9.93862e-01,9.99999e-01,9.99999e-01,9.98479e-01,9.95375e-01,9.99999e-01
1.057893707e+00,9.92944e-01,9.99999e-01,9.99999e-01,9.97466e-01,9.95466e-01,9.99998e-01
1.063183176e+00,9.91401e-01,9.99999e-01,9.99999e-01,9.95828e-01,9.95555e-01,9.99997e-01
1.068499092e+00,9.88683e-01,9.99999e-01,9.99999e-01,9.93014e-01,9.95643e-01,9.99994e-01
1.073841587e+00,9.87598e-01,9.99999e-01,9.99999e-01,9.91843e-01,9.95729e-01,9.99989e-01
1.079210795e+00,9.85354e-01,9.99999e-01,9.99999e-01,9.89524e-01,9.95813e-01,9.99971e-01
1.084606849e+00,9.80103e-01,9.99999e-01,9.99999e-01,9.84208e-01,9.95895e-01,9.99932e-01
1.090029883e+00,9.73450e-01,9.99999e-01,9.99999e-01,9.77518e-01,9.95976e-01,9.99859e-01
1.095480033e+00,9.35864e-01,9.99999e-01,9.99999e-01,9.39807e-01,9.96056e-01,9.99747e-01
1.100957433e+00,8.50548e-01,9.99999e-01,9.99999e-01,8.54246e-01,9.96133e-01,9.99534e-01
1.106462220e+00,6.69039e-01,9.99999e-01,9.99999e-01,6.72114e-01,9.96210e-01,9.99211e-01
1.111994531e+00,4.31496e-01,9.99999e-01,9.99999e-01,4.34013e-01,9.96284e-01,9.97908e-01
1.117554504e+00,2.58166e-01,9.99999e-01,9.99999e-01,2.61076e-01,9.96357e-01,9.92470e-01
1.123142276e+00,3.69493e-01,9.99999e-01,9.99999e-01,3.77522e-01,9.96429e-01,9.82236e-01
1.128757988e+00,5.18920e-01,9.99999e-01,9.99999e-01,5.31651e-01,9.96500e-01,9.79479e-01
1.134401778e+00,2.73253e-01,9.99999e-01,9.99999e-01,2.79187e-01,9.96569e-01,9.82114e-01
1.140073787e+00,6.71407e-01,9.99999e-01,9.99999e-01,6.83485e-01,9.96636e-01,9.85642e-01
1.145774156e+00,4.48136e-01,9.99999e-01,9.99999e-01,4.55453e-01,9.96703e-01,9.87188e-01
1.151503026e+00,4.14171e-01,9.99999e-01,9.99999e-01,4.18509e-01,9.96768e-01,9.92842e-01
1.157260541e+00,4.74917e-01,9.99999e-01,9.99999e-01,4.77450e-01,9.96831e-01,9.97854e-01
1.163046844e+00,5.75363e-01,9.99999e-01,9.99999e-01,5.77507e-01,9.96894e-01,9.99391e-01
1.168862078e+00,6.79102e-01,9.99999e-01,9.99999e-01,6.81389e-01,9.96955e-01,9.99686e-01
1.174706389e+00,7.86513e-01,9.99999e-01,9.99999e-01,7.89194e-01,9.97015e-01,9.99583e-01
1.180579921e+00,8.62490e-01,9.99999e-01,9.99999e-01,8.65564e-01,9.97074e-01,9.99371e-01
1.186482820e+00,9.18433e-01,9.99999e-01,9.99999e-01,9.21668e-01,9.97132e-01,9.99354e-01
1.192415234e+00,9.50406e-01,9.99999e-01,9.99999e-01,9.53545e-01,9.97188e-01,9.99516e-01
1.198377311e+00,9.57689e-01,9.99999e-01,9.99999e-01,9.60774e-01,9.97244e-01,9.99543e-01
1.204369197e+00,9.59823e-01,9.99999e-01,9.99999e-01,9.62820e-01,9.97298e-01,9.99586e-01
1.210391043e+00,9.61606e-01,9.99999e-01,9.99999e-01,9.64401e-01,9.97351e-01,9.99748e-01
1.216442998e+00,9.66908e-01,9.99999e-01,9.99999e-01,9.69574e-01,9.97404e-01,9.99845e-01
1.222525213e+00,9.73674e-01,9.99999e-01,9.99999e-01,9.76251e-01,9.97455e-01,9.99903e-01
1.228637839e+00,9.80965e-01,9.99999e-01,9.99999e-01,9.83462e-01,9.97505e-01,9.99955e-01
