#,Wave/freq,Total,N2,O2,H2O,Rayleigh,CIA
4.000000000e-01,9.36455e-01,9.99999e-01,9.99999e-01,9.99992e-01,9.36462e-01,9.99999e-01
4.020000000e-01,9.37674e-01,9.99999e-01,9.99999e-01,9.99994e-01,9.37678e-01,9.99999e-01
4.040100000e-01,9.38869e-01,9.99999e-01,9.99999e-01,9.99997e-01,9.38871e-01,9.99999e-01
4.060300500e-01,9.40041e-01,9.99999e-01,9.99999e-01,9.99999e-01,9.40041e-01,9.99999e-01
4.080602003e-01,9.41190e-01,9.99999e-01,9.99999e-01,9.99999e-01,9.41190e-01,9.99999e-01
4.101005013e-01,9.42317e-01,9.99999e-01,9.99999e-01,9.99999e-01,9.42317e-01,9.99999e-01
4.121510038e-01,9.43423e-01,9.99999e-01,9.99999e-01,9.99999e-01,9.43424e-01,9.99999e-01
4.142117588e-01,9.44508e-01,9.99999e-01,9.99999e-01,9.99997e-01,9.44510e-01,9.99999e-01
4.162828176e-01,9.45567e-01,9.99999e-01,9.99999e-01,9.99990e-01,9.45575e-01,9.99999e-01
4.183642317e-01,9.46616e-01,9.99999e-01,9.99999e-01,9.99994e-01,9.46621e-01,9.99999e-01
4.204560528e-01,9.47644e-01,9.99999e-01,9.99999e-01,9.99996e-01,9.47647e-01,9.99999e-01
4.225583331e-01,9.48653e-01,9.99999e-01,9.99999e-01,9.99998e-01,9.48654e-01,9.99999e-01
4.246711247e-01,9.49642e-01,9.99999e-01,9.99999e-01,9.99998e-01,9.49643e-01,9.99999e-01
4.267944804e-01,9.50611e-01,9.99999e-01,9.99999e-01,9.99998e-01,9.50612e-01,9.99999e-01
4.289284528e-01,9.51563e-01,9.99999e-01,9.99999e-01,9.99998e-01,9.51564e-01,9.99999e-01
4.310730950e-01,9.52497e-01,9.99999e-01,9.99999e-01,9.99999e-01,9.52497e-01,9.99999e-01
4.332284605e-01,9.53413e-01,9.99999e-01,9.99999e-01,9.99999e-01,9.53413e-01,9.99999e-01
4.353946028e-01,9.54312e-01,9.99999e-01,9.99999e-01,9.99999e-01,9.54312e-01,9.99999e-01
4.375715758e-01,9.55193e-01,9.99999e-01,9.99999e-01,9.99998e-01,9.55194e-01,9.99999e-01
4.397594337e-01,9.56052e-01,9.99999e-01,9.99999e-01,9.99991e-01,9.56059e-01,9.99999e-01
4.419582309e-01,9.56869e-01,9.99999e-01,9.99999e-01,9.99958e-01,9.56908e-01,9.99999e-01
4.441680220e-01,9.57711e-01,9.99999e-01,9.99999e-01,9.99967e-01,9.57741e-01,9.99999e-01
4.463888621e-01,9.58527e-01,9.99999e-01,9.99999e-01,9.99966e-01,9.58558e-01,9.99999e-01
4.486208064e-01,9.59340e-01,9.99999e-01,9.99999e-01,9.99978e-01,9.59360e-01,9.99999e-01
4.508639105e-01,9.60137e-01,9.99999e-01,9.99999e-01,9.99989e-01,9.60147e-01,9.99999e-01
4.531182300e-01,9.60915e-01,9.99999e-01,9.99999e-01,9.99995e-01,9.60918e-01,9.99999e-01
4.553838212e-01,9.61673e-01,9.99999e-01,9.99999e-01,9.99996e-01,9.61675e-01,9.99999e-01
4.576607403e-01,9.62417e-01,9.99999e-01,9.99999e-01,9.99998e-01,9.62418e-01,9.99999e-01
4.599490440e-01,9.63145e-01,9.99999e-01,9.99999e-01,9.99998e-01,9.63146e-01,9.99999e-01
4.622487892e-01,9.63861e-01,9.99999e-01,9.99999e-01,9.99999e-01,9.63861e-01,9.99999e-01
4.645600332e-01,9.64561e-01,9.99999e-01,9.99999e-01,9.99998e-01,9.64562e-01,9.99999e-01
4.668828333e-01,9.65240e-01,9.99999e-01,9.99999e-01,9.99989e-01,9.65250e-01,9.99999e-01
4.692172475e-01,9.65904e-01,9.99999e-01,9.99999e-01,9.99978e-01,9.65924e-01,9.99999e-01
4.715633337e-01,9.66573e-01,9.99999e-01,9.99999e-01,9.99985e-01,9.66586e-01,9.99999e-01
4.739211504e-01,9.67222e-01,9.99999e-01,9.99999e-01,9.99986e-01,9.67235e-01,9.99999e-01
4.762907561e-01,9.67865e-01,9.99999e-01,9.99999e-01,9.99992e-01,9.67872e-01,9.99999e-01
4.786722099e-01,9.68493e-01,9.99999e-01,9.99999e-01,9.99996e-01,9.68496e-01,9.99999e-01
4.810655710e-01,9.69108e-01,9.99999e-01,9.99999e-01,9.99998e-01,9.69109e-01,9.99999e-01
4.834708988e-01,9.69701e-01,9.99999e-01,9.99999e-01,9.99991e-01,9.69709e-01,9.99999e-01
4.858882533e-01,9.70284e-01,9.99999e-01,9.99999e-01,9.99984e-01,9.70299e-01,9.99999e-01
4.883176946e-01,9.70865e-01,9.99999e-01,9.99999e-01,9.99987e-01,9.70877e-01,9.99999e-01
4.907592831e-01,9.71433e-01,9.99999e-01,9.99999e-01,9.99988e-01,9.71444e-01,9.99999e-01
4.932130795e-01,9.71992e-01,9.99999e-01,9.99999e-01,9.99991e-01,9.72000e-01,9.99999e-01
4.956791449e-01,9.72541e-01,9.99999e-01,9.99999e-01,9.99995e-01,9.72545e-01,9.99999e-01
4.981575406e-01,9.73060e-01,9.99999e-01,9.99999e-01,9.99978e-01,9.73080e-01,9.99999e-01
5.006483283e-01,9.73551e-01,9.99999e-01,9.99999e-01,9.99944e-01,9.73605e-01,9.99999e-01
5.031515699e-01,9.73848e-01,9.99999e-01,9.99999e-01,9.99723e-01,9.74119e-01,9.99996e-01
5.056673278e-01,9.74479e-01,9.99999e-01,9.99999e-01,9.99854e-01,9.74624e-01,9.99996e-01
5.081956644e-01,9.74938e-01,9.99999e-01,9.99999e-01,9.99816e-01,9.75119e-01,9.99997e-01
5.107366428e-01,9.75483e-01,9.99999e-01,9.99999e-01,9.99875e-01,9.75604e-01,9.99999e-01
5.132903260e-01,9.76011e-01,9.99999e-01,9.99999e-01,9.99929e-01,9.76080e-01,9.99999e-01
5.158567776e-01,9.76518e-01,9.99999e-01,9.99999e-01,9.99969e-01,9.76547e-01,9.99999e-01
5.184360615e-01,9.76993e-01,9.99999e-01,9.99999e-01,9.99987e-01,9.77005e-01,9.99999e-01
5.210282418e-01,9.77450e-01,9.99999e-01,9.99999e-01,9.99995e-01,9.77454e-01,9.99999e-01
5.236333830e-01,9.77877e-01,9.99999e-01,9.99999e-01,9.99981e-01,9.77894e-01,9.99999e-01
5.262515499e-01,9.78315e-01,9.99999e-01,9.99999e-01,9.99988e-01,9.78326e-01,9.99999e-01
5.288828077e-01,9.78740e-01,9.99999e-01,9.99999e-01,9.99989e-01,9.78750e-01,9.99999e-01
5.315272217e-01,9.79156e-01,9.99999e-01,9.99999e-01,9.99990e-01,9.79165e-01,9.99999e-01
5.341848578e-01,9.79567e-01,9.99999e-01,9.99999e-01,9.99993e-01,9.79572e-01,9.99999e-01
5.368557821e-01,9.79951e-01,9.99999e-01,9.99999e-01,9.99978e-01,9.79972e-01,9.99999e-01
5.395400610e-01,9.80288e-01,9.99999e-01,9.99999e-01,9.99923e-01,9.80363e-01,9.99998e-01
5.422377613e-01,9.80650e-01,9.99999e-01,9.99999e-01,9.99902e-01,9.80748e-01,9.99997e-01
5.449489501e-01,9.81033e-01,9.99999e-01,9.99999e-01,9.99908e-01,9.81124e-01,9.99997e-01
5.476736949e-01,9.81414e-01,9.99999e-01,9.99999e-01,9.99919e-01,9.81494e-01,9.99998e-01
5.504120634e-01,9.81798e-01,9.99999e-01,9.99999e-01,9.99941e-01,9.81856e-01,9.99999e-01
5.531641237e-01,9.82182e-01,9.99999e-01,9.99999e-01,9.99970e-01,9.82211e-01,9.99999e-01
5.559299443e-01,9.82545e-01,9.99999e-01,9.99999e-01,9.99985e-01,9.82559e-01,9.99999e-01
5.587095940e-01,9.82892e-01,9.99999e-01,9.99999e-01,9.99990e-01,9.82901e-01,9.99999e-01
5.615031420e-01,9.83226e-01,9.99999e-01,9.99999e-01,9.99989e-01,9.83236e-01,9.99999e-01
5.643106577e-01,9.83553e-01,9.99999e-01,9.99999e-01,9.99988e-01,9.83564e-01,9.99999e-01
5.671322110e-01,9.83749e-01,9.99999e-01,9.99999e-01,9.99861e-01,9.83886e-01,9.99998e-01
5.699678720e-01,9.84057e-01,9.99999e-01,9.99999e-01,9.99855e-01,9.84202e-01,9.99995e-01
5.728177114e-01,9.84360e-01,9.99999e-01,9.99999e-01,9.99848e-01,9.84511e-01,9.99996e-01
5.756818000e-01,9.84677e-01,9.99999e-01,9.99999e-01,9.99861e-01,9.84815e-01,9.99997e-01
5.785602090e-01,9.84993e-01,9.99999e-01,9.99999e-01,9.99879e-01,9.85113e-01,9.99998e-01
5.814530100e-01,9.85285e-01,9.99999e-01,9.99999e-01,9.99878e-01,9.85404e-01,9.99999e-01
5.843602750e-01,9.85547e-01,9.99999e-01,9.99999e-01,9.99854e-01,9.85691e-01,9.99998e-01
5.872820764e-01,9.84726e-01,9.99999e-01,9.99999e-01,9.98745e-01,9.85971e-01,9.99990e-01
5.902184868e-01,9.84737e-01,9.99999e-01,9.99999e-01,9.98492e-01,9.86246e-01,9.99975e-01
5.931695792e-01,9.85440e-01,9.99999e-01,9.99999e-01,9.98931e-01,9.86516e-01,9.99976e-01
5.961354271e-01,9.85615e-01,9.99999e-01,9.99999e-01,9.98831e-01,9.86781e-01,9.99986e-01
5.991161043e-01,9.86197e-01,9.99999e-01,9.99999e-01,9.99148e-01,9.87040e-01,9.99995e-01
6.021116848e-01,9.86818e-01,9.99999e-01,9.99999e-01,9.99517e-01,9.87295e-01,9.99999e-01
6.051222432e-01,9.87303e-01,9.99999e-01,9.99999e-01,9.99755e-01,9.87544e-01,9.99999e-01
6.081478544e-01,9.87685e-01,9.99999e-01,9.99999e-01,9.99894e-01,9.87788e-01,9.99999e-01
6.111885937e-01,9.87984e-01,9.99999e-01,9.99999e-01,9.99955e-01,9.88028e-01,9.99999e-01
6.142445367e-01,9.88244e-01,9.99999e-01,9.99999e-01,9.99979e-01,9.88263e-01,9.99999e-01
6.173157594e-01,9.88483e-01,9.99999e-01,9.99999e-01,9.99988e-01,9.88494e-01,9.99999e-01
6.204023382e-01,9.88710e-01,9.99999e-01,9.99999e-01,9.99990e-01,9.88720e-01,9.99999e-01
6.235043498e-01,9.88900e-01,9.99999e-01,9.99999e-01,9.99957e-01,9.88941e-01,9.99999e-01
6.266218716e-01,9.88942e-01,9.99999e-01,9.99999e-01,9.99782e-01,9.89158e-01,9.99997e-01
6.297549810e-01,9.89290e-01,9.99999e-01,9.99999e-01,9.99919e-01,9.89371e-01,9.99996e-01
6.329037559e-01,9.89423e-01,9.99999e-01,9.99999e-01,9.99842e-01,9.89580e-01,9.99997e-01
6.360682746e-01,9.89651e-01,9.99999e-01,9.99999e-01,9.99865e-01,9.89785e-01,9.99998e-01
6.392486160e-01,9.89813e-01,9.99999e-01,9.99999e-01,9.99825e-01,9.89986e-01,9.99998e-01
6.424448591e-01,9.89950e-01,9.99999e-01,9.99999e-01,9.99765e-01,9.90183e-01,9.99998e-01
6.456570834e-01,9.89292e-01,9.99999e-01,9.99999e-01,9.98912e-01,9.90376e-01,9.99992e-01
6.488853688e-01,9.89767e-01,9.99999e-01,9.99999e-01,9.99211e-01,9.90565e-01,9.99982e-01
6.521297956e-01,9.89940e-01,9.99999e-01,9.99999e-01,9.99195e-01,9.90750e-01,9.99985e-01
6.553904446e-01,9.90126e-01,9.99999e-01,9.99999e-01,9.99196e-01,9.90932e-01,9.99989e-01
6.586673968e-01,9.90428e-01,9.99999e-01,9.99999e-01,9.99314e-01,9.91110e-01,9.99996e-01
6.619607338e-01,9.90906e-01,9.99999e-01,9.99999e-01,9.99617e-01,9.91285e-01,9.99998e-01
6.652705375e-01,9.91229e-01,9.99999e-01,9.99999e-01,9.99770e-01,9.91457e-01,9.99999e-01
6.685968902e-01,9.91528e-01,9.99999e-01,9.99999e-01,9.99902e-01,9.91625e-01,9.99999e-01
6.719398746e-01,9.91741e-01,9.99999e-01,9.99999e-01,9.99950e-01,9.91789e-01,9.99999e-01
6.752995740e-01,9.91925e-01,9.99999e-01,9.99999e-01,9.99973e-01,9.91951e-01,9.99999e-01
6.786760719e-01,9.92071e-01,9.99999e-01,9.99999e-01,9.99960e-01,9.92109e-01,9.99999e-01
6.820694522e-01,9.92198e-01,9.99999e-01,9.99999e-01,9.99933e-01,9.92264e-01,9.99999e-01
6.854797995e-01,9.92331e-01,9.99999e-01,9.99999e-01,9.99913e-01,9.92417e-01,9.99998e-01
6.889071985e-01,9.92356e-01,9.99999e-01,9.99999e-01,9.99789e-01,9.92566e-01,9.99997e-01
6.923517345e-01,9.89322e-01,9.99999e-01,9.99999e-01,9.96600e-01,9.92712e-01,9.99983e-01
6.958134932e-01,9.91096e-01,9.99999e-01,9.99999e-01,9.98262e-01,9.92856e-01,9.99963e-01
6.992925606e-01,9.91297e-01,9.99999e-01,9.99999e-01,9.98320e-01,9.92996e-01,9.99967e-01
7.027890234e-01,9.91066e-01,9.99999e-01,9.99999e-01,9.97941e-01,9.93134e-01,9.99974e-01
7.063029686e-01,9.91538e-01,9.99999e-01,9.99999e-01,9.98268e-01,9.93269e-01,9.99987e-01
7.098344834e-01,9.91745e-01,9.99999e-01,9.99999e-01,9.98338e-01,9.93402e-01,9.99992e-01
7.133836558e-01,9.91293e-01,9.99999e-01,9.99999e-01,9.97760e-01,9.93532e-01,9.99985e-01
7.169505741e-01,9.75783e-01,9.99999e-01,9.99999e-01,9.82120e-01,9.93659e-01,9.99886e-01
7.205353270e-01,9.85007e-01,9.99999e-01,9.99999e-01,9.91366e-01,9.93784e-01,9.99799e-01
7.241380036e-01,9.82705e-01,9.99999e-01,9.99999e-01,9.88900e-01,9.93906e-01,9.99826e-01
7.277586936e-01,9.83933e-01,9.99999e-01,9.99999e-01,9.89986e-01,9.94026e-01,9.99858e-01
7.313974871e-01,9.83569e-01,9.99999e-01,9.99999e-01,9.89428e-01,9.94144e-01,9.99933e-01
7.350544745e-01,9.88480e-01,9.99999e-01,9.99999e-01,9.94209e-01,9.94259e-01,9.99976e-01
7.387297469e-01,9.90129e-01,9.99999e-01,9.99999e-01,9.95742e-01,9.94372e-01,9.99988e-01
7.424233956e-01,9.92413e-01,9.99999e-01,9.99999e-01,9.97920e-01,9.94483e-01,9.99997e-01
7.461355126e-01,9.93336e-01,9.99999e-01,9.99999e-01,9.98737e-01,9.94592e-01,9.99999e-01
7.498661902e-01,9.94115e-01,9.99999e-01,9.99999e-01,9.99413e-01,9.94698e-01,9.99999e-01
7.536155211e-01,9.94516e-01,9.99999e-01,9.99999e-01,9.99711e-01,9.94803e-01,9.99999e-01
7.573835987e-01,9.94757e-01,9.99999e-01,9.99999e-01,9.99851e-01,9.94905e-01,9.99999e-01
7.611705167e-01,9.94914e-01,9.99999e-01,9.99999e-01,9.99907e-01,9.95005e-01,9.99999e-01
7.649763693e-01,9.95046e-01,9.99999e-01,9.99999e-01,9.99941e-01,9.95104e-01,9.99999e-01
7.688012511e-01,9.95160e-01,9.99999e-01,9.99999e-01,9.99959e-01,9.95200e-01,9.99999e-01
7.726452574e-01,9.95262e-01,9.99999e-01,9.99999e-01,9.99966e-01,9.95295e-01,9.99999e-01
7.765084837e-01,9.95340e-01,9.99999e-01,9.99999e-01,9.99952e-01,9.95387e-01,9.99999e-01
7.803910261e-01,9.95274e-01,9.99999e-01,9.99999e-01,9.99794e-01,9.95478e-01,9.99999e-01
7.842929812e-01,9.94852e-01,9.99999e-01,9.99999e-01,9.99282e-01,9.95567e-01,9.99998e-01
7.882144461e-01,9.94184e-01,9.99999e-01,9.99999e-01,9.98532e-01,9.95655e-01,9.99989e-01
7.921555184e-01,9.94925e-01,9.99999e-01,9.99999e-01,9.99198e-01,9.95740e-01,9.99982e-01
7.961162960e-01,9.94384e-01,9.99999e-01,9.99999e-01,9.98569e-01,9.95824e-01,9.99982e-01
8.000968774e-01,9.94253e-01,9.99999e-01,9.99999e-01,9.98356e-01,9.95907e-01,9.99981e-01
8.040973618e-01,9.94335e-01,9.99999e-01,9.99999e-01,9.98353e-01,9.95987e-01,9.99986e-01
8.081178486e-01,9.92337e-01,9.99999e-01,9.99999e-01,9.96268e-01,9.96066e-01,9.99985e-01
8.121584379e-01,9.80666e-01,9.99999e-01,9.99999e-01,9.84512e-01,9.96144e-01,9.99947e-01
8.162192301e-01,9.77875e-01,9.99999e-01,9.99999e-01,9.81775e-01,9.96220e-01,9.99804e-01
8.203003262e-01,9.86781e-01,9.99999e-01,9.99999e-01,9.90676e-01,9.96294e-01,9.99771e-01
8.244018279e-01,9.83476e-01,9.99999e-01,9.99999e-01,9.87240e-01,9.96367e-01,9.99818e-01
8.285238370e-01,9.85388e-01,9.99999e-01,9.99999e-01,9.89049e-01,9.96439e-01,9.99857e-01
8.326664562e-01,9.85454e-01,9.99999e-01,9.99999e-01,9.88963e-01,9.96509e-01,9.99940e-01
8.368297885e-01,9.88727e-01,9.99999e-01,9.99999e-01,9.92134e-01,9.96578e-01,9.99986e-01
8.410139374e-01,9.91979e-01,9.99999e-01,9.99999e-01,9.95325e-01,9.96646e-01,9.99991e-01
8.452190071e-01,9.94424e-01,9.99999e-01,9.99999e-01,9.97709e-01,9.96712e-01,9.99994e-01
8.494451021e-01,9.95444e-01,9.99999e-01,9.99999e-01,9.98666e-01,9.96776e-01,9.99995e-01
8.536923276e-01,9.96054e-01,9.99999e-01,9.99999e-01,9.99213e-01,9.96840e-01,9.99997e-01
8.579607893e-01,9.96418e-01,9.99999e-01,9.99999e-01,9.99514e-01,9.96902e-01,9.99998e-01
8.622505932e-01,9.96657e-01,9.99999e-01,9.99999e-01,9.99691e-01,9.96963e-01,9.99999e-01
8.665618462e-01,9.96833e-01,9.99999e-01,9.99999e-01,9.99808e-01,9.97023e-01,9.99999e-01
8.708946554e-01,9.96864e-01,9.99999e-01,9.99999e-01,9.99780e-01,9.97082e-01,9.99999e-01
8.752491287e-01,9.96847e-01,9.99999e-01,9.99999e-01,9.99706e-01,9.97140e-01,9.99999e-01
8.796253743e-01,9.96790e-01,9.99999e-01,9.99999e-01,9.99593e-01,9.97196e-01,9.99998e-01
8.840235012e-01,9.96786e-01,9.99999e-01,9.99999e-01,9.99535e-01,9.97251e-01,9.99996e-01
8.884436187e-01,9.95580e-01,9.99999e-01,9.99999e-01,9.98277e-01,9.97305e-01,9.99991e-01
8.928858368e-01,9.79475e-01,9.99999e-01,9.99999e-01,9.82113e-01,9.97359e-01,9.99953e-01
8.973502660e-01,9.66022e-01,9.99999e-01,9.99999e-01,9.68759e-01,9.97411e-01,9.99762e-01
9.018370173e-01,9.81175e-01,9.99999e-01,9.99999e-01,9.84037e-01,9.97462e-01,9.99627e-01
9.063462024e-01,9.82987e-01,9.99999e-01,9.99999e-01,9.85761e-01,9.97512e-01,9.99672e-01
9.108779334e-01,9.75254e-01,9.99999e-01,9.99999e-01,9.77970e-01,9.97561e-01,9.99659e-01
9.154323231e-01,9.72481e-01,9.99999e-01,9.99999e-01,9.75085e-01,9.97609e-01,9.99718e-01
9.200094847e-01,9.78004e-01,9.99999e-01,9.99999e-01,9.80455e-01,9.97656e-01,9.99842e-01
9.246095321e-01,9.66196e-01,9.99999e-01,9.99999e-01,9.68595e-01,9.97702e-01,9.99818e-01
9.292325798e-01,8.05126e-01,9.99999e-01,9.99999e-01,8.07649e-01,9.97748e-01,9.99125e-01
9.338787427e-01,7.55560e-01,9.99999e-01,9.99999e-01,7.59628e-01,9.97792e-01,9.96843e-01
9.385481364e-01,8.90667e-01,9.99999e-01,9.99999e-01,8.95704e-01,9.97836e-01,9.96532e-01
9.432408771e-01,8.50196e-01,9.99999e-01,9.99999e-01,8.54560e-01,9.97878e-01,9.97007e-01
9.479570815e-01,7.98004e-01,9.99999e-01,9.99999e-01,8.01619e-01,9.97920e-01,9.97563e-01
9.526968669e-01,8.48199e-01,9.99999e-01,9.99999e-01,8.51196e-01,9.97961e-01,9.98513e-01
9.574603512e-01,8.62921e-01,9.99999e-01,9.99999e-01,8.65302e-01,9.98001e-01,9.99244e-01
9.622476530e-01,8.87614e-01,9.99999e-01,9.99999e-01,8.89820e-01,9.98041e-01,9.99477e-01
9.670588912e-01,9.32900e-01,9.99999e-01,9.99999e-01,9.35028e-01,9.98079e-01,9.99642e-01
9.718941857e-01,9.57049e-01,9.99999e-01,9.99999e-01,9.59106e-01,9.98117e-01,9.99736e-01
9.767536566e-01,9.63968e-01,9.99999e-01,9.99999e-01,9.65943e-01,9.98154e-01,9.99798e-01
9.816374249e-01,9.72912e-01,9.99999e-01,9.99999e-01,9.74742e-01,9.98191e-01,9.99929e-01
9.865456120e-01,9.82406e-01,9.99999e-01,9.99999e-01,9.84165e-01,9.98227e-01,9.99985e-01
9.914783401e-01,9.88461e-01,9.99999e-01,9.99999e-01,9.90186e-01,9.98261e-01,9.99995e-01
9.964357318e-01,9.92950e-01,9.99999e-01,9.99999e-01,9.94646e-01,9.98296e-01,9.99997e-01
1.001417910e+00,9.95122e-01,9.99999e-01,9.99999e-01,9.96790e-01,9.98329e-01,9.99995e-01
1.006425000e+00,9.96527e-01,9.99999e-01,9.99999e-01,9.98166e-01,9.98362e-01,9.99994e-01
1.011457125e+00,9.97256e-01,9.99999e-01,9.99999e-01,9.98863e-01,9.98395e-01,9.99994e-01
1.016514411e+00,9.97652e-01,9.99999e-01,9.99999e-01,9.99227e-01,9.98426e-01,9.99996e-01
1.021596983e+00,9.97840e-01,9.99999e-01,9.99999e-01,9.99384e-01,9.98457e-01,9.99996e-01
1.026704968e+00,9.98006e-01,9.99999e-01,9.99999e-01,9.99519e-01,9.98488e-01,9.99997e-01
1.031838492e+00,9.98169e-01,9.99999e-01,9.99999e-01,9.99651e-01,9.98518e-01,9.99998e-01
1.036997685e+00,9.98340e-01,9.99999e-01,9.99999e-01,9.99792e-01,9.98547e-01,9.99999e-01
1.042182673e+00,9.98328e-01,9.99999e-01,9.99999e-01,9.99751e-01,9.98576e-01,9.99999e-01
1.047393587e+00,9.98276e-01,9.99999e-01,9.99999e-01,9.99671e-01,9.98604e-01,9.99999e-01
1.052630555e+00,9.98181e-01,9.99999e-01,9.99999e-01,9.99548e-01,9.98631e-01,9.99999e-01
1.057893707e+00,9.97905e-01,9.99999e-01,9.99999e-01,9.99245e-01,9.98658e-01,9.99999e-01
1.063183176e+00,9.97446e-01,9.99999e-01,9.99999e-01,9.98759e-01,9.98685e-01,9.99998e-01
1.068499092e+00,9.96638e-01,9.99999e-01,9.99999e-01,9.97926e-01,9.98711e-01,9.99998e-01
1.073841587e+00,9.96304e-01,9.99999e-01,9.99999e-01,9.97567e-01,9.98736e-01,9.99996e-01
1.079210795e+00,9.95651e-01,9.99999e-01,9.99999e-01,9.96893e-01,9.98761e-01,9.99991e-01
1.084606849e+00,9.94064e-01,9.99999e-01,9.99999e-01,9.95291e-01,9.98785e-01,9.99979e-01
1.090029883e+00,9.91979e-01,9.99999e-01,9.99999e-01,9.93202e-01,9.98809e-01,9.99958e-01
1.095480033e+00,9.80391e-01,9.99999e-01,9.99999e-01,9.81609e-01,9.98833e-01,9.99924e-01
1.100957433e+00,9.52582e-01,9.99999e-01,9.99999e-01,9.53803e-01,9.98856e-01,9.99862e-01
1.106462220e+00,8.84261e-01,9.99999e-01,9.99999e-01,8.85460e-01,9.98878e-01,9.99766e-01
1.111994531e+00,7.72327e-01,9.99999e-01,9.99999e-01,7.73654e-01,9.98901e-01,9.99381e-01
1.117554504e+00,6.56211e-01,9.99999e-01,9.99999e-01,6.58387e-01,9.98922e-01,9.97769e-01
1.123142276e+00,7.26020e-01,9.99999e-01,9.99999e-01,7.30646e-01,9.98943e-01,9.94718e-01
1.128757988e+00,8.14355e-01,9.99999e-01,9.99999e-01,8.20207e-01,9.98964e-01,9.93892e-01
1.134401778e+00,6.11315e-01,9.99999e-01,9.99999e-01,6.15131e-01,9.98985e-01,9.94804e-01
1.140073787e+00,8.85703e-01,9.99999e-01,9.99999e-01,8.90282e-01,9.99005e-01,9.95846e-01
1.145774156e+00,7.78808e-01,9.99999e-01,9.99999e-01,7.82543e-01,9.99024e-01,9.96197e-01
1.151503026e+00,7.56587e-01,9.99999e-01,9.99999e-01,7.58919e-01,9.99044e-01,9.97879e-01
1.157260541e+00,7.97697e-01,9.99999e-01,9.99999e-01,7.98952e-01,9.99062e-01,9.99365e-01
1.163046844e+00,8.47030e-01,9.99999e-01,9.99999e-01,8.47961e-01,9.99081e-01,9.99819e-01
1.168862078e+00,8.91690e-01,9.99999e-01,9.99999e-01,8.92576e-01,9.99099e-01,9.99906e-01
1.174706389e+00,9.31351e-01,9.99999e-01,9.99999e-01,9.32288e-01,9.99117e-01,9.99876e-01
1.180579921e+00,9.57270e-01,9.99999e-01,9.99999e-01,9.58277e-01,9.99134e-01,9.99813e-01
1.186482820e+00,9.75221e-01,9.99999e-01,9.99999e-01,9.76234e-01,9.99151e-01,9.99808e-01
1.192415234e+00,9.85104e-01,9.99999e-01,9.99999e-01,9.86064e-01,9.99168e-01,9.99856e-01
1.198377311e+00,9.87283e-01,9.99999e-01,9.99999e-01,9.88222e-01,9.99185e-01,9.99864e-01
1.204369197e+00,9.87940e-01,9.99999e-01,9.99999e-01,9.88850e-01,9.99201e-01,9.99877e-01
1.210391043e+00,9.88495e-01,9.99999e-01,9.99999e-01,9.89343e-01,9.99216e-01,9.99925e-01
1.216442998e+00,9.90139e-01,9.99999e-01,9.99999e-01,9.90944e-01,9.99232e-01,9.99954e-01
1.222525213e+00,9.92167e-01,9.99999e-01,9.99999e-01,9.92942e-01,9.99247e-01,9.99971e-01
1.228637839e+00,9.94345e-01,9.99999e-01,9.99999e-01,9.95092e-01,9.99262e-01,9.99986e-01
