#,Wave/freq,Total,N2,O2,H2O,Rayleigh,CIA
4.000000000e-01,5.01680e-01,9.99999e-01,9.99999e-01,9.99921e-01,5.01719e-01,9.99999e-01
4.020000000e-01,5.08584e-01,9.99999e-01,9.99999e-01,9.99951e-01,5.08608e-01,9.99999e-01
4.040100000e-01,5.15435e-01,9.99999e-01,9.99999e-01,9.99978e-01,5.15446e-01,9.99999e-01
4.060300500e-01,5.22235e-01,9.99999e-01,9.99999e-01,9.99994e-01,5.22238e-01,9.99999e-01
4.080602003e-01,5.28981e-01,9.99999e-01,9.99999e-01,9.99997e-01,5.28982e-01,9.99999e-01
4.101005013e-01,5.35678e-01,9.99999e-01,9.99999e-01,9.99999e-01,5.35678e-01,9.99999e-01
4.121510038e-01,5.42322e-01,9.99999e-01,9.99999e-01,9.99996e-01,5.42324e-01,9.99999e-01
4.142117588e-01,5.48907e-01,9.99999e-01,9.99999e-01,9.99978e-01,5.48918e-01,9.99999e-01
4.162828176e-01,5.55407e-01,9.99999e-01,9.99999e-01,9.99903e-01,5.55460e-01,9.99999e-01
4.183642317e-01,5.61917e-01,9.99999e-01,9.99999e-01,9.99942e-01,5.61949e-01,9.99999e-01
4.204560528e-01,5.68363e-01,9.99999e-01,9.99999e-01,9.99964e-01,5.68383e-01,9.99999e-01
4.225583331e-01,5.74753e-01,9.99999e-01,9.99999e-01,9.99986e-01,5.74761e-01,9.99999e-01
4.246711247e-01,5.81077e-01,9.99999e-01,9.99999e-01,9.99989e-01,5.81083e-01,9.99999e-01
4.267944804e-01,5.87338e-01,9.99999e-01,9.99999e-01,9.99984e-01,5.87347e-01,9.99999e-01
4.289284528e-01,5.93546e-01,9.99999e-01,9.99999e-01,9.99987e-01,5.93553e-01,9.99999e-01
4.310730950e-01,5.99698e-01,9.99999e-01,9.99999e-01,9.99994e-01,5.99701e-01,9.99999e-01
4.332284605e-01,6.05787e-01,9.99999e-01,9.99999e-01,9.99998e-01,6.05788e-01,9.99999e-01
4.353946028e-01,6.11815e-01,9.99999e-01,9.99999e-01,9.99998e-01,6.11816e-01,9.99999e-01
4.375715758e-01,6.17776e-01,9.99999e-01,9.99999e-01,9.99990e-01,6.17782e-01,9.99999e-01
4.397594337e-01,6.23635e-01,9.99999e-01,9.99999e-01,9.99916e-01,6.23687e-01,9.99999e-01
4.419582309e-01,6.29264e-01,9.99999e-01,9.99999e-01,9.99576e-01,6.29530e-01,9.99999e-01
4.441680220e-01,6.35097e-01,9.99999e-01,9.99999e-01,9.99661e-01,6.35311e-01,9.99999e-01
4.463888621e-01,6.40806e-01,9.99999e-01,9.99999e-01,9.99650e-01,6.41030e-01,9.99999e-01
4.486208064e-01,6.46544e-01,9.99999e-01,9.99999e-01,9.99781e-01,6.46685e-01,9.99999e-01
4.508639105e-01,6.52210e-01,9.99999e-01,9.99999e-01,9.99897e-01,6.52277e-01,9.99999e-01
4.531182300e-01,6.57779e-01,9.99999e-01,9.99999e-01,9.99959e-01,6.57805e-01,9.99999e-01
4.553838212e-01,6.63252e-01,9.99999e-01,9.99999e-01,9.99972e-01,6.63270e-01,9.99999e-01
4.576607403e-01,6.68663e-01,9.99999e-01,9.99999e-01,9.99986e-01,6.68671e-01,9.99999e-01
4.599490440e-01,6.74002e-01,9.99999e-01,9.99999e-01,9.99990e-01,6.74008e-01,9.99999e-01
4.622487892e-01,6.79280e-01,9.99999e-01,9.99999e-01,9.99997e-01,6.79281e-01,9.99999e-01
4.645600332e-01,6.84485e-01,9.99999e-01,9.99999e-01,9.99993e-01,6.84489e-01,9.99999e-01
4.668828333e-01,6.89564e-01,9.99999e-01,9.99999e-01,9.99897e-01,6.89634e-01,9.99999e-01
4.692172475e-01,6.94562e-01,9.99999e-01,9.99999e-01,9.99780e-01,6.94714e-01,9.99999e-01
4.715633337e-01,6.99631e-01,9.99999e-01,9.99999e-01,9.99856e-01,6.99731e-01,9.99999e-01
4.739211504e-01,7.04586e-01,9.99999e-01,9.99999e-01,9.99862e-01,7.04683e-01,9.99999e-01
4.762907561e-01,7.09521e-01,9.99999e-01,9.99999e-01,9.99928e-01,7.09572e-01,9.99999e-01
4.786722099e-01,7.14376e-01,9.99999e-01,9.99999e-01,9.99970e-01,7.14397e-01,9.99999e-01
4.810655710e-01,7.19152e-01,9.99999e-01,9.99999e-01,9.99990e-01,7.19159e-01,9.99999e-01
4.834708988e-01,7.23798e-01,9.99999e-01,9.99999e-01,9.99917e-01,7.23857e-01,9.99999e-01
4.858882533e-01,7.28379e-01,9.99999e-01,9.99999e-01,9.99844e-01,7.28492e-01,9.99999e-01
4.883176946e-01,7.32970e-01,9.99999e-01,9.99999e-01,9.99870e-01,7.33065e-01,9.99999e-01
4.907592831e-01,7.37488e-01,9.99999e-01,9.99999e-01,9.99881e-01,7.37575e-01,9.99999e-01
4.932130795e-01,7.41961e-01,9.99999e-01,9.99999e-01,9.99916e-01,7.42023e-01,9.99999e-01
4.956791449e-01,7.46376e-01,9.99999e-01,9.99999e-01,9.99955e-01,7.46409e-01,9.99999e-01
4.981575406e-01,7.50569e-01,9.99999e-01,9.99999e-01,9.99780e-01,7.50734e-01,9.99999e-01
5.006483283e-01,7.54569e-01,9.99999e-01,9.99999e-01,9.99435e-01,7.54997e-01,9.99995e-01
5.031515699e-01,7.56989e-01,9.99999e-01,9.99999e-01,9.97117e-01,7.59200e-01,9.99969e-01
5.056673278e-01,7.62150e-01,9.99999e-01,9.99999e-01,9.98472e-01,7.63343e-01,9.99964e-01
5.081956644e-01,7.65929e-01,9.99999e-01,9.99999e-01,9.98071e-01,7.67425e-01,9.99977e-01
5.107366428e-01,7.70440e-01,9.99999e-01,9.99999e-01,9.98696e-01,7.71448e-01,9.99995e-01
5.132903260e-01,7.74834e-01,9.99999e-01,9.99999e-01,9.99253e-01,7.75413e-01,9.99999e-01
5.158567776e-01,7.79072e-01,9.99999e-01,9.99999e-01,9.99683e-01,7.79318e-01,9.99999e-01
5.184360615e-01,7.83067e-01,9.99999e-01,9.99999e-01,9.99873e-01,7.83166e-01,9.99999e-01
5.210282418e-01,7.86919e-01,9.99999e-01,9.99999e-01,9.99952e-01,7.86956e-01,9.99999e-01
5.236333830e-01,7.90539e-01,9.99999e-01,9.99999e-01,9.99811e-01,7.90689e-01,9.99998e-01
5.262515499e-01,7.94270e-01,9.99999e-01,9.99999e-01,9.99881e-01,7.94365e-01,9.99997e-01
5.288828077e-01,7.97899e-01,9.99999e-01,9.99999e-01,9.99891e-01,7.97986e-01,9.99998e-01
5.315272217e-01,8.01474e-01,9.99999e-01,9.99999e-01,9.99904e-01,8.01550e-01,9.99999e-01
5.341848578e-01,8.05011e-01,9.99999e-01,9.99999e-01,9.99937e-01,8.05060e-01,9.99999e-01
5.368557821e-01,8.08339e-01,9.99999e-01,9.99999e-01,9.99781e-01,8.08516e-01,9.99999e-01
5.395400610e-01,8.11277e-01,9.99999e-01,9.99999e-01,9.99217e-01,8.11918e-01,9.99992e-01
5.422377613e-01,8.14414e-01,9.99999e-01,9.99999e-01,9.98973e-01,8.15266e-01,9.99981e-01
5.449489501e-01,8.17771e-01,9.99999e-01,9.99999e-01,9.99052e-01,8.18562e-01,9.99980e-01
5.476736949e-01,8.21102e-01,9.99999e-01,9.99999e-01,9.99153e-01,8.21805e-01,9.99990e-01
5.504120634e-01,8.24488e-01,9.99999e-01,9.99999e-01,9.99385e-01,8.24997e-01,9.99996e-01
5.531641237e-01,8.27882e-01,9.99999e-01,9.99999e-01,9.99690e-01,8.28138e-01,9.99999e-01
5.559299443e-01,8.31104e-01,9.99999e-01,9.99999e-01,9.99850e-01,8.31228e-01,9.99999e-01
5.587095940e-01,8.34191e-01,9.99999e-01,9.99999e-01,9.99906e-01,8.34269e-01,9.99999e-01
5.615031420e-01,8.37173e-01,9.99999e-01,9.99999e-01,9.99895e-01,8.37260e-01,9.99999e-01
5.643106577e-01,8.40105e-01,9.99999e-01,9.99999e-01,9.99883e-01,8.40203e-01,9.99998e-01
5.671322110e-01,8.41908e-01,9.99999e-01,9.99999e-01,9.98600e-01,8.43097e-01,9.99988e-01
5.699678720e-01,8.44614e-01,9.99999e-01,9.99999e-01,9.98465e-01,8.45944e-01,9.99960e-01
5.728177114e-01,8.47377e-01,9.99999e-01,9.99999e-01,9.98420e-01,8.48744e-01,9.99967e-01
5.756818000e-01,8.50244e-01,9.99999e-01,9.99999e-01,9.98546e-01,8.51498e-01,9.99979e-01
5.785602090e-01,8.53117e-01,9.99999e-01,9.99999e-01,9.98730e-01,8.54206e-01,9.99993e-01
5.814530100e-01,8.55778e-01,9.99999e-01,9.99999e-01,9.98728e-01,8.56869e-01,9.99996e-01
5.843602750e-01,8.58190e-01,9.99999e-01,9.99999e-01,9.98497e-01,8.59488e-01,9.99991e-01
5.872820764e-01,8.50877e-01,9.99999e-01,9.99999e-01,9.87115e-01,8.62062e-01,9.99907e-01
5.902184868e-01,8.50748e-01,9.99999e-01,9.99999e-01,9.84232e-01,8.64593e-01,9.99749e-01
5.931695792e-01,8.57235e-01,9.99999e-01,9.99999e-01,9.88884e-01,8.67082e-01,9.99756e-01
5.961354271e-01,8.58780e-01,9.99999e-01,9.99999e-01,9.87783e-01,8.69528e-01,9.99852e-01
5.991161043e-01,8.64104e-01,9.99999e-01,9.99999e-01,9.91063e-01,8.71932e-01,9.99956e-01
6.021116848e-01,8.69844e-01,9.99999e-01,9.99999e-01,9.94913e-01,8.74296e-01,9.99994e-01
6.051222432e-01,8.74359e-01,9.99999e-01,9.99999e-01,9.97422e-01,8.76619e-01,9.99999e-01
6.081478544e-01,8.77925e-01,9.99999e-01,9.99999e-01,9.98888e-01,8.78902e-01,9.99999e-01
6.111885937e-01,8.80730e-01,9.99999e-01,9.99999e-01,9.99528e-01,8.81146e-01,9.99999e-01
6.142445367e-01,8.83165e-01,9.99999e-01,9.99999e-01,9.99789e-01,8.83351e-01,9.99999e-01
6.173157594e-01,8.85415e-01,9.99999e-01,9.99999e-01,9.99883e-01,8.85517e-01,9.99999e-01
6.204023382e-01,8.87560e-01,9.99999e-01,9.99999e-01,9.99902e-01,8.87647e-01,9.99999e-01
6.235043498e-01,8.89362e-01,9.99999e-01,9.99999e-01,9.99577e-01,8.89739e-01,9.99998e-01
6.266218716e-01,8.89751e-01,9.99999e-01,9.99999e-01,9.97724e-01,8.91794e-01,9.99983e-01
6.297549810e-01,8.93039e-01,9.99999e-01,9.99999e-01,9.99165e-01,8.93814e-01,9.99967e-01
6.329037559e-01,8.94293e-01,9.99999e-01,9.99999e-01,9.98344e-01,8.95798e-01,9.99973e-01
6.360682746e-01,8.96475e-01,9.99999e-01,9.99999e-01,9.98597e-01,8.97747e-01,9.99984e-01
6.392486160e-01,8.98017e-01,9.99999e-01,9.99999e-01,9.98178e-01,8.99662e-01,9.99992e-01
6.424448591e-01,8.99566e-01,9.99999e-01,9.99999e-01,9.97817e-01,9.01543e-01,9.99988e-01
6.456570834e-01,8.93319e-01,9.99999e-01,9.99999e-01,9.88913e-01,9.03390e-01,9.99936e-01
6.488853688e-01,8.96251e-01,9.99999e-01,9.99999e-01,9.90281e-01,9.05205e-01,9.99824e-01
6.521297956e-01,8.99207e-01,9.99999e-01,9.99999e-01,9.91566e-01,9.06988e-01,9.99852e-01
6.553904446e-01,9.01066e-01,9.99999e-01,9.99999e-01,9.91665e-01,9.08738e-01,9.99889e-01
6.586673968e-01,9.03862e-01,9.99999e-01,9.99999e-01,9.92791e-01,9.10458e-01,9.99963e-01
6.619607338e-01,9.08334e-01,9.99999e-01,9.99999e-01,9.95827e-01,9.12146e-01,9.99991e-01
6.652705375e-01,9.11585e-01,9.99999e-01,9.99999e-01,9.97575e-01,9.13804e-01,9.99995e-01
6.685968902e-01,9.14402e-01,9.99999e-01,9.99999e-01,9.98873e-01,9.15433e-01,9.99998e-01
6.719398746e-01,9.16553e-01,9.99999e-01,9.99999e-01,9.99477e-01,9.17032e-01,9.99999e-01
6.752995740e-01,9.18343e-01,9.99999e-01,9.99999e-01,9.99717e-01,9.18602e-01,9.99999e-01
6.786760719e-01,9.19772e-01,9.99999e-01,9.99999e-01,9.99595e-01,9.20144e-01,9.99998e-01
6.820694522e-01,9.21015e-01,9.99999e-01,9.99999e-01,9.99306e-01,9.21658e-01,9.99995e-01
6.854797995e-01,9.22312e-01,9.99999e-01,9.99999e-01,9.99105e-01,9.23144e-01,9.99991e-01
6.889071985e-01,9.22619e-01,9.99999e-01,9.99999e-01,9.97872e-01,9.24603e-01,9.99980e-01
6.923517345e-01,8.93879e-01,9.99999e-01,9.99999e-01,9.65437e-01,9.26036e-01,9.99829e-01
6.958134932e-01,9.09950e-01,9.99999e-01,9.99999e-01,9.81513e-01,9.27443e-01,9.99616e-01
6.992925606e-01,9.12496e-01,9.99999e-01,9.99999e-01,9.82751e-01,9.28824e-01,9.99662e-01
7.027890234e-01,9.10006e-01,9.99999e-01,9.99999e-01,9.78565e-01,9.30179e-01,9.99741e-01
7.063029686e-01,9.14584e-01,9.99999e-01,9.99999e-01,9.81955e-01,9.31510e-01,9.99870e-01
7.098344834e-01,9.16587e-01,9.99999e-01,9.99999e-01,9.82676e-01,9.32816e-01,9.99923e-01
7.133836558e-01,9.12789e-01,9.99999e-01,9.99999e-01,9.77334e-01,9.34099e-01,9.99848e-01
7.169505741e-01,7.77971e-01,9.99999e-01,9.99999e-01,8.32726e-01,9.35357e-01,9.98809e-01
7.205353270e-01,8.52677e-01,9.99999e-01,9.99999e-01,9.12316e-01,9.36593e-01,9.97901e-01
7.241380036e-01,8.34416e-01,9.99999e-01,9.99999e-01,8.91380e-01,9.37805e-01,9.98173e-01
7.277586936e-01,8.45106e-01,9.99999e-01,9.99999e-01,9.01377e-01,9.38996e-01,9.98482e-01
7.313974871e-01,8.40305e-01,9.99999e-01,9.99999e-01,8.94406e-01,9.40164e-01,9.99305e-01
7.350544745e-01,8.85426e-01,9.99999e-01,9.99999e-01,9.40857e-01,9.41310e-01,9.99758e-01
7.387297469e-01,9.00884e-01,9.99999e-01,9.99999e-01,9.56015e-01,9.42436e-01,9.99888e-01
7.424233956e-01,9.22914e-01,9.99999e-01,9.99999e-01,9.78160e-01,9.43540e-01,9.99978e-01
7.461355126e-01,9.32086e-01,9.99999e-01,9.99999e-01,9.86730e-01,9.44624e-01,9.99995e-01
7.498661902e-01,9.39807e-01,9.99999e-01,9.99999e-01,9.93783e-01,9.45687e-01,9.99998e-01
7.536155211e-01,9.43848e-01,9.99999e-01,9.99999e-01,9.96955e-01,9.46731e-01,9.99998e-01
7.573835987e-01,9.46268e-01,9.99999e-01,9.99999e-01,9.98430e-01,9.47755e-01,9.99999e-01
7.611705167e-01,9.47835e-01,9.99999e-01,9.99999e-01,9.99024e-01,9.48760e-01,9.99999e-01
7.649763693e-01,9.49167e-01,9.99999e-01,9.99999e-01,9.99389e-01,9.49746e-01,9.99999e-01
7.688012511e-01,9.50311e-01,9.99999e-01,9.99999e-01,9.99575e-01,9.50714e-01,9.99999e-01
7.726452574e-01,9.51332e-01,9.99999e-01,9.99999e-01,9.99650e-01,9.51664e-01,9.99999e-01
7.765084837e-01,9.52127e-01,9.99999e-01,9.99999e-01,9.99507e-01,9.52595e-01,9.99998e-01
7.803910261e-01,9.51486e-01,9.99999e-01,9.99999e-01,9.97879e-01,9.53510e-01,9.99997e-01
7.842929812e-01,9.47349e-01,9.99999e-01,9.99999e-01,9.92618e-01,9.54407e-01,9.99985e-01
7.882144461e-01,9.40590e-01,9.99999e-01,9.99999e-01,9.84707e-01,9.55287e-01,9.99905e-01
7.921555184e-01,9.47893e-01,9.99999e-01,9.99999e-01,9.91544e-01,9.56150e-01,9.99817e-01
7.961162960e-01,9.42743e-01,9.99999e-01,9.99999e-01,9.85276e-01,9.56997e-01,9.99825e-01
8.000968774e-01,9.41270e-01,9.99999e-01,9.99999e-01,9.82894e-01,9.57829e-01,9.99813e-01
8.040973618e-01,9.42132e-01,9.99999e-01,9.99999e-01,9.82919e-01,9.58644e-01,9.99852e-01
8.081178486e-01,9.23105e-01,9.99999e-01,9.99999e-01,9.62256e-01,9.59444e-01,9.99861e-01
8.121584379e-01,8.18142e-01,9.99999e-01,9.99999e-01,8.52491e-01,9.60229e-01,9.99456e-01
8.162192301e-01,7.92257e-01,9.99999e-01,9.99999e-01,8.26095e-01,9.60999e-01,9.97958e-01
8.203003262e-01,8.75395e-01,9.99999e-01,9.99999e-01,9.12386e-01,9.61755e-01,9.97609e-01
8.244018279e-01,8.43565e-01,9.99999e-01,9.99999e-01,8.78105e-01,9.62496e-01,9.98097e-01
8.285238370e-01,8.58289e-01,9.99999e-01,9.99999e-01,8.92392e-01,9.63223e-01,9.98505e-01
8.326664562e-01,8.58367e-01,9.99999e-01,9.99999e-01,8.91031e-01,9.63936e-01,9.99381e-01
8.368297885e-01,8.87651e-01,9.99999e-01,9.99999e-01,9.20322e-01,9.64635e-01,9.99858e-01
8.410139374e-01,9.18696e-01,9.99999e-01,9.99999e-01,9.51777e-01,9.65322e-01,9.99916e-01
8.452190071e-01,9.42772e-01,9.99999e-01,9.99999e-01,9.76007e-01,9.65995e-01,9.99950e-01
8.494451021e-01,9.53141e-01,9.99999e-01,9.99999e-01,9.86057e-01,9.66655e-01,9.99959e-01
8.536923276e-01,9.59252e-01,9.99999e-01,9.99999e-01,9.91702e-01,9.67303e-01,9.99973e-01
8.579607893e-01,9.62995e-01,9.99999e-01,9.99999e-01,9.94899e-01,9.67938e-01,9.99992e-01
8.622505932e-01,9.65413e-01,9.99999e-01,9.99999e-01,9.96749e-01,9.68562e-01,9.99998e-01
8.665618462e-01,9.67230e-01,9.99999e-01,9.99999e-01,9.97995e-01,9.69173e-01,9.99998e-01
8.708946554e-01,9.67552e-01,9.99999e-01,9.99999e-01,9.97711e-01,9.69772e-01,9.99998e-01
8.752491287e-01,9.67384e-01,9.99999e-01,9.99999e-01,9.96935e-01,9.70361e-01,9.99996e-01
8.796253743e-01,9.66824e-01,9.99999e-01,9.99999e-01,9.95772e-01,9.70937e-01,9.99990e-01
8.840235012e-01,9.66781e-01,9.99999e-01,9.99999e-01,9.95168e-01,9.71503e-01,9.99970e-01
8.884436187e-01,9.55341e-01,9.99999e-01,9.99999e-01,9.82884e-01,9.72058e-01,9.99915e-01
8.928858368e-01,8.10133e-01,9.99999e-01,9.99999e-01,8.33358e-01,9.72602e-01,9.99514e-01
8.973502660e-01,7.02060e-01,9.99999e-01,9.99999e-01,7.23235e-01,9.73136e-01,9.97516e-01
9.018370173e-01,8.21017e-01,9.99999e-01,9.99999e-01,8.46529e-01,9.73660e-01,9.96098e-01
9.063462024e-01,8.39907e-01,9.99999e-01,9.99999e-01,8.65139e-01,9.74173e-01,9.96571e-01
9.108779334e-01,7.74048e-01,9.99999e-01,9.99999e-01,7.96996e-01,9.74677e-01,9.96438e-01
9.154323231e-01,7.50159e-01,9.99999e-01,9.99999e-01,7.71530e-01,9.75171e-01,9.97054e-01
9.200094847e-01,7.95194e-01,9.99999e-01,9.99999e-01,8.16381e-01,9.75655e-01,9.98350e-01
9.246095321e-01,7.21890e-01,9.99999e-01,9.99999e-01,7.40949e-01,9.76130e-01,9.98099e-01
9.292325798e-01,1.49982e-01,9.99999e-01,9.99999e-01,1.54719e-01,9.76596e-01,9.92610e-01
9.338787427e-01,8.10456e-02,9.99999e-01,9.99999e-01,8.55316e-02,9.77053e-01,9.69804e-01
9.385481364e-01,3.46116e-01,9.99999e-01,9.99999e-01,3.67232e-01,9.77501e-01,9.64190e-01
9.432408771e-01,2.53286e-01,9.99999e-01,9.99999e-01,2.67277e-01,9.77941e-01,9.69029e-01
9.479570815e-01,1.50926e-01,9.99999e-01,9.99999e-01,1.58263e-01,9.78372e-01,9.74720e-01
9.526968669e-01,2.28896e-01,9.99999e-01,9.99999e-01,2.37535e-01,9.78794e-01,9.84504e-01
9.574603512e-01,2.45702e-01,9.99999e-01,9.99999e-01,2.52917e-01,9.79209e-01,9.92098e-01
9.622476530e-01,3.10046e-01,9.99999e-01,9.99999e-01,3.18238e-01,9.79615e-01,9.94529e-01
9.670588912e-01,5.01212e-01,9.99999e-01,9.99999e-01,5.13355e-01,9.80014e-01,9.96255e-01
9.718941857e-01,6.36218e-01,9.99999e-01,9.99999e-01,6.50728e-01,9.80405e-01,9.97241e-01
9.767536566e-01,6.84691e-01,9.99999e-01,9.99999e-01,6.99577e-01,9.80788e-01,9.97891e-01
9.816374249e-01,7.50628e-01,9.99999e-01,9.99999e-01,7.65597e-01,9.81164e-01,9.99269e-01
9.865456120e-01,8.29963e-01,9.99999e-01,9.99999e-01,8.45706e-01,9.81532e-01,9.99847e-01
9.914783401e-01,8.85043e-01,9.99999e-01,9.99999e-01,9.01400e-01,9.81894e-01,9.99957e-01
9.964357318e-01,9.28208e-01,9.99999e-01,9.99999e-01,9.45006e-01,9.82248e-01,9.99974e-01
1.001417910e+00,9.49778e-01,9.99999e-01,9.99999e-01,9.66637e-01,9.82596e-01,9.99961e-01
1.006425000e+00,9.64090e-01,9.99999e-01,9.99999e-01,9.80878e-01,9.82937e-01,9.99945e-01
1.011457125e+00,9.71479e-01,9.99999e-01,9.99999e-01,9.88056e-01,9.83271e-01,9.99949e-01
1.016514411e+00,9.75588e-01,9.99999e-01,9.99999e-01,9.91889e-01,9.83598e-01,9.99964e-01
1.021596983e+00,9.77527e-01,9.99999e-01,9.99999e-01,9.93537e-01,9.83920e-01,9.99964e-01
1.026704968e+00,9.79251e-01,9.99999e-01,9.99999e-01,9.94959e-01,9.84235e-01,9.99975e-01
1.031838492e+00,9.80921e-01,9.99999e-01,9.99999e-01,9.96326e-01,9.84544e-01,9.99993e-01
1.036997685e+00,9.82701e-01,9.99999e-01,9.99999e-01,9.97821e-01,9.84847e-01,9.99998e-01
1.042182673e+00,9.82595e-01,9.99999e-01,9.99999e-01,9.97412e-01,9.85144e-01,9.99999e-01
1.047393587e+00,9.82049e-01,9.99999e-01,9.99999e-01,9.96563e-01,9.85435e-01,9.99998e-01
1.052630555e+00,9.81081e-01,9.99999e-01,9.99999e-01,9.95293e-01,9.85721e-01,9.99998e-01
1.057893707e+00,9.78275e-01,9.99999e-01,9.99999e-01,9.92167e-01,9.86001e-01,9.99996e-01
1.063183176e+00,9.73575e-01,9.99999e-01,9.99999e-01,9.87129e-01,9.86275e-01,9.99992e-01
1.068499092e+00,9.65336e-01,9.99999e-01,9.99999e-01,9.78516e-01,9.86545e-01,9.99984e-01
1.073841587e+00,9.62090e-01,9.99999e-01,9.99999e-01,9.74981e-01,9.86809e-01,9.99967e-01
1.079210795e+00,9.55316e-01,9.99999e-01,9.99999e-01,9.67916e-01,9.87067e-01,9.99912e-01
1.084606849e+00,9.39703e-01,9.99999e-01,9.99999e-01,9.51968e-01,9.87321e-01,9.99790e-01
1.090029883e+00,9.20295e-01,9.99999e-01,9.99999e-01,9.32280e-01,9.87570e-01,9.99566e-01
1.095480033e+00,8.15233e-01,9.99999e-01,9.99999e-01,8.25936e-01,9.87814e-01,9.99216e-01
1.100957433e+00,6.10850e-01,9.99999e-01,9.99999e-01,6.19127e-01,9.88053e-01,9.98558e-01
1.106462220e+00,3.07495e-01,9.99999e-01,9.99999e-01,3.11900e-01,9.88288e-01,9.97556e-01
1.111994531e+00,8.97693e-02,9.99999e-01,9.99999e-01,9.14034e-02,9.88518e-01,9.93527e-01
1.117554504e+00,2.33050e-02,9.99999e-01,9.99999e-01,2.41293e-02,9.88743e-01,9.76830e-01
1.123142276e+00,7.32710e-02,9.99999e-01,9.99999e-01,7.83238e-02,9.88964e-01,9.45925e-01
1.128757988e+00,1.55575e-01,9.99999e-01,9.99999e-01,1.67723e-01,9.89181e-01,9.37713e-01
1.134401778e+00,6.80576e-02,9.99999e-01,9.99999e-01,7.27474e-02,9.89394e-01,9.45560e-01
1.140073787e+00,3.09139e-01,9.99999e-01,9.99999e-01,3.26717e-01,9.89602e-01,9.56136e-01
1.145774156e+00,1.09175e-01,9.99999e-01,9.99999e-01,1.14799e-01,9.89807e-01,9.60795e-01
1.151503026e+00,8.85901e-02,9.99999e-01,9.99999e-01,9.15003e-02,9.90007e-01,9.77966e-01
1.157260541e+00,1.13359e-01,9.99999e-01,9.99999e-01,1.15246e-01,9.90203e-01,9.93360e-01
1.163046844e+00,1.96115e-01,9.99999e-01,9.99999e-01,1.98391e-01,9.90396e-01,9.98113e-01
1.168862078e+00,3.09280e-01,9.99999e-01,9.99999e-01,3.12523e-01,9.90585e-01,9.99027e-01
1.174706389e+00,4.81480e-01,9.99999e-01,9.99999e-01,4.86592e-01,9.90770e-01,9.98711e-01
1.180579921e+00,6.35612e-01,9.99999e-01,9.99999e-01,6.42668e-01,9.90951e-01,9.98051e-01
1.186482820e+00,7.69014e-01,9.99999e-01,9.99999e-01,7.77451e-01,9.91129e-01,9.98000e-01
1.192415234e+00,8.54270e-01,9.99999e-01,9.99999e-01,8.63056e-01,9.91304e-01,9.98502e-01
1.198377311e+00,8.74771e-01,9.99999e-01,9.99999e-01,8.83542e-01,9.91475e-01,9.98585e-01
1.204369197e+00,8.81166e-01,9.99999e-01,9.99999e-01,8.89730e-01,9.91642e-01,9.98719e-01
1.210391043e+00,8.86008e-01,9.99999e-01,9.99999e-01,8.94022e-01,9.91807e-01,9.99220e-01
1.216442998e+00,9.01181e-01,9.99999e-01,9.99999e-01,9.08910e-01,9.91968e-01,9.99522e-01
1.222525213e+00,9.20681e-01,9.99999e-01,9.99999e-01,9.28262e-01,9.92126e-01,9.99703e-01
1.228637839e+00,9.42178e-01,9.99999e-01,9.99999e-01,9.49638e-01,9.92281e-01,9.99861e-01
