#,Wave/freq,Total,N2,O2,H2O,Rayleigh,CIA
4.000000000e-01,8.20941e-01,9.99999e-01,9.99999e-01,9.99977e-01,8.20959e-01,9.99999e-01
4.020000000e-01,8.24156e-01,9.99999e-01,9.99999e-01,9.99985e-01,8.24168e-01,9.99999e-01
4.040100000e-01,8.27317e-01,9.99999e-01,9.99999e-01,9.99993e-01,8.27322e-01,9.99999e-01
4.060300500e-01,8.30424e-01,9.99999e-01,9.99999e-01,9.99998e-01,8.30425e-01,9.99999e-01
4.080602003e-01,8.33479e-01,9.99999e-01,9.99999e-01,9.99999e-01,8.33479e-01,9.99999e-01
4.101005013e-01,8.36483e-01,9.99999e-01,9.99999e-01,9.99999e-01,8.36483e-01,9.99999e-01
4.121510038e-01,8.39438e-01,9.99999e-01,9.99999e-01,9.99998e-01,8.39438e-01,9.99999e-01
4.142117588e-01,8.42340e-01,9.99999e-01,9.99999e-01,9.99993e-01,8.42345e-01,9.99999e-01
4.162828176e-01,8.45181e-01,9.99999e-01,9.99999e-01,9.99971e-01,8.45205e-01,9.99999e-01
4.183642317e-01,8.48003e-01,9.99999e-01,9.99999e-01,9.99983e-01,8.48017e-01,9.99999e-01
4.204560528e-01,8.50774e-01,9.99999e-01,9.99999e-01,9.99989e-01,8.50783e-01,9.99999e-01
4.225583331e-01,8.53500e-01,9.99999e-01,9.99999e-01,9.99995e-01,8.53503e-01,9.99999e-01
4.246711247e-01,8.56175e-01,9.99999e-01,9.99999e-01,9.99996e-01,8.56178e-01,9.99999e-01
4.267944804e-01,8.58804e-01,9.99999e-01,9.99999e-01,9.99995e-01,8.58808e-01,9.99999e-01
4.289284528e-01,8.61391e-01,9.99999e-01,9.99999e-01,9.99996e-01,8.61394e-01,9.99999e-01
4.310730950e-01,8.63935e-01,9.99999e-01,9.99999e-01,9.99998e-01,8.63936e-01,9.99999e-01
4.332284605e-01,8.66435e-01,9.99999e-01,9.99999e-01,9.99999e-01,8.66435e-01,9.99999e-01
4.353946028e-01,8.68892e-01,9.99999e-01,9.99999e-01,9.99999e-01,8.68892e-01,9.99999e-01
4.375715758e-01,8.71305e-01,9.99999e-01,9.99999e-01,9.99996e-01,8.71308e-01,9.99999e-01
4.397594337e-01,8.73661e-01,9.99999e-01,9.99999e-01,9.99975e-01,8.73682e-01,9.99999e-01
4.419582309e-01,8.75908e-01,9.99999e-01,9.99999e-01,9.99876e-01,8.76015e-01,9.99999e-01
4.441680220e-01,8.78225e-01,9.99999e-01,9.99999e-01,9.99903e-01,8.78309e-01,9.99999e-01
4.463888621e-01,8.80475e-01,9.99999e-01,9.99999e-01,9.99899e-01,8.80563e-01,9.99999e-01
4.486208064e-01,8.82723e-01,9.99999e-01,9.99999e-01,9.99937e-01,8.82778e-01,9.99999e-01
4.508639105e-01,8.84929e-01,9.99999e-01,9.99999e-01,9.99970e-01,8.84955e-01,9.99999e-01
4.531182300e-01,8.87084e-01,9.99999e-01,9.99999e-01,9.99988e-01,8.87094e-01,9.99999e-01
4.553838212e-01,8.89188e-01,9.99999e-01,9.99999e-01,9.99991e-01,8.89195e-01,9.99999e-01
4.576607403e-01,8.91257e-01,9.99999e-01,9.99999e-01,9.99995e-01,8.91260e-01,9.99999e-01
4.599490440e-01,8.93287e-01,9.99999e-01,9.99999e-01,9.99996e-01,8.93289e-01,9.99999e-01
4.622487892e-01,8.95282e-01,9.99999e-01,9.99999e-01,9.99999e-01,8.95283e-01,9.99999e-01
4.645600332e-01,8.97239e-01,9.99999e-01,9.99999e-01,9.99997e-01,8.97241e-01,9.99999e-01
4.668828333e-01,8.99138e-01,9.99999e-01,9.99999e-01,9.99970e-01,8.99165e-01,9.99999e-01
4.692172475e-01,9.00998e-01,9.99999e-01,9.99999e-01,9.99936e-01,9.01054e-01,9.99999e-01
4.715633337e-01,9.02874e-01,9.99999e-01,9.99999e-01,9.99958e-01,9.02911e-01,9.99999e-01
4.739211504e-01,9.04699e-01,9.99999e-01,9.99999e-01,9.99960e-01,9.04734e-01,9.99999e-01
4.762907561e-01,9.06506e-01,9.99999e-01,9.99999e-01,9.99979e-01,9.06525e-01,9.99999e-01
4.786722099e-01,9.08276e-01,9.99999e-01,9.99999e-01,9.99991e-01,9.08284e-01,9.99999e-01
4.810655710e-01,9.10009e-01,9.99999e-01,9.99999e-01,9.99997e-01,9.10011e-01,9.99999e-01
4.834708988e-01,9.11686e-01,9.99999e-01,9.99999e-01,9.99975e-01,9.11708e-01,9.99999e-01
4.858882533e-01,9.13333e-01,9.99999e-01,9.99999e-01,9.99955e-01,9.13374e-01,9.99999e-01
4.883176946e-01,9.14976e-01,9.99999e-01,9.99999e-01,9.99962e-01,9.15010e-01,9.99999e-01
4.907592831e-01,9.16586e-01,9.99999e-01,9.99999e-01,9.99965e-01,9.16617e-01,9.99999e-01
4.932130795e-01,9.18173e-01,9.99999e-01,9.99999e-01,9.99975e-01,9.18195e-01,9.99999e-01
4.956791449e-01,9.19732e-01,9.99999e-01,9.99999e-01,9.99986e-01,9.19744e-01,9.99999e-01
4.981575406e-01,9.21207e-01,9.99999e-01,9.99999e-01,9.99936e-01,9.21265e-01,9.99999e-01
5.006483283e-01,9.22607e-01,9.99999e-01,9.99999e-01,9.99836e-01,9.22758e-01,9.99998e-01
5.031515699e-01,9.23452e-01,9.99999e-01,9.99999e-01,9.99172e-01,9.24225e-01,9.99990e-01
5.056673278e-01,9.25251e-01,9.99999e-01,9.99999e-01,9.99562e-01,9.25664e-01,9.99989e-01
5.081956644e-01,9.26561e-01,9.99999e-01,9.99999e-01,9.99448e-01,9.27078e-01,9.99993e-01
5.107366428e-01,9.28119e-01,9.99999e-01,9.99999e-01,9.99627e-01,9.28465e-01,9.99998e-01
5.132903260e-01,9.29630e-01,9.99999e-01,9.99999e-01,9.99786e-01,9.29827e-01,9.99999e-01
5.158567776e-01,9.31081e-01,9.99999e-01,9.99999e-01,9.99909e-01,9.31165e-01,9.99999e-01
5.184360615e-01,9.32444e-01,9.99999e-01,9.99999e-01,9.99963e-01,9.32477e-01,9.99999e-01
5.210282418e-01,9.33753e-01,9.99999e-01,9.99999e-01,9.99986e-01,9.33766e-01,9.99999e-01
5.236333830e-01,9.34980e-01,9.99999e-01,9.99999e-01,9.99945e-01,9.35031e-01,9.99999e-01
5.262515499e-01,9.36240e-01,9.99999e-01,9.99999e-01,9.99965e-01,9.36272e-01,9.99998e-01
5.288828077e-01,9.37461e-01,9.99999e-01,9.99999e-01,9.99968e-01,9.37491e-01,9.99999e-01
5.315272217e-01,9.38661e-01,9.99999e-01,9.99999e-01,9.99972e-01,9.38687e-01,9.99999e-01
5.341848578e-01,9.39844e-01,9.99999e-01,9.99999e-01,9.99981e-01,9.39861e-01,9.99999e-01
5.368557821e-01,9.40954e-01,9.99999e-01,9.99999e-01,9.99936e-01,9.41013e-01,9.99999e-01
5.395400610e-01,9.41929e-01,9.99999e-01,9.99999e-01,9.99773e-01,9.42144e-01,9.99997e-01
5.422377613e-01,9.42972e-01,9.99999e-01,9.99999e-01,9.99706e-01,9.43253e-01,9.99994e-01
5.449489501e-01,9.44080e-01,9.99999e-01,9.99999e-01,9.99727e-01,9.44342e-01,9.99994e-01
5.476736949e-01,9.45181e-01,9.99999e-01,9.99999e-01,9.99758e-01,9.45411e-01,9.99996e-01
5.504120634e-01,9.46294e-01,9.99999e-01,9.99999e-01,9.99824e-01,9.46460e-01,9.99998e-01
5.531641237e-01,9.47406e-01,9.99999e-01,9.99999e-01,9.99911e-01,9.47489e-01,9.99999e-01
5.559299443e-01,9.48459e-01,9.99999e-01,9.99999e-01,9.99956e-01,9.48499e-01,9.99999e-01
5.587095940e-01,9.49465e-01,9.99999e-01,9.99999e-01,9.99972e-01,9.49490e-01,9.99999e-01
5.615031420e-01,9.50435e-01,9.99999e-01,9.99999e-01,9.99969e-01,9.50463e-01,9.99999e-01
5.643106577e-01,9.51385e-01,9.99999e-01,9.99999e-01,9.99965e-01,9.51417e-01,9.99999e-01
5.671322110e-01,9.51961e-01,9.99999e-01,9.99999e-01,9.99591e-01,9.52354e-01,9.99995e-01
5.699678720e-01,9.52847e-01,9.99999e-01,9.99999e-01,9.99563e-01,9.53272e-01,9.99988e-01
5.728177114e-01,9.53733e-01,9.99999e-01,9.99999e-01,9.99546e-01,9.54174e-01,9.99990e-01
5.756818000e-01,9.54656e-01,9.99999e-01,9.99999e-01,9.99583e-01,9.55058e-01,9.99993e-01
5.785602090e-01,9.55578e-01,9.99999e-01,9.99999e-01,9.99636e-01,9.55926e-01,9.99997e-01
5.814530100e-01,9.56429e-01,9.99999e-01,9.99999e-01,9.99635e-01,9.56778e-01,9.99998e-01
5.843602750e-01,9.57195e-01,9.99999e-01,9.99999e-01,9.99565e-01,9.57613e-01,9.99997e-01
5.872820764e-01,9.54826e-01,9.99999e-01,9.99999e-01,9.96263e-01,9.58433e-01,9.99973e-01
5.902184868e-01,9.54823e-01,9.99999e-01,9.99999e-01,9.95469e-01,9.59237e-01,9.99927e-01
5.931695792e-01,9.56887e-01,9.99999e-01,9.99999e-01,9.96798e-01,9.60026e-01,9.99930e-01
5.961354271e-01,9.57390e-01,9.99999e-01,9.99999e-01,9.96490e-01,9.60799e-01,9.99959e-01
5.991161043e-01,9.59086e-01,9.99999e-01,9.99999e-01,9.97439e-01,9.61559e-01,9.99987e-01
6.021116848e-01,9.60904e-01,9.99999e-01,9.99999e-01,9.98546e-01,9.62303e-01,9.99998e-01
6.051222432e-01,9.62326e-01,9.99999e-01,9.99999e-01,9.99264e-01,9.63034e-01,9.99999e-01
6.081478544e-01,9.63445e-01,9.99999e-01,9.99999e-01,9.99682e-01,9.63751e-01,9.99999e-01
6.111885937e-01,9.64325e-01,9.99999e-01,9.99999e-01,9.99865e-01,9.64454e-01,9.99999e-01
6.142445367e-01,9.65086e-01,9.99999e-01,9.99999e-01,9.99939e-01,9.65144e-01,9.99999e-01
6.173157594e-01,9.65788e-01,9.99999e-01,9.99999e-01,9.99966e-01,9.65820e-01,9.99999e-01
6.204023382e-01,9.66457e-01,9.99999e-01,9.99999e-01,9.99971e-01,9.66484e-01,9.99999e-01
6.235043498e-01,9.67016e-01,9.99999e-01,9.99999e-01,9.99876e-01,9.67135e-01,9.99999e-01
6.266218716e-01,9.67138e-01,9.99999e-01,9.99999e-01,9.99347e-01,9.67773e-01,9.99994e-01
6.297549810e-01,9.68159e-01,9.99999e-01,9.99999e-01,9.99760e-01,9.68400e-01,9.99990e-01
6.329037559e-01,9.68549e-01,9.99999e-01,9.99999e-01,9.99526e-01,9.69014e-01,9.99992e-01
6.360682746e-01,9.69223e-01,9.99999e-01,9.99999e-01,9.99597e-01,9.69617e-01,9.99995e-01
6.392486160e-01,9.69700e-01,9.99999e-01,9.99999e-01,9.99478e-01,9.70208e-01,9.99997e-01
6.424448591e-01,9.70108e-01,9.99999e-01,9.99999e-01,9.99302e-01,9.70788e-01,9.99996e-01
6.456570834e-01,9.68195e-01,9.99999e-01,9.99999e-01,9.96762e-01,9.71356e-01,9.99981e-01
6.488853688e-01,9.69559e-01,9.99999e-01,9.99999e-01,9.97626e-01,9.71914e-01,9.99949e-01
6.521297956e-01,9.70068e-01,9.99999e-01,9.99999e-01,9.97580e-01,9.72461e-01,9.99958e-01
6.553904446e-01,9.70627e-01,9.99999e-01,9.99999e-01,9.97593e-01,9.72998e-01,9.99968e-01
6.586673968e-01,9.71506e-01,9.99999e-01,9.99999e-01,9.97937e-01,9.73524e-01,9.99989e-01
6.619607338e-01,9.72877e-01,9.99999e-01,9.99999e-01,9.98807e-01,9.74040e-01,9.99997e-01
6.652705375e-01,9.73873e-01,9.99999e-01,9.99999e-01,9.99309e-01,9.74546e-01,9.99998e-01
6.685968902e-01,9.74730e-01,9.99999e-01,9.99999e-01,9.99678e-01,9.75043e-01,9.99999e-01
6.719398746e-01,9.75385e-01,9.99999e-01,9.99999e-01,9.99851e-01,9.75529e-01,9.99999e-01
6.752995740e-01,9.75928e-01,9.99999e-01,9.99999e-01,9.99919e-01,9.76007e-01,9.99999e-01
6.786760719e-01,9.76362e-01,9.99999e-01,9.99999e-01,9.99883e-01,9.76475e-01,9.99999e-01
6.820694522e-01,9.76739e-01,9.99999e-01,9.99999e-01,9.99800e-01,9.76934e-01,9.99998e-01
6.854797995e-01,9.77132e-01,9.99999e-01,9.99999e-01,9.99743e-01,9.77385e-01,9.99997e-01
6.889071985e-01,9.77215e-01,9.99999e-01,9.99999e-01,9.99379e-01,9.77827e-01,9.99993e-01
6.923517345e-01,9.68327e-01,9.99999e-01,9.99999e-01,9.89894e-01,9.78260e-01,9.99950e-01
6.958134932e-01,9.73417e-01,9.99999e-01,9.99999e-01,9.94724e-01,9.78685e-01,9.99891e-01
6.992925606e-01,9.74109e-01,9.99999e-01,9.99999e-01,9.94996e-01,9.79101e-01,9.99902e-01
7.027890234e-01,9.73385e-01,9.99999e-01,9.99999e-01,9.93820e-01,9.79510e-01,9.99925e-01
7.063029686e-01,9.74783e-01,9.99999e-01,9.99999e-01,9.94803e-01,9.79910e-01,9.99962e-01
7.098344834e-01,9.75395e-01,9.99999e-01,9.99999e-01,9.95014e-01,9.80303e-01,9.99977e-01
7.133836558e-01,9.74141e-01,9.99999e-01,9.99999e-01,9.93366e-01,9.80688e-01,9.99956e-01
7.169505741e-01,9.29490e-01,9.99999e-01,9.99999e-01,9.47750e-01,9.81066e-01,9.99658e-01
7.205353270e-01,9.55397e-01,9.99999e-01,9.99999e-01,9.74053e-01,9.81437e-01,9.99398e-01
7.241380036e-01,9.49106e-01,9.99999e-01,9.99999e-01,9.67201e-01,9.81800e-01,9.99480e-01
7.277586936e-01,9.52635e-01,9.99999e-01,9.99999e-01,9.70353e-01,9.82156e-01,9.99575e-01
7.313974871e-01,9.51359e-01,9.99999e-01,9.99999e-01,9.68490e-01,9.82506e-01,9.99800e-01
7.350544745e-01,9.65756e-01,9.99999e-01,9.99999e-01,9.82676e-01,9.82848e-01,9.99930e-01
7.387297469e-01,9.70595e-01,9.99999e-01,9.99999e-01,9.87226e-01,9.83184e-01,9.99967e-01
7.424233956e-01,9.77343e-01,9.99999e-01,9.99999e-01,9.93731e-01,9.83513e-01,9.99993e-01
7.461355126e-01,9.80095e-01,9.99999e-01,9.99999e-01,9.96198e-01,9.83836e-01,9.99998e-01
7.498661902e-01,9.82409e-01,9.99999e-01,9.99999e-01,9.98228e-01,9.84153e-01,9.99999e-01
7.536155211e-01,9.83608e-01,9.99999e-01,9.99999e-01,9.99130e-01,9.84464e-01,9.99999e-01
7.573835987e-01,9.84328e-01,9.99999e-01,9.99999e-01,9.99552e-01,9.84768e-01,9.99999e-01
7.611705167e-01,9.84793e-01,9.99999e-01,9.99999e-01,9.99721e-01,9.85067e-01,9.99999e-01
7.649763693e-01,9.85188e-01,9.99999e-01,9.99999e-01,9.99825e-01,9.85360e-01,9.99999e-01
7.688012511e-01,9.85527e-01,9.99999e-01,9.99999e-01,9.99878e-01,9.85647e-01,9.99999e-01
7.726452574e-01,9.85830e-01,9.99999e-01,9.99999e-01,9.99899e-01,9.85928e-01,9.99999e-01
7.765084837e-01,9.86064e-01,9.99999e-01,9.99999e-01,9.99857e-01,9.86204e-01,9.99999e-01
7.803910261e-01,9.85870e-01,9.99999e-01,9.99999e-01,9.99387e-01,9.86475e-01,9.99998e-01
7.842929812e-01,9.84628e-01,9.99999e-01,9.99999e-01,9.97863e-01,9.86740e-01,9.99995e-01
7.882144461e-01,9.82629e-01,9.99999e-01,9.99999e-01,9.95597e-01,9.87000e-01,9.99972e-01
7.921555184e-01,9.84818e-01,9.99999e-01,9.99999e-01,9.97583e-01,9.87255e-01,9.99947e-01
7.961162960e-01,9.83246e-01,9.99999e-01,9.99999e-01,9.95735e-01,9.87506e-01,9.99949e-01
8.000968774e-01,9.82832e-01,9.99999e-01,9.99999e-01,9.95072e-01,9.87751e-01,9.99946e-01
8.040973618e-01,9.83082e-01,9.99999e-01,9.99999e-01,9.95072e-01,9.87991e-01,9.99957e-01
8.081178486e-01,9.77245e-01,9.99999e-01,9.99999e-01,9.88925e-01,9.88227e-01,9.99959e-01
8.121584379e-01,9.43421e-01,9.99999e-01,9.99999e-01,9.54584e-01,9.88458e-01,9.99844e-01
8.162192301e-01,9.34995e-01,9.99999e-01,9.99999e-01,9.46248e-01,9.88685e-01,9.99414e-01
8.203003262e-01,9.61448e-01,9.99999e-01,9.99999e-01,9.72898e-01,9.88907e-01,9.99314e-01
8.244018279e-01,9.51236e-01,9.99999e-01,9.99999e-01,9.62218e-01,9.89125e-01,9.99454e-01
8.285238370e-01,9.56881e-01,9.99999e-01,9.99999e-01,9.67606e-01,9.89339e-01,9.99571e-01
8.326664562e-01,9.56965e-01,9.99999e-01,9.99999e-01,9.67243e-01,9.89548e-01,9.99822e-01
8.368297885e-01,9.66457e-01,9.99999e-01,9.99999e-01,9.76500e-01,9.89754e-01,9.99959e-01
8.410139374e-01,9.76050e-01,9.99999e-01,9.99999e-01,9.85976e-01,9.89955e-01,9.99975e-01
8.452190071e-01,9.83308e-01,9.99999e-01,9.99999e-01,9.93101e-01,9.90152e-01,9.99985e-01
8.494451021e-01,9.86369e-01,9.99999e-01,9.99999e-01,9.95994e-01,9.90346e-01,9.99988e-01
8.536923276e-01,9.88181e-01,9.99999e-01,9.99999e-01,9.97629e-01,9.90536e-01,9.99992e-01
8.579607893e-01,9.89274e-01,9.99999e-01,9.99999e-01,9.98539e-01,9.90722e-01,9.99997e-01
8.622505932e-01,9.89985e-01,9.99999e-01,9.99999e-01,9.99072e-01,9.90904e-01,9.99999e-01
8.665618462e-01,9.90514e-01,9.99999e-01,9.99999e-01,9.99426e-01,9.91083e-01,9.99999e-01
8.708946554e-01,9.90607e-01,9.99999e-01,9.99999e-01,9.99343e-01,9.91258e-01,9.99999e-01
8.752491287e-01,9.90558e-01,9.99999e-01,9.99999e-01,9.99121e-01,9.91430e-01,9.99998e-01
8.796253743e-01,9.90390e-01,9.99999e-01,9.99999e-01,9.98783e-01,9.91599e-01,9.99996e-01
8.840235012e-01,9.90378e-01,9.99999e-01,9.99999e-01,9.98610e-01,9.91764e-01,9.99991e-01
8.884436187e-01,9.86888e-01,9.99999e-01,9.99999e-01,9.94944e-01,9.91926e-01,9.99975e-01
8.928858368e-01,9.40234e-01,9.99999e-01,9.99999e-01,9.47866e-01,9.92085e-01,9.99860e-01
8.973502660e-01,9.01816e-01,9.99999e-01,9.99999e-01,9.09514e-01,9.92241e-01,9.99288e-01
9.018370173e-01,9.44406e-01,9.99999e-01,9.99999e-01,9.52709e-01,9.92393e-01,9.98881e-01
9.063462024e-01,9.50251e-01,9.99999e-01,9.99999e-01,9.58330e-01,9.92543e-01,9.99017e-01
9.108779334e-01,9.27955e-01,9.99999e-01,9.99999e-01,9.35742e-01,9.92690e-01,9.98979e-01
9.154323231e-01,9.19896e-01,9.99999e-01,9.99999e-01,9.27317e-01,9.92833e-01,9.99155e-01
9.200094847e-01,9.35537e-01,9.99999e-01,9.99999e-01,9.42601e-01,9.92974e-01,9.99527e-01
9.246095321e-01,9.05166e-01,9.99999e-01,9.99999e-01,9.11938e-01,9.93113e-01,9.99455e-01
9.292325798e-01,5.36167e-01,9.99999e-01,9.99999e-01,5.40958e-01,9.93248e-01,9.97879e-01
9.338787427e-01,4.45859e-01,9.99999e-01,9.99999e-01,4.52784e-01,9.93381e-01,9.91263e-01
9.385481364e-01,7.13928e-01,9.99999e-01,9.99999e-01,7.26128e-01,9.93512e-01,9.89618e-01
9.432408771e-01,6.32386e-01,9.99999e-01,9.99999e-01,6.42190e-01,9.93639e-01,9.91036e-01
9.479570815e-01,5.36780e-01,9.99999e-01,9.99999e-01,5.44120e-01,9.93764e-01,9.92698e-01
9.526968669e-01,6.25300e-01,9.99999e-01,9.99999e-01,6.31963e-01,9.93887e-01,9.95540e-01
9.574603512e-01,6.48726e-01,9.99999e-01,9.99999e-01,6.54119e-01,9.94008e-01,9.97731e-01
9.622476530e-01,7.02184e-01,9.99999e-01,9.99999e-01,7.07442e-01,9.94126e-01,9.98430e-01
9.670588912e-01,8.13476e-01,9.99999e-01,9.99999e-01,8.19066e-01,9.94241e-01,9.98926e-01
9.718941857e-01,8.76855e-01,9.99999e-01,9.99999e-01,8.82530e-01,9.94355e-01,9.99209e-01
9.767536566e-01,8.95935e-01,9.99999e-01,9.99999e-01,9.01464e-01,9.94466e-01,9.99395e-01
9.816374249e-01,9.20765e-01,9.99999e-01,9.99999e-01,9.25980e-01,9.94575e-01,9.99790e-01
9.865456120e-01,9.47981e-01,9.99999e-01,9.99999e-01,9.53090e-01,9.94682e-01,9.99955e-01
9.914783401e-01,9.65672e-01,9.99999e-01,9.99999e-01,9.70744e-01,9.94786e-01,9.99987e-01
9.964357318e-01,9.78928e-01,9.99999e-01,9.99999e-01,9.83963e-01,9.94889e-01,9.99992e-01
1.001417910e+00,9.85387e-01,9.99999e-01,9.99999e-01,9.90359e-01,9.94990e-01,9.99988e-01
1.006425000e+00,9.89596e-01,9.99999e-01,9.99999e-01,9.94495e-01,9.95089e-01,9.99984e-01
1.011457125e+00,9.91768e-01,9.99999e-01,9.99999e-01,9.96579e-01,9.95185e-01,9.99985e-01
1.016514411e+00,9.92959e-01,9.99999e-01,9.99999e-01,9.97677e-01,9.95280e-01,9.99989e-01
1.021596983e+00,9.93521e-01,9.99999e-01,9.99999e-01,9.98148e-01,9.95373e-01,9.99989e-01
1.026704968e+00,9.94021e-01,9.99999e-01,9.99999e-01,9.98556e-01,9.95464e-01,9.99992e-01
1.031838492e+00,9.94507e-01,9.99999e-01,9.99999e-01,9.98950e-01,9.95554e-01,9.99997e-01
1.036997685e+00,9.95021e-01,9.99999e-01,9.99999e-01,9.99376e-01,9.95641e-01,9.99999e-01
1.042182673e+00,9.94988e-01,9.99999e-01,9.99999e-01,9.99256e-01,9.95727e-01,9.99999e-01
1.047393587e+00,9.94830e-01,9.99999e-01,9.99999e-01,9.99014e-01,9.95811e-01,9.99999e-01
1.052630555e+00,9.94548e-01,9.99999e-01,9.99999e-01,9.98647e-01,9.95894e-01,9.99999e-01
1.057893707e+00,9.93727e-01,9.99999e-01,9.99999e-01,9.97743e-01,9.95975e-01,9.99998e-01
1.063183176e+00,9.92356e-01,9.99999e-01,9.99999e-01,9.96288e-01,9.96054e-01,9.99997e-01
1.068499092e+00,9.89943e-01,9.99999e-01,9.99999e-01,9.93790e-01,9.96132e-01,9.99995e-01
1.073841587e+00,9.88964e-01,9.99999e-01,9.99999e-01,9.92736e-01,9.96208e-01,9.99990e-01
1.079210795e+00,9.86992e-01,9.99999e-01,9.99999e-01,9.90698e-01,9.96283e-01,9.99974e-01
1.084606849e+00,9.82301e-01,9.99999e-01,9.99999e-01,9.85951e-01,9.96356e-01,9.99939e-01
1.090029883e+00,9.76268e-01,9.99999e-01,9.99999e-01,9.79888e-01,9.96428e-01,9.99875e-01
1.095480033e+00,9.42607e-01,9.99999e-01,9.99999e-01,9.46130e-01,9.96498e-01,9.99775e-01
1.100957433e+00,8.65452e-01,9.99999e-01,9.99999e-01,8.68790e-01,9.96567e-01,9.99586e-01
1.106462220e+00,6.97575e-01,9.99999e-01,9.99999e-01,7.00420e-01,9.96635e-01,9.99299e-01
1.111994531e+00,4.71761e-01,9.99999e-01,9.99999e-01,4.74202e-01,9.96701e-01,9.98143e-01
1.117554504e+00,2.97639e-01,9.99999e-01,9.99999e-01,3.00614e-01,9.96767e-01,9.93313e-01
1.123142276e+00,4.09610e-01,9.99999e-01,9.99999e-01,4.17501e-01,9.96830e-01,9.84216e-01
1.128757988e+00,5.55937e-01,9.99999e-01,9.99999e-01,5.68027e-01,9.96893e-01,9.81763e-01
1.134401778e+00,3.05838e-01,9.99999e-01,9.99999e-01,3.11611e-01,9.96954e-01,9.84472e-01
1.140073787e+00,7.00891e-01,9.99999e-01,9.99999e-01,7.11834e-01,9.97014e-01,9.87573e-01
1.145774156e+00,4.87882e-01,9.99999e-01,9.99999e-01,4.94946e-01,9.97073e-01,9.88619e-01
1.151503026e+00,4.53778e-01,9.99999e-01,9.99999e-01,4.57994e-01,9.97131e-01,9.93643e-01
1.157260541e+00,5.15045e-01,9.99999e-01,9.99999e-01,5.17483e-01,9.97187e-01,9.98094e-01
1.163046844e+00,6.11912e-01,9.99999e-01,9.99999e-01,6.13935e-01,9.97243e-01,9.99459e-01
1.168862078e+00,7.09561e-01,9.99999e-01,9.99999e-01,7.11682e-01,9.97297e-01,9.99721e-01
1.174706389e+00,8.08194e-01,9.99999e-01,9.99999e-01,8.10639e-01,9.97350e-01,9.99630e-01
1.180579921e+00,8.77160e-01,9.99999e-01,9.99999e-01,8.79934e-01,9.97403e-01,9.99441e-01
1.186482820e+00,9.27353e-01,9.99999e-01,9.99999e-01,9.30252e-01,9.97454e-01,9.99427e-01
1.192415234e+00,9.55889e-01,9.99999e-01,9.99999e-01,9.58691e-01,9.97504e-01,9.99570e-01
1.198377311e+00,9.62325e-01,9.99999e-01,9.99999e-01,9.65075e-01,9.97553e-01,9.99594e-01
1.204369197e+00,9.64251e-01,9.99999e-01,9.99999e-01,9.66923e-01,9.97602e-01,9.99633e-01
1.210391043e+00,9.65852e-01,9.99999e-01,9.99999e-01,9.68343e-01,9.97649e-01,9.99776e-01
1.216442998e+00,9.70627e-01,9.99999e-01,9.99999e-01,9.73001e-01,9.97695e-01,9.99862e-01
1.222525213e+00,9.76627e-01,9.99999e-01,9.99999e-01,9.78921e-01,9.97741e-01,9.99914e-01
1.228637839e+00,9.83098e-01,9.99999e-01,9.99999e-01,9.85318e-01,9.97785e-01,9.99960e-01
