#,Wave/freq,Total,N2,O2,H2O,Rayleigh,CIA
4.000000000e-01,4.14344e-01,9.99999e-01,9.99999e-01,9.99900e-01,4.14385e-01,9.99999e-01
4.020000000e-01,4.21640e-01,9.99999e-01,9.99999e-01,9.99937e-01,4.21666e-01,9.99999e-01
4.040100000e-01,4.28909e-01,9.99999e-01,9.99999e-01,9.99973e-01,4.28920e-01,9.99999e-01
4.060300500e-01,4.36150e-01,9.99999e-01,9.99999e-01,9.99993e-01,4.36152e-01,9.99999e-01
4.080602003e-01,4.43359e-01,9.99999e-01,9.99999e-01,9.99997e-01,4.43360e-01,9.99999e-01
4.101005013e-01,4.50540e-01,9.99999e-01,9.99999e-01,9.99999e-01,4.50540e-01,9.99999e-01
4.121510038e-01,4.57690e-01,9.99999e-01,9.99999e-01,9.99995e-01,4.57692e-01,9.99999e-01
4.142117588e-01,4.64800e-01,9.99999e-01,9.99999e-01,9.99972e-01,4.64813e-01,9.99999e-01
4.162828176e-01,4.71842e-01,9.99999e-01,9.99999e-01,9.99876e-01,4.71900e-01,9.99999e-01
4.183642317e-01,4.78917e-01,9.99999e-01,9.99999e-01,9.99926e-01,4.78952e-01,9.99999e-01
4.204560528e-01,4.85946e-01,9.99999e-01,9.99999e-01,9.99954e-01,4.85967e-01,9.99999e-01
4.225583331e-01,4.92936e-01,9.99999e-01,9.99999e-01,9.99982e-01,4.92944e-01,9.99999e-01
4.246711247e-01,4.99873e-01,9.99999e-01,9.99999e-01,9.99986e-01,4.99880e-01,9.99999e-01
4.267944804e-01,5.06763e-01,9.99999e-01,9.99999e-01,9.99979e-01,5.06773e-01,9.99999e-01
4.289284528e-01,5.13615e-01,9.99999e-01,9.99999e-01,9.99984e-01,5.13623e-01,9.99999e-01
4.310730950e-01,5.20424e-01,9.99999e-01,9.99999e-01,9.99993e-01,5.20427e-01,9.99999e-01
4.332284605e-01,5.27183e-01,9.99999e-01,9.99999e-01,9.99997e-01,5.27184e-01,9.99999e-01
4.353946028e-01,5.33893e-01,9.99999e-01,9.99999e-01,9.99998e-01,5.33893e-01,9.99999e-01
4.375715758e-01,5.40546e-01,9.99999e-01,9.99999e-01,9.99987e-01,5.40552e-01,9.99999e-01
4.397594337e-01,5.47102e-01,9.99999e-01,9.99999e-01,9.99892e-01,5.47161e-01,9.99999e-01
4.419582309e-01,5.53416e-01,9.99999e-01,9.99999e-01,9.99457e-01,5.53717e-01,9.99999e-01
4.441680220e-01,5.59979e-01,9.99999e-01,9.99999e-01,9.99569e-01,5.60220e-01,9.99999e-01
4.463888621e-01,5.66416e-01,9.99999e-01,9.99999e-01,9.99553e-01,5.66668e-01,9.99999e-01
4.486208064e-01,5.72902e-01,9.99999e-01,9.99999e-01,9.99721e-01,5.73062e-01,9.99999e-01
4.508639105e-01,5.79323e-01,9.99999e-01,9.99999e-01,9.99869e-01,5.79399e-01,9.99999e-01
4.531182300e-01,5.85648e-01,9.99999e-01,9.99999e-01,9.99948e-01,5.85678e-01,9.99999e-01
4.553838212e-01,5.91880e-01,9.99999e-01,9.99999e-01,9.99964e-01,5.91900e-01,9.99999e-01
4.576607403e-01,5.98054e-01,9.99999e-01,9.99999e-01,9.99983e-01,5.98063e-01,9.99999e-01
4.599490440e-01,6.04160e-01,9.99999e-01,9.99999e-01,9.99988e-01,6.04167e-01,9.99999e-01
4.622487892e-01,6.10209e-01,9.99999e-01,9.99999e-01,9.99997e-01,6.10210e-01,9.99999e-01
4.645600332e-01,6.16188e-01,9.99999e-01,9.99999e-01,9.99991e-01,6.16193e-01,9.99999e-01
4.668828333e-01,6.22034e-01,9.99999e-01,9.99999e-01,9.99869e-01,6.22115e-01,9.99999e-01
4.692172475e-01,6.27799e-01,9.99999e-01,9.99999e-01,9.99719e-01,6.27975e-01,9.99999e-01
4.715633337e-01,6.33657e-01,9.99999e-01,9.99999e-01,9.99817e-01,6.33772e-01,9.99999e-01
4.739211504e-01,6.39395e-01,9.99999e-01,9.99999e-01,9.99824e-01,6.39507e-01,9.99999e-01
4.762907561e-01,6.45121e-01,9.99999e-01,9.99999e-01,9.99908e-01,6.45179e-01,9.99999e-01
4.786722099e-01,6.50764e-01,9.99999e-01,9.99999e-01,9.99962e-01,6.50788e-01,9.99999e-01
4.810655710e-01,6.56327e-01,9.99999e-01,9.99999e-01,9.99988e-01,6.56334e-01,9.99999e-01
4.834708988e-01,6.61746e-01,9.99999e-01,9.99999e-01,9.99894e-01,6.61816e-01,9.99999e-01
4.858882533e-01,6.67101e-01,9.99999e-01,9.99999e-01,9.99801e-01,6.67234e-01,9.99999e-01
4.883176946e-01,6.72477e-01,9.99999e-01,9.99999e-01,9.99834e-01,6.72588e-01,9.99999e-01
4.907592831e-01,6.77776e-01,9.99999e-01,9.99999e-01,9.99849e-01,6.77878e-01,9.99999e-01
4.932130795e-01,6.83031e-01,9.99999e-01,9.99999e-01,9.99893e-01,6.83103e-01,9.99999e-01
4.956791449e-01,6.88226e-01,9.99999e-01,9.99999e-01,9.99943e-01,6.88265e-01,9.99999e-01
4.981575406e-01,6.93168e-01,9.99999e-01,9.99999e-01,9.99719e-01,6.93363e-01,9.99999e-01
5.006483283e-01,6.97888e-01,9.99999e-01,9.99999e-01,9.99276e-01,6.98396e-01,9.99994e-01
5.031515699e-01,7.00749e-01,9.99999e-01,9.99999e-01,9.96318e-01,7.03366e-01,9.99960e-01
5.056673278e-01,7.06859e-01,9.99999e-01,9.99999e-01,9.98049e-01,7.08271e-01,9.99955e-01
5.081956644e-01,7.11339e-01,9.99999e-01,9.99999e-01,9.97539e-01,7.13113e-01,9.99970e-01
5.107366428e-01,7.16695e-01,9.99999e-01,9.99999e-01,9.98336e-01,7.17892e-01,9.99994e-01
5.132903260e-01,7.21919e-01,9.99999e-01,9.99999e-01,9.99047e-01,7.22607e-01,9.99998e-01
5.158567776e-01,7.26967e-01,9.99999e-01,9.99999e-01,9.99597e-01,7.27259e-01,9.99999e-01
5.184360615e-01,7.31731e-01,9.99999e-01,9.99999e-01,9.99838e-01,7.31849e-01,9.99999e-01
5.210282418e-01,7.36331e-01,9.99999e-01,9.99999e-01,9.99939e-01,7.36375e-01,9.99999e-01
5.236333830e-01,7.40661e-01,9.99999e-01,9.99999e-01,9.99759e-01,7.40840e-01,9.99997e-01
5.262515499e-01,7.45129e-01,9.99999e-01,9.99999e-01,9.99848e-01,7.45243e-01,9.99997e-01
5.288828077e-01,7.49479e-01,9.99999e-01,9.99999e-01,9.99861e-01,7.49584e-01,9.99997e-01
5.315272217e-01,7.53771e-01,9.99999e-01,9.99999e-01,9.99877e-01,7.53863e-01,9.99999e-01
5.341848578e-01,7.58023e-01,9.99999e-01,9.99999e-01,9.99920e-01,7.58082e-01,9.99999e-01
5.368557821e-01,7.62028e-01,9.99999e-01,9.99999e-01,9.99720e-01,7.62241e-01,9.99998e-01
5.395400610e-01,7.65565e-01,9.99999e-01,9.99999e-01,9.98996e-01,7.66340e-01,9.99991e-01
5.422377613e-01,7.69352e-01,9.99999e-01,9.99999e-01,9.98689e-01,7.70379e-01,9.99975e-01
5.449489501e-01,7.73402e-01,9.99999e-01,9.99999e-01,9.98788e-01,7.74359e-01,9.99974e-01
5.476736949e-01,7.77430e-01,9.99999e-01,9.99999e-01,9.98919e-01,7.78280e-01,9.99987e-01
5.504120634e-01,7.81528e-01,9.99999e-01,9.99999e-01,9.99216e-01,7.82143e-01,9.99996e-01
5.531641237e-01,7.85638e-01,9.99999e-01,9.99999e-01,9.99605e-01,7.85948e-01,9.99999e-01
5.559299443e-01,7.89546e-01,9.99999e-01,9.99999e-01,9.99809e-01,7.89696e-01,9.99999e-01
5.587095940e-01,7.93294e-01,9.99999e-01,9.99999e-01,9.99880e-01,7.93388e-01,9.99999e-01
5.615031420e-01,7.96918e-01,9.99999e-01,9.99999e-01,9.99867e-01,7.97023e-01,9.99999e-01
5.643106577e-01,8.00483e-01,9.99999e-01,9.99999e-01,9.99850e-01,8.00603e-01,9.99998e-01
5.671322110e-01,8.02669e-01,9.99999e-01,9.99999e-01,9.98201e-01,8.04128e-01,9.99983e-01
5.699678720e-01,8.05980e-01,9.99999e-01,9.99999e-01,9.98046e-01,8.07598e-01,9.99949e-01
5.728177114e-01,8.09344e-01,9.99999e-01,9.99999e-01,9.97981e-01,8.11014e-01,9.99958e-01
5.756818000e-01,8.12845e-01,9.99999e-01,9.99999e-01,9.98144e-01,8.14376e-01,9.99974e-01
5.785602090e-01,8.16355e-01,9.99999e-01,9.99999e-01,9.98379e-01,8.17686e-01,9.99991e-01
5.814530100e-01,8.19607e-01,9.99999e-01,9.99999e-01,9.98375e-01,8.20943e-01,9.99996e-01
5.843602750e-01,8.22555e-01,9.99999e-01,9.99999e-01,9.98076e-01,8.24149e-01,9.99988e-01
5.872820764e-01,8.13599e-01,9.99999e-01,9.99999e-01,9.83550e-01,8.27303e-01,9.99882e-01
5.902184868e-01,8.13475e-01,9.99999e-01,9.99999e-01,9.79922e-01,8.30407e-01,9.99680e-01
5.931695792e-01,8.21395e-01,9.99999e-01,9.99999e-01,9.85828e-01,8.33461e-01,9.99688e-01
5.961354271e-01,8.23291e-01,9.99999e-01,9.99999e-01,9.84434e-01,8.36465e-01,9.99811e-01
5.991161043e-01,8.29815e-01,9.99999e-01,9.99999e-01,9.88609e-01,8.39421e-01,9.99944e-01
6.021116848e-01,8.36861e-01,9.99999e-01,9.99999e-01,9.93515e-01,8.42328e-01,9.99992e-01
6.051222432e-01,8.42410e-01,9.99999e-01,9.99999e-01,9.96712e-01,8.45188e-01,9.99999e-01
6.081478544e-01,8.46798e-01,9.99999e-01,9.99999e-01,9.98581e-01,8.48000e-01,9.99999e-01
6.111885937e-01,8.50255e-01,9.99999e-01,9.99999e-01,9.99398e-01,8.50767e-01,9.99999e-01
6.142445367e-01,8.53258e-01,9.99999e-01,9.99999e-01,9.99731e-01,8.53487e-01,9.99999e-01
6.173157594e-01,8.56035e-01,9.99999e-01,9.99999e-01,9.99851e-01,8.56162e-01,9.99999e-01
6.204023382e-01,8.58685e-01,9.99999e-01,9.99999e-01,9.99875e-01,8.58792e-01,9.99999e-01
6.235043498e-01,8.60910e-01,9.99999e-01,9.99999e-01,9.99457e-01,8.61378e-01,9.99998e-01
6.266218716e-01,8.61393e-01,9.99999e-01,9.99999e-01,9.97094e-01,8.63921e-01,9.99979e-01
6.297549810e-01,8.65462e-01,9.99999e-01,9.99999e-01,9.98933e-01,8.66421e-01,9.99958e-01
6.329037559e-01,8.67015e-01,9.99999e-01,9.99999e-01,9.97888e-01,8.68878e-01,9.99966e-01
6.360682746e-01,8.69715e-01,9.99999e-01,9.99999e-01,9.98207e-01,8.71294e-01,9.99980e-01
6.392486160e-01,8.71628e-01,9.99999e-01,9.99999e-01,9.97673e-01,8.73668e-01,9.99990e-01
6.424448591e-01,8.73281e-01,9.99999e-01,9.99999e-01,9.96907e-01,8.76002e-01,9.99985e-01
6.456570834e-01,8.65685e-01,9.99999e-01,9.99999e-01,9.85720e-01,8.78295e-01,9.99919e-01
6.488853688e-01,8.69480e-01,9.99999e-01,9.99999e-01,9.87649e-01,8.80550e-01,9.99775e-01
6.521297956e-01,8.73112e-01,9.99999e-01,9.99999e-01,9.89251e-01,8.82765e-01,9.99811e-01
6.553904446e-01,8.75407e-01,9.99999e-01,9.99999e-01,9.89364e-01,8.84942e-01,9.99858e-01
6.586673968e-01,8.78894e-01,9.99999e-01,9.99999e-01,9.90816e-01,8.87081e-01,9.99953e-01
6.619607338e-01,8.84444e-01,9.99999e-01,9.99999e-01,9.94679e-01,8.89183e-01,9.99989e-01
6.652705375e-01,8.88491e-01,9.99999e-01,9.99999e-01,9.96910e-01,8.91248e-01,9.99994e-01
6.685968902e-01,8.91995e-01,9.99999e-01,9.99999e-01,9.98564e-01,8.93277e-01,9.99998e-01
6.719398746e-01,8.94675e-01,9.99999e-01,9.99999e-01,9.99333e-01,8.95271e-01,9.99999e-01
6.752995740e-01,8.96907e-01,9.99999e-01,9.99999e-01,9.99640e-01,8.97229e-01,9.99999e-01
6.786760719e-01,8.98688e-01,9.99999e-01,9.99999e-01,9.99483e-01,8.99153e-01,9.99998e-01
6.820694522e-01,9.00241e-01,9.99999e-01,9.99999e-01,9.99113e-01,9.01043e-01,9.99994e-01
6.854797995e-01,9.01860e-01,9.99999e-01,9.99999e-01,9.98857e-01,9.02900e-01,9.99989e-01
6.889071985e-01,9.02230e-01,9.99999e-01,9.99999e-01,9.97268e-01,9.04723e-01,9.99974e-01
6.923517345e-01,8.66472e-01,9.99999e-01,9.99999e-01,9.56034e-01,9.06514e-01,9.99782e-01
6.958134932e-01,8.86563e-01,9.99999e-01,9.99999e-01,9.76573e-01,9.08273e-01,9.99510e-01
6.992925606e-01,8.89593e-01,9.99999e-01,9.99999e-01,9.77994e-01,9.10001e-01,9.99569e-01
7.027890234e-01,8.86548e-01,9.99999e-01,9.99999e-01,9.72734e-01,9.11698e-01,9.99669e-01
7.063029686e-01,8.92231e-01,9.99999e-01,9.99999e-01,9.77021e-01,9.13364e-01,9.99835e-01
7.098344834e-01,8.94724e-01,9.99999e-01,9.99999e-01,9.77934e-01,9.15000e-01,9.99902e-01
7.133836558e-01,8.89905e-01,9.99999e-01,9.99999e-01,9.71055e-01,9.16607e-01,9.99806e-01
7.169505741e-01,7.26553e-01,9.99999e-01,9.99999e-01,7.92496e-01,9.18185e-01,9.98480e-01
7.205353270e-01,8.16674e-01,9.99999e-01,9.99999e-01,8.90329e-01,9.19735e-01,9.97320e-01
7.241380036e-01,7.93967e-01,9.99999e-01,9.99999e-01,8.63829e-01,9.21256e-01,9.97685e-01
7.277586936e-01,8.07014e-01,9.99999e-01,9.99999e-01,8.76233e-01,9.22750e-01,9.98107e-01
7.313974871e-01,8.01206e-01,9.99999e-01,9.99999e-01,8.67671e-01,9.24216e-01,9.99113e-01
7.350544745e-01,8.56220e-01,9.99999e-01,9.99999e-01,9.25271e-01,9.25656e-01,9.99691e-01
7.387297469e-01,8.75282e-01,9.99999e-01,9.99999e-01,9.44271e-01,9.27069e-01,9.99858e-01
7.424233956e-01,9.02670e-01,9.99999e-01,9.99999e-01,9.72252e-01,9.28457e-01,9.99972e-01
7.461355126e-01,9.14109e-01,9.99999e-01,9.99999e-01,9.83108e-01,9.29819e-01,9.99994e-01
7.498661902e-01,9.23785e-01,9.99999e-01,9.99999e-01,9.92083e-01,9.31157e-01,9.99997e-01
7.536155211e-01,9.28849e-01,9.99999e-01,9.99999e-01,9.96117e-01,9.32470e-01,9.99998e-01
7.573835987e-01,9.31890e-01,9.99999e-01,9.99999e-01,9.97998e-01,9.33758e-01,9.99999e-01
7.611705167e-01,9.33861e-01,9.99999e-01,9.99999e-01,9.98756e-01,9.35023e-01,9.99999e-01
7.649763693e-01,9.35536e-01,9.99999e-01,9.99999e-01,9.99221e-01,9.36265e-01,9.99999e-01
7.688012511e-01,9.36976e-01,9.99999e-01,9.99999e-01,9.99457e-01,9.37484e-01,9.99999e-01
7.726452574e-01,9.38262e-01,9.99999e-01,9.99999e-01,9.99554e-01,9.38680e-01,9.99999e-01
7.765084837e-01,9.39262e-01,9.99999e-01,9.99999e-01,9.99370e-01,9.39854e-01,9.99998e-01
7.803910261e-01,9.38449e-01,9.99999e-01,9.99999e-01,9.97285e-01,9.41006e-01,9.99996e-01
7.842929812e-01,9.33226e-01,9.99999e-01,9.99999e-01,9.90558e-01,9.42137e-01,9.99981e-01
7.882144461e-01,9.24756e-01,9.99999e-01,9.99999e-01,9.80514e-01,9.43247e-01,9.99879e-01
7.921555184e-01,9.33952e-01,9.99999e-01,9.99999e-01,9.89233e-01,9.44336e-01,9.99767e-01
7.961162960e-01,9.27433e-01,9.99999e-01,9.99999e-01,9.81207e-01,9.45405e-01,9.99776e-01
8.000968774e-01,9.25606e-01,9.99999e-01,9.99999e-01,9.78203e-01,9.46454e-01,9.99762e-01
8.040973618e-01,9.26681e-01,9.99999e-01,9.99999e-01,9.78228e-01,9.47483e-01,9.99811e-01
8.081178486e-01,9.02795e-01,9.99999e-01,9.99999e-01,9.51988e-01,9.48493e-01,9.99823e-01
8.121584379e-01,7.74275e-01,9.99999e-01,9.99999e-01,8.16035e-01,9.49485e-01,9.99305e-01
8.162192301e-01,7.43972e-01,9.99999e-01,9.99999e-01,7.84797e-01,9.50457e-01,9.97392e-01
8.203003262e-01,8.44455e-01,9.99999e-01,9.99999e-01,8.90297e-01,9.51412e-01,9.96947e-01
8.244018279e-01,8.07314e-01,9.99999e-01,9.99999e-01,8.49773e-01,9.52348e-01,9.97570e-01
8.285238370e-01,8.22983e-01,9.99999e-01,9.99999e-01,8.64979e-01,9.53267e-01,9.98091e-01
8.326664562e-01,8.23326e-01,9.99999e-01,9.99999e-01,8.63554e-01,9.54169e-01,9.99209e-01
8.368297885e-01,8.59046e-01,9.99999e-01,9.99999e-01,8.99636e-01,9.55053e-01,9.99819e-01
8.410139374e-01,8.97471e-01,9.99999e-01,9.99999e-01,9.38952e-01,9.55921e-01,9.99894e-01
8.452190071e-01,9.27549e-01,9.99999e-01,9.99999e-01,9.69516e-01,9.56773e-01,9.99936e-01
8.494451021e-01,9.40550e-01,9.99999e-01,9.99999e-01,9.82235e-01,9.57608e-01,9.99948e-01
8.536923276e-01,9.48268e-01,9.99999e-01,9.99999e-01,9.89432e-01,9.58428e-01,9.99966e-01
8.579607893e-01,9.52983e-01,9.99999e-01,9.99999e-01,9.93494e-01,9.59232e-01,9.99990e-01
8.622505932e-01,9.56041e-01,9.99999e-01,9.99999e-01,9.95855e-01,9.60021e-01,9.99998e-01
8.665618462e-01,9.58336e-01,9.99999e-01,9.99999e-01,9.97441e-01,9.60795e-01,9.99998e-01
8.708946554e-01,9.58741e-01,9.99999e-01,9.99999e-01,9.97075e-01,9.61554e-01,9.99997e-01
8.752491287e-01,9.58530e-01,9.99999e-01,9.99999e-01,9.96086e-01,9.62299e-01,9.99995e-01
8.796253743e-01,9.57816e-01,9.99999e-01,9.99999e-01,9.94597e-01,9.63030e-01,9.99987e-01
8.840235012e-01,9.57763e-01,9.99999e-01,9.99999e-01,9.93827e-01,9.63747e-01,9.99961e-01
8.884436187e-01,9.43205e-01,9.99999e-01,9.99999e-01,9.78076e-01,9.64450e-01,9.99892e-01
8.928858368e-01,7.64980e-01,9.99999e-01,9.99999e-01,7.93101e-01,9.65140e-01,9.99380e-01
8.973502660e-01,6.38943e-01,9.99999e-01,9.99999e-01,6.63661e-01,9.65816e-01,9.96829e-01
9.018370173e-01,7.79244e-01,9.99999e-01,9.99999e-01,8.10305e-01,9.66480e-01,9.95019e-01
9.063462024e-01,8.00996e-01,9.99999e-01,9.99999e-01,8.31858e-01,9.67131e-01,9.95623e-01
9.108779334e-01,7.22482e-01,9.99999e-01,9.99999e-01,7.49953e-01,9.67770e-01,9.95452e-01
9.154323231e-01,6.94106e-01,9.99999e-01,9.99999e-01,7.19462e-01,9.68396e-01,9.96239e-01
9.200094847e-01,7.47856e-01,9.99999e-01,9.99999e-01,7.73401e-01,9.69011e-01,9.97893e-01
9.246095321e-01,6.62598e-01,9.99999e-01,9.99999e-01,6.85025e-01,9.69613e-01,9.97573e-01
9.292325798e-01,9.97170e-02,9.99999e-01,9.99999e-01,1.03758e-01,9.70204e-01,9.90570e-01
9.338787427e-01,4.54646e-02,9.99999e-01,9.99999e-01,4.87034e-02,9.70784e-01,9.61591e-01
9.385481364e-01,2.70224e-01,9.99999e-01,9.99999e-01,2.91458e-01,9.71353e-01,9.54487e-01
9.432408771e-01,1.85289e-01,9.99999e-01,9.99999e-01,1.98461e-01,9.71911e-01,9.60610e-01
9.479570815e-01,9.57485e-02,9.99999e-01,9.99999e-01,1.01734e-01,9.72458e-01,9.67822e-01
9.526968669e-01,1.59802e-01,9.99999e-01,9.99999e-01,1.67546e-01,9.72994e-01,9.80248e-01
9.574603512e-01,1.73848e-01,9.99999e-01,9.99999e-01,1.80395e-01,9.73521e-01,9.89917e-01
9.622476530e-01,2.31222e-01,9.99999e-01,9.99999e-01,2.39054e-01,9.74037e-01,9.93017e-01
9.670588912e-01,4.20103e-01,9.99999e-01,9.99999e-01,4.33147e-01,9.74543e-01,9.95219e-01
9.718941857e-01,5.63243e-01,9.99999e-01,9.99999e-01,5.79702e-01,9.75040e-01,9.96478e-01
9.767536566e-01,6.18065e-01,9.99999e-01,9.99999e-01,6.35280e-01,9.75527e-01,9.97307e-01
9.816374249e-01,6.94246e-01,9.99999e-01,9.99999e-01,7.11977e-01,9.76004e-01,9.99067e-01
9.865456120e-01,7.88653e-01,9.99999e-01,9.99999e-01,8.07811e-01,9.76472e-01,9.99805e-01
9.914783401e-01,8.55760e-01,9.99999e-01,9.99999e-01,8.76013e-01,9.76932e-01,9.99945e-01
9.964357318e-01,9.09332e-01,9.99999e-01,9.99999e-01,9.30404e-01,9.77382e-01,9.99968e-01
1.001417910e+00,9.36358e-01,9.99999e-01,9.99999e-01,9.57639e-01,9.77824e-01,9.99951e-01
1.006425000e+00,9.54373e-01,9.99999e-01,9.99999e-01,9.75651e-01,9.78257e-01,9.99930e-01
1.011457125e+00,9.63737e-01,9.99999e-01,9.99999e-01,9.84791e-01,9.78682e-01,9.99935e-01
1.016514411e+00,9.68932e-01,9.99999e-01,9.99999e-01,9.89660e-01,9.79099e-01,9.99954e-01
1.021596983e+00,9.71390e-01,9.99999e-01,9.99999e-01,9.91757e-01,9.79507e-01,9.99954e-01
1.026704968e+00,9.73577e-01,9.99999e-01,9.99999e-01,9.93568e-01,9.79908e-01,9.99969e-01
1.031838492e+00,9.75700e-01,9.99999e-01,9.99999e-01,9.95314e-01,9.80301e-01,9.99991e-01
1.036997685e+00,9.77958e-01,9.99999e-01,9.99999e-01,9.97219e-01,9.80686e-01,9.99998e-01
1.042182673e+00,9.77820e-01,9.99999e-01,9.99999e-01,9.96693e-01,9.81064e-01,9.99998e-01
1.047393587e+00,9.77127e-01,9.99999e-01,9.99999e-01,9.95611e-01,9.81434e-01,9.99998e-01
1.052630555e+00,9.75895e-01,9.99999e-01,9.99999e-01,9.93988e-01,9.81798e-01,9.99998e-01
1.057893707e+00,9.72326e-01,9.99999e-01,9.99999e-01,9.89995e-01,9.82154e-01,9.99996e-01
1.063183176e+00,9.66365e-01,9.99999e-01,9.99999e-01,9.83582e-01,9.82503e-01,9.99990e-01
1.068499092e+00,9.55943e-01,9.99999e-01,9.99999e-01,9.72644e-01,9.82846e-01,9.99980e-01
1.073841587e+00,9.51838e-01,9.99999e-01,9.99999e-01,9.68159e-01,9.83182e-01,9.99958e-01
1.079210795e+00,9.43317e-01,9.99999e-01,9.99999e-01,9.59237e-01,9.83511e-01,9.99888e-01
1.084606849e+00,9.23684e-01,9.99999e-01,9.99999e-01,9.39110e-01,9.83834e-01,9.99732e-01
1.090029883e+00,8.99328e-01,9.99999e-01,9.99999e-01,9.14315e-01,9.84151e-01,9.99446e-01
1.095480033e+00,7.70531e-01,9.99999e-01,9.99999e-01,7.83476e-01,9.84462e-01,9.98999e-01
1.100957433e+00,5.34707e-01,9.99999e-01,9.99999e-01,5.43979e-01,9.84766e-01,9.98159e-01
1.106462220e+00,2.27975e-01,9.99999e-01,9.99999e-01,2.32156e-01,9.85065e-01,9.96880e-01
1.111994531e+00,4.95906e-02,9.99999e-01,9.99999e-01,5.07466e-02,9.85358e-01,9.91740e-01
1.117554504e+00,9.71310e-03,9.99999e-01,9.99999e-01,1.01541e-02,9.85645e-01,9.70499e-01
1.123142276e+00,4.13735e-02,9.99999e-01,9.99999e-01,4.50523e-02,9.85926e-01,9.31451e-01
1.128757988e+00,9.83397e-02,9.99999e-01,9.99999e-01,1.08253e-01,9.86202e-01,9.21134e-01
1.134401778e+00,4.44943e-02,9.99999e-01,9.99999e-01,4.83676e-02,9.86473e-01,9.32532e-01
1.140073787e+00,2.28516e-01,9.99999e-01,9.99999e-01,2.44879e-01,9.86739e-01,9.45718e-01
1.145774156e+00,6.56006e-02,9.99999e-01,9.99999e-01,6.99483e-02,9.86999e-01,9.50196e-01
1.151503026e+00,4.99715e-02,9.99999e-01,9.99999e-01,5.20778e-02,9.87254e-01,9.71941e-01
1.157260541e+00,6.50637e-02,9.99999e-01,9.99999e-01,6.64500e-02,9.87504e-01,9.91526e-01
1.163046844e+00,1.29472e-01,9.99999e-01,9.99999e-01,1.31394e-01,9.87749e-01,9.97590e-01
1.168862078e+00,2.26869e-01,9.99999e-01,9.99999e-01,2.29912e-01,9.87990e-01,9.98758e-01
1.174706389e+00,3.96141e-01,9.99999e-01,9.99999e-01,4.01521e-01,9.88226e-01,9.98354e-01
1.180579921e+00,5.62503e-01,9.99999e-01,9.99999e-01,5.70491e-01,9.88457e-01,9.97512e-01
1.186482820e+00,7.15614e-01,9.99999e-01,9.99999e-01,7.25656e-01,9.88684e-01,9.97446e-01
1.192415234e+00,8.17935e-01,9.99999e-01,9.99999e-01,8.28695e-01,9.88906e-01,9.98087e-01
1.198377311e+00,8.43012e-01,9.99999e-01,9.99999e-01,8.53823e-01,9.89124e-01,9.98193e-01
1.204369197e+00,8.51100e-01,9.99999e-01,9.99999e-01,8.61680e-01,9.89337e-01,9.98365e-01
1.210391043e+00,8.56969e-01,9.99999e-01,9.99999e-01,8.66883e-01,9.89547e-01,9.99005e-01
1.216442998e+00,8.75805e-01,9.99999e-01,9.99999e-01,8.85411e-01,9.89752e-01,9.99390e-01
1.222525213e+00,8.99930e-01,9.99999e-01,9.99999e-01,9.09406e-01,9.89954e-01,9.99621e-01
1.228637839e+00,9.26793e-01,9.99999e-01,9.99999e-01,9.36175e-01,9.90151e-01,9.99823e-01
