#,Wave/freq,Total,N2,O2,H2O,Rayleigh,CIA
4.000000000e-01,1.15775e-01,9.99999e-01,9.99999e-01,9.99756e-01,1.15803e-01,9.99999e-01
4.020000000e-01,1.20828e-01,9.99999e-01,9.99999e-01,9.99849e-01,1.20847e-01,9.99999e-01
4.040100000e-01,1.25990e-01,9.99999e-01,9.99999e-01,9.99935e-01,1.25998e-01,9.99999e-01
4.060300500e-01,1.31258e-01,9.99999e-01,9.99999e-01,9.99985e-01,1.31260e-01,9.99999e-01
4.080602003e-01,1.36631e-01,9.99999e-01,9.99999e-01,9.99994e-01,1.36632e-01,9.99999e-01
4.101005013e-01,1.42111e-01,9.99999e-01,9.99999e-01,9.99999e-01,1.42111e-01,9.99999e-01
4.121510038e-01,1.47693e-01,9.99999e-01,9.99999e-01,9.99990e-01,1.47694e-01,9.99999e-01
4.142117588e-01,1.53371e-01,9.99999e-01,9.99999e-01,9.99931e-01,1.53381e-01,9.99999e-01
4.162828176e-01,1.59120e-01,9.99999e-01,9.99999e-01,9.99698e-01,1.59167e-01,9.99999e-01
4.183642317e-01,1.65022e-01,9.99999e-01,9.99999e-01,9.99820e-01,1.65052e-01,9.99999e-01
4.204560528e-01,1.71012e-01,9.99999e-01,9.99999e-01,9.99890e-01,1.71031e-01,9.99999e-01
4.225583331e-01,1.77094e-01,9.99999e-01,9.99999e-01,9.99958e-01,1.77102e-01,9.99999e-01
4.246711247e-01,1.83256e-01,9.99999e-01,9.99999e-01,9.99966e-01,1.83262e-01,9.99999e-01
4.267944804e-01,1.89499e-01,9.99999e-01,9.99999e-01,9.99951e-01,1.89508e-01,9.99999e-01
4.289284528e-01,1.95831e-01,9.99999e-01,9.99999e-01,9.99962e-01,1.95838e-01,9.99999e-01
4.310730950e-01,2.02244e-01,9.99999e-01,9.99999e-01,9.99983e-01,2.02248e-01,9.99999e-01
4.332284605e-01,2.08733e-01,9.99999e-01,9.99999e-01,9.99995e-01,2.08734e-01,9.99999e-01
4.353946028e-01,2.15294e-01,9.99999e-01,9.99999e-01,9.99997e-01,2.15295e-01,9.99999e-01
4.375715758e-01,2.21919e-01,9.99999e-01,9.99999e-01,9.99969e-01,2.21926e-01,9.99999e-01
4.397594337e-01,2.28563e-01,9.99999e-01,9.99999e-01,9.99732e-01,2.28624e-01,9.99999e-01
4.419582309e-01,2.35067e-01,9.99999e-01,9.99999e-01,9.98642e-01,2.35386e-01,9.99999e-01
4.441680220e-01,2.41956e-01,9.99999e-01,9.99999e-01,9.98957e-01,2.42209e-01,9.99999e-01
4.463888621e-01,2.48817e-01,9.99999e-01,9.99999e-01,9.98909e-01,2.49088e-01,9.99999e-01
4.486208064e-01,2.55849e-01,9.99999e-01,9.99999e-01,9.99324e-01,2.56022e-01,9.99999e-01
4.508639105e-01,2.62922e-01,9.99999e-01,9.99999e-01,9.99683e-01,2.63006e-01,9.99999e-01
4.531182300e-01,2.70003e-01,9.99999e-01,9.99999e-01,9.99874e-01,2.70036e-01,9.99999e-01
4.553838212e-01,2.77087e-01,9.99999e-01,9.99999e-01,9.99914e-01,2.77110e-01,9.99999e-01
4.576607403e-01,2.84214e-01,9.99999e-01,9.99999e-01,9.99960e-01,2.84225e-01,9.99999e-01
4.599490440e-01,2.91368e-01,9.99999e-01,9.99999e-01,9.99972e-01,2.91376e-01,9.99999e-01
4.622487892e-01,2.98559e-01,9.99999e-01,9.99999e-01,9.99994e-01,2.98560e-01,9.99999e-01
4.645600332e-01,3.05768e-01,9.99999e-01,9.99999e-01,9.99980e-01,3.05774e-01,9.99999e-01
4.668828333e-01,3.12915e-01,9.99999e-01,9.99999e-01,9.99677e-01,3.13015e-01,9.99999e-01
4.692172475e-01,3.20061e-01,9.99999e-01,9.99999e-01,9.99316e-01,3.20280e-01,9.99999e-01
4.715633337e-01,3.27418e-01,9.99999e-01,9.99999e-01,9.99552e-01,3.27564e-01,9.99999e-01
4.739211504e-01,3.34723e-01,9.99999e-01,9.99999e-01,9.99572e-01,3.34866e-01,9.99999e-01
4.762907561e-01,3.42105e-01,9.99999e-01,9.99999e-01,9.99778e-01,3.42181e-01,9.99999e-01
4.786722099e-01,3.49475e-01,9.99999e-01,9.99999e-01,9.99909e-01,3.49506e-01,9.99999e-01
4.810655710e-01,3.56830e-01,9.99999e-01,9.99999e-01,9.99972e-01,3.56840e-01,9.99999e-01
4.834708988e-01,3.64080e-01,9.99999e-01,9.99999e-01,9.99733e-01,3.64177e-01,9.99999e-01
4.858882533e-01,3.71337e-01,9.99999e-01,9.99999e-01,9.99516e-01,3.71516e-01,9.99999e-01
4.883176946e-01,3.78700e-01,9.99999e-01,9.99999e-01,9.99593e-01,3.78854e-01,9.99999e-01
4.907592831e-01,3.86046e-01,9.99999e-01,9.99999e-01,9.99634e-01,3.86187e-01,9.99999e-01
4.932130795e-01,3.93412e-01,9.99999e-01,9.99999e-01,9.99740e-01,3.93514e-01,9.99999e-01
4.956791449e-01,4.00775e-01,9.99999e-01,9.99999e-01,9.99862e-01,4.00830e-01,9.99999e-01
4.981575406e-01,4.07853e-01,9.99999e-01,9.99999e-01,9.99309e-01,4.08134e-01,9.99999e-01
5.006483283e-01,4.14672e-01,9.99999e-01,9.99999e-01,9.98204e-01,4.15423e-01,9.99987e-01
5.031515699e-01,4.18849e-01,9.99999e-01,9.99999e-01,9.90995e-01,4.22694e-01,9.99904e-01
5.056673278e-01,4.27855e-01,9.99999e-01,9.99999e-01,9.95246e-01,4.29945e-01,9.99890e-01
5.081956644e-01,4.34525e-01,9.99999e-01,9.99999e-01,9.94006e-01,4.37174e-01,9.99933e-01
5.107366428e-01,4.42574e-01,9.99999e-01,9.99999e-01,9.95952e-01,4.44378e-01,9.99988e-01
5.132903260e-01,4.50510e-01,9.99999e-01,9.99999e-01,9.97688e-01,4.51554e-01,9.99998e-01
5.158567776e-01,4.58254e-01,9.99999e-01,9.99999e-01,9.99023e-01,4.58702e-01,9.99999e-01
5.184360615e-01,4.65636e-01,9.99999e-01,9.99999e-01,9.99608e-01,4.65818e-01,9.99999e-01
5.210282418e-01,4.72831e-01,9.99999e-01,9.99999e-01,9.99852e-01,4.72900e-01,9.99999e-01
5.236333830e-01,4.79663e-01,9.99999e-01,9.99999e-01,9.99410e-01,4.79947e-01,9.99995e-01
5.262515499e-01,4.86775e-01,9.99999e-01,9.99999e-01,9.99631e-01,4.86957e-01,9.99993e-01
5.288828077e-01,4.93758e-01,9.99999e-01,9.99999e-01,9.99660e-01,4.93928e-01,9.99995e-01
5.315272217e-01,5.00709e-01,9.99999e-01,9.99999e-01,9.99703e-01,5.00858e-01,9.99998e-01
5.341848578e-01,5.07646e-01,9.99999e-01,9.99999e-01,9.99804e-01,5.07745e-01,9.99999e-01
5.368557821e-01,5.14233e-01,9.99999e-01,9.99999e-01,9.99310e-01,5.14588e-01,9.99997e-01
5.395400610e-01,5.20074e-01,9.99999e-01,9.99999e-01,9.97505e-01,5.21386e-01,9.99976e-01
5.422377613e-01,5.26422e-01,9.99999e-01,9.99999e-01,9.96811e-01,5.28136e-01,9.99941e-01
5.449489501e-01,5.33212e-01,9.99999e-01,9.99999e-01,9.97017e-01,5.34838e-01,9.99939e-01
5.476736949e-01,5.40054e-01,9.99999e-01,9.99999e-01,9.97375e-01,5.41491e-01,9.99970e-01
5.504120634e-01,5.47043e-01,9.99999e-01,9.99999e-01,9.98093e-01,5.48092e-01,9.99991e-01
5.531641237e-01,5.54108e-01,9.99999e-01,9.99999e-01,9.99040e-01,5.54640e-01,9.99998e-01
5.559299443e-01,5.60876e-01,9.99999e-01,9.99999e-01,9.99537e-01,5.61136e-01,9.99999e-01
5.587095940e-01,5.67411e-01,9.99999e-01,9.99999e-01,9.99708e-01,5.67576e-01,9.99999e-01
5.615031420e-01,5.73775e-01,9.99999e-01,9.99999e-01,9.99675e-01,5.73962e-01,9.99998e-01
5.643106577e-01,5.80074e-01,9.99999e-01,9.99999e-01,9.99628e-01,5.80291e-01,9.99996e-01
5.671322110e-01,5.83891e-01,9.99999e-01,9.99999e-01,9.95484e-01,5.86562e-01,9.99959e-01
5.699678720e-01,5.89914e-01,9.99999e-01,9.99999e-01,9.95292e-01,5.92776e-01,9.99878e-01
5.728177114e-01,5.95907e-01,9.99999e-01,9.99999e-01,9.95052e-01,5.98931e-01,9.99898e-01
5.756818000e-01,6.02248e-01,9.99999e-01,9.99999e-01,9.95465e-01,6.05026e-01,9.99940e-01
5.785602090e-01,6.08639e-01,9.99999e-01,9.99999e-01,9.96053e-01,6.11061e-01,9.99982e-01
5.814530100e-01,6.14580e-01,9.99999e-01,9.99999e-01,9.96028e-01,6.17035e-01,9.99991e-01
5.843602750e-01,6.19969e-01,9.99999e-01,9.99999e-01,9.95244e-01,6.22948e-01,9.99973e-01
5.872820764e-01,6.03495e-01,9.99999e-01,9.99999e-01,9.60033e-01,6.28799e-01,9.99712e-01
5.902184868e-01,6.03528e-01,9.99999e-01,9.99999e-01,9.51799e-01,6.34588e-01,9.99218e-01
5.931695792e-01,6.17931e-01,9.99999e-01,9.99999e-01,9.65768e-01,6.40314e-01,9.99248e-01
5.961354271e-01,6.21479e-01,9.99999e-01,9.99999e-01,9.62490e-01,6.45977e-01,9.99567e-01
5.991161043e-01,6.33561e-01,9.99999e-01,9.99999e-01,9.72480e-01,6.51577e-01,9.99865e-01
6.021116848e-01,6.46789e-01,9.99999e-01,9.99999e-01,9.84302e-01,6.57113e-01,9.99984e-01
6.051222432e-01,6.57304e-01,9.99999e-01,9.99999e-01,9.92028e-01,6.62586e-01,9.99998e-01
6.081478544e-01,6.65692e-01,9.99999e-01,9.99999e-01,9.96551e-01,6.67995e-01,9.99999e-01
6.111885937e-01,6.72359e-01,9.99999e-01,9.99999e-01,9.98542e-01,6.73340e-01,9.99999e-01
6.142445367e-01,6.78179e-01,9.99999e-01,9.99999e-01,9.99347e-01,6.78621e-01,9.99999e-01
6.173157594e-01,6.83592e-01,9.99999e-01,9.99999e-01,9.99639e-01,6.83838e-01,9.99999e-01
6.204023382e-01,6.88779e-01,9.99999e-01,9.99999e-01,9.99693e-01,6.88990e-01,9.99999e-01
6.235043498e-01,6.93132e-01,9.99999e-01,9.99999e-01,9.98639e-01,6.94079e-01,9.99996e-01
6.266218716e-01,6.94106e-01,9.99999e-01,9.99999e-01,9.92900e-01,6.99103e-01,9.99949e-01
6.297549810e-01,7.02157e-01,9.99999e-01,9.99999e-01,9.97390e-01,7.04064e-01,9.99899e-01
6.329037559e-01,7.05259e-01,9.99999e-01,9.99999e-01,9.94857e-01,7.08961e-01,9.99919e-01
6.360682746e-01,7.10623e-01,9.99999e-01,9.99999e-01,9.95605e-01,7.13794e-01,9.99952e-01
6.392486160e-01,7.14464e-01,9.99999e-01,9.99999e-01,9.94315e-01,7.18563e-01,9.99978e-01
6.424448591e-01,7.17715e-01,9.99999e-01,9.99999e-01,9.92357e-01,7.23269e-01,9.99961e-01
6.456570834e-01,7.02354e-01,9.99999e-01,9.99999e-01,9.65094e-01,7.27913e-01,9.99785e-01
6.488853688e-01,7.13472e-01,9.99999e-01,9.99999e-01,9.74566e-01,7.32493e-01,9.99451e-01
6.521297956e-01,7.17618e-01,9.99999e-01,9.99999e-01,9.74126e-01,7.37011e-01,9.99547e-01
6.553904446e-01,7.21963e-01,9.99999e-01,9.99999e-01,9.74022e-01,7.41467e-01,9.99662e-01
6.586673968e-01,7.29235e-01,9.99999e-01,9.99999e-01,9.77818e-01,7.45861e-01,9.99886e-01
6.619607338e-01,7.40843e-01,9.99999e-01,9.99999e-01,9.87559e-01,7.50193e-01,9.99975e-01
6.652705375e-01,7.48807e-01,9.99999e-01,9.99999e-01,9.92512e-01,7.54464e-01,9.99987e-01
6.685968902e-01,7.56256e-01,9.99999e-01,9.99999e-01,9.96813e-01,7.58675e-01,9.99997e-01
6.719398746e-01,7.61594e-01,9.99999e-01,9.99999e-01,9.98385e-01,7.62825e-01,9.99999e-01
6.752995740e-01,7.66261e-01,9.99999e-01,9.99999e-01,9.99147e-01,7.66915e-01,9.99999e-01
6.786760719e-01,7.69960e-01,9.99999e-01,9.99999e-01,9.98723e-01,7.70946e-01,9.99997e-01
6.820694522e-01,7.73225e-01,9.99999e-01,9.99999e-01,9.97827e-01,7.74917e-01,9.99988e-01
6.854797995e-01,7.76628e-01,9.99999e-01,9.99999e-01,9.97196e-01,7.78830e-01,9.99975e-01
6.889071985e-01,7.77291e-01,9.99999e-01,9.99999e-01,9.93167e-01,7.82685e-01,9.99939e-01
6.923517345e-01,7.04021e-01,9.99999e-01,9.99999e-01,8.95625e-01,7.86482e-01,9.99469e-01
6.958134932e-01,7.46091e-01,9.99999e-01,9.99999e-01,9.45261e-01,7.90222e-01,9.98825e-01
6.992925606e-01,7.50831e-01,9.99999e-01,9.99999e-01,9.46743e-01,7.93906e-01,9.98941e-01
7.027890234e-01,7.45090e-01,9.99999e-01,9.99999e-01,9.34998e-01,7.97533e-01,9.99191e-01
7.063029686e-01,7.56634e-01,9.99999e-01,9.99999e-01,9.44867e-01,8.01105e-01,9.99597e-01
7.098344834e-01,7.61785e-01,9.99999e-01,9.99999e-01,9.46986e-01,8.04622e-01,9.99761e-01
7.133836558e-01,7.51164e-01,9.99999e-01,9.99999e-01,9.30000e-01,8.08084e-01,9.99527e-01
7.169505741e-01,4.67890e-01,9.99999e-01,9.99999e-01,5.78728e-01,8.11493e-01,9.96286e-01
7.205353270e-01,6.17450e-01,9.99999e-01,9.99999e-01,7.62738e-01,8.14848e-01,9.93457e-01
7.241380036e-01,5.73123e-01,9.99999e-01,9.99999e-01,7.04492e-01,8.18150e-01,9.94348e-01
7.277586936e-01,5.96510e-01,9.99999e-01,9.99999e-01,7.29583e-01,8.21400e-01,9.95377e-01
7.313974871e-01,5.86330e-01,9.99999e-01,9.99999e-01,7.12593e-01,8.24598e-01,9.97832e-01
7.350544745e-01,6.85929e-01,9.99999e-01,9.99999e-01,8.29296e-01,8.27745e-01,9.99245e-01
7.387297469e-01,7.22926e-01,9.99999e-01,9.99999e-01,8.70412e-01,8.30842e-01,9.99654e-01
7.424233956e-01,7.78951e-01,9.99999e-01,9.99999e-01,9.34174e-01,8.33889e-01,9.99939e-01
7.461355126e-01,8.02967e-01,9.99999e-01,9.99999e-01,9.59478e-01,8.36886e-01,9.99989e-01
7.498661902e-01,8.23836e-01,9.99999e-01,9.99999e-01,9.80953e-01,8.39835e-01,9.99995e-01
7.536155211e-01,8.34802e-01,9.99999e-01,9.99999e-01,9.90587e-01,8.42736e-01,9.99997e-01
7.573835987e-01,8.41484e-01,9.99999e-01,9.99999e-01,9.95145e-01,8.45589e-01,9.99998e-01
7.611705167e-01,8.45833e-01,9.99999e-01,9.99999e-01,9.96980e-01,8.48395e-01,9.99999e-01
7.649763693e-01,8.49542e-01,9.99999e-01,9.99999e-01,9.98104e-01,8.51154e-01,9.99999e-01
7.688012511e-01,8.52740e-01,9.99999e-01,9.99999e-01,9.98678e-01,8.53868e-01,9.99999e-01
7.726452574e-01,8.55605e-01,9.99999e-01,9.99999e-01,9.98912e-01,8.56537e-01,9.99998e-01
7.765084837e-01,8.57824e-01,9.99999e-01,9.99999e-01,9.98445e-01,8.59161e-01,9.99997e-01
7.803910261e-01,8.55956e-01,9.99999e-01,9.99999e-01,9.93293e-01,8.61741e-01,9.99993e-01
7.842929812e-01,8.44201e-01,9.99999e-01,9.99999e-01,9.76812e-01,8.64277e-01,9.99956e-01
7.882144461e-01,8.25827e-01,9.99999e-01,9.99999e-01,9.53076e-01,8.66771e-01,9.99670e-01
7.921555184e-01,8.46238e-01,9.99999e-01,9.99999e-01,9.74115e-01,8.69222e-01,9.99426e-01
7.961162960e-01,8.31423e-01,9.99999e-01,9.99999e-01,9.54388e-01,8.71632e-01,9.99454e-01
8.000968774e-01,8.27651e-01,9.99999e-01,9.99999e-01,9.47517e-01,8.74001e-01,9.99419e-01
8.040973618e-01,8.29966e-01,9.99999e-01,9.99999e-01,9.47512e-01,8.76329e-01,9.99557e-01
8.081178486e-01,7.78372e-01,9.99999e-01,9.99999e-01,8.86303e-01,8.78617e-01,9.99551e-01
8.121584379e-01,5.40199e-01,9.99999e-01,9.99999e-01,6.14301e-01,8.80865e-01,9.98303e-01
8.162192301e-01,4.96960e-01,9.99999e-01,9.99999e-01,5.66365e-01,8.83075e-01,9.93634e-01
8.203003262e-01,6.70312e-01,9.99999e-01,9.99999e-01,7.62886e-01,8.85247e-01,9.92550e-01
8.244018279e-01,6.16605e-01,9.99999e-01,9.99999e-01,6.99006e-01,8.87381e-01,9.94066e-01
8.285238370e-01,6.24549e-01,9.99999e-01,9.99999e-01,7.05442e-01,8.89477e-01,9.95336e-01
8.326664562e-01,6.27506e-01,9.99999e-01,9.99999e-01,7.05208e-01,8.91538e-01,9.98068e-01
8.368297885e-01,6.92353e-01,9.99999e-01,9.99999e-01,7.75166e-01,8.93562e-01,9.99558e-01
8.410139374e-01,7.68885e-01,9.99999e-01,9.99999e-01,8.58783e-01,8.95550e-01,9.99741e-01
8.452190071e-01,8.32550e-01,9.99999e-01,9.99999e-01,9.27771e-01,8.97504e-01,9.99845e-01
8.494451021e-01,8.60840e-01,9.99999e-01,9.99999e-01,9.57220e-01,8.99423e-01,9.99875e-01
8.536923276e-01,8.78296e-01,9.99999e-01,9.99999e-01,9.74540e-01,9.01308e-01,9.99924e-01
8.579607893e-01,8.88881e-01,9.99999e-01,9.99999e-01,9.84207e-01,9.03160e-01,9.99981e-01
8.622505932e-01,8.95885e-01,9.99999e-01,9.99999e-01,9.89954e-01,9.04979e-01,9.99996e-01
8.665618462e-01,9.01104e-01,9.99999e-01,9.99999e-01,9.93758e-01,9.06765e-01,9.99997e-01
8.708946554e-01,9.02015e-01,9.99999e-01,9.99999e-01,9.92843e-01,9.08520e-01,9.99995e-01
8.752491287e-01,9.01535e-01,9.99999e-01,9.99999e-01,9.90443e-01,9.10243e-01,9.99989e-01
8.796253743e-01,8.99839e-01,9.99999e-01,9.99999e-01,9.86763e-01,9.11935e-01,9.99970e-01
8.840235012e-01,8.99730e-01,9.99999e-01,9.99999e-01,9.84911e-01,9.13597e-01,9.99907e-01
8.884436187e-01,8.65954e-01,9.99999e-01,9.99999e-01,9.46408e-01,9.15230e-01,9.99737e-01
8.928858368e-01,5.29410e-01,9.99999e-01,9.99999e-01,5.78309e-01,9.16832e-01,9.98485e-01
8.973502660e-01,3.53432e-01,9.99999e-01,9.99999e-01,3.87832e-01,9.18406e-01,9.92261e-01
9.018370173e-01,5.61664e-01,9.99999e-01,9.99999e-01,6.18039e-01,9.19952e-01,9.87859e-01
9.063462024e-01,5.90083e-01,9.99999e-01,9.99999e-01,6.47279e-01,9.21469e-01,9.89327e-01
9.108779334e-01,4.65546e-01,9.99999e-01,9.99999e-01,5.10060e-01,9.22959e-01,9.88912e-01
9.154323231e-01,4.21504e-01,9.99999e-01,9.99999e-01,4.60186e-01,9.24421e-01,9.90826e-01
9.200094847e-01,5.06197e-01,9.99999e-01,9.99999e-01,5.49560e-01,9.25857e-01,9.94855e-01
9.246095321e-01,3.86368e-01,9.99999e-01,9.99999e-01,4.19157e-01,9.27267e-01,9.94074e-01
9.292325798e-01,1.57999e-02,9.99999e-01,9.99999e-01,1.75091e-02,9.28651e-01,9.71713e-01
9.338787427e-01,1.68901e-03,9.99999e-01,9.99999e-01,2.01460e-03,9.30010e-01,9.01475e-01
9.385481364e-01,6.53748e-02,9.99999e-01,9.99999e-01,7.86667e-02,9.31344e-01,8.92295e-01
9.432408771e-01,3.07873e-02,9.99999e-01,9.99999e-01,3.64206e-02,9.32653e-01,9.06364e-01
9.479570815e-01,5.95602e-03,9.99999e-01,9.99999e-01,6.90854e-03,9.33939e-01,9.23103e-01
9.526968669e-01,1.78573e-02,9.99999e-01,9.99999e-01,2.00496e-02,9.35200e-01,9.52368e-01
9.574603512e-01,2.21846e-02,9.99999e-01,9.99999e-01,2.42850e-02,9.36439e-01,9.75514e-01
9.622476530e-01,4.09817e-02,9.99999e-01,9.99999e-01,4.44623e-02,9.37654e-01,9.83004e-01
9.670588912e-01,1.45882e-01,9.99999e-01,9.99999e-01,1.57217e-01,9.38847e-01,9.88345e-01
9.718941857e-01,2.58178e-01,9.99999e-01,9.99999e-01,2.77032e-01,9.40018e-01,9.91407e-01
9.767536566e-01,3.20621e-01,9.99999e-01,9.99999e-01,3.42917e-01,9.41167e-01,9.93426e-01
9.816374249e-01,4.18046e-01,9.99999e-01,9.99999e-01,4.44660e-01,9.42295e-01,9.97720e-01
9.865456120e-01,5.64307e-01,9.99999e-01,9.99999e-01,5.98445e-01,9.43402e-01,9.99524e-01
9.914783401e-01,6.85183e-01,9.99999e-01,9.99999e-01,7.25549e-01,9.44488e-01,9.99867e-01
9.964357318e-01,7.93709e-01,9.99999e-01,9.99999e-01,8.39475e-01,9.45554e-01,9.99922e-01
1.001417910e+00,8.52004e-01,9.99999e-01,9.99999e-01,9.00172e-01,9.46601e-01,9.99881e-01
1.006425000e+00,8.92156e-01,9.99999e-01,9.99999e-01,9.41620e-01,9.47627e-01,9.99831e-01
1.011457125e+00,9.13798e-01,9.99999e-01,9.99999e-01,9.63425e-01,9.48635e-01,9.99844e-01
1.016514411e+00,9.25769e-01,9.99999e-01,9.99999e-01,9.74986e-01,9.49623e-01,9.99889e-01
1.021596983e+00,9.31490e-01,9.99999e-01,9.99999e-01,9.80009e-01,9.50593e-01,9.99891e-01
1.026704968e+00,9.36607e-01,9.99999e-01,9.99999e-01,9.84366e-01,9.51545e-01,9.99931e-01
1.031838492e+00,9.41633e-01,9.99999e-01,9.99999e-01,9.88631e-01,9.52479e-01,9.99979e-01
1.036997685e+00,9.46931e-01,9.99999e-01,9.99999e-01,9.93221e-01,9.53396e-01,9.99996e-01
1.042182673e+00,9.46565e-01,9.99999e-01,9.99999e-01,9.91901e-01,9.54295e-01,9.99998e-01
1.047393587e+00,9.44943e-01,9.99999e-01,9.99999e-01,9.89287e-01,9.55177e-01,9.99997e-01
1.052630555e+00,9.42002e-01,9.99999e-01,9.99999e-01,9.85317e-01,9.56043e-01,9.99995e-01
1.057893707e+00,9.33533e-01,9.99999e-01,9.99999e-01,9.75596e-01,9.56892e-01,9.99991e-01
1.063183176e+00,9.19633e-01,9.99999e-01,9.99999e-01,9.60246e-01,9.57725e-01,9.99978e-01
1.068499092e+00,8.95714e-01,9.99999e-01,9.99999e-01,9.34496e-01,9.58542e-01,9.99953e-01
1.073841587e+00,8.86405e-01,9.99999e-01,9.99999e-01,9.24060e-01,9.59344e-01,9.99899e-01
1.079210795e+00,8.67419e-01,9.99999e-01,9.99999e-01,9.03682e-01,9.60131e-01,9.99728e-01
1.084606849e+00,8.24225e-01,9.99999e-01,9.99999e-01,8.58320e-01,9.60903e-01,9.99347e-01
1.090029883e+00,7.72043e-01,9.99999e-01,9.99999e-01,8.03909e-01,9.61660e-01,9.98647e-01
1.095480033e+00,5.31898e-01,9.99999e-01,9.99999e-01,5.54030e-01,9.62403e-01,9.97554e-01
1.100957433e+00,2.29871e-01,9.99999e-01,9.99999e-01,2.39748e-01,9.63132e-01,9.95504e-01
1.106462220e+00,3.86197e-02,9.99999e-01,9.99999e-01,4.03756e-02,9.63847e-01,9.92385e-01
1.111994531e+00,1.40773e-03,9.99999e-01,9.99999e-01,1.48938e-03,9.64548e-01,9.79913e-01
1.117554504e+00,7.00945e-05,9.99999e-01,9.99999e-01,7.81385e-05,9.65236e-01,9.29361e-01
1.123142276e+00,1.63778e-03,9.99999e-01,9.99999e-01,2.01728e-03,9.65911e-01,8.40528e-01
1.128757988e+00,5.97755e-03,9.99999e-01,9.99999e-01,7.56082e-03,9.66573e-01,8.17935e-01
1.134401778e+00,4.35821e-03,9.99999e-01,9.99999e-01,5.34560e-03,9.67222e-01,8.42916e-01
1.140073787e+00,3.40553e-02,9.99999e-01,9.99999e-01,4.03338e-02,9.67859e-01,8.72374e-01
1.145774156e+00,3.91675e-03,9.99999e-01,9.99999e-01,4.58258e-03,9.68484e-01,8.82515e-01
1.151503026e+00,1.68152e-03,9.99999e-01,9.99999e-01,1.86025e-03,9.69097e-01,9.32744e-01
1.157260541e+00,2.02017e-03,9.99999e-01,9.99999e-01,2.12712e-03,9.69698e-01,9.79397e-01
1.163046844e+00,9.97068e-03,9.99999e-01,9.99999e-01,1.03368e-02,9.70287e-01,9.94117e-01
1.168862078e+00,3.37946e-02,9.99999e-01,9.99999e-01,3.49146e-02,9.70865e-01,9.96965e-01
1.174706389e+00,1.15408e-01,9.99999e-01,9.99999e-01,1.19282e-01,9.71433e-01,9.95978e-01
1.180579921e+00,2.57314e-01,9.99999e-01,9.99999e-01,2.66347e-01,9.71989e-01,9.93925e-01
1.186482820e+00,4.46528e-01,9.99999e-01,9.99999e-01,4.62018e-01,9.72534e-01,9.93765e-01
1.192415234e+00,6.13506e-01,9.99999e-01,9.99999e-01,6.33444e-01,9.73070e-01,9.95327e-01
1.198377311e+00,6.59940e-01,9.99999e-01,9.99999e-01,6.80842e-01,9.73594e-01,9.95586e-01
1.204369197e+00,6.77766e-01,9.99999e-01,9.99999e-01,6.98570e-01,9.74109e-01,9.96005e-01
1.210391043e+00,6.87968e-01,9.99999e-01,9.99999e-01,7.07607e-01,9.74614e-01,9.97568e-01
1.216442998e+00,7.25799e-01,9.99999e-01,9.99999e-01,7.45435e-01,9.75109e-01,9.98509e-01
1.222525213e+00,7.73898e-01,9.99999e-01,9.99999e-01,7.93992e-01,9.75595e-01,9.99074e-01
1.228637839e+00,8.30869e-01,9.99999e-01,9.99999e-01,8.51604e-01,9.76071e-01,9.99568e-01
