#,Wave/freq,Total,N2,O2,H2O,Rayleigh,CIA
4.000000000e-01,8.86956e-01,9.99999e-01,9.99999e-01,9.99985e-01,8.86968e-01,9.99999e-01
4.020000000e-01,8.89067e-01,9.99999e-01,9.99999e-01,9.99991e-01,8.89075e-01,9.99999e-01
4.040100000e-01,8.91139e-01,9.99999e-01,9.99999e-01,9.99995e-01,8.91142e-01,9.99999e-01
4.060300500e-01,8.93172e-01,9.99999e-01,9.99999e-01,9.99998e-01,8.93173e-01,9.99999e-01
4.080602003e-01,8.95168e-01,9.99999e-01,9.99999e-01,9.99999e-01,8.95168e-01,9.99999e-01
4.101005013e-01,8.97128e-01,9.99999e-01,9.99999e-01,9.99999e-01,8.97128e-01,9.99999e-01
4.121510038e-01,8.99054e-01,9.99999e-01,9.99999e-01,9.99999e-01,8.99054e-01,9.99999e-01
4.142117588e-01,9.00942e-01,9.99999e-01,9.99999e-01,9.99995e-01,9.00946e-01,9.99999e-01
4.162828176e-01,9.02789e-01,9.99999e-01,9.99999e-01,9.99982e-01,9.02804e-01,9.99999e-01
4.183642317e-01,9.04620e-01,9.99999e-01,9.99999e-01,9.99989e-01,9.04629e-01,9.99999e-01
4.204560528e-01,9.06416e-01,9.99999e-01,9.99999e-01,9.99993e-01,9.06422e-01,9.99999e-01
4.225583331e-01,9.08181e-01,9.99999e-01,9.99999e-01,9.99997e-01,9.08183e-01,9.99999e-01
4.246711247e-01,9.09910e-01,9.99999e-01,9.99999e-01,9.99997e-01,9.09912e-01,9.99999e-01
4.267944804e-01,9.11608e-01,9.99999e-01,9.99999e-01,9.99996e-01,9.11610e-01,9.99999e-01
4.289284528e-01,9.13276e-01,9.99999e-01,9.99999e-01,9.99997e-01,9.13278e-01,9.99999e-01
4.310730950e-01,9.14915e-01,9.99999e-01,9.99999e-01,9.99998e-01,9.14916e-01,9.99999e-01
4.332284605e-01,9.16524e-01,9.99999e-01,9.99999e-01,9.99999e-01,9.16524e-01,9.99999e-01
4.353946028e-01,9.18104e-01,9.99999e-01,9.99999e-01,9.99999e-01,9.18104e-01,9.99999e-01
4.375715758e-01,9.19653e-01,9.99999e-01,9.99999e-01,9.99997e-01,9.19655e-01,9.99999e-01
4.397594337e-01,9.21164e-01,9.99999e-01,9.99999e-01,9.99985e-01,9.21177e-01,9.99999e-01
4.419582309e-01,9.22605e-01,9.99999e-01,9.99999e-01,9.99926e-01,9.22672e-01,9.99999e-01
4.441680220e-01,9.24086e-01,9.99999e-01,9.99999e-01,9.99940e-01,9.24140e-01,9.99999e-01
4.463888621e-01,9.25525e-01,9.99999e-01,9.99999e-01,9.99938e-01,9.25582e-01,9.99999e-01
4.486208064e-01,9.26961e-01,9.99999e-01,9.99999e-01,9.99961e-01,9.26997e-01,9.99999e-01
4.508639105e-01,9.28369e-01,9.99999e-01,9.99999e-01,9.99981e-01,9.28386e-01,9.99999e-01
4.531182300e-01,9.29743e-01,9.99999e-01,9.99999e-01,9.99992e-01,9.29749e-01,9.99999e-01
4.553838212e-01,9.31083e-01,9.99999e-01,9.99999e-01,9.99994e-01,9.31088e-01,9.99999e-01
4.576607403e-01,9.32400e-01,9.99999e-01,9.99999e-01,9.99997e-01,9.32402e-01,9.99999e-01
4.599490440e-01,9.33690e-01,9.99999e-01,9.99999e-01,9.99997e-01,9.33692e-01,9.99999e-01
4.622487892e-01,9.34958e-01,9.99999e-01,9.99999e-01,9.99999e-01,9.34958e-01,9.99999e-01
4.645600332e-01,9.36200e-01,9.99999e-01,9.99999e-01,9.99998e-01,9.36201e-01,9.99999e-01
4.668828333e-01,9.37404e-01,9.99999e-01,9.99999e-01,9.99981e-01,9.37421e-01,9.99999e-01
4.692172475e-01,9.38582e-01,9.99999e-01,9.99999e-01,9.99961e-01,9.38618e-01,9.99999e-01
4.715633337e-01,9.39770e-01,9.99999e-01,9.99999e-01,9.99974e-01,9.39793e-01,9.99999e-01
4.739211504e-01,9.40924e-01,9.99999e-01,9.99999e-01,9.99975e-01,9.40947e-01,9.99999e-01
4.762907561e-01,9.42067e-01,9.99999e-01,9.99999e-01,9.99987e-01,9.42079e-01,9.99999e-01
4.786722099e-01,9.43185e-01,9.99999e-01,9.99999e-01,9.99994e-01,9.43190e-01,9.99999e-01
4.810655710e-01,9.44278e-01,9.99999e-01,9.99999e-01,9.99997e-01,9.44280e-01,9.99999e-01
4.834708988e-01,9.45336e-01,9.99999e-01,9.99999e-01,9.99985e-01,9.45350e-01,9.99999e-01
4.858882533e-01,9.46374e-01,9.99999e-01,9.99999e-01,9.99972e-01,9.46400e-01,9.99999e-01
4.883176946e-01,9.47409e-01,9.99999e-01,9.99999e-01,9.99977e-01,9.47430e-01,9.99999e-01
4.907592831e-01,9.48422e-01,9.99999e-01,9.99999e-01,9.99979e-01,9.48441e-01,9.99999e-01
4.932130795e-01,9.49420e-01,9.99999e-01,9.99999e-01,9.99984e-01,9.49433e-01,9.99999e-01
4.956791449e-01,9.50400e-01,9.99999e-01,9.99999e-01,9.99991e-01,9.50407e-01,9.99999e-01
4.981575406e-01,9.51326e-01,9.99999e-01,9.99999e-01,9.99961e-01,9.51362e-01,9.99999e-01
5.006483283e-01,9.52206e-01,9.99999e-01,9.99999e-01,9.99901e-01,9.52300e-01,9.99998e-01
5.031515699e-01,9.52736e-01,9.99999e-01,9.99999e-01,9.99497e-01,9.53220e-01,9.99994e-01
5.056673278e-01,9.53863e-01,9.99999e-01,9.99999e-01,9.99733e-01,9.54122e-01,9.99993e-01
5.081956644e-01,9.54683e-01,9.99999e-01,9.99999e-01,9.99663e-01,9.55008e-01,9.99995e-01
5.107366428e-01,9.55659e-01,9.99999e-01,9.99999e-01,9.99772e-01,9.55876e-01,9.99998e-01
5.132903260e-01,9.56604e-01,9.99999e-01,9.99999e-01,9.99869e-01,9.56729e-01,9.99999e-01
5.158567776e-01,9.57512e-01,9.99999e-01,9.99999e-01,9.99944e-01,9.57565e-01,9.99999e-01
5.184360615e-01,9.58364e-01,9.99999e-01,9.99999e-01,9.99977e-01,9.58385e-01,9.99999e-01
5.210282418e-01,9.59183e-01,9.99999e-01,9.99999e-01,9.99991e-01,9.59190e-01,9.99999e-01
5.236333830e-01,9.59949e-01,9.99999e-01,9.99999e-01,9.99966e-01,9.59980e-01,9.99999e-01
5.262515499e-01,9.60735e-01,9.99999e-01,9.99999e-01,9.99978e-01,9.60755e-01,9.99999e-01
5.288828077e-01,9.61497e-01,9.99999e-01,9.99999e-01,9.99980e-01,9.61515e-01,9.99999e-01
5.315272217e-01,9.62245e-01,9.99999e-01,9.99999e-01,9.99982e-01,9.62261e-01,9.99999e-01
5.341848578e-01,9.62982e-01,9.99999e-01,9.99999e-01,9.99988e-01,9.62992e-01,9.99999e-01
5.368557821e-01,9.63673e-01,9.99999e-01,9.99999e-01,9.99961e-01,9.63710e-01,9.99999e-01
5.395400610e-01,9.64281e-01,9.99999e-01,9.99999e-01,9.99863e-01,9.64414e-01,9.99998e-01
5.422377613e-01,9.64928e-01,9.99999e-01,9.99999e-01,9.99820e-01,9.65104e-01,9.99996e-01
5.449489501e-01,9.65619e-01,9.99999e-01,9.99999e-01,9.99834e-01,9.65781e-01,9.99996e-01
5.476736949e-01,9.66302e-01,9.99999e-01,9.99999e-01,9.99852e-01,9.66446e-01,9.99997e-01
5.504120634e-01,9.66994e-01,9.99999e-01,9.99999e-01,9.99892e-01,9.67097e-01,9.99999e-01
5.531641237e-01,9.67685e-01,9.99999e-01,9.99999e-01,9.99945e-01,9.67737e-01,9.99999e-01
5.559299443e-01,9.68339e-01,9.99999e-01,9.99999e-01,9.99973e-01,9.68364e-01,9.99999e-01
5.587095940e-01,9.68963e-01,9.99999e-01,9.99999e-01,9.99983e-01,9.68979e-01,9.99999e-01
5.615031420e-01,9.69565e-01,9.99999e-01,9.99999e-01,9.99981e-01,9.69582e-01,9.99999e-01
5.643106577e-01,9.70154e-01,9.99999e-01,9.99999e-01,9.99979e-01,9.70174e-01,9.99999e-01
5.671322110e-01,9.70517e-01,9.99999e-01,9.99999e-01,9.99756e-01,9.70754e-01,9.99997e-01
5.699678720e-01,9.71057e-01,9.99999e-01,9.99999e-01,9.99732e-01,9.71324e-01,9.99992e-01
5.728177114e-01,9.71610e-01,9.99999e-01,9.99999e-01,9.99724e-01,9.71882e-01,9.99993e-01
5.756818000e-01,9.72181e-01,9.99999e-01,9.99999e-01,9.99746e-01,9.72430e-01,9.99996e-01
5.785602090e-01,9.72751e-01,9.99999e-01,9.99999e-01,9.99778e-01,9.72967e-01,9.99998e-01
5.814530100e-01,9.73278e-01,9.99999e-01,9.99999e-01,9.99778e-01,9.73494e-01,9.99999e-01
5.843602750e-01,9.73755e-01,9.99999e-01,9.99999e-01,9.99738e-01,9.74010e-01,9.99998e-01
5.872820764e-01,9.72303e-01,9.99999e-01,9.99999e-01,9.97742e-01,9.74517e-01,9.99983e-01
5.902184868e-01,9.72278e-01,9.99999e-01,9.99999e-01,9.97236e-01,9.75014e-01,9.99955e-01
5.931695792e-01,9.73563e-01,9.99999e-01,9.99999e-01,9.98054e-01,9.75501e-01,9.99957e-01
5.961354271e-01,9.73868e-01,9.99999e-01,9.99999e-01,9.97861e-01,9.75980e-01,9.99973e-01
5.991161043e-01,9.74917e-01,9.99999e-01,9.99999e-01,9.98438e-01,9.76448e-01,9.99992e-01
6.021116848e-01,9.76041e-01,9.99999e-01,9.99999e-01,9.99112e-01,9.76908e-01,9.99998e-01
6.051222432e-01,9.76920e-01,9.99999e-01,9.99999e-01,9.99550e-01,9.77359e-01,9.99999e-01
6.081478544e-01,9.77612e-01,9.99999e-01,9.99999e-01,9.99806e-01,9.77801e-01,9.99999e-01
6.111885937e-01,9.78155e-01,9.99999e-01,9.99999e-01,9.99917e-01,9.78235e-01,9.99999e-01
6.142445367e-01,9.78624e-01,9.99999e-01,9.99999e-01,9.99962e-01,9.78660e-01,9.99999e-01
6.173157594e-01,9.79057e-01,9.99999e-01,9.99999e-01,9.99979e-01,9.79077e-01,9.99999e-01
6.204023382e-01,9.79470e-01,9.99999e-01,9.99999e-01,9.99982e-01,9.79486e-01,9.99999e-01
6.235043498e-01,9.79815e-01,9.99999e-01,9.99999e-01,9.99926e-01,9.79887e-01,9.99999e-01
6.266218716e-01,9.79890e-01,9.99999e-01,9.99999e-01,9.99603e-01,9.80281e-01,9.99996e-01
6.297549810e-01,9.80518e-01,9.99999e-01,9.99999e-01,9.99854e-01,9.80666e-01,9.99993e-01
6.329037559e-01,9.80758e-01,9.99999e-01,9.99999e-01,9.99711e-01,9.81044e-01,9.99995e-01
6.360682746e-01,9.81173e-01,9.99999e-01,9.99999e-01,9.99755e-01,9.81415e-01,9.99996e-01
6.392486160e-01,9.81467e-01,9.99999e-01,9.99999e-01,9.99682e-01,9.81779e-01,9.99998e-01
6.424448591e-01,9.81761e-01,9.99999e-01,9.99999e-01,9.99619e-01,9.82136e-01,9.99997e-01
6.456570834e-01,9.80573e-01,9.99999e-01,9.99999e-01,9.98063e-01,9.82485e-01,9.99988e-01
6.488853688e-01,9.81126e-01,9.99999e-01,9.99999e-01,9.98297e-01,9.82828e-01,9.99968e-01
6.521297956e-01,9.81689e-01,9.99999e-01,9.99999e-01,9.98524e-01,9.83165e-01,9.99973e-01
6.553904446e-01,9.82045e-01,9.99999e-01,9.99999e-01,9.98544e-01,9.83494e-01,9.99980e-01
6.586673968e-01,9.82573e-01,9.99999e-01,9.99999e-01,9.98740e-01,9.83818e-01,9.99993e-01
6.619607338e-01,9.83418e-01,9.99999e-01,9.99999e-01,9.99272e-01,9.84135e-01,9.99998e-01
6.652705375e-01,9.84029e-01,9.99999e-01,9.99999e-01,9.99577e-01,9.84446e-01,9.99998e-01
6.685968902e-01,9.84558e-01,9.99999e-01,9.99999e-01,9.99803e-01,9.84751e-01,9.99999e-01
6.719398746e-01,9.84960e-01,9.99999e-01,9.99999e-01,9.99908e-01,9.85050e-01,9.99999e-01
6.752995740e-01,9.85294e-01,9.99999e-01,9.99999e-01,9.99950e-01,9.85343e-01,9.99999e-01
6.786760719e-01,9.85561e-01,9.99999e-01,9.99999e-01,9.99929e-01,9.85630e-01,9.99999e-01
6.820694522e-01,9.85792e-01,9.99999e-01,9.99999e-01,9.99878e-01,9.85912e-01,9.99998e-01
6.854797995e-01,9.86034e-01,9.99999e-01,9.99999e-01,9.99844e-01,9.86188e-01,9.99998e-01
6.889071985e-01,9.86091e-01,9.99999e-01,9.99999e-01,9.99629e-01,9.86459e-01,9.99996e-01
6.923517345e-01,9.80661e-01,9.99999e-01,9.99999e-01,9.93883e-01,9.86725e-01,9.99969e-01
6.958134932e-01,9.83704e-01,9.99999e-01,9.99999e-01,9.96741e-01,9.86985e-01,9.99932e-01
6.992925606e-01,9.84197e-01,9.99999e-01,9.99999e-01,9.96974e-01,9.87241e-01,9.99940e-01
7.027890234e-01,9.83725e-01,9.99999e-01,9.99999e-01,9.96230e-01,9.87491e-01,9.99954e-01
7.063029686e-01,9.84589e-01,9.99999e-01,9.99999e-01,9.96834e-01,9.87737e-01,9.99977e-01
7.098344834e-01,9.84964e-01,9.99999e-01,9.99999e-01,9.96962e-01,9.87977e-01,9.99986e-01
7.133836558e-01,9.84249e-01,9.99999e-01,9.99999e-01,9.96013e-01,9.88214e-01,9.99973e-01
7.169505741e-01,9.56624e-01,9.99999e-01,9.99999e-01,9.68007e-01,9.88445e-01,9.99792e-01
7.205353270e-01,9.72390e-01,9.99999e-01,9.99999e-01,9.83890e-01,9.88672e-01,9.99634e-01
7.241380036e-01,9.68764e-01,9.99999e-01,9.99999e-01,9.79955e-01,9.88894e-01,9.99681e-01
7.277586936e-01,9.70928e-01,9.99999e-01,9.99999e-01,9.81873e-01,9.89113e-01,9.99735e-01
7.313974871e-01,9.70025e-01,9.99999e-01,9.99999e-01,9.80608e-01,9.89326e-01,9.99878e-01
7.350544745e-01,9.79000e-01,9.99999e-01,9.99999e-01,9.89393e-01,9.89536e-01,9.99957e-01
7.387297469e-01,9.81986e-01,9.99999e-01,9.99999e-01,9.92182e-01,9.89742e-01,9.99980e-01
7.424233956e-01,9.86138e-01,9.99999e-01,9.99999e-01,9.96158e-01,9.89943e-01,9.99995e-01
7.461355126e-01,9.87840e-01,9.99999e-01,9.99999e-01,9.97675e-01,9.90141e-01,9.99998e-01
7.498661902e-01,9.89260e-01,9.99999e-01,9.99999e-01,9.98914e-01,9.90335e-01,9.99999e-01
7.536155211e-01,9.89999e-01,9.99999e-01,9.99999e-01,9.99469e-01,9.90525e-01,9.99999e-01
7.573835987e-01,9.90440e-01,9.99999e-01,9.99999e-01,9.99726e-01,9.90711e-01,9.99999e-01
7.611705167e-01,9.90725e-01,9.99999e-01,9.99999e-01,9.99829e-01,9.90894e-01,9.99999e-01
7.649763693e-01,9.90967e-01,9.99999e-01,9.99999e-01,9.99893e-01,9.91073e-01,9.99999e-01
7.688012511e-01,9.91175e-01,9.99999e-01,9.99999e-01,9.99925e-01,9.91248e-01,9.99999e-01
7.726452574e-01,9.91360e-01,9.99999e-01,9.99999e-01,9.99938e-01,9.91420e-01,9.99999e-01
7.765084837e-01,9.91504e-01,9.99999e-01,9.99999e-01,9.99914e-01,9.91589e-01,9.99999e-01
7.803910261e-01,9.91388e-01,9.99999e-01,9.99999e-01,9.99630e-01,9.91754e-01,9.99999e-01
7.842929812e-01,9.90637e-01,9.99999e-01,9.99999e-01,9.98712e-01,9.91917e-01,9.99997e-01
7.882144461e-01,9.89402e-01,9.99999e-01,9.99999e-01,9.97320e-01,9.92076e-01,9.99983e-01
7.921555184e-01,9.90733e-01,9.99999e-01,9.99999e-01,9.98521e-01,9.92232e-01,9.99967e-01
7.961162960e-01,9.89796e-01,9.99999e-01,9.99999e-01,9.97421e-01,9.92384e-01,9.99969e-01
8.000968774e-01,9.89528e-01,9.99999e-01,9.99999e-01,9.97002e-01,9.92534e-01,9.99967e-01
8.040973618e-01,9.89685e-01,9.99999e-01,9.99999e-01,9.97006e-01,9.92681e-01,9.99973e-01
8.081178486e-01,9.86159e-01,9.99999e-01,9.99999e-01,9.93309e-01,9.92825e-01,9.99975e-01
8.121584379e-01,9.65336e-01,9.99999e-01,9.99999e-01,9.72265e-01,9.92966e-01,9.99904e-01
8.162192301e-01,9.59745e-01,9.99999e-01,9.99999e-01,9.66751e-01,9.93105e-01,9.99644e-01
8.203003262e-01,9.76524e-01,9.99999e-01,9.99999e-01,9.83578e-01,9.93241e-01,9.99583e-01
8.244018279e-01,9.69602e-01,9.99999e-01,9.99999e-01,9.76392e-01,9.93374e-01,9.99668e-01
8.285238370e-01,9.73583e-01,9.99999e-01,9.99999e-01,9.80203e-01,9.93504e-01,9.99739e-01
8.326664562e-01,9.73541e-01,9.99999e-01,9.99999e-01,9.79884e-01,9.93632e-01,9.99891e-01
8.368297885e-01,9.79408e-01,9.99999e-01,9.99999e-01,9.85584e-01,9.93757e-01,9.99974e-01
8.410139374e-01,9.85330e-01,9.99999e-01,9.99999e-01,9.91411e-01,9.93880e-01,9.99985e-01
8.452190071e-01,9.89795e-01,9.99999e-01,9.99999e-01,9.95776e-01,9.94001e-01,9.99990e-01
8.494451021e-01,9.91686e-01,9.99999e-01,9.99999e-01,9.97559e-01,9.94119e-01,9.99992e-01
8.536923276e-01,9.92789e-01,9.99999e-01,9.99999e-01,9.98549e-01,9.94235e-01,9.99994e-01
8.579607893e-01,9.93463e-01,9.99999e-01,9.99999e-01,9.99110e-01,9.94348e-01,9.99998e-01
8.622505932e-01,9.93896e-01,9.99999e-01,9.99999e-01,9.99433e-01,9.94459e-01,9.99999e-01
8.665618462e-01,9.94222e-01,9.99999e-01,9.99999e-01,9.99650e-01,9.94569e-01,9.99999e-01
8.708946554e-01,9.94279e-01,9.99999e-01,9.99999e-01,9.99601e-01,9.94676e-01,9.99999e-01
8.752491287e-01,9.94249e-01,9.99999e-01,9.99999e-01,9.99465e-01,9.94780e-01,9.99998e-01
8.796253743e-01,9.94149e-01,9.99999e-01,9.99999e-01,9.99263e-01,9.94883e-01,9.99997e-01
8.840235012e-01,9.94141e-01,9.99999e-01,9.99999e-01,9.99157e-01,9.94984e-01,9.99994e-01
8.884436187e-01,9.92076e-01,9.99999e-01,9.99999e-01,9.96992e-01,9.95083e-01,9.99984e-01
8.928858368e-01,9.63418e-01,9.99999e-01,9.99999e-01,9.68165e-01,9.95180e-01,9.99915e-01
8.973502660e-01,9.38824e-01,9.99999e-01,9.99999e-01,9.43689e-01,9.95275e-01,9.99567e-01
9.018370173e-01,9.65448e-01,9.99999e-01,9.99999e-01,9.70599e-01,9.95368e-01,9.99319e-01
9.063462024e-01,9.69570e-01,9.99999e-01,9.99999e-01,9.74574e-01,9.95459e-01,9.99402e-01
9.108779334e-01,9.55512e-01,9.99999e-01,9.99999e-01,9.60379e-01,9.95549e-01,9.99379e-01
9.154323231e-01,9.50385e-01,9.99999e-01,9.99999e-01,9.55040e-01,9.95636e-01,9.99486e-01
9.200094847e-01,9.60087e-01,9.99999e-01,9.99999e-01,9.64488e-01,9.95722e-01,9.99712e-01
9.246095321e-01,9.41667e-01,9.99999e-01,9.99999e-01,9.45945e-01,9.95807e-01,9.99668e-01
9.292325798e-01,6.80489e-01,9.99999e-01,9.99999e-01,6.84179e-01,9.95889e-01,9.98710e-01
9.338787427e-01,6.03171e-01,9.99999e-01,9.99999e-01,6.08850e-01,9.95970e-01,9.94679e-01
9.385481364e-01,8.10389e-01,9.99999e-01,9.99999e-01,8.18780e-01,9.96050e-01,9.93675e-01
9.432408771e-01,7.50895e-01,9.99999e-01,9.99999e-01,7.57950e-01,9.96127e-01,9.94541e-01
9.479570815e-01,6.75609e-01,9.99999e-01,9.99999e-01,6.81211e-01,9.96204e-01,9.95555e-01
9.526968669e-01,7.44362e-01,9.99999e-01,9.99999e-01,7.49175e-01,9.96279e-01,9.97286e-01
9.574603512e-01,7.65572e-01,9.99999e-01,9.99999e-01,7.69436e-01,9.96352e-01,9.98620e-01
9.622476530e-01,8.04171e-01,9.99999e-01,9.99999e-01,8.07827e-01,9.96424e-01,9.99045e-01
9.670588912e-01,8.80938e-01,9.99999e-01,9.99999e-01,8.84614e-01,9.96494e-01,9.99347e-01
9.718941857e-01,9.22957e-01,9.99999e-01,9.99999e-01,9.26584e-01,9.96564e-01,9.99519e-01
9.767536566e-01,9.35206e-01,9.99999e-01,9.99999e-01,9.38710e-01,9.96631e-01,9.99632e-01
9.816374249e-01,9.50849e-01,9.99999e-01,9.99999e-01,9.54120e-01,9.96698e-01,9.99872e-01
9.865456120e-01,9.67923e-01,9.99999e-01,9.99999e-01,9.71091e-01,9.96763e-01,9.99973e-01
9.914783401e-01,9.78932e-01,9.99999e-01,9.99999e-01,9.82054e-01,9.96827e-01,9.99992e-01
9.964357318e-01,9.87102e-01,9.99999e-01,9.99999e-01,9.90185e-01,9.96889e-01,9.99995e-01
1.001417910e+00,9.91069e-01,9.99999e-01,9.99999e-01,9.94106e-01,9.96950e-01,9.99992e-01
1.006425000e+00,9.93657e-01,9.99999e-01,9.99999e-01,9.96645e-01,9.97011e-01,9.99990e-01
1.011457125e+00,9.94977e-01,9.99999e-01,9.99999e-01,9.97909e-01,9.97070e-01,9.99990e-01
1.016514411e+00,9.95709e-01,9.99999e-01,9.99999e-01,9.98583e-01,9.97127e-01,9.99993e-01
1.021596983e+00,9.96054e-01,9.99999e-01,9.99999e-01,9.98872e-01,9.97184e-01,9.99993e-01
1.026704968e+00,9.96359e-01,9.99999e-01,9.99999e-01,9.99120e-01,9.97240e-01,9.99995e-01
1.031838492e+00,9.96654e-01,9.99999e-01,9.99999e-01,9.99359e-01,9.97294e-01,9.99998e-01
1.036997685e+00,9.96969e-01,9.99999e-01,9.99999e-01,9.99620e-01,9.97347e-01,9.99999e-01
1.042182673e+00,9.96950e-01,9.99999e-01,9.99999e-01,9.99549e-01,9.97400e-01,9.99999e-01
1.047393587e+00,9.96854e-01,9.99999e-01,9.99999e-01,9.99400e-01,9.97451e-01,9.99999e-01
1.052630555e+00,9.96683e-01,9.99999e-01,9.99999e-01,9.99179e-01,9.97501e-01,9.99999e-01
1.057893707e+00,9.96187e-01,9.99999e-01,9.99999e-01,9.98632e-01,9.97550e-01,9.99999e-01
1.063183176e+00,9.95351e-01,9.99999e-01,9.99999e-01,9.97747e-01,9.97599e-01,9.99998e-01
1.068499092e+00,9.93877e-01,9.99999e-01,9.99999e-01,9.96224e-01,9.97646e-01,9.99996e-01
1.073841587e+00,9.93288e-01,9.99999e-01,9.99999e-01,9.95590e-01,9.97693e-01,9.99993e-01
1.079210795e+00,9.92067e-01,9.99999e-01,9.99999e-01,9.94330e-01,9.97738e-01,9.99984e-01
1.084606849e+00,9.89210e-01,9.99999e-01,9.99999e-01,9.91444e-01,9.97783e-01,9.99963e-01
1.090029883e+00,9.85588e-01,9.99999e-01,9.99999e-01,9.87808e-01,9.97826e-01,9.99924e-01
1.095480033e+00,9.64852e-01,9.99999e-01,9.99999e-01,9.67043e-01,9.97869e-01,9.99863e-01
1.100957433e+00,9.16121e-01,9.99999e-01,9.99999e-01,9.18268e-01,9.97911e-01,9.99748e-01
1.106462220e+00,8.02895e-01,9.99999e-01,9.99999e-01,8.04884e-01,9.97952e-01,9.99574e-01
1.111994531e+00,6.29048e-01,9.99999e-01,9.99999e-01,6.31025e-01,9.97993e-01,9.98870e-01
1.117554504e+00,4.70513e-01,9.99999e-01,9.99999e-01,4.73367e-01,9.98032e-01,9.95929e-01
1.123142276e+00,5.66390e-01,9.99999e-01,9.99999e-01,5.72998e-01,9.98071e-01,9.90375e-01
1.128757988e+00,6.93878e-01,9.99999e-01,9.99999e-01,7.03013e-01,9.98109e-01,9.88874e-01
1.134401778e+00,4.39753e-01,9.99999e-01,9.99999e-01,4.44881e-01,9.98147e-01,9.90308e-01
1.140073787e+00,8.03852e-01,9.99999e-01,9.99999e-01,8.11623e-01,9.98183e-01,9.92226e-01
1.145774156e+00,6.38818e-01,9.99999e-01,9.99999e-01,6.44425e-01,9.98219e-01,9.93066e-01
1.151503026e+00,6.09044e-01,9.99999e-01,9.99999e-01,6.12478e-01,9.98254e-01,9.96131e-01
1.157260541e+00,6.64365e-01,9.99999e-01,9.99999e-01,6.66275e-01,9.98289e-01,9.98841e-01
1.163046844e+00,7.38985e-01,9.99999e-01,9.99999e-01,7.40469e-01,9.98322e-01,9.99671e-01
1.168862078e+00,8.10618e-01,9.99999e-01,9.99999e-01,8.12090e-01,9.98355e-01,9.99830e-01
1.174706389e+00,8.77912e-01,9.99999e-01,9.99999e-01,8.79526e-01,9.98388e-01,9.99775e-01
1.180579921e+00,9.23026e-01,9.99999e-01,9.99999e-01,9.24800e-01,9.98420e-01,9.99660e-01
1.186482820e+00,9.55061e-01,9.99999e-01,9.99999e-01,9.56875e-01,9.98451e-01,9.99651e-01
1.192415234e+00,9.72910e-01,9.99999e-01,9.99999e-01,9.74642e-01,9.98481e-01,9.99738e-01
1.198377311e+00,9.76934e-01,9.99999e-01,9.99999e-01,9.78631e-01,9.98511e-01,9.99753e-01
1.204369197e+00,9.78089e-01,9.99999e-01,9.99999e-01,9.79735e-01,9.98541e-01,9.99776e-01
1.210391043e+00,9.79079e-01,9.99999e-01,9.99999e-01,9.80613e-01,9.98569e-01,9.99864e-01
1.216442998e+00,9.81983e-01,9.99999e-01,9.99999e-01,9.83443e-01,9.98598e-01,9.99916e-01
1.222525213e+00,9.85698e-01,9.99999e-01,9.99999e-01,9.87105e-01,9.98625e-01,9.99947e-01
1.228637839e+00,9.89679e-01,9.99999e-01,9.99999e-01,9.91038e-01,9.98652e-01,9.99975e-01
