#,Wave/freq,Total,N2,O2,H2O,Rayleigh,CIA
4.000000000e-01,9.12449e-01,9.99999e-01,9.99999e-01,9.99989e-01,9.12458e-01,9.99999e-01
4.020000000e-01,9.14107e-01,9.99999e-01,9.99999e-01,9.99993e-01,9.14113e-01,9.99999e-01
4.040100000e-01,9.15733e-01,9.99999e-01,9.99999e-01,9.99996e-01,9.15736e-01,9.99999e-01
4.060300500e-01,9.17329e-01,9.99999e-01,9.99999e-01,9.99998e-01,9.17329e-01,9.99999e-01
4.080602003e-01,9.18894e-01,9.99999e-01,9.99999e-01,9.99999e-01,9.18894e-01,9.99999e-01
4.101005013e-01,9.20431e-01,9.99999e-01,9.99999e-01,9.99999e-01,9.20431e-01,9.99999e-01
4.121510038e-01,9.21939e-01,9.99999e-01,9.99999e-01,9.99999e-01,9.21939e-01,9.99999e-01
4.142117588e-01,9.23418e-01,9.99999e-01,9.99999e-01,9.99996e-01,9.23421e-01,9.99999e-01
4.162828176e-01,9.24863e-01,9.99999e-01,9.99999e-01,9.99986e-01,9.24875e-01,9.99999e-01
4.183642317e-01,9.26296e-01,9.99999e-01,9.99999e-01,9.99991e-01,9.26303e-01,9.99999e-01
4.204560528e-01,9.27700e-01,9.99999e-01,9.99999e-01,9.99994e-01,9.27704e-01,9.99999e-01
4.225583331e-01,9.29079e-01,9.99999e-01,9.99999e-01,9.99997e-01,9.29081e-01,9.99999e-01
4.246711247e-01,9.30430e-01,9.99999e-01,9.99999e-01,9.99998e-01,9.30431e-01,9.99999e-01
4.267944804e-01,9.31756e-01,9.99999e-01,9.99999e-01,9.99997e-01,9.31758e-01,9.99999e-01
4.289284528e-01,9.33058e-01,9.99999e-01,9.99999e-01,9.99997e-01,9.33059e-01,9.99999e-01
4.310730950e-01,9.34337e-01,9.99999e-01,9.99999e-01,9.99998e-01,9.34337e-01,9.99999e-01
4.332284605e-01,9.35591e-01,9.99999e-01,9.99999e-01,9.99999e-01,9.35591e-01,9.99999e-01
4.353946028e-01,9.36823e-01,9.99999e-01,9.99999e-01,9.99999e-01,9.36823e-01,9.99999e-01
4.375715758e-01,9.38030e-01,9.99999e-01,9.99999e-01,9.99998e-01,9.38031e-01,9.99999e-01
4.397594337e-01,9.39207e-01,9.99999e-01,9.99999e-01,9.99988e-01,9.39217e-01,9.99999e-01
4.419582309e-01,9.40328e-01,9.99999e-01,9.99999e-01,9.99943e-01,9.40381e-01,9.99999e-01
4.441680220e-01,9.41481e-01,9.99999e-01,9.99999e-01,9.99954e-01,9.41524e-01,9.99999e-01
4.463888621e-01,9.42601e-01,9.99999e-01,9.99999e-01,9.99953e-01,9.42645e-01,9.99999e-01
4.486208064e-01,9.43718e-01,9.99999e-01,9.99999e-01,9.99970e-01,9.43745e-01,9.99999e-01
4.508639105e-01,9.44812e-01,9.99999e-01,9.99999e-01,9.99985e-01,9.44825e-01,9.99999e-01
4.531182300e-01,9.45880e-01,9.99999e-01,9.99999e-01,9.99994e-01,9.45885e-01,9.99999e-01
4.553838212e-01,9.46921e-01,9.99999e-01,9.99999e-01,9.99995e-01,9.46925e-01,9.99999e-01
4.576607403e-01,9.47944e-01,9.99999e-01,9.99999e-01,9.99997e-01,9.47945e-01,9.99999e-01
4.599490440e-01,9.48946e-01,9.99999e-01,9.99999e-01,9.99998e-01,9.48947e-01,9.99999e-01
4.622487892e-01,9.49929e-01,9.99999e-01,9.99999e-01,9.99999e-01,9.49930e-01,9.99999e-01
4.645600332e-01,9.50893e-01,9.99999e-01,9.99999e-01,9.99998e-01,9.50894e-01,9.99999e-01
4.668828333e-01,9.51827e-01,9.99999e-01,9.99999e-01,9.99985e-01,9.51840e-01,9.99999e-01
4.692172475e-01,9.52741e-01,9.99999e-01,9.99999e-01,9.99970e-01,9.52769e-01,9.99999e-01
4.715633337e-01,9.53661e-01,9.99999e-01,9.99999e-01,9.99980e-01,9.53680e-01,9.99999e-01
4.739211504e-01,9.54556e-01,9.99999e-01,9.99999e-01,9.99981e-01,9.54573e-01,9.99999e-01
4.762907561e-01,9.55441e-01,9.99999e-01,9.99999e-01,9.99990e-01,9.55450e-01,9.99999e-01
4.786722099e-01,9.56307e-01,9.99999e-01,9.99999e-01,9.99995e-01,9.56311e-01,9.99999e-01
4.810655710e-01,9.57154e-01,9.99999e-01,9.99999e-01,9.99998e-01,9.57155e-01,9.99999e-01
4.834708988e-01,9.57973e-01,9.99999e-01,9.99999e-01,9.99988e-01,9.57983e-01,9.99999e-01
4.858882533e-01,9.58776e-01,9.99999e-01,9.99999e-01,9.99978e-01,9.58796e-01,9.99999e-01
4.883176946e-01,9.59577e-01,9.99999e-01,9.99999e-01,9.99982e-01,9.59593e-01,9.99999e-01
4.907592831e-01,9.60360e-01,9.99999e-01,9.99999e-01,9.99983e-01,9.60375e-01,9.99999e-01
4.932130795e-01,9.61132e-01,9.99999e-01,9.99999e-01,9.99988e-01,9.61142e-01,9.99999e-01
4.956791449e-01,9.61889e-01,9.99999e-01,9.99999e-01,9.99993e-01,9.61895e-01,9.99999e-01
4.981575406e-01,9.62605e-01,9.99999e-01,9.99999e-01,9.99970e-01,9.62633e-01,9.99999e-01
5.006483283e-01,9.63285e-01,9.99999e-01,9.99999e-01,9.99924e-01,9.63358e-01,9.99998e-01
5.031515699e-01,9.63695e-01,9.99999e-01,9.99999e-01,9.99616e-01,9.64068e-01,9.99995e-01
5.056673278e-01,9.64565e-01,9.99999e-01,9.99999e-01,9.99796e-01,9.64765e-01,9.99994e-01
5.081956644e-01,9.65199e-01,9.99999e-01,9.99999e-01,9.99743e-01,9.65449e-01,9.99996e-01
5.107366428e-01,9.65952e-01,9.99999e-01,9.99999e-01,9.99826e-01,9.66120e-01,9.99998e-01
5.132903260e-01,9.66682e-01,9.99999e-01,9.99999e-01,9.99900e-01,9.66778e-01,9.99999e-01
5.158567776e-01,9.67383e-01,9.99999e-01,9.99999e-01,9.99957e-01,9.67423e-01,9.99999e-01
5.184360615e-01,9.68040e-01,9.99999e-01,9.99999e-01,9.99982e-01,9.68056e-01,9.99999e-01
5.210282418e-01,9.68671e-01,9.99999e-01,9.99999e-01,9.99993e-01,9.68677e-01,9.99999e-01
5.236333830e-01,9.69262e-01,9.99999e-01,9.99999e-01,9.99974e-01,9.69286e-01,9.99999e-01
5.262515499e-01,9.69868e-01,9.99999e-01,9.99999e-01,9.99983e-01,9.69884e-01,9.99999e-01
5.288828077e-01,9.70456e-01,9.99999e-01,9.99999e-01,9.99985e-01,9.70470e-01,9.99999e-01
5.315272217e-01,9.71032e-01,9.99999e-01,9.99999e-01,9.99986e-01,9.71045e-01,9.99999e-01
5.341848578e-01,9.71600e-01,9.99999e-01,9.99999e-01,9.99991e-01,9.71608e-01,9.99999e-01
5.368557821e-01,9.72133e-01,9.99999e-01,9.99999e-01,9.99970e-01,9.72161e-01,9.99999e-01
5.395400610e-01,9.72602e-01,9.99999e-01,9.99999e-01,9.99895e-01,9.72704e-01,9.99998e-01
5.422377613e-01,9.73100e-01,9.99999e-01,9.99999e-01,9.99863e-01,9.73235e-01,9.99997e-01
5.449489501e-01,9.73632e-01,9.99999e-01,9.99999e-01,9.99873e-01,9.73757e-01,9.99996e-01
5.476736949e-01,9.74158e-01,9.99999e-01,9.99999e-01,9.99886e-01,9.74269e-01,9.99998e-01
5.504120634e-01,9.74691e-01,9.99999e-01,9.99999e-01,9.99917e-01,9.74770e-01,9.99999e-01
5.531641237e-01,9.75222e-01,9.99999e-01,9.99999e-01,9.99958e-01,9.75263e-01,9.99999e-01
5.559299443e-01,9.75726e-01,9.99999e-01,9.99999e-01,9.99979e-01,9.75745e-01,9.99999e-01
5.587095940e-01,9.76206e-01,9.99999e-01,9.99999e-01,9.99987e-01,9.76218e-01,9.99999e-01
5.615031420e-01,9.76669e-01,9.99999e-01,9.99999e-01,9.99985e-01,9.76683e-01,9.99999e-01
5.643106577e-01,9.77123e-01,9.99999e-01,9.99999e-01,9.99984e-01,9.77138e-01,9.99999e-01
5.671322110e-01,9.77402e-01,9.99999e-01,9.99999e-01,9.99813e-01,9.77584e-01,9.99997e-01
5.699678720e-01,9.77818e-01,9.99999e-01,9.99999e-01,9.99795e-01,9.78022e-01,9.99994e-01
5.728177114e-01,9.78242e-01,9.99999e-01,9.99999e-01,9.99789e-01,9.78452e-01,9.99995e-01
5.756818000e-01,9.78681e-01,9.99999e-01,9.99999e-01,9.99806e-01,9.78873e-01,9.99996e-01
5.785602090e-01,9.79120e-01,9.99999e-01,9.99999e-01,9.99830e-01,9.79286e-01,9.99998e-01
5.814530100e-01,9.79525e-01,9.99999e-01,9.99999e-01,9.99830e-01,9.79691e-01,9.99999e-01
5.843602750e-01,9.79891e-01,9.99999e-01,9.99999e-01,9.99800e-01,9.80088e-01,9.99998e-01
5.872820764e-01,9.78775e-01,9.99999e-01,9.99999e-01,9.98275e-01,9.80477e-01,9.99987e-01
5.902184868e-01,9.78756e-01,9.99999e-01,9.99999e-01,9.97888e-01,9.80859e-01,9.99966e-01
5.931695792e-01,9.79743e-01,9.99999e-01,9.99999e-01,9.98513e-01,9.81234e-01,9.99967e-01
5.961354271e-01,9.79978e-01,9.99999e-01,9.99999e-01,9.98366e-01,9.81601e-01,9.99979e-01
5.991161043e-01,9.80784e-01,9.99999e-01,9.99999e-01,9.98806e-01,9.81961e-01,9.99993e-01
6.021116848e-01,9.81648e-01,9.99999e-01,9.99999e-01,9.99321e-01,9.82314e-01,9.99998e-01
6.051222432e-01,9.82323e-01,9.99999e-01,9.99999e-01,9.99656e-01,9.82660e-01,9.99999e-01
6.081478544e-01,9.82855e-01,9.99999e-01,9.99999e-01,9.99851e-01,9.83000e-01,9.99999e-01
6.111885937e-01,9.83271e-01,9.99999e-01,9.99999e-01,9.99936e-01,9.83333e-01,9.99999e-01
6.142445367e-01,9.83632e-01,9.99999e-01,9.99999e-01,9.99971e-01,9.83659e-01,9.99999e-01
6.173157594e-01,9.83964e-01,9.99999e-01,9.99999e-01,9.99984e-01,9.83979e-01,9.99999e-01
6.204023382e-01,9.84281e-01,9.99999e-01,9.99999e-01,9.99986e-01,9.84293e-01,9.99999e-01
6.235043498e-01,9.84546e-01,9.99999e-01,9.99999e-01,9.99943e-01,9.84601e-01,9.99999e-01
6.266218716e-01,9.84603e-01,9.99999e-01,9.99999e-01,9.99696e-01,9.84903e-01,9.99997e-01
6.297549810e-01,9.85086e-01,9.99999e-01,9.99999e-01,9.99888e-01,9.85199e-01,9.99995e-01
6.329037559e-01,9.85269e-01,9.99999e-01,9.99999e-01,9.99779e-01,9.85489e-01,9.99996e-01
6.360682746e-01,9.85588e-01,9.99999e-01,9.99999e-01,9.99813e-01,9.85774e-01,9.99997e-01
6.392486160e-01,9.85813e-01,9.99999e-01,9.99999e-01,9.99757e-01,9.86053e-01,9.99998e-01
6.424448591e-01,9.86039e-01,9.99999e-01,9.99999e-01,9.99709e-01,9.86326e-01,9.99998e-01
6.456570834e-01,9.85127e-01,9.99999e-01,9.99999e-01,9.98520e-01,9.86595e-01,9.99991e-01
6.488853688e-01,9.85552e-01,9.99999e-01,9.99999e-01,9.98699e-01,9.86858e-01,9.99976e-01
6.521297956e-01,9.85984e-01,9.99999e-01,9.99999e-01,9.98872e-01,9.87116e-01,9.99979e-01
6.553904446e-01,9.86257e-01,9.99999e-01,9.99999e-01,9.98888e-01,9.87368e-01,9.99984e-01
6.586673968e-01,9.86662e-01,9.99999e-01,9.99999e-01,9.99037e-01,9.87616e-01,9.99994e-01
6.619607338e-01,9.87310e-01,9.99999e-01,9.99999e-01,9.99443e-01,9.87859e-01,9.99998e-01
6.652705375e-01,9.87778e-01,9.99999e-01,9.99999e-01,9.99676e-01,9.88098e-01,9.99998e-01
6.685968902e-01,9.88183e-01,9.99999e-01,9.99999e-01,9.99849e-01,9.88331e-01,9.99999e-01
6.719398746e-01,9.88492e-01,9.99999e-01,9.99999e-01,9.99930e-01,9.88561e-01,9.99999e-01
6.752995740e-01,9.88748e-01,9.99999e-01,9.99999e-01,9.99962e-01,9.88785e-01,9.99999e-01
6.786760719e-01,9.88952e-01,9.99999e-01,9.99999e-01,9.99945e-01,9.89006e-01,9.99999e-01
6.820694522e-01,9.89130e-01,9.99999e-01,9.99999e-01,9.99907e-01,9.89222e-01,9.99999e-01
6.854797995e-01,9.89315e-01,9.99999e-01,9.99999e-01,9.99880e-01,9.89433e-01,9.99998e-01
6.889071985e-01,9.89359e-01,9.99999e-01,9.99999e-01,9.99717e-01,9.89641e-01,9.99996e-01
6.923517345e-01,9.85194e-01,9.99999e-01,9.99999e-01,9.95323e-01,9.89844e-01,9.99976e-01
6.958134932e-01,9.87529e-01,9.99999e-01,9.99999e-01,9.97509e-01,9.90044e-01,9.99948e-01
6.992925606e-01,9.87907e-01,9.99999e-01,9.99999e-01,9.97688e-01,9.90240e-01,9.99954e-01
7.027890234e-01,9.87545e-01,9.99999e-01,9.99999e-01,9.97119e-01,9.90432e-01,9.99965e-01
7.063029686e-01,9.88207e-01,9.99999e-01,9.99999e-01,9.97581e-01,9.90620e-01,9.99982e-01
7.098344834e-01,9.88495e-01,9.99999e-01,9.99999e-01,9.97679e-01,9.90804e-01,9.99989e-01
7.133836558e-01,9.87946e-01,9.99999e-01,9.99999e-01,9.96953e-01,9.90985e-01,9.99979e-01
7.169505741e-01,9.66671e-01,9.99999e-01,9.99999e-01,9.75444e-01,9.91162e-01,9.99841e-01
7.205353270e-01,9.78832e-01,9.99999e-01,9.99999e-01,9.87661e-01,9.91336e-01,9.99720e-01
7.241380036e-01,9.76044e-01,9.99999e-01,9.99999e-01,9.84643e-01,9.91506e-01,9.99756e-01
7.277586936e-01,9.77709e-01,9.99999e-01,9.99999e-01,9.86116e-01,9.91673e-01,9.99797e-01
7.313974871e-01,9.77017e-01,9.99999e-01,9.99999e-01,9.85148e-01,9.91837e-01,9.99907e-01
7.350544745e-01,9.83918e-01,9.99999e-01,9.99999e-01,9.91886e-01,9.91998e-01,9.99967e-01
7.387297469e-01,9.86211e-01,9.99999e-01,9.99999e-01,9.94022e-01,9.92155e-01,9.99984e-01
7.424233956e-01,9.89394e-01,9.99999e-01,9.99999e-01,9.97064e-01,9.92309e-01,9.99996e-01
7.461355126e-01,9.90698e-01,9.99999e-01,9.99999e-01,9.98224e-01,9.92461e-01,9.99999e-01
7.498661902e-01,9.91786e-01,9.99999e-01,9.99999e-01,9.99170e-01,9.92609e-01,9.99999e-01
7.536155211e-01,9.92352e-01,9.99999e-01,9.99999e-01,9.99594e-01,9.92755e-01,9.99999e-01
7.573835987e-01,9.92690e-01,9.99999e-01,9.99999e-01,9.99790e-01,9.92897e-01,9.99999e-01
7.611705167e-01,9.92908e-01,9.99999e-01,9.99999e-01,9.99869e-01,9.93037e-01,9.99999e-01
7.649763693e-01,9.93093e-01,9.99999e-01,9.99999e-01,9.99918e-01,9.93174e-01,9.99999e-01
7.688012511e-01,9.93252e-01,9.99999e-01,9.99999e-01,9.99943e-01,9.93308e-01,9.99999e-01
7.726452574e-01,9.93394e-01,9.99999e-01,9.99999e-01,9.99953e-01,9.93440e-01,9.99999e-01
7.765084837e-01,9.93504e-01,9.99999e-01,9.99999e-01,9.99934e-01,9.93569e-01,9.99999e-01
7.803910261e-01,9.93416e-01,9.99999e-01,9.99999e-01,9.99717e-01,9.93696e-01,9.99999e-01
7.842929812e-01,9.92841e-01,9.99999e-01,9.99999e-01,9.99016e-01,9.93820e-01,9.99997e-01
7.882144461e-01,9.91895e-01,9.99999e-01,9.99999e-01,9.97952e-01,9.93942e-01,9.99987e-01
7.921555184e-01,9.92914e-01,9.99999e-01,9.99999e-01,9.98870e-01,9.94061e-01,9.99975e-01
7.961162960e-01,9.92196e-01,9.99999e-01,9.99999e-01,9.98029e-01,9.94178e-01,9.99976e-01
8.000968774e-01,9.91991e-01,9.99999e-01,9.99999e-01,9.97709e-01,9.94293e-01,9.99974e-01
8.040973618e-01,9.92111e-01,9.99999e-01,9.99999e-01,9.97712e-01,9.94405e-01,9.99979e-01
8.081178486e-01,9.89410e-01,9.99999e-01,9.99999e-01,9.94884e-01,9.94515e-01,9.99981e-01
8.121584379e-01,9.73399e-01,9.99999e-01,9.99999e-01,9.78731e-01,9.94623e-01,9.99927e-01
8.162192301e-01,9.69083e-01,9.99999e-01,9.99999e-01,9.74482e-01,9.94729e-01,9.99728e-01
8.203003262e-01,9.81992e-01,9.99999e-01,9.99999e-01,9.87405e-01,9.94833e-01,9.99681e-01
8.244018279e-01,9.76646e-01,9.99999e-01,9.99999e-01,9.81866e-01,9.94935e-01,9.99746e-01
8.285238370e-01,9.79751e-01,9.99999e-01,9.99999e-01,9.84835e-01,9.95034e-01,9.99800e-01
8.326664562e-01,9.79717e-01,9.99999e-01,9.99999e-01,9.84589e-01,9.95132e-01,9.99917e-01
8.368297885e-01,9.84230e-01,9.99999e-01,9.99999e-01,9.88967e-01,9.95228e-01,9.99980e-01
8.410139374e-01,9.88775e-01,9.99999e-01,9.99999e-01,9.93432e-01,9.95322e-01,9.99988e-01
8.452190071e-01,9.92195e-01,9.99999e-01,9.99999e-01,9.96772e-01,9.95414e-01,9.99992e-01
8.494451021e-01,9.93643e-01,9.99999e-01,9.99999e-01,9.98134e-01,9.95505e-01,9.99994e-01
8.536923276e-01,9.94487e-01,9.99999e-01,9.99999e-01,9.98892e-01,9.95593e-01,9.99996e-01
8.579607893e-01,9.95003e-01,9.99999e-01,9.99999e-01,9.99320e-01,9.95680e-01,9.99998e-01
8.622505932e-01,9.95334e-01,9.99999e-01,9.99999e-01,9.99566e-01,9.95765e-01,9.99999e-01
8.665618462e-01,9.95583e-01,9.99999e-01,9.99999e-01,9.99733e-01,9.95849e-01,9.99999e-01
8.708946554e-01,9.95627e-01,9.99999e-01,9.99999e-01,9.99695e-01,9.95931e-01,9.99999e-01
8.752491287e-01,9.95604e-01,9.99999e-01,9.99999e-01,9.99591e-01,9.96011e-01,9.99999e-01
8.796253743e-01,9.95528e-01,9.99999e-01,9.99999e-01,9.99437e-01,9.96089e-01,9.99998e-01
8.840235012e-01,9.95522e-01,9.99999e-01,9.99999e-01,9.99356e-01,9.96166e-01,9.99995e-01
8.884436187e-01,9.93941e-01,9.99999e-01,9.99999e-01,9.97701e-01,9.96242e-01,9.99988e-01
8.928858368e-01,9.71911e-01,9.99999e-01,9.99999e-01,9.75567e-01,9.96316e-01,9.99935e-01
8.973502660e-01,9.52868e-01,9.99999e-01,9.99999e-01,9.56636e-01,9.96389e-01,9.99669e-01
9.018370173e-01,9.73467e-01,9.99999e-01,9.99999e-01,9.77432e-01,9.96460e-01,9.99480e-01
9.063462024e-01,9.76650e-01,9.99999e-01,9.99999e-01,9.80498e-01,9.96530e-01,9.99543e-01
9.108779334e-01,9.65801e-01,9.99999e-01,9.99999e-01,9.69556e-01,9.96598e-01,9.99525e-01
9.154323231e-01,9.61844e-01,9.99999e-01,9.99999e-01,9.65439e-01,9.96665e-01,9.99607e-01
9.200094847e-01,9.69335e-01,9.99999e-01,9.99999e-01,9.72727e-01,9.96731e-01,9.99780e-01
9.246095321e-01,9.54963e-01,9.99999e-01,9.99999e-01,9.58275e-01,9.96795e-01,9.99746e-01
9.292325798e-01,7.43477e-01,9.99999e-01,9.99999e-01,7.46554e-01,9.96858e-01,9.99014e-01
9.338787427e-01,6.77159e-01,9.99999e-01,9.99999e-01,6.82023e-01,9.96920e-01,9.95933e-01
9.385481364e-01,8.50539e-01,9.99999e-01,9.99999e-01,8.57257e-01,9.96981e-01,9.95165e-01
9.432408771e-01,8.01174e-01,9.99999e-01,9.99999e-01,8.06917e-01,9.97041e-01,9.95828e-01
9.479570815e-01,7.37096e-01,9.99999e-01,9.99999e-01,7.41759e-01,9.97099e-01,9.96603e-01
9.526968669e-01,7.95672e-01,9.99999e-01,9.99999e-01,7.99597e-01,9.97156e-01,9.97926e-01
9.574603512e-01,8.14541e-01,9.99999e-01,9.99999e-01,8.17679e-01,9.97212e-01,9.98946e-01
9.622476530e-01,8.46137e-01,9.99999e-01,9.99999e-01,8.49073e-01,9.97267e-01,9.99270e-01
9.670588912e-01,9.07467e-01,9.99999e-01,9.99999e-01,9.10357e-01,9.97321e-01,9.99501e-01
9.718941857e-01,9.40545e-01,9.99999e-01,9.99999e-01,9.43367e-01,9.97374e-01,9.99632e-01
9.767536566e-01,9.50081e-01,9.99999e-01,9.99999e-01,9.52799e-01,9.97426e-01,9.99719e-01
9.816374249e-01,9.62218e-01,9.99999e-01,9.99999e-01,9.64745e-01,9.97477e-01,9.99902e-01
9.865456120e-01,9.75399e-01,9.99999e-01,9.99999e-01,9.77836e-01,9.97526e-01,9.99979e-01
9.914783401e-01,9.83866e-01,9.99999e-01,9.99999e-01,9.86262e-01,9.97575e-01,9.99993e-01
9.964357318e-01,9.90132e-01,9.99999e-01,9.99999e-01,9.92494e-01,9.97623e-01,9.99996e-01
1.001417910e+00,9.93171e-01,9.99999e-01,9.99999e-01,9.95495e-01,9.97670e-01,9.99994e-01
1.006425000e+00,9.95151e-01,9.99999e-01,9.99999e-01,9.97436e-01,9.97716e-01,9.99992e-01
1.011457125e+00,9.96161e-01,9.99999e-01,9.99999e-01,9.98403e-01,9.97761e-01,9.99992e-01
1.016514411e+00,9.96721e-01,9.99999e-01,9.99999e-01,9.98917e-01,9.97805e-01,9.99994e-01
1.021596983e+00,9.96984e-01,9.99999e-01,9.99999e-01,9.99138e-01,9.97848e-01,9.99994e-01
1.026704968e+00,9.97218e-01,9.99999e-01,9.99999e-01,9.99328e-01,9.97891e-01,9.99996e-01
1.031838492e+00,9.97443e-01,9.99999e-01,9.99999e-01,9.99510e-01,9.97932e-01,9.99998e-01
1.036997685e+00,9.97684e-01,9.99999e-01,9.99999e-01,9.99709e-01,9.97973e-01,9.99999e-01
1.042182673e+00,9.97670e-01,9.99999e-01,9.99999e-01,9.99655e-01,9.98013e-01,9.99999e-01
1.047393587e+00,9.97596e-01,9.99999e-01,9.99999e-01,9.99542e-01,9.98052e-01,9.99999e-01
1.052630555e+00,9.97465e-01,9.99999e-01,9.99999e-01,9.99373e-01,9.98091e-01,9.99999e-01
1.057893707e+00,9.97086e-01,9.99999e-01,9.99999e-01,9.98955e-01,9.98128e-01,9.99999e-01
1.063183176e+00,9.96447e-01,9.99999e-01,9.99999e-01,9.98278e-01,9.98165e-01,9.99998e-01
1.068499092e+00,9.95320e-01,9.99999e-01,9.99999e-01,9.97114e-01,9.98201e-01,9.99997e-01
1.073841587e+00,9.94869e-01,9.99999e-01,9.99999e-01,9.96629e-01,9.98237e-01,9.99995e-01
1.079210795e+00,9.93935e-01,9.99999e-01,9.99999e-01,9.95666e-01,9.98272e-01,9.99987e-01
1.084606849e+00,9.91747e-01,9.99999e-01,9.99999e-01,9.93457e-01,9.98306e-01,9.99971e-01
1.090029883e+00,9.88970e-01,9.99999e-01,9.99999e-01,9.90671e-01,9.98339e-01,9.99941e-01
1.095480033e+00,9.73031e-01,9.99999e-01,9.99999e-01,9.74718e-01,9.98372e-01,9.99895e-01
1.100957433e+00,9.35207e-01,9.99999e-01,9.99999e-01,9.36880e-01,9.98404e-01,9.99807e-01
1.106462220e+00,8.45088e-01,9.99999e-01,9.99999e-01,8.46686e-01,9.98436e-01,9.99674e-01
1.111994531e+00,7.00180e-01,9.99999e-01,9.99999e-01,7.01860e-01,9.98466e-01,9.99137e-01
1.117554504e+00,5.59182e-01,9.99999e-01,9.99999e-01,5.61770e-01,9.98497e-01,9.96889e-01
1.123142276e+00,6.42842e-01,9.99999e-01,9.99999e-01,6.48563e-01,9.98526e-01,9.92640e-01
1.128757988e+00,7.54179e-01,9.99999e-01,9.99999e-01,7.61750e-01,9.98555e-01,9.91490e-01
1.134401778e+00,5.16416e-01,9.99999e-01,9.99999e-01,5.21009e-01,9.98584e-01,9.92589e-01
1.140073787e+00,8.45695e-01,9.99999e-01,9.99999e-01,8.51932e-01,9.98612e-01,9.94057e-01
1.145774156e+00,7.07643e-01,9.99999e-01,9.99999e-01,7.12382e-01,9.98639e-01,9.94699e-01
1.151503026e+00,6.81259e-01,9.99999e-01,9.99999e-01,6.84190e-01,9.98666e-01,9.97043e-01
1.157260541e+00,7.30535e-01,9.99999e-01,9.99999e-01,7.32139e-01,9.98692e-01,9.99114e-01
1.163046844e+00,7.92994e-01,9.99999e-01,9.99999e-01,7.94210e-01,9.98718e-01,9.99748e-01
1.168862078e+00,8.51649e-01,9.99999e-01,9.99999e-01,8.52830e-01,9.98743e-01,9.99870e-01
1.174706389e+00,9.05223e-01,9.99999e-01,9.99999e-01,9.06493e-01,9.98768e-01,9.99828e-01
1.180579921e+00,9.40610e-01,9.99999e-01,9.99999e-01,9.41990e-01,9.98792e-01,9.99740e-01
1.186482820e+00,9.65479e-01,9.99999e-01,9.99999e-01,9.66880e-01,9.98816e-01,9.99733e-01
1.192415234e+00,9.79239e-01,9.99999e-01,9.99999e-01,9.80571e-01,9.98840e-01,9.99800e-01
1.198377311e+00,9.82331e-01,9.99999e-01,9.99999e-01,9.83634e-01,9.98863e-01,9.99811e-01
1.204369197e+00,9.83215e-01,9.99999e-01,9.99999e-01,9.84479e-01,9.98885e-01,9.99829e-01
1.210391043e+00,9.83977e-01,9.99999e-01,9.99999e-01,9.85155e-01,9.98907e-01,9.99896e-01
1.216442998e+00,9.86206e-01,9.99999e-01,9.99999e-01,9.87326e-01,9.98929e-01,9.99936e-01
1.222525213e+00,9.89056e-01,9.99999e-01,9.99999e-01,9.90134e-01,9.98950e-01,9.99960e-01
1.228637839e+00,9.92107e-01,9.99999e-01,9.99999e-01,9.93147e-01,9.98970e-01,9.99981e-01
