#,Wave/freq,Total,N2,O2,H2O,Rayleigh,CIA
4.000000000e-01,8.77334e-01,9.99999e-01,9.99999e-01,9.99984e-01,8.77347e-01,9.99999e-01
4.020000000e-01,8.79611e-01,9.99999e-01,9.99999e-01,9.99990e-01,8.79619e-01,9.99999e-01
4.040100000e-01,8.81847e-01,9.99999e-01,9.99999e-01,9.99995e-01,8.81851e-01,9.99999e-01
4.060300500e-01,8.84043e-01,9.99999e-01,9.99999e-01,9.99998e-01,8.84044e-01,9.99999e-01
4.080602003e-01,8.86198e-01,9.99999e-01,9.99999e-01,9.99999e-01,8.86198e-01,9.99999e-01
4.101005013e-01,8.88316e-01,9.99999e-01,9.99999e-01,9.99999e-01,8.88316e-01,9.99999e-01
4.121510038e-01,8.90396e-01,9.99999e-01,9.99999e-01,9.99998e-01,8.90396e-01,9.99999e-01
4.142117588e-01,8.92437e-01,9.99999e-01,9.99999e-01,9.99995e-01,8.92440e-01,9.99999e-01
4.162828176e-01,8.94432e-01,9.99999e-01,9.99999e-01,9.99981e-01,8.94448e-01,9.99999e-01
4.183642317e-01,8.96412e-01,9.99999e-01,9.99999e-01,9.99988e-01,8.96421e-01,9.99999e-01
4.204560528e-01,8.98354e-01,9.99999e-01,9.99999e-01,9.99992e-01,8.98360e-01,9.99999e-01
4.225583331e-01,9.00261e-01,9.99999e-01,9.99999e-01,9.99997e-01,9.00264e-01,9.99999e-01
4.246711247e-01,9.02132e-01,9.99999e-01,9.99999e-01,9.99997e-01,9.02134e-01,9.99999e-01
4.267944804e-01,9.03968e-01,9.99999e-01,9.99999e-01,9.99996e-01,9.03971e-01,9.99999e-01
4.289284528e-01,9.05773e-01,9.99999e-01,9.99999e-01,9.99997e-01,9.05775e-01,9.99999e-01
4.310730950e-01,9.07547e-01,9.99999e-01,9.99999e-01,9.99998e-01,9.07548e-01,9.99999e-01
4.332284605e-01,9.09288e-01,9.99999e-01,9.99999e-01,9.99999e-01,9.09288e-01,9.99999e-01
4.353946028e-01,9.10998e-01,9.99999e-01,9.99999e-01,9.99999e-01,9.10998e-01,9.99999e-01
4.375715758e-01,9.12675e-01,9.99999e-01,9.99999e-01,9.99997e-01,9.12677e-01,9.99999e-01
4.397594337e-01,9.14311e-01,9.99999e-01,9.99999e-01,9.99983e-01,9.14325e-01,9.99999e-01
4.419582309e-01,9.15869e-01,9.99999e-01,9.99999e-01,9.99916e-01,9.15945e-01,9.99999e-01
4.441680220e-01,9.17476e-01,9.99999e-01,9.99999e-01,9.99936e-01,9.17534e-01,9.99999e-01
4.463888621e-01,9.19035e-01,9.99999e-01,9.99999e-01,9.99933e-01,9.19095e-01,9.99999e-01
4.486208064e-01,9.20591e-01,9.99999e-01,9.99999e-01,9.99958e-01,9.20628e-01,9.99999e-01
4.508639105e-01,9.22116e-01,9.99999e-01,9.99999e-01,9.99980e-01,9.22133e-01,9.99999e-01
4.531182300e-01,9.23604e-01,9.99999e-01,9.99999e-01,9.99991e-01,9.23611e-01,9.99999e-01
4.553838212e-01,9.25057e-01,9.99999e-01,9.99999e-01,9.99994e-01,9.25062e-01,9.99999e-01
4.576607403e-01,9.26484e-01,9.99999e-01,9.99999e-01,9.99997e-01,9.26486e-01,9.99999e-01
4.599490440e-01,9.27883e-01,9.99999e-01,9.99999e-01,9.99997e-01,9.27885e-01,9.99999e-01
4.622487892e-01,9.29257e-01,9.99999e-01,9.99999e-01,9.99999e-01,9.29258e-01,9.99999e-01
4.645600332e-01,9.30604e-01,9.99999e-01,9.99999e-01,9.99998e-01,9.30605e-01,9.99999e-01
4.668828333e-01,9.31910e-01,9.99999e-01,9.99999e-01,9.99979e-01,9.31928e-01,9.99999e-01
4.692172475e-01,9.33188e-01,9.99999e-01,9.99999e-01,9.99958e-01,9.33227e-01,9.99999e-01
4.715633337e-01,9.34476e-01,9.99999e-01,9.99999e-01,9.99972e-01,9.34502e-01,9.99999e-01
4.739211504e-01,9.35729e-01,9.99999e-01,9.99999e-01,9.99973e-01,9.35753e-01,9.99999e-01
4.762907561e-01,9.36968e-01,9.99999e-01,9.99999e-01,9.99986e-01,9.36981e-01,9.99999e-01
4.786722099e-01,9.38181e-01,9.99999e-01,9.99999e-01,9.99994e-01,9.38186e-01,9.99999e-01
4.810655710e-01,9.39368e-01,9.99999e-01,9.99999e-01,9.99997e-01,9.39370e-01,9.99999e-01
4.834708988e-01,9.40516e-01,9.99999e-01,9.99999e-01,9.99983e-01,9.40531e-01,9.99999e-01
4.858882533e-01,9.41643e-01,9.99999e-01,9.99999e-01,9.99970e-01,9.41670e-01,9.99999e-01
4.883176946e-01,9.42766e-01,9.99999e-01,9.99999e-01,9.99974e-01,9.42789e-01,9.99999e-01
4.907592831e-01,9.43866e-01,9.99999e-01,9.99999e-01,9.99977e-01,9.43887e-01,9.99999e-01
4.932130795e-01,9.44949e-01,9.99999e-01,9.99999e-01,9.99983e-01,9.44964e-01,9.99999e-01
4.956791449e-01,9.46013e-01,9.99999e-01,9.99999e-01,9.99991e-01,9.46021e-01,9.99999e-01
4.981575406e-01,9.47019e-01,9.99999e-01,9.99999e-01,9.99957e-01,9.47059e-01,9.99999e-01
5.006483283e-01,9.47973e-01,9.99999e-01,9.99999e-01,9.99890e-01,9.48077e-01,9.99998e-01
5.031515699e-01,9.48548e-01,9.99999e-01,9.99999e-01,9.99449e-01,9.49076e-01,9.99993e-01
5.056673278e-01,9.49775e-01,9.99999e-01,9.99999e-01,9.99710e-01,9.50056e-01,9.99992e-01
5.081956644e-01,9.50667e-01,9.99999e-01,9.99999e-01,9.99634e-01,9.51018e-01,9.99995e-01
5.107366428e-01,9.51727e-01,9.99999e-01,9.99999e-01,9.99753e-01,9.51962e-01,9.99998e-01
5.132903260e-01,9.52754e-01,9.99999e-01,9.99999e-01,9.99859e-01,9.52888e-01,9.99999e-01
5.158567776e-01,9.53740e-01,9.99999e-01,9.99999e-01,9.99940e-01,9.53797e-01,9.99999e-01
5.184360615e-01,9.54666e-01,9.99999e-01,9.99999e-01,9.99975e-01,9.54688e-01,9.99999e-01
5.210282418e-01,9.55555e-01,9.99999e-01,9.99999e-01,9.99990e-01,9.55563e-01,9.99999e-01
5.236333830e-01,9.56387e-01,9.99999e-01,9.99999e-01,9.99963e-01,9.56421e-01,9.99999e-01
5.262515499e-01,9.57242e-01,9.99999e-01,9.99999e-01,9.99977e-01,9.57264e-01,9.99999e-01
5.288828077e-01,9.58070e-01,9.99999e-01,9.99999e-01,9.99978e-01,9.58090e-01,9.99999e-01
5.315272217e-01,9.58883e-01,9.99999e-01,9.99999e-01,9.99981e-01,9.58900e-01,9.99999e-01
5.341848578e-01,9.59684e-01,9.99999e-01,9.99999e-01,9.99987e-01,9.59695e-01,9.99999e-01
5.368557821e-01,9.60435e-01,9.99999e-01,9.99999e-01,9.99957e-01,9.60476e-01,9.99999e-01
5.395400610e-01,9.61094e-01,9.99999e-01,9.99999e-01,9.99847e-01,9.61241e-01,9.99998e-01
5.422377613e-01,9.61802e-01,9.99999e-01,9.99999e-01,9.99805e-01,9.61992e-01,9.99995e-01
5.449489501e-01,9.62550e-01,9.99999e-01,9.99999e-01,9.99818e-01,9.62728e-01,9.99995e-01
5.476736949e-01,9.63296e-01,9.99999e-01,9.99999e-01,9.99840e-01,9.63451e-01,9.99997e-01
5.504120634e-01,9.64048e-01,9.99999e-01,9.99999e-01,9.99883e-01,9.64160e-01,9.99999e-01
5.531641237e-01,9.64799e-01,9.99999e-01,9.99999e-01,9.99941e-01,9.64855e-01,9.99999e-01
5.559299443e-01,9.65510e-01,9.99999e-01,9.99999e-01,9.99971e-01,9.65537e-01,9.99999e-01
5.587095940e-01,9.66189e-01,9.99999e-01,9.99999e-01,9.99981e-01,9.66206e-01,9.99999e-01
5.615031420e-01,9.66844e-01,9.99999e-01,9.99999e-01,9.99979e-01,9.66863e-01,9.99999e-01
5.643106577e-01,9.67484e-01,9.99999e-01,9.99999e-01,9.99976e-01,9.67506e-01,9.99999e-01
5.671322110e-01,9.67869e-01,9.99999e-01,9.99999e-01,9.99723e-01,9.68138e-01,9.99997e-01
5.699678720e-01,9.68472e-01,9.99999e-01,9.99999e-01,9.99712e-01,9.68757e-01,9.99992e-01
5.728177114e-01,9.69067e-01,9.99999e-01,9.99999e-01,9.99698e-01,9.69365e-01,9.99993e-01
5.756818000e-01,9.69690e-01,9.99999e-01,9.99999e-01,9.99723e-01,9.69961e-01,9.99995e-01
5.785602090e-01,9.70311e-01,9.99999e-01,9.99999e-01,9.99759e-01,9.70545e-01,9.99998e-01
5.814530100e-01,9.70883e-01,9.99999e-01,9.99999e-01,9.99757e-01,9.71118e-01,9.99998e-01
5.843602750e-01,9.71398e-01,9.99999e-01,9.99999e-01,9.99709e-01,9.71681e-01,9.99997e-01
5.872820764e-01,9.69788e-01,9.99999e-01,9.99999e-01,9.97502e-01,9.72232e-01,9.99982e-01
5.902184868e-01,9.69807e-01,9.99999e-01,9.99999e-01,9.96997e-01,9.72773e-01,9.99952e-01
5.931695792e-01,9.71190e-01,9.99999e-01,9.99999e-01,9.97872e-01,9.73304e-01,9.99953e-01
5.961354271e-01,9.71533e-01,9.99999e-01,9.99999e-01,9.97673e-01,9.73824e-01,9.99973e-01
5.991161043e-01,9.72675e-01,9.99999e-01,9.99999e-01,9.98304e-01,9.74334e-01,9.99991e-01
6.021116848e-01,9.73897e-01,9.99999e-01,9.99999e-01,9.99038e-01,9.74835e-01,9.99998e-01
6.051222432e-01,9.74852e-01,9.99999e-01,9.99999e-01,9.99513e-01,9.75326e-01,9.99999e-01
6.081478544e-01,9.75603e-01,9.99999e-01,9.99999e-01,9.99789e-01,9.75807e-01,9.99999e-01
6.111885937e-01,9.76193e-01,9.99999e-01,9.99999e-01,9.99910e-01,9.76279e-01,9.99999e-01
6.142445367e-01,9.76704e-01,9.99999e-01,9.99999e-01,9.99959e-01,9.76742e-01,9.99999e-01
6.173157594e-01,9.77175e-01,9.99999e-01,9.99999e-01,9.99977e-01,9.77196e-01,9.99999e-01
6.204023382e-01,9.77624e-01,9.99999e-01,9.99999e-01,9.99980e-01,9.77642e-01,9.99999e-01
6.235043498e-01,9.77997e-01,9.99999e-01,9.99999e-01,9.99916e-01,9.78079e-01,9.99999e-01
6.266218716e-01,9.78080e-01,9.99999e-01,9.99999e-01,9.99566e-01,9.78507e-01,9.99996e-01
6.297549810e-01,9.78766e-01,9.99999e-01,9.99999e-01,9.99840e-01,9.78927e-01,9.99993e-01
6.329037559e-01,9.79028e-01,9.99999e-01,9.99999e-01,9.99686e-01,9.79339e-01,9.99994e-01
6.360682746e-01,9.79478e-01,9.99999e-01,9.99999e-01,9.99732e-01,9.79743e-01,9.99996e-01
6.392486160e-01,9.79798e-01,9.99999e-01,9.99999e-01,9.99653e-01,9.80139e-01,9.99998e-01
6.424448591e-01,9.80068e-01,9.99999e-01,9.99999e-01,9.99533e-01,9.80527e-01,9.99997e-01
6.456570834e-01,9.78772e-01,9.99999e-01,9.99999e-01,9.97835e-01,9.80908e-01,9.99986e-01
6.488853688e-01,9.79708e-01,9.99999e-01,9.99999e-01,9.98428e-01,9.81282e-01,9.99966e-01
6.521297956e-01,9.80049e-01,9.99999e-01,9.99999e-01,9.98398e-01,9.81648e-01,9.99972e-01
6.553904446e-01,9.80417e-01,9.99999e-01,9.99999e-01,9.98400e-01,9.82007e-01,9.99979e-01
6.586673968e-01,9.81012e-01,9.99999e-01,9.99999e-01,9.98634e-01,9.82359e-01,9.99992e-01
6.619607338e-01,9.81956e-01,9.99999e-01,9.99999e-01,9.99239e-01,9.82705e-01,9.99998e-01
6.652705375e-01,9.82594e-01,9.99999e-01,9.99999e-01,9.99543e-01,9.83044e-01,9.99998e-01
6.685968902e-01,9.83185e-01,9.99999e-01,9.99999e-01,9.99805e-01,9.83376e-01,9.99999e-01
6.719398746e-01,9.83605e-01,9.99999e-01,9.99999e-01,9.99901e-01,9.83701e-01,9.99999e-01
6.752995740e-01,9.83970e-01,9.99999e-01,9.99999e-01,9.99947e-01,9.84021e-01,9.99999e-01
6.786760719e-01,9.84257e-01,9.99999e-01,9.99999e-01,9.99921e-01,9.84334e-01,9.99999e-01
6.820694522e-01,9.84510e-01,9.99999e-01,9.99999e-01,9.99867e-01,9.84641e-01,9.99998e-01
6.854797995e-01,9.84773e-01,9.99999e-01,9.99999e-01,9.99829e-01,9.84942e-01,9.99998e-01
6.889071985e-01,9.84822e-01,9.99999e-01,9.99999e-01,9.99581e-01,9.85237e-01,9.99995e-01
6.923517345e-01,9.78835e-01,9.99999e-01,9.99999e-01,9.93241e-01,9.85527e-01,9.99967e-01
6.958134932e-01,9.82329e-01,9.99999e-01,9.99999e-01,9.96538e-01,9.85810e-01,9.99928e-01
6.992925606e-01,9.82731e-01,9.99999e-01,9.99999e-01,9.96658e-01,9.86089e-01,9.99935e-01
7.027890234e-01,9.82272e-01,9.99999e-01,9.99999e-01,9.95902e-01,9.86362e-01,9.99950e-01
7.063029686e-01,9.83204e-01,9.99999e-01,9.99999e-01,9.96552e-01,9.86629e-01,9.99975e-01
7.098344834e-01,9.83613e-01,9.99999e-01,9.99999e-01,9.96692e-01,9.86891e-01,9.99985e-01
7.133836558e-01,9.82725e-01,9.99999e-01,9.99999e-01,9.95547e-01,9.87149e-01,9.99970e-01
7.169505741e-01,9.52405e-01,9.99999e-01,9.99999e-01,9.64774e-01,9.87401e-01,9.99773e-01
7.205353270e-01,9.70353e-01,9.99999e-01,9.99999e-01,9.82879e-01,9.87648e-01,9.99600e-01
7.241380036e-01,9.65858e-01,9.99999e-01,9.99999e-01,9.78033e-01,9.87891e-01,9.99655e-01
7.277586936e-01,9.68263e-01,9.99999e-01,9.99999e-01,9.80171e-01,9.88128e-01,9.99718e-01
7.313974871e-01,9.67531e-01,9.99999e-01,9.99999e-01,9.79052e-01,9.88362e-01,9.99867e-01
7.350544745e-01,9.77174e-01,9.99999e-01,9.99999e-01,9.88497e-01,9.88590e-01,9.99953e-01
7.387297469e-01,9.80422e-01,9.99999e-01,9.99999e-01,9.91532e-01,9.88814e-01,9.99978e-01
7.424233956e-01,9.84934e-01,9.99999e-01,9.99999e-01,9.95858e-01,9.89034e-01,9.99995e-01
7.461355126e-01,9.86762e-01,9.99999e-01,9.99999e-01,9.97485e-01,9.89249e-01,9.99998e-01
7.498661902e-01,9.88305e-01,9.99999e-01,9.99999e-01,9.98831e-01,9.89461e-01,9.99999e-01
7.536155211e-01,9.89099e-01,9.99999e-01,9.99999e-01,9.99425e-01,9.89668e-01,9.99999e-01
7.573835987e-01,9.89578e-01,9.99999e-01,9.99999e-01,9.99704e-01,9.89871e-01,9.99999e-01
7.611705167e-01,9.89888e-01,9.99999e-01,9.99999e-01,9.99815e-01,9.90070e-01,9.99999e-01
7.649763693e-01,9.90151e-01,9.99999e-01,9.99999e-01,9.99884e-01,9.90265e-01,9.99999e-01
7.688012511e-01,9.90377e-01,9.99999e-01,9.99999e-01,9.99919e-01,9.90456e-01,9.99999e-01
7.726452574e-01,9.90578e-01,9.99999e-01,9.99999e-01,9.99933e-01,9.90644e-01,9.99999e-01
7.765084837e-01,9.90734e-01,9.99999e-01,9.99999e-01,9.99905e-01,9.90828e-01,9.99999e-01
7.803910261e-01,9.90602e-01,9.99999e-01,9.99999e-01,9.99590e-01,9.91008e-01,9.99999e-01
7.842929812e-01,9.89766e-01,9.99999e-01,9.99999e-01,9.98570e-01,9.91185e-01,9.99996e-01
7.882144461e-01,9.88442e-01,9.99999e-01,9.99999e-01,9.97077e-01,9.91358e-01,9.99979e-01
7.921555184e-01,9.89911e-01,9.99999e-01,9.99999e-01,9.98403e-01,9.91528e-01,9.99964e-01
7.961162960e-01,9.88839e-01,9.99999e-01,9.99999e-01,9.97152e-01,9.91695e-01,9.99966e-01
8.000968774e-01,9.88578e-01,9.99999e-01,9.99999e-01,9.96727e-01,9.91858e-01,9.99964e-01
8.040973618e-01,9.88741e-01,9.99999e-01,9.99999e-01,9.96722e-01,9.92018e-01,9.99972e-01
8.081178486e-01,9.84791e-01,9.99999e-01,9.99999e-01,9.92583e-01,9.92175e-01,9.99972e-01
8.121584379e-01,9.61892e-01,9.99999e-01,9.99999e-01,9.69426e-01,9.92329e-01,9.99896e-01
8.162192301e-01,9.56445e-01,9.99999e-01,9.99999e-01,9.64065e-01,9.92480e-01,9.99611e-01
8.203003262e-01,9.73941e-01,9.99999e-01,9.99999e-01,9.81619e-01,9.92628e-01,9.99545e-01
8.244018279e-01,9.67479e-01,9.99999e-01,9.99999e-01,9.74873e-01,9.92773e-01,9.99638e-01
8.285238370e-01,9.71115e-01,9.99999e-01,9.99999e-01,9.78321e-01,9.92915e-01,9.99715e-01
8.326664562e-01,9.71245e-01,9.99999e-01,9.99999e-01,9.78151e-01,9.93055e-01,9.99882e-01
8.368297885e-01,9.77662e-01,9.99999e-01,9.99999e-01,9.84389e-01,9.93192e-01,9.99972e-01
8.410139374e-01,9.84078e-01,9.99999e-01,9.99999e-01,9.90705e-01,9.93326e-01,9.99983e-01
8.452190071e-01,9.88917e-01,9.99999e-01,9.99999e-01,9.95438e-01,9.93457e-01,9.99990e-01
8.494451021e-01,9.90941e-01,9.99999e-01,9.99999e-01,9.97344e-01,9.93586e-01,9.99991e-01
8.536923276e-01,9.92151e-01,9.99999e-01,9.99999e-01,9.98433e-01,9.93712e-01,9.99994e-01
8.579607893e-01,9.92874e-01,9.99999e-01,9.99999e-01,9.99032e-01,9.93836e-01,9.99998e-01
8.622505932e-01,9.93348e-01,9.99999e-01,9.99999e-01,9.99386e-01,9.93957e-01,9.99999e-01
8.665618462e-01,9.93698e-01,9.99999e-01,9.99999e-01,9.99619e-01,9.94076e-01,9.99999e-01
8.708946554e-01,9.93759e-01,9.99999e-01,9.99999e-01,9.99563e-01,9.94193e-01,9.99999e-01
8.752491287e-01,9.93727e-01,9.99999e-01,9.99999e-01,9.99416e-01,9.94307e-01,9.99998e-01
8.796253743e-01,9.93612e-01,9.99999e-01,9.99999e-01,9.99189e-01,9.94419e-01,9.99997e-01
8.840235012e-01,9.93604e-01,9.99999e-01,9.99999e-01,9.99075e-01,9.94529e-01,9.99993e-01
8.884436187e-01,9.91218e-01,9.99999e-01,9.99999e-01,9.96578e-01,9.94637e-01,9.99983e-01
8.928858368e-01,9.59608e-01,9.99999e-01,9.99999e-01,9.64768e-01,9.94743e-01,9.99907e-01
8.973502660e-01,9.33610e-01,9.99999e-01,9.99999e-01,9.38888e-01,9.94846e-01,9.99527e-01
9.018370173e-01,9.62912e-01,9.99999e-01,9.99999e-01,9.68519e-01,9.94948e-01,9.99257e-01
9.063462024e-01,9.66465e-01,9.99999e-01,9.99999e-01,9.71908e-01,9.95047e-01,9.99347e-01
9.108779334e-01,9.51411e-01,9.99999e-01,9.99999e-01,9.56699e-01,9.95145e-01,9.99322e-01
9.154323231e-01,9.46009e-01,9.99999e-01,9.99999e-01,9.51064e-01,9.95240e-01,9.99439e-01
9.200094847e-01,9.56738e-01,9.99999e-01,9.99999e-01,9.61523e-01,9.95334e-01,9.99686e-01
9.246095321e-01,9.34476e-01,9.99999e-01,9.99999e-01,9.39108e-01,9.95426e-01,9.99638e-01
9.292325798e-01,6.54555e-01,9.99999e-01,9.99999e-01,6.58649e-01,9.95516e-01,9.98257e-01
9.338787427e-01,5.79089e-01,9.99999e-01,9.99999e-01,5.85322e-01,9.95605e-01,9.93717e-01
9.385481364e-01,7.97245e-01,9.99999e-01,9.99999e-01,8.06257e-01,9.95691e-01,9.93100e-01
9.432408771e-01,7.30632e-01,9.99999e-01,9.99999e-01,7.38126e-01,9.95776e-01,9.94044e-01
9.479570815e-01,6.50751e-01,9.99999e-01,9.99999e-01,6.56641e-01,9.95859e-01,9.95150e-01
9.526968669e-01,7.27236e-01,9.99999e-01,9.99999e-01,7.32367e-01,9.95941e-01,9.97038e-01
9.574603512e-01,7.48057e-01,9.99999e-01,9.99999e-01,7.52177e-01,9.96021e-01,9.98494e-01
9.622476530e-01,7.90023e-01,9.99999e-01,9.99999e-01,7.93942e-01,9.96099e-01,9.98958e-01
9.670588912e-01,8.71477e-01,9.99999e-01,9.99999e-01,8.75444e-01,9.96176e-01,9.99287e-01
9.718941857e-01,9.16392e-01,9.99999e-01,9.99999e-01,9.20321e-01,9.96252e-01,9.99475e-01
9.767536566e-01,9.29593e-01,9.99999e-01,9.99999e-01,9.33394e-01,9.96326e-01,9.99598e-01
9.816374249e-01,9.46782e-01,9.99999e-01,9.99999e-01,9.50336e-01,9.96398e-01,9.99860e-01
9.865456120e-01,9.65253e-01,9.99999e-01,9.99999e-01,9.68700e-01,9.96469e-01,9.99970e-01
9.914783401e-01,9.77136e-01,9.99999e-01,9.99999e-01,9.80536e-01,9.96539e-01,9.99991e-01
9.964357318e-01,9.85997e-01,9.99999e-01,9.99999e-01,9.89358e-01,9.96607e-01,9.99994e-01
1.001417910e+00,9.90301e-01,9.99999e-01,9.99999e-01,9.93612e-01,9.96674e-01,9.99992e-01
1.006425000e+00,9.93090e-01,9.99999e-01,9.99999e-01,9.96348e-01,9.96739e-01,9.99989e-01
1.011457125e+00,9.94539e-01,9.99999e-01,9.99999e-01,9.97736e-01,9.96804e-01,9.99990e-01
1.016514411e+00,9.95327e-01,9.99999e-01,9.99999e-01,9.98461e-01,9.96867e-01,9.99992e-01
1.021596983e+00,9.95699e-01,9.99999e-01,9.99999e-01,9.98773e-01,9.96928e-01,9.99992e-01
1.026704968e+00,9.96031e-01,9.99999e-01,9.99999e-01,9.99042e-01,9.96989e-01,9.99995e-01
1.031838492e+00,9.96355e-01,9.99999e-01,9.99999e-01,9.99305e-01,9.97048e-01,9.99998e-01
1.036997685e+00,9.96694e-01,9.99999e-01,9.99999e-01,9.99586e-01,9.97107e-01,9.99999e-01
1.042182673e+00,9.96671e-01,9.99999e-01,9.99999e-01,9.99505e-01,9.97164e-01,9.99999e-01
1.047393587e+00,9.96567e-01,9.99999e-01,9.99999e-01,9.99345e-01,9.97219e-01,9.99999e-01
1.052630555e+00,9.96378e-01,9.99999e-01,9.99999e-01,9.99101e-01,9.97274e-01,9.99999e-01
1.057893707e+00,9.95830e-01,9.99999e-01,9.99999e-01,9.98497e-01,9.97328e-01,9.99998e-01
1.063183176e+00,9.94917e-01,9.99999e-01,9.99999e-01,9.97530e-01,9.97381e-01,9.99998e-01
1.068499092e+00,9.93312e-01,9.99999e-01,9.99999e-01,9.95871e-01,9.97432e-01,9.99996e-01
1.073841587e+00,9.92651e-01,9.99999e-01,9.99999e-01,9.95161e-01,9.97483e-01,9.99993e-01
1.079210795e+00,9.91352e-01,9.99999e-01,9.99999e-01,9.93819e-01,9.97533e-01,9.99983e-01
1.084606849e+00,9.88208e-01,9.99999e-01,9.99999e-01,9.90642e-01,9.97581e-01,9.99959e-01
1.090029883e+00,9.84095e-01,9.99999e-01,9.99999e-01,9.86514e-01,9.97629e-01,9.99917e-01
1.095480033e+00,9.61343e-01,9.99999e-01,9.99999e-01,9.63725e-01,9.97676e-01,9.99850e-01
1.100957433e+00,9.07966e-01,9.99999e-01,9.99999e-01,9.10287e-01,9.97722e-01,9.99725e-01
1.106462220e+00,7.84475e-01,9.99999e-01,9.99999e-01,7.86595e-01,9.97767e-01,9.99535e-01
1.111994531e+00,6.02442e-01,9.99999e-01,9.99999e-01,6.04508e-01,9.97811e-01,9.98767e-01
1.117554504e+00,4.39803e-01,9.99999e-01,9.99999e-01,4.42714e-01,9.97854e-01,9.95558e-01
1.123142276e+00,5.41922e-01,9.99999e-01,9.99999e-01,5.48826e-01,9.97896e-01,9.89500e-01
1.128757988e+00,6.71274e-01,9.99999e-01,9.99999e-01,6.80924e-01,9.97938e-01,9.87864e-01
1.134401778e+00,4.19893e-01,9.99999e-01,9.99999e-01,4.25134e-01,9.97978e-01,9.89671e-01
1.140073787e+00,7.87457e-01,9.99999e-01,9.99999e-01,7.95592e-01,9.98018e-01,9.91738e-01
1.145774156e+00,6.14764e-01,9.99999e-01,9.99999e-01,6.20655e-01,9.98057e-01,9.92435e-01
1.151503026e+00,5.83369e-01,9.99999e-01,9.99999e-01,5.86959e-01,9.98096e-01,9.95778e-01
1.157260541e+00,6.40757e-01,9.99999e-01,9.99999e-01,6.42767e-01,9.98133e-01,9.98735e-01
1.163046844e+00,7.20370e-01,9.99999e-01,9.99999e-01,7.21949e-01,9.98170e-01,9.99641e-01
1.168862078e+00,7.96276e-01,9.99999e-01,9.99999e-01,7.97853e-01,9.98206e-01,9.99814e-01
1.174706389e+00,8.68162e-01,9.99999e-01,9.99999e-01,8.69903e-01,9.98241e-01,9.99754e-01
1.180579921e+00,9.16772e-01,9.99999e-01,9.99999e-01,9.18695e-01,9.98276e-01,9.99629e-01
1.186482820e+00,9.51246e-01,9.99999e-01,9.99999e-01,9.53217e-01,9.98310e-01,9.99619e-01
1.192415234e+00,9.70534e-01,9.99999e-01,9.99999e-01,9.72420e-01,9.98343e-01,9.99715e-01
1.198377311e+00,9.74823e-01,9.99999e-01,9.99999e-01,9.76670e-01,9.98376e-01,9.99730e-01
1.204369197e+00,9.76125e-01,9.99999e-01,9.99999e-01,9.77918e-01,9.98408e-01,9.99756e-01
1.210391043e+00,9.77211e-01,9.99999e-01,9.99999e-01,9.78882e-01,9.98440e-01,9.99851e-01
1.216442998e+00,9.80448e-01,9.99999e-01,9.99999e-01,9.82038e-01,9.98470e-01,9.99908e-01
1.222525213e+00,9.84450e-01,9.99999e-01,9.99999e-01,9.85983e-01,9.98501e-01,9.99943e-01
1.228637839e+00,9.88763e-01,9.99999e-01,9.99999e-01,9.90243e-01,9.98530e-01,9.99973e-01
