#,Wave/freq,Total,N2,O2,H2O,Rayleigh,CIA
4.000000000e-01,9.50565e-01,9.99999e-01,9.99999e-01,9.99993e-01,9.50571e-01,9.99999e-01
4.020000000e-01,9.51520e-01,9.99999e-01,9.99999e-01,9.99995e-01,9.51524e-01,9.99999e-01
4.040100000e-01,9.52457e-01,9.99999e-01,9.99999e-01,9.99997e-01,9.52458e-01,9.99999e-01
4.060300500e-01,9.53375e-01,9.99999e-01,9.99999e-01,9.99999e-01,9.53375e-01,9.99999e-01
4.080602003e-01,9.54274e-01,9.99999e-01,9.99999e-01,9.99999e-01,9.54274e-01,9.99999e-01
4.101005013e-01,9.55157e-01,9.99999e-01,9.99999e-01,9.99999e-01,9.55157e-01,9.99999e-01
4.121510038e-01,9.56023e-01,9.99999e-01,9.99999e-01,9.99999e-01,9.56023e-01,9.99999e-01
4.142117588e-01,9.56871e-01,9.99999e-01,9.99999e-01,9.99997e-01,9.56873e-01,9.99999e-01
4.162828176e-01,9.57700e-01,9.99999e-01,9.99999e-01,9.99992e-01,9.57706e-01,9.99999e-01
4.183642317e-01,9.58520e-01,9.99999e-01,9.99999e-01,9.99995e-01,9.58524e-01,9.99999e-01
4.204560528e-01,9.59324e-01,9.99999e-01,9.99999e-01,9.99996e-01,9.59326e-01,9.99999e-01
4.225583331e-01,9.60113e-01,9.99999e-01,9.99999e-01,9.99998e-01,9.60114e-01,9.99999e-01
4.246711247e-01,9.60885e-01,9.99999e-01,9.99999e-01,9.99998e-01,9.60886e-01,9.99999e-01
4.267944804e-01,9.61642e-01,9.99999e-01,9.99999e-01,9.99998e-01,9.61643e-01,9.99999e-01
4.289284528e-01,9.62386e-01,9.99999e-01,9.99999e-01,9.99998e-01,9.62387e-01,9.99999e-01
4.310730950e-01,9.63115e-01,9.99999e-01,9.99999e-01,9.99999e-01,9.63116e-01,9.99999e-01
4.332284605e-01,9.63831e-01,9.99999e-01,9.99999e-01,9.99999e-01,9.63831e-01,9.99999e-01
4.353946028e-01,9.64532e-01,9.99999e-01,9.99999e-01,9.99999e-01,9.64532e-01,9.99999e-01
4.375715758e-01,9.65220e-01,9.99999e-01,9.99999e-01,9.99998e-01,9.65221e-01,9.99999e-01
4.397594337e-01,9.65890e-01,9.99999e-01,9.99999e-01,9.99993e-01,9.65896e-01,9.99999e-01
4.419582309e-01,9.66527e-01,9.99999e-01,9.99999e-01,9.99967e-01,9.66558e-01,9.99999e-01
4.441680220e-01,9.67184e-01,9.99999e-01,9.99999e-01,9.99974e-01,9.67208e-01,9.99999e-01
4.463888621e-01,9.67820e-01,9.99999e-01,9.99999e-01,9.99973e-01,9.67845e-01,9.99999e-01
4.486208064e-01,9.68454e-01,9.99999e-01,9.99999e-01,9.99983e-01,9.68470e-01,9.99999e-01
4.508639105e-01,9.69076e-01,9.99999e-01,9.99999e-01,9.99992e-01,9.69083e-01,9.99999e-01
4.531182300e-01,9.69681e-01,9.99999e-01,9.99999e-01,9.99996e-01,9.69684e-01,9.99999e-01
4.553838212e-01,9.70272e-01,9.99999e-01,9.99999e-01,9.99997e-01,9.70274e-01,9.99999e-01
4.576607403e-01,9.70852e-01,9.99999e-01,9.99999e-01,9.99998e-01,9.70852e-01,9.99999e-01
4.599490440e-01,9.71419e-01,9.99999e-01,9.99999e-01,9.99998e-01,9.71420e-01,9.99999e-01
4.622487892e-01,9.71976e-01,9.99999e-01,9.99999e-01,9.99999e-01,9.71976e-01,9.99999e-01
4.645600332e-01,9.72522e-01,9.99999e-01,9.99999e-01,9.99999e-01,9.72522e-01,9.99999e-01
4.668828333e-01,9.73050e-01,9.99999e-01,9.99999e-01,9.99991e-01,9.73058e-01,9.99999e-01
4.692172475e-01,9.73567e-01,9.99999e-01,9.99999e-01,9.99983e-01,9.73583e-01,9.99999e-01
4.715633337e-01,9.74087e-01,9.99999e-01,9.99999e-01,9.99988e-01,9.74098e-01,9.99999e-01
4.739211504e-01,9.74593e-01,9.99999e-01,9.99999e-01,9.99989e-01,9.74603e-01,9.99999e-01
4.762907561e-01,9.75093e-01,9.99999e-01,9.99999e-01,9.99994e-01,9.75098e-01,9.99999e-01
4.786722099e-01,9.75582e-01,9.99999e-01,9.99999e-01,9.99997e-01,9.75584e-01,9.99999e-01
4.810655710e-01,9.76060e-01,9.99999e-01,9.99999e-01,9.99998e-01,9.76060e-01,9.99999e-01
4.834708988e-01,9.76521e-01,9.99999e-01,9.99999e-01,9.99993e-01,9.76528e-01,9.99999e-01
4.858882533e-01,9.76975e-01,9.99999e-01,9.99999e-01,9.99988e-01,9.76986e-01,9.99999e-01
4.883176946e-01,9.77426e-01,9.99999e-01,9.99999e-01,9.99989e-01,9.77435e-01,9.99999e-01
4.907592831e-01,9.77867e-01,9.99999e-01,9.99999e-01,9.99990e-01,9.77876e-01,9.99999e-01
4.932130795e-01,9.78302e-01,9.99999e-01,9.99999e-01,9.99993e-01,9.78308e-01,9.99999e-01
4.956791449e-01,9.78729e-01,9.99999e-01,9.99999e-01,9.99996e-01,9.78732e-01,9.99999e-01
4.981575406e-01,9.79132e-01,9.99999e-01,9.99999e-01,9.99983e-01,9.79148e-01,9.99999e-01
5.006483283e-01,9.79514e-01,9.99999e-01,9.99999e-01,9.99957e-01,9.79555e-01,9.99999e-01
5.031515699e-01,9.79744e-01,9.99999e-01,9.99999e-01,9.99786e-01,9.79955e-01,9.99997e-01
5.056673278e-01,9.80234e-01,9.99999e-01,9.99999e-01,9.99887e-01,9.80347e-01,9.99996e-01
5.081956644e-01,9.80591e-01,9.99999e-01,9.99999e-01,9.99857e-01,9.80731e-01,9.99997e-01
5.107366428e-01,9.81014e-01,9.99999e-01,9.99999e-01,9.99903e-01,9.81108e-01,9.99999e-01
5.132903260e-01,9.81424e-01,9.99999e-01,9.99999e-01,9.99944e-01,9.81478e-01,9.99999e-01
5.158567776e-01,9.81818e-01,9.99999e-01,9.99999e-01,9.99976e-01,9.81841e-01,9.99999e-01
5.184360615e-01,9.82187e-01,9.99999e-01,9.99999e-01,9.99990e-01,9.82196e-01,9.99999e-01
5.210282418e-01,9.82541e-01,9.99999e-01,9.99999e-01,9.99996e-01,9.82545e-01,9.99999e-01
5.236333830e-01,9.82873e-01,9.99999e-01,9.99999e-01,9.99985e-01,9.82886e-01,9.99999e-01
5.262515499e-01,9.83213e-01,9.99999e-01,9.99999e-01,9.99990e-01,9.83222e-01,9.99999e-01
5.288828077e-01,9.83542e-01,9.99999e-01,9.99999e-01,9.99991e-01,9.83550e-01,9.99999e-01
5.315272217e-01,9.83866e-01,9.99999e-01,9.99999e-01,9.99992e-01,9.83872e-01,9.99999e-01
5.341848578e-01,9.84184e-01,9.99999e-01,9.99999e-01,9.99994e-01,9.84188e-01,9.99999e-01
5.368557821e-01,9.84482e-01,9.99999e-01,9.99999e-01,9.99983e-01,9.84498e-01,9.99999e-01
5.395400610e-01,9.84744e-01,9.99999e-01,9.99999e-01,9.99941e-01,9.84802e-01,9.99999e-01
5.422377613e-01,9.85025e-01,9.99999e-01,9.99999e-01,9.99924e-01,9.85100e-01,9.99998e-01
5.449489501e-01,9.85322e-01,9.99999e-01,9.99999e-01,9.99929e-01,9.85392e-01,9.99998e-01
5.476736949e-01,9.85617e-01,9.99999e-01,9.99999e-01,9.99937e-01,9.85679e-01,9.99998e-01
5.504120634e-01,9.85915e-01,9.99999e-01,9.99999e-01,9.99954e-01,9.85960e-01,9.99999e-01
5.531641237e-01,9.86213e-01,9.99999e-01,9.99999e-01,9.99976e-01,9.86235e-01,9.99999e-01
5.559299443e-01,9.86494e-01,9.99999e-01,9.99999e-01,9.99988e-01,9.86505e-01,9.99999e-01
5.587095940e-01,9.86763e-01,9.99999e-01,9.99999e-01,9.99992e-01,9.86770e-01,9.99999e-01
5.615031420e-01,9.87022e-01,9.99999e-01,9.99999e-01,9.99991e-01,9.87029e-01,9.99999e-01
5.643106577e-01,9.87275e-01,9.99999e-01,9.99999e-01,9.99990e-01,9.87284e-01,9.99999e-01
5.671322110e-01,9.87428e-01,9.99999e-01,9.99999e-01,9.99894e-01,9.87533e-01,9.99998e-01
5.699678720e-01,9.87665e-01,9.99999e-01,9.99999e-01,9.99887e-01,9.87778e-01,9.99996e-01
5.728177114e-01,9.87901e-01,9.99999e-01,9.99999e-01,9.99883e-01,9.88018e-01,9.99997e-01
5.756818000e-01,9.88146e-01,9.99999e-01,9.99999e-01,9.99892e-01,9.88253e-01,9.99998e-01
5.785602090e-01,9.88392e-01,9.99999e-01,9.99999e-01,9.99906e-01,9.88484e-01,9.99999e-01
5.814530100e-01,9.88618e-01,9.99999e-01,9.99999e-01,9.99905e-01,9.88710e-01,9.99999e-01
5.843602750e-01,9.88821e-01,9.99999e-01,9.99999e-01,9.99887e-01,9.88932e-01,9.99998e-01
5.872820764e-01,9.88190e-01,9.99999e-01,9.99999e-01,9.99036e-01,9.89149e-01,9.99992e-01
5.902184868e-01,9.88191e-01,9.99999e-01,9.99999e-01,9.98833e-01,9.89363e-01,9.99981e-01
5.931695792e-01,9.88739e-01,9.99999e-01,9.99999e-01,9.99175e-01,9.89572e-01,9.99981e-01
5.961354271e-01,9.88873e-01,9.99999e-01,9.99999e-01,9.99096e-01,9.89776e-01,9.99989e-01
5.991161043e-01,9.89323e-01,9.99999e-01,9.99999e-01,9.99341e-01,9.89977e-01,9.99996e-01
6.021116848e-01,9.89804e-01,9.99999e-01,9.99999e-01,9.99626e-01,9.90174e-01,9.99999e-01
6.051222432e-01,9.90180e-01,9.99999e-01,9.99999e-01,9.99810e-01,9.90367e-01,9.99999e-01
6.081478544e-01,9.90476e-01,9.99999e-01,9.99999e-01,9.99918e-01,9.90557e-01,9.99999e-01
6.111885937e-01,9.90708e-01,9.99999e-01,9.99999e-01,9.99965e-01,9.90742e-01,9.99999e-01
6.142445367e-01,9.90909e-01,9.99999e-01,9.99999e-01,9.99984e-01,9.90924e-01,9.99999e-01
6.173157594e-01,9.91094e-01,9.99999e-01,9.99999e-01,9.99991e-01,9.91103e-01,9.99999e-01
6.204023382e-01,9.91271e-01,9.99999e-01,9.99999e-01,9.99992e-01,9.91278e-01,9.99999e-01
6.235043498e-01,9.91418e-01,9.99999e-01,9.99999e-01,9.99967e-01,9.91449e-01,9.99999e-01
6.266218716e-01,9.91450e-01,9.99999e-01,9.99999e-01,9.99831e-01,9.91618e-01,9.99998e-01
6.297549810e-01,9.91719e-01,9.99999e-01,9.99999e-01,9.99938e-01,9.91782e-01,9.99997e-01
6.329037559e-01,9.91822e-01,9.99999e-01,9.99999e-01,9.99878e-01,9.91944e-01,9.99997e-01
6.360682746e-01,9.91999e-01,9.99999e-01,9.99999e-01,9.99896e-01,9.92103e-01,9.99998e-01
6.392486160e-01,9.92124e-01,9.99999e-01,9.99999e-01,9.99865e-01,9.92258e-01,9.99999e-01
6.424448591e-01,9.92231e-01,9.99999e-01,9.99999e-01,9.99819e-01,9.92410e-01,9.99998e-01
6.456570834e-01,9.91727e-01,9.99999e-01,9.99999e-01,9.99165e-01,9.92560e-01,9.99994e-01
6.488853688e-01,9.92087e-01,9.99999e-01,9.99999e-01,9.99389e-01,9.92706e-01,9.99986e-01
6.521297956e-01,9.92221e-01,9.99999e-01,9.99999e-01,9.99377e-01,9.92849e-01,9.99988e-01
6.553904446e-01,9.92368e-01,9.99999e-01,9.99999e-01,9.99380e-01,9.92990e-01,9.99991e-01
6.586673968e-01,9.92599e-01,9.99999e-01,9.99999e-01,9.99469e-01,9.93128e-01,9.99996e-01
6.619607338e-01,9.92970e-01,9.99999e-01,9.99999e-01,9.99704e-01,9.93263e-01,9.99998e-01
6.652705375e-01,9.93220e-01,9.99999e-01,9.99999e-01,9.99822e-01,9.93396e-01,9.99999e-01
6.685968902e-01,9.93444e-01,9.99999e-01,9.99999e-01,9.99917e-01,9.93526e-01,9.99999e-01
6.719398746e-01,9.93616e-01,9.99999e-01,9.99999e-01,9.99961e-01,9.93653e-01,9.99999e-01
6.752995740e-01,9.93758e-01,9.99999e-01,9.99999e-01,9.99978e-01,9.93778e-01,9.99999e-01
6.786760719e-01,9.93871e-01,9.99999e-01,9.99999e-01,9.99969e-01,9.93901e-01,9.99999e-01
6.820694522e-01,9.93970e-01,9.99999e-01,9.99999e-01,9.99948e-01,9.94021e-01,9.99999e-01
6.854797995e-01,9.94073e-01,9.99999e-01,9.99999e-01,9.99933e-01,9.94139e-01,9.99998e-01
6.889071985e-01,9.94094e-01,9.99999e-01,9.99999e-01,9.99839e-01,9.94254e-01,9.99998e-01
6.923517345e-01,9.91757e-01,9.99999e-01,9.99999e-01,9.97387e-01,9.94367e-01,9.99987e-01
6.958134932e-01,9.93102e-01,9.99999e-01,9.99999e-01,9.98643e-01,9.94478e-01,9.99971e-01
6.992925606e-01,9.93279e-01,9.99999e-01,9.99999e-01,9.98709e-01,9.94587e-01,9.99974e-01
7.027890234e-01,9.93092e-01,9.99999e-01,9.99999e-01,9.98407e-01,9.94694e-01,9.99980e-01
7.063029686e-01,9.93458e-01,9.99999e-01,9.99999e-01,9.98661e-01,9.94798e-01,9.99990e-01
7.098344834e-01,9.93618e-01,9.99999e-01,9.99999e-01,9.98716e-01,9.94901e-01,9.99993e-01
7.133836558e-01,9.93285e-01,9.99999e-01,9.99999e-01,9.98285e-01,9.95001e-01,9.99988e-01
7.169505741e-01,9.81296e-01,9.99999e-01,9.99999e-01,9.86214e-01,9.95100e-01,9.99911e-01
7.205353270e-01,9.88332e-01,9.99999e-01,9.99999e-01,9.93255e-01,9.95196e-01,9.99845e-01
7.241380036e-01,9.86634e-01,9.99999e-01,9.99999e-01,9.91433e-01,9.95291e-01,9.99866e-01
7.277586936e-01,9.87579e-01,9.99999e-01,9.99999e-01,9.92267e-01,9.95384e-01,9.99890e-01
7.313974871e-01,9.87258e-01,9.99999e-01,9.99999e-01,9.91795e-01,9.95474e-01,9.99948e-01
7.350544745e-01,9.91082e-01,9.99999e-01,9.99999e-01,9.95515e-01,9.95564e-01,9.99981e-01
7.387297469e-01,9.92360e-01,9.99999e-01,9.99999e-01,9.96701e-01,9.95651e-01,9.99991e-01
7.424233956e-01,9.94129e-01,9.99999e-01,9.99999e-01,9.98386e-01,9.95737e-01,9.99997e-01
7.461355126e-01,9.94847e-01,9.99999e-01,9.99999e-01,9.99021e-01,9.95821e-01,9.99999e-01
7.498661902e-01,9.95450e-01,9.99999e-01,9.99999e-01,9.99544e-01,9.95903e-01,9.99999e-01
7.536155211e-01,9.95762e-01,9.99999e-01,9.99999e-01,9.99776e-01,9.95984e-01,9.99999e-01
7.573835987e-01,9.95949e-01,9.99999e-01,9.99999e-01,9.99884e-01,9.96063e-01,9.99999e-01
7.611705167e-01,9.96070e-01,9.99999e-01,9.99999e-01,9.99928e-01,9.96141e-01,9.99999e-01
7.649763693e-01,9.96172e-01,9.99999e-01,9.99999e-01,9.99954e-01,9.96217e-01,9.99999e-01
7.688012511e-01,9.96260e-01,9.99999e-01,9.99999e-01,9.99968e-01,9.96291e-01,9.99999e-01
7.726452574e-01,9.96339e-01,9.99999e-01,9.99999e-01,9.99973e-01,9.96364e-01,9.99999e-01
7.765084837e-01,9.96400e-01,9.99999e-01,9.99999e-01,9.99963e-01,9.96436e-01,9.99999e-01
7.803910261e-01,9.96349e-01,9.99999e-01,9.99999e-01,9.99841e-01,9.96506e-01,9.99999e-01
7.842929812e-01,9.96026e-01,9.99999e-01,9.99999e-01,9.99449e-01,9.96575e-01,9.99998e-01
7.882144461e-01,9.95506e-01,9.99999e-01,9.99999e-01,9.98866e-01,9.96643e-01,9.99991e-01
7.921555184e-01,9.96076e-01,9.99999e-01,9.99999e-01,9.99378e-01,9.96709e-01,9.99986e-01
7.961162960e-01,9.95665e-01,9.99999e-01,9.99999e-01,9.98900e-01,9.96774e-01,9.99986e-01
8.000968774e-01,9.95559e-01,9.99999e-01,9.99999e-01,9.98731e-01,9.96837e-01,9.99985e-01
8.040973618e-01,9.95624e-01,9.99999e-01,9.99999e-01,9.98730e-01,9.96900e-01,9.99988e-01
8.081178486e-01,9.94094e-01,9.99999e-01,9.99999e-01,9.97134e-01,9.96961e-01,9.99989e-01
8.121584379e-01,9.85088e-01,9.99999e-01,9.99999e-01,9.88070e-01,9.97021e-01,9.99959e-01
8.162192301e-01,9.82824e-01,9.99999e-01,9.99999e-01,9.85849e-01,9.97080e-01,9.99849e-01
8.203003262e-01,9.89847e-01,9.99999e-01,9.99999e-01,9.92862e-01,9.97137e-01,9.99823e-01
8.244018279e-01,9.87112e-01,9.99999e-01,9.99999e-01,9.90027e-01,9.97194e-01,9.99859e-01
8.285238370e-01,9.88711e-01,9.99999e-01,9.99999e-01,9.91547e-01,9.97249e-01,9.99889e-01
8.326664562e-01,9.88735e-01,9.99999e-01,9.99999e-01,9.91453e-01,9.97303e-01,9.99954e-01
8.368297885e-01,9.91267e-01,9.99999e-01,9.99999e-01,9.93903e-01,9.97356e-01,9.99989e-01
8.410139374e-01,9.93790e-01,9.99999e-01,9.99999e-01,9.96377e-01,9.97408e-01,9.99993e-01
8.452190071e-01,9.95684e-01,9.99999e-01,9.99999e-01,9.98223e-01,9.97460e-01,9.99995e-01
8.494451021e-01,9.96479e-01,9.99999e-01,9.99999e-01,9.98969e-01,9.97510e-01,9.99996e-01
8.536923276e-01,9.96949e-01,9.99999e-01,9.99999e-01,9.99390e-01,9.97559e-01,9.99997e-01
8.579607893e-01,9.97232e-01,9.99999e-01,9.99999e-01,9.99624e-01,9.97607e-01,9.99999e-01
8.622505932e-01,9.97416e-01,9.99999e-01,9.99999e-01,9.99761e-01,9.97654e-01,9.99999e-01
8.665618462e-01,9.97553e-01,9.99999e-01,9.99999e-01,9.99852e-01,9.97700e-01,9.99999e-01
8.708946554e-01,9.97577e-01,9.99999e-01,9.99999e-01,9.99830e-01,9.97746e-01,9.99999e-01
8.752491287e-01,9.97565e-01,9.99999e-01,9.99999e-01,9.99773e-01,9.97790e-01,9.99999e-01
8.796253743e-01,9.97521e-01,9.99999e-01,9.99999e-01,9.99686e-01,9.97834e-01,9.99998e-01
8.840235012e-01,9.97518e-01,9.99999e-01,9.99999e-01,9.99642e-01,9.97876e-01,9.99997e-01
8.884436187e-01,9.96606e-01,9.99999e-01,9.99999e-01,9.98691e-01,9.97918e-01,9.99993e-01
8.928858368e-01,9.84192e-01,9.99999e-01,9.99999e-01,9.86239e-01,9.97959e-01,9.99963e-01
8.973502660e-01,9.73621e-01,9.99999e-01,9.99999e-01,9.75750e-01,9.98000e-01,9.99816e-01
9.018370173e-01,9.85334e-01,9.99999e-01,9.99999e-01,9.87553e-01,9.98039e-01,9.99712e-01
9.063462024e-01,9.86891e-01,9.99999e-01,9.99999e-01,9.89040e-01,9.98078e-01,9.99747e-01
9.108779334e-01,9.80853e-01,9.99999e-01,9.99999e-01,9.82962e-01,9.98116e-01,9.99737e-01
9.154323231e-01,9.78673e-01,9.99999e-01,9.99999e-01,9.80696e-01,9.98153e-01,9.99782e-01
9.200094847e-01,9.82933e-01,9.99999e-01,9.99999e-01,9.84835e-01,9.98189e-01,9.99878e-01
9.246095321e-01,9.74108e-01,9.99999e-01,9.99999e-01,9.75975e-01,9.98225e-01,9.99859e-01
9.292325798e-01,8.46008e-01,9.99999e-01,9.99999e-01,8.47944e-01,9.98260e-01,9.99454e-01
9.338787427e-01,8.04193e-01,9.99999e-01,9.99999e-01,8.07385e-01,9.98294e-01,9.97747e-01
9.385481364e-01,9.13795e-01,9.99999e-01,9.99999e-01,9.17782e-01,9.98328e-01,9.97321e-01
9.432408771e-01,8.81784e-01,9.99999e-01,9.99999e-01,8.85276e-01,9.98361e-01,9.97688e-01
9.479570815e-01,8.39025e-01,9.99999e-01,9.99999e-01,8.41958e-01,9.98393e-01,9.98118e-01
9.526968669e-01,8.79325e-01,9.99999e-01,9.99999e-01,8.81724e-01,9.98425e-01,9.98851e-01
9.574603512e-01,8.92018e-01,9.99999e-01,9.99999e-01,8.93918e-01,9.98456e-01,9.99416e-01
9.622476530e-01,9.11635e-01,9.99999e-01,9.99999e-01,9.13384e-01,9.98487e-01,9.99596e-01
9.670588912e-01,9.47617e-01,9.99999e-01,9.99999e-01,9.49286e-01,9.98516e-01,9.99723e-01
9.718941857e-01,9.66633e-01,9.99999e-01,9.99999e-01,9.68237e-01,9.98546e-01,9.99796e-01
9.767536566e-01,9.72040e-01,9.99999e-01,9.99999e-01,9.73578e-01,9.98574e-01,9.99844e-01
9.816374249e-01,9.78968e-01,9.99999e-01,9.99999e-01,9.80390e-01,9.98602e-01,9.99945e-01
9.865456120e-01,9.86355e-01,9.99999e-01,9.99999e-01,9.87718e-01,9.98630e-01,9.99988e-01
9.914783401e-01,9.91062e-01,9.99999e-01,9.99999e-01,9.92397e-01,9.98657e-01,9.99996e-01
9.964357318e-01,9.94542e-01,9.99999e-01,9.99999e-01,9.95854e-01,9.98684e-01,9.99997e-01
1.001417910e+00,9.96225e-01,9.99999e-01,9.99999e-01,9.97514e-01,9.98709e-01,9.99996e-01
1.006425000e+00,9.97316e-01,9.99999e-01,9.99999e-01,9.98582e-01,9.98735e-01,9.99995e-01
1.011457125e+00,9.97878e-01,9.99999e-01,9.99999e-01,9.99120e-01,9.98760e-01,9.99995e-01
1.016514411e+00,9.98185e-01,9.99999e-01,9.99999e-01,9.99402e-01,9.98784e-01,9.99996e-01
1.021596983e+00,9.98331e-01,9.99999e-01,9.99999e-01,9.99523e-01,9.98808e-01,9.99996e-01
1.026704968e+00,9.98459e-01,9.99999e-01,9.99999e-01,9.99628e-01,9.98832e-01,9.99997e-01
1.031838492e+00,9.98585e-01,9.99999e-01,9.99999e-01,9.99729e-01,9.98855e-01,9.99999e-01
1.036997685e+00,9.98717e-01,9.99999e-01,9.99999e-01,9.99839e-01,9.98877e-01,9.99999e-01
1.042182673e+00,9.98709e-01,9.99999e-01,9.99999e-01,9.99808e-01,9.98900e-01,9.99999e-01
1.047393587e+00,9.98668e-01,9.99999e-01,9.99999e-01,9.99746e-01,9.98921e-01,9.99999e-01
1.052630555e+00,9.98595e-01,9.99999e-01,9.99999e-01,9.99651e-01,9.98943e-01,9.99999e-01
1.057893707e+00,9.98383e-01,9.99999e-01,9.99999e-01,9.99418e-01,9.98963e-01,9.99999e-01
1.063183176e+00,9.98029e-01,9.99999e-01,9.99999e-01,9.99043e-01,9.98984e-01,9.99999e-01
1.068499092e+00,9.97404e-01,9.99999e-01,9.99999e-01,9.98399e-01,9.99004e-01,9.99998e-01
1.073841587e+00,9.97149e-01,9.99999e-01,9.99999e-01,9.98125e-01,9.99024e-01,9.99997e-01
1.079210795e+00,9.96639e-01,9.99999e-01,9.99999e-01,9.97599e-01,9.99043e-01,9.99993e-01
1.084606849e+00,9.95416e-01,9.99999e-01,9.99999e-01,9.96366e-01,9.99062e-01,9.99984e-01
1.090029883e+00,9.93830e-01,9.99999e-01,9.99999e-01,9.94776e-01,9.99080e-01,9.99967e-01
1.095480033e+00,9.84883e-01,9.99999e-01,9.99999e-01,9.85827e-01,9.99098e-01,9.99941e-01
1.100957433e+00,9.63305e-01,9.99999e-01,9.99999e-01,9.64258e-01,9.99116e-01,9.99893e-01
1.106462220e+00,9.09741e-01,9.99999e-01,9.99999e-01,9.10692e-01,9.99134e-01,9.99819e-01
1.111994531e+00,8.18836e-01,9.99999e-01,9.99999e-01,8.19923e-01,9.99151e-01,9.99522e-01
1.117554504e+00,7.21278e-01,9.99999e-01,9.99999e-01,7.23123e-01,9.99167e-01,9.98277e-01
1.123142276e+00,7.78555e-01,9.99999e-01,9.99999e-01,7.82382e-01,9.99184e-01,9.95919e-01
1.128757988e+00,8.52695e-01,9.99999e-01,9.99999e-01,8.57422e-01,9.99200e-01,9.95281e-01
1.134401778e+00,6.74502e-01,9.99999e-01,9.99999e-01,6.77751e-01,9.99216e-01,9.95986e-01
1.140073787e+00,9.10498e-01,9.99999e-01,9.99999e-01,9.14130e-01,9.99231e-01,9.96791e-01
1.145774156e+00,8.23453e-01,9.99999e-01,9.99999e-01,8.26500e-01,9.99246e-01,9.97062e-01
1.151503026e+00,8.04923e-01,9.99999e-01,9.99999e-01,8.06838e-01,9.99261e-01,9.98362e-01
1.157260541e+00,8.39392e-01,9.99999e-01,9.99999e-01,8.40411e-01,9.99276e-01,9.99509e-01
1.163046844e+00,8.79229e-01,9.99999e-01,9.99999e-01,8.79975e-01,9.99290e-01,9.99860e-01
1.168862078e+00,9.15069e-01,9.99999e-01,9.99999e-01,9.15771e-01,9.99304e-01,9.99927e-01
1.174706389e+00,9.46440e-01,9.99999e-01,9.99999e-01,9.47175e-01,9.99318e-01,9.99904e-01
1.180579921e+00,9.66761e-01,9.99999e-01,9.99999e-01,9.67546e-01,9.99331e-01,9.99856e-01
1.186482820e+00,9.80781e-01,9.99999e-01,9.99999e-01,9.81568e-01,9.99344e-01,9.99852e-01
1.192415234e+00,9.88469e-01,9.99999e-01,9.99999e-01,9.89212e-01,9.99357e-01,9.99889e-01
1.198377311e+00,9.90171e-01,9.99999e-01,9.99999e-01,9.90897e-01,9.99370e-01,9.99895e-01
1.204369197e+00,9.90672e-01,9.99999e-01,9.99999e-01,9.91377e-01,9.99382e-01,9.99905e-01
1.210391043e+00,9.91101e-01,9.99999e-01,9.99999e-01,9.91758e-01,9.99395e-01,9.99942e-01
1.216442998e+00,9.92363e-01,9.99999e-01,9.99999e-01,9.92986e-01,9.99407e-01,9.99964e-01
1.222525213e+00,9.93939e-01,9.99999e-01,9.99999e-01,9.94538e-01,9.99418e-01,9.99977e-01
1.228637839e+00,9.95628e-01,9.99999e-01,9.99999e-01,9.96205e-01,9.99430e-01,9.99989e-01
