#,Wave/freq,Total,N2,O2,H2O,Rayleigh,CIA
4.000000000e-01,4.83727e-01,9.99999e-01,9.99999e-01,9.99917e-01,4.83767e-01,9.99999e-01
4.020000000e-01,4.90738e-01,9.99999e-01,9.99999e-01,9.99948e-01,4.90763e-01,9.99999e-01
4.040100000e-01,4.97701e-01,9.99999e-01,9.99999e-01,9.99977e-01,4.97711e-01,9.99999e-01
4.060300500e-01,5.04616e-01,9.99999e-01,9.99999e-01,9.99994e-01,5.04618e-01,9.99999e-01
4.080602003e-01,5.11481e-01,9.99999e-01,9.99999e-01,9.99997e-01,5.11482e-01,9.99999e-01
4.101005013e-01,5.18300e-01,9.99999e-01,9.99999e-01,9.99999e-01,5.18300e-01,9.99999e-01
4.121510038e-01,5.25071e-01,9.99999e-01,9.99999e-01,9.99996e-01,5.25073e-01,9.99999e-01
4.142117588e-01,5.31785e-01,9.99999e-01,9.99999e-01,9.99977e-01,5.31797e-01,9.99999e-01
4.162828176e-01,5.38417e-01,9.99999e-01,9.99999e-01,9.99898e-01,5.38472e-01,9.99999e-01
4.183642317e-01,5.45063e-01,9.99999e-01,9.99999e-01,9.99939e-01,5.45096e-01,9.99999e-01
4.204560528e-01,5.51648e-01,9.99999e-01,9.99999e-01,9.99962e-01,5.51669e-01,9.99999e-01
4.225583331e-01,5.58181e-01,9.99999e-01,9.99999e-01,9.99985e-01,5.58188e-01,9.99999e-01
4.246711247e-01,5.64648e-01,9.99999e-01,9.99999e-01,9.99988e-01,5.64654e-01,9.99999e-01
4.267944804e-01,5.71056e-01,9.99999e-01,9.99999e-01,9.99983e-01,5.71065e-01,9.99999e-01
4.289284528e-01,5.77412e-01,9.99999e-01,9.99999e-01,9.99986e-01,5.77420e-01,9.99999e-01
4.310730950e-01,5.83714e-01,9.99999e-01,9.99999e-01,9.99994e-01,5.83717e-01,9.99999e-01
4.332284605e-01,5.89957e-01,9.99999e-01,9.99999e-01,9.99998e-01,5.89957e-01,9.99999e-01
4.353946028e-01,5.96139e-01,9.99999e-01,9.99999e-01,9.99998e-01,5.96139e-01,9.99999e-01
4.375715758e-01,6.02255e-01,9.99999e-01,9.99999e-01,9.99989e-01,6.02261e-01,9.99999e-01
4.397594337e-01,6.08270e-01,9.99999e-01,9.99999e-01,9.99910e-01,6.08324e-01,9.99999e-01
4.419582309e-01,6.14048e-01,9.99999e-01,9.99999e-01,9.99548e-01,6.14326e-01,9.99999e-01
4.441680220e-01,6.20047e-01,9.99999e-01,9.99999e-01,9.99646e-01,6.20266e-01,9.99999e-01
4.463888621e-01,6.25916e-01,9.99999e-01,9.99999e-01,9.99632e-01,6.26146e-01,9.99999e-01
4.486208064e-01,6.31818e-01,9.99999e-01,9.99999e-01,9.99771e-01,6.31963e-01,9.99999e-01
4.508639105e-01,6.37649e-01,9.99999e-01,9.99999e-01,9.99892e-01,6.37717e-01,9.99999e-01
4.531182300e-01,6.43382e-01,9.99999e-01,9.99999e-01,9.99957e-01,6.43409e-01,9.99999e-01
4.553838212e-01,6.49020e-01,9.99999e-01,9.99999e-01,9.99970e-01,6.49038e-01,9.99999e-01
4.576607403e-01,6.54595e-01,9.99999e-01,9.99999e-01,9.99986e-01,6.54604e-01,9.99999e-01
4.599490440e-01,6.60099e-01,9.99999e-01,9.99999e-01,9.99990e-01,6.60105e-01,9.99999e-01
4.622487892e-01,6.65542e-01,9.99999e-01,9.99999e-01,9.99997e-01,6.65543e-01,9.99999e-01
4.645600332e-01,6.70913e-01,9.99999e-01,9.99999e-01,9.99993e-01,6.70917e-01,9.99999e-01
4.668828333e-01,6.76154e-01,9.99999e-01,9.99999e-01,9.99891e-01,6.76227e-01,9.99999e-01
4.692172475e-01,6.81316e-01,9.99999e-01,9.99999e-01,9.99769e-01,6.81473e-01,9.99999e-01
4.715633337e-01,6.86552e-01,9.99999e-01,9.99999e-01,9.99848e-01,6.86655e-01,9.99999e-01
4.739211504e-01,6.91673e-01,9.99999e-01,9.99999e-01,9.99855e-01,6.91773e-01,9.99999e-01
4.762907561e-01,6.96774e-01,9.99999e-01,9.99999e-01,9.99924e-01,6.96826e-01,9.99999e-01
4.786722099e-01,7.01794e-01,9.99999e-01,9.99999e-01,9.99968e-01,7.01816e-01,9.99999e-01
4.810655710e-01,7.06735e-01,9.99999e-01,9.99999e-01,9.99990e-01,7.06742e-01,9.99999e-01
4.834708988e-01,7.11541e-01,9.99999e-01,9.99999e-01,9.99911e-01,7.11604e-01,9.99999e-01
4.858882533e-01,7.16285e-01,9.99999e-01,9.99999e-01,9.99836e-01,7.16402e-01,9.99999e-01
4.883176946e-01,7.21039e-01,9.99999e-01,9.99999e-01,9.99863e-01,7.21137e-01,9.99999e-01
4.907592831e-01,7.25719e-01,9.99999e-01,9.99999e-01,9.99876e-01,7.25809e-01,9.99999e-01
4.932130795e-01,7.30354e-01,9.99999e-01,9.99999e-01,9.99911e-01,7.30418e-01,9.99999e-01
4.956791449e-01,7.34930e-01,9.99999e-01,9.99999e-01,9.99953e-01,7.34964e-01,9.99999e-01
4.981575406e-01,7.39277e-01,9.99999e-01,9.99999e-01,9.99768e-01,7.39448e-01,9.99999e-01
5.006483283e-01,7.43421e-01,9.99999e-01,9.99999e-01,9.99400e-01,7.43870e-01,9.99995e-01
5.031515699e-01,7.45932e-01,9.99999e-01,9.99999e-01,9.96959e-01,7.48230e-01,9.99967e-01
5.056673278e-01,7.51293e-01,9.99999e-01,9.99999e-01,9.98393e-01,7.52529e-01,9.99962e-01
5.081956644e-01,7.55216e-01,9.99999e-01,9.99999e-01,9.97973e-01,7.56767e-01,9.99975e-01
5.107366428e-01,7.59900e-01,9.99999e-01,9.99999e-01,9.98630e-01,7.60945e-01,9.99995e-01
5.132903260e-01,7.64463e-01,9.99999e-01,9.99999e-01,9.99217e-01,7.65062e-01,9.99999e-01
5.158567776e-01,7.68866e-01,9.99999e-01,9.99999e-01,9.99668e-01,7.69120e-01,9.99999e-01
5.184360615e-01,7.73016e-01,9.99999e-01,9.99999e-01,9.99867e-01,7.73118e-01,9.99999e-01
5.210282418e-01,7.77019e-01,9.99999e-01,9.99999e-01,9.99950e-01,7.77058e-01,9.99999e-01
5.236333830e-01,7.80783e-01,9.99999e-01,9.99999e-01,9.99801e-01,7.80939e-01,9.99998e-01
5.262515499e-01,7.84664e-01,9.99999e-01,9.99999e-01,9.99875e-01,7.84762e-01,9.99997e-01
5.288828077e-01,7.88438e-01,9.99999e-01,9.99999e-01,9.99885e-01,7.88528e-01,9.99998e-01
5.315272217e-01,7.92158e-01,9.99999e-01,9.99999e-01,9.99899e-01,7.92238e-01,9.99999e-01
5.341848578e-01,7.95838e-01,9.99999e-01,9.99999e-01,9.99934e-01,7.95891e-01,9.99999e-01
5.368557821e-01,7.99303e-01,9.99999e-01,9.99999e-01,9.99768e-01,7.99488e-01,9.99998e-01
5.395400610e-01,8.02356e-01,9.99999e-01,9.99999e-01,9.99167e-01,8.03029e-01,9.99992e-01
5.422377613e-01,8.05631e-01,9.99999e-01,9.99999e-01,9.98921e-01,8.06516e-01,9.99980e-01
5.449489501e-01,8.09122e-01,9.99999e-01,9.99999e-01,9.98998e-01,8.09949e-01,9.99979e-01
5.476736949e-01,8.12598e-01,9.99999e-01,9.99999e-01,9.99111e-01,8.13328e-01,9.99989e-01
5.504120634e-01,8.16126e-01,9.99999e-01,9.99999e-01,9.99355e-01,8.16655e-01,9.99996e-01
5.531641237e-01,8.19662e-01,9.99999e-01,9.99999e-01,9.99675e-01,8.19928e-01,9.99999e-01
5.559299443e-01,8.23021e-01,9.99999e-01,9.99999e-01,9.99843e-01,8.23150e-01,9.99999e-01
5.587095940e-01,8.26239e-01,9.99999e-01,9.99999e-01,9.99901e-01,8.26320e-01,9.99999e-01
5.615031420e-01,8.29349e-01,9.99999e-01,9.99999e-01,9.99890e-01,8.29440e-01,9.99999e-01
5.643106577e-01,8.32406e-01,9.99999e-01,9.99999e-01,9.99876e-01,8.32510e-01,9.99998e-01
5.671322110e-01,8.34265e-01,9.99999e-01,9.99999e-01,9.98499e-01,8.35529e-01,9.99986e-01
5.699678720e-01,8.37122e-01,9.99999e-01,9.99999e-01,9.98396e-01,8.38500e-01,9.99958e-01
5.728177114e-01,8.39992e-01,9.99999e-01,9.99999e-01,9.98333e-01,8.41423e-01,9.99965e-01
5.756818000e-01,8.42988e-01,9.99999e-01,9.99999e-01,9.98469e-01,8.44297e-01,9.99978e-01
5.785602090e-01,8.45989e-01,9.99999e-01,9.99999e-01,9.98665e-01,8.47124e-01,9.99993e-01
5.814530100e-01,8.48765e-01,9.99999e-01,9.99999e-01,9.98660e-01,8.49905e-01,9.99996e-01
5.843602750e-01,8.51273e-01,9.99999e-01,9.99999e-01,9.98405e-01,8.52640e-01,9.99990e-01
5.872820764e-01,8.43576e-01,9.99999e-01,9.99999e-01,9.86354e-01,8.55329e-01,9.99902e-01
5.902184868e-01,8.43540e-01,9.99999e-01,9.99999e-01,9.83436e-01,8.57973e-01,9.99736e-01
5.931695792e-01,8.50281e-01,9.99999e-01,9.99999e-01,9.88290e-01,8.60573e-01,9.99746e-01
5.961354271e-01,8.51920e-01,9.99999e-01,9.99999e-01,9.87156e-01,8.63129e-01,9.99853e-01
5.991161043e-01,8.57478e-01,9.99999e-01,9.99999e-01,9.90613e-01,8.65642e-01,9.99954e-01
6.021116848e-01,8.63475e-01,9.99999e-01,9.99999e-01,9.94662e-01,8.68113e-01,9.99994e-01
6.051222432e-01,8.68187e-01,9.99999e-01,9.99999e-01,9.97295e-01,8.70541e-01,9.99999e-01
6.081478544e-01,8.71910e-01,9.99999e-01,9.99999e-01,9.98832e-01,8.72928e-01,9.99999e-01
6.111885937e-01,8.74843e-01,9.99999e-01,9.99999e-01,9.99505e-01,8.75275e-01,9.99999e-01
6.142445367e-01,8.77388e-01,9.99999e-01,9.99999e-01,9.99779e-01,8.77581e-01,9.99999e-01
6.173157594e-01,8.79741e-01,9.99999e-01,9.99999e-01,9.99877e-01,8.79848e-01,9.99999e-01
6.204023382e-01,8.81984e-01,9.99999e-01,9.99999e-01,9.99896e-01,8.82075e-01,9.99999e-01
6.235043498e-01,8.83864e-01,9.99999e-01,9.99999e-01,9.99547e-01,8.84264e-01,9.99998e-01
6.266218716e-01,8.84276e-01,9.99999e-01,9.99999e-01,9.97602e-01,8.86415e-01,9.99982e-01
6.297549810e-01,8.87717e-01,9.99999e-01,9.99999e-01,9.99120e-01,8.88528e-01,9.99965e-01
6.329037559e-01,8.89033e-01,9.99999e-01,9.99999e-01,9.98260e-01,8.90605e-01,9.99972e-01
6.360682746e-01,8.91311e-01,9.99999e-01,9.99999e-01,9.98520e-01,8.92646e-01,9.99983e-01
6.392486160e-01,8.92928e-01,9.99999e-01,9.99999e-01,9.98081e-01,8.94650e-01,9.99992e-01
6.424448591e-01,8.94313e-01,9.99999e-01,9.99999e-01,9.97437e-01,8.96620e-01,9.99988e-01
6.456570834e-01,8.87854e-01,9.99999e-01,9.99999e-01,9.88156e-01,8.98554e-01,9.99933e-01
6.488853688e-01,8.92460e-01,9.99999e-01,9.99999e-01,9.91303e-01,9.00455e-01,9.99814e-01
6.521297956e-01,8.94191e-01,9.99999e-01,9.99999e-01,9.91139e-01,9.02322e-01,9.99847e-01
6.553904446e-01,8.96076e-01,9.99999e-01,9.99999e-01,9.91176e-01,9.04155e-01,9.99886e-01
6.586673968e-01,8.99071e-01,9.99999e-01,9.99999e-01,9.92436e-01,9.05957e-01,9.99961e-01
6.619607338e-01,9.03743e-01,9.99999e-01,9.99999e-01,9.95619e-01,9.07726e-01,9.99991e-01
6.652705375e-01,9.07152e-01,9.99999e-01,9.99999e-01,9.97462e-01,9.09463e-01,9.99995e-01
6.685968902e-01,9.10094e-01,9.99999e-01,9.99999e-01,9.98820e-01,9.11170e-01,9.99998e-01
6.719398746e-01,9.12347e-01,9.99999e-01,9.99999e-01,9.99453e-01,9.12845e-01,9.99999e-01
6.752995740e-01,9.14220e-01,9.99999e-01,9.99999e-01,9.99703e-01,9.14491e-01,9.99999e-01
6.786760719e-01,9.15716e-01,9.99999e-01,9.99999e-01,9.99572e-01,9.16107e-01,9.99998e-01
6.820694522e-01,9.17020e-01,9.99999e-01,9.99999e-01,9.99268e-01,9.17694e-01,9.99995e-01
6.854797995e-01,9.18378e-01,9.99999e-01,9.99999e-01,9.99056e-01,9.19252e-01,9.99991e-01
6.889071985e-01,9.18668e-01,9.99999e-01,9.99999e-01,9.97723e-01,9.20782e-01,9.99979e-01
6.923517345e-01,8.88412e-01,9.99999e-01,9.99999e-01,9.63445e-01,9.22285e-01,9.99820e-01
6.958134932e-01,9.05646e-01,9.99999e-01,9.99999e-01,9.80779e-01,9.23760e-01,9.99603e-01
6.992925606e-01,9.07999e-01,9.99999e-01,9.99999e-01,9.81749e-01,9.25208e-01,9.99643e-01
7.027890234e-01,9.05516e-01,9.99999e-01,9.99999e-01,9.77480e-01,9.26629e-01,9.99727e-01
7.063029686e-01,9.10292e-01,9.99999e-01,9.99999e-01,9.81023e-01,9.28025e-01,9.99864e-01
7.098344834e-01,9.12390e-01,9.99999e-01,9.99999e-01,9.81781e-01,9.29395e-01,9.99919e-01
7.133836558e-01,9.08160e-01,9.99999e-01,9.99999e-01,9.75893e-01,9.30741e-01,9.99840e-01
7.169505741e-01,7.67120e-01,9.99999e-01,9.99999e-01,8.24067e-01,9.32061e-01,9.98746e-01
7.205353270e-01,8.46496e-01,9.99999e-01,9.99999e-01,9.08944e-01,9.33357e-01,9.97790e-01
7.241380036e-01,8.26306e-01,9.99999e-01,9.99999e-01,8.85789e-01,9.34630e-01,9.98091e-01
7.277586936e-01,8.37578e-01,9.99999e-01,9.99999e-01,8.96362e-01,9.35878e-01,9.98439e-01
7.313974871e-01,8.33057e-01,9.99999e-01,9.99999e-01,8.89619e-01,9.37104e-01,9.99268e-01
7.350544745e-01,8.79903e-01,9.99999e-01,9.99999e-01,9.37993e-01,9.38307e-01,9.99745e-01
7.387297469e-01,8.96065e-01,9.99999e-01,9.99999e-01,9.53890e-01,9.39488e-01,9.99883e-01
7.424233956e-01,9.19126e-01,9.99999e-01,9.99999e-01,9.77142e-01,9.40647e-01,9.99977e-01
7.461355126e-01,9.28678e-01,9.99999e-01,9.99999e-01,9.86086e-01,9.41785e-01,9.99995e-01
7.498661902e-01,9.36767e-01,9.99999e-01,9.99999e-01,9.93495e-01,9.42901e-01,9.99998e-01
7.536155211e-01,9.40981e-01,9.99999e-01,9.99999e-01,9.96805e-01,9.43997e-01,9.99998e-01
7.573835987e-01,9.43517e-01,9.99999e-01,9.99999e-01,9.98354e-01,9.45072e-01,9.99999e-01
7.611705167e-01,9.45160e-01,9.99999e-01,9.99999e-01,9.98977e-01,9.46127e-01,9.99999e-01
7.649763693e-01,9.46556e-01,9.99999e-01,9.99999e-01,9.99358e-01,9.47163e-01,9.99999e-01
7.688012511e-01,9.47756e-01,9.99999e-01,9.99999e-01,9.99553e-01,9.48179e-01,9.99999e-01
7.726452574e-01,9.48828e-01,9.99999e-01,9.99999e-01,9.99632e-01,9.49176e-01,9.99999e-01
7.765084837e-01,9.49659e-01,9.99999e-01,9.99999e-01,9.99478e-01,9.50154e-01,9.99998e-01
7.803910261e-01,9.48974e-01,9.99999e-01,9.99999e-01,9.97750e-01,9.51115e-01,9.99997e-01
7.842929812e-01,9.44589e-01,9.99999e-01,9.99999e-01,9.92170e-01,9.52057e-01,9.99985e-01
7.882144461e-01,9.37552e-01,9.99999e-01,9.99999e-01,9.83906e-01,9.52981e-01,9.99900e-01
7.921555184e-01,9.45256e-01,9.99999e-01,9.99999e-01,9.91139e-01,9.53888e-01,9.99807e-01
7.961162960e-01,9.39734e-01,9.99999e-01,9.99999e-01,9.84424e-01,9.54778e-01,9.99815e-01
8.000968774e-01,9.38259e-01,9.99999e-01,9.99999e-01,9.81992e-01,9.55651e-01,9.99804e-01
8.040973618e-01,9.39143e-01,9.99999e-01,9.99999e-01,9.81997e-01,9.56508e-01,9.99844e-01
8.081178486e-01,9.18941e-01,9.99999e-01,9.99999e-01,9.60020e-01,9.57348e-01,9.99854e-01
8.121584379e-01,8.08880e-01,9.99999e-01,9.99999e-01,8.44672e-01,9.58173e-01,9.99427e-01
8.162192301e-01,7.83306e-01,9.99999e-01,9.99999e-01,8.18569e-01,9.58982e-01,9.97850e-01
8.203003262e-01,8.68557e-01,9.99999e-01,9.99999e-01,9.07241e-01,9.59775e-01,9.97483e-01
8.244018279e-01,8.37496e-01,9.99999e-01,9.99999e-01,8.73638e-01,9.60554e-01,9.97996e-01
8.285238370e-01,8.51223e-01,9.99999e-01,9.99999e-01,8.86870e-01,9.61318e-01,9.98426e-01
8.326664562e-01,8.51699e-01,9.99999e-01,9.99999e-01,8.85856e-01,9.62067e-01,9.99348e-01
8.368297885e-01,8.82334e-01,9.99999e-01,9.99999e-01,9.16559e-01,9.62802e-01,9.99850e-01
8.410139374e-01,9.14762e-01,9.99999e-01,9.99999e-01,9.49474e-01,9.63523e-01,9.99912e-01
8.452190071e-01,9.39950e-01,9.99999e-01,9.99999e-01,9.74868e-01,9.64231e-01,9.99947e-01
8.494451021e-01,9.50744e-01,9.99999e-01,9.99999e-01,9.85344e-01,9.64925e-01,9.99957e-01
8.536923276e-01,9.57185e-01,9.99999e-01,9.99999e-01,9.91304e-01,9.65606e-01,9.99974e-01
8.579607893e-01,9.61088e-01,9.99999e-01,9.99999e-01,9.94639e-01,9.66273e-01,9.99993e-01
8.622505932e-01,9.63631e-01,9.99999e-01,9.99999e-01,9.96589e-01,9.66928e-01,9.99998e-01
8.665618462e-01,9.65530e-01,9.99999e-01,9.99999e-01,9.97890e-01,9.67571e-01,9.99998e-01
8.708946554e-01,9.65863e-01,9.99999e-01,9.99999e-01,9.97586e-01,9.68201e-01,9.99998e-01
8.752491287e-01,9.65689e-01,9.99999e-01,9.99999e-01,9.96771e-01,9.68819e-01,9.99996e-01
8.796253743e-01,9.65087e-01,9.99999e-01,9.99999e-01,9.95534e-01,9.69426e-01,9.99989e-01
8.840235012e-01,9.65044e-01,9.99999e-01,9.99999e-01,9.94899e-01,9.70020e-01,9.99968e-01
8.884436187e-01,9.52714e-01,9.99999e-01,9.99999e-01,9.81654e-01,9.70604e-01,9.99911e-01
8.928858368e-01,8.00231e-01,9.99999e-01,9.99999e-01,8.24401e-01,9.71176e-01,9.99489e-01
8.973502660e-01,6.89725e-01,9.99999e-01,9.99999e-01,7.11645e-01,9.71737e-01,9.97385e-01
9.018370173e-01,8.13830e-01,9.99999e-01,9.99999e-01,8.40477e-01,9.72288e-01,9.95892e-01
9.063462024e-01,8.31553e-01,9.99999e-01,9.99999e-01,8.57874e-01,9.72828e-01,9.96390e-01
9.108779334e-01,7.63586e-01,9.99999e-01,9.99999e-01,7.87439e-01,9.73357e-01,9.96249e-01
9.154323231e-01,7.39081e-01,9.99999e-01,9.99999e-01,7.61266e-01,9.73876e-01,9.96899e-01
9.200094847e-01,7.86224e-01,9.99999e-01,9.99999e-01,8.08295e-01,9.74386e-01,9.98263e-01
9.246095321e-01,7.07540e-01,9.99999e-01,9.99999e-01,7.27221e-01,9.74885e-01,9.97999e-01
9.292325798e-01,1.37011e-01,9.99999e-01,9.99999e-01,1.41571e-01,9.75375e-01,9.92220e-01
9.338787427e-01,7.33035e-02,9.99999e-01,9.99999e-01,7.75819e-02,9.75856e-01,9.68229e-01
9.385481364e-01,3.31012e-01,9.99999e-01,9.99999e-01,3.52310e-01,9.76327e-01,9.62328e-01
9.432408771e-01,2.36875e-01,9.99999e-01,9.99999e-01,2.50671e-01,9.76789e-01,9.67415e-01
9.479570815e-01,1.37724e-01,9.99999e-01,9.99999e-01,1.44782e-01,9.77242e-01,9.73398e-01
9.526968669e-01,2.13669e-01,9.99999e-01,9.99999e-01,2.22168e-01,9.77687e-01,9.83689e-01
9.574603512e-01,2.30011e-01,9.99999e-01,9.99999e-01,2.37128e-01,9.78122e-01,9.91681e-01
9.622476530e-01,2.93997e-01,9.99999e-01,9.99999e-01,3.02182e-01,9.78550e-01,9.94240e-01
9.670588912e-01,4.85010e-01,9.99999e-01,9.99999e-01,4.97389e-01,9.78969e-01,9.96057e-01
9.718941857e-01,6.21687e-01,9.99999e-01,9.99999e-01,6.36623e-01,9.79380e-01,9.97095e-01
9.767536566e-01,6.71467e-01,9.99999e-01,9.99999e-01,6.86846e-01,9.79783e-01,9.97779e-01
9.816374249e-01,7.39973e-01,9.99999e-01,9.99999e-01,7.55517e-01,9.80179e-01,9.99230e-01
9.865456120e-01,8.22284e-01,9.99999e-01,9.99999e-01,8.38714e-01,9.80566e-01,9.99839e-01
9.914783401e-01,8.79580e-01,9.99999e-01,9.99999e-01,8.96703e-01,9.80946e-01,9.99955e-01
9.964357318e-01,9.24708e-01,9.99999e-01,9.99999e-01,9.42334e-01,9.81319e-01,9.99973e-01
1.001417910e+00,9.47292e-01,9.99999e-01,9.99999e-01,9.65003e-01,9.81685e-01,9.99959e-01
1.006425000e+00,9.62248e-01,9.99999e-01,9.99999e-01,9.79897e-01,9.82043e-01,9.99943e-01
1.011457125e+00,9.70038e-01,9.99999e-01,9.99999e-01,9.87472e-01,9.82395e-01,9.99947e-01
1.016514411e+00,9.74331e-01,9.99999e-01,9.99999e-01,9.91479e-01,9.82739e-01,9.99962e-01
1.021596983e+00,9.76363e-01,9.99999e-01,9.99999e-01,9.93206e-01,9.83078e-01,9.99962e-01
1.026704968e+00,9.78171e-01,9.99999e-01,9.99999e-01,9.94697e-01,9.83409e-01,9.99974e-01
1.031838492e+00,9.79934e-01,9.99999e-01,9.99999e-01,9.96143e-01,9.83734e-01,9.99992e-01
1.036997685e+00,9.81797e-01,9.99999e-01,9.99999e-01,9.97708e-01,9.84053e-01,9.99998e-01
1.042182673e+00,9.81678e-01,9.99999e-01,9.99999e-01,9.97269e-01,9.84365e-01,9.99999e-01
1.047393587e+00,9.81107e-01,9.99999e-01,9.99999e-01,9.96379e-01,9.84672e-01,9.99998e-01
1.052630555e+00,9.80082e-01,9.99999e-01,9.99999e-01,9.95036e-01,9.84972e-01,9.99998e-01
1.057893707e+00,9.77115e-01,9.99999e-01,9.99999e-01,9.91728e-01,9.85267e-01,9.99996e-01
1.063183176e+00,9.72170e-01,9.99999e-01,9.99999e-01,9.86425e-01,9.85556e-01,9.99992e-01
1.068499092e+00,9.63517e-01,9.99999e-01,9.99999e-01,9.77371e-01,9.85839e-01,9.99984e-01
1.073841587e+00,9.60062e-01,9.99999e-01,9.99999e-01,9.73611e-01,9.86117e-01,9.99965e-01
1.079210795e+00,9.53023e-01,9.99999e-01,9.99999e-01,9.66261e-01,9.86389e-01,9.99908e-01
1.084606849e+00,9.36566e-01,9.99999e-01,9.99999e-01,9.49441e-01,9.86656e-01,9.99779e-01
1.090029883e+00,9.15859e-01,9.99999e-01,9.99999e-01,9.28421e-01,9.86918e-01,9.99543e-01
1.095480033e+00,8.05815e-01,9.99999e-01,9.99999e-01,8.16957e-01,9.87175e-01,9.99175e-01
1.100957433e+00,5.94093e-01,9.99999e-01,9.99999e-01,6.02572e-01,9.87426e-01,9.98482e-01
1.106462220e+00,2.88530e-01,9.99999e-01,9.99999e-01,2.92884e-01,9.87673e-01,9.97427e-01
1.111994531e+00,7.97661e-02,9.99999e-01,9.99999e-01,8.12957e-02,9.87915e-01,9.93185e-01
1.117554504e+00,1.95918e-02,9.99999e-01,9.99999e-01,2.03222e-02,9.88152e-01,9.75617e-01
1.123142276e+00,6.60462e-02,9.99999e-01,9.99999e-01,7.08506e-02,9.88385e-01,9.43142e-01
1.128757988e+00,1.42249e-01,9.99999e-01,9.99999e-01,1.53969e-01,9.88613e-01,9.34523e-01
1.134401778e+00,6.37736e-02,9.99999e-01,9.99999e-01,6.83161e-02,9.88837e-01,9.44044e-01
1.140073787e+00,2.91453e-01,9.99999e-01,9.99999e-01,3.08552e-01,9.89056e-01,9.55035e-01
1.145774156e+00,9.89271e-02,9.99999e-01,9.99999e-01,1.04301e-01,9.89271e-01,9.58761e-01
1.151503026e+00,7.91220e-02,9.99999e-01,9.99999e-01,8.18611e-02,9.89482e-01,9.76812e-01
1.157260541e+00,1.01854e-01,9.99999e-01,9.99999e-01,1.03639e-01,9.89688e-01,9.93009e-01
1.163046844e+00,1.81548e-01,9.99999e-01,9.99999e-01,1.83767e-01,9.89891e-01,9.98013e-01
1.168862078e+00,2.92211e-01,9.99999e-01,9.99999e-01,2.95438e-01,9.90090e-01,9.98975e-01
1.174706389e+00,4.64430e-01,9.99999e-01,9.99999e-01,4.69623e-01,9.90284e-01,9.98642e-01
1.180579921e+00,6.21612e-01,9.99999e-01,9.99999e-01,6.28878e-01,9.90475e-01,9.97948e-01
1.186482820e+00,7.58814e-01,9.99999e-01,9.99999e-01,7.67581e-01,9.90663e-01,9.97894e-01
1.192415234e+00,8.47321e-01,9.99999e-01,9.99999e-01,8.56498e-01,9.90846e-01,9.98422e-01
1.198377311e+00,8.68542e-01,9.99999e-01,9.99999e-01,8.77713e-01,9.91026e-01,9.98510e-01
1.204369197e+00,8.75345e-01,9.99999e-01,9.99999e-01,8.84305e-01,9.91203e-01,9.98651e-01
1.210391043e+00,8.80416e-01,9.99999e-01,9.99999e-01,8.88802e-01,9.91376e-01,9.99179e-01
1.216442998e+00,8.96460e-01,9.99999e-01,9.99999e-01,9.04558e-01,9.91545e-01,9.99497e-01
1.222525213e+00,9.16782e-01,9.99999e-01,9.99999e-01,9.24731e-01,9.91712e-01,9.99687e-01
1.228637839e+00,9.39261e-01,9.99999e-01,9.99999e-01,9.47092e-01,9.91875e-01,9.99854e-01
