#,Wave/freq,Total,N2,O2,H2O,Rayleigh,CIA
4.000000000e-01,6.35522e-01,9.99999e-01,9.99999e-01,9.99948e-01,6.35555e-01,9.99999e-01
4.020000000e-01,6.41256e-01,9.99999e-01,9.99999e-01,9.99967e-01,6.41276e-01,9.99999e-01
4.040100000e-01,6.46920e-01,9.99999e-01,9.99999e-01,9.99986e-01,6.46929e-01,9.99999e-01
4.060300500e-01,6.52516e-01,9.99999e-01,9.99999e-01,9.99996e-01,6.52518e-01,9.99999e-01
4.080602003e-01,6.58043e-01,9.99999e-01,9.99999e-01,9.99998e-01,6.58044e-01,9.99999e-01
4.101005013e-01,6.63506e-01,9.99999e-01,9.99999e-01,9.99999e-01,6.63506e-01,9.99999e-01
4.121510038e-01,6.68902e-01,9.99999e-01,9.99999e-01,9.99997e-01,6.68904e-01,9.99999e-01
4.142117588e-01,6.74228e-01,9.99999e-01,9.99999e-01,9.99985e-01,6.74238e-01,9.99999e-01
4.162828176e-01,6.79465e-01,9.99999e-01,9.99999e-01,9.99936e-01,6.79508e-01,9.99999e-01
4.183642317e-01,6.84688e-01,9.99999e-01,9.99999e-01,9.99961e-01,6.84714e-01,9.99999e-01
4.204560528e-01,6.89840e-01,9.99999e-01,9.99999e-01,9.99976e-01,6.89855e-01,9.99999e-01
4.225583331e-01,6.94927e-01,9.99999e-01,9.99999e-01,9.99990e-01,6.94933e-01,9.99999e-01
4.246711247e-01,6.99942e-01,9.99999e-01,9.99999e-01,9.99992e-01,6.99947e-01,9.99999e-01
4.267944804e-01,7.04889e-01,9.99999e-01,9.99999e-01,9.99989e-01,7.04897e-01,9.99999e-01
4.289284528e-01,7.09777e-01,9.99999e-01,9.99999e-01,9.99991e-01,7.09782e-01,9.99999e-01
4.310730950e-01,7.14602e-01,9.99999e-01,9.99999e-01,9.99996e-01,7.14605e-01,9.99999e-01
4.332284605e-01,7.19363e-01,9.99999e-01,9.99999e-01,9.99998e-01,7.19364e-01,9.99999e-01
4.353946028e-01,7.24059e-01,9.99999e-01,9.99999e-01,9.99999e-01,7.24059e-01,9.99999e-01
4.375715758e-01,7.28687e-01,9.99999e-01,9.99999e-01,9.99993e-01,7.28692e-01,9.99999e-01
4.397594337e-01,7.33220e-01,9.99999e-01,9.99999e-01,9.99943e-01,7.33262e-01,9.99999e-01
4.419582309e-01,7.37558e-01,9.99999e-01,9.99999e-01,9.99713e-01,7.37769e-01,9.99999e-01
4.441680220e-01,7.42052e-01,9.99999e-01,9.99999e-01,9.99780e-01,7.42214e-01,9.99999e-01
4.463888621e-01,7.46427e-01,9.99999e-01,9.99999e-01,9.99770e-01,7.46598e-01,9.99999e-01
4.486208064e-01,7.50813e-01,9.99999e-01,9.99999e-01,9.99857e-01,7.50920e-01,9.99999e-01
4.508639105e-01,7.55130e-01,9.99999e-01,9.99999e-01,9.99933e-01,7.55181e-01,9.99999e-01
4.531182300e-01,7.59361e-01,9.99999e-01,9.99999e-01,9.99973e-01,7.59381e-01,9.99999e-01
4.553838212e-01,7.63507e-01,9.99999e-01,9.99999e-01,9.99981e-01,7.63521e-01,9.99999e-01
4.576607403e-01,7.67594e-01,9.99999e-01,9.99999e-01,9.99991e-01,7.67601e-01,9.99999e-01
4.599490440e-01,7.71617e-01,9.99999e-01,9.99999e-01,9.99993e-01,7.71621e-01,9.99999e-01
4.622487892e-01,7.75582e-01,9.99999e-01,9.99999e-01,9.99998e-01,7.75583e-01,9.99999e-01
4.645600332e-01,7.79483e-01,9.99999e-01,9.99999e-01,9.99995e-01,7.79486e-01,9.99999e-01
4.668828333e-01,7.83278e-01,9.99999e-01,9.99999e-01,9.99931e-01,7.83331e-01,9.99999e-01
4.692172475e-01,7.87006e-01,9.99999e-01,9.99999e-01,9.99855e-01,7.87119e-01,9.99999e-01
4.715633337e-01,7.90775e-01,9.99999e-01,9.99999e-01,9.99905e-01,7.90849e-01,9.99999e-01
4.739211504e-01,7.94452e-01,9.99999e-01,9.99999e-01,9.99909e-01,7.94523e-01,9.99999e-01
4.762907561e-01,7.98104e-01,9.99999e-01,9.99999e-01,9.99953e-01,7.98141e-01,9.99999e-01
4.786722099e-01,8.01689e-01,9.99999e-01,9.99999e-01,9.99980e-01,8.01704e-01,9.99999e-01
4.810655710e-01,8.05207e-01,9.99999e-01,9.99999e-01,9.99993e-01,8.05211e-01,9.99999e-01
4.834708988e-01,8.08619e-01,9.99999e-01,9.99999e-01,9.99943e-01,8.08664e-01,9.99999e-01
4.858882533e-01,8.11981e-01,9.99999e-01,9.99999e-01,9.99897e-01,8.12064e-01,9.99999e-01
4.883176946e-01,8.15340e-01,9.99999e-01,9.99999e-01,9.99914e-01,8.15410e-01,9.99999e-01
4.907592831e-01,8.18640e-01,9.99999e-01,9.99999e-01,9.99922e-01,8.18703e-01,9.99999e-01
4.932130795e-01,8.21900e-01,9.99999e-01,9.99999e-01,9.99944e-01,8.21944e-01,9.99999e-01
4.956791449e-01,8.25110e-01,9.99999e-01,9.99999e-01,9.99970e-01,8.25134e-01,9.99999e-01
4.981575406e-01,8.28153e-01,9.99999e-01,9.99999e-01,9.99854e-01,8.28273e-01,9.99999e-01
5.006483283e-01,8.31045e-01,9.99999e-01,9.99999e-01,9.99621e-01,8.31361e-01,9.99996e-01
5.031515699e-01,8.32795e-01,9.99999e-01,9.99999e-01,9.98096e-01,8.34399e-01,9.99979e-01
5.056673278e-01,8.36531e-01,9.99999e-01,9.99999e-01,9.98997e-01,8.37389e-01,9.99976e-01
5.081956644e-01,8.39256e-01,9.99999e-01,9.99999e-01,9.98736e-01,8.40329e-01,9.99985e-01
5.107366428e-01,8.42501e-01,9.99999e-01,9.99999e-01,9.99146e-01,8.43222e-01,9.99997e-01
5.132903260e-01,8.45655e-01,9.99999e-01,9.99999e-01,9.99513e-01,8.46067e-01,9.99999e-01
5.158567776e-01,8.48690e-01,9.99999e-01,9.99999e-01,9.99794e-01,8.48865e-01,9.99999e-01
5.184360615e-01,8.51547e-01,9.99999e-01,9.99999e-01,9.99917e-01,8.51617e-01,9.99999e-01
5.210282418e-01,8.54296e-01,9.99999e-01,9.99999e-01,9.99968e-01,8.54323e-01,9.99999e-01
5.236333830e-01,8.56877e-01,9.99999e-01,9.99999e-01,9.99875e-01,8.56984e-01,9.99998e-01
5.262515499e-01,8.59533e-01,9.99999e-01,9.99999e-01,9.99922e-01,8.59600e-01,9.99998e-01
5.288828077e-01,8.62111e-01,9.99999e-01,9.99999e-01,9.99928e-01,8.62173e-01,9.99998e-01
5.315272217e-01,8.64648e-01,9.99999e-01,9.99999e-01,9.99937e-01,8.64702e-01,9.99999e-01
5.341848578e-01,8.67153e-01,9.99999e-01,9.99999e-01,9.99958e-01,8.67188e-01,9.99999e-01
5.368557821e-01,8.69506e-01,9.99999e-01,9.99999e-01,9.99854e-01,8.69633e-01,9.99999e-01
5.395400610e-01,8.71573e-01,9.99999e-01,9.99999e-01,9.99473e-01,8.72035e-01,9.99994e-01
5.422377613e-01,8.73800e-01,9.99999e-01,9.99999e-01,9.99328e-01,8.74397e-01,9.99987e-01
5.449489501e-01,8.76157e-01,9.99999e-01,9.99999e-01,9.99371e-01,8.76718e-01,9.99986e-01
5.476736949e-01,8.78509e-01,9.99999e-01,9.99999e-01,9.99447e-01,8.79000e-01,9.99993e-01
5.504120634e-01,8.80887e-01,9.99999e-01,9.99999e-01,9.99598e-01,8.81242e-01,9.99997e-01
5.531641237e-01,8.83267e-01,9.99999e-01,9.99999e-01,9.99797e-01,8.83445e-01,9.99999e-01
5.559299443e-01,8.85524e-01,9.99999e-01,9.99999e-01,9.99902e-01,8.85610e-01,9.99999e-01
5.587095940e-01,8.87684e-01,9.99999e-01,9.99999e-01,9.99938e-01,8.87738e-01,9.99999e-01
5.615031420e-01,8.89768e-01,9.99999e-01,9.99999e-01,9.99931e-01,8.89828e-01,9.99999e-01
5.643106577e-01,8.91812e-01,9.99999e-01,9.99999e-01,9.99921e-01,8.91882e-01,9.99998e-01
5.671322110e-01,8.93040e-01,9.99999e-01,9.99999e-01,9.99045e-01,8.93900e-01,9.99991e-01
5.699678720e-01,8.94971e-01,9.99999e-01,9.99999e-01,9.99007e-01,8.95883e-01,9.99973e-01
5.728177114e-01,8.96875e-01,9.99999e-01,9.99999e-01,9.98956e-01,8.97831e-01,9.99978e-01
5.756818000e-01,8.98874e-01,9.99999e-01,9.99999e-01,9.99044e-01,8.99744e-01,9.99987e-01
5.785602090e-01,9.00871e-01,9.99999e-01,9.99999e-01,9.99168e-01,9.01623e-01,9.99995e-01
5.814530100e-01,9.02712e-01,9.99999e-01,9.99999e-01,9.99163e-01,9.03470e-01,9.99997e-01
5.843602750e-01,9.04370e-01,9.99999e-01,9.99999e-01,9.98996e-01,9.05283e-01,9.99993e-01
5.872820764e-01,8.99201e-01,9.99999e-01,9.99999e-01,9.91390e-01,9.07064e-01,9.99939e-01
5.902184868e-01,8.99255e-01,9.99999e-01,9.99999e-01,9.89644e-01,9.08813e-01,9.99835e-01
5.931695792e-01,9.03706e-01,9.99999e-01,9.99999e-01,9.92660e-01,9.10531e-01,9.99841e-01
5.961354271e-01,9.04811e-01,9.99999e-01,9.99999e-01,9.91968e-01,9.12219e-01,9.99908e-01
5.991161043e-01,9.08497e-01,9.99999e-01,9.99999e-01,9.94141e-01,9.13876e-01,9.99971e-01
6.021116848e-01,9.12457e-01,9.99999e-01,9.99999e-01,9.96675e-01,9.15503e-01,9.99996e-01
6.051222432e-01,9.15558e-01,9.99999e-01,9.99999e-01,9.98317e-01,9.17101e-01,9.99999e-01
6.081478544e-01,9.18002e-01,9.99999e-01,9.99999e-01,9.99273e-01,9.18670e-01,9.99999e-01
6.111885937e-01,9.19928e-01,9.99999e-01,9.99999e-01,9.99692e-01,9.20210e-01,9.99999e-01
6.142445367e-01,9.21596e-01,9.99999e-01,9.99999e-01,9.99862e-01,9.21723e-01,9.99999e-01
6.173157594e-01,9.23138e-01,9.99999e-01,9.99999e-01,9.99923e-01,9.23208e-01,9.99999e-01
6.204023382e-01,9.24607e-01,9.99999e-01,9.99999e-01,9.99935e-01,9.24666e-01,9.99999e-01
6.235043498e-01,9.25832e-01,9.99999e-01,9.99999e-01,9.99712e-01,9.26098e-01,9.99998e-01
6.266218716e-01,9.26104e-01,9.99999e-01,9.99999e-01,9.98501e-01,9.27503e-01,9.99989e-01
6.297549810e-01,9.28353e-01,9.99999e-01,9.99999e-01,9.99449e-01,9.28883e-01,9.99978e-01
6.329037559e-01,9.29214e-01,9.99999e-01,9.99999e-01,9.98916e-01,9.30238e-01,9.99982e-01
6.360682746e-01,9.30695e-01,9.99999e-01,9.99999e-01,9.99073e-01,9.31567e-01,9.99989e-01
6.392486160e-01,9.31751e-01,9.99999e-01,9.99999e-01,9.98801e-01,9.32873e-01,9.99995e-01
6.424448591e-01,9.32639e-01,9.99999e-01,9.99999e-01,9.98385e-01,9.34154e-01,9.99991e-01
6.456570834e-01,9.28380e-01,9.99999e-01,9.99999e-01,9.92527e-01,9.35411e-01,9.99954e-01
6.488853688e-01,9.31456e-01,9.99999e-01,9.99999e-01,9.94573e-01,9.36646e-01,9.99884e-01
6.521297956e-01,9.32583e-01,9.99999e-01,9.99999e-01,9.94470e-01,9.37858e-01,9.99904e-01
6.553904446e-01,9.33790e-01,9.99999e-01,9.99999e-01,9.94472e-01,9.39047e-01,9.99928e-01
6.586673968e-01,9.35756e-01,9.99999e-01,9.99999e-01,9.95281e-01,9.40214e-01,9.99975e-01
6.619607338e-01,9.38878e-01,9.99999e-01,9.99999e-01,9.97368e-01,9.41360e-01,9.99994e-01
6.652705375e-01,9.40993e-01,9.99999e-01,9.99999e-01,9.98419e-01,9.42484e-01,9.99996e-01
6.685968902e-01,9.42954e-01,9.99999e-01,9.99999e-01,9.99328e-01,9.43587e-01,9.99999e-01
6.719398746e-01,9.44349e-01,9.99999e-01,9.99999e-01,9.99659e-01,9.44670e-01,9.99999e-01
6.752995740e-01,9.45563e-01,9.99999e-01,9.99999e-01,9.99820e-01,9.45733e-01,9.99999e-01
6.786760719e-01,9.46521e-01,9.99999e-01,9.99999e-01,9.99730e-01,9.46776e-01,9.99999e-01
6.820694522e-01,9.47363e-01,9.99999e-01,9.99999e-01,9.99542e-01,9.47799e-01,9.99997e-01
6.854797995e-01,9.48238e-01,9.99999e-01,9.99999e-01,9.99409e-01,9.48803e-01,9.99994e-01
6.889071985e-01,9.48404e-01,9.99999e-01,9.99999e-01,9.98554e-01,9.49789e-01,9.99986e-01
6.923517345e-01,9.28625e-01,9.99999e-01,9.99999e-01,9.76831e-01,9.50756e-01,9.99887e-01
6.958134932e-01,9.40141e-01,9.99999e-01,9.99999e-01,9.88093e-01,9.51704e-01,9.99752e-01
6.992925606e-01,9.41459e-01,9.99999e-01,9.99999e-01,9.88487e-01,9.52635e-01,9.99776e-01
7.027890234e-01,9.39937e-01,9.99999e-01,9.99999e-01,9.85892e-01,9.53549e-01,9.99829e-01
7.063029686e-01,9.43022e-01,9.99999e-01,9.99999e-01,9.88115e-01,9.54445e-01,9.99914e-01
7.098344834e-01,9.44381e-01,9.99999e-01,9.99999e-01,9.88593e-01,9.55325e-01,9.99949e-01
7.133836558e-01,9.41457e-01,9.99999e-01,9.99999e-01,9.84692e-01,9.56187e-01,9.99900e-01
7.169505741e-01,8.45851e-01,9.99999e-01,9.99999e-01,8.84517e-01,9.57034e-01,9.99217e-01
7.205353270e-01,9.01465e-01,9.99999e-01,9.99999e-01,9.42419e-01,9.57864e-01,9.98619e-01
7.241380036e-01,8.87127e-01,9.99999e-01,9.99999e-01,9.26467e-01,9.58679e-01,9.98807e-01
7.277586936e-01,8.94769e-01,9.99999e-01,9.99999e-01,9.33466e-01,9.59479e-01,9.99025e-01
7.313974871e-01,8.92273e-01,9.99999e-01,9.99999e-01,9.29620e-01,9.60263e-01,9.99543e-01
7.350544745e-01,9.23247e-01,9.99999e-01,9.99999e-01,9.60834e-01,9.61032e-01,9.99840e-01
7.387297469e-01,9.33848e-01,9.99999e-01,9.99999e-01,9.71021e-01,9.61787e-01,9.99926e-01
7.424233956e-01,9.48788e-01,9.99999e-01,9.99999e-01,9.85737e-01,9.62528e-01,9.99986e-01
7.461355126e-01,9.54894e-01,9.99999e-01,9.99999e-01,9.91322e-01,9.63254e-01,9.99997e-01
7.498661902e-01,9.60072e-01,9.99999e-01,9.99999e-01,9.95960e-01,9.63966e-01,9.99998e-01
7.536155211e-01,9.62748e-01,9.99999e-01,9.99999e-01,9.98012e-01,9.64665e-01,9.99998e-01
7.573835987e-01,9.64364e-01,9.99999e-01,9.99999e-01,9.98976e-01,9.65351e-01,9.99999e-01
7.611705167e-01,9.65410e-01,9.99999e-01,9.99999e-01,9.99363e-01,9.66024e-01,9.99999e-01
7.649763693e-01,9.66298e-01,9.99999e-01,9.99999e-01,9.99600e-01,9.66684e-01,9.99999e-01
7.688012511e-01,9.67062e-01,9.99999e-01,9.99999e-01,9.99721e-01,9.67331e-01,9.99999e-01
7.726452574e-01,9.67744e-01,9.99999e-01,9.99999e-01,9.99770e-01,9.67966e-01,9.99999e-01
7.765084837e-01,9.68271e-01,9.99999e-01,9.99999e-01,9.99672e-01,9.68588e-01,9.99999e-01
7.803910261e-01,9.67825e-01,9.99999e-01,9.99999e-01,9.98583e-01,9.69199e-01,9.99998e-01
7.842929812e-01,9.65002e-01,9.99999e-01,9.99999e-01,9.95062e-01,9.69798e-01,9.99990e-01
7.882144461e-01,9.60537e-01,9.99999e-01,9.99999e-01,9.89919e-01,9.70386e-01,9.99930e-01
7.921555184e-01,9.65491e-01,9.99999e-01,9.99999e-01,9.94484e-01,9.70962e-01,9.99878e-01
7.961162960e-01,9.61879e-01,9.99999e-01,9.99999e-01,9.90181e-01,9.71527e-01,9.99884e-01
8.000968774e-01,9.60995e-01,9.99999e-01,9.99999e-01,9.88714e-01,9.72082e-01,9.99877e-01
8.040973618e-01,9.61546e-01,9.99999e-01,9.99999e-01,9.88700e-01,9.72626e-01,9.99906e-01
8.081178486e-01,9.48360e-01,9.99999e-01,9.99999e-01,9.74608e-01,9.73159e-01,9.99905e-01
8.121584379e-01,8.74822e-01,9.99999e-01,9.99999e-01,8.98788e-01,9.73682e-01,9.99642e-01
8.162192301e-01,8.58129e-01,9.99999e-01,9.99999e-01,8.82043e-01,9.74195e-01,9.98656e-01
8.203003262e-01,9.14053e-01,9.99999e-01,9.99999e-01,9.39256e-01,9.74698e-01,9.98427e-01
8.244018279e-01,8.94197e-01,9.99999e-01,9.99999e-01,9.18093e-01,9.75192e-01,9.98748e-01
8.285238370e-01,9.03853e-01,9.99999e-01,9.99999e-01,9.27297e-01,9.75676e-01,9.99016e-01
8.326664562e-01,9.04366e-01,9.99999e-01,9.99999e-01,9.26838e-01,9.76151e-01,9.99592e-01
8.368297885e-01,9.24878e-01,9.99999e-01,9.99999e-01,9.47110e-01,9.76616e-01,9.99906e-01
8.410139374e-01,9.45976e-01,9.99999e-01,9.99999e-01,9.68225e-01,9.77073e-01,9.99945e-01
8.452190071e-01,9.62146e-01,9.99999e-01,9.99999e-01,9.84303e-01,9.77520e-01,9.99967e-01
8.494451021e-01,9.68973e-01,9.99999e-01,9.99999e-01,9.90836e-01,9.77959e-01,9.99973e-01
8.536923276e-01,9.73078e-01,9.99999e-01,9.99999e-01,9.94586e-01,9.78390e-01,9.99983e-01
8.579607893e-01,9.75535e-01,9.99999e-01,9.99999e-01,9.96655e-01,9.78812e-01,9.99995e-01
8.622505932e-01,9.77148e-01,9.99999e-01,9.99999e-01,9.97877e-01,9.79226e-01,9.99998e-01
8.665618462e-01,9.78343e-01,9.99999e-01,9.99999e-01,9.98683e-01,9.79633e-01,9.99999e-01
8.708946554e-01,9.78550e-01,9.99999e-01,9.99999e-01,9.98489e-01,9.80031e-01,9.99998e-01
8.752491287e-01,9.78441e-01,9.99999e-01,9.99999e-01,9.97981e-01,9.80421e-01,9.99997e-01
8.796253743e-01,9.78051e-01,9.99999e-01,9.99999e-01,9.97198e-01,9.80804e-01,9.99993e-01
8.840235012e-01,9.78024e-01,9.99999e-01,9.99999e-01,9.96802e-01,9.81180e-01,9.99980e-01
8.884436187e-01,9.69955e-01,9.99999e-01,9.99999e-01,9.88243e-01,9.81548e-01,9.99944e-01
8.928858368e-01,8.68212e-01,9.99999e-01,9.99999e-01,8.84489e-01,9.81909e-01,9.99680e-01
8.973502660e-01,7.91011e-01,9.99999e-01,9.99999e-01,8.06611e-01,9.82263e-01,9.98366e-01
9.018370173e-01,8.78903e-01,9.99999e-01,9.99999e-01,8.96757e-01,9.82611e-01,9.97432e-01
9.063462024e-01,8.89723e-01,9.99999e-01,9.99999e-01,9.07199e-01,9.82951e-01,9.97744e-01
9.108779334e-01,8.43339e-01,9.99999e-01,9.99999e-01,8.59688e-01,9.83285e-01,9.97656e-01
9.154323231e-01,8.26709e-01,9.99999e-01,9.99999e-01,8.42113e-01,9.83612e-01,9.98062e-01
9.200094847e-01,8.59571e-01,9.99999e-01,9.99999e-01,8.74554e-01,9.83934e-01,9.98914e-01
9.246095321e-01,7.98543e-01,9.99999e-01,9.99999e-01,8.12337e-01,9.84248e-01,9.98749e-01
9.292325798e-01,2.60875e-01,9.99999e-01,9.99999e-01,2.66571e-01,9.84557e-01,9.93980e-01
9.338787427e-01,1.78007e-01,9.99999e-01,9.99999e-01,1.84732e-01,9.84860e-01,9.78411e-01
9.385481364e-01,4.84117e-01,9.99999e-01,9.99999e-01,5.03336e-01,9.85157e-01,9.76306e-01
9.432408771e-01,3.79459e-01,9.99999e-01,9.99999e-01,3.93111e-01,9.85448e-01,9.79525e-01
9.479570815e-01,2.69144e-01,9.99999e-01,9.99999e-01,2.77675e-01,9.85733e-01,9.83304e-01
9.526968669e-01,3.64797e-01,9.99999e-01,9.99999e-01,3.73791e-01,9.86013e-01,9.89783e-01
9.574603512e-01,3.85787e-01,9.99999e-01,9.99999e-01,3.93196e-01,9.86287e-01,9.94797e-01
9.622476530e-01,4.56169e-01,9.99999e-01,9.99999e-01,4.64056e-01,9.86556e-01,9.96399e-01
9.670588912e-01,6.30031e-01,9.99999e-01,9.99999e-01,6.40022e-01,9.86820e-01,9.97535e-01
9.718941857e-01,7.41438e-01,9.99999e-01,9.99999e-01,7.52508e-01,9.87079e-01,9.98185e-01
9.767536566e-01,7.78405e-01,9.99999e-01,9.99999e-01,7.89487e-01,9.87332e-01,9.98612e-01
9.816374249e-01,8.28305e-01,9.99999e-01,9.99999e-01,8.39123e-01,9.87581e-01,9.99519e-01
9.865456120e-01,8.85039e-01,9.99999e-01,9.99999e-01,8.96037e-01,9.87825e-01,9.99899e-01
9.914783401e-01,9.23104e-01,9.99999e-01,9.99999e-01,9.34280e-01,9.88064e-01,9.99971e-01
9.964357318e-01,9.52372e-01,9.99999e-01,9.99999e-01,9.63663e-01,9.88298e-01,9.99983e-01
1.001417910e+00,9.66818e-01,9.99999e-01,9.99999e-01,9.78062e-01,9.88528e-01,9.99974e-01
1.006425000e+00,9.76274e-01,9.99999e-01,9.99999e-01,9.87413e-01,9.88753e-01,9.99964e-01
1.011457125e+00,9.81215e-01,9.99999e-01,9.99999e-01,9.92186e-01,9.88974e-01,9.99966e-01
1.016514411e+00,9.83909e-01,9.99999e-01,9.99999e-01,9.94683e-01,9.89191e-01,9.99976e-01
1.021596983e+00,9.85185e-01,9.99999e-01,9.99999e-01,9.95758e-01,9.89403e-01,9.99976e-01
1.026704968e+00,9.86322e-01,9.99999e-01,9.99999e-01,9.96689e-01,9.89611e-01,9.99985e-01
1.031838492e+00,9.87433e-01,9.99999e-01,9.99999e-01,9.97597e-01,9.89815e-01,9.99995e-01
1.036997685e+00,9.88599e-01,9.99999e-01,9.99999e-01,9.98569e-01,9.90015e-01,9.99998e-01
1.042182673e+00,9.88518e-01,9.99999e-01,9.99999e-01,9.98289e-01,9.90212e-01,9.99999e-01
1.047393587e+00,9.88162e-01,9.99999e-01,9.99999e-01,9.97736e-01,9.90404e-01,9.99999e-01
1.052630555e+00,9.87513e-01,9.99999e-01,9.99999e-01,9.96891e-01,9.90593e-01,9.99998e-01
1.057893707e+00,9.85633e-01,9.99999e-01,9.99999e-01,9.94808e-01,9.90778e-01,9.99997e-01
1.063183176e+00,9.82510e-01,9.99999e-01,9.99999e-01,9.91478e-01,9.90959e-01,9.99995e-01
1.068499092e+00,9.77041e-01,9.99999e-01,9.99999e-01,9.85787e-01,9.91137e-01,9.99989e-01
1.073841587e+00,9.74806e-01,9.99999e-01,9.99999e-01,9.83370e-01,9.91311e-01,9.99978e-01
1.079210795e+00,9.70393e-01,9.99999e-01,9.99999e-01,9.78784e-01,9.91482e-01,9.99942e-01
1.084606849e+00,9.59815e-01,9.99999e-01,9.99999e-01,9.68029e-01,9.91649e-01,9.99862e-01
1.090029883e+00,9.46158e-01,9.99999e-01,9.99999e-01,9.54238e-01,9.91814e-01,9.99714e-01
1.095480033e+00,8.72892e-01,9.99999e-01,9.99999e-01,8.80407e-01,9.91975e-01,9.99484e-01
1.100957433e+00,7.18792e-01,9.99999e-01,9.99999e-01,7.25179e-01,9.92133e-01,9.99051e-01
1.106462220e+00,4.46803e-01,9.99999e-01,9.99999e-01,4.51000e-01,9.92287e-01,9.98392e-01
1.111994531e+00,1.92494e-01,9.99999e-01,9.99999e-01,1.94790e-01,9.92439e-01,9.95739e-01
1.117554504e+00,7.39611e-02,9.99999e-01,9.99999e-01,7.56708e-02,9.92588e-01,9.84703e-01
1.123142276e+00,1.59810e-01,9.99999e-01,9.99999e-01,1.66972e-01,9.92734e-01,9.64106e-01
1.128757988e+00,2.80279e-01,9.99999e-01,9.99999e-01,2.94483e-01,9.92877e-01,9.58594e-01
1.134401778e+00,1.29807e-01,9.99999e-01,9.99999e-01,1.35505e-01,9.93017e-01,9.64681e-01
1.140073787e+00,4.53132e-01,9.99999e-01,9.99999e-01,4.69553e-01,9.93154e-01,9.71679e-01
1.145774156e+00,2.15686e-01,9.99999e-01,9.99999e-01,2.22929e-01,9.93289e-01,9.74045e-01
1.151503026e+00,1.86573e-01,9.99999e-01,9.99999e-01,1.90579e-01,9.93421e-01,9.85456e-01
1.157260541e+00,2.30091e-01,9.99999e-01,9.99999e-01,2.32601e-01,9.93551e-01,9.95629e-01
1.163046844e+00,3.35411e-01,9.99999e-01,9.99999e-01,3.37964e-01,9.93678e-01,9.98758e-01
1.168862078e+00,4.59986e-01,9.99999e-01,9.99999e-01,4.63150e-01,9.93802e-01,9.99360e-01
1.174706389e+00,6.16896e-01,9.99999e-01,9.99999e-01,6.21193e-01,9.93924e-01,9.99152e-01
1.180579921e+00,7.42120e-01,9.99999e-01,9.99999e-01,7.47523e-01,9.94044e-01,9.98718e-01
1.186482820e+00,8.41554e-01,9.99999e-01,9.99999e-01,8.47610e-01,9.94161e-01,9.98684e-01
1.192415234e+00,9.01718e-01,9.99999e-01,9.99999e-01,9.07802e-01,9.94276e-01,9.99014e-01
1.198377311e+00,9.15607e-01,9.99999e-01,9.99999e-01,9.21630e-01,9.94389e-01,9.99069e-01
1.204369197e+00,9.20006e-01,9.99999e-01,9.99999e-01,9.25873e-01,9.94499e-01,9.99157e-01
1.210391043e+00,9.23441e-01,9.99999e-01,9.99999e-01,9.28922e-01,9.94608e-01,9.99487e-01
1.216442998e+00,9.34050e-01,9.99999e-01,9.99999e-01,9.39307e-01,9.94714e-01,9.99685e-01
1.222525213e+00,9.47225e-01,9.99999e-01,9.99999e-01,9.52344e-01,9.94818e-01,9.99804e-01
1.228637839e+00,9.61642e-01,9.99999e-01,9.99999e-01,9.66639e-01,9.94920e-01,9.99908e-01
