#,Wave/freq,Total,N2,O2,H2O,Rayleigh,CIA
4.000000000e-01,8.40537e-01,9.99999e-01,9.99999e-01,9.99979e-01,8.40554e-01,9.99999e-01
4.020000000e-01,8.43435e-01,9.99999e-01,9.99999e-01,9.99987e-01,8.43445e-01,9.99999e-01
4.040100000e-01,8.46282e-01,9.99999e-01,9.99999e-01,9.99994e-01,8.46287e-01,9.99999e-01
4.060300500e-01,8.49080e-01,9.99999e-01,9.99999e-01,9.99998e-01,8.49081e-01,9.99999e-01
4.080602003e-01,8.51829e-01,9.99999e-01,9.99999e-01,9.99999e-01,8.51829e-01,9.99999e-01
4.101005013e-01,8.54532e-01,9.99999e-01,9.99999e-01,9.99999e-01,8.54532e-01,9.99999e-01
4.121510038e-01,8.57189e-01,9.99999e-01,9.99999e-01,9.99998e-01,8.57190e-01,9.99999e-01
4.142117588e-01,8.59798e-01,9.99999e-01,9.99999e-01,9.99994e-01,8.59803e-01,9.99999e-01
4.162828176e-01,8.62351e-01,9.99999e-01,9.99999e-01,9.99975e-01,8.62372e-01,9.99999e-01
4.183642317e-01,8.64885e-01,9.99999e-01,9.99999e-01,9.99985e-01,8.64898e-01,9.99999e-01
4.204560528e-01,8.67373e-01,9.99999e-01,9.99999e-01,9.99990e-01,8.67381e-01,9.99999e-01
4.225583331e-01,8.69819e-01,9.99999e-01,9.99999e-01,9.99996e-01,8.69822e-01,9.99999e-01
4.246711247e-01,8.72219e-01,9.99999e-01,9.99999e-01,9.99996e-01,8.72221e-01,9.99999e-01
4.267944804e-01,8.74576e-01,9.99999e-01,9.99999e-01,9.99995e-01,8.74580e-01,9.99999e-01
4.289284528e-01,8.76895e-01,9.99999e-01,9.99999e-01,9.99996e-01,8.76898e-01,9.99999e-01
4.310730950e-01,8.79175e-01,9.99999e-01,9.99999e-01,9.99998e-01,8.79176e-01,9.99999e-01
4.332284605e-01,8.81415e-01,9.99999e-01,9.99999e-01,9.99999e-01,8.81415e-01,9.99999e-01
4.353946028e-01,8.83616e-01,9.99999e-01,9.99999e-01,9.99999e-01,8.83616e-01,9.99999e-01
4.375715758e-01,8.85776e-01,9.99999e-01,9.99999e-01,9.99997e-01,8.85778e-01,9.99999e-01
4.397594337e-01,8.87884e-01,9.99999e-01,9.99999e-01,9.99978e-01,8.87902e-01,9.99999e-01
4.419582309e-01,8.89895e-01,9.99999e-01,9.99999e-01,9.99892e-01,8.89990e-01,9.99999e-01
4.441680220e-01,8.91966e-01,9.99999e-01,9.99999e-01,9.99914e-01,8.92041e-01,9.99999e-01
4.463888621e-01,8.93978e-01,9.99999e-01,9.99999e-01,9.99911e-01,8.94056e-01,9.99999e-01
4.486208064e-01,8.95987e-01,9.99999e-01,9.99999e-01,9.99944e-01,8.96036e-01,9.99999e-01
4.508639105e-01,8.97958e-01,9.99999e-01,9.99999e-01,9.99973e-01,8.97981e-01,9.99999e-01
4.531182300e-01,8.99883e-01,9.99999e-01,9.99999e-01,9.99989e-01,8.99892e-01,9.99999e-01
4.553838212e-01,9.01763e-01,9.99999e-01,9.99999e-01,9.99992e-01,9.01769e-01,9.99999e-01
4.576607403e-01,9.03610e-01,9.99999e-01,9.99999e-01,9.99996e-01,9.03612e-01,9.99999e-01
4.599490440e-01,9.05421e-01,9.99999e-01,9.99999e-01,9.99997e-01,9.05423e-01,9.99999e-01
4.622487892e-01,9.07201e-01,9.99999e-01,9.99999e-01,9.99999e-01,9.07202e-01,9.99999e-01
4.645600332e-01,9.08947e-01,9.99999e-01,9.99999e-01,9.99997e-01,9.08949e-01,9.99999e-01
4.668828333e-01,9.10641e-01,9.99999e-01,9.99999e-01,9.99973e-01,9.10664e-01,9.99999e-01
4.692172475e-01,9.12299e-01,9.99999e-01,9.99999e-01,9.99944e-01,9.12349e-01,9.99999e-01
4.715633337e-01,9.13971e-01,9.99999e-01,9.99999e-01,9.99963e-01,9.14004e-01,9.99999e-01
4.739211504e-01,9.15597e-01,9.99999e-01,9.99999e-01,9.99964e-01,9.15629e-01,9.99999e-01
4.762907561e-01,9.17208e-01,9.99999e-01,9.99999e-01,9.99981e-01,9.17224e-01,9.99999e-01
4.786722099e-01,9.18784e-01,9.99999e-01,9.99999e-01,9.99992e-01,9.18791e-01,9.99999e-01
4.810655710e-01,9.20327e-01,9.99999e-01,9.99999e-01,9.99997e-01,9.20329e-01,9.99999e-01
4.834708988e-01,9.21821e-01,9.99999e-01,9.99999e-01,9.99978e-01,9.21840e-01,9.99999e-01
4.858882533e-01,9.23287e-01,9.99999e-01,9.99999e-01,9.99960e-01,9.23323e-01,9.99999e-01
4.883176946e-01,9.24749e-01,9.99999e-01,9.99999e-01,9.99966e-01,9.24779e-01,9.99999e-01
4.907592831e-01,9.26181e-01,9.99999e-01,9.99999e-01,9.99969e-01,9.26208e-01,9.99999e-01
4.932130795e-01,9.27592e-01,9.99999e-01,9.99999e-01,9.99978e-01,9.27612e-01,9.99999e-01
4.956791449e-01,9.28979e-01,9.99999e-01,9.99999e-01,9.99988e-01,9.28990e-01,9.99999e-01
4.981575406e-01,9.30291e-01,9.99999e-01,9.99999e-01,9.99944e-01,9.30342e-01,9.99999e-01
5.006483283e-01,9.31536e-01,9.99999e-01,9.99999e-01,9.99856e-01,9.31670e-01,9.99998e-01
5.031515699e-01,9.32287e-01,9.99999e-01,9.99999e-01,9.99271e-01,9.32973e-01,9.99991e-01
5.056673278e-01,9.33885e-01,9.99999e-01,9.99999e-01,9.99614e-01,9.34253e-01,9.99990e-01
5.081956644e-01,9.35049e-01,9.99999e-01,9.99999e-01,9.99514e-01,9.35509e-01,9.99993e-01
5.107366428e-01,9.36433e-01,9.99999e-01,9.99999e-01,9.99671e-01,9.36741e-01,9.99998e-01
5.132903260e-01,9.37775e-01,9.99999e-01,9.99999e-01,9.99811e-01,9.37951e-01,9.99999e-01
5.158567776e-01,9.39064e-01,9.99999e-01,9.99999e-01,9.99920e-01,9.39139e-01,9.99999e-01
5.184360615e-01,9.40274e-01,9.99999e-01,9.99999e-01,9.99967e-01,9.40304e-01,9.99999e-01
5.210282418e-01,9.41437e-01,9.99999e-01,9.99999e-01,9.99987e-01,9.41448e-01,9.99999e-01
5.236333830e-01,9.42526e-01,9.99999e-01,9.99999e-01,9.99952e-01,9.42571e-01,9.99999e-01
5.262515499e-01,9.43644e-01,9.99999e-01,9.99999e-01,9.99969e-01,9.43673e-01,9.99999e-01
5.288828077e-01,9.44728e-01,9.99999e-01,9.99999e-01,9.99972e-01,9.44754e-01,9.99999e-01
5.315272217e-01,9.45792e-01,9.99999e-01,9.99999e-01,9.99975e-01,9.45815e-01,9.99999e-01
5.341848578e-01,9.46841e-01,9.99999e-01,9.99999e-01,9.99983e-01,9.46856e-01,9.99999e-01
5.368557821e-01,9.47826e-01,9.99999e-01,9.99999e-01,9.99944e-01,9.47878e-01,9.99999e-01
5.395400610e-01,9.48691e-01,9.99999e-01,9.99999e-01,9.99801e-01,9.48881e-01,9.99997e-01
5.422377613e-01,9.49615e-01,9.99999e-01,9.99999e-01,9.99741e-01,9.49865e-01,9.99994e-01
5.449489501e-01,9.50598e-01,9.99999e-01,9.99999e-01,9.99760e-01,9.50830e-01,9.99994e-01
5.476736949e-01,9.51573e-01,9.99999e-01,9.99999e-01,9.99786e-01,9.51778e-01,9.99997e-01
5.504120634e-01,9.52560e-01,9.99999e-01,9.99999e-01,9.99845e-01,9.52707e-01,9.99998e-01
5.531641237e-01,9.53545e-01,9.99999e-01,9.99999e-01,9.99921e-01,9.53619e-01,9.99999e-01
5.559299443e-01,9.54479e-01,9.99999e-01,9.99999e-01,9.99961e-01,9.54514e-01,9.99999e-01
5.587095940e-01,9.55370e-01,9.99999e-01,9.99999e-01,9.99976e-01,9.55392e-01,9.99999e-01
5.615031420e-01,9.56229e-01,9.99999e-01,9.99999e-01,9.99973e-01,9.56254e-01,9.99999e-01
5.643106577e-01,9.57071e-01,9.99999e-01,9.99999e-01,9.99970e-01,9.57099e-01,9.99999e-01
5.671322110e-01,9.57584e-01,9.99999e-01,9.99999e-01,9.99643e-01,9.57929e-01,9.99996e-01
5.699678720e-01,9.58364e-01,9.99999e-01,9.99999e-01,9.99614e-01,9.58742e-01,9.99989e-01
5.728177114e-01,9.59150e-01,9.99999e-01,9.99999e-01,9.99601e-01,9.59540e-01,9.99991e-01
5.756818000e-01,9.59967e-01,9.99999e-01,9.99999e-01,9.99633e-01,9.60323e-01,9.99994e-01
5.785602090e-01,9.60783e-01,9.99999e-01,9.99999e-01,9.99680e-01,9.61092e-01,9.99998e-01
5.814530100e-01,9.61537e-01,9.99999e-01,9.99999e-01,9.99679e-01,9.61845e-01,9.99998e-01
5.843602750e-01,9.62217e-01,9.99999e-01,9.99999e-01,9.99619e-01,9.62585e-01,9.99997e-01
5.872820764e-01,9.60128e-01,9.99999e-01,9.99999e-01,9.96719e-01,9.63310e-01,9.99976e-01
5.902184868e-01,9.60112e-01,9.99999e-01,9.99999e-01,9.96006e-01,9.64022e-01,9.99936e-01
5.931695792e-01,9.61943e-01,9.99999e-01,9.99999e-01,9.97182e-01,9.64719e-01,9.99938e-01
5.961354271e-01,9.62384e-01,9.99999e-01,9.99999e-01,9.96907e-01,9.65404e-01,9.99962e-01
5.991161043e-01,9.63886e-01,9.99999e-01,9.99999e-01,9.97743e-01,9.66076e-01,9.99988e-01
6.021116848e-01,9.65494e-01,9.99999e-01,9.99999e-01,9.98717e-01,9.66735e-01,9.99998e-01
6.051222432e-01,9.66753e-01,9.99999e-01,9.99999e-01,9.99350e-01,9.67381e-01,9.99999e-01
6.081478544e-01,9.67744e-01,9.99999e-01,9.99999e-01,9.99719e-01,9.68015e-01,9.99999e-01
6.111885937e-01,9.68522e-01,9.99999e-01,9.99999e-01,9.99881e-01,9.68636e-01,9.99999e-01
6.142445367e-01,9.69195e-01,9.99999e-01,9.99999e-01,9.99946e-01,9.69246e-01,9.99999e-01
6.173157594e-01,9.69816e-01,9.99999e-01,9.99999e-01,9.99970e-01,9.69844e-01,9.99999e-01
6.204023382e-01,9.70407e-01,9.99999e-01,9.99999e-01,9.99974e-01,9.70431e-01,9.99999e-01
6.235043498e-01,9.70902e-01,9.99999e-01,9.99999e-01,9.99892e-01,9.71007e-01,9.99999e-01
6.266218716e-01,9.71010e-01,9.99999e-01,9.99999e-01,9.99425e-01,9.71571e-01,9.99995e-01
6.297549810e-01,9.71912e-01,9.99999e-01,9.99999e-01,9.99789e-01,9.72125e-01,9.99991e-01
6.329037559e-01,9.72256e-01,9.99999e-01,9.99999e-01,9.99582e-01,9.72668e-01,9.99993e-01
6.360682746e-01,9.72852e-01,9.99999e-01,9.99999e-01,9.99645e-01,9.73200e-01,9.99995e-01
6.392486160e-01,9.73274e-01,9.99999e-01,9.99999e-01,9.99540e-01,9.73723e-01,9.99997e-01
6.424448591e-01,9.73636e-01,9.99999e-01,9.99999e-01,9.99387e-01,9.74235e-01,9.99996e-01
6.456570834e-01,9.71954e-01,9.99999e-01,9.99999e-01,9.97159e-01,9.74737e-01,9.99983e-01
6.488853688e-01,9.73147e-01,9.99999e-01,9.99999e-01,9.97907e-01,9.75230e-01,9.99955e-01
6.521297956e-01,9.73596e-01,9.99999e-01,9.99999e-01,9.97866e-01,9.75713e-01,9.99962e-01
6.553904446e-01,9.74102e-01,9.99999e-01,9.99999e-01,9.97891e-01,9.76187e-01,9.99971e-01
6.586673968e-01,9.74867e-01,9.99999e-01,9.99999e-01,9.98181e-01,9.76652e-01,9.99990e-01
6.619607338e-01,9.76079e-01,9.99999e-01,9.99999e-01,9.98948e-01,9.77108e-01,9.99997e-01
6.652705375e-01,9.76958e-01,9.99999e-01,9.99999e-01,9.99390e-01,9.77555e-01,9.99998e-01
6.685968902e-01,9.77717e-01,9.99999e-01,9.99999e-01,9.99716e-01,9.77993e-01,9.99999e-01
6.719398746e-01,9.78295e-01,9.99999e-01,9.99999e-01,9.99868e-01,9.78423e-01,9.99999e-01
6.752995740e-01,9.78776e-01,9.99999e-01,9.99999e-01,9.99928e-01,9.78845e-01,9.99999e-01
6.786760719e-01,9.79158e-01,9.99999e-01,9.99999e-01,9.99897e-01,9.79258e-01,9.99999e-01
6.820694522e-01,9.79492e-01,9.99999e-01,9.99999e-01,9.99824e-01,9.79664e-01,9.99998e-01
6.854797995e-01,9.79839e-01,9.99999e-01,9.99999e-01,9.99774e-01,9.80062e-01,9.99997e-01
6.889071985e-01,9.79916e-01,9.99999e-01,9.99999e-01,9.99458e-01,9.80451e-01,9.99994e-01
6.923517345e-01,9.72085e-01,9.99999e-01,9.99999e-01,9.91122e-01,9.80834e-01,9.99956e-01
6.958134932e-01,9.76527e-01,9.99999e-01,9.99999e-01,9.95323e-01,9.81209e-01,9.99903e-01
6.992925606e-01,9.77181e-01,9.99999e-01,9.99999e-01,9.95605e-01,9.81577e-01,9.99914e-01
7.027890234e-01,9.76526e-01,9.99999e-01,9.99999e-01,9.94553e-01,9.81937e-01,9.99934e-01
7.063029686e-01,9.77763e-01,9.99999e-01,9.99999e-01,9.95422e-01,9.82291e-01,9.99967e-01
7.098344834e-01,9.78303e-01,9.99999e-01,9.99999e-01,9.95607e-01,9.82637e-01,9.99980e-01
7.133836558e-01,9.77227e-01,9.99999e-01,9.99999e-01,9.94187e-01,9.82977e-01,9.99961e-01
7.169505741e-01,9.37722e-01,9.99999e-01,9.99999e-01,9.53922e-01,9.83311e-01,9.99699e-01
7.205353270e-01,9.60482e-01,9.99999e-01,9.99999e-01,9.76975e-01,9.83638e-01,9.99470e-01
7.241380036e-01,9.55073e-01,9.99999e-01,9.99999e-01,9.71087e-01,9.83958e-01,9.99542e-01
7.277586936e-01,9.58186e-01,9.99999e-01,9.99999e-01,9.73859e-01,9.84273e-01,9.99626e-01
7.313974871e-01,9.56984e-01,9.99999e-01,9.99999e-01,9.72140e-01,9.84581e-01,9.99824e-01
7.350544745e-01,9.69766e-01,9.99999e-01,9.99999e-01,9.84710e-01,9.84883e-01,9.99938e-01
7.387297469e-01,9.74047e-01,9.99999e-01,9.99999e-01,9.88726e-01,9.85179e-01,9.99971e-01
7.424233956e-01,9.80010e-01,9.99999e-01,9.99999e-01,9.94464e-01,9.85470e-01,9.99994e-01
7.461355126e-01,9.82448e-01,9.99999e-01,9.99999e-01,9.96645e-01,9.85755e-01,9.99998e-01
7.498661902e-01,9.84491e-01,9.99999e-01,9.99999e-01,9.98434e-01,9.86034e-01,9.99999e-01
7.536155211e-01,9.85552e-01,9.99999e-01,9.99999e-01,9.99233e-01,9.86308e-01,9.99999e-01
7.573835987e-01,9.86188e-01,9.99999e-01,9.99999e-01,9.99604e-01,9.86577e-01,9.99999e-01
7.611705167e-01,9.86598e-01,9.99999e-01,9.99999e-01,9.99754e-01,9.86840e-01,9.99999e-01
7.649763693e-01,9.86947e-01,9.99999e-01,9.99999e-01,9.99846e-01,9.87099e-01,9.99999e-01
7.688012511e-01,9.87246e-01,9.99999e-01,9.99999e-01,9.99892e-01,9.87352e-01,9.99999e-01
7.726452574e-01,9.87513e-01,9.99999e-01,9.99999e-01,9.99911e-01,9.87600e-01,9.99999e-01
7.765084837e-01,9.87720e-01,9.99999e-01,9.99999e-01,9.99875e-01,9.87843e-01,9.99999e-01
7.803910261e-01,9.87551e-01,9.99999e-01,9.99999e-01,9.99462e-01,9.88082e-01,9.99998e-01
7.842929812e-01,9.86461e-01,9.99999e-01,9.99999e-01,9.98125e-01,9.88316e-01,9.99996e-01
7.882144461e-01,9.84690e-01,9.99999e-01,9.99999e-01,9.96122e-01,9.88546e-01,9.99975e-01
7.921555184e-01,9.86616e-01,9.99999e-01,9.99999e-01,9.97866e-01,9.88770e-01,9.99953e-01
7.961162960e-01,9.85244e-01,9.99999e-01,9.99999e-01,9.96254e-01,9.88991e-01,9.99955e-01
8.000968774e-01,9.84870e-01,9.99999e-01,9.99999e-01,9.95661e-01,9.89207e-01,9.99952e-01
8.040973618e-01,9.85092e-01,9.99999e-01,9.99999e-01,9.95663e-01,9.89419e-01,9.99962e-01
8.081178486e-01,9.79973e-01,9.99999e-01,9.99999e-01,9.90278e-01,9.89627e-01,9.99964e-01
8.121584379e-01,9.50097e-01,9.99999e-01,9.99999e-01,9.59988e-01,9.89831e-01,9.99862e-01
8.162192301e-01,9.42427e-01,9.99999e-01,9.99999e-01,9.52406e-01,9.90031e-01,9.99484e-01
8.203003262e-01,9.66076e-01,9.99999e-01,9.99999e-01,9.76198e-01,9.90227e-01,9.99396e-01
8.244018279e-01,9.56695e-01,9.99999e-01,9.99999e-01,9.66412e-01,9.90419e-01,9.99519e-01
8.285238370e-01,9.61956e-01,9.99999e-01,9.99999e-01,9.71442e-01,9.90607e-01,9.99622e-01
8.326664562e-01,9.61976e-01,9.99999e-01,9.99999e-01,9.71066e-01,9.90792e-01,9.99843e-01
8.368297885e-01,9.70372e-01,9.99999e-01,9.99999e-01,9.79245e-01,9.90973e-01,9.99963e-01
8.410139374e-01,9.78860e-01,9.99999e-01,9.99999e-01,9.87620e-01,9.91150e-01,9.99978e-01
8.452190071e-01,9.85275e-01,9.99999e-01,9.99999e-01,9.93909e-01,9.91324e-01,9.99987e-01
8.494451021e-01,9.87986e-01,9.99999e-01,9.99999e-01,9.96470e-01,9.91495e-01,9.99989e-01
8.536923276e-01,9.89582e-01,9.99999e-01,9.99999e-01,9.97907e-01,9.91662e-01,9.99992e-01
8.579607893e-01,9.90549e-01,9.99999e-01,9.99999e-01,9.98713e-01,9.91826e-01,9.99997e-01
8.622505932e-01,9.91175e-01,9.99999e-01,9.99999e-01,9.99181e-01,9.91987e-01,9.99999e-01
8.665618462e-01,9.91644e-01,9.99999e-01,9.99999e-01,9.99494e-01,9.92145e-01,9.99999e-01
8.708946554e-01,9.91726e-01,9.99999e-01,9.99999e-01,9.99421e-01,9.92299e-01,9.99999e-01
8.752491287e-01,9.91683e-01,9.99999e-01,9.99999e-01,9.99226e-01,9.92451e-01,9.99998e-01
8.796253743e-01,9.91536e-01,9.99999e-01,9.99999e-01,9.98930e-01,9.92599e-01,9.99997e-01
8.840235012e-01,9.91525e-01,9.99999e-01,9.99999e-01,9.98778e-01,9.92745e-01,9.99992e-01
8.884436187e-01,9.88485e-01,9.99999e-01,9.99999e-01,9.95585e-01,9.92888e-01,9.99978e-01
8.928858368e-01,9.47315e-01,9.99999e-01,9.99999e-01,9.54082e-01,9.93028e-01,9.99877e-01
8.973502660e-01,9.12900e-01,9.99999e-01,9.99999e-01,9.19757e-01,9.93165e-01,9.99373e-01
9.018370173e-01,9.50684e-01,9.99999e-01,9.99999e-01,9.58039e-01,9.93299e-01,9.99015e-01
9.063462024e-01,9.56150e-01,9.99999e-01,9.99999e-01,9.63304e-01,9.93431e-01,9.99134e-01
9.108779334e-01,9.36282e-01,9.99999e-01,9.99999e-01,9.43196e-01,9.93561e-01,9.99101e-01
9.154323231e-01,9.29075e-01,9.99999e-01,9.99999e-01,9.35671e-01,9.93687e-01,9.99256e-01
9.200094847e-01,9.42916e-01,9.99999e-01,9.99999e-01,9.49181e-01,9.93812e-01,9.99583e-01
9.246095321e-01,9.16338e-01,9.99999e-01,9.99999e-01,9.22371e-01,9.93934e-01,9.99520e-01
9.292325798e-01,5.76364e-01,9.99999e-01,9.99999e-01,5.80896e-01,9.94053e-01,9.98132e-01
9.338787427e-01,4.87926e-01,9.99999e-01,9.99999e-01,4.94593e-01,9.94170e-01,9.92304e-01
9.385481364e-01,7.41458e-01,9.99999e-01,9.99999e-01,7.52602e-01,9.94285e-01,9.90854e-01
9.432408771e-01,6.65967e-01,9.99999e-01,9.99999e-01,6.75048e-01,9.94397e-01,9.92104e-01
9.479570815e-01,5.75232e-01,9.99999e-01,9.99999e-01,5.82152e-01,9.94508e-01,9.93569e-01
9.526968669e-01,6.58778e-01,9.99999e-01,9.99999e-01,6.64954e-01,9.94616e-01,9.96072e-01
9.574603512e-01,6.81960e-01,9.99999e-01,9.99999e-01,6.86949e-01,9.94722e-01,9.98002e-01
9.622476530e-01,7.31446e-01,9.99999e-01,9.99999e-01,7.36266e-01,9.94826e-01,9.98618e-01
9.670588912e-01,8.33308e-01,9.99999e-01,9.99999e-01,8.38348e-01,9.94928e-01,9.99054e-01
9.718941857e-01,8.90626e-01,9.99999e-01,9.99999e-01,8.95698e-01,9.95028e-01,9.99304e-01
9.767536566e-01,9.07709e-01,9.99999e-01,9.99999e-01,9.12639e-01,9.95126e-01,9.99467e-01
9.816374249e-01,9.29791e-01,9.99999e-01,9.99999e-01,9.34426e-01,9.95222e-01,9.99815e-01
9.865456120e-01,9.53988e-01,9.99999e-01,9.99999e-01,9.58513e-01,9.95316e-01,9.99961e-01
9.914783401e-01,9.69682e-01,9.99999e-01,9.99999e-01,9.74165e-01,9.95408e-01,9.99988e-01
9.964357318e-01,9.81405e-01,9.99999e-01,9.99999e-01,9.85847e-01,9.95499e-01,9.99993e-01
1.001417910e+00,9.87111e-01,9.99999e-01,9.99999e-01,9.91494e-01,9.95587e-01,9.99990e-01
1.006425000e+00,9.90832e-01,9.99999e-01,9.99999e-01,9.95149e-01,9.95674e-01,9.99985e-01
1.011457125e+00,9.92743e-01,9.99999e-01,9.99999e-01,9.96982e-01,9.95760e-01,9.99986e-01
1.016514411e+00,9.93796e-01,9.99999e-01,9.99999e-01,9.97952e-01,9.95843e-01,9.99990e-01
1.021596983e+00,9.94292e-01,9.99999e-01,9.99999e-01,9.98368e-01,9.95925e-01,9.99990e-01
1.026704968e+00,9.94733e-01,9.99999e-01,9.99999e-01,9.98727e-01,9.96005e-01,9.99993e-01
1.031838492e+00,9.95161e-01,9.99999e-01,9.99999e-01,9.99074e-01,9.96084e-01,9.99997e-01
1.036997685e+00,9.95614e-01,9.99999e-01,9.99999e-01,9.99450e-01,9.96161e-01,9.99999e-01
1.042182673e+00,9.95586e-01,9.99999e-01,9.99999e-01,9.99346e-01,9.96237e-01,9.99999e-01
1.047393587e+00,9.95447e-01,9.99999e-01,9.99999e-01,9.99132e-01,9.96311e-01,9.99999e-01
1.052630555e+00,9.95199e-01,9.99999e-01,9.99999e-01,9.98810e-01,9.96384e-01,9.99999e-01
1.057893707e+00,9.94478e-01,9.99999e-01,9.99999e-01,9.98016e-01,9.96455e-01,9.99998e-01
1.063183176e+00,9.93270e-01,9.99999e-01,9.99999e-01,9.96735e-01,9.96525e-01,9.99997e-01
1.068499092e+00,9.91142e-01,9.99999e-01,9.99999e-01,9.94533e-01,9.96594e-01,9.99995e-01
1.073841587e+00,9.90285e-01,9.99999e-01,9.99999e-01,9.93610e-01,9.96661e-01,9.99991e-01
1.079210795e+00,9.88536e-01,9.99999e-01,9.99999e-01,9.91803e-01,9.96727e-01,9.99977e-01
1.084606849e+00,9.84406e-01,9.99999e-01,9.99999e-01,9.87627e-01,9.96791e-01,9.99946e-01
1.090029883e+00,9.79125e-01,9.99999e-01,9.99999e-01,9.82321e-01,9.96854e-01,9.99890e-01
1.095480033e+00,9.49380e-01,9.99999e-01,9.99999e-01,9.52503e-01,9.96916e-01,9.99802e-01
1.100957433e+00,8.80692e-01,9.99999e-01,9.99999e-01,8.83682e-01,9.96977e-01,9.99636e-01
1.106462220e+00,7.28279e-01,9.99999e-01,9.99999e-01,7.30893e-01,9.97037e-01,9.99383e-01
1.111994531e+00,5.14699e-01,9.99999e-01,9.99999e-01,5.17043e-01,9.97095e-01,9.98364e-01
1.117554504e+00,3.41600e-01,9.99999e-01,9.99999e-01,3.44604e-01,9.97152e-01,9.94110e-01
1.123142276e+00,4.50761e-01,9.99999e-01,9.99999e-01,4.58397e-01,9.97209e-01,9.86091e-01
1.128757988e+00,5.94339e-01,9.99999e-01,9.99999e-01,6.05704e-01,9.97264e-01,9.83927e-01
1.134401778e+00,3.38278e-01,9.99999e-01,9.99999e-01,3.43893e-01,9.97318e-01,9.86316e-01
1.140073787e+00,7.30760e-01,9.99999e-01,9.99999e-01,7.40796e-01,9.97370e-01,9.89052e-01
1.145774156e+00,5.28931e-01,9.99999e-01,9.99999e-01,5.35668e-01,9.97422e-01,9.89974e-01
1.151503026e+00,4.95596e-01,9.99999e-01,9.99999e-01,4.99648e-01,9.97473e-01,9.94402e-01
1.157260541e+00,5.56258e-01,9.99999e-01,9.99999e-01,5.58576e-01,9.97523e-01,9.98322e-01
1.163046844e+00,6.47767e-01,9.99999e-01,9.99999e-01,6.49652e-01,9.97572e-01,9.99523e-01
1.168862078e+00,7.38771e-01,9.99999e-01,9.99999e-01,7.40714e-01,9.97620e-01,9.99754e-01
1.174706389e+00,8.28727e-01,9.99999e-01,9.99999e-01,8.30935e-01,9.97667e-01,9.99674e-01
1.180579921e+00,8.90822e-01,9.99999e-01,9.99999e-01,8.93302e-01,9.97713e-01,9.99508e-01
1.186482820e+00,9.35689e-01,9.99999e-01,9.99999e-01,9.38263e-01,9.97758e-01,9.99495e-01
1.192415234e+00,9.61040e-01,9.99999e-01,9.99999e-01,9.63519e-01,9.97802e-01,9.99622e-01
1.198377311e+00,9.66762e-01,9.99999e-01,9.99999e-01,9.69194e-01,9.97845e-01,9.99642e-01
1.204369197e+00,9.68448e-01,9.99999e-01,9.99999e-01,9.70810e-01,9.97888e-01,9.99676e-01
1.210391043e+00,9.69863e-01,9.99999e-01,9.99999e-01,9.72065e-01,9.97930e-01,9.99803e-01
1.216442998e+00,9.74064e-01,9.99999e-01,9.99999e-01,9.76161e-01,9.97970e-01,9.99879e-01
1.222525213e+00,9.79378e-01,9.99999e-01,9.99999e-01,9.81403e-01,9.98010e-01,9.99924e-01
1.228637839e+00,9.85098e-01,9.99999e-01,9.99999e-01,9.87057e-01,9.98050e-01,9.99964e-01
