#,Wave/freq,Total,N2,O2,H2O,Rayleigh,CIA
4.000000000e-01,1.27698e-02,9.99999e-01,9.99999e-01,9.99508e-01,1.27760e-02,9.99999e-01
4.020000000e-01,1.39221e-02,9.99999e-01,9.99999e-01,9.99695e-01,1.39264e-02,9.99999e-01
4.040100000e-01,1.51511e-02,9.99999e-01,9.99999e-01,9.99870e-01,1.51531e-02,9.99999e-01
4.060300500e-01,1.64599e-02,9.99999e-01,9.99999e-01,9.99970e-01,1.64604e-02,9.99999e-01
4.080602003e-01,1.78512e-02,9.99999e-01,9.99999e-01,9.99989e-01,1.78513e-02,9.99999e-01
4.101005013e-01,1.93288e-02,9.99999e-01,9.99999e-01,9.99998e-01,1.93288e-02,9.99999e-01
4.121510038e-01,2.08953e-02,9.99999e-01,9.99999e-01,9.99981e-01,2.08957e-02,9.99999e-01
4.142117588e-01,2.25517e-02,9.99999e-01,9.99999e-01,9.99863e-01,2.25548e-02,9.99999e-01
4.162828176e-01,2.42942e-02,9.99999e-01,9.99999e-01,9.99390e-01,2.43090e-02,9.99999e-01
4.183642317e-01,2.61514e-02,9.99999e-01,9.99999e-01,9.99637e-01,2.61609e-02,9.99999e-01
4.204560528e-01,2.81068e-02,9.99999e-01,9.99999e-01,9.99778e-01,2.81130e-02,9.99999e-01
4.225583331e-01,3.01654e-02,9.99999e-01,9.99999e-01,9.99917e-01,3.01679e-02,9.99999e-01
4.246711247e-01,3.23258e-02,9.99999e-01,9.99999e-01,9.99933e-01,3.23279e-02,9.99999e-01
4.267944804e-01,3.45920e-02,9.99999e-01,9.99999e-01,9.99902e-01,3.45953e-02,9.99999e-01
4.289284528e-01,3.69694e-02,9.99999e-01,9.99999e-01,9.99924e-01,3.69722e-02,9.99999e-01
4.310730950e-01,3.94593e-02,9.99999e-01,9.99999e-01,9.99967e-01,3.94606e-02,9.99999e-01
4.332284605e-01,4.20619e-02,9.99999e-01,9.99999e-01,9.99991e-01,4.20623e-02,9.99999e-01
4.353946028e-01,4.47788e-02,9.99999e-01,9.99999e-01,9.99995e-01,4.47790e-02,9.99999e-01
4.375715758e-01,4.76094e-02,9.99999e-01,9.99999e-01,9.99938e-01,4.76123e-02,9.99999e-01
4.397594337e-01,5.05363e-02,9.99999e-01,9.99999e-01,9.99461e-01,5.05635e-02,9.99999e-01
4.419582309e-01,5.34871e-02,9.99999e-01,9.99999e-01,9.97261e-01,5.36339e-02,9.99999e-01
4.441680220e-01,5.67046e-02,9.99999e-01,9.99999e-01,9.97888e-01,5.68246e-02,9.99999e-01
4.463888621e-01,6.00038e-02,9.99999e-01,9.99999e-01,9.97794e-01,6.01364e-02,9.99999e-01
4.486208064e-01,6.34833e-02,9.99999e-01,9.99999e-01,9.98635e-01,6.35700e-02,9.99999e-01
4.508639105e-01,6.70832e-02,9.99999e-01,9.99999e-01,9.99361e-01,6.71260e-02,9.99999e-01
4.531182300e-01,7.07870e-02,9.99999e-01,9.99999e-01,9.99747e-01,7.08048e-02,9.99999e-01
4.553838212e-01,7.45937e-02,9.99999e-01,9.99999e-01,9.99827e-01,7.46065e-02,9.99999e-01
4.576607403e-01,7.85250e-02,9.99999e-01,9.99999e-01,9.99920e-01,7.85312e-02,9.99999e-01
4.599490440e-01,8.25741e-02,9.99999e-01,9.99999e-01,9.99943e-01,8.25787e-02,9.99999e-01
4.622487892e-01,8.67478e-02,9.99999e-01,9.99999e-01,9.99989e-01,8.67486e-02,9.99999e-01
4.645600332e-01,9.10369e-02,9.99999e-01,9.99999e-01,9.99960e-01,9.10405e-02,9.99999e-01
4.668828333e-01,9.53914e-02,9.99999e-01,9.99999e-01,9.99348e-01,9.54536e-02,9.99999e-01
4.692172475e-01,9.98488e-02,9.99999e-01,9.99999e-01,9.98616e-01,9.99871e-02,9.99999e-01
4.715633337e-01,1.04545e-01,9.99999e-01,9.99999e-01,9.99094e-01,1.04640e-01,9.99999e-01
4.739211504e-01,1.09316e-01,9.99999e-01,9.99999e-01,9.99136e-01,1.09411e-01,9.99999e-01
4.762907561e-01,1.14248e-01,9.99999e-01,9.99999e-01,9.99552e-01,1.14299e-01,9.99999e-01
4.786722099e-01,1.19280e-01,9.99999e-01,9.99999e-01,9.99817e-01,1.19302e-01,9.99999e-01
4.810655710e-01,1.24412e-01,9.99999e-01,9.99999e-01,9.99944e-01,1.24419e-01,9.99999e-01
4.834708988e-01,1.29578e-01,9.99999e-01,9.99999e-01,9.99462e-01,1.29648e-01,9.99999e-01
4.858882533e-01,1.34854e-01,9.99999e-01,9.99999e-01,9.99021e-01,1.34986e-01,9.99999e-01
4.883176946e-01,1.40317e-01,9.99999e-01,9.99999e-01,9.99177e-01,1.40433e-01,9.99999e-01
4.907592831e-01,1.45877e-01,9.99999e-01,9.99999e-01,9.99260e-01,1.45985e-01,9.99999e-01
4.932130795e-01,1.51561e-01,9.99999e-01,9.99999e-01,9.99474e-01,1.51640e-01,9.99999e-01
4.956791449e-01,1.57353e-01,9.99999e-01,9.99999e-01,9.99722e-01,1.57397e-01,9.99999e-01
4.981575406e-01,1.63024e-01,9.99999e-01,9.99999e-01,9.98607e-01,1.63252e-01,9.99999e-01
5.006483283e-01,1.68585e-01,9.99999e-01,9.99999e-01,9.96379e-01,1.69202e-01,9.99975e-01
5.031515699e-01,1.72042e-01,9.99999e-01,9.99999e-01,9.81910e-01,1.75245e-01,9.99808e-01
5.056673278e-01,1.79600e-01,9.99999e-01,9.99999e-01,9.90408e-01,1.81379e-01,9.99780e-01
5.081956644e-01,1.85307e-01,9.99999e-01,9.99999e-01,9.87912e-01,1.87599e-01,9.99866e-01
5.107366428e-01,1.92317e-01,9.99999e-01,9.99999e-01,9.91836e-01,1.93904e-01,9.99976e-01
5.132903260e-01,1.99354e-01,9.99999e-01,9.99999e-01,9.95334e-01,2.00289e-01,9.99996e-01
5.158567776e-01,2.06346e-01,9.99999e-01,9.99999e-01,9.98029e-01,2.06753e-01,9.99999e-01
5.184360615e-01,2.13123e-01,9.99999e-01,9.99999e-01,9.99210e-01,2.13292e-01,9.99999e-01
5.210282418e-01,2.19836e-01,9.99999e-01,9.99999e-01,9.99703e-01,2.19901e-01,9.99999e-01
5.236333830e-01,2.26308e-01,9.99999e-01,9.99999e-01,9.98808e-01,2.26580e-01,9.99991e-01
5.262515499e-01,2.33146e-01,9.99999e-01,9.99999e-01,9.99254e-01,2.33323e-01,9.99987e-01
5.288828077e-01,2.39961e-01,9.99999e-01,9.99999e-01,9.99313e-01,2.40127e-01,9.99992e-01
5.315272217e-01,2.46842e-01,9.99999e-01,9.99999e-01,9.99401e-01,2.46990e-01,9.99997e-01
5.341848578e-01,2.53807e-01,9.99999e-01,9.99999e-01,9.99605e-01,2.53907e-01,9.99999e-01
5.368557821e-01,2.60513e-01,9.99999e-01,9.99999e-01,9.98609e-01,2.60876e-01,9.99996e-01
5.395400610e-01,2.66533e-01,9.99999e-01,9.99999e-01,9.94971e-01,2.67893e-01,9.99952e-01
5.422377613e-01,2.73151e-01,9.99999e-01,9.99999e-01,9.93557e-01,2.74954e-01,9.99881e-01
5.449489501e-01,2.80324e-01,9.99999e-01,9.99999e-01,9.93978e-01,2.82057e-01,9.99878e-01
5.476736949e-01,2.87646e-01,9.99999e-01,9.99999e-01,9.94697e-01,2.89197e-01,9.99940e-01
5.504120634e-01,2.95226e-01,9.99999e-01,9.99999e-01,9.96149e-01,2.96371e-01,9.99983e-01
5.531641237e-01,3.02988e-01,9.99999e-01,9.99999e-01,9.98063e-01,3.03577e-01,9.99997e-01
5.559299443e-01,3.10520e-01,9.99999e-01,9.99999e-01,9.99066e-01,3.10810e-01,9.99999e-01
5.587095940e-01,3.17881e-01,9.99999e-01,9.99999e-01,9.99412e-01,3.18068e-01,9.99999e-01
5.615031420e-01,3.25133e-01,9.99999e-01,9.99999e-01,9.99344e-01,3.25346e-01,9.99998e-01
5.643106577e-01,3.32392e-01,9.99999e-01,9.99999e-01,9.99250e-01,3.32643e-01,9.99993e-01
5.671322110e-01,3.36846e-01,9.99999e-01,9.99999e-01,9.90935e-01,3.39954e-01,9.99919e-01
5.699678720e-01,3.43895e-01,9.99999e-01,9.99999e-01,9.90502e-01,3.47277e-01,9.99754e-01
5.728177114e-01,3.50998e-01,9.99999e-01,9.99999e-01,9.90018e-01,3.54608e-01,9.99795e-01
5.756818000e-01,3.58592e-01,9.99999e-01,9.99999e-01,9.90852e-01,3.61945e-01,9.99881e-01
5.785602090e-01,3.66332e-01,9.99999e-01,9.99999e-01,9.92039e-01,3.69284e-01,9.99965e-01
5.814530100e-01,3.73601e-01,9.99999e-01,9.99999e-01,9.91994e-01,3.76622e-01,9.99982e-01
5.843602750e-01,3.80263e-01,9.99999e-01,9.99999e-01,9.90430e-01,3.83957e-01,9.99946e-01
5.872820764e-01,3.60416e-01,9.99999e-01,9.99999e-01,9.21639e-01,3.91286e-01,9.99421e-01
5.902184868e-01,3.60219e-01,9.99999e-01,9.99999e-01,9.05120e-01,3.98606e-01,9.98426e-01
5.931695792e-01,3.77912e-01,9.99999e-01,9.99999e-01,9.32426e-01,4.05914e-01,9.98486e-01
5.961354271e-01,3.82239e-01,9.99999e-01,9.99999e-01,9.25858e-01,4.13208e-01,9.99129e-01
5.991161043e-01,3.97347e-01,9.99999e-01,9.99999e-01,9.45228e-01,4.20484e-01,9.99730e-01
6.021116848e-01,4.14285e-01,9.99999e-01,9.99999e-01,9.68568e-01,4.27742e-01,9.99969e-01
6.051222432e-01,4.28006e-01,9.99999e-01,9.99999e-01,9.83973e-01,4.34978e-01,9.99997e-01
6.081478544e-01,4.39118e-01,9.99999e-01,9.99999e-01,9.93054e-01,4.42189e-01,9.99999e-01
6.111885937e-01,4.48054e-01,9.99999e-01,9.99999e-01,9.97062e-01,4.49374e-01,9.99999e-01
6.142445367e-01,4.55931e-01,9.99999e-01,9.99999e-01,9.98685e-01,4.56531e-01,9.99999e-01
6.173157594e-01,4.63320e-01,9.99999e-01,9.99999e-01,9.99274e-01,4.63656e-01,9.99999e-01
6.204023382e-01,4.70459e-01,9.99999e-01,9.99999e-01,9.99383e-01,4.70749e-01,9.99998e-01
6.235043498e-01,4.76496e-01,9.99999e-01,9.99999e-01,9.97261e-01,4.77807e-01,9.99992e-01
6.266218716e-01,4.77853e-01,9.99999e-01,9.99999e-01,9.85709e-01,4.84829e-01,9.99899e-01
6.297549810e-01,4.89124e-01,9.99999e-01,9.99999e-01,9.94734e-01,4.91812e-01,9.99798e-01
6.329037559e-01,4.93501e-01,9.99999e-01,9.99999e-01,9.89626e-01,4.98754e-01,9.99838e-01
6.360682746e-01,5.01127e-01,9.99999e-01,9.99999e-01,9.91139e-01,5.05655e-01,9.99904e-01
6.392486160e-01,5.06620e-01,9.99999e-01,9.99999e-01,9.88545e-01,5.12512e-01,9.99957e-01
6.424448591e-01,5.11311e-01,9.99999e-01,9.99999e-01,9.84644e-01,5.19323e-01,9.99923e-01
6.456570834e-01,4.89601e-01,9.99999e-01,9.99999e-01,9.31046e-01,5.26088e-01,9.99567e-01
6.488853688e-01,5.05331e-01,9.99999e-01,9.99999e-01,9.49482e-01,5.32805e-01,9.98895e-01
6.521297956e-01,5.11348e-01,9.99999e-01,9.99999e-01,9.48731e-01,5.39472e-01,9.99088e-01
6.553904446e-01,5.17485e-01,9.99999e-01,9.99999e-01,9.48262e-01,5.46089e-01,9.99321e-01
6.586673968e-01,5.28112e-01,9.99999e-01,9.99999e-01,9.55808e-01,5.52654e-01,9.99772e-01
6.619607338e-01,5.45189e-01,9.99999e-01,9.99999e-01,9.75051e-01,5.59166e-01,9.99951e-01
6.652705375e-01,5.57092e-01,9.99999e-01,9.99999e-01,9.84942e-01,5.65623e-01,9.99974e-01
6.685968902e-01,5.68350e-01,9.99999e-01,9.99999e-01,9.93578e-01,5.72025e-01,9.99995e-01
6.719398746e-01,5.76490e-01,9.99999e-01,9.99999e-01,9.96746e-01,5.78372e-01,9.99999e-01
6.752995740e-01,5.83627e-01,9.99999e-01,9.99999e-01,9.98232e-01,5.84661e-01,9.99998e-01
6.786760719e-01,5.89374e-01,9.99999e-01,9.99999e-01,9.97434e-01,5.90892e-01,9.99995e-01
6.820694522e-01,5.94434e-01,9.99999e-01,9.99999e-01,9.95615e-01,5.97065e-01,9.99976e-01
6.854797995e-01,5.99736e-01,9.99999e-01,9.99999e-01,9.94341e-01,6.03178e-01,9.99950e-01
6.889071985e-01,6.00822e-01,9.99999e-01,9.99999e-01,9.86316e-01,6.09231e-01,9.99877e-01
6.923517345e-01,4.93422e-01,9.99999e-01,9.99999e-01,8.02877e-01,6.15224e-01,9.98932e-01
6.958134932e-01,5.53864e-01,9.99999e-01,9.99999e-01,8.93779e-01,6.21156e-01,9.97636e-01
6.992925606e-01,5.60605e-01,9.99999e-01,9.99999e-01,8.95978e-01,6.27026e-01,9.97869e-01
7.027890234e-01,5.51997e-01,9.99999e-01,9.99999e-01,8.73683e-01,6.32833e-01,9.98372e-01
7.063029686e-01,5.69151e-01,9.99999e-01,9.99999e-01,8.91999e-01,6.38579e-01,9.99189e-01
7.098344834e-01,5.76948e-01,9.99999e-01,9.99999e-01,8.95947e-01,6.44261e-01,9.99520e-01
7.133836558e-01,5.61816e-01,9.99999e-01,9.99999e-01,8.65314e-01,6.49880e-01,9.99048e-01
7.169505741e-01,2.35669e-01,9.99999e-01,9.99999e-01,3.62266e-01,6.55436e-01,9.92532e-01
7.205353270e-01,3.86370e-01,9.99999e-01,9.99999e-01,5.92368e-01,6.60928e-01,9.86862e-01
7.241380036e-01,3.34127e-01,9.99999e-01,9.99999e-01,5.07182e-01,6.66357e-01,9.88645e-01
7.277586936e-01,3.61676e-01,9.99999e-01,9.99999e-01,5.43480e-01,6.71721e-01,9.90708e-01
7.313974871e-01,3.46486e-01,9.99999e-01,9.99999e-01,5.14022e-01,6.77021e-01,9.95637e-01
7.350544745e-01,4.69815e-01,9.99999e-01,9.99999e-01,6.89664e-01,6.82258e-01,9.98481e-01
7.387297469e-01,5.20317e-01,9.99999e-01,9.99999e-01,7.57429e-01,6.87430e-01,9.99303e-01
7.424233956e-01,6.03816e-01,9.99999e-01,9.99999e-01,8.71993e-01,6.92538e-01,9.99878e-01
7.461355126e-01,6.41802e-01,9.99999e-01,9.99999e-01,9.20057e-01,6.97582e-01,9.99978e-01
7.498661902e-01,6.75833e-01,9.99999e-01,9.99999e-01,9.61962e-01,7.02562e-01,9.99991e-01
7.536155211e-01,6.94109e-01,9.99999e-01,9.99999e-01,9.81108e-01,7.07478e-01,9.99994e-01
7.573835987e-01,7.05372e-01,9.99999e-01,9.99999e-01,9.90233e-01,7.12330e-01,9.99998e-01
7.611705167e-01,7.12759e-01,9.99999e-01,9.99999e-01,9.93920e-01,7.17119e-01,9.99999e-01
7.649763693e-01,7.19090e-01,9.99999e-01,9.99999e-01,9.96183e-01,7.21844e-01,9.99999e-01
7.688012511e-01,7.24574e-01,9.99999e-01,9.99999e-01,9.97339e-01,7.26507e-01,9.99999e-01
7.726452574e-01,7.29503e-01,9.99999e-01,9.99999e-01,9.97808e-01,7.31106e-01,9.99998e-01
7.765084837e-01,7.33340e-01,9.99999e-01,9.99999e-01,9.96871e-01,7.35643e-01,9.99995e-01
7.803910261e-01,7.30145e-01,9.99999e-01,9.99999e-01,9.86536e-01,7.40118e-01,9.99986e-01
7.842929812e-01,7.10159e-01,9.99999e-01,9.99999e-01,9.53916e-01,7.44531e-01,9.99913e-01
7.882144461e-01,6.79270e-01,9.99999e-01,9.99999e-01,9.07648e-01,7.48882e-01,9.99335e-01
7.921555184e-01,7.13560e-01,9.99999e-01,9.99999e-01,9.48500e-01,7.53171e-01,9.98845e-01
7.961162960e-01,6.88844e-01,9.99999e-01,9.99999e-01,9.10483e-01,7.57400e-01,9.98902e-01
8.000968774e-01,6.82223e-01,9.99999e-01,9.99999e-01,8.96860e-01,7.61569e-01,9.98831e-01
8.040973618e-01,6.86228e-01,9.99999e-01,9.99999e-01,8.97036e-01,7.65677e-01,9.99108e-01
8.081178486e-01,6.05152e-01,9.99999e-01,9.99999e-01,7.86901e-01,7.69726e-01,9.99097e-01
8.121584379e-01,3.02046e-01,9.99999e-01,9.99999e-01,3.91721e-01,7.73715e-01,9.96584e-01
8.162192301e-01,2.58971e-01,9.99999e-01,9.99999e-01,3.37331e-01,7.77646e-01,9.87215e-01
8.203003262e-01,4.63321e-01,9.99999e-01,9.99999e-01,6.01846e-01,7.81518e-01,9.85046e-01
8.244018279e-01,4.05374e-01,9.99999e-01,9.99999e-01,5.22406e-01,7.85333e-01,9.88081e-01
8.285238370e-01,3.94862e-01,9.99999e-01,9.99999e-01,5.05135e-01,7.89091e-01,9.90627e-01
8.326664562e-01,4.00006e-01,9.99999e-01,9.99999e-01,5.06522e-01,7.92791e-01,9.96113e-01
8.368297885e-01,4.80027e-01,9.99999e-01,9.99999e-01,6.03254e-01,7.96436e-01,9.99110e-01
8.410139374e-01,5.89900e-01,9.99999e-01,9.99999e-01,7.37736e-01,8.00024e-01,9.99479e-01
8.452190071e-01,6.90927e-01,9.99999e-01,9.99999e-01,8.60101e-01,8.03558e-01,9.99688e-01
8.494451021e-01,7.38773e-01,9.99999e-01,9.99999e-01,9.15642e-01,8.07037e-01,9.99750e-01
8.536923276e-01,7.69259e-01,9.99999e-01,9.99999e-01,9.49304e-01,8.10462e-01,9.99848e-01
8.579607893e-01,7.88083e-01,9.99999e-01,9.99999e-01,9.68394e-01,8.13833e-01,9.99963e-01
8.622505932e-01,8.00665e-01,9.99999e-01,9.99999e-01,9.79831e-01,8.17151e-01,9.99993e-01
8.665618462e-01,8.10120e-01,9.99999e-01,9.99999e-01,9.87452e-01,8.20417e-01,9.99995e-01
8.708946554e-01,8.11783e-01,9.99999e-01,9.99999e-01,9.85622e-01,8.23631e-01,9.99991e-01
8.752491287e-01,8.10913e-01,9.99999e-01,9.99999e-01,9.80811e-01,8.26793e-01,9.99979e-01
8.796253743e-01,8.07851e-01,9.99999e-01,9.99999e-01,9.73482e-01,8.29905e-01,9.99940e-01
8.840235012e-01,8.07672e-01,9.99999e-01,9.99999e-01,9.69811e-01,8.32967e-01,9.99813e-01
8.884436187e-01,7.49712e-01,9.99999e-01,9.99999e-01,8.97279e-01,8.35980e-01,9.99470e-01
8.928858368e-01,3.01756e-01,9.99999e-01,9.99999e-01,3.60786e-01,8.38943e-01,9.96950e-01
8.973502660e-01,1.41077e-01,9.99999e-01,9.99999e-01,1.70221e-01,8.41858e-01,9.84469e-01
9.018370173e-01,3.34543e-01,9.99999e-01,9.99999e-01,4.05905e-01,8.44726e-01,9.75689e-01
9.063462024e-01,3.64966e-01,9.99999e-01,9.99999e-01,4.40025e-01,8.47546e-01,9.78612e-01
9.108779334e-01,2.33167e-01,9.99999e-01,9.99999e-01,2.80441e-01,8.50320e-01,9.77785e-01
9.154323231e-01,1.88957e-01,9.99999e-01,9.99999e-01,2.25659e-01,8.53047e-01,9.81602e-01
9.200094847e-01,2.71873e-01,9.99999e-01,9.99999e-01,3.21028e-01,8.55730e-01,9.89661e-01
9.246095321e-01,1.67375e-01,9.99999e-01,9.99999e-01,1.97341e-01,8.58367e-01,9.88097e-01
9.292325798e-01,2.07396e-03,9.99999e-01,9.99999e-01,2.55226e-03,8.60961e-01,9.43824e-01
9.338787427e-01,1.65805e-05,9.99999e-01,9.99999e-01,2.36641e-05,8.63510e-01,8.11407e-01
9.385481364e-01,7.89012e-03,9.99999e-01,9.99999e-01,1.14624e-02,8.66017e-01,7.94845e-01
9.432408771e-01,2.61835e-03,9.99999e-01,9.99999e-01,3.67532e-03,8.68481e-01,8.20299e-01
9.479570815e-01,8.39557e-05,9.99999e-01,9.99999e-01,1.13265e-04,8.70903e-01,8.51108e-01
9.526968669e-01,5.87044e-04,9.99999e-01,9.99999e-01,7.41684e-04,8.73284e-01,9.06348e-01
9.574603512e-01,1.00943e-03,9.99999e-01,9.99999e-01,1.21186e-03,8.75625e-01,9.51278e-01
9.622476530e-01,3.33987e-03,9.99999e-01,9.99999e-01,3.93796e-03,8.77925e-01,9.66051e-01
9.670588912e-01,3.17222e-02,9.99999e-01,9.99999e-01,3.69018e-02,8.80186e-01,9.76656e-01
9.718941857e-01,7.42102e-02,9.99999e-01,9.99999e-01,8.55747e-02,8.82407e-01,9.82762e-01
9.767536566e-01,1.12830e-01,9.99999e-01,9.99999e-01,1.29257e-01,8.84590e-01,9.86800e-01
9.816374249e-01,1.80966e-01,9.99999e-01,9.99999e-01,2.05021e-01,8.86736e-01,9.95412e-01
9.865456120e-01,3.21102e-01,9.99999e-01,9.99999e-01,3.61604e-01,8.88844e-01,9.99042e-01
9.914783401e-01,4.68938e-01,9.99999e-01,9.99999e-01,5.26494e-01,8.90915e-01,9.99734e-01
9.964357318e-01,6.28787e-01,9.99999e-01,9.99999e-01,7.04277e-01,8.92950e-01,9.99844e-01
1.001417910e+00,7.24199e-01,9.99999e-01,9.99999e-01,8.09398e-01,8.94949e-01,9.99762e-01
1.006425000e+00,7.94279e-01,9.99999e-01,9.99999e-01,8.85868e-01,8.96913e-01,9.99661e-01
1.011457125e+00,8.33556e-01,9.99999e-01,9.99999e-01,9.27656e-01,8.98843e-01,9.99686e-01
1.016514411e+00,8.55694e-01,9.99999e-01,9.99999e-01,9.50202e-01,9.00738e-01,9.99778e-01
1.021596983e+00,8.66383e-01,9.99999e-01,9.99999e-01,9.60082e-01,9.02600e-01,9.99782e-01
1.026704968e+00,8.76009e-01,9.99999e-01,9.99999e-01,9.68708e-01,9.04429e-01,9.99863e-01
1.031838492e+00,8.85523e-01,9.99999e-01,9.99999e-01,9.77195e-01,9.06225e-01,9.99958e-01
1.036997685e+00,8.95615e-01,9.99999e-01,9.99999e-01,9.86377e-01,9.07989e-01,9.99993e-01
1.042182673e+00,8.94931e-01,9.99999e-01,9.99999e-01,9.83743e-01,9.09722e-01,9.99996e-01
1.047393587e+00,8.91844e-01,9.99999e-01,9.99999e-01,9.78520e-01,9.11424e-01,9.99995e-01
1.052630555e+00,8.86271e-01,9.99999e-01,9.99999e-01,9.70630e-01,9.13095e-01,9.99991e-01
1.057893707e+00,8.70332e-01,9.99999e-01,9.99999e-01,9.51472e-01,9.14736e-01,9.99982e-01
1.063183176e+00,8.44545e-01,9.99999e-01,9.99999e-01,9.21680e-01,9.16348e-01,9.99957e-01
1.068499092e+00,8.01143e-01,9.99999e-01,9.99999e-01,8.72850e-01,9.17930e-01,9.99907e-01
1.073841587e+00,7.85255e-01,9.99999e-01,9.99999e-01,8.54188e-01,9.19484e-01,9.99798e-01
1.079210795e+00,7.51473e-01,9.99999e-01,9.99999e-01,8.16368e-01,9.21010e-01,9.99453e-01
1.084606849e+00,6.79493e-01,9.99999e-01,9.99999e-01,7.37539e-01,9.22508e-01,9.98685e-01
1.090029883e+00,5.99332e-01,9.99999e-01,9.99999e-01,6.50412e-01,9.23979e-01,9.97276e-01
1.095480033e+00,2.90332e-01,9.99999e-01,9.99999e-01,3.15279e-01,9.25423e-01,9.95079e-01
1.100957433e+00,6.43054e-02,9.99999e-01,9.99999e-01,7.00139e-02,9.26841e-01,9.90962e-01
1.106462220e+00,3.26857e-03,9.99999e-01,9.99999e-01,3.57592e-03,9.28233e-01,9.84718e-01
1.111994531e+00,6.44413e-06,9.99999e-01,9.99999e-01,7.22142e-06,9.29600e-01,9.59941e-01
1.117554504e+00,6.50265e-08,9.99999e-01,9.99999e-01,8.09601e-08,9.30941e-01,8.62773e-01
1.123142276e+00,1.63241e-05,9.99999e-01,9.99999e-01,2.48489e-05,9.32258e-01,7.04667e-01
1.128757988e+00,7.93651e-05,9.99999e-01,9.99999e-01,1.27453e-04,9.33550e-01,6.67024e-01
1.134401778e+00,1.42729e-04,9.99999e-01,9.99999e-01,2.15436e-04,9.34819e-01,7.08707e-01
1.140073787e+00,1.67458e-03,9.99999e-01,9.99999e-01,2.35546e-03,9.36064e-01,7.59495e-01
1.145774156e+00,9.85596e-05,9.99999e-01,9.99999e-01,1.35266e-04,9.37287e-01,7.77388e-01
1.151503026e+00,1.21206e-05,9.99999e-01,9.99999e-01,1.48600e-05,9.38487e-01,8.69113e-01
1.157260541e+00,8.12775e-06,9.99999e-01,9.99999e-01,9.02013e-06,9.39664e-01,9.58924e-01
1.163046844e+00,1.78369e-04,9.99999e-01,9.99999e-01,1.91856e-04,9.40820e-01,9.88182e-01
1.168862078e+00,2.05665e-03,9.99999e-01,9.99999e-01,2.19680e-03,9.41954e-01,9.93894e-01
1.174706389e+00,1.67548e-02,9.99999e-01,9.99999e-01,1.79110e-02,9.43068e-01,9.91914e-01
1.180579921e+00,7.35230e-02,9.99999e-01,9.99999e-01,7.88330e-02,9.44160e-01,9.87799e-01
1.186482820e+00,2.02514e-01,9.99999e-01,9.99999e-01,2.16964e-01,9.45232e-01,9.87479e-01
1.192415234e+00,3.76021e-01,9.99999e-01,9.99999e-01,4.01132e-01,9.46285e-01,9.90609e-01
1.198377311e+00,4.35742e-01,9.99999e-01,9.99999e-01,4.64091e-01,9.47317e-01,9.91127e-01
1.204369197e+00,4.63634e-01,9.99999e-01,9.99999e-01,4.92853e-01,9.48330e-01,9.91968e-01
1.210391043e+00,4.75015e-01,9.99999e-01,9.99999e-01,5.02831e-01,9.49325e-01,9.95107e-01
1.216442998e+00,5.28307e-01,9.99999e-01,9.99999e-01,5.57609e-01,9.50300e-01,9.97000e-01
1.222525213e+00,5.98084e-01,9.99999e-01,9.99999e-01,6.29903e-01,9.51258e-01,9.98135e-01
1.228637839e+00,6.89016e-01,9.99999e-01,9.99999e-01,7.24234e-01,9.52197e-01,9.99132e-01
