#,Wave/freq,Total,N2,O2,H2O,Rayleigh,CIA
4.000000000e-01,6.32401e-01,9.99999e-01,9.99999e-01,9.99947e-01,6.32434e-01,9.99999e-01
4.020000000e-01,6.38169e-01,9.99999e-01,9.99999e-01,9.99967e-01,6.38189e-01,9.99999e-01
4.040100000e-01,6.43867e-01,9.99999e-01,9.99999e-01,9.99985e-01,6.43876e-01,9.99999e-01
4.060300500e-01,6.49498e-01,9.99999e-01,9.99999e-01,9.99996e-01,6.49500e-01,9.99999e-01
4.080602003e-01,6.55059e-01,9.99999e-01,9.99999e-01,9.99998e-01,6.55060e-01,9.99999e-01
4.101005013e-01,6.60556e-01,9.99999e-01,9.99999e-01,9.99999e-01,6.60556e-01,9.99999e-01
4.121510038e-01,6.65988e-01,9.99999e-01,9.99999e-01,9.99997e-01,6.65989e-01,9.99999e-01
4.142117588e-01,6.71348e-01,9.99999e-01,9.99999e-01,9.99985e-01,6.71358e-01,9.99999e-01
4.162828176e-01,6.76619e-01,9.99999e-01,9.99999e-01,9.99935e-01,6.76662e-01,9.99999e-01
4.183642317e-01,6.81877e-01,9.99999e-01,9.99999e-01,9.99961e-01,6.81903e-01,9.99999e-01
4.204560528e-01,6.87063e-01,9.99999e-01,9.99999e-01,9.99976e-01,6.87079e-01,9.99999e-01
4.225583331e-01,6.92186e-01,9.99999e-01,9.99999e-01,9.99990e-01,6.92192e-01,9.99999e-01
4.246711247e-01,6.97235e-01,9.99999e-01,9.99999e-01,9.99992e-01,6.97240e-01,9.99999e-01
4.267944804e-01,7.02217e-01,9.99999e-01,9.99999e-01,9.99989e-01,7.02224e-01,9.99999e-01
4.289284528e-01,7.07139e-01,9.99999e-01,9.99999e-01,9.99991e-01,7.07145e-01,9.99999e-01
4.310730950e-01,7.11999e-01,9.99999e-01,9.99999e-01,9.99996e-01,7.12002e-01,9.99999e-01
4.332284605e-01,7.16794e-01,9.99999e-01,9.99999e-01,9.99998e-01,7.16795e-01,9.99999e-01
4.353946028e-01,7.21524e-01,9.99999e-01,9.99999e-01,9.99999e-01,7.21525e-01,9.99999e-01
4.375715758e-01,7.26187e-01,9.99999e-01,9.99999e-01,9.99993e-01,7.26191e-01,9.99999e-01
4.397594337e-01,7.30754e-01,9.99999e-01,9.99999e-01,9.99943e-01,7.30795e-01,9.99999e-01
4.419582309e-01,7.35128e-01,9.99999e-01,9.99999e-01,9.99715e-01,7.35336e-01,9.99999e-01
4.441680220e-01,7.39650e-01,9.99999e-01,9.99999e-01,9.99776e-01,7.39815e-01,9.99999e-01
4.463888621e-01,7.44059e-01,9.99999e-01,9.99999e-01,9.99767e-01,7.44232e-01,9.99999e-01
4.486208064e-01,7.48479e-01,9.99999e-01,9.99999e-01,9.99855e-01,7.48587e-01,9.99999e-01
4.508639105e-01,7.52830e-01,9.99999e-01,9.99999e-01,9.99931e-01,7.52881e-01,9.99999e-01
4.531182300e-01,7.57094e-01,9.99999e-01,9.99999e-01,9.99972e-01,7.57114e-01,9.99999e-01
4.553838212e-01,7.61273e-01,9.99999e-01,9.99999e-01,9.99981e-01,7.61287e-01,9.99999e-01
4.576607403e-01,7.65393e-01,9.99999e-01,9.99999e-01,9.99991e-01,7.65399e-01,9.99999e-01
4.599490440e-01,7.69447e-01,9.99999e-01,9.99999e-01,9.99993e-01,7.69452e-01,9.99999e-01
4.622487892e-01,7.73445e-01,9.99999e-01,9.99999e-01,9.99998e-01,7.73445e-01,9.99999e-01
4.645600332e-01,7.77377e-01,9.99999e-01,9.99999e-01,9.99995e-01,7.77380e-01,9.99999e-01
4.668828333e-01,7.81203e-01,9.99999e-01,9.99999e-01,9.99931e-01,7.81257e-01,9.99999e-01
4.692172475e-01,7.84961e-01,9.99999e-01,9.99999e-01,9.99854e-01,7.85075e-01,9.99999e-01
4.715633337e-01,7.88762e-01,9.99999e-01,9.99999e-01,9.99904e-01,7.88837e-01,9.99999e-01
4.739211504e-01,7.92469e-01,9.99999e-01,9.99999e-01,9.99908e-01,7.92541e-01,9.99999e-01
4.762907561e-01,7.96152e-01,9.99999e-01,9.99999e-01,9.99952e-01,7.96189e-01,9.99999e-01
4.786722099e-01,7.99766e-01,9.99999e-01,9.99999e-01,9.99980e-01,7.99782e-01,9.99999e-01
4.810655710e-01,8.03314e-01,9.99999e-01,9.99999e-01,9.99993e-01,8.03319e-01,9.99999e-01
4.834708988e-01,8.06757e-01,9.99999e-01,9.99999e-01,9.99944e-01,8.06802e-01,9.99999e-01
4.858882533e-01,8.10146e-01,9.99999e-01,9.99999e-01,9.99896e-01,8.10230e-01,9.99999e-01
4.883176946e-01,8.13535e-01,9.99999e-01,9.99999e-01,9.99913e-01,8.13605e-01,9.99999e-01
4.907592831e-01,8.16863e-01,9.99999e-01,9.99999e-01,9.99921e-01,8.16927e-01,9.99999e-01
4.932130795e-01,8.20151e-01,9.99999e-01,9.99999e-01,9.99944e-01,8.20196e-01,9.99999e-01
4.956791449e-01,8.23389e-01,9.99999e-01,9.99999e-01,9.99970e-01,8.23413e-01,9.99999e-01
4.981575406e-01,8.26459e-01,9.99999e-01,9.99999e-01,9.99853e-01,8.26580e-01,9.99999e-01
5.006483283e-01,8.29380e-01,9.99999e-01,9.99999e-01,9.99622e-01,8.29695e-01,9.99996e-01
5.031515699e-01,8.31146e-01,9.99999e-01,9.99999e-01,9.98080e-01,8.32760e-01,9.99979e-01
5.056673278e-01,8.34909e-01,9.99999e-01,9.99999e-01,9.98985e-01,8.35776e-01,9.99976e-01
5.081956644e-01,8.37657e-01,9.99999e-01,9.99999e-01,9.98720e-01,8.38743e-01,9.99984e-01
5.107366428e-01,8.40932e-01,9.99999e-01,9.99999e-01,9.99135e-01,8.41661e-01,9.99996e-01
5.132903260e-01,8.44114e-01,9.99999e-01,9.99999e-01,9.99505e-01,8.44532e-01,9.99999e-01
5.158567776e-01,8.47179e-01,9.99999e-01,9.99999e-01,9.99790e-01,8.47355e-01,9.99999e-01
5.184360615e-01,8.50061e-01,9.99999e-01,9.99999e-01,9.99915e-01,8.50132e-01,9.99999e-01
5.210282418e-01,8.52837e-01,9.99999e-01,9.99999e-01,9.99968e-01,8.52863e-01,9.99999e-01
5.236333830e-01,8.55441e-01,9.99999e-01,9.99999e-01,9.99874e-01,8.55548e-01,9.99998e-01
5.262515499e-01,8.58121e-01,9.99999e-01,9.99999e-01,9.99921e-01,8.58189e-01,9.99998e-01
5.288828077e-01,8.60723e-01,9.99999e-01,9.99999e-01,9.99927e-01,8.60785e-01,9.99998e-01
5.315272217e-01,8.63283e-01,9.99999e-01,9.99999e-01,9.99936e-01,8.63338e-01,9.99999e-01
5.341848578e-01,8.65812e-01,9.99999e-01,9.99999e-01,9.99958e-01,8.65847e-01,9.99999e-01
5.368557821e-01,8.68188e-01,9.99999e-01,9.99999e-01,9.99854e-01,8.68315e-01,9.99999e-01
5.395400610e-01,8.70280e-01,9.99999e-01,9.99999e-01,9.99475e-01,8.70740e-01,9.99995e-01
5.422377613e-01,8.72519e-01,9.99999e-01,9.99999e-01,9.99318e-01,8.73124e-01,9.99987e-01
5.449489501e-01,8.74903e-01,9.99999e-01,9.99999e-01,9.99368e-01,8.75467e-01,9.99986e-01
5.476736949e-01,8.77272e-01,9.99999e-01,9.99999e-01,9.99438e-01,8.77770e-01,9.99993e-01
5.504120634e-01,8.79673e-01,9.99999e-01,9.99999e-01,9.99592e-01,8.80033e-01,9.99997e-01
5.531641237e-01,8.82076e-01,9.99999e-01,9.99999e-01,9.99794e-01,8.82257e-01,9.99999e-01
5.559299443e-01,8.84355e-01,9.99999e-01,9.99999e-01,9.99900e-01,8.84443e-01,9.99999e-01
5.587095940e-01,8.86536e-01,9.99999e-01,9.99999e-01,9.99937e-01,8.86591e-01,9.99999e-01
5.615031420e-01,8.88640e-01,9.99999e-01,9.99999e-01,9.99930e-01,8.88701e-01,9.99999e-01
5.643106577e-01,8.90705e-01,9.99999e-01,9.99999e-01,9.99921e-01,8.90775e-01,9.99998e-01
5.671322110e-01,8.91963e-01,9.99999e-01,9.99999e-01,9.99056e-01,8.92812e-01,9.99991e-01
5.699678720e-01,8.93884e-01,9.99999e-01,9.99999e-01,9.98986e-01,8.94814e-01,9.99973e-01
5.728177114e-01,8.95819e-01,9.99999e-01,9.99999e-01,9.98948e-01,8.96780e-01,9.99977e-01
5.756818000e-01,8.97833e-01,9.99999e-01,9.99999e-01,9.99034e-01,8.98712e-01,9.99986e-01
5.785602090e-01,8.99848e-01,9.99999e-01,9.99999e-01,9.99157e-01,9.00610e-01,9.99995e-01
5.814530100e-01,9.01710e-01,9.99999e-01,9.99999e-01,9.99154e-01,9.02474e-01,9.99997e-01
5.843602750e-01,9.03392e-01,9.99999e-01,9.99999e-01,9.98995e-01,9.04305e-01,9.99993e-01
5.872820764e-01,8.98229e-01,9.99999e-01,9.99999e-01,9.91369e-01,9.06104e-01,9.99938e-01
5.902184868e-01,8.98197e-01,9.99999e-01,9.99999e-01,9.89509e-01,9.07870e-01,9.99833e-01
5.931695792e-01,9.02722e-01,9.99999e-01,9.99999e-01,9.92590e-01,9.09605e-01,9.99839e-01
5.961354271e-01,9.03818e-01,9.99999e-01,9.99999e-01,9.91871e-01,9.11309e-01,9.99907e-01
5.991161043e-01,9.07536e-01,9.99999e-01,9.99999e-01,9.94062e-01,9.12982e-01,9.99971e-01
6.021116848e-01,9.11536e-01,9.99999e-01,9.99999e-01,9.96625e-01,9.14625e-01,9.99996e-01
6.051222432e-01,9.14673e-01,9.99999e-01,9.99999e-01,9.98290e-01,9.16239e-01,9.99999e-01
6.081478544e-01,9.17147e-01,9.99999e-01,9.99999e-01,9.99262e-01,9.17824e-01,9.99999e-01
6.111885937e-01,9.19093e-01,9.99999e-01,9.99999e-01,9.99687e-01,9.19380e-01,9.99999e-01
6.142445367e-01,9.20779e-01,9.99999e-01,9.99999e-01,9.99860e-01,9.20907e-01,9.99999e-01
6.173157594e-01,9.22336e-01,9.99999e-01,9.99999e-01,9.99922e-01,9.22407e-01,9.99999e-01
6.204023382e-01,9.23820e-01,9.99999e-01,9.99999e-01,9.99934e-01,9.23880e-01,9.99999e-01
6.235043498e-01,9.25062e-01,9.99999e-01,9.99999e-01,9.99715e-01,9.25326e-01,9.99998e-01
6.266218716e-01,9.25334e-01,9.99999e-01,9.99999e-01,9.98486e-01,9.26745e-01,9.99988e-01
6.297549810e-01,9.27604e-01,9.99999e-01,9.99999e-01,9.99444e-01,9.28139e-01,9.99978e-01
6.329037559e-01,9.28471e-01,9.99999e-01,9.99999e-01,9.98901e-01,9.29507e-01,9.99982e-01
6.360682746e-01,9.29972e-01,9.99999e-01,9.99999e-01,9.99066e-01,9.30850e-01,9.99989e-01
6.392486160e-01,9.31036e-01,9.99999e-01,9.99999e-01,9.98788e-01,9.32169e-01,9.99995e-01
6.424448591e-01,9.31949e-01,9.99999e-01,9.99999e-01,9.98384e-01,9.33463e-01,9.99992e-01
6.456570834e-01,9.27702e-01,9.99999e-01,9.99999e-01,9.92518e-01,9.34733e-01,9.99957e-01
6.488853688e-01,9.30722e-01,9.99999e-01,9.99999e-01,9.94497e-01,9.35980e-01,9.99882e-01
6.521297956e-01,9.31857e-01,9.99999e-01,9.99999e-01,9.94391e-01,9.37204e-01,9.99901e-01
6.553904446e-01,9.33128e-01,9.99999e-01,9.99999e-01,9.94448e-01,9.38406e-01,9.99926e-01
6.586673968e-01,9.35068e-01,9.99999e-01,9.99999e-01,9.95216e-01,9.39585e-01,9.99975e-01
6.619607338e-01,9.38133e-01,9.99999e-01,9.99999e-01,9.97231e-01,9.40742e-01,9.99994e-01
6.652705375e-01,9.40364e-01,9.99999e-01,9.99999e-01,9.98395e-01,9.41878e-01,9.99996e-01
6.685968902e-01,9.42289e-01,9.99999e-01,9.99999e-01,9.99254e-01,9.42992e-01,9.99999e-01
6.719398746e-01,9.43760e-01,9.99999e-01,9.99999e-01,9.99654e-01,9.44086e-01,9.99999e-01
6.752995740e-01,9.44983e-01,9.99999e-01,9.99999e-01,9.99812e-01,9.45160e-01,9.99999e-01
6.786760719e-01,9.45958e-01,9.99999e-01,9.99999e-01,9.99730e-01,9.46213e-01,9.99999e-01
6.820694522e-01,9.46808e-01,9.99999e-01,9.99999e-01,9.99538e-01,9.47247e-01,9.99997e-01
6.854797995e-01,9.47693e-01,9.99999e-01,9.99999e-01,9.99404e-01,9.48262e-01,9.99994e-01
6.889071985e-01,9.47886e-01,9.99999e-01,9.99999e-01,9.98567e-01,9.49257e-01,9.99986e-01
6.923517345e-01,9.28053e-01,9.99999e-01,9.99999e-01,9.76766e-01,9.50234e-01,9.99886e-01
6.958134932e-01,9.39323e-01,9.99999e-01,9.99999e-01,9.87772e-01,9.51193e-01,9.99745e-01
6.992925606e-01,9.40925e-01,9.99999e-01,9.99999e-01,9.88449e-01,9.52134e-01,9.99775e-01
7.027890234e-01,9.39281e-01,9.99999e-01,9.99999e-01,9.85714e-01,9.53056e-01,9.99827e-01
7.063029686e-01,9.42413e-01,9.99999e-01,9.99999e-01,9.87977e-01,9.53962e-01,9.99914e-01
7.098344834e-01,9.43785e-01,9.99999e-01,9.99999e-01,9.88460e-01,9.54850e-01,9.99948e-01
7.133836558e-01,9.41035e-01,9.99999e-01,9.99999e-01,9.84730e-01,9.55722e-01,9.99899e-01
7.169505741e-01,8.45014e-01,9.99999e-01,9.99999e-01,8.84071e-01,9.56578e-01,9.99208e-01
7.205353270e-01,8.99671e-01,9.99999e-01,9.99999e-01,9.40997e-01,9.57417e-01,9.98604e-01
7.241380036e-01,8.86215e-01,9.99999e-01,9.99999e-01,9.25951e-01,9.58240e-01,9.98794e-01
7.277586936e-01,8.93837e-01,9.99999e-01,9.99999e-01,9.32922e-01,9.59048e-01,9.99014e-01
7.313974871e-01,8.90828e-01,9.99999e-01,9.99999e-01,9.28528e-01,9.59840e-01,9.99538e-01
7.350544745e-01,9.22330e-01,9.99999e-01,9.99999e-01,9.60296e-01,9.60618e-01,9.99839e-01
7.387297469e-01,9.33043e-01,9.99999e-01,9.99999e-01,9.70595e-01,9.61380e-01,9.99926e-01
7.424233956e-01,9.48155e-01,9.99999e-01,9.99999e-01,9.85490e-01,9.62128e-01,9.99985e-01
7.461355126e-01,9.54374e-01,9.99999e-01,9.99999e-01,9.91186e-01,9.62862e-01,9.99997e-01
7.498661902e-01,9.59616e-01,9.99999e-01,9.99999e-01,9.95883e-01,9.63582e-01,9.99998e-01
7.536155211e-01,9.62342e-01,9.99999e-01,9.99999e-01,9.97981e-01,9.64289e-01,9.99998e-01
7.573835987e-01,9.63978e-01,9.99999e-01,9.99999e-01,9.98960e-01,9.64982e-01,9.99999e-01
7.611705167e-01,9.65038e-01,9.99999e-01,9.99999e-01,9.99353e-01,9.65661e-01,9.99999e-01
7.649763693e-01,9.65937e-01,9.99999e-01,9.99999e-01,9.99594e-01,9.66328e-01,9.99999e-01
7.688012511e-01,9.66710e-01,9.99999e-01,9.99999e-01,9.99717e-01,9.66982e-01,9.99999e-01
7.726452574e-01,9.67399e-01,9.99999e-01,9.99999e-01,9.99767e-01,9.67623e-01,9.99999e-01
7.765084837e-01,9.67934e-01,9.99999e-01,9.99999e-01,9.99671e-01,9.68253e-01,9.99999e-01
7.803910261e-01,9.67495e-01,9.99999e-01,9.99999e-01,9.98581e-01,9.68870e-01,9.99998e-01
7.842929812e-01,9.64676e-01,9.99999e-01,9.99999e-01,9.95058e-01,9.69475e-01,9.99990e-01
7.882144461e-01,9.60125e-01,9.99999e-01,9.99999e-01,9.89810e-01,9.70069e-01,9.99937e-01
7.921555184e-01,9.65092e-01,9.99999e-01,9.99999e-01,9.94392e-01,9.70651e-01,9.99878e-01
7.961162960e-01,9.61543e-01,9.99999e-01,9.99999e-01,9.90147e-01,9.71223e-01,9.99883e-01
8.000968774e-01,9.60585e-01,9.99999e-01,9.99999e-01,9.88598e-01,9.71783e-01,9.99876e-01
8.040973618e-01,9.61157e-01,9.99999e-01,9.99999e-01,9.88602e-01,9.72333e-01,9.99901e-01
8.081178486e-01,9.48047e-01,9.99999e-01,9.99999e-01,9.74572e-01,9.72872e-01,9.99907e-01
8.121584379e-01,8.74234e-01,9.99999e-01,9.99999e-01,8.98448e-01,9.73400e-01,9.99638e-01
8.162192301e-01,8.56234e-01,9.99999e-01,9.99999e-01,8.80358e-01,9.73919e-01,9.98642e-01
8.203003262e-01,9.14039e-01,9.99999e-01,9.99999e-01,9.39519e-01,9.74427e-01,9.98410e-01
8.244018279e-01,8.92124e-01,9.99999e-01,9.99999e-01,9.16226e-01,9.74926e-01,9.98734e-01
8.285238370e-01,9.03068e-01,9.99999e-01,9.99999e-01,9.26749e-01,9.75415e-01,9.99006e-01
8.326664562e-01,9.03256e-01,9.99999e-01,9.99999e-01,9.25946e-01,9.75895e-01,9.99588e-01
8.368297885e-01,9.23894e-01,9.99999e-01,9.99999e-01,9.46347e-01,9.76365e-01,9.99905e-01
8.410139374e-01,9.45267e-01,9.99999e-01,9.99999e-01,9.67744e-01,9.76827e-01,9.99944e-01
8.452190071e-01,9.61651e-01,9.99999e-01,9.99999e-01,9.84040e-01,9.77279e-01,9.99966e-01
8.494451021e-01,9.68626e-01,9.99999e-01,9.99999e-01,9.90721e-01,9.77723e-01,9.99973e-01
8.536923276e-01,9.72761e-01,9.99999e-01,9.99999e-01,9.94497e-01,9.78158e-01,9.99983e-01
8.579607893e-01,9.75266e-01,9.99999e-01,9.99999e-01,9.96611e-01,9.78585e-01,9.99995e-01
8.622505932e-01,9.76893e-01,9.99999e-01,9.99999e-01,9.97844e-01,9.79003e-01,9.99998e-01
8.665618462e-01,9.78109e-01,9.99999e-01,9.99999e-01,9.98668e-01,9.79414e-01,9.99999e-01
8.708946554e-01,9.78323e-01,9.99999e-01,9.99999e-01,9.98476e-01,9.79816e-01,9.99998e-01
8.752491287e-01,9.78211e-01,9.99999e-01,9.99999e-01,9.97961e-01,9.80211e-01,9.99997e-01
8.796253743e-01,9.77828e-01,9.99999e-01,9.99999e-01,9.97181e-01,9.80598e-01,9.99993e-01
8.840235012e-01,9.77800e-01,9.99999e-01,9.99999e-01,9.96779e-01,9.80977e-01,9.99979e-01
8.884436187e-01,9.69904e-01,9.99999e-01,9.99999e-01,9.88391e-01,9.81350e-01,9.99943e-01
8.928858368e-01,8.67922e-01,9.99999e-01,9.99999e-01,8.84372e-01,9.81715e-01,9.99677e-01
8.973502660e-01,7.88810e-01,9.99999e-01,9.99999e-01,8.04537e-01,9.82073e-01,9.98348e-01
9.018370173e-01,8.76693e-01,9.99999e-01,9.99999e-01,8.94698e-01,9.82423e-01,9.97405e-01
9.063462024e-01,8.89339e-01,9.99999e-01,9.99999e-01,9.06999e-01,9.82768e-01,9.97720e-01
9.108779334e-01,8.42119e-01,9.99999e-01,9.99999e-01,8.58623e-01,9.83105e-01,9.97631e-01
9.154323231e-01,8.25039e-01,9.99999e-01,9.99999e-01,8.40580e-01,9.83436e-01,9.98041e-01
9.200094847e-01,8.57862e-01,9.99999e-01,9.99999e-01,8.72980e-01,9.83760e-01,9.98903e-01
9.246095321e-01,7.99752e-01,9.99999e-01,9.99999e-01,8.13718e-01,9.84079e-01,9.98736e-01
9.292325798e-01,2.60151e-01,9.99999e-01,9.99999e-01,2.65582e-01,9.84391e-01,9.95082e-01
9.338787427e-01,1.73989e-01,9.99999e-01,9.99999e-01,1.80330e-01,9.84697e-01,9.79829e-01
9.385481364e-01,4.78886e-01,9.99999e-01,9.99999e-01,4.98107e-01,9.84997e-01,9.76055e-01
9.432408771e-01,3.78162e-01,9.99999e-01,9.99999e-01,3.91916e-01,9.85291e-01,9.79308e-01
9.479570815e-01,2.66984e-01,9.99999e-01,9.99999e-01,2.75539e-01,9.85579e-01,9.83127e-01
9.526968669e-01,3.60777e-01,9.99999e-01,9.99999e-01,3.69768e-01,9.85862e-01,9.89674e-01
9.574603512e-01,3.81712e-01,9.99999e-01,9.99999e-01,3.89123e-01,9.86139e-01,9.94741e-01
9.622476530e-01,4.50944e-01,9.99999e-01,9.99999e-01,4.58825e-01,9.86411e-01,9.96360e-01
9.670588912e-01,6.26302e-01,9.99999e-01,9.99999e-01,6.36342e-01,9.86678e-01,9.97509e-01
9.718941857e-01,7.38907e-01,9.99999e-01,9.99999e-01,7.50060e-01,9.86939e-01,9.98165e-01
9.767536566e-01,7.76247e-01,9.99999e-01,9.99999e-01,7.87418e-01,9.87195e-01,9.98598e-01
9.816374249e-01,8.26147e-01,9.99999e-01,9.99999e-01,8.37055e-01,9.87447e-01,9.99514e-01
9.865456120e-01,8.83512e-01,9.99999e-01,9.99999e-01,8.94610e-01,9.87693e-01,9.99898e-01
9.914783401e-01,9.22113e-01,9.99999e-01,9.99999e-01,9.33399e-01,9.87935e-01,9.99971e-01
9.964357318e-01,9.51749e-01,9.99999e-01,9.99999e-01,9.63156e-01,9.88172e-01,9.99983e-01
1.001417910e+00,9.66384e-01,9.99999e-01,9.99999e-01,9.77745e-01,9.88404e-01,9.99974e-01
1.006425000e+00,9.76003e-01,9.99999e-01,9.99999e-01,9.87260e-01,9.88632e-01,9.99963e-01
1.011457125e+00,9.80980e-01,9.99999e-01,9.99999e-01,9.92068e-01,9.88855e-01,9.99966e-01
1.016514411e+00,9.83722e-01,9.99999e-01,9.99999e-01,9.94611e-01,9.89074e-01,9.99976e-01
1.021596983e+00,9.85017e-01,9.99999e-01,9.99999e-01,9.95705e-01,9.89288e-01,9.99976e-01
1.026704968e+00,9.86169e-01,9.99999e-01,9.99999e-01,9.96649e-01,9.89499e-01,9.99983e-01
1.031838492e+00,9.87289e-01,9.99999e-01,9.99999e-01,9.97562e-01,9.89705e-01,9.99995e-01
1.036997685e+00,9.88475e-01,9.99999e-01,9.99999e-01,9.98552e-01,9.89908e-01,9.99998e-01
1.042182673e+00,9.88400e-01,9.99999e-01,9.99999e-01,9.98276e-01,9.90106e-01,9.99999e-01
1.047393587e+00,9.88036e-01,9.99999e-01,9.99999e-01,9.97713e-01,9.90300e-01,9.99999e-01
1.052630555e+00,9.87386e-01,9.99999e-01,9.99999e-01,9.96865e-01,9.90491e-01,9.99998e-01
1.057893707e+00,9.85500e-01,9.99999e-01,9.99999e-01,9.94774e-01,9.90678e-01,9.99997e-01
1.063183176e+00,9.82348e-01,9.99999e-01,9.99999e-01,9.91411e-01,9.90861e-01,9.99995e-01
1.068499092e+00,9.76813e-01,9.99999e-01,9.99999e-01,9.85653e-01,9.91041e-01,9.99989e-01
1.073841587e+00,9.74595e-01,9.99999e-01,9.99999e-01,9.83250e-01,9.91217e-01,9.99978e-01
1.079210795e+00,9.70071e-01,9.99999e-01,9.99999e-01,9.78551e-01,9.91390e-01,9.99941e-01
1.084606849e+00,9.59444e-01,9.99999e-01,9.99999e-01,9.67745e-01,9.91559e-01,9.99860e-01
1.090029883e+00,9.45965e-01,9.99999e-01,9.99999e-01,9.54131e-01,9.91725e-01,9.99711e-01
1.095480033e+00,8.72302e-01,9.99999e-01,9.99999e-01,8.79893e-01,9.91888e-01,9.99479e-01
1.100957433e+00,7.17678e-01,9.99999e-01,9.99999e-01,7.24123e-01,9.92047e-01,9.99041e-01
1.106462220e+00,4.45795e-01,9.99999e-01,9.99999e-01,4.50029e-01,9.92204e-01,9.98375e-01
1.111994531e+00,1.89979e-01,9.99999e-01,9.99999e-01,1.92270e-01,9.92357e-01,9.95693e-01
1.117554504e+00,7.23281e-02,9.99999e-01,9.99999e-01,7.40182e-02,9.92508e-01,9.84540e-01
1.123142276e+00,1.56081e-01,9.99999e-01,9.99999e-01,1.63154e-01,9.92655e-01,9.63728e-01
1.128757988e+00,2.77089e-01,9.99999e-01,9.99999e-01,2.91285e-01,9.92800e-01,9.58160e-01
1.134401778e+00,1.25446e-01,9.99999e-01,9.99999e-01,1.31014e-01,9.92941e-01,9.64310e-01
1.140073787e+00,4.50345e-01,9.99999e-01,9.99999e-01,4.66843e-01,9.93080e-01,9.71380e-01
1.145774156e+00,2.12301e-01,9.99999e-01,9.99999e-01,2.19508e-01,9.93216e-01,9.73770e-01
1.151503026e+00,1.83837e-01,9.99999e-01,9.99999e-01,1.87828e-01,9.93350e-01,9.85302e-01
1.157260541e+00,2.26655e-01,9.99999e-01,9.99999e-01,2.29154e-01,9.93481e-01,9.95582e-01
1.163046844e+00,3.30731e-01,9.99999e-01,9.99999e-01,3.33276e-01,9.93609e-01,9.98745e-01
1.168862078e+00,4.55116e-01,9.99999e-01,9.99999e-01,4.58281e-01,9.93735e-01,9.99353e-01
1.174706389e+00,6.12965e-01,9.99999e-01,9.99999e-01,6.17280e-01,9.93858e-01,9.99143e-01
1.180579921e+00,7.39053e-01,9.99999e-01,9.99999e-01,7.44493e-01,9.93979e-01,9.98704e-01
1.186482820e+00,8.39683e-01,9.99999e-01,9.99999e-01,8.45792e-01,9.94098e-01,9.98670e-01
1.192415234e+00,9.00609e-01,9.99999e-01,9.99999e-01,9.06752e-01,9.94214e-01,9.99004e-01
1.198377311e+00,9.14803e-01,9.99999e-01,9.99999e-01,9.20886e-01,9.94328e-01,9.99059e-01
1.204369197e+00,9.19176e-01,9.99999e-01,9.99999e-01,9.25101e-01,9.94440e-01,9.99148e-01
1.210391043e+00,9.22623e-01,9.99999e-01,9.99999e-01,9.28159e-01,9.94549e-01,9.99482e-01
1.216442998e+00,9.33198e-01,9.99999e-01,9.99999e-01,9.38508e-01,9.94657e-01,9.99682e-01
1.222525213e+00,9.46586e-01,9.99999e-01,9.99999e-01,9.51757e-01,9.94762e-01,9.99802e-01
1.228637839e+00,9.61202e-01,9.99999e-01,9.99999e-01,9.66250e-01,9.94865e-01,9.99907e-01
