#,Wave/freq,Total,N2,O2,H2O,Rayleigh,CIA
4.000000000e-01,7.96382e-01,9.99999e-01,9.99999e-01,9.99973e-01,7.96403e-01,9.99999e-01
4.020000000e-01,7.99983e-01,9.99999e-01,9.99999e-01,9.99983e-01,7.99996e-01,9.99999e-01
4.040100000e-01,8.03524e-01,9.99999e-01,9.99999e-01,9.99992e-01,8.03529e-01,9.99999e-01
4.060300500e-01,8.07007e-01,9.99999e-01,9.99999e-01,9.99997e-01,8.07009e-01,9.99999e-01
4.080602003e-01,8.10434e-01,9.99999e-01,9.99999e-01,9.99999e-01,8.10434e-01,9.99999e-01
4.101005013e-01,8.13806e-01,9.99999e-01,9.99999e-01,9.99999e-01,8.13806e-01,9.99999e-01
4.121510038e-01,8.17123e-01,9.99999e-01,9.99999e-01,9.99998e-01,8.17124e-01,9.99999e-01
4.142117588e-01,8.20385e-01,9.99999e-01,9.99999e-01,9.99992e-01,8.20390e-01,9.99999e-01
4.162828176e-01,8.23579e-01,9.99999e-01,9.99999e-01,9.99967e-01,8.23605e-01,9.99999e-01
4.183642317e-01,8.26752e-01,9.99999e-01,9.99999e-01,9.99980e-01,8.26768e-01,9.99999e-01
4.204560528e-01,8.29871e-01,9.99999e-01,9.99999e-01,9.99987e-01,8.29880e-01,9.99999e-01
4.225583331e-01,8.32939e-01,9.99999e-01,9.99999e-01,9.99995e-01,8.32943e-01,9.99999e-01
4.246711247e-01,8.35953e-01,9.99999e-01,9.99999e-01,9.99996e-01,8.35956e-01,9.99999e-01
4.267944804e-01,8.38915e-01,9.99999e-01,9.99999e-01,9.99994e-01,8.38919e-01,9.99999e-01
4.289284528e-01,8.41832e-01,9.99999e-01,9.99999e-01,9.99995e-01,8.41835e-01,9.99999e-01
4.310730950e-01,8.44701e-01,9.99999e-01,9.99999e-01,9.99997e-01,8.44703e-01,9.99999e-01
4.332284605e-01,8.47523e-01,9.99999e-01,9.99999e-01,9.99999e-01,8.47523e-01,9.99999e-01
4.353946028e-01,8.50297e-01,9.99999e-01,9.99999e-01,9.99999e-01,8.50297e-01,9.99999e-01
4.375715758e-01,8.53023e-01,9.99999e-01,9.99999e-01,9.99996e-01,8.53025e-01,9.99999e-01
4.397594337e-01,8.55684e-01,9.99999e-01,9.99999e-01,9.99971e-01,8.55708e-01,9.99999e-01
4.419582309e-01,8.58225e-01,9.99999e-01,9.99999e-01,9.99858e-01,8.58346e-01,9.99999e-01
4.441680220e-01,8.60844e-01,9.99999e-01,9.99999e-01,9.99888e-01,8.60940e-01,9.99999e-01
4.463888621e-01,8.63390e-01,9.99999e-01,9.99999e-01,9.99884e-01,8.63490e-01,9.99999e-01
4.486208064e-01,8.65935e-01,9.99999e-01,9.99999e-01,9.99927e-01,8.65997e-01,9.99999e-01
4.508639105e-01,8.68432e-01,9.99999e-01,9.99999e-01,9.99965e-01,8.68461e-01,9.99999e-01
4.531182300e-01,8.70872e-01,9.99999e-01,9.99999e-01,9.99986e-01,8.70884e-01,9.99999e-01
4.553838212e-01,8.73257e-01,9.99999e-01,9.99999e-01,9.99990e-01,8.73265e-01,9.99999e-01
4.576607403e-01,8.75602e-01,9.99999e-01,9.99999e-01,9.99995e-01,8.75606e-01,9.99999e-01
4.599490440e-01,8.77904e-01,9.99999e-01,9.99999e-01,9.99996e-01,8.77906e-01,9.99999e-01
4.622487892e-01,8.80167e-01,9.99999e-01,9.99999e-01,9.99999e-01,8.80167e-01,9.99999e-01
4.645600332e-01,8.82388e-01,9.99999e-01,9.99999e-01,9.99997e-01,8.82389e-01,9.99999e-01
4.668828333e-01,8.84543e-01,9.99999e-01,9.99999e-01,9.99965e-01,8.84573e-01,9.99999e-01
4.692172475e-01,8.86654e-01,9.99999e-01,9.99999e-01,9.99927e-01,8.86718e-01,9.99999e-01
4.715633337e-01,8.88785e-01,9.99999e-01,9.99999e-01,9.99952e-01,8.88827e-01,9.99999e-01
4.739211504e-01,8.90858e-01,9.99999e-01,9.99999e-01,9.99954e-01,8.90898e-01,9.99999e-01
4.762907561e-01,8.92912e-01,9.99999e-01,9.99999e-01,9.99975e-01,8.92933e-01,9.99999e-01
4.786722099e-01,8.94924e-01,9.99999e-01,9.99999e-01,9.99989e-01,8.94933e-01,9.99999e-01
4.810655710e-01,8.96895e-01,9.99999e-01,9.99999e-01,9.99996e-01,8.96897e-01,9.99999e-01
4.834708988e-01,8.98803e-01,9.99999e-01,9.99999e-01,9.99972e-01,8.98827e-01,9.99999e-01
4.858882533e-01,9.00677e-01,9.99999e-01,9.99999e-01,9.99948e-01,9.00723e-01,9.99999e-01
4.883176946e-01,9.02546e-01,9.99999e-01,9.99999e-01,9.99956e-01,9.02585e-01,9.99999e-01
4.907592831e-01,9.04379e-01,9.99999e-01,9.99999e-01,9.99960e-01,9.04414e-01,9.99999e-01
4.932130795e-01,9.06186e-01,9.99999e-01,9.99999e-01,9.99972e-01,9.06211e-01,9.99999e-01
4.956791449e-01,9.07962e-01,9.99999e-01,9.99999e-01,9.99984e-01,9.07975e-01,9.99999e-01
4.981575406e-01,9.09642e-01,9.99999e-01,9.99999e-01,9.99927e-01,9.09708e-01,9.99999e-01
5.006483283e-01,9.11238e-01,9.99999e-01,9.99999e-01,9.99812e-01,9.11410e-01,9.99998e-01
5.031515699e-01,9.12202e-01,9.99999e-01,9.99999e-01,9.99045e-01,9.13082e-01,9.99989e-01
5.056673278e-01,9.14251e-01,9.99999e-01,9.99999e-01,9.99495e-01,9.14723e-01,9.99988e-01
5.081956644e-01,9.15745e-01,9.99999e-01,9.99999e-01,9.99363e-01,9.16335e-01,9.99992e-01
5.107366428e-01,9.17522e-01,9.99999e-01,9.99999e-01,9.99569e-01,9.17918e-01,9.99998e-01
5.132903260e-01,9.19246e-01,9.99999e-01,9.99999e-01,9.99753e-01,9.19472e-01,9.99999e-01
5.158567776e-01,9.20902e-01,9.99999e-01,9.99999e-01,9.99895e-01,9.20998e-01,9.99999e-01
5.184360615e-01,9.22458e-01,9.99999e-01,9.99999e-01,9.99957e-01,9.22496e-01,9.99999e-01
5.210282418e-01,9.23953e-01,9.99999e-01,9.99999e-01,9.99984e-01,9.23967e-01,9.99999e-01
5.236333830e-01,9.25354e-01,9.99999e-01,9.99999e-01,9.99937e-01,9.25412e-01,9.99999e-01
5.262515499e-01,9.26793e-01,9.99999e-01,9.99999e-01,9.99960e-01,9.26830e-01,9.99998e-01
5.288828077e-01,9.28189e-01,9.99999e-01,9.99999e-01,9.99963e-01,9.28222e-01,9.99999e-01
5.315272217e-01,9.29559e-01,9.99999e-01,9.99999e-01,9.99968e-01,9.29589e-01,9.99999e-01
5.341848578e-01,9.30911e-01,9.99999e-01,9.99999e-01,9.99979e-01,9.30930e-01,9.99999e-01
5.368557821e-01,9.32180e-01,9.99999e-01,9.99999e-01,9.99927e-01,9.32247e-01,9.99999e-01
5.395400610e-01,9.33295e-01,9.99999e-01,9.99999e-01,9.99739e-01,9.33540e-01,9.99997e-01
5.422377613e-01,9.34487e-01,9.99999e-01,9.99999e-01,9.99661e-01,9.34809e-01,9.99993e-01
5.449489501e-01,9.35755e-01,9.99999e-01,9.99999e-01,9.99686e-01,9.36054e-01,9.99993e-01
5.476736949e-01,9.37013e-01,9.99999e-01,9.99999e-01,9.99720e-01,9.37277e-01,9.99996e-01
5.504120634e-01,9.38286e-01,9.99999e-01,9.99999e-01,9.99797e-01,9.38477e-01,9.99998e-01
5.531641237e-01,9.39559e-01,9.99999e-01,9.99999e-01,9.99897e-01,9.39655e-01,9.99999e-01
5.559299443e-01,9.40764e-01,9.99999e-01,9.99999e-01,9.99950e-01,9.40811e-01,9.99999e-01
5.587095940e-01,9.41916e-01,9.99999e-01,9.99999e-01,9.99968e-01,9.41945e-01,9.99999e-01
5.615031420e-01,9.43026e-01,9.99999e-01,9.99999e-01,9.99965e-01,9.43059e-01,9.99999e-01
5.643106577e-01,9.44115e-01,9.99999e-01,9.99999e-01,9.99961e-01,9.44151e-01,9.99999e-01
5.671322110e-01,9.44778e-01,9.99999e-01,9.99999e-01,9.99532e-01,9.45224e-01,9.99995e-01
5.699678720e-01,9.45786e-01,9.99999e-01,9.99999e-01,9.99494e-01,9.46276e-01,9.99986e-01
5.728177114e-01,9.46804e-01,9.99999e-01,9.99999e-01,9.99477e-01,9.47309e-01,9.99988e-01
5.756818000e-01,9.47861e-01,9.99999e-01,9.99999e-01,9.99519e-01,9.48322e-01,9.99992e-01
5.785602090e-01,9.48917e-01,9.99999e-01,9.99999e-01,9.99580e-01,9.49317e-01,9.99997e-01
5.814530100e-01,9.49892e-01,9.99999e-01,9.99999e-01,9.99579e-01,9.50292e-01,9.99998e-01
5.843602750e-01,9.50773e-01,9.99999e-01,9.99999e-01,9.99501e-01,9.51250e-01,9.99996e-01
5.872820764e-01,9.48070e-01,9.99999e-01,9.99999e-01,9.95703e-01,9.52189e-01,9.99969e-01
5.902184868e-01,9.48048e-01,9.99999e-01,9.99999e-01,9.94769e-01,9.53111e-01,9.99916e-01
5.931695792e-01,9.50419e-01,9.99999e-01,9.99999e-01,9.96309e-01,9.54016e-01,9.99919e-01
5.961354271e-01,9.50990e-01,9.99999e-01,9.99999e-01,9.95949e-01,9.54903e-01,9.99950e-01
5.991161043e-01,9.52935e-01,9.99999e-01,9.99999e-01,9.97043e-01,9.55774e-01,9.99985e-01
6.021116848e-01,9.55020e-01,9.99999e-01,9.99999e-01,9.98320e-01,9.56628e-01,9.99997e-01
6.051222432e-01,9.56653e-01,9.99999e-01,9.99999e-01,9.99149e-01,9.57467e-01,9.99999e-01
6.081478544e-01,9.57938e-01,9.99999e-01,9.99999e-01,9.99633e-01,9.58289e-01,9.99999e-01
6.111885937e-01,9.58947e-01,9.99999e-01,9.99999e-01,9.99844e-01,9.59096e-01,9.99999e-01
6.142445367e-01,9.59821e-01,9.99999e-01,9.99999e-01,9.99930e-01,9.59887e-01,9.99999e-01
6.173157594e-01,9.60627e-01,9.99999e-01,9.99999e-01,9.99961e-01,9.60664e-01,9.99999e-01
6.204023382e-01,9.61395e-01,9.99999e-01,9.99999e-01,9.99967e-01,9.61425e-01,9.99999e-01
6.235043498e-01,9.62037e-01,9.99999e-01,9.99999e-01,9.99858e-01,9.62173e-01,9.99999e-01
6.266218716e-01,9.62177e-01,9.99999e-01,9.99999e-01,9.99247e-01,9.62906e-01,9.99994e-01
6.297549810e-01,9.63349e-01,9.99999e-01,9.99999e-01,9.99723e-01,9.63625e-01,9.99988e-01
6.329037559e-01,9.63796e-01,9.99999e-01,9.99999e-01,9.99453e-01,9.64331e-01,9.99991e-01
6.360682746e-01,9.64570e-01,9.99999e-01,9.99999e-01,9.99535e-01,9.65023e-01,9.99994e-01
6.392486160e-01,9.65118e-01,9.99999e-01,9.99999e-01,9.99397e-01,9.65702e-01,9.99997e-01
6.424448591e-01,9.65590e-01,9.99999e-01,9.99999e-01,9.99198e-01,9.66368e-01,9.99995e-01
6.456570834e-01,9.63403e-01,9.99999e-01,9.99999e-01,9.96279e-01,9.67021e-01,9.99978e-01
6.488853688e-01,9.64953e-01,9.99999e-01,9.99999e-01,9.97258e-01,9.67661e-01,9.99941e-01
6.521297956e-01,9.65537e-01,9.99999e-01,9.99999e-01,9.97205e-01,9.68290e-01,9.99950e-01
6.553904446e-01,9.66195e-01,9.99999e-01,9.99999e-01,9.97237e-01,9.68906e-01,9.99963e-01
6.586673968e-01,9.67190e-01,9.99999e-01,9.99999e-01,9.97617e-01,9.69511e-01,9.99987e-01
6.619607338e-01,9.68766e-01,9.99999e-01,9.99999e-01,9.98622e-01,9.70104e-01,9.99996e-01
6.652705375e-01,9.69910e-01,9.99999e-01,9.99999e-01,9.99201e-01,9.70686e-01,9.99998e-01
6.685968902e-01,9.70896e-01,9.99999e-01,9.99999e-01,9.99628e-01,9.71257e-01,9.99999e-01
6.719398746e-01,9.71649e-01,9.99999e-01,9.99999e-01,9.99827e-01,9.71816e-01,9.99999e-01
6.752995740e-01,9.72275e-01,9.99999e-01,9.99999e-01,9.99906e-01,9.72365e-01,9.99999e-01
6.786760719e-01,9.72773e-01,9.99999e-01,9.99999e-01,9.99865e-01,9.72904e-01,9.99999e-01
6.820694522e-01,9.73207e-01,9.99999e-01,9.99999e-01,9.99770e-01,9.73432e-01,9.99998e-01
6.854797995e-01,9.73659e-01,9.99999e-01,9.99999e-01,9.99704e-01,9.73949e-01,9.99996e-01
6.889071985e-01,9.73760e-01,9.99999e-01,9.99999e-01,9.99289e-01,9.74457e-01,9.99993e-01
6.923517345e-01,9.63578e-01,9.99999e-01,9.99999e-01,9.88384e-01,9.74956e-01,9.99943e-01
6.958134932e-01,9.69351e-01,9.99999e-01,9.99999e-01,9.93878e-01,9.75444e-01,9.99873e-01
6.992925606e-01,9.70200e-01,9.99999e-01,9.99999e-01,9.94246e-01,9.75923e-01,9.99888e-01
7.027890234e-01,9.69348e-01,9.99999e-01,9.99999e-01,9.92868e-01,9.76393e-01,9.99914e-01
7.063029686e-01,9.70957e-01,9.99999e-01,9.99999e-01,9.94004e-01,9.76854e-01,9.99957e-01
7.098344834e-01,9.71660e-01,9.99999e-01,9.99999e-01,9.94247e-01,9.77306e-01,9.99974e-01
7.133836558e-01,9.70262e-01,9.99999e-01,9.99999e-01,9.92391e-01,9.77749e-01,9.99949e-01
7.169505741e-01,9.19295e-01,9.99999e-01,9.99999e-01,9.40166e-01,9.78184e-01,9.99606e-01
7.205353270e-01,9.48571e-01,9.99999e-01,9.99999e-01,9.69976e-01,9.78610e-01,9.99306e-01
7.241380036e-01,9.41578e-01,9.99999e-01,9.99999e-01,9.62323e-01,9.79028e-01,9.99400e-01
7.277586936e-01,9.45598e-01,9.99999e-01,9.99999e-01,9.65922e-01,9.79438e-01,9.99510e-01
7.313974871e-01,9.44030e-01,9.99999e-01,9.99999e-01,9.63674e-01,9.79840e-01,9.99770e-01
7.350544745e-01,9.60572e-01,9.99999e-01,9.99999e-01,9.80018e-01,9.80234e-01,9.99919e-01
7.387297469e-01,9.66127e-01,9.99999e-01,9.99999e-01,9.85254e-01,9.80621e-01,9.99963e-01
7.424233956e-01,9.73883e-01,9.99999e-01,9.99999e-01,9.92752e-01,9.81000e-01,9.99992e-01
7.461355126e-01,9.77059e-01,9.99999e-01,9.99999e-01,9.95606e-01,9.81372e-01,9.99998e-01
7.498661902e-01,9.79723e-01,9.99999e-01,9.99999e-01,9.97949e-01,9.81736e-01,9.99999e-01
7.536155211e-01,9.81107e-01,9.99999e-01,9.99999e-01,9.98995e-01,9.82094e-01,9.99999e-01
7.573835987e-01,9.81936e-01,9.99999e-01,9.99999e-01,9.99482e-01,9.82444e-01,9.99999e-01
7.611705167e-01,9.82472e-01,9.99999e-01,9.99999e-01,9.99678e-01,9.82788e-01,9.99999e-01
7.649763693e-01,9.82927e-01,9.99999e-01,9.99999e-01,9.99798e-01,9.83125e-01,9.99999e-01
7.688012511e-01,9.83318e-01,9.99999e-01,9.99999e-01,9.99859e-01,9.83456e-01,9.99999e-01
7.726452574e-01,9.83666e-01,9.99999e-01,9.99999e-01,9.99884e-01,9.83780e-01,9.99999e-01
7.765084837e-01,9.83937e-01,9.99999e-01,9.99999e-01,9.99836e-01,9.84098e-01,9.99999e-01
7.803910261e-01,9.83716e-01,9.99999e-01,9.99999e-01,9.99295e-01,9.84409e-01,9.99998e-01
7.842929812e-01,9.82293e-01,9.99999e-01,9.99999e-01,9.97544e-01,9.84715e-01,9.99994e-01
7.882144461e-01,9.79983e-01,9.99999e-01,9.99999e-01,9.94922e-01,9.85014e-01,9.99968e-01
7.921555184e-01,9.82496e-01,9.99999e-01,9.99999e-01,9.97205e-01,9.85308e-01,9.99939e-01
7.961162960e-01,9.80706e-01,9.99999e-01,9.99999e-01,9.95094e-01,9.85596e-01,9.99941e-01
8.000968774e-01,9.80217e-01,9.99999e-01,9.99999e-01,9.94317e-01,9.85879e-01,9.99938e-01
8.040973618e-01,9.80508e-01,9.99999e-01,9.99999e-01,9.94320e-01,9.86156e-01,9.99950e-01
8.081178486e-01,9.73839e-01,9.99999e-01,9.99999e-01,9.87282e-01,9.86427e-01,9.99953e-01
8.121584379e-01,9.35175e-01,9.99999e-01,9.99999e-01,9.47956e-01,9.86694e-01,9.99820e-01
8.162192301e-01,9.25325e-01,9.99999e-01,9.99999e-01,9.38187e-01,9.86955e-01,9.99325e-01
8.203003262e-01,9.55898e-01,9.99999e-01,9.99999e-01,9.69046e-01,9.87211e-01,9.99209e-01
8.244018279e-01,9.43855e-01,9.99999e-01,9.99999e-01,9.56440e-01,9.87462e-01,9.99370e-01
8.285238370e-01,9.50471e-01,9.99999e-01,9.99999e-01,9.62774e-01,9.87708e-01,9.99505e-01
8.326664562e-01,9.50505e-01,9.99999e-01,9.99999e-01,9.62295e-01,9.87949e-01,9.99795e-01
8.368297885e-01,9.61361e-01,9.99999e-01,9.99999e-01,9.72899e-01,9.88186e-01,9.99952e-01
8.410139374e-01,9.72390e-01,9.99999e-01,9.99999e-01,9.83810e-01,9.88418e-01,9.99972e-01
8.452190071e-01,9.80747e-01,9.99999e-01,9.99999e-01,9.92026e-01,9.88645e-01,9.99983e-01
8.494451021e-01,9.84284e-01,9.99999e-01,9.99999e-01,9.95377e-01,9.88868e-01,9.99986e-01
8.536923276e-01,9.86368e-01,9.99999e-01,9.99999e-01,9.97259e-01,9.89087e-01,9.99990e-01
8.579607893e-01,9.87632e-01,9.99999e-01,9.99999e-01,9.98314e-01,9.89301e-01,9.99997e-01
8.622505932e-01,9.88450e-01,9.99999e-01,9.99999e-01,9.98927e-01,9.89511e-01,9.99999e-01
8.665618462e-01,9.89062e-01,9.99999e-01,9.99999e-01,9.99337e-01,9.89717e-01,9.99999e-01
8.708946554e-01,9.89170e-01,9.99999e-01,9.99999e-01,9.99242e-01,9.89920e-01,9.99999e-01
8.752491287e-01,9.89114e-01,9.99999e-01,9.99999e-01,9.98986e-01,9.90118e-01,9.99998e-01
8.796253743e-01,9.88922e-01,9.99999e-01,9.99999e-01,9.98599e-01,9.90312e-01,9.99996e-01
8.840235012e-01,9.88907e-01,9.99999e-01,9.99999e-01,9.98399e-01,9.90502e-01,9.99989e-01
8.884436187e-01,9.84938e-01,9.99999e-01,9.99999e-01,9.94222e-01,9.90689e-01,9.99971e-01
8.928858368e-01,9.31637e-01,9.99999e-01,9.99999e-01,9.40369e-01,9.90872e-01,9.99839e-01
8.973502660e-01,8.87684e-01,9.99999e-01,9.99999e-01,8.96434e-01,9.91052e-01,9.99179e-01
9.018370173e-01,9.36012e-01,9.99999e-01,9.99999e-01,9.45515e-01,9.91228e-01,9.98709e-01
9.063462024e-01,9.43028e-01,9.99999e-01,9.99999e-01,9.52286e-01,9.91400e-01,9.98866e-01
9.108779334e-01,9.17495e-01,9.99999e-01,9.99999e-01,9.26386e-01,9.91569e-01,9.98822e-01
9.154323231e-01,9.08236e-01,9.99999e-01,9.99999e-01,9.16696e-01,9.91735e-01,9.99026e-01
9.200094847e-01,9.26005e-01,9.99999e-01,9.99999e-01,9.34078e-01,9.91898e-01,9.99454e-01
9.246095321e-01,8.92517e-01,9.99999e-01,9.99999e-01,9.00227e-01,9.92057e-01,9.99371e-01
9.292325798e-01,4.90949e-01,9.99999e-01,9.99999e-01,4.96015e-01,9.92213e-01,9.97553e-01
9.338787427e-01,3.96523e-01,9.99999e-01,9.99999e-01,4.03639e-01,9.92366e-01,9.89926e-01
9.385481364e-01,6.79402e-01,9.99999e-01,9.99999e-01,6.92816e-01,9.92517e-01,9.88030e-01
9.432408771e-01,5.93671e-01,9.99999e-01,9.99999e-01,6.04303e-01,9.92664e-01,9.89665e-01
9.479570815e-01,4.93264e-01,9.99999e-01,9.99999e-01,5.01055e-01,9.92808e-01,9.91580e-01
9.526968669e-01,5.84538e-01,9.99999e-01,9.99999e-01,5.91732e-01,9.92950e-01,9.94856e-01
9.574603512e-01,6.08415e-01,9.99999e-01,9.99999e-01,6.14256e-01,9.93089e-01,9.97383e-01
9.622476530e-01,6.65573e-01,9.99999e-01,9.99999e-01,6.71328e-01,9.93225e-01,9.98189e-01
9.670588912e-01,7.88412e-01,9.99999e-01,9.99999e-01,7.94666e-01,9.93358e-01,9.98761e-01
9.718941857e-01,8.59392e-01,9.99999e-01,9.99999e-01,8.65813e-01,9.93489e-01,9.99088e-01
9.767536566e-01,8.80991e-01,9.99999e-01,9.99999e-01,8.87268e-01,9.93617e-01,9.99302e-01
9.816374249e-01,9.09084e-01,9.99999e-01,9.99999e-01,9.15028e-01,9.93743e-01,9.99758e-01
9.865456120e-01,9.40161e-01,9.99999e-01,9.99999e-01,9.46010e-01,9.93866e-01,9.99949e-01
9.914783401e-01,9.60461e-01,9.99999e-01,9.99999e-01,9.66284e-01,9.93986e-01,9.99985e-01
9.964357318e-01,9.75703e-01,9.99999e-01,9.99999e-01,9.81496e-01,9.94105e-01,9.99991e-01
1.001417910e+00,9.83142e-01,9.99999e-01,9.99999e-01,9.88868e-01,9.94221e-01,9.99987e-01
1.006425000e+00,9.88001e-01,9.99999e-01,9.99999e-01,9.93647e-01,9.94335e-01,9.99981e-01
1.011457125e+00,9.90500e-01,9.99999e-01,9.99999e-01,9.96047e-01,9.94446e-01,9.99983e-01
1.016514411e+00,9.91877e-01,9.99999e-01,9.99999e-01,9.97317e-01,9.94556e-01,9.99987e-01
1.021596983e+00,9.92526e-01,9.99999e-01,9.99999e-01,9.97862e-01,9.94663e-01,9.99987e-01
1.026704968e+00,9.93103e-01,9.99999e-01,9.99999e-01,9.98333e-01,9.94768e-01,9.99991e-01
1.031838492e+00,9.93663e-01,9.99999e-01,9.99999e-01,9.98787e-01,9.94871e-01,9.99997e-01
1.036997685e+00,9.94256e-01,9.99999e-01,9.99999e-01,9.99280e-01,9.94972e-01,9.99999e-01
1.042182673e+00,9.94219e-01,9.99999e-01,9.99999e-01,9.99143e-01,9.95071e-01,9.99999e-01
1.047393587e+00,9.94037e-01,9.99999e-01,9.99999e-01,9.98863e-01,9.95168e-01,9.99999e-01
1.052630555e+00,9.93713e-01,9.99999e-01,9.99999e-01,9.98441e-01,9.95264e-01,9.99999e-01
1.057893707e+00,9.92770e-01,9.99999e-01,9.99999e-01,9.97401e-01,9.95357e-01,9.99998e-01
1.063183176e+00,9.91190e-01,9.99999e-01,9.99999e-01,9.95723e-01,9.95448e-01,9.99997e-01
1.068499092e+00,9.88408e-01,9.99999e-01,9.99999e-01,9.92842e-01,9.95538e-01,9.99994e-01
1.073841587e+00,9.87289e-01,9.99999e-01,9.99999e-01,9.91636e-01,9.95626e-01,9.99988e-01
1.079210795e+00,9.85005e-01,9.99999e-01,9.99999e-01,9.89274e-01,9.95712e-01,9.99970e-01
1.084606849e+00,9.79618e-01,9.99999e-01,9.99999e-01,9.83820e-01,9.95797e-01,9.99930e-01
1.090029883e+00,9.72744e-01,9.99999e-01,9.99999e-01,9.76908e-01,9.95879e-01,9.99856e-01
1.095480033e+00,9.34230e-01,9.99999e-01,9.99999e-01,9.38261e-01,9.95961e-01,9.99740e-01
1.100957433e+00,8.46912e-01,9.99999e-01,9.99999e-01,8.50683e-01,9.96040e-01,9.99523e-01
1.106462220e+00,6.61917e-01,9.99999e-01,9.99999e-01,6.65032e-01,9.96118e-01,9.99192e-01
1.111994531e+00,4.22898e-01,9.99999e-01,9.99999e-01,4.25424e-01,9.96195e-01,9.97857e-01
1.117554504e+00,2.50248e-01,9.99999e-01,9.99999e-01,2.53136e-01,9.96270e-01,9.92288e-01
1.123142276e+00,3.62200e-01,9.99999e-01,9.99999e-01,3.70264e-01,9.96343e-01,9.81810e-01
1.128757988e+00,5.11084e-01,9.99999e-01,9.99999e-01,5.23931e-01,9.96415e-01,9.78987e-01
1.134401778e+00,2.68612e-01,9.99999e-01,9.99999e-01,2.74470e-01,9.96486e-01,9.82104e-01
1.140073787e+00,6.65142e-01,9.99999e-01,9.99999e-01,6.77139e-01,9.96555e-01,9.85676e-01
1.145774156e+00,4.40231e-01,9.99999e-01,9.99999e-01,4.47594e-01,9.96623e-01,9.86880e-01
1.151503026e+00,4.06059e-01,9.99999e-01,9.99999e-01,4.10415e-01,9.96690e-01,9.92669e-01
1.157260541e+00,4.66784e-01,9.99999e-01,9.99999e-01,4.69335e-01,9.96755e-01,9.97802e-01
1.163046844e+00,5.68284e-01,9.99999e-01,9.99999e-01,5.70452e-01,9.96819e-01,9.99376e-01
1.168862078e+00,6.73158e-01,9.99999e-01,9.99999e-01,6.75479e-01,9.96882e-01,9.99678e-01
1.174706389e+00,7.82195e-01,9.99999e-01,9.99999e-01,7.84927e-01,9.96943e-01,9.99573e-01
1.180579921e+00,8.59597e-01,9.99999e-01,9.99999e-01,8.62735e-01,9.97004e-01,9.99355e-01
1.186482820e+00,9.16615e-01,9.99999e-01,9.99999e-01,9.19922e-01,9.97063e-01,9.99338e-01
1.192415234e+00,9.49261e-01,9.99999e-01,9.99999e-01,9.52472e-01,9.97121e-01,9.99504e-01
1.198377311e+00,9.56676e-01,9.99999e-01,9.99999e-01,9.59831e-01,9.97177e-01,9.99532e-01
1.204369197e+00,9.58878e-01,9.99999e-01,9.99999e-01,9.61944e-01,9.97233e-01,9.99576e-01
1.210391043e+00,9.60705e-01,9.99999e-01,9.99999e-01,9.63564e-01,9.97288e-01,9.99742e-01
1.216442998e+00,9.66159e-01,9.99999e-01,9.99999e-01,9.68886e-01,9.97341e-01,9.99841e-01
1.222525213e+00,9.73065e-01,9.99999e-01,9.99999e-01,9.75702e-01,9.97393e-01,9.99901e-01
1.228637839e+00,9.80517e-01,9.99999e-01,9.99999e-01,9.83073e-01,9.97445e-01,9.99953e-01
