#,Wave/freq,Total,N2,O2,H2O,Rayleigh,CIA
4.000000000e-01,1.84003e-01,9.99999e-01,9.99999e-01,9.99808e-01,1.84039e-01,9.99999e-01
4.020000000e-01,1.90280e-01,9.99999e-01,9.99999e-01,9.99880e-01,1.90302e-01,9.99999e-01
4.040100000e-01,1.96632e-01,9.99999e-01,9.99999e-01,9.99949e-01,1.96642e-01,9.99999e-01
4.060300500e-01,2.03059e-01,9.99999e-01,9.99999e-01,9.99987e-01,2.03062e-01,9.99999e-01
4.080602003e-01,2.09557e-01,9.99999e-01,9.99999e-01,9.99995e-01,2.09558e-01,9.99999e-01
4.101005013e-01,2.16128e-01,9.99999e-01,9.99999e-01,9.99999e-01,2.16128e-01,9.99999e-01
4.121510038e-01,2.22766e-01,9.99999e-01,9.99999e-01,9.99992e-01,2.22767e-01,9.99999e-01
4.142117588e-01,2.29462e-01,9.99999e-01,9.99999e-01,9.99947e-01,2.29474e-01,9.99999e-01
4.162828176e-01,2.36188e-01,9.99999e-01,9.99999e-01,9.99762e-01,2.36244e-01,9.99999e-01
4.183642317e-01,2.43039e-01,9.99999e-01,9.99999e-01,9.99858e-01,2.43074e-01,9.99999e-01
4.204560528e-01,2.49939e-01,9.99999e-01,9.99999e-01,9.99913e-01,2.49960e-01,9.99999e-01
4.225583331e-01,2.56892e-01,9.99999e-01,9.99999e-01,9.99967e-01,2.56900e-01,9.99999e-01
4.246711247e-01,2.63883e-01,9.99999e-01,9.99999e-01,9.99974e-01,2.63890e-01,9.99999e-01
4.267944804e-01,2.70916e-01,9.99999e-01,9.99999e-01,9.99961e-01,2.70926e-01,9.99999e-01
4.289284528e-01,2.77998e-01,9.99999e-01,9.99999e-01,9.99970e-01,2.78006e-01,9.99999e-01
4.310730950e-01,2.85121e-01,9.99999e-01,9.99999e-01,9.99987e-01,2.85125e-01,9.99999e-01
4.332284605e-01,2.92279e-01,9.99999e-01,9.99999e-01,9.99996e-01,2.92280e-01,9.99999e-01
4.353946028e-01,2.99468e-01,9.99999e-01,9.99999e-01,9.99998e-01,2.99469e-01,9.99999e-01
4.375715758e-01,3.06680e-01,9.99999e-01,9.99999e-01,9.99976e-01,3.06687e-01,9.99999e-01
4.397594337e-01,3.13866e-01,9.99999e-01,9.99999e-01,9.99793e-01,3.13931e-01,9.99999e-01
4.419582309e-01,3.20862e-01,9.99999e-01,9.99999e-01,9.98955e-01,3.21198e-01,9.99999e-01
4.441680220e-01,3.28213e-01,9.99999e-01,9.99999e-01,9.99173e-01,3.28485e-01,9.99999e-01
4.463888621e-01,3.35500e-01,9.99999e-01,9.99999e-01,9.99143e-01,3.35788e-01,9.99999e-01
4.486208064e-01,3.42921e-01,9.99999e-01,9.99999e-01,9.99465e-01,3.43104e-01,9.99999e-01
4.508639105e-01,3.50344e-01,9.99999e-01,9.99999e-01,9.99749e-01,3.50431e-01,9.99999e-01
4.531182300e-01,3.57730e-01,9.99999e-01,9.99999e-01,9.99900e-01,3.57765e-01,9.99999e-01
4.553838212e-01,3.65079e-01,9.99999e-01,9.99999e-01,9.99932e-01,3.65103e-01,9.99999e-01
4.576607403e-01,3.72431e-01,9.99999e-01,9.99999e-01,9.99968e-01,3.72442e-01,9.99999e-01
4.599490440e-01,3.79771e-01,9.99999e-01,9.99999e-01,9.99977e-01,3.79780e-01,9.99999e-01
4.622487892e-01,3.87111e-01,9.99999e-01,9.99999e-01,9.99995e-01,3.87112e-01,9.99999e-01
4.645600332e-01,3.94432e-01,9.99999e-01,9.99999e-01,9.99984e-01,3.94437e-01,9.99999e-01
4.668828333e-01,4.01652e-01,9.99999e-01,9.99999e-01,9.99748e-01,4.01752e-01,9.99999e-01
4.692172475e-01,4.08835e-01,9.99999e-01,9.99999e-01,9.99462e-01,4.09055e-01,9.99999e-01
4.715633337e-01,4.16195e-01,9.99999e-01,9.99999e-01,9.99648e-01,4.16341e-01,9.99999e-01
4.739211504e-01,4.23468e-01,9.99999e-01,9.99999e-01,9.99662e-01,4.23610e-01,9.99999e-01
4.762907561e-01,4.30783e-01,9.99999e-01,9.99999e-01,9.99824e-01,4.30859e-01,9.99999e-01
4.786722099e-01,4.38053e-01,9.99999e-01,9.99999e-01,9.99928e-01,4.38084e-01,9.99999e-01
4.810655710e-01,4.45275e-01,9.99999e-01,9.99999e-01,9.99978e-01,4.45285e-01,9.99999e-01
4.834708988e-01,4.52366e-01,9.99999e-01,9.99999e-01,9.99796e-01,4.52458e-01,9.99999e-01
4.858882533e-01,4.59426e-01,9.99999e-01,9.99999e-01,9.99618e-01,4.59601e-01,9.99999e-01
4.883176946e-01,4.66565e-01,9.99999e-01,9.99999e-01,9.99682e-01,4.66713e-01,9.99999e-01
4.907592831e-01,4.73655e-01,9.99999e-01,9.99999e-01,9.99711e-01,4.73791e-01,9.99999e-01
4.932130795e-01,4.80735e-01,9.99999e-01,9.99999e-01,9.99795e-01,4.80834e-01,9.99999e-01
4.956791449e-01,4.87786e-01,9.99999e-01,9.99999e-01,9.99891e-01,4.87839e-01,9.99999e-01
4.981575406e-01,4.94538e-01,9.99999e-01,9.99999e-01,9.99461e-01,4.94804e-01,9.99999e-01
5.006483283e-01,5.01027e-01,9.99999e-01,9.99999e-01,9.98609e-01,5.01729e-01,9.99990e-01
5.031515699e-01,5.04984e-01,9.99999e-01,9.99999e-01,9.92941e-01,5.08611e-01,9.99925e-01
5.056673278e-01,5.13476e-01,9.99999e-01,9.99999e-01,9.96258e-01,5.15449e-01,9.99914e-01
5.081956644e-01,5.19747e-01,9.99999e-01,9.99999e-01,9.95279e-01,5.22240e-01,9.99944e-01
5.107366428e-01,5.27292e-01,9.99999e-01,9.99999e-01,9.96809e-01,5.28985e-01,9.99989e-01
5.132903260e-01,5.34702e-01,9.99999e-01,9.99999e-01,9.98173e-01,5.35681e-01,9.99998e-01
5.158567776e-01,5.41908e-01,9.99999e-01,9.99999e-01,9.99227e-01,5.42326e-01,9.99999e-01
5.184360615e-01,5.48751e-01,9.99999e-01,9.99999e-01,9.99690e-01,5.48921e-01,9.99999e-01
5.210282418e-01,5.55399e-01,9.99999e-01,9.99999e-01,9.99884e-01,5.55463e-01,9.99999e-01
5.236333830e-01,5.61690e-01,9.99999e-01,9.99999e-01,9.99537e-01,5.61951e-01,9.99996e-01
5.262515499e-01,5.68218e-01,9.99999e-01,9.99999e-01,9.99710e-01,5.68385e-01,9.99995e-01
5.288828077e-01,5.74610e-01,9.99999e-01,9.99999e-01,9.99735e-01,5.74763e-01,9.99996e-01
5.315272217e-01,5.80949e-01,9.99999e-01,9.99999e-01,9.99765e-01,5.81085e-01,9.99998e-01
5.341848578e-01,5.87260e-01,9.99999e-01,9.99999e-01,9.99847e-01,5.87350e-01,9.99999e-01
5.368557821e-01,5.93237e-01,9.99999e-01,9.99999e-01,9.99463e-01,5.93556e-01,9.99998e-01
5.395400610e-01,5.98537e-01,9.99999e-01,9.99999e-01,9.98071e-01,5.99703e-01,9.99983e-01
5.422377613e-01,6.04240e-01,9.99999e-01,9.99999e-01,9.97485e-01,6.05791e-01,9.99954e-01
5.449489501e-01,6.10365e-01,9.99999e-01,9.99999e-01,9.97671e-01,6.11818e-01,9.99952e-01
5.476736949e-01,6.16490e-01,9.99999e-01,9.99999e-01,9.97927e-01,6.17784e-01,9.99976e-01
5.504120634e-01,6.22748e-01,9.99999e-01,9.99999e-01,9.98496e-01,6.23689e-01,9.99993e-01
5.531641237e-01,6.29056e-01,9.99999e-01,9.99999e-01,9.99242e-01,6.29533e-01,9.99998e-01
5.559299443e-01,6.35081e-01,9.99999e-01,9.99999e-01,9.99634e-01,6.35314e-01,9.99999e-01
5.587095940e-01,6.40885e-01,9.99999e-01,9.99999e-01,9.99771e-01,6.41032e-01,9.99999e-01
5.615031420e-01,6.46522e-01,9.99999e-01,9.99999e-01,9.99745e-01,6.46687e-01,9.99999e-01
5.643106577e-01,6.52091e-01,9.99999e-01,9.99999e-01,9.99713e-01,6.52279e-01,9.99997e-01
5.671322110e-01,6.55513e-01,9.99999e-01,9.99999e-01,9.96542e-01,6.57807e-01,9.99968e-01
5.699678720e-01,6.60726e-01,9.99999e-01,9.99999e-01,9.96256e-01,6.63272e-01,9.99904e-01
5.728177114e-01,6.66029e-01,9.99999e-01,9.99999e-01,9.96124e-01,6.68673e-01,9.99920e-01
5.756818000e-01,6.71577e-01,9.99999e-01,9.99999e-01,9.96438e-01,6.74010e-01,9.99950e-01
5.785602090e-01,6.77162e-01,9.99999e-01,9.99999e-01,9.96891e-01,6.79283e-01,9.99984e-01
5.814530100e-01,6.82353e-01,9.99999e-01,9.99999e-01,9.96882e-01,6.84491e-01,9.99992e-01
5.843602750e-01,6.87074e-01,9.99999e-01,9.99999e-01,9.96305e-01,6.89636e-01,9.99978e-01
5.872820764e-01,6.72835e-01,9.99999e-01,9.99999e-01,9.68720e-01,6.94716e-01,9.99774e-01
5.902184868e-01,6.72611e-01,9.99999e-01,9.99999e-01,9.61829e-01,6.99733e-01,9.99386e-01
5.931695792e-01,6.85262e-01,9.99999e-01,9.99999e-01,9.73017e-01,7.04685e-01,9.99402e-01
5.961354271e-01,6.88292e-01,9.99999e-01,9.99999e-01,9.70357e-01,7.09574e-01,9.99639e-01
5.991161043e-01,6.98791e-01,9.99999e-01,9.99999e-01,9.78254e-01,7.14399e-01,9.99894e-01
6.021116848e-01,7.10229e-01,9.99999e-01,9.99999e-01,9.87593e-01,7.19160e-01,9.99986e-01
6.051222432e-01,7.19299e-01,9.99999e-01,9.99999e-01,9.93701e-01,7.23859e-01,9.99998e-01
6.081478544e-01,7.26513e-01,9.99999e-01,9.99999e-01,9.97280e-01,7.28494e-01,9.99999e-01
6.111885937e-01,7.32221e-01,9.99999e-01,9.99999e-01,9.98846e-01,7.33067e-01,9.99999e-01
6.142445367e-01,7.37197e-01,9.99999e-01,9.99999e-01,9.99485e-01,7.37577e-01,9.99999e-01
6.173157594e-01,7.41814e-01,9.99999e-01,9.99999e-01,9.99716e-01,7.42025e-01,9.99999e-01
6.204023382e-01,7.46232e-01,9.99999e-01,9.99999e-01,9.99760e-01,7.46411e-01,9.99999e-01
6.235043498e-01,7.49950e-01,9.99999e-01,9.99999e-01,9.98955e-01,7.50735e-01,9.99996e-01
6.266218716e-01,7.50762e-01,9.99999e-01,9.99999e-01,9.94426e-01,7.54999e-01,9.99960e-01
6.297549810e-01,7.57588e-01,9.99999e-01,9.99999e-01,9.97952e-01,7.59202e-01,9.99921e-01
6.329037559e-01,7.60204e-01,9.99999e-01,9.99999e-01,9.95948e-01,7.63344e-01,9.99936e-01
6.360682746e-01,7.64758e-01,9.99999e-01,9.99999e-01,9.96558e-01,7.67427e-01,9.99962e-01
6.392486160e-01,7.67994e-01,9.99999e-01,9.99999e-01,9.95535e-01,7.71450e-01,9.99983e-01
6.424448591e-01,7.70791e-01,9.99999e-01,9.99999e-01,9.94063e-01,7.75414e-01,9.99973e-01
6.456570834e-01,7.57977e-01,9.99999e-01,9.99999e-01,9.72763e-01,7.79320e-01,9.99845e-01
6.488853688e-01,7.67076e-01,9.99999e-01,9.99999e-01,9.79874e-01,7.83167e-01,9.99569e-01
6.521297956e-01,7.70558e-01,9.99999e-01,9.99999e-01,9.79514e-01,7.86957e-01,9.99638e-01
6.553904446e-01,7.74412e-01,9.99999e-01,9.99999e-01,9.79677e-01,7.90690e-01,9.99728e-01
6.586673968e-01,7.80368e-01,9.99999e-01,9.99999e-01,9.82463e-01,7.94367e-01,9.99911e-01
6.619607338e-01,7.89845e-01,9.99999e-01,9.99999e-01,9.89815e-01,7.97987e-01,9.99980e-01
6.652705375e-01,7.96800e-01,9.99999e-01,9.99999e-01,9.94080e-01,8.01552e-01,9.99989e-01
6.685968902e-01,8.02845e-01,9.99999e-01,9.99999e-01,9.97247e-01,8.05062e-01,9.99997e-01
6.719398746e-01,8.07485e-01,9.99999e-01,9.99999e-01,9.98722e-01,8.08517e-01,9.99999e-01
6.752995740e-01,8.11359e-01,9.99999e-01,9.99999e-01,9.99309e-01,8.11919e-01,9.99999e-01
6.786760719e-01,8.14457e-01,9.99999e-01,9.99999e-01,9.99007e-01,8.15267e-01,9.99998e-01
6.820694522e-01,8.17163e-01,9.99999e-01,9.99999e-01,9.98297e-01,8.18563e-01,9.99990e-01
6.854797995e-01,8.19988e-01,9.99999e-01,9.99999e-01,9.97805e-01,8.21806e-01,9.99980e-01
6.889071985e-01,8.20631e-01,9.99999e-01,9.99999e-01,9.94753e-01,8.24998e-01,9.99952e-01
6.923517345e-01,7.59584e-01,9.99999e-01,9.99999e-01,9.17598e-01,8.28139e-01,9.99583e-01
6.958134932e-01,7.93755e-01,9.99999e-01,9.99999e-01,9.55814e-01,8.31229e-01,9.99060e-01
6.992925606e-01,7.98760e-01,9.99999e-01,9.99999e-01,9.58226e-01,8.34270e-01,9.99173e-01
7.027890234e-01,7.93567e-01,9.99999e-01,9.99999e-01,9.48413e-01,8.37261e-01,9.99365e-01
7.063029686e-01,8.03301e-01,9.99999e-01,9.99999e-01,9.56379e-01,8.40204e-01,9.99684e-01
7.098344834e-01,8.07604e-01,9.99999e-01,9.99999e-01,9.58078e-01,8.43098e-01,9.99812e-01
7.133836558e-01,7.99374e-01,9.99999e-01,9.99999e-01,9.45297e-01,8.45945e-01,9.99628e-01
7.169505741e-01,5.48655e-01,9.99999e-01,9.99999e-01,6.48319e-01,8.48745e-01,9.97084e-01
7.205353270e-01,6.80980e-01,9.99999e-01,9.99999e-01,8.03871e-01,8.51499e-01,9.94862e-01
7.241380036e-01,6.44973e-01,9.99999e-01,9.99999e-01,7.58419e-01,8.54207e-01,9.95562e-01
7.277586936e-01,6.65304e-01,9.99999e-01,9.99999e-01,7.79262e-01,8.56870e-01,9.96370e-01
7.313974871e-01,6.55390e-01,9.99999e-01,9.99999e-01,7.63834e-01,8.59489e-01,9.98298e-01
7.350544745e-01,7.42981e-01,9.99999e-01,9.99999e-01,8.62373e-01,8.62063e-01,9.99408e-01
7.387297469e-01,7.74565e-01,9.99999e-01,9.99999e-01,8.96113e-01,8.64594e-01,9.99728e-01
7.424233956e-01,8.21529e-01,9.99999e-01,9.99999e-01,9.47512e-01,8.67083e-01,9.99947e-01
7.461355126e-01,8.41574e-01,9.99999e-01,9.99999e-01,9.67859e-01,8.69529e-01,9.99990e-01
7.498661902e-01,8.58743e-01,9.99999e-01,9.99999e-01,9.84874e-01,8.71933e-01,9.99996e-01
7.536155211e-01,8.67794e-01,9.99999e-01,9.99999e-01,9.92564e-01,8.74297e-01,9.99997e-01
7.573835987e-01,8.73257e-01,9.99999e-01,9.99999e-01,9.96164e-01,8.76620e-01,9.99998e-01
7.611705167e-01,8.76807e-01,9.99999e-01,9.99999e-01,9.97615e-01,8.78903e-01,9.99999e-01
7.649763693e-01,8.79831e-01,9.99999e-01,9.99999e-01,9.98506e-01,8.81146e-01,9.99999e-01
7.688012511e-01,8.82433e-01,9.99999e-01,9.99999e-01,9.98960e-01,8.83351e-01,9.99999e-01
7.726452574e-01,8.84761e-01,9.99999e-01,9.99999e-01,9.99145e-01,8.85518e-01,9.99999e-01
7.765084837e-01,8.86573e-01,9.99999e-01,9.99999e-01,9.98790e-01,8.87647e-01,9.99998e-01
7.803910261e-01,8.85099e-01,9.99999e-01,9.99999e-01,9.94789e-01,8.89739e-01,9.99994e-01
7.842929812e-01,8.75666e-01,9.99999e-01,9.99999e-01,9.81946e-01,8.91795e-01,9.99965e-01
7.882144461e-01,8.60494e-01,9.99999e-01,9.99999e-01,9.62942e-01,8.93814e-01,9.99768e-01
7.921555184e-01,8.77009e-01,9.99999e-01,9.99999e-01,9.79461e-01,8.95799e-01,9.99553e-01
7.961162960e-01,8.65293e-01,9.99999e-01,9.99999e-01,9.64261e-01,8.97748e-01,9.99571e-01
8.000968774e-01,8.61993e-01,9.99999e-01,9.99999e-01,9.58565e-01,8.99662e-01,9.99544e-01
8.040973618e-01,8.63933e-01,9.99999e-01,9.99999e-01,9.58627e-01,9.01543e-01,9.99638e-01
8.081178486e-01,8.22027e-01,9.99999e-01,9.99999e-01,9.10242e-01,9.03391e-01,9.99660e-01
8.121584379e-01,6.16138e-01,9.99999e-01,9.99999e-01,6.81568e-01,9.05206e-01,9.98668e-01
8.162192301e-01,5.72726e-01,9.99999e-01,9.99999e-01,6.34631e-01,9.06988e-01,9.95001e-01
8.203003262e-01,7.29204e-01,9.99999e-01,9.99999e-01,8.07157e-01,9.08739e-01,9.94149e-01
8.244018279e-01,6.75541e-01,9.99999e-01,9.99999e-01,7.45451e-01,9.10458e-01,9.95340e-01
8.285238370e-01,6.90290e-01,9.99999e-01,9.99999e-01,7.59555e-01,9.12147e-01,9.96338e-01
8.326664562e-01,6.91507e-01,9.99999e-01,9.99999e-01,7.57882e-01,9.13805e-01,9.98484e-01
8.368297885e-01,7.48001e-01,9.99999e-01,9.99999e-01,8.17383e-01,9.15433e-01,9.99653e-01
8.410139374e-01,8.12824e-01,9.99999e-01,9.99999e-01,8.86542e-01,9.17033e-01,9.99797e-01
8.452190071e-01,8.65600e-01,9.99999e-01,9.99999e-01,9.42414e-01,9.18603e-01,9.99878e-01
8.494451021e-01,8.88947e-01,9.99999e-01,9.99999e-01,9.66187e-01,9.20145e-01,9.99902e-01
8.536923276e-01,9.03007e-01,9.99999e-01,9.99999e-01,9.79825e-01,9.21658e-01,9.99935e-01
8.579607893e-01,9.11636e-01,9.99999e-01,9.99999e-01,9.87549e-01,9.23145e-01,9.99982e-01
8.622505932e-01,9.17262e-01,9.99999e-01,9.99999e-01,9.92061e-01,9.24604e-01,9.99997e-01
8.665618462e-01,9.21493e-01,9.99999e-01,9.99999e-01,9.95093e-01,9.26037e-01,9.99998e-01
8.708946554e-01,9.22240e-01,9.99999e-01,9.99999e-01,9.94391e-01,9.27443e-01,9.99996e-01
8.752491287e-01,9.21850e-01,9.99999e-01,9.99999e-01,9.92498e-01,9.28824e-01,9.99991e-01
8.796253743e-01,9.20530e-01,9.99999e-01,9.99999e-01,9.89648e-01,9.30180e-01,9.99976e-01
8.840235012e-01,9.20435e-01,9.99999e-01,9.99999e-01,9.88180e-01,9.31511e-01,9.99927e-01
8.884436187e-01,8.93980e-01,9.99999e-01,9.99999e-01,9.58563e-01,9.32817e-01,9.99793e-01
8.928858368e-01,6.05389e-01,9.99999e-01,9.99999e-01,6.48869e-01,9.34099e-01,9.98811e-01
8.973502660e-01,4.34965e-01,9.99999e-01,9.99999e-01,4.67868e-01,9.35358e-01,9.93922e-01
9.018370173e-01,6.28300e-01,9.99999e-01,9.99999e-01,6.77296e-01,9.36593e-01,9.90460e-01
9.063462024e-01,6.59455e-01,9.99999e-01,9.99999e-01,7.09134e-01,9.37806e-01,9.91615e-01
9.108779334e-01,5.44613e-01,9.99999e-01,9.99999e-01,5.85091e-01,9.38996e-01,9.91288e-01
9.154323231e-01,5.03542e-01,9.99999e-01,9.99999e-01,5.39476e-01,9.40164e-01,9.92794e-01
9.200094847e-01,5.80805e-01,9.99999e-01,9.99999e-01,6.19518e-01,9.41311e-01,9.95960e-01
9.246095321e-01,4.70619e-01,9.99999e-01,9.99999e-01,5.01698e-01,9.42436e-01,9.95346e-01
9.292325798e-01,2.76940e-02,9.99999e-01,9.99999e-01,2.98898e-02,9.43540e-01,9.81976e-01
9.338787427e-01,5.01909e-03,9.99999e-01,9.99999e-01,5.72822e-03,9.44624e-01,9.27569e-01
9.385481364e-01,1.05339e-01,9.99999e-01,9.99999e-01,1.21809e-01,9.45688e-01,9.14457e-01
9.432408771e-01,5.74668e-02,9.99999e-01,9.99999e-01,6.55685e-02,9.46731e-01,9.25752e-01
9.479570815e-01,1.58165e-02,9.99999e-01,9.99999e-01,1.77697e-02,9.47755e-01,9.39142e-01
9.526968669e-01,3.84605e-02,9.99999e-01,9.99999e-01,4.21201e-02,9.48760e-01,9.62426e-01
9.574603512e-01,4.50961e-02,9.99999e-01,9.99999e-01,4.84149e-02,9.49747e-01,9.80734e-01
9.622476530e-01,7.34858e-02,9.99999e-01,9.99999e-01,7.83420e-02,9.50714e-01,9.86638e-01
9.670588912e-01,2.09432e-01,9.99999e-01,9.99999e-01,2.22103e-01,9.51664e-01,9.90842e-01
9.718941857e-01,3.40727e-01,9.99999e-01,9.99999e-01,3.60113e-01,9.52596e-01,9.93250e-01
9.767536566e-01,4.04967e-01,9.99999e-01,9.99999e-01,4.26915e-01,9.53510e-01,9.94837e-01
9.816374249e-01,5.00721e-01,9.99999e-01,9.99999e-01,5.25580e-01,9.54407e-01,9.98210e-01
9.865456120e-01,6.35982e-01,9.99999e-01,9.99999e-01,6.65997e-01,9.55287e-01,9.99626e-01
9.914783401e-01,7.42180e-01,9.99999e-01,9.99999e-01,7.76296e-01,9.56151e-01,9.99896e-01
9.964357318e-01,8.33518e-01,9.99999e-01,9.99999e-01,8.71023e-01,9.56998e-01,9.99939e-01
1.001417910e+00,8.81486e-01,9.99999e-01,9.99999e-01,9.20380e-01,9.57829e-01,9.99907e-01
1.006425000e+00,9.14235e-01,9.99999e-01,9.99999e-01,9.53799e-01,9.58645e-01,9.99867e-01
1.011457125e+00,9.31535e-01,9.99999e-01,9.99999e-01,9.71028e-01,9.59445e-01,9.99877e-01
1.016514411e+00,9.41185e-01,9.99999e-01,9.99999e-01,9.80250e-01,9.60229e-01,9.99913e-01
1.021596983e+00,9.45771e-01,9.99999e-01,9.99999e-01,9.84238e-01,9.60999e-01,9.99912e-01
1.026704968e+00,9.49860e-01,9.99999e-01,9.99999e-01,9.87688e-01,9.61755e-01,9.99941e-01
1.031838492e+00,9.53846e-01,9.99999e-01,9.99999e-01,9.91027e-01,9.62496e-01,9.99983e-01
1.036997685e+00,9.58086e-01,9.99999e-01,9.99999e-01,9.94668e-01,9.63223e-01,9.99997e-01
1.042182673e+00,9.57824e-01,9.99999e-01,9.99999e-01,9.93660e-01,9.63936e-01,9.99998e-01
1.047393587e+00,9.56523e-01,9.99999e-01,9.99999e-01,9.91590e-01,9.64636e-01,9.99998e-01
1.052630555e+00,9.54207e-01,9.99999e-01,9.99999e-01,9.88488e-01,9.65322e-01,9.99996e-01
1.057893707e+00,9.47520e-01,9.99999e-01,9.99999e-01,9.80880e-01,9.65995e-01,9.99992e-01
1.063183176e+00,9.36423e-01,9.99999e-01,9.99999e-01,9.68740e-01,9.66655e-01,9.99982e-01
1.068499092e+00,9.17187e-01,9.99999e-01,9.99999e-01,9.48223e-01,9.67303e-01,9.99963e-01
1.073841587e+00,9.09765e-01,9.99999e-01,9.99999e-01,9.39973e-01,9.67939e-01,9.99921e-01
1.079210795e+00,8.94192e-01,9.99999e-01,9.99999e-01,9.23412e-01,9.68562e-01,9.99786e-01
1.084606849e+00,8.59087e-01,9.99999e-01,9.99999e-01,8.86865e-01,9.69173e-01,9.99487e-01
1.090029883e+00,8.16780e-01,9.99999e-01,9.99999e-01,8.43133e-01,9.69773e-01,9.98938e-01
1.095480033e+00,6.09244e-01,9.99999e-01,9.99999e-01,6.29059e-01,9.70361e-01,9.98080e-01
1.100957433e+00,3.11479e-01,9.99999e-01,9.99999e-01,3.21938e-01,9.70938e-01,9.96470e-01
1.106462220e+00,7.17847e-02,9.99999e-01,9.99999e-01,7.43348e-02,9.71503e-01,9.94019e-01
1.111994531e+00,4.88096e-03,9.99999e-01,9.99999e-01,5.10184e-03,9.72058e-01,9.84203e-01
1.117554504e+00,3.68853e-04,9.99999e-01,9.99999e-01,4.01683e-04,9.72603e-01,9.44134e-01
1.123142276e+00,4.78412e-03,9.99999e-01,9.99999e-01,5.63421e-03,9.73136e-01,8.72559e-01
1.128757988e+00,1.59403e-02,9.99999e-01,9.99999e-01,1.91681e-02,9.73660e-01,8.54100e-01
1.134401778e+00,9.26212e-03,9.99999e-01,9.99999e-01,1.08721e-02,9.74173e-01,8.74503e-01
1.140073787e+00,6.69653e-02,9.99999e-01,9.99999e-01,7.64751e-02,9.74677e-01,8.98397e-01
1.145774156e+00,9.96340e-03,9.99999e-01,9.99999e-01,1.12699e-02,9.75171e-01,9.06582e-01
1.151503026e+00,5.43967e-03,9.99999e-01,9.99999e-01,5.88848e-03,9.75655e-01,9.46830e-01
1.157260541e+00,6.90741e-03,9.99999e-01,9.99999e-01,7.19285e-03,9.76130e-01,9.83796e-01
1.163046844e+00,2.44292e-02,9.99999e-01,9.99999e-01,2.51307e-02,9.76596e-01,9.95380e-01
1.168862078e+00,6.49959e-02,9.99999e-01,9.99999e-01,6.66811e-02,9.77053e-01,9.97617e-01
1.174706389e+00,1.77966e-01,9.99999e-01,9.99999e-01,1.82638e-01,9.77501e-01,9.96843e-01
1.180579921e+00,3.38924e-01,9.99999e-01,9.99999e-01,3.48229e-01,9.77941e-01,9.95230e-01
1.186482820e+00,5.28750e-01,9.99999e-01,9.99999e-01,5.43096e-01,9.78372e-01,9.95104e-01
1.192415234e+00,6.80666e-01,9.99999e-01,9.99999e-01,6.97972e-01,9.78794e-01,9.96331e-01
1.198377311e+00,7.21279e-01,9.99999e-01,9.99999e-01,7.39154e-01,9.79209e-01,9.96534e-01
1.204369197e+00,7.35748e-01,9.99999e-01,9.99999e-01,7.53420e-01,9.79615e-01,9.96864e-01
1.210391043e+00,7.44739e-01,9.99999e-01,9.99999e-01,7.61379e-01,9.80014e-01,9.98091e-01
1.216442998e+00,7.76344e-01,9.99999e-01,9.99999e-01,7.92787e-01,9.80405e-01,9.98830e-01
1.222525213e+00,8.17153e-01,9.99999e-01,9.99999e-01,8.33765e-01,9.80788e-01,9.99273e-01
1.228637839e+00,8.64373e-01,9.99999e-01,9.99999e-01,8.81264e-01,9.81164e-01,9.99661e-01
