#,Wave/freq,Total,N2,O2,H2O,Rayleigh,CIA
4.000000000e-01,6.98048e-01,9.99999e-01,9.99999e-01,9.99959e-01,6.98076e-01,9.99999e-01
4.020000000e-01,7.03037e-01,9.99999e-01,9.99999e-01,9.99974e-01,7.03055e-01,9.99999e-01
4.040100000e-01,7.07957e-01,9.99999e-01,9.99999e-01,9.99988e-01,7.07964e-01,9.99999e-01
4.060300500e-01,7.12809e-01,9.99999e-01,9.99999e-01,9.99997e-01,7.12810e-01,9.99999e-01
4.080602003e-01,7.17592e-01,9.99999e-01,9.99999e-01,9.99998e-01,7.17593e-01,9.99999e-01
4.101005013e-01,7.22312e-01,9.99999e-01,9.99999e-01,9.99999e-01,7.22312e-01,9.99999e-01
4.121510038e-01,7.26967e-01,9.99999e-01,9.99999e-01,9.99997e-01,7.26968e-01,9.99999e-01
4.142117588e-01,7.31553e-01,9.99999e-01,9.99999e-01,9.99988e-01,7.31561e-01,9.99999e-01
4.162828176e-01,7.36055e-01,9.99999e-01,9.99999e-01,9.99949e-01,7.36092e-01,9.99999e-01
4.183642317e-01,7.40539e-01,9.99999e-01,9.99999e-01,9.99969e-01,7.40561e-01,9.99999e-01
4.204560528e-01,7.44954e-01,9.99999e-01,9.99999e-01,9.99981e-01,7.44967e-01,9.99999e-01
4.225583331e-01,7.49307e-01,9.99999e-01,9.99999e-01,9.99992e-01,7.49312e-01,9.99999e-01
4.246711247e-01,7.53592e-01,9.99999e-01,9.99999e-01,9.99993e-01,7.53596e-01,9.99999e-01
4.267944804e-01,7.57812e-01,9.99999e-01,9.99999e-01,9.99991e-01,7.57818e-01,9.99999e-01
4.289284528e-01,7.61976e-01,9.99999e-01,9.99999e-01,9.99993e-01,7.61981e-01,9.99999e-01
4.310730950e-01,7.66081e-01,9.99999e-01,9.99999e-01,9.99996e-01,7.66083e-01,9.99999e-01
4.332284605e-01,7.70125e-01,9.99999e-01,9.99999e-01,9.99998e-01,7.70126e-01,9.99999e-01
4.353946028e-01,7.74109e-01,9.99999e-01,9.99999e-01,9.99999e-01,7.74110e-01,9.99999e-01
4.375715758e-01,7.78031e-01,9.99999e-01,9.99999e-01,9.99994e-01,7.78035e-01,9.99999e-01
4.397594337e-01,7.81866e-01,9.99999e-01,9.99999e-01,9.99954e-01,7.81901e-01,9.99999e-01
4.419582309e-01,7.85531e-01,9.99999e-01,9.99999e-01,9.99771e-01,7.85710e-01,9.99999e-01
4.441680220e-01,7.89325e-01,9.99999e-01,9.99999e-01,9.99826e-01,7.89462e-01,9.99999e-01
4.463888621e-01,7.93013e-01,9.99999e-01,9.99999e-01,9.99817e-01,7.93157e-01,9.99999e-01
4.486208064e-01,7.96706e-01,9.99999e-01,9.99999e-01,9.99887e-01,7.96796e-01,9.99999e-01
4.508639105e-01,8.00337e-01,9.99999e-01,9.99999e-01,9.99946e-01,8.00379e-01,9.99999e-01
4.531182300e-01,8.03890e-01,9.99999e-01,9.99999e-01,9.99978e-01,8.03907e-01,9.99999e-01
4.553838212e-01,8.07369e-01,9.99999e-01,9.99999e-01,9.99985e-01,8.07381e-01,9.99999e-01
4.576607403e-01,8.10795e-01,9.99999e-01,9.99999e-01,9.99993e-01,8.10800e-01,9.99999e-01
4.599490440e-01,8.14162e-01,9.99999e-01,9.99999e-01,9.99994e-01,8.14166e-01,9.99999e-01
4.622487892e-01,8.17478e-01,9.99999e-01,9.99999e-01,9.99998e-01,8.17479e-01,9.99999e-01
4.645600332e-01,8.20737e-01,9.99999e-01,9.99999e-01,9.99996e-01,8.20739e-01,9.99999e-01
4.668828333e-01,8.23904e-01,9.99999e-01,9.99999e-01,9.99945e-01,8.23948e-01,9.99999e-01
4.692172475e-01,8.27012e-01,9.99999e-01,9.99999e-01,9.99885e-01,8.27106e-01,9.99999e-01
4.715633337e-01,8.30151e-01,9.99999e-01,9.99999e-01,9.99924e-01,8.30213e-01,9.99999e-01
4.739211504e-01,8.33211e-01,9.99999e-01,9.99999e-01,9.99928e-01,8.33270e-01,9.99999e-01
4.762907561e-01,8.36247e-01,9.99999e-01,9.99999e-01,9.99962e-01,8.36277e-01,9.99999e-01
4.786722099e-01,8.39223e-01,9.99999e-01,9.99999e-01,9.99984e-01,8.39236e-01,9.99999e-01
4.810655710e-01,8.42143e-01,9.99999e-01,9.99999e-01,9.99994e-01,8.42146e-01,9.99999e-01
4.834708988e-01,8.44971e-01,9.99999e-01,9.99999e-01,9.99954e-01,8.45009e-01,9.99999e-01
4.858882533e-01,8.47756e-01,9.99999e-01,9.99999e-01,9.99919e-01,8.47825e-01,9.99999e-01
4.883176946e-01,8.50536e-01,9.99999e-01,9.99999e-01,9.99931e-01,8.50594e-01,9.99999e-01
4.907592831e-01,8.53265e-01,9.99999e-01,9.99999e-01,9.99938e-01,8.53317e-01,9.99999e-01
4.932130795e-01,8.55958e-01,9.99999e-01,9.99999e-01,9.99956e-01,8.55995e-01,9.99999e-01
4.956791449e-01,8.58608e-01,9.99999e-01,9.99999e-01,9.99976e-01,8.58628e-01,9.99999e-01
4.981575406e-01,8.61117e-01,9.99999e-01,9.99999e-01,9.99884e-01,8.61217e-01,9.99999e-01
5.006483283e-01,8.63500e-01,9.99999e-01,9.99999e-01,9.99698e-01,8.63762e-01,9.99997e-01
5.031515699e-01,8.64942e-01,9.99999e-01,9.99999e-01,9.98488e-01,8.66264e-01,9.99983e-01
5.056673278e-01,8.68019e-01,9.99999e-01,9.99999e-01,9.99205e-01,8.68724e-01,9.99981e-01
5.081956644e-01,8.70261e-01,9.99999e-01,9.99999e-01,9.98998e-01,8.71143e-01,9.99988e-01
5.107366428e-01,8.72928e-01,9.99999e-01,9.99999e-01,9.99324e-01,8.73519e-01,9.99997e-01
5.132903260e-01,8.75518e-01,9.99999e-01,9.99999e-01,9.99614e-01,8.75856e-01,9.99999e-01
5.158567776e-01,8.78009e-01,9.99999e-01,9.99999e-01,9.99837e-01,8.78152e-01,9.99999e-01
5.184360615e-01,8.80351e-01,9.99999e-01,9.99999e-01,9.99934e-01,8.80409e-01,9.99999e-01
5.210282418e-01,8.82605e-01,9.99999e-01,9.99999e-01,9.99975e-01,8.82626e-01,9.99999e-01
5.236333830e-01,8.84718e-01,9.99999e-01,9.99999e-01,9.99901e-01,8.84806e-01,9.99998e-01
5.262515499e-01,8.86892e-01,9.99999e-01,9.99999e-01,9.99938e-01,8.86947e-01,9.99998e-01
5.288828077e-01,8.89001e-01,9.99999e-01,9.99999e-01,9.99942e-01,8.89052e-01,9.99998e-01
5.315272217e-01,8.91075e-01,9.99999e-01,9.99999e-01,9.99950e-01,8.91119e-01,9.99999e-01
5.341848578e-01,8.93121e-01,9.99999e-01,9.99999e-01,9.99966e-01,8.93151e-01,9.99999e-01
5.368557821e-01,8.95043e-01,9.99999e-01,9.99999e-01,9.99884e-01,8.95146e-01,9.99999e-01
5.395400610e-01,8.96728e-01,9.99999e-01,9.99999e-01,9.99580e-01,8.97107e-01,9.99995e-01
5.422377613e-01,8.98546e-01,9.99999e-01,9.99999e-01,9.99467e-01,8.99033e-01,9.99989e-01
5.449489501e-01,9.00467e-01,9.99999e-01,9.99999e-01,9.99500e-01,9.00925e-01,9.99989e-01
5.476736949e-01,9.02385e-01,9.99999e-01,9.99999e-01,9.99562e-01,9.02784e-01,9.99994e-01
5.504120634e-01,9.04321e-01,9.99999e-01,9.99999e-01,9.99681e-01,9.04609e-01,9.99998e-01
5.531641237e-01,9.06257e-01,9.99999e-01,9.99999e-01,9.99839e-01,9.06402e-01,9.99999e-01
5.559299443e-01,9.08094e-01,9.99999e-01,9.99999e-01,9.99922e-01,9.08163e-01,9.99999e-01
5.587095940e-01,9.09849e-01,9.99999e-01,9.99999e-01,9.99950e-01,9.09893e-01,9.99999e-01
5.615031420e-01,9.11542e-01,9.99999e-01,9.99999e-01,9.99945e-01,9.11592e-01,9.99999e-01
5.643106577e-01,9.13203e-01,9.99999e-01,9.99999e-01,9.99937e-01,9.13260e-01,9.99998e-01
5.671322110e-01,9.14195e-01,9.99999e-01,9.99999e-01,9.99237e-01,9.14898e-01,9.99992e-01
5.699678720e-01,9.15770e-01,9.99999e-01,9.99999e-01,9.99215e-01,9.16507e-01,9.99979e-01
5.728177114e-01,9.17311e-01,9.99999e-01,9.99999e-01,9.99171e-01,9.18087e-01,9.99982e-01
5.756818000e-01,9.18932e-01,9.99999e-01,9.99999e-01,9.99241e-01,9.19638e-01,9.99989e-01
5.785602090e-01,9.20551e-01,9.99999e-01,9.99999e-01,9.99340e-01,9.21161e-01,9.99996e-01
5.814530100e-01,9.22043e-01,9.99999e-01,9.99999e-01,9.99336e-01,9.22656e-01,9.99998e-01
5.843602750e-01,9.23383e-01,9.99999e-01,9.99999e-01,9.99201e-01,9.24124e-01,9.99995e-01
5.872820764e-01,9.19178e-01,9.99999e-01,9.99999e-01,9.93145e-01,9.25566e-01,9.99951e-01
5.902184868e-01,9.19246e-01,9.99999e-01,9.99999e-01,9.91784e-01,9.26981e-01,9.99869e-01
5.931695792e-01,9.22844e-01,9.99999e-01,9.99999e-01,9.94171e-01,9.28370e-01,9.99874e-01
5.961354271e-01,9.23744e-01,9.99999e-01,9.99999e-01,9.93627e-01,9.29734e-01,9.99927e-01
5.991161043e-01,9.26729e-01,9.99999e-01,9.99999e-01,9.95355e-01,9.31073e-01,9.99977e-01
6.021116848e-01,9.29930e-01,9.99999e-01,9.99999e-01,9.97366e-01,9.32388e-01,9.99997e-01
6.051222432e-01,9.32434e-01,9.99999e-01,9.99999e-01,9.98667e-01,9.33678e-01,9.99999e-01
6.081478544e-01,9.34406e-01,9.99999e-01,9.99999e-01,9.99424e-01,9.34944e-01,9.99999e-01
6.111885937e-01,9.35960e-01,9.99999e-01,9.99999e-01,9.99757e-01,9.36187e-01,9.99999e-01
6.142445367e-01,9.37306e-01,9.99999e-01,9.99999e-01,9.99890e-01,9.37407e-01,9.99999e-01
6.173157594e-01,9.38549e-01,9.99999e-01,9.99999e-01,9.99939e-01,9.38605e-01,9.99999e-01
6.204023382e-01,9.39732e-01,9.99999e-01,9.99999e-01,9.99948e-01,9.39780e-01,9.99999e-01
6.235043498e-01,9.40718e-01,9.99999e-01,9.99999e-01,9.99770e-01,9.40934e-01,9.99998e-01
6.266218716e-01,9.40939e-01,9.99999e-01,9.99999e-01,9.98810e-01,9.42066e-01,9.99991e-01
6.297549810e-01,9.42750e-01,9.99999e-01,9.99999e-01,9.99563e-01,9.43177e-01,9.99982e-01
6.329037559e-01,9.43445e-01,9.99999e-01,9.99999e-01,9.99141e-01,9.44268e-01,9.99986e-01
6.360682746e-01,9.44636e-01,9.99999e-01,9.99999e-01,9.99264e-01,9.45338e-01,9.99991e-01
6.392486160e-01,9.45486e-01,9.99999e-01,9.99999e-01,9.99049e-01,9.46388e-01,9.99995e-01
6.424448591e-01,9.46197e-01,9.99999e-01,9.99999e-01,9.98715e-01,9.47419e-01,9.99993e-01
6.456570834e-01,9.42753e-01,9.99999e-01,9.99999e-01,9.94049e-01,9.48430e-01,9.99963e-01
6.488853688e-01,9.45252e-01,9.99999e-01,9.99999e-01,9.95697e-01,9.49423e-01,9.99908e-01
6.521297956e-01,9.46159e-01,9.99999e-01,9.99999e-01,9.95616e-01,9.50396e-01,9.99923e-01
6.553904446e-01,9.47123e-01,9.99999e-01,9.99999e-01,9.95610e-01,9.51352e-01,9.99943e-01
6.586673968e-01,9.48710e-01,9.99999e-01,9.99999e-01,9.96259e-01,9.52290e-01,9.99980e-01
6.619607338e-01,9.51219e-01,9.99999e-01,9.99999e-01,9.97914e-01,9.53210e-01,9.99995e-01
6.652705375e-01,9.52916e-01,9.99999e-01,9.99999e-01,9.98748e-01,9.54112e-01,9.99997e-01
6.685968902e-01,9.54490e-01,9.99999e-01,9.99999e-01,9.99468e-01,9.54998e-01,9.99999e-01
6.719398746e-01,9.55610e-01,9.99999e-01,9.99999e-01,9.99730e-01,9.55867e-01,9.99999e-01
6.752995740e-01,9.56583e-01,9.99999e-01,9.99999e-01,9.99857e-01,9.56719e-01,9.99999e-01
6.786760719e-01,9.57351e-01,9.99999e-01,9.99999e-01,9.99786e-01,9.57556e-01,9.99999e-01
6.820694522e-01,9.58024e-01,9.99999e-01,9.99999e-01,9.99633e-01,9.58377e-01,9.99997e-01
6.854797995e-01,9.58729e-01,9.99999e-01,9.99999e-01,9.99531e-01,9.59182e-01,9.99995e-01
6.889071985e-01,9.58855e-01,9.99999e-01,9.99999e-01,9.98846e-01,9.59972e-01,9.99989e-01
6.923517345e-01,9.42912e-01,9.99999e-01,9.99999e-01,9.81523e-01,9.60746e-01,9.99911e-01
6.958134932e-01,9.52273e-01,9.99999e-01,9.99999e-01,9.90590e-01,9.61507e-01,9.99803e-01
6.992925606e-01,9.53264e-01,9.99999e-01,9.99999e-01,9.90833e-01,9.62252e-01,9.99822e-01
7.027890234e-01,9.52071e-01,9.99999e-01,9.99999e-01,9.88800e-01,9.62984e-01,9.99864e-01
7.063029686e-01,9.54546e-01,9.99999e-01,9.99999e-01,9.90564e-01,9.63702e-01,9.99932e-01
7.098344834e-01,9.55636e-01,9.99999e-01,9.99999e-01,9.90945e-01,9.64406e-01,9.99959e-01
7.133836558e-01,9.53226e-01,9.99999e-01,9.99999e-01,9.87777e-01,9.65096e-01,9.99920e-01
7.169505741e-01,8.75196e-01,9.99999e-01,9.99999e-01,9.06774e-01,9.65774e-01,9.99378e-01
7.205353270e-01,9.21147e-01,9.99999e-01,9.99999e-01,9.54179e-01,9.66439e-01,9.98904e-01
7.241380036e-01,9.09214e-01,9.99999e-01,9.99999e-01,9.41042e-01,9.67090e-01,9.99054e-01
7.277586936e-01,9.15456e-01,9.99999e-01,9.99999e-01,9.46714e-01,9.67730e-01,9.99226e-01
7.313974871e-01,9.13598e-01,9.99999e-01,9.99999e-01,9.43792e-01,9.68357e-01,9.99637e-01
7.350544745e-01,9.38642e-01,9.99999e-01,9.99999e-01,9.68819e-01,9.68972e-01,9.99873e-01
7.387297469e-01,9.47193e-01,9.99999e-01,9.99999e-01,9.76970e-01,9.69576e-01,9.99941e-01
7.424233956e-01,9.59192e-01,9.99999e-01,9.99999e-01,9.88695e-01,9.70168e-01,9.99989e-01
7.461355126e-01,9.64071e-01,9.99999e-01,9.99999e-01,9.93122e-01,9.70748e-01,9.99997e-01
7.498661902e-01,9.68213e-01,9.99999e-01,9.99999e-01,9.96803e-01,9.71317e-01,9.99998e-01
7.536155211e-01,9.70346e-01,9.99999e-01,9.99999e-01,9.98425e-01,9.71876e-01,9.99999e-01
7.573835987e-01,9.71636e-01,9.99999e-01,9.99999e-01,9.99189e-01,9.72424e-01,9.99999e-01
7.611705167e-01,9.72471e-01,9.99999e-01,9.99999e-01,9.99496e-01,9.72961e-01,9.99999e-01
7.649763693e-01,9.73180e-01,9.99999e-01,9.99999e-01,9.99683e-01,9.73488e-01,9.99999e-01
7.688012511e-01,9.73790e-01,9.99999e-01,9.99999e-01,9.99779e-01,9.74005e-01,9.99999e-01
7.726452574e-01,9.74335e-01,9.99999e-01,9.99999e-01,9.99818e-01,9.74512e-01,9.99999e-01
7.765084837e-01,9.74755e-01,9.99999e-01,9.99999e-01,9.99739e-01,9.75009e-01,9.99999e-01
7.803910261e-01,9.74396e-01,9.99999e-01,9.99999e-01,9.98872e-01,9.75496e-01,9.99998e-01
7.842929812e-01,9.72131e-01,9.99999e-01,9.99999e-01,9.96068e-01,9.75974e-01,9.99992e-01
7.882144461e-01,9.68575e-01,9.99999e-01,9.99999e-01,9.91996e-01,9.76443e-01,9.99944e-01
7.921555184e-01,9.72543e-01,9.99999e-01,9.99999e-01,9.95631e-01,9.76903e-01,9.99903e-01
7.961162960e-01,9.69628e-01,9.99999e-01,9.99999e-01,9.92184e-01,9.77354e-01,9.99908e-01
8.000968774e-01,9.68940e-01,9.99999e-01,9.99999e-01,9.91038e-01,9.77796e-01,9.99902e-01
8.040973618e-01,9.69376e-01,9.99999e-01,9.99999e-01,9.91020e-01,9.78230e-01,9.99925e-01
8.081178486e-01,9.58752e-01,9.99999e-01,9.99999e-01,9.79735e-01,9.78656e-01,9.99924e-01
8.121584379e-01,8.99022e-01,9.99999e-01,9.99999e-01,9.18497e-01,9.79073e-01,9.99716e-01
8.162192301e-01,8.85635e-01,9.99999e-01,9.99999e-01,9.05151e-01,9.79482e-01,9.98934e-01
8.203003262e-01,9.30644e-01,9.99999e-01,9.99999e-01,9.50935e-01,9.79883e-01,9.98752e-01
8.244018279e-01,9.14877e-01,9.99999e-01,9.99999e-01,9.34212e-01,9.80276e-01,9.99006e-01
8.285238370e-01,9.22821e-01,9.99999e-01,9.99999e-01,9.41751e-01,9.80662e-01,9.99219e-01
8.326664562e-01,9.23304e-01,9.99999e-01,9.99999e-01,9.41450e-01,9.81040e-01,9.99677e-01
8.368297885e-01,9.39972e-01,9.99999e-01,9.99999e-01,9.57845e-01,9.81411e-01,9.99925e-01
8.410139374e-01,9.56939e-01,9.99999e-01,9.99999e-01,9.74744e-01,9.81775e-01,9.99956e-01
8.452190071e-01,9.69884e-01,9.99999e-01,9.99999e-01,9.87554e-01,9.82132e-01,9.99973e-01
8.494451021e-01,9.75319e-01,9.99999e-01,9.99999e-01,9.92729e-01,9.82482e-01,9.99978e-01
8.536923276e-01,9.78598e-01,9.99999e-01,9.99999e-01,9.95711e-01,9.82825e-01,9.99986e-01
8.579607893e-01,9.80551e-01,9.99999e-01,9.99999e-01,9.97348e-01,9.83161e-01,9.99996e-01
8.622505932e-01,9.81838e-01,9.99999e-01,9.99999e-01,9.98319e-01,9.83491e-01,9.99998e-01
8.665618462e-01,9.82787e-01,9.99999e-01,9.99999e-01,9.98955e-01,9.83814e-01,9.99999e-01
8.708946554e-01,9.82951e-01,9.99999e-01,9.99999e-01,9.98801e-01,9.84131e-01,9.99998e-01
8.752491287e-01,9.82864e-01,9.99999e-01,9.99999e-01,9.98398e-01,9.84442e-01,9.99997e-01
8.796253743e-01,9.82551e-01,9.99999e-01,9.99999e-01,9.97773e-01,9.84747e-01,9.99994e-01
8.840235012e-01,9.82530e-01,9.99999e-01,9.99999e-01,9.97460e-01,9.85046e-01,9.99984e-01
8.884436187e-01,9.76008e-01,9.99999e-01,9.99999e-01,9.90572e-01,9.85340e-01,9.99955e-01
8.928858368e-01,8.93397e-01,9.99999e-01,9.99999e-01,9.06653e-01,9.85627e-01,9.99746e-01
8.973502660e-01,8.29751e-01,9.99999e-01,9.99999e-01,8.42701e-01,9.85909e-01,9.98703e-01
9.018370173e-01,9.02619e-01,9.99999e-01,9.99999e-01,9.17129e-01,9.86185e-01,9.97963e-01
9.063462024e-01,9.11036e-01,9.99999e-01,9.99999e-01,9.25198e-01,9.86456e-01,9.98210e-01
9.108779334e-01,8.73107e-01,9.99999e-01,9.99999e-01,8.86503e-01,9.86722e-01,9.98140e-01
9.154323231e-01,8.59542e-01,9.99999e-01,9.99999e-01,8.72218e-01,9.86983e-01,9.98462e-01
9.200094847e-01,8.86637e-01,9.99999e-01,9.99999e-01,8.98871e-01,9.87238e-01,9.99139e-01
9.246095321e-01,8.33966e-01,9.99999e-01,9.99999e-01,8.45370e-01,9.87488e-01,9.99008e-01
9.292325798e-01,3.34436e-01,9.99999e-01,9.99999e-01,3.40214e-01,9.87734e-01,9.95222e-01
9.338787427e-01,2.46659e-01,9.99999e-01,9.99999e-01,2.54020e-01,9.87975e-01,9.82839e-01
9.385481364e-01,5.56391e-01,9.99999e-01,9.99999e-01,5.73838e-01,9.88211e-01,9.81162e-01
9.432408771e-01,4.52725e-01,9.99999e-01,9.99999e-01,4.65595e-01,9.88442e-01,9.83727e-01
9.479570815e-01,3.42895e-01,9.99999e-01,9.99999e-01,3.51486e-01,9.88669e-01,9.86735e-01
9.526968669e-01,4.42365e-01,9.99999e-01,9.99999e-01,4.50992e-01,9.88892e-01,9.91888e-01
9.574603512e-01,4.64782e-01,9.99999e-01,9.99999e-01,4.71846e-01,9.89110e-01,9.95871e-01
9.622476530e-01,5.33452e-01,9.99999e-01,9.99999e-01,5.40753e-01,9.89324e-01,9.97143e-01
9.670588912e-01,6.91287e-01,9.99999e-01,9.99999e-01,6.99908e-01,9.89534e-01,9.98127e-01
9.718941857e-01,7.88271e-01,9.99999e-01,9.99999e-01,7.97586e-01,9.89739e-01,9.98565e-01
9.767536566e-01,8.19411e-01,9.99999e-01,9.99999e-01,8.28648e-01,9.89941e-01,9.98899e-01
9.816374249e-01,8.61174e-01,9.99999e-01,9.99999e-01,8.70081e-01,9.90139e-01,9.99618e-01
9.865456120e-01,9.07717e-01,9.99999e-01,9.99999e-01,9.16650e-01,9.90333e-01,9.99920e-01
9.914783401e-01,9.38552e-01,9.99999e-01,9.99999e-01,9.47552e-01,9.90523e-01,9.99977e-01
9.964357318e-01,9.62061e-01,9.99999e-01,9.99999e-01,9.71095e-01,9.90709e-01,9.99986e-01
1.001417910e+00,9.73617e-01,9.99999e-01,9.99999e-01,9.82585e-01,9.90892e-01,9.99979e-01
1.006425000e+00,9.81142e-01,9.99999e-01,9.99999e-01,9.90009e-01,9.91071e-01,9.99971e-01
1.011457125e+00,9.85082e-01,9.99999e-01,9.99999e-01,9.93806e-01,9.91246e-01,9.99973e-01
1.016514411e+00,9.87222e-01,9.99999e-01,9.99999e-01,9.95784e-01,9.91418e-01,9.99981e-01
1.021596983e+00,9.88235e-01,9.99999e-01,9.99999e-01,9.96636e-01,9.91587e-01,9.99981e-01
1.026704968e+00,9.89138e-01,9.99999e-01,9.99999e-01,9.97374e-01,9.91753e-01,9.99988e-01
1.031838492e+00,9.90023e-01,9.99999e-01,9.99999e-01,9.98096e-01,9.91915e-01,9.99996e-01
1.036997685e+00,9.90949e-01,9.99999e-01,9.99999e-01,9.98865e-01,9.92074e-01,9.99998e-01
1.042182673e+00,9.90883e-01,9.99999e-01,9.99999e-01,9.98642e-01,9.92230e-01,9.99999e-01
1.047393587e+00,9.90600e-01,9.99999e-01,9.99999e-01,9.98203e-01,9.92383e-01,9.99999e-01
1.052630555e+00,9.90083e-01,9.99999e-01,9.99999e-01,9.97531e-01,9.92533e-01,9.99998e-01
1.057893707e+00,9.88583e-01,9.99999e-01,9.99999e-01,9.95874e-01,9.92680e-01,9.99998e-01
1.063183176e+00,9.86097e-01,9.99999e-01,9.99999e-01,9.93227e-01,9.92824e-01,9.99995e-01
1.068499092e+00,9.81742e-01,9.99999e-01,9.99999e-01,9.88704e-01,9.92965e-01,9.99991e-01
1.073841587e+00,9.79945e-01,9.99999e-01,9.99999e-01,9.86766e-01,9.93103e-01,9.99982e-01
1.079210795e+00,9.76443e-01,9.99999e-01,9.99999e-01,9.83134e-01,9.93239e-01,9.99954e-01
1.084606849e+00,9.67967e-01,9.99999e-01,9.99999e-01,9.74531e-01,9.93372e-01,9.99890e-01
1.090029883e+00,9.56895e-01,9.99999e-01,9.99999e-01,9.63370e-01,9.93503e-01,9.99773e-01
1.095480033e+00,8.97476e-01,9.99999e-01,9.99999e-01,9.03597e-01,9.93631e-01,9.99591e-01
1.100957433e+00,7.68493e-01,9.99999e-01,9.99999e-01,7.73902e-01,9.93756e-01,9.99247e-01
1.106462220e+00,5.23041e-01,9.99999e-01,9.99999e-01,5.26934e-01,9.93879e-01,9.98724e-01
1.111994531e+00,2.64691e-01,9.99999e-01,9.99999e-01,2.67192e-01,9.93999e-01,9.96619e-01
1.117554504e+00,1.20747e-01,9.99999e-01,9.99999e-01,1.22955e-01,9.94118e-01,9.87849e-01
1.123142276e+00,2.22162e-01,9.99999e-01,9.99999e-01,2.30024e-01,9.94233e-01,9.71425e-01
1.128757988e+00,3.57633e-01,9.99999e-01,9.99999e-01,3.71932e-01,9.94347e-01,9.67018e-01
1.134401778e+00,1.72509e-01,9.99999e-01,9.99999e-01,1.78488e-01,9.94458e-01,9.71885e-01
1.140073787e+00,5.29802e-01,9.99999e-01,9.99999e-01,5.44972e-01,9.94567e-01,9.77472e-01
1.145774156e+00,2.87681e-01,9.99999e-01,9.99999e-01,2.95316e-01,9.94674e-01,9.79359e-01
1.151503026e+00,2.55258e-01,9.99999e-01,9.99999e-01,2.59596e-01,9.94779e-01,9.88448e-01
1.157260541e+00,3.07423e-01,9.99999e-01,9.99999e-01,3.10079e-01,9.94882e-01,9.96531e-01
1.163046844e+00,4.16987e-01,9.99999e-01,9.99999e-01,4.19502e-01,9.94983e-01,9.99015e-01
1.168862078e+00,5.38982e-01,9.99999e-01,9.99999e-01,5.41923e-01,9.95082e-01,9.99486e-01
1.174706389e+00,6.80951e-01,9.99999e-01,9.99999e-01,6.84733e-01,9.95179e-01,9.99293e-01
1.180579921e+00,7.89078e-01,9.99999e-01,9.99999e-01,7.93630e-01,9.95274e-01,9.98983e-01
1.186482820e+00,8.72110e-01,9.99999e-01,9.99999e-01,8.77083e-01,9.95367e-01,9.98956e-01
1.192415234e+00,9.21231e-01,9.99999e-01,9.99999e-01,9.26157e-01,9.95458e-01,9.99218e-01
1.198377311e+00,9.32416e-01,9.99999e-01,9.99999e-01,9.37280e-01,9.95548e-01,9.99258e-01
1.204369197e+00,9.35974e-01,9.99999e-01,9.99999e-01,9.40683e-01,9.95635e-01,9.99353e-01
1.210391043e+00,9.38755e-01,9.99999e-01,9.99999e-01,9.43171e-01,9.95721e-01,9.99593e-01
1.216442998e+00,9.47342e-01,9.99999e-01,9.99999e-01,9.51568e-01,9.95806e-01,9.99750e-01
1.222525213e+00,9.57924e-01,9.99999e-01,9.99999e-01,9.62027e-01,9.95888e-01,9.99845e-01
1.228637839e+00,9.69462e-01,9.99999e-01,9.99999e-01,9.73454e-01,9.95969e-01,9.99927e-01
