#,Wave/freq,Total,N2,O2,H2O,Rayleigh,CIA
4.000000000e-01,8.39962e-01,9.99999e-01,9.99999e-01,9.99979e-01,8.39978e-01,9.99999e-01
4.020000000e-01,8.42869e-01,9.99999e-01,9.99999e-01,9.99987e-01,8.42880e-01,9.99999e-01
4.040100000e-01,8.45726e-01,9.99999e-01,9.99999e-01,9.99994e-01,8.45730e-01,9.99999e-01
4.060300500e-01,8.48533e-01,9.99999e-01,9.99999e-01,9.99998e-01,8.48534e-01,9.99999e-01
4.080602003e-01,8.51291e-01,9.99999e-01,9.99999e-01,9.99999e-01,8.51291e-01,9.99999e-01
4.101005013e-01,8.54003e-01,9.99999e-01,9.99999e-01,9.99999e-01,8.54003e-01,9.99999e-01
4.121510038e-01,8.56668e-01,9.99999e-01,9.99999e-01,9.99998e-01,8.56669e-01,9.99999e-01
4.142117588e-01,8.59286e-01,9.99999e-01,9.99999e-01,9.99994e-01,8.59291e-01,9.99999e-01
4.162828176e-01,8.61848e-01,9.99999e-01,9.99999e-01,9.99975e-01,8.61869e-01,9.99999e-01
4.183642317e-01,8.64390e-01,9.99999e-01,9.99999e-01,9.99985e-01,8.64403e-01,9.99999e-01
4.204560528e-01,8.66887e-01,9.99999e-01,9.99999e-01,9.99990e-01,8.66895e-01,9.99999e-01
4.225583331e-01,8.69341e-01,9.99999e-01,9.99999e-01,9.99996e-01,8.69344e-01,9.99999e-01
4.246711247e-01,8.71749e-01,9.99999e-01,9.99999e-01,9.99996e-01,8.71751e-01,9.99999e-01
4.267944804e-01,8.74115e-01,9.99999e-01,9.99999e-01,9.99995e-01,8.74118e-01,9.99999e-01
4.289284528e-01,8.76441e-01,9.99999e-01,9.99999e-01,9.99996e-01,8.76444e-01,9.99999e-01
4.310730950e-01,8.78729e-01,9.99999e-01,9.99999e-01,9.99998e-01,8.78730e-01,9.99999e-01
4.332284605e-01,8.80977e-01,9.99999e-01,9.99999e-01,9.99999e-01,8.80977e-01,9.99999e-01
4.353946028e-01,8.83185e-01,9.99999e-01,9.99999e-01,9.99999e-01,8.83185e-01,9.99999e-01
4.375715758e-01,8.85352e-01,9.99999e-01,9.99999e-01,9.99997e-01,8.85354e-01,9.99999e-01
4.397594337e-01,8.87467e-01,9.99999e-01,9.99999e-01,9.99977e-01,8.87486e-01,9.99999e-01
4.419582309e-01,8.89483e-01,9.99999e-01,9.99999e-01,9.99889e-01,8.89581e-01,9.99999e-01
4.441680220e-01,8.91565e-01,9.99999e-01,9.99999e-01,9.99915e-01,8.91640e-01,9.99999e-01
4.463888621e-01,8.93583e-01,9.99999e-01,9.99999e-01,9.99911e-01,8.93662e-01,9.99999e-01
4.486208064e-01,8.95600e-01,9.99999e-01,9.99999e-01,9.99945e-01,8.95649e-01,9.99999e-01
4.508639105e-01,8.97578e-01,9.99999e-01,9.99999e-01,9.99973e-01,8.97600e-01,9.99999e-01
4.531182300e-01,8.99509e-01,9.99999e-01,9.99999e-01,9.99989e-01,8.99518e-01,9.99999e-01
4.553838212e-01,9.01395e-01,9.99999e-01,9.99999e-01,9.99992e-01,9.01401e-01,9.99999e-01
4.576607403e-01,9.03249e-01,9.99999e-01,9.99999e-01,9.99996e-01,9.03251e-01,9.99999e-01
4.599490440e-01,9.05067e-01,9.99999e-01,9.99999e-01,9.99997e-01,9.05069e-01,9.99999e-01
4.622487892e-01,9.06853e-01,9.99999e-01,9.99999e-01,9.99999e-01,9.06854e-01,9.99999e-01
4.645600332e-01,9.08605e-01,9.99999e-01,9.99999e-01,9.99997e-01,9.08607e-01,9.99999e-01
4.668828333e-01,9.10305e-01,9.99999e-01,9.99999e-01,9.99973e-01,9.10328e-01,9.99999e-01
4.692172475e-01,9.11969e-01,9.99999e-01,9.99999e-01,9.99944e-01,9.12019e-01,9.99999e-01
4.715633337e-01,9.13647e-01,9.99999e-01,9.99999e-01,9.99963e-01,9.13680e-01,9.99999e-01
4.739211504e-01,9.15279e-01,9.99999e-01,9.99999e-01,9.99965e-01,9.15311e-01,9.99999e-01
4.762907561e-01,9.16895e-01,9.99999e-01,9.99999e-01,9.99981e-01,9.16912e-01,9.99999e-01
4.786722099e-01,9.18477e-01,9.99999e-01,9.99999e-01,9.99992e-01,9.18484e-01,9.99999e-01
4.810655710e-01,9.20026e-01,9.99999e-01,9.99999e-01,9.99997e-01,9.20028e-01,9.99999e-01
4.834708988e-01,9.21524e-01,9.99999e-01,9.99999e-01,9.99977e-01,9.21544e-01,9.99999e-01
4.858882533e-01,9.22996e-01,9.99999e-01,9.99999e-01,9.99960e-01,9.23032e-01,9.99999e-01
4.883176946e-01,9.24463e-01,9.99999e-01,9.99999e-01,9.99966e-01,9.24494e-01,9.99999e-01
4.907592831e-01,9.25901e-01,9.99999e-01,9.99999e-01,9.99969e-01,9.25929e-01,9.99999e-01
4.932130795e-01,9.27318e-01,9.99999e-01,9.99999e-01,9.99978e-01,9.27337e-01,9.99999e-01
4.956791449e-01,9.28710e-01,9.99999e-01,9.99999e-01,9.99988e-01,9.28720e-01,9.99999e-01
4.981575406e-01,9.30026e-01,9.99999e-01,9.99999e-01,9.99943e-01,9.30078e-01,9.99999e-01
5.006483283e-01,9.31273e-01,9.99999e-01,9.99999e-01,9.99853e-01,9.31410e-01,9.99998e-01
5.031515699e-01,9.32027e-01,9.99999e-01,9.99999e-01,9.99266e-01,9.32718e-01,9.99991e-01
5.056673278e-01,9.33634e-01,9.99999e-01,9.99999e-01,9.99614e-01,9.34002e-01,9.99990e-01
5.081956644e-01,9.34803e-01,9.99999e-01,9.99999e-01,9.99513e-01,9.35263e-01,9.99994e-01
5.107366428e-01,9.36192e-01,9.99999e-01,9.99999e-01,9.99671e-01,9.36500e-01,9.99998e-01
5.132903260e-01,9.37539e-01,9.99999e-01,9.99999e-01,9.99812e-01,9.37714e-01,9.99999e-01
5.158567776e-01,9.38832e-01,9.99999e-01,9.99999e-01,9.99920e-01,9.38906e-01,9.99999e-01
5.184360615e-01,9.40046e-01,9.99999e-01,9.99999e-01,9.99967e-01,9.40076e-01,9.99999e-01
5.210282418e-01,9.41213e-01,9.99999e-01,9.99999e-01,9.99987e-01,9.41224e-01,9.99999e-01
5.236333830e-01,9.42306e-01,9.99999e-01,9.99999e-01,9.99951e-01,9.42351e-01,9.99999e-01
5.262515499e-01,9.43428e-01,9.99999e-01,9.99999e-01,9.99969e-01,9.43457e-01,9.99999e-01
5.288828077e-01,9.44516e-01,9.99999e-01,9.99999e-01,9.99972e-01,9.44542e-01,9.99999e-01
5.315272217e-01,9.45585e-01,9.99999e-01,9.99999e-01,9.99975e-01,9.45607e-01,9.99999e-01
5.341848578e-01,9.46637e-01,9.99999e-01,9.99999e-01,9.99983e-01,9.46652e-01,9.99999e-01
5.368557821e-01,9.47625e-01,9.99999e-01,9.99999e-01,9.99943e-01,9.47678e-01,9.99999e-01
5.395400610e-01,9.48490e-01,9.99999e-01,9.99999e-01,9.99796e-01,9.48685e-01,9.99997e-01
5.422377613e-01,9.49423e-01,9.99999e-01,9.99999e-01,9.99741e-01,9.49672e-01,9.99994e-01
5.449489501e-01,9.50407e-01,9.99999e-01,9.99999e-01,9.99757e-01,9.50641e-01,9.99994e-01
5.476736949e-01,9.51388e-01,9.99999e-01,9.99999e-01,9.99787e-01,9.51592e-01,9.99997e-01
5.504120634e-01,9.52378e-01,9.99999e-01,9.99999e-01,9.99845e-01,9.52525e-01,9.99998e-01
5.531641237e-01,9.53367e-01,9.99999e-01,9.99999e-01,9.99921e-01,9.53441e-01,9.99999e-01
5.559299443e-01,9.54304e-01,9.99999e-01,9.99999e-01,9.99962e-01,9.54339e-01,9.99999e-01
5.587095940e-01,9.55198e-01,9.99999e-01,9.99999e-01,9.99975e-01,9.55221e-01,9.99999e-01
5.615031420e-01,9.56060e-01,9.99999e-01,9.99999e-01,9.99973e-01,9.56085e-01,9.99999e-01
5.643106577e-01,9.56905e-01,9.99999e-01,9.99999e-01,9.99969e-01,9.56934e-01,9.99999e-01
5.671322110e-01,9.57410e-01,9.99999e-01,9.99999e-01,9.99630e-01,9.57766e-01,9.99996e-01
5.699678720e-01,9.58208e-01,9.99999e-01,9.99999e-01,9.99618e-01,9.58583e-01,9.99989e-01
5.728177114e-01,9.58991e-01,9.99999e-01,9.99999e-01,9.99597e-01,9.59384e-01,9.99991e-01
5.756818000e-01,9.59813e-01,9.99999e-01,9.99999e-01,9.99631e-01,9.60170e-01,9.99994e-01
5.785602090e-01,9.60633e-01,9.99999e-01,9.99999e-01,9.99679e-01,9.60941e-01,9.99998e-01
5.814530100e-01,9.61388e-01,9.99999e-01,9.99999e-01,9.99677e-01,9.61698e-01,9.99998e-01
5.843602750e-01,9.62066e-01,9.99999e-01,9.99999e-01,9.99612e-01,9.62440e-01,9.99997e-01
5.872820764e-01,9.59937e-01,9.99999e-01,9.99999e-01,9.96668e-01,9.63168e-01,9.99976e-01
5.902184868e-01,9.59970e-01,9.99999e-01,9.99999e-01,9.96003e-01,9.63882e-01,9.99936e-01
5.931695792e-01,9.61791e-01,9.99999e-01,9.99999e-01,9.97166e-01,9.64583e-01,9.99938e-01
5.961354271e-01,9.62246e-01,9.99999e-01,9.99999e-01,9.96901e-01,9.65270e-01,9.99964e-01
5.991161043e-01,9.63754e-01,9.99999e-01,9.99999e-01,9.97742e-01,9.65944e-01,9.99988e-01
6.021116848e-01,9.65368e-01,9.99999e-01,9.99999e-01,9.98720e-01,9.66606e-01,9.99998e-01
6.051222432e-01,9.66628e-01,9.99999e-01,9.99999e-01,9.99352e-01,9.67254e-01,9.99999e-01
6.081478544e-01,9.67620e-01,9.99999e-01,9.99999e-01,9.99720e-01,9.67891e-01,9.99999e-01
6.111885937e-01,9.68401e-01,9.99999e-01,9.99999e-01,9.99881e-01,9.68515e-01,9.99999e-01
6.142445367e-01,9.69076e-01,9.99999e-01,9.99999e-01,9.99946e-01,9.69127e-01,9.99999e-01
6.173157594e-01,9.69699e-01,9.99999e-01,9.99999e-01,9.99970e-01,9.69727e-01,9.99999e-01
6.204023382e-01,9.70292e-01,9.99999e-01,9.99999e-01,9.99974e-01,9.70316e-01,9.99999e-01
6.235043498e-01,9.70786e-01,9.99999e-01,9.99999e-01,9.99888e-01,9.70894e-01,9.99999e-01
6.266218716e-01,9.70896e-01,9.99999e-01,9.99999e-01,9.99422e-01,9.71461e-01,9.99995e-01
6.297549810e-01,9.71803e-01,9.99999e-01,9.99999e-01,9.99787e-01,9.72016e-01,9.99991e-01
6.329037559e-01,9.72150e-01,9.99999e-01,9.99999e-01,9.99582e-01,9.72561e-01,9.99993e-01
6.360682746e-01,9.72745e-01,9.99999e-01,9.99999e-01,9.99642e-01,9.73096e-01,9.99995e-01
6.392486160e-01,9.73170e-01,9.99999e-01,9.99999e-01,9.99538e-01,9.73620e-01,9.99997e-01
6.424448591e-01,9.73525e-01,9.99999e-01,9.99999e-01,9.99376e-01,9.74135e-01,9.99996e-01
6.456570834e-01,9.71806e-01,9.99999e-01,9.99999e-01,9.97110e-01,9.74639e-01,9.99982e-01
6.488853688e-01,9.73051e-01,9.99999e-01,9.99999e-01,9.97908e-01,9.75134e-01,9.99955e-01
6.521297956e-01,9.73504e-01,9.99999e-01,9.99999e-01,9.97868e-01,9.75619e-01,9.99962e-01
6.553904446e-01,9.73987e-01,9.99999e-01,9.99999e-01,9.97867e-01,9.76095e-01,9.99972e-01
6.586673968e-01,9.74777e-01,9.99999e-01,9.99999e-01,9.98182e-01,9.76561e-01,9.99990e-01
6.619607338e-01,9.76028e-01,9.99999e-01,9.99999e-01,9.98987e-01,9.77019e-01,9.99997e-01
6.652705375e-01,9.76873e-01,9.99999e-01,9.99999e-01,9.99391e-01,9.77467e-01,9.99998e-01
6.685968902e-01,9.77655e-01,9.99999e-01,9.99999e-01,9.99741e-01,9.77908e-01,9.99999e-01
6.719398746e-01,9.78211e-01,9.99999e-01,9.99999e-01,9.99868e-01,9.78339e-01,9.99999e-01
6.752995740e-01,9.78695e-01,9.99999e-01,9.99999e-01,9.99930e-01,9.78762e-01,9.99999e-01
6.786760719e-01,9.79076e-01,9.99999e-01,9.99999e-01,9.99896e-01,9.79178e-01,9.99999e-01
6.820694522e-01,9.79410e-01,9.99999e-01,9.99999e-01,9.99821e-01,9.79585e-01,9.99998e-01
6.854797995e-01,9.79759e-01,9.99999e-01,9.99999e-01,9.99772e-01,9.79984e-01,9.99997e-01
6.889071985e-01,9.79823e-01,9.99999e-01,9.99999e-01,9.99440e-01,9.80375e-01,9.99994e-01
6.923517345e-01,9.71881e-01,9.99999e-01,9.99999e-01,9.90990e-01,9.80759e-01,9.99956e-01
6.958134932e-01,9.76538e-01,9.99999e-01,9.99999e-01,9.95408e-01,9.81135e-01,9.99904e-01
6.992925606e-01,9.77047e-01,9.99999e-01,9.99999e-01,9.95542e-01,9.81505e-01,9.99913e-01
7.027890234e-01,9.76448e-01,9.99999e-01,9.99999e-01,9.94545e-01,9.81867e-01,9.99934e-01
7.063029686e-01,9.77681e-01,9.99999e-01,9.99999e-01,9.95409e-01,9.82222e-01,9.99966e-01
7.098344834e-01,9.78223e-01,9.99999e-01,9.99999e-01,9.95595e-01,9.82570e-01,9.99980e-01
7.133836558e-01,9.77029e-01,9.99999e-01,9.99999e-01,9.94053e-01,9.82911e-01,9.99961e-01
7.169505741e-01,9.37092e-01,9.99999e-01,9.99999e-01,9.53346e-01,9.83246e-01,9.99698e-01
7.205353270e-01,9.60790e-01,9.99999e-01,9.99999e-01,9.77354e-01,9.83574e-01,9.99468e-01
7.241380036e-01,9.54768e-01,9.99999e-01,9.99999e-01,9.70840e-01,9.83896e-01,9.99540e-01
7.277586936e-01,9.57945e-01,9.99999e-01,9.99999e-01,9.73677e-01,9.84211e-01,9.99624e-01
7.313974871e-01,9.57016e-01,9.99999e-01,9.99999e-01,9.72232e-01,9.84521e-01,9.99823e-01
7.350544745e-01,9.69715e-01,9.99999e-01,9.99999e-01,9.84717e-01,9.84824e-01,9.99938e-01
7.387297469e-01,9.74007e-01,9.99999e-01,9.99999e-01,9.88745e-01,9.85122e-01,9.99971e-01
7.424233956e-01,9.79982e-01,9.99999e-01,9.99999e-01,9.94493e-01,9.85413e-01,9.99994e-01
7.461355126e-01,9.82401e-01,9.99999e-01,9.99999e-01,9.96654e-01,9.85699e-01,9.99998e-01
7.498661902e-01,9.84448e-01,9.99999e-01,9.99999e-01,9.98446e-01,9.85980e-01,9.99999e-01
7.536155211e-01,9.85501e-01,9.99999e-01,9.99999e-01,9.99235e-01,9.86255e-01,9.99999e-01
7.573835987e-01,9.86136e-01,9.99999e-01,9.99999e-01,9.99606e-01,9.86524e-01,9.99999e-01
7.611705167e-01,9.86548e-01,9.99999e-01,9.99999e-01,9.99755e-01,9.86789e-01,9.99999e-01
7.649763693e-01,9.86897e-01,9.99999e-01,9.99999e-01,9.99846e-01,9.87048e-01,9.99999e-01
7.688012511e-01,9.87197e-01,9.99999e-01,9.99999e-01,9.99892e-01,9.87302e-01,9.99999e-01
7.726452574e-01,9.87464e-01,9.99999e-01,9.99999e-01,9.99911e-01,9.87551e-01,9.99999e-01
7.765084837e-01,9.87671e-01,9.99999e-01,9.99999e-01,9.99873e-01,9.87796e-01,9.99999e-01
7.803910261e-01,9.87495e-01,9.99999e-01,9.99999e-01,9.99453e-01,9.88035e-01,9.99998e-01
7.842929812e-01,9.86382e-01,9.99999e-01,9.99999e-01,9.98092e-01,9.88270e-01,9.99996e-01
7.882144461e-01,9.84627e-01,9.99999e-01,9.99999e-01,9.96107e-01,9.88501e-01,9.99972e-01
7.921555184e-01,9.86581e-01,9.99999e-01,9.99999e-01,9.97875e-01,9.88726e-01,9.99953e-01
7.961162960e-01,9.85149e-01,9.99999e-01,9.99999e-01,9.96201e-01,9.88948e-01,9.99955e-01
8.000968774e-01,9.84808e-01,9.99999e-01,9.99999e-01,9.95641e-01,9.89165e-01,9.99952e-01
8.040973618e-01,9.85023e-01,9.99999e-01,9.99999e-01,9.95633e-01,9.89378e-01,9.99963e-01
8.081178486e-01,9.79767e-01,9.99999e-01,9.99999e-01,9.90112e-01,9.89587e-01,9.99963e-01
8.121584379e-01,9.49521e-01,9.99999e-01,9.99999e-01,9.59445e-01,9.89791e-01,9.99862e-01
8.162192301e-01,9.42493e-01,9.99999e-01,9.99999e-01,9.52513e-01,9.89992e-01,9.99482e-01
8.203003262e-01,9.65422e-01,9.99999e-01,9.99999e-01,9.75578e-01,9.90188e-01,9.99394e-01
8.244018279e-01,9.57137e-01,9.99999e-01,9.99999e-01,9.66897e-01,9.90381e-01,9.99517e-01
8.285238370e-01,9.61697e-01,9.99999e-01,9.99999e-01,9.71218e-01,9.90570e-01,9.99621e-01
8.326664562e-01,9.61904e-01,9.99999e-01,9.99999e-01,9.71030e-01,9.90756e-01,9.99843e-01
8.368297885e-01,9.70369e-01,9.99999e-01,9.99999e-01,9.79278e-01,9.90938e-01,9.99963e-01
8.410139374e-01,9.78853e-01,9.99999e-01,9.99999e-01,9.87647e-01,9.91116e-01,9.99978e-01
8.452190071e-01,9.85267e-01,9.99999e-01,9.99999e-01,9.93935e-01,9.91290e-01,9.99987e-01
8.494451021e-01,9.87947e-01,9.99999e-01,9.99999e-01,9.96464e-01,9.91462e-01,9.99989e-01
8.536923276e-01,9.89557e-01,9.99999e-01,9.99999e-01,9.97915e-01,9.91630e-01,9.99993e-01
8.579607893e-01,9.90516e-01,9.99999e-01,9.99999e-01,9.98711e-01,9.91794e-01,9.99998e-01
8.622505932e-01,9.91146e-01,9.99999e-01,9.99999e-01,9.99183e-01,9.91956e-01,9.99999e-01
8.665618462e-01,9.91611e-01,9.99999e-01,9.99999e-01,9.99492e-01,9.92114e-01,9.99999e-01
8.708946554e-01,9.91692e-01,9.99999e-01,9.99999e-01,9.99418e-01,9.92269e-01,9.99999e-01
8.752491287e-01,9.91649e-01,9.99999e-01,9.99999e-01,9.99222e-01,9.92421e-01,9.99998e-01
8.796253743e-01,9.91496e-01,9.99999e-01,9.99999e-01,9.98919e-01,9.92570e-01,9.99997e-01
8.840235012e-01,9.91486e-01,9.99999e-01,9.99999e-01,9.98766e-01,9.92716e-01,9.99992e-01
8.884436187e-01,9.88291e-01,9.99999e-01,9.99999e-01,9.95418e-01,9.92860e-01,9.99978e-01
8.928858368e-01,9.46514e-01,9.99999e-01,9.99999e-01,9.53302e-01,9.93000e-01,9.99876e-01
8.973502660e-01,9.12710e-01,9.99999e-01,9.99999e-01,9.19594e-01,9.93138e-01,9.99370e-01
9.018370173e-01,9.51076e-01,9.99999e-01,9.99999e-01,9.58464e-01,9.93273e-01,9.99011e-01
9.063462024e-01,9.55559e-01,9.99999e-01,9.99999e-01,9.62737e-01,9.93406e-01,9.99131e-01
9.108779334e-01,9.35854e-01,9.99999e-01,9.99999e-01,9.42793e-01,9.93535e-01,9.99097e-01
9.154323231e-01,9.28798e-01,9.99999e-01,9.99999e-01,9.35419e-01,9.93663e-01,9.99253e-01
9.200094847e-01,9.42891e-01,9.99999e-01,9.99999e-01,9.49181e-01,9.93787e-01,9.99582e-01
9.246095321e-01,9.13790e-01,9.99999e-01,9.99999e-01,9.19831e-01,9.93910e-01,9.99518e-01
9.292325798e-01,5.71954e-01,9.99999e-01,9.99999e-01,5.76727e-01,9.94030e-01,9.97678e-01
9.338787427e-01,4.88146e-01,9.99999e-01,9.99999e-01,4.95160e-01,9.94147e-01,9.91636e-01
9.385481364e-01,7.42302e-01,9.99999e-01,9.99999e-01,7.53505e-01,9.94262e-01,9.90815e-01
9.432408771e-01,6.62938e-01,9.99999e-01,9.99999e-01,6.72016e-01,9.94375e-01,9.92071e-01
9.479570815e-01,5.71589e-01,9.99999e-01,9.99999e-01,5.78493e-01,9.94486e-01,9.93542e-01
9.526968669e-01,6.58913e-01,9.99999e-01,9.99999e-01,6.65117e-01,9.94595e-01,9.96055e-01
9.574603512e-01,6.81360e-01,9.99999e-01,9.99999e-01,6.86365e-01,9.94701e-01,9.97994e-01
9.622476530e-01,7.31951e-01,9.99999e-01,9.99999e-01,7.36794e-01,9.94806e-01,9.98612e-01
9.670588912e-01,8.33237e-01,9.99999e-01,9.99999e-01,8.38296e-01,9.94908e-01,9.99050e-01
9.718941857e-01,8.90332e-01,9.99999e-01,9.99999e-01,8.95423e-01,9.95008e-01,9.99301e-01
9.767536566e-01,9.07411e-01,9.99999e-01,9.99999e-01,9.12359e-01,9.95107e-01,9.99465e-01
9.816374249e-01,9.29815e-01,9.99999e-01,9.99999e-01,9.34468e-01,9.95203e-01,9.99814e-01
9.865456120e-01,9.54016e-01,9.99999e-01,9.99999e-01,9.58559e-01,9.95298e-01,9.99961e-01
9.914783401e-01,9.69670e-01,9.99999e-01,9.99999e-01,9.74170e-01,9.95390e-01,9.99988e-01
9.964357318e-01,9.81395e-01,9.99999e-01,9.99999e-01,9.85856e-01,9.95481e-01,9.99993e-01
1.001417910e+00,9.87104e-01,9.99999e-01,9.99999e-01,9.91505e-01,9.95570e-01,9.99989e-01
1.006425000e+00,9.90804e-01,9.99999e-01,9.99999e-01,9.95138e-01,9.95657e-01,9.99985e-01
1.011457125e+00,9.92732e-01,9.99999e-01,9.99999e-01,9.96988e-01,9.95743e-01,9.99986e-01
1.016514411e+00,9.93779e-01,9.99999e-01,9.99999e-01,9.97951e-01,9.95827e-01,9.99990e-01
1.021596983e+00,9.94274e-01,9.99999e-01,9.99999e-01,9.98366e-01,9.95909e-01,9.99990e-01
1.026704968e+00,9.94715e-01,9.99999e-01,9.99999e-01,9.98724e-01,9.95990e-01,9.99994e-01
1.031838492e+00,9.95146e-01,9.99999e-01,9.99999e-01,9.99075e-01,9.96069e-01,9.99997e-01
1.036997685e+00,9.95598e-01,9.99999e-01,9.99999e-01,9.99449e-01,9.96146e-01,9.99999e-01
1.042182673e+00,9.95566e-01,9.99999e-01,9.99999e-01,9.99340e-01,9.96222e-01,9.99999e-01
1.047393587e+00,9.95428e-01,9.99999e-01,9.99999e-01,9.99127e-01,9.96297e-01,9.99999e-01
1.052630555e+00,9.95176e-01,9.99999e-01,9.99999e-01,9.98801e-01,9.96370e-01,9.99999e-01
1.057893707e+00,9.94445e-01,9.99999e-01,9.99999e-01,9.97996e-01,9.96441e-01,9.99998e-01
1.063183176e+00,9.93230e-01,9.99999e-01,9.99999e-01,9.96708e-01,9.96511e-01,9.99997e-01
1.068499092e+00,9.91097e-01,9.99999e-01,9.99999e-01,9.94501e-01,9.96580e-01,9.99995e-01
1.073841587e+00,9.90215e-01,9.99999e-01,9.99999e-01,9.93553e-01,9.96648e-01,9.99991e-01
1.079210795e+00,9.88494e-01,9.99999e-01,9.99999e-01,9.91774e-01,9.96714e-01,9.99977e-01
1.084606849e+00,9.84315e-01,9.99999e-01,9.99999e-01,9.87548e-01,9.96778e-01,9.99946e-01
1.090029883e+00,9.78830e-01,9.99999e-01,9.99999e-01,9.82037e-01,9.96842e-01,9.99889e-01
1.095480033e+00,9.48778e-01,9.99999e-01,9.99999e-01,9.51913e-01,9.96904e-01,9.99801e-01
1.100957433e+00,8.79316e-01,9.99999e-01,9.99999e-01,8.82313e-01,9.96965e-01,9.99634e-01
1.106462220e+00,7.24619e-01,9.99999e-01,9.99999e-01,7.27231e-01,9.97025e-01,9.99380e-01
1.111994531e+00,5.12182e-01,9.99999e-01,9.99999e-01,5.14524e-01,9.97084e-01,9.98358e-01
1.117554504e+00,3.39580e-01,9.99999e-01,9.99999e-01,3.42579e-01,9.97141e-01,9.94085e-01
1.123142276e+00,4.51165e-01,9.99999e-01,9.99999e-01,4.58841e-01,9.97198e-01,9.86032e-01
1.128757988e+00,5.92413e-01,9.99999e-01,9.99999e-01,6.03789e-01,9.97253e-01,9.83859e-01
1.134401778e+00,3.41392e-01,9.99999e-01,9.99999e-01,3.47083e-01,9.97307e-01,9.86258e-01
1.140073787e+00,7.28819e-01,9.99999e-01,9.99999e-01,7.38870e-01,9.97360e-01,9.89005e-01
1.145774156e+00,5.27968e-01,9.99999e-01,9.99999e-01,5.34721e-01,9.97412e-01,9.89931e-01
1.151503026e+00,4.93999e-01,9.99999e-01,9.99999e-01,4.98054e-01,9.97463e-01,9.94378e-01
1.157260541e+00,5.55069e-01,9.99999e-01,9.99999e-01,5.57391e-01,9.97513e-01,9.98315e-01
1.163046844e+00,6.47719e-01,9.99999e-01,9.99999e-01,6.49612e-01,9.97562e-01,9.99521e-01
1.168862078e+00,7.38789e-01,9.99999e-01,9.99999e-01,7.40740e-01,9.97610e-01,9.99753e-01
1.174706389e+00,8.28663e-01,9.99999e-01,9.99999e-01,8.30879e-01,9.97657e-01,9.99673e-01
1.180579921e+00,8.90851e-01,9.99999e-01,9.99999e-01,8.93341e-01,9.97704e-01,9.99506e-01
1.186482820e+00,9.35622e-01,9.99999e-01,9.99999e-01,9.38206e-01,9.97749e-01,9.99493e-01
1.192415234e+00,9.60942e-01,9.99999e-01,9.99999e-01,9.63432e-01,9.97793e-01,9.99620e-01
1.198377311e+00,9.66590e-01,9.99999e-01,9.99999e-01,9.69033e-01,9.97837e-01,9.99639e-01
1.204369197e+00,9.68338e-01,9.99999e-01,9.99999e-01,9.70699e-01,9.97880e-01,9.99686e-01
1.210391043e+00,9.69759e-01,9.99999e-01,9.99999e-01,9.71969e-01,9.97921e-01,9.99802e-01
1.216442998e+00,9.74053e-01,9.99999e-01,9.99999e-01,9.76158e-01,9.97962e-01,9.99878e-01
1.222525213e+00,9.79343e-01,9.99999e-01,9.99999e-01,9.81375e-01,9.98003e-01,9.99924e-01
1.228637839e+00,9.85057e-01,9.99999e-01,9.99999e-01,9.87023e-01,9.98042e-01,9.99964e-01
