#,Wave/freq,Total,N2,O2,H2O,Rayleigh,CIA
4.000000000e-01,2.75126e-01,9.99999e-01,9.99999e-01,9.99854e-01,2.75166e-01,9.99999e-01
4.020000000e-01,2.82251e-01,9.99999e-01,9.99999e-01,9.99909e-01,2.82277e-01,9.99999e-01
4.040100000e-01,2.89407e-01,9.99999e-01,9.99999e-01,9.99961e-01,2.89418e-01,9.99999e-01
4.060300500e-01,2.96591e-01,9.99999e-01,9.99999e-01,9.99990e-01,2.96594e-01,9.99999e-01
4.080602003e-01,3.03799e-01,9.99999e-01,9.99999e-01,9.99996e-01,3.03800e-01,9.99999e-01
4.101005013e-01,3.11034e-01,9.99999e-01,9.99999e-01,9.99999e-01,3.11034e-01,9.99999e-01
4.121510038e-01,3.18291e-01,9.99999e-01,9.99999e-01,9.99994e-01,3.18293e-01,9.99999e-01
4.142117588e-01,3.25559e-01,9.99999e-01,9.99999e-01,9.99959e-01,3.25572e-01,9.99999e-01
4.162828176e-01,3.32809e-01,9.99999e-01,9.99999e-01,9.99819e-01,3.32869e-01,9.99999e-01
4.183642317e-01,3.40144e-01,9.99999e-01,9.99999e-01,9.99892e-01,3.40181e-01,9.99999e-01
4.204560528e-01,3.47481e-01,9.99999e-01,9.99999e-01,9.99933e-01,3.47504e-01,9.99999e-01
4.225583331e-01,3.54827e-01,9.99999e-01,9.99999e-01,9.99974e-01,3.54835e-01,9.99999e-01
4.246711247e-01,3.62165e-01,9.99999e-01,9.99999e-01,9.99980e-01,3.62172e-01,9.99999e-01
4.267944804e-01,3.69500e-01,9.99999e-01,9.99999e-01,9.99970e-01,3.69511e-01,9.99999e-01
4.289284528e-01,3.76841e-01,9.99999e-01,9.99999e-01,9.99977e-01,3.76849e-01,9.99999e-01
4.310730950e-01,3.84181e-01,9.99999e-01,9.99999e-01,9.99990e-01,3.84184e-01,9.99999e-01
4.332284605e-01,3.91512e-01,9.99999e-01,9.99999e-01,9.99997e-01,3.91513e-01,9.99999e-01
4.353946028e-01,3.98832e-01,9.99999e-01,9.99999e-01,9.99998e-01,3.98832e-01,9.99999e-01
4.375715758e-01,4.06133e-01,9.99999e-01,9.99999e-01,9.99981e-01,4.06140e-01,9.99999e-01
4.397594337e-01,4.13368e-01,9.99999e-01,9.99999e-01,9.99841e-01,4.13433e-01,9.99999e-01
4.419582309e-01,4.20372e-01,9.99999e-01,9.99999e-01,9.99197e-01,4.20709e-01,9.99999e-01
4.441680220e-01,4.27697e-01,9.99999e-01,9.99999e-01,9.99371e-01,4.27966e-01,9.99999e-01
4.463888621e-01,4.34917e-01,9.99999e-01,9.99999e-01,9.99346e-01,4.35201e-01,9.99999e-01
4.486208064e-01,4.42232e-01,9.99999e-01,9.99999e-01,9.99593e-01,4.42412e-01,9.99999e-01
4.508639105e-01,4.49511e-01,9.99999e-01,9.99999e-01,9.99809e-01,4.49596e-01,9.99999e-01
4.531182300e-01,4.56717e-01,9.99999e-01,9.99999e-01,9.99924e-01,4.56752e-01,9.99999e-01
4.553838212e-01,4.63853e-01,9.99999e-01,9.99999e-01,9.99948e-01,4.63876e-01,9.99999e-01
4.576607403e-01,4.70957e-01,9.99999e-01,9.99999e-01,9.99976e-01,4.70968e-01,9.99999e-01
4.599490440e-01,4.78017e-01,9.99999e-01,9.99999e-01,9.99982e-01,4.78025e-01,9.99999e-01
4.622487892e-01,4.85044e-01,9.99999e-01,9.99999e-01,9.99996e-01,4.85045e-01,9.99999e-01
4.645600332e-01,4.92022e-01,9.99999e-01,9.99999e-01,9.99988e-01,4.92027e-01,9.99999e-01
4.668828333e-01,4.98873e-01,9.99999e-01,9.99999e-01,9.99807e-01,4.98968e-01,9.99999e-01
4.692172475e-01,5.05660e-01,9.99999e-01,9.99999e-01,9.99589e-01,5.05868e-01,9.99999e-01
4.715633337e-01,5.12586e-01,9.99999e-01,9.99999e-01,9.99732e-01,5.12723e-01,9.99999e-01
4.739211504e-01,5.19400e-01,9.99999e-01,9.99999e-01,9.99743e-01,5.19533e-01,9.99999e-01
4.762907561e-01,5.26227e-01,9.99999e-01,9.99999e-01,9.99866e-01,5.26297e-01,9.99999e-01
4.786722099e-01,5.32983e-01,9.99999e-01,9.99999e-01,9.99945e-01,5.33012e-01,9.99999e-01
4.810655710e-01,5.39669e-01,9.99999e-01,9.99999e-01,9.99983e-01,5.39678e-01,9.99999e-01
4.834708988e-01,5.46208e-01,9.99999e-01,9.99999e-01,9.99843e-01,5.46293e-01,9.99999e-01
4.858882533e-01,5.52696e-01,9.99999e-01,9.99999e-01,9.99709e-01,5.52856e-01,9.99999e-01
4.883176946e-01,5.59231e-01,9.99999e-01,9.99999e-01,9.99757e-01,5.59366e-01,9.99999e-01
4.907592831e-01,5.65698e-01,9.99999e-01,9.99999e-01,9.99780e-01,5.65822e-01,9.99999e-01
4.932130795e-01,5.72133e-01,9.99999e-01,9.99999e-01,9.99843e-01,5.72223e-01,9.99999e-01
4.956791449e-01,5.78519e-01,9.99999e-01,9.99999e-01,9.99917e-01,5.78567e-01,9.99999e-01
4.981575406e-01,5.84614e-01,9.99999e-01,9.99999e-01,9.99588e-01,5.84854e-01,9.99999e-01
5.006483283e-01,5.90450e-01,9.99999e-01,9.99999e-01,9.98934e-01,5.91084e-01,9.99992e-01
5.031515699e-01,5.94000e-01,9.99999e-01,9.99999e-01,9.94606e-01,5.97255e-01,9.99942e-01
5.056673278e-01,6.01606e-01,9.99999e-01,9.99999e-01,9.97147e-01,6.03366e-01,9.99934e-01
5.081956644e-01,6.07200e-01,9.99999e-01,9.99999e-01,9.96401e-01,6.09418e-01,9.99957e-01
5.107366428e-01,6.13908e-01,9.99999e-01,9.99999e-01,9.97569e-01,6.15409e-01,9.99991e-01
5.132903260e-01,6.20474e-01,9.99999e-01,9.99999e-01,9.98609e-01,6.21338e-01,9.99998e-01
5.158567776e-01,6.26838e-01,9.99999e-01,9.99999e-01,9.99412e-01,6.27206e-01,9.99999e-01
5.184360615e-01,6.32863e-01,9.99999e-01,9.99999e-01,9.99764e-01,6.33012e-01,9.99999e-01
5.210282418e-01,6.38699e-01,9.99999e-01,9.99999e-01,9.99911e-01,6.38755e-01,9.99999e-01
5.236333830e-01,6.44207e-01,9.99999e-01,9.99999e-01,9.99647e-01,6.44436e-01,9.99997e-01
5.262515499e-01,6.49907e-01,9.99999e-01,9.99999e-01,9.99778e-01,6.50053e-01,9.99996e-01
5.288828077e-01,6.55473e-01,9.99999e-01,9.99999e-01,9.99797e-01,6.55607e-01,9.99997e-01
5.315272217e-01,6.60979e-01,9.99999e-01,9.99999e-01,9.99821e-01,6.61097e-01,9.99998e-01
5.341848578e-01,6.66446e-01,9.99999e-01,9.99999e-01,9.99883e-01,6.66524e-01,9.99999e-01
5.368557821e-01,6.71610e-01,9.99999e-01,9.99999e-01,9.99589e-01,6.71886e-01,9.99998e-01
5.395400610e-01,6.76175e-01,9.99999e-01,9.99999e-01,9.98521e-01,6.77184e-01,9.99987e-01
5.422377613e-01,6.81088e-01,9.99999e-01,9.99999e-01,9.98084e-01,6.82419e-01,9.99964e-01
5.449489501e-01,6.86341e-01,9.99999e-01,9.99999e-01,9.98220e-01,6.87589e-01,9.99963e-01
5.476736949e-01,6.91590e-01,9.99999e-01,9.99999e-01,9.98422e-01,6.92695e-01,9.99981e-01
5.504120634e-01,6.96935e-01,9.99999e-01,9.99999e-01,9.98854e-01,6.97737e-01,9.99994e-01
5.531641237e-01,7.02310e-01,9.99999e-01,9.99999e-01,9.99423e-01,7.02715e-01,9.99998e-01
5.559299443e-01,7.07432e-01,9.99999e-01,9.99999e-01,9.99721e-01,7.07629e-01,9.99999e-01
5.587095940e-01,7.12355e-01,9.99999e-01,9.99999e-01,9.99825e-01,7.12479e-01,9.99999e-01
5.615031420e-01,7.17127e-01,9.99999e-01,9.99999e-01,9.99805e-01,7.17266e-01,9.99999e-01
5.643106577e-01,7.21830e-01,9.99999e-01,9.99999e-01,9.99780e-01,7.21990e-01,9.99997e-01
5.671322110e-01,7.24699e-01,9.99999e-01,9.99999e-01,9.97337e-01,7.26650e-01,9.99975e-01
5.699678720e-01,7.29114e-01,9.99999e-01,9.99999e-01,9.97154e-01,7.31248e-01,9.99926e-01
5.728177114e-01,7.33561e-01,9.99999e-01,9.99999e-01,9.97040e-01,7.35783e-01,9.99938e-01
5.756818000e-01,7.38217e-01,9.99999e-01,9.99999e-01,9.97283e-01,7.40255e-01,9.99962e-01
5.785602090e-01,7.42894e-01,9.99999e-01,9.99999e-01,9.97631e-01,7.44666e-01,9.99988e-01
5.814530100e-01,7.47231e-01,9.99999e-01,9.99999e-01,9.97621e-01,7.49015e-01,9.99994e-01
5.843602750e-01,7.51160e-01,9.99999e-01,9.99999e-01,9.97170e-01,7.53303e-01,9.99983e-01
5.872820764e-01,7.39179e-01,9.99999e-01,9.99999e-01,9.75942e-01,7.57530e-01,9.99827e-01
5.902184868e-01,7.39092e-01,9.99999e-01,9.99999e-01,9.70776e-01,7.61697e-01,9.99531e-01
5.931695792e-01,7.49633e-01,9.99999e-01,9.99999e-01,9.79324e-01,7.65803e-01,9.99549e-01
5.961354271e-01,7.52192e-01,9.99999e-01,9.99999e-01,9.77315e-01,7.69850e-01,9.99741e-01
5.991161043e-01,7.60923e-01,9.99999e-01,9.99999e-01,9.83389e-01,7.73838e-01,9.99919e-01
6.021116848e-01,7.70402e-01,9.99999e-01,9.99999e-01,9.90539e-01,7.77767e-01,9.99989e-01
6.051222432e-01,7.77887e-01,9.99999e-01,9.99999e-01,9.95202e-01,7.81637e-01,9.99998e-01
6.081478544e-01,7.83823e-01,9.99999e-01,9.99999e-01,9.97928e-01,7.85450e-01,9.99999e-01
6.111885937e-01,7.88514e-01,9.99999e-01,9.99999e-01,9.99122e-01,7.89206e-01,9.99999e-01
6.142445367e-01,7.92595e-01,9.99999e-01,9.99999e-01,9.99608e-01,7.92905e-01,9.99999e-01
6.173157594e-01,7.96376e-01,9.99999e-01,9.99999e-01,9.99783e-01,7.96548e-01,9.99999e-01
6.204023382e-01,7.99988e-01,9.99999e-01,9.99999e-01,9.99817e-01,8.00135e-01,9.99999e-01
6.235043498e-01,8.03020e-01,9.99999e-01,9.99999e-01,9.99197e-01,8.03666e-01,9.99997e-01
6.266218716e-01,8.03686e-01,9.99999e-01,9.99999e-01,9.95745e-01,8.07144e-01,9.99969e-01
6.297549810e-01,8.09252e-01,9.99999e-01,9.99999e-01,9.98437e-01,8.10567e-01,9.99939e-01
6.329037559e-01,8.11384e-01,9.99999e-01,9.99999e-01,9.96912e-01,8.13936e-01,9.99951e-01
6.360682746e-01,8.15083e-01,9.99999e-01,9.99999e-01,9.97372e-01,8.17253e-01,9.99971e-01
6.392486160e-01,8.17713e-01,9.99999e-01,9.99999e-01,9.96594e-01,8.20517e-01,9.99986e-01
6.424448591e-01,8.19968e-01,9.99999e-01,9.99999e-01,9.95453e-01,8.23729e-01,9.99979e-01
6.456570834e-01,8.09494e-01,9.99999e-01,9.99999e-01,9.79076e-01,8.26891e-01,9.99882e-01
6.488853688e-01,8.16969e-01,9.99999e-01,9.99999e-01,9.84621e-01,8.30001e-01,9.99671e-01
6.521297956e-01,8.19795e-01,9.99999e-01,9.99999e-01,9.84341e-01,8.33061e-01,9.99728e-01
6.553904446e-01,8.22849e-01,9.99999e-01,9.99999e-01,9.84382e-01,8.36072e-01,9.99797e-01
6.586673968e-01,8.27747e-01,9.99999e-01,9.99999e-01,9.86613e-01,8.39034e-01,9.99932e-01
6.619607338e-01,8.35398e-01,9.99999e-01,9.99999e-01,9.92234e-01,8.41948e-01,9.99985e-01
6.652705375e-01,8.41004e-01,9.99999e-01,9.99999e-01,9.95496e-01,8.44814e-01,9.99992e-01
6.685968902e-01,8.45857e-01,9.99999e-01,9.99999e-01,9.97905e-01,8.47633e-01,9.99998e-01
6.719398746e-01,8.49580e-01,9.99999e-01,9.99999e-01,9.99029e-01,8.50405e-01,9.99999e-01
6.752995740e-01,8.52683e-01,9.99999e-01,9.99999e-01,9.99473e-01,8.53131e-01,9.99999e-01
6.786760719e-01,8.55162e-01,9.99999e-01,9.99999e-01,9.99241e-01,8.55812e-01,9.99998e-01
6.820694522e-01,8.57327e-01,9.99999e-01,9.99999e-01,9.98700e-01,8.58448e-01,9.99992e-01
6.854797995e-01,8.59586e-01,9.99999e-01,9.99999e-01,9.98324e-01,8.61040e-01,9.99985e-01
6.889071985e-01,8.60071e-01,9.99999e-01,9.99999e-01,9.95963e-01,8.63588e-01,9.99963e-01
6.923517345e-01,8.10576e-01,9.99999e-01,9.99999e-01,9.36194e-01,8.66094e-01,9.99682e-01
6.958134932e-01,8.38644e-01,9.99999e-01,9.99999e-01,9.66239e-01,8.68557e-01,9.99297e-01
6.992925606e-01,8.42450e-01,9.99999e-01,9.99999e-01,9.67858e-01,8.70978e-01,9.99366e-01
7.027890234e-01,8.38370e-01,9.99999e-01,9.99999e-01,9.60403e-01,8.73357e-01,9.99516e-01
7.063029686e-01,8.46209e-01,9.99999e-01,9.99999e-01,9.66558e-01,8.75696e-01,9.99758e-01
7.098344834e-01,8.49670e-01,9.99999e-01,9.99999e-01,9.67875e-01,8.77995e-01,9.99857e-01
7.133836558e-01,8.42788e-01,9.99999e-01,9.99999e-01,9.57706e-01,8.80255e-01,9.99716e-01
7.169505741e-01,6.28928e-01,9.99999e-01,9.99999e-01,7.14273e-01,8.82475e-01,9.97775e-01
7.205353270e-01,7.45496e-01,9.99999e-01,9.99999e-01,8.46010e-01,8.84657e-01,9.96079e-01
7.241380036e-01,7.14323e-01,9.99999e-01,9.99999e-01,8.08241e-01,8.86801e-01,9.96613e-01
7.277586936e-01,7.31605e-01,9.99999e-01,9.99999e-01,8.25321e-01,8.88908e-01,9.97230e-01
7.313974871e-01,7.24059e-01,9.99999e-01,9.99999e-01,8.13711e-01,8.90978e-01,9.98701e-01
7.350544745e-01,7.97111e-01,9.99999e-01,9.99999e-01,8.93011e-01,8.93012e-01,9.99548e-01
7.387297469e-01,8.23015e-01,9.99999e-01,9.99999e-01,9.19749e-01,8.95010e-01,9.99792e-01
7.424233956e-01,8.60880e-01,9.99999e-01,9.99999e-01,9.59798e-01,8.96973e-01,9.99959e-01
7.461355126e-01,8.76812e-01,9.99999e-01,9.99999e-01,9.75432e-01,8.98902e-01,9.99992e-01
7.498661902e-01,8.90416e-01,9.99999e-01,9.99999e-01,9.88478e-01,9.00796e-01,9.99997e-01
7.536155211e-01,8.97542e-01,9.99999e-01,9.99999e-01,9.94334e-01,9.02657e-01,9.99998e-01
7.573835987e-01,9.01844e-01,9.99999e-01,9.99999e-01,9.97080e-01,9.04485e-01,9.99999e-01
7.611705167e-01,9.04636e-01,9.99999e-01,9.99999e-01,9.98184e-01,9.06280e-01,9.99999e-01
7.649763693e-01,9.07011e-01,9.99999e-01,9.99999e-01,9.98862e-01,9.08043e-01,9.99999e-01
7.688012511e-01,9.09055e-01,9.99999e-01,9.99999e-01,9.99207e-01,9.09775e-01,9.99999e-01
7.726452574e-01,9.10882e-01,9.99999e-01,9.99999e-01,9.99348e-01,9.11476e-01,9.99999e-01
7.765084837e-01,9.12301e-01,9.99999e-01,9.99999e-01,9.99074e-01,9.13146e-01,9.99998e-01
7.803910261e-01,9.11133e-01,9.99999e-01,9.99999e-01,9.96009e-01,9.14787e-01,9.99995e-01
7.842929812e-01,9.03677e-01,9.99999e-01,9.99999e-01,9.86144e-01,9.16397e-01,9.99973e-01
7.882144461e-01,8.91756e-01,9.99999e-01,9.99999e-01,9.71603e-01,9.17979e-01,9.99823e-01
7.921555184e-01,9.04812e-01,9.99999e-01,9.99999e-01,9.84326e-01,9.19532e-01,9.99659e-01
7.961162960e-01,8.95466e-01,9.99999e-01,9.99999e-01,9.72532e-01,9.21057e-01,9.99673e-01
8.000968774e-01,8.92943e-01,9.99999e-01,9.99999e-01,9.68238e-01,9.22554e-01,9.99652e-01
8.040973618e-01,8.94449e-01,9.99999e-01,9.99999e-01,9.68259e-01,9.24024e-01,9.99723e-01
8.081178486e-01,8.60795e-01,9.99999e-01,9.99999e-01,9.30358e-01,9.25468e-01,9.99741e-01
8.121584379e-01,6.88772e-01,9.99999e-01,9.99999e-01,7.43859e-01,9.26885e-01,9.98984e-01
8.162192301e-01,6.51674e-01,9.99999e-01,9.99999e-01,7.04713e-01,9.28276e-01,9.96185e-01
8.203003262e-01,7.82861e-01,9.99999e-01,9.99999e-01,8.45887e-01,9.29641e-01,9.95535e-01
8.244018279e-01,7.37505e-01,9.99999e-01,9.99999e-01,7.95004e-01,9.30982e-01,9.96444e-01
8.285238370e-01,7.52613e-01,9.99999e-01,9.99999e-01,8.09527e-01,9.32298e-01,9.97206e-01
8.326664562e-01,7.53706e-01,9.99999e-01,9.99999e-01,8.08254e-01,9.33590e-01,9.98843e-01
8.368297885e-01,8.01182e-01,9.99999e-01,9.99999e-01,8.57235e-01,9.34858e-01,9.99735e-01
8.410139374e-01,8.53825e-01,9.99999e-01,9.99999e-01,9.12246e-01,9.36103e-01,9.99845e-01
8.452190071e-01,8.95854e-01,9.99999e-01,9.99999e-01,9.55844e-01,9.37324e-01,9.99907e-01
8.494451021e-01,9.14170e-01,9.99999e-01,9.99999e-01,9.74123e-01,9.38523e-01,9.99925e-01
8.536923276e-01,9.25197e-01,9.99999e-01,9.99999e-01,9.84609e-01,9.39700e-01,9.99954e-01
8.579607893e-01,9.31907e-01,9.99999e-01,9.99999e-01,9.90498e-01,9.40855e-01,9.99988e-01
8.622505932e-01,9.36290e-01,9.99999e-01,9.99999e-01,9.93951e-01,9.41989e-01,9.99997e-01
8.665618462e-01,9.39572e-01,9.99999e-01,9.99999e-01,9.96257e-01,9.43102e-01,9.99998e-01
8.708946554e-01,9.40148e-01,9.99999e-01,9.99999e-01,9.95717e-01,9.44194e-01,9.99997e-01
8.752491287e-01,9.39846e-01,9.99999e-01,9.99999e-01,9.94272e-01,9.45265e-01,9.99993e-01
8.796253743e-01,9.38807e-01,9.99999e-01,9.99999e-01,9.92081e-01,9.46317e-01,9.99981e-01
8.840235012e-01,9.38734e-01,9.99999e-01,9.99999e-01,9.90960e-01,9.47349e-01,9.99944e-01
8.884436187e-01,9.17719e-01,9.99999e-01,9.99999e-01,9.67840e-01,9.48361e-01,9.99842e-01
8.928858368e-01,6.77850e-01,9.99999e-01,9.99999e-01,7.14658e-01,9.49355e-01,9.99093e-01
8.973502660e-01,5.24902e-01,9.99999e-01,9.99999e-01,5.54910e-01,9.50330e-01,9.95361e-01
9.018370173e-01,6.98910e-01,9.99999e-01,9.99999e-01,7.40089e-01,9.51287e-01,9.92716e-01
9.063462024e-01,7.24647e-01,9.99999e-01,9.99999e-01,7.65904e-01,9.52226e-01,9.93599e-01
9.108779334e-01,6.25087e-01,9.99999e-01,9.99999e-01,6.60203e-01,9.53147e-01,9.93349e-01
9.154323231e-01,5.89375e-01,9.99999e-01,9.99999e-01,6.21176e-01,9.54051e-01,9.94499e-01
9.200094847e-01,6.57572e-01,9.99999e-01,9.99999e-01,6.90730e-01,9.54938e-01,9.96917e-01
9.246095321e-01,5.54385e-01,9.99999e-01,9.99999e-01,5.82083e-01,9.55808e-01,9.96449e-01
9.292325798e-01,4.81238e-02,9.99999e-01,9.99999e-01,5.10064e-02,9.56661e-01,9.86225e-01
9.338787427e-01,1.44873e-02,9.99999e-01,9.99999e-01,1.60232e-02,9.57499e-01,9.44275e-01
9.385481364e-01,1.65497e-01,9.99999e-01,9.99999e-01,1.84882e-01,9.58321e-01,9.34079e-01
9.432408771e-01,9.96084e-02,9.99999e-01,9.99999e-01,1.10146e-01,9.59127e-01,9.42864e-01
9.479570815e-01,3.77331e-02,9.99999e-01,9.99999e-01,4.12365e-02,9.59918e-01,9.53246e-01
9.526968669e-01,7.66351e-02,9.99999e-01,9.99999e-01,8.21346e-02,9.60694e-01,9.71217e-01
9.574603512e-01,8.63430e-02,9.99999e-01,9.99999e-01,9.11465e-02,9.61455e-01,9.85274e-01
9.622476530e-01,1.27788e-01,9.99999e-01,9.99999e-01,1.34177e-01,9.62202e-01,9.89794e-01
9.670588912e-01,2.93107e-01,9.99999e-01,9.99999e-01,3.06532e-01,9.62934e-01,9.93008e-01
9.718941857e-01,4.35990e-01,9.99999e-01,9.99999e-01,4.54777e-01,9.63653e-01,9.94848e-01
9.767536566e-01,4.98270e-01,9.99999e-01,9.99999e-01,5.18728e-01,9.64358e-01,9.96060e-01
9.816374249e-01,5.88524e-01,9.99999e-01,9.99999e-01,6.10671e-01,9.65049e-01,9.98634e-01
9.865456120e-01,7.07614e-01,9.99999e-01,9.99999e-01,7.32934e-01,9.65728e-01,9.99715e-01
9.914783401e-01,7.96555e-01,9.99999e-01,9.99999e-01,8.24319e-01,9.66393e-01,9.99920e-01
9.964357318e-01,8.70356e-01,9.99999e-01,9.99999e-01,9.00056e-01,9.67046e-01,9.99953e-01
1.001417910e+00,9.08342e-01,9.99999e-01,9.99999e-01,9.38739e-01,9.67686e-01,9.99929e-01
1.006425000e+00,9.33928e-01,9.99999e-01,9.99999e-01,9.64584e-01,9.68314e-01,9.99899e-01
1.011457125e+00,9.47395e-01,9.99999e-01,9.99999e-01,9.77864e-01,9.68930e-01,9.99906e-01
1.016514411e+00,9.54850e-01,9.99999e-01,9.99999e-01,9.84918e-01,9.69535e-01,9.99933e-01
1.021596983e+00,9.58390e-01,9.99999e-01,9.99999e-01,9.87965e-01,9.70127e-01,9.99933e-01
1.026704968e+00,9.61544e-01,9.99999e-01,9.99999e-01,9.90602e-01,9.70709e-01,9.99955e-01
1.031838492e+00,9.64624e-01,9.99999e-01,9.99999e-01,9.93160e-01,9.71279e-01,9.99987e-01
1.036997685e+00,9.67885e-01,9.99999e-01,9.99999e-01,9.95933e-01,9.71838e-01,9.99997e-01
1.042182673e+00,9.67676e-01,9.99999e-01,9.99999e-01,9.95156e-01,9.72386e-01,9.99998e-01
1.047393587e+00,9.66677e-01,9.99999e-01,9.99999e-01,9.93579e-01,9.72924e-01,9.99998e-01
1.052630555e+00,9.64885e-01,9.99999e-01,9.99999e-01,9.91201e-01,9.73452e-01,9.99997e-01
1.057893707e+00,9.59707e-01,9.99999e-01,9.99999e-01,9.85360e-01,9.73970e-01,9.99994e-01
1.063183176e+00,9.51112e-01,9.99999e-01,9.99999e-01,9.76034e-01,9.74477e-01,9.99986e-01
1.068499092e+00,9.36158e-01,9.99999e-01,9.99999e-01,9.60212e-01,9.74975e-01,9.99972e-01
1.073841587e+00,9.30282e-01,9.99999e-01,9.99999e-01,9.53738e-01,9.75463e-01,9.99939e-01
1.079210795e+00,9.18186e-01,9.99999e-01,9.99999e-01,9.40972e-01,9.75942e-01,9.99837e-01
1.084606849e+00,8.90385e-01,9.99999e-01,9.99999e-01,9.12250e-01,9.76411e-01,9.99609e-01
1.090029883e+00,8.56163e-01,9.99999e-01,9.99999e-01,8.77142e-01,9.76872e-01,9.99190e-01
1.095480033e+00,6.83425e-01,9.99999e-01,9.99999e-01,7.00306e-01,9.77323e-01,9.98535e-01
1.100957433e+00,4.04496e-01,9.99999e-01,9.99999e-01,4.14810e-01,9.77766e-01,9.97307e-01
1.106462220e+00,1.24208e-01,9.99999e-01,9.99999e-01,1.27558e-01,9.78201e-01,9.95436e-01
1.111994531e+00,1.48735e-02,9.99999e-01,9.99999e-01,1.53840e-02,9.78627e-01,9.87930e-01
1.117554504e+00,1.72880e-03,9.99999e-01,9.99999e-01,1.84493e-03,9.79044e-01,9.57108e-01
1.123142276e+00,1.34374e-02,9.99999e-01,9.99999e-01,1.52222e-02,9.79454e-01,9.01261e-01
1.128757988e+00,3.84422e-02,9.99999e-01,9.99999e-01,4.42462e-02,9.79856e-01,8.86685e-01
1.134401778e+00,1.97178e-02,9.99999e-01,9.99999e-01,2.22809e-02,9.80249e-01,9.02793e-01
1.140073787e+00,1.21680e-01,9.99999e-01,9.99999e-01,1.34647e-01,9.80636e-01,9.21543e-01
1.145774156e+00,2.41795e-02,9.99999e-01,9.99999e-01,2.65614e-02,9.81015e-01,9.27938e-01
1.151503026e+00,1.57419e-02,9.99999e-01,9.99999e-01,1.67228e-02,9.81386e-01,9.59191e-01
1.157260541e+00,2.06021e-02,9.99999e-01,9.99999e-01,2.12481e-02,9.81750e-01,9.87619e-01
1.163046844e+00,5.50660e-02,9.99999e-01,9.99999e-01,5.62675e-02,9.82108e-01,9.96475e-01
1.168862078e+00,1.19532e-01,9.99999e-01,9.99999e-01,1.21887e-01,9.82458e-01,9.98182e-01
1.174706389e+00,2.63508e-01,9.99999e-01,9.99999e-01,2.68766e-01,9.82801e-01,9.97591e-01
1.180579921e+00,4.35084e-01,9.99999e-01,9.99999e-01,4.44162e-01,9.83138e-01,9.96360e-01
1.186482820e+00,6.14189e-01,9.99999e-01,9.99999e-01,6.26854e-01,9.83468e-01,9.96264e-01
1.192415234e+00,7.45534e-01,9.99999e-01,9.99999e-01,7.59942e-01,9.83792e-01,9.97201e-01
1.198377311e+00,7.79046e-01,9.99999e-01,9.99999e-01,7.93722e-01,9.84110e-01,9.97356e-01
1.204369197e+00,7.90555e-01,9.99999e-01,9.99999e-01,8.04990e-01,9.84421e-01,9.97607e-01
1.210391043e+00,7.98247e-01,9.99999e-01,9.99999e-01,8.11809e-01,9.84727e-01,9.98544e-01
1.216442998e+00,8.24159e-01,9.99999e-01,9.99999e-01,8.37433e-01,9.85026e-01,9.99107e-01
1.222525213e+00,8.57214e-01,9.99999e-01,9.99999e-01,8.70467e-01,9.85320e-01,9.99445e-01
1.228637839e+00,8.94771e-01,9.99999e-01,9.99999e-01,9.08070e-01,9.85607e-01,9.99741e-01
