#,Wave/freq,Total,N2,O2,H2O,Rayleigh,CIA
4.000000000e-01,8.45515e-01,9.99999e-01,9.99999e-01,9.99980e-01,8.45531e-01,9.99999e-01
4.020000000e-01,8.48331e-01,9.99999e-01,9.99999e-01,9.99987e-01,8.48341e-01,9.99999e-01
4.040100000e-01,8.51097e-01,9.99999e-01,9.99999e-01,9.99994e-01,8.51101e-01,9.99999e-01
4.060300500e-01,8.53815e-01,9.99999e-01,9.99999e-01,9.99998e-01,8.53816e-01,9.99999e-01
4.080602003e-01,8.56485e-01,9.99999e-01,9.99999e-01,9.99999e-01,8.56486e-01,9.99999e-01
4.101005013e-01,8.59110e-01,9.99999e-01,9.99999e-01,9.99999e-01,8.59110e-01,9.99999e-01
4.121510038e-01,8.61691e-01,9.99999e-01,9.99999e-01,9.99998e-01,8.61691e-01,9.99999e-01
4.142117588e-01,8.64224e-01,9.99999e-01,9.99999e-01,9.99994e-01,8.64229e-01,9.99999e-01
4.162828176e-01,8.66703e-01,9.99999e-01,9.99999e-01,9.99976e-01,8.66723e-01,9.99999e-01
4.183642317e-01,8.69163e-01,9.99999e-01,9.99999e-01,9.99985e-01,8.69175e-01,9.99999e-01
4.204560528e-01,8.71578e-01,9.99999e-01,9.99999e-01,9.99990e-01,8.71586e-01,9.99999e-01
4.225583331e-01,8.73952e-01,9.99999e-01,9.99999e-01,9.99996e-01,8.73955e-01,9.99999e-01
4.246711247e-01,8.76282e-01,9.99999e-01,9.99999e-01,9.99996e-01,8.76284e-01,9.99999e-01
4.267944804e-01,8.78570e-01,9.99999e-01,9.99999e-01,9.99995e-01,8.78573e-01,9.99999e-01
4.289284528e-01,8.80820e-01,9.99999e-01,9.99999e-01,9.99996e-01,8.80822e-01,9.99999e-01
4.310730950e-01,8.83032e-01,9.99999e-01,9.99999e-01,9.99998e-01,8.83033e-01,9.99999e-01
4.332284605e-01,8.85205e-01,9.99999e-01,9.99999e-01,9.99999e-01,8.85205e-01,9.99999e-01
4.353946028e-01,8.87340e-01,9.99999e-01,9.99999e-01,9.99999e-01,8.87340e-01,9.99999e-01
4.375715758e-01,8.89435e-01,9.99999e-01,9.99999e-01,9.99997e-01,8.89437e-01,9.99999e-01
4.397594337e-01,8.91480e-01,9.99999e-01,9.99999e-01,9.99978e-01,8.91498e-01,9.99999e-01
4.419582309e-01,8.93429e-01,9.99999e-01,9.99999e-01,9.99894e-01,8.93523e-01,9.99999e-01
4.441680220e-01,8.95439e-01,9.99999e-01,9.99999e-01,9.99918e-01,8.95512e-01,9.99999e-01
4.463888621e-01,8.97390e-01,9.99999e-01,9.99999e-01,9.99914e-01,8.97466e-01,9.99999e-01
4.486208064e-01,8.99339e-01,9.99999e-01,9.99999e-01,9.99946e-01,8.99386e-01,9.99999e-01
4.508639105e-01,9.01250e-01,9.99999e-01,9.99999e-01,9.99974e-01,9.01272e-01,9.99999e-01
4.531182300e-01,9.03115e-01,9.99999e-01,9.99999e-01,9.99989e-01,9.03124e-01,9.99999e-01
4.553838212e-01,9.04938e-01,9.99999e-01,9.99999e-01,9.99992e-01,9.04944e-01,9.99999e-01
4.576607403e-01,9.06728e-01,9.99999e-01,9.99999e-01,9.99996e-01,9.06731e-01,9.99999e-01
4.599490440e-01,9.08484e-01,9.99999e-01,9.99999e-01,9.99997e-01,9.08486e-01,9.99999e-01
4.622487892e-01,9.10210e-01,9.99999e-01,9.99999e-01,9.99999e-01,9.10210e-01,9.99999e-01
4.645600332e-01,9.11902e-01,9.99999e-01,9.99999e-01,9.99998e-01,9.11903e-01,9.99999e-01
4.668828333e-01,9.13543e-01,9.99999e-01,9.99999e-01,9.99974e-01,9.13566e-01,9.99999e-01
4.692172475e-01,9.15150e-01,9.99999e-01,9.99999e-01,9.99946e-01,9.15198e-01,9.99999e-01
4.715633337e-01,9.16770e-01,9.99999e-01,9.99999e-01,9.99964e-01,9.16802e-01,9.99999e-01
4.739211504e-01,9.18346e-01,9.99999e-01,9.99999e-01,9.99966e-01,9.18376e-01,9.99999e-01
4.762907561e-01,9.19906e-01,9.99999e-01,9.99999e-01,9.99982e-01,9.19922e-01,9.99999e-01
4.786722099e-01,9.21433e-01,9.99999e-01,9.99999e-01,9.99992e-01,9.21440e-01,9.99999e-01
4.810655710e-01,9.22928e-01,9.99999e-01,9.99999e-01,9.99997e-01,9.22930e-01,9.99999e-01
4.834708988e-01,9.24374e-01,9.99999e-01,9.99999e-01,9.99978e-01,9.24393e-01,9.99999e-01
4.858882533e-01,9.25795e-01,9.99999e-01,9.99999e-01,9.99961e-01,9.25830e-01,9.99999e-01
4.883176946e-01,9.27211e-01,9.99999e-01,9.99999e-01,9.99967e-01,9.27240e-01,9.99999e-01
4.907592831e-01,9.28599e-01,9.99999e-01,9.99999e-01,9.99971e-01,9.28625e-01,9.99999e-01
4.932130795e-01,9.29965e-01,9.99999e-01,9.99999e-01,9.99979e-01,9.29984e-01,9.99999e-01
4.956791449e-01,9.31309e-01,9.99999e-01,9.99999e-01,9.99988e-01,9.31319e-01,9.99999e-01
4.981575406e-01,9.32578e-01,9.99999e-01,9.99999e-01,9.99945e-01,9.32628e-01,9.99999e-01
5.006483283e-01,9.33783e-01,9.99999e-01,9.99999e-01,9.99859e-01,9.33914e-01,9.99998e-01
5.031515699e-01,9.34510e-01,9.99999e-01,9.99999e-01,9.99294e-01,9.35176e-01,9.99992e-01
5.056673278e-01,9.36060e-01,9.99999e-01,9.99999e-01,9.99628e-01,9.36415e-01,9.99991e-01
5.081956644e-01,9.37187e-01,9.99999e-01,9.99999e-01,9.99531e-01,9.37631e-01,9.99994e-01
5.107366428e-01,9.38527e-01,9.99999e-01,9.99999e-01,9.99683e-01,9.38824e-01,9.99998e-01
5.132903260e-01,9.39826e-01,9.99999e-01,9.99999e-01,9.99819e-01,9.39996e-01,9.99999e-01
5.158567776e-01,9.41074e-01,9.99999e-01,9.99999e-01,9.99923e-01,9.41145e-01,9.99999e-01
5.184360615e-01,9.42245e-01,9.99999e-01,9.99999e-01,9.99969e-01,9.42274e-01,9.99999e-01
5.210282418e-01,9.43370e-01,9.99999e-01,9.99999e-01,9.99988e-01,9.43381e-01,9.99999e-01
5.236333830e-01,9.44424e-01,9.99999e-01,9.99999e-01,9.99953e-01,9.44468e-01,9.99999e-01
5.262515499e-01,9.45507e-01,9.99999e-01,9.99999e-01,9.99970e-01,9.45534e-01,9.99999e-01
5.288828077e-01,9.46555e-01,9.99999e-01,9.99999e-01,9.99973e-01,9.46581e-01,9.99999e-01
5.315272217e-01,9.47586e-01,9.99999e-01,9.99999e-01,9.99976e-01,9.47608e-01,9.99999e-01
5.341848578e-01,9.48601e-01,9.99999e-01,9.99999e-01,9.99984e-01,9.48615e-01,9.99999e-01
5.368557821e-01,9.49553e-01,9.99999e-01,9.99999e-01,9.99945e-01,9.49604e-01,9.99999e-01
5.395400610e-01,9.50389e-01,9.99999e-01,9.99999e-01,9.99805e-01,9.50575e-01,9.99997e-01
5.422377613e-01,9.51286e-01,9.99999e-01,9.99999e-01,9.99750e-01,9.51527e-01,9.99994e-01
5.449489501e-01,9.52236e-01,9.99999e-01,9.99999e-01,9.99767e-01,9.52461e-01,9.99994e-01
5.476736949e-01,9.53181e-01,9.99999e-01,9.99999e-01,9.99794e-01,9.53378e-01,9.99997e-01
5.504120634e-01,9.54135e-01,9.99999e-01,9.99999e-01,9.99850e-01,9.54278e-01,9.99998e-01
5.531641237e-01,9.55089e-01,9.99999e-01,9.99999e-01,9.99924e-01,9.55160e-01,9.99999e-01
5.559299443e-01,9.55992e-01,9.99999e-01,9.99999e-01,9.99963e-01,9.56026e-01,9.99999e-01
5.587095940e-01,9.56854e-01,9.99999e-01,9.99999e-01,9.99976e-01,9.56876e-01,9.99999e-01
5.615031420e-01,9.57685e-01,9.99999e-01,9.99999e-01,9.99974e-01,9.57709e-01,9.99999e-01
5.643106577e-01,9.58499e-01,9.99999e-01,9.99999e-01,9.99970e-01,9.58527e-01,9.99999e-01
5.671322110e-01,9.58989e-01,9.99999e-01,9.99999e-01,9.99647e-01,9.59329e-01,9.99996e-01
5.699678720e-01,9.59753e-01,9.99999e-01,9.99999e-01,9.99631e-01,9.60116e-01,9.99990e-01
5.728177114e-01,9.60510e-01,9.99999e-01,9.99999e-01,9.99613e-01,9.60888e-01,9.99991e-01
5.756818000e-01,9.61301e-01,9.99999e-01,9.99999e-01,9.99645e-01,9.61646e-01,9.99994e-01
5.785602090e-01,9.62091e-01,9.99999e-01,9.99999e-01,9.99691e-01,9.62389e-01,9.99998e-01
5.814530100e-01,9.62819e-01,9.99999e-01,9.99999e-01,9.99689e-01,9.63118e-01,9.99998e-01
5.843602750e-01,9.63474e-01,9.99999e-01,9.99999e-01,9.99628e-01,9.63833e-01,9.99997e-01
5.872820764e-01,9.61433e-01,9.99999e-01,9.99999e-01,9.96805e-01,9.64535e-01,9.99977e-01
5.902184868e-01,9.61449e-01,9.99999e-01,9.99999e-01,9.96150e-01,9.65223e-01,9.99938e-01
5.931695792e-01,9.63210e-01,9.99999e-01,9.99999e-01,9.97274e-01,9.65898e-01,9.99940e-01
5.961354271e-01,9.63645e-01,9.99999e-01,9.99999e-01,9.97016e-01,9.66560e-01,9.99965e-01
5.991161043e-01,9.65097e-01,9.99999e-01,9.99999e-01,9.97825e-01,9.67210e-01,9.99989e-01
6.021116848e-01,9.66652e-01,9.99999e-01,9.99999e-01,9.98766e-01,9.67847e-01,9.99998e-01
6.051222432e-01,9.67868e-01,9.99999e-01,9.99999e-01,9.99375e-01,9.68472e-01,9.99999e-01
6.081478544e-01,9.68824e-01,9.99999e-01,9.99999e-01,9.99730e-01,9.69085e-01,9.99999e-01
6.111885937e-01,9.69576e-01,9.99999e-01,9.99999e-01,9.99885e-01,9.69686e-01,9.99999e-01
6.142445367e-01,9.70227e-01,9.99999e-01,9.99999e-01,9.99948e-01,9.70276e-01,9.99999e-01
6.173157594e-01,9.70827e-01,9.99999e-01,9.99999e-01,9.99971e-01,9.70854e-01,9.99999e-01
6.204023382e-01,9.71399e-01,9.99999e-01,9.99999e-01,9.99975e-01,9.71422e-01,9.99999e-01
6.235043498e-01,9.71875e-01,9.99999e-01,9.99999e-01,9.99893e-01,9.71978e-01,9.99999e-01
6.266218716e-01,9.71981e-01,9.99999e-01,9.99999e-01,9.99444e-01,9.72524e-01,9.99995e-01
6.297549810e-01,9.72854e-01,9.99999e-01,9.99999e-01,9.99796e-01,9.73059e-01,9.99991e-01
6.329037559e-01,9.73187e-01,9.99999e-01,9.99999e-01,9.99598e-01,9.73584e-01,9.99993e-01
6.360682746e-01,9.73762e-01,9.99999e-01,9.99999e-01,9.99656e-01,9.74099e-01,9.99995e-01
6.392486160e-01,9.74170e-01,9.99999e-01,9.99999e-01,9.99555e-01,9.74604e-01,9.99997e-01
6.424448591e-01,9.74515e-01,9.99999e-01,9.99999e-01,9.99402e-01,9.75100e-01,9.99996e-01
6.456570834e-01,9.72869e-01,9.99999e-01,9.99999e-01,9.97231e-01,9.75585e-01,9.99982e-01
6.488853688e-01,9.74053e-01,9.99999e-01,9.99999e-01,9.97984e-01,9.76062e-01,9.99956e-01
6.521297956e-01,9.74489e-01,9.99999e-01,9.99999e-01,9.97945e-01,9.76529e-01,9.99964e-01
6.553904446e-01,9.74960e-01,9.99999e-01,9.99999e-01,9.97950e-01,9.76987e-01,9.99973e-01
6.586673968e-01,9.75716e-01,9.99999e-01,9.99999e-01,9.98248e-01,9.77437e-01,9.99990e-01
6.619607338e-01,9.76921e-01,9.99999e-01,9.99999e-01,9.99023e-01,9.77877e-01,9.99997e-01
6.652705375e-01,9.77736e-01,9.99999e-01,9.99999e-01,9.99413e-01,9.78310e-01,9.99998e-01
6.685968902e-01,9.78490e-01,9.99999e-01,9.99999e-01,9.99750e-01,9.78733e-01,9.99999e-01
6.719398746e-01,9.79026e-01,9.99999e-01,9.99999e-01,9.99873e-01,9.79149e-01,9.99999e-01
6.752995740e-01,9.79490e-01,9.99999e-01,9.99999e-01,9.99931e-01,9.79557e-01,9.99999e-01
6.786760719e-01,9.79859e-01,9.99999e-01,9.99999e-01,9.99900e-01,9.79956e-01,9.99999e-01
6.820694522e-01,9.80182e-01,9.99999e-01,9.99999e-01,9.99830e-01,9.80348e-01,9.99998e-01
6.854797995e-01,9.80517e-01,9.99999e-01,9.99999e-01,9.99781e-01,9.80733e-01,9.99997e-01
6.889071985e-01,9.80582e-01,9.99999e-01,9.99999e-01,9.99466e-01,9.81110e-01,9.99994e-01
6.923517345e-01,9.72959e-01,9.99999e-01,9.99999e-01,9.91359e-01,9.81479e-01,9.99958e-01
6.958134932e-01,9.77383e-01,9.99999e-01,9.99999e-01,9.95549e-01,9.81842e-01,9.99908e-01
6.992925606e-01,9.77918e-01,9.99999e-01,9.99999e-01,9.95725e-01,9.82197e-01,9.99917e-01
7.027890234e-01,9.77323e-01,9.99999e-01,9.99999e-01,9.94746e-01,9.82546e-01,9.99936e-01
7.063029686e-01,9.78514e-01,9.99999e-01,9.99999e-01,9.95580e-01,9.82887e-01,9.99968e-01
7.098344834e-01,9.79036e-01,9.99999e-01,9.99999e-01,9.95759e-01,9.83223e-01,9.99980e-01
7.133836558e-01,9.77921e-01,9.99999e-01,9.99999e-01,9.94311e-01,9.83551e-01,9.99962e-01
7.169505741e-01,9.39504e-01,9.99999e-01,9.99999e-01,9.55179e-01,9.83874e-01,9.99709e-01
7.205353270e-01,9.62094e-01,9.99999e-01,9.99999e-01,9.78048e-01,9.84190e-01,9.99488e-01
7.241380036e-01,9.56478e-01,9.99999e-01,9.99999e-01,9.71965e-01,9.84499e-01,9.99558e-01
7.277586936e-01,9.59523e-01,9.99999e-01,9.99999e-01,9.74680e-01,9.84803e-01,9.99638e-01
7.313974871e-01,9.58542e-01,9.99999e-01,9.99999e-01,9.73202e-01,9.85101e-01,9.99830e-01
7.350544745e-01,9.70821e-01,9.99999e-01,9.99999e-01,9.85268e-01,9.85393e-01,9.99940e-01
7.387297469e-01,9.74958e-01,9.99999e-01,9.99999e-01,9.89148e-01,9.85680e-01,9.99972e-01
7.424233956e-01,9.80716e-01,9.99999e-01,9.99999e-01,9.94684e-01,9.85960e-01,9.99994e-01
7.461355126e-01,9.83054e-01,9.99999e-01,9.99999e-01,9.96773e-01,9.86236e-01,9.99998e-01
7.498661902e-01,9.85026e-01,9.99999e-01,9.99999e-01,9.98499e-01,9.86506e-01,9.99999e-01
7.536155211e-01,9.86043e-01,9.99999e-01,9.99999e-01,9.99262e-01,9.86771e-01,9.99999e-01
7.573835987e-01,9.86656e-01,9.99999e-01,9.99999e-01,9.99620e-01,9.87030e-01,9.99999e-01
7.611705167e-01,9.87052e-01,9.99999e-01,9.99999e-01,9.99763e-01,9.87285e-01,9.99999e-01
7.649763693e-01,9.87388e-01,9.99999e-01,9.99999e-01,9.99851e-01,9.87534e-01,9.99999e-01
7.688012511e-01,9.87677e-01,9.99999e-01,9.99999e-01,9.99896e-01,9.87779e-01,9.99999e-01
7.726452574e-01,9.87935e-01,9.99999e-01,9.99999e-01,9.99914e-01,9.88019e-01,9.99999e-01
7.765084837e-01,9.88134e-01,9.99999e-01,9.99999e-01,9.99878e-01,9.88254e-01,9.99999e-01
7.803910261e-01,9.87967e-01,9.99999e-01,9.99999e-01,9.99476e-01,9.88485e-01,9.99999e-01
7.842929812e-01,9.86901e-01,9.99999e-01,9.99999e-01,9.98172e-01,9.88711e-01,9.99996e-01
7.882144461e-01,9.85204e-01,9.99999e-01,9.99999e-01,9.96254e-01,9.88933e-01,9.99973e-01
7.921555184e-01,9.87079e-01,9.99999e-01,9.99999e-01,9.97950e-01,9.89150e-01,9.99954e-01
7.961162960e-01,9.85718e-01,9.99999e-01,9.99999e-01,9.96356e-01,9.89363e-01,9.99957e-01
8.000968774e-01,9.85379e-01,9.99999e-01,9.99999e-01,9.95806e-01,9.89572e-01,9.99954e-01
8.040973618e-01,9.85589e-01,9.99999e-01,9.99999e-01,9.95802e-01,9.89777e-01,9.99965e-01
8.081178486e-01,9.80562e-01,9.99999e-01,9.99999e-01,9.90522e-01,9.89978e-01,9.99964e-01
8.121584379e-01,9.51495e-01,9.99999e-01,9.99999e-01,9.61062e-01,9.90175e-01,9.99867e-01
8.162192301e-01,9.44505e-01,9.99999e-01,9.99999e-01,9.54164e-01,9.90368e-01,9.99502e-01
8.203003262e-01,9.66861e-01,9.99999e-01,9.99999e-01,9.76646e-01,9.90557e-01,9.99417e-01
8.244018279e-01,9.58513e-01,9.99999e-01,9.99999e-01,9.67917e-01,9.90743e-01,9.99536e-01
8.285238370e-01,9.63149e-01,9.99999e-01,9.99999e-01,9.72323e-01,9.90925e-01,9.99635e-01
8.326664562e-01,9.63289e-01,9.99999e-01,9.99999e-01,9.72082e-01,9.91103e-01,9.99848e-01
8.368297885e-01,9.71436e-01,9.99999e-01,9.99999e-01,9.80016e-01,9.91278e-01,9.99965e-01
8.410139374e-01,9.79620e-01,9.99999e-01,9.99999e-01,9.88087e-01,9.91450e-01,9.99979e-01
8.452190071e-01,9.85804e-01,9.99999e-01,9.99999e-01,9.94148e-01,9.91618e-01,9.99987e-01
8.494451021e-01,9.88397e-01,9.99999e-01,9.99999e-01,9.96595e-01,9.91783e-01,9.99989e-01
8.536923276e-01,9.89945e-01,9.99999e-01,9.99999e-01,9.97989e-01,9.91945e-01,9.99993e-01
8.579607893e-01,9.90871e-01,9.99999e-01,9.99999e-01,9.98759e-01,9.92103e-01,9.99998e-01
8.622505932e-01,9.91477e-01,9.99999e-01,9.99999e-01,9.99212e-01,9.92258e-01,9.99999e-01
8.665618462e-01,9.91927e-01,9.99999e-01,9.99999e-01,9.99511e-01,9.92411e-01,9.99999e-01
8.708946554e-01,9.92005e-01,9.99999e-01,9.99999e-01,9.99440e-01,9.92560e-01,9.99999e-01
8.752491287e-01,9.91964e-01,9.99999e-01,9.99999e-01,9.99252e-01,9.92706e-01,9.99998e-01
8.796253743e-01,9.91818e-01,9.99999e-01,9.99999e-01,9.98962e-01,9.92850e-01,9.99997e-01
8.840235012e-01,9.91808e-01,9.99999e-01,9.99999e-01,9.98815e-01,9.92991e-01,9.99992e-01
8.884436187e-01,9.88779e-01,9.99999e-01,9.99999e-01,9.95640e-01,9.93129e-01,9.99979e-01
8.928858368e-01,9.48658e-01,9.99999e-01,9.99999e-01,9.55203e-01,9.93264e-01,9.99881e-01
8.973502660e-01,9.15798e-01,9.99999e-01,9.99999e-01,9.22443e-01,9.93396e-01,9.99394e-01
9.018370173e-01,9.52666e-01,9.99999e-01,9.99999e-01,9.59785e-01,9.93526e-01,9.99048e-01
9.063462024e-01,9.57324e-01,9.99999e-01,9.99999e-01,9.64243e-01,9.93654e-01,9.99164e-01
9.108779334e-01,9.38244e-01,9.99999e-01,9.99999e-01,9.44937e-01,9.93779e-01,9.99131e-01
9.154323231e-01,9.31384e-01,9.99999e-01,9.99999e-01,9.37771e-01,9.93901e-01,9.99281e-01
9.200094847e-01,9.44916e-01,9.99999e-01,9.99999e-01,9.50980e-01,9.94021e-01,9.99597e-01
9.246095321e-01,9.17584e-01,9.99999e-01,9.99999e-01,9.23420e-01,9.94139e-01,9.99536e-01
9.292325798e-01,5.84780e-01,9.99999e-01,9.99999e-01,5.89222e-01,9.94255e-01,9.98195e-01
9.338787427e-01,5.00573e-01,9.99999e-01,9.99999e-01,5.07179e-01,9.94368e-01,9.92563e-01
9.385481364e-01,7.49762e-01,9.99999e-01,9.99999e-01,7.60646e-01,9.94479e-01,9.91161e-01
9.432408771e-01,6.73219e-01,9.99999e-01,9.99999e-01,6.82086e-01,9.94587e-01,9.92370e-01
9.479570815e-01,5.83495e-01,9.99999e-01,9.99999e-01,5.90274e-01,9.94694e-01,9.93786e-01
9.526968669e-01,6.68387e-01,9.99999e-01,9.99999e-01,6.74440e-01,9.94799e-01,9.96205e-01
9.574603512e-01,6.90881e-01,9.99999e-01,9.99999e-01,6.95763e-01,9.94901e-01,9.98070e-01
9.622476530e-01,7.40003e-01,9.99999e-01,9.99999e-01,7.44713e-01,9.95001e-01,9.98665e-01
9.670588912e-01,8.38744e-01,9.99999e-01,9.99999e-01,8.43643e-01,9.95100e-01,9.99086e-01
9.718941857e-01,8.94193e-01,9.99999e-01,9.99999e-01,8.99112e-01,9.95196e-01,9.99327e-01
9.767536566e-01,9.10718e-01,9.99999e-01,9.99999e-01,9.15496e-01,9.95291e-01,9.99485e-01
9.816374249e-01,9.32276e-01,9.99999e-01,9.99999e-01,9.36765e-01,9.95384e-01,9.99821e-01
9.865456120e-01,9.55648e-01,9.99999e-01,9.99999e-01,9.60027e-01,9.95475e-01,9.99962e-01
9.914783401e-01,9.70765e-01,9.99999e-01,9.99999e-01,9.75099e-01,9.95564e-01,9.99989e-01
9.964357318e-01,9.82072e-01,9.99999e-01,9.99999e-01,9.86367e-01,9.95651e-01,9.99993e-01
1.001417910e+00,9.87574e-01,9.99999e-01,9.99999e-01,9.91810e-01,9.95737e-01,9.99990e-01
1.006425000e+00,9.91147e-01,9.99999e-01,9.99999e-01,9.95319e-01,9.95821e-01,9.99986e-01
1.011457125e+00,9.93000e-01,9.99999e-01,9.99999e-01,9.97096e-01,9.95903e-01,9.99987e-01
1.016514411e+00,9.94011e-01,9.99999e-01,9.99999e-01,9.98026e-01,9.95984e-01,9.99990e-01
1.021596983e+00,9.94488e-01,9.99999e-01,9.99999e-01,9.98426e-01,9.96063e-01,9.99991e-01
1.026704968e+00,9.94913e-01,9.99999e-01,9.99999e-01,9.98772e-01,9.96141e-01,9.99994e-01
1.031838492e+00,9.95328e-01,9.99999e-01,9.99999e-01,9.99108e-01,9.96217e-01,9.99997e-01
1.036997685e+00,9.95764e-01,9.99999e-01,9.99999e-01,9.99469e-01,9.96292e-01,9.99999e-01
1.042182673e+00,9.95734e-01,9.99999e-01,9.99999e-01,9.99366e-01,9.96365e-01,9.99999e-01
1.047393587e+00,9.95601e-01,9.99999e-01,9.99999e-01,9.99161e-01,9.96436e-01,9.99999e-01
1.052630555e+00,9.95359e-01,9.99999e-01,9.99999e-01,9.98848e-01,9.96507e-01,9.99999e-01
1.057893707e+00,9.94658e-01,9.99999e-01,9.99999e-01,9.98076e-01,9.96575e-01,9.99998e-01
1.063183176e+00,9.93489e-01,9.99999e-01,9.99999e-01,9.96837e-01,9.96643e-01,9.99997e-01
1.068499092e+00,9.91435e-01,9.99999e-01,9.99999e-01,9.94711e-01,9.96709e-01,9.99995e-01
1.073841587e+00,9.90593e-01,9.99999e-01,9.99999e-01,9.93805e-01,9.96774e-01,9.99991e-01
1.079210795e+00,9.88925e-01,9.99999e-01,9.99999e-01,9.92083e-01,9.96838e-01,9.99978e-01
1.084606849e+00,9.84912e-01,9.99999e-01,9.99999e-01,9.88025e-01,9.96900e-01,9.99948e-01
1.090029883e+00,9.79693e-01,9.99999e-01,9.99999e-01,9.82782e-01,9.96961e-01,9.99894e-01
1.095480033e+00,9.50797e-01,9.99999e-01,9.99999e-01,9.53819e-01,9.97021e-01,9.99808e-01
1.100957433e+00,8.83862e-01,9.99999e-01,9.99999e-01,8.86761e-01,9.97080e-01,9.99648e-01
1.106462220e+00,7.34149e-01,9.99999e-01,9.99999e-01,7.36694e-01,9.97137e-01,9.99404e-01
1.111994531e+00,5.25190e-01,9.99999e-01,9.99999e-01,5.27500e-01,9.97194e-01,9.98420e-01
1.117554504e+00,3.53189e-01,9.99999e-01,9.99999e-01,3.56190e-01,9.97249e-01,9.94309e-01
1.123142276e+00,4.63123e-01,9.99999e-01,9.99999e-01,4.70702e-01,9.97303e-01,9.86558e-01
1.128757988e+00,6.03856e-01,9.99999e-01,9.99999e-01,6.15009e-01,9.97356e-01,9.84466e-01
1.134401778e+00,3.50395e-01,9.99999e-01,9.99999e-01,3.56013e-01,9.97409e-01,9.86776e-01
1.140073787e+00,7.37678e-01,9.99999e-01,9.99999e-01,7.47464e-01,9.97460e-01,9.89420e-01
1.145774156e+00,5.40045e-01,9.99999e-01,9.99999e-01,5.46689e-01,9.97510e-01,9.90311e-01
1.151503026e+00,5.06521e-01,9.99999e-01,9.99999e-01,5.10521e-01,9.97559e-01,9.94590e-01
1.157260541e+00,5.67175e-01,9.99999e-01,9.99999e-01,5.69458e-01,9.97607e-01,9.98379e-01
1.163046844e+00,6.57871e-01,9.99999e-01,9.99999e-01,6.59720e-01,9.97654e-01,9.99540e-01
1.168862078e+00,7.46939e-01,9.99999e-01,9.99999e-01,7.48837e-01,9.97701e-01,9.99762e-01
1.174706389e+00,8.34354e-01,9.99999e-01,9.99999e-01,8.36501e-01,9.97746e-01,9.99685e-01
1.180579921e+00,8.94598e-01,9.99999e-01,9.99999e-01,8.97004e-01,9.97790e-01,9.99525e-01
1.186482820e+00,9.37916e-01,9.99999e-01,9.99999e-01,9.40409e-01,9.97834e-01,9.99512e-01
1.192415234e+00,9.62373e-01,9.99999e-01,9.99999e-01,9.64772e-01,9.97877e-01,9.99634e-01
1.198377311e+00,9.67845e-01,9.99999e-01,9.99999e-01,9.70197e-01,9.97918e-01,9.99655e-01
1.204369197e+00,9.69503e-01,9.99999e-01,9.99999e-01,9.71787e-01,9.97960e-01,9.99687e-01
1.210391043e+00,9.70879e-01,9.99999e-01,9.99999e-01,9.73008e-01,9.98000e-01,9.99809e-01
1.216442998e+00,9.74992e-01,9.99999e-01,9.99999e-01,9.77019e-01,9.98039e-01,9.99883e-01
1.222525213e+00,9.80101e-01,9.99999e-01,9.99999e-01,9.82058e-01,9.98078e-01,9.99927e-01
1.228637839e+00,9.85612e-01,9.99999e-01,9.99999e-01,9.87505e-01,9.98116e-01,9.99965e-01
