#,Wave/freq,Total,N2,O2,H2O,Rayleigh,CIA
4.000000000e-01,5.50483e-01,9.99999e-01,9.99999e-01,9.99932e-01,5.50520e-01,9.99999e-01
4.020000000e-01,5.57033e-01,9.99999e-01,9.99999e-01,9.99957e-01,5.57056e-01,9.99999e-01
4.040100000e-01,5.63521e-01,9.99999e-01,9.99999e-01,9.99981e-01,5.63531e-01,9.99999e-01
4.060300500e-01,5.69949e-01,9.99999e-01,9.99999e-01,9.99995e-01,5.69952e-01,9.99999e-01
4.080602003e-01,5.76316e-01,9.99999e-01,9.99999e-01,9.99998e-01,5.76316e-01,9.99999e-01
4.101005013e-01,5.82624e-01,9.99999e-01,9.99999e-01,9.99999e-01,5.82624e-01,9.99999e-01
4.121510038e-01,5.88873e-01,9.99999e-01,9.99999e-01,9.99997e-01,5.88874e-01,9.99999e-01
4.142117588e-01,5.95055e-01,9.99999e-01,9.99999e-01,9.99981e-01,5.95066e-01,9.99999e-01
4.162828176e-01,6.01149e-01,9.99999e-01,9.99999e-01,9.99916e-01,6.01199e-01,9.99999e-01
4.183642317e-01,6.07242e-01,9.99999e-01,9.99999e-01,9.99949e-01,6.07272e-01,9.99999e-01
4.204560528e-01,6.13265e-01,9.99999e-01,9.99999e-01,9.99968e-01,6.13284e-01,9.99999e-01
4.225583331e-01,6.19229e-01,9.99999e-01,9.99999e-01,9.99988e-01,6.19236e-01,9.99999e-01
4.246711247e-01,6.25120e-01,9.99999e-01,9.99999e-01,9.99990e-01,6.25126e-01,9.99999e-01
4.267944804e-01,6.30945e-01,9.99999e-01,9.99999e-01,9.99986e-01,6.30954e-01,9.99999e-01
4.289284528e-01,6.36713e-01,9.99999e-01,9.99999e-01,9.99989e-01,6.36719e-01,9.99999e-01
4.310730950e-01,6.42419e-01,9.99999e-01,9.99999e-01,9.99995e-01,6.42422e-01,9.99999e-01
4.332284605e-01,6.48061e-01,9.99999e-01,9.99999e-01,9.99998e-01,6.48062e-01,9.99999e-01
4.353946028e-01,6.53638e-01,9.99999e-01,9.99999e-01,9.99999e-01,6.53638e-01,9.99999e-01
4.375715758e-01,6.59146e-01,9.99999e-01,9.99999e-01,9.99991e-01,6.59151e-01,9.99999e-01
4.397594337e-01,6.64552e-01,9.99999e-01,9.99999e-01,9.99927e-01,6.64600e-01,9.99999e-01
4.419582309e-01,6.69740e-01,9.99999e-01,9.99999e-01,9.99632e-01,6.69985e-01,9.99999e-01
4.441680220e-01,6.75109e-01,9.99999e-01,9.99999e-01,9.99707e-01,6.75307e-01,9.99999e-01
4.463888621e-01,6.80358e-01,9.99999e-01,9.99999e-01,9.99697e-01,6.80564e-01,9.99999e-01
4.486208064e-01,6.85627e-01,9.99999e-01,9.99999e-01,9.99810e-01,6.85757e-01,9.99999e-01
4.508639105e-01,6.90825e-01,9.99999e-01,9.99999e-01,9.99911e-01,6.90885e-01,9.99999e-01
4.531182300e-01,6.95926e-01,9.99999e-01,9.99999e-01,9.99964e-01,6.95950e-01,9.99999e-01
4.553838212e-01,7.00934e-01,9.99999e-01,9.99999e-01,9.99975e-01,7.00951e-01,9.99999e-01
4.576607403e-01,7.05880e-01,9.99999e-01,9.99999e-01,9.99988e-01,7.05888e-01,9.99999e-01
4.599490440e-01,7.10755e-01,9.99999e-01,9.99999e-01,9.99991e-01,7.10761e-01,9.99999e-01
4.622487892e-01,7.15569e-01,9.99999e-01,9.99999e-01,9.99998e-01,7.15570e-01,9.99999e-01
4.645600332e-01,7.20313e-01,9.99999e-01,9.99999e-01,9.99994e-01,7.20316e-01,9.99999e-01
4.668828333e-01,7.24935e-01,9.99999e-01,9.99999e-01,9.99911e-01,7.24999e-01,9.99999e-01
4.692172475e-01,7.29481e-01,9.99999e-01,9.99999e-01,9.99809e-01,7.29619e-01,9.99999e-01
4.715633337e-01,7.34086e-01,9.99999e-01,9.99999e-01,9.99875e-01,7.34176e-01,9.99999e-01
4.739211504e-01,7.38583e-01,9.99999e-01,9.99999e-01,9.99880e-01,7.38671e-01,9.99999e-01
4.762907561e-01,7.43058e-01,9.99999e-01,9.99999e-01,9.99937e-01,7.43104e-01,9.99999e-01
4.786722099e-01,7.47456e-01,9.99999e-01,9.99999e-01,9.99974e-01,7.47475e-01,9.99999e-01
4.810655710e-01,7.51779e-01,9.99999e-01,9.99999e-01,9.99991e-01,7.51785e-01,9.99999e-01
4.834708988e-01,7.55980e-01,9.99999e-01,9.99999e-01,9.99928e-01,7.56033e-01,9.99999e-01
4.858882533e-01,7.60119e-01,9.99999e-01,9.99999e-01,9.99865e-01,7.60221e-01,9.99999e-01
4.883176946e-01,7.64264e-01,9.99999e-01,9.99999e-01,9.99887e-01,7.64349e-01,9.99999e-01
4.907592831e-01,7.68339e-01,9.99999e-01,9.99999e-01,9.99897e-01,7.68417e-01,9.99999e-01
4.932130795e-01,7.72370e-01,9.99999e-01,9.99999e-01,9.99927e-01,7.72426e-01,9.99999e-01
4.956791449e-01,7.76346e-01,9.99999e-01,9.99999e-01,9.99961e-01,7.76376e-01,9.99999e-01
4.981575406e-01,7.80119e-01,9.99999e-01,9.99999e-01,9.99809e-01,7.80267e-01,9.99999e-01
5.006483283e-01,7.83714e-01,9.99999e-01,9.99999e-01,9.99510e-01,7.84100e-01,9.99996e-01
5.031515699e-01,7.85889e-01,9.99999e-01,9.99999e-01,9.97503e-01,7.87876e-01,9.99973e-01
5.056673278e-01,7.90525e-01,9.99999e-01,9.99999e-01,9.98677e-01,7.91595e-01,9.99969e-01
5.081956644e-01,7.93916e-01,9.99999e-01,9.99999e-01,9.98331e-01,7.95258e-01,9.99980e-01
5.107366428e-01,7.97961e-01,9.99999e-01,9.99999e-01,9.98872e-01,7.98865e-01,9.99995e-01
5.132903260e-01,8.01898e-01,9.99999e-01,9.99999e-01,9.99354e-01,8.02416e-01,9.99999e-01
5.158567776e-01,8.05693e-01,9.99999e-01,9.99999e-01,9.99726e-01,8.05913e-01,9.99999e-01
5.184360615e-01,8.09267e-01,9.99999e-01,9.99999e-01,9.99890e-01,8.09355e-01,9.99999e-01
5.210282418e-01,8.12710e-01,9.99999e-01,9.99999e-01,9.99958e-01,8.12743e-01,9.99999e-01
5.236333830e-01,8.15945e-01,9.99999e-01,9.99999e-01,9.99836e-01,8.16079e-01,9.99998e-01
5.262515499e-01,8.19277e-01,9.99999e-01,9.99999e-01,9.99897e-01,8.19362e-01,9.99997e-01
5.288828077e-01,8.22515e-01,9.99999e-01,9.99999e-01,9.99906e-01,8.22592e-01,9.99998e-01
5.315272217e-01,8.25703e-01,9.99999e-01,9.99999e-01,9.99916e-01,8.25772e-01,9.99999e-01
5.341848578e-01,8.28856e-01,9.99999e-01,9.99999e-01,9.99945e-01,8.28900e-01,9.99999e-01
5.368557821e-01,8.31821e-01,9.99999e-01,9.99999e-01,9.99810e-01,8.31978e-01,9.99999e-01
5.395400610e-01,8.34435e-01,9.99999e-01,9.99999e-01,9.99320e-01,8.35007e-01,9.99993e-01
5.422377613e-01,8.37229e-01,9.99999e-01,9.99999e-01,9.99111e-01,8.37986e-01,9.99983e-01
5.449489501e-01,8.40213e-01,9.99999e-01,9.99999e-01,9.99179e-01,8.40917e-01,9.99982e-01
5.476736949e-01,8.43175e-01,9.99999e-01,9.99999e-01,9.99267e-01,8.43800e-01,9.99991e-01
5.504120634e-01,8.46184e-01,9.99999e-01,9.99999e-01,9.99468e-01,8.46635e-01,9.99997e-01
5.531641237e-01,8.49197e-01,9.99999e-01,9.99999e-01,9.99732e-01,8.49424e-01,9.99999e-01
5.559299443e-01,8.52056e-01,9.99999e-01,9.99999e-01,9.99870e-01,8.52166e-01,9.99999e-01
5.587095940e-01,8.54795e-01,9.99999e-01,9.99999e-01,9.99918e-01,8.54863e-01,9.99999e-01
5.615031420e-01,8.57438e-01,9.99999e-01,9.99999e-01,9.99909e-01,8.57515e-01,9.99999e-01
5.643106577e-01,8.60036e-01,9.99999e-01,9.99999e-01,9.99899e-01,8.60123e-01,9.99998e-01
5.671322110e-01,8.61628e-01,9.99999e-01,9.99999e-01,9.98783e-01,8.62687e-01,9.99988e-01
5.699678720e-01,8.64031e-01,9.99999e-01,9.99999e-01,9.98673e-01,8.65207e-01,9.99965e-01
5.728177114e-01,8.66475e-01,9.99999e-01,9.99999e-01,9.98632e-01,8.67685e-01,9.99971e-01
5.756818000e-01,8.69012e-01,9.99999e-01,9.99999e-01,9.98742e-01,8.70121e-01,9.99982e-01
5.785602090e-01,8.71553e-01,9.99999e-01,9.99999e-01,9.98901e-01,8.72515e-01,9.99994e-01
5.814530100e-01,8.73904e-01,9.99999e-01,9.99999e-01,9.98899e-01,8.74869e-01,9.99997e-01
5.843602750e-01,8.76034e-01,9.99999e-01,9.99999e-01,9.98697e-01,8.77182e-01,9.99992e-01
5.872820764e-01,8.69554e-01,9.99999e-01,9.99999e-01,9.88819e-01,8.79456e-01,9.99920e-01
5.902184868e-01,8.69461e-01,9.99999e-01,9.99999e-01,9.86343e-01,8.81690e-01,9.99783e-01
5.931695792e-01,8.75188e-01,9.99999e-01,9.99999e-01,9.90368e-01,8.83885e-01,9.99788e-01
5.961354271e-01,8.76557e-01,9.99999e-01,9.99999e-01,9.89419e-01,8.86043e-01,9.99872e-01
5.991161043e-01,8.81260e-01,9.99999e-01,9.99999e-01,9.92264e-01,8.88163e-01,9.99962e-01
6.021116848e-01,8.86324e-01,9.99999e-01,9.99999e-01,9.95598e-01,8.90246e-01,9.99994e-01
6.051222432e-01,8.90303e-01,9.99999e-01,9.99999e-01,9.97770e-01,8.92293e-01,9.99999e-01
6.081478544e-01,8.93444e-01,9.99999e-01,9.99999e-01,9.99038e-01,8.94303e-01,9.99999e-01
6.111885937e-01,8.95914e-01,9.99999e-01,9.99999e-01,9.99591e-01,8.96279e-01,9.99999e-01
6.142445367e-01,8.98056e-01,9.99999e-01,9.99999e-01,9.99817e-01,8.98220e-01,9.99999e-01
6.173157594e-01,9.00036e-01,9.99999e-01,9.99999e-01,9.99899e-01,9.00126e-01,9.99999e-01
6.204023382e-01,9.01923e-01,9.99999e-01,9.99999e-01,9.99915e-01,9.01999e-01,9.99999e-01
6.235043498e-01,9.03506e-01,9.99999e-01,9.99999e-01,9.99632e-01,9.03838e-01,9.99998e-01
6.266218716e-01,9.03849e-01,9.99999e-01,9.99999e-01,9.98030e-01,9.05645e-01,9.99985e-01
6.297549810e-01,9.06739e-01,9.99999e-01,9.99999e-01,9.99277e-01,9.07420e-01,9.99971e-01
6.329037559e-01,9.07841e-01,9.99999e-01,9.99999e-01,9.98567e-01,9.09163e-01,9.99977e-01
6.360682746e-01,9.09757e-01,9.99999e-01,9.99999e-01,9.98785e-01,9.10874e-01,9.99986e-01
6.392486160e-01,9.11112e-01,9.99999e-01,9.99999e-01,9.98422e-01,9.12556e-01,9.99993e-01
6.424448591e-01,9.12283e-01,9.99999e-01,9.99999e-01,9.97905e-01,9.14206e-01,9.99990e-01
6.456570834e-01,9.06901e-01,9.99999e-01,9.99999e-01,9.90306e-01,9.15828e-01,9.99945e-01
6.488853688e-01,9.09573e-01,9.99999e-01,9.99999e-01,9.91597e-01,9.17420e-01,9.99847e-01
6.521297956e-01,9.12155e-01,9.99999e-01,9.99999e-01,9.92695e-01,9.18983e-01,9.99872e-01
6.553904446e-01,9.13785e-01,9.99999e-01,9.99999e-01,9.92780e-01,9.20518e-01,9.99904e-01
6.586673968e-01,9.16245e-01,9.99999e-01,9.99999e-01,9.93761e-01,9.22025e-01,9.99968e-01
6.619607338e-01,9.20165e-01,9.99999e-01,9.99999e-01,9.96389e-01,9.23504e-01,9.99992e-01
6.652705375e-01,9.23015e-01,9.99999e-01,9.99999e-01,9.97903e-01,9.24957e-01,9.99996e-01
6.685968902e-01,9.25481e-01,9.99999e-01,9.99999e-01,9.99026e-01,9.26384e-01,9.99998e-01
6.719398746e-01,9.27365e-01,9.99999e-01,9.99999e-01,9.99547e-01,9.27784e-01,9.99999e-01
6.752995740e-01,9.28932e-01,9.99999e-01,9.99999e-01,9.99755e-01,9.29158e-01,9.99999e-01
6.786760719e-01,9.30182e-01,9.99999e-01,9.99999e-01,9.99649e-01,9.30508e-01,9.99999e-01
6.820694522e-01,9.31270e-01,9.99999e-01,9.99999e-01,9.99399e-01,9.31833e-01,9.99996e-01
6.854797995e-01,9.32405e-01,9.99999e-01,9.99999e-01,9.99225e-01,9.33133e-01,9.99992e-01
6.889071985e-01,9.32667e-01,9.99999e-01,9.99999e-01,9.98151e-01,9.34409e-01,9.99982e-01
6.923517345e-01,9.07427e-01,9.99999e-01,9.99999e-01,9.69964e-01,9.35662e-01,9.99852e-01
6.958134932e-01,9.21602e-01,9.99999e-01,9.99999e-01,9.84005e-01,9.36892e-01,9.99668e-01
6.992925606e-01,9.23790e-01,9.99999e-01,9.99999e-01,9.85033e-01,9.38099e-01,9.99707e-01
7.027890234e-01,9.21629e-01,9.99999e-01,9.99999e-01,9.81423e-01,9.39284e-01,9.99775e-01
7.063029686e-01,9.25640e-01,9.99999e-01,9.99999e-01,9.84364e-01,9.40447e-01,9.99888e-01
7.098344834e-01,9.27395e-01,9.99999e-01,9.99999e-01,9.84990e-01,9.41588e-01,9.99933e-01
7.133836558e-01,9.24013e-01,9.99999e-01,9.99999e-01,9.80296e-01,9.42708e-01,9.99868e-01
7.169505741e-01,8.04086e-01,9.99999e-01,9.99999e-01,8.52837e-01,9.43807e-01,9.98969e-01
7.205353270e-01,8.71151e-01,9.99999e-01,9.99999e-01,9.23641e-01,9.44886e-01,9.98183e-01
7.241380036e-01,8.54782e-01,9.99999e-01,9.99999e-01,9.05046e-01,9.45945e-01,9.98431e-01
7.277586936e-01,8.64300e-01,9.99999e-01,9.99999e-01,9.13858e-01,9.46984e-01,9.98717e-01
7.313974871e-01,8.60171e-01,9.99999e-01,9.99999e-01,9.07895e-01,9.48003e-01,9.99398e-01
7.350544745e-01,9.00027e-01,9.99999e-01,9.99999e-01,9.48589e-01,9.49004e-01,9.99790e-01
7.387297469e-01,9.13634e-01,9.99999e-01,9.99999e-01,9.61826e-01,9.49985e-01,9.99903e-01
7.424233956e-01,9.32948e-01,9.99999e-01,9.99999e-01,9.81088e-01,9.50949e-01,9.99981e-01
7.461355126e-01,9.40957e-01,9.99999e-01,9.99999e-01,9.88512e-01,9.51894e-01,9.99996e-01
7.498661902e-01,9.47698e-01,9.99999e-01,9.99999e-01,9.94623e-01,9.52821e-01,9.99998e-01
7.536155211e-01,9.51219e-01,9.99999e-01,9.99999e-01,9.97366e-01,9.53731e-01,9.99998e-01
7.573835987e-01,9.53328e-01,9.99999e-01,9.99999e-01,9.98642e-01,9.54624e-01,9.99999e-01
7.611705167e-01,9.54695e-01,9.99999e-01,9.99999e-01,9.99156e-01,9.55500e-01,9.99999e-01
7.649763693e-01,9.55855e-01,9.99999e-01,9.99999e-01,9.99471e-01,9.56359e-01,9.99999e-01
7.688012511e-01,9.56851e-01,9.99999e-01,9.99999e-01,9.99632e-01,9.57203e-01,9.99999e-01
7.726452574e-01,9.57741e-01,9.99999e-01,9.99999e-01,9.99697e-01,9.58030e-01,9.99999e-01
7.765084837e-01,9.58433e-01,9.99999e-01,9.99999e-01,9.99573e-01,9.58842e-01,9.99998e-01
7.803910261e-01,9.57872e-01,9.99999e-01,9.99999e-01,9.98161e-01,9.59638e-01,9.99997e-01
7.842929812e-01,9.54259e-01,9.99999e-01,9.99999e-01,9.93597e-01,9.60419e-01,9.99987e-01
7.882144461e-01,9.48373e-01,9.99999e-01,9.99999e-01,9.86749e-01,9.61186e-01,9.99918e-01
7.921555184e-01,9.54750e-01,9.99999e-01,9.99999e-01,9.92683e-01,9.61938e-01,9.99842e-01
7.961162960e-01,9.50237e-01,9.99999e-01,9.99999e-01,9.87227e-01,9.62675e-01,9.99848e-01
8.000968774e-01,9.48966e-01,9.99999e-01,9.99999e-01,9.85177e-01,9.63399e-01,9.99838e-01
8.040973618e-01,9.49714e-01,9.99999e-01,9.99999e-01,9.85194e-01,9.64109e-01,9.99871e-01
8.081178486e-01,9.33027e-01,9.99999e-01,9.99999e-01,9.67177e-01,9.64805e-01,9.99879e-01
8.121584379e-01,8.40142e-01,9.99999e-01,9.99999e-01,8.70582e-01,9.65488e-01,9.99529e-01
8.162192301e-01,8.17215e-01,9.99999e-01,9.99999e-01,8.47336e-01,9.66158e-01,9.98232e-01
8.203003262e-01,8.90627e-01,9.99999e-01,9.99999e-01,9.23105e-01,9.66815e-01,9.97930e-01
8.244018279e-01,8.62499e-01,9.99999e-01,9.99999e-01,8.92978e-01,9.67460e-01,9.98352e-01
8.285238370e-01,8.75941e-01,9.99999e-01,9.99999e-01,9.05983e-01,9.68092e-01,9.98705e-01
8.326664562e-01,8.76046e-01,9.99999e-01,9.99999e-01,9.04823e-01,9.68713e-01,9.99464e-01
8.368297885e-01,9.01988e-01,9.99999e-01,9.99999e-01,9.30649e-01,9.69321e-01,9.99877e-01
8.410139374e-01,9.29249e-01,9.99999e-01,9.99999e-01,9.58138e-01,9.69918e-01,9.99928e-01
8.452190071e-01,9.50292e-01,9.99999e-01,9.99999e-01,9.79216e-01,9.70503e-01,9.99956e-01
8.494451021e-01,9.59318e-01,9.99999e-01,9.99999e-01,9.87924e-01,9.71077e-01,9.99965e-01
8.536923276e-01,9.64644e-01,9.99999e-01,9.99999e-01,9.92821e-01,9.71640e-01,9.99976e-01
8.579607893e-01,9.67895e-01,9.99999e-01,9.99999e-01,9.95585e-01,9.72193e-01,9.99993e-01
8.622505932e-01,9.69998e-01,9.99999e-01,9.99999e-01,9.97187e-01,9.72734e-01,9.99998e-01
8.665618462e-01,9.71577e-01,9.99999e-01,9.99999e-01,9.98265e-01,9.73265e-01,9.99999e-01
8.708946554e-01,9.71856e-01,9.99999e-01,9.99999e-01,9.98017e-01,9.73787e-01,9.99998e-01
8.752491287e-01,9.71710e-01,9.99999e-01,9.99999e-01,9.97346e-01,9.74298e-01,9.99996e-01
8.796253743e-01,9.71221e-01,9.99999e-01,9.99999e-01,9.96337e-01,9.74799e-01,9.99991e-01
8.840235012e-01,9.71184e-01,9.99999e-01,9.99999e-01,9.95814e-01,9.75290e-01,9.99973e-01
8.884436187e-01,9.61153e-01,9.99999e-01,9.99999e-01,9.85088e-01,9.75772e-01,9.99926e-01
8.928858368e-01,8.32748e-01,9.99999e-01,9.99999e-01,8.53368e-01,9.76245e-01,9.99579e-01
8.973502660e-01,7.35418e-01,9.99999e-01,9.99999e-01,7.54577e-01,9.76709e-01,9.97850e-01
9.018370173e-01,8.42752e-01,9.99999e-01,9.99999e-01,8.65368e-01,9.77164e-01,9.96622e-01
9.063462024e-01,8.59321e-01,9.99999e-01,9.99999e-01,8.81617e-01,9.77610e-01,9.97032e-01
9.108779334e-01,8.00524e-01,9.99999e-01,9.99999e-01,8.21023e-01,9.78047e-01,9.96916e-01
9.154323231e-01,7.79206e-01,9.99999e-01,9.99999e-01,7.98381e-01,9.78476e-01,9.97450e-01
9.200094847e-01,8.19617e-01,9.99999e-01,9.99999e-01,8.38482e-01,9.78897e-01,9.98572e-01
9.246095321e-01,7.51939e-01,9.99999e-01,9.99999e-01,7.69090e-01,9.79309e-01,9.98354e-01
9.292325798e-01,1.85408e-01,9.99999e-01,9.99999e-01,1.90466e-01,9.79714e-01,9.93600e-01
9.338787427e-01,1.09321e-01,9.99999e-01,9.99999e-01,1.14539e-01,9.80110e-01,9.73810e-01
9.385481364e-01,3.92969e-01,9.99999e-01,9.99999e-01,4.13636e-01,9.80499e-01,9.68929e-01
9.432408771e-01,2.96188e-01,9.99999e-01,9.99999e-01,3.10296e-01,9.80881e-01,9.73136e-01
9.479570815e-01,1.89060e-01,9.99999e-01,9.99999e-01,1.96989e-01,9.81255e-01,9.78081e-01
9.526968669e-01,2.73874e-01,9.99999e-01,9.99999e-01,2.82799e-01,9.81622e-01,9.86573e-01
9.574603512e-01,2.92278e-01,9.99999e-01,9.99999e-01,2.99691e-01,9.81981e-01,9.93156e-01
9.622476530e-01,3.59464e-01,9.99999e-01,9.99999e-01,3.67670e-01,9.82334e-01,9.95263e-01
9.670588912e-01,5.47432e-01,9.99999e-01,9.99999e-01,5.58892e-01,9.82680e-01,9.96757e-01
9.718941857e-01,6.75367e-01,9.99999e-01,9.99999e-01,6.88677e-01,9.83019e-01,9.97612e-01
9.767536566e-01,7.19876e-01,9.99999e-01,9.99999e-01,7.33401e-01,9.83352e-01,9.98174e-01
9.816374249e-01,7.79953e-01,9.99999e-01,9.99999e-01,7.93395e-01,9.83678e-01,9.99367e-01
9.865456120e-01,8.50991e-01,9.99999e-01,9.99999e-01,8.64943e-01,9.83998e-01,9.99867e-01
9.914783401e-01,8.99708e-01,9.99999e-01,9.99999e-01,9.14081e-01,9.84311e-01,9.99963e-01
9.964357318e-01,9.37568e-01,9.99999e-01,9.99999e-01,9.52233e-01,9.84619e-01,9.99978e-01
1.001417910e+00,9.56397e-01,9.99999e-01,9.99999e-01,9.71071e-01,9.84920e-01,9.99966e-01
1.006425000e+00,9.68847e-01,9.99999e-01,9.99999e-01,9.83431e-01,9.85216e-01,9.99953e-01
1.011457125e+00,9.75276e-01,9.99999e-01,9.99999e-01,9.89662e-01,9.85506e-01,9.99956e-01
1.016514411e+00,9.78840e-01,9.99999e-01,9.99999e-01,9.92979e-01,9.85790e-01,9.99969e-01
1.021596983e+00,9.80523e-01,9.99999e-01,9.99999e-01,9.94405e-01,9.86069e-01,9.99968e-01
1.026704968e+00,9.82019e-01,9.99999e-01,9.99999e-01,9.95636e-01,9.86342e-01,9.99979e-01
1.031838492e+00,9.83469e-01,9.99999e-01,9.99999e-01,9.96821e-01,9.86610e-01,9.99993e-01
1.036997685e+00,9.85011e-01,9.99999e-01,9.99999e-01,9.98114e-01,9.86873e-01,9.99998e-01
1.042182673e+00,9.84918e-01,9.99999e-01,9.99999e-01,9.97758e-01,9.87130e-01,9.99999e-01
1.047393587e+00,9.84445e-01,9.99999e-01,9.99999e-01,9.97024e-01,9.87383e-01,9.99998e-01
1.052630555e+00,9.83604e-01,9.99999e-01,9.99999e-01,9.95923e-01,9.87630e-01,9.99998e-01
1.057893707e+00,9.81166e-01,9.99999e-01,9.99999e-01,9.93212e-01,9.87873e-01,9.99997e-01
1.063183176e+00,9.77083e-01,9.99999e-01,9.99999e-01,9.88844e-01,9.88111e-01,9.99993e-01
1.068499092e+00,9.69921e-01,9.99999e-01,9.99999e-01,9.81370e-01,9.88345e-01,9.99986e-01
1.073841587e+00,9.67083e-01,9.99999e-01,9.99999e-01,9.78287e-01,9.88574e-01,9.99971e-01
1.079210795e+00,9.61201e-01,9.99999e-01,9.99999e-01,9.72163e-01,9.88798e-01,9.99924e-01
1.084606849e+00,9.47563e-01,9.99999e-01,9.99999e-01,9.58257e-01,9.89018e-01,9.99818e-01
1.090029883e+00,9.30495e-01,9.99999e-01,9.99999e-01,9.40973e-01,9.89234e-01,9.99624e-01
1.095480033e+00,8.37619e-01,9.99999e-01,9.99999e-01,8.47127e-01,9.89445e-01,9.99321e-01
1.100957433e+00,6.51425e-01,9.99999e-01,9.99999e-01,6.59058e-01,9.89653e-01,9.98752e-01
1.106462220e+00,3.56170e-01,9.99999e-01,9.99999e-01,3.60583e-01,9.89856e-01,9.97884e-01
1.111994531e+00,1.20636e-01,9.99999e-01,9.99999e-01,1.22535e-01,9.90055e-01,9.94395e-01
1.117554504e+00,3.62927e-02,9.99999e-01,9.99999e-01,3.74012e-02,9.90251e-01,9.79913e-01
1.123142276e+00,9.83497e-02,9.99999e-01,9.99999e-01,1.04193e-01,9.90442e-01,9.53022e-01
1.128757988e+00,1.95415e-01,9.99999e-01,9.99999e-01,2.08555e-01,9.90630e-01,9.45856e-01
1.134401778e+00,8.58745e-02,9.99999e-01,9.99999e-01,9.08714e-02,9.90815e-01,9.53771e-01
1.140073787e+00,3.59227e-01,9.99999e-01,9.99999e-01,3.76461e-01,9.90995e-01,9.62888e-01
1.145774156e+00,1.41545e-01,9.99999e-01,9.99999e-01,1.47835e-01,9.91172e-01,9.65976e-01
1.151503026e+00,1.18003e-01,9.99999e-01,9.99999e-01,1.21351e-01,9.91346e-01,9.80900e-01
1.157260541e+00,1.49179e-01,9.99999e-01,9.99999e-01,1.51325e-01,9.91516e-01,9.94250e-01
1.163046844e+00,2.41205e-01,9.99999e-01,9.99999e-01,2.43625e-01,9.91683e-01,9.98366e-01
1.168862078e+00,3.60673e-01,9.99999e-01,9.99999e-01,3.63944e-01,9.91846e-01,9.99158e-01
1.174706389e+00,5.30116e-01,9.99999e-01,9.99999e-01,5.34983e-01,9.92007e-01,9.98884e-01
1.180579921e+00,6.75052e-01,9.99999e-01,9.99999e-01,6.81532e-01,9.92164e-01,9.98313e-01
1.186482820e+00,7.96551e-01,9.99999e-01,9.99999e-01,8.04108e-01,9.92318e-01,9.98269e-01
1.192415234e+00,8.72540e-01,9.99999e-01,9.99999e-01,8.80301e-01,9.92469e-01,9.98703e-01
1.198377311e+00,8.90594e-01,9.99999e-01,9.99999e-01,8.98317e-01,9.92618e-01,9.98775e-01
1.204369197e+00,8.96186e-01,9.99999e-01,9.99999e-01,9.03720e-01,9.92763e-01,9.98891e-01
1.210391043e+00,9.00493e-01,9.99999e-01,9.99999e-01,9.07538e-01,9.92905e-01,9.99325e-01
1.216442998e+00,9.13867e-01,9.99999e-01,9.99999e-01,9.20646e-01,9.93045e-01,9.99586e-01
1.222525213e+00,9.30973e-01,9.99999e-01,9.99999e-01,9.37603e-01,9.93182e-01,9.99743e-01
1.228637839e+00,9.49756e-01,9.99999e-01,9.99999e-01,9.56260e-01,9.93316e-01,9.99880e-01
