#,Wave/freq,Total,N2,O2,H2O,Rayleigh,CIA
4.000000000e-01,9.12550e-01,9.99999e-01,9.99999e-01,9.99989e-01,9.12559e-01,9.99999e-01
4.020000000e-01,9.14206e-01,9.99999e-01,9.99999e-01,9.99993e-01,9.14212e-01,9.99999e-01
4.040100000e-01,9.15830e-01,9.99999e-01,9.99999e-01,9.99996e-01,9.15833e-01,9.99999e-01
4.060300500e-01,9.17424e-01,9.99999e-01,9.99999e-01,9.99998e-01,9.17425e-01,9.99999e-01
4.080602003e-01,9.18988e-01,9.99999e-01,9.99999e-01,9.99999e-01,9.18988e-01,9.99999e-01
4.101005013e-01,9.20523e-01,9.99999e-01,9.99999e-01,9.99999e-01,9.20523e-01,9.99999e-01
4.121510038e-01,9.22029e-01,9.99999e-01,9.99999e-01,9.99999e-01,9.22030e-01,9.99999e-01
4.142117588e-01,9.23507e-01,9.99999e-01,9.99999e-01,9.99996e-01,9.23509e-01,9.99999e-01
4.162828176e-01,9.24950e-01,9.99999e-01,9.99999e-01,9.99986e-01,9.24962e-01,9.99999e-01
4.183642317e-01,9.26381e-01,9.99999e-01,9.99999e-01,9.99991e-01,9.26388e-01,9.99999e-01
4.204560528e-01,9.27784e-01,9.99999e-01,9.99999e-01,9.99994e-01,9.27788e-01,9.99999e-01
4.225583331e-01,9.29161e-01,9.99999e-01,9.99999e-01,9.99997e-01,9.29163e-01,9.99999e-01
4.246711247e-01,9.30511e-01,9.99999e-01,9.99999e-01,9.99998e-01,9.30512e-01,9.99999e-01
4.267944804e-01,9.31835e-01,9.99999e-01,9.99999e-01,9.99997e-01,9.31837e-01,9.99999e-01
4.289284528e-01,9.33136e-01,9.99999e-01,9.99999e-01,9.99997e-01,9.33137e-01,9.99999e-01
4.310730950e-01,9.34413e-01,9.99999e-01,9.99999e-01,9.99998e-01,9.34414e-01,9.99999e-01
4.332284605e-01,9.35666e-01,9.99999e-01,9.99999e-01,9.99999e-01,9.35667e-01,9.99999e-01
4.353946028e-01,9.36896e-01,9.99999e-01,9.99999e-01,9.99999e-01,9.36896e-01,9.99999e-01
4.375715758e-01,9.38102e-01,9.99999e-01,9.99999e-01,9.99998e-01,9.38103e-01,9.99999e-01
4.397594337e-01,9.39278e-01,9.99999e-01,9.99999e-01,9.99988e-01,9.39288e-01,9.99999e-01
4.419582309e-01,9.40397e-01,9.99999e-01,9.99999e-01,9.99942e-01,9.40451e-01,9.99999e-01
4.441680220e-01,9.41550e-01,9.99999e-01,9.99999e-01,9.99955e-01,9.41592e-01,9.99999e-01
4.463888621e-01,9.42668e-01,9.99999e-01,9.99999e-01,9.99953e-01,9.42712e-01,9.99999e-01
4.486208064e-01,9.43784e-01,9.99999e-01,9.99999e-01,9.99970e-01,9.43811e-01,9.99999e-01
4.508639105e-01,9.44877e-01,9.99999e-01,9.99999e-01,9.99986e-01,9.44890e-01,9.99999e-01
4.531182300e-01,9.45943e-01,9.99999e-01,9.99999e-01,9.99994e-01,9.45948e-01,9.99999e-01
4.553838212e-01,9.46984e-01,9.99999e-01,9.99999e-01,9.99995e-01,9.46987e-01,9.99999e-01
4.576607403e-01,9.48005e-01,9.99999e-01,9.99999e-01,9.99997e-01,9.48007e-01,9.99999e-01
4.599490440e-01,9.49006e-01,9.99999e-01,9.99999e-01,9.99998e-01,9.49007e-01,9.99999e-01
4.622487892e-01,9.49988e-01,9.99999e-01,9.99999e-01,9.99999e-01,9.49989e-01,9.99999e-01
4.645600332e-01,9.50951e-01,9.99999e-01,9.99999e-01,9.99998e-01,9.50952e-01,9.99999e-01
4.668828333e-01,9.51884e-01,9.99999e-01,9.99999e-01,9.99985e-01,9.51897e-01,9.99999e-01
4.692172475e-01,9.52797e-01,9.99999e-01,9.99999e-01,9.99970e-01,9.52824e-01,9.99999e-01
4.715633337e-01,9.53716e-01,9.99999e-01,9.99999e-01,9.99980e-01,9.53734e-01,9.99999e-01
4.739211504e-01,9.54610e-01,9.99999e-01,9.99999e-01,9.99981e-01,9.54627e-01,9.99999e-01
4.762907561e-01,9.55494e-01,9.99999e-01,9.99999e-01,9.99990e-01,9.55503e-01,9.99999e-01
4.786722099e-01,9.56359e-01,9.99999e-01,9.99999e-01,9.99995e-01,9.56362e-01,9.99999e-01
4.810655710e-01,9.57204e-01,9.99999e-01,9.99999e-01,9.99998e-01,9.57206e-01,9.99999e-01
4.834708988e-01,9.58022e-01,9.99999e-01,9.99999e-01,9.99988e-01,9.58033e-01,9.99999e-01
4.858882533e-01,9.58825e-01,9.99999e-01,9.99999e-01,9.99978e-01,9.58844e-01,9.99999e-01
4.883176946e-01,9.59624e-01,9.99999e-01,9.99999e-01,9.99982e-01,9.59641e-01,9.99999e-01
4.907592831e-01,9.60407e-01,9.99999e-01,9.99999e-01,9.99983e-01,9.60422e-01,9.99999e-01
4.932130795e-01,9.61178e-01,9.99999e-01,9.99999e-01,9.99988e-01,9.61188e-01,9.99999e-01
4.956791449e-01,9.61935e-01,9.99999e-01,9.99999e-01,9.99993e-01,9.61940e-01,9.99999e-01
4.981575406e-01,9.62650e-01,9.99999e-01,9.99999e-01,9.99970e-01,9.62678e-01,9.99999e-01
5.006483283e-01,9.63328e-01,9.99999e-01,9.99999e-01,9.99923e-01,9.63401e-01,9.99998e-01
5.031515699e-01,9.63737e-01,9.99999e-01,9.99999e-01,9.99615e-01,9.64111e-01,9.99995e-01
5.056673278e-01,9.64607e-01,9.99999e-01,9.99999e-01,9.99796e-01,9.64807e-01,9.99994e-01
5.081956644e-01,9.65241e-01,9.99999e-01,9.99999e-01,9.99744e-01,9.65490e-01,9.99996e-01
5.107366428e-01,9.65993e-01,9.99999e-01,9.99999e-01,9.99827e-01,9.66160e-01,9.99998e-01
5.132903260e-01,9.66722e-01,9.99999e-01,9.99999e-01,9.99900e-01,9.66817e-01,9.99999e-01
5.158567776e-01,9.67422e-01,9.99999e-01,9.99999e-01,9.99957e-01,9.67462e-01,9.99999e-01
5.184360615e-01,9.68078e-01,9.99999e-01,9.99999e-01,9.99982e-01,9.68094e-01,9.99999e-01
5.210282418e-01,9.68709e-01,9.99999e-01,9.99999e-01,9.99993e-01,9.68715e-01,9.99999e-01
5.236333830e-01,9.69299e-01,9.99999e-01,9.99999e-01,9.99974e-01,9.69323e-01,9.99999e-01
5.262515499e-01,9.69904e-01,9.99999e-01,9.99999e-01,9.99983e-01,9.69920e-01,9.99999e-01
5.288828077e-01,9.70491e-01,9.99999e-01,9.99999e-01,9.99985e-01,9.70505e-01,9.99999e-01
5.315272217e-01,9.71067e-01,9.99999e-01,9.99999e-01,9.99986e-01,9.71079e-01,9.99999e-01
5.341848578e-01,9.71634e-01,9.99999e-01,9.99999e-01,9.99991e-01,9.71642e-01,9.99999e-01
5.368557821e-01,9.72166e-01,9.99999e-01,9.99999e-01,9.99970e-01,9.72194e-01,9.99999e-01
5.395400610e-01,9.72633e-01,9.99999e-01,9.99999e-01,9.99894e-01,9.72736e-01,9.99998e-01
5.422377613e-01,9.73133e-01,9.99999e-01,9.99999e-01,9.99863e-01,9.73267e-01,9.99997e-01
5.449489501e-01,9.73663e-01,9.99999e-01,9.99999e-01,9.99873e-01,9.73788e-01,9.99996e-01
5.476736949e-01,9.74189e-01,9.99999e-01,9.99999e-01,9.99887e-01,9.74299e-01,9.99998e-01
5.504120634e-01,9.74721e-01,9.99999e-01,9.99999e-01,9.99918e-01,9.74800e-01,9.99999e-01
5.531641237e-01,9.75252e-01,9.99999e-01,9.99999e-01,9.99958e-01,9.75292e-01,9.99999e-01
5.559299443e-01,9.75755e-01,9.99999e-01,9.99999e-01,9.99979e-01,9.75774e-01,9.99999e-01
5.587095940e-01,9.76235e-01,9.99999e-01,9.99999e-01,9.99987e-01,9.76247e-01,9.99999e-01
5.615031420e-01,9.76697e-01,9.99999e-01,9.99999e-01,9.99985e-01,9.76711e-01,9.99999e-01
5.643106577e-01,9.77150e-01,9.99999e-01,9.99999e-01,9.99983e-01,9.77165e-01,9.99999e-01
5.671322110e-01,9.77424e-01,9.99999e-01,9.99999e-01,9.99809e-01,9.77611e-01,9.99997e-01
5.699678720e-01,9.77846e-01,9.99999e-01,9.99999e-01,9.99797e-01,9.78048e-01,9.99994e-01
5.728177114e-01,9.78267e-01,9.99999e-01,9.99999e-01,9.99789e-01,9.78477e-01,9.99995e-01
5.756818000e-01,9.78707e-01,9.99999e-01,9.99999e-01,9.99806e-01,9.78898e-01,9.99996e-01
5.785602090e-01,9.79145e-01,9.99999e-01,9.99999e-01,9.99831e-01,9.79310e-01,9.99998e-01
5.814530100e-01,9.79549e-01,9.99999e-01,9.99999e-01,9.99830e-01,9.79715e-01,9.99999e-01
5.843602750e-01,9.79913e-01,9.99999e-01,9.99999e-01,9.99798e-01,9.80112e-01,9.99998e-01
5.872820764e-01,9.78784e-01,9.99999e-01,9.99999e-01,9.98261e-01,9.80500e-01,9.99987e-01
5.902184868e-01,9.78787e-01,9.99999e-01,9.99999e-01,9.97896e-01,9.80882e-01,9.99966e-01
5.931695792e-01,9.79766e-01,9.99999e-01,9.99999e-01,9.98512e-01,9.81256e-01,9.99967e-01
5.961354271e-01,9.80006e-01,9.99999e-01,9.99999e-01,9.98370e-01,9.81623e-01,9.99981e-01
5.991161043e-01,9.80811e-01,9.99999e-01,9.99999e-01,9.98811e-01,9.81982e-01,9.99993e-01
6.021116848e-01,9.81673e-01,9.99999e-01,9.99999e-01,9.99325e-01,9.82335e-01,9.99998e-01
6.051222432e-01,9.82346e-01,9.99999e-01,9.99999e-01,9.99658e-01,9.82681e-01,9.99999e-01
6.081478544e-01,9.82876e-01,9.99999e-01,9.99999e-01,9.99852e-01,9.83020e-01,9.99999e-01
6.111885937e-01,9.83292e-01,9.99999e-01,9.99999e-01,9.99937e-01,9.83353e-01,9.99999e-01
6.142445367e-01,9.83652e-01,9.99999e-01,9.99999e-01,9.99971e-01,9.83679e-01,9.99999e-01
6.173157594e-01,9.83984e-01,9.99999e-01,9.99999e-01,9.99984e-01,9.83999e-01,9.99999e-01
6.204023382e-01,9.84299e-01,9.99999e-01,9.99999e-01,9.99986e-01,9.84312e-01,9.99999e-01
6.235043498e-01,9.84563e-01,9.99999e-01,9.99999e-01,9.99942e-01,9.84620e-01,9.99999e-01
6.266218716e-01,9.84621e-01,9.99999e-01,9.99999e-01,9.99697e-01,9.84921e-01,9.99997e-01
6.297549810e-01,9.85103e-01,9.99999e-01,9.99999e-01,9.99888e-01,9.85217e-01,9.99995e-01
6.329037559e-01,9.85287e-01,9.99999e-01,9.99999e-01,9.99780e-01,9.85507e-01,9.99996e-01
6.360682746e-01,9.85605e-01,9.99999e-01,9.99999e-01,9.99812e-01,9.85791e-01,9.99997e-01
6.392486160e-01,9.85830e-01,9.99999e-01,9.99999e-01,9.99757e-01,9.86070e-01,9.99998e-01
6.424448591e-01,9.86022e-01,9.99999e-01,9.99999e-01,9.99675e-01,9.86343e-01,9.99998e-01
6.456570834e-01,9.85117e-01,9.99999e-01,9.99999e-01,9.98494e-01,9.86611e-01,9.99991e-01
6.488853688e-01,9.85764e-01,9.99999e-01,9.99999e-01,9.98898e-01,9.86873e-01,9.99976e-01
6.521297956e-01,9.86004e-01,9.99999e-01,9.99999e-01,9.98876e-01,9.87131e-01,9.99980e-01
6.553904446e-01,9.86266e-01,9.99999e-01,9.99999e-01,9.98882e-01,9.87384e-01,9.99985e-01
6.586673968e-01,9.86682e-01,9.99999e-01,9.99999e-01,9.99042e-01,9.87631e-01,9.99994e-01
6.619607338e-01,9.87347e-01,9.99999e-01,9.99999e-01,9.99466e-01,9.87874e-01,9.99998e-01
6.652705375e-01,9.87796e-01,9.99999e-01,9.99999e-01,9.99679e-01,9.88112e-01,9.99998e-01
6.685968902e-01,9.88199e-01,9.99999e-01,9.99999e-01,9.99850e-01,9.88345e-01,9.99999e-01
6.719398746e-01,9.88506e-01,9.99999e-01,9.99999e-01,9.99930e-01,9.88574e-01,9.99999e-01
6.752995740e-01,9.88762e-01,9.99999e-01,9.99999e-01,9.99962e-01,9.88799e-01,9.99999e-01
6.786760719e-01,9.88965e-01,9.99999e-01,9.99999e-01,9.99945e-01,9.89019e-01,9.99999e-01
6.820694522e-01,9.89143e-01,9.99999e-01,9.99999e-01,9.99907e-01,9.89234e-01,9.99999e-01
6.854797995e-01,9.89327e-01,9.99999e-01,9.99999e-01,9.99880e-01,9.89446e-01,9.99998e-01
6.889071985e-01,9.89365e-01,9.99999e-01,9.99999e-01,9.99710e-01,9.89653e-01,9.99996e-01
6.923517345e-01,9.85173e-01,9.99999e-01,9.99999e-01,9.95290e-01,9.89857e-01,9.99976e-01
6.958134932e-01,9.87585e-01,9.99999e-01,9.99999e-01,9.97553e-01,9.90056e-01,9.99949e-01
6.992925606e-01,9.87903e-01,9.99999e-01,9.99999e-01,9.97672e-01,9.90251e-01,9.99954e-01
7.027890234e-01,9.87566e-01,9.99999e-01,9.99999e-01,9.97128e-01,9.90443e-01,9.99965e-01
7.063029686e-01,9.88223e-01,9.99999e-01,9.99999e-01,9.97586e-01,9.90631e-01,9.99982e-01
7.098344834e-01,9.88511e-01,9.99999e-01,9.99999e-01,9.97684e-01,9.90815e-01,9.99989e-01
7.133836558e-01,9.87913e-01,9.99999e-01,9.99999e-01,9.96908e-01,9.90996e-01,9.99979e-01
7.169505741e-01,9.66532e-01,9.99999e-01,9.99999e-01,9.75293e-01,9.91173e-01,9.99841e-01
7.205353270e-01,9.79052e-01,9.99999e-01,9.99999e-01,9.87873e-01,9.91346e-01,9.99720e-01
7.241380036e-01,9.76019e-01,9.99999e-01,9.99999e-01,9.84606e-01,9.91517e-01,9.99758e-01
7.277586936e-01,9.77706e-01,9.99999e-01,9.99999e-01,9.86099e-01,9.91683e-01,9.99802e-01
7.313974871e-01,9.77127e-01,9.99999e-01,9.99999e-01,9.85249e-01,9.91847e-01,9.99907e-01
7.350544745e-01,9.83964e-01,9.99999e-01,9.99999e-01,9.91923e-01,9.92007e-01,9.99967e-01
7.387297469e-01,9.86253e-01,9.99999e-01,9.99999e-01,9.94055e-01,9.92165e-01,9.99984e-01
7.424233956e-01,9.89429e-01,9.99999e-01,9.99999e-01,9.97089e-01,9.92319e-01,9.99996e-01
7.461355126e-01,9.90719e-01,9.99999e-01,9.99999e-01,9.98235e-01,9.92470e-01,9.99999e-01
7.498661902e-01,9.91803e-01,9.99999e-01,9.99999e-01,9.99178e-01,9.92618e-01,9.99999e-01
7.536155211e-01,9.92363e-01,9.99999e-01,9.99999e-01,9.99596e-01,9.92763e-01,9.99999e-01
7.573835987e-01,9.92700e-01,9.99999e-01,9.99999e-01,9.99792e-01,9.92906e-01,9.99999e-01
7.611705167e-01,9.92917e-01,9.99999e-01,9.99999e-01,9.99870e-01,9.93045e-01,9.99999e-01
7.649763693e-01,9.93102e-01,9.99999e-01,9.99999e-01,9.99918e-01,9.93182e-01,9.99999e-01
7.688012511e-01,9.93261e-01,9.99999e-01,9.99999e-01,9.99943e-01,9.93316e-01,9.99999e-01
7.726452574e-01,9.93402e-01,9.99999e-01,9.99999e-01,9.99953e-01,9.93448e-01,9.99999e-01
7.765084837e-01,9.93512e-01,9.99999e-01,9.99999e-01,9.99933e-01,9.93577e-01,9.99999e-01
7.803910261e-01,9.93421e-01,9.99999e-01,9.99999e-01,9.99715e-01,9.93703e-01,9.99999e-01
7.842929812e-01,9.92839e-01,9.99999e-01,9.99999e-01,9.99006e-01,9.93827e-01,9.99997e-01
7.882144461e-01,9.91903e-01,9.99999e-01,9.99999e-01,9.97955e-01,9.93949e-01,9.99985e-01
7.921555184e-01,9.92930e-01,9.99999e-01,9.99999e-01,9.98878e-01,9.94068e-01,9.99975e-01
7.961162960e-01,9.92191e-01,9.99999e-01,9.99999e-01,9.98016e-01,9.94185e-01,9.99976e-01
8.000968774e-01,9.92000e-01,9.99999e-01,9.99999e-01,9.97711e-01,9.94299e-01,9.99974e-01
8.040973618e-01,9.92116e-01,9.99999e-01,9.99999e-01,9.97710e-01,9.94412e-01,9.99979e-01
8.081178486e-01,9.89368e-01,9.99999e-01,9.99999e-01,9.94835e-01,9.94522e-01,9.99981e-01
8.121584379e-01,9.73268e-01,9.99999e-01,9.99999e-01,9.78592e-01,9.94630e-01,9.99927e-01
8.162192301e-01,9.69243e-01,9.99999e-01,9.99999e-01,9.74636e-01,9.94735e-01,9.99728e-01
8.203003262e-01,9.81791e-01,9.99999e-01,9.99999e-01,9.87197e-01,9.94839e-01,9.99681e-01
8.244018279e-01,9.76931e-01,9.99999e-01,9.99999e-01,9.82146e-01,9.94941e-01,9.99746e-01
8.285238370e-01,9.79728e-01,9.99999e-01,9.99999e-01,9.84806e-01,9.95040e-01,9.99801e-01
8.326664562e-01,9.79773e-01,9.99999e-01,9.99999e-01,9.84640e-01,9.95138e-01,9.99917e-01
8.368297885e-01,9.84296e-01,9.99999e-01,9.99999e-01,9.89027e-01,9.95234e-01,9.99980e-01
8.410139374e-01,9.88820e-01,9.99999e-01,9.99999e-01,9.93472e-01,9.95328e-01,9.99988e-01
8.452190071e-01,9.92225e-01,9.99999e-01,9.99999e-01,9.96796e-01,9.95420e-01,9.99992e-01
8.494451021e-01,9.93654e-01,9.99999e-01,9.99999e-01,9.98140e-01,9.95510e-01,9.99994e-01
8.536923276e-01,9.94501e-01,9.99999e-01,9.99999e-01,9.98900e-01,9.95599e-01,9.99996e-01
8.579607893e-01,9.95010e-01,9.99999e-01,9.99999e-01,9.99322e-01,9.95685e-01,9.99998e-01
8.622505932e-01,9.95342e-01,9.99999e-01,9.99999e-01,9.99569e-01,9.95770e-01,9.99999e-01
8.665618462e-01,9.95589e-01,9.99999e-01,9.99999e-01,9.99733e-01,9.95854e-01,9.99999e-01
8.708946554e-01,9.95632e-01,9.99999e-01,9.99999e-01,9.99694e-01,9.95935e-01,9.99999e-01
8.752491287e-01,9.95609e-01,9.99999e-01,9.99999e-01,9.99591e-01,9.96016e-01,9.99999e-01
8.796253743e-01,9.95530e-01,9.99999e-01,9.99999e-01,9.99434e-01,9.96094e-01,9.99998e-01
8.840235012e-01,9.95525e-01,9.99999e-01,9.99999e-01,9.99354e-01,9.96171e-01,9.99995e-01
8.884436187e-01,9.93885e-01,9.99999e-01,9.99999e-01,9.97640e-01,9.96246e-01,9.99988e-01
8.928858368e-01,9.71687e-01,9.99999e-01,9.99999e-01,9.75337e-01,9.96320e-01,9.99935e-01
8.973502660e-01,9.52980e-01,9.99999e-01,9.99999e-01,9.56745e-01,9.96393e-01,9.99669e-01
9.018370173e-01,9.73732e-01,9.99999e-01,9.99999e-01,9.77694e-01,9.96464e-01,9.99480e-01
9.063462024e-01,9.76497e-01,9.99999e-01,9.99999e-01,9.80339e-01,9.96534e-01,9.99543e-01
9.108779334e-01,9.65761e-01,9.99999e-01,9.99999e-01,9.69512e-01,9.96602e-01,9.99526e-01
9.154323231e-01,9.61885e-01,9.99999e-01,9.99999e-01,9.65477e-01,9.96669e-01,9.99608e-01
9.200094847e-01,9.69455e-01,9.99999e-01,9.99999e-01,9.72843e-01,9.96735e-01,9.99780e-01
9.246095321e-01,9.54031e-01,9.99999e-01,9.99999e-01,9.57335e-01,9.96799e-01,9.99747e-01
9.292325798e-01,7.42111e-01,9.99999e-01,9.99999e-01,7.45180e-01,9.96862e-01,9.99015e-01
9.338787427e-01,6.78639e-01,9.99999e-01,9.99999e-01,6.83509e-01,9.96924e-01,9.95937e-01
9.385481364e-01,8.51483e-01,9.99999e-01,9.99999e-01,8.58201e-01,9.96985e-01,9.95170e-01
9.432408771e-01,8.00372e-01,9.99999e-01,9.99999e-01,8.06103e-01,9.97044e-01,9.95832e-01
9.479570815e-01,7.35619e-01,9.99999e-01,9.99999e-01,7.40267e-01,9.97103e-01,9.96606e-01
9.526968669e-01,7.96766e-01,9.99999e-01,9.99999e-01,8.00693e-01,9.97160e-01,9.97928e-01
9.574603512e-01,8.14946e-01,9.99999e-01,9.99999e-01,8.18082e-01,9.97216e-01,9.98947e-01
9.622476530e-01,8.46958e-01,9.99999e-01,9.99999e-01,8.49894e-01,9.97271e-01,9.99271e-01
9.670588912e-01,9.07809e-01,9.99999e-01,9.99999e-01,9.10697e-01,9.97324e-01,9.99501e-01
9.718941857e-01,9.40665e-01,9.99999e-01,9.99999e-01,9.43484e-01,9.97377e-01,9.99633e-01
9.767536566e-01,9.50160e-01,9.99999e-01,9.99999e-01,9.52875e-01,9.97429e-01,9.99719e-01
9.816374249e-01,9.62385e-01,9.99999e-01,9.99999e-01,9.64910e-01,9.97480e-01,9.99902e-01
9.865456120e-01,9.75515e-01,9.99999e-01,9.99999e-01,9.77950e-01,9.97529e-01,9.99979e-01
9.914783401e-01,9.83928e-01,9.99999e-01,9.99999e-01,9.86322e-01,9.97578e-01,9.99993e-01
9.964357318e-01,9.90171e-01,9.99999e-01,9.99999e-01,9.92530e-01,9.97626e-01,9.99996e-01
1.001417910e+00,9.93197e-01,9.99999e-01,9.99999e-01,9.95518e-01,9.97673e-01,9.99994e-01
1.006425000e+00,9.95161e-01,9.99999e-01,9.99999e-01,9.97442e-01,9.97718e-01,9.99992e-01
1.011457125e+00,9.96174e-01,9.99999e-01,9.99999e-01,9.98412e-01,9.97763e-01,9.99992e-01
1.016514411e+00,9.96728e-01,9.99999e-01,9.99999e-01,9.98922e-01,9.97808e-01,9.99994e-01
1.021596983e+00,9.96989e-01,9.99999e-01,9.99999e-01,9.99140e-01,9.97851e-01,9.99994e-01
1.026704968e+00,9.97222e-01,9.99999e-01,9.99999e-01,9.99329e-01,9.97893e-01,9.99996e-01
1.031838492e+00,9.97448e-01,9.99999e-01,9.99999e-01,9.99512e-01,9.97935e-01,9.99998e-01
1.036997685e+00,9.97687e-01,9.99999e-01,9.99999e-01,9.99710e-01,9.97975e-01,9.99999e-01
1.042182673e+00,9.97671e-01,9.99999e-01,9.99999e-01,9.99654e-01,9.98015e-01,9.99999e-01
1.047393587e+00,9.97598e-01,9.99999e-01,9.99999e-01,9.99542e-01,9.98055e-01,9.99999e-01
1.052630555e+00,9.97467e-01,9.99999e-01,9.99999e-01,9.99372e-01,9.98093e-01,9.99999e-01
1.057893707e+00,9.97084e-01,9.99999e-01,9.99999e-01,9.98951e-01,9.98131e-01,9.99999e-01
1.063183176e+00,9.96446e-01,9.99999e-01,9.99999e-01,9.98275e-01,9.98167e-01,9.99998e-01
1.068499092e+00,9.95321e-01,9.99999e-01,9.99999e-01,9.97113e-01,9.98204e-01,9.99997e-01
1.073841587e+00,9.94862e-01,9.99999e-01,9.99999e-01,9.96620e-01,9.98239e-01,9.99995e-01
1.079210795e+00,9.93943e-01,9.99999e-01,9.99999e-01,9.95672e-01,9.98274e-01,9.99987e-01
1.084606849e+00,9.91744e-01,9.99999e-01,9.99999e-01,9.93452e-01,9.98308e-01,9.99971e-01
1.090029883e+00,9.88896e-01,9.99999e-01,9.99999e-01,9.90596e-01,9.98341e-01,9.99942e-01
1.095480033e+00,9.72895e-01,9.99999e-01,9.99999e-01,9.74580e-01,9.98374e-01,9.99895e-01
1.100957433e+00,9.34847e-01,9.99999e-01,9.99999e-01,9.36518e-01,9.98406e-01,9.99808e-01
1.106462220e+00,8.43874e-01,9.99999e-01,9.99999e-01,8.45468e-01,9.98437e-01,9.99674e-01
1.111994531e+00,6.99701e-01,9.99999e-01,9.99999e-01,7.01378e-01,9.98468e-01,9.99137e-01
1.117554504e+00,5.59083e-01,9.99999e-01,9.99999e-01,5.61668e-01,9.98498e-01,9.96892e-01
1.123142276e+00,6.44196e-01,9.99999e-01,9.99999e-01,6.49923e-01,9.98528e-01,9.92647e-01
1.128757988e+00,7.53864e-01,9.99999e-01,9.99999e-01,7.61425e-01,9.98557e-01,9.91499e-01
1.134401778e+00,5.19467e-01,9.99999e-01,9.99999e-01,5.23993e-01,9.98586e-01,9.92766e-01
1.140073787e+00,8.45428e-01,9.99999e-01,9.99999e-01,8.51526e-01,9.98613e-01,9.94216e-01
1.145774156e+00,7.08082e-01,9.99999e-01,9.99999e-01,7.12819e-01,9.98641e-01,9.94704e-01
1.151503026e+00,6.81368e-01,9.99999e-01,9.99999e-01,6.84297e-01,9.98668e-01,9.97046e-01
1.157260541e+00,7.30855e-01,9.99999e-01,9.99999e-01,7.32458e-01,9.98694e-01,9.99115e-01
1.163046844e+00,7.93752e-01,9.99999e-01,9.99999e-01,7.94968e-01,9.98720e-01,9.99748e-01
1.168862078e+00,8.52238e-01,9.99999e-01,9.99999e-01,8.53418e-01,9.98745e-01,9.99870e-01
1.174706389e+00,9.05575e-01,9.99999e-01,9.99999e-01,9.06845e-01,9.98770e-01,9.99828e-01
1.180579921e+00,9.40875e-01,9.99999e-01,9.99999e-01,9.42254e-01,9.98794e-01,9.99740e-01
1.186482820e+00,9.65594e-01,9.99999e-01,9.99999e-01,9.66992e-01,9.98818e-01,9.99733e-01
1.192415234e+00,9.79287e-01,9.99999e-01,9.99999e-01,9.80617e-01,9.98841e-01,9.99800e-01
1.198377311e+00,9.82333e-01,9.99999e-01,9.99999e-01,9.83634e-01,9.98864e-01,9.99811e-01
1.204369197e+00,9.83236e-01,9.99999e-01,9.99999e-01,9.84498e-01,9.98886e-01,9.99829e-01
1.210391043e+00,9.84001e-01,9.99999e-01,9.99999e-01,9.85177e-01,9.98908e-01,9.99896e-01
1.216442998e+00,9.86262e-01,9.99999e-01,9.99999e-01,9.87380e-01,9.98930e-01,9.99936e-01
1.222525213e+00,9.89089e-01,9.99999e-01,9.99999e-01,9.90165e-01,9.98951e-01,9.99960e-01
1.228637839e+00,9.92124e-01,9.99999e-01,9.99999e-01,9.93162e-01,9.98972e-01,9.99981e-01
