#,Wave/freq,Total,N2,O2,H2O,Rayleigh,CIA
4.000000000e-01,4.66983e-01,9.99999e-01,9.99999e-01,9.99913e-01,4.67023e-01,9.99999e-01
4.020000000e-01,4.74082e-01,9.99999e-01,9.99999e-01,9.99946e-01,4.74107e-01,9.99999e-01
4.040100000e-01,4.81137e-01,9.99999e-01,9.99999e-01,9.99977e-01,4.81148e-01,9.99999e-01
4.060300500e-01,4.88148e-01,9.99999e-01,9.99999e-01,9.99994e-01,4.88151e-01,9.99999e-01
4.080602003e-01,4.95114e-01,9.99999e-01,9.99999e-01,9.99997e-01,4.95115e-01,9.99999e-01
4.101005013e-01,5.02038e-01,9.99999e-01,9.99999e-01,9.99999e-01,5.02038e-01,9.99999e-01
4.121510038e-01,5.08916e-01,9.99999e-01,9.99999e-01,9.99996e-01,5.08918e-01,9.99999e-01
4.142117588e-01,5.15741e-01,9.99999e-01,9.99999e-01,9.99975e-01,5.15753e-01,9.99999e-01
4.162828176e-01,5.22487e-01,9.99999e-01,9.99999e-01,9.99893e-01,5.22543e-01,9.99999e-01
4.183642317e-01,5.29252e-01,9.99999e-01,9.99999e-01,9.99936e-01,5.29285e-01,9.99999e-01
4.204560528e-01,5.35958e-01,9.99999e-01,9.99999e-01,9.99960e-01,5.35979e-01,9.99999e-01
4.225583331e-01,5.42614e-01,9.99999e-01,9.99999e-01,9.99985e-01,5.42622e-01,9.99999e-01
4.246711247e-01,5.49208e-01,9.99999e-01,9.99999e-01,9.99987e-01,5.49214e-01,9.99999e-01
4.267944804e-01,5.55744e-01,9.99999e-01,9.99999e-01,9.99982e-01,5.55754e-01,9.99999e-01
4.289284528e-01,5.62233e-01,9.99999e-01,9.99999e-01,9.99986e-01,5.62240e-01,9.99999e-01
4.310730950e-01,5.68668e-01,9.99999e-01,9.99999e-01,9.99993e-01,5.68671e-01,9.99999e-01
4.332284605e-01,5.75046e-01,9.99999e-01,9.99999e-01,9.99998e-01,5.75047e-01,9.99999e-01
4.353946028e-01,5.81366e-01,9.99999e-01,9.99999e-01,9.99998e-01,5.81366e-01,9.99999e-01
4.375715758e-01,5.87622e-01,9.99999e-01,9.99999e-01,9.99988e-01,5.87628e-01,9.99999e-01
4.397594337e-01,5.93775e-01,9.99999e-01,9.99999e-01,9.99904e-01,5.93832e-01,9.99999e-01
4.419582309e-01,5.99687e-01,9.99999e-01,9.99999e-01,9.99517e-01,5.99976e-01,9.99999e-01
4.441680220e-01,6.05839e-01,9.99999e-01,9.99999e-01,9.99632e-01,6.06061e-01,9.99999e-01
4.463888621e-01,6.11850e-01,9.99999e-01,9.99999e-01,9.99614e-01,6.12086e-01,9.99999e-01
4.486208064e-01,6.17903e-01,9.99999e-01,9.99999e-01,9.99761e-01,6.18049e-01,9.99999e-01
4.508639105e-01,6.23882e-01,9.99999e-01,9.99999e-01,9.99888e-01,6.23952e-01,9.99999e-01
4.531182300e-01,6.29765e-01,9.99999e-01,9.99999e-01,9.99955e-01,6.29792e-01,9.99999e-01
4.553838212e-01,6.35551e-01,9.99999e-01,9.99999e-01,9.99969e-01,6.35570e-01,9.99999e-01
4.576607403e-01,6.41277e-01,9.99999e-01,9.99999e-01,9.99985e-01,6.41286e-01,9.99999e-01
4.599490440e-01,6.46932e-01,9.99999e-01,9.99999e-01,9.99989e-01,6.46938e-01,9.99999e-01
4.622487892e-01,6.52526e-01,9.99999e-01,9.99999e-01,9.99997e-01,6.52527e-01,9.99999e-01
4.645600332e-01,6.58049e-01,9.99999e-01,9.99999e-01,9.99992e-01,6.58053e-01,9.99999e-01
4.668828333e-01,6.63439e-01,9.99999e-01,9.99999e-01,9.99885e-01,6.63515e-01,9.99999e-01
4.692172475e-01,6.68751e-01,9.99999e-01,9.99999e-01,9.99758e-01,6.68913e-01,9.99999e-01
4.715633337e-01,6.74140e-01,9.99999e-01,9.99999e-01,9.99841e-01,6.74247e-01,9.99999e-01
4.739211504e-01,6.79415e-01,9.99999e-01,9.99999e-01,9.99849e-01,6.79517e-01,9.99999e-01
4.762907561e-01,6.84669e-01,9.99999e-01,9.99999e-01,9.99921e-01,6.84723e-01,9.99999e-01
4.786722099e-01,6.89842e-01,9.99999e-01,9.99999e-01,9.99967e-01,6.89864e-01,9.99999e-01
4.810655710e-01,6.94935e-01,9.99999e-01,9.99999e-01,9.99989e-01,6.94942e-01,9.99999e-01
4.834708988e-01,6.99889e-01,9.99999e-01,9.99999e-01,9.99904e-01,6.99955e-01,9.99999e-01
4.858882533e-01,7.04785e-01,9.99999e-01,9.99999e-01,9.99829e-01,7.04905e-01,9.99999e-01
4.883176946e-01,7.09689e-01,9.99999e-01,9.99999e-01,9.99855e-01,7.09791e-01,9.99999e-01
4.907592831e-01,7.14521e-01,9.99999e-01,9.99999e-01,9.99870e-01,7.14613e-01,9.99999e-01
4.932130795e-01,7.19306e-01,9.99999e-01,9.99999e-01,9.99907e-01,7.19372e-01,9.99999e-01
4.956791449e-01,7.24032e-01,9.99999e-01,9.99999e-01,9.99951e-01,7.24067e-01,9.99999e-01
4.981575406e-01,7.28522e-01,9.99999e-01,9.99999e-01,9.99755e-01,7.28700e-01,9.99999e-01
5.006483283e-01,7.32799e-01,9.99999e-01,9.99999e-01,9.99362e-01,7.33269e-01,9.99995e-01
5.031515699e-01,7.35394e-01,9.99999e-01,9.99999e-01,9.96803e-01,7.37777e-01,9.99965e-01
5.056673278e-01,7.40946e-01,9.99999e-01,9.99999e-01,9.98318e-01,7.42222e-01,9.99961e-01
5.081956644e-01,7.45005e-01,9.99999e-01,9.99999e-01,9.97879e-01,7.46605e-01,9.99976e-01
5.107366428e-01,7.49850e-01,9.99999e-01,9.99999e-01,9.98569e-01,7.50927e-01,9.99995e-01
5.132903260e-01,7.54571e-01,9.99999e-01,9.99999e-01,9.99183e-01,7.55188e-01,9.99998e-01
5.158567776e-01,7.59127e-01,9.99999e-01,9.99999e-01,9.99655e-01,7.59388e-01,9.99999e-01
5.184360615e-01,7.63423e-01,9.99999e-01,9.99999e-01,9.99861e-01,7.63528e-01,9.99999e-01
5.210282418e-01,7.67568e-01,9.99999e-01,9.99999e-01,9.99947e-01,7.67608e-01,9.99999e-01
5.236333830e-01,7.71467e-01,9.99999e-01,9.99999e-01,9.99791e-01,7.71628e-01,9.99998e-01
5.262515499e-01,7.75487e-01,9.99999e-01,9.99999e-01,9.99869e-01,7.75590e-01,9.99997e-01
5.288828077e-01,7.79398e-01,9.99999e-01,9.99999e-01,9.99879e-01,7.79493e-01,9.99998e-01
5.315272217e-01,7.83256e-01,9.99999e-01,9.99999e-01,9.99895e-01,7.83338e-01,9.99999e-01
5.341848578e-01,7.87071e-01,9.99999e-01,9.99999e-01,9.99930e-01,7.87125e-01,9.99999e-01
5.368557821e-01,7.90662e-01,9.99999e-01,9.99999e-01,9.99755e-01,7.90856e-01,9.99998e-01
5.395400610e-01,7.93819e-01,9.99999e-01,9.99999e-01,9.99113e-01,7.94530e-01,9.99991e-01
5.422377613e-01,7.97232e-01,9.99999e-01,9.99999e-01,9.98873e-01,7.98147e-01,9.99978e-01
5.449489501e-01,8.00846e-01,9.99999e-01,9.99999e-01,9.98943e-01,8.01710e-01,9.99978e-01
5.476736949e-01,8.04463e-01,9.99999e-01,9.99999e-01,9.99073e-01,8.05217e-01,9.99989e-01
5.504120634e-01,8.08124e-01,9.99999e-01,9.99999e-01,9.99326e-01,8.08670e-01,9.99996e-01
5.531641237e-01,8.11795e-01,9.99999e-01,9.99999e-01,9.99661e-01,8.12070e-01,9.99999e-01
5.559299443e-01,8.15283e-01,9.99999e-01,9.99999e-01,9.99836e-01,8.15416e-01,9.99999e-01
5.587095940e-01,8.18625e-01,9.99999e-01,9.99999e-01,9.99896e-01,8.18709e-01,9.99999e-01
5.615031420e-01,8.21856e-01,9.99999e-01,9.99999e-01,9.99885e-01,8.21950e-01,9.99999e-01
5.643106577e-01,8.25030e-01,9.99999e-01,9.99999e-01,9.99867e-01,8.25140e-01,9.99998e-01
5.671322110e-01,8.26932e-01,9.99999e-01,9.99999e-01,9.98388e-01,8.28278e-01,9.99985e-01
5.699678720e-01,8.29950e-01,9.99999e-01,9.99999e-01,9.98338e-01,8.31366e-01,9.99956e-01
5.728177114e-01,8.32913e-01,9.99999e-01,9.99999e-01,9.98247e-01,8.34405e-01,9.99963e-01
5.756818000e-01,8.36033e-01,9.99999e-01,9.99999e-01,9.98395e-01,8.37394e-01,9.99978e-01
5.785602090e-01,8.39157e-01,9.99999e-01,9.99999e-01,9.98604e-01,8.40334e-01,9.99993e-01
5.814530100e-01,8.42039e-01,9.99999e-01,9.99999e-01,9.98594e-01,8.43227e-01,9.99996e-01
5.843602750e-01,8.44635e-01,9.99999e-01,9.99999e-01,9.98311e-01,8.46071e-01,9.99990e-01
5.872820764e-01,8.36535e-01,9.99999e-01,9.99999e-01,9.85568e-01,8.48869e-01,9.99898e-01
5.902184868e-01,8.36645e-01,9.99999e-01,9.99999e-01,9.82685e-01,8.51621e-01,9.99723e-01
5.931695792e-01,8.43605e-01,9.99999e-01,9.99999e-01,9.87711e-01,8.54327e-01,9.99733e-01
5.961354271e-01,8.45341e-01,9.99999e-01,9.99999e-01,9.86559e-01,8.56988e-01,9.99846e-01
5.991161043e-01,8.51132e-01,9.99999e-01,9.99999e-01,9.90189e-01,8.59605e-01,9.99952e-01
6.021116848e-01,8.57370e-01,9.99999e-01,9.99999e-01,9.94429e-01,8.62177e-01,9.99994e-01
6.051222432e-01,8.62267e-01,9.99999e-01,9.99999e-01,9.97179e-01,8.64706e-01,9.99999e-01
6.081478544e-01,8.66136e-01,9.99999e-01,9.99999e-01,9.98780e-01,8.67193e-01,9.99999e-01
6.111885937e-01,8.69190e-01,9.99999e-01,9.99999e-01,9.99485e-01,8.69637e-01,9.99999e-01
6.142445367e-01,8.71839e-01,9.99999e-01,9.99999e-01,9.99769e-01,8.72040e-01,9.99999e-01
6.173157594e-01,8.74290e-01,9.99999e-01,9.99999e-01,9.99872e-01,8.74401e-01,9.99999e-01
6.204023382e-01,8.76627e-01,9.99999e-01,9.99999e-01,9.99891e-01,8.76722e-01,9.99999e-01
6.235043498e-01,8.78577e-01,9.99999e-01,9.99999e-01,9.99515e-01,8.79004e-01,9.99998e-01
6.266218716e-01,8.79014e-01,9.99999e-01,9.99999e-01,9.97484e-01,8.81246e-01,9.99981e-01
6.297549810e-01,8.82602e-01,9.99999e-01,9.99999e-01,9.99076e-01,8.83449e-01,9.99964e-01
6.329037559e-01,8.83979e-01,9.99999e-01,9.99999e-01,9.98181e-01,8.85614e-01,9.99971e-01
6.360682746e-01,8.86345e-01,9.99999e-01,9.99999e-01,9.98443e-01,8.87742e-01,9.99982e-01
6.392486160e-01,8.88036e-01,9.99999e-01,9.99999e-01,9.97987e-01,8.89832e-01,9.99992e-01
6.424448591e-01,8.89452e-01,9.99999e-01,9.99999e-01,9.97283e-01,8.91886e-01,9.99986e-01
6.456570834e-01,8.82623e-01,9.99999e-01,9.99999e-01,9.87454e-01,8.93904e-01,9.99923e-01
6.488853688e-01,8.87578e-01,9.99999e-01,9.99999e-01,9.90917e-01,8.95886e-01,9.99805e-01
6.521297956e-01,8.89386e-01,9.99999e-01,9.99999e-01,9.90748e-01,8.97834e-01,9.99839e-01
6.553904446e-01,8.91300e-01,9.99999e-01,9.99999e-01,9.90729e-01,8.99747e-01,9.99880e-01
6.586673968e-01,8.94466e-01,9.99999e-01,9.99999e-01,9.92097e-01,9.01627e-01,9.99959e-01
6.619607338e-01,8.99480e-01,9.99999e-01,9.99999e-01,9.95588e-01,9.03473e-01,9.99990e-01
6.652705375e-01,9.02884e-01,9.99999e-01,9.99999e-01,9.97350e-01,9.05286e-01,9.99995e-01
6.685968902e-01,9.06046e-01,9.99999e-01,9.99999e-01,9.98874e-01,9.07067e-01,9.99998e-01
6.719398746e-01,9.08298e-01,9.99999e-01,9.99999e-01,9.99429e-01,9.08816e-01,9.99999e-01
6.752995740e-01,9.10260e-01,9.99999e-01,9.99999e-01,9.99698e-01,9.10534e-01,9.99999e-01
6.786760719e-01,9.11809e-01,9.99999e-01,9.99999e-01,9.99547e-01,9.12222e-01,9.99998e-01
6.820694522e-01,9.13166e-01,9.99999e-01,9.99999e-01,9.99223e-01,9.13878e-01,9.99995e-01
6.854797995e-01,9.14590e-01,9.99999e-01,9.99999e-01,9.99007e-01,9.15506e-01,9.99990e-01
6.889071985e-01,9.14848e-01,9.99999e-01,9.99999e-01,9.97562e-01,9.17103e-01,9.99978e-01
6.923517345e-01,8.83028e-01,9.99999e-01,9.99999e-01,9.61379e-01,9.18672e-01,9.99812e-01
6.958134932e-01,9.01633e-01,9.99999e-01,9.99999e-01,9.80215e-01,9.20213e-01,9.99584e-01
6.992925606e-01,9.03615e-01,9.99999e-01,9.99999e-01,9.80718e-01,9.21725e-01,9.99625e-01
7.027890234e-01,9.01214e-01,9.99999e-01,9.99999e-01,9.76452e-01,9.23211e-01,9.99713e-01
7.063029686e-01,9.06168e-01,9.99999e-01,9.99999e-01,9.80131e-01,9.24669e-01,9.99857e-01
7.098344834e-01,9.08358e-01,9.99999e-01,9.99999e-01,9.80923e-01,9.26100e-01,9.99915e-01
7.133836558e-01,9.03584e-01,9.99999e-01,9.99999e-01,9.74370e-01,9.27506e-01,9.99832e-01
7.169505741e-01,7.56390e-01,9.99999e-01,9.99999e-01,8.15369e-01,9.28885e-01,9.98685e-01
7.205353270e-01,8.41093e-01,9.99999e-01,9.99999e-01,9.06267e-01,9.30240e-01,9.97682e-01
7.241380036e-01,8.18373e-01,9.99999e-01,9.99999e-01,8.80250e-01,9.31570e-01,9.97998e-01
7.277586936e-01,8.30253e-01,9.99999e-01,9.99999e-01,8.91452e-01,9.32875e-01,9.98363e-01
7.313974871e-01,8.26353e-01,9.99999e-01,9.99999e-01,8.85276e-01,9.34156e-01,9.99232e-01
7.350544745e-01,8.74680e-01,9.99999e-01,9.99999e-01,9.35322e-01,9.35414e-01,9.99733e-01
7.387297469e-01,8.91509e-01,9.99999e-01,9.99999e-01,9.51923e-01,9.36648e-01,9.99877e-01
7.424233956e-01,9.15536e-01,9.99999e-01,9.99999e-01,9.76217e-01,9.37860e-01,9.99978e-01
7.461355126e-01,9.25422e-01,9.99999e-01,9.99999e-01,9.85492e-01,9.39049e-01,9.99995e-01
7.498661902e-01,9.33860e-01,9.99999e-01,9.99999e-01,9.93241e-01,9.40216e-01,9.99998e-01
7.536155211e-01,9.38225e-01,9.99999e-01,9.99999e-01,9.96667e-01,9.41362e-01,9.99998e-01
7.573835987e-01,9.40869e-01,9.99999e-01,9.99999e-01,9.98284e-01,9.42486e-01,9.99999e-01
7.611705167e-01,9.42583e-01,9.99999e-01,9.99999e-01,9.98933e-01,9.43589e-01,9.99999e-01
7.649763693e-01,9.44040e-01,9.99999e-01,9.99999e-01,9.99330e-01,9.44672e-01,9.99999e-01
7.688012511e-01,9.45293e-01,9.99999e-01,9.99999e-01,9.99532e-01,9.45735e-01,9.99999e-01
7.726452574e-01,9.46413e-01,9.99999e-01,9.99999e-01,9.99615e-01,9.46777e-01,9.99999e-01
7.765084837e-01,9.47278e-01,9.99999e-01,9.99999e-01,9.99448e-01,9.47801e-01,9.99998e-01
7.803910261e-01,9.46541e-01,9.99999e-01,9.99999e-01,9.97615e-01,9.48805e-01,9.99997e-01
7.842929812e-01,9.41895e-01,9.99999e-01,9.99999e-01,9.91701e-01,9.49790e-01,9.99984e-01
7.882144461e-01,9.34612e-01,9.99999e-01,9.99999e-01,9.83132e-01,9.50757e-01,9.99883e-01
7.921555184e-01,9.42735e-01,9.99999e-01,9.99999e-01,9.90773e-01,9.51706e-01,9.99797e-01
7.961162960e-01,9.36780e-01,9.99999e-01,9.99999e-01,9.83543e-01,9.52637e-01,9.99806e-01
8.000968774e-01,9.35354e-01,9.99999e-01,9.99999e-01,9.81118e-01,9.53550e-01,9.99794e-01
8.040973618e-01,9.36251e-01,9.99999e-01,9.99999e-01,9.81088e-01,9.54447e-01,9.99843e-01
8.081178486e-01,9.14779e-01,9.99999e-01,9.99999e-01,9.57707e-01,9.55326e-01,9.99841e-01
8.121584379e-01,7.99575e-01,9.99999e-01,9.99999e-01,8.36712e-01,9.56189e-01,9.99399e-01
8.162192301e-01,7.75099e-01,9.99999e-01,9.99999e-01,8.11725e-01,9.57035e-01,9.97745e-01
8.203003262e-01,8.61450e-01,9.99999e-01,9.99999e-01,9.01723e-01,9.57866e-01,9.97360e-01
8.244018279e-01,8.32363e-01,9.99999e-01,9.99999e-01,8.70066e-01,9.58681e-01,9.97898e-01
8.285238370e-01,8.44316e-01,9.99999e-01,9.99999e-01,8.81427e-01,9.59480e-01,9.98348e-01
8.326664562e-01,8.45398e-01,9.99999e-01,9.99999e-01,8.80981e-01,9.60264e-01,9.99316e-01
8.368297885e-01,8.77367e-01,9.99999e-01,9.99999e-01,9.13082e-01,9.61034e-01,9.99843e-01
8.410139374e-01,9.11069e-01,9.99999e-01,9.99999e-01,9.47351e-01,9.61788e-01,9.99908e-01
8.452190071e-01,9.37294e-01,9.99999e-01,9.99999e-01,9.73835e-01,9.62529e-01,9.99945e-01
8.494451021e-01,9.48443e-01,9.99999e-01,9.99999e-01,9.84665e-01,9.63255e-01,9.99955e-01
8.536923276e-01,9.55207e-01,9.99999e-01,9.99999e-01,9.90937e-01,9.63968e-01,9.99972e-01
8.579607893e-01,9.59251e-01,9.99999e-01,9.99999e-01,9.94392e-01,9.64667e-01,9.99993e-01
8.622505932e-01,9.61918e-01,9.99999e-01,9.99999e-01,9.96443e-01,9.65352e-01,9.99998e-01
8.665618462e-01,9.63890e-01,9.99999e-01,9.99999e-01,9.97789e-01,9.66025e-01,9.99998e-01
8.708946554e-01,9.64232e-01,9.99999e-01,9.99999e-01,9.97463e-01,9.66685e-01,9.99998e-01
8.752491287e-01,9.64051e-01,9.99999e-01,9.99999e-01,9.96610e-01,9.67332e-01,9.99995e-01
8.796253743e-01,9.63401e-01,9.99999e-01,9.99999e-01,9.95293e-01,9.67967e-01,9.99989e-01
8.840235012e-01,9.63358e-01,9.99999e-01,9.99999e-01,9.94631e-01,9.68589e-01,9.99966e-01
8.884436187e-01,9.49980e-01,9.99999e-01,9.99999e-01,9.80259e-01,9.69200e-01,9.99906e-01
8.928858368e-01,7.90117e-01,9.99999e-01,9.99999e-01,8.15158e-01,9.69799e-01,9.99464e-01
8.973502660e-01,6.78204e-01,9.99999e-01,9.99999e-01,7.00821e-01,9.70387e-01,9.97257e-01
9.018370173e-01,8.07730e-01,9.99999e-01,9.99999e-01,8.35484e-01,9.70963e-01,9.95691e-01
9.063462024e-01,8.23108e-01,9.99999e-01,9.99999e-01,8.50449e-01,9.71528e-01,9.96214e-01
9.108779334e-01,7.53436e-01,9.99999e-01,9.99999e-01,7.78134e-01,9.72083e-01,9.96066e-01
9.154323231e-01,7.28533e-01,9.99999e-01,9.99999e-01,7.51480e-01,9.72627e-01,9.96747e-01
9.200094847e-01,7.77865e-01,9.99999e-01,9.99999e-01,8.00777e-01,9.73160e-01,9.98178e-01
9.246095321e-01,6.92233e-01,9.99999e-01,9.99999e-01,7.12437e-01,9.73683e-01,9.97901e-01
9.292325798e-01,1.24730e-01,9.99999e-01,9.99999e-01,1.29339e-01,9.74196e-01,9.89908e-01
9.338787427e-01,6.65757e-02,9.99999e-01,9.99999e-01,7.08543e-02,9.74699e-01,9.64001e-01
9.385481364e-01,3.18055e-01,9.99999e-01,9.99999e-01,3.39551e-01,9.75193e-01,9.60520e-01
9.432408771e-01,2.21216e-01,9.99999e-01,9.99999e-01,2.34748e-01,9.75677e-01,9.65846e-01
9.479570815e-01,1.25867e-01,9.99999e-01,9.99999e-01,1.32641e-01,9.76151e-01,9.72114e-01
9.526968669e-01,2.00017e-01,9.99999e-01,9.99999e-01,2.08369e-01,9.76617e-01,9.82897e-01
9.574603512e-01,2.16015e-01,9.99999e-01,9.99999e-01,2.23029e-01,9.77073e-01,9.91275e-01
9.622476530e-01,2.80071e-01,9.99999e-01,9.99999e-01,2.88252e-01,9.77521e-01,9.93959e-01
9.670588912e-01,4.70265e-01,9.99999e-01,9.99999e-01,4.82860e-01,9.77960e-01,9.95864e-01
9.718941857e-01,6.08037e-01,9.99999e-01,9.99999e-01,6.23364e-01,9.78391e-01,9.96953e-01
9.767536566e-01,6.58972e-01,9.99999e-01,9.99999e-01,6.74806e-01,9.78813e-01,9.97671e-01
9.816374249e-01,7.30128e-01,9.99999e-01,9.99999e-01,7.46218e-01,9.79227e-01,9.99193e-01
9.865456120e-01,8.15158e-01,9.99999e-01,9.99999e-01,8.32244e-01,9.79633e-01,9.99831e-01
9.914783401e-01,8.74461e-01,9.99999e-01,9.99999e-01,8.92319e-01,9.80031e-01,9.99952e-01
9.964357318e-01,9.21409e-01,9.99999e-01,9.99999e-01,9.39833e-01,9.80422e-01,9.99972e-01
1.001417910e+00,9.44954e-01,9.99999e-01,9.99999e-01,9.63487e-01,9.80805e-01,9.99957e-01
1.006425000e+00,9.60480e-01,9.99999e-01,9.99999e-01,9.78959e-01,9.81180e-01,9.99940e-01
1.011457125e+00,9.68665e-01,9.99999e-01,9.99999e-01,9.86927e-01,9.81549e-01,9.99944e-01
1.016514411e+00,9.73126e-01,9.99999e-01,9.99999e-01,9.91092e-01,9.81910e-01,9.99960e-01
1.021596983e+00,9.75244e-01,9.99999e-01,9.99999e-01,9.92890e-01,9.82264e-01,9.99961e-01
1.026704968e+00,9.77133e-01,9.99999e-01,9.99999e-01,9.94448e-01,9.82611e-01,9.99975e-01
1.031838492e+00,9.78985e-01,9.99999e-01,9.99999e-01,9.95971e-01,9.82952e-01,9.99992e-01
1.036997685e+00,9.80925e-01,9.99999e-01,9.99999e-01,9.97599e-01,9.83286e-01,9.99998e-01
1.042182673e+00,9.80787e-01,9.99999e-01,9.99999e-01,9.97126e-01,9.83613e-01,9.99999e-01
1.047393587e+00,9.80194e-01,9.99999e-01,9.99999e-01,9.96199e-01,9.83934e-01,9.99998e-01
1.052630555e+00,9.79111e-01,9.99999e-01,9.99999e-01,9.94780e-01,9.84249e-01,9.99998e-01
1.057893707e+00,9.75977e-01,9.99999e-01,9.99999e-01,9.91286e-01,9.84558e-01,9.99996e-01
1.063183176e+00,9.70792e-01,9.99999e-01,9.99999e-01,9.85721e-01,9.84860e-01,9.99992e-01
1.068499092e+00,9.61747e-01,9.99999e-01,9.99999e-01,9.76252e-01,9.85157e-01,9.99983e-01
1.073841587e+00,9.58063e-01,9.99999e-01,9.99999e-01,9.72243e-01,9.85448e-01,9.99964e-01
1.079210795e+00,9.50814e-01,9.99999e-01,9.99999e-01,9.64667e-01,9.85733e-01,9.99903e-01
1.084606849e+00,9.33503e-01,9.99999e-01,9.99999e-01,9.46963e-01,9.86013e-01,9.99768e-01
1.090029883e+00,9.11281e-01,9.99999e-01,9.99999e-01,9.24392e-01,9.86288e-01,9.99521e-01
1.095480033e+00,7.96301e-01,9.99999e-01,9.99999e-01,8.07850e-01,9.86557e-01,9.99134e-01
1.100957433e+00,5.77598e-01,9.99999e-01,9.99999e-01,5.86245e-01,9.86820e-01,9.98408e-01
1.106462220e+00,2.70356e-01,9.99999e-01,9.99999e-01,2.74636e-01,9.87079e-01,9.97301e-01
1.111994531e+00,7.10575e-02,9.99999e-01,9.99999e-01,7.24871e-02,9.87333e-01,9.92853e-01
1.117554504e+00,1.65618e-02,9.99999e-01,9.99999e-01,1.72099e-02,9.87581e-01,9.74438e-01
1.123142276e+00,6.00728e-02,9.99999e-01,9.99999e-01,6.46644e-02,9.87825e-01,9.40442e-01
1.128757988e+00,1.30437e-01,9.99999e-01,9.99999e-01,1.41731e-01,9.88064e-01,9.31428e-01
1.134401778e+00,6.07543e-02,9.99999e-01,9.99999e-01,6.53011e-02,9.88298e-01,9.41385e-01
1.140073787e+00,2.74747e-01,9.99999e-01,9.99999e-01,2.91677e-01,9.88528e-01,9.52885e-01
1.145774156e+00,9.00899e-02,9.99999e-01,9.99999e-01,9.52297e-02,9.88753e-01,9.56785e-01
1.151503026e+00,7.09154e-02,9.99999e-01,9.99999e-01,7.34924e-02,9.88974e-01,9.75690e-01
1.157260541e+00,9.18552e-02,9.99999e-01,9.99999e-01,9.35446e-02,9.89191e-01,9.92668e-01
1.163046844e+00,1.68828e-01,9.99999e-01,9.99999e-01,1.70992e-01,9.89403e-01,9.97916e-01
1.168862078e+00,2.77134e-01,9.99999e-01,9.99999e-01,2.80344e-01,9.89611e-01,9.98925e-01
1.174706389e+00,4.48936e-01,9.99999e-01,9.99999e-01,4.54201e-01,9.89816e-01,9.98576e-01
1.180579921e+00,6.08757e-01,9.99999e-01,9.99999e-01,6.16221e-01,9.90016e-01,9.97848e-01
1.186482820e+00,7.49284e-01,9.99999e-01,9.99999e-01,7.58364e-01,9.90212e-01,9.97791e-01
1.192415234e+00,8.40707e-01,9.99999e-01,9.99999e-01,8.50258e-01,9.90404e-01,9.98345e-01
1.198377311e+00,8.62514e-01,9.99999e-01,9.99999e-01,8.72073e-01,9.90593e-01,9.98430e-01
1.204369197e+00,8.69795e-01,9.99999e-01,9.99999e-01,8.79092e-01,9.90778e-01,9.98632e-01
1.210391043e+00,8.75059e-01,9.99999e-01,9.99999e-01,8.83802e-01,9.90959e-01,9.99139e-01
1.216442998e+00,8.92027e-01,9.99999e-01,9.99999e-01,9.00477e-01,9.91137e-01,9.99472e-01
1.222525213e+00,9.13078e-01,9.99999e-01,9.99999e-01,9.21381e-01,9.91311e-01,9.99672e-01
1.228637839e+00,9.36469e-01,9.99999e-01,9.99999e-01,9.44657e-01,9.91482e-01,9.99847e-01
