#,Wave/freq,Total,N2,O2,H2O,Rayleigh,CIA
4.000000000e-01,8.67363e-01,9.99999e-01,9.99999e-01,9.99983e-01,8.67376e-01,9.99999e-01
4.020000000e-01,8.69811e-01,9.99999e-01,9.99999e-01,9.99989e-01,8.69820e-01,9.99999e-01
4.040100000e-01,8.72216e-01,9.99999e-01,9.99999e-01,9.99995e-01,8.72220e-01,9.99999e-01
4.060300500e-01,8.74577e-01,9.99999e-01,9.99999e-01,9.99998e-01,8.74578e-01,9.99999e-01
4.080602003e-01,8.76896e-01,9.99999e-01,9.99999e-01,9.99999e-01,8.76896e-01,9.99999e-01
4.101005013e-01,8.79175e-01,9.99999e-01,9.99999e-01,9.99999e-01,8.79175e-01,9.99999e-01
4.121510038e-01,8.81413e-01,9.99999e-01,9.99999e-01,9.99998e-01,8.81414e-01,9.99999e-01
4.142117588e-01,8.83610e-01,9.99999e-01,9.99999e-01,9.99995e-01,8.83614e-01,9.99999e-01
4.162828176e-01,8.85759e-01,9.99999e-01,9.99999e-01,9.99979e-01,8.85776e-01,9.99999e-01
4.183642317e-01,8.87890e-01,9.99999e-01,9.99999e-01,9.99987e-01,8.87901e-01,9.99999e-01
4.204560528e-01,8.89982e-01,9.99999e-01,9.99999e-01,9.99992e-01,8.89989e-01,9.99999e-01
4.225583331e-01,8.92037e-01,9.99999e-01,9.99999e-01,9.99996e-01,8.92040e-01,9.99999e-01
4.246711247e-01,8.94053e-01,9.99999e-01,9.99999e-01,9.99997e-01,8.94055e-01,9.99999e-01
4.267944804e-01,8.96032e-01,9.99999e-01,9.99999e-01,9.99996e-01,8.96035e-01,9.99999e-01
4.289284528e-01,8.97978e-01,9.99999e-01,9.99999e-01,9.99997e-01,8.97980e-01,9.99999e-01
4.310730950e-01,8.99890e-01,9.99999e-01,9.99999e-01,9.99998e-01,8.99891e-01,9.99999e-01
4.332284605e-01,9.01767e-01,9.99999e-01,9.99999e-01,9.99999e-01,9.01767e-01,9.99999e-01
4.353946028e-01,9.03611e-01,9.99999e-01,9.99999e-01,9.99999e-01,9.03611e-01,9.99999e-01
4.375715758e-01,9.05420e-01,9.99999e-01,9.99999e-01,9.99997e-01,9.05422e-01,9.99999e-01
4.397594337e-01,9.07185e-01,9.99999e-01,9.99999e-01,9.99982e-01,9.07201e-01,9.99999e-01
4.419582309e-01,9.08868e-01,9.99999e-01,9.99999e-01,9.99912e-01,9.08947e-01,9.99999e-01
4.441680220e-01,9.10600e-01,9.99999e-01,9.99999e-01,9.99929e-01,9.10663e-01,9.99999e-01
4.463888621e-01,9.12282e-01,9.99999e-01,9.99999e-01,9.99927e-01,9.12348e-01,9.99999e-01
4.486208064e-01,9.13961e-01,9.99999e-01,9.99999e-01,9.99954e-01,9.14003e-01,9.99999e-01
4.508639105e-01,9.15608e-01,9.99999e-01,9.99999e-01,9.99978e-01,9.15627e-01,9.99999e-01
4.531182300e-01,9.17215e-01,9.99999e-01,9.99999e-01,9.99991e-01,9.17223e-01,9.99999e-01
4.553838212e-01,9.18785e-01,9.99999e-01,9.99999e-01,9.99993e-01,9.18790e-01,9.99999e-01
4.576607403e-01,9.20326e-01,9.99999e-01,9.99999e-01,9.99996e-01,9.20328e-01,9.99999e-01
4.599490440e-01,9.21837e-01,9.99999e-01,9.99999e-01,9.99997e-01,9.21839e-01,9.99999e-01
4.622487892e-01,9.23321e-01,9.99999e-01,9.99999e-01,9.99999e-01,9.23322e-01,9.99999e-01
4.645600332e-01,9.24777e-01,9.99999e-01,9.99999e-01,9.99998e-01,9.24778e-01,9.99999e-01
4.668828333e-01,9.26188e-01,9.99999e-01,9.99999e-01,9.99978e-01,9.26207e-01,9.99999e-01
4.692172475e-01,9.27569e-01,9.99999e-01,9.99999e-01,9.99954e-01,9.27611e-01,9.99999e-01
4.715633337e-01,9.28961e-01,9.99999e-01,9.99999e-01,9.99970e-01,9.28989e-01,9.99999e-01
4.739211504e-01,9.30315e-01,9.99999e-01,9.99999e-01,9.99971e-01,9.30341e-01,9.99999e-01
4.762907561e-01,9.31655e-01,9.99999e-01,9.99999e-01,9.99984e-01,9.31669e-01,9.99999e-01
4.786722099e-01,9.32967e-01,9.99999e-01,9.99999e-01,9.99993e-01,9.32972e-01,9.99999e-01
4.810655710e-01,9.34250e-01,9.99999e-01,9.99999e-01,9.99997e-01,9.34252e-01,9.99999e-01
4.834708988e-01,9.35492e-01,9.99999e-01,9.99999e-01,9.99982e-01,9.35508e-01,9.99999e-01
4.858882533e-01,9.36710e-01,9.99999e-01,9.99999e-01,9.99967e-01,9.36740e-01,9.99999e-01
4.883176946e-01,9.37925e-01,9.99999e-01,9.99999e-01,9.99972e-01,9.37950e-01,9.99999e-01
4.907592831e-01,9.39115e-01,9.99999e-01,9.99999e-01,9.99975e-01,9.39138e-01,9.99999e-01
4.932130795e-01,9.40287e-01,9.99999e-01,9.99999e-01,9.99982e-01,9.40303e-01,9.99999e-01
4.956791449e-01,9.41439e-01,9.99999e-01,9.99999e-01,9.99990e-01,9.41447e-01,9.99999e-01
4.981575406e-01,9.42527e-01,9.99999e-01,9.99999e-01,9.99954e-01,9.42570e-01,9.99999e-01
5.006483283e-01,9.43561e-01,9.99999e-01,9.99999e-01,9.99882e-01,9.43672e-01,9.99998e-01
5.031515699e-01,9.44184e-01,9.99999e-01,9.99999e-01,9.99403e-01,9.44753e-01,9.99993e-01
5.056673278e-01,9.45509e-01,9.99999e-01,9.99999e-01,9.99684e-01,9.45814e-01,9.99992e-01
5.081956644e-01,9.46474e-01,9.99999e-01,9.99999e-01,9.99601e-01,9.46855e-01,9.99994e-01
5.107366428e-01,9.47622e-01,9.99999e-01,9.99999e-01,9.99730e-01,9.47877e-01,9.99998e-01
5.132903260e-01,9.48734e-01,9.99999e-01,9.99999e-01,9.99845e-01,9.48880e-01,9.99999e-01
5.158567776e-01,9.49802e-01,9.99999e-01,9.99999e-01,9.99934e-01,9.49864e-01,9.99999e-01
5.184360615e-01,9.50805e-01,9.99999e-01,9.99999e-01,9.99973e-01,9.50830e-01,9.99999e-01
5.210282418e-01,9.51768e-01,9.99999e-01,9.99999e-01,9.99989e-01,9.51777e-01,9.99999e-01
5.236333830e-01,9.52669e-01,9.99999e-01,9.99999e-01,9.99960e-01,9.52707e-01,9.99999e-01
5.262515499e-01,9.53595e-01,9.99999e-01,9.99999e-01,9.99975e-01,9.53619e-01,9.99999e-01
5.288828077e-01,9.54492e-01,9.99999e-01,9.99999e-01,9.99977e-01,9.54514e-01,9.99999e-01
5.315272217e-01,9.55373e-01,9.99999e-01,9.99999e-01,9.99979e-01,9.55392e-01,9.99999e-01
5.341848578e-01,9.56241e-01,9.99999e-01,9.99999e-01,9.99986e-01,9.56253e-01,9.99999e-01
5.368557821e-01,9.57055e-01,9.99999e-01,9.99999e-01,9.99954e-01,9.57099e-01,9.99999e-01
5.395400610e-01,9.57772e-01,9.99999e-01,9.99999e-01,9.99837e-01,9.57928e-01,9.99998e-01
5.422377613e-01,9.58535e-01,9.99999e-01,9.99999e-01,9.99787e-01,9.58742e-01,9.99995e-01
5.449489501e-01,9.59348e-01,9.99999e-01,9.99999e-01,9.99803e-01,9.59540e-01,9.99995e-01
5.476736949e-01,9.60153e-01,9.99999e-01,9.99999e-01,9.99824e-01,9.60323e-01,9.99997e-01
5.504120634e-01,9.60969e-01,9.99999e-01,9.99999e-01,9.99872e-01,9.61091e-01,9.99998e-01
5.531641237e-01,9.61783e-01,9.99999e-01,9.99999e-01,9.99935e-01,9.61845e-01,9.99999e-01
5.559299443e-01,9.62555e-01,9.99999e-01,9.99999e-01,9.99968e-01,9.62584e-01,9.99999e-01
5.587095940e-01,9.63291e-01,9.99999e-01,9.99999e-01,9.99980e-01,9.63309e-01,9.99999e-01
5.615031420e-01,9.64000e-01,9.99999e-01,9.99999e-01,9.99978e-01,9.64021e-01,9.99999e-01
5.643106577e-01,9.64696e-01,9.99999e-01,9.99999e-01,9.99975e-01,9.64719e-01,9.99999e-01
5.671322110e-01,9.65121e-01,9.99999e-01,9.99999e-01,9.99709e-01,9.65404e-01,9.99996e-01
5.699678720e-01,9.65762e-01,9.99999e-01,9.99999e-01,9.99683e-01,9.66075e-01,9.99991e-01
5.728177114e-01,9.66412e-01,9.99999e-01,9.99999e-01,9.99673e-01,9.66734e-01,9.99992e-01
5.756818000e-01,9.67086e-01,9.99999e-01,9.99999e-01,9.99699e-01,9.67380e-01,9.99995e-01
5.785602090e-01,9.67760e-01,9.99999e-01,9.99999e-01,9.99737e-01,9.68014e-01,9.99998e-01
5.814530100e-01,9.68381e-01,9.99999e-01,9.99999e-01,9.99737e-01,9.68636e-01,9.99998e-01
5.843602750e-01,9.68943e-01,9.99999e-01,9.99999e-01,9.99688e-01,9.69246e-01,9.99997e-01
5.872820764e-01,9.67225e-01,9.99999e-01,9.99999e-01,9.97317e-01,9.69844e-01,9.99980e-01
5.902184868e-01,9.67203e-01,9.99999e-01,9.99999e-01,9.96725e-01,9.70431e-01,9.99947e-01
5.931695792e-01,9.68717e-01,9.99999e-01,9.99999e-01,9.97691e-01,9.71006e-01,9.99949e-01
5.961354271e-01,9.69079e-01,9.99999e-01,9.99999e-01,9.97465e-01,9.71571e-01,9.99969e-01
5.991161043e-01,9.70317e-01,9.99999e-01,9.99999e-01,9.98149e-01,9.72124e-01,9.99990e-01
6.021116848e-01,9.71644e-01,9.99999e-01,9.99999e-01,9.98948e-01,9.72667e-01,9.99998e-01
6.051222432e-01,9.72682e-01,9.99999e-01,9.99999e-01,9.99467e-01,9.73200e-01,9.99999e-01
6.081478544e-01,9.73499e-01,9.99999e-01,9.99999e-01,9.99770e-01,9.73722e-01,9.99999e-01
6.111885937e-01,9.74140e-01,9.99999e-01,9.99999e-01,9.99902e-01,9.74235e-01,9.99999e-01
6.142445367e-01,9.74695e-01,9.99999e-01,9.99999e-01,9.99956e-01,9.74737e-01,9.99999e-01
6.173157594e-01,9.75206e-01,9.99999e-01,9.99999e-01,9.99975e-01,9.75230e-01,9.99999e-01
6.204023382e-01,9.75693e-01,9.99999e-01,9.99999e-01,9.99979e-01,9.75713e-01,9.99999e-01
6.235043498e-01,9.76101e-01,9.99999e-01,9.99999e-01,9.99912e-01,9.76187e-01,9.99999e-01
6.266218716e-01,9.76190e-01,9.99999e-01,9.99999e-01,9.99529e-01,9.76652e-01,9.99996e-01
6.297549810e-01,9.76933e-01,9.99999e-01,9.99999e-01,9.99827e-01,9.77108e-01,9.99992e-01
6.329037559e-01,9.77216e-01,9.99999e-01,9.99999e-01,9.99658e-01,9.77555e-01,9.99994e-01
6.360682746e-01,9.77707e-01,9.99999e-01,9.99999e-01,9.99709e-01,9.77993e-01,9.99996e-01
6.392486160e-01,9.78054e-01,9.99999e-01,9.99999e-01,9.99623e-01,9.78423e-01,9.99998e-01
6.424448591e-01,9.78353e-01,9.99999e-01,9.99999e-01,9.99499e-01,9.78845e-01,9.99997e-01
6.456570834e-01,9.76972e-01,9.99999e-01,9.99999e-01,9.97678e-01,9.79258e-01,9.99986e-01
6.488853688e-01,9.77657e-01,9.99999e-01,9.99999e-01,9.97987e-01,9.79664e-01,9.99963e-01
6.521297956e-01,9.78318e-01,9.99999e-01,9.99999e-01,9.98250e-01,9.80061e-01,9.99969e-01
6.553904446e-01,9.78736e-01,9.99999e-01,9.99999e-01,9.98273e-01,9.80451e-01,9.99976e-01
6.586673968e-01,9.79363e-01,9.99999e-01,9.99999e-01,9.98507e-01,9.80834e-01,9.99992e-01
6.619607338e-01,9.80361e-01,9.99999e-01,9.99999e-01,9.99137e-01,9.81209e-01,9.99997e-01
6.652705375e-01,9.81085e-01,9.99999e-01,9.99999e-01,9.99499e-01,9.81576e-01,9.99998e-01
6.685968902e-01,9.81709e-01,9.99999e-01,9.99999e-01,9.99767e-01,9.81937e-01,9.99999e-01
6.719398746e-01,9.82185e-01,9.99999e-01,9.99999e-01,9.99891e-01,9.82290e-01,9.99999e-01
6.752995740e-01,9.82580e-01,9.99999e-01,9.99999e-01,9.99941e-01,9.82637e-01,9.99999e-01
6.786760719e-01,9.82895e-01,9.99999e-01,9.99999e-01,9.99916e-01,9.82977e-01,9.99999e-01
6.820694522e-01,9.83169e-01,9.99999e-01,9.99999e-01,9.99856e-01,9.83311e-01,9.99998e-01
6.854797995e-01,9.83455e-01,9.99999e-01,9.99999e-01,9.99815e-01,9.83638e-01,9.99997e-01
6.889071985e-01,9.83520e-01,9.99999e-01,9.99999e-01,9.99558e-01,9.83958e-01,9.99995e-01
6.923517345e-01,9.77088e-01,9.99999e-01,9.99999e-01,9.92735e-01,9.84272e-01,9.99964e-01
6.958134932e-01,9.80713e-01,9.99999e-01,9.99999e-01,9.96150e-01,9.84581e-01,9.99920e-01
6.992925606e-01,9.81275e-01,9.99999e-01,9.99999e-01,9.96405e-01,9.84883e-01,9.99929e-01
7.027890234e-01,9.80727e-01,9.99999e-01,9.99999e-01,9.95533e-01,9.85179e-01,9.99946e-01
7.063029686e-01,9.81746e-01,9.99999e-01,9.99999e-01,9.96247e-01,9.85470e-01,9.99972e-01
7.098344834e-01,9.82191e-01,9.99999e-01,9.99999e-01,9.96399e-01,9.85755e-01,9.99983e-01
7.133836558e-01,9.81325e-01,9.99999e-01,9.99999e-01,9.95254e-01,9.86034e-01,9.99968e-01
7.169505741e-01,9.48714e-01,9.99999e-01,9.99999e-01,9.62120e-01,9.86308e-01,9.99753e-01
7.205353270e-01,9.67420e-01,9.99999e-01,9.99999e-01,9.81007e-01,9.86577e-01,9.99566e-01
7.241380036e-01,9.63050e-01,9.99999e-01,9.99999e-01,9.76257e-01,9.86840e-01,9.99625e-01
7.277586936e-01,9.65614e-01,9.99999e-01,9.99999e-01,9.78533e-01,9.87098e-01,9.99693e-01
7.313974871e-01,9.64582e-01,9.99999e-01,9.99999e-01,9.77078e-01,9.87352e-01,9.99856e-01
7.350544745e-01,9.75151e-01,9.99999e-01,9.99999e-01,9.87443e-01,9.87600e-01,9.99949e-01
7.387297469e-01,9.78679e-01,9.99999e-01,9.99999e-01,9.90744e-01,9.87843e-01,9.99976e-01
7.424233956e-01,9.83586e-01,9.99999e-01,9.99999e-01,9.95454e-01,9.88082e-01,9.99995e-01
7.461355126e-01,9.85595e-01,9.99999e-01,9.99999e-01,9.97247e-01,9.88316e-01,9.99998e-01
7.498661902e-01,9.87275e-01,9.99999e-01,9.99999e-01,9.98714e-01,9.88545e-01,9.99999e-01
7.536155211e-01,9.88149e-01,9.99999e-01,9.99999e-01,9.99371e-01,9.88770e-01,9.99999e-01
7.573835987e-01,9.88671e-01,9.99999e-01,9.99999e-01,9.99675e-01,9.88991e-01,9.99999e-01
7.611705167e-01,9.89008e-01,9.99999e-01,9.99999e-01,9.99798e-01,9.89207e-01,9.99999e-01
7.649763693e-01,9.89295e-01,9.99999e-01,9.99999e-01,9.99873e-01,9.89419e-01,9.99999e-01
7.688012511e-01,9.89540e-01,9.99999e-01,9.99999e-01,9.99911e-01,9.89627e-01,9.99999e-01
7.726452574e-01,9.89760e-01,9.99999e-01,9.99999e-01,9.99927e-01,9.89831e-01,9.99999e-01
7.765084837e-01,9.89930e-01,9.99999e-01,9.99999e-01,9.99897e-01,9.90031e-01,9.99999e-01
7.803910261e-01,9.89792e-01,9.99999e-01,9.99999e-01,9.99560e-01,9.90227e-01,9.99999e-01
7.842929812e-01,9.88900e-01,9.99999e-01,9.99999e-01,9.98468e-01,9.90419e-01,9.99996e-01
7.882144461e-01,9.87441e-01,9.99999e-01,9.99999e-01,9.96822e-01,9.90607e-01,9.99980e-01
7.921555184e-01,9.89020e-01,9.99999e-01,9.99999e-01,9.98249e-01,9.90792e-01,9.99961e-01
7.961162960e-01,9.87902e-01,9.99999e-01,9.99999e-01,9.96936e-01,9.90973e-01,9.99963e-01
8.000968774e-01,9.87589e-01,9.99999e-01,9.99999e-01,9.96444e-01,9.91150e-01,9.99961e-01
8.040973618e-01,9.87774e-01,9.99999e-01,9.99999e-01,9.96448e-01,9.91324e-01,9.99969e-01
8.081178486e-01,9.83584e-01,9.99999e-01,9.99999e-01,9.92048e-01,9.91495e-01,9.99970e-01
8.121584379e-01,9.58971e-01,9.99999e-01,9.99999e-01,9.67141e-01,9.91662e-01,9.99887e-01
8.162192301e-01,9.52504e-01,9.99999e-01,9.99999e-01,9.60758e-01,9.91826e-01,9.99577e-01
8.203003262e-01,9.72161e-01,9.99999e-01,9.99999e-01,9.80497e-01,9.91987e-01,9.99505e-01
8.244018279e-01,9.64201e-01,9.99999e-01,9.99999e-01,9.72216e-01,9.92145e-01,9.99606e-01
8.285238370e-01,9.68732e-01,9.99999e-01,9.99999e-01,9.76551e-01,9.92299e-01,9.99690e-01
8.326664562e-01,9.68715e-01,9.99999e-01,9.99999e-01,9.76207e-01,9.92451e-01,9.99871e-01
8.368297885e-01,9.75641e-01,9.99999e-01,9.99999e-01,9.82943e-01,9.92599e-01,9.99970e-01
8.410139374e-01,9.82636e-01,9.99999e-01,9.99999e-01,9.89833e-01,9.92745e-01,9.99982e-01
8.452190071e-01,9.87914e-01,9.99999e-01,9.99999e-01,9.95000e-01,9.92888e-01,9.99989e-01
8.494451021e-01,9.90147e-01,9.99999e-01,9.99999e-01,9.97106e-01,9.93028e-01,9.99991e-01
8.536923276e-01,9.91455e-01,9.99999e-01,9.99999e-01,9.98283e-01,9.93165e-01,9.99994e-01
8.579607893e-01,9.92251e-01,9.99999e-01,9.99999e-01,9.98945e-01,9.93299e-01,9.99998e-01
8.622505932e-01,9.92764e-01,9.99999e-01,9.99999e-01,9.99328e-01,9.93431e-01,9.99999e-01
8.665618462e-01,9.93149e-01,9.99999e-01,9.99999e-01,9.99585e-01,9.93561e-01,9.99999e-01
8.708946554e-01,9.93217e-01,9.99999e-01,9.99999e-01,9.99526e-01,9.93687e-01,9.99999e-01
8.752491287e-01,9.93182e-01,9.99999e-01,9.99999e-01,9.99366e-01,9.93812e-01,9.99998e-01
8.796253743e-01,9.93062e-01,9.99999e-01,9.99999e-01,9.99125e-01,9.93934e-01,9.99997e-01
8.840235012e-01,9.93053e-01,9.99999e-01,9.99999e-01,9.98999e-01,9.94053e-01,9.99993e-01
8.884436187e-01,9.90581e-01,9.99999e-01,9.99999e-01,9.96406e-01,9.94170e-01,9.99982e-01
8.928858368e-01,9.56688e-01,9.99999e-01,9.99999e-01,9.62282e-01,9.94285e-01,9.99899e-01
8.973502660e-01,9.27946e-01,9.99999e-01,9.99999e-01,9.33652e-01,9.94397e-01,9.99486e-01
9.018370173e-01,9.59274e-01,9.99999e-01,9.99999e-01,9.65349e-01,9.94508e-01,9.99193e-01
9.063462024e-01,9.63966e-01,9.99999e-01,9.99999e-01,9.69870e-01,9.94616e-01,9.99291e-01
9.108779334e-01,9.47464e-01,9.99999e-01,9.99999e-01,9.53191e-01,9.94722e-01,9.99263e-01
9.154323231e-01,9.41462e-01,9.99999e-01,9.99999e-01,9.46933e-01,9.94826e-01,9.99391e-01
9.200094847e-01,9.52905e-01,9.99999e-01,9.99999e-01,9.58088e-01,9.94928e-01,9.99658e-01
9.246095321e-01,9.31011e-01,9.99999e-01,9.99999e-01,9.36029e-01,9.95028e-01,9.99607e-01
9.292325798e-01,6.34728e-01,9.99999e-01,9.99999e-01,6.38813e-01,9.95126e-01,9.98470e-01
9.338787427e-01,5.51831e-01,9.99999e-01,9.99999e-01,5.58000e-01,9.95222e-01,9.93691e-01
9.385481364e-01,7.80757e-01,9.99999e-01,9.99999e-01,7.90357e-01,9.95316e-01,9.92502e-01
9.432408771e-01,7.13924e-01,9.99999e-01,9.99999e-01,7.21888e-01,9.95408e-01,9.93528e-01
9.479570815e-01,6.31337e-01,9.99999e-01,9.99999e-01,6.37551e-01,9.95499e-01,9.94729e-01
9.526968669e-01,7.07180e-01,9.99999e-01,9.99999e-01,7.12607e-01,9.95587e-01,9.96781e-01
9.574603512e-01,7.29451e-01,9.99999e-01,9.99999e-01,7.33820e-01,9.95674e-01,9.98363e-01
9.622476530e-01,7.72984e-01,9.99999e-01,9.99999e-01,7.77154e-01,9.95760e-01,9.98868e-01
9.670588912e-01,8.60760e-01,9.99999e-01,9.99999e-01,8.65021e-01,9.95843e-01,9.99225e-01
9.718941857e-01,9.09366e-01,9.99999e-01,9.99999e-01,9.13606e-01,9.95925e-01,9.99429e-01
9.767536566e-01,9.23668e-01,9.99999e-01,9.99999e-01,9.27776e-01,9.96005e-01,9.99564e-01
9.816374249e-01,9.42035e-01,9.99999e-01,9.99999e-01,9.45880e-01,9.96084e-01,9.99848e-01
9.865456120e-01,9.62105e-01,9.99999e-01,9.99999e-01,9.65842e-01,9.96161e-01,9.99968e-01
9.914783401e-01,9.75076e-01,9.99999e-01,9.99999e-01,9.78767e-01,9.96237e-01,9.99990e-01
9.964357318e-01,9.84730e-01,9.99999e-01,9.99999e-01,9.88380e-01,9.96311e-01,9.99994e-01
1.001417910e+00,9.89422e-01,9.99999e-01,9.99999e-01,9.93020e-01,9.96384e-01,9.99991e-01
1.006425000e+00,9.92482e-01,9.99999e-01,9.99999e-01,9.96023e-01,9.96455e-01,9.99988e-01
1.011457125e+00,9.94048e-01,9.99999e-01,9.99999e-01,9.97524e-01,9.96525e-01,9.99989e-01
1.016514411e+00,9.94914e-01,9.99999e-01,9.99999e-01,9.98321e-01,9.96593e-01,9.99992e-01
1.021596983e+00,9.95321e-01,9.99999e-01,9.99999e-01,9.98662e-01,9.96661e-01,9.99992e-01
1.026704968e+00,9.95683e-01,9.99999e-01,9.99999e-01,9.98957e-01,9.96726e-01,9.99994e-01
1.031838492e+00,9.96033e-01,9.99999e-01,9.99999e-01,9.99240e-01,9.96791e-01,9.99998e-01
1.036997685e+00,9.96406e-01,9.99999e-01,9.99999e-01,9.99549e-01,9.96854e-01,9.99999e-01
1.042182673e+00,9.96383e-01,9.99999e-01,9.99999e-01,9.99464e-01,9.96916e-01,9.99999e-01
1.047393587e+00,9.96269e-01,9.99999e-01,9.99999e-01,9.99289e-01,9.96977e-01,9.99999e-01
1.052630555e+00,9.96066e-01,9.99999e-01,9.99999e-01,9.99026e-01,9.97037e-01,9.99999e-01
1.057893707e+00,9.95476e-01,9.99999e-01,9.99999e-01,9.98376e-01,9.97095e-01,9.99998e-01
1.063183176e+00,9.94486e-01,9.99999e-01,9.99999e-01,9.97326e-01,9.97152e-01,9.99998e-01
1.068499092e+00,9.92740e-01,9.99999e-01,9.99999e-01,9.95521e-01,9.97209e-01,9.99996e-01
1.073841587e+00,9.92039e-01,9.99999e-01,9.99999e-01,9.94767e-01,9.97264e-01,9.99992e-01
1.079210795e+00,9.90598e-01,9.99999e-01,9.99999e-01,9.93279e-01,9.97318e-01,9.99981e-01
1.084606849e+00,9.87211e-01,9.99999e-01,9.99999e-01,9.89855e-01,9.97370e-01,9.99956e-01
1.090029883e+00,9.82896e-01,9.99999e-01,9.99999e-01,9.85523e-01,9.97422e-01,9.99910e-01
1.095480033e+00,9.58388e-01,9.99999e-01,9.99999e-01,9.60970e-01,9.97473e-01,9.99837e-01
1.100957433e+00,9.01212e-01,9.99999e-01,9.99999e-01,9.03718e-01,9.97523e-01,9.99702e-01
1.106462220e+00,7.70888e-01,9.99999e-01,9.99999e-01,7.73154e-01,9.97572e-01,9.99494e-01
1.111994531e+00,5.78413e-01,9.99999e-01,9.99999e-01,5.80570e-01,9.97620e-01,9.98660e-01
1.117554504e+00,4.11382e-01,9.99999e-01,9.99999e-01,4.14343e-01,9.97667e-01,9.95173e-01
1.123142276e+00,5.14318e-01,9.99999e-01,9.99999e-01,5.21445e-01,9.97713e-01,9.88592e-01
1.128757988e+00,6.50266e-01,9.99999e-01,9.99999e-01,6.60434e-01,9.97758e-01,9.86815e-01
1.134401778e+00,3.92309e-01,9.99999e-01,9.99999e-01,3.97635e-01,9.97802e-01,9.88777e-01
1.140073787e+00,7.72576e-01,9.99999e-01,9.99999e-01,7.81256e-01,9.97845e-01,9.91023e-01
1.145774156e+00,5.90159e-01,9.99999e-01,9.99999e-01,5.96309e-01,9.97888e-01,9.91780e-01
1.151503026e+00,5.58486e-01,9.99999e-01,9.99999e-01,5.62223e-01,9.97929e-01,9.95412e-01
1.157260541e+00,6.16865e-01,9.99999e-01,9.99999e-01,6.18969e-01,9.97970e-01,9.98625e-01
1.163046844e+00,6.99454e-01,9.99999e-01,9.99999e-01,7.01121e-01,9.98010e-01,9.99609e-01
1.168862078e+00,7.79902e-01,9.99999e-01,9.99999e-01,7.81582e-01,9.98050e-01,9.99798e-01
1.174706389e+00,8.57098e-01,9.99999e-01,9.99999e-01,8.58967e-01,9.98088e-01,9.99733e-01
1.180579921e+00,9.09491e-01,9.99999e-01,9.99999e-01,9.11565e-01,9.98126e-01,9.99597e-01
1.186482820e+00,9.46958e-01,9.99999e-01,9.99999e-01,9.49092e-01,9.98163e-01,9.99586e-01
1.192415234e+00,9.67958e-01,9.99999e-01,9.99999e-01,9.70004e-01,9.98199e-01,9.99690e-01
1.198377311e+00,9.72693e-01,9.99999e-01,9.99999e-01,9.74697e-01,9.98235e-01,9.99707e-01
1.204369197e+00,9.74069e-01,9.99999e-01,9.99999e-01,9.76015e-01,9.98269e-01,9.99735e-01
1.210391043e+00,9.75238e-01,9.99999e-01,9.99999e-01,9.77051e-01,9.98303e-01,9.99838e-01
1.216442998e+00,9.78684e-01,9.99999e-01,9.99999e-01,9.80410e-01,9.98337e-01,9.99901e-01
1.222525213e+00,9.83066e-01,9.99999e-01,9.99999e-01,9.84731e-01,9.98370e-01,9.99938e-01
1.228637839e+00,9.87773e-01,9.99999e-01,9.99999e-01,9.89381e-01,9.98402e-01,9.99971e-01
