#,Wave/freq,Total,N2,O2,H2O,Rayleigh,CIA
4.000000000e-01,8.12226e-01,9.99999e-01,9.99999e-01,9.99976e-01,8.12245e-01,9.99999e-01
4.020000000e-01,8.15580e-01,9.99999e-01,9.99999e-01,9.99984e-01,8.15592e-01,9.99999e-01
4.040100000e-01,8.18877e-01,9.99999e-01,9.99999e-01,9.99993e-01,8.18882e-01,9.99999e-01
4.060300500e-01,8.22119e-01,9.99999e-01,9.99999e-01,9.99998e-01,8.22121e-01,9.99999e-01
4.080602003e-01,8.25307e-01,9.99999e-01,9.99999e-01,9.99999e-01,8.25307e-01,9.99999e-01
4.101005013e-01,8.28443e-01,9.99999e-01,9.99999e-01,9.99999e-01,8.28443e-01,9.99999e-01
4.121510038e-01,8.31528e-01,9.99999e-01,9.99999e-01,9.99998e-01,8.31529e-01,9.99999e-01
4.142117588e-01,8.34559e-01,9.99999e-01,9.99999e-01,9.99993e-01,8.34565e-01,9.99999e-01
4.162828176e-01,8.37527e-01,9.99999e-01,9.99999e-01,9.99970e-01,8.37551e-01,9.99999e-01
4.183642317e-01,8.40474e-01,9.99999e-01,9.99999e-01,9.99982e-01,8.40489e-01,9.99999e-01
4.204560528e-01,8.43370e-01,9.99999e-01,9.99999e-01,9.99988e-01,8.43379e-01,9.99999e-01
4.225583331e-01,8.46218e-01,9.99999e-01,9.99999e-01,9.99995e-01,8.46221e-01,9.99999e-01
4.246711247e-01,8.49014e-01,9.99999e-01,9.99999e-01,9.99996e-01,8.49017e-01,9.99999e-01
4.267944804e-01,8.51762e-01,9.99999e-01,9.99999e-01,9.99994e-01,8.51766e-01,9.99999e-01
4.289284528e-01,8.54467e-01,9.99999e-01,9.99999e-01,9.99995e-01,8.54470e-01,9.99999e-01
4.310730950e-01,8.57127e-01,9.99999e-01,9.99999e-01,9.99997e-01,8.57128e-01,9.99999e-01
4.332284605e-01,8.59742e-01,9.99999e-01,9.99999e-01,9.99999e-01,8.59742e-01,9.99999e-01
4.353946028e-01,8.62312e-01,9.99999e-01,9.99999e-01,9.99999e-01,8.62313e-01,9.99999e-01
4.375715758e-01,8.64837e-01,9.99999e-01,9.99999e-01,9.99996e-01,8.64839e-01,9.99999e-01
4.397594337e-01,8.67301e-01,9.99999e-01,9.99999e-01,9.99973e-01,8.67324e-01,9.99999e-01
4.419582309e-01,8.69653e-01,9.99999e-01,9.99999e-01,9.99869e-01,8.69766e-01,9.99999e-01
4.441680220e-01,8.72078e-01,9.99999e-01,9.99999e-01,9.99898e-01,8.72166e-01,9.99999e-01
4.463888621e-01,8.74433e-01,9.99999e-01,9.99999e-01,9.99894e-01,8.74525e-01,9.99999e-01
4.486208064e-01,8.76787e-01,9.99999e-01,9.99999e-01,9.99934e-01,8.76845e-01,9.99999e-01
4.508639105e-01,8.79097e-01,9.99999e-01,9.99999e-01,9.99968e-01,8.79124e-01,9.99999e-01
4.531182300e-01,8.81353e-01,9.99999e-01,9.99999e-01,9.99987e-01,8.81364e-01,9.99999e-01
4.553838212e-01,8.83558e-01,9.99999e-01,9.99999e-01,9.99991e-01,8.83565e-01,9.99999e-01
4.576607403e-01,8.85725e-01,9.99999e-01,9.99999e-01,9.99995e-01,8.85728e-01,9.99999e-01
4.599490440e-01,8.87851e-01,9.99999e-01,9.99999e-01,9.99996e-01,8.87854e-01,9.99999e-01
4.622487892e-01,8.89942e-01,9.99999e-01,9.99999e-01,9.99999e-01,8.89942e-01,9.99999e-01
4.645600332e-01,8.91992e-01,9.99999e-01,9.99999e-01,9.99997e-01,8.91994e-01,9.99999e-01
4.668828333e-01,8.93982e-01,9.99999e-01,9.99999e-01,9.99968e-01,8.94010e-01,9.99999e-01
4.692172475e-01,8.95932e-01,9.99999e-01,9.99999e-01,9.99933e-01,8.95991e-01,9.99999e-01
4.715633337e-01,8.97898e-01,9.99999e-01,9.99999e-01,9.99956e-01,8.97936e-01,9.99999e-01
4.739211504e-01,8.99811e-01,9.99999e-01,9.99999e-01,9.99958e-01,8.99848e-01,9.99999e-01
4.762907561e-01,9.01706e-01,9.99999e-01,9.99999e-01,9.99978e-01,9.01726e-01,9.99999e-01
4.786722099e-01,9.03562e-01,9.99999e-01,9.99999e-01,9.99990e-01,9.03570e-01,9.99999e-01
4.810655710e-01,9.05379e-01,9.99999e-01,9.99999e-01,9.99996e-01,9.05381e-01,9.99999e-01
4.834708988e-01,9.07138e-01,9.99999e-01,9.99999e-01,9.99974e-01,9.07161e-01,9.99999e-01
4.858882533e-01,9.08866e-01,9.99999e-01,9.99999e-01,9.99952e-01,9.08908e-01,9.99999e-01
4.883176946e-01,9.10589e-01,9.99999e-01,9.99999e-01,9.99960e-01,9.10625e-01,9.99999e-01
4.907592831e-01,9.12278e-01,9.99999e-01,9.99999e-01,9.99964e-01,9.12310e-01,9.99999e-01
4.932130795e-01,9.13943e-01,9.99999e-01,9.99999e-01,9.99974e-01,9.13966e-01,9.99999e-01
4.956791449e-01,9.15579e-01,9.99999e-01,9.99999e-01,9.99986e-01,9.15591e-01,9.99999e-01
4.981575406e-01,9.17126e-01,9.99999e-01,9.99999e-01,9.99933e-01,9.17187e-01,9.99999e-01
5.006483283e-01,9.18595e-01,9.99999e-01,9.99999e-01,9.99827e-01,9.18755e-01,9.99998e-01
5.031515699e-01,9.19482e-01,9.99999e-01,9.99999e-01,9.99127e-01,9.20294e-01,9.99990e-01
5.056673278e-01,9.21371e-01,9.99999e-01,9.99999e-01,9.99539e-01,9.21805e-01,9.99989e-01
5.081956644e-01,9.22746e-01,9.99999e-01,9.99999e-01,9.99419e-01,9.23289e-01,9.99992e-01
5.107366428e-01,9.24382e-01,9.99999e-01,9.99999e-01,9.99607e-01,9.24745e-01,9.99998e-01
5.132903260e-01,9.25968e-01,9.99999e-01,9.99999e-01,9.99775e-01,9.26175e-01,9.99999e-01
5.158567776e-01,9.27492e-01,9.99999e-01,9.99999e-01,9.99904e-01,9.27580e-01,9.99999e-01
5.184360615e-01,9.28923e-01,9.99999e-01,9.99999e-01,9.99961e-01,9.28958e-01,9.99999e-01
5.210282418e-01,9.30298e-01,9.99999e-01,9.99999e-01,9.99985e-01,9.30311e-01,9.99999e-01
5.236333830e-01,9.31586e-01,9.99999e-01,9.99999e-01,9.99942e-01,9.31639e-01,9.99999e-01
5.262515499e-01,9.32910e-01,9.99999e-01,9.99999e-01,9.99963e-01,9.32943e-01,9.99998e-01
5.288828077e-01,9.34193e-01,9.99999e-01,9.99999e-01,9.99966e-01,9.34223e-01,9.99999e-01
5.315272217e-01,9.35453e-01,9.99999e-01,9.99999e-01,9.99970e-01,9.35480e-01,9.99999e-01
5.341848578e-01,9.36695e-01,9.99999e-01,9.99999e-01,9.99980e-01,9.36713e-01,9.99999e-01
5.368557821e-01,9.37861e-01,9.99999e-01,9.99999e-01,9.99933e-01,9.37923e-01,9.99999e-01
5.395400610e-01,9.38885e-01,9.99999e-01,9.99999e-01,9.99760e-01,9.39111e-01,9.99997e-01
5.422377613e-01,9.39982e-01,9.99999e-01,9.99999e-01,9.99690e-01,9.40277e-01,9.99993e-01
5.449489501e-01,9.41146e-01,9.99999e-01,9.99999e-01,9.99712e-01,9.41422e-01,9.99993e-01
5.476736949e-01,9.42303e-01,9.99999e-01,9.99999e-01,9.99745e-01,9.42545e-01,9.99996e-01
5.504120634e-01,9.43472e-01,9.99999e-01,9.99999e-01,9.99815e-01,9.43647e-01,9.99998e-01
5.531641237e-01,9.44641e-01,9.99999e-01,9.99999e-01,9.99906e-01,9.44729e-01,9.99999e-01
5.559299443e-01,9.45748e-01,9.99999e-01,9.99999e-01,9.99954e-01,9.45790e-01,9.99999e-01
5.587095940e-01,9.46806e-01,9.99999e-01,9.99999e-01,9.99971e-01,9.46832e-01,9.99999e-01
5.615031420e-01,9.47825e-01,9.99999e-01,9.99999e-01,9.99968e-01,9.47855e-01,9.99999e-01
5.643106577e-01,9.48824e-01,9.99999e-01,9.99999e-01,9.99964e-01,9.48858e-01,9.99999e-01
5.671322110e-01,9.49428e-01,9.99999e-01,9.99999e-01,9.99567e-01,9.49842e-01,9.99995e-01
5.699678720e-01,9.50361e-01,9.99999e-01,9.99999e-01,9.99541e-01,9.50808e-01,9.99987e-01
5.728177114e-01,9.51292e-01,9.99999e-01,9.99999e-01,9.99521e-01,9.51756e-01,9.99989e-01
5.756818000e-01,9.52263e-01,9.99999e-01,9.99999e-01,9.99561e-01,9.52686e-01,9.99993e-01
5.785602090e-01,9.53232e-01,9.99999e-01,9.99999e-01,9.99617e-01,9.53598e-01,9.99997e-01
5.814530100e-01,9.54127e-01,9.99999e-01,9.99999e-01,9.99615e-01,9.54494e-01,9.99998e-01
5.843602750e-01,9.54932e-01,9.99999e-01,9.99999e-01,9.99541e-01,9.55372e-01,9.99996e-01
5.872820764e-01,9.52437e-01,9.99999e-01,9.99999e-01,9.96056e-01,9.56234e-01,9.99971e-01
5.902184868e-01,9.52440e-01,9.99999e-01,9.99999e-01,9.95227e-01,9.57080e-01,9.99924e-01
5.931695792e-01,9.54608e-01,9.99999e-01,9.99999e-01,9.96625e-01,9.57909e-01,9.99926e-01
5.961354271e-01,9.55139e-01,9.99999e-01,9.99999e-01,9.96302e-01,9.58723e-01,9.99957e-01
5.991161043e-01,9.56922e-01,9.99999e-01,9.99999e-01,9.97302e-01,9.59522e-01,9.99986e-01
6.021116848e-01,9.58834e-01,9.99999e-01,9.99999e-01,9.98468e-01,9.60305e-01,9.99998e-01
6.051222432e-01,9.60330e-01,9.99999e-01,9.99999e-01,9.99225e-01,9.61074e-01,9.99999e-01
6.081478544e-01,9.61507e-01,9.99999e-01,9.99999e-01,9.99665e-01,9.61828e-01,9.99999e-01
6.111885937e-01,9.62432e-01,9.99999e-01,9.99999e-01,9.99858e-01,9.62568e-01,9.99999e-01
6.142445367e-01,9.63233e-01,9.99999e-01,9.99999e-01,9.99936e-01,9.63293e-01,9.99999e-01
6.173157594e-01,9.63972e-01,9.99999e-01,9.99999e-01,9.99964e-01,9.64005e-01,9.99999e-01
6.204023382e-01,9.64675e-01,9.99999e-01,9.99999e-01,9.99970e-01,9.64703e-01,9.99999e-01
6.235043498e-01,9.65263e-01,9.99999e-01,9.99999e-01,9.99869e-01,9.65388e-01,9.99999e-01
6.266218716e-01,9.65392e-01,9.99999e-01,9.99999e-01,9.99312e-01,9.66060e-01,9.99994e-01
6.297549810e-01,9.66466e-01,9.99999e-01,9.99999e-01,9.99747e-01,9.66719e-01,9.99989e-01
6.329037559e-01,9.66877e-01,9.99999e-01,9.99999e-01,9.99501e-01,9.67366e-01,9.99991e-01
6.360682746e-01,9.67585e-01,9.99999e-01,9.99999e-01,9.99575e-01,9.68000e-01,9.99994e-01
6.392486160e-01,9.68088e-01,9.99999e-01,9.99999e-01,9.99449e-01,9.68622e-01,9.99997e-01
6.424448591e-01,9.68515e-01,9.99999e-01,9.99999e-01,9.99263e-01,9.69232e-01,9.99996e-01
6.456570834e-01,9.66499e-01,9.99999e-01,9.99999e-01,9.96582e-01,9.69831e-01,9.99980e-01
6.488853688e-01,9.67941e-01,9.99999e-01,9.99999e-01,9.97499e-01,9.70418e-01,9.99946e-01
6.521297956e-01,9.68477e-01,9.99999e-01,9.99999e-01,9.97451e-01,9.70993e-01,9.99955e-01
6.553904446e-01,9.69062e-01,9.99999e-01,9.99999e-01,9.97462e-01,9.71558e-01,9.99966e-01
6.586673968e-01,9.69990e-01,9.99999e-01,9.99999e-01,9.97827e-01,9.72112e-01,9.99988e-01
6.619607338e-01,9.71475e-01,9.99999e-01,9.99999e-01,9.98788e-01,9.72655e-01,9.99997e-01
6.652705375e-01,9.72480e-01,9.99999e-01,9.99999e-01,9.99272e-01,9.73188e-01,9.99998e-01
6.685968902e-01,9.73382e-01,9.99999e-01,9.99999e-01,9.99661e-01,9.73711e-01,9.99999e-01
6.719398746e-01,9.74071e-01,9.99999e-01,9.99999e-01,9.99843e-01,9.74223e-01,9.99999e-01
6.752995740e-01,9.74643e-01,9.99999e-01,9.99999e-01,9.99914e-01,9.74726e-01,9.99999e-01
6.786760719e-01,9.75099e-01,9.99999e-01,9.99999e-01,9.99877e-01,9.75219e-01,9.99999e-01
6.820694522e-01,9.75497e-01,9.99999e-01,9.99999e-01,9.99789e-01,9.75702e-01,9.99998e-01
6.854797995e-01,9.75910e-01,9.99999e-01,9.99999e-01,9.99729e-01,9.76176e-01,9.99997e-01
6.889071985e-01,9.75995e-01,9.99999e-01,9.99999e-01,9.99343e-01,9.76641e-01,9.99993e-01
6.923517345e-01,9.66630e-01,9.99999e-01,9.99999e-01,9.89337e-01,9.77097e-01,9.99948e-01
6.958134932e-01,9.72014e-01,9.99999e-01,9.99999e-01,9.94454e-01,9.77545e-01,9.99886e-01
6.992925606e-01,9.72721e-01,9.99999e-01,9.99999e-01,9.94720e-01,9.77983e-01,9.99897e-01
7.027890234e-01,9.71968e-01,9.99999e-01,9.99999e-01,9.93489e-01,9.78413e-01,9.99921e-01
7.063029686e-01,9.73438e-01,9.99999e-01,9.99999e-01,9.94524e-01,9.78835e-01,9.99960e-01
7.098344834e-01,9.74082e-01,9.99999e-01,9.99999e-01,9.94746e-01,9.79249e-01,9.99976e-01
7.133836558e-01,9.72747e-01,9.99999e-01,9.99999e-01,9.92993e-01,9.79655e-01,9.99953e-01
7.169505741e-01,9.25786e-01,9.99999e-01,9.99999e-01,9.44968e-01,9.80052e-01,9.99640e-01
7.205353270e-01,9.53113e-01,9.99999e-01,9.99999e-01,9.72740e-01,9.80443e-01,9.99366e-01
7.241380036e-01,9.46419e-01,9.99999e-01,9.99999e-01,9.65448e-01,9.80825e-01,9.99452e-01
7.277586936e-01,9.50135e-01,9.99999e-01,9.99999e-01,9.68772e-01,9.81200e-01,9.99552e-01
7.313974871e-01,9.48830e-01,9.99999e-01,9.99999e-01,9.66848e-01,9.81568e-01,9.99790e-01
7.350544745e-01,9.63948e-01,9.99999e-01,9.99999e-01,9.81759e-01,9.81929e-01,9.99926e-01
7.387297469e-01,9.69039e-01,9.99999e-01,9.99999e-01,9.86550e-01,9.82283e-01,9.99966e-01
7.424233956e-01,9.76139e-01,9.99999e-01,9.99999e-01,9.93400e-01,9.82629e-01,9.99993e-01
7.461355126e-01,9.79033e-01,9.99999e-01,9.99999e-01,9.95996e-01,9.82970e-01,9.99998e-01
7.498661902e-01,9.81469e-01,9.99999e-01,9.99999e-01,9.98134e-01,9.83303e-01,9.99999e-01
7.536155211e-01,9.82730e-01,9.99999e-01,9.99999e-01,9.99084e-01,9.83630e-01,9.99999e-01
7.573835987e-01,9.83487e-01,9.99999e-01,9.99999e-01,9.99528e-01,9.83951e-01,9.99999e-01
7.611705167e-01,9.83977e-01,9.99999e-01,9.99999e-01,9.99706e-01,9.84265e-01,9.99999e-01
7.649763693e-01,9.84393e-01,9.99999e-01,9.99999e-01,9.99816e-01,9.84574e-01,9.99999e-01
7.688012511e-01,9.84750e-01,9.99999e-01,9.99999e-01,9.99871e-01,9.84876e-01,9.99999e-01
7.726452574e-01,9.85069e-01,9.99999e-01,9.99999e-01,9.99894e-01,9.85173e-01,9.99999e-01
7.765084837e-01,9.85316e-01,9.99999e-01,9.99999e-01,9.99850e-01,9.85463e-01,9.99999e-01
7.803910261e-01,9.85111e-01,9.99999e-01,9.99999e-01,9.99353e-01,9.85748e-01,9.99998e-01
7.842929812e-01,9.83800e-01,9.99999e-01,9.99999e-01,9.97744e-01,9.86028e-01,9.99995e-01
7.882144461e-01,9.81695e-01,9.99999e-01,9.99999e-01,9.95360e-01,9.86302e-01,9.99967e-01
7.921555184e-01,9.84006e-01,9.99999e-01,9.99999e-01,9.97454e-01,9.86571e-01,9.99944e-01
7.961162960e-01,9.82343e-01,9.99999e-01,9.99999e-01,9.95500e-01,9.86834e-01,9.99946e-01
8.000968774e-01,9.81912e-01,9.99999e-01,9.99999e-01,9.94806e-01,9.87093e-01,9.99943e-01
8.040973618e-01,9.82173e-01,9.99999e-01,9.99999e-01,9.94804e-01,9.87346e-01,9.99955e-01
8.081178486e-01,9.76012e-01,9.99999e-01,9.99999e-01,9.88312e-01,9.87594e-01,9.99957e-01
8.121584379e-01,9.40411e-01,9.99999e-01,9.99999e-01,9.52144e-01,9.87838e-01,9.99835e-01
8.162192301e-01,9.31659e-01,9.99999e-01,9.99999e-01,9.43483e-01,9.88077e-01,9.99383e-01
8.203003262e-01,9.59356e-01,9.99999e-01,9.99999e-01,9.71403e-01,9.88311e-01,9.99277e-01
8.244018279e-01,9.48794e-01,9.99999e-01,9.99999e-01,9.60343e-01,9.88540e-01,9.99425e-01
8.285238370e-01,9.54594e-01,9.99999e-01,9.99999e-01,9.65875e-01,9.88765e-01,9.99548e-01
8.326664562e-01,9.54710e-01,9.99999e-01,9.99999e-01,9.65521e-01,9.88986e-01,9.99812e-01
8.368297885e-01,9.64693e-01,9.99999e-01,9.99999e-01,9.75263e-01,9.89202e-01,9.99956e-01
8.410139374e-01,9.74782e-01,9.99999e-01,9.99999e-01,9.85235e-01,9.89414e-01,9.99974e-01
8.452190071e-01,9.82420e-01,9.99999e-01,9.99999e-01,9.92736e-01,9.89622e-01,9.99984e-01
8.494451021e-01,9.85638e-01,9.99999e-01,9.99999e-01,9.95779e-01,9.89826e-01,9.99987e-01
8.536923276e-01,9.87548e-01,9.99999e-01,9.99999e-01,9.97503e-01,9.90026e-01,9.99992e-01
8.579607893e-01,9.88698e-01,9.99999e-01,9.99999e-01,9.98461e-01,9.90222e-01,9.99997e-01
8.622505932e-01,9.89447e-01,9.99999e-01,9.99999e-01,9.99022e-01,9.90414e-01,9.99999e-01
8.665618462e-01,9.90004e-01,9.99999e-01,9.99999e-01,9.99395e-01,9.90603e-01,9.99999e-01
8.708946554e-01,9.90101e-01,9.99999e-01,9.99999e-01,9.99307e-01,9.90788e-01,9.99999e-01
8.752491287e-01,9.90050e-01,9.99999e-01,9.99999e-01,9.99073e-01,9.90969e-01,9.99998e-01
8.796253743e-01,9.89872e-01,9.99999e-01,9.99999e-01,9.98716e-01,9.91146e-01,9.99996e-01
8.840235012e-01,9.89859e-01,9.99999e-01,9.99999e-01,9.98534e-01,9.91320e-01,9.99990e-01
8.884436187e-01,9.86165e-01,9.99999e-01,9.99999e-01,9.94652e-01,9.91491e-01,9.99974e-01
8.928858368e-01,9.37042e-01,9.99999e-01,9.99999e-01,9.45062e-01,9.91658e-01,9.99853e-01
8.973502660e-01,8.96857e-01,9.99999e-01,9.99999e-01,9.04929e-01,9.91823e-01,9.99249e-01
9.018370173e-01,9.41593e-01,9.99999e-01,9.99999e-01,9.50322e-01,9.91983e-01,9.98821e-01
9.063462024e-01,9.47593e-01,9.99999e-01,9.99999e-01,9.56087e-01,9.92141e-01,9.98964e-01
9.108779334e-01,9.24214e-01,9.99999e-01,9.99999e-01,9.32391e-01,9.92296e-01,9.98923e-01
9.154323231e-01,9.15777e-01,9.99999e-01,9.99999e-01,9.23566e-01,9.92447e-01,9.99110e-01
9.200094847e-01,9.32226e-01,9.99999e-01,9.99999e-01,9.39646e-01,9.92596e-01,9.99501e-01
9.246095321e-01,9.00148e-01,9.99999e-01,9.99999e-01,9.07249e-01,9.92742e-01,9.99425e-01
9.292325798e-01,5.19027e-01,9.99999e-01,9.99999e-01,5.23917e-01,9.92884e-01,9.97764e-01
9.338787427e-01,4.28224e-01,9.99999e-01,9.99999e-01,4.35239e-01,9.93025e-01,9.90792e-01
9.385481364e-01,7.01943e-01,9.99999e-01,9.99999e-01,7.14593e-01,9.93162e-01,9.89058e-01
9.432408771e-01,6.17891e-01,9.99999e-01,9.99999e-01,6.27992e-01,9.93296e-01,9.90553e-01
9.479570815e-01,5.20415e-01,9.99999e-01,9.99999e-01,5.27919e-01,9.93428e-01,9.92305e-01
9.526968669e-01,6.10840e-01,9.99999e-01,9.99999e-01,6.17703e-01,9.93558e-01,9.95299e-01
9.574603512e-01,6.34315e-01,9.99999e-01,9.99999e-01,6.39876e-01,9.93685e-01,9.97609e-01
9.622476530e-01,6.89408e-01,9.99999e-01,9.99999e-01,6.94851e-01,9.93809e-01,9.98346e-01
9.670588912e-01,8.04696e-01,9.99999e-01,9.99999e-01,8.10525e-01,9.93931e-01,9.98868e-01
9.718941857e-01,8.70703e-01,9.99999e-01,9.99999e-01,8.76644e-01,9.94050e-01,9.99166e-01
9.767536566e-01,8.90664e-01,9.99999e-01,9.99999e-01,8.96459e-01,9.94167e-01,9.99363e-01
9.816374249e-01,9.16718e-01,9.99999e-01,9.99999e-01,9.22192e-01,9.94282e-01,9.99779e-01
9.865456120e-01,9.45280e-01,9.99999e-01,9.99999e-01,9.50650e-01,9.94395e-01,9.99953e-01
9.914783401e-01,9.63865e-01,9.99999e-01,9.99999e-01,9.69202e-01,9.94505e-01,9.99986e-01
9.964357318e-01,9.77810e-01,9.99999e-01,9.99999e-01,9.83112e-01,9.94614e-01,9.99992e-01
1.001417910e+00,9.84609e-01,9.99999e-01,9.99999e-01,9.89846e-01,9.94720e-01,9.99988e-01
1.006425000e+00,9.89038e-01,9.99999e-01,9.99999e-01,9.94199e-01,9.94824e-01,9.99983e-01
1.011457125e+00,9.91327e-01,9.99999e-01,9.99999e-01,9.96397e-01,9.94926e-01,9.99984e-01
1.016514411e+00,9.92580e-01,9.99999e-01,9.99999e-01,9.97552e-01,9.95026e-01,9.99988e-01
1.021596983e+00,9.93172e-01,9.99999e-01,9.99999e-01,9.98049e-01,9.95124e-01,9.99988e-01
1.026704968e+00,9.93699e-01,9.99999e-01,9.99999e-01,9.98478e-01,9.95220e-01,9.99992e-01
1.031838492e+00,9.94212e-01,9.99999e-01,9.99999e-01,9.98894e-01,9.95314e-01,9.99997e-01
1.036997685e+00,9.94752e-01,9.99999e-01,9.99999e-01,9.99342e-01,9.95406e-01,9.99999e-01
1.042182673e+00,9.94717e-01,9.99999e-01,9.99999e-01,9.99216e-01,9.95497e-01,9.99999e-01
1.047393587e+00,9.94551e-01,9.99999e-01,9.99999e-01,9.98960e-01,9.95585e-01,9.99999e-01
1.052630555e+00,9.94253e-01,9.99999e-01,9.99999e-01,9.98574e-01,9.95672e-01,9.99999e-01
1.057893707e+00,9.93388e-01,9.99999e-01,9.99999e-01,9.97620e-01,9.95758e-01,9.99998e-01
1.063183176e+00,9.91943e-01,9.99999e-01,9.99999e-01,9.96086e-01,9.95841e-01,9.99997e-01
1.068499092e+00,9.89400e-01,9.99999e-01,9.99999e-01,9.93454e-01,9.95923e-01,9.99995e-01
1.073841587e+00,9.88367e-01,9.99999e-01,9.99999e-01,9.92341e-01,9.96004e-01,9.99989e-01
1.079210795e+00,9.86294e-01,9.99999e-01,9.99999e-01,9.90198e-01,9.96082e-01,9.99973e-01
1.084606849e+00,9.81349e-01,9.99999e-01,9.99999e-01,9.85194e-01,9.96160e-01,9.99936e-01
1.090029883e+00,9.74974e-01,9.99999e-01,9.99999e-01,9.78786e-01,9.96235e-01,9.99868e-01
1.095480033e+00,9.39554e-01,9.99999e-01,9.99999e-01,9.43256e-01,9.96309e-01,9.99763e-01
1.100957433e+00,8.58638e-01,9.99999e-01,9.99999e-01,8.62130e-01,9.96382e-01,9.99564e-01
1.106462220e+00,6.84109e-01,9.99999e-01,9.99999e-01,6.87049e-01,9.96454e-01,9.99261e-01
1.111994531e+00,4.53634e-01,9.99999e-01,9.99999e-01,4.56109e-01,9.96523e-01,9.98042e-01
1.117554504e+00,2.79811e-01,9.99999e-01,9.99999e-01,2.82760e-01,9.96592e-01,9.92952e-01
1.123142276e+00,3.92535e-01,9.99999e-01,9.99999e-01,4.00511e-01,9.96659e-01,9.83368e-01
1.128757988e+00,5.39516e-01,9.99999e-01,9.99999e-01,5.51892e-01,9.96725e-01,9.80785e-01
1.134401778e+00,2.92819e-01,9.99999e-01,9.99999e-01,2.98648e-01,9.96790e-01,9.83638e-01
1.140073787e+00,6.87829e-01,9.99999e-01,9.99999e-01,6.99154e-01,9.96853e-01,9.86905e-01
1.145774156e+00,4.70552e-01,9.99999e-01,9.99999e-01,4.77737e-01,9.96915e-01,9.88007e-01
1.151503026e+00,4.36220e-01,9.99999e-01,9.99999e-01,4.40493e-01,9.96976e-01,9.93300e-01
1.157260541e+00,4.97504e-01,9.99999e-01,9.99999e-01,4.99986e-01,9.97035e-01,9.97991e-01
1.163046844e+00,5.96427e-01,9.99999e-01,9.99999e-01,5.98506e-01,9.97094e-01,9.99430e-01
1.168862078e+00,6.96763e-01,9.99999e-01,9.99999e-01,6.98958e-01,9.97151e-01,9.99706e-01
1.174706389e+00,7.99093e-01,9.99999e-01,9.99999e-01,8.01642e-01,9.97207e-01,9.99610e-01
1.180579921e+00,8.71059e-01,9.99999e-01,9.99999e-01,8.73963e-01,9.97262e-01,9.99411e-01
1.186482820e+00,9.23610e-01,9.99999e-01,9.99999e-01,9.26654e-01,9.97316e-01,9.99396e-01
1.192415234e+00,9.53568e-01,9.99999e-01,9.99999e-01,9.56515e-01,9.97369e-01,9.99547e-01
1.198377311e+00,9.60324e-01,9.99999e-01,9.99999e-01,9.63218e-01,9.97421e-01,9.99572e-01
1.204369197e+00,9.62360e-01,9.99999e-01,9.99999e-01,9.65170e-01,9.97472e-01,9.99613e-01
1.210391043e+00,9.64043e-01,9.99999e-01,9.99999e-01,9.66664e-01,9.97522e-01,9.99764e-01
1.216442998e+00,9.69078e-01,9.99999e-01,9.99999e-01,9.71577e-01,9.97571e-01,9.99855e-01
1.222525213e+00,9.75386e-01,9.99999e-01,9.99999e-01,9.77801e-01,9.97619e-01,9.99910e-01
1.228637839e+00,9.82195e-01,9.99999e-01,9.99999e-01,9.84533e-01,9.97666e-01,9.99957e-01
