#,Wave/freq,Total,N2,O2,H2O,Rayleigh,CIA
4.000000000e-01,7.52612e-01,9.99999e-01,9.99999e-01,9.99967e-01,7.52636e-01,9.99999e-01
4.020000000e-01,7.56862e-01,9.99999e-01,9.99999e-01,9.99979e-01,7.56877e-01,9.99999e-01
4.040100000e-01,7.61047e-01,9.99999e-01,9.99999e-01,9.99991e-01,7.61053e-01,9.99999e-01
4.060300500e-01,7.65167e-01,9.99999e-01,9.99999e-01,9.99997e-01,7.65169e-01,9.99999e-01
4.080602003e-01,7.69224e-01,9.99999e-01,9.99999e-01,9.99998e-01,7.69225e-01,9.99999e-01
4.101005013e-01,7.73222e-01,9.99999e-01,9.99999e-01,9.99999e-01,7.73222e-01,9.99999e-01
4.121510038e-01,7.77159e-01,9.99999e-01,9.99999e-01,9.99998e-01,7.77160e-01,9.99999e-01
4.142117588e-01,7.81033e-01,9.99999e-01,9.99999e-01,9.99990e-01,7.81040e-01,9.99999e-01
4.162828176e-01,7.84830e-01,9.99999e-01,9.99999e-01,9.99959e-01,7.84861e-01,9.99999e-01
4.183642317e-01,7.88607e-01,9.99999e-01,9.99999e-01,9.99975e-01,7.88626e-01,9.99999e-01
4.204560528e-01,7.92322e-01,9.99999e-01,9.99999e-01,9.99984e-01,7.92334e-01,9.99999e-01
4.225583331e-01,7.95981e-01,9.99999e-01,9.99999e-01,9.99994e-01,7.95985e-01,9.99999e-01
4.246711247e-01,7.99577e-01,9.99999e-01,9.99999e-01,9.99995e-01,7.99581e-01,9.99999e-01
4.267944804e-01,8.03116e-01,9.99999e-01,9.99999e-01,9.99993e-01,8.03121e-01,9.99999e-01
4.289284528e-01,8.06603e-01,9.99999e-01,9.99999e-01,9.99994e-01,8.06607e-01,9.99999e-01
4.310730950e-01,8.10036e-01,9.99999e-01,9.99999e-01,9.99997e-01,8.10038e-01,9.99999e-01
4.332284605e-01,8.13416e-01,9.99999e-01,9.99999e-01,9.99998e-01,8.13416e-01,9.99999e-01
4.353946028e-01,8.16741e-01,9.99999e-01,9.99999e-01,9.99999e-01,8.16741e-01,9.99999e-01
4.375715758e-01,8.20010e-01,9.99999e-01,9.99999e-01,9.99995e-01,8.20013e-01,9.99999e-01
4.397594337e-01,8.23205e-01,9.99999e-01,9.99999e-01,9.99964e-01,8.23233e-01,9.99999e-01
4.419582309e-01,8.26257e-01,9.99999e-01,9.99999e-01,9.99823e-01,8.26403e-01,9.99999e-01
4.441680220e-01,8.29406e-01,9.99999e-01,9.99999e-01,9.99860e-01,8.29521e-01,9.99999e-01
4.463888621e-01,8.32469e-01,9.99999e-01,9.99999e-01,9.99855e-01,8.32589e-01,9.99999e-01
4.486208064e-01,8.35533e-01,9.99999e-01,9.99999e-01,9.99909e-01,8.35608e-01,9.99999e-01
4.508639105e-01,8.38542e-01,9.99999e-01,9.99999e-01,9.99957e-01,8.38577e-01,9.99999e-01
4.531182300e-01,8.41484e-01,9.99999e-01,9.99999e-01,9.99982e-01,8.41498e-01,9.99999e-01
4.553838212e-01,8.44362e-01,9.99999e-01,9.99999e-01,9.99988e-01,8.44371e-01,9.99999e-01
4.576607403e-01,8.47193e-01,9.99999e-01,9.99999e-01,9.99994e-01,8.47198e-01,9.99999e-01
4.599490440e-01,8.49974e-01,9.99999e-01,9.99999e-01,9.99995e-01,8.49977e-01,9.99999e-01
4.622487892e-01,8.52710e-01,9.99999e-01,9.99999e-01,9.99998e-01,8.52710e-01,9.99999e-01
4.645600332e-01,8.55396e-01,9.99999e-01,9.99999e-01,9.99997e-01,8.55398e-01,9.99999e-01
4.668828333e-01,8.58005e-01,9.99999e-01,9.99999e-01,9.99957e-01,8.58041e-01,9.99999e-01
4.692172475e-01,8.60562e-01,9.99999e-01,9.99999e-01,9.99909e-01,8.60640e-01,9.99999e-01
4.715633337e-01,8.63144e-01,9.99999e-01,9.99999e-01,9.99940e-01,8.63195e-01,9.99999e-01
4.739211504e-01,8.65658e-01,9.99999e-01,9.99999e-01,9.99942e-01,8.65707e-01,9.99999e-01
4.762907561e-01,8.68151e-01,9.99999e-01,9.99999e-01,9.99970e-01,8.68177e-01,9.99999e-01
4.786722099e-01,8.70594e-01,9.99999e-01,9.99999e-01,9.99987e-01,8.70604e-01,9.99999e-01
4.810655710e-01,8.72987e-01,9.99999e-01,9.99999e-01,9.99995e-01,8.72990e-01,9.99999e-01
4.834708988e-01,8.75306e-01,9.99999e-01,9.99999e-01,9.99965e-01,8.75336e-01,9.99999e-01
4.858882533e-01,8.77585e-01,9.99999e-01,9.99999e-01,9.99935e-01,8.77641e-01,9.99999e-01
4.883176946e-01,8.79859e-01,9.99999e-01,9.99999e-01,9.99946e-01,8.79906e-01,9.99999e-01
4.907592831e-01,8.82090e-01,9.99999e-01,9.99999e-01,9.99951e-01,8.82133e-01,9.99999e-01
4.932130795e-01,8.84290e-01,9.99999e-01,9.99999e-01,9.99965e-01,8.84321e-01,9.99999e-01
4.956791449e-01,8.86454e-01,9.99999e-01,9.99999e-01,9.99981e-01,8.86471e-01,9.99999e-01
4.981575406e-01,8.88503e-01,9.99999e-01,9.99999e-01,9.99909e-01,8.88583e-01,9.99999e-01
5.006483283e-01,8.90449e-01,9.99999e-01,9.99999e-01,9.99765e-01,8.90659e-01,9.99997e-01
5.031515699e-01,8.91625e-01,9.99999e-01,9.99999e-01,9.98809e-01,8.92698e-01,9.99986e-01
5.056673278e-01,8.94126e-01,9.99999e-01,9.99999e-01,9.99370e-01,8.94702e-01,9.99985e-01
5.081956644e-01,8.95950e-01,9.99999e-01,9.99999e-01,9.99205e-01,8.96671e-01,9.99990e-01
5.107366428e-01,8.98121e-01,9.99999e-01,9.99999e-01,9.99463e-01,8.98604e-01,9.99997e-01
5.132903260e-01,9.00227e-01,9.99999e-01,9.99999e-01,9.99692e-01,9.00504e-01,9.99999e-01
5.158567776e-01,9.02253e-01,9.99999e-01,9.99999e-01,9.99869e-01,9.02370e-01,9.99999e-01
5.184360615e-01,9.04156e-01,9.99999e-01,9.99999e-01,9.99947e-01,9.04203e-01,9.99999e-01
5.210282418e-01,9.05986e-01,9.99999e-01,9.99999e-01,9.99980e-01,9.06003e-01,9.99999e-01
5.236333830e-01,9.07701e-01,9.99999e-01,9.99999e-01,9.99921e-01,9.07771e-01,9.99998e-01
5.262515499e-01,9.09463e-01,9.99999e-01,9.99999e-01,9.99950e-01,9.09508e-01,9.99998e-01
5.288828077e-01,9.11173e-01,9.99999e-01,9.99999e-01,9.99955e-01,9.11214e-01,9.99999e-01
5.315272217e-01,9.12853e-01,9.99999e-01,9.99999e-01,9.99960e-01,9.12889e-01,9.99999e-01
5.341848578e-01,9.14510e-01,9.99999e-01,9.99999e-01,9.99973e-01,9.14534e-01,9.99999e-01
5.368557821e-01,9.16066e-01,9.99999e-01,9.99999e-01,9.99909e-01,9.16149e-01,9.99999e-01
5.395400610e-01,9.17435e-01,9.99999e-01,9.99999e-01,9.99675e-01,9.17735e-01,9.99996e-01
5.422377613e-01,9.18897e-01,9.99999e-01,9.99999e-01,9.99577e-01,9.19293e-01,9.99991e-01
5.449489501e-01,9.20454e-01,9.99999e-01,9.99999e-01,9.99608e-01,9.20822e-01,9.99991e-01
5.476736949e-01,9.21999e-01,9.99999e-01,9.99999e-01,9.99651e-01,9.22323e-01,9.99995e-01
5.504120634e-01,9.23563e-01,9.99999e-01,9.99999e-01,9.99746e-01,9.23798e-01,9.99998e-01
5.531641237e-01,9.25127e-01,9.99999e-01,9.99999e-01,9.99872e-01,9.25245e-01,9.99999e-01
5.559299443e-01,9.26609e-01,9.99999e-01,9.99999e-01,9.99938e-01,9.26666e-01,9.99999e-01
5.587095940e-01,9.28026e-01,9.99999e-01,9.99999e-01,9.99961e-01,9.28061e-01,9.99999e-01
5.615031420e-01,9.29391e-01,9.99999e-01,9.99999e-01,9.99956e-01,9.29431e-01,9.99999e-01
5.643106577e-01,9.30730e-01,9.99999e-01,9.99999e-01,9.99951e-01,9.30775e-01,9.99999e-01
5.671322110e-01,9.31547e-01,9.99999e-01,9.99999e-01,9.99416e-01,9.32095e-01,9.99994e-01
5.699678720e-01,9.32788e-01,9.99999e-01,9.99999e-01,9.99369e-01,9.33391e-01,9.99983e-01
5.728177114e-01,9.34041e-01,9.99999e-01,9.99999e-01,9.99347e-01,9.34662e-01,9.99986e-01
5.756818000e-01,9.35343e-01,9.99999e-01,9.99999e-01,9.99400e-01,9.35911e-01,9.99991e-01
5.785602090e-01,9.36644e-01,9.99999e-01,9.99999e-01,9.99476e-01,9.37136e-01,9.99997e-01
5.814530100e-01,9.37846e-01,9.99999e-01,9.99999e-01,9.99475e-01,9.38339e-01,9.99998e-01
5.843602750e-01,9.38931e-01,9.99999e-01,9.99999e-01,9.99377e-01,9.39519e-01,9.99996e-01
5.872820764e-01,9.35602e-01,9.99999e-01,9.99999e-01,9.94641e-01,9.40677e-01,9.99961e-01
5.902184868e-01,9.35574e-01,9.99999e-01,9.99999e-01,9.93476e-01,9.41814e-01,9.99896e-01
5.931695792e-01,9.38495e-01,9.99999e-01,9.99999e-01,9.95396e-01,9.42930e-01,9.99899e-01
5.961354271e-01,9.39199e-01,9.99999e-01,9.99999e-01,9.94947e-01,9.44025e-01,9.99938e-01
5.991161043e-01,9.41597e-01,9.99999e-01,9.99999e-01,9.96310e-01,9.45100e-01,9.99981e-01
6.021116848e-01,9.44170e-01,9.99999e-01,9.99999e-01,9.97903e-01,9.46155e-01,9.99997e-01
6.051222432e-01,9.46185e-01,9.99999e-01,9.99999e-01,9.98938e-01,9.47190e-01,9.99999e-01
6.081478544e-01,9.47772e-01,9.99999e-01,9.99999e-01,9.99542e-01,9.48205e-01,9.99999e-01
6.111885937e-01,9.49018e-01,9.99999e-01,9.99999e-01,9.99805e-01,9.49202e-01,9.99999e-01
6.142445367e-01,9.50098e-01,9.99999e-01,9.99999e-01,9.99913e-01,9.50180e-01,9.99999e-01
6.173157594e-01,9.51094e-01,9.99999e-01,9.99999e-01,9.99951e-01,9.51139e-01,9.99999e-01
6.204023382e-01,9.52043e-01,9.99999e-01,9.99999e-01,9.99959e-01,9.52081e-01,9.99999e-01
6.235043498e-01,9.52837e-01,9.99999e-01,9.99999e-01,9.99823e-01,9.53005e-01,9.99999e-01
6.266218716e-01,9.53010e-01,9.99999e-01,9.99999e-01,9.99061e-01,9.53911e-01,9.99992e-01
6.297549810e-01,9.54460e-01,9.99999e-01,9.99999e-01,9.99655e-01,9.54801e-01,9.99986e-01
6.329037559e-01,9.55012e-01,9.99999e-01,9.99999e-01,9.99318e-01,9.55674e-01,9.99988e-01
6.360682746e-01,9.55970e-01,9.99999e-01,9.99999e-01,9.99420e-01,9.56530e-01,9.99993e-01
6.392486160e-01,9.56648e-01,9.99999e-01,9.99999e-01,9.99248e-01,9.57370e-01,9.99996e-01
6.424448591e-01,9.57231e-01,9.99999e-01,9.99999e-01,9.98999e-01,9.58194e-01,9.99995e-01
6.456570834e-01,9.54527e-01,9.99999e-01,9.99999e-01,9.95358e-01,9.59003e-01,9.99973e-01
6.488853688e-01,9.56444e-01,9.99999e-01,9.99999e-01,9.96579e-01,9.59796e-01,9.99927e-01
6.521297956e-01,9.57167e-01,9.99999e-01,9.99999e-01,9.96513e-01,9.60574e-01,9.99938e-01
6.553904446e-01,9.57981e-01,9.99999e-01,9.99999e-01,9.96553e-01,9.61338e-01,9.99954e-01
6.586673968e-01,9.59212e-01,9.99999e-01,9.99999e-01,9.97026e-01,9.62087e-01,9.99984e-01
6.619607338e-01,9.61163e-01,9.99999e-01,9.99999e-01,9.98280e-01,9.62821e-01,9.99996e-01
6.652705375e-01,9.62580e-01,9.99999e-01,9.99999e-01,9.99002e-01,9.63542e-01,9.99997e-01
6.685968902e-01,9.63803e-01,9.99999e-01,9.99999e-01,9.99536e-01,9.64249e-01,9.99999e-01
6.719398746e-01,9.64736e-01,9.99999e-01,9.99999e-01,9.99784e-01,9.64943e-01,9.99999e-01
6.752995740e-01,9.65511e-01,9.99999e-01,9.99999e-01,9.99883e-01,9.65623e-01,9.99999e-01
6.786760719e-01,9.66129e-01,9.99999e-01,9.99999e-01,9.99832e-01,9.66291e-01,9.99999e-01
6.820694522e-01,9.66667e-01,9.99999e-01,9.99999e-01,9.99713e-01,9.66945e-01,9.99998e-01
6.854797995e-01,9.67228e-01,9.99999e-01,9.99999e-01,9.99630e-01,9.67588e-01,9.99996e-01
6.889071985e-01,9.67352e-01,9.99999e-01,9.99999e-01,9.99113e-01,9.68217e-01,9.99991e-01
6.923517345e-01,9.54747e-01,9.99999e-01,9.99999e-01,9.85527e-01,9.68835e-01,9.99929e-01
6.958134932e-01,9.61891e-01,9.99999e-01,9.99999e-01,9.92367e-01,9.69441e-01,9.99841e-01
6.992925606e-01,9.62942e-01,9.99999e-01,9.99999e-01,9.92824e-01,9.70036e-01,9.99860e-01
7.027890234e-01,9.61886e-01,9.99999e-01,9.99999e-01,9.91107e-01,9.70619e-01,9.99892e-01
7.063029686e-01,9.63878e-01,9.99999e-01,9.99999e-01,9.92522e-01,9.71191e-01,9.99946e-01
7.098344834e-01,9.64749e-01,9.99999e-01,9.99999e-01,9.92824e-01,9.71752e-01,9.99968e-01
7.133836558e-01,9.63019e-01,9.99999e-01,9.99999e-01,9.90514e-01,9.72302e-01,9.99937e-01
7.169505741e-01,9.00437e-01,9.99999e-01,9.99999e-01,9.26028e-01,9.72841e-01,9.99508e-01
7.205353270e-01,9.36274e-01,9.99999e-01,9.99999e-01,9.62720e-01,9.73371e-01,9.99134e-01
7.241380036e-01,9.27667e-01,9.99999e-01,9.99999e-01,9.53249e-01,9.73890e-01,9.99252e-01
7.277586936e-01,9.32610e-01,9.99999e-01,9.99999e-01,9.57697e-01,9.74399e-01,9.99388e-01
7.313974871e-01,9.30663e-01,9.99999e-01,9.99999e-01,9.54898e-01,9.74898e-01,9.99713e-01
7.350544745e-01,9.51039e-01,9.99999e-01,9.99999e-01,9.75133e-01,9.75388e-01,9.99900e-01
7.387297469e-01,9.57901e-01,9.99999e-01,9.99999e-01,9.81632e-01,9.75868e-01,9.99953e-01
7.424233956e-01,9.67507e-01,9.99999e-01,9.99999e-01,9.90961e-01,9.76339e-01,9.99990e-01
7.461355126e-01,9.71446e-01,9.99999e-01,9.99999e-01,9.94519e-01,9.76801e-01,9.99997e-01
7.498661902e-01,9.74753e-01,9.99999e-01,9.99999e-01,9.97441e-01,9.77254e-01,9.99998e-01
7.536155211e-01,9.76472e-01,9.99999e-01,9.99999e-01,9.98746e-01,9.77698e-01,9.99999e-01
7.573835987e-01,9.77502e-01,9.99999e-01,9.99999e-01,9.99354e-01,9.78134e-01,9.99999e-01
7.611705167e-01,9.78169e-01,9.99999e-01,9.99999e-01,9.99598e-01,9.78561e-01,9.99999e-01
7.649763693e-01,9.78734e-01,9.99999e-01,9.99999e-01,9.99748e-01,9.78980e-01,9.99999e-01
7.688012511e-01,9.79220e-01,9.99999e-01,9.99999e-01,9.99824e-01,9.79391e-01,9.99999e-01
7.726452574e-01,9.79653e-01,9.99999e-01,9.99999e-01,9.99855e-01,9.79794e-01,9.99999e-01
7.765084837e-01,9.79989e-01,9.99999e-01,9.99999e-01,9.99796e-01,9.80189e-01,9.99999e-01
7.803910261e-01,9.79714e-01,9.99999e-01,9.99999e-01,9.99121e-01,9.80576e-01,9.99998e-01
7.842929812e-01,9.77946e-01,9.99999e-01,9.99999e-01,9.96936e-01,9.80956e-01,9.99993e-01
7.882144461e-01,9.75076e-01,9.99999e-01,9.99999e-01,9.93666e-01,9.81329e-01,9.99960e-01
7.921555184e-01,9.78198e-01,9.99999e-01,9.99999e-01,9.96513e-01,9.81694e-01,9.99924e-01
7.961162960e-01,9.75974e-01,9.99999e-01,9.99999e-01,9.93881e-01,9.82053e-01,9.99927e-01
8.000968774e-01,9.75367e-01,9.99999e-01,9.99999e-01,9.92912e-01,9.82404e-01,9.99923e-01
8.040973618e-01,9.75728e-01,9.99999e-01,9.99999e-01,9.92916e-01,9.82748e-01,9.99938e-01
8.081178486e-01,9.67457e-01,9.99999e-01,9.99999e-01,9.84157e-01,9.83086e-01,9.99942e-01
8.121584379e-01,9.19828e-01,9.99999e-01,9.99999e-01,9.35547e-01,9.83418e-01,9.99775e-01
8.162192301e-01,9.07789e-01,9.99999e-01,9.99999e-01,9.23568e-01,9.83742e-01,9.99157e-01
8.203003262e-01,9.45410e-01,9.99999e-01,9.99999e-01,9.61670e-01,9.84061e-01,9.99013e-01
8.244018279e-01,9.30696e-01,9.99999e-01,9.99999e-01,9.46212e-01,9.84373e-01,9.99214e-01
8.285238370e-01,9.38604e-01,9.99999e-01,9.99999e-01,9.53795e-01,9.84680e-01,9.99383e-01
8.326664562e-01,9.38657e-01,9.99999e-01,9.99999e-01,9.53213e-01,9.84980e-01,9.99744e-01
8.368297885e-01,9.52018e-01,9.99999e-01,9.99999e-01,9.66302e-01,9.85274e-01,9.99941e-01
8.410139374e-01,9.65659e-01,9.99999e-01,9.99999e-01,9.79837e-01,9.85563e-01,9.99965e-01
8.452190071e-01,9.76026e-01,9.99999e-01,9.99999e-01,9.90058e-01,9.85846e-01,9.99979e-01
8.494451021e-01,9.80421e-01,9.99999e-01,9.99999e-01,9.94232e-01,9.86124e-01,9.99983e-01
8.536923276e-01,9.83012e-01,9.99999e-01,9.99999e-01,9.96579e-01,9.86396e-01,9.99988e-01
8.579607893e-01,9.84585e-01,9.99999e-01,9.99999e-01,9.97896e-01,9.86663e-01,9.99996e-01
8.622505932e-01,9.85604e-01,9.99999e-01,9.99999e-01,9.98661e-01,9.86925e-01,9.99999e-01
8.665618462e-01,9.86365e-01,9.99999e-01,9.99999e-01,9.99173e-01,9.87181e-01,9.99999e-01
8.708946554e-01,9.86499e-01,9.99999e-01,9.99999e-01,9.99054e-01,9.87433e-01,9.99998e-01
8.752491287e-01,9.86429e-01,9.99999e-01,9.99999e-01,9.98735e-01,9.87679e-01,9.99998e-01
8.796253743e-01,9.86191e-01,9.99999e-01,9.99999e-01,9.98251e-01,9.87921e-01,9.99995e-01
8.840235012e-01,9.86173e-01,9.99999e-01,9.99999e-01,9.98002e-01,9.88158e-01,9.99987e-01
8.884436187e-01,9.81239e-01,9.99999e-01,9.99999e-01,9.92797e-01,9.88391e-01,9.99964e-01
8.928858368e-01,9.15549e-01,9.99999e-01,9.99999e-01,9.26273e-01,9.88619e-01,9.99799e-01
8.973502660e-01,8.62144e-01,9.99999e-01,9.99999e-01,8.72765e-01,9.88842e-01,9.98975e-01
9.018370173e-01,9.20957e-01,9.99999e-01,9.99999e-01,9.32642e-01,9.89062e-01,9.98389e-01
9.063462024e-01,9.29525e-01,9.99999e-01,9.99999e-01,9.40930e-01,9.89276e-01,9.98585e-01
9.108779334e-01,8.98300e-01,9.99999e-01,9.99999e-01,9.09179e-01,9.89487e-01,9.98530e-01
9.154323231e-01,8.86980e-01,9.99999e-01,9.99999e-01,8.97306e-01,9.89694e-01,9.98784e-01
9.200094847e-01,9.08688e-01,9.99999e-01,9.99999e-01,9.18586e-01,9.89896e-01,9.99319e-01
9.246095321e-01,8.68532e-01,9.99999e-01,9.99999e-01,8.77908e-01,9.90095e-01,9.99215e-01
9.292325798e-01,4.17123e-01,9.99999e-01,9.99999e-01,4.22502e-01,9.90289e-01,9.96947e-01
9.338787427e-01,3.21140e-01,9.99999e-01,9.99999e-01,3.28350e-01,9.90480e-01,9.87441e-01
9.385481364e-01,6.21440e-01,9.99999e-01,9.99999e-01,6.36793e-01,9.90667e-01,9.85081e-01
9.432408771e-01,5.28675e-01,9.99999e-01,9.99999e-01,5.40520e-01,9.90851e-01,9.87115e-01
9.479570815e-01,4.22051e-01,9.99999e-01,9.99999e-01,4.30389e-01,9.91031e-01,9.89501e-01
9.526968669e-01,5.17356e-01,9.99999e-01,9.99999e-01,5.25315e-01,9.91207e-01,9.93583e-01
9.574603512e-01,5.41030e-01,9.99999e-01,9.99999e-01,5.47521e-01,9.91380e-01,9.96735e-01
9.622476530e-01,6.03717e-01,9.99999e-01,9.99999e-01,6.10240e-01,9.91550e-01,9.97741e-01
9.670588912e-01,7.44427e-01,9.99999e-01,9.99999e-01,7.51806e-01,9.91716e-01,9.98454e-01
9.718941857e-01,8.27962e-01,9.99999e-01,9.99999e-01,8.35691e-01,9.91879e-01,9.98861e-01
9.767536566e-01,8.53932e-01,9.99999e-01,9.99999e-01,8.61533e-01,9.92039e-01,9.99130e-01
9.816374249e-01,8.87926e-01,9.99999e-01,9.99999e-01,8.95179e-01,9.92195e-01,9.99698e-01
9.865456120e-01,9.25906e-01,9.99999e-01,9.99999e-01,9.33102e-01,9.92349e-01,9.99936e-01
9.914783401e-01,9.50900e-01,9.99999e-01,9.99999e-01,9.58102e-01,9.92499e-01,9.99982e-01
9.964357318e-01,9.69767e-01,9.99999e-01,9.99999e-01,9.76959e-01,9.92647e-01,9.99989e-01
1.001417910e+00,9.79002e-01,9.99999e-01,9.99999e-01,9.86125e-01,9.92792e-01,9.99983e-01
1.006425000e+00,9.85045e-01,9.99999e-01,9.99999e-01,9.92076e-01,9.92933e-01,9.99977e-01
1.011457125e+00,9.88156e-01,9.99999e-01,9.99999e-01,9.95068e-01,9.93073e-01,9.99978e-01
1.016514411e+00,9.89870e-01,9.99999e-01,9.99999e-01,9.96652e-01,9.93209e-01,9.99985e-01
1.021596983e+00,9.90679e-01,9.99999e-01,9.99999e-01,9.97332e-01,9.93343e-01,9.99984e-01
1.026704968e+00,9.91398e-01,9.99999e-01,9.99999e-01,9.97920e-01,9.93474e-01,9.99989e-01
1.031838492e+00,9.92096e-01,9.99999e-01,9.99999e-01,9.98486e-01,9.93602e-01,9.99996e-01
1.036997685e+00,9.92835e-01,9.99999e-01,9.99999e-01,9.99101e-01,9.93728e-01,9.99999e-01
1.042182673e+00,9.92790e-01,9.99999e-01,9.99999e-01,9.98931e-01,9.93852e-01,9.99999e-01
1.047393587e+00,9.92563e-01,9.99999e-01,9.99999e-01,9.98581e-01,9.93973e-01,9.99999e-01
1.052630555e+00,9.92158e-01,9.99999e-01,9.99999e-01,9.98055e-01,9.94091e-01,9.99998e-01
1.057893707e+00,9.90983e-01,9.99999e-01,9.99999e-01,9.96757e-01,9.94208e-01,9.99998e-01
1.063183176e+00,9.89015e-01,9.99999e-01,9.99999e-01,9.94665e-01,9.94322e-01,9.99996e-01
1.068499092e+00,9.85553e-01,9.99999e-01,9.99999e-01,9.91074e-01,9.94434e-01,9.99993e-01
1.073841587e+00,9.84162e-01,9.99999e-01,9.99999e-01,9.89574e-01,9.94543e-01,9.99986e-01
1.079210795e+00,9.81320e-01,9.99999e-01,9.99999e-01,9.86632e-01,9.94651e-01,9.99963e-01
1.084606849e+00,9.74631e-01,9.99999e-01,9.99999e-01,9.79852e-01,9.94756e-01,9.99913e-01
1.090029883e+00,9.66112e-01,9.99999e-01,9.99999e-01,9.71277e-01,9.94859e-01,9.99821e-01
1.095480033e+00,9.18642e-01,9.99999e-01,9.99999e-01,9.23592e-01,9.94961e-01,9.99676e-01
1.100957433e+00,8.13059e-01,9.99999e-01,9.99999e-01,8.17581e-01,9.95060e-01,9.99405e-01
1.106462220e+00,5.99701e-01,9.99999e-01,9.99999e-01,6.03227e-01,9.95157e-01,9.98991e-01
1.111994531e+00,3.45666e-01,9.99999e-01,9.99999e-01,3.48245e-01,9.95253e-01,9.97326e-01
1.117554504e+00,1.82325e-01,9.99999e-01,9.99999e-01,1.84956e-01,9.95346e-01,9.90383e-01
1.123142276e+00,2.90998e-01,9.99999e-01,9.99999e-01,2.99107e-01,9.95438e-01,9.77346e-01
1.128757988e+00,4.37934e-01,9.99999e-01,9.99999e-01,4.51717e-01,9.95528e-01,9.73839e-01
1.134401778e+00,2.16852e-01,9.99999e-01,9.99999e-01,2.22772e-01,9.95616e-01,9.77711e-01
1.140073787e+00,6.03507e-01,9.99999e-01,9.99999e-01,6.17125e-01,9.95702e-01,9.82151e-01
1.145774156e+00,3.65328e-01,9.99999e-01,9.99999e-01,3.72971e-01,9.95787e-01,9.83650e-01
1.151503026e+00,3.31742e-01,9.99999e-01,9.99999e-01,3.36191e-01,9.95870e-01,9.90858e-01
1.157260541e+00,3.89553e-01,9.99999e-01,9.99999e-01,3.92212e-01,9.95951e-01,9.97257e-01
1.163046844e+00,4.96346e-01,9.99999e-01,9.99999e-01,4.98711e-01,9.96031e-01,9.99221e-01
1.168862078e+00,6.10987e-01,9.99999e-01,9.99999e-01,6.13619e-01,9.96109e-01,9.99598e-01
1.174706389e+00,7.36456e-01,9.99999e-01,9.99999e-01,7.39668e-01,9.96186e-01,9.99468e-01
1.180579921e+00,8.28155e-01,9.99999e-01,9.99999e-01,8.31931e-01,9.96261e-01,9.99196e-01
1.186482820e+00,8.97074e-01,9.99999e-01,9.99999e-01,9.01116e-01,9.96335e-01,9.99175e-01
1.192415234e+00,9.37081e-01,9.99999e-01,9.99999e-01,9.41040e-01,9.96407e-01,9.99382e-01
1.198377311e+00,9.46229e-01,9.99999e-01,9.99999e-01,9.50126e-01,9.96478e-01,9.99416e-01
1.204369197e+00,9.48967e-01,9.99999e-01,9.99999e-01,9.52756e-01,9.96547e-01,9.99471e-01
1.210391043e+00,9.51211e-01,9.99999e-01,9.99999e-01,9.54747e-01,9.96615e-01,9.99678e-01
1.216442998e+00,9.57954e-01,9.99999e-01,9.99999e-01,9.61331e-01,9.96682e-01,9.99802e-01
1.222525213e+00,9.66497e-01,9.99999e-01,9.99999e-01,9.69769e-01,9.96748e-01,9.99877e-01
1.228637839e+00,9.75743e-01,9.99999e-01,9.99999e-01,9.78918e-01,9.96812e-01,9.99942e-01
