#,Wave/freq,Total,N2,O2,H2O,Rayleigh,CIA
4.000000000e-01,7.66085e-01,9.99999e-01,9.99999e-01,9.99969e-01,7.66108e-01,9.99999e-01
4.020000000e-01,7.70140e-01,9.99999e-01,9.99999e-01,9.99980e-01,7.70155e-01,9.99999e-01
4.040100000e-01,7.74132e-01,9.99999e-01,9.99999e-01,9.99991e-01,7.74138e-01,9.99999e-01
4.060300500e-01,7.78061e-01,9.99999e-01,9.99999e-01,9.99997e-01,7.78062e-01,9.99999e-01
4.080602003e-01,7.81928e-01,9.99999e-01,9.99999e-01,9.99998e-01,7.81929e-01,9.99999e-01
4.101005013e-01,7.85737e-01,9.99999e-01,9.99999e-01,9.99999e-01,7.85737e-01,9.99999e-01
4.121510038e-01,7.89488e-01,9.99999e-01,9.99999e-01,9.99998e-01,7.89489e-01,9.99999e-01
4.142117588e-01,7.93177e-01,9.99999e-01,9.99999e-01,9.99991e-01,7.93183e-01,9.99999e-01
4.162828176e-01,7.96792e-01,9.99999e-01,9.99999e-01,9.99962e-01,7.96822e-01,9.99999e-01
4.183642317e-01,8.00387e-01,9.99999e-01,9.99999e-01,9.99977e-01,8.00404e-01,9.99999e-01
4.204560528e-01,8.03921e-01,9.99999e-01,9.99999e-01,9.99985e-01,8.03932e-01,9.99999e-01
4.225583331e-01,8.07401e-01,9.99999e-01,9.99999e-01,9.99994e-01,8.07405e-01,9.99999e-01
4.246711247e-01,8.10821e-01,9.99999e-01,9.99999e-01,9.99995e-01,8.10824e-01,9.99999e-01
4.267944804e-01,8.14185e-01,9.99999e-01,9.99999e-01,9.99993e-01,8.14190e-01,9.99999e-01
4.289284528e-01,8.17499e-01,9.99999e-01,9.99999e-01,9.99994e-01,8.17502e-01,9.99999e-01
4.310730950e-01,8.20761e-01,9.99999e-01,9.99999e-01,9.99997e-01,8.20763e-01,9.99999e-01
4.332284605e-01,8.23971e-01,9.99999e-01,9.99999e-01,9.99998e-01,8.23971e-01,9.99999e-01
4.353946028e-01,8.27128e-01,9.99999e-01,9.99999e-01,9.99999e-01,8.27128e-01,9.99999e-01
4.375715758e-01,8.30232e-01,9.99999e-01,9.99999e-01,9.99995e-01,8.30235e-01,9.99999e-01
4.397594337e-01,8.33264e-01,9.99999e-01,9.99999e-01,9.99966e-01,8.33292e-01,9.99999e-01
4.419582309e-01,8.36159e-01,9.99999e-01,9.99999e-01,9.99832e-01,8.36299e-01,9.99999e-01
4.441680220e-01,8.39149e-01,9.99999e-01,9.99999e-01,9.99870e-01,8.39257e-01,9.99999e-01
4.463888621e-01,8.42053e-01,9.99999e-01,9.99999e-01,9.99864e-01,8.42167e-01,9.99999e-01
4.486208064e-01,8.44959e-01,9.99999e-01,9.99999e-01,9.99915e-01,8.45029e-01,9.99999e-01
4.508639105e-01,8.47811e-01,9.99999e-01,9.99999e-01,9.99960e-01,8.47845e-01,9.99999e-01
4.531182300e-01,8.50600e-01,9.99999e-01,9.99999e-01,9.99984e-01,8.50613e-01,9.99999e-01
4.553838212e-01,8.53327e-01,9.99999e-01,9.99999e-01,9.99989e-01,8.53336e-01,9.99999e-01
4.576607403e-01,8.56009e-01,9.99999e-01,9.99999e-01,9.99994e-01,8.56014e-01,9.99999e-01
4.599490440e-01,8.58643e-01,9.99999e-01,9.99999e-01,9.99996e-01,8.58646e-01,9.99999e-01
4.622487892e-01,8.61234e-01,9.99999e-01,9.99999e-01,9.99998e-01,8.61235e-01,9.99999e-01
4.645600332e-01,8.63778e-01,9.99999e-01,9.99999e-01,9.99997e-01,8.63780e-01,9.99999e-01
4.668828333e-01,8.66248e-01,9.99999e-01,9.99999e-01,9.99959e-01,8.66282e-01,9.99999e-01
4.692172475e-01,8.68668e-01,9.99999e-01,9.99999e-01,9.99914e-01,8.68742e-01,9.99999e-01
4.715633337e-01,8.71112e-01,9.99999e-01,9.99999e-01,9.99944e-01,8.71160e-01,9.99999e-01
4.739211504e-01,8.73490e-01,9.99999e-01,9.99999e-01,9.99946e-01,8.73536e-01,9.99999e-01
4.762907561e-01,8.75848e-01,9.99999e-01,9.99999e-01,9.99972e-01,8.75872e-01,9.99999e-01
4.786722099e-01,8.78158e-01,9.99999e-01,9.99999e-01,9.99988e-01,8.78168e-01,9.99999e-01
4.810655710e-01,8.80422e-01,9.99999e-01,9.99999e-01,9.99996e-01,8.80425e-01,9.99999e-01
4.834708988e-01,8.82613e-01,9.99999e-01,9.99999e-01,9.99966e-01,8.82642e-01,9.99999e-01
4.858882533e-01,8.84768e-01,9.99999e-01,9.99999e-01,9.99939e-01,8.84821e-01,9.99999e-01
4.883176946e-01,8.86918e-01,9.99999e-01,9.99999e-01,9.99949e-01,8.86963e-01,9.99999e-01
4.907592831e-01,8.89026e-01,9.99999e-01,9.99999e-01,9.99954e-01,8.89067e-01,9.99999e-01
4.932130795e-01,8.91105e-01,9.99999e-01,9.99999e-01,9.99967e-01,8.91134e-01,9.99999e-01
4.956791449e-01,8.93150e-01,9.99999e-01,9.99999e-01,9.99982e-01,8.93165e-01,9.99999e-01
4.981575406e-01,8.95084e-01,9.99999e-01,9.99999e-01,9.99914e-01,8.95160e-01,9.99999e-01
5.006483283e-01,8.96921e-01,9.99999e-01,9.99999e-01,9.99778e-01,8.97121e-01,9.99998e-01
5.031515699e-01,8.98031e-01,9.99999e-01,9.99999e-01,9.98881e-01,8.99047e-01,9.99987e-01
5.056673278e-01,9.00396e-01,9.99999e-01,9.99999e-01,9.99410e-01,9.00939e-01,9.99986e-01
5.081956644e-01,9.02118e-01,9.99999e-01,9.99999e-01,9.99256e-01,9.02797e-01,9.99991e-01
5.107366428e-01,9.04167e-01,9.99999e-01,9.99999e-01,9.99497e-01,9.04622e-01,9.99998e-01
5.132903260e-01,9.06155e-01,9.99999e-01,9.99999e-01,9.99713e-01,9.06415e-01,9.99999e-01
5.158567776e-01,9.08066e-01,9.99999e-01,9.99999e-01,9.99878e-01,9.08176e-01,9.99999e-01
5.184360615e-01,9.09861e-01,9.99999e-01,9.99999e-01,9.99951e-01,9.09905e-01,9.99999e-01
5.210282418e-01,9.11587e-01,9.99999e-01,9.99999e-01,9.99981e-01,9.11604e-01,9.99999e-01
5.236333830e-01,9.13205e-01,9.99999e-01,9.99999e-01,9.99926e-01,9.13272e-01,9.99998e-01
5.262515499e-01,9.14868e-01,9.99999e-01,9.99999e-01,9.99953e-01,9.14910e-01,9.99998e-01
5.288828077e-01,9.16480e-01,9.99999e-01,9.99999e-01,9.99957e-01,9.16518e-01,9.99999e-01
5.315272217e-01,9.18064e-01,9.99999e-01,9.99999e-01,9.99962e-01,9.18098e-01,9.99999e-01
5.341848578e-01,9.19627e-01,9.99999e-01,9.99999e-01,9.99975e-01,9.19649e-01,9.99999e-01
5.368557821e-01,9.21093e-01,9.99999e-01,9.99999e-01,9.99914e-01,9.21172e-01,9.99999e-01
5.395400610e-01,9.22381e-01,9.99999e-01,9.99999e-01,9.99692e-01,9.22667e-01,9.99996e-01
5.422377613e-01,9.23763e-01,9.99999e-01,9.99999e-01,9.99604e-01,9.24135e-01,9.99992e-01
5.449489501e-01,9.25228e-01,9.99999e-01,9.99999e-01,9.99631e-01,9.25576e-01,9.99992e-01
5.476736949e-01,9.26686e-01,9.99999e-01,9.99999e-01,9.99674e-01,9.26991e-01,9.99995e-01
5.504120634e-01,9.28160e-01,9.99999e-01,9.99999e-01,9.99763e-01,9.28380e-01,9.99998e-01
5.531641237e-01,9.29633e-01,9.99999e-01,9.99999e-01,9.99880e-01,9.29744e-01,9.99999e-01
5.559299443e-01,9.31029e-01,9.99999e-01,9.99999e-01,9.99942e-01,9.31083e-01,9.99999e-01
5.587095940e-01,9.32363e-01,9.99999e-01,9.99999e-01,9.99963e-01,9.32397e-01,9.99999e-01
5.615031420e-01,9.33649e-01,9.99999e-01,9.99999e-01,9.99959e-01,9.33687e-01,9.99999e-01
5.643106577e-01,9.34910e-01,9.99999e-01,9.99999e-01,9.99953e-01,9.34953e-01,9.99999e-01
5.671322110e-01,9.35670e-01,9.99999e-01,9.99999e-01,9.99442e-01,9.36196e-01,9.99994e-01
5.699678720e-01,9.36853e-01,9.99999e-01,9.99999e-01,9.99414e-01,9.37416e-01,9.99984e-01
5.728177114e-01,9.38027e-01,9.99999e-01,9.99999e-01,9.99387e-01,9.38613e-01,9.99986e-01
5.756818000e-01,9.39254e-01,9.99999e-01,9.99999e-01,9.99437e-01,9.39789e-01,9.99992e-01
5.785602090e-01,9.40480e-01,9.99999e-01,9.99999e-01,9.99510e-01,9.40942e-01,9.99997e-01
5.814530100e-01,9.41610e-01,9.99999e-01,9.99999e-01,9.99507e-01,9.42074e-01,9.99998e-01
5.843602750e-01,9.42628e-01,9.99999e-01,9.99999e-01,9.99411e-01,9.43185e-01,9.99996e-01
5.872820764e-01,9.39465e-01,9.99999e-01,9.99999e-01,9.94939e-01,9.44276e-01,9.99964e-01
5.902184868e-01,9.39483e-01,9.99999e-01,9.99999e-01,9.93893e-01,9.45346e-01,9.99902e-01
5.931695792e-01,9.42218e-01,9.99999e-01,9.99999e-01,9.95678e-01,9.46396e-01,9.99906e-01
5.961354271e-01,9.42892e-01,9.99999e-01,9.99999e-01,9.95267e-01,9.47426e-01,9.99946e-01
5.991161043e-01,9.45149e-01,9.99999e-01,9.99999e-01,9.96548e-01,9.48437e-01,9.99982e-01
6.021116848e-01,9.47569e-01,9.99999e-01,9.99999e-01,9.98041e-01,9.49430e-01,9.99997e-01
6.051222432e-01,9.49462e-01,9.99999e-01,9.99999e-01,9.99008e-01,9.50403e-01,9.99999e-01
6.081478544e-01,9.50952e-01,9.99999e-01,9.99999e-01,9.99571e-01,9.51359e-01,9.99999e-01
6.111885937e-01,9.52124e-01,9.99999e-01,9.99999e-01,9.99818e-01,9.52296e-01,9.99999e-01
6.142445367e-01,9.53139e-01,9.99999e-01,9.99999e-01,9.99918e-01,9.53216e-01,9.99999e-01
6.173157594e-01,9.54076e-01,9.99999e-01,9.99999e-01,9.99954e-01,9.54119e-01,9.99999e-01
6.204023382e-01,9.54968e-01,9.99999e-01,9.99999e-01,9.99961e-01,9.55004e-01,9.99999e-01
6.235043498e-01,9.55713e-01,9.99999e-01,9.99999e-01,9.99832e-01,9.55873e-01,9.99999e-01
6.266218716e-01,9.55877e-01,9.99999e-01,9.99999e-01,9.99118e-01,9.56725e-01,9.99993e-01
6.297549810e-01,9.57241e-01,9.99999e-01,9.99999e-01,9.99676e-01,9.57562e-01,9.99987e-01
6.329037559e-01,9.57762e-01,9.99999e-01,9.99999e-01,9.99361e-01,9.58382e-01,9.99989e-01
6.360682746e-01,9.58660e-01,9.99999e-01,9.99999e-01,9.99455e-01,9.59187e-01,9.99993e-01
6.392486160e-01,9.59299e-01,9.99999e-01,9.99999e-01,9.99295e-01,9.59977e-01,9.99996e-01
6.424448591e-01,9.59839e-01,9.99999e-01,9.99999e-01,9.99053e-01,9.60752e-01,9.99994e-01
6.456570834e-01,9.57269e-01,9.99999e-01,9.99999e-01,9.95612e-01,9.61512e-01,9.99973e-01
6.488853688e-01,9.59115e-01,9.99999e-01,9.99999e-01,9.96801e-01,9.62258e-01,9.99931e-01
6.521297956e-01,9.59796e-01,9.99999e-01,9.99999e-01,9.96739e-01,9.62989e-01,9.99943e-01
6.553904446e-01,9.60534e-01,9.99999e-01,9.99999e-01,9.96748e-01,9.63707e-01,9.99957e-01
6.586673968e-01,9.61717e-01,9.99999e-01,9.99999e-01,9.97219e-01,9.64411e-01,9.99985e-01
6.619607338e-01,9.63603e-01,9.99999e-01,9.99999e-01,9.98450e-01,9.65101e-01,9.99996e-01
6.652705375e-01,9.64879e-01,9.99999e-01,9.99999e-01,9.99069e-01,9.65779e-01,9.99997e-01
6.685968902e-01,9.66061e-01,9.99999e-01,9.99999e-01,9.99604e-01,9.66443e-01,9.99999e-01
6.719398746e-01,9.66902e-01,9.99999e-01,9.99999e-01,9.99799e-01,9.67095e-01,9.99999e-01
6.752995740e-01,9.67629e-01,9.99999e-01,9.99999e-01,9.99891e-01,9.67734e-01,9.99999e-01
6.786760719e-01,9.68209e-01,9.99999e-01,9.99999e-01,9.99842e-01,9.68361e-01,9.99999e-01
6.820694522e-01,9.68715e-01,9.99999e-01,9.99999e-01,9.99730e-01,9.68977e-01,9.99998e-01
6.854797995e-01,9.69241e-01,9.99999e-01,9.99999e-01,9.99652e-01,9.69580e-01,9.99996e-01
6.889071985e-01,9.69345e-01,9.99999e-01,9.99999e-01,9.99154e-01,9.70172e-01,9.99992e-01
6.923517345e-01,9.57425e-01,9.99999e-01,9.99999e-01,9.86335e-01,9.70752e-01,9.99933e-01
6.958134932e-01,9.64320e-01,9.99999e-01,9.99999e-01,9.92935e-01,9.71322e-01,9.99854e-01
6.992925606e-01,9.65173e-01,9.99999e-01,9.99999e-01,9.93228e-01,9.71880e-01,9.99868e-01
7.027890234e-01,9.64234e-01,9.99999e-01,9.99999e-01,9.91672e-01,9.72428e-01,9.99899e-01
7.063029686e-01,9.66099e-01,9.99999e-01,9.99999e-01,9.92992e-01,9.72965e-01,9.99949e-01
7.098344834e-01,9.66918e-01,9.99999e-01,9.99999e-01,9.93275e-01,9.73492e-01,9.99970e-01
7.133836558e-01,9.65188e-01,9.99999e-01,9.99999e-01,9.91001e-01,9.74008e-01,9.99941e-01
7.169505741e-01,9.05955e-01,9.99999e-01,9.99999e-01,9.30074e-01,9.74515e-01,9.99539e-01
7.205353270e-01,9.40515e-01,9.99999e-01,9.99999e-01,9.65401e-01,9.75012e-01,9.99188e-01
7.241380036e-01,9.31892e-01,9.99999e-01,9.99999e-01,9.55966e-01,9.75500e-01,9.99298e-01
7.277586936e-01,9.36594e-01,9.99999e-01,9.99999e-01,9.60196e-01,9.75978e-01,9.99426e-01
7.313974871e-01,9.35012e-01,9.99999e-01,9.99999e-01,9.57822e-01,9.76447e-01,9.99731e-01
7.350544745e-01,9.54079e-01,9.99999e-01,9.99999e-01,9.76723e-01,9.76906e-01,9.99906e-01
7.387297469e-01,9.60530e-01,9.99999e-01,9.99999e-01,9.82824e-01,9.77357e-01,9.99956e-01
7.424233956e-01,9.69549e-01,9.99999e-01,9.99999e-01,9.91569e-01,9.77800e-01,9.99992e-01
7.461355126e-01,9.73224e-01,9.99999e-01,9.99999e-01,9.94880e-01,9.78233e-01,9.99998e-01
7.498661902e-01,9.76326e-01,9.99999e-01,9.99999e-01,9.97616e-01,9.78659e-01,9.99998e-01
7.536155211e-01,9.77929e-01,9.99999e-01,9.99999e-01,9.98828e-01,9.79076e-01,9.99999e-01
7.573835987e-01,9.78894e-01,9.99999e-01,9.99999e-01,9.99396e-01,9.79485e-01,9.99999e-01
7.611705167e-01,9.79519e-01,9.99999e-01,9.99999e-01,9.99625e-01,9.79886e-01,9.99999e-01
7.649763693e-01,9.80049e-01,9.99999e-01,9.99999e-01,9.99764e-01,9.80279e-01,9.99999e-01
7.688012511e-01,9.80504e-01,9.99999e-01,9.99999e-01,9.99835e-01,9.80665e-01,9.99999e-01
7.726452574e-01,9.80911e-01,9.99999e-01,9.99999e-01,9.99864e-01,9.81043e-01,9.99999e-01
7.765084837e-01,9.81225e-01,9.99999e-01,9.99999e-01,9.99807e-01,9.81414e-01,9.99999e-01
7.803910261e-01,9.80962e-01,9.99999e-01,9.99999e-01,9.99169e-01,9.81778e-01,9.99998e-01
7.842929812e-01,9.79285e-01,9.99999e-01,9.99999e-01,9.97103e-01,9.82134e-01,9.99994e-01
7.882144461e-01,9.76609e-01,9.99999e-01,9.99999e-01,9.94060e-01,9.82484e-01,9.99958e-01
7.921555184e-01,9.79560e-01,9.99999e-01,9.99999e-01,9.96746e-01,9.82827e-01,9.99928e-01
7.961162960e-01,9.77423e-01,9.99999e-01,9.99999e-01,9.94228e-01,9.83163e-01,9.99932e-01
8.000968774e-01,9.76884e-01,9.99999e-01,9.99999e-01,9.93350e-01,9.83493e-01,9.99927e-01
8.040973618e-01,9.77217e-01,9.99999e-01,9.99999e-01,9.93345e-01,9.83817e-01,9.99944e-01
8.081178486e-01,9.69337e-01,9.99999e-01,9.99999e-01,9.85019e-01,9.84134e-01,9.99944e-01
8.121584379e-01,9.24272e-01,9.99999e-01,9.99999e-01,9.39073e-01,9.84445e-01,9.99789e-01
8.162192301e-01,9.13502e-01,9.99999e-01,9.99999e-01,9.28382e-01,9.84750e-01,9.99210e-01
8.203003262e-01,9.48234e-01,9.99999e-01,9.99999e-01,9.63516e-01,9.85048e-01,9.99075e-01
8.244018279e-01,9.35328e-01,9.99999e-01,9.99999e-01,9.49940e-01,9.85342e-01,9.99263e-01
8.285238370e-01,9.42211e-01,9.99999e-01,9.99999e-01,9.56501e-01,9.85629e-01,9.99421e-01
8.326664562e-01,9.42424e-01,9.99999e-01,9.99999e-01,9.56120e-01,9.85911e-01,9.99760e-01
8.368297885e-01,9.55040e-01,9.99999e-01,9.99999e-01,9.68469e-01,9.86187e-01,9.99944e-01
8.410139374e-01,9.67835e-01,9.99999e-01,9.99999e-01,9.81151e-01,9.86458e-01,9.99967e-01
8.452190071e-01,9.77549e-01,9.99999e-01,9.99999e-01,9.90720e-01,9.86724e-01,9.99980e-01
8.494451021e-01,9.81639e-01,9.99999e-01,9.99999e-01,9.94598e-01,9.86984e-01,9.99984e-01
8.536923276e-01,9.84080e-01,9.99999e-01,9.99999e-01,9.96807e-01,9.87240e-01,9.99990e-01
8.579607893e-01,9.85544e-01,9.99999e-01,9.99999e-01,9.98030e-01,9.87490e-01,9.99997e-01
8.622505932e-01,9.86501e-01,9.99999e-01,9.99999e-01,9.98749e-01,9.87736e-01,9.99999e-01
8.665618462e-01,9.87211e-01,9.99999e-01,9.99999e-01,9.99225e-01,9.87977e-01,9.99999e-01
8.708946554e-01,9.87335e-01,9.99999e-01,9.99999e-01,9.99112e-01,9.88213e-01,9.99999e-01
8.752491287e-01,9.87270e-01,9.99999e-01,9.99999e-01,9.98813e-01,9.88444e-01,9.99998e-01
8.796253743e-01,9.87041e-01,9.99999e-01,9.99999e-01,9.98354e-01,9.88671e-01,9.99995e-01
8.840235012e-01,9.87025e-01,9.99999e-01,9.99999e-01,9.98120e-01,9.88894e-01,9.99988e-01
8.884436187e-01,9.82268e-01,9.99999e-01,9.99999e-01,9.93113e-01,9.89112e-01,9.99967e-01
8.928858368e-01,9.20032e-01,9.99999e-01,9.99999e-01,9.30132e-01,9.89326e-01,9.99812e-01
8.973502660e-01,8.70186e-01,9.99999e-01,9.99999e-01,8.80233e-01,9.89535e-01,9.99039e-01
9.018370173e-01,9.26137e-01,9.99999e-01,9.99999e-01,9.37151e-01,9.89741e-01,9.98489e-01
9.063462024e-01,9.33363e-01,9.99999e-01,9.99999e-01,9.44097e-01,9.89943e-01,9.98673e-01
9.108779334e-01,9.04109e-01,9.99999e-01,9.99999e-01,9.14372e-01,9.90140e-01,9.98621e-01
9.154323231e-01,8.93583e-01,9.99999e-01,9.99999e-01,9.03333e-01,9.90334e-01,9.98860e-01
9.200094847e-01,9.14250e-01,9.99999e-01,9.99999e-01,9.23584e-01,9.90524e-01,9.99361e-01
9.246095321e-01,8.74204e-01,9.99999e-01,9.99999e-01,8.83049e-01,9.90710e-01,9.99264e-01
9.292325798e-01,4.36798e-01,9.99999e-01,9.99999e-01,4.42077e-01,9.90893e-01,9.97136e-01
9.338787427e-01,3.44156e-01,9.99999e-01,9.99999e-01,3.51396e-01,9.91072e-01,9.88218e-01
9.385481364e-01,6.40139e-01,9.99999e-01,9.99999e-01,6.54957e-01,9.91248e-01,9.86003e-01
9.432408771e-01,5.46481e-01,9.99999e-01,9.99999e-01,5.57954e-01,9.91420e-01,9.87913e-01
9.479570815e-01,4.41592e-01,9.99999e-01,9.99999e-01,4.49766e-01,9.91588e-01,9.90151e-01
9.526968669e-01,5.37996e-01,9.99999e-01,9.99999e-01,5.45753e-01,9.91754e-01,9.93981e-01
9.574603512e-01,5.61493e-01,9.99999e-01,9.99999e-01,5.67807e-01,9.91916e-01,9.96938e-01
9.622476530e-01,6.23447e-01,9.99999e-01,9.99999e-01,6.29761e-01,9.92075e-01,9.97881e-01
9.670588912e-01,7.58335e-01,9.99999e-01,9.99999e-01,7.65381e-01,9.92231e-01,9.98550e-01
9.718941857e-01,8.37782e-01,9.99999e-01,9.99999e-01,8.45113e-01,9.92384e-01,9.98932e-01
9.767536566e-01,8.62364e-01,9.99999e-01,9.99999e-01,8.69559e-01,9.92534e-01,9.99184e-01
9.816374249e-01,8.94759e-01,9.99999e-01,9.99999e-01,9.01610e-01,9.92681e-01,9.99717e-01
9.865456120e-01,9.30537e-01,9.99999e-01,9.99999e-01,9.37316e-01,9.92825e-01,9.99940e-01
9.914783401e-01,9.53983e-01,9.99999e-01,9.99999e-01,9.60756e-01,9.92966e-01,9.99983e-01
9.964357318e-01,9.71684e-01,9.99999e-01,9.99999e-01,9.78439e-01,9.93104e-01,9.99989e-01
1.001417910e+00,9.80338e-01,9.99999e-01,9.99999e-01,9.87024e-01,9.93240e-01,9.99984e-01
1.006425000e+00,9.85980e-01,9.99999e-01,9.99999e-01,9.92577e-01,9.93373e-01,9.99978e-01
1.011457125e+00,9.88907e-01,9.99999e-01,9.99999e-01,9.95392e-01,9.93504e-01,9.99980e-01
1.016514411e+00,9.90506e-01,9.99999e-01,9.99999e-01,9.96867e-01,9.93631e-01,9.99985e-01
1.021596983e+00,9.91262e-01,9.99999e-01,9.99999e-01,9.97502e-01,9.93757e-01,9.99986e-01
1.026704968e+00,9.91936e-01,9.99999e-01,9.99999e-01,9.98051e-01,9.93880e-01,9.99991e-01
1.031838492e+00,9.92592e-01,9.99999e-01,9.99999e-01,9.98584e-01,9.94000e-01,9.99996e-01
1.036997685e+00,9.93282e-01,9.99999e-01,9.99999e-01,9.99158e-01,9.94118e-01,9.99999e-01
1.042182673e+00,9.93235e-01,9.99999e-01,9.99999e-01,9.98995e-01,9.94234e-01,9.99999e-01
1.047393587e+00,9.93024e-01,9.99999e-01,9.99999e-01,9.98668e-01,9.94348e-01,9.99999e-01
1.052630555e+00,9.92642e-01,9.99999e-01,9.99999e-01,9.98172e-01,9.94459e-01,9.99999e-01
1.057893707e+00,9.91533e-01,9.99999e-01,9.99999e-01,9.96948e-01,9.94568e-01,9.99998e-01
1.063183176e+00,9.89685e-01,9.99999e-01,9.99999e-01,9.94985e-01,9.94675e-01,9.99996e-01
1.068499092e+00,9.86439e-01,9.99999e-01,9.99999e-01,9.91619e-01,9.94780e-01,9.99993e-01
1.073841587e+00,9.85113e-01,9.99999e-01,9.99999e-01,9.90191e-01,9.94883e-01,9.99987e-01
1.079210795e+00,9.82477e-01,9.99999e-01,9.99999e-01,9.87463e-01,9.94984e-01,9.99965e-01
1.084606849e+00,9.76166e-01,9.99999e-01,9.99999e-01,9.81068e-01,9.95082e-01,9.99918e-01
1.090029883e+00,9.68006e-01,9.99999e-01,9.99999e-01,9.72857e-01,9.95179e-01,9.99832e-01
1.095480033e+00,9.23160e-01,9.99999e-01,9.99999e-01,9.27824e-01,9.95274e-01,9.99696e-01
1.100957433e+00,8.22720e-01,9.99999e-01,9.99999e-01,8.27009e-01,9.95367e-01,9.99442e-01
1.106462220e+00,6.16463e-01,9.99999e-01,9.99999e-01,6.19861e-01,9.95459e-01,9.99054e-01
1.111994531e+00,3.67373e-01,9.99999e-01,9.99999e-01,3.69942e-01,9.95548e-01,9.97493e-01
1.117554504e+00,2.00856e-01,9.99999e-01,9.99999e-01,2.03573e-01,9.95636e-01,9.90979e-01
1.123142276e+00,3.12432e-01,9.99999e-01,9.99999e-01,3.20589e-01,9.95722e-01,9.78741e-01
1.128757988e+00,4.59126e-01,9.99999e-01,9.99999e-01,4.72663e-01,9.95806e-01,9.75448e-01
1.134401778e+00,2.33818e-01,9.99999e-01,9.99999e-01,2.39798e-01,9.95889e-01,9.79084e-01
1.140073787e+00,6.21396e-01,9.99999e-01,9.99999e-01,6.34536e-01,9.95970e-01,9.83253e-01
1.145774156e+00,3.87314e-01,9.99999e-01,9.99999e-01,3.94907e-01,9.96049e-01,9.84660e-01
1.151503026e+00,3.53016e-01,9.99999e-01,9.99999e-01,3.57453e-01,9.96127e-01,9.91424e-01
1.157260541e+00,4.12206e-01,9.99999e-01,9.99999e-01,4.14844e-01,9.96204e-01,9.97428e-01
1.163046844e+00,5.18520e-01,9.99999e-01,9.99999e-01,5.20836e-01,9.96278e-01,9.99270e-01
1.168862078e+00,6.30522e-01,9.99999e-01,9.99999e-01,6.33068e-01,9.96352e-01,9.99623e-01
1.174706389e+00,7.50939e-01,9.99999e-01,9.99999e-01,7.54010e-01,9.96424e-01,9.99501e-01
1.180579921e+00,8.38263e-01,9.99999e-01,9.99999e-01,8.41846e-01,9.96494e-01,9.99246e-01
1.186482820e+00,9.03313e-01,9.99999e-01,9.99999e-01,9.07128e-01,9.96563e-01,9.99226e-01
1.192415234e+00,9.40934e-01,9.99999e-01,9.99999e-01,9.44661e-01,9.96631e-01,9.99420e-01
1.198377311e+00,9.49457e-01,9.99999e-01,9.99999e-01,9.53123e-01,9.96697e-01,9.99452e-01
1.204369197e+00,9.52066e-01,9.99999e-01,9.99999e-01,9.55630e-01,9.96763e-01,9.99504e-01
1.210391043e+00,9.54190e-01,9.99999e-01,9.99999e-01,9.57515e-01,9.96826e-01,9.99698e-01
1.216442998e+00,9.60601e-01,9.99999e-01,9.99999e-01,9.63776e-01,9.96889e-01,9.99815e-01
1.222525213e+00,9.68594e-01,9.99999e-01,9.99999e-01,9.71667e-01,9.96950e-01,9.99884e-01
1.228637839e+00,9.77254e-01,9.99999e-01,9.99999e-01,9.80236e-01,9.97010e-01,9.99946e-01
