#,Wave/freq,Total,N2,O2,H2O,Rayleigh,CIA
4.000000000e-01,5.57145e-01,9.99999e-01,9.99999e-01,9.99933e-01,5.57182e-01,9.99999e-01
4.020000000e-01,5.63639e-01,9.99999e-01,9.99999e-01,9.99958e-01,5.63662e-01,9.99999e-01
4.040100000e-01,5.70072e-01,9.99999e-01,9.99999e-01,9.99982e-01,5.70082e-01,9.99999e-01
4.060300500e-01,5.76443e-01,9.99999e-01,9.99999e-01,9.99995e-01,5.76445e-01,9.99999e-01
4.080602003e-01,5.82751e-01,9.99999e-01,9.99999e-01,9.99998e-01,5.82752e-01,9.99999e-01
4.101005013e-01,5.89001e-01,9.99999e-01,9.99999e-01,9.99999e-01,5.89001e-01,9.99999e-01
4.121510038e-01,5.95190e-01,9.99999e-01,9.99999e-01,9.99997e-01,5.95191e-01,9.99999e-01
4.142117588e-01,6.01312e-01,9.99999e-01,9.99999e-01,9.99981e-01,6.01323e-01,9.99999e-01
4.162828176e-01,6.07345e-01,9.99999e-01,9.99999e-01,9.99917e-01,6.07394e-01,9.99999e-01
4.183642317e-01,6.13376e-01,9.99999e-01,9.99999e-01,9.99950e-01,6.13406e-01,9.99999e-01
4.204560528e-01,6.19337e-01,9.99999e-01,9.99999e-01,9.99969e-01,6.19356e-01,9.99999e-01
4.225583331e-01,6.25238e-01,9.99999e-01,9.99999e-01,9.99988e-01,6.25245e-01,9.99999e-01
4.246711247e-01,6.31066e-01,9.99999e-01,9.99999e-01,9.99990e-01,6.31071e-01,9.99999e-01
4.267944804e-01,6.36827e-01,9.99999e-01,9.99999e-01,9.99986e-01,6.36836e-01,9.99999e-01
4.289284528e-01,6.42531e-01,9.99999e-01,9.99999e-01,9.99989e-01,6.42537e-01,9.99999e-01
4.310730950e-01,6.48173e-01,9.99999e-01,9.99999e-01,9.99995e-01,6.48176e-01,9.99999e-01
4.332284605e-01,6.53750e-01,9.99999e-01,9.99999e-01,9.99998e-01,6.53751e-01,9.99999e-01
4.353946028e-01,6.59262e-01,9.99999e-01,9.99999e-01,9.99999e-01,6.59263e-01,9.99999e-01
4.375715758e-01,6.64705e-01,9.99999e-01,9.99999e-01,9.99991e-01,6.64710e-01,9.99999e-01
4.397594337e-01,6.70046e-01,9.99999e-01,9.99999e-01,9.99928e-01,6.70094e-01,9.99999e-01
4.419582309e-01,6.75169e-01,9.99999e-01,9.99999e-01,9.99636e-01,6.75414e-01,9.99999e-01
4.441680220e-01,6.80476e-01,9.99999e-01,9.99999e-01,9.99714e-01,6.80670e-01,9.99999e-01
4.463888621e-01,6.85659e-01,9.99999e-01,9.99999e-01,9.99703e-01,6.85862e-01,9.99999e-01
4.486208064e-01,6.90862e-01,9.99999e-01,9.99999e-01,9.99815e-01,6.90989e-01,9.99999e-01
4.508639105e-01,6.95993e-01,9.99999e-01,9.99999e-01,9.99913e-01,6.96053e-01,9.99999e-01
4.531182300e-01,7.01028e-01,9.99999e-01,9.99999e-01,9.99965e-01,7.01052e-01,9.99999e-01
4.553838212e-01,7.05971e-01,9.99999e-01,9.99999e-01,9.99976e-01,7.05988e-01,9.99999e-01
4.576607403e-01,7.10852e-01,9.99999e-01,9.99999e-01,9.99988e-01,7.10859e-01,9.99999e-01
4.599490440e-01,7.15662e-01,9.99999e-01,9.99999e-01,9.99991e-01,7.15667e-01,9.99999e-01
4.622487892e-01,7.20411e-01,9.99999e-01,9.99999e-01,9.99998e-01,7.20412e-01,9.99999e-01
4.645600332e-01,7.25090e-01,9.99999e-01,9.99999e-01,9.99994e-01,7.25094e-01,9.99999e-01
4.668828333e-01,7.29649e-01,9.99999e-01,9.99999e-01,9.99912e-01,7.29712e-01,9.99999e-01
4.692172475e-01,7.34132e-01,9.99999e-01,9.99999e-01,9.99813e-01,7.34268e-01,9.99999e-01
4.715633337e-01,7.38672e-01,9.99999e-01,9.99999e-01,9.99878e-01,7.38762e-01,9.99999e-01
4.739211504e-01,7.43107e-01,9.99999e-01,9.99999e-01,9.99883e-01,7.43193e-01,9.99999e-01
4.762907561e-01,7.47518e-01,9.99999e-01,9.99999e-01,9.99939e-01,7.47563e-01,9.99999e-01
4.786722099e-01,7.51853e-01,9.99999e-01,9.99999e-01,9.99974e-01,7.51872e-01,9.99999e-01
4.810655710e-01,7.56113e-01,9.99999e-01,9.99999e-01,9.99992e-01,7.56119e-01,9.99999e-01
4.834708988e-01,7.60252e-01,9.99999e-01,9.99999e-01,9.99928e-01,7.60306e-01,9.99999e-01
4.858882533e-01,7.64332e-01,9.99999e-01,9.99999e-01,9.99868e-01,7.64432e-01,9.99999e-01
4.883176946e-01,7.68415e-01,9.99999e-01,9.99999e-01,9.99889e-01,7.68499e-01,9.99999e-01
4.907592831e-01,7.72430e-01,9.99999e-01,9.99999e-01,9.99900e-01,7.72507e-01,9.99999e-01
4.932130795e-01,7.76400e-01,9.99999e-01,9.99999e-01,9.99928e-01,7.76455e-01,9.99999e-01
4.956791449e-01,7.80316e-01,9.99999e-01,9.99999e-01,9.99962e-01,7.80345e-01,9.99999e-01
4.981575406e-01,7.84031e-01,9.99999e-01,9.99999e-01,9.99813e-01,7.84178e-01,9.99999e-01
5.006483283e-01,7.87570e-01,9.99999e-01,9.99999e-01,9.99517e-01,7.87952e-01,9.99996e-01
5.031515699e-01,7.89711e-01,9.99999e-01,9.99999e-01,9.97550e-01,7.91670e-01,9.99973e-01
5.056673278e-01,7.94279e-01,9.99999e-01,9.99999e-01,9.98705e-01,7.95332e-01,9.99970e-01
5.081956644e-01,7.97618e-01,9.99999e-01,9.99999e-01,9.98366e-01,7.98937e-01,9.99980e-01
5.107366428e-01,8.01600e-01,9.99999e-01,9.99999e-01,9.98896e-01,8.02488e-01,9.99995e-01
5.132903260e-01,8.05475e-01,9.99999e-01,9.99999e-01,9.99369e-01,8.05983e-01,9.99999e-01
5.158567776e-01,8.09209e-01,9.99999e-01,9.99999e-01,9.99733e-01,8.09424e-01,9.99999e-01
5.184360615e-01,8.12725e-01,9.99999e-01,9.99999e-01,9.99892e-01,8.12812e-01,9.99999e-01
5.210282418e-01,8.16114e-01,9.99999e-01,9.99999e-01,9.99959e-01,8.16146e-01,9.99999e-01
5.236333830e-01,8.19296e-01,9.99999e-01,9.99999e-01,9.99839e-01,8.19428e-01,9.99998e-01
5.262515499e-01,8.22574e-01,9.99999e-01,9.99999e-01,9.99899e-01,8.22658e-01,9.99997e-01
5.288828077e-01,8.25759e-01,9.99999e-01,9.99999e-01,9.99907e-01,8.25836e-01,9.99998e-01
5.315272217e-01,8.28896e-01,9.99999e-01,9.99999e-01,9.99918e-01,8.28963e-01,9.99999e-01
5.341848578e-01,8.31996e-01,9.99999e-01,9.99999e-01,9.99946e-01,8.32040e-01,9.99999e-01
5.368557821e-01,8.34912e-01,9.99999e-01,9.99999e-01,9.99813e-01,8.35068e-01,9.99999e-01
5.395400610e-01,8.37480e-01,9.99999e-01,9.99999e-01,9.99329e-01,8.38046e-01,9.99993e-01
5.422377613e-01,8.40232e-01,9.99999e-01,9.99999e-01,9.99131e-01,8.40976e-01,9.99983e-01
5.449489501e-01,8.43164e-01,9.99999e-01,9.99999e-01,9.99193e-01,8.43858e-01,9.99983e-01
5.476736949e-01,8.46080e-01,9.99999e-01,9.99999e-01,9.99284e-01,8.46692e-01,9.99991e-01
5.504120634e-01,8.49037e-01,9.99999e-01,9.99999e-01,9.99480e-01,8.49480e-01,9.99997e-01
5.531641237e-01,8.51999e-01,9.99999e-01,9.99999e-01,9.99738e-01,8.52222e-01,9.99999e-01
5.559299443e-01,8.54810e-01,9.99999e-01,9.99999e-01,9.99873e-01,8.54918e-01,9.99999e-01
5.587095940e-01,8.57501e-01,9.99999e-01,9.99999e-01,9.99920e-01,8.57569e-01,9.99999e-01
5.615031420e-01,8.60100e-01,9.99999e-01,9.99999e-01,9.99911e-01,8.60175e-01,9.99999e-01
5.643106577e-01,8.62652e-01,9.99999e-01,9.99999e-01,9.99900e-01,8.62738e-01,9.99998e-01
5.671322110e-01,8.64205e-01,9.99999e-01,9.99999e-01,9.98792e-01,8.65258e-01,9.99988e-01
5.699678720e-01,8.66586e-01,9.99999e-01,9.99999e-01,9.98707e-01,8.67735e-01,9.99966e-01
5.728177114e-01,8.68979e-01,9.99999e-01,9.99999e-01,9.98657e-01,8.70170e-01,9.99972e-01
5.756818000e-01,8.71474e-01,9.99999e-01,9.99999e-01,9.98767e-01,8.72564e-01,9.99982e-01
5.785602090e-01,8.73972e-01,9.99999e-01,9.99999e-01,9.98924e-01,8.74916e-01,9.99994e-01
5.814530100e-01,8.76281e-01,9.99999e-01,9.99999e-01,9.98920e-01,8.77229e-01,9.99997e-01
5.843602750e-01,8.78366e-01,9.99999e-01,9.99999e-01,9.98716e-01,8.79501e-01,9.99992e-01
5.872820764e-01,8.71962e-01,9.99999e-01,9.99999e-01,9.88992e-01,8.81735e-01,9.99921e-01
5.902184868e-01,8.71930e-01,9.99999e-01,9.99999e-01,9.86633e-01,8.83930e-01,9.99787e-01
5.931695792e-01,8.77538e-01,9.99999e-01,9.99999e-01,9.90554e-01,8.86086e-01,9.99795e-01
5.961354271e-01,8.78900e-01,9.99999e-01,9.99999e-01,9.89639e-01,8.88206e-01,9.99882e-01
5.991161043e-01,8.83517e-01,9.99999e-01,9.99999e-01,9.92430e-01,8.90288e-01,9.99963e-01
6.021116848e-01,8.88491e-01,9.99999e-01,9.99999e-01,9.95697e-01,8.92334e-01,9.99995e-01
6.051222432e-01,8.92395e-01,9.99999e-01,9.99999e-01,9.97820e-01,8.94344e-01,9.99999e-01
6.081478544e-01,8.95476e-01,9.99999e-01,9.99999e-01,9.99059e-01,8.96319e-01,9.99999e-01
6.111885937e-01,8.97901e-01,9.99999e-01,9.99999e-01,9.99601e-01,8.98259e-01,9.99999e-01
6.142445367e-01,9.00005e-01,9.99999e-01,9.99999e-01,9.99821e-01,9.00164e-01,9.99999e-01
6.173157594e-01,9.01948e-01,9.99999e-01,9.99999e-01,9.99901e-01,9.02036e-01,9.99999e-01
6.204023382e-01,9.03800e-01,9.99999e-01,9.99999e-01,9.99916e-01,9.03875e-01,9.99999e-01
6.235043498e-01,9.05351e-01,9.99999e-01,9.99999e-01,9.99636e-01,9.05681e-01,9.99998e-01
6.266218716e-01,9.05691e-01,9.99999e-01,9.99999e-01,9.98068e-01,9.07455e-01,9.99985e-01
6.297549810e-01,9.08529e-01,9.99999e-01,9.99999e-01,9.99291e-01,9.09198e-01,9.99972e-01
6.329037559e-01,9.09613e-01,9.99999e-01,9.99999e-01,9.98598e-01,9.10909e-01,9.99977e-01
6.360682746e-01,9.11490e-01,9.99999e-01,9.99999e-01,9.98807e-01,9.12589e-01,9.99986e-01
6.392486160e-01,9.12822e-01,9.99999e-01,9.99999e-01,9.98454e-01,9.14240e-01,9.99993e-01
6.424448591e-01,9.13963e-01,9.99999e-01,9.99999e-01,9.97936e-01,9.15860e-01,9.99990e-01
6.456570834e-01,9.08644e-01,9.99999e-01,9.99999e-01,9.90452e-01,9.17452e-01,9.99946e-01
6.488853688e-01,9.12433e-01,9.99999e-01,9.99999e-01,9.92985e-01,9.19014e-01,9.99850e-01
6.521297956e-01,9.13857e-01,9.99999e-01,9.99999e-01,9.92852e-01,9.20549e-01,9.99876e-01
6.553904446e-01,9.15413e-01,9.99999e-01,9.99999e-01,9.92886e-01,9.22055e-01,9.99908e-01
6.586673968e-01,9.17874e-01,9.99999e-01,9.99999e-01,9.93901e-01,9.23534e-01,9.99968e-01
6.619607338e-01,9.21715e-01,9.99999e-01,9.99999e-01,9.96469e-01,9.24986e-01,9.99992e-01
6.652705375e-01,9.24515e-01,9.99999e-01,9.99999e-01,9.97954e-01,9.26412e-01,9.99996e-01
6.685968902e-01,9.26930e-01,9.99999e-01,9.99999e-01,9.99049e-01,9.27812e-01,9.99998e-01
6.719398746e-01,9.28777e-01,9.99999e-01,9.99999e-01,9.99559e-01,9.29186e-01,9.99999e-01
6.752995740e-01,9.30313e-01,9.99999e-01,9.99999e-01,9.99761e-01,9.30535e-01,9.99999e-01
6.786760719e-01,9.31539e-01,9.99999e-01,9.99999e-01,9.99655e-01,9.31859e-01,9.99999e-01
6.820694522e-01,9.32607e-01,9.99999e-01,9.99999e-01,9.99410e-01,9.33159e-01,9.99996e-01
6.854797995e-01,9.33720e-01,9.99999e-01,9.99999e-01,9.99240e-01,9.34435e-01,9.99992e-01
6.889071985e-01,9.33959e-01,9.99999e-01,9.99999e-01,9.98168e-01,9.35688e-01,9.99983e-01
6.923517345e-01,9.09089e-01,9.99999e-01,9.99999e-01,9.70437e-01,9.36917e-01,9.99855e-01
6.958134932e-01,9.23245e-01,9.99999e-01,9.99999e-01,9.84459e-01,9.38124e-01,9.99674e-01
6.992925606e-01,9.25211e-01,9.99999e-01,9.99999e-01,9.85272e-01,9.39308e-01,9.99713e-01
7.027890234e-01,9.23163e-01,9.99999e-01,9.99999e-01,9.81811e-01,9.40470e-01,9.99780e-01
7.063029686e-01,9.27088e-01,9.99999e-01,9.99999e-01,9.84683e-01,9.41611e-01,9.99890e-01
7.098344834e-01,9.28811e-01,9.99999e-01,9.99999e-01,9.85297e-01,9.42731e-01,9.99934e-01
7.133836558e-01,9.25341e-01,9.99999e-01,9.99999e-01,9.80536e-01,9.43830e-01,9.99871e-01
7.169505741e-01,8.07093e-01,9.99999e-01,9.99999e-01,8.55011e-01,9.44908e-01,9.98990e-01
7.205353270e-01,8.74088e-01,9.99999e-01,9.99999e-01,9.25663e-01,9.45966e-01,9.98219e-01
7.241380036e-01,8.57309e-01,9.99999e-01,9.99999e-01,9.06677e-01,9.47005e-01,9.98462e-01
7.277586936e-01,8.66728e-01,9.99999e-01,9.99999e-01,9.15396e-01,9.48024e-01,9.98742e-01
7.313974871e-01,8.63003e-01,9.99999e-01,9.99999e-01,9.09894e-01,9.49024e-01,9.99410e-01
7.350544745e-01,9.02013e-01,9.99999e-01,9.99999e-01,9.49676e-01,9.50005e-01,9.99794e-01
7.387297469e-01,9.15373e-01,9.99999e-01,9.99999e-01,9.62659e-01,9.50968e-01,9.99905e-01
7.424233956e-01,9.34321e-01,9.99999e-01,9.99999e-01,9.81536e-01,9.51913e-01,9.99981e-01
7.461355126e-01,9.42140e-01,9.99999e-01,9.99999e-01,9.88772e-01,9.52840e-01,9.99996e-01
7.498661902e-01,9.48746e-01,9.99999e-01,9.99999e-01,9.94754e-01,9.53749e-01,9.99998e-01
7.536155211e-01,9.52184e-01,9.99999e-01,9.99999e-01,9.97425e-01,9.54642e-01,9.99998e-01
7.573835987e-01,9.54251e-01,9.99999e-01,9.99999e-01,9.98674e-01,9.55518e-01,9.99999e-01
7.611705167e-01,9.55589e-01,9.99999e-01,9.99999e-01,9.99175e-01,9.56377e-01,9.99999e-01
7.649763693e-01,9.56726e-01,9.99999e-01,9.99999e-01,9.99483e-01,9.57220e-01,9.99999e-01
7.688012511e-01,9.57703e-01,9.99999e-01,9.99999e-01,9.99640e-01,9.58047e-01,9.99999e-01
7.726452574e-01,9.58575e-01,9.99999e-01,9.99999e-01,9.99704e-01,9.58858e-01,9.99999e-01
7.765084837e-01,9.59251e-01,9.99999e-01,9.99999e-01,9.99580e-01,9.59654e-01,9.99999e-01
7.803910261e-01,9.58694e-01,9.99999e-01,9.99999e-01,9.98188e-01,9.60435e-01,9.99997e-01
7.842929812e-01,9.55126e-01,9.99999e-01,9.99999e-01,9.93691e-01,9.61201e-01,9.99987e-01
7.882144461e-01,9.49386e-01,9.99999e-01,9.99999e-01,9.87014e-01,9.61953e-01,9.99919e-01
7.921555184e-01,9.55663e-01,9.99999e-01,9.99999e-01,9.92853e-01,9.62690e-01,9.99845e-01
7.961162960e-01,9.51168e-01,9.99999e-01,9.99999e-01,9.87435e-01,9.63413e-01,9.99851e-01
8.000968774e-01,9.49965e-01,9.99999e-01,9.99999e-01,9.85469e-01,9.64123e-01,9.99842e-01
8.040973618e-01,9.50685e-01,9.99999e-01,9.99999e-01,9.85473e-01,9.64819e-01,9.99874e-01
8.081178486e-01,9.34164e-01,9.99999e-01,9.99999e-01,9.67655e-01,9.65502e-01,9.99882e-01
8.121584379e-01,8.42610e-01,9.99999e-01,9.99999e-01,8.72514e-01,9.66171e-01,9.99538e-01
8.162192301e-01,8.20835e-01,9.99999e-01,9.99999e-01,8.50470e-01,9.66828e-01,9.98267e-01
8.203003262e-01,8.92104e-01,9.99999e-01,9.99999e-01,9.23970e-01,9.67473e-01,9.97972e-01
8.244018279e-01,8.65653e-01,9.99999e-01,9.99999e-01,8.95617e-01,9.68105e-01,9.98385e-01
8.285238370e-01,8.78127e-01,9.99999e-01,9.99999e-01,9.07627e-01,9.68725e-01,9.98731e-01
8.326664562e-01,8.78452e-01,9.99999e-01,9.99999e-01,9.06718e-01,9.69333e-01,9.99475e-01
8.368297885e-01,9.03996e-01,9.99999e-01,9.99999e-01,9.32132e-01,9.69930e-01,9.99879e-01
8.410139374e-01,9.30718e-01,9.99999e-01,9.99999e-01,9.59061e-01,9.70515e-01,9.99929e-01
8.452190071e-01,9.51331e-01,9.99999e-01,9.99999e-01,9.79694e-01,9.71089e-01,9.99957e-01
8.494451021e-01,9.60131e-01,9.99999e-01,9.99999e-01,9.88176e-01,9.71652e-01,9.99965e-01
8.536923276e-01,9.65367e-01,9.99999e-01,9.99999e-01,9.92987e-01,9.72204e-01,9.99979e-01
8.579607893e-01,9.68538e-01,9.99999e-01,9.99999e-01,9.95679e-01,9.72745e-01,9.99994e-01
8.622505932e-01,9.70601e-01,9.99999e-01,9.99999e-01,9.97251e-01,9.73276e-01,9.99998e-01
8.665618462e-01,9.72142e-01,9.99999e-01,9.99999e-01,9.98300e-01,9.73797e-01,9.99999e-01
8.708946554e-01,9.72413e-01,9.99999e-01,9.99999e-01,9.98055e-01,9.74308e-01,9.99998e-01
8.752491287e-01,9.72271e-01,9.99999e-01,9.99999e-01,9.97398e-01,9.74809e-01,9.99996e-01
8.796253743e-01,9.71784e-01,9.99999e-01,9.99999e-01,9.96401e-01,9.75300e-01,9.99991e-01
8.840235012e-01,9.71748e-01,9.99999e-01,9.99999e-01,9.95890e-01,9.75782e-01,9.99974e-01
8.884436187e-01,9.61731e-01,9.99999e-01,9.99999e-01,9.85192e-01,9.76255e-01,9.99928e-01
8.928858368e-01,8.35074e-01,9.99999e-01,9.99999e-01,8.55330e-01,9.76718e-01,9.99588e-01
8.973502660e-01,7.40022e-01,9.99999e-01,9.99999e-01,7.58907e-01,9.77173e-01,9.97893e-01
9.018370173e-01,8.46239e-01,9.99999e-01,9.99999e-01,8.68486e-01,9.77619e-01,9.96689e-01
9.063462024e-01,8.61398e-01,9.99999e-01,9.99999e-01,8.83293e-01,9.78056e-01,9.97091e-01
9.108779334e-01,8.03836e-01,9.99999e-01,9.99999e-01,8.24000e-01,9.78485e-01,9.96978e-01
9.154323231e-01,7.83055e-01,9.99999e-01,9.99999e-01,8.01932e-01,9.78905e-01,9.97501e-01
9.200094847e-01,8.23054e-01,9.99999e-01,9.99999e-01,8.41612e-01,9.79317e-01,9.98600e-01
9.246095321e-01,7.54222e-01,9.99999e-01,9.99999e-01,7.71075e-01,9.79722e-01,9.98387e-01
9.292325798e-01,1.89681e-01,9.99999e-01,9.99999e-01,1.94749e-01,9.80118e-01,9.93728e-01
9.338787427e-01,1.14484e-01,9.99999e-01,9.99999e-01,1.19836e-01,9.80507e-01,9.74330e-01
9.385481364e-01,4.00517e-01,9.99999e-01,9.99999e-01,4.21147e-01,9.80888e-01,9.69544e-01
9.432408771e-01,3.01276e-01,9.99999e-01,9.99999e-01,3.15331e-01,9.81262e-01,9.73669e-01
9.479570815e-01,1.94233e-01,9.99999e-01,9.99999e-01,2.02211e-01,9.81629e-01,9.78517e-01
9.526968669e-01,2.80548e-01,9.99999e-01,9.99999e-01,2.89503e-01,9.81989e-01,9.86841e-01
9.574603512e-01,2.99205e-01,9.99999e-01,9.99999e-01,3.06639e-01,9.82341e-01,9.93294e-01
9.622476530e-01,3.67308e-01,9.99999e-01,9.99999e-01,3.75522e-01,9.82687e-01,9.95358e-01
9.670588912e-01,5.54200e-01,9.99999e-01,9.99999e-01,5.65565e-01,9.83026e-01,9.96822e-01
9.718941857e-01,6.80730e-01,9.99999e-01,9.99999e-01,6.93873e-01,9.83358e-01,9.97660e-01
9.767536566e-01,7.24624e-01,9.99999e-01,9.99999e-01,7.37962e-01,9.83684e-01,9.98211e-01
9.816374249e-01,7.84140e-01,9.99999e-01,9.99999e-01,7.97380e-01,9.84004e-01,9.99380e-01
9.865456120e-01,8.53990e-01,9.99999e-01,9.99999e-01,8.67708e-01,9.84317e-01,9.99870e-01
9.914783401e-01,9.01751e-01,9.99999e-01,9.99999e-01,9.15863e-01,9.84625e-01,9.99963e-01
9.964357318e-01,9.38868e-01,9.99999e-01,9.99999e-01,9.53256e-01,9.84926e-01,9.99978e-01
1.001417910e+00,9.57312e-01,9.99999e-01,9.99999e-01,9.71701e-01,9.85222e-01,9.99967e-01
1.006425000e+00,9.69477e-01,9.99999e-01,9.99999e-01,9.83773e-01,9.85511e-01,9.99954e-01
1.011457125e+00,9.75793e-01,9.99999e-01,9.99999e-01,9.89894e-01,9.85796e-01,9.99957e-01
1.016514411e+00,9.79271e-01,9.99999e-01,9.99999e-01,9.93130e-01,9.86074e-01,9.99969e-01
1.021596983e+00,9.80916e-01,9.99999e-01,9.99999e-01,9.94523e-01,9.86347e-01,9.99969e-01
1.026704968e+00,9.82380e-01,9.99999e-01,9.99999e-01,9.95726e-01,9.86615e-01,9.99979e-01
1.031838492e+00,9.83805e-01,9.99999e-01,9.99999e-01,9.96891e-01,9.86878e-01,9.99993e-01
1.036997685e+00,9.85312e-01,9.99999e-01,9.99999e-01,9.98153e-01,9.87135e-01,9.99998e-01
1.042182673e+00,9.85216e-01,9.99999e-01,9.99999e-01,9.97800e-01,9.87388e-01,9.99999e-01
1.047393587e+00,9.84754e-01,9.99999e-01,9.99999e-01,9.97082e-01,9.87635e-01,9.99998e-01
1.052630555e+00,9.83926e-01,9.99999e-01,9.99999e-01,9.96000e-01,9.87878e-01,9.99998e-01
1.057893707e+00,9.81527e-01,9.99999e-01,9.99999e-01,9.93333e-01,9.88116e-01,9.99997e-01
1.063183176e+00,9.77523e-01,9.99999e-01,9.99999e-01,9.89050e-01,9.88349e-01,9.99993e-01
1.068499092e+00,9.70503e-01,9.99999e-01,9.99999e-01,9.81727e-01,9.88578e-01,9.99987e-01
1.073841587e+00,9.67693e-01,9.99999e-01,9.99999e-01,9.78677e-01,9.88803e-01,9.99972e-01
1.079210795e+00,9.61971e-01,9.99999e-01,9.99999e-01,9.72719e-01,9.89022e-01,9.99925e-01
1.084606849e+00,9.48551e-01,9.99999e-01,9.99999e-01,9.59039e-01,9.89238e-01,9.99822e-01
1.090029883e+00,9.31586e-01,9.99999e-01,9.99999e-01,9.41864e-01,9.89450e-01,9.99632e-01
1.095480033e+00,8.40146e-01,9.99999e-01,9.99999e-01,8.49490e-01,9.89657e-01,9.99335e-01
1.100957433e+00,6.56002e-01,9.99999e-01,9.99999e-01,6.63532e-01,9.89860e-01,9.98777e-01
1.106462220e+00,3.61771e-01,9.99999e-01,9.99999e-01,3.66162e-01,9.90059e-01,9.97927e-01
1.111994531e+00,1.25150e-01,9.99999e-01,9.99999e-01,1.27080e-01,9.90255e-01,9.94507e-01
1.117554504e+00,3.84095e-02,9.99999e-01,9.99999e-01,3.95587e-02,9.90446e-01,9.80313e-01
1.123142276e+00,1.02739e-01,9.99999e-01,9.99999e-01,1.08717e-01,9.90634e-01,9.53944e-01
1.128757988e+00,2.01209e-01,9.99999e-01,9.99999e-01,2.14457e-01,9.90818e-01,9.46915e-01
1.134401778e+00,8.96384e-02,9.99999e-01,9.99999e-01,9.47465e-02,9.90999e-01,9.54679e-01
1.140073787e+00,3.65857e-01,9.99999e-01,9.99999e-01,3.83048e-01,9.91176e-01,9.63621e-01
1.145774156e+00,1.46576e-01,9.99999e-01,9.99999e-01,1.52957e-01,9.91349e-01,9.66648e-01
1.151503026e+00,1.22409e-01,9.99999e-01,9.99999e-01,1.25811e-01,9.91519e-01,9.81280e-01
1.157260541e+00,1.54624e-01,9.99999e-01,9.99999e-01,1.56804e-01,9.91686e-01,9.94365e-01
1.163046844e+00,2.48266e-01,9.99999e-01,9.99999e-01,2.50707e-01,9.91850e-01,9.98399e-01
1.168862078e+00,3.68575e-01,9.99999e-01,9.99999e-01,3.71850e-01,9.92010e-01,9.99175e-01
1.174706389e+00,5.37239e-01,9.99999e-01,9.99999e-01,5.42072e-01,9.92167e-01,9.98906e-01
1.180579921e+00,6.80806e-01,9.99999e-01,9.99999e-01,6.87209e-01,9.92321e-01,9.98347e-01
1.186482820e+00,8.00384e-01,9.99999e-01,9.99999e-01,8.07823e-01,9.92472e-01,9.98303e-01
1.192415234e+00,8.75003e-01,9.99999e-01,9.99999e-01,8.82628e-01,9.92621e-01,9.98729e-01
1.198377311e+00,8.92618e-01,9.99999e-01,9.99999e-01,9.00202e-01,9.92766e-01,9.98799e-01
1.204369197e+00,8.98155e-01,9.99999e-01,9.99999e-01,9.05552e-01,9.92908e-01,9.98913e-01
1.210391043e+00,9.02403e-01,9.99999e-01,9.99999e-01,9.09320e-01,9.93048e-01,9.99339e-01
1.216442998e+00,9.15632e-01,9.99999e-01,9.99999e-01,9.22287e-01,9.93185e-01,9.99594e-01
1.222525213e+00,9.32373e-01,9.99999e-01,9.99999e-01,9.38879e-01,9.93319e-01,9.99748e-01
1.228637839e+00,9.50764e-01,9.99999e-01,9.99999e-01,9.57144e-01,9.93450e-01,9.99882e-01
