#,Wave/freq,Total,N2,O2,H2O,Rayleigh,CIA
4.000000000e-01,9.27668e-01,9.99999e-01,9.99999e-01,9.99991e-01,9.27676e-01,9.99999e-01
4.020000000e-01,9.29049e-01,9.99999e-01,9.99999e-01,9.99994e-01,9.29054e-01,9.99999e-01
4.040100000e-01,9.30403e-01,9.99999e-01,9.99999e-01,9.99997e-01,9.30405e-01,9.99999e-01
4.060300500e-01,9.31731e-01,9.99999e-01,9.99999e-01,9.99998e-01,9.31732e-01,9.99999e-01
4.080602003e-01,9.33034e-01,9.99999e-01,9.99999e-01,9.99999e-01,9.33034e-01,9.99999e-01
4.101005013e-01,9.34312e-01,9.99999e-01,9.99999e-01,9.99999e-01,9.34312e-01,9.99999e-01
4.121510038e-01,9.35567e-01,9.99999e-01,9.99999e-01,9.99999e-01,9.35567e-01,9.99999e-01
4.142117588e-01,9.36796e-01,9.99999e-01,9.99999e-01,9.99997e-01,9.36799e-01,9.99999e-01
4.162828176e-01,9.37998e-01,9.99999e-01,9.99999e-01,9.99989e-01,9.38007e-01,9.99999e-01
4.183642317e-01,9.39188e-01,9.99999e-01,9.99999e-01,9.99993e-01,9.39194e-01,9.99999e-01
4.204560528e-01,9.40355e-01,9.99999e-01,9.99999e-01,9.99995e-01,9.40358e-01,9.99999e-01
4.225583331e-01,9.41500e-01,9.99999e-01,9.99999e-01,9.99998e-01,9.41501e-01,9.99999e-01
4.246711247e-01,9.42622e-01,9.99999e-01,9.99999e-01,9.99998e-01,9.42623e-01,9.99999e-01
4.267944804e-01,9.43722e-01,9.99999e-01,9.99999e-01,9.99997e-01,9.43724e-01,9.99999e-01
4.289284528e-01,9.44803e-01,9.99999e-01,9.99999e-01,9.99998e-01,9.44804e-01,9.99999e-01
4.310730950e-01,9.45864e-01,9.99999e-01,9.99999e-01,9.99998e-01,9.45864e-01,9.99999e-01
4.332284605e-01,9.46904e-01,9.99999e-01,9.99999e-01,9.99999e-01,9.46905e-01,9.99999e-01
4.353946028e-01,9.47926e-01,9.99999e-01,9.99999e-01,9.99999e-01,9.47926e-01,9.99999e-01
4.375715758e-01,9.48926e-01,9.99999e-01,9.99999e-01,9.99998e-01,9.48927e-01,9.99999e-01
4.397594337e-01,9.49902e-01,9.99999e-01,9.99999e-01,9.99990e-01,9.49911e-01,9.99999e-01
4.419582309e-01,9.50831e-01,9.99999e-01,9.99999e-01,9.99953e-01,9.50875e-01,9.99999e-01
4.441680220e-01,9.51787e-01,9.99999e-01,9.99999e-01,9.99962e-01,9.51822e-01,9.99999e-01
4.463888621e-01,9.52714e-01,9.99999e-01,9.99999e-01,9.99961e-01,9.52750e-01,9.99999e-01
4.486208064e-01,9.53639e-01,9.99999e-01,9.99999e-01,9.99975e-01,9.53662e-01,9.99999e-01
4.508639105e-01,9.54545e-01,9.99999e-01,9.99999e-01,9.99988e-01,9.54556e-01,9.99999e-01
4.531182300e-01,9.55429e-01,9.99999e-01,9.99999e-01,9.99995e-01,9.55433e-01,9.99999e-01
4.553838212e-01,9.56291e-01,9.99999e-01,9.99999e-01,9.99996e-01,9.56294e-01,9.99999e-01
4.576607403e-01,9.57137e-01,9.99999e-01,9.99999e-01,9.99998e-01,9.57139e-01,9.99999e-01
4.599490440e-01,9.57966e-01,9.99999e-01,9.99999e-01,9.99998e-01,9.57967e-01,9.99999e-01
4.622487892e-01,9.58780e-01,9.99999e-01,9.99999e-01,9.99999e-01,9.58780e-01,9.99999e-01
4.645600332e-01,9.59577e-01,9.99999e-01,9.99999e-01,9.99998e-01,9.59577e-01,9.99999e-01
4.668828333e-01,9.60349e-01,9.99999e-01,9.99999e-01,9.99988e-01,9.60360e-01,9.99999e-01
4.692172475e-01,9.61104e-01,9.99999e-01,9.99999e-01,9.99975e-01,9.61127e-01,9.99999e-01
4.715633337e-01,9.61865e-01,9.99999e-01,9.99999e-01,9.99983e-01,9.61880e-01,9.99999e-01
4.739211504e-01,9.62605e-01,9.99999e-01,9.99999e-01,9.99984e-01,9.62619e-01,9.99999e-01
4.762907561e-01,9.63336e-01,9.99999e-01,9.99999e-01,9.99991e-01,9.63344e-01,9.99999e-01
4.786722099e-01,9.64052e-01,9.99999e-01,9.99999e-01,9.99996e-01,9.64055e-01,9.99999e-01
4.810655710e-01,9.64751e-01,9.99999e-01,9.99999e-01,9.99998e-01,9.64752e-01,9.99999e-01
4.834708988e-01,9.65427e-01,9.99999e-01,9.99999e-01,9.99990e-01,9.65436e-01,9.99999e-01
4.858882533e-01,9.66091e-01,9.99999e-01,9.99999e-01,9.99982e-01,9.66107e-01,9.99999e-01
4.883176946e-01,9.66752e-01,9.99999e-01,9.99999e-01,9.99985e-01,9.66765e-01,9.99999e-01
4.907592831e-01,9.67398e-01,9.99999e-01,9.99999e-01,9.99986e-01,9.67411e-01,9.99999e-01
4.932130795e-01,9.68035e-01,9.99999e-01,9.99999e-01,9.99990e-01,9.68044e-01,9.99999e-01
4.956791449e-01,9.68661e-01,9.99999e-01,9.99999e-01,9.99994e-01,9.68665e-01,9.99999e-01
4.981575406e-01,9.69251e-01,9.99999e-01,9.99999e-01,9.99975e-01,9.69275e-01,9.99999e-01
5.006483283e-01,9.69812e-01,9.99999e-01,9.99999e-01,9.99938e-01,9.69872e-01,9.99999e-01
5.031515699e-01,9.70150e-01,9.99999e-01,9.99999e-01,9.99685e-01,9.70458e-01,9.99996e-01
5.056673278e-01,9.70868e-01,9.99999e-01,9.99999e-01,9.99833e-01,9.71033e-01,9.99995e-01
5.081956644e-01,9.71391e-01,9.99999e-01,9.99999e-01,9.99789e-01,9.71597e-01,9.99997e-01
5.107366428e-01,9.72012e-01,9.99999e-01,9.99999e-01,9.99857e-01,9.72150e-01,9.99999e-01
5.132903260e-01,9.72614e-01,9.99999e-01,9.99999e-01,9.99918e-01,9.72693e-01,9.99999e-01
5.158567776e-01,9.73192e-01,9.99999e-01,9.99999e-01,9.99965e-01,9.73225e-01,9.99999e-01
5.184360615e-01,9.73734e-01,9.99999e-01,9.99999e-01,9.99985e-01,9.73747e-01,9.99999e-01
5.210282418e-01,9.74254e-01,9.99999e-01,9.99999e-01,9.99994e-01,9.74259e-01,9.99999e-01
5.236333830e-01,9.74741e-01,9.99999e-01,9.99999e-01,9.99979e-01,9.74761e-01,9.99999e-01
5.262515499e-01,9.75240e-01,9.99999e-01,9.99999e-01,9.99986e-01,9.75253e-01,9.99999e-01
5.288828077e-01,9.75724e-01,9.99999e-01,9.99999e-01,9.99987e-01,9.75736e-01,9.99999e-01
5.315272217e-01,9.76199e-01,9.99999e-01,9.99999e-01,9.99989e-01,9.76209e-01,9.99999e-01
5.341848578e-01,9.76667e-01,9.99999e-01,9.99999e-01,9.99992e-01,9.76674e-01,9.99999e-01
5.368557821e-01,9.77106e-01,9.99999e-01,9.99999e-01,9.99975e-01,9.77129e-01,9.99999e-01
5.395400610e-01,9.77492e-01,9.99999e-01,9.99999e-01,9.99914e-01,9.77576e-01,9.99998e-01
5.422377613e-01,9.77902e-01,9.99999e-01,9.99999e-01,9.99887e-01,9.78014e-01,9.99997e-01
5.449489501e-01,9.78340e-01,9.99999e-01,9.99999e-01,9.99896e-01,9.78443e-01,9.99997e-01
5.476736949e-01,9.78773e-01,9.99999e-01,9.99999e-01,9.99907e-01,9.78865e-01,9.99998e-01
5.504120634e-01,9.79212e-01,9.99999e-01,9.99999e-01,9.99932e-01,9.79278e-01,9.99999e-01
5.531641237e-01,9.79650e-01,9.99999e-01,9.99999e-01,9.99965e-01,9.79683e-01,9.99999e-01
5.559299443e-01,9.80064e-01,9.99999e-01,9.99999e-01,9.99983e-01,9.80080e-01,9.99999e-01
5.587095940e-01,9.80460e-01,9.99999e-01,9.99999e-01,9.99989e-01,9.80470e-01,9.99999e-01
5.615031420e-01,9.80841e-01,9.99999e-01,9.99999e-01,9.99988e-01,9.80852e-01,9.99999e-01
5.643106577e-01,9.81214e-01,9.99999e-01,9.99999e-01,9.99986e-01,9.81226e-01,9.99999e-01
5.671322110e-01,9.81443e-01,9.99999e-01,9.99999e-01,9.99846e-01,9.81594e-01,9.99998e-01
5.699678720e-01,9.81786e-01,9.99999e-01,9.99999e-01,9.99832e-01,9.81954e-01,9.99995e-01
5.728177114e-01,9.82135e-01,9.99999e-01,9.99999e-01,9.99827e-01,9.82307e-01,9.99995e-01
5.756818000e-01,9.82496e-01,9.99999e-01,9.99999e-01,9.99841e-01,9.82654e-01,9.99997e-01
5.785602090e-01,9.82857e-01,9.99999e-01,9.99999e-01,9.99861e-01,9.82993e-01,9.99998e-01
5.814530100e-01,9.83190e-01,9.99999e-01,9.99999e-01,9.99861e-01,9.83326e-01,9.99999e-01
5.843602750e-01,9.83491e-01,9.99999e-01,9.99999e-01,9.99835e-01,9.83653e-01,9.99998e-01
5.872820764e-01,9.82571e-01,9.99999e-01,9.99999e-01,9.98584e-01,9.83973e-01,9.99989e-01
5.902184868e-01,9.82558e-01,9.99999e-01,9.99999e-01,9.98269e-01,9.84287e-01,9.99972e-01
5.931695792e-01,9.83369e-01,9.99999e-01,9.99999e-01,9.98781e-01,9.84595e-01,9.99972e-01
5.961354271e-01,9.83563e-01,9.99999e-01,9.99999e-01,9.98661e-01,9.84897e-01,9.99983e-01
5.991161043e-01,9.84226e-01,9.99999e-01,9.99999e-01,9.99022e-01,9.85193e-01,9.99994e-01
6.021116848e-01,9.84936e-01,9.99999e-01,9.99999e-01,9.99444e-01,9.85484e-01,9.99998e-01
6.051222432e-01,9.85491e-01,9.99999e-01,9.99999e-01,9.99718e-01,9.85768e-01,9.99999e-01
6.081478544e-01,9.85928e-01,9.99999e-01,9.99999e-01,9.99878e-01,9.86047e-01,9.99999e-01
6.111885937e-01,9.86270e-01,9.99999e-01,9.99999e-01,9.99948e-01,9.86321e-01,9.99999e-01
6.142445367e-01,9.86567e-01,9.99999e-01,9.99999e-01,9.99976e-01,9.86589e-01,9.99999e-01
6.173157594e-01,9.86840e-01,9.99999e-01,9.99999e-01,9.99986e-01,9.86853e-01,9.99999e-01
6.204023382e-01,9.87100e-01,9.99999e-01,9.99999e-01,9.99988e-01,9.87111e-01,9.99999e-01
6.235043498e-01,9.87318e-01,9.99999e-01,9.99999e-01,9.99953e-01,9.87363e-01,9.99999e-01
6.266218716e-01,9.87365e-01,9.99999e-01,9.99999e-01,9.99751e-01,9.87612e-01,9.99997e-01
6.297549810e-01,9.87761e-01,9.99999e-01,9.99999e-01,9.99908e-01,9.87855e-01,9.99996e-01
6.329037559e-01,9.87912e-01,9.99999e-01,9.99999e-01,9.99819e-01,9.88093e-01,9.99996e-01
6.360682746e-01,9.88174e-01,9.99999e-01,9.99999e-01,9.99846e-01,9.88327e-01,9.99997e-01
6.392486160e-01,9.88359e-01,9.99999e-01,9.99999e-01,9.99801e-01,9.88556e-01,9.99998e-01
6.424448591e-01,9.88545e-01,9.99999e-01,9.99999e-01,9.99761e-01,9.88781e-01,9.99998e-01
6.456570834e-01,9.87793e-01,9.99999e-01,9.99999e-01,9.98784e-01,9.89001e-01,9.99992e-01
6.488853688e-01,9.88146e-01,9.99999e-01,9.99999e-01,9.98936e-01,9.89217e-01,9.99980e-01
6.521297956e-01,9.88500e-01,9.99999e-01,9.99999e-01,9.99076e-01,9.89429e-01,9.99983e-01
6.553904446e-01,9.88723e-01,9.99999e-01,9.99999e-01,9.99088e-01,9.89637e-01,9.99987e-01
6.586673968e-01,9.89057e-01,9.99999e-01,9.99999e-01,9.99211e-01,9.89841e-01,9.99995e-01
6.619607338e-01,9.89589e-01,9.99999e-01,9.99999e-01,9.99544e-01,9.90040e-01,9.99998e-01
6.652705375e-01,9.89974e-01,9.99999e-01,9.99999e-01,9.99735e-01,9.90236e-01,9.99999e-01
6.685968902e-01,9.90306e-01,9.99999e-01,9.99999e-01,9.99876e-01,9.90428e-01,9.99999e-01
6.719398746e-01,9.90560e-01,9.99999e-01,9.99999e-01,9.99942e-01,9.90616e-01,9.99999e-01
6.752995740e-01,9.90770e-01,9.99999e-01,9.99999e-01,9.99968e-01,9.90800e-01,9.99999e-01
6.786760719e-01,9.90938e-01,9.99999e-01,9.99999e-01,9.99955e-01,9.90981e-01,9.99999e-01
6.820694522e-01,9.91083e-01,9.99999e-01,9.99999e-01,9.99923e-01,9.91159e-01,9.99999e-01
6.854797995e-01,9.91235e-01,9.99999e-01,9.99999e-01,9.99902e-01,9.91333e-01,9.99998e-01
6.889071985e-01,9.91271e-01,9.99999e-01,9.99999e-01,9.99767e-01,9.91503e-01,9.99997e-01
6.923517345e-01,9.87846e-01,9.99999e-01,9.99999e-01,9.96161e-01,9.91670e-01,9.99981e-01
6.958134932e-01,9.89772e-01,9.99999e-01,9.99999e-01,9.97962e-01,9.91834e-01,9.99957e-01
6.992925606e-01,9.90077e-01,9.99999e-01,9.99999e-01,9.98102e-01,9.91995e-01,9.99962e-01
7.027890234e-01,9.89783e-01,9.99999e-01,9.99999e-01,9.97639e-01,9.92152e-01,9.99971e-01
7.063029686e-01,9.90326e-01,9.99999e-01,9.99999e-01,9.98017e-01,9.92306e-01,9.99985e-01
7.098344834e-01,9.90563e-01,9.99999e-01,9.99999e-01,9.98098e-01,9.92458e-01,9.99991e-01
7.133836558e-01,9.90105e-01,9.99999e-01,9.99999e-01,9.97496e-01,9.92606e-01,9.99983e-01
7.169505741e-01,9.72568e-01,9.99999e-01,9.99999e-01,9.79795e-01,9.92752e-01,9.99869e-01
7.205353270e-01,9.82640e-01,9.99999e-01,9.99999e-01,9.89897e-01,9.92894e-01,9.99770e-01
7.241380036e-01,9.80314e-01,9.99999e-01,9.99999e-01,9.87386e-01,9.93034e-01,9.99800e-01
7.277586936e-01,9.81687e-01,9.99999e-01,9.99999e-01,9.88600e-01,9.93171e-01,9.99834e-01
7.313974871e-01,9.81134e-01,9.99999e-01,9.99999e-01,9.87820e-01,9.93306e-01,9.99923e-01
7.350544745e-01,9.86804e-01,9.99999e-01,9.99999e-01,9.93348e-01,9.93438e-01,9.99973e-01
7.387297469e-01,9.88689e-01,9.99999e-01,9.99999e-01,9.95101e-01,9.93567e-01,9.99987e-01
7.424233956e-01,9.91303e-01,9.99999e-01,9.99999e-01,9.97596e-01,9.93693e-01,9.99997e-01
7.461355126e-01,9.92372e-01,9.99999e-01,9.99999e-01,9.98545e-01,9.93818e-01,9.99999e-01
7.498661902e-01,9.93265e-01,9.99999e-01,9.99999e-01,9.99320e-01,9.93939e-01,9.99999e-01
7.536155211e-01,9.93729e-01,9.99999e-01,9.99999e-01,9.99667e-01,9.94059e-01,9.99999e-01
7.573835987e-01,9.94006e-01,9.99999e-01,9.99999e-01,9.99828e-01,9.94176e-01,9.99999e-01
7.611705167e-01,9.94185e-01,9.99999e-01,9.99999e-01,9.99893e-01,9.94290e-01,9.99999e-01
7.649763693e-01,9.94337e-01,9.99999e-01,9.99999e-01,9.99933e-01,9.94403e-01,9.99999e-01
7.688012511e-01,9.94467e-01,9.99999e-01,9.99999e-01,9.99953e-01,9.94513e-01,9.99999e-01
7.726452574e-01,9.94583e-01,9.99999e-01,9.99999e-01,9.99961e-01,9.94621e-01,9.99999e-01
7.765084837e-01,9.94674e-01,9.99999e-01,9.99999e-01,9.99945e-01,9.94727e-01,9.99999e-01
7.803910261e-01,9.94601e-01,9.99999e-01,9.99999e-01,9.99768e-01,9.94831e-01,9.99999e-01
7.842929812e-01,9.94128e-01,9.99999e-01,9.99999e-01,9.99192e-01,9.94933e-01,9.99998e-01
7.882144461e-01,9.93353e-01,9.99999e-01,9.99999e-01,9.98321e-01,9.95032e-01,9.99989e-01
7.921555184e-01,9.94191e-01,9.99999e-01,9.99999e-01,9.99074e-01,9.95130e-01,9.99979e-01
7.961162960e-01,9.93599e-01,9.99999e-01,9.99999e-01,9.98382e-01,9.95226e-01,9.99980e-01
8.000968774e-01,9.93432e-01,9.99999e-01,9.99999e-01,9.98122e-01,9.95320e-01,9.99979e-01
8.040973618e-01,9.93530e-01,9.99999e-01,9.99999e-01,9.98124e-01,9.95413e-01,9.99983e-01
8.081178486e-01,9.91306e-01,9.99999e-01,9.99999e-01,9.95798e-01,9.95503e-01,9.99984e-01
8.121584379e-01,9.78122e-01,9.99999e-01,9.99999e-01,9.82510e-01,9.95592e-01,9.99940e-01
8.162192301e-01,9.74598e-01,9.99999e-01,9.99999e-01,9.79045e-01,9.95678e-01,9.99777e-01
8.203003262e-01,9.85178e-01,9.99999e-01,9.99999e-01,9.89626e-01,9.95764e-01,9.99738e-01
8.244018279e-01,9.80827e-01,9.99999e-01,9.99999e-01,9.85120e-01,9.95847e-01,9.99792e-01
8.285238370e-01,9.83367e-01,9.99999e-01,9.99999e-01,9.87546e-01,9.95929e-01,9.99836e-01
8.326664562e-01,9.83347e-01,9.99999e-01,9.99999e-01,9.87353e-01,9.96009e-01,9.99932e-01
8.368297885e-01,9.87063e-01,9.99999e-01,9.99999e-01,9.90954e-01,9.96088e-01,9.99984e-01
8.410139374e-01,9.90795e-01,9.99999e-01,9.99999e-01,9.94618e-01,9.96165e-01,9.99990e-01
8.452190071e-01,9.93602e-01,9.99999e-01,9.99999e-01,9.97356e-01,9.96240e-01,9.99994e-01
8.494451021e-01,9.94788e-01,9.99999e-01,9.99999e-01,9.98471e-01,9.96315e-01,9.99995e-01
8.536923276e-01,9.95481e-01,9.99999e-01,9.99999e-01,9.99092e-01,9.96387e-01,9.99996e-01
8.579607893e-01,9.95903e-01,9.99999e-01,9.99999e-01,9.99442e-01,9.96458e-01,9.99998e-01
8.622505932e-01,9.96175e-01,9.99999e-01,9.99999e-01,9.99645e-01,9.96528e-01,9.99999e-01
8.665618462e-01,9.96379e-01,9.99999e-01,9.99999e-01,9.99781e-01,9.96597e-01,9.99999e-01
8.708946554e-01,9.96415e-01,9.99999e-01,9.99999e-01,9.99750e-01,9.96664e-01,9.99999e-01
8.752491287e-01,9.96396e-01,9.99999e-01,9.99999e-01,9.99665e-01,9.96730e-01,9.99999e-01
8.796253743e-01,9.96333e-01,9.99999e-01,9.99999e-01,9.99538e-01,9.96794e-01,9.99998e-01
8.840235012e-01,9.96328e-01,9.99999e-01,9.99999e-01,9.99472e-01,9.96857e-01,9.99996e-01
8.884436187e-01,9.95023e-01,9.99999e-01,9.99999e-01,9.98106e-01,9.96919e-01,9.99990e-01
8.928858368e-01,9.76879e-01,9.99999e-01,9.99999e-01,9.79889e-01,9.96980e-01,9.99946e-01
8.973502660e-01,9.61187e-01,9.99999e-01,9.99999e-01,9.64301e-01,9.97040e-01,9.99728e-01
9.018370173e-01,9.78217e-01,9.99999e-01,9.99999e-01,9.81481e-01,9.97098e-01,9.99573e-01
9.063462024e-01,9.80792e-01,9.99999e-01,9.99999e-01,9.83957e-01,9.97155e-01,9.99625e-01
9.108779334e-01,9.71859e-01,9.99999e-01,9.99999e-01,9.74955e-01,9.97211e-01,9.99611e-01
9.154323231e-01,9.68606e-01,9.99999e-01,9.99999e-01,9.71572e-01,9.97266e-01,9.99678e-01
9.200094847e-01,9.74795e-01,9.99999e-01,9.99999e-01,9.77589e-01,9.97320e-01,9.99819e-01
9.246095321e-01,9.62731e-01,9.99999e-01,9.99999e-01,9.65465e-01,9.97373e-01,9.99792e-01
9.292325798e-01,7.83221e-01,9.99999e-01,9.99999e-01,7.85877e-01,9.97425e-01,9.99192e-01
9.338787427e-01,7.25373e-01,9.99999e-01,9.99999e-01,7.29640e-01,9.97476e-01,9.96666e-01
9.385481364e-01,8.75301e-01,9.99999e-01,9.99999e-01,8.80963e-01,9.97525e-01,9.96036e-01
9.432408771e-01,8.32570e-01,9.99999e-01,9.99999e-01,8.37458e-01,9.97574e-01,9.96579e-01
9.479570815e-01,7.76301e-01,9.99999e-01,9.99999e-01,7.80324e-01,9.97622e-01,9.97215e-01
9.526968669e-01,8.27965e-01,9.99999e-01,9.99999e-01,8.31312e-01,9.97669e-01,9.98300e-01
9.574603512e-01,8.44846e-01,9.99999e-01,9.99999e-01,8.47511e-01,9.97715e-01,9.99136e-01
9.622476530e-01,8.71870e-01,9.99999e-01,9.99999e-01,8.74349e-01,9.97760e-01,9.99402e-01
9.670588912e-01,9.23422e-01,9.99999e-01,9.99999e-01,9.25831e-01,9.97804e-01,9.99591e-01
9.718941857e-01,9.50989e-01,9.99999e-01,9.99999e-01,9.53327e-01,9.97847e-01,9.99698e-01
9.767536566e-01,9.58887e-01,9.99999e-01,9.99999e-01,9.61135e-01,9.97890e-01,9.99769e-01
9.816374249e-01,9.68938e-01,9.99999e-01,9.99999e-01,9.71022e-01,9.97931e-01,9.99919e-01
9.865456120e-01,9.79802e-01,9.99999e-01,9.99999e-01,9.81808e-01,9.97972e-01,9.99982e-01
9.914783401e-01,9.86764e-01,9.99999e-01,9.99999e-01,9.88733e-01,9.98012e-01,9.99994e-01
9.964357318e-01,9.91909e-01,9.99999e-01,9.99999e-01,9.93848e-01,9.98051e-01,9.99996e-01
1.001417910e+00,9.94402e-01,9.99999e-01,9.99999e-01,9.96308e-01,9.98090e-01,9.99995e-01
1.006425000e+00,9.96025e-01,9.99999e-01,9.99999e-01,9.97899e-01,9.98128e-01,9.99993e-01
1.011457125e+00,9.96854e-01,9.99999e-01,9.99999e-01,9.98692e-01,9.98164e-01,9.99994e-01
1.016514411e+00,9.97312e-01,9.99999e-01,9.99999e-01,9.99113e-01,9.98201e-01,9.99995e-01
1.021596983e+00,9.97528e-01,9.99999e-01,9.99999e-01,9.99293e-01,9.98236e-01,9.99995e-01
1.026704968e+00,9.97719e-01,9.99999e-01,9.99999e-01,9.99449e-01,9.98271e-01,9.99996e-01
1.031838492e+00,9.97905e-01,9.99999e-01,9.99999e-01,9.99598e-01,9.98305e-01,9.99998e-01
1.036997685e+00,9.98101e-01,9.99999e-01,9.99999e-01,9.99762e-01,9.98339e-01,9.99999e-01
1.042182673e+00,9.98090e-01,9.99999e-01,9.99999e-01,9.99717e-01,9.98371e-01,9.99999e-01
1.047393587e+00,9.98029e-01,9.99999e-01,9.99999e-01,9.99624e-01,9.98403e-01,9.99999e-01
1.052630555e+00,9.97922e-01,9.99999e-01,9.99999e-01,9.99485e-01,9.98435e-01,9.99999e-01
1.057893707e+00,9.97611e-01,9.99999e-01,9.99999e-01,9.99143e-01,9.98466e-01,9.99999e-01
1.063183176e+00,9.97087e-01,9.99999e-01,9.99999e-01,9.98588e-01,9.98496e-01,9.99998e-01
1.068499092e+00,9.96162e-01,9.99999e-01,9.99999e-01,9.97633e-01,9.98526e-01,9.99997e-01
1.073841587e+00,9.95791e-01,9.99999e-01,9.99999e-01,9.97235e-01,9.98555e-01,9.99996e-01
1.079210795e+00,9.95027e-01,9.99999e-01,9.99999e-01,9.96447e-01,9.98583e-01,9.99990e-01
1.084606849e+00,9.93230e-01,9.99999e-01,9.99999e-01,9.94633e-01,9.98611e-01,9.99976e-01
1.090029883e+00,9.90939e-01,9.99999e-01,9.99999e-01,9.92336e-01,9.98639e-01,9.99952e-01
1.095480033e+00,9.77818e-01,9.99999e-01,9.99999e-01,9.79207e-01,9.98665e-01,9.99914e-01
1.100957433e+00,9.46496e-01,9.99999e-01,9.99999e-01,9.47883e-01,9.98692e-01,9.99842e-01
1.106462220e+00,8.70732e-01,9.99999e-01,9.99999e-01,8.72082e-01,9.98718e-01,9.99733e-01
1.111994531e+00,7.45740e-01,9.99999e-01,9.99999e-01,7.47206e-01,9.98743e-01,9.99292e-01
1.117554504e+00,6.19317e-01,9.99999e-01,9.99999e-01,6.21665e-01,9.98768e-01,9.97450e-01
1.123142276e+00,6.93659e-01,9.99999e-01,9.99999e-01,6.98714e-01,9.98792e-01,9.93964e-01
1.128757988e+00,7.92285e-01,9.99999e-01,9.99999e-01,7.98798e-01,9.98816e-01,9.93021e-01
1.134401778e+00,5.72068e-01,9.99999e-01,9.99999e-01,5.76234e-01,9.98839e-01,9.93922e-01
1.140073787e+00,8.71240e-01,9.99999e-01,9.99999e-01,8.76502e-01,9.98862e-01,9.95127e-01
1.145774156e+00,7.51924e-01,9.99999e-01,9.99999e-01,7.56048e-01,9.98885e-01,9.95654e-01
1.151503026e+00,7.28225e-01,9.99999e-01,9.99999e-01,7.30792e-01,9.98907e-01,9.97576e-01
1.157260541e+00,7.72519e-01,9.99999e-01,9.99999e-01,7.73908e-01,9.98928e-01,9.99274e-01
1.163046844e+00,8.26605e-01,9.99999e-01,9.99999e-01,8.27644e-01,9.98949e-01,9.99793e-01
1.168862078e+00,8.76665e-01,9.99999e-01,9.99999e-01,8.77661e-01,9.98970e-01,9.99893e-01
1.174706389e+00,9.21618e-01,9.99999e-01,9.99999e-01,9.22679e-01,9.98990e-01,9.99859e-01
1.180579921e+00,9.51067e-01,9.99999e-01,9.99999e-01,9.52211e-01,9.99010e-01,9.99787e-01
1.186482820e+00,9.71626e-01,9.99999e-01,9.99999e-01,9.72780e-01,9.99030e-01,9.99781e-01
1.192415234e+00,9.82957e-01,9.99999e-01,9.99999e-01,9.84052e-01,9.99049e-01,9.99836e-01
1.198377311e+00,9.85494e-01,9.99999e-01,9.99999e-01,9.86565e-01,9.99068e-01,9.99845e-01
1.204369197e+00,9.86221e-01,9.99999e-01,9.99999e-01,9.87260e-01,9.99086e-01,9.99860e-01
1.210391043e+00,9.86849e-01,9.99999e-01,9.99999e-01,9.87817e-01,9.99104e-01,9.99914e-01
1.216442998e+00,9.88686e-01,9.99999e-01,9.99999e-01,9.89605e-01,9.99122e-01,9.99947e-01
1.222525213e+00,9.91025e-01,9.99999e-01,9.99999e-01,9.91910e-01,9.99139e-01,9.99967e-01
1.228637839e+00,9.93528e-01,9.99999e-01,9.99999e-01,9.94381e-01,9.99156e-01,9.99984e-01
