#,Wave/freq,Total,N2,O2,H2O,Rayleigh,CIA
4.000000000e-01,4.97839e-01,9.99999e-01,9.99999e-01,9.99920e-01,4.97878e-01,9.99999e-01
4.020000000e-01,5.04767e-01,9.99999e-01,9.99999e-01,9.99950e-01,5.04791e-01,9.99999e-01
4.040100000e-01,5.11643e-01,9.99999e-01,9.99999e-01,9.99978e-01,5.11654e-01,9.99999e-01
4.060300500e-01,5.18469e-01,9.99999e-01,9.99999e-01,9.99994e-01,5.18471e-01,9.99999e-01
4.080602003e-01,5.25241e-01,9.99999e-01,9.99999e-01,9.99997e-01,5.25242e-01,9.99999e-01
4.101005013e-01,5.31965e-01,9.99999e-01,9.99999e-01,9.99999e-01,5.31965e-01,9.99999e-01
4.121510038e-01,5.38637e-01,9.99999e-01,9.99999e-01,9.99996e-01,5.38639e-01,9.99999e-01
4.142117588e-01,5.45250e-01,9.99999e-01,9.99999e-01,9.99977e-01,5.45262e-01,9.99999e-01
4.162828176e-01,5.51779e-01,9.99999e-01,9.99999e-01,9.99902e-01,5.51833e-01,9.99999e-01
4.183642317e-01,5.58319e-01,9.99999e-01,9.99999e-01,9.99941e-01,5.58351e-01,9.99999e-01
4.204560528e-01,5.64796e-01,9.99999e-01,9.99999e-01,9.99964e-01,5.64816e-01,9.99999e-01
4.225583331e-01,5.71218e-01,9.99999e-01,9.99999e-01,9.99986e-01,5.71225e-01,9.99999e-01
4.246711247e-01,5.77572e-01,9.99999e-01,9.99999e-01,9.99988e-01,5.77578e-01,9.99999e-01
4.267944804e-01,5.83866e-01,9.99999e-01,9.99999e-01,9.99983e-01,5.83875e-01,9.99999e-01
4.289284528e-01,5.90106e-01,9.99999e-01,9.99999e-01,9.99987e-01,5.90113e-01,9.99999e-01
4.310730950e-01,5.96290e-01,9.99999e-01,9.99999e-01,9.99994e-01,5.96293e-01,9.99999e-01
4.332284605e-01,6.02413e-01,9.99999e-01,9.99999e-01,9.99998e-01,6.02414e-01,9.99999e-01
4.353946028e-01,6.08475e-01,9.99999e-01,9.99999e-01,9.99998e-01,6.08475e-01,9.99999e-01
4.375715758e-01,6.14470e-01,9.99999e-01,9.99999e-01,9.99989e-01,6.14476e-01,9.99999e-01
4.397594337e-01,6.20361e-01,9.99999e-01,9.99999e-01,9.99913e-01,6.20415e-01,9.99999e-01
4.419582309e-01,6.26018e-01,9.99999e-01,9.99999e-01,9.99561e-01,6.26292e-01,9.99999e-01
4.441680220e-01,6.31894e-01,9.99999e-01,9.99999e-01,9.99661e-01,6.32108e-01,9.99999e-01
4.463888621e-01,6.37636e-01,9.99999e-01,9.99999e-01,9.99646e-01,6.37861e-01,9.99999e-01
4.486208064e-01,6.43411e-01,9.99999e-01,9.99999e-01,9.99780e-01,6.43551e-01,9.99999e-01
4.508639105e-01,6.49112e-01,9.99999e-01,9.99999e-01,9.99897e-01,6.49179e-01,9.99999e-01
4.531182300e-01,6.54716e-01,9.99999e-01,9.99999e-01,9.99959e-01,6.54742e-01,9.99999e-01
4.553838212e-01,6.60224e-01,9.99999e-01,9.99999e-01,9.99972e-01,6.60243e-01,9.99999e-01
4.576607403e-01,6.65671e-01,9.99999e-01,9.99999e-01,9.99986e-01,6.65679e-01,9.99999e-01
4.599490440e-01,6.71045e-01,9.99999e-01,9.99999e-01,9.99990e-01,6.71051e-01,9.99999e-01
4.622487892e-01,6.76359e-01,9.99999e-01,9.99999e-01,9.99997e-01,6.76360e-01,9.99999e-01
4.645600332e-01,6.81600e-01,9.99999e-01,9.99999e-01,9.99993e-01,6.81604e-01,9.99999e-01
4.668828333e-01,6.86713e-01,9.99999e-01,9.99999e-01,9.99895e-01,6.86784e-01,9.99999e-01
4.692172475e-01,6.91747e-01,9.99999e-01,9.99999e-01,9.99778e-01,6.91900e-01,9.99999e-01
4.715633337e-01,6.96851e-01,9.99999e-01,9.99999e-01,9.99854e-01,6.96952e-01,9.99999e-01
4.739211504e-01,7.01843e-01,9.99999e-01,9.99999e-01,9.99861e-01,7.01940e-01,9.99999e-01
4.762907561e-01,7.06814e-01,9.99999e-01,9.99999e-01,9.99927e-01,7.06864e-01,9.99999e-01
4.786722099e-01,7.11704e-01,9.99999e-01,9.99999e-01,9.99970e-01,7.11725e-01,9.99999e-01
4.810655710e-01,7.16515e-01,9.99999e-01,9.99999e-01,9.99990e-01,7.16522e-01,9.99999e-01
4.834708988e-01,7.21193e-01,9.99999e-01,9.99999e-01,9.99913e-01,7.21255e-01,9.99999e-01
4.858882533e-01,7.25812e-01,9.99999e-01,9.99999e-01,9.99843e-01,7.25925e-01,9.99999e-01
4.883176946e-01,7.30437e-01,9.99999e-01,9.99999e-01,9.99868e-01,7.30533e-01,9.99999e-01
4.907592831e-01,7.34991e-01,9.99999e-01,9.99999e-01,9.99881e-01,7.35077e-01,9.99999e-01
4.932130795e-01,7.39498e-01,9.99999e-01,9.99999e-01,9.99915e-01,7.39560e-01,9.99999e-01
4.956791449e-01,7.43947e-01,9.99999e-01,9.99999e-01,9.99955e-01,7.43980e-01,9.99999e-01
4.981575406e-01,7.48172e-01,9.99999e-01,9.99999e-01,9.99776e-01,7.48339e-01,9.99999e-01
5.006483283e-01,7.52197e-01,9.99999e-01,9.99999e-01,9.99419e-01,7.52637e-01,9.99995e-01
5.031515699e-01,7.54637e-01,9.99999e-01,9.99999e-01,9.97075e-01,7.56873e-01,9.99968e-01
5.056673278e-01,7.59849e-01,9.99999e-01,9.99999e-01,9.98457e-01,7.61049e-01,9.99964e-01
5.081956644e-01,7.63661e-01,9.99999e-01,9.99999e-01,9.98055e-01,7.65165e-01,9.99978e-01
5.107366428e-01,7.68209e-01,9.99999e-01,9.99999e-01,9.98687e-01,7.69221e-01,9.99995e-01
5.132903260e-01,7.72638e-01,9.99999e-01,9.99999e-01,9.99250e-01,7.73218e-01,9.99999e-01
5.158567776e-01,7.76910e-01,9.99999e-01,9.99999e-01,9.99683e-01,7.77156e-01,9.99999e-01
5.184360615e-01,7.80937e-01,9.99999e-01,9.99999e-01,9.99872e-01,7.81036e-01,9.99999e-01
5.210282418e-01,7.84820e-01,9.99999e-01,9.99999e-01,9.99952e-01,7.84858e-01,9.99999e-01
5.236333830e-01,7.88471e-01,9.99999e-01,9.99999e-01,9.99809e-01,7.88622e-01,9.99998e-01
5.262515499e-01,7.92234e-01,9.99999e-01,9.99999e-01,9.99880e-01,7.92330e-01,9.99997e-01
5.288828077e-01,7.95893e-01,9.99999e-01,9.99999e-01,9.99889e-01,7.95982e-01,9.99998e-01
5.315272217e-01,7.99500e-01,9.99999e-01,9.99999e-01,9.99903e-01,7.99577e-01,9.99999e-01
5.341848578e-01,8.03067e-01,9.99999e-01,9.99999e-01,9.99936e-01,8.03118e-01,9.99999e-01
5.368557821e-01,8.06423e-01,9.99999e-01,9.99999e-01,9.99777e-01,8.06603e-01,9.99998e-01
5.395400610e-01,8.09377e-01,9.99999e-01,9.99999e-01,9.99194e-01,8.10035e-01,9.99992e-01
5.422377613e-01,8.12557e-01,9.99999e-01,9.99999e-01,9.98966e-01,8.13413e-01,9.99980e-01
5.449489501e-01,8.15934e-01,9.99999e-01,9.99999e-01,9.99034e-01,8.16737e-01,9.99980e-01
5.476736949e-01,8.19305e-01,9.99999e-01,9.99999e-01,9.99148e-01,8.20010e-01,9.99990e-01
5.504120634e-01,8.22720e-01,9.99999e-01,9.99999e-01,9.99382e-01,8.23230e-01,9.99996e-01
5.531641237e-01,8.26142e-01,9.99999e-01,9.99999e-01,9.99688e-01,8.26399e-01,9.99999e-01
5.559299443e-01,8.29394e-01,9.99999e-01,9.99999e-01,9.99849e-01,8.29518e-01,9.99999e-01
5.587095940e-01,8.32508e-01,9.99999e-01,9.99999e-01,9.99905e-01,8.32586e-01,9.99999e-01
5.615031420e-01,8.35517e-01,9.99999e-01,9.99999e-01,9.99894e-01,8.35605e-01,9.99999e-01
5.643106577e-01,8.38473e-01,9.99999e-01,9.99999e-01,9.99879e-01,8.38574e-01,9.99998e-01
5.671322110e-01,8.40257e-01,9.99999e-01,9.99999e-01,9.98541e-01,8.41495e-01,9.99986e-01
5.699678720e-01,8.43043e-01,9.99999e-01,9.99999e-01,9.98469e-01,8.44369e-01,9.99960e-01
5.728177114e-01,8.45809e-01,9.99999e-01,9.99999e-01,9.98396e-01,8.47195e-01,9.99966e-01
5.756818000e-01,8.48709e-01,9.99999e-01,9.99999e-01,9.98530e-01,8.49974e-01,9.99980e-01
5.785602090e-01,8.51612e-01,9.99999e-01,9.99999e-01,9.98720e-01,8.52708e-01,9.99994e-01
5.814530100e-01,8.54293e-01,9.99999e-01,9.99999e-01,9.98713e-01,8.55396e-01,9.99996e-01
5.843602750e-01,8.56711e-01,9.99999e-01,9.99999e-01,9.98460e-01,8.58039e-01,9.99990e-01
5.872820764e-01,8.49224e-01,9.99999e-01,9.99999e-01,9.86829e-01,8.60638e-01,9.99906e-01
5.902184868e-01,8.49259e-01,9.99999e-01,9.99999e-01,9.84106e-01,8.63193e-01,9.99746e-01
5.931695792e-01,8.55751e-01,9.99999e-01,9.99999e-01,9.88742e-01,8.65705e-01,9.99756e-01
5.961354271e-01,8.57351e-01,9.99999e-01,9.99999e-01,9.87670e-01,8.68174e-01,9.99859e-01
5.991161043e-01,8.62726e-01,9.99999e-01,9.99999e-01,9.90996e-01,8.70602e-01,9.99956e-01
6.021116848e-01,8.68519e-01,9.99999e-01,9.99999e-01,9.94884e-01,8.72988e-01,9.99994e-01
6.051222432e-01,8.73066e-01,9.99999e-01,9.99999e-01,9.97409e-01,8.75333e-01,9.99999e-01
6.081478544e-01,8.76657e-01,9.99999e-01,9.99999e-01,9.98881e-01,8.77638e-01,9.99999e-01
6.111885937e-01,8.79488e-01,9.99999e-01,9.99999e-01,9.99527e-01,8.79904e-01,9.99999e-01
6.142445367e-01,8.81944e-01,9.99999e-01,9.99999e-01,9.99788e-01,8.82130e-01,9.99999e-01
6.173157594e-01,8.84215e-01,9.99999e-01,9.99999e-01,9.99883e-01,8.84318e-01,9.99999e-01
6.204023382e-01,8.86381e-01,9.99999e-01,9.99999e-01,9.99900e-01,8.86468e-01,9.99999e-01
6.235043498e-01,8.88191e-01,9.99999e-01,9.99999e-01,9.99561e-01,8.88581e-01,9.99998e-01
6.266218716e-01,8.88591e-01,9.99999e-01,9.99999e-01,9.97696e-01,8.90657e-01,9.99983e-01
6.297549810e-01,8.91913e-01,9.99999e-01,9.99999e-01,9.99154e-01,8.92696e-01,9.99967e-01
6.329037559e-01,8.93185e-01,9.99999e-01,9.99999e-01,9.98331e-01,8.94700e-01,9.99973e-01
6.360682746e-01,8.95379e-01,9.99999e-01,9.99999e-01,9.98576e-01,8.96669e-01,9.99984e-01
6.392486160e-01,8.96941e-01,9.99999e-01,9.99999e-01,9.98157e-01,8.98602e-01,9.99992e-01
6.424448591e-01,8.98262e-01,9.99999e-01,9.99999e-01,9.97524e-01,9.00502e-01,9.99987e-01
6.456570834e-01,8.91986e-01,9.99999e-01,9.99999e-01,9.88562e-01,9.02368e-01,9.99930e-01
6.488853688e-01,8.96502e-01,9.99999e-01,9.99999e-01,9.91660e-01,9.04201e-01,9.99822e-01
6.521297956e-01,8.98173e-01,9.99999e-01,9.99999e-01,9.91503e-01,9.06001e-01,9.99853e-01
6.553904446e-01,8.99969e-01,9.99999e-01,9.99999e-01,9.91514e-01,9.07770e-01,9.99890e-01
6.586673968e-01,9.02877e-01,9.99999e-01,9.99999e-01,9.92746e-01,9.09506e-01,9.99963e-01
6.619607338e-01,9.07516e-01,9.99999e-01,9.99999e-01,9.95951e-01,9.11212e-01,9.99991e-01
6.652705375e-01,9.10664e-01,9.99999e-01,9.99999e-01,9.97568e-01,9.12887e-01,9.99995e-01
6.685968902e-01,9.13586e-01,9.99999e-01,9.99999e-01,9.98966e-01,9.14532e-01,9.99998e-01
6.719398746e-01,9.15668e-01,9.99999e-01,9.99999e-01,9.99476e-01,9.16147e-01,9.99999e-01
6.752995740e-01,9.17473e-01,9.99999e-01,9.99999e-01,9.99715e-01,9.17734e-01,9.99999e-01
6.786760719e-01,9.18912e-01,9.99999e-01,9.99999e-01,9.99588e-01,9.19291e-01,9.99998e-01
6.820694522e-01,9.20170e-01,9.99999e-01,9.99999e-01,9.99296e-01,9.20820e-01,9.99995e-01
6.854797995e-01,9.21478e-01,9.99999e-01,9.99999e-01,9.99092e-01,9.22322e-01,9.99991e-01
6.889071985e-01,9.21737e-01,9.99999e-01,9.99999e-01,9.97789e-01,9.23796e-01,9.99979e-01
6.923517345e-01,8.92437e-01,9.99999e-01,9.99999e-01,9.64707e-01,9.25244e-01,9.99827e-01
6.958134932e-01,9.09353e-01,9.99999e-01,9.99999e-01,9.81690e-01,9.26665e-01,9.99619e-01
6.992925606e-01,9.11407e-01,9.99999e-01,9.99999e-01,9.82391e-01,9.28060e-01,9.99657e-01
7.027890234e-01,9.09100e-01,9.99999e-01,9.99999e-01,9.78382e-01,9.29429e-01,9.99738e-01
7.063029686e-01,9.13693e-01,9.99999e-01,9.99999e-01,9.81775e-01,9.30774e-01,9.99869e-01
7.098344834e-01,9.15716e-01,9.99999e-01,9.99999e-01,9.82504e-01,9.32094e-01,9.99922e-01
7.133836558e-01,9.11469e-01,9.99999e-01,9.99999e-01,9.76664e-01,9.33389e-01,9.99846e-01
7.169505741e-01,7.74519e-01,9.99999e-01,9.99999e-01,8.29660e-01,9.34661e-01,9.98796e-01
7.205353270e-01,8.52646e-01,9.99999e-01,9.99999e-01,9.12971e-01,9.35909e-01,9.97877e-01
7.241380036e-01,8.32324e-01,9.99999e-01,9.99999e-01,8.89788e-01,9.37135e-01,9.98167e-01
7.277586936e-01,8.43308e-01,9.99999e-01,9.99999e-01,9.00073e-01,9.38337e-01,9.98501e-01
7.313974871e-01,8.39339e-01,9.99999e-01,9.99999e-01,8.93999e-01,9.39518e-01,9.99297e-01
7.350544745e-01,8.84453e-01,9.99999e-01,9.99999e-01,9.40459e-01,9.40676e-01,9.99755e-01
7.387297469e-01,9.00053e-01,9.99999e-01,9.99999e-01,9.55766e-01,9.41813e-01,9.99887e-01
7.424233956e-01,9.22275e-01,9.99999e-01,9.99999e-01,9.78114e-01,9.42929e-01,9.99980e-01
7.461355126e-01,9.31436e-01,9.99999e-01,9.99999e-01,9.86668e-01,9.44024e-01,9.99996e-01
7.498661902e-01,9.39220e-01,9.99999e-01,9.99999e-01,9.93779e-01,9.45099e-01,9.99998e-01
7.536155211e-01,9.43258e-01,9.99999e-01,9.99999e-01,9.96940e-01,9.46154e-01,9.99998e-01
7.573835987e-01,9.45696e-01,9.99999e-01,9.99999e-01,9.98424e-01,9.47189e-01,9.99999e-01
7.611705167e-01,9.47276e-01,9.99999e-01,9.99999e-01,9.99020e-01,9.48204e-01,9.99999e-01
7.649763693e-01,9.48618e-01,9.99999e-01,9.99999e-01,9.99385e-01,9.49201e-01,9.99999e-01
7.688012511e-01,9.49772e-01,9.99999e-01,9.99999e-01,9.99571e-01,9.50179e-01,9.99999e-01
7.726452574e-01,9.50803e-01,9.99999e-01,9.99999e-01,9.99647e-01,9.51138e-01,9.99999e-01
7.765084837e-01,9.51601e-01,9.99999e-01,9.99999e-01,9.99497e-01,9.52080e-01,9.99998e-01
7.803910261e-01,9.50933e-01,9.99999e-01,9.99999e-01,9.97828e-01,9.53004e-01,9.99997e-01
7.842929812e-01,9.46684e-01,9.99999e-01,9.99999e-01,9.92437e-01,9.53910e-01,9.99985e-01
7.882144461e-01,9.39936e-01,9.99999e-01,9.99999e-01,9.84537e-01,9.54800e-01,9.99892e-01
7.921555184e-01,9.47390e-01,9.99999e-01,9.99999e-01,9.91516e-01,9.55673e-01,9.99814e-01
7.961162960e-01,9.41991e-01,9.99999e-01,9.99999e-01,9.84974e-01,9.56529e-01,9.99823e-01
8.000968774e-01,9.40625e-01,9.99999e-01,9.99999e-01,9.82694e-01,9.57369e-01,9.99811e-01
8.040973618e-01,9.41467e-01,9.99999e-01,9.99999e-01,9.82683e-01,9.58193e-01,9.99856e-01
8.081178486e-01,9.21822e-01,9.99999e-01,9.99999e-01,9.61370e-01,9.59002e-01,9.99854e-01
8.121584379e-01,8.15082e-01,9.99999e-01,9.99999e-01,8.49691e-01,9.59795e-01,9.99450e-01
8.162192301e-01,7.91168e-01,9.99999e-01,9.99999e-01,8.25345e-01,9.60573e-01,9.97935e-01
8.203003262e-01,8.72625e-01,9.99999e-01,9.99999e-01,9.09919e-01,9.61337e-01,9.97582e-01
8.244018279e-01,8.43913e-01,9.99999e-01,9.99999e-01,8.78860e-01,9.62086e-01,9.98075e-01
8.285238370e-01,8.56459e-01,9.99999e-01,9.99999e-01,8.90877e-01,9.62821e-01,9.98488e-01
8.326664562e-01,8.57174e-01,9.99999e-01,9.99999e-01,8.90163e-01,9.63541e-01,9.99374e-01
8.368297885e-01,8.86863e-01,9.99999e-01,9.99999e-01,9.19876e-01,9.64249e-01,9.99856e-01
8.410139374e-01,9.18103e-01,9.99999e-01,9.99999e-01,9.51537e-01,9.64942e-01,9.99915e-01
8.452190071e-01,9.42331e-01,9.99999e-01,9.99999e-01,9.75927e-01,9.65623e-01,9.99949e-01
8.494451021e-01,9.52660e-01,9.99999e-01,9.99999e-01,9.85933e-01,9.66290e-01,9.99959e-01
8.536923276e-01,9.58870e-01,9.99999e-01,9.99999e-01,9.91672e-01,9.66945e-01,9.99975e-01
8.579607893e-01,9.62605e-01,9.99999e-01,9.99999e-01,9.94856e-01,9.67587e-01,9.99993e-01
8.622505932e-01,9.65054e-01,9.99999e-01,9.99999e-01,9.96733e-01,9.68217e-01,9.99998e-01
8.665618462e-01,9.66873e-01,9.99999e-01,9.99999e-01,9.97975e-01,9.68835e-01,9.99998e-01
8.708946554e-01,9.67190e-01,9.99999e-01,9.99999e-01,9.97679e-01,9.69441e-01,9.99998e-01
8.752491287e-01,9.67023e-01,9.99999e-01,9.99999e-01,9.96897e-01,9.70035e-01,9.99996e-01
8.796253743e-01,9.66435e-01,9.99999e-01,9.99999e-01,9.95699e-01,9.70618e-01,9.99989e-01
8.840235012e-01,9.66394e-01,9.99999e-01,9.99999e-01,9.95091e-01,9.71190e-01,9.99969e-01
8.884436187e-01,9.54317e-01,9.99999e-01,9.99999e-01,9.82142e-01,9.71751e-01,9.99914e-01
8.928858368e-01,8.06373e-01,9.99999e-01,9.99999e-01,8.29750e-01,9.72301e-01,9.99509e-01
8.973502660e-01,6.99810e-01,9.99999e-01,9.99999e-01,7.21157e-01,9.72841e-01,9.97488e-01
9.018370173e-01,8.21056e-01,9.99999e-01,9.99999e-01,8.46859e-01,9.73370e-01,9.96054e-01
9.063462024e-01,8.36945e-01,9.99999e-01,9.99999e-01,8.62372e-01,9.73889e-01,9.96533e-01
9.108779334e-01,7.71336e-01,9.99999e-01,9.99999e-01,7.94463e-01,9.74398e-01,9.96397e-01
9.154323231e-01,7.47789e-01,9.99999e-01,9.99999e-01,7.69334e-01,9.74898e-01,9.97021e-01
9.200094847e-01,7.93804e-01,9.99999e-01,9.99999e-01,8.15194e-01,9.75387e-01,9.98331e-01
9.246095321e-01,7.14724e-01,9.99999e-01,9.99999e-01,7.33808e-01,9.75867e-01,9.98078e-01
9.292325798e-01,1.45041e-01,9.99999e-01,9.99999e-01,1.49675e-01,9.76338e-01,9.92526e-01
9.338787427e-01,8.07053e-02,9.99999e-01,9.99999e-01,8.52241e-02,9.76800e-01,9.69467e-01
9.385481364e-01,3.44870e-01,9.99999e-01,9.99999e-01,3.66155e-01,9.77253e-01,9.63792e-01
9.432408771e-01,2.47311e-01,9.99999e-01,9.99999e-01,2.61129e-01,9.77698e-01,9.68684e-01
9.479570815e-01,1.47183e-01,9.99999e-01,9.99999e-01,1.54420e-01,9.78133e-01,9.74437e-01
9.526968669e-01,2.25812e-01,9.99999e-01,9.99999e-01,2.34433e-01,9.78560e-01,9.84329e-01
9.574603512e-01,2.42688e-01,9.99999e-01,9.99999e-01,2.49896e-01,9.78979e-01,9.92009e-01
9.622476530e-01,3.08349e-01,9.99999e-01,9.99999e-01,3.16588e-01,9.79390e-01,9.94467e-01
9.670588912e-01,4.98697e-01,9.99999e-01,9.99999e-01,5.10915e-01,9.79793e-01,9.96212e-01
9.718941857e-01,6.33348e-01,9.99999e-01,9.99999e-01,6.47956e-01,9.80188e-01,9.97210e-01
9.767536566e-01,6.81979e-01,9.99999e-01,9.99999e-01,6.96973e-01,9.80576e-01,9.97867e-01
9.816374249e-01,7.49107e-01,9.99999e-01,9.99999e-01,7.64214e-01,9.80956e-01,9.99261e-01
9.865456120e-01,8.28924e-01,9.99999e-01,9.99999e-01,8.44825e-01,9.81328e-01,9.99845e-01
9.914783401e-01,8.84204e-01,9.99999e-01,9.99999e-01,9.00730e-01,9.81694e-01,9.99956e-01
9.964357318e-01,9.27673e-01,9.99999e-01,9.99999e-01,9.44649e-01,9.82052e-01,9.99974e-01
1.001417910e+00,9.49390e-01,9.99999e-01,9.99999e-01,9.66431e-01,9.82404e-01,9.99961e-01
1.006425000e+00,9.63729e-01,9.99999e-01,9.99999e-01,9.80700e-01,9.82748e-01,9.99945e-01
1.011457125e+00,9.71234e-01,9.99999e-01,9.99999e-01,9.87993e-01,9.83086e-01,9.99949e-01
1.016514411e+00,9.75346e-01,9.99999e-01,9.99999e-01,9.91827e-01,9.83417e-01,9.99964e-01
1.021596983e+00,9.77295e-01,9.99999e-01,9.99999e-01,9.93480e-01,9.83742e-01,9.99964e-01
1.026704968e+00,9.79032e-01,9.99999e-01,9.99999e-01,9.94911e-01,9.84061e-01,9.99977e-01
1.031838492e+00,9.80728e-01,9.99999e-01,9.99999e-01,9.96302e-01,9.84373e-01,9.99992e-01
1.036997685e+00,9.82513e-01,9.99999e-01,9.99999e-01,9.97800e-01,9.84679e-01,9.99998e-01
1.042182673e+00,9.82392e-01,9.99999e-01,9.99999e-01,9.97373e-01,9.84980e-01,9.99999e-01
1.047393587e+00,9.81846e-01,9.99999e-01,9.99999e-01,9.96521e-01,9.85274e-01,9.99998e-01
1.052630555e+00,9.80857e-01,9.99999e-01,9.99999e-01,9.95225e-01,9.85563e-01,9.99998e-01
1.057893707e+00,9.77993e-01,9.99999e-01,9.99999e-01,9.92036e-01,9.85846e-01,9.99996e-01
1.063183176e+00,9.73236e-01,9.99999e-01,9.99999e-01,9.86937e-01,9.86123e-01,9.99992e-01
1.068499092e+00,9.64919e-01,9.99999e-01,9.99999e-01,9.78240e-01,9.86396e-01,9.99984e-01
1.073841587e+00,9.61561e-01,9.99999e-01,9.99999e-01,9.74589e-01,9.86663e-01,9.99967e-01
1.079210795e+00,9.54841e-01,9.99999e-01,9.99999e-01,9.67576e-01,9.86924e-01,9.99911e-01
1.084606849e+00,9.38945e-01,9.99999e-01,9.99999e-01,9.51338e-01,9.87181e-01,9.99788e-01
1.090029883e+00,9.18729e-01,9.99999e-01,9.99999e-01,9.30828e-01,9.87432e-01,9.99561e-01
1.095480033e+00,8.12144e-01,9.99999e-01,9.99999e-01,8.22926e-01,9.87679e-01,9.99207e-01
1.100957433e+00,6.05148e-01,9.99999e-01,9.99999e-01,6.13440e-01,9.87921e-01,9.98542e-01
1.106462220e+00,3.00580e-01,9.99999e-01,9.99999e-01,3.04935e-01,9.88158e-01,9.97529e-01
1.111994531e+00,8.71090e-02,9.99999e-01,9.99999e-01,8.87126e-02,9.88391e-01,9.93454e-01
1.117554504e+00,2.23650e-02,9.99999e-01,9.99999e-01,2.31652e-02,9.88619e-01,9.76570e-01
1.123142276e+00,7.25555e-02,9.99999e-01,9.99999e-01,7.76175e-02,9.88842e-01,9.45329e-01
1.128757988e+00,1.52424e-01,9.99999e-01,9.99999e-01,1.64466e-01,9.89061e-01,9.37030e-01
1.134401778e+00,6.92475e-02,9.99999e-01,9.99999e-01,7.39782e-02,9.89276e-01,9.46198e-01
1.140073787e+00,3.04737e-01,9.99999e-01,9.99999e-01,3.21888e-01,9.89487e-01,9.56775e-01
1.145774156e+00,1.07092e-01,9.99999e-01,9.99999e-01,1.12674e-01,9.89694e-01,9.60360e-01
1.151503026e+00,8.62499e-02,9.99999e-01,9.99999e-01,8.91156e-02,9.89896e-01,9.77719e-01
1.157260541e+00,1.10803e-01,9.99999e-01,9.99999e-01,1.12668e-01,9.90095e-01,9.93285e-01
1.163046844e+00,1.93816e-01,9.99999e-01,9.99999e-01,1.96091e-01,9.90289e-01,9.98092e-01
1.168862078e+00,3.06927e-01,9.99999e-01,9.99999e-01,3.10181e-01,9.90480e-01,9.99016e-01
1.174706389e+00,4.78856e-01,9.99999e-01,9.99999e-01,4.83997e-01,9.90667e-01,9.98696e-01
1.180579921e+00,6.33717e-01,9.99999e-01,9.99999e-01,6.40830e-01,9.90851e-01,9.98029e-01
1.186482820e+00,7.67325e-01,9.99999e-01,9.99999e-01,7.75837e-01,9.91031e-01,9.97977e-01
1.192415234e+00,8.52963e-01,9.99999e-01,9.99999e-01,8.61834e-01,9.91207e-01,9.98485e-01
1.198377311e+00,8.73331e-01,9.99999e-01,9.99999e-01,8.82185e-01,9.91380e-01,9.98569e-01
1.204369197e+00,8.79935e-01,9.99999e-01,9.99999e-01,8.88584e-01,9.91549e-01,9.98705e-01
1.210391043e+00,8.84862e-01,9.99999e-01,9.99999e-01,8.92956e-01,9.91716e-01,9.99212e-01
1.216442998e+00,9.00461e-01,9.99999e-01,9.99999e-01,9.08271e-01,9.91879e-01,9.99517e-01
1.222525213e+00,9.20001e-01,9.99999e-01,9.99999e-01,9.27662e-01,9.92038e-01,9.99699e-01
1.228637839e+00,9.41619e-01,9.99999e-01,9.99999e-01,9.49157e-01,9.92195e-01,9.99860e-01
