#,Wave/freq,Total,N2,O2,H2O,Rayleigh,CIA
4.000000000e-01,8.64273e-01,9.99999e-01,9.99999e-01,9.99983e-01,8.64287e-01,9.99999e-01
4.020000000e-01,8.66774e-01,9.99999e-01,9.99999e-01,9.99989e-01,8.66783e-01,9.99999e-01
4.040100000e-01,8.69230e-01,9.99999e-01,9.99999e-01,9.99995e-01,8.69234e-01,9.99999e-01
4.060300500e-01,8.71643e-01,9.99999e-01,9.99999e-01,9.99998e-01,8.71644e-01,9.99999e-01
4.080602003e-01,8.74012e-01,9.99999e-01,9.99999e-01,9.99999e-01,8.74012e-01,9.99999e-01
4.101005013e-01,8.76340e-01,9.99999e-01,9.99999e-01,9.99999e-01,8.76340e-01,9.99999e-01
4.121510038e-01,8.78627e-01,9.99999e-01,9.99999e-01,9.99998e-01,8.78628e-01,9.99999e-01
4.142117588e-01,8.80872e-01,9.99999e-01,9.99999e-01,9.99995e-01,8.80876e-01,9.99999e-01
4.162828176e-01,8.83068e-01,9.99999e-01,9.99999e-01,9.99979e-01,8.83086e-01,9.99999e-01
4.183642317e-01,8.85247e-01,9.99999e-01,9.99999e-01,9.99987e-01,8.85257e-01,9.99999e-01
4.204560528e-01,8.87385e-01,9.99999e-01,9.99999e-01,9.99992e-01,8.87391e-01,9.99999e-01
4.225583331e-01,8.89485e-01,9.99999e-01,9.99999e-01,9.99996e-01,8.89488e-01,9.99999e-01
4.246711247e-01,8.91546e-01,9.99999e-01,9.99999e-01,9.99997e-01,8.91548e-01,9.99999e-01
4.267944804e-01,8.93569e-01,9.99999e-01,9.99999e-01,9.99996e-01,8.93571e-01,9.99999e-01
4.289284528e-01,8.95558e-01,9.99999e-01,9.99999e-01,9.99996e-01,8.95560e-01,9.99999e-01
4.310730950e-01,8.97512e-01,9.99999e-01,9.99999e-01,9.99998e-01,8.97513e-01,9.99999e-01
4.332284605e-01,8.99432e-01,9.99999e-01,9.99999e-01,9.99999e-01,8.99432e-01,9.99999e-01
4.353946028e-01,9.01317e-01,9.99999e-01,9.99999e-01,9.99999e-01,9.01317e-01,9.99999e-01
4.375715758e-01,9.03167e-01,9.99999e-01,9.99999e-01,9.99997e-01,9.03169e-01,9.99999e-01
4.397594337e-01,9.04971e-01,9.99999e-01,9.99999e-01,9.99981e-01,9.04987e-01,9.99999e-01
4.419582309e-01,9.06692e-01,9.99999e-01,9.99999e-01,9.99909e-01,9.06774e-01,9.99999e-01
4.441680220e-01,9.08464e-01,9.99999e-01,9.99999e-01,9.99928e-01,9.08528e-01,9.99999e-01
4.463888621e-01,9.10184e-01,9.99999e-01,9.99999e-01,9.99925e-01,9.10251e-01,9.99999e-01
4.486208064e-01,9.11902e-01,9.99999e-01,9.99999e-01,9.99953e-01,9.11944e-01,9.99999e-01
4.508639105e-01,9.13586e-01,9.99999e-01,9.99999e-01,9.99977e-01,9.13606e-01,9.99999e-01
4.531182300e-01,9.15230e-01,9.99999e-01,9.99999e-01,9.99990e-01,9.15238e-01,9.99999e-01
4.553838212e-01,9.16835e-01,9.99999e-01,9.99999e-01,9.99993e-01,9.16840e-01,9.99999e-01
4.576607403e-01,9.18411e-01,9.99999e-01,9.99999e-01,9.99996e-01,9.18414e-01,9.99999e-01
4.599490440e-01,9.19957e-01,9.99999e-01,9.99999e-01,9.99997e-01,9.19959e-01,9.99999e-01
4.622487892e-01,9.21476e-01,9.99999e-01,9.99999e-01,9.99999e-01,9.21476e-01,9.99999e-01
4.645600332e-01,9.22965e-01,9.99999e-01,9.99999e-01,9.99998e-01,9.22966e-01,9.99999e-01
4.668828333e-01,9.24409e-01,9.99999e-01,9.99999e-01,9.99977e-01,9.24429e-01,9.99999e-01
4.692172475e-01,9.25822e-01,9.99999e-01,9.99999e-01,9.99953e-01,9.25864e-01,9.99999e-01
4.715633337e-01,9.27246e-01,9.99999e-01,9.99999e-01,9.99969e-01,9.27274e-01,9.99999e-01
4.739211504e-01,9.28631e-01,9.99999e-01,9.99999e-01,9.99970e-01,9.28658e-01,9.99999e-01
4.762907561e-01,9.30003e-01,9.99999e-01,9.99999e-01,9.99984e-01,9.30017e-01,9.99999e-01
4.786722099e-01,9.31345e-01,9.99999e-01,9.99999e-01,9.99993e-01,9.31351e-01,9.99999e-01
4.810655710e-01,9.32658e-01,9.99999e-01,9.99999e-01,9.99997e-01,9.32660e-01,9.99999e-01
4.834708988e-01,9.33929e-01,9.99999e-01,9.99999e-01,9.99982e-01,9.33945e-01,9.99999e-01
4.858882533e-01,9.35176e-01,9.99999e-01,9.99999e-01,9.99966e-01,9.35206e-01,9.99999e-01
4.883176946e-01,9.36419e-01,9.99999e-01,9.99999e-01,9.99972e-01,9.36445e-01,9.99999e-01
4.907592831e-01,9.37637e-01,9.99999e-01,9.99999e-01,9.99974e-01,9.37660e-01,9.99999e-01
4.932130795e-01,9.38836e-01,9.99999e-01,9.99999e-01,9.99981e-01,9.38853e-01,9.99999e-01
4.956791449e-01,9.40015e-01,9.99999e-01,9.99999e-01,9.99990e-01,9.40024e-01,9.99999e-01
4.981575406e-01,9.41129e-01,9.99999e-01,9.99999e-01,9.99953e-01,9.41173e-01,9.99999e-01
5.006483283e-01,9.42187e-01,9.99999e-01,9.99999e-01,9.99879e-01,9.42301e-01,9.99998e-01
5.031515699e-01,9.42825e-01,9.99999e-01,9.99999e-01,9.99388e-01,9.43408e-01,9.99993e-01
5.056673278e-01,9.44182e-01,9.99999e-01,9.99999e-01,9.99676e-01,9.44494e-01,9.99992e-01
5.081956644e-01,9.45170e-01,9.99999e-01,9.99999e-01,9.99591e-01,9.45560e-01,9.99994e-01
5.107366428e-01,9.46344e-01,9.99999e-01,9.99999e-01,9.99723e-01,9.46606e-01,9.99998e-01
5.132903260e-01,9.47483e-01,9.99999e-01,9.99999e-01,9.99841e-01,9.47632e-01,9.99999e-01
5.158567776e-01,9.48576e-01,9.99999e-01,9.99999e-01,9.99932e-01,9.48640e-01,9.99999e-01
5.184360615e-01,9.49603e-01,9.99999e-01,9.99999e-01,9.99972e-01,9.49628e-01,9.99999e-01
5.210282418e-01,9.50589e-01,9.99999e-01,9.99999e-01,9.99989e-01,9.50598e-01,9.99999e-01
5.236333830e-01,9.51512e-01,9.99999e-01,9.99999e-01,9.99959e-01,9.51550e-01,9.99999e-01
5.262515499e-01,9.52460e-01,9.99999e-01,9.99999e-01,9.99974e-01,9.52484e-01,9.99999e-01
5.288828077e-01,9.53378e-01,9.99999e-01,9.99999e-01,9.99976e-01,9.53400e-01,9.99999e-01
5.315272217e-01,9.54280e-01,9.99999e-01,9.99999e-01,9.99979e-01,9.54299e-01,9.99999e-01
5.341848578e-01,9.55169e-01,9.99999e-01,9.99999e-01,9.99986e-01,9.55181e-01,9.99999e-01
5.368557821e-01,9.56003e-01,9.99999e-01,9.99999e-01,9.99953e-01,9.56047e-01,9.99999e-01
5.395400610e-01,9.56736e-01,9.99999e-01,9.99999e-01,9.99833e-01,9.56896e-01,9.99998e-01
5.422377613e-01,9.57518e-01,9.99999e-01,9.99999e-01,9.99782e-01,9.57729e-01,9.99995e-01
5.449489501e-01,9.58350e-01,9.99999e-01,9.99999e-01,9.99798e-01,9.58546e-01,9.99995e-01
5.476736949e-01,9.59175e-01,9.99999e-01,9.99999e-01,9.99820e-01,9.59348e-01,9.99997e-01
5.504120634e-01,9.60010e-01,9.99999e-01,9.99999e-01,9.99869e-01,9.60135e-01,9.99998e-01
5.531641237e-01,9.60844e-01,9.99999e-01,9.99999e-01,9.99934e-01,9.60907e-01,9.99999e-01
5.559299443e-01,9.61634e-01,9.99999e-01,9.99999e-01,9.99967e-01,9.61664e-01,9.99999e-01
5.587095940e-01,9.62388e-01,9.99999e-01,9.99999e-01,9.99979e-01,9.62407e-01,9.99999e-01
5.615031420e-01,9.63114e-01,9.99999e-01,9.99999e-01,9.99977e-01,9.63136e-01,9.99999e-01
5.643106577e-01,9.63826e-01,9.99999e-01,9.99999e-01,9.99974e-01,9.63850e-01,9.99999e-01
5.671322110e-01,9.64261e-01,9.99999e-01,9.99999e-01,9.99701e-01,9.64552e-01,9.99996e-01
5.699678720e-01,9.64919e-01,9.99999e-01,9.99999e-01,9.99675e-01,9.65239e-01,9.99991e-01
5.728177114e-01,9.65585e-01,9.99999e-01,9.99999e-01,9.99665e-01,9.65914e-01,9.99992e-01
5.756818000e-01,9.66275e-01,9.99999e-01,9.99999e-01,9.99692e-01,9.66576e-01,9.99995e-01
5.785602090e-01,9.66965e-01,9.99999e-01,9.99999e-01,9.99731e-01,9.67225e-01,9.99998e-01
5.814530100e-01,9.67601e-01,9.99999e-01,9.99999e-01,9.99730e-01,9.67862e-01,9.99998e-01
5.843602750e-01,9.68176e-01,9.99999e-01,9.99999e-01,9.99680e-01,9.68487e-01,9.99997e-01
5.872820764e-01,9.66414e-01,9.99999e-01,9.99999e-01,9.97247e-01,9.69100e-01,9.99980e-01
5.902184868e-01,9.66396e-01,9.99999e-01,9.99999e-01,9.96644e-01,9.69701e-01,9.99946e-01
5.931695792e-01,9.67945e-01,9.99999e-01,9.99999e-01,9.97633e-01,9.70290e-01,9.99948e-01
5.961354271e-01,9.68316e-01,9.99999e-01,9.99999e-01,9.97402e-01,9.70868e-01,9.99968e-01
5.991161043e-01,9.69585e-01,9.99999e-01,9.99999e-01,9.98103e-01,9.71435e-01,9.99990e-01
6.021116848e-01,9.70944e-01,9.99999e-01,9.99999e-01,9.98922e-01,9.71992e-01,9.99998e-01
6.051222432e-01,9.72007e-01,9.99999e-01,9.99999e-01,9.99454e-01,9.72537e-01,9.99999e-01
6.081478544e-01,9.72844e-01,9.99999e-01,9.99999e-01,9.99764e-01,9.73072e-01,9.99999e-01
6.111885937e-01,9.73500e-01,9.99999e-01,9.99999e-01,9.99899e-01,9.73597e-01,9.99999e-01
6.142445367e-01,9.74068e-01,9.99999e-01,9.99999e-01,9.99955e-01,9.74112e-01,9.99999e-01
6.173157594e-01,9.74593e-01,9.99999e-01,9.99999e-01,9.99975e-01,9.74616e-01,9.99999e-01
6.204023382e-01,9.75091e-01,9.99999e-01,9.99999e-01,9.99978e-01,9.75112e-01,9.99999e-01
6.235043498e-01,9.75509e-01,9.99999e-01,9.99999e-01,9.99909e-01,9.75597e-01,9.99999e-01
6.266218716e-01,9.75600e-01,9.99999e-01,9.99999e-01,9.99517e-01,9.76073e-01,9.99996e-01
6.297549810e-01,9.76361e-01,9.99999e-01,9.99999e-01,9.99822e-01,9.76540e-01,9.99992e-01
6.329037559e-01,9.76651e-01,9.99999e-01,9.99999e-01,9.99649e-01,9.76998e-01,9.99994e-01
6.360682746e-01,9.77154e-01,9.99999e-01,9.99999e-01,9.99702e-01,9.77447e-01,9.99996e-01
6.392486160e-01,9.77510e-01,9.99999e-01,9.99999e-01,9.99613e-01,9.77888e-01,9.99998e-01
6.424448591e-01,9.77816e-01,9.99999e-01,9.99999e-01,9.99486e-01,9.78320e-01,9.99997e-01
6.456570834e-01,9.76399e-01,9.99999e-01,9.99999e-01,9.97617e-01,9.78744e-01,9.99986e-01
6.488853688e-01,9.77106e-01,9.99999e-01,9.99999e-01,9.97940e-01,9.79159e-01,9.99962e-01
6.521297956e-01,9.77780e-01,9.99999e-01,9.99999e-01,9.98207e-01,9.79566e-01,9.99968e-01
6.553904446e-01,9.78209e-01,9.99999e-01,9.99999e-01,9.98229e-01,9.79966e-01,9.99976e-01
6.586673968e-01,9.78852e-01,9.99999e-01,9.99999e-01,9.98471e-01,9.80358e-01,9.99991e-01
6.619607338e-01,9.79874e-01,9.99999e-01,9.99999e-01,9.99116e-01,9.80742e-01,9.99997e-01
6.652705375e-01,9.80615e-01,9.99999e-01,9.99999e-01,9.99487e-01,9.81119e-01,9.99998e-01
6.685968902e-01,9.81255e-01,9.99999e-01,9.99999e-01,9.99761e-01,9.81488e-01,9.99999e-01
6.719398746e-01,9.81742e-01,9.99999e-01,9.99999e-01,9.99889e-01,9.81850e-01,9.99999e-01
6.752995740e-01,9.82147e-01,9.99999e-01,9.99999e-01,9.99939e-01,9.82206e-01,9.99999e-01
6.786760719e-01,9.82470e-01,9.99999e-01,9.99999e-01,9.99913e-01,9.82554e-01,9.99999e-01
6.820694522e-01,9.82751e-01,9.99999e-01,9.99999e-01,9.99852e-01,9.82896e-01,9.99998e-01
6.854797995e-01,9.83043e-01,9.99999e-01,9.99999e-01,9.99810e-01,9.83231e-01,9.99997e-01
6.889071985e-01,9.83109e-01,9.99999e-01,9.99999e-01,9.99546e-01,9.83559e-01,9.99995e-01
6.923517345e-01,9.76515e-01,9.99999e-01,9.99999e-01,9.92547e-01,9.83881e-01,9.99963e-01
6.958134932e-01,9.80241e-01,9.99999e-01,9.99999e-01,9.96060e-01,9.84197e-01,9.99918e-01
6.992925606e-01,9.80807e-01,9.99999e-01,9.99999e-01,9.96312e-01,9.84507e-01,9.99928e-01
7.027890234e-01,9.80249e-01,9.99999e-01,9.99999e-01,9.95422e-01,9.84810e-01,9.99944e-01
7.063029686e-01,9.81293e-01,9.99999e-01,9.99999e-01,9.96153e-01,9.85108e-01,9.99972e-01
7.098344834e-01,9.81748e-01,9.99999e-01,9.99999e-01,9.96309e-01,9.85400e-01,9.99983e-01
7.133836558e-01,9.80853e-01,9.99999e-01,9.99999e-01,9.95127e-01,9.85686e-01,9.99967e-01
7.169505741e-01,9.47439e-01,9.99999e-01,9.99999e-01,9.61165e-01,9.85967e-01,9.99747e-01
7.205353270e-01,9.66649e-01,9.99999e-01,9.99999e-01,9.80568e-01,9.86242e-01,9.99555e-01
7.241380036e-01,9.62135e-01,9.99999e-01,9.99999e-01,9.75662e-01,9.86512e-01,9.99615e-01
7.277586936e-01,9.64763e-01,9.99999e-01,9.99999e-01,9.77997e-01,9.86777e-01,9.99685e-01
7.313974871e-01,9.63724e-01,9.99999e-01,9.99999e-01,9.76524e-01,9.87036e-01,9.99852e-01
7.350544745e-01,9.74541e-01,9.99999e-01,9.99999e-01,9.87135e-01,9.87291e-01,9.99948e-01
7.387297469e-01,9.78154e-01,9.99999e-01,9.99999e-01,9.90517e-01,9.87540e-01,9.99976e-01
7.424233956e-01,9.83182e-01,9.99999e-01,9.99999e-01,9.95343e-01,9.87785e-01,9.99994e-01
7.461355126e-01,9.85238e-01,9.99999e-01,9.99999e-01,9.97180e-01,9.88025e-01,9.99998e-01
7.498661902e-01,9.86959e-01,9.99999e-01,9.99999e-01,9.98683e-01,9.88260e-01,9.99999e-01
7.536155211e-01,9.87854e-01,9.99999e-01,9.99999e-01,9.99355e-01,9.88490e-01,9.99999e-01
7.573835987e-01,9.88388e-01,9.99999e-01,9.99999e-01,9.99667e-01,9.88716e-01,9.99999e-01
7.611705167e-01,9.88734e-01,9.99999e-01,9.99999e-01,9.99793e-01,9.88938e-01,9.99999e-01
7.649763693e-01,9.89028e-01,9.99999e-01,9.99999e-01,9.99870e-01,9.89155e-01,9.99999e-01
7.688012511e-01,9.89280e-01,9.99999e-01,9.99999e-01,9.99909e-01,9.89368e-01,9.99999e-01
7.726452574e-01,9.89504e-01,9.99999e-01,9.99999e-01,9.99925e-01,9.89577e-01,9.99999e-01
7.765084837e-01,9.89679e-01,9.99999e-01,9.99999e-01,9.99895e-01,9.89782e-01,9.99999e-01
7.803910261e-01,9.89537e-01,9.99999e-01,9.99999e-01,9.99549e-01,9.89983e-01,9.99999e-01
7.842929812e-01,9.88621e-01,9.99999e-01,9.99999e-01,9.98428e-01,9.90180e-01,9.99996e-01
7.882144461e-01,9.87128e-01,9.99999e-01,9.99999e-01,9.96743e-01,9.90373e-01,9.99979e-01
7.921555184e-01,9.88748e-01,9.99999e-01,9.99999e-01,9.98206e-01,9.90562e-01,9.99961e-01
7.961162960e-01,9.87598e-01,9.99999e-01,9.99999e-01,9.96857e-01,9.90747e-01,9.99962e-01
8.000968774e-01,9.87280e-01,9.99999e-01,9.99999e-01,9.96355e-01,9.90929e-01,9.99960e-01
8.040973618e-01,9.87468e-01,9.99999e-01,9.99999e-01,9.96358e-01,9.91108e-01,9.99968e-01
8.081178486e-01,9.83167e-01,9.99999e-01,9.99999e-01,9.91841e-01,9.91283e-01,9.99970e-01
8.121584379e-01,9.57941e-01,9.99999e-01,9.99999e-01,9.66308e-01,9.91454e-01,9.99884e-01
8.162192301e-01,9.51366e-01,9.99999e-01,9.99999e-01,9.59817e-01,9.91622e-01,9.99567e-01
8.203003262e-01,9.71444e-01,9.99999e-01,9.99999e-01,9.79984e-01,9.91787e-01,9.99493e-01
8.244018279e-01,9.63370e-01,9.99999e-01,9.99999e-01,9.71580e-01,9.91948e-01,9.99596e-01
8.285238370e-01,9.67955e-01,9.99999e-01,9.99999e-01,9.75964e-01,9.92107e-01,9.99683e-01
8.326664562e-01,9.67950e-01,9.99999e-01,9.99999e-01,9.75625e-01,9.92262e-01,9.99868e-01
8.368297885e-01,9.75046e-01,9.99999e-01,9.99999e-01,9.82527e-01,9.92414e-01,9.99969e-01
8.410139374e-01,9.82209e-01,9.99999e-01,9.99999e-01,9.89585e-01,9.92564e-01,9.99982e-01
8.452190071e-01,9.87616e-01,9.99999e-01,9.99999e-01,9.94878e-01,9.92710e-01,9.99989e-01
8.494451021e-01,9.89901e-01,9.99999e-01,9.99999e-01,9.97034e-01,9.92853e-01,9.99991e-01
8.536923276e-01,9.91243e-01,9.99999e-01,9.99999e-01,9.98241e-01,9.92994e-01,9.99993e-01
8.579607893e-01,9.92057e-01,9.99999e-01,9.99999e-01,9.98919e-01,9.93132e-01,9.99998e-01
8.622505932e-01,9.92584e-01,9.99999e-01,9.99999e-01,9.99311e-01,9.93267e-01,9.99999e-01
8.665618462e-01,9.92978e-01,9.99999e-01,9.99999e-01,9.99575e-01,9.93400e-01,9.99999e-01
8.708946554e-01,9.93048e-01,9.99999e-01,9.99999e-01,9.99514e-01,9.93530e-01,9.99999e-01
8.752491287e-01,9.93011e-01,9.99999e-01,9.99999e-01,9.99350e-01,9.93657e-01,9.99998e-01
8.796253743e-01,9.92889e-01,9.99999e-01,9.99999e-01,9.99102e-01,9.93782e-01,9.99997e-01
8.840235012e-01,9.92879e-01,9.99999e-01,9.99999e-01,9.98974e-01,9.93904e-01,9.99993e-01
8.884436187e-01,9.90335e-01,9.99999e-01,9.99999e-01,9.96306e-01,9.94024e-01,9.99981e-01
8.928858368e-01,9.55591e-01,9.99999e-01,9.99999e-01,9.61319e-01,9.94142e-01,9.99896e-01
8.973502660e-01,9.26228e-01,9.99999e-01,9.99999e-01,9.32067e-01,9.94257e-01,9.99473e-01
9.018370173e-01,9.58317e-01,9.99999e-01,9.99999e-01,9.64539e-01,9.94370e-01,9.99172e-01
9.063462024e-01,9.63055e-01,9.99999e-01,9.99999e-01,9.69102e-01,9.94481e-01,9.99273e-01
9.108779334e-01,9.46177e-01,9.99999e-01,9.99999e-01,9.52041e-01,9.94590e-01,9.99245e-01
9.154323231e-01,9.40045e-01,9.99999e-01,9.99999e-01,9.45646e-01,9.94697e-01,9.99375e-01
9.200094847e-01,9.51772e-01,9.99999e-01,9.99999e-01,9.57079e-01,9.94801e-01,9.99650e-01
9.246095321e-01,9.29227e-01,9.99999e-01,9.99999e-01,9.34362e-01,9.94903e-01,9.99597e-01
9.292325798e-01,6.27618e-01,9.99999e-01,9.99999e-01,6.31759e-01,9.95004e-01,9.98431e-01
9.338787427e-01,5.44223e-01,9.99999e-01,9.99999e-01,5.50460e-01,9.95102e-01,9.93534e-01
9.385481364e-01,7.76230e-01,9.99999e-01,9.99999e-01,7.86014e-01,9.95199e-01,9.92314e-01
9.432408771e-01,7.08154e-01,9.99999e-01,9.99999e-01,7.16254e-01,9.95293e-01,9.93366e-01
9.479570815e-01,6.24489e-01,9.99999e-01,9.99999e-01,6.30790e-01,9.95386e-01,9.94597e-01
9.526968669e-01,7.01527e-01,9.99999e-01,9.99999e-01,7.07046e-01,9.95477e-01,9.96701e-01
9.574603512e-01,7.23886e-01,9.99999e-01,9.99999e-01,7.28330e-01,9.95566e-01,9.98322e-01
9.622476530e-01,7.68193e-01,9.99999e-01,9.99999e-01,7.72442e-01,9.95653e-01,9.98839e-01
9.670588912e-01,8.57611e-01,9.99999e-01,9.99999e-01,8.61964e-01,9.95739e-01,9.99206e-01
9.718941857e-01,9.07221e-01,9.99999e-01,9.99999e-01,9.11558e-01,9.95823e-01,9.99415e-01
9.767536566e-01,9.21842e-01,9.99999e-01,9.99999e-01,9.26045e-01,9.95905e-01,9.99553e-01
9.816374249e-01,9.40648e-01,9.99999e-01,9.99999e-01,9.44584e-01,9.95986e-01,9.99845e-01
9.865456120e-01,9.61188e-01,9.99999e-01,9.99999e-01,9.65015e-01,9.96065e-01,9.99967e-01
9.914783401e-01,9.74467e-01,9.99999e-01,9.99999e-01,9.78248e-01,9.96143e-01,9.99990e-01
9.964357318e-01,9.84354e-01,9.99999e-01,9.99999e-01,9.88095e-01,9.96219e-01,9.99994e-01
1.001417910e+00,9.89161e-01,9.99999e-01,9.99999e-01,9.92848e-01,9.96293e-01,9.99991e-01
1.006425000e+00,9.92295e-01,9.99999e-01,9.99999e-01,9.95924e-01,9.96366e-01,9.99988e-01
1.011457125e+00,9.93901e-01,9.99999e-01,9.99999e-01,9.97463e-01,9.96438e-01,9.99988e-01
1.016514411e+00,9.94787e-01,9.99999e-01,9.99999e-01,9.98279e-01,9.96508e-01,9.99992e-01
1.021596983e+00,9.95204e-01,9.99999e-01,9.99999e-01,9.98629e-01,9.96577e-01,9.99992e-01
1.026704968e+00,9.95575e-01,9.99999e-01,9.99999e-01,9.98931e-01,9.96645e-01,9.99994e-01
1.031838492e+00,9.95934e-01,9.99999e-01,9.99999e-01,9.99222e-01,9.96711e-01,9.99998e-01
1.036997685e+00,9.96316e-01,9.99999e-01,9.99999e-01,9.99538e-01,9.96776e-01,9.99999e-01
1.042182673e+00,9.96293e-01,9.99999e-01,9.99999e-01,9.99451e-01,9.96839e-01,9.99999e-01
1.047393587e+00,9.96176e-01,9.99999e-01,9.99999e-01,9.99271e-01,9.96901e-01,9.99999e-01
1.052630555e+00,9.95967e-01,9.99999e-01,9.99999e-01,9.99001e-01,9.96963e-01,9.99999e-01
1.057893707e+00,9.95362e-01,9.99999e-01,9.99999e-01,9.98335e-01,9.97022e-01,9.99998e-01
1.063183176e+00,9.94347e-01,9.99999e-01,9.99999e-01,9.97258e-01,9.97081e-01,9.99998e-01
1.068499092e+00,9.92558e-01,9.99999e-01,9.99999e-01,9.95408e-01,9.97139e-01,9.99996e-01
1.073841587e+00,9.91838e-01,9.99999e-01,9.99999e-01,9.94634e-01,9.97195e-01,9.99992e-01
1.079210795e+00,9.90364e-01,9.99999e-01,9.99999e-01,9.93112e-01,9.97250e-01,9.99981e-01
1.084606849e+00,9.86891e-01,9.99999e-01,9.99999e-01,9.89601e-01,9.97305e-01,9.99955e-01
1.090029883e+00,9.82457e-01,9.99999e-01,9.99999e-01,9.85149e-01,9.97358e-01,9.99907e-01
1.095480033e+00,9.57343e-01,9.99999e-01,9.99999e-01,9.59987e-01,9.97410e-01,9.99833e-01
1.100957433e+00,8.98810e-01,9.99999e-01,9.99999e-01,9.01372e-01,9.97461e-01,9.99694e-01
1.106462220e+00,7.65781e-01,9.99999e-01,9.99999e-01,7.68088e-01,9.97511e-01,9.99482e-01
1.111994531e+00,5.70692e-01,9.99999e-01,9.99999e-01,5.72874e-01,9.97560e-01,9.98626e-01
1.117554504e+00,4.02683e-01,9.99999e-01,9.99999e-01,4.05655e-01,9.97608e-01,9.95052e-01
1.123142276e+00,5.06647e-01,9.99999e-01,9.99999e-01,5.13845e-01,9.97655e-01,9.88308e-01
1.128757988e+00,6.43565e-01,9.99999e-01,9.99999e-01,6.53883e-01,9.97702e-01,9.86486e-01
1.134401778e+00,3.85693e-01,9.99999e-01,9.99999e-01,3.91061e-01,9.97747e-01,9.88497e-01
1.140073787e+00,7.67640e-01,9.99999e-01,9.99999e-01,7.76482e-01,9.97791e-01,9.90799e-01
1.145774156e+00,5.82811e-01,9.99999e-01,9.99999e-01,5.89038e-01,9.97835e-01,9.91574e-01
1.151503026e+00,5.50864e-01,9.99999e-01,9.99999e-01,5.54643e-01,9.97878e-01,9.95297e-01
1.157260541e+00,6.09633e-01,9.99999e-01,9.99999e-01,6.11765e-01,9.97920e-01,9.98591e-01
1.163046844e+00,6.93409e-01,9.99999e-01,9.99999e-01,6.95103e-01,9.97961e-01,9.99600e-01
1.168862078e+00,7.75152e-01,9.99999e-01,9.99999e-01,7.76864e-01,9.98001e-01,9.99793e-01
1.174706389e+00,8.53847e-01,9.99999e-01,9.99999e-01,8.55757e-01,9.98040e-01,9.99726e-01
1.180579921e+00,9.07370e-01,9.99999e-01,9.99999e-01,9.09490e-01,9.98079e-01,9.99587e-01
1.186482820e+00,9.45679e-01,9.99999e-01,9.99999e-01,9.47863e-01,9.98117e-01,9.99576e-01
1.192415234e+00,9.67172e-01,9.99999e-01,9.99999e-01,9.69267e-01,9.98154e-01,9.99682e-01
1.198377311e+00,9.72015e-01,9.99999e-01,9.99999e-01,9.74068e-01,9.98190e-01,9.99700e-01
1.204369197e+00,9.73429e-01,9.99999e-01,9.99999e-01,9.75422e-01,9.98226e-01,9.99728e-01
1.210391043e+00,9.74626e-01,9.99999e-01,9.99999e-01,9.76484e-01,9.98261e-01,9.99834e-01
1.216442998e+00,9.78162e-01,9.99999e-01,9.99999e-01,9.79930e-01,9.98295e-01,9.99898e-01
1.222525213e+00,9.82649e-01,9.99999e-01,9.99999e-01,9.84354e-01,9.98329e-01,9.99936e-01
1.228637839e+00,9.87469e-01,9.99999e-01,9.99999e-01,9.89118e-01,9.98362e-01,9.99970e-01
