#,Wave/freq,Total,N2,O2,H2O,Rayleigh,CIA
4.000000000e-01,8.94335e-01,9.99999e-01,9.99999e-01,9.99986e-01,8.94346e-01,9.99999e-01
4.020000000e-01,8.96316e-01,9.99999e-01,9.99999e-01,9.99991e-01,8.96323e-01,9.99999e-01
4.040100000e-01,8.98260e-01,9.99999e-01,9.99999e-01,9.99996e-01,8.98263e-01,9.99999e-01
4.060300500e-01,9.00168e-01,9.99999e-01,9.99999e-01,9.99998e-01,9.00169e-01,9.99999e-01
4.080602003e-01,9.02040e-01,9.99999e-01,9.99999e-01,9.99999e-01,9.02041e-01,9.99999e-01
4.101005013e-01,9.03879e-01,9.99999e-01,9.99999e-01,9.99999e-01,9.03879e-01,9.99999e-01
4.121510038e-01,9.05685e-01,9.99999e-01,9.99999e-01,9.99999e-01,9.05685e-01,9.99999e-01
4.142117588e-01,9.07456e-01,9.99999e-01,9.99999e-01,9.99996e-01,9.07459e-01,9.99999e-01
4.162828176e-01,9.09187e-01,9.99999e-01,9.99999e-01,9.99983e-01,9.09202e-01,9.99999e-01
4.183642317e-01,9.10904e-01,9.99999e-01,9.99999e-01,9.99990e-01,9.10913e-01,9.99999e-01
4.204560528e-01,9.12588e-01,9.99999e-01,9.99999e-01,9.99993e-01,9.12593e-01,9.99999e-01
4.225583331e-01,9.14241e-01,9.99999e-01,9.99999e-01,9.99997e-01,9.14243e-01,9.99999e-01
4.246711247e-01,9.15862e-01,9.99999e-01,9.99999e-01,9.99997e-01,9.15864e-01,9.99999e-01
4.267944804e-01,9.17453e-01,9.99999e-01,9.99999e-01,9.99996e-01,9.17455e-01,9.99999e-01
4.289284528e-01,9.19016e-01,9.99999e-01,9.99999e-01,9.99997e-01,9.19018e-01,9.99999e-01
4.310730950e-01,9.20551e-01,9.99999e-01,9.99999e-01,9.99998e-01,9.20552e-01,9.99999e-01
4.332284605e-01,9.22058e-01,9.99999e-01,9.99999e-01,9.99999e-01,9.22058e-01,9.99999e-01
4.353946028e-01,9.23537e-01,9.99999e-01,9.99999e-01,9.99999e-01,9.23538e-01,9.99999e-01
4.375715758e-01,9.24988e-01,9.99999e-01,9.99999e-01,9.99998e-01,9.24990e-01,9.99999e-01
4.397594337e-01,9.26403e-01,9.99999e-01,9.99999e-01,9.99985e-01,9.26415e-01,9.99999e-01
4.419582309e-01,9.27752e-01,9.99999e-01,9.99999e-01,9.99931e-01,9.27815e-01,9.99999e-01
4.441680220e-01,9.29138e-01,9.99999e-01,9.99999e-01,9.99944e-01,9.29189e-01,9.99999e-01
4.463888621e-01,9.30485e-01,9.99999e-01,9.99999e-01,9.99942e-01,9.30538e-01,9.99999e-01
4.486208064e-01,9.31829e-01,9.99999e-01,9.99999e-01,9.99964e-01,9.31862e-01,9.99999e-01
4.508639105e-01,9.33147e-01,9.99999e-01,9.99999e-01,9.99982e-01,9.33162e-01,9.99999e-01
4.531182300e-01,9.34432e-01,9.99999e-01,9.99999e-01,9.99992e-01,9.34438e-01,9.99999e-01
4.553838212e-01,9.35686e-01,9.99999e-01,9.99999e-01,9.99995e-01,9.35690e-01,9.99999e-01
4.576607403e-01,9.36918e-01,9.99999e-01,9.99999e-01,9.99997e-01,9.36920e-01,9.99999e-01
4.599490440e-01,9.38125e-01,9.99999e-01,9.99999e-01,9.99998e-01,9.38126e-01,9.99999e-01
4.622487892e-01,9.39310e-01,9.99999e-01,9.99999e-01,9.99999e-01,9.39311e-01,9.99999e-01
4.645600332e-01,9.40472e-01,9.99999e-01,9.99999e-01,9.99998e-01,9.40473e-01,9.99999e-01
4.668828333e-01,9.41598e-01,9.99999e-01,9.99999e-01,9.99983e-01,9.41614e-01,9.99999e-01
4.692172475e-01,9.42700e-01,9.99999e-01,9.99999e-01,9.99964e-01,9.42733e-01,9.99999e-01
4.715633337e-01,9.43810e-01,9.99999e-01,9.99999e-01,9.99976e-01,9.43832e-01,9.99999e-01
4.739211504e-01,9.44889e-01,9.99999e-01,9.99999e-01,9.99977e-01,9.44910e-01,9.99999e-01
4.762907561e-01,9.45958e-01,9.99999e-01,9.99999e-01,9.99987e-01,9.45969e-01,9.99999e-01
4.786722099e-01,9.47002e-01,9.99999e-01,9.99999e-01,9.99994e-01,9.47007e-01,9.99999e-01
4.810655710e-01,9.48025e-01,9.99999e-01,9.99999e-01,9.99998e-01,9.48026e-01,9.99999e-01
4.834708988e-01,9.49013e-01,9.99999e-01,9.99999e-01,9.99986e-01,9.49026e-01,9.99999e-01
4.858882533e-01,9.49983e-01,9.99999e-01,9.99999e-01,9.99974e-01,9.50007e-01,9.99999e-01
4.883176946e-01,9.50950e-01,9.99999e-01,9.99999e-01,9.99978e-01,9.50970e-01,9.99999e-01
4.907592831e-01,9.51897e-01,9.99999e-01,9.99999e-01,9.99980e-01,9.51915e-01,9.99999e-01
4.932130795e-01,9.52829e-01,9.99999e-01,9.99999e-01,9.99986e-01,9.52842e-01,9.99999e-01
4.956791449e-01,9.53745e-01,9.99999e-01,9.99999e-01,9.99992e-01,9.53751e-01,9.99999e-01
4.981575406e-01,9.54610e-01,9.99999e-01,9.99999e-01,9.99964e-01,9.54644e-01,9.99999e-01
5.006483283e-01,9.55432e-01,9.99999e-01,9.99999e-01,9.99908e-01,9.55520e-01,9.99998e-01
5.031515699e-01,9.55927e-01,9.99999e-01,9.99999e-01,9.99532e-01,9.56379e-01,9.99994e-01
5.056673278e-01,9.56979e-01,9.99999e-01,9.99999e-01,9.99752e-01,9.57222e-01,9.99993e-01
5.081956644e-01,9.57746e-01,9.99999e-01,9.99999e-01,9.99687e-01,9.58049e-01,9.99995e-01
5.107366428e-01,9.58657e-01,9.99999e-01,9.99999e-01,9.99788e-01,9.58860e-01,9.99998e-01
5.132903260e-01,9.59540e-01,9.99999e-01,9.99999e-01,9.99878e-01,9.59656e-01,9.99999e-01
5.158567776e-01,9.60388e-01,9.99999e-01,9.99999e-01,9.99948e-01,9.60437e-01,9.99999e-01
5.184360615e-01,9.61183e-01,9.99999e-01,9.99999e-01,9.99979e-01,9.61203e-01,9.99999e-01
5.210282418e-01,9.61947e-01,9.99999e-01,9.99999e-01,9.99991e-01,9.61954e-01,9.99999e-01
5.236333830e-01,9.62662e-01,9.99999e-01,9.99999e-01,9.99969e-01,9.62692e-01,9.99999e-01
5.262515499e-01,9.63396e-01,9.99999e-01,9.99999e-01,9.99980e-01,9.63415e-01,9.99999e-01
5.288828077e-01,9.64108e-01,9.99999e-01,9.99999e-01,9.99982e-01,9.64124e-01,9.99999e-01
5.315272217e-01,9.64806e-01,9.99999e-01,9.99999e-01,9.99984e-01,9.64820e-01,9.99999e-01
5.341848578e-01,9.65494e-01,9.99999e-01,9.99999e-01,9.99989e-01,9.65503e-01,9.99999e-01
5.368557821e-01,9.66139e-01,9.99999e-01,9.99999e-01,9.99964e-01,9.66173e-01,9.99999e-01
5.395400610e-01,9.66706e-01,9.99999e-01,9.99999e-01,9.99872e-01,9.66830e-01,9.99998e-01
5.422377613e-01,9.67311e-01,9.99999e-01,9.99999e-01,9.99833e-01,9.67474e-01,9.99996e-01
5.449489501e-01,9.67955e-01,9.99999e-01,9.99999e-01,9.99846e-01,9.68106e-01,9.99996e-01
5.476736949e-01,9.68592e-01,9.99999e-01,9.99999e-01,9.99862e-01,9.68726e-01,9.99997e-01
5.504120634e-01,9.69238e-01,9.99999e-01,9.99999e-01,9.99900e-01,9.69335e-01,9.99999e-01
5.531641237e-01,9.69882e-01,9.99999e-01,9.99999e-01,9.99949e-01,9.69931e-01,9.99999e-01
5.559299443e-01,9.70493e-01,9.99999e-01,9.99999e-01,9.99975e-01,9.70516e-01,9.99999e-01
5.587095940e-01,9.71075e-01,9.99999e-01,9.99999e-01,9.99984e-01,9.71090e-01,9.99999e-01
5.615031420e-01,9.71636e-01,9.99999e-01,9.99999e-01,9.99982e-01,9.71653e-01,9.99999e-01
5.643106577e-01,9.72186e-01,9.99999e-01,9.99999e-01,9.99980e-01,9.72205e-01,9.99999e-01
5.671322110e-01,9.72524e-01,9.99999e-01,9.99999e-01,9.99772e-01,9.72746e-01,9.99997e-01
5.699678720e-01,9.73029e-01,9.99999e-01,9.99999e-01,9.99750e-01,9.73277e-01,9.99993e-01
5.728177114e-01,9.73544e-01,9.99999e-01,9.99999e-01,9.99743e-01,9.73798e-01,9.99994e-01
5.756818000e-01,9.74077e-01,9.99999e-01,9.99999e-01,9.99764e-01,9.74309e-01,9.99996e-01
5.785602090e-01,9.74609e-01,9.99999e-01,9.99999e-01,9.99793e-01,9.74810e-01,9.99998e-01
5.814530100e-01,9.75100e-01,9.99999e-01,9.99999e-01,9.99793e-01,9.75301e-01,9.99999e-01
5.843602750e-01,9.75544e-01,9.99999e-01,9.99999e-01,9.99756e-01,9.75783e-01,9.99998e-01
5.872820764e-01,9.74188e-01,9.99999e-01,9.99999e-01,9.97896e-01,9.76256e-01,9.99984e-01
5.902184868e-01,9.74168e-01,9.99999e-01,9.99999e-01,9.97427e-01,9.76719e-01,9.99959e-01
5.931695792e-01,9.75365e-01,9.99999e-01,9.99999e-01,9.98188e-01,9.77174e-01,9.99960e-01
5.961354271e-01,9.75651e-01,9.99999e-01,9.99999e-01,9.98009e-01,9.77620e-01,9.99975e-01
5.991161043e-01,9.76629e-01,9.99999e-01,9.99999e-01,9.98546e-01,9.78057e-01,9.99992e-01
6.021116848e-01,9.77677e-01,9.99999e-01,9.99999e-01,9.99173e-01,9.78486e-01,9.99998e-01
6.051222432e-01,9.78497e-01,9.99999e-01,9.99999e-01,9.99581e-01,9.78906e-01,9.99999e-01
6.081478544e-01,9.79142e-01,9.99999e-01,9.99999e-01,9.99819e-01,9.79318e-01,9.99999e-01
6.111885937e-01,9.79648e-01,9.99999e-01,9.99999e-01,9.99923e-01,9.79723e-01,9.99999e-01
6.142445367e-01,9.80086e-01,9.99999e-01,9.99999e-01,9.99965e-01,9.80119e-01,9.99999e-01
6.173157594e-01,9.80490e-01,9.99999e-01,9.99999e-01,9.99980e-01,9.80508e-01,9.99999e-01
6.204023382e-01,9.80874e-01,9.99999e-01,9.99999e-01,9.99983e-01,9.80889e-01,9.99999e-01
6.235043498e-01,9.81196e-01,9.99999e-01,9.99999e-01,9.99931e-01,9.81263e-01,9.99999e-01
6.266218716e-01,9.81265e-01,9.99999e-01,9.99999e-01,9.99630e-01,9.81630e-01,9.99996e-01
6.297549810e-01,9.81851e-01,9.99999e-01,9.99999e-01,9.99864e-01,9.81989e-01,9.99994e-01
6.329037559e-01,9.82074e-01,9.99999e-01,9.99999e-01,9.99731e-01,9.82342e-01,9.99995e-01
6.360682746e-01,9.82462e-01,9.99999e-01,9.99999e-01,9.99772e-01,9.82688e-01,9.99997e-01
6.392486160e-01,9.82735e-01,9.99999e-01,9.99999e-01,9.99704e-01,9.83027e-01,9.99998e-01
6.424448591e-01,9.83010e-01,9.99999e-01,9.99999e-01,9.99645e-01,9.83359e-01,9.99997e-01
6.456570834e-01,9.81899e-01,9.99999e-01,9.99999e-01,9.98194e-01,9.83685e-01,9.99989e-01
6.488853688e-01,9.82420e-01,9.99999e-01,9.99999e-01,9.98417e-01,9.84005e-01,9.99971e-01
6.521297956e-01,9.82943e-01,9.99999e-01,9.99999e-01,9.98626e-01,9.84318e-01,9.99975e-01
6.553904446e-01,9.83274e-01,9.99999e-01,9.99999e-01,9.98644e-01,9.84626e-01,9.99981e-01
6.586673968e-01,9.83767e-01,9.99999e-01,9.99999e-01,9.98827e-01,9.84927e-01,9.99993e-01
6.619607338e-01,9.84554e-01,9.99999e-01,9.99999e-01,9.99322e-01,9.85222e-01,9.99998e-01
6.652705375e-01,9.85124e-01,9.99999e-01,9.99999e-01,9.99606e-01,9.85512e-01,9.99998e-01
6.685968902e-01,9.85616e-01,9.99999e-01,9.99999e-01,9.99817e-01,9.85796e-01,9.99999e-01
6.719398746e-01,9.85991e-01,9.99999e-01,9.99999e-01,9.99914e-01,9.86075e-01,9.99999e-01
6.752995740e-01,9.86303e-01,9.99999e-01,9.99999e-01,9.99953e-01,9.86348e-01,9.99999e-01
6.786760719e-01,9.86551e-01,9.99999e-01,9.99999e-01,9.99934e-01,9.86616e-01,9.99999e-01
6.820694522e-01,9.86767e-01,9.99999e-01,9.99999e-01,9.99887e-01,9.86878e-01,9.99998e-01
6.854797995e-01,9.86992e-01,9.99999e-01,9.99999e-01,9.99854e-01,9.87136e-01,9.99998e-01
6.889071985e-01,9.87045e-01,9.99999e-01,9.99999e-01,9.99654e-01,9.87388e-01,9.99996e-01
6.923517345e-01,9.81980e-01,9.99999e-01,9.99999e-01,9.94299e-01,9.87636e-01,9.99972e-01
6.958134932e-01,9.84825e-01,9.99999e-01,9.99999e-01,9.96970e-01,9.87879e-01,9.99937e-01
6.992925606e-01,9.85278e-01,9.99999e-01,9.99999e-01,9.97181e-01,9.88117e-01,9.99944e-01
7.027890234e-01,9.84841e-01,9.99999e-01,9.99999e-01,9.96491e-01,9.88350e-01,9.99957e-01
7.063029686e-01,9.85645e-01,9.99999e-01,9.99999e-01,9.97053e-01,9.88579e-01,9.99978e-01
7.098344834e-01,9.85996e-01,9.99999e-01,9.99999e-01,9.97172e-01,9.88803e-01,9.99987e-01
7.133836558e-01,9.85322e-01,9.99999e-01,9.99999e-01,9.96282e-01,9.89023e-01,9.99975e-01
7.169505741e-01,9.59525e-01,9.99999e-01,9.99999e-01,9.70149e-01,9.89239e-01,9.99806e-01
7.205353270e-01,9.74292e-01,9.99999e-01,9.99999e-01,9.85014e-01,9.89450e-01,9.99659e-01
7.241380036e-01,9.70880e-01,9.99999e-01,9.99999e-01,9.81316e-01,9.89657e-01,9.99703e-01
7.277586936e-01,9.72901e-01,9.99999e-01,9.99999e-01,9.83107e-01,9.89861e-01,9.99753e-01
7.313974871e-01,9.72073e-01,9.99999e-01,9.99999e-01,9.81942e-01,9.90060e-01,9.99887e-01
7.350544745e-01,9.80438e-01,9.99999e-01,9.99999e-01,9.90124e-01,9.90255e-01,9.99960e-01
7.387297469e-01,9.83222e-01,9.99999e-01,9.99999e-01,9.92723e-01,9.90447e-01,9.99981e-01
7.424233956e-01,9.87091e-01,9.99999e-01,9.99999e-01,9.96426e-01,9.90634e-01,9.99996e-01
7.461355126e-01,9.88676e-01,9.99999e-01,9.99999e-01,9.97837e-01,9.90819e-01,9.99998e-01
7.498661902e-01,9.89998e-01,9.99999e-01,9.99999e-01,9.98989e-01,9.90999e-01,9.99999e-01
7.536155211e-01,9.90687e-01,9.99999e-01,9.99999e-01,9.99505e-01,9.91176e-01,9.99999e-01
7.573835987e-01,9.91098e-01,9.99999e-01,9.99999e-01,9.99745e-01,9.91350e-01,9.99999e-01
7.611705167e-01,9.91363e-01,9.99999e-01,9.99999e-01,9.99841e-01,9.91520e-01,9.99999e-01
7.649763693e-01,9.91589e-01,9.99999e-01,9.99999e-01,9.99900e-01,9.91687e-01,9.99999e-01
7.688012511e-01,9.91782e-01,9.99999e-01,9.99999e-01,9.99930e-01,9.91850e-01,9.99999e-01
7.726452574e-01,9.91954e-01,9.99999e-01,9.99999e-01,9.99943e-01,9.92010e-01,9.99999e-01
7.765084837e-01,9.92088e-01,9.99999e-01,9.99999e-01,9.99919e-01,9.92168e-01,9.99999e-01
7.803910261e-01,9.91980e-01,9.99999e-01,9.99999e-01,9.99655e-01,9.92322e-01,9.99999e-01
7.842929812e-01,9.91280e-01,9.99999e-01,9.99999e-01,9.98799e-01,9.92473e-01,9.99997e-01
7.882144461e-01,9.90130e-01,9.99999e-01,9.99999e-01,9.97505e-01,9.92621e-01,9.99984e-01
7.921555184e-01,9.91371e-01,9.99999e-01,9.99999e-01,9.98624e-01,9.92766e-01,9.99970e-01
7.961162960e-01,9.90495e-01,9.99999e-01,9.99999e-01,9.97597e-01,9.92908e-01,9.99971e-01
8.000968774e-01,9.90247e-01,9.99999e-01,9.99999e-01,9.97209e-01,9.93048e-01,9.99969e-01
8.040973618e-01,9.90393e-01,9.99999e-01,9.99999e-01,9.97212e-01,9.93185e-01,9.99975e-01
8.081178486e-01,9.87102e-01,9.99999e-01,9.99999e-01,9.93762e-01,9.93319e-01,9.99977e-01
8.121584379e-01,9.67666e-01,9.99999e-01,9.99999e-01,9.74130e-01,9.93450e-01,9.99911e-01
8.162192301e-01,9.62480e-01,9.99999e-01,9.99999e-01,9.69019e-01,9.93579e-01,9.99668e-01
8.203003262e-01,9.78091e-01,9.99999e-01,9.99999e-01,9.84667e-01,9.93706e-01,9.99612e-01
8.244018279e-01,9.71682e-01,9.99999e-01,9.99999e-01,9.78016e-01,9.93830e-01,9.99691e-01
8.285238370e-01,9.75376e-01,9.99999e-01,9.99999e-01,9.81549e-01,9.93951e-01,9.99757e-01
8.326664562e-01,9.75346e-01,9.99999e-01,9.99999e-01,9.81261e-01,9.94070e-01,9.99899e-01
8.368297885e-01,9.80821e-01,9.99999e-01,9.99999e-01,9.86577e-01,9.94187e-01,9.99976e-01
8.410139374e-01,9.86340e-01,9.99999e-01,9.99999e-01,9.92005e-01,9.94302e-01,9.99986e-01
8.452190071e-01,9.90498e-01,9.99999e-01,9.99999e-01,9.96069e-01,9.94414e-01,9.99991e-01
8.494451021e-01,9.92258e-01,9.99999e-01,9.99999e-01,9.97727e-01,9.94524e-01,9.99993e-01
8.536923276e-01,9.93286e-01,9.99999e-01,9.99999e-01,9.98650e-01,9.94632e-01,9.99995e-01
8.579607893e-01,9.93913e-01,9.99999e-01,9.99999e-01,9.99171e-01,9.94737e-01,9.99998e-01
8.622505932e-01,9.94317e-01,9.99999e-01,9.99999e-01,9.99472e-01,9.94841e-01,9.99999e-01
8.665618462e-01,9.94619e-01,9.99999e-01,9.99999e-01,9.99674e-01,9.94943e-01,9.99999e-01
8.708946554e-01,9.94673e-01,9.99999e-01,9.99999e-01,9.99628e-01,9.95042e-01,9.99999e-01
8.752491287e-01,9.94645e-01,9.99999e-01,9.99999e-01,9.99502e-01,9.95140e-01,9.99998e-01
8.796253743e-01,9.94552e-01,9.99999e-01,9.99999e-01,9.99313e-01,9.95236e-01,9.99997e-01
8.840235012e-01,9.94544e-01,9.99999e-01,9.99999e-01,9.99215e-01,9.95330e-01,9.99994e-01
8.884436187e-01,9.92612e-01,9.99999e-01,9.99999e-01,9.97190e-01,9.95422e-01,9.99985e-01
8.928858368e-01,9.65861e-01,9.99999e-01,9.99999e-01,9.70290e-01,9.95512e-01,9.99920e-01
8.973502660e-01,9.42912e-01,9.99999e-01,9.99999e-01,9.47459e-01,9.95600e-01,9.99596e-01
9.018370173e-01,9.67811e-01,9.99999e-01,9.99999e-01,9.72618e-01,9.95687e-01,9.99366e-01
9.063462024e-01,9.71612e-01,9.99999e-01,9.99999e-01,9.76279e-01,9.95772e-01,9.99443e-01
9.108779334e-01,9.58497e-01,9.99999e-01,9.99999e-01,9.63041e-01,9.95855e-01,9.99421e-01
9.154323231e-01,9.53719e-01,9.99999e-01,9.99999e-01,9.58066e-01,9.95937e-01,9.99522e-01
9.200094847e-01,9.62790e-01,9.99999e-01,9.99999e-01,9.66897e-01,9.96017e-01,9.99732e-01
9.246095321e-01,9.45404e-01,9.99999e-01,9.99999e-01,9.49401e-01,9.96096e-01,9.99691e-01
9.292325798e-01,6.98045e-01,9.99999e-01,9.99999e-01,7.01569e-01,9.96172e-01,9.98799e-01
9.338787427e-01,6.23928e-01,9.99999e-01,9.99999e-01,6.29395e-01,9.96248e-01,9.95046e-01
9.385481364e-01,8.21955e-01,9.99999e-01,9.99999e-01,8.29875e-01,9.96322e-01,9.94111e-01
9.432408771e-01,7.65020e-01,9.99999e-01,9.99999e-01,7.71709e-01,9.96394e-01,9.94917e-01
9.479570815e-01,6.92664e-01,9.99999e-01,9.99999e-01,6.98009e-01,9.96465e-01,9.95861e-01
9.526968669e-01,7.58987e-01,9.99999e-01,9.99999e-01,7.63554e-01,9.96535e-01,9.97473e-01
9.574603512e-01,7.79548e-01,9.99999e-01,9.99999e-01,7.83210e-01,9.96603e-01,9.98715e-01
9.622476530e-01,8.16263e-01,9.99999e-01,9.99999e-01,8.19717e-01,9.96670e-01,9.99111e-01
9.670588912e-01,8.88626e-01,9.99999e-01,9.99999e-01,8.92076e-01,9.96736e-01,9.99392e-01
9.718941857e-01,9.28067e-01,9.99999e-01,9.99999e-01,9.31462e-01,9.96800e-01,9.99552e-01
9.767536566e-01,9.39530e-01,9.99999e-01,9.99999e-01,9.42807e-01,9.96863e-01,9.99657e-01
9.816374249e-01,9.54172e-01,9.99999e-01,9.99999e-01,9.57227e-01,9.96925e-01,9.99881e-01
9.865456120e-01,9.70112e-01,9.99999e-01,9.99999e-01,9.73068e-01,9.96986e-01,9.99974e-01
9.914783401e-01,9.80377e-01,9.99999e-01,9.99999e-01,9.83288e-01,9.97045e-01,9.99992e-01
9.964357318e-01,9.87990e-01,9.99999e-01,9.99999e-01,9.90863e-01,9.97104e-01,9.99995e-01
1.001417910e+00,9.91685e-01,9.99999e-01,9.99999e-01,9.94514e-01,9.97161e-01,9.99993e-01
1.006425000e+00,9.94094e-01,9.99999e-01,9.99999e-01,9.96876e-01,9.97217e-01,9.99990e-01
1.011457125e+00,9.95324e-01,9.99999e-01,9.99999e-01,9.98055e-01,9.97272e-01,9.99991e-01
1.016514411e+00,9.96005e-01,9.99999e-01,9.99999e-01,9.98681e-01,9.97325e-01,9.99993e-01
1.021596983e+00,9.96326e-01,9.99999e-01,9.99999e-01,9.98950e-01,9.97378e-01,9.99993e-01
1.026704968e+00,9.96610e-01,9.99999e-01,9.99999e-01,9.99181e-01,9.97430e-01,9.99995e-01
1.031838492e+00,9.96885e-01,9.99999e-01,9.99999e-01,9.99403e-01,9.97481e-01,9.99998e-01
1.036997685e+00,9.97178e-01,9.99999e-01,9.99999e-01,9.99646e-01,9.97530e-01,9.99999e-01
1.042182673e+00,9.97160e-01,9.99999e-01,9.99999e-01,9.99580e-01,9.97579e-01,9.99999e-01
1.047393587e+00,9.97071e-01,9.99999e-01,9.99999e-01,9.99442e-01,9.97627e-01,9.99999e-01
1.052630555e+00,9.96911e-01,9.99999e-01,9.99999e-01,9.99235e-01,9.97673e-01,9.99999e-01
1.057893707e+00,9.96449e-01,9.99999e-01,9.99999e-01,9.98726e-01,9.97719e-01,9.99999e-01
1.063183176e+00,9.95671e-01,9.99999e-01,9.99999e-01,9.97902e-01,9.97764e-01,9.99998e-01
1.068499092e+00,9.94298e-01,9.99999e-01,9.99999e-01,9.96483e-01,9.97808e-01,9.99997e-01
1.073841587e+00,9.93748e-01,9.99999e-01,9.99999e-01,9.95892e-01,9.97852e-01,9.99994e-01
1.079210795e+00,9.92613e-01,9.99999e-01,9.99999e-01,9.94721e-01,9.97894e-01,9.99985e-01
1.084606849e+00,9.89950e-01,9.99999e-01,9.99999e-01,9.92030e-01,9.97936e-01,9.99965e-01
1.090029883e+00,9.86564e-01,9.99999e-01,9.99999e-01,9.88633e-01,9.97976e-01,9.99929e-01
1.095480033e+00,9.67213e-01,9.99999e-01,9.99999e-01,9.69258e-01,9.98016e-01,9.99872e-01
1.100957433e+00,9.21602e-01,9.99999e-01,9.99999e-01,9.23612e-01,9.98055e-01,9.99766e-01
1.106462220e+00,8.14831e-01,9.99999e-01,9.99999e-01,8.16710e-01,9.98094e-01,9.99603e-01
1.111994531e+00,6.48890e-01,9.99999e-01,9.99999e-01,6.50788e-01,9.98131e-01,9.98948e-01
1.117554504e+00,4.94665e-01,9.99999e-01,9.99999e-01,4.97457e-01,9.98168e-01,9.96210e-01
1.123142276e+00,5.87617e-01,9.99999e-01,9.99999e-01,5.93998e-01,9.98204e-01,9.91036e-01
1.128757988e+00,7.10832e-01,9.99999e-01,9.99999e-01,7.19540e-01,9.98240e-01,9.89638e-01
1.134401778e+00,4.60445e-01,9.99999e-01,9.99999e-01,4.65441e-01,9.98274e-01,9.90974e-01
1.140073787e+00,8.15765e-01,9.99999e-01,9.99999e-01,8.23104e-01,9.98308e-01,9.92761e-01
1.145774156e+00,6.58100e-01,9.99999e-01,9.99999e-01,6.63476e-01,9.98342e-01,9.93543e-01
1.151503026e+00,6.29129e-01,9.99999e-01,9.99999e-01,6.32430e-01,9.98375e-01,9.96397e-01
1.157260541e+00,6.83004e-01,9.99999e-01,9.99999e-01,6.84832e-01,9.98407e-01,9.98921e-01
1.163046844e+00,7.54402e-01,9.99999e-01,9.99999e-01,7.55812e-01,9.98438e-01,9.99693e-01
1.168862078e+00,8.22447e-01,9.99999e-01,9.99999e-01,8.23837e-01,9.98469e-01,9.99842e-01
1.174706389e+00,8.85832e-01,9.99999e-01,9.99999e-01,8.87348e-01,9.98499e-01,9.99790e-01
1.180579921e+00,9.28154e-01,9.99999e-01,9.99999e-01,9.29814e-01,9.98529e-01,9.99683e-01
1.186482820e+00,9.58103e-01,9.99999e-01,9.99999e-01,9.59797e-01,9.98558e-01,9.99675e-01
1.192415234e+00,9.74758e-01,9.99999e-01,9.99999e-01,9.76375e-01,9.98586e-01,9.99756e-01
1.198377311e+00,9.78506e-01,9.99999e-01,9.99999e-01,9.80088e-01,9.98614e-01,9.99770e-01
1.204369197e+00,9.79584e-01,9.99999e-01,9.99999e-01,9.81119e-01,9.98641e-01,9.99792e-01
1.210391043e+00,9.80509e-01,9.99999e-01,9.99999e-01,9.81939e-01,9.98668e-01,9.99873e-01
1.216442998e+00,9.83221e-01,9.99999e-01,9.99999e-01,9.84581e-01,9.98694e-01,9.99922e-01
1.222525213e+00,9.86681e-01,9.99999e-01,9.99999e-01,9.87992e-01,9.98720e-01,9.99951e-01
1.228637839e+00,9.90389e-01,9.99999e-01,9.99999e-01,9.91655e-01,9.98745e-01,9.99977e-01
