#,Wave/freq,Total,N2,O2,H2O,Rayleigh,CIA
4.000000000e-01,2.36497e-01,9.99999e-01,9.99999e-01,9.99837e-01,2.36536e-01,9.99999e-01
4.020000000e-01,2.43351e-01,9.99999e-01,9.99999e-01,9.99898e-01,2.43375e-01,9.99999e-01
4.040100000e-01,2.50254e-01,9.99999e-01,9.99999e-01,9.99956e-01,2.50265e-01,9.99999e-01
4.060300500e-01,2.57204e-01,9.99999e-01,9.99999e-01,9.99989e-01,2.57207e-01,9.99999e-01
4.080602003e-01,2.64198e-01,9.99999e-01,9.99999e-01,9.99996e-01,2.64199e-01,9.99999e-01
4.101005013e-01,2.71237e-01,9.99999e-01,9.99999e-01,9.99999e-01,2.71237e-01,9.99999e-01
4.121510038e-01,2.78317e-01,9.99999e-01,9.99999e-01,9.99993e-01,2.78318e-01,9.99999e-01
4.142117588e-01,2.85426e-01,9.99999e-01,9.99999e-01,9.99954e-01,2.85439e-01,9.99999e-01
4.162828176e-01,2.92537e-01,9.99999e-01,9.99999e-01,9.99798e-01,2.92596e-01,9.99999e-01
4.183642317e-01,2.99750e-01,9.99999e-01,9.99999e-01,9.99879e-01,2.99786e-01,9.99999e-01
4.204560528e-01,3.06982e-01,9.99999e-01,9.99999e-01,9.99926e-01,3.07005e-01,9.99999e-01
4.225583331e-01,3.14242e-01,9.99999e-01,9.99999e-01,9.99972e-01,3.14250e-01,9.99999e-01
4.246711247e-01,3.21511e-01,9.99999e-01,9.99999e-01,9.99977e-01,3.21518e-01,9.99999e-01
4.267944804e-01,3.28795e-01,9.99999e-01,9.99999e-01,9.99967e-01,3.28806e-01,9.99999e-01
4.289284528e-01,3.36101e-01,9.99999e-01,9.99999e-01,9.99974e-01,3.36110e-01,9.99999e-01
4.310730950e-01,3.43423e-01,9.99999e-01,9.99999e-01,9.99988e-01,3.43427e-01,9.99999e-01
4.332284605e-01,3.50753e-01,9.99999e-01,9.99999e-01,9.99996e-01,3.50754e-01,9.99999e-01
4.353946028e-01,3.58088e-01,9.99999e-01,9.99999e-01,9.99998e-01,3.58088e-01,9.99999e-01
4.375715758e-01,3.65419e-01,9.99999e-01,9.99999e-01,9.99979e-01,3.65426e-01,9.99999e-01
4.397594337e-01,3.72699e-01,9.99999e-01,9.99999e-01,9.99822e-01,3.72765e-01,9.99999e-01
4.419582309e-01,3.79760e-01,9.99999e-01,9.99999e-01,9.99098e-01,3.80102e-01,9.99999e-01
4.441680220e-01,3.87164e-01,9.99999e-01,9.99999e-01,9.99299e-01,3.87435e-01,9.99999e-01
4.463888621e-01,3.94472e-01,9.99999e-01,9.99999e-01,9.99270e-01,3.94760e-01,9.99999e-01
4.486208064e-01,4.01892e-01,9.99999e-01,9.99999e-01,9.99546e-01,4.02074e-01,9.99999e-01
4.508639105e-01,4.09289e-01,9.99999e-01,9.99999e-01,9.99787e-01,4.09376e-01,9.99999e-01
4.531182300e-01,4.16627e-01,9.99999e-01,9.99999e-01,9.99915e-01,4.16662e-01,9.99999e-01
4.553838212e-01,4.23906e-01,9.99999e-01,9.99999e-01,9.99942e-01,4.23930e-01,9.99999e-01
4.576607403e-01,4.31166e-01,9.99999e-01,9.99999e-01,9.99973e-01,4.31177e-01,9.99999e-01
4.599490440e-01,4.38394e-01,9.99999e-01,9.99999e-01,9.99981e-01,4.38402e-01,9.99999e-01
4.622487892e-01,4.45599e-01,9.99999e-01,9.99999e-01,9.99996e-01,4.45601e-01,9.99999e-01
4.645600332e-01,4.52767e-01,9.99999e-01,9.99999e-01,9.99986e-01,4.52773e-01,9.99999e-01
4.668828333e-01,4.59816e-01,9.99999e-01,9.99999e-01,9.99784e-01,4.59915e-01,9.99999e-01
4.692172475e-01,4.66812e-01,9.99999e-01,9.99999e-01,9.99542e-01,4.67025e-01,9.99999e-01
4.715633337e-01,4.73960e-01,9.99999e-01,9.99999e-01,9.99700e-01,4.74102e-01,9.99999e-01
4.739211504e-01,4.81005e-01,9.99999e-01,9.99999e-01,9.99713e-01,4.81143e-01,9.99999e-01
4.762907561e-01,4.88074e-01,9.99999e-01,9.99999e-01,9.99851e-01,4.88146e-01,9.99999e-01
4.786722099e-01,4.95080e-01,9.99999e-01,9.99999e-01,9.99938e-01,4.95110e-01,9.99999e-01
4.810655710e-01,5.02024e-01,9.99999e-01,9.99999e-01,9.99981e-01,5.02033e-01,9.99999e-01
4.834708988e-01,5.08823e-01,9.99999e-01,9.99999e-01,9.99823e-01,5.08913e-01,9.99999e-01
4.858882533e-01,5.15582e-01,9.99999e-01,9.99999e-01,9.99675e-01,5.15749e-01,9.99999e-01
4.883176946e-01,5.22397e-01,9.99999e-01,9.99999e-01,9.99728e-01,5.22538e-01,9.99999e-01
4.907592831e-01,5.29151e-01,9.99999e-01,9.99999e-01,9.99754e-01,5.29281e-01,9.99999e-01
4.932130795e-01,5.35881e-01,9.99999e-01,9.99999e-01,9.99825e-01,5.35974e-01,9.99999e-01
4.956791449e-01,5.42568e-01,9.99999e-01,9.99999e-01,9.99907e-01,5.42618e-01,9.99999e-01
4.981575406e-01,5.48957e-01,9.99999e-01,9.99999e-01,9.99539e-01,5.49210e-01,9.99999e-01
5.006483283e-01,5.55081e-01,9.99999e-01,9.99999e-01,9.98805e-01,5.55749e-01,9.99991e-01
5.031515699e-01,5.58812e-01,9.99999e-01,9.99999e-01,9.93972e-01,5.62236e-01,9.99936e-01
5.056673278e-01,5.66815e-01,9.99999e-01,9.99999e-01,9.96815e-01,5.68667e-01,9.99926e-01
5.081956644e-01,5.72707e-01,9.99999e-01,9.99999e-01,9.95983e-01,5.75043e-01,9.99952e-01
5.107366428e-01,5.79780e-01,9.99999e-01,9.99999e-01,9.97287e-01,5.81362e-01,9.99990e-01
5.132903260e-01,5.86713e-01,9.99999e-01,9.99999e-01,9.98449e-01,5.87624e-01,9.99998e-01
5.158567776e-01,5.93439e-01,9.99999e-01,9.99999e-01,9.99344e-01,5.93828e-01,9.99999e-01
5.184360615e-01,5.99815e-01,9.99999e-01,9.99999e-01,9.99737e-01,5.99972e-01,9.99999e-01
5.210282418e-01,6.05998e-01,9.99999e-01,9.99999e-01,9.99901e-01,6.06057e-01,9.99999e-01
5.236333830e-01,6.11839e-01,9.99999e-01,9.99999e-01,9.99605e-01,6.12082e-01,9.99996e-01
5.262515499e-01,6.17891e-01,9.99999e-01,9.99999e-01,9.99753e-01,6.18045e-01,9.99995e-01
5.288828077e-01,6.23805e-01,9.99999e-01,9.99999e-01,9.99773e-01,6.23948e-01,9.99997e-01
5.315272217e-01,6.29663e-01,9.99999e-01,9.99999e-01,9.99801e-01,6.29788e-01,9.99998e-01
5.341848578e-01,6.35484e-01,9.99999e-01,9.99999e-01,9.99869e-01,6.35567e-01,9.99999e-01
5.368557821e-01,6.40987e-01,9.99999e-01,9.99999e-01,9.99540e-01,6.41282e-01,9.99998e-01
5.395400610e-01,6.45853e-01,9.99999e-01,9.99999e-01,9.98341e-01,6.46935e-01,9.99985e-01
5.422377613e-01,6.51105e-01,9.99999e-01,9.99999e-01,9.97863e-01,6.52524e-01,9.99960e-01
5.449489501e-01,6.56713e-01,9.99999e-01,9.99999e-01,9.98009e-01,6.58049e-01,9.99959e-01
5.476736949e-01,6.62331e-01,9.99999e-01,9.99999e-01,9.98240e-01,6.63511e-01,9.99979e-01
5.504120634e-01,6.68051e-01,9.99999e-01,9.99999e-01,9.98722e-01,6.68909e-01,9.99994e-01
5.531641237e-01,6.73810e-01,9.99999e-01,9.99999e-01,9.99356e-01,6.74243e-01,9.99998e-01
5.559299443e-01,6.79303e-01,9.99999e-01,9.99999e-01,9.99689e-01,6.79513e-01,9.99999e-01
5.587095940e-01,6.84586e-01,9.99999e-01,9.99999e-01,9.99804e-01,6.84719e-01,9.99999e-01
5.615031420e-01,6.89711e-01,9.99999e-01,9.99999e-01,9.99782e-01,6.89861e-01,9.99999e-01
5.643106577e-01,6.94766e-01,9.99999e-01,9.99999e-01,9.99753e-01,6.94938e-01,9.99997e-01
5.671322110e-01,6.97837e-01,9.99999e-01,9.99999e-01,9.97004e-01,6.99952e-01,9.99973e-01
5.699678720e-01,7.02612e-01,9.99999e-01,9.99999e-01,9.96832e-01,7.04902e-01,9.99918e-01
5.728177114e-01,7.07392e-01,9.99999e-01,9.99999e-01,9.96691e-01,7.09788e-01,9.99931e-01
5.756818000e-01,7.12412e-01,9.99999e-01,9.99999e-01,9.96965e-01,7.14610e-01,9.99958e-01
5.785602090e-01,7.17458e-01,9.99999e-01,9.99999e-01,9.97355e-01,7.19369e-01,9.99987e-01
5.814530100e-01,7.22136e-01,9.99999e-01,9.99999e-01,9.97342e-01,7.24064e-01,9.99993e-01
5.843602750e-01,7.26373e-01,9.99999e-01,9.99999e-01,9.96828e-01,7.28697e-01,9.99981e-01
5.872820764e-01,7.13409e-01,9.99999e-01,9.99999e-01,9.73105e-01,7.33266e-01,9.99807e-01
5.902184868e-01,7.13379e-01,9.99999e-01,9.99999e-01,9.67439e-01,7.37774e-01,9.99476e-01
5.931695792e-01,7.24735e-01,9.99999e-01,9.99999e-01,9.76934e-01,7.42219e-01,9.99496e-01
5.961354271e-01,7.27510e-01,9.99999e-01,9.99999e-01,9.74709e-01,7.46602e-01,9.99710e-01
5.991161043e-01,7.36950e-01,9.99999e-01,9.99999e-01,9.81478e-01,7.50924e-01,9.99910e-01
6.021116848e-01,7.47212e-01,9.99999e-01,9.99999e-01,9.89451e-01,7.55185e-01,9.99989e-01
6.051222432e-01,7.55322e-01,9.99999e-01,9.99999e-01,9.94648e-01,7.59385e-01,9.99998e-01
6.081478544e-01,7.61760e-01,9.99999e-01,9.99999e-01,9.97688e-01,7.63525e-01,9.99999e-01
6.111885937e-01,7.66855e-01,9.99999e-01,9.99999e-01,9.99021e-01,7.67605e-01,9.99999e-01
6.142445367e-01,7.71289e-01,9.99999e-01,9.99999e-01,9.99562e-01,7.71626e-01,9.99999e-01
6.173157594e-01,7.75400e-01,9.99999e-01,9.99999e-01,9.99758e-01,7.75587e-01,9.99999e-01
6.204023382e-01,7.79331e-01,9.99999e-01,9.99999e-01,9.99795e-01,7.79490e-01,9.99999e-01
6.235043498e-01,7.82627e-01,9.99999e-01,9.99999e-01,9.99097e-01,7.83335e-01,9.99997e-01
6.266218716e-01,7.83356e-01,9.99999e-01,9.99999e-01,9.95246e-01,7.87123e-01,9.99966e-01
6.297549810e-01,7.89420e-01,9.99999e-01,9.99999e-01,9.98254e-01,7.90853e-01,9.99932e-01
6.329037559e-01,7.91747e-01,9.99999e-01,9.99999e-01,9.96553e-01,7.94527e-01,9.99946e-01
6.360682746e-01,7.95775e-01,9.99999e-01,9.99999e-01,9.97062e-01,7.98145e-01,9.99967e-01
6.392486160e-01,7.98646e-01,9.99999e-01,9.99999e-01,9.96195e-01,8.01707e-01,9.99985e-01
6.424448591e-01,8.01094e-01,9.99999e-01,9.99999e-01,9.94903e-01,8.05215e-01,9.99977e-01
6.456570834e-01,7.89631e-01,9.99999e-01,9.99999e-01,9.76585e-01,8.08668e-01,9.99868e-01
6.488853688e-01,7.97857e-01,9.99999e-01,9.99999e-01,9.82861e-01,8.12067e-01,9.99632e-01
6.521297956e-01,8.00944e-01,9.99999e-01,9.99999e-01,9.82551e-01,8.15413e-01,9.99696e-01
6.553904446e-01,8.04246e-01,9.99999e-01,9.99999e-01,9.82557e-01,8.18707e-01,9.99774e-01
6.586673968e-01,8.09619e-01,9.99999e-01,9.99999e-01,9.85073e-01,8.21948e-01,9.99924e-01
6.619607338e-01,8.18232e-01,9.99999e-01,9.99999e-01,9.91647e-01,8.25137e-01,9.99983e-01
6.652705375e-01,8.24110e-01,9.99999e-01,9.99999e-01,9.94977e-01,8.28276e-01,9.99991e-01
6.685968902e-01,8.29422e-01,9.99999e-01,9.99999e-01,9.97664e-01,8.31364e-01,9.99998e-01
6.719398746e-01,8.33500e-01,9.99999e-01,9.99999e-01,9.98917e-01,8.34403e-01,9.99999e-01
6.752995740e-01,8.36900e-01,9.99999e-01,9.99999e-01,9.99412e-01,8.37392e-01,9.99999e-01
6.786760719e-01,8.39618e-01,9.99999e-01,9.99999e-01,9.99150e-01,8.40332e-01,9.99998e-01
6.820694522e-01,8.41994e-01,9.99999e-01,9.99999e-01,9.98547e-01,8.43225e-01,9.99991e-01
6.854797995e-01,8.44471e-01,9.99999e-01,9.99999e-01,9.98126e-01,8.46070e-01,9.99983e-01
6.889071985e-01,8.44981e-01,9.99999e-01,9.99999e-01,9.95461e-01,8.48868e-01,9.99959e-01
6.923517345e-01,7.90764e-01,9.99999e-01,9.99999e-01,9.28869e-01,8.51619e-01,9.99645e-01
6.958134932e-01,8.21727e-01,9.99999e-01,9.99999e-01,9.62598e-01,8.54325e-01,9.99214e-01
6.992925606e-01,8.25632e-01,9.99999e-01,9.99999e-01,9.64094e-01,8.56986e-01,9.99292e-01
7.027890234e-01,8.21264e-01,9.99999e-01,9.99999e-01,9.55914e-01,8.59603e-01,9.99459e-01
7.063029686e-01,8.29820e-01,9.99999e-01,9.99999e-01,9.62730e-01,8.62175e-01,9.99730e-01
7.098344834e-01,8.33608e-01,9.99999e-01,9.99999e-01,9.64191e-01,8.64705e-01,9.99840e-01
7.133836558e-01,8.25913e-01,9.99999e-01,9.99999e-01,9.52700e-01,8.67191e-01,9.99683e-01
7.169505741e-01,5.96413e-01,9.99999e-01,9.99999e-01,6.87527e-01,8.69635e-01,9.97514e-01
7.205353270e-01,7.21362e-01,9.99999e-01,9.99999e-01,8.30853e-01,8.72038e-01,9.95619e-01
7.241380036e-01,6.87045e-01,9.99999e-01,9.99999e-01,7.88717e-01,8.74400e-01,9.96216e-01
7.277586936e-01,7.05690e-01,9.99999e-01,9.99999e-01,8.07417e-01,8.76721e-01,9.96905e-01
7.313974871e-01,6.97788e-01,9.99999e-01,9.99999e-01,7.94993e-01,8.79002e-01,9.98549e-01
7.350544745e-01,7.76425e-01,9.99999e-01,9.99999e-01,8.81499e-01,8.81244e-01,9.99495e-01
7.387297469e-01,8.04580e-01,9.99999e-01,9.99999e-01,9.10937e-01,8.83448e-01,9.99768e-01
7.424233956e-01,8.45982e-01,9.99999e-01,9.99999e-01,9.55292e-01,8.85613e-01,9.99954e-01
7.461355126e-01,8.63441e-01,9.99999e-01,9.99999e-01,9.72634e-01,8.87740e-01,9.99991e-01
7.498661902e-01,8.78411e-01,9.99999e-01,9.99999e-01,9.87169e-01,8.89831e-01,9.99996e-01
7.536155211e-01,8.86247e-01,9.99999e-01,9.99999e-01,9.93680e-01,8.91885e-01,9.99997e-01
7.573835987e-01,8.90991e-01,9.99999e-01,9.99999e-01,9.96742e-01,8.93903e-01,9.99999e-01
7.611705167e-01,8.94071e-01,9.99999e-01,9.99999e-01,9.97975e-01,8.95885e-01,9.99999e-01
7.649763693e-01,8.96693e-01,9.99999e-01,9.99999e-01,9.98729e-01,8.97833e-01,9.99999e-01
7.688012511e-01,8.98950e-01,9.99999e-01,9.99999e-01,9.99115e-01,8.99746e-01,9.99999e-01
7.726452574e-01,9.00969e-01,9.99999e-01,9.99999e-01,9.99271e-01,9.01625e-01,9.99999e-01
7.765084837e-01,9.02535e-01,9.99999e-01,9.99999e-01,9.98963e-01,9.03472e-01,9.99998e-01
7.803910261e-01,9.01233e-01,9.99999e-01,9.99999e-01,9.95527e-01,9.05285e-01,9.99995e-01
7.842929812e-01,8.92967e-01,9.99999e-01,9.99999e-01,9.84483e-01,9.07066e-01,9.99970e-01
7.882144461e-01,8.79846e-01,9.99999e-01,9.99999e-01,9.68337e-01,9.08815e-01,9.99779e-01
7.921555184e-01,8.94298e-01,9.99999e-01,9.99999e-01,9.82545e-01,9.10533e-01,9.99616e-01
7.961162960e-01,8.83897e-01,9.99999e-01,9.99999e-01,9.69303e-01,9.12220e-01,9.99635e-01
8.000968774e-01,8.81167e-01,9.99999e-01,9.99999e-01,9.64580e-01,9.13877e-01,9.99611e-01
8.040973618e-01,8.82814e-01,9.99999e-01,9.99999e-01,9.64588e-01,9.15504e-01,9.99691e-01
8.081178486e-01,8.45656e-01,9.99999e-01,9.99999e-01,9.22361e-01,9.17102e-01,9.99710e-01
8.121584379e-01,6.59555e-01,9.99999e-01,9.99999e-01,7.18760e-01,9.18671e-01,9.98864e-01
8.162192301e-01,6.21204e-01,9.99999e-01,9.99999e-01,6.77955e-01,9.20212e-01,9.95737e-01
8.203003262e-01,7.61274e-01,9.99999e-01,9.99999e-01,8.30063e-01,9.21724e-01,9.95011e-01
8.244018279e-01,7.14401e-01,9.99999e-01,9.99999e-01,7.76909e-01,9.23210e-01,9.96027e-01
8.285238370e-01,7.28216e-01,9.99999e-01,9.99999e-01,7.90008e-01,9.24668e-01,9.96878e-01
8.326664562e-01,7.29759e-01,9.99999e-01,9.99999e-01,7.89011e-01,9.26099e-01,9.98707e-01
8.368297885e-01,7.80971e-01,9.99999e-01,9.99999e-01,8.42261e-01,9.27505e-01,9.99704e-01
8.410139374e-01,8.38337e-01,9.99999e-01,9.99999e-01,9.02675e-01,9.28884e-01,9.99826e-01
8.452190071e-01,8.84471e-01,9.99999e-01,9.99999e-01,9.50897e-01,9.30239e-01,9.99896e-01
8.494451021e-01,9.04616e-01,9.99999e-01,9.99999e-01,9.71147e-01,9.31569e-01,9.99916e-01
8.536923276e-01,9.16831e-01,9.99999e-01,9.99999e-01,9.82852e-01,9.32874e-01,9.99949e-01
8.579607893e-01,9.24240e-01,9.99999e-01,9.99999e-01,9.89397e-01,9.34155e-01,9.99987e-01
8.622505932e-01,9.29102e-01,9.99999e-01,9.99999e-01,9.93254e-01,9.35413e-01,9.99997e-01
8.665618462e-01,9.32731e-01,9.99999e-01,9.99999e-01,9.95819e-01,9.36647e-01,9.99998e-01
8.708946554e-01,9.33366e-01,9.99999e-01,9.99999e-01,9.95212e-01,9.37859e-01,9.99996e-01
8.752491287e-01,9.33033e-01,9.99999e-01,9.99999e-01,9.93600e-01,9.39048e-01,9.99992e-01
8.796253743e-01,9.31871e-01,9.99999e-01,9.99999e-01,9.91143e-01,9.40215e-01,9.99979e-01
8.840235012e-01,9.31791e-01,9.99999e-01,9.99999e-01,9.89894e-01,9.41361e-01,9.99937e-01
8.884436187e-01,9.08327e-01,9.99999e-01,9.99999e-01,9.63925e-01,9.42485e-01,9.99823e-01
8.928858368e-01,6.48213e-01,9.99999e-01,9.99999e-01,6.87662e-01,9.43588e-01,9.98986e-01
8.973502660e-01,4.89014e-01,9.99999e-01,9.99999e-01,5.20351e-01,9.44671e-01,9.94817e-01
9.018370173e-01,6.72402e-01,9.99999e-01,9.99999e-01,7.16816e-01,9.45734e-01,9.91863e-01
9.063462024e-01,6.98387e-01,9.99999e-01,9.99999e-01,7.42958e-01,9.46777e-01,9.92849e-01
9.108779334e-01,5.92963e-01,9.99999e-01,9.99999e-01,6.30302e-01,9.47800e-01,9.92570e-01
9.154323231e-01,5.55272e-01,9.99999e-01,9.99999e-01,5.88851e-01,9.48804e-01,9.93854e-01
9.200094847e-01,6.27684e-01,9.99999e-01,9.99999e-01,6.63150e-01,9.49790e-01,9.96555e-01
9.246095321e-01,5.19059e-01,9.99999e-01,9.99999e-01,5.48117e-01,9.50757e-01,9.96032e-01
9.292325798e-01,3.81862e-02,9.99999e-01,9.99999e-01,4.07508e-02,9.51705e-01,9.84617e-01
9.338787427e-01,9.77444e-03,9.99999e-01,9.99999e-01,1.09394e-02,9.52636e-01,9.37927e-01
9.385481364e-01,1.39668e-01,9.99999e-01,9.99999e-01,1.58071e-01,9.53550e-01,9.26615e-01
9.432408771e-01,7.99351e-02,9.99999e-01,9.99999e-01,8.94421e-02,9.54446e-01,9.36361e-01
9.479570815e-01,2.70048e-02,9.99999e-01,9.99999e-01,2.98216e-02,9.55325e-01,9.47891e-01
9.526968669e-01,5.89189e-02,9.99999e-01,9.99999e-01,6.36628e-02,9.56188e-01,9.67886e-01
9.574603512e-01,6.74087e-02,9.99999e-01,9.99999e-01,7.16124e-02,9.57035e-01,9.83556e-01
9.622476530e-01,1.03829e-01,9.99999e-01,9.99999e-01,1.09646e-01,9.57865e-01,9.88600e-01
9.670588912e-01,2.58065e-01,9.99999e-01,9.99999e-01,2.71307e-01,9.58680e-01,9.92189e-01
9.718941857e-01,3.97170e-01,9.99999e-01,9.99999e-01,4.16339e-01,9.59479e-01,9.94244e-01
9.767536566e-01,4.60652e-01,9.99999e-01,9.99999e-01,4.81834e-01,9.60264e-01,9.95598e-01
9.816374249e-01,5.54119e-01,9.99999e-01,9.99999e-01,5.77467e-01,9.61033e-01,9.98474e-01
9.865456120e-01,6.80092e-01,9.99999e-01,9.99999e-01,7.07336e-01,9.61788e-01,9.99681e-01
9.914783401e-01,7.75840e-01,9.99999e-01,9.99999e-01,8.06114e-01,9.62528e-01,9.99911e-01
9.964357318e-01,8.56442e-01,9.99999e-01,9.99999e-01,8.89158e-01,9.63255e-01,9.99948e-01
1.001417910e+00,8.98242e-01,9.99999e-01,9.99999e-01,9.31890e-01,9.63967e-01,9.99920e-01
1.006425000e+00,9.26485e-01,9.99999e-01,9.99999e-01,9.60527e-01,9.64666e-01,9.99887e-01
1.011457125e+00,9.41442e-01,9.99999e-01,9.99999e-01,9.75332e-01,9.65352e-01,9.99895e-01
1.016514411e+00,9.49704e-01,9.99999e-01,9.99999e-01,9.83177e-01,9.66024e-01,9.99926e-01
1.021596983e+00,9.53633e-01,9.99999e-01,9.99999e-01,9.86570e-01,9.66684e-01,9.99925e-01
1.026704968e+00,9.57137e-01,9.99999e-01,9.99999e-01,9.89509e-01,9.67331e-01,9.99950e-01
1.031838492e+00,9.60567e-01,9.99999e-01,9.99999e-01,9.92369e-01,9.67966e-01,9.99985e-01
1.036997685e+00,9.64189e-01,9.99999e-01,9.99999e-01,9.95458e-01,9.68589e-01,9.99997e-01
1.042182673e+00,9.63949e-01,9.99999e-01,9.99999e-01,9.94583e-01,9.69200e-01,9.99998e-01
1.047393587e+00,9.62840e-01,9.99999e-01,9.99999e-01,9.92825e-01,9.69799e-01,9.99998e-01
1.052630555e+00,9.60841e-01,9.99999e-01,9.99999e-01,9.90165e-01,9.70386e-01,9.99996e-01
1.057893707e+00,9.55067e-01,9.99999e-01,9.99999e-01,9.83634e-01,9.70963e-01,9.99993e-01
1.063183176e+00,9.45517e-01,9.99999e-01,9.99999e-01,9.73240e-01,9.71528e-01,9.99985e-01
1.068499092e+00,9.28939e-01,9.99999e-01,9.99999e-01,9.55646e-01,9.72082e-01,9.99968e-01
1.073841587e+00,9.22412e-01,9.99999e-01,9.99999e-01,9.48435e-01,9.72626e-01,9.99932e-01
1.079210795e+00,9.09083e-01,9.99999e-01,9.99999e-01,9.34325e-01,9.73160e-01,9.99818e-01
1.084606849e+00,8.78383e-01,9.99999e-01,9.99999e-01,9.02517e-01,9.73683e-01,9.99563e-01
1.090029883e+00,8.40591e-01,9.99999e-01,9.99999e-01,8.63636e-01,9.74196e-01,9.99094e-01
1.095480033e+00,6.53636e-01,9.99999e-01,9.99999e-01,6.71701e-01,9.74699e-01,9.98363e-01
1.100957433e+00,3.65132e-01,9.99999e-01,9.99999e-01,3.75550e-01,9.75192e-01,9.96990e-01
1.106462220e+00,9.99433e-02,9.99999e-01,9.99999e-01,1.02960e-01,9.75676e-01,9.94900e-01
1.111994531e+00,9.67817e-03,9.99999e-01,9.99999e-01,1.00501e-02,9.76151e-01,9.86520e-01
1.117554504e+00,9.49240e-04,9.99999e-01,9.99999e-01,1.02077e-03,9.76617e-01,9.52184e-01
1.123142276e+00,9.12184e-03,9.99999e-01,9.99999e-01,1.04861e-02,9.77073e-01,8.90305e-01
1.128757988e+00,2.74577e-02,9.99999e-01,9.99999e-01,3.21301e-02,9.77521e-01,8.74228e-01
1.134401778e+00,1.49962e-02,9.99999e-01,9.99999e-01,1.71908e-02,9.77960e-01,8.91997e-01
1.140073787e+00,9.68221e-02,9.99999e-01,9.99999e-01,1.08423e-01,9.78390e-01,9.12727e-01
1.145774156e+00,1.71536e-02,9.99999e-01,9.99999e-01,1.90528e-02,9.78813e-01,9.19809e-01
1.151503026e+00,1.04474e-02,9.99999e-01,9.99999e-01,1.11775e-02,9.79227e-01,9.54501e-01
1.157260541e+00,1.35919e-02,9.99999e-01,9.99999e-01,1.40690e-02,9.79633e-01,9.86173e-01
1.163046844e+00,4.05311e-02,9.99999e-01,9.99999e-01,4.15204e-02,9.80031e-01,9.96061e-01
1.168862078e+00,9.51094e-02,9.99999e-01,9.99999e-01,9.72060e-02,9.80422e-01,9.97968e-01
1.174706389e+00,2.27410e-01,9.99999e-01,9.99999e-01,2.32486e-01,9.80805e-01,9.97308e-01
1.180579921e+00,3.96400e-01,9.99999e-01,9.99999e-01,4.05652e-01,9.81180e-01,9.95933e-01
1.186482820e+00,5.80727e-01,9.99999e-01,9.99999e-01,5.94123e-01,9.81548e-01,9.95826e-01
1.192415234e+00,7.20493e-01,9.99999e-01,9.99999e-01,7.36068e-01,9.81910e-01,9.96872e-01
1.198377311e+00,7.56659e-01,9.99999e-01,9.99999e-01,7.72603e-01,9.82264e-01,9.97045e-01
1.204369197e+00,7.69400e-01,9.99999e-01,9.99999e-01,7.85114e-01,9.82611e-01,9.97326e-01
1.210391043e+00,7.77664e-01,9.99999e-01,9.99999e-01,7.92440e-01,9.82952e-01,9.98372e-01
1.216442998e+00,8.06007e-01,9.99999e-01,9.99999e-01,8.20525e-01,9.83285e-01,9.99002e-01
1.222525213e+00,8.42010e-01,9.99999e-01,9.99999e-01,8.56567e-01,9.83613e-01,9.99380e-01
1.228637839e+00,8.83241e-01,9.99999e-01,9.99999e-01,8.97921e-01,9.83934e-01,9.99711e-01
