#,Wave/freq,Total,N2,O2,H2O,Rayleigh,CIA
4.000000000e-01,7.73829e-01,9.99999e-01,9.99999e-01,9.99970e-01,7.73852e-01,9.99999e-01
4.020000000e-01,7.77771e-01,9.99999e-01,9.99999e-01,9.99981e-01,7.77784e-01,9.99999e-01
4.040100000e-01,7.81649e-01,9.99999e-01,9.99999e-01,9.99991e-01,7.81655e-01,9.99999e-01
4.060300500e-01,7.85466e-01,9.99999e-01,9.99999e-01,9.99997e-01,7.85468e-01,9.99999e-01
4.080602003e-01,7.89223e-01,9.99999e-01,9.99999e-01,9.99998e-01,7.89223e-01,9.99999e-01
4.101005013e-01,7.92922e-01,9.99999e-01,9.99999e-01,9.99999e-01,7.92922e-01,9.99999e-01
4.121510038e-01,7.96563e-01,9.99999e-01,9.99999e-01,9.99998e-01,7.96564e-01,9.99999e-01
4.142117588e-01,8.00144e-01,9.99999e-01,9.99999e-01,9.99991e-01,8.00151e-01,9.99999e-01
4.162828176e-01,8.03654e-01,9.99999e-01,9.99999e-01,9.99963e-01,8.03682e-01,9.99999e-01
4.183642317e-01,8.07142e-01,9.99999e-01,9.99999e-01,9.99978e-01,8.07159e-01,9.99999e-01
4.204560528e-01,8.10572e-01,9.99999e-01,9.99999e-01,9.99986e-01,8.10582e-01,9.99999e-01
4.225583331e-01,8.13948e-01,9.99999e-01,9.99999e-01,9.99994e-01,8.13951e-01,9.99999e-01
4.246711247e-01,8.17265e-01,9.99999e-01,9.99999e-01,9.99995e-01,8.17268e-01,9.99999e-01
4.267944804e-01,8.20527e-01,9.99999e-01,9.99999e-01,9.99993e-01,8.20532e-01,9.99999e-01
4.289284528e-01,8.23740e-01,9.99999e-01,9.99999e-01,9.99995e-01,8.23744e-01,9.99999e-01
4.310730950e-01,8.26903e-01,9.99999e-01,9.99999e-01,9.99997e-01,8.26905e-01,9.99999e-01
4.332284605e-01,8.30015e-01,9.99999e-01,9.99999e-01,9.99999e-01,8.30015e-01,9.99999e-01
4.353946028e-01,8.33075e-01,9.99999e-01,9.99999e-01,9.99999e-01,8.33075e-01,9.99999e-01
4.375715758e-01,8.36083e-01,9.99999e-01,9.99999e-01,9.99995e-01,8.36086e-01,9.99999e-01
4.397594337e-01,8.39021e-01,9.99999e-01,9.99999e-01,9.99967e-01,8.39048e-01,9.99999e-01
4.419582309e-01,8.41824e-01,9.99999e-01,9.99999e-01,9.99836e-01,8.41961e-01,9.99999e-01
4.441680220e-01,8.44723e-01,9.99999e-01,9.99999e-01,9.99876e-01,8.44827e-01,9.99999e-01
4.463888621e-01,8.47535e-01,9.99999e-01,9.99999e-01,9.99869e-01,8.47645e-01,9.99999e-01
4.486208064e-01,8.50349e-01,9.99999e-01,9.99999e-01,9.99919e-01,8.50417e-01,9.99999e-01
4.508639105e-01,8.53112e-01,9.99999e-01,9.99999e-01,9.99962e-01,8.53143e-01,9.99999e-01
4.531182300e-01,8.55812e-01,9.99999e-01,9.99999e-01,9.99984e-01,8.55824e-01,9.99999e-01
4.553838212e-01,8.58451e-01,9.99999e-01,9.99999e-01,9.99989e-01,8.58460e-01,9.99999e-01
4.576607403e-01,8.61048e-01,9.99999e-01,9.99999e-01,9.99994e-01,8.61052e-01,9.99999e-01
4.599490440e-01,8.63597e-01,9.99999e-01,9.99999e-01,9.99996e-01,8.63600e-01,9.99999e-01
4.622487892e-01,8.66105e-01,9.99999e-01,9.99999e-01,9.99998e-01,8.66105e-01,9.99999e-01
4.645600332e-01,8.68566e-01,9.99999e-01,9.99999e-01,9.99997e-01,8.68568e-01,9.99999e-01
4.668828333e-01,8.70955e-01,9.99999e-01,9.99999e-01,9.99961e-01,8.70989e-01,9.99999e-01
4.692172475e-01,8.73297e-01,9.99999e-01,9.99999e-01,9.99918e-01,8.73368e-01,9.99999e-01
4.715633337e-01,8.75660e-01,9.99999e-01,9.99999e-01,9.99946e-01,8.75707e-01,9.99999e-01
4.739211504e-01,8.77961e-01,9.99999e-01,9.99999e-01,9.99948e-01,8.78006e-01,9.99999e-01
4.762907561e-01,8.80242e-01,9.99999e-01,9.99999e-01,9.99973e-01,8.80265e-01,9.99999e-01
4.786722099e-01,8.82476e-01,9.99999e-01,9.99999e-01,9.99988e-01,8.82485e-01,9.99999e-01
4.810655710e-01,8.84664e-01,9.99999e-01,9.99999e-01,9.99996e-01,8.84667e-01,9.99999e-01
4.834708988e-01,8.86783e-01,9.99999e-01,9.99999e-01,9.99967e-01,8.86811e-01,9.99999e-01
4.858882533e-01,8.88867e-01,9.99999e-01,9.99999e-01,9.99942e-01,8.88918e-01,9.99999e-01
4.883176946e-01,8.90945e-01,9.99999e-01,9.99999e-01,9.99951e-01,8.90988e-01,9.99999e-01
4.907592831e-01,8.92983e-01,9.99999e-01,9.99999e-01,9.99956e-01,8.93021e-01,9.99999e-01
4.932130795e-01,8.94992e-01,9.99999e-01,9.99999e-01,9.99968e-01,8.95019e-01,9.99999e-01
4.956791449e-01,8.96968e-01,9.99999e-01,9.99999e-01,9.99983e-01,8.96982e-01,9.99999e-01
4.981575406e-01,8.98836e-01,9.99999e-01,9.99999e-01,9.99917e-01,8.98911e-01,9.99999e-01
5.006483283e-01,9.00610e-01,9.99999e-01,9.99999e-01,9.99784e-01,9.00805e-01,9.99998e-01
5.031515699e-01,9.01682e-01,9.99999e-01,9.99999e-01,9.98920e-01,9.02665e-01,9.99988e-01
5.056673278e-01,9.03969e-01,9.99999e-01,9.99999e-01,9.99433e-01,9.04493e-01,9.99986e-01
5.081956644e-01,9.05634e-01,9.99999e-01,9.99999e-01,9.99285e-01,9.06288e-01,9.99991e-01
5.107366428e-01,9.07613e-01,9.99999e-01,9.99999e-01,9.99517e-01,9.08051e-01,9.99998e-01
5.132903260e-01,9.09533e-01,9.99999e-01,9.99999e-01,9.99725e-01,9.09783e-01,9.99999e-01
5.158567776e-01,9.11378e-01,9.99999e-01,9.99999e-01,9.99883e-01,9.11484e-01,9.99999e-01
5.184360615e-01,9.13112e-01,9.99999e-01,9.99999e-01,9.99953e-01,9.13154e-01,9.99999e-01
5.210282418e-01,9.14778e-01,9.99999e-01,9.99999e-01,9.99982e-01,9.14794e-01,9.99999e-01
5.236333830e-01,9.16340e-01,9.99999e-01,9.99999e-01,9.99929e-01,9.16405e-01,9.99999e-01
5.262515499e-01,9.17945e-01,9.99999e-01,9.99999e-01,9.99955e-01,9.17986e-01,9.99998e-01
5.288828077e-01,9.19501e-01,9.99999e-01,9.99999e-01,9.99959e-01,9.19539e-01,9.99999e-01
5.315272217e-01,9.21032e-01,9.99999e-01,9.99999e-01,9.99964e-01,9.21064e-01,9.99999e-01
5.341848578e-01,9.22540e-01,9.99999e-01,9.99999e-01,9.99976e-01,9.22561e-01,9.99999e-01
5.368557821e-01,9.23955e-01,9.99999e-01,9.99999e-01,9.99917e-01,9.24031e-01,9.99999e-01
5.395400610e-01,9.25194e-01,9.99999e-01,9.99999e-01,9.99699e-01,9.25474e-01,9.99996e-01
5.422377613e-01,9.26533e-01,9.99999e-01,9.99999e-01,9.99620e-01,9.26891e-01,9.99992e-01
5.449489501e-01,9.27945e-01,9.99999e-01,9.99999e-01,9.99643e-01,9.28282e-01,9.99992e-01
5.476736949e-01,9.29355e-01,9.99999e-01,9.99999e-01,9.99687e-01,9.29648e-01,9.99996e-01
5.504120634e-01,9.30776e-01,9.99999e-01,9.99999e-01,9.99773e-01,9.30988e-01,9.99998e-01
5.531641237e-01,9.32198e-01,9.99999e-01,9.99999e-01,9.99885e-01,9.32304e-01,9.99999e-01
5.559299443e-01,9.33545e-01,9.99999e-01,9.99999e-01,9.99944e-01,9.33596e-01,9.99999e-01
5.587095940e-01,9.34831e-01,9.99999e-01,9.99999e-01,9.99964e-01,9.34864e-01,9.99999e-01
5.615031420e-01,9.36072e-01,9.99999e-01,9.99999e-01,9.99960e-01,9.36108e-01,9.99999e-01
5.643106577e-01,9.37288e-01,9.99999e-01,9.99999e-01,9.99955e-01,9.37330e-01,9.99999e-01
5.671322110e-01,9.38012e-01,9.99999e-01,9.99999e-01,9.99453e-01,9.38529e-01,9.99994e-01
5.699678720e-01,9.39167e-01,9.99999e-01,9.99999e-01,9.99441e-01,9.39706e-01,9.99985e-01
5.728177114e-01,9.40294e-01,9.99999e-01,9.99999e-01,9.99408e-01,9.40861e-01,9.99987e-01
5.756818000e-01,9.41479e-01,9.99999e-01,9.99999e-01,9.99459e-01,9.41994e-01,9.99992e-01
5.785602090e-01,9.42662e-01,9.99999e-01,9.99999e-01,9.99529e-01,9.43107e-01,9.99997e-01
5.814530100e-01,9.43751e-01,9.99999e-01,9.99999e-01,9.99526e-01,9.44199e-01,9.99998e-01
5.843602750e-01,9.44728e-01,9.99999e-01,9.99999e-01,9.99429e-01,9.45270e-01,9.99996e-01
5.872820764e-01,9.41650e-01,9.99999e-01,9.99999e-01,9.95096e-01,9.46322e-01,9.99965e-01
5.902184868e-01,9.41710e-01,9.99999e-01,9.99999e-01,9.94134e-01,9.47353e-01,9.99906e-01
5.931695792e-01,9.44333e-01,9.99999e-01,9.99999e-01,9.95836e-01,9.48366e-01,9.99910e-01
5.961354271e-01,9.44992e-01,9.99999e-01,9.99999e-01,9.95450e-01,9.49360e-01,9.99948e-01
5.991161043e-01,9.47170e-01,9.99999e-01,9.99999e-01,9.96685e-01,9.50335e-01,9.99983e-01
6.021116848e-01,9.49503e-01,9.99999e-01,9.99999e-01,9.98121e-01,9.51291e-01,9.99997e-01
6.051222432e-01,9.51326e-01,9.99999e-01,9.99999e-01,9.99049e-01,9.52230e-01,9.99999e-01
6.081478544e-01,9.52760e-01,9.99999e-01,9.99999e-01,9.99589e-01,9.53151e-01,9.99999e-01
6.111885937e-01,9.53890e-01,9.99999e-01,9.99999e-01,9.99826e-01,9.54055e-01,9.99999e-01
6.142445367e-01,9.54868e-01,9.99999e-01,9.99999e-01,9.99922e-01,9.54942e-01,9.99999e-01
6.173157594e-01,9.55771e-01,9.99999e-01,9.99999e-01,9.99956e-01,9.55812e-01,9.99999e-01
6.204023382e-01,9.56630e-01,9.99999e-01,9.99999e-01,9.99963e-01,9.56665e-01,9.99999e-01
6.235043498e-01,9.57345e-01,9.99999e-01,9.99999e-01,9.99835e-01,9.57503e-01,9.99999e-01
6.266218716e-01,9.57506e-01,9.99999e-01,9.99999e-01,9.99151e-01,9.58324e-01,9.99993e-01
6.297549810e-01,9.58821e-01,9.99999e-01,9.99999e-01,9.99688e-01,9.59130e-01,9.99987e-01
6.329037559e-01,9.59325e-01,9.99999e-01,9.99999e-01,9.99387e-01,9.59921e-01,9.99989e-01
6.360682746e-01,9.60188e-01,9.99999e-01,9.99999e-01,9.99474e-01,9.60697e-01,9.99993e-01
6.392486160e-01,9.60804e-01,9.99999e-01,9.99999e-01,9.99321e-01,9.61458e-01,9.99997e-01
6.424448591e-01,9.61318e-01,9.99999e-01,9.99999e-01,9.99082e-01,9.62205e-01,9.99995e-01
6.456570834e-01,9.58815e-01,9.99999e-01,9.99999e-01,9.95743e-01,9.62938e-01,9.99973e-01
6.488853688e-01,9.60636e-01,9.99999e-01,9.99999e-01,9.96930e-01,9.63656e-01,9.99934e-01
6.521297956e-01,9.61293e-01,9.99999e-01,9.99999e-01,9.96871e-01,9.64361e-01,9.99945e-01
6.553904446e-01,9.61989e-01,9.99999e-01,9.99999e-01,9.96865e-01,9.65053e-01,9.99959e-01
6.586673968e-01,9.63141e-01,9.99999e-01,9.99999e-01,9.97331e-01,9.65731e-01,9.99986e-01
6.619607338e-01,9.64957e-01,9.99999e-01,9.99999e-01,9.98512e-01,9.66396e-01,9.99996e-01
6.652705375e-01,9.66185e-01,9.99999e-01,9.99999e-01,9.99107e-01,9.67049e-01,9.99998e-01
6.685968902e-01,9.67323e-01,9.99999e-01,9.99999e-01,9.99620e-01,9.67689e-01,9.99999e-01
6.719398746e-01,9.68131e-01,9.99999e-01,9.99999e-01,9.99807e-01,9.68317e-01,9.99999e-01
6.752995740e-01,9.68835e-01,9.99999e-01,9.99999e-01,9.99898e-01,9.68933e-01,9.99999e-01
6.786760719e-01,9.69390e-01,9.99999e-01,9.99999e-01,9.99847e-01,9.69537e-01,9.99999e-01
6.820694522e-01,9.69875e-01,9.99999e-01,9.99999e-01,9.99738e-01,9.70130e-01,9.99998e-01
6.854797995e-01,9.70384e-01,9.99999e-01,9.99999e-01,9.99665e-01,9.70711e-01,9.99996e-01
6.889071985e-01,9.70221e-01,9.99999e-01,9.99999e-01,9.98914e-01,9.71281e-01,9.99992e-01
6.923517345e-01,9.58866e-01,9.99999e-01,9.99999e-01,9.86711e-01,9.71840e-01,9.99936e-01
6.958134932e-01,9.65731e-01,9.99999e-01,9.99999e-01,9.93291e-01,9.72389e-01,9.99859e-01
6.992925606e-01,9.66425e-01,9.99999e-01,9.99999e-01,9.93442e-01,9.72927e-01,9.99873e-01
7.027890234e-01,9.65573e-01,9.99999e-01,9.99999e-01,9.91998e-01,9.73454e-01,9.99903e-01
7.063029686e-01,9.67362e-01,9.99999e-01,9.99999e-01,9.93260e-01,9.73972e-01,9.99951e-01
7.098344834e-01,9.68151e-01,9.99999e-01,9.99999e-01,9.93533e-01,9.74479e-01,9.99971e-01
7.133836558e-01,9.66383e-01,9.99999e-01,9.99999e-01,9.91240e-01,9.74977e-01,9.99943e-01
7.169505741e-01,9.08981e-01,9.99999e-01,9.99999e-01,9.32255e-01,9.75465e-01,9.99556e-01
7.205353270e-01,9.43093e-01,9.99999e-01,9.99999e-01,9.67094e-01,9.75944e-01,9.99218e-01
7.241380036e-01,9.34246e-01,9.99999e-01,9.99999e-01,9.57459e-01,9.76413e-01,9.99325e-01
7.277586936e-01,9.38855e-01,9.99999e-01,9.99999e-01,9.61589e-01,9.76874e-01,9.99470e-01
7.313974871e-01,9.37574e-01,9.99999e-01,9.99999e-01,9.59551e-01,9.77325e-01,9.99764e-01
7.350544745e-01,9.55829e-01,9.99999e-01,9.99999e-01,9.77649e-01,9.77768e-01,9.99909e-01
7.387297469e-01,9.62045e-01,9.99999e-01,9.99999e-01,9.83522e-01,9.78203e-01,9.99958e-01
7.424233956e-01,9.70726e-01,9.99999e-01,9.99999e-01,9.91931e-01,9.78628e-01,9.99992e-01
7.461355126e-01,9.74241e-01,9.99999e-01,9.99999e-01,9.95093e-01,9.79046e-01,9.99998e-01
7.498661902e-01,9.77225e-01,9.99999e-01,9.99999e-01,9.97722e-01,9.79456e-01,9.99999e-01
7.536155211e-01,9.78758e-01,9.99999e-01,9.99999e-01,9.98877e-01,9.79857e-01,9.99999e-01
7.573835987e-01,9.79685e-01,9.99999e-01,9.99999e-01,9.99422e-01,9.80251e-01,9.99999e-01
7.611705167e-01,9.80286e-01,9.99999e-01,9.99999e-01,9.99640e-01,9.80638e-01,9.99999e-01
7.649763693e-01,9.80795e-01,9.99999e-01,9.99999e-01,9.99774e-01,9.81016e-01,9.99999e-01
7.688012511e-01,9.81234e-01,9.99999e-01,9.99999e-01,9.99842e-01,9.81388e-01,9.99999e-01
7.726452574e-01,9.81625e-01,9.99999e-01,9.99999e-01,9.99870e-01,9.81752e-01,9.99999e-01
7.765084837e-01,9.81926e-01,9.99999e-01,9.99999e-01,9.99813e-01,9.82109e-01,9.99999e-01
7.803910261e-01,9.81667e-01,9.99999e-01,9.99999e-01,9.99194e-01,9.82459e-01,9.99998e-01
7.842929812e-01,9.80036e-01,9.99999e-01,9.99999e-01,9.97189e-01,9.82803e-01,9.99994e-01
7.882144461e-01,9.77482e-01,9.99999e-01,9.99999e-01,9.94283e-01,9.83140e-01,9.99960e-01
7.921555184e-01,9.80340e-01,9.99999e-01,9.99999e-01,9.96884e-01,9.83470e-01,9.99931e-01
7.961162960e-01,9.78232e-01,9.99999e-01,9.99999e-01,9.94411e-01,9.83794e-01,9.99934e-01
8.000968774e-01,9.77744e-01,9.99999e-01,9.99999e-01,9.93598e-01,9.84111e-01,9.99930e-01
8.040973618e-01,9.78055e-01,9.99999e-01,9.99999e-01,9.93583e-01,9.84423e-01,9.99946e-01
8.081178486e-01,9.70369e-01,9.99999e-01,9.99999e-01,9.85469e-01,9.84728e-01,9.99946e-01
8.121584379e-01,9.26673e-01,9.99999e-01,9.99999e-01,9.40948e-01,9.85027e-01,9.99797e-01
8.162192301e-01,9.16863e-01,9.99999e-01,9.99999e-01,9.31229e-01,9.85321e-01,9.99239e-01
8.203003262e-01,9.49650e-01,9.99999e-01,9.99999e-01,9.64373e-01,9.85609e-01,9.99109e-01
8.244018279e-01,9.38169e-01,9.99999e-01,9.99999e-01,9.52268e-01,9.85891e-01,9.99291e-01
8.285238370e-01,9.44224e-01,9.99999e-01,9.99999e-01,9.58000e-01,9.86168e-01,9.99443e-01
8.326664562e-01,9.44592e-01,9.99999e-01,9.99999e-01,9.57797e-01,9.86439e-01,9.99769e-01
8.368297885e-01,9.56797e-01,9.99999e-01,9.99999e-01,9.69739e-01,9.86705e-01,9.99946e-01
8.410139374e-01,9.69096e-01,9.99999e-01,9.99999e-01,9.81923e-01,9.86966e-01,9.99968e-01
8.452190071e-01,9.78432e-01,9.99999e-01,9.99999e-01,9.91113e-01,9.87222e-01,9.99981e-01
8.494451021e-01,9.82333e-01,9.99999e-01,9.99999e-01,9.94809e-01,9.87473e-01,9.99984e-01
8.536923276e-01,9.84689e-01,9.99999e-01,9.99999e-01,9.96941e-01,9.87718e-01,9.99990e-01
8.579607893e-01,9.86089e-01,9.99999e-01,9.99999e-01,9.98108e-01,9.87960e-01,9.99997e-01
8.622505932e-01,9.87012e-01,9.99999e-01,9.99999e-01,9.98801e-01,9.88196e-01,9.99999e-01
8.665618462e-01,9.87691e-01,9.99999e-01,9.99999e-01,9.99254e-01,9.88428e-01,9.99999e-01
8.708946554e-01,9.87809e-01,9.99999e-01,9.99999e-01,9.99144e-01,9.88655e-01,9.99999e-01
8.752491287e-01,9.87747e-01,9.99999e-01,9.99999e-01,9.98856e-01,9.88878e-01,9.99998e-01
8.796253743e-01,9.87521e-01,9.99999e-01,9.99999e-01,9.98410e-01,9.89096e-01,9.99995e-01
8.840235012e-01,9.87506e-01,9.99999e-01,9.99999e-01,9.98186e-01,9.89310e-01,9.99988e-01
8.884436187e-01,9.82788e-01,9.99999e-01,9.99999e-01,9.93226e-01,9.89520e-01,9.99968e-01
8.928858368e-01,9.22388e-01,9.99999e-01,9.99999e-01,9.32130e-01,9.89726e-01,9.99819e-01
8.973502660e-01,8.74828e-01,9.99999e-01,9.99999e-01,8.84545e-01,9.89928e-01,9.99075e-01
9.018370173e-01,9.29320e-01,9.99999e-01,9.99999e-01,9.39952e-01,9.90126e-01,9.98546e-01
9.063462024e-01,9.35406e-01,9.99999e-01,9.99999e-01,9.45755e-01,9.90320e-01,9.98723e-01
9.108779334e-01,9.07361e-01,9.99999e-01,9.99999e-01,9.17270e-01,9.90511e-01,9.98673e-01
9.154323231e-01,8.97345e-01,9.99999e-01,9.99999e-01,9.06765e-01,9.90697e-01,9.98903e-01
9.200094847e-01,9.17481e-01,9.99999e-01,9.99999e-01,9.26494e-01,9.90880e-01,9.99385e-01
9.246095321e-01,8.76585e-01,9.99999e-01,9.99999e-01,8.85118e-01,9.91059e-01,9.99292e-01
9.292325798e-01,4.47341e-01,9.99999e-01,9.99999e-01,4.52840e-01,9.91235e-01,9.96589e-01
9.338787427e-01,3.58127e-01,9.99999e-01,9.99999e-01,3.65718e-01,9.91407e-01,9.87728e-01
9.385481364e-01,6.51681e-01,9.99999e-01,9.99999e-01,6.66192e-01,9.91576e-01,9.86525e-01
9.432408771e-01,5.56381e-01,9.99999e-01,9.99999e-01,5.67618e-01,9.91742e-01,9.88364e-01
9.479570815e-01,4.52577e-01,9.99999e-01,9.99999e-01,4.60637e-01,9.91905e-01,9.90520e-01
9.526968669e-01,5.50378e-01,9.99999e-01,9.99999e-01,5.58013e-01,9.92064e-01,9.94206e-01
9.574603512e-01,5.73596e-01,9.99999e-01,9.99999e-01,5.79802e-01,9.92220e-01,9.97052e-01
9.622476530e-01,6.35389e-01,9.99999e-01,9.99999e-01,6.41580e-01,9.92373e-01,9.97961e-01
9.670588912e-01,7.66559e-01,9.99999e-01,9.99999e-01,7.73366e-01,9.92523e-01,9.98663e-01
9.718941857e-01,8.43440e-01,9.99999e-01,9.99999e-01,8.50538e-01,9.92670e-01,9.98976e-01
9.767536566e-01,8.67201e-01,9.99999e-01,9.99999e-01,8.74163e-01,9.92814e-01,9.99214e-01
9.816374249e-01,8.98764e-01,9.99999e-01,9.99999e-01,9.05385e-01,9.92956e-01,9.99727e-01
9.865456120e-01,9.33241e-01,9.99999e-01,9.99999e-01,9.39783e-01,9.93094e-01,9.99942e-01
9.914783401e-01,9.55775e-01,9.99999e-01,9.99999e-01,9.62304e-01,9.93230e-01,9.99983e-01
9.964357318e-01,9.72792e-01,9.99999e-01,9.99999e-01,9.79299e-01,9.93364e-01,9.99990e-01
1.001417910e+00,9.81115e-01,9.99999e-01,9.99999e-01,9.87553e-01,9.93494e-01,9.99985e-01
1.006425000e+00,9.86513e-01,9.99999e-01,9.99999e-01,9.92864e-01,9.93622e-01,9.99979e-01
1.011457125e+00,9.89339e-01,9.99999e-01,9.99999e-01,9.95581e-01,9.93748e-01,9.99980e-01
1.016514411e+00,9.90869e-01,9.99999e-01,9.99999e-01,9.96992e-01,9.93871e-01,9.99986e-01
1.021596983e+00,9.91594e-01,9.99999e-01,9.99999e-01,9.97600e-01,9.93992e-01,9.99986e-01
1.026704968e+00,9.92240e-01,9.99999e-01,9.99999e-01,9.98126e-01,9.94110e-01,9.99991e-01
1.031838492e+00,9.92874e-01,9.99999e-01,9.99999e-01,9.98642e-01,9.94226e-01,9.99997e-01
1.036997685e+00,9.93535e-01,9.99999e-01,9.99999e-01,9.99190e-01,9.94340e-01,9.99999e-01
1.042182673e+00,9.93487e-01,9.99999e-01,9.99999e-01,9.99030e-01,9.94451e-01,9.99999e-01
1.047393587e+00,9.93286e-01,9.99999e-01,9.99999e-01,9.98717e-01,9.94560e-01,9.99999e-01
1.052630555e+00,9.92915e-01,9.99999e-01,9.99999e-01,9.98237e-01,9.94668e-01,9.99999e-01
1.057893707e+00,9.91841e-01,9.99999e-01,9.99999e-01,9.97053e-01,9.94773e-01,9.99998e-01
1.063183176e+00,9.90060e-01,9.99999e-01,9.99999e-01,9.95161e-01,9.94876e-01,9.99996e-01
1.068499092e+00,9.86938e-01,9.99999e-01,9.99999e-01,9.91925e-01,9.94977e-01,9.99994e-01
1.073841587e+00,9.85642e-01,9.99999e-01,9.99999e-01,9.90531e-01,9.95076e-01,9.99987e-01
1.079210795e+00,9.83135e-01,9.99999e-01,9.99999e-01,9.87935e-01,9.95173e-01,9.99967e-01
1.084606849e+00,9.77026e-01,9.99999e-01,9.99999e-01,9.81747e-01,9.95268e-01,9.99921e-01
1.090029883e+00,9.68982e-01,9.99999e-01,9.99999e-01,9.73654e-01,9.95361e-01,9.99838e-01
1.095480033e+00,9.25569e-01,9.99999e-01,9.99999e-01,9.30067e-01,9.95452e-01,9.99708e-01
1.100957433e+00,8.27971e-01,9.99999e-01,9.99999e-01,8.32124e-01,9.95542e-01,9.99463e-01
1.106462220e+00,6.25458e-01,9.99999e-01,9.99999e-01,6.28774e-01,9.95630e-01,9.99090e-01
1.111994531e+00,3.80062e-01,9.99999e-01,9.99999e-01,3.82620e-01,9.95716e-01,9.97587e-01
1.117554504e+00,2.12132e-01,9.99999e-01,9.99999e-01,2.14892e-01,9.95800e-01,9.91316e-01
1.123142276e+00,3.25791e-01,9.99999e-01,9.99999e-01,3.33973e-01,9.95883e-01,9.79531e-01
1.128757988e+00,4.71470e-01,9.99999e-01,9.99999e-01,4.84842e-01,9.95964e-01,9.76360e-01
1.134401778e+00,2.45386e-01,9.99999e-01,9.99999e-01,2.51423e-01,9.96044e-01,9.79862e-01
1.140073787e+00,6.31500e-01,9.99999e-01,9.99999e-01,6.44346e-01,9.96122e-01,9.83877e-01
1.145774156e+00,4.00532e-01,9.99999e-01,9.99999e-01,4.08087e-01,9.96198e-01,9.85232e-01
1.151503026e+00,3.65691e-01,9.99999e-01,9.99999e-01,3.70113e-01,9.96273e-01,9.91745e-01
1.157260541e+00,4.25691e-01,9.99999e-01,9.99999e-01,4.28312e-01,9.96347e-01,9.97524e-01
1.163046844e+00,5.31854e-01,9.99999e-01,9.99999e-01,5.34141e-01,9.96419e-01,9.99297e-01
1.168862078e+00,6.42173e-01,9.99999e-01,9.99999e-01,6.44670e-01,9.96489e-01,9.99633e-01
1.174706389e+00,7.59445e-01,9.99999e-01,9.99999e-01,7.62451e-01,9.96558e-01,9.99495e-01
1.180579921e+00,8.44186e-01,9.99999e-01,9.99999e-01,8.47657e-01,9.96626e-01,9.99274e-01
1.186482820e+00,9.06936e-01,9.99999e-01,9.99999e-01,9.10622e-01,9.96693e-01,9.99255e-01
1.192415234e+00,9.43143e-01,9.99999e-01,9.99999e-01,9.46738e-01,9.96758e-01,9.99442e-01
1.198377311e+00,9.51279e-01,9.99999e-01,9.99999e-01,9.54816e-01,9.96822e-01,9.99470e-01
1.204369197e+00,9.53844e-01,9.99999e-01,9.99999e-01,9.57265e-01,9.96884e-01,9.99538e-01
1.210391043e+00,9.55888e-01,9.99999e-01,9.99999e-01,9.59093e-01,9.96946e-01,9.99709e-01
1.216442998e+00,9.62136e-01,9.99999e-01,9.99999e-01,9.65196e-01,9.97006e-01,9.99822e-01
1.222525213e+00,9.69800e-01,9.99999e-01,9.99999e-01,9.72761e-01,9.97065e-01,9.99889e-01
1.228637839e+00,9.78118e-01,9.99999e-01,9.99999e-01,9.80990e-01,9.97123e-01,9.99948e-01
