#,Wave/freq,Total,N2,O2,H2O,Rayleigh,CIA
4.000000000e-01,8.44307e-01,9.99999e-01,9.99999e-01,9.99980e-01,8.44323e-01,9.99999e-01
4.020000000e-01,8.47143e-01,9.99999e-01,9.99999e-01,9.99987e-01,8.47153e-01,9.99999e-01
4.040100000e-01,8.49929e-01,9.99999e-01,9.99999e-01,9.99994e-01,8.49933e-01,9.99999e-01
4.060300500e-01,8.52666e-01,9.99999e-01,9.99999e-01,9.99998e-01,8.52667e-01,9.99999e-01
4.080602003e-01,8.55355e-01,9.99999e-01,9.99999e-01,9.99999e-01,8.55356e-01,9.99999e-01
4.101005013e-01,8.57999e-01,9.99999e-01,9.99999e-01,9.99999e-01,8.57999e-01,9.99999e-01
4.121510038e-01,8.60598e-01,9.99999e-01,9.99999e-01,9.99998e-01,8.60599e-01,9.99999e-01
4.142117588e-01,8.63150e-01,9.99999e-01,9.99999e-01,9.99994e-01,8.63155e-01,9.99999e-01
4.162828176e-01,8.65647e-01,9.99999e-01,9.99999e-01,9.99975e-01,8.65667e-01,9.99999e-01
4.183642317e-01,8.68125e-01,9.99999e-01,9.99999e-01,9.99985e-01,8.68137e-01,9.99999e-01
4.204560528e-01,8.70558e-01,9.99999e-01,9.99999e-01,9.99990e-01,8.70565e-01,9.99999e-01
4.225583331e-01,8.72949e-01,9.99999e-01,9.99999e-01,9.99996e-01,8.72952e-01,9.99999e-01
4.246711247e-01,8.75296e-01,9.99999e-01,9.99999e-01,9.99996e-01,8.75298e-01,9.99999e-01
4.267944804e-01,8.77601e-01,9.99999e-01,9.99999e-01,9.99995e-01,8.77604e-01,9.99999e-01
4.289284528e-01,8.79868e-01,9.99999e-01,9.99999e-01,9.99996e-01,8.79870e-01,9.99999e-01
4.310730950e-01,8.82096e-01,9.99999e-01,9.99999e-01,9.99998e-01,8.82097e-01,9.99999e-01
4.332284605e-01,8.84286e-01,9.99999e-01,9.99999e-01,9.99999e-01,8.84286e-01,9.99999e-01
4.353946028e-01,8.86436e-01,9.99999e-01,9.99999e-01,9.99999e-01,8.86436e-01,9.99999e-01
4.375715758e-01,8.88548e-01,9.99999e-01,9.99999e-01,9.99997e-01,8.88550e-01,9.99999e-01
4.397594337e-01,8.90608e-01,9.99999e-01,9.99999e-01,9.99978e-01,8.90626e-01,9.99999e-01
4.419582309e-01,8.92572e-01,9.99999e-01,9.99999e-01,9.99894e-01,8.92666e-01,9.99999e-01
4.441680220e-01,8.94596e-01,9.99999e-01,9.99999e-01,9.99916e-01,8.94670e-01,9.99999e-01
4.463888621e-01,8.96562e-01,9.99999e-01,9.99999e-01,9.99913e-01,8.96639e-01,9.99999e-01
4.486208064e-01,8.98526e-01,9.99999e-01,9.99999e-01,9.99946e-01,8.98574e-01,9.99999e-01
4.508639105e-01,9.00451e-01,9.99999e-01,9.99999e-01,9.99974e-01,9.00474e-01,9.99999e-01
4.531182300e-01,9.02331e-01,9.99999e-01,9.99999e-01,9.99989e-01,9.02340e-01,9.99999e-01
4.553838212e-01,9.04168e-01,9.99999e-01,9.99999e-01,9.99992e-01,9.04174e-01,9.99999e-01
4.576607403e-01,9.05972e-01,9.99999e-01,9.99999e-01,9.99996e-01,9.05975e-01,9.99999e-01
4.599490440e-01,9.07741e-01,9.99999e-01,9.99999e-01,9.99997e-01,9.07743e-01,9.99999e-01
4.622487892e-01,9.09480e-01,9.99999e-01,9.99999e-01,9.99999e-01,9.09481e-01,9.99999e-01
4.645600332e-01,9.11185e-01,9.99999e-01,9.99999e-01,9.99998e-01,9.11187e-01,9.99999e-01
4.668828333e-01,9.12839e-01,9.99999e-01,9.99999e-01,9.99974e-01,9.12862e-01,9.99999e-01
4.692172475e-01,9.14458e-01,9.99999e-01,9.99999e-01,9.99945e-01,9.14507e-01,9.99999e-01
4.715633337e-01,9.16091e-01,9.99999e-01,9.99999e-01,9.99964e-01,9.16123e-01,9.99999e-01
4.739211504e-01,9.17679e-01,9.99999e-01,9.99999e-01,9.99965e-01,9.17710e-01,9.99999e-01
4.762907561e-01,9.19252e-01,9.99999e-01,9.99999e-01,9.99982e-01,9.19268e-01,9.99999e-01
4.786722099e-01,9.20791e-01,9.99999e-01,9.99999e-01,9.99992e-01,9.20798e-01,9.99999e-01
4.810655710e-01,9.22298e-01,9.99999e-01,9.99999e-01,9.99997e-01,9.22300e-01,9.99999e-01
4.834708988e-01,9.23755e-01,9.99999e-01,9.99999e-01,9.99979e-01,9.23774e-01,9.99999e-01
4.858882533e-01,9.25187e-01,9.99999e-01,9.99999e-01,9.99961e-01,9.25222e-01,9.99999e-01
4.883176946e-01,9.26614e-01,9.99999e-01,9.99999e-01,9.99967e-01,9.26644e-01,9.99999e-01
4.907592831e-01,9.28012e-01,9.99999e-01,9.99999e-01,9.99970e-01,9.28039e-01,9.99999e-01
4.932130795e-01,9.29390e-01,9.99999e-01,9.99999e-01,9.99979e-01,9.29409e-01,9.99999e-01
4.956791449e-01,9.30744e-01,9.99999e-01,9.99999e-01,9.99988e-01,9.30754e-01,9.99999e-01
4.981575406e-01,9.32024e-01,9.99999e-01,9.99999e-01,9.99945e-01,9.32074e-01,9.99999e-01
5.006483283e-01,9.33239e-01,9.99999e-01,9.99999e-01,9.99860e-01,9.33370e-01,9.99998e-01
5.031515699e-01,9.33972e-01,9.99999e-01,9.99999e-01,9.99290e-01,9.34642e-01,9.99992e-01
5.056673278e-01,9.35532e-01,9.99999e-01,9.99999e-01,9.99624e-01,9.35891e-01,9.99990e-01
5.081956644e-01,9.36668e-01,9.99999e-01,9.99999e-01,9.99526e-01,9.37116e-01,9.99994e-01
5.107366428e-01,9.38019e-01,9.99999e-01,9.99999e-01,9.99680e-01,9.38319e-01,9.99998e-01
5.132903260e-01,9.39328e-01,9.99999e-01,9.99999e-01,9.99816e-01,9.39500e-01,9.99999e-01
5.158567776e-01,9.40586e-01,9.99999e-01,9.99999e-01,9.99922e-01,9.40659e-01,9.99999e-01
5.184360615e-01,9.41767e-01,9.99999e-01,9.99999e-01,9.99968e-01,9.41796e-01,9.99999e-01
5.210282418e-01,9.42902e-01,9.99999e-01,9.99999e-01,9.99987e-01,9.42912e-01,9.99999e-01
5.236333830e-01,9.43964e-01,9.99999e-01,9.99999e-01,9.99953e-01,9.44008e-01,9.99999e-01
5.262515499e-01,9.45055e-01,9.99999e-01,9.99999e-01,9.99970e-01,9.45083e-01,9.99999e-01
5.288828077e-01,9.46113e-01,9.99999e-01,9.99999e-01,9.99973e-01,9.46138e-01,9.99999e-01
5.315272217e-01,9.47151e-01,9.99999e-01,9.99999e-01,9.99976e-01,9.47173e-01,9.99999e-01
5.341848578e-01,9.48175e-01,9.99999e-01,9.99999e-01,9.99984e-01,9.48189e-01,9.99999e-01
5.368557821e-01,9.49135e-01,9.99999e-01,9.99999e-01,9.99945e-01,9.49186e-01,9.99999e-01
5.395400610e-01,9.49979e-01,9.99999e-01,9.99999e-01,9.99806e-01,9.50164e-01,9.99997e-01
5.422377613e-01,9.50881e-01,9.99999e-01,9.99999e-01,9.99748e-01,9.51124e-01,9.99994e-01
5.449489501e-01,9.51840e-01,9.99999e-01,9.99999e-01,9.99766e-01,9.52066e-01,9.99994e-01
5.476736949e-01,9.52790e-01,9.99999e-01,9.99999e-01,9.99792e-01,9.52990e-01,9.99997e-01
5.504120634e-01,9.53753e-01,9.99999e-01,9.99999e-01,9.99849e-01,9.53897e-01,9.99998e-01
5.531641237e-01,9.54714e-01,9.99999e-01,9.99999e-01,9.99923e-01,9.54787e-01,9.99999e-01
5.559299443e-01,9.55625e-01,9.99999e-01,9.99999e-01,9.99962e-01,9.55660e-01,9.99999e-01
5.587095940e-01,9.56494e-01,9.99999e-01,9.99999e-01,9.99976e-01,9.56516e-01,9.99999e-01
5.615031420e-01,9.57332e-01,9.99999e-01,9.99999e-01,9.99974e-01,9.57356e-01,9.99999e-01
5.643106577e-01,9.58153e-01,9.99999e-01,9.99999e-01,9.99970e-01,9.58181e-01,9.99999e-01
5.671322110e-01,9.58653e-01,9.99999e-01,9.99999e-01,9.99651e-01,9.58990e-01,9.99996e-01
5.699678720e-01,9.59414e-01,9.99999e-01,9.99999e-01,9.99624e-01,9.59783e-01,9.99989e-01
5.728177114e-01,9.60181e-01,9.99999e-01,9.99999e-01,9.99611e-01,9.60562e-01,9.99991e-01
5.756818000e-01,9.60978e-01,9.99999e-01,9.99999e-01,9.99642e-01,9.61325e-01,9.99994e-01
5.785602090e-01,9.61774e-01,9.99999e-01,9.99999e-01,9.99688e-01,9.62075e-01,9.99998e-01
5.814530100e-01,9.62508e-01,9.99999e-01,9.99999e-01,9.99687e-01,9.62810e-01,9.99998e-01
5.843602750e-01,9.63171e-01,9.99999e-01,9.99999e-01,9.99628e-01,9.63531e-01,9.99997e-01
5.872820764e-01,9.61132e-01,9.99999e-01,9.99999e-01,9.96800e-01,9.64238e-01,9.99976e-01
5.902184868e-01,9.61120e-01,9.99999e-01,9.99999e-01,9.96110e-01,9.64932e-01,9.99938e-01
5.931695792e-01,9.62905e-01,9.99999e-01,9.99999e-01,9.97254e-01,9.65612e-01,9.99940e-01
5.961354271e-01,9.63337e-01,9.99999e-01,9.99999e-01,9.96987e-01,9.66280e-01,9.99965e-01
5.991161043e-01,9.64800e-01,9.99999e-01,9.99999e-01,9.97801e-01,9.66935e-01,9.99989e-01
6.021116848e-01,9.66369e-01,9.99999e-01,9.99999e-01,9.98751e-01,9.67577e-01,9.99998e-01
6.051222432e-01,9.67596e-01,9.99999e-01,9.99999e-01,9.99367e-01,9.68207e-01,9.99999e-01
6.081478544e-01,9.68562e-01,9.99999e-01,9.99999e-01,9.99727e-01,9.68826e-01,9.99999e-01
6.111885937e-01,9.69320e-01,9.99999e-01,9.99999e-01,9.99884e-01,9.69432e-01,9.99999e-01
6.142445367e-01,9.69977e-01,9.99999e-01,9.99999e-01,9.99948e-01,9.70026e-01,9.99999e-01
6.173157594e-01,9.70582e-01,9.99999e-01,9.99999e-01,9.99971e-01,9.70610e-01,9.99999e-01
6.204023382e-01,9.71158e-01,9.99999e-01,9.99999e-01,9.99975e-01,9.71182e-01,9.99999e-01
6.235043498e-01,9.71641e-01,9.99999e-01,9.99999e-01,9.99894e-01,9.71743e-01,9.99999e-01
6.266218716e-01,9.71746e-01,9.99999e-01,9.99999e-01,9.99440e-01,9.72293e-01,9.99995e-01
6.297549810e-01,9.72626e-01,9.99999e-01,9.99999e-01,9.99794e-01,9.72833e-01,9.99991e-01
6.329037559e-01,9.72961e-01,9.99999e-01,9.99999e-01,9.99593e-01,9.73362e-01,9.99993e-01
6.360682746e-01,9.73542e-01,9.99999e-01,9.99999e-01,9.99654e-01,9.73882e-01,9.99995e-01
6.392486160e-01,9.73953e-01,9.99999e-01,9.99999e-01,9.99552e-01,9.74391e-01,9.99997e-01
6.424448591e-01,9.74306e-01,9.99999e-01,9.99999e-01,9.99403e-01,9.74890e-01,9.99996e-01
6.456570834e-01,9.72663e-01,9.99999e-01,9.99999e-01,9.97229e-01,9.75380e-01,9.99984e-01
6.488853688e-01,9.73830e-01,9.99999e-01,9.99999e-01,9.97961e-01,9.75860e-01,9.99956e-01
6.521297956e-01,9.74268e-01,9.99999e-01,9.99999e-01,9.97921e-01,9.76331e-01,9.99963e-01
6.553904446e-01,9.74761e-01,9.99999e-01,9.99999e-01,9.97945e-01,9.76793e-01,9.99972e-01
6.586673968e-01,9.75508e-01,9.99999e-01,9.99999e-01,9.98228e-01,9.77247e-01,9.99990e-01
6.619607338e-01,9.76688e-01,9.99999e-01,9.99999e-01,9.98975e-01,9.77691e-01,9.99997e-01
6.652705375e-01,9.77546e-01,9.99999e-01,9.99999e-01,9.99406e-01,9.78127e-01,9.99998e-01
6.685968902e-01,9.78284e-01,9.99999e-01,9.99999e-01,9.99724e-01,9.78554e-01,9.99999e-01
6.719398746e-01,9.78848e-01,9.99999e-01,9.99999e-01,9.99871e-01,9.78973e-01,9.99999e-01
6.752995740e-01,9.79317e-01,9.99999e-01,9.99999e-01,9.99930e-01,9.79384e-01,9.99999e-01
6.786760719e-01,9.79690e-01,9.99999e-01,9.99999e-01,9.99900e-01,9.79787e-01,9.99999e-01
6.820694522e-01,9.80015e-01,9.99999e-01,9.99999e-01,9.99829e-01,9.80182e-01,9.99998e-01
6.854797995e-01,9.80353e-01,9.99999e-01,9.99999e-01,9.99779e-01,9.80570e-01,9.99997e-01
6.889071985e-01,9.80427e-01,9.99999e-01,9.99999e-01,9.99470e-01,9.80950e-01,9.99994e-01
6.923517345e-01,9.72787e-01,9.99999e-01,9.99999e-01,9.91342e-01,9.81323e-01,9.99957e-01
6.958134932e-01,9.77132e-01,9.99999e-01,9.99999e-01,9.95451e-01,9.81688e-01,9.99905e-01
6.992925606e-01,9.77759e-01,9.99999e-01,9.99999e-01,9.95715e-01,9.82047e-01,9.99916e-01
7.027890234e-01,9.77124e-01,9.99999e-01,9.99999e-01,9.94694e-01,9.82398e-01,9.99936e-01
7.063029686e-01,9.78330e-01,9.99999e-01,9.99999e-01,9.95540e-01,9.82743e-01,9.99967e-01
7.098344834e-01,9.78856e-01,9.99999e-01,9.99999e-01,9.95720e-01,9.83081e-01,9.99980e-01
7.133836558e-01,9.77798e-01,9.99999e-01,9.99999e-01,9.94327e-01,9.83412e-01,9.99962e-01
7.169505741e-01,9.39238e-01,9.99999e-01,9.99999e-01,9.55043e-01,9.83737e-01,9.99707e-01
7.205353270e-01,9.61513e-01,9.99999e-01,9.99999e-01,9.77595e-01,9.84056e-01,9.99484e-01
7.241380036e-01,9.56192e-01,9.99999e-01,9.99999e-01,9.71808e-01,9.84368e-01,9.99554e-01
7.277586936e-01,9.59232e-01,9.99999e-01,9.99999e-01,9.74515e-01,9.84675e-01,9.99635e-01
7.313974871e-01,9.58082e-01,9.99999e-01,9.99999e-01,9.72861e-01,9.84975e-01,9.99829e-01
7.350544745e-01,9.70538e-01,9.99999e-01,9.99999e-01,9.85105e-01,9.85270e-01,9.99940e-01
7.387297469e-01,9.74711e-01,9.99999e-01,9.99999e-01,9.89020e-01,9.85558e-01,9.99972e-01
7.424233956e-01,9.80524e-01,9.99999e-01,9.99999e-01,9.94610e-01,9.85842e-01,9.99994e-01
7.461355126e-01,9.82898e-01,9.99999e-01,9.99999e-01,9.96733e-01,9.86119e-01,9.99998e-01
7.498661902e-01,9.84889e-01,9.99999e-01,9.99999e-01,9.98476e-01,9.86392e-01,9.99999e-01
7.536155211e-01,9.85922e-01,9.99999e-01,9.99999e-01,9.99253e-01,9.86659e-01,9.99999e-01
7.573835987e-01,9.86541e-01,9.99999e-01,9.99999e-01,9.99615e-01,9.86920e-01,9.99999e-01
7.611705167e-01,9.86941e-01,9.99999e-01,9.99999e-01,9.99760e-01,9.87177e-01,9.99999e-01
7.649763693e-01,9.87281e-01,9.99999e-01,9.99999e-01,9.99850e-01,9.87429e-01,9.99999e-01
7.688012511e-01,9.87573e-01,9.99999e-01,9.99999e-01,9.99895e-01,9.87675e-01,9.99999e-01
7.726452574e-01,9.87833e-01,9.99999e-01,9.99999e-01,9.99913e-01,9.87917e-01,9.99999e-01
7.765084837e-01,9.88035e-01,9.99999e-01,9.99999e-01,9.99878e-01,9.88155e-01,9.99999e-01
7.803910261e-01,9.87869e-01,9.99999e-01,9.99999e-01,9.99475e-01,9.88387e-01,9.99998e-01
7.842929812e-01,9.86805e-01,9.99999e-01,9.99999e-01,9.98171e-01,9.88615e-01,9.99996e-01
7.882144461e-01,9.85081e-01,9.99999e-01,9.99999e-01,9.96222e-01,9.88839e-01,9.99976e-01
7.921555184e-01,9.86960e-01,9.99999e-01,9.99999e-01,9.97922e-01,9.89058e-01,9.99954e-01
7.961162960e-01,9.85618e-01,9.99999e-01,9.99999e-01,9.96347e-01,9.89273e-01,9.99956e-01
8.000968774e-01,9.85257e-01,9.99999e-01,9.99999e-01,9.95772e-01,9.89484e-01,9.99953e-01
8.040973618e-01,9.85473e-01,9.99999e-01,9.99999e-01,9.95773e-01,9.89690e-01,9.99963e-01
8.081178486e-01,9.80473e-01,9.99999e-01,9.99999e-01,9.90516e-01,9.89893e-01,9.99965e-01
8.121584379e-01,9.51317e-01,9.99999e-01,9.99999e-01,9.60964e-01,9.90092e-01,9.99866e-01
8.162192301e-01,9.43884e-01,9.99999e-01,9.99999e-01,9.53619e-01,9.90286e-01,9.99498e-01
8.203003262e-01,9.66889e-01,9.99999e-01,9.99999e-01,9.76757e-01,9.90477e-01,9.99412e-01
8.244018279e-01,9.57819e-01,9.99999e-01,9.99999e-01,9.67296e-01,9.90665e-01,9.99532e-01
8.285238370e-01,9.62907e-01,9.99999e-01,9.99999e-01,9.72157e-01,9.90848e-01,9.99632e-01
8.326664562e-01,9.62940e-01,9.99999e-01,9.99999e-01,9.71804e-01,9.91028e-01,9.99847e-01
8.368297885e-01,9.71132e-01,9.99999e-01,9.99999e-01,9.79782e-01,9.91204e-01,9.99964e-01
8.410139374e-01,9.79405e-01,9.99999e-01,9.99999e-01,9.87942e-01,9.91377e-01,9.99979e-01
8.452190071e-01,9.85655e-01,9.99999e-01,9.99999e-01,9.94069e-01,9.91547e-01,9.99987e-01
8.494451021e-01,9.88294e-01,9.99999e-01,9.99999e-01,9.96561e-01,9.91713e-01,9.99989e-01
8.536923276e-01,9.89850e-01,9.99999e-01,9.99999e-01,9.97962e-01,9.91876e-01,9.99993e-01
8.579607893e-01,9.90792e-01,9.99999e-01,9.99999e-01,9.98746e-01,9.92036e-01,9.99998e-01
8.622505932e-01,9.91402e-01,9.99999e-01,9.99999e-01,9.99202e-01,9.92193e-01,9.99999e-01
8.665618462e-01,9.91858e-01,9.99999e-01,9.99999e-01,9.99507e-01,9.92346e-01,9.99999e-01
8.708946554e-01,9.91938e-01,9.99999e-01,9.99999e-01,9.99436e-01,9.92497e-01,9.99999e-01
8.752491287e-01,9.91896e-01,9.99999e-01,9.99999e-01,9.99246e-01,9.92645e-01,9.99998e-01
8.796253743e-01,9.91753e-01,9.99999e-01,9.99999e-01,9.98957e-01,9.92789e-01,9.99997e-01
8.840235012e-01,9.91742e-01,9.99999e-01,9.99999e-01,9.98809e-01,9.92931e-01,9.99992e-01
8.884436187e-01,9.88768e-01,9.99999e-01,9.99999e-01,9.95688e-01,9.93070e-01,9.99978e-01
8.928858368e-01,9.48583e-01,9.99999e-01,9.99999e-01,9.55183e-01,9.93207e-01,9.99880e-01
8.973502660e-01,9.15039e-01,9.99999e-01,9.99999e-01,9.21735e-01,9.93340e-01,9.99389e-01
9.018370173e-01,9.51957e-01,9.99999e-01,9.99999e-01,9.59131e-01,9.93471e-01,9.99040e-01
9.063462024e-01,9.57215e-01,9.99999e-01,9.99999e-01,9.64192e-01,9.93600e-01,9.99157e-01
9.108779334e-01,9.37846e-01,9.99999e-01,9.99999e-01,9.44593e-01,9.93726e-01,9.99124e-01
9.154323231e-01,9.30827e-01,9.99999e-01,9.99999e-01,9.37265e-01,9.93850e-01,9.99275e-01
9.200094847e-01,9.44350e-01,9.99999e-01,9.99999e-01,9.50463e-01,9.93971e-01,9.99594e-01
9.246095321e-01,9.18191e-01,9.99999e-01,9.99999e-01,9.24081e-01,9.94089e-01,9.99532e-01
9.292325798e-01,5.83979e-01,9.99999e-01,9.99999e-01,5.88452e-01,9.94206e-01,9.98180e-01
9.338787427e-01,4.96699e-01,9.99999e-01,9.99999e-01,5.03310e-01,9.94320e-01,9.92501e-01
9.385481364e-01,7.47053e-01,9.99999e-01,9.99999e-01,7.57990e-01,9.94432e-01,9.91088e-01
9.432408771e-01,6.72323e-01,9.99999e-01,9.99999e-01,6.81253e-01,9.94541e-01,9.92307e-01
9.479570815e-01,5.82560e-01,9.99999e-01,9.99999e-01,5.89386e-01,9.94649e-01,9.93734e-01
9.526968669e-01,6.65545e-01,9.99999e-01,9.99999e-01,6.71623e-01,9.94754e-01,9.96173e-01
9.574603512e-01,6.88539e-01,9.99999e-01,9.99999e-01,6.93446e-01,9.94858e-01,9.98054e-01
9.622476530e-01,7.37340e-01,9.99999e-01,9.99999e-01,7.42073e-01,9.94959e-01,9.98653e-01
9.670588912e-01,8.37206e-01,9.99999e-01,9.99999e-01,8.42138e-01,9.95058e-01,9.99079e-01
9.718941857e-01,8.93280e-01,9.99999e-01,9.99999e-01,8.98236e-01,9.95156e-01,9.99321e-01
9.767536566e-01,9.09968e-01,9.99999e-01,9.99999e-01,9.14783e-01,9.95251e-01,9.99481e-01
9.816374249e-01,9.31552e-01,9.99999e-01,9.99999e-01,9.36076e-01,9.95345e-01,9.99820e-01
9.865456120e-01,9.55160e-01,9.99999e-01,9.99999e-01,9.59574e-01,9.95436e-01,9.99962e-01
9.914783401e-01,9.70459e-01,9.99999e-01,9.99999e-01,9.74829e-01,9.95526e-01,9.99989e-01
9.964357318e-01,9.81884e-01,9.99999e-01,9.99999e-01,9.86214e-01,9.95614e-01,9.99993e-01
1.001417910e+00,9.87444e-01,9.99999e-01,9.99999e-01,9.91715e-01,9.95701e-01,9.99990e-01
1.006425000e+00,9.91067e-01,9.99999e-01,9.99999e-01,9.95274e-01,9.95786e-01,9.99986e-01
1.011457125e+00,9.92931e-01,9.99999e-01,9.99999e-01,9.97061e-01,9.95869e-01,9.99987e-01
1.016514411e+00,9.93956e-01,9.99999e-01,9.99999e-01,9.98005e-01,9.95950e-01,9.99990e-01
1.021596983e+00,9.94439e-01,9.99999e-01,9.99999e-01,9.98410e-01,9.96030e-01,9.99990e-01
1.026704968e+00,9.94868e-01,9.99999e-01,9.99999e-01,9.98760e-01,9.96108e-01,9.99993e-01
1.031838492e+00,9.95286e-01,9.99999e-01,9.99999e-01,9.99098e-01,9.96185e-01,9.99997e-01
1.036997685e+00,9.95727e-01,9.99999e-01,9.99999e-01,9.99464e-01,9.96260e-01,9.99999e-01
1.042182673e+00,9.95699e-01,9.99999e-01,9.99999e-01,9.99362e-01,9.96334e-01,9.99999e-01
1.047393587e+00,9.95564e-01,9.99999e-01,9.99999e-01,9.99154e-01,9.96406e-01,9.99999e-01
1.052630555e+00,9.95322e-01,9.99999e-01,9.99999e-01,9.98840e-01,9.96477e-01,9.99999e-01
1.057893707e+00,9.94619e-01,9.99999e-01,9.99999e-01,9.98066e-01,9.96546e-01,9.99998e-01
1.063183176e+00,9.93442e-01,9.99999e-01,9.99999e-01,9.96818e-01,9.96614e-01,9.99997e-01
1.068499092e+00,9.91369e-01,9.99999e-01,9.99999e-01,9.94672e-01,9.96681e-01,9.99995e-01
1.073841587e+00,9.90531e-01,9.99999e-01,9.99999e-01,9.93771e-01,9.96747e-01,9.99991e-01
1.079210795e+00,9.88830e-01,9.99999e-01,9.99999e-01,9.92014e-01,9.96811e-01,9.99978e-01
1.084606849e+00,9.84802e-01,9.99999e-01,9.99999e-01,9.87941e-01,9.96874e-01,9.99948e-01
1.090029883e+00,9.79641e-01,9.99999e-01,9.99999e-01,9.82756e-01,9.96935e-01,9.99893e-01
1.095480033e+00,9.50618e-01,9.99999e-01,9.99999e-01,9.53665e-01,9.96996e-01,9.99807e-01
1.100957433e+00,8.83484e-01,9.99999e-01,9.99999e-01,8.86407e-01,9.97055e-01,9.99645e-01
1.106462220e+00,7.33907e-01,9.99999e-01,9.99999e-01,7.36474e-01,9.97113e-01,9.99399e-01
1.111994531e+00,5.23151e-01,9.99999e-01,9.99999e-01,5.25472e-01,9.97170e-01,9.98407e-01
1.117554504e+00,3.50625e-01,9.99999e-01,9.99999e-01,3.53629e-01,9.97226e-01,9.94261e-01
1.123142276e+00,4.59370e-01,9.99999e-01,9.99999e-01,4.66951e-01,9.97280e-01,9.86446e-01
1.128757988e+00,6.01867e-01,9.99999e-01,9.99999e-01,6.13078e-01,9.97334e-01,9.84337e-01
1.134401778e+00,3.45633e-01,9.99999e-01,9.99999e-01,3.51221e-01,9.97387e-01,9.86666e-01
1.140073787e+00,7.36445e-01,9.99999e-01,9.99999e-01,7.46297e-01,9.97438e-01,9.89332e-01
1.145774156e+00,5.37206e-01,9.99999e-01,9.99999e-01,5.43871e-01,9.97489e-01,9.90230e-01
1.151503026e+00,5.03986e-01,9.99999e-01,9.99999e-01,5.08000e-01,9.97538e-01,9.94545e-01
1.157260541e+00,5.64483e-01,9.99999e-01,9.99999e-01,5.66774e-01,9.97587e-01,9.98365e-01
1.163046844e+00,6.54968e-01,9.99999e-01,9.99999e-01,6.56825e-01,9.97634e-01,9.99536e-01
1.168862078e+00,7.44575e-01,9.99999e-01,9.99999e-01,7.46483e-01,9.97681e-01,9.99760e-01
1.174706389e+00,8.32759e-01,9.99999e-01,9.99999e-01,8.34920e-01,9.97727e-01,9.99683e-01
1.180579921e+00,8.93500e-01,9.99999e-01,9.99999e-01,8.95923e-01,9.97772e-01,9.99521e-01
1.186482820e+00,9.37302e-01,9.99999e-01,9.99999e-01,9.39815e-01,9.97815e-01,9.99508e-01
1.192415234e+00,9.62027e-01,9.99999e-01,9.99999e-01,9.64445e-01,9.97859e-01,9.99631e-01
1.198377311e+00,9.67599e-01,9.99999e-01,9.99999e-01,9.69971e-01,9.97901e-01,9.99652e-01
1.204369197e+00,9.69246e-01,9.99999e-01,9.99999e-01,9.71549e-01,9.97942e-01,9.99685e-01
1.210391043e+00,9.70628e-01,9.99999e-01,9.99999e-01,9.72775e-01,9.97983e-01,9.99808e-01
1.216442998e+00,9.74729e-01,9.99999e-01,9.99999e-01,9.76774e-01,9.98023e-01,9.99882e-01
1.222525213e+00,9.79907e-01,9.99999e-01,9.99999e-01,9.81881e-01,9.98062e-01,9.99926e-01
1.228637839e+00,9.85480e-01,9.99999e-01,9.99999e-01,9.87389e-01,9.98100e-01,9.99965e-01
