#,Wave/freq,Total,N2,O2,H2O,Rayleigh,CIA
4.000000000e-01,4.70439e-01,9.99999e-01,9.99999e-01,9.99914e-01,4.70479e-01,9.99999e-01
4.020000000e-01,4.77520e-01,9.99999e-01,9.99999e-01,9.99946e-01,4.77545e-01,9.99999e-01
4.040100000e-01,4.84557e-01,9.99999e-01,9.99999e-01,9.99977e-01,4.84568e-01,9.99999e-01
4.060300500e-01,4.91550e-01,9.99999e-01,9.99999e-01,9.99994e-01,4.91553e-01,9.99999e-01
4.080602003e-01,4.98496e-01,9.99999e-01,9.99999e-01,9.99997e-01,4.98497e-01,9.99999e-01
4.101005013e-01,5.05399e-01,9.99999e-01,9.99999e-01,9.99999e-01,5.05399e-01,9.99999e-01
4.121510038e-01,5.12256e-01,9.99999e-01,9.99999e-01,9.99996e-01,5.12257e-01,9.99999e-01
4.142117588e-01,5.19058e-01,9.99999e-01,9.99999e-01,9.99976e-01,5.19071e-01,9.99999e-01
4.162828176e-01,5.25782e-01,9.99999e-01,9.99999e-01,9.99894e-01,5.25837e-01,9.99999e-01
4.183642317e-01,5.32523e-01,9.99999e-01,9.99999e-01,9.99936e-01,5.32556e-01,9.99999e-01
4.204560528e-01,5.39204e-01,9.99999e-01,9.99999e-01,9.99961e-01,5.39225e-01,9.99999e-01
4.225583331e-01,5.45836e-01,9.99999e-01,9.99999e-01,9.99985e-01,5.45844e-01,9.99999e-01
4.246711247e-01,5.52404e-01,9.99999e-01,9.99999e-01,9.99988e-01,5.52410e-01,9.99999e-01
4.267944804e-01,5.58915e-01,9.99999e-01,9.99999e-01,9.99982e-01,5.58924e-01,9.99999e-01
4.289284528e-01,5.65376e-01,9.99999e-01,9.99999e-01,9.99986e-01,5.65384e-01,9.99999e-01
4.310730950e-01,5.71785e-01,9.99999e-01,9.99999e-01,9.99993e-01,5.71788e-01,9.99999e-01
4.332284605e-01,5.78136e-01,9.99999e-01,9.99999e-01,9.99998e-01,5.78136e-01,9.99999e-01
4.353946028e-01,5.84427e-01,9.99999e-01,9.99999e-01,9.99998e-01,5.84428e-01,9.99999e-01
4.375715758e-01,5.90655e-01,9.99999e-01,9.99999e-01,9.99989e-01,5.90661e-01,9.99999e-01
4.397594337e-01,5.96781e-01,9.99999e-01,9.99999e-01,9.99907e-01,5.96836e-01,9.99999e-01
4.419582309e-01,6.02670e-01,9.99999e-01,9.99999e-01,9.99532e-01,6.02952e-01,9.99999e-01
4.441680220e-01,6.08783e-01,9.99999e-01,9.99999e-01,9.99631e-01,6.09007e-01,9.99999e-01
4.463888621e-01,6.14767e-01,9.99999e-01,9.99999e-01,9.99617e-01,6.15002e-01,9.99999e-01
4.486208064e-01,6.20788e-01,9.99999e-01,9.99999e-01,9.99761e-01,6.20936e-01,9.99999e-01
4.508639105e-01,6.26738e-01,9.99999e-01,9.99999e-01,9.99888e-01,6.26808e-01,9.99999e-01
4.531182300e-01,6.32590e-01,9.99999e-01,9.99999e-01,9.99955e-01,6.32618e-01,9.99999e-01
4.553838212e-01,6.38347e-01,9.99999e-01,9.99999e-01,9.99969e-01,6.38366e-01,9.99999e-01
4.576607403e-01,6.44042e-01,9.99999e-01,9.99999e-01,9.99985e-01,6.44051e-01,9.99999e-01
4.599490440e-01,6.49666e-01,9.99999e-01,9.99999e-01,9.99989e-01,6.49672e-01,9.99999e-01
4.622487892e-01,6.55229e-01,9.99999e-01,9.99999e-01,9.99997e-01,6.55230e-01,9.99999e-01
4.645600332e-01,6.60721e-01,9.99999e-01,9.99999e-01,9.99992e-01,6.60725e-01,9.99999e-01
4.668828333e-01,6.66081e-01,9.99999e-01,9.99999e-01,9.99887e-01,6.66156e-01,9.99999e-01
4.692172475e-01,6.71362e-01,9.99999e-01,9.99999e-01,9.99760e-01,6.71522e-01,9.99999e-01
4.715633337e-01,6.76719e-01,9.99999e-01,9.99999e-01,9.99843e-01,6.76825e-01,9.99999e-01
4.739211504e-01,6.81962e-01,9.99999e-01,9.99999e-01,9.99849e-01,6.82064e-01,9.99999e-01
4.762907561e-01,6.87185e-01,9.99999e-01,9.99999e-01,9.99921e-01,6.87238e-01,9.99999e-01
4.786722099e-01,6.92327e-01,9.99999e-01,9.99999e-01,9.99967e-01,6.92349e-01,9.99999e-01
4.810655710e-01,6.97388e-01,9.99999e-01,9.99999e-01,9.99989e-01,6.97395e-01,9.99999e-01
4.834708988e-01,7.02314e-01,9.99999e-01,9.99999e-01,9.99908e-01,7.02377e-01,9.99999e-01
4.858882533e-01,7.07176e-01,9.99999e-01,9.99999e-01,9.99829e-01,7.07296e-01,9.99999e-01
4.883176946e-01,7.12050e-01,9.99999e-01,9.99999e-01,9.99858e-01,7.12151e-01,9.99999e-01
4.907592831e-01,7.16850e-01,9.99999e-01,9.99999e-01,9.99871e-01,7.16942e-01,9.99999e-01
4.932130795e-01,7.21604e-01,9.99999e-01,9.99999e-01,9.99908e-01,7.21670e-01,9.99999e-01
4.956791449e-01,7.26300e-01,9.99999e-01,9.99999e-01,9.99951e-01,7.26334e-01,9.99999e-01
4.981575406e-01,7.30761e-01,9.99999e-01,9.99999e-01,9.99759e-01,7.30936e-01,9.99999e-01
5.006483283e-01,7.35016e-01,9.99999e-01,9.99999e-01,9.99378e-01,7.35476e-01,9.99995e-01
5.031515699e-01,7.37594e-01,9.99999e-01,9.99999e-01,9.96845e-01,7.39953e-01,9.99966e-01
5.056673278e-01,7.43097e-01,9.99999e-01,9.99999e-01,9.98331e-01,7.44367e-01,9.99961e-01
5.081956644e-01,7.47127e-01,9.99999e-01,9.99999e-01,9.97894e-01,7.48721e-01,9.99975e-01
5.107366428e-01,7.51939e-01,9.99999e-01,9.99999e-01,9.98577e-01,7.53013e-01,9.99994e-01
5.132903260e-01,7.56628e-01,9.99999e-01,9.99999e-01,9.99186e-01,7.57244e-01,9.99998e-01
5.158567776e-01,7.61153e-01,9.99999e-01,9.99999e-01,9.99655e-01,7.61415e-01,9.99999e-01
5.184360615e-01,7.65420e-01,9.99999e-01,9.99999e-01,9.99861e-01,7.65525e-01,9.99999e-01
5.210282418e-01,7.69537e-01,9.99999e-01,9.99999e-01,9.99948e-01,7.69576e-01,9.99999e-01
5.236333830e-01,7.73407e-01,9.99999e-01,9.99999e-01,9.99793e-01,7.73568e-01,9.99998e-01
5.262515499e-01,7.77399e-01,9.99999e-01,9.99999e-01,9.99870e-01,7.77501e-01,9.99997e-01
5.288828077e-01,7.81282e-01,9.99999e-01,9.99999e-01,9.99881e-01,7.81375e-01,9.99998e-01
5.315272217e-01,7.85110e-01,9.99999e-01,9.99999e-01,9.99895e-01,7.85192e-01,9.99999e-01
5.341848578e-01,7.88898e-01,9.99999e-01,9.99999e-01,9.99931e-01,7.88952e-01,9.99999e-01
5.368557821e-01,7.92465e-01,9.99999e-01,9.99999e-01,9.99760e-01,7.92655e-01,9.99998e-01
5.395400610e-01,7.95610e-01,9.99999e-01,9.99999e-01,9.99138e-01,7.96301e-01,9.99992e-01
5.422377613e-01,7.98980e-01,9.99999e-01,9.99999e-01,9.98879e-01,7.99892e-01,9.99979e-01
5.449489501e-01,8.02576e-01,9.99999e-01,9.99999e-01,9.98961e-01,8.03427e-01,9.99978e-01
5.476736949e-01,8.06155e-01,9.99999e-01,9.99999e-01,9.99076e-01,8.06908e-01,9.99989e-01
5.504120634e-01,8.09790e-01,9.99999e-01,9.99999e-01,9.99329e-01,8.10335e-01,9.99996e-01
5.531641237e-01,8.13434e-01,9.99999e-01,9.99999e-01,9.99662e-01,8.13708e-01,9.99999e-01
5.559299443e-01,8.16895e-01,9.99999e-01,9.99999e-01,9.99836e-01,8.17028e-01,9.99999e-01
5.587095940e-01,8.20213e-01,9.99999e-01,9.99999e-01,9.99897e-01,8.20296e-01,9.99999e-01
5.615031420e-01,8.23419e-01,9.99999e-01,9.99999e-01,9.99886e-01,8.23512e-01,9.99999e-01
5.643106577e-01,8.26570e-01,9.99999e-01,9.99999e-01,9.99871e-01,8.26677e-01,9.99998e-01
5.671322110e-01,8.28494e-01,9.99999e-01,9.99999e-01,9.98450e-01,8.29791e-01,9.99985e-01
5.699678720e-01,8.31430e-01,9.99999e-01,9.99999e-01,9.98331e-01,8.32854e-01,9.99957e-01
5.728177114e-01,8.34394e-01,9.99999e-01,9.99999e-01,9.98270e-01,8.35869e-01,9.99964e-01
5.756818000e-01,8.37484e-01,9.99999e-01,9.99999e-01,9.98411e-01,8.38834e-01,9.99977e-01
5.785602090e-01,8.40579e-01,9.99999e-01,9.99999e-01,9.98613e-01,8.41751e-01,9.99993e-01
5.814530100e-01,8.43443e-01,9.99999e-01,9.99999e-01,9.98609e-01,8.44620e-01,9.99996e-01
5.843602750e-01,8.46035e-01,9.99999e-01,9.99999e-01,9.98348e-01,8.47442e-01,9.99990e-01
5.872820764e-01,8.38114e-01,9.99999e-01,9.99999e-01,9.85863e-01,8.50217e-01,9.99899e-01
5.902184868e-01,8.38046e-01,9.99999e-01,9.99999e-01,9.82799e-01,8.52947e-01,9.99726e-01
5.931695792e-01,8.45013e-01,9.99999e-01,9.99999e-01,9.87849e-01,8.55631e-01,9.99736e-01
5.961354271e-01,8.46697e-01,9.99999e-01,9.99999e-01,9.86664e-01,8.58270e-01,9.99848e-01
5.991161043e-01,8.52431e-01,9.99999e-01,9.99999e-01,9.90249e-01,8.60865e-01,9.99952e-01
6.021116848e-01,8.58622e-01,9.99999e-01,9.99999e-01,9.94452e-01,8.63416e-01,9.99993e-01
6.051222432e-01,8.63490e-01,9.99999e-01,9.99999e-01,9.97189e-01,8.65924e-01,9.99999e-01
6.081478544e-01,8.67337e-01,9.99999e-01,9.99999e-01,9.98787e-01,8.68390e-01,9.99999e-01
6.111885937e-01,8.70367e-01,9.99999e-01,9.99999e-01,9.99485e-01,8.70814e-01,9.99999e-01
6.142445367e-01,8.72996e-01,9.99999e-01,9.99999e-01,9.99770e-01,8.73197e-01,9.99999e-01
6.173157594e-01,8.75428e-01,9.99999e-01,9.99999e-01,9.99873e-01,8.75538e-01,9.99999e-01
6.204023382e-01,8.77746e-01,9.99999e-01,9.99999e-01,9.99892e-01,8.77840e-01,9.99999e-01
6.235043498e-01,8.79690e-01,9.99999e-01,9.99999e-01,9.99532e-01,8.80102e-01,9.99998e-01
6.266218716e-01,8.80115e-01,9.99999e-01,9.99999e-01,9.97511e-01,8.82325e-01,9.99982e-01
6.297549810e-01,8.83672e-01,9.99999e-01,9.99999e-01,9.99086e-01,8.84510e-01,9.99964e-01
6.329037559e-01,8.85030e-01,9.99999e-01,9.99999e-01,9.98193e-01,8.86656e-01,9.99971e-01
6.360682746e-01,8.87387e-01,9.99999e-01,9.99999e-01,9.98464e-01,8.88766e-01,9.99982e-01
6.392486160e-01,8.89058e-01,9.99999e-01,9.99999e-01,9.98008e-01,8.90838e-01,9.99992e-01
6.424448591e-01,8.90494e-01,9.99999e-01,9.99999e-01,9.97345e-01,8.92875e-01,9.99987e-01
6.456570834e-01,8.83836e-01,9.99999e-01,9.99999e-01,9.87731e-01,8.94875e-01,9.99931e-01
6.488853688e-01,8.88569e-01,9.99999e-01,9.99999e-01,9.90966e-01,8.96841e-01,9.99807e-01
6.521297956e-01,8.90356e-01,9.99999e-01,9.99999e-01,9.90795e-01,8.98771e-01,9.99838e-01
6.553904446e-01,8.92351e-01,9.99999e-01,9.99999e-01,9.90884e-01,9.00668e-01,9.99878e-01
6.586673968e-01,8.95404e-01,9.99999e-01,9.99999e-01,9.92142e-01,9.02531e-01,9.99960e-01
6.619607338e-01,9.00238e-01,9.99999e-01,9.99999e-01,9.95448e-01,9.04361e-01,9.99991e-01
6.652705375e-01,9.03763e-01,9.99999e-01,9.99999e-01,9.97360e-01,9.06159e-01,9.99995e-01
6.685968902e-01,9.06810e-01,9.99999e-01,9.99999e-01,9.98773e-01,9.07924e-01,9.99998e-01
6.719398746e-01,9.09141e-01,9.99999e-01,9.99999e-01,9.99430e-01,9.09658e-01,9.99999e-01
6.752995740e-01,9.11081e-01,9.99999e-01,9.99999e-01,9.99692e-01,9.11361e-01,9.99999e-01
6.786760719e-01,9.12629e-01,9.99999e-01,9.99999e-01,9.99556e-01,9.13033e-01,9.99998e-01
6.820694522e-01,9.13978e-01,9.99999e-01,9.99999e-01,9.99240e-01,9.14676e-01,9.99995e-01
6.854797995e-01,9.15384e-01,9.99999e-01,9.99999e-01,9.99021e-01,9.16288e-01,9.99991e-01
6.889071985e-01,9.15694e-01,9.99999e-01,9.99999e-01,9.97647e-01,9.17872e-01,9.99978e-01
6.923517345e-01,8.84455e-01,9.99999e-01,9.99999e-01,9.62140e-01,9.19427e-01,9.99814e-01
6.958134932e-01,9.02143e-01,9.99999e-01,9.99999e-01,9.79984e-01,9.20954e-01,9.99580e-01
6.992925606e-01,9.04676e-01,9.99999e-01,9.99999e-01,9.81089e-01,9.22453e-01,9.99631e-01
7.027890234e-01,9.02069e-01,9.99999e-01,9.99999e-01,9.76619e-01,9.23925e-01,9.99716e-01
7.063029686e-01,9.07014e-01,9.99999e-01,9.99999e-01,9.80300e-01,9.25370e-01,9.99858e-01
7.098344834e-01,9.09184e-01,9.99999e-01,9.99999e-01,9.81085e-01,9.26789e-01,9.99916e-01
7.133836558e-01,9.04882e-01,9.99999e-01,9.99999e-01,9.75058e-01,9.28182e-01,9.99834e-01
7.169505741e-01,7.59747e-01,9.99999e-01,9.99999e-01,8.18392e-01,9.29549e-01,9.98698e-01
7.205353270e-01,8.40904e-01,9.99999e-01,9.99999e-01,9.05409e-01,9.30891e-01,9.97705e-01
7.241380036e-01,8.20426e-01,9.99999e-01,9.99999e-01,8.81834e-01,9.32209e-01,9.98018e-01
7.277586936e-01,8.32013e-01,9.99999e-01,9.99999e-01,8.92726e-01,9.33503e-01,9.98379e-01
7.313974871e-01,8.27166e-01,9.99999e-01,9.99999e-01,8.85556e-01,9.34772e-01,9.99240e-01
7.350544745e-01,8.75568e-01,9.99999e-01,9.99999e-01,9.35664e-01,9.36019e-01,9.99735e-01
7.387297469e-01,8.92267e-01,9.99999e-01,9.99999e-01,9.52128e-01,9.37242e-01,9.99878e-01
7.424233956e-01,9.16125e-01,9.99999e-01,9.99999e-01,9.76241e-01,9.38442e-01,9.99976e-01
7.461355126e-01,9.26031e-01,9.99999e-01,9.99999e-01,9.85540e-01,9.39621e-01,9.99995e-01
7.498661902e-01,9.34411e-01,9.99999e-01,9.99999e-01,9.93234e-01,9.40777e-01,9.99998e-01
7.536155211e-01,9.38785e-01,9.99999e-01,9.99999e-01,9.96679e-01,9.41913e-01,9.99998e-01
7.573835987e-01,9.41414e-01,9.99999e-01,9.99999e-01,9.98289e-01,9.43027e-01,9.99999e-01
7.611705167e-01,9.43117e-01,9.99999e-01,9.99999e-01,9.98936e-01,9.44120e-01,9.99999e-01
7.649763693e-01,9.44564e-01,9.99999e-01,9.99999e-01,9.99333e-01,9.45193e-01,9.99999e-01
7.688012511e-01,9.45807e-01,9.99999e-01,9.99999e-01,9.99536e-01,9.46246e-01,9.99999e-01
7.726452574e-01,9.46918e-01,9.99999e-01,9.99999e-01,9.99618e-01,9.47279e-01,9.99999e-01
7.765084837e-01,9.47780e-01,9.99999e-01,9.99999e-01,9.99459e-01,9.48293e-01,9.99998e-01
7.803910261e-01,9.47074e-01,9.99999e-01,9.99999e-01,9.97669e-01,9.49288e-01,9.99997e-01
7.842929812e-01,9.42543e-01,9.99999e-01,9.99999e-01,9.91889e-01,9.50264e-01,9.99984e-01
7.882144461e-01,9.35237e-01,9.99999e-01,9.99999e-01,9.83295e-01,9.51222e-01,9.99896e-01
7.921555184e-01,9.43206e-01,9.99999e-01,9.99999e-01,9.90790e-01,9.52162e-01,9.99800e-01
7.961162960e-01,9.37522e-01,9.99999e-01,9.99999e-01,9.83858e-01,9.53085e-01,9.99808e-01
8.000968774e-01,9.35971e-01,9.99999e-01,9.99999e-01,9.81311e-01,9.53990e-01,9.99796e-01
8.040973618e-01,9.36893e-01,9.99999e-01,9.99999e-01,9.81322e-01,9.54878e-01,9.99838e-01
8.081178486e-01,9.16056e-01,9.99999e-01,9.99999e-01,9.58613e-01,9.55749e-01,9.99848e-01
8.121584379e-01,8.02641e-01,9.99999e-01,9.99999e-01,8.39551e-01,9.56604e-01,9.99405e-01
8.162192301e-01,7.75976e-01,9.99999e-01,9.99999e-01,8.12280e-01,9.57442e-01,9.97767e-01
8.203003262e-01,8.64293e-01,9.99999e-01,9.99999e-01,9.04297e-01,9.58265e-01,9.97386e-01
8.244018279e-01,8.31765e-01,9.99999e-01,9.99999e-01,8.69067e-01,9.59072e-01,9.97919e-01
8.285238370e-01,8.46100e-01,9.99999e-01,9.99999e-01,8.82921e-01,9.59864e-01,9.98365e-01
8.326664562e-01,8.46489e-01,9.99999e-01,9.99999e-01,8.81766e-01,9.60641e-01,9.99323e-01
8.368297885e-01,8.78056e-01,9.99999e-01,9.99999e-01,9.13447e-01,9.61404e-01,9.99845e-01
8.410139374e-01,9.11597e-01,9.99999e-01,9.99999e-01,9.47541e-01,9.62151e-01,9.99909e-01
8.452190071e-01,9.37687e-01,9.99999e-01,9.99999e-01,9.73882e-01,9.62885e-01,9.99945e-01
8.494451021e-01,9.48898e-01,9.99999e-01,9.99999e-01,9.84780e-01,9.63604e-01,9.99956e-01
8.536923276e-01,9.55569e-01,9.99999e-01,9.99999e-01,9.90960e-01,9.64310e-01,9.99973e-01
8.579607893e-01,9.59623e-01,9.99999e-01,9.99999e-01,9.94431e-01,9.65003e-01,9.99993e-01
8.622505932e-01,9.62259e-01,9.99999e-01,9.99999e-01,9.96455e-01,9.65682e-01,9.99998e-01
8.665618462e-01,9.64231e-01,9.99999e-01,9.99999e-01,9.97809e-01,9.66348e-01,9.99998e-01
8.708946554e-01,9.64579e-01,9.99999e-01,9.99999e-01,9.97494e-01,9.67002e-01,9.99998e-01
8.752491287e-01,9.64397e-01,9.99999e-01,9.99999e-01,9.96648e-01,9.67643e-01,9.99995e-01
8.796253743e-01,9.63777e-01,9.99999e-01,9.99999e-01,9.95367e-01,9.68272e-01,9.99989e-01
8.840235012e-01,9.63732e-01,9.99999e-01,9.99999e-01,9.94708e-01,9.68889e-01,9.99967e-01
8.884436187e-01,9.51040e-01,9.99999e-01,9.99999e-01,9.81055e-01,9.69494e-01,9.99907e-01
8.928858368e-01,7.93914e-01,9.99999e-01,9.99999e-01,8.18828e-01,9.70087e-01,9.99469e-01
8.973502660e-01,6.80213e-01,9.99999e-01,9.99999e-01,7.02673e-01,9.70669e-01,9.97284e-01
9.018370173e-01,8.07300e-01,9.99999e-01,9.99999e-01,8.34765e-01,9.71240e-01,9.95734e-01
9.063462024e-01,8.26084e-01,9.99999e-01,9.99999e-01,8.53252e-01,9.71800e-01,9.96251e-01
9.108779334e-01,7.56044e-01,9.99999e-01,9.99999e-01,7.80582e-01,9.72349e-01,9.96105e-01
9.154323231e-01,7.30750e-01,9.99999e-01,9.99999e-01,7.53540e-01,9.72888e-01,9.96779e-01
9.200094847e-01,7.79091e-01,9.99999e-01,9.99999e-01,8.01812e-01,9.73416e-01,9.98196e-01
9.246095321e-01,6.99585e-01,9.99999e-01,9.99999e-01,7.19802e-01,9.73935e-01,9.97922e-01
9.292325798e-01,1.29288e-01,9.99999e-01,9.99999e-01,1.33759e-01,9.74443e-01,9.91922e-01
9.338787427e-01,6.70450e-02,9.99999e-01,9.99999e-01,7.11129e-02,9.74941e-01,9.67027e-01
9.385481364e-01,3.18725e-01,9.99999e-01,9.99999e-01,3.40046e-01,9.75430e-01,9.60907e-01
9.432408771e-01,2.26658e-01,9.99999e-01,9.99999e-01,2.40382e-01,9.75909e-01,9.66182e-01
9.479570815e-01,1.28979e-01,9.99999e-01,9.99999e-01,1.35850e-01,9.76380e-01,9.72389e-01
9.526968669e-01,2.02632e-01,9.99999e-01,9.99999e-01,2.11009e-01,9.76841e-01,9.83067e-01
9.574603512e-01,2.18513e-01,9.99999e-01,9.99999e-01,2.25538e-01,9.77293e-01,9.91362e-01
9.622476530e-01,2.81219e-01,9.99999e-01,9.99999e-01,2.89353e-01,9.77736e-01,9.94019e-01
9.670588912e-01,4.72389e-01,9.99999e-01,9.99999e-01,4.84916e-01,9.78171e-01,9.95905e-01
9.718941857e-01,6.10659e-01,9.99999e-01,9.99999e-01,6.25901e-01,9.78598e-01,9.96984e-01
9.767536566e-01,6.61472e-01,9.99999e-01,9.99999e-01,6.77210e-01,9.79016e-01,9.97694e-01
9.816374249e-01,7.31422e-01,9.99999e-01,9.99999e-01,7.47382e-01,9.79426e-01,9.99201e-01
9.865456120e-01,8.16048e-01,9.99999e-01,9.99999e-01,8.32985e-01,9.79828e-01,9.99833e-01
9.914783401e-01,8.75201e-01,9.99999e-01,9.99999e-01,8.92899e-01,9.80223e-01,9.99953e-01
9.964357318e-01,9.21893e-01,9.99999e-01,9.99999e-01,9.40147e-01,9.80610e-01,9.99972e-01
1.001417910e+00,9.45296e-01,9.99999e-01,9.99999e-01,9.63654e-01,9.80989e-01,9.99958e-01
1.006425000e+00,9.60821e-01,9.99999e-01,9.99999e-01,9.79126e-01,9.81361e-01,9.99940e-01
1.011457125e+00,9.68893e-01,9.99999e-01,9.99999e-01,9.86981e-01,9.81726e-01,9.99945e-01
1.016514411e+00,9.73354e-01,9.99999e-01,9.99999e-01,9.91148e-01,9.82083e-01,9.99961e-01
1.021596983e+00,9.75464e-01,9.99999e-01,9.99999e-01,9.92943e-01,9.82434e-01,9.99960e-01
1.026704968e+00,9.77342e-01,9.99999e-01,9.99999e-01,9.94493e-01,9.82778e-01,9.99973e-01
1.031838492e+00,9.79169e-01,9.99999e-01,9.99999e-01,9.95992e-01,9.83115e-01,9.99992e-01
1.036997685e+00,9.81105e-01,9.99999e-01,9.99999e-01,9.97619e-01,9.83446e-01,9.99998e-01
1.042182673e+00,9.80983e-01,9.99999e-01,9.99999e-01,9.97166e-01,9.83770e-01,9.99999e-01
1.047393587e+00,9.80389e-01,9.99999e-01,9.99999e-01,9.96241e-01,9.84088e-01,9.99998e-01
1.052630555e+00,9.79328e-01,9.99999e-01,9.99999e-01,9.94848e-01,9.84400e-01,9.99998e-01
1.057893707e+00,9.76255e-01,9.99999e-01,9.99999e-01,9.91419e-01,9.84706e-01,9.99996e-01
1.063183176e+00,9.71127e-01,9.99999e-01,9.99999e-01,9.85916e-01,9.85006e-01,9.99992e-01
1.068499092e+00,9.62151e-01,9.99999e-01,9.99999e-01,9.76521e-01,9.85300e-01,9.99983e-01
1.073841587e+00,9.58587e-01,9.99999e-01,9.99999e-01,9.72637e-01,9.85588e-01,9.99964e-01
1.079210795e+00,9.51267e-01,9.99999e-01,9.99999e-01,9.64991e-01,9.85871e-01,9.99904e-01
1.084606849e+00,9.34243e-01,9.99999e-01,9.99999e-01,9.47582e-01,9.86148e-01,9.99771e-01
1.090029883e+00,9.12919e-01,9.99999e-01,9.99999e-01,9.25925e-01,9.86419e-01,9.99526e-01
1.095480033e+00,7.99435e-01,9.99999e-01,9.99999e-01,8.10916e-01,9.86686e-01,9.99143e-01
1.100957433e+00,5.83073e-01,9.99999e-01,9.99999e-01,5.91716e-01,9.86947e-01,9.98424e-01
1.106462220e+00,2.76659e-01,9.99999e-01,9.99999e-01,2.80996e-01,9.87203e-01,9.97328e-01
1.111994531e+00,7.31746e-02,9.99999e-01,9.99999e-01,7.46322e-02,9.87454e-01,9.92924e-01
1.117554504e+00,1.72306e-02,9.99999e-01,9.99999e-01,1.78981e-02,9.87701e-01,9.74690e-01
1.123142276e+00,6.05243e-02,9.99999e-01,9.99999e-01,6.51026e-02,9.87942e-01,9.41020e-01
1.128757988e+00,1.33024e-01,9.99999e-01,9.99999e-01,1.44423e-01,9.88179e-01,9.32090e-01
1.134401778e+00,5.94543e-02,9.99999e-01,9.99999e-01,6.38579e-02,9.88411e-01,9.41954e-01
1.140073787e+00,2.78955e-01,9.99999e-01,9.99999e-01,2.95968e-01,9.88639e-01,9.53345e-01
1.145774156e+00,9.17149e-02,9.99999e-01,9.99999e-01,9.68940e-02,9.88862e-01,9.57208e-01
1.151503026e+00,7.27642e-02,9.99999e-01,9.99999e-01,7.53818e-02,9.89081e-01,9.75930e-01
1.157260541e+00,9.38898e-02,9.99999e-01,9.99999e-01,9.55995e-02,9.89295e-01,9.92741e-01
1.163046844e+00,1.70635e-01,9.99999e-01,9.99999e-01,1.72801e-01,9.89505e-01,9.97937e-01
1.168862078e+00,2.78961e-01,9.99999e-01,9.99999e-01,2.82161e-01,9.89712e-01,9.98936e-01
1.174706389e+00,4.51133e-01,9.99999e-01,9.99999e-01,4.56372e-01,9.89914e-01,9.98590e-01
1.180579921e+00,6.10368e-01,9.99999e-01,9.99999e-01,6.17778e-01,9.90112e-01,9.97869e-01
1.186482820e+00,7.50779e-01,9.99999e-01,9.99999e-01,7.59788e-01,9.90306e-01,9.97813e-01
1.192415234e+00,8.41926e-01,9.99999e-01,9.99999e-01,8.51397e-01,9.90497e-01,9.98362e-01
1.198377311e+00,8.63896e-01,9.99999e-01,9.99999e-01,8.73370e-01,9.90684e-01,9.98452e-01
1.204369197e+00,8.70923e-01,9.99999e-01,9.99999e-01,8.80181e-01,9.90867e-01,9.98600e-01
1.210391043e+00,8.76139e-01,9.99999e-01,9.99999e-01,8.84807e-01,9.91046e-01,9.99148e-01
1.216442998e+00,8.92672e-01,9.99999e-01,9.99999e-01,9.01046e-01,9.91222e-01,9.99477e-01
1.222525213e+00,9.13706e-01,9.99999e-01,9.99999e-01,9.21935e-01,9.91395e-01,9.99675e-01
1.228637839e+00,9.36996e-01,9.99999e-01,9.99999e-01,9.45109e-01,9.91564e-01,9.99848e-01
