#,Wave/freq,Total,N2,O2,H2O,Rayleigh,CIA
4.000000000e-01,2.57286e-01,9.99999e-01,9.99999e-01,9.99846e-01,2.57326e-01,9.99999e-01
4.020000000e-01,2.64301e-01,9.99999e-01,9.99999e-01,9.99904e-01,2.64326e-01,9.99999e-01
4.040100000e-01,2.71354e-01,9.99999e-01,9.99999e-01,9.99959e-01,2.71365e-01,9.99999e-01
4.060300500e-01,2.78444e-01,9.99999e-01,9.99999e-01,9.99990e-01,2.78447e-01,9.99999e-01
4.080602003e-01,2.85568e-01,9.99999e-01,9.99999e-01,9.99996e-01,2.85568e-01,9.99999e-01
4.101005013e-01,2.92726e-01,9.99999e-01,9.99999e-01,9.99999e-01,2.92726e-01,9.99999e-01
4.121510038e-01,2.99915e-01,9.99999e-01,9.99999e-01,9.99993e-01,2.99916e-01,9.99999e-01
4.142117588e-01,3.07123e-01,9.99999e-01,9.99999e-01,9.99957e-01,3.07136e-01,9.99999e-01
4.162828176e-01,3.14322e-01,9.99999e-01,9.99999e-01,9.99810e-01,3.14381e-01,9.99999e-01
4.183642317e-01,3.21614e-01,9.99999e-01,9.99999e-01,9.99886e-01,3.21650e-01,9.99999e-01
4.204560528e-01,3.28915e-01,9.99999e-01,9.99999e-01,9.99930e-01,3.28938e-01,9.99999e-01
4.225583331e-01,3.36233e-01,9.99999e-01,9.99999e-01,9.99973e-01,3.36242e-01,9.99999e-01
4.246711247e-01,3.43552e-01,9.99999e-01,9.99999e-01,9.99978e-01,3.43559e-01,9.99999e-01
4.267944804e-01,3.50876e-01,9.99999e-01,9.99999e-01,9.99969e-01,3.50887e-01,9.99999e-01
4.289284528e-01,3.58213e-01,9.99999e-01,9.99999e-01,9.99976e-01,3.58221e-01,9.99999e-01
4.310730950e-01,3.65555e-01,9.99999e-01,9.99999e-01,9.99989e-01,3.65559e-01,9.99999e-01
4.332284605e-01,3.72897e-01,9.99999e-01,9.99999e-01,9.99996e-01,3.72898e-01,9.99999e-01
4.353946028e-01,3.80235e-01,9.99999e-01,9.99999e-01,9.99998e-01,3.80235e-01,9.99999e-01
4.375715758e-01,3.87560e-01,9.99999e-01,9.99999e-01,9.99980e-01,3.87568e-01,9.99999e-01
4.397594337e-01,3.94826e-01,9.99999e-01,9.99999e-01,9.99832e-01,3.94892e-01,9.99999e-01
4.419582309e-01,4.01864e-01,9.99999e-01,9.99999e-01,9.99146e-01,4.02207e-01,9.99999e-01
4.441680220e-01,4.09239e-01,9.99999e-01,9.99999e-01,9.99342e-01,4.09508e-01,9.99999e-01
4.463888621e-01,4.16507e-01,9.99999e-01,9.99999e-01,9.99312e-01,4.16794e-01,9.99999e-01
4.486208064e-01,4.23881e-01,9.99999e-01,9.99999e-01,9.99574e-01,4.24061e-01,9.99999e-01
4.508639105e-01,4.31222e-01,9.99999e-01,9.99999e-01,9.99800e-01,4.31308e-01,9.99999e-01
4.531182300e-01,4.38498e-01,9.99999e-01,9.99999e-01,9.99920e-01,4.38532e-01,9.99999e-01
4.553838212e-01,4.45707e-01,9.99999e-01,9.99999e-01,9.99946e-01,4.45731e-01,9.99999e-01
4.576607403e-01,4.52891e-01,9.99999e-01,9.99999e-01,9.99974e-01,4.52902e-01,9.99999e-01
4.599490440e-01,4.60036e-01,9.99999e-01,9.99999e-01,9.99982e-01,4.60044e-01,9.99999e-01
4.622487892e-01,4.67152e-01,9.99999e-01,9.99999e-01,9.99996e-01,4.67154e-01,9.99999e-01
4.645600332e-01,4.74224e-01,9.99999e-01,9.99999e-01,9.99987e-01,4.74230e-01,9.99999e-01
4.668828333e-01,4.81173e-01,9.99999e-01,9.99999e-01,9.99797e-01,4.81270e-01,9.99999e-01
4.692172475e-01,4.88062e-01,9.99999e-01,9.99999e-01,9.99568e-01,4.88273e-01,9.99999e-01
4.715633337e-01,4.95096e-01,9.99999e-01,9.99999e-01,9.99717e-01,4.95236e-01,9.99999e-01
4.739211504e-01,5.02023e-01,9.99999e-01,9.99999e-01,9.99730e-01,5.02158e-01,9.99999e-01
4.762907561e-01,5.08966e-01,9.99999e-01,9.99999e-01,9.99860e-01,5.09037e-01,9.99999e-01
4.786722099e-01,5.15843e-01,9.99999e-01,9.99999e-01,9.99942e-01,5.15872e-01,9.99999e-01
4.810655710e-01,5.22652e-01,9.99999e-01,9.99999e-01,9.99982e-01,5.22661e-01,9.99999e-01
4.834708988e-01,5.29314e-01,9.99999e-01,9.99999e-01,9.99832e-01,5.29402e-01,9.99999e-01
4.858882533e-01,5.35932e-01,9.99999e-01,9.99999e-01,9.99695e-01,5.36095e-01,9.99999e-01
4.883176946e-01,5.42599e-01,9.99999e-01,9.99999e-01,9.99744e-01,5.42737e-01,9.99999e-01
4.907592831e-01,5.49202e-01,9.99999e-01,9.99999e-01,9.99769e-01,5.49329e-01,9.99999e-01
4.932130795e-01,5.55777e-01,9.99999e-01,9.99999e-01,9.99836e-01,5.55867e-01,9.99999e-01
4.956791449e-01,5.62304e-01,9.99999e-01,9.99999e-01,9.99913e-01,5.62353e-01,9.99999e-01
4.981575406e-01,5.68536e-01,9.99999e-01,9.99999e-01,9.99565e-01,5.68783e-01,9.99999e-01
5.006483283e-01,5.74504e-01,9.99999e-01,9.99999e-01,9.98871e-01,5.75158e-01,9.99991e-01
5.031515699e-01,5.78138e-01,9.99999e-01,9.99999e-01,9.94318e-01,5.81476e-01,9.99939e-01
5.056673278e-01,5.85935e-01,9.99999e-01,9.99999e-01,9.97001e-01,5.87737e-01,9.99931e-01
5.081956644e-01,5.91670e-01,9.99999e-01,9.99999e-01,9.96219e-01,5.93939e-01,9.99958e-01
5.107366428e-01,5.98547e-01,9.99999e-01,9.99999e-01,9.97447e-01,6.00083e-01,9.99992e-01
5.132903260e-01,6.05283e-01,9.99999e-01,9.99999e-01,9.98542e-01,6.06167e-01,9.99998e-01
5.158567776e-01,6.11814e-01,9.99999e-01,9.99999e-01,9.99384e-01,6.12190e-01,9.99999e-01
5.184360615e-01,6.18001e-01,9.99999e-01,9.99999e-01,9.99753e-01,6.18153e-01,9.99999e-01
5.210282418e-01,6.23996e-01,9.99999e-01,9.99999e-01,9.99907e-01,6.24054e-01,9.99999e-01
5.236333830e-01,6.29658e-01,9.99999e-01,9.99999e-01,9.99628e-01,6.29894e-01,9.99996e-01
5.262515499e-01,6.35521e-01,9.99999e-01,9.99999e-01,9.99767e-01,6.35671e-01,9.99995e-01
5.288828077e-01,6.41247e-01,9.99999e-01,9.99999e-01,9.99786e-01,6.41385e-01,9.99997e-01
5.315272217e-01,6.46915e-01,9.99999e-01,9.99999e-01,9.99813e-01,6.47036e-01,9.99998e-01
5.341848578e-01,6.52544e-01,9.99999e-01,9.99999e-01,9.99876e-01,6.52624e-01,9.99999e-01
5.368557821e-01,6.57863e-01,9.99999e-01,9.99999e-01,9.99566e-01,6.58149e-01,9.99998e-01
5.395400610e-01,6.62559e-01,9.99999e-01,9.99999e-01,9.98431e-01,6.63610e-01,9.99984e-01
5.422377613e-01,6.67637e-01,9.99999e-01,9.99999e-01,9.97989e-01,6.69006e-01,9.99962e-01
5.449489501e-01,6.73048e-01,9.99999e-01,9.99999e-01,9.98122e-01,6.74339e-01,9.99961e-01
5.476736949e-01,6.78471e-01,9.99999e-01,9.99999e-01,9.98344e-01,6.79608e-01,9.99981e-01
5.504120634e-01,6.83987e-01,9.99999e-01,9.99999e-01,9.98798e-01,6.84813e-01,9.99994e-01
5.531641237e-01,6.89536e-01,9.99999e-01,9.99999e-01,9.99395e-01,6.89953e-01,9.99998e-01
5.559299443e-01,6.94827e-01,9.99999e-01,9.99999e-01,9.99708e-01,6.95030e-01,9.99999e-01
5.587095940e-01,6.99914e-01,9.99999e-01,9.99999e-01,9.99816e-01,7.00042e-01,9.99999e-01
5.615031420e-01,7.04847e-01,9.99999e-01,9.99999e-01,9.99795e-01,7.04991e-01,9.99999e-01
5.643106577e-01,7.09709e-01,9.99999e-01,9.99999e-01,9.99766e-01,7.09875e-01,9.99997e-01
5.671322110e-01,7.12651e-01,9.99999e-01,9.99999e-01,9.97161e-01,7.14696e-01,9.99974e-01
5.699678720e-01,7.17260e-01,9.99999e-01,9.99999e-01,9.97025e-01,7.19454e-01,9.99923e-01
5.728177114e-01,7.21845e-01,9.99999e-01,9.99999e-01,9.96882e-01,7.24148e-01,9.99935e-01
5.756818000e-01,7.26671e-01,9.99999e-01,9.99999e-01,9.97142e-01,7.28780e-01,9.99962e-01
5.785602090e-01,7.31516e-01,9.99999e-01,9.99999e-01,9.97511e-01,7.33349e-01,9.99988e-01
5.814530100e-01,7.36005e-01,9.99999e-01,9.99999e-01,9.97497e-01,7.37855e-01,9.99994e-01
5.843602750e-01,7.40065e-01,9.99999e-01,9.99999e-01,9.97006e-01,7.42299e-01,9.99982e-01
5.872820764e-01,7.27575e-01,9.99999e-01,9.99999e-01,9.74587e-01,7.46681e-01,9.99818e-01
5.902184868e-01,7.27608e-01,9.99999e-01,9.99999e-01,9.69325e-01,7.51002e-01,9.99507e-01
5.931695792e-01,7.38485e-01,9.99999e-01,9.99999e-01,9.78249e-01,7.55262e-01,9.99526e-01
5.961354271e-01,7.41164e-01,9.99999e-01,9.99999e-01,9.76172e-01,7.59461e-01,9.99727e-01
5.991161043e-01,7.50222e-01,9.99999e-01,9.99999e-01,9.82563e-01,7.63599e-01,9.99915e-01
6.021116848e-01,7.60054e-01,9.99999e-01,9.99999e-01,9.90076e-01,7.67678e-01,9.99990e-01
6.051222432e-01,7.67815e-01,9.99999e-01,9.99999e-01,9.94968e-01,7.71698e-01,9.99998e-01
6.081478544e-01,7.73972e-01,9.99999e-01,9.99999e-01,9.97825e-01,7.75658e-01,9.99999e-01
6.111885937e-01,7.78844e-01,9.99999e-01,9.99999e-01,9.99081e-01,7.79560e-01,9.99999e-01
6.142445367e-01,7.83083e-01,9.99999e-01,9.99999e-01,9.99588e-01,7.83404e-01,9.99999e-01
6.173157594e-01,7.87012e-01,9.99999e-01,9.99999e-01,9.99773e-01,7.87191e-01,9.99999e-01
6.204023382e-01,7.90768e-01,9.99999e-01,9.99999e-01,9.99807e-01,7.90920e-01,9.99999e-01
6.235043498e-01,7.93913e-01,9.99999e-01,9.99999e-01,9.99145e-01,7.94593e-01,9.99997e-01
6.266218716e-01,7.94612e-01,9.99999e-01,9.99999e-01,9.95522e-01,7.98210e-01,9.99968e-01
6.297549810e-01,8.00403e-01,9.99999e-01,9.99999e-01,9.98355e-01,8.01771e-01,9.99936e-01
6.329037559e-01,8.02626e-01,9.99999e-01,9.99999e-01,9.96756e-01,8.05278e-01,9.99949e-01
6.360682746e-01,8.06467e-01,9.99999e-01,9.99999e-01,9.97231e-01,8.08730e-01,9.99969e-01
6.392486160e-01,8.09208e-01,9.99999e-01,9.99999e-01,9.96417e-01,8.12128e-01,9.99986e-01
6.424448591e-01,8.11530e-01,9.99999e-01,9.99999e-01,9.95187e-01,8.15473e-01,9.99975e-01
6.456570834e-01,8.00545e-01,9.99999e-01,9.99999e-01,9.77877e-01,8.18766e-01,9.99864e-01
6.488853688e-01,8.08463e-01,9.99999e-01,9.99999e-01,9.83863e-01,8.22006e-01,9.99654e-01
6.521297956e-01,8.11408e-01,9.99999e-01,9.99999e-01,9.83572e-01,8.25195e-01,9.99714e-01
6.553904446e-01,8.14540e-01,9.99999e-01,9.99999e-01,9.83557e-01,8.28332e-01,9.99787e-01
6.586673968e-01,8.19680e-01,9.99999e-01,9.99999e-01,9.85949e-01,8.31420e-01,9.99928e-01
6.619607338e-01,8.27887e-01,9.99999e-01,9.99999e-01,9.92141e-01,8.34457e-01,9.99984e-01
6.652705375e-01,8.33483e-01,9.99999e-01,9.99999e-01,9.95276e-01,8.37445e-01,9.99991e-01
6.685968902e-01,8.38696e-01,9.99999e-01,9.99999e-01,9.97990e-01,8.40385e-01,9.99998e-01
6.719398746e-01,8.42419e-01,9.99999e-01,9.99999e-01,9.98982e-01,8.43277e-01,9.99999e-01
6.752995740e-01,8.45653e-01,9.99999e-01,9.99999e-01,9.99447e-01,8.46121e-01,9.99999e-01
6.786760719e-01,8.48237e-01,9.99999e-01,9.99999e-01,9.99199e-01,8.48918e-01,9.99998e-01
6.820694522e-01,8.50498e-01,9.99999e-01,9.99999e-01,9.98631e-01,8.51669e-01,9.99992e-01
6.854797995e-01,8.52853e-01,9.99999e-01,9.99999e-01,9.98234e-01,8.54374e-01,9.99984e-01
6.889071985e-01,8.53319e-01,9.99999e-01,9.99999e-01,9.95702e-01,8.57034e-01,9.99961e-01
6.923517345e-01,8.01531e-01,9.99999e-01,9.99999e-01,9.32702e-01,8.59650e-01,9.99665e-01
6.958134932e-01,8.31319e-01,9.99999e-01,9.99999e-01,9.64872e-01,8.62222e-01,9.99260e-01
6.992925606e-01,8.34855e-01,9.99999e-01,9.99999e-01,9.66072e-01,8.64750e-01,9.99333e-01
7.027890234e-01,8.30775e-01,9.99999e-01,9.99999e-01,9.58444e-01,8.67236e-01,9.99491e-01
7.063029686e-01,8.38918e-01,9.99999e-01,9.99999e-01,9.64873e-01,8.69679e-01,9.99746e-01
7.098344834e-01,8.42527e-01,9.99999e-01,9.99999e-01,9.66255e-01,8.72081e-01,9.99849e-01
7.133836558e-01,8.35045e-01,9.99999e-01,9.99999e-01,9.55230e-01,8.74442e-01,9.99702e-01
7.169505741e-01,6.13584e-01,9.99999e-01,9.99999e-01,7.01469e-01,8.76762e-01,9.97660e-01
7.205353270e-01,7.35484e-01,9.99999e-01,9.99999e-01,8.40149e-01,8.79043e-01,9.95876e-01
7.241380036e-01,7.01833e-01,9.99999e-01,9.99999e-01,7.99221e-01,8.81284e-01,9.96438e-01
7.277586936e-01,7.19843e-01,9.99999e-01,9.99999e-01,8.17153e-01,8.83487e-01,9.97087e-01
7.313974871e-01,7.12661e-01,9.99999e-01,9.99999e-01,8.05774e-01,8.85652e-01,9.98634e-01
7.350544745e-01,7.88015e-01,9.99999e-01,9.99999e-01,8.88046e-01,8.87778e-01,9.99525e-01
7.387297469e-01,8.14930e-01,9.99999e-01,9.99999e-01,9.15986e-01,8.89868e-01,9.99782e-01
7.424233956e-01,8.54363e-01,9.99999e-01,9.99999e-01,9.57926e-01,8.91921e-01,9.99961e-01
7.461355126e-01,8.70917e-01,9.99999e-01,9.99999e-01,9.74252e-01,8.93939e-01,9.99993e-01
7.498661902e-01,8.85119e-01,9.99999e-01,9.99999e-01,9.87945e-01,8.95921e-01,9.99996e-01
7.536155211e-01,8.92533e-01,9.99999e-01,9.99999e-01,9.94059e-01,8.97868e-01,9.99997e-01
7.573835987e-01,8.97026e-01,9.99999e-01,9.99999e-01,9.96938e-01,8.99780e-01,9.99999e-01
7.611705167e-01,8.99943e-01,9.99999e-01,9.99999e-01,9.98096e-01,9.01659e-01,9.99999e-01
7.649763693e-01,9.02426e-01,9.99999e-01,9.99999e-01,9.98805e-01,9.03505e-01,9.99999e-01
7.688012511e-01,9.04564e-01,9.99999e-01,9.99999e-01,9.99167e-01,9.05317e-01,9.99999e-01
7.726452574e-01,9.06476e-01,9.99999e-01,9.99999e-01,9.99314e-01,9.07098e-01,9.99999e-01
7.765084837e-01,9.07958e-01,9.99999e-01,9.99999e-01,9.99022e-01,9.08847e-01,9.99998e-01
7.803910261e-01,9.06716e-01,9.99999e-01,9.99999e-01,9.95778e-01,9.10564e-01,9.99995e-01
7.842929812e-01,8.98857e-01,9.99999e-01,9.99999e-01,9.85344e-01,9.12251e-01,9.99972e-01
7.882144461e-01,8.86446e-01,9.99999e-01,9.99999e-01,9.70152e-01,9.13907e-01,9.99792e-01
7.921555184e-01,9.00176e-01,9.99999e-01,9.99999e-01,9.83579e-01,9.15534e-01,9.99639e-01
7.961162960e-01,8.90232e-01,9.99999e-01,9.99999e-01,9.71003e-01,9.17131e-01,9.99656e-01
8.000968774e-01,8.87698e-01,9.99999e-01,9.99999e-01,9.66607e-01,9.18699e-01,9.99634e-01
8.040973618e-01,8.89256e-01,9.99999e-01,9.99999e-01,9.66599e-01,9.20239e-01,9.99721e-01
8.081178486e-01,8.53779e-01,9.99999e-01,9.99999e-01,9.26517e-01,9.21751e-01,9.99717e-01
8.121584379e-01,6.74963e-01,9.99999e-01,9.99999e-01,7.31865e-01,9.23236e-01,9.98931e-01
8.162192301e-01,6.38459e-01,9.99999e-01,9.99999e-01,6.93235e-01,9.24694e-01,9.95988e-01
8.203003262e-01,7.72440e-01,9.99999e-01,9.99999e-01,8.37990e-01,9.26125e-01,9.95304e-01
8.244018279e-01,7.28132e-01,9.99999e-01,9.99999e-01,7.87968e-01,9.27530e-01,9.96260e-01
8.285238370e-01,7.41468e-01,9.99999e-01,9.99999e-01,8.00564e-01,9.28909e-01,9.97062e-01
8.326664562e-01,7.43133e-01,9.99999e-01,9.99999e-01,7.99813e-01,9.30263e-01,9.98783e-01
8.368297885e-01,7.92399e-01,9.99999e-01,9.99999e-01,8.50821e-01,9.31592e-01,9.99721e-01
8.410139374e-01,8.47104e-01,9.99999e-01,9.99999e-01,9.08182e-01,9.32897e-01,9.99837e-01
8.452190071e-01,8.90912e-01,9.99999e-01,9.99999e-01,9.53777e-01,9.34178e-01,9.99902e-01
8.494451021e-01,9.09948e-01,9.99999e-01,9.99999e-01,9.72829e-01,9.35435e-01,9.99921e-01
8.536923276e-01,9.21520e-01,9.99999e-01,9.99999e-01,9.83872e-01,9.36669e-01,9.99952e-01
8.579607893e-01,9.28512e-01,9.99999e-01,9.99999e-01,9.90021e-01,9.37881e-01,9.99988e-01
8.622505932e-01,9.33112e-01,9.99999e-01,9.99999e-01,9.93657e-01,9.39069e-01,9.99997e-01
8.665618462e-01,9.36536e-01,9.99999e-01,9.99999e-01,9.96065e-01,9.40236e-01,9.99998e-01
8.708946554e-01,9.37134e-01,9.99999e-01,9.99999e-01,9.95490e-01,9.41381e-01,9.99997e-01
8.752491287e-01,9.36819e-01,9.99999e-01,9.99999e-01,9.93973e-01,9.42505e-01,9.99993e-01
8.796253743e-01,9.35711e-01,9.99999e-01,9.99999e-01,9.91648e-01,9.43608e-01,9.99980e-01
8.840235012e-01,9.35637e-01,9.99999e-01,9.99999e-01,9.90472e-01,9.44691e-01,9.99941e-01
8.884436187e-01,9.13215e-01,9.99999e-01,9.99999e-01,9.65755e-01,9.45753e-01,9.99834e-01
8.928858368e-01,6.63535e-01,9.99999e-01,9.99999e-01,7.01490e-01,9.46795e-01,9.99046e-01
8.973502660e-01,5.08864e-01,9.99999e-01,9.99999e-01,5.39510e-01,9.47818e-01,9.95121e-01
9.018370173e-01,6.87990e-01,9.99999e-01,9.99999e-01,7.30694e-01,9.48822e-01,9.92340e-01
9.063462024e-01,7.12113e-01,9.99999e-01,9.99999e-01,7.54825e-01,9.49807e-01,9.93268e-01
9.108779334e-01,6.10321e-01,9.99999e-01,9.99999e-01,6.46441e-01,9.50774e-01,9.93006e-01
9.154323231e-01,5.73982e-01,9.99999e-01,9.99999e-01,6.06606e-01,9.51722e-01,9.94215e-01
9.200094847e-01,6.44433e-01,9.99999e-01,9.99999e-01,6.78661e-01,9.52653e-01,9.96758e-01
9.246095321e-01,5.36628e-01,9.99999e-01,9.99999e-01,5.64867e-01,9.53566e-01,9.96265e-01
9.292325798e-01,4.29811e-02,9.99999e-01,9.99999e-01,4.56934e-02,9.54462e-01,9.85517e-01
9.338787427e-01,1.22967e-02,9.99999e-01,9.99999e-01,1.36717e-02,9.55341e-01,9.41473e-01
9.385481364e-01,1.54000e-01,9.99999e-01,9.99999e-01,1.73030e-01,9.56204e-01,9.30783e-01
9.432408771e-01,8.96639e-02,9.99999e-01,9.99999e-01,9.96684e-02,9.57050e-01,9.39994e-01
9.479570815e-01,3.24448e-02,9.99999e-01,9.99999e-01,3.56210e-02,9.57880e-01,9.50883e-01
9.526968669e-01,6.81978e-02,9.99999e-01,9.99999e-01,7.33551e-02,9.58695e-01,9.69748e-01
9.574603512e-01,7.74284e-02,9.99999e-01,9.99999e-01,8.19660e-02,9.59494e-01,9.84517e-01
9.622476530e-01,1.16997e-01,9.99999e-01,9.99999e-01,1.23159e-01,9.60278e-01,9.89268e-01
9.670588912e-01,2.77344e-01,9.99999e-01,9.99999e-01,2.90722e-01,9.61047e-01,9.92648e-01
9.718941857e-01,4.18440e-01,9.99999e-01,9.99999e-01,4.37428e-01,9.61801e-01,9.94582e-01
9.767536566e-01,4.81278e-01,9.99999e-01,9.99999e-01,5.02087e-01,9.62542e-01,9.95857e-01
9.816374249e-01,5.73457e-01,9.99999e-01,9.99999e-01,5.96180e-01,9.63268e-01,9.98564e-01
9.865456120e-01,6.95683e-01,9.99999e-01,9.99999e-01,7.21893e-01,9.63980e-01,9.99700e-01
9.914783401e-01,7.87555e-01,9.99999e-01,9.99999e-01,8.16458e-01,9.64679e-01,9.99916e-01
9.964357318e-01,8.64329e-01,9.99999e-01,9.99999e-01,8.95382e-01,9.65364e-01,9.99951e-01
1.001417910e+00,9.03966e-01,9.99999e-01,9.99999e-01,9.35815e-01,9.66037e-01,9.99925e-01
1.006425000e+00,9.30652e-01,9.99999e-01,9.99999e-01,9.62815e-01,9.66696e-01,9.99894e-01
1.011457125e+00,9.44800e-01,9.99999e-01,9.99999e-01,9.76790e-01,9.67343e-01,9.99901e-01
1.016514411e+00,9.52588e-01,9.99999e-01,9.99999e-01,9.84169e-01,9.67978e-01,9.99930e-01
1.021596983e+00,9.56292e-01,9.99999e-01,9.99999e-01,9.87359e-01,9.68600e-01,9.99931e-01
1.026704968e+00,9.59600e-01,9.99999e-01,9.99999e-01,9.90125e-01,9.69211e-01,9.99956e-01
1.031838492e+00,9.62837e-01,9.99999e-01,9.99999e-01,9.92822e-01,9.69810e-01,9.99986e-01
1.036997685e+00,9.66248e-01,9.99999e-01,9.99999e-01,9.95726e-01,9.70397e-01,9.99997e-01
1.042182673e+00,9.66017e-01,9.99999e-01,9.99999e-01,9.94896e-01,9.70973e-01,9.99998e-01
1.047393587e+00,9.64974e-01,9.99999e-01,9.99999e-01,9.93243e-01,9.71538e-01,9.99998e-01
1.052630555e+00,9.63083e-01,9.99999e-01,9.99999e-01,9.90734e-01,9.72092e-01,9.99997e-01
1.057893707e+00,9.57623e-01,9.99999e-01,9.99999e-01,9.84569e-01,9.72636e-01,9.99994e-01
1.063183176e+00,9.48599e-01,9.99999e-01,9.99999e-01,9.74765e-01,9.73169e-01,9.99986e-01
1.068499092e+00,9.32932e-01,9.99999e-01,9.99999e-01,9.58166e-01,9.73692e-01,9.99970e-01
1.073841587e+00,9.26716e-01,9.99999e-01,9.99999e-01,9.51312e-01,9.74205e-01,9.99936e-01
1.079210795e+00,9.14151e-01,9.99999e-01,9.99999e-01,9.38031e-01,9.74708e-01,9.99828e-01
1.084606849e+00,8.84978e-01,9.99999e-01,9.99999e-01,9.07855e-01,9.75201e-01,9.99588e-01
1.090029883e+00,8.48795e-01,9.99999e-01,9.99999e-01,8.70688e-01,9.75685e-01,9.99148e-01
1.095480033e+00,6.69402e-01,9.99999e-01,9.99999e-01,6.86807e-01,9.76160e-01,9.98460e-01
1.100957433e+00,3.85595e-01,9.99999e-01,9.99999e-01,3.95945e-01,9.76625e-01,9.97167e-01
1.106462220e+00,1.12120e-01,9.99999e-01,9.99999e-01,1.15303e-01,9.77081e-01,9.95200e-01
1.111994531e+00,1.22538e-02,9.99999e-01,9.99999e-01,1.26966e-02,9.77529e-01,9.87309e-01
1.117554504e+00,1.32080e-03,9.99999e-01,9.99999e-01,1.41429e-03,9.77968e-01,9.54936e-01
1.123142276e+00,1.14113e-02,9.99999e-01,9.99999e-01,1.30109e-02,9.78398e-01,8.96418e-01
1.128757988e+00,3.30855e-02,9.99999e-01,9.99999e-01,3.83594e-02,9.78820e-01,8.81175e-01
1.134401778e+00,1.77708e-02,9.99999e-01,9.99999e-01,2.02085e-02,9.79234e-01,8.98020e-01
1.140073787e+00,1.09798e-01,9.99999e-01,9.99999e-01,1.22138e-01,9.79640e-01,9.17648e-01
1.145774156e+00,2.07585e-02,9.99999e-01,9.99999e-01,2.29148e-02,9.80038e-01,9.24348e-01
1.151503026e+00,1.30921e-02,9.99999e-01,9.99999e-01,1.39516e-02,9.80429e-01,9.57122e-01
1.157260541e+00,1.71305e-02,9.99999e-01,9.99999e-01,1.76960e-02,9.80812e-01,9.86982e-01
1.163046844e+00,4.82134e-02,9.99999e-01,9.99999e-01,4.93205e-02,9.81187e-01,9.96292e-01
1.168862078e+00,1.08396e-01,9.99999e-01,9.99999e-01,1.10644e-01,9.81555e-01,9.98088e-01
1.174706389e+00,2.47271e-01,9.99999e-01,9.99999e-01,2.52464e-01,9.81916e-01,9.97466e-01
1.180579921e+00,4.18074e-01,9.99999e-01,9.99999e-01,4.27255e-01,9.82270e-01,9.96172e-01
1.186482820e+00,5.99447e-01,9.99999e-01,9.99999e-01,6.12457e-01,9.82617e-01,9.96071e-01
1.192415234e+00,7.34473e-01,9.99999e-01,9.99999e-01,7.49412e-01,9.82958e-01,9.97056e-01
1.198377311e+00,7.68989e-01,9.99999e-01,9.99999e-01,7.84235e-01,9.83291e-01,9.97219e-01
1.204369197e+00,7.81111e-01,9.99999e-01,9.99999e-01,7.96122e-01,9.83619e-01,9.97483e-01
1.210391043e+00,7.89094e-01,9.99999e-01,9.99999e-01,8.03202e-01,9.83940e-01,9.98468e-01
1.216442998e+00,8.16262e-01,9.99999e-01,9.99999e-01,8.30098e-01,9.84254e-01,9.99061e-01
1.222525213e+00,8.50555e-01,9.99999e-01,9.99999e-01,8.64394e-01,9.84563e-01,9.99416e-01
1.228637839e+00,8.89694e-01,9.99999e-01,9.99999e-01,9.03610e-01,9.84865e-01,9.99728e-01
