#,Wave/freq,Total,N2,O2,H2O,Rayleigh,CIA
4.000000000e-01,8.68421e-01,9.99999e-01,9.99999e-01,9.99983e-01,8.68434e-01,9.99999e-01
4.020000000e-01,8.70851e-01,9.99999e-01,9.99999e-01,9.99989e-01,8.70860e-01,9.99999e-01
4.040100000e-01,8.73238e-01,9.99999e-01,9.99999e-01,9.99995e-01,8.73242e-01,9.99999e-01
4.060300500e-01,8.75582e-01,9.99999e-01,9.99999e-01,9.99998e-01,8.75583e-01,9.99999e-01
4.080602003e-01,8.77883e-01,9.99999e-01,9.99999e-01,9.99999e-01,8.77884e-01,9.99999e-01
4.101005013e-01,8.80145e-01,9.99999e-01,9.99999e-01,9.99999e-01,8.80145e-01,9.99999e-01
4.121510038e-01,8.82367e-01,9.99999e-01,9.99999e-01,9.99998e-01,8.82367e-01,9.99999e-01
4.142117588e-01,8.84547e-01,9.99999e-01,9.99999e-01,9.99995e-01,8.84551e-01,9.99999e-01
4.162828176e-01,8.86680e-01,9.99999e-01,9.99999e-01,9.99979e-01,8.86697e-01,9.99999e-01
4.183642317e-01,8.88795e-01,9.99999e-01,9.99999e-01,9.99987e-01,8.88806e-01,9.99999e-01
4.204560528e-01,8.90871e-01,9.99999e-01,9.99999e-01,9.99992e-01,8.90878e-01,9.99999e-01
4.225583331e-01,8.92911e-01,9.99999e-01,9.99999e-01,9.99996e-01,8.92913e-01,9.99999e-01
4.246711247e-01,8.94911e-01,9.99999e-01,9.99999e-01,9.99997e-01,8.94913e-01,9.99999e-01
4.267944804e-01,8.96875e-01,9.99999e-01,9.99999e-01,9.99996e-01,8.96878e-01,9.99999e-01
4.289284528e-01,8.98806e-01,9.99999e-01,9.99999e-01,9.99997e-01,8.98808e-01,9.99999e-01
4.310730950e-01,9.00703e-01,9.99999e-01,9.99999e-01,9.99998e-01,9.00704e-01,9.99999e-01
4.332284605e-01,9.02566e-01,9.99999e-01,9.99999e-01,9.99999e-01,9.02567e-01,9.99999e-01
4.353946028e-01,9.04396e-01,9.99999e-01,9.99999e-01,9.99999e-01,9.04396e-01,9.99999e-01
4.375715758e-01,9.06191e-01,9.99999e-01,9.99999e-01,9.99997e-01,9.06193e-01,9.99999e-01
4.397594337e-01,9.07942e-01,9.99999e-01,9.99999e-01,9.99982e-01,9.07958e-01,9.99999e-01
4.419582309e-01,9.09611e-01,9.99999e-01,9.99999e-01,9.99911e-01,9.09691e-01,9.99999e-01
4.441680220e-01,9.11331e-01,9.99999e-01,9.99999e-01,9.99931e-01,9.11393e-01,9.99999e-01
4.463888621e-01,9.13000e-01,9.99999e-01,9.99999e-01,9.99928e-01,9.13065e-01,9.99999e-01
4.486208064e-01,9.14666e-01,9.99999e-01,9.99999e-01,9.99955e-01,9.14707e-01,9.99999e-01
4.508639105e-01,9.16300e-01,9.99999e-01,9.99999e-01,9.99978e-01,9.16319e-01,9.99999e-01
4.531182300e-01,9.17895e-01,9.99999e-01,9.99999e-01,9.99991e-01,9.17902e-01,9.99999e-01
4.553838212e-01,9.19451e-01,9.99999e-01,9.99999e-01,9.99993e-01,9.19457e-01,9.99999e-01
4.576607403e-01,9.20981e-01,9.99999e-01,9.99999e-01,9.99996e-01,9.20983e-01,9.99999e-01
4.599490440e-01,9.22480e-01,9.99999e-01,9.99999e-01,9.99997e-01,9.22482e-01,9.99999e-01
4.622487892e-01,9.23953e-01,9.99999e-01,9.99999e-01,9.99999e-01,9.23953e-01,9.99999e-01
4.645600332e-01,9.25396e-01,9.99999e-01,9.99999e-01,9.99998e-01,9.25398e-01,9.99999e-01
4.668828333e-01,9.26796e-01,9.99999e-01,9.99999e-01,9.99978e-01,9.26816e-01,9.99999e-01
4.692172475e-01,9.28167e-01,9.99999e-01,9.99999e-01,9.99954e-01,9.28208e-01,9.99999e-01
4.715633337e-01,9.29548e-01,9.99999e-01,9.99999e-01,9.99970e-01,9.29575e-01,9.99999e-01
4.739211504e-01,9.30891e-01,9.99999e-01,9.99999e-01,9.99971e-01,9.30917e-01,9.99999e-01
4.762907561e-01,9.32221e-01,9.99999e-01,9.99999e-01,9.99985e-01,9.32234e-01,9.99999e-01
4.786722099e-01,9.33522e-01,9.99999e-01,9.99999e-01,9.99993e-01,9.33527e-01,9.99999e-01
4.810655710e-01,9.34795e-01,9.99999e-01,9.99999e-01,9.99997e-01,9.34796e-01,9.99999e-01
4.834708988e-01,9.36026e-01,9.99999e-01,9.99999e-01,9.99982e-01,9.36042e-01,9.99999e-01
4.858882533e-01,9.37235e-01,9.99999e-01,9.99999e-01,9.99967e-01,9.37265e-01,9.99999e-01
4.883176946e-01,9.38440e-01,9.99999e-01,9.99999e-01,9.99972e-01,9.38465e-01,9.99999e-01
4.907592831e-01,9.39621e-01,9.99999e-01,9.99999e-01,9.99975e-01,9.39643e-01,9.99999e-01
4.932130795e-01,9.40783e-01,9.99999e-01,9.99999e-01,9.99982e-01,9.40799e-01,9.99999e-01
4.956791449e-01,9.41926e-01,9.99999e-01,9.99999e-01,9.99990e-01,9.41934e-01,9.99999e-01
4.981575406e-01,9.43005e-01,9.99999e-01,9.99999e-01,9.99954e-01,9.43048e-01,9.99999e-01
5.006483283e-01,9.44029e-01,9.99999e-01,9.99999e-01,9.99882e-01,9.44141e-01,9.99998e-01
5.031515699e-01,9.44647e-01,9.99999e-01,9.99999e-01,9.99407e-01,9.45213e-01,9.99993e-01
5.056673278e-01,9.45964e-01,9.99999e-01,9.99999e-01,9.99687e-01,9.46266e-01,9.99992e-01
5.081956644e-01,9.46922e-01,9.99999e-01,9.99999e-01,9.99605e-01,9.47299e-01,9.99995e-01
5.107366428e-01,9.48059e-01,9.99999e-01,9.99999e-01,9.99733e-01,9.48312e-01,9.99998e-01
5.132903260e-01,9.49163e-01,9.99999e-01,9.99999e-01,9.99847e-01,9.49307e-01,9.99999e-01
5.158567776e-01,9.50222e-01,9.99999e-01,9.99999e-01,9.99935e-01,9.50283e-01,9.99999e-01
5.184360615e-01,9.51216e-01,9.99999e-01,9.99999e-01,9.99973e-01,9.51240e-01,9.99999e-01
5.210282418e-01,9.52171e-01,9.99999e-01,9.99999e-01,9.99989e-01,9.52180e-01,9.99999e-01
5.236333830e-01,9.53065e-01,9.99999e-01,9.99999e-01,9.99960e-01,9.53102e-01,9.99999e-01
5.262515499e-01,9.53983e-01,9.99999e-01,9.99999e-01,9.99975e-01,9.54007e-01,9.99999e-01
5.288828077e-01,9.54873e-01,9.99999e-01,9.99999e-01,9.99977e-01,9.54894e-01,9.99999e-01
5.315272217e-01,9.55747e-01,9.99999e-01,9.99999e-01,9.99980e-01,9.55765e-01,9.99999e-01
5.341848578e-01,9.56608e-01,9.99999e-01,9.99999e-01,9.99986e-01,9.56620e-01,9.99999e-01
5.368557821e-01,9.57415e-01,9.99999e-01,9.99999e-01,9.99954e-01,9.57458e-01,9.99999e-01
5.395400610e-01,9.58123e-01,9.99999e-01,9.99999e-01,9.99836e-01,9.58281e-01,9.99998e-01
5.422377613e-01,9.58883e-01,9.99999e-01,9.99999e-01,9.99790e-01,9.59088e-01,9.99995e-01
5.449489501e-01,9.59688e-01,9.99999e-01,9.99999e-01,9.99804e-01,9.59879e-01,9.99995e-01
5.476736949e-01,9.60489e-01,9.99999e-01,9.99999e-01,9.99827e-01,9.60656e-01,9.99997e-01
5.504120634e-01,9.61297e-01,9.99999e-01,9.99999e-01,9.99874e-01,9.61418e-01,9.99998e-01
5.531641237e-01,9.62105e-01,9.99999e-01,9.99999e-01,9.99936e-01,9.62165e-01,9.99999e-01
5.559299443e-01,9.62869e-01,9.99999e-01,9.99999e-01,9.99969e-01,9.62899e-01,9.99999e-01
5.587095940e-01,9.63600e-01,9.99999e-01,9.99999e-01,9.99980e-01,9.63618e-01,9.99999e-01
5.615031420e-01,9.64303e-01,9.99999e-01,9.99999e-01,9.99978e-01,9.64324e-01,9.99999e-01
5.643106577e-01,9.64992e-01,9.99999e-01,9.99999e-01,9.99975e-01,9.65016e-01,9.99999e-01
5.671322110e-01,9.65407e-01,9.99999e-01,9.99999e-01,9.99704e-01,9.65695e-01,9.99996e-01
5.699678720e-01,9.66054e-01,9.99999e-01,9.99999e-01,9.99689e-01,9.66361e-01,9.99991e-01
5.728177114e-01,9.66694e-01,9.99999e-01,9.99999e-01,9.99675e-01,9.67014e-01,9.99992e-01
5.756818000e-01,9.67364e-01,9.99999e-01,9.99999e-01,9.99702e-01,9.67655e-01,9.99995e-01
5.785602090e-01,9.68032e-01,9.99999e-01,9.99999e-01,9.99740e-01,9.68284e-01,9.99998e-01
5.814530100e-01,9.68648e-01,9.99999e-01,9.99999e-01,9.99739e-01,9.68900e-01,9.99998e-01
5.843602750e-01,9.69202e-01,9.99999e-01,9.99999e-01,9.99688e-01,9.69505e-01,9.99997e-01
5.872820764e-01,9.67477e-01,9.99999e-01,9.99999e-01,9.97315e-01,9.70098e-01,9.99980e-01
5.902184868e-01,9.67488e-01,9.99999e-01,9.99999e-01,9.96761e-01,9.70680e-01,9.99948e-01
5.931695792e-01,9.68978e-01,9.99999e-01,9.99999e-01,9.97708e-01,9.71251e-01,9.99950e-01
5.961354271e-01,9.69345e-01,9.99999e-01,9.99999e-01,9.97490e-01,9.71811e-01,9.99971e-01
5.991161043e-01,9.70573e-01,9.99999e-01,9.99999e-01,9.98170e-01,9.72360e-01,9.99990e-01
6.021116848e-01,9.71888e-01,9.99999e-01,9.99999e-01,9.98962e-01,9.72898e-01,9.99998e-01
6.051222432e-01,9.72916e-01,9.99999e-01,9.99999e-01,9.99474e-01,9.73426e-01,9.99999e-01
6.081478544e-01,9.73724e-01,9.99999e-01,9.99999e-01,9.99773e-01,9.73944e-01,9.99999e-01
6.111885937e-01,9.74359e-01,9.99999e-01,9.99999e-01,9.99903e-01,9.74452e-01,9.99999e-01
6.142445367e-01,9.74909e-01,9.99999e-01,9.99999e-01,9.99956e-01,9.74951e-01,9.99999e-01
6.173157594e-01,9.75416e-01,9.99999e-01,9.99999e-01,9.99975e-01,9.75439e-01,9.99999e-01
6.204023382e-01,9.75899e-01,9.99999e-01,9.99999e-01,9.99979e-01,9.75918e-01,9.99999e-01
6.235043498e-01,9.76302e-01,9.99999e-01,9.99999e-01,9.99910e-01,9.76388e-01,9.99999e-01
6.266218716e-01,9.76391e-01,9.99999e-01,9.99999e-01,9.99533e-01,9.76849e-01,9.99996e-01
6.297549810e-01,9.77128e-01,9.99999e-01,9.99999e-01,9.99828e-01,9.77301e-01,9.99992e-01
6.329037559e-01,9.77410e-01,9.99999e-01,9.99999e-01,9.99661e-01,9.77745e-01,9.99994e-01
6.360682746e-01,9.77895e-01,9.99999e-01,9.99999e-01,9.99711e-01,9.78179e-01,9.99996e-01
6.392486160e-01,9.78240e-01,9.99999e-01,9.99999e-01,9.99626e-01,9.78606e-01,9.99998e-01
6.424448591e-01,9.78531e-01,9.99999e-01,9.99999e-01,9.99498e-01,9.79024e-01,9.99997e-01
6.456570834e-01,9.77143e-01,9.99999e-01,9.99999e-01,9.97674e-01,9.79434e-01,9.99985e-01
6.488853688e-01,9.78140e-01,9.99999e-01,9.99999e-01,9.98304e-01,9.79836e-01,9.99963e-01
6.521297956e-01,9.78507e-01,9.99999e-01,9.99999e-01,9.98271e-01,9.80230e-01,9.99969e-01
6.553904446e-01,9.78906e-01,9.99999e-01,9.99999e-01,9.98276e-01,9.80617e-01,9.99977e-01
6.586673968e-01,9.79544e-01,9.99999e-01,9.99999e-01,9.98526e-01,9.80996e-01,9.99992e-01
6.619607338e-01,9.80561e-01,9.99999e-01,9.99999e-01,9.99178e-01,9.81368e-01,9.99997e-01
6.652705375e-01,9.81248e-01,9.99999e-01,9.99999e-01,9.99507e-01,9.81733e-01,9.99998e-01
6.685968902e-01,9.81885e-01,9.99999e-01,9.99999e-01,9.99790e-01,9.82090e-01,9.99999e-01
6.719398746e-01,9.82337e-01,9.99999e-01,9.99999e-01,9.99893e-01,9.82441e-01,9.99999e-01
6.752995740e-01,9.82728e-01,9.99999e-01,9.99999e-01,9.99942e-01,9.82785e-01,9.99999e-01
6.786760719e-01,9.83040e-01,9.99999e-01,9.99999e-01,9.99916e-01,9.83122e-01,9.99999e-01
6.820694522e-01,9.83312e-01,9.99999e-01,9.99999e-01,9.99857e-01,9.83452e-01,9.99998e-01
6.854797995e-01,9.83594e-01,9.99999e-01,9.99999e-01,9.99815e-01,9.83777e-01,9.99997e-01
6.889071985e-01,9.83650e-01,9.99999e-01,9.99999e-01,9.99552e-01,9.84094e-01,9.99995e-01
6.923517345e-01,9.77222e-01,9.99999e-01,9.99999e-01,9.92735e-01,9.84406e-01,9.99964e-01
6.958134932e-01,9.80944e-01,9.99999e-01,9.99999e-01,9.96249e-01,9.84712e-01,9.99922e-01
6.992925606e-01,9.81405e-01,9.99999e-01,9.99999e-01,9.96407e-01,9.85011e-01,9.99930e-01
7.027890234e-01,9.80899e-01,9.99999e-01,9.99999e-01,9.95580e-01,9.85305e-01,9.99946e-01
7.063029686e-01,9.81904e-01,9.99999e-01,9.99999e-01,9.96282e-01,9.85593e-01,9.99973e-01
7.098344834e-01,9.82345e-01,9.99999e-01,9.99999e-01,9.96433e-01,9.85876e-01,9.99983e-01
7.133836558e-01,9.81411e-01,9.99999e-01,9.99999e-01,9.95221e-01,9.86153e-01,9.99968e-01
7.169505741e-01,9.48878e-01,9.99999e-01,9.99999e-01,9.62170e-01,9.86425e-01,9.99755e-01
7.205353270e-01,9.67990e-01,9.99999e-01,9.99999e-01,9.81467e-01,9.86691e-01,9.99569e-01
7.241380036e-01,9.63276e-01,9.99999e-01,9.99999e-01,9.76372e-01,9.86952e-01,9.99628e-01
7.277586936e-01,9.65851e-01,9.99999e-01,9.99999e-01,9.78662e-01,9.87208e-01,9.99696e-01
7.313974871e-01,9.65007e-01,9.99999e-01,9.99999e-01,9.77400e-01,9.87459e-01,9.99857e-01
7.350544745e-01,9.75403e-01,9.99999e-01,9.99999e-01,9.87593e-01,9.87705e-01,9.99950e-01
7.387297469e-01,9.78899e-01,9.99999e-01,9.99999e-01,9.90863e-01,9.87947e-01,9.99976e-01
7.424233956e-01,9.83759e-01,9.99999e-01,9.99999e-01,9.95526e-01,9.88183e-01,9.99995e-01
7.461355126e-01,9.85732e-01,9.99999e-01,9.99999e-01,9.97285e-01,9.88415e-01,9.99998e-01
7.498661902e-01,9.87394e-01,9.99999e-01,9.99999e-01,9.98736e-01,9.88643e-01,9.99999e-01
7.536155211e-01,9.88253e-01,9.99999e-01,9.99999e-01,9.99379e-01,9.88866e-01,9.99999e-01
7.573835987e-01,9.88769e-01,9.99999e-01,9.99999e-01,9.99680e-01,9.89085e-01,9.99999e-01
7.611705167e-01,9.89103e-01,9.99999e-01,9.99999e-01,9.99801e-01,9.89299e-01,9.99999e-01
7.649763693e-01,9.89386e-01,9.99999e-01,9.99999e-01,9.99875e-01,9.89509e-01,9.99999e-01
7.688012511e-01,9.89630e-01,9.99999e-01,9.99999e-01,9.99912e-01,9.89715e-01,9.99999e-01
7.726452574e-01,9.89847e-01,9.99999e-01,9.99999e-01,9.99928e-01,9.89918e-01,9.99999e-01
7.765084837e-01,9.90015e-01,9.99999e-01,9.99999e-01,9.99897e-01,9.90116e-01,9.99999e-01
7.803910261e-01,9.89874e-01,9.99999e-01,9.99999e-01,9.99559e-01,9.90310e-01,9.99999e-01
7.842929812e-01,9.88977e-01,9.99999e-01,9.99999e-01,9.98464e-01,9.90500e-01,9.99996e-01
7.882144461e-01,9.87546e-01,9.99999e-01,9.99999e-01,9.96849e-01,9.90687e-01,9.99977e-01
7.921555184e-01,9.89125e-01,9.99999e-01,9.99999e-01,9.98275e-01,9.90870e-01,9.99961e-01
7.961162960e-01,9.87981e-01,9.99999e-01,9.99999e-01,9.96938e-01,9.91050e-01,9.99963e-01
8.000968774e-01,9.87693e-01,9.99999e-01,9.99999e-01,9.96473e-01,9.91226e-01,9.99961e-01
8.040973618e-01,9.87871e-01,9.99999e-01,9.99999e-01,9.96470e-01,9.91398e-01,9.99970e-01
8.081178486e-01,9.83639e-01,9.99999e-01,9.99999e-01,9.92032e-01,9.91567e-01,9.99970e-01
8.121584379e-01,9.59065e-01,9.99999e-01,9.99999e-01,9.67165e-01,9.91733e-01,9.99888e-01
8.162192301e-01,9.53084e-01,9.99999e-01,9.99999e-01,9.61272e-01,9.91896e-01,9.99581e-01
8.203003262e-01,9.72059e-01,9.99999e-01,9.99999e-01,9.80322e-01,9.92055e-01,9.99509e-01
8.244018279e-01,9.64894e-01,9.99999e-01,9.99999e-01,9.72846e-01,9.92212e-01,9.99609e-01
8.285238370e-01,9.68923e-01,9.99999e-01,9.99999e-01,9.76676e-01,9.92365e-01,9.99693e-01
8.326664562e-01,9.69027e-01,9.99999e-01,9.99999e-01,9.76457e-01,9.92515e-01,9.99872e-01
8.368297885e-01,9.75919e-01,9.99999e-01,9.99999e-01,9.83161e-01,9.92662e-01,9.99970e-01
8.410139374e-01,9.82832e-01,9.99999e-01,9.99999e-01,9.89969e-01,9.92807e-01,9.99982e-01
8.452190071e-01,9.88048e-01,9.99999e-01,9.99999e-01,9.95074e-01,9.92948e-01,9.99989e-01
8.494451021e-01,9.90236e-01,9.99999e-01,9.99999e-01,9.97136e-01,9.93087e-01,9.99991e-01
8.536923276e-01,9.91538e-01,9.99999e-01,9.99999e-01,9.98308e-01,9.93223e-01,9.99994e-01
8.579607893e-01,9.92319e-01,9.99999e-01,9.99999e-01,9.98956e-01,9.93357e-01,9.99998e-01
8.622505932e-01,9.92830e-01,9.99999e-01,9.99999e-01,9.99337e-01,9.93487e-01,9.99999e-01
8.665618462e-01,9.93208e-01,9.99999e-01,9.99999e-01,9.99589e-01,9.93616e-01,9.99999e-01
8.708946554e-01,9.93274e-01,9.99999e-01,9.99999e-01,9.99529e-01,9.93741e-01,9.99999e-01
8.752491287e-01,9.93239e-01,9.99999e-01,9.99999e-01,9.99371e-01,9.93864e-01,9.99998e-01
8.796253743e-01,9.93117e-01,9.99999e-01,9.99999e-01,9.99128e-01,9.93985e-01,9.99997e-01
8.840235012e-01,9.93108e-01,9.99999e-01,9.99999e-01,9.99004e-01,9.94104e-01,9.99993e-01
8.884436187e-01,9.90567e-01,9.99999e-01,9.99999e-01,9.96342e-01,9.94220e-01,9.99982e-01
8.928858368e-01,9.56658e-01,9.99999e-01,9.99999e-01,9.62204e-01,9.94334e-01,9.99900e-01
8.973502660e-01,9.28625e-01,9.99999e-01,9.99999e-01,9.34286e-01,9.94445e-01,9.99490e-01
9.018370173e-01,9.59971e-01,9.99999e-01,9.99999e-01,9.65998e-01,9.94555e-01,9.99199e-01
9.063462024e-01,9.63993e-01,9.99999e-01,9.99999e-01,9.69846e-01,9.94662e-01,9.99297e-01
9.108779334e-01,9.47778e-01,9.99999e-01,9.99999e-01,9.53459e-01,9.94767e-01,9.99269e-01
9.154323231e-01,9.41941e-01,9.99999e-01,9.99999e-01,9.47369e-01,9.94870e-01,9.99396e-01
9.200094847e-01,9.53422e-01,9.99999e-01,9.99999e-01,9.58564e-01,9.94971e-01,9.99661e-01
9.246095321e-01,9.30136e-01,9.99999e-01,9.99999e-01,9.35107e-01,9.95070e-01,9.99610e-01
9.292325798e-01,6.34990e-01,9.99999e-01,9.99999e-01,6.39042e-01,9.95167e-01,9.98482e-01
9.338787427e-01,5.55936e-01,9.99999e-01,9.99999e-01,5.62098e-01,9.95263e-01,9.93744e-01
9.385481364e-01,7.83453e-01,9.99999e-01,9.99999e-01,7.93003e-01,9.95356e-01,9.92564e-01
9.432408771e-01,7.14448e-01,9.99999e-01,9.99999e-01,7.22351e-01,9.95447e-01,9.93581e-01
9.479570815e-01,6.31663e-01,9.99999e-01,9.99999e-01,6.37828e-01,9.95537e-01,9.94773e-01
9.526968669e-01,7.10115e-01,9.99999e-01,9.99999e-01,7.15518e-01,9.95625e-01,9.96808e-01
9.574603512e-01,7.31653e-01,9.99999e-01,9.99999e-01,7.35997e-01,9.95711e-01,9.98377e-01
9.622476530e-01,7.75590e-01,9.99999e-01,9.99999e-01,7.79739e-01,9.95796e-01,9.98877e-01
9.670588912e-01,8.62197e-01,9.99999e-01,9.99999e-01,8.66429e-01,9.95879e-01,9.99232e-01
9.718941857e-01,9.10178e-01,9.99999e-01,9.99999e-01,9.14386e-01,9.95960e-01,9.99434e-01
9.767536566e-01,9.24325e-01,9.99999e-01,9.99999e-01,9.28400e-01,9.96040e-01,9.99567e-01
9.816374249e-01,9.42703e-01,9.99999e-01,9.99999e-01,9.46517e-01,9.96118e-01,9.99850e-01
9.865456120e-01,9.62556e-01,9.99999e-01,9.99999e-01,9.66262e-01,9.96194e-01,9.99968e-01
9.914783401e-01,9.75354e-01,9.99999e-01,9.99999e-01,9.79014e-01,9.96269e-01,9.99990e-01
9.964357318e-01,9.84901e-01,9.99999e-01,9.99999e-01,9.88520e-01,9.96343e-01,9.99994e-01
1.001417910e+00,9.89539e-01,9.99999e-01,9.99999e-01,9.93106e-01,9.96415e-01,9.99991e-01
1.006425000e+00,9.92551e-01,9.99999e-01,9.99999e-01,9.96062e-01,9.96485e-01,9.99988e-01
1.011457125e+00,9.94111e-01,9.99999e-01,9.99999e-01,9.97557e-01,9.96555e-01,9.99989e-01
1.016514411e+00,9.94962e-01,9.99999e-01,9.99999e-01,9.98340e-01,9.96623e-01,9.99992e-01
1.021596983e+00,9.95364e-01,9.99999e-01,9.99999e-01,9.98676e-01,9.96689e-01,9.99992e-01
1.026704968e+00,9.95722e-01,9.99999e-01,9.99999e-01,9.98967e-01,9.96754e-01,9.99995e-01
1.031838492e+00,9.96070e-01,9.99999e-01,9.99999e-01,9.99250e-01,9.96818e-01,9.99998e-01
1.036997685e+00,9.96437e-01,9.99999e-01,9.99999e-01,9.99554e-01,9.96881e-01,9.99999e-01
1.042182673e+00,9.96412e-01,9.99999e-01,9.99999e-01,9.99467e-01,9.96943e-01,9.99999e-01
1.047393587e+00,9.96300e-01,9.99999e-01,9.99999e-01,9.99294e-01,9.97003e-01,9.99999e-01
1.052630555e+00,9.96097e-01,9.99999e-01,9.99999e-01,9.99031e-01,9.97062e-01,9.99999e-01
1.057893707e+00,9.95508e-01,9.99999e-01,9.99999e-01,9.98382e-01,9.97120e-01,9.99998e-01
1.063183176e+00,9.94524e-01,9.99999e-01,9.99999e-01,9.97340e-01,9.97177e-01,9.99998e-01
1.068499092e+00,9.92795e-01,9.99999e-01,9.99999e-01,9.95552e-01,9.97232e-01,9.99996e-01
1.073841587e+00,9.92086e-01,9.99999e-01,9.99999e-01,9.94791e-01,9.97287e-01,9.99992e-01
1.079210795e+00,9.90680e-01,9.99999e-01,9.99999e-01,9.93338e-01,9.97340e-01,9.99981e-01
1.084606849e+00,9.87300e-01,9.99999e-01,9.99999e-01,9.89922e-01,9.97393e-01,9.99956e-01
1.090029883e+00,9.82909e-01,9.99999e-01,9.99999e-01,9.85514e-01,9.97444e-01,9.99910e-01
1.095480033e+00,9.58482e-01,9.99999e-01,9.99999e-01,9.61042e-01,9.97495e-01,9.99839e-01
1.100957433e+00,9.01377e-01,9.99999e-01,9.99999e-01,9.03862e-01,9.97544e-01,9.99704e-01
1.106462220e+00,7.70640e-01,9.99999e-01,9.99999e-01,7.72886e-01,9.97593e-01,9.99499e-01
1.111994531e+00,5.80114e-01,9.99999e-01,9.99999e-01,5.82259e-01,9.97640e-01,9.98671e-01
1.117554504e+00,4.13858e-01,9.99999e-01,9.99999e-01,4.16812e-01,9.97687e-01,9.95213e-01
1.123142276e+00,5.18282e-01,9.99999e-01,9.99999e-01,5.25403e-01,9.97732e-01,9.88686e-01
1.128757988e+00,6.51937e-01,9.99999e-01,9.99999e-01,6.62045e-01,9.97777e-01,9.86924e-01
1.134401778e+00,3.97833e-01,9.99999e-01,9.99999e-01,4.03188e-01,9.97821e-01,9.88870e-01
1.140073787e+00,7.73497e-01,9.99999e-01,9.99999e-01,7.82114e-01,9.97864e-01,9.91097e-01
1.145774156e+00,5.92904e-01,9.99999e-01,9.99999e-01,5.99031e-01,9.97906e-01,9.91848e-01
1.151503026e+00,5.60868e-01,9.99999e-01,9.99999e-01,5.64589e-01,9.97947e-01,9.95450e-01
1.157260541e+00,6.19408e-01,9.99999e-01,9.99999e-01,6.21503e-01,9.97988e-01,9.98637e-01
1.163046844e+00,7.02287e-01,9.99999e-01,9.99999e-01,7.03947e-01,9.98027e-01,9.99613e-01
1.168862078e+00,7.82158e-01,9.99999e-01,9.99999e-01,7.83828e-01,9.98066e-01,9.99800e-01
1.174706389e+00,8.58584e-01,9.99999e-01,9.99999e-01,8.60441e-01,9.98104e-01,9.99735e-01
1.180579921e+00,9.10517e-01,9.99999e-01,9.99999e-01,9.12575e-01,9.98142e-01,9.99600e-01
1.186482820e+00,9.47513e-01,9.99999e-01,9.99999e-01,9.49630e-01,9.98178e-01,9.99590e-01
1.192415234e+00,9.68263e-01,9.99999e-01,9.99999e-01,9.70291e-01,9.98214e-01,9.99692e-01
1.198377311e+00,9.72895e-01,9.99999e-01,9.99999e-01,9.74882e-01,9.98250e-01,9.99709e-01
1.204369197e+00,9.74289e-01,9.99999e-01,9.99999e-01,9.76218e-01,9.98284e-01,9.99737e-01
1.210391043e+00,9.75454e-01,9.99999e-01,9.99999e-01,9.77253e-01,9.98318e-01,9.99840e-01
1.216442998e+00,9.78922e-01,9.99999e-01,9.99999e-01,9.80634e-01,9.98351e-01,9.99901e-01
1.222525213e+00,9.83239e-01,9.99999e-01,9.99999e-01,9.84890e-01,9.98384e-01,9.99938e-01
1.228637839e+00,9.87888e-01,9.99999e-01,9.99999e-01,9.89483e-01,9.98416e-01,9.99971e-01
