#,Wave/freq,Total,N2,O2,H2O,Rayleigh,CIA
4.000000000e-01,3.54955e-01,9.99999e-01,9.99999e-01,9.99883e-01,3.54997e-01,9.99999e-01
4.020000000e-01,3.62315e-01,9.99999e-01,9.99999e-01,9.99927e-01,3.62341e-01,9.99999e-01
4.040100000e-01,3.69669e-01,9.99999e-01,9.99999e-01,9.99968e-01,3.69680e-01,9.99999e-01
4.060300500e-01,3.77016e-01,9.99999e-01,9.99999e-01,9.99992e-01,3.77018e-01,9.99999e-01
4.080602003e-01,3.84352e-01,9.99999e-01,9.99999e-01,9.99997e-01,3.84353e-01,9.99999e-01
4.101005013e-01,3.91681e-01,9.99999e-01,9.99999e-01,9.99999e-01,3.91681e-01,9.99999e-01
4.121510038e-01,3.98999e-01,9.99999e-01,9.99999e-01,9.99995e-01,3.99001e-01,9.99999e-01
4.142117588e-01,4.06295e-01,9.99999e-01,9.99999e-01,9.99966e-01,4.06308e-01,9.99999e-01
4.162828176e-01,4.13541e-01,9.99999e-01,9.99999e-01,9.99855e-01,4.13601e-01,9.99999e-01
4.183642317e-01,4.20840e-01,9.99999e-01,9.99999e-01,9.99913e-01,4.20877e-01,9.99999e-01
4.204560528e-01,4.28111e-01,9.99999e-01,9.99999e-01,9.99947e-01,4.28133e-01,9.99999e-01
4.225583331e-01,4.35359e-01,9.99999e-01,9.99999e-01,9.99980e-01,4.35367e-01,9.99999e-01
4.246711247e-01,4.42571e-01,9.99999e-01,9.99999e-01,9.99983e-01,4.42578e-01,9.99999e-01
4.267944804e-01,4.49751e-01,9.99999e-01,9.99999e-01,9.99976e-01,4.49761e-01,9.99999e-01
4.289284528e-01,4.56908e-01,9.99999e-01,9.99999e-01,9.99981e-01,4.56916e-01,9.99999e-01
4.310730950e-01,4.64037e-01,9.99999e-01,9.99999e-01,9.99992e-01,4.64040e-01,9.99999e-01
4.332284605e-01,4.71130e-01,9.99999e-01,9.99999e-01,9.99997e-01,4.71131e-01,9.99999e-01
4.353946028e-01,4.78187e-01,9.99999e-01,9.99999e-01,9.99998e-01,4.78187e-01,9.99999e-01
4.375715758e-01,4.85200e-01,9.99999e-01,9.99999e-01,9.99984e-01,4.85207e-01,9.99999e-01
4.397594337e-01,4.92124e-01,9.99999e-01,9.99999e-01,9.99870e-01,4.92187e-01,9.99999e-01
4.419582309e-01,4.98800e-01,9.99999e-01,9.99999e-01,9.99343e-01,4.99128e-01,9.99999e-01
4.441680220e-01,5.05773e-01,9.99999e-01,9.99999e-01,9.99500e-01,5.06026e-01,9.99999e-01
4.463888621e-01,5.12612e-01,9.99999e-01,9.99999e-01,9.99475e-01,5.12880e-01,9.99999e-01
4.486208064e-01,5.19521e-01,9.99999e-01,9.99999e-01,9.99676e-01,5.19689e-01,9.99999e-01
4.508639105e-01,5.26372e-01,9.99999e-01,9.99999e-01,9.99848e-01,5.26452e-01,9.99999e-01
4.531182300e-01,5.33134e-01,9.99999e-01,9.99999e-01,9.99939e-01,5.33166e-01,9.99999e-01
4.553838212e-01,5.39809e-01,9.99999e-01,9.99999e-01,9.99958e-01,5.39831e-01,9.99999e-01
4.576607403e-01,5.46435e-01,9.99999e-01,9.99999e-01,9.99980e-01,5.46445e-01,9.99999e-01
4.599490440e-01,5.52999e-01,9.99999e-01,9.99999e-01,9.99986e-01,5.53007e-01,9.99999e-01
4.622487892e-01,5.59514e-01,9.99999e-01,9.99999e-01,9.99997e-01,5.59515e-01,9.99999e-01
4.645600332e-01,5.65965e-01,9.99999e-01,9.99999e-01,9.99990e-01,5.65970e-01,9.99999e-01
4.668828333e-01,5.72280e-01,9.99999e-01,9.99999e-01,9.99844e-01,5.72369e-01,9.99999e-01
4.692172475e-01,5.78522e-01,9.99999e-01,9.99999e-01,9.99671e-01,5.78712e-01,9.99999e-01
4.715633337e-01,5.84873e-01,9.99999e-01,9.99999e-01,9.99784e-01,5.84998e-01,9.99999e-01
4.739211504e-01,5.91106e-01,9.99999e-01,9.99999e-01,9.99794e-01,5.91227e-01,9.99999e-01
4.762907561e-01,5.97333e-01,9.99999e-01,9.99999e-01,9.99893e-01,5.97396e-01,9.99999e-01
4.786722099e-01,6.03480e-01,9.99999e-01,9.99999e-01,9.99956e-01,6.03506e-01,9.99999e-01
4.810655710e-01,6.09548e-01,9.99999e-01,9.99999e-01,9.99986e-01,6.09556e-01,9.99999e-01
4.834708988e-01,6.15466e-01,9.99999e-01,9.99999e-01,9.99870e-01,6.15546e-01,9.99999e-01
4.858882533e-01,6.21330e-01,9.99999e-01,9.99999e-01,9.99767e-01,6.21474e-01,9.99999e-01
4.883176946e-01,6.27218e-01,9.99999e-01,9.99999e-01,9.99804e-01,6.27341e-01,9.99999e-01
4.907592831e-01,6.33034e-01,9.99999e-01,9.99999e-01,9.99824e-01,6.33145e-01,9.99999e-01
4.932130795e-01,6.38807e-01,9.99999e-01,9.99999e-01,9.99874e-01,6.38887e-01,9.99999e-01
4.956791449e-01,6.44523e-01,9.99999e-01,9.99999e-01,9.99933e-01,6.44566e-01,9.99999e-01
4.981575406e-01,6.49966e-01,9.99999e-01,9.99999e-01,9.99667e-01,6.50182e-01,9.99999e-01
5.006483283e-01,6.55162e-01,9.99999e-01,9.99999e-01,9.99133e-01,6.55734e-01,9.99993e-01
5.031515699e-01,6.58320e-01,9.99999e-01,9.99999e-01,9.95655e-01,6.61223e-01,9.99953e-01
5.056673278e-01,6.65089e-01,9.99999e-01,9.99999e-01,9.97713e-01,6.66648e-01,9.99947e-01
5.081956644e-01,6.70051e-01,9.99999e-01,9.99999e-01,9.97117e-01,6.72009e-01,9.99967e-01
5.107366428e-01,6.75985e-01,9.99999e-01,9.99999e-01,9.98054e-01,6.77306e-01,9.99994e-01
5.132903260e-01,6.81781e-01,9.99999e-01,9.99999e-01,9.98890e-01,6.82538e-01,9.99998e-01
5.158567776e-01,6.87385e-01,9.99999e-01,9.99999e-01,9.99531e-01,6.87707e-01,9.99999e-01
5.184360615e-01,6.92682e-01,9.99999e-01,9.99999e-01,9.99812e-01,6.92812e-01,9.99999e-01
5.210282418e-01,6.97803e-01,9.99999e-01,9.99999e-01,9.99929e-01,6.97852e-01,9.99999e-01
5.236333830e-01,7.02628e-01,9.99999e-01,9.99999e-01,9.99716e-01,7.02829e-01,9.99997e-01
5.262515499e-01,7.07614e-01,9.99999e-01,9.99999e-01,9.99822e-01,7.07741e-01,9.99996e-01
5.288828077e-01,7.12473e-01,9.99999e-01,9.99999e-01,9.99836e-01,7.12590e-01,9.99997e-01
5.315272217e-01,7.17274e-01,9.99999e-01,9.99999e-01,9.99857e-01,7.17376e-01,9.99999e-01
5.341848578e-01,7.22030e-01,9.99999e-01,9.99999e-01,9.99905e-01,7.22098e-01,9.99999e-01
5.368557821e-01,7.26515e-01,9.99999e-01,9.99999e-01,9.99667e-01,7.26757e-01,9.99998e-01
5.395400610e-01,7.30463e-01,9.99999e-01,9.99999e-01,9.98794e-01,7.31353e-01,9.99988e-01
5.422377613e-01,7.34739e-01,9.99999e-01,9.99999e-01,9.98468e-01,7.35886e-01,9.99971e-01
5.449489501e-01,7.39273e-01,9.99999e-01,9.99999e-01,9.98563e-01,7.40358e-01,9.99970e-01
5.476736949e-01,7.43818e-01,9.99999e-01,9.99999e-01,9.98739e-01,7.44767e-01,9.99985e-01
5.504120634e-01,7.48427e-01,9.99999e-01,9.99999e-01,9.99084e-01,7.49115e-01,9.99995e-01
5.531641237e-01,7.53054e-01,9.99999e-01,9.99999e-01,9.99539e-01,7.53401e-01,9.99998e-01
5.559299443e-01,7.57459e-01,9.99999e-01,9.99999e-01,9.99777e-01,7.57627e-01,9.99999e-01
5.587095940e-01,7.61685e-01,9.99999e-01,9.99999e-01,9.99859e-01,7.61792e-01,9.99999e-01
5.615031420e-01,7.65778e-01,9.99999e-01,9.99999e-01,9.99843e-01,7.65897e-01,9.99999e-01
5.643106577e-01,7.69803e-01,9.99999e-01,9.99999e-01,9.99820e-01,7.69943e-01,9.99998e-01
5.671322110e-01,7.72220e-01,9.99999e-01,9.99999e-01,9.97809e-01,7.73929e-01,9.99980e-01
5.699678720e-01,7.76055e-01,9.99999e-01,9.99999e-01,9.97741e-01,7.77856e-01,9.99941e-01
5.728177114e-01,7.79825e-01,9.99999e-01,9.99999e-01,9.97616e-01,7.81726e-01,9.99950e-01
5.756818000e-01,7.83802e-01,9.99999e-01,9.99999e-01,9.97818e-01,7.85537e-01,9.99971e-01
5.785602090e-01,7.87788e-01,9.99999e-01,9.99999e-01,9.98102e-01,7.89292e-01,9.99991e-01
5.814530100e-01,7.91472e-01,9.99999e-01,9.99999e-01,9.98089e-01,7.92989e-01,9.99995e-01
5.843602750e-01,7.94792e-01,9.99999e-01,9.99999e-01,9.97704e-01,7.96631e-01,9.99986e-01
5.872820764e-01,7.84461e-01,9.99999e-01,9.99999e-01,9.80444e-01,8.00217e-01,9.99861e-01
5.902184868e-01,7.84588e-01,9.99999e-01,9.99999e-01,9.76528e-01,8.03747e-01,9.99624e-01
5.931695792e-01,7.93485e-01,9.99999e-01,9.99999e-01,9.83335e-01,8.07223e-01,9.99638e-01
5.961354271e-01,7.95703e-01,9.99999e-01,9.99999e-01,9.81770e-01,8.10645e-01,9.99791e-01
5.991161043e-01,8.03122e-01,9.99999e-01,9.99999e-01,9.86682e-01,8.14013e-01,9.99935e-01
6.021116848e-01,8.11139e-01,9.99999e-01,9.99999e-01,9.92433e-01,8.17329e-01,9.99992e-01
6.051222432e-01,8.17446e-01,9.99999e-01,9.99999e-01,9.96166e-01,8.20592e-01,9.99999e-01
6.081478544e-01,8.22438e-01,9.99999e-01,9.99999e-01,9.98343e-01,8.23803e-01,9.99999e-01
6.111885937e-01,8.26385e-01,9.99999e-01,9.99999e-01,9.99301e-01,8.26963e-01,9.99999e-01
6.142445367e-01,8.29812e-01,9.99999e-01,9.99999e-01,9.99686e-01,8.30072e-01,9.99999e-01
6.173157594e-01,8.32987e-01,9.99999e-01,9.99999e-01,9.99826e-01,8.33131e-01,9.99999e-01
6.204023382e-01,8.36018e-01,9.99999e-01,9.99999e-01,9.99852e-01,8.36141e-01,9.99999e-01
6.235043498e-01,8.38548e-01,9.99999e-01,9.99999e-01,9.99341e-01,8.39102e-01,9.99997e-01
6.266218716e-01,8.39115e-01,9.99999e-01,9.99999e-01,9.96579e-01,8.42014e-01,9.99975e-01
6.297549810e-01,8.43778e-01,9.99999e-01,9.99999e-01,9.98744e-01,8.44879e-01,9.99951e-01
6.329037559e-01,8.45569e-01,9.99999e-01,9.99999e-01,9.97527e-01,8.47697e-01,9.99961e-01
6.360682746e-01,8.48649e-01,9.99999e-01,9.99999e-01,9.97883e-01,8.50468e-01,9.99976e-01
6.392486160e-01,8.50851e-01,9.99999e-01,9.99999e-01,9.97264e-01,8.53193e-01,9.99989e-01
6.424448591e-01,8.52698e-01,9.99999e-01,9.99999e-01,9.96307e-01,8.55873e-01,9.99981e-01
6.456570834e-01,8.43813e-01,9.99999e-01,9.99999e-01,9.82983e-01,8.58508e-01,9.99896e-01
6.488853688e-01,8.50262e-01,9.99999e-01,9.99999e-01,9.87674e-01,8.61099e-01,9.99736e-01
6.521297956e-01,8.52622e-01,9.99999e-01,9.99999e-01,9.87449e-01,8.63647e-01,9.99782e-01
6.553904446e-01,8.55111e-01,9.99999e-01,9.99999e-01,9.87413e-01,8.66151e-01,9.99837e-01
6.586673968e-01,8.59248e-01,9.99999e-01,9.99999e-01,9.89271e-01,8.68613e-01,9.99945e-01
6.619607338e-01,8.65803e-01,9.99999e-01,9.99999e-01,9.94006e-01,8.71033e-01,9.99987e-01
6.652705375e-01,8.70262e-01,9.99999e-01,9.99999e-01,9.96398e-01,8.73412e-01,9.99993e-01
6.685968902e-01,8.74409e-01,9.99999e-01,9.99999e-01,9.98469e-01,8.75750e-01,9.99998e-01
6.719398746e-01,8.77367e-01,9.99999e-01,9.99999e-01,9.99224e-01,8.78048e-01,9.99999e-01
6.752995740e-01,8.79946e-01,9.99999e-01,9.99999e-01,9.99589e-01,8.80306e-01,9.99999e-01
6.786760719e-01,8.81983e-01,9.99999e-01,9.99999e-01,9.99385e-01,8.82526e-01,9.99998e-01
6.820694522e-01,8.83769e-01,9.99999e-01,9.99999e-01,9.98944e-01,8.84707e-01,9.99994e-01
6.854797995e-01,8.85644e-01,9.99999e-01,9.99999e-01,9.98650e-01,8.86850e-01,9.99987e-01
6.889071985e-01,8.85986e-01,9.99999e-01,9.99999e-01,9.96687e-01,8.88956e-01,9.99970e-01
6.923517345e-01,8.44410e-01,9.99999e-01,9.99999e-01,9.47924e-01,8.91025e-01,9.99744e-01
6.958134932e-01,8.68668e-01,9.99999e-01,9.99999e-01,9.73237e-01,8.93058e-01,9.99435e-01
6.992925606e-01,8.71239e-01,9.99999e-01,9.99999e-01,9.73885e-01,8.95056e-01,9.99491e-01
7.027890234e-01,8.68097e-01,9.99999e-01,9.99999e-01,9.68133e-01,8.97018e-01,9.99611e-01
7.063029686e-01,8.74581e-01,9.99999e-01,9.99999e-01,9.73083e-01,8.98946e-01,9.99806e-01
7.098344834e-01,8.77454e-01,9.99999e-01,9.99999e-01,9.74150e-01,9.00839e-01,9.99885e-01
7.133836558e-01,8.71234e-01,9.99999e-01,9.99999e-01,9.65361e-01,9.02699e-01,9.99772e-01
7.169505741e-01,6.85978e-01,9.99999e-01,9.99999e-01,7.59740e-01,9.04527e-01,9.98213e-01
7.205353270e-01,7.90973e-01,9.99999e-01,9.99999e-01,8.75486e-01,9.06321e-01,9.96850e-01
7.241380036e-01,7.62143e-01,9.99999e-01,9.99999e-01,8.41575e-01,9.08084e-01,9.97279e-01
7.277586936e-01,7.77185e-01,9.99999e-01,9.99999e-01,8.56126e-01,9.09815e-01,9.97775e-01
7.313974871e-01,7.71993e-01,9.99999e-01,9.99999e-01,8.47817e-01,9.11515e-01,9.98957e-01
7.350544745e-01,8.33690e-01,9.99999e-01,9.99999e-01,9.13278e-01,9.13184e-01,9.99637e-01
7.387297469e-01,8.55462e-01,9.99999e-01,9.99999e-01,9.35265e-01,9.14824e-01,9.99833e-01
7.424233956e-01,8.86913e-01,9.99999e-01,9.99999e-01,9.67814e-01,9.16434e-01,9.99970e-01
7.461355126e-01,8.99954e-01,9.99999e-01,9.99999e-01,9.80329e-01,9.18015e-01,9.99994e-01
7.498661902e-01,9.11127e-01,9.99999e-01,9.99999e-01,9.90822e-01,9.19568e-01,9.99997e-01
7.536155211e-01,9.16921e-01,9.99999e-01,9.99999e-01,9.95472e-01,9.21092e-01,9.99998e-01
7.573835987e-01,9.20438e-01,9.99999e-01,9.99999e-01,9.97668e-01,9.22588e-01,9.99999e-01
7.611705167e-01,9.22719e-01,9.99999e-01,9.99999e-01,9.98550e-01,9.24058e-01,9.99999e-01
7.649763693e-01,9.24659e-01,9.99999e-01,9.99999e-01,9.99089e-01,9.25501e-01,9.99999e-01
7.688012511e-01,9.26329e-01,9.99999e-01,9.99999e-01,9.99365e-01,9.26917e-01,9.99999e-01
7.726452574e-01,9.27822e-01,9.99999e-01,9.99999e-01,9.99477e-01,9.28307e-01,9.99999e-01
7.765084837e-01,9.28976e-01,9.99999e-01,9.99999e-01,9.99250e-01,9.29673e-01,9.99998e-01
7.803910261e-01,9.27994e-01,9.99999e-01,9.99999e-01,9.96759e-01,9.31013e-01,9.99996e-01
7.842929812e-01,9.21808e-01,9.99999e-01,9.99999e-01,9.88736e-01,9.32328e-01,9.99978e-01
7.882144461e-01,9.12128e-01,9.99999e-01,9.99999e-01,9.77135e-01,9.33619e-01,9.99841e-01
7.921555184e-01,9.22926e-01,9.99999e-01,9.99999e-01,9.87477e-01,9.34887e-01,9.99724e-01
7.961162960e-01,9.15014e-01,9.99999e-01,9.99999e-01,9.77697e-01,9.36131e-01,9.99737e-01
8.000968774e-01,9.13110e-01,9.99999e-01,9.99999e-01,9.74408e-01,9.37352e-01,9.99720e-01
8.040973618e-01,9.14306e-01,9.99999e-01,9.99999e-01,9.74374e-01,9.38551e-01,9.99786e-01
8.081178486e-01,8.86010e-01,9.99999e-01,9.99999e-01,9.43040e-01,9.39727e-01,9.99784e-01
8.121584379e-01,7.38862e-01,9.99999e-01,9.99999e-01,7.85927e-01,9.40882e-01,9.99184e-01
8.162192301e-01,7.08748e-01,9.99999e-01,9.99999e-01,7.54686e-01,9.42015e-01,9.96935e-01
8.203003262e-01,8.18392e-01,9.99999e-01,9.99999e-01,8.70865e-01,9.43127e-01,9.96413e-01
8.244018279e-01,7.82404e-01,9.99999e-01,9.99999e-01,8.30998e-01,9.44219e-01,9.97144e-01
8.285238370e-01,7.95017e-01,9.99999e-01,9.99999e-01,8.42920e-01,9.45290e-01,9.97756e-01
8.326664562e-01,7.96551e-01,9.99999e-01,9.99999e-01,8.42499e-01,9.46341e-01,9.99071e-01
8.368297885e-01,8.37239e-01,9.99999e-01,9.99999e-01,8.83935e-01,9.47372e-01,9.99787e-01
8.410139374e-01,8.81115e-01,9.99999e-01,9.99999e-01,9.29184e-01,9.48384e-01,9.99875e-01
8.452190071e-01,9.15712e-01,9.99999e-01,9.99999e-01,9.64609e-01,9.49378e-01,9.99925e-01
8.494451021e-01,9.30539e-01,9.99999e-01,9.99999e-01,9.79209e-01,9.50352e-01,9.99940e-01
8.536923276e-01,9.39573e-01,9.99999e-01,9.99999e-01,9.87699e-01,9.51309e-01,9.99963e-01
8.579607893e-01,9.44986e-01,9.99999e-01,9.99999e-01,9.92382e-01,9.52247e-01,9.99990e-01
8.622505932e-01,9.48561e-01,9.99999e-01,9.99999e-01,9.95167e-01,9.53168e-01,9.99997e-01
8.665618462e-01,9.51205e-01,9.99999e-01,9.99999e-01,9.96996e-01,9.54071e-01,9.99998e-01
8.708946554e-01,9.51664e-01,9.99999e-01,9.99999e-01,9.96552e-01,9.54958e-01,9.99997e-01
8.752491287e-01,9.51421e-01,9.99999e-01,9.99999e-01,9.95394e-01,9.55828e-01,9.99994e-01
8.796253743e-01,9.50550e-01,9.99999e-01,9.99999e-01,9.93605e-01,9.56681e-01,9.99985e-01
8.840235012e-01,9.50493e-01,9.99999e-01,9.99999e-01,9.92706e-01,9.57518e-01,9.99955e-01
8.884436187e-01,9.32670e-01,9.99999e-01,9.99999e-01,9.73336e-01,9.58339e-01,9.99873e-01
8.928858368e-01,7.27924e-01,9.99999e-01,9.99999e-01,7.59482e-01,9.59145e-01,9.99271e-01
8.973502660e-01,5.93335e-01,9.99999e-01,9.99999e-01,6.20410e-01,9.59936e-01,9.96273e-01
9.018370173e-01,7.50260e-01,9.99999e-01,9.99999e-01,7.85539e-01,9.60711e-01,9.94147e-01
9.063462024e-01,7.69121e-01,9.99999e-01,9.99999e-01,8.04075e-01,9.61472e-01,9.94857e-01
9.108779334e-01,6.82950e-01,9.99999e-01,9.99999e-01,7.13578e-01,9.62219e-01,9.94656e-01
9.154323231e-01,6.52205e-01,9.99999e-01,9.99999e-01,6.80303e-01,9.62951e-01,9.95581e-01
9.200094847e-01,7.12875e-01,9.99999e-01,9.99999e-01,7.41586e-01,9.63669e-01,9.97524e-01
9.246095321e-01,6.13341e-01,9.99999e-01,9.99999e-01,6.37817e-01,9.64374e-01,9.97147e-01
9.292325798e-01,7.22167e-02,9.99999e-01,9.99999e-01,7.58698e-02,9.65065e-01,9.86306e-01
9.338787427e-01,2.98216e-02,9.99999e-01,9.99999e-01,3.24574e-02,9.65743e-01,9.51381e-01
9.385481364e-01,2.25485e-01,9.99999e-01,9.99999e-01,2.46455e-01,9.66408e-01,9.46713e-01
9.432408771e-01,1.43135e-01,9.99999e-01,9.99999e-01,1.55170e-01,9.67061e-01,9.53857e-01
9.479570815e-01,6.64436e-02,9.99999e-01,9.99999e-01,7.13525e-02,9.67701e-01,9.62281e-01
9.526968669e-01,1.20554e-01,9.99999e-01,9.99999e-01,1.27451e-01,9.68329e-01,9.76821e-01
9.574603512e-01,1.33034e-01,9.99999e-01,9.99999e-01,1.38943e-01,9.68944e-01,9.88158e-01
9.622476530e-01,1.85736e-01,9.99999e-01,9.99999e-01,1.93154e-01,9.69548e-01,9.91796e-01
9.670588912e-01,3.66888e-01,9.99999e-01,9.99999e-01,3.80316e-01,9.70141e-01,9.94382e-01
9.718941857e-01,5.11219e-01,9.99999e-01,9.99999e-01,5.28826e-01,9.70722e-01,9.95861e-01
9.767536566e-01,5.69556e-01,9.99999e-01,9.99999e-01,5.88251e-01,9.71292e-01,9.96835e-01
9.816374249e-01,6.53204e-01,9.99999e-01,9.99999e-01,6.72860e-01,9.71851e-01,9.98903e-01
9.865456120e-01,7.57870e-01,9.99999e-01,9.99999e-01,7.79558e-01,9.72399e-01,9.99771e-01
9.914783401e-01,8.33407e-01,9.99999e-01,9.99999e-01,8.56642e-01,9.72937e-01,9.99936e-01
9.964357318e-01,8.94738e-01,9.99999e-01,9.99999e-01,9.19161e-01,9.73464e-01,9.99962e-01
1.001417910e+00,9.25916e-01,9.99999e-01,9.99999e-01,9.50704e-01,9.73981e-01,9.99943e-01
1.006425000e+00,9.46645e-01,9.99999e-01,9.99999e-01,9.71505e-01,9.74489e-01,9.99918e-01
1.011457125e+00,9.57629e-01,9.99999e-01,9.99999e-01,9.82270e-01,9.74986e-01,9.99924e-01
1.016514411e+00,9.63629e-01,9.99999e-01,9.99999e-01,9.87909e-01,9.75474e-01,9.99946e-01
1.021596983e+00,9.66481e-01,9.99999e-01,9.99999e-01,9.90346e-01,9.75953e-01,9.99947e-01
1.026704968e+00,9.69028e-01,9.99999e-01,9.99999e-01,9.92458e-01,9.76422e-01,9.99967e-01
1.031838492e+00,9.71527e-01,9.99999e-01,9.99999e-01,9.94526e-01,9.76882e-01,9.99989e-01
1.036997685e+00,9.74145e-01,9.99999e-01,9.99999e-01,9.96738e-01,9.77334e-01,9.99997e-01
1.042182673e+00,9.73959e-01,9.99999e-01,9.99999e-01,9.96095e-01,9.77776e-01,9.99998e-01
1.047393587e+00,9.73159e-01,9.99999e-01,9.99999e-01,9.94836e-01,9.78210e-01,9.99998e-01
1.052630555e+00,9.71697e-01,9.99999e-01,9.99999e-01,9.92910e-01,9.78636e-01,9.99997e-01
1.057893707e+00,9.67472e-01,9.99999e-01,9.99999e-01,9.88173e-01,9.79054e-01,9.99995e-01
1.063183176e+00,9.60495e-01,9.99999e-01,9.99999e-01,9.80643e-01,9.79463e-01,9.99989e-01
1.068499092e+00,9.48358e-01,9.99999e-01,9.99999e-01,9.67866e-01,9.79865e-01,9.99977e-01
1.073841587e+00,9.43452e-01,9.99999e-01,9.99999e-01,9.62497e-01,9.80258e-01,9.99951e-01
1.079210795e+00,9.33751e-01,9.99999e-01,9.99999e-01,9.52304e-01,9.80645e-01,9.99869e-01
1.084606849e+00,9.10777e-01,9.99999e-01,9.99999e-01,9.28685e-01,9.81023e-01,9.99685e-01
1.090029883e+00,8.81615e-01,9.99999e-01,9.99999e-01,8.98912e-01,9.81395e-01,9.99349e-01
1.095480033e+00,7.34488e-01,9.99999e-01,9.99999e-01,7.49015e-01,9.81759e-01,9.98824e-01
1.100957433e+00,4.77844e-01,9.99999e-01,9.99999e-01,4.87599e-01,9.82116e-01,9.97836e-01
1.106462220e+00,1.77671e-01,9.99999e-01,9.99999e-01,1.81507e-01,9.82466e-01,9.96333e-01
1.111994531e+00,3.09249e-02,9.99999e-01,9.99999e-01,3.17741e-02,9.82809e-01,9.90297e-01
1.117554504e+00,4.92180e-03,9.99999e-01,9.99999e-01,5.18553e-03,9.83146e-01,9.65410e-01
1.123142276e+00,2.72629e-02,9.99999e-01,9.99999e-01,3.01343e-02,9.83476e-01,9.19912e-01
1.128757988e+00,6.84078e-02,9.99999e-01,9.99999e-01,7.65840e-02,9.83800e-01,9.07946e-01
1.134401778e+00,3.39025e-02,9.99999e-01,9.99999e-01,3.73978e-02,9.84117e-01,9.21167e-01
1.140073787e+00,1.78871e-01,9.99999e-01,9.99999e-01,1.94021e-01,9.84428e-01,9.36498e-01
1.145774156e+00,4.44980e-02,9.99999e-01,9.99999e-01,4.79847e-02,9.84734e-01,9.41713e-01
1.151503026e+00,3.18178e-02,9.99999e-01,9.99999e-01,3.34001e-02,9.85033e-01,9.67098e-01
1.157260541e+00,4.18851e-02,9.99999e-01,9.99999e-01,4.29362e-02,9.85326e-01,9.90046e-01
1.163046844e+00,9.39765e-02,9.99999e-01,9.99999e-01,9.56187e-02,9.85614e-01,9.97168e-01
1.168862078e+00,1.78918e-01,9.99999e-01,9.99999e-01,1.81743e-01,9.85896e-01,9.98540e-01
1.174706389e+00,3.40396e-01,9.99999e-01,9.99999e-01,3.45837e-01,9.86173e-01,9.98065e-01
1.180579921e+00,5.11698e-01,9.99999e-01,9.99999e-01,5.20251e-01,9.86444e-01,9.97076e-01
1.186482820e+00,6.76114e-01,9.99999e-01,9.99999e-01,6.87281e-01,9.86710e-01,9.96999e-01
1.192415234e+00,7.90025e-01,9.99999e-01,9.99999e-01,8.02257e-01,9.86971e-01,9.97751e-01
1.198377311e+00,8.18025e-01,9.99999e-01,9.99999e-01,8.30379e-01,9.87226e-01,9.97866e-01
1.204369197e+00,8.27680e-01,9.99999e-01,9.99999e-01,8.39736e-01,9.87477e-01,9.98141e-01
1.210391043e+00,8.34313e-01,9.99999e-01,9.99999e-01,8.45671e-01,9.87723e-01,9.98830e-01
1.216442998e+00,8.56343e-01,9.99999e-01,9.99999e-01,8.67396e-01,9.87964e-01,9.99283e-01
1.222525213e+00,8.83775e-01,9.99999e-01,9.99999e-01,8.94725e-01,9.88200e-01,9.99554e-01
1.228637839e+00,9.14652e-01,9.99999e-01,9.99999e-01,9.25547e-01,9.88432e-01,9.99792e-01
