#,Wave/freq,Total,N2,O2,H2O,Rayleigh,CIA
4.000000000e-01,8.72248e-01,9.99999e-01,9.99999e-01,9.99984e-01,8.72262e-01,9.99999e-01
4.020000000e-01,8.74614e-01,9.99999e-01,9.99999e-01,9.99990e-01,8.74622e-01,9.99999e-01
4.040100000e-01,8.76936e-01,9.99999e-01,9.99999e-01,9.99995e-01,8.76939e-01,9.99999e-01
4.060300500e-01,8.79216e-01,9.99999e-01,9.99999e-01,9.99998e-01,8.79217e-01,9.99999e-01
4.080602003e-01,8.81455e-01,9.99999e-01,9.99999e-01,9.99999e-01,8.81455e-01,9.99999e-01
4.101005013e-01,8.83655e-01,9.99999e-01,9.99999e-01,9.99999e-01,8.83655e-01,9.99999e-01
4.121510038e-01,8.85816e-01,9.99999e-01,9.99999e-01,9.99998e-01,8.85816e-01,9.99999e-01
4.142117588e-01,8.87937e-01,9.99999e-01,9.99999e-01,9.99995e-01,8.87940e-01,9.99999e-01
4.162828176e-01,8.90010e-01,9.99999e-01,9.99999e-01,9.99980e-01,8.90027e-01,9.99999e-01
4.183642317e-01,8.92068e-01,9.99999e-01,9.99999e-01,9.99988e-01,8.92078e-01,9.99999e-01
4.204560528e-01,8.94086e-01,9.99999e-01,9.99999e-01,9.99992e-01,8.94092e-01,9.99999e-01
4.225583331e-01,8.96069e-01,9.99999e-01,9.99999e-01,9.99996e-01,8.96072e-01,9.99999e-01
4.246711247e-01,8.98014e-01,9.99999e-01,9.99999e-01,9.99997e-01,8.98016e-01,9.99999e-01
4.267944804e-01,8.99923e-01,9.99999e-01,9.99999e-01,9.99996e-01,8.99926e-01,9.99999e-01
4.289284528e-01,9.01800e-01,9.99999e-01,9.99999e-01,9.99997e-01,9.01802e-01,9.99999e-01
4.310730950e-01,9.03644e-01,9.99999e-01,9.99999e-01,9.99998e-01,9.03645e-01,9.99999e-01
4.332284605e-01,9.05455e-01,9.99999e-01,9.99999e-01,9.99999e-01,9.05456e-01,9.99999e-01
4.353946028e-01,9.07233e-01,9.99999e-01,9.99999e-01,9.99999e-01,9.07234e-01,9.99999e-01
4.375715758e-01,9.08978e-01,9.99999e-01,9.99999e-01,9.99997e-01,9.08980e-01,9.99999e-01
4.397594337e-01,9.10679e-01,9.99999e-01,9.99999e-01,9.99982e-01,9.10695e-01,9.99999e-01
4.419582309e-01,9.12300e-01,9.99999e-01,9.99999e-01,9.99912e-01,9.12379e-01,9.99999e-01
4.441680220e-01,9.13973e-01,9.99999e-01,9.99999e-01,9.99933e-01,9.14033e-01,9.99999e-01
4.463888621e-01,9.15594e-01,9.99999e-01,9.99999e-01,9.99930e-01,9.15658e-01,9.99999e-01
4.486208064e-01,9.17214e-01,9.99999e-01,9.99999e-01,9.99956e-01,9.17253e-01,9.99999e-01
4.508639105e-01,9.18800e-01,9.99999e-01,9.99999e-01,9.99979e-01,9.18819e-01,9.99999e-01
4.531182300e-01,9.20349e-01,9.99999e-01,9.99999e-01,9.99991e-01,9.20357e-01,9.99999e-01
4.553838212e-01,9.21862e-01,9.99999e-01,9.99999e-01,9.99994e-01,9.21867e-01,9.99999e-01
4.576607403e-01,9.23347e-01,9.99999e-01,9.99999e-01,9.99997e-01,9.23349e-01,9.99999e-01
4.599490440e-01,9.24803e-01,9.99999e-01,9.99999e-01,9.99997e-01,9.24805e-01,9.99999e-01
4.622487892e-01,9.26234e-01,9.99999e-01,9.99999e-01,9.99999e-01,9.26234e-01,9.99999e-01
4.645600332e-01,9.27636e-01,9.99999e-01,9.99999e-01,9.99998e-01,9.27637e-01,9.99999e-01
4.668828333e-01,9.28995e-01,9.99999e-01,9.99999e-01,9.99979e-01,9.29014e-01,9.99999e-01
4.692172475e-01,9.30326e-01,9.99999e-01,9.99999e-01,9.99956e-01,9.30366e-01,9.99999e-01
4.715633337e-01,9.31667e-01,9.99999e-01,9.99999e-01,9.99971e-01,9.31694e-01,9.99999e-01
4.739211504e-01,9.32971e-01,9.99999e-01,9.99999e-01,9.99972e-01,9.32997e-01,9.99999e-01
4.762907561e-01,9.34263e-01,9.99999e-01,9.99999e-01,9.99985e-01,9.34276e-01,9.99999e-01
4.786722099e-01,9.35526e-01,9.99999e-01,9.99999e-01,9.99993e-01,9.35531e-01,9.99999e-01
4.810655710e-01,9.36762e-01,9.99999e-01,9.99999e-01,9.99997e-01,9.36763e-01,9.99999e-01
4.834708988e-01,9.37957e-01,9.99999e-01,9.99999e-01,9.99982e-01,9.37973e-01,9.99999e-01
4.858882533e-01,9.39131e-01,9.99999e-01,9.99999e-01,9.99968e-01,9.39160e-01,9.99999e-01
4.883176946e-01,9.40301e-01,9.99999e-01,9.99999e-01,9.99973e-01,9.40325e-01,9.99999e-01
4.907592831e-01,9.41447e-01,9.99999e-01,9.99999e-01,9.99976e-01,9.41469e-01,9.99999e-01
4.932130795e-01,9.42575e-01,9.99999e-01,9.99999e-01,9.99983e-01,9.42591e-01,9.99999e-01
4.956791449e-01,9.43684e-01,9.99999e-01,9.99999e-01,9.99990e-01,9.43692e-01,9.99999e-01
4.981575406e-01,9.44732e-01,9.99999e-01,9.99999e-01,9.99955e-01,9.44773e-01,9.99999e-01
5.006483283e-01,9.45725e-01,9.99999e-01,9.99999e-01,9.99884e-01,9.45834e-01,9.99998e-01
5.031515699e-01,9.46325e-01,9.99999e-01,9.99999e-01,9.99424e-01,9.46875e-01,9.99993e-01
5.056673278e-01,9.47604e-01,9.99999e-01,9.99999e-01,9.99697e-01,9.47896e-01,9.99992e-01
5.081956644e-01,9.48534e-01,9.99999e-01,9.99999e-01,9.99618e-01,9.48899e-01,9.99995e-01
5.107366428e-01,9.49638e-01,9.99999e-01,9.99999e-01,9.99742e-01,9.49882e-01,9.99998e-01
5.132903260e-01,9.50708e-01,9.99999e-01,9.99999e-01,9.99853e-01,9.50848e-01,9.99999e-01
5.158567776e-01,9.51736e-01,9.99999e-01,9.99999e-01,9.99937e-01,9.51795e-01,9.99999e-01
5.184360615e-01,9.52700e-01,9.99999e-01,9.99999e-01,9.99974e-01,9.52724e-01,9.99999e-01
5.210282418e-01,9.53627e-01,9.99999e-01,9.99999e-01,9.99990e-01,9.53636e-01,9.99999e-01
5.236333830e-01,9.54494e-01,9.99999e-01,9.99999e-01,9.99962e-01,9.54530e-01,9.99999e-01
5.262515499e-01,9.55386e-01,9.99999e-01,9.99999e-01,9.99976e-01,9.55408e-01,9.99999e-01
5.288828077e-01,9.56249e-01,9.99999e-01,9.99999e-01,9.99977e-01,9.56269e-01,9.99999e-01
5.315272217e-01,9.57096e-01,9.99999e-01,9.99999e-01,9.99980e-01,9.57114e-01,9.99999e-01
5.341848578e-01,9.57931e-01,9.99999e-01,9.99999e-01,9.99987e-01,9.57943e-01,9.99999e-01
5.368557821e-01,9.58715e-01,9.99999e-01,9.99999e-01,9.99955e-01,9.58757e-01,9.99999e-01
5.395400610e-01,9.59400e-01,9.99999e-01,9.99999e-01,9.99839e-01,9.59555e-01,9.99998e-01
5.422377613e-01,9.60140e-01,9.99999e-01,9.99999e-01,9.99797e-01,9.60337e-01,9.99995e-01
5.449489501e-01,9.60919e-01,9.99999e-01,9.99999e-01,9.99809e-01,9.61105e-01,9.99995e-01
5.476736949e-01,9.61697e-01,9.99999e-01,9.99999e-01,9.99833e-01,9.61859e-01,9.99997e-01
5.504120634e-01,9.62481e-01,9.99999e-01,9.99999e-01,9.99878e-01,9.62598e-01,9.99998e-01
5.531641237e-01,9.63264e-01,9.99999e-01,9.99999e-01,9.99938e-01,9.63323e-01,9.99999e-01
5.559299443e-01,9.64006e-01,9.99999e-01,9.99999e-01,9.99970e-01,9.64034e-01,9.99999e-01
5.587095940e-01,9.64714e-01,9.99999e-01,9.99999e-01,9.99981e-01,9.64732e-01,9.99999e-01
5.615031420e-01,9.65396e-01,9.99999e-01,9.99999e-01,9.99978e-01,9.65416e-01,9.99999e-01
5.643106577e-01,9.66065e-01,9.99999e-01,9.99999e-01,9.99975e-01,9.66088e-01,9.99999e-01
5.671322110e-01,9.66463e-01,9.99999e-01,9.99999e-01,9.99708e-01,9.66746e-01,9.99996e-01
5.699678720e-01,9.67097e-01,9.99999e-01,9.99999e-01,9.99701e-01,9.67392e-01,9.99991e-01
5.728177114e-01,9.67715e-01,9.99999e-01,9.99999e-01,9.99684e-01,9.68026e-01,9.99993e-01
5.756818000e-01,9.68365e-01,9.99999e-01,9.99999e-01,9.99711e-01,9.68647e-01,9.99995e-01
5.785602090e-01,9.69013e-01,9.99999e-01,9.99999e-01,9.99749e-01,9.69257e-01,9.99998e-01
5.814530100e-01,9.69610e-01,9.99999e-01,9.99999e-01,9.99747e-01,9.69855e-01,9.99998e-01
5.843602750e-01,9.70145e-01,9.99999e-01,9.99999e-01,9.99695e-01,9.70442e-01,9.99997e-01
5.872820764e-01,9.68458e-01,9.99999e-01,9.99999e-01,9.97382e-01,9.71017e-01,9.99981e-01
5.902184868e-01,9.68491e-01,9.99999e-01,9.99999e-01,9.96867e-01,9.71581e-01,9.99949e-01
5.931695792e-01,9.69928e-01,9.99999e-01,9.99999e-01,9.97777e-01,9.72135e-01,9.99951e-01
5.961354271e-01,9.70289e-01,9.99999e-01,9.99999e-01,9.97571e-01,9.72677e-01,9.99972e-01
5.991161043e-01,9.71481e-01,9.99999e-01,9.99999e-01,9.98231e-01,9.73210e-01,9.99991e-01
6.021116848e-01,9.72756e-01,9.99999e-01,9.99999e-01,9.98997e-01,9.73732e-01,9.99998e-01
6.051222432e-01,9.73751e-01,9.99999e-01,9.99999e-01,9.99492e-01,9.74244e-01,9.99999e-01
6.081478544e-01,9.74533e-01,9.99999e-01,9.99999e-01,9.99780e-01,9.74746e-01,9.99999e-01
6.111885937e-01,9.75149e-01,9.99999e-01,9.99999e-01,9.99907e-01,9.75239e-01,9.99999e-01
6.142445367e-01,9.75682e-01,9.99999e-01,9.99999e-01,9.99958e-01,9.75722e-01,9.99999e-01
6.173157594e-01,9.76173e-01,9.99999e-01,9.99999e-01,9.99976e-01,9.76196e-01,9.99999e-01
6.204023382e-01,9.76641e-01,9.99999e-01,9.99999e-01,9.99980e-01,9.76660e-01,9.99999e-01
6.235043498e-01,9.77031e-01,9.99999e-01,9.99999e-01,9.99912e-01,9.77116e-01,9.99999e-01
6.266218716e-01,9.77118e-01,9.99999e-01,9.99999e-01,9.99547e-01,9.77563e-01,9.99996e-01
6.297549810e-01,9.77833e-01,9.99999e-01,9.99999e-01,9.99833e-01,9.78001e-01,9.99993e-01
6.329037559e-01,9.78107e-01,9.99999e-01,9.99999e-01,9.99673e-01,9.78431e-01,9.99994e-01
6.360682746e-01,9.78576e-01,9.99999e-01,9.99999e-01,9.99719e-01,9.78852e-01,9.99996e-01
6.392486160e-01,9.78911e-01,9.99999e-01,9.99999e-01,9.99638e-01,9.79266e-01,9.99998e-01
6.424448591e-01,9.79190e-01,9.99999e-01,9.99999e-01,9.99510e-01,9.79671e-01,9.99997e-01
6.456570834e-01,9.77830e-01,9.99999e-01,9.99999e-01,9.97729e-01,9.80069e-01,9.99985e-01
6.488853688e-01,9.78818e-01,9.99999e-01,9.99999e-01,9.98361e-01,9.80458e-01,9.99964e-01
6.521297956e-01,9.79175e-01,9.99999e-01,9.99999e-01,9.98329e-01,9.80841e-01,9.99970e-01
6.553904446e-01,9.79554e-01,9.99999e-01,9.99999e-01,9.98327e-01,9.81216e-01,9.99978e-01
6.586673968e-01,9.80179e-01,9.99999e-01,9.99999e-01,9.98575e-01,9.81583e-01,9.99992e-01
6.619607338e-01,9.81163e-01,9.99999e-01,9.99999e-01,9.99206e-01,9.81944e-01,9.99997e-01
6.652705375e-01,9.81829e-01,9.99999e-01,9.99999e-01,9.99523e-01,9.82297e-01,9.99998e-01
6.685968902e-01,9.82445e-01,9.99999e-01,9.99999e-01,9.99797e-01,9.82644e-01,9.99999e-01
6.719398746e-01,9.82883e-01,9.99999e-01,9.99999e-01,9.99897e-01,9.82984e-01,9.99999e-01
6.752995740e-01,9.83264e-01,9.99999e-01,9.99999e-01,9.99945e-01,9.83317e-01,9.99999e-01
6.786760719e-01,9.83564e-01,9.99999e-01,9.99999e-01,9.99918e-01,9.83644e-01,9.99999e-01
6.820694522e-01,9.83826e-01,9.99999e-01,9.99999e-01,9.99860e-01,9.83964e-01,9.99998e-01
6.854797995e-01,9.84101e-01,9.99999e-01,9.99999e-01,9.99821e-01,9.84278e-01,9.99997e-01
6.889071985e-01,9.84014e-01,9.99999e-01,9.99999e-01,9.99421e-01,9.84586e-01,9.99995e-01
6.923517345e-01,9.77853e-01,9.99999e-01,9.99999e-01,9.92889e-01,9.84889e-01,9.99965e-01
6.958134932e-01,9.81577e-01,9.99999e-01,9.99999e-01,9.96411e-01,9.85185e-01,9.99924e-01
6.992925606e-01,9.81959e-01,9.99999e-01,9.99999e-01,9.96498e-01,9.85475e-01,9.99932e-01
7.027890234e-01,9.81495e-01,9.99999e-01,9.99999e-01,9.95724e-01,9.85760e-01,9.99948e-01
7.063029686e-01,9.82466e-01,9.99999e-01,9.99999e-01,9.96400e-01,9.86039e-01,9.99973e-01
7.098344834e-01,9.82893e-01,9.99999e-01,9.99999e-01,9.96546e-01,9.86313e-01,9.99984e-01
7.133836558e-01,9.81936e-01,9.99999e-01,9.99999e-01,9.95320e-01,9.86582e-01,9.99969e-01
7.169505741e-01,9.50253e-01,9.99999e-01,9.99999e-01,9.63147e-01,9.86845e-01,9.99763e-01
7.205353270e-01,9.69180e-01,9.99999e-01,9.99999e-01,9.82251e-01,9.87103e-01,9.99583e-01
7.241380036e-01,9.64336e-01,9.99999e-01,9.99999e-01,9.77035e-01,9.87356e-01,9.99639e-01
7.277586936e-01,9.66859e-01,9.99999e-01,9.99999e-01,9.79282e-01,9.87604e-01,9.99705e-01
7.313974871e-01,9.66166e-01,9.99999e-01,9.99999e-01,9.78185e-01,9.87848e-01,9.99861e-01
7.350544745e-01,9.76190e-01,9.99999e-01,9.99999e-01,9.88007e-01,9.88086e-01,9.99951e-01
7.387297469e-01,9.79577e-01,9.99999e-01,9.99999e-01,9.91174e-01,9.88320e-01,9.99977e-01
7.424233956e-01,9.84283e-01,9.99999e-01,9.99999e-01,9.95687e-01,9.88550e-01,9.99995e-01
7.461355126e-01,9.86184e-01,9.99999e-01,9.99999e-01,9.97379e-01,9.88774e-01,9.99998e-01
7.498661902e-01,9.87793e-01,9.99999e-01,9.99999e-01,9.98784e-01,9.88995e-01,9.99999e-01
7.536155211e-01,9.88619e-01,9.99999e-01,9.99999e-01,9.99401e-01,9.89211e-01,9.99999e-01
7.573835987e-01,9.89119e-01,9.99999e-01,9.99999e-01,9.99691e-01,9.89423e-01,9.99999e-01
7.611705167e-01,9.89442e-01,9.99999e-01,9.99999e-01,9.99808e-01,9.89631e-01,9.99999e-01
7.649763693e-01,9.89716e-01,9.99999e-01,9.99999e-01,9.99879e-01,9.89835e-01,9.99999e-01
7.688012511e-01,9.89951e-01,9.99999e-01,9.99999e-01,9.99915e-01,9.90034e-01,9.99999e-01
7.726452574e-01,9.90162e-01,9.99999e-01,9.99999e-01,9.99930e-01,9.90230e-01,9.99999e-01
7.765084837e-01,9.90324e-01,9.99999e-01,9.99999e-01,9.99900e-01,9.90422e-01,9.99999e-01
7.803910261e-01,9.90185e-01,9.99999e-01,9.99999e-01,9.99570e-01,9.90611e-01,9.99999e-01
7.842929812e-01,9.89308e-01,9.99999e-01,9.99999e-01,9.98500e-01,9.90795e-01,9.99996e-01
7.882144461e-01,9.87931e-01,9.99999e-01,9.99999e-01,9.96947e-01,9.90976e-01,9.99978e-01
7.921555184e-01,9.89470e-01,9.99999e-01,9.99999e-01,9.98336e-01,9.91154e-01,9.99963e-01
7.961162960e-01,9.88336e-01,9.99999e-01,9.99999e-01,9.97016e-01,9.91328e-01,9.99964e-01
8.000968774e-01,9.88073e-01,9.99999e-01,9.99999e-01,9.96581e-01,9.91498e-01,9.99962e-01
8.040973618e-01,9.88241e-01,9.99999e-01,9.99999e-01,9.96574e-01,9.91665e-01,9.99971e-01
8.081178486e-01,9.84090e-01,9.99999e-01,9.99999e-01,9.92224e-01,9.91829e-01,9.99971e-01
8.121584379e-01,9.60139e-01,9.99999e-01,9.99999e-01,9.67995e-01,9.91990e-01,9.99891e-01
8.162192301e-01,9.54639e-01,9.99999e-01,9.99999e-01,9.62584e-01,9.92148e-01,9.99594e-01
8.203003262e-01,9.72667e-01,9.99999e-01,9.99999e-01,9.80677e-01,9.92302e-01,9.99525e-01
8.244018279e-01,9.66231e-01,9.99999e-01,9.99999e-01,9.73945e-01,9.92454e-01,9.99621e-01
8.285238370e-01,9.69825e-01,9.99999e-01,9.99999e-01,9.77342e-01,9.92602e-01,9.99702e-01
8.326664562e-01,9.70009e-01,9.99999e-01,9.99999e-01,9.77214e-01,9.92748e-01,9.99876e-01
8.368297885e-01,9.76711e-01,9.99999e-01,9.99999e-01,9.83732e-01,9.92890e-01,9.99971e-01
8.410139374e-01,9.83396e-01,9.99999e-01,9.99999e-01,9.90314e-01,9.93030e-01,9.99983e-01
8.452190071e-01,9.88441e-01,9.99999e-01,9.99999e-01,9.95250e-01,9.93167e-01,9.99989e-01
8.494451021e-01,9.90542e-01,9.99999e-01,9.99999e-01,9.97228e-01,9.93302e-01,9.99991e-01
8.536923276e-01,9.91808e-01,9.99999e-01,9.99999e-01,9.98367e-01,9.93434e-01,9.99994e-01
8.579607893e-01,9.92560e-01,9.99999e-01,9.99999e-01,9.98990e-01,9.93563e-01,9.99998e-01
8.622505932e-01,9.93055e-01,9.99999e-01,9.99999e-01,9.99360e-01,9.93690e-01,9.99999e-01
8.665618462e-01,9.93419e-01,9.99999e-01,9.99999e-01,9.99602e-01,9.93814e-01,9.99999e-01
8.708946554e-01,9.93482e-01,9.99999e-01,9.99999e-01,9.99543e-01,9.93936e-01,9.99999e-01
8.752491287e-01,9.93449e-01,9.99999e-01,9.99999e-01,9.99390e-01,9.94055e-01,9.99998e-01
8.796253743e-01,9.93328e-01,9.99999e-01,9.99999e-01,9.99152e-01,9.94172e-01,9.99997e-01
8.840235012e-01,9.93320e-01,9.99999e-01,9.99999e-01,9.99032e-01,9.94287e-01,9.99993e-01
8.884436187e-01,9.90787e-01,9.99999e-01,9.99999e-01,9.96383e-01,9.94400e-01,9.99982e-01
8.928858368e-01,9.57705e-01,9.99999e-01,9.99999e-01,9.63084e-01,9.94510e-01,9.99903e-01
8.973502660e-01,9.30818e-01,9.99999e-01,9.99999e-01,9.36315e-01,9.94618e-01,9.99506e-01
9.018370173e-01,9.61459e-01,9.99999e-01,9.99999e-01,9.67307e-01,9.94724e-01,9.99224e-01
9.063462024e-01,9.64899e-01,9.99999e-01,9.99999e-01,9.70575e-01,9.94828e-01,9.99318e-01
9.108779334e-01,9.49271e-01,9.99999e-01,9.99999e-01,9.54783e-01,9.94930e-01,9.99292e-01
9.154323231e-01,9.43686e-01,9.99999e-01,9.99999e-01,9.48954e-01,9.95030e-01,9.99414e-01
9.200094847e-01,9.54919e-01,9.99999e-01,9.99999e-01,9.59908e-01,9.95128e-01,9.99672e-01
9.246095321e-01,9.31098e-01,9.99999e-01,9.99999e-01,9.35919e-01,9.95224e-01,9.99622e-01
9.292325798e-01,6.41944e-01,9.99999e-01,9.99999e-01,6.46138e-01,9.95318e-01,9.98180e-01
9.338787427e-01,5.66368e-01,9.99999e-01,9.99999e-01,5.72737e-01,9.95410e-01,9.93439e-01
9.385481364e-01,7.90069e-01,9.99999e-01,9.99999e-01,7.99399e-01,9.95500e-01,9.92794e-01
9.432408771e-01,7.20555e-01,9.99999e-01,9.99999e-01,7.28276e-01,9.95589e-01,9.93780e-01
9.479570815e-01,6.38684e-01,9.99999e-01,9.99999e-01,6.44723e-01,9.95676e-01,9.94934e-01
9.526968669e-01,7.17950e-01,9.99999e-01,9.99999e-01,7.23241e-01,9.95761e-01,9.96907e-01
9.574603512e-01,7.38825e-01,9.99999e-01,9.99999e-01,7.43076e-01,9.95845e-01,9.98427e-01
9.622476530e-01,7.82324e-01,9.99999e-01,9.99999e-01,7.86378e-01,9.95927e-01,9.98912e-01
9.670588912e-01,8.66403e-01,9.99999e-01,9.99999e-01,8.70496e-01,9.96007e-01,9.99287e-01
9.718941857e-01,9.12891e-01,9.99999e-01,9.99999e-01,9.16978e-01,9.96086e-01,9.99453e-01
9.767536566e-01,9.26608e-01,9.99999e-01,9.99999e-01,9.30566e-01,9.96163e-01,9.99581e-01
9.816374249e-01,9.44570e-01,9.99999e-01,9.99999e-01,9.48273e-01,9.96238e-01,9.99854e-01
9.865456120e-01,9.63792e-01,9.99999e-01,9.99999e-01,9.67387e-01,9.96312e-01,9.99969e-01
9.914783401e-01,9.76161e-01,9.99999e-01,9.99999e-01,9.79710e-01,9.96385e-01,9.99991e-01
9.964357318e-01,9.85396e-01,9.99999e-01,9.99999e-01,9.88904e-01,9.96456e-01,9.99994e-01
1.001417910e+00,9.89885e-01,9.99999e-01,9.99999e-01,9.93342e-01,9.96526e-01,9.99992e-01
1.006425000e+00,9.92787e-01,9.99999e-01,9.99999e-01,9.96188e-01,9.96595e-01,9.99988e-01
1.011457125e+00,9.94301e-01,9.99999e-01,9.99999e-01,9.97641e-01,9.96662e-01,9.99989e-01
1.016514411e+00,9.95122e-01,9.99999e-01,9.99999e-01,9.98395e-01,9.96728e-01,9.99992e-01
1.021596983e+00,9.95510e-01,9.99999e-01,9.99999e-01,9.98719e-01,9.96792e-01,9.99992e-01
1.026704968e+00,9.95856e-01,9.99999e-01,9.99999e-01,9.99000e-01,9.96855e-01,9.99995e-01
1.031838492e+00,9.96194e-01,9.99999e-01,9.99999e-01,9.99275e-01,9.96917e-01,9.99998e-01
1.036997685e+00,9.96548e-01,9.99999e-01,9.99999e-01,9.99568e-01,9.96978e-01,9.99999e-01
1.042182673e+00,9.96523e-01,9.99999e-01,9.99999e-01,9.99482e-01,9.97038e-01,9.99999e-01
1.047393587e+00,9.96415e-01,9.99999e-01,9.99999e-01,9.99316e-01,9.97096e-01,9.99999e-01
1.052630555e+00,9.96216e-01,9.99999e-01,9.99999e-01,9.99060e-01,9.97153e-01,9.99999e-01
1.057893707e+00,9.95642e-01,9.99999e-01,9.99999e-01,9.98427e-01,9.97210e-01,9.99998e-01
1.063183176e+00,9.94688e-01,9.99999e-01,9.99999e-01,9.97417e-01,9.97265e-01,9.99998e-01
1.068499092e+00,9.93014e-01,9.99999e-01,9.99999e-01,9.95686e-01,9.97319e-01,9.99996e-01
1.073841587e+00,9.92318e-01,9.99999e-01,9.99999e-01,9.94938e-01,9.97371e-01,9.99993e-01
1.079210795e+00,9.90971e-01,9.99999e-01,9.99999e-01,9.93547e-01,9.97423e-01,9.99982e-01
1.084606849e+00,9.87680e-01,9.99999e-01,9.99999e-01,9.90221e-01,9.97474e-01,9.99958e-01
1.090029883e+00,9.83331e-01,9.99999e-01,9.99999e-01,9.85855e-01,9.97524e-01,9.99913e-01
1.095480033e+00,9.59554e-01,9.99999e-01,9.99999e-01,9.62037e-01,9.97573e-01,9.99844e-01
1.100957433e+00,9.03862e-01,9.99999e-01,9.99999e-01,9.06276e-01,9.97621e-01,9.99713e-01
1.106462220e+00,7.75472e-01,9.99999e-01,9.99999e-01,7.77661e-01,9.97668e-01,9.99514e-01
1.111994531e+00,5.89086e-01,9.99999e-01,9.99999e-01,5.91196e-01,9.97714e-01,9.98712e-01
1.117554504e+00,4.24510e-01,9.99999e-01,9.99999e-01,4.27446e-01,9.97759e-01,9.95361e-01
1.123142276e+00,5.29019e-01,9.99999e-01,9.99999e-01,5.36061e-01,9.97803e-01,9.89035e-01
1.128757988e+00,6.59808e-01,9.99999e-01,9.99999e-01,6.69718e-01,9.97846e-01,9.87327e-01
1.134401778e+00,4.09010e-01,9.99999e-01,9.99999e-01,4.14344e-01,9.97889e-01,9.89214e-01
1.140073787e+00,7.79035e-01,9.99999e-01,9.99999e-01,7.87443e-01,9.97930e-01,9.91372e-01
1.145774156e+00,6.02325e-01,9.99999e-01,9.99999e-01,6.08355e-01,9.97971e-01,9.92100e-01
1.151503026e+00,5.70297e-01,9.99999e-01,9.99999e-01,5.73964e-01,9.98011e-01,9.95591e-01
1.157260541e+00,6.28536e-01,9.99999e-01,9.99999e-01,6.30595e-01,9.98050e-01,9.98679e-01
1.163046844e+00,7.10436e-01,9.99999e-01,9.99999e-01,7.12062e-01,9.98089e-01,9.99625e-01
1.168862078e+00,7.88561e-01,9.99999e-01,9.99999e-01,7.90195e-01,9.98126e-01,9.99804e-01
1.174706389e+00,8.62895e-01,9.99999e-01,9.99999e-01,8.64714e-01,9.98163e-01,9.99730e-01
1.180579921e+00,9.13365e-01,9.99999e-01,9.99999e-01,9.15365e-01,9.98200e-01,9.99612e-01
1.186482820e+00,9.49187e-01,9.99999e-01,9.99999e-01,9.51242e-01,9.98235e-01,9.99602e-01
1.192415234e+00,9.69260e-01,9.99999e-01,9.99999e-01,9.71227e-01,9.98270e-01,9.99702e-01
1.198377311e+00,9.73709e-01,9.99999e-01,9.99999e-01,9.75638e-01,9.98304e-01,9.99717e-01
1.204369197e+00,9.75088e-01,9.99999e-01,9.99999e-01,9.76951e-01,9.98338e-01,9.99753e-01
1.210391043e+00,9.76215e-01,9.99999e-01,9.99999e-01,9.77959e-01,9.98370e-01,9.99845e-01
1.216442998e+00,9.79612e-01,9.99999e-01,9.99999e-01,9.81272e-01,9.98402e-01,9.99904e-01
1.222525213e+00,9.83777e-01,9.99999e-01,9.99999e-01,9.85377e-01,9.98434e-01,9.99940e-01
1.228637839e+00,9.88271e-01,9.99999e-01,9.99999e-01,9.89816e-01,9.98465e-01,9.99972e-01
