#,Wave/freq,Total,N2,O2,H2O,Rayleigh,CIA
4.000000000e-01,5.63819e-01,9.99999e-01,9.99999e-01,9.99934e-01,5.63855e-01,9.99999e-01
4.020000000e-01,5.70257e-01,9.99999e-01,9.99999e-01,9.99959e-01,5.70279e-01,9.99999e-01
4.040100000e-01,5.76631e-01,9.99999e-01,9.99999e-01,9.99982e-01,5.76641e-01,9.99999e-01
4.060300500e-01,5.82944e-01,9.99999e-01,9.99999e-01,9.99995e-01,5.82946e-01,9.99999e-01
4.080602003e-01,5.89192e-01,9.99999e-01,9.99999e-01,9.99998e-01,5.89193e-01,9.99999e-01
4.101005013e-01,5.95382e-01,9.99999e-01,9.99999e-01,9.99999e-01,5.95382e-01,9.99999e-01
4.121510038e-01,6.01510e-01,9.99999e-01,9.99999e-01,9.99997e-01,6.01511e-01,9.99999e-01
4.142117588e-01,6.07570e-01,9.99999e-01,9.99999e-01,9.99981e-01,6.07581e-01,9.99999e-01
4.162828176e-01,6.13542e-01,9.99999e-01,9.99999e-01,9.99919e-01,6.13591e-01,9.99999e-01
4.183642317e-01,6.19510e-01,9.99999e-01,9.99999e-01,9.99951e-01,6.19539e-01,9.99999e-01
4.204560528e-01,6.25408e-01,9.99999e-01,9.99999e-01,9.99970e-01,6.25426e-01,9.99999e-01
4.225583331e-01,6.31244e-01,9.99999e-01,9.99999e-01,9.99988e-01,6.31251e-01,9.99999e-01
4.246711247e-01,6.37007e-01,9.99999e-01,9.99999e-01,9.99990e-01,6.37013e-01,9.99999e-01
4.267944804e-01,6.42704e-01,9.99999e-01,9.99999e-01,9.99986e-01,6.42713e-01,9.99999e-01
4.289284528e-01,6.48343e-01,9.99999e-01,9.99999e-01,9.99989e-01,6.48349e-01,9.99999e-01
4.310730950e-01,6.53920e-01,9.99999e-01,9.99999e-01,9.99995e-01,6.53922e-01,9.99999e-01
4.332284605e-01,6.59431e-01,9.99999e-01,9.99999e-01,9.99998e-01,6.59432e-01,9.99999e-01
4.353946028e-01,6.64878e-01,9.99999e-01,9.99999e-01,9.99999e-01,6.64878e-01,9.99999e-01
4.375715758e-01,6.70254e-01,9.99999e-01,9.99999e-01,9.99991e-01,6.70260e-01,9.99999e-01
4.397594337e-01,6.75530e-01,9.99999e-01,9.99999e-01,9.99928e-01,6.75578e-01,9.99999e-01
4.419582309e-01,6.80587e-01,9.99999e-01,9.99999e-01,9.99640e-01,6.80831e-01,9.99999e-01
4.441680220e-01,6.85830e-01,9.99999e-01,9.99999e-01,9.99721e-01,6.86021e-01,9.99999e-01
4.463888621e-01,6.90946e-01,9.99999e-01,9.99999e-01,9.99709e-01,6.91147e-01,9.99999e-01
4.486208064e-01,6.96083e-01,9.99999e-01,9.99999e-01,9.99819e-01,6.96208e-01,9.99999e-01
4.508639105e-01,7.01147e-01,9.99999e-01,9.99999e-01,9.99915e-01,7.01206e-01,9.99999e-01
4.531182300e-01,7.06116e-01,9.99999e-01,9.99999e-01,9.99966e-01,7.06139e-01,9.99999e-01
4.553838212e-01,7.10993e-01,9.99999e-01,9.99999e-01,9.99976e-01,7.11009e-01,9.99999e-01
4.576607403e-01,7.15808e-01,9.99999e-01,9.99999e-01,9.99989e-01,7.15815e-01,9.99999e-01
4.599490440e-01,7.20553e-01,9.99999e-01,9.99999e-01,9.99992e-01,7.20558e-01,9.99999e-01
4.622487892e-01,7.25237e-01,9.99999e-01,9.99999e-01,9.99998e-01,7.25238e-01,9.99999e-01
4.645600332e-01,7.29851e-01,9.99999e-01,9.99999e-01,9.99994e-01,7.29854e-01,9.99999e-01
4.668828333e-01,7.34346e-01,9.99999e-01,9.99999e-01,9.99914e-01,7.34408e-01,9.99999e-01
4.692172475e-01,7.38766e-01,9.99999e-01,9.99999e-01,9.99817e-01,7.38900e-01,9.99999e-01
4.715633337e-01,7.43241e-01,9.99999e-01,9.99999e-01,9.99880e-01,7.43330e-01,9.99999e-01
4.739211504e-01,7.47612e-01,9.99999e-01,9.99999e-01,9.99885e-01,7.47697e-01,9.99999e-01
4.762907561e-01,7.51960e-01,9.99999e-01,9.99999e-01,9.99940e-01,7.52004e-01,9.99999e-01
4.786722099e-01,7.56231e-01,9.99999e-01,9.99999e-01,9.99975e-01,7.56249e-01,9.99999e-01
4.810655710e-01,7.60429e-01,9.99999e-01,9.99999e-01,9.99992e-01,7.60434e-01,9.99999e-01
4.834708988e-01,7.64505e-01,9.99999e-01,9.99999e-01,9.99929e-01,7.64559e-01,9.99999e-01
4.858882533e-01,7.68525e-01,9.99999e-01,9.99999e-01,9.99870e-01,7.68624e-01,9.99999e-01
4.883176946e-01,7.72546e-01,9.99999e-01,9.99999e-01,9.99891e-01,7.72630e-01,9.99999e-01
4.907592831e-01,7.76501e-01,9.99999e-01,9.99999e-01,9.99902e-01,7.76576e-01,9.99999e-01
4.932130795e-01,7.80411e-01,9.99999e-01,9.99999e-01,9.99930e-01,7.80465e-01,9.99999e-01
4.956791449e-01,7.84267e-01,9.99999e-01,9.99999e-01,9.99962e-01,7.84295e-01,9.99999e-01
4.981575406e-01,7.87924e-01,9.99999e-01,9.99999e-01,9.99816e-01,7.88068e-01,9.99999e-01
5.006483283e-01,7.91405e-01,9.99999e-01,9.99999e-01,9.99523e-01,7.91784e-01,9.99996e-01
5.031515699e-01,7.93513e-01,9.99999e-01,9.99999e-01,9.97597e-01,7.95444e-01,9.99974e-01
5.056673278e-01,7.98013e-01,9.99999e-01,9.99999e-01,9.98732e-01,7.99048e-01,9.99970e-01
5.081956644e-01,8.01300e-01,9.99999e-01,9.99999e-01,9.98401e-01,8.02597e-01,9.99981e-01
5.107366428e-01,8.05218e-01,9.99999e-01,9.99999e-01,9.98920e-01,8.06090e-01,9.99996e-01
5.132903260e-01,8.09031e-01,9.99999e-01,9.99999e-01,9.99383e-01,8.09530e-01,9.99999e-01
5.158567776e-01,8.12704e-01,9.99999e-01,9.99999e-01,9.99739e-01,8.12916e-01,9.99999e-01
5.184360615e-01,8.16163e-01,9.99999e-01,9.99999e-01,9.99895e-01,8.16248e-01,9.99999e-01
5.210282418e-01,8.19496e-01,9.99999e-01,9.99999e-01,9.99960e-01,8.19528e-01,9.99999e-01
5.236333830e-01,8.22627e-01,9.99999e-01,9.99999e-01,9.99843e-01,8.22757e-01,9.99998e-01
5.262515499e-01,8.25851e-01,9.99999e-01,9.99999e-01,9.99901e-01,8.25933e-01,9.99997e-01
5.288828077e-01,8.28984e-01,9.99999e-01,9.99999e-01,9.99909e-01,8.29059e-01,9.99998e-01
5.315272217e-01,8.32069e-01,9.99999e-01,9.99999e-01,9.99920e-01,8.32135e-01,9.99999e-01
5.341848578e-01,8.35117e-01,9.99999e-01,9.99999e-01,9.99947e-01,8.35161e-01,9.99999e-01
5.368557821e-01,8.37984e-01,9.99999e-01,9.99999e-01,9.99816e-01,8.38137e-01,9.99999e-01
5.395400610e-01,8.40506e-01,9.99999e-01,9.99999e-01,9.99338e-01,8.41066e-01,9.99994e-01
5.422377613e-01,8.43216e-01,9.99999e-01,9.99999e-01,9.99150e-01,8.43946e-01,9.99984e-01
5.449489501e-01,8.46095e-01,9.99999e-01,9.99999e-01,9.99207e-01,8.46779e-01,9.99983e-01
5.476736949e-01,8.48965e-01,9.99999e-01,9.99999e-01,9.99300e-01,8.49566e-01,9.99991e-01
5.504120634e-01,8.51871e-01,9.99999e-01,9.99999e-01,9.99491e-01,8.52306e-01,9.99997e-01
5.531641237e-01,8.54782e-01,9.99999e-01,9.99999e-01,9.99744e-01,8.55000e-01,9.99999e-01
5.559299443e-01,8.57544e-01,9.99999e-01,9.99999e-01,9.99876e-01,8.57650e-01,9.99999e-01
5.587095940e-01,8.60189e-01,9.99999e-01,9.99999e-01,9.99922e-01,8.60255e-01,9.99999e-01
5.615031420e-01,8.62743e-01,9.99999e-01,9.99999e-01,9.99913e-01,8.62817e-01,9.99999e-01
5.643106577e-01,8.65250e-01,9.99999e-01,9.99999e-01,9.99901e-01,8.65335e-01,9.99998e-01
5.671322110e-01,8.66764e-01,9.99999e-01,9.99999e-01,9.98803e-01,8.67811e-01,9.99988e-01
5.699678720e-01,8.69121e-01,9.99999e-01,9.99999e-01,9.98740e-01,8.70245e-01,9.99967e-01
5.728177114e-01,8.71465e-01,9.99999e-01,9.99999e-01,9.98683e-01,8.72637e-01,9.99972e-01
5.756818000e-01,8.73919e-01,9.99999e-01,9.99999e-01,9.98792e-01,8.74988e-01,9.99983e-01
5.785602090e-01,8.76373e-01,9.99999e-01,9.99999e-01,9.98948e-01,8.77300e-01,9.99995e-01
5.814530100e-01,8.78639e-01,9.99999e-01,9.99999e-01,9.98942e-01,8.79571e-01,9.99997e-01
5.843602750e-01,8.80683e-01,9.99999e-01,9.99999e-01,9.98736e-01,8.81803e-01,9.99992e-01
5.872820764e-01,8.74357e-01,9.99999e-01,9.99999e-01,9.89170e-01,8.83997e-01,9.99923e-01
5.902184868e-01,8.74379e-01,9.99999e-01,9.99999e-01,9.86918e-01,8.86152e-01,9.99791e-01
5.931695792e-01,8.79870e-01,9.99999e-01,9.99999e-01,9.90740e-01,8.88271e-01,9.99799e-01
5.961354271e-01,8.81219e-01,9.99999e-01,9.99999e-01,9.89855e-01,8.90352e-01,9.99884e-01
5.991161043e-01,8.85756e-01,9.99999e-01,9.99999e-01,9.92593e-01,8.92397e-01,9.99963e-01
6.021116848e-01,8.90640e-01,9.99999e-01,9.99999e-01,9.95793e-01,8.94406e-01,9.99995e-01
6.051222432e-01,8.94470e-01,9.99999e-01,9.99999e-01,9.97869e-01,8.96379e-01,9.99999e-01
6.081478544e-01,8.97492e-01,9.99999e-01,9.99999e-01,9.99080e-01,8.98318e-01,9.99999e-01
6.111885937e-01,8.99873e-01,9.99999e-01,9.99999e-01,9.99610e-01,9.00223e-01,9.99999e-01
6.142445367e-01,9.01937e-01,9.99999e-01,9.99999e-01,9.99825e-01,9.02094e-01,9.99999e-01
6.173157594e-01,9.03845e-01,9.99999e-01,9.99999e-01,9.99903e-01,9.03932e-01,9.99999e-01
6.204023382e-01,9.05663e-01,9.99999e-01,9.99999e-01,9.99918e-01,9.05737e-01,9.99999e-01
6.235043498e-01,9.07183e-01,9.99999e-01,9.99999e-01,9.99640e-01,9.07510e-01,9.99998e-01
6.266218716e-01,9.07518e-01,9.99999e-01,9.99999e-01,9.98107e-01,9.09251e-01,9.99986e-01
6.297549810e-01,9.10305e-01,9.99999e-01,9.99999e-01,9.99305e-01,9.10961e-01,9.99972e-01
6.329037559e-01,9.11371e-01,9.99999e-01,9.99999e-01,9.98628e-01,9.12641e-01,9.99978e-01
6.360682746e-01,9.13210e-01,9.99999e-01,9.99999e-01,9.98830e-01,9.14290e-01,9.99986e-01
6.392486160e-01,9.14518e-01,9.99999e-01,9.99999e-01,9.98485e-01,9.15910e-01,9.99993e-01
6.424448591e-01,9.15628e-01,9.99999e-01,9.99999e-01,9.97967e-01,9.17500e-01,9.99990e-01
6.456570834e-01,9.10377e-01,9.99999e-01,9.99999e-01,9.90601e-01,9.19062e-01,9.99947e-01
6.488853688e-01,9.14147e-01,9.99999e-01,9.99999e-01,9.93139e-01,9.20596e-01,9.99853e-01
6.521297956e-01,9.15545e-01,9.99999e-01,9.99999e-01,9.93008e-01,9.22101e-01,9.99879e-01
6.553904446e-01,9.17055e-01,9.99999e-01,9.99999e-01,9.93023e-01,9.23580e-01,9.99909e-01
6.586673968e-01,9.19485e-01,9.99999e-01,9.99999e-01,9.94033e-01,9.25031e-01,9.99969e-01
6.619607338e-01,9.23366e-01,9.99999e-01,9.99999e-01,9.96670e-01,9.26456e-01,9.99993e-01
6.652705375e-01,9.25997e-01,9.99999e-01,9.99999e-01,9.98000e-01,9.27855e-01,9.99996e-01
6.685968902e-01,9.28438e-01,9.99999e-01,9.99999e-01,9.99149e-01,9.29228e-01,9.99998e-01
6.719398746e-01,9.30176e-01,9.99999e-01,9.99999e-01,9.99569e-01,9.30576e-01,9.99999e-01
6.752995740e-01,9.31682e-01,9.99999e-01,9.99999e-01,9.99766e-01,9.31900e-01,9.99999e-01
6.786760719e-01,9.32883e-01,9.99999e-01,9.99999e-01,9.99661e-01,9.33199e-01,9.99999e-01
6.820694522e-01,9.33932e-01,9.99999e-01,9.99999e-01,9.99421e-01,9.34474e-01,9.99996e-01
6.854797995e-01,9.35023e-01,9.99999e-01,9.99999e-01,9.99254e-01,9.35726e-01,9.99993e-01
6.889071985e-01,9.35241e-01,9.99999e-01,9.99999e-01,9.98186e-01,9.36955e-01,9.99983e-01
6.923517345e-01,9.10746e-01,9.99999e-01,9.99999e-01,9.70914e-01,9.38161e-01,9.99858e-01
6.958134932e-01,9.24865e-01,9.99999e-01,9.99999e-01,9.84892e-01,9.39344e-01,9.99687e-01
6.992925606e-01,9.26625e-01,9.99999e-01,9.99999e-01,9.85517e-01,9.40506e-01,9.99718e-01
7.027890234e-01,9.24682e-01,9.99999e-01,9.99999e-01,9.82194e-01,9.41646e-01,9.99784e-01
7.063029686e-01,9.28523e-01,9.99999e-01,9.99999e-01,9.84998e-01,9.42765e-01,9.99892e-01
7.098344834e-01,9.30213e-01,9.99999e-01,9.99999e-01,9.85599e-01,9.43863e-01,9.99936e-01
7.133836558e-01,9.26682e-01,9.99999e-01,9.99999e-01,9.80799e-01,9.44941e-01,9.99873e-01
7.169505741e-01,8.10150e-01,9.99999e-01,9.99999e-01,8.57244e-01,9.45999e-01,9.99010e-01
7.205353270e-01,8.76930e-01,9.99999e-01,9.99999e-01,9.27590e-01,9.47036e-01,9.98255e-01
7.241380036e-01,8.59842e-01,9.99999e-01,9.99999e-01,9.08321e-01,9.48055e-01,9.98493e-01
7.277586936e-01,8.69154e-01,9.99999e-01,9.99999e-01,9.16939e-01,9.49054e-01,9.98768e-01
7.313974871e-01,8.65791e-01,9.99999e-01,9.99999e-01,9.11850e-01,9.50035e-01,9.99422e-01
7.350544745e-01,9.03973e-01,9.99999e-01,9.99999e-01,9.50742e-01,9.50997e-01,9.99799e-01
7.387297469e-01,9.17086e-01,9.99999e-01,9.99999e-01,9.63473e-01,9.51942e-01,9.99907e-01
7.424233956e-01,9.35666e-01,9.99999e-01,9.99999e-01,9.81963e-01,9.52868e-01,9.99981e-01
7.461355126e-01,9.43307e-01,9.99999e-01,9.99999e-01,9.89024e-01,9.53777e-01,9.99996e-01
7.498661902e-01,9.49781e-01,9.99999e-01,9.99999e-01,9.94880e-01,9.54669e-01,9.99998e-01
7.536155211e-01,9.53139e-01,9.99999e-01,9.99999e-01,9.97483e-01,9.55544e-01,9.99998e-01
7.573835987e-01,9.55164e-01,9.99999e-01,9.99999e-01,9.98703e-01,9.56403e-01,9.99999e-01
7.611705167e-01,9.56475e-01,9.99999e-01,9.99999e-01,9.99194e-01,9.57246e-01,9.99999e-01
7.649763693e-01,9.57588e-01,9.99999e-01,9.99999e-01,9.99494e-01,9.58072e-01,9.99999e-01
7.688012511e-01,9.58546e-01,9.99999e-01,9.99999e-01,9.99647e-01,9.58883e-01,9.99999e-01
7.726452574e-01,9.59401e-01,9.99999e-01,9.99999e-01,9.99710e-01,9.59679e-01,9.99999e-01
7.765084837e-01,9.60062e-01,9.99999e-01,9.99999e-01,9.99587e-01,9.60459e-01,9.99999e-01
7.803910261e-01,9.59509e-01,9.99999e-01,9.99999e-01,9.98216e-01,9.61225e-01,9.99997e-01
7.842929812e-01,9.55990e-01,9.99999e-01,9.99999e-01,9.93787e-01,9.61976e-01,9.99988e-01
7.882144461e-01,9.50381e-01,9.99999e-01,9.99999e-01,9.87276e-01,9.62713e-01,9.99911e-01
7.921555184e-01,9.56564e-01,9.99999e-01,9.99999e-01,9.93018e-01,9.63436e-01,9.99847e-01
7.961162960e-01,9.52095e-01,9.99999e-01,9.99999e-01,9.87645e-01,9.64145e-01,9.99854e-01
8.000968774e-01,9.50954e-01,9.99999e-01,9.99999e-01,9.85759e-01,9.64840e-01,9.99845e-01
8.040973618e-01,9.51655e-01,9.99999e-01,9.99999e-01,9.85752e-01,9.65523e-01,9.99881e-01
8.081178486e-01,9.35308e-01,9.99999e-01,9.99999e-01,9.68150e-01,9.66192e-01,9.99880e-01
8.121584379e-01,8.45112e-01,9.99999e-01,9.99999e-01,8.74484e-01,9.66849e-01,9.99548e-01
8.162192301e-01,8.24393e-01,9.99999e-01,9.99999e-01,8.53540e-01,9.67493e-01,9.98302e-01
8.203003262e-01,8.93625e-01,9.99999e-01,9.99999e-01,9.24885e-01,9.68124e-01,9.98012e-01
8.244018279e-01,8.68708e-01,9.99999e-01,9.99999e-01,8.98156e-01,9.68744e-01,9.98418e-01
8.285238370e-01,8.80317e-01,9.99999e-01,9.99999e-01,9.09278e-01,9.69352e-01,9.98757e-01
8.326664562e-01,8.80831e-01,9.99999e-01,9.99999e-01,9.08588e-01,9.69948e-01,9.99485e-01
8.368297885e-01,9.05968e-01,9.99999e-01,9.99999e-01,9.33583e-01,9.70533e-01,9.99882e-01
8.410139374e-01,9.32160e-01,9.99999e-01,9.99999e-01,9.59959e-01,9.71106e-01,9.99930e-01
8.452190071e-01,9.52350e-01,9.99999e-01,9.99999e-01,9.80158e-01,9.71669e-01,9.99958e-01
8.494451021e-01,9.60935e-01,9.99999e-01,9.99999e-01,9.88423e-01,9.72221e-01,9.99966e-01
8.536923276e-01,9.66077e-01,9.99999e-01,9.99999e-01,9.93147e-01,9.72762e-01,9.99979e-01
8.579607893e-01,9.69172e-01,9.99999e-01,9.99999e-01,9.95770e-01,9.73292e-01,9.99994e-01
8.622505932e-01,9.71196e-01,9.99999e-01,9.99999e-01,9.97313e-01,9.73813e-01,9.99998e-01
8.665618462e-01,9.72702e-01,9.99999e-01,9.99999e-01,9.98335e-01,9.74324e-01,9.99999e-01
8.708946554e-01,9.72965e-01,9.99999e-01,9.99999e-01,9.98092e-01,9.74824e-01,9.99998e-01
8.752491287e-01,9.72826e-01,9.99999e-01,9.99999e-01,9.97450e-01,9.75315e-01,9.99996e-01
8.796253743e-01,9.72342e-01,9.99999e-01,9.99999e-01,9.96466e-01,9.75797e-01,9.99991e-01
8.840235012e-01,9.72308e-01,9.99999e-01,9.99999e-01,9.95966e-01,9.76269e-01,9.99974e-01
8.884436187e-01,9.62328e-01,9.99999e-01,9.99999e-01,9.85320e-01,9.76732e-01,9.99929e-01
8.928858368e-01,8.37465e-01,9.99999e-01,9.99999e-01,8.57361e-01,9.77187e-01,9.99596e-01
8.973502660e-01,7.44599e-01,9.99999e-01,9.99999e-01,7.63209e-01,9.77632e-01,9.97935e-01
9.018370173e-01,8.49632e-01,9.99999e-01,9.99999e-01,8.71508e-01,9.78069e-01,9.96756e-01
9.063462024e-01,8.63541e-01,9.99999e-01,9.99999e-01,8.85038e-01,9.78498e-01,9.97149e-01
9.108779334e-01,8.07161e-01,9.99999e-01,9.99999e-01,8.26992e-01,9.78918e-01,9.97038e-01
9.154323231e-01,7.86886e-01,9.99999e-01,9.99999e-01,8.05466e-01,9.79330e-01,9.97551e-01
9.200094847e-01,8.26443e-01,9.99999e-01,9.99999e-01,8.44696e-01,9.79734e-01,9.98628e-01
9.246095321e-01,7.56674e-01,9.99999e-01,9.99999e-01,7.73234e-01,9.80130e-01,9.98420e-01
9.292325798e-01,1.94133e-01,9.99999e-01,9.99999e-01,1.99214e-01,9.80519e-01,9.93854e-01
9.338787427e-01,1.19585e-01,9.99999e-01,9.99999e-01,1.25060e-01,9.80900e-01,9.74838e-01
9.385481364e-01,4.08059e-01,9.99999e-01,9.99999e-01,4.28643e-01,9.81274e-01,9.70145e-01
9.432408771e-01,3.06494e-01,9.99999e-01,9.99999e-01,3.20497e-01,9.81640e-01,9.74190e-01
9.479570815e-01,1.99536e-01,9.99999e-01,9.99999e-01,2.07564e-01,9.82000e-01,9.78943e-01
9.526968669e-01,2.87292e-01,9.99999e-01,9.99999e-01,2.96274e-01,9.82352e-01,9.87103e-01
9.574603512e-01,3.06194e-01,9.99999e-01,9.99999e-01,3.13646e-01,9.82697e-01,9.93428e-01
9.622476530e-01,3.75145e-01,9.99999e-01,9.99999e-01,3.83362e-01,9.83036e-01,9.95450e-01
9.670588912e-01,5.60913e-01,9.99999e-01,9.99999e-01,5.72181e-01,9.83369e-01,9.96886e-01
9.718941857e-01,6.86050e-01,9.99999e-01,9.99999e-01,6.99024e-01,9.83694e-01,9.97707e-01
9.767536566e-01,7.29337e-01,9.99999e-01,9.99999e-01,7.42486e-01,9.84014e-01,9.98247e-01
9.816374249e-01,7.88262e-01,9.99999e-01,9.99999e-01,8.01298e-01,9.84327e-01,9.99392e-01
9.865456120e-01,8.56928e-01,9.99999e-01,9.99999e-01,8.70410e-01,9.84634e-01,9.99873e-01
9.914783401e-01,9.03752e-01,9.99999e-01,9.99999e-01,9.17606e-01,9.84935e-01,9.99964e-01
9.964357318e-01,9.40138e-01,9.99999e-01,9.99999e-01,9.54250e-01,9.85231e-01,9.99979e-01
1.001417910e+00,9.58206e-01,9.99999e-01,9.99999e-01,9.72314e-01,9.85520e-01,9.99968e-01
1.006425000e+00,9.70096e-01,9.99999e-01,9.99999e-01,9.84108e-01,9.85804e-01,9.99954e-01
1.011457125e+00,9.76298e-01,9.99999e-01,9.99999e-01,9.90117e-01,9.86083e-01,9.99958e-01
1.016514411e+00,9.79697e-01,9.99999e-01,9.99999e-01,9.93277e-01,9.86356e-01,9.99970e-01
1.021596983e+00,9.81306e-01,9.99999e-01,9.99999e-01,9.94638e-01,9.86623e-01,9.99970e-01
1.026704968e+00,9.82739e-01,9.99999e-01,9.99999e-01,9.95815e-01,9.86886e-01,9.99981e-01
1.031838492e+00,9.84137e-01,9.99999e-01,9.99999e-01,9.96959e-01,9.87143e-01,9.99994e-01
1.036997685e+00,9.85610e-01,9.99999e-01,9.99999e-01,9.98191e-01,9.87396e-01,9.99998e-01
1.042182673e+00,9.85511e-01,9.99999e-01,9.99999e-01,9.97841e-01,9.87643e-01,9.99999e-01
1.047393587e+00,9.85060e-01,9.99999e-01,9.99999e-01,9.97140e-01,9.87886e-01,9.99998e-01
1.052630555e+00,9.84245e-01,9.99999e-01,9.99999e-01,9.96075e-01,9.88123e-01,9.99998e-01
1.057893707e+00,9.81885e-01,9.99999e-01,9.99999e-01,9.93453e-01,9.88357e-01,9.99997e-01
1.063183176e+00,9.77958e-01,9.99999e-01,9.99999e-01,9.89255e-01,9.88585e-01,9.99993e-01
1.068499092e+00,9.71081e-01,9.99999e-01,9.99999e-01,9.82082e-01,9.88809e-01,9.99987e-01
1.073841587e+00,9.68301e-01,9.99999e-01,9.99999e-01,9.79067e-01,9.89029e-01,9.99972e-01
1.079210795e+00,9.62731e-01,9.99999e-01,9.99999e-01,9.73267e-01,9.89245e-01,9.99927e-01
1.084606849e+00,9.49533e-01,9.99999e-01,9.99999e-01,9.59817e-01,9.89456e-01,9.99825e-01
1.090029883e+00,9.32694e-01,9.99999e-01,9.99999e-01,9.42774e-01,9.89663e-01,9.99639e-01
1.095480033e+00,8.42693e-01,9.99999e-01,9.99999e-01,8.51874e-01,9.89866e-01,9.99348e-01
1.100957433e+00,6.60691e-01,9.99999e-01,9.99999e-01,6.68120e-01,9.90065e-01,9.98801e-01
1.106462220e+00,3.67478e-01,9.99999e-01,9.99999e-01,3.71846e-01,9.90261e-01,9.97968e-01
1.111994531e+00,1.29800e-01,9.99999e-01,9.99999e-01,1.31760e-01,9.90452e-01,9.94617e-01
1.117554504e+00,4.06329e-02,9.99999e-01,9.99999e-01,4.18238e-02,9.90640e-01,9.80704e-01
1.123142276e+00,1.07198e-01,9.99999e-01,9.99999e-01,1.13307e-01,9.90824e-01,9.54846e-01
1.128757988e+00,2.07121e-01,9.99999e-01,9.99999e-01,2.20477e-01,9.91004e-01,9.47951e-01
1.134401778e+00,9.34677e-02,9.99999e-01,9.99999e-01,9.86840e-02,9.91181e-01,9.55567e-01
1.140073787e+00,3.72565e-01,9.99999e-01,9.99999e-01,3.89712e-01,9.91355e-01,9.64337e-01
1.145774156e+00,1.51739e-01,9.99999e-01,9.99999e-01,1.58209e-01,9.91525e-01,9.67306e-01
1.151503026e+00,1.26954e-01,9.99999e-01,9.99999e-01,1.30410e-01,9.91691e-01,9.81652e-01
1.157260541e+00,1.60195e-01,9.99999e-01,9.99999e-01,1.62407e-01,9.91855e-01,9.94478e-01
1.163046844e+00,2.55377e-01,9.99999e-01,9.99999e-01,2.57836e-01,9.92015e-01,9.98431e-01
1.168862078e+00,3.76448e-01,9.99999e-01,9.99999e-01,3.79725e-01,9.92172e-01,9.99191e-01
1.174706389e+00,5.44296e-01,9.99999e-01,9.99999e-01,5.49093e-01,9.92326e-01,9.98928e-01
1.180579921e+00,6.86450e-01,9.99999e-01,9.99999e-01,6.92774e-01,9.92477e-01,9.98380e-01
1.186482820e+00,8.04159e-01,9.99999e-01,9.99999e-01,8.11481e-01,9.92625e-01,9.98337e-01
1.192415234e+00,8.77426e-01,9.99999e-01,9.99999e-01,8.84916e-01,9.92770e-01,9.98754e-01
1.198377311e+00,8.94629e-01,9.99999e-01,9.99999e-01,9.02075e-01,9.92912e-01,9.98823e-01
1.204369197e+00,9.00105e-01,9.99999e-01,9.99999e-01,9.07367e-01,9.93052e-01,9.98935e-01
1.210391043e+00,9.04293e-01,9.99999e-01,9.99999e-01,9.11084e-01,9.93189e-01,9.99352e-01
1.216442998e+00,9.17364e-01,9.99999e-01,9.99999e-01,9.23896e-01,9.93323e-01,9.99603e-01
1.222525213e+00,9.33746e-01,9.99999e-01,9.99999e-01,9.40129e-01,9.93454e-01,9.99753e-01
1.228637839e+00,9.51757e-01,9.99999e-01,9.99999e-01,9.58013e-01,9.93583e-01,9.99884e-01
