#,Wave/freq,Total,N2,O2,H2O,Rayleigh,CIA
4.000000000e-01,5.04292e-02,9.99999e-01,9.99999e-01,9.99663e-01,5.04462e-02,9.99999e-01
4.020000000e-01,5.35040e-02,9.99999e-01,9.99999e-01,9.99791e-01,5.35151e-02,9.99999e-01
4.040100000e-01,5.66962e-02,9.99999e-01,9.99999e-01,9.99911e-01,5.67012e-02,9.99999e-01
4.060300500e-01,6.00072e-02,9.99999e-01,9.99999e-01,9.99979e-01,6.00084e-02,9.99999e-01
4.080602003e-01,6.34370e-02,9.99999e-01,9.99999e-01,9.99992e-01,6.34374e-02,9.99999e-01
4.101005013e-01,6.69887e-02,9.99999e-01,9.99999e-01,9.99999e-01,6.69888e-02,9.99999e-01
4.121510038e-01,7.06620e-02,9.99999e-01,9.99999e-01,9.99987e-01,7.06629e-02,9.99999e-01
4.142117588e-01,7.44530e-02,9.99999e-01,9.99999e-01,9.99905e-01,7.44599e-02,9.99999e-01
4.162828176e-01,7.83473e-02,9.99999e-01,9.99999e-01,9.99582e-01,7.83800e-02,9.99999e-01
4.183642317e-01,8.24024e-02,9.99999e-01,9.99999e-01,9.99751e-01,8.24228e-02,9.99999e-01
4.204560528e-01,8.65749e-02,9.99999e-01,9.99999e-01,9.99848e-01,8.65881e-02,9.99999e-01
4.225583331e-01,9.08702e-02,9.99999e-01,9.99999e-01,9.99943e-01,9.08753e-02,9.99999e-01
4.246711247e-01,9.52795e-02,9.99999e-01,9.99999e-01,9.99953e-01,9.52838e-02,9.99999e-01
4.267944804e-01,9.98061e-02,9.99999e-01,9.99999e-01,9.99933e-01,9.98127e-02,9.99999e-01
4.289284528e-01,1.04456e-01,9.99999e-01,9.99999e-01,9.99947e-01,1.04461e-01,9.99999e-01
4.310730950e-01,1.09225e-01,9.99999e-01,9.99999e-01,9.99977e-01,1.09228e-01,9.99999e-01
4.332284605e-01,1.14110e-01,9.99999e-01,9.99999e-01,9.99993e-01,1.14111e-01,9.99999e-01
4.353946028e-01,1.19110e-01,9.99999e-01,9.99999e-01,9.99997e-01,1.19110e-01,9.99999e-01
4.375715758e-01,1.24217e-01,9.99999e-01,9.99999e-01,9.99957e-01,1.24223e-01,9.99999e-01
4.397594337e-01,1.29399e-01,9.99999e-01,9.99999e-01,9.99629e-01,1.29447e-01,9.99999e-01
4.419582309e-01,1.34528e-01,9.99999e-01,9.99999e-01,9.98117e-01,1.34782e-01,9.99999e-01
4.441680220e-01,1.40022e-01,9.99999e-01,9.99999e-01,9.98556e-01,1.40224e-01,9.99999e-01
4.463888621e-01,1.45552e-01,9.99999e-01,9.99999e-01,9.98489e-01,1.45772e-01,9.99999e-01
4.486208064e-01,1.51282e-01,9.99999e-01,9.99999e-01,9.99065e-01,1.51424e-01,9.99999e-01
4.508639105e-01,1.57108e-01,9.99999e-01,9.99999e-01,9.99562e-01,1.57176e-01,9.99999e-01
4.531182300e-01,1.62999e-01,9.99999e-01,9.99999e-01,9.99827e-01,1.63027e-01,9.99999e-01
4.553838212e-01,1.68954e-01,9.99999e-01,9.99999e-01,9.99882e-01,1.68974e-01,9.99999e-01
4.576607403e-01,1.75005e-01,9.99999e-01,9.99999e-01,9.99945e-01,1.75014e-01,9.99999e-01
4.599490440e-01,1.81137e-01,9.99999e-01,9.99999e-01,9.99961e-01,1.81144e-01,9.99999e-01
4.622487892e-01,1.87360e-01,9.99999e-01,9.99999e-01,9.99992e-01,1.87361e-01,9.99999e-01
4.645600332e-01,1.93658e-01,9.99999e-01,9.99999e-01,9.99972e-01,1.93663e-01,9.99999e-01
4.668828333e-01,1.99956e-01,9.99999e-01,9.99999e-01,9.99553e-01,2.00046e-01,9.99999e-01
4.692172475e-01,2.06311e-01,9.99999e-01,9.99999e-01,9.99052e-01,2.06506e-01,9.99999e-01
4.715633337e-01,2.12910e-01,9.99999e-01,9.99999e-01,9.99379e-01,2.13042e-01,9.99999e-01
4.739211504e-01,2.19519e-01,9.99999e-01,9.99999e-01,9.99408e-01,2.19649e-01,9.99999e-01
4.762907561e-01,2.26256e-01,9.99999e-01,9.99999e-01,9.99693e-01,2.26325e-01,9.99999e-01
4.786722099e-01,2.33036e-01,9.99999e-01,9.99999e-01,9.99874e-01,2.33065e-01,9.99999e-01
4.810655710e-01,2.39859e-01,9.99999e-01,9.99999e-01,9.99961e-01,2.39868e-01,9.99999e-01
4.834708988e-01,2.46637e-01,9.99999e-01,9.99999e-01,9.99629e-01,2.46728e-01,9.99999e-01
4.858882533e-01,2.53474e-01,9.99999e-01,9.99999e-01,9.99330e-01,2.53644e-01,9.99999e-01
4.883176946e-01,2.60464e-01,9.99999e-01,9.99999e-01,9.99436e-01,2.60611e-01,9.99999e-01
4.907592831e-01,2.67490e-01,9.99999e-01,9.99999e-01,9.99493e-01,2.67626e-01,9.99999e-01
4.932130795e-01,2.74586e-01,9.99999e-01,9.99999e-01,9.99640e-01,2.74685e-01,9.99999e-01
4.956791449e-01,2.81733e-01,9.99999e-01,9.99999e-01,9.99809e-01,2.81786e-01,9.99999e-01
4.981575406e-01,2.88649e-01,9.99999e-01,9.99999e-01,9.99044e-01,2.88925e-01,9.99999e-01
5.006483283e-01,2.95357e-01,9.99999e-01,9.99999e-01,9.97512e-01,2.96098e-01,9.99982e-01
5.031515699e-01,2.99489e-01,9.99999e-01,9.99999e-01,9.87554e-01,3.03303e-01,9.99868e-01
5.056673278e-01,3.08446e-01,9.99999e-01,9.99999e-01,9.93421e-01,3.10535e-01,9.99849e-01
5.081956644e-01,3.15128e-01,9.99999e-01,9.99999e-01,9.91707e-01,3.17792e-01,9.99908e-01
5.107366428e-01,3.23244e-01,9.99999e-01,9.99999e-01,9.94399e-01,3.25070e-01,9.99983e-01
5.132903260e-01,3.31302e-01,9.99999e-01,9.99999e-01,9.96800e-01,3.32366e-01,9.99997e-01
5.158567776e-01,3.39218e-01,9.99999e-01,9.99999e-01,9.98649e-01,3.39676e-01,9.99999e-01
5.184360615e-01,3.46811e-01,9.99999e-01,9.99999e-01,9.99458e-01,3.46999e-01,9.99999e-01
5.210282418e-01,3.54258e-01,9.99999e-01,9.99999e-01,9.99796e-01,3.54330e-01,9.99999e-01
5.236333830e-01,3.61369e-01,9.99999e-01,9.99999e-01,9.99183e-01,3.61666e-01,9.99993e-01
5.262515499e-01,3.68814e-01,9.99999e-01,9.99999e-01,9.99489e-01,3.69005e-01,9.99991e-01
5.288828077e-01,3.76165e-01,9.99999e-01,9.99999e-01,9.99529e-01,3.76344e-01,9.99994e-01
5.315272217e-01,3.83521e-01,9.99999e-01,9.99999e-01,9.99590e-01,3.83679e-01,9.99998e-01
5.341848578e-01,3.90902e-01,9.99999e-01,9.99999e-01,9.99729e-01,3.91008e-01,9.99999e-01
5.368557821e-01,3.97947e-01,9.99999e-01,9.99999e-01,9.99045e-01,3.98328e-01,9.99997e-01
5.395400610e-01,4.04222e-01,9.99999e-01,9.99999e-01,9.96543e-01,4.05637e-01,9.99967e-01
5.422377613e-01,4.11075e-01,9.99999e-01,9.99999e-01,9.95585e-01,4.12931e-01,9.99918e-01
5.449489501e-01,4.18438e-01,9.99999e-01,9.99999e-01,9.95869e-01,4.20208e-01,9.99916e-01
5.476736949e-01,4.25897e-01,9.99999e-01,9.99999e-01,9.96367e-01,4.27467e-01,9.99958e-01
5.504120634e-01,4.33552e-01,9.99999e-01,9.99999e-01,9.97361e-01,4.34703e-01,9.99988e-01
5.531641237e-01,4.41329e-01,9.99999e-01,9.99999e-01,9.98672e-01,4.41916e-01,9.99997e-01
5.559299443e-01,4.48814e-01,9.99999e-01,9.99999e-01,9.99359e-01,4.49102e-01,9.99999e-01
5.587095940e-01,4.56076e-01,9.99999e-01,9.99999e-01,9.99596e-01,4.56259e-01,9.99999e-01
5.615031420e-01,4.63178e-01,9.99999e-01,9.99999e-01,9.99550e-01,4.63386e-01,9.99998e-01
5.643106577e-01,4.70237e-01,9.99999e-01,9.99999e-01,9.99484e-01,4.70481e-01,9.99995e-01
5.671322110e-01,4.74529e-01,9.99999e-01,9.99999e-01,9.93748e-01,4.77540e-01,9.99944e-01
5.699678720e-01,4.81328e-01,9.99999e-01,9.99999e-01,9.93490e-01,4.84563e-01,9.99831e-01
5.728177114e-01,4.88112e-01,9.99999e-01,9.99999e-01,9.93150e-01,4.91547e-01,9.99859e-01
5.756818000e-01,4.95323e-01,9.99999e-01,9.99999e-01,9.93724e-01,4.98491e-01,9.99918e-01
5.785602090e-01,5.02622e-01,9.99999e-01,9.99999e-01,9.94539e-01,5.05393e-01,9.99976e-01
5.814530100e-01,5.09431e-01,9.99999e-01,9.99999e-01,9.94504e-01,5.12252e-01,9.99987e-01
5.843602750e-01,5.15630e-01,9.99999e-01,9.99999e-01,9.93418e-01,5.19065e-01,9.99963e-01
5.872820764e-01,4.96837e-01,9.99999e-01,9.99999e-01,9.45233e-01,5.25832e-01,9.99602e-01
5.902184868e-01,4.96822e-01,9.99999e-01,9.99999e-01,9.33919e-01,5.32551e-01,9.98918e-01
5.931695792e-01,5.13346e-01,9.99999e-01,9.99999e-01,9.53006e-01,5.39220e-01,9.98959e-01
5.961354271e-01,5.17413e-01,9.99999e-01,9.99999e-01,9.48489e-01,5.45839e-01,9.99401e-01
5.991161043e-01,5.31378e-01,9.99999e-01,9.99999e-01,9.62111e-01,5.52406e-01,9.99814e-01
6.021116848e-01,5.46802e-01,9.99999e-01,9.99999e-01,9.78340e-01,5.58919e-01,9.99979e-01
6.051222432e-01,5.59150e-01,9.99999e-01,9.99999e-01,9.88983e-01,5.65379e-01,9.99998e-01
6.081478544e-01,5.69056e-01,9.99999e-01,9.99999e-01,9.95229e-01,5.71783e-01,9.99999e-01
6.111885937e-01,5.76967e-01,9.99999e-01,9.99999e-01,9.97984e-01,5.78132e-01,9.99999e-01
6.142445367e-01,5.83896e-01,9.99999e-01,9.99999e-01,9.99097e-01,5.84423e-01,9.99999e-01
6.173157594e-01,5.90363e-01,9.99999e-01,9.99999e-01,9.99501e-01,5.90656e-01,9.99999e-01
6.204023382e-01,5.96579e-01,9.99999e-01,9.99999e-01,9.99576e-01,5.96831e-01,9.99999e-01
6.235043498e-01,6.01808e-01,9.99999e-01,9.99999e-01,9.98114e-01,6.02947e-01,9.99994e-01
6.266218716e-01,6.02981e-01,9.99999e-01,9.99999e-01,9.90180e-01,6.09003e-01,9.99930e-01
6.297549810e-01,6.12692e-01,9.99999e-01,9.99999e-01,9.96387e-01,6.14998e-01,9.99861e-01
6.329037559e-01,6.16445e-01,9.99999e-01,9.99999e-01,9.92884e-01,6.20932e-01,9.99888e-01
6.360682746e-01,6.22950e-01,9.99999e-01,9.99999e-01,9.93916e-01,6.26804e-01,9.99934e-01
6.392486160e-01,6.27621e-01,9.99999e-01,9.99999e-01,9.92135e-01,6.32614e-01,9.99970e-01
6.424448591e-01,6.31580e-01,9.99999e-01,9.99999e-01,9.89427e-01,6.38362e-01,9.99947e-01
6.456570834e-01,6.12966e-01,9.99999e-01,9.99999e-01,9.52023e-01,6.44046e-01,9.99703e-01
6.488853688e-01,6.26465e-01,9.99999e-01,9.99999e-01,9.65016e-01,6.49668e-01,9.99240e-01
6.521297956e-01,6.31533e-01,9.99999e-01,9.99999e-01,9.64443e-01,6.55226e-01,9.99373e-01
6.553904446e-01,6.36778e-01,9.99999e-01,9.99999e-01,9.64211e-01,6.60721e-01,9.99533e-01
6.586673968e-01,6.45701e-01,9.99999e-01,9.99999e-01,9.69450e-01,6.66152e-01,9.99843e-01
6.619607338e-01,6.59962e-01,9.99999e-01,9.99999e-01,9.82823e-01,6.71518e-01,9.99966e-01
6.652705375e-01,6.69806e-01,9.99999e-01,9.99999e-01,9.89650e-01,6.76821e-01,9.99982e-01
6.685968902e-01,6.79052e-01,9.99999e-01,9.99999e-01,9.95592e-01,6.82060e-01,9.99996e-01
6.719398746e-01,6.85700e-01,9.99999e-01,9.99999e-01,9.97766e-01,6.87235e-01,9.99999e-01
6.752995740e-01,6.91528e-01,9.99999e-01,9.99999e-01,9.98820e-01,6.92345e-01,9.99999e-01
6.786760719e-01,6.96157e-01,9.99999e-01,9.99999e-01,9.98232e-01,6.97391e-01,9.99997e-01
6.820694522e-01,7.00250e-01,9.99999e-01,9.99999e-01,9.96991e-01,7.02374e-01,9.99983e-01
6.854797995e-01,7.04523e-01,9.99999e-01,9.99999e-01,9.96117e-01,7.07292e-01,9.99966e-01
6.889071985e-01,7.05359e-01,9.99999e-01,9.99999e-01,9.90551e-01,7.12147e-01,9.99915e-01
6.923517345e-01,6.15406e-01,9.99999e-01,9.99999e-01,8.59010e-01,7.16938e-01,9.99266e-01
6.958134932e-01,6.66794e-01,9.99999e-01,9.99999e-01,9.25467e-01,7.21666e-01,9.98375e-01
6.992925606e-01,6.72425e-01,9.99999e-01,9.99999e-01,9.27139e-01,7.26331e-01,9.98536e-01
7.027890234e-01,6.65367e-01,9.99999e-01,9.99999e-01,9.11315e-01,7.30933e-01,9.98881e-01
7.063029686e-01,6.79595e-01,9.99999e-01,9.99999e-01,9.24539e-01,7.35472e-01,9.99443e-01
7.098344834e-01,6.85990e-01,9.99999e-01,9.99999e-01,9.27381e-01,7.39949e-01,9.99670e-01
7.133836558e-01,6.73010e-01,9.99999e-01,9.99999e-01,9.04732e-01,7.44364e-01,9.99345e-01
7.169505741e-01,3.57415e-01,9.99999e-01,9.99999e-01,4.79833e-01,7.48718e-01,9.94864e-01
7.205353270e-01,5.16369e-01,9.99999e-01,9.99999e-01,6.91996e-01,7.53010e-01,9.90956e-01
7.241380036e-01,4.66071e-01,9.99999e-01,9.99999e-01,6.20332e-01,7.57241e-01,9.92186e-01
7.277586936e-01,4.92447e-01,9.99999e-01,9.99999e-01,6.50915e-01,7.61412e-01,9.93608e-01
7.313974871e-01,4.79906e-01,9.99999e-01,9.99999e-01,6.28785e-01,7.65522e-01,9.97001e-01
7.350544745e-01,5.94301e-01,9.99999e-01,9.99999e-01,7.73053e-01,7.69573e-01,9.98956e-01
7.387297469e-01,6.38456e-01,9.99999e-01,9.99999e-01,8.25737e-01,7.73565e-01,9.99521e-01
7.424233956e-01,7.07612e-01,9.99999e-01,9.99999e-01,9.10189e-01,7.77498e-01,9.99916e-01
7.461355126e-01,7.37917e-01,9.99999e-01,9.99999e-01,9.44398e-01,7.81372e-01,9.99985e-01
7.498661902e-01,7.64576e-01,9.99999e-01,9.99999e-01,9.73751e-01,7.85189e-01,9.99993e-01
7.536155211e-01,7.78690e-01,9.99999e-01,9.99999e-01,9.86999e-01,7.88949e-01,9.99996e-01
7.573835987e-01,7.87332e-01,9.99999e-01,9.99999e-01,9.93288e-01,7.92652e-01,9.99998e-01
7.611705167e-01,7.92974e-01,9.99999e-01,9.99999e-01,9.95824e-01,7.96298e-01,9.99999e-01
7.649763693e-01,7.97793e-01,9.99999e-01,9.99999e-01,9.97378e-01,7.99889e-01,9.99999e-01
7.688012511e-01,8.01956e-01,9.99999e-01,9.99999e-01,9.98172e-01,8.03425e-01,9.99999e-01
7.726452574e-01,8.05691e-01,9.99999e-01,9.99999e-01,9.98494e-01,8.06906e-01,9.99998e-01
7.765084837e-01,8.08587e-01,9.99999e-01,9.99999e-01,9.97848e-01,8.10332e-01,9.99996e-01
7.803910261e-01,8.06151e-01,9.99999e-01,9.99999e-01,9.90723e-01,8.13706e-01,9.99990e-01
7.842929812e-01,7.90878e-01,9.99999e-01,9.99999e-01,9.68052e-01,8.17026e-01,9.99940e-01
7.882144461e-01,7.67165e-01,9.99999e-01,9.99999e-01,9.35658e-01,8.20294e-01,9.99543e-01
7.921555184e-01,7.93549e-01,9.99999e-01,9.99999e-01,9.64382e-01,8.23510e-01,9.99207e-01
7.961162960e-01,7.74407e-01,9.99999e-01,9.99999e-01,9.37479e-01,8.26674e-01,9.99245e-01
8.000968774e-01,7.69485e-01,9.99999e-01,9.99999e-01,9.28070e-01,8.29788e-01,9.99197e-01
8.040973618e-01,7.72497e-01,9.99999e-01,9.99999e-01,9.28100e-01,8.32852e-01,9.99387e-01
8.081178486e-01,7.07422e-01,9.99999e-01,9.99999e-01,8.46858e-01,8.35866e-01,9.99379e-01
8.121584379e-01,4.31376e-01,9.99999e-01,9.99999e-01,5.15467e-01,8.38832e-01,9.97652e-01
8.162192301e-01,3.86269e-01,9.99999e-01,9.99999e-01,4.62962e-01,8.41749e-01,9.91200e-01
8.203003262e-01,5.81338e-01,9.99999e-01,9.99999e-01,6.95444e-01,8.44618e-01,9.89704e-01
8.244018279e-01,5.23659e-01,9.99999e-01,9.99999e-01,6.23040e-01,8.47440e-01,9.91797e-01
8.285238370e-01,5.24059e-01,9.99999e-01,9.99999e-01,6.20383e-01,8.50215e-01,9.93552e-01
8.326664562e-01,5.28154e-01,9.99999e-01,9.99999e-01,6.20870e-01,8.52945e-01,9.97328e-01
8.368297885e-01,6.02458e-01,9.99999e-01,9.99999e-01,7.04541e-01,8.55629e-01,9.99388e-01
8.410139374e-01,6.95528e-01,9.99999e-01,9.99999e-01,8.10674e-01,8.58268e-01,9.99642e-01
8.452190071e-01,7.75985e-01,9.99999e-01,9.99999e-01,9.01595e-01,8.60863e-01,9.99786e-01
8.494451021e-01,8.12588e-01,9.99999e-01,9.99999e-01,9.41293e-01,8.63414e-01,9.99828e-01
8.536923276e-01,8.35482e-01,9.99999e-01,9.99999e-01,9.64946e-01,8.65922e-01,9.99895e-01
8.579607893e-01,8.49443e-01,9.99999e-01,9.99999e-01,9.78207e-01,8.68388e-01,9.99974e-01
8.622505932e-01,8.58726e-01,9.99999e-01,9.99999e-01,9.86124e-01,8.70812e-01,9.99995e-01
8.665618462e-01,8.65658e-01,9.99999e-01,9.99999e-01,9.91370e-01,8.73195e-01,9.99997e-01
8.708946554e-01,8.66870e-01,9.99999e-01,9.99999e-01,9.90106e-01,8.75537e-01,9.99994e-01
8.752491287e-01,8.66232e-01,9.99999e-01,9.99999e-01,9.86792e-01,8.77838e-01,9.99985e-01
8.796253743e-01,8.63975e-01,9.99999e-01,9.99999e-01,9.81717e-01,8.80100e-01,9.99958e-01
8.840235012e-01,8.63837e-01,9.99999e-01,9.99999e-01,9.79171e-01,8.82323e-01,9.99871e-01
8.884436187e-01,8.19732e-01,9.99999e-01,9.99999e-01,9.27102e-01,8.84508e-01,9.99636e-01
8.928858368e-01,4.23826e-01,9.99999e-01,9.99999e-01,4.79009e-01,8.86655e-01,9.97904e-01
8.973502660e-01,2.46744e-01,9.99999e-01,9.99999e-01,2.80627e-01,8.88764e-01,9.89305e-01
9.018370173e-01,4.59345e-01,9.99999e-01,9.99999e-01,5.24424e-01,8.90837e-01,9.83236e-01
9.063462024e-01,4.89186e-01,9.99999e-01,9.99999e-01,5.56074e-01,8.92873e-01,9.85259e-01
9.108779334e-01,3.55616e-01,9.99999e-01,9.99999e-01,4.03571e-01,8.94874e-01,9.84687e-01
9.154323231e-01,3.09089e-01,9.99999e-01,9.99999e-01,3.49066e-01,8.96839e-01,9.87326e-01
9.200094847e-01,3.97760e-01,9.99999e-01,9.99999e-01,4.45731e-01,8.98770e-01,9.92886e-01
9.246095321e-01,2.78907e-01,9.99999e-01,9.99999e-01,3.12224e-01,9.00667e-01,9.91808e-01
9.292325798e-01,6.97969e-03,9.99999e-01,9.99999e-01,8.04676e-03,9.02530e-01,9.61064e-01
9.338787427e-01,2.65814e-04,9.99999e-01,9.99999e-01,3.39296e-04,9.04360e-01,8.66275e-01
9.385481364e-01,2.86755e-02,9.99999e-01,9.99999e-01,3.70513e-02,9.06157e-01,8.54090e-01
9.432408771e-01,1.13738e-02,9.99999e-01,9.99999e-01,1.43532e-02,9.07923e-01,8.72785e-01
9.479570815e-01,1.12849e-03,9.99999e-01,9.99999e-01,1.38584e-03,9.09657e-01,8.95172e-01
9.526968669e-01,4.75887e-03,9.99999e-01,9.99999e-01,5.58660e-03,9.11360e-01,9.34686e-01
9.574603512e-01,6.61961e-03,9.99999e-01,9.99999e-01,7.50319e-03,9.13032e-01,9.66272e-01
9.622476530e-01,1.51435e-02,9.99999e-01,9.99999e-01,1.69536e-02,9.14675e-01,9.76554e-01
9.670588912e-01,7.92758e-02,9.99999e-01,9.99999e-01,8.79335e-02,9.16287e-01,9.83906e-01
9.718941857e-01,1.59213e-01,9.99999e-01,9.99999e-01,1.75543e-01,9.17871e-01,9.88127e-01
9.767536566e-01,2.13641e-01,9.99999e-01,9.99999e-01,2.34493e-01,9.19426e-01,9.90914e-01
9.816374249e-01,3.03185e-01,9.99999e-01,9.99999e-01,3.30249e-01,9.20953e-01,9.96846e-01
9.865456120e-01,4.55261e-01,9.99999e-01,9.99999e-01,4.93858e-01,9.22452e-01,9.99342e-01
9.914783401e-01,5.93421e-01,9.99999e-01,9.99999e-01,6.42400e-01,9.23924e-01,9.99817e-01
9.964357318e-01,7.26720e-01,9.99999e-01,9.99999e-01,7.85413e-01,9.25369e-01,9.99892e-01
1.001417910e+00,8.01271e-01,9.99999e-01,9.99999e-01,8.64707e-01,9.26788e-01,9.99836e-01
1.006425000e+00,8.53859e-01,9.99999e-01,9.99999e-01,9.20140e-01,9.28181e-01,9.99767e-01
1.011457125e+00,8.82658e-01,9.99999e-01,9.99999e-01,9.49760e-01,9.29548e-01,9.99784e-01
1.016514411e+00,8.98687e-01,9.99999e-01,9.99999e-01,9.65551e-01,9.30890e-01,9.99847e-01
1.021596983e+00,9.06379e-01,9.99999e-01,9.99999e-01,9.72437e-01,9.32208e-01,9.99850e-01
1.026704968e+00,9.13275e-01,9.99999e-01,9.99999e-01,9.78423e-01,9.33502e-01,9.99905e-01
1.031838492e+00,9.20071e-01,9.99999e-01,9.99999e-01,9.84300e-01,9.34771e-01,9.99971e-01
1.036997685e+00,9.27243e-01,9.99999e-01,9.99999e-01,9.90629e-01,9.36018e-01,9.99995e-01
1.042182673e+00,9.26747e-01,9.99999e-01,9.99999e-01,9.88804e-01,9.37241e-01,9.99997e-01
1.047393587e+00,9.24552e-01,9.99999e-01,9.99999e-01,9.85201e-01,9.38442e-01,9.99996e-01
1.052630555e+00,9.20572e-01,9.99999e-01,9.99999e-01,9.79732e-01,9.39620e-01,9.99994e-01
1.057893707e+00,9.09141e-01,9.99999e-01,9.99999e-01,9.66383e-01,9.40777e-01,9.99987e-01
1.063183176e+00,8.90496e-01,9.99999e-01,9.99999e-01,9.45440e-01,9.41912e-01,9.99970e-01
1.068499092e+00,8.58692e-01,9.99999e-01,9.99999e-01,9.10627e-01,9.43026e-01,9.99936e-01
1.073841587e+00,8.46576e-01,9.99999e-01,9.99999e-01,8.96807e-01,9.44119e-01,9.99861e-01
1.079210795e+00,8.21551e-01,9.99999e-01,9.99999e-01,8.69515e-01,9.45192e-01,9.99624e-01
1.084606849e+00,7.65918e-01,9.99999e-01,9.99999e-01,8.10160e-01,9.46245e-01,9.99096e-01
1.090029883e+00,7.00680e-01,9.99999e-01,9.99999e-01,7.41063e-01,9.47278e-01,9.98128e-01
1.095480033e+00,4.21146e-01,9.99999e-01,9.99999e-01,4.45616e-01,9.48292e-01,9.96617e-01
1.100957433e+00,1.38677e-01,9.99999e-01,9.99999e-01,1.46999e-01,9.49287e-01,9.93783e-01
1.106462220e+00,1.42425e-02,9.99999e-01,9.99999e-01,1.51473e-02,9.50263e-01,9.89477e-01
1.111994531e+00,1.71471e-04,9.99999e-01,9.99999e-01,1.85398e-04,9.51222e-01,9.72308e-01
1.117554504e+00,4.51556e-06,9.99999e-01,9.99999e-01,5.24847e-06,9.52162e-01,9.03581e-01
1.123142276e+00,2.63610e-04,9.99999e-01,9.99999e-01,3.51763e-04,9.53084e-01,7.86285e-01
1.128757988e+00,1.11270e-03,9.99999e-01,9.99999e-01,1.54040e-03,9.53989e-01,7.57186e-01
1.134401778e+00,1.14061e-03,9.99999e-01,9.99999e-01,1.51322e-03,9.54877e-01,7.89379e-01
1.140073787e+00,1.06067e-02,9.99999e-01,9.99999e-01,1.34062e-02,9.55748e-01,8.27813e-01
1.145774156e+00,8.74181e-04,9.99999e-01,9.99999e-01,1.08640e-03,9.56603e-01,8.41161e-01
1.151503026e+00,2.36699e-04,9.99999e-01,9.99999e-01,2.72227e-04,9.57442e-01,9.08137e-01
1.157260541e+00,2.39536e-04,9.99999e-01,9.99999e-01,2.57275e-04,9.58265e-01,9.71600e-01
1.163046844e+00,2.09469e-03,9.99999e-01,9.99999e-01,2.20199e-03,9.59072e-01,9.91867e-01
1.168862078e+00,1.10733e-02,9.99999e-01,9.99999e-01,1.15850e-02,9.59864e-01,9.95802e-01
1.174706389e+00,5.42637e-02,9.99999e-01,9.99999e-01,5.68027e-02,9.60641e-01,9.94439e-01
1.180579921e+00,1.58282e-01,9.99999e-01,9.99999e-01,1.66030e-01,9.61403e-01,9.91603e-01
1.186482820e+00,3.30258e-01,9.99999e-01,9.99999e-01,3.46233e-01,9.62151e-01,9.91382e-01
1.192415234e+00,5.09501e-01,9.99999e-01,9.99999e-01,5.32581e-01,9.62884e-01,9.93539e-01
1.198377311e+00,5.63656e-01,9.99999e-01,9.99999e-01,5.88538e-01,9.63604e-01,9.93896e-01
1.204369197e+00,5.86197e-01,9.99999e-01,9.99999e-01,6.11269e-01,9.64310e-01,9.94476e-01
1.210391043e+00,5.97489e-01,9.99999e-01,9.99999e-01,6.21247e-01,9.65002e-01,9.96636e-01
1.216442998e+00,6.43213e-01,9.99999e-01,9.99999e-01,6.67447e-01,9.65681e-01,9.97938e-01
1.222525213e+00,7.01905e-01,9.99999e-01,9.99999e-01,7.27278e-01,9.66348e-01,9.98718e-01
1.228637839e+00,7.74042e-01,9.99999e-01,9.99999e-01,8.00932e-01,9.67001e-01,9.99403e-01
