#,Wave/freq,Total,N2,O2,H2O,Rayleigh,CIA
4.000000000e-01,1.31668e-02,9.99999e-01,9.99999e-01,9.99511e-01,1.31732e-02,9.99999e-01
4.020000000e-01,1.43463e-02,9.99999e-01,9.99999e-01,9.99696e-01,1.43506e-02,9.99999e-01
4.040100000e-01,1.56035e-02,9.99999e-01,9.99999e-01,9.99870e-01,1.56055e-02,9.99999e-01
4.060300500e-01,1.69415e-02,9.99999e-01,9.99999e-01,9.99969e-01,1.69420e-02,9.99999e-01
4.080602003e-01,1.83630e-02,9.99999e-01,9.99999e-01,9.99990e-01,1.83632e-02,9.99999e-01
4.101005013e-01,1.98719e-02,9.99999e-01,9.99999e-01,9.99998e-01,1.98719e-02,9.99999e-01
4.121510038e-01,2.14706e-02,9.99999e-01,9.99999e-01,9.99981e-01,2.14710e-02,9.99999e-01
4.142117588e-01,2.31603e-02,9.99999e-01,9.99999e-01,9.99866e-01,2.31634e-02,9.99999e-01
4.162828176e-01,2.49367e-02,9.99999e-01,9.99999e-01,9.99394e-01,2.49518e-02,9.99999e-01
4.183642317e-01,2.68291e-02,9.99999e-01,9.99999e-01,9.99639e-01,2.68388e-02,9.99999e-01
4.204560528e-01,2.88206e-02,9.99999e-01,9.99999e-01,9.99778e-01,2.88270e-02,9.99999e-01
4.225583331e-01,3.09162e-02,9.99999e-01,9.99999e-01,9.99916e-01,3.09187e-02,9.99999e-01
4.246711247e-01,3.31143e-02,9.99999e-01,9.99999e-01,9.99934e-01,3.31164e-02,9.99999e-01
4.267944804e-01,3.54188e-02,9.99999e-01,9.99999e-01,9.99902e-01,3.54223e-02,9.99999e-01
4.289284528e-01,3.78355e-02,9.99999e-01,9.99999e-01,9.99924e-01,3.78383e-02,9.99999e-01
4.310730950e-01,4.03652e-02,9.99999e-01,9.99999e-01,9.99967e-01,4.03665e-02,9.99999e-01
4.332284605e-01,4.30083e-02,9.99999e-01,9.99999e-01,9.99991e-01,4.30086e-02,9.99999e-01
4.353946028e-01,4.57662e-02,9.99999e-01,9.99999e-01,9.99996e-01,4.57664e-02,9.99999e-01
4.375715758e-01,4.86383e-02,9.99999e-01,9.99999e-01,9.99940e-01,4.86411e-02,9.99999e-01
4.397594337e-01,5.16072e-02,9.99999e-01,9.99999e-01,9.99473e-01,5.16344e-02,9.99999e-01
4.419582309e-01,5.46010e-02,9.99999e-01,9.99999e-01,9.97329e-01,5.47471e-02,9.99999e-01
4.441680220e-01,5.78580e-02,9.99999e-01,9.99999e-01,9.97887e-01,5.79805e-02,9.99999e-01
4.463888621e-01,6.12010e-02,9.99999e-01,9.99999e-01,9.97810e-01,6.13352e-02,9.99999e-01
4.486208064e-01,6.47237e-02,9.99999e-01,9.99999e-01,9.98635e-01,6.48121e-02,9.99999e-01
4.508639105e-01,6.83678e-02,9.99999e-01,9.99999e-01,9.99361e-01,6.84114e-02,9.99999e-01
4.531182300e-01,7.21154e-02,9.99999e-01,9.99999e-01,9.99747e-01,7.21336e-02,9.99999e-01
4.553838212e-01,7.59658e-02,9.99999e-01,9.99999e-01,9.99828e-01,7.59788e-02,9.99999e-01
4.576607403e-01,7.99406e-02,9.99999e-01,9.99999e-01,9.99920e-01,7.99468e-02,9.99999e-01
4.599490440e-01,8.40329e-02,9.99999e-01,9.99999e-01,9.99943e-01,8.40376e-02,9.99999e-01
4.622487892e-01,8.82498e-02,9.99999e-01,9.99999e-01,9.99989e-01,8.82507e-02,9.99999e-01
4.645600332e-01,9.25819e-02,9.99999e-01,9.99999e-01,9.99961e-01,9.25854e-02,9.99999e-01
4.668828333e-01,9.69790e-02,9.99999e-01,9.99999e-01,9.99358e-01,9.70412e-02,9.99999e-01
4.692172475e-01,1.01477e-01,9.99999e-01,9.99999e-01,9.98625e-01,1.01617e-01,9.99999e-01
4.715633337e-01,1.06216e-01,9.99999e-01,9.99999e-01,9.99102e-01,1.06312e-01,9.99999e-01
4.739211504e-01,1.11029e-01,9.99999e-01,9.99999e-01,9.99138e-01,1.11124e-01,9.99999e-01
4.762907561e-01,1.16001e-01,9.99999e-01,9.99999e-01,9.99552e-01,1.16053e-01,9.99999e-01
4.786722099e-01,1.21074e-01,9.99999e-01,9.99999e-01,9.99817e-01,1.21096e-01,9.99999e-01
4.810655710e-01,1.26246e-01,9.99999e-01,9.99999e-01,9.99944e-01,1.26253e-01,9.99999e-01
4.834708988e-01,1.31453e-01,9.99999e-01,9.99999e-01,9.99480e-01,1.31521e-01,9.99999e-01
4.858882533e-01,1.36764e-01,9.99999e-01,9.99999e-01,9.99024e-01,1.36898e-01,9.99999e-01
4.883176946e-01,1.42266e-01,9.99999e-01,9.99999e-01,9.99187e-01,1.42382e-01,9.99999e-01
4.907592831e-01,1.47862e-01,9.99999e-01,9.99999e-01,9.99262e-01,1.47971e-01,9.99999e-01
4.932130795e-01,1.53582e-01,9.99999e-01,9.99999e-01,9.99477e-01,1.53662e-01,9.99999e-01
4.956791449e-01,1.59410e-01,9.99999e-01,9.99999e-01,9.99723e-01,1.59454e-01,9.99999e-01
4.981575406e-01,1.65115e-01,9.99999e-01,9.99999e-01,9.98623e-01,1.65343e-01,9.99999e-01
5.006483283e-01,1.70714e-01,9.99999e-01,9.99999e-01,9.96448e-01,1.71326e-01,9.99975e-01
5.031515699e-01,1.74191e-01,9.99999e-01,9.99999e-01,9.82088e-01,1.77401e-01,9.99809e-01
5.056673278e-01,1.81776e-01,9.99999e-01,9.99999e-01,9.90465e-01,1.83566e-01,9.99782e-01
5.081956644e-01,1.87508e-01,9.99999e-01,9.99999e-01,9.87975e-01,1.89817e-01,9.99859e-01
5.107366428e-01,1.94550e-01,9.99999e-01,9.99999e-01,9.91868e-01,1.96150e-01,9.99973e-01
5.132903260e-01,2.01620e-01,9.99999e-01,9.99999e-01,9.95340e-01,2.02564e-01,9.99996e-01
5.158567776e-01,2.08642e-01,9.99999e-01,9.99999e-01,9.98028e-01,2.09054e-01,9.99999e-01
5.184360615e-01,2.15448e-01,9.99999e-01,9.99999e-01,9.99211e-01,2.15618e-01,9.99999e-01
5.210282418e-01,2.22187e-01,9.99999e-01,9.99999e-01,9.99705e-01,2.22253e-01,9.99999e-01
5.236333830e-01,2.28682e-01,9.99999e-01,9.99999e-01,9.98818e-01,2.28954e-01,9.99991e-01
5.262515499e-01,2.35542e-01,9.99999e-01,9.99999e-01,9.99259e-01,2.35719e-01,9.99988e-01
5.288828077e-01,2.42379e-01,9.99999e-01,9.99999e-01,9.99322e-01,2.42545e-01,9.99992e-01
5.315272217e-01,2.49278e-01,9.99999e-01,9.99999e-01,9.99401e-01,2.49427e-01,9.99997e-01
5.341848578e-01,2.56263e-01,9.99999e-01,9.99999e-01,9.99610e-01,2.56363e-01,9.99999e-01
5.368557821e-01,2.62987e-01,9.99999e-01,9.99999e-01,9.98628e-01,2.63349e-01,9.99996e-01
5.395400610e-01,2.69040e-01,9.99999e-01,9.99999e-01,9.95074e-01,2.70382e-01,9.99958e-01
5.422377613e-01,2.75646e-01,9.99999e-01,9.99999e-01,9.93583e-01,2.77458e-01,9.99883e-01
5.449489501e-01,2.82849e-01,9.99999e-01,9.99999e-01,9.94055e-01,2.84574e-01,9.99879e-01
5.476736949e-01,2.90167e-01,9.99999e-01,9.99999e-01,9.94710e-01,2.91727e-01,9.99940e-01
5.504120634e-01,2.97761e-01,9.99999e-01,9.99999e-01,9.96160e-01,2.98913e-01,9.99983e-01
5.531641237e-01,3.05537e-01,9.99999e-01,9.99999e-01,9.98067e-01,3.06129e-01,9.99997e-01
5.559299443e-01,3.13079e-01,9.99999e-01,9.99999e-01,9.99066e-01,3.13371e-01,9.99999e-01
5.587095940e-01,3.20449e-01,9.99999e-01,9.99999e-01,9.99416e-01,3.20636e-01,9.99999e-01
5.615031420e-01,3.27708e-01,9.99999e-01,9.99999e-01,9.99349e-01,3.27922e-01,9.99998e-01
5.643106577e-01,3.34977e-01,9.99999e-01,9.99999e-01,9.99268e-01,3.35224e-01,9.99993e-01
5.671322110e-01,3.39498e-01,9.99999e-01,9.99999e-01,9.91197e-01,3.42540e-01,9.99920e-01
5.699678720e-01,3.46449e-01,9.99999e-01,9.99999e-01,9.90475e-01,3.49866e-01,9.99756e-01
5.728177114e-01,3.53599e-01,9.99999e-01,9.99999e-01,9.90120e-01,3.57199e-01,9.99796e-01
5.756818000e-01,3.61182e-01,9.99999e-01,9.99999e-01,9.90918e-01,3.64537e-01,9.99875e-01
5.785602090e-01,3.68916e-01,9.99999e-01,9.99999e-01,9.92076e-01,3.71876e-01,9.99962e-01
5.814530100e-01,3.76193e-01,9.99999e-01,9.99999e-01,9.92051e-01,3.79214e-01,9.99982e-01
5.843602750e-01,3.82888e-01,9.99999e-01,9.99999e-01,9.90586e-01,3.86547e-01,9.99946e-01
5.872820764e-01,3.63256e-01,9.99999e-01,9.99999e-01,9.22797e-01,3.93873e-01,9.99425e-01
5.902184868e-01,3.62735e-01,9.99999e-01,9.99999e-01,9.05567e-01,4.01189e-01,9.98435e-01
5.931695792e-01,3.80536e-01,9.99999e-01,9.99999e-01,9.32984e-01,4.08492e-01,9.98476e-01
5.961354271e-01,3.84772e-01,9.99999e-01,9.99999e-01,9.26273e-01,4.15780e-01,9.99079e-01
5.991161043e-01,3.99867e-01,9.99999e-01,9.99999e-01,9.45451e-01,4.23050e-01,9.99731e-01
6.021116848e-01,4.16793e-01,9.99999e-01,9.99999e-01,9.68641e-01,4.30300e-01,9.99966e-01
6.051222432e-01,4.30526e-01,9.99999e-01,9.99999e-01,9.83998e-01,4.37528e-01,9.99997e-01
6.081478544e-01,4.41649e-01,9.99999e-01,9.99999e-01,9.93071e-01,4.44730e-01,9.99999e-01
6.111885937e-01,4.50577e-01,9.99999e-01,9.99999e-01,9.97059e-01,4.51905e-01,9.99999e-01
6.142445367e-01,4.58449e-01,9.99999e-01,9.99999e-01,9.98687e-01,4.59051e-01,9.99999e-01
6.173157594e-01,4.65828e-01,9.99999e-01,9.99999e-01,9.99276e-01,4.66166e-01,9.99999e-01
6.204023382e-01,4.72957e-01,9.99999e-01,9.99999e-01,9.99389e-01,4.73246e-01,9.99998e-01
6.235043498e-01,4.79008e-01,9.99999e-01,9.99999e-01,9.97332e-01,4.80292e-01,9.99992e-01
6.266218716e-01,4.80343e-01,9.99999e-01,9.99999e-01,9.85822e-01,4.87300e-01,9.99899e-01
6.297549810e-01,4.91590e-01,9.99999e-01,9.99999e-01,9.94778e-01,4.94269e-01,9.99799e-01
6.329037559e-01,4.95942e-01,9.99999e-01,9.99999e-01,9.89674e-01,5.01196e-01,9.99839e-01
6.360682746e-01,5.03577e-01,9.99999e-01,9.99999e-01,9.91226e-01,5.08082e-01,9.99904e-01
6.392486160e-01,5.09045e-01,9.99999e-01,9.99999e-01,9.88626e-01,5.14923e-01,9.99957e-01
6.424448591e-01,5.13806e-01,9.99999e-01,9.99999e-01,9.84899e-01,5.21718e-01,9.99932e-01
6.456570834e-01,4.92405e-01,9.99999e-01,9.99999e-01,9.32128e-01,5.28466e-01,9.99607e-01
6.488853688e-01,5.07679e-01,9.99999e-01,9.99999e-01,9.49681e-01,5.35166e-01,9.98901e-01
6.521297956e-01,5.13665e-01,9.99999e-01,9.99999e-01,9.48918e-01,5.41815e-01,9.99078e-01
6.553904446e-01,5.20064e-01,9.99999e-01,9.99999e-01,9.48960e-01,5.48414e-01,9.99308e-01
6.586673968e-01,5.30404e-01,9.99999e-01,9.99999e-01,9.55966e-01,5.54960e-01,9.99774e-01
6.619607338e-01,5.46950e-01,9.99999e-01,9.99999e-01,9.74216e-01,5.61453e-01,9.99951e-01
6.652705375e-01,5.59334e-01,9.99999e-01,9.99999e-01,9.84956e-01,5.67891e-01,9.99975e-01
6.685968902e-01,5.70244e-01,9.99999e-01,9.99999e-01,9.92987e-01,5.74273e-01,9.99995e-01
6.719398746e-01,5.78708e-01,9.99999e-01,9.99999e-01,9.96742e-01,5.80600e-01,9.99999e-01
6.752995740e-01,5.85835e-01,9.99999e-01,9.99999e-01,9.98239e-01,5.86868e-01,9.99998e-01
6.786760719e-01,5.91574e-01,9.99999e-01,9.99999e-01,9.97465e-01,5.93079e-01,9.99996e-01
6.820694522e-01,5.96613e-01,9.99999e-01,9.99999e-01,9.95653e-01,5.99231e-01,9.99977e-01
6.854797995e-01,6.01903e-01,9.99999e-01,9.99999e-01,9.94398e-01,6.05323e-01,9.99951e-01
6.889071985e-01,6.03135e-01,9.99999e-01,9.99999e-01,9.86673e-01,6.11355e-01,9.99878e-01
6.923517345e-01,4.96749e-01,9.99999e-01,9.99999e-01,8.05532e-01,6.17326e-01,9.98938e-01
6.958134932e-01,5.55145e-01,9.99999e-01,9.99999e-01,8.92884e-01,6.23236e-01,9.97604e-01
6.992925606e-01,5.63368e-01,9.99999e-01,9.99999e-01,8.97427e-01,6.29084e-01,9.97892e-01
7.027890234e-01,5.54167e-01,9.99999e-01,9.99999e-01,8.74296e-01,6.34870e-01,9.98382e-01
7.063029686e-01,5.71349e-01,9.99999e-01,9.99999e-01,8.92625e-01,6.40593e-01,9.99194e-01
7.098344834e-01,5.79110e-01,9.99999e-01,9.99999e-01,8.96530e-01,6.46253e-01,9.99523e-01
7.133836558e-01,5.65050e-01,9.99999e-01,9.99999e-01,8.67661e-01,6.51850e-01,9.99053e-01
7.169505741e-01,2.39793e-01,9.99999e-01,9.99999e-01,3.67498e-01,6.57383e-01,9.92574e-01
7.205353270e-01,3.86446e-01,9.99999e-01,9.99999e-01,5.90721e-01,6.62853e-01,9.86935e-01
7.241380036e-01,3.37438e-01,9.99999e-01,9.99999e-01,5.10717e-01,6.68259e-01,9.88708e-01
7.277586936e-01,3.64550e-01,9.99999e-01,9.99999e-01,5.46242e-01,6.73600e-01,9.90760e-01
7.313974871e-01,3.47716e-01,9.99999e-01,9.99999e-01,5.14422e-01,6.78878e-01,9.95661e-01
7.350544745e-01,4.71676e-01,9.99999e-01,9.99999e-01,6.90534e-01,6.84092e-01,9.98490e-01
7.387297469e-01,5.22062e-01,9.99999e-01,9.99999e-01,7.57969e-01,6.89241e-01,9.99307e-01
7.424233956e-01,6.05351e-01,9.99999e-01,9.99999e-01,8.71969e-01,6.94327e-01,9.99866e-01
7.461355126e-01,6.43498e-01,9.99999e-01,9.99999e-01,9.20160e-01,6.99348e-01,9.99976e-01
7.498661902e-01,6.77456e-01,9.99999e-01,9.99999e-01,9.61885e-01,7.04305e-01,9.99991e-01
7.536155211e-01,6.95814e-01,9.99999e-01,9.99999e-01,9.81130e-01,7.09199e-01,9.99994e-01
7.573835987e-01,7.07059e-01,9.99999e-01,9.99999e-01,9.90238e-01,7.14029e-01,9.99998e-01
7.611705167e-01,7.14429e-01,9.99999e-01,9.99999e-01,9.93925e-01,7.18795e-01,9.99999e-01
7.649763693e-01,7.20744e-01,9.99999e-01,9.99999e-01,9.96192e-01,7.23499e-01,9.99999e-01
7.688012511e-01,7.26208e-01,9.99999e-01,9.99999e-01,9.97348e-01,7.28139e-01,9.99999e-01
7.726452574e-01,7.31117e-01,9.99999e-01,9.99999e-01,9.97818e-01,7.32716e-01,9.99998e-01
7.765084837e-01,7.34954e-01,9.99999e-01,9.99999e-01,9.96913e-01,7.37231e-01,9.99995e-01
7.803910261e-01,7.31845e-01,9.99999e-01,9.99999e-01,9.86746e-01,7.41684e-01,9.99986e-01
7.842929812e-01,7.12178e-01,9.99999e-01,9.99999e-01,9.54648e-01,7.46074e-01,9.99913e-01
7.882144461e-01,6.81178e-01,9.99999e-01,9.99999e-01,9.08283e-01,7.50404e-01,9.99410e-01
7.921555184e-01,7.15046e-01,9.99999e-01,9.99999e-01,9.48572e-01,7.54672e-01,9.98860e-01
7.961162960e-01,6.91126e-01,9.99999e-01,9.99999e-01,9.11713e-01,7.58880e-01,9.98908e-01
8.000968774e-01,6.84094e-01,9.99999e-01,9.99999e-01,8.97595e-01,7.63027e-01,9.98838e-01
8.040973618e-01,6.88161e-01,9.99999e-01,9.99999e-01,8.97905e-01,7.67114e-01,9.99077e-01
8.081178486e-01,6.08518e-01,9.99999e-01,9.99999e-01,7.89795e-01,7.71142e-01,9.99134e-01
8.121584379e-01,3.06492e-01,9.99999e-01,9.99999e-01,3.96764e-01,7.75110e-01,9.96603e-01
8.162192301e-01,2.59655e-01,9.99999e-01,9.99999e-01,3.37601e-01,7.79020e-01,9.87287e-01
8.203003262e-01,4.67161e-01,9.99999e-01,9.99999e-01,6.05732e-01,7.82872e-01,9.85130e-01
8.244018279e-01,4.04733e-01,9.99999e-01,9.99999e-01,5.20661e-01,7.86667e-01,9.88147e-01
8.285238370e-01,3.98140e-01,9.99999e-01,9.99999e-01,5.08455e-01,7.90404e-01,9.90679e-01
8.326664562e-01,4.01861e-01,9.99999e-01,9.99999e-01,5.08031e-01,7.94085e-01,9.96135e-01
8.368297885e-01,4.81398e-01,9.99999e-01,9.99999e-01,6.04009e-01,7.97710e-01,9.99115e-01
8.410139374e-01,5.91126e-01,9.99999e-01,9.99999e-01,7.38109e-01,8.01279e-01,9.99482e-01
8.452190071e-01,6.92025e-01,9.99999e-01,9.99999e-01,8.60144e-01,8.04793e-01,9.99690e-01
8.494451021e-01,7.40180e-01,9.99999e-01,9.99999e-01,9.16005e-01,8.08253e-01,9.99751e-01
8.536923276e-01,7.70419e-01,9.99999e-01,9.99999e-01,9.49346e-01,8.11658e-01,9.99835e-01
8.579607893e-01,7.89326e-01,9.99999e-01,9.99999e-01,9.68527e-01,8.15011e-01,9.99955e-01
8.622505932e-01,8.01824e-01,9.99999e-01,9.99999e-01,9.79859e-01,8.18310e-01,9.99993e-01
8.665618462e-01,8.11301e-01,9.99999e-01,9.99999e-01,9.87518e-01,8.21558e-01,9.99995e-01
8.708946554e-01,8.12984e-01,9.99999e-01,9.99999e-01,9.85736e-01,8.24754e-01,9.99991e-01
8.752491287e-01,8.12109e-01,9.99999e-01,9.99999e-01,9.80947e-01,8.27898e-01,9.99979e-01
8.796253743e-01,8.09154e-01,9.99999e-01,9.99999e-01,9.73776e-01,8.30993e-01,9.99940e-01
8.840235012e-01,8.08966e-01,9.99999e-01,9.99999e-01,9.70118e-01,8.34037e-01,9.99814e-01
8.884436187e-01,7.52852e-01,9.99999e-01,9.99999e-01,8.99903e-01,8.37032e-01,9.99473e-01
8.928858368e-01,3.06594e-01,9.99999e-01,9.99999e-01,3.66112e-01,8.39978e-01,9.96967e-01
8.973502660e-01,1.42157e-01,9.99999e-01,9.99999e-01,1.71302e-01,8.42877e-01,9.84555e-01
9.018370173e-01,3.33483e-01,9.99999e-01,9.99999e-01,4.04084e-01,8.45727e-01,9.75824e-01
9.063462024e-01,3.69684e-01,9.99999e-01,9.99999e-01,4.45142e-01,8.48531e-01,9.78731e-01
9.108779334e-01,2.35775e-01,9.99999e-01,9.99999e-01,2.83218e-01,8.51288e-01,9.77909e-01
9.154323231e-01,1.90936e-01,9.99999e-01,9.99999e-01,2.27744e-01,8.54000e-01,9.81705e-01
9.200094847e-01,2.73308e-01,9.99999e-01,9.99999e-01,3.22350e-01,8.56666e-01,9.89719e-01
9.246095321e-01,1.71179e-01,9.99999e-01,9.99999e-01,2.01596e-01,8.59288e-01,9.88163e-01
9.292325798e-01,2.18578e-03,9.99999e-01,9.99999e-01,2.65665e-03,8.61866e-01,9.54625e-01
9.338787427e-01,1.71291e-05,9.99999e-01,9.99999e-01,2.40098e-05,8.64400e-01,8.25333e-01
9.385481364e-01,8.00682e-03,9.99999e-01,9.99999e-01,1.16052e-02,8.66892e-01,7.95871e-01
9.432408771e-01,2.79004e-03,9.99999e-01,9.99999e-01,3.90808e-03,8.69341e-01,8.21212e-01
9.479570815e-01,8.88328e-05,9.99999e-01,9.99999e-01,1.19620e-04,8.71749e-01,8.51879e-01
9.526968669e-01,6.12222e-04,9.99999e-01,9.99999e-01,7.72332e-04,8.74116e-01,9.06849e-01
9.574603512e-01,1.04349e-03,9.99999e-01,9.99999e-01,1.25122e-03,8.76442e-01,9.51545e-01
9.622476530e-01,3.37774e-03,9.99999e-01,9.99999e-01,3.97820e-03,8.78728e-01,9.66239e-01
9.670588912e-01,3.21226e-02,9.99999e-01,9.99999e-01,3.73290e-02,8.80975e-01,9.76786e-01
9.718941857e-01,7.52925e-02,9.99999e-01,9.99999e-01,8.67380e-02,8.83183e-01,9.82858e-01
9.767536566e-01,1.14259e-01,9.99999e-01,9.99999e-01,1.30771e-01,8.85352e-01,9.86873e-01
9.816374249e-01,1.82066e-01,9.99999e-01,9.99999e-01,2.06088e-01,8.87484e-01,9.95438e-01
9.865456120e-01,3.22226e-01,9.99999e-01,9.99999e-01,3.62568e-01,8.89579e-01,9.99047e-01
9.914783401e-01,4.70239e-01,9.99999e-01,9.99999e-01,5.27526e-01,8.91638e-01,9.99735e-01
9.964357318e-01,6.29866e-01,9.99999e-01,9.99999e-01,7.04924e-01,8.93660e-01,9.99845e-01
1.001417910e+00,7.25125e-01,9.99999e-01,9.99999e-01,8.09800e-01,8.95647e-01,9.99763e-01
1.006425000e+00,7.95332e-01,9.99999e-01,9.99999e-01,8.86363e-01,8.97599e-01,9.99663e-01
1.011457125e+00,8.34290e-01,9.99999e-01,9.99999e-01,9.27775e-01,8.99516e-01,9.99688e-01
1.016514411e+00,8.56471e-01,9.99999e-01,9.99999e-01,9.50365e-01,9.01400e-01,9.99779e-01
1.021596983e+00,8.67163e-01,9.99999e-01,9.99999e-01,9.60259e-01,9.03250e-01,9.99778e-01
1.026704968e+00,8.76757e-01,9.99999e-01,9.99999e-01,9.68863e-01,9.05067e-01,9.99851e-01
1.031838492e+00,8.86189e-01,9.99999e-01,9.99999e-01,9.77253e-01,9.06852e-01,9.99958e-01
1.036997685e+00,8.96281e-01,9.99999e-01,9.99999e-01,9.86441e-01,9.08605e-01,9.99993e-01
1.042182673e+00,8.95656e-01,9.99999e-01,9.99999e-01,9.83886e-01,9.10327e-01,9.99996e-01
1.047393587e+00,8.92555e-01,9.99999e-01,9.99999e-01,9.78663e-01,9.12018e-01,9.99995e-01
1.052630555e+00,8.87056e-01,9.99999e-01,9.99999e-01,9.70870e-01,9.13678e-01,9.99991e-01
1.057893707e+00,8.71316e-01,9.99999e-01,9.99999e-01,9.51952e-01,9.15309e-01,9.99982e-01
1.063183176e+00,8.45690e-01,9.99999e-01,9.99999e-01,9.22364e-01,9.16910e-01,9.99957e-01
1.068499092e+00,8.02466e-01,9.99999e-01,9.99999e-01,8.73766e-01,9.18483e-01,9.99908e-01
1.073841587e+00,7.86929e-01,9.99999e-01,9.99999e-01,8.55503e-01,9.20027e-01,9.99799e-01
1.079210795e+00,7.52874e-01,9.99999e-01,9.99999e-01,8.17414e-01,9.21543e-01,9.99456e-01
1.084606849e+00,6.81620e-01,9.99999e-01,9.99999e-01,7.39424e-01,9.23031e-01,9.98692e-01
1.090029883e+00,6.03187e-01,9.99999e-01,9.99999e-01,6.54223e-01,9.24492e-01,9.97292e-01
1.095480033e+00,2.94247e-01,9.99999e-01,9.99999e-01,3.19349e-01,9.25927e-01,9.95107e-01
1.100957433e+00,6.61801e-02,9.99999e-01,9.99999e-01,7.20129e-02,9.27336e-01,9.91013e-01
1.106462220e+00,3.44678e-03,9.99999e-01,9.99999e-01,3.76860e-03,9.28719e-01,9.84803e-01
1.111994531e+00,6.93512e-06,9.99999e-01,9.99999e-01,7.76587e-06,9.30076e-01,9.60162e-01
1.117554504e+00,7.03929e-08,9.99999e-01,9.99999e-01,8.75247e-08,9.31409e-01,8.63489e-01
1.123142276e+00,1.66426e-05,9.99999e-01,9.99999e-01,2.52715e-05,9.32717e-01,7.06054e-01
1.128757988e+00,8.36221e-05,9.99999e-01,9.99999e-01,1.33919e-04,9.34001e-01,6.68544e-01
1.134401778e+00,1.42445e-04,9.99999e-01,9.99999e-01,2.14489e-04,9.35262e-01,7.10080e-01
1.140073787e+00,1.74264e-03,9.99999e-01,9.99999e-01,2.44626e-03,9.36499e-01,7.60670e-01
1.145774156e+00,1.03123e-04,9.99999e-01,9.99999e-01,1.41264e-04,9.37713e-01,7.78489e-01
1.151503026e+00,1.29023e-05,9.99999e-01,9.99999e-01,1.57989e-05,9.38905e-01,8.69799e-01
1.157260541e+00,8.68599e-06,9.99999e-01,9.99999e-01,9.63318e-06,9.40075e-01,9.59150e-01
1.163046844e+00,1.84820e-04,9.99999e-01,9.99999e-01,1.98696e-04,9.41223e-01,9.88248e-01
1.168862078e+00,2.07207e-03,9.99999e-01,9.99999e-01,2.21226e-03,9.42350e-01,9.93929e-01
1.174706389e+00,1.69687e-02,9.99999e-01,9.99999e-01,1.81314e-02,9.43456e-01,9.91960e-01
1.180579921e+00,7.38394e-02,9.99999e-01,9.99999e-01,7.91348e-02,9.44541e-01,9.87867e-01
1.186482820e+00,2.03860e-01,9.99999e-01,9.99999e-01,2.18304e-01,9.45606e-01,9.87549e-01
1.192415234e+00,3.77902e-01,9.99999e-01,9.99999e-01,4.02961e-01,9.46651e-01,9.90661e-01
1.198377311e+00,4.38277e-01,9.99999e-01,9.99999e-01,4.66592e-01,9.47677e-01,9.91176e-01
1.204369197e+00,4.65962e-01,9.99999e-01,9.99999e-01,4.95121e-01,9.48684e-01,9.92013e-01
1.210391043e+00,4.77169e-01,9.99999e-01,9.99999e-01,5.04913e-01,9.49671e-01,9.95134e-01
1.216442998e+00,5.29668e-01,9.99999e-01,9.99999e-01,5.58836e-01,9.50640e-01,9.97017e-01
1.222525213e+00,5.99538e-01,9.99999e-01,9.99999e-01,6.31206e-01,9.51591e-01,9.98146e-01
1.228637839e+00,6.90452e-01,9.99999e-01,9.99999e-01,7.25491e-01,9.52524e-01,9.99137e-01
