#,Wave/freq,Total,N2,O2,H2O,Rayleigh,CIA
4.000000000e-01,6.52788e-01,9.99999e-01,9.99999e-01,9.99951e-01,6.52819e-01,9.99999e-01
4.020000000e-01,6.58328e-01,9.99999e-01,9.99999e-01,9.99969e-01,6.58348e-01,9.99999e-01
4.040100000e-01,6.63798e-01,9.99999e-01,9.99999e-01,9.99986e-01,6.63806e-01,9.99999e-01
4.060300500e-01,6.69199e-01,9.99999e-01,9.99999e-01,9.99996e-01,6.69201e-01,9.99999e-01
4.080602003e-01,6.74530e-01,9.99999e-01,9.99999e-01,9.99998e-01,6.74531e-01,9.99999e-01
4.101005013e-01,6.79798e-01,9.99999e-01,9.99999e-01,9.99999e-01,6.79798e-01,9.99999e-01
4.121510038e-01,6.84999e-01,9.99999e-01,9.99999e-01,9.99997e-01,6.85000e-01,9.99999e-01
4.142117588e-01,6.90129e-01,9.99999e-01,9.99999e-01,9.99986e-01,6.90138e-01,9.99999e-01
4.162828176e-01,6.95171e-01,9.99999e-01,9.99999e-01,9.99939e-01,6.95212e-01,9.99999e-01
4.183642317e-01,7.00198e-01,9.99999e-01,9.99999e-01,9.99964e-01,7.00222e-01,9.99999e-01
4.204560528e-01,7.05153e-01,9.99999e-01,9.99999e-01,9.99977e-01,7.05169e-01,9.99999e-01
4.225583331e-01,7.10045e-01,9.99999e-01,9.99999e-01,9.99991e-01,7.10051e-01,9.99999e-01
4.246711247e-01,7.14865e-01,9.99999e-01,9.99999e-01,9.99993e-01,7.14870e-01,9.99999e-01
4.267944804e-01,7.19618e-01,9.99999e-01,9.99999e-01,9.99989e-01,7.19625e-01,9.99999e-01
4.289284528e-01,7.24312e-01,9.99999e-01,9.99999e-01,9.99992e-01,7.24317e-01,9.99999e-01
4.310730950e-01,7.28944e-01,9.99999e-01,9.99999e-01,9.99996e-01,7.28946e-01,9.99999e-01
4.332284605e-01,7.33512e-01,9.99999e-01,9.99999e-01,9.99998e-01,7.33513e-01,9.99999e-01
4.353946028e-01,7.38016e-01,9.99999e-01,9.99999e-01,9.99999e-01,7.38017e-01,9.99999e-01
4.375715758e-01,7.42454e-01,9.99999e-01,9.99999e-01,9.99993e-01,7.42458e-01,9.99999e-01
4.397594337e-01,7.46800e-01,9.99999e-01,9.99999e-01,9.99947e-01,7.46839e-01,9.99999e-01
4.419582309e-01,7.50960e-01,9.99999e-01,9.99999e-01,9.99737e-01,7.51157e-01,9.99999e-01
4.441680220e-01,7.55257e-01,9.99999e-01,9.99999e-01,9.99790e-01,7.55415e-01,9.99999e-01
4.463888621e-01,7.59448e-01,9.99999e-01,9.99999e-01,9.99783e-01,7.59612e-01,9.99999e-01
4.486208064e-01,7.63645e-01,9.99999e-01,9.99999e-01,9.99864e-01,7.63748e-01,9.99999e-01
4.508639105e-01,7.67776e-01,9.99999e-01,9.99999e-01,9.99936e-01,7.67825e-01,9.99999e-01
4.531182300e-01,7.71823e-01,9.99999e-01,9.99999e-01,9.99974e-01,7.71842e-01,9.99999e-01
4.553838212e-01,7.75788e-01,9.99999e-01,9.99999e-01,9.99982e-01,7.75801e-01,9.99999e-01
4.576607403e-01,7.79694e-01,9.99999e-01,9.99999e-01,9.99991e-01,7.79700e-01,9.99999e-01
4.599490440e-01,7.83538e-01,9.99999e-01,9.99999e-01,9.99993e-01,7.83542e-01,9.99999e-01
4.622487892e-01,7.87326e-01,9.99999e-01,9.99999e-01,9.99998e-01,7.87327e-01,9.99999e-01
4.645600332e-01,7.91051e-01,9.99999e-01,9.99999e-01,9.99995e-01,7.91054e-01,9.99999e-01
4.668828333e-01,7.94675e-01,9.99999e-01,9.99999e-01,9.99936e-01,7.94725e-01,9.99999e-01
4.692172475e-01,7.98232e-01,9.99999e-01,9.99999e-01,9.99864e-01,7.98340e-01,9.99999e-01
4.715633337e-01,8.01828e-01,9.99999e-01,9.99999e-01,9.99911e-01,8.01899e-01,9.99999e-01
4.739211504e-01,8.05335e-01,9.99999e-01,9.99999e-01,9.99914e-01,8.05404e-01,9.99999e-01
4.762907561e-01,8.08818e-01,9.99999e-01,9.99999e-01,9.99955e-01,8.08854e-01,9.99999e-01
4.786722099e-01,8.12236e-01,9.99999e-01,9.99999e-01,9.99981e-01,8.12250e-01,9.99999e-01
4.810655710e-01,8.15589e-01,9.99999e-01,9.99999e-01,9.99994e-01,8.15594e-01,9.99999e-01
4.834708988e-01,8.18842e-01,9.99999e-01,9.99999e-01,9.99948e-01,8.18884e-01,9.99999e-01
4.858882533e-01,8.22043e-01,9.99999e-01,9.99999e-01,9.99903e-01,8.22122e-01,9.99999e-01
4.883176946e-01,8.25243e-01,9.99999e-01,9.99999e-01,9.99919e-01,8.25309e-01,9.99999e-01
4.907592831e-01,8.28385e-01,9.99999e-01,9.99999e-01,9.99926e-01,8.28445e-01,9.99999e-01
4.932130795e-01,8.31488e-01,9.99999e-01,9.99999e-01,9.99947e-01,8.31530e-01,9.99999e-01
4.956791449e-01,8.34543e-01,9.99999e-01,9.99999e-01,9.99972e-01,8.34566e-01,9.99999e-01
4.981575406e-01,8.37439e-01,9.99999e-01,9.99999e-01,9.99863e-01,8.37553e-01,9.99999e-01
5.006483283e-01,8.40195e-01,9.99999e-01,9.99999e-01,9.99650e-01,8.40490e-01,9.99997e-01
5.031515699e-01,8.41860e-01,9.99999e-01,9.99999e-01,9.98215e-01,8.43380e-01,9.99980e-01
5.056673278e-01,8.45405e-01,9.99999e-01,9.99999e-01,9.99054e-01,8.46223e-01,9.99978e-01
5.081956644e-01,8.47994e-01,9.99999e-01,9.99999e-01,9.98807e-01,8.49018e-01,9.99985e-01
5.107366428e-01,8.51079e-01,9.99999e-01,9.99999e-01,9.99193e-01,8.51767e-01,9.99996e-01
5.132903260e-01,8.54077e-01,9.99999e-01,9.99999e-01,9.99538e-01,8.54471e-01,9.99999e-01
5.158567776e-01,8.56963e-01,9.99999e-01,9.99999e-01,9.99804e-01,8.57130e-01,9.99999e-01
5.184360615e-01,8.59677e-01,9.99999e-01,9.99999e-01,9.99921e-01,8.59744e-01,9.99999e-01
5.210282418e-01,8.62289e-01,9.99999e-01,9.99999e-01,9.99970e-01,8.62314e-01,9.99999e-01
5.236333830e-01,8.64739e-01,9.99999e-01,9.99999e-01,9.99883e-01,8.64841e-01,9.99998e-01
5.262515499e-01,8.67261e-01,9.99999e-01,9.99999e-01,9.99926e-01,8.67325e-01,9.99998e-01
5.288828077e-01,8.69708e-01,9.99999e-01,9.99999e-01,9.99932e-01,8.69767e-01,9.99998e-01
5.315272217e-01,8.72116e-01,9.99999e-01,9.99999e-01,9.99940e-01,8.72167e-01,9.99999e-01
5.341848578e-01,8.74493e-01,9.99999e-01,9.99999e-01,9.99961e-01,8.74527e-01,9.99999e-01
5.368557821e-01,8.76727e-01,9.99999e-01,9.99999e-01,9.99864e-01,8.76846e-01,9.99999e-01
5.395400610e-01,8.78695e-01,9.99999e-01,9.99999e-01,9.99514e-01,8.79125e-01,9.99995e-01
5.422377613e-01,8.80796e-01,9.99999e-01,9.99999e-01,9.99365e-01,8.81365e-01,9.99988e-01
5.449489501e-01,8.83038e-01,9.99999e-01,9.99999e-01,9.99413e-01,8.83566e-01,9.99987e-01
5.476736949e-01,8.85261e-01,9.99999e-01,9.99999e-01,9.99476e-01,8.85729e-01,9.99993e-01
5.504120634e-01,8.87516e-01,9.99999e-01,9.99999e-01,9.99620e-01,8.87855e-01,9.99997e-01
5.531641237e-01,8.89773e-01,9.99999e-01,9.99999e-01,9.99808e-01,8.89943e-01,9.99999e-01
5.559299443e-01,8.91913e-01,9.99999e-01,9.99999e-01,9.99907e-01,8.91995e-01,9.99999e-01
5.587095940e-01,8.93960e-01,9.99999e-01,9.99999e-01,9.99941e-01,8.94011e-01,9.99999e-01
5.615031420e-01,8.95934e-01,9.99999e-01,9.99999e-01,9.99935e-01,8.95992e-01,9.99999e-01
5.643106577e-01,8.97872e-01,9.99999e-01,9.99999e-01,9.99927e-01,8.97937e-01,9.99998e-01
5.671322110e-01,8.99060e-01,9.99999e-01,9.99999e-01,9.99130e-01,8.99849e-01,9.99991e-01
5.699678720e-01,9.00851e-01,9.99999e-01,9.99999e-01,9.99052e-01,9.01727e-01,9.99975e-01
5.728177114e-01,9.02670e-01,9.99999e-01,9.99999e-01,9.99022e-01,9.03571e-01,9.99979e-01
5.756818000e-01,9.04558e-01,9.99999e-01,9.99999e-01,9.99101e-01,9.05382e-01,9.99987e-01
5.785602090e-01,9.06447e-01,9.99999e-01,9.99999e-01,9.99214e-01,9.07162e-01,9.99995e-01
5.814530100e-01,9.08193e-01,9.99999e-01,9.99999e-01,9.99213e-01,9.08909e-01,9.99997e-01
5.843602750e-01,9.09774e-01,9.99999e-01,9.99999e-01,9.99069e-01,9.10626e-01,9.99994e-01
5.872820764e-01,9.04955e-01,9.99999e-01,9.99999e-01,9.91993e-01,9.12311e-01,9.99942e-01
5.902184868e-01,9.04890e-01,9.99999e-01,9.99999e-01,9.90221e-01,9.13966e-01,9.99844e-01
5.931695792e-01,9.09142e-01,9.99999e-01,9.99999e-01,9.93104e-01,9.15592e-01,9.99848e-01
5.961354271e-01,9.10160e-01,9.99999e-01,9.99999e-01,9.92426e-01,9.17188e-01,9.99908e-01
5.991161043e-01,9.13647e-01,9.99999e-01,9.99999e-01,9.94465e-01,9.18756e-01,9.99973e-01
6.021116848e-01,9.17396e-01,9.99999e-01,9.99999e-01,9.96853e-01,9.20295e-01,9.99996e-01
6.051222432e-01,9.20337e-01,9.99999e-01,9.99999e-01,9.98406e-01,9.21806e-01,9.99999e-01
6.081478544e-01,9.22655e-01,9.99999e-01,9.99999e-01,9.99312e-01,9.23289e-01,9.99999e-01
6.111885937e-01,9.24477e-01,9.99999e-01,9.99999e-01,9.99708e-01,9.24746e-01,9.99999e-01
6.142445367e-01,9.26056e-01,9.99999e-01,9.99999e-01,9.99869e-01,9.26176e-01,9.99999e-01
6.173157594e-01,9.27514e-01,9.99999e-01,9.99999e-01,9.99927e-01,9.27580e-01,9.99999e-01
6.204023382e-01,9.28903e-01,9.99999e-01,9.99999e-01,9.99939e-01,9.28959e-01,9.99999e-01
6.235043498e-01,9.30067e-01,9.99999e-01,9.99999e-01,9.99737e-01,9.30312e-01,9.99998e-01
6.266218716e-01,9.30320e-01,9.99999e-01,9.99999e-01,9.98591e-01,9.31640e-01,9.99989e-01
6.297549810e-01,9.32444e-01,9.99999e-01,9.99999e-01,9.99483e-01,9.32944e-01,9.99979e-01
6.329037559e-01,9.33253e-01,9.99999e-01,9.99999e-01,9.98976e-01,9.34224e-01,9.99983e-01
6.360682746e-01,9.34660e-01,9.99999e-01,9.99999e-01,9.99131e-01,9.35480e-01,9.99990e-01
6.392486160e-01,9.35654e-01,9.99999e-01,9.99999e-01,9.98872e-01,9.36714e-01,9.99995e-01
6.424448591e-01,9.36514e-01,9.99999e-01,9.99999e-01,9.98502e-01,9.37924e-01,9.99992e-01
6.456570834e-01,9.32561e-01,9.99999e-01,9.99999e-01,9.93062e-01,9.39112e-01,9.99960e-01
6.488853688e-01,9.34523e-01,9.99999e-01,9.99999e-01,9.93986e-01,9.40278e-01,9.99890e-01
6.521297956e-01,9.36416e-01,9.99999e-01,9.99999e-01,9.94772e-01,9.41422e-01,9.99908e-01
6.553904446e-01,9.37614e-01,9.99999e-01,9.99999e-01,9.94835e-01,9.42546e-01,9.99931e-01
6.586673968e-01,9.39416e-01,9.99999e-01,9.99999e-01,9.95537e-01,9.43648e-01,9.99977e-01
6.619607338e-01,9.42287e-01,9.99999e-01,9.99999e-01,9.97418e-01,9.44729e-01,9.99994e-01
6.652705375e-01,9.44372e-01,9.99999e-01,9.99999e-01,9.98501e-01,9.45791e-01,9.99997e-01
6.685968902e-01,9.46174e-01,9.99999e-01,9.99999e-01,9.99304e-01,9.46833e-01,9.99999e-01
6.719398746e-01,9.47549e-01,9.99999e-01,9.99999e-01,9.99676e-01,9.47855e-01,9.99999e-01
6.752995740e-01,9.48693e-01,9.99999e-01,9.99999e-01,9.99825e-01,9.48858e-01,9.99999e-01
6.786760719e-01,9.49605e-01,9.99999e-01,9.99999e-01,9.99749e-01,9.49843e-01,9.99999e-01
6.820694522e-01,9.50399e-01,9.99999e-01,9.99999e-01,9.99570e-01,9.50809e-01,9.99997e-01
6.854797995e-01,9.51226e-01,9.99999e-01,9.99999e-01,9.99446e-01,9.51756e-01,9.99994e-01
6.889071985e-01,9.51417e-01,9.99999e-01,9.99999e-01,9.98678e-01,9.52686e-01,9.99987e-01
6.923517345e-01,9.32926e-01,9.99999e-01,9.99999e-01,9.78423e-01,9.53599e-01,9.99894e-01
6.958134932e-01,9.43324e-01,9.99999e-01,9.99999e-01,9.88530e-01,9.54494e-01,9.99762e-01
6.992925606e-01,9.44932e-01,9.99999e-01,9.99999e-01,9.89277e-01,9.55373e-01,9.99791e-01
7.027890234e-01,9.43352e-01,9.99999e-01,9.99999e-01,9.86684e-01,9.56235e-01,9.99839e-01
7.063029686e-01,9.46287e-01,9.99999e-01,9.99999e-01,9.88800e-01,9.57080e-01,9.99919e-01
7.098344834e-01,9.47569e-01,9.99999e-01,9.99999e-01,9.89251e-01,9.57910e-01,9.99952e-01
7.133836558e-01,9.45088e-01,9.99999e-01,9.99999e-01,9.85868e-01,9.58724e-01,9.99906e-01
7.169505741e-01,8.55100e-01,9.99999e-01,9.99999e-01,8.91828e-01,9.59522e-01,9.99263e-01
7.205353270e-01,9.05907e-01,9.99999e-01,9.99999e-01,9.44578e-01,9.60306e-01,9.98701e-01
7.241380036e-01,8.93705e-01,9.99999e-01,9.99999e-01,9.30945e-01,9.61074e-01,9.98878e-01
7.277586936e-01,9.00822e-01,9.99999e-01,9.99999e-01,9.37431e-01,9.61828e-01,9.99083e-01
7.313974871e-01,8.97818e-01,9.99999e-01,9.99999e-01,9.33131e-01,9.62568e-01,9.99570e-01
7.350544745e-01,9.27452e-01,9.99999e-01,9.99999e-01,9.62935e-01,9.63294e-01,9.99850e-01
7.387297469e-01,9.37483e-01,9.99999e-01,9.99999e-01,9.72553e-01,9.64005e-01,9.99931e-01
7.424233956e-01,9.51616e-01,9.99999e-01,9.99999e-01,9.86446e-01,9.64704e-01,9.99986e-01
7.461355126e-01,9.57449e-01,9.99999e-01,9.99999e-01,9.91777e-01,9.65389e-01,9.99997e-01
7.498661902e-01,9.62346e-01,9.99999e-01,9.99999e-01,9.96155e-01,9.66061e-01,9.99998e-01
7.536155211e-01,9.64900e-01,9.99999e-01,9.99999e-01,9.98117e-01,9.66720e-01,9.99999e-01
7.573835987e-01,9.66428e-01,9.99999e-01,9.99999e-01,9.99029e-01,9.67366e-01,9.99999e-01
7.611705167e-01,9.67417e-01,9.99999e-01,9.99999e-01,9.99397e-01,9.68000e-01,9.99999e-01
7.649763693e-01,9.68257e-01,9.99999e-01,9.99999e-01,9.99622e-01,9.68622e-01,9.99999e-01
7.688012511e-01,9.68978e-01,9.99999e-01,9.99999e-01,9.99737e-01,9.69233e-01,9.99999e-01
7.726452574e-01,9.69622e-01,9.99999e-01,9.99999e-01,9.99783e-01,9.69831e-01,9.99999e-01
7.765084837e-01,9.70122e-01,9.99999e-01,9.99999e-01,9.99695e-01,9.70418e-01,9.99999e-01
7.803910261e-01,9.69717e-01,9.99999e-01,9.99999e-01,9.98685e-01,9.70994e-01,9.99998e-01
7.842929812e-01,9.67101e-01,9.99999e-01,9.99999e-01,9.95419e-01,9.71558e-01,9.99991e-01
7.882144461e-01,9.62834e-01,9.99999e-01,9.99999e-01,9.90512e-01,9.72112e-01,9.99941e-01
7.921555184e-01,9.67456e-01,9.99999e-01,9.99999e-01,9.94765e-01,9.72656e-01,9.99886e-01
7.961162960e-01,9.64183e-01,9.99999e-01,9.99999e-01,9.90853e-01,9.73188e-01,9.99891e-01
8.000968774e-01,9.63265e-01,9.99999e-01,9.99999e-01,9.89385e-01,9.73711e-01,9.99884e-01
8.040973618e-01,9.63806e-01,9.99999e-01,9.99999e-01,9.89396e-01,9.74223e-01,9.99908e-01
8.081178486e-01,9.51650e-01,9.99999e-01,9.99999e-01,9.76408e-01,9.74726e-01,9.99914e-01
8.121584379e-01,8.82617e-01,9.99999e-01,9.99999e-01,9.05348e-01,9.75219e-01,9.99663e-01
8.162192301e-01,8.65177e-01,9.99999e-01,9.99999e-01,8.87843e-01,9.75702e-01,9.98736e-01
8.203003262e-01,9.19971e-01,9.99999e-01,9.99999e-01,9.43818e-01,9.76177e-01,9.98520e-01
8.244018279e-01,8.98564e-01,9.99999e-01,9.99999e-01,9.21138e-01,9.76642e-01,9.98822e-01
8.285238370e-01,9.09511e-01,9.99999e-01,9.99999e-01,9.31689e-01,9.77098e-01,9.99075e-01
8.326664562e-01,9.09543e-01,9.99999e-01,9.99999e-01,9.30791e-01,9.77545e-01,9.99617e-01
8.368297885e-01,9.28878e-01,9.99999e-01,9.99999e-01,9.49871e-01,9.77983e-01,9.99912e-01
8.410139374e-01,9.48899e-01,9.99999e-01,9.99999e-01,9.69882e-01,9.78414e-01,9.99948e-01
8.452190071e-01,9.64222e-01,9.99999e-01,9.99999e-01,9.85100e-01,9.78835e-01,9.99968e-01
8.494451021e-01,9.70761e-01,9.99999e-01,9.99999e-01,9.91356e-01,9.79249e-01,9.99975e-01
8.536923276e-01,9.74609e-01,9.99999e-01,9.99999e-01,9.94865e-01,9.79655e-01,9.99983e-01
8.579607893e-01,9.76955e-01,9.99999e-01,9.99999e-01,9.96843e-01,9.80053e-01,9.99995e-01
8.622505932e-01,9.78472e-01,9.99999e-01,9.99999e-01,9.97989e-01,9.80443e-01,9.99998e-01
8.665618462e-01,9.79609e-01,9.99999e-01,9.99999e-01,9.98760e-01,9.80825e-01,9.99999e-01
8.708946554e-01,9.79810e-01,9.99999e-01,9.99999e-01,9.98583e-01,9.81200e-01,9.99998e-01
8.752491287e-01,9.79705e-01,9.99999e-01,9.99999e-01,9.98103e-01,9.81568e-01,9.99997e-01
8.796253743e-01,9.79353e-01,9.99999e-01,9.99999e-01,9.97381e-01,9.81929e-01,9.99993e-01
8.840235012e-01,9.79326e-01,9.99999e-01,9.99999e-01,9.97007e-01,9.82283e-01,9.99981e-01
8.884436187e-01,9.72069e-01,9.99999e-01,9.99999e-01,9.89303e-01,9.82630e-01,9.99947e-01
8.928858368e-01,8.76790e-01,9.99999e-01,9.99999e-01,8.92247e-01,9.82970e-01,9.99699e-01
8.973502660e-01,8.01523e-01,9.99999e-01,9.99999e-01,8.16386e-01,9.83303e-01,9.98463e-01
9.018370173e-01,8.84176e-01,9.99999e-01,9.99999e-01,9.01065e-01,9.83630e-01,9.97585e-01
9.063462024e-01,8.96788e-01,9.99999e-01,9.99999e-01,9.13352e-01,9.83951e-01,9.97878e-01
9.108779334e-01,8.52160e-01,9.99999e-01,9.99999e-01,8.67694e-01,9.84266e-01,9.97795e-01
9.154323231e-01,8.35958e-01,9.99999e-01,9.99999e-01,8.50605e-01,9.84574e-01,9.98177e-01
9.200094847e-01,8.66738e-01,9.99999e-01,9.99999e-01,8.80945e-01,9.84876e-01,9.98979e-01
9.246095321e-01,8.12908e-01,9.99999e-01,9.99999e-01,8.26112e-01,9.85173e-01,9.98824e-01
9.292325798e-01,2.83557e-01,9.99999e-01,9.99999e-01,2.89062e-01,9.85464e-01,9.95423e-01
9.338787427e-01,1.93149e-01,9.99999e-01,9.99999e-01,1.99692e-01,9.85749e-01,9.81216e-01
9.385481364e-01,5.00800e-01,9.99999e-01,9.99999e-01,5.19480e-01,9.86028e-01,9.77700e-01
9.432408771e-01,4.01971e-01,9.99999e-01,9.99999e-01,4.15561e-01,9.86302e-01,9.80731e-01
9.479570815e-01,2.90194e-01,9.99999e-01,9.99999e-01,2.98838e-01,9.86571e-01,9.84289e-01
9.526968669e-01,3.84542e-01,9.99999e-01,9.99999e-01,3.93453e-01,9.86834e-01,9.90388e-01
9.574603512e-01,4.06107e-01,9.99999e-01,9.99999e-01,4.13440e-01,9.87093e-01,9.95105e-01
9.622476530e-01,4.74568e-01,9.99999e-01,9.99999e-01,4.82283e-01,9.87346e-01,9.96613e-01
9.670588912e-01,6.45808e-01,9.99999e-01,9.99999e-01,6.55438e-01,9.87594e-01,9.97682e-01
9.718941857e-01,7.54272e-01,9.99999e-01,9.99999e-01,7.64863e-01,9.87838e-01,9.98293e-01
9.767536566e-01,7.89787e-01,9.99999e-01,9.99999e-01,8.00361e-01,9.88077e-01,9.98695e-01
9.816374249e-01,8.36876e-01,9.99999e-01,9.99999e-01,8.47156e-01,9.88311e-01,9.99548e-01
9.865456120e-01,8.90950e-01,9.99999e-01,9.99999e-01,9.01362e-01,9.88540e-01,9.99905e-01
9.914783401e-01,9.27225e-01,9.99999e-01,9.99999e-01,9.37784e-01,9.88765e-01,9.99973e-01
9.964357318e-01,9.54965e-01,9.99999e-01,9.99999e-01,9.65614e-01,9.88986e-01,9.99984e-01
1.001417910e+00,9.68643e-01,9.99999e-01,9.99999e-01,9.79238e-01,9.89202e-01,9.99976e-01
1.006425000e+00,9.77640e-01,9.99999e-01,9.99999e-01,9.88132e-01,9.89415e-01,9.99966e-01
1.011457125e+00,9.82272e-01,9.99999e-01,9.99999e-01,9.92601e-01,9.89623e-01,9.99968e-01
1.016514411e+00,9.84835e-01,9.99999e-01,9.99999e-01,9.94978e-01,9.89826e-01,9.99977e-01
1.021596983e+00,9.86045e-01,9.99999e-01,9.99999e-01,9.95999e-01,9.90026e-01,9.99977e-01
1.026704968e+00,9.87119e-01,9.99999e-01,9.99999e-01,9.96880e-01,9.90222e-01,9.99984e-01
1.031838492e+00,9.88161e-01,9.99999e-01,9.99999e-01,9.97727e-01,9.90415e-01,9.99995e-01
1.036997685e+00,9.89268e-01,9.99999e-01,9.99999e-01,9.98652e-01,9.90603e-01,9.99998e-01
1.042182673e+00,9.89201e-01,9.99999e-01,9.99999e-01,9.98398e-01,9.90788e-01,9.99999e-01
1.047393587e+00,9.88861e-01,9.99999e-01,9.99999e-01,9.97872e-01,9.90969e-01,9.99999e-01
1.052630555e+00,9.88257e-01,9.99999e-01,9.99999e-01,9.97085e-01,9.91146e-01,9.99998e-01
1.057893707e+00,9.86506e-01,9.99999e-01,9.99999e-01,9.95144e-01,9.91321e-01,9.99997e-01
1.063183176e+00,9.83570e-01,9.99999e-01,9.99999e-01,9.92014e-01,9.91491e-01,9.99995e-01
1.068499092e+00,9.78409e-01,9.99999e-01,9.99999e-01,9.86647e-01,9.91659e-01,9.99990e-01
1.073841587e+00,9.76355e-01,9.99999e-01,9.99999e-01,9.84423e-01,9.91823e-01,9.99979e-01
1.079210795e+00,9.72110e-01,9.99999e-01,9.99999e-01,9.80017e-01,9.91983e-01,9.99945e-01
1.084606849e+00,9.62215e-01,9.99999e-01,9.99999e-01,9.69961e-01,9.92141e-01,9.99870e-01
1.090029883e+00,9.49749e-01,9.99999e-01,9.99999e-01,9.57378e-01,9.92296e-01,9.99731e-01
1.095480033e+00,8.80830e-01,9.99999e-01,9.99999e-01,8.87963e-01,9.92447e-01,9.99515e-01
1.100957433e+00,7.34720e-01,9.99999e-01,9.99999e-01,7.40860e-01,9.92596e-01,9.99108e-01
1.106462220e+00,4.71259e-01,9.99999e-01,9.99999e-01,4.75423e-01,9.92742e-01,9.98488e-01
1.111994531e+00,2.11697e-01,9.99999e-01,9.99999e-01,2.14072e-01,9.92885e-01,9.95992e-01
1.117554504e+00,8.52778e-02,9.99999e-01,9.99999e-01,8.71308e-02,9.93025e-01,9.85606e-01
1.123142276e+00,1.73581e-01,9.99999e-01,9.99999e-01,1.80889e-01,9.93162e-01,9.66204e-01
1.128757988e+00,3.00840e-01,9.99999e-01,9.99999e-01,3.15158e-01,9.93296e-01,9.61008e-01
1.134401778e+00,1.36376e-01,9.99999e-01,9.99999e-01,1.42000e-01,9.93428e-01,9.66747e-01
1.140073787e+00,4.75086e-01,9.99999e-01,9.99999e-01,4.91262e-01,9.93558e-01,9.73341e-01
1.145774156e+00,2.33569e-01,9.99999e-01,9.99999e-01,2.40940e-01,9.93685e-01,9.75570e-01
1.151503026e+00,2.04244e-01,9.99999e-01,9.99999e-01,2.08368e-01,9.93809e-01,9.86315e-01
1.157260541e+00,2.49817e-01,9.99999e-01,9.99999e-01,2.52380e-01,9.93931e-01,9.95888e-01
1.163046844e+00,3.55400e-01,9.99999e-01,9.99999e-01,3.57945e-01,9.94050e-01,9.98832e-01
1.168862078e+00,4.79621e-01,9.99999e-01,9.99999e-01,4.82724e-01,9.94168e-01,9.99398e-01
1.174706389e+00,6.33423e-01,9.99999e-01,9.99999e-01,6.37573e-01,9.94282e-01,9.99202e-01
1.180579921e+00,7.54217e-01,9.99999e-01,9.99999e-01,7.59383e-01,9.94395e-01,9.98794e-01
1.186482820e+00,8.49744e-01,9.99999e-01,9.99999e-01,8.55496e-01,9.94505e-01,9.98762e-01
1.192415234e+00,9.07116e-01,9.99999e-01,9.99999e-01,9.12873e-01,9.94614e-01,9.99073e-01
1.198377311e+00,9.20483e-01,9.99999e-01,9.99999e-01,9.26179e-01,9.94720e-01,9.99124e-01
1.204369197e+00,9.24529e-01,9.99999e-01,9.99999e-01,9.30075e-01,9.94824e-01,9.99207e-01
1.210391043e+00,9.27758e-01,9.99999e-01,9.99999e-01,9.32939e-01,9.94926e-01,9.99517e-01
1.216442998e+00,9.37596e-01,9.99999e-01,9.99999e-01,9.42561e-01,9.95026e-01,9.99704e-01
1.222525213e+00,9.50152e-01,9.99999e-01,9.99999e-01,9.54982e-01,9.95124e-01,9.99816e-01
1.228637839e+00,9.63825e-01,9.99999e-01,9.99999e-01,9.68536e-01,9.95220e-01,9.99914e-01
