#,Wave/freq,Total,N2,O2,H2O,Rayleigh,CIA
4.000000000e-01,6.27257e-01,9.99999e-01,9.99999e-01,9.99946e-01,6.27290e-01,9.99999e-01
4.020000000e-01,6.33080e-01,9.99999e-01,9.99999e-01,9.99966e-01,6.33101e-01,9.99999e-01
4.040100000e-01,6.38834e-01,9.99999e-01,9.99999e-01,9.99985e-01,6.38843e-01,9.99999e-01
4.060300500e-01,6.44520e-01,9.99999e-01,9.99999e-01,9.99996e-01,6.44522e-01,9.99999e-01
4.080602003e-01,6.50138e-01,9.99999e-01,9.99999e-01,9.99998e-01,6.50139e-01,9.99999e-01
4.101005013e-01,6.55692e-01,9.99999e-01,9.99999e-01,9.99999e-01,6.55692e-01,9.99999e-01
4.121510038e-01,6.61180e-01,9.99999e-01,9.99999e-01,9.99997e-01,6.61181e-01,9.99999e-01
4.142117588e-01,6.66597e-01,9.99999e-01,9.99999e-01,9.99985e-01,6.66606e-01,9.99999e-01
4.162828176e-01,6.71924e-01,9.99999e-01,9.99999e-01,9.99934e-01,6.71968e-01,9.99999e-01
4.183642317e-01,6.77239e-01,9.99999e-01,9.99999e-01,9.99960e-01,6.77265e-01,9.99999e-01
4.204560528e-01,6.82482e-01,9.99999e-01,9.99999e-01,9.99975e-01,6.82498e-01,9.99999e-01
4.225583331e-01,6.87661e-01,9.99999e-01,9.99999e-01,9.99990e-01,6.87668e-01,9.99999e-01
4.246711247e-01,6.92768e-01,9.99999e-01,9.99999e-01,9.99992e-01,6.92773e-01,9.99999e-01
4.267944804e-01,6.97806e-01,9.99999e-01,9.99999e-01,9.99989e-01,6.97814e-01,9.99999e-01
4.289284528e-01,7.02785e-01,9.99999e-01,9.99999e-01,9.99991e-01,7.02791e-01,9.99999e-01
4.310730950e-01,7.07701e-01,9.99999e-01,9.99999e-01,9.99996e-01,7.07704e-01,9.99999e-01
4.332284605e-01,7.12553e-01,9.99999e-01,9.99999e-01,9.99998e-01,7.12553e-01,9.99999e-01
4.353946028e-01,7.17339e-01,9.99999e-01,9.99999e-01,9.99999e-01,7.17339e-01,9.99999e-01
4.375715758e-01,7.22057e-01,9.99999e-01,9.99999e-01,9.99993e-01,7.22062e-01,9.99999e-01
4.397594337e-01,7.26680e-01,9.99999e-01,9.99999e-01,9.99942e-01,7.26721e-01,9.99999e-01
4.419582309e-01,7.31105e-01,9.99999e-01,9.99999e-01,9.99708e-01,7.31318e-01,9.99999e-01
4.441680220e-01,7.35685e-01,9.99999e-01,9.99999e-01,9.99772e-01,7.35852e-01,9.99999e-01
4.463888621e-01,7.40149e-01,9.99999e-01,9.99999e-01,9.99763e-01,7.40324e-01,9.99999e-01
4.486208064e-01,7.44624e-01,9.99999e-01,9.99999e-01,9.99852e-01,7.44733e-01,9.99999e-01
4.508639105e-01,7.49030e-01,9.99999e-01,9.99999e-01,9.99930e-01,7.49082e-01,9.99999e-01
4.531182300e-01,7.53348e-01,9.99999e-01,9.99999e-01,9.99972e-01,7.53368e-01,9.99999e-01
4.553838212e-01,7.57581e-01,9.99999e-01,9.99999e-01,9.99981e-01,7.57595e-01,9.99999e-01
4.576607403e-01,7.61754e-01,9.99999e-01,9.99999e-01,9.99991e-01,7.61760e-01,9.99999e-01
4.599490440e-01,7.65861e-01,9.99999e-01,9.99999e-01,9.99993e-01,7.65866e-01,9.99999e-01
4.622487892e-01,7.69911e-01,9.99999e-01,9.99999e-01,9.99998e-01,7.69912e-01,9.99999e-01
4.645600332e-01,7.73895e-01,9.99999e-01,9.99999e-01,9.99995e-01,7.73898e-01,9.99999e-01
4.668828333e-01,7.77773e-01,9.99999e-01,9.99999e-01,9.99930e-01,7.77826e-01,9.99999e-01
4.692172475e-01,7.81581e-01,9.99999e-01,9.99999e-01,9.99851e-01,7.81696e-01,9.99999e-01
4.715633337e-01,7.85432e-01,9.99999e-01,9.99999e-01,9.99902e-01,7.85508e-01,9.99999e-01
4.739211504e-01,7.89190e-01,9.99999e-01,9.99999e-01,9.99906e-01,7.89263e-01,9.99999e-01
4.762907561e-01,7.92923e-01,9.99999e-01,9.99999e-01,9.99951e-01,7.92961e-01,9.99999e-01
4.786722099e-01,7.96587e-01,9.99999e-01,9.99999e-01,9.99979e-01,7.96603e-01,9.99999e-01
4.810655710e-01,8.00184e-01,9.99999e-01,9.99999e-01,9.99993e-01,8.00189e-01,9.99999e-01
4.834708988e-01,8.03674e-01,9.99999e-01,9.99999e-01,9.99942e-01,8.03720e-01,9.99999e-01
4.858882533e-01,8.07112e-01,9.99999e-01,9.99999e-01,9.99894e-01,8.07196e-01,9.99999e-01
4.883176946e-01,8.10548e-01,9.99999e-01,9.99999e-01,9.99911e-01,8.10619e-01,9.99999e-01
4.907592831e-01,8.13923e-01,9.99999e-01,9.99999e-01,9.99920e-01,8.13987e-01,9.99999e-01
4.932130795e-01,8.17257e-01,9.99999e-01,9.99999e-01,9.99943e-01,8.17303e-01,9.99999e-01
4.956791449e-01,8.20542e-01,9.99999e-01,9.99999e-01,9.99969e-01,8.20567e-01,9.99999e-01
4.981575406e-01,8.23656e-01,9.99999e-01,9.99999e-01,9.99850e-01,8.23778e-01,9.99999e-01
5.006483283e-01,8.26617e-01,9.99999e-01,9.99999e-01,9.99613e-01,8.26939e-01,9.99996e-01
5.031515699e-01,8.28409e-01,9.99999e-01,9.99999e-01,9.98044e-01,8.30048e-01,9.99978e-01
5.056673278e-01,8.32229e-01,9.99999e-01,9.99999e-01,9.98967e-01,8.33108e-01,9.99976e-01
5.081956644e-01,8.35017e-01,9.99999e-01,9.99999e-01,9.98698e-01,8.36118e-01,9.99984e-01
5.107366428e-01,8.38340e-01,9.99999e-01,9.99999e-01,9.99120e-01,8.39079e-01,9.99996e-01
5.132903260e-01,8.41569e-01,9.99999e-01,9.99999e-01,9.99497e-01,8.41992e-01,9.99999e-01
5.158567776e-01,8.44678e-01,9.99999e-01,9.99999e-01,9.99787e-01,8.44857e-01,9.99999e-01
5.184360615e-01,8.47604e-01,9.99999e-01,9.99999e-01,9.99914e-01,8.47675e-01,9.99999e-01
5.210282418e-01,8.50420e-01,9.99999e-01,9.99999e-01,9.99967e-01,8.50447e-01,9.99999e-01
5.236333830e-01,8.53063e-01,9.99999e-01,9.99999e-01,9.99872e-01,8.53173e-01,9.99998e-01
5.262515499e-01,8.55784e-01,9.99999e-01,9.99999e-01,9.99919e-01,8.55853e-01,9.99998e-01
5.288828077e-01,8.58425e-01,9.99999e-01,9.99999e-01,9.99926e-01,8.58488e-01,9.99998e-01
5.315272217e-01,8.61024e-01,9.99999e-01,9.99999e-01,9.99935e-01,8.61079e-01,9.99999e-01
5.341848578e-01,8.63591e-01,9.99999e-01,9.99999e-01,9.99957e-01,8.63627e-01,9.99999e-01
5.368557821e-01,8.66003e-01,9.99999e-01,9.99999e-01,9.99851e-01,8.66132e-01,9.99999e-01
5.395400610e-01,8.68125e-01,9.99999e-01,9.99999e-01,9.99463e-01,8.68594e-01,9.99995e-01
5.422377613e-01,8.70401e-01,9.99999e-01,9.99999e-01,9.99307e-01,8.71014e-01,9.99986e-01
5.449489501e-01,8.72820e-01,9.99999e-01,9.99999e-01,9.99355e-01,8.73394e-01,9.99986e-01
5.476736949e-01,8.75228e-01,9.99999e-01,9.99999e-01,9.99429e-01,8.75732e-01,9.99993e-01
5.504120634e-01,8.77666e-01,9.99999e-01,9.99999e-01,9.99585e-01,8.78030e-01,9.99997e-01
5.531641237e-01,8.80106e-01,9.99999e-01,9.99999e-01,9.99791e-01,8.80289e-01,9.99999e-01
5.559299443e-01,8.82420e-01,9.99999e-01,9.99999e-01,9.99899e-01,8.82509e-01,9.99999e-01
5.587095940e-01,8.84635e-01,9.99999e-01,9.99999e-01,9.99936e-01,8.84690e-01,9.99999e-01
5.615031420e-01,8.86772e-01,9.99999e-01,9.99999e-01,9.99929e-01,8.86834e-01,9.99999e-01
5.643106577e-01,8.88869e-01,9.99999e-01,9.99999e-01,9.99919e-01,8.88940e-01,9.99998e-01
5.671322110e-01,8.90139e-01,9.99999e-01,9.99999e-01,9.99030e-01,8.91010e-01,9.99990e-01
5.699678720e-01,8.92102e-01,9.99999e-01,9.99999e-01,9.98972e-01,8.93043e-01,9.99973e-01
5.728177114e-01,8.94063e-01,9.99999e-01,9.99999e-01,9.98928e-01,8.95041e-01,9.99977e-01
5.756818000e-01,8.96110e-01,9.99999e-01,9.99999e-01,9.99016e-01,8.97003e-01,9.99986e-01
5.785602090e-01,8.98158e-01,9.99999e-01,9.99999e-01,9.99143e-01,8.98931e-01,9.99995e-01
5.814530100e-01,9.00048e-01,9.99999e-01,9.99999e-01,9.99139e-01,9.00825e-01,9.99997e-01
5.843602750e-01,9.01754e-01,9.99999e-01,9.99999e-01,9.98973e-01,9.02685e-01,9.99993e-01
5.872820764e-01,8.96487e-01,9.99999e-01,9.99999e-01,9.91188e-01,9.04513e-01,9.99937e-01
5.902184868e-01,8.96488e-01,9.99999e-01,9.99999e-01,9.89332e-01,9.06307e-01,9.99830e-01
5.931695792e-01,9.01073e-01,9.99999e-01,9.99999e-01,9.92455e-01,9.08070e-01,9.99836e-01
5.961354271e-01,9.02195e-01,9.99999e-01,9.99999e-01,9.91731e-01,9.09802e-01,9.99905e-01
5.991161043e-01,9.05974e-01,9.99999e-01,9.99999e-01,9.93963e-01,9.11502e-01,9.99970e-01
6.021116848e-01,9.10038e-01,9.99999e-01,9.99999e-01,9.96571e-01,9.13172e-01,9.99996e-01
6.051222432e-01,9.13223e-01,9.99999e-01,9.99999e-01,9.98263e-01,9.14812e-01,9.99999e-01
6.081478544e-01,9.15735e-01,9.99999e-01,9.99999e-01,9.99250e-01,9.16422e-01,9.99999e-01
6.111885937e-01,9.17712e-01,9.99999e-01,9.99999e-01,9.99682e-01,9.18003e-01,9.99999e-01
6.142445367e-01,9.19426e-01,9.99999e-01,9.99999e-01,9.99858e-01,9.19556e-01,9.99999e-01
6.173157594e-01,9.21008e-01,9.99999e-01,9.99999e-01,9.99921e-01,9.21080e-01,9.99999e-01
6.204023382e-01,9.22516e-01,9.99999e-01,9.99999e-01,9.99933e-01,9.22577e-01,9.99999e-01
6.235043498e-01,9.23777e-01,9.99999e-01,9.99999e-01,9.99708e-01,9.24047e-01,9.99998e-01
6.266218716e-01,9.24054e-01,9.99999e-01,9.99999e-01,9.98459e-01,9.25490e-01,9.99988e-01
6.297549810e-01,9.26362e-01,9.99999e-01,9.99999e-01,9.99434e-01,9.26906e-01,9.99977e-01
6.329037559e-01,9.27245e-01,9.99999e-01,9.99999e-01,9.98883e-01,9.28297e-01,9.99982e-01
6.360682746e-01,9.28768e-01,9.99999e-01,9.99999e-01,9.99048e-01,9.29662e-01,9.99989e-01
6.392486160e-01,9.29851e-01,9.99999e-01,9.99999e-01,9.98767e-01,9.31002e-01,9.99994e-01
6.424448591e-01,9.30773e-01,9.99999e-01,9.99999e-01,9.98349e-01,9.32318e-01,9.99992e-01
6.456570834e-01,9.26436e-01,9.99999e-01,9.99999e-01,9.92357e-01,9.33610e-01,9.99957e-01
6.488853688e-01,9.29538e-01,9.99999e-01,9.99999e-01,9.94406e-01,9.34877e-01,9.99880e-01
6.521297956e-01,9.30694e-01,9.99999e-01,9.99999e-01,9.94299e-01,9.36122e-01,9.99901e-01
6.553904446e-01,9.31952e-01,9.99999e-01,9.99999e-01,9.94320e-01,9.37343e-01,9.99926e-01
6.586673968e-01,9.33955e-01,9.99999e-01,9.99999e-01,9.95136e-01,9.38542e-01,9.99975e-01
6.619607338e-01,9.37164e-01,9.99999e-01,9.99999e-01,9.97287e-01,9.39718e-01,9.99994e-01
6.652705375e-01,9.39338e-01,9.99999e-01,9.99999e-01,9.98370e-01,9.40873e-01,9.99996e-01
6.685968902e-01,9.41293e-01,9.99999e-01,9.99999e-01,9.99242e-01,9.42006e-01,9.99999e-01
6.719398746e-01,9.42788e-01,9.99999e-01,9.99999e-01,9.99649e-01,9.43119e-01,9.99999e-01
6.752995740e-01,9.44031e-01,9.99999e-01,9.99999e-01,9.99809e-01,9.44210e-01,9.99999e-01
6.786760719e-01,9.45022e-01,9.99999e-01,9.99999e-01,9.99724e-01,9.45281e-01,9.99999e-01
6.820694522e-01,9.45886e-01,9.99999e-01,9.99999e-01,9.99529e-01,9.46333e-01,9.99997e-01
6.854797995e-01,9.46785e-01,9.99999e-01,9.99999e-01,9.99393e-01,9.47364e-01,9.99994e-01
6.889071985e-01,9.46971e-01,9.99999e-01,9.99999e-01,9.98530e-01,9.48377e-01,9.99986e-01
6.923517345e-01,9.26752e-01,9.99999e-01,9.99999e-01,9.76287e-01,9.49370e-01,9.99884e-01
6.958134932e-01,9.38354e-01,9.99999e-01,9.99999e-01,9.87632e-01,9.50345e-01,9.99745e-01
6.992925606e-01,9.39872e-01,9.99999e-01,9.99999e-01,9.88211e-01,9.51301e-01,9.99770e-01
7.027890234e-01,9.38243e-01,9.99999e-01,9.99999e-01,9.85472e-01,9.52240e-01,9.99824e-01
7.063029686e-01,9.41421e-01,9.99999e-01,9.99999e-01,9.87768e-01,9.53161e-01,9.99912e-01
7.098344834e-01,9.42816e-01,9.99999e-01,9.99999e-01,9.88259e-01,9.54064e-01,9.99948e-01
7.133836558e-01,9.39939e-01,9.99999e-01,9.99999e-01,9.84380e-01,9.54951e-01,9.99897e-01
7.169505741e-01,8.42244e-01,9.99999e-01,9.99999e-01,8.81883e-01,9.55821e-01,9.99194e-01
7.205353270e-01,8.98293e-01,9.99999e-01,9.99999e-01,9.40309e-01,9.56674e-01,9.98579e-01
7.241380036e-01,8.84231e-01,9.99999e-01,9.99999e-01,9.24600e-01,9.57512e-01,9.98773e-01
7.277586936e-01,8.92007e-01,9.99999e-01,9.99999e-01,9.31723e-01,9.58333e-01,9.98997e-01
7.313974871e-01,8.89138e-01,9.99999e-01,9.99999e-01,9.27451e-01,9.59139e-01,9.99529e-01
7.350544745e-01,9.21051e-01,9.99999e-01,9.99999e-01,9.59654e-01,9.59930e-01,9.99836e-01
7.387297469e-01,9.31936e-01,9.99999e-01,9.99999e-01,9.70126e-01,9.60705e-01,9.99924e-01
7.424233956e-01,9.47291e-01,9.99999e-01,9.99999e-01,9.85270e-01,9.61466e-01,9.99985e-01
7.461355126e-01,9.53597e-01,9.99999e-01,9.99999e-01,9.91047e-01,9.62213e-01,9.99996e-01
7.498661902e-01,9.58923e-01,9.99999e-01,9.99999e-01,9.95823e-01,9.62945e-01,9.99998e-01
7.536155211e-01,9.61687e-01,9.99999e-01,9.99999e-01,9.97948e-01,9.63664e-01,9.99998e-01
7.573835987e-01,9.63350e-01,9.99999e-01,9.99999e-01,9.98943e-01,9.64369e-01,9.99999e-01
7.611705167e-01,9.64427e-01,9.99999e-01,9.99999e-01,9.99343e-01,9.65060e-01,9.99999e-01
7.649763693e-01,9.65341e-01,9.99999e-01,9.99999e-01,9.99588e-01,9.65738e-01,9.99999e-01
7.688012511e-01,9.66127e-01,9.99999e-01,9.99999e-01,9.99713e-01,9.66403e-01,9.99999e-01
7.726452574e-01,9.66828e-01,9.99999e-01,9.99999e-01,9.99763e-01,9.67056e-01,9.99999e-01
7.765084837e-01,9.67371e-01,9.99999e-01,9.99999e-01,9.99664e-01,9.67696e-01,9.99999e-01
7.803910261e-01,9.66920e-01,9.99999e-01,9.99999e-01,9.98551e-01,9.68324e-01,9.99998e-01
7.842929812e-01,9.64039e-01,9.99999e-01,9.99999e-01,9.94951e-01,9.68940e-01,9.99990e-01
7.882144461e-01,9.59422e-01,9.99999e-01,9.99999e-01,9.89630e-01,9.69544e-01,9.99928e-01
7.921555184e-01,9.64492e-01,9.99999e-01,9.99999e-01,9.94305e-01,9.70136e-01,9.99875e-01
7.961162960e-01,9.60845e-01,9.99999e-01,9.99999e-01,9.89945e-01,9.70717e-01,9.99881e-01
8.000968774e-01,9.59895e-01,9.99999e-01,9.99999e-01,9.88394e-01,9.71287e-01,9.99873e-01
8.040973618e-01,9.60470e-01,9.99999e-01,9.99999e-01,9.88391e-01,9.71846e-01,9.99899e-01
8.081178486e-01,9.47055e-01,9.99999e-01,9.99999e-01,9.74031e-01,9.72395e-01,9.99906e-01
8.121584379e-01,8.71898e-01,9.99999e-01,9.99999e-01,8.96483e-01,9.72933e-01,9.99632e-01
8.162192301e-01,8.54088e-01,9.99999e-01,9.99999e-01,8.78586e-01,9.73460e-01,9.98618e-01
8.203003262e-01,9.12279e-01,9.99999e-01,9.99999e-01,9.38169e-01,9.73977e-01,9.98382e-01
8.244018279e-01,8.90772e-01,9.99999e-01,9.99999e-01,9.15273e-01,9.74485e-01,9.98712e-01
8.285238370e-01,9.01360e-01,9.99999e-01,9.99999e-01,9.25423e-01,9.74982e-01,9.98988e-01
8.326664562e-01,9.01683e-01,9.99999e-01,9.99999e-01,9.24743e-01,9.75470e-01,9.99581e-01
8.368297885e-01,9.22674e-01,9.99999e-01,9.99999e-01,9.45502e-01,9.75949e-01,9.99903e-01
8.410139374e-01,9.44376e-01,9.99999e-01,9.99999e-01,9.67237e-01,9.76418e-01,9.99943e-01
8.452190071e-01,9.61017e-01,9.99999e-01,9.99999e-01,9.83795e-01,9.76879e-01,9.99966e-01
8.494451021e-01,9.68082e-01,9.99999e-01,9.99999e-01,9.90563e-01,9.77330e-01,9.99972e-01
8.536923276e-01,9.72294e-01,9.99999e-01,9.99999e-01,9.94411e-01,9.77773e-01,9.99983e-01
8.579607893e-01,9.74833e-01,9.99999e-01,9.99999e-01,9.96554e-01,9.78207e-01,9.99995e-01
8.622505932e-01,9.76490e-01,9.99999e-01,9.99999e-01,9.97810e-01,9.78633e-01,9.99998e-01
8.665618462e-01,9.77724e-01,9.99999e-01,9.99999e-01,9.98644e-01,9.79051e-01,9.99999e-01
8.708946554e-01,9.77940e-01,9.99999e-01,9.99999e-01,9.98448e-01,9.79460e-01,9.99998e-01
8.752491287e-01,9.77826e-01,9.99999e-01,9.99999e-01,9.97924e-01,9.79862e-01,9.99997e-01
8.796253743e-01,9.77432e-01,9.99999e-01,9.99999e-01,9.97125e-01,9.80255e-01,9.99993e-01
8.840235012e-01,9.77404e-01,9.99999e-01,9.99999e-01,9.96717e-01,9.80642e-01,9.99979e-01
8.884436187e-01,9.69276e-01,9.99999e-01,9.99999e-01,9.88083e-01,9.81020e-01,9.99942e-01
8.928858368e-01,8.65364e-01,9.99999e-01,9.99999e-01,8.82061e-01,9.81392e-01,9.99671e-01
8.973502660e-01,7.85642e-01,9.99999e-01,9.99999e-01,8.01588e-01,9.81756e-01,9.98319e-01
9.018370173e-01,8.75055e-01,9.99999e-01,9.99999e-01,8.93350e-01,9.82113e-01,9.97359e-01
9.063462024e-01,8.87223e-01,9.99999e-01,9.99999e-01,9.05159e-01,9.82463e-01,9.97679e-01
9.108779334e-01,8.39467e-01,9.99999e-01,9.99999e-01,8.56216e-01,9.82807e-01,9.97588e-01
9.154323231e-01,8.22252e-01,9.99999e-01,9.99999e-01,8.38019e-01,9.83143e-01,9.98006e-01
9.200094847e-01,8.55689e-01,9.99999e-01,9.99999e-01,8.71039e-01,9.83473e-01,9.98883e-01
9.246095321e-01,7.95607e-01,9.99999e-01,9.99999e-01,8.09751e-01,9.83797e-01,9.98713e-01
9.292325798e-01,2.53873e-01,9.99999e-01,9.99999e-01,2.59268e-01,9.84115e-01,9.94995e-01
9.338787427e-01,1.69788e-01,9.99999e-01,9.99999e-01,1.76088e-01,9.84426e-01,9.79472e-01
9.385481364e-01,4.73937e-01,9.99999e-01,9.99999e-01,4.93305e-01,9.84731e-01,9.75633e-01
9.432408771e-01,3.71704e-01,9.99999e-01,9.99999e-01,3.85469e-01,9.85031e-01,9.78942e-01
9.479570815e-01,2.61026e-01,9.99999e-01,9.99999e-01,2.69542e-01,9.85324e-01,9.82828e-01
9.526968669e-01,3.55040e-01,9.99999e-01,9.99999e-01,3.64048e-01,9.85612e-01,9.89490e-01
9.574603512e-01,3.75817e-01,9.99999e-01,9.99999e-01,3.83245e-01,9.85894e-01,9.94647e-01
9.622476530e-01,4.45524e-01,9.99999e-01,9.99999e-01,4.53450e-01,9.86171e-01,9.96295e-01
9.670588912e-01,6.21601e-01,9.99999e-01,9.99999e-01,6.31745e-01,9.86442e-01,9.97465e-01
9.718941857e-01,7.35058e-01,9.99999e-01,9.99999e-01,7.46353e-01,9.86708e-01,9.98133e-01
9.767536566e-01,7.72826e-01,9.99999e-01,9.99999e-01,7.84148e-01,9.86969e-01,9.98573e-01
9.816374249e-01,8.23548e-01,9.99999e-01,9.99999e-01,8.34617e-01,9.87224e-01,9.99505e-01
9.865456120e-01,8.81714e-01,9.99999e-01,9.99999e-01,8.92988e-01,9.87475e-01,9.99896e-01
9.914783401e-01,9.20858e-01,9.99999e-01,9.99999e-01,9.32331e-01,9.87721e-01,9.99970e-01
9.964357318e-01,9.50959e-01,9.99999e-01,9.99999e-01,9.62561e-01,9.87962e-01,9.99982e-01
1.001417910e+00,9.65827e-01,9.99999e-01,9.99999e-01,9.77385e-01,9.88198e-01,9.99974e-01
1.006425000e+00,9.75587e-01,9.99999e-01,9.99999e-01,9.87042e-01,9.88430e-01,9.99963e-01
1.011457125e+00,9.80657e-01,9.99999e-01,9.99999e-01,9.91941e-01,9.88657e-01,9.99965e-01
1.016514411e+00,9.83439e-01,9.99999e-01,9.99999e-01,9.94521e-01,9.88880e-01,9.99975e-01
1.021596983e+00,9.84755e-01,9.99999e-01,9.99999e-01,9.95631e-01,9.89099e-01,9.99975e-01
1.026704968e+00,9.85926e-01,9.99999e-01,9.99999e-01,9.96591e-01,9.89313e-01,9.99983e-01
1.031838492e+00,9.87067e-01,9.99999e-01,9.99999e-01,9.97522e-01,9.89523e-01,9.99995e-01
1.036997685e+00,9.88271e-01,9.99999e-01,9.99999e-01,9.98527e-01,9.89729e-01,9.99998e-01
1.042182673e+00,9.88192e-01,9.99999e-01,9.99999e-01,9.98243e-01,9.89930e-01,9.99999e-01
1.047393587e+00,9.87824e-01,9.99999e-01,9.99999e-01,9.97672e-01,9.90128e-01,9.99999e-01
1.052630555e+00,9.87159e-01,9.99999e-01,9.99999e-01,9.96806e-01,9.90322e-01,9.99998e-01
1.057893707e+00,9.85235e-01,9.99999e-01,9.99999e-01,9.94673e-01,9.90513e-01,9.99997e-01
1.063183176e+00,9.82027e-01,9.99999e-01,9.99999e-01,9.91250e-01,9.90699e-01,9.99994e-01
1.068499092e+00,9.76398e-01,9.99999e-01,9.99999e-01,9.85392e-01,9.90882e-01,9.99989e-01
1.073841587e+00,9.74126e-01,9.99999e-01,9.99999e-01,9.82932e-01,9.91061e-01,9.99977e-01
1.079210795e+00,9.69548e-01,9.99999e-01,9.99999e-01,9.78176e-01,9.91237e-01,9.99940e-01
1.084606849e+00,9.58716e-01,9.99999e-01,9.99999e-01,9.67159e-01,9.91409e-01,9.99858e-01
1.090029883e+00,9.44893e-01,9.99999e-01,9.99999e-01,9.53196e-01,9.91578e-01,9.99706e-01
1.095480033e+00,8.69945e-01,9.99999e-01,9.99999e-01,8.77651e-01,9.91744e-01,9.99469e-01
1.100957433e+00,7.12972e-01,9.99999e-01,9.99999e-01,7.19491e-01,9.91906e-01,9.99024e-01
1.106462220e+00,4.38743e-01,9.99999e-01,9.99999e-01,4.42984e-01,9.92066e-01,9.98346e-01
1.111994531e+00,1.84617e-01,9.99999e-01,9.99999e-01,1.86883e-01,9.92222e-01,9.95616e-01
1.117554504e+00,6.92942e-02,9.99999e-01,9.99999e-01,7.09427e-02,9.92375e-01,9.84266e-01
1.123142276e+00,1.52221e-01,9.99999e-01,9.99999e-01,1.59244e-01,9.92525e-01,9.63092e-01
1.128757988e+00,2.71229e-01,9.99999e-01,9.99999e-01,2.85380e-01,9.92672e-01,9.57428e-01
1.134401778e+00,1.23505e-01,9.99999e-01,9.99999e-01,1.29086e-01,9.92816e-01,9.63684e-01
1.140073787e+00,4.43962e-01,9.99999e-01,9.99999e-01,4.60522e-01,9.92957e-01,9.70876e-01
1.145774156e+00,2.07255e-01,9.99999e-01,9.99999e-01,2.14418e-01,9.93096e-01,9.73308e-01
1.151503026e+00,1.78891e-01,9.99999e-01,9.99999e-01,1.82845e-01,9.93232e-01,9.85041e-01
1.157260541e+00,2.21075e-01,9.99999e-01,9.99999e-01,2.23556e-01,9.93365e-01,9.95503e-01
1.163046844e+00,3.24952e-01,9.99999e-01,9.99999e-01,3.27497e-01,9.93496e-01,9.98723e-01
1.168862078e+00,4.49343e-01,9.99999e-01,9.99999e-01,4.52523e-01,9.93624e-01,9.99341e-01
1.174706389e+00,6.08040e-01,9.99999e-01,9.99999e-01,6.12398e-01,9.93749e-01,9.99127e-01
1.180579921e+00,7.35408e-01,9.99999e-01,9.99999e-01,7.40918e-01,9.93872e-01,9.98681e-01
1.186482820e+00,8.37202e-01,9.99999e-01,9.99999e-01,8.43402e-01,9.93993e-01,9.98646e-01
1.192415234e+00,8.98973e-01,9.99999e-01,9.99999e-01,9.05214e-01,9.94111e-01,9.98986e-01
1.198377311e+00,9.13327e-01,9.99999e-01,9.99999e-01,9.19509e-01,9.94227e-01,9.99042e-01
1.204369197e+00,9.17805e-01,9.99999e-01,9.99999e-01,9.23827e-01,9.94341e-01,9.99133e-01
1.210391043e+00,9.21313e-01,9.99999e-01,9.99999e-01,9.26940e-01,9.94452e-01,9.99472e-01
1.216442998e+00,9.32116e-01,9.99999e-01,9.99999e-01,9.37515e-01,9.94562e-01,9.99676e-01
1.222525213e+00,9.45694e-01,9.99999e-01,9.99999e-01,9.50953e-01,9.94669e-01,9.99799e-01
1.228637839e+00,9.60537e-01,9.99999e-01,9.99999e-01,9.65673e-01,9.94774e-01,9.99906e-01
