#,Wave/freq,Total,N2,O2,H2O,Rayleigh,CIA
4.000000000e-01,9.29153e-01,9.99999e-01,9.99999e-01,9.99991e-01,9.29161e-01,9.99999e-01
4.020000000e-01,9.30507e-01,9.99999e-01,9.99999e-01,9.99994e-01,9.30511e-01,9.99999e-01
4.040100000e-01,9.31834e-01,9.99999e-01,9.99999e-01,9.99997e-01,9.31836e-01,9.99999e-01
4.060300500e-01,9.33136e-01,9.99999e-01,9.99999e-01,9.99999e-01,9.33136e-01,9.99999e-01
4.080602003e-01,9.34413e-01,9.99999e-01,9.99999e-01,9.99999e-01,9.34413e-01,9.99999e-01
4.101005013e-01,9.35666e-01,9.99999e-01,9.99999e-01,9.99999e-01,9.35666e-01,9.99999e-01
4.121510038e-01,9.36895e-01,9.99999e-01,9.99999e-01,9.99999e-01,9.36895e-01,9.99999e-01
4.142117588e-01,9.38100e-01,9.99999e-01,9.99999e-01,9.99997e-01,9.38102e-01,9.99999e-01
4.162828176e-01,9.39278e-01,9.99999e-01,9.99999e-01,9.99989e-01,9.39287e-01,9.99999e-01
4.183642317e-01,9.40444e-01,9.99999e-01,9.99999e-01,9.99993e-01,9.40450e-01,9.99999e-01
4.204560528e-01,9.41588e-01,9.99999e-01,9.99999e-01,9.99995e-01,9.41591e-01,9.99999e-01
4.225583331e-01,9.42710e-01,9.99999e-01,9.99999e-01,9.99998e-01,9.42711e-01,9.99999e-01
4.246711247e-01,9.43809e-01,9.99999e-01,9.99999e-01,9.99998e-01,9.43810e-01,9.99999e-01
4.267944804e-01,9.44887e-01,9.99999e-01,9.99999e-01,9.99997e-01,9.44889e-01,9.99999e-01
4.289284528e-01,9.45946e-01,9.99999e-01,9.99999e-01,9.99998e-01,9.45948e-01,9.99999e-01
4.310730950e-01,9.46986e-01,9.99999e-01,9.99999e-01,9.99998e-01,9.46986e-01,9.99999e-01
4.332284605e-01,9.48006e-01,9.99999e-01,9.99999e-01,9.99999e-01,9.48006e-01,9.99999e-01
4.353946028e-01,9.49006e-01,9.99999e-01,9.99999e-01,9.99999e-01,9.49006e-01,9.99999e-01
4.375715758e-01,9.49987e-01,9.99999e-01,9.99999e-01,9.99998e-01,9.49988e-01,9.99999e-01
4.397594337e-01,9.50942e-01,9.99999e-01,9.99999e-01,9.99990e-01,9.50951e-01,9.99999e-01
4.419582309e-01,9.51852e-01,9.99999e-01,9.99999e-01,9.99953e-01,9.51896e-01,9.99999e-01
4.441680220e-01,9.52790e-01,9.99999e-01,9.99999e-01,9.99963e-01,9.52824e-01,9.99999e-01
4.463888621e-01,9.53698e-01,9.99999e-01,9.99999e-01,9.99962e-01,9.53733e-01,9.99999e-01
4.486208064e-01,9.54604e-01,9.99999e-01,9.99999e-01,9.99976e-01,9.54626e-01,9.99999e-01
4.508639105e-01,9.55492e-01,9.99999e-01,9.99999e-01,9.99988e-01,9.55502e-01,9.99999e-01
4.531182300e-01,9.56358e-01,9.99999e-01,9.99999e-01,9.99995e-01,9.56362e-01,9.99999e-01
4.553838212e-01,9.57202e-01,9.99999e-01,9.99999e-01,9.99996e-01,9.57205e-01,9.99999e-01
4.576607403e-01,9.58031e-01,9.99999e-01,9.99999e-01,9.99998e-01,9.58032e-01,9.99999e-01
4.599490440e-01,9.58843e-01,9.99999e-01,9.99999e-01,9.99998e-01,9.58844e-01,9.99999e-01
4.622487892e-01,9.59640e-01,9.99999e-01,9.99999e-01,9.99999e-01,9.59640e-01,9.99999e-01
4.645600332e-01,9.60421e-01,9.99999e-01,9.99999e-01,9.99998e-01,9.60421e-01,9.99999e-01
4.668828333e-01,9.61177e-01,9.99999e-01,9.99999e-01,9.99988e-01,9.61188e-01,9.99999e-01
4.692172475e-01,9.61917e-01,9.99999e-01,9.99999e-01,9.99976e-01,9.61940e-01,9.99999e-01
4.715633337e-01,9.62662e-01,9.99999e-01,9.99999e-01,9.99984e-01,9.62677e-01,9.99999e-01
4.739211504e-01,9.63387e-01,9.99999e-01,9.99999e-01,9.99984e-01,9.63401e-01,9.99999e-01
4.762907561e-01,9.64103e-01,9.99999e-01,9.99999e-01,9.99991e-01,9.64110e-01,9.99999e-01
4.786722099e-01,9.64804e-01,9.99999e-01,9.99999e-01,9.99996e-01,9.64807e-01,9.99999e-01
4.810655710e-01,9.65489e-01,9.99999e-01,9.99999e-01,9.99998e-01,9.65490e-01,9.99999e-01
4.834708988e-01,9.66151e-01,9.99999e-01,9.99999e-01,9.99990e-01,9.66160e-01,9.99999e-01
4.858882533e-01,9.66801e-01,9.99999e-01,9.99999e-01,9.99983e-01,9.66817e-01,9.99999e-01
4.883176946e-01,9.67448e-01,9.99999e-01,9.99999e-01,9.99985e-01,9.67462e-01,9.99999e-01
4.907592831e-01,9.68082e-01,9.99999e-01,9.99999e-01,9.99987e-01,9.68094e-01,9.99999e-01
4.932130795e-01,9.68706e-01,9.99999e-01,9.99999e-01,9.99990e-01,9.68714e-01,9.99999e-01
4.956791449e-01,9.69318e-01,9.99999e-01,9.99999e-01,9.99994e-01,9.69322e-01,9.99999e-01
4.981575406e-01,9.69896e-01,9.99999e-01,9.99999e-01,9.99976e-01,9.69919e-01,9.99999e-01
5.006483283e-01,9.70445e-01,9.99999e-01,9.99999e-01,9.99938e-01,9.70504e-01,9.99999e-01
5.031515699e-01,9.70776e-01,9.99999e-01,9.99999e-01,9.99690e-01,9.71079e-01,9.99996e-01
5.056673278e-01,9.71480e-01,9.99999e-01,9.99999e-01,9.99836e-01,9.71642e-01,9.99995e-01
5.081956644e-01,9.71992e-01,9.99999e-01,9.99999e-01,9.99794e-01,9.72194e-01,9.99997e-01
5.107366428e-01,9.72601e-01,9.99999e-01,9.99999e-01,9.99861e-01,9.72736e-01,9.99999e-01
5.132903260e-01,9.73190e-01,9.99999e-01,9.99999e-01,9.99920e-01,9.73267e-01,9.99999e-01
5.158567776e-01,9.73755e-01,9.99999e-01,9.99999e-01,9.99966e-01,9.73788e-01,9.99999e-01
5.184360615e-01,9.74286e-01,9.99999e-01,9.99999e-01,9.99986e-01,9.74299e-01,9.99999e-01
5.210282418e-01,9.74795e-01,9.99999e-01,9.99999e-01,9.99994e-01,9.74800e-01,9.99999e-01
5.236333830e-01,9.75272e-01,9.99999e-01,9.99999e-01,9.99979e-01,9.75292e-01,9.99999e-01
5.262515499e-01,9.75761e-01,9.99999e-01,9.99999e-01,9.99986e-01,9.75774e-01,9.99999e-01
5.288828077e-01,9.76235e-01,9.99999e-01,9.99999e-01,9.99987e-01,9.76246e-01,9.99999e-01
5.315272217e-01,9.76700e-01,9.99999e-01,9.99999e-01,9.99989e-01,9.76710e-01,9.99999e-01
5.341848578e-01,9.77158e-01,9.99999e-01,9.99999e-01,9.99992e-01,9.77165e-01,9.99999e-01
5.368557821e-01,9.77588e-01,9.99999e-01,9.99999e-01,9.99976e-01,9.77611e-01,9.99999e-01
5.395400610e-01,9.77964e-01,9.99999e-01,9.99999e-01,9.99914e-01,9.78048e-01,9.99998e-01
5.422377613e-01,9.78369e-01,9.99999e-01,9.99999e-01,9.99890e-01,9.78477e-01,9.99997e-01
5.449489501e-01,9.78796e-01,9.99999e-01,9.99999e-01,9.99897e-01,9.78898e-01,9.99997e-01
5.476736949e-01,9.79221e-01,9.99999e-01,9.99999e-01,9.99909e-01,9.79310e-01,9.99998e-01
5.504120634e-01,9.79651e-01,9.99999e-01,9.99999e-01,9.99934e-01,9.79715e-01,9.99999e-01
5.531641237e-01,9.80079e-01,9.99999e-01,9.99999e-01,9.99966e-01,9.80111e-01,9.99999e-01
5.559299443e-01,9.80485e-01,9.99999e-01,9.99999e-01,9.99983e-01,9.80500e-01,9.99999e-01
5.587095940e-01,9.80872e-01,9.99999e-01,9.99999e-01,9.99989e-01,9.80882e-01,9.99999e-01
5.615031420e-01,9.81245e-01,9.99999e-01,9.99999e-01,9.99988e-01,9.81256e-01,9.99999e-01
5.643106577e-01,9.81610e-01,9.99999e-01,9.99999e-01,9.99986e-01,9.81623e-01,9.99999e-01
5.671322110e-01,9.81830e-01,9.99999e-01,9.99999e-01,9.99845e-01,9.81982e-01,9.99998e-01
5.699678720e-01,9.82172e-01,9.99999e-01,9.99999e-01,9.99838e-01,9.82335e-01,9.99995e-01
5.728177114e-01,9.82511e-01,9.99999e-01,9.99999e-01,9.99830e-01,9.82681e-01,9.99996e-01
5.756818000e-01,9.82866e-01,9.99999e-01,9.99999e-01,9.99844e-01,9.83020e-01,9.99997e-01
5.785602090e-01,9.83219e-01,9.99999e-01,9.99999e-01,9.99864e-01,9.83353e-01,9.99998e-01
5.814530100e-01,9.83545e-01,9.99999e-01,9.99999e-01,9.99863e-01,9.83679e-01,9.99999e-01
5.843602750e-01,9.83838e-01,9.99999e-01,9.99999e-01,9.99837e-01,9.83998e-01,9.99998e-01
5.872820764e-01,9.82925e-01,9.99999e-01,9.99999e-01,9.98599e-01,9.84312e-01,9.99989e-01
5.902184868e-01,9.82931e-01,9.99999e-01,9.99999e-01,9.98311e-01,9.84619e-01,9.99972e-01
5.931695792e-01,9.83719e-01,9.99999e-01,9.99999e-01,9.98805e-01,9.84921e-01,9.99973e-01
5.961354271e-01,9.83914e-01,9.99999e-01,9.99999e-01,9.98691e-01,9.85217e-01,9.99984e-01
5.991161043e-01,9.84563e-01,9.99999e-01,9.99999e-01,9.99046e-01,9.85506e-01,9.99994e-01
6.021116848e-01,9.85257e-01,9.99999e-01,9.99999e-01,9.99459e-01,9.85791e-01,9.99998e-01
6.051222432e-01,9.85800e-01,9.99999e-01,9.99999e-01,9.99726e-01,9.86069e-01,9.99999e-01
6.081478544e-01,9.86226e-01,9.99999e-01,9.99999e-01,9.99881e-01,9.86343e-01,9.99999e-01
6.111885937e-01,9.86561e-01,9.99999e-01,9.99999e-01,9.99949e-01,9.86610e-01,9.99999e-01
6.142445367e-01,9.86851e-01,9.99999e-01,9.99999e-01,9.99977e-01,9.86873e-01,9.99999e-01
6.173157594e-01,9.87119e-01,9.99999e-01,9.99999e-01,9.99987e-01,9.87131e-01,9.99999e-01
6.204023382e-01,9.87373e-01,9.99999e-01,9.99999e-01,9.99989e-01,9.87383e-01,9.99999e-01
6.235043498e-01,9.87585e-01,9.99999e-01,9.99999e-01,9.99953e-01,9.87631e-01,9.99999e-01
6.266218716e-01,9.87632e-01,9.99999e-01,9.99999e-01,9.99756e-01,9.87874e-01,9.99997e-01
6.297549810e-01,9.88020e-01,9.99999e-01,9.99999e-01,9.99910e-01,9.88112e-01,9.99996e-01
6.329037559e-01,9.88169e-01,9.99999e-01,9.99999e-01,9.99823e-01,9.88345e-01,9.99996e-01
6.360682746e-01,9.88424e-01,9.99999e-01,9.99999e-01,9.99849e-01,9.88574e-01,9.99997e-01
6.392486160e-01,9.88606e-01,9.99999e-01,9.99999e-01,9.99805e-01,9.88799e-01,9.99998e-01
6.424448591e-01,9.88759e-01,9.99999e-01,9.99999e-01,9.99738e-01,9.89019e-01,9.99998e-01
6.456570834e-01,9.88027e-01,9.99999e-01,9.99999e-01,9.98786e-01,9.89234e-01,9.99992e-01
6.488853688e-01,9.88553e-01,9.99999e-01,9.99999e-01,9.99116e-01,9.89446e-01,9.99980e-01
6.521297956e-01,9.88747e-01,9.99999e-01,9.99999e-01,9.99099e-01,9.89653e-01,9.99984e-01
6.553904446e-01,9.88956e-01,9.99999e-01,9.99999e-01,9.99101e-01,9.89857e-01,9.99988e-01
6.586673968e-01,9.89292e-01,9.99999e-01,9.99999e-01,9.99232e-01,9.90056e-01,9.99995e-01
6.619607338e-01,9.89827e-01,9.99999e-01,9.99999e-01,9.99572e-01,9.90251e-01,9.99998e-01
6.652705375e-01,9.90188e-01,9.99999e-01,9.99999e-01,9.99743e-01,9.90443e-01,9.99999e-01
6.685968902e-01,9.90523e-01,9.99999e-01,9.99999e-01,9.99890e-01,9.90631e-01,9.99999e-01
6.719398746e-01,9.90760e-01,9.99999e-01,9.99999e-01,9.99944e-01,9.90815e-01,9.99999e-01
6.752995740e-01,9.90966e-01,9.99999e-01,9.99999e-01,9.99969e-01,9.90996e-01,9.99999e-01
6.786760719e-01,9.91130e-01,9.99999e-01,9.99999e-01,9.99956e-01,9.91173e-01,9.99999e-01
6.820694522e-01,9.91272e-01,9.99999e-01,9.99999e-01,9.99925e-01,9.91346e-01,9.99999e-01
6.854797995e-01,9.91421e-01,9.99999e-01,9.99999e-01,9.99903e-01,9.91516e-01,9.99998e-01
6.889071985e-01,9.91450e-01,9.99999e-01,9.99999e-01,9.99766e-01,9.91683e-01,9.99997e-01
6.923517345e-01,9.88067e-01,9.99999e-01,9.99999e-01,9.96206e-01,9.91847e-01,9.99981e-01
6.958134932e-01,9.90029e-01,9.99999e-01,9.99999e-01,9.98045e-01,9.92007e-01,9.99959e-01
6.992925606e-01,9.90270e-01,9.99999e-01,9.99999e-01,9.98125e-01,9.92164e-01,9.99963e-01
7.027890234e-01,9.90005e-01,9.99999e-01,9.99999e-01,9.97695e-01,9.92319e-01,9.99971e-01
7.063029686e-01,9.90533e-01,9.99999e-01,9.99999e-01,9.98061e-01,9.92470e-01,9.99985e-01
7.098344834e-01,9.90765e-01,9.99999e-01,9.99999e-01,9.98140e-01,9.92618e-01,9.99991e-01
7.133836558e-01,9.90271e-01,9.99999e-01,9.99999e-01,9.97505e-01,9.92763e-01,9.99983e-01
7.169505741e-01,9.72981e-01,9.99999e-01,9.99999e-01,9.80056e-01,9.92906e-01,9.99872e-01
7.205353270e-01,9.83187e-01,9.99999e-01,9.99999e-01,9.90294e-01,9.93045e-01,9.99775e-01
7.241380036e-01,9.80679e-01,9.99999e-01,9.99999e-01,9.87601e-01,9.93182e-01,9.99806e-01
7.277586936e-01,9.82046e-01,9.99999e-01,9.99999e-01,9.88809e-01,9.93316e-01,9.99841e-01
7.313974871e-01,9.81609e-01,9.99999e-01,9.99999e-01,9.88155e-01,9.93448e-01,9.99925e-01
7.350544745e-01,9.87109e-01,9.99999e-01,9.99999e-01,9.93515e-01,9.93577e-01,9.99973e-01
7.387297469e-01,9.88952e-01,9.99999e-01,9.99999e-01,9.95230e-01,9.93703e-01,9.99987e-01
7.424233956e-01,9.91508e-01,9.99999e-01,9.99999e-01,9.97667e-01,9.93827e-01,9.99997e-01
7.461355126e-01,9.92543e-01,9.99999e-01,9.99999e-01,9.98585e-01,9.93949e-01,9.99999e-01
7.498661902e-01,9.93414e-01,9.99999e-01,9.99999e-01,9.99341e-01,9.94068e-01,9.99999e-01
7.536155211e-01,9.93864e-01,9.99999e-01,9.99999e-01,9.99676e-01,9.94185e-01,9.99999e-01
7.573835987e-01,9.94134e-01,9.99999e-01,9.99999e-01,9.99833e-01,9.94299e-01,9.99999e-01
7.611705167e-01,9.94309e-01,9.99999e-01,9.99999e-01,9.99896e-01,9.94412e-01,9.99999e-01
7.649763693e-01,9.94457e-01,9.99999e-01,9.99999e-01,9.99934e-01,9.94522e-01,9.99999e-01
7.688012511e-01,9.94585e-01,9.99999e-01,9.99999e-01,9.99954e-01,9.94630e-01,9.99999e-01
7.726452574e-01,9.94698e-01,9.99999e-01,9.99999e-01,9.99962e-01,9.94735e-01,9.99999e-01
7.765084837e-01,9.94786e-01,9.99999e-01,9.99999e-01,9.99946e-01,9.94839e-01,9.99999e-01
7.803910261e-01,9.94713e-01,9.99999e-01,9.99999e-01,9.99770e-01,9.94941e-01,9.99999e-01
7.842929812e-01,9.94243e-01,9.99999e-01,9.99999e-01,9.99199e-01,9.95040e-01,9.99998e-01
7.882144461e-01,9.93493e-01,9.99999e-01,9.99999e-01,9.98357e-01,9.95138e-01,9.99988e-01
7.921555184e-01,9.94320e-01,9.99999e-01,9.99999e-01,9.99101e-01,9.95234e-01,9.99979e-01
7.961162960e-01,9.93720e-01,9.99999e-01,9.99999e-01,9.98403e-01,9.95328e-01,9.99980e-01
8.000968774e-01,9.93570e-01,9.99999e-01,9.99999e-01,9.98161e-01,9.95420e-01,9.99979e-01
8.040973618e-01,9.93663e-01,9.99999e-01,9.99999e-01,9.98159e-01,9.95510e-01,9.99984e-01
8.081178486e-01,9.91440e-01,9.99999e-01,9.99999e-01,9.95837e-01,9.95599e-01,9.99984e-01
8.121584379e-01,9.78430e-01,9.99999e-01,9.99999e-01,9.82726e-01,9.95685e-01,9.99941e-01
8.162192301e-01,9.75245e-01,9.99999e-01,9.99999e-01,9.79600e-01,9.95770e-01,9.99781e-01
8.203003262e-01,9.85281e-01,9.99999e-01,9.99999e-01,9.89635e-01,9.95854e-01,9.99744e-01
8.244018279e-01,9.81472e-01,9.99999e-01,9.99999e-01,9.85676e-01,9.95935e-01,9.99796e-01
8.285238370e-01,9.83674e-01,9.99999e-01,9.99999e-01,9.87765e-01,9.96015e-01,9.99840e-01
8.326664562e-01,9.83728e-01,9.99999e-01,9.99999e-01,9.87650e-01,9.96094e-01,9.99933e-01
8.368297885e-01,9.87380e-01,9.99999e-01,9.99999e-01,9.91190e-01,9.96171e-01,9.99984e-01
8.410139374e-01,9.91020e-01,9.99999e-01,9.99999e-01,9.94762e-01,9.96246e-01,9.99990e-01
8.452190071e-01,9.93757e-01,9.99999e-01,9.99999e-01,9.97431e-01,9.96320e-01,9.99994e-01
8.494451021e-01,9.94902e-01,9.99999e-01,9.99999e-01,9.98507e-01,9.96393e-01,9.99995e-01
8.536923276e-01,9.95584e-01,9.99999e-01,9.99999e-01,9.99118e-01,9.96464e-01,9.99996e-01
8.579607893e-01,9.95992e-01,9.99999e-01,9.99999e-01,9.99456e-01,9.96534e-01,9.99998e-01
8.622505932e-01,9.96258e-01,9.99999e-01,9.99999e-01,9.99654e-01,9.96602e-01,9.99999e-01
8.665618462e-01,9.96456e-01,9.99999e-01,9.99999e-01,9.99785e-01,9.96669e-01,9.99999e-01
8.708946554e-01,9.96491e-01,9.99999e-01,9.99999e-01,9.99754e-01,9.96735e-01,9.99999e-01
8.752491287e-01,9.96472e-01,9.99999e-01,9.99999e-01,9.99672e-01,9.96799e-01,9.99999e-01
8.796253743e-01,9.96409e-01,9.99999e-01,9.99999e-01,9.99545e-01,9.96862e-01,9.99998e-01
8.840235012e-01,9.96404e-01,9.99999e-01,9.99999e-01,9.99480e-01,9.96924e-01,9.99996e-01
8.884436187e-01,9.95071e-01,9.99999e-01,9.99999e-01,9.98088e-01,9.96985e-01,9.99990e-01
8.928858368e-01,9.77125e-01,9.99999e-01,9.99999e-01,9.80071e-01,9.97044e-01,9.99947e-01
8.973502660e-01,9.62049e-01,9.99999e-01,9.99999e-01,9.65099e-01,9.97102e-01,9.99734e-01
9.018370173e-01,9.78892e-01,9.99999e-01,9.99999e-01,9.82089e-01,9.97160e-01,9.99582e-01
9.063462024e-01,9.81028e-01,9.99999e-01,9.99999e-01,9.84126e-01,9.97216e-01,9.99633e-01
9.108779334e-01,9.72374e-01,9.99999e-01,9.99999e-01,9.75405e-01,9.97271e-01,9.99619e-01
9.154323231e-01,9.69260e-01,9.99999e-01,9.99999e-01,9.72165e-01,9.97324e-01,9.99685e-01
9.200094847e-01,9.75401e-01,9.99999e-01,9.99999e-01,9.78138e-01,9.97377e-01,9.99823e-01
9.246095321e-01,9.62566e-01,9.99999e-01,9.99999e-01,9.65242e-01,9.97429e-01,9.99796e-01
9.292325798e-01,7.85607e-01,9.99999e-01,9.99999e-01,7.88214e-01,9.97480e-01,9.99209e-01
9.338787427e-01,7.31312e-01,9.99999e-01,9.99999e-01,7.35523e-01,9.97529e-01,9.96736e-01
9.385481364e-01,8.78498e-01,9.99999e-01,9.99999e-01,8.84060e-01,9.97578e-01,9.96119e-01
9.432408771e-01,8.34726e-01,9.99999e-01,9.99999e-01,8.39523e-01,9.97626e-01,9.96651e-01
9.479570815e-01,7.78485e-01,9.99999e-01,9.99999e-01,7.82433e-01,9.97673e-01,9.97273e-01
9.526968669e-01,8.32097e-01,9.99999e-01,9.99999e-01,8.35389e-01,9.97718e-01,9.98336e-01
9.574603512e-01,8.48044e-01,9.99999e-01,9.99999e-01,8.50663e-01,9.97763e-01,9.99154e-01
9.622476530e-01,8.75031e-01,9.99999e-01,9.99999e-01,8.77466e-01,9.97808e-01,9.99414e-01
9.670588912e-01,9.25203e-01,9.99999e-01,9.99999e-01,9.27566e-01,9.97851e-01,9.99599e-01
9.718941857e-01,9.52054e-01,9.99999e-01,9.99999e-01,9.54344e-01,9.97893e-01,9.99705e-01
9.767536566e-01,9.59763e-01,9.99999e-01,9.99999e-01,9.61965e-01,9.97935e-01,9.99774e-01
9.816374249e-01,9.69704e-01,9.99999e-01,9.99999e-01,9.71746e-01,9.97975e-01,9.99921e-01
9.865456120e-01,9.80309e-01,9.99999e-01,9.99999e-01,9.82274e-01,9.98015e-01,9.99983e-01
9.914783401e-01,9.87084e-01,9.99999e-01,9.99999e-01,9.89012e-01,9.98055e-01,9.99995e-01
9.964357318e-01,9.92106e-01,9.99999e-01,9.99999e-01,9.94003e-01,9.98093e-01,9.99996e-01
1.001417910e+00,9.94538e-01,9.99999e-01,9.99999e-01,9.96403e-01,9.98131e-01,9.99995e-01
1.006425000e+00,9.96113e-01,9.99999e-01,9.99999e-01,9.97947e-01,9.98167e-01,9.99993e-01
1.011457125e+00,9.96928e-01,9.99999e-01,9.99999e-01,9.98726e-01,9.98204e-01,9.99994e-01
1.016514411e+00,9.97372e-01,9.99999e-01,9.99999e-01,9.99134e-01,9.98239e-01,9.99995e-01
1.021596983e+00,9.97582e-01,9.99999e-01,9.99999e-01,9.99310e-01,9.98274e-01,9.99995e-01
1.026704968e+00,9.97769e-01,9.99999e-01,9.99999e-01,9.99461e-01,9.98308e-01,9.99997e-01
1.031838492e+00,9.97951e-01,9.99999e-01,9.99999e-01,9.99609e-01,9.98341e-01,9.99998e-01
1.036997685e+00,9.98142e-01,9.99999e-01,9.99999e-01,9.99767e-01,9.98374e-01,9.99999e-01
1.042182673e+00,9.98129e-01,9.99999e-01,9.99999e-01,9.99722e-01,9.98406e-01,9.99999e-01
1.047393587e+00,9.98071e-01,9.99999e-01,9.99999e-01,9.99632e-01,9.98437e-01,9.99999e-01
1.052630555e+00,9.97965e-01,9.99999e-01,9.99999e-01,9.99495e-01,9.98468e-01,9.99999e-01
1.057893707e+00,9.97657e-01,9.99999e-01,9.99999e-01,9.99156e-01,9.98498e-01,9.99999e-01
1.063183176e+00,9.97143e-01,9.99999e-01,9.99999e-01,9.98613e-01,9.98528e-01,9.99998e-01
1.068499092e+00,9.96240e-01,9.99999e-01,9.99999e-01,9.97680e-01,9.98557e-01,9.99997e-01
1.073841587e+00,9.95868e-01,9.99999e-01,9.99999e-01,9.97281e-01,9.98586e-01,9.99996e-01
1.079210795e+00,9.95133e-01,9.99999e-01,9.99999e-01,9.96523e-01,9.98613e-01,9.99990e-01
1.084606849e+00,9.93362e-01,9.99999e-01,9.99999e-01,9.94735e-01,9.98641e-01,9.99977e-01
1.090029883e+00,9.91051e-01,9.99999e-01,9.99999e-01,9.92418e-01,9.98668e-01,9.99953e-01
1.095480033e+00,9.78127e-01,9.99999e-01,9.99999e-01,9.79487e-01,9.98694e-01,9.99916e-01
1.100957433e+00,9.47200e-01,9.99999e-01,9.99999e-01,9.48559e-01,9.98720e-01,9.99845e-01
1.106462220e+00,8.71895e-01,9.99999e-01,9.99999e-01,8.73218e-01,9.98745e-01,9.99738e-01
1.111994531e+00,7.49538e-01,9.99999e-01,9.99999e-01,7.50980e-01,9.98770e-01,9.99307e-01
1.117554504e+00,6.25002e-01,9.99999e-01,9.99999e-01,6.27322e-01,9.98794e-01,9.97503e-01
1.123142276e+00,6.99860e-01,9.99999e-01,9.99999e-01,7.04852e-01,9.98818e-01,9.94091e-01
1.128757988e+00,7.95476e-01,9.99999e-01,9.99999e-01,8.01876e-01,9.98841e-01,9.93167e-01
1.134401778e+00,5.80740e-01,9.99999e-01,9.99999e-01,5.84799e-01,9.98864e-01,9.94187e-01
1.140073787e+00,8.73312e-01,9.99999e-01,9.99999e-01,8.78367e-01,9.98886e-01,9.95352e-01
1.145774156e+00,7.56530e-01,9.99999e-01,9.99999e-01,7.60592e-01,9.98908e-01,9.95745e-01
1.151503026e+00,7.32795e-01,9.99999e-01,9.99999e-01,7.35324e-01,9.98930e-01,9.97627e-01
1.157260541e+00,7.76769e-01,9.99999e-01,9.99999e-01,7.78137e-01,9.98951e-01,9.99289e-01
1.163046844e+00,8.30459e-01,9.99999e-01,9.99999e-01,8.31480e-01,9.98972e-01,9.99798e-01
1.168862078e+00,8.79522e-01,9.99999e-01,9.99999e-01,8.80499e-01,9.98992e-01,9.99895e-01
1.174706389e+00,9.23450e-01,9.99999e-01,9.99999e-01,9.24489e-01,9.99012e-01,9.99862e-01
1.180579921e+00,9.52263e-01,9.99999e-01,9.99999e-01,9.53383e-01,9.99031e-01,9.99791e-01
1.186482820e+00,9.72291e-01,9.99999e-01,9.99999e-01,9.73421e-01,9.99050e-01,9.99786e-01
1.192415234e+00,9.83338e-01,9.99999e-01,9.99999e-01,9.84410e-01,9.99069e-01,9.99839e-01
1.198377311e+00,9.85783e-01,9.99999e-01,9.99999e-01,9.86831e-01,9.99087e-01,9.99848e-01
1.204369197e+00,9.86513e-01,9.99999e-01,9.99999e-01,9.87530e-01,9.99105e-01,9.99863e-01
1.210391043e+00,9.87132e-01,9.99999e-01,9.99999e-01,9.88080e-01,9.99123e-01,9.99916e-01
1.216442998e+00,9.88961e-01,9.99999e-01,9.99999e-01,9.89861e-01,9.99140e-01,9.99948e-01
1.222525213e+00,9.91233e-01,9.99999e-01,9.99999e-01,9.92099e-01,9.99157e-01,9.99967e-01
1.228637839e+00,9.93672e-01,9.99999e-01,9.99999e-01,9.94507e-01,9.99174e-01,9.99984e-01
