#,Wave/freq,Total,N2,O2,H2O,Rayleigh,CIA
4.000000000e-01,3.28885e-01,9.99999e-01,9.99999e-01,9.99874e-01,3.28926e-01,9.99999e-01
4.020000000e-01,3.36211e-01,9.99999e-01,9.99999e-01,9.99921e-01,3.36238e-01,9.99999e-01
4.040100000e-01,3.43544e-01,9.99999e-01,9.99999e-01,9.99966e-01,3.43555e-01,9.99999e-01
4.060300500e-01,3.50880e-01,9.99999e-01,9.99999e-01,9.99991e-01,3.50882e-01,9.99999e-01
4.080602003e-01,3.58216e-01,9.99999e-01,9.99999e-01,9.99997e-01,3.58217e-01,9.99999e-01
4.101005013e-01,3.65555e-01,9.99999e-01,9.99999e-01,9.99999e-01,3.65555e-01,9.99999e-01
4.121510038e-01,3.72892e-01,9.99999e-01,9.99999e-01,9.99994e-01,3.72894e-01,9.99999e-01
4.142117588e-01,3.80218e-01,9.99999e-01,9.99999e-01,9.99965e-01,3.80231e-01,9.99999e-01
4.162828176e-01,3.87503e-01,9.99999e-01,9.99999e-01,9.99844e-01,3.87563e-01,9.99999e-01
4.183642317e-01,3.94851e-01,9.99999e-01,9.99999e-01,9.99907e-01,3.94888e-01,9.99999e-01
4.204560528e-01,4.02179e-01,9.99999e-01,9.99999e-01,9.99942e-01,4.02202e-01,9.99999e-01
4.225583331e-01,4.09495e-01,9.99999e-01,9.99999e-01,9.99978e-01,4.09503e-01,9.99999e-01
4.246711247e-01,4.16782e-01,9.99999e-01,9.99999e-01,9.99982e-01,4.16789e-01,9.99999e-01
4.267944804e-01,4.24046e-01,9.99999e-01,9.99999e-01,9.99974e-01,4.24057e-01,9.99999e-01
4.289284528e-01,4.31296e-01,9.99999e-01,9.99999e-01,9.99980e-01,4.31304e-01,9.99999e-01
4.310730950e-01,4.38524e-01,9.99999e-01,9.99999e-01,9.99991e-01,4.38528e-01,9.99999e-01
4.332284605e-01,4.45726e-01,9.99999e-01,9.99999e-01,9.99997e-01,4.45727e-01,9.99999e-01
4.353946028e-01,4.52898e-01,9.99999e-01,9.99999e-01,9.99998e-01,4.52898e-01,9.99999e-01
4.375715758e-01,4.60033e-01,9.99999e-01,9.99999e-01,9.99984e-01,4.60040e-01,9.99999e-01
4.397594337e-01,4.67086e-01,9.99999e-01,9.99999e-01,9.99864e-01,4.67149e-01,9.99999e-01
4.419582309e-01,4.73901e-01,9.99999e-01,9.99999e-01,9.99314e-01,4.74226e-01,9.99999e-01
4.441680220e-01,4.81004e-01,9.99999e-01,9.99999e-01,9.99456e-01,4.81266e-01,9.99999e-01
4.463888621e-01,4.87994e-01,9.99999e-01,9.99999e-01,9.99436e-01,4.88268e-01,9.99999e-01
4.486208064e-01,4.95058e-01,9.99999e-01,9.99999e-01,9.99648e-01,4.95232e-01,9.99999e-01
4.508639105e-01,5.02071e-01,9.99999e-01,9.99999e-01,9.99835e-01,5.02154e-01,9.99999e-01
4.531182300e-01,5.09000e-01,9.99999e-01,9.99999e-01,9.99934e-01,5.09033e-01,9.99999e-01
4.553838212e-01,5.15845e-01,9.99999e-01,9.99999e-01,9.99955e-01,5.15868e-01,9.99999e-01
4.576607403e-01,5.22646e-01,9.99999e-01,9.99999e-01,9.99979e-01,5.22657e-01,9.99999e-01
4.599490440e-01,5.29391e-01,9.99999e-01,9.99999e-01,9.99985e-01,5.29398e-01,9.99999e-01
4.622487892e-01,5.36090e-01,9.99999e-01,9.99999e-01,9.99997e-01,5.36091e-01,9.99999e-01
4.645600332e-01,5.42728e-01,9.99999e-01,9.99999e-01,9.99989e-01,5.42733e-01,9.99999e-01
4.668828333e-01,5.49234e-01,9.99999e-01,9.99999e-01,9.99835e-01,5.49325e-01,9.99999e-01
4.692172475e-01,5.55667e-01,9.99999e-01,9.99999e-01,9.99646e-01,5.55864e-01,9.99999e-01
4.715633337e-01,5.62219e-01,9.99999e-01,9.99999e-01,9.99769e-01,5.62349e-01,9.99999e-01
4.739211504e-01,5.68653e-01,9.99999e-01,9.99999e-01,9.99778e-01,5.68779e-01,9.99999e-01
4.762907561e-01,5.75088e-01,9.99999e-01,9.99999e-01,9.99884e-01,5.75154e-01,9.99999e-01
4.786722099e-01,5.81445e-01,9.99999e-01,9.99999e-01,9.99952e-01,5.81472e-01,9.99999e-01
4.810655710e-01,5.87725e-01,9.99999e-01,9.99999e-01,9.99985e-01,5.87733e-01,9.99999e-01
4.834708988e-01,5.93857e-01,9.99999e-01,9.99999e-01,9.99866e-01,5.93936e-01,9.99999e-01
4.858882533e-01,5.99929e-01,9.99999e-01,9.99999e-01,9.99749e-01,6.00079e-01,9.99999e-01
4.883176946e-01,6.06037e-01,9.99999e-01,9.99999e-01,9.99791e-01,6.06163e-01,9.99999e-01
4.907592831e-01,6.12071e-01,9.99999e-01,9.99999e-01,9.99810e-01,6.12187e-01,9.99999e-01
4.932130795e-01,6.18066e-01,9.99999e-01,9.99999e-01,9.99865e-01,6.18149e-01,9.99999e-01
4.956791449e-01,6.24006e-01,9.99999e-01,9.99999e-01,9.99928e-01,6.24051e-01,9.99999e-01
4.981575406e-01,6.29667e-01,9.99999e-01,9.99999e-01,9.99645e-01,6.29890e-01,9.99999e-01
5.006483283e-01,6.35084e-01,9.99999e-01,9.99999e-01,9.99087e-01,6.35667e-01,9.99993e-01
5.031515699e-01,6.38372e-01,9.99999e-01,9.99999e-01,9.95356e-01,6.41382e-01,9.99950e-01
5.056673278e-01,6.45405e-01,9.99999e-01,9.99999e-01,9.97539e-01,6.47033e-01,9.99943e-01
5.081956644e-01,6.50572e-01,9.99999e-01,9.99999e-01,9.96895e-01,6.52621e-01,9.99963e-01
5.107366428e-01,6.56760e-01,9.99999e-01,9.99999e-01,9.97901e-01,6.58146e-01,9.99992e-01
5.132903260e-01,6.62809e-01,9.99999e-01,9.99999e-01,9.98798e-01,6.63606e-01,9.99998e-01
5.158567776e-01,6.68664e-01,9.99999e-01,9.99999e-01,9.99491e-01,6.69003e-01,9.99999e-01
5.184360615e-01,6.74199e-01,9.99999e-01,9.99999e-01,9.99796e-01,6.74336e-01,9.99999e-01
5.210282418e-01,6.79554e-01,9.99999e-01,9.99999e-01,9.99923e-01,6.79605e-01,9.99999e-01
5.236333830e-01,6.84600e-01,9.99999e-01,9.99999e-01,9.99696e-01,6.84810e-01,9.99997e-01
5.262515499e-01,6.89817e-01,9.99999e-01,9.99999e-01,9.99809e-01,6.89950e-01,9.99996e-01
5.288828077e-01,6.94905e-01,9.99999e-01,9.99999e-01,9.99825e-01,6.95027e-01,9.99997e-01
5.315272217e-01,6.99931e-01,9.99999e-01,9.99999e-01,9.99845e-01,7.00039e-01,9.99999e-01
5.341848578e-01,7.04917e-01,9.99999e-01,9.99999e-01,9.99899e-01,7.04988e-01,9.99999e-01
5.368557821e-01,7.09622e-01,9.99999e-01,9.99999e-01,9.99647e-01,7.09873e-01,9.99998e-01
5.395400610e-01,7.13782e-01,9.99999e-01,9.99999e-01,9.98734e-01,7.14694e-01,9.99989e-01
5.422377613e-01,7.18241e-01,9.99999e-01,9.99999e-01,9.98346e-01,7.19451e-01,9.99969e-01
5.449489501e-01,7.23016e-01,9.99999e-01,9.99999e-01,9.98470e-01,7.24146e-01,9.99968e-01
5.476736949e-01,7.27773e-01,9.99999e-01,9.99999e-01,9.98637e-01,7.28777e-01,9.99984e-01
5.504120634e-01,7.32618e-01,9.99999e-01,9.99999e-01,9.99011e-01,7.33346e-01,9.99995e-01
5.531641237e-01,7.37485e-01,9.99999e-01,9.99999e-01,9.99502e-01,7.37852e-01,9.99998e-01
5.559299443e-01,7.42118e-01,9.99999e-01,9.99999e-01,9.99759e-01,7.42296e-01,9.99999e-01
5.587095940e-01,7.46566e-01,9.99999e-01,9.99999e-01,9.99849e-01,7.46678e-01,9.99999e-01
5.615031420e-01,7.50874e-01,9.99999e-01,9.99999e-01,9.99832e-01,7.50999e-01,9.99999e-01
5.643106577e-01,7.55116e-01,9.99999e-01,9.99999e-01,9.99812e-01,7.55259e-01,9.99997e-01
5.671322110e-01,7.57720e-01,9.99999e-01,9.99999e-01,9.97731e-01,7.59458e-01,9.99979e-01
5.699678720e-01,7.61667e-01,9.99999e-01,9.99999e-01,9.97535e-01,7.63597e-01,9.99936e-01
5.728177114e-01,7.65681e-01,9.99999e-01,9.99999e-01,9.97453e-01,7.67676e-01,9.99947e-01
5.756818000e-01,7.69864e-01,9.99999e-01,9.99999e-01,9.97658e-01,7.71695e-01,9.99967e-01
5.785602090e-01,7.74063e-01,9.99999e-01,9.99999e-01,9.97955e-01,7.75656e-01,9.99989e-01
5.814530100e-01,7.77957e-01,9.99999e-01,9.99999e-01,9.97950e-01,7.79558e-01,9.99995e-01
5.843602750e-01,7.81491e-01,9.99999e-01,9.99999e-01,9.97573e-01,7.83402e-01,9.99985e-01
5.872820764e-01,7.70783e-01,9.99999e-01,9.99999e-01,9.79304e-01,7.87189e-01,9.99851e-01
5.902184868e-01,7.70624e-01,9.99999e-01,9.99999e-01,9.74733e-01,7.90918e-01,9.99596e-01
5.931695792e-01,7.80110e-01,9.99999e-01,9.99999e-01,9.82160e-01,7.94591e-01,9.99607e-01
5.961354271e-01,7.82380e-01,9.99999e-01,9.99999e-01,9.80402e-01,7.98208e-01,9.99762e-01
5.991161043e-01,7.90209e-01,9.99999e-01,9.99999e-01,9.85648e-01,8.01769e-01,9.99930e-01
6.021116848e-01,7.98686e-01,9.99999e-01,9.99999e-01,9.91824e-01,8.05276e-01,9.99991e-01
6.051222432e-01,8.05375e-01,9.99999e-01,9.99999e-01,9.95853e-01,8.08728e-01,9.99998e-01
6.081478544e-01,8.10674e-01,9.99999e-01,9.99999e-01,9.98211e-01,8.12126e-01,9.99999e-01
6.111885937e-01,8.14853e-01,9.99999e-01,9.99999e-01,9.99241e-01,8.15471e-01,9.99999e-01
6.142445367e-01,8.18487e-01,9.99999e-01,9.99999e-01,9.99661e-01,8.18764e-01,9.99999e-01
6.173157594e-01,8.21851e-01,9.99999e-01,9.99999e-01,9.99813e-01,8.22004e-01,9.99999e-01
6.204023382e-01,8.25063e-01,9.99999e-01,9.99999e-01,9.99842e-01,8.25193e-01,9.99999e-01
6.235043498e-01,8.27762e-01,9.99999e-01,9.99999e-01,9.99315e-01,8.28331e-01,9.99997e-01
6.266218716e-01,8.28349e-01,9.99999e-01,9.99999e-01,9.96334e-01,8.31418e-01,9.99973e-01
6.297549810e-01,8.33290e-01,9.99999e-01,9.99999e-01,9.98654e-01,8.34455e-01,9.99947e-01
6.329037559e-01,8.35178e-01,9.99999e-01,9.99999e-01,9.97335e-01,8.37444e-01,9.99958e-01
6.360682746e-01,8.38463e-01,9.99999e-01,9.99999e-01,9.97738e-01,8.40383e-01,9.99975e-01
6.392486160e-01,8.40791e-01,9.99999e-01,9.99999e-01,9.97064e-01,8.43275e-01,9.99988e-01
6.424448591e-01,8.42804e-01,9.99999e-01,9.99999e-01,9.96098e-01,8.46119e-01,9.99982e-01
6.456570834e-01,8.33568e-01,9.99999e-01,9.99999e-01,9.82019e-01,8.48916e-01,9.99898e-01
6.488853688e-01,8.38183e-01,9.99999e-01,9.99999e-01,9.84445e-01,8.51667e-01,9.99716e-01
6.521297956e-01,8.42608e-01,9.99999e-01,9.99999e-01,9.86463e-01,8.54372e-01,9.99762e-01
6.553904446e-01,8.45396e-01,9.99999e-01,9.99999e-01,9.86597e-01,8.57033e-01,9.99821e-01
6.586673968e-01,8.49651e-01,9.99999e-01,9.99999e-01,9.88427e-01,8.59648e-01,9.99941e-01
6.619607338e-01,8.56425e-01,9.99999e-01,9.99999e-01,9.93291e-01,8.62220e-01,9.99987e-01
6.652705375e-01,8.61373e-01,9.99999e-01,9.99999e-01,9.96102e-01,8.64749e-01,9.99993e-01
6.685968902e-01,8.65663e-01,9.99999e-01,9.99999e-01,9.98188e-01,8.67234e-01,9.99998e-01
6.719398746e-01,8.68947e-01,9.99999e-01,9.99999e-01,9.99159e-01,8.69678e-01,9.99999e-01
6.752995740e-01,8.71684e-01,9.99999e-01,9.99999e-01,9.99546e-01,8.72080e-01,9.99999e-01
6.786760719e-01,8.73870e-01,9.99999e-01,9.99999e-01,9.99347e-01,8.74441e-01,9.99998e-01
6.820694522e-01,8.75776e-01,9.99999e-01,9.99999e-01,9.98881e-01,8.76761e-01,9.99993e-01
6.854797995e-01,8.77764e-01,9.99999e-01,9.99999e-01,9.98558e-01,8.79042e-01,9.99987e-01
6.889071985e-01,8.78220e-01,9.99999e-01,9.99999e-01,9.96554e-01,8.81283e-01,9.99968e-01
6.923517345e-01,8.34589e-01,9.99999e-01,9.99999e-01,9.44913e-01,8.83486e-01,9.99726e-01
6.958134932e-01,8.59058e-01,9.99999e-01,9.99999e-01,9.70573e-01,8.85650e-01,9.99382e-01
6.992925606e-01,8.62741e-01,9.99999e-01,9.99999e-01,9.72326e-01,8.87777e-01,9.99456e-01
7.027890234e-01,8.59018e-01,9.99999e-01,9.99999e-01,9.65735e-01,8.89867e-01,9.99582e-01
7.063029686e-01,8.65961e-01,9.99999e-01,9.99999e-01,9.71096e-01,8.91920e-01,9.99792e-01
7.098344834e-01,8.69014e-01,9.99999e-01,9.99999e-01,9.72238e-01,8.93938e-01,9.99876e-01
7.133836558e-01,8.63148e-01,9.99999e-01,9.99999e-01,9.63655e-01,8.95919e-01,9.99755e-01
7.169505741e-01,6.69930e-01,9.99999e-01,9.99999e-01,7.47567e-01,8.97866e-01,9.98082e-01
7.205353270e-01,7.75125e-01,9.99999e-01,9.99999e-01,8.64382e-01,8.99779e-01,9.96619e-01
7.241380036e-01,7.48056e-01,9.99999e-01,9.99999e-01,8.32073e-01,9.01658e-01,9.97080e-01
7.277586936e-01,7.63556e-01,9.99999e-01,9.99999e-01,8.47127e-01,9.03504e-01,9.97612e-01
7.313974871e-01,7.56430e-01,9.99999e-01,9.99999e-01,8.36477e-01,9.05316e-01,9.98881e-01
7.350544745e-01,8.22248e-01,9.99999e-01,9.99999e-01,9.06813e-01,9.07097e-01,9.99610e-01
7.387297469e-01,8.45312e-01,9.99999e-01,9.99999e-01,9.30259e-01,9.08846e-01,9.99821e-01
7.424233956e-01,8.78778e-01,9.99999e-01,9.99999e-01,9.65126e-01,9.10563e-01,9.99965e-01
7.461355126e-01,8.92846e-01,9.99999e-01,9.99999e-01,9.78735e-01,9.12250e-01,9.99993e-01
7.498661902e-01,9.04786e-01,9.99999e-01,9.99999e-01,9.90022e-01,9.13906e-01,9.99997e-01
7.536155211e-01,9.11050e-01,9.99999e-01,9.99999e-01,9.95104e-01,9.15533e-01,9.99998e-01
7.573835987e-01,9.14815e-01,9.99999e-01,9.99999e-01,9.97475e-01,9.17130e-01,9.99999e-01
7.611705167e-01,9.17258e-01,9.99999e-01,9.99999e-01,9.98431e-01,9.18698e-01,9.99999e-01
7.649763693e-01,9.19335e-01,9.99999e-01,9.99999e-01,9.99017e-01,9.20238e-01,9.99999e-01
7.688012511e-01,9.21121e-01,9.99999e-01,9.99999e-01,9.99316e-01,9.21751e-01,9.99999e-01
7.726452574e-01,9.22716e-01,9.99999e-01,9.99999e-01,9.99437e-01,9.23235e-01,9.99999e-01
7.765084837e-01,9.23958e-01,9.99999e-01,9.99999e-01,9.99205e-01,9.24693e-01,9.99998e-01
7.803910261e-01,9.22950e-01,9.99999e-01,9.99999e-01,9.96575e-01,9.26124e-01,9.99996e-01
7.842929812e-01,9.16475e-01,9.99999e-01,9.99999e-01,9.88103e-01,9.27529e-01,9.99977e-01
7.882144461e-01,9.05992e-01,9.99999e-01,9.99999e-01,9.75477e-01,9.28908e-01,9.99847e-01
7.921555184e-01,9.17376e-01,9.99999e-01,9.99999e-01,9.86436e-01,9.30262e-01,9.99706e-01
7.961162960e-01,9.09309e-01,9.99999e-01,9.99999e-01,9.76355e-01,9.31592e-01,9.99718e-01
8.000968774e-01,9.07039e-01,9.99999e-01,9.99999e-01,9.72573e-01,9.32896e-01,9.99700e-01
8.040973618e-01,9.08374e-01,9.99999e-01,9.99999e-01,9.72608e-01,9.34177e-01,9.99762e-01
8.081178486e-01,8.79012e-01,9.99999e-01,9.99999e-01,9.39891e-01,9.35435e-01,9.99776e-01
8.121584379e-01,7.25089e-01,9.99999e-01,9.99999e-01,7.74792e-01,9.36669e-01,9.99124e-01
8.162192301e-01,6.89869e-01,9.99999e-01,9.99999e-01,7.37988e-01,9.37880e-01,9.96711e-01
8.203003262e-01,8.09398e-01,9.99999e-01,9.99999e-01,8.65246e-01,9.39069e-01,9.96150e-01
8.244018279e-01,7.66169e-01,9.99999e-01,9.99999e-01,8.17373e-01,9.40235e-01,9.96934e-01
8.285238370e-01,7.82566e-01,9.99999e-01,9.99999e-01,8.33301e-01,9.41381e-01,9.97591e-01
8.326664562e-01,7.83105e-01,9.99999e-01,9.99999e-01,8.31705e-01,9.42505e-01,9.99003e-01
8.368297885e-01,8.25732e-01,9.99999e-01,9.99999e-01,8.75278e-01,9.43608e-01,9.99771e-01
8.410139374e-01,8.72465e-01,9.99999e-01,9.99999e-01,9.23668e-01,9.44690e-01,9.99866e-01
8.452190071e-01,9.09462e-01,9.99999e-01,9.99999e-01,9.61704e-01,9.45752e-01,9.99919e-01
8.494451021e-01,9.25564e-01,9.99999e-01,9.99999e-01,9.77638e-01,9.46795e-01,9.99935e-01
8.536923276e-01,9.35158e-01,9.99999e-01,9.99999e-01,9.86684e-01,9.47818e-01,9.99957e-01
8.579607893e-01,9.41029e-01,9.99999e-01,9.99999e-01,9.91797e-01,9.48822e-01,9.99988e-01
8.622505932e-01,9.44841e-01,9.99999e-01,9.99999e-01,9.94772e-01,9.49807e-01,9.99997e-01
8.665618462e-01,9.47704e-01,9.99999e-01,9.99999e-01,9.96772e-01,9.50773e-01,9.99998e-01
8.708946554e-01,9.48210e-01,9.99999e-01,9.99999e-01,9.96311e-01,9.51722e-01,9.99997e-01
8.752491287e-01,9.47946e-01,9.99999e-01,9.99999e-01,9.95064e-01,9.52652e-01,9.99994e-01
8.796253743e-01,9.47056e-01,9.99999e-01,9.99999e-01,9.93187e-01,9.53566e-01,9.99984e-01
8.840235012e-01,9.46989e-01,9.99999e-01,9.99999e-01,9.92218e-01,9.54462e-01,9.99951e-01
8.884436187e-01,9.28924e-01,9.99999e-01,9.99999e-01,9.72480e-01,9.55341e-01,9.99864e-01
8.928858368e-01,7.14896e-01,9.99999e-01,9.99999e-01,7.48224e-01,9.56203e-01,9.99218e-01
8.973502660e-01,5.71267e-01,9.99999e-01,9.99999e-01,5.99300e-01,9.57049e-01,9.96000e-01
9.018370173e-01,7.31941e-01,9.99999e-01,9.99999e-01,7.68955e-01,9.57880e-01,9.93719e-01
9.063462024e-01,7.57244e-01,9.99999e-01,9.99999e-01,7.94252e-01,9.58694e-01,9.94480e-01
9.108779334e-01,6.65672e-01,9.99999e-01,9.99999e-01,6.97774e-01,9.59493e-01,9.94265e-01
9.154323231e-01,6.32657e-01,9.99999e-01,9.99999e-01,6.61966e-01,9.60277e-01,9.95257e-01
9.200094847e-01,6.95022e-01,9.99999e-01,9.99999e-01,7.25119e-01,9.61046e-01,9.97342e-01
9.246095321e-01,5.99857e-01,9.99999e-01,9.99999e-01,6.25595e-01,9.61801e-01,9.96939e-01
9.292325798e-01,6.49726e-02,9.99999e-01,9.99999e-01,6.83128e-02,9.62541e-01,9.88116e-01
9.338787427e-01,2.33385e-02,9.99999e-01,9.99999e-01,2.54559e-02,9.63267e-01,9.51781e-01
9.385481364e-01,2.03369e-01,9.99999e-01,9.99999e-01,2.23740e-01,9.63980e-01,9.42917e-01
9.432408771e-01,1.30123e-01,9.99999e-01,9.99999e-01,1.41904e-01,9.64678e-01,9.50556e-01
9.479570815e-01,5.63660e-02,9.99999e-01,9.99999e-01,6.08484e-02,9.65364e-01,9.59570e-01
9.526968669e-01,1.05038e-01,9.99999e-01,9.99999e-01,1.11503e-01,9.66036e-01,9.75142e-01
9.574603512e-01,1.16374e-01,9.99999e-01,9.99999e-01,1.21932e-01,9.66696e-01,9.87294e-01
9.622476530e-01,1.64237e-01,9.99999e-01,9.99999e-01,1.71289e-01,9.67343e-01,9.91197e-01
9.670588912e-01,3.41693e-01,9.99999e-01,9.99999e-01,3.55137e-01,9.67977e-01,9.93971e-01
9.718941857e-01,4.87051e-01,9.99999e-01,9.99999e-01,5.05083e-01,9.68600e-01,9.95558e-01
9.767536566e-01,5.46972e-01,9.99999e-01,9.99999e-01,5.66270e-01,9.69210e-01,9.96603e-01
9.816374249e-01,6.32026e-01,9.99999e-01,9.99999e-01,6.52468e-01,9.69809e-01,9.98823e-01
9.865456120e-01,7.41548e-01,9.99999e-01,9.99999e-01,7.64356e-01,9.70397e-01,9.99754e-01
9.914783401e-01,8.21680e-01,9.99999e-01,9.99999e-01,8.46300e-01,9.70973e-01,9.99931e-01
9.964357318e-01,8.87033e-01,9.99999e-01,9.99999e-01,9.13055e-01,9.71538e-01,9.99959e-01
1.001417910e+00,9.20383e-01,9.99999e-01,9.99999e-01,9.46863e-01,9.72092e-01,9.99938e-01
1.006425000e+00,9.42770e-01,9.99999e-01,9.99999e-01,9.69377e-01,9.72636e-01,9.99913e-01
1.011457125e+00,9.54455e-01,9.99999e-01,9.99999e-01,9.80848e-01,9.73169e-01,9.99919e-01
1.016514411e+00,9.60952e-01,9.99999e-01,9.99999e-01,9.86970e-01,9.73692e-01,9.99942e-01
1.021596983e+00,9.64028e-01,9.99999e-01,9.99999e-01,9.89610e-01,9.74205e-01,9.99942e-01
1.026704968e+00,9.66767e-01,9.99999e-01,9.99999e-01,9.91890e-01,9.74708e-01,9.99961e-01
1.031838492e+00,9.69429e-01,9.99999e-01,9.99999e-01,9.94091e-01,9.75201e-01,9.99989e-01
1.036997685e+00,9.72261e-01,9.99999e-01,9.99999e-01,9.96492e-01,9.75685e-01,9.99997e-01
1.042182673e+00,9.72088e-01,9.99999e-01,9.99999e-01,9.95829e-01,9.76159e-01,9.99998e-01
1.047393587e+00,9.71219e-01,9.99999e-01,9.99999e-01,9.94465e-01,9.76625e-01,9.99998e-01
1.052630555e+00,9.69674e-01,9.99999e-01,9.99999e-01,9.92420e-01,9.77081e-01,9.99997e-01
1.057893707e+00,9.65202e-01,9.99999e-01,9.99999e-01,9.87394e-01,9.77529e-01,9.99995e-01
1.063183176e+00,9.57747e-01,9.99999e-01,9.99999e-01,9.79334e-01,9.77968e-01,9.99988e-01
1.068499092e+00,9.44741e-01,9.99999e-01,9.99999e-01,9.65622e-01,9.78398e-01,9.99975e-01
1.073841587e+00,9.39652e-01,9.99999e-01,9.99999e-01,9.60033e-01,9.78820e-01,9.99947e-01
1.079210795e+00,9.29045e-01,9.99999e-01,9.99999e-01,9.48878e-01,9.79234e-01,9.99859e-01
1.084606849e+00,9.04771e-01,9.99999e-01,9.99999e-01,9.23885e-01,9.79640e-01,9.99662e-01
1.090029883e+00,8.74928e-01,9.99999e-01,9.99999e-01,8.93372e-01,9.80038e-01,9.99301e-01
1.095480033e+00,7.20395e-01,9.99999e-01,9.99999e-01,7.35703e-01,9.80428e-01,9.98737e-01
1.100957433e+00,4.57011e-01,9.99999e-01,9.99999e-01,4.67035e-01,9.80811e-01,9.97678e-01
1.106462220e+00,1.61527e-01,9.99999e-01,9.99999e-01,1.65274e-01,9.81187e-01,9.96065e-01
1.111994531e+00,2.49437e-02,9.99999e-01,9.99999e-01,2.56797e-02,9.81555e-01,9.89588e-01
1.117554504e+00,3.59430e-03,9.99999e-01,9.99999e-01,3.80145e-03,9.81916e-01,9.62920e-01
1.123142276e+00,2.15273e-02,9.99999e-01,9.99999e-01,2.39703e-02,9.82270e-01,9.14293e-01
1.128757988e+00,5.75587e-02,9.99999e-01,9.99999e-01,6.49746e-02,9.82617e-01,9.01534e-01
1.134401778e+00,2.75184e-02,9.99999e-01,9.99999e-01,3.05750e-02,9.82957e-01,9.15632e-01
1.140073787e+00,1.59828e-01,9.99999e-01,9.99999e-01,1.74403e-01,9.83291e-01,9.31999e-01
1.145774156e+00,3.68335e-02,9.99999e-01,9.99999e-01,3.99403e-02,9.83618e-01,9.37572e-01
1.151503026e+00,2.58143e-02,9.99999e-01,9.99999e-01,2.71949e-02,9.83939e-01,9.64726e-01
1.157260541e+00,3.38267e-02,9.99999e-01,9.99999e-01,3.47388e-02,9.84254e-01,9.89320e-01
1.163046844e+00,7.94078e-02,9.99999e-01,9.99999e-01,8.08985e-02,9.84563e-01,9.96961e-01
1.168862078e+00,1.57173e-01,9.99999e-01,9.99999e-01,1.59839e-01,9.84865e-01,9.98433e-01
1.174706389e+00,3.13989e-01,9.99999e-01,9.99999e-01,3.19380e-01,9.85162e-01,9.97923e-01
1.180579921e+00,4.85907e-01,9.99999e-01,9.99999e-01,4.94631e-01,9.85453e-01,9.96862e-01
1.186482820e+00,6.56210e-01,9.99999e-01,9.99999e-01,6.67854e-01,9.85738e-01,9.96779e-01
1.192415234e+00,7.76164e-01,9.99999e-01,9.99999e-01,7.89073e-01,9.86018e-01,9.97587e-01
1.198377311e+00,8.06318e-01,9.99999e-01,9.99999e-01,8.19391e-01,9.86292e-01,9.97720e-01
1.204369197e+00,8.16328e-01,9.99999e-01,9.99999e-01,8.29157e-01,9.86561e-01,9.97937e-01
1.210391043e+00,8.23269e-01,9.99999e-01,9.99999e-01,8.35308e-01,9.86825e-01,9.98744e-01
1.216442998e+00,8.46130e-01,9.99999e-01,9.99999e-01,8.57861e-01,9.87083e-01,9.99230e-01
1.222525213e+00,8.75496e-01,9.99999e-01,9.99999e-01,8.87148e-01,9.87337e-01,9.99522e-01
1.228637839e+00,9.08556e-01,9.99999e-01,9.99999e-01,9.20181e-01,9.87585e-01,9.99777e-01
