#,Wave/freq,Total,N2,O2,H2O,Rayleigh,CIA
4.000000000e-01,3.68157e-01,9.99999e-01,9.99999e-01,9.99887e-01,3.68198e-01,9.99999e-01
4.020000000e-01,3.75518e-01,9.99999e-01,9.99999e-01,9.99929e-01,3.75544e-01,9.99999e-01
4.040100000e-01,3.82869e-01,9.99999e-01,9.99999e-01,9.99969e-01,3.82880e-01,9.99999e-01
4.060300500e-01,3.90207e-01,9.99999e-01,9.99999e-01,9.99992e-01,3.90210e-01,9.99999e-01
4.080602003e-01,3.97530e-01,9.99999e-01,9.99999e-01,9.99997e-01,3.97531e-01,9.99999e-01
4.101005013e-01,4.04841e-01,9.99999e-01,9.99999e-01,9.99999e-01,4.04841e-01,9.99999e-01
4.121510038e-01,4.12135e-01,9.99999e-01,9.99999e-01,9.99995e-01,4.12137e-01,9.99999e-01
4.142117588e-01,4.19403e-01,9.99999e-01,9.99999e-01,9.99968e-01,4.19416e-01,9.99999e-01
4.162828176e-01,4.26617e-01,9.99999e-01,9.99999e-01,9.99860e-01,4.26677e-01,9.99999e-01
4.183642317e-01,4.33880e-01,9.99999e-01,9.99999e-01,9.99916e-01,4.33916e-01,9.99999e-01
4.204560528e-01,4.41109e-01,9.99999e-01,9.99999e-01,9.99948e-01,4.41131e-01,9.99999e-01
4.225583331e-01,4.48312e-01,9.99999e-01,9.99999e-01,9.99980e-01,4.48320e-01,9.99999e-01
4.246711247e-01,4.55474e-01,9.99999e-01,9.99999e-01,9.99984e-01,4.55481e-01,9.99999e-01
4.267944804e-01,4.62601e-01,9.99999e-01,9.99999e-01,9.99977e-01,4.62611e-01,9.99999e-01
4.289284528e-01,4.69701e-01,9.99999e-01,9.99999e-01,9.99982e-01,4.69709e-01,9.99999e-01
4.310730950e-01,4.76769e-01,9.99999e-01,9.99999e-01,9.99992e-01,4.76773e-01,9.99999e-01
4.332284605e-01,4.83799e-01,9.99999e-01,9.99999e-01,9.99997e-01,4.83799e-01,9.99999e-01
4.353946028e-01,4.90788e-01,9.99999e-01,9.99999e-01,9.99998e-01,4.90788e-01,9.99999e-01
4.375715758e-01,4.97730e-01,9.99999e-01,9.99999e-01,9.99985e-01,4.97737e-01,9.99999e-01
4.397594337e-01,5.04581e-01,9.99999e-01,9.99999e-01,9.99875e-01,5.04643e-01,9.99999e-01
4.419582309e-01,5.11185e-01,9.99999e-01,9.99999e-01,9.99370e-01,5.11507e-01,9.99999e-01
4.441680220e-01,5.18075e-01,9.99999e-01,9.99999e-01,9.99516e-01,5.18325e-01,9.99999e-01
4.463888621e-01,5.24832e-01,9.99999e-01,9.99999e-01,9.99494e-01,5.25097e-01,9.99999e-01
4.486208064e-01,5.31655e-01,9.99999e-01,9.99999e-01,9.99686e-01,5.31821e-01,9.99999e-01
4.508639105e-01,5.38417e-01,9.99999e-01,9.99999e-01,9.99853e-01,5.38496e-01,9.99999e-01
4.531182300e-01,5.45089e-01,9.99999e-01,9.99999e-01,9.99941e-01,5.45120e-01,9.99999e-01
4.553838212e-01,5.51671e-01,9.99999e-01,9.99999e-01,9.99960e-01,5.51693e-01,9.99999e-01
4.576607403e-01,5.58202e-01,9.99999e-01,9.99999e-01,9.99981e-01,5.58212e-01,9.99999e-01
4.599490440e-01,5.64670e-01,9.99999e-01,9.99999e-01,9.99986e-01,5.64678e-01,9.99999e-01
4.622487892e-01,5.71087e-01,9.99999e-01,9.99999e-01,9.99997e-01,5.71088e-01,9.99999e-01
4.645600332e-01,5.77437e-01,9.99999e-01,9.99999e-01,9.99990e-01,5.77443e-01,9.99999e-01
4.668828333e-01,5.83653e-01,9.99999e-01,9.99999e-01,9.99850e-01,5.83740e-01,9.99999e-01
4.692172475e-01,5.89793e-01,9.99999e-01,9.99999e-01,9.99682e-01,5.89980e-01,9.99999e-01
4.715633337e-01,5.96038e-01,9.99999e-01,9.99999e-01,9.99792e-01,5.96161e-01,9.99999e-01
4.739211504e-01,6.02164e-01,9.99999e-01,9.99999e-01,9.99801e-01,6.02283e-01,9.99999e-01
4.762907561e-01,6.08283e-01,9.99999e-01,9.99999e-01,9.99897e-01,6.08346e-01,9.99999e-01
4.786722099e-01,6.14322e-01,9.99999e-01,9.99999e-01,9.99957e-01,6.14347e-01,9.99999e-01
4.810655710e-01,6.20280e-01,9.99999e-01,9.99999e-01,9.99986e-01,6.20288e-01,9.99999e-01
4.834708988e-01,6.26090e-01,9.99999e-01,9.99999e-01,9.99876e-01,6.26167e-01,9.99999e-01
4.858882533e-01,6.31842e-01,9.99999e-01,9.99999e-01,9.99775e-01,6.31984e-01,9.99999e-01
4.883176946e-01,6.37618e-01,9.99999e-01,9.99999e-01,9.99811e-01,6.37738e-01,9.99999e-01
4.907592831e-01,6.43321e-01,9.99999e-01,9.99999e-01,9.99830e-01,6.43430e-01,9.99999e-01
4.932130795e-01,6.48980e-01,9.99999e-01,9.99999e-01,9.99879e-01,6.49059e-01,9.99999e-01
4.956791449e-01,6.54582e-01,9.99999e-01,9.99999e-01,9.99935e-01,6.54624e-01,9.99999e-01
4.981575406e-01,6.59914e-01,9.99999e-01,9.99999e-01,9.99679e-01,6.60125e-01,9.99999e-01
5.006483283e-01,6.65005e-01,9.99999e-01,9.99999e-01,9.99167e-01,6.65563e-01,9.99993e-01
5.031515699e-01,6.68098e-01,9.99999e-01,9.99999e-01,9.95811e-01,6.70937e-01,9.99955e-01
5.056673278e-01,6.74720e-01,9.99999e-01,9.99999e-01,9.97792e-01,6.76247e-01,9.99949e-01
5.081956644e-01,6.79575e-01,9.99999e-01,9.99999e-01,9.97217e-01,6.81492e-01,9.99968e-01
5.107366428e-01,6.85380e-01,9.99999e-01,9.99999e-01,9.98121e-01,6.86674e-01,9.99994e-01
5.132903260e-01,6.91049e-01,9.99999e-01,9.99999e-01,9.98927e-01,6.91791e-01,9.99998e-01
5.158567776e-01,6.96529e-01,9.99999e-01,9.99999e-01,9.99547e-01,6.96845e-01,9.99999e-01
5.184360615e-01,7.01707e-01,9.99999e-01,9.99999e-01,9.99818e-01,7.01834e-01,9.99999e-01
5.210282418e-01,7.06711e-01,9.99999e-01,9.99999e-01,9.99931e-01,7.06759e-01,9.99999e-01
5.236333830e-01,7.11426e-01,9.99999e-01,9.99999e-01,9.99726e-01,7.11621e-01,9.99997e-01
5.262515499e-01,7.16295e-01,9.99999e-01,9.99999e-01,9.99828e-01,7.16419e-01,9.99996e-01
5.288828077e-01,7.21039e-01,9.99999e-01,9.99999e-01,9.99842e-01,7.21154e-01,9.99997e-01
5.315272217e-01,7.25726e-01,9.99999e-01,9.99999e-01,9.99862e-01,7.25826e-01,9.99999e-01
5.341848578e-01,7.30368e-01,9.99999e-01,9.99999e-01,9.99909e-01,7.30434e-01,9.99999e-01
5.368557821e-01,7.34745e-01,9.99999e-01,9.99999e-01,9.99680e-01,7.34981e-01,9.99998e-01
5.395400610e-01,7.38601e-01,9.99999e-01,9.99999e-01,9.98842e-01,7.39464e-01,9.99988e-01
5.422377613e-01,7.42766e-01,9.99999e-01,9.99999e-01,9.98520e-01,7.43886e-01,9.99972e-01
5.449489501e-01,7.47190e-01,9.99999e-01,9.99999e-01,9.98616e-01,7.48246e-01,9.99971e-01
5.476736949e-01,7.51619e-01,9.99999e-01,9.99999e-01,9.98782e-01,7.52545e-01,9.99985e-01
5.504120634e-01,7.56111e-01,9.99999e-01,9.99999e-01,9.99115e-01,7.56783e-01,9.99995e-01
5.531641237e-01,7.60621e-01,9.99999e-01,9.99999e-01,9.99555e-01,7.60960e-01,9.99998e-01
5.559299443e-01,7.64913e-01,9.99999e-01,9.99999e-01,9.99785e-01,7.65077e-01,9.99999e-01
5.587095940e-01,7.69031e-01,9.99999e-01,9.99999e-01,9.99864e-01,7.69135e-01,9.99999e-01
5.615031420e-01,7.73016e-01,9.99999e-01,9.99999e-01,9.99849e-01,7.73133e-01,9.99999e-01
5.643106577e-01,7.76937e-01,9.99999e-01,9.99999e-01,9.99827e-01,7.77072e-01,9.99998e-01
5.671322110e-01,7.79300e-01,9.99999e-01,9.99999e-01,9.97901e-01,7.80953e-01,9.99981e-01
5.699678720e-01,7.83016e-01,9.99999e-01,9.99999e-01,9.97813e-01,7.84776e-01,9.99943e-01
5.728177114e-01,7.86694e-01,9.99999e-01,9.99999e-01,9.97703e-01,7.88542e-01,9.99952e-01
5.756818000e-01,7.90563e-01,9.99999e-01,9.99999e-01,9.97895e-01,7.92251e-01,9.99972e-01
5.785602090e-01,7.94440e-01,9.99999e-01,9.99999e-01,9.98168e-01,7.95904e-01,9.99991e-01
5.814530100e-01,7.98024e-01,9.99999e-01,9.99999e-01,9.98156e-01,7.99501e-01,9.99995e-01
5.843602750e-01,8.01259e-01,9.99999e-01,9.99999e-01,9.97791e-01,8.03042e-01,9.99987e-01
5.872820764e-01,7.91242e-01,9.99999e-01,9.99999e-01,9.81176e-01,8.06529e-01,9.99866e-01
5.902184868e-01,7.91313e-01,9.99999e-01,9.99999e-01,9.77329e-01,8.09962e-01,9.99637e-01
5.931695792e-01,7.99987e-01,9.99999e-01,9.99999e-01,9.83924e-01,8.13341e-01,9.99651e-01
5.961354271e-01,8.02133e-01,9.99999e-01,9.99999e-01,9.82399e-01,8.16667e-01,9.99799e-01
5.991161043e-01,8.09344e-01,9.99999e-01,9.99999e-01,9.87137e-01,8.19940e-01,9.99937e-01
6.021116848e-01,8.17138e-01,9.99999e-01,9.99999e-01,9.92688e-01,8.23162e-01,9.99992e-01
6.051222432e-01,8.23270e-01,9.99999e-01,9.99999e-01,9.96295e-01,8.26332e-01,9.99999e-01
6.081478544e-01,8.28124e-01,9.99999e-01,9.99999e-01,9.98399e-01,8.29451e-01,9.99999e-01
6.111885937e-01,8.31958e-01,9.99999e-01,9.99999e-01,9.99323e-01,8.32521e-01,9.99999e-01
6.142445367e-01,8.35288e-01,9.99999e-01,9.99999e-01,9.99697e-01,8.35540e-01,9.99999e-01
6.173157594e-01,8.38371e-01,9.99999e-01,9.99999e-01,9.99832e-01,8.38511e-01,9.99999e-01
6.204023382e-01,8.41314e-01,9.99999e-01,9.99999e-01,9.99857e-01,8.41433e-01,9.99999e-01
6.235043498e-01,8.43773e-01,9.99999e-01,9.99999e-01,9.99368e-01,8.44307e-01,9.99997e-01
6.266218716e-01,8.44321e-01,9.99999e-01,9.99999e-01,9.96701e-01,8.47135e-01,9.99976e-01
6.297549810e-01,8.48847e-01,9.99999e-01,9.99999e-01,9.98788e-01,8.49915e-01,9.99953e-01
6.329037559e-01,8.50583e-01,9.99999e-01,9.99999e-01,9.97612e-01,8.52649e-01,9.99962e-01
6.360682746e-01,8.53575e-01,9.99999e-01,9.99999e-01,9.97959e-01,8.55338e-01,9.99977e-01
6.392486160e-01,8.55710e-01,9.99999e-01,9.99999e-01,9.97361e-01,8.57982e-01,9.99989e-01
6.424448591e-01,8.57511e-01,9.99999e-01,9.99999e-01,9.96448e-01,8.60582e-01,9.99982e-01
6.456570834e-01,8.48925e-01,9.99999e-01,9.99999e-01,9.83629e-01,8.63138e-01,9.99900e-01
6.488853688e-01,8.55127e-01,9.99999e-01,9.99999e-01,9.88093e-01,8.65651e-01,9.99745e-01
6.521297956e-01,8.57415e-01,9.99999e-01,9.99999e-01,9.87873e-01,8.68122e-01,9.99789e-01
6.553904446e-01,8.59850e-01,9.99999e-01,9.99999e-01,9.87862e-01,8.70550e-01,9.99843e-01
6.586673968e-01,8.63846e-01,9.99999e-01,9.99999e-01,9.89636e-01,8.72937e-01,9.99947e-01
6.619607338e-01,8.70206e-01,9.99999e-01,9.99999e-01,9.94210e-01,8.75283e-01,9.99988e-01
6.652705375e-01,8.74532e-01,9.99999e-01,9.99999e-01,9.96521e-01,8.77589e-01,9.99993e-01
6.685968902e-01,8.78554e-01,9.99999e-01,9.99999e-01,9.98520e-01,8.79856e-01,9.99998e-01
6.719398746e-01,8.81423e-01,9.99999e-01,9.99999e-01,9.99250e-01,8.82083e-01,9.99999e-01
6.752995740e-01,8.83922e-01,9.99999e-01,9.99999e-01,9.99604e-01,8.84272e-01,9.99999e-01
6.786760719e-01,8.85897e-01,9.99999e-01,9.99999e-01,9.99407e-01,8.86423e-01,9.99998e-01
6.820694522e-01,8.87636e-01,9.99999e-01,9.99999e-01,9.98991e-01,8.88536e-01,9.99994e-01
6.854797995e-01,8.89445e-01,9.99999e-01,9.99999e-01,9.98699e-01,8.90613e-01,9.99988e-01
6.889071985e-01,8.89792e-01,9.99999e-01,9.99999e-01,9.96822e-01,8.92653e-01,9.99971e-01
6.923517345e-01,8.49567e-01,9.99999e-01,9.99999e-01,9.49833e-01,8.94657e-01,9.99753e-01
6.958134932e-01,8.72862e-01,9.99999e-01,9.99999e-01,9.74025e-01,8.96627e-01,9.99455e-01
6.992925606e-01,8.75539e-01,9.99999e-01,9.99999e-01,9.74856e-01,8.98561e-01,9.99508e-01
7.027890234e-01,8.72417e-01,9.99999e-01,9.99999e-01,9.69217e-01,9.00462e-01,9.99624e-01
7.063029686e-01,8.78715e-01,9.99999e-01,9.99999e-01,9.74011e-01,9.02328e-01,9.99813e-01
7.098344834e-01,8.81499e-01,9.99999e-01,9.99999e-01,9.75041e-01,9.04162e-01,9.99889e-01
7.133836558e-01,8.75605e-01,9.99999e-01,9.99999e-01,9.66701e-01,9.05963e-01,9.99780e-01
7.169505741e-01,6.95305e-01,9.99999e-01,9.99999e-01,7.67302e-01,9.07732e-01,9.98276e-01
7.205353270e-01,7.96952e-01,9.99999e-01,9.99999e-01,8.78953e-01,9.09469e-01,9.96960e-01
7.241380036e-01,7.69540e-01,9.99999e-01,9.99999e-01,8.46779e-01,9.11176e-01,9.97375e-01
7.277586936e-01,7.84118e-01,9.99999e-01,9.99999e-01,8.60823e-01,9.12851e-01,9.97853e-01
7.313974871e-01,7.78782e-01,9.99999e-01,9.99999e-01,8.52453e-01,9.14497e-01,9.98993e-01
7.350544745e-01,8.38946e-01,9.99999e-01,9.99999e-01,9.16086e-01,9.16113e-01,9.99650e-01
7.387297469e-01,8.60094e-01,9.99999e-01,9.99999e-01,9.37377e-01,9.17700e-01,9.99839e-01
7.424233956e-01,8.90605e-01,9.99999e-01,9.99999e-01,9.68856e-01,9.19258e-01,9.99971e-01
7.461355126e-01,9.03272e-01,9.99999e-01,9.99999e-01,9.80981e-01,9.20788e-01,9.99994e-01
7.498661902e-01,9.14097e-01,9.99999e-01,9.99999e-01,9.91118e-01,9.22290e-01,9.99997e-01
7.536155211e-01,9.19722e-01,9.99999e-01,9.99999e-01,9.95623e-01,9.23765e-01,9.99998e-01
7.573835987e-01,9.23127e-01,9.99999e-01,9.99999e-01,9.97745e-01,9.25213e-01,9.99999e-01
7.611705167e-01,9.25336e-01,9.99999e-01,9.99999e-01,9.98598e-01,9.26635e-01,9.99999e-01
7.649763693e-01,9.27214e-01,9.99999e-01,9.99999e-01,9.99120e-01,9.28030e-01,9.99999e-01
7.688012511e-01,9.28831e-01,9.99999e-01,9.99999e-01,9.99386e-01,9.29400e-01,9.99999e-01
7.726452574e-01,9.30276e-01,9.99999e-01,9.99999e-01,9.99495e-01,9.30745e-01,9.99999e-01
7.765084837e-01,9.31393e-01,9.99999e-01,9.99999e-01,9.99278e-01,9.32066e-01,9.99998e-01
7.803910261e-01,9.30451e-01,9.99999e-01,9.99999e-01,9.96883e-01,9.33362e-01,9.99996e-01
7.842929812e-01,9.24489e-01,9.99999e-01,9.99999e-01,9.89165e-01,9.34634e-01,9.99979e-01
7.882144461e-01,9.15091e-01,9.99999e-01,9.99999e-01,9.77932e-01,9.35883e-01,9.99846e-01
7.921555184e-01,9.25517e-01,9.99999e-01,9.99999e-01,9.87891e-01,9.37109e-01,9.99733e-01
7.961162960e-01,9.17932e-01,9.99999e-01,9.99999e-01,9.78527e-01,9.38312e-01,9.99746e-01
8.000968774e-01,9.16044e-01,9.99999e-01,9.99999e-01,9.75303e-01,9.39493e-01,9.99730e-01
8.040973618e-01,9.17214e-01,9.99999e-01,9.99999e-01,9.75283e-01,9.40652e-01,9.99794e-01
8.081178486e-01,8.89931e-01,9.99999e-01,9.99999e-01,9.45133e-01,9.41789e-01,9.99791e-01
8.121584379e-01,7.47051e-01,9.99999e-01,9.99999e-01,7.92910e-01,9.42905e-01,9.99212e-01
8.162192301e-01,7.16873e-01,9.99999e-01,9.99999e-01,7.61650e-01,9.44001e-01,9.97042e-01
8.203003262e-01,8.24449e-01,9.99999e-01,9.99999e-01,8.75392e-01,9.45076e-01,9.96538e-01
8.244018279e-01,7.88176e-01,9.99999e-01,9.99999e-01,8.35353e-01,9.46131e-01,9.97244e-01
8.285238370e-01,8.01526e-01,9.99999e-01,9.99999e-01,8.48071e-01,9.47167e-01,9.97834e-01
8.326664562e-01,8.02779e-01,9.99999e-01,9.99999e-01,8.47409e-01,9.48183e-01,9.99103e-01
8.368297885e-01,8.42325e-01,9.99999e-01,9.99999e-01,8.87604e-01,9.49180e-01,9.99794e-01
8.410139374e-01,8.84941e-01,9.99999e-01,9.99999e-01,9.31472e-01,9.50158e-01,9.99879e-01
8.452190071e-01,9.18485e-01,9.99999e-01,9.99999e-01,9.65758e-01,9.51118e-01,9.99928e-01
8.494451021e-01,9.32889e-01,9.99999e-01,9.99999e-01,9.79919e-01,9.52060e-01,9.99942e-01
8.536923276e-01,9.41618e-01,9.99999e-01,9.99999e-01,9.88107e-01,9.52984e-01,9.99964e-01
8.579607893e-01,9.46867e-01,9.99999e-01,9.99999e-01,9.92643e-01,9.53891e-01,9.99991e-01
8.622505932e-01,9.50320e-01,9.99999e-01,9.99999e-01,9.95328e-01,9.54781e-01,9.99998e-01
8.665618462e-01,9.52883e-01,9.99999e-01,9.99999e-01,9.97100e-01,9.55654e-01,9.99998e-01
8.708946554e-01,9.53329e-01,9.99999e-01,9.99999e-01,9.96675e-01,9.56511e-01,9.99997e-01
8.752491287e-01,9.53094e-01,9.99999e-01,9.99999e-01,9.95557e-01,9.57351e-01,9.99994e-01
8.796253743e-01,9.52260e-01,9.99999e-01,9.99999e-01,9.93838e-01,9.58176e-01,9.99985e-01
8.840235012e-01,9.52203e-01,9.99999e-01,9.99999e-01,9.92970e-01,9.58985e-01,9.99956e-01
8.884436187e-01,9.35158e-01,9.99999e-01,9.99999e-01,9.74465e-01,9.59778e-01,9.99877e-01
8.928858368e-01,7.36459e-01,9.99999e-01,9.99999e-01,7.67238e-01,9.60557e-01,9.99297e-01
8.973502660e-01,6.03746e-01,9.99999e-01,9.99999e-01,6.30303e-01,9.61321e-01,9.96403e-01
9.018370173e-01,7.56875e-01,9.99999e-01,9.99999e-01,7.91183e-01,9.62070e-01,9.94351e-01
9.063462024e-01,7.76513e-01,9.99999e-01,9.99999e-01,8.10533e-01,9.62805e-01,9.95036e-01
9.108779334e-01,6.92048e-01,9.99999e-01,9.99999e-01,7.21968e-01,9.63526e-01,9.94842e-01
9.154323231e-01,6.61829e-01,9.99999e-01,9.99999e-01,6.89317e-01,9.64233e-01,9.95735e-01
9.200094847e-01,7.20948e-01,9.99999e-01,9.99999e-01,7.48941e-01,9.64927e-01,9.97610e-01
9.246095321e-01,6.24556e-01,9.99999e-01,9.99999e-01,6.48585e-01,9.65608e-01,9.97247e-01
9.292325798e-01,7.76626e-02,9.99999e-01,9.99999e-01,8.14496e-02,9.66276e-01,9.86782e-01
9.338787427e-01,3.28813e-02,9.99999e-01,9.99999e-01,3.56813e-02,9.66931e-01,9.53042e-01
9.385481364e-01,2.35122e-01,9.99999e-01,9.99999e-01,2.56187e-01,9.67573e-01,9.48530e-01
9.432408771e-01,1.51961e-01,9.99999e-01,9.99999e-01,1.64272e-01,9.68203e-01,9.55436e-01
9.479570815e-01,7.23452e-02,9.99999e-01,9.99999e-01,7.74959e-02,9.68822e-01,9.63577e-01
9.526968669e-01,1.28761e-01,9.99999e-01,9.99999e-01,1.35861e-01,9.69428e-01,9.77624e-01
9.574603512e-01,1.41590e-01,9.99999e-01,9.99999e-01,1.47653e-01,9.70023e-01,9.88570e-01
9.622476530e-01,1.95450e-01,9.99999e-01,9.99999e-01,2.02976e-01,9.70606e-01,9.92082e-01
9.670588912e-01,3.78667e-01,9.99999e-01,9.99999e-01,3.92030e-01,9.71178e-01,9.94578e-01
9.718941857e-01,5.22981e-01,9.99999e-01,9.99999e-01,5.40348e-01,9.71739e-01,9.96006e-01
9.767536566e-01,5.80593e-01,9.99999e-01,9.99999e-01,5.98968e-01,9.72290e-01,9.96946e-01
9.816374249e-01,6.62622e-01,9.99999e-01,9.99999e-01,6.81849e-01,9.72829e-01,9.98941e-01
9.865456120e-01,7.64996e-01,9.99999e-01,9.99999e-01,7.86107e-01,9.73359e-01,9.99779e-01
9.914783401e-01,8.38603e-01,9.99999e-01,9.99999e-01,8.61148e-01,9.73878e-01,9.99938e-01
9.964357318e-01,8.98150e-01,9.99999e-01,9.99999e-01,9.21790e-01,9.74387e-01,9.99963e-01
1.001417910e+00,9.28355e-01,9.99999e-01,9.99999e-01,9.52320e-01,9.74887e-01,9.99944e-01
1.006425000e+00,9.48459e-01,9.99999e-01,9.99999e-01,9.72477e-01,9.75377e-01,9.99921e-01
1.011457125e+00,9.59064e-01,9.99999e-01,9.99999e-01,9.82862e-01,9.75857e-01,9.99927e-01
1.016514411e+00,9.64877e-01,9.99999e-01,9.99999e-01,9.88320e-01,9.76328e-01,9.99948e-01
1.021596983e+00,9.67637e-01,9.99999e-01,9.99999e-01,9.90677e-01,9.76791e-01,9.99949e-01
1.026704968e+00,9.70099e-01,9.99999e-01,9.99999e-01,9.92719e-01,9.77244e-01,9.99968e-01
1.031838492e+00,9.72509e-01,9.99999e-01,9.99999e-01,9.94711e-01,9.77688e-01,9.99990e-01
1.036997685e+00,9.75043e-01,9.99999e-01,9.99999e-01,9.96851e-01,9.78124e-01,9.99998e-01
1.042182673e+00,9.74868e-01,9.99999e-01,9.99999e-01,9.96236e-01,9.78551e-01,9.99998e-01
1.047393587e+00,9.74093e-01,9.99999e-01,9.99999e-01,9.95018e-01,9.78971e-01,9.99998e-01
1.052630555e+00,9.72685e-01,9.99999e-01,9.99999e-01,9.93163e-01,9.79382e-01,9.99997e-01
1.057893707e+00,9.68614e-01,9.99999e-01,9.99999e-01,9.88601e-01,9.79785e-01,9.99995e-01
1.063183176e+00,9.61876e-01,9.99999e-01,9.99999e-01,9.81334e-01,9.80180e-01,9.99989e-01
1.068499092e+00,9.50139e-01,9.99999e-01,9.99999e-01,9.68988e-01,9.80568e-01,9.99978e-01
1.073841587e+00,9.45422e-01,9.99999e-01,9.99999e-01,9.63828e-01,9.80948e-01,9.99953e-01
1.079210795e+00,9.35997e-01,9.99999e-01,9.99999e-01,9.53933e-01,9.81321e-01,9.99873e-01
1.084606849e+00,9.13805e-01,9.99999e-01,9.99999e-01,9.31133e-01,9.81686e-01,9.99696e-01
1.090029883e+00,8.85793e-01,9.99999e-01,9.99999e-01,9.02554e-01,9.82045e-01,9.99372e-01
1.095480033e+00,7.42833e-01,9.99999e-01,9.99999e-01,7.57002e-01,9.82396e-01,9.98865e-01
1.100957433e+00,4.90576e-01,9.99999e-01,9.99999e-01,5.00235e-01,9.82741e-01,9.97912e-01
1.106462220e+00,1.88259e-01,9.99999e-01,9.99999e-01,1.92180e-01,9.83079e-01,9.96461e-01
1.111994531e+00,3.45158e-02,9.99999e-01,9.99999e-01,3.54298e-02,9.83410e-01,9.90635e-01
1.117554504e+00,5.76016e-03,9.99999e-01,9.99999e-01,6.05771e-03,9.83735e-01,9.66601e-01
1.123142276e+00,3.00303e-02,9.99999e-01,9.99999e-01,3.30769e-02,9.84054e-01,9.22604e-01
1.128757988e+00,7.44545e-02,9.99999e-01,9.99999e-01,8.30243e-02,9.84366e-01,9.11020e-01
1.134401778e+00,3.60908e-02,9.99999e-01,9.99999e-01,3.96750e-02,9.84673e-01,9.23818e-01
1.140073787e+00,1.89418e-01,9.99999e-01,9.99999e-01,2.04876e-01,9.84973e-01,9.38651e-01
1.145774156e+00,4.86836e-02,9.99999e-01,9.99999e-01,5.23596e-02,9.85268e-01,9.43695e-01
1.151503026e+00,3.53408e-02,9.99999e-01,9.99999e-01,3.70353e-02,9.85557e-01,9.68231e-01
1.157260541e+00,4.64292e-02,9.99999e-01,9.99999e-01,4.75528e-02,9.85840e-01,9.90393e-01
1.163046844e+00,1.01282e-01,9.99999e-01,9.99999e-01,1.02989e-01,9.86118e-01,9.97267e-01
1.168862078e+00,1.89113e-01,9.99999e-01,9.99999e-01,1.91993e-01,9.86390e-01,9.98591e-01
1.174706389e+00,3.52693e-01,9.99999e-01,9.99999e-01,3.58131e-01,9.86657e-01,9.98133e-01
1.180579921e+00,5.23186e-01,9.99999e-01,9.99999e-01,5.31620e-01,9.86919e-01,9.97178e-01
1.186482820e+00,6.85190e-01,9.99999e-01,9.99999e-01,6.96106e-01,9.87175e-01,9.97104e-01
1.192415234e+00,7.96502e-01,9.99999e-01,9.99999e-01,8.08396e-01,9.87427e-01,9.97830e-01
1.198377311e+00,8.23843e-01,9.99999e-01,9.99999e-01,8.35837e-01,9.87674e-01,9.97950e-01
1.204369197e+00,8.33096e-01,9.99999e-01,9.99999e-01,8.44851e-01,9.87916e-01,9.98145e-01
1.210391043e+00,8.39595e-01,9.99999e-01,9.99999e-01,8.50619e-01,9.88153e-01,9.98871e-01
1.216442998e+00,8.60886e-01,9.99999e-01,9.99999e-01,8.71604e-01,9.88386e-01,9.99308e-01
1.222525213e+00,8.87553e-01,9.99999e-01,9.99999e-01,8.98160e-01,9.88614e-01,9.99570e-01
1.228637839e+00,9.17496e-01,9.99999e-01,9.99999e-01,9.28037e-01,9.88837e-01,9.99799e-01
