#,Wave/freq,Total,N2,O2,H2O,Rayleigh,CIA
4.000000000e-01,8.95072e-01,9.99999e-01,9.99999e-01,9.99987e-01,8.95083e-01,9.99999e-01
4.020000000e-01,8.97040e-01,9.99999e-01,9.99999e-01,9.99991e-01,8.97047e-01,9.99999e-01
4.040100000e-01,8.98971e-01,9.99999e-01,9.99999e-01,9.99996e-01,8.98974e-01,9.99999e-01
4.060300500e-01,9.00867e-01,9.99999e-01,9.99999e-01,9.99998e-01,9.00867e-01,9.99999e-01
4.080602003e-01,9.02727e-01,9.99999e-01,9.99999e-01,9.99999e-01,9.02727e-01,9.99999e-01
4.101005013e-01,9.04553e-01,9.99999e-01,9.99999e-01,9.99999e-01,9.04553e-01,9.99999e-01
4.121510038e-01,9.06347e-01,9.99999e-01,9.99999e-01,9.99999e-01,9.06347e-01,9.99999e-01
4.142117588e-01,9.08106e-01,9.99999e-01,9.99999e-01,9.99996e-01,9.08110e-01,9.99999e-01
4.162828176e-01,9.09826e-01,9.99999e-01,9.99999e-01,9.99984e-01,9.09840e-01,9.99999e-01
4.183642317e-01,9.11531e-01,9.99999e-01,9.99999e-01,9.99990e-01,9.11540e-01,9.99999e-01
4.204560528e-01,9.13204e-01,9.99999e-01,9.99999e-01,9.99993e-01,9.13209e-01,9.99999e-01
4.225583331e-01,9.14846e-01,9.99999e-01,9.99999e-01,9.99997e-01,9.14848e-01,9.99999e-01
4.246711247e-01,9.16456e-01,9.99999e-01,9.99999e-01,9.99997e-01,9.16458e-01,9.99999e-01
4.267944804e-01,9.18036e-01,9.99999e-01,9.99999e-01,9.99997e-01,9.18038e-01,9.99999e-01
4.289284528e-01,9.19589e-01,9.99999e-01,9.99999e-01,9.99997e-01,9.19590e-01,9.99999e-01
4.310730950e-01,9.21113e-01,9.99999e-01,9.99999e-01,9.99998e-01,9.21114e-01,9.99999e-01
4.332284605e-01,9.22610e-01,9.99999e-01,9.99999e-01,9.99999e-01,9.22610e-01,9.99999e-01
4.353946028e-01,9.24079e-01,9.99999e-01,9.99999e-01,9.99999e-01,9.24079e-01,9.99999e-01
4.375715758e-01,9.25520e-01,9.99999e-01,9.99999e-01,9.99997e-01,9.25522e-01,9.99999e-01
4.397594337e-01,9.26925e-01,9.99999e-01,9.99999e-01,9.99985e-01,9.26938e-01,9.99999e-01
4.419582309e-01,9.28264e-01,9.99999e-01,9.99999e-01,9.99930e-01,9.28328e-01,9.99999e-01
4.441680220e-01,9.29642e-01,9.99999e-01,9.99999e-01,9.99945e-01,9.29693e-01,9.99999e-01
4.463888621e-01,9.30980e-01,9.99999e-01,9.99999e-01,9.99943e-01,9.31032e-01,9.99999e-01
4.486208064e-01,9.32315e-01,9.99999e-01,9.99999e-01,9.99964e-01,9.32347e-01,9.99999e-01
4.508639105e-01,9.33623e-01,9.99999e-01,9.99999e-01,9.99983e-01,9.33638e-01,9.99999e-01
4.531182300e-01,9.34899e-01,9.99999e-01,9.99999e-01,9.99993e-01,9.34905e-01,9.99999e-01
4.553838212e-01,9.36145e-01,9.99999e-01,9.99999e-01,9.99995e-01,9.36149e-01,9.99999e-01
4.576607403e-01,9.37368e-01,9.99999e-01,9.99999e-01,9.99997e-01,9.37370e-01,9.99999e-01
4.599490440e-01,9.38567e-01,9.99999e-01,9.99999e-01,9.99998e-01,9.38568e-01,9.99999e-01
4.622487892e-01,9.39744e-01,9.99999e-01,9.99999e-01,9.99999e-01,9.39744e-01,9.99999e-01
4.645600332e-01,9.40898e-01,9.99999e-01,9.99999e-01,9.99998e-01,9.40899e-01,9.99999e-01
4.668828333e-01,9.42016e-01,9.99999e-01,9.99999e-01,9.99983e-01,9.42032e-01,9.99999e-01
4.692172475e-01,9.43110e-01,9.99999e-01,9.99999e-01,9.99964e-01,9.43143e-01,9.99999e-01
4.715633337e-01,9.44213e-01,9.99999e-01,9.99999e-01,9.99976e-01,9.44235e-01,9.99999e-01
4.739211504e-01,9.45285e-01,9.99999e-01,9.99999e-01,9.99977e-01,9.45305e-01,9.99999e-01
4.762907561e-01,9.46345e-01,9.99999e-01,9.99999e-01,9.99988e-01,9.46356e-01,9.99999e-01
4.786722099e-01,9.47383e-01,9.99999e-01,9.99999e-01,9.99994e-01,9.47387e-01,9.99999e-01
4.810655710e-01,9.48398e-01,9.99999e-01,9.99999e-01,9.99998e-01,9.48399e-01,9.99999e-01
4.834708988e-01,9.49380e-01,9.99999e-01,9.99999e-01,9.99986e-01,9.49392e-01,9.99999e-01
4.858882533e-01,9.50343e-01,9.99999e-01,9.99999e-01,9.99974e-01,9.50367e-01,9.99999e-01
4.883176946e-01,9.51303e-01,9.99999e-01,9.99999e-01,9.99978e-01,9.51323e-01,9.99999e-01
4.907592831e-01,9.52243e-01,9.99999e-01,9.99999e-01,9.99980e-01,9.52261e-01,9.99999e-01
4.932130795e-01,9.53169e-01,9.99999e-01,9.99999e-01,9.99986e-01,9.53181e-01,9.99999e-01
4.956791449e-01,9.54078e-01,9.99999e-01,9.99999e-01,9.99992e-01,9.54085e-01,9.99999e-01
4.981575406e-01,9.54937e-01,9.99999e-01,9.99999e-01,9.99964e-01,9.54971e-01,9.99999e-01
5.006483283e-01,9.55752e-01,9.99999e-01,9.99999e-01,9.99907e-01,9.55840e-01,9.99998e-01
5.031515699e-01,9.56244e-01,9.99999e-01,9.99999e-01,9.99534e-01,9.56693e-01,9.99994e-01
5.056673278e-01,9.57290e-01,9.99999e-01,9.99999e-01,9.99754e-01,9.57530e-01,9.99993e-01
5.081956644e-01,9.58051e-01,9.99999e-01,9.99999e-01,9.99689e-01,9.58351e-01,9.99995e-01
5.107366428e-01,9.58956e-01,9.99999e-01,9.99999e-01,9.99790e-01,9.59157e-01,9.99998e-01
5.132903260e-01,9.59833e-01,9.99999e-01,9.99999e-01,9.99880e-01,9.59947e-01,9.99999e-01
5.158567776e-01,9.60674e-01,9.99999e-01,9.99999e-01,9.99949e-01,9.60723e-01,9.99999e-01
5.184360615e-01,9.61464e-01,9.99999e-01,9.99999e-01,9.99979e-01,9.61483e-01,9.99999e-01
5.210282418e-01,9.62222e-01,9.99999e-01,9.99999e-01,9.99991e-01,9.62230e-01,9.99999e-01
5.236333830e-01,9.62932e-01,9.99999e-01,9.99999e-01,9.99969e-01,9.62962e-01,9.99999e-01
5.262515499e-01,9.63661e-01,9.99999e-01,9.99999e-01,9.99980e-01,9.63680e-01,9.99999e-01
5.288828077e-01,9.64367e-01,9.99999e-01,9.99999e-01,9.99982e-01,9.64384e-01,9.99999e-01
5.315272217e-01,9.65061e-01,9.99999e-01,9.99999e-01,9.99984e-01,9.65075e-01,9.99999e-01
5.341848578e-01,9.65744e-01,9.99999e-01,9.99999e-01,9.99989e-01,9.65753e-01,9.99999e-01
5.368557821e-01,9.66384e-01,9.99999e-01,9.99999e-01,9.99964e-01,9.66418e-01,9.99999e-01
5.395400610e-01,9.66947e-01,9.99999e-01,9.99999e-01,9.99872e-01,9.67070e-01,9.99998e-01
5.422377613e-01,9.67548e-01,9.99999e-01,9.99999e-01,9.99834e-01,9.67710e-01,9.99996e-01
5.449489501e-01,9.68187e-01,9.99999e-01,9.99999e-01,9.99846e-01,9.68338e-01,9.99996e-01
5.476736949e-01,9.68821e-01,9.99999e-01,9.99999e-01,9.99863e-01,9.68953e-01,9.99997e-01
5.504120634e-01,9.69461e-01,9.99999e-01,9.99999e-01,9.99901e-01,9.69557e-01,9.99999e-01
5.531641237e-01,9.70101e-01,9.99999e-01,9.99999e-01,9.99949e-01,9.70149e-01,9.99999e-01
5.559299443e-01,9.70707e-01,9.99999e-01,9.99999e-01,9.99975e-01,9.70730e-01,9.99999e-01
5.587095940e-01,9.71286e-01,9.99999e-01,9.99999e-01,9.99984e-01,9.71300e-01,9.99999e-01
5.615031420e-01,9.71843e-01,9.99999e-01,9.99999e-01,9.99982e-01,9.71859e-01,9.99999e-01
5.643106577e-01,9.72389e-01,9.99999e-01,9.99999e-01,9.99980e-01,9.72407e-01,9.99999e-01
5.671322110e-01,9.72720e-01,9.99999e-01,9.99999e-01,9.99770e-01,9.72945e-01,9.99997e-01
5.699678720e-01,9.73227e-01,9.99999e-01,9.99999e-01,9.99754e-01,9.73472e-01,9.99993e-01
5.728177114e-01,9.73736e-01,9.99999e-01,9.99999e-01,9.99745e-01,9.73989e-01,9.99994e-01
5.756818000e-01,9.74265e-01,9.99999e-01,9.99999e-01,9.99765e-01,9.74496e-01,9.99996e-01
5.785602090e-01,9.74794e-01,9.99999e-01,9.99999e-01,9.99795e-01,9.74993e-01,9.99998e-01
5.814530100e-01,9.75281e-01,9.99999e-01,9.99999e-01,9.99794e-01,9.75481e-01,9.99999e-01
5.843602750e-01,9.75721e-01,9.99999e-01,9.99999e-01,9.99756e-01,9.75960e-01,9.99998e-01
5.872820764e-01,9.74363e-01,9.99999e-01,9.99999e-01,9.97898e-01,9.76429e-01,9.99984e-01
5.902184868e-01,9.74361e-01,9.99999e-01,9.99999e-01,9.97451e-01,9.76889e-01,9.99959e-01
5.931695792e-01,9.75544e-01,9.99999e-01,9.99999e-01,9.98199e-01,9.77340e-01,9.99960e-01
5.961354271e-01,9.75832e-01,9.99999e-01,9.99999e-01,9.98026e-01,9.77783e-01,9.99977e-01
5.991161043e-01,9.76802e-01,9.99999e-01,9.99999e-01,9.98560e-01,9.78217e-01,9.99992e-01
6.021116848e-01,9.77842e-01,9.99999e-01,9.99999e-01,9.99182e-01,9.78642e-01,9.99998e-01
6.051222432e-01,9.78655e-01,9.99999e-01,9.99999e-01,9.99586e-01,9.79060e-01,9.99999e-01
6.081478544e-01,9.79295e-01,9.99999e-01,9.99999e-01,9.99821e-01,9.79469e-01,9.99999e-01
6.111885937e-01,9.79797e-01,9.99999e-01,9.99999e-01,9.99924e-01,9.79871e-01,9.99999e-01
6.142445367e-01,9.80231e-01,9.99999e-01,9.99999e-01,9.99965e-01,9.80264e-01,9.99999e-01
6.173157594e-01,9.80632e-01,9.99999e-01,9.99999e-01,9.99980e-01,9.80650e-01,9.99999e-01
6.204023382e-01,9.81013e-01,9.99999e-01,9.99999e-01,9.99983e-01,9.81029e-01,9.99999e-01
6.235043498e-01,9.81332e-01,9.99999e-01,9.99999e-01,9.99930e-01,9.81400e-01,9.99999e-01
6.266218716e-01,9.81402e-01,9.99999e-01,9.99999e-01,9.99633e-01,9.81764e-01,9.99996e-01
6.297549810e-01,9.81984e-01,9.99999e-01,9.99999e-01,9.99865e-01,9.82121e-01,9.99994e-01
6.329037559e-01,9.82206e-01,9.99999e-01,9.99999e-01,9.99733e-01,9.82471e-01,9.99995e-01
6.360682746e-01,9.82590e-01,9.99999e-01,9.99999e-01,9.99773e-01,9.82814e-01,9.99997e-01
6.392486160e-01,9.82862e-01,9.99999e-01,9.99999e-01,9.99706e-01,9.83151e-01,9.99998e-01
6.424448591e-01,9.83094e-01,9.99999e-01,9.99999e-01,9.99607e-01,9.83481e-01,9.99997e-01
6.456570834e-01,9.82005e-01,9.99999e-01,9.99999e-01,9.98180e-01,9.83804e-01,9.99989e-01
6.488853688e-01,9.82781e-01,9.99999e-01,9.99999e-01,9.98665e-01,9.84122e-01,9.99971e-01
6.521297956e-01,9.83071e-01,9.99999e-01,9.99999e-01,9.98638e-01,9.84433e-01,9.99976e-01
6.553904446e-01,9.83389e-01,9.99999e-01,9.99999e-01,9.98646e-01,9.84738e-01,9.99982e-01
6.586673968e-01,9.83889e-01,9.99999e-01,9.99999e-01,9.98840e-01,9.85037e-01,9.99993e-01
6.619607338e-01,9.84669e-01,9.99999e-01,9.99999e-01,9.99329e-01,9.85331e-01,9.99998e-01
6.652705375e-01,9.85235e-01,9.99999e-01,9.99999e-01,9.99611e-01,9.85618e-01,9.99998e-01
6.685968902e-01,9.85723e-01,9.99999e-01,9.99999e-01,9.99819e-01,9.85900e-01,9.99999e-01
6.719398746e-01,9.86094e-01,9.99999e-01,9.99999e-01,9.99916e-01,9.86177e-01,9.99999e-01
6.752995740e-01,9.86403e-01,9.99999e-01,9.99999e-01,9.99954e-01,9.86448e-01,9.99999e-01
6.786760719e-01,9.86649e-01,9.99999e-01,9.99999e-01,9.99934e-01,9.86714e-01,9.99999e-01
6.820694522e-01,9.86864e-01,9.99999e-01,9.99999e-01,9.99887e-01,9.86975e-01,9.99998e-01
6.854797995e-01,9.87087e-01,9.99999e-01,9.99999e-01,9.99855e-01,9.87230e-01,9.99998e-01
6.889071985e-01,9.87134e-01,9.99999e-01,9.99999e-01,9.99651e-01,9.87481e-01,9.99996e-01
6.923517345e-01,9.82079e-01,9.99999e-01,9.99999e-01,9.94308e-01,9.87727e-01,9.99972e-01
6.958134932e-01,9.84972e-01,9.99999e-01,9.99999e-01,9.97027e-01,9.87967e-01,9.99939e-01
6.992925606e-01,9.85370e-01,9.99999e-01,9.99999e-01,9.97186e-01,9.88204e-01,9.99945e-01
7.027890234e-01,9.84957e-01,9.99999e-01,9.99999e-01,9.96522e-01,9.88435e-01,9.99957e-01
7.063029686e-01,9.85752e-01,9.99999e-01,9.99999e-01,9.97076e-01,9.88662e-01,9.99978e-01
7.098344834e-01,9.86100e-01,9.99999e-01,9.99999e-01,9.97195e-01,9.88885e-01,9.99987e-01
7.133836558e-01,9.85389e-01,9.99999e-01,9.99999e-01,9.96268e-01,9.89103e-01,9.99975e-01
7.169505741e-01,9.59667e-01,9.99999e-01,9.99999e-01,9.70214e-01,9.89318e-01,9.99808e-01
7.205353270e-01,9.74645e-01,9.99999e-01,9.99999e-01,9.85291e-01,9.89527e-01,9.99661e-01
7.241380036e-01,9.71047e-01,9.99999e-01,9.99999e-01,9.81405e-01,9.89733e-01,9.99707e-01
7.277586936e-01,9.73075e-01,9.99999e-01,9.99999e-01,9.83202e-01,9.89935e-01,9.99761e-01
7.313974871e-01,9.72346e-01,9.99999e-01,9.99999e-01,9.82145e-01,9.90133e-01,9.99887e-01
7.350544745e-01,9.80604e-01,9.99999e-01,9.99999e-01,9.90220e-01,9.90327e-01,9.99960e-01
7.387297469e-01,9.83367e-01,9.99999e-01,9.99999e-01,9.92798e-01,9.90517e-01,9.99981e-01
7.424233956e-01,9.87205e-01,9.99999e-01,9.99999e-01,9.96471e-01,9.90703e-01,9.99996e-01
7.461355126e-01,9.88767e-01,9.99999e-01,9.99999e-01,9.97861e-01,9.90886e-01,9.99998e-01
7.498661902e-01,9.90078e-01,9.99999e-01,9.99999e-01,9.99003e-01,9.91065e-01,9.99999e-01
7.536155211e-01,9.90757e-01,9.99999e-01,9.99999e-01,9.99511e-01,9.91241e-01,9.99999e-01
7.573835987e-01,9.91164e-01,9.99999e-01,9.99999e-01,9.99748e-01,9.91413e-01,9.99999e-01
7.611705167e-01,9.91427e-01,9.99999e-01,9.99999e-01,9.99843e-01,9.91582e-01,9.99999e-01
7.649763693e-01,9.91651e-01,9.99999e-01,9.99999e-01,9.99901e-01,9.91748e-01,9.99999e-01
7.688012511e-01,9.91842e-01,9.99999e-01,9.99999e-01,9.99931e-01,9.91910e-01,9.99999e-01
7.726452574e-01,9.92013e-01,9.99999e-01,9.99999e-01,9.99943e-01,9.92069e-01,9.99999e-01
7.765084837e-01,9.92146e-01,9.99999e-01,9.99999e-01,9.99919e-01,9.92225e-01,9.99999e-01
7.803910261e-01,9.92037e-01,9.99999e-01,9.99999e-01,9.99655e-01,9.92378e-01,9.99999e-01
7.842929812e-01,9.91335e-01,9.99999e-01,9.99999e-01,9.98799e-01,9.92528e-01,9.99997e-01
7.882144461e-01,9.90203e-01,9.99999e-01,9.99999e-01,9.97523e-01,9.92675e-01,9.99984e-01
7.921555184e-01,9.91441e-01,9.99999e-01,9.99999e-01,9.98640e-01,9.92819e-01,9.99970e-01
7.961162960e-01,9.90552e-01,9.99999e-01,9.99999e-01,9.97602e-01,9.92961e-01,9.99971e-01
8.000968774e-01,9.90318e-01,9.99999e-01,9.99999e-01,9.97228e-01,9.93099e-01,9.99969e-01
8.040973618e-01,9.90459e-01,9.99999e-01,9.99999e-01,9.97228e-01,9.93235e-01,9.99975e-01
8.081178486e-01,9.87150e-01,9.99999e-01,9.99999e-01,9.93761e-01,9.93368e-01,9.99977e-01
8.121584379e-01,9.67762e-01,9.99999e-01,9.99999e-01,9.74180e-01,9.93499e-01,9.99912e-01
8.162192301e-01,9.62854e-01,9.99999e-01,9.99999e-01,9.69348e-01,9.93627e-01,9.99671e-01
8.203003262e-01,9.78064e-01,9.99999e-01,9.99999e-01,9.84591e-01,9.93752e-01,9.99614e-01
8.244018279e-01,9.72104e-01,9.99999e-01,9.99999e-01,9.78393e-01,9.93875e-01,9.99693e-01
8.285238370e-01,9.75515e-01,9.99999e-01,9.99999e-01,9.81643e-01,9.93996e-01,9.99759e-01
8.326664562e-01,9.75551e-01,9.99999e-01,9.99999e-01,9.81424e-01,9.94114e-01,9.99900e-01
8.368297885e-01,9.81000e-01,9.99999e-01,9.99999e-01,9.86715e-01,9.94230e-01,9.99976e-01
8.410139374e-01,9.86467e-01,9.99999e-01,9.99999e-01,9.92091e-01,9.94343e-01,9.99986e-01
8.452190071e-01,9.90585e-01,9.99999e-01,9.99999e-01,9.96116e-01,9.94455e-01,9.99991e-01
8.494451021e-01,9.92318e-01,9.99999e-01,9.99999e-01,9.97747e-01,9.94564e-01,9.99993e-01
8.536923276e-01,9.93342e-01,9.99999e-01,9.99999e-01,9.98666e-01,9.94671e-01,9.99995e-01
8.579607893e-01,9.93959e-01,9.99999e-01,9.99999e-01,9.99179e-01,9.94776e-01,9.99998e-01
8.622505932e-01,9.94360e-01,9.99999e-01,9.99999e-01,9.99478e-01,9.94879e-01,9.99999e-01
8.665618462e-01,9.94659e-01,9.99999e-01,9.99999e-01,9.99677e-01,9.94980e-01,9.99999e-01
8.708946554e-01,9.94712e-01,9.99999e-01,9.99999e-01,9.99630e-01,9.95079e-01,9.99999e-01
8.752491287e-01,9.94684e-01,9.99999e-01,9.99999e-01,9.99505e-01,9.95176e-01,9.99998e-01
8.796253743e-01,9.94589e-01,9.99999e-01,9.99999e-01,9.99316e-01,9.95271e-01,9.99997e-01
8.840235012e-01,9.94582e-01,9.99999e-01,9.99999e-01,9.99218e-01,9.95364e-01,9.99994e-01
8.884436187e-01,9.92613e-01,9.99999e-01,9.99999e-01,9.97157e-01,9.95455e-01,9.99985e-01
8.928858368e-01,9.65890e-01,9.99999e-01,9.99999e-01,9.70287e-01,9.95545e-01,9.99921e-01
8.973502660e-01,9.43367e-01,9.99999e-01,9.99999e-01,9.47882e-01,9.95633e-01,9.99599e-01
9.018370173e-01,9.68241e-01,9.99999e-01,9.99999e-01,9.73014e-01,9.95719e-01,9.99371e-01
9.063462024e-01,9.71664e-01,9.99999e-01,9.99999e-01,9.76297e-01,9.95803e-01,9.99447e-01
9.108779334e-01,9.58728e-01,9.99999e-01,9.99999e-01,9.63240e-01,9.95886e-01,9.99426e-01
9.154323231e-01,9.54048e-01,9.99999e-01,9.99999e-01,9.58365e-01,9.95967e-01,9.99525e-01
9.200094847e-01,9.63128e-01,9.99999e-01,9.99999e-01,9.67207e-01,9.96046e-01,9.99734e-01
9.246095321e-01,9.44973e-01,9.99999e-01,9.99999e-01,9.48939e-01,9.96124e-01,9.99693e-01
9.292325798e-01,6.98558e-01,9.99999e-01,9.99999e-01,7.02058e-01,9.96201e-01,9.98807e-01
9.338787427e-01,6.26983e-01,9.99999e-01,9.99999e-01,6.32436e-01,9.96276e-01,9.95081e-01
9.385481364e-01,8.23740e-01,9.99999e-01,9.99999e-01,8.31619e-01,9.96349e-01,9.94153e-01
9.432408771e-01,7.65644e-01,9.99999e-01,9.99999e-01,7.72290e-01,9.96421e-01,9.94953e-01
9.479570815e-01,6.93108e-01,9.99999e-01,9.99999e-01,6.98417e-01,9.96491e-01,9.95891e-01
9.526968669e-01,7.61114e-01,9.99999e-01,9.99999e-01,7.65660e-01,9.96561e-01,9.97491e-01
9.574603512e-01,7.81117e-01,9.99999e-01,9.99999e-01,7.84759e-01,9.96628e-01,9.98724e-01
9.622476530e-01,8.18001e-01,9.99999e-01,9.99999e-01,8.21437e-01,9.96695e-01,9.99117e-01
9.670588912e-01,8.89588e-01,9.99999e-01,9.99999e-01,8.93017e-01,9.96760e-01,9.99396e-01
9.718941857e-01,9.28619e-01,9.99999e-01,9.99999e-01,9.31990e-01,9.96824e-01,9.99555e-01
9.767536566e-01,9.39978e-01,9.99999e-01,9.99999e-01,9.43233e-01,9.96887e-01,9.99660e-01
9.816374249e-01,9.54605e-01,9.99999e-01,9.99999e-01,9.57639e-01,9.96948e-01,9.99882e-01
9.865456120e-01,9.70402e-01,9.99999e-01,9.99999e-01,9.73337e-01,9.97008e-01,9.99975e-01
9.914783401e-01,9.80556e-01,9.99999e-01,9.99999e-01,9.83446e-01,9.97067e-01,9.99992e-01
9.964357318e-01,9.88101e-01,9.99999e-01,9.99999e-01,9.90953e-01,9.97125e-01,9.99995e-01
1.001417910e+00,9.91761e-01,9.99999e-01,9.99999e-01,9.94569e-01,9.97182e-01,9.99993e-01
1.006425000e+00,9.94140e-01,9.99999e-01,9.99999e-01,9.96902e-01,9.97237e-01,9.99990e-01
1.011457125e+00,9.95365e-01,9.99999e-01,9.99999e-01,9.98076e-01,9.97292e-01,9.99991e-01
1.016514411e+00,9.96037e-01,9.99999e-01,9.99999e-01,9.98693e-01,9.97345e-01,9.99993e-01
1.021596983e+00,9.96354e-01,9.99999e-01,9.99999e-01,9.98959e-01,9.97397e-01,9.99993e-01
1.026704968e+00,9.96636e-01,9.99999e-01,9.99999e-01,9.99188e-01,9.97449e-01,9.99995e-01
1.031838492e+00,9.96910e-01,9.99999e-01,9.99999e-01,9.99409e-01,9.97499e-01,9.99998e-01
1.036997685e+00,9.97199e-01,9.99999e-01,9.99999e-01,9.99649e-01,9.97548e-01,9.99999e-01
1.042182673e+00,9.97180e-01,9.99999e-01,9.99999e-01,9.99582e-01,9.97597e-01,9.99999e-01
1.047393587e+00,9.97092e-01,9.99999e-01,9.99999e-01,9.99445e-01,9.97644e-01,9.99999e-01
1.052630555e+00,9.96933e-01,9.99999e-01,9.99999e-01,9.99239e-01,9.97691e-01,9.99999e-01
1.057893707e+00,9.96471e-01,9.99999e-01,9.99999e-01,9.98731e-01,9.97736e-01,9.99999e-01
1.063183176e+00,9.95698e-01,9.99999e-01,9.99999e-01,9.97913e-01,9.97781e-01,9.99998e-01
1.068499092e+00,9.94336e-01,9.99999e-01,9.99999e-01,9.96505e-01,9.97825e-01,9.99997e-01
1.073841587e+00,9.93783e-01,9.99999e-01,9.99999e-01,9.95911e-01,9.97867e-01,9.99994e-01
1.079210795e+00,9.92668e-01,9.99999e-01,9.99999e-01,9.94761e-01,9.97910e-01,9.99985e-01
1.084606849e+00,9.90013e-01,9.99999e-01,9.99999e-01,9.92078e-01,9.97951e-01,9.99965e-01
1.090029883e+00,9.86589e-01,9.99999e-01,9.99999e-01,9.88643e-01,9.97991e-01,9.99929e-01
1.095480033e+00,9.67309e-01,9.99999e-01,9.99999e-01,9.69338e-01,9.98031e-01,9.99873e-01
1.100957433e+00,9.21789e-01,9.99999e-01,9.99999e-01,9.23785e-01,9.98070e-01,9.99767e-01
1.106462220e+00,8.14941e-01,9.99999e-01,9.99999e-01,8.16807e-01,9.98108e-01,9.99606e-01
1.111994531e+00,6.50317e-01,9.99999e-01,9.99999e-01,6.52205e-01,9.98145e-01,9.98956e-01
1.117554504e+00,4.96792e-01,9.99999e-01,9.99999e-01,4.99576e-01,9.98182e-01,9.96237e-01
1.123142276e+00,5.90569e-01,9.99999e-01,9.99999e-01,5.96934e-01,9.98217e-01,9.91100e-01
1.128757988e+00,7.12131e-01,9.99999e-01,9.99999e-01,7.20792e-01,9.98253e-01,9.89712e-01
1.134401778e+00,4.64644e-01,9.99999e-01,9.99999e-01,4.69551e-01,9.98287e-01,9.91245e-01
1.140073787e+00,8.16674e-01,9.99999e-01,9.99999e-01,8.23813e-01,9.98321e-01,9.92999e-01
1.145774156e+00,6.60173e-01,9.99999e-01,9.99999e-01,6.65526e-01,9.98354e-01,9.93589e-01
1.151503026e+00,6.31018e-01,9.99999e-01,9.99999e-01,6.34305e-01,9.98386e-01,9.96423e-01
1.157260541e+00,6.84923e-01,9.99999e-01,9.99999e-01,6.86742e-01,9.98418e-01,9.98929e-01
1.163046844e+00,7.56381e-01,9.99999e-01,9.99999e-01,7.57785e-01,9.98449e-01,9.99695e-01
1.168862078e+00,8.23975e-01,9.99999e-01,9.99999e-01,8.25357e-01,9.98480e-01,9.99843e-01
1.174706389e+00,8.86823e-01,9.99999e-01,9.99999e-01,8.88329e-01,9.98510e-01,9.99792e-01
1.180579921e+00,9.28828e-01,9.99999e-01,9.99999e-01,9.30477e-01,9.98539e-01,9.99686e-01
1.186482820e+00,9.58467e-01,9.99999e-01,9.99999e-01,9.60149e-01,9.98568e-01,9.99677e-01
1.192415234e+00,9.74961e-01,9.99999e-01,9.99999e-01,9.76566e-01,9.98596e-01,9.99758e-01
1.198377311e+00,9.78646e-01,9.99999e-01,9.99999e-01,9.80217e-01,9.98624e-01,9.99771e-01
1.204369197e+00,9.79734e-01,9.99999e-01,9.99999e-01,9.81258e-01,9.98651e-01,9.99793e-01
1.210391043e+00,9.80655e-01,9.99999e-01,9.99999e-01,9.82075e-01,9.98678e-01,9.99874e-01
1.216442998e+00,9.83376e-01,9.99999e-01,9.99999e-01,9.84727e-01,9.98704e-01,9.99922e-01
1.222525213e+00,9.86795e-01,9.99999e-01,9.99999e-01,9.88096e-01,9.98730e-01,9.99951e-01
1.228637839e+00,9.90466e-01,9.99999e-01,9.99999e-01,9.91722e-01,9.98755e-01,9.99977e-01
