#,Wave/freq,Total,N2,O2,H2O,Rayleigh,CIA
4.000000000e-01,7.66804e-01,9.99999e-01,9.99999e-01,9.99969e-01,7.66827e-01,9.99999e-01
4.020000000e-01,7.70849e-01,9.99999e-01,9.99999e-01,9.99981e-01,7.70863e-01,9.99999e-01
4.040100000e-01,7.74830e-01,9.99999e-01,9.99999e-01,9.99991e-01,7.74836e-01,9.99999e-01
4.060300500e-01,7.78749e-01,9.99999e-01,9.99999e-01,9.99997e-01,7.78750e-01,9.99999e-01
4.080602003e-01,7.82606e-01,9.99999e-01,9.99999e-01,9.99998e-01,7.82606e-01,9.99999e-01
4.101005013e-01,7.86404e-01,9.99999e-01,9.99999e-01,9.99999e-01,7.86404e-01,9.99999e-01
4.121510038e-01,7.90145e-01,9.99999e-01,9.99999e-01,9.99998e-01,7.90146e-01,9.99999e-01
4.142117588e-01,7.93824e-01,9.99999e-01,9.99999e-01,9.99991e-01,7.93830e-01,9.99999e-01
4.162828176e-01,7.97429e-01,9.99999e-01,9.99999e-01,9.99962e-01,7.97459e-01,9.99999e-01
4.183642317e-01,8.01014e-01,9.99999e-01,9.99999e-01,9.99977e-01,8.01032e-01,9.99999e-01
4.204560528e-01,8.04539e-01,9.99999e-01,9.99999e-01,9.99986e-01,8.04550e-01,9.99999e-01
4.225583331e-01,8.08009e-01,9.99999e-01,9.99999e-01,9.99994e-01,8.08013e-01,9.99999e-01
4.246711247e-01,8.11420e-01,9.99999e-01,9.99999e-01,9.99995e-01,8.11423e-01,9.99999e-01
4.267944804e-01,8.14774e-01,9.99999e-01,9.99999e-01,9.99993e-01,8.14779e-01,9.99999e-01
4.289284528e-01,8.18079e-01,9.99999e-01,9.99999e-01,9.99994e-01,8.18082e-01,9.99999e-01
4.310730950e-01,8.21332e-01,9.99999e-01,9.99999e-01,9.99997e-01,8.21333e-01,9.99999e-01
4.332284605e-01,8.24532e-01,9.99999e-01,9.99999e-01,9.99999e-01,8.24533e-01,9.99999e-01
4.353946028e-01,8.27681e-01,9.99999e-01,9.99999e-01,9.99999e-01,8.27681e-01,9.99999e-01
4.375715758e-01,8.30776e-01,9.99999e-01,9.99999e-01,9.99995e-01,8.30779e-01,9.99999e-01
4.397594337e-01,8.33799e-01,9.99999e-01,9.99999e-01,9.99966e-01,8.33827e-01,9.99999e-01
4.419582309e-01,8.36684e-01,9.99999e-01,9.99999e-01,9.99830e-01,8.36825e-01,9.99999e-01
4.441680220e-01,8.39667e-01,9.99999e-01,9.99999e-01,9.99871e-01,8.39775e-01,9.99999e-01
4.463888621e-01,8.42563e-01,9.99999e-01,9.99999e-01,9.99865e-01,8.42676e-01,9.99999e-01
4.486208064e-01,8.45460e-01,9.99999e-01,9.99999e-01,9.99916e-01,8.45530e-01,9.99999e-01
4.508639105e-01,8.48304e-01,9.99999e-01,9.99999e-01,9.99960e-01,8.48337e-01,9.99999e-01
4.531182300e-01,8.51085e-01,9.99999e-01,9.99999e-01,9.99984e-01,8.51098e-01,9.99999e-01
4.553838212e-01,8.53804e-01,9.99999e-01,9.99999e-01,9.99989e-01,8.53813e-01,9.99999e-01
4.576607403e-01,8.56478e-01,9.99999e-01,9.99999e-01,9.99994e-01,8.56482e-01,9.99999e-01
4.599490440e-01,8.59104e-01,9.99999e-01,9.99999e-01,9.99996e-01,8.59107e-01,9.99999e-01
4.622487892e-01,8.61687e-01,9.99999e-01,9.99999e-01,9.99998e-01,8.61688e-01,9.99999e-01
4.645600332e-01,8.64223e-01,9.99999e-01,9.99999e-01,9.99997e-01,8.64225e-01,9.99999e-01
4.668828333e-01,8.66685e-01,9.99999e-01,9.99999e-01,9.99959e-01,8.66720e-01,9.99999e-01
4.692172475e-01,8.69099e-01,9.99999e-01,9.99999e-01,9.99915e-01,8.69172e-01,9.99999e-01
4.715633337e-01,8.71535e-01,9.99999e-01,9.99999e-01,9.99944e-01,8.71583e-01,9.99999e-01
4.739211504e-01,8.73906e-01,9.99999e-01,9.99999e-01,9.99947e-01,8.73952e-01,9.99999e-01
4.762907561e-01,8.76257e-01,9.99999e-01,9.99999e-01,9.99972e-01,8.76281e-01,9.99999e-01
4.786722099e-01,8.78560e-01,9.99999e-01,9.99999e-01,9.99988e-01,8.78570e-01,9.99999e-01
4.810655710e-01,8.80816e-01,9.99999e-01,9.99999e-01,9.99996e-01,8.80819e-01,9.99999e-01
4.834708988e-01,8.83001e-01,9.99999e-01,9.99999e-01,9.99966e-01,8.83030e-01,9.99999e-01
4.858882533e-01,8.85150e-01,9.99999e-01,9.99999e-01,9.99940e-01,8.85202e-01,9.99999e-01
4.883176946e-01,8.87293e-01,9.99999e-01,9.99999e-01,9.99949e-01,8.87337e-01,9.99999e-01
4.907592831e-01,8.89395e-01,9.99999e-01,9.99999e-01,9.99954e-01,8.89435e-01,9.99999e-01
4.932130795e-01,8.91467e-01,9.99999e-01,9.99999e-01,9.99967e-01,8.91495e-01,9.99999e-01
4.956791449e-01,8.93505e-01,9.99999e-01,9.99999e-01,9.99982e-01,8.93520e-01,9.99999e-01
4.981575406e-01,8.95433e-01,9.99999e-01,9.99999e-01,9.99914e-01,8.95509e-01,9.99999e-01
5.006483283e-01,8.97263e-01,9.99999e-01,9.99999e-01,9.99776e-01,8.97464e-01,9.99998e-01
5.031515699e-01,8.98369e-01,9.99999e-01,9.99999e-01,9.98882e-01,8.99384e-01,9.99987e-01
5.056673278e-01,9.00729e-01,9.99999e-01,9.99999e-01,9.99412e-01,9.01269e-01,9.99986e-01
5.081956644e-01,9.02447e-01,9.99999e-01,9.99999e-01,9.99260e-01,9.03122e-01,9.99991e-01
5.107366428e-01,9.04489e-01,9.99999e-01,9.99999e-01,9.99500e-01,9.04941e-01,9.99998e-01
5.132903260e-01,9.06471e-01,9.99999e-01,9.99999e-01,9.99715e-01,9.06729e-01,9.99999e-01
5.158567776e-01,9.08375e-01,9.99999e-01,9.99999e-01,9.99879e-01,9.08484e-01,9.99999e-01
5.184360615e-01,9.10164e-01,9.99999e-01,9.99999e-01,9.99951e-01,9.10208e-01,9.99999e-01
5.210282418e-01,9.11884e-01,9.99999e-01,9.99999e-01,9.99981e-01,9.11901e-01,9.99999e-01
5.236333830e-01,9.13497e-01,9.99999e-01,9.99999e-01,9.99926e-01,9.13564e-01,9.99998e-01
5.262515499e-01,9.15154e-01,9.99999e-01,9.99999e-01,9.99954e-01,9.15196e-01,9.99998e-01
5.288828077e-01,9.16761e-01,9.99999e-01,9.99999e-01,9.99957e-01,9.16800e-01,9.99999e-01
5.315272217e-01,9.18341e-01,9.99999e-01,9.99999e-01,9.99963e-01,9.18374e-01,9.99999e-01
5.341848578e-01,9.19898e-01,9.99999e-01,9.99999e-01,9.99975e-01,9.19920e-01,9.99999e-01
5.368557821e-01,9.21359e-01,9.99999e-01,9.99999e-01,9.99914e-01,9.21438e-01,9.99999e-01
5.395400610e-01,9.22639e-01,9.99999e-01,9.99999e-01,9.99689e-01,9.22928e-01,9.99996e-01
5.422377613e-01,9.24022e-01,9.99999e-01,9.99999e-01,9.99606e-01,9.24391e-01,9.99992e-01
5.449489501e-01,9.25480e-01,9.99999e-01,9.99999e-01,9.99630e-01,9.25828e-01,9.99992e-01
5.476736949e-01,9.26936e-01,9.99999e-01,9.99999e-01,9.99676e-01,9.27239e-01,9.99995e-01
5.504120634e-01,9.28404e-01,9.99999e-01,9.99999e-01,9.99765e-01,9.28623e-01,9.99998e-01
5.531641237e-01,9.29873e-01,9.99999e-01,9.99999e-01,9.99881e-01,9.29982e-01,9.99999e-01
5.559299443e-01,9.31264e-01,9.99999e-01,9.99999e-01,9.99942e-01,9.31317e-01,9.99999e-01
5.587095940e-01,9.32593e-01,9.99999e-01,9.99999e-01,9.99963e-01,9.32627e-01,9.99999e-01
5.615031420e-01,9.33875e-01,9.99999e-01,9.99999e-01,9.99959e-01,9.33912e-01,9.99999e-01
5.643106577e-01,9.35131e-01,9.99999e-01,9.99999e-01,9.99953e-01,9.35175e-01,9.99999e-01
5.671322110e-01,9.35880e-01,9.99999e-01,9.99999e-01,9.99435e-01,9.36413e-01,9.99994e-01
5.699678720e-01,9.37073e-01,9.99999e-01,9.99999e-01,9.99420e-01,9.37629e-01,9.99984e-01
5.728177114e-01,9.38237e-01,9.99999e-01,9.99999e-01,9.99387e-01,9.38823e-01,9.99987e-01
5.756818000e-01,9.39461e-01,9.99999e-01,9.99999e-01,9.99439e-01,9.39994e-01,9.99992e-01
5.785602090e-01,9.40684e-01,9.99999e-01,9.99999e-01,9.99513e-01,9.41144e-01,9.99997e-01
5.814530100e-01,9.41809e-01,9.99999e-01,9.99999e-01,9.99509e-01,9.42272e-01,9.99998e-01
5.843602750e-01,9.42820e-01,9.99999e-01,9.99999e-01,9.99409e-01,9.43379e-01,9.99996e-01
5.872820764e-01,9.39640e-01,9.99999e-01,9.99999e-01,9.94925e-01,9.44466e-01,9.99964e-01
5.902184868e-01,9.39699e-01,9.99999e-01,9.99999e-01,9.93925e-01,9.45533e-01,9.99903e-01
5.931695792e-01,9.42412e-01,9.99999e-01,9.99999e-01,9.95689e-01,9.46579e-01,9.99906e-01
5.961354271e-01,9.43092e-01,9.99999e-01,9.99999e-01,9.95288e-01,9.47606e-01,9.99946e-01
5.991161043e-01,9.45343e-01,9.99999e-01,9.99999e-01,9.96567e-01,9.48614e-01,9.99983e-01
6.021116848e-01,9.47754e-01,9.99999e-01,9.99999e-01,9.98054e-01,9.49603e-01,9.99997e-01
6.051222432e-01,9.49638e-01,9.99999e-01,9.99999e-01,9.99015e-01,9.50574e-01,9.99999e-01
6.081478544e-01,9.51121e-01,9.99999e-01,9.99999e-01,9.99574e-01,9.51526e-01,9.99999e-01
6.111885937e-01,9.52290e-01,9.99999e-01,9.99999e-01,9.99820e-01,9.52460e-01,9.99999e-01
6.142445367e-01,9.53300e-01,9.99999e-01,9.99999e-01,9.99919e-01,9.53377e-01,9.99999e-01
6.173157594e-01,9.54234e-01,9.99999e-01,9.99999e-01,9.99955e-01,9.54276e-01,9.99999e-01
6.204023382e-01,9.55123e-01,9.99999e-01,9.99999e-01,9.99961e-01,9.55159e-01,9.99999e-01
6.235043498e-01,9.55862e-01,9.99999e-01,9.99999e-01,9.99829e-01,9.56025e-01,9.99999e-01
6.266218716e-01,9.56028e-01,9.99999e-01,9.99999e-01,9.99121e-01,9.56874e-01,9.99993e-01
6.297549810e-01,9.57388e-01,9.99999e-01,9.99999e-01,9.99677e-01,9.57708e-01,9.99987e-01
6.329037559e-01,9.57909e-01,9.99999e-01,9.99999e-01,9.99365e-01,9.58526e-01,9.99989e-01
6.360682746e-01,9.58801e-01,9.99999e-01,9.99999e-01,9.99456e-01,9.59328e-01,9.99993e-01
6.392486160e-01,9.59439e-01,9.99999e-01,9.99999e-01,9.99297e-01,9.60115e-01,9.99996e-01
6.424448591e-01,9.59971e-01,9.99999e-01,9.99999e-01,9.99049e-01,9.60887e-01,9.99994e-01
6.456570834e-01,9.57384e-01,9.99999e-01,9.99999e-01,9.95595e-01,9.61645e-01,9.99973e-01
6.488853688e-01,9.59264e-01,9.99999e-01,9.99999e-01,9.96820e-01,9.62388e-01,9.99931e-01
6.521297956e-01,9.59943e-01,9.99999e-01,9.99999e-01,9.96759e-01,9.63117e-01,9.99943e-01
6.553904446e-01,9.60665e-01,9.99999e-01,9.99999e-01,9.96754e-01,9.63832e-01,9.99957e-01
6.586673968e-01,9.61855e-01,9.99999e-01,9.99999e-01,9.97235e-01,9.64534e-01,9.99985e-01
6.619607338e-01,9.63733e-01,9.99999e-01,9.99999e-01,9.98459e-01,9.65222e-01,9.99996e-01
6.652705375e-01,9.65003e-01,9.99999e-01,9.99999e-01,9.99075e-01,9.65897e-01,9.99997e-01
6.685968902e-01,9.66180e-01,9.99999e-01,9.99999e-01,9.99607e-01,9.66559e-01,9.99999e-01
6.719398746e-01,9.67017e-01,9.99999e-01,9.99999e-01,9.99800e-01,9.67209e-01,9.99999e-01
6.752995740e-01,9.67744e-01,9.99999e-01,9.99999e-01,9.99894e-01,9.67846e-01,9.99999e-01
6.786760719e-01,9.68318e-01,9.99999e-01,9.99999e-01,9.99841e-01,9.68471e-01,9.99999e-01
6.820694522e-01,9.68820e-01,9.99999e-01,9.99999e-01,9.99728e-01,9.69084e-01,9.99998e-01
6.854797995e-01,9.69347e-01,9.99999e-01,9.99999e-01,9.99653e-01,9.69685e-01,9.99996e-01
6.889071985e-01,9.69179e-01,9.99999e-01,9.99999e-01,9.98877e-01,9.70275e-01,9.99992e-01
6.923517345e-01,9.57437e-01,9.99999e-01,9.99999e-01,9.86244e-01,9.70854e-01,9.99934e-01
6.958134932e-01,9.64529e-01,9.99999e-01,9.99999e-01,9.93048e-01,9.71421e-01,9.99854e-01
6.992925606e-01,9.65255e-01,9.99999e-01,9.99999e-01,9.93212e-01,9.71978e-01,9.99869e-01
7.027890234e-01,9.64369e-01,9.99999e-01,9.99999e-01,9.91714e-01,9.72523e-01,9.99899e-01
7.063029686e-01,9.66221e-01,9.99999e-01,9.99999e-01,9.93021e-01,9.73059e-01,9.99949e-01
7.098344834e-01,9.67036e-01,9.99999e-01,9.99999e-01,9.93303e-01,9.73584e-01,9.99970e-01
7.133836558e-01,9.65216e-01,9.99999e-01,9.99999e-01,9.90938e-01,9.74099e-01,9.99941e-01
7.169505741e-01,9.05946e-01,9.99999e-01,9.99999e-01,9.29979e-01,9.74604e-01,9.99541e-01
7.205353270e-01,9.41109e-01,9.99999e-01,9.99999e-01,9.65922e-01,9.75099e-01,9.99190e-01
7.241380036e-01,9.32006e-01,9.99999e-01,9.99999e-01,9.55998e-01,9.75585e-01,9.99301e-01
7.277586936e-01,9.36742e-01,9.99999e-01,9.99999e-01,9.60264e-01,9.76061e-01,9.99428e-01
7.313974871e-01,9.35398e-01,9.99999e-01,9.99999e-01,9.58136e-01,9.76528e-01,9.99732e-01
7.350544745e-01,9.54293e-01,9.99999e-01,9.99999e-01,9.76861e-01,9.76987e-01,9.99906e-01
7.387297469e-01,9.60718e-01,9.99999e-01,9.99999e-01,9.82937e-01,9.77436e-01,9.99956e-01
7.424233956e-01,9.69697e-01,9.99999e-01,9.99999e-01,9.91642e-01,9.77877e-01,9.99992e-01
7.461355126e-01,9.73336e-01,9.99999e-01,9.99999e-01,9.94917e-01,9.78309e-01,9.99998e-01
7.498661902e-01,9.76423e-01,9.99999e-01,9.99999e-01,9.97640e-01,9.78733e-01,9.99998e-01
7.536155211e-01,9.78010e-01,9.99999e-01,9.99999e-01,9.98837e-01,9.79148e-01,9.99999e-01
7.573835987e-01,9.78970e-01,9.99999e-01,9.99999e-01,9.99401e-01,9.79556e-01,9.99999e-01
7.611705167e-01,9.79592e-01,9.99999e-01,9.99999e-01,9.99627e-01,9.79956e-01,9.99999e-01
7.649763693e-01,9.80119e-01,9.99999e-01,9.99999e-01,9.99766e-01,9.80348e-01,9.99999e-01
7.688012511e-01,9.80573e-01,9.99999e-01,9.99999e-01,9.99836e-01,9.80732e-01,9.99999e-01
7.726452574e-01,9.80978e-01,9.99999e-01,9.99999e-01,9.99865e-01,9.81109e-01,9.99999e-01
7.765084837e-01,9.81290e-01,9.99999e-01,9.99999e-01,9.99807e-01,9.81479e-01,9.99999e-01
7.803910261e-01,9.81022e-01,9.99999e-01,9.99999e-01,9.99166e-01,9.81841e-01,9.99998e-01
7.842929812e-01,9.79335e-01,9.99999e-01,9.99999e-01,9.97091e-01,9.82197e-01,9.99994e-01
7.882144461e-01,9.76690e-01,9.99999e-01,9.99999e-01,9.94080e-01,9.82545e-01,9.99958e-01
7.921555184e-01,9.79646e-01,9.99999e-01,9.99999e-01,9.96772e-01,9.82887e-01,9.99928e-01
7.961162960e-01,9.77469e-01,9.99999e-01,9.99999e-01,9.94215e-01,9.83222e-01,9.99932e-01
8.000968774e-01,9.76962e-01,9.99999e-01,9.99999e-01,9.93371e-01,9.83551e-01,9.99928e-01
8.040973618e-01,9.77285e-01,9.99999e-01,9.99999e-01,9.93357e-01,9.83873e-01,9.99944e-01
8.081178486e-01,9.69339e-01,9.99999e-01,9.99999e-01,9.84965e-01,9.84189e-01,9.99944e-01
8.121584379e-01,9.24203e-01,9.99999e-01,9.99999e-01,9.38951e-01,9.84499e-01,9.99790e-01
8.162192301e-01,9.14037e-01,9.99999e-01,9.99999e-01,9.28872e-01,9.84803e-01,9.99212e-01
8.203003262e-01,9.47965e-01,9.99999e-01,9.99999e-01,9.63189e-01,9.85101e-01,9.99078e-01
8.244018279e-01,9.36047e-01,9.99999e-01,9.99999e-01,9.50619e-01,9.85393e-01,9.99266e-01
8.285238370e-01,9.42312e-01,9.99999e-01,9.99999e-01,9.56553e-01,9.85679e-01,9.99423e-01
8.326664562e-01,9.42683e-01,9.99999e-01,9.99999e-01,9.56333e-01,9.85960e-01,9.99761e-01
8.368297885e-01,9.55291e-01,9.99999e-01,9.99999e-01,9.68675e-01,9.86235e-01,9.99945e-01
8.410139374e-01,9.68011e-01,9.99999e-01,9.99999e-01,9.81282e-01,9.86506e-01,9.99967e-01
8.452190071e-01,9.77670e-01,9.99999e-01,9.99999e-01,9.90796e-01,9.86770e-01,9.99980e-01
8.494451021e-01,9.81710e-01,9.99999e-01,9.99999e-01,9.94624e-01,9.87030e-01,9.99984e-01
8.536923276e-01,9.84148e-01,9.99999e-01,9.99999e-01,9.96831e-01,9.87284e-01,9.99990e-01
8.579607893e-01,9.85597e-01,9.99999e-01,9.99999e-01,9.98040e-01,9.87534e-01,9.99997e-01
8.622505932e-01,9.86553e-01,9.99999e-01,9.99999e-01,9.98758e-01,9.87779e-01,9.99999e-01
8.665618462e-01,9.87256e-01,9.99999e-01,9.99999e-01,9.99228e-01,9.88019e-01,9.99999e-01
8.708946554e-01,9.87378e-01,9.99999e-01,9.99999e-01,9.99113e-01,9.88254e-01,9.99999e-01
8.752491287e-01,9.87314e-01,9.99999e-01,9.99999e-01,9.98816e-01,9.88485e-01,9.99998e-01
8.796253743e-01,9.87080e-01,9.99999e-01,9.99999e-01,9.98354e-01,9.88711e-01,9.99995e-01
8.840235012e-01,9.87065e-01,9.99999e-01,9.99999e-01,9.98122e-01,9.88932e-01,9.99988e-01
8.884436187e-01,9.82192e-01,9.99999e-01,9.99999e-01,9.92998e-01,9.89150e-01,9.99967e-01
8.928858368e-01,9.19801e-01,9.99999e-01,9.99999e-01,9.29862e-01,9.89363e-01,9.99812e-01
8.973502660e-01,8.70719e-01,9.99999e-01,9.99999e-01,8.80737e-01,9.89572e-01,9.99042e-01
9.018370173e-01,9.26894e-01,9.99999e-01,9.99999e-01,9.37877e-01,9.89777e-01,9.98494e-01
9.063462024e-01,9.33233e-01,9.99999e-01,9.99999e-01,9.43927e-01,9.89978e-01,9.98677e-01
9.108779334e-01,9.04273e-01,9.99999e-01,9.99999e-01,9.14501e-01,9.90175e-01,9.98626e-01
9.154323231e-01,8.93925e-01,9.99999e-01,9.99999e-01,9.03644e-01,9.90368e-01,9.98864e-01
9.200094847e-01,9.14692e-01,9.99999e-01,9.99999e-01,9.23998e-01,9.90557e-01,9.99363e-01
9.246095321e-01,8.72769e-01,9.99999e-01,9.99999e-01,8.81568e-01,9.90743e-01,9.99267e-01
9.292325798e-01,4.35769e-01,9.99999e-01,9.99999e-01,4.41318e-01,9.90925e-01,9.96468e-01
9.338787427e-01,3.46170e-01,9.99999e-01,9.99999e-01,3.53772e-01,9.91103e-01,9.87295e-01
9.385481364e-01,6.42369e-01,9.99999e-01,9.99999e-01,6.57188e-01,9.91278e-01,9.86050e-01
9.432408771e-01,5.46107e-01,9.99999e-01,9.99999e-01,5.57532e-01,9.91450e-01,9.87953e-01
9.479570815e-01,4.41422e-01,9.99999e-01,9.99999e-01,4.49565e-01,9.91618e-01,9.90184e-01
9.526968669e-01,5.39626e-01,9.99999e-01,9.99999e-01,5.47380e-01,9.91783e-01,9.94001e-01
9.574603512e-01,5.62852e-01,9.99999e-01,9.99999e-01,5.69159e-01,9.91944e-01,9.96948e-01
9.622476530e-01,6.25477e-01,9.99999e-01,9.99999e-01,6.31789e-01,9.92103e-01,9.97888e-01
9.670588912e-01,7.59501e-01,9.99999e-01,9.99999e-01,7.66486e-01,9.92258e-01,9.98616e-01
9.718941857e-01,8.38387e-01,9.99999e-01,9.99999e-01,8.45694e-01,9.92411e-01,9.98939e-01
9.767536566e-01,8.62849e-01,9.99999e-01,9.99999e-01,8.70023e-01,9.92560e-01,9.99186e-01
9.816374249e-01,8.95355e-01,9.99999e-01,9.99999e-01,9.02186e-01,9.92706e-01,9.99718e-01
9.865456120e-01,9.30944e-01,9.99999e-01,9.99999e-01,9.37703e-01,9.92850e-01,9.99940e-01
9.914783401e-01,9.54234e-01,9.99999e-01,9.99999e-01,9.60984e-01,9.92991e-01,9.99983e-01
9.964357318e-01,9.71835e-01,9.99999e-01,9.99999e-01,9.78568e-01,9.93128e-01,9.99990e-01
1.001417910e+00,9.80447e-01,9.99999e-01,9.99999e-01,9.87110e-01,9.93264e-01,9.99985e-01
1.006425000e+00,9.86036e-01,9.99999e-01,9.99999e-01,9.92610e-01,9.93396e-01,9.99978e-01
1.011457125e+00,9.88961e-01,9.99999e-01,9.99999e-01,9.95423e-01,9.93526e-01,9.99980e-01
1.016514411e+00,9.90546e-01,9.99999e-01,9.99999e-01,9.96885e-01,9.93654e-01,9.99985e-01
1.021596983e+00,9.91296e-01,9.99999e-01,9.99999e-01,9.97515e-01,9.93779e-01,9.99986e-01
1.026704968e+00,9.91965e-01,9.99999e-01,9.99999e-01,9.98060e-01,9.93901e-01,9.99991e-01
1.031838492e+00,9.92621e-01,9.99999e-01,9.99999e-01,9.98593e-01,9.94021e-01,9.99997e-01
1.036997685e+00,9.93306e-01,9.99999e-01,9.99999e-01,9.99162e-01,9.94139e-01,9.99999e-01
1.042182673e+00,9.93257e-01,9.99999e-01,9.99999e-01,9.98996e-01,9.94254e-01,9.99999e-01
1.047393587e+00,9.93048e-01,9.99999e-01,9.99999e-01,9.98672e-01,9.94368e-01,9.99999e-01
1.052630555e+00,9.92664e-01,9.99999e-01,9.99999e-01,9.98175e-01,9.94478e-01,9.99999e-01
1.057893707e+00,9.91552e-01,9.99999e-01,9.99999e-01,9.96949e-01,9.94587e-01,9.99998e-01
1.063183176e+00,9.89709e-01,9.99999e-01,9.99999e-01,9.94990e-01,9.94694e-01,9.99996e-01
1.068499092e+00,9.86477e-01,9.99999e-01,9.99999e-01,9.91640e-01,9.94798e-01,9.99993e-01
1.073841587e+00,9.85138e-01,9.99999e-01,9.99999e-01,9.90198e-01,9.94901e-01,9.99987e-01
1.079210795e+00,9.82541e-01,9.99999e-01,9.99999e-01,9.87509e-01,9.95001e-01,9.99966e-01
1.084606849e+00,9.76222e-01,9.99999e-01,9.99999e-01,9.81107e-01,9.95100e-01,9.99919e-01
1.090029883e+00,9.67916e-01,9.99999e-01,9.99999e-01,9.72749e-01,9.95196e-01,9.99832e-01
1.095480033e+00,9.23061e-01,9.99999e-01,9.99999e-01,9.27707e-01,9.95291e-01,9.99697e-01
1.100957433e+00,8.22541e-01,9.99999e-01,9.99999e-01,8.26814e-01,9.95384e-01,9.99444e-01
1.106462220e+00,6.15611e-01,9.99999e-01,9.99999e-01,6.18992e-01,9.95475e-01,9.99057e-01
1.111994531e+00,3.67932e-01,9.99999e-01,9.99999e-01,3.70497e-01,9.95564e-01,9.97501e-01
1.117554504e+00,2.01599e-01,9.99999e-01,9.99999e-01,2.04316e-01,9.95651e-01,9.91009e-01
1.123142276e+00,3.14534e-01,9.99999e-01,9.99999e-01,3.22718e-01,9.95737e-01,9.78812e-01
1.128757988e+00,4.59911e-01,9.99999e-01,9.99999e-01,4.73425e-01,9.95821e-01,9.75530e-01
1.134401778e+00,2.37118e-01,9.99999e-01,9.99999e-01,2.43162e-01,9.95903e-01,9.79154e-01
1.140073787e+00,6.21698e-01,9.99999e-01,9.99999e-01,6.34799e-01,9.95984e-01,9.83309e-01
1.145774156e+00,3.88692e-01,9.99999e-01,9.99999e-01,3.96287e-01,9.96063e-01,9.84711e-01
1.151503026e+00,3.53989e-01,9.99999e-01,9.99999e-01,3.58423e-01,9.96141e-01,9.91453e-01
1.157260541e+00,4.13464e-01,9.99999e-01,9.99999e-01,4.16100e-01,9.96217e-01,9.97436e-01
1.163046844e+00,5.20377e-01,9.99999e-01,9.99999e-01,5.22694e-01,9.96291e-01,9.99272e-01
1.168862078e+00,6.32216e-01,9.99999e-01,9.99999e-01,6.34763e-01,9.96365e-01,9.99620e-01
1.174706389e+00,7.52101e-01,9.99999e-01,9.99999e-01,7.55184e-01,9.96436e-01,9.99477e-01
1.180579921e+00,8.39129e-01,9.99999e-01,9.99999e-01,8.42703e-01,9.96506e-01,9.99248e-01
1.186482820e+00,9.03789e-01,9.99999e-01,9.99999e-01,9.07593e-01,9.96575e-01,9.99228e-01
1.192415234e+00,9.41181e-01,9.99999e-01,9.99999e-01,9.44895e-01,9.96643e-01,9.99422e-01
1.198377311e+00,9.49595e-01,9.99999e-01,9.99999e-01,9.53252e-01,9.96709e-01,9.99451e-01
1.204369197e+00,9.52247e-01,9.99999e-01,9.99999e-01,9.55784e-01,9.96774e-01,9.99522e-01
1.210391043e+00,9.54358e-01,9.99999e-01,9.99999e-01,9.57672e-01,9.96837e-01,9.99699e-01
1.216442998e+00,9.60813e-01,9.99999e-01,9.99999e-01,9.63977e-01,9.96900e-01,9.99815e-01
1.222525213e+00,9.68741e-01,9.99999e-01,9.99999e-01,9.71804e-01,9.96961e-01,9.99885e-01
1.228637839e+00,9.77348e-01,9.99999e-01,9.99999e-01,9.80320e-01,9.97021e-01,9.99946e-01
