#,Wave/freq,Total,N2,O2,H2O,Rayleigh,CIA
4.000000000e-01,8.43215e-01,9.99999e-01,9.99999e-01,9.99980e-01,8.43232e-01,9.99999e-01
4.020000000e-01,8.46069e-01,9.99999e-01,9.99999e-01,9.99987e-01,8.46079e-01,9.99999e-01
4.040100000e-01,8.48873e-01,9.99999e-01,9.99999e-01,9.99994e-01,8.48877e-01,9.99999e-01
4.060300500e-01,8.51628e-01,9.99999e-01,9.99999e-01,9.99998e-01,8.51629e-01,9.99999e-01
4.080602003e-01,8.54334e-01,9.99999e-01,9.99999e-01,9.99999e-01,8.54335e-01,9.99999e-01
4.101005013e-01,8.56996e-01,9.99999e-01,9.99999e-01,9.99999e-01,8.56996e-01,9.99999e-01
4.121510038e-01,8.59611e-01,9.99999e-01,9.99999e-01,9.99998e-01,8.59612e-01,9.99999e-01
4.142117588e-01,8.62180e-01,9.99999e-01,9.99999e-01,9.99994e-01,8.62184e-01,9.99999e-01
4.162828176e-01,8.64693e-01,9.99999e-01,9.99999e-01,9.99975e-01,8.64713e-01,9.99999e-01
4.183642317e-01,8.67187e-01,9.99999e-01,9.99999e-01,9.99985e-01,8.67200e-01,9.99999e-01
4.204560528e-01,8.69636e-01,9.99999e-01,9.99999e-01,9.99990e-01,8.69644e-01,9.99999e-01
4.225583331e-01,8.72043e-01,9.99999e-01,9.99999e-01,9.99996e-01,8.72046e-01,9.99999e-01
4.246711247e-01,8.74406e-01,9.99999e-01,9.99999e-01,9.99996e-01,8.74408e-01,9.99999e-01
4.267944804e-01,8.76725e-01,9.99999e-01,9.99999e-01,9.99995e-01,8.76729e-01,9.99999e-01
4.289284528e-01,8.79007e-01,9.99999e-01,9.99999e-01,9.99996e-01,8.79010e-01,9.99999e-01
4.310730950e-01,8.81251e-01,9.99999e-01,9.99999e-01,9.99998e-01,8.81252e-01,9.99999e-01
4.332284605e-01,8.83455e-01,9.99999e-01,9.99999e-01,9.99999e-01,8.83455e-01,9.99999e-01
4.353946028e-01,8.85620e-01,9.99999e-01,9.99999e-01,9.99999e-01,8.85620e-01,9.99999e-01
4.375715758e-01,8.87745e-01,9.99999e-01,9.99999e-01,9.99997e-01,8.87747e-01,9.99999e-01
4.397594337e-01,8.89819e-01,9.99999e-01,9.99999e-01,9.99978e-01,8.89838e-01,9.99999e-01
4.419582309e-01,8.91798e-01,9.99999e-01,9.99999e-01,9.99894e-01,8.91892e-01,9.99999e-01
4.441680220e-01,8.93835e-01,9.99999e-01,9.99999e-01,9.99916e-01,8.93909e-01,9.99999e-01
4.463888621e-01,8.95815e-01,9.99999e-01,9.99999e-01,9.99913e-01,8.95892e-01,9.99999e-01
4.486208064e-01,8.97791e-01,9.99999e-01,9.99999e-01,9.99945e-01,8.97839e-01,9.99999e-01
4.508639105e-01,8.99730e-01,9.99999e-01,9.99999e-01,9.99974e-01,8.99753e-01,9.99999e-01
4.531182300e-01,9.01623e-01,9.99999e-01,9.99999e-01,9.99989e-01,9.01632e-01,9.99999e-01
4.553838212e-01,9.03472e-01,9.99999e-01,9.99999e-01,9.99992e-01,9.03478e-01,9.99999e-01
4.576607403e-01,9.05288e-01,9.99999e-01,9.99999e-01,9.99996e-01,9.05291e-01,9.99999e-01
4.599490440e-01,9.07070e-01,9.99999e-01,9.99999e-01,9.99997e-01,9.07072e-01,9.99999e-01
4.622487892e-01,9.08821e-01,9.99999e-01,9.99999e-01,9.99999e-01,9.08821e-01,9.99999e-01
4.645600332e-01,9.10538e-01,9.99999e-01,9.99999e-01,9.99998e-01,9.10539e-01,9.99999e-01
4.668828333e-01,9.12203e-01,9.99999e-01,9.99999e-01,9.99974e-01,9.12226e-01,9.99999e-01
4.692172475e-01,9.13834e-01,9.99999e-01,9.99999e-01,9.99945e-01,9.13883e-01,9.99999e-01
4.715633337e-01,9.15478e-01,9.99999e-01,9.99999e-01,9.99964e-01,9.15510e-01,9.99999e-01
4.739211504e-01,9.17077e-01,9.99999e-01,9.99999e-01,9.99965e-01,9.17108e-01,9.99999e-01
4.762907561e-01,9.18660e-01,9.99999e-01,9.99999e-01,9.99981e-01,9.18677e-01,9.99999e-01
4.786722099e-01,9.20210e-01,9.99999e-01,9.99999e-01,9.99992e-01,9.20217e-01,9.99999e-01
4.810655710e-01,9.21728e-01,9.99999e-01,9.99999e-01,9.99997e-01,9.21730e-01,9.99999e-01
4.834708988e-01,9.23196e-01,9.99999e-01,9.99999e-01,9.99979e-01,9.23215e-01,9.99999e-01
4.858882533e-01,9.24637e-01,9.99999e-01,9.99999e-01,9.99961e-01,9.24673e-01,9.99999e-01
4.883176946e-01,9.26075e-01,9.99999e-01,9.99999e-01,9.99967e-01,9.26104e-01,9.99999e-01
4.907592831e-01,9.27483e-01,9.99999e-01,9.99999e-01,9.99970e-01,9.27510e-01,9.99999e-01
4.932130795e-01,9.28870e-01,9.99999e-01,9.99999e-01,9.99978e-01,9.28889e-01,9.99999e-01
4.956791449e-01,9.30233e-01,9.99999e-01,9.99999e-01,9.99988e-01,9.30244e-01,9.99999e-01
4.981575406e-01,9.31523e-01,9.99999e-01,9.99999e-01,9.99945e-01,9.31573e-01,9.99999e-01
5.006483283e-01,9.32747e-01,9.99999e-01,9.99999e-01,9.99859e-01,9.32878e-01,9.99998e-01
5.031515699e-01,9.33486e-01,9.99999e-01,9.99999e-01,9.99285e-01,9.34160e-01,9.99991e-01
5.056673278e-01,9.35056e-01,9.99999e-01,9.99999e-01,9.99621e-01,9.35417e-01,9.99990e-01
5.081956644e-01,9.36200e-01,9.99999e-01,9.99999e-01,9.99522e-01,9.36651e-01,9.99993e-01
5.107366428e-01,9.37560e-01,9.99999e-01,9.99999e-01,9.99677e-01,9.37863e-01,9.99998e-01
5.132903260e-01,9.38879e-01,9.99999e-01,9.99999e-01,9.99815e-01,9.39052e-01,9.99999e-01
5.158567776e-01,9.40146e-01,9.99999e-01,9.99999e-01,9.99921e-01,9.40219e-01,9.99999e-01
5.184360615e-01,9.41335e-01,9.99999e-01,9.99999e-01,9.99968e-01,9.41365e-01,9.99999e-01
5.210282418e-01,9.42478e-01,9.99999e-01,9.99999e-01,9.99987e-01,9.42489e-01,9.99999e-01
5.236333830e-01,9.43548e-01,9.99999e-01,9.99999e-01,9.99952e-01,9.43592e-01,9.99999e-01
5.262515499e-01,9.44647e-01,9.99999e-01,9.99999e-01,9.99970e-01,9.44675e-01,9.99999e-01
5.288828077e-01,9.45712e-01,9.99999e-01,9.99999e-01,9.99972e-01,9.45738e-01,9.99999e-01
5.315272217e-01,9.46758e-01,9.99999e-01,9.99999e-01,9.99975e-01,9.46780e-01,9.99999e-01
5.341848578e-01,9.47789e-01,9.99999e-01,9.99999e-01,9.99984e-01,9.47804e-01,9.99999e-01
5.368557821e-01,9.48756e-01,9.99999e-01,9.99999e-01,9.99945e-01,9.48808e-01,9.99999e-01
5.395400610e-01,9.49607e-01,9.99999e-01,9.99999e-01,9.99805e-01,9.49793e-01,9.99997e-01
5.422377613e-01,9.50514e-01,9.99999e-01,9.99999e-01,9.99745e-01,9.50760e-01,9.99994e-01
5.449489501e-01,9.51481e-01,9.99999e-01,9.99999e-01,9.99765e-01,9.51709e-01,9.99994e-01
5.476736949e-01,9.52438e-01,9.99999e-01,9.99999e-01,9.99790e-01,9.52640e-01,9.99997e-01
5.504120634e-01,9.53408e-01,9.99999e-01,9.99999e-01,9.99847e-01,9.53553e-01,9.99998e-01
5.531641237e-01,9.54376e-01,9.99999e-01,9.99999e-01,9.99923e-01,9.54449e-01,9.99999e-01
5.559299443e-01,9.55293e-01,9.99999e-01,9.99999e-01,9.99962e-01,9.55328e-01,9.99999e-01
5.587095940e-01,9.56169e-01,9.99999e-01,9.99999e-01,9.99976e-01,9.56191e-01,9.99999e-01
5.615031420e-01,9.57013e-01,9.99999e-01,9.99999e-01,9.99973e-01,9.57038e-01,9.99999e-01
5.643106577e-01,9.57840e-01,9.99999e-01,9.99999e-01,9.99970e-01,9.57868e-01,9.99999e-01
5.671322110e-01,9.58347e-01,9.99999e-01,9.99999e-01,9.99651e-01,9.58683e-01,9.99996e-01
5.699678720e-01,9.59109e-01,9.99999e-01,9.99999e-01,9.99620e-01,9.59482e-01,9.99989e-01
5.728177114e-01,9.59883e-01,9.99999e-01,9.99999e-01,9.99608e-01,9.60266e-01,9.99991e-01
5.756818000e-01,9.60686e-01,9.99999e-01,9.99999e-01,9.99640e-01,9.61036e-01,9.99994e-01
5.785602090e-01,9.61487e-01,9.99999e-01,9.99999e-01,9.99685e-01,9.61790e-01,9.99998e-01
5.814530100e-01,9.62227e-01,9.99999e-01,9.99999e-01,9.99684e-01,9.62531e-01,9.99998e-01
5.843602750e-01,9.62897e-01,9.99999e-01,9.99999e-01,9.99627e-01,9.63257e-01,9.99997e-01
5.872820764e-01,9.60851e-01,9.99999e-01,9.99999e-01,9.96786e-01,9.63970e-01,9.99976e-01
5.902184868e-01,9.60825e-01,9.99999e-01,9.99999e-01,9.96076e-01,9.64669e-01,9.99937e-01
5.931695792e-01,9.62627e-01,9.99999e-01,9.99999e-01,9.97234e-01,9.65354e-01,9.99939e-01
5.961354271e-01,9.63059e-01,9.99999e-01,9.99999e-01,9.96963e-01,9.66027e-01,9.99963e-01
5.991161043e-01,9.64533e-01,9.99999e-01,9.99999e-01,9.97782e-01,9.66687e-01,9.99988e-01
6.021116848e-01,9.66114e-01,9.99999e-01,9.99999e-01,9.98740e-01,9.67334e-01,9.99998e-01
6.051222432e-01,9.67351e-01,9.99999e-01,9.99999e-01,9.99361e-01,9.67968e-01,9.99999e-01
6.081478544e-01,9.68325e-01,9.99999e-01,9.99999e-01,9.99724e-01,9.68591e-01,9.99999e-01
6.111885937e-01,9.69089e-01,9.99999e-01,9.99999e-01,9.99883e-01,9.69202e-01,9.99999e-01
6.142445367e-01,9.69750e-01,9.99999e-01,9.99999e-01,9.99947e-01,9.69801e-01,9.99999e-01
6.173157594e-01,9.70361e-01,9.99999e-01,9.99999e-01,9.99970e-01,9.70388e-01,9.99999e-01
6.204023382e-01,9.70941e-01,9.99999e-01,9.99999e-01,9.99975e-01,9.70965e-01,9.99999e-01
6.235043498e-01,9.71428e-01,9.99999e-01,9.99999e-01,9.99894e-01,9.71530e-01,9.99999e-01
6.266218716e-01,9.71533e-01,9.99999e-01,9.99999e-01,9.99436e-01,9.72084e-01,9.99995e-01
6.297549810e-01,9.72420e-01,9.99999e-01,9.99999e-01,9.99793e-01,9.72628e-01,9.99991e-01
6.329037559e-01,9.72757e-01,9.99999e-01,9.99999e-01,9.99590e-01,9.73161e-01,9.99993e-01
6.360682746e-01,9.73343e-01,9.99999e-01,9.99999e-01,9.99652e-01,9.73685e-01,9.99995e-01
6.392486160e-01,9.73757e-01,9.99999e-01,9.99999e-01,9.99548e-01,9.74198e-01,9.99997e-01
6.424448591e-01,9.74114e-01,9.99999e-01,9.99999e-01,9.99400e-01,9.74701e-01,9.99996e-01
6.456570834e-01,9.72467e-01,9.99999e-01,9.99999e-01,9.97218e-01,9.75194e-01,9.99984e-01
6.488853688e-01,9.73284e-01,9.99999e-01,9.99999e-01,9.97589e-01,9.75678e-01,9.99956e-01
6.521297956e-01,9.74072e-01,9.99999e-01,9.99999e-01,9.97904e-01,9.76153e-01,9.99963e-01
6.553904446e-01,9.74571e-01,9.99999e-01,9.99999e-01,9.97931e-01,9.76618e-01,9.99972e-01
6.586673968e-01,9.75320e-01,9.99999e-01,9.99999e-01,9.98212e-01,9.77075e-01,9.99990e-01
6.619607338e-01,9.76511e-01,9.99999e-01,9.99999e-01,9.98966e-01,9.77522e-01,9.99997e-01
6.652705375e-01,9.77374e-01,9.99999e-01,9.99999e-01,9.99400e-01,9.77961e-01,9.99998e-01
6.685968902e-01,9.78120e-01,9.99999e-01,9.99999e-01,9.99721e-01,9.78392e-01,9.99999e-01
6.719398746e-01,9.78688e-01,9.99999e-01,9.99999e-01,9.99870e-01,9.78814e-01,9.99999e-01
6.752995740e-01,9.79160e-01,9.99999e-01,9.99999e-01,9.99929e-01,9.79228e-01,9.99999e-01
6.786760719e-01,9.79536e-01,9.99999e-01,9.99999e-01,9.99899e-01,9.79634e-01,9.99999e-01
6.820694522e-01,9.79864e-01,9.99999e-01,9.99999e-01,9.99827e-01,9.80033e-01,9.99998e-01
6.854797995e-01,9.80204e-01,9.99999e-01,9.99999e-01,9.99778e-01,9.80423e-01,9.99997e-01
6.889071985e-01,9.80283e-01,9.99999e-01,9.99999e-01,9.99470e-01,9.80806e-01,9.99994e-01
6.923517345e-01,9.72606e-01,9.99999e-01,9.99999e-01,9.91301e-01,9.81182e-01,9.99957e-01
6.958134932e-01,9.76932e-01,9.99999e-01,9.99999e-01,9.95389e-01,9.81550e-01,9.99904e-01
6.992925606e-01,9.77602e-01,9.99999e-01,9.99999e-01,9.95694e-01,9.81911e-01,9.99916e-01
7.027890234e-01,9.76948e-01,9.99999e-01,9.99999e-01,9.94649e-01,9.82265e-01,9.99935e-01
7.063029686e-01,9.78164e-01,9.99999e-01,9.99999e-01,9.95504e-01,9.82612e-01,9.99967e-01
7.098344834e-01,9.78695e-01,9.99999e-01,9.99999e-01,9.95686e-01,9.82953e-01,9.99980e-01
7.133836558e-01,9.77662e-01,9.99999e-01,9.99999e-01,9.94316e-01,9.83287e-01,9.99962e-01
7.169505741e-01,9.38903e-01,9.99999e-01,9.99999e-01,9.54824e-01,9.83614e-01,9.99705e-01
7.205353270e-01,9.61101e-01,9.99999e-01,9.99999e-01,9.77299e-01,9.83935e-01,9.99480e-01
7.241380036e-01,9.55901e-01,9.99999e-01,9.99999e-01,9.71632e-01,9.84250e-01,9.99551e-01
7.277586936e-01,9.58949e-01,9.99999e-01,9.99999e-01,9.74345e-01,9.84558e-01,9.99632e-01
7.313974871e-01,9.57716e-01,9.99999e-01,9.99999e-01,9.72604e-01,9.84861e-01,9.99827e-01
7.350544745e-01,9.70299e-01,9.99999e-01,9.99999e-01,9.84975e-01,9.85158e-01,9.99939e-01
7.387297469e-01,9.74504e-01,9.99999e-01,9.99999e-01,9.88920e-01,9.85449e-01,9.99972e-01
7.424233956e-01,9.80362e-01,9.99999e-01,9.99999e-01,9.94554e-01,9.85734e-01,9.99994e-01
7.461355126e-01,9.82762e-01,9.99999e-01,9.99999e-01,9.96702e-01,9.86014e-01,9.99998e-01
7.498661902e-01,9.84770e-01,9.99999e-01,9.99999e-01,9.98460e-01,9.86288e-01,9.99999e-01
7.536155211e-01,9.85814e-01,9.99999e-01,9.99999e-01,9.99246e-01,9.86557e-01,9.99999e-01
7.573835987e-01,9.86438e-01,9.99999e-01,9.99999e-01,9.99611e-01,9.86821e-01,9.99999e-01
7.611705167e-01,9.86842e-01,9.99999e-01,9.99999e-01,9.99758e-01,9.87080e-01,9.99999e-01
7.649763693e-01,9.87184e-01,9.99999e-01,9.99999e-01,9.99848e-01,9.87333e-01,9.99999e-01
7.688012511e-01,9.87478e-01,9.99999e-01,9.99999e-01,9.99894e-01,9.87582e-01,9.99999e-01
7.726452574e-01,9.87740e-01,9.99999e-01,9.99999e-01,9.99913e-01,9.87826e-01,9.99999e-01
7.765084837e-01,9.87944e-01,9.99999e-01,9.99999e-01,9.99877e-01,9.88065e-01,9.99999e-01
7.803910261e-01,9.87779e-01,9.99999e-01,9.99999e-01,9.99473e-01,9.88299e-01,9.99998e-01
7.842929812e-01,9.86712e-01,9.99999e-01,9.99999e-01,9.98164e-01,9.88529e-01,9.99996e-01
7.882144461e-01,9.84968e-01,9.99999e-01,9.99999e-01,9.96193e-01,9.88754e-01,9.99976e-01
7.921555184e-01,9.86857e-01,9.99999e-01,9.99999e-01,9.97902e-01,9.88975e-01,9.99954e-01
7.961162960e-01,9.85519e-01,9.99999e-01,9.99999e-01,9.96329e-01,9.89192e-01,9.99956e-01
8.000968774e-01,9.85146e-01,9.99999e-01,9.99999e-01,9.95741e-01,9.89404e-01,9.99953e-01
8.040973618e-01,9.85366e-01,9.99999e-01,9.99999e-01,9.95745e-01,9.89612e-01,9.99963e-01
8.081178486e-01,9.80361e-01,9.99999e-01,9.99999e-01,9.90480e-01,9.89816e-01,9.99965e-01
8.121584379e-01,9.51059e-01,9.99999e-01,9.99999e-01,9.60778e-01,9.90016e-01,9.99865e-01
8.162192301e-01,9.43390e-01,9.99999e-01,9.99999e-01,9.53196e-01,9.90213e-01,9.99494e-01
8.203003262e-01,9.66780e-01,9.99999e-01,9.99999e-01,9.76723e-01,9.90405e-01,9.99407e-01
8.244018279e-01,9.57344e-01,9.99999e-01,9.99999e-01,9.66889e-01,9.90594e-01,9.99528e-01
8.285238370e-01,9.62660e-01,9.99999e-01,9.99999e-01,9.71978e-01,9.90778e-01,9.99629e-01
8.326664562e-01,9.62643e-01,9.99999e-01,9.99999e-01,9.71572e-01,9.90960e-01,9.99846e-01
8.368297885e-01,9.70885e-01,9.99999e-01,9.99999e-01,9.79599e-01,9.91138e-01,9.99964e-01
8.410139374e-01,9.79228e-01,9.99999e-01,9.99999e-01,9.87830e-01,9.91312e-01,9.99979e-01
8.452190071e-01,9.85534e-01,9.99999e-01,9.99999e-01,9.94011e-01,9.91483e-01,9.99987e-01
8.494451021e-01,9.88204e-01,9.99999e-01,9.99999e-01,9.96533e-01,9.91650e-01,9.99989e-01
8.536923276e-01,9.89768e-01,9.99999e-01,9.99999e-01,9.97942e-01,9.91814e-01,9.99993e-01
8.579607893e-01,9.90721e-01,9.99999e-01,9.99999e-01,9.98736e-01,9.91975e-01,9.99997e-01
8.622505932e-01,9.91335e-01,9.99999e-01,9.99999e-01,9.99195e-01,9.92133e-01,9.99999e-01
8.665618462e-01,9.91796e-01,9.99999e-01,9.99999e-01,9.99503e-01,9.92288e-01,9.99999e-01
8.708946554e-01,9.91877e-01,9.99999e-01,9.99999e-01,9.99432e-01,9.92440e-01,9.99999e-01
8.752491287e-01,9.91835e-01,9.99999e-01,9.99999e-01,9.99240e-01,9.92589e-01,9.99998e-01
8.796253743e-01,9.91692e-01,9.99999e-01,9.99999e-01,9.98951e-01,9.92734e-01,9.99997e-01
8.840235012e-01,9.91681e-01,9.99999e-01,9.99999e-01,9.98801e-01,9.92877e-01,9.99992e-01
8.884436187e-01,9.88724e-01,9.99999e-01,9.99999e-01,9.95696e-01,9.93018e-01,9.99978e-01
8.928858368e-01,9.48366e-01,9.99999e-01,9.99999e-01,9.55016e-01,9.93155e-01,9.99879e-01
8.973502660e-01,9.14386e-01,9.99999e-01,9.99999e-01,9.21129e-01,9.93290e-01,9.99384e-01
9.018370173e-01,9.51452e-01,9.99999e-01,9.99999e-01,9.58678e-01,9.93422e-01,9.99033e-01
9.063462024e-01,9.57013e-01,9.99999e-01,9.99999e-01,9.64042e-01,9.93551e-01,9.99150e-01
9.108779334e-01,9.37440e-01,9.99999e-01,9.99999e-01,9.44235e-01,9.93678e-01,9.99117e-01
9.154323231e-01,9.30322e-01,9.99999e-01,9.99999e-01,9.36806e-01,9.93803e-01,9.99270e-01
9.200094847e-01,9.43887e-01,9.99999e-01,9.99999e-01,9.50044e-01,9.93925e-01,9.99591e-01
9.246095321e-01,9.18192e-01,9.99999e-01,9.99999e-01,9.24127e-01,9.94044e-01,9.99529e-01
9.292325798e-01,5.82499e-01,9.99999e-01,9.99999e-01,5.86995e-01,9.94162e-01,9.98166e-01
9.338787427e-01,4.93592e-01,9.99999e-01,9.99999e-01,5.00211e-01,9.94277e-01,9.92445e-01
9.385481364e-01,7.45038e-01,9.99999e-01,9.99999e-01,7.56029e-01,9.94389e-01,9.91021e-01
9.432408771e-01,6.70976e-01,9.99999e-01,9.99999e-01,6.79956e-01,9.94500e-01,9.92249e-01
9.479570815e-01,5.81078e-01,9.99999e-01,9.99999e-01,5.87939e-01,9.94608e-01,9.93687e-01
9.526968669e-01,6.63262e-01,9.99999e-01,9.99999e-01,6.69366e-01,9.94714e-01,9.96144e-01
9.574603512e-01,6.86531e-01,9.99999e-01,9.99999e-01,6.91461e-01,9.94818e-01,9.98039e-01
9.622476530e-01,7.35299e-01,9.99999e-01,9.99999e-01,7.40055e-01,9.94921e-01,9.98643e-01
9.670588912e-01,8.35949e-01,9.99999e-01,9.99999e-01,8.40911e-01,9.95021e-01,9.99072e-01
9.718941857e-01,8.92484e-01,9.99999e-01,9.99999e-01,8.97474e-01,9.95119e-01,9.99316e-01
9.767536566e-01,9.09303e-01,9.99999e-01,9.99999e-01,9.14151e-01,9.95215e-01,9.99477e-01
9.816374249e-01,9.30973e-01,9.99999e-01,9.99999e-01,9.35529e-01,9.95309e-01,9.99818e-01
9.865456120e-01,9.54771e-01,9.99999e-01,9.99999e-01,9.59217e-01,9.95402e-01,9.99961e-01
9.914783401e-01,9.70209e-01,9.99999e-01,9.99999e-01,9.74612e-01,9.95492e-01,9.99989e-01
9.964357318e-01,9.81729e-01,9.99999e-01,9.99999e-01,9.86092e-01,9.95581e-01,9.99993e-01
1.001417910e+00,9.87337e-01,9.99999e-01,9.99999e-01,9.91641e-01,9.95668e-01,9.99990e-01
1.006425000e+00,9.90997e-01,9.99999e-01,9.99999e-01,9.95236e-01,9.95753e-01,9.99986e-01
1.011457125e+00,9.92872e-01,9.99999e-01,9.99999e-01,9.97034e-01,9.95837e-01,9.99987e-01
1.016514411e+00,9.93908e-01,9.99999e-01,9.99999e-01,9.97988e-01,9.95919e-01,9.99990e-01
1.021596983e+00,9.94396e-01,9.99999e-01,9.99999e-01,9.98397e-01,9.96000e-01,9.99990e-01
1.026704968e+00,9.94829e-01,9.99999e-01,9.99999e-01,9.98750e-01,9.96078e-01,9.99993e-01
1.031838492e+00,9.95248e-01,9.99999e-01,9.99999e-01,9.99090e-01,9.96156e-01,9.99997e-01
1.036997685e+00,9.95694e-01,9.99999e-01,9.99999e-01,9.99460e-01,9.96231e-01,9.99999e-01
1.042182673e+00,9.95667e-01,9.99999e-01,9.99999e-01,9.99358e-01,9.96306e-01,9.99999e-01
1.047393587e+00,9.95531e-01,9.99999e-01,9.99999e-01,9.99148e-01,9.96379e-01,9.99999e-01
1.052630555e+00,9.95287e-01,9.99999e-01,9.99999e-01,9.98833e-01,9.96450e-01,9.99999e-01
1.057893707e+00,9.94581e-01,9.99999e-01,9.99999e-01,9.98054e-01,9.96520e-01,9.99998e-01
1.063183176e+00,9.93396e-01,9.99999e-01,9.99999e-01,9.96797e-01,9.96589e-01,9.99997e-01
1.068499092e+00,9.91306e-01,9.99999e-01,9.99999e-01,9.94635e-01,9.96656e-01,9.99995e-01
1.073841587e+00,9.90468e-01,9.99999e-01,9.99999e-01,9.93733e-01,9.96722e-01,9.99991e-01
1.079210795e+00,9.88744e-01,9.99999e-01,9.99999e-01,9.91952e-01,9.96786e-01,9.99978e-01
1.084606849e+00,9.84695e-01,9.99999e-01,9.99999e-01,9.87857e-01,9.96850e-01,9.99947e-01
1.090029883e+00,9.79543e-01,9.99999e-01,9.99999e-01,9.82681e-01,9.96912e-01,9.99892e-01
1.095480033e+00,9.50359e-01,9.99999e-01,9.99999e-01,9.53428e-01,9.96973e-01,9.99805e-01
1.100957433e+00,8.82927e-01,9.99999e-01,9.99999e-01,8.85869e-01,9.97032e-01,9.99643e-01
1.106462220e+00,7.32955e-01,9.99999e-01,9.99999e-01,7.35538e-01,9.97091e-01,9.99394e-01
1.111994531e+00,5.21003e-01,9.99999e-01,9.99999e-01,5.23332e-01,9.97148e-01,9.98395e-01
1.117554504e+00,3.48155e-01,9.99999e-01,9.99999e-01,3.51160e-01,9.97204e-01,9.94218e-01
1.123142276e+00,4.56430e-01,9.99999e-01,9.99999e-01,4.64019e-01,9.97260e-01,9.86345e-01
1.128757988e+00,5.99873e-01,9.99999e-01,9.99999e-01,6.11132e-01,9.97314e-01,9.84220e-01
1.134401778e+00,3.42471e-01,9.99999e-01,9.99999e-01,3.48050e-01,9.97367e-01,9.86566e-01
1.140073787e+00,7.35055e-01,9.99999e-01,9.99999e-01,7.44963e-01,9.97419e-01,9.89252e-01
1.145774156e+00,5.34730e-01,9.99999e-01,9.99999e-01,5.41414e-01,9.97469e-01,9.90157e-01
1.151503026e+00,5.01635e-01,9.99999e-01,9.99999e-01,5.05661e-01,9.97519e-01,9.94504e-01
1.157260541e+00,5.62078e-01,9.99999e-01,9.99999e-01,5.64377e-01,9.97568e-01,9.98353e-01
1.163046844e+00,6.52622e-01,9.99999e-01,9.99999e-01,6.54486e-01,9.97616e-01,9.99532e-01
1.168862078e+00,7.42672e-01,9.99999e-01,9.99999e-01,7.44590e-01,9.97663e-01,9.99759e-01
1.174706389e+00,8.31460e-01,9.99999e-01,9.99999e-01,8.33633e-01,9.97709e-01,9.99680e-01
1.180579921e+00,8.92613e-01,9.99999e-01,9.99999e-01,8.95053e-01,9.97755e-01,9.99517e-01
1.186482820e+00,9.36794e-01,9.99999e-01,9.99999e-01,9.39324e-01,9.97799e-01,9.99504e-01
1.192415234e+00,9.61729e-01,9.99999e-01,9.99999e-01,9.64165e-01,9.97842e-01,9.99628e-01
1.198377311e+00,9.67369e-01,9.99999e-01,9.99999e-01,9.69758e-01,9.97885e-01,9.99649e-01
1.204369197e+00,9.69015e-01,9.99999e-01,9.99999e-01,9.71335e-01,9.97926e-01,9.99682e-01
1.210391043e+00,9.70404e-01,9.99999e-01,9.99999e-01,9.72567e-01,9.97967e-01,9.99806e-01
1.216442998e+00,9.74514e-01,9.99999e-01,9.99999e-01,9.76574e-01,9.98007e-01,9.99881e-01
1.222525213e+00,9.79743e-01,9.99999e-01,9.99999e-01,9.81731e-01,9.98047e-01,9.99926e-01
1.228637839e+00,9.85366e-01,9.99999e-01,9.99999e-01,9.87289e-01,9.98085e-01,9.99965e-01
