#,Wave/freq,Total,N2,O2,H2O,Rayleigh,CIA
4.000000000e-01,6.19037e-01,9.99999e-01,9.99999e-01,9.99945e-01,6.19070e-01,9.99999e-01
4.020000000e-01,6.24947e-01,9.99999e-01,9.99999e-01,9.99966e-01,6.24968e-01,9.99999e-01
4.040100000e-01,6.30788e-01,9.99999e-01,9.99999e-01,9.99985e-01,6.30797e-01,9.99999e-01
4.060300500e-01,6.36563e-01,9.99999e-01,9.99999e-01,9.99996e-01,6.36565e-01,9.99999e-01
4.080602003e-01,6.42269e-01,9.99999e-01,9.99999e-01,9.99998e-01,6.42269e-01,9.99999e-01
4.101005013e-01,6.47911e-01,9.99999e-01,9.99999e-01,9.99999e-01,6.47911e-01,9.99999e-01
4.121510038e-01,6.53488e-01,9.99999e-01,9.99999e-01,9.99997e-01,6.53489e-01,9.99999e-01
4.142117588e-01,6.58993e-01,9.99999e-01,9.99999e-01,9.99984e-01,6.59003e-01,9.99999e-01
4.162828176e-01,6.64410e-01,9.99999e-01,9.99999e-01,9.99932e-01,6.64454e-01,9.99999e-01
4.183642317e-01,6.69815e-01,9.99999e-01,9.99999e-01,9.99959e-01,6.69841e-01,9.99999e-01
4.204560528e-01,6.75148e-01,9.99999e-01,9.99999e-01,9.99975e-01,6.75164e-01,9.99999e-01
4.225583331e-01,6.80417e-01,9.99999e-01,9.99999e-01,9.99990e-01,6.80423e-01,9.99999e-01
4.246711247e-01,6.85613e-01,9.99999e-01,9.99999e-01,9.99992e-01,6.85618e-01,9.99999e-01
4.267944804e-01,6.90741e-01,9.99999e-01,9.99999e-01,9.99988e-01,6.90748e-01,9.99999e-01
4.289284528e-01,6.95809e-01,9.99999e-01,9.99999e-01,9.99991e-01,6.95815e-01,9.99999e-01
4.310730950e-01,7.00815e-01,9.99999e-01,9.99999e-01,9.99996e-01,7.00817e-01,9.99999e-01
4.332284605e-01,7.05755e-01,9.99999e-01,9.99999e-01,9.99998e-01,7.05756e-01,9.99999e-01
4.353946028e-01,7.10630e-01,9.99999e-01,9.99999e-01,9.99999e-01,7.10630e-01,9.99999e-01
4.375715758e-01,7.15437e-01,9.99999e-01,9.99999e-01,9.99992e-01,7.15442e-01,9.99999e-01
4.397594337e-01,7.20146e-01,9.99999e-01,9.99999e-01,9.99939e-01,7.20189e-01,9.99999e-01
4.419582309e-01,7.24653e-01,9.99999e-01,9.99999e-01,9.99695e-01,7.24874e-01,9.99999e-01
4.441680220e-01,7.29327e-01,9.99999e-01,9.99999e-01,9.99768e-01,7.29496e-01,9.99999e-01
4.463888621e-01,7.33876e-01,9.99999e-01,9.99999e-01,9.99756e-01,7.34054e-01,9.99999e-01
4.486208064e-01,7.38440e-01,9.99999e-01,9.99999e-01,9.99849e-01,7.38551e-01,9.99999e-01
4.508639105e-01,7.42933e-01,9.99999e-01,9.99999e-01,9.99929e-01,7.42985e-01,9.99999e-01
4.531182300e-01,7.47337e-01,9.99999e-01,9.99999e-01,9.99971e-01,7.47358e-01,9.99999e-01
4.553838212e-01,7.51655e-01,9.99999e-01,9.99999e-01,9.99980e-01,7.51669e-01,9.99999e-01
4.576607403e-01,7.55913e-01,9.99999e-01,9.99999e-01,9.99990e-01,7.55920e-01,9.99999e-01
4.599490440e-01,7.60105e-01,9.99999e-01,9.99999e-01,9.99993e-01,7.60109e-01,9.99999e-01
4.622487892e-01,7.64238e-01,9.99999e-01,9.99999e-01,9.99998e-01,7.64239e-01,9.99999e-01
4.645600332e-01,7.68305e-01,9.99999e-01,9.99999e-01,9.99995e-01,7.68308e-01,9.99999e-01
4.668828333e-01,7.72263e-01,9.99999e-01,9.99999e-01,9.99927e-01,7.72318e-01,9.99999e-01
4.692172475e-01,7.76152e-01,9.99999e-01,9.99999e-01,9.99847e-01,7.76270e-01,9.99999e-01
4.715633337e-01,7.80085e-01,9.99999e-01,9.99999e-01,9.99899e-01,7.80163e-01,9.99999e-01
4.739211504e-01,7.83924e-01,9.99999e-01,9.99999e-01,9.99904e-01,7.83998e-01,9.99999e-01
4.762907561e-01,7.87737e-01,9.99999e-01,9.99999e-01,9.99950e-01,7.87775e-01,9.99999e-01
4.786722099e-01,7.91480e-01,9.99999e-01,9.99999e-01,9.99979e-01,7.91496e-01,9.99999e-01
4.810655710e-01,7.95155e-01,9.99999e-01,9.99999e-01,9.99993e-01,7.95160e-01,9.99999e-01
4.834708988e-01,7.98720e-01,9.99999e-01,9.99999e-01,9.99939e-01,7.98768e-01,9.99999e-01
4.858882533e-01,8.02235e-01,9.99999e-01,9.99999e-01,9.99892e-01,8.02321e-01,9.99999e-01
4.883176946e-01,8.05746e-01,9.99999e-01,9.99999e-01,9.99909e-01,8.05819e-01,9.99999e-01
4.907592831e-01,8.09197e-01,9.99999e-01,9.99999e-01,9.99918e-01,8.09263e-01,9.99999e-01
4.932130795e-01,8.12606e-01,9.99999e-01,9.99999e-01,9.99941e-01,8.12653e-01,9.99999e-01
4.956791449e-01,8.15965e-01,9.99999e-01,9.99999e-01,9.99969e-01,8.15990e-01,9.99999e-01
4.981575406e-01,8.19148e-01,9.99999e-01,9.99999e-01,9.99845e-01,8.19274e-01,9.99999e-01
5.006483283e-01,8.22173e-01,9.99999e-01,9.99999e-01,9.99597e-01,8.22506e-01,9.99996e-01
5.031515699e-01,8.24005e-01,9.99999e-01,9.99999e-01,9.97984e-01,8.25687e-01,9.99978e-01
5.056673278e-01,8.27919e-01,9.99999e-01,9.99999e-01,9.98940e-01,8.28816e-01,9.99975e-01
5.081956644e-01,8.30773e-01,9.99999e-01,9.99999e-01,9.98664e-01,8.31896e-01,9.99984e-01
5.107366428e-01,8.34172e-01,9.99999e-01,9.99999e-01,9.99098e-01,8.34926e-01,9.99996e-01
5.132903260e-01,8.37476e-01,9.99999e-01,9.99999e-01,9.99485e-01,8.37906e-01,9.99999e-01
5.158567776e-01,8.40656e-01,9.99999e-01,9.99999e-01,9.99782e-01,8.40838e-01,9.99999e-01
5.184360615e-01,8.43649e-01,9.99999e-01,9.99999e-01,9.99912e-01,8.43723e-01,9.99999e-01
5.210282418e-01,8.46532e-01,9.99999e-01,9.99999e-01,9.99966e-01,8.46559e-01,9.99999e-01
5.236333830e-01,8.49237e-01,9.99999e-01,9.99999e-01,9.99868e-01,8.49349e-01,9.99998e-01
5.262515499e-01,8.52022e-01,9.99999e-01,9.99999e-01,9.99917e-01,8.52093e-01,9.99998e-01
5.288828077e-01,8.54726e-01,9.99999e-01,9.99999e-01,9.99923e-01,8.54791e-01,9.99998e-01
5.315272217e-01,8.57388e-01,9.99999e-01,9.99999e-01,9.99933e-01,8.57444e-01,9.99999e-01
5.341848578e-01,8.60016e-01,9.99999e-01,9.99999e-01,9.99955e-01,8.60053e-01,9.99999e-01
5.368557821e-01,8.62485e-01,9.99999e-01,9.99999e-01,9.99845e-01,8.62618e-01,9.99999e-01
5.395400610e-01,8.64651e-01,9.99999e-01,9.99999e-01,9.99440e-01,8.65140e-01,9.99994e-01
5.422377613e-01,8.66993e-01,9.99999e-01,9.99999e-01,9.99290e-01,8.67619e-01,9.99986e-01
5.449489501e-01,8.69465e-01,9.99999e-01,9.99999e-01,9.99333e-01,8.70056e-01,9.99986e-01
5.476736949e-01,8.71937e-01,9.99999e-01,9.99999e-01,9.99416e-01,8.72451e-01,9.99992e-01
5.504120634e-01,8.74434e-01,9.99999e-01,9.99999e-01,9.99575e-01,8.74806e-01,9.99997e-01
5.531641237e-01,8.76933e-01,9.99999e-01,9.99999e-01,9.99786e-01,8.77120e-01,9.99999e-01
5.559299443e-01,8.79304e-01,9.99999e-01,9.99999e-01,9.99896e-01,8.79395e-01,9.99999e-01
5.587095940e-01,8.81573e-01,9.99999e-01,9.99999e-01,9.99934e-01,8.81630e-01,9.99999e-01
5.615031420e-01,8.83763e-01,9.99999e-01,9.99999e-01,9.99927e-01,8.83827e-01,9.99999e-01
5.643106577e-01,8.85911e-01,9.99999e-01,9.99999e-01,9.99916e-01,8.85985e-01,9.99998e-01
5.671322110e-01,8.87195e-01,9.99999e-01,9.99999e-01,9.98981e-01,8.88106e-01,9.99990e-01
5.699678720e-01,8.89236e-01,9.99999e-01,9.99999e-01,9.98954e-01,8.90190e-01,9.99972e-01
5.728177114e-01,8.91233e-01,9.99999e-01,9.99999e-01,9.98895e-01,8.92238e-01,9.99976e-01
5.756818000e-01,8.93334e-01,9.99999e-01,9.99999e-01,9.98989e-01,8.94250e-01,9.99986e-01
5.785602090e-01,8.95435e-01,9.99999e-01,9.99999e-01,9.99120e-01,8.96226e-01,9.99995e-01
5.814530100e-01,8.97371e-01,9.99999e-01,9.99999e-01,9.99114e-01,8.98168e-01,9.99997e-01
5.843602750e-01,8.99111e-01,9.99999e-01,9.99999e-01,9.98934e-01,9.00075e-01,9.99993e-01
5.872820764e-01,8.93654e-01,9.99999e-01,9.99999e-01,9.90866e-01,9.01949e-01,9.99935e-01
5.902184868e-01,8.93745e-01,9.99999e-01,9.99999e-01,9.89057e-01,9.03789e-01,9.99825e-01
5.931695792e-01,8.98414e-01,9.99999e-01,9.99999e-01,9.92233e-01,9.05597e-01,9.99832e-01
5.961354271e-01,8.99583e-01,9.99999e-01,9.99999e-01,9.91510e-01,9.07372e-01,9.99903e-01
5.991161043e-01,9.03462e-01,9.99999e-01,9.99999e-01,9.93809e-01,9.09116e-01,9.99969e-01
6.021116848e-01,9.07628e-01,9.99999e-01,9.99999e-01,9.96488e-01,9.10829e-01,9.99996e-01
6.051222432e-01,9.10889e-01,9.99999e-01,9.99999e-01,9.98223e-01,9.12511e-01,9.99999e-01
6.081478544e-01,9.13461e-01,9.99999e-01,9.99999e-01,9.99232e-01,9.14162e-01,9.99999e-01
6.111885937e-01,9.15488e-01,9.99999e-01,9.99999e-01,9.99676e-01,9.15784e-01,9.99999e-01
6.142445367e-01,9.17244e-01,9.99999e-01,9.99999e-01,9.99854e-01,9.17377e-01,9.99999e-01
6.173157594e-01,9.18868e-01,9.99999e-01,9.99999e-01,9.99919e-01,9.18941e-01,9.99999e-01
6.204023382e-01,9.20414e-01,9.99999e-01,9.99999e-01,9.99931e-01,9.20477e-01,9.99999e-01
6.235043498e-01,9.21702e-01,9.99999e-01,9.99999e-01,9.99693e-01,9.21984e-01,9.99998e-01
6.266218716e-01,9.21991e-01,9.99999e-01,9.99999e-01,9.98414e-01,9.23465e-01,9.99988e-01
6.297549810e-01,9.24360e-01,9.99999e-01,9.99999e-01,9.99417e-01,9.24918e-01,9.99977e-01
6.329037559e-01,9.25268e-01,9.99999e-01,9.99999e-01,9.98854e-01,9.26345e-01,9.99981e-01
6.360682746e-01,9.26827e-01,9.99999e-01,9.99999e-01,9.99018e-01,9.27746e-01,9.99988e-01
6.392486160e-01,9.27940e-01,9.99999e-01,9.99999e-01,9.98732e-01,9.29122e-01,9.99994e-01
6.424448591e-01,9.28870e-01,9.99999e-01,9.99999e-01,9.98286e-01,9.30472e-01,9.99991e-01
6.456570834e-01,9.24361e-01,9.99999e-01,9.99999e-01,9.92066e-01,9.31797e-01,9.99951e-01
6.488853688e-01,9.27636e-01,9.99999e-01,9.99999e-01,9.94267e-01,9.33098e-01,9.99877e-01
6.521297956e-01,9.28825e-01,9.99999e-01,9.99999e-01,9.94159e-01,9.34375e-01,9.99898e-01
6.553904446e-01,9.30084e-01,9.99999e-01,9.99999e-01,9.94147e-01,9.35629e-01,9.99924e-01
6.586673968e-01,9.32166e-01,9.99999e-01,9.99999e-01,9.95014e-01,9.36859e-01,9.99974e-01
6.619607338e-01,9.35455e-01,9.99999e-01,9.99999e-01,9.97219e-01,9.38067e-01,9.99994e-01
6.652705375e-01,9.37683e-01,9.99999e-01,9.99999e-01,9.98330e-01,9.39253e-01,9.99996e-01
6.685968902e-01,9.39749e-01,9.99999e-01,9.99999e-01,9.99291e-01,9.40416e-01,9.99999e-01
6.719398746e-01,9.41220e-01,9.99999e-01,9.99999e-01,9.99640e-01,9.41558e-01,9.99999e-01
6.752995740e-01,9.42499e-01,9.99999e-01,9.99999e-01,9.99809e-01,9.42678e-01,9.99999e-01
6.786760719e-01,9.43509e-01,9.99999e-01,9.99999e-01,9.99714e-01,9.43778e-01,9.99999e-01
6.820694522e-01,9.44393e-01,9.99999e-01,9.99999e-01,9.99510e-01,9.44857e-01,9.99997e-01
6.854797995e-01,9.45320e-01,9.99999e-01,9.99999e-01,9.99374e-01,9.45917e-01,9.99994e-01
6.889071985e-01,9.45486e-01,9.99999e-01,9.99999e-01,9.98460e-01,9.46956e-01,9.99986e-01
6.923517345e-01,9.24579e-01,9.99999e-01,9.99999e-01,9.75433e-01,9.47976e-01,9.99881e-01
6.958134932e-01,9.36859e-01,9.99999e-01,9.99999e-01,9.87488e-01,9.48977e-01,9.99738e-01
6.992925606e-01,9.38139e-01,9.99999e-01,9.99999e-01,9.87789e-01,9.49959e-01,9.99763e-01
7.027890234e-01,9.36579e-01,9.99999e-01,9.99999e-01,9.85093e-01,9.50923e-01,9.99819e-01
7.063029686e-01,9.39825e-01,9.99999e-01,9.99999e-01,9.87434e-01,9.51868e-01,9.99910e-01
7.098344834e-01,9.41256e-01,9.99999e-01,9.99999e-01,9.87940e-01,9.52796e-01,9.99946e-01
7.133836558e-01,9.38089e-01,9.99999e-01,9.99999e-01,9.83726e-01,9.53707e-01,9.99894e-01
7.169505741e-01,8.37518e-01,9.99999e-01,9.99999e-01,8.78076e-01,9.54600e-01,9.99171e-01
7.205353270e-01,8.96428e-01,9.99999e-01,9.99999e-01,9.39571e-01,9.55477e-01,9.98539e-01
7.241380036e-01,8.80929e-01,9.99999e-01,9.99999e-01,9.22312e-01,9.56337e-01,9.98738e-01
7.277586936e-01,8.89003e-01,9.99999e-01,9.99999e-01,9.29730e-01,9.57180e-01,9.98968e-01
7.313974871e-01,8.86564e-01,9.99999e-01,9.99999e-01,9.25870e-01,9.58008e-01,9.99516e-01
7.350544745e-01,9.19040e-01,9.99999e-01,9.99999e-01,9.58671e-01,9.58820e-01,9.99831e-01
7.387297469e-01,9.30199e-01,9.99999e-01,9.99999e-01,9.69418e-01,9.59617e-01,9.99922e-01
7.424233956e-01,9.45939e-01,9.99999e-01,9.99999e-01,9.84956e-01,9.60398e-01,9.99986e-01
7.461355126e-01,9.52359e-01,9.99999e-01,9.99999e-01,9.90839e-01,9.61165e-01,9.99997e-01
7.498661902e-01,9.57820e-01,9.99999e-01,9.99999e-01,9.95740e-01,9.61918e-01,9.99998e-01
7.536155211e-01,9.60635e-01,9.99999e-01,9.99999e-01,9.97900e-01,9.62656e-01,9.99998e-01
7.573835987e-01,9.62339e-01,9.99999e-01,9.99999e-01,9.98919e-01,9.63380e-01,9.99999e-01
7.611705167e-01,9.63442e-01,9.99999e-01,9.99999e-01,9.99328e-01,9.64090e-01,9.99999e-01
7.649763693e-01,9.64380e-01,9.99999e-01,9.99999e-01,9.99578e-01,9.64786e-01,9.99999e-01
7.688012511e-01,9.65186e-01,9.99999e-01,9.99999e-01,9.99705e-01,9.65470e-01,9.99999e-01
7.726452574e-01,9.65906e-01,9.99999e-01,9.99999e-01,9.99757e-01,9.66140e-01,9.99999e-01
7.765084837e-01,9.66462e-01,9.99999e-01,9.99999e-01,9.99652e-01,9.66798e-01,9.99999e-01
7.803910261e-01,9.65986e-01,9.99999e-01,9.99999e-01,9.98495e-01,9.67443e-01,9.99997e-01
7.842929812e-01,9.62991e-01,9.99999e-01,9.99999e-01,9.94757e-01,9.68075e-01,9.99989e-01
7.882144461e-01,9.58298e-01,9.99999e-01,9.99999e-01,9.89338e-01,9.68696e-01,9.99926e-01
7.921555184e-01,9.63540e-01,9.99999e-01,9.99999e-01,9.94179e-01,9.69305e-01,9.99871e-01
7.961162960e-01,9.59686e-01,9.99999e-01,9.99999e-01,9.89586e-01,9.69902e-01,9.99878e-01
8.000968774e-01,9.58779e-01,9.99999e-01,9.99999e-01,9.88062e-01,9.70487e-01,9.99870e-01
8.040973618e-01,9.59353e-01,9.99999e-01,9.99999e-01,9.88039e-01,9.71062e-01,9.99901e-01
8.081178486e-01,9.45363e-01,9.99999e-01,9.99999e-01,9.73066e-01,9.71625e-01,9.99899e-01
8.121584379e-01,8.67852e-01,9.99999e-01,9.99999e-01,8.93025e-01,9.72178e-01,9.99621e-01
8.162192301e-01,8.50858e-01,9.99999e-01,9.99999e-01,8.75964e-01,9.72720e-01,9.98578e-01
8.203003262e-01,9.09055e-01,9.99999e-01,9.99999e-01,9.35594e-01,9.73251e-01,9.98336e-01
8.244018279e-01,8.89030e-01,9.99999e-01,9.99999e-01,9.14185e-01,9.73773e-01,9.98675e-01
8.285238370e-01,8.98523e-01,9.99999e-01,9.99999e-01,9.23198e-01,9.74284e-01,9.98959e-01
8.326664562e-01,8.99206e-01,9.99999e-01,9.99999e-01,9.22861e-01,9.74785e-01,9.99569e-01
8.368297885e-01,9.20795e-01,9.99999e-01,9.99999e-01,9.44229e-01,9.75277e-01,9.99901e-01
8.410139374e-01,9.42996e-01,9.99999e-01,9.99999e-01,9.66477e-01,9.75760e-01,9.99942e-01
8.452190071e-01,9.60034e-01,9.99999e-01,9.99999e-01,9.83440e-01,9.76233e-01,9.99965e-01
8.494451021e-01,9.67210e-01,9.99999e-01,9.99999e-01,9.90313e-01,9.76697e-01,9.99971e-01
8.536923276e-01,9.71551e-01,9.99999e-01,9.99999e-01,9.94284e-01,9.77152e-01,9.99982e-01
8.579607893e-01,9.74138e-01,9.99999e-01,9.99999e-01,9.96464e-01,9.77598e-01,9.99995e-01
8.622505932e-01,9.75844e-01,9.99999e-01,9.99999e-01,9.97759e-01,9.78035e-01,9.99998e-01
8.665618462e-01,9.77102e-01,9.99999e-01,9.99999e-01,9.98607e-01,9.78464e-01,9.99999e-01
8.708946554e-01,9.77320e-01,9.99999e-01,9.99999e-01,9.98400e-01,9.78885e-01,9.99998e-01
8.752491287e-01,9.77204e-01,9.99999e-01,9.99999e-01,9.97863e-01,9.79298e-01,9.99997e-01
8.796253743e-01,9.76788e-01,9.99999e-01,9.99999e-01,9.97030e-01,9.79703e-01,9.99992e-01
8.840235012e-01,9.76760e-01,9.99999e-01,9.99999e-01,9.96612e-01,9.80100e-01,9.99978e-01
8.884436187e-01,9.68119e-01,9.99999e-01,9.99999e-01,9.87440e-01,9.80489e-01,9.99941e-01
8.928858368e-01,8.60815e-01,9.99999e-01,9.99999e-01,8.77899e-01,9.80870e-01,9.99662e-01
8.973502660e-01,7.80657e-01,9.99999e-01,9.99999e-01,7.96955e-01,9.81245e-01,9.98271e-01
9.018370173e-01,8.72907e-01,9.99999e-01,9.99999e-01,8.91680e-01,9.81612e-01,9.97283e-01
9.063462024e-01,8.83511e-01,9.99999e-01,9.99999e-01,9.01883e-01,9.81972e-01,9.97613e-01
9.108779334e-01,8.35073e-01,9.99999e-01,9.99999e-01,8.52211e-01,9.82325e-01,9.97520e-01
9.154323231e-01,8.17762e-01,9.99999e-01,9.99999e-01,8.33892e-01,9.82671e-01,9.97949e-01
9.200094847e-01,8.52324e-01,9.99999e-01,9.99999e-01,8.68050e-01,9.83010e-01,9.98851e-01
9.246095321e-01,7.87440e-01,9.99999e-01,9.99999e-01,8.01838e-01,9.83343e-01,9.98677e-01
9.292325798e-01,2.42832e-01,9.99999e-01,9.99999e-01,2.48445e-01,9.83669e-01,9.93631e-01
9.338787427e-01,1.63459e-01,9.99999e-01,9.99999e-01,1.69999e-01,9.83989e-01,9.77172e-01
9.385481364e-01,4.66979e-01,9.99999e-01,9.99999e-01,4.86616e-01,9.84303e-01,9.74947e-01
9.432408771e-01,3.60672e-01,9.99999e-01,9.99999e-01,3.74416e-01,9.84610e-01,9.78349e-01
9.479570815e-01,2.51260e-01,9.99999e-01,9.99999e-01,2.59694e-01,9.84912e-01,9.82343e-01
9.526968669e-01,3.46125e-01,9.99999e-01,9.99999e-01,3.55159e-01,9.85208e-01,9.89193e-01
9.574603512e-01,3.66657e-01,9.99999e-01,9.99999e-01,3.74112e-01,9.85498e-01,9.94495e-01
9.622476530e-01,4.37600e-01,9.99999e-01,9.99999e-01,4.45609e-01,9.85782e-01,9.96190e-01
9.670588912e-01,6.14452e-01,9.99999e-01,9.99999e-01,6.24697e-01,9.86061e-01,9.97502e-01
9.718941857e-01,7.28949e-01,9.99999e-01,9.99999e-01,7.40465e-01,9.86335e-01,9.98086e-01
9.767536566e-01,7.67363e-01,9.99999e-01,9.99999e-01,7.78925e-01,9.86603e-01,9.98532e-01
9.816374249e-01,8.19582e-01,9.99999e-01,9.99999e-01,8.30911e-01,9.86866e-01,9.99491e-01
9.865456120e-01,8.78967e-01,9.99999e-01,9.99999e-01,8.90526e-01,9.87123e-01,9.99893e-01
9.914783401e-01,9.18920e-01,9.99999e-01,9.99999e-01,9.30695e-01,9.87376e-01,9.99970e-01
9.964357318e-01,9.49730e-01,9.99999e-01,9.99999e-01,9.61647e-01,9.87624e-01,9.99982e-01
1.001417910e+00,9.64967e-01,9.99999e-01,9.99999e-01,9.76844e-01,9.87867e-01,9.99973e-01
1.006425000e+00,9.74922e-01,9.99999e-01,9.99999e-01,9.86695e-01,9.88105e-01,9.99962e-01
1.011457125e+00,9.80150e-01,9.99999e-01,9.99999e-01,9.91748e-01,9.88338e-01,9.99964e-01
1.016514411e+00,9.82989e-01,9.99999e-01,9.99999e-01,9.94381e-01,9.88567e-01,9.99975e-01
1.021596983e+00,9.84336e-01,9.99999e-01,9.99999e-01,9.95516e-01,9.88792e-01,9.99975e-01
1.026704968e+00,9.85536e-01,9.99999e-01,9.99999e-01,9.96499e-01,9.89012e-01,9.99984e-01
1.031838492e+00,9.86713e-01,9.99999e-01,9.99999e-01,9.97461e-01,9.89228e-01,9.99994e-01
1.036997685e+00,9.87943e-01,9.99999e-01,9.99999e-01,9.98487e-01,9.89440e-01,9.99998e-01
1.042182673e+00,9.87855e-01,9.99999e-01,9.99999e-01,9.98188e-01,9.89647e-01,9.99999e-01
1.047393587e+00,9.87479e-01,9.99999e-01,9.99999e-01,9.97604e-01,9.89851e-01,9.99999e-01
1.052630555e+00,9.86790e-01,9.99999e-01,9.99999e-01,9.96708e-01,9.90050e-01,9.99998e-01
1.057893707e+00,9.84797e-01,9.99999e-01,9.99999e-01,9.94499e-01,9.90246e-01,9.99997e-01
1.063183176e+00,9.81495e-01,9.99999e-01,9.99999e-01,9.90975e-01,9.90437e-01,9.99994e-01
1.068499092e+00,9.75719e-01,9.99999e-01,9.99999e-01,9.84962e-01,9.90625e-01,9.99989e-01
1.073841587e+00,9.73343e-01,9.99999e-01,9.99999e-01,9.82392e-01,9.90810e-01,9.99977e-01
1.079210795e+00,9.68708e-01,9.99999e-01,9.99999e-01,9.77573e-01,9.90990e-01,9.99939e-01
1.084606849e+00,9.57517e-01,9.99999e-01,9.99999e-01,9.66189e-01,9.91167e-01,9.99854e-01
1.090029883e+00,9.42952e-01,9.99999e-01,9.99999e-01,9.51474e-01,9.91341e-01,9.99698e-01
1.095480033e+00,8.65782e-01,9.99999e-01,9.99999e-01,8.73670e-01,9.91511e-01,9.99454e-01
1.100957433e+00,7.04852e-01,9.99999e-01,9.99999e-01,7.11479e-01,9.91678e-01,9.98996e-01
1.106462220e+00,4.26559e-01,9.99999e-01,9.99999e-01,4.30800e-01,9.91842e-01,9.98299e-01
1.111994531e+00,1.76045e-01,9.99999e-01,9.99999e-01,1.78268e-01,9.92003e-01,9.95492e-01
1.117554504e+00,6.45953e-02,9.99999e-01,9.99999e-01,6.61762e-02,9.92160e-01,9.83822e-01
1.123142276e+00,1.46617e-01,9.99999e-01,9.99999e-01,1.53579e-01,9.92314e-01,9.62060e-01
1.128757988e+00,2.61915e-01,9.99999e-01,9.99999e-01,2.75979e-01,9.92465e-01,9.56242e-01
1.134401778e+00,1.21726e-01,9.99999e-01,9.99999e-01,1.27387e-01,9.92614e-01,9.62668e-01
1.140073787e+00,4.33488e-01,9.99999e-01,9.99999e-01,4.50126e-01,9.92759e-01,9.70059e-01
1.145774156e+00,1.99477e-01,9.99999e-01,9.99999e-01,2.06571e-01,9.92901e-01,9.72558e-01
1.151503026e+00,1.71099e-01,9.99999e-01,9.99999e-01,1.74989e-01,9.93041e-01,9.84618e-01
1.157260541e+00,2.12355e-01,9.99999e-01,9.99999e-01,2.14807e-01,9.93178e-01,9.95375e-01
1.163046844e+00,3.16206e-01,9.99999e-01,9.99999e-01,3.18753e-01,9.93312e-01,9.98686e-01
1.168862078e+00,4.40648e-01,9.99999e-01,9.99999e-01,4.43859e-01,9.93444e-01,9.99315e-01
1.174706389e+00,6.00466e-01,9.99999e-01,9.99999e-01,6.04919e-01,9.93573e-01,9.99057e-01
1.180579921e+00,7.29838e-01,9.99999e-01,9.99999e-01,7.35462e-01,9.93700e-01,9.98644e-01
1.186482820e+00,8.33349e-01,9.99999e-01,9.99999e-01,8.39695e-01,9.93824e-01,9.98608e-01
1.192415234e+00,8.96373e-01,9.99999e-01,9.99999e-01,9.02773e-01,9.93945e-01,9.98957e-01
1.198377311e+00,9.10918e-01,9.99999e-01,9.99999e-01,9.17263e-01,9.94064e-01,9.99010e-01
1.204369197e+00,9.15622e-01,9.99999e-01,9.99999e-01,9.21774e-01,9.94181e-01,9.99138e-01
1.210391043e+00,9.19211e-01,9.99999e-01,9.99999e-01,9.24985e-01,9.94296e-01,9.99457e-01
1.216442998e+00,9.30442e-01,9.99999e-01,9.99999e-01,9.35983e-01,9.94408e-01,9.99667e-01
1.222525213e+00,9.44291e-01,9.99999e-01,9.99999e-01,9.49690e-01,9.94518e-01,9.99793e-01
1.228637839e+00,9.59480e-01,9.99999e-01,9.99999e-01,9.64755e-01,9.94626e-01,9.99903e-01
