#,Wave/freq,Total,N2,O2,H2O,Rayleigh,CIA
4.000000000e-01,6.99932e-01,9.99999e-01,9.99999e-01,9.99959e-01,6.99960e-01,9.99999e-01
4.020000000e-01,7.04897e-01,9.99999e-01,9.99999e-01,9.99974e-01,7.04915e-01,9.99999e-01
4.040100000e-01,7.09793e-01,9.99999e-01,9.99999e-01,9.99988e-01,7.09800e-01,9.99999e-01
4.060300500e-01,7.14621e-01,9.99999e-01,9.99999e-01,9.99997e-01,7.14622e-01,9.99999e-01
4.080602003e-01,7.19380e-01,9.99999e-01,9.99999e-01,9.99998e-01,7.19381e-01,9.99999e-01
4.101005013e-01,7.24076e-01,9.99999e-01,9.99999e-01,9.99999e-01,7.24076e-01,9.99999e-01
4.121510038e-01,7.28708e-01,9.99999e-01,9.99999e-01,9.99998e-01,7.28709e-01,9.99999e-01
4.142117588e-01,7.33270e-01,9.99999e-01,9.99999e-01,9.99988e-01,7.33278e-01,9.99999e-01
4.162828176e-01,7.37749e-01,9.99999e-01,9.99999e-01,9.99949e-01,7.37786e-01,9.99999e-01
4.183642317e-01,7.42209e-01,9.99999e-01,9.99999e-01,9.99969e-01,7.42231e-01,9.99999e-01
4.204560528e-01,7.46600e-01,9.99999e-01,9.99999e-01,9.99981e-01,7.46614e-01,9.99999e-01
4.225583331e-01,7.50930e-01,9.99999e-01,9.99999e-01,9.99992e-01,7.50936e-01,9.99999e-01
4.246711247e-01,7.55192e-01,9.99999e-01,9.99999e-01,9.99994e-01,7.55196e-01,9.99999e-01
4.267944804e-01,7.59390e-01,9.99999e-01,9.99999e-01,9.99991e-01,7.59396e-01,9.99999e-01
4.289284528e-01,7.63531e-01,9.99999e-01,9.99999e-01,9.99993e-01,7.63536e-01,9.99999e-01
4.310730950e-01,7.67614e-01,9.99999e-01,9.99999e-01,9.99996e-01,7.67616e-01,9.99999e-01
4.332284605e-01,7.71636e-01,9.99999e-01,9.99999e-01,9.99998e-01,7.71636e-01,9.99999e-01
4.353946028e-01,7.75597e-01,9.99999e-01,9.99999e-01,9.99999e-01,7.75598e-01,9.99999e-01
4.375715758e-01,7.79497e-01,9.99999e-01,9.99999e-01,9.99994e-01,7.79500e-01,9.99999e-01
4.397594337e-01,7.83311e-01,9.99999e-01,9.99999e-01,9.99956e-01,7.83345e-01,9.99999e-01
4.419582309e-01,7.86960e-01,9.99999e-01,9.99999e-01,9.99780e-01,7.87133e-01,9.99999e-01
4.441680220e-01,7.90725e-01,9.99999e-01,9.99999e-01,9.99825e-01,7.90863e-01,9.99999e-01
4.463888621e-01,7.94393e-01,9.99999e-01,9.99999e-01,9.99818e-01,7.94537e-01,9.99999e-01
4.486208064e-01,7.98065e-01,9.99999e-01,9.99999e-01,9.99886e-01,7.98154e-01,9.99999e-01
4.508639105e-01,8.01675e-01,9.99999e-01,9.99999e-01,9.99946e-01,8.01717e-01,9.99999e-01
4.531182300e-01,8.05207e-01,9.99999e-01,9.99999e-01,9.99978e-01,8.05224e-01,9.99999e-01
4.553838212e-01,8.08666e-01,9.99999e-01,9.99999e-01,9.99985e-01,8.08677e-01,9.99999e-01
4.576607403e-01,8.12071e-01,9.99999e-01,9.99999e-01,9.99993e-01,8.12076e-01,9.99999e-01
4.599490440e-01,8.15418e-01,9.99999e-01,9.99999e-01,9.99994e-01,8.15422e-01,9.99999e-01
4.622487892e-01,8.18715e-01,9.99999e-01,9.99999e-01,9.99998e-01,8.18715e-01,9.99999e-01
4.645600332e-01,8.21954e-01,9.99999e-01,9.99999e-01,9.99996e-01,8.21956e-01,9.99999e-01
4.668828333e-01,8.25102e-01,9.99999e-01,9.99999e-01,9.99946e-01,8.25146e-01,9.99999e-01
4.692172475e-01,8.28190e-01,9.99999e-01,9.99999e-01,9.99886e-01,8.28284e-01,9.99999e-01
4.715633337e-01,8.31311e-01,9.99999e-01,9.99999e-01,9.99925e-01,8.31372e-01,9.99999e-01
4.739211504e-01,8.34351e-01,9.99999e-01,9.99999e-01,9.99928e-01,8.34411e-01,9.99999e-01
4.762907561e-01,8.37369e-01,9.99999e-01,9.99999e-01,9.99962e-01,8.37400e-01,9.99999e-01
4.786722099e-01,8.40327e-01,9.99999e-01,9.99999e-01,9.99984e-01,8.40340e-01,9.99999e-01
4.810655710e-01,8.43228e-01,9.99999e-01,9.99999e-01,9.99994e-01,8.43232e-01,9.99999e-01
4.834708988e-01,8.46041e-01,9.99999e-01,9.99999e-01,9.99956e-01,8.46077e-01,9.99999e-01
4.858882533e-01,8.48807e-01,9.99999e-01,9.99999e-01,9.99919e-01,8.48875e-01,9.99999e-01
4.883176946e-01,8.51570e-01,9.99999e-01,9.99999e-01,9.99932e-01,8.51627e-01,9.99999e-01
4.907592831e-01,8.54281e-01,9.99999e-01,9.99999e-01,9.99938e-01,8.54333e-01,9.99999e-01
4.932130795e-01,8.56956e-01,9.99999e-01,9.99999e-01,9.99956e-01,8.56993e-01,9.99999e-01
4.956791449e-01,8.59590e-01,9.99999e-01,9.99999e-01,9.99976e-01,8.59610e-01,9.99999e-01
4.981575406e-01,8.62084e-01,9.99999e-01,9.99999e-01,9.99886e-01,8.62182e-01,9.99999e-01
5.006483283e-01,8.64457e-01,9.99999e-01,9.99999e-01,9.99706e-01,8.64711e-01,9.99997e-01
5.031515699e-01,8.65889e-01,9.99999e-01,9.99999e-01,9.98506e-01,8.67198e-01,9.99983e-01
5.056673278e-01,8.68939e-01,9.99999e-01,9.99999e-01,9.99209e-01,8.69642e-01,9.99981e-01
5.081956644e-01,8.71165e-01,9.99999e-01,9.99999e-01,9.99002e-01,8.72044e-01,9.99987e-01
5.107366428e-01,8.73815e-01,9.99999e-01,9.99999e-01,9.99325e-01,8.74406e-01,9.99997e-01
5.132903260e-01,8.76389e-01,9.99999e-01,9.99999e-01,9.99613e-01,8.76727e-01,9.99999e-01
5.158567776e-01,8.78865e-01,9.99999e-01,9.99999e-01,9.99836e-01,8.79008e-01,9.99999e-01
5.184360615e-01,8.81193e-01,9.99999e-01,9.99999e-01,9.99934e-01,8.81250e-01,9.99999e-01
5.210282418e-01,8.83432e-01,9.99999e-01,9.99999e-01,9.99975e-01,8.83453e-01,9.99999e-01
5.236333830e-01,8.85531e-01,9.99999e-01,9.99999e-01,9.99902e-01,8.85618e-01,9.99998e-01
5.262515499e-01,8.87691e-01,9.99999e-01,9.99999e-01,9.99938e-01,8.87746e-01,9.99998e-01
5.288828077e-01,8.89786e-01,9.99999e-01,9.99999e-01,9.99943e-01,8.89836e-01,9.99998e-01
5.315272217e-01,8.91846e-01,9.99999e-01,9.99999e-01,9.99950e-01,8.91890e-01,9.99999e-01
5.341848578e-01,8.93879e-01,9.99999e-01,9.99999e-01,9.99967e-01,8.93908e-01,9.99999e-01
5.368557821e-01,8.95789e-01,9.99999e-01,9.99999e-01,9.99886e-01,8.95890e-01,9.99999e-01
5.395400610e-01,8.97470e-01,9.99999e-01,9.99999e-01,9.99593e-01,8.97838e-01,9.99996e-01
5.422377613e-01,8.99265e-01,9.99999e-01,9.99999e-01,9.99468e-01,8.99751e-01,9.99989e-01
5.449489501e-01,9.01179e-01,9.99999e-01,9.99999e-01,9.99508e-01,9.01630e-01,9.99989e-01
5.476736949e-01,9.03077e-01,9.99999e-01,9.99999e-01,9.99562e-01,9.03476e-01,9.99994e-01
5.504120634e-01,9.05001e-01,9.99999e-01,9.99999e-01,9.99682e-01,9.05290e-01,9.99998e-01
5.531641237e-01,9.06926e-01,9.99999e-01,9.99999e-01,9.99839e-01,9.07071e-01,9.99999e-01
5.559299443e-01,9.08750e-01,9.99999e-01,9.99999e-01,9.99922e-01,9.08820e-01,9.99999e-01
5.587095940e-01,9.10494e-01,9.99999e-01,9.99999e-01,9.99951e-01,9.10538e-01,9.99999e-01
5.615031420e-01,9.12176e-01,9.99999e-01,9.99999e-01,9.99945e-01,9.12225e-01,9.99999e-01
5.643106577e-01,9.13826e-01,9.99999e-01,9.99999e-01,9.99939e-01,9.13882e-01,9.99998e-01
5.671322110e-01,9.14836e-01,9.99999e-01,9.99999e-01,9.99271e-01,9.15509e-01,9.99992e-01
5.699678720e-01,9.16362e-01,9.99999e-01,9.99999e-01,9.99207e-01,9.17106e-01,9.99979e-01
5.728177114e-01,9.17909e-01,9.99999e-01,9.99999e-01,9.99181e-01,9.18675e-01,9.99982e-01
5.756818000e-01,9.19515e-01,9.99999e-01,9.99999e-01,9.99247e-01,9.20216e-01,9.99989e-01
5.785602090e-01,9.21121e-01,9.99999e-01,9.99999e-01,9.99343e-01,9.21728e-01,9.99996e-01
5.814530100e-01,9.22605e-01,9.99999e-01,9.99999e-01,9.99341e-01,9.23213e-01,9.99998e-01
5.843602750e-01,9.23947e-01,9.99999e-01,9.99999e-01,9.99220e-01,9.24671e-01,9.99995e-01
5.872820764e-01,9.19848e-01,9.99999e-01,9.99999e-01,9.93292e-01,9.26103e-01,9.99952e-01
5.902184868e-01,9.19797e-01,9.99999e-01,9.99999e-01,9.91813e-01,9.27508e-01,9.99870e-01
5.931695792e-01,9.23410e-01,9.99999e-01,9.99999e-01,9.94227e-01,9.28888e-01,9.99873e-01
5.961354271e-01,9.24275e-01,9.99999e-01,9.99999e-01,9.93660e-01,9.30242e-01,9.99923e-01
5.991161043e-01,9.27238e-01,9.99999e-01,9.99999e-01,9.95368e-01,9.31572e-01,9.99977e-01
6.021116848e-01,9.30419e-01,9.99999e-01,9.99999e-01,9.97367e-01,9.32877e-01,9.99996e-01
6.051222432e-01,9.32913e-01,9.99999e-01,9.99999e-01,9.98666e-01,9.34158e-01,9.99999e-01
6.081478544e-01,9.34879e-01,9.99999e-01,9.99999e-01,9.99425e-01,9.35416e-01,9.99999e-01
6.111885937e-01,9.36422e-01,9.99999e-01,9.99999e-01,9.99755e-01,9.36650e-01,9.99999e-01
6.142445367e-01,9.37760e-01,9.99999e-01,9.99999e-01,9.99890e-01,9.37862e-01,9.99999e-01
6.173157594e-01,9.38995e-01,9.99999e-01,9.99999e-01,9.99939e-01,9.39051e-01,9.99999e-01
6.204023382e-01,9.40171e-01,9.99999e-01,9.99999e-01,9.99949e-01,9.40218e-01,9.99999e-01
6.235043498e-01,9.41157e-01,9.99999e-01,9.99999e-01,9.99780e-01,9.41364e-01,9.99998e-01
6.266218716e-01,9.41370e-01,9.99999e-01,9.99999e-01,9.98821e-01,9.42488e-01,9.99991e-01
6.297549810e-01,9.43168e-01,9.99999e-01,9.99999e-01,9.99567e-01,9.43591e-01,9.99982e-01
6.329037559e-01,9.43853e-01,9.99999e-01,9.99999e-01,9.99143e-01,9.44674e-01,9.99986e-01
6.360682746e-01,9.45043e-01,9.99999e-01,9.99999e-01,9.99273e-01,9.45737e-01,9.99991e-01
6.392486160e-01,9.45884e-01,9.99999e-01,9.99999e-01,9.99056e-01,9.46779e-01,9.99996e-01
6.424448591e-01,9.46610e-01,9.99999e-01,9.99999e-01,9.98746e-01,9.47803e-01,9.99993e-01
6.456570834e-01,9.43263e-01,9.99999e-01,9.99999e-01,9.94189e-01,9.48807e-01,9.99967e-01
6.488853688e-01,9.44929e-01,9.99999e-01,9.99999e-01,9.94969e-01,9.49792e-01,9.99908e-01
6.521297956e-01,9.46527e-01,9.99999e-01,9.99999e-01,9.95624e-01,9.50759e-01,9.99923e-01
6.553904446e-01,9.47540e-01,9.99999e-01,9.99999e-01,9.95677e-01,9.51708e-01,9.99942e-01
6.586673968e-01,9.49065e-01,9.99999e-01,9.99999e-01,9.96266e-01,9.52639e-01,9.99980e-01
6.619607338e-01,9.51490e-01,9.99999e-01,9.99999e-01,9.97840e-01,9.53552e-01,9.99995e-01
6.652705375e-01,9.53251e-01,9.99999e-01,9.99999e-01,9.98746e-01,9.54448e-01,9.99997e-01
6.685968902e-01,9.54772e-01,9.99999e-01,9.99999e-01,9.99417e-01,9.55328e-01,9.99999e-01
6.719398746e-01,9.55932e-01,9.99999e-01,9.99999e-01,9.99729e-01,9.56190e-01,9.99999e-01
6.752995740e-01,9.56898e-01,9.99999e-01,9.99999e-01,9.99853e-01,9.57037e-01,9.99999e-01
6.786760719e-01,9.57667e-01,9.99999e-01,9.99999e-01,9.99790e-01,9.57867e-01,9.99999e-01
6.820694522e-01,9.58336e-01,9.99999e-01,9.99999e-01,9.99640e-01,9.58682e-01,9.99997e-01
6.854797995e-01,9.59034e-01,9.99999e-01,9.99999e-01,9.99536e-01,9.59482e-01,9.99995e-01
6.889071985e-01,9.59194e-01,9.99999e-01,9.99999e-01,9.98893e-01,9.60266e-01,9.99989e-01
6.923517345e-01,9.43562e-01,9.99999e-01,9.99999e-01,9.81903e-01,9.61035e-01,9.99911e-01
6.958134932e-01,9.52369e-01,9.99999e-01,9.99999e-01,9.90400e-01,9.61790e-01,9.99801e-01
6.992925606e-01,9.53718e-01,9.99999e-01,9.99999e-01,9.91016e-01,9.62530e-01,9.99825e-01
7.027890234e-01,9.52387e-01,9.99999e-01,9.99999e-01,9.88848e-01,9.63257e-01,9.99865e-01
7.063029686e-01,9.54866e-01,9.99999e-01,9.99999e-01,9.90622e-01,9.63969e-01,9.99932e-01
7.098344834e-01,9.55949e-01,9.99999e-01,9.99999e-01,9.91000e-01,9.64668e-01,9.99960e-01
7.133836558e-01,9.53840e-01,9.99999e-01,9.99999e-01,9.88150e-01,9.65354e-01,9.99921e-01
7.169505741e-01,8.77007e-01,9.99999e-01,9.99999e-01,9.08409e-01,9.66026e-01,9.99383e-01
7.205353270e-01,9.20612e-01,9.99999e-01,9.99999e-01,9.53373e-01,9.66686e-01,9.98913e-01
7.241380036e-01,9.10182e-01,9.99999e-01,9.99999e-01,9.41801e-01,9.67333e-01,9.99061e-01
7.277586936e-01,9.16252e-01,9.99999e-01,9.99999e-01,9.47298e-01,9.67968e-01,9.99232e-01
7.313974871e-01,9.13740e-01,9.99999e-01,9.99999e-01,9.43709e-01,9.68591e-01,9.99640e-01
7.350544745e-01,9.38927e-01,9.99999e-01,9.99999e-01,9.68884e-01,9.69201e-01,9.99874e-01
7.387297469e-01,9.47427e-01,9.99999e-01,9.99999e-01,9.76985e-01,9.69800e-01,9.99942e-01
7.424233956e-01,9.59366e-01,9.99999e-01,9.99999e-01,9.88651e-01,9.70388e-01,9.99988e-01
7.461355126e-01,9.64281e-01,9.99999e-01,9.99999e-01,9.93117e-01,9.70964e-01,9.99997e-01
7.498661902e-01,9.68405e-01,9.99999e-01,9.99999e-01,9.96783e-01,9.71530e-01,9.99998e-01
7.536155211e-01,9.70553e-01,9.99999e-01,9.99999e-01,9.98425e-01,9.72084e-01,9.99999e-01
7.573835987e-01,9.71839e-01,9.99999e-01,9.99999e-01,9.99188e-01,9.72628e-01,9.99999e-01
7.611705167e-01,9.72671e-01,9.99999e-01,9.99999e-01,9.99495e-01,9.73161e-01,9.99999e-01
7.649763693e-01,9.73377e-01,9.99999e-01,9.99999e-01,9.99684e-01,9.73684e-01,9.99999e-01
7.688012511e-01,9.73983e-01,9.99999e-01,9.99999e-01,9.99780e-01,9.74197e-01,9.99999e-01
7.726452574e-01,9.74524e-01,9.99999e-01,9.99999e-01,9.99819e-01,9.74700e-01,9.99999e-01
7.765084837e-01,9.74945e-01,9.99999e-01,9.99999e-01,9.99744e-01,9.75194e-01,9.99999e-01
7.803910261e-01,9.74604e-01,9.99999e-01,9.99999e-01,9.98899e-01,9.75678e-01,9.99998e-01
7.842929812e-01,9.72402e-01,9.99999e-01,9.99999e-01,9.96164e-01,9.76152e-01,9.99992e-01
7.882144461e-01,9.68813e-01,9.99999e-01,9.99999e-01,9.92056e-01,9.76618e-01,9.99950e-01
7.921555184e-01,9.72704e-01,9.99999e-01,9.99999e-01,9.95620e-01,9.77074e-01,9.99905e-01
7.961162960e-01,9.69946e-01,9.99999e-01,9.99999e-01,9.92338e-01,9.77522e-01,9.99909e-01
8.000968774e-01,9.69177e-01,9.99999e-01,9.99999e-01,9.91112e-01,9.77961e-01,9.99903e-01
8.040973618e-01,9.69631e-01,9.99999e-01,9.99999e-01,9.91120e-01,9.78392e-01,9.99923e-01
8.081178486e-01,9.59371e-01,9.99999e-01,9.99999e-01,9.80205e-01,9.78814e-01,9.99928e-01
8.121584379e-01,9.00661e-01,9.99999e-01,9.99999e-01,9.20024e-01,9.79228e-01,9.99718e-01
8.162192301e-01,8.85745e-01,9.99999e-01,9.99999e-01,9.05115e-01,9.79634e-01,9.98942e-01
8.203003262e-01,9.32345e-01,9.99999e-01,9.99999e-01,9.52518e-01,9.80032e-01,9.98762e-01
8.244018279e-01,9.14044e-01,9.99999e-01,9.99999e-01,9.33214e-01,9.80423e-01,9.99014e-01
8.285238370e-01,9.23648e-01,9.99999e-01,9.99999e-01,9.42452e-01,9.80806e-01,9.99226e-01
8.326664562e-01,9.23673e-01,9.99999e-01,9.99999e-01,9.41689e-01,9.81181e-01,9.99679e-01
8.368297885e-01,9.40132e-01,9.99999e-01,9.99999e-01,9.57873e-01,9.81549e-01,9.99926e-01
8.410139374e-01,9.57067e-01,9.99999e-01,9.99999e-01,9.74740e-01,9.81911e-01,9.99956e-01
8.452190071e-01,9.69984e-01,9.99999e-01,9.99999e-01,9.87522e-01,9.82265e-01,9.99973e-01
8.494451021e-01,9.75482e-01,9.99999e-01,9.99999e-01,9.92763e-01,9.82612e-01,9.99979e-01
8.536923276e-01,9.78716e-01,9.99999e-01,9.99999e-01,9.95703e-01,9.82952e-01,9.99985e-01
8.579607893e-01,9.80686e-01,9.99999e-01,9.99999e-01,9.97358e-01,9.83286e-01,9.99995e-01
8.622505932e-01,9.81960e-01,9.99999e-01,9.99999e-01,9.98318e-01,9.83614e-01,9.99998e-01
8.665618462e-01,9.82914e-01,9.99999e-01,9.99999e-01,9.98962e-01,9.83935e-01,9.99999e-01
8.708946554e-01,9.83082e-01,9.99999e-01,9.99999e-01,9.98814e-01,9.84250e-01,9.99998e-01
8.752491287e-01,9.82994e-01,9.99999e-01,9.99999e-01,9.98412e-01,9.84558e-01,9.99997e-01
8.796253743e-01,9.82698e-01,9.99999e-01,9.99999e-01,9.97808e-01,9.84861e-01,9.99994e-01
8.840235012e-01,9.82675e-01,9.99999e-01,9.99999e-01,9.97495e-01,9.85158e-01,9.99984e-01
8.884436187e-01,9.76561e-01,9.99999e-01,9.99999e-01,9.91023e-01,9.85449e-01,9.99956e-01
8.928858368e-01,8.95572e-01,9.99999e-01,9.99999e-01,9.08760e-01,9.85734e-01,9.99748e-01
8.973502660e-01,8.30572e-01,9.99999e-01,9.99999e-01,8.43436e-01,9.86014e-01,9.98714e-01
9.018370173e-01,9.01918e-01,9.99999e-01,9.99999e-01,9.16307e-01,9.86288e-01,9.97979e-01
9.063462024e-01,9.12677e-01,9.99999e-01,9.99999e-01,9.26757e-01,9.86557e-01,9.98224e-01
9.108779334e-01,8.74418e-01,9.99999e-01,9.99999e-01,8.87732e-01,9.86821e-01,9.98155e-01
9.154323231e-01,8.60528e-01,9.99999e-01,9.99999e-01,8.73122e-01,9.87079e-01,9.98474e-01
9.200094847e-01,8.86977e-01,9.99999e-01,9.99999e-01,8.99123e-01,9.87333e-01,9.99145e-01
9.246095321e-01,8.39657e-01,9.99999e-01,9.99999e-01,8.51052e-01,9.87582e-01,9.99016e-01
9.292325798e-01,3.41407e-01,9.99999e-01,9.99999e-01,3.46943e-01,9.87825e-01,9.96169e-01
9.338787427e-01,2.46701e-01,9.99999e-01,9.99999e-01,2.53673e-01,9.88064e-01,9.84261e-01
9.385481364e-01,5.55683e-01,9.99999e-01,9.99999e-01,5.72970e-01,9.88299e-01,9.81309e-01
9.432408771e-01,4.58614e-01,9.99999e-01,9.99999e-01,4.71549e-01,9.88529e-01,9.83854e-01
9.479570815e-01,3.47882e-01,9.99999e-01,9.99999e-01,3.56531e-01,9.88754e-01,9.86839e-01
9.526968669e-01,4.43884e-01,9.99999e-01,9.99999e-01,4.52473e-01,9.88975e-01,9.91952e-01
9.574603512e-01,4.66673e-01,9.99999e-01,9.99999e-01,4.73712e-01,9.89191e-01,9.95903e-01
9.622476530e-01,5.33374e-01,9.99999e-01,9.99999e-01,5.40618e-01,9.89404e-01,9.97165e-01
9.670588912e-01,6.92024e-01,9.99999e-01,9.99999e-01,7.00646e-01,9.89612e-01,9.98060e-01
9.718941857e-01,7.89427e-01,9.99999e-01,9.99999e-01,7.98689e-01,9.89816e-01,9.98571e-01
9.767536566e-01,8.20523e-01,9.99999e-01,9.99999e-01,8.29702e-01,9.90016e-01,9.98908e-01
9.816374249e-01,8.61461e-01,9.99999e-01,9.99999e-01,8.70304e-01,9.90212e-01,9.99621e-01
9.865456120e-01,9.07883e-01,9.99999e-01,9.99999e-01,9.16750e-01,9.90405e-01,9.99920e-01
9.914783401e-01,9.38740e-01,9.99999e-01,9.99999e-01,9.47673e-01,9.90593e-01,9.99977e-01
9.964357318e-01,9.62183e-01,9.99999e-01,9.99999e-01,9.71150e-01,9.90778e-01,9.99986e-01
1.001417910e+00,9.73701e-01,9.99999e-01,9.99999e-01,9.82603e-01,9.90960e-01,9.99980e-01
1.006425000e+00,9.81261e-01,9.99999e-01,9.99999e-01,9.90062e-01,9.91137e-01,9.99971e-01
1.011457125e+00,9.85149e-01,9.99999e-01,9.99999e-01,9.93808e-01,9.91312e-01,9.99973e-01
1.016514411e+00,9.87299e-01,9.99999e-01,9.99999e-01,9.95797e-01,9.91482e-01,9.99981e-01
1.021596983e+00,9.88313e-01,9.99999e-01,9.99999e-01,9.96652e-01,9.91650e-01,9.99981e-01
1.026704968e+00,9.89214e-01,9.99999e-01,9.99999e-01,9.97389e-01,9.91814e-01,9.99987e-01
1.031838492e+00,9.90087e-01,9.99999e-01,9.99999e-01,9.98098e-01,9.91975e-01,9.99996e-01
1.036997685e+00,9.91014e-01,9.99999e-01,9.99999e-01,9.98872e-01,9.92133e-01,9.99998e-01
1.042182673e+00,9.90958e-01,9.99999e-01,9.99999e-01,9.98659e-01,9.92288e-01,9.99999e-01
1.047393587e+00,9.90673e-01,9.99999e-01,9.99999e-01,9.98220e-01,9.92440e-01,9.99999e-01
1.052630555e+00,9.90167e-01,9.99999e-01,9.99999e-01,9.97560e-01,9.92588e-01,9.99998e-01
1.057893707e+00,9.88698e-01,9.99999e-01,9.99999e-01,9.95935e-01,9.92734e-01,9.99998e-01
1.063183176e+00,9.86235e-01,9.99999e-01,9.99999e-01,9.93313e-01,9.92877e-01,9.99996e-01
1.068499092e+00,9.81903e-01,9.99999e-01,9.99999e-01,9.88814e-01,9.93017e-01,9.99991e-01
1.073841587e+00,9.80174e-01,9.99999e-01,9.99999e-01,9.86945e-01,9.93155e-01,9.99982e-01
1.079210795e+00,9.76611e-01,9.99999e-01,9.99999e-01,9.83252e-01,9.93290e-01,9.99954e-01
1.084606849e+00,9.68279e-01,9.99999e-01,9.99999e-01,9.74795e-01,9.93422e-01,9.99891e-01
1.090029883e+00,9.57742e-01,9.99999e-01,9.99999e-01,9.64173e-01,9.93551e-01,9.99775e-01
1.095480033e+00,8.99169e-01,9.99999e-01,9.99999e-01,9.05256e-01,9.93678e-01,9.99594e-01
1.100957433e+00,7.72071e-01,9.99999e-01,9.99999e-01,7.77465e-01,9.93803e-01,9.99253e-01
1.106462220e+00,5.29946e-01,9.99999e-01,9.99999e-01,5.33860e-01,9.93925e-01,9.98734e-01
1.111994531e+00,2.68500e-01,9.99999e-01,9.99999e-01,2.71017e-01,9.94044e-01,9.96645e-01
1.117554504e+00,1.23020e-01,9.99999e-01,9.99999e-01,1.25252e-01,9.94162e-01,9.87944e-01
1.123142276e+00,2.22258e-01,9.99999e-01,9.99999e-01,2.30060e-01,9.94276e-01,9.71647e-01
1.128757988e+00,3.60890e-01,9.99999e-01,9.99999e-01,3.75204e-01,9.94389e-01,9.67273e-01
1.134401778e+00,1.69072e-01,9.99999e-01,9.99999e-01,1.74885e-01,9.94500e-01,9.72103e-01
1.140073787e+00,5.33799e-01,9.99999e-01,9.99999e-01,5.48963e-01,9.94608e-01,9.77647e-01
1.145774156e+00,2.89721e-01,9.99999e-01,9.99999e-01,2.97350e-01,9.94714e-01,9.79520e-01
1.151503026e+00,2.58098e-01,9.99999e-01,9.99999e-01,2.62450e-01,9.94818e-01,9.88538e-01
1.157260541e+00,3.10010e-01,9.99999e-01,9.99999e-01,3.12668e-01,9.94920e-01,9.96558e-01
1.163046844e+00,4.18026e-01,9.99999e-01,9.99999e-01,4.20528e-01,9.95020e-01,9.99023e-01
1.168862078e+00,5.39738e-01,9.99999e-01,9.99999e-01,5.42658e-01,9.95119e-01,9.99496e-01
1.174706389e+00,6.81784e-01,9.99999e-01,9.99999e-01,6.85518e-01,9.95215e-01,9.99332e-01
1.180579921e+00,7.89478e-01,9.99999e-01,9.99999e-01,7.93999e-01,9.95309e-01,9.98991e-01
1.186482820e+00,8.72584e-01,9.99999e-01,9.99999e-01,8.77522e-01,9.95401e-01,9.98964e-01
1.192415234e+00,9.21668e-01,9.99999e-01,9.99999e-01,9.26559e-01,9.95492e-01,9.99224e-01
1.198377311e+00,9.33008e-01,9.99999e-01,9.99999e-01,9.37835e-01,9.95581e-01,9.99267e-01
1.204369197e+00,9.36414e-01,9.99999e-01,9.99999e-01,9.41110e-01,9.95668e-01,9.99337e-01
1.210391043e+00,9.39170e-01,9.99999e-01,9.99999e-01,9.43555e-01,9.95753e-01,9.99596e-01
1.216442998e+00,9.47505e-01,9.99999e-01,9.99999e-01,9.51700e-01,9.95837e-01,9.99752e-01
1.222525213e+00,9.58121e-01,9.99999e-01,9.99999e-01,9.62193e-01,9.95919e-01,9.99846e-01
1.228637839e+00,9.69644e-01,9.99999e-01,9.99999e-01,9.73607e-01,9.95999e-01,9.99928e-01
