#,Wave/freq,Total,N2,O2,H2O,Rayleigh,CIA
4.000000000e-01,7.56448e-01,9.99999e-01,9.99999e-01,9.99968e-01,7.56472e-01,9.99999e-01
4.020000000e-01,7.60643e-01,9.99999e-01,9.99999e-01,9.99979e-01,7.60658e-01,9.99999e-01
4.040100000e-01,7.64773e-01,9.99999e-01,9.99999e-01,9.99991e-01,7.64779e-01,9.99999e-01
4.060300500e-01,7.68839e-01,9.99999e-01,9.99999e-01,9.99997e-01,7.68841e-01,9.99999e-01
4.080602003e-01,7.72843e-01,9.99999e-01,9.99999e-01,9.99998e-01,7.72843e-01,9.99999e-01
4.101005013e-01,7.76787e-01,9.99999e-01,9.99999e-01,9.99999e-01,7.76787e-01,9.99999e-01
4.121510038e-01,7.80671e-01,9.99999e-01,9.99999e-01,9.99998e-01,7.80672e-01,9.99999e-01
4.142117588e-01,7.84493e-01,9.99999e-01,9.99999e-01,9.99990e-01,7.84500e-01,9.99999e-01
4.162828176e-01,7.88239e-01,9.99999e-01,9.99999e-01,9.99960e-01,7.88270e-01,9.99999e-01
4.183642317e-01,7.91964e-01,9.99999e-01,9.99999e-01,9.99976e-01,7.91983e-01,9.99999e-01
4.204560528e-01,7.95628e-01,9.99999e-01,9.99999e-01,9.99985e-01,7.95640e-01,9.99999e-01
4.225583331e-01,7.99236e-01,9.99999e-01,9.99999e-01,9.99994e-01,7.99240e-01,9.99999e-01
4.246711247e-01,8.02783e-01,9.99999e-01,9.99999e-01,9.99995e-01,8.02786e-01,9.99999e-01
4.267944804e-01,8.06272e-01,9.99999e-01,9.99999e-01,9.99993e-01,8.06277e-01,9.99999e-01
4.289284528e-01,8.09709e-01,9.99999e-01,9.99999e-01,9.99994e-01,8.09713e-01,9.99999e-01
4.310730950e-01,8.13095e-01,9.99999e-01,9.99999e-01,9.99997e-01,8.13096e-01,9.99999e-01
4.332284605e-01,8.16426e-01,9.99999e-01,9.99999e-01,9.99998e-01,8.16426e-01,9.99999e-01
4.353946028e-01,8.19703e-01,9.99999e-01,9.99999e-01,9.99999e-01,8.19703e-01,9.99999e-01
4.375715758e-01,8.22926e-01,9.99999e-01,9.99999e-01,9.99995e-01,8.22929e-01,9.99999e-01
4.397594337e-01,8.26075e-01,9.99999e-01,9.99999e-01,9.99965e-01,8.26103e-01,9.99999e-01
4.419582309e-01,8.29083e-01,9.99999e-01,9.99999e-01,9.99827e-01,8.29226e-01,9.99999e-01
4.441680220e-01,8.32185e-01,9.99999e-01,9.99999e-01,9.99863e-01,8.32299e-01,9.99999e-01
4.463888621e-01,8.35204e-01,9.99999e-01,9.99999e-01,9.99858e-01,8.35322e-01,9.99999e-01
4.486208064e-01,8.38222e-01,9.99999e-01,9.99999e-01,9.99911e-01,8.38296e-01,9.99999e-01
4.508639105e-01,8.41187e-01,9.99999e-01,9.99999e-01,9.99958e-01,8.41222e-01,9.99999e-01
4.531182300e-01,8.44086e-01,9.99999e-01,9.99999e-01,9.99983e-01,8.44100e-01,9.99999e-01
4.553838212e-01,8.46921e-01,9.99999e-01,9.99999e-01,9.99988e-01,8.46930e-01,9.99999e-01
4.576607403e-01,8.49710e-01,9.99999e-01,9.99999e-01,9.99994e-01,8.49714e-01,9.99999e-01
4.599490440e-01,8.52449e-01,9.99999e-01,9.99999e-01,9.99995e-01,8.52452e-01,9.99999e-01
4.622487892e-01,8.55144e-01,9.99999e-01,9.99999e-01,9.99998e-01,8.55144e-01,9.99999e-01
4.645600332e-01,8.57789e-01,9.99999e-01,9.99999e-01,9.99997e-01,8.57791e-01,9.99999e-01
4.668828333e-01,8.60359e-01,9.99999e-01,9.99999e-01,9.99958e-01,8.60394e-01,9.99999e-01
4.692172475e-01,8.62877e-01,9.99999e-01,9.99999e-01,9.99910e-01,8.62954e-01,9.99999e-01
4.715633337e-01,8.65420e-01,9.99999e-01,9.99999e-01,9.99941e-01,8.65470e-01,9.99999e-01
4.739211504e-01,8.67895e-01,9.99999e-01,9.99999e-01,9.99943e-01,8.67943e-01,9.99999e-01
4.762907561e-01,8.70349e-01,9.99999e-01,9.99999e-01,9.99970e-01,8.70375e-01,9.99999e-01
4.786722099e-01,8.72754e-01,9.99999e-01,9.99999e-01,9.99987e-01,8.72765e-01,9.99999e-01
4.810655710e-01,8.75111e-01,9.99999e-01,9.99999e-01,9.99995e-01,8.75114e-01,9.99999e-01
4.834708988e-01,8.77393e-01,9.99999e-01,9.99999e-01,9.99966e-01,8.77423e-01,9.99999e-01
4.858882533e-01,8.79637e-01,9.99999e-01,9.99999e-01,9.99936e-01,8.79692e-01,9.99999e-01
4.883176946e-01,8.81876e-01,9.99999e-01,9.99999e-01,9.99947e-01,8.81922e-01,9.99999e-01
4.907592831e-01,8.84072e-01,9.99999e-01,9.99999e-01,9.99951e-01,8.84114e-01,9.99999e-01
4.932130795e-01,8.86237e-01,9.99999e-01,9.99999e-01,9.99965e-01,8.86267e-01,9.99999e-01
4.956791449e-01,8.88368e-01,9.99999e-01,9.99999e-01,9.99981e-01,8.88383e-01,9.99999e-01
4.981575406e-01,8.90384e-01,9.99999e-01,9.99999e-01,9.99910e-01,8.90463e-01,9.99999e-01
5.006483283e-01,8.92300e-01,9.99999e-01,9.99999e-01,9.99770e-01,8.92506e-01,9.99997e-01
5.031515699e-01,8.93456e-01,9.99999e-01,9.99999e-01,9.98830e-01,8.94513e-01,9.99987e-01
5.056673278e-01,8.95918e-01,9.99999e-01,9.99999e-01,9.99381e-01,8.96484e-01,9.99985e-01
5.081956644e-01,8.97713e-01,9.99999e-01,9.99999e-01,9.99219e-01,8.98421e-01,9.99990e-01
5.107366428e-01,8.99848e-01,9.99999e-01,9.99999e-01,9.99472e-01,9.00324e-01,9.99997e-01
5.132903260e-01,9.01921e-01,9.99999e-01,9.99999e-01,9.99697e-01,9.02194e-01,9.99999e-01
5.158567776e-01,9.03914e-01,9.99999e-01,9.99999e-01,9.99872e-01,9.04030e-01,9.99999e-01
5.184360615e-01,9.05787e-01,9.99999e-01,9.99999e-01,9.99948e-01,9.05833e-01,9.99999e-01
5.210282418e-01,9.07587e-01,9.99999e-01,9.99999e-01,9.99980e-01,9.07604e-01,9.99999e-01
5.236333830e-01,9.09274e-01,9.99999e-01,9.99999e-01,9.99923e-01,9.09344e-01,9.99998e-01
5.262515499e-01,9.11008e-01,9.99999e-01,9.99999e-01,9.99951e-01,9.11052e-01,9.99998e-01
5.288828077e-01,9.12690e-01,9.99999e-01,9.99999e-01,9.99955e-01,9.12730e-01,9.99999e-01
5.315272217e-01,9.14343e-01,9.99999e-01,9.99999e-01,9.99960e-01,9.14378e-01,9.99999e-01
5.341848578e-01,9.15973e-01,9.99999e-01,9.99999e-01,9.99974e-01,9.15996e-01,9.99999e-01
5.368557821e-01,9.17504e-01,9.99999e-01,9.99999e-01,9.99911e-01,9.17585e-01,9.99999e-01
5.395400610e-01,9.18851e-01,9.99999e-01,9.99999e-01,9.99681e-01,9.19145e-01,9.99996e-01
5.422377613e-01,9.20288e-01,9.99999e-01,9.99999e-01,9.99584e-01,9.20677e-01,9.99992e-01
5.449489501e-01,9.21820e-01,9.99999e-01,9.99999e-01,9.99615e-01,9.22181e-01,9.99991e-01
5.476736949e-01,9.23339e-01,9.99999e-01,9.99999e-01,9.99657e-01,9.23658e-01,9.99995e-01
5.504120634e-01,9.24878e-01,9.99999e-01,9.99999e-01,9.99751e-01,9.25108e-01,9.99998e-01
5.531641237e-01,9.26416e-01,9.99999e-01,9.99999e-01,9.99874e-01,9.26532e-01,9.99999e-01
5.559299443e-01,9.27873e-01,9.99999e-01,9.99999e-01,9.99939e-01,9.27929e-01,9.99999e-01
5.587095940e-01,9.29266e-01,9.99999e-01,9.99999e-01,9.99961e-01,9.29301e-01,9.99999e-01
5.615031420e-01,9.30609e-01,9.99999e-01,9.99999e-01,9.99957e-01,9.30648e-01,9.99999e-01
5.643106577e-01,9.31926e-01,9.99999e-01,9.99999e-01,9.99952e-01,9.31970e-01,9.99999e-01
5.671322110e-01,9.32730e-01,9.99999e-01,9.99999e-01,9.99428e-01,9.33268e-01,9.99994e-01
5.699678720e-01,9.33949e-01,9.99999e-01,9.99999e-01,9.99380e-01,9.34542e-01,9.99983e-01
5.728177114e-01,9.35182e-01,9.99999e-01,9.99999e-01,9.99359e-01,9.35793e-01,9.99986e-01
5.756818000e-01,9.36462e-01,9.99999e-01,9.99999e-01,9.99411e-01,9.37020e-01,9.99991e-01
5.785602090e-01,9.37741e-01,9.99999e-01,9.99999e-01,9.99486e-01,9.38225e-01,9.99997e-01
5.814530100e-01,9.38923e-01,9.99999e-01,9.99999e-01,9.99484e-01,9.39407e-01,9.99998e-01
5.843602750e-01,9.39991e-01,9.99999e-01,9.99999e-01,9.99389e-01,9.40568e-01,9.99996e-01
5.872820764e-01,9.36721e-01,9.99999e-01,9.99999e-01,9.94741e-01,9.41707e-01,9.99962e-01
5.902184868e-01,9.36687e-01,9.99999e-01,9.99999e-01,9.93590e-01,9.42825e-01,9.99898e-01
5.931695792e-01,9.39562e-01,9.99999e-01,9.99999e-01,9.95478e-01,9.43922e-01,9.99900e-01
5.961354271e-01,9.40253e-01,9.99999e-01,9.99999e-01,9.95036e-01,9.44998e-01,9.99939e-01
5.991161043e-01,9.42610e-01,9.99999e-01,9.99999e-01,9.96375e-01,9.46055e-01,9.99982e-01
6.021116848e-01,9.45140e-01,9.99999e-01,9.99999e-01,9.97940e-01,9.47092e-01,9.99997e-01
6.051222432e-01,9.47121e-01,9.99999e-01,9.99999e-01,9.98957e-01,9.48109e-01,9.99999e-01
6.081478544e-01,9.48681e-01,9.99999e-01,9.99999e-01,9.99550e-01,9.49108e-01,9.99999e-01
6.111885937e-01,9.49906e-01,9.99999e-01,9.99999e-01,9.99809e-01,9.50087e-01,9.99999e-01
6.142445367e-01,9.50968e-01,9.99999e-01,9.99999e-01,9.99914e-01,9.51049e-01,9.99999e-01
6.173157594e-01,9.51947e-01,9.99999e-01,9.99999e-01,9.99952e-01,9.51992e-01,9.99999e-01
6.204023382e-01,9.52880e-01,9.99999e-01,9.99999e-01,9.99960e-01,9.52918e-01,9.99999e-01
6.235043498e-01,9.53661e-01,9.99999e-01,9.99999e-01,9.99827e-01,9.53826e-01,9.99999e-01
6.266218716e-01,9.53831e-01,9.99999e-01,9.99999e-01,9.99077e-01,9.54717e-01,9.99993e-01
6.297549810e-01,9.55256e-01,9.99999e-01,9.99999e-01,9.99661e-01,9.55591e-01,9.99986e-01
6.329037559e-01,9.55799e-01,9.99999e-01,9.99999e-01,9.99330e-01,9.56449e-01,9.99989e-01
6.360682746e-01,9.56741e-01,9.99999e-01,9.99999e-01,9.99431e-01,9.57290e-01,9.99993e-01
6.392486160e-01,9.57407e-01,9.99999e-01,9.99999e-01,9.99261e-01,9.58116e-01,9.99996e-01
6.424448591e-01,9.57981e-01,9.99999e-01,9.99999e-01,9.99018e-01,9.58926e-01,9.99995e-01
6.456570834e-01,9.55326e-01,9.99999e-01,9.99999e-01,9.95445e-01,9.59721e-01,9.99974e-01
6.488853688e-01,9.56655e-01,9.99999e-01,9.99999e-01,9.96066e-01,9.60501e-01,9.99928e-01
6.521297956e-01,9.57916e-01,9.99999e-01,9.99999e-01,9.96574e-01,9.61265e-01,9.99939e-01
6.553904446e-01,9.58718e-01,9.99999e-01,9.99999e-01,9.96615e-01,9.62016e-01,9.99954e-01
6.586673968e-01,9.59926e-01,9.99999e-01,9.99999e-01,9.97078e-01,9.62752e-01,9.99984e-01
6.619607338e-01,9.61844e-01,9.99999e-01,9.99999e-01,9.98310e-01,9.63474e-01,9.99996e-01
6.652705375e-01,9.63236e-01,9.99999e-01,9.99999e-01,9.99019e-01,9.64182e-01,9.99997e-01
6.685968902e-01,9.64438e-01,9.99999e-01,9.99999e-01,9.99544e-01,9.64877e-01,9.99999e-01
6.719398746e-01,9.65355e-01,9.99999e-01,9.99999e-01,9.99788e-01,9.65559e-01,9.99999e-01
6.752995740e-01,9.66118e-01,9.99999e-01,9.99999e-01,9.99885e-01,9.66228e-01,9.99999e-01
6.786760719e-01,9.66725e-01,9.99999e-01,9.99999e-01,9.99835e-01,9.66884e-01,9.99999e-01
6.820694522e-01,9.67254e-01,9.99999e-01,9.99999e-01,9.99718e-01,9.67527e-01,9.99998e-01
6.854797995e-01,9.67804e-01,9.99999e-01,9.99999e-01,9.99637e-01,9.68158e-01,9.99996e-01
6.889071985e-01,9.67929e-01,9.99999e-01,9.99999e-01,9.99131e-01,9.68777e-01,9.99991e-01
6.923517345e-01,9.55549e-01,9.99999e-01,9.99999e-01,9.85795e-01,9.69384e-01,9.99930e-01
6.958134932e-01,9.62547e-01,9.99999e-01,9.99999e-01,9.92490e-01,9.69980e-01,9.99844e-01
6.992925606e-01,9.63598e-01,9.99999e-01,9.99999e-01,9.92957e-01,9.70564e-01,9.99863e-01
7.027890234e-01,9.62553e-01,9.99999e-01,9.99999e-01,9.91263e-01,9.71137e-01,9.99894e-01
7.063029686e-01,9.64512e-01,9.99999e-01,9.99999e-01,9.92655e-01,9.71699e-01,9.99947e-01
7.098344834e-01,9.65368e-01,9.99999e-01,9.99999e-01,9.92951e-01,9.72250e-01,9.99968e-01
7.133836558e-01,9.63683e-01,9.99999e-01,9.99999e-01,9.90697e-01,9.72790e-01,9.99938e-01
7.169505741e-01,9.02166e-01,9.99999e-01,9.99999e-01,9.27340e-01,9.73321e-01,9.99517e-01
7.205353270e-01,9.37316e-01,9.99999e-01,9.99999e-01,9.63312e-01,9.73841e-01,9.99149e-01
7.241380036e-01,9.28924e-01,9.99999e-01,9.99999e-01,9.54077e-01,9.74351e-01,9.99265e-01
7.277586936e-01,9.33779e-01,9.99999e-01,9.99999e-01,9.58443e-01,9.74851e-01,9.99399e-01
7.313974871e-01,9.31833e-01,9.99999e-01,9.99999e-01,9.55659e-01,9.75341e-01,9.99718e-01
7.350544745e-01,9.51884e-01,9.99999e-01,9.99999e-01,9.75563e-01,9.75823e-01,9.99901e-01
7.387297469e-01,9.58630e-01,9.99999e-01,9.99999e-01,9.81950e-01,9.76294e-01,9.99954e-01
7.424233956e-01,9.68072e-01,9.99999e-01,9.99999e-01,9.91115e-01,9.76757e-01,9.99990e-01
7.461355126e-01,9.71947e-01,9.99999e-01,9.99999e-01,9.94614e-01,9.77211e-01,9.99997e-01
7.498661902e-01,9.75197e-01,9.99999e-01,9.99999e-01,9.97484e-01,9.77656e-01,9.99998e-01
7.536155211e-01,9.76888e-01,9.99999e-01,9.99999e-01,9.98768e-01,9.78092e-01,9.99999e-01
7.573835987e-01,9.77900e-01,9.99999e-01,9.99999e-01,9.99365e-01,9.78521e-01,9.99999e-01
7.611705167e-01,9.78555e-01,9.99999e-01,9.99999e-01,9.99605e-01,9.78940e-01,9.99999e-01
7.649763693e-01,9.79110e-01,9.99999e-01,9.99999e-01,9.99752e-01,9.79352e-01,9.99999e-01
7.688012511e-01,9.79587e-01,9.99999e-01,9.99999e-01,9.99827e-01,9.79756e-01,9.99999e-01
7.726452574e-01,9.80013e-01,9.99999e-01,9.99999e-01,9.99858e-01,9.80151e-01,9.99999e-01
7.765084837e-01,9.80344e-01,9.99999e-01,9.99999e-01,9.99800e-01,9.80540e-01,9.99999e-01
7.803910261e-01,9.80074e-01,9.99999e-01,9.99999e-01,9.99138e-01,9.80920e-01,9.99998e-01
7.842929812e-01,9.78339e-01,9.99999e-01,9.99999e-01,9.96994e-01,9.81294e-01,9.99993e-01
7.882144461e-01,9.75516e-01,9.99999e-01,9.99999e-01,9.93779e-01,9.81660e-01,9.99961e-01
7.921555184e-01,9.78582e-01,9.99999e-01,9.99999e-01,9.96573e-01,9.82019e-01,9.99925e-01
7.961162960e-01,9.76403e-01,9.99999e-01,9.99999e-01,9.93994e-01,9.82371e-01,9.99928e-01
8.000968774e-01,9.75803e-01,9.99999e-01,9.99999e-01,9.93039e-01,9.82716e-01,9.99924e-01
8.040973618e-01,9.76158e-01,9.99999e-01,9.99999e-01,9.93043e-01,9.83054e-01,9.99939e-01
8.081178486e-01,9.68045e-01,9.99999e-01,9.99999e-01,9.84454e-01,9.83386e-01,9.99943e-01
8.121584379e-01,9.21243e-01,9.99999e-01,9.99999e-01,9.36703e-01,9.83712e-01,9.99779e-01
8.162192301e-01,9.09315e-01,9.99999e-01,9.99999e-01,9.24835e-01,9.84031e-01,9.99172e-01
8.203003262e-01,9.46406e-01,9.99999e-01,9.99999e-01,9.62389e-01,9.84344e-01,9.99031e-01
8.244018279e-01,9.31794e-01,9.99999e-01,9.99999e-01,9.47049e-01,9.84651e-01,9.99228e-01
8.285238370e-01,9.39678e-01,9.99999e-01,9.99999e-01,9.54612e-01,9.84951e-01,9.99394e-01
8.326664562e-01,9.39707e-01,9.99999e-01,9.99999e-01,9.54016e-01,9.85246e-01,9.99749e-01
8.368297885e-01,9.52841e-01,9.99999e-01,9.99999e-01,9.66880e-01,9.85536e-01,9.99942e-01
8.410139374e-01,9.66253e-01,9.99999e-01,9.99999e-01,9.80184e-01,9.85819e-01,9.99966e-01
8.452190071e-01,9.76443e-01,9.99999e-01,9.99999e-01,9.90228e-01,9.86098e-01,9.99979e-01
8.494451021e-01,9.80767e-01,9.99999e-01,9.99999e-01,9.94334e-01,9.86370e-01,9.99983e-01
8.536923276e-01,9.83312e-01,9.99999e-01,9.99999e-01,9.96638e-01,9.86638e-01,9.99988e-01
8.579607893e-01,9.84858e-01,9.99999e-01,9.99999e-01,9.97933e-01,9.86900e-01,9.99996e-01
8.622505932e-01,9.85859e-01,9.99999e-01,9.99999e-01,9.98684e-01,9.87157e-01,9.99999e-01
8.665618462e-01,9.86608e-01,9.99999e-01,9.99999e-01,9.99188e-01,9.87409e-01,9.99999e-01
8.708946554e-01,9.86740e-01,9.99999e-01,9.99999e-01,9.99071e-01,9.87656e-01,9.99998e-01
8.752491287e-01,9.86671e-01,9.99999e-01,9.99999e-01,9.98757e-01,9.87898e-01,9.99998e-01
8.796253743e-01,9.86437e-01,9.99999e-01,9.99999e-01,9.98283e-01,9.88136e-01,9.99995e-01
8.840235012e-01,9.86419e-01,9.99999e-01,9.99999e-01,9.98038e-01,9.88369e-01,9.99987e-01
8.884436187e-01,9.81590e-01,9.99999e-01,9.99999e-01,9.92944e-01,9.88597e-01,9.99965e-01
8.928858368e-01,9.17057e-01,9.99999e-01,9.99999e-01,9.27605e-01,9.88821e-01,9.99803e-01
8.973502660e-01,8.64388e-01,9.99999e-01,9.99999e-01,8.74845e-01,9.89041e-01,9.98993e-01
9.018370173e-01,9.22230e-01,9.99999e-01,9.99999e-01,9.33721e-01,9.89256e-01,9.98418e-01
9.063462024e-01,9.30780e-01,9.99999e-01,9.99999e-01,9.41996e-01,9.89467e-01,9.98610e-01
9.108779334e-01,9.00028e-01,9.99999e-01,9.99999e-01,9.10732e-01,9.89674e-01,9.98556e-01
9.154323231e-01,8.88869e-01,9.99999e-01,9.99999e-01,8.99030e-01,9.89877e-01,9.98806e-01
9.200094847e-01,9.10206e-01,9.99999e-01,9.99999e-01,9.19942e-01,9.90076e-01,9.99331e-01
9.246095321e-01,8.70891e-01,9.99999e-01,9.99999e-01,8.80124e-01,9.90271e-01,9.99230e-01
9.292325798e-01,4.23457e-01,9.99999e-01,9.99999e-01,4.28820e-01,9.90462e-01,9.97001e-01
9.338787427e-01,3.27014e-01,9.99999e-01,9.99999e-01,3.34223e-01,9.90650e-01,9.87665e-01
9.385481364e-01,6.26224e-01,9.99999e-01,9.99999e-01,6.41415e-01,9.90834e-01,9.85346e-01
9.432408771e-01,5.34328e-01,9.99999e-01,9.99999e-01,5.46083e-01,9.91014e-01,9.87345e-01
9.479570815e-01,4.28122e-01,9.99999e-01,9.99999e-01,4.36426e-01,9.91191e-01,9.89688e-01
9.526968669e-01,5.22926e-01,9.99999e-01,9.99999e-01,5.30826e-01,9.91364e-01,9.93697e-01
9.574603512e-01,5.46688e-01,9.99999e-01,9.99999e-01,5.53129e-01,9.91534e-01,9.96793e-01
9.622476530e-01,6.08868e-01,9.99999e-01,9.99999e-01,6.15328e-01,9.91700e-01,9.97781e-01
9.670588912e-01,7.48205e-01,9.99999e-01,9.99999e-01,7.55488e-01,9.91863e-01,9.98482e-01
9.718941857e-01,8.30725e-01,9.99999e-01,9.99999e-01,8.38341e-01,9.92023e-01,9.98882e-01
9.767536566e-01,8.56324e-01,9.99999e-01,9.99999e-01,8.63809e-01,9.92180e-01,9.99145e-01
9.816374249e-01,8.89774e-01,9.99999e-01,9.99999e-01,8.96912e-01,9.92334e-01,9.99703e-01
9.865456120e-01,9.27154e-01,9.99999e-01,9.99999e-01,9.34231e-01,9.92485e-01,9.99937e-01
9.914783401e-01,9.51744e-01,9.99999e-01,9.99999e-01,9.58823e-01,9.92633e-01,9.99982e-01
9.964357318e-01,9.70292e-01,9.99999e-01,9.99999e-01,9.77359e-01,9.92778e-01,9.99989e-01
1.001417910e+00,9.79369e-01,9.99999e-01,9.99999e-01,9.86366e-01,9.92920e-01,9.99984e-01
1.006425000e+00,9.85310e-01,9.99999e-01,9.99999e-01,9.92217e-01,9.93059e-01,9.99977e-01
1.011457125e+00,9.88364e-01,9.99999e-01,9.99999e-01,9.95154e-01,9.93196e-01,9.99979e-01
1.016514411e+00,9.90050e-01,9.99999e-01,9.99999e-01,9.96711e-01,9.93330e-01,9.99985e-01
1.021596983e+00,9.90845e-01,9.99999e-01,9.99999e-01,9.97380e-01,9.93461e-01,9.99985e-01
1.026704968e+00,9.91551e-01,9.99999e-01,9.99999e-01,9.97957e-01,9.93590e-01,9.99989e-01
1.031838492e+00,9.92236e-01,9.99999e-01,9.99999e-01,9.98512e-01,9.93716e-01,9.99996e-01
1.036997685e+00,9.92963e-01,9.99999e-01,9.99999e-01,9.99117e-01,9.93840e-01,9.99999e-01
1.042182673e+00,9.92918e-01,9.99999e-01,9.99999e-01,9.98950e-01,9.93961e-01,9.99999e-01
1.047393587e+00,9.92695e-01,9.99999e-01,9.99999e-01,9.98606e-01,9.94080e-01,9.99999e-01
1.052630555e+00,9.92298e-01,9.99999e-01,9.99999e-01,9.98090e-01,9.94197e-01,9.99999e-01
1.057893707e+00,9.91145e-01,9.99999e-01,9.99999e-01,9.96816e-01,9.94311e-01,9.99998e-01
1.063183176e+00,9.89212e-01,9.99999e-01,9.99999e-01,9.94762e-01,9.94423e-01,9.99996e-01
1.068499092e+00,9.85811e-01,9.99999e-01,9.99999e-01,9.91235e-01,9.94533e-01,9.99993e-01
1.073841587e+00,9.84447e-01,9.99999e-01,9.99999e-01,9.89763e-01,9.94640e-01,9.99986e-01
1.079210795e+00,9.81650e-01,9.99999e-01,9.99999e-01,9.86869e-01,9.94746e-01,9.99964e-01
1.084606849e+00,9.75082e-01,9.99999e-01,9.99999e-01,9.80212e-01,9.94850e-01,9.99914e-01
1.090029883e+00,9.66732e-01,9.99999e-01,9.99999e-01,9.71808e-01,9.94951e-01,9.99824e-01
1.095480033e+00,9.20082e-01,9.99999e-01,9.99999e-01,9.24951e-01,9.95050e-01,9.99682e-01
1.100957433e+00,8.16163e-01,9.99999e-01,9.99999e-01,8.20620e-01,9.95148e-01,9.99416e-01
1.106462220e+00,6.05285e-01,9.99999e-01,9.99999e-01,6.08779e-01,9.95244e-01,9.99009e-01
1.111994531e+00,3.52034e-01,9.99999e-01,9.99999e-01,3.54614e-01,9.95337e-01,9.97374e-01
1.117554504e+00,1.87566e-01,9.99999e-01,9.99999e-01,1.90224e-01,9.95429e-01,9.90555e-01
1.123142276e+00,2.96531e-01,9.99999e-01,9.99999e-01,3.04645e-01,9.95519e-01,9.77748e-01
1.128757988e+00,4.44052e-01,9.99999e-01,9.99999e-01,4.57774e-01,9.95607e-01,9.74303e-01
1.134401778e+00,2.20555e-01,9.99999e-01,9.99999e-01,2.26466e-01,9.95694e-01,9.78107e-01
1.140073787e+00,6.08873e-01,9.99999e-01,9.99999e-01,6.22364e-01,9.95779e-01,9.82469e-01
1.145774156e+00,3.71399e-01,9.99999e-01,9.99999e-01,3.79029e-01,9.95862e-01,9.83941e-01
1.151503026e+00,3.37778e-01,9.99999e-01,9.99999e-01,3.42226e-01,9.95944e-01,9.91021e-01
1.157260541e+00,3.95899e-01,9.99999e-01,9.99999e-01,3.98552e-01,9.96024e-01,9.97306e-01
1.163046844e+00,5.02296e-01,9.99999e-01,9.99999e-01,5.04647e-01,9.96102e-01,9.99235e-01
1.168862078e+00,6.16232e-01,9.99999e-01,9.99999e-01,6.18839e-01,9.96179e-01,9.99605e-01
1.174706389e+00,7.40393e-01,9.99999e-01,9.99999e-01,7.43564e-01,9.96254e-01,9.99477e-01
1.180579921e+00,8.30880e-01,9.99999e-01,9.99999e-01,8.34600e-01,9.96328e-01,9.99210e-01
1.186482820e+00,8.98794e-01,9.99999e-01,9.99999e-01,9.02771e-01,9.96400e-01,9.99189e-01
1.192415234e+00,9.38164e-01,9.99999e-01,9.99999e-01,9.42057e-01,9.96471e-01,9.99393e-01
1.198377311e+00,9.47169e-01,9.99999e-01,9.99999e-01,9.51001e-01,9.96541e-01,9.99426e-01
1.204369197e+00,9.49853e-01,9.99999e-01,9.99999e-01,9.53578e-01,9.96609e-01,9.99481e-01
1.210391043e+00,9.52059e-01,9.99999e-01,9.99999e-01,9.55535e-01,9.96676e-01,9.99684e-01
1.216442998e+00,9.58678e-01,9.99999e-01,9.99999e-01,9.61997e-01,9.96741e-01,9.99806e-01
1.222525213e+00,9.67081e-01,9.99999e-01,9.99999e-01,9.70295e-01,9.96806e-01,9.99879e-01
1.228637839e+00,9.76169e-01,9.99999e-01,9.99999e-01,9.79289e-01,9.96869e-01,9.99943e-01
