#,Wave/freq,Total,N2,O2,H2O,Rayleigh,CIA
4.000000000e-01,3.04138e-02,9.99999e-01,9.99999e-01,9.99606e-01,3.04258e-02,9.99999e-01
4.020000000e-01,3.25931e-02,9.99999e-01,9.99999e-01,9.99755e-01,3.26011e-02,9.99999e-01
4.040100000e-01,3.48782e-02,9.99999e-01,9.99999e-01,9.99896e-01,3.48818e-02,9.99999e-01
4.060300500e-01,3.72714e-02,9.99999e-01,9.99999e-01,9.99975e-01,3.72723e-02,9.99999e-01
4.080602003e-01,3.97742e-02,9.99999e-01,9.99999e-01,9.99991e-01,3.97745e-02,9.99999e-01
4.101005013e-01,4.23903e-02,9.99999e-01,9.99999e-01,9.99998e-01,4.23903e-02,9.99999e-01
4.121510038e-01,4.51206e-02,9.99999e-01,9.99999e-01,9.99985e-01,4.51213e-02,9.99999e-01
4.142117588e-01,4.79638e-02,9.99999e-01,9.99999e-01,9.99890e-01,4.79690e-02,9.99999e-01
4.162828176e-01,5.09100e-02,9.99999e-01,9.99999e-01,9.99511e-01,5.09348e-02,9.99999e-01
4.183642317e-01,5.40043e-02,9.99999e-01,9.99999e-01,9.99709e-01,5.40200e-02,9.99999e-01
4.204560528e-01,5.72153e-02,9.99999e-01,9.99999e-01,9.99821e-01,5.72255e-02,9.99999e-01
4.225583331e-01,6.05482e-02,9.99999e-01,9.99999e-01,9.99933e-01,6.05523e-02,9.99999e-01
4.246711247e-01,6.39975e-02,9.99999e-01,9.99999e-01,9.99946e-01,6.40009e-02,9.99999e-01
4.267944804e-01,6.75668e-02,9.99999e-01,9.99999e-01,9.99921e-01,6.75720e-02,9.99999e-01
4.289284528e-01,7.12616e-02,9.99999e-01,9.99999e-01,9.99939e-01,7.12659e-02,9.99999e-01
4.310730950e-01,7.50809e-02,9.99999e-01,9.99999e-01,9.99974e-01,7.50828e-02,9.99999e-01
4.332284605e-01,7.90221e-02,9.99999e-01,9.99999e-01,9.99992e-01,7.90226e-02,9.99999e-01
4.353946028e-01,8.30849e-02,9.99999e-01,9.99999e-01,9.99996e-01,8.30852e-02,9.99999e-01
4.375715758e-01,8.72659e-02,9.99999e-01,9.99999e-01,9.99951e-01,8.72701e-02,9.99999e-01
4.397594337e-01,9.15377e-02,9.99999e-01,9.99999e-01,9.99570e-01,9.15769e-02,9.99999e-01
4.419582309e-01,9.57958e-02,9.99999e-01,9.99999e-01,9.97821e-01,9.60049e-02,9.99999e-01
4.441680220e-01,1.00383e-01,9.99999e-01,9.99999e-01,9.98304e-01,1.00553e-01,9.99999e-01
4.463888621e-01,1.05035e-01,9.99999e-01,9.99999e-01,9.98233e-01,1.05221e-01,9.99999e-01
4.486208064e-01,1.09885e-01,9.99999e-01,9.99999e-01,9.98903e-01,1.10006e-01,9.99999e-01
4.508639105e-01,1.14849e-01,9.99999e-01,9.99999e-01,9.99486e-01,1.14908e-01,9.99999e-01
4.531182300e-01,1.19901e-01,9.99999e-01,9.99999e-01,9.99797e-01,1.19925e-01,9.99999e-01
4.553838212e-01,1.25039e-01,9.99999e-01,9.99999e-01,9.99861e-01,1.25056e-01,9.99999e-01
4.576607403e-01,1.30290e-01,9.99999e-01,9.99999e-01,9.99936e-01,1.30299e-01,9.99999e-01
4.599490440e-01,1.35645e-01,9.99999e-01,9.99999e-01,9.99954e-01,1.35651e-01,9.99999e-01
4.622487892e-01,1.41109e-01,9.99999e-01,9.99999e-01,9.99991e-01,1.41110e-01,9.99999e-01
4.645600332e-01,1.46671e-01,9.99999e-01,9.99999e-01,9.99968e-01,1.46675e-01,9.99999e-01
4.668828333e-01,1.52264e-01,9.99999e-01,9.99999e-01,9.99480e-01,1.52343e-01,9.99999e-01
4.692172475e-01,1.57937e-01,9.99999e-01,9.99999e-01,9.98891e-01,1.58112e-01,9.99999e-01
4.715633337e-01,1.63860e-01,9.99999e-01,9.99999e-01,9.99275e-01,1.63979e-01,9.99999e-01
4.739211504e-01,1.69823e-01,9.99999e-01,9.99999e-01,9.99306e-01,1.69941e-01,9.99999e-01
4.762907561e-01,1.75932e-01,9.99999e-01,9.99999e-01,9.99640e-01,1.75995e-01,9.99999e-01
4.786722099e-01,1.82113e-01,9.99999e-01,9.99999e-01,9.99852e-01,1.82139e-01,9.99999e-01
4.810655710e-01,1.88362e-01,9.99999e-01,9.99999e-01,9.99955e-01,1.88370e-01,9.99999e-01
4.834708988e-01,1.94602e-01,9.99999e-01,9.99999e-01,9.99573e-01,1.94685e-01,9.99999e-01
4.858882533e-01,2.00923e-01,9.99999e-01,9.99999e-01,9.99215e-01,2.01081e-01,9.99999e-01
4.883176946e-01,2.07417e-01,9.99999e-01,9.99999e-01,9.99342e-01,2.07554e-01,9.99999e-01
4.907592831e-01,2.13974e-01,9.99999e-01,9.99999e-01,9.99406e-01,2.14101e-01,9.99999e-01
4.932130795e-01,2.20627e-01,9.99999e-01,9.99999e-01,9.99578e-01,2.20719e-01,9.99999e-01
4.956791449e-01,2.27355e-01,9.99999e-01,9.99999e-01,9.99777e-01,2.27406e-01,9.99999e-01
4.981575406e-01,2.33896e-01,9.99999e-01,9.99999e-01,9.98885e-01,2.34156e-01,9.99999e-01
5.006483283e-01,2.40268e-01,9.99999e-01,9.99999e-01,9.97112e-01,2.40968e-01,9.99980e-01
5.031515699e-01,2.44205e-01,9.99999e-01,9.99999e-01,9.85492e-01,2.47838e-01,9.99846e-01
5.056673278e-01,2.52758e-01,9.99999e-01,9.99999e-01,9.92307e-01,2.54762e-01,9.99823e-01
5.081956644e-01,2.59169e-01,9.99999e-01,9.99999e-01,9.90301e-01,2.61737e-01,9.99886e-01
5.107366428e-01,2.66992e-01,9.99999e-01,9.99999e-01,9.93444e-01,2.68759e-01,9.99978e-01
5.132903260e-01,2.74791e-01,9.99999e-01,9.99999e-01,9.96249e-01,2.75826e-01,9.99997e-01
5.158567776e-01,2.82485e-01,9.99999e-01,9.99999e-01,9.98415e-01,2.82933e-01,9.99999e-01
5.184360615e-01,2.89894e-01,9.99999e-01,9.99999e-01,9.99365e-01,2.90078e-01,9.99999e-01
5.210282418e-01,2.97186e-01,9.99999e-01,9.99999e-01,9.99762e-01,2.97256e-01,9.99999e-01
5.236333830e-01,3.04173e-01,9.99999e-01,9.99999e-01,9.99046e-01,3.04465e-01,9.99992e-01
5.262515499e-01,3.11513e-01,9.99999e-01,9.99999e-01,9.99402e-01,3.11702e-01,9.99990e-01
5.288828077e-01,3.18786e-01,9.99999e-01,9.99999e-01,9.99451e-01,3.18962e-01,9.99993e-01
5.315272217e-01,3.26086e-01,9.99999e-01,9.99999e-01,9.99519e-01,3.26243e-01,9.99998e-01
5.341848578e-01,3.33437e-01,9.99999e-01,9.99999e-01,9.99684e-01,3.33542e-01,9.99999e-01
5.368557821e-01,3.40475e-01,9.99999e-01,9.99999e-01,9.98888e-01,3.40855e-01,9.99996e-01
5.395400610e-01,3.46772e-01,9.99999e-01,9.99999e-01,9.95992e-01,3.48179e-01,9.99966e-01
5.422377613e-01,3.53640e-01,9.99999e-01,9.99999e-01,9.94831e-01,3.55511e-01,9.99906e-01
5.449489501e-01,3.61066e-01,9.99999e-01,9.99999e-01,9.95186e-01,3.62848e-01,9.99902e-01
5.476736949e-01,3.68594e-01,9.99999e-01,9.99999e-01,9.95742e-01,3.70187e-01,9.99952e-01
5.504120634e-01,3.76353e-01,9.99999e-01,9.99999e-01,9.96908e-01,3.77525e-01,9.99986e-01
5.531641237e-01,3.84260e-01,9.99999e-01,9.99999e-01,9.98444e-01,3.84859e-01,9.99997e-01
5.559299443e-01,3.91893e-01,9.99999e-01,9.99999e-01,9.99249e-01,3.92187e-01,9.99999e-01
5.587095940e-01,3.99317e-01,9.99999e-01,9.99999e-01,9.99528e-01,3.99506e-01,9.99999e-01
5.615031420e-01,4.06598e-01,9.99999e-01,9.99999e-01,9.99474e-01,4.06812e-01,9.99998e-01
5.643106577e-01,4.13855e-01,9.99999e-01,9.99999e-01,9.99403e-01,4.14104e-01,9.99994e-01
5.671322110e-01,4.18312e-01,9.99999e-01,9.99999e-01,9.92785e-01,4.21378e-01,9.99935e-01
5.699678720e-01,4.25272e-01,9.99999e-01,9.99999e-01,9.92352e-01,4.28633e-01,9.99803e-01
5.728177114e-01,4.32313e-01,9.99999e-01,9.99999e-01,9.92009e-01,4.35866e-01,9.99835e-01
5.756818000e-01,4.39782e-01,9.99999e-01,9.99999e-01,9.92667e-01,4.43075e-01,9.99899e-01
5.785602090e-01,4.47366e-01,9.99999e-01,9.99999e-01,9.93610e-01,4.50256e-01,9.99969e-01
5.814530100e-01,4.54466e-01,9.99999e-01,9.99999e-01,9.93579e-01,4.57409e-01,9.99985e-01
5.843602750e-01,4.60957e-01,9.99999e-01,9.99999e-01,9.92348e-01,4.64531e-01,9.99956e-01
5.872820764e-01,4.41558e-01,9.99999e-01,9.99999e-01,9.36693e-01,4.71620e-01,9.99535e-01
5.902184868e-01,4.41320e-01,9.99999e-01,9.99999e-01,9.23131e-01,4.78673e-01,9.98735e-01
5.931695792e-01,4.58615e-01,9.99999e-01,9.99999e-01,9.45402e-01,4.85690e-01,9.98783e-01
5.961354271e-01,4.62809e-01,9.99999e-01,9.99999e-01,9.40050e-01,4.92668e-01,9.99300e-01
5.991161043e-01,4.77418e-01,9.99999e-01,9.99999e-01,9.55795e-01,4.99606e-01,9.99783e-01
6.021116848e-01,4.93659e-01,9.99999e-01,9.99999e-01,9.74669e-01,5.06501e-01,9.99975e-01
6.051222432e-01,5.06729e-01,9.99999e-01,9.99999e-01,9.87099e-01,5.13352e-01,9.99998e-01
6.081478544e-01,5.17253e-01,9.99999e-01,9.99999e-01,9.94414e-01,5.20158e-01,9.99999e-01
6.111885937e-01,5.25671e-01,9.99999e-01,9.99999e-01,9.97634e-01,5.26917e-01,9.99999e-01
6.142445367e-01,5.33064e-01,9.99999e-01,9.99999e-01,9.98942e-01,5.33628e-01,9.99999e-01
6.173157594e-01,5.39974e-01,9.99999e-01,9.99999e-01,9.99416e-01,5.40289e-01,9.99999e-01
6.204023382e-01,5.46629e-01,9.99999e-01,9.99999e-01,9.99505e-01,5.46900e-01,9.99998e-01
6.235043498e-01,5.52249e-01,9.99999e-01,9.99999e-01,9.97820e-01,5.53458e-01,9.99994e-01
6.266218716e-01,5.53500e-01,9.99999e-01,9.99999e-01,9.88536e-01,5.59963e-01,9.99918e-01
6.297549810e-01,5.63934e-01,9.99999e-01,9.99999e-01,9.95781e-01,5.66414e-01,9.99837e-01
6.329037559e-01,5.67967e-01,9.99999e-01,9.99999e-01,9.91674e-01,5.72809e-01,9.99870e-01
6.360682746e-01,5.74994e-01,9.99999e-01,9.99999e-01,9.92902e-01,5.79148e-01,9.99922e-01
6.392486160e-01,5.80032e-01,9.99999e-01,9.99999e-01,9.90811e-01,5.85431e-01,9.99965e-01
6.424448591e-01,5.84357e-01,9.99999e-01,9.99999e-01,9.87719e-01,5.91655e-01,9.99945e-01
6.456570834e-01,5.64450e-01,9.99999e-01,9.99999e-01,9.44479e-01,5.97820e-01,9.99682e-01
6.488853688e-01,5.78773e-01,9.99999e-01,9.99999e-01,9.59201e-01,6.03926e-01,9.99112e-01
6.521297956e-01,5.84260e-01,9.99999e-01,9.99999e-01,9.58548e-01,6.09972e-01,9.99267e-01
6.553904446e-01,5.89980e-01,9.99999e-01,9.99999e-01,9.58348e-01,6.15957e-01,9.99454e-01
6.586673968e-01,5.99599e-01,9.99999e-01,9.99999e-01,9.64345e-01,6.21881e-01,9.99817e-01
6.619607338e-01,6.15110e-01,9.99999e-01,9.99999e-01,9.79913e-01,6.27743e-01,9.99960e-01
6.652705375e-01,6.25858e-01,9.99999e-01,9.99999e-01,9.87887e-01,6.33544e-01,9.99979e-01
6.685968902e-01,6.35671e-01,9.99999e-01,9.99999e-01,9.94356e-01,6.39281e-01,9.99996e-01
6.719398746e-01,6.43268e-01,9.99999e-01,9.99999e-01,9.97383e-01,6.44956e-01,9.99999e-01
6.752995740e-01,6.49643e-01,9.99999e-01,9.99999e-01,9.98579e-01,6.50567e-01,9.99999e-01
6.786760719e-01,6.54766e-01,9.99999e-01,9.99999e-01,9.97946e-01,6.56115e-01,9.99996e-01
6.820694522e-01,6.59264e-01,9.99999e-01,9.99999e-01,9.96487e-01,6.61600e-01,9.99981e-01
6.854797995e-01,6.63973e-01,9.99999e-01,9.99999e-01,9.95470e-01,6.67020e-01,9.99960e-01
6.889071985e-01,6.64974e-01,9.99999e-01,9.99999e-01,9.89086e-01,6.72377e-01,9.99901e-01
6.923517345e-01,5.67649e-01,9.99999e-01,9.99999e-01,8.38367e-01,6.77669e-01,9.99142e-01
6.958134932e-01,6.22289e-01,9.99999e-01,9.99999e-01,9.12981e-01,6.82897e-01,9.98101e-01
6.992925606e-01,6.29065e-01,9.99999e-01,9.99999e-01,9.15823e-01,6.88062e-01,9.98288e-01
7.027890234e-01,6.21064e-01,9.99999e-01,9.99999e-01,8.97158e-01,6.93162e-01,9.98693e-01
7.063029686e-01,6.36602e-01,9.99999e-01,9.99999e-01,9.12371e-01,6.98198e-01,9.99349e-01
7.098344834e-01,6.43592e-01,9.99999e-01,9.99999e-01,9.15624e-01,7.03170e-01,9.99614e-01
7.133836558e-01,6.30084e-01,9.99999e-01,9.99999e-01,8.90531e-01,7.08078e-01,9.99235e-01
7.169505741e-01,3.06404e-01,9.99999e-01,9.99999e-01,4.32380e-01,7.12923e-01,9.93998e-01
7.205353270e-01,4.62455e-01,9.99999e-01,9.99999e-01,6.51232e-01,7.17704e-01,9.89435e-01
7.241380036e-01,4.12260e-01,9.99999e-01,9.99999e-01,5.75920e-01,7.22422e-01,9.90871e-01
7.277586936e-01,4.39279e-01,9.99999e-01,9.99999e-01,6.08717e-01,7.27076e-01,9.92531e-01
7.313974871e-01,4.24698e-01,9.99999e-01,9.99999e-01,5.82492e-01,7.31668e-01,9.96494e-01
7.350544745e-01,5.44591e-01,9.99999e-01,9.99999e-01,7.40637e-01,7.36197e-01,9.98780e-01
7.387297469e-01,5.91761e-01,9.99999e-01,9.99999e-01,7.99406e-01,7.40664e-01,9.99440e-01
7.424233956e-01,6.67176e-01,9.99999e-01,9.99999e-01,8.95551e-01,7.45069e-01,9.99891e-01
7.461355126e-01,7.00814e-01,9.99999e-01,9.99999e-01,9.35167e-01,7.49413e-01,9.99980e-01
7.498661902e-01,7.30513e-01,9.99999e-01,9.99999e-01,9.69248e-01,7.53695e-01,9.99992e-01
7.536155211e-01,7.46376e-01,9.99999e-01,9.99999e-01,9.84777e-01,7.57916e-01,9.99995e-01
7.573835987e-01,7.56084e-01,9.99999e-01,9.99999e-01,9.92135e-01,7.62077e-01,9.99998e-01
7.611705167e-01,7.62430e-01,9.99999e-01,9.99999e-01,9.95106e-01,7.66178e-01,9.99999e-01
7.649763693e-01,7.67855e-01,9.99999e-01,9.99999e-01,9.96929e-01,7.70220e-01,9.99999e-01
7.688012511e-01,7.72546e-01,9.99999e-01,9.99999e-01,9.97860e-01,7.74202e-01,9.99999e-01
7.726452574e-01,7.76755e-01,9.99999e-01,9.99999e-01,9.98239e-01,7.78126e-01,9.99998e-01
7.765084837e-01,7.80031e-01,9.99999e-01,9.99999e-01,9.97495e-01,7.81991e-01,9.99996e-01
7.803910261e-01,7.77322e-01,9.99999e-01,9.99999e-01,9.89222e-01,7.85799e-01,9.99989e-01
7.842929812e-01,7.60264e-01,9.99999e-01,9.99999e-01,9.62975e-01,7.89549e-01,9.99930e-01
7.882144461e-01,7.33553e-01,9.99999e-01,9.99999e-01,9.25244e-01,7.93243e-01,9.99466e-01
7.921555184e-01,7.63013e-01,9.99999e-01,9.99999e-01,9.58387e-01,7.96880e-01,9.99073e-01
7.961162960e-01,7.41924e-01,9.99999e-01,9.99999e-01,9.27686e-01,8.00462e-01,9.99118e-01
8.000968774e-01,7.36141e-01,9.99999e-01,9.99999e-01,9.16469e-01,8.03989e-01,9.99061e-01
8.040973618e-01,7.39571e-01,9.99999e-01,9.99999e-01,9.16603e-01,8.07461e-01,9.99254e-01
8.081178486e-01,6.68303e-01,9.99999e-01,9.99999e-01,8.24746e-01,8.10879e-01,9.99301e-01
8.121584379e-01,3.78608e-01,9.99999e-01,9.99999e-01,4.66260e-01,8.14244e-01,9.97256e-01
8.162192301e-01,3.31821e-01,9.99999e-01,9.99999e-01,4.10084e-01,8.17556e-01,9.89720e-01
8.203003262e-01,5.35100e-01,9.99999e-01,9.99999e-01,6.59848e-01,8.20815e-01,9.87973e-01
8.244018279e-01,4.74192e-01,9.99999e-01,9.99999e-01,5.81027e-01,8.24023e-01,9.90417e-01
8.285238370e-01,4.72150e-01,9.99999e-01,9.99999e-01,5.75127e-01,8.27179e-01,9.92466e-01
8.326664562e-01,4.76040e-01,9.99999e-01,9.99999e-01,5.75140e-01,8.30285e-01,9.96877e-01
8.368297885e-01,5.53394e-01,9.99999e-01,9.99999e-01,6.64541e-01,8.33341e-01,9.99285e-01
8.410139374e-01,6.54072e-01,9.99999e-01,9.99999e-01,7.82384e-01,8.36347e-01,9.99582e-01
8.452190071e-01,7.43177e-01,9.99999e-01,9.99999e-01,8.85688e-01,8.39305e-01,9.99750e-01
8.494451021e-01,7.84504e-01,9.99999e-01,9.99999e-01,9.31664e-01,8.42214e-01,9.99799e-01
8.536923276e-01,8.10354e-01,9.99999e-01,9.99999e-01,9.59029e-01,8.45075e-01,9.99878e-01
8.579607893e-01,8.26282e-01,9.99999e-01,9.99999e-01,9.74543e-01,8.47890e-01,9.99970e-01
8.622505932e-01,8.36834e-01,9.99999e-01,9.99999e-01,9.83753e-01,8.50658e-01,9.99994e-01
8.665618462e-01,8.44771e-01,9.99999e-01,9.99999e-01,9.89914e-01,8.53380e-01,9.99996e-01
8.708946554e-01,8.46168e-01,9.99999e-01,9.99999e-01,9.88454e-01,8.56057e-01,9.99993e-01
8.752491287e-01,8.45437e-01,9.99999e-01,9.99999e-01,9.84583e-01,8.58689e-01,9.99983e-01
8.796253743e-01,8.42906e-01,9.99999e-01,9.99999e-01,9.78716e-01,8.61277e-01,9.99951e-01
8.840235012e-01,8.42747e-01,9.99999e-01,9.99999e-01,9.75749e-01,8.63821e-01,9.99850e-01
8.884436187e-01,7.93850e-01,9.99999e-01,9.99999e-01,9.16733e-01,8.66322e-01,9.99574e-01
8.928858368e-01,3.73946e-01,9.99999e-01,9.99999e-01,4.31483e-01,8.68781e-01,9.97550e-01
8.973502660e-01,1.99580e-01,9.99999e-01,9.99999e-01,2.31984e-01,8.71199e-01,9.87508e-01
9.018370173e-01,4.06021e-01,9.99999e-01,9.99999e-01,4.74058e-01,8.73575e-01,9.80429e-01
9.063462024e-01,4.39379e-01,9.99999e-01,9.99999e-01,5.10411e-01,8.75910e-01,9.82788e-01
9.108779334e-01,3.03798e-01,9.99999e-01,9.99999e-01,3.52227e-01,8.78205e-01,9.82120e-01
9.154323231e-01,2.57128e-01,9.99999e-01,9.99999e-01,2.96424e-01,8.80461e-01,9.85198e-01
9.200094847e-01,3.44494e-01,9.99999e-01,9.99999e-01,3.93553e-01,8.82678e-01,9.91688e-01
9.246095321e-01,2.31542e-01,9.99999e-01,9.99999e-01,2.64200e-01,8.84856e-01,9.90429e-01
9.292325798e-01,4.49213e-03,9.99999e-01,9.99999e-01,5.25795e-03,8.86997e-01,9.63192e-01
9.338787427e-01,9.17630e-05,9.99999e-01,9.99999e-01,1.20517e-04,8.89100e-01,8.56385e-01
9.385481364e-01,1.75760e-02,9.99999e-01,9.99999e-01,2.37160e-02,8.91167e-01,8.31610e-01
9.432408771e-01,6.57838e-03,9.99999e-01,9.99999e-01,8.63490e-03,8.93198e-01,8.52930e-01
9.479570815e-01,4.25718e-04,9.99999e-01,9.99999e-01,5.41292e-04,8.95193e-01,8.78563e-01
9.526968669e-01,2.17514e-03,9.99999e-01,9.99999e-01,2.62371e-03,8.97152e-01,9.24070e-01
9.574603512e-01,3.25529e-03,9.99999e-01,9.99999e-01,3.76888e-03,8.99078e-01,9.60681e-01
9.622476530e-01,8.45576e-03,9.99999e-01,9.99999e-01,9.64913e-03,9.00969e-01,9.72644e-01
9.670588912e-01,5.57487e-02,9.99999e-01,9.99999e-01,6.29315e-02,9.02827e-01,9.81210e-01
9.718941857e-01,1.19508e-01,9.99999e-01,9.99999e-01,1.33962e-01,9.04652e-01,9.86133e-01
9.767536566e-01,1.68042e-01,9.99999e-01,9.99999e-01,1.87374e-01,9.06444e-01,9.89385e-01
9.816374249e-01,2.49627e-01,9.99999e-01,9.99999e-01,2.75874e-01,9.08204e-01,9.96314e-01
9.865456120e-01,3.99301e-01,9.99999e-01,9.99999e-01,4.39162e-01,9.09933e-01,9.99230e-01
9.914783401e-01,5.43401e-01,9.99999e-01,9.99999e-01,5.96202e-01,9.11631e-01,9.99786e-01
9.964357318e-01,6.88464e-01,9.99999e-01,9.99999e-01,7.53914e-01,9.13299e-01,9.99874e-01
1.001417910e+00,7.71620e-01,9.99999e-01,9.99999e-01,8.43519e-01,9.14936e-01,9.99809e-01
1.006425000e+00,8.31295e-01,9.99999e-01,9.99999e-01,9.07234e-01,9.16544e-01,9.99728e-01
1.011457125e+00,8.64101e-01,9.99999e-01,9.99999e-01,9.41396e-01,9.18123e-01,9.99748e-01
1.016514411e+00,8.82536e-01,9.99999e-01,9.99999e-01,9.59788e-01,9.19674e-01,9.99822e-01
1.021596983e+00,8.91397e-01,9.99999e-01,9.99999e-01,9.67823e-01,9.21196e-01,9.99821e-01
1.026704968e+00,8.99337e-01,9.99999e-01,9.99999e-01,9.74804e-01,9.22691e-01,9.99880e-01
1.031838492e+00,9.07157e-01,9.99999e-01,9.99999e-01,9.81634e-01,9.24158e-01,9.99966e-01
1.036997685e+00,9.15456e-01,9.99999e-01,9.99999e-01,9.89046e-01,9.25599e-01,9.99994e-01
1.042182673e+00,9.14911e-01,9.99999e-01,9.99999e-01,9.86945e-01,9.27014e-01,9.99997e-01
1.047393587e+00,9.12365e-01,9.99999e-01,9.99999e-01,9.82728e-01,9.28403e-01,9.99996e-01
1.052630555e+00,9.07798e-01,9.99999e-01,9.99999e-01,9.76378e-01,9.29766e-01,9.99993e-01
1.057893707e+00,8.94697e-01,9.99999e-01,9.99999e-01,9.60911e-01,9.31104e-01,9.99985e-01
1.063183176e+00,8.73333e-01,9.99999e-01,9.99999e-01,9.36664e-01,9.32418e-01,9.99965e-01
1.068499092e+00,8.37025e-01,9.99999e-01,9.99999e-01,8.96518e-01,9.33708e-01,9.99925e-01
1.073841587e+00,8.23529e-01,9.99999e-01,9.99999e-01,8.80947e-01,9.34974e-01,9.99837e-01
1.079210795e+00,7.94908e-01,9.99999e-01,9.99999e-01,8.49436e-01,9.36216e-01,9.99561e-01
1.084606849e+00,7.32876e-01,9.99999e-01,9.99999e-01,7.82613e-01,9.37436e-01,9.98943e-01
1.090029883e+00,6.62022e-01,9.99999e-01,9.99999e-01,7.06850e-01,9.38633e-01,9.97812e-01
1.095480033e+00,3.67416e-01,9.99999e-01,9.99999e-01,3.92499e-01,9.39808e-01,9.96046e-01
1.100957433e+00,1.04131e-01,9.99999e-01,9.99999e-01,1.11474e-01,9.40961e-01,9.92735e-01
1.106462220e+00,8.18876e-03,9.99999e-01,9.99999e-01,8.80025e-03,9.42092e-01,9.87708e-01
1.111994531e+00,5.01249e-05,9.99999e-01,9.99999e-01,5.49169e-05,9.43203e-01,9.67701e-01
1.117554504e+00,9.17854e-07,9.99999e-01,9.99999e-01,1.09432e-06,9.44293e-01,8.88220e-01
1.123142276e+00,9.02141e-05,9.99999e-01,9.99999e-01,1.26402e-04,9.45363e-01,7.54954e-01
1.128757988e+00,4.13162e-04,9.99999e-01,9.99999e-01,6.04319e-04,9.46413e-01,7.22393e-01
1.134401778e+00,5.09110e-04,9.99999e-01,9.99999e-01,7.08506e-04,9.47443e-01,7.58428e-01
1.140073787e+00,5.32016e-03,9.99999e-01,9.99999e-01,6.99608e-03,9.48454e-01,8.01776e-01
1.145774156e+00,3.78921e-04,9.99999e-01,9.99999e-01,4.88544e-04,9.49446e-01,8.16911e-01
1.151503026e+00,7.67110e-05,9.99999e-01,9.99999e-01,9.03374e-05,9.50419e-01,8.93458e-01
1.157260541e+00,6.74961e-05,9.99999e-01,9.99999e-01,7.33762e-05,9.51374e-01,9.66877e-01
1.163046844e+00,8.26717e-04,9.99999e-01,9.99999e-01,8.76442e-04,9.52311e-01,9.90498e-01
1.168862078e+00,5.76706e-03,9.99999e-01,9.99999e-01,6.07984e-03,9.53231e-01,9.95094e-01
1.174706389e+00,3.46595e-02,9.99999e-01,9.99999e-01,3.65632e-02,9.54133e-01,9.93501e-01
1.180579921e+00,1.18154e-01,9.99999e-01,9.99999e-01,1.24945e-01,9.55018e-01,9.90190e-01
1.186482820e+00,2.74969e-01,9.99999e-01,9.99999e-01,2.90584e-01,9.55887e-01,9.89932e-01
1.192415234e+00,4.55035e-01,9.99999e-01,9.99999e-01,4.79227e-01,9.56739e-01,9.92451e-01
1.198377311e+00,5.12481e-01,9.99999e-01,9.99999e-01,5.39030e-01,9.57575e-01,9.92868e-01
1.204369197e+00,5.37254e-01,9.99999e-01,9.99999e-01,5.64218e-01,9.58396e-01,9.93545e-01
1.210391043e+00,5.48691e-01,9.99999e-01,9.99999e-01,5.74286e-01,9.59200e-01,9.96068e-01
1.216442998e+00,5.97562e-01,9.99999e-01,9.99999e-01,6.23970e-01,9.59990e-01,9.97590e-01
1.222525213e+00,6.61301e-01,9.99999e-01,9.99999e-01,6.89339e-01,9.60764e-01,9.98502e-01
1.228637839e+00,7.41342e-01,9.99999e-01,9.99999e-01,7.71544e-01,9.61524e-01,9.99302e-01
