#,Wave/freq,Total,N2,O2,H2O,Rayleigh,CIA
4.000000000e-01,7.74855e-01,9.99999e-01,9.99999e-01,9.99970e-01,7.74878e-01,9.99999e-01
4.020000000e-01,7.78781e-01,9.99999e-01,9.99999e-01,9.99981e-01,7.78795e-01,9.99999e-01
4.040100000e-01,7.82645e-01,9.99999e-01,9.99999e-01,9.99991e-01,7.82651e-01,9.99999e-01
4.060300500e-01,7.86447e-01,9.99999e-01,9.99999e-01,9.99997e-01,7.86448e-01,9.99999e-01
4.080602003e-01,7.90189e-01,9.99999e-01,9.99999e-01,9.99998e-01,7.90189e-01,9.99999e-01
4.101005013e-01,7.93873e-01,9.99999e-01,9.99999e-01,9.99999e-01,7.93873e-01,9.99999e-01
4.121510038e-01,7.97500e-01,9.99999e-01,9.99999e-01,9.99998e-01,7.97501e-01,9.99999e-01
4.142117588e-01,8.01067e-01,9.99999e-01,9.99999e-01,9.99991e-01,8.01073e-01,9.99999e-01
4.162828176e-01,8.04562e-01,9.99999e-01,9.99999e-01,9.99963e-01,8.04591e-01,9.99999e-01
4.183642317e-01,8.08036e-01,9.99999e-01,9.99999e-01,9.99978e-01,8.08053e-01,9.99999e-01
4.204560528e-01,8.11452e-01,9.99999e-01,9.99999e-01,9.99986e-01,8.11462e-01,9.99999e-01
4.225583331e-01,8.14814e-01,9.99999e-01,9.99999e-01,9.99994e-01,8.14818e-01,9.99999e-01
4.246711247e-01,8.18117e-01,9.99999e-01,9.99999e-01,9.99995e-01,8.18121e-01,9.99999e-01
4.267944804e-01,8.21366e-01,9.99999e-01,9.99999e-01,9.99993e-01,8.21371e-01,9.99999e-01
4.289284528e-01,8.24566e-01,9.99999e-01,9.99999e-01,9.99995e-01,8.24570e-01,9.99999e-01
4.310730950e-01,8.27716e-01,9.99999e-01,9.99999e-01,9.99997e-01,8.27717e-01,9.99999e-01
4.332284605e-01,8.30814e-01,9.99999e-01,9.99999e-01,9.99999e-01,8.30815e-01,9.99999e-01
4.353946028e-01,8.33862e-01,9.99999e-01,9.99999e-01,9.99999e-01,8.33862e-01,9.99999e-01
4.375715758e-01,8.36857e-01,9.99999e-01,9.99999e-01,9.99996e-01,8.36860e-01,9.99999e-01
4.397594337e-01,8.39783e-01,9.99999e-01,9.99999e-01,9.99968e-01,8.39809e-01,9.99999e-01
4.419582309e-01,8.42578e-01,9.99999e-01,9.99999e-01,9.99843e-01,8.42710e-01,9.99999e-01
4.441680220e-01,8.45458e-01,9.99999e-01,9.99999e-01,9.99874e-01,8.45563e-01,9.99999e-01
4.463888621e-01,8.48260e-01,9.99999e-01,9.99999e-01,9.99870e-01,8.48370e-01,9.99999e-01
4.486208064e-01,8.51061e-01,9.99999e-01,9.99999e-01,9.99918e-01,8.51130e-01,9.99999e-01
4.508639105e-01,8.53812e-01,9.99999e-01,9.99999e-01,9.99961e-01,8.53844e-01,9.99999e-01
4.531182300e-01,8.56500e-01,9.99999e-01,9.99999e-01,9.99984e-01,8.56513e-01,9.99999e-01
4.553838212e-01,8.59129e-01,9.99999e-01,9.99999e-01,9.99989e-01,8.59137e-01,9.99999e-01
4.576607403e-01,8.61714e-01,9.99999e-01,9.99999e-01,9.99994e-01,8.61718e-01,9.99999e-01
4.599490440e-01,8.64252e-01,9.99999e-01,9.99999e-01,9.99996e-01,8.64255e-01,9.99999e-01
4.622487892e-01,8.66748e-01,9.99999e-01,9.99999e-01,9.99998e-01,8.66749e-01,9.99999e-01
4.645600332e-01,8.69199e-01,9.99999e-01,9.99999e-01,9.99997e-01,8.69200e-01,9.99999e-01
4.668828333e-01,8.71578e-01,9.99999e-01,9.99999e-01,9.99961e-01,8.71611e-01,9.99999e-01
4.692172475e-01,8.73909e-01,9.99999e-01,9.99999e-01,9.99918e-01,8.73980e-01,9.99999e-01
4.715633337e-01,8.76262e-01,9.99999e-01,9.99999e-01,9.99946e-01,8.76308e-01,9.99999e-01
4.739211504e-01,8.78552e-01,9.99999e-01,9.99999e-01,9.99948e-01,8.78596e-01,9.99999e-01
4.762907561e-01,8.80822e-01,9.99999e-01,9.99999e-01,9.99973e-01,8.80845e-01,9.99999e-01
4.786722099e-01,8.83046e-01,9.99999e-01,9.99999e-01,9.99988e-01,8.83056e-01,9.99999e-01
4.810655710e-01,8.85225e-01,9.99999e-01,9.99999e-01,9.99996e-01,8.85228e-01,9.99999e-01
4.834708988e-01,8.87335e-01,9.99999e-01,9.99999e-01,9.99969e-01,8.87362e-01,9.99999e-01
4.858882533e-01,8.89408e-01,9.99999e-01,9.99999e-01,9.99941e-01,8.89459e-01,9.99999e-01
4.883176946e-01,8.91477e-01,9.99999e-01,9.99999e-01,9.99951e-01,8.91519e-01,9.99999e-01
4.907592831e-01,8.93505e-01,9.99999e-01,9.99999e-01,9.99956e-01,8.93544e-01,9.99999e-01
4.932130795e-01,8.95505e-01,9.99999e-01,9.99999e-01,9.99968e-01,8.95532e-01,9.99999e-01
4.956791449e-01,8.97472e-01,9.99999e-01,9.99999e-01,9.99983e-01,8.97486e-01,9.99999e-01
4.981575406e-01,8.99333e-01,9.99999e-01,9.99999e-01,9.99918e-01,8.99406e-01,9.99999e-01
5.006483283e-01,9.01102e-01,9.99999e-01,9.99999e-01,9.99791e-01,9.01291e-01,9.99998e-01
5.031515699e-01,9.02170e-01,9.99999e-01,9.99999e-01,9.98932e-01,9.03143e-01,9.99988e-01
5.056673278e-01,9.04439e-01,9.99999e-01,9.99999e-01,9.99434e-01,9.04962e-01,9.99986e-01
5.081956644e-01,9.06095e-01,9.99999e-01,9.99999e-01,9.99286e-01,9.06749e-01,9.99991e-01
5.107366428e-01,9.08065e-01,9.99999e-01,9.99999e-01,9.99517e-01,9.08504e-01,9.99997e-01
5.132903260e-01,9.09976e-01,9.99999e-01,9.99999e-01,9.99723e-01,9.10228e-01,9.99999e-01
5.158567776e-01,9.11814e-01,9.99999e-01,9.99999e-01,9.99882e-01,9.11920e-01,9.99999e-01
5.184360615e-01,9.13540e-01,9.99999e-01,9.99999e-01,9.99952e-01,9.13583e-01,9.99999e-01
5.210282418e-01,9.15199e-01,9.99999e-01,9.99999e-01,9.99982e-01,9.15215e-01,9.99999e-01
5.236333830e-01,9.16754e-01,9.99999e-01,9.99999e-01,9.99929e-01,9.16818e-01,9.99999e-01
5.262515499e-01,9.18352e-01,9.99999e-01,9.99999e-01,9.99955e-01,9.18392e-01,9.99998e-01
5.288828077e-01,9.19901e-01,9.99999e-01,9.99999e-01,9.99959e-01,9.19938e-01,9.99999e-01
5.315272217e-01,9.21423e-01,9.99999e-01,9.99999e-01,9.99964e-01,9.21455e-01,9.99999e-01
5.341848578e-01,9.22924e-01,9.99999e-01,9.99999e-01,9.99976e-01,9.22945e-01,9.99999e-01
5.368557821e-01,9.24334e-01,9.99999e-01,9.99999e-01,9.99918e-01,9.24408e-01,9.99999e-01
5.395400610e-01,9.25575e-01,9.99999e-01,9.99999e-01,9.99710e-01,9.25845e-01,9.99997e-01
5.422377613e-01,9.26896e-01,9.99999e-01,9.99999e-01,9.99619e-01,9.27255e-01,9.99992e-01
5.449489501e-01,9.28307e-01,9.99999e-01,9.99999e-01,9.99649e-01,9.28639e-01,9.99992e-01
5.476736949e-01,9.29704e-01,9.99999e-01,9.99999e-01,9.99686e-01,9.29998e-01,9.99996e-01
5.504120634e-01,9.31120e-01,9.99999e-01,9.99999e-01,9.99772e-01,9.31332e-01,9.99998e-01
5.531641237e-01,9.32535e-01,9.99999e-01,9.99999e-01,9.99885e-01,9.32642e-01,9.99999e-01
5.559299443e-01,9.33876e-01,9.99999e-01,9.99999e-01,9.99944e-01,9.33927e-01,9.99999e-01
5.587095940e-01,9.35157e-01,9.99999e-01,9.99999e-01,9.99965e-01,9.35189e-01,9.99999e-01
5.615031420e-01,9.36392e-01,9.99999e-01,9.99999e-01,9.99961e-01,9.36428e-01,9.99999e-01
5.643106577e-01,9.37603e-01,9.99999e-01,9.99999e-01,9.99956e-01,9.37643e-01,9.99999e-01
5.671322110e-01,9.38347e-01,9.99999e-01,9.99999e-01,9.99482e-01,9.38837e-01,9.99995e-01
5.699678720e-01,9.39460e-01,9.99999e-01,9.99999e-01,9.99431e-01,9.40008e-01,9.99985e-01
5.728177114e-01,9.40596e-01,9.99999e-01,9.99999e-01,9.99415e-01,9.41157e-01,9.99987e-01
5.756818000e-01,9.41772e-01,9.99999e-01,9.99999e-01,9.99462e-01,9.42285e-01,9.99992e-01
5.785602090e-01,9.42947e-01,9.99999e-01,9.99999e-01,9.99529e-01,9.43392e-01,9.99997e-01
5.814530100e-01,9.44034e-01,9.99999e-01,9.99999e-01,9.99529e-01,9.44479e-01,9.99998e-01
5.843602750e-01,9.45017e-01,9.99999e-01,9.99999e-01,9.99444e-01,9.45545e-01,9.99996e-01
5.872820764e-01,9.42024e-01,9.99999e-01,9.99999e-01,9.95208e-01,9.46591e-01,9.99965e-01
5.902184868e-01,9.41974e-01,9.99999e-01,9.99999e-01,9.94135e-01,9.47618e-01,9.99907e-01
5.931695792e-01,9.44623e-01,9.99999e-01,9.99999e-01,9.95869e-01,9.48626e-01,9.99909e-01
5.961354271e-01,9.45253e-01,9.99999e-01,9.99999e-01,9.95460e-01,9.49615e-01,9.99945e-01
5.991161043e-01,9.47418e-01,9.99999e-01,9.99999e-01,9.96683e-01,9.50585e-01,9.99983e-01
6.021116848e-01,9.49741e-01,9.99999e-01,9.99999e-01,9.98114e-01,9.51537e-01,9.99997e-01
6.051222432e-01,9.51562e-01,9.99999e-01,9.99999e-01,9.99045e-01,9.52471e-01,9.99999e-01
6.081478544e-01,9.52995e-01,9.99999e-01,9.99999e-01,9.99588e-01,9.53387e-01,9.99999e-01
6.111885937e-01,9.54120e-01,9.99999e-01,9.99999e-01,9.99825e-01,9.54287e-01,9.99999e-01
6.142445367e-01,9.55095e-01,9.99999e-01,9.99999e-01,9.99921e-01,9.55169e-01,9.99999e-01
6.173157594e-01,9.55994e-01,9.99999e-01,9.99999e-01,9.99956e-01,9.56035e-01,9.99999e-01
6.204023382e-01,9.56850e-01,9.99999e-01,9.99999e-01,9.99963e-01,9.56884e-01,9.99999e-01
6.235043498e-01,9.57568e-01,9.99999e-01,9.99999e-01,9.99843e-01,9.57718e-01,9.99999e-01
6.266218716e-01,9.57723e-01,9.99999e-01,9.99999e-01,9.99157e-01,9.58535e-01,9.99993e-01
6.297549810e-01,9.59030e-01,9.99999e-01,9.99999e-01,9.99690e-01,9.59337e-01,9.99987e-01
6.329037559e-01,9.59527e-01,9.99999e-01,9.99999e-01,9.99387e-01,9.60124e-01,9.99990e-01
6.360682746e-01,9.60392e-01,9.99999e-01,9.99999e-01,9.99480e-01,9.60896e-01,9.99993e-01
6.392486160e-01,9.61003e-01,9.99999e-01,9.99999e-01,9.99325e-01,9.61654e-01,9.99997e-01
6.424448591e-01,9.61616e-01,9.99999e-01,9.99999e-01,9.99192e-01,9.62397e-01,9.99995e-01
6.456570834e-01,9.59141e-01,9.99999e-01,9.99999e-01,9.95885e-01,9.63126e-01,9.99976e-01
6.488853688e-01,9.60298e-01,9.99999e-01,9.99999e-01,9.96388e-01,9.63841e-01,9.99934e-01
6.521297956e-01,9.61469e-01,9.99999e-01,9.99999e-01,9.96867e-01,9.64542e-01,9.99945e-01
6.553904446e-01,9.62207e-01,9.99999e-01,9.99999e-01,9.96908e-01,9.65230e-01,9.99958e-01
6.586673968e-01,9.63309e-01,9.99999e-01,9.99999e-01,9.97325e-01,9.65905e-01,9.99986e-01
6.619607338e-01,9.65070e-01,9.99999e-01,9.99999e-01,9.98453e-01,9.66567e-01,9.99996e-01
6.652705375e-01,9.66347e-01,9.99999e-01,9.99999e-01,9.99101e-01,9.67216e-01,9.99998e-01
6.685968902e-01,9.67450e-01,9.99999e-01,9.99999e-01,9.99582e-01,9.67853e-01,9.99999e-01
6.719398746e-01,9.68291e-01,9.99999e-01,9.99999e-01,9.99806e-01,9.68478e-01,9.99999e-01
6.752995740e-01,9.68990e-01,9.99999e-01,9.99999e-01,9.99895e-01,9.69091e-01,9.99999e-01
6.786760719e-01,9.69547e-01,9.99999e-01,9.99999e-01,9.99850e-01,9.69692e-01,9.99999e-01
6.820694522e-01,9.70032e-01,9.99999e-01,9.99999e-01,9.99743e-01,9.70282e-01,9.99998e-01
6.854797995e-01,9.70537e-01,9.99999e-01,9.99999e-01,9.99669e-01,9.70860e-01,9.99996e-01
6.889071985e-01,9.70656e-01,9.99999e-01,9.99999e-01,9.99212e-01,9.71428e-01,9.99992e-01
6.923517345e-01,9.59332e-01,9.99999e-01,9.99999e-01,9.87045e-01,9.71984e-01,9.99936e-01
6.958134932e-01,9.65679e-01,9.99999e-01,9.99999e-01,9.93096e-01,9.72530e-01,9.99857e-01
6.992925606e-01,9.66697e-01,9.99999e-01,9.99999e-01,9.93579e-01,9.73065e-01,9.99874e-01
7.027890234e-01,9.65716e-01,9.99999e-01,9.99999e-01,9.92007e-01,9.73590e-01,9.99903e-01
7.063029686e-01,9.67517e-01,9.99999e-01,9.99999e-01,9.93283e-01,9.74105e-01,9.99951e-01
7.098344834e-01,9.68301e-01,9.99999e-01,9.99999e-01,9.93554e-01,9.74610e-01,9.99971e-01
7.133836558e-01,9.66805e-01,9.99999e-01,9.99999e-01,9.91542e-01,9.75105e-01,9.99943e-01
7.169505741e-01,9.10318e-01,9.99999e-01,9.99999e-01,9.33504e-01,9.75590e-01,9.99559e-01
7.205353270e-01,9.42354e-01,9.99999e-01,9.99999e-01,9.66210e-01,9.76067e-01,9.99222e-01
7.241380036e-01,9.34867e-01,9.99999e-01,9.99999e-01,9.57978e-01,9.76534e-01,9.99323e-01
7.277586936e-01,9.39305e-01,9.99999e-01,9.99999e-01,9.61964e-01,9.76992e-01,9.99438e-01
7.313974871e-01,9.37426e-01,9.99999e-01,9.99999e-01,9.59307e-01,9.77441e-01,9.99742e-01
7.350544745e-01,9.55906e-01,9.99999e-01,9.99999e-01,9.77613e-01,9.77882e-01,9.99910e-01
7.387297469e-01,9.62099e-01,9.99999e-01,9.99999e-01,9.83465e-01,9.78314e-01,9.99958e-01
7.424233956e-01,9.70760e-01,9.99999e-01,9.99999e-01,9.91855e-01,9.78738e-01,9.99991e-01
7.461355126e-01,9.74323e-01,9.99999e-01,9.99999e-01,9.95067e-01,9.79153e-01,9.99998e-01
7.498661902e-01,9.77302e-01,9.99999e-01,9.99999e-01,9.97694e-01,9.79561e-01,9.99999e-01
7.536155211e-01,9.78855e-01,9.99999e-01,9.99999e-01,9.98872e-01,9.79960e-01,9.99999e-01
7.573835987e-01,9.79783e-01,9.99999e-01,9.99999e-01,9.99418e-01,9.80352e-01,9.99999e-01
7.611705167e-01,9.80383e-01,9.99999e-01,9.99999e-01,9.99638e-01,9.80737e-01,9.99999e-01
7.649763693e-01,9.80892e-01,9.99999e-01,9.99999e-01,9.99773e-01,9.81113e-01,9.99999e-01
7.688012511e-01,9.81329e-01,9.99999e-01,9.99999e-01,9.99842e-01,9.81483e-01,9.99999e-01
7.726452574e-01,9.81719e-01,9.99999e-01,9.99999e-01,9.99870e-01,9.81845e-01,9.99999e-01
7.765084837e-01,9.82022e-01,9.99999e-01,9.99999e-01,9.99817e-01,9.82201e-01,9.99999e-01
7.803910261e-01,9.81778e-01,9.99999e-01,9.99999e-01,9.99215e-01,9.82549e-01,9.99998e-01
7.842929812e-01,9.80197e-01,9.99999e-01,9.99999e-01,9.97263e-01,9.82891e-01,9.99994e-01
7.882144461e-01,9.77601e-01,9.99999e-01,9.99999e-01,9.94313e-01,9.83226e-01,9.99964e-01
7.921555184e-01,9.80402e-01,9.99999e-01,9.99999e-01,9.96860e-01,9.83555e-01,9.99932e-01
7.961162960e-01,9.78427e-01,9.99999e-01,9.99999e-01,9.94524e-01,9.83877e-01,9.99934e-01
8.000968774e-01,9.77865e-01,9.99999e-01,9.99999e-01,9.93637e-01,9.84193e-01,9.99930e-01
8.040973618e-01,9.78194e-01,9.99999e-01,9.99999e-01,9.93646e-01,9.84503e-01,9.99944e-01
8.081178486e-01,9.70806e-01,9.99999e-01,9.99999e-01,9.85833e-01,9.84806e-01,9.99948e-01
8.121584379e-01,9.27893e-01,9.99999e-01,9.99999e-01,9.42113e-01,9.85104e-01,9.99798e-01
8.162192301e-01,9.16627e-01,9.99999e-01,9.99999e-01,9.30914e-01,9.85396e-01,9.99243e-01
8.203003262e-01,9.51048e-01,9.99999e-01,9.99999e-01,9.65716e-01,9.85683e-01,9.99114e-01
8.244018279e-01,9.37140e-01,9.99999e-01,9.99999e-01,9.51150e-01,9.85963e-01,9.99295e-01
8.285238370e-01,9.44755e-01,9.99999e-01,9.99999e-01,9.58467e-01,9.86239e-01,9.99446e-01
8.326664562e-01,9.44703e-01,9.99999e-01,9.99999e-01,9.57840e-01,9.86509e-01,9.99770e-01
8.368297885e-01,9.56764e-01,9.99999e-01,9.99999e-01,9.69638e-01,9.86773e-01,9.99947e-01
8.410139374e-01,9.69082e-01,9.99999e-01,9.99999e-01,9.81842e-01,9.87033e-01,9.99968e-01
8.452190071e-01,9.78431e-01,9.99999e-01,9.99999e-01,9.91046e-01,9.87287e-01,9.99981e-01
8.494451021e-01,9.82406e-01,9.99999e-01,9.99999e-01,9.94818e-01,9.87537e-01,9.99984e-01
8.536923276e-01,9.84731e-01,9.99999e-01,9.99999e-01,9.96921e-01,9.87782e-01,9.99989e-01
8.579607893e-01,9.86152e-01,9.99999e-01,9.99999e-01,9.98109e-01,9.88021e-01,9.99996e-01
8.622505932e-01,9.87067e-01,9.99999e-01,9.99999e-01,9.98795e-01,9.88257e-01,9.99999e-01
8.665618462e-01,9.87754e-01,9.99999e-01,9.99999e-01,9.99257e-01,9.88487e-01,9.99999e-01
8.708946554e-01,9.87875e-01,9.99999e-01,9.99999e-01,9.99152e-01,9.88713e-01,9.99999e-01
8.752491287e-01,9.87812e-01,9.99999e-01,9.99999e-01,9.98865e-01,9.88935e-01,9.99998e-01
8.796253743e-01,9.87601e-01,9.99999e-01,9.99999e-01,9.98434e-01,9.89152e-01,9.99996e-01
8.840235012e-01,9.87584e-01,9.99999e-01,9.99999e-01,9.98209e-01,9.89365e-01,9.99988e-01
8.884436187e-01,9.83226e-01,9.99999e-01,9.99999e-01,9.93615e-01,9.89574e-01,9.99968e-01
8.928858368e-01,9.24101e-01,9.99999e-01,9.99999e-01,9.33810e-01,9.89779e-01,9.99820e-01
8.973502660e-01,8.75126e-01,9.99999e-01,9.99999e-01,8.84796e-01,9.89980e-01,9.99080e-01
9.018370173e-01,9.28398e-01,9.99999e-01,9.99999e-01,9.38964e-01,9.90177e-01,9.98554e-01
9.063462024e-01,9.36666e-01,9.99999e-01,9.99999e-01,9.46975e-01,9.90370e-01,9.98730e-01
9.108779334e-01,9.08222e-01,9.99999e-01,9.99999e-01,9.18088e-01,9.90559e-01,9.98680e-01
9.154323231e-01,8.97863e-01,9.99999e-01,9.99999e-01,9.07239e-01,9.90745e-01,9.98909e-01
9.200094847e-01,9.17464e-01,9.99999e-01,9.99999e-01,9.26428e-01,9.90927e-01,9.99389e-01
9.246095321e-01,8.81809e-01,9.99999e-01,9.99999e-01,8.90348e-01,9.91105e-01,9.99296e-01
9.292325798e-01,4.54526e-01,9.99999e-01,9.99999e-01,4.59783e-01,9.91280e-01,9.97259e-01
9.338787427e-01,3.56738e-01,9.99999e-01,9.99999e-01,3.63918e-01,9.91452e-01,9.88722e-01
9.385481364e-01,6.49774e-01,9.99999e-01,9.99999e-01,6.64163e-01,9.91620e-01,9.86601e-01
9.432408771e-01,5.61788e-01,9.99999e-01,9.99999e-01,5.73071e-01,9.91785e-01,9.88429e-01
9.479570815e-01,4.57959e-01,9.99999e-01,9.99999e-01,4.66070e-01,9.91946e-01,9.90573e-01
9.526968669e-01,5.50362e-01,9.99999e-01,9.99999e-01,5.57955e-01,9.92105e-01,9.94239e-01
9.574603512e-01,5.74440e-01,9.99999e-01,9.99999e-01,5.80622e-01,9.92260e-01,9.97069e-01
9.622476530e-01,6.34141e-01,9.99999e-01,9.99999e-01,6.40286e-01,9.92412e-01,9.97972e-01
9.670588912e-01,7.66470e-01,9.99999e-01,9.99999e-01,7.73286e-01,9.92562e-01,9.98612e-01
9.718941857e-01,8.43941e-01,9.99999e-01,9.99999e-01,8.51008e-01,9.92708e-01,9.98978e-01
9.767536566e-01,8.67736e-01,9.99999e-01,9.99999e-01,8.74665e-01,9.92851e-01,9.99219e-01
9.816374249e-01,8.98620e-01,9.99999e-01,9.99999e-01,9.05205e-01,9.92992e-01,9.99729e-01
9.865456120e-01,9.33119e-01,9.99999e-01,9.99999e-01,9.39625e-01,9.93130e-01,9.99943e-01
9.914783401e-01,9.55762e-01,9.99999e-01,9.99999e-01,9.62256e-01,9.93265e-01,9.99983e-01
9.964357318e-01,9.72787e-01,9.99999e-01,9.99999e-01,9.79261e-01,9.93398e-01,9.99990e-01
1.001417910e+00,9.81111e-01,9.99999e-01,9.99999e-01,9.87515e-01,9.93528e-01,9.99985e-01
1.006425000e+00,9.86563e-01,9.99999e-01,9.99999e-01,9.92881e-01,9.93655e-01,9.99979e-01
1.011457125e+00,9.89353e-01,9.99999e-01,9.99999e-01,9.95563e-01,9.93780e-01,9.99981e-01
1.016514411e+00,9.90900e-01,9.99999e-01,9.99999e-01,9.96991e-01,9.93903e-01,9.99986e-01
1.021596983e+00,9.91628e-01,9.99999e-01,9.99999e-01,9.97603e-01,9.94023e-01,9.99986e-01
1.026704968e+00,9.92275e-01,9.99999e-01,9.99999e-01,9.98132e-01,9.94140e-01,9.99990e-01
1.031838492e+00,9.92901e-01,9.99999e-01,9.99999e-01,9.98638e-01,9.94256e-01,9.99997e-01
1.036997685e+00,9.93567e-01,9.99999e-01,9.99999e-01,9.99193e-01,9.94369e-01,9.99999e-01
1.042182673e+00,9.93527e-01,9.99999e-01,9.99999e-01,9.99041e-01,9.94480e-01,9.99999e-01
1.047393587e+00,9.93323e-01,9.99999e-01,9.99999e-01,9.98727e-01,9.94589e-01,9.99999e-01
1.052630555e+00,9.92961e-01,9.99999e-01,9.99999e-01,9.98256e-01,9.94695e-01,9.99999e-01
1.057893707e+00,9.91909e-01,9.99999e-01,9.99999e-01,9.97095e-01,9.94800e-01,9.99998e-01
1.063183176e+00,9.90142e-01,9.99999e-01,9.99999e-01,9.95217e-01,9.94902e-01,9.99997e-01
1.068499092e+00,9.87029e-01,9.99999e-01,9.99999e-01,9.91990e-01,9.95002e-01,9.99994e-01
1.073841587e+00,9.85788e-01,9.99999e-01,9.99999e-01,9.90652e-01,9.95101e-01,9.99987e-01
1.079210795e+00,9.83215e-01,9.99999e-01,9.99999e-01,9.87991e-01,9.95197e-01,9.99967e-01
1.084606849e+00,9.77213e-01,9.99999e-01,9.99999e-01,9.81910e-01,9.95292e-01,9.99922e-01
1.090029883e+00,9.69632e-01,9.99999e-01,9.99999e-01,9.74283e-01,9.95385e-01,9.99839e-01
1.095480033e+00,9.26845e-01,9.99999e-01,9.99999e-01,9.31326e-01,9.95476e-01,9.99709e-01
1.100957433e+00,8.30806e-01,9.99999e-01,9.99999e-01,8.34952e-01,9.95565e-01,9.99466e-01
1.106462220e+00,6.32010e-01,9.99999e-01,9.99999e-01,6.35344e-01,9.95652e-01,9.99095e-01
1.111994531e+00,3.83748e-01,9.99999e-01,9.99999e-01,3.86317e-01,9.95738e-01,9.97600e-01
1.117554504e+00,2.14593e-01,9.99999e-01,9.99999e-01,2.17370e-01,9.95822e-01,9.91365e-01
1.123142276e+00,3.24707e-01,9.99999e-01,9.99999e-01,3.32816e-01,9.95904e-01,9.79646e-01
1.128757988e+00,4.74251e-01,9.99999e-01,9.99999e-01,4.87625e-01,9.95985e-01,9.76491e-01
1.134401778e+00,2.39881e-01,9.99999e-01,9.99999e-01,2.45868e-01,9.96064e-01,9.79506e-01
1.140073787e+00,6.34556e-01,9.99999e-01,9.99999e-01,6.47671e-01,9.96142e-01,9.83544e-01
1.145774156e+00,4.01786e-01,9.99999e-01,9.99999e-01,4.09322e-01,9.96218e-01,9.85314e-01
1.151503026e+00,3.68030e-01,9.99999e-01,9.99999e-01,3.72457e-01,9.96292e-01,9.91792e-01
1.157260541e+00,4.27442e-01,9.99999e-01,9.99999e-01,4.30059e-01,9.96365e-01,9.97538e-01
1.163046844e+00,5.31652e-01,9.99999e-01,9.99999e-01,5.33925e-01,9.96437e-01,9.99301e-01
1.168862078e+00,6.41811e-01,9.99999e-01,9.99999e-01,6.44291e-01,9.96507e-01,9.99639e-01
1.174706389e+00,7.59399e-01,9.99999e-01,9.99999e-01,7.62371e-01,9.96576e-01,9.99522e-01
1.180579921e+00,8.43970e-01,9.99999e-01,9.99999e-01,8.47422e-01,9.96644e-01,9.99278e-01
1.186482820e+00,9.07002e-01,9.99999e-01,9.99999e-01,9.10669e-01,9.96710e-01,9.99259e-01
1.192415234e+00,9.43309e-01,9.99999e-01,9.99999e-01,9.46885e-01,9.96775e-01,9.99445e-01
1.198377311e+00,9.51621e-01,9.99999e-01,9.99999e-01,9.55139e-01,9.96838e-01,9.99476e-01
1.204369197e+00,9.54058e-01,9.99999e-01,9.99999e-01,9.57477e-01,9.96901e-01,9.99525e-01
1.210391043e+00,9.56084e-01,9.99999e-01,9.99999e-01,9.59273e-01,9.96962e-01,9.99711e-01
1.216442998e+00,9.62123e-01,9.99999e-01,9.99999e-01,9.65167e-01,9.97022e-01,9.99823e-01
1.222525213e+00,9.69851e-01,9.99999e-01,9.99999e-01,9.72797e-01,9.97080e-01,9.99889e-01
1.228637839e+00,9.78191e-01,9.99999e-01,9.99999e-01,9.81048e-01,9.97138e-01,9.99948e-01
