#,Wave/freq,Total,N2,O2,H2O,Rayleigh,CIA
4.000000000e-01,5.05785e-01,9.99999e-01,9.99999e-01,9.99922e-01,5.05824e-01,9.99999e-01
4.020000000e-01,5.12663e-01,9.99999e-01,9.99999e-01,9.99951e-01,5.12687e-01,9.99999e-01
4.040100000e-01,5.19487e-01,9.99999e-01,9.99999e-01,9.99979e-01,5.19498e-01,9.99999e-01
4.060300500e-01,5.26259e-01,9.99999e-01,9.99999e-01,9.99994e-01,5.26261e-01,9.99999e-01
4.080602003e-01,5.32976e-01,9.99999e-01,9.99999e-01,9.99998e-01,5.32977e-01,9.99999e-01
4.101005013e-01,5.39643e-01,9.99999e-01,9.99999e-01,9.99999e-01,5.39643e-01,9.99999e-01
4.121510038e-01,5.46257e-01,9.99999e-01,9.99999e-01,9.99996e-01,5.46258e-01,9.99999e-01
4.142117588e-01,5.52810e-01,9.99999e-01,9.99999e-01,9.99978e-01,5.52822e-01,9.99999e-01
4.162828176e-01,5.59279e-01,9.99999e-01,9.99999e-01,9.99904e-01,5.59332e-01,9.99999e-01
4.183642317e-01,5.65756e-01,9.99999e-01,9.99999e-01,9.99942e-01,5.65788e-01,9.99999e-01
4.204560528e-01,5.72169e-01,9.99999e-01,9.99999e-01,9.99964e-01,5.72189e-01,9.99999e-01
4.225583331e-01,5.78526e-01,9.99999e-01,9.99999e-01,9.99986e-01,5.78534e-01,9.99999e-01
4.246711247e-01,5.84816e-01,9.99999e-01,9.99999e-01,9.99989e-01,5.84822e-01,9.99999e-01
4.267944804e-01,5.91042e-01,9.99999e-01,9.99999e-01,9.99984e-01,5.91051e-01,9.99999e-01
4.289284528e-01,5.97215e-01,9.99999e-01,9.99999e-01,9.99987e-01,5.97223e-01,9.99999e-01
4.310730950e-01,6.03331e-01,9.99999e-01,9.99999e-01,9.99994e-01,6.03334e-01,9.99999e-01
4.332284605e-01,6.09385e-01,9.99999e-01,9.99999e-01,9.99998e-01,6.09386e-01,9.99999e-01
4.353946028e-01,6.15377e-01,9.99999e-01,9.99999e-01,9.99998e-01,6.15377e-01,9.99999e-01
4.375715758e-01,6.21301e-01,9.99999e-01,9.99999e-01,9.99990e-01,6.21307e-01,9.99999e-01
4.397594337e-01,6.27123e-01,9.99999e-01,9.99999e-01,9.99916e-01,6.27176e-01,9.99999e-01
4.419582309e-01,6.32713e-01,9.99999e-01,9.99999e-01,9.99575e-01,6.32982e-01,9.99999e-01
4.441680220e-01,6.38514e-01,9.99999e-01,9.99999e-01,9.99668e-01,6.38725e-01,9.99999e-01
4.463888621e-01,6.44184e-01,9.99999e-01,9.99999e-01,9.99654e-01,6.44406e-01,9.99999e-01
4.486208064e-01,6.49884e-01,9.99999e-01,9.99999e-01,9.99785e-01,6.50024e-01,9.99999e-01
4.508639105e-01,6.55512e-01,9.99999e-01,9.99999e-01,9.99899e-01,6.55578e-01,9.99999e-01
4.531182300e-01,6.61042e-01,9.99999e-01,9.99999e-01,9.99959e-01,6.61069e-01,9.99999e-01
4.553838212e-01,6.66477e-01,9.99999e-01,9.99999e-01,9.99972e-01,6.66495e-01,9.99999e-01
4.576607403e-01,6.71850e-01,9.99999e-01,9.99999e-01,9.99987e-01,6.71858e-01,9.99999e-01
4.599490440e-01,6.77151e-01,9.99999e-01,9.99999e-01,9.99990e-01,6.77157e-01,9.99999e-01
4.622487892e-01,6.82390e-01,9.99999e-01,9.99999e-01,9.99998e-01,6.82391e-01,9.99999e-01
4.645600332e-01,6.87558e-01,9.99999e-01,9.99999e-01,9.99993e-01,6.87562e-01,9.99999e-01
4.668828333e-01,6.92598e-01,9.99999e-01,9.99999e-01,9.99898e-01,6.92668e-01,9.99999e-01
4.692172475e-01,6.97560e-01,9.99999e-01,9.99999e-01,9.99783e-01,6.97710e-01,9.99999e-01
4.715633337e-01,7.02589e-01,9.99999e-01,9.99999e-01,9.99858e-01,7.02689e-01,9.99999e-01
4.739211504e-01,7.07508e-01,9.99999e-01,9.99999e-01,9.99864e-01,7.07603e-01,9.99999e-01
4.762907561e-01,7.12404e-01,9.99999e-01,9.99999e-01,9.99929e-01,7.12454e-01,9.99999e-01
4.786722099e-01,7.17221e-01,9.99999e-01,9.99999e-01,9.99970e-01,7.17241e-01,9.99999e-01
4.810655710e-01,7.21959e-01,9.99999e-01,9.99999e-01,9.99990e-01,7.21965e-01,9.99999e-01
4.834708988e-01,7.26566e-01,9.99999e-01,9.99999e-01,9.99916e-01,7.26626e-01,9.99999e-01
4.858882533e-01,7.31112e-01,9.99999e-01,9.99999e-01,9.99846e-01,7.31224e-01,9.99999e-01
4.883176946e-01,7.35665e-01,9.99999e-01,9.99999e-01,9.99871e-01,7.35759e-01,9.99999e-01
4.907592831e-01,7.40146e-01,9.99999e-01,9.99999e-01,9.99883e-01,7.40232e-01,9.99999e-01
4.932130795e-01,7.44582e-01,9.99999e-01,9.99999e-01,9.99917e-01,7.44643e-01,9.99999e-01
4.956791449e-01,7.48960e-01,9.99999e-01,9.99999e-01,9.99956e-01,7.48993e-01,9.99999e-01
4.981575406e-01,7.53117e-01,9.99999e-01,9.99999e-01,9.99782e-01,7.53281e-01,9.99999e-01
5.006483283e-01,7.57079e-01,9.99999e-01,9.99999e-01,9.99436e-01,7.57508e-01,9.99995e-01
5.031515699e-01,7.59478e-01,9.99999e-01,9.99999e-01,9.97145e-01,7.61675e-01,9.99969e-01
5.056673278e-01,7.64601e-01,9.99999e-01,9.99999e-01,9.98492e-01,7.65782e-01,9.99965e-01
5.081956644e-01,7.68348e-01,9.99999e-01,9.99999e-01,9.98097e-01,7.69829e-01,9.99977e-01
5.107366428e-01,7.72820e-01,9.99999e-01,9.99999e-01,9.98715e-01,7.73817e-01,9.99995e-01
5.132903260e-01,7.77175e-01,9.99999e-01,9.99999e-01,9.99265e-01,7.77746e-01,9.99999e-01
5.158567776e-01,7.81375e-01,9.99999e-01,9.99999e-01,9.99689e-01,7.81617e-01,9.99999e-01
5.184360615e-01,7.85333e-01,9.99999e-01,9.99999e-01,9.99875e-01,7.85430e-01,9.99999e-01
5.210282418e-01,7.89150e-01,9.99999e-01,9.99999e-01,9.99953e-01,7.89186e-01,9.99999e-01
5.236333830e-01,7.92737e-01,9.99999e-01,9.99999e-01,9.99813e-01,7.92886e-01,9.99998e-01
5.262515499e-01,7.96434e-01,9.99999e-01,9.99999e-01,9.99883e-01,7.96529e-01,9.99997e-01
5.288828077e-01,8.00029e-01,9.99999e-01,9.99999e-01,9.99892e-01,8.00116e-01,9.99998e-01
5.315272217e-01,8.03572e-01,9.99999e-01,9.99999e-01,9.99905e-01,8.03648e-01,9.99999e-01
5.341848578e-01,8.07076e-01,9.99999e-01,9.99999e-01,9.99938e-01,8.07125e-01,9.99999e-01
5.368557821e-01,8.10373e-01,9.99999e-01,9.99999e-01,9.99782e-01,8.10549e-01,9.99999e-01
5.395400610e-01,8.13277e-01,9.99999e-01,9.99999e-01,9.99217e-01,8.13919e-01,9.99993e-01
5.422377613e-01,8.16394e-01,9.99999e-01,9.99999e-01,9.98988e-01,8.17236e-01,9.99981e-01
5.449489501e-01,8.19713e-01,9.99999e-01,9.99999e-01,9.99059e-01,8.20500e-01,9.99980e-01
5.476736949e-01,8.23019e-01,9.99999e-01,9.99999e-01,9.99166e-01,8.23713e-01,9.99990e-01
5.504120634e-01,8.26372e-01,9.99999e-01,9.99999e-01,9.99394e-01,8.26874e-01,9.99996e-01
5.531641237e-01,8.29732e-01,9.99999e-01,9.99999e-01,9.99695e-01,8.29985e-01,9.99999e-01
5.559299443e-01,8.32923e-01,9.99999e-01,9.99999e-01,9.99852e-01,8.33045e-01,9.99999e-01
5.587095940e-01,8.35980e-01,9.99999e-01,9.99999e-01,9.99907e-01,8.36057e-01,9.99999e-01
5.615031420e-01,8.38933e-01,9.99999e-01,9.99999e-01,9.99897e-01,8.39019e-01,9.99999e-01
5.643106577e-01,8.41834e-01,9.99999e-01,9.99999e-01,9.99883e-01,8.41933e-01,9.99998e-01
5.671322110e-01,8.43596e-01,9.99999e-01,9.99999e-01,9.98588e-01,8.44799e-01,9.99986e-01
5.699678720e-01,8.46312e-01,9.99999e-01,9.99999e-01,9.98496e-01,8.47618e-01,9.99961e-01
5.728177114e-01,8.49033e-01,9.99999e-01,9.99999e-01,9.98435e-01,8.50390e-01,9.99967e-01
5.756818000e-01,8.51875e-01,9.99999e-01,9.99999e-01,9.98563e-01,8.53117e-01,9.99979e-01
5.785602090e-01,8.54722e-01,9.99999e-01,9.99999e-01,9.98747e-01,8.55798e-01,9.99993e-01
5.814530100e-01,8.57353e-01,9.99999e-01,9.99999e-01,9.98742e-01,8.58434e-01,9.99996e-01
5.843602750e-01,8.59730e-01,9.99999e-01,9.99999e-01,9.98501e-01,8.61027e-01,9.99991e-01
5.872820764e-01,8.52421e-01,9.99999e-01,9.99999e-01,9.87172e-01,8.63575e-01,9.99908e-01
5.902184868e-01,8.52402e-01,9.99999e-01,9.99999e-01,9.84448e-01,8.66081e-01,9.99752e-01
5.931695792e-01,8.58789e-01,9.99999e-01,9.99999e-01,9.89003e-01,8.68544e-01,9.99761e-01
5.961354271e-01,8.60346e-01,9.99999e-01,9.99999e-01,9.87941e-01,8.70965e-01,9.99862e-01
5.991161043e-01,8.65614e-01,9.99999e-01,9.99999e-01,9.91189e-01,8.73345e-01,9.99957e-01
6.021116848e-01,8.71295e-01,9.99999e-01,9.99999e-01,9.94991e-01,8.75684e-01,9.99994e-01
6.051222432e-01,8.75756e-01,9.99999e-01,9.99999e-01,9.97462e-01,8.77983e-01,9.99999e-01
6.081478544e-01,8.79279e-01,9.99999e-01,9.99999e-01,9.98904e-01,8.80243e-01,9.99999e-01
6.111885937e-01,8.82055e-01,9.99999e-01,9.99999e-01,9.99536e-01,8.82464e-01,9.99999e-01
6.142445367e-01,8.84463e-01,9.99999e-01,9.99999e-01,9.99792e-01,8.84646e-01,9.99999e-01
6.173157594e-01,8.86689e-01,9.99999e-01,9.99999e-01,9.99885e-01,8.86790e-01,9.99999e-01
6.204023382e-01,8.88811e-01,9.99999e-01,9.99999e-01,9.99903e-01,8.88897e-01,9.99999e-01
6.235043498e-01,8.90588e-01,9.99999e-01,9.99999e-01,9.99574e-01,8.90967e-01,9.99998e-01
6.266218716e-01,8.90978e-01,9.99999e-01,9.99999e-01,9.97749e-01,8.93002e-01,9.99983e-01
6.297549810e-01,8.94233e-01,9.99999e-01,9.99999e-01,9.99174e-01,8.95000e-01,9.99967e-01
6.329037559e-01,8.95477e-01,9.99999e-01,9.99999e-01,9.98367e-01,8.96963e-01,9.99974e-01
6.360682746e-01,8.97630e-01,9.99999e-01,9.99999e-01,9.98610e-01,8.98892e-01,9.99984e-01
6.392486160e-01,8.99159e-01,9.99999e-01,9.99999e-01,9.98199e-01,9.00786e-01,9.99992e-01
6.424448591e-01,9.00464e-01,9.99999e-01,9.99999e-01,9.97591e-01,9.02647e-01,9.99988e-01
6.456570834e-01,8.94351e-01,9.99999e-01,9.99999e-01,9.88867e-01,9.04475e-01,9.99937e-01
6.488853688e-01,8.98718e-01,9.99999e-01,9.99999e-01,9.91837e-01,9.06271e-01,9.99826e-01
6.521297956e-01,9.00354e-01,9.99999e-01,9.99999e-01,9.91683e-01,9.08034e-01,9.99856e-01
6.553904446e-01,9.02132e-01,9.99999e-01,9.99999e-01,9.91713e-01,9.09766e-01,9.99892e-01
6.586673968e-01,9.04965e-01,9.99999e-01,9.99999e-01,9.92900e-01,9.11467e-01,9.99963e-01
6.619607338e-01,9.09378e-01,9.99999e-01,9.99999e-01,9.95889e-01,9.13138e-01,9.99991e-01
6.652705375e-01,9.12597e-01,9.99999e-01,9.99999e-01,9.97619e-01,9.14778e-01,9.99995e-01
6.685968902e-01,9.15374e-01,9.99999e-01,9.99999e-01,9.98893e-01,9.16389e-01,9.99998e-01
6.719398746e-01,9.17500e-01,9.99999e-01,9.99999e-01,9.99487e-01,9.17971e-01,9.99999e-01
6.752995740e-01,9.19269e-01,9.99999e-01,9.99999e-01,9.99721e-01,9.19524e-01,9.99999e-01
6.786760719e-01,9.20679e-01,9.99999e-01,9.99999e-01,9.99598e-01,9.21049e-01,9.99998e-01
6.820694522e-01,9.21910e-01,9.99999e-01,9.99999e-01,9.99312e-01,9.22547e-01,9.99995e-01
6.854797995e-01,9.23192e-01,9.99999e-01,9.99999e-01,9.99114e-01,9.24017e-01,9.99991e-01
6.889071985e-01,9.23461e-01,9.99999e-01,9.99999e-01,9.97858e-01,9.25460e-01,9.99980e-01
6.923517345e-01,8.94853e-01,9.99999e-01,9.99999e-01,9.65610e-01,9.26877e-01,9.99831e-01
6.958134932e-01,9.11198e-01,9.99999e-01,9.99999e-01,9.81974e-01,9.28269e-01,9.99628e-01
6.992925606e-01,9.13381e-01,9.99999e-01,9.99999e-01,9.82844e-01,9.29634e-01,9.99664e-01
7.027890234e-01,9.11052e-01,9.99999e-01,9.99999e-01,9.78849e-01,9.30975e-01,9.99743e-01
7.063029686e-01,9.15561e-01,9.99999e-01,9.99999e-01,9.82178e-01,9.32291e-01,9.99872e-01
7.098344834e-01,9.17542e-01,9.99999e-01,9.99999e-01,9.82890e-01,9.33583e-01,9.99924e-01
7.133836558e-01,9.13510e-01,9.99999e-01,9.99999e-01,9.77316e-01,9.34851e-01,9.99850e-01
7.169505741e-01,7.79361e-01,9.99999e-01,9.99999e-01,8.33544e-01,9.36096e-01,9.98823e-01
7.205353270e-01,8.55231e-01,9.99999e-01,9.99999e-01,9.14319e-01,9.37318e-01,9.97925e-01
7.241380036e-01,8.35916e-01,9.99999e-01,9.99999e-01,8.92274e-01,9.38517e-01,9.98208e-01
7.277586936e-01,8.46635e-01,9.99999e-01,9.99999e-01,9.02289e-01,9.39694e-01,9.98535e-01
7.313974871e-01,8.42445e-01,9.99999e-01,9.99999e-01,8.96023e-01,9.40849e-01,9.99313e-01
7.350544745e-01,8.86837e-01,9.99999e-01,9.99999e-01,9.41681e-01,9.41983e-01,9.99761e-01
7.387297469e-01,9.02131e-01,9.99999e-01,9.99999e-01,9.56667e-01,9.43096e-01,9.99890e-01
7.424233956e-01,9.23908e-01,9.99999e-01,9.99999e-01,9.78541e-01,9.44188e-01,9.99978e-01
7.461355126e-01,9.32911e-01,9.99999e-01,9.99999e-01,9.86939e-01,9.45260e-01,9.99995e-01
7.498661902e-01,9.40536e-01,9.99999e-01,9.99999e-01,9.93897e-01,9.46311e-01,9.99998e-01
7.536155211e-01,9.44504e-01,9.99999e-01,9.99999e-01,9.97002e-01,9.47343e-01,9.99998e-01
7.573835987e-01,9.46892e-01,9.99999e-01,9.99999e-01,9.98456e-01,9.48356e-01,9.99999e-01
7.611705167e-01,9.48439e-01,9.99999e-01,9.99999e-01,9.99040e-01,9.49350e-01,9.99999e-01
7.649763693e-01,9.49754e-01,9.99999e-01,9.99999e-01,9.99398e-01,9.50325e-01,9.99999e-01
7.688012511e-01,9.50884e-01,9.99999e-01,9.99999e-01,9.99580e-01,9.51282e-01,9.99999e-01
7.726452574e-01,9.51893e-01,9.99999e-01,9.99999e-01,9.99655e-01,9.52221e-01,9.99999e-01
7.765084837e-01,9.52675e-01,9.99999e-01,9.99999e-01,9.99510e-01,9.53142e-01,9.99998e-01
7.803910261e-01,9.52028e-01,9.99999e-01,9.99999e-01,9.97886e-01,9.54046e-01,9.99997e-01
7.842929812e-01,9.47893e-01,9.99999e-01,9.99999e-01,9.92640e-01,9.54933e-01,9.99985e-01
7.882144461e-01,9.41270e-01,9.99999e-01,9.99999e-01,9.84886e-01,9.55803e-01,9.99906e-01
7.921555184e-01,9.48534e-01,9.99999e-01,9.99999e-01,9.91686e-01,9.56657e-01,9.99819e-01
7.961162960e-01,9.43315e-01,9.99999e-01,9.99999e-01,9.85360e-01,9.57495e-01,9.99827e-01
8.000968774e-01,9.41937e-01,9.99999e-01,9.99999e-01,9.83087e-01,9.58316e-01,9.99816e-01
8.040973618e-01,9.42766e-01,9.99999e-01,9.99999e-01,9.83088e-01,9.59123e-01,9.99853e-01
8.081178486e-01,9.23671e-01,9.99999e-01,9.99999e-01,9.62375e-01,9.59914e-01,9.99862e-01
8.121584379e-01,8.19236e-01,9.99999e-01,9.99999e-01,8.53215e-01,9.60690e-01,9.99462e-01
8.162192301e-01,7.95021e-01,9.99999e-01,9.99999e-01,8.28569e-01,9.61451e-01,9.97981e-01
8.203003262e-01,8.75750e-01,9.99999e-01,9.99999e-01,9.12310e-01,9.62198e-01,9.97637e-01
8.244018279e-01,8.46403e-01,9.99999e-01,9.99999e-01,8.80642e-01,9.62930e-01,9.98118e-01
8.285238370e-01,8.59578e-01,9.99999e-01,9.99999e-01,8.93322e-01,9.63649e-01,9.98522e-01
8.326664562e-01,8.60063e-01,9.99999e-01,9.99999e-01,8.92398e-01,9.64354e-01,9.99388e-01
8.368297885e-01,8.89143e-01,9.99999e-01,9.99999e-01,9.21475e-01,9.65046e-01,9.99859e-01
8.410139374e-01,9.19789e-01,9.99999e-01,9.99999e-01,9.52511e-01,9.65724e-01,9.99917e-01
8.452190071e-01,9.43541e-01,9.99999e-01,9.99999e-01,9.76403e-01,9.66390e-01,9.99950e-01
8.494451021e-01,9.53698e-01,9.99999e-01,9.99999e-01,9.86238e-01,9.67043e-01,9.99960e-01
8.536923276e-01,9.59764e-01,9.99999e-01,9.99999e-01,9.91840e-01,9.67683e-01,9.99975e-01
8.579607893e-01,9.63434e-01,9.99999e-01,9.99999e-01,9.94968e-01,9.68311e-01,9.99993e-01
8.622505932e-01,9.65826e-01,9.99999e-01,9.99999e-01,9.96800e-01,9.68927e-01,9.99998e-01
8.665618462e-01,9.67612e-01,9.99999e-01,9.99999e-01,9.98020e-01,9.69531e-01,9.99998e-01
8.708946554e-01,9.67925e-01,9.99999e-01,9.99999e-01,9.97733e-01,9.70124e-01,9.99998e-01
8.752491287e-01,9.67760e-01,9.99999e-01,9.99999e-01,9.96968e-01,9.70706e-01,9.99996e-01
8.796253743e-01,9.67193e-01,9.99999e-01,9.99999e-01,9.95805e-01,9.71276e-01,9.99990e-01
8.840235012e-01,9.67152e-01,9.99999e-01,9.99999e-01,9.95209e-01,9.71835e-01,9.99970e-01
8.884436187e-01,9.55501e-01,9.99999e-01,9.99999e-01,9.82718e-01,9.72384e-01,9.99916e-01
8.928858368e-01,8.10847e-01,9.99999e-01,9.99999e-01,8.33813e-01,9.72922e-01,9.99520e-01
8.973502660e-01,7.05194e-01,9.99999e-01,9.99999e-01,7.26210e-01,9.73449e-01,9.97545e-01
9.018370173e-01,8.24054e-01,9.99999e-01,9.99999e-01,8.49354e-01,9.73967e-01,9.96143e-01
9.063462024e-01,8.40704e-01,9.99999e-01,9.99999e-01,8.65658e-01,9.74474e-01,9.96611e-01
9.108779334e-01,7.75972e-01,9.99999e-01,9.99999e-01,7.98703e-01,9.74972e-01,9.96478e-01
9.154323231e-01,7.52643e-01,9.99999e-01,9.99999e-01,7.73829e-01,9.75460e-01,9.97088e-01
9.200094847e-01,7.97679e-01,9.99999e-01,9.99999e-01,8.18679e-01,9.75939e-01,9.98369e-01
9.246095321e-01,7.21411e-01,9.99999e-01,9.99999e-01,7.40231e-01,9.76409e-01,9.98121e-01
9.292325798e-01,1.51123e-01,9.99999e-01,9.99999e-01,1.55840e-01,9.76869e-01,9.92694e-01
9.338787427e-01,8.43211e-02,9.99999e-01,9.99999e-01,8.89327e-02,9.77321e-01,9.70145e-01
9.385481364e-01,3.51415e-01,9.99999e-01,9.99999e-01,3.72599e-01,9.77764e-01,9.64593e-01
9.432408771e-01,2.54942e-01,9.99999e-01,9.99999e-01,2.68856e-01,9.78198e-01,9.69379e-01
9.479570815e-01,1.53230e-01,9.99999e-01,9.99999e-01,1.60590e-01,9.78624e-01,9.75006e-01
9.526968669e-01,2.32657e-01,9.99999e-01,9.99999e-01,2.41335e-01,9.79042e-01,9.84680e-01
9.574603512e-01,2.49714e-01,9.99999e-01,9.99999e-01,2.56959e-01,9.79452e-01,9.92188e-01
9.622476530e-01,3.15356e-01,9.99999e-01,9.99999e-01,3.23589e-01,9.79853e-01,9.94591e-01
9.670588912e-01,5.05767e-01,9.99999e-01,9.99999e-01,5.17874e-01,9.80247e-01,9.96298e-01
9.718941857e-01,6.39697e-01,9.99999e-01,9.99999e-01,6.54113e-01,9.80634e-01,9.97273e-01
9.767536566e-01,6.87761e-01,9.99999e-01,9.99999e-01,7.02536e-01,9.81013e-01,9.97915e-01
9.816374249e-01,7.53683e-01,9.99999e-01,9.99999e-01,7.68533e-01,9.81384e-01,9.99277e-01
9.865456120e-01,8.32204e-01,9.99999e-01,9.99999e-01,8.47802e-01,9.81748e-01,9.99849e-01
9.914783401e-01,8.86539e-01,9.99999e-01,9.99999e-01,9.02729e-01,9.82106e-01,9.99957e-01
9.964357318e-01,9.29168e-01,9.99999e-01,9.99999e-01,9.45782e-01,9.82456e-01,9.99975e-01
1.001417910e+00,9.50453e-01,9.99999e-01,9.99999e-01,9.67123e-01,9.82800e-01,9.99962e-01
1.006425000e+00,9.64524e-01,9.99999e-01,9.99999e-01,9.81120e-01,9.83136e-01,9.99946e-01
1.011457125e+00,9.71855e-01,9.99999e-01,9.99999e-01,9.88241e-01,9.83467e-01,9.99950e-01
1.016514411e+00,9.75889e-01,9.99999e-01,9.99999e-01,9.92001e-01,9.83791e-01,9.99964e-01
1.021596983e+00,9.77798e-01,9.99999e-01,9.99999e-01,9.93622e-01,9.84108e-01,9.99964e-01
1.026704968e+00,9.79498e-01,9.99999e-01,9.99999e-01,9.95022e-01,9.84420e-01,9.99976e-01
1.031838492e+00,9.81155e-01,9.99999e-01,9.99999e-01,9.96380e-01,9.84725e-01,9.99993e-01
1.036997685e+00,9.82905e-01,9.99999e-01,9.99999e-01,9.97848e-01,9.85024e-01,9.99998e-01
1.042182673e+00,9.82792e-01,9.99999e-01,9.99999e-01,9.97435e-01,9.85318e-01,9.99999e-01
1.047393587e+00,9.82255e-01,9.99999e-01,9.99999e-01,9.96600e-01,9.85606e-01,9.99998e-01
1.052630555e+00,9.81291e-01,9.99999e-01,9.99999e-01,9.95338e-01,9.85888e-01,9.99998e-01
1.057893707e+00,9.78500e-01,9.99999e-01,9.99999e-01,9.92229e-01,9.86165e-01,9.99996e-01
1.063183176e+00,9.73851e-01,9.99999e-01,9.99999e-01,9.87247e-01,9.86436e-01,9.99992e-01
1.068499092e+00,9.65711e-01,9.99999e-01,9.99999e-01,9.78739e-01,9.86702e-01,9.99985e-01
1.073841587e+00,9.62451e-01,9.99999e-01,9.99999e-01,9.75194e-01,9.86963e-01,9.99967e-01
1.079210795e+00,9.55837e-01,9.99999e-01,9.99999e-01,9.68293e-01,9.87219e-01,9.99913e-01
1.084606849e+00,9.40319e-01,9.99999e-01,9.99999e-01,9.52446e-01,9.87470e-01,9.99793e-01
1.090029883e+00,9.20720e-01,9.99999e-01,9.99999e-01,9.32569e-01,9.87716e-01,9.99571e-01
1.095480033e+00,8.16358e-01,9.99999e-01,9.99999e-01,8.26949e-01,9.87957e-01,9.99225e-01
1.100957433e+00,6.12653e-01,9.99999e-01,9.99999e-01,6.20856e-01,9.88194e-01,9.98575e-01
1.106462220e+00,3.09313e-01,9.99999e-01,9.99999e-01,3.13692e-01,9.88425e-01,9.97584e-01
1.111994531e+00,9.17390e-02,9.99999e-01,9.99999e-01,9.33894e-02,9.88653e-01,9.93601e-01
1.117554504e+00,2.41301e-02,9.99999e-01,9.99999e-01,2.49736e-02,9.88876e-01,9.77092e-01
1.123142276e+00,7.58265e-02,9.99999e-01,9.99999e-01,8.09933e-02,9.89094e-01,9.46528e-01
1.128757988e+00,1.58497e-01,9.99999e-01,9.99999e-01,1.70726e-01,9.89308e-01,9.38405e-01
1.134401778e+00,7.09905e-02,9.99999e-01,9.99999e-01,7.57273e-02,9.89518e-01,9.47378e-01
1.140073787e+00,3.12881e-01,9.99999e-01,9.99999e-01,3.30081e-01,9.89724e-01,9.57728e-01
1.145774156e+00,1.11773e-01,9.99999e-01,9.99999e-01,1.17463e-01,9.89926e-01,9.61236e-01
1.151503026e+00,9.06072e-02,9.99999e-01,9.99999e-01,9.35486e-02,9.90124e-01,9.78216e-01
1.157260541e+00,1.16069e-01,9.99999e-01,9.99999e-01,1.17978e-01,9.90318e-01,9.93436e-01
1.163046844e+00,2.00318e-01,9.99999e-01,9.99999e-01,2.02615e-01,9.90509e-01,9.98134e-01
1.168862078e+00,3.14419e-01,9.99999e-01,9.99999e-01,3.17677e-01,9.90695e-01,9.99038e-01
1.174706389e+00,4.86271e-01,9.99999e-01,9.99999e-01,4.91373e-01,9.90878e-01,9.98725e-01
1.180579921e+00,6.39760e-01,9.99999e-01,9.99999e-01,6.46777e-01,9.91058e-01,9.98074e-01
1.186482820e+00,7.71718e-01,9.99999e-01,9.99999e-01,7.80084e-01,9.91233e-01,9.98023e-01
1.192415234e+00,8.55964e-01,9.99999e-01,9.99999e-01,8.64663e-01,9.91406e-01,9.98519e-01
1.198377311e+00,8.76047e-01,9.99999e-01,9.99999e-01,8.84727e-01,9.91575e-01,9.98601e-01
1.204369197e+00,8.82469e-01,9.99999e-01,9.99999e-01,8.90945e-01,9.91741e-01,9.98734e-01
1.210391043e+00,8.87292e-01,9.99999e-01,9.99999e-01,8.95223e-01,9.91903e-01,9.99229e-01
1.216442998e+00,9.02488e-01,9.99999e-01,9.99999e-01,9.10138e-01,9.92062e-01,9.99528e-01
1.222525213e+00,9.21683e-01,9.99999e-01,9.99999e-01,9.29183e-01,9.92218e-01,9.99706e-01
1.228637839e+00,9.42878e-01,9.99999e-01,9.99999e-01,9.50255e-01,9.92372e-01,9.99863e-01
