#,Wave/freq,Total,N2,O2,H2O,Rayleigh,CIA
4.000000000e-01,3.03132e-02,9.99999e-01,9.99999e-01,9.99605e-01,3.03251e-02,9.99999e-01
4.020000000e-01,3.24875e-02,9.99999e-01,9.99999e-01,9.99754e-01,3.24954e-02,9.99999e-01
4.040100000e-01,3.47674e-02,9.99999e-01,9.99999e-01,9.99895e-01,3.47710e-02,9.99999e-01
4.060300500e-01,3.71554e-02,9.99999e-01,9.99999e-01,9.99975e-01,3.71563e-02,9.99999e-01
4.080602003e-01,3.96528e-02,9.99999e-01,9.99999e-01,9.99991e-01,3.96531e-02,9.99999e-01
4.101005013e-01,4.22634e-02,9.99999e-01,9.99999e-01,9.99998e-01,4.22635e-02,9.99999e-01
4.121510038e-01,4.49883e-02,9.99999e-01,9.99999e-01,9.99985e-01,4.49889e-02,9.99999e-01
4.142117588e-01,4.78259e-02,9.99999e-01,9.99999e-01,9.99892e-01,4.78311e-02,9.99999e-01
4.162828176e-01,5.07664e-02,9.99999e-01,9.99999e-01,9.99510e-01,5.07913e-02,9.99999e-01
4.183642317e-01,5.38551e-02,9.99999e-01,9.99999e-01,9.99709e-01,5.38707e-02,9.99999e-01
4.204560528e-01,5.70603e-02,9.99999e-01,9.99999e-01,9.99821e-01,5.70705e-02,9.99999e-01
4.225583331e-01,6.03875e-02,9.99999e-01,9.99999e-01,9.99932e-01,6.03915e-02,9.99999e-01
4.246711247e-01,6.38310e-02,9.99999e-01,9.99999e-01,9.99947e-01,6.38344e-02,9.99999e-01
4.267944804e-01,6.73944e-02,9.99999e-01,9.99999e-01,9.99921e-01,6.73996e-02,9.99999e-01
4.289284528e-01,7.10834e-02,9.99999e-01,9.99999e-01,9.99939e-01,7.10877e-02,9.99999e-01
4.310730950e-01,7.48968e-02,9.99999e-01,9.99999e-01,9.99973e-01,7.48987e-02,9.99999e-01
4.332284605e-01,7.88322e-02,9.99999e-01,9.99999e-01,9.99992e-01,7.88327e-02,9.99999e-01
4.353946028e-01,8.28892e-02,9.99999e-01,9.99999e-01,9.99996e-01,8.28894e-02,9.99999e-01
4.375715758e-01,8.70645e-02,9.99999e-01,9.99999e-01,9.99952e-01,8.70686e-02,9.99999e-01
4.397594337e-01,9.13308e-02,9.99999e-01,9.99999e-01,9.99574e-01,9.13696e-02,9.99999e-01
4.419582309e-01,9.55855e-02,9.99999e-01,9.99999e-01,9.97845e-01,9.57918e-02,9.99999e-01
4.441680220e-01,1.00163e-01,9.99999e-01,9.99999e-01,9.98293e-01,1.00334e-01,9.99999e-01
4.463888621e-01,1.04811e-01,9.99999e-01,9.99999e-01,9.98231e-01,1.04996e-01,9.99999e-01
4.486208064e-01,1.09655e-01,9.99999e-01,9.99999e-01,9.98897e-01,1.09776e-01,9.99999e-01
4.508639105e-01,1.14614e-01,9.99999e-01,9.99999e-01,9.99484e-01,1.14673e-01,9.99999e-01
4.531182300e-01,1.19660e-01,9.99999e-01,9.99999e-01,9.99795e-01,1.19685e-01,9.99999e-01
4.553838212e-01,1.24793e-01,9.99999e-01,9.99999e-01,9.99861e-01,1.24810e-01,9.99999e-01
4.576607403e-01,1.30039e-01,9.99999e-01,9.99999e-01,9.99935e-01,1.30047e-01,9.99999e-01
4.599490440e-01,1.35388e-01,9.99999e-01,9.99999e-01,9.99954e-01,1.35394e-01,9.99999e-01
4.622487892e-01,1.40847e-01,9.99999e-01,9.99999e-01,9.99991e-01,1.40849e-01,9.99999e-01
4.645600332e-01,1.46404e-01,9.99999e-01,9.99999e-01,9.99969e-01,1.46409e-01,9.99999e-01
4.668828333e-01,1.51993e-01,9.99999e-01,9.99999e-01,9.99482e-01,1.52072e-01,9.99999e-01
4.692172475e-01,1.57661e-01,9.99999e-01,9.99999e-01,9.98889e-01,1.57836e-01,9.99999e-01
4.715633337e-01,1.63579e-01,9.99999e-01,9.99999e-01,9.99275e-01,1.63698e-01,9.99999e-01
4.739211504e-01,1.69537e-01,9.99999e-01,9.99999e-01,9.99304e-01,1.69655e-01,9.99999e-01
4.762907561e-01,1.75642e-01,9.99999e-01,9.99999e-01,9.99638e-01,1.75705e-01,9.99999e-01
4.786722099e-01,1.81819e-01,9.99999e-01,9.99999e-01,9.99852e-01,1.81845e-01,9.99999e-01
4.810655710e-01,1.88064e-01,9.99999e-01,9.99999e-01,9.99955e-01,1.88072e-01,9.99999e-01
4.834708988e-01,1.94302e-01,9.99999e-01,9.99999e-01,9.99580e-01,1.94383e-01,9.99999e-01
4.858882533e-01,2.00617e-01,9.99999e-01,9.99999e-01,9.99212e-01,2.00775e-01,9.99999e-01
4.883176946e-01,2.07109e-01,9.99999e-01,9.99999e-01,9.99343e-01,2.07245e-01,9.99999e-01
4.907592831e-01,2.13661e-01,9.99999e-01,9.99999e-01,9.99404e-01,2.13788e-01,9.99999e-01
4.932130795e-01,2.20311e-01,9.99999e-01,9.99999e-01,9.99577e-01,2.20404e-01,9.99999e-01
4.956791449e-01,2.27036e-01,9.99999e-01,9.99999e-01,9.99776e-01,2.27087e-01,9.99999e-01
4.981575406e-01,2.33575e-01,9.99999e-01,9.99999e-01,9.98888e-01,2.33834e-01,9.99999e-01
5.006483283e-01,2.39949e-01,9.99999e-01,9.99999e-01,9.97133e-01,2.40643e-01,9.99980e-01
5.031515699e-01,2.43885e-01,9.99999e-01,9.99999e-01,9.85502e-01,2.47510e-01,9.99846e-01
5.056673278e-01,2.52426e-01,9.99999e-01,9.99999e-01,9.92291e-01,2.54432e-01,9.99823e-01
5.081956644e-01,2.58834e-01,9.99999e-01,9.99999e-01,9.90277e-01,2.61404e-01,9.99886e-01
5.107366428e-01,2.66655e-01,9.99999e-01,9.99999e-01,9.93426e-01,2.68425e-01,9.99978e-01
5.132903260e-01,2.74451e-01,9.99999e-01,9.99999e-01,9.96234e-01,2.75489e-01,9.99997e-01
5.158567776e-01,2.82145e-01,9.99999e-01,9.99999e-01,9.98407e-01,2.82595e-01,9.99999e-01
5.184360615e-01,2.89553e-01,9.99999e-01,9.99999e-01,9.99362e-01,2.89738e-01,9.99999e-01
5.210282418e-01,2.96844e-01,9.99999e-01,9.99999e-01,9.99762e-01,2.96915e-01,9.99999e-01
5.236333830e-01,3.03830e-01,9.99999e-01,9.99999e-01,9.99045e-01,3.04122e-01,9.99992e-01
5.262515499e-01,3.11169e-01,9.99999e-01,9.99999e-01,9.99401e-01,3.11358e-01,9.99990e-01
5.288828077e-01,3.18441e-01,9.99999e-01,9.99999e-01,9.99453e-01,3.18617e-01,9.99993e-01
5.315272217e-01,3.25739e-01,9.99999e-01,9.99999e-01,9.99516e-01,3.25897e-01,9.99998e-01
5.341848578e-01,3.33090e-01,9.99999e-01,9.99999e-01,9.99685e-01,3.33195e-01,9.99999e-01
5.368557821e-01,3.40129e-01,9.99999e-01,9.99999e-01,9.98892e-01,3.40507e-01,9.99996e-01
5.395400610e-01,3.46436e-01,9.99999e-01,9.99999e-01,9.96023e-01,3.47831e-01,9.99966e-01
5.422377613e-01,3.53288e-01,9.99999e-01,9.99999e-01,9.94814e-01,3.55162e-01,9.99905e-01
5.449489501e-01,3.60724e-01,9.99999e-01,9.99999e-01,9.95198e-01,3.62499e-01,9.99902e-01
5.476736949e-01,3.68240e-01,9.99999e-01,9.99999e-01,9.95725e-01,3.69838e-01,9.99952e-01
5.504120634e-01,3.76002e-01,9.99999e-01,9.99999e-01,9.96897e-01,3.77177e-01,9.99986e-01
5.531641237e-01,3.83910e-01,9.99999e-01,9.99999e-01,9.98438e-01,3.84511e-01,9.99997e-01
5.559299443e-01,3.91544e-01,9.99999e-01,9.99999e-01,9.99245e-01,3.91839e-01,9.99999e-01
5.587095940e-01,3.98970e-01,9.99999e-01,9.99999e-01,9.99528e-01,3.99158e-01,9.99999e-01
5.615031420e-01,4.06252e-01,9.99999e-01,9.99999e-01,9.99474e-01,4.06465e-01,9.99998e-01
5.643106577e-01,4.13512e-01,9.99999e-01,9.99999e-01,9.99409e-01,4.13758e-01,9.99994e-01
5.671322110e-01,4.18013e-01,9.99999e-01,9.99999e-01,9.92888e-01,4.21033e-01,9.99935e-01
5.699678720e-01,4.24905e-01,9.99999e-01,9.99999e-01,9.92293e-01,4.28289e-01,9.99803e-01
5.728177114e-01,4.31975e-01,9.99999e-01,9.99999e-01,9.92015e-01,4.35523e-01,9.99835e-01
5.756818000e-01,4.39439e-01,9.99999e-01,9.99999e-01,9.92660e-01,4.42733e-01,9.99899e-01
5.785602090e-01,4.47021e-01,9.99999e-01,9.99999e-01,9.93595e-01,4.49916e-01,9.99969e-01
5.814530100e-01,4.54128e-01,9.99999e-01,9.99999e-01,9.93576e-01,4.57070e-01,9.99985e-01
5.843602750e-01,4.60643e-01,9.99999e-01,9.99999e-01,9.92393e-01,4.64193e-01,9.99956e-01
5.872820764e-01,4.41380e-01,9.99999e-01,9.99999e-01,9.36981e-01,4.71284e-01,9.99535e-01
5.902184868e-01,4.40921e-01,9.99999e-01,9.99999e-01,9.22941e-01,4.78339e-01,9.98735e-01
5.931695792e-01,4.58287e-01,9.99999e-01,9.99999e-01,9.45387e-01,4.85358e-01,9.98769e-01
5.961354271e-01,4.62424e-01,9.99999e-01,9.99999e-01,9.39940e-01,4.92338e-01,9.99256e-01
5.991161043e-01,4.77046e-01,9.99999e-01,9.99999e-01,9.55680e-01,4.99277e-01,9.99783e-01
6.021116848e-01,4.93295e-01,9.99999e-01,9.99999e-01,9.74581e-01,5.06174e-01,9.99973e-01
6.051222432e-01,5.06384e-01,9.99999e-01,9.99999e-01,9.87050e-01,5.13028e-01,9.99997e-01
6.081478544e-01,5.16924e-01,9.99999e-01,9.99999e-01,9.94398e-01,5.19836e-01,9.99999e-01
6.111885937e-01,5.25346e-01,9.99999e-01,9.99999e-01,9.97622e-01,5.26597e-01,9.99999e-01
6.142445367e-01,5.32745e-01,9.99999e-01,9.99999e-01,9.98939e-01,5.33310e-01,9.99999e-01
6.173157594e-01,5.39658e-01,9.99999e-01,9.99999e-01,9.99415e-01,5.39974e-01,9.99999e-01
6.204023382e-01,5.46317e-01,9.99999e-01,9.99999e-01,9.99506e-01,5.46587e-01,9.99998e-01
6.235043498e-01,5.51954e-01,9.99999e-01,9.99999e-01,9.97847e-01,5.53148e-01,9.99994e-01
6.266218716e-01,5.53193e-01,9.99999e-01,9.99999e-01,9.88533e-01,5.59655e-01,9.99918e-01
6.297549810e-01,5.63629e-01,9.99999e-01,9.99999e-01,9.95780e-01,5.66109e-01,9.99837e-01
6.329037559e-01,5.67654e-01,9.99999e-01,9.99999e-01,9.91652e-01,5.72507e-01,9.99870e-01
6.360682746e-01,5.74701e-01,9.99999e-01,9.99999e-01,9.92909e-01,5.78849e-01,9.99922e-01
6.392486160e-01,5.79734e-01,9.99999e-01,9.99999e-01,9.90805e-01,5.85133e-01,9.99965e-01
6.424448591e-01,5.84109e-01,9.99999e-01,9.99999e-01,9.87790e-01,5.91360e-01,9.99945e-01
6.456570834e-01,5.64346e-01,9.99999e-01,9.99999e-01,9.44765e-01,5.97529e-01,9.99682e-01
6.488853688e-01,5.78420e-01,9.99999e-01,9.99999e-01,9.59073e-01,6.03637e-01,9.99112e-01
6.521297956e-01,5.83900e-01,9.99999e-01,9.99999e-01,9.58418e-01,6.09686e-01,9.99255e-01
6.553904446e-01,5.89828e-01,9.99999e-01,9.99999e-01,9.58553e-01,6.15674e-01,9.99441e-01
6.586673968e-01,5.99260e-01,9.99999e-01,9.99999e-01,9.64233e-01,6.21601e-01,9.99817e-01
6.619607338e-01,6.14336e-01,9.99999e-01,9.99999e-01,9.79111e-01,6.27466e-01,9.99960e-01
6.652705375e-01,6.25548e-01,9.99999e-01,9.99999e-01,9.87826e-01,6.33270e-01,9.99979e-01
6.685968902e-01,6.35385e-01,9.99999e-01,9.99999e-01,9.94329e-01,6.39010e-01,9.99996e-01
6.719398746e-01,6.42990e-01,9.99999e-01,9.99999e-01,9.97366e-01,6.44688e-01,9.99999e-01
6.752995740e-01,6.49377e-01,9.99999e-01,9.99999e-01,9.98577e-01,6.50302e-01,9.99999e-01
6.786760719e-01,6.54509e-01,9.99999e-01,9.99999e-01,9.97953e-01,6.55853e-01,9.99996e-01
6.820694522e-01,6.59007e-01,9.99999e-01,9.99999e-01,9.96489e-01,6.61341e-01,9.99981e-01
6.854797995e-01,6.63721e-01,9.99999e-01,9.99999e-01,9.95474e-01,6.66764e-01,9.99960e-01
6.889071985e-01,6.64817e-01,9.99999e-01,9.99999e-01,9.89225e-01,6.72124e-01,9.99901e-01
6.923517345e-01,5.67894e-01,9.99999e-01,9.99999e-01,8.39038e-01,6.77419e-01,9.99142e-01
6.958134932e-01,6.21375e-01,9.99999e-01,9.99999e-01,9.12003e-01,6.82651e-01,9.98064e-01
6.992925606e-01,6.29060e-01,9.99999e-01,9.99999e-01,9.16133e-01,6.87818e-01,9.98296e-01
7.027890234e-01,6.20699e-01,9.99999e-01,9.99999e-01,8.96943e-01,6.92921e-01,9.98692e-01
7.063029686e-01,6.36300e-01,9.99999e-01,9.99999e-01,9.12249e-01,6.97960e-01,9.99349e-01
7.098344834e-01,6.43298e-01,9.99999e-01,9.99999e-01,9.15511e-01,7.02935e-01,9.99614e-01
7.133836558e-01,6.30447e-01,9.99999e-01,9.99999e-01,8.91336e-01,7.07847e-01,9.99235e-01
7.169505741e-01,3.07532e-01,9.99999e-01,9.99999e-01,4.34111e-01,7.12694e-01,9.93997e-01
7.205353270e-01,4.60538e-01,9.99999e-01,9.99999e-01,6.48739e-01,7.17478e-01,9.89433e-01
7.241380036e-01,4.12480e-01,9.99999e-01,9.99999e-01,5.76408e-01,7.22199e-01,9.90868e-01
7.277586936e-01,4.39234e-01,9.99999e-01,9.99999e-01,6.08840e-01,7.26857e-01,9.92529e-01
7.313974871e-01,4.23579e-01,9.99999e-01,9.99999e-01,5.81131e-01,7.31451e-01,9.96494e-01
7.350544745e-01,5.43985e-01,9.99999e-01,9.99999e-01,7.40028e-01,7.35984e-01,9.98780e-01
7.387297469e-01,5.91149e-01,9.99999e-01,9.99999e-01,7.98807e-01,7.40453e-01,9.99440e-01
7.424233956e-01,6.66619e-01,9.99999e-01,9.99999e-01,8.95052e-01,7.44861e-01,9.99891e-01
7.461355126e-01,7.00445e-01,9.99999e-01,9.99999e-01,9.34931e-01,7.49208e-01,9.99980e-01
7.498661902e-01,7.30185e-01,9.99999e-01,9.99999e-01,9.69073e-01,7.53493e-01,9.99992e-01
7.536155211e-01,7.46141e-01,9.99999e-01,9.99999e-01,9.84725e-01,7.57717e-01,9.99995e-01
7.573835987e-01,7.55866e-01,9.99999e-01,9.99999e-01,9.92104e-01,7.61881e-01,9.99998e-01
7.611705167e-01,7.62223e-01,9.99999e-01,9.99999e-01,9.95088e-01,7.65985e-01,9.99999e-01
7.649763693e-01,7.67660e-01,9.99999e-01,9.99999e-01,9.96922e-01,7.70029e-01,9.99999e-01
7.688012511e-01,7.72356e-01,9.99999e-01,9.99999e-01,9.97857e-01,7.74014e-01,9.99999e-01
7.726452574e-01,7.76569e-01,9.99999e-01,9.99999e-01,9.98237e-01,7.77941e-01,9.99998e-01
7.765084837e-01,7.79858e-01,9.99999e-01,9.99999e-01,9.97507e-01,7.81809e-01,9.99996e-01
7.803910261e-01,7.77193e-01,9.99999e-01,9.99999e-01,9.89284e-01,7.85619e-01,9.99989e-01
7.842929812e-01,7.60261e-01,9.99999e-01,9.99999e-01,9.63187e-01,7.89372e-01,9.99930e-01
7.882144461e-01,7.33377e-01,9.99999e-01,9.99999e-01,9.25173e-01,7.93069e-01,9.99524e-01
7.921555184e-01,7.62694e-01,9.99999e-01,9.99999e-01,9.58187e-01,7.96709e-01,9.99079e-01
7.961162960e-01,7.41977e-01,9.99999e-01,9.99999e-01,9.27949e-01,8.00293e-01,9.99117e-01
8.000968774e-01,7.35947e-01,9.99999e-01,9.99999e-01,9.16418e-01,8.03823e-01,9.99061e-01
8.040973618e-01,7.39448e-01,9.99999e-01,9.99999e-01,9.16637e-01,8.07297e-01,9.99254e-01
8.081178486e-01,6.68885e-01,9.99999e-01,9.99999e-01,8.25629e-01,8.10718e-01,9.99301e-01
8.121584379e-01,3.79784e-01,9.99999e-01,9.99999e-01,4.67799e-01,8.14085e-01,9.97255e-01
8.162192301e-01,3.30466e-01,9.99999e-01,9.99999e-01,4.08489e-01,8.17399e-01,9.89717e-01
8.203003262e-01,5.35969e-01,9.99999e-01,9.99999e-01,6.61045e-01,8.20661e-01,9.87970e-01
8.244018279e-01,4.72046e-01,9.99999e-01,9.99999e-01,5.78505e-01,8.23871e-01,9.90414e-01
8.285238370e-01,4.72377e-01,9.99999e-01,9.99999e-01,5.75509e-01,8.27030e-01,9.92464e-01
8.326664562e-01,4.75419e-01,9.99999e-01,9.99999e-01,5.74492e-01,8.30139e-01,9.96876e-01
8.368297885e-01,5.52550e-01,9.99999e-01,9.99999e-01,6.63642e-01,8.33197e-01,9.99285e-01
8.410139374e-01,6.53363e-01,9.99999e-01,9.99999e-01,7.81668e-01,8.36205e-01,9.99581e-01
8.452190071e-01,7.42654e-01,9.99999e-01,9.99999e-01,8.85211e-01,8.39165e-01,9.99749e-01
8.494451021e-01,7.84283e-01,9.99999e-01,9.99999e-01,9.31553e-01,8.42077e-01,9.99799e-01
8.536923276e-01,8.10068e-01,9.99999e-01,9.99999e-01,9.58854e-01,8.44941e-01,9.99867e-01
8.579607893e-01,8.26104e-01,9.99999e-01,9.99999e-01,9.74492e-01,8.47757e-01,9.99963e-01
8.622505932e-01,8.36655e-01,9.99999e-01,9.99999e-01,9.83694e-01,8.50527e-01,9.99994e-01
8.665618462e-01,8.44637e-01,9.99999e-01,9.99999e-01,9.89905e-01,8.53252e-01,9.99996e-01
8.708946554e-01,8.46052e-01,9.99999e-01,9.99999e-01,9.88464e-01,8.55931e-01,9.99993e-01
8.752491287e-01,8.45315e-01,9.99999e-01,9.99999e-01,9.84583e-01,8.58565e-01,9.99983e-01
8.796253743e-01,8.42829e-01,9.99999e-01,9.99999e-01,9.78766e-01,8.61155e-01,9.99951e-01
8.840235012e-01,8.42664e-01,9.99999e-01,9.99999e-01,9.75787e-01,8.63701e-01,9.99850e-01
8.884436187e-01,7.94677e-01,9.99999e-01,9.99999e-01,9.17813e-01,8.66204e-01,9.99574e-01
8.928858368e-01,3.75656e-01,9.99999e-01,9.99999e-01,4.33514e-01,8.68665e-01,9.97549e-01
8.973502660e-01,1.98962e-01,9.99999e-01,9.99999e-01,2.31296e-01,8.71085e-01,9.87505e-01
9.018370173e-01,4.03566e-01,9.99999e-01,9.99999e-01,4.71255e-01,8.73463e-01,9.80425e-01
9.063462024e-01,4.40681e-01,9.99999e-01,9.99999e-01,5.11990e-01,8.75800e-01,9.82783e-01
9.108779334e-01,3.03927e-01,9.99999e-01,9.99999e-01,3.52422e-01,8.78097e-01,9.82116e-01
9.154323231e-01,2.56891e-01,9.99999e-01,9.99999e-01,2.96189e-01,8.80355e-01,9.85195e-01
9.200094847e-01,3.43734e-01,9.99999e-01,9.99999e-01,3.92733e-01,8.82573e-01,9.91686e-01
9.246095321e-01,2.33015e-01,9.99999e-01,9.99999e-01,2.65913e-01,8.84754e-01,9.90427e-01
9.292325798e-01,4.53842e-03,9.99999e-01,9.99999e-01,5.31278e-03,8.86896e-01,9.63183e-01
9.338787427e-01,8.86273e-05,9.99999e-01,9.99999e-01,1.16416e-04,8.89001e-01,8.56352e-01
9.385481364e-01,1.74113e-02,9.99999e-01,9.99999e-01,2.34973e-02,8.91070e-01,8.31572e-01
9.432408771e-01,6.70108e-03,9.99999e-01,9.99999e-01,8.79724e-03,8.93102e-01,8.52897e-01
9.479570815e-01,4.26217e-04,9.99999e-01,9.99999e-01,5.42001e-04,8.95099e-01,8.78535e-01
9.526968669e-01,2.16876e-03,9.99999e-01,9.99999e-01,2.61633e-03,8.97060e-01,9.24052e-01
9.574603512e-01,3.24006e-03,9.99999e-01,9.99999e-01,3.75166e-03,8.98987e-01,9.60672e-01
9.622476530e-01,8.34824e-03,9.99999e-01,9.99999e-01,9.52744e-03,9.00880e-01,9.72637e-01
9.670588912e-01,5.55170e-02,9.99999e-01,9.99999e-01,6.26762e-02,9.02739e-01,9.81205e-01
9.718941857e-01,1.19329e-01,9.99999e-01,9.99999e-01,1.33774e-01,9.04566e-01,9.86130e-01
9.767536566e-01,1.67849e-01,9.99999e-01,9.99999e-01,1.87177e-01,9.06359e-01,9.89383e-01
9.816374249e-01,2.48812e-01,9.99999e-01,9.99999e-01,2.74999e-01,9.08121e-01,9.96313e-01
9.865456120e-01,3.98318e-01,9.99999e-01,9.99999e-01,4.38119e-01,9.09852e-01,9.99230e-01
9.914783401e-01,5.42649e-01,9.99999e-01,9.99999e-01,5.95429e-01,9.11551e-01,9.99786e-01
9.964357318e-01,6.87887e-01,9.99999e-01,9.99999e-01,7.53347e-01,9.13220e-01,9.99874e-01
1.001417910e+00,7.71171e-01,9.99999e-01,9.99999e-01,8.43099e-01,9.14859e-01,9.99809e-01
1.006425000e+00,8.31115e-01,9.99999e-01,9.99999e-01,9.07112e-01,9.16468e-01,9.99728e-01
1.011457125e+00,8.63855e-01,9.99999e-01,9.99999e-01,9.41205e-01,9.18049e-01,9.99747e-01
1.016514411e+00,8.82384e-01,9.99999e-01,9.99999e-01,9.59699e-01,9.19601e-01,9.99821e-01
1.021596983e+00,8.91274e-01,9.99999e-01,9.99999e-01,9.67766e-01,9.21124e-01,9.99821e-01
1.026704968e+00,8.99236e-01,9.99999e-01,9.99999e-01,9.74770e-01,9.22620e-01,9.99880e-01
1.031838492e+00,9.07039e-01,9.99999e-01,9.99999e-01,9.81581e-01,9.24089e-01,9.99966e-01
1.036997685e+00,9.15377e-01,9.99999e-01,9.99999e-01,9.89033e-01,9.25531e-01,9.99994e-01
1.042182673e+00,9.14864e-01,9.99999e-01,9.99999e-01,9.86965e-01,9.26947e-01,9.99997e-01
1.047393587e+00,9.12303e-01,9.99999e-01,9.99999e-01,9.82730e-01,9.28337e-01,9.99996e-01
1.052630555e+00,9.07759e-01,9.99999e-01,9.99999e-01,9.76403e-01,9.29702e-01,9.99993e-01
1.057893707e+00,8.94716e-01,9.99999e-01,9.99999e-01,9.60996e-01,9.31041e-01,9.99985e-01
1.063183176e+00,8.73347e-01,9.99999e-01,9.99999e-01,9.36741e-01,9.32356e-01,9.99965e-01
1.068499092e+00,8.36992e-01,9.99999e-01,9.99999e-01,8.96541e-01,9.33647e-01,9.99925e-01
1.073841587e+00,8.23639e-01,9.99999e-01,9.99999e-01,8.81120e-01,9.34914e-01,9.99837e-01
1.079210795e+00,7.94737e-01,9.99999e-01,9.99999e-01,8.49307e-01,9.36158e-01,9.99561e-01
1.084606849e+00,7.32893e-01,9.99999e-01,9.99999e-01,7.82680e-01,9.37378e-01,9.98943e-01
1.090029883e+00,6.62973e-01,9.99999e-01,9.99999e-01,7.07909e-01,9.38576e-01,9.97811e-01
1.095480033e+00,3.68402e-01,9.99999e-01,9.99999e-01,3.93576e-01,9.39752e-01,9.96045e-01
1.100957433e+00,1.04876e-01,9.99999e-01,9.99999e-01,1.12278e-01,9.40906e-01,9.92734e-01
1.106462220e+00,8.30310e-03,9.99999e-01,9.99999e-01,8.92366e-03,9.42039e-01,9.87705e-01
1.111994531e+00,5.02629e-05,9.99999e-01,9.99999e-01,5.50716e-05,9.43151e-01,9.67693e-01
1.117554504e+00,9.15203e-07,9.99999e-01,9.99999e-01,1.09125e-06,9.44242e-01,8.88194e-01
1.123142276e+00,8.78135e-05,9.99999e-01,9.99999e-01,1.23054e-04,9.45312e-01,7.54902e-01
1.128757988e+00,4.11983e-04,9.99999e-01,9.99999e-01,6.02673e-04,9.46363e-01,7.22335e-01
1.134401778e+00,4.93911e-04,9.99999e-01,9.99999e-01,6.87437e-04,9.47394e-01,7.58376e-01
1.140073787e+00,5.31934e-03,9.99999e-01,9.99999e-01,6.99573e-03,9.48406e-01,8.01732e-01
1.145774156e+00,3.78955e-04,9.99999e-01,9.99999e-01,4.88636e-04,9.49399e-01,8.16870e-01
1.151503026e+00,7.68302e-05,9.99999e-01,9.99999e-01,9.04847e-05,9.50373e-01,8.93433e-01
1.157260541e+00,6.72701e-05,9.99999e-01,9.99999e-01,7.31346e-05,9.51329e-01,9.66869e-01
1.163046844e+00,8.18729e-04,9.99999e-01,9.99999e-01,8.68016e-04,9.52267e-01,9.90496e-01
1.168862078e+00,5.67952e-03,9.99999e-01,9.99999e-01,5.98782e-03,9.53188e-01,9.95092e-01
1.174706389e+00,3.44296e-02,9.99999e-01,9.99999e-01,3.63223e-02,9.54091e-01,9.93500e-01
1.180579921e+00,1.17382e-01,9.99999e-01,9.99999e-01,1.24134e-01,9.54977e-01,9.90188e-01
1.186482820e+00,2.74293e-01,9.99999e-01,9.99999e-01,2.89882e-01,9.55846e-01,9.89930e-01
1.192415234e+00,4.54561e-01,9.99999e-01,9.99999e-01,4.78749e-01,9.56699e-01,9.92449e-01
1.198377311e+00,5.12383e-01,9.99999e-01,9.99999e-01,5.38949e-01,9.57536e-01,9.92866e-01
1.204369197e+00,5.37044e-01,9.99999e-01,9.99999e-01,5.64021e-01,9.58357e-01,9.93543e-01
1.210391043e+00,5.48363e-01,9.99999e-01,9.99999e-01,5.73966e-01,9.59162e-01,9.96067e-01
1.216442998e+00,5.96835e-01,9.99999e-01,9.99999e-01,6.23235e-01,9.59953e-01,9.97589e-01
1.222525213e+00,6.60784e-01,9.99999e-01,9.99999e-01,6.88826e-01,9.60728e-01,9.98502e-01
1.228637839e+00,7.41052e-01,9.99999e-01,9.99999e-01,7.71271e-01,9.61489e-01,9.99302e-01
