#,Wave/freq,Total,N2,O2,H2O,Rayleigh,CIA
4.000000000e-01,3.26738e-03,9.99999e-01,9.99999e-01,9.99353e-01,3.26949e-03,9.99999e-01
4.020000000e-01,3.65976e-03,9.99999e-01,9.99999e-01,9.99598e-01,3.66123e-03,9.99999e-01
4.040100000e-01,4.08957e-03,9.99999e-01,9.99999e-01,9.99829e-01,4.09026e-03,9.99999e-01
4.060300500e-01,4.55940e-03,9.99999e-01,9.99999e-01,9.99960e-01,4.55958e-03,9.99999e-01
4.080602003e-01,5.07179e-03,9.99999e-01,9.99999e-01,9.99986e-01,5.07185e-03,9.99999e-01
4.101005013e-01,5.62983e-03,9.99999e-01,9.99999e-01,9.99998e-01,5.62983e-03,9.99999e-01
4.121510038e-01,6.23618e-03,9.99999e-01,9.99999e-01,9.99975e-01,6.23632e-03,9.99999e-01
4.142117588e-01,6.89299e-03,9.99999e-01,9.99999e-01,9.99823e-01,6.89421e-03,9.99999e-01
4.162828176e-01,7.60032e-03,9.99999e-01,9.99999e-01,9.99199e-01,7.60641e-03,9.99999e-01
4.183642317e-01,8.37192e-03,9.99999e-01,9.99999e-01,9.99523e-01,8.37590e-03,9.99999e-01
4.204560528e-01,9.20301e-03,9.99999e-01,9.99999e-01,9.99707e-01,9.20570e-03,9.99999e-01
4.225583331e-01,1.00977e-02,9.99999e-01,9.99999e-01,9.99890e-01,1.00988e-02,9.99999e-01
4.246711247e-01,1.10575e-02,9.99999e-01,9.99999e-01,9.99913e-01,1.10584e-02,9.99999e-01
4.267944804e-01,1.20859e-02,9.99999e-01,9.99999e-01,9.99871e-01,1.20874e-02,9.99999e-01
4.289284528e-01,1.31877e-02,9.99999e-01,9.99999e-01,9.99900e-01,1.31890e-02,9.99999e-01
4.310730950e-01,1.43656e-02,9.99999e-01,9.99999e-01,9.99957e-01,1.43662e-02,9.99999e-01
4.332284605e-01,1.56220e-02,9.99999e-01,9.99999e-01,9.99988e-01,1.56221e-02,9.99999e-01
4.353946028e-01,1.69596e-02,9.99999e-01,9.99999e-01,9.99994e-01,1.69597e-02,9.99999e-01
4.375715758e-01,1.83805e-02,9.99999e-01,9.99999e-01,9.99922e-01,1.83820e-02,9.99999e-01
4.397594337e-01,1.98780e-02,9.99999e-01,9.99999e-01,9.99304e-01,1.98918e-02,9.99999e-01
4.419582309e-01,2.14164e-02,9.99999e-01,9.99999e-01,9.96474e-01,2.14921e-02,9.99999e-01
4.441680220e-01,2.31210e-02,9.99999e-01,9.99999e-01,9.97206e-01,2.31858e-02,9.99999e-01
4.463888621e-01,2.49031e-02,9.99999e-01,9.99999e-01,9.97105e-01,2.49754e-02,9.99999e-01
4.486208064e-01,2.68153e-02,9.99999e-01,9.99999e-01,9.98197e-01,2.68637e-02,9.99999e-01
4.508639105e-01,2.88288e-02,9.99999e-01,9.99999e-01,9.99156e-01,2.88531e-02,9.99999e-01
4.531182300e-01,3.09360e-02,9.99999e-01,9.99999e-01,9.99666e-01,3.09463e-02,9.99999e-01
4.553838212e-01,3.31379e-02,9.99999e-01,9.99999e-01,9.99773e-01,3.31453e-02,9.99999e-01
4.576607403e-01,3.54489e-02,9.99999e-01,9.99999e-01,9.99895e-01,3.54526e-02,9.99999e-01
4.599490440e-01,3.78672e-02,9.99999e-01,9.99999e-01,9.99925e-01,3.78700e-02,9.99999e-01
4.622487892e-01,4.03992e-02,9.99999e-01,9.99999e-01,9.99986e-01,4.03997e-02,9.99999e-01
4.645600332e-01,4.30411e-02,9.99999e-01,9.99999e-01,9.99949e-01,4.30433e-02,9.99999e-01
4.668828333e-01,4.57637e-02,9.99999e-01,9.99999e-01,9.99152e-01,4.58025e-02,9.99999e-01
4.692172475e-01,4.85903e-02,9.99999e-01,9.99999e-01,9.98182e-01,4.86788e-02,9.99999e-01
4.715633337e-01,5.16122e-02,9.99999e-01,9.99999e-01,9.98813e-01,5.16735e-02,9.99999e-01
4.739211504e-01,5.47255e-02,9.99999e-01,9.99999e-01,9.98861e-01,5.47879e-02,9.99999e-01
4.762907561e-01,5.79885e-02,9.99999e-01,9.99999e-01,9.99409e-01,5.80228e-02,9.99999e-01
4.786722099e-01,6.13643e-02,9.99999e-01,9.99999e-01,9.99758e-01,6.13791e-02,9.99999e-01
4.810655710e-01,6.48528e-02,9.99999e-01,9.99999e-01,9.99927e-01,6.48575e-02,9.99999e-01
4.834708988e-01,6.84115e-02,9.99999e-01,9.99999e-01,9.99314e-01,6.84584e-02,9.99999e-01
4.858882533e-01,7.20891e-02,9.99999e-01,9.99999e-01,9.98710e-01,7.21822e-02,9.99999e-01
4.883176946e-01,7.59473e-02,9.99999e-01,9.99999e-01,9.98925e-01,7.60289e-02,9.99999e-01
4.907592831e-01,7.99206e-02,9.99999e-01,9.99999e-01,9.99025e-01,7.99986e-02,9.99999e-01
4.932130795e-01,8.40329e-02,9.99999e-01,9.99999e-01,9.99309e-01,8.40909e-02,9.99999e-01
4.956791449e-01,8.82733e-02,9.99999e-01,9.99999e-01,9.99634e-01,8.83055e-02,9.99999e-01
4.981575406e-01,9.24736e-02,9.99999e-01,9.99999e-01,9.98183e-01,9.26419e-02,9.99999e-01
5.006483283e-01,9.66411e-02,9.99999e-01,9.99999e-01,9.95313e-01,9.70991e-02,9.99967e-01
5.031515699e-01,9.92542e-02,9.99999e-01,9.99999e-01,9.76420e-01,1.01676e-01,9.99749e-01
5.056673278e-01,1.05004e-01,9.99999e-01,9.99999e-01,9.87415e-01,1.06373e-01,9.99712e-01
5.081956644e-01,1.09402e-01,9.99999e-01,9.99999e-01,9.84134e-01,1.11187e-01,9.99814e-01
5.107366428e-01,1.14867e-01,9.99999e-01,9.99999e-01,9.89269e-01,1.16117e-01,9.99965e-01
5.132903260e-01,1.20416e-01,9.99999e-01,9.99999e-01,9.93849e-01,1.21162e-01,9.99995e-01
5.158567776e-01,1.25991e-01,9.99999e-01,9.99999e-01,9.97398e-01,1.26320e-01,9.99999e-01
5.184360615e-01,1.31452e-01,9.99999e-01,9.99999e-01,9.98959e-01,1.31589e-01,9.99999e-01
5.210282418e-01,1.36914e-01,9.99999e-01,9.99999e-01,9.99612e-01,1.36968e-01,9.99999e-01
5.236333830e-01,1.42229e-01,9.99999e-01,9.99999e-01,9.98438e-01,1.42453e-01,9.99988e-01
5.262515499e-01,1.47896e-01,9.99999e-01,9.99999e-01,9.99020e-01,1.48043e-01,9.99984e-01
5.288828077e-01,1.53597e-01,9.99999e-01,9.99999e-01,9.99104e-01,1.53736e-01,9.99989e-01
5.315272217e-01,1.59402e-01,9.99999e-01,9.99999e-01,9.99209e-01,1.59529e-01,9.99997e-01
5.341848578e-01,1.65334e-01,9.99999e-01,9.99999e-01,9.99486e-01,1.65419e-01,9.99999e-01
5.368557821e-01,1.71092e-01,9.99999e-01,9.99999e-01,9.98189e-01,1.71403e-01,9.99995e-01
5.395400610e-01,1.76317e-01,9.99999e-01,9.99999e-01,9.93500e-01,1.77480e-01,9.99945e-01
5.422377613e-01,1.82061e-01,9.99999e-01,9.99999e-01,9.91523e-01,1.83646e-01,9.99846e-01
5.449489501e-01,1.88377e-01,9.99999e-01,9.99999e-01,9.92148e-01,1.89897e-01,9.99841e-01
5.476736949e-01,1.94846e-01,9.99999e-01,9.99999e-01,9.93013e-01,1.96232e-01,9.99922e-01
5.504120634e-01,2.01615e-01,9.99999e-01,9.99999e-01,9.94929e-01,2.02647e-01,9.99978e-01
5.531641237e-01,2.08604e-01,9.99999e-01,9.99999e-01,9.97447e-01,2.09138e-01,9.99996e-01
5.559299443e-01,2.15437e-01,9.99999e-01,9.99999e-01,9.98768e-01,2.15703e-01,9.99999e-01
5.587095940e-01,2.22167e-01,9.99999e-01,9.99999e-01,9.99229e-01,2.22338e-01,9.99999e-01
5.615031420e-01,2.28843e-01,9.99999e-01,9.99999e-01,9.99140e-01,2.29040e-01,9.99998e-01
5.643106577e-01,2.35577e-01,9.99999e-01,9.99999e-01,9.99033e-01,2.35806e-01,9.99991e-01
5.671322110e-01,2.39797e-01,9.99999e-01,9.99999e-01,9.88416e-01,2.42633e-01,9.99895e-01
5.699678720e-01,2.46301e-01,9.99999e-01,9.99999e-01,9.87432e-01,2.49516e-01,9.99678e-01
5.728177114e-01,2.53041e-01,9.99999e-01,9.99999e-01,9.86960e-01,2.56452e-01,9.99732e-01
5.756818000e-01,2.60239e-01,9.99999e-01,9.99999e-01,9.88013e-01,2.63439e-01,9.99835e-01
5.785602090e-01,2.67632e-01,9.99999e-01,9.99999e-01,9.89544e-01,2.70473e-01,9.99950e-01
5.814530100e-01,2.74633e-01,9.99999e-01,9.99999e-01,9.89514e-01,2.77549e-01,9.99977e-01
5.843602750e-01,2.81115e-01,9.99999e-01,9.99999e-01,9.87593e-01,2.84666e-01,9.99929e-01
5.872820764e-01,2.62407e-01,9.99999e-01,9.99999e-01,8.99890e-01,2.91819e-01,9.99242e-01
5.902184868e-01,2.61771e-01,9.99999e-01,9.99999e-01,8.77280e-01,2.99005e-01,9.97937e-01
5.931695792e-01,2.78940e-01,9.99999e-01,9.99999e-01,9.12739e-01,3.06222e-01,9.97991e-01
5.961354271e-01,2.83008e-01,9.99999e-01,9.99999e-01,9.03937e-01,3.13464e-01,9.98786e-01
5.991161043e-01,2.97732e-01,9.99999e-01,9.99999e-01,9.28623e-01,3.20730e-01,9.99646e-01
6.021116848e-01,3.14492e-01,9.99999e-01,9.99999e-01,9.58812e-01,3.28015e-01,9.99956e-01
6.051222432e-01,3.28252e-01,9.99999e-01,9.99999e-01,9.78931e-01,3.35318e-01,9.99996e-01
6.081478544e-01,3.39504e-01,9.99999e-01,9.99999e-01,9.90866e-01,3.42634e-01,9.99999e-01
6.111885937e-01,3.48602e-01,9.99999e-01,9.99999e-01,9.96120e-01,3.49960e-01,9.99999e-01
6.142445367e-01,3.56675e-01,9.99999e-01,9.99999e-01,9.98268e-01,3.57293e-01,9.99999e-01
6.173157594e-01,3.64283e-01,9.99999e-01,9.99999e-01,9.99045e-01,3.64631e-01,9.99999e-01
6.204023382e-01,3.71671e-01,9.99999e-01,9.99999e-01,9.99195e-01,3.71970e-01,9.99998e-01
6.235043498e-01,3.77971e-01,9.99999e-01,9.99999e-01,9.96483e-01,3.79308e-01,9.99990e-01
6.266218716e-01,3.79367e-01,9.99999e-01,9.99999e-01,9.81315e-01,3.86641e-01,9.99867e-01
6.297549810e-01,3.91148e-01,9.99999e-01,9.99999e-01,9.93107e-01,3.93967e-01,9.99735e-01
6.329037559e-01,3.95731e-01,9.99999e-01,9.99999e-01,9.86373e-01,4.01282e-01,9.99788e-01
6.360682746e-01,4.03806e-01,9.99999e-01,9.99999e-01,9.88424e-01,4.08586e-01,9.99874e-01
6.392486160e-01,4.09613e-01,9.99999e-01,9.99999e-01,9.84999e-01,4.15873e-01,9.99944e-01
6.424448591e-01,4.14694e-01,9.99999e-01,9.99999e-01,9.80118e-01,4.23143e-01,9.99911e-01
6.456570834e-01,3.92132e-01,9.99999e-01,9.99999e-01,9.11571e-01,4.30393e-01,9.99482e-01
6.488853688e-01,4.08249e-01,9.99999e-01,9.99999e-01,9.34236e-01,4.37620e-01,9.98551e-01
6.521297956e-01,4.14666e-01,9.99999e-01,9.99999e-01,9.33340e-01,4.44822e-01,9.98784e-01
6.553904446e-01,4.21411e-01,9.99999e-01,9.99999e-01,9.33179e-01,4.51997e-01,9.99088e-01
6.586673968e-01,4.32541e-01,9.99999e-01,9.99999e-01,9.42342e-01,4.59143e-01,9.99702e-01
6.619607338e-01,4.50426e-01,9.99999e-01,9.99999e-01,9.66108e-01,4.66257e-01,9.99935e-01
6.652705375e-01,4.63942e-01,9.99999e-01,9.99999e-01,9.80182e-01,4.73337e-01,9.99967e-01
6.685968902e-01,4.75937e-01,9.99999e-01,9.99999e-01,9.90751e-01,4.80382e-01,9.99994e-01
6.719398746e-01,4.85295e-01,9.99999e-01,9.99999e-01,9.95702e-01,4.87389e-01,9.99999e-01
6.752995740e-01,4.93210e-01,9.99999e-01,9.99999e-01,9.97677e-01,4.94358e-01,9.99998e-01
6.786760719e-01,4.99607e-01,9.99999e-01,9.99999e-01,9.96656e-01,5.01285e-01,9.99994e-01
6.820694522e-01,5.05240e-01,9.99999e-01,9.99999e-01,9.94263e-01,5.08170e-01,9.99969e-01
6.854797995e-01,5.11169e-01,9.99999e-01,9.99999e-01,9.92603e-01,5.15010e-01,9.99935e-01
6.889071985e-01,5.12585e-01,9.99999e-01,9.99999e-01,9.82487e-01,5.21805e-01,9.99839e-01
6.923517345e-01,3.97697e-01,9.99999e-01,9.99999e-01,7.53481e-01,5.28553e-01,9.98600e-01
6.958134932e-01,4.59944e-01,9.99999e-01,9.99999e-01,8.62024e-01,5.35251e-01,9.96842e-01
6.992925606e-01,4.68679e-01,9.99999e-01,9.99999e-01,8.67289e-01,5.41900e-01,9.97221e-01
7.027890234e-01,4.58616e-01,9.99999e-01,9.99999e-01,8.37917e-01,5.48498e-01,9.97867e-01
7.063029686e-01,4.77315e-01,9.99999e-01,9.99999e-01,8.60873e-01,5.55044e-01,9.98938e-01
7.098344834e-01,4.85859e-01,9.99999e-01,9.99999e-01,8.65776e-01,5.61536e-01,9.99371e-01
7.133836558e-01,4.70932e-01,9.99999e-01,9.99999e-01,8.30180e-01,5.67973e-01,9.98752e-01
7.169505741e-01,1.62484e-01,9.99999e-01,9.99999e-01,2.85692e-01,5.74355e-01,9.90220e-01
7.205353270e-01,2.89782e-01,9.99999e-01,9.99999e-01,5.07768e-01,5.80680e-01,9.82809e-01
7.241380036e-01,2.43161e-01,9.99999e-01,9.99999e-01,4.20529e-01,5.86948e-01,9.85138e-01
7.277586936e-01,2.68941e-01,9.99999e-01,9.99999e-01,4.58988e-01,5.93158e-01,9.87834e-01
7.313974871e-01,2.51341e-01,9.99999e-01,9.99999e-01,4.21795e-01,5.99309e-01,9.94283e-01
7.350544745e-01,3.72367e-01,9.99999e-01,9.99999e-01,6.16300e-01,6.05401e-01,9.98009e-01
7.387297469e-01,4.24509e-01,9.99999e-01,9.99999e-01,6.94919e-01,6.11432e-01,9.99087e-01
7.424233956e-01,5.15375e-01,9.99999e-01,9.99999e-01,8.34894e-01,6.17402e-01,9.99823e-01
7.461355126e-01,5.58540e-01,9.99999e-01,9.99999e-01,8.96111e-01,6.23311e-01,9.99968e-01
7.498661902e-01,5.97713e-01,9.99999e-01,9.99999e-01,9.50029e-01,6.29159e-01,9.99988e-01
7.536155211e-01,6.19181e-01,9.99999e-01,9.99999e-01,9.75181e-01,6.34944e-01,9.99993e-01
7.573835987e-01,6.32427e-01,9.99999e-01,9.99999e-01,9.87140e-01,6.40666e-01,9.99997e-01
7.611705167e-01,6.41150e-01,9.99999e-01,9.99999e-01,9.91993e-01,6.46325e-01,9.99999e-01
7.649763693e-01,6.48650e-01,9.99999e-01,9.99999e-01,9.94981e-01,6.51921e-01,9.99999e-01
7.688012511e-01,6.55156e-01,9.99999e-01,9.99999e-01,9.96505e-01,6.57454e-01,9.99998e-01
7.726452574e-01,6.61015e-01,9.99999e-01,9.99999e-01,9.97123e-01,6.62923e-01,9.99997e-01
7.765084837e-01,6.65606e-01,9.99999e-01,9.99999e-01,9.95932e-01,6.68328e-01,9.99994e-01
7.803910261e-01,6.61910e-01,9.99999e-01,9.99999e-01,9.82560e-01,6.73669e-01,9.99982e-01
7.842929812e-01,6.38607e-01,9.99999e-01,9.99999e-01,9.40692e-01,6.78946e-01,9.99886e-01
7.882144461e-01,6.02148e-01,9.99999e-01,9.99999e-01,8.80812e-01,6.84158e-01,9.99223e-01
7.921555184e-01,6.41969e-01,9.99999e-01,9.99999e-01,9.32724e-01,6.89307e-01,9.98498e-01
7.961162960e-01,6.13963e-01,9.99999e-01,9.99999e-01,8.85447e-01,6.94391e-01,9.98560e-01
8.000968774e-01,6.05495e-01,9.99999e-01,9.99999e-01,8.67047e-01,6.99412e-01,9.98468e-01
8.040973618e-01,6.10356e-01,9.99999e-01,9.99999e-01,8.67583e-01,7.04369e-01,9.98783e-01
8.081178486e-01,5.20420e-01,9.99999e-01,9.99999e-01,7.34586e-01,7.09261e-01,9.98859e-01
8.121584379e-01,2.17124e-01,9.99999e-01,9.99999e-01,3.05423e-01,7.14090e-01,9.95524e-01
8.162192301e-01,1.76150e-01,9.99999e-01,9.99999e-01,2.49211e-01,7.18856e-01,9.83270e-01
8.203003262e-01,3.73348e-01,9.99999e-01,9.99999e-01,5.26282e-01,7.23558e-01,9.80439e-01
8.244018279e-01,3.16192e-01,9.99999e-01,9.99999e-01,4.41091e-01,7.28198e-01,9.84401e-01
8.285238370e-01,3.01013e-01,9.99999e-01,9.99999e-01,4.15889e-01,7.32774e-01,9.87728e-01
8.326664562e-01,3.05313e-01,9.99999e-01,9.99999e-01,4.16221e-01,7.37288e-01,9.94907e-01
8.368297885e-01,3.83431e-01,9.99999e-01,9.99999e-01,5.17537e-01,7.41740e-01,9.98834e-01
8.410139374e-01,5.00651e-01,9.99999e-01,9.99999e-01,6.71453e-01,7.46130e-01,9.99318e-01
8.452190071e-01,6.15188e-01,9.99999e-01,9.99999e-01,8.20082e-01,7.50459e-01,9.99592e-01
8.494451021e-01,6.72036e-01,9.99999e-01,9.99999e-01,8.90727e-01,7.54726e-01,9.99672e-01
8.536923276e-01,7.08467e-01,9.99999e-01,9.99999e-01,9.33704e-01,7.58933e-01,9.99783e-01
8.579607893e-01,7.31504e-01,9.99999e-01,9.99999e-01,9.58675e-01,7.63080e-01,9.99941e-01
8.622505932e-01,7.46832e-01,9.99999e-01,9.99999e-01,9.73502e-01,7.67166e-01,9.99991e-01
8.665618462e-01,7.58516e-01,9.99999e-01,9.99999e-01,9.83565e-01,7.71193e-01,9.99994e-01
8.708946554e-01,7.60600e-01,9.99999e-01,9.99999e-01,9.81224e-01,7.75161e-01,9.99989e-01
8.752491287e-01,7.59520e-01,9.99999e-01,9.99999e-01,9.74931e-01,7.79070e-01,9.99972e-01
8.796253743e-01,7.55883e-01,9.99999e-01,9.99999e-01,9.65539e-01,7.82922e-01,9.99921e-01
8.840235012e-01,7.55665e-01,9.99999e-01,9.99999e-01,9.60765e-01,7.86715e-01,9.99756e-01
8.884436187e-01,6.88568e-01,9.99999e-01,9.99999e-01,8.71710e-01,7.90452e-01,9.99306e-01
8.928858368e-01,2.23903e-01,9.99999e-01,9.99999e-01,2.83078e-01,7.94132e-01,9.96003e-01
8.973502660e-01,8.32392e-02,9.99999e-01,9.99999e-01,1.06505e-01,7.97756e-01,9.79685e-01
9.018370173e-01,2.45925e-01,9.99999e-01,9.99999e-01,3.16963e-01,8.01324e-01,9.68245e-01
9.063462024e-01,2.79565e-01,9.99999e-01,9.99999e-01,3.57343e-01,8.04838e-01,9.72050e-01
9.108779334e-01,1.57017e-01,9.99999e-01,9.99999e-01,2.00064e-01,8.08297e-01,9.70973e-01
9.154323231e-01,1.18262e-01,9.99999e-01,9.99999e-01,1.49287e-01,8.11702e-01,9.75946e-01
9.200094847e-01,1.89024e-01,9.99999e-01,9.99999e-01,2.35098e-01,8.15053e-01,9.86465e-01
9.246095321e-01,1.04463e-01,9.99999e-01,9.99999e-01,1.29670e-01,8.18352e-01,9.84421e-01
9.292325798e-01,6.72891e-04,9.99999e-01,9.99999e-01,8.70717e-04,8.21599e-01,9.40604e-01
9.338787427e-01,1.27134e-06,9.99999e-01,9.99999e-01,1.98541e-06,8.24794e-01,7.76362e-01
9.385481364e-01,2.26945e-03,9.99999e-01,9.99999e-01,3.70402e-03,8.27938e-01,7.40028e-01
9.432408771e-01,7.22317e-04,9.99999e-01,9.99999e-01,1.12697e-03,8.31032e-01,7.71255e-01
9.479570815e-01,7.18725e-06,9.99999e-01,9.99999e-01,1.06454e-05,8.34076e-01,8.09458e-01
9.526968669e-01,7.82917e-05,9.99999e-01,9.99999e-01,1.06402e-04,8.37070e-01,8.79031e-01
9.574603512e-01,1.68337e-04,9.99999e-01,9.99999e-01,2.13961e-04,8.40016e-01,9.36605e-01
9.622476530e-01,8.10438e-04,9.99999e-01,9.99999e-01,1.00601e-03,8.42914e-01,9.55723e-01
9.670588912e-01,1.37063e-02,9.99999e-01,9.99999e-01,1.67156e-02,8.45764e-01,9.69503e-01
9.718941857e-01,3.59500e-02,9.99999e-01,9.99999e-01,4.33425e-02,8.48567e-01,9.77459e-01
9.767536566e-01,6.17795e-02,9.99999e-01,9.99999e-01,7.38441e-02,8.51324e-01,9.82727e-01
9.816374249e-01,1.09572e-01,9.99999e-01,9.99999e-01,1.29075e-01,8.54035e-01,9.93989e-01
9.865456120e-01,2.27417e-01,9.99999e-01,9.99999e-01,2.65790e-01,8.56700e-01,9.98744e-01
9.914783401e-01,3.71103e-01,9.99999e-01,9.99999e-01,4.32005e-01,8.59322e-01,9.99651e-01
9.964357318e-01,5.44275e-01,9.99999e-01,9.99999e-01,6.31612e-01,8.61899e-01,9.99796e-01
1.001417910e+00,6.54556e-01,9.99999e-01,9.99999e-01,7.57444e-01,8.64433e-01,9.99688e-01
1.006425000e+00,7.39118e-01,9.99999e-01,9.99999e-01,8.52953e-01,8.66924e-01,9.99556e-01
1.011457125e+00,7.87212e-01,9.99999e-01,9.99999e-01,9.05865e-01,8.69373e-01,9.99588e-01
1.016514411e+00,8.14916e-01,9.99999e-01,9.99999e-01,9.35043e-01,8.71780e-01,9.99709e-01
1.021596983e+00,8.28356e-01,9.99999e-01,9.99999e-01,9.47893e-01,8.74146e-01,9.99708e-01
1.026704968e+00,8.40471e-01,9.99999e-01,9.99999e-01,9.59111e-01,8.76471e-01,9.99804e-01
1.031838492e+00,8.52428e-01,9.99999e-01,9.99999e-01,9.70090e-01,8.78757e-01,9.99945e-01
1.036997685e+00,8.65271e-01,9.99999e-01,9.99999e-01,9.82150e-01,8.81003e-01,9.99991e-01
1.042182673e+00,8.64484e-01,9.99999e-01,9.99999e-01,9.78800e-01,8.83211e-01,9.99995e-01
1.047393587e+00,8.60541e-01,9.99999e-01,9.99999e-01,9.71949e-01,8.85380e-01,9.99994e-01
1.052630555e+00,8.53565e-01,9.99999e-01,9.99999e-01,9.61759e-01,8.87512e-01,9.99989e-01
1.057893707e+00,8.33682e-01,9.99999e-01,9.99999e-01,9.37156e-01,8.89606e-01,9.99977e-01
1.063183176e+00,8.01596e-01,9.99999e-01,9.99999e-01,8.99038e-01,8.91664e-01,9.99943e-01
1.068499092e+00,7.48227e-01,9.99999e-01,9.99999e-01,8.37338e-01,8.93686e-01,9.99878e-01
1.073841587e+00,7.29750e-01,9.99999e-01,9.99999e-01,8.14966e-01,8.95672e-01,9.99735e-01
1.079210795e+00,6.88230e-01,9.99999e-01,9.99999e-01,7.67273e-01,8.97623e-01,9.99283e-01
1.084606849e+00,6.04709e-01,9.99999e-01,9.99999e-01,6.73402e-01,8.99540e-01,9.98276e-01
1.090029883e+00,5.16911e-01,9.99999e-01,9.99999e-01,5.75492e-01,9.01423e-01,9.96431e-01
1.095480033e+00,2.04808e-01,9.99999e-01,9.99999e-01,2.28211e-01,9.03273e-01,9.93553e-01
1.100957433e+00,3.23848e-02,9.99999e-01,9.99999e-01,3.62092e-02,9.05090e-01,9.88167e-01
1.106462220e+00,8.88122e-04,9.99999e-01,9.99999e-01,9.99296e-04,9.06875e-01,9.80009e-01
1.111994531e+00,2.84474e-07,9.99999e-01,9.99999e-01,3.30321e-07,9.08627e-01,9.47805e-01
1.117554504e+00,1.06676e-09,9.99999e-01,9.99999e-01,1.42204e-09,9.10349e-01,8.24036e-01
1.123142276e+00,1.17568e-06,9.99999e-01,9.99999e-01,2.03987e-06,9.12039e-01,6.31936e-01
1.128757988e+00,6.34098e-06,9.99999e-01,9.99999e-01,1.18016e-05,9.13699e-01,5.88045e-01
1.134401778e+00,1.92996e-05,9.99999e-01,9.99999e-01,3.31163e-05,9.15330e-01,6.36691e-01
1.140073787e+00,2.87403e-04,9.99999e-01,9.99999e-01,4.49585e-04,9.16931e-01,6.97175e-01
1.145774156e+00,1.33835e-05,9.99999e-01,9.99999e-01,2.02716e-05,9.18503e-01,7.18790e-01
1.151503026e+00,7.73652e-07,9.99999e-01,9.99999e-01,1.01069e-06,9.20046e-01,8.31985e-01
1.157260541e+00,3.14153e-07,9.99999e-01,9.99999e-01,3.60164e-07,9.21562e-01,9.46488e-01
1.163046844e+00,1.66809e-05,9.99999e-01,9.99999e-01,1.83554e-05,9.23050e-01,9.84533e-01
1.168862078e+00,4.26820e-04,9.99999e-01,9.99999e-01,4.65392e-04,9.24511e-01,9.92002e-01
1.174706389e+00,5.56470e-03,9.99999e-01,9.99999e-01,6.07405e-03,9.25945e-01,9.89412e-01
1.180579921e+00,3.51867e-02,9.99999e-01,9.99999e-01,3.85587e-02,9.27354e-01,9.84033e-01
1.186482820e+00,1.25325e-01,9.99999e-01,9.99999e-01,1.37189e-01,9.28736e-01,9.83615e-01
1.192415234e+00,2.78530e-01,9.99999e-01,9.99999e-01,3.03192e-01,9.30093e-01,9.87704e-01
1.198377311e+00,3.38665e-01,9.99999e-01,9.99999e-01,3.67872e-01,9.31426e-01,9.88381e-01
1.204369197e+00,3.69383e-01,9.99999e-01,9.99999e-01,4.00231e-01,9.32734e-01,9.89482e-01
1.210391043e+00,3.79575e-01,9.99999e-01,9.99999e-01,4.09011e-01,9.34017e-01,9.93589e-01
1.216442998e+00,4.35129e-01,9.99999e-01,9.99999e-01,4.67076e-01,9.35278e-01,9.96068e-01
1.222525213e+00,5.10326e-01,9.99999e-01,9.99999e-01,5.46255e-01,9.36515e-01,9.97556e-01
1.228637839e+00,6.13993e-01,9.99999e-01,9.99999e-01,6.55511e-01,9.37729e-01,9.98862e-01
