#,Wave/freq,Total,N2,O2,H2O,Rayleigh,CIA
4.000000000e-01,3.38506e-01,9.99999e-01,9.99999e-01,9.99877e-01,3.38547e-01,9.99999e-01
4.020000000e-01,3.45850e-01,9.99999e-01,9.99999e-01,9.99923e-01,3.45876e-01,9.99999e-01
4.040100000e-01,3.53194e-01,9.99999e-01,9.99999e-01,9.99967e-01,3.53206e-01,9.99999e-01
4.060300500e-01,3.60539e-01,9.99999e-01,9.99999e-01,9.99992e-01,3.60541e-01,9.99999e-01
4.080602003e-01,3.67879e-01,9.99999e-01,9.99999e-01,9.99997e-01,3.67880e-01,9.99999e-01
4.101005013e-01,3.75219e-01,9.99999e-01,9.99999e-01,9.99999e-01,3.75219e-01,9.99999e-01
4.121510038e-01,3.82553e-01,9.99999e-01,9.99999e-01,9.99995e-01,3.82555e-01,9.99999e-01
4.142117588e-01,3.89872e-01,9.99999e-01,9.99999e-01,9.99966e-01,3.89885e-01,9.99999e-01
4.162828176e-01,3.97147e-01,9.99999e-01,9.99999e-01,9.99848e-01,3.97207e-01,9.99999e-01
4.183642317e-01,4.04481e-01,9.99999e-01,9.99999e-01,9.99909e-01,4.04517e-01,9.99999e-01
4.204560528e-01,4.11791e-01,9.99999e-01,9.99999e-01,9.99944e-01,4.11814e-01,9.99999e-01
4.225583331e-01,4.19085e-01,9.99999e-01,9.99999e-01,9.99978e-01,4.19094e-01,9.99999e-01
4.246711247e-01,4.26348e-01,9.99999e-01,9.99999e-01,9.99983e-01,4.26355e-01,9.99999e-01
4.267944804e-01,4.33585e-01,9.99999e-01,9.99999e-01,9.99975e-01,4.33595e-01,9.99999e-01
4.289284528e-01,4.40804e-01,9.99999e-01,9.99999e-01,9.99980e-01,4.40812e-01,9.99999e-01
4.310730950e-01,4.47999e-01,9.99999e-01,9.99999e-01,9.99991e-01,4.48002e-01,9.99999e-01
4.332284605e-01,4.55163e-01,9.99999e-01,9.99999e-01,9.99997e-01,4.55164e-01,9.99999e-01
4.353946028e-01,4.62296e-01,9.99999e-01,9.99999e-01,9.99998e-01,4.62296e-01,9.99999e-01
4.375715758e-01,4.69388e-01,9.99999e-01,9.99999e-01,9.99984e-01,4.69395e-01,9.99999e-01
4.397594337e-01,4.76397e-01,9.99999e-01,9.99999e-01,9.99867e-01,4.76460e-01,9.99999e-01
4.419582309e-01,4.83165e-01,9.99999e-01,9.99999e-01,9.99329e-01,4.83489e-01,9.99999e-01
4.441680220e-01,4.90220e-01,9.99999e-01,9.99999e-01,9.99471e-01,4.90479e-01,9.99999e-01
4.463888621e-01,4.97157e-01,9.99999e-01,9.99999e-01,9.99451e-01,4.97430e-01,9.99999e-01
4.486208064e-01,5.04166e-01,9.99999e-01,9.99999e-01,9.99658e-01,5.04338e-01,9.99999e-01
4.508639105e-01,5.11122e-01,9.99999e-01,9.99999e-01,9.99839e-01,5.11204e-01,9.99999e-01
4.531182300e-01,5.17991e-01,9.99999e-01,9.99999e-01,9.99936e-01,5.18024e-01,9.99999e-01
4.553838212e-01,5.24776e-01,9.99999e-01,9.99999e-01,9.99956e-01,5.24798e-01,9.99999e-01
4.576607403e-01,5.31514e-01,9.99999e-01,9.99999e-01,9.99979e-01,5.31524e-01,9.99999e-01
4.599490440e-01,5.38194e-01,9.99999e-01,9.99999e-01,9.99985e-01,5.38201e-01,9.99999e-01
4.622487892e-01,5.44826e-01,9.99999e-01,9.99999e-01,9.99997e-01,5.44828e-01,9.99999e-01
4.645600332e-01,5.51397e-01,9.99999e-01,9.99999e-01,9.99990e-01,5.51402e-01,9.99999e-01
4.668828333e-01,5.57835e-01,9.99999e-01,9.99999e-01,9.99839e-01,5.57924e-01,9.99999e-01
4.692172475e-01,5.64198e-01,9.99999e-01,9.99999e-01,9.99655e-01,5.64392e-01,9.99999e-01
4.715633337e-01,5.70677e-01,9.99999e-01,9.99999e-01,9.99775e-01,5.70805e-01,9.99999e-01
4.739211504e-01,5.77038e-01,9.99999e-01,9.99999e-01,9.99784e-01,5.77162e-01,9.99999e-01
4.762907561e-01,5.83397e-01,9.99999e-01,9.99999e-01,9.99887e-01,5.83462e-01,9.99999e-01
4.786722099e-01,5.89678e-01,9.99999e-01,9.99999e-01,9.99953e-01,5.89705e-01,9.99999e-01
4.810655710e-01,5.95881e-01,9.99999e-01,9.99999e-01,9.99985e-01,5.95889e-01,9.99999e-01
4.834708988e-01,6.01935e-01,9.99999e-01,9.99999e-01,9.99869e-01,6.02013e-01,9.99999e-01
4.858882533e-01,6.07930e-01,9.99999e-01,9.99999e-01,9.99755e-01,6.08078e-01,9.99999e-01
4.883176946e-01,6.13958e-01,9.99999e-01,9.99999e-01,9.99796e-01,6.14083e-01,9.99999e-01
4.907592831e-01,6.19912e-01,9.99999e-01,9.99999e-01,9.99815e-01,6.20026e-01,9.99999e-01
4.932130795e-01,6.25826e-01,9.99999e-01,9.99999e-01,9.99868e-01,6.25908e-01,9.99999e-01
4.956791449e-01,6.31684e-01,9.99999e-01,9.99999e-01,9.99930e-01,6.31727e-01,9.99999e-01
4.981575406e-01,6.37265e-01,9.99999e-01,9.99999e-01,9.99654e-01,6.37485e-01,9.99999e-01
5.006483283e-01,6.42602e-01,9.99999e-01,9.99999e-01,9.99108e-01,6.43179e-01,9.99993e-01
5.031515699e-01,6.45843e-01,9.99999e-01,9.99999e-01,9.95473e-01,6.48810e-01,9.99951e-01
5.056673278e-01,6.52775e-01,9.99999e-01,9.99999e-01,9.97603e-01,6.54378e-01,9.99944e-01
5.081956644e-01,6.57865e-01,9.99999e-01,9.99999e-01,9.96976e-01,6.59883e-01,9.99964e-01
5.107366428e-01,6.63960e-01,9.99999e-01,9.99999e-01,9.97957e-01,6.65323e-01,9.99992e-01
5.132903260e-01,6.69916e-01,9.99999e-01,9.99999e-01,9.98831e-01,6.70700e-01,9.99998e-01
5.158567776e-01,6.75679e-01,9.99999e-01,9.99999e-01,9.99505e-01,6.76013e-01,9.99999e-01
5.184360615e-01,6.81126e-01,9.99999e-01,9.99999e-01,9.99801e-01,6.81261e-01,9.99999e-01
5.210282418e-01,6.86395e-01,9.99999e-01,9.99999e-01,9.99925e-01,6.86445e-01,9.99999e-01
5.236333830e-01,6.91360e-01,9.99999e-01,9.99999e-01,9.99703e-01,6.91566e-01,9.99997e-01
5.262515499e-01,6.96491e-01,9.99999e-01,9.99999e-01,9.99814e-01,6.96622e-01,9.99996e-01
5.288828077e-01,7.01494e-01,9.99999e-01,9.99999e-01,9.99830e-01,7.01614e-01,9.99997e-01
5.315272217e-01,7.06437e-01,9.99999e-01,9.99999e-01,9.99850e-01,7.06542e-01,9.99999e-01
5.341848578e-01,7.11338e-01,9.99999e-01,9.99999e-01,9.99902e-01,7.11407e-01,9.99999e-01
5.368557821e-01,7.15962e-01,9.99999e-01,9.99999e-01,9.99656e-01,7.16208e-01,9.99998e-01
5.395400610e-01,7.20047e-01,9.99999e-01,9.99999e-01,9.98763e-01,7.20946e-01,9.99989e-01
5.422377613e-01,7.24432e-01,9.99999e-01,9.99999e-01,9.98390e-01,7.25620e-01,9.99970e-01
5.449489501e-01,7.29121e-01,9.99999e-01,9.99999e-01,9.98508e-01,7.30232e-01,9.99969e-01
5.476736949e-01,7.33795e-01,9.99999e-01,9.99999e-01,9.98673e-01,7.34780e-01,9.99984e-01
5.504120634e-01,7.38553e-01,9.99999e-01,9.99999e-01,9.99037e-01,7.39267e-01,9.99995e-01
5.531641237e-01,7.43331e-01,9.99999e-01,9.99999e-01,9.99515e-01,7.43691e-01,9.99998e-01
5.559299443e-01,7.47879e-01,9.99999e-01,9.99999e-01,9.99765e-01,7.48054e-01,9.99999e-01
5.587095940e-01,7.52246e-01,9.99999e-01,9.99999e-01,9.99853e-01,7.52356e-01,9.99999e-01
5.615031420e-01,7.56473e-01,9.99999e-01,9.99999e-01,9.99836e-01,7.56596e-01,9.99999e-01
5.643106577e-01,7.60636e-01,9.99999e-01,9.99999e-01,9.99816e-01,7.60776e-01,9.99997e-01
5.671322110e-01,7.63182e-01,9.99999e-01,9.99999e-01,9.97778e-01,7.64896e-01,9.99979e-01
5.699678720e-01,7.67067e-01,9.99999e-01,9.99999e-01,9.97604e-01,7.68956e-01,9.99938e-01
5.728177114e-01,7.70999e-01,9.99999e-01,9.99999e-01,9.97517e-01,7.72957e-01,9.99948e-01
5.756818000e-01,7.75103e-01,9.99999e-01,9.99999e-01,9.97719e-01,7.76899e-01,9.99968e-01
5.785602090e-01,7.79222e-01,9.99999e-01,9.99999e-01,9.98009e-01,7.80782e-01,9.99990e-01
5.814530100e-01,7.83039e-01,9.99999e-01,9.99999e-01,9.98003e-01,7.84608e-01,9.99995e-01
5.843602750e-01,7.86499e-01,9.99999e-01,9.99999e-01,9.97630e-01,7.88376e-01,9.99986e-01
5.872820764e-01,7.75972e-01,9.99999e-01,9.99999e-01,9.79794e-01,7.92088e-01,9.99855e-01
5.902184868e-01,7.75856e-01,9.99999e-01,9.99999e-01,9.75390e-01,7.95743e-01,9.99607e-01
5.931695792e-01,7.85147e-01,9.99999e-01,9.99999e-01,9.82611e-01,7.99342e-01,9.99621e-01
5.961354271e-01,7.87389e-01,9.99999e-01,9.99999e-01,9.80909e-01,8.02886e-01,9.99782e-01
5.991161043e-01,7.95054e-01,9.99999e-01,9.99999e-01,9.86026e-01,8.06376e-01,9.99932e-01
6.021116848e-01,8.03361e-01,9.99999e-01,9.99999e-01,9.92042e-01,8.09811e-01,9.99991e-01
6.051222432e-01,8.09911e-01,9.99999e-01,9.99999e-01,9.95965e-01,8.13192e-01,9.99998e-01
6.081478544e-01,8.15099e-01,9.99999e-01,9.99999e-01,9.98258e-01,8.16520e-01,9.99999e-01
6.111885937e-01,8.19192e-01,9.99999e-01,9.99999e-01,9.99261e-01,8.19796e-01,9.99999e-01
6.142445367e-01,8.22749e-01,9.99999e-01,9.99999e-01,9.99670e-01,8.23020e-01,9.99999e-01
6.173157594e-01,8.26043e-01,9.99999e-01,9.99999e-01,9.99818e-01,8.26193e-01,9.99999e-01
6.204023382e-01,8.29187e-01,9.99999e-01,9.99999e-01,9.99846e-01,8.29314e-01,9.99999e-01
6.235043498e-01,8.31827e-01,9.99999e-01,9.99999e-01,9.99329e-01,8.32386e-01,9.99997e-01
6.266218716e-01,8.32403e-01,9.99999e-01,9.99999e-01,9.96428e-01,8.35407e-01,9.99974e-01
6.297549810e-01,8.37240e-01,9.99999e-01,9.99999e-01,9.98688e-01,8.38380e-01,9.99949e-01
6.329037559e-01,8.39089e-01,9.99999e-01,9.99999e-01,9.97405e-01,8.41305e-01,9.99959e-01
6.360682746e-01,8.42301e-01,9.99999e-01,9.99999e-01,9.97795e-01,8.44181e-01,9.99975e-01
6.392486160e-01,8.44580e-01,9.99999e-01,9.99999e-01,9.97140e-01,8.47010e-01,9.99988e-01
6.424448591e-01,8.46543e-01,9.99999e-01,9.99999e-01,9.96192e-01,8.49793e-01,9.99982e-01
6.456570834e-01,8.37481e-01,9.99999e-01,9.99999e-01,9.82444e-01,8.52529e-01,9.99901e-01
6.488853688e-01,8.43920e-01,9.99999e-01,9.99999e-01,9.87057e-01,8.55220e-01,9.99724e-01
6.521297956e-01,8.46363e-01,9.99999e-01,9.99999e-01,9.86817e-01,8.57866e-01,9.99768e-01
6.553904446e-01,8.49081e-01,9.99999e-01,9.99999e-01,9.86937e-01,8.60468e-01,9.99826e-01
6.586673968e-01,8.53257e-01,9.99999e-01,9.99999e-01,9.88736e-01,8.63026e-01,9.99942e-01
6.619607338e-01,8.59879e-01,9.99999e-01,9.99999e-01,9.93469e-01,8.65541e-01,9.99987e-01
6.652705375e-01,8.64719e-01,9.99999e-01,9.99999e-01,9.96210e-01,8.68013e-01,9.99993e-01
6.685968902e-01,8.68909e-01,9.99999e-01,9.99999e-01,9.98238e-01,8.70443e-01,9.99998e-01
6.719398746e-01,8.72119e-01,9.99999e-01,9.99999e-01,9.99182e-01,8.72832e-01,9.99999e-01
6.752995740e-01,8.74794e-01,9.99999e-01,9.99999e-01,9.99558e-01,8.75180e-01,9.99999e-01
6.786760719e-01,8.76930e-01,9.99999e-01,9.99999e-01,9.99364e-01,8.77488e-01,9.99998e-01
6.820694522e-01,8.78793e-01,9.99999e-01,9.99999e-01,9.98909e-01,8.79756e-01,9.99993e-01
6.854797995e-01,8.80736e-01,9.99999e-01,9.99999e-01,9.98594e-01,8.81985e-01,9.99987e-01
6.889071985e-01,8.81169e-01,9.99999e-01,9.99999e-01,9.96628e-01,8.84176e-01,9.99969e-01
6.923517345e-01,8.38425e-01,9.99999e-01,9.99999e-01,9.46204e-01,8.86328e-01,9.99733e-01
6.958134932e-01,8.62531e-01,9.99999e-01,9.99999e-01,9.71417e-01,8.88443e-01,9.99398e-01
6.992925606e-01,8.66008e-01,9.99999e-01,9.99999e-01,9.72987e-01,8.90521e-01,9.99470e-01
7.027890234e-01,8.62418e-01,9.99999e-01,9.99999e-01,9.66618e-01,8.92563e-01,9.99593e-01
7.063029686e-01,8.69202e-01,9.99999e-01,9.99999e-01,9.71838e-01,8.94569e-01,9.99797e-01
7.098344834e-01,8.72188e-01,9.99999e-01,9.99999e-01,9.72953e-01,8.96540e-01,9.99880e-01
7.133836558e-01,8.66345e-01,9.99999e-01,9.99999e-01,9.64466e-01,8.98476e-01,9.99762e-01
7.169505741e-01,6.76407e-01,9.99999e-01,9.99999e-01,7.52652e-01,9.00378e-01,9.98132e-01
7.205353270e-01,7.80514e-01,9.99999e-01,9.99999e-01,8.67935e-01,9.02246e-01,9.96707e-01
7.241380036e-01,7.53517e-01,9.99999e-01,9.99999e-01,8.35837e-01,9.04082e-01,9.97156e-01
7.277586936e-01,7.68773e-01,9.99999e-01,9.99999e-01,8.50621e-01,9.05884e-01,9.97674e-01
7.313974871e-01,7.62021e-01,9.99999e-01,9.99999e-01,8.40464e-01,9.07654e-01,9.98910e-01
7.350544745e-01,8.26467e-01,9.99999e-01,9.99999e-01,9.09154e-01,9.09393e-01,9.99620e-01
7.387297469e-01,8.49050e-01,9.99999e-01,9.99999e-01,9.32055e-01,9.11101e-01,9.99825e-01
7.424233956e-01,8.81776e-01,9.99999e-01,9.99999e-01,9.66067e-01,9.12778e-01,9.99966e-01
7.461355126e-01,8.95495e-01,9.99999e-01,9.99999e-01,9.79304e-01,9.14425e-01,9.99993e-01
7.498661902e-01,9.07153e-01,9.99999e-01,9.99999e-01,9.90297e-01,9.16042e-01,9.99997e-01
7.536155211e-01,9.13258e-01,9.99999e-01,9.99999e-01,9.95235e-01,9.17630e-01,9.99998e-01
7.573835987e-01,9.16932e-01,9.99999e-01,9.99999e-01,9.97544e-01,9.19189e-01,9.99999e-01
7.611705167e-01,9.19316e-01,9.99999e-01,9.99999e-01,9.98473e-01,9.20721e-01,9.99999e-01
7.649763693e-01,9.21343e-01,9.99999e-01,9.99999e-01,9.99043e-01,9.22224e-01,9.99999e-01
7.688012511e-01,9.23086e-01,9.99999e-01,9.99999e-01,9.99334e-01,9.23700e-01,9.99999e-01
7.726452574e-01,9.24643e-01,9.99999e-01,9.99999e-01,9.99452e-01,9.25149e-01,9.99999e-01
7.765084837e-01,9.25854e-01,9.99999e-01,9.99999e-01,9.99224e-01,9.26572e-01,9.99998e-01
7.803910261e-01,9.24865e-01,9.99999e-01,9.99999e-01,9.96657e-01,9.27969e-01,9.99996e-01
7.842929812e-01,9.18526e-01,9.99999e-01,9.99999e-01,9.88384e-01,9.29340e-01,9.99977e-01
7.882144461e-01,9.08312e-01,9.99999e-01,9.99999e-01,9.76103e-01,9.30686e-01,9.99851e-01
7.921555184e-01,9.19444e-01,9.99999e-01,9.99999e-01,9.86801e-01,9.32008e-01,9.99713e-01
7.961162960e-01,9.11519e-01,9.99999e-01,9.99999e-01,9.76923e-01,9.33305e-01,9.99725e-01
8.000968774e-01,9.09333e-01,9.99999e-01,9.99999e-01,9.73270e-01,9.34578e-01,9.99708e-01
8.040973618e-01,9.10628e-01,9.99999e-01,9.99999e-01,9.73296e-01,9.35828e-01,9.99768e-01
8.081178486e-01,8.81834e-01,9.99999e-01,9.99999e-01,9.41273e-01,9.37055e-01,9.99782e-01
8.121584379e-01,7.30746e-01,9.99999e-01,9.99999e-01,7.79495e-01,9.38259e-01,9.99146e-01
8.162192301e-01,6.96584e-01,9.99999e-01,9.99999e-01,7.43869e-01,9.39441e-01,9.96796e-01
8.203003262e-01,8.13348e-01,9.99999e-01,9.99999e-01,8.67965e-01,9.40601e-01,9.96250e-01
8.244018279e-01,7.71557e-01,9.99999e-01,9.99999e-01,8.21742e-01,9.41739e-01,9.97014e-01
8.285238370e-01,7.87396e-01,9.99999e-01,9.99999e-01,8.37080e-01,9.42856e-01,9.97654e-01
8.326664562e-01,7.88062e-01,9.99999e-01,9.99999e-01,8.35663e-01,9.43953e-01,9.99029e-01
8.368297885e-01,8.29911e-01,9.99999e-01,9.99999e-01,8.78380e-01,9.45029e-01,9.99777e-01
8.410139374e-01,8.75618e-01,9.99999e-01,9.99999e-01,9.25636e-01,9.46085e-01,9.99869e-01
8.452190071e-01,9.11748e-01,9.99999e-01,9.99999e-01,9.62725e-01,9.47121e-01,9.99922e-01
8.494451021e-01,9.27431e-01,9.99999e-01,9.99999e-01,9.78220e-01,9.48138e-01,9.99937e-01
8.536923276e-01,9.36801e-01,9.99999e-01,9.99999e-01,9.87043e-01,9.49136e-01,9.99958e-01
8.579607893e-01,9.42517e-01,9.99999e-01,9.99999e-01,9.92013e-01,9.50115e-01,9.99988e-01
8.622505932e-01,9.46237e-01,9.99999e-01,9.99999e-01,9.94913e-01,9.51076e-01,9.99997e-01
8.665618462e-01,9.49026e-01,9.99999e-01,9.99999e-01,9.96856e-01,9.52019e-01,9.99998e-01
8.708946554e-01,9.49517e-01,9.99999e-01,9.99999e-01,9.96405e-01,9.52944e-01,9.99997e-01
8.752491287e-01,9.49260e-01,9.99999e-01,9.99999e-01,9.95191e-01,9.53851e-01,9.99994e-01
8.796253743e-01,9.48386e-01,9.99999e-01,9.99999e-01,9.93357e-01,9.54742e-01,9.99984e-01
8.840235012e-01,9.48322e-01,9.99999e-01,9.99999e-01,9.92412e-01,9.55616e-01,9.99953e-01
8.884436187e-01,9.30562e-01,9.99999e-01,9.99999e-01,9.73037e-01,9.56473e-01,9.99867e-01
8.928858368e-01,7.20503e-01,9.99999e-01,9.99999e-01,7.53202e-01,9.57314e-01,9.99238e-01
8.973502660e-01,5.79337e-01,9.99999e-01,9.99999e-01,6.07011e-01,9.58139e-01,9.96104e-01
9.018370173e-01,7.38059e-01,9.99999e-01,9.99999e-01,7.74390e-01,9.58949e-01,9.93882e-01
9.063462024e-01,7.62217e-01,9.99999e-01,9.99999e-01,7.98479e-01,9.59743e-01,9.94624e-01
9.108779334e-01,6.72341e-01,9.99999e-01,9.99999e-01,7.03905e-01,9.60523e-01,9.94414e-01
9.154323231e-01,6.39981e-01,9.99999e-01,9.99999e-01,6.68842e-01,9.61287e-01,9.95380e-01
9.200094847e-01,7.01501e-01,9.99999e-01,9.99999e-01,7.31074e-01,9.62037e-01,9.97411e-01
9.246095321e-01,6.06445e-01,9.99999e-01,9.99999e-01,6.31777e-01,9.62773e-01,9.97018e-01
9.292325798e-01,6.80795e-02,9.99999e-01,9.99999e-01,7.14863e-02,9.63494e-01,9.88424e-01
9.338787427e-01,2.54685e-02,9.99999e-01,9.99999e-01,2.77165e-02,9.64202e-01,9.53007e-01
9.385481364e-01,2.10861e-01,9.99999e-01,9.99999e-01,2.31407e-01,9.64897e-01,9.44361e-01
9.432408771e-01,1.35501e-01,9.99999e-01,9.99999e-01,1.47436e-01,9.65578e-01,9.51812e-01
9.479570815e-01,6.01057e-02,9.99999e-01,9.99999e-01,6.47565e-02,9.66246e-01,9.60602e-01
9.526968669e-01,1.10627e-01,9.99999e-01,9.99999e-01,1.17254e-01,9.66902e-01,9.75781e-01
9.574603512e-01,1.22314e-01,9.99999e-01,9.99999e-01,1.28001e-01,9.67545e-01,9.87623e-01
9.622476530e-01,1.71562e-01,9.99999e-01,9.99999e-01,1.78734e-01,9.68176e-01,9.91425e-01
9.670588912e-01,3.50691e-01,9.99999e-01,9.99999e-01,3.64125e-01,9.68794e-01,9.94127e-01
9.718941857e-01,4.95984e-01,9.99999e-01,9.99999e-01,5.13862e-01,9.69401e-01,9.95673e-01
9.767536566e-01,5.55370e-01,9.99999e-01,9.99999e-01,5.74448e-01,9.69997e-01,9.96692e-01
9.816374249e-01,6.39650e-01,9.99999e-01,9.99999e-01,6.59794e-01,9.70580e-01,9.98853e-01
9.865456120e-01,7.47431e-01,9.99999e-01,9.99999e-01,7.69816e-01,9.71153e-01,9.99760e-01
9.914783401e-01,8.25956e-01,9.99999e-01,9.99999e-01,8.50053e-01,9.71715e-01,9.99933e-01
9.964357318e-01,8.89852e-01,9.99999e-01,9.99999e-01,9.15271e-01,9.72265e-01,9.99960e-01
1.001417910e+00,9.22407e-01,9.99999e-01,9.99999e-01,9.48247e-01,9.72806e-01,9.99940e-01
1.006425000e+00,9.44222e-01,9.99999e-01,9.99999e-01,9.70170e-01,9.73336e-01,9.99915e-01
1.011457125e+00,9.55629e-01,9.99999e-01,9.99999e-01,9.81360e-01,9.73855e-01,9.99921e-01
1.016514411e+00,9.61952e-01,9.99999e-01,9.99999e-01,9.87314e-01,9.74365e-01,9.99944e-01
1.021596983e+00,9.64949e-01,9.99999e-01,9.99999e-01,9.89882e-01,9.74865e-01,9.99944e-01
1.026704968e+00,9.67617e-01,9.99999e-01,9.99999e-01,9.92102e-01,9.75355e-01,9.99962e-01
1.031838492e+00,9.70215e-01,9.99999e-01,9.99999e-01,9.94249e-01,9.75836e-01,9.99989e-01
1.036997685e+00,9.72972e-01,9.99999e-01,9.99999e-01,9.96584e-01,9.76308e-01,9.99997e-01
1.042182673e+00,9.72800e-01,9.99999e-01,9.99999e-01,9.95935e-01,9.76770e-01,9.99998e-01
1.047393587e+00,9.71954e-01,9.99999e-01,9.99999e-01,9.94608e-01,9.77224e-01,9.99998e-01
1.052630555e+00,9.70445e-01,9.99999e-01,9.99999e-01,9.92613e-01,9.77669e-01,9.99997e-01
1.057893707e+00,9.66079e-01,9.99999e-01,9.99999e-01,9.87708e-01,9.78105e-01,9.99995e-01
1.063183176e+00,9.58808e-01,9.99999e-01,9.99999e-01,9.79852e-01,9.78533e-01,9.99988e-01
1.068499092e+00,9.46124e-01,9.99999e-01,9.99999e-01,9.66487e-01,9.78952e-01,9.99976e-01
1.073841587e+00,9.41136e-01,9.99999e-01,9.99999e-01,9.61015e-01,9.79364e-01,9.99949e-01
1.079210795e+00,9.30818e-01,9.99999e-01,9.99999e-01,9.50168e-01,9.79767e-01,9.99863e-01
1.084606849e+00,9.07082e-01,9.99999e-01,9.99999e-01,9.25743e-01,9.80163e-01,9.99671e-01
1.090029883e+00,8.77764e-01,9.99999e-01,9.99999e-01,8.95782e-01,9.80551e-01,9.99320e-01
1.095480033e+00,7.26190e-01,9.99999e-01,9.99999e-01,7.41217e-01,9.80931e-01,9.98770e-01
1.100957433e+00,4.65518e-01,9.99999e-01,9.99999e-01,4.75461e-01,9.81304e-01,9.97738e-01
1.106462220e+00,1.68123e-01,9.99999e-01,9.99999e-01,1.71921e-01,9.81670e-01,9.96167e-01
1.111994531e+00,2.71125e-02,9.99999e-01,9.99999e-01,2.78915e-02,9.82029e-01,9.89858e-01
1.117554504e+00,4.05374e-03,9.99999e-01,9.99999e-01,4.28112e-03,9.82381e-01,9.63868e-01
1.123142276e+00,2.34013e-02,9.99999e-01,9.99999e-01,2.59841e-02,9.82726e-01,9.16430e-01
1.128757988e+00,6.14725e-02,9.99999e-01,9.99999e-01,6.91741e-02,9.83064e-01,9.03972e-01
1.134401778e+00,2.93670e-02,9.99999e-01,9.99999e-01,3.25396e-02,9.83396e-01,9.17737e-01
1.140073787e+00,1.66964e-01,9.99999e-01,9.99999e-01,1.81777e-01,9.83721e-01,9.33710e-01
1.145774156e+00,3.95238e-02,9.99999e-01,9.99999e-01,4.27672e-02,9.84040e-01,9.39147e-01
1.151503026e+00,2.79714e-02,9.99999e-01,9.99999e-01,2.94274e-02,9.84353e-01,9.65629e-01
1.157260541e+00,3.66804e-02,9.99999e-01,9.99999e-01,3.76434e-02,9.84659e-01,9.89596e-01
1.163046844e+00,8.44639e-02,9.99999e-01,9.99999e-01,8.60081e-02,9.84960e-01,9.97040e-01
1.168862078e+00,1.64710e-01,9.99999e-01,9.99999e-01,1.67430e-01,9.85255e-01,9.98474e-01
1.174706389e+00,3.23399e-01,9.99999e-01,9.99999e-01,3.28807e-01,9.85544e-01,9.97977e-01
1.180579921e+00,4.95115e-01,9.99999e-01,9.99999e-01,5.03772e-01,9.85827e-01,9.96943e-01
1.186482820e+00,6.63471e-01,9.99999e-01,9.99999e-01,6.74936e-01,9.86105e-01,9.96863e-01
1.192415234e+00,7.81316e-01,9.99999e-01,9.99999e-01,7.93971e-01,9.86378e-01,9.97649e-01
1.198377311e+00,8.10781e-01,9.99999e-01,9.99999e-01,8.23583e-01,9.86645e-01,9.97780e-01
1.204369197e+00,8.20584e-01,9.99999e-01,9.99999e-01,8.33143e-01,9.86907e-01,9.97991e-01
1.210391043e+00,8.27411e-01,9.99999e-01,9.99999e-01,8.39195e-01,9.87164e-01,9.98777e-01
1.216442998e+00,8.49854e-01,9.99999e-01,9.99999e-01,8.61329e-01,9.87416e-01,9.99250e-01
1.222525213e+00,8.78556e-01,9.99999e-01,9.99999e-01,8.89943e-01,9.87663e-01,9.99534e-01
1.228637839e+00,9.10832e-01,9.99999e-01,9.99999e-01,9.22182e-01,9.87905e-01,9.99783e-01
