#,Wave/freq,Total,N2,O2,H2O,Rayleigh,CIA
4.000000000e-01,7.02291e-01,9.99999e-01,9.99999e-01,9.99959e-01,7.02319e-01,9.99999e-01
4.020000000e-01,7.07226e-01,9.99999e-01,9.99999e-01,9.99974e-01,7.07243e-01,9.99999e-01
4.040100000e-01,7.12091e-01,9.99999e-01,9.99999e-01,9.99989e-01,7.12099e-01,9.99999e-01
4.060300500e-01,7.16889e-01,9.99999e-01,9.99999e-01,9.99997e-01,7.16891e-01,9.99999e-01
4.080602003e-01,7.21619e-01,9.99999e-01,9.99999e-01,9.99998e-01,7.21619e-01,9.99999e-01
4.101005013e-01,7.26285e-01,9.99999e-01,9.99999e-01,9.99999e-01,7.26285e-01,9.99999e-01
4.121510038e-01,7.30886e-01,9.99999e-01,9.99999e-01,9.99998e-01,7.30887e-01,9.99999e-01
4.142117588e-01,7.35419e-01,9.99999e-01,9.99999e-01,9.99988e-01,7.35427e-01,9.99999e-01
4.162828176e-01,7.39868e-01,9.99999e-01,9.99999e-01,9.99950e-01,7.39905e-01,9.99999e-01
4.183642317e-01,7.44299e-01,9.99999e-01,9.99999e-01,9.99970e-01,7.44320e-01,9.99999e-01
4.204560528e-01,7.48661e-01,9.99999e-01,9.99999e-01,9.99981e-01,7.48674e-01,9.99999e-01
4.225583331e-01,7.52962e-01,9.99999e-01,9.99999e-01,9.99992e-01,7.52967e-01,9.99999e-01
4.246711247e-01,7.57195e-01,9.99999e-01,9.99999e-01,9.99994e-01,7.57199e-01,9.99999e-01
4.267944804e-01,7.61364e-01,9.99999e-01,9.99999e-01,9.99991e-01,7.61370e-01,9.99999e-01
4.289284528e-01,7.65477e-01,9.99999e-01,9.99999e-01,9.99993e-01,7.65481e-01,9.99999e-01
4.310730950e-01,7.69531e-01,9.99999e-01,9.99999e-01,9.99996e-01,7.69533e-01,9.99999e-01
4.332284605e-01,7.73525e-01,9.99999e-01,9.99999e-01,9.99998e-01,7.73525e-01,9.99999e-01
4.353946028e-01,7.77459e-01,9.99999e-01,9.99999e-01,9.99999e-01,7.77459e-01,9.99999e-01
4.375715758e-01,7.81330e-01,9.99999e-01,9.99999e-01,9.99994e-01,7.81334e-01,9.99999e-01
4.397594337e-01,7.85117e-01,9.99999e-01,9.99999e-01,9.99956e-01,7.85152e-01,9.99999e-01
4.419582309e-01,7.88737e-01,9.99999e-01,9.99999e-01,9.99778e-01,7.88912e-01,9.99999e-01
4.441680220e-01,7.92479e-01,9.99999e-01,9.99999e-01,9.99828e-01,7.92615e-01,9.99999e-01
4.463888621e-01,7.96120e-01,9.99999e-01,9.99999e-01,9.99820e-01,7.96262e-01,9.99999e-01
4.486208064e-01,7.99765e-01,9.99999e-01,9.99999e-01,9.99888e-01,7.99854e-01,9.99999e-01
4.508639105e-01,8.03348e-01,9.99999e-01,9.99999e-01,9.99947e-01,8.03390e-01,9.99999e-01
4.531182300e-01,8.06855e-01,9.99999e-01,9.99999e-01,9.99979e-01,8.06871e-01,9.99999e-01
4.553838212e-01,8.10287e-01,9.99999e-01,9.99999e-01,9.99985e-01,8.10299e-01,9.99999e-01
4.576607403e-01,8.13667e-01,9.99999e-01,9.99999e-01,9.99993e-01,8.13672e-01,9.99999e-01
4.599490440e-01,8.16989e-01,9.99999e-01,9.99999e-01,9.99994e-01,8.16993e-01,9.99999e-01
4.622487892e-01,8.20261e-01,9.99999e-01,9.99999e-01,9.99998e-01,8.20261e-01,9.99999e-01
4.645600332e-01,8.23475e-01,9.99999e-01,9.99999e-01,9.99996e-01,8.23478e-01,9.99999e-01
4.668828333e-01,8.26599e-01,9.99999e-01,9.99999e-01,9.99946e-01,8.26643e-01,9.99999e-01
4.692172475e-01,8.29664e-01,9.99999e-01,9.99999e-01,9.99887e-01,8.29757e-01,9.99999e-01
4.715633337e-01,8.32761e-01,9.99999e-01,9.99999e-01,9.99926e-01,8.32822e-01,9.99999e-01
4.739211504e-01,8.35778e-01,9.99999e-01,9.99999e-01,9.99929e-01,8.35837e-01,9.99999e-01
4.762907561e-01,8.38772e-01,9.99999e-01,9.99999e-01,9.99963e-01,8.38802e-01,9.99999e-01
4.786722099e-01,8.41707e-01,9.99999e-01,9.99999e-01,9.99984e-01,8.41720e-01,9.99999e-01
4.810655710e-01,8.44586e-01,9.99999e-01,9.99999e-01,9.99995e-01,8.44589e-01,9.99999e-01
4.834708988e-01,8.47375e-01,9.99999e-01,9.99999e-01,9.99956e-01,8.47412e-01,9.99999e-01
4.858882533e-01,8.50120e-01,9.99999e-01,9.99999e-01,9.99920e-01,8.50188e-01,9.99999e-01
4.883176946e-01,8.52861e-01,9.99999e-01,9.99999e-01,9.99933e-01,8.52918e-01,9.99999e-01
4.907592831e-01,8.55551e-01,9.99999e-01,9.99999e-01,9.99939e-01,8.55602e-01,9.99999e-01
4.932130795e-01,8.58205e-01,9.99999e-01,9.99999e-01,9.99956e-01,8.58242e-01,9.99999e-01
4.956791449e-01,8.60818e-01,9.99999e-01,9.99999e-01,9.99976e-01,8.60837e-01,9.99999e-01
4.981575406e-01,8.63291e-01,9.99999e-01,9.99999e-01,9.99886e-01,8.63389e-01,9.99999e-01
5.006483283e-01,8.65642e-01,9.99999e-01,9.99999e-01,9.99706e-01,8.65898e-01,9.99997e-01
5.031515699e-01,8.67063e-01,9.99999e-01,9.99999e-01,9.98516e-01,8.68364e-01,9.99983e-01
5.056673278e-01,8.70092e-01,9.99999e-01,9.99999e-01,9.99217e-01,8.70788e-01,9.99981e-01
5.081956644e-01,8.72301e-01,9.99999e-01,9.99999e-01,9.99013e-01,8.73171e-01,9.99988e-01
5.107366428e-01,8.74929e-01,9.99999e-01,9.99999e-01,9.99334e-01,8.75513e-01,9.99997e-01
5.132903260e-01,8.77482e-01,9.99999e-01,9.99999e-01,9.99619e-01,8.77816e-01,9.99999e-01
5.158567776e-01,8.79937e-01,9.99999e-01,9.99999e-01,9.99839e-01,8.80078e-01,9.99999e-01
5.184360615e-01,8.82245e-01,9.99999e-01,9.99999e-01,9.99935e-01,8.82301e-01,9.99999e-01
5.210282418e-01,8.84465e-01,9.99999e-01,9.99999e-01,9.99975e-01,8.84486e-01,9.99999e-01
5.236333830e-01,8.86547e-01,9.99999e-01,9.99999e-01,9.99902e-01,8.86634e-01,9.99998e-01
5.262515499e-01,8.88689e-01,9.99999e-01,9.99999e-01,9.99939e-01,8.88743e-01,9.99998e-01
5.288828077e-01,8.90766e-01,9.99999e-01,9.99999e-01,9.99944e-01,8.90816e-01,9.99998e-01
5.315272217e-01,8.92809e-01,9.99999e-01,9.99999e-01,9.99950e-01,8.92853e-01,9.99999e-01
5.341848578e-01,8.94825e-01,9.99999e-01,9.99999e-01,9.99967e-01,8.94854e-01,9.99999e-01
5.368557821e-01,8.96718e-01,9.99999e-01,9.99999e-01,9.99886e-01,8.96820e-01,9.99999e-01
5.395400610e-01,8.98382e-01,9.99999e-01,9.99999e-01,9.99592e-01,8.98751e-01,9.99996e-01
5.422377613e-01,9.00168e-01,9.99999e-01,9.99999e-01,9.99475e-01,9.00648e-01,9.99990e-01
5.449489501e-01,9.02062e-01,9.99999e-01,9.99999e-01,9.99510e-01,9.02511e-01,9.99989e-01
5.476736949e-01,9.03947e-01,9.99999e-01,9.99999e-01,9.99568e-01,9.04342e-01,9.99994e-01
5.504120634e-01,9.05855e-01,9.99999e-01,9.99999e-01,9.99686e-01,9.06140e-01,9.99998e-01
5.531641237e-01,9.07762e-01,9.99999e-01,9.99999e-01,9.99842e-01,9.07905e-01,9.99999e-01
5.559299443e-01,9.09571e-01,9.99999e-01,9.99999e-01,9.99923e-01,9.09640e-01,9.99999e-01
5.587095940e-01,9.11299e-01,9.99999e-01,9.99999e-01,9.99951e-01,9.11343e-01,9.99999e-01
5.615031420e-01,9.12967e-01,9.99999e-01,9.99999e-01,9.99946e-01,9.13016e-01,9.99999e-01
5.643106577e-01,9.14602e-01,9.99999e-01,9.99999e-01,9.99939e-01,9.14658e-01,9.99998e-01
5.671322110e-01,9.15589e-01,9.99999e-01,9.99999e-01,9.99261e-01,9.16271e-01,9.99993e-01
5.699678720e-01,9.17124e-01,9.99999e-01,9.99999e-01,9.99222e-01,9.17855e-01,9.99979e-01
5.728177114e-01,9.18649e-01,9.99999e-01,9.99999e-01,9.99187e-01,9.19411e-01,9.99982e-01
5.756818000e-01,9.20243e-01,9.99999e-01,9.99999e-01,9.99254e-01,9.20938e-01,9.99989e-01
5.785602090e-01,9.21836e-01,9.99999e-01,9.99999e-01,9.99350e-01,9.22437e-01,9.99996e-01
5.814530100e-01,9.23306e-01,9.99999e-01,9.99999e-01,9.99347e-01,9.23909e-01,9.99998e-01
5.843602750e-01,9.24630e-01,9.99999e-01,9.99999e-01,9.99220e-01,9.25355e-01,9.99995e-01
5.872820764e-01,9.20522e-01,9.99999e-01,9.99999e-01,9.93300e-01,9.26774e-01,9.99952e-01
5.902184868e-01,9.20540e-01,9.99999e-01,9.99999e-01,9.91909e-01,9.28167e-01,9.99871e-01
5.931695792e-01,9.24099e-01,9.99999e-01,9.99999e-01,9.94274e-01,9.29535e-01,9.99876e-01
5.961354271e-01,9.24974e-01,9.99999e-01,9.99999e-01,9.93728e-01,9.30877e-01,9.99928e-01
5.991161043e-01,9.27910e-01,9.99999e-01,9.99999e-01,9.95424e-01,9.32195e-01,9.99977e-01
6.021116848e-01,9.31063e-01,9.99999e-01,9.99999e-01,9.97402e-01,9.33489e-01,9.99997e-01
6.051222432e-01,9.33530e-01,9.99999e-01,9.99999e-01,9.98685e-01,9.34759e-01,9.99999e-01
6.081478544e-01,9.35474e-01,9.99999e-01,9.99999e-01,9.99432e-01,9.36005e-01,9.99999e-01
6.111885937e-01,9.37004e-01,9.99999e-01,9.99999e-01,9.99759e-01,9.37229e-01,9.99999e-01
6.142445367e-01,9.38329e-01,9.99999e-01,9.99999e-01,9.99892e-01,9.38430e-01,9.99999e-01
6.173157594e-01,9.39553e-01,9.99999e-01,9.99999e-01,9.99940e-01,9.39608e-01,9.99999e-01
6.204023382e-01,9.40718e-01,9.99999e-01,9.99999e-01,9.99949e-01,9.40765e-01,9.99999e-01
6.235043498e-01,9.41691e-01,9.99999e-01,9.99999e-01,9.99777e-01,9.41900e-01,9.99998e-01
6.266218716e-01,9.41906e-01,9.99999e-01,9.99999e-01,9.98831e-01,9.43015e-01,9.99991e-01
6.297549810e-01,9.43688e-01,9.99999e-01,9.99999e-01,9.99571e-01,9.44108e-01,9.99983e-01
6.329037559e-01,9.44370e-01,9.99999e-01,9.99999e-01,9.99153e-01,9.45181e-01,9.99986e-01
6.360682746e-01,9.45545e-01,9.99999e-01,9.99999e-01,9.99278e-01,9.46234e-01,9.99991e-01
6.392486160e-01,9.46380e-01,9.99999e-01,9.99999e-01,9.99065e-01,9.47268e-01,9.99996e-01
6.424448591e-01,9.47088e-01,9.99999e-01,9.99999e-01,9.98745e-01,9.48282e-01,9.99994e-01
6.456570834e-01,9.43732e-01,9.99999e-01,9.99999e-01,9.94189e-01,9.49277e-01,9.99967e-01
6.488853688e-01,9.46140e-01,9.99999e-01,9.99999e-01,9.95760e-01,9.50254e-01,9.99909e-01
6.521297956e-01,9.47032e-01,9.99999e-01,9.99999e-01,9.95678e-01,9.51212e-01,9.99925e-01
6.553904446e-01,9.47997e-01,9.99999e-01,9.99999e-01,9.95690e-01,9.52152e-01,9.99944e-01
6.586673968e-01,9.49545e-01,9.99999e-01,9.99999e-01,9.96314e-01,9.53075e-01,9.99981e-01
6.619607338e-01,9.52016e-01,9.99999e-01,9.99999e-01,9.97944e-01,9.53980e-01,9.99995e-01
6.652705375e-01,9.53689e-01,9.99999e-01,9.99999e-01,9.98766e-01,9.54868e-01,9.99997e-01
6.685968902e-01,9.55238e-01,9.99999e-01,9.99999e-01,9.99475e-01,9.55740e-01,9.99999e-01
6.719398746e-01,9.56341e-01,9.99999e-01,9.99999e-01,9.99734e-01,9.56595e-01,9.99999e-01
6.752995740e-01,9.57296e-01,9.99999e-01,9.99999e-01,9.99855e-01,9.57433e-01,9.99999e-01
6.786760719e-01,9.58056e-01,9.99999e-01,9.99999e-01,9.99791e-01,9.58256e-01,9.99999e-01
6.820694522e-01,9.58720e-01,9.99999e-01,9.99999e-01,9.99643e-01,9.59064e-01,9.99997e-01
6.854797995e-01,9.59411e-01,9.99999e-01,9.99999e-01,9.99539e-01,9.59856e-01,9.99995e-01
6.889071985e-01,9.59549e-01,9.99999e-01,9.99999e-01,9.98880e-01,9.60633e-01,9.99989e-01
6.923517345e-01,9.43946e-01,9.99999e-01,9.99999e-01,9.81935e-01,9.61395e-01,9.99912e-01
6.958134932e-01,9.52954e-01,9.99999e-01,9.99999e-01,9.90639e-01,9.62143e-01,9.99806e-01
6.992925606e-01,9.54081e-01,9.99999e-01,9.99999e-01,9.91036e-01,9.62877e-01,9.99825e-01
7.027890234e-01,9.52845e-01,9.99999e-01,9.99999e-01,9.88972e-01,9.63597e-01,9.99866e-01
7.063029686e-01,9.55289e-01,9.99999e-01,9.99999e-01,9.90717e-01,9.64303e-01,9.99933e-01
7.098344834e-01,9.56362e-01,9.99999e-01,9.99999e-01,9.91091e-01,9.64995e-01,9.99960e-01
7.133836558e-01,9.54108e-01,9.99999e-01,9.99999e-01,9.88098e-01,9.65675e-01,9.99922e-01
7.169505741e-01,8.77532e-01,9.99999e-01,9.99999e-01,9.08651e-01,9.66341e-01,9.99389e-01
7.205353270e-01,9.21948e-01,9.99999e-01,9.99999e-01,9.54441e-01,9.66995e-01,9.98923e-01
7.241380036e-01,9.10805e-01,9.99999e-01,9.99999e-01,9.42143e-01,9.67636e-01,9.99070e-01
7.277586936e-01,9.16895e-01,9.99999e-01,9.99999e-01,9.47665e-01,9.68265e-01,9.99239e-01
7.313974871e-01,9.14786e-01,9.99999e-01,9.99999e-01,9.44502e-01,9.68882e-01,9.99643e-01
7.350544745e-01,9.39575e-01,9.99999e-01,9.99999e-01,9.69265e-01,9.69487e-01,9.99875e-01
7.387297469e-01,9.47996e-01,9.99999e-01,9.99999e-01,9.77288e-01,9.70081e-01,9.99942e-01
7.424233956e-01,9.59813e-01,9.99999e-01,9.99999e-01,9.88832e-01,9.70663e-01,9.99988e-01
7.461355126e-01,9.64643e-01,9.99999e-01,9.99999e-01,9.93214e-01,9.71234e-01,9.99997e-01
7.498661902e-01,9.68722e-01,9.99999e-01,9.99999e-01,9.96838e-01,9.71794e-01,9.99998e-01
7.536155211e-01,9.70833e-01,9.99999e-01,9.99999e-01,9.98446e-01,9.72344e-01,9.99999e-01
7.573835987e-01,9.72105e-01,9.99999e-01,9.99999e-01,9.99200e-01,9.72882e-01,9.99999e-01
7.611705167e-01,9.72927e-01,9.99999e-01,9.99999e-01,9.99502e-01,9.73411e-01,9.99999e-01
7.649763693e-01,9.73626e-01,9.99999e-01,9.99999e-01,9.99688e-01,9.73929e-01,9.99999e-01
7.688012511e-01,9.74226e-01,9.99999e-01,9.99999e-01,9.99782e-01,9.74437e-01,9.99999e-01
7.726452574e-01,9.74762e-01,9.99999e-01,9.99999e-01,9.99820e-01,9.74936e-01,9.99999e-01
7.765084837e-01,9.75176e-01,9.99999e-01,9.99999e-01,9.99745e-01,9.75425e-01,9.99999e-01
7.803910261e-01,9.74830e-01,9.99999e-01,9.99999e-01,9.98899e-01,9.75904e-01,9.99998e-01
7.842929812e-01,9.72622e-01,9.99999e-01,9.99999e-01,9.96162e-01,9.76375e-01,9.99992e-01
7.882144461e-01,9.69097e-01,9.99999e-01,9.99999e-01,9.92130e-01,9.76836e-01,9.99945e-01
7.921555184e-01,9.72982e-01,9.99999e-01,9.99999e-01,9.95686e-01,9.77288e-01,9.99905e-01
7.961162960e-01,9.70173e-01,9.99999e-01,9.99999e-01,9.92357e-01,9.77732e-01,9.99910e-01
8.000968774e-01,9.69459e-01,9.99999e-01,9.99999e-01,9.91191e-01,9.78167e-01,9.99904e-01
8.040973618e-01,9.69898e-01,9.99999e-01,9.99999e-01,9.91185e-01,9.78593e-01,9.99926e-01
8.081178486e-01,9.59560e-01,9.99999e-01,9.99999e-01,9.80202e-01,9.79012e-01,9.99926e-01
8.121584379e-01,9.01015e-01,9.99999e-01,9.99999e-01,9.20201e-01,9.79422e-01,9.99721e-01
8.162192301e-01,8.87142e-01,9.99999e-01,9.99999e-01,9.06357e-01,9.79824e-01,9.98952e-01
8.203003262e-01,9.32272e-01,9.99999e-01,9.99999e-01,9.52252e-01,9.80219e-01,9.98773e-01
8.244018279e-01,9.15616e-01,9.99999e-01,9.99999e-01,9.34636e-01,9.80606e-01,9.99023e-01
8.285238370e-01,9.24181e-01,9.99999e-01,9.99999e-01,9.42816e-01,9.80985e-01,9.99233e-01
8.326664562e-01,9.24464e-01,9.99999e-01,9.99999e-01,9.42324e-01,9.81357e-01,9.99682e-01
8.368297885e-01,9.40835e-01,9.99999e-01,9.99999e-01,9.58420e-01,9.81722e-01,9.99927e-01
8.410139374e-01,9.57570e-01,9.99999e-01,9.99999e-01,9.75084e-01,9.82080e-01,9.99957e-01
8.452190071e-01,9.70332e-01,9.99999e-01,9.99999e-01,9.87709e-01,9.82430e-01,9.99974e-01
8.494451021e-01,9.75721e-01,9.99999e-01,9.99999e-01,9.92842e-01,9.82774e-01,9.99979e-01
8.536923276e-01,9.78939e-01,9.99999e-01,9.99999e-01,9.95767e-01,9.83112e-01,9.99987e-01
8.579607893e-01,9.80872e-01,9.99999e-01,9.99999e-01,9.97388e-01,9.83443e-01,9.99996e-01
8.622505932e-01,9.82136e-01,9.99999e-01,9.99999e-01,9.98341e-01,9.83767e-01,9.99998e-01
8.665618462e-01,9.83074e-01,9.99999e-01,9.99999e-01,9.98972e-01,9.84085e-01,9.99999e-01
8.708946554e-01,9.83238e-01,9.99999e-01,9.99999e-01,9.98823e-01,9.84397e-01,9.99998e-01
8.752491287e-01,9.83152e-01,9.99999e-01,9.99999e-01,9.98426e-01,9.84703e-01,9.99997e-01
8.796253743e-01,9.82850e-01,9.99999e-01,9.99999e-01,9.97818e-01,9.85003e-01,9.99994e-01
8.840235012e-01,9.82828e-01,9.99999e-01,9.99999e-01,9.97509e-01,9.85297e-01,9.99984e-01
8.884436187e-01,9.76572e-01,9.99999e-01,9.99999e-01,9.90897e-01,9.85585e-01,9.99956e-01
8.928858368e-01,8.95674e-01,9.99999e-01,9.99999e-01,9.08738e-01,9.85868e-01,9.99750e-01
8.973502660e-01,8.32189e-01,9.99999e-01,9.99999e-01,8.44957e-01,9.86145e-01,9.98725e-01
9.018370173e-01,9.03541e-01,9.99999e-01,9.99999e-01,9.17820e-01,9.86417e-01,9.97997e-01
9.063462024e-01,9.12877e-01,9.99999e-01,9.99999e-01,9.26827e-01,9.86683e-01,9.98240e-01
9.108779334e-01,8.75262e-01,9.99999e-01,9.99999e-01,8.88463e-01,9.86944e-01,9.98172e-01
9.154323231e-01,8.61724e-01,9.99999e-01,9.99999e-01,8.74217e-01,9.87201e-01,9.98488e-01
9.200094847e-01,8.88227e-01,9.99999e-01,9.99999e-01,9.00275e-01,9.87452e-01,9.99153e-01
9.246095321e-01,8.38456e-01,9.99999e-01,9.99999e-01,8.49726e-01,9.87698e-01,9.99025e-01
9.292325798e-01,3.42165e-01,9.99999e-01,9.99999e-01,3.47661e-01,9.87940e-01,9.96204e-01
9.338787427e-01,2.51268e-01,9.99999e-01,9.99999e-01,2.58303e-01,9.88176e-01,9.84404e-01
9.385481364e-01,5.60137e-01,9.99999e-01,9.99999e-01,5.77398e-01,9.88409e-01,9.81479e-01
9.432408771e-01,4.59576e-01,9.99999e-01,9.99999e-01,4.72416e-01,9.88636e-01,9.84001e-01
9.479570815e-01,3.49498e-01,9.99999e-01,9.99999e-01,3.58105e-01,9.88859e-01,9.86959e-01
9.526968669e-01,4.47580e-01,9.99999e-01,9.99999e-01,4.56160e-01,9.89078e-01,9.92025e-01
9.574603512e-01,4.70211e-01,9.99999e-01,9.99999e-01,4.77237e-01,9.89293e-01,9.95941e-01
9.622476530e-01,5.37816e-01,9.99999e-01,9.99999e-01,5.45052e-01,9.89503e-01,9.97191e-01
9.670588912e-01,6.94957e-01,9.99999e-01,9.99999e-01,7.03534e-01,9.89709e-01,9.98078e-01
9.718941857e-01,7.91303e-01,9.99999e-01,9.99999e-01,8.00499e-01,9.89912e-01,9.98584e-01
9.767536566e-01,8.22095e-01,9.99999e-01,9.99999e-01,8.31205e-01,9.90110e-01,9.98918e-01
9.816374249e-01,8.63045e-01,9.99999e-01,9.99999e-01,8.71820e-01,9.90304e-01,9.99625e-01
9.865456120e-01,9.08988e-01,9.99999e-01,9.99999e-01,9.17782e-01,9.90495e-01,9.99921e-01
9.914783401e-01,9.39443e-01,9.99999e-01,9.99999e-01,9.48299e-01,9.90682e-01,9.99977e-01
9.964357318e-01,9.62623e-01,9.99999e-01,9.99999e-01,9.71509e-01,9.90865e-01,9.99986e-01
1.001417910e+00,9.74006e-01,9.99999e-01,9.99999e-01,9.82826e-01,9.91044e-01,9.99980e-01
1.006425000e+00,9.81448e-01,9.99999e-01,9.99999e-01,9.90167e-01,9.91221e-01,9.99972e-01
1.011457125e+00,9.85314e-01,9.99999e-01,9.99999e-01,9.93892e-01,9.91393e-01,9.99974e-01
1.016514411e+00,9.87428e-01,9.99999e-01,9.99999e-01,9.95847e-01,9.91562e-01,9.99981e-01
1.021596983e+00,9.88428e-01,9.99999e-01,9.99999e-01,9.96689e-01,9.91728e-01,9.99981e-01
1.026704968e+00,9.89318e-01,9.99999e-01,9.99999e-01,9.97416e-01,9.91891e-01,9.99988e-01
1.031838492e+00,9.90186e-01,9.99999e-01,9.99999e-01,9.98123e-01,9.92051e-01,9.99996e-01
1.036997685e+00,9.91100e-01,9.99999e-01,9.99999e-01,9.98884e-01,9.92207e-01,9.99998e-01
1.042182673e+00,9.91039e-01,9.99999e-01,9.99999e-01,9.98667e-01,9.92360e-01,9.99999e-01
1.047393587e+00,9.90759e-01,9.99999e-01,9.99999e-01,9.98235e-01,9.92511e-01,9.99999e-01
1.052630555e+00,9.90253e-01,9.99999e-01,9.99999e-01,9.97577e-01,9.92658e-01,9.99998e-01
1.057893707e+00,9.88787e-01,9.99999e-01,9.99999e-01,9.95956e-01,9.92803e-01,9.99998e-01
1.063183176e+00,9.86345e-01,9.99999e-01,9.99999e-01,9.93356e-01,9.92944e-01,9.99996e-01
1.068499092e+00,9.82057e-01,9.99999e-01,9.99999e-01,9.88904e-01,9.93083e-01,9.99992e-01
1.073841587e+00,9.80313e-01,9.99999e-01,9.99999e-01,9.87021e-01,9.93219e-01,9.99983e-01
1.079210795e+00,9.76832e-01,9.99999e-01,9.99999e-01,9.83412e-01,9.93353e-01,9.99955e-01
1.084606849e+00,9.68530e-01,9.99999e-01,9.99999e-01,9.74986e-01,9.93484e-01,9.99892e-01
1.090029883e+00,9.57844e-01,9.99999e-01,9.99999e-01,9.64216e-01,9.93612e-01,9.99777e-01
1.095480033e+00,8.99535e-01,9.99999e-01,9.99999e-01,9.05567e-01,9.93738e-01,9.99598e-01
1.100957433e+00,7.72720e-01,9.99999e-01,9.99999e-01,7.78067e-01,9.93861e-01,9.99260e-01
1.106462220e+00,5.30393e-01,9.99999e-01,9.99999e-01,5.34274e-01,9.93982e-01,9.98746e-01
1.111994531e+00,2.70856e-01,9.99999e-01,9.99999e-01,2.73372e-01,9.94100e-01,9.96676e-01
1.117554504e+00,1.24948e-01,9.99999e-01,9.99999e-01,1.27194e-01,9.94216e-01,9.88054e-01
1.123142276e+00,2.26186e-01,9.99999e-01,9.99999e-01,2.34051e-01,9.94330e-01,9.71904e-01
1.128757988e+00,3.63704e-01,9.99999e-01,9.99999e-01,3.77995e-01,9.94442e-01,9.67569e-01
1.134401778e+00,1.73653e-01,9.99999e-01,9.99999e-01,1.79568e-01,9.94551e-01,9.72356e-01
1.140073787e+00,5.35930e-01,9.99999e-01,9.99999e-01,5.51011e-01,9.94659e-01,9.77851e-01
1.145774156e+00,2.93027e-01,9.99999e-01,9.99999e-01,3.00671e-01,9.94764e-01,9.79706e-01
1.151503026e+00,2.60789e-01,9.99999e-01,9.99999e-01,2.65146e-01,9.94867e-01,9.88643e-01
1.157260541e+00,3.13287e-01,9.99999e-01,9.99999e-01,3.15949e-01,9.94968e-01,9.96590e-01
1.163046844e+00,4.22249e-01,9.99999e-01,9.99999e-01,4.24753e-01,9.95067e-01,9.99032e-01
1.168862078e+00,5.43801e-01,9.99999e-01,9.99999e-01,5.46716e-01,9.95165e-01,9.99501e-01
1.174706389e+00,6.84853e-01,9.99999e-01,9.99999e-01,6.88569e-01,9.95260e-01,9.99338e-01
1.180579921e+00,7.91794e-01,9.99999e-01,9.99999e-01,7.96285e-01,9.95353e-01,9.99000e-01
1.186482820e+00,8.73934e-01,9.99999e-01,9.99999e-01,8.78833e-01,9.95445e-01,9.98974e-01
1.192415234e+00,9.22450e-01,9.99999e-01,9.99999e-01,9.27299e-01,9.95534e-01,9.99231e-01
1.198377311e+00,9.33558e-01,9.99999e-01,9.99999e-01,9.38342e-01,9.95622e-01,9.99274e-01
1.204369197e+00,9.36993e-01,9.99999e-01,9.99999e-01,9.41648e-01,9.95709e-01,9.99343e-01
1.210391043e+00,9.39741e-01,9.99999e-01,9.99999e-01,9.44087e-01,9.95793e-01,9.99600e-01
1.216442998e+00,9.48111e-01,9.99999e-01,9.99999e-01,9.52269e-01,9.95876e-01,9.99754e-01
1.222525213e+00,9.58571e-01,9.99999e-01,9.99999e-01,9.62607e-01,9.95957e-01,9.99847e-01
1.228637839e+00,9.69950e-01,9.99999e-01,9.99999e-01,9.73877e-01,9.96037e-01,9.99928e-01
