#,Wave/freq,Total,N2,O2,H2O,Rayleigh,CIA
4.000000000e-01,4.22127e-02,9.99999e-01,9.99999e-01,9.99643e-01,4.22277e-02,9.99999e-01
4.020000000e-01,4.49446e-02,9.99999e-01,9.99999e-01,9.99779e-01,4.49545e-02,9.99999e-01
4.040100000e-01,4.77907e-02,9.99999e-01,9.99999e-01,9.99906e-01,4.77952e-02,9.99999e-01
4.060300500e-01,5.07528e-02,9.99999e-01,9.99999e-01,9.99978e-01,5.07539e-02,9.99999e-01
4.080602003e-01,5.38315e-02,9.99999e-01,9.99999e-01,9.99992e-01,5.38319e-02,9.99999e-01
4.101005013e-01,5.70302e-02,9.99999e-01,9.99999e-01,9.99998e-01,5.70302e-02,9.99999e-01
4.121510038e-01,6.03489e-02,9.99999e-01,9.99999e-01,9.99986e-01,6.03497e-02,9.99999e-01
4.142117588e-01,6.37847e-02,9.99999e-01,9.99999e-01,9.99900e-01,6.37910e-02,9.99999e-01
4.162828176e-01,6.73250e-02,9.99999e-01,9.99999e-01,9.99557e-01,6.73548e-02,9.99999e-01
4.183642317e-01,7.10227e-02,9.99999e-01,9.99999e-01,9.99737e-01,7.10413e-02,9.99999e-01
4.204560528e-01,7.48388e-02,9.99999e-01,9.99999e-01,9.99839e-01,7.48508e-02,9.99999e-01
4.225583331e-01,7.87786e-02,9.99999e-01,9.99999e-01,9.99939e-01,7.87833e-02,9.99999e-01
4.246711247e-01,8.28345e-02,9.99999e-01,9.99999e-01,9.99951e-01,8.28385e-02,9.99999e-01
4.267944804e-01,8.70100e-02,9.99999e-01,9.99999e-01,9.99929e-01,8.70161e-02,9.99999e-01
4.289284528e-01,9.13107e-02,9.99999e-01,9.99999e-01,9.99944e-01,9.13157e-02,9.99999e-01
4.310730950e-01,9.57342e-02,9.99999e-01,9.99999e-01,9.99976e-01,9.57364e-02,9.99999e-01
4.332284605e-01,1.00277e-01,9.99999e-01,9.99999e-01,9.99993e-01,1.00277e-01,9.99999e-01
4.353946028e-01,1.04938e-01,9.99999e-01,9.99999e-01,9.99996e-01,1.04938e-01,9.99999e-01
4.375715758e-01,1.09711e-01,9.99999e-01,9.99999e-01,9.99955e-01,1.09716e-01,9.99999e-01
4.397594337e-01,1.14567e-01,9.99999e-01,9.99999e-01,9.99608e-01,1.14611e-01,9.99999e-01
4.419582309e-01,1.19384e-01,9.99999e-01,9.99999e-01,9.98007e-01,1.19622e-01,9.99999e-01
4.441680220e-01,1.24555e-01,9.99999e-01,9.99999e-01,9.98468e-01,1.24746e-01,9.99999e-01
4.463888621e-01,1.29774e-01,9.99999e-01,9.99999e-01,9.98398e-01,1.29982e-01,9.99999e-01
4.486208064e-01,1.35193e-01,9.99999e-01,9.99999e-01,9.99009e-01,1.35327e-01,9.99999e-01
4.508639105e-01,1.40715e-01,9.99999e-01,9.99999e-01,9.99536e-01,1.40780e-01,9.99999e-01
4.531182300e-01,1.46312e-01,9.99999e-01,9.99999e-01,9.99816e-01,1.46339e-01,9.99999e-01
4.553838212e-01,1.51982e-01,9.99999e-01,9.99999e-01,9.99875e-01,1.52001e-01,9.99999e-01
4.576607403e-01,1.57755e-01,9.99999e-01,9.99999e-01,9.99942e-01,1.57764e-01,9.99999e-01
4.599490440e-01,1.63618e-01,9.99999e-01,9.99999e-01,9.99959e-01,1.63625e-01,9.99999e-01
4.622487892e-01,1.69580e-01,9.99999e-01,9.99999e-01,9.99992e-01,1.69581e-01,9.99999e-01
4.645600332e-01,1.75625e-01,9.99999e-01,9.99999e-01,9.99971e-01,1.75630e-01,9.99999e-01
4.668828333e-01,1.81683e-01,9.99999e-01,9.99999e-01,9.99526e-01,1.81769e-01,9.99999e-01
4.692172475e-01,1.87806e-01,9.99999e-01,9.99999e-01,9.98995e-01,1.87995e-01,9.99999e-01
4.715633337e-01,1.94177e-01,9.99999e-01,9.99999e-01,9.99342e-01,1.94305e-01,9.99999e-01
4.739211504e-01,2.00570e-01,9.99999e-01,9.99999e-01,9.99373e-01,2.00696e-01,9.99999e-01
4.762907561e-01,2.07097e-01,9.99999e-01,9.99999e-01,9.99675e-01,2.07164e-01,9.99999e-01
4.786722099e-01,2.13679e-01,9.99999e-01,9.99999e-01,9.99867e-01,2.13707e-01,9.99999e-01
4.810655710e-01,2.20313e-01,9.99999e-01,9.99999e-01,9.99959e-01,2.20321e-01,9.99999e-01
4.834708988e-01,2.26915e-01,9.99999e-01,9.99999e-01,9.99608e-01,2.27004e-01,9.99999e-01
4.858882533e-01,2.33585e-01,9.99999e-01,9.99999e-01,9.99290e-01,2.33751e-01,9.99999e-01
4.883176946e-01,2.40415e-01,9.99999e-01,9.99999e-01,9.99403e-01,2.40559e-01,9.99999e-01
4.907592831e-01,2.47292e-01,9.99999e-01,9.99999e-01,9.99463e-01,2.47425e-01,9.99999e-01
4.932130795e-01,2.54249e-01,9.99999e-01,9.99999e-01,9.99618e-01,2.54346e-01,9.99999e-01
4.956791449e-01,2.61265e-01,9.99999e-01,9.99999e-01,9.99798e-01,2.61318e-01,9.99999e-01
4.981575406e-01,2.68066e-01,9.99999e-01,9.99999e-01,9.98987e-01,2.68338e-01,9.99999e-01
5.006483283e-01,2.74672e-01,9.99999e-01,9.99999e-01,9.97366e-01,2.75402e-01,9.99981e-01
5.031515699e-01,2.78744e-01,9.99999e-01,9.99999e-01,9.86819e-01,2.82506e-01,9.99860e-01
5.056673278e-01,2.87584e-01,9.99999e-01,9.99999e-01,9.93028e-01,2.89649e-01,9.99840e-01
5.081956644e-01,2.94189e-01,9.99999e-01,9.99999e-01,9.91213e-01,2.96826e-01,9.99902e-01
5.107366428e-01,3.02224e-01,9.99999e-01,9.99999e-01,9.94067e-01,3.04033e-01,9.99983e-01
5.132903260e-01,3.10213e-01,9.99999e-01,9.99999e-01,9.96611e-01,3.11268e-01,9.99997e-01
5.158567776e-01,3.18071e-01,9.99999e-01,9.99999e-01,9.98569e-01,3.18527e-01,9.99999e-01
5.184360615e-01,3.25620e-01,9.99999e-01,9.99999e-01,9.99426e-01,3.25807e-01,9.99999e-01
5.210282418e-01,3.33033e-01,9.99999e-01,9.99999e-01,9.99784e-01,3.33104e-01,9.99999e-01
5.236333830e-01,3.40120e-01,9.99999e-01,9.99999e-01,9.99135e-01,3.40417e-01,9.99993e-01
5.262515499e-01,3.47549e-01,9.99999e-01,9.99999e-01,9.99458e-01,3.47740e-01,9.99991e-01
5.288828077e-01,3.54893e-01,9.99999e-01,9.99999e-01,9.99501e-01,3.55072e-01,9.99994e-01
5.315272217e-01,3.62251e-01,9.99999e-01,9.99999e-01,9.99565e-01,3.62408e-01,9.99998e-01
5.341848578e-01,3.69642e-01,9.99999e-01,9.99999e-01,9.99713e-01,3.69748e-01,9.99999e-01
5.368557821e-01,3.76704e-01,9.99999e-01,9.99999e-01,9.98989e-01,3.77086e-01,9.99997e-01
5.395400610e-01,3.83001e-01,9.99999e-01,9.99999e-01,9.96340e-01,3.84420e-01,9.99965e-01
5.422377613e-01,3.89883e-01,9.99999e-01,9.99999e-01,9.95321e-01,3.91749e-01,9.99913e-01
5.449489501e-01,3.97287e-01,9.99999e-01,9.99999e-01,9.95623e-01,3.99068e-01,9.99911e-01
5.476736949e-01,4.04793e-01,9.99999e-01,9.99999e-01,9.96150e-01,4.06375e-01,9.99956e-01
5.504120634e-01,4.12507e-01,9.99999e-01,9.99999e-01,9.97204e-01,4.13668e-01,9.99987e-01
5.531641237e-01,4.20351e-01,9.99999e-01,9.99999e-01,9.98593e-01,4.20943e-01,9.99997e-01
5.559299443e-01,4.27909e-01,9.99999e-01,9.99999e-01,9.99321e-01,4.28200e-01,9.99999e-01
5.587095940e-01,4.35248e-01,9.99999e-01,9.99999e-01,9.99572e-01,4.35434e-01,9.99999e-01
5.615031420e-01,4.42433e-01,9.99999e-01,9.99999e-01,9.99524e-01,4.42644e-01,9.99998e-01
5.643106577e-01,4.49580e-01,9.99999e-01,9.99999e-01,9.99454e-01,4.49827e-01,9.99994e-01
5.671322110e-01,4.53934e-01,9.99999e-01,9.99999e-01,9.93387e-01,4.56982e-01,9.99941e-01
5.699678720e-01,4.60821e-01,9.99999e-01,9.99999e-01,9.93099e-01,4.64105e-01,9.99821e-01
5.728177114e-01,4.67708e-01,9.99999e-01,9.99999e-01,9.92742e-01,4.71196e-01,9.99851e-01
5.756818000e-01,4.75032e-01,9.99999e-01,9.99999e-01,9.93351e-01,4.78252e-01,9.99913e-01
5.785602090e-01,4.82452e-01,9.99999e-01,9.99999e-01,9.94215e-01,4.85271e-01,9.99974e-01
5.814530100e-01,4.89381e-01,9.99999e-01,9.99999e-01,9.94180e-01,4.92251e-01,9.99987e-01
5.843602750e-01,4.95695e-01,9.99999e-01,9.99999e-01,9.93032e-01,4.99191e-01,9.99960e-01
5.872820764e-01,4.76605e-01,9.99999e-01,9.99999e-01,9.42136e-01,5.06089e-01,9.99579e-01
5.902184868e-01,4.76552e-01,9.99999e-01,9.99999e-01,9.30117e-01,5.12943e-01,9.98855e-01
5.931695792e-01,4.93374e-01,9.99999e-01,9.99999e-01,9.50293e-01,5.19752e-01,9.98899e-01
5.961354271e-01,4.97512e-01,9.99999e-01,9.99999e-01,9.45513e-01,5.26514e-01,9.99367e-01
5.991161043e-01,5.11749e-01,9.99999e-01,9.99999e-01,9.59906e-01,5.33228e-01,9.99803e-01
6.021116848e-01,5.27502e-01,9.99999e-01,9.99999e-01,9.77072e-01,5.39892e-01,9.99977e-01
6.051222432e-01,5.40131e-01,9.99999e-01,9.99999e-01,9.88336e-01,5.46505e-01,9.99998e-01
6.081478544e-01,5.50274e-01,9.99999e-01,9.99999e-01,9.94950e-01,5.53067e-01,9.99999e-01
6.111885937e-01,5.58381e-01,9.99999e-01,9.99999e-01,9.97866e-01,5.59575e-01,9.99999e-01
6.142445367e-01,5.65489e-01,9.99999e-01,9.99999e-01,9.99045e-01,5.66029e-01,9.99999e-01
6.173157594e-01,5.72126e-01,9.99999e-01,9.99999e-01,9.99472e-01,5.72428e-01,9.99999e-01
6.204023382e-01,5.78511e-01,9.99999e-01,9.99999e-01,9.99551e-01,5.78771e-01,9.99999e-01
6.235043498e-01,5.83887e-01,9.99999e-01,9.99999e-01,9.98005e-01,5.85056e-01,9.99994e-01
6.266218716e-01,5.85092e-01,9.99999e-01,9.99999e-01,9.89600e-01,5.91284e-01,9.99926e-01
6.297549810e-01,5.95079e-01,9.99999e-01,9.99999e-01,9.96172e-01,5.97453e-01,9.99853e-01
6.329037559e-01,5.98942e-01,9.99999e-01,9.99999e-01,9.92460e-01,6.03562e-01,9.99882e-01
6.360682746e-01,6.05642e-01,9.99999e-01,9.99999e-01,9.93556e-01,6.09612e-01,9.99930e-01
6.392486160e-01,6.10455e-01,9.99999e-01,9.99999e-01,9.91670e-01,6.15601e-01,9.99968e-01
6.424448591e-01,6.14541e-01,9.99999e-01,9.99999e-01,9.88811e-01,6.21528e-01,9.99944e-01
6.456570834e-01,5.95391e-01,9.99999e-01,9.99999e-01,9.49288e-01,6.27394e-01,9.99685e-01
6.488853688e-01,6.09264e-01,9.99999e-01,9.99999e-01,9.62973e-01,6.33198e-01,9.99196e-01
6.521297956e-01,6.14494e-01,9.99999e-01,9.99999e-01,9.62378e-01,6.38939e-01,9.99336e-01
6.553904446e-01,6.19900e-01,9.99999e-01,9.99999e-01,9.62128e-01,6.44618e-01,9.99506e-01
6.586673968e-01,6.29107e-01,9.99999e-01,9.99999e-01,9.67669e-01,6.50233e-01,9.99834e-01
6.619607338e-01,6.43838e-01,9.99999e-01,9.99999e-01,9.81816e-01,6.55785e-01,9.99964e-01
6.652705375e-01,6.54016e-01,9.99999e-01,9.99999e-01,9.89043e-01,6.61273e-01,9.99981e-01
6.685968902e-01,6.63584e-01,9.99999e-01,9.99999e-01,9.95333e-01,6.66697e-01,9.99996e-01
6.719398746e-01,6.70469e-01,9.99999e-01,9.99999e-01,9.97635e-01,6.72058e-01,9.99999e-01
6.752995740e-01,6.76508e-01,9.99999e-01,9.99999e-01,9.98751e-01,6.77354e-01,9.99999e-01
6.786760719e-01,6.81308e-01,9.99999e-01,9.99999e-01,9.98129e-01,6.82586e-01,9.99996e-01
6.820694522e-01,6.85552e-01,9.99999e-01,9.99999e-01,9.96814e-01,6.87754e-01,9.99983e-01
6.854797995e-01,6.89985e-01,9.99999e-01,9.99999e-01,9.95887e-01,6.92858e-01,9.99964e-01
6.889071985e-01,6.90864e-01,9.99999e-01,9.99999e-01,9.90008e-01,6.97898e-01,9.99910e-01
6.923517345e-01,5.98034e-01,9.99999e-01,9.99999e-01,8.51500e-01,7.02874e-01,9.99223e-01
6.958134932e-01,6.50905e-01,9.99999e-01,9.99999e-01,9.21217e-01,7.07786e-01,9.98281e-01
6.992925606e-01,6.56760e-01,9.99999e-01,9.99999e-01,9.23022e-01,7.12635e-01,9.98451e-01
7.027890234e-01,6.49445e-01,9.99999e-01,9.99999e-01,9.06322e-01,7.17419e-01,9.98817e-01
7.063029686e-01,6.64160e-01,9.99999e-01,9.99999e-01,9.20251e-01,7.22141e-01,9.99411e-01
7.098344834e-01,6.70788e-01,9.99999e-01,9.99999e-01,9.23254e-01,7.26799e-01,9.99651e-01
7.133836558e-01,6.57474e-01,9.99999e-01,9.99999e-01,8.99554e-01,7.31395e-01,9.99307e-01
7.169505741e-01,3.38119e-01,9.99999e-01,9.99999e-01,4.61955e-01,7.35928e-01,9.94567e-01
7.205353270e-01,4.97038e-01,9.99999e-01,9.99999e-01,6.77794e-01,7.40399e-01,9.90434e-01
7.241380036e-01,4.46170e-01,9.99999e-01,9.99999e-01,6.04033e-01,7.44807e-01,9.91734e-01
7.277586936e-01,4.72903e-01,9.99999e-01,9.99999e-01,6.35545e-01,7.49154e-01,9.93238e-01
7.313974871e-01,4.59889e-01,9.99999e-01,9.99999e-01,6.12327e-01,7.53440e-01,9.96827e-01
7.350544745e-01,5.76434e-01,9.99999e-01,9.99999e-01,7.61642e-01,7.57665e-01,9.98896e-01
7.387297469e-01,6.21748e-01,9.99999e-01,9.99999e-01,8.16537e-01,7.61830e-01,9.99493e-01
7.424233956e-01,6.93233e-01,9.99999e-01,9.99999e-01,9.05160e-01,7.65935e-01,9.99911e-01
7.461355126e-01,7.24718e-01,9.99999e-01,9.99999e-01,9.41230e-01,7.69979e-01,9.99984e-01
7.498661902e-01,7.52467e-01,9.99999e-01,9.99999e-01,9.72228e-01,7.73965e-01,9.99993e-01
7.536155211e-01,7.67188e-01,9.99999e-01,9.99999e-01,9.86242e-01,7.77892e-01,9.99995e-01
7.573835987e-01,7.76208e-01,9.99999e-01,9.99999e-01,9.92897e-01,7.81761e-01,9.99998e-01
7.611705167e-01,7.82101e-01,9.99999e-01,9.99999e-01,9.95580e-01,7.85572e-01,9.99999e-01
7.649763693e-01,7.87137e-01,9.99999e-01,9.99999e-01,9.97226e-01,7.89326e-01,9.99999e-01
7.688012511e-01,7.91490e-01,9.99999e-01,9.99999e-01,9.98065e-01,7.93023e-01,9.99999e-01
7.726452574e-01,7.95395e-01,9.99999e-01,9.99999e-01,9.98406e-01,7.96664e-01,9.99998e-01
7.765084837e-01,7.98426e-01,9.99999e-01,9.99999e-01,9.97724e-01,8.00249e-01,9.99996e-01
7.803910261e-01,7.95886e-01,9.99999e-01,9.99999e-01,9.90188e-01,8.03779e-01,9.99990e-01
7.842929812e-01,7.79941e-01,9.99999e-01,9.99999e-01,9.66225e-01,8.07255e-01,9.99936e-01
7.882144461e-01,7.55160e-01,9.99999e-01,9.99999e-01,9.31967e-01,8.10676e-01,9.99517e-01
7.921555184e-01,7.82693e-01,9.99999e-01,9.99999e-01,9.62294e-01,8.14044e-01,9.99161e-01
7.961162960e-01,7.62751e-01,9.99999e-01,9.99999e-01,9.33933e-01,8.17359e-01,9.99201e-01
8.000968774e-01,7.57581e-01,9.99999e-01,9.99999e-01,9.23963e-01,8.20621e-01,9.99150e-01
8.040973618e-01,7.60744e-01,9.99999e-01,9.99999e-01,9.24019e-01,8.23832e-01,9.99351e-01
8.081178486e-01,6.93275e-01,9.99999e-01,9.99999e-01,8.38859e-01,8.26992e-01,9.99343e-01
8.121584379e-01,4.11662e-01,9.99999e-01,9.99999e-01,4.97152e-01,8.30100e-01,9.97516e-01
8.162192301e-01,3.66308e-01,9.99999e-01,9.99999e-01,4.43791e-01,8.33159e-01,9.90692e-01
8.203003262e-01,5.64340e-01,9.99999e-01,9.99999e-01,6.82341e-01,8.36168e-01,9.89110e-01
8.244018279e-01,5.06069e-01,9.99999e-01,9.99999e-01,6.08366e-01,8.39129e-01,9.91323e-01
8.285238370e-01,5.05016e-01,9.99999e-01,9.99999e-01,6.03870e-01,8.42041e-01,9.93179e-01
8.326664562e-01,5.09272e-01,9.99999e-01,9.99999e-01,6.04464e-01,8.44905e-01,9.97173e-01
8.368297885e-01,5.84914e-01,9.99999e-01,9.99999e-01,6.90429e-01,8.47723e-01,9.99353e-01
8.410139374e-01,6.80839e-01,9.99999e-01,9.99999e-01,8.00824e-01,8.50493e-01,9.99621e-01
8.452190071e-01,7.64426e-01,9.99999e-01,9.99999e-01,8.96134e-01,8.53218e-01,9.99773e-01
8.494451021e-01,8.02651e-01,9.99999e-01,9.99999e-01,9.37958e-01,8.55898e-01,9.99818e-01
8.536923276e-01,8.26604e-01,9.99999e-01,9.99999e-01,9.62915e-01,8.58532e-01,9.99889e-01
8.579607893e-01,8.41243e-01,9.99999e-01,9.99999e-01,9.76939e-01,8.61123e-01,9.99973e-01
8.622505932e-01,8.50982e-01,9.99999e-01,9.99999e-01,9.85313e-01,8.63670e-01,9.99994e-01
8.665618462e-01,8.58262e-01,9.99999e-01,9.99999e-01,9.90868e-01,8.66174e-01,9.99996e-01
8.708946554e-01,8.59538e-01,9.99999e-01,9.99999e-01,9.89531e-01,8.68635e-01,9.99993e-01
8.752491287e-01,8.58868e-01,9.99999e-01,9.99999e-01,9.86022e-01,8.71055e-01,9.99984e-01
8.796253743e-01,8.56499e-01,9.99999e-01,9.99999e-01,9.80653e-01,8.73433e-01,9.99956e-01
8.840235012e-01,8.56354e-01,9.99999e-01,9.99999e-01,9.77959e-01,8.75771e-01,9.99864e-01
8.884436187e-01,8.10339e-01,9.99999e-01,9.99999e-01,9.23219e-01,8.78069e-01,9.99615e-01
8.928858368e-01,4.05087e-01,9.99999e-01,9.99999e-01,4.61177e-01,8.80327e-01,9.97782e-01
8.973502660e-01,2.29039e-01,9.99999e-01,9.99999e-01,2.62489e-01,8.82546e-01,9.88688e-01
9.018370173e-01,4.40162e-01,9.99999e-01,9.99999e-01,5.06490e-01,8.84727e-01,9.82273e-01
9.063462024e-01,4.70555e-01,9.99999e-01,9.99999e-01,5.38981e-01,8.86870e-01,9.84410e-01
9.108779334e-01,3.36268e-01,9.99999e-01,9.99999e-01,3.84491e-01,8.88975e-01,9.83806e-01
9.154323231e-01,2.89695e-01,9.99999e-01,9.99999e-01,3.29535e-01,8.91044e-01,9.86595e-01
9.200094847e-01,3.78254e-01,9.99999e-01,9.99999e-01,4.26751e-01,8.93077e-01,9.92475e-01
9.246095321e-01,2.60859e-01,9.99999e-01,9.99999e-01,2.93985e-01,8.95074e-01,9.91335e-01
9.292325798e-01,5.94720e-03,9.99999e-01,9.99999e-01,6.91433e-03,8.97036e-01,9.58852e-01
9.338787427e-01,1.82927e-04,9.99999e-01,9.99999e-01,2.36862e-04,8.98963e-01,8.59090e-01
9.385481364e-01,2.41858e-02,9.99999e-01,9.99999e-01,3.17230e-02,9.00857e-01,8.46310e-01
9.432408771e-01,9.33205e-03,9.99999e-01,9.99999e-01,1.19384e-02,9.02716e-01,8.65921e-01
9.479570815e-01,8.02217e-04,9.99999e-01,9.99999e-01,9.97116e-04,9.04543e-01,8.89438e-01
9.526968669e-01,3.61897e-03,9.99999e-01,9.99999e-01,4.28875e-03,9.06337e-01,9.31030e-01
9.574603512e-01,5.16702e-03,9.99999e-01,9.99999e-01,5.90026e-03,9.08100e-01,9.64350e-01
9.622476530e-01,1.23707e-02,9.99999e-01,9.99999e-01,1.39423e-02,9.09831e-01,9.75211e-01
9.670588912e-01,7.00979e-02,9.99999e-01,9.99999e-01,7.82327e-02,9.11530e-01,9.82980e-01
9.718941857e-01,1.44031e-01,9.99999e-01,9.99999e-01,1.59726e-01,9.13200e-01,9.87442e-01
9.767536566e-01,1.96401e-01,9.99999e-01,9.99999e-01,2.16767e-01,9.14839e-01,9.90389e-01
9.816374249e-01,2.83411e-01,9.99999e-01,9.99999e-01,3.10284e-01,9.16449e-01,9.96663e-01
9.865456120e-01,4.35101e-01,9.99999e-01,9.99999e-01,4.74280e-01,9.18029e-01,9.99303e-01
9.914783401e-01,5.75656e-01,9.99999e-01,9.99999e-01,6.26118e-01,9.19582e-01,9.99806e-01
9.964357318e-01,7.13294e-01,9.99999e-01,9.99999e-01,7.74475e-01,9.21106e-01,9.99886e-01
1.001417910e+00,7.90895e-01,9.99999e-01,9.99999e-01,8.57390e-01,9.22602e-01,9.99827e-01
1.006425000e+00,8.45944e-01,9.99999e-01,9.99999e-01,9.15677e-01,9.24071e-01,9.99754e-01
1.011457125e+00,8.76165e-01,9.99999e-01,9.99999e-01,9.46895e-01,9.25514e-01,9.99771e-01
1.016514411e+00,8.93018e-01,9.99999e-01,9.99999e-01,9.63569e-01,9.26930e-01,9.99838e-01
1.021596983e+00,9.01108e-01,9.99999e-01,9.99999e-01,9.70839e-01,9.28320e-01,9.99841e-01
1.026704968e+00,9.08371e-01,9.99999e-01,9.99999e-01,9.77170e-01,9.29685e-01,9.99900e-01
1.031838492e+00,9.15529e-01,9.99999e-01,9.99999e-01,9.83385e-01,9.31025e-01,9.99969e-01
1.036997685e+00,9.23092e-01,9.99999e-01,9.99999e-01,9.90084e-01,9.32340e-01,9.99994e-01
1.042182673e+00,9.22573e-01,9.99999e-01,9.99999e-01,9.88157e-01,9.33631e-01,9.99997e-01
1.047393587e+00,9.20261e-01,9.99999e-01,9.99999e-01,9.84345e-01,9.34898e-01,9.99996e-01
1.052630555e+00,9.16071e-01,9.99999e-01,9.99999e-01,9.78564e-01,9.36142e-01,9.99993e-01
1.057893707e+00,9.04042e-01,9.99999e-01,9.99999e-01,9.64463e-01,9.37363e-01,9.99987e-01
1.063183176e+00,8.84431e-01,9.99999e-01,9.99999e-01,9.42354e-01,9.38562e-01,9.99968e-01
1.068499092e+00,8.51031e-01,9.99999e-01,9.99999e-01,9.05665e-01,9.39738e-01,9.99932e-01
1.073841587e+00,8.38377e-01,9.99999e-01,9.99999e-01,8.91174e-01,9.40892e-01,9.99853e-01
1.079210795e+00,8.12116e-01,9.99999e-01,9.99999e-01,8.62437e-01,9.42025e-01,9.99602e-01
1.084606849e+00,7.54095e-01,9.99999e-01,9.99999e-01,8.00324e-01,9.43137e-01,9.99044e-01
1.090029883e+00,6.86636e-01,9.99999e-01,9.99999e-01,7.28634e-01,9.44228e-01,9.98020e-01
1.095480033e+00,4.01256e-01,9.99999e-01,9.99999e-01,4.25999e-01,9.45299e-01,9.96421e-01
1.100957433e+00,1.25205e-01,9.99999e-01,9.99999e-01,1.33179e-01,9.46350e-01,9.93423e-01
1.106462220e+00,1.16890e-02,9.99999e-01,9.99999e-01,1.24771e-02,9.47382e-01,9.88870e-01
1.111994531e+00,1.11492e-04,9.99999e-01,9.99999e-01,1.21104e-04,9.48394e-01,9.70725e-01
1.117554504e+00,2.59444e-06,9.99999e-01,9.99999e-01,3.04220e-06,9.49387e-01,8.98281e-01
1.123142276e+00,1.81930e-04,9.99999e-01,9.99999e-01,2.46884e-04,9.50361e-01,7.75392e-01
1.128757988e+00,7.87059e-04,9.99999e-01,9.99999e-01,1.11042e-03,9.51317e-01,7.45064e-01
1.134401778e+00,8.65768e-04,9.99999e-01,9.99999e-01,1.16767e-03,9.52256e-01,7.78620e-01
1.140073787e+00,8.33163e-03,9.99999e-01,9.99999e-01,1.06754e-02,9.53176e-01,8.18786e-01
1.145774156e+00,6.50699e-04,9.99999e-01,9.99999e-01,8.18982e-04,9.54080e-01,8.32761e-01
1.151503026e+00,1.59324e-04,9.99999e-01,9.99999e-01,1.84743e-04,9.54966e-01,9.03074e-01
1.157260541e+00,1.54084e-04,9.99999e-01,9.99999e-01,1.66192e-04,9.55835e-01,9.69977e-01
1.163046844e+00,1.51789e-03,9.99999e-01,9.99999e-01,1.60038e-03,9.56689e-01,9.91397e-01
1.168862078e+00,8.83601e-03,9.99999e-01,9.99999e-01,9.26911e-03,9.57526e-01,9.95559e-01
1.174706389e+00,4.64620e-02,9.99999e-01,9.99999e-01,4.87682e-02,9.58347e-01,9.94117e-01
1.180579921e+00,1.43095e-01,9.99999e-01,9.99999e-01,1.50526e-01,9.59153e-01,9.91118e-01
1.186482820e+00,3.09943e-01,9.99999e-01,9.99999e-01,3.25846e-01,9.59943e-01,9.90884e-01
1.192415234e+00,4.89916e-01,9.99999e-01,9.99999e-01,5.13455e-01,9.60718e-01,9.93166e-01
1.198377311e+00,5.45185e-01,9.99999e-01,9.99999e-01,5.70711e-01,9.61479e-01,9.93543e-01
1.204369197e+00,5.68548e-01,9.99999e-01,9.99999e-01,5.94340e-01,9.62226e-01,9.94156e-01
1.210391043e+00,5.79934e-01,9.99999e-01,9.99999e-01,6.04393e-01,9.62958e-01,9.96441e-01
1.216442998e+00,6.26958e-01,9.99999e-01,9.99999e-01,6.52011e-01,9.63676e-01,9.97818e-01
1.222525213e+00,6.87509e-01,9.99999e-01,9.99999e-01,7.13869e-01,9.64380e-01,9.98644e-01
1.228637839e+00,7.62494e-01,9.99999e-01,9.99999e-01,7.90588e-01,9.65072e-01,9.99369e-01
