#,Wave/freq,Total,N2,O2,H2O,Rayleigh,CIA
4.000000000e-01,5.06438e-01,9.99999e-01,9.99999e-01,9.99922e-01,5.06477e-01,9.99999e-01
4.020000000e-01,5.13311e-01,9.99999e-01,9.99999e-01,9.99951e-01,5.13336e-01,9.99999e-01
4.040100000e-01,5.20131e-01,9.99999e-01,9.99999e-01,9.99979e-01,5.20142e-01,9.99999e-01
4.060300500e-01,5.26899e-01,9.99999e-01,9.99999e-01,9.99994e-01,5.26901e-01,9.99999e-01
4.080602003e-01,5.33611e-01,9.99999e-01,9.99999e-01,9.99998e-01,5.33612e-01,9.99999e-01
4.101005013e-01,5.40273e-01,9.99999e-01,9.99999e-01,9.99999e-01,5.40273e-01,9.99999e-01
4.121510038e-01,5.46882e-01,9.99999e-01,9.99999e-01,9.99996e-01,5.46884e-01,9.99999e-01
4.142117588e-01,5.53431e-01,9.99999e-01,9.99999e-01,9.99978e-01,5.53442e-01,9.99999e-01
4.162828176e-01,5.59894e-01,9.99999e-01,9.99999e-01,9.99904e-01,5.59947e-01,9.99999e-01
4.183642317e-01,5.66366e-01,9.99999e-01,9.99999e-01,9.99942e-01,5.66398e-01,9.99999e-01
4.204560528e-01,5.72774e-01,9.99999e-01,9.99999e-01,9.99964e-01,5.72794e-01,9.99999e-01
4.225583331e-01,5.79126e-01,9.99999e-01,9.99999e-01,9.99986e-01,5.79133e-01,9.99999e-01
4.246711247e-01,5.85410e-01,9.99999e-01,9.99999e-01,9.99989e-01,5.85416e-01,9.99999e-01
4.267944804e-01,5.91631e-01,9.99999e-01,9.99999e-01,9.99984e-01,5.91640e-01,9.99999e-01
4.289284528e-01,5.97798e-01,9.99999e-01,9.99999e-01,9.99987e-01,5.97805e-01,9.99999e-01
4.310730950e-01,6.03908e-01,9.99999e-01,9.99999e-01,9.99994e-01,6.03912e-01,9.99999e-01
4.332284605e-01,6.09957e-01,9.99999e-01,9.99999e-01,9.99998e-01,6.09958e-01,9.99999e-01
4.353946028e-01,6.15943e-01,9.99999e-01,9.99999e-01,9.99998e-01,6.15943e-01,9.99999e-01
4.375715758e-01,6.21861e-01,9.99999e-01,9.99999e-01,9.99990e-01,6.21867e-01,9.99999e-01
4.397594337e-01,6.27678e-01,9.99999e-01,9.99999e-01,9.99917e-01,6.27730e-01,9.99999e-01
4.419582309e-01,6.33265e-01,9.99999e-01,9.99999e-01,9.99581e-01,6.33530e-01,9.99999e-01
4.441680220e-01,6.39055e-01,9.99999e-01,9.99999e-01,9.99666e-01,6.39267e-01,9.99999e-01
4.463888621e-01,6.44720e-01,9.99999e-01,9.99999e-01,9.99655e-01,6.44942e-01,9.99999e-01
4.486208064e-01,6.50414e-01,9.99999e-01,9.99999e-01,9.99784e-01,6.50554e-01,9.99999e-01
4.508639105e-01,6.56036e-01,9.99999e-01,9.99999e-01,9.99898e-01,6.56102e-01,9.99999e-01
4.531182300e-01,6.61560e-01,9.99999e-01,9.99999e-01,9.99959e-01,6.61587e-01,9.99999e-01
4.553838212e-01,6.66989e-01,9.99999e-01,9.99999e-01,9.99972e-01,6.67007e-01,9.99999e-01
4.576607403e-01,6.72356e-01,9.99999e-01,9.99999e-01,9.99987e-01,6.72364e-01,9.99999e-01
4.599490440e-01,6.77651e-01,9.99999e-01,9.99999e-01,9.99990e-01,6.77656e-01,9.99999e-01
4.622487892e-01,6.82884e-01,9.99999e-01,9.99999e-01,9.99998e-01,6.82885e-01,9.99999e-01
4.645600332e-01,6.88045e-01,9.99999e-01,9.99999e-01,9.99993e-01,6.88049e-01,9.99999e-01
4.668828333e-01,6.93080e-01,9.99999e-01,9.99999e-01,9.99898e-01,6.93150e-01,9.99999e-01
4.692172475e-01,6.98035e-01,9.99999e-01,9.99999e-01,9.99783e-01,6.98186e-01,9.99999e-01
4.715633337e-01,7.03059e-01,9.99999e-01,9.99999e-01,9.99858e-01,7.03158e-01,9.99999e-01
4.739211504e-01,7.07971e-01,9.99999e-01,9.99999e-01,9.99864e-01,7.08067e-01,9.99999e-01
4.762907561e-01,7.12861e-01,9.99999e-01,9.99999e-01,9.99929e-01,7.12911e-01,9.99999e-01
4.786722099e-01,7.17672e-01,9.99999e-01,9.99999e-01,9.99970e-01,7.17692e-01,9.99999e-01
4.810655710e-01,7.22404e-01,9.99999e-01,9.99999e-01,9.99990e-01,7.22410e-01,9.99999e-01
4.834708988e-01,7.27006e-01,9.99999e-01,9.99999e-01,9.99918e-01,7.27065e-01,9.99999e-01
4.858882533e-01,7.31545e-01,9.99999e-01,9.99999e-01,9.99846e-01,7.31657e-01,9.99999e-01
4.883176946e-01,7.36093e-01,9.99999e-01,9.99999e-01,9.99872e-01,7.36186e-01,9.99999e-01
4.907592831e-01,7.40568e-01,9.99999e-01,9.99999e-01,9.99883e-01,7.40654e-01,9.99999e-01
4.932130795e-01,7.44998e-01,9.99999e-01,9.99999e-01,9.99917e-01,7.45059e-01,9.99999e-01
4.956791449e-01,7.49370e-01,9.99999e-01,9.99999e-01,9.99956e-01,7.49402e-01,9.99999e-01
4.981575406e-01,7.53522e-01,9.99999e-01,9.99999e-01,9.99783e-01,7.53685e-01,9.99999e-01
5.006483283e-01,7.57481e-01,9.99999e-01,9.99999e-01,9.99442e-01,7.57906e-01,9.99995e-01
5.031515699e-01,7.59878e-01,9.99999e-01,9.99999e-01,9.97155e-01,7.62068e-01,9.99969e-01
5.056673278e-01,7.64988e-01,9.99999e-01,9.99999e-01,9.98493e-01,7.66169e-01,9.99965e-01
5.081956644e-01,7.68729e-01,9.99999e-01,9.99999e-01,9.98098e-01,7.70210e-01,9.99977e-01
5.107366428e-01,7.73195e-01,9.99999e-01,9.99999e-01,9.98714e-01,7.74193e-01,9.99995e-01
5.132903260e-01,7.77544e-01,9.99999e-01,9.99999e-01,9.99264e-01,7.78116e-01,9.99999e-01
5.158567776e-01,7.81739e-01,9.99999e-01,9.99999e-01,9.99688e-01,7.81982e-01,9.99999e-01
5.184360615e-01,7.85692e-01,9.99999e-01,9.99999e-01,9.99875e-01,7.85790e-01,9.99999e-01
5.210282418e-01,7.89504e-01,9.99999e-01,9.99999e-01,9.99953e-01,7.89540e-01,9.99999e-01
5.236333830e-01,7.93086e-01,9.99999e-01,9.99999e-01,9.99813e-01,7.93234e-01,9.99998e-01
5.262515499e-01,7.96777e-01,9.99999e-01,9.99999e-01,9.99883e-01,7.96872e-01,9.99997e-01
5.288828077e-01,8.00368e-01,9.99999e-01,9.99999e-01,9.99893e-01,8.00454e-01,9.99998e-01
5.315272217e-01,8.03905e-01,9.99999e-01,9.99999e-01,9.99905e-01,8.03980e-01,9.99999e-01
5.341848578e-01,8.07403e-01,9.99999e-01,9.99999e-01,9.99938e-01,8.07453e-01,9.99999e-01
5.368557821e-01,8.10696e-01,9.99999e-01,9.99999e-01,9.99784e-01,8.10871e-01,9.99999e-01
5.395400610e-01,8.13601e-01,9.99999e-01,9.99999e-01,9.99226e-01,8.14236e-01,9.99993e-01
5.422377613e-01,8.16706e-01,9.99999e-01,9.99999e-01,9.98987e-01,8.17548e-01,9.99981e-01
5.449489501e-01,8.20024e-01,9.99999e-01,9.99999e-01,9.99064e-01,8.20807e-01,9.99980e-01
5.476736949e-01,8.23320e-01,9.99999e-01,9.99999e-01,9.99165e-01,8.24015e-01,9.99990e-01
5.504120634e-01,8.26669e-01,9.99999e-01,9.99999e-01,9.99394e-01,8.27172e-01,9.99996e-01
5.531641237e-01,8.30024e-01,9.99999e-01,9.99999e-01,9.99694e-01,8.30278e-01,9.99999e-01
5.559299443e-01,8.33211e-01,9.99999e-01,9.99999e-01,9.99852e-01,8.33333e-01,9.99999e-01
5.587095940e-01,8.36263e-01,9.99999e-01,9.99999e-01,9.99907e-01,8.36340e-01,9.99999e-01
5.615031420e-01,8.39212e-01,9.99999e-01,9.99999e-01,9.99897e-01,8.39298e-01,9.99999e-01
5.643106577e-01,8.42110e-01,9.99999e-01,9.99999e-01,9.99884e-01,8.42207e-01,9.99998e-01
5.671322110e-01,8.43887e-01,9.99999e-01,9.99999e-01,9.98613e-01,8.45069e-01,9.99987e-01
5.699678720e-01,8.46570e-01,9.99999e-01,9.99999e-01,9.98488e-01,8.47883e-01,9.99961e-01
5.728177114e-01,8.49299e-01,9.99999e-01,9.99999e-01,9.98441e-01,8.50651e-01,9.99967e-01
5.756818000e-01,8.52134e-01,9.99999e-01,9.99999e-01,9.98566e-01,8.53373e-01,9.99979e-01
5.785602090e-01,8.54974e-01,9.99999e-01,9.99999e-01,9.98748e-01,8.56050e-01,9.99993e-01
5.814530100e-01,8.57603e-01,9.99999e-01,9.99999e-01,9.98745e-01,8.58682e-01,9.99996e-01
5.843602750e-01,8.59986e-01,9.99999e-01,9.99999e-01,9.98515e-01,8.61270e-01,9.99991e-01
5.872820764e-01,8.52744e-01,9.99999e-01,9.99999e-01,9.87273e-01,8.63815e-01,9.99908e-01
5.902184868e-01,8.52637e-01,9.99999e-01,9.99999e-01,9.84452e-01,8.66316e-01,9.99752e-01
5.931695792e-01,8.59042e-01,9.99999e-01,9.99999e-01,9.89033e-01,8.68775e-01,9.99759e-01
5.961354271e-01,8.60573e-01,9.99999e-01,9.99999e-01,9.87952e-01,8.71193e-01,9.99854e-01
5.991161043e-01,8.65836e-01,9.99999e-01,9.99999e-01,9.91189e-01,8.73569e-01,9.99957e-01
6.021116848e-01,8.71509e-01,9.99999e-01,9.99999e-01,9.94986e-01,8.75904e-01,9.99994e-01
6.051222432e-01,8.75968e-01,9.99999e-01,9.99999e-01,9.97459e-01,8.78200e-01,9.99999e-01
6.081478544e-01,8.79491e-01,9.99999e-01,9.99999e-01,9.98904e-01,8.80456e-01,9.99999e-01
6.111885937e-01,8.82263e-01,9.99999e-01,9.99999e-01,9.99535e-01,8.82673e-01,9.99999e-01
6.142445367e-01,8.84668e-01,9.99999e-01,9.99999e-01,9.99792e-01,8.84851e-01,9.99999e-01
6.173157594e-01,8.86891e-01,9.99999e-01,9.99999e-01,9.99885e-01,8.86992e-01,9.99999e-01
6.204023382e-01,8.89010e-01,9.99999e-01,9.99999e-01,9.99903e-01,8.89095e-01,9.99999e-01
6.235043498e-01,8.90789e-01,9.99999e-01,9.99999e-01,9.99581e-01,8.91162e-01,9.99998e-01
6.266218716e-01,8.91174e-01,9.99999e-01,9.99999e-01,9.97755e-01,8.93193e-01,9.99983e-01
6.297549810e-01,8.94423e-01,9.99999e-01,9.99999e-01,9.99176e-01,8.95188e-01,9.99967e-01
6.329037559e-01,8.95662e-01,9.99999e-01,9.99999e-01,9.98368e-01,8.97148e-01,9.99974e-01
6.360682746e-01,8.97816e-01,9.99999e-01,9.99999e-01,9.98615e-01,8.99073e-01,9.99984e-01
6.392486160e-01,8.99340e-01,9.99999e-01,9.99999e-01,9.98202e-01,9.00964e-01,9.99992e-01
6.424448591e-01,9.00658e-01,9.99999e-01,9.99999e-01,9.97613e-01,9.02822e-01,9.99988e-01
6.456570834e-01,8.94606e-01,9.99999e-01,9.99999e-01,9.88961e-01,9.04647e-01,9.99937e-01
6.488853688e-01,8.97612e-01,9.99999e-01,9.99999e-01,9.90431e-01,9.06440e-01,9.99826e-01
6.521297956e-01,9.00516e-01,9.99999e-01,9.99999e-01,9.91682e-01,9.08200e-01,9.99854e-01
6.553904446e-01,9.02349e-01,9.99999e-01,9.99999e-01,9.91776e-01,9.09929e-01,9.99890e-01
6.586673968e-01,9.05118e-01,9.99999e-01,9.99999e-01,9.92894e-01,9.11627e-01,9.99963e-01
6.619607338e-01,9.09532e-01,9.99999e-01,9.99999e-01,9.95886e-01,9.13295e-01,9.99991e-01
6.652705375e-01,9.12744e-01,9.99999e-01,9.99999e-01,9.97611e-01,9.14932e-01,9.99995e-01
6.685968902e-01,9.15523e-01,9.99999e-01,9.99999e-01,9.98890e-01,9.16540e-01,9.99998e-01
6.719398746e-01,9.17647e-01,9.99999e-01,9.99999e-01,9.99484e-01,9.18119e-01,9.99999e-01
6.752995740e-01,9.19415e-01,9.99999e-01,9.99999e-01,9.99721e-01,9.19670e-01,9.99999e-01
6.786760719e-01,9.20825e-01,9.99999e-01,9.99999e-01,9.99601e-01,9.21192e-01,9.99998e-01
6.820694522e-01,9.22053e-01,9.99999e-01,9.99999e-01,9.99315e-01,9.22687e-01,9.99995e-01
6.854797995e-01,9.23333e-01,9.99999e-01,9.99999e-01,9.99117e-01,9.24155e-01,9.99991e-01
6.889071985e-01,9.23630e-01,9.99999e-01,9.99999e-01,9.97894e-01,9.25596e-01,9.99980e-01
6.923517345e-01,8.95213e-01,9.99999e-01,9.99999e-01,9.65859e-01,9.27010e-01,9.99832e-01
6.958134932e-01,9.11161e-01,9.99999e-01,9.99999e-01,9.81802e-01,9.28399e-01,9.99621e-01
6.992925606e-01,9.13621e-01,9.99999e-01,9.99999e-01,9.82965e-01,9.29763e-01,9.99667e-01
7.027890234e-01,9.11187e-01,9.99999e-01,9.99999e-01,9.78861e-01,9.31101e-01,9.99744e-01
7.063029686e-01,9.15704e-01,9.99999e-01,9.99999e-01,9.82202e-01,9.32415e-01,9.99872e-01
7.098344834e-01,9.17682e-01,9.99999e-01,9.99999e-01,9.82913e-01,9.33705e-01,9.99924e-01
7.133836558e-01,9.13878e-01,9.99999e-01,9.99999e-01,9.77585e-01,9.34971e-01,9.99850e-01
7.169505741e-01,7.80417e-01,9.99999e-01,9.99999e-01,8.34568e-01,9.36213e-01,9.98826e-01
7.205353270e-01,8.54699e-01,9.99999e-01,9.99999e-01,9.13635e-01,9.37433e-01,9.97929e-01
7.241380036e-01,8.36425e-01,9.99999e-01,9.99999e-01,8.92707e-01,9.38630e-01,9.98212e-01
7.277586936e-01,8.47035e-01,9.99999e-01,9.99999e-01,9.02606e-01,9.39805e-01,9.98538e-01
7.313974871e-01,8.42374e-01,9.99999e-01,9.99999e-01,8.95842e-01,9.40958e-01,9.99314e-01
7.350544745e-01,8.86922e-01,9.99999e-01,9.99999e-01,9.41664e-01,9.42090e-01,9.99761e-01
7.387297469e-01,9.02195e-01,9.99999e-01,9.99999e-01,9.56628e-01,9.43201e-01,9.99890e-01
7.424233956e-01,9.23950e-01,9.99999e-01,9.99999e-01,9.78479e-01,9.44291e-01,9.99978e-01
7.461355126e-01,9.32992e-01,9.99999e-01,9.99999e-01,9.86920e-01,9.45360e-01,9.99995e-01
7.498661902e-01,9.40613e-01,9.99999e-01,9.99999e-01,9.93875e-01,9.46410e-01,9.99998e-01
7.536155211e-01,9.44597e-01,9.99999e-01,9.99999e-01,9.96999e-01,9.47440e-01,9.99998e-01
7.573835987e-01,9.46984e-01,9.99999e-01,9.99999e-01,9.98453e-01,9.48451e-01,9.99999e-01
7.611705167e-01,9.48531e-01,9.99999e-01,9.99999e-01,9.99038e-01,9.49443e-01,9.99999e-01
7.649763693e-01,9.49845e-01,9.99999e-01,9.99999e-01,9.99398e-01,9.50417e-01,9.99999e-01
7.688012511e-01,9.50974e-01,9.99999e-01,9.99999e-01,9.99581e-01,9.51372e-01,9.99999e-01
7.726452574e-01,9.51981e-01,9.99999e-01,9.99999e-01,9.99655e-01,9.52309e-01,9.99999e-01
7.765084837e-01,9.52765e-01,9.99999e-01,9.99999e-01,9.99514e-01,9.53229e-01,9.99998e-01
7.803910261e-01,9.52131e-01,9.99999e-01,9.99999e-01,9.97904e-01,9.54131e-01,9.99997e-01
7.842929812e-01,9.48039e-01,9.99999e-01,9.99999e-01,9.92706e-01,9.55016e-01,9.99985e-01
7.882144461e-01,9.41378e-01,9.99999e-01,9.99999e-01,9.84914e-01,9.55885e-01,9.99906e-01
7.921555184e-01,9.48595e-01,9.99999e-01,9.99999e-01,9.91667e-01,9.56737e-01,9.99820e-01
7.961162960e-01,9.43488e-01,9.99999e-01,9.99999e-01,9.85459e-01,9.57573e-01,9.99827e-01
8.000968774e-01,9.42049e-01,9.99999e-01,9.99999e-01,9.83125e-01,9.58394e-01,9.99816e-01
8.040973618e-01,9.42895e-01,9.99999e-01,9.99999e-01,9.83145e-01,9.59198e-01,9.99854e-01
8.081178486e-01,9.24057e-01,9.99999e-01,9.99999e-01,9.62702e-01,9.59988e-01,9.99863e-01
8.121584379e-01,8.20210e-01,9.99999e-01,9.99999e-01,8.54164e-01,9.60763e-01,9.99463e-01
8.162192301e-01,7.94863e-01,9.99999e-01,9.99999e-01,8.28338e-01,9.61522e-01,9.97985e-01
8.203003262e-01,8.76757e-01,9.99999e-01,9.99999e-01,9.13288e-01,9.62268e-01,9.97642e-01
8.244018279e-01,8.45662e-01,9.99999e-01,9.99999e-01,8.79804e-01,9.62999e-01,9.98122e-01
8.285238370e-01,8.60024e-01,9.99999e-01,9.99999e-01,8.93719e-01,9.63717e-01,9.98525e-01
8.326664562e-01,8.60173e-01,9.99999e-01,9.99999e-01,8.92450e-01,9.64420e-01,9.99389e-01
8.368297885e-01,8.89138e-01,9.99999e-01,9.99999e-01,9.21409e-01,9.65111e-01,9.99860e-01
8.410139374e-01,9.19792e-01,9.99999e-01,9.99999e-01,9.52452e-01,9.65788e-01,9.99918e-01
8.452190071e-01,9.43553e-01,9.99999e-01,9.99999e-01,9.76352e-01,9.66452e-01,9.99950e-01
8.494451021e-01,9.53770e-01,9.99999e-01,9.99999e-01,9.86250e-01,9.67104e-01,9.99960e-01
8.536923276e-01,9.59806e-01,9.99999e-01,9.99999e-01,9.91823e-01,9.67743e-01,9.99973e-01
8.579607893e-01,9.63494e-01,9.99999e-01,9.99999e-01,9.94970e-01,9.68370e-01,9.99992e-01
8.622505932e-01,9.65880e-01,9.99999e-01,9.99999e-01,9.96795e-01,9.68985e-01,9.99998e-01
8.665618462e-01,9.67672e-01,9.99999e-01,9.99999e-01,9.98023e-01,9.69588e-01,9.99998e-01
8.708946554e-01,9.67988e-01,9.99999e-01,9.99999e-01,9.97741e-01,9.70180e-01,9.99998e-01
8.752491287e-01,9.67823e-01,9.99999e-01,9.99999e-01,9.96976e-01,9.70760e-01,9.99996e-01
8.796253743e-01,9.67268e-01,9.99999e-01,9.99999e-01,9.95827e-01,9.71329e-01,9.99990e-01
8.840235012e-01,9.67225e-01,9.99999e-01,9.99999e-01,9.95231e-01,9.71888e-01,9.99970e-01
8.884436187e-01,9.55863e-01,9.99999e-01,9.99999e-01,9.83038e-01,9.72435e-01,9.99916e-01
8.928858368e-01,8.12184e-01,9.99999e-01,9.99999e-01,8.35143e-01,9.72972e-01,9.99521e-01
8.973502660e-01,7.05417e-01,9.99999e-01,9.99999e-01,7.26399e-01,9.73499e-01,9.97550e-01
9.018370173e-01,8.23391e-01,9.99999e-01,9.99999e-01,8.48621e-01,9.74015e-01,9.96151e-01
9.063462024e-01,8.41706e-01,9.99999e-01,9.99999e-01,8.66641e-01,9.74522e-01,9.96618e-01
9.108779334e-01,7.76631e-01,9.99999e-01,9.99999e-01,7.99336e-01,9.75019e-01,9.96486e-01
9.154323231e-01,7.53052e-01,9.99999e-01,9.99999e-01,7.74208e-01,9.75506e-01,9.97094e-01
9.200094847e-01,7.97701e-01,9.99999e-01,9.99999e-01,8.18661e-01,9.75984e-01,9.98372e-01
9.246095321e-01,7.24325e-01,9.99999e-01,9.99999e-01,7.43184e-01,9.76453e-01,9.98125e-01
9.292325798e-01,1.52891e-01,9.99999e-01,9.99999e-01,1.57653e-01,9.76913e-01,9.92710e-01
9.338787427e-01,8.37701e-02,9.99999e-01,9.99999e-01,8.83420e-02,9.77363e-01,9.70208e-01
9.385481364e-01,3.50807e-01,9.99999e-01,9.99999e-01,3.71909e-01,9.77806e-01,9.64668e-01
9.432408771e-01,2.56984e-01,9.99999e-01,9.99999e-01,2.70981e-01,9.78239e-01,9.69443e-01
9.479570815e-01,1.54272e-01,9.99999e-01,9.99999e-01,1.61668e-01,9.78664e-01,9.75059e-01
9.526968669e-01,2.33099e-01,9.99999e-01,9.99999e-01,2.41775e-01,9.79081e-01,9.84713e-01
9.574603512e-01,2.50081e-01,9.99999e-01,9.99999e-01,2.57323e-01,9.79490e-01,9.92205e-01
9.622476530e-01,3.14920e-01,9.99999e-01,9.99999e-01,3.23126e-01,9.79891e-01,9.94603e-01
9.670588912e-01,5.05811e-01,9.99999e-01,9.99999e-01,5.17896e-01,9.80284e-01,9.96306e-01
9.718941857e-01,6.40105e-01,9.99999e-01,9.99999e-01,6.54502e-01,9.80670e-01,9.97279e-01
9.767536566e-01,6.88189e-01,9.99999e-01,9.99999e-01,7.02944e-01,9.81048e-01,9.97920e-01
9.816374249e-01,7.53644e-01,9.99999e-01,9.99999e-01,7.68465e-01,9.81419e-01,9.99279e-01
9.865456120e-01,8.32145e-01,9.99999e-01,9.99999e-01,8.47712e-01,9.81783e-01,9.99849e-01
9.914783401e-01,8.86559e-01,9.99999e-01,9.99999e-01,9.02718e-01,9.82139e-01,9.99957e-01
9.964357318e-01,9.29179e-01,9.99999e-01,9.99999e-01,9.45762e-01,9.82489e-01,9.99975e-01
1.001417910e+00,9.50465e-01,9.99999e-01,9.99999e-01,9.67103e-01,9.82832e-01,9.99962e-01
1.006425000e+00,9.64575e-01,9.99999e-01,9.99999e-01,9.81140e-01,9.83168e-01,9.99946e-01
1.011457125e+00,9.71873e-01,9.99999e-01,9.99999e-01,9.88227e-01,9.83498e-01,9.99950e-01
1.016514411e+00,9.75920e-01,9.99999e-01,9.99999e-01,9.92003e-01,9.83821e-01,9.99964e-01
1.021596983e+00,9.77833e-01,9.99999e-01,9.99999e-01,9.93626e-01,9.84138e-01,9.99964e-01
1.026704968e+00,9.79533e-01,9.99999e-01,9.99999e-01,9.95028e-01,9.84449e-01,9.99976e-01
1.031838492e+00,9.81182e-01,9.99999e-01,9.99999e-01,9.96378e-01,9.84754e-01,9.99993e-01
1.036997685e+00,9.82936e-01,9.99999e-01,9.99999e-01,9.97851e-01,9.85053e-01,9.99998e-01
1.042182673e+00,9.82830e-01,9.99999e-01,9.99999e-01,9.97446e-01,9.85346e-01,9.99999e-01
1.047393587e+00,9.82291e-01,9.99999e-01,9.99999e-01,9.96609e-01,9.85633e-01,9.99998e-01
1.052630555e+00,9.81335e-01,9.99999e-01,9.99999e-01,9.95355e-01,9.85915e-01,9.99998e-01
1.057893707e+00,9.78564e-01,9.99999e-01,9.99999e-01,9.92268e-01,9.86191e-01,9.99996e-01
1.063183176e+00,9.73926e-01,9.99999e-01,9.99999e-01,9.87297e-01,9.86462e-01,9.99992e-01
1.068499092e+00,9.65796e-01,9.99999e-01,9.99999e-01,9.78801e-01,9.86727e-01,9.99985e-01
1.073841587e+00,9.62583e-01,9.99999e-01,9.99999e-01,9.75304e-01,9.86988e-01,9.99967e-01
1.079210795e+00,9.55914e-01,9.99999e-01,9.99999e-01,9.68347e-01,9.87243e-01,9.99913e-01
1.084606849e+00,9.40486e-01,9.99999e-01,9.99999e-01,9.52593e-01,9.87494e-01,9.99793e-01
1.090029883e+00,9.21241e-01,9.99999e-01,9.99999e-01,9.33074e-01,9.87739e-01,9.99572e-01
1.095480033e+00,8.17329e-01,9.99999e-01,9.99999e-01,8.27911e-01,9.87980e-01,9.99227e-01
1.100957433e+00,6.14547e-01,9.99999e-01,9.99999e-01,6.22760e-01,9.88216e-01,9.98578e-01
1.106462220e+00,3.11721e-01,9.99999e-01,9.99999e-01,3.16126e-01,9.88447e-01,9.97589e-01
1.111994531e+00,9.24168e-02,9.99999e-01,9.99999e-01,9.40760e-02,9.88674e-01,9.93615e-01
1.117554504e+00,2.43479e-02,9.99999e-01,9.99999e-01,2.51972e-02,9.88897e-01,9.77141e-01
1.123142276e+00,7.55783e-02,9.99999e-01,9.99999e-01,8.07170e-02,9.89115e-01,9.46640e-01
1.128757988e+00,1.59158e-01,9.99999e-01,9.99999e-01,1.71411e-01,9.89329e-01,9.38533e-01
1.134401778e+00,6.99750e-02,9.99999e-01,9.99999e-01,7.46338e-02,9.89538e-01,9.47488e-01
1.140073787e+00,3.14082e-01,9.99999e-01,9.99999e-01,3.31312e-01,9.89744e-01,9.57817e-01
1.145774156e+00,1.12071e-01,9.99999e-01,9.99999e-01,1.17765e-01,9.89945e-01,9.61318e-01
1.151503026e+00,9.11367e-02,9.99999e-01,9.99999e-01,9.40891e-02,9.90143e-01,9.78262e-01
1.157260541e+00,1.16540e-01,9.99999e-01,9.99999e-01,1.18453e-01,9.90337e-01,9.93450e-01
1.163046844e+00,2.00363e-01,9.99999e-01,9.99999e-01,2.02656e-01,9.90527e-01,9.98138e-01
1.168862078e+00,3.14297e-01,9.99999e-01,9.99999e-01,3.17547e-01,9.90713e-01,9.99040e-01
1.174706389e+00,4.86319e-01,9.99999e-01,9.99999e-01,4.91411e-01,9.90895e-01,9.98728e-01
1.180579921e+00,6.39644e-01,9.99999e-01,9.99999e-01,6.46646e-01,9.91074e-01,9.98078e-01
1.186482820e+00,7.71822e-01,9.99999e-01,9.99999e-01,7.80172e-01,9.91250e-01,9.98027e-01
1.192415234e+00,8.56127e-01,9.99999e-01,9.99999e-01,8.64810e-01,9.91422e-01,9.98522e-01
1.198377311e+00,8.76346e-01,9.99999e-01,9.99999e-01,8.85012e-01,9.91591e-01,9.98604e-01
1.204369197e+00,8.82679e-01,9.99999e-01,9.99999e-01,8.91140e-01,9.91756e-01,9.98737e-01
1.210391043e+00,8.87472e-01,9.99999e-01,9.99999e-01,8.95390e-01,9.91918e-01,9.99231e-01
1.216442998e+00,9.02499e-01,9.99999e-01,9.99999e-01,9.10134e-01,9.92077e-01,9.99529e-01
1.222525213e+00,9.21740e-01,9.99999e-01,9.99999e-01,9.29225e-01,9.92233e-01,9.99707e-01
1.228637839e+00,9.42952e-01,9.99999e-01,9.99999e-01,9.50315e-01,9.92386e-01,9.99863e-01
