#,Wave/freq,Total,N2,O2,H2O,Rayleigh,CIA
4.000000000e-01,8.28723e-02,9.99999e-01,9.99999e-01,9.99718e-01,8.28955e-02,9.99999e-01
4.020000000e-01,8.70641e-02,9.99999e-01,9.99999e-01,9.99825e-01,8.70793e-02,9.99999e-01
4.040100000e-01,9.13739e-02,9.99999e-01,9.99999e-01,9.99925e-01,9.13806e-02,9.99999e-01
4.060300500e-01,9.58015e-02,9.99999e-01,9.99999e-01,9.99982e-01,9.58032e-02,9.99999e-01
4.080602003e-01,1.00345e-01,9.99999e-01,9.99999e-01,9.99994e-01,1.00346e-01,9.99999e-01
4.101005013e-01,1.05008e-01,9.99999e-01,9.99999e-01,9.99999e-01,1.05008e-01,9.99999e-01
4.121510038e-01,1.09787e-01,9.99999e-01,9.99999e-01,9.99989e-01,1.09788e-01,9.99999e-01
4.142117588e-01,1.14676e-01,9.99999e-01,9.99999e-01,9.99922e-01,1.14685e-01,9.99999e-01
4.162828176e-01,1.19656e-01,9.99999e-01,9.99999e-01,9.99651e-01,1.19697e-01,9.99999e-01
4.183642317e-01,1.24797e-01,9.99999e-01,9.99999e-01,9.99792e-01,1.24823e-01,9.99999e-01
4.204560528e-01,1.30044e-01,9.99999e-01,9.99999e-01,9.99872e-01,1.30060e-01,9.99999e-01
4.225583331e-01,1.35401e-01,9.99999e-01,9.99999e-01,9.99952e-01,1.35408e-01,9.99999e-01
4.246711247e-01,1.40857e-01,9.99999e-01,9.99999e-01,9.99962e-01,1.40862e-01,9.99999e-01
4.267944804e-01,1.46415e-01,9.99999e-01,9.99999e-01,9.99943e-01,1.46423e-01,9.99999e-01
4.289284528e-01,1.52080e-01,9.99999e-01,9.99999e-01,9.99956e-01,1.52086e-01,9.99999e-01
4.310730950e-01,1.57848e-01,9.99999e-01,9.99999e-01,9.99981e-01,1.57850e-01,9.99999e-01
4.332284605e-01,1.63712e-01,9.99999e-01,9.99999e-01,9.99994e-01,1.63713e-01,9.99999e-01
4.353946028e-01,1.69670e-01,9.99999e-01,9.99999e-01,9.99997e-01,1.69670e-01,9.99999e-01
4.375715758e-01,1.75715e-01,9.99999e-01,9.99999e-01,9.99965e-01,1.75721e-01,9.99999e-01
4.397594337e-01,1.81806e-01,9.99999e-01,9.99999e-01,9.99695e-01,1.81861e-01,9.99999e-01
4.419582309e-01,1.87798e-01,9.99999e-01,9.99999e-01,9.98456e-01,1.88088e-01,9.99999e-01
4.441680220e-01,1.94164e-01,9.99999e-01,9.99999e-01,9.98786e-01,1.94399e-01,9.99999e-01
4.463888621e-01,2.00538e-01,9.99999e-01,9.99999e-01,9.98739e-01,2.00791e-01,9.99999e-01
4.486208064e-01,2.07099e-01,9.99999e-01,9.99999e-01,9.99215e-01,2.07261e-01,9.99999e-01
4.508639105e-01,2.13727e-01,9.99999e-01,9.99999e-01,9.99632e-01,2.13805e-01,9.99999e-01
4.531182300e-01,2.20388e-01,9.99999e-01,9.99999e-01,9.99854e-01,2.20420e-01,9.99999e-01
4.553838212e-01,2.27081e-01,9.99999e-01,9.99999e-01,9.99901e-01,2.27104e-01,9.99999e-01
4.576607403e-01,2.33841e-01,9.99999e-01,9.99999e-01,9.99954e-01,2.33852e-01,9.99999e-01
4.599490440e-01,2.40653e-01,9.99999e-01,9.99999e-01,9.99967e-01,2.40661e-01,9.99999e-01
4.622487892e-01,2.47527e-01,9.99999e-01,9.99999e-01,9.99994e-01,2.47528e-01,9.99999e-01
4.645600332e-01,2.54444e-01,9.99999e-01,9.99999e-01,9.99977e-01,2.54449e-01,9.99999e-01
4.668828333e-01,2.61326e-01,9.99999e-01,9.99999e-01,9.99630e-01,2.61422e-01,9.99999e-01
4.692172475e-01,2.68230e-01,9.99999e-01,9.99999e-01,9.99209e-01,2.68442e-01,9.99999e-01
4.715633337e-01,2.75365e-01,9.99999e-01,9.99999e-01,9.99483e-01,2.75507e-01,9.99999e-01
4.739211504e-01,2.82473e-01,9.99999e-01,9.99999e-01,9.99504e-01,2.82613e-01,9.99999e-01
4.762907561e-01,2.89681e-01,9.99999e-01,9.99999e-01,9.99742e-01,2.89756e-01,9.99999e-01
4.786722099e-01,2.96902e-01,9.99999e-01,9.99999e-01,9.99894e-01,2.96933e-01,9.99999e-01
4.810655710e-01,3.04131e-01,9.99999e-01,9.99999e-01,9.99968e-01,3.04141e-01,9.99999e-01
4.834708988e-01,3.11282e-01,9.99999e-01,9.99999e-01,9.99699e-01,3.11376e-01,9.99999e-01
4.858882533e-01,3.18457e-01,9.99999e-01,9.99999e-01,9.99439e-01,3.18635e-01,9.99999e-01
4.883176946e-01,3.25763e-01,9.99999e-01,9.99999e-01,9.99532e-01,3.25916e-01,9.99999e-01
4.907592831e-01,3.33072e-01,9.99999e-01,9.99999e-01,9.99576e-01,3.33213e-01,9.99999e-01
4.932130795e-01,3.40423e-01,9.99999e-01,9.99999e-01,9.99699e-01,3.40526e-01,9.99999e-01
4.956791449e-01,3.47794e-01,9.99999e-01,9.99999e-01,9.99840e-01,3.47849e-01,9.99999e-01
4.981575406e-01,3.54899e-01,9.99999e-01,9.99999e-01,9.99206e-01,3.55181e-01,9.99999e-01
5.006483283e-01,3.61770e-01,9.99999e-01,9.99999e-01,9.97949e-01,3.62518e-01,9.99985e-01
5.031515699e-01,3.65983e-01,9.99999e-01,9.99999e-01,9.89634e-01,3.69857e-01,9.99890e-01
5.056673278e-01,3.75075e-01,9.99999e-01,9.99999e-01,9.94503e-01,3.77195e-01,9.99874e-01
5.081956644e-01,3.81834e-01,9.99999e-01,9.99999e-01,9.93068e-01,3.84530e-01,9.99918e-01
5.107366428e-01,3.90016e-01,9.99999e-01,9.99999e-01,9.95314e-01,3.91858e-01,9.99984e-01
5.132903260e-01,3.98106e-01,9.99999e-01,9.99999e-01,9.97318e-01,3.99177e-01,9.99997e-01
5.158567776e-01,4.06023e-01,9.99999e-01,9.99999e-01,9.98866e-01,4.06484e-01,9.99999e-01
5.184360615e-01,4.13589e-01,9.99999e-01,9.99999e-01,9.99546e-01,4.13776e-01,9.99999e-01
5.210282418e-01,4.20980e-01,9.99999e-01,9.99999e-01,9.99830e-01,4.21052e-01,9.99999e-01
5.236333830e-01,4.28014e-01,9.99999e-01,9.99999e-01,9.99319e-01,4.28308e-01,9.99994e-01
5.262515499e-01,4.35353e-01,9.99999e-01,9.99999e-01,9.99573e-01,4.35541e-01,9.99992e-01
5.288828077e-01,4.42577e-01,9.99999e-01,9.99999e-01,9.99609e-01,4.42751e-01,9.99995e-01
5.315272217e-01,4.49779e-01,9.99999e-01,9.99999e-01,9.99656e-01,4.49934e-01,9.99998e-01
5.341848578e-01,4.56986e-01,9.99999e-01,9.99999e-01,9.99775e-01,4.57088e-01,9.99999e-01
5.368557821e-01,4.63844e-01,9.99999e-01,9.99999e-01,9.99209e-01,4.64211e-01,9.99997e-01
5.395400610e-01,4.69950e-01,9.99999e-01,9.99999e-01,9.97154e-01,4.71302e-01,9.99976e-01
5.422377613e-01,4.76559e-01,9.99999e-01,9.99999e-01,9.96307e-01,4.78357e-01,9.99932e-01
5.449489501e-01,4.83678e-01,9.99999e-01,9.99999e-01,9.96572e-01,4.85375e-01,9.99930e-01
5.476736949e-01,4.90840e-01,9.99999e-01,9.99999e-01,9.96956e-01,4.92355e-01,9.99965e-01
5.504120634e-01,4.98187e-01,9.99999e-01,9.99999e-01,9.97791e-01,4.99294e-01,9.99990e-01
5.531641237e-01,5.05628e-01,9.99999e-01,9.99999e-01,9.98888e-01,5.06192e-01,9.99998e-01
5.559299443e-01,5.12770e-01,9.99999e-01,9.99999e-01,9.99463e-01,5.13045e-01,9.99999e-01
5.587095940e-01,5.19678e-01,9.99999e-01,9.99999e-01,9.99663e-01,5.19853e-01,9.99999e-01
5.615031420e-01,5.26417e-01,9.99999e-01,9.99999e-01,9.99625e-01,5.26614e-01,9.99998e-01
5.643106577e-01,5.33100e-01,9.99999e-01,9.99999e-01,9.99577e-01,5.33327e-01,9.99995e-01
5.671322110e-01,5.37207e-01,9.99999e-01,9.99999e-01,9.94889e-01,5.39991e-01,9.99953e-01
5.699678720e-01,5.43530e-01,9.99999e-01,9.99999e-01,9.94515e-01,5.46604e-01,9.99859e-01
5.728177114e-01,5.49948e-01,9.99999e-01,9.99999e-01,9.94300e-01,5.53164e-01,9.99882e-01
5.756818000e-01,5.56702e-01,9.99999e-01,9.99999e-01,9.94765e-01,5.59672e-01,9.99928e-01
5.785602090e-01,5.63528e-01,9.99999e-01,9.99999e-01,9.95434e-01,5.66125e-01,9.99978e-01
5.814530100e-01,5.69894e-01,9.99999e-01,9.99999e-01,9.95417e-01,5.72523e-01,9.99989e-01
5.843602750e-01,5.75696e-01,9.99999e-01,9.99999e-01,9.94556e-01,5.78865e-01,9.99969e-01
5.872820764e-01,5.58272e-01,9.99999e-01,9.99999e-01,9.54382e-01,5.85149e-01,9.99668e-01
5.902184868e-01,5.58019e-01,9.99999e-01,9.99999e-01,9.44445e-01,5.91376e-01,9.99097e-01
5.931695792e-01,5.73532e-01,9.99999e-01,9.99999e-01,9.60647e-01,5.97544e-01,9.99132e-01
5.961354271e-01,5.77273e-01,9.99999e-01,9.99999e-01,9.56775e-01,6.03653e-01,9.99501e-01
5.991161043e-01,5.90233e-01,9.99999e-01,9.99999e-01,9.68217e-01,6.09701e-01,9.99845e-01
6.021116848e-01,6.04492e-01,9.99999e-01,9.99999e-01,9.81830e-01,6.15689e-01,9.99980e-01
6.051222432e-01,6.15874e-01,9.99999e-01,9.99999e-01,9.90762e-01,6.21616e-01,9.99998e-01
6.081478544e-01,6.24976e-01,9.99999e-01,9.99999e-01,9.96006e-01,6.27481e-01,9.99999e-01
6.111885937e-01,6.32213e-01,9.99999e-01,9.99999e-01,9.98307e-01,6.33284e-01,9.99999e-01
6.142445367e-01,6.38542e-01,9.99999e-01,9.99999e-01,9.99244e-01,6.39024e-01,9.99999e-01
6.173157594e-01,6.44434e-01,9.99999e-01,9.99999e-01,9.99583e-01,6.44702e-01,9.99999e-01
6.204023382e-01,6.50087e-01,9.99999e-01,9.99999e-01,9.99647e-01,6.50316e-01,9.99999e-01
6.235043498e-01,6.54852e-01,9.99999e-01,9.99999e-01,9.98455e-01,6.55867e-01,9.99995e-01
6.266218716e-01,6.55902e-01,9.99999e-01,9.99999e-01,9.91811e-01,6.61354e-01,9.99941e-01
6.297549810e-01,6.64695e-01,9.99999e-01,9.99999e-01,9.96990e-01,6.66778e-01,9.99884e-01
6.329037559e-01,6.68076e-01,9.99999e-01,9.99999e-01,9.94049e-01,6.72137e-01,9.99907e-01
6.360682746e-01,6.73967e-01,9.99999e-01,9.99999e-01,9.94938e-01,6.77432e-01,9.99944e-01
6.392486160e-01,6.78169e-01,9.99999e-01,9.99999e-01,9.93439e-01,6.82664e-01,9.99975e-01
6.424448591e-01,6.81793e-01,9.99999e-01,9.99999e-01,9.91259e-01,6.87831e-01,9.99960e-01
6.456570834e-01,6.65172e-01,9.99999e-01,9.99999e-01,9.60151e-01,6.92934e-01,9.99773e-01
6.488853688e-01,6.77039e-01,9.99999e-01,9.99999e-01,9.70621e-01,6.97973e-01,9.99366e-01
6.521297956e-01,6.81583e-01,9.99999e-01,9.99999e-01,9.70120e-01,7.02948e-01,9.99468e-01
6.553904446e-01,6.86434e-01,9.99999e-01,9.99999e-01,9.70118e-01,7.07859e-01,9.99601e-01
6.586673968e-01,6.94351e-01,9.99999e-01,9.99999e-01,9.74372e-01,7.12706e-01,9.99869e-01
6.619607338e-01,7.06763e-01,9.99999e-01,9.99999e-01,9.85075e-01,7.17490e-01,9.99971e-01
6.652705375e-01,7.15936e-01,9.99999e-01,9.99999e-01,9.91325e-01,7.22211e-01,9.99985e-01
6.685968902e-01,7.23931e-01,9.99999e-01,9.99999e-01,9.95961e-01,7.26868e-01,9.99997e-01
6.719398746e-01,7.30093e-01,9.99999e-01,9.99999e-01,9.98126e-01,7.31463e-01,9.99999e-01
6.752995740e-01,7.35249e-01,9.99999e-01,9.99999e-01,9.98985e-01,7.35995e-01,9.99999e-01
6.786760719e-01,7.39381e-01,9.99999e-01,9.99999e-01,9.98538e-01,7.40465e-01,9.99997e-01
6.820694522e-01,7.42998e-01,9.99999e-01,9.99999e-01,9.97495e-01,7.44873e-01,9.99986e-01
6.854797995e-01,7.46779e-01,9.99999e-01,9.99999e-01,9.96771e-01,7.49219e-01,9.99971e-01
6.889071985e-01,7.47617e-01,9.99999e-01,9.99999e-01,9.92255e-01,7.53504e-01,9.99929e-01
6.923517345e-01,6.67531e-01,9.99999e-01,9.99999e-01,8.81502e-01,7.57728e-01,9.99387e-01
6.958134932e-01,7.12389e-01,9.99999e-01,9.99999e-01,9.36318e-01,7.61892e-01,9.98619e-01
6.992925606e-01,7.18547e-01,9.99999e-01,9.99999e-01,9.39197e-01,7.65995e-01,9.98784e-01
7.027890234e-01,7.11822e-01,9.99999e-01,9.99999e-01,9.25259e-01,7.70039e-01,9.99067e-01
7.063029686e-01,7.24603e-01,9.99999e-01,9.99999e-01,9.36584e-01,7.74024e-01,9.99535e-01
7.098344834e-01,7.30297e-01,9.99999e-01,9.99999e-01,9.39001e-01,7.77950e-01,9.99725e-01
7.133836558e-01,7.19365e-01,9.99999e-01,9.99999e-01,9.20619e-01,7.81818e-01,9.99454e-01
7.169505741e-01,4.21029e-01,9.99999e-01,9.99999e-01,5.38219e-01,7.85629e-01,9.95715e-01
7.205353270e-01,5.72272e-01,9.99999e-01,9.99999e-01,7.30475e-01,7.89382e-01,9.92452e-01
7.241380036e-01,5.27824e-01,9.99999e-01,9.99999e-01,6.69906e-01,7.93078e-01,9.93479e-01
7.277586936e-01,5.52355e-01,9.99999e-01,9.99999e-01,6.97004e-01,7.96718e-01,9.94666e-01
7.313974871e-01,5.39738e-01,9.99999e-01,9.99999e-01,6.76108e-01,8.00302e-01,9.97498e-01
7.350544745e-01,6.47019e-01,9.99999e-01,9.99999e-01,8.05619e-01,8.03831e-01,9.99129e-01
7.387297469e-01,6.87250e-01,9.99999e-01,9.99999e-01,8.51626e-01,8.07306e-01,9.99600e-01
7.424233956e-01,7.49066e-01,9.99999e-01,9.99999e-01,9.24014e-01,8.10727e-01,9.99922e-01
7.461355126e-01,7.75970e-01,9.99999e-01,9.99999e-01,9.53182e-01,8.14094e-01,9.99985e-01
7.498661902e-01,7.99331e-01,9.99999e-01,9.99999e-01,9.77889e-01,8.17408e-01,9.99994e-01
7.536155211e-01,8.11720e-01,9.99999e-01,9.99999e-01,9.89097e-01,8.20670e-01,9.99996e-01
7.573835987e-01,8.19243e-01,9.99999e-01,9.99999e-01,9.94372e-01,8.23880e-01,9.99998e-01
7.611705167e-01,8.24144e-01,9.99999e-01,9.99999e-01,9.96500e-01,8.27038e-01,9.99999e-01
7.649763693e-01,8.28325e-01,9.99999e-01,9.99999e-01,9.97806e-01,8.30146e-01,9.99999e-01
7.688012511e-01,8.31932e-01,9.99999e-01,9.99999e-01,9.98472e-01,8.33204e-01,9.99999e-01
7.726452574e-01,8.35162e-01,9.99999e-01,9.99999e-01,9.98743e-01,8.36213e-01,9.99998e-01
7.765084837e-01,8.37676e-01,9.99999e-01,9.99999e-01,9.98218e-01,8.39173e-01,9.99997e-01
7.803910261e-01,8.35617e-01,9.99999e-01,9.99999e-01,9.92326e-01,8.42084e-01,9.99992e-01
7.842929812e-01,8.22529e-01,9.99999e-01,9.99999e-01,9.73515e-01,8.44948e-01,9.99950e-01
7.882144461e-01,8.01735e-01,9.99999e-01,9.99999e-01,9.46025e-01,8.47764e-01,9.99660e-01
7.921555184e-01,8.24499e-01,9.99999e-01,9.99999e-01,9.70025e-01,8.50534e-01,9.99343e-01
7.961162960e-01,8.08283e-01,9.99999e-01,9.99999e-01,9.47885e-01,8.53258e-01,9.99370e-01
8.000968774e-01,8.03759e-01,9.99999e-01,9.99999e-01,9.39668e-01,8.55937e-01,9.99330e-01
8.040973618e-01,8.06425e-01,9.99999e-01,9.99999e-01,9.39762e-01,8.58571e-01,9.99468e-01
8.081178486e-01,7.49852e-01,9.99999e-01,9.99999e-01,8.71178e-01,8.61161e-01,9.99501e-01
8.121584379e-01,4.94970e-01,9.99999e-01,9.99999e-01,5.74199e-01,8.63707e-01,9.98041e-01
8.162192301e-01,4.47238e-01,9.99999e-01,9.99999e-01,5.20135e-01,8.66211e-01,9.92656e-01
8.203003262e-01,6.34380e-01,9.99999e-01,9.99999e-01,7.36617e-01,8.68672e-01,9.91406e-01
8.244018279e-01,5.74285e-01,9.99999e-01,9.99999e-01,6.63814e-01,8.71091e-01,9.93154e-01
8.285238370e-01,5.82430e-01,9.99999e-01,9.99999e-01,6.70407e-01,8.73469e-01,9.94619e-01
8.326664562e-01,5.84821e-01,9.99999e-01,9.99999e-01,6.69243e-01,8.75806e-01,9.97771e-01
8.368297885e-01,6.53893e-01,9.99999e-01,9.99999e-01,7.45044e-01,8.78103e-01,9.99490e-01
8.410139374e-01,7.37907e-01,9.99999e-01,9.99999e-01,8.38437e-01,8.80360e-01,9.99701e-01
8.452190071e-01,8.08933e-01,9.99999e-01,9.99999e-01,9.16718e-01,8.82579e-01,9.99821e-01
8.494451021e-01,8.41028e-01,9.99999e-01,9.99999e-01,9.50708e-01,8.84759e-01,9.99856e-01
8.536923276e-01,8.60686e-01,9.99999e-01,9.99999e-01,9.70525e-01,8.86901e-01,9.99912e-01
8.579607893e-01,8.72770e-01,9.99999e-01,9.99999e-01,9.81755e-01,8.89007e-01,9.99978e-01
8.622505932e-01,8.80702e-01,9.99999e-01,9.99999e-01,9.88361e-01,8.91075e-01,9.99995e-01
8.665618462e-01,8.86669e-01,9.99999e-01,9.99999e-01,9.92793e-01,8.93107e-01,9.99997e-01
8.708946554e-01,8.87722e-01,9.99999e-01,9.99999e-01,9.91757e-01,8.95104e-01,9.99995e-01
8.752491287e-01,8.87172e-01,9.99999e-01,9.99999e-01,9.88983e-01,8.97065e-01,9.99987e-01
8.796253743e-01,8.85293e-01,9.99999e-01,9.99999e-01,9.84795e-01,8.98992e-01,9.99965e-01
8.840235012e-01,8.85166e-01,9.99999e-01,9.99999e-01,9.82655e-01,9.00885e-01,9.99893e-01
8.884436187e-01,8.48116e-01,9.99999e-01,9.99999e-01,9.39770e-01,9.02744e-01,9.99696e-01
8.928858368e-01,4.85998e-01,9.99999e-01,9.99999e-01,5.38209e-01,9.04570e-01,9.98251e-01
8.973502660e-01,3.04633e-01,9.99999e-01,9.99999e-01,3.39131e-01,9.06364e-01,9.91073e-01
9.018370173e-01,5.14586e-01,9.99999e-01,9.99999e-01,5.74691e-01,9.08126e-01,9.86000e-01
9.063462024e-01,5.48708e-01,9.99999e-01,9.99999e-01,6.10585e-01,9.09856e-01,9.87691e-01
9.108779334e-01,4.17786e-01,9.99999e-01,9.99999e-01,4.64258e-01,9.11555e-01,9.87213e-01
9.154323231e-01,3.71633e-01,9.99999e-01,9.99999e-01,4.11297e-01,9.13224e-01,9.89419e-01
9.200094847e-01,4.58200e-01,9.99999e-01,9.99999e-01,5.03830e-01,9.14863e-01,9.94064e-01
9.246095321e-01,3.41387e-01,9.99999e-01,9.99999e-01,3.75064e-01,9.16473e-01,9.93163e-01
9.292325798e-01,1.14835e-02,9.99999e-01,9.99999e-01,1.28476e-02,9.18053e-01,9.73603e-01
9.338787427e-01,7.66163e-04,9.99999e-01,9.99999e-01,9.30568e-04,9.19605e-01,8.95305e-01
9.385481364e-01,4.62380e-02,9.99999e-01,9.99999e-01,5.72534e-02,9.21128e-01,8.76752e-01
9.432408771e-01,2.08703e-02,9.99999e-01,9.99999e-01,2.53387e-02,9.22624e-01,8.92727e-01
9.479570815e-01,3.04097e-03,9.99999e-01,9.99999e-01,3.60914e-03,9.24093e-01,9.11783e-01
9.526968669e-01,1.04294e-02,9.99999e-01,9.99999e-01,1.19214e-02,9.25535e-01,9.45227e-01
9.574603512e-01,1.34916e-02,9.99999e-01,9.99999e-01,1.49773e-02,9.26951e-01,9.71792e-01
9.622476530e-01,2.68626e-02,9.99999e-01,9.99999e-01,2.95143e-02,9.28341e-01,9.80409e-01
9.670588912e-01,1.13056e-01,9.99999e-01,9.99999e-01,1.23261e-01,9.29705e-01,9.86560e-01
9.718941857e-01,2.12035e-01,9.99999e-01,9.99999e-01,2.30018e-01,9.31045e-01,9.90088e-01
9.767536566e-01,2.71776e-01,9.99999e-01,9.99999e-01,2.93720e-01,9.32359e-01,9.92416e-01
9.816374249e-01,3.66155e-01,9.99999e-01,9.99999e-01,3.93209e-01,9.33650e-01,9.97369e-01
9.865456120e-01,5.16472e-01,9.99999e-01,9.99999e-01,5.52728e-01,9.34917e-01,9.99451e-01
9.914783401e-01,6.45969e-01,9.99999e-01,9.99999e-01,6.90124e-01,9.36161e-01,9.99847e-01
9.964357318e-01,7.65561e-01,9.99999e-01,9.99999e-01,8.16774e-01,9.37381e-01,9.99910e-01
1.001417910e+00,8.30875e-01,9.99999e-01,9.99999e-01,8.85367e-01,9.38579e-01,9.99863e-01
1.006425000e+00,8.76476e-01,9.99999e-01,9.99999e-01,9.32844e-01,9.39755e-01,9.99806e-01
1.011457125e+00,9.00993e-01,9.99999e-01,9.99999e-01,9.57748e-01,9.40909e-01,9.99820e-01
1.016514411e+00,9.14714e-01,9.99999e-01,9.99999e-01,9.71113e-01,9.42042e-01,9.99872e-01
1.021596983e+00,9.21268e-01,9.99999e-01,9.99999e-01,9.76919e-01,9.43154e-01,9.99872e-01
1.026704968e+00,9.27124e-01,9.99999e-01,9.99999e-01,9.81951e-01,9.44245e-01,9.99914e-01
1.031838492e+00,9.32859e-01,9.99999e-01,9.99999e-01,9.86845e-01,9.45315e-01,9.99976e-01
1.036997685e+00,9.38954e-01,9.99999e-01,9.99999e-01,9.92170e-01,9.46366e-01,9.99995e-01
1.042182673e+00,9.38567e-01,9.99999e-01,9.99999e-01,9.90681e-01,9.47397e-01,9.99997e-01
1.047393587e+00,9.36697e-01,9.99999e-01,9.99999e-01,9.87653e-01,9.48409e-01,9.99997e-01
1.052630555e+00,9.33358e-01,9.99999e-01,9.99999e-01,9.83105e-01,9.49401e-01,9.99995e-01
1.057893707e+00,9.23744e-01,9.99999e-01,9.99999e-01,9.71986e-01,9.50376e-01,9.99989e-01
1.063183176e+00,9.07912e-01,9.99999e-01,9.99999e-01,9.54382e-01,9.51332e-01,9.99975e-01
1.068499092e+00,8.80708e-01,9.99999e-01,9.99999e-01,9.24899e-01,9.52270e-01,9.99946e-01
1.073841587e+00,8.70389e-01,9.99999e-01,9.99999e-01,9.13238e-01,9.53190e-01,9.99884e-01
1.079210795e+00,8.48622e-01,9.99999e-01,9.99999e-01,8.89731e-01,9.54093e-01,9.99686e-01
1.084606849e+00,8.00426e-01,9.99999e-01,9.99999e-01,8.38792e-01,9.54979e-01,9.99246e-01
1.090029883e+00,7.43744e-01,9.99999e-01,9.99999e-01,7.79313e-01,9.55848e-01,9.98438e-01
1.095480033e+00,4.85656e-01,9.99999e-01,9.99999e-01,5.09072e-01,9.56701e-01,9.97178e-01
1.100957433e+00,1.88535e-01,9.99999e-01,9.99999e-01,1.97922e-01,9.57538e-01,9.94812e-01
1.106462220e+00,2.60254e-02,9.99999e-01,9.99999e-01,2.73968e-02,9.58359e-01,9.91216e-01
1.111994531e+00,6.00948e-04,9.99999e-01,9.99999e-01,6.41378e-04,9.59164e-01,9.76852e-01
1.117554504e+00,2.27714e-05,9.99999e-01,9.99999e-01,2.58143e-05,9.59955e-01,9.18921e-01
1.123142276e+00,7.50116e-04,9.99999e-01,9.99999e-01,9.54132e-04,9.60730e-01,8.18310e-01
1.128757988e+00,3.01679e-03,9.99999e-01,9.99999e-01,3.95676e-03,9.61490e-01,7.92975e-01
1.134401778e+00,2.41706e-03,9.99999e-01,9.99999e-01,3.05960e-03,9.62237e-01,8.20994e-01
1.140073787e+00,2.12712e-02,9.99999e-01,9.99999e-01,2.58595e-02,9.62968e-01,8.54198e-01
1.145774156e+00,2.09938e-03,9.99999e-01,9.99999e-01,2.51653e-03,9.63686e-01,8.65669e-01
1.151503026e+00,7.56688e-04,9.99999e-01,9.99999e-01,8.50282e-04,9.64391e-01,9.22783e-01
1.157260541e+00,8.50897e-04,9.99999e-01,9.99999e-01,9.03123e-04,9.65082e-01,9.76259e-01
1.163046844e+00,5.24370e-03,9.99999e-01,9.99999e-01,5.46671e-03,9.65759e-01,9.93213e-01
1.168862078e+00,2.10699e-02,9.99999e-01,9.99999e-01,2.18785e-02,9.66424e-01,9.96497e-01
1.174706389e+00,8.43918e-02,9.99999e-01,9.99999e-01,8.76715e-02,9.67076e-01,9.95360e-01
1.180579921e+00,2.10127e-01,9.99999e-01,9.99999e-01,2.18669e-01,9.67716e-01,9.92992e-01
1.186482820e+00,3.94646e-01,9.99999e-01,9.99999e-01,4.10499e-01,9.68344e-01,9.92808e-01
1.192415234e+00,5.68962e-01,9.99999e-01,9.99999e-01,5.90371e-01,9.68959e-01,9.94609e-01
1.198377311e+00,6.19483e-01,9.99999e-01,9.99999e-01,6.42200e-01,9.69563e-01,9.94907e-01
1.204369197e+00,6.39180e-01,9.99999e-01,9.99999e-01,6.61893e-01,9.70155e-01,9.95391e-01
1.210391043e+00,6.49825e-01,9.99999e-01,9.99999e-01,6.71298e-01,9.70736e-01,9.97194e-01
1.216442998e+00,6.90692e-01,9.99999e-01,9.99999e-01,7.12320e-01,9.71305e-01,9.98280e-01
1.222525213e+00,7.43712e-01,9.99999e-01,9.99999e-01,7.66061e-01,9.71864e-01,9.98931e-01
1.228637839e+00,8.07366e-01,9.99999e-01,9.99999e-01,8.30684e-01,9.72412e-01,9.99502e-01
