#,Wave/freq,Total,N2,O2,H2O,Rayleigh,CIA
4.000000000e-01,4.38579e-01,9.99999e-01,9.99999e-01,9.99906e-01,4.38620e-01,9.99999e-01
4.020000000e-01,4.45800e-01,9.99999e-01,9.99999e-01,9.99941e-01,4.45826e-01,9.99999e-01
4.040100000e-01,4.52985e-01,9.99999e-01,9.99999e-01,9.99975e-01,4.52997e-01,9.99999e-01
4.060300500e-01,4.60135e-01,9.99999e-01,9.99999e-01,9.99993e-01,4.60138e-01,9.99999e-01
4.080602003e-01,4.67246e-01,9.99999e-01,9.99999e-01,9.99997e-01,4.67247e-01,9.99999e-01
4.101005013e-01,4.74323e-01,9.99999e-01,9.99999e-01,9.99999e-01,4.74323e-01,9.99999e-01
4.121510038e-01,4.81361e-01,9.99999e-01,9.99999e-01,9.99996e-01,4.81362e-01,9.99999e-01
4.142117588e-01,4.88352e-01,9.99999e-01,9.99999e-01,9.99974e-01,4.88365e-01,9.99999e-01
4.162828176e-01,4.95270e-01,9.99999e-01,9.99999e-01,9.99884e-01,4.95327e-01,9.99999e-01
4.183642317e-01,5.02214e-01,9.99999e-01,9.99999e-01,9.99931e-01,5.02249e-01,9.99999e-01
4.204560528e-01,5.09106e-01,9.99999e-01,9.99999e-01,9.99957e-01,5.09127e-01,9.99999e-01
4.225583331e-01,5.15953e-01,9.99999e-01,9.99999e-01,9.99983e-01,5.15962e-01,9.99999e-01
4.246711247e-01,5.22743e-01,9.99999e-01,9.99999e-01,9.99987e-01,5.22750e-01,9.99999e-01
4.267944804e-01,5.29481e-01,9.99999e-01,9.99999e-01,9.99981e-01,5.29491e-01,9.99999e-01
4.289284528e-01,5.36175e-01,9.99999e-01,9.99999e-01,9.99985e-01,5.36183e-01,9.99999e-01
4.310730950e-01,5.42821e-01,9.99999e-01,9.99999e-01,9.99993e-01,5.42825e-01,9.99999e-01
4.332284605e-01,5.49414e-01,9.99999e-01,9.99999e-01,9.99997e-01,5.49415e-01,9.99999e-01
4.353946028e-01,5.55953e-01,9.99999e-01,9.99999e-01,9.99998e-01,5.55953e-01,9.99999e-01
4.375715758e-01,5.62431e-01,9.99999e-01,9.99999e-01,9.99988e-01,5.62438e-01,9.99999e-01
4.397594337e-01,5.68810e-01,9.99999e-01,9.99999e-01,9.99898e-01,5.68867e-01,9.99999e-01
4.419582309e-01,5.74947e-01,9.99999e-01,9.99999e-01,9.99488e-01,5.75241e-01,9.99999e-01
4.441680220e-01,5.81325e-01,9.99999e-01,9.99999e-01,9.99598e-01,5.81559e-01,9.99999e-01
4.463888621e-01,5.87574e-01,9.99999e-01,9.99999e-01,9.99582e-01,5.87819e-01,9.99999e-01
4.486208064e-01,5.93866e-01,9.99999e-01,9.99999e-01,9.99740e-01,5.94021e-01,9.99999e-01
4.508639105e-01,6.00090e-01,9.99999e-01,9.99999e-01,9.99878e-01,6.00163e-01,9.99999e-01
4.531182300e-01,6.06217e-01,9.99999e-01,9.99999e-01,9.99951e-01,6.06246e-01,9.99999e-01
4.553838212e-01,6.12249e-01,9.99999e-01,9.99999e-01,9.99967e-01,6.12269e-01,9.99999e-01
4.576607403e-01,6.18222e-01,9.99999e-01,9.99999e-01,9.99984e-01,6.18231e-01,9.99999e-01
4.599490440e-01,6.24125e-01,9.99999e-01,9.99999e-01,9.99988e-01,6.24131e-01,9.99999e-01
4.622487892e-01,6.29969e-01,9.99999e-01,9.99999e-01,9.99997e-01,6.29970e-01,9.99999e-01
4.645600332e-01,6.35742e-01,9.99999e-01,9.99999e-01,9.99992e-01,6.35746e-01,9.99999e-01
4.668828333e-01,6.41381e-01,9.99999e-01,9.99999e-01,9.99877e-01,6.41460e-01,9.99999e-01
4.692172475e-01,6.46941e-01,9.99999e-01,9.99999e-01,9.99737e-01,6.47110e-01,9.99999e-01
4.715633337e-01,6.52586e-01,9.99999e-01,9.99999e-01,9.99828e-01,6.52697e-01,9.99999e-01
4.739211504e-01,6.58113e-01,9.99999e-01,9.99999e-01,9.99835e-01,6.58221e-01,9.99999e-01
4.762907561e-01,6.63625e-01,9.99999e-01,9.99999e-01,9.99914e-01,6.63681e-01,9.99999e-01
4.786722099e-01,6.69054e-01,9.99999e-01,9.99999e-01,9.99964e-01,6.69077e-01,9.99999e-01
4.810655710e-01,6.74402e-01,9.99999e-01,9.99999e-01,9.99989e-01,6.74409e-01,9.99999e-01
4.834708988e-01,6.79609e-01,9.99999e-01,9.99999e-01,9.99900e-01,6.79677e-01,9.99999e-01
4.858882533e-01,6.84754e-01,9.99999e-01,9.99999e-01,9.99814e-01,6.84881e-01,9.99999e-01
4.883176946e-01,6.89914e-01,9.99999e-01,9.99999e-01,9.99844e-01,6.90021e-01,9.99999e-01
4.907592831e-01,6.94999e-01,9.99999e-01,9.99999e-01,9.99859e-01,6.95096e-01,9.99999e-01
4.932130795e-01,7.00038e-01,9.99999e-01,9.99999e-01,9.99900e-01,7.00108e-01,9.99999e-01
4.956791449e-01,7.05018e-01,9.99999e-01,9.99999e-01,9.99946e-01,7.05055e-01,9.99999e-01
4.981575406e-01,7.09753e-01,9.99999e-01,9.99999e-01,9.99736e-01,7.09939e-01,9.99999e-01
5.006483283e-01,7.14271e-01,9.99999e-01,9.99999e-01,9.99320e-01,7.14760e-01,9.99994e-01
5.031515699e-01,7.17010e-01,9.99999e-01,9.99999e-01,9.96551e-01,7.19516e-01,9.99963e-01
5.056673278e-01,7.22860e-01,9.99999e-01,9.99999e-01,9.98176e-01,7.24210e-01,9.99958e-01
5.081956644e-01,7.27145e-01,9.99999e-01,9.99999e-01,9.97699e-01,7.28840e-01,9.99972e-01
5.107366428e-01,7.32265e-01,9.99999e-01,9.99999e-01,9.98445e-01,7.33408e-01,9.99994e-01
5.132903260e-01,7.37258e-01,9.99999e-01,9.99999e-01,9.99111e-01,7.37914e-01,9.99998e-01
5.158567776e-01,7.42078e-01,9.99999e-01,9.99999e-01,9.99624e-01,7.42357e-01,9.99999e-01
5.184360615e-01,7.46626e-01,9.99999e-01,9.99999e-01,9.99849e-01,7.46738e-01,9.99999e-01
5.210282418e-01,7.51016e-01,9.99999e-01,9.99999e-01,9.99943e-01,7.51058e-01,9.99999e-01
5.236333830e-01,7.55146e-01,9.99999e-01,9.99999e-01,9.99774e-01,7.55317e-01,9.99997e-01
5.262515499e-01,7.59407e-01,9.99999e-01,9.99999e-01,9.99858e-01,7.59516e-01,9.99997e-01
5.288828077e-01,7.63554e-01,9.99999e-01,9.99999e-01,9.99870e-01,7.63654e-01,9.99998e-01
5.315272217e-01,7.67644e-01,9.99999e-01,9.99999e-01,9.99885e-01,7.67732e-01,9.99999e-01
5.341848578e-01,7.71693e-01,9.99999e-01,9.99999e-01,9.99925e-01,7.71750e-01,9.99999e-01
5.368557821e-01,7.75507e-01,9.99999e-01,9.99999e-01,9.99737e-01,7.75710e-01,9.99998e-01
5.395400610e-01,7.78870e-01,9.99999e-01,9.99999e-01,9.99056e-01,7.79611e-01,9.99991e-01
5.422377613e-01,7.82479e-01,9.99999e-01,9.99999e-01,9.98775e-01,7.83455e-01,9.99977e-01
5.449489501e-01,7.86328e-01,9.99999e-01,9.99999e-01,9.98863e-01,7.87240e-01,9.99976e-01
5.476736949e-01,7.90163e-01,9.99999e-01,9.99999e-01,9.98991e-01,7.90969e-01,9.99988e-01
5.504120634e-01,7.94057e-01,9.99999e-01,9.99999e-01,9.99267e-01,7.94641e-01,9.99996e-01
5.531641237e-01,7.97963e-01,9.99999e-01,9.99999e-01,9.99631e-01,7.98257e-01,9.99999e-01
5.559299443e-01,8.01675e-01,9.99999e-01,9.99999e-01,9.99821e-01,8.01818e-01,9.99999e-01
5.587095940e-01,8.05234e-01,9.99999e-01,9.99999e-01,9.99888e-01,8.05324e-01,9.99999e-01
5.615031420e-01,8.08675e-01,9.99999e-01,9.99999e-01,9.99875e-01,8.08775e-01,9.99999e-01
5.643106577e-01,8.12058e-01,9.99999e-01,9.99999e-01,9.99859e-01,8.12173e-01,9.99998e-01
5.671322110e-01,8.14121e-01,9.99999e-01,9.99999e-01,9.98302e-01,8.15517e-01,9.99984e-01
5.699678720e-01,8.17280e-01,9.99999e-01,9.99999e-01,9.98179e-01,8.18809e-01,9.99953e-01
5.728177114e-01,8.20463e-01,9.99999e-01,9.99999e-01,9.98109e-01,8.22048e-01,9.99960e-01
5.756818000e-01,8.23785e-01,9.99999e-01,9.99999e-01,9.98263e-01,8.25236e-01,9.99975e-01
5.785602090e-01,8.27113e-01,9.99999e-01,9.99999e-01,9.98485e-01,8.28373e-01,9.99992e-01
5.814530100e-01,8.30194e-01,9.99999e-01,9.99999e-01,9.98480e-01,8.31460e-01,9.99996e-01
5.843602750e-01,8.32981e-01,9.99999e-01,9.99999e-01,9.98193e-01,8.34497e-01,9.99989e-01
5.872820764e-01,8.24455e-01,9.99999e-01,9.99999e-01,9.84549e-01,8.37484e-01,9.99889e-01
5.902184868e-01,8.24395e-01,9.99999e-01,9.99999e-01,9.81220e-01,8.40423e-01,9.99700e-01
5.931695792e-01,8.31883e-01,9.99999e-01,9.99999e-01,9.86728e-01,8.43314e-01,9.99712e-01
5.961354271e-01,8.33698e-01,9.99999e-01,9.99999e-01,9.85437e-01,8.46158e-01,9.99834e-01
5.991161043e-01,8.39872e-01,9.99999e-01,9.99999e-01,9.89351e-01,8.48954e-01,9.99948e-01
6.021116848e-01,8.46540e-01,9.99999e-01,9.99999e-01,9.93941e-01,8.51705e-01,9.99993e-01
6.051222432e-01,8.51786e-01,9.99999e-01,9.99999e-01,9.96929e-01,8.54409e-01,9.99999e-01
6.081478544e-01,8.55934e-01,9.99999e-01,9.99999e-01,9.98675e-01,8.57069e-01,9.99999e-01
6.111885937e-01,8.59202e-01,9.99999e-01,9.99999e-01,9.99438e-01,8.59684e-01,9.99999e-01
6.142445367e-01,8.62039e-01,9.99999e-01,9.99999e-01,9.99749e-01,8.62255e-01,9.99999e-01
6.173157594e-01,8.64664e-01,9.99999e-01,9.99999e-01,9.99861e-01,8.64783e-01,9.99999e-01
6.204023382e-01,8.67167e-01,9.99999e-01,9.99999e-01,9.99882e-01,8.67268e-01,9.99999e-01
6.235043498e-01,8.69265e-01,9.99999e-01,9.99999e-01,9.99487e-01,8.69711e-01,9.99998e-01
6.266218716e-01,8.69724e-01,9.99999e-01,9.99999e-01,9.97280e-01,8.72112e-01,9.99980e-01
6.297549810e-01,8.73567e-01,9.99999e-01,9.99999e-01,9.99001e-01,8.74473e-01,9.99961e-01
6.329037559e-01,8.75036e-01,9.99999e-01,9.99999e-01,9.98025e-01,8.76793e-01,9.99968e-01
6.360682746e-01,8.77582e-01,9.99999e-01,9.99999e-01,9.98321e-01,8.79073e-01,9.99981e-01
6.392486160e-01,8.79389e-01,9.99999e-01,9.99999e-01,9.97823e-01,8.81314e-01,9.99991e-01
6.424448591e-01,8.80939e-01,9.99999e-01,9.99999e-01,9.97095e-01,8.83516e-01,9.99986e-01
6.456570834e-01,8.73734e-01,9.99999e-01,9.99999e-01,9.86586e-01,8.85680e-01,9.99924e-01
6.488853688e-01,8.78865e-01,9.99999e-01,9.99999e-01,9.90135e-01,8.87806e-01,9.99789e-01
6.521297956e-01,8.80798e-01,9.99999e-01,9.99999e-01,9.89950e-01,8.89895e-01,9.99823e-01
6.553904446e-01,8.82908e-01,9.99999e-01,9.99999e-01,9.89995e-01,8.91948e-01,9.99867e-01
6.586673968e-01,8.86256e-01,9.99999e-01,9.99999e-01,9.91419e-01,8.93965e-01,9.99956e-01
6.619607338e-01,8.91485e-01,9.99999e-01,9.99999e-01,9.95028e-01,8.95946e-01,9.99990e-01
6.652705375e-01,8.95302e-01,9.99999e-01,9.99999e-01,9.97117e-01,8.97893e-01,9.99994e-01
6.685968902e-01,8.98599e-01,9.99999e-01,9.99999e-01,9.98660e-01,8.99805e-01,9.99998e-01
6.719398746e-01,9.01124e-01,9.99999e-01,9.99999e-01,9.99378e-01,9.01684e-01,9.99999e-01
6.752995740e-01,9.03225e-01,9.99999e-01,9.99999e-01,9.99663e-01,9.03529e-01,9.99999e-01
6.786760719e-01,9.04902e-01,9.99999e-01,9.99999e-01,9.99515e-01,9.05341e-01,9.99998e-01
6.820694522e-01,9.06365e-01,9.99999e-01,9.99999e-01,9.99169e-01,9.07121e-01,9.99995e-01
6.854797995e-01,9.07889e-01,9.99999e-01,9.99999e-01,9.98929e-01,9.08869e-01,9.99990e-01
6.889071985e-01,9.08220e-01,9.99999e-01,9.99999e-01,9.97423e-01,9.10586e-01,9.99976e-01
6.923517345e-01,8.74399e-01,9.99999e-01,9.99999e-01,9.58677e-01,9.12273e-01,9.99796e-01
6.958134932e-01,8.93590e-01,9.99999e-01,9.99999e-01,9.78192e-01,9.13929e-01,9.99541e-01
6.992925606e-01,8.96277e-01,9.99999e-01,9.99999e-01,9.79337e-01,9.15555e-01,9.99596e-01
7.027890234e-01,8.93474e-01,9.99999e-01,9.99999e-01,9.74484e-01,9.17152e-01,9.99690e-01
7.063029686e-01,8.98823e-01,9.99999e-01,9.99999e-01,9.78492e-01,9.18720e-01,9.99845e-01
7.098344834e-01,9.01174e-01,9.99999e-01,9.99999e-01,9.79348e-01,9.20259e-01,9.99908e-01
7.133836558e-01,8.96484e-01,9.99999e-01,9.99999e-01,9.72741e-01,9.21771e-01,9.99818e-01
7.169505741e-01,7.40896e-01,9.99999e-01,9.99999e-01,8.03623e-01,9.23256e-01,9.98577e-01
7.205353270e-01,8.27768e-01,9.99999e-01,9.99999e-01,8.97411e-01,9.24713e-01,9.97492e-01
7.241380036e-01,8.05591e-01,9.99999e-01,9.99999e-01,8.71720e-01,9.26144e-01,9.97834e-01
7.277586936e-01,8.18040e-01,9.99999e-01,9.99999e-01,8.83501e-01,9.27548e-01,9.98229e-01
7.313974871e-01,8.12871e-01,9.99999e-01,9.99999e-01,8.75790e-01,9.28927e-01,9.99170e-01
7.350544745e-01,8.64879e-01,9.99999e-01,9.99999e-01,9.29964e-01,9.30281e-01,9.99711e-01
7.387297469e-01,8.82896e-01,9.99999e-01,9.99999e-01,9.47835e-01,9.31610e-01,9.99867e-01
7.424233956e-01,9.08715e-01,9.99999e-01,9.99999e-01,9.74085e-01,9.32914e-01,9.99974e-01
7.461355126e-01,9.19447e-01,9.99999e-01,9.99999e-01,9.84216e-01,9.34195e-01,9.99995e-01
7.498661902e-01,9.28542e-01,9.99999e-01,9.99999e-01,9.92614e-01,9.35452e-01,9.99997e-01
7.536155211e-01,9.33288e-01,9.99999e-01,9.99999e-01,9.96373e-01,9.36685e-01,9.99998e-01
7.573835987e-01,9.36144e-01,9.99999e-01,9.99999e-01,9.98131e-01,9.37896e-01,9.99999e-01
7.611705167e-01,9.37995e-01,9.99999e-01,9.99999e-01,9.98838e-01,9.39085e-01,9.99999e-01
7.649763693e-01,9.39568e-01,9.99999e-01,9.99999e-01,9.99272e-01,9.40251e-01,9.99999e-01
7.688012511e-01,9.40920e-01,9.99999e-01,9.99999e-01,9.99493e-01,9.41396e-01,9.99999e-01
7.726452574e-01,9.42127e-01,9.99999e-01,9.99999e-01,9.99583e-01,9.42520e-01,9.99999e-01
7.765084837e-01,9.43065e-01,9.99999e-01,9.99999e-01,9.99409e-01,9.43623e-01,9.99998e-01
7.803910261e-01,9.42294e-01,9.99999e-01,9.99999e-01,9.97450e-01,9.44705e-01,9.99997e-01
7.842929812e-01,9.37363e-01,9.99999e-01,9.99999e-01,9.91130e-01,9.45767e-01,9.99983e-01
7.882144461e-01,9.29433e-01,9.99999e-01,9.99999e-01,9.81758e-01,9.46809e-01,9.99887e-01
7.921555184e-01,9.38099e-01,9.99999e-01,9.99999e-01,9.89946e-01,9.47832e-01,9.99782e-01
7.961162960e-01,9.31904e-01,9.99999e-01,9.99999e-01,9.82360e-01,9.48835e-01,9.99791e-01
8.000968774e-01,9.30229e-01,9.99999e-01,9.99999e-01,9.79590e-01,9.49820e-01,9.99777e-01
8.040973618e-01,9.31228e-01,9.99999e-01,9.99999e-01,9.79601e-01,9.50787e-01,9.99823e-01
8.081178486e-01,9.08595e-01,9.99999e-01,9.99999e-01,9.54829e-01,9.51735e-01,9.99834e-01
8.121584379e-01,7.86536e-01,9.99999e-01,9.99999e-01,8.26152e-01,9.52665e-01,9.99350e-01
8.162192301e-01,7.58329e-01,9.99999e-01,9.99999e-01,7.97190e-01,9.53578e-01,9.97560e-01
8.203003262e-01,8.52919e-01,9.99999e-01,9.99999e-01,8.96159e-01,9.54474e-01,9.97144e-01
8.244018279e-01,8.18561e-01,9.99999e-01,9.99999e-01,8.58767e-01,9.55353e-01,9.97726e-01
8.285238370e-01,8.33153e-01,9.99999e-01,9.99999e-01,8.72861e-01,9.56215e-01,9.98213e-01
8.326664562e-01,8.33665e-01,9.99999e-01,9.99999e-01,8.71711e-01,9.57061e-01,9.99260e-01
8.368297885e-01,8.67594e-01,9.99999e-01,9.99999e-01,9.05885e-01,9.57891e-01,9.99830e-01
8.410139374e-01,9.03832e-01,9.99999e-01,9.99999e-01,9.42855e-01,9.58705e-01,9.99900e-01
8.452190071e-01,9.32117e-01,9.99999e-01,9.99999e-01,9.71513e-01,9.59504e-01,9.99940e-01
8.494451021e-01,9.44285e-01,9.99999e-01,9.99999e-01,9.83381e-01,9.60288e-01,9.99952e-01
8.536923276e-01,9.51546e-01,9.99999e-01,9.99999e-01,9.90131e-01,9.61057e-01,9.99970e-01
8.579607893e-01,9.55954e-01,9.99999e-01,9.99999e-01,9.93917e-01,9.61811e-01,9.99992e-01
8.622505932e-01,9.58824e-01,9.99999e-01,9.99999e-01,9.96128e-01,9.62551e-01,9.99998e-01
8.665618462e-01,9.60971e-01,9.99999e-01,9.99999e-01,9.97606e-01,9.63277e-01,9.99998e-01
8.708946554e-01,9.61349e-01,9.99999e-01,9.99999e-01,9.97261e-01,9.63989e-01,9.99998e-01
8.752491287e-01,9.61151e-01,9.99999e-01,9.99999e-01,9.96337e-01,9.64688e-01,9.99995e-01
8.796253743e-01,9.60474e-01,9.99999e-01,9.99999e-01,9.94935e-01,9.65373e-01,9.99988e-01
8.840235012e-01,9.60425e-01,9.99999e-01,9.99999e-01,9.94216e-01,9.66045e-01,9.99964e-01
8.884436187e-01,9.46578e-01,9.99999e-01,9.99999e-01,9.79278e-01,9.66705e-01,9.99899e-01
8.928858368e-01,7.77325e-01,9.99999e-01,9.99999e-01,8.04025e-01,9.67351e-01,9.99420e-01
8.973502660e-01,6.57146e-01,9.99999e-01,9.99999e-01,6.80899e-01,9.67986e-01,9.97033e-01
9.018370173e-01,7.92074e-01,9.99999e-01,9.99999e-01,8.21572e-01,9.68608e-01,9.95339e-01
9.063462024e-01,8.11782e-01,9.99999e-01,9.99999e-01,8.41006e-01,9.69219e-01,9.95904e-01
9.108779334e-01,7.37154e-01,9.99999e-01,9.99999e-01,7.63342e-01,9.69817e-01,9.95744e-01
9.154323231e-01,7.10242e-01,9.99999e-01,9.99999e-01,7.34486e-01,9.70405e-01,9.96481e-01
9.200094847e-01,7.61785e-01,9.99999e-01,9.99999e-01,7.86101e-01,9.70981e-01,9.98029e-01
9.246095321e-01,6.77855e-01,9.99999e-01,9.99999e-01,6.99295e-01,9.71546e-01,9.97729e-01
9.292325798e-01,1.11308e-01,9.99999e-01,9.99999e-01,1.15522e-01,9.72100e-01,9.91175e-01
9.338787427e-01,5.42918e-02,9.99999e-01,9.99999e-01,5.79020e-02,9.72643e-01,9.64020e-01
9.385481364e-01,2.91182e-01,9.99999e-01,9.99999e-01,3.12536e-01,9.73176e-01,9.57355e-01
9.432408771e-01,2.02068e-01,9.99999e-01,9.99999e-01,2.15477e-01,9.73699e-01,9.63100e-01
9.479570815e-01,1.09176e-01,9.99999e-01,9.99999e-01,1.15548e-01,9.74212e-01,9.69863e-01
9.526968669e-01,1.77644e-01,9.99999e-01,9.99999e-01,1.85686e-01,9.74715e-01,9.81509e-01
9.574603512e-01,1.92532e-01,9.99999e-01,9.99999e-01,1.99307e-01,9.75208e-01,9.90564e-01
9.622476530e-01,2.52649e-01,9.99999e-01,9.99999e-01,2.60647e-01,9.75691e-01,9.93465e-01
9.670588912e-01,4.42856e-01,9.99999e-01,9.99999e-01,4.55706e-01,9.76166e-01,9.95526e-01
9.718941857e-01,5.84009e-01,9.99999e-01,9.99999e-01,5.99960e-01,9.76631e-01,9.96704e-01
9.767536566e-01,6.37122e-01,9.99999e-01,9.99999e-01,6.53708e-01,9.77087e-01,9.97480e-01
9.816374249e-01,7.10824e-01,9.99999e-01,9.99999e-01,7.27794e-01,9.77535e-01,9.99127e-01
9.865456120e-01,8.00953e-01,9.99999e-01,9.99999e-01,8.19140e-01,9.77973e-01,9.99817e-01
9.914783401e-01,8.64494e-01,9.99999e-01,9.99999e-01,8.83619e-01,9.78404e-01,9.99949e-01
9.964357318e-01,9.14990e-01,9.99999e-01,9.99999e-01,9.34810e-01,9.78826e-01,9.99970e-01
1.001417910e+00,9.40387e-01,9.99999e-01,9.99999e-01,9.60366e-01,9.79240e-01,9.99954e-01
1.006425000e+00,9.57263e-01,9.99999e-01,9.99999e-01,9.77214e-01,9.79646e-01,9.99935e-01
1.011457125e+00,9.66059e-01,9.99999e-01,9.99999e-01,9.85788e-01,9.80044e-01,9.99940e-01
1.016514411e+00,9.70916e-01,9.99999e-01,9.99999e-01,9.90333e-01,9.80434e-01,9.99957e-01
1.021596983e+00,9.73216e-01,9.99999e-01,9.99999e-01,9.92291e-01,9.80817e-01,9.99957e-01
1.026704968e+00,9.75262e-01,9.99999e-01,9.99999e-01,9.93984e-01,9.81192e-01,9.99971e-01
1.031838492e+00,9.77256e-01,9.99999e-01,9.99999e-01,9.95622e-01,9.81560e-01,9.99991e-01
1.036997685e+00,9.79366e-01,9.99999e-01,9.99999e-01,9.97399e-01,9.81921e-01,9.99998e-01
1.042182673e+00,9.79233e-01,9.99999e-01,9.99999e-01,9.96902e-01,9.82275e-01,9.99998e-01
1.047393587e+00,9.78585e-01,9.99999e-01,9.99999e-01,9.95892e-01,9.82622e-01,9.99998e-01
1.052630555e+00,9.77427e-01,9.99999e-01,9.99999e-01,9.94369e-01,9.82962e-01,9.99998e-01
1.057893707e+00,9.74072e-01,9.99999e-01,9.99999e-01,9.90622e-01,9.83296e-01,9.99996e-01
1.063183176e+00,9.68483e-01,9.99999e-01,9.99999e-01,9.84614e-01,9.83623e-01,9.99991e-01
1.068499092e+00,9.58708e-01,9.99999e-01,9.99999e-01,9.74368e-01,9.83944e-01,9.99982e-01
1.073841587e+00,9.54825e-01,9.99999e-01,9.99999e-01,9.70132e-01,9.84258e-01,9.99961e-01
1.079210795e+00,9.46870e-01,9.99999e-01,9.99999e-01,9.61811e-01,9.84567e-01,9.99895e-01
1.084606849e+00,9.28368e-01,9.99999e-01,9.99999e-01,9.42865e-01,9.84869e-01,9.99749e-01
1.090029883e+00,9.05215e-01,9.99999e-01,9.99999e-01,9.19320e-01,9.85166e-01,9.99482e-01
1.095480033e+00,7.83044e-01,9.99999e-01,9.99999e-01,7.95344e-01,9.85457e-01,9.99063e-01
1.100957433e+00,5.55239e-01,9.99999e-01,9.99999e-01,5.64241e-01,9.85742e-01,9.98277e-01
1.106462220e+00,2.47869e-01,9.99999e-01,9.99999e-01,2.52119e-01,9.86022e-01,9.97080e-01
1.111994531e+00,5.88774e-02,9.99999e-01,9.99999e-01,6.01604e-02,9.86296e-01,9.92269e-01
1.117554504e+00,1.25077e-02,9.99999e-01,9.99999e-01,1.30382e-02,9.86565e-01,9.72372e-01
1.123142276e+00,4.91368e-02,9.99999e-01,9.99999e-01,5.32131e-02,9.86828e-01,9.35721e-01
1.128757988e+00,1.12454e-01,9.99999e-01,9.99999e-01,1.23026e-01,9.87087e-01,9.26021e-01
1.134401778e+00,5.09341e-02,9.99999e-01,9.99999e-01,5.50710e-02,9.87340e-01,9.36737e-01
1.140073787e+00,2.49600e-01,9.99999e-01,9.99999e-01,2.66284e-01,9.87589e-01,9.49124e-01
1.145774156e+00,7.61219e-02,9.99999e-01,9.99999e-01,8.08320e-02,9.87832e-01,9.53328e-01
1.151503026e+00,5.90024e-02,9.99999e-01,9.99999e-01,6.13259e-02,9.88071e-01,9.73725e-01
1.157260541e+00,7.66150e-02,9.99999e-01,9.99999e-01,7.81411e-02,9.88305e-01,9.92070e-01
1.163046844e+00,1.46596e-01,9.99999e-01,9.99999e-01,1.48631e-01,9.88535e-01,9.97745e-01
1.168862078e+00,2.49091e-01,9.99999e-01,9.99999e-01,2.52215e-01,9.88760e-01,9.98837e-01
1.174706389e+00,4.20066e-01,9.99999e-01,9.99999e-01,4.25400e-01,9.88981e-01,9.98459e-01
1.180579921e+00,5.83697e-01,9.99999e-01,9.99999e-01,5.91447e-01,9.89197e-01,9.97672e-01
1.186482820e+00,7.31263e-01,9.99999e-01,9.99999e-01,7.40859e-01,9.89410e-01,9.97611e-01
1.192415234e+00,8.28632e-01,9.99999e-01,9.99999e-01,8.38826e-01,9.89618e-01,9.98210e-01
1.198377311e+00,8.52263e-01,9.99999e-01,9.99999e-01,8.62483e-01,9.89822e-01,9.98309e-01
1.204369197e+00,8.59911e-01,9.99999e-01,9.99999e-01,8.69907e-01,9.90022e-01,9.98470e-01
1.210391043e+00,8.65505e-01,9.99999e-01,9.99999e-01,8.74868e-01,9.90218e-01,9.99069e-01
1.216442998e+00,8.83387e-01,9.99999e-01,9.99999e-01,8.92448e-01,9.90410e-01,9.99429e-01
1.222525213e+00,9.06112e-01,9.99999e-01,9.99999e-01,9.15034e-01,9.90599e-01,9.99645e-01
1.228637839e+00,9.31362e-01,9.99999e-01,9.99999e-01,9.40179e-01,9.90784e-01,9.99834e-01
