#,Wave/freq,Total,N2,O2,H2O,Rayleigh,CIA
4.000000000e-01,8.23738e-01,9.99999e-01,9.99999e-01,9.99977e-01,8.23756e-01,9.99999e-01
4.020000000e-01,8.26908e-01,9.99999e-01,9.99999e-01,9.99985e-01,8.26919e-01,9.99999e-01
4.040100000e-01,8.30025e-01,9.99999e-01,9.99999e-01,9.99993e-01,8.30029e-01,9.99999e-01
4.060300500e-01,8.33088e-01,9.99999e-01,9.99999e-01,9.99998e-01,8.33089e-01,9.99999e-01
4.080602003e-01,8.36099e-01,9.99999e-01,9.99999e-01,9.99999e-01,8.36100e-01,9.99999e-01
4.101005013e-01,8.39061e-01,9.99999e-01,9.99999e-01,9.99999e-01,8.39061e-01,9.99999e-01
4.121510038e-01,8.41974e-01,9.99999e-01,9.99999e-01,9.99998e-01,8.41975e-01,9.99999e-01
4.142117588e-01,8.44835e-01,9.99999e-01,9.99999e-01,9.99993e-01,8.44840e-01,9.99999e-01
4.162828176e-01,8.47635e-01,9.99999e-01,9.99999e-01,9.99972e-01,8.47658e-01,9.99999e-01
4.183642317e-01,8.50417e-01,9.99999e-01,9.99999e-01,9.99983e-01,8.50430e-01,9.99999e-01
4.204560528e-01,8.53148e-01,9.99999e-01,9.99999e-01,9.99989e-01,8.53156e-01,9.99999e-01
4.225583331e-01,8.55833e-01,9.99999e-01,9.99999e-01,9.99995e-01,8.55837e-01,9.99999e-01
4.246711247e-01,8.58470e-01,9.99999e-01,9.99999e-01,9.99996e-01,8.58472e-01,9.99999e-01
4.267944804e-01,8.61060e-01,9.99999e-01,9.99999e-01,9.99995e-01,8.61064e-01,9.99999e-01
4.289284528e-01,8.63609e-01,9.99999e-01,9.99999e-01,9.99996e-01,8.63612e-01,9.99999e-01
4.310730950e-01,8.66115e-01,9.99999e-01,9.99999e-01,9.99998e-01,8.66117e-01,9.99999e-01
4.332284605e-01,8.68579e-01,9.99999e-01,9.99999e-01,9.99999e-01,8.68579e-01,9.99999e-01
4.353946028e-01,8.71000e-01,9.99999e-01,9.99999e-01,9.99999e-01,8.71000e-01,9.99999e-01
4.375715758e-01,8.73377e-01,9.99999e-01,9.99999e-01,9.99996e-01,8.73379e-01,9.99999e-01
4.397594337e-01,8.75697e-01,9.99999e-01,9.99999e-01,9.99975e-01,8.75718e-01,9.99999e-01
4.419582309e-01,8.77910e-01,9.99999e-01,9.99999e-01,9.99877e-01,8.78016e-01,9.99999e-01
4.441680220e-01,8.80193e-01,9.99999e-01,9.99999e-01,9.99905e-01,8.80276e-01,9.99999e-01
4.463888621e-01,8.82409e-01,9.99999e-01,9.99999e-01,9.99901e-01,8.82496e-01,9.99999e-01
4.486208064e-01,8.84623e-01,9.99999e-01,9.99999e-01,9.99938e-01,8.84677e-01,9.99999e-01
4.508639105e-01,8.86796e-01,9.99999e-01,9.99999e-01,9.99971e-01,8.86821e-01,9.99999e-01
4.531182300e-01,8.88917e-01,9.99999e-01,9.99999e-01,9.99988e-01,8.88927e-01,9.99999e-01
4.553838212e-01,8.90990e-01,9.99999e-01,9.99999e-01,9.99991e-01,8.90997e-01,9.99999e-01
4.576607403e-01,8.93028e-01,9.99999e-01,9.99999e-01,9.99995e-01,8.93031e-01,9.99999e-01
4.599490440e-01,8.95026e-01,9.99999e-01,9.99999e-01,9.99997e-01,8.95029e-01,9.99999e-01
4.622487892e-01,8.96991e-01,9.99999e-01,9.99999e-01,9.99999e-01,8.96991e-01,9.99999e-01
4.645600332e-01,8.98918e-01,9.99999e-01,9.99999e-01,9.99997e-01,8.98919e-01,9.99999e-01
4.668828333e-01,9.00787e-01,9.99999e-01,9.99999e-01,9.99970e-01,9.00813e-01,9.99999e-01
4.692172475e-01,9.02619e-01,9.99999e-01,9.99999e-01,9.99937e-01,9.02674e-01,9.99999e-01
4.715633337e-01,9.04465e-01,9.99999e-01,9.99999e-01,9.99959e-01,9.04502e-01,9.99999e-01
4.739211504e-01,9.06262e-01,9.99999e-01,9.99999e-01,9.99961e-01,9.06297e-01,9.99999e-01
4.762907561e-01,9.08041e-01,9.99999e-01,9.99999e-01,9.99979e-01,9.08060e-01,9.99999e-01
4.786722099e-01,9.09784e-01,9.99999e-01,9.99999e-01,9.99991e-01,9.09791e-01,9.99999e-01
4.810655710e-01,9.11489e-01,9.99999e-01,9.99999e-01,9.99997e-01,9.11492e-01,9.99999e-01
4.834708988e-01,9.13140e-01,9.99999e-01,9.99999e-01,9.99975e-01,9.13162e-01,9.99999e-01
4.858882533e-01,9.14762e-01,9.99999e-01,9.99999e-01,9.99956e-01,9.14802e-01,9.99999e-01
4.883176946e-01,9.16379e-01,9.99999e-01,9.99999e-01,9.99963e-01,9.16412e-01,9.99999e-01
4.907592831e-01,9.17963e-01,9.99999e-01,9.99999e-01,9.99966e-01,9.17993e-01,9.99999e-01
4.932130795e-01,9.19525e-01,9.99999e-01,9.99999e-01,9.99976e-01,9.19546e-01,9.99999e-01
4.956791449e-01,9.21060e-01,9.99999e-01,9.99999e-01,9.99987e-01,9.21071e-01,9.99999e-01
4.981575406e-01,9.22511e-01,9.99999e-01,9.99999e-01,9.99937e-01,9.22568e-01,9.99999e-01
5.006483283e-01,9.23888e-01,9.99999e-01,9.99999e-01,9.99838e-01,9.24038e-01,9.99998e-01
5.031515699e-01,9.24720e-01,9.99999e-01,9.99999e-01,9.99185e-01,9.25481e-01,9.99990e-01
5.056673278e-01,9.26491e-01,9.99999e-01,9.99999e-01,9.99570e-01,9.26898e-01,9.99989e-01
5.081956644e-01,9.27781e-01,9.99999e-01,9.99999e-01,9.99458e-01,9.28288e-01,9.99993e-01
5.107366428e-01,9.29314e-01,9.99999e-01,9.99999e-01,9.99634e-01,9.29654e-01,9.99998e-01
5.132903260e-01,9.30800e-01,9.99999e-01,9.99999e-01,9.99791e-01,9.30994e-01,9.99999e-01
5.158567776e-01,9.32228e-01,9.99999e-01,9.99999e-01,9.99911e-01,9.32310e-01,9.99999e-01
5.184360615e-01,9.33569e-01,9.99999e-01,9.99999e-01,9.99964e-01,9.33602e-01,9.99999e-01
5.210282418e-01,9.34857e-01,9.99999e-01,9.99999e-01,9.99986e-01,9.34870e-01,9.99999e-01
5.236333830e-01,9.36064e-01,9.99999e-01,9.99999e-01,9.99946e-01,9.36114e-01,9.99999e-01
5.262515499e-01,9.37304e-01,9.99999e-01,9.99999e-01,9.99966e-01,9.37335e-01,9.99998e-01
5.288828077e-01,9.38506e-01,9.99999e-01,9.99999e-01,9.99969e-01,9.38534e-01,9.99999e-01
5.315272217e-01,9.39686e-01,9.99999e-01,9.99999e-01,9.99972e-01,9.39711e-01,9.99999e-01
5.341848578e-01,9.40850e-01,9.99999e-01,9.99999e-01,9.99981e-01,9.40866e-01,9.99999e-01
5.368557821e-01,9.41941e-01,9.99999e-01,9.99999e-01,9.99937e-01,9.41999e-01,9.99999e-01
5.395400610e-01,9.42899e-01,9.99999e-01,9.99999e-01,9.99775e-01,9.43112e-01,9.99997e-01
5.422377613e-01,9.43927e-01,9.99999e-01,9.99999e-01,9.99712e-01,9.44204e-01,9.99994e-01
5.449489501e-01,9.45016e-01,9.99999e-01,9.99999e-01,9.99731e-01,9.45275e-01,9.99994e-01
5.476736949e-01,9.46100e-01,9.99999e-01,9.99999e-01,9.99762e-01,9.46326e-01,9.99996e-01
5.504120634e-01,9.47195e-01,9.99999e-01,9.99999e-01,9.99827e-01,9.47358e-01,9.99998e-01
5.531641237e-01,9.48289e-01,9.99999e-01,9.99999e-01,9.99913e-01,9.48371e-01,9.99999e-01
5.559299443e-01,9.49325e-01,9.99999e-01,9.99999e-01,9.99957e-01,9.49364e-01,9.99999e-01
5.587095940e-01,9.50314e-01,9.99999e-01,9.99999e-01,9.99973e-01,9.50339e-01,9.99999e-01
5.615031420e-01,9.51268e-01,9.99999e-01,9.99999e-01,9.99970e-01,9.51296e-01,9.99999e-01
5.643106577e-01,9.52202e-01,9.99999e-01,9.99999e-01,9.99966e-01,9.52234e-01,9.99999e-01
5.671322110e-01,9.52765e-01,9.99999e-01,9.99999e-01,9.99594e-01,9.53155e-01,9.99995e-01
5.699678720e-01,9.53642e-01,9.99999e-01,9.99999e-01,9.99573e-01,9.54059e-01,9.99988e-01
5.728177114e-01,9.54511e-01,9.99999e-01,9.99999e-01,9.99553e-01,9.54946e-01,9.99990e-01
5.756818000e-01,9.55420e-01,9.99999e-01,9.99999e-01,9.99590e-01,9.55816e-01,9.99994e-01
5.785602090e-01,9.56327e-01,9.99999e-01,9.99999e-01,9.99643e-01,9.56669e-01,9.99997e-01
5.814530100e-01,9.57163e-01,9.99999e-01,9.99999e-01,9.99641e-01,9.57507e-01,9.99998e-01
5.843602750e-01,9.57916e-01,9.99999e-01,9.99999e-01,9.99571e-01,9.58328e-01,9.99997e-01
5.872820764e-01,9.55574e-01,9.99999e-01,9.99999e-01,9.96313e-01,9.59134e-01,9.99973e-01
5.902184868e-01,9.55589e-01,9.99999e-01,9.99999e-01,9.95552e-01,9.59925e-01,9.99929e-01
5.931695792e-01,9.57612e-01,9.99999e-01,9.99999e-01,9.96852e-01,9.60701e-01,9.99931e-01
5.961354271e-01,9.58111e-01,9.99999e-01,9.99999e-01,9.96553e-01,9.61462e-01,9.99960e-01
5.991161043e-01,9.59779e-01,9.99999e-01,9.99999e-01,9.97486e-01,9.62209e-01,9.99987e-01
6.021116848e-01,9.61567e-01,9.99999e-01,9.99999e-01,9.98574e-01,9.62941e-01,9.99998e-01
6.051222432e-01,9.62964e-01,9.99999e-01,9.99999e-01,9.99278e-01,9.63659e-01,9.99999e-01
6.081478544e-01,9.64064e-01,9.99999e-01,9.99999e-01,9.99688e-01,9.64364e-01,9.99999e-01
6.111885937e-01,9.64929e-01,9.99999e-01,9.99999e-01,9.99868e-01,9.65056e-01,9.99999e-01
6.142445367e-01,9.65677e-01,9.99999e-01,9.99999e-01,9.99940e-01,9.65734e-01,9.99999e-01
6.173157594e-01,9.66368e-01,9.99999e-01,9.99999e-01,9.99967e-01,9.66399e-01,9.99999e-01
6.204023382e-01,9.67025e-01,9.99999e-01,9.99999e-01,9.99972e-01,9.67052e-01,9.99999e-01
6.235043498e-01,9.67574e-01,9.99999e-01,9.99999e-01,9.99877e-01,9.67692e-01,9.99999e-01
6.266218716e-01,9.67695e-01,9.99999e-01,9.99999e-01,9.99358e-01,9.68320e-01,9.99995e-01
6.297549810e-01,9.68700e-01,9.99999e-01,9.99999e-01,9.99764e-01,9.68936e-01,9.99990e-01
6.329037559e-01,9.69083e-01,9.99999e-01,9.99999e-01,9.99535e-01,9.69540e-01,9.99992e-01
6.360682746e-01,9.69744e-01,9.99999e-01,9.99999e-01,9.99603e-01,9.70133e-01,9.99995e-01
6.392486160e-01,9.70214e-01,9.99999e-01,9.99999e-01,9.99486e-01,9.70714e-01,9.99997e-01
6.424448591e-01,9.70612e-01,9.99999e-01,9.99999e-01,9.99311e-01,9.71284e-01,9.99996e-01
6.456570834e-01,9.68720e-01,9.99999e-01,9.99999e-01,9.96805e-01,9.71843e-01,9.99980e-01
6.488853688e-01,9.70079e-01,9.99999e-01,9.99999e-01,9.97670e-01,9.72391e-01,9.99950e-01
6.521297956e-01,9.70580e-01,9.99999e-01,9.99999e-01,9.97625e-01,9.72929e-01,9.99958e-01
6.553904446e-01,9.71123e-01,9.99999e-01,9.99999e-01,9.97632e-01,9.73457e-01,9.99969e-01
6.586673968e-01,9.71993e-01,9.99999e-01,9.99999e-01,9.97975e-01,9.73974e-01,9.99989e-01
6.619607338e-01,9.73381e-01,9.99999e-01,9.99999e-01,9.98871e-01,9.74482e-01,9.99997e-01
6.652705375e-01,9.74318e-01,9.99999e-01,9.99999e-01,9.99322e-01,9.74979e-01,9.99998e-01
6.685968902e-01,9.75187e-01,9.99999e-01,9.99999e-01,9.99711e-01,9.75467e-01,9.99999e-01
6.719398746e-01,9.75804e-01,9.99999e-01,9.99999e-01,9.99854e-01,9.75946e-01,9.99999e-01
6.752995740e-01,9.76338e-01,9.99999e-01,9.99999e-01,9.99920e-01,9.76416e-01,9.99999e-01
6.786760719e-01,9.76764e-01,9.99999e-01,9.99999e-01,9.99885e-01,9.76876e-01,9.99999e-01
6.820694522e-01,9.77135e-01,9.99999e-01,9.99999e-01,9.99804e-01,9.77328e-01,9.99998e-01
6.854797995e-01,9.77522e-01,9.99999e-01,9.99999e-01,9.99747e-01,9.77770e-01,9.99997e-01
6.889071985e-01,9.77598e-01,9.99999e-01,9.99999e-01,9.99384e-01,9.78205e-01,9.99994e-01
6.923517345e-01,9.68831e-01,9.99999e-01,9.99999e-01,9.90032e-01,9.78630e-01,9.99951e-01
6.958134932e-01,9.73905e-01,9.99999e-01,9.99999e-01,9.94851e-01,9.79048e-01,9.99893e-01
6.992925606e-01,9.74533e-01,9.99999e-01,9.99999e-01,9.95066e-01,9.79458e-01,9.99904e-01
7.027890234e-01,9.73843e-01,9.99999e-01,9.99999e-01,9.93931e-01,9.79859e-01,9.99926e-01
7.063029686e-01,9.75214e-01,9.99999e-01,9.99999e-01,9.94894e-01,9.80253e-01,9.99963e-01
7.098344834e-01,9.75815e-01,9.99999e-01,9.99999e-01,9.95101e-01,9.80639e-01,9.99978e-01
7.133836558e-01,9.74543e-01,9.99999e-01,9.99999e-01,9.93441e-01,9.81018e-01,9.99956e-01
7.169505741e-01,9.30515e-01,9.99999e-01,9.99999e-01,9.48478e-01,9.81389e-01,9.99664e-01
7.205353270e-01,9.56305e-01,9.99999e-01,9.99999e-01,9.74653e-01,9.81754e-01,9.99408e-01
7.241380036e-01,9.49913e-01,9.99999e-01,9.99999e-01,9.67708e-01,9.82111e-01,9.99489e-01
7.277586936e-01,9.53402e-01,9.99999e-01,9.99999e-01,9.70826e-01,9.82461e-01,9.99582e-01
7.313974871e-01,9.52245e-01,9.99999e-01,9.99999e-01,9.69095e-01,9.82804e-01,9.99804e-01
7.350544745e-01,9.66359e-01,9.99999e-01,9.99999e-01,9.82995e-01,9.83141e-01,9.99931e-01
7.387297469e-01,9.71116e-01,9.99999e-01,9.99999e-01,9.87467e-01,9.83471e-01,9.99968e-01
7.424233956e-01,9.77747e-01,9.99999e-01,9.99999e-01,9.93856e-01,9.83795e-01,9.99994e-01
7.461355126e-01,9.80443e-01,9.99999e-01,9.99999e-01,9.96271e-01,9.84113e-01,9.99998e-01
7.498661902e-01,9.82716e-01,9.99999e-01,9.99999e-01,9.98264e-01,9.84424e-01,9.99999e-01
7.536155211e-01,9.83890e-01,9.99999e-01,9.99999e-01,9.99147e-01,9.84729e-01,9.99999e-01
7.573835987e-01,9.84597e-01,9.99999e-01,9.99999e-01,9.99561e-01,9.85029e-01,9.99999e-01
7.611705167e-01,9.85054e-01,9.99999e-01,9.99999e-01,9.99727e-01,9.85322e-01,9.99999e-01
7.649763693e-01,9.85442e-01,9.99999e-01,9.99999e-01,9.99828e-01,9.85610e-01,9.99999e-01
7.688012511e-01,9.85775e-01,9.99999e-01,9.99999e-01,9.99880e-01,9.85892e-01,9.99999e-01
7.726452574e-01,9.86072e-01,9.99999e-01,9.99999e-01,9.99901e-01,9.86169e-01,9.99999e-01
7.765084837e-01,9.86302e-01,9.99999e-01,9.99999e-01,9.99859e-01,9.86440e-01,9.99999e-01
7.803910261e-01,9.86110e-01,9.99999e-01,9.99999e-01,9.99395e-01,9.86706e-01,9.99998e-01
7.842929812e-01,9.84882e-01,9.99999e-01,9.99999e-01,9.97890e-01,9.86967e-01,9.99995e-01
7.882144461e-01,9.82923e-01,9.99999e-01,9.99999e-01,9.95673e-01,9.87223e-01,9.99969e-01
7.921555184e-01,9.85084e-01,9.99999e-01,9.99999e-01,9.97630e-01,9.87474e-01,9.99947e-01
7.961162960e-01,9.83519e-01,9.99999e-01,9.99999e-01,9.95795e-01,9.87720e-01,9.99950e-01
8.000968774e-01,9.83125e-01,9.99999e-01,9.99999e-01,9.95156e-01,9.87961e-01,9.99947e-01
8.040973618e-01,9.83368e-01,9.99999e-01,9.99999e-01,9.95152e-01,9.88197e-01,9.99959e-01
8.081178486e-01,9.77586e-01,9.99999e-01,9.99999e-01,9.89069e-01,9.88429e-01,9.99959e-01
8.121584379e-01,9.44229e-01,9.99999e-01,9.99999e-01,9.55208e-01,9.88656e-01,9.99846e-01
8.162192301e-01,9.36173e-01,9.99999e-01,9.99999e-01,9.47245e-01,9.88879e-01,9.99424e-01
8.203003262e-01,9.61910e-01,9.99999e-01,9.99999e-01,9.73167e-01,9.89097e-01,9.99326e-01
8.244018279e-01,9.52258e-01,9.99999e-01,9.99999e-01,9.63061e-01,9.89311e-01,9.99464e-01
8.285238370e-01,9.57567e-01,9.99999e-01,9.99999e-01,9.68114e-01,9.89521e-01,9.99578e-01
8.326664562e-01,9.57715e-01,9.99999e-01,9.99999e-01,9.67823e-01,9.89727e-01,9.99825e-01
8.368297885e-01,9.67064e-01,9.99999e-01,9.99999e-01,9.76940e-01,9.89929e-01,9.99959e-01
8.410139374e-01,9.76484e-01,9.99999e-01,9.99999e-01,9.86243e-01,9.90127e-01,9.99976e-01
8.452190071e-01,9.83611e-01,9.99999e-01,9.99999e-01,9.93237e-01,9.90321e-01,9.99985e-01
8.494451021e-01,9.86605e-01,9.99999e-01,9.99999e-01,9.96066e-01,9.90511e-01,9.99988e-01
8.536923276e-01,9.88389e-01,9.99999e-01,9.99999e-01,9.97675e-01,9.90698e-01,9.99992e-01
8.579607893e-01,9.89459e-01,9.99999e-01,9.99999e-01,9.98566e-01,9.90881e-01,9.99997e-01
8.622505932e-01,9.90158e-01,9.99999e-01,9.99999e-01,9.99089e-01,9.91060e-01,9.99999e-01
8.665618462e-01,9.90677e-01,9.99999e-01,9.99999e-01,9.99436e-01,9.91236e-01,9.99999e-01
8.708946554e-01,9.90768e-01,9.99999e-01,9.99999e-01,9.99353e-01,9.91408e-01,9.99999e-01
8.752491287e-01,9.90720e-01,9.99999e-01,9.99999e-01,9.99135e-01,9.91577e-01,9.99998e-01
8.796253743e-01,9.90553e-01,9.99999e-01,9.99999e-01,9.98802e-01,9.91743e-01,9.99996e-01
8.840235012e-01,9.90541e-01,9.99999e-01,9.99999e-01,9.98632e-01,9.91905e-01,9.99991e-01
8.884436187e-01,9.87061e-01,9.99999e-01,9.99999e-01,9.94979e-01,9.92065e-01,9.99975e-01
8.928858368e-01,9.41016e-01,9.99999e-01,9.99999e-01,9.48522e-01,9.92221e-01,9.99863e-01
8.973502660e-01,9.03458e-01,9.99999e-01,9.99999e-01,9.11037e-01,9.92374e-01,9.99300e-01
9.018370173e-01,9.45524e-01,9.99999e-01,9.99999e-01,9.53693e-01,9.92524e-01,9.98900e-01
9.063462024e-01,9.50936e-01,9.99999e-01,9.99999e-01,9.58881e-01,9.92671e-01,9.99034e-01
9.108779334e-01,9.29077e-01,9.99999e-01,9.99999e-01,9.36739e-01,9.92815e-01,9.98996e-01
9.154323231e-01,9.21209e-01,9.99999e-01,9.99999e-01,9.28513e-01,9.92957e-01,9.99170e-01
9.200094847e-01,9.36672e-01,9.99999e-01,9.99999e-01,9.43622e-01,9.93095e-01,9.99535e-01
9.246095321e-01,9.05928e-01,9.99999e-01,9.99999e-01,9.12589e-01,9.93231e-01,9.99464e-01
9.292325798e-01,5.40660e-01,9.99999e-01,9.99999e-01,5.45408e-01,9.93364e-01,9.97915e-01
9.338787427e-01,4.52329e-01,9.99999e-01,9.99999e-01,4.59234e-01,9.93495e-01,9.91412e-01
9.385481364e-01,7.18435e-01,9.99999e-01,9.99999e-01,7.30500e-01,9.93623e-01,9.89794e-01
9.432408771e-01,6.36298e-01,9.99999e-01,9.99999e-01,6.45992e-01,9.93749e-01,9.91189e-01
9.479570815e-01,5.41229e-01,9.99999e-01,9.99999e-01,5.48502e-01,9.93872e-01,9.92823e-01
9.526968669e-01,6.30399e-01,9.99999e-01,9.99999e-01,6.37000e-01,9.93992e-01,9.95616e-01
9.574603512e-01,6.53547e-01,9.99999e-01,9.99999e-01,6.58887e-01,9.94111e-01,9.97770e-01
9.622476530e-01,7.06841e-01,9.99999e-01,9.99999e-01,7.12043e-01,9.94227e-01,9.98457e-01
9.670588912e-01,8.16499e-01,9.99999e-01,9.99999e-01,8.22012e-01,9.94340e-01,9.98944e-01
9.718941857e-01,8.78869e-01,9.99999e-01,9.99999e-01,8.84458e-01,9.94452e-01,9.99223e-01
9.767536566e-01,8.97639e-01,9.99999e-01,9.99999e-01,9.03083e-01,9.94561e-01,9.99406e-01
9.816374249e-01,9.22173e-01,9.99999e-01,9.99999e-01,9.27306e-01,9.94668e-01,9.99794e-01
9.865456120e-01,9.48924e-01,9.99999e-01,9.99999e-01,9.53950e-01,9.94773e-01,9.99956e-01
9.914783401e-01,9.66290e-01,9.99999e-01,9.99999e-01,9.71277e-01,9.94876e-01,9.99987e-01
9.964357318e-01,9.79309e-01,9.99999e-01,9.99999e-01,9.84259e-01,9.94977e-01,9.99992e-01
1.001417910e+00,9.85652e-01,9.99999e-01,9.99999e-01,9.90539e-01,9.95076e-01,9.99988e-01
1.006425000e+00,9.89777e-01,9.99999e-01,9.99999e-01,9.94592e-01,9.95173e-01,9.99984e-01
1.011457125e+00,9.91915e-01,9.99999e-01,9.99999e-01,9.96644e-01,9.95268e-01,9.99985e-01
1.016514411e+00,9.93082e-01,9.99999e-01,9.99999e-01,9.97719e-01,9.95361e-01,9.99989e-01
1.021596983e+00,9.93634e-01,9.99999e-01,9.99999e-01,9.98181e-01,9.95453e-01,9.99989e-01
1.026704968e+00,9.94125e-01,9.99999e-01,9.99999e-01,9.98581e-01,9.95542e-01,9.99993e-01
1.031838492e+00,9.94603e-01,9.99999e-01,9.99999e-01,9.98969e-01,9.95630e-01,9.99997e-01
1.036997685e+00,9.95106e-01,9.99999e-01,9.99999e-01,9.99387e-01,9.95716e-01,9.99999e-01
1.042182673e+00,9.95073e-01,9.99999e-01,9.99999e-01,9.99268e-01,9.95801e-01,9.99999e-01
1.047393587e+00,9.94919e-01,9.99999e-01,9.99999e-01,9.99030e-01,9.95883e-01,9.99999e-01
1.052630555e+00,9.94640e-01,9.99999e-01,9.99999e-01,9.98669e-01,9.95965e-01,9.99999e-01
1.057893707e+00,9.93831e-01,9.99999e-01,9.99999e-01,9.97778e-01,9.96044e-01,9.99998e-01
1.063183176e+00,9.92483e-01,9.99999e-01,9.99999e-01,9.96347e-01,9.96122e-01,9.99997e-01
1.068499092e+00,9.90112e-01,9.99999e-01,9.99999e-01,9.93893e-01,9.96198e-01,9.99995e-01
1.073841587e+00,9.89142e-01,9.99999e-01,9.99999e-01,9.92850e-01,9.96273e-01,9.99990e-01
1.079210795e+00,9.87215e-01,9.99999e-01,9.99999e-01,9.90858e-01,9.96347e-01,9.99975e-01
1.084606849e+00,9.82592e-01,9.99999e-01,9.99999e-01,9.86181e-01,9.96419e-01,9.99940e-01
1.090029883e+00,9.76598e-01,9.99999e-01,9.99999e-01,9.80157e-01,9.96489e-01,9.99877e-01
1.095480033e+00,9.43424e-01,9.99999e-01,9.99999e-01,9.46889e-01,9.96559e-01,9.99779e-01
1.100957433e+00,8.67265e-01,9.99999e-01,9.99999e-01,8.70552e-01,9.96627e-01,9.99594e-01
1.106462220e+00,7.00838e-01,9.99999e-01,9.99999e-01,7.03647e-01,9.96693e-01,9.99311e-01
1.111994531e+00,4.77256e-01,9.99999e-01,9.99999e-01,4.79683e-01,9.96758e-01,9.98174e-01
1.117554504e+00,3.03347e-01,9.99999e-01,9.99999e-01,3.06327e-01,9.96822e-01,9.93427e-01
1.123142276e+00,4.15862e-01,9.99999e-01,9.99999e-01,4.23735e-01,9.96885e-01,9.84484e-01
1.128757988e+00,5.61020e-01,9.99999e-01,9.99999e-01,5.73010e-01,9.96946e-01,9.82072e-01
1.134401778e+00,3.11694e-01,9.99999e-01,9.99999e-01,3.17475e-01,9.97006e-01,9.84735e-01
1.140073787e+00,7.04714e-01,9.99999e-01,9.99999e-01,7.15527e-01,9.97065e-01,9.87785e-01
1.145774156e+00,4.93671e-01,9.99999e-01,9.99999e-01,5.00696e-01,9.97123e-01,9.88813e-01
1.151503026e+00,4.59421e-01,9.99999e-01,9.99999e-01,4.63616e-01,9.97180e-01,9.93752e-01
1.157260541e+00,5.20792e-01,9.99999e-01,9.99999e-01,5.23215e-01,9.97236e-01,9.98127e-01
1.163046844e+00,6.17328e-01,9.99999e-01,9.99999e-01,6.19334e-01,9.97290e-01,9.99468e-01
1.168862078e+00,7.14036e-01,9.99999e-01,9.99999e-01,7.16133e-01,9.97344e-01,9.99725e-01
1.174706389e+00,8.11328e-01,9.99999e-01,9.99999e-01,8.13740e-01,9.97396e-01,9.99636e-01
1.180579921e+00,8.79283e-01,9.99999e-01,9.99999e-01,8.82016e-01,9.97447e-01,9.99451e-01
1.186482820e+00,9.28618e-01,9.99999e-01,9.99999e-01,9.31471e-01,9.97498e-01,9.99436e-01
1.192415234e+00,9.56650e-01,9.99999e-01,9.99999e-01,9.59406e-01,9.97547e-01,9.99578e-01
1.198377311e+00,9.62947e-01,9.99999e-01,9.99999e-01,9.65651e-01,9.97595e-01,9.99601e-01
1.204369197e+00,9.64856e-01,9.99999e-01,9.99999e-01,9.67483e-01,9.97643e-01,9.99639e-01
1.210391043e+00,9.66433e-01,9.99999e-01,9.99999e-01,9.68883e-01,9.97689e-01,9.99780e-01
1.216442998e+00,9.71157e-01,9.99999e-01,9.99999e-01,9.73491e-01,9.97735e-01,9.99865e-01
1.222525213e+00,9.77041e-01,9.99999e-01,9.99999e-01,9.79296e-01,9.97780e-01,9.99916e-01
1.228637839e+00,9.83393e-01,9.99999e-01,9.99999e-01,9.85575e-01,9.97823e-01,9.99960e-01
