#,Wave/freq,Total,N2,O2,H2O,Rayleigh,CIA
4.000000000e-01,6.18705e-01,9.99999e-01,9.99999e-01,9.99945e-01,6.18739e-01,9.99999e-01
4.020000000e-01,6.24619e-01,9.99999e-01,9.99999e-01,9.99965e-01,6.24640e-01,9.99999e-01
4.040100000e-01,6.30464e-01,9.99999e-01,9.99999e-01,9.99985e-01,6.30473e-01,9.99999e-01
4.060300500e-01,6.36242e-01,9.99999e-01,9.99999e-01,9.99996e-01,6.36244e-01,9.99999e-01
4.080602003e-01,6.41951e-01,9.99999e-01,9.99999e-01,9.99998e-01,6.41952e-01,9.99999e-01
4.101005013e-01,6.47597e-01,9.99999e-01,9.99999e-01,9.99999e-01,6.47597e-01,9.99999e-01
4.121510038e-01,6.53178e-01,9.99999e-01,9.99999e-01,9.99997e-01,6.53179e-01,9.99999e-01
4.142117588e-01,6.58687e-01,9.99999e-01,9.99999e-01,9.99984e-01,6.58697e-01,9.99999e-01
4.162828176e-01,6.64107e-01,9.99999e-01,9.99999e-01,9.99932e-01,6.64151e-01,9.99999e-01
4.183642317e-01,6.69515e-01,9.99999e-01,9.99999e-01,9.99959e-01,6.69542e-01,9.99999e-01
4.204560528e-01,6.74852e-01,9.99999e-01,9.99999e-01,9.99975e-01,6.74868e-01,9.99999e-01
4.225583331e-01,6.80125e-01,9.99999e-01,9.99999e-01,9.99990e-01,6.80131e-01,9.99999e-01
4.246711247e-01,6.85324e-01,9.99999e-01,9.99999e-01,9.99992e-01,6.85329e-01,9.99999e-01
4.267944804e-01,6.90456e-01,9.99999e-01,9.99999e-01,9.99988e-01,6.90463e-01,9.99999e-01
4.289284528e-01,6.95527e-01,9.99999e-01,9.99999e-01,9.99991e-01,6.95533e-01,9.99999e-01
4.310730950e-01,7.00537e-01,9.99999e-01,9.99999e-01,9.99995e-01,7.00539e-01,9.99999e-01
4.332284605e-01,7.05481e-01,9.99999e-01,9.99999e-01,9.99998e-01,7.05481e-01,9.99999e-01
4.353946028e-01,7.10359e-01,9.99999e-01,9.99999e-01,9.99999e-01,7.10360e-01,9.99999e-01
4.375715758e-01,7.15170e-01,9.99999e-01,9.99999e-01,9.99992e-01,7.15174e-01,9.99999e-01
4.397594337e-01,7.19883e-01,9.99999e-01,9.99999e-01,9.99940e-01,7.19926e-01,9.99999e-01
4.419582309e-01,7.24396e-01,9.99999e-01,9.99999e-01,9.99699e-01,7.24614e-01,9.99999e-01
4.441680220e-01,7.29069e-01,9.99999e-01,9.99999e-01,9.99766e-01,7.29239e-01,9.99999e-01
4.463888621e-01,7.33623e-01,9.99999e-01,9.99999e-01,9.99756e-01,7.33801e-01,9.99999e-01
4.486208064e-01,7.38190e-01,9.99999e-01,9.99999e-01,9.99848e-01,7.38301e-01,9.99999e-01
4.508639105e-01,7.42687e-01,9.99999e-01,9.99999e-01,9.99928e-01,7.42739e-01,9.99999e-01
4.531182300e-01,7.47095e-01,9.99999e-01,9.99999e-01,9.99971e-01,7.47115e-01,9.99999e-01
4.553838212e-01,7.51416e-01,9.99999e-01,9.99999e-01,9.99980e-01,7.51430e-01,9.99999e-01
4.576607403e-01,7.55677e-01,9.99999e-01,9.99999e-01,9.99990e-01,7.55684e-01,9.99999e-01
4.599490440e-01,7.59872e-01,9.99999e-01,9.99999e-01,9.99993e-01,7.59877e-01,9.99999e-01
4.622487892e-01,7.64009e-01,9.99999e-01,9.99999e-01,9.99998e-01,7.64009e-01,9.99999e-01
4.645600332e-01,7.68079e-01,9.99999e-01,9.99999e-01,9.99995e-01,7.68082e-01,9.99999e-01
4.668828333e-01,7.72041e-01,9.99999e-01,9.99999e-01,9.99928e-01,7.72096e-01,9.99999e-01
4.692172475e-01,7.75932e-01,9.99999e-01,9.99999e-01,9.99847e-01,7.76051e-01,9.99999e-01
4.715633337e-01,7.79869e-01,9.99999e-01,9.99999e-01,9.99899e-01,7.79947e-01,9.99999e-01
4.739211504e-01,7.83710e-01,9.99999e-01,9.99999e-01,9.99904e-01,7.83785e-01,9.99999e-01
4.762907561e-01,7.87527e-01,9.99999e-01,9.99999e-01,9.99950e-01,7.87566e-01,9.99999e-01
4.786722099e-01,7.91274e-01,9.99999e-01,9.99999e-01,9.99979e-01,7.91289e-01,9.99999e-01
4.810655710e-01,7.94952e-01,9.99999e-01,9.99999e-01,9.99993e-01,7.94957e-01,9.99999e-01
4.834708988e-01,7.98521e-01,9.99999e-01,9.99999e-01,9.99940e-01,7.98568e-01,9.99999e-01
4.858882533e-01,8.02038e-01,9.99999e-01,9.99999e-01,9.99891e-01,8.02124e-01,9.99999e-01
4.883176946e-01,8.05552e-01,9.99999e-01,9.99999e-01,9.99909e-01,8.05625e-01,9.99999e-01
4.907592831e-01,8.09006e-01,9.99999e-01,9.99999e-01,9.99917e-01,8.09072e-01,9.99999e-01
4.932130795e-01,8.12418e-01,9.99999e-01,9.99999e-01,9.99941e-01,8.12465e-01,9.99999e-01
4.956791449e-01,8.15780e-01,9.99999e-01,9.99999e-01,9.99968e-01,8.15805e-01,9.99999e-01
4.981575406e-01,8.18966e-01,9.99999e-01,9.99999e-01,9.99846e-01,8.19092e-01,9.99999e-01
5.006483283e-01,8.21997e-01,9.99999e-01,9.99999e-01,9.99601e-01,8.22327e-01,9.99996e-01
5.031515699e-01,8.23831e-01,9.99999e-01,9.99999e-01,9.97986e-01,8.25510e-01,9.99978e-01
5.056673278e-01,8.27743e-01,9.99999e-01,9.99999e-01,9.98937e-01,8.28643e-01,9.99975e-01
5.081956644e-01,8.30598e-01,9.99999e-01,9.99999e-01,9.98660e-01,8.31725e-01,9.99983e-01
5.107366428e-01,8.34000e-01,9.99999e-01,9.99999e-01,9.99095e-01,8.34758e-01,9.99996e-01
5.132903260e-01,8.37308e-01,9.99999e-01,9.99999e-01,9.99482e-01,8.37741e-01,9.99999e-01
5.158567776e-01,8.40493e-01,9.99999e-01,9.99999e-01,9.99781e-01,8.40676e-01,9.99999e-01
5.184360615e-01,8.43489e-01,9.99999e-01,9.99999e-01,9.99912e-01,8.43563e-01,9.99999e-01
5.210282418e-01,8.46374e-01,9.99999e-01,9.99999e-01,9.99966e-01,8.46402e-01,9.99999e-01
5.236333830e-01,8.49082e-01,9.99999e-01,9.99999e-01,9.99868e-01,8.49195e-01,9.99998e-01
5.262515499e-01,8.51870e-01,9.99999e-01,9.99999e-01,9.99917e-01,8.51941e-01,9.99998e-01
5.288828077e-01,8.54577e-01,9.99999e-01,9.99999e-01,9.99924e-01,8.54642e-01,9.99998e-01
5.315272217e-01,8.57241e-01,9.99999e-01,9.99999e-01,9.99933e-01,8.57297e-01,9.99999e-01
5.341848578e-01,8.59871e-01,9.99999e-01,9.99999e-01,9.99956e-01,8.59909e-01,9.99999e-01
5.368557821e-01,8.62344e-01,9.99999e-01,9.99999e-01,9.99846e-01,8.62476e-01,9.99999e-01
5.395400610e-01,8.64518e-01,9.99999e-01,9.99999e-01,9.99446e-01,8.65000e-01,9.99994e-01
5.422377613e-01,8.66853e-01,9.99999e-01,9.99999e-01,9.99287e-01,8.67482e-01,9.99986e-01
5.449489501e-01,8.69332e-01,9.99999e-01,9.99999e-01,9.99336e-01,8.69921e-01,9.99986e-01
5.476736949e-01,8.71802e-01,9.99999e-01,9.99999e-01,9.99413e-01,8.72319e-01,9.99992e-01
5.504120634e-01,8.74302e-01,9.99999e-01,9.99999e-01,9.99573e-01,8.74676e-01,9.99997e-01
5.531641237e-01,8.76804e-01,9.99999e-01,9.99999e-01,9.99785e-01,8.76992e-01,9.99999e-01
5.559299443e-01,8.79178e-01,9.99999e-01,9.99999e-01,9.99896e-01,8.79269e-01,9.99999e-01
5.587095940e-01,8.81449e-01,9.99999e-01,9.99999e-01,9.99934e-01,8.81506e-01,9.99999e-01
5.615031420e-01,8.83641e-01,9.99999e-01,9.99999e-01,9.99927e-01,8.83705e-01,9.99999e-01
5.643106577e-01,8.85792e-01,9.99999e-01,9.99999e-01,9.99917e-01,8.85866e-01,9.99998e-01
5.671322110e-01,8.87093e-01,9.99999e-01,9.99999e-01,9.98999e-01,8.87989e-01,9.99990e-01
5.699678720e-01,8.89110e-01,9.99999e-01,9.99999e-01,9.98943e-01,8.90075e-01,9.99972e-01
5.728177114e-01,8.91121e-01,9.99999e-01,9.99999e-01,9.98896e-01,8.92124e-01,9.99976e-01
5.756818000e-01,8.93221e-01,9.99999e-01,9.99999e-01,9.98987e-01,8.94138e-01,9.99985e-01
5.785602090e-01,8.95323e-01,9.99999e-01,9.99999e-01,9.99118e-01,8.96117e-01,9.99995e-01
5.814530100e-01,8.97263e-01,9.99999e-01,9.99999e-01,9.99113e-01,8.98060e-01,9.99997e-01
5.843602750e-01,8.99012e-01,9.99999e-01,9.99999e-01,9.98942e-01,8.99969e-01,9.99993e-01
5.872820764e-01,8.93602e-01,9.99999e-01,9.99999e-01,9.90922e-01,9.01845e-01,9.99935e-01
5.902184868e-01,8.93613e-01,9.99999e-01,9.99999e-01,9.89023e-01,9.03687e-01,9.99825e-01
5.931695792e-01,8.98315e-01,9.99999e-01,9.99999e-01,9.92234e-01,9.05497e-01,9.99832e-01
5.961354271e-01,8.99467e-01,9.99999e-01,9.99999e-01,9.91490e-01,9.07274e-01,9.99903e-01
5.991161043e-01,9.03346e-01,9.99999e-01,9.99999e-01,9.93788e-01,9.09020e-01,9.99969e-01
6.021116848e-01,9.07518e-01,9.99999e-01,9.99999e-01,9.96471e-01,9.10734e-01,9.99996e-01
6.051222432e-01,9.10788e-01,9.99999e-01,9.99999e-01,9.98213e-01,9.12417e-01,9.99999e-01
6.081478544e-01,9.13366e-01,9.99999e-01,9.99999e-01,9.99228e-01,9.14071e-01,9.99999e-01
6.111885937e-01,9.15396e-01,9.99999e-01,9.99999e-01,9.99673e-01,9.15694e-01,9.99999e-01
6.142445367e-01,9.17155e-01,9.99999e-01,9.99999e-01,9.99853e-01,9.17289e-01,9.99999e-01
6.173157594e-01,9.18781e-01,9.99999e-01,9.99999e-01,9.99919e-01,9.18854e-01,9.99999e-01
6.204023382e-01,9.20329e-01,9.99999e-01,9.99999e-01,9.99931e-01,9.20392e-01,9.99999e-01
6.235043498e-01,9.21623e-01,9.99999e-01,9.99999e-01,9.99698e-01,9.21901e-01,9.99998e-01
6.266218716e-01,9.21908e-01,9.99999e-01,9.99999e-01,9.98413e-01,9.23383e-01,9.99988e-01
6.297549810e-01,9.24279e-01,9.99999e-01,9.99999e-01,9.99417e-01,9.24838e-01,9.99977e-01
6.329037559e-01,9.25186e-01,9.99999e-01,9.99999e-01,9.98850e-01,9.26266e-01,9.99981e-01
6.360682746e-01,9.26751e-01,9.99999e-01,9.99999e-01,9.99020e-01,9.27669e-01,9.99988e-01
6.392486160e-01,9.27863e-01,9.99999e-01,9.99999e-01,9.98730e-01,9.29046e-01,9.99994e-01
6.424448591e-01,9.28808e-01,9.99999e-01,9.99999e-01,9.98298e-01,9.30397e-01,9.99992e-01
6.456570834e-01,9.24347e-01,9.99999e-01,9.99999e-01,9.92125e-01,9.31724e-01,9.99955e-01
6.488853688e-01,9.27543e-01,9.99999e-01,9.99999e-01,9.94244e-01,9.33026e-01,9.99877e-01
6.521297956e-01,9.28731e-01,9.99999e-01,9.99999e-01,9.94134e-01,9.34305e-01,9.99898e-01
6.553904446e-01,9.30019e-01,9.99999e-01,9.99999e-01,9.94152e-01,9.35560e-01,9.99924e-01
6.586673968e-01,9.32080e-01,9.99999e-01,9.99999e-01,9.94995e-01,9.36791e-01,9.99974e-01
6.619607338e-01,9.35377e-01,9.99999e-01,9.99999e-01,9.97208e-01,9.38000e-01,9.99994e-01
6.652705375e-01,9.37610e-01,9.99999e-01,9.99999e-01,9.98323e-01,9.39187e-01,9.99996e-01
6.685968902e-01,9.39619e-01,9.99999e-01,9.99999e-01,9.99221e-01,9.40351e-01,9.99999e-01
6.719398746e-01,9.41155e-01,9.99999e-01,9.99999e-01,9.99639e-01,9.41495e-01,9.99999e-01
6.752995740e-01,9.42432e-01,9.99999e-01,9.99999e-01,9.99803e-01,9.42616e-01,9.99999e-01
6.786760719e-01,9.43450e-01,9.99999e-01,9.99999e-01,9.99716e-01,9.43717e-01,9.99999e-01
6.820694522e-01,9.44338e-01,9.99999e-01,9.99999e-01,9.99515e-01,9.44798e-01,9.99996e-01
6.854797995e-01,9.45263e-01,9.99999e-01,9.99999e-01,9.99375e-01,9.45858e-01,9.99994e-01
6.889071985e-01,9.45450e-01,9.99999e-01,9.99999e-01,9.98483e-01,9.46898e-01,9.99986e-01
6.923517345e-01,9.24661e-01,9.99999e-01,9.99999e-01,9.75578e-01,9.47920e-01,9.99881e-01
6.958134932e-01,9.36621e-01,9.99999e-01,9.99999e-01,9.87294e-01,9.48921e-01,9.99737e-01
6.992925606e-01,9.38149e-01,9.99999e-01,9.99999e-01,9.87857e-01,9.49905e-01,9.99763e-01
7.027890234e-01,9.36488e-01,9.99999e-01,9.99999e-01,9.85051e-01,9.50869e-01,9.99819e-01
7.063029686e-01,9.39751e-01,9.99999e-01,9.99999e-01,9.87411e-01,9.51816e-01,9.99909e-01
7.098344834e-01,9.41184e-01,9.99999e-01,9.99999e-01,9.87917e-01,9.52745e-01,9.99946e-01
7.133836558e-01,9.38206e-01,9.99999e-01,9.99999e-01,9.83901e-01,9.53656e-01,9.99894e-01
7.169505741e-01,8.37976e-01,9.99999e-01,9.99999e-01,8.78602e-01,9.54551e-01,9.99170e-01
7.205353270e-01,8.95571e-01,9.99999e-01,9.99999e-01,9.38722e-01,9.55428e-01,9.98537e-01
7.241380036e-01,8.81030e-01,9.99999e-01,9.99999e-01,9.22465e-01,9.56289e-01,9.98737e-01
7.277586936e-01,8.89017e-01,9.99999e-01,9.99999e-01,9.29791e-01,9.57134e-01,9.98967e-01
7.313974871e-01,8.86122e-01,9.99999e-01,9.99999e-01,9.25454e-01,9.57962e-01,9.99516e-01
7.350544745e-01,9.18842e-01,9.99999e-01,9.99999e-01,9.58510e-01,9.58775e-01,9.99831e-01
7.387297469e-01,9.30020e-01,9.99999e-01,9.99999e-01,9.69275e-01,9.59573e-01,9.99922e-01
7.424233956e-01,9.45794e-01,9.99999e-01,9.99999e-01,9.84851e-01,9.60355e-01,9.99984e-01
7.461355126e-01,9.52269e-01,9.99999e-01,9.99999e-01,9.90789e-01,9.61123e-01,9.99996e-01
7.498661902e-01,9.57744e-01,9.99999e-01,9.99999e-01,9.95704e-01,9.61876e-01,9.99998e-01
7.536155211e-01,9.60583e-01,9.99999e-01,9.99999e-01,9.97889e-01,9.62615e-01,9.99998e-01
7.573835987e-01,9.62293e-01,9.99999e-01,9.99999e-01,9.98913e-01,9.63339e-01,9.99999e-01
7.611705167e-01,9.63400e-01,9.99999e-01,9.99999e-01,9.99324e-01,9.64050e-01,9.99999e-01
7.649763693e-01,9.64339e-01,9.99999e-01,9.99999e-01,9.99576e-01,9.64748e-01,9.99999e-01
7.688012511e-01,9.65147e-01,9.99999e-01,9.99999e-01,9.99704e-01,9.65432e-01,9.99999e-01
7.726452574e-01,9.65869e-01,9.99999e-01,9.99999e-01,9.99756e-01,9.66103e-01,9.99999e-01
7.765084837e-01,9.66427e-01,9.99999e-01,9.99999e-01,9.99654e-01,9.66761e-01,9.99999e-01
7.803910261e-01,9.65962e-01,9.99999e-01,9.99999e-01,9.98507e-01,9.67407e-01,9.99998e-01
7.842929812e-01,9.62995e-01,9.99999e-01,9.99999e-01,9.94797e-01,9.68040e-01,9.99989e-01
7.882144461e-01,9.58253e-01,9.99999e-01,9.99999e-01,9.89326e-01,9.68662e-01,9.99926e-01
7.921555184e-01,9.63471e-01,9.99999e-01,9.99999e-01,9.94142e-01,9.69271e-01,9.99871e-01
7.961162960e-01,9.59708e-01,9.99999e-01,9.99999e-01,9.89643e-01,9.69869e-01,9.99878e-01
8.000968774e-01,9.58739e-01,9.99999e-01,9.99999e-01,9.88054e-01,9.70455e-01,9.99870e-01
8.040973618e-01,9.59328e-01,9.99999e-01,9.99999e-01,9.88049e-01,9.71030e-01,9.99896e-01
8.081178486e-01,9.45516e-01,9.99999e-01,9.99999e-01,9.73252e-01,9.71594e-01,9.99903e-01
8.121584379e-01,8.68343e-01,9.99999e-01,9.99999e-01,8.93558e-01,9.72147e-01,9.99621e-01
8.162192301e-01,8.50237e-01,9.99999e-01,9.99999e-01,8.75353e-01,9.72690e-01,9.98577e-01
8.203003262e-01,9.09778e-01,9.99999e-01,9.99999e-01,9.36368e-01,9.73222e-01,9.98334e-01
8.244018279e-01,8.87965e-01,9.99999e-01,9.99999e-01,9.13118e-01,9.73744e-01,9.98674e-01
8.285238370e-01,8.98604e-01,9.99999e-01,9.99999e-01,9.23309e-01,9.74256e-01,9.98958e-01
8.326664562e-01,8.98978e-01,9.99999e-01,9.99999e-01,9.22654e-01,9.74758e-01,9.99568e-01
8.368297885e-01,9.20521e-01,9.99999e-01,9.99999e-01,9.43974e-01,9.75250e-01,9.99901e-01
8.410139374e-01,9.42804e-01,9.99999e-01,9.99999e-01,9.66307e-01,9.75733e-01,9.99941e-01
8.452190071e-01,9.59904e-01,9.99999e-01,9.99999e-01,9.83333e-01,9.76206e-01,9.99965e-01
8.494451021e-01,9.67160e-01,9.99999e-01,9.99999e-01,9.90288e-01,9.76671e-01,9.99971e-01
8.536923276e-01,9.71493e-01,9.99999e-01,9.99999e-01,9.94251e-01,9.77126e-01,9.99982e-01
8.579607893e-01,9.74103e-01,9.99999e-01,9.99999e-01,9.96454e-01,9.77573e-01,9.99995e-01
8.622505932e-01,9.75808e-01,9.99999e-01,9.99999e-01,9.97747e-01,9.78011e-01,9.99998e-01
8.665618462e-01,9.77076e-01,9.99999e-01,9.99999e-01,9.98604e-01,9.78441e-01,9.99999e-01
8.708946554e-01,9.77297e-01,9.99999e-01,9.99999e-01,9.98401e-01,9.78862e-01,9.99998e-01
8.752491287e-01,9.77181e-01,9.99999e-01,9.99999e-01,9.97863e-01,9.79275e-01,9.99997e-01
8.796253743e-01,9.76774e-01,9.99999e-01,9.99999e-01,9.97039e-01,9.79680e-01,9.99992e-01
8.840235012e-01,9.76745e-01,9.99999e-01,9.99999e-01,9.96619e-01,9.80078e-01,9.99978e-01
8.884436187e-01,9.68356e-01,9.99999e-01,9.99999e-01,9.87705e-01,9.80467e-01,9.99941e-01
8.928858368e-01,8.61628e-01,9.99999e-01,9.99999e-01,8.78746e-01,9.80849e-01,9.99661e-01
8.973502660e-01,7.80231e-01,9.99999e-01,9.99999e-01,7.96538e-01,9.81224e-01,9.98269e-01
9.018370173e-01,8.71805e-01,9.99999e-01,9.99999e-01,8.90574e-01,9.81591e-01,9.97281e-01
9.063462024e-01,8.84074e-01,9.99999e-01,9.99999e-01,9.02477e-01,9.81952e-01,9.97611e-01
9.108779334e-01,8.35197e-01,9.99999e-01,9.99999e-01,8.52357e-01,9.82305e-01,9.97517e-01
9.154323231e-01,8.17597e-01,9.99999e-01,9.99999e-01,8.33741e-01,9.82652e-01,9.97947e-01
9.200094847e-01,8.51880e-01,9.99999e-01,9.99999e-01,8.67616e-01,9.82991e-01,9.98850e-01
9.246095321e-01,7.90194e-01,9.99999e-01,9.99999e-01,8.04658e-01,9.83324e-01,9.98676e-01
9.292325798e-01,2.44848e-01,9.99999e-01,9.99999e-01,2.50207e-01,9.83651e-01,9.94847e-01
9.338787427e-01,1.62265e-01,9.99999e-01,9.99999e-01,1.68467e-01,9.83971e-01,9.78873e-01
9.385481364e-01,4.64878e-01,9.99999e-01,9.99999e-01,4.84447e-01,9.84285e-01,9.74924e-01
9.432408771e-01,3.62234e-01,9.99999e-01,9.99999e-01,3.76051e-01,9.84593e-01,9.78328e-01
9.479570815e-01,2.51949e-01,9.99999e-01,9.99999e-01,2.60415e-01,9.84895e-01,9.82326e-01
9.526968669e-01,3.45413e-01,9.99999e-01,9.99999e-01,3.54439e-01,9.85192e-01,9.89182e-01
9.574603512e-01,3.65943e-01,9.99999e-01,9.99999e-01,3.73391e-01,9.85482e-01,9.94490e-01
9.622476530e-01,4.35790e-01,9.99999e-01,9.99999e-01,4.43774e-01,9.85767e-01,9.96186e-01
9.670588912e-01,6.13421e-01,9.99999e-01,9.99999e-01,6.23728e-01,9.86046e-01,9.97390e-01
9.718941857e-01,7.28550e-01,9.99999e-01,9.99999e-01,7.40076e-01,9.86319e-01,9.98078e-01
9.767536566e-01,7.67074e-01,9.99999e-01,9.99999e-01,7.78645e-01,9.86588e-01,9.98530e-01
9.816374249e-01,8.18948e-01,9.99999e-01,9.99999e-01,8.30281e-01,9.86851e-01,9.99491e-01
9.865456120e-01,8.78508e-01,9.99999e-01,9.99999e-01,8.90074e-01,9.87109e-01,9.99893e-01
9.914783401e-01,9.18651e-01,9.99999e-01,9.99999e-01,9.30436e-01,9.87362e-01,9.99970e-01
9.964357318e-01,9.49567e-01,9.99999e-01,9.99999e-01,9.61495e-01,9.87610e-01,9.99982e-01
1.001417910e+00,9.64848e-01,9.99999e-01,9.99999e-01,9.76736e-01,9.87853e-01,9.99973e-01
1.006425000e+00,9.74880e-01,9.99999e-01,9.99999e-01,9.86664e-01,9.88092e-01,9.99962e-01
1.011457125e+00,9.80098e-01,9.99999e-01,9.99999e-01,9.91708e-01,9.88326e-01,9.99964e-01
1.016514411e+00,9.82958e-01,9.99999e-01,9.99999e-01,9.94362e-01,9.88555e-01,9.99975e-01
1.021596983e+00,9.84311e-01,9.99999e-01,9.99999e-01,9.95504e-01,9.88780e-01,9.99974e-01
1.026704968e+00,9.85515e-01,9.99999e-01,9.99999e-01,9.96492e-01,9.89000e-01,9.99983e-01
1.031838492e+00,9.86690e-01,9.99999e-01,9.99999e-01,9.97450e-01,9.89216e-01,9.99994e-01
1.036997685e+00,9.87928e-01,9.99999e-01,9.99999e-01,9.98484e-01,9.89428e-01,9.99998e-01
1.042182673e+00,9.87846e-01,9.99999e-01,9.99999e-01,9.98191e-01,9.89636e-01,9.99999e-01
1.047393587e+00,9.87467e-01,9.99999e-01,9.99999e-01,9.97603e-01,9.89839e-01,9.99999e-01
1.052630555e+00,9.86783e-01,9.99999e-01,9.99999e-01,9.96711e-01,9.90039e-01,9.99998e-01
1.057893707e+00,9.84801e-01,9.99999e-01,9.99999e-01,9.94514e-01,9.90235e-01,9.99997e-01
1.063183176e+00,9.81500e-01,9.99999e-01,9.99999e-01,9.90990e-01,9.90427e-01,9.99994e-01
1.068499092e+00,9.75710e-01,9.99999e-01,9.99999e-01,9.84963e-01,9.90615e-01,9.99989e-01
1.073841587e+00,9.73369e-01,9.99999e-01,9.99999e-01,9.82428e-01,9.90799e-01,9.99977e-01
1.079210795e+00,9.68668e-01,9.99999e-01,9.99999e-01,9.77543e-01,9.90980e-01,9.99939e-01
1.084606849e+00,9.57524e-01,9.99999e-01,9.99999e-01,9.66206e-01,9.91158e-01,9.99854e-01
1.090029883e+00,9.43283e-01,9.99999e-01,9.99999e-01,9.51817e-01,9.91332e-01,9.99698e-01
1.095480033e+00,8.66327e-01,9.99999e-01,9.99999e-01,8.74229e-01,9.91502e-01,9.99454e-01
1.100957433e+00,7.05875e-01,9.99999e-01,9.99999e-01,7.12520e-01,9.91669e-01,9.98995e-01
1.106462220e+00,4.28526e-01,9.99999e-01,9.99999e-01,4.32790e-01,9.91833e-01,9.98297e-01
1.111994531e+00,1.76279e-01,9.99999e-01,9.99999e-01,1.78507e-01,9.91994e-01,9.95488e-01
1.117554504e+00,6.45965e-02,9.99999e-01,9.99999e-01,6.61791e-02,9.92151e-01,9.83806e-01
1.123142276e+00,1.45436e-01,9.99999e-01,9.99999e-01,1.52349e-01,9.92306e-01,9.62025e-01
1.128757988e+00,2.61845e-01,9.99999e-01,9.99999e-01,2.75920e-01,9.92457e-01,9.56201e-01
1.134401778e+00,1.19174e-01,9.99999e-01,9.99999e-01,1.24722e-01,9.92605e-01,9.62633e-01
1.140073787e+00,4.33910e-01,9.99999e-01,9.99999e-01,4.50582e-01,9.92751e-01,9.70030e-01
1.145774156e+00,1.98967e-01,9.99999e-01,9.99999e-01,2.06051e-01,9.92894e-01,9.72532e-01
1.151503026e+00,1.71028e-01,9.99999e-01,9.99999e-01,1.74921e-01,9.93033e-01,9.84603e-01
1.157260541e+00,2.12017e-01,9.99999e-01,9.99999e-01,2.14467e-01,9.93171e-01,9.95371e-01
1.163046844e+00,3.15011e-01,9.99999e-01,9.99999e-01,3.17551e-01,9.93305e-01,9.98685e-01
1.168862078e+00,4.39252e-01,9.99999e-01,9.99999e-01,4.42453e-01,9.93437e-01,9.99322e-01
1.174706389e+00,5.99456e-01,9.99999e-01,9.99999e-01,6.03880e-01,9.93566e-01,9.99102e-01
1.180579921e+00,7.28950e-01,9.99999e-01,9.99999e-01,7.34573e-01,9.93693e-01,9.98642e-01
1.186482820e+00,8.32891e-01,9.99999e-01,9.99999e-01,8.39241e-01,9.93817e-01,9.98606e-01
1.192415234e+00,8.96175e-01,9.99999e-01,9.99999e-01,9.02581e-01,9.93939e-01,9.98956e-01
1.198377311e+00,9.10891e-01,9.99999e-01,9.99999e-01,9.17239e-01,9.94058e-01,9.99014e-01
1.204369197e+00,9.15504e-01,9.99999e-01,9.99999e-01,9.21689e-01,9.94175e-01,9.99108e-01
1.210391043e+00,9.19104e-01,9.99999e-01,9.99999e-01,9.24883e-01,9.94290e-01,9.99457e-01
1.216442998e+00,9.30215e-01,9.99999e-01,9.99999e-01,9.35762e-01,9.94402e-01,9.99667e-01
1.222525213e+00,9.44153e-01,9.99999e-01,9.99999e-01,9.49558e-01,9.94512e-01,9.99793e-01
1.228637839e+00,9.59404e-01,9.99999e-01,9.99999e-01,9.64685e-01,9.94620e-01,9.99903e-01
