#,Wave/freq,Total,N2,O2,H2O,Rayleigh,CIA
4.000000000e-01,2.96784e-01,9.99999e-01,9.99999e-01,9.99862e-01,2.96824e-01,9.99999e-01
4.020000000e-01,3.04013e-01,9.99999e-01,9.99999e-01,9.99915e-01,3.04039e-01,9.99999e-01
4.040100000e-01,3.11263e-01,9.99999e-01,9.99999e-01,9.99963e-01,3.11274e-01,9.99999e-01
4.060300500e-01,3.18530e-01,9.99999e-01,9.99999e-01,9.99991e-01,3.18533e-01,9.99999e-01
4.080602003e-01,3.25812e-01,9.99999e-01,9.99999e-01,9.99996e-01,3.25813e-01,9.99999e-01
4.101005013e-01,3.33110e-01,9.99999e-01,9.99999e-01,9.99999e-01,3.33110e-01,9.99999e-01
4.121510038e-01,3.40421e-01,9.99999e-01,9.99999e-01,9.99994e-01,3.40423e-01,9.99999e-01
4.142117588e-01,3.47733e-01,9.99999e-01,9.99999e-01,9.99961e-01,3.47746e-01,9.99999e-01
4.162828176e-01,3.55017e-01,9.99999e-01,9.99999e-01,9.99830e-01,3.55078e-01,9.99999e-01
4.183642317e-01,3.62378e-01,9.99999e-01,9.99999e-01,9.99898e-01,3.62414e-01,9.99999e-01
4.204560528e-01,3.69731e-01,9.99999e-01,9.99999e-01,9.99938e-01,3.69753e-01,9.99999e-01
4.225583331e-01,3.77083e-01,9.99999e-01,9.99999e-01,9.99976e-01,3.77092e-01,9.99999e-01
4.246711247e-01,3.84419e-01,9.99999e-01,9.99999e-01,9.99980e-01,3.84426e-01,9.99999e-01
4.267944804e-01,3.91744e-01,9.99999e-01,9.99999e-01,9.99972e-01,3.91755e-01,9.99999e-01
4.289284528e-01,3.99065e-01,9.99999e-01,9.99999e-01,9.99978e-01,3.99074e-01,9.99999e-01
4.310730950e-01,4.06377e-01,9.99999e-01,9.99999e-01,9.99990e-01,4.06381e-01,9.99999e-01
4.332284605e-01,4.13673e-01,9.99999e-01,9.99999e-01,9.99997e-01,4.13674e-01,9.99999e-01
4.353946028e-01,4.20949e-01,9.99999e-01,9.99999e-01,9.99998e-01,4.20949e-01,9.99999e-01
4.375715758e-01,4.28198e-01,9.99999e-01,9.99999e-01,9.99982e-01,4.28205e-01,9.99999e-01
4.397594337e-01,4.35374e-01,9.99999e-01,9.99999e-01,9.99848e-01,4.35440e-01,9.99999e-01
4.419582309e-01,4.42309e-01,9.99999e-01,9.99999e-01,9.99229e-01,4.42650e-01,9.99999e-01
4.441680220e-01,4.49570e-01,9.99999e-01,9.99999e-01,9.99414e-01,4.49833e-01,9.99999e-01
4.463888621e-01,4.56707e-01,9.99999e-01,9.99999e-01,9.99385e-01,4.56988e-01,9.99999e-01
4.486208064e-01,4.63935e-01,9.99999e-01,9.99999e-01,9.99620e-01,4.64111e-01,9.99999e-01
4.508639105e-01,4.71118e-01,9.99999e-01,9.99999e-01,9.99821e-01,4.71202e-01,9.99999e-01
4.531182300e-01,4.78224e-01,9.99999e-01,9.99999e-01,9.99929e-01,4.78258e-01,9.99999e-01
4.553838212e-01,4.85254e-01,9.99999e-01,9.99999e-01,9.99951e-01,4.85277e-01,9.99999e-01
4.576607403e-01,4.92246e-01,9.99999e-01,9.99999e-01,9.99977e-01,4.92257e-01,9.99999e-01
4.599490440e-01,4.99189e-01,9.99999e-01,9.99999e-01,9.99984e-01,4.99197e-01,9.99999e-01
4.622487892e-01,5.06093e-01,9.99999e-01,9.99999e-01,9.99996e-01,5.06095e-01,9.99999e-01
4.645600332e-01,5.12943e-01,9.99999e-01,9.99999e-01,9.99988e-01,5.12949e-01,9.99999e-01
4.668828333e-01,5.19663e-01,9.99999e-01,9.99999e-01,9.99817e-01,5.19757e-01,9.99999e-01
4.692172475e-01,5.26317e-01,9.99999e-01,9.99999e-01,9.99614e-01,5.26519e-01,9.99999e-01
4.715633337e-01,5.33099e-01,9.99999e-01,9.99999e-01,9.99747e-01,5.33233e-01,9.99999e-01
4.739211504e-01,5.39768e-01,9.99999e-01,9.99999e-01,9.99759e-01,5.39897e-01,9.99999e-01
4.762907561e-01,5.46443e-01,9.99999e-01,9.99999e-01,9.99875e-01,5.46511e-01,9.99999e-01
4.786722099e-01,5.53044e-01,9.99999e-01,9.99999e-01,9.99948e-01,5.53072e-01,9.99999e-01
4.810655710e-01,5.59572e-01,9.99999e-01,9.99999e-01,9.99984e-01,5.59580e-01,9.99999e-01
4.834708988e-01,5.65948e-01,9.99999e-01,9.99999e-01,9.99847e-01,5.66034e-01,9.99999e-01
4.858882533e-01,5.72278e-01,9.99999e-01,9.99999e-01,9.99727e-01,5.72433e-01,9.99999e-01
4.883176946e-01,5.78643e-01,9.99999e-01,9.99999e-01,9.99770e-01,5.78776e-01,9.99999e-01
4.907592831e-01,5.84941e-01,9.99999e-01,9.99999e-01,9.99793e-01,5.85061e-01,9.99999e-01
4.932130795e-01,5.91202e-01,9.99999e-01,9.99999e-01,9.99853e-01,5.91289e-01,9.99999e-01
4.956791449e-01,5.97411e-01,9.99999e-01,9.99999e-01,9.99922e-01,5.97458e-01,9.99999e-01
4.981575406e-01,6.03332e-01,9.99999e-01,9.99999e-01,9.99609e-01,6.03567e-01,9.99999e-01
5.006483283e-01,6.08993e-01,9.99999e-01,9.99999e-01,9.98982e-01,6.09617e-01,9.99992e-01
5.031515699e-01,6.12438e-01,9.99999e-01,9.99999e-01,9.94906e-01,6.15605e-01,9.99946e-01
5.056673278e-01,6.19829e-01,9.99999e-01,9.99999e-01,9.97319e-01,6.21533e-01,9.99938e-01
5.081956644e-01,6.25256e-01,9.99999e-01,9.99999e-01,9.96620e-01,6.27399e-01,9.99962e-01
5.107366428e-01,6.31755e-01,9.99999e-01,9.99999e-01,9.97719e-01,6.33203e-01,9.99993e-01
5.132903260e-01,6.38113e-01,9.99999e-01,9.99999e-01,9.98698e-01,6.38944e-01,9.99998e-01
5.158567776e-01,6.44269e-01,9.99999e-01,9.99999e-01,9.99451e-01,6.44622e-01,9.99999e-01
5.184360615e-01,6.50095e-01,9.99999e-01,9.99999e-01,9.99779e-01,6.50238e-01,9.99999e-01
5.210282418e-01,6.55735e-01,9.99999e-01,9.99999e-01,9.99916e-01,6.55789e-01,9.99999e-01
5.236333830e-01,6.61056e-01,9.99999e-01,9.99999e-01,9.99667e-01,6.61277e-01,9.99997e-01
5.262515499e-01,6.66561e-01,9.99999e-01,9.99999e-01,9.99792e-01,6.66702e-01,9.99996e-01
5.288828077e-01,6.71932e-01,9.99999e-01,9.99999e-01,9.99807e-01,6.72062e-01,9.99997e-01
5.315272217e-01,6.77245e-01,9.99999e-01,9.99999e-01,9.99833e-01,6.77358e-01,9.99999e-01
5.341848578e-01,6.82515e-01,9.99999e-01,9.99999e-01,9.99889e-01,6.82590e-01,9.99999e-01
5.368557821e-01,6.87490e-01,9.99999e-01,9.99999e-01,9.99610e-01,6.87758e-01,9.99998e-01
5.395400610e-01,6.91873e-01,9.99999e-01,9.99999e-01,9.98584e-01,6.92862e-01,9.99986e-01
5.422377613e-01,6.96626e-01,9.99999e-01,9.99999e-01,9.98204e-01,6.97902e-01,9.99966e-01
5.449489501e-01,7.01670e-01,9.99999e-01,9.99999e-01,9.98314e-01,7.02878e-01,9.99965e-01
5.476736949e-01,7.06733e-01,9.99999e-01,9.99999e-01,9.98522e-01,7.07790e-01,9.99982e-01
5.504120634e-01,7.11871e-01,9.99999e-01,9.99999e-01,9.98926e-01,7.12638e-01,9.99994e-01
5.531641237e-01,7.17036e-01,9.99999e-01,9.99999e-01,9.99460e-01,7.17423e-01,9.99998e-01
5.559299443e-01,7.21957e-01,9.99999e-01,9.99999e-01,9.99739e-01,7.22145e-01,9.99999e-01
5.587095940e-01,7.26684e-01,9.99999e-01,9.99999e-01,9.99835e-01,7.26803e-01,9.99999e-01
5.615031420e-01,7.31265e-01,9.99999e-01,9.99999e-01,9.99816e-01,7.31399e-01,9.99999e-01
5.643106577e-01,7.35775e-01,9.99999e-01,9.99999e-01,9.99789e-01,7.35931e-01,9.99997e-01
5.671322110e-01,7.38483e-01,9.99999e-01,9.99999e-01,9.97429e-01,7.40402e-01,9.99977e-01
5.699678720e-01,7.42789e-01,9.99999e-01,9.99999e-01,9.97353e-01,7.44811e-01,9.99931e-01
5.728177114e-01,7.47022e-01,9.99999e-01,9.99999e-01,9.97205e-01,7.49158e-01,9.99942e-01
5.756818000e-01,7.51492e-01,9.99999e-01,9.99999e-01,9.97442e-01,7.53444e-01,9.99966e-01
5.785602090e-01,7.55977e-01,9.99999e-01,9.99999e-01,9.97775e-01,7.57669e-01,9.99990e-01
5.814530100e-01,7.60123e-01,9.99999e-01,9.99999e-01,9.97759e-01,7.61833e-01,9.99994e-01
5.843602750e-01,7.63864e-01,9.99999e-01,9.99999e-01,9.97306e-01,7.65938e-01,9.99984e-01
5.872820764e-01,7.52239e-01,9.99999e-01,9.99999e-01,9.77112e-01,7.69983e-01,9.99837e-01
5.902184868e-01,7.52384e-01,9.99999e-01,9.99999e-01,9.72540e-01,7.73968e-01,9.99559e-01
5.931695792e-01,7.62400e-01,9.99999e-01,9.99999e-01,9.80495e-01,7.77895e-01,9.99575e-01
5.961354271e-01,7.64899e-01,9.99999e-01,9.99999e-01,9.78663e-01,7.81764e-01,9.99756e-01
5.991161043e-01,7.73266e-01,9.99999e-01,9.99999e-01,9.84404e-01,7.85575e-01,9.99924e-01
6.021116848e-01,7.82325e-01,9.99999e-01,9.99999e-01,9.91134e-01,7.89329e-01,9.99991e-01
6.051222432e-01,7.89463e-01,9.99999e-01,9.99999e-01,9.95507e-01,7.93026e-01,9.99999e-01
6.081478544e-01,7.95120e-01,9.99999e-01,9.99999e-01,9.98057e-01,7.96667e-01,9.99999e-01
6.111885937e-01,7.99597e-01,9.99999e-01,9.99999e-01,9.99180e-01,8.00252e-01,9.99999e-01
6.142445367e-01,8.03487e-01,9.99999e-01,9.99999e-01,9.99632e-01,8.03782e-01,9.99999e-01
6.173157594e-01,8.07094e-01,9.99999e-01,9.99999e-01,9.99797e-01,8.07257e-01,9.99999e-01
6.204023382e-01,8.10539e-01,9.99999e-01,9.99999e-01,9.99826e-01,8.10679e-01,9.99999e-01
6.235043498e-01,8.13416e-01,9.99999e-01,9.99999e-01,9.99226e-01,8.14047e-01,9.99997e-01
6.266218716e-01,8.14062e-01,9.99999e-01,9.99999e-01,9.95990e-01,8.17361e-01,9.99971e-01
6.297549810e-01,8.19370e-01,9.99999e-01,9.99999e-01,9.98527e-01,8.20624e-01,9.99943e-01
6.329037559e-01,8.21410e-01,9.99999e-01,9.99999e-01,9.97101e-01,8.23835e-01,9.99954e-01
6.360682746e-01,8.24920e-01,9.99999e-01,9.99999e-01,9.97517e-01,8.26994e-01,9.99972e-01
6.392486160e-01,8.27431e-01,9.99999e-01,9.99999e-01,9.96792e-01,8.30103e-01,9.99987e-01
6.424448591e-01,8.29536e-01,9.99999e-01,9.99999e-01,9.95669e-01,8.33162e-01,9.99978e-01
6.456570834e-01,8.19406e-01,9.99999e-01,9.99999e-01,9.80068e-01,8.36171e-01,9.99878e-01
6.488853688e-01,8.26768e-01,9.99999e-01,9.99999e-01,9.85570e-01,8.39131e-01,9.99690e-01
6.521297956e-01,8.29462e-01,9.99999e-01,9.99999e-01,9.85308e-01,8.42043e-01,9.99744e-01
6.553904446e-01,8.32292e-01,9.99999e-01,9.99999e-01,9.85255e-01,8.44908e-01,9.99809e-01
6.586673968e-01,8.37021e-01,9.99999e-01,9.99999e-01,9.87435e-01,8.47725e-01,9.99936e-01
6.619607338e-01,8.44512e-01,9.99999e-01,9.99999e-01,9.92976e-01,8.50496e-01,9.99985e-01
6.652705375e-01,8.49613e-01,9.99999e-01,9.99999e-01,9.95778e-01,8.53220e-01,9.99992e-01
6.685968902e-01,8.54364e-01,9.99999e-01,9.99999e-01,9.98206e-01,8.55900e-01,9.99998e-01
6.719398746e-01,8.57754e-01,9.99999e-01,9.99999e-01,9.99090e-01,8.58534e-01,9.99999e-01
6.752995740e-01,8.60711e-01,9.99999e-01,9.99999e-01,9.99519e-01,8.61125e-01,9.99999e-01
6.786760719e-01,8.63049e-01,9.99999e-01,9.99999e-01,9.99279e-01,8.63672e-01,9.99998e-01
6.820694522e-01,8.65098e-01,9.99999e-01,9.99999e-01,9.98762e-01,8.66176e-01,9.99993e-01
6.854797995e-01,8.67251e-01,9.99999e-01,9.99999e-01,9.98417e-01,8.68637e-01,9.99985e-01
6.889071985e-01,8.67642e-01,9.99999e-01,9.99999e-01,9.96113e-01,8.71057e-01,9.99965e-01
6.923517345e-01,8.20124e-01,9.99999e-01,9.99999e-01,9.39244e-01,8.73435e-01,9.99700e-01
6.958134932e-01,8.47850e-01,9.99999e-01,9.99999e-01,9.68756e-01,8.75773e-01,9.99337e-01
6.992925606e-01,8.50738e-01,9.99999e-01,9.99999e-01,9.69449e-01,8.78071e-01,9.99403e-01
7.027890234e-01,8.47157e-01,9.99999e-01,9.99999e-01,9.62756e-01,8.80329e-01,9.99544e-01
7.063029686e-01,8.54569e-01,9.99999e-01,9.99999e-01,9.68516e-01,8.82548e-01,9.99772e-01
7.098344834e-01,8.57858e-01,9.99999e-01,9.99999e-01,9.69758e-01,8.84729e-01,9.99865e-01
7.133836558e-01,8.50736e-01,9.99999e-01,9.99999e-01,9.59510e-01,8.86872e-01,9.99733e-01
7.169505741e-01,6.44041e-01,9.99999e-01,9.99999e-01,7.25994e-01,8.88977e-01,9.97905e-01
7.205353270e-01,7.60174e-01,9.99999e-01,9.99999e-01,8.56286e-01,8.91046e-01,9.96307e-01
7.241380036e-01,7.27732e-01,9.99999e-01,9.99999e-01,8.17464e-01,8.93079e-01,9.96810e-01
7.277586936e-01,7.44587e-01,9.99999e-01,9.99999e-01,8.34044e-01,8.95076e-01,9.97391e-01
7.313974871e-01,7.38641e-01,9.99999e-01,9.99999e-01,8.24430e-01,8.97038e-01,9.98777e-01
7.350544745e-01,8.08045e-01,9.99999e-01,9.99999e-01,8.99242e-01,8.98965e-01,9.99574e-01
7.387297469e-01,8.32759e-01,9.99999e-01,9.99999e-01,9.24585e-01,9.00858e-01,9.99804e-01
7.424233956e-01,8.68733e-01,9.99999e-01,9.99999e-01,9.62384e-01,9.02718e-01,9.99965e-01
7.461355126e-01,8.83718e-01,9.99999e-01,9.99999e-01,9.76980e-01,9.04545e-01,9.99993e-01
7.498661902e-01,8.96595e-01,9.99999e-01,9.99999e-01,9.89250e-01,9.06339e-01,9.99997e-01
7.536155211e-01,9.03282e-01,9.99999e-01,9.99999e-01,9.94693e-01,9.08101e-01,9.99998e-01
7.573835987e-01,9.07346e-01,9.99999e-01,9.99999e-01,9.97267e-01,9.09832e-01,9.99999e-01
7.611705167e-01,9.09983e-01,9.99999e-01,9.99999e-01,9.98300e-01,9.11532e-01,9.99999e-01
7.649763693e-01,9.12227e-01,9.99999e-01,9.99999e-01,9.98932e-01,9.13201e-01,9.99999e-01
7.688012511e-01,9.14160e-01,9.99999e-01,9.99999e-01,9.99255e-01,9.14840e-01,9.99999e-01
7.726452574e-01,9.15888e-01,9.99999e-01,9.99999e-01,9.99386e-01,9.16450e-01,9.99999e-01
7.765084837e-01,9.17223e-01,9.99999e-01,9.99999e-01,9.99121e-01,9.18031e-01,9.99998e-01
7.803910261e-01,9.16085e-01,9.99999e-01,9.99999e-01,9.96199e-01,9.19583e-01,9.99995e-01
7.842929812e-01,9.08926e-01,9.99999e-01,9.99999e-01,9.86798e-01,9.21107e-01,9.99975e-01
7.882144461e-01,8.97753e-01,9.99999e-01,9.99999e-01,9.73245e-01,9.22603e-01,9.99813e-01
7.921555184e-01,9.10232e-01,9.99999e-01,9.99999e-01,9.85339e-01,9.24072e-01,9.99676e-01
7.961162960e-01,9.01080e-01,9.99999e-01,9.99999e-01,9.73897e-01,9.25515e-01,9.99692e-01
8.000968774e-01,8.98882e-01,9.99999e-01,9.99999e-01,9.70056e-01,9.26931e-01,9.99672e-01
8.040973618e-01,9.00263e-01,9.99999e-01,9.99999e-01,9.70016e-01,9.28321e-01,9.99750e-01
8.081178486e-01,8.67720e-01,9.99999e-01,9.99999e-01,9.33582e-01,9.29686e-01,9.99747e-01
8.121584379e-01,7.01969e-01,9.99999e-01,9.99999e-01,7.54695e-01,9.31026e-01,9.99043e-01
8.162192301e-01,6.69035e-01,9.99999e-01,9.99999e-01,7.20173e-01,9.32341e-01,9.96407e-01
8.203003262e-01,7.91794e-01,9.99999e-01,9.99999e-01,8.51660e-01,9.33632e-01,9.95794e-01
8.244018279e-01,7.52268e-01,9.99999e-01,9.99999e-01,8.07354e-01,9.34899e-01,9.96651e-01
8.285238370e-01,7.64555e-01,9.99999e-01,9.99999e-01,8.18860e-01,9.36143e-01,9.97369e-01
8.326664562e-01,7.66425e-01,9.99999e-01,9.99999e-01,8.18528e-01,9.37364e-01,9.98910e-01
8.368297885e-01,8.12135e-01,9.99999e-01,9.99999e-01,8.65510e-01,9.38563e-01,9.99750e-01
8.410139374e-01,8.62138e-01,9.99999e-01,9.99999e-01,9.17556e-01,9.39739e-01,9.99854e-01
8.452190071e-01,9.01910e-01,9.99999e-01,9.99999e-01,9.58650e-01,9.40893e-01,9.99912e-01
8.494451021e-01,9.19038e-01,9.99999e-01,9.99999e-01,9.75664e-01,9.42026e-01,9.99929e-01
8.536923276e-01,9.29513e-01,9.99999e-01,9.99999e-01,9.85594e-01,9.43138e-01,9.99957e-01
8.579607893e-01,9.35792e-01,9.99999e-01,9.99999e-01,9.91073e-01,9.44229e-01,9.99989e-01
8.622505932e-01,9.39945e-01,9.99999e-01,9.99999e-01,9.94336e-01,9.45300e-01,9.99997e-01
8.665618462e-01,9.43018e-01,9.99999e-01,9.99999e-01,9.96478e-01,9.46351e-01,9.99998e-01
8.708946554e-01,9.43551e-01,9.99999e-01,9.99999e-01,9.95957e-01,9.47382e-01,9.99997e-01
8.752491287e-01,9.43269e-01,9.99999e-01,9.99999e-01,9.94600e-01,9.48394e-01,9.99993e-01
8.796253743e-01,9.42255e-01,9.99999e-01,9.99999e-01,9.92502e-01,9.49388e-01,9.99982e-01
8.840235012e-01,9.42189e-01,9.99999e-01,9.99999e-01,9.91451e-01,9.50362e-01,9.99947e-01
8.884436187e-01,9.21517e-01,9.99999e-01,9.99999e-01,9.68817e-01,9.51318e-01,9.99851e-01
8.928858368e-01,6.90405e-01,9.99999e-01,9.99999e-01,7.25639e-01,9.52256e-01,9.99145e-01
8.973502660e-01,5.44670e-01,9.99999e-01,9.99999e-01,5.73932e-01,9.53177e-01,9.95630e-01
9.018370173e-01,7.15673e-01,9.99999e-01,9.99999e-01,7.55299e-01,9.54080e-01,9.93139e-01
9.063462024e-01,7.36180e-01,9.99999e-01,9.99999e-01,7.75571e-01,9.54967e-01,9.93970e-01
9.108779334e-01,6.41149e-01,9.99999e-01,9.99999e-01,6.75001e-01,9.55836e-01,9.93735e-01
9.154323231e-01,6.07283e-01,9.99999e-01,9.99999e-01,6.38080e-01,9.56689e-01,9.94819e-01
9.200094847e-01,6.74002e-01,9.99999e-01,9.99999e-01,7.05948e-01,9.57526e-01,9.97096e-01
9.246095321e-01,5.67596e-01,9.99999e-01,9.99999e-01,5.94251e-01,9.58348e-01,9.96655e-01
9.292325798e-01,5.29610e-02,9.99999e-01,9.99999e-01,5.61166e-02,9.59153e-01,9.83957e-01
9.338787427e-01,1.81788e-02,9.99999e-01,9.99999e-01,2.00774e-02,9.59944e-01,9.43218e-01
9.385481364e-01,1.82347e-01,9.99999e-01,9.99999e-01,2.02393e-01,9.60719e-01,9.37792e-01
9.432408771e-01,1.09339e-01,9.99999e-01,9.99999e-01,1.20198e-01,9.61480e-01,9.46097e-01
9.479570815e-01,4.43366e-02,9.99999e-01,9.99999e-01,4.82025e-02,9.62226e-01,9.55905e-01
9.526968669e-01,8.75508e-02,9.99999e-01,9.99999e-01,9.34539e-02,9.62958e-01,9.72869e-01
9.574603512e-01,9.81648e-02,9.99999e-01,9.99999e-01,1.03298e-01,9.63676e-01,9.86125e-01
9.622476530e-01,1.43609e-01,9.99999e-01,9.99999e-01,1.50358e-01,9.64381e-01,9.90385e-01
9.670588912e-01,3.13835e-01,9.99999e-01,9.99999e-01,3.27258e-01,9.65072e-01,9.93690e-01
9.718941857e-01,4.57153e-01,9.99999e-01,9.99999e-01,4.75665e-01,9.65750e-01,9.95163e-01
9.767536566e-01,5.18435e-01,9.99999e-01,9.99999e-01,5.38449e-01,9.66415e-01,9.96289e-01
9.816374249e-01,6.07767e-01,9.99999e-01,9.99999e-01,6.29273e-01,9.67067e-01,9.98714e-01
9.865456120e-01,7.22824e-01,9.99999e-01,9.99999e-01,7.47144e-01,9.67707e-01,9.99731e-01
9.914783401e-01,8.07707e-01,9.99999e-01,9.99999e-01,8.34180e-01,9.68335e-01,9.99925e-01
9.964357318e-01,8.77768e-01,9.99999e-01,9.99999e-01,9.05934e-01,9.68950e-01,9.99956e-01
1.001417910e+00,9.13709e-01,9.99999e-01,9.99999e-01,9.42462e-01,9.69554e-01,9.99933e-01
1.006425000e+00,9.37722e-01,9.99999e-01,9.99999e-01,9.66668e-01,9.70147e-01,9.99905e-01
1.011457125e+00,9.50497e-01,9.99999e-01,9.99999e-01,9.79245e-01,9.70728e-01,9.99911e-01
1.016514411e+00,9.57482e-01,9.99999e-01,9.99999e-01,9.85836e-01,9.71297e-01,9.99937e-01
1.021596983e+00,9.60806e-01,9.99999e-01,9.99999e-01,9.88689e-01,9.71856e-01,9.99938e-01
1.026704968e+00,9.63774e-01,9.99999e-01,9.99999e-01,9.91162e-01,9.72404e-01,9.99961e-01
1.031838492e+00,9.66690e-01,9.99999e-01,9.99999e-01,9.93585e-01,9.72942e-01,9.99988e-01
1.036997685e+00,9.69745e-01,9.99999e-01,9.99999e-01,9.96175e-01,9.73469e-01,9.99997e-01
1.042182673e+00,9.69527e-01,9.99999e-01,9.99999e-01,9.95421e-01,9.73986e-01,9.99998e-01
1.047393587e+00,9.68594e-01,9.99999e-01,9.99999e-01,9.93946e-01,9.74494e-01,9.99998e-01
1.052630555e+00,9.66887e-01,9.99999e-01,9.99999e-01,9.91689e-01,9.74991e-01,9.99997e-01
1.057893707e+00,9.61956e-01,9.99999e-01,9.99999e-01,9.86141e-01,9.75479e-01,9.99994e-01
1.063183176e+00,9.53830e-01,9.99999e-01,9.99999e-01,9.77338e-01,9.75957e-01,9.99987e-01
1.068499092e+00,9.39722e-01,9.99999e-01,9.99999e-01,9.62433e-01,9.76427e-01,9.99973e-01
1.073841587e+00,9.34042e-01,9.99999e-01,9.99999e-01,9.56194e-01,9.76887e-01,9.99943e-01
1.079210795e+00,9.22795e-01,9.99999e-01,9.99999e-01,9.44335e-01,9.77338e-01,9.99846e-01
1.084606849e+00,8.96270e-01,9.99999e-01,9.99999e-01,9.16973e-01,9.77781e-01,9.99631e-01
1.090029883e+00,8.62788e-01,9.99999e-01,9.99999e-01,8.82675e-01,9.78215e-01,9.99237e-01
1.095480033e+00,6.96875e-01,9.99999e-01,9.99999e-01,7.13067e-01,9.78640e-01,9.98620e-01
1.100957433e+00,4.22980e-01,9.99999e-01,9.99999e-01,4.33126e-01,9.79058e-01,9.97463e-01
1.106462220e+00,1.36470e-01,9.99999e-01,9.99999e-01,1.39932e-01,9.79467e-01,9.95701e-01
1.111994531e+00,1.83258e-02,9.99999e-01,9.99999e-01,1.89174e-02,9.79869e-01,9.88629e-01
1.117554504e+00,2.33238e-03,9.99999e-01,9.99999e-01,2.47963e-03,9.80262e-01,9.59552e-01
1.123142276e+00,1.67661e-02,9.99999e-01,9.99999e-01,1.88556e-02,9.80648e-01,9.06729e-01
1.128757988e+00,4.54708e-02,9.99999e-01,9.99999e-01,5.19090e-02,9.81027e-01,8.92912e-01
1.134401778e+00,2.38395e-02,9.99999e-01,9.99999e-01,2.67473e-02,9.81398e-01,9.08180e-01
1.140073787e+00,1.35944e-01,9.99999e-01,9.99999e-01,1.49545e-01,9.81762e-01,9.25934e-01
1.145774156e+00,2.88926e-02,9.99999e-01,9.99999e-01,3.15655e-02,9.82119e-01,9.31985e-01
1.151503026e+00,1.92617e-02,9.99999e-01,9.99999e-01,2.03900e-02,9.82469e-01,9.61519e-01
1.157260541e+00,2.53728e-02,9.99999e-01,9.99999e-01,2.61212e-02,9.82813e-01,9.88335e-01
1.163046844e+00,6.47579e-02,9.99999e-01,9.99999e-01,6.60871e-02,9.83149e-01,9.96679e-01
1.168862078e+00,1.35401e-01,9.99999e-01,9.99999e-01,1.37914e-01,9.83479e-01,9.98268e-01
1.174706389e+00,2.84933e-01,9.99999e-01,9.99999e-01,2.90315e-01,9.83803e-01,9.97616e-01
1.180579921e+00,4.57481e-01,9.99999e-01,9.99999e-01,4.66461e-01,9.84120e-01,9.96571e-01
1.186482820e+00,6.32457e-01,9.99999e-01,9.99999e-01,6.44727e-01,9.84431e-01,9.96481e-01
1.192415234e+00,7.58650e-01,9.99999e-01,9.99999e-01,7.72444e-01,9.84737e-01,9.97363e-01
1.198377311e+00,7.90278e-01,9.99999e-01,9.99999e-01,8.04295e-01,9.85036e-01,9.97498e-01
1.204369197e+00,8.01426e-01,9.99999e-01,9.99999e-01,8.15134e-01,9.85329e-01,9.97820e-01
1.210391043e+00,8.08833e-01,9.99999e-01,9.99999e-01,8.21762e-01,9.85617e-01,9.98628e-01
1.216442998e+00,8.33917e-01,9.99999e-01,9.99999e-01,8.46554e-01,9.85899e-01,9.99159e-01
1.222525213e+00,8.65194e-01,9.99999e-01,9.99999e-01,8.77780e-01,9.86175e-01,9.99477e-01
1.228637839e+00,9.00700e-01,9.99999e-01,9.99999e-01,9.13296e-01,9.86447e-01,9.99756e-01
