#,Wave/freq,Total,N2,O2,H2O,Rayleigh,CIA
4.000000000e-01,8.27918e-01,9.99999e-01,9.99999e-01,9.99978e-01,8.27935e-01,9.99999e-01
4.020000000e-01,8.31021e-01,9.99999e-01,9.99999e-01,9.99986e-01,8.31032e-01,9.99999e-01
4.040100000e-01,8.34071e-01,9.99999e-01,9.99999e-01,9.99993e-01,8.34076e-01,9.99999e-01
4.060300500e-01,8.37069e-01,9.99999e-01,9.99999e-01,9.99998e-01,8.37070e-01,9.99999e-01
4.080602003e-01,8.40016e-01,9.99999e-01,9.99999e-01,9.99999e-01,8.40016e-01,9.99999e-01
4.101005013e-01,8.42914e-01,9.99999e-01,9.99999e-01,9.99999e-01,8.42914e-01,9.99999e-01
4.121510038e-01,8.45763e-01,9.99999e-01,9.99999e-01,9.99998e-01,8.45764e-01,9.99999e-01
4.142117588e-01,8.48562e-01,9.99999e-01,9.99999e-01,9.99993e-01,8.48567e-01,9.99999e-01
4.162828176e-01,8.51301e-01,9.99999e-01,9.99999e-01,9.99973e-01,8.51324e-01,9.99999e-01
4.183642317e-01,8.54021e-01,9.99999e-01,9.99999e-01,9.99983e-01,8.54035e-01,9.99999e-01
4.204560528e-01,8.56692e-01,9.99999e-01,9.99999e-01,9.99989e-01,8.56700e-01,9.99999e-01
4.225583331e-01,8.59319e-01,9.99999e-01,9.99999e-01,9.99995e-01,8.59322e-01,9.99999e-01
4.246711247e-01,8.61897e-01,9.99999e-01,9.99999e-01,9.99996e-01,8.61899e-01,9.99999e-01
4.267944804e-01,8.64429e-01,9.99999e-01,9.99999e-01,9.99995e-01,8.64433e-01,9.99999e-01
4.289284528e-01,8.66921e-01,9.99999e-01,9.99999e-01,9.99996e-01,8.66924e-01,9.99999e-01
4.310730950e-01,8.69372e-01,9.99999e-01,9.99999e-01,9.99998e-01,8.69373e-01,9.99999e-01
4.332284605e-01,8.71780e-01,9.99999e-01,9.99999e-01,9.99999e-01,8.71780e-01,9.99999e-01
4.353946028e-01,8.74146e-01,9.99999e-01,9.99999e-01,9.99999e-01,8.74146e-01,9.99999e-01
4.375715758e-01,8.76469e-01,9.99999e-01,9.99999e-01,9.99996e-01,8.76471e-01,9.99999e-01
4.397594337e-01,8.78737e-01,9.99999e-01,9.99999e-01,9.99976e-01,8.78757e-01,9.99999e-01
4.419582309e-01,8.80898e-01,9.99999e-01,9.99999e-01,9.99880e-01,8.81003e-01,9.99999e-01
4.441680220e-01,8.83130e-01,9.99999e-01,9.99999e-01,9.99908e-01,8.83211e-01,9.99999e-01
4.463888621e-01,8.85295e-01,9.99999e-01,9.99999e-01,9.99903e-01,8.85380e-01,9.99999e-01
4.486208064e-01,8.87459e-01,9.99999e-01,9.99999e-01,9.99940e-01,8.87512e-01,9.99999e-01
4.508639105e-01,8.89581e-01,9.99999e-01,9.99999e-01,9.99971e-01,8.89606e-01,9.99999e-01
4.531182300e-01,8.91654e-01,9.99999e-01,9.99999e-01,9.99988e-01,8.91664e-01,9.99999e-01
4.553838212e-01,8.93679e-01,9.99999e-01,9.99999e-01,9.99992e-01,8.93686e-01,9.99999e-01
4.576607403e-01,8.95669e-01,9.99999e-01,9.99999e-01,9.99996e-01,8.95672e-01,9.99999e-01
4.599490440e-01,8.97621e-01,9.99999e-01,9.99999e-01,9.99997e-01,8.97623e-01,9.99999e-01
4.622487892e-01,8.99540e-01,9.99999e-01,9.99999e-01,9.99999e-01,8.99540e-01,9.99999e-01
4.645600332e-01,9.01422e-01,9.99999e-01,9.99999e-01,9.99997e-01,9.01424e-01,9.99999e-01
4.668828333e-01,9.03248e-01,9.99999e-01,9.99999e-01,9.99971e-01,9.03273e-01,9.99999e-01
4.692172475e-01,9.05036e-01,9.99999e-01,9.99999e-01,9.99939e-01,9.05090e-01,9.99999e-01
4.715633337e-01,9.06839e-01,9.99999e-01,9.99999e-01,9.99960e-01,9.06875e-01,9.99999e-01
4.739211504e-01,9.08593e-01,9.99999e-01,9.99999e-01,9.99962e-01,9.08627e-01,9.99999e-01
4.762907561e-01,9.10331e-01,9.99999e-01,9.99999e-01,9.99980e-01,9.10349e-01,9.99999e-01
4.786722099e-01,9.12032e-01,9.99999e-01,9.99999e-01,9.99991e-01,9.12039e-01,9.99999e-01
4.810655710e-01,9.13697e-01,9.99999e-01,9.99999e-01,9.99997e-01,9.13699e-01,9.99999e-01
4.834708988e-01,9.15308e-01,9.99999e-01,9.99999e-01,9.99976e-01,9.15330e-01,9.99999e-01
4.858882533e-01,9.16892e-01,9.99999e-01,9.99999e-01,9.99957e-01,9.16931e-01,9.99999e-01
4.883176946e-01,9.18470e-01,9.99999e-01,9.99999e-01,9.99963e-01,9.18503e-01,9.99999e-01
4.907592831e-01,9.20017e-01,9.99999e-01,9.99999e-01,9.99967e-01,9.20046e-01,9.99999e-01
4.932130795e-01,9.21541e-01,9.99999e-01,9.99999e-01,9.99976e-01,9.21562e-01,9.99999e-01
4.956791449e-01,9.23039e-01,9.99999e-01,9.99999e-01,9.99987e-01,9.23050e-01,9.99999e-01
4.981575406e-01,9.24455e-01,9.99999e-01,9.99999e-01,9.99938e-01,9.24511e-01,9.99999e-01
5.006483283e-01,9.25798e-01,9.99999e-01,9.99999e-01,9.99841e-01,9.25946e-01,9.99998e-01
5.031515699e-01,9.26610e-01,9.99999e-01,9.99999e-01,9.99205e-01,9.27354e-01,9.99991e-01
5.056673278e-01,9.28340e-01,9.99999e-01,9.99999e-01,9.99582e-01,9.28736e-01,9.99989e-01
5.081956644e-01,9.29599e-01,9.99999e-01,9.99999e-01,9.99473e-01,9.30094e-01,9.99993e-01
5.107366428e-01,9.31094e-01,9.99999e-01,9.99999e-01,9.99644e-01,9.31426e-01,9.99998e-01
5.132903260e-01,9.32545e-01,9.99999e-01,9.99999e-01,9.99796e-01,9.32734e-01,9.99999e-01
5.158567776e-01,9.33938e-01,9.99999e-01,9.99999e-01,9.99914e-01,9.34018e-01,9.99999e-01
5.184360615e-01,9.35246e-01,9.99999e-01,9.99999e-01,9.99965e-01,9.35278e-01,9.99999e-01
5.210282418e-01,9.36503e-01,9.99999e-01,9.99999e-01,9.99986e-01,9.36515e-01,9.99999e-01
5.236333830e-01,9.37680e-01,9.99999e-01,9.99999e-01,9.99947e-01,9.37729e-01,9.99999e-01
5.262515499e-01,9.38890e-01,9.99999e-01,9.99999e-01,9.99967e-01,9.38920e-01,9.99998e-01
5.288828077e-01,9.40062e-01,9.99999e-01,9.99999e-01,9.99969e-01,9.40090e-01,9.99999e-01
5.315272217e-01,9.41213e-01,9.99999e-01,9.99999e-01,9.99973e-01,9.41238e-01,9.99999e-01
5.341848578e-01,9.42348e-01,9.99999e-01,9.99999e-01,9.99982e-01,9.42364e-01,9.99999e-01
5.368557821e-01,9.43413e-01,9.99999e-01,9.99999e-01,9.99939e-01,9.43470e-01,9.99999e-01
5.395400610e-01,9.44346e-01,9.99999e-01,9.99999e-01,9.99780e-01,9.44555e-01,9.99997e-01
5.422377613e-01,9.45351e-01,9.99999e-01,9.99999e-01,9.99719e-01,9.45620e-01,9.99994e-01
5.449489501e-01,9.46412e-01,9.99999e-01,9.99999e-01,9.99737e-01,9.46665e-01,9.99994e-01
5.476736949e-01,9.47470e-01,9.99999e-01,9.99999e-01,9.99769e-01,9.47690e-01,9.99996e-01
5.504120634e-01,9.48537e-01,9.99999e-01,9.99999e-01,9.99832e-01,9.48696e-01,9.99998e-01
5.531641237e-01,9.49604e-01,9.99999e-01,9.99999e-01,9.99915e-01,9.49684e-01,9.99999e-01
5.559299443e-01,9.50614e-01,9.99999e-01,9.99999e-01,9.99959e-01,9.50653e-01,9.99999e-01
5.587095940e-01,9.51579e-01,9.99999e-01,9.99999e-01,9.99974e-01,9.51604e-01,9.99999e-01
5.615031420e-01,9.52509e-01,9.99999e-01,9.99999e-01,9.99971e-01,9.52536e-01,9.99999e-01
5.643106577e-01,9.53420e-01,9.99999e-01,9.99999e-01,9.99966e-01,9.53452e-01,9.99999e-01
5.671322110e-01,9.53966e-01,9.99999e-01,9.99999e-01,9.99600e-01,9.54350e-01,9.99996e-01
5.699678720e-01,9.54826e-01,9.99999e-01,9.99999e-01,9.99586e-01,9.55231e-01,9.99988e-01
5.728177114e-01,9.55672e-01,9.99999e-01,9.99999e-01,9.99564e-01,9.56096e-01,9.99990e-01
5.756818000e-01,9.56558e-01,9.99999e-01,9.99999e-01,9.99601e-01,9.56944e-01,9.99994e-01
5.785602090e-01,9.57443e-01,9.99999e-01,9.99999e-01,9.99653e-01,9.57776e-01,9.99998e-01
5.814530100e-01,9.58258e-01,9.99999e-01,9.99999e-01,9.99650e-01,9.58593e-01,9.99998e-01
5.843602750e-01,9.58990e-01,9.99999e-01,9.99999e-01,9.99581e-01,9.59394e-01,9.99997e-01
5.872820764e-01,9.56696e-01,9.99999e-01,9.99999e-01,9.96396e-01,9.60179e-01,9.99974e-01
5.902184868e-01,9.56727e-01,9.99999e-01,9.99999e-01,9.95672e-01,9.60950e-01,9.99930e-01
5.931695792e-01,9.58694e-01,9.99999e-01,9.99999e-01,9.96932e-01,9.61707e-01,9.99933e-01
5.961354271e-01,9.59184e-01,9.99999e-01,9.99999e-01,9.96644e-01,9.62449e-01,9.99961e-01
5.991161043e-01,9.60811e-01,9.99999e-01,9.99999e-01,9.97555e-01,9.63177e-01,9.99987e-01
6.021116848e-01,9.62554e-01,9.99999e-01,9.99999e-01,9.98613e-01,9.63891e-01,9.99998e-01
6.051222432e-01,9.63915e-01,9.99999e-01,9.99999e-01,9.99298e-01,9.64591e-01,9.99999e-01
6.081478544e-01,9.64986e-01,9.99999e-01,9.99999e-01,9.99696e-01,9.65278e-01,9.99999e-01
6.111885937e-01,9.65829e-01,9.99999e-01,9.99999e-01,9.99871e-01,9.65952e-01,9.99999e-01
6.142445367e-01,9.66558e-01,9.99999e-01,9.99999e-01,9.99942e-01,9.66613e-01,9.99999e-01
6.173157594e-01,9.67231e-01,9.99999e-01,9.99999e-01,9.99967e-01,9.67262e-01,9.99999e-01
6.204023382e-01,9.67872e-01,9.99999e-01,9.99999e-01,9.99972e-01,9.67898e-01,9.99999e-01
6.235043498e-01,9.68406e-01,9.99999e-01,9.99999e-01,9.99879e-01,9.68522e-01,9.99999e-01
6.266218716e-01,9.68525e-01,9.99999e-01,9.99999e-01,9.99375e-01,9.69134e-01,9.99995e-01
6.297549810e-01,9.69504e-01,9.99999e-01,9.99999e-01,9.99770e-01,9.69734e-01,9.99990e-01
6.329037559e-01,9.69879e-01,9.99999e-01,9.99999e-01,9.99548e-01,9.70323e-01,9.99992e-01
6.360682746e-01,9.70522e-01,9.99999e-01,9.99999e-01,9.99613e-01,9.70901e-01,9.99995e-01
6.392486160e-01,9.70981e-01,9.99999e-01,9.99999e-01,9.99500e-01,9.71467e-01,9.99997e-01
6.424448591e-01,9.71365e-01,9.99999e-01,9.99999e-01,9.99326e-01,9.72023e-01,9.99996e-01
6.456570834e-01,9.69511e-01,9.99999e-01,9.99999e-01,9.96874e-01,9.72568e-01,9.99980e-01
6.488853688e-01,9.70852e-01,9.99999e-01,9.99999e-01,9.97734e-01,9.73102e-01,9.99951e-01
6.521297956e-01,9.71340e-01,9.99999e-01,9.99999e-01,9.97691e-01,9.73627e-01,9.99959e-01
6.553904446e-01,9.71864e-01,9.99999e-01,9.99999e-01,9.97692e-01,9.74141e-01,9.99969e-01
6.586673968e-01,9.72717e-01,9.99999e-01,9.99999e-01,9.98031e-01,9.74645e-01,9.99989e-01
6.619607338e-01,9.74068e-01,9.99999e-01,9.99999e-01,9.98902e-01,9.75139e-01,9.99997e-01
6.652705375e-01,9.74981e-01,9.99999e-01,9.99999e-01,9.99341e-01,9.75624e-01,9.99998e-01
6.685968902e-01,9.75827e-01,9.99999e-01,9.99999e-01,9.99720e-01,9.76100e-01,9.99999e-01
6.719398746e-01,9.76428e-01,9.99999e-01,9.99999e-01,9.99858e-01,9.76567e-01,9.99999e-01
6.752995740e-01,9.76951e-01,9.99999e-01,9.99999e-01,9.99924e-01,9.77024e-01,9.99999e-01
6.786760719e-01,9.77363e-01,9.99999e-01,9.99999e-01,9.99887e-01,9.77473e-01,9.99999e-01
6.820694522e-01,9.77725e-01,9.99999e-01,9.99999e-01,9.99808e-01,9.77913e-01,9.99998e-01
6.854797995e-01,9.78102e-01,9.99999e-01,9.99999e-01,9.99753e-01,9.78344e-01,9.99997e-01
6.889071985e-01,9.78171e-01,9.99999e-01,9.99999e-01,9.99395e-01,9.78767e-01,9.99994e-01
6.923517345e-01,9.69598e-01,9.99999e-01,9.99999e-01,9.90257e-01,9.79182e-01,9.99953e-01
6.958134932e-01,9.74612e-01,9.99999e-01,9.99999e-01,9.95020e-01,9.79589e-01,9.99896e-01
6.992925606e-01,9.75174e-01,9.99999e-01,9.99999e-01,9.95179e-01,9.79988e-01,9.99906e-01
7.027890234e-01,9.74522e-01,9.99999e-01,9.99999e-01,9.94094e-01,9.80380e-01,9.99928e-01
7.063029686e-01,9.75855e-01,9.99999e-01,9.99999e-01,9.95029e-01,9.80764e-01,9.99964e-01
7.098344834e-01,9.76441e-01,9.99999e-01,9.99999e-01,9.95231e-01,9.81140e-01,9.99978e-01
7.133836558e-01,9.75161e-01,9.99999e-01,9.99999e-01,9.93573e-01,9.81509e-01,9.99958e-01
7.169505741e-01,9.32123e-01,9.99999e-01,9.99999e-01,9.49642e-01,9.81871e-01,9.99673e-01
7.205353270e-01,9.57581e-01,9.99999e-01,9.99999e-01,9.75469e-01,9.82226e-01,9.99424e-01
7.241380036e-01,9.51137e-01,9.99999e-01,9.99999e-01,9.68486e-01,9.82574e-01,9.99502e-01
7.277586936e-01,9.54559e-01,9.99999e-01,9.99999e-01,9.71545e-01,9.82915e-01,9.99593e-01
7.313974871e-01,9.53529e-01,9.99999e-01,9.99999e-01,9.69957e-01,9.83250e-01,9.99809e-01
7.350544745e-01,9.67245e-01,9.99999e-01,9.99999e-01,9.83458e-01,9.83578e-01,9.99933e-01
7.387297469e-01,9.71881e-01,9.99999e-01,9.99999e-01,9.87814e-01,9.83899e-01,9.99969e-01
7.424233956e-01,9.78339e-01,9.99999e-01,9.99999e-01,9.94034e-01,9.84215e-01,9.99994e-01
7.461355126e-01,9.80956e-01,9.99999e-01,9.99999e-01,9.96376e-01,9.84524e-01,9.99998e-01
7.498661902e-01,9.83169e-01,9.99999e-01,9.99999e-01,9.98316e-01,9.84828e-01,9.99999e-01
7.536155211e-01,9.84309e-01,9.99999e-01,9.99999e-01,9.99171e-01,9.85125e-01,9.99999e-01
7.573835987e-01,9.84997e-01,9.99999e-01,9.99999e-01,9.99573e-01,9.85417e-01,9.99999e-01
7.611705167e-01,9.85442e-01,9.99999e-01,9.99999e-01,9.99734e-01,9.85703e-01,9.99999e-01
7.649763693e-01,9.85819e-01,9.99999e-01,9.99999e-01,9.99833e-01,9.85983e-01,9.99999e-01
7.688012511e-01,9.86144e-01,9.99999e-01,9.99999e-01,9.99883e-01,9.86258e-01,9.99999e-01
7.726452574e-01,9.86433e-01,9.99999e-01,9.99999e-01,9.99904e-01,9.86528e-01,9.99999e-01
7.765084837e-01,9.86657e-01,9.99999e-01,9.99999e-01,9.99863e-01,9.86792e-01,9.99999e-01
7.803910261e-01,9.86467e-01,9.99999e-01,9.99999e-01,9.99408e-01,9.87051e-01,9.99998e-01
7.842929812e-01,9.85265e-01,9.99999e-01,9.99999e-01,9.97936e-01,9.87305e-01,9.99995e-01
7.882144461e-01,9.83365e-01,9.99999e-01,9.99999e-01,9.95786e-01,9.87554e-01,9.99970e-01
7.921555184e-01,9.85476e-01,9.99999e-01,9.99999e-01,9.97698e-01,9.87799e-01,9.99949e-01
7.961162960e-01,9.83932e-01,9.99999e-01,9.99999e-01,9.95891e-01,9.88038e-01,9.99951e-01
8.000968774e-01,9.83561e-01,9.99999e-01,9.99999e-01,9.95281e-01,9.88273e-01,9.99948e-01
8.040973618e-01,9.83794e-01,9.99999e-01,9.99999e-01,9.95273e-01,9.88503e-01,9.99960e-01
8.081178486e-01,9.78122e-01,9.99999e-01,9.99999e-01,9.89310e-01,9.88729e-01,9.99960e-01
8.121584379e-01,9.45505e-01,9.99999e-01,9.99999e-01,9.56210e-01,9.88951e-01,9.99850e-01
8.162192301e-01,9.37877e-01,9.99999e-01,9.99999e-01,9.48678e-01,9.89168e-01,9.99439e-01
8.203003262e-01,9.62690e-01,9.99999e-01,9.99999e-01,9.73661e-01,9.89380e-01,9.99344e-01
8.244018279e-01,9.53668e-01,9.99999e-01,9.99999e-01,9.64203e-01,9.89589e-01,9.99477e-01
8.285238370e-01,9.58610e-01,9.99999e-01,9.99999e-01,9.68890e-01,9.89794e-01,9.99589e-01
8.326664562e-01,9.58818e-01,9.99999e-01,9.99999e-01,9.68672e-01,9.89994e-01,9.99830e-01
8.368297885e-01,9.67948e-01,9.99999e-01,9.99999e-01,9.77574e-01,9.90191e-01,9.99960e-01
8.410139374e-01,9.77117e-01,9.99999e-01,9.99999e-01,9.86626e-01,9.90384e-01,9.99976e-01
8.452190071e-01,9.84052e-01,9.99999e-01,9.99999e-01,9.93430e-01,9.90573e-01,9.99985e-01
8.494451021e-01,9.86955e-01,9.99999e-01,9.99999e-01,9.96171e-01,9.90758e-01,9.99988e-01
8.536923276e-01,9.88696e-01,9.99999e-01,9.99999e-01,9.97741e-01,9.90940e-01,9.99992e-01
8.579607893e-01,9.89734e-01,9.99999e-01,9.99999e-01,9.98605e-01,9.91118e-01,9.99997e-01
8.622505932e-01,9.90416e-01,9.99999e-01,9.99999e-01,9.99115e-01,9.91292e-01,9.99999e-01
8.665618462e-01,9.90920e-01,9.99999e-01,9.99999e-01,9.99450e-01,9.91464e-01,9.99999e-01
8.708946554e-01,9.91007e-01,9.99999e-01,9.99999e-01,9.99370e-01,9.91632e-01,9.99999e-01
8.752491287e-01,9.90961e-01,9.99999e-01,9.99999e-01,9.99158e-01,9.91796e-01,9.99998e-01
8.796253743e-01,9.90796e-01,9.99999e-01,9.99999e-01,9.98830e-01,9.91958e-01,9.99996e-01
8.840235012e-01,9.90784e-01,9.99999e-01,9.99999e-01,9.98665e-01,9.92116e-01,9.99991e-01
8.884436187e-01,9.87343e-01,9.99999e-01,9.99999e-01,9.95056e-01,9.92271e-01,9.99976e-01
8.928858368e-01,9.42294e-01,9.99999e-01,9.99999e-01,9.49614e-01,9.92423e-01,9.99866e-01
8.973502660e-01,9.05881e-01,9.99999e-01,9.99999e-01,9.13281e-01,9.92572e-01,9.99318e-01
9.018370173e-01,9.47117e-01,9.99999e-01,9.99999e-01,9.55085e-01,9.92718e-01,9.98929e-01
9.063462024e-01,9.52030e-01,9.99999e-01,9.99999e-01,9.59776e-01,9.92862e-01,9.99059e-01
9.108779334e-01,9.30784e-01,9.99999e-01,9.99999e-01,9.38260e-01,9.93002e-01,9.99022e-01
9.154323231e-01,9.23170e-01,9.99999e-01,9.99999e-01,9.30297e-01,9.93140e-01,9.99191e-01
9.200094847e-01,9.38328e-01,9.99999e-01,9.99999e-01,9.45107e-01,9.93275e-01,9.99547e-01
9.246095321e-01,9.07385e-01,9.99999e-01,9.99999e-01,9.13882e-01,9.93407e-01,9.99478e-01
9.292325798e-01,5.47684e-01,9.99999e-01,9.99999e-01,5.52635e-01,9.93537e-01,9.97487e-01
9.338787427e-01,4.61494e-01,9.99999e-01,9.99999e-01,4.68678e-01,9.93664e-01,9.90947e-01
9.385481364e-01,7.24947e-01,9.99999e-01,9.99999e-01,7.36801e-01,9.93789e-01,9.90059e-01
9.432408771e-01,6.42597e-01,9.99999e-01,9.99999e-01,6.52129e-01,9.93911e-01,9.91417e-01
9.479570815e-01,5.48359e-01,9.99999e-01,9.99999e-01,5.55534e-01,9.94031e-01,9.93009e-01
9.526968669e-01,6.37892e-01,9.99999e-01,9.99999e-01,6.44397e-01,9.94149e-01,9.95730e-01
9.574603512e-01,6.60730e-01,9.99999e-01,9.99999e-01,6.65987e-01,9.94264e-01,9.97828e-01
9.622476530e-01,7.13599e-01,9.99999e-01,9.99999e-01,7.18712e-01,9.94377e-01,9.98497e-01
9.670588912e-01,8.20929e-01,9.99999e-01,9.99999e-01,8.26327e-01,9.94488e-01,9.98972e-01
9.718941857e-01,8.81854e-01,9.99999e-01,9.99999e-01,8.87316e-01,9.94596e-01,9.99243e-01
9.767536566e-01,9.00176e-01,9.99999e-01,9.99999e-01,9.05492e-01,9.94703e-01,9.99421e-01
9.816374249e-01,9.24221e-01,9.99999e-01,9.99999e-01,9.29230e-01,9.94807e-01,9.99799e-01
9.865456120e-01,9.50293e-01,9.99999e-01,9.99999e-01,9.55195e-01,9.94909e-01,9.99957e-01
9.914783401e-01,9.67192e-01,9.99999e-01,9.99999e-01,9.72053e-01,9.95009e-01,9.99987e-01
9.964357318e-01,9.79866e-01,9.99999e-01,9.99999e-01,9.84689e-01,9.95108e-01,9.99992e-01
1.001417910e+00,9.86040e-01,9.99999e-01,9.99999e-01,9.90801e-01,9.95204e-01,9.99989e-01
1.006425000e+00,9.90046e-01,9.99999e-01,9.99999e-01,9.94736e-01,9.95299e-01,9.99984e-01
1.011457125e+00,9.92131e-01,9.99999e-01,9.99999e-01,9.96737e-01,9.95391e-01,9.99985e-01
1.016514411e+00,9.93265e-01,9.99999e-01,9.99999e-01,9.97781e-01,9.95482e-01,9.99989e-01
1.021596983e+00,9.93801e-01,9.99999e-01,9.99999e-01,9.98230e-01,9.95571e-01,9.99990e-01
1.026704968e+00,9.94278e-01,9.99999e-01,9.99999e-01,9.98619e-01,9.95658e-01,9.99993e-01
1.031838492e+00,9.94745e-01,9.99999e-01,9.99999e-01,9.98998e-01,9.95744e-01,9.99997e-01
1.036997685e+00,9.95234e-01,9.99999e-01,9.99999e-01,9.99403e-01,9.95828e-01,9.99999e-01
1.042182673e+00,9.95200e-01,9.99999e-01,9.99999e-01,9.99286e-01,9.95910e-01,9.99999e-01
1.047393587e+00,9.95051e-01,9.99999e-01,9.99999e-01,9.99055e-01,9.95991e-01,9.99999e-01
1.052630555e+00,9.94778e-01,9.99999e-01,9.99999e-01,9.98702e-01,9.96070e-01,9.99999e-01
1.057893707e+00,9.93987e-01,9.99999e-01,9.99999e-01,9.97832e-01,9.96147e-01,9.99998e-01
1.063183176e+00,9.92673e-01,9.99999e-01,9.99999e-01,9.96437e-01,9.96223e-01,9.99997e-01
1.068499092e+00,9.90365e-01,9.99999e-01,9.99999e-01,9.94048e-01,9.96298e-01,9.99995e-01
1.073841587e+00,9.89412e-01,9.99999e-01,9.99999e-01,9.93024e-01,9.96371e-01,9.99990e-01
1.079210795e+00,9.87548e-01,9.99999e-01,9.99999e-01,9.91096e-01,9.96442e-01,9.99975e-01
1.084606849e+00,9.83032e-01,9.99999e-01,9.99999e-01,9.86528e-01,9.96512e-01,9.99942e-01
1.090029883e+00,9.77123e-01,9.99999e-01,9.99999e-01,9.80590e-01,9.96581e-01,9.99880e-01
1.095480033e+00,9.44705e-01,9.99999e-01,9.99999e-01,9.48084e-01,9.96648e-01,9.99784e-01
1.100957433e+00,8.70149e-01,9.99999e-01,9.99999e-01,8.73362e-01,9.96714e-01,9.99604e-01
1.106462220e+00,7.06271e-01,9.99999e-01,9.99999e-01,7.09027e-01,9.96779e-01,9.99329e-01
1.111994531e+00,4.85786e-01,9.99999e-01,9.99999e-01,4.88191e-01,9.96843e-01,9.98222e-01
1.117554504e+00,3.12180e-01,9.99999e-01,9.99999e-01,3.15167e-01,9.96905e-01,9.93597e-01
1.123142276e+00,4.25075e-01,9.99999e-01,9.99999e-01,4.32912e-01,9.96966e-01,9.84885e-01
1.128757988e+00,5.68804e-01,9.99999e-01,9.99999e-01,5.80640e-01,9.97026e-01,9.82535e-01
1.134401778e+00,3.19984e-01,9.99999e-01,9.99999e-01,3.25763e-01,9.97084e-01,9.85130e-01
1.140073787e+00,7.10632e-01,9.99999e-01,9.99999e-01,7.21250e-01,9.97142e-01,9.88101e-01
1.145774156e+00,5.02382e-01,9.99999e-01,9.99999e-01,5.09343e-01,9.97198e-01,9.89102e-01
1.151503026e+00,4.68039e-01,9.99999e-01,9.99999e-01,4.72201e-01,9.97254e-01,9.93914e-01
1.157260541e+00,5.29474e-01,9.99999e-01,9.99999e-01,5.31872e-01,9.97308e-01,9.98176e-01
1.163046844e+00,6.25307e-01,9.99999e-01,9.99999e-01,6.27285e-01,9.97361e-01,9.99482e-01
1.168862078e+00,7.20590e-01,9.99999e-01,9.99999e-01,7.22651e-01,9.97413e-01,9.99733e-01
1.174706389e+00,8.15923e-01,9.99999e-01,9.99999e-01,8.18285e-01,9.97464e-01,9.99646e-01
1.180579921e+00,8.82375e-01,9.99999e-01,9.99999e-01,8.85045e-01,9.97514e-01,9.99465e-01
1.186482820e+00,9.30475e-01,9.99999e-01,9.99999e-01,9.33259e-01,9.97563e-01,9.99451e-01
1.192415234e+00,9.57775e-01,9.99999e-01,9.99999e-01,9.60462e-01,9.97611e-01,9.99589e-01
1.198377311e+00,9.63880e-01,9.99999e-01,9.99999e-01,9.66518e-01,9.97658e-01,9.99610e-01
1.204369197e+00,9.65767e-01,9.99999e-01,9.99999e-01,9.68317e-01,9.97704e-01,9.99660e-01
1.210391043e+00,9.67298e-01,9.99999e-01,9.99999e-01,9.69686e-01,9.97750e-01,9.99786e-01
1.216442998e+00,9.71930e-01,9.99999e-01,9.99999e-01,9.74205e-01,9.97794e-01,9.99868e-01
1.222525213e+00,9.77649e-01,9.99999e-01,9.99999e-01,9.79846e-01,9.97837e-01,9.99918e-01
1.228637839e+00,9.83829e-01,9.99999e-01,9.99999e-01,9.85955e-01,9.97880e-01,9.99961e-01
