#,Wave/freq,Total,N2,O2,H2O,Rayleigh,CIA
4.000000000e-01,3.26162e-01,9.99999e-01,9.99999e-01,9.99873e-01,3.26203e-01,9.99999e-01
4.020000000e-01,3.33483e-01,9.99999e-01,9.99999e-01,9.99920e-01,3.33510e-01,9.99999e-01
4.040100000e-01,3.40811e-01,9.99999e-01,9.99999e-01,9.99966e-01,3.40822e-01,9.99999e-01
4.060300500e-01,3.48144e-01,9.99999e-01,9.99999e-01,9.99991e-01,3.48146e-01,9.99999e-01
4.080602003e-01,3.55478e-01,9.99999e-01,9.99999e-01,9.99997e-01,3.55478e-01,9.99999e-01
4.101005013e-01,3.62815e-01,9.99999e-01,9.99999e-01,9.99999e-01,3.62815e-01,9.99999e-01
4.121510038e-01,3.70153e-01,9.99999e-01,9.99999e-01,9.99994e-01,3.70155e-01,9.99999e-01
4.142117588e-01,3.77480e-01,9.99999e-01,9.99999e-01,9.99965e-01,3.77493e-01,9.99999e-01
4.162828176e-01,3.84767e-01,9.99999e-01,9.99999e-01,9.99842e-01,3.84827e-01,9.99999e-01
4.183642317e-01,3.92118e-01,9.99999e-01,9.99999e-01,9.99906e-01,3.92155e-01,9.99999e-01
4.204560528e-01,3.99451e-01,9.99999e-01,9.99999e-01,9.99942e-01,3.99473e-01,9.99999e-01
4.225583331e-01,4.06771e-01,9.99999e-01,9.99999e-01,9.99978e-01,4.06780e-01,9.99999e-01
4.246711247e-01,4.14065e-01,9.99999e-01,9.99999e-01,9.99982e-01,4.14072e-01,9.99999e-01
4.267944804e-01,4.21336e-01,9.99999e-01,9.99999e-01,9.99974e-01,4.21346e-01,9.99999e-01
4.289284528e-01,4.28593e-01,9.99999e-01,9.99999e-01,9.99980e-01,4.28601e-01,9.99999e-01
4.310730950e-01,4.35831e-01,9.99999e-01,9.99999e-01,9.99991e-01,4.35834e-01,9.99999e-01
4.332284605e-01,4.43042e-01,9.99999e-01,9.99999e-01,9.99997e-01,4.43043e-01,9.99999e-01
4.353946028e-01,4.50224e-01,9.99999e-01,9.99999e-01,9.99998e-01,4.50225e-01,9.99999e-01
4.375715758e-01,4.57371e-01,9.99999e-01,9.99999e-01,9.99984e-01,4.57378e-01,9.99999e-01
4.397594337e-01,4.64436e-01,9.99999e-01,9.99999e-01,9.99863e-01,4.64500e-01,9.99999e-01
4.419582309e-01,4.71262e-01,9.99999e-01,9.99999e-01,9.99307e-01,4.71588e-01,9.99999e-01
4.441680220e-01,4.78381e-01,9.99999e-01,9.99999e-01,9.99452e-01,4.78642e-01,9.99999e-01
4.463888621e-01,4.85384e-01,9.99999e-01,9.99999e-01,9.99432e-01,4.85659e-01,9.99999e-01
4.486208064e-01,4.92463e-01,9.99999e-01,9.99999e-01,9.99646e-01,4.92637e-01,9.99999e-01
4.508639105e-01,4.99492e-01,9.99999e-01,9.99999e-01,9.99834e-01,4.99575e-01,9.99999e-01
4.531182300e-01,5.06437e-01,9.99999e-01,9.99999e-01,9.99934e-01,5.06470e-01,9.99999e-01
4.553838212e-01,5.13299e-01,9.99999e-01,9.99999e-01,9.99955e-01,5.13322e-01,9.99999e-01
4.576607403e-01,5.20118e-01,9.99999e-01,9.99999e-01,9.99979e-01,5.20128e-01,9.99999e-01
4.599490440e-01,5.26880e-01,9.99999e-01,9.99999e-01,9.99985e-01,5.26887e-01,9.99999e-01
4.622487892e-01,5.33597e-01,9.99999e-01,9.99999e-01,9.99997e-01,5.33599e-01,9.99999e-01
4.645600332e-01,5.40255e-01,9.99999e-01,9.99999e-01,9.99989e-01,5.40260e-01,9.99999e-01
4.668828333e-01,5.46780e-01,9.99999e-01,9.99999e-01,9.99833e-01,5.46871e-01,9.99999e-01
4.692172475e-01,5.53232e-01,9.99999e-01,9.99999e-01,9.99643e-01,5.53429e-01,9.99999e-01
4.715633337e-01,5.59804e-01,9.99999e-01,9.99999e-01,9.99767e-01,5.59934e-01,9.99999e-01
4.739211504e-01,5.66259e-01,9.99999e-01,9.99999e-01,9.99776e-01,5.66385e-01,9.99999e-01
4.762907561e-01,5.72715e-01,9.99999e-01,9.99999e-01,9.99883e-01,5.72781e-01,9.99999e-01
4.786722099e-01,5.79093e-01,9.99999e-01,9.99999e-01,9.99952e-01,5.79121e-01,9.99999e-01
4.810655710e-01,5.85395e-01,9.99999e-01,9.99999e-01,9.99985e-01,5.85403e-01,9.99999e-01
4.834708988e-01,5.91548e-01,9.99999e-01,9.99999e-01,9.99865e-01,5.91627e-01,9.99999e-01
4.858882533e-01,5.97642e-01,9.99999e-01,9.99999e-01,9.99747e-01,5.97793e-01,9.99999e-01
4.883176946e-01,6.03772e-01,9.99999e-01,9.99999e-01,9.99789e-01,6.03899e-01,9.99999e-01
4.907592831e-01,6.09829e-01,9.99999e-01,9.99999e-01,9.99808e-01,6.09945e-01,9.99999e-01
4.932130795e-01,6.15848e-01,9.99999e-01,9.99999e-01,9.99864e-01,6.15931e-01,9.99999e-01
4.956791449e-01,6.21811e-01,9.99999e-01,9.99999e-01,9.99928e-01,6.21855e-01,9.99999e-01
4.981575406e-01,6.27494e-01,9.99999e-01,9.99999e-01,9.99643e-01,6.27718e-01,9.99999e-01
5.006483283e-01,6.32931e-01,9.99999e-01,9.99999e-01,9.99078e-01,6.33518e-01,9.99993e-01
5.031515699e-01,6.36233e-01,9.99999e-01,9.99999e-01,9.95319e-01,6.39256e-01,9.99950e-01
5.056673278e-01,6.43296e-01,9.99999e-01,9.99999e-01,9.97521e-01,6.44931e-01,9.99943e-01
5.081956644e-01,6.48485e-01,9.99999e-01,9.99999e-01,9.96873e-01,6.50543e-01,9.99963e-01
5.107366428e-01,6.54701e-01,9.99999e-01,9.99999e-01,9.97887e-01,6.56091e-01,9.99992e-01
5.132903260e-01,6.60775e-01,9.99999e-01,9.99999e-01,9.98790e-01,6.61576e-01,9.99998e-01
5.158567776e-01,6.66656e-01,9.99999e-01,9.99999e-01,9.99488e-01,6.66996e-01,9.99999e-01
5.184360615e-01,6.72216e-01,9.99999e-01,9.99999e-01,9.99795e-01,6.72353e-01,9.99999e-01
5.210282418e-01,6.77594e-01,9.99999e-01,9.99999e-01,9.99923e-01,6.77646e-01,9.99999e-01
5.236333830e-01,6.82664e-01,9.99999e-01,9.99999e-01,9.99693e-01,6.82874e-01,9.99997e-01
5.262515499e-01,6.87905e-01,9.99999e-01,9.99999e-01,9.99807e-01,6.88039e-01,9.99996e-01
5.288828077e-01,6.93017e-01,9.99999e-01,9.99999e-01,9.99824e-01,6.93139e-01,9.99997e-01
5.315272217e-01,6.98067e-01,9.99999e-01,9.99999e-01,9.99844e-01,6.98176e-01,9.99999e-01
5.341848578e-01,7.03077e-01,9.99999e-01,9.99999e-01,9.99898e-01,7.03148e-01,9.99999e-01
5.368557821e-01,7.07805e-01,9.99999e-01,9.99999e-01,9.99644e-01,7.08057e-01,9.99998e-01
5.395400610e-01,7.11983e-01,9.99999e-01,9.99999e-01,9.98721e-01,7.12902e-01,9.99988e-01
5.422377613e-01,7.16467e-01,9.99999e-01,9.99999e-01,9.98335e-01,7.17683e-01,9.99969e-01
5.449489501e-01,7.21265e-01,9.99999e-01,9.99999e-01,9.98457e-01,7.22401e-01,9.99968e-01
5.476736949e-01,7.26047e-01,9.99999e-01,9.99999e-01,9.98627e-01,7.27056e-01,9.99984e-01
5.504120634e-01,7.30917e-01,9.99999e-01,9.99999e-01,9.99004e-01,7.31648e-01,9.99995e-01
5.531641237e-01,7.35808e-01,9.99999e-01,9.99999e-01,9.99498e-01,7.36177e-01,9.99998e-01
5.559299443e-01,7.40466e-01,9.99999e-01,9.99999e-01,9.99757e-01,7.40645e-01,9.99999e-01
5.587095940e-01,7.44937e-01,9.99999e-01,9.99999e-01,9.99848e-01,7.45050e-01,9.99999e-01
5.615031420e-01,7.49267e-01,9.99999e-01,9.99999e-01,9.99831e-01,7.49394e-01,9.99999e-01
5.643106577e-01,7.53532e-01,9.99999e-01,9.99999e-01,9.99810e-01,7.53676e-01,9.99997e-01
5.671322110e-01,7.56144e-01,9.99999e-01,9.99999e-01,9.97705e-01,7.57898e-01,9.99978e-01
5.699678720e-01,7.60122e-01,9.99999e-01,9.99999e-01,9.97520e-01,7.62059e-01,9.99936e-01
5.728177114e-01,7.64154e-01,9.99999e-01,9.99999e-01,9.97432e-01,7.66160e-01,9.99946e-01
5.756818000e-01,7.68361e-01,9.99999e-01,9.99999e-01,9.97641e-01,7.70202e-01,9.99967e-01
5.785602090e-01,7.72584e-01,9.99999e-01,9.99999e-01,9.97941e-01,7.74185e-01,9.99989e-01
5.814530100e-01,7.76499e-01,9.99999e-01,9.99999e-01,9.97935e-01,7.78108e-01,9.99995e-01
5.843602750e-01,7.80049e-01,9.99999e-01,9.99999e-01,9.97551e-01,7.81974e-01,9.99985e-01
5.872820764e-01,7.69262e-01,9.99999e-01,9.99999e-01,9.79122e-01,7.85782e-01,9.99850e-01
5.902184868e-01,7.69131e-01,9.99999e-01,9.99999e-01,9.74555e-01,7.89533e-01,9.99593e-01
5.931695792e-01,7.78659e-01,9.99999e-01,9.99999e-01,9.82023e-01,7.93227e-01,9.99604e-01
5.961354271e-01,7.80949e-01,9.99999e-01,9.99999e-01,9.80261e-01,7.96864e-01,9.99760e-01
5.991161043e-01,7.88825e-01,9.99999e-01,9.99999e-01,9.85548e-01,8.00446e-01,9.99930e-01
6.021116848e-01,7.97350e-01,9.99999e-01,9.99999e-01,9.91769e-01,8.03973e-01,9.99991e-01
6.051222432e-01,8.04076e-01,9.99999e-01,9.99999e-01,9.95826e-01,8.07446e-01,9.99998e-01
6.081478544e-01,8.09404e-01,9.99999e-01,9.99999e-01,9.98199e-01,8.10864e-01,9.99999e-01
6.111885937e-01,8.13608e-01,9.99999e-01,9.99999e-01,9.99236e-01,8.14229e-01,9.99999e-01
6.142445367e-01,8.17263e-01,9.99999e-01,9.99999e-01,9.99659e-01,8.17541e-01,9.99999e-01
6.173157594e-01,8.20647e-01,9.99999e-01,9.99999e-01,9.99811e-01,8.20801e-01,9.99999e-01
6.204023382e-01,8.23878e-01,9.99999e-01,9.99999e-01,9.99841e-01,8.24009e-01,9.99999e-01
6.235043498e-01,8.26592e-01,9.99999e-01,9.99999e-01,9.99307e-01,8.27165e-01,9.99997e-01
6.266218716e-01,8.27184e-01,9.99999e-01,9.99999e-01,9.96306e-01,8.30271e-01,9.99973e-01
6.297549810e-01,8.32155e-01,9.99999e-01,9.99999e-01,9.98644e-01,8.33327e-01,9.99947e-01
6.329037559e-01,8.34055e-01,9.99999e-01,9.99999e-01,9.97316e-01,8.36334e-01,9.99957e-01
6.360682746e-01,8.37358e-01,9.99999e-01,9.99999e-01,9.97720e-01,8.39292e-01,9.99974e-01
6.392486160e-01,8.39702e-01,9.99999e-01,9.99999e-01,9.97042e-01,8.42201e-01,9.99988e-01
6.424448591e-01,8.41722e-01,9.99999e-01,9.99999e-01,9.96063e-01,8.45063e-01,9.99982e-01
6.456570834e-01,8.32412e-01,9.99999e-01,9.99999e-01,9.81858e-01,8.47878e-01,9.99897e-01
6.488853688e-01,8.39022e-01,9.99999e-01,9.99999e-01,9.86615e-01,8.50646e-01,9.99714e-01
6.521297956e-01,8.41534e-01,9.99999e-01,9.99999e-01,9.86368e-01,8.53368e-01,9.99760e-01
6.553904446e-01,8.44332e-01,9.99999e-01,9.99999e-01,9.86493e-01,8.56045e-01,9.99820e-01
6.586673968e-01,8.48624e-01,9.99999e-01,9.99999e-01,9.88350e-01,8.58677e-01,9.99941e-01
6.619607338e-01,8.55438e-01,9.99999e-01,9.99999e-01,9.93245e-01,8.61265e-01,9.99987e-01
6.652705375e-01,8.60418e-01,9.99999e-01,9.99999e-01,9.96079e-01,8.63810e-01,9.99993e-01
6.685968902e-01,8.64732e-01,9.99999e-01,9.99999e-01,9.98177e-01,8.66311e-01,9.99998e-01
6.719398746e-01,8.68036e-01,9.99999e-01,9.99999e-01,9.99154e-01,8.68771e-01,9.99999e-01
6.752995740e-01,8.70790e-01,9.99999e-01,9.99999e-01,9.99542e-01,8.71188e-01,9.99999e-01
6.786760719e-01,8.72989e-01,9.99999e-01,9.99999e-01,9.99342e-01,8.73564e-01,9.99998e-01
6.820694522e-01,8.74908e-01,9.99999e-01,9.99999e-01,9.98872e-01,8.75900e-01,9.99993e-01
6.854797995e-01,8.76908e-01,9.99999e-01,9.99999e-01,9.98546e-01,8.78195e-01,9.99986e-01
6.889071985e-01,8.77358e-01,9.99999e-01,9.99999e-01,9.96517e-01,8.80451e-01,9.99968e-01
6.923517345e-01,8.33406e-01,9.99999e-01,9.99999e-01,9.44448e-01,8.82668e-01,9.99724e-01
6.958134932e-01,8.58151e-01,9.99999e-01,9.99999e-01,9.70433e-01,8.84847e-01,9.99377e-01
6.992925606e-01,8.61758e-01,9.99999e-01,9.99999e-01,9.72087e-01,8.86988e-01,9.99452e-01
7.027890234e-01,8.58052e-01,9.99999e-01,9.99999e-01,9.65493e-01,8.89091e-01,9.99579e-01
7.063029686e-01,8.65034e-01,9.99999e-01,9.99999e-01,9.70887e-01,8.91158e-01,9.99790e-01
7.098344834e-01,8.68108e-01,9.99999e-01,9.99999e-01,9.72039e-01,8.93189e-01,9.99876e-01
7.133836558e-01,8.62126e-01,9.99999e-01,9.99999e-01,9.63307e-01,8.95184e-01,9.99754e-01
7.169505741e-01,6.67757e-01,9.99999e-01,9.99999e-01,7.45754e-01,8.97144e-01,9.98068e-01
7.205353270e-01,7.73929e-01,9.99999e-01,9.99999e-01,8.63751e-01,8.99069e-01,9.96595e-01
7.241380036e-01,7.46374e-01,9.99999e-01,9.99999e-01,8.30862e-01,9.00961e-01,9.97059e-01
7.277586936e-01,7.61991e-01,9.99999e-01,9.99999e-01,8.46046e-01,9.02819e-01,9.97595e-01
7.313974871e-01,7.54986e-01,9.99999e-01,9.99999e-01,8.35508e-01,9.04644e-01,9.98873e-01
7.350544745e-01,8.21098e-01,9.99999e-01,9.99999e-01,9.06208e-01,9.06436e-01,9.99607e-01
7.387297469e-01,8.44298e-01,9.99999e-01,9.99999e-01,9.29809e-01,9.08197e-01,9.99820e-01
7.424233956e-01,8.77971e-01,9.99999e-01,9.99999e-01,9.64915e-01,9.09926e-01,9.99964e-01
7.461355126e-01,8.92109e-01,9.99999e-01,9.99999e-01,9.78599e-01,9.11624e-01,9.99993e-01
7.498661902e-01,9.04123e-01,9.99999e-01,9.99999e-01,9.89963e-01,9.13291e-01,9.99997e-01
7.536155211e-01,9.10420e-01,9.99999e-01,9.99999e-01,9.95072e-01,9.14929e-01,9.99998e-01
7.573835987e-01,9.14209e-01,9.99999e-01,9.99999e-01,9.97459e-01,9.16537e-01,9.99999e-01
7.611705167e-01,9.16667e-01,9.99999e-01,9.99999e-01,9.98421e-01,9.18116e-01,9.99999e-01
7.649763693e-01,9.18758e-01,9.99999e-01,9.99999e-01,9.99011e-01,9.19667e-01,9.99999e-01
7.688012511e-01,9.20556e-01,9.99999e-01,9.99999e-01,9.99311e-01,9.21189e-01,9.99999e-01
7.726452574e-01,9.22162e-01,9.99999e-01,9.99999e-01,9.99433e-01,9.22684e-01,9.99999e-01
7.765084837e-01,9.23411e-01,9.99999e-01,9.99999e-01,9.99198e-01,9.24152e-01,9.99998e-01
7.803910261e-01,9.22393e-01,9.99999e-01,9.99999e-01,9.96545e-01,9.25593e-01,9.99996e-01
7.842929812e-01,9.15860e-01,9.99999e-01,9.99999e-01,9.87996e-01,9.27008e-01,9.99977e-01
7.882144461e-01,9.05323e-01,9.99999e-01,9.99999e-01,9.75295e-01,9.28397e-01,9.99846e-01
7.921555184e-01,9.16797e-01,9.99999e-01,9.99999e-01,9.86348e-01,9.29760e-01,9.99704e-01
7.961162960e-01,9.08638e-01,9.99999e-01,9.99999e-01,9.76153e-01,9.31098e-01,9.99716e-01
8.000968774e-01,9.06376e-01,9.99999e-01,9.99999e-01,9.72368e-01,9.32412e-01,9.99698e-01
8.040973618e-01,9.07714e-01,9.99999e-01,9.99999e-01,9.72398e-01,9.33702e-01,9.99760e-01
8.081178486e-01,8.78087e-01,9.99999e-01,9.99999e-01,9.39372e-01,9.34968e-01,9.99775e-01
8.121584379e-01,7.23172e-01,9.99999e-01,9.99999e-01,7.73127e-01,9.36211e-01,9.99117e-01
8.162192301e-01,6.88168e-01,9.99999e-01,9.99999e-01,7.36538e-01,9.37430e-01,9.96687e-01
8.203003262e-01,8.07934e-01,9.99999e-01,9.99999e-01,8.64110e-01,9.38628e-01,9.96122e-01
8.244018279e-01,7.65073e-01,9.99999e-01,9.99999e-01,8.16598e-01,9.39803e-01,9.96912e-01
8.285238370e-01,7.81081e-01,9.99999e-01,9.99999e-01,8.32110e-01,9.40956e-01,9.97574e-01
8.326664562e-01,7.81748e-01,9.99999e-01,9.99999e-01,8.30636e-01,9.42088e-01,9.98996e-01
8.368297885e-01,8.24638e-01,9.99999e-01,9.99999e-01,8.74499e-01,9.43198e-01,9.99770e-01
8.410139374e-01,8.71638e-01,9.99999e-01,9.99999e-01,9.23186e-01,9.44288e-01,9.99865e-01
8.452190071e-01,9.08858e-01,9.99999e-01,9.99999e-01,9.61466e-01,9.45358e-01,9.99919e-01
8.494451021e-01,9.25038e-01,9.99999e-01,9.99999e-01,9.77482e-01,9.46408e-01,9.99935e-01
8.536923276e-01,9.34703e-01,9.99999e-01,9.99999e-01,9.86599e-01,9.47438e-01,9.99957e-01
8.579607893e-01,9.40605e-01,9.99999e-01,9.99999e-01,9.91740e-01,9.48449e-01,9.99988e-01
8.622505932e-01,9.44445e-01,9.99999e-01,9.99999e-01,9.94738e-01,9.49441e-01,9.99997e-01
8.665618462e-01,9.47325e-01,9.99999e-01,9.99999e-01,9.96749e-01,9.50415e-01,9.99998e-01
8.708946554e-01,9.47833e-01,9.99999e-01,9.99999e-01,9.96283e-01,9.51370e-01,9.99997e-01
8.752491287e-01,9.47567e-01,9.99999e-01,9.99999e-01,9.95027e-01,9.52307e-01,9.99994e-01
8.796253743e-01,9.46666e-01,9.99999e-01,9.99999e-01,9.93132e-01,9.53227e-01,9.99984e-01
8.840235012e-01,9.46600e-01,9.99999e-01,9.99999e-01,9.92155e-01,9.54129e-01,9.99951e-01
8.884436187e-01,9.28315e-01,9.99999e-01,9.99999e-01,9.72174e-01,9.55015e-01,9.99863e-01
8.928858368e-01,7.12858e-01,9.99999e-01,9.99999e-01,7.46346e-01,9.55883e-01,9.99212e-01
8.973502660e-01,5.69065e-01,9.99999e-01,9.99999e-01,5.97203e-01,9.56735e-01,9.95972e-01
9.018370173e-01,7.30623e-01,9.99999e-01,9.99999e-01,7.67852e-01,9.57572e-01,9.93674e-01
9.063462024e-01,7.55474e-01,9.99999e-01,9.99999e-01,7.92678e-01,9.58392e-01,9.94441e-01
9.108779334e-01,6.63632e-01,9.99999e-01,9.99999e-01,6.95880e-01,9.59197e-01,9.94224e-01
9.154323231e-01,6.30568e-01,9.99999e-01,9.99999e-01,6.60002e-01,9.59986e-01,9.95223e-01
9.200094847e-01,6.93313e-01,9.99999e-01,9.99999e-01,7.23565e-01,9.60761e-01,9.97323e-01
9.246095321e-01,5.97126e-01,9.99999e-01,9.99999e-01,6.22942e-01,9.61521e-01,9.96917e-01
9.292325798e-01,6.38925e-02,9.99999e-01,9.99999e-01,6.72021e-02,9.62266e-01,9.88031e-01
9.338787427e-01,2.29126e-02,9.99999e-01,9.99999e-01,2.50072e-02,9.62998e-01,9.51443e-01
9.385481364e-01,2.01605e-01,9.99999e-01,9.99999e-01,2.21953e-01,9.63715e-01,9.42518e-01
9.432408771e-01,1.28291e-01,9.99999e-01,9.99999e-01,1.39994e-01,9.64419e-01,9.50209e-01
9.479570815e-01,5.52877e-02,9.99999e-01,9.99999e-01,5.97178e-02,9.65109e-01,9.59285e-01
9.526968669e-01,1.03517e-01,9.99999e-01,9.99999e-01,1.09937e-01,9.65787e-01,9.74965e-01
9.574603512e-01,1.14803e-01,9.99999e-01,9.99999e-01,1.20328e-01,9.66451e-01,9.87204e-01
9.622476530e-01,1.62495e-01,9.99999e-01,9.99999e-01,1.69525e-01,9.67103e-01,9.91134e-01
9.670588912e-01,3.39387e-01,9.99999e-01,9.99999e-01,3.52842e-01,9.67742e-01,9.93928e-01
9.718941857e-01,4.84599e-01,9.99999e-01,9.99999e-01,5.02676e-01,9.68369e-01,9.95526e-01
9.767536566e-01,5.44632e-01,9.99999e-01,9.99999e-01,5.63993e-01,9.68984e-01,9.96579e-01
9.816374249e-01,6.30066e-01,9.99999e-01,9.99999e-01,6.50599e-01,9.69587e-01,9.98814e-01
9.865456120e-01,7.40055e-01,9.99999e-01,9.99999e-01,7.62991e-01,9.70179e-01,9.99752e-01
9.914783401e-01,8.20569e-01,9.99999e-01,9.99999e-01,8.45343e-01,9.70759e-01,9.99931e-01
9.964357318e-01,8.86302e-01,9.99999e-01,9.99999e-01,9.12500e-01,9.71328e-01,9.99959e-01
1.001417910e+00,9.19854e-01,9.99999e-01,9.99999e-01,9.46519e-01,9.71886e-01,9.99938e-01
1.006425000e+00,9.42368e-01,9.99999e-01,9.99999e-01,9.69165e-01,9.72434e-01,9.99912e-01
1.011457125e+00,9.54140e-01,9.99999e-01,9.99999e-01,9.80724e-01,9.72971e-01,9.99918e-01
1.016514411e+00,9.60673e-01,9.99999e-01,9.99999e-01,9.86882e-01,9.73498e-01,9.99942e-01
1.021596983e+00,9.63769e-01,9.99999e-01,9.99999e-01,9.89537e-01,9.74014e-01,9.99942e-01
1.026704968e+00,9.66526e-01,9.99999e-01,9.99999e-01,9.91833e-01,9.74521e-01,9.99961e-01
1.031838492e+00,9.69209e-01,9.99999e-01,9.99999e-01,9.94052e-01,9.75018e-01,9.99988e-01
1.036997685e+00,9.72058e-01,9.99999e-01,9.99999e-01,9.96467e-01,9.75505e-01,9.99997e-01
1.042182673e+00,9.71882e-01,9.99999e-01,9.99999e-01,9.95797e-01,9.75983e-01,9.99998e-01
1.047393587e+00,9.71008e-01,9.99999e-01,9.99999e-01,9.94424e-01,9.76452e-01,9.99998e-01
1.052630555e+00,9.69449e-01,9.99999e-01,9.99999e-01,9.92362e-01,9.76912e-01,9.99997e-01
1.057893707e+00,9.64941e-01,9.99999e-01,9.99999e-01,9.87294e-01,9.77363e-01,9.99995e-01
1.063183176e+00,9.57432e-01,9.99999e-01,9.99999e-01,9.79174e-01,9.77805e-01,9.99988e-01
1.068499092e+00,9.44336e-01,9.99999e-01,9.99999e-01,9.65366e-01,9.78238e-01,9.99975e-01
1.073841587e+00,9.39197e-01,9.99999e-01,9.99999e-01,9.59722e-01,9.78663e-01,9.99947e-01
1.079210795e+00,9.28540e-01,9.99999e-01,9.99999e-01,9.48513e-01,9.79080e-01,9.99858e-01
1.084606849e+00,9.04080e-01,9.99999e-01,9.99999e-01,9.23324e-01,9.79489e-01,9.99660e-01
1.090029883e+00,8.73940e-01,9.99999e-01,9.99999e-01,8.92501e-01,9.79890e-01,9.99296e-01
1.095480033e+00,7.18472e-01,9.99999e-01,9.99999e-01,7.33854e-01,9.80284e-01,9.98728e-01
1.100957433e+00,4.54134e-01,9.99999e-01,9.99999e-01,4.64171e-01,9.80669e-01,9.97661e-01
1.106462220e+00,1.59332e-01,9.99999e-01,9.99999e-01,1.63056e-01,9.81047e-01,9.96036e-01
1.111994531e+00,2.43351e-02,9.99999e-01,9.99999e-01,2.50586e-02,9.81418e-01,9.89514e-01
1.117554504e+00,3.47170e-03,9.99999e-01,9.99999e-01,3.67329e-03,9.81782e-01,9.62658e-01
1.123142276e+00,2.11113e-02,9.99999e-01,9.99999e-01,2.35253e-02,9.82139e-01,9.13704e-01
1.128757988e+00,5.64795e-02,9.99999e-01,9.99999e-01,6.38122e-02,9.82488e-01,9.00862e-01
1.134401778e+00,2.72097e-02,9.99999e-01,9.99999e-01,3.02550e-02,9.82831e-01,9.15052e-01
1.140073787e+00,1.57761e-01,9.99999e-01,9.99999e-01,1.72256e-01,9.83167e-01,9.31527e-01
1.145774156e+00,3.61203e-02,9.99999e-01,9.99999e-01,3.91899e-02,9.83497e-01,9.37137e-01
1.151503026e+00,2.52133e-02,9.99999e-01,9.99999e-01,2.65718e-02,9.83820e-01,9.64477e-01
1.157260541e+00,3.30610e-02,9.99999e-01,9.99999e-01,3.39591e-02,9.84137e-01,9.89243e-01
1.163046844e+00,7.81430e-02,9.99999e-01,9.99999e-01,7.96210e-02,9.84448e-01,9.96939e-01
1.168862078e+00,1.55343e-01,9.99999e-01,9.99999e-01,1.57997e-01,9.84753e-01,9.98421e-01
1.174706389e+00,3.11602e-01,9.99999e-01,9.99999e-01,3.16993e-01,9.85052e-01,9.97908e-01
1.180579921e+00,4.83620e-01,9.99999e-01,9.99999e-01,4.92368e-01,9.85345e-01,9.96839e-01
1.186482820e+00,6.54295e-01,9.99999e-01,9.99999e-01,6.65992e-01,9.85632e-01,9.96756e-01
1.192415234e+00,7.74764e-01,9.99999e-01,9.99999e-01,7.87746e-01,9.85914e-01,9.97569e-01
1.198377311e+00,8.05019e-01,9.99999e-01,9.99999e-01,8.18168e-01,9.86190e-01,9.97704e-01
1.204369197e+00,8.15115e-01,9.99999e-01,9.99999e-01,8.28020e-01,9.86461e-01,9.97922e-01
1.210391043e+00,8.22100e-01,9.99999e-01,9.99999e-01,8.34212e-01,9.86727e-01,9.98735e-01
1.216442998e+00,8.45150e-01,9.99999e-01,9.99999e-01,8.56955e-01,9.86987e-01,9.99225e-01
1.222525213e+00,8.74672e-01,9.99999e-01,9.99999e-01,8.86400e-01,9.87243e-01,9.99518e-01
1.228637839e+00,9.07927e-01,9.99999e-01,9.99999e-01,9.19631e-01,9.87493e-01,9.99775e-01
