#,Wave/freq,Total,N2,O2,H2O,Rayleigh,CIA
4.000000000e-01,8.59169e-01,9.99999e-01,9.99999e-01,9.99982e-01,8.59184e-01,9.99999e-01
4.020000000e-01,8.61757e-01,9.99999e-01,9.99999e-01,9.99988e-01,8.61766e-01,9.99999e-01
4.040100000e-01,8.64299e-01,9.99999e-01,9.99999e-01,9.99994e-01,8.64302e-01,9.99999e-01
4.060300500e-01,8.66795e-01,9.99999e-01,9.99999e-01,9.99998e-01,8.66796e-01,9.99999e-01
4.080602003e-01,8.69246e-01,9.99999e-01,9.99999e-01,9.99999e-01,8.69247e-01,9.99999e-01
4.101005013e-01,8.71656e-01,9.99999e-01,9.99999e-01,9.99999e-01,8.71656e-01,9.99999e-01
4.121510038e-01,8.74024e-01,9.99999e-01,9.99999e-01,9.99998e-01,8.74024e-01,9.99999e-01
4.142117588e-01,8.76348e-01,9.99999e-01,9.99999e-01,9.99994e-01,8.76352e-01,9.99999e-01
4.162828176e-01,8.78621e-01,9.99999e-01,9.99999e-01,9.99978e-01,8.78639e-01,9.99999e-01
4.183642317e-01,8.80877e-01,9.99999e-01,9.99999e-01,9.99986e-01,8.80888e-01,9.99999e-01
4.204560528e-01,8.83090e-01,9.99999e-01,9.99999e-01,9.99991e-01,8.83097e-01,9.99999e-01
4.225583331e-01,8.85266e-01,9.99999e-01,9.99999e-01,9.99996e-01,8.85268e-01,9.99999e-01
4.246711247e-01,8.87400e-01,9.99999e-01,9.99999e-01,9.99997e-01,8.87402e-01,9.99999e-01
4.267944804e-01,8.89495e-01,9.99999e-01,9.99999e-01,9.99996e-01,8.89498e-01,9.99999e-01
4.289284528e-01,8.91556e-01,9.99999e-01,9.99999e-01,9.99996e-01,8.91558e-01,9.99999e-01
4.310730950e-01,8.93581e-01,9.99999e-01,9.99999e-01,9.99998e-01,8.93582e-01,9.99999e-01
4.332284605e-01,8.95570e-01,9.99999e-01,9.99999e-01,9.99999e-01,8.95570e-01,9.99999e-01
4.353946028e-01,8.97523e-01,9.99999e-01,9.99999e-01,9.99999e-01,8.97523e-01,9.99999e-01
4.375715758e-01,8.99440e-01,9.99999e-01,9.99999e-01,9.99997e-01,8.99442e-01,9.99999e-01
4.397594337e-01,9.01310e-01,9.99999e-01,9.99999e-01,9.99981e-01,9.01327e-01,9.99999e-01
4.419582309e-01,9.03094e-01,9.99999e-01,9.99999e-01,9.99906e-01,9.03178e-01,9.99999e-01
4.441680220e-01,9.04930e-01,9.99999e-01,9.99999e-01,9.99925e-01,9.04997e-01,9.99999e-01
4.463888621e-01,9.06713e-01,9.99999e-01,9.99999e-01,9.99922e-01,9.06783e-01,9.99999e-01
4.486208064e-01,9.08494e-01,9.99999e-01,9.99999e-01,9.99951e-01,9.08537e-01,9.99999e-01
4.508639105e-01,9.10240e-01,9.99999e-01,9.99999e-01,9.99977e-01,9.10260e-01,9.99999e-01
4.531182300e-01,9.11944e-01,9.99999e-01,9.99999e-01,9.99990e-01,9.11952e-01,9.99999e-01
4.553838212e-01,9.13609e-01,9.99999e-01,9.99999e-01,9.99993e-01,9.13614e-01,9.99999e-01
4.576607403e-01,9.15243e-01,9.99999e-01,9.99999e-01,9.99996e-01,9.15246e-01,9.99999e-01
4.599490440e-01,9.16847e-01,9.99999e-01,9.99999e-01,9.99997e-01,9.16848e-01,9.99999e-01
4.622487892e-01,9.18422e-01,9.99999e-01,9.99999e-01,9.99999e-01,9.18422e-01,9.99999e-01
4.645600332e-01,9.19966e-01,9.99999e-01,9.99999e-01,9.99998e-01,9.19967e-01,9.99999e-01
4.668828333e-01,9.21463e-01,9.99999e-01,9.99999e-01,9.99977e-01,9.21484e-01,9.99999e-01
4.692172475e-01,9.22929e-01,9.99999e-01,9.99999e-01,9.99951e-01,9.22974e-01,9.99999e-01
4.715633337e-01,9.24407e-01,9.99999e-01,9.99999e-01,9.99968e-01,9.24436e-01,9.99999e-01
4.739211504e-01,9.25844e-01,9.99999e-01,9.99999e-01,9.99969e-01,9.25872e-01,9.99999e-01
4.762907561e-01,9.27267e-01,9.99999e-01,9.99999e-01,9.99983e-01,9.27281e-01,9.99999e-01
4.786722099e-01,9.28659e-01,9.99999e-01,9.99999e-01,9.99993e-01,9.28665e-01,9.99999e-01
4.810655710e-01,9.30022e-01,9.99999e-01,9.99999e-01,9.99997e-01,9.30024e-01,9.99999e-01
4.834708988e-01,9.31340e-01,9.99999e-01,9.99999e-01,9.99981e-01,9.31357e-01,9.99999e-01
4.858882533e-01,9.32635e-01,9.99999e-01,9.99999e-01,9.99965e-01,9.32666e-01,9.99999e-01
4.883176946e-01,9.33925e-01,9.99999e-01,9.99999e-01,9.99971e-01,9.33952e-01,9.99999e-01
4.907592831e-01,9.35189e-01,9.99999e-01,9.99999e-01,9.99973e-01,9.35213e-01,9.99999e-01
4.932130795e-01,9.36434e-01,9.99999e-01,9.99999e-01,9.99981e-01,9.36451e-01,9.99999e-01
4.956791449e-01,9.37657e-01,9.99999e-01,9.99999e-01,9.99989e-01,9.37666e-01,9.99999e-01
4.981575406e-01,9.38814e-01,9.99999e-01,9.99999e-01,9.99951e-01,9.38859e-01,9.99999e-01
5.006483283e-01,9.39912e-01,9.99999e-01,9.99999e-01,9.99874e-01,9.40030e-01,9.99998e-01
5.031515699e-01,9.40574e-01,9.99999e-01,9.99999e-01,9.99363e-01,9.41179e-01,9.99992e-01
5.056673278e-01,9.41982e-01,9.99999e-01,9.99999e-01,9.99663e-01,9.42306e-01,9.99991e-01
5.081956644e-01,9.43008e-01,9.99999e-01,9.99999e-01,9.99575e-01,9.43413e-01,9.99994e-01
5.107366428e-01,9.44228e-01,9.99999e-01,9.99999e-01,9.99712e-01,9.44499e-01,9.99998e-01
5.132903260e-01,9.45410e-01,9.99999e-01,9.99999e-01,9.99835e-01,9.45565e-01,9.99999e-01
5.158567776e-01,9.46545e-01,9.99999e-01,9.99999e-01,9.99930e-01,9.46611e-01,9.99999e-01
5.184360615e-01,9.47611e-01,9.99999e-01,9.99999e-01,9.99971e-01,9.47637e-01,9.99999e-01
5.210282418e-01,9.48635e-01,9.99999e-01,9.99999e-01,9.99989e-01,9.48645e-01,9.99999e-01
5.236333830e-01,9.49594e-01,9.99999e-01,9.99999e-01,9.99958e-01,9.49633e-01,9.99999e-01
5.262515499e-01,9.50578e-01,9.99999e-01,9.99999e-01,9.99973e-01,9.50603e-01,9.99999e-01
5.288828077e-01,9.51532e-01,9.99999e-01,9.99999e-01,9.99975e-01,9.51555e-01,9.99999e-01
5.315272217e-01,9.52468e-01,9.99999e-01,9.99999e-01,9.99978e-01,9.52488e-01,9.99999e-01
5.341848578e-01,9.53392e-01,9.99999e-01,9.99999e-01,9.99985e-01,9.53405e-01,9.99999e-01
5.368557821e-01,9.54258e-01,9.99999e-01,9.99999e-01,9.99951e-01,9.54304e-01,9.99999e-01
5.395400610e-01,9.55019e-01,9.99999e-01,9.99999e-01,9.99826e-01,9.55186e-01,9.99998e-01
5.422377613e-01,9.55831e-01,9.99999e-01,9.99999e-01,9.99773e-01,9.56051e-01,9.99995e-01
5.449489501e-01,9.56696e-01,9.99999e-01,9.99999e-01,9.99790e-01,9.56900e-01,9.99995e-01
5.476736949e-01,9.57553e-01,9.99999e-01,9.99999e-01,9.99813e-01,9.57733e-01,9.99997e-01
5.504120634e-01,9.58421e-01,9.99999e-01,9.99999e-01,9.99864e-01,9.58551e-01,9.99998e-01
5.531641237e-01,9.59287e-01,9.99999e-01,9.99999e-01,9.99931e-01,9.59352e-01,9.99999e-01
5.559299443e-01,9.60108e-01,9.99999e-01,9.99999e-01,9.99966e-01,9.60139e-01,9.99999e-01
5.587095940e-01,9.60891e-01,9.99999e-01,9.99999e-01,9.99979e-01,9.60911e-01,9.99999e-01
5.615031420e-01,9.61646e-01,9.99999e-01,9.99999e-01,9.99976e-01,9.61668e-01,9.99999e-01
5.643106577e-01,9.62386e-01,9.99999e-01,9.99999e-01,9.99973e-01,9.62411e-01,9.99999e-01
5.671322110e-01,9.62838e-01,9.99999e-01,9.99999e-01,9.99689e-01,9.63139e-01,9.99996e-01
5.699678720e-01,9.63521e-01,9.99999e-01,9.99999e-01,9.99662e-01,9.63854e-01,9.99990e-01
5.728177114e-01,9.64213e-01,9.99999e-01,9.99999e-01,9.99651e-01,9.64555e-01,9.99992e-01
5.756818000e-01,9.64930e-01,9.99999e-01,9.99999e-01,9.99679e-01,9.65243e-01,9.99995e-01
5.785602090e-01,9.65647e-01,9.99999e-01,9.99999e-01,9.99720e-01,9.65918e-01,9.99998e-01
5.814530100e-01,9.66308e-01,9.99999e-01,9.99999e-01,9.99719e-01,9.66579e-01,9.99998e-01
5.843602750e-01,9.66906e-01,9.99999e-01,9.99999e-01,9.99667e-01,9.67229e-01,9.99997e-01
5.872820764e-01,9.65075e-01,9.99999e-01,9.99999e-01,9.97136e-01,9.67865e-01,9.99979e-01
5.902184868e-01,9.65056e-01,9.99999e-01,9.99999e-01,9.96508e-01,9.68490e-01,9.99944e-01
5.931695792e-01,9.66665e-01,9.99999e-01,9.99999e-01,9.97537e-01,9.69103e-01,9.99945e-01
5.961354271e-01,9.67052e-01,9.99999e-01,9.99999e-01,9.97296e-01,9.69704e-01,9.99967e-01
5.991161043e-01,9.68370e-01,9.99999e-01,9.99999e-01,9.98026e-01,9.70293e-01,9.99990e-01
6.021116848e-01,9.69782e-01,9.99999e-01,9.99999e-01,9.98878e-01,9.70871e-01,9.99998e-01
6.051222432e-01,9.70887e-01,9.99999e-01,9.99999e-01,9.99432e-01,9.71438e-01,9.99999e-01
6.081478544e-01,9.71757e-01,9.99999e-01,9.99999e-01,9.99755e-01,9.71994e-01,9.99999e-01
6.111885937e-01,9.72439e-01,9.99999e-01,9.99999e-01,9.99895e-01,9.72540e-01,9.99999e-01
6.142445367e-01,9.73030e-01,9.99999e-01,9.99999e-01,9.99953e-01,9.73075e-01,9.99999e-01
6.173157594e-01,9.73575e-01,9.99999e-01,9.99999e-01,9.99974e-01,9.73600e-01,9.99999e-01
6.204023382e-01,9.74093e-01,9.99999e-01,9.99999e-01,9.99978e-01,9.74114e-01,9.99999e-01
6.235043498e-01,9.74528e-01,9.99999e-01,9.99999e-01,9.99906e-01,9.74619e-01,9.99999e-01
6.266218716e-01,9.74622e-01,9.99999e-01,9.99999e-01,9.99498e-01,9.75114e-01,9.99995e-01
6.297549810e-01,9.75413e-01,9.99999e-01,9.99999e-01,9.99815e-01,9.75600e-01,9.99992e-01
6.329037559e-01,9.75715e-01,9.99999e-01,9.99999e-01,9.99635e-01,9.76076e-01,9.99993e-01
6.360682746e-01,9.76238e-01,9.99999e-01,9.99999e-01,9.99690e-01,9.76543e-01,9.99996e-01
6.392486160e-01,9.76607e-01,9.99999e-01,9.99999e-01,9.99598e-01,9.77001e-01,9.99998e-01
6.424448591e-01,9.76926e-01,9.99999e-01,9.99999e-01,9.99465e-01,9.77450e-01,9.99997e-01
6.456570834e-01,9.75453e-01,9.99999e-01,9.99999e-01,9.97521e-01,9.77890e-01,9.99985e-01
6.488853688e-01,9.76188e-01,9.99999e-01,9.99999e-01,9.97856e-01,9.78322e-01,9.99960e-01
6.521297956e-01,9.76889e-01,9.99999e-01,9.99999e-01,9.98134e-01,9.78746e-01,9.99967e-01
6.553904446e-01,9.77334e-01,9.99999e-01,9.99999e-01,9.98157e-01,9.79161e-01,9.99975e-01
6.586673968e-01,9.78003e-01,9.99999e-01,9.99999e-01,9.98409e-01,9.79568e-01,9.99991e-01
6.619607338e-01,9.79066e-01,9.99999e-01,9.99999e-01,9.99080e-01,9.79968e-01,9.99997e-01
6.652705375e-01,9.79836e-01,9.99999e-01,9.99999e-01,9.99466e-01,9.80360e-01,9.99998e-01
6.685968902e-01,9.80501e-01,9.99999e-01,9.99999e-01,9.99752e-01,9.80744e-01,9.99999e-01
6.719398746e-01,9.81008e-01,9.99999e-01,9.99999e-01,9.99884e-01,9.81121e-01,9.99999e-01
6.752995740e-01,9.81429e-01,9.99999e-01,9.99999e-01,9.99937e-01,9.81490e-01,9.99999e-01
6.786760719e-01,9.81765e-01,9.99999e-01,9.99999e-01,9.99910e-01,9.81852e-01,9.99999e-01
6.820694522e-01,9.82057e-01,9.99999e-01,9.99999e-01,9.99846e-01,9.82208e-01,9.99998e-01
6.854797995e-01,9.82361e-01,9.99999e-01,9.99999e-01,9.99802e-01,9.82556e-01,9.99997e-01
6.889071985e-01,9.82430e-01,9.99999e-01,9.99999e-01,9.99527e-01,9.82897e-01,9.99995e-01
6.923517345e-01,9.75573e-01,9.99999e-01,9.99999e-01,9.92246e-01,9.83232e-01,9.99962e-01
6.958134932e-01,9.79447e-01,9.99999e-01,9.99999e-01,9.95901e-01,9.83561e-01,9.99915e-01
6.992925606e-01,9.80036e-01,9.99999e-01,9.99999e-01,9.96163e-01,9.83883e-01,9.99925e-01
7.027890234e-01,9.79456e-01,9.99999e-01,9.99999e-01,9.95237e-01,9.84199e-01,9.99942e-01
7.063029686e-01,9.80541e-01,9.99999e-01,9.99999e-01,9.95997e-01,9.84508e-01,9.99971e-01
7.098344834e-01,9.81014e-01,9.99999e-01,9.99999e-01,9.96160e-01,9.84812e-01,9.99982e-01
7.133836558e-01,9.80084e-01,9.99999e-01,9.99999e-01,9.94930e-01,9.85110e-01,9.99966e-01
7.169505741e-01,9.45374e-01,9.99999e-01,9.99999e-01,9.59630e-01,9.85402e-01,9.99737e-01
7.205353270e-01,9.65322e-01,9.99999e-01,9.99999e-01,9.79791e-01,9.85688e-01,9.99537e-01
7.241380036e-01,9.60632e-01,9.99999e-01,9.99999e-01,9.74690e-01,9.85969e-01,9.99600e-01
7.277586936e-01,9.63362e-01,9.99999e-01,9.99999e-01,9.77117e-01,9.86244e-01,9.99673e-01
7.313974871e-01,9.62281e-01,9.99999e-01,9.99999e-01,9.75585e-01,9.86514e-01,9.99846e-01
7.350544745e-01,9.73522e-01,9.99999e-01,9.99999e-01,9.86617e-01,9.86778e-01,9.99946e-01
7.387297469e-01,9.77277e-01,9.99999e-01,9.99999e-01,9.90135e-01,9.87038e-01,9.99975e-01
7.424233956e-01,9.82505e-01,9.99999e-01,9.99999e-01,9.95155e-01,9.87292e-01,9.99994e-01
7.461355126e-01,9.84644e-01,9.99999e-01,9.99999e-01,9.97065e-01,9.87542e-01,9.99998e-01
7.498661902e-01,9.86433e-01,9.99999e-01,9.99999e-01,9.98630e-01,9.87786e-01,9.99999e-01
7.536155211e-01,9.87364e-01,9.99999e-01,9.99999e-01,9.99329e-01,9.88026e-01,9.99999e-01
7.573835987e-01,9.87920e-01,9.99999e-01,9.99999e-01,9.99654e-01,9.88261e-01,9.99999e-01
7.611705167e-01,9.88280e-01,9.99999e-01,9.99999e-01,9.99785e-01,9.88492e-01,9.99999e-01
7.649763693e-01,9.88585e-01,9.99999e-01,9.99999e-01,9.99865e-01,9.88718e-01,9.99999e-01
7.688012511e-01,9.88847e-01,9.99999e-01,9.99999e-01,9.99906e-01,9.88939e-01,9.99999e-01
7.726452574e-01,9.89080e-01,9.99999e-01,9.99999e-01,9.99922e-01,9.89156e-01,9.99999e-01
7.765084837e-01,9.89262e-01,9.99999e-01,9.99999e-01,9.99891e-01,9.89369e-01,9.99999e-01
7.803910261e-01,9.89114e-01,9.99999e-01,9.99999e-01,9.99531e-01,9.89578e-01,9.99999e-01
7.842929812e-01,9.88162e-01,9.99999e-01,9.99999e-01,9.98364e-01,9.89783e-01,9.99996e-01
7.882144461e-01,9.86609e-01,9.99999e-01,9.99999e-01,9.96611e-01,9.89984e-01,9.99978e-01
7.921555184e-01,9.88294e-01,9.99999e-01,9.99999e-01,9.98133e-01,9.90181e-01,9.99959e-01
7.961162960e-01,9.87098e-01,9.99999e-01,9.99999e-01,9.96729e-01,9.90374e-01,9.99961e-01
8.000968774e-01,9.86767e-01,9.99999e-01,9.99999e-01,9.96208e-01,9.90563e-01,9.99958e-01
8.040973618e-01,9.86963e-01,9.99999e-01,9.99999e-01,9.96210e-01,9.90748e-01,9.99967e-01
8.081178486e-01,9.82490e-01,9.99999e-01,9.99999e-01,9.91512e-01,9.90930e-01,9.99969e-01
8.121584379e-01,9.56277e-01,9.99999e-01,9.99999e-01,9.64970e-01,9.91109e-01,9.99879e-01
8.162192301e-01,9.49449e-01,9.99999e-01,9.99999e-01,9.58228e-01,9.91283e-01,9.99549e-01
8.203003262e-01,9.70312e-01,9.99999e-01,9.99999e-01,9.79189e-01,9.91455e-01,9.99472e-01
8.244018279e-01,9.61929e-01,9.99999e-01,9.99999e-01,9.70461e-01,9.91623e-01,9.99580e-01
8.285238370e-01,9.66679e-01,9.99999e-01,9.99999e-01,9.75003e-01,9.91788e-01,9.99670e-01
8.326664562e-01,9.66674e-01,9.99999e-01,9.99999e-01,9.74651e-01,9.91949e-01,9.99863e-01
8.368297885e-01,9.74047e-01,9.99999e-01,9.99999e-01,9.81825e-01,9.92108e-01,9.99968e-01
8.410139374e-01,9.81494e-01,9.99999e-01,9.99999e-01,9.89164e-01,9.92263e-01,9.99981e-01
8.452190071e-01,9.87116e-01,9.99999e-01,9.99999e-01,9.94670e-01,9.92415e-01,9.99988e-01
8.494451021e-01,9.89494e-01,9.99999e-01,9.99999e-01,9.96914e-01,9.92564e-01,9.99990e-01
8.536923276e-01,9.90889e-01,9.99999e-01,9.99999e-01,9.98169e-01,9.92711e-01,9.99993e-01
8.579607893e-01,9.91736e-01,9.99999e-01,9.99999e-01,9.98875e-01,9.92854e-01,9.99997e-01
8.622505932e-01,9.92284e-01,9.99999e-01,9.99999e-01,9.99284e-01,9.92995e-01,9.99999e-01
8.665618462e-01,9.92694e-01,9.99999e-01,9.99999e-01,9.99558e-01,9.93133e-01,9.99999e-01
8.708946554e-01,9.92766e-01,9.99999e-01,9.99999e-01,9.99495e-01,9.93268e-01,9.99999e-01
8.752491287e-01,9.92729e-01,9.99999e-01,9.99999e-01,9.99324e-01,9.93400e-01,9.99998e-01
8.796253743e-01,9.92601e-01,9.99999e-01,9.99999e-01,9.99066e-01,9.93530e-01,9.99997e-01
8.840235012e-01,9.92591e-01,9.99999e-01,9.99999e-01,9.98932e-01,9.93658e-01,9.99993e-01
8.884436187e-01,9.89945e-01,9.99999e-01,9.99999e-01,9.96156e-01,9.93782e-01,9.99981e-01
8.928858368e-01,9.53839e-01,9.99999e-01,9.99999e-01,9.59790e-01,9.93905e-01,9.99892e-01
8.973502660e-01,9.23371e-01,9.99999e-01,9.99999e-01,9.29429e-01,9.94025e-01,9.99452e-01
9.018370173e-01,9.56673e-01,9.99999e-01,9.99999e-01,9.63137e-01,9.94143e-01,9.99139e-01
9.063462024e-01,9.61592e-01,9.99999e-01,9.99999e-01,9.67876e-01,9.94258e-01,9.99243e-01
9.108779334e-01,9.44067e-01,9.99999e-01,9.99999e-01,9.50156e-01,9.94371e-01,9.99214e-01
9.154323231e-01,9.37700e-01,9.99999e-01,9.99999e-01,9.43514e-01,9.94482e-01,9.99350e-01
9.200094847e-01,9.49875e-01,9.99999e-01,9.99999e-01,9.55387e-01,9.94591e-01,9.99636e-01
9.246095321e-01,9.26518e-01,9.99999e-01,9.99999e-01,9.31846e-01,9.94697e-01,9.99580e-01
9.292325798e-01,6.16359e-01,9.99999e-01,9.99999e-01,6.20592e-01,9.94802e-01,9.98368e-01
9.338787427e-01,5.31590e-01,9.99999e-01,9.99999e-01,5.37931e-01,9.94904e-01,9.93272e-01
9.385481364e-01,7.68617e-01,9.99999e-01,9.99999e-01,7.78701e-01,9.95004e-01,9.92003e-01
9.432408771e-01,6.98939e-01,9.99999e-01,9.99999e-01,7.07260e-01,9.95103e-01,9.93097e-01
9.479570815e-01,6.13647e-01,9.99999e-01,9.99999e-01,6.20091e-01,9.95199e-01,9.94378e-01
9.526968669e-01,6.92114e-01,9.99999e-01,9.99999e-01,6.97781e-01,9.95294e-01,9.96567e-01
9.574603512e-01,7.14713e-01,9.99999e-01,9.99999e-01,7.19280e-01,9.95387e-01,9.98254e-01
9.622476530e-01,7.60170e-01,9.99999e-01,9.99999e-01,7.64545e-01,9.95477e-01,9.98792e-01
9.670588912e-01,8.52359e-01,9.99999e-01,9.99999e-01,8.56862e-01,9.95567e-01,9.99174e-01
9.718941857e-01,9.03660e-01,9.99999e-01,9.99999e-01,9.08156e-01,9.95654e-01,9.99391e-01
9.767536566e-01,9.18815e-01,9.99999e-01,9.99999e-01,9.23174e-01,9.95740e-01,9.99535e-01
9.816374249e-01,9.38320e-01,9.99999e-01,9.99999e-01,9.42406e-01,9.95824e-01,9.99838e-01
9.865456120e-01,9.59647e-01,9.99999e-01,9.99999e-01,9.63623e-01,9.95906e-01,9.99966e-01
9.914783401e-01,9.73444e-01,9.99999e-01,9.99999e-01,9.77375e-01,9.95987e-01,9.99990e-01
9.964357318e-01,9.83725e-01,9.99999e-01,9.99999e-01,9.87615e-01,9.96066e-01,9.99994e-01
1.001417910e+00,9.88723e-01,9.99999e-01,9.99999e-01,9.92559e-01,9.96143e-01,9.99991e-01
1.006425000e+00,9.91983e-01,9.99999e-01,9.99999e-01,9.95759e-01,9.96219e-01,9.99987e-01
1.011457125e+00,9.93654e-01,9.99999e-01,9.99999e-01,9.97360e-01,9.96294e-01,9.99988e-01
1.016514411e+00,9.94576e-01,9.99999e-01,9.99999e-01,9.98209e-01,9.96367e-01,9.99991e-01
1.021596983e+00,9.95010e-01,9.99999e-01,9.99999e-01,9.98573e-01,9.96438e-01,9.99991e-01
1.026704968e+00,9.95396e-01,9.99999e-01,9.99999e-01,9.98888e-01,9.96509e-01,9.99994e-01
1.031838492e+00,9.95770e-01,9.99999e-01,9.99999e-01,9.99190e-01,9.96577e-01,9.99998e-01
1.036997685e+00,9.96167e-01,9.99999e-01,9.99999e-01,9.99519e-01,9.96645e-01,9.99999e-01
1.042182673e+00,9.96142e-01,9.99999e-01,9.99999e-01,9.99429e-01,9.96711e-01,9.99999e-01
1.047393587e+00,9.96021e-01,9.99999e-01,9.99999e-01,9.99241e-01,9.96776e-01,9.99999e-01
1.052630555e+00,9.95804e-01,9.99999e-01,9.99999e-01,9.98960e-01,9.96839e-01,9.99999e-01
1.057893707e+00,9.95175e-01,9.99999e-01,9.99999e-01,9.98267e-01,9.96902e-01,9.99998e-01
1.063183176e+00,9.94118e-01,9.99999e-01,9.99999e-01,9.97147e-01,9.96963e-01,9.99998e-01
1.068499092e+00,9.92257e-01,9.99999e-01,9.99999e-01,9.95222e-01,9.97023e-01,9.99996e-01
1.073841587e+00,9.91508e-01,9.99999e-01,9.99999e-01,9.94417e-01,9.97081e-01,9.99992e-01
1.079210795e+00,9.89975e-01,9.99999e-01,9.99999e-01,9.92833e-01,9.97139e-01,9.99980e-01
1.084606849e+00,9.86362e-01,9.99999e-01,9.99999e-01,9.89181e-01,9.97195e-01,9.99953e-01
1.090029883e+00,9.81752e-01,9.99999e-01,9.99999e-01,9.84552e-01,9.97251e-01,9.99904e-01
1.095480033e+00,9.55653e-01,9.99999e-01,9.99999e-01,9.58400e-01,9.97305e-01,9.99827e-01
1.100957433e+00,8.94948e-01,9.99999e-01,9.99999e-01,8.97603e-01,9.97358e-01,9.99682e-01
1.106462220e+00,7.57695e-01,9.99999e-01,9.99999e-01,7.60070e-01,9.97410e-01,9.99461e-01
1.111994531e+00,5.58273e-01,9.99999e-01,9.99999e-01,5.60494e-01,9.97461e-01,9.98571e-01
1.117554504e+00,3.88770e-01,9.99999e-01,9.99999e-01,3.91756e-01,9.97511e-01,9.94852e-01
1.123142276e+00,4.94027e-01,9.99999e-01,9.99999e-01,5.01332e-01,9.97560e-01,9.87836e-01
1.128757988e+00,6.32725e-01,9.99999e-01,9.99999e-01,6.43284e-01,9.97608e-01,9.85941e-01
1.134401778e+00,3.74634e-01,9.99999e-01,9.99999e-01,3.80062e-01,9.97656e-01,9.88033e-01
1.140073787e+00,7.59646e-01,9.99999e-01,9.99999e-01,7.68754e-01,9.97702e-01,9.90427e-01
1.145774156e+00,5.70823e-01,9.99999e-01,9.99999e-01,5.77171e-01,9.97747e-01,9.91234e-01
1.151503026e+00,5.38530e-01,9.99999e-01,9.99999e-01,5.42375e-01,9.97792e-01,9.95106e-01
1.157260541e+00,5.97826e-01,9.99999e-01,9.99999e-01,6.00001e-01,9.97835e-01,9.98534e-01
1.163046844e+00,6.83384e-01,9.99999e-01,9.99999e-01,6.85122e-01,9.97878e-01,9.99583e-01
1.168862078e+00,7.67235e-01,9.99999e-01,9.99999e-01,7.68998e-01,9.97920e-01,9.99785e-01
1.174706389e+00,8.48423e-01,9.99999e-01,9.99999e-01,8.50397e-01,9.97961e-01,9.99715e-01
1.180579921e+00,9.03811e-01,9.99999e-01,9.99999e-01,9.06009e-01,9.98001e-01,9.99570e-01
1.186482820e+00,9.43540e-01,9.99999e-01,9.99999e-01,9.45808e-01,9.98040e-01,9.99559e-01
1.192415234e+00,9.65863e-01,9.99999e-01,9.99999e-01,9.68040e-01,9.98079e-01,9.99669e-01
1.198377311e+00,9.70896e-01,9.99999e-01,9.99999e-01,9.73030e-01,9.98117e-01,9.99687e-01
1.204369197e+00,9.72367e-01,9.99999e-01,9.99999e-01,9.74439e-01,9.98154e-01,9.99717e-01
1.210391043e+00,9.73611e-01,9.99999e-01,9.99999e-01,9.75542e-01,9.98190e-01,9.99828e-01
1.216442998e+00,9.77287e-01,9.99999e-01,9.99999e-01,9.79125e-01,9.98226e-01,9.99894e-01
1.222525213e+00,9.81951e-01,9.99999e-01,9.99999e-01,9.83725e-01,9.98261e-01,9.99934e-01
1.228637839e+00,9.86964e-01,9.99999e-01,9.99999e-01,9.88678e-01,9.98295e-01,9.99969e-01
