#,Wave/freq,Total,N2,O2,H2O,Rayleigh,CIA
4.000000000e-01,6.39215e-01,9.99999e-01,9.99999e-01,9.99949e-01,6.39247e-01,9.99999e-01
4.020000000e-01,6.44908e-01,9.99999e-01,9.99999e-01,9.99968e-01,6.44928e-01,9.99999e-01
4.040100000e-01,6.50531e-01,9.99999e-01,9.99999e-01,9.99986e-01,6.50540e-01,9.99999e-01
4.060300500e-01,6.56086e-01,9.99999e-01,9.99999e-01,9.99996e-01,6.56088e-01,9.99999e-01
4.080602003e-01,6.61572e-01,9.99999e-01,9.99999e-01,9.99998e-01,6.61573e-01,9.99999e-01
4.101005013e-01,6.66994e-01,9.99999e-01,9.99999e-01,9.99999e-01,6.66994e-01,9.99999e-01
4.121510038e-01,6.72349e-01,9.99999e-01,9.99999e-01,9.99997e-01,6.72350e-01,9.99999e-01
4.142117588e-01,6.77634e-01,9.99999e-01,9.99999e-01,9.99985e-01,6.77643e-01,9.99999e-01
4.162828176e-01,6.82829e-01,9.99999e-01,9.99999e-01,9.99937e-01,6.82872e-01,9.99999e-01
4.183642317e-01,6.88011e-01,9.99999e-01,9.99999e-01,9.99962e-01,6.88036e-01,9.99999e-01
4.204560528e-01,6.93121e-01,9.99999e-01,9.99999e-01,9.99976e-01,6.93137e-01,9.99999e-01
4.225583331e-01,6.98167e-01,9.99999e-01,9.99999e-01,9.99991e-01,6.98173e-01,9.99999e-01
4.246711247e-01,7.03141e-01,9.99999e-01,9.99999e-01,9.99992e-01,7.03146e-01,9.99999e-01
4.267944804e-01,7.08047e-01,9.99999e-01,9.99999e-01,9.99989e-01,7.08054e-01,9.99999e-01
4.289284528e-01,7.12894e-01,9.99999e-01,9.99999e-01,9.99991e-01,7.12899e-01,9.99999e-01
4.310730950e-01,7.17678e-01,9.99999e-01,9.99999e-01,9.99996e-01,7.17681e-01,9.99999e-01
4.332284605e-01,7.22398e-01,9.99999e-01,9.99999e-01,9.99998e-01,7.22399e-01,9.99999e-01
4.353946028e-01,7.27053e-01,9.99999e-01,9.99999e-01,9.99999e-01,7.27053e-01,9.99999e-01
4.375715758e-01,7.31641e-01,9.99999e-01,9.99999e-01,9.99993e-01,7.31646e-01,9.99999e-01
4.397594337e-01,7.36135e-01,9.99999e-01,9.99999e-01,9.99944e-01,7.36175e-01,9.99999e-01
4.419582309e-01,7.40435e-01,9.99999e-01,9.99999e-01,9.99718e-01,7.40642e-01,9.99999e-01
4.441680220e-01,7.44886e-01,9.99999e-01,9.99999e-01,9.99782e-01,7.45048e-01,9.99999e-01
4.463888621e-01,7.49222e-01,9.99999e-01,9.99999e-01,9.99773e-01,7.49392e-01,9.99999e-01
4.486208064e-01,7.53568e-01,9.99999e-01,9.99999e-01,9.99859e-01,7.53674e-01,9.99999e-01
4.508639105e-01,7.57846e-01,9.99999e-01,9.99999e-01,9.99933e-01,7.57896e-01,9.99999e-01
4.531182300e-01,7.62037e-01,9.99999e-01,9.99999e-01,9.99973e-01,7.62057e-01,9.99999e-01
4.553838212e-01,7.66145e-01,9.99999e-01,9.99999e-01,9.99981e-01,7.66158e-01,9.99999e-01
4.576607403e-01,7.70194e-01,9.99999e-01,9.99999e-01,9.99991e-01,7.70200e-01,9.99999e-01
4.599490440e-01,7.74178e-01,9.99999e-01,9.99999e-01,9.99993e-01,7.74183e-01,9.99999e-01
4.622487892e-01,7.78106e-01,9.99999e-01,9.99999e-01,9.99998e-01,7.78106e-01,9.99999e-01
4.645600332e-01,7.81969e-01,9.99999e-01,9.99999e-01,9.99995e-01,7.81972e-01,9.99999e-01
4.668828333e-01,7.85728e-01,9.99999e-01,9.99999e-01,9.99932e-01,7.85780e-01,9.99999e-01
4.692172475e-01,7.89419e-01,9.99999e-01,9.99999e-01,9.99857e-01,7.89531e-01,9.99999e-01
4.715633337e-01,7.93151e-01,9.99999e-01,9.99999e-01,9.99906e-01,7.93225e-01,9.99999e-01
4.739211504e-01,7.96792e-01,9.99999e-01,9.99999e-01,9.99910e-01,7.96863e-01,9.99999e-01
4.762907561e-01,8.00408e-01,9.99999e-01,9.99999e-01,9.99953e-01,8.00445e-01,9.99999e-01
4.786722099e-01,8.03957e-01,9.99999e-01,9.99999e-01,9.99980e-01,8.03972e-01,9.99999e-01
4.810655710e-01,8.07440e-01,9.99999e-01,9.99999e-01,9.99993e-01,8.07444e-01,9.99999e-01
4.834708988e-01,8.10818e-01,9.99999e-01,9.99999e-01,9.99944e-01,8.10863e-01,9.99999e-01
4.858882533e-01,8.14146e-01,9.99999e-01,9.99999e-01,9.99899e-01,8.14227e-01,9.99999e-01
4.883176946e-01,8.17471e-01,9.99999e-01,9.99999e-01,9.99915e-01,8.17539e-01,9.99999e-01
4.907592831e-01,8.20737e-01,9.99999e-01,9.99999e-01,9.99923e-01,8.20799e-01,9.99999e-01
4.932130795e-01,8.23963e-01,9.99999e-01,9.99999e-01,9.99945e-01,8.24007e-01,9.99999e-01
4.956791449e-01,8.27140e-01,9.99999e-01,9.99999e-01,9.99970e-01,8.27164e-01,9.99999e-01
4.981575406e-01,8.30151e-01,9.99999e-01,9.99999e-01,9.99856e-01,8.30270e-01,9.99999e-01
5.006483283e-01,8.33014e-01,9.99999e-01,9.99999e-01,9.99627e-01,8.33326e-01,9.99997e-01
5.031515699e-01,8.34746e-01,9.99999e-01,9.99999e-01,9.98122e-01,8.36332e-01,9.99979e-01
5.056673278e-01,8.38441e-01,9.99999e-01,9.99999e-01,9.99010e-01,8.39290e-01,9.99976e-01
5.081956644e-01,8.41137e-01,9.99999e-01,9.99999e-01,9.98751e-01,8.42200e-01,9.99985e-01
5.107366428e-01,8.44348e-01,9.99999e-01,9.99999e-01,9.99157e-01,8.45061e-01,9.99997e-01
5.132903260e-01,8.47468e-01,9.99999e-01,9.99999e-01,9.99518e-01,8.47876e-01,9.99999e-01
5.158567776e-01,8.50472e-01,9.99999e-01,9.99999e-01,9.99796e-01,8.50644e-01,9.99999e-01
5.184360615e-01,8.53297e-01,9.99999e-01,9.99999e-01,9.99918e-01,8.53367e-01,9.99999e-01
5.210282418e-01,8.56018e-01,9.99999e-01,9.99999e-01,9.99969e-01,8.56044e-01,9.99999e-01
5.236333830e-01,8.58570e-01,9.99999e-01,9.99999e-01,9.99877e-01,8.58676e-01,9.99998e-01
5.262515499e-01,8.61197e-01,9.99999e-01,9.99999e-01,9.99923e-01,8.61264e-01,9.99998e-01
5.288828077e-01,8.63747e-01,9.99999e-01,9.99999e-01,9.99929e-01,8.63809e-01,9.99998e-01
5.315272217e-01,8.66257e-01,9.99999e-01,9.99999e-01,9.99938e-01,8.66310e-01,9.99999e-01
5.341848578e-01,8.68734e-01,9.99999e-01,9.99999e-01,9.99959e-01,8.68769e-01,9.99999e-01
5.368557821e-01,8.71062e-01,9.99999e-01,9.99999e-01,9.99856e-01,8.71187e-01,9.99999e-01
5.395400610e-01,8.73108e-01,9.99999e-01,9.99999e-01,9.99483e-01,8.73563e-01,9.99995e-01
5.422377613e-01,8.75307e-01,9.99999e-01,9.99999e-01,9.99336e-01,8.75899e-01,9.99987e-01
5.449489501e-01,8.77640e-01,9.99999e-01,9.99999e-01,9.99380e-01,8.78194e-01,9.99987e-01
5.476736949e-01,8.79964e-01,9.99999e-01,9.99999e-01,9.99453e-01,8.80450e-01,9.99993e-01
5.504120634e-01,8.82316e-01,9.99999e-01,9.99999e-01,9.99603e-01,8.82667e-01,9.99997e-01
5.531641237e-01,8.84669e-01,9.99999e-01,9.99999e-01,9.99800e-01,8.84846e-01,9.99999e-01
5.559299443e-01,8.86901e-01,9.99999e-01,9.99999e-01,9.99903e-01,8.86987e-01,9.99999e-01
5.587095940e-01,8.89036e-01,9.99999e-01,9.99999e-01,9.99939e-01,8.89090e-01,9.99999e-01
5.615031420e-01,8.91097e-01,9.99999e-01,9.99999e-01,9.99932e-01,8.91157e-01,9.99999e-01
5.643106577e-01,8.93119e-01,9.99999e-01,9.99999e-01,9.99922e-01,8.93188e-01,9.99998e-01
5.671322110e-01,8.94338e-01,9.99999e-01,9.99999e-01,9.99064e-01,8.95183e-01,9.99991e-01
5.699678720e-01,8.96238e-01,9.99999e-01,9.99999e-01,9.99016e-01,8.97143e-01,9.99974e-01
5.728177114e-01,8.98125e-01,9.99999e-01,9.99999e-01,9.98971e-01,8.99068e-01,9.99978e-01
5.756818000e-01,9.00099e-01,9.99999e-01,9.99999e-01,9.99056e-01,9.00960e-01,9.99987e-01
5.785602090e-01,9.02073e-01,9.99999e-01,9.99999e-01,9.99178e-01,9.02818e-01,9.99996e-01
5.814530100e-01,9.03894e-01,9.99999e-01,9.99999e-01,9.99173e-01,9.04643e-01,9.99997e-01
5.843602750e-01,9.05535e-01,9.99999e-01,9.99999e-01,9.99012e-01,9.06435e-01,9.99994e-01
5.872820764e-01,9.00444e-01,9.99999e-01,9.99999e-01,9.91523e-01,9.08196e-01,9.99939e-01
5.902184868e-01,9.00469e-01,9.99999e-01,9.99999e-01,9.89768e-01,9.09925e-01,9.99837e-01
5.931695792e-01,9.04879e-01,9.99999e-01,9.99999e-01,9.92757e-01,9.11623e-01,9.99843e-01
5.961354271e-01,9.05965e-01,9.99999e-01,9.99999e-01,9.92067e-01,9.13291e-01,9.99909e-01
5.991161043e-01,9.09607e-01,9.99999e-01,9.99999e-01,9.94211e-01,9.14928e-01,9.99971e-01
6.021116848e-01,9.13522e-01,9.99999e-01,9.99999e-01,9.96713e-01,9.16536e-01,9.99996e-01
6.051222432e-01,9.16588e-01,9.99999e-01,9.99999e-01,9.98336e-01,9.18116e-01,9.99999e-01
6.081478544e-01,9.19006e-01,9.99999e-01,9.99999e-01,9.99281e-01,9.19666e-01,9.99999e-01
6.111885937e-01,9.20909e-01,9.99999e-01,9.99999e-01,9.99696e-01,9.21189e-01,9.99999e-01
6.142445367e-01,9.22558e-01,9.99999e-01,9.99999e-01,9.99863e-01,9.22684e-01,9.99999e-01
6.173157594e-01,9.24082e-01,9.99999e-01,9.99999e-01,9.99924e-01,9.24151e-01,9.99999e-01
6.204023382e-01,9.25533e-01,9.99999e-01,9.99999e-01,9.99936e-01,9.25592e-01,9.99999e-01
6.235043498e-01,9.26746e-01,9.99999e-01,9.99999e-01,9.99718e-01,9.27007e-01,9.99998e-01
6.266218716e-01,9.27014e-01,9.99999e-01,9.99999e-01,9.98521e-01,9.28396e-01,9.99989e-01
6.297549810e-01,9.29236e-01,9.99999e-01,9.99999e-01,9.99457e-01,9.29759e-01,9.99978e-01
6.329037559e-01,9.30086e-01,9.99999e-01,9.99999e-01,9.98929e-01,9.31098e-01,9.99982e-01
6.360682746e-01,9.31551e-01,9.99999e-01,9.99999e-01,9.99086e-01,9.32412e-01,9.99989e-01
6.392486160e-01,9.32593e-01,9.99999e-01,9.99999e-01,9.98816e-01,9.33701e-01,9.99995e-01
6.424448591e-01,9.33475e-01,9.99999e-01,9.99999e-01,9.98411e-01,9.34967e-01,9.99991e-01
6.456570834e-01,9.29284e-01,9.99999e-01,9.99999e-01,9.92646e-01,9.36210e-01,9.99955e-01
6.488853688e-01,9.32296e-01,9.99999e-01,9.99999e-01,9.94636e-01,9.37430e-01,9.99885e-01
6.521297956e-01,9.33409e-01,9.99999e-01,9.99999e-01,9.94534e-01,9.38627e-01,9.99905e-01
6.553904446e-01,9.34612e-01,9.99999e-01,9.99999e-01,9.94546e-01,9.39802e-01,9.99929e-01
6.586673968e-01,9.36546e-01,9.99999e-01,9.99999e-01,9.95336e-01,9.40955e-01,9.99976e-01
6.619607338e-01,9.39633e-01,9.99999e-01,9.99999e-01,9.97399e-01,9.42087e-01,9.99994e-01
6.652705375e-01,9.41723e-01,9.99999e-01,9.99999e-01,9.98438e-01,9.43198e-01,9.99996e-01
6.685968902e-01,9.43661e-01,9.99999e-01,9.99999e-01,9.99336e-01,9.44288e-01,9.99999e-01
6.719398746e-01,9.45040e-01,9.99999e-01,9.99999e-01,9.99663e-01,9.45358e-01,9.99999e-01
6.752995740e-01,9.46235e-01,9.99999e-01,9.99999e-01,9.99817e-01,9.46407e-01,9.99999e-01
6.786760719e-01,9.47187e-01,9.99999e-01,9.99999e-01,9.99735e-01,9.47438e-01,9.99999e-01
6.820694522e-01,9.48019e-01,9.99999e-01,9.99999e-01,9.99548e-01,9.48449e-01,9.99997e-01
6.854797995e-01,9.48883e-01,9.99999e-01,9.99999e-01,9.99417e-01,9.49441e-01,9.99994e-01
6.889071985e-01,9.49055e-01,9.99999e-01,9.99999e-01,9.98581e-01,9.50414e-01,9.99986e-01
6.923517345e-01,9.29561e-01,9.99999e-01,9.99999e-01,9.77183e-01,9.51369e-01,9.99889e-01
6.958134932e-01,9.40822e-01,9.99999e-01,9.99999e-01,9.88180e-01,9.52307e-01,9.99755e-01
6.992925606e-01,9.42212e-01,9.99999e-01,9.99999e-01,9.88661e-01,9.53226e-01,9.99779e-01
7.027890234e-01,9.40673e-01,9.99999e-01,9.99999e-01,9.86062e-01,9.54129e-01,9.99831e-01
7.063029686e-01,9.43727e-01,9.99999e-01,9.99999e-01,9.88262e-01,9.55014e-01,9.99916e-01
7.098344834e-01,9.45069e-01,9.99999e-01,9.99999e-01,9.88734e-01,9.55883e-01,9.99950e-01
7.133836558e-01,9.42245e-01,9.99999e-01,9.99999e-01,9.84951e-01,9.56735e-01,9.99901e-01
7.169505741e-01,8.47859e-01,9.99999e-01,9.99999e-01,8.86110e-01,9.57571e-01,9.99227e-01
7.205353270e-01,9.02387e-01,9.99999e-01,9.99999e-01,9.42848e-01,9.58392e-01,9.98637e-01
7.241380036e-01,8.88555e-01,9.99999e-01,9.99999e-01,9.27443e-01,9.59196e-01,9.98823e-01
7.277586936e-01,8.96079e-01,9.99999e-01,9.99999e-01,9.34327e-01,9.59986e-01,9.99037e-01
7.313974871e-01,8.93455e-01,9.99999e-01,9.99999e-01,9.30364e-01,9.60761e-01,9.99548e-01
7.350544745e-01,9.24149e-01,9.99999e-01,9.99999e-01,9.61282e-01,9.61521e-01,9.99842e-01
7.387297469e-01,9.34628e-01,9.99999e-01,9.99999e-01,9.71347e-01,9.62266e-01,9.99927e-01
7.424233956e-01,9.49396e-01,9.99999e-01,9.99999e-01,9.85887e-01,9.62997e-01,9.99987e-01
7.461355126e-01,9.55444e-01,9.99999e-01,9.99999e-01,9.91419e-01,9.63715e-01,9.99997e-01
7.498661902e-01,9.60562e-01,9.99999e-01,9.99999e-01,9.96001e-01,9.64419e-01,9.99998e-01
7.536155211e-01,9.63212e-01,9.99999e-01,9.99999e-01,9.98034e-01,9.65109e-01,9.99998e-01
7.573835987e-01,9.64809e-01,9.99999e-01,9.99999e-01,9.98987e-01,9.65786e-01,9.99999e-01
7.611705167e-01,9.65843e-01,9.99999e-01,9.99999e-01,9.99370e-01,9.66451e-01,9.99999e-01
7.649763693e-01,9.66721e-01,9.99999e-01,9.99999e-01,9.99605e-01,9.67102e-01,9.99999e-01
7.688012511e-01,9.67476e-01,9.99999e-01,9.99999e-01,9.99724e-01,9.67741e-01,9.99999e-01
7.726452574e-01,9.68150e-01,9.99999e-01,9.99999e-01,9.99773e-01,9.68368e-01,9.99999e-01
7.765084837e-01,9.68671e-01,9.99999e-01,9.99999e-01,9.99677e-01,9.68983e-01,9.99999e-01
7.803910261e-01,9.68234e-01,9.99999e-01,9.99999e-01,9.98606e-01,9.69587e-01,9.99998e-01
7.842929812e-01,9.65457e-01,9.99999e-01,9.99999e-01,9.95141e-01,9.70178e-01,9.99990e-01
7.882144461e-01,9.61032e-01,9.99999e-01,9.99999e-01,9.90047e-01,9.70759e-01,9.99931e-01
7.921555184e-01,9.65914e-01,9.99999e-01,9.99999e-01,9.94543e-01,9.71328e-01,9.99880e-01
7.961162960e-01,9.62380e-01,9.99999e-01,9.99999e-01,9.90330e-01,9.71886e-01,9.99886e-01
8.000968774e-01,9.61485e-01,9.99999e-01,9.99999e-01,9.88859e-01,9.72434e-01,9.99879e-01
8.040973618e-01,9.62036e-01,9.99999e-01,9.99999e-01,9.88852e-01,9.72971e-01,9.99907e-01
8.081178486e-01,9.49075e-01,9.99999e-01,9.99999e-01,9.75003e-01,9.73498e-01,9.99906e-01
8.121584379e-01,8.76527e-01,9.99999e-01,9.99999e-01,9.00228e-01,9.74014e-01,9.99646e-01
8.162192301e-01,8.59630e-01,9.99999e-01,9.99999e-01,8.83275e-01,9.74521e-01,9.98674e-01
8.203003262e-01,9.15367e-01,9.99999e-01,9.99999e-01,9.40279e-01,9.75018e-01,9.98447e-01
8.244018279e-01,8.95100e-01,9.99999e-01,9.99999e-01,9.18709e-01,9.75505e-01,9.98764e-01
8.285238370e-01,9.05081e-01,9.99999e-01,9.99999e-01,9.28253e-01,9.75983e-01,9.99029e-01
8.326664562e-01,9.05478e-01,9.99999e-01,9.99999e-01,9.27685e-01,9.76452e-01,9.99598e-01
8.368297885e-01,9.25733e-01,9.99999e-01,9.99999e-01,9.47698e-01,9.76912e-01,9.99907e-01
8.410139374e-01,9.46602e-01,9.99999e-01,9.99999e-01,9.68578e-01,9.77362e-01,9.99945e-01
8.452190071e-01,9.62590e-01,9.99999e-01,9.99999e-01,9.84471e-01,9.77804e-01,9.99967e-01
8.494451021e-01,9.69358e-01,9.99999e-01,9.99999e-01,9.90947e-01,9.78238e-01,9.99973e-01
8.536923276e-01,9.73408e-01,9.99999e-01,9.99999e-01,9.94645e-01,9.78663e-01,9.99983e-01
8.579607893e-01,9.75842e-01,9.99999e-01,9.99999e-01,9.96695e-01,9.79080e-01,9.99995e-01
8.622505932e-01,9.77434e-01,9.99999e-01,9.99999e-01,9.97901e-01,9.79489e-01,9.99998e-01
8.665618462e-01,9.78616e-01,9.99999e-01,9.99999e-01,9.98699e-01,9.79890e-01,9.99999e-01
8.708946554e-01,9.78823e-01,9.99999e-01,9.99999e-01,9.98509e-01,9.80283e-01,9.99998e-01
8.752491287e-01,9.78714e-01,9.99999e-01,9.99999e-01,9.98007e-01,9.80669e-01,9.99997e-01
8.796253743e-01,9.78333e-01,9.99999e-01,9.99999e-01,9.97238e-01,9.81047e-01,9.99993e-01
8.840235012e-01,9.78306e-01,9.99999e-01,9.99999e-01,9.96847e-01,9.81418e-01,9.99980e-01
8.884436187e-01,9.70425e-01,9.99999e-01,9.99999e-01,9.88485e-01,9.81782e-01,9.99944e-01
8.928858368e-01,8.70095e-01,9.99999e-01,9.99999e-01,8.86197e-01,9.82138e-01,9.99684e-01
8.973502660e-01,7.93261e-01,9.99999e-01,9.99999e-01,8.08703e-01,9.82488e-01,9.98387e-01
9.018370173e-01,8.79965e-01,9.99999e-01,9.99999e-01,8.97611e-01,9.82831e-01,9.97465e-01
9.063462024e-01,8.91272e-01,9.99999e-01,9.99999e-01,9.08553e-01,9.83167e-01,9.97773e-01
9.108779334e-01,8.45248e-01,9.99999e-01,9.99999e-01,8.61423e-01,9.83497e-01,9.97686e-01
9.154323231e-01,8.28700e-01,9.99999e-01,9.99999e-01,8.43941e-01,9.83820e-01,9.98087e-01
9.200094847e-01,8.61103e-01,9.99999e-01,9.99999e-01,8.75920e-01,9.84137e-01,9.98928e-01
9.246095321e-01,8.01810e-01,9.99999e-01,9.99999e-01,8.15482e-01,9.84448e-01,9.98765e-01
9.292325798e-01,2.65937e-01,9.99999e-01,9.99999e-01,2.71357e-01,9.84753e-01,9.95197e-01
9.338787427e-01,1.81390e-01,9.99999e-01,9.99999e-01,1.87844e-01,9.85052e-01,9.80295e-01
9.385481364e-01,4.87558e-01,9.99999e-01,9.99999e-01,5.06660e-01,9.85345e-01,9.76608e-01
9.432408771e-01,3.84266e-01,9.99999e-01,9.99999e-01,3.97910e-01,9.85632e-01,9.79786e-01
9.479570815e-01,2.73580e-01,9.99999e-01,9.99999e-01,2.82139e-01,9.85914e-01,9.83517e-01
9.526968669e-01,3.68964e-01,9.99999e-01,9.99999e-01,3.77942e-01,9.86190e-01,9.89914e-01
9.574603512e-01,3.90065e-01,9.99999e-01,9.99999e-01,3.97459e-01,9.86461e-01,9.94863e-01
9.622476530e-01,4.60001e-01,9.99999e-01,9.99999e-01,4.67851e-01,9.86727e-01,9.96445e-01
9.670588912e-01,6.33376e-01,9.99999e-01,9.99999e-01,6.43291e-01,9.86987e-01,9.97567e-01
9.718941857e-01,7.44188e-01,9.99999e-01,9.99999e-01,7.55156e-01,9.87243e-01,9.98208e-01
9.767536566e-01,7.80847e-01,9.99999e-01,9.99999e-01,7.91820e-01,9.87493e-01,9.98630e-01
9.816374249e-01,8.30130e-01,9.99999e-01,9.99999e-01,8.40832e-01,9.87739e-01,9.99525e-01
9.865456120e-01,8.86300e-01,9.99999e-01,9.99999e-01,8.97171e-01,9.87979e-01,9.99900e-01
9.914783401e-01,9.23985e-01,9.99999e-01,9.99999e-01,9.35028e-01,9.88215e-01,9.99972e-01
9.964357318e-01,9.52928e-01,9.99999e-01,9.99999e-01,9.64080e-01,9.88447e-01,9.99983e-01
1.001417910e+00,9.67209e-01,9.99999e-01,9.99999e-01,9.78312e-01,9.88674e-01,9.99975e-01
1.006425000e+00,9.76569e-01,9.99999e-01,9.99999e-01,9.87568e-01,9.88896e-01,9.99964e-01
1.011457125e+00,9.81442e-01,9.99999e-01,9.99999e-01,9.92275e-01,9.89114e-01,9.99967e-01
1.016514411e+00,9.84109e-01,9.99999e-01,9.99999e-01,9.94746e-01,9.89328e-01,9.99976e-01
1.021596983e+00,9.85370e-01,9.99999e-01,9.99999e-01,9.95810e-01,9.89538e-01,9.99977e-01
1.026704968e+00,9.86494e-01,9.99999e-01,9.99999e-01,9.96730e-01,9.89743e-01,9.99985e-01
1.031838492e+00,9.87590e-01,9.99999e-01,9.99999e-01,9.97625e-01,9.89945e-01,9.99995e-01
1.036997685e+00,9.88744e-01,9.99999e-01,9.99999e-01,9.98587e-01,9.90142e-01,9.99998e-01
1.042182673e+00,9.88666e-01,9.99999e-01,9.99999e-01,9.98313e-01,9.90336e-01,9.99999e-01
1.047393587e+00,9.88313e-01,9.99999e-01,9.99999e-01,9.97765e-01,9.90526e-01,9.99999e-01
1.052630555e+00,9.87674e-01,9.99999e-01,9.99999e-01,9.96933e-01,9.90712e-01,9.99998e-01
1.057893707e+00,9.85823e-01,9.99999e-01,9.99999e-01,9.94882e-01,9.90895e-01,9.99997e-01
1.063183176e+00,9.82741e-01,9.99999e-01,9.99999e-01,9.91595e-01,9.91074e-01,9.99995e-01
1.068499092e+00,9.77337e-01,9.99999e-01,9.99999e-01,9.85973e-01,9.91249e-01,9.99990e-01
1.073841587e+00,9.75143e-01,9.99999e-01,9.99999e-01,9.83600e-01,9.91422e-01,9.99978e-01
1.079210795e+00,9.70763e-01,9.99999e-01,9.99999e-01,9.79050e-01,9.91590e-01,9.99943e-01
1.084606849e+00,9.60335e-01,9.99999e-01,9.99999e-01,9.68449e-01,9.91756e-01,9.99863e-01
1.090029883e+00,9.46952e-01,9.99999e-01,9.99999e-01,9.54935e-01,9.91918e-01,9.99718e-01
1.095480033e+00,8.74645e-01,9.99999e-01,9.99999e-01,8.82078e-01,9.92077e-01,9.99491e-01
1.100957433e+00,7.22250e-01,9.99999e-01,9.99999e-01,7.28584e-01,9.92233e-01,9.99064e-01
1.106462220e+00,4.52061e-01,9.99999e-01,9.99999e-01,4.56253e-01,9.92386e-01,9.98413e-01
1.111994531e+00,1.96502e-01,9.99999e-01,9.99999e-01,1.98816e-01,9.92535e-01,9.95793e-01
1.117554504e+00,7.62711e-02,9.99999e-01,9.99999e-01,7.80113e-02,9.92682e-01,9.84898e-01
1.123142276e+00,1.62639e-01,9.99999e-01,9.99999e-01,1.69833e-01,9.92826e-01,9.64559e-01
1.128757988e+00,2.84600e-01,9.99999e-01,9.99999e-01,2.98833e-01,9.92967e-01,9.59116e-01
1.134401778e+00,1.31038e-01,9.99999e-01,9.99999e-01,1.36715e-01,9.93106e-01,9.65128e-01
1.140073787e+00,4.57818e-01,9.99999e-01,9.99999e-01,4.74192e-01,9.93242e-01,9.72038e-01
1.145774156e+00,2.19405e-01,9.99999e-01,9.99999e-01,2.26677e-01,9.93375e-01,9.74374e-01
1.151503026e+00,1.90252e-01,9.99999e-01,9.99999e-01,1.94285e-01,9.93505e-01,9.85642e-01
1.157260541e+00,2.34211e-01,9.99999e-01,9.99999e-01,2.36733e-01,9.93633e-01,9.95685e-01
1.163046844e+00,3.39592e-01,9.99999e-01,9.99999e-01,3.42143e-01,9.93758e-01,9.98774e-01
1.168862078e+00,4.64112e-01,9.99999e-01,9.99999e-01,4.67264e-01,9.93881e-01,9.99368e-01
1.174706389e+00,6.20397e-01,9.99999e-01,9.99999e-01,6.24663e-01,9.94002e-01,9.99163e-01
1.180579921e+00,7.44694e-01,9.99999e-01,9.99999e-01,7.50047e-01,9.94120e-01,9.98734e-01
1.186482820e+00,8.43302e-01,9.99999e-01,9.99999e-01,8.49293e-01,9.94235e-01,9.98701e-01
1.192415234e+00,9.02879e-01,9.99999e-01,9.99999e-01,9.08892e-01,9.94349e-01,9.99027e-01
1.198377311e+00,9.16660e-01,9.99999e-01,9.99999e-01,9.22612e-01,9.94460e-01,9.99081e-01
1.204369197e+00,9.20982e-01,9.99999e-01,9.99999e-01,9.26779e-01,9.94569e-01,9.99168e-01
1.210391043e+00,9.24371e-01,9.99999e-01,9.99999e-01,9.29788e-01,9.94676e-01,9.99494e-01
1.216442998e+00,9.34809e-01,9.99999e-01,9.99999e-01,9.40003e-01,9.94781e-01,9.99689e-01
1.222525213e+00,9.47854e-01,9.99999e-01,9.99999e-01,9.52910e-01,9.94884e-01,9.99807e-01
1.228637839e+00,9.62112e-01,9.99999e-01,9.99999e-01,9.67047e-01,9.94985e-01,9.99910e-01
