#,Wave/freq,Total,N2,O2,H2O,Rayleigh,CIA
4.000000000e-01,4.99570e-02,9.99999e-01,9.99999e-01,9.99661e-01,4.99739e-02,9.99999e-01
4.020000000e-01,5.30129e-02,9.99999e-01,9.99999e-01,9.99789e-01,5.30241e-02,9.99999e-01
4.040100000e-01,5.61861e-02,9.99999e-01,9.99999e-01,9.99910e-01,5.61911e-02,9.99999e-01
4.060300500e-01,5.94780e-02,9.99999e-01,9.99999e-01,9.99979e-01,5.94792e-02,9.99999e-01
4.080602003e-01,6.28885e-02,9.99999e-01,9.99999e-01,9.99992e-01,6.28889e-02,9.99999e-01
4.101005013e-01,6.64210e-02,9.99999e-01,9.99999e-01,9.99999e-01,6.64210e-02,9.99999e-01
4.121510038e-01,7.00749e-02,9.99999e-01,9.99999e-01,9.99987e-01,7.00757e-02,9.99999e-01
4.142117588e-01,7.38466e-02,9.99999e-01,9.99999e-01,9.99906e-01,7.38534e-02,9.99999e-01
4.162828176e-01,7.77215e-02,9.99999e-01,9.99999e-01,9.99581e-01,7.77541e-02,9.99999e-01
4.183642317e-01,8.17572e-02,9.99999e-01,9.99999e-01,9.99750e-01,8.17775e-02,9.99999e-01
4.204560528e-01,8.59104e-02,9.99999e-01,9.99999e-01,9.99846e-01,8.59236e-02,9.99999e-01
4.225583331e-01,9.01865e-02,9.99999e-01,9.99999e-01,9.99942e-01,9.01916e-02,9.99999e-01
4.246711247e-01,9.45768e-02,9.99999e-01,9.99999e-01,9.99954e-01,9.45811e-02,9.99999e-01
4.267944804e-01,9.90845e-02,9.99999e-01,9.99999e-01,9.99932e-01,9.90911e-02,9.99999e-01
4.289284528e-01,1.03715e-01,9.99999e-01,9.99999e-01,9.99947e-01,1.03721e-01,9.99999e-01
4.310730950e-01,1.08466e-01,9.99999e-01,9.99999e-01,9.99977e-01,1.08469e-01,9.99999e-01
4.332284605e-01,1.13333e-01,9.99999e-01,9.99999e-01,9.99993e-01,1.13334e-01,9.99999e-01
4.353946028e-01,1.18314e-01,9.99999e-01,9.99999e-01,9.99997e-01,1.18315e-01,9.99999e-01
4.375715758e-01,1.23404e-01,9.99999e-01,9.99999e-01,9.99958e-01,1.23409e-01,9.99999e-01
4.397594337e-01,1.28569e-01,9.99999e-01,9.99999e-01,9.99632e-01,1.28616e-01,9.99999e-01
4.419582309e-01,1.33684e-01,9.99999e-01,9.99999e-01,9.98137e-01,1.33934e-01,9.99999e-01
4.441680220e-01,1.39156e-01,9.99999e-01,9.99999e-01,9.98542e-01,1.39359e-01,9.99999e-01
4.463888621e-01,1.44671e-01,9.99999e-01,9.99999e-01,9.98483e-01,1.44891e-01,9.99999e-01
4.486208064e-01,1.50385e-01,9.99999e-01,9.99999e-01,9.99057e-01,1.50526e-01,9.99999e-01
4.508639105e-01,1.56194e-01,9.99999e-01,9.99999e-01,9.99558e-01,1.56263e-01,9.99999e-01
4.531182300e-01,1.62071e-01,9.99999e-01,9.99999e-01,9.99825e-01,1.62099e-01,9.99999e-01
4.553838212e-01,1.68011e-01,9.99999e-01,9.99999e-01,9.99881e-01,1.68031e-01,9.99999e-01
4.576607403e-01,1.74047e-01,9.99999e-01,9.99999e-01,9.99945e-01,1.74056e-01,9.99999e-01
4.599490440e-01,1.80165e-01,9.99999e-01,9.99999e-01,9.99961e-01,1.80172e-01,9.99999e-01
4.622487892e-01,1.86375e-01,9.99999e-01,9.99999e-01,9.99992e-01,1.86376e-01,9.99999e-01
4.645600332e-01,1.92659e-01,9.99999e-01,9.99999e-01,9.99973e-01,1.92664e-01,9.99999e-01
4.668828333e-01,1.98946e-01,9.99999e-01,9.99999e-01,9.99554e-01,1.99035e-01,9.99999e-01
4.692172475e-01,2.05288e-01,9.99999e-01,9.99999e-01,9.99048e-01,2.05483e-01,9.99999e-01
4.715633337e-01,2.11876e-01,9.99999e-01,9.99999e-01,9.99378e-01,2.12007e-01,9.99999e-01
4.739211504e-01,2.18473e-01,9.99999e-01,9.99999e-01,9.99404e-01,2.18603e-01,9.99999e-01
4.762907561e-01,2.25199e-01,9.99999e-01,9.99999e-01,9.99691e-01,2.25268e-01,9.99999e-01
4.786722099e-01,2.31970e-01,9.99999e-01,9.99999e-01,9.99873e-01,2.31999e-01,9.99999e-01
4.810655710e-01,2.38783e-01,9.99999e-01,9.99999e-01,9.99961e-01,2.38792e-01,9.99999e-01
4.834708988e-01,2.45554e-01,9.99999e-01,9.99999e-01,9.99636e-01,2.45643e-01,9.99999e-01
4.858882533e-01,2.52380e-01,9.99999e-01,9.99999e-01,9.99326e-01,2.52550e-01,9.99999e-01
4.883176946e-01,2.59363e-01,9.99999e-01,9.99999e-01,9.99436e-01,2.59509e-01,9.99999e-01
4.907592831e-01,2.66381e-01,9.99999e-01,9.99999e-01,9.99490e-01,2.66517e-01,9.99999e-01
4.932130795e-01,2.73471e-01,9.99999e-01,9.99999e-01,9.99638e-01,2.73570e-01,9.99999e-01
4.956791449e-01,2.80611e-01,9.99999e-01,9.99999e-01,9.99808e-01,2.80665e-01,9.99999e-01
4.981575406e-01,2.87523e-01,9.99999e-01,9.99999e-01,9.99045e-01,2.87798e-01,9.99999e-01
5.006483283e-01,2.94232e-01,9.99999e-01,9.99999e-01,9.97528e-01,2.94966e-01,9.99982e-01
5.031515699e-01,2.98362e-01,9.99999e-01,9.99999e-01,9.87540e-01,3.02166e-01,9.99867e-01
5.056673278e-01,3.07303e-01,9.99999e-01,9.99999e-01,9.93392e-01,3.09394e-01,9.99848e-01
5.081956644e-01,3.13978e-01,9.99999e-01,9.99999e-01,9.91667e-01,3.16647e-01,9.99902e-01
5.107366428e-01,3.22092e-01,9.99999e-01,9.99999e-01,9.94369e-01,3.23922e-01,9.99981e-01
5.132903260e-01,3.30147e-01,9.99999e-01,9.99999e-01,9.96778e-01,3.31215e-01,9.99997e-01
5.158567776e-01,3.38063e-01,9.99999e-01,9.99999e-01,9.98638e-01,3.38524e-01,9.99999e-01
5.184360615e-01,3.45656e-01,9.99999e-01,9.99999e-01,9.99454e-01,3.45844e-01,9.99999e-01
5.210282418e-01,3.53102e-01,9.99999e-01,9.99999e-01,9.99796e-01,3.53174e-01,9.99999e-01
5.236333830e-01,3.60213e-01,9.99999e-01,9.99999e-01,9.99181e-01,3.60510e-01,9.99993e-01
5.262515499e-01,3.67657e-01,9.99999e-01,9.99999e-01,9.99487e-01,3.67849e-01,9.99991e-01
5.288828077e-01,3.75009e-01,9.99999e-01,9.99999e-01,9.99530e-01,3.75187e-01,9.99994e-01
5.315272217e-01,3.82365e-01,9.99999e-01,9.99999e-01,9.99586e-01,3.82523e-01,9.99998e-01
5.341848578e-01,3.89748e-01,9.99999e-01,9.99999e-01,9.99729e-01,3.89854e-01,9.99999e-01
5.368557821e-01,3.96796e-01,9.99999e-01,9.99999e-01,9.99048e-01,3.97175e-01,9.99997e-01
5.395400610e-01,4.03087e-01,9.99999e-01,9.99999e-01,9.96570e-01,4.04486e-01,9.99971e-01
5.422377613e-01,4.09922e-01,9.99999e-01,9.99999e-01,9.95560e-01,4.11783e-01,9.99919e-01
5.449489501e-01,4.17299e-01,9.99999e-01,9.99999e-01,9.95872e-01,4.19063e-01,9.99916e-01
5.476736949e-01,4.24748e-01,9.99999e-01,9.99999e-01,9.96342e-01,4.26324e-01,9.99958e-01
5.504120634e-01,4.32409e-01,9.99999e-01,9.99999e-01,9.97345e-01,4.33564e-01,9.99988e-01
5.531641237e-01,4.40191e-01,9.99999e-01,9.99999e-01,9.98663e-01,4.40781e-01,9.99997e-01
5.559299443e-01,4.47683e-01,9.99999e-01,9.99999e-01,9.99354e-01,4.47971e-01,9.99999e-01
5.587095940e-01,4.54950e-01,9.99999e-01,9.99999e-01,9.99595e-01,4.55134e-01,9.99999e-01
5.615031420e-01,4.62057e-01,9.99999e-01,9.99999e-01,9.99549e-01,4.62265e-01,9.99998e-01
5.643106577e-01,4.69124e-01,9.99999e-01,9.99999e-01,9.99490e-01,4.69365e-01,9.99995e-01
5.671322110e-01,4.73467e-01,9.99999e-01,9.99999e-01,9.93834e-01,4.76430e-01,9.99944e-01
5.699678720e-01,4.80196e-01,9.99999e-01,9.99999e-01,9.93417e-01,4.83459e-01,9.99831e-01
5.728177114e-01,4.87018e-01,9.99999e-01,9.99999e-01,9.93143e-01,4.90449e-01,9.99859e-01
5.756818000e-01,4.94226e-01,9.99999e-01,9.99999e-01,9.93704e-01,4.97400e-01,9.99913e-01
5.785602090e-01,5.01529e-01,9.99999e-01,9.99999e-01,9.94512e-01,5.04309e-01,9.99973e-01
5.814530100e-01,5.08352e-01,9.99999e-01,9.99999e-01,9.94489e-01,5.11174e-01,9.99987e-01
5.843602750e-01,5.14581e-01,9.99999e-01,9.99999e-01,9.93444e-01,5.17995e-01,9.99962e-01
5.872820764e-01,4.95928e-01,9.99999e-01,9.99999e-01,9.45416e-01,5.24769e-01,9.99601e-01
5.902184868e-01,4.95666e-01,9.99999e-01,9.99999e-01,9.33599e-01,5.31495e-01,9.98915e-01
5.931695792e-01,5.12292e-01,9.99999e-01,9.99999e-01,9.52902e-01,5.38173e-01,9.98956e-01
5.961354271e-01,5.16312e-01,9.99999e-01,9.99999e-01,9.48278e-01,5.44799e-01,9.99400e-01
5.991161043e-01,5.30279e-01,9.99999e-01,9.99999e-01,9.61918e-01,5.51374e-01,9.99814e-01
6.021116848e-01,5.45725e-01,9.99999e-01,9.99999e-01,9.78205e-01,5.57896e-01,9.99976e-01
6.051222432e-01,5.58106e-01,9.99999e-01,9.99999e-01,9.88910e-01,5.64365e-01,9.99997e-01
6.081478544e-01,5.68040e-01,9.99999e-01,9.99999e-01,9.95203e-01,5.70778e-01,9.99999e-01
6.111885937e-01,5.75962e-01,9.99999e-01,9.99999e-01,9.97967e-01,5.77135e-01,9.99999e-01
6.142445367e-01,5.82906e-01,9.99999e-01,9.99999e-01,9.99092e-01,5.83435e-01,9.99999e-01
6.173157594e-01,5.89383e-01,9.99999e-01,9.99999e-01,9.99499e-01,5.89678e-01,9.99999e-01
6.204023382e-01,5.95610e-01,9.99999e-01,9.99999e-01,9.99576e-01,5.95862e-01,9.99999e-01
6.235043498e-01,6.00863e-01,9.99999e-01,9.99999e-01,9.98137e-01,6.01987e-01,9.99994e-01
6.266218716e-01,6.02026e-01,9.99999e-01,9.99999e-01,9.90157e-01,6.08052e-01,9.99930e-01
6.297549810e-01,6.11749e-01,9.99999e-01,9.99999e-01,9.96379e-01,6.14057e-01,9.99860e-01
6.329037559e-01,6.15498e-01,9.99999e-01,9.99999e-01,9.92847e-01,6.20001e-01,9.99888e-01
6.360682746e-01,6.22031e-01,9.99999e-01,9.99999e-01,9.93911e-01,6.25883e-01,9.99933e-01
6.392486160e-01,6.26702e-01,9.99999e-01,9.99999e-01,9.92112e-01,6.31702e-01,9.99970e-01
6.424448591e-01,6.30724e-01,9.99999e-01,9.99999e-01,9.89478e-01,6.37460e-01,9.99953e-01
6.456570834e-01,6.12264e-01,9.99999e-01,9.99999e-01,9.52227e-01,6.43155e-01,9.99728e-01
6.488853688e-01,6.25486e-01,9.99999e-01,9.99999e-01,9.64819e-01,6.48786e-01,9.99238e-01
6.521297956e-01,6.30560e-01,9.99999e-01,9.99999e-01,9.64240e-01,6.54355e-01,9.99371e-01
6.553904446e-01,6.35912e-01,9.99999e-01,9.99999e-01,9.64158e-01,6.59859e-01,9.99532e-01
6.586673968e-01,6.44767e-01,9.99999e-01,9.99999e-01,9.69287e-01,6.65300e-01,9.99843e-01
6.619607338e-01,6.58644e-01,9.99999e-01,9.99999e-01,9.82090e-01,6.70677e-01,9.99966e-01
6.652705375e-01,6.68941e-01,9.99999e-01,9.99999e-01,9.89589e-01,6.75990e-01,9.99982e-01
6.685968902e-01,6.77933e-01,9.99999e-01,9.99999e-01,9.95150e-01,6.81239e-01,9.99996e-01
6.719398746e-01,6.84880e-01,9.99999e-01,9.99999e-01,9.97751e-01,6.86423e-01,9.99999e-01
6.752995740e-01,6.90701e-01,9.99999e-01,9.99999e-01,9.98781e-01,6.91544e-01,9.99999e-01
6.786760719e-01,6.95373e-01,9.99999e-01,9.99999e-01,9.98240e-01,6.96600e-01,9.99997e-01
6.820694522e-01,6.99468e-01,9.99999e-01,9.99999e-01,9.96987e-01,7.01593e-01,9.99983e-01
6.854797995e-01,7.03753e-01,9.99999e-01,9.99999e-01,9.96114e-01,7.06521e-01,9.99966e-01
6.889071985e-01,7.04688e-01,9.99999e-01,9.99999e-01,9.90666e-01,7.11386e-01,9.99915e-01
6.923517345e-01,6.15078e-01,9.99999e-01,9.99999e-01,8.59453e-01,7.16188e-01,9.99264e-01
6.958134932e-01,6.65293e-01,9.99999e-01,9.99999e-01,9.24336e-01,7.20925e-01,9.98371e-01
6.992925606e-01,6.71879e-01,9.99999e-01,9.99999e-01,9.27323e-01,7.25600e-01,9.98532e-01
7.027890234e-01,6.64424e-01,9.99999e-01,9.99999e-01,9.10926e-01,7.30212e-01,9.98879e-01
7.063029686e-01,6.78737e-01,9.99999e-01,9.99999e-01,9.24266e-01,7.34761e-01,9.99441e-01
7.098344834e-01,6.85147e-01,9.99999e-01,9.99999e-01,9.27121e-01,7.39248e-01,9.99669e-01
7.133836558e-01,6.72840e-01,9.99999e-01,9.99999e-01,9.05346e-01,7.43673e-01,9.99344e-01
7.169505741e-01,3.57972e-01,9.99999e-01,9.99999e-01,4.81026e-01,7.48036e-01,9.94851e-01
7.205353270e-01,5.13472e-01,9.99999e-01,9.99999e-01,6.88745e-01,7.52337e-01,9.90933e-01
7.241380036e-01,4.65629e-01,9.99999e-01,9.99999e-01,6.20299e-01,7.56578e-01,9.92166e-01
7.277586936e-01,4.91721e-01,9.99999e-01,9.99999e-01,6.50525e-01,7.60758e-01,9.93591e-01
7.313974871e-01,4.77915e-01,9.99999e-01,9.99999e-01,6.26708e-01,7.64878e-01,9.96993e-01
7.350544745e-01,5.92993e-01,9.99999e-01,9.99999e-01,7.71990e-01,7.68939e-01,9.98954e-01
7.387297469e-01,6.37198e-01,9.99999e-01,9.99999e-01,8.24777e-01,7.72940e-01,9.99520e-01
7.424233956e-01,7.06514e-01,9.99999e-01,9.99999e-01,9.09505e-01,7.76882e-01,9.99907e-01
7.461355126e-01,7.37063e-01,9.99999e-01,9.99999e-01,9.44040e-01,7.80766e-01,9.99983e-01
7.498661902e-01,7.63806e-01,9.99999e-01,9.99999e-01,9.73512e-01,7.84592e-01,9.99993e-01
7.536155211e-01,7.78043e-01,9.99999e-01,9.99999e-01,9.86915e-01,7.88360e-01,9.99996e-01
7.573835987e-01,7.86720e-01,9.99999e-01,9.99999e-01,9.93243e-01,7.92072e-01,9.99998e-01
7.611705167e-01,7.92384e-01,9.99999e-01,9.99999e-01,9.95797e-01,7.95727e-01,9.99999e-01
7.649763693e-01,7.97221e-01,9.99999e-01,9.99999e-01,9.97364e-01,7.99327e-01,9.99999e-01
7.688012511e-01,8.01398e-01,9.99999e-01,9.99999e-01,9.98164e-01,8.02871e-01,9.99999e-01
7.726452574e-01,8.05142e-01,9.99999e-01,9.99999e-01,9.98489e-01,8.06361e-01,9.99998e-01
7.765084837e-01,8.08058e-01,9.99999e-01,9.99999e-01,9.97855e-01,8.09796e-01,9.99996e-01
7.803910261e-01,8.05662e-01,9.99999e-01,9.99999e-01,9.90766e-01,8.13178e-01,9.99990e-01
7.842929812e-01,7.90495e-01,9.99999e-01,9.99999e-01,9.68200e-01,8.16506e-01,9.99940e-01
7.882144461e-01,7.66563e-01,9.99999e-01,9.99999e-01,9.35461e-01,8.19782e-01,9.99591e-01
7.921555184e-01,7.92843e-01,9.99999e-01,9.99999e-01,9.64109e-01,8.23006e-01,9.99210e-01
7.961162960e-01,7.74076e-01,9.99999e-01,9.99999e-01,9.37643e-01,8.26179e-01,9.99243e-01
8.000968774e-01,7.68872e-01,9.99999e-01,9.99999e-01,9.27878e-01,8.29301e-01,9.99195e-01
8.040973618e-01,7.71949e-01,9.99999e-01,9.99999e-01,9.27999e-01,8.32373e-01,9.99360e-01
8.081178486e-01,7.07523e-01,9.99999e-01,9.99999e-01,8.47440e-01,8.35395e-01,9.99400e-01
8.121584379e-01,4.32010e-01,9.99999e-01,9.99999e-01,5.16514e-01,8.38368e-01,9.97646e-01
8.162192301e-01,3.83999e-01,9.99999e-01,9.99999e-01,4.60502e-01,8.41292e-01,9.91177e-01
8.203003262e-01,5.81875e-01,9.99999e-01,9.99999e-01,6.96476e-01,8.44169e-01,9.89677e-01
8.244018279e-01,5.20536e-01,9.99999e-01,9.99999e-01,6.19660e-01,8.46998e-01,9.91776e-01
8.285238370e-01,5.23638e-01,9.99999e-01,9.99999e-01,6.20212e-01,8.49781e-01,9.93535e-01
8.326664562e-01,5.26783e-01,9.99999e-01,9.99999e-01,6.19573e-01,8.52518e-01,9.97321e-01
8.368297885e-01,6.00896e-01,9.99999e-01,9.99999e-01,7.03061e-01,8.55209e-01,9.99387e-01
8.410139374e-01,6.94244e-01,9.99999e-01,9.99999e-01,8.09568e-01,8.57855e-01,9.99641e-01
8.452190071e-01,7.75017e-01,9.99999e-01,9.99999e-01,9.00896e-01,8.60457e-01,9.99785e-01
8.494451021e-01,8.12004e-01,9.99999e-01,9.99999e-01,9.41053e-01,8.63015e-01,9.99827e-01
8.536923276e-01,8.34889e-01,9.99999e-01,9.99999e-01,9.64698e-01,8.65530e-01,9.99895e-01
8.579607893e-01,8.48981e-01,9.99999e-01,9.99999e-01,9.78109e-01,8.68002e-01,9.99974e-01
8.622505932e-01,8.58272e-01,9.99999e-01,9.99999e-01,9.86032e-01,8.70433e-01,9.99995e-01
8.665618462e-01,8.65263e-01,9.99999e-01,9.99999e-01,9.91342e-01,8.72822e-01,9.99996e-01
8.708946554e-01,8.66496e-01,9.99999e-01,9.99999e-01,9.90093e-01,8.75170e-01,9.99994e-01
8.752491287e-01,8.65852e-01,9.99999e-01,9.99999e-01,9.86763e-01,8.77478e-01,9.99985e-01
8.796253743e-01,8.63638e-01,9.99999e-01,9.99999e-01,9.81728e-01,8.79747e-01,9.99958e-01
8.840235012e-01,8.63492e-01,9.99999e-01,9.99999e-01,9.79167e-01,8.81976e-01,9.99871e-01
8.884436187e-01,8.20318e-01,9.99999e-01,9.99999e-01,9.28124e-01,8.84166e-01,9.99635e-01
8.928858368e-01,4.25105e-01,9.99999e-01,9.99999e-01,4.80639e-01,8.86319e-01,9.97898e-01
8.973502660e-01,2.45322e-01,9.99999e-01,9.99999e-01,2.79121e-01,8.88434e-01,9.89277e-01
9.018370173e-01,4.55669e-01,9.99999e-01,9.99999e-01,5.20439e-01,8.90513e-01,9.83193e-01
9.063462024e-01,4.89965e-01,9.99999e-01,9.99999e-01,5.57180e-01,8.92555e-01,9.85221e-01
9.108779334e-01,3.55091e-01,9.99999e-01,9.99999e-01,4.03133e-01,8.94561e-01,9.84647e-01
9.154323231e-01,3.08084e-01,9.99999e-01,9.99999e-01,3.48062e-01,8.96532e-01,9.87293e-01
9.200094847e-01,3.96140e-01,9.99999e-01,9.99999e-01,4.44072e-01,8.98468e-01,9.92868e-01
9.246095321e-01,2.80246e-01,9.99999e-01,9.99999e-01,3.13834e-01,9.00370e-01,9.91787e-01
9.292325798e-01,7.07830e-03,9.99999e-01,9.99999e-01,8.10166e-03,9.02238e-01,9.68350e-01
9.338787427e-01,2.55954e-04,9.99999e-01,9.99999e-01,3.23369e-04,9.04074e-01,8.75505e-01
9.385481364e-01,2.81986e-02,9.99999e-01,9.99999e-01,3.64613e-02,9.05876e-01,8.53739e-01
9.432408771e-01,1.15184e-02,9.99999e-01,9.99999e-01,1.45452e-02,9.07647e-01,8.72475e-01
9.479570815e-01,1.11591e-03,9.99999e-01,9.99999e-01,1.37120e-03,9.09386e-01,8.94913e-01
9.526968669e-01,4.69660e-03,9.99999e-01,9.99999e-01,5.51608e-03,9.11094e-01,9.34521e-01
9.574603512e-01,6.52420e-03,9.99999e-01,9.99999e-01,7.39783e-03,9.12771e-01,9.66185e-01
9.622476530e-01,1.48165e-02,9.99999e-01,9.99999e-01,1.65933e-02,9.14418e-01,9.76494e-01
9.670588912e-01,7.85390e-02,9.99999e-01,9.99999e-01,8.71440e-02,9.16035e-01,9.83864e-01
9.718941857e-01,1.58361e-01,9.99999e-01,9.99999e-01,1.74656e-01,9.17623e-01,9.88096e-01
9.767536566e-01,2.12714e-01,9.99999e-01,9.99999e-01,2.33544e-01,9.19183e-01,9.90890e-01
9.816374249e-01,3.01411e-01,9.99999e-01,9.99999e-01,3.28404e-01,9.20714e-01,9.96838e-01
9.865456120e-01,4.53362e-01,9.99999e-01,9.99999e-01,4.91923e-01,9.22218e-01,9.99340e-01
9.914783401e-01,5.91913e-01,9.99999e-01,9.99999e-01,6.40927e-01,9.23694e-01,9.99816e-01
9.964357318e-01,7.25600e-01,9.99999e-01,9.99999e-01,7.84394e-01,9.25143e-01,9.99892e-01
1.001417910e+00,8.00411e-01,9.99999e-01,9.99999e-01,8.63987e-01,9.26566e-01,9.99836e-01
1.006425000e+00,8.53384e-01,9.99999e-01,9.99999e-01,9.19845e-01,9.27963e-01,9.99766e-01
1.011457125e+00,8.82178e-01,9.99999e-01,9.99999e-01,9.49462e-01,9.29334e-01,9.99783e-01
1.016514411e+00,8.98329e-01,9.99999e-01,9.99999e-01,9.65385e-01,9.30681e-01,9.99847e-01
1.021596983e+00,9.06066e-01,9.99999e-01,9.99999e-01,9.72319e-01,9.32002e-01,9.99846e-01
1.026704968e+00,9.12992e-01,9.99999e-01,9.99999e-01,9.78340e-01,9.33299e-01,9.99897e-01
1.031838492e+00,9.19793e-01,9.99999e-01,9.99999e-01,9.84212e-01,9.34573e-01,9.99971e-01
1.036997685e+00,9.27018e-01,9.99999e-01,9.99999e-01,9.90595e-01,9.35823e-01,9.99995e-01
1.042182673e+00,9.26554e-01,9.99999e-01,9.99999e-01,9.88800e-01,9.37050e-01,9.99997e-01
1.047393587e+00,9.24338e-01,9.99999e-01,9.99999e-01,9.85170e-01,9.38254e-01,9.99996e-01
1.052630555e+00,9.20374e-01,9.99999e-01,9.99999e-01,9.79713e-01,9.39436e-01,9.99994e-01
1.057893707e+00,9.08980e-01,9.99999e-01,9.99999e-01,9.66398e-01,9.40596e-01,9.99987e-01
1.063183176e+00,8.90301e-01,9.99999e-01,9.99999e-01,9.45412e-01,9.41734e-01,9.99970e-01
1.068499092e+00,8.58381e-01,9.99999e-01,9.99999e-01,9.10466e-01,9.42852e-01,9.99936e-01
1.073841587e+00,8.46400e-01,9.99999e-01,9.99999e-01,8.96783e-01,9.43948e-01,9.99860e-01
1.079210795e+00,8.21038e-01,9.99999e-01,9.99999e-01,8.69127e-01,9.45024e-01,9.99623e-01
1.084606849e+00,7.65521e-01,9.99999e-01,9.99999e-01,8.09883e-01,9.46080e-01,9.99094e-01
1.090029883e+00,7.01265e-01,9.99999e-01,9.99999e-01,7.41812e-01,9.47117e-01,9.98123e-01
1.095480033e+00,4.21654e-01,9.99999e-01,9.99999e-01,4.46233e-01,9.48134e-01,9.96608e-01
1.100957433e+00,1.39159e-01,9.99999e-01,9.99999e-01,1.47536e-01,9.49132e-01,9.93767e-01
1.106462220e+00,1.43462e-02,9.99999e-01,9.99999e-01,1.52605e-02,9.50111e-01,9.89450e-01
1.111994531e+00,1.69256e-04,9.99999e-01,9.99999e-01,1.83045e-04,9.51072e-01,9.72237e-01
1.117554504e+00,4.40841e-06,9.99999e-01,9.99999e-01,5.12608e-06,9.52015e-01,9.03342e-01
1.123142276e+00,2.52198e-04,9.99999e-01,9.99999e-01,3.36797e-04,9.52940e-01,7.85792e-01
1.128757988e+00,1.09523e-03,9.99999e-01,9.99999e-01,1.51754e-03,9.53848e-01,7.56637e-01
1.134401778e+00,1.08714e-03,9.99999e-01,9.99999e-01,1.44338e-03,9.54738e-01,7.88892e-01
1.140073787e+00,1.05126e-02,9.99999e-01,9.99999e-01,1.32956e-02,9.55612e-01,8.27406e-01
1.145774156e+00,8.63892e-04,9.99999e-01,9.99999e-01,1.07425e-03,9.56469e-01,8.40782e-01
1.151503026e+00,2.33662e-04,9.99999e-01,9.99999e-01,2.68839e-04,9.57311e-01,9.07909e-01
1.157260541e+00,2.34743e-04,9.99999e-01,9.99999e-01,2.52180e-04,9.58136e-01,9.71527e-01
1.163046844e+00,2.04751e-03,9.99999e-01,9.99999e-01,2.15271e-03,9.58946e-01,9.91846e-01
1.168862078e+00,1.08058e-02,9.99999e-01,9.99999e-01,1.13067e-02,9.59740e-01,9.95791e-01
1.174706389e+00,5.35658e-02,9.99999e-01,9.99999e-01,5.60802e-02,9.60519e-01,9.94424e-01
1.180579921e+00,1.56671e-01,9.99999e-01,9.99999e-01,1.64365e-01,9.61284e-01,9.91581e-01
1.186482820e+00,3.28640e-01,9.99999e-01,9.99999e-01,3.44587e-01,9.62034e-01,9.91360e-01
1.192415234e+00,5.08229e-01,9.99999e-01,9.99999e-01,5.31323e-01,9.62770e-01,9.93522e-01
1.198377311e+00,5.62871e-01,9.99999e-01,9.99999e-01,5.87795e-01,9.63491e-01,9.93880e-01
1.204369197e+00,5.85314e-01,9.99999e-01,9.99999e-01,6.10426e-01,9.64199e-01,9.94462e-01
1.210391043e+00,5.96491e-01,9.99999e-01,9.99999e-01,6.20284e-01,9.64894e-01,9.96627e-01
1.216442998e+00,6.41829e-01,9.99999e-01,9.99999e-01,6.66088e-01,9.65575e-01,9.97933e-01
1.222525213e+00,7.00839e-01,9.99999e-01,9.99999e-01,7.26255e-01,9.66244e-01,9.98715e-01
1.228637839e+00,7.73315e-01,9.99999e-01,9.99999e-01,8.00266e-01,9.66899e-01,9.99402e-01
