#,Wave/freq,Total,N2,O2,H2O,Rayleigh,CIA
4.000000000e-01,8.34517e-01,9.99999e-01,9.99999e-01,9.99979e-01,8.34534e-01,9.99999e-01
4.020000000e-01,8.37514e-01,9.99999e-01,9.99999e-01,9.99986e-01,8.37524e-01,9.99999e-01
4.040100000e-01,8.40458e-01,9.99999e-01,9.99999e-01,9.99994e-01,8.40463e-01,9.99999e-01
4.060300500e-01,8.43352e-01,9.99999e-01,9.99999e-01,9.99998e-01,8.43353e-01,9.99999e-01
4.080602003e-01,8.46196e-01,9.99999e-01,9.99999e-01,9.99999e-01,8.46196e-01,9.99999e-01
4.101005013e-01,8.48992e-01,9.99999e-01,9.99999e-01,9.99999e-01,8.48992e-01,9.99999e-01
4.121510038e-01,8.51741e-01,9.99999e-01,9.99999e-01,9.99998e-01,8.51742e-01,9.99999e-01
4.142117588e-01,8.54441e-01,9.99999e-01,9.99999e-01,9.99993e-01,8.54446e-01,9.99999e-01
4.162828176e-01,8.57083e-01,9.99999e-01,9.99999e-01,9.99974e-01,8.57105e-01,9.99999e-01
4.183642317e-01,8.59706e-01,9.99999e-01,9.99999e-01,9.99984e-01,8.59719e-01,9.99999e-01
4.204560528e-01,8.62282e-01,9.99999e-01,9.99999e-01,9.99990e-01,8.62290e-01,9.99999e-01
4.225583331e-01,8.64814e-01,9.99999e-01,9.99999e-01,9.99996e-01,8.64817e-01,9.99999e-01
4.246711247e-01,8.67299e-01,9.99999e-01,9.99999e-01,9.99996e-01,8.67301e-01,9.99999e-01
4.267944804e-01,8.69740e-01,9.99999e-01,9.99999e-01,9.99995e-01,8.69744e-01,9.99999e-01
4.289284528e-01,8.72142e-01,9.99999e-01,9.99999e-01,9.99996e-01,8.72145e-01,9.99999e-01
4.310730950e-01,8.74503e-01,9.99999e-01,9.99999e-01,9.99998e-01,8.74504e-01,9.99999e-01
4.332284605e-01,8.76824e-01,9.99999e-01,9.99999e-01,9.99999e-01,8.76824e-01,9.99999e-01
4.353946028e-01,8.79103e-01,9.99999e-01,9.99999e-01,9.99999e-01,8.79103e-01,9.99999e-01
4.375715758e-01,8.81342e-01,9.99999e-01,9.99999e-01,9.99997e-01,8.81344e-01,9.99999e-01
4.397594337e-01,8.83526e-01,9.99999e-01,9.99999e-01,9.99977e-01,8.83545e-01,9.99999e-01
4.419582309e-01,8.85609e-01,9.99999e-01,9.99999e-01,9.99887e-01,8.85709e-01,9.99999e-01
4.441680220e-01,8.87756e-01,9.99999e-01,9.99999e-01,9.99911e-01,8.87835e-01,9.99999e-01
4.463888621e-01,8.89842e-01,9.99999e-01,9.99999e-01,9.99907e-01,8.89923e-01,9.99999e-01
4.486208064e-01,8.91925e-01,9.99999e-01,9.99999e-01,9.99942e-01,8.91976e-01,9.99999e-01
4.508639105e-01,8.93968e-01,9.99999e-01,9.99999e-01,9.99972e-01,8.93992e-01,9.99999e-01
4.531182300e-01,8.95964e-01,9.99999e-01,9.99999e-01,9.99988e-01,8.95973e-01,9.99999e-01
4.553838212e-01,8.97913e-01,9.99999e-01,9.99999e-01,9.99992e-01,8.97919e-01,9.99999e-01
4.576607403e-01,8.99828e-01,9.99999e-01,9.99999e-01,9.99996e-01,8.99831e-01,9.99999e-01
4.599490440e-01,9.01707e-01,9.99999e-01,9.99999e-01,9.99997e-01,9.01709e-01,9.99999e-01
4.622487892e-01,9.03553e-01,9.99999e-01,9.99999e-01,9.99999e-01,9.03553e-01,9.99999e-01
4.645600332e-01,9.05364e-01,9.99999e-01,9.99999e-01,9.99997e-01,9.05365e-01,9.99999e-01
4.668828333e-01,9.07121e-01,9.99999e-01,9.99999e-01,9.99972e-01,9.07145e-01,9.99999e-01
4.692172475e-01,9.08841e-01,9.99999e-01,9.99999e-01,9.99942e-01,9.08893e-01,9.99999e-01
4.715633337e-01,9.10575e-01,9.99999e-01,9.99999e-01,9.99962e-01,9.10609e-01,9.99999e-01
4.739211504e-01,9.12263e-01,9.99999e-01,9.99999e-01,9.99963e-01,9.12295e-01,9.99999e-01
4.762907561e-01,9.13934e-01,9.99999e-01,9.99999e-01,9.99980e-01,9.13951e-01,9.99999e-01
4.786722099e-01,9.15570e-01,9.99999e-01,9.99999e-01,9.99991e-01,9.15577e-01,9.99999e-01
4.810655710e-01,9.17171e-01,9.99999e-01,9.99999e-01,9.99997e-01,9.17173e-01,9.99999e-01
4.834708988e-01,9.18721e-01,9.99999e-01,9.99999e-01,9.99977e-01,9.18741e-01,9.99999e-01
4.858882533e-01,9.20243e-01,9.99999e-01,9.99999e-01,9.99958e-01,9.20280e-01,9.99999e-01
4.883176946e-01,9.21760e-01,9.99999e-01,9.99999e-01,9.99965e-01,9.21791e-01,9.99999e-01
4.907592831e-01,9.23247e-01,9.99999e-01,9.99999e-01,9.99968e-01,9.23275e-01,9.99999e-01
4.932130795e-01,9.24712e-01,9.99999e-01,9.99999e-01,9.99977e-01,9.24732e-01,9.99999e-01
4.956791449e-01,9.26152e-01,9.99999e-01,9.99999e-01,9.99987e-01,9.26163e-01,9.99999e-01
4.981575406e-01,9.27514e-01,9.99999e-01,9.99999e-01,9.99941e-01,9.27567e-01,9.99999e-01
5.006483283e-01,9.28806e-01,9.99999e-01,9.99999e-01,9.99850e-01,9.28946e-01,9.99998e-01
5.031515699e-01,9.29586e-01,9.99999e-01,9.99999e-01,9.99241e-01,9.30299e-01,9.99991e-01
5.056673278e-01,9.31246e-01,9.99999e-01,9.99999e-01,9.99599e-01,9.31628e-01,9.99990e-01
5.081956644e-01,9.32455e-01,9.99999e-01,9.99999e-01,9.99494e-01,9.32932e-01,9.99993e-01
5.107366428e-01,9.33892e-01,9.99999e-01,9.99999e-01,9.99658e-01,9.34212e-01,9.99998e-01
5.132903260e-01,9.35286e-01,9.99999e-01,9.99999e-01,9.99804e-01,9.35469e-01,9.99999e-01
5.158567776e-01,9.36625e-01,9.99999e-01,9.99999e-01,9.99917e-01,9.36702e-01,9.99999e-01
5.184360615e-01,9.37882e-01,9.99999e-01,9.99999e-01,9.99966e-01,9.37913e-01,9.99999e-01
5.210282418e-01,9.39089e-01,9.99999e-01,9.99999e-01,9.99987e-01,9.39101e-01,9.99999e-01
5.236333830e-01,9.40220e-01,9.99999e-01,9.99999e-01,9.99950e-01,9.40267e-01,9.99999e-01
5.262515499e-01,9.41382e-01,9.99999e-01,9.99999e-01,9.99968e-01,9.41412e-01,9.99999e-01
5.288828077e-01,9.42508e-01,9.99999e-01,9.99999e-01,9.99971e-01,9.42535e-01,9.99999e-01
5.315272217e-01,9.43614e-01,9.99999e-01,9.99999e-01,9.99974e-01,9.43637e-01,9.99999e-01
5.341848578e-01,9.44704e-01,9.99999e-01,9.99999e-01,9.99983e-01,9.44719e-01,9.99999e-01
5.368557821e-01,9.45727e-01,9.99999e-01,9.99999e-01,9.99942e-01,9.45781e-01,9.99999e-01
5.395400610e-01,9.46625e-01,9.99999e-01,9.99999e-01,9.99792e-01,9.46823e-01,9.99997e-01
5.422377613e-01,9.47586e-01,9.99999e-01,9.99999e-01,9.99730e-01,9.47845e-01,9.99994e-01
5.449489501e-01,9.48607e-01,9.99999e-01,9.99999e-01,9.99750e-01,9.48849e-01,9.99994e-01
5.476736949e-01,9.49621e-01,9.99999e-01,9.99999e-01,9.99778e-01,9.49833e-01,9.99997e-01
5.504120634e-01,9.50646e-01,9.99999e-01,9.99999e-01,9.99838e-01,9.50799e-01,9.99998e-01
5.531641237e-01,9.51670e-01,9.99999e-01,9.99999e-01,9.99918e-01,9.51747e-01,9.99999e-01
5.559299443e-01,9.52640e-01,9.99999e-01,9.99999e-01,9.99960e-01,9.52678e-01,9.99999e-01
5.587095940e-01,9.53567e-01,9.99999e-01,9.99999e-01,9.99975e-01,9.53590e-01,9.99999e-01
5.615031420e-01,9.54460e-01,9.99999e-01,9.99999e-01,9.99972e-01,9.54486e-01,9.99999e-01
5.643106577e-01,9.55335e-01,9.99999e-01,9.99999e-01,9.99968e-01,9.55364e-01,9.99999e-01
5.671322110e-01,9.55866e-01,9.99999e-01,9.99999e-01,9.99625e-01,9.56226e-01,9.99996e-01
5.699678720e-01,9.56680e-01,9.99999e-01,9.99999e-01,9.99599e-01,9.57072e-01,9.99989e-01
5.728177114e-01,9.57496e-01,9.99999e-01,9.99999e-01,9.99584e-01,9.57902e-01,9.99991e-01
5.756818000e-01,9.58346e-01,9.99999e-01,9.99999e-01,9.99618e-01,9.58716e-01,9.99994e-01
5.785602090e-01,9.59194e-01,9.99999e-01,9.99999e-01,9.99667e-01,9.59515e-01,9.99997e-01
5.814530100e-01,9.59977e-01,9.99999e-01,9.99999e-01,9.99665e-01,9.60298e-01,9.99998e-01
5.843602750e-01,9.60683e-01,9.99999e-01,9.99999e-01,9.99602e-01,9.61067e-01,9.99997e-01
5.872820764e-01,9.58506e-01,9.99999e-01,9.99999e-01,9.96576e-01,9.61821e-01,9.99975e-01
5.902184868e-01,9.58499e-01,9.99999e-01,9.99999e-01,9.95844e-01,9.62561e-01,9.99933e-01
5.931695792e-01,9.60399e-01,9.99999e-01,9.99999e-01,9.97064e-01,9.63287e-01,9.99936e-01
5.961354271e-01,9.60862e-01,9.99999e-01,9.99999e-01,9.96781e-01,9.63999e-01,9.99963e-01
5.991161043e-01,9.62421e-01,9.99999e-01,9.99999e-01,9.97651e-01,9.64697e-01,9.99988e-01
6.021116848e-01,9.64094e-01,9.99999e-01,9.99999e-01,9.98666e-01,9.65382e-01,9.99998e-01
6.051222432e-01,9.65403e-01,9.99999e-01,9.99999e-01,9.99324e-01,9.66054e-01,9.99999e-01
6.081478544e-01,9.66432e-01,9.99999e-01,9.99999e-01,9.99708e-01,9.66714e-01,9.99999e-01
6.111885937e-01,9.67241e-01,9.99999e-01,9.99999e-01,9.99876e-01,9.67360e-01,9.99999e-01
6.142445367e-01,9.67941e-01,9.99999e-01,9.99999e-01,9.99944e-01,9.67994e-01,9.99999e-01
6.173157594e-01,9.68587e-01,9.99999e-01,9.99999e-01,9.99969e-01,9.68617e-01,9.99999e-01
6.204023382e-01,9.69202e-01,9.99999e-01,9.99999e-01,9.99973e-01,9.69227e-01,9.99999e-01
6.235043498e-01,9.69716e-01,9.99999e-01,9.99999e-01,9.99887e-01,9.69825e-01,9.99999e-01
6.266218716e-01,9.69828e-01,9.99999e-01,9.99999e-01,9.99401e-01,9.70412e-01,9.99995e-01
6.297549810e-01,9.70767e-01,9.99999e-01,9.99999e-01,9.99780e-01,9.70988e-01,9.99991e-01
6.329037559e-01,9.71125e-01,9.99999e-01,9.99999e-01,9.99566e-01,9.71553e-01,9.99992e-01
6.360682746e-01,9.71745e-01,9.99999e-01,9.99999e-01,9.99630e-01,9.72107e-01,9.99995e-01
6.392486160e-01,9.72184e-01,9.99999e-01,9.99999e-01,9.99521e-01,9.72650e-01,9.99997e-01
6.424448591e-01,9.72559e-01,9.99999e-01,9.99999e-01,9.99360e-01,9.73183e-01,9.99996e-01
6.456570834e-01,9.70803e-01,9.99999e-01,9.99999e-01,9.97034e-01,9.73706e-01,9.99983e-01
6.488853688e-01,9.72053e-01,9.99999e-01,9.99999e-01,9.97822e-01,9.74219e-01,9.99953e-01
6.521297956e-01,9.72521e-01,9.99999e-01,9.99999e-01,9.97780e-01,9.74721e-01,9.99961e-01
6.553904446e-01,9.73036e-01,9.99999e-01,9.99999e-01,9.97793e-01,9.75214e-01,9.99971e-01
6.586673968e-01,9.73843e-01,9.99999e-01,9.99999e-01,9.98108e-01,9.75698e-01,9.99990e-01
6.619607338e-01,9.75103e-01,9.99999e-01,9.99999e-01,9.98906e-01,9.76172e-01,9.99997e-01
6.652705375e-01,9.76018e-01,9.99999e-01,9.99999e-01,9.99366e-01,9.76637e-01,9.99998e-01
6.685968902e-01,9.76806e-01,9.99999e-01,9.99999e-01,9.99705e-01,9.77093e-01,9.99999e-01
6.719398746e-01,9.77407e-01,9.99999e-01,9.99999e-01,9.99863e-01,9.77541e-01,9.99999e-01
6.752995740e-01,9.77907e-01,9.99999e-01,9.99999e-01,9.99925e-01,9.77979e-01,9.99999e-01
6.786760719e-01,9.78305e-01,9.99999e-01,9.99999e-01,9.99893e-01,9.78410e-01,9.99999e-01
6.820694522e-01,9.78652e-01,9.99999e-01,9.99999e-01,9.99817e-01,9.78831e-01,9.99998e-01
6.854797995e-01,9.79013e-01,9.99999e-01,9.99999e-01,9.99764e-01,9.79245e-01,9.99997e-01
6.889071985e-01,9.79090e-01,9.99999e-01,9.99999e-01,9.99432e-01,9.79651e-01,9.99994e-01
6.923517345e-01,9.70929e-01,9.99999e-01,9.99999e-01,9.90737e-01,9.80049e-01,9.99954e-01
6.958134932e-01,9.75589e-01,9.99999e-01,9.99999e-01,9.95152e-01,9.80439e-01,9.99899e-01
6.992925606e-01,9.76239e-01,9.99999e-01,9.99999e-01,9.95415e-01,9.80822e-01,9.99911e-01
7.027890234e-01,9.75569e-01,9.99999e-01,9.99999e-01,9.94331e-01,9.81197e-01,9.99931e-01
7.063029686e-01,9.76854e-01,9.99999e-01,9.99999e-01,9.95234e-01,9.81565e-01,9.99965e-01
7.098344834e-01,9.77416e-01,9.99999e-01,9.99999e-01,9.95427e-01,9.81926e-01,9.99979e-01
7.133836558e-01,9.76273e-01,9.99999e-01,9.99999e-01,9.93924e-01,9.82279e-01,9.99959e-01
7.169505741e-01,9.35161e-01,9.99999e-01,9.99999e-01,9.51992e-01,9.82626e-01,9.99687e-01
7.205353270e-01,9.58981e-01,9.99999e-01,9.99999e-01,9.76135e-01,9.82967e-01,9.99448e-01
7.241380036e-01,9.53237e-01,9.99999e-01,9.99999e-01,9.69886e-01,9.83300e-01,9.99523e-01
7.277586936e-01,9.56482e-01,9.99999e-01,9.99999e-01,9.72780e-01,9.83627e-01,9.99610e-01
7.313974871e-01,9.55288e-01,9.99999e-01,9.99999e-01,9.71048e-01,9.83948e-01,9.99817e-01
7.350544745e-01,9.68550e-01,9.99999e-01,9.99999e-01,9.84097e-01,9.84263e-01,9.99936e-01
7.387297469e-01,9.73001e-01,9.99999e-01,9.99999e-01,9.88276e-01,9.84571e-01,9.99970e-01
7.424233956e-01,9.79203e-01,9.99999e-01,9.99999e-01,9.94247e-01,9.84873e-01,9.99993e-01
7.461355126e-01,9.81733e-01,9.99999e-01,9.99999e-01,9.96511e-01,9.85170e-01,9.99998e-01
7.498661902e-01,9.83858e-01,9.99999e-01,9.99999e-01,9.98373e-01,9.85461e-01,9.99999e-01
7.536155211e-01,9.84960e-01,9.99999e-01,9.99999e-01,9.99202e-01,9.85746e-01,9.99999e-01
7.573835987e-01,9.85621e-01,9.99999e-01,9.99999e-01,9.99589e-01,9.86025e-01,9.99999e-01
7.611705167e-01,9.86048e-01,9.99999e-01,9.99999e-01,9.99744e-01,9.86300e-01,9.99999e-01
7.649763693e-01,9.86411e-01,9.99999e-01,9.99999e-01,9.99839e-01,9.86568e-01,9.99999e-01
7.688012511e-01,9.86722e-01,9.99999e-01,9.99999e-01,9.99888e-01,9.86832e-01,9.99999e-01
7.726452574e-01,9.87000e-01,9.99999e-01,9.99999e-01,9.99908e-01,9.87090e-01,9.99999e-01
7.765084837e-01,9.87215e-01,9.99999e-01,9.99999e-01,9.99869e-01,9.87344e-01,9.99999e-01
7.803910261e-01,9.87038e-01,9.99999e-01,9.99999e-01,9.99438e-01,9.87592e-01,9.99998e-01
7.842929812e-01,9.85899e-01,9.99999e-01,9.99999e-01,9.98042e-01,9.87836e-01,9.99995e-01
7.882144461e-01,9.84062e-01,9.99999e-01,9.99999e-01,9.95962e-01,9.88074e-01,9.99974e-01
7.921555184e-01,9.86070e-01,9.99999e-01,9.99999e-01,9.97782e-01,9.88309e-01,9.99951e-01
7.961162960e-01,9.84631e-01,9.99999e-01,9.99999e-01,9.96092e-01,9.88538e-01,9.99953e-01
8.000968774e-01,9.84248e-01,9.99999e-01,9.99999e-01,9.95481e-01,9.88763e-01,9.99950e-01
8.040973618e-01,9.84478e-01,9.99999e-01,9.99999e-01,9.95481e-01,9.88984e-01,9.99960e-01
8.081178486e-01,9.79126e-01,9.99999e-01,9.99999e-01,9.89851e-01,9.89200e-01,9.99963e-01
8.121584379e-01,9.48015e-01,9.99999e-01,9.99999e-01,9.58295e-01,9.89413e-01,9.99856e-01
8.162192301e-01,9.40187e-01,9.99999e-01,9.99999e-01,9.50556e-01,9.89621e-01,9.99463e-01
8.203003262e-01,9.64606e-01,9.99999e-01,9.99999e-01,9.75134e-01,9.89825e-01,9.99371e-01
8.244018279e-01,9.55093e-01,9.99999e-01,9.99999e-01,9.65198e-01,9.90025e-01,9.99499e-01
8.285238370e-01,9.60395e-01,9.99999e-01,9.99999e-01,9.70259e-01,9.90221e-01,9.99607e-01
8.326664562e-01,9.60454e-01,9.99999e-01,9.99999e-01,9.69908e-01,9.90413e-01,9.99837e-01
8.368297885e-01,9.69189e-01,9.99999e-01,9.99999e-01,9.78420e-01,9.90601e-01,9.99962e-01
8.410139374e-01,9.78011e-01,9.99999e-01,9.99999e-01,9.87127e-01,9.90786e-01,9.99977e-01
8.452190071e-01,9.84681e-01,9.99999e-01,9.99999e-01,9.93668e-01,9.90967e-01,9.99986e-01
8.494451021e-01,9.87494e-01,9.99999e-01,9.99999e-01,9.96326e-01,9.91145e-01,9.99989e-01
8.536923276e-01,9.89157e-01,9.99999e-01,9.99999e-01,9.97824e-01,9.91319e-01,9.99993e-01
8.579607893e-01,9.90161e-01,9.99999e-01,9.99999e-01,9.98660e-01,9.91490e-01,9.99997e-01
8.622505932e-01,9.90813e-01,9.99999e-01,9.99999e-01,9.99148e-01,9.91657e-01,9.99999e-01
8.665618462e-01,9.91299e-01,9.99999e-01,9.99999e-01,9.99473e-01,9.91821e-01,9.99999e-01
8.708946554e-01,9.91385e-01,9.99999e-01,9.99999e-01,9.99397e-01,9.91982e-01,9.99999e-01
8.752491287e-01,9.91340e-01,9.99999e-01,9.99999e-01,9.99194e-01,9.92140e-01,9.99998e-01
8.796253743e-01,9.91186e-01,9.99999e-01,9.99999e-01,9.98885e-01,9.92294e-01,9.99997e-01
8.840235012e-01,9.91175e-01,9.99999e-01,9.99999e-01,9.98726e-01,9.92446e-01,9.99991e-01
8.884436187e-01,9.87982e-01,9.99999e-01,9.99999e-01,9.95374e-01,9.92595e-01,9.99977e-01
8.928858368e-01,9.45084e-01,9.99999e-01,9.99999e-01,9.52116e-01,9.92740e-01,9.99872e-01
8.973502660e-01,9.09520e-01,9.99999e-01,9.99999e-01,9.16637e-01,9.92883e-01,9.99347e-01
9.018370173e-01,9.48826e-01,9.99999e-01,9.99999e-01,9.56472e-01,9.93023e-01,9.98974e-01
9.063462024e-01,9.54300e-01,9.99999e-01,9.99999e-01,9.61737e-01,9.93161e-01,9.99099e-01
9.108779334e-01,9.33715e-01,9.99999e-01,9.99999e-01,9.40897e-01,9.93295e-01,9.99063e-01
9.154323231e-01,9.26266e-01,9.99999e-01,9.99999e-01,9.33115e-01,9.93427e-01,9.99226e-01
9.200094847e-01,9.40682e-01,9.99999e-01,9.99999e-01,9.47191e-01,9.93557e-01,9.99566e-01
9.246095321e-01,9.12679e-01,9.99999e-01,9.99999e-01,9.18938e-01,9.93683e-01,9.99500e-01
9.292325798e-01,5.63436e-01,9.99999e-01,9.99999e-01,5.68051e-01,9.93808e-01,9.98055e-01
9.338787427e-01,4.74862e-01,9.99999e-01,9.99999e-01,4.81621e-01,9.93930e-01,9.91986e-01
9.385481364e-01,7.33096e-01,9.99999e-01,9.99999e-01,7.44574e-01,9.94049e-01,9.90477e-01
9.432408771e-01,6.55270e-01,9.99999e-01,9.99999e-01,6.64577e-01,9.94166e-01,9.91778e-01
9.479570815e-01,5.62885e-01,9.99999e-01,9.99999e-01,5.69938e-01,9.94281e-01,9.93303e-01
9.526968669e-01,6.48483e-01,9.99999e-01,9.99999e-01,6.54816e-01,9.94394e-01,9.95910e-01
9.574603512e-01,6.71672e-01,9.99999e-01,9.99999e-01,6.76790e-01,9.94504e-01,9.97920e-01
9.622476530e-01,7.22533e-01,9.99999e-01,9.99999e-01,7.27492e-01,9.94613e-01,9.98561e-01
9.670588912e-01,8.27262e-01,9.99999e-01,9.99999e-01,8.32472e-01,9.94719e-01,9.99015e-01
9.718941857e-01,8.86417e-01,9.99999e-01,9.99999e-01,8.91675e-01,9.94823e-01,9.99275e-01
9.767536566e-01,9.04109e-01,9.99999e-01,9.99999e-01,9.09223e-01,9.94925e-01,9.99445e-01
9.816374249e-01,9.27062e-01,9.99999e-01,9.99999e-01,9.31875e-01,9.95025e-01,9.99807e-01
9.865456120e-01,9.52176e-01,9.99999e-01,9.99999e-01,9.56880e-01,9.95123e-01,9.99959e-01
9.914783401e-01,9.68470e-01,9.99999e-01,9.99999e-01,9.73132e-01,9.95219e-01,9.99988e-01
9.964357318e-01,9.80656e-01,9.99999e-01,9.99999e-01,9.85280e-01,9.95313e-01,9.99993e-01
1.001417910e+00,9.86590e-01,9.99999e-01,9.99999e-01,9.91153e-01,9.95405e-01,9.99989e-01
1.006425000e+00,9.90456e-01,9.99999e-01,9.99999e-01,9.94950e-01,9.95496e-01,9.99985e-01
1.011457125e+00,9.92448e-01,9.99999e-01,9.99999e-01,9.96861e-01,9.95585e-01,9.99986e-01
1.016514411e+00,9.93541e-01,9.99999e-01,9.99999e-01,9.97869e-01,9.95672e-01,9.99990e-01
1.021596983e+00,9.94058e-01,9.99999e-01,9.99999e-01,9.98302e-01,9.95757e-01,9.99990e-01
1.026704968e+00,9.94516e-01,9.99999e-01,9.99999e-01,9.98675e-01,9.95841e-01,9.99993e-01
1.031838492e+00,9.94962e-01,9.99999e-01,9.99999e-01,9.99036e-01,9.95922e-01,9.99997e-01
1.036997685e+00,9.95433e-01,9.99999e-01,9.99999e-01,9.99428e-01,9.96003e-01,9.99999e-01
1.042182673e+00,9.95403e-01,9.99999e-01,9.99999e-01,9.99318e-01,9.96082e-01,9.99999e-01
1.047393587e+00,9.95259e-01,9.99999e-01,9.99999e-01,9.99096e-01,9.96159e-01,9.99999e-01
1.052630555e+00,9.95000e-01,9.99999e-01,9.99999e-01,9.98760e-01,9.96235e-01,9.99999e-01
1.057893707e+00,9.94248e-01,9.99999e-01,9.99999e-01,9.97932e-01,9.96309e-01,9.99998e-01
1.063183176e+00,9.92990e-01,9.99999e-01,9.99999e-01,9.96597e-01,9.96382e-01,9.99997e-01
1.068499092e+00,9.90776e-01,9.99999e-01,9.99999e-01,9.94305e-01,9.96453e-01,9.99995e-01
1.073841587e+00,9.89879e-01,9.99999e-01,9.99999e-01,9.93340e-01,9.96523e-01,9.99991e-01
1.079210795e+00,9.88066e-01,9.99999e-01,9.99999e-01,9.91467e-01,9.96591e-01,9.99976e-01
1.084606849e+00,9.83761e-01,9.99999e-01,9.99999e-01,9.87112e-01,9.96659e-01,9.99944e-01
1.090029883e+00,9.78231e-01,9.99999e-01,9.99999e-01,9.81557e-01,9.96724e-01,9.99885e-01
1.095480033e+00,9.47269e-01,9.99999e-01,9.99999e-01,9.50515e-01,9.96789e-01,9.99794e-01
1.100957433e+00,8.75912e-01,9.99999e-01,9.99999e-01,8.79010e-01,9.96852e-01,9.99621e-01
1.106462220e+00,7.18481e-01,9.99999e-01,9.99999e-01,7.21166e-01,9.96914e-01,9.99357e-01
1.111994531e+00,5.01042e-01,9.99999e-01,9.99999e-01,5.03418e-01,9.96975e-01,9.98297e-01
1.117554504e+00,3.27426e-01,9.99999e-01,9.99999e-01,3.30426e-01,9.97035e-01,9.93867e-01
1.123142276e+00,4.37888e-01,9.99999e-01,9.99999e-01,4.45616e-01,9.97093e-01,9.85519e-01
1.128757988e+00,5.82236e-01,9.99999e-01,9.99999e-01,5.93836e-01,9.97151e-01,9.83267e-01
1.134401778e+00,3.28263e-01,9.99999e-01,9.99999e-01,3.33940e-01,9.97207e-01,9.85753e-01
1.140073787e+00,7.21392e-01,9.99999e-01,9.99999e-01,7.31713e-01,9.97262e-01,9.88601e-01
1.145774156e+00,5.16038e-01,9.99999e-01,9.99999e-01,5.22884e-01,9.97316e-01,9.89560e-01
1.151503026e+00,4.82357e-01,9.99999e-01,9.99999e-01,4.86465e-01,9.97369e-01,9.94170e-01
1.157260541e+00,5.43338e-01,9.99999e-01,9.99999e-01,5.45696e-01,9.97421e-01,9.98253e-01
1.163046844e+00,6.36715e-01,9.99999e-01,9.99999e-01,6.38645e-01,9.97472e-01,9.99504e-01
1.168862078e+00,7.29835e-01,9.99999e-01,9.99999e-01,7.31835e-01,9.97521e-01,9.99744e-01
1.174706389e+00,8.22471e-01,9.99999e-01,9.99999e-01,8.24752e-01,9.97570e-01,9.99661e-01
1.180579921e+00,8.86683e-01,9.99999e-01,9.99999e-01,8.89254e-01,9.97618e-01,9.99488e-01
1.186482820e+00,9.33160e-01,9.99999e-01,9.99999e-01,9.35834e-01,9.97665e-01,9.99474e-01
1.192415234e+00,9.59473e-01,9.99999e-01,9.99999e-01,9.62051e-01,9.97711e-01,9.99606e-01
1.198377311e+00,9.65403e-01,9.99999e-01,9.99999e-01,9.67932e-01,9.97756e-01,9.99628e-01
1.204369197e+00,9.67167e-01,9.99999e-01,9.99999e-01,9.69624e-01,9.97801e-01,9.99663e-01
1.210391043e+00,9.68640e-01,9.99999e-01,9.99999e-01,9.70931e-01,9.97844e-01,9.99795e-01
1.216442998e+00,9.73025e-01,9.99999e-01,9.99999e-01,9.75207e-01,9.97887e-01,9.99874e-01
1.222525213e+00,9.78545e-01,9.99999e-01,9.99999e-01,9.80651e-01,9.97928e-01,9.99921e-01
1.228637839e+00,9.84490e-01,9.99999e-01,9.99999e-01,9.86529e-01,9.97969e-01,9.99963e-01
