#,Wave/freq,Total,N2,O2,H2O,Rayleigh,CIA
4.000000000e-01,9.33447e-01,9.99999e-01,9.99999e-01,9.99991e-01,9.33454e-01,9.99999e-01
4.020000000e-01,9.34721e-01,9.99999e-01,9.99999e-01,9.99994e-01,9.34726e-01,9.99999e-01
4.040100000e-01,9.35971e-01,9.99999e-01,9.99999e-01,9.99997e-01,9.35973e-01,9.99999e-01
4.060300500e-01,9.37197e-01,9.99999e-01,9.99999e-01,9.99999e-01,9.37197e-01,9.99999e-01
4.080602003e-01,9.38398e-01,9.99999e-01,9.99999e-01,9.99999e-01,9.38399e-01,9.99999e-01
4.101005013e-01,9.39578e-01,9.99999e-01,9.99999e-01,9.99999e-01,9.39578e-01,9.99999e-01
4.121510038e-01,9.40735e-01,9.99999e-01,9.99999e-01,9.99999e-01,9.40735e-01,9.99999e-01
4.142117588e-01,9.41869e-01,9.99999e-01,9.99999e-01,9.99997e-01,9.41871e-01,9.99999e-01
4.162828176e-01,9.42977e-01,9.99999e-01,9.99999e-01,9.99989e-01,9.42986e-01,9.99999e-01
4.183642317e-01,9.44075e-01,9.99999e-01,9.99999e-01,9.99993e-01,9.44080e-01,9.99999e-01
4.204560528e-01,9.45150e-01,9.99999e-01,9.99999e-01,9.99995e-01,9.45154e-01,9.99999e-01
4.225583331e-01,9.46206e-01,9.99999e-01,9.99999e-01,9.99998e-01,9.46207e-01,9.99999e-01
4.246711247e-01,9.47240e-01,9.99999e-01,9.99999e-01,9.99998e-01,9.47241e-01,9.99999e-01
4.267944804e-01,9.48254e-01,9.99999e-01,9.99999e-01,9.99997e-01,9.48256e-01,9.99999e-01
4.289284528e-01,9.49250e-01,9.99999e-01,9.99999e-01,9.99998e-01,9.49252e-01,9.99999e-01
4.310730950e-01,9.50228e-01,9.99999e-01,9.99999e-01,9.99998e-01,9.50229e-01,9.99999e-01
4.332284605e-01,9.51187e-01,9.99999e-01,9.99999e-01,9.99999e-01,9.51187e-01,9.99999e-01
4.353946028e-01,9.52128e-01,9.99999e-01,9.99999e-01,9.99999e-01,9.52128e-01,9.99999e-01
4.375715758e-01,9.53050e-01,9.99999e-01,9.99999e-01,9.99998e-01,9.53051e-01,9.99999e-01
4.397594337e-01,9.53949e-01,9.99999e-01,9.99999e-01,9.99991e-01,9.53957e-01,9.99999e-01
4.419582309e-01,9.54804e-01,9.99999e-01,9.99999e-01,9.99956e-01,9.54845e-01,9.99999e-01
4.441680220e-01,9.55685e-01,9.99999e-01,9.99999e-01,9.99965e-01,9.55717e-01,9.99999e-01
4.463888621e-01,9.56539e-01,9.99999e-01,9.99999e-01,9.99964e-01,9.56573e-01,9.99999e-01
4.486208064e-01,9.57391e-01,9.99999e-01,9.99999e-01,9.99977e-01,9.57412e-01,9.99999e-01
4.508639105e-01,9.58225e-01,9.99999e-01,9.99999e-01,9.99989e-01,9.58235e-01,9.99999e-01
4.531182300e-01,9.59039e-01,9.99999e-01,9.99999e-01,9.99995e-01,9.59043e-01,9.99999e-01
4.553838212e-01,9.59833e-01,9.99999e-01,9.99999e-01,9.99996e-01,9.59835e-01,9.99999e-01
4.576607403e-01,9.60612e-01,9.99999e-01,9.99999e-01,9.99998e-01,9.60613e-01,9.99999e-01
4.599490440e-01,9.61375e-01,9.99999e-01,9.99999e-01,9.99998e-01,9.61376e-01,9.99999e-01
4.622487892e-01,9.62124e-01,9.99999e-01,9.99999e-01,9.99999e-01,9.62124e-01,9.99999e-01
4.645600332e-01,9.62857e-01,9.99999e-01,9.99999e-01,9.99998e-01,9.62858e-01,9.99999e-01
4.668828333e-01,9.63568e-01,9.99999e-01,9.99999e-01,9.99989e-01,9.63578e-01,9.99999e-01
4.692172475e-01,9.64263e-01,9.99999e-01,9.99999e-01,9.99977e-01,9.64285e-01,9.99999e-01
4.715633337e-01,9.64964e-01,9.99999e-01,9.99999e-01,9.99985e-01,9.64977e-01,9.99999e-01
4.739211504e-01,9.65644e-01,9.99999e-01,9.99999e-01,9.99985e-01,9.65657e-01,9.99999e-01
4.762907561e-01,9.66317e-01,9.99999e-01,9.99999e-01,9.99992e-01,9.66324e-01,9.99999e-01
4.786722099e-01,9.66975e-01,9.99999e-01,9.99999e-01,9.99996e-01,9.66978e-01,9.99999e-01
4.810655710e-01,9.67619e-01,9.99999e-01,9.99999e-01,9.99998e-01,9.67620e-01,9.99999e-01
4.834708988e-01,9.68241e-01,9.99999e-01,9.99999e-01,9.99991e-01,9.68249e-01,9.99999e-01
4.858882533e-01,9.68851e-01,9.99999e-01,9.99999e-01,9.99984e-01,9.68866e-01,9.99999e-01
4.883176946e-01,9.69459e-01,9.99999e-01,9.99999e-01,9.99986e-01,9.69472e-01,9.99999e-01
4.907592831e-01,9.70054e-01,9.99999e-01,9.99999e-01,9.99987e-01,9.70066e-01,9.99999e-01
4.932130795e-01,9.70640e-01,9.99999e-01,9.99999e-01,9.99991e-01,9.70648e-01,9.99999e-01
4.956791449e-01,9.71215e-01,9.99999e-01,9.99999e-01,9.99995e-01,9.71219e-01,9.99999e-01
4.981575406e-01,9.71758e-01,9.99999e-01,9.99999e-01,9.99977e-01,9.71780e-01,9.99999e-01
5.006483283e-01,9.72274e-01,9.99999e-01,9.99999e-01,9.99942e-01,9.72329e-01,9.99999e-01
5.031515699e-01,9.72584e-01,9.99999e-01,9.99999e-01,9.99710e-01,9.72868e-01,9.99996e-01
5.056673278e-01,9.73245e-01,9.99999e-01,9.99999e-01,9.99847e-01,9.73397e-01,9.99996e-01
5.081956644e-01,9.73726e-01,9.99999e-01,9.99999e-01,9.99807e-01,9.73916e-01,9.99997e-01
5.107366428e-01,9.74297e-01,9.99999e-01,9.99999e-01,9.99869e-01,9.74424e-01,9.99999e-01
5.132903260e-01,9.74851e-01,9.99999e-01,9.99999e-01,9.99925e-01,9.74923e-01,9.99999e-01
5.158567776e-01,9.75382e-01,9.99999e-01,9.99999e-01,9.99968e-01,9.75412e-01,9.99999e-01
5.184360615e-01,9.75880e-01,9.99999e-01,9.99999e-01,9.99986e-01,9.75892e-01,9.99999e-01
5.210282418e-01,9.76358e-01,9.99999e-01,9.99999e-01,9.99994e-01,9.76362e-01,9.99999e-01
5.236333830e-01,9.76805e-01,9.99999e-01,9.99999e-01,9.99980e-01,9.76824e-01,9.99999e-01
5.262515499e-01,9.77265e-01,9.99999e-01,9.99999e-01,9.99987e-01,9.77276e-01,9.99999e-01
5.288828077e-01,9.77710e-01,9.99999e-01,9.99999e-01,9.99988e-01,9.77720e-01,9.99999e-01
5.315272217e-01,9.78146e-01,9.99999e-01,9.99999e-01,9.99990e-01,9.78155e-01,9.99999e-01
5.341848578e-01,9.78576e-01,9.99999e-01,9.99999e-01,9.99993e-01,9.78582e-01,9.99999e-01
5.368557821e-01,9.78979e-01,9.99999e-01,9.99999e-01,9.99977e-01,9.79001e-01,9.99999e-01
5.395400610e-01,9.79333e-01,9.99999e-01,9.99999e-01,9.99920e-01,9.79411e-01,9.99998e-01
5.422377613e-01,9.79712e-01,9.99999e-01,9.99999e-01,9.99897e-01,9.79814e-01,9.99997e-01
5.449489501e-01,9.80114e-01,9.99999e-01,9.99999e-01,9.99904e-01,9.80209e-01,9.99997e-01
5.476736949e-01,9.80512e-01,9.99999e-01,9.99999e-01,9.99915e-01,9.80596e-01,9.99998e-01
5.504120634e-01,9.80915e-01,9.99999e-01,9.99999e-01,9.99938e-01,9.80975e-01,9.99999e-01
5.531641237e-01,9.81317e-01,9.99999e-01,9.99999e-01,9.99968e-01,9.81347e-01,9.99999e-01
5.559299443e-01,9.81698e-01,9.99999e-01,9.99999e-01,9.99984e-01,9.81712e-01,9.99999e-01
5.587095940e-01,9.82061e-01,9.99999e-01,9.99999e-01,9.99990e-01,9.82070e-01,9.99999e-01
5.615031420e-01,9.82411e-01,9.99999e-01,9.99999e-01,9.99989e-01,9.82421e-01,9.99999e-01
5.643106577e-01,9.82754e-01,9.99999e-01,9.99999e-01,9.99987e-01,9.82766e-01,9.99999e-01
5.671322110e-01,9.82962e-01,9.99999e-01,9.99999e-01,9.99857e-01,9.83103e-01,9.99998e-01
5.699678720e-01,9.83281e-01,9.99999e-01,9.99999e-01,9.99847e-01,9.83434e-01,9.99995e-01
5.728177114e-01,9.83600e-01,9.99999e-01,9.99999e-01,9.99841e-01,9.83759e-01,9.99996e-01
5.756818000e-01,9.83932e-01,9.99999e-01,9.99999e-01,9.99854e-01,9.84077e-01,9.99997e-01
5.785602090e-01,9.84264e-01,9.99999e-01,9.99999e-01,9.99872e-01,9.84389e-01,9.99998e-01
5.814530100e-01,9.84569e-01,9.99999e-01,9.99999e-01,9.99872e-01,9.84695e-01,9.99999e-01
5.843602750e-01,9.84845e-01,9.99999e-01,9.99999e-01,9.99848e-01,9.84995e-01,9.99998e-01
5.872820764e-01,9.83993e-01,9.99999e-01,9.99999e-01,9.98693e-01,9.85289e-01,9.99990e-01
5.902184868e-01,9.83992e-01,9.99999e-01,9.99999e-01,9.98415e-01,9.85577e-01,9.99974e-01
5.931695792e-01,9.84734e-01,9.99999e-01,9.99999e-01,9.98880e-01,9.85860e-01,9.99975e-01
5.961354271e-01,9.84914e-01,9.99999e-01,9.99999e-01,9.98772e-01,9.86138e-01,9.99985e-01
5.991161043e-01,9.85523e-01,9.99999e-01,9.99999e-01,9.99105e-01,9.86410e-01,9.99995e-01
6.021116848e-01,9.86175e-01,9.99999e-01,9.99999e-01,9.99491e-01,9.86676e-01,9.99998e-01
6.051222432e-01,9.86684e-01,9.99999e-01,9.99999e-01,9.99742e-01,9.86938e-01,9.99999e-01
6.081478544e-01,9.87085e-01,9.99999e-01,9.99999e-01,9.99888e-01,9.87194e-01,9.99999e-01
6.111885937e-01,9.87399e-01,9.99999e-01,9.99999e-01,9.99952e-01,9.87445e-01,9.99999e-01
6.142445367e-01,9.87671e-01,9.99999e-01,9.99999e-01,9.99978e-01,9.87692e-01,9.99999e-01
6.173157594e-01,9.87922e-01,9.99999e-01,9.99999e-01,9.99987e-01,9.87933e-01,9.99999e-01
6.204023382e-01,9.88161e-01,9.99999e-01,9.99999e-01,9.99989e-01,9.88170e-01,9.99999e-01
6.235043498e-01,9.88360e-01,9.99999e-01,9.99999e-01,9.99956e-01,9.88403e-01,9.99999e-01
6.266218716e-01,9.88404e-01,9.99999e-01,9.99999e-01,9.99771e-01,9.88630e-01,9.99997e-01
6.297549810e-01,9.88768e-01,9.99999e-01,9.99999e-01,9.99916e-01,9.88854e-01,9.99996e-01
6.329037559e-01,9.88907e-01,9.99999e-01,9.99999e-01,9.99834e-01,9.89073e-01,9.99996e-01
6.360682746e-01,9.89147e-01,9.99999e-01,9.99999e-01,9.99859e-01,9.89287e-01,9.99997e-01
6.392486160e-01,9.89317e-01,9.99999e-01,9.99999e-01,9.99817e-01,9.89498e-01,9.99998e-01
6.424448591e-01,9.89462e-01,9.99999e-01,9.99999e-01,9.99756e-01,9.89704e-01,9.99998e-01
6.456570834e-01,9.88781e-01,9.99999e-01,9.99999e-01,9.98868e-01,9.89906e-01,9.99993e-01
6.488853688e-01,9.89266e-01,9.99999e-01,9.99999e-01,9.99170e-01,9.90105e-01,9.99981e-01
6.521297956e-01,9.89447e-01,9.99999e-01,9.99999e-01,9.99153e-01,9.90299e-01,9.99985e-01
6.553904446e-01,9.89647e-01,9.99999e-01,9.99999e-01,9.99158e-01,9.90490e-01,9.99988e-01
6.586673968e-01,9.89959e-01,9.99999e-01,9.99999e-01,9.99278e-01,9.90677e-01,9.99995e-01
6.619607338e-01,9.90447e-01,9.99999e-01,9.99999e-01,9.99583e-01,9.90860e-01,9.99998e-01
6.652705375e-01,9.90801e-01,9.99999e-01,9.99999e-01,9.99758e-01,9.91040e-01,9.99999e-01
6.685968902e-01,9.91105e-01,9.99999e-01,9.99999e-01,9.99887e-01,9.91216e-01,9.99999e-01
6.719398746e-01,9.91337e-01,9.99999e-01,9.99999e-01,9.99947e-01,9.91389e-01,9.99999e-01
6.752995740e-01,9.91530e-01,9.99999e-01,9.99999e-01,9.99971e-01,9.91558e-01,9.99999e-01
6.786760719e-01,9.91684e-01,9.99999e-01,9.99999e-01,9.99959e-01,9.91724e-01,9.99999e-01
6.820694522e-01,9.91818e-01,9.99999e-01,9.99999e-01,9.99930e-01,9.91887e-01,9.99999e-01
6.854797995e-01,9.91957e-01,9.99999e-01,9.99999e-01,9.99910e-01,9.92047e-01,9.99998e-01
6.889071985e-01,9.91987e-01,9.99999e-01,9.99999e-01,9.99783e-01,9.92203e-01,9.99997e-01
6.923517345e-01,9.88826e-01,9.99999e-01,9.99999e-01,9.96459e-01,9.92356e-01,9.99982e-01
6.958134932e-01,9.90635e-01,9.99999e-01,9.99999e-01,9.98151e-01,9.92507e-01,9.99961e-01
6.992925606e-01,9.90884e-01,9.99999e-01,9.99999e-01,9.98250e-01,9.92654e-01,9.99965e-01
7.027890234e-01,9.90627e-01,9.99999e-01,9.99999e-01,9.97837e-01,9.92799e-01,9.99973e-01
7.063029686e-01,9.91123e-01,9.99999e-01,9.99999e-01,9.98182e-01,9.92941e-01,9.99986e-01
7.098344834e-01,9.91341e-01,9.99999e-01,9.99999e-01,9.98256e-01,9.93079e-01,9.99991e-01
7.133836558e-01,9.90896e-01,9.99999e-01,9.99999e-01,9.97678e-01,9.93216e-01,9.99984e-01
7.169505741e-01,9.74716e-01,9.99999e-01,9.99999e-01,9.81358e-01,9.93349e-01,9.99880e-01
7.205353270e-01,9.84159e-01,9.99999e-01,9.99999e-01,9.90825e-01,9.93480e-01,9.99789e-01
7.241380036e-01,9.81900e-01,9.99999e-01,9.99999e-01,9.88394e-01,9.93608e-01,9.99818e-01
7.277586936e-01,9.83175e-01,9.99999e-01,9.99999e-01,9.89519e-01,9.93734e-01,9.99851e-01
7.313974871e-01,9.82720e-01,9.99999e-01,9.99999e-01,9.88861e-01,9.93858e-01,9.99930e-01
7.350544745e-01,9.87902e-01,9.99999e-01,9.99999e-01,9.93910e-01,9.93979e-01,9.99975e-01
7.387297469e-01,9.89632e-01,9.99999e-01,9.99999e-01,9.95518e-01,9.94097e-01,9.99988e-01
7.424233956e-01,9.92030e-01,9.99999e-01,9.99999e-01,9.97805e-01,9.94213e-01,9.99997e-01
7.461355126e-01,9.93005e-01,9.99999e-01,9.99999e-01,9.98670e-01,9.94327e-01,9.99999e-01
7.498661902e-01,9.93823e-01,9.99999e-01,9.99999e-01,9.99380e-01,9.94439e-01,9.99999e-01
7.536155211e-01,9.94247e-01,9.99999e-01,9.99999e-01,9.99696e-01,9.94549e-01,9.99999e-01
7.573835987e-01,9.94501e-01,9.99999e-01,9.99999e-01,9.99843e-01,9.94656e-01,9.99999e-01
7.611705167e-01,9.94665e-01,9.99999e-01,9.99999e-01,9.99902e-01,9.94761e-01,9.99999e-01
7.649763693e-01,9.94804e-01,9.99999e-01,9.99999e-01,9.99938e-01,9.94864e-01,9.99999e-01
7.688012511e-01,9.94923e-01,9.99999e-01,9.99999e-01,9.99957e-01,9.94966e-01,9.99999e-01
7.726452574e-01,9.95030e-01,9.99999e-01,9.99999e-01,9.99964e-01,9.95065e-01,9.99999e-01
7.765084837e-01,9.95113e-01,9.99999e-01,9.99999e-01,9.99950e-01,9.95162e-01,9.99999e-01
7.803910261e-01,9.95045e-01,9.99999e-01,9.99999e-01,9.99785e-01,9.95257e-01,9.99999e-01
7.842929812e-01,9.94607e-01,9.99999e-01,9.99999e-01,9.99253e-01,9.95351e-01,9.99998e-01
7.882144461e-01,9.93901e-01,9.99999e-01,9.99999e-01,9.98460e-01,9.95442e-01,9.99990e-01
7.921555184e-01,9.94673e-01,9.99999e-01,9.99999e-01,9.99154e-01,9.95532e-01,9.99981e-01
7.961162960e-01,9.94119e-01,9.99999e-01,9.99999e-01,9.98509e-01,9.95620e-01,9.99982e-01
8.000968774e-01,9.93973e-01,9.99999e-01,9.99999e-01,9.98276e-01,9.95707e-01,9.99980e-01
8.040973618e-01,9.94061e-01,9.99999e-01,9.99999e-01,9.98276e-01,9.95791e-01,9.99984e-01
8.081178486e-01,9.91995e-01,9.99999e-01,9.99999e-01,9.96118e-01,9.95874e-01,9.99985e-01
8.121584379e-01,9.79830e-01,9.99999e-01,9.99999e-01,9.83862e-01,9.95955e-01,9.99945e-01
8.162192301e-01,9.76732e-01,9.99999e-01,9.99999e-01,9.80819e-01,9.96035e-01,9.99795e-01
8.203003262e-01,9.86281e-01,9.99999e-01,9.99999e-01,9.90365e-01,9.96113e-01,9.99760e-01
8.244018279e-01,9.82518e-01,9.99999e-01,9.99999e-01,9.86462e-01,9.96190e-01,9.99809e-01
8.285238370e-01,9.84707e-01,9.99999e-01,9.99999e-01,9.88546e-01,9.96265e-01,9.99850e-01
8.326664562e-01,9.84728e-01,9.99999e-01,9.99999e-01,9.88407e-01,9.96339e-01,9.99937e-01
8.368297885e-01,9.88149e-01,9.99999e-01,9.99999e-01,9.91722e-01,9.96411e-01,9.99985e-01
8.410139374e-01,9.91569e-01,9.99999e-01,9.99999e-01,9.95077e-01,9.96481e-01,9.99991e-01
8.452190071e-01,9.94139e-01,9.99999e-01,9.99999e-01,9.97584e-01,9.96551e-01,9.99994e-01
8.494451021e-01,9.95220e-01,9.99999e-01,9.99999e-01,9.98599e-01,9.96619e-01,9.99995e-01
8.536923276e-01,9.95858e-01,9.99999e-01,9.99999e-01,9.99171e-01,9.96685e-01,9.99997e-01
8.579607893e-01,9.96242e-01,9.99999e-01,9.99999e-01,9.99489e-01,9.96751e-01,9.99998e-01
8.622505932e-01,9.96492e-01,9.99999e-01,9.99999e-01,9.99675e-01,9.96815e-01,9.99999e-01
8.665618462e-01,9.96678e-01,9.99999e-01,9.99999e-01,9.99799e-01,9.96878e-01,9.99999e-01
8.708946554e-01,9.96711e-01,9.99999e-01,9.99999e-01,9.99770e-01,9.96939e-01,9.99999e-01
8.752491287e-01,9.96694e-01,9.99999e-01,9.99999e-01,9.99692e-01,9.97000e-01,9.99999e-01
8.796253743e-01,9.96635e-01,9.99999e-01,9.99999e-01,9.99574e-01,9.97059e-01,9.99998e-01
8.840235012e-01,9.96630e-01,9.99999e-01,9.99999e-01,9.99514e-01,9.97117e-01,9.99996e-01
8.884436187e-01,9.95403e-01,9.99999e-01,9.99999e-01,9.98231e-01,9.97174e-01,9.99991e-01
8.928858368e-01,9.78639e-01,9.99999e-01,9.99999e-01,9.81405e-01,9.97229e-01,9.99951e-01
8.973502660e-01,9.64357e-01,9.99999e-01,9.99999e-01,9.67223e-01,9.97284e-01,9.99751e-01
9.018370173e-01,9.80110e-01,9.99999e-01,9.99999e-01,9.83110e-01,9.97338e-01,9.99609e-01
9.063462024e-01,9.82273e-01,9.99999e-01,9.99999e-01,9.85180e-01,9.97390e-01,9.99656e-01
9.108779334e-01,9.74111e-01,9.99999e-01,9.99999e-01,9.76956e-01,9.97441e-01,9.99643e-01
9.154323231e-01,9.71157e-01,9.99999e-01,9.99999e-01,9.73885e-01,9.97492e-01,9.99704e-01
9.200094847e-01,9.76891e-01,9.99999e-01,9.99999e-01,9.79459e-01,9.97541e-01,9.99834e-01
9.246095321e-01,9.65236e-01,9.99999e-01,9.99999e-01,9.67751e-01,9.97590e-01,9.99809e-01
9.292325798e-01,7.98024e-01,9.99999e-01,9.99999e-01,8.00506e-01,9.97637e-01,9.99258e-01
9.338787427e-01,7.45043e-01,9.99999e-01,9.99999e-01,7.49062e-01,9.97684e-01,9.96941e-01
9.385481364e-01,8.85198e-01,9.99999e-01,9.99999e-01,8.90449e-01,9.97730e-01,9.96363e-01
9.432408771e-01,8.44342e-01,9.99999e-01,9.99999e-01,8.48888e-01,9.97774e-01,9.96861e-01
9.479570815e-01,7.90898e-01,9.99999e-01,9.99999e-01,7.94656e-01,9.97818e-01,9.97445e-01
9.526968669e-01,8.41021e-01,9.99999e-01,9.99999e-01,8.44138e-01,9.97861e-01,9.98440e-01
9.574603512e-01,8.56658e-01,9.99999e-01,9.99999e-01,8.59137e-01,9.97904e-01,9.99207e-01
9.622476530e-01,8.82058e-01,9.99999e-01,9.99999e-01,8.84358e-01,9.97945e-01,9.99451e-01
9.670588912e-01,9.29604e-01,9.99999e-01,9.99999e-01,9.31828e-01,9.97985e-01,9.99624e-01
9.718941857e-01,9.54966e-01,9.99999e-01,9.99999e-01,9.57119e-01,9.98025e-01,9.99723e-01
9.767536566e-01,9.62226e-01,9.99999e-01,9.99999e-01,9.64295e-01,9.98064e-01,9.99788e-01
9.816374249e-01,9.71527e-01,9.99999e-01,9.99999e-01,9.73445e-01,9.98102e-01,9.99926e-01
9.865456120e-01,9.81499e-01,9.99999e-01,9.99999e-01,9.83342e-01,9.98140e-01,9.99984e-01
9.914783401e-01,9.87873e-01,9.99999e-01,9.99999e-01,9.89681e-01,9.98176e-01,9.99995e-01
9.964357318e-01,9.92589e-01,9.99999e-01,9.99999e-01,9.94368e-01,9.98212e-01,9.99997e-01
1.001417910e+00,9.94873e-01,9.99999e-01,9.99999e-01,9.96622e-01,9.98248e-01,9.99995e-01
1.006425000e+00,9.96355e-01,9.99999e-01,9.99999e-01,9.98074e-01,9.98282e-01,9.99994e-01
1.011457125e+00,9.97118e-01,9.99999e-01,9.99999e-01,9.98803e-01,9.98316e-01,9.99994e-01
1.016514411e+00,9.97536e-01,9.99999e-01,9.99999e-01,9.99188e-01,9.98349e-01,9.99995e-01
1.021596983e+00,9.97733e-01,9.99999e-01,9.99999e-01,9.99352e-01,9.98382e-01,9.99995e-01
1.026704968e+00,9.97908e-01,9.99999e-01,9.99999e-01,9.99495e-01,9.98414e-01,9.99997e-01
1.031838492e+00,9.98079e-01,9.99999e-01,9.99999e-01,9.99633e-01,9.98445e-01,9.99998e-01
1.036997685e+00,9.98258e-01,9.99999e-01,9.99999e-01,9.99781e-01,9.98476e-01,9.99999e-01
1.042182673e+00,9.98247e-01,9.99999e-01,9.99999e-01,9.99740e-01,9.98506e-01,9.99999e-01
1.047393587e+00,9.98192e-01,9.99999e-01,9.99999e-01,9.99655e-01,9.98535e-01,9.99999e-01
1.052630555e+00,9.98093e-01,9.99999e-01,9.99999e-01,9.99527e-01,9.98564e-01,9.99999e-01
1.057893707e+00,9.97805e-01,9.99999e-01,9.99999e-01,9.99211e-01,9.98593e-01,9.99999e-01
1.063183176e+00,9.97324e-01,9.99999e-01,9.99999e-01,9.98702e-01,9.98620e-01,9.99998e-01
1.068499092e+00,9.96477e-01,9.99999e-01,9.99999e-01,9.97827e-01,9.98647e-01,9.99998e-01
1.073841587e+00,9.96132e-01,9.99999e-01,9.99999e-01,9.97457e-01,9.98674e-01,9.99996e-01
1.079210795e+00,9.95437e-01,9.99999e-01,9.99999e-01,9.96741e-01,9.98700e-01,9.99990e-01
1.084606849e+00,9.93781e-01,9.99999e-01,9.99999e-01,9.95069e-01,9.98726e-01,9.99978e-01
1.090029883e+00,9.91643e-01,9.99999e-01,9.99999e-01,9.92925e-01,9.98751e-01,9.99956e-01
1.095480033e+00,9.79549e-01,9.99999e-01,9.99999e-01,9.80826e-01,9.98776e-01,9.99921e-01
1.100957433e+00,9.50581e-01,9.99999e-01,9.99999e-01,9.51859e-01,9.98800e-01,9.99855e-01
1.106462220e+00,8.79947e-01,9.99999e-01,9.99999e-01,8.81198e-01,9.98824e-01,9.99755e-01
1.111994531e+00,7.63314e-01,9.99999e-01,9.99999e-01,7.64690e-01,9.98847e-01,9.99351e-01
1.117554504e+00,6.43469e-01,9.99999e-01,9.99999e-01,6.45707e-01,9.98869e-01,9.97660e-01
1.123142276e+00,7.14543e-01,9.99999e-01,9.99999e-01,7.19318e-01,9.98892e-01,9.94461e-01
1.128757988e+00,8.06897e-01,9.99999e-01,9.99999e-01,8.12980e-01,9.98914e-01,9.93595e-01
1.134401778e+00,5.96873e-01,9.99999e-01,9.99999e-01,6.00781e-01,9.98935e-01,9.94551e-01
1.140073787e+00,8.80904e-01,9.99999e-01,9.99999e-01,8.85681e-01,9.98956e-01,9.95644e-01
1.145774156e+00,7.69471e-01,9.99999e-01,9.99999e-01,7.73342e-01,9.98977e-01,9.96012e-01
1.151503026e+00,7.46792e-01,9.99999e-01,9.99999e-01,7.49207e-01,9.98997e-01,9.97776e-01
1.157260541e+00,7.88992e-01,9.99999e-01,9.99999e-01,7.90293e-01,9.99017e-01,9.99334e-01
1.163046844e+00,8.39880e-01,9.99999e-01,9.99999e-01,8.40848e-01,9.99036e-01,9.99810e-01
1.168862078e+00,8.86444e-01,9.99999e-01,9.99999e-01,8.87367e-01,9.99055e-01,9.99902e-01
1.174706389e+00,9.27965e-01,9.99999e-01,9.99999e-01,9.28944e-01,9.99074e-01,9.99870e-01
1.180579921e+00,9.55112e-01,9.99999e-01,9.99999e-01,9.56165e-01,9.99092e-01,9.99804e-01
1.186482820e+00,9.73976e-01,9.99999e-01,9.99999e-01,9.75038e-01,9.99110e-01,9.99799e-01
1.192415234e+00,9.84366e-01,9.99999e-01,9.99999e-01,9.85372e-01,9.99127e-01,9.99849e-01
1.198377311e+00,9.86675e-01,9.99999e-01,9.99999e-01,9.87659e-01,9.99145e-01,9.99858e-01
1.204369197e+00,9.87353e-01,9.99999e-01,9.99999e-01,9.88307e-01,9.99161e-01,9.99871e-01
1.210391043e+00,9.87932e-01,9.99999e-01,9.99999e-01,9.88821e-01,9.99178e-01,9.99921e-01
1.216442998e+00,9.89635e-01,9.99999e-01,9.99999e-01,9.90480e-01,9.99194e-01,9.99951e-01
1.222525213e+00,9.91774e-01,9.99999e-01,9.99999e-01,9.92586e-01,9.99210e-01,9.99969e-01
1.228637839e+00,9.94065e-01,9.99999e-01,9.99999e-01,9.94848e-01,9.99226e-01,9.99985e-01
