#,Wave/freq,Total,N2,O2,H2O,Rayleigh,CIA
4.000000000e-01,7.55997e-01,9.99999e-01,9.99999e-01,9.99967e-01,7.56020e-01,9.99999e-01
4.020000000e-01,7.60198e-01,9.99999e-01,9.99999e-01,9.99979e-01,7.60213e-01,9.99999e-01
4.040100000e-01,7.64334e-01,9.99999e-01,9.99999e-01,9.99991e-01,7.64341e-01,9.99999e-01
4.060300500e-01,7.68407e-01,9.99999e-01,9.99999e-01,9.99997e-01,7.68409e-01,9.99999e-01
4.080602003e-01,7.72417e-01,9.99999e-01,9.99999e-01,9.99998e-01,7.72418e-01,9.99999e-01
4.101005013e-01,7.76368e-01,9.99999e-01,9.99999e-01,9.99999e-01,7.76368e-01,9.99999e-01
4.121510038e-01,7.80258e-01,9.99999e-01,9.99999e-01,9.99998e-01,7.80259e-01,9.99999e-01
4.142117588e-01,7.84086e-01,9.99999e-01,9.99999e-01,9.99990e-01,7.84093e-01,9.99999e-01
4.162828176e-01,7.87838e-01,9.99999e-01,9.99999e-01,9.99960e-01,7.87869e-01,9.99999e-01
4.183642317e-01,7.91570e-01,9.99999e-01,9.99999e-01,9.99976e-01,7.91588e-01,9.99999e-01
4.204560528e-01,7.95239e-01,9.99999e-01,9.99999e-01,9.99985e-01,7.95251e-01,9.99999e-01
4.225583331e-01,7.98853e-01,9.99999e-01,9.99999e-01,9.99994e-01,7.98858e-01,9.99999e-01
4.246711247e-01,8.02406e-01,9.99999e-01,9.99999e-01,9.99995e-01,8.02409e-01,9.99999e-01
4.267944804e-01,8.05901e-01,9.99999e-01,9.99999e-01,9.99993e-01,8.05906e-01,9.99999e-01
4.289284528e-01,8.09344e-01,9.99999e-01,9.99999e-01,9.99994e-01,8.09348e-01,9.99999e-01
4.310730950e-01,8.12735e-01,9.99999e-01,9.99999e-01,9.99997e-01,8.12737e-01,9.99999e-01
4.332284605e-01,8.16072e-01,9.99999e-01,9.99999e-01,9.99998e-01,8.16072e-01,9.99999e-01
4.353946028e-01,8.19355e-01,9.99999e-01,9.99999e-01,9.99999e-01,8.19355e-01,9.99999e-01
4.375715758e-01,8.22583e-01,9.99999e-01,9.99999e-01,9.99995e-01,8.22586e-01,9.99999e-01
4.397594337e-01,8.25737e-01,9.99999e-01,9.99999e-01,9.99965e-01,8.25765e-01,9.99999e-01
4.419582309e-01,8.28750e-01,9.99999e-01,9.99999e-01,9.99826e-01,8.28894e-01,9.99999e-01
4.441680220e-01,8.31859e-01,9.99999e-01,9.99999e-01,9.99863e-01,8.31972e-01,9.99999e-01
4.463888621e-01,8.34882e-01,9.99999e-01,9.99999e-01,9.99857e-01,8.35001e-01,9.99999e-01
4.486208064e-01,8.37906e-01,9.99999e-01,9.99999e-01,9.99911e-01,8.37980e-01,9.99999e-01
4.508639105e-01,8.40876e-01,9.99999e-01,9.99999e-01,9.99958e-01,8.40911e-01,9.99999e-01
4.531182300e-01,8.43780e-01,9.99999e-01,9.99999e-01,9.99983e-01,8.43794e-01,9.99999e-01
4.553838212e-01,8.46620e-01,9.99999e-01,9.99999e-01,9.99988e-01,8.46629e-01,9.99999e-01
4.576607403e-01,8.49414e-01,9.99999e-01,9.99999e-01,9.99994e-01,8.49418e-01,9.99999e-01
4.599490440e-01,8.52158e-01,9.99999e-01,9.99999e-01,9.99995e-01,8.52161e-01,9.99999e-01
4.622487892e-01,8.54857e-01,9.99999e-01,9.99999e-01,9.99998e-01,8.54858e-01,9.99999e-01
4.645600332e-01,8.57508e-01,9.99999e-01,9.99999e-01,9.99997e-01,8.57510e-01,9.99999e-01
4.668828333e-01,8.60082e-01,9.99999e-01,9.99999e-01,9.99958e-01,8.60118e-01,9.99999e-01
4.692172475e-01,8.62605e-01,9.99999e-01,9.99999e-01,9.99910e-01,8.62682e-01,9.99999e-01
4.715633337e-01,8.65152e-01,9.99999e-01,9.99999e-01,9.99941e-01,8.65202e-01,9.99999e-01
4.739211504e-01,8.67632e-01,9.99999e-01,9.99999e-01,9.99943e-01,8.67680e-01,9.99999e-01
4.762907561e-01,8.70091e-01,9.99999e-01,9.99999e-01,9.99970e-01,8.70116e-01,9.99999e-01
4.786722099e-01,8.72500e-01,9.99999e-01,9.99999e-01,9.99987e-01,8.72511e-01,9.99999e-01
4.810655710e-01,8.74861e-01,9.99999e-01,9.99999e-01,9.99995e-01,8.74864e-01,9.99999e-01
4.834708988e-01,8.77148e-01,9.99999e-01,9.99999e-01,9.99965e-01,8.77177e-01,9.99999e-01
4.858882533e-01,8.79396e-01,9.99999e-01,9.99999e-01,9.99936e-01,8.79451e-01,9.99999e-01
4.883176946e-01,8.81639e-01,9.99999e-01,9.99999e-01,9.99947e-01,8.81685e-01,9.99999e-01
4.907592831e-01,8.83839e-01,9.99999e-01,9.99999e-01,9.99951e-01,8.83881e-01,9.99999e-01
4.932130795e-01,8.86009e-01,9.99999e-01,9.99999e-01,9.99965e-01,8.86039e-01,9.99999e-01
4.956791449e-01,8.88143e-01,9.99999e-01,9.99999e-01,9.99981e-01,8.88159e-01,9.99999e-01
4.981575406e-01,8.90162e-01,9.99999e-01,9.99999e-01,9.99910e-01,8.90242e-01,9.99999e-01
5.006483283e-01,8.92081e-01,9.99999e-01,9.99999e-01,9.99768e-01,8.92289e-01,9.99997e-01
5.031515699e-01,8.93240e-01,9.99999e-01,9.99999e-01,9.98827e-01,8.94299e-01,9.99987e-01
5.056673278e-01,8.95707e-01,9.99999e-01,9.99999e-01,9.99380e-01,8.96275e-01,9.99985e-01
5.081956644e-01,8.97506e-01,9.99999e-01,9.99999e-01,9.99218e-01,8.98216e-01,9.99990e-01
5.107366428e-01,8.99646e-01,9.99999e-01,9.99999e-01,9.99471e-01,9.00122e-01,9.99997e-01
5.132903260e-01,9.01723e-01,9.99999e-01,9.99999e-01,9.99697e-01,9.01995e-01,9.99999e-01
5.158567776e-01,9.03719e-01,9.99999e-01,9.99999e-01,9.99872e-01,9.03835e-01,9.99999e-01
5.184360615e-01,9.05595e-01,9.99999e-01,9.99999e-01,9.99948e-01,9.05641e-01,9.99999e-01
5.210282418e-01,9.07399e-01,9.99999e-01,9.99999e-01,9.99980e-01,9.07416e-01,9.99999e-01
5.236333830e-01,9.09089e-01,9.99999e-01,9.99999e-01,9.99923e-01,9.09159e-01,9.99998e-01
5.262515499e-01,9.10827e-01,9.99999e-01,9.99999e-01,9.99951e-01,9.10871e-01,9.99998e-01
5.288828077e-01,9.12512e-01,9.99999e-01,9.99999e-01,9.99955e-01,9.12552e-01,9.99999e-01
5.315272217e-01,9.14168e-01,9.99999e-01,9.99999e-01,9.99960e-01,9.14203e-01,9.99999e-01
5.341848578e-01,9.15801e-01,9.99999e-01,9.99999e-01,9.99974e-01,9.15824e-01,9.99999e-01
5.368557821e-01,9.17335e-01,9.99999e-01,9.99999e-01,9.99910e-01,9.17416e-01,9.99999e-01
5.395400610e-01,9.18683e-01,9.99999e-01,9.99999e-01,9.99679e-01,9.18980e-01,9.99996e-01
5.422377613e-01,9.20125e-01,9.99999e-01,9.99999e-01,9.99584e-01,9.20515e-01,9.99991e-01
5.449489501e-01,9.21659e-01,9.99999e-01,9.99999e-01,9.99613e-01,9.22022e-01,9.99991e-01
5.476736949e-01,9.23182e-01,9.99999e-01,9.99999e-01,9.99657e-01,9.23502e-01,9.99995e-01
5.504120634e-01,9.24724e-01,9.99999e-01,9.99999e-01,9.99751e-01,9.24954e-01,9.99998e-01
5.531641237e-01,9.26265e-01,9.99999e-01,9.99999e-01,9.99874e-01,9.26381e-01,9.99999e-01
5.559299443e-01,9.27725e-01,9.99999e-01,9.99999e-01,9.99939e-01,9.27781e-01,9.99999e-01
5.587095940e-01,9.29121e-01,9.99999e-01,9.99999e-01,9.99961e-01,9.29156e-01,9.99999e-01
5.615031420e-01,9.30466e-01,9.99999e-01,9.99999e-01,9.99957e-01,9.30505e-01,9.99999e-01
5.643106577e-01,9.31785e-01,9.99999e-01,9.99999e-01,9.99952e-01,9.31830e-01,9.99999e-01
5.671322110e-01,9.32587e-01,9.99999e-01,9.99999e-01,9.99422e-01,9.33130e-01,9.99994e-01
5.699678720e-01,9.33814e-01,9.99999e-01,9.99999e-01,9.99381e-01,9.34407e-01,9.99983e-01
5.728177114e-01,9.35047e-01,9.99999e-01,9.99999e-01,9.99357e-01,9.35660e-01,9.99986e-01
5.756818000e-01,9.36330e-01,9.99999e-01,9.99999e-01,9.99410e-01,9.36890e-01,9.99991e-01
5.785602090e-01,9.37612e-01,9.99999e-01,9.99999e-01,9.99485e-01,9.38097e-01,9.99997e-01
5.814530100e-01,9.38796e-01,9.99999e-01,9.99999e-01,9.99483e-01,9.39282e-01,9.99998e-01
5.843602750e-01,9.39864e-01,9.99999e-01,9.99999e-01,9.99385e-01,9.40445e-01,9.99996e-01
5.872820764e-01,9.36576e-01,9.99999e-01,9.99999e-01,9.94715e-01,9.41586e-01,9.99962e-01
5.902184868e-01,9.36561e-01,9.99999e-01,9.99999e-01,9.93581e-01,9.42706e-01,9.99898e-01
5.931695792e-01,9.39436e-01,9.99999e-01,9.99999e-01,9.95467e-01,9.43805e-01,9.99901e-01
5.961354271e-01,9.40134e-01,9.99999e-01,9.99999e-01,9.95028e-01,9.44884e-01,9.99943e-01
5.991161043e-01,9.42494e-01,9.99999e-01,9.99999e-01,9.96371e-01,9.45943e-01,9.99982e-01
6.021116848e-01,9.45028e-01,9.99999e-01,9.99999e-01,9.97938e-01,9.46982e-01,9.99997e-01
6.051222432e-01,9.47012e-01,9.99999e-01,9.99999e-01,9.98956e-01,9.48001e-01,9.99999e-01
6.081478544e-01,9.48575e-01,9.99999e-01,9.99999e-01,9.99549e-01,9.49002e-01,9.99999e-01
6.111885937e-01,9.49802e-01,9.99999e-01,9.99999e-01,9.99809e-01,9.49983e-01,9.99999e-01
6.142445367e-01,9.50866e-01,9.99999e-01,9.99999e-01,9.99914e-01,9.50947e-01,9.99999e-01
6.173157594e-01,9.51847e-01,9.99999e-01,9.99999e-01,9.99952e-01,9.51892e-01,9.99999e-01
6.204023382e-01,9.52782e-01,9.99999e-01,9.99999e-01,9.99959e-01,9.52819e-01,9.99999e-01
6.235043498e-01,9.53563e-01,9.99999e-01,9.99999e-01,9.99825e-01,9.53729e-01,9.99999e-01
6.266218716e-01,9.53734e-01,9.99999e-01,9.99999e-01,9.99075e-01,9.54622e-01,9.99993e-01
6.297549810e-01,9.55162e-01,9.99999e-01,9.99999e-01,9.99660e-01,9.55498e-01,9.99986e-01
6.329037559e-01,9.55707e-01,9.99999e-01,9.99999e-01,9.99329e-01,9.56358e-01,9.99989e-01
6.360682746e-01,9.56650e-01,9.99999e-01,9.99999e-01,9.99429e-01,9.57201e-01,9.99993e-01
6.392486160e-01,9.57318e-01,9.99999e-01,9.99999e-01,9.99260e-01,9.58028e-01,9.99996e-01
6.424448591e-01,9.57890e-01,9.99999e-01,9.99999e-01,9.99012e-01,9.58840e-01,9.99995e-01
6.456570834e-01,9.55219e-01,9.99999e-01,9.99999e-01,9.95421e-01,9.59637e-01,9.99974e-01
6.488853688e-01,9.57119e-01,9.99999e-01,9.99999e-01,9.96635e-01,9.60418e-01,9.99928e-01
6.521297956e-01,9.57831e-01,9.99999e-01,9.99999e-01,9.96570e-01,9.61184e-01,9.99939e-01
6.553904446e-01,9.58615e-01,9.99999e-01,9.99999e-01,9.96591e-01,9.61936e-01,9.99954e-01
6.586673968e-01,9.59846e-01,9.99999e-01,9.99999e-01,9.97076e-01,9.62674e-01,9.99984e-01
6.619607338e-01,9.61766e-01,9.99999e-01,9.99999e-01,9.98309e-01,9.63397e-01,9.99996e-01
6.652705375e-01,9.63162e-01,9.99999e-01,9.99999e-01,9.99020e-01,9.64107e-01,9.99997e-01
6.685968902e-01,9.64364e-01,9.99999e-01,9.99999e-01,9.99544e-01,9.64804e-01,9.99999e-01
6.719398746e-01,9.65283e-01,9.99999e-01,9.99999e-01,9.99788e-01,9.65487e-01,9.99999e-01
6.752995740e-01,9.66046e-01,9.99999e-01,9.99999e-01,9.99885e-01,9.66157e-01,9.99999e-01
6.786760719e-01,9.66655e-01,9.99999e-01,9.99999e-01,9.99835e-01,9.66814e-01,9.99999e-01
6.820694522e-01,9.67185e-01,9.99999e-01,9.99999e-01,9.99717e-01,9.67459e-01,9.99998e-01
6.854797995e-01,9.67736e-01,9.99999e-01,9.99999e-01,9.99636e-01,9.68091e-01,9.99996e-01
6.889071985e-01,9.67855e-01,9.99999e-01,9.99999e-01,9.99123e-01,9.68711e-01,9.99991e-01
6.923517345e-01,9.55422e-01,9.99999e-01,9.99999e-01,9.85729e-01,9.69320e-01,9.99930e-01
6.958134932e-01,9.62507e-01,9.99999e-01,9.99999e-01,9.92513e-01,9.69916e-01,9.99844e-01
6.992925606e-01,9.63505e-01,9.99999e-01,9.99999e-01,9.92925e-01,9.70502e-01,9.99862e-01
7.027890234e-01,9.62479e-01,9.99999e-01,9.99999e-01,9.91250e-01,9.71076e-01,9.99894e-01
7.063029686e-01,9.64440e-01,9.99999e-01,9.99999e-01,9.92641e-01,9.71639e-01,9.99947e-01
7.098344834e-01,9.65297e-01,9.99999e-01,9.99999e-01,9.92938e-01,9.72191e-01,9.99968e-01
7.133836558e-01,9.63564e-01,9.99999e-01,9.99999e-01,9.90634e-01,9.72733e-01,9.99938e-01
7.169505741e-01,9.01820e-01,9.99999e-01,9.99999e-01,9.27039e-01,9.73264e-01,9.99516e-01
7.205353270e-01,9.37357e-01,9.99999e-01,9.99999e-01,9.63410e-01,9.73786e-01,9.99147e-01
7.241380036e-01,9.28730e-01,9.99999e-01,9.99999e-01,9.53932e-01,9.74297e-01,9.99264e-01
7.277586936e-01,9.33613e-01,9.99999e-01,9.99999e-01,9.58326e-01,9.74798e-01,9.99398e-01
7.313974871e-01,9.31765e-01,9.99999e-01,9.99999e-01,9.55641e-01,9.75289e-01,9.99717e-01
7.350544745e-01,9.51808e-01,9.99999e-01,9.99999e-01,9.75536e-01,9.75772e-01,9.99901e-01
7.387297469e-01,9.58566e-01,9.99999e-01,9.99999e-01,9.81935e-01,9.76244e-01,9.99954e-01
7.424233956e-01,9.68025e-01,9.99999e-01,9.99999e-01,9.91117e-01,9.76708e-01,9.99990e-01
7.461355126e-01,9.71896e-01,9.99999e-01,9.99999e-01,9.94611e-01,9.77163e-01,9.99997e-01
7.498661902e-01,9.75151e-01,9.99999e-01,9.99999e-01,9.97486e-01,9.77609e-01,9.99998e-01
7.536155211e-01,9.76841e-01,9.99999e-01,9.99999e-01,9.98767e-01,9.78046e-01,9.99999e-01
7.573835987e-01,9.77854e-01,9.99999e-01,9.99999e-01,9.99365e-01,9.78475e-01,9.99999e-01
7.611705167e-01,9.78510e-01,9.99999e-01,9.99999e-01,9.99605e-01,9.78896e-01,9.99999e-01
7.649763693e-01,9.79066e-01,9.99999e-01,9.99999e-01,9.99752e-01,9.79308e-01,9.99999e-01
7.688012511e-01,9.79544e-01,9.99999e-01,9.99999e-01,9.99827e-01,9.79713e-01,9.99999e-01
7.726452574e-01,9.79971e-01,9.99999e-01,9.99999e-01,9.99858e-01,9.80109e-01,9.99999e-01
7.765084837e-01,9.80302e-01,9.99999e-01,9.99999e-01,9.99799e-01,9.80498e-01,9.99999e-01
7.803910261e-01,9.80030e-01,9.99999e-01,9.99999e-01,9.99133e-01,9.80880e-01,9.99998e-01
7.842929812e-01,9.78284e-01,9.99999e-01,9.99999e-01,9.96977e-01,9.81254e-01,9.99993e-01
7.882144461e-01,9.75464e-01,9.99999e-01,9.99999e-01,9.93765e-01,9.81621e-01,9.99961e-01
7.921555184e-01,9.78543e-01,9.99999e-01,9.99999e-01,9.96572e-01,9.81981e-01,9.99925e-01
7.961162960e-01,9.76340e-01,9.99999e-01,9.99999e-01,9.93968e-01,9.82333e-01,9.99928e-01
8.000968774e-01,9.75750e-01,9.99999e-01,9.99999e-01,9.93023e-01,9.82679e-01,9.99924e-01
8.040973618e-01,9.76103e-01,9.99999e-01,9.99999e-01,9.93024e-01,9.83018e-01,9.99939e-01
8.081178486e-01,9.67929e-01,9.99999e-01,9.99999e-01,9.84371e-01,9.83351e-01,9.99943e-01
8.121584379e-01,9.20941e-01,9.99999e-01,9.99999e-01,9.36428e-01,9.83677e-01,9.99779e-01
8.162192301e-01,9.09237e-01,9.99999e-01,9.99999e-01,9.24789e-01,9.83997e-01,9.99170e-01
8.203003262e-01,9.46113e-01,9.99999e-01,9.99999e-01,9.62126e-01,9.84311e-01,9.99029e-01
8.244018279e-01,9.31878e-01,9.99999e-01,9.99999e-01,9.47166e-01,9.84618e-01,9.99227e-01
8.285238370e-01,9.39512e-01,9.99999e-01,9.99999e-01,9.54475e-01,9.84920e-01,9.99392e-01
8.326664562e-01,9.39610e-01,9.99999e-01,9.99999e-01,9.53949e-01,9.85215e-01,9.99748e-01
8.368297885e-01,9.52784e-01,9.99999e-01,9.99999e-01,9.66852e-01,9.85505e-01,9.99942e-01
8.410139374e-01,9.66211e-01,9.99999e-01,9.99999e-01,9.80171e-01,9.85789e-01,9.99966e-01
8.452190071e-01,9.76412e-01,9.99999e-01,9.99999e-01,9.90226e-01,9.86068e-01,9.99979e-01
8.494451021e-01,9.80729e-01,9.99999e-01,9.99999e-01,9.94325e-01,9.86341e-01,9.99983e-01
8.536923276e-01,9.83283e-01,9.99999e-01,9.99999e-01,9.96638e-01,9.86609e-01,9.99989e-01
8.579607893e-01,9.84828e-01,9.99999e-01,9.99999e-01,9.97930e-01,9.86872e-01,9.99997e-01
8.622505932e-01,9.85831e-01,9.99999e-01,9.99999e-01,9.98683e-01,9.87130e-01,9.99999e-01
8.665618462e-01,9.86579e-01,9.99999e-01,9.99999e-01,9.99186e-01,9.87382e-01,9.99999e-01
8.708946554e-01,9.86711e-01,9.99999e-01,9.99999e-01,9.99069e-01,9.87630e-01,9.99998e-01
8.752491287e-01,9.86642e-01,9.99999e-01,9.99999e-01,9.98754e-01,9.87873e-01,9.99998e-01
8.796253743e-01,9.86406e-01,9.99999e-01,9.99999e-01,9.98277e-01,9.88111e-01,9.99995e-01
8.840235012e-01,9.86388e-01,9.99999e-01,9.99999e-01,9.98032e-01,9.88344e-01,9.99987e-01
8.884436187e-01,9.81496e-01,9.99999e-01,9.99999e-01,9.92874e-01,9.88573e-01,9.99965e-01
8.928858368e-01,9.16666e-01,9.99999e-01,9.99999e-01,9.27233e-01,9.88798e-01,9.99802e-01
8.973502660e-01,8.64171e-01,9.99999e-01,9.99999e-01,8.74648e-01,9.89018e-01,9.98991e-01
9.018370173e-01,9.22277e-01,9.99999e-01,9.99999e-01,9.33793e-01,9.89233e-01,9.98415e-01
9.063462024e-01,9.30481e-01,9.99999e-01,9.99999e-01,9.41717e-01,9.89445e-01,9.98607e-01
9.108779334e-01,8.99760e-01,9.99999e-01,9.99999e-01,9.10484e-01,9.89652e-01,9.98553e-01
9.154323231e-01,8.88644e-01,9.99999e-01,9.99999e-01,8.98825e-01,9.89856e-01,9.98803e-01
9.200094847e-01,9.10095e-01,9.99999e-01,9.99999e-01,9.19852e-01,9.90055e-01,9.99330e-01
9.246095321e-01,8.69925e-01,9.99999e-01,9.99999e-01,8.79167e-01,9.90250e-01,9.99228e-01
9.292325798e-01,4.21954e-01,9.99999e-01,9.99999e-01,4.27310e-01,9.90442e-01,9.96995e-01
9.338787427e-01,3.26862e-01,9.99999e-01,9.99999e-01,3.34083e-01,9.90630e-01,9.87638e-01
9.385481364e-01,6.26125e-01,9.99999e-01,9.99999e-01,6.41347e-01,9.90814e-01,9.85314e-01
9.432408771e-01,5.33072e-01,9.99999e-01,9.99999e-01,5.44825e-01,9.90995e-01,9.87317e-01
9.479570815e-01,4.26868e-01,9.99999e-01,9.99999e-01,4.35166e-01,9.91172e-01,9.89666e-01
9.526968669e-01,5.22503e-01,9.99999e-01,9.99999e-01,5.30414e-01,9.91345e-01,9.93684e-01
9.574603512e-01,5.46132e-01,9.99999e-01,9.99999e-01,5.52580e-01,9.91516e-01,9.96786e-01
9.622476530e-01,6.08667e-01,9.99999e-01,9.99999e-01,6.15138e-01,9.91682e-01,9.97776e-01
9.670588912e-01,7.47929e-01,9.99999e-01,9.99999e-01,7.55225e-01,9.91846e-01,9.98478e-01
9.718941857e-01,8.30438e-01,9.99999e-01,9.99999e-01,8.38067e-01,9.92006e-01,9.98879e-01
9.767536566e-01,8.56058e-01,9.99999e-01,9.99999e-01,8.63558e-01,9.92164e-01,9.99143e-01
9.816374249e-01,8.89656e-01,9.99999e-01,9.99999e-01,8.96808e-01,9.92318e-01,9.99703e-01
9.865456120e-01,9.27080e-01,9.99999e-01,9.99999e-01,9.34172e-01,9.92469e-01,9.99937e-01
9.914783401e-01,9.51682e-01,9.99999e-01,9.99999e-01,9.58775e-01,9.92617e-01,9.99982e-01
9.964357318e-01,9.70253e-01,9.99999e-01,9.99999e-01,9.77336e-01,9.92763e-01,9.99989e-01
1.001417910e+00,9.79341e-01,9.99999e-01,9.99999e-01,9.86354e-01,9.92905e-01,9.99984e-01
1.006425000e+00,9.85282e-01,9.99999e-01,9.99999e-01,9.92203e-01,9.93045e-01,9.99977e-01
1.011457125e+00,9.88347e-01,9.99999e-01,9.99999e-01,9.95151e-01,9.93181e-01,9.99979e-01
1.016514411e+00,9.90031e-01,9.99999e-01,9.99999e-01,9.96707e-01,9.93316e-01,9.99985e-01
1.021596983e+00,9.90827e-01,9.99999e-01,9.99999e-01,9.97376e-01,9.93447e-01,9.99985e-01
1.026704968e+00,9.91534e-01,9.99999e-01,9.99999e-01,9.97953e-01,9.93576e-01,9.99989e-01
1.031838492e+00,9.92221e-01,9.99999e-01,9.99999e-01,9.98511e-01,9.93703e-01,9.99996e-01
1.036997685e+00,9.92948e-01,9.99999e-01,9.99999e-01,9.99116e-01,9.93827e-01,9.99999e-01
1.042182673e+00,9.92902e-01,9.99999e-01,9.99999e-01,9.98947e-01,9.93948e-01,9.99999e-01
1.047393587e+00,9.92679e-01,9.99999e-01,9.99999e-01,9.98603e-01,9.94067e-01,9.99999e-01
1.052630555e+00,9.92280e-01,9.99999e-01,9.99999e-01,9.98084e-01,9.94184e-01,9.99998e-01
1.057893707e+00,9.91122e-01,9.99999e-01,9.99999e-01,9.96805e-01,9.94299e-01,9.99998e-01
1.063183176e+00,9.89184e-01,9.99999e-01,9.99999e-01,9.94746e-01,9.94411e-01,9.99996e-01
1.068499092e+00,9.85776e-01,9.99999e-01,9.99999e-01,9.91212e-01,9.94521e-01,9.99993e-01
1.073841587e+00,9.84402e-01,9.99999e-01,9.99999e-01,9.89729e-01,9.94629e-01,9.99986e-01
1.079210795e+00,9.81613e-01,9.99999e-01,9.99999e-01,9.86842e-01,9.94735e-01,9.99964e-01
1.084606849e+00,9.75018e-01,9.99999e-01,9.99999e-01,9.80159e-01,9.94839e-01,9.99914e-01
1.090029883e+00,9.66587e-01,9.99999e-01,9.99999e-01,9.71673e-01,9.94940e-01,9.99823e-01
1.095480033e+00,9.19777e-01,9.99999e-01,9.99999e-01,9.24655e-01,9.95040e-01,9.99681e-01
1.100957433e+00,8.15470e-01,9.99999e-01,9.99999e-01,8.19933e-01,9.95138e-01,9.99414e-01
1.106462220e+00,6.03871e-01,9.99999e-01,9.99999e-01,6.07365e-01,9.95233e-01,9.99007e-01
1.111994531e+00,3.51008e-01,9.99999e-01,9.99999e-01,3.53586e-01,9.95327e-01,9.97368e-01
1.117554504e+00,1.86823e-01,9.99999e-01,9.99999e-01,1.89476e-01,9.95419e-01,9.90534e-01
1.123142276e+00,2.96283e-01,9.99999e-01,9.99999e-01,3.04407e-01,9.95510e-01,9.77699e-01
1.128757988e+00,4.43182e-01,9.99999e-01,9.99999e-01,4.56907e-01,9.95598e-01,9.74247e-01
1.134401778e+00,2.21033e-01,9.99999e-01,9.99999e-01,2.26971e-01,9.95685e-01,9.78059e-01
1.140073787e+00,6.07962e-01,9.99999e-01,9.99999e-01,6.21462e-01,9.95770e-01,9.82431e-01
1.145774156e+00,3.70751e-01,9.99999e-01,9.99999e-01,3.78384e-01,9.95853e-01,9.83906e-01
1.151503026e+00,3.36977e-01,9.99999e-01,9.99999e-01,3.41424e-01,9.95935e-01,9.91001e-01
1.157260541e+00,3.95156e-01,9.99999e-01,9.99999e-01,3.97810e-01,9.96015e-01,9.97300e-01
1.163046844e+00,5.01878e-01,9.99999e-01,9.99999e-01,5.04232e-01,9.96094e-01,9.99233e-01
1.168862078e+00,6.15891e-01,9.99999e-01,9.99999e-01,6.18502e-01,9.96171e-01,9.99605e-01
1.174706389e+00,7.40105e-01,9.99999e-01,9.99999e-01,7.43282e-01,9.96246e-01,9.99476e-01
1.180579921e+00,8.30713e-01,9.99999e-01,9.99999e-01,8.34440e-01,9.96320e-01,9.99208e-01
1.186482820e+00,8.98653e-01,9.99999e-01,9.99999e-01,9.02638e-01,9.96393e-01,9.99188e-01
1.192415234e+00,9.38057e-01,9.99999e-01,9.99999e-01,9.41957e-01,9.96464e-01,9.99391e-01
1.198377311e+00,9.47043e-01,9.99999e-01,9.99999e-01,9.50882e-01,9.96533e-01,9.99425e-01
1.204369197e+00,9.49750e-01,9.99999e-01,9.99999e-01,9.53482e-01,9.96602e-01,9.99480e-01
1.210391043e+00,9.51964e-01,9.99999e-01,9.99999e-01,9.55447e-01,9.96669e-01,9.99683e-01
1.216442998e+00,9.58625e-01,9.99999e-01,9.99999e-01,9.61951e-01,9.96734e-01,9.99805e-01
1.222525213e+00,9.67029e-01,9.99999e-01,9.99999e-01,9.70250e-01,9.96799e-01,9.99879e-01
1.228637839e+00,9.76125e-01,9.99999e-01,9.99999e-01,9.79252e-01,9.96862e-01,9.99943e-01
