#,Wave/freq,Total,N2,O2,H2O,Rayleigh,CIA
4.000000000e-01,8.71837e-01,9.99999e-01,9.99999e-01,9.99984e-01,8.71850e-01,9.99999e-01
4.020000000e-01,8.74209e-01,9.99999e-01,9.99999e-01,9.99989e-01,8.74217e-01,9.99999e-01
4.040100000e-01,8.76538e-01,9.99999e-01,9.99999e-01,9.99995e-01,8.76542e-01,9.99999e-01
4.060300500e-01,8.78825e-01,9.99999e-01,9.99999e-01,9.99998e-01,8.78826e-01,9.99999e-01
4.080602003e-01,8.81071e-01,9.99999e-01,9.99999e-01,9.99999e-01,8.81071e-01,9.99999e-01
4.101005013e-01,8.83278e-01,9.99999e-01,9.99999e-01,9.99999e-01,8.83278e-01,9.99999e-01
4.121510038e-01,8.85445e-01,9.99999e-01,9.99999e-01,9.99998e-01,8.85446e-01,9.99999e-01
4.142117588e-01,8.87572e-01,9.99999e-01,9.99999e-01,9.99995e-01,8.87576e-01,9.99999e-01
4.162828176e-01,8.89652e-01,9.99999e-01,9.99999e-01,9.99980e-01,8.89669e-01,9.99999e-01
4.183642317e-01,8.91716e-01,9.99999e-01,9.99999e-01,9.99988e-01,8.91726e-01,9.99999e-01
4.204560528e-01,8.93741e-01,9.99999e-01,9.99999e-01,9.99992e-01,8.93747e-01,9.99999e-01
4.225583331e-01,8.95730e-01,9.99999e-01,9.99999e-01,9.99996e-01,8.95732e-01,9.99999e-01
4.246711247e-01,8.97681e-01,9.99999e-01,9.99999e-01,9.99997e-01,8.97683e-01,9.99999e-01
4.267944804e-01,8.99596e-01,9.99999e-01,9.99999e-01,9.99996e-01,8.99598e-01,9.99999e-01
4.289284528e-01,9.01478e-01,9.99999e-01,9.99999e-01,9.99997e-01,9.01481e-01,9.99999e-01
4.310730950e-01,9.03328e-01,9.99999e-01,9.99999e-01,9.99998e-01,9.03329e-01,9.99999e-01
4.332284605e-01,9.05145e-01,9.99999e-01,9.99999e-01,9.99999e-01,9.05145e-01,9.99999e-01
4.353946028e-01,9.06929e-01,9.99999e-01,9.99999e-01,9.99999e-01,9.06929e-01,9.99999e-01
4.375715758e-01,9.08679e-01,9.99999e-01,9.99999e-01,9.99997e-01,9.08680e-01,9.99999e-01
4.397594337e-01,9.10385e-01,9.99999e-01,9.99999e-01,9.99982e-01,9.10401e-01,9.99999e-01
4.419582309e-01,9.12012e-01,9.99999e-01,9.99999e-01,9.99913e-01,9.12090e-01,9.99999e-01
4.441680220e-01,9.13689e-01,9.99999e-01,9.99999e-01,9.99932e-01,9.13750e-01,9.99999e-01
4.463888621e-01,9.15315e-01,9.99999e-01,9.99999e-01,9.99930e-01,9.15379e-01,9.99999e-01
4.486208064e-01,9.16940e-01,9.99999e-01,9.99999e-01,9.99956e-01,9.16979e-01,9.99999e-01
4.508639105e-01,9.18532e-01,9.99999e-01,9.99999e-01,9.99979e-01,9.18550e-01,9.99999e-01
4.531182300e-01,9.20086e-01,9.99999e-01,9.99999e-01,9.99991e-01,9.20093e-01,9.99999e-01
4.553838212e-01,9.21603e-01,9.99999e-01,9.99999e-01,9.99994e-01,9.21608e-01,9.99999e-01
4.576607403e-01,9.23093e-01,9.99999e-01,9.99999e-01,9.99997e-01,9.23095e-01,9.99999e-01
4.599490440e-01,9.24554e-01,9.99999e-01,9.99999e-01,9.99997e-01,9.24555e-01,9.99999e-01
4.622487892e-01,9.25989e-01,9.99999e-01,9.99999e-01,9.99999e-01,9.25989e-01,9.99999e-01
4.645600332e-01,9.27395e-01,9.99999e-01,9.99999e-01,9.99998e-01,9.27396e-01,9.99999e-01
4.668828333e-01,9.28759e-01,9.99999e-01,9.99999e-01,9.99979e-01,9.28778e-01,9.99999e-01
4.692172475e-01,9.30094e-01,9.99999e-01,9.99999e-01,9.99955e-01,9.30135e-01,9.99999e-01
4.715633337e-01,9.31440e-01,9.99999e-01,9.99999e-01,9.99971e-01,9.31466e-01,9.99999e-01
4.739211504e-01,9.32748e-01,9.99999e-01,9.99999e-01,9.99972e-01,9.32773e-01,9.99999e-01
4.762907561e-01,9.34043e-01,9.99999e-01,9.99999e-01,9.99985e-01,9.34056e-01,9.99999e-01
4.786722099e-01,9.35310e-01,9.99999e-01,9.99999e-01,9.99993e-01,9.35316e-01,9.99999e-01
4.810655710e-01,9.36550e-01,9.99999e-01,9.99999e-01,9.99997e-01,9.36552e-01,9.99999e-01
4.834708988e-01,9.37750e-01,9.99999e-01,9.99999e-01,9.99982e-01,9.37765e-01,9.99999e-01
4.858882533e-01,9.38927e-01,9.99999e-01,9.99999e-01,9.99968e-01,9.38956e-01,9.99999e-01
4.883176946e-01,9.40101e-01,9.99999e-01,9.99999e-01,9.99973e-01,9.40125e-01,9.99999e-01
4.907592831e-01,9.41251e-01,9.99999e-01,9.99999e-01,9.99976e-01,9.41272e-01,9.99999e-01
4.932130795e-01,9.42383e-01,9.99999e-01,9.99999e-01,9.99982e-01,9.42398e-01,9.99999e-01
4.956791449e-01,9.43495e-01,9.99999e-01,9.99999e-01,9.99990e-01,9.43503e-01,9.99999e-01
4.981575406e-01,9.44546e-01,9.99999e-01,9.99999e-01,9.99955e-01,9.44588e-01,9.99999e-01
5.006483283e-01,9.45544e-01,9.99999e-01,9.99999e-01,9.99885e-01,9.45652e-01,9.99998e-01
5.031515699e-01,9.46146e-01,9.99999e-01,9.99999e-01,9.99423e-01,9.46696e-01,9.99993e-01
5.056673278e-01,9.47427e-01,9.99999e-01,9.99999e-01,9.99696e-01,9.47721e-01,9.99992e-01
5.081956644e-01,9.48360e-01,9.99999e-01,9.99999e-01,9.99616e-01,9.48727e-01,9.99995e-01
5.107366428e-01,9.49468e-01,9.99999e-01,9.99999e-01,9.99741e-01,9.49714e-01,9.99998e-01
5.132903260e-01,9.50542e-01,9.99999e-01,9.99999e-01,9.99851e-01,9.50682e-01,9.99999e-01
5.158567776e-01,9.51573e-01,9.99999e-01,9.99999e-01,9.99937e-01,9.51632e-01,9.99999e-01
5.184360615e-01,9.52541e-01,9.99999e-01,9.99999e-01,9.99974e-01,9.52565e-01,9.99999e-01
5.210282418e-01,9.53470e-01,9.99999e-01,9.99999e-01,9.99990e-01,9.53479e-01,9.99999e-01
5.236333830e-01,9.54341e-01,9.99999e-01,9.99999e-01,9.99962e-01,9.54377e-01,9.99999e-01
5.262515499e-01,9.55235e-01,9.99999e-01,9.99999e-01,9.99976e-01,9.55258e-01,9.99999e-01
5.288828077e-01,9.56101e-01,9.99999e-01,9.99999e-01,9.99977e-01,9.56122e-01,9.99999e-01
5.315272217e-01,9.56951e-01,9.99999e-01,9.99999e-01,9.99980e-01,9.56969e-01,9.99999e-01
5.341848578e-01,9.57789e-01,9.99999e-01,9.99999e-01,9.99987e-01,9.57801e-01,9.99999e-01
5.368557821e-01,9.58575e-01,9.99999e-01,9.99999e-01,9.99955e-01,9.58617e-01,9.99999e-01
5.395400610e-01,9.59265e-01,9.99999e-01,9.99999e-01,9.99841e-01,9.59418e-01,9.99998e-01
5.422377613e-01,9.60004e-01,9.99999e-01,9.99999e-01,9.99796e-01,9.60203e-01,9.99995e-01
5.449489501e-01,9.60788e-01,9.99999e-01,9.99999e-01,9.99809e-01,9.60974e-01,9.99995e-01
5.476736949e-01,9.61567e-01,9.99999e-01,9.99999e-01,9.99832e-01,9.61730e-01,9.99997e-01
5.504120634e-01,9.62354e-01,9.99999e-01,9.99999e-01,9.99877e-01,9.62471e-01,9.99998e-01
5.531641237e-01,9.63140e-01,9.99999e-01,9.99999e-01,9.99938e-01,9.63199e-01,9.99999e-01
5.559299443e-01,9.63884e-01,9.99999e-01,9.99999e-01,9.99970e-01,9.63912e-01,9.99999e-01
5.587095940e-01,9.64594e-01,9.99999e-01,9.99999e-01,9.99980e-01,9.64612e-01,9.99999e-01
5.615031420e-01,9.65279e-01,9.99999e-01,9.99999e-01,9.99978e-01,9.65299e-01,9.99999e-01
5.643106577e-01,9.65950e-01,9.99999e-01,9.99999e-01,9.99976e-01,9.65973e-01,9.99999e-01
5.671322110e-01,9.66354e-01,9.99999e-01,9.99999e-01,9.99713e-01,9.66633e-01,9.99996e-01
5.699678720e-01,9.66982e-01,9.99999e-01,9.99999e-01,9.99697e-01,9.67282e-01,9.99991e-01
5.728177114e-01,9.67606e-01,9.99999e-01,9.99999e-01,9.99684e-01,9.67917e-01,9.99993e-01
5.756818000e-01,9.68257e-01,9.99999e-01,9.99999e-01,9.99710e-01,9.68541e-01,9.99995e-01
5.785602090e-01,9.68908e-01,9.99999e-01,9.99999e-01,9.99747e-01,9.69153e-01,9.99998e-01
5.814530100e-01,9.69507e-01,9.99999e-01,9.99999e-01,9.99746e-01,9.69753e-01,9.99998e-01
5.843602750e-01,9.70046e-01,9.99999e-01,9.99999e-01,9.99697e-01,9.70341e-01,9.99997e-01
5.872820764e-01,9.68370e-01,9.99999e-01,9.99999e-01,9.97392e-01,9.70918e-01,9.99981e-01
5.902184868e-01,9.68377e-01,9.99999e-01,9.99999e-01,9.96850e-01,9.71484e-01,9.99949e-01
5.931695792e-01,9.69828e-01,9.99999e-01,9.99999e-01,9.97772e-01,9.72040e-01,9.99951e-01
5.961354271e-01,9.70185e-01,9.99999e-01,9.99999e-01,9.97559e-01,9.72584e-01,9.99971e-01
5.991161043e-01,9.71380e-01,9.99999e-01,9.99999e-01,9.98220e-01,9.73119e-01,9.99990e-01
6.021116848e-01,9.72659e-01,9.99999e-01,9.99999e-01,9.98990e-01,9.73642e-01,9.99998e-01
6.051222432e-01,9.73659e-01,9.99999e-01,9.99999e-01,9.99489e-01,9.74156e-01,9.99999e-01
6.081478544e-01,9.74446e-01,9.99999e-01,9.99999e-01,9.99779e-01,9.74660e-01,9.99999e-01
6.111885937e-01,9.75064e-01,9.99999e-01,9.99999e-01,9.99906e-01,9.75154e-01,9.99999e-01
6.142445367e-01,9.75599e-01,9.99999e-01,9.99999e-01,9.99957e-01,9.75639e-01,9.99999e-01
6.173157594e-01,9.76092e-01,9.99999e-01,9.99999e-01,9.99976e-01,9.76115e-01,9.99999e-01
6.204023382e-01,9.76562e-01,9.99999e-01,9.99999e-01,9.99980e-01,9.76581e-01,9.99999e-01
6.235043498e-01,9.76954e-01,9.99999e-01,9.99999e-01,9.99913e-01,9.77038e-01,9.99999e-01
6.266218716e-01,9.77040e-01,9.99999e-01,9.99999e-01,9.99546e-01,9.77486e-01,9.99996e-01
6.297549810e-01,9.77757e-01,9.99999e-01,9.99999e-01,9.99833e-01,9.77926e-01,9.99993e-01
6.329037559e-01,9.78031e-01,9.99999e-01,9.99999e-01,9.99671e-01,9.78357e-01,9.99994e-01
6.360682746e-01,9.78503e-01,9.99999e-01,9.99999e-01,9.99719e-01,9.78780e-01,9.99996e-01
6.392486160e-01,9.78839e-01,9.99999e-01,9.99999e-01,9.99636e-01,9.79195e-01,9.99998e-01
6.424448591e-01,9.79123e-01,9.99999e-01,9.99999e-01,9.99513e-01,9.79602e-01,9.99997e-01
6.456570834e-01,9.77775e-01,9.99999e-01,9.99999e-01,9.97741e-01,9.80001e-01,9.99987e-01
6.488853688e-01,9.78741e-01,9.99999e-01,9.99999e-01,9.98350e-01,9.80392e-01,9.99964e-01
6.521297956e-01,9.79099e-01,9.99999e-01,9.99999e-01,9.98318e-01,9.80775e-01,9.99970e-01
6.553904446e-01,9.79487e-01,9.99999e-01,9.99999e-01,9.98324e-01,9.81151e-01,9.99978e-01
6.586673968e-01,9.80107e-01,9.99999e-01,9.99999e-01,9.98566e-01,9.81520e-01,9.99992e-01
6.619607338e-01,9.81097e-01,9.99999e-01,9.99999e-01,9.99201e-01,9.81882e-01,9.99997e-01
6.652705375e-01,9.81765e-01,9.99999e-01,9.99999e-01,9.99520e-01,9.82236e-01,9.99998e-01
6.685968902e-01,9.82366e-01,9.99999e-01,9.99999e-01,9.99777e-01,9.82584e-01,9.99999e-01
6.719398746e-01,9.82824e-01,9.99999e-01,9.99999e-01,9.99896e-01,9.82925e-01,9.99999e-01
6.752995740e-01,9.83205e-01,9.99999e-01,9.99999e-01,9.99943e-01,9.83260e-01,9.99999e-01
6.786760719e-01,9.83508e-01,9.99999e-01,9.99999e-01,9.99918e-01,9.83588e-01,9.99999e-01
6.820694522e-01,9.83772e-01,9.99999e-01,9.99999e-01,9.99861e-01,9.83909e-01,9.99998e-01
6.854797995e-01,9.84047e-01,9.99999e-01,9.99999e-01,9.99821e-01,9.84224e-01,9.99997e-01
6.889071985e-01,9.84103e-01,9.99999e-01,9.99999e-01,9.99565e-01,9.84534e-01,9.99995e-01
6.923517345e-01,9.77854e-01,9.99999e-01,9.99999e-01,9.92943e-01,9.84837e-01,9.99965e-01
6.958134932e-01,9.81463e-01,9.99999e-01,9.99999e-01,9.96347e-01,9.85134e-01,9.99924e-01
6.992925606e-01,9.81921e-01,9.99999e-01,9.99999e-01,9.96510e-01,9.85425e-01,9.99932e-01
7.027890234e-01,9.81425e-01,9.99999e-01,9.99999e-01,9.95702e-01,9.85711e-01,9.99948e-01
7.063029686e-01,9.82403e-01,9.99999e-01,9.99999e-01,9.96385e-01,9.85992e-01,9.99973e-01
7.098344834e-01,9.82832e-01,9.99999e-01,9.99999e-01,9.96532e-01,9.86266e-01,9.99984e-01
7.133836558e-01,9.81930e-01,9.99999e-01,9.99999e-01,9.95361e-01,9.86536e-01,9.99969e-01
7.169505741e-01,9.50285e-01,9.99999e-01,9.99999e-01,9.63224e-01,9.86800e-01,9.99762e-01
7.205353270e-01,9.68835e-01,9.99999e-01,9.99999e-01,9.81947e-01,9.87059e-01,9.99581e-01
7.241380036e-01,9.64286e-01,9.99999e-01,9.99999e-01,9.77028e-01,9.87313e-01,9.99638e-01
7.277586936e-01,9.66788e-01,9.99999e-01,9.99999e-01,9.79253e-01,9.87562e-01,9.99704e-01
7.313974871e-01,9.65950e-01,9.99999e-01,9.99999e-01,9.78008e-01,9.87806e-01,9.99861e-01
7.350544745e-01,9.76075e-01,9.99999e-01,9.99999e-01,9.87931e-01,9.88045e-01,9.99951e-01
7.387297469e-01,9.79476e-01,9.99999e-01,9.99999e-01,9.91112e-01,9.88280e-01,9.99977e-01
7.424233956e-01,9.84204e-01,9.99999e-01,9.99999e-01,9.95647e-01,9.88510e-01,9.99995e-01
7.461355126e-01,9.86125e-01,9.99999e-01,9.99999e-01,9.97359e-01,9.88736e-01,9.99998e-01
7.498661902e-01,9.87742e-01,9.99999e-01,9.99999e-01,9.98770e-01,9.88957e-01,9.99999e-01
7.536155211e-01,9.88577e-01,9.99999e-01,9.99999e-01,9.99396e-01,9.89174e-01,9.99999e-01
7.573835987e-01,9.89080e-01,9.99999e-01,9.99999e-01,9.99689e-01,9.89387e-01,9.99999e-01
7.611705167e-01,9.89404e-01,9.99999e-01,9.99999e-01,9.99806e-01,9.89595e-01,9.99999e-01
7.649763693e-01,9.89680e-01,9.99999e-01,9.99999e-01,9.99878e-01,9.89800e-01,9.99999e-01
7.688012511e-01,9.89917e-01,9.99999e-01,9.99999e-01,9.99915e-01,9.90000e-01,9.99999e-01
7.726452574e-01,9.90128e-01,9.99999e-01,9.99999e-01,9.99930e-01,9.90197e-01,9.99999e-01
7.765084837e-01,9.90292e-01,9.99999e-01,9.99999e-01,9.99900e-01,9.90389e-01,9.99999e-01
7.803910261e-01,9.90155e-01,9.99999e-01,9.99999e-01,9.99572e-01,9.90578e-01,9.99999e-01
7.842929812e-01,9.89284e-01,9.99999e-01,9.99999e-01,9.98509e-01,9.90764e-01,9.99996e-01
7.882144461e-01,9.87890e-01,9.99999e-01,9.99999e-01,9.96937e-01,9.90945e-01,9.99978e-01
7.921555184e-01,9.89425e-01,9.99999e-01,9.99999e-01,9.98322e-01,9.91123e-01,9.99963e-01
7.961162960e-01,9.88316e-01,9.99999e-01,9.99999e-01,9.97026e-01,9.91298e-01,9.99964e-01
8.000968774e-01,9.88034e-01,9.99999e-01,9.99999e-01,9.96571e-01,9.91469e-01,9.99962e-01
8.040973618e-01,9.88207e-01,9.99999e-01,9.99999e-01,9.96569e-01,9.91637e-01,9.99971e-01
8.081178486e-01,9.84098e-01,9.99999e-01,9.99999e-01,9.92260e-01,9.91801e-01,9.99970e-01
8.121584379e-01,9.60202e-01,9.99999e-01,9.99999e-01,9.68086e-01,9.91962e-01,9.99891e-01
8.162192301e-01,9.54337e-01,9.99999e-01,9.99999e-01,9.62307e-01,9.92121e-01,9.99593e-01
8.203003262e-01,9.72853e-01,9.99999e-01,9.99999e-01,9.80892e-01,9.92276e-01,9.99523e-01
8.244018279e-01,9.65805e-01,9.99999e-01,9.99999e-01,9.73542e-01,9.92428e-01,9.99620e-01
8.285238370e-01,9.69780e-01,9.99999e-01,9.99999e-01,9.77323e-01,9.92577e-01,9.99702e-01
8.326664562e-01,9.69869e-01,9.99999e-01,9.99999e-01,9.77098e-01,9.92723e-01,9.99876e-01
8.368297885e-01,9.76574e-01,9.99999e-01,9.99999e-01,9.83618e-01,9.92866e-01,9.99971e-01
8.410139374e-01,9.83301e-01,9.99999e-01,9.99999e-01,9.90241e-01,9.93006e-01,9.99983e-01
8.452190071e-01,9.88375e-01,9.99999e-01,9.99999e-01,9.95207e-01,9.93144e-01,9.99989e-01
8.494451021e-01,9.90506e-01,9.99999e-01,9.99999e-01,9.97215e-01,9.93279e-01,9.99991e-01
8.536923276e-01,9.91772e-01,9.99999e-01,9.99999e-01,9.98354e-01,9.93411e-01,9.99994e-01
8.579607893e-01,9.92532e-01,9.99999e-01,9.99999e-01,9.98985e-01,9.93541e-01,9.99998e-01
8.622505932e-01,9.93028e-01,9.99999e-01,9.99999e-01,9.99355e-01,9.93668e-01,9.99999e-01
8.665618462e-01,9.93396e-01,9.99999e-01,9.99999e-01,9.99600e-01,9.93793e-01,9.99999e-01
8.708946554e-01,9.93461e-01,9.99999e-01,9.99999e-01,9.99542e-01,9.93915e-01,9.99999e-01
8.752491287e-01,9.93427e-01,9.99999e-01,9.99999e-01,9.99388e-01,9.94035e-01,9.99998e-01
8.796253743e-01,9.93309e-01,9.99999e-01,9.99999e-01,9.99152e-01,9.94152e-01,9.99997e-01
8.840235012e-01,9.93300e-01,9.99999e-01,9.99999e-01,9.99032e-01,9.94267e-01,9.99993e-01
8.884436187e-01,9.90837e-01,9.99999e-01,9.99999e-01,9.96453e-01,9.94380e-01,9.99982e-01
8.928858368e-01,9.57871e-01,9.99999e-01,9.99999e-01,9.63269e-01,9.94491e-01,9.99903e-01
8.973502660e-01,9.30520e-01,9.99999e-01,9.99999e-01,9.36034e-01,9.94599e-01,9.99505e-01
9.018370173e-01,9.61022e-01,9.99999e-01,9.99999e-01,9.66887e-01,9.94706e-01,9.99222e-01
9.063462024e-01,9.64999e-01,9.99999e-01,9.99999e-01,9.70696e-01,9.94810e-01,9.99316e-01
9.108779334e-01,9.49198e-01,9.99999e-01,9.99999e-01,9.54728e-01,9.94912e-01,9.99289e-01
9.154323231e-01,9.43504e-01,9.99999e-01,9.99999e-01,9.48789e-01,9.95013e-01,9.99412e-01
9.200094847e-01,9.54670e-01,9.99999e-01,9.99999e-01,9.59674e-01,9.95111e-01,9.99671e-01
9.246095321e-01,9.32120e-01,9.99999e-01,9.99999e-01,9.36962e-01,9.95207e-01,9.99621e-01
9.292325798e-01,6.42961e-01,9.99999e-01,9.99999e-01,6.46949e-01,9.95302e-01,9.98525e-01
9.338787427e-01,5.64547e-01,9.99999e-01,9.99999e-01,5.70629e-01,9.95394e-01,9.93918e-01
9.385481364e-01,7.88473e-01,9.99999e-01,9.99999e-01,7.97816e-01,9.95485e-01,9.92770e-01
9.432408771e-01,7.20907e-01,9.99999e-01,9.99999e-01,7.28658e-01,9.95574e-01,9.93759e-01
9.479570815e-01,6.39326e-01,9.99999e-01,9.99999e-01,6.45390e-01,9.95661e-01,9.94918e-01
9.526968669e-01,7.16442e-01,9.99999e-01,9.99999e-01,7.21741e-01,9.95747e-01,9.96897e-01
9.574603512e-01,7.37851e-01,9.99999e-01,9.99999e-01,7.42110e-01,9.95830e-01,9.98422e-01
9.622476530e-01,7.80903e-01,9.99999e-01,9.99999e-01,7.84963e-01,9.95913e-01,9.98908e-01
9.670588912e-01,8.65679e-01,9.99999e-01,9.99999e-01,8.69810e-01,9.95993e-01,9.99253e-01
9.718941857e-01,9.12546e-01,9.99999e-01,9.99999e-01,9.16647e-01,9.96072e-01,9.99450e-01
9.767536566e-01,9.26340e-01,9.99999e-01,9.99999e-01,9.30310e-01,9.96149e-01,9.99579e-01
9.816374249e-01,9.44229e-01,9.99999e-01,9.99999e-01,9.47944e-01,9.96225e-01,9.99854e-01
9.865456120e-01,9.63564e-01,9.99999e-01,9.99999e-01,9.67171e-01,9.96300e-01,9.99969e-01
9.914783401e-01,9.76024e-01,9.99999e-01,9.99999e-01,9.79585e-01,9.96373e-01,9.99991e-01
9.964357318e-01,9.85314e-01,9.99999e-01,9.99999e-01,9.88834e-01,9.96444e-01,9.99994e-01
1.001417910e+00,9.89826e-01,9.99999e-01,9.99999e-01,9.93295e-01,9.96514e-01,9.99992e-01
1.006425000e+00,9.92757e-01,9.99999e-01,9.99999e-01,9.96171e-01,9.96583e-01,9.99988e-01
1.011457125e+00,9.94273e-01,9.99999e-01,9.99999e-01,9.97624e-01,9.96650e-01,9.99989e-01
1.016514411e+00,9.95101e-01,9.99999e-01,9.99999e-01,9.98385e-01,9.96716e-01,9.99992e-01
1.021596983e+00,9.95492e-01,9.99999e-01,9.99999e-01,9.98713e-01,9.96781e-01,9.99992e-01
1.026704968e+00,9.95840e-01,9.99999e-01,9.99999e-01,9.98996e-01,9.96845e-01,9.99994e-01
1.031838492e+00,9.96179e-01,9.99999e-01,9.99999e-01,9.99270e-01,9.96907e-01,9.99998e-01
1.036997685e+00,9.96536e-01,9.99999e-01,9.99999e-01,9.99566e-01,9.96968e-01,9.99999e-01
1.042182673e+00,9.96512e-01,9.99999e-01,9.99999e-01,9.99482e-01,9.97028e-01,9.99999e-01
1.047393587e+00,9.96403e-01,9.99999e-01,9.99999e-01,9.99314e-01,9.97086e-01,9.99999e-01
1.052630555e+00,9.96206e-01,9.99999e-01,9.99999e-01,9.99058e-01,9.97144e-01,9.99999e-01
1.057893707e+00,9.95633e-01,9.99999e-01,9.99999e-01,9.98428e-01,9.97200e-01,9.99998e-01
1.063183176e+00,9.94677e-01,9.99999e-01,9.99999e-01,9.97415e-01,9.97255e-01,9.99998e-01
1.068499092e+00,9.92995e-01,9.99999e-01,9.99999e-01,9.95676e-01,9.97309e-01,9.99996e-01
1.073841587e+00,9.92307e-01,9.99999e-01,9.99999e-01,9.94937e-01,9.97362e-01,9.99993e-01
1.079210795e+00,9.90938e-01,9.99999e-01,9.99999e-01,9.93523e-01,9.97414e-01,9.99982e-01
1.084606849e+00,9.87653e-01,9.99999e-01,9.99999e-01,9.90203e-01,9.97465e-01,9.99957e-01
1.090029883e+00,9.83394e-01,9.99999e-01,9.99999e-01,9.85927e-01,9.97515e-01,9.99913e-01
1.095480033e+00,9.59638e-01,9.99999e-01,9.99999e-01,9.62130e-01,9.97564e-01,9.99843e-01
1.100957433e+00,9.04032e-01,9.99999e-01,9.99999e-01,9.06454e-01,9.97612e-01,9.99712e-01
1.106462220e+00,7.76336e-01,9.99999e-01,9.99999e-01,7.78535e-01,9.97659e-01,9.99513e-01
1.111994531e+00,5.88783e-01,9.99999e-01,9.99999e-01,5.90899e-01,9.97706e-01,9.98708e-01
1.117554504e+00,4.23740e-01,9.99999e-01,9.99999e-01,4.26680e-01,9.97751e-01,9.95346e-01
1.123142276e+00,5.26953e-01,9.99999e-01,9.99999e-01,5.33991e-01,9.97795e-01,9.89000e-01
1.128757988e+00,6.59433e-01,9.99999e-01,9.99999e-01,6.69370e-01,9.97839e-01,9.87286e-01
1.134401778e+00,4.05410e-01,9.99999e-01,9.99999e-01,4.10714e-01,9.97881e-01,9.89178e-01
1.140073787e+00,7.78989e-01,9.99999e-01,9.99999e-01,7.87425e-01,9.97923e-01,9.91344e-01
1.145774156e+00,6.01155e-01,9.99999e-01,9.99999e-01,6.07193e-01,9.97964e-01,9.92074e-01
1.151503026e+00,5.69442e-01,9.99999e-01,9.99999e-01,5.73115e-01,9.98004e-01,9.95576e-01
1.157260541e+00,6.27511e-01,9.99999e-01,9.99999e-01,6.29575e-01,9.98044e-01,9.98675e-01
1.163046844e+00,7.09026e-01,9.99999e-01,9.99999e-01,7.10655e-01,9.98082e-01,9.99623e-01
1.168862078e+00,7.87427e-01,9.99999e-01,9.99999e-01,7.89062e-01,9.98120e-01,9.99806e-01
1.174706389e+00,8.62177e-01,9.99999e-01,9.99999e-01,8.63989e-01,9.98157e-01,9.99743e-01
1.180579921e+00,9.12858e-01,9.99999e-01,9.99999e-01,9.14864e-01,9.98193e-01,9.99611e-01
1.186482820e+00,9.48922e-01,9.99999e-01,9.99999e-01,9.50983e-01,9.98229e-01,9.99601e-01
1.192415234e+00,9.69128e-01,9.99999e-01,9.99999e-01,9.71102e-01,9.98264e-01,9.99701e-01
1.198377311e+00,9.73641e-01,9.99999e-01,9.99999e-01,9.75575e-01,9.98298e-01,9.99717e-01
1.204369197e+00,9.74994e-01,9.99999e-01,9.99999e-01,9.76871e-01,9.98332e-01,9.99744e-01
1.210391043e+00,9.76128e-01,9.99999e-01,9.99999e-01,9.77877e-01,9.98365e-01,9.99844e-01
1.216442998e+00,9.79497e-01,9.99999e-01,9.99999e-01,9.81161e-01,9.98397e-01,9.99904e-01
1.222525213e+00,9.83699e-01,9.99999e-01,9.99999e-01,9.85304e-01,9.98429e-01,9.99940e-01
1.228637839e+00,9.88222e-01,9.99999e-01,9.99999e-01,9.89773e-01,9.98460e-01,9.99972e-01
