#,Wave/freq,Total,N2,O2,H2O,Rayleigh,CIA
4.000000000e-01,7.02890e-01,9.99999e-01,9.99999e-01,9.99959e-01,7.02918e-01,9.99999e-01
4.020000000e-01,7.07817e-01,9.99999e-01,9.99999e-01,9.99975e-01,7.07834e-01,9.99999e-01
4.040100000e-01,7.12674e-01,9.99999e-01,9.99999e-01,9.99989e-01,7.12682e-01,9.99999e-01
4.060300500e-01,7.17464e-01,9.99999e-01,9.99999e-01,9.99997e-01,7.17466e-01,9.99999e-01
4.080602003e-01,7.22186e-01,9.99999e-01,9.99999e-01,9.99998e-01,7.22187e-01,9.99999e-01
4.101005013e-01,7.26845e-01,9.99999e-01,9.99999e-01,9.99999e-01,7.26845e-01,9.99999e-01
4.121510038e-01,7.31439e-01,9.99999e-01,9.99999e-01,9.99998e-01,7.31440e-01,9.99999e-01
4.142117588e-01,7.35964e-01,9.99999e-01,9.99999e-01,9.99988e-01,7.35972e-01,9.99999e-01
4.162828176e-01,7.40406e-01,9.99999e-01,9.99999e-01,9.99950e-01,7.40442e-01,9.99999e-01
4.183642317e-01,7.44828e-01,9.99999e-01,9.99999e-01,9.99970e-01,7.44850e-01,9.99999e-01
4.204560528e-01,7.49183e-01,9.99999e-01,9.99999e-01,9.99981e-01,7.49197e-01,9.99999e-01
4.225583331e-01,7.53477e-01,9.99999e-01,9.99999e-01,9.99992e-01,7.53482e-01,9.99999e-01
4.246711247e-01,7.57702e-01,9.99999e-01,9.99999e-01,9.99994e-01,7.57707e-01,9.99999e-01
4.267944804e-01,7.61865e-01,9.99999e-01,9.99999e-01,9.99991e-01,7.61871e-01,9.99999e-01
4.289284528e-01,7.65970e-01,9.99999e-01,9.99999e-01,9.99993e-01,7.65975e-01,9.99999e-01
4.310730950e-01,7.70017e-01,9.99999e-01,9.99999e-01,9.99996e-01,7.70019e-01,9.99999e-01
4.332284605e-01,7.74004e-01,9.99999e-01,9.99999e-01,9.99998e-01,7.74004e-01,9.99999e-01
4.353946028e-01,7.77930e-01,9.99999e-01,9.99999e-01,9.99999e-01,7.77931e-01,9.99999e-01
4.375715758e-01,7.81795e-01,9.99999e-01,9.99999e-01,9.99994e-01,7.81799e-01,9.99999e-01
4.397594337e-01,7.85575e-01,9.99999e-01,9.99999e-01,9.99955e-01,7.85609e-01,9.99999e-01
4.419582309e-01,7.89186e-01,9.99999e-01,9.99999e-01,9.99775e-01,7.89363e-01,9.99999e-01
4.441680220e-01,7.92924e-01,9.99999e-01,9.99999e-01,9.99829e-01,7.93059e-01,9.99999e-01
4.463888621e-01,7.96557e-01,9.99999e-01,9.99999e-01,9.99821e-01,7.96700e-01,9.99999e-01
4.486208064e-01,8.00196e-01,9.99999e-01,9.99999e-01,9.99889e-01,8.00284e-01,9.99999e-01
4.508639105e-01,8.03772e-01,9.99999e-01,9.99999e-01,9.99947e-01,8.03814e-01,9.99999e-01
4.531182300e-01,8.07272e-01,9.99999e-01,9.99999e-01,9.99979e-01,8.07289e-01,9.99999e-01
4.553838212e-01,8.10698e-01,9.99999e-01,9.99999e-01,9.99985e-01,8.10709e-01,9.99999e-01
4.576607403e-01,8.14072e-01,9.99999e-01,9.99999e-01,9.99993e-01,8.14077e-01,9.99999e-01
4.599490440e-01,8.17387e-01,9.99999e-01,9.99999e-01,9.99995e-01,8.17391e-01,9.99999e-01
4.622487892e-01,8.20652e-01,9.99999e-01,9.99999e-01,9.99998e-01,8.20653e-01,9.99999e-01
4.645600332e-01,8.23861e-01,9.99999e-01,9.99999e-01,9.99996e-01,8.23863e-01,9.99999e-01
4.668828333e-01,8.26979e-01,9.99999e-01,9.99999e-01,9.99946e-01,8.27022e-01,9.99999e-01
4.692172475e-01,8.30038e-01,9.99999e-01,9.99999e-01,9.99887e-01,8.30131e-01,9.99999e-01
4.715633337e-01,8.33128e-01,9.99999e-01,9.99999e-01,9.99926e-01,8.33189e-01,9.99999e-01
4.739211504e-01,8.36140e-01,9.99999e-01,9.99999e-01,9.99929e-01,8.36198e-01,9.99999e-01
4.762907561e-01,8.39127e-01,9.99999e-01,9.99999e-01,9.99963e-01,8.39158e-01,9.99999e-01
4.786722099e-01,8.42057e-01,9.99999e-01,9.99999e-01,9.99984e-01,8.42069e-01,9.99999e-01
4.810655710e-01,8.44930e-01,9.99999e-01,9.99999e-01,9.99995e-01,8.44933e-01,9.99999e-01
4.834708988e-01,8.47713e-01,9.99999e-01,9.99999e-01,9.99955e-01,8.47750e-01,9.99999e-01
4.858882533e-01,8.50453e-01,9.99999e-01,9.99999e-01,9.99920e-01,8.50520e-01,9.99999e-01
4.883176946e-01,8.53188e-01,9.99999e-01,9.99999e-01,9.99933e-01,8.53245e-01,9.99999e-01
4.907592831e-01,8.55873e-01,9.99999e-01,9.99999e-01,9.99939e-01,8.55924e-01,9.99999e-01
4.932130795e-01,8.58522e-01,9.99999e-01,9.99999e-01,9.99957e-01,8.58558e-01,9.99999e-01
4.956791449e-01,8.61129e-01,9.99999e-01,9.99999e-01,9.99977e-01,8.61148e-01,9.99999e-01
4.981575406e-01,8.63597e-01,9.99999e-01,9.99999e-01,9.99886e-01,8.63695e-01,9.99999e-01
5.006483283e-01,8.65941e-01,9.99999e-01,9.99999e-01,9.99704e-01,8.66198e-01,9.99997e-01
5.031515699e-01,8.67358e-01,9.99999e-01,9.99999e-01,9.98517e-01,8.68659e-01,9.99983e-01
5.056673278e-01,8.70385e-01,9.99999e-01,9.99999e-01,9.99220e-01,8.71079e-01,9.99981e-01
5.081956644e-01,8.72590e-01,9.99999e-01,9.99999e-01,9.99017e-01,8.73457e-01,9.99988e-01
5.107366428e-01,8.75212e-01,9.99999e-01,9.99999e-01,9.99337e-01,8.75794e-01,9.99997e-01
5.132903260e-01,8.77759e-01,9.99999e-01,9.99999e-01,9.99621e-01,8.78091e-01,9.99999e-01
5.158567776e-01,8.80209e-01,9.99999e-01,9.99999e-01,9.99840e-01,8.80349e-01,9.99999e-01
5.184360615e-01,8.82511e-01,9.99999e-01,9.99999e-01,9.99935e-01,8.82568e-01,9.99999e-01
5.210282418e-01,8.84727e-01,9.99999e-01,9.99999e-01,9.99975e-01,8.84748e-01,9.99999e-01
5.236333830e-01,8.86805e-01,9.99999e-01,9.99999e-01,9.99903e-01,8.86891e-01,9.99998e-01
5.262515499e-01,8.88942e-01,9.99999e-01,9.99999e-01,9.99939e-01,8.88996e-01,9.99998e-01
5.288828077e-01,8.91014e-01,9.99999e-01,9.99999e-01,9.99943e-01,8.91064e-01,9.99998e-01
5.315272217e-01,8.93054e-01,9.99999e-01,9.99999e-01,9.99951e-01,8.93097e-01,9.99999e-01
5.341848578e-01,8.95065e-01,9.99999e-01,9.99999e-01,9.99967e-01,8.95094e-01,9.99999e-01
5.368557821e-01,8.96954e-01,9.99999e-01,9.99999e-01,9.99886e-01,8.97055e-01,9.99999e-01
5.395400610e-01,8.98609e-01,9.99999e-01,9.99999e-01,9.99588e-01,8.98982e-01,9.99995e-01
5.422377613e-01,9.00397e-01,9.99999e-01,9.99999e-01,9.99478e-01,9.00875e-01,9.99989e-01
5.449489501e-01,9.02284e-01,9.99999e-01,9.99999e-01,9.99510e-01,9.02735e-01,9.99989e-01
5.476736949e-01,9.04169e-01,9.99999e-01,9.99999e-01,9.99570e-01,9.04561e-01,9.99994e-01
5.504120634e-01,9.06071e-01,9.99999e-01,9.99999e-01,9.99688e-01,9.06355e-01,9.99998e-01
5.531641237e-01,9.07975e-01,9.99999e-01,9.99999e-01,9.99842e-01,9.08117e-01,9.99999e-01
5.559299443e-01,9.09779e-01,9.99999e-01,9.99999e-01,9.99924e-01,9.09847e-01,9.99999e-01
5.587095940e-01,9.11503e-01,9.99999e-01,9.99999e-01,9.99951e-01,9.11547e-01,9.99999e-01
5.615031420e-01,9.13167e-01,9.99999e-01,9.99999e-01,9.99946e-01,9.13216e-01,9.99999e-01
5.643106577e-01,9.14799e-01,9.99999e-01,9.99999e-01,9.99938e-01,9.14855e-01,9.99998e-01
5.671322110e-01,9.15774e-01,9.99999e-01,9.99999e-01,9.99252e-01,9.16464e-01,9.99993e-01
5.699678720e-01,9.17321e-01,9.99999e-01,9.99999e-01,9.99230e-01,9.18045e-01,9.99979e-01
5.728177114e-01,9.18835e-01,9.99999e-01,9.99999e-01,9.99187e-01,9.19597e-01,9.99982e-01
5.756818000e-01,9.20427e-01,9.99999e-01,9.99999e-01,9.99256e-01,9.21121e-01,9.99989e-01
5.785602090e-01,9.22018e-01,9.99999e-01,9.99999e-01,9.99353e-01,9.22617e-01,9.99996e-01
5.814530100e-01,9.23483e-01,9.99999e-01,9.99999e-01,9.99348e-01,9.24086e-01,9.99998e-01
5.843602750e-01,9.24799e-01,9.99999e-01,9.99999e-01,9.99216e-01,9.25528e-01,9.99995e-01
5.872820764e-01,9.20669e-01,9.99999e-01,9.99999e-01,9.93276e-01,9.26944e-01,9.99952e-01
5.902184868e-01,9.20736e-01,9.99999e-01,9.99999e-01,9.91942e-01,9.28334e-01,9.99871e-01
5.931695792e-01,9.24270e-01,9.99999e-01,9.99999e-01,9.94282e-01,9.29698e-01,9.99876e-01
5.961354271e-01,9.25154e-01,9.99999e-01,9.99999e-01,9.93749e-01,9.31038e-01,9.99928e-01
5.991161043e-01,9.28086e-01,9.99999e-01,9.99999e-01,9.95444e-01,9.32353e-01,9.99977e-01
6.021116848e-01,9.31230e-01,9.99999e-01,9.99999e-01,9.97416e-01,9.33644e-01,9.99997e-01
6.051222432e-01,9.33689e-01,9.99999e-01,9.99999e-01,9.98692e-01,9.34911e-01,9.99999e-01
6.081478544e-01,9.35626e-01,9.99999e-01,9.99999e-01,9.99435e-01,9.36154e-01,9.99999e-01
6.111885937e-01,9.37152e-01,9.99999e-01,9.99999e-01,9.99761e-01,9.37375e-01,9.99999e-01
6.142445367e-01,9.38473e-01,9.99999e-01,9.99999e-01,9.99893e-01,9.38573e-01,9.99999e-01
6.173157594e-01,9.39694e-01,9.99999e-01,9.99999e-01,9.99940e-01,9.39749e-01,9.99999e-01
6.204023382e-01,9.40856e-01,9.99999e-01,9.99999e-01,9.99949e-01,9.40904e-01,9.99999e-01
6.235043498e-01,9.41824e-01,9.99999e-01,9.99999e-01,9.99774e-01,9.42036e-01,9.99998e-01
6.266218716e-01,9.42041e-01,9.99999e-01,9.99999e-01,9.98833e-01,9.43148e-01,9.99991e-01
6.297549810e-01,9.43820e-01,9.99999e-01,9.99999e-01,9.99571e-01,9.44239e-01,9.99983e-01
6.329037559e-01,9.44501e-01,9.99999e-01,9.99999e-01,9.99157e-01,9.45310e-01,9.99986e-01
6.360682746e-01,9.45671e-01,9.99999e-01,9.99999e-01,9.99278e-01,9.46361e-01,9.99991e-01
6.392486160e-01,9.46506e-01,9.99999e-01,9.99999e-01,9.99067e-01,9.47392e-01,9.99996e-01
6.424448591e-01,9.47203e-01,9.99999e-01,9.99999e-01,9.98740e-01,9.48403e-01,9.99993e-01
6.456570834e-01,9.43822e-01,9.99999e-01,9.99999e-01,9.94163e-01,9.49396e-01,9.99964e-01
6.488853688e-01,9.46276e-01,9.99999e-01,9.99999e-01,9.95780e-01,9.50371e-01,9.99909e-01
6.521297956e-01,9.47166e-01,9.99999e-01,9.99999e-01,9.95700e-01,9.51327e-01,9.99925e-01
6.553904446e-01,9.48113e-01,9.99999e-01,9.99999e-01,9.95694e-01,9.52265e-01,9.99944e-01
6.586673968e-01,9.49671e-01,9.99999e-01,9.99999e-01,9.96331e-01,9.53185e-01,9.99981e-01
6.619607338e-01,9.52134e-01,9.99999e-01,9.99999e-01,9.97954e-01,9.54088e-01,9.99995e-01
6.652705375e-01,9.53801e-01,9.99999e-01,9.99999e-01,9.98772e-01,9.54974e-01,9.99997e-01
6.685968902e-01,9.55346e-01,9.99999e-01,9.99999e-01,9.99478e-01,9.55844e-01,9.99999e-01
6.719398746e-01,9.56444e-01,9.99999e-01,9.99999e-01,9.99735e-01,9.56697e-01,9.99999e-01
6.752995740e-01,9.57400e-01,9.99999e-01,9.99999e-01,9.99860e-01,9.57534e-01,9.99999e-01
6.786760719e-01,9.58154e-01,9.99999e-01,9.99999e-01,9.99790e-01,9.58355e-01,9.99999e-01
6.820694522e-01,9.58814e-01,9.99999e-01,9.99999e-01,9.99640e-01,9.59160e-01,9.99997e-01
6.854797995e-01,9.59506e-01,9.99999e-01,9.99999e-01,9.99540e-01,9.59951e-01,9.99995e-01
6.889071985e-01,9.59630e-01,9.99999e-01,9.99999e-01,9.98868e-01,9.60726e-01,9.99989e-01
6.923517345e-01,9.43978e-01,9.99999e-01,9.99999e-01,9.81874e-01,9.61487e-01,9.99912e-01
6.958134932e-01,9.53168e-01,9.99999e-01,9.99999e-01,9.90769e-01,9.62233e-01,9.99807e-01
6.992925606e-01,9.54142e-01,9.99999e-01,9.99999e-01,9.91008e-01,9.62965e-01,9.99826e-01
7.027890234e-01,9.52970e-01,9.99999e-01,9.99999e-01,9.89014e-01,9.63683e-01,9.99867e-01
7.063029686e-01,9.55400e-01,9.99999e-01,9.99999e-01,9.90745e-01,9.64387e-01,9.99933e-01
7.098344834e-01,9.56470e-01,9.99999e-01,9.99999e-01,9.91118e-01,9.65078e-01,9.99960e-01
7.133836558e-01,9.54104e-01,9.99999e-01,9.99999e-01,9.88010e-01,9.65756e-01,9.99922e-01
7.169505741e-01,8.77420e-01,9.99999e-01,9.99999e-01,9.08459e-01,9.66421e-01,9.99390e-01
7.205353270e-01,9.22595e-01,9.99999e-01,9.99999e-01,9.55032e-01,9.67073e-01,9.98925e-01
7.241380036e-01,9.10871e-01,9.99999e-01,9.99999e-01,9.42134e-01,9.67713e-01,9.99072e-01
7.277586936e-01,9.17005e-01,9.99999e-01,9.99999e-01,9.47703e-01,9.68340e-01,9.99241e-01
7.313974871e-01,9.15181e-01,9.99999e-01,9.99999e-01,9.44837e-01,9.68956e-01,9.99644e-01
7.350544745e-01,9.39784e-01,9.99999e-01,9.99999e-01,9.69408e-01,9.69560e-01,9.99876e-01
7.387297469e-01,9.48181e-01,9.99999e-01,9.99999e-01,9.77408e-01,9.70152e-01,9.99942e-01
7.424233956e-01,9.59960e-01,9.99999e-01,9.99999e-01,9.88911e-01,9.70733e-01,9.99989e-01
7.461355126e-01,9.64750e-01,9.99999e-01,9.99999e-01,9.93254e-01,9.71302e-01,9.99997e-01
7.498661902e-01,9.68815e-01,9.99999e-01,9.99999e-01,9.96865e-01,9.71861e-01,9.99998e-01
7.536155211e-01,9.70908e-01,9.99999e-01,9.99999e-01,9.98455e-01,9.72409e-01,9.99999e-01
7.573835987e-01,9.72174e-01,9.99999e-01,9.99999e-01,9.99205e-01,9.72947e-01,9.99999e-01
7.611705167e-01,9.72993e-01,9.99999e-01,9.99999e-01,9.99505e-01,9.73474e-01,9.99999e-01
7.649763693e-01,9.73689e-01,9.99999e-01,9.99999e-01,9.99689e-01,9.73991e-01,9.99999e-01
7.688012511e-01,9.74288e-01,9.99999e-01,9.99999e-01,9.99783e-01,9.74498e-01,9.99999e-01
7.726452574e-01,9.74822e-01,9.99999e-01,9.99999e-01,9.99821e-01,9.74996e-01,9.99999e-01
7.765084837e-01,9.75234e-01,9.99999e-01,9.99999e-01,9.99744e-01,9.75483e-01,9.99999e-01
7.803910261e-01,9.74882e-01,9.99999e-01,9.99999e-01,9.98894e-01,9.75962e-01,9.99998e-01
7.842929812e-01,9.72660e-01,9.99999e-01,9.99999e-01,9.96144e-01,9.76431e-01,9.99992e-01
7.882144461e-01,9.69170e-01,9.99999e-01,9.99999e-01,9.92149e-01,9.76891e-01,9.99945e-01
7.921555184e-01,9.73064e-01,9.99999e-01,9.99999e-01,9.95715e-01,9.77342e-01,9.99905e-01
7.961162960e-01,9.70203e-01,9.99999e-01,9.99999e-01,9.92334e-01,9.77785e-01,9.99910e-01
8.000968774e-01,9.69528e-01,9.99999e-01,9.99999e-01,9.91209e-01,9.78219e-01,9.99904e-01
8.040973618e-01,9.69955e-01,9.99999e-01,9.99999e-01,9.91192e-01,9.78644e-01,9.99927e-01
8.081178486e-01,9.59528e-01,9.99999e-01,9.99999e-01,9.80120e-01,9.79062e-01,9.99926e-01
8.121584379e-01,9.00851e-01,9.99999e-01,9.99999e-01,9.19987e-01,9.79471e-01,9.99721e-01
8.162192301e-01,8.87688e-01,9.99999e-01,9.99999e-01,9.06868e-01,9.79872e-01,9.98954e-01
8.203003262e-01,9.31906e-01,9.99999e-01,9.99999e-01,9.51830e-01,9.80266e-01,9.98776e-01
8.244018279e-01,9.16404e-01,9.99999e-01,9.99999e-01,9.35394e-01,9.80652e-01,9.99026e-01
8.285238370e-01,9.24240e-01,9.99999e-01,9.99999e-01,9.42832e-01,9.81030e-01,9.99234e-01
8.326664562e-01,9.24713e-01,9.99999e-01,9.99999e-01,9.42535e-01,9.81402e-01,9.99683e-01
8.368297885e-01,9.41089e-01,9.99999e-01,9.99999e-01,9.58636e-01,9.81766e-01,9.99927e-01
8.410139374e-01,9.57749e-01,9.99999e-01,9.99999e-01,9.75223e-01,9.82122e-01,9.99957e-01
8.452190071e-01,9.70455e-01,9.99999e-01,9.99999e-01,9.87792e-01,9.82472e-01,9.99974e-01
8.494451021e-01,9.75788e-01,9.99999e-01,9.99999e-01,9.92868e-01,9.82816e-01,9.99979e-01
8.536923276e-01,9.79005e-01,9.99999e-01,9.99999e-01,9.95793e-01,9.83152e-01,9.99987e-01
8.579607893e-01,9.80922e-01,9.99999e-01,9.99999e-01,9.97399e-01,9.83482e-01,9.99996e-01
8.622505932e-01,9.82184e-01,9.99999e-01,9.99999e-01,9.98351e-01,9.83806e-01,9.99998e-01
8.665618462e-01,9.83115e-01,9.99999e-01,9.99999e-01,9.98975e-01,9.84123e-01,9.99999e-01
8.708946554e-01,9.83277e-01,9.99999e-01,9.99999e-01,9.98824e-01,9.84434e-01,9.99998e-01
8.752491287e-01,9.83191e-01,9.99999e-01,9.99999e-01,9.98428e-01,9.84739e-01,9.99997e-01
8.796253743e-01,9.82883e-01,9.99999e-01,9.99999e-01,9.97816e-01,9.85038e-01,9.99994e-01
8.840235012e-01,9.82863e-01,9.99999e-01,9.99999e-01,9.97508e-01,9.85332e-01,9.99984e-01
8.884436187e-01,9.76463e-01,9.99999e-01,9.99999e-01,9.90751e-01,9.85619e-01,9.99956e-01
8.928858368e-01,8.95313e-01,9.99999e-01,9.99999e-01,9.08341e-01,9.85901e-01,9.99751e-01
8.973502660e-01,8.32686e-01,9.99999e-01,9.99999e-01,8.45430e-01,9.86178e-01,9.98728e-01
9.018370173e-01,9.04372e-01,9.99999e-01,9.99999e-01,9.18629e-01,9.86449e-01,9.98002e-01
9.063462024e-01,9.12650e-01,9.99999e-01,9.99999e-01,9.26563e-01,9.86715e-01,9.98244e-01
9.108779334e-01,8.75357e-01,9.99999e-01,9.99999e-01,8.88527e-01,9.86976e-01,9.98176e-01
9.154323231e-01,8.62020e-01,9.99999e-01,9.99999e-01,8.74486e-01,9.87231e-01,9.98492e-01
9.200094847e-01,8.88663e-01,9.99999e-01,9.99999e-01,9.00688e-01,9.87482e-01,9.99155e-01
9.246095321e-01,8.36751e-01,9.99999e-01,9.99999e-01,8.47972e-01,9.87728e-01,9.99027e-01
9.292325798e-01,3.40869e-01,9.99999e-01,9.99999e-01,3.46644e-01,9.87968e-01,9.95314e-01
9.338787427e-01,2.52746e-01,9.99999e-01,9.99999e-01,2.60142e-01,9.88205e-01,9.83166e-01
9.385481364e-01,5.62183e-01,9.99999e-01,9.99999e-01,5.79467e-01,9.88436e-01,9.81521e-01
9.432408771e-01,4.58872e-01,9.99999e-01,9.99999e-01,4.71662e-01,9.88663e-01,9.84037e-01
9.479570815e-01,3.49218e-01,9.99999e-01,9.99999e-01,3.57798e-01,9.88886e-01,9.86989e-01
9.526968669e-01,4.48778e-01,9.99999e-01,9.99999e-01,4.57360e-01,9.89104e-01,9.92043e-01
9.574603512e-01,4.71286e-01,9.99999e-01,9.99999e-01,4.78311e-01,9.89318e-01,9.95950e-01
9.622476530e-01,5.39662e-01,9.99999e-01,9.99999e-01,5.46905e-01,9.89528e-01,9.97197e-01
9.670588912e-01,6.96047e-01,9.99999e-01,9.99999e-01,7.04560e-01,9.89734e-01,9.98163e-01
9.718941857e-01,7.91843e-01,9.99999e-01,9.99999e-01,8.01019e-01,9.89936e-01,9.98592e-01
9.767536566e-01,8.22523e-01,9.99999e-01,9.99999e-01,8.31615e-01,9.90134e-01,9.98920e-01
9.816374249e-01,8.63637e-01,9.99999e-01,9.99999e-01,8.72397e-01,9.90327e-01,9.99626e-01
9.865456120e-01,9.09403e-01,9.99999e-01,9.99999e-01,9.18179e-01,9.90518e-01,9.99921e-01
9.914783401e-01,9.39695e-01,9.99999e-01,9.99999e-01,9.48532e-01,9.90704e-01,9.99977e-01
9.964357318e-01,9.62776e-01,9.99999e-01,9.99999e-01,9.71642e-01,9.90887e-01,9.99986e-01
1.001417910e+00,9.74117e-01,9.99999e-01,9.99999e-01,9.82916e-01,9.91066e-01,9.99980e-01
1.006425000e+00,9.81501e-01,9.99999e-01,9.99999e-01,9.90200e-01,9.91242e-01,9.99972e-01
1.011457125e+00,9.85367e-01,9.99999e-01,9.99999e-01,9.93925e-01,9.91414e-01,9.99974e-01
1.016514411e+00,9.87466e-01,9.99999e-01,9.99999e-01,9.95865e-01,9.91583e-01,9.99981e-01
1.021596983e+00,9.88460e-01,9.99999e-01,9.99999e-01,9.96701e-01,9.91748e-01,9.99981e-01
1.026704968e+00,9.89346e-01,9.99999e-01,9.99999e-01,9.97425e-01,9.91911e-01,9.99988e-01
1.031838492e+00,9.90214e-01,9.99999e-01,9.99999e-01,9.98132e-01,9.92070e-01,9.99996e-01
1.036997685e+00,9.91122e-01,9.99999e-01,9.99999e-01,9.98887e-01,9.92226e-01,9.99998e-01
1.042182673e+00,9.91057e-01,9.99999e-01,9.99999e-01,9.98668e-01,9.92379e-01,9.99999e-01
1.047393587e+00,9.90780e-01,9.99999e-01,9.99999e-01,9.98238e-01,9.92529e-01,9.99999e-01
1.052630555e+00,9.90272e-01,9.99999e-01,9.99999e-01,9.97579e-01,9.92676e-01,9.99998e-01
1.057893707e+00,9.88802e-01,9.99999e-01,9.99999e-01,9.95953e-01,9.92820e-01,9.99998e-01
1.063183176e+00,9.86362e-01,9.99999e-01,9.99999e-01,9.93357e-01,9.92961e-01,9.99996e-01
1.068499092e+00,9.82089e-01,9.99999e-01,9.99999e-01,9.88920e-01,9.93100e-01,9.99992e-01
1.073841587e+00,9.80327e-01,9.99999e-01,9.99999e-01,9.87018e-01,9.93235e-01,9.99983e-01
1.079210795e+00,9.76891e-01,9.99999e-01,9.99999e-01,9.83455e-01,9.93369e-01,9.99955e-01
1.084606849e+00,9.68572e-01,9.99999e-01,9.99999e-01,9.75013e-01,9.93499e-01,9.99892e-01
1.090029883e+00,9.57703e-01,9.99999e-01,9.99999e-01,9.64058e-01,9.93627e-01,9.99778e-01
1.095480033e+00,8.99335e-01,9.99999e-01,9.99999e-01,9.05351e-01,9.93753e-01,9.99598e-01
1.100957433e+00,7.72339e-01,9.99999e-01,9.99999e-01,7.77671e-01,9.93876e-01,9.99262e-01
1.106462220e+00,5.29298e-01,9.99999e-01,9.99999e-01,5.33161e-01,9.93996e-01,9.98749e-01
1.111994531e+00,2.71095e-01,9.99999e-01,9.99999e-01,2.73607e-01,9.94114e-01,9.96684e-01
1.117554504e+00,1.25295e-01,9.99999e-01,9.99999e-01,1.27542e-01,9.94230e-01,9.88081e-01
1.123142276e+00,2.27745e-01,9.99999e-01,9.99999e-01,2.35646e-01,9.94344e-01,9.71966e-01
1.128757988e+00,3.64219e-01,9.99999e-01,9.99999e-01,3.78497e-01,9.94455e-01,9.67642e-01
1.134401778e+00,1.76303e-01,9.99999e-01,9.99999e-01,1.82294e-01,9.94565e-01,9.72418e-01
1.140073787e+00,5.36024e-01,9.99999e-01,9.99999e-01,5.51073e-01,9.94672e-01,9.77900e-01
1.145774156e+00,2.93984e-01,9.99999e-01,9.99999e-01,3.01635e-01,9.94777e-01,9.79752e-01
1.151503026e+00,2.61352e-01,9.99999e-01,9.99999e-01,2.65707e-01,9.94879e-01,9.88669e-01
1.157260541e+00,3.14129e-01,9.99999e-01,9.99999e-01,3.16791e-01,9.94980e-01,9.96598e-01
1.163046844e+00,4.23768e-01,9.99999e-01,9.99999e-01,4.26274e-01,9.95079e-01,9.99034e-01
1.168862078e+00,5.45312e-01,9.99999e-01,9.99999e-01,5.48230e-01,9.95176e-01,9.99496e-01
1.174706389e+00,6.85926e-01,9.99999e-01,9.99999e-01,6.89663e-01,9.95271e-01,9.99306e-01
1.180579921e+00,7.92644e-01,9.99999e-01,9.99999e-01,7.97129e-01,9.95364e-01,9.99002e-01
1.186482820e+00,8.74398e-01,9.99999e-01,9.99999e-01,8.79289e-01,9.95456e-01,9.98976e-01
1.192415234e+00,9.22684e-01,9.99999e-01,9.99999e-01,9.27522e-01,9.95545e-01,9.99233e-01
1.198377311e+00,9.33669e-01,9.99999e-01,9.99999e-01,9.38446e-01,9.95633e-01,9.99272e-01
1.204369197e+00,9.37160e-01,9.99999e-01,9.99999e-01,9.41785e-01,9.95719e-01,9.99366e-01
1.210391043e+00,9.39894e-01,9.99999e-01,9.99999e-01,9.44230e-01,9.95803e-01,9.99601e-01
1.216442998e+00,9.48325e-01,9.99999e-01,9.99999e-01,9.52474e-01,9.95886e-01,9.99755e-01
1.222525213e+00,9.58715e-01,9.99999e-01,9.99999e-01,9.62742e-01,9.95967e-01,9.99847e-01
1.228637839e+00,9.70039e-01,9.99999e-01,9.99999e-01,9.73957e-01,9.96047e-01,9.99929e-01
