#,Wave/freq,Total,N2,O2,H2O,Rayleigh,CIA
4.000000000e-01,7.02008e-01,9.99999e-01,9.99999e-01,9.99959e-01,7.02036e-01,9.99999e-01
4.020000000e-01,7.06946e-01,9.99999e-01,9.99999e-01,9.99974e-01,7.06964e-01,9.99999e-01
4.040100000e-01,7.11815e-01,9.99999e-01,9.99999e-01,9.99989e-01,7.11823e-01,9.99999e-01
4.060300500e-01,7.16617e-01,9.99999e-01,9.99999e-01,9.99997e-01,7.16618e-01,9.99999e-01
4.080602003e-01,7.21350e-01,9.99999e-01,9.99999e-01,9.99998e-01,7.21350e-01,9.99999e-01
4.101005013e-01,7.26019e-01,9.99999e-01,9.99999e-01,9.99999e-01,7.26019e-01,9.99999e-01
4.121510038e-01,7.30624e-01,9.99999e-01,9.99999e-01,9.99998e-01,7.30626e-01,9.99999e-01
4.142117588e-01,7.35161e-01,9.99999e-01,9.99999e-01,9.99988e-01,7.35169e-01,9.99999e-01
4.162828176e-01,7.39614e-01,9.99999e-01,9.99999e-01,9.99950e-01,7.39650e-01,9.99999e-01
4.183642317e-01,7.44048e-01,9.99999e-01,9.99999e-01,9.99970e-01,7.44069e-01,9.99999e-01
4.204560528e-01,7.48413e-01,9.99999e-01,9.99999e-01,9.99981e-01,7.48427e-01,9.99999e-01
4.225583331e-01,7.52718e-01,9.99999e-01,9.99999e-01,9.99992e-01,7.52723e-01,9.99999e-01
4.246711247e-01,7.56954e-01,9.99999e-01,9.99999e-01,9.99994e-01,7.56958e-01,9.99999e-01
4.267944804e-01,7.61127e-01,9.99999e-01,9.99999e-01,9.99991e-01,7.61133e-01,9.99999e-01
4.289284528e-01,7.65243e-01,9.99999e-01,9.99999e-01,9.99993e-01,7.65248e-01,9.99999e-01
4.310730950e-01,7.69301e-01,9.99999e-01,9.99999e-01,9.99996e-01,7.69303e-01,9.99999e-01
4.332284605e-01,7.73298e-01,9.99999e-01,9.99999e-01,9.99998e-01,7.73298e-01,9.99999e-01
4.353946028e-01,7.77235e-01,9.99999e-01,9.99999e-01,9.99999e-01,7.77235e-01,9.99999e-01
4.375715758e-01,7.81110e-01,9.99999e-01,9.99999e-01,9.99994e-01,7.81114e-01,9.99999e-01
4.397594337e-01,7.84900e-01,9.99999e-01,9.99999e-01,9.99955e-01,7.84935e-01,9.99999e-01
4.419582309e-01,7.88521e-01,9.99999e-01,9.99999e-01,9.99775e-01,7.88698e-01,9.99999e-01
4.441680220e-01,7.92270e-01,9.99999e-01,9.99999e-01,9.99828e-01,7.92405e-01,9.99999e-01
4.463888621e-01,7.95913e-01,9.99999e-01,9.99999e-01,9.99820e-01,7.96055e-01,9.99999e-01
4.486208064e-01,7.99561e-01,9.99999e-01,9.99999e-01,9.99889e-01,7.99650e-01,9.99999e-01
4.508639105e-01,8.03147e-01,9.99999e-01,9.99999e-01,9.99947e-01,8.03189e-01,9.99999e-01
4.531182300e-01,8.06657e-01,9.99999e-01,9.99999e-01,9.99979e-01,8.06673e-01,9.99999e-01
4.553838212e-01,8.10093e-01,9.99999e-01,9.99999e-01,9.99985e-01,8.10104e-01,9.99999e-01
4.576607403e-01,8.13475e-01,9.99999e-01,9.99999e-01,9.99993e-01,8.13481e-01,9.99999e-01
4.599490440e-01,8.16801e-01,9.99999e-01,9.99999e-01,9.99995e-01,8.16804e-01,9.99999e-01
4.622487892e-01,8.20075e-01,9.99999e-01,9.99999e-01,9.99998e-01,8.20076e-01,9.99999e-01
4.645600332e-01,8.23293e-01,9.99999e-01,9.99999e-01,9.99996e-01,8.23295e-01,9.99999e-01
4.668828333e-01,8.26419e-01,9.99999e-01,9.99999e-01,9.99946e-01,8.26463e-01,9.99999e-01
4.692172475e-01,8.29488e-01,9.99999e-01,9.99999e-01,9.99887e-01,8.29581e-01,9.99999e-01
4.715633337e-01,8.32587e-01,9.99999e-01,9.99999e-01,9.99926e-01,8.32648e-01,9.99999e-01
4.739211504e-01,8.35607e-01,9.99999e-01,9.99999e-01,9.99929e-01,8.35665e-01,9.99999e-01
4.762907561e-01,8.38604e-01,9.99999e-01,9.99999e-01,9.99963e-01,8.38634e-01,9.99999e-01
4.786722099e-01,8.41542e-01,9.99999e-01,9.99999e-01,9.99984e-01,8.41554e-01,9.99999e-01
4.810655710e-01,8.44423e-01,9.99999e-01,9.99999e-01,9.99995e-01,8.44426e-01,9.99999e-01
4.834708988e-01,8.47214e-01,9.99999e-01,9.99999e-01,9.99955e-01,8.47252e-01,9.99999e-01
4.858882533e-01,8.49963e-01,9.99999e-01,9.99999e-01,9.99920e-01,8.50030e-01,9.99999e-01
4.883176946e-01,8.52706e-01,9.99999e-01,9.99999e-01,9.99932e-01,8.52763e-01,9.99999e-01
4.907592831e-01,8.55398e-01,9.99999e-01,9.99999e-01,9.99939e-01,8.55450e-01,9.99999e-01
4.932130795e-01,8.58055e-01,9.99999e-01,9.99999e-01,9.99956e-01,8.58092e-01,9.99999e-01
4.956791449e-01,8.60670e-01,9.99999e-01,9.99999e-01,9.99977e-01,8.60690e-01,9.99999e-01
4.981575406e-01,8.63146e-01,9.99999e-01,9.99999e-01,9.99885e-01,8.63244e-01,9.99999e-01
5.006483283e-01,8.65497e-01,9.99999e-01,9.99999e-01,9.99703e-01,8.65755e-01,9.99997e-01
5.031515699e-01,8.66919e-01,9.99999e-01,9.99999e-01,9.98512e-01,8.68224e-01,9.99983e-01
5.056673278e-01,8.69955e-01,9.99999e-01,9.99999e-01,9.99217e-01,8.70651e-01,9.99981e-01
5.081956644e-01,8.72166e-01,9.99999e-01,9.99999e-01,9.99014e-01,8.73036e-01,9.99988e-01
5.107366428e-01,8.74797e-01,9.99999e-01,9.99999e-01,9.99334e-01,8.75380e-01,9.99997e-01
5.132903260e-01,8.77352e-01,9.99999e-01,9.99999e-01,9.99620e-01,8.77685e-01,9.99999e-01
5.158567776e-01,8.79809e-01,9.99999e-01,9.99999e-01,9.99839e-01,8.79950e-01,9.99999e-01
5.184360615e-01,8.82119e-01,9.99999e-01,9.99999e-01,9.99935e-01,8.82175e-01,9.99999e-01
5.210282418e-01,8.84341e-01,9.99999e-01,9.99999e-01,9.99975e-01,8.84362e-01,9.99999e-01
5.236333830e-01,8.86425e-01,9.99999e-01,9.99999e-01,9.99902e-01,8.86512e-01,9.99998e-01
5.262515499e-01,8.88569e-01,9.99999e-01,9.99999e-01,9.99939e-01,8.88624e-01,9.99998e-01
5.288828077e-01,8.90648e-01,9.99999e-01,9.99999e-01,9.99943e-01,8.90699e-01,9.99998e-01
5.315272217e-01,8.92694e-01,9.99999e-01,9.99999e-01,9.99951e-01,8.92737e-01,9.99999e-01
5.341848578e-01,8.94712e-01,9.99999e-01,9.99999e-01,9.99967e-01,8.94740e-01,9.99999e-01
5.368557821e-01,8.96606e-01,9.99999e-01,9.99999e-01,9.99886e-01,8.96708e-01,9.99999e-01
5.395400610e-01,8.98267e-01,9.99999e-01,9.99999e-01,9.99587e-01,8.98641e-01,9.99995e-01
5.422377613e-01,9.00060e-01,9.99999e-01,9.99999e-01,9.99476e-01,9.00540e-01,9.99989e-01
5.449489501e-01,9.01954e-01,9.99999e-01,9.99999e-01,9.99508e-01,9.02406e-01,9.99989e-01
5.476736949e-01,9.03844e-01,9.99999e-01,9.99999e-01,9.99569e-01,9.04238e-01,9.99994e-01
5.504120634e-01,9.05753e-01,9.99999e-01,9.99999e-01,9.99686e-01,9.06038e-01,9.99998e-01
5.531641237e-01,9.07662e-01,9.99999e-01,9.99999e-01,9.99842e-01,9.07805e-01,9.99999e-01
5.559299443e-01,9.09472e-01,9.99999e-01,9.99999e-01,9.99923e-01,9.09541e-01,9.99999e-01
5.587095940e-01,9.11203e-01,9.99999e-01,9.99999e-01,9.99951e-01,9.11246e-01,9.99999e-01
5.615031420e-01,9.12872e-01,9.99999e-01,9.99999e-01,9.99946e-01,9.12921e-01,9.99999e-01
5.643106577e-01,9.14509e-01,9.99999e-01,9.99999e-01,9.99938e-01,9.14565e-01,9.99998e-01
5.671322110e-01,9.15487e-01,9.99999e-01,9.99999e-01,9.99249e-01,9.16180e-01,9.99993e-01
5.699678720e-01,9.17039e-01,9.99999e-01,9.99999e-01,9.99227e-01,9.17765e-01,9.99979e-01
5.728177114e-01,9.18558e-01,9.99999e-01,9.99999e-01,9.99184e-01,9.19322e-01,9.99982e-01
5.756818000e-01,9.20156e-01,9.99999e-01,9.99999e-01,9.99253e-01,9.20851e-01,9.99989e-01
5.785602090e-01,9.21752e-01,9.99999e-01,9.99999e-01,9.99351e-01,9.22352e-01,9.99996e-01
5.814530100e-01,9.23221e-01,9.99999e-01,9.99999e-01,9.99346e-01,9.23826e-01,9.99998e-01
5.843602750e-01,9.24542e-01,9.99999e-01,9.99999e-01,9.99214e-01,9.25273e-01,9.99995e-01
5.872820764e-01,9.20398e-01,9.99999e-01,9.99999e-01,9.93252e-01,9.26693e-01,9.99952e-01
5.902184868e-01,9.20465e-01,9.99999e-01,9.99999e-01,9.91913e-01,9.28088e-01,9.99871e-01
5.931695792e-01,9.24011e-01,9.99999e-01,9.99999e-01,9.94262e-01,9.29457e-01,9.99876e-01
5.961354271e-01,9.24897e-01,9.99999e-01,9.99999e-01,9.93727e-01,9.30801e-01,9.99928e-01
5.991161043e-01,9.27839e-01,9.99999e-01,9.99999e-01,9.95428e-01,9.32120e-01,9.99977e-01
6.021116848e-01,9.30994e-01,9.99999e-01,9.99999e-01,9.97407e-01,9.33415e-01,9.99997e-01
6.051222432e-01,9.33461e-01,9.99999e-01,9.99999e-01,9.98688e-01,9.34687e-01,9.99999e-01
6.081478544e-01,9.35405e-01,9.99999e-01,9.99999e-01,9.99433e-01,9.35935e-01,9.99999e-01
6.111885937e-01,9.36936e-01,9.99999e-01,9.99999e-01,9.99760e-01,9.37159e-01,9.99999e-01
6.142445367e-01,9.38261e-01,9.99999e-01,9.99999e-01,9.99892e-01,9.38362e-01,9.99999e-01
6.173157594e-01,9.39486e-01,9.99999e-01,9.99999e-01,9.99940e-01,9.39541e-01,9.99999e-01
6.204023382e-01,9.40652e-01,9.99999e-01,9.99999e-01,9.99949e-01,9.40699e-01,9.99999e-01
6.235043498e-01,9.41623e-01,9.99999e-01,9.99999e-01,9.99774e-01,9.41836e-01,9.99998e-01
6.266218716e-01,9.41841e-01,9.99999e-01,9.99999e-01,9.98829e-01,9.42951e-01,9.99991e-01
6.297549810e-01,9.43626e-01,9.99999e-01,9.99999e-01,9.99570e-01,9.44046e-01,9.99983e-01
6.329037559e-01,9.44309e-01,9.99999e-01,9.99999e-01,9.99154e-01,9.45120e-01,9.99986e-01
6.360682746e-01,9.45483e-01,9.99999e-01,9.99999e-01,9.99275e-01,9.46175e-01,9.99991e-01
6.392486160e-01,9.46320e-01,9.99999e-01,9.99999e-01,9.99064e-01,9.47209e-01,9.99996e-01
6.424448591e-01,9.47020e-01,9.99999e-01,9.99999e-01,9.98735e-01,9.48225e-01,9.99993e-01
6.456570834e-01,9.43628e-01,9.99999e-01,9.99999e-01,9.94142e-01,9.49221e-01,9.99964e-01
6.488853688e-01,9.46090e-01,9.99999e-01,9.99999e-01,9.95765e-01,9.50198e-01,9.99909e-01
6.521297956e-01,9.46983e-01,9.99999e-01,9.99999e-01,9.95684e-01,9.51158e-01,9.99925e-01
6.553904446e-01,9.47933e-01,9.99999e-01,9.99999e-01,9.95679e-01,9.52099e-01,9.99944e-01
6.586673968e-01,9.49496e-01,9.99999e-01,9.99999e-01,9.96318e-01,9.53023e-01,9.99981e-01
6.619607338e-01,9.51968e-01,9.99999e-01,9.99999e-01,9.97947e-01,9.53929e-01,9.99995e-01
6.652705375e-01,9.53640e-01,9.99999e-01,9.99999e-01,9.98767e-01,9.54818e-01,9.99997e-01
6.685968902e-01,9.55190e-01,9.99999e-01,9.99999e-01,9.99476e-01,9.55690e-01,9.99999e-01
6.719398746e-01,9.56293e-01,9.99999e-01,9.99999e-01,9.99734e-01,9.56546e-01,9.99999e-01
6.752995740e-01,9.57252e-01,9.99999e-01,9.99999e-01,9.99859e-01,9.57386e-01,9.99999e-01
6.786760719e-01,9.58008e-01,9.99999e-01,9.99999e-01,9.99789e-01,9.58210e-01,9.99999e-01
6.820694522e-01,9.58670e-01,9.99999e-01,9.99999e-01,9.99638e-01,9.59018e-01,9.99997e-01
6.854797995e-01,9.59365e-01,9.99999e-01,9.99999e-01,9.99538e-01,9.59811e-01,9.99995e-01
6.889071985e-01,9.59489e-01,9.99999e-01,9.99999e-01,9.98864e-01,9.60589e-01,9.99989e-01
6.923517345e-01,9.43784e-01,9.99999e-01,9.99999e-01,9.81810e-01,9.61352e-01,9.99912e-01
6.958134932e-01,9.53006e-01,9.99999e-01,9.99999e-01,9.90737e-01,9.62101e-01,9.99806e-01
6.992925606e-01,9.53982e-01,9.99999e-01,9.99999e-01,9.90976e-01,9.62835e-01,9.99825e-01
7.027890234e-01,9.52807e-01,9.99999e-01,9.99999e-01,9.88975e-01,9.63556e-01,9.99866e-01
7.063029686e-01,9.55245e-01,9.99999e-01,9.99999e-01,9.90712e-01,9.64263e-01,9.99933e-01
7.098344834e-01,9.56319e-01,9.99999e-01,9.99999e-01,9.91087e-01,9.64956e-01,9.99960e-01
7.133836558e-01,9.53945e-01,9.99999e-01,9.99999e-01,9.87968e-01,9.65636e-01,9.99921e-01
7.169505741e-01,8.77016e-01,9.99999e-01,9.99999e-01,9.08153e-01,9.66303e-01,9.99388e-01
7.205353270e-01,9.22332e-01,9.99999e-01,9.99999e-01,9.54877e-01,9.66958e-01,9.98922e-01
7.241380036e-01,9.10569e-01,9.99999e-01,9.99999e-01,9.41935e-01,9.67600e-01,9.99069e-01
7.277586936e-01,9.16723e-01,9.99999e-01,9.99999e-01,9.47523e-01,9.68230e-01,9.99238e-01
7.313974871e-01,9.14894e-01,9.99999e-01,9.99999e-01,9.44647e-01,9.68847e-01,9.99643e-01
7.350544745e-01,9.39577e-01,9.99999e-01,9.99999e-01,9.69301e-01,9.69453e-01,9.99875e-01
7.387297469e-01,9.48002e-01,9.99999e-01,9.99999e-01,9.77328e-01,9.70047e-01,9.99942e-01
7.424233956e-01,9.59821e-01,9.99999e-01,9.99999e-01,9.88872e-01,9.70630e-01,9.99989e-01
7.461355126e-01,9.64626e-01,9.99999e-01,9.99999e-01,9.93230e-01,9.71202e-01,9.99997e-01
7.498661902e-01,9.68705e-01,9.99999e-01,9.99999e-01,9.96854e-01,9.71762e-01,9.99998e-01
7.536155211e-01,9.70806e-01,9.99999e-01,9.99999e-01,9.98450e-01,9.72312e-01,9.99999e-01
7.573835987e-01,9.72076e-01,9.99999e-01,9.99999e-01,9.99202e-01,9.72852e-01,9.99999e-01
7.611705167e-01,9.72898e-01,9.99999e-01,9.99999e-01,9.99504e-01,9.73381e-01,9.99999e-01
7.649763693e-01,9.73597e-01,9.99999e-01,9.99999e-01,9.99688e-01,9.73900e-01,9.99999e-01
7.688012511e-01,9.74197e-01,9.99999e-01,9.99999e-01,9.99782e-01,9.74409e-01,9.99999e-01
7.726452574e-01,9.74733e-01,9.99999e-01,9.99999e-01,9.99820e-01,9.74908e-01,9.99999e-01
7.765084837e-01,9.75147e-01,9.99999e-01,9.99999e-01,9.99743e-01,9.75397e-01,9.99999e-01
7.803910261e-01,9.74794e-01,9.99999e-01,9.99999e-01,9.98890e-01,9.75877e-01,9.99998e-01
7.842929812e-01,9.72564e-01,9.99999e-01,9.99999e-01,9.96130e-01,9.76348e-01,9.99992e-01
7.882144461e-01,9.69062e-01,9.99999e-01,9.99999e-01,9.92121e-01,9.76810e-01,9.99945e-01
7.921555184e-01,9.72969e-01,9.99999e-01,9.99999e-01,9.95700e-01,9.77262e-01,9.99905e-01
7.961162960e-01,9.70099e-01,9.99999e-01,9.99999e-01,9.92307e-01,9.77706e-01,9.99909e-01
8.000968774e-01,9.69421e-01,9.99999e-01,9.99999e-01,9.91178e-01,9.78142e-01,9.99904e-01
8.040973618e-01,9.69850e-01,9.99999e-01,9.99999e-01,9.91161e-01,9.78569e-01,9.99926e-01
8.081178486e-01,9.59388e-01,9.99999e-01,9.99999e-01,9.80050e-01,9.78988e-01,9.99925e-01
8.121584379e-01,9.00519e-01,9.99999e-01,9.99999e-01,9.19717e-01,9.79399e-01,9.99720e-01
8.162192301e-01,8.87314e-01,9.99999e-01,9.99999e-01,9.06555e-01,9.79801e-01,9.98951e-01
8.203003262e-01,9.31677e-01,9.99999e-01,9.99999e-01,9.51667e-01,9.80196e-01,9.98772e-01
8.244018279e-01,9.16127e-01,9.99999e-01,9.99999e-01,9.35179e-01,9.80584e-01,9.99022e-01
8.285238370e-01,9.23982e-01,9.99999e-01,9.99999e-01,9.42635e-01,9.80963e-01,9.99232e-01
8.326664562e-01,9.24457e-01,9.99999e-01,9.99999e-01,9.42338e-01,9.81336e-01,9.99682e-01
8.368297885e-01,9.40886e-01,9.99999e-01,9.99999e-01,9.58493e-01,9.81701e-01,9.99927e-01
8.410139374e-01,9.57602e-01,9.99999e-01,9.99999e-01,9.75136e-01,9.82059e-01,9.99957e-01
8.452190071e-01,9.70351e-01,9.99999e-01,9.99999e-01,9.87749e-01,9.82411e-01,9.99974e-01
8.494451021e-01,9.75703e-01,9.99999e-01,9.99999e-01,9.92843e-01,9.82755e-01,9.99979e-01
8.536923276e-01,9.78931e-01,9.99999e-01,9.99999e-01,9.95778e-01,9.83093e-01,9.99987e-01
8.579607893e-01,9.80855e-01,9.99999e-01,9.99999e-01,9.97389e-01,9.83424e-01,9.99996e-01
8.622505932e-01,9.82121e-01,9.99999e-01,9.99999e-01,9.98345e-01,9.83749e-01,9.99998e-01
8.665618462e-01,9.83056e-01,9.99999e-01,9.99999e-01,9.98972e-01,9.84067e-01,9.99999e-01
8.708946554e-01,9.83218e-01,9.99999e-01,9.99999e-01,9.98820e-01,9.84379e-01,9.99998e-01
8.752491287e-01,9.83132e-01,9.99999e-01,9.99999e-01,9.98423e-01,9.84685e-01,9.99997e-01
8.796253743e-01,9.82823e-01,9.99999e-01,9.99999e-01,9.97808e-01,9.84986e-01,9.99994e-01
8.840235012e-01,9.82802e-01,9.99999e-01,9.99999e-01,9.97500e-01,9.85280e-01,9.99984e-01
8.884436187e-01,9.76380e-01,9.99999e-01,9.99999e-01,9.90719e-01,9.85569e-01,9.99956e-01
8.928858368e-01,8.94966e-01,9.99999e-01,9.99999e-01,9.08035e-01,9.85852e-01,9.99750e-01
8.973502660e-01,8.32152e-01,9.99999e-01,9.99999e-01,8.44933e-01,9.86129e-01,9.98724e-01
9.018370173e-01,9.04052e-01,9.99999e-01,9.99999e-01,9.18356e-01,9.86401e-01,9.97995e-01
9.063462024e-01,9.12356e-01,9.99999e-01,9.99999e-01,9.26314e-01,9.86668e-01,9.98238e-01
9.108779334e-01,8.74947e-01,9.99999e-01,9.99999e-01,8.88159e-01,9.86930e-01,9.98169e-01
9.154323231e-01,8.61569e-01,9.99999e-01,9.99999e-01,8.74074e-01,9.87186e-01,9.98487e-01
9.200094847e-01,8.88295e-01,9.99999e-01,9.99999e-01,9.00358e-01,9.87438e-01,9.99152e-01
9.246095321e-01,8.36247e-01,9.99999e-01,9.99999e-01,8.47500e-01,9.87684e-01,9.99023e-01
9.292325798e-01,3.39694e-01,9.99999e-01,9.99999e-01,3.45469e-01,9.87926e-01,9.95297e-01
9.338787427e-01,2.51629e-01,9.99999e-01,9.99999e-01,2.59019e-01,9.88163e-01,9.83108e-01
9.385481364e-01,5.61126e-01,9.99999e-01,9.99999e-01,5.78439e-01,9.88395e-01,9.81456e-01
9.432408771e-01,4.57750e-01,9.99999e-01,9.99999e-01,4.70554e-01,9.88623e-01,9.83981e-01
9.479570815e-01,3.48064e-01,9.99999e-01,9.99999e-01,3.56646e-01,9.88847e-01,9.86943e-01
9.526968669e-01,4.47608e-01,9.99999e-01,9.99999e-01,4.56198e-01,9.89066e-01,9.92015e-01
9.574603512e-01,4.70100e-01,9.99999e-01,9.99999e-01,4.77132e-01,9.89281e-01,9.95936e-01
9.622476530e-01,5.38531e-01,9.99999e-01,9.99999e-01,5.45785e-01,9.89491e-01,9.97188e-01
9.670588912e-01,6.95183e-01,9.99999e-01,9.99999e-01,7.03716e-01,9.89698e-01,9.98156e-01
9.718941857e-01,7.91196e-01,9.99999e-01,9.99999e-01,8.00397e-01,9.89900e-01,9.98587e-01
9.767536566e-01,8.21958e-01,9.99999e-01,9.99999e-01,8.31077e-01,9.90099e-01,9.98916e-01
9.816374249e-01,8.63191e-01,9.99999e-01,9.99999e-01,8.71978e-01,9.90293e-01,9.99624e-01
9.865456120e-01,9.09098e-01,9.99999e-01,9.99999e-01,9.17903e-01,9.90484e-01,9.99921e-01
9.914783401e-01,9.39489e-01,9.99999e-01,9.99999e-01,9.48355e-01,9.90671e-01,9.99977e-01
9.964357318e-01,9.62647e-01,9.99999e-01,9.99999e-01,9.71544e-01,9.90854e-01,9.99986e-01
1.001417910e+00,9.74027e-01,9.99999e-01,9.99999e-01,9.82856e-01,9.91034e-01,9.99980e-01
1.006425000e+00,9.81436e-01,9.99999e-01,9.99999e-01,9.90165e-01,9.91211e-01,9.99971e-01
1.011457125e+00,9.85315e-01,9.99999e-01,9.99999e-01,9.93904e-01,9.91383e-01,9.99973e-01
1.016514411e+00,9.87422e-01,9.99999e-01,9.99999e-01,9.95850e-01,9.91553e-01,9.99981e-01
1.021596983e+00,9.88419e-01,9.99999e-01,9.99999e-01,9.96689e-01,9.91719e-01,9.99981e-01
1.026704968e+00,9.89309e-01,9.99999e-01,9.99999e-01,9.97416e-01,9.91882e-01,9.99988e-01
1.031838492e+00,9.90180e-01,9.99999e-01,9.99999e-01,9.98126e-01,9.92042e-01,9.99996e-01
1.036997685e+00,9.91091e-01,9.99999e-01,9.99999e-01,9.98883e-01,9.92198e-01,9.99998e-01
1.042182673e+00,9.91026e-01,9.99999e-01,9.99999e-01,9.98663e-01,9.92352e-01,9.99999e-01
1.047393587e+00,9.90747e-01,9.99999e-01,9.99999e-01,9.98231e-01,9.92502e-01,9.99999e-01
1.052630555e+00,9.90238e-01,9.99999e-01,9.99999e-01,9.97570e-01,9.92650e-01,9.99998e-01
1.057893707e+00,9.88762e-01,9.99999e-01,9.99999e-01,9.95939e-01,9.92794e-01,9.99998e-01
1.063183176e+00,9.86314e-01,9.99999e-01,9.99999e-01,9.93334e-01,9.92936e-01,9.99996e-01
1.068499092e+00,9.82026e-01,9.99999e-01,9.99999e-01,9.88881e-01,9.93075e-01,9.99992e-01
1.073841587e+00,9.80258e-01,9.99999e-01,9.99999e-01,9.86973e-01,9.93211e-01,9.99983e-01
1.079210795e+00,9.76810e-01,9.99999e-01,9.99999e-01,9.83397e-01,9.93345e-01,9.99954e-01
1.084606849e+00,9.68462e-01,9.99999e-01,9.99999e-01,9.74926e-01,9.93476e-01,9.99892e-01
1.090029883e+00,9.57557e-01,9.99999e-01,9.99999e-01,9.63934e-01,9.93605e-01,9.99777e-01
1.095480033e+00,8.98999e-01,9.99999e-01,9.99999e-01,9.05034e-01,9.93730e-01,9.99597e-01
1.100957433e+00,7.71643e-01,9.99999e-01,9.99999e-01,7.76989e-01,9.93854e-01,9.99259e-01
1.106462220e+00,5.28162e-01,9.99999e-01,9.99999e-01,5.32030e-01,9.93975e-01,9.98744e-01
1.111994531e+00,2.69925e-01,9.99999e-01,9.99999e-01,2.72435e-01,9.94094e-01,9.96672e-01
1.117554504e+00,1.24458e-01,9.99999e-01,9.99999e-01,1.26698e-01,9.94210e-01,9.88039e-01
1.123142276e+00,2.26723e-01,9.99999e-01,9.99999e-01,2.34617e-01,9.94324e-01,9.71869e-01
1.128757988e+00,3.63015e-01,9.99999e-01,9.99999e-01,3.77297e-01,9.94436e-01,9.67530e-01
1.134401778e+00,1.75608e-01,9.99999e-01,9.99999e-01,1.81597e-01,9.94545e-01,9.72322e-01
1.140073787e+00,5.34891e-01,9.99999e-01,9.99999e-01,5.49961e-01,9.94653e-01,9.77823e-01
1.145774156e+00,2.92829e-01,9.99999e-01,9.99999e-01,3.00477e-01,9.94758e-01,9.79681e-01
1.151503026e+00,2.60237e-01,9.99999e-01,9.99999e-01,2.64589e-01,9.94861e-01,9.88629e-01
1.157260541e+00,3.12904e-01,9.99999e-01,9.99999e-01,3.15565e-01,9.94962e-01,9.96586e-01
1.163046844e+00,4.22534e-01,9.99999e-01,9.99999e-01,4.25042e-01,9.95062e-01,9.99030e-01
1.168862078e+00,5.44163e-01,9.99999e-01,9.99999e-01,5.47086e-01,9.95159e-01,9.99494e-01
1.174706389e+00,6.85025e-01,9.99999e-01,9.99999e-01,6.88770e-01,9.95254e-01,9.99304e-01
1.180579921e+00,7.91998e-01,9.99999e-01,9.99999e-01,7.96496e-01,9.95348e-01,9.98999e-01
1.186482820e+00,8.73984e-01,9.99999e-01,9.99999e-01,8.78889e-01,9.95440e-01,9.98972e-01
1.192415234e+00,9.22421e-01,9.99999e-01,9.99999e-01,9.27275e-01,9.95529e-01,9.99230e-01
1.198377311e+00,9.33442e-01,9.99999e-01,9.99999e-01,9.38235e-01,9.95617e-01,9.99269e-01
1.204369197e+00,9.36945e-01,9.99999e-01,9.99999e-01,9.41585e-01,9.95704e-01,9.99363e-01
1.210391043e+00,9.39687e-01,9.99999e-01,9.99999e-01,9.44038e-01,9.95789e-01,9.99599e-01
1.216442998e+00,9.48147e-01,9.99999e-01,9.99999e-01,9.52310e-01,9.95872e-01,9.99754e-01
1.222525213e+00,9.58572e-01,9.99999e-01,9.99999e-01,9.62613e-01,9.95953e-01,9.99847e-01
1.228637839e+00,9.69935e-01,9.99999e-01,9.99999e-01,9.73866e-01,9.96033e-01,9.99928e-01
