#,Wave/freq,Total,N2,O2,H2O,Rayleigh,CIA
4.000000000e-01,9.14484e-01,9.99999e-01,9.99999e-01,9.99989e-01,9.14493e-01,9.99999e-01
4.020000000e-01,9.16105e-01,9.99999e-01,9.99999e-01,9.99993e-01,9.16111e-01,9.99999e-01
4.040100000e-01,9.17695e-01,9.99999e-01,9.99999e-01,9.99996e-01,9.17698e-01,9.99999e-01
4.060300500e-01,9.19255e-01,9.99999e-01,9.99999e-01,9.99998e-01,9.19256e-01,9.99999e-01
4.080602003e-01,9.20785e-01,9.99999e-01,9.99999e-01,9.99999e-01,9.20786e-01,9.99999e-01
4.101005013e-01,9.22288e-01,9.99999e-01,9.99999e-01,9.99999e-01,9.22288e-01,9.99999e-01
4.121510038e-01,9.23762e-01,9.99999e-01,9.99999e-01,9.99999e-01,9.23763e-01,9.99999e-01
4.142117588e-01,9.25208e-01,9.99999e-01,9.99999e-01,9.99996e-01,9.25211e-01,9.99999e-01
4.162828176e-01,9.26621e-01,9.99999e-01,9.99999e-01,9.99987e-01,9.26633e-01,9.99999e-01
4.183642317e-01,9.28021e-01,9.99999e-01,9.99999e-01,9.99992e-01,9.28028e-01,9.99999e-01
4.204560528e-01,9.29394e-01,9.99999e-01,9.99999e-01,9.99994e-01,9.29398e-01,9.99999e-01
4.225583331e-01,9.30742e-01,9.99999e-01,9.99999e-01,9.99997e-01,9.30743e-01,9.99999e-01
4.246711247e-01,9.32063e-01,9.99999e-01,9.99999e-01,9.99998e-01,9.32064e-01,9.99999e-01
4.267944804e-01,9.33358e-01,9.99999e-01,9.99999e-01,9.99997e-01,9.33360e-01,9.99999e-01
4.289284528e-01,9.34631e-01,9.99999e-01,9.99999e-01,9.99997e-01,9.34632e-01,9.99999e-01
4.310730950e-01,9.35881e-01,9.99999e-01,9.99999e-01,9.99998e-01,9.35881e-01,9.99999e-01
4.332284605e-01,9.37107e-01,9.99999e-01,9.99999e-01,9.99999e-01,9.37107e-01,9.99999e-01
4.353946028e-01,9.38310e-01,9.99999e-01,9.99999e-01,9.99999e-01,9.38310e-01,9.99999e-01
4.375715758e-01,9.39490e-01,9.99999e-01,9.99999e-01,9.99998e-01,9.39491e-01,9.99999e-01
4.397594337e-01,9.40640e-01,9.99999e-01,9.99999e-01,9.99988e-01,9.40650e-01,9.99999e-01
4.419582309e-01,9.41735e-01,9.99999e-01,9.99999e-01,9.99944e-01,9.41787e-01,9.99999e-01
4.441680220e-01,9.42863e-01,9.99999e-01,9.99999e-01,9.99955e-01,9.42904e-01,9.99999e-01
4.463888621e-01,9.43957e-01,9.99999e-01,9.99999e-01,9.99954e-01,9.43999e-01,9.99999e-01
4.486208064e-01,9.45048e-01,9.99999e-01,9.99999e-01,9.99971e-01,9.45075e-01,9.99999e-01
4.508639105e-01,9.46117e-01,9.99999e-01,9.99999e-01,9.99986e-01,9.46130e-01,9.99999e-01
4.531182300e-01,9.47160e-01,9.99999e-01,9.99999e-01,9.99994e-01,9.47165e-01,9.99999e-01
4.553838212e-01,9.48178e-01,9.99999e-01,9.99999e-01,9.99995e-01,9.48181e-01,9.99999e-01
4.576607403e-01,9.49177e-01,9.99999e-01,9.99999e-01,9.99997e-01,9.49178e-01,9.99999e-01
4.599490440e-01,9.50156e-01,9.99999e-01,9.99999e-01,9.99998e-01,9.50157e-01,9.99999e-01
4.622487892e-01,9.51116e-01,9.99999e-01,9.99999e-01,9.99999e-01,9.51117e-01,9.99999e-01
4.645600332e-01,9.52058e-01,9.99999e-01,9.99999e-01,9.99998e-01,9.52059e-01,9.99999e-01
4.668828333e-01,9.52970e-01,9.99999e-01,9.99999e-01,9.99986e-01,9.52983e-01,9.99999e-01
4.692172475e-01,9.53863e-01,9.99999e-01,9.99999e-01,9.99971e-01,9.53890e-01,9.99999e-01
4.715633337e-01,9.54762e-01,9.99999e-01,9.99999e-01,9.99980e-01,9.54780e-01,9.99999e-01
4.739211504e-01,9.55636e-01,9.99999e-01,9.99999e-01,9.99981e-01,9.55653e-01,9.99999e-01
4.762907561e-01,9.56501e-01,9.99999e-01,9.99999e-01,9.99990e-01,9.56509e-01,9.99999e-01
4.786722099e-01,9.57346e-01,9.99999e-01,9.99999e-01,9.99995e-01,9.57350e-01,9.99999e-01
4.810655710e-01,9.58173e-01,9.99999e-01,9.99999e-01,9.99998e-01,9.58174e-01,9.99999e-01
4.834708988e-01,9.58973e-01,9.99999e-01,9.99999e-01,9.99988e-01,9.58983e-01,9.99999e-01
4.858882533e-01,9.59758e-01,9.99999e-01,9.99999e-01,9.99979e-01,9.59777e-01,9.99999e-01
4.883176946e-01,9.60540e-01,9.99999e-01,9.99999e-01,9.99982e-01,9.60556e-01,9.99999e-01
4.907592831e-01,9.61305e-01,9.99999e-01,9.99999e-01,9.99984e-01,9.61320e-01,9.99999e-01
4.932130795e-01,9.62058e-01,9.99999e-01,9.99999e-01,9.99988e-01,9.62069e-01,9.99999e-01
4.956791449e-01,9.62798e-01,9.99999e-01,9.99999e-01,9.99993e-01,9.62804e-01,9.99999e-01
4.981575406e-01,9.63498e-01,9.99999e-01,9.99999e-01,9.99971e-01,9.63525e-01,9.99999e-01
5.006483283e-01,9.64161e-01,9.99999e-01,9.99999e-01,9.99925e-01,9.64232e-01,9.99999e-01
5.031515699e-01,9.64561e-01,9.99999e-01,9.99999e-01,9.99624e-01,9.64926e-01,9.99995e-01
5.056673278e-01,9.65412e-01,9.99999e-01,9.99999e-01,9.99801e-01,9.65607e-01,9.99994e-01
5.081956644e-01,9.66031e-01,9.99999e-01,9.99999e-01,9.99749e-01,9.66275e-01,9.99996e-01
5.107366428e-01,9.66766e-01,9.99999e-01,9.99999e-01,9.99830e-01,9.66930e-01,9.99998e-01
5.132903260e-01,9.67479e-01,9.99999e-01,9.99999e-01,9.99902e-01,9.67572e-01,9.99999e-01
5.158567776e-01,9.68163e-01,9.99999e-01,9.99999e-01,9.99958e-01,9.68203e-01,9.99999e-01
5.184360615e-01,9.68805e-01,9.99999e-01,9.99999e-01,9.99983e-01,9.68821e-01,9.99999e-01
5.210282418e-01,9.69421e-01,9.99999e-01,9.99999e-01,9.99993e-01,9.69427e-01,9.99999e-01
5.236333830e-01,9.69998e-01,9.99999e-01,9.99999e-01,9.99975e-01,9.70022e-01,9.99999e-01
5.262515499e-01,9.70590e-01,9.99999e-01,9.99999e-01,9.99984e-01,9.70605e-01,9.99999e-01
5.288828077e-01,9.71164e-01,9.99999e-01,9.99999e-01,9.99985e-01,9.71177e-01,9.99999e-01
5.315272217e-01,9.71726e-01,9.99999e-01,9.99999e-01,9.99987e-01,9.71738e-01,9.99999e-01
5.341848578e-01,9.72281e-01,9.99999e-01,9.99999e-01,9.99991e-01,9.72289e-01,9.99999e-01
5.368557821e-01,9.72801e-01,9.99999e-01,9.99999e-01,9.99971e-01,9.72829e-01,9.99999e-01
5.395400610e-01,9.73258e-01,9.99999e-01,9.99999e-01,9.99897e-01,9.73358e-01,9.99998e-01
5.422377613e-01,9.73746e-01,9.99999e-01,9.99999e-01,9.99866e-01,9.73877e-01,9.99997e-01
5.449489501e-01,9.74264e-01,9.99999e-01,9.99999e-01,9.99876e-01,9.74387e-01,9.99997e-01
5.476736949e-01,9.74778e-01,9.99999e-01,9.99999e-01,9.99889e-01,9.74886e-01,9.99998e-01
5.504120634e-01,9.75298e-01,9.99999e-01,9.99999e-01,9.99920e-01,9.75376e-01,9.99999e-01
5.531641237e-01,9.75818e-01,9.99999e-01,9.99999e-01,9.99959e-01,9.75857e-01,9.99999e-01
5.559299443e-01,9.76309e-01,9.99999e-01,9.99999e-01,9.99980e-01,9.76328e-01,9.99999e-01
5.587095940e-01,9.76778e-01,9.99999e-01,9.99999e-01,9.99987e-01,9.76790e-01,9.99999e-01
5.615031420e-01,9.77230e-01,9.99999e-01,9.99999e-01,9.99986e-01,9.77243e-01,9.99999e-01
5.643106577e-01,9.77673e-01,9.99999e-01,9.99999e-01,9.99984e-01,9.77687e-01,9.99999e-01
5.671322110e-01,9.77942e-01,9.99999e-01,9.99999e-01,9.99816e-01,9.78123e-01,9.99997e-01
5.699678720e-01,9.78352e-01,9.99999e-01,9.99999e-01,9.99801e-01,9.78551e-01,9.99994e-01
5.728177114e-01,9.78765e-01,9.99999e-01,9.99999e-01,9.99794e-01,9.78970e-01,9.99995e-01
5.756818000e-01,9.79194e-01,9.99999e-01,9.99999e-01,9.99811e-01,9.79381e-01,9.99996e-01
5.785602090e-01,9.79622e-01,9.99999e-01,9.99999e-01,9.99835e-01,9.79784e-01,9.99998e-01
5.814530100e-01,9.80017e-01,9.99999e-01,9.99999e-01,9.99834e-01,9.80179e-01,9.99999e-01
5.843602750e-01,9.80374e-01,9.99999e-01,9.99999e-01,9.99803e-01,9.80567e-01,9.99998e-01
5.872820764e-01,9.79278e-01,9.99999e-01,9.99999e-01,9.98309e-01,9.80947e-01,9.99987e-01
5.902184868e-01,9.79270e-01,9.99999e-01,9.99999e-01,9.97942e-01,9.81320e-01,9.99967e-01
5.931695792e-01,9.80230e-01,9.99999e-01,9.99999e-01,9.98548e-01,9.81686e-01,9.99967e-01
5.961354271e-01,9.80461e-01,9.99999e-01,9.99999e-01,9.98407e-01,9.82044e-01,9.99980e-01
5.991161043e-01,9.81249e-01,9.99999e-01,9.99999e-01,9.98837e-01,9.82396e-01,9.99993e-01
6.021116848e-01,9.82091e-01,9.99999e-01,9.99999e-01,9.99339e-01,9.82740e-01,9.99998e-01
6.051222432e-01,9.82750e-01,9.99999e-01,9.99999e-01,9.99665e-01,9.83078e-01,9.99999e-01
6.081478544e-01,9.83268e-01,9.99999e-01,9.99999e-01,9.99855e-01,9.83410e-01,9.99999e-01
6.111885937e-01,9.83675e-01,9.99999e-01,9.99999e-01,9.99938e-01,9.83735e-01,9.99999e-01
6.142445367e-01,9.84027e-01,9.99999e-01,9.99999e-01,9.99972e-01,9.84053e-01,9.99999e-01
6.173157594e-01,9.84351e-01,9.99999e-01,9.99999e-01,9.99984e-01,9.84366e-01,9.99999e-01
6.204023382e-01,9.84660e-01,9.99999e-01,9.99999e-01,9.99986e-01,9.84672e-01,9.99999e-01
6.235043498e-01,9.84918e-01,9.99999e-01,9.99999e-01,9.99944e-01,9.84973e-01,9.99999e-01
6.266218716e-01,9.84974e-01,9.99999e-01,9.99999e-01,9.99704e-01,9.85267e-01,9.99997e-01
6.297549810e-01,9.85445e-01,9.99999e-01,9.99999e-01,9.99891e-01,9.85556e-01,9.99995e-01
6.329037559e-01,9.85625e-01,9.99999e-01,9.99999e-01,9.99785e-01,9.85839e-01,9.99996e-01
6.360682746e-01,9.85936e-01,9.99999e-01,9.99999e-01,9.99817e-01,9.86117e-01,9.99997e-01
6.392486160e-01,9.86156e-01,9.99999e-01,9.99999e-01,9.99763e-01,9.86390e-01,9.99998e-01
6.424448591e-01,9.86345e-01,9.99999e-01,9.99999e-01,9.99684e-01,9.86657e-01,9.99998e-01
6.456570834e-01,9.85467e-01,9.99999e-01,9.99999e-01,9.98536e-01,9.86918e-01,9.99991e-01
6.488853688e-01,9.86089e-01,9.99999e-01,9.99999e-01,9.98921e-01,9.87175e-01,9.99976e-01
6.521297956e-01,9.86323e-01,9.99999e-01,9.99999e-01,9.98900e-01,9.87427e-01,9.99980e-01
6.553904446e-01,9.86587e-01,9.99999e-01,9.99999e-01,9.98914e-01,9.87674e-01,9.99985e-01
6.586673968e-01,9.86986e-01,9.99999e-01,9.99999e-01,9.99063e-01,9.87916e-01,9.99994e-01
6.619607338e-01,9.87617e-01,9.99999e-01,9.99999e-01,9.99458e-01,9.88153e-01,9.99998e-01
6.652705375e-01,9.88075e-01,9.99999e-01,9.99999e-01,9.99685e-01,9.88385e-01,9.99998e-01
6.685968902e-01,9.88470e-01,9.99999e-01,9.99999e-01,9.99853e-01,9.88614e-01,9.99999e-01
6.719398746e-01,9.88770e-01,9.99999e-01,9.99999e-01,9.99931e-01,9.88837e-01,9.99999e-01
6.752995740e-01,9.89020e-01,9.99999e-01,9.99999e-01,9.99963e-01,9.89056e-01,9.99999e-01
6.786760719e-01,9.89219e-01,9.99999e-01,9.99999e-01,9.99947e-01,9.89271e-01,9.99999e-01
6.820694522e-01,9.89393e-01,9.99999e-01,9.99999e-01,9.99909e-01,9.89482e-01,9.99999e-01
6.854797995e-01,9.89573e-01,9.99999e-01,9.99999e-01,9.99883e-01,9.89689e-01,9.99998e-01
6.889071985e-01,9.89613e-01,9.99999e-01,9.99999e-01,9.99720e-01,9.89891e-01,9.99996e-01
6.923517345e-01,9.85533e-01,9.99999e-01,9.99999e-01,9.95418e-01,9.90090e-01,9.99977e-01
6.958134932e-01,9.87849e-01,9.99999e-01,9.99999e-01,9.97589e-01,9.90285e-01,9.99949e-01
6.992925606e-01,9.88190e-01,9.99999e-01,9.99999e-01,9.97735e-01,9.90476e-01,9.99955e-01
7.027890234e-01,9.87849e-01,9.99999e-01,9.99999e-01,9.97192e-01,9.90663e-01,9.99965e-01
7.063029686e-01,9.88493e-01,9.99999e-01,9.99999e-01,9.97640e-01,9.90847e-01,9.99982e-01
7.098344834e-01,9.88774e-01,9.99999e-01,9.99999e-01,9.97736e-01,9.91027e-01,9.99989e-01
7.133836558e-01,9.88213e-01,9.99999e-01,9.99999e-01,9.97002e-01,9.91203e-01,9.99979e-01
7.169505741e-01,9.67375e-01,9.99999e-01,9.99999e-01,9.75940e-01,9.91376e-01,9.99845e-01
7.205353270e-01,9.79436e-01,9.99999e-01,9.99999e-01,9.88055e-01,9.91546e-01,9.99727e-01
7.241380036e-01,9.76593e-01,9.99999e-01,9.99999e-01,9.84986e-01,9.91712e-01,9.99764e-01
7.277586936e-01,9.78232e-01,9.99999e-01,9.99999e-01,9.86434e-01,9.91875e-01,9.99807e-01
7.313974871e-01,9.77609e-01,9.99999e-01,9.99999e-01,9.85546e-01,9.92035e-01,9.99909e-01
7.350544745e-01,9.84319e-01,9.99999e-01,9.99999e-01,9.92095e-01,9.92191e-01,9.99968e-01
7.387297469e-01,9.86556e-01,9.99999e-01,9.99999e-01,9.94180e-01,9.92345e-01,9.99985e-01
7.424233956e-01,9.89662e-01,9.99999e-01,9.99999e-01,9.97146e-01,9.92496e-01,9.99996e-01
7.461355126e-01,9.90928e-01,9.99999e-01,9.99999e-01,9.98271e-01,9.92643e-01,9.99999e-01
7.498661902e-01,9.91988e-01,9.99999e-01,9.99999e-01,9.99193e-01,9.92788e-01,9.99999e-01
7.536155211e-01,9.92538e-01,9.99999e-01,9.99999e-01,9.99605e-01,9.92930e-01,9.99999e-01
7.573835987e-01,9.92868e-01,9.99999e-01,9.99999e-01,9.99796e-01,9.93069e-01,9.99999e-01
7.611705167e-01,9.93080e-01,9.99999e-01,9.99999e-01,9.99873e-01,9.93206e-01,9.99999e-01
7.649763693e-01,9.93261e-01,9.99999e-01,9.99999e-01,9.99920e-01,9.93339e-01,9.99999e-01
7.688012511e-01,9.93416e-01,9.99999e-01,9.99999e-01,9.99944e-01,9.93470e-01,9.99999e-01
7.726452574e-01,9.93554e-01,9.99999e-01,9.99999e-01,9.99954e-01,9.93599e-01,9.99999e-01
7.765084837e-01,9.93661e-01,9.99999e-01,9.99999e-01,9.99935e-01,9.93725e-01,9.99999e-01
7.803910261e-01,9.93574e-01,9.99999e-01,9.99999e-01,9.99723e-01,9.93849e-01,9.99999e-01
7.842929812e-01,9.93009e-01,9.99999e-01,9.99999e-01,9.99034e-01,9.93970e-01,9.99997e-01
7.882144461e-01,9.92091e-01,9.99999e-01,9.99999e-01,9.98002e-01,9.94088e-01,9.99987e-01
7.921555184e-01,9.93089e-01,9.99999e-01,9.99999e-01,9.98901e-01,9.94205e-01,9.99975e-01
7.961162960e-01,9.92378e-01,9.99999e-01,9.99999e-01,9.98069e-01,9.94319e-01,9.99976e-01
8.000968774e-01,9.92185e-01,9.99999e-01,9.99999e-01,9.97764e-01,9.94431e-01,9.99975e-01
8.040973618e-01,9.92300e-01,9.99999e-01,9.99999e-01,9.97765e-01,9.94541e-01,9.99980e-01
8.081178486e-01,9.89639e-01,9.99999e-01,9.99999e-01,9.94981e-01,9.94648e-01,9.99981e-01
8.121584379e-01,9.73957e-01,9.99999e-01,9.99999e-01,9.79162e-01,9.94753e-01,9.99929e-01
8.162192301e-01,9.69883e-01,9.99999e-01,9.99999e-01,9.75154e-01,9.94857e-01,9.99734e-01
8.203003262e-01,9.82315e-01,9.99999e-01,9.99999e-01,9.87599e-01,9.94958e-01,9.99689e-01
8.244018279e-01,9.77327e-01,9.99999e-01,9.99999e-01,9.82423e-01,9.95057e-01,9.99752e-01
8.285238370e-01,9.80215e-01,9.99999e-01,9.99999e-01,9.85178e-01,9.95155e-01,9.99805e-01
8.326664562e-01,9.80220e-01,9.99999e-01,9.99999e-01,9.84976e-01,9.95250e-01,9.99919e-01
8.368297885e-01,9.84633e-01,9.99999e-01,9.99999e-01,9.89256e-01,9.95344e-01,9.99981e-01
8.410139374e-01,9.89062e-01,9.99999e-01,9.99999e-01,9.93606e-01,9.95436e-01,9.99988e-01
8.452190071e-01,9.92394e-01,9.99999e-01,9.99999e-01,9.96860e-01,9.95526e-01,9.99993e-01
8.494451021e-01,9.93799e-01,9.99999e-01,9.99999e-01,9.98181e-01,9.95614e-01,9.99994e-01
8.536923276e-01,9.94624e-01,9.99999e-01,9.99999e-01,9.98922e-01,9.95700e-01,9.99996e-01
8.579607893e-01,9.95125e-01,9.99999e-01,9.99999e-01,9.99337e-01,9.95785e-01,9.99998e-01
8.622505932e-01,9.95448e-01,9.99999e-01,9.99999e-01,9.99578e-01,9.95868e-01,9.99999e-01
8.665618462e-01,9.95690e-01,9.99999e-01,9.99999e-01,9.99739e-01,9.95949e-01,9.99999e-01
8.708946554e-01,9.95733e-01,9.99999e-01,9.99999e-01,9.99702e-01,9.96029e-01,9.99999e-01
8.752491287e-01,9.95711e-01,9.99999e-01,9.99999e-01,9.99601e-01,9.96107e-01,9.99999e-01
8.796253743e-01,9.95635e-01,9.99999e-01,9.99999e-01,9.99449e-01,9.96184e-01,9.99998e-01
8.840235012e-01,9.95629e-01,9.99999e-01,9.99999e-01,9.99370e-01,9.96259e-01,9.99995e-01
8.884436187e-01,9.94055e-01,9.99999e-01,9.99999e-01,9.97723e-01,9.96333e-01,9.99988e-01
8.928858368e-01,9.72457e-01,9.99999e-01,9.99999e-01,9.76025e-01,9.96405e-01,9.99936e-01
8.973502660e-01,9.54010e-01,9.99999e-01,9.99999e-01,9.57691e-01,9.96476e-01,9.99677e-01
9.018370173e-01,9.74214e-01,9.99999e-01,9.99999e-01,9.78086e-01,9.96546e-01,9.99492e-01
9.063462024e-01,9.77122e-01,9.99999e-01,9.99999e-01,9.80877e-01,9.96614e-01,9.99554e-01
9.108779334e-01,9.66576e-01,9.99999e-01,9.99999e-01,9.70243e-01,9.96681e-01,9.99537e-01
9.154323231e-01,9.62750e-01,9.99999e-01,9.99999e-01,9.66261e-01,9.96746e-01,9.99617e-01
9.200094847e-01,9.70107e-01,9.99999e-01,9.99999e-01,9.73419e-01,9.96810e-01,9.99785e-01
9.246095321e-01,9.55530e-01,9.99999e-01,9.99999e-01,9.58762e-01,9.96873e-01,9.99752e-01
9.292325798e-01,7.47919e-01,9.99999e-01,9.99999e-01,7.50940e-01,9.96935e-01,9.99038e-01
9.338787427e-01,6.84037e-01,9.99999e-01,9.99999e-01,6.88830e-01,9.96995e-01,9.96032e-01
9.385481364e-01,8.54187e-01,9.99999e-01,9.99999e-01,8.60770e-01,9.97054e-01,9.95282e-01
9.432408771e-01,8.04836e-01,9.99999e-01,9.99999e-01,8.10465e-01,9.97112e-01,9.95928e-01
9.479570815e-01,7.41385e-01,9.99999e-01,9.99999e-01,7.45961e-01,9.97169e-01,9.96685e-01
9.526968669e-01,8.00346e-01,9.99999e-01,9.99999e-01,8.04198e-01,9.97225e-01,9.97976e-01
9.574603512e-01,8.18645e-01,9.99999e-01,9.99999e-01,8.21722e-01,9.97280e-01,9.98971e-01
9.622476530e-01,8.49854e-01,9.99999e-01,9.99999e-01,8.52732e-01,9.97334e-01,9.99288e-01
9.670588912e-01,9.09708e-01,9.99999e-01,9.99999e-01,9.12535e-01,9.97386e-01,9.99513e-01
9.718941857e-01,9.41968e-01,9.99999e-01,9.99999e-01,9.44725e-01,9.97438e-01,9.99641e-01
9.767536566e-01,9.51271e-01,9.99999e-01,9.99999e-01,9.53926e-01,9.97488e-01,9.99725e-01
9.816374249e-01,9.63177e-01,9.99999e-01,9.99999e-01,9.65645e-01,9.97538e-01,9.99904e-01
9.865456120e-01,9.76031e-01,9.99999e-01,9.99999e-01,9.78411e-01,9.97586e-01,9.99979e-01
9.914783401e-01,9.84276e-01,9.99999e-01,9.99999e-01,9.86615e-01,9.97634e-01,9.99994e-01
9.964357318e-01,9.90384e-01,9.99999e-01,9.99999e-01,9.92689e-01,9.97681e-01,9.99996e-01
1.001417910e+00,9.93345e-01,9.99999e-01,9.99999e-01,9.95612e-01,9.97726e-01,9.99994e-01
1.006425000e+00,9.95271e-01,9.99999e-01,9.99999e-01,9.97500e-01,9.97771e-01,9.99992e-01
1.011457125e+00,9.96258e-01,9.99999e-01,9.99999e-01,9.98445e-01,9.97815e-01,9.99993e-01
1.016514411e+00,9.96802e-01,9.99999e-01,9.99999e-01,9.98945e-01,9.97858e-01,9.99994e-01
1.021596983e+00,9.97058e-01,9.99999e-01,9.99999e-01,9.99159e-01,9.97900e-01,9.99994e-01
1.026704968e+00,9.97286e-01,9.99999e-01,9.99999e-01,9.99344e-01,9.97942e-01,9.99996e-01
1.031838492e+00,9.97506e-01,9.99999e-01,9.99999e-01,9.99523e-01,9.97982e-01,9.99998e-01
1.036997685e+00,9.97740e-01,9.99999e-01,9.99999e-01,9.99716e-01,9.98022e-01,9.99999e-01
1.042182673e+00,9.97726e-01,9.99999e-01,9.99999e-01,9.99663e-01,9.98061e-01,9.99999e-01
1.047393587e+00,9.97654e-01,9.99999e-01,9.99999e-01,9.99553e-01,9.98099e-01,9.99999e-01
1.052630555e+00,9.97526e-01,9.99999e-01,9.99999e-01,9.99387e-01,9.98137e-01,9.99999e-01
1.057893707e+00,9.97154e-01,9.99999e-01,9.99999e-01,9.98978e-01,9.98174e-01,9.99999e-01
1.063183176e+00,9.96530e-01,9.99999e-01,9.99999e-01,9.98318e-01,9.98210e-01,9.99998e-01
1.068499092e+00,9.95431e-01,9.99999e-01,9.99999e-01,9.97182e-01,9.98245e-01,9.99997e-01
1.073841587e+00,9.94987e-01,9.99999e-01,9.99999e-01,9.96704e-01,9.98280e-01,9.99995e-01
1.079210795e+00,9.94082e-01,9.99999e-01,9.99999e-01,9.95772e-01,9.98314e-01,9.99988e-01
1.084606849e+00,9.91941e-01,9.99999e-01,9.99999e-01,9.93609e-01,9.98347e-01,9.99972e-01
1.090029883e+00,9.89193e-01,9.99999e-01,9.99999e-01,9.90853e-01,9.98379e-01,9.99943e-01
1.095480033e+00,9.73591e-01,9.99999e-01,9.99999e-01,9.75239e-01,9.98411e-01,9.99897e-01
1.100957433e+00,9.36506e-01,9.99999e-01,9.99999e-01,9.38141e-01,9.98443e-01,9.99812e-01
1.106462220e+00,8.47850e-01,9.99999e-01,9.99999e-01,8.49415e-01,9.98473e-01,9.99682e-01
1.111994531e+00,7.05765e-01,9.99999e-01,9.99999e-01,7.07418e-01,9.98504e-01,9.99158e-01
1.117554504e+00,5.66662e-01,9.99999e-01,9.99999e-01,5.69221e-01,9.98533e-01,9.96964e-01
1.123142276e+00,6.49896e-01,9.99999e-01,9.99999e-01,6.55539e-01,9.98562e-01,9.92817e-01
1.128757988e+00,7.58907e-01,9.99999e-01,9.99999e-01,7.66341e-01,9.98590e-01,9.91695e-01
1.134401778e+00,5.24727e-01,9.99999e-01,9.99999e-01,5.29191e-01,9.98618e-01,9.92934e-01
1.140073787e+00,8.48948e-01,9.99999e-01,9.99999e-01,8.54928e-01,9.98645e-01,9.94350e-01
1.145774156e+00,7.13492e-01,9.99999e-01,9.99999e-01,7.18154e-01,9.98672e-01,9.94827e-01
1.151503026e+00,6.87264e-01,9.99999e-01,9.99999e-01,6.90150e-01,9.98698e-01,9.97114e-01
1.157260541e+00,7.36061e-01,9.99999e-01,9.99999e-01,7.37638e-01,9.98724e-01,9.99136e-01
1.163046844e+00,7.97684e-01,9.99999e-01,9.99999e-01,7.98878e-01,9.98749e-01,9.99754e-01
1.168862078e+00,8.55176e-01,9.99999e-01,9.99999e-01,8.56333e-01,9.98774e-01,9.99873e-01
1.174706389e+00,9.07526e-01,9.99999e-01,9.99999e-01,9.08770e-01,9.98798e-01,9.99832e-01
1.180579921e+00,9.42105e-01,9.99999e-01,9.99999e-01,9.43454e-01,9.98822e-01,9.99746e-01
1.186482820e+00,9.66339e-01,9.99999e-01,9.99999e-01,9.67706e-01,9.98845e-01,9.99740e-01
1.192415234e+00,9.79750e-01,9.99999e-01,9.99999e-01,9.81050e-01,9.98868e-01,9.99805e-01
1.198377311e+00,9.82747e-01,9.99999e-01,9.99999e-01,9.84018e-01,9.98890e-01,9.99816e-01
1.204369197e+00,9.83619e-01,9.99999e-01,9.99999e-01,9.84853e-01,9.98912e-01,9.99833e-01
1.210391043e+00,9.84365e-01,9.99999e-01,9.99999e-01,9.85515e-01,9.98933e-01,9.99898e-01
1.216442998e+00,9.86559e-01,9.99999e-01,9.99999e-01,9.87651e-01,9.98955e-01,9.99937e-01
1.222525213e+00,9.89331e-01,9.99999e-01,9.99999e-01,9.90383e-01,9.98975e-01,9.99961e-01
1.228637839e+00,9.92301e-01,9.99999e-01,9.99999e-01,9.93316e-01,9.98995e-01,9.99981e-01
