#,Wave/freq,Total,N2,O2,H2O,Rayleigh,CIA
4.000000000e-01,6.32885e-01,9.99999e-01,9.99999e-01,9.99947e-01,6.32917e-01,9.99999e-01
4.020000000e-01,6.38647e-01,9.99999e-01,9.99999e-01,9.99967e-01,6.38668e-01,9.99999e-01
4.040100000e-01,6.44340e-01,9.99999e-01,9.99999e-01,9.99985e-01,6.44349e-01,9.99999e-01
4.060300500e-01,6.49965e-01,9.99999e-01,9.99999e-01,9.99996e-01,6.49967e-01,9.99999e-01
4.080602003e-01,6.55522e-01,9.99999e-01,9.99999e-01,9.99998e-01,6.55522e-01,9.99999e-01
4.101005013e-01,6.61013e-01,9.99999e-01,9.99999e-01,9.99999e-01,6.61013e-01,9.99999e-01
4.121510038e-01,6.66440e-01,9.99999e-01,9.99999e-01,9.99997e-01,6.66441e-01,9.99999e-01
4.142117588e-01,6.71795e-01,9.99999e-01,9.99999e-01,9.99985e-01,6.71804e-01,9.99999e-01
4.162828176e-01,6.77060e-01,9.99999e-01,9.99999e-01,9.99935e-01,6.77104e-01,9.99999e-01
4.183642317e-01,6.82313e-01,9.99999e-01,9.99999e-01,9.99961e-01,6.82339e-01,9.99999e-01
4.204560528e-01,6.87494e-01,9.99999e-01,9.99999e-01,9.99976e-01,6.87510e-01,9.99999e-01
4.225583331e-01,6.92611e-01,9.99999e-01,9.99999e-01,9.99990e-01,6.92617e-01,9.99999e-01
4.246711247e-01,6.97655e-01,9.99999e-01,9.99999e-01,9.99992e-01,6.97660e-01,9.99999e-01
4.267944804e-01,7.02632e-01,9.99999e-01,9.99999e-01,9.99989e-01,7.02639e-01,9.99999e-01
4.289284528e-01,7.07548e-01,9.99999e-01,9.99999e-01,9.99991e-01,7.07554e-01,9.99999e-01
4.310730950e-01,7.12403e-01,9.99999e-01,9.99999e-01,9.99996e-01,7.12405e-01,9.99999e-01
4.332284605e-01,7.17193e-01,9.99999e-01,9.99999e-01,9.99998e-01,7.17193e-01,9.99999e-01
4.353946028e-01,7.21918e-01,9.99999e-01,9.99999e-01,9.99999e-01,7.21918e-01,9.99999e-01
4.375715758e-01,7.26575e-01,9.99999e-01,9.99999e-01,9.99993e-01,7.26579e-01,9.99999e-01
4.397594337e-01,7.31137e-01,9.99999e-01,9.99999e-01,9.99943e-01,7.31178e-01,9.99999e-01
4.419582309e-01,7.35505e-01,9.99999e-01,9.99999e-01,9.99716e-01,7.35714e-01,9.99999e-01
4.441680220e-01,7.40022e-01,9.99999e-01,9.99999e-01,9.99776e-01,7.40187e-01,9.99999e-01
4.463888621e-01,7.44427e-01,9.99999e-01,9.99999e-01,9.99768e-01,7.44599e-01,9.99999e-01
4.486208064e-01,7.48841e-01,9.99999e-01,9.99999e-01,9.99855e-01,7.48949e-01,9.99999e-01
4.508639105e-01,7.53187e-01,9.99999e-01,9.99999e-01,9.99932e-01,7.53238e-01,9.99999e-01
4.531182300e-01,7.57446e-01,9.99999e-01,9.99999e-01,9.99972e-01,7.57466e-01,9.99999e-01
4.553838212e-01,7.61620e-01,9.99999e-01,9.99999e-01,9.99981e-01,7.61633e-01,9.99999e-01
4.576607403e-01,7.65734e-01,9.99999e-01,9.99999e-01,9.99991e-01,7.65741e-01,9.99999e-01
4.599490440e-01,7.69784e-01,9.99999e-01,9.99999e-01,9.99993e-01,7.69788e-01,9.99999e-01
4.622487892e-01,7.73776e-01,9.99999e-01,9.99999e-01,9.99998e-01,7.73777e-01,9.99999e-01
4.645600332e-01,7.77704e-01,9.99999e-01,9.99999e-01,9.99995e-01,7.77707e-01,9.99999e-01
4.668828333e-01,7.81525e-01,9.99999e-01,9.99999e-01,9.99931e-01,7.81578e-01,9.99999e-01
4.692172475e-01,7.85278e-01,9.99999e-01,9.99999e-01,9.99854e-01,7.85392e-01,9.99999e-01
4.715633337e-01,7.89074e-01,9.99999e-01,9.99999e-01,9.99904e-01,7.89149e-01,9.99999e-01
4.739211504e-01,7.92777e-01,9.99999e-01,9.99999e-01,9.99908e-01,7.92849e-01,9.99999e-01
4.762907561e-01,7.96455e-01,9.99999e-01,9.99999e-01,9.99952e-01,7.96492e-01,9.99999e-01
4.786722099e-01,8.00065e-01,9.99999e-01,9.99999e-01,9.99980e-01,8.00080e-01,9.99999e-01
4.810655710e-01,8.03608e-01,9.99999e-01,9.99999e-01,9.99993e-01,8.03613e-01,9.99999e-01
4.834708988e-01,8.07046e-01,9.99999e-01,9.99999e-01,9.99944e-01,8.07091e-01,9.99999e-01
4.858882533e-01,8.10431e-01,9.99999e-01,9.99999e-01,9.99896e-01,8.10515e-01,9.99999e-01
4.883176946e-01,8.13815e-01,9.99999e-01,9.99999e-01,9.99913e-01,8.13885e-01,9.99999e-01
4.907592831e-01,8.17139e-01,9.99999e-01,9.99999e-01,9.99921e-01,8.17202e-01,9.99999e-01
4.932130795e-01,8.20422e-01,9.99999e-01,9.99999e-01,9.99944e-01,8.20467e-01,9.99999e-01
4.956791449e-01,8.23656e-01,9.99999e-01,9.99999e-01,9.99970e-01,8.23681e-01,9.99999e-01
4.981575406e-01,8.26722e-01,9.99999e-01,9.99999e-01,9.99853e-01,8.26842e-01,9.99999e-01
5.006483283e-01,8.29639e-01,9.99999e-01,9.99999e-01,9.99622e-01,8.29954e-01,9.99996e-01
5.031515699e-01,8.31402e-01,9.99999e-01,9.99999e-01,9.98084e-01,8.33015e-01,9.99979e-01
5.056673278e-01,8.35161e-01,9.99999e-01,9.99999e-01,9.98987e-01,8.36026e-01,9.99976e-01
5.081956644e-01,8.37905e-01,9.99999e-01,9.99999e-01,9.98722e-01,8.38989e-01,9.99984e-01
5.107366428e-01,8.41175e-01,9.99999e-01,9.99999e-01,9.99136e-01,8.41904e-01,9.99996e-01
5.132903260e-01,8.44353e-01,9.99999e-01,9.99999e-01,9.99506e-01,8.44770e-01,9.99999e-01
5.158567776e-01,8.47413e-01,9.99999e-01,9.99999e-01,9.99791e-01,8.47590e-01,9.99999e-01
5.184360615e-01,8.50292e-01,9.99999e-01,9.99999e-01,9.99916e-01,8.50363e-01,9.99999e-01
5.210282418e-01,8.53063e-01,9.99999e-01,9.99999e-01,9.99968e-01,8.53090e-01,9.99999e-01
5.236333830e-01,8.55664e-01,9.99999e-01,9.99999e-01,9.99874e-01,8.55771e-01,9.99998e-01
5.262515499e-01,8.58340e-01,9.99999e-01,9.99999e-01,9.99921e-01,8.58408e-01,9.99998e-01
5.288828077e-01,8.60938e-01,9.99999e-01,9.99999e-01,9.99927e-01,8.61001e-01,9.99998e-01
5.315272217e-01,8.63495e-01,9.99999e-01,9.99999e-01,9.99936e-01,8.63550e-01,9.99999e-01
5.341848578e-01,8.66020e-01,9.99999e-01,9.99999e-01,9.99958e-01,8.66056e-01,9.99999e-01
5.368557821e-01,8.68393e-01,9.99999e-01,9.99999e-01,9.99854e-01,8.68519e-01,9.99999e-01
5.395400610e-01,8.70482e-01,9.99999e-01,9.99999e-01,9.99476e-01,8.70941e-01,9.99995e-01
5.422377613e-01,8.72717e-01,9.99999e-01,9.99999e-01,9.99320e-01,8.73321e-01,9.99987e-01
5.449489501e-01,8.75098e-01,9.99999e-01,9.99999e-01,9.99369e-01,8.75661e-01,9.99986e-01
5.476736949e-01,8.77463e-01,9.99999e-01,9.99999e-01,9.99439e-01,8.77961e-01,9.99993e-01
5.504120634e-01,8.79861e-01,9.99999e-01,9.99999e-01,9.99593e-01,8.80221e-01,9.99997e-01
5.531641237e-01,8.82261e-01,9.99999e-01,9.99999e-01,9.99795e-01,8.82442e-01,9.99999e-01
5.559299443e-01,8.84537e-01,9.99999e-01,9.99999e-01,9.99900e-01,8.84624e-01,9.99999e-01
5.587095940e-01,8.86714e-01,9.99999e-01,9.99999e-01,9.99937e-01,8.86769e-01,9.99999e-01
5.615031420e-01,8.88815e-01,9.99999e-01,9.99999e-01,9.99930e-01,8.88876e-01,9.99999e-01
5.643106577e-01,8.90877e-01,9.99999e-01,9.99999e-01,9.99922e-01,8.90947e-01,9.99998e-01
5.671322110e-01,8.92133e-01,9.99999e-01,9.99999e-01,9.99057e-01,8.92981e-01,9.99991e-01
5.699678720e-01,8.94051e-01,9.99999e-01,9.99999e-01,9.98987e-01,8.94980e-01,9.99973e-01
5.728177114e-01,8.95983e-01,9.99999e-01,9.99999e-01,9.98950e-01,8.96943e-01,9.99978e-01
5.756818000e-01,8.97994e-01,9.99999e-01,9.99999e-01,9.99035e-01,8.98872e-01,9.99986e-01
5.785602090e-01,9.00007e-01,9.99999e-01,9.99999e-01,9.99158e-01,9.00767e-01,9.99995e-01
5.814530100e-01,9.01866e-01,9.99999e-01,9.99999e-01,9.99155e-01,9.02629e-01,9.99997e-01
5.843602750e-01,9.03545e-01,9.99999e-01,9.99999e-01,9.98996e-01,9.04457e-01,9.99993e-01
5.872820764e-01,8.98390e-01,9.99999e-01,9.99999e-01,9.91383e-01,9.06253e-01,9.99938e-01
5.902184868e-01,8.98358e-01,9.99999e-01,9.99999e-01,9.89526e-01,9.08017e-01,9.99833e-01
5.931695792e-01,9.02876e-01,9.99999e-01,9.99999e-01,9.92603e-01,9.09749e-01,9.99839e-01
5.961354271e-01,9.03971e-01,9.99999e-01,9.99999e-01,9.91884e-01,9.11450e-01,9.99907e-01
5.991161043e-01,9.07683e-01,9.99999e-01,9.99999e-01,9.94072e-01,9.13121e-01,9.99971e-01
6.021116848e-01,9.11677e-01,9.99999e-01,9.99999e-01,9.96631e-01,9.14762e-01,9.99996e-01
6.051222432e-01,9.14810e-01,9.99999e-01,9.99999e-01,9.98293e-01,9.16373e-01,9.99999e-01
6.081478544e-01,9.17280e-01,9.99999e-01,9.99999e-01,9.99263e-01,9.17955e-01,9.99999e-01
6.111885937e-01,9.19222e-01,9.99999e-01,9.99999e-01,9.99688e-01,9.19508e-01,9.99999e-01
6.142445367e-01,9.20906e-01,9.99999e-01,9.99999e-01,9.99860e-01,9.21034e-01,9.99999e-01
6.173157594e-01,9.22461e-01,9.99999e-01,9.99999e-01,9.99922e-01,9.22532e-01,9.99999e-01
6.204023382e-01,9.23942e-01,9.99999e-01,9.99999e-01,9.99934e-01,9.24002e-01,9.99999e-01
6.235043498e-01,9.25183e-01,9.99999e-01,9.99999e-01,9.99715e-01,9.25446e-01,9.99998e-01
6.266218716e-01,9.25453e-01,9.99999e-01,9.99999e-01,9.98489e-01,9.26863e-01,9.99988e-01
6.297549810e-01,9.27721e-01,9.99999e-01,9.99999e-01,9.99445e-01,9.28255e-01,9.99978e-01
6.329037559e-01,9.28586e-01,9.99999e-01,9.99999e-01,9.98903e-01,9.29621e-01,9.99982e-01
6.360682746e-01,9.30085e-01,9.99999e-01,9.99999e-01,9.99067e-01,9.30962e-01,9.99989e-01
6.392486160e-01,9.31147e-01,9.99999e-01,9.99999e-01,9.98790e-01,9.32278e-01,9.99995e-01
6.424448591e-01,9.32059e-01,9.99999e-01,9.99999e-01,9.98387e-01,9.33570e-01,9.99992e-01
6.456570834e-01,9.27818e-01,9.99999e-01,9.99999e-01,9.92530e-01,9.34839e-01,9.99957e-01
6.488853688e-01,9.30833e-01,9.99999e-01,9.99999e-01,9.94506e-01,9.36084e-01,9.99883e-01
6.521297956e-01,9.31967e-01,9.99999e-01,9.99999e-01,9.94400e-01,9.37306e-01,9.99901e-01
6.553904446e-01,9.33236e-01,9.99999e-01,9.99999e-01,9.94457e-01,9.38505e-01,9.99926e-01
6.586673968e-01,9.35173e-01,9.99999e-01,9.99999e-01,9.95224e-01,9.39682e-01,9.99975e-01
6.619607338e-01,9.38233e-01,9.99999e-01,9.99999e-01,9.97236e-01,9.40838e-01,9.99994e-01
6.652705375e-01,9.40461e-01,9.99999e-01,9.99999e-01,9.98398e-01,9.41972e-01,9.99996e-01
6.685968902e-01,9.42383e-01,9.99999e-01,9.99999e-01,9.99255e-01,9.43085e-01,9.99999e-01
6.719398746e-01,9.43851e-01,9.99999e-01,9.99999e-01,9.99654e-01,9.44177e-01,9.99999e-01
6.752995740e-01,9.45073e-01,9.99999e-01,9.99999e-01,9.99812e-01,9.45249e-01,9.99999e-01
6.786760719e-01,9.46046e-01,9.99999e-01,9.99999e-01,9.99730e-01,9.46301e-01,9.99999e-01
6.820694522e-01,9.46894e-01,9.99999e-01,9.99999e-01,9.99538e-01,9.47333e-01,9.99997e-01
6.854797995e-01,9.47778e-01,9.99999e-01,9.99999e-01,9.99405e-01,9.48346e-01,9.99994e-01
6.889071985e-01,9.47970e-01,9.99999e-01,9.99999e-01,9.98569e-01,9.49340e-01,9.99986e-01
6.923517345e-01,9.28168e-01,9.99999e-01,9.99999e-01,9.76804e-01,9.50315e-01,9.99886e-01
6.958134932e-01,9.39421e-01,9.99999e-01,9.99999e-01,9.87792e-01,9.51272e-01,9.99745e-01
6.992925606e-01,9.41021e-01,9.99999e-01,9.99999e-01,9.88468e-01,9.52211e-01,9.99775e-01
7.027890234e-01,9.39379e-01,9.99999e-01,9.99999e-01,9.85738e-01,9.53133e-01,9.99827e-01
7.063029686e-01,9.42506e-01,9.99999e-01,9.99999e-01,9.87997e-01,9.54037e-01,9.99914e-01
7.098344834e-01,9.43876e-01,9.99999e-01,9.99999e-01,9.88479e-01,9.54924e-01,9.99949e-01
7.133836558e-01,9.41130e-01,9.99999e-01,9.99999e-01,9.84756e-01,9.55794e-01,9.99899e-01
7.169505741e-01,8.45249e-01,9.99999e-01,9.99999e-01,8.84249e-01,9.56648e-01,9.99210e-01
7.205353270e-01,8.99828e-01,9.99999e-01,9.99999e-01,9.41091e-01,9.57486e-01,9.98607e-01
7.241380036e-01,8.86392e-01,9.99999e-01,9.99999e-01,9.26068e-01,9.58308e-01,9.98796e-01
7.277586936e-01,8.94003e-01,9.99999e-01,9.99999e-01,9.33029e-01,9.59115e-01,9.99016e-01
7.313974871e-01,8.90999e-01,9.99999e-01,9.99999e-01,9.28642e-01,9.59906e-01,9.99538e-01
7.350544745e-01,9.22454e-01,9.99999e-01,9.99999e-01,9.60361e-01,9.60682e-01,9.99839e-01
7.387297469e-01,9.33151e-01,9.99999e-01,9.99999e-01,9.70644e-01,9.61443e-01,9.99926e-01
7.424233956e-01,9.48240e-01,9.99999e-01,9.99999e-01,9.85514e-01,9.62190e-01,9.99985e-01
7.461355126e-01,9.54449e-01,9.99999e-01,9.99999e-01,9.91201e-01,9.62923e-01,9.99997e-01
7.498661902e-01,9.59682e-01,9.99999e-01,9.99999e-01,9.95890e-01,9.63642e-01,9.99998e-01
7.536155211e-01,9.62404e-01,9.99999e-01,9.99999e-01,9.97984e-01,9.64347e-01,9.99998e-01
7.573835987e-01,9.64038e-01,9.99999e-01,9.99999e-01,9.98961e-01,9.65039e-01,9.99999e-01
7.611705167e-01,9.65095e-01,9.99999e-01,9.99999e-01,9.99354e-01,9.65718e-01,9.99999e-01
7.649763693e-01,9.65993e-01,9.99999e-01,9.99999e-01,9.99595e-01,9.66383e-01,9.99999e-01
7.688012511e-01,9.66764e-01,9.99999e-01,9.99999e-01,9.99718e-01,9.67036e-01,9.99999e-01
7.726452574e-01,9.67453e-01,9.99999e-01,9.99999e-01,9.99768e-01,9.67677e-01,9.99999e-01
7.765084837e-01,9.67987e-01,9.99999e-01,9.99999e-01,9.99671e-01,9.68305e-01,9.99999e-01
7.803910261e-01,9.67548e-01,9.99999e-01,9.99999e-01,9.98584e-01,9.68921e-01,9.99998e-01
7.842929812e-01,9.64734e-01,9.99999e-01,9.99999e-01,9.95066e-01,9.69525e-01,9.99990e-01
7.882144461e-01,9.60191e-01,9.99999e-01,9.99999e-01,9.89827e-01,9.70118e-01,9.99937e-01
7.921555184e-01,9.65149e-01,9.99999e-01,9.99999e-01,9.94401e-01,9.70700e-01,9.99878e-01
7.961162960e-01,9.61606e-01,9.99999e-01,9.99999e-01,9.90163e-01,9.71270e-01,9.99883e-01
8.000968774e-01,9.60650e-01,9.99999e-01,9.99999e-01,9.88617e-01,9.71829e-01,9.99876e-01
8.040973618e-01,9.61220e-01,9.99999e-01,9.99999e-01,9.88621e-01,9.72378e-01,9.99901e-01
8.081178486e-01,9.48132e-01,9.99999e-01,9.99999e-01,9.74614e-01,9.72916e-01,9.99907e-01
8.121584379e-01,8.74429e-01,9.99999e-01,9.99999e-01,8.98607e-01,9.73444e-01,9.99639e-01
8.162192301e-01,8.56453e-01,9.99999e-01,9.99999e-01,8.80542e-01,9.73962e-01,9.98644e-01
8.203003262e-01,9.14173e-01,9.99999e-01,9.99999e-01,9.39614e-01,9.74469e-01,9.98413e-01
8.244018279e-01,8.92288e-01,9.99999e-01,9.99999e-01,9.16354e-01,9.74967e-01,9.98736e-01
8.285238370e-01,9.03221e-01,9.99999e-01,9.99999e-01,9.26866e-01,9.75456e-01,9.99007e-01
8.326664562e-01,9.03408e-01,9.99999e-01,9.99999e-01,9.26064e-01,9.75934e-01,9.99589e-01
8.368297885e-01,9.24016e-01,9.99999e-01,9.99999e-01,9.46434e-01,9.76404e-01,9.99905e-01
8.410139374e-01,9.45356e-01,9.99999e-01,9.99999e-01,9.67797e-01,9.76865e-01,9.99944e-01
8.452190071e-01,9.61714e-01,9.99999e-01,9.99999e-01,9.84067e-01,9.77317e-01,9.99966e-01
8.494451021e-01,9.68678e-01,9.99999e-01,9.99999e-01,9.90737e-01,9.77760e-01,9.99973e-01
8.536923276e-01,9.72806e-01,9.99999e-01,9.99999e-01,9.94506e-01,9.78194e-01,9.99983e-01
8.579607893e-01,9.75307e-01,9.99999e-01,9.99999e-01,9.96617e-01,9.78620e-01,9.99995e-01
8.622505932e-01,9.76931e-01,9.99999e-01,9.99999e-01,9.97848e-01,9.79038e-01,9.99998e-01
8.665618462e-01,9.78145e-01,9.99999e-01,9.99999e-01,9.98670e-01,9.79448e-01,9.99999e-01
8.708946554e-01,9.78359e-01,9.99999e-01,9.99999e-01,9.98478e-01,9.79849e-01,9.99998e-01
8.752491287e-01,9.78247e-01,9.99999e-01,9.99999e-01,9.97964e-01,9.80244e-01,9.99997e-01
8.796253743e-01,9.77865e-01,9.99999e-01,9.99999e-01,9.97185e-01,9.80630e-01,9.99993e-01
8.840235012e-01,9.77836e-01,9.99999e-01,9.99999e-01,9.96785e-01,9.81009e-01,9.99979e-01
8.884436187e-01,9.69954e-01,9.99999e-01,9.99999e-01,9.88411e-01,9.81380e-01,9.99943e-01
8.928858368e-01,8.68125e-01,9.99999e-01,9.99999e-01,8.84551e-01,9.81745e-01,9.99677e-01
8.973502660e-01,7.89116e-01,9.99999e-01,9.99999e-01,8.04822e-01,9.82102e-01,9.98351e-01
9.018370173e-01,8.76881e-01,9.99999e-01,9.99999e-01,8.94860e-01,9.82453e-01,9.97409e-01
9.063462024e-01,8.89510e-01,9.99999e-01,9.99999e-01,9.07144e-01,9.82796e-01,9.97724e-01
9.108779334e-01,8.42356e-01,9.99999e-01,9.99999e-01,8.58837e-01,9.83133e-01,9.97635e-01
9.154323231e-01,8.25300e-01,9.99999e-01,9.99999e-01,8.40820e-01,9.83463e-01,9.98044e-01
9.200094847e-01,8.58078e-01,9.99999e-01,9.99999e-01,8.73174e-01,9.83787e-01,9.98905e-01
9.246095321e-01,8.00036e-01,9.99999e-01,9.99999e-01,8.13984e-01,9.84105e-01,9.98738e-01
9.292325798e-01,2.60665e-01,9.99999e-01,9.99999e-01,2.66098e-01,9.84417e-01,9.95090e-01
9.338787427e-01,1.74442e-01,9.99999e-01,9.99999e-01,1.80789e-01,9.84722e-01,9.79862e-01
9.385481364e-01,4.79417e-01,9.99999e-01,9.99999e-01,4.98626e-01,9.85021e-01,9.76095e-01
9.432408771e-01,3.78695e-01,9.99999e-01,9.99999e-01,3.92445e-01,9.85315e-01,9.79343e-01
9.479570815e-01,2.67506e-01,9.99999e-01,9.99999e-01,2.76064e-01,9.85603e-01,9.83155e-01
9.526968669e-01,3.61335e-01,9.99999e-01,9.99999e-01,3.70325e-01,9.85885e-01,9.89691e-01
9.574603512e-01,3.82285e-01,9.99999e-01,9.99999e-01,3.89694e-01,9.86162e-01,9.94750e-01
9.622476530e-01,4.51513e-01,9.99999e-01,9.99999e-01,4.59391e-01,9.86434e-01,9.96366e-01
9.670588912e-01,6.26771e-01,9.99999e-01,9.99999e-01,6.36802e-01,9.86700e-01,9.97513e-01
9.718941857e-01,7.39275e-01,9.99999e-01,9.99999e-01,7.50415e-01,9.86961e-01,9.98169e-01
9.767536566e-01,7.76571e-01,9.99999e-01,9.99999e-01,7.87728e-01,9.87217e-01,9.98600e-01
9.816374249e-01,8.26409e-01,9.99999e-01,9.99999e-01,8.37302e-01,9.87468e-01,9.99515e-01
9.865456120e-01,8.83694e-01,9.99999e-01,9.99999e-01,8.94776e-01,9.87714e-01,9.99898e-01
9.914783401e-01,9.22238e-01,9.99999e-01,9.99999e-01,9.33507e-01,9.87955e-01,9.99971e-01
9.964357318e-01,9.51828e-01,9.99999e-01,9.99999e-01,9.63217e-01,9.88191e-01,9.99983e-01
1.001417910e+00,9.66439e-01,9.99999e-01,9.99999e-01,9.77782e-01,9.88423e-01,9.99974e-01
1.006425000e+00,9.76043e-01,9.99999e-01,9.99999e-01,9.87282e-01,9.88650e-01,9.99963e-01
1.011457125e+00,9.81011e-01,9.99999e-01,9.99999e-01,9.92081e-01,9.88873e-01,9.99966e-01
1.016514411e+00,9.83749e-01,9.99999e-01,9.99999e-01,9.94620e-01,9.89092e-01,9.99976e-01
1.021596983e+00,9.85042e-01,9.99999e-01,9.99999e-01,9.95712e-01,9.89306e-01,9.99976e-01
1.026704968e+00,9.86192e-01,9.99999e-01,9.99999e-01,9.96655e-01,9.89516e-01,9.99983e-01
1.031838492e+00,9.87310e-01,9.99999e-01,9.99999e-01,9.97566e-01,9.89722e-01,9.99995e-01
1.036997685e+00,9.88494e-01,9.99999e-01,9.99999e-01,9.98555e-01,9.89924e-01,9.99998e-01
1.042182673e+00,9.88419e-01,9.99999e-01,9.99999e-01,9.98279e-01,9.90122e-01,9.99999e-01
1.047393587e+00,9.88056e-01,9.99999e-01,9.99999e-01,9.97717e-01,9.90316e-01,9.99999e-01
1.052630555e+00,9.87407e-01,9.99999e-01,9.99999e-01,9.96870e-01,9.90507e-01,9.99998e-01
1.057893707e+00,9.85524e-01,9.99999e-01,9.99999e-01,9.94783e-01,9.90693e-01,9.99997e-01
1.063183176e+00,9.82377e-01,9.99999e-01,9.99999e-01,9.91426e-01,9.90876e-01,9.99995e-01
1.068499092e+00,9.76852e-01,9.99999e-01,9.99999e-01,9.85676e-01,9.91056e-01,9.99989e-01
1.073841587e+00,9.74637e-01,9.99999e-01,9.99999e-01,9.83278e-01,9.91232e-01,9.99978e-01
1.079210795e+00,9.70120e-01,9.99999e-01,9.99999e-01,9.78587e-01,9.91404e-01,9.99941e-01
1.084606849e+00,9.59510e-01,9.99999e-01,9.99999e-01,9.67797e-01,9.91573e-01,9.99860e-01
1.090029883e+00,9.46052e-01,9.99999e-01,9.99999e-01,9.54206e-01,9.91739e-01,9.99712e-01
1.095480033e+00,8.72500e-01,9.99999e-01,9.99999e-01,8.80080e-01,9.91901e-01,9.99479e-01
1.100957433e+00,7.18069e-01,9.99999e-01,9.99999e-01,7.24508e-01,9.92061e-01,9.99043e-01
1.106462220e+00,4.46366e-01,9.99999e-01,9.99999e-01,4.50597e-01,9.92217e-01,9.98378e-01
1.111994531e+00,1.90468e-01,9.99999e-01,9.99999e-01,1.92760e-01,9.92370e-01,9.95700e-01
1.117554504e+00,7.26123e-02,9.99999e-01,9.99999e-01,7.43062e-02,9.92520e-01,9.84566e-01
1.123142276e+00,1.56490e-01,9.99999e-01,9.99999e-01,1.63569e-01,9.92667e-01,9.63788e-01
1.128757988e+00,2.77633e-01,9.99999e-01,9.99999e-01,2.91833e-01,9.92812e-01,9.58228e-01
1.134401778e+00,1.25719e-01,9.99999e-01,9.99999e-01,1.31289e-01,9.92953e-01,9.64368e-01
1.140073787e+00,4.50916e-01,9.99999e-01,9.99999e-01,4.67407e-01,9.93092e-01,9.71427e-01
1.145774156e+00,2.12789e-01,9.99999e-01,9.99999e-01,2.20001e-01,9.93228e-01,9.73814e-01
1.151503026e+00,1.84300e-01,9.99999e-01,9.99999e-01,1.88294e-01,9.93361e-01,9.85326e-01
1.157260541e+00,2.27186e-01,9.99999e-01,9.99999e-01,2.29687e-01,9.93492e-01,9.95589e-01
1.163046844e+00,3.31313e-01,9.99999e-01,9.99999e-01,3.33858e-01,9.93620e-01,9.98747e-01
1.168862078e+00,4.55702e-01,9.99999e-01,9.99999e-01,4.58866e-01,9.93745e-01,9.99354e-01
1.174706389e+00,6.13458e-01,9.99999e-01,9.99999e-01,6.17770e-01,9.93869e-01,9.99144e-01
1.180579921e+00,7.39423e-01,9.99999e-01,9.99999e-01,7.44856e-01,9.93989e-01,9.98706e-01
1.186482820e+00,8.39928e-01,9.99999e-01,9.99999e-01,8.46028e-01,9.94108e-01,9.98672e-01
1.192415234e+00,9.00767e-01,9.99999e-01,9.99999e-01,9.06901e-01,9.94224e-01,9.99005e-01
1.198377311e+00,9.14938e-01,9.99999e-01,9.99999e-01,9.21012e-01,9.94337e-01,9.99060e-01
1.204369197e+00,9.19305e-01,9.99999e-01,9.99999e-01,9.25221e-01,9.94449e-01,9.99150e-01
1.210391043e+00,9.22747e-01,9.99999e-01,9.99999e-01,9.28274e-01,9.94558e-01,9.99482e-01
1.216442998e+00,9.33305e-01,9.99999e-01,9.99999e-01,9.38607e-01,9.94665e-01,9.99683e-01
1.222525213e+00,9.46673e-01,9.99999e-01,9.99999e-01,9.51836e-01,9.94771e-01,9.99802e-01
1.228637839e+00,9.61265e-01,9.99999e-01,9.99999e-01,9.66306e-01,9.94874e-01,9.99908e-01
