#,Wave/freq,Total,N2,O2,H2O,Rayleigh,CIA
4.000000000e-01,2.51469e-02,9.99999e-01,9.99999e-01,9.99584e-01,2.51573e-02,9.99999e-01
4.020000000e-01,2.70506e-02,9.99999e-01,9.99999e-01,9.99741e-01,2.70575e-02,9.99999e-01
4.040100000e-01,2.90541e-02,9.99999e-01,9.99999e-01,9.99890e-01,2.90572e-02,9.99999e-01
4.060300500e-01,3.11600e-02,9.99999e-01,9.99999e-01,9.99974e-01,3.11608e-02,9.99999e-01
4.080602003e-01,3.33703e-02,9.99999e-01,9.99999e-01,9.99991e-01,3.33706e-02,9.99999e-01
4.101005013e-01,3.56887e-02,9.99999e-01,9.99999e-01,9.99998e-01,3.56887e-02,9.99999e-01
4.121510038e-01,3.81167e-02,9.99999e-01,9.99999e-01,9.99984e-01,3.81173e-02,9.99999e-01
4.142117588e-01,4.06536e-02,9.99999e-01,9.99999e-01,9.99885e-01,4.06582e-02,9.99999e-01
4.162828176e-01,4.32910e-02,9.99999e-01,9.99999e-01,9.99484e-01,4.33133e-02,9.99999e-01
4.183642317e-01,4.60700e-02,9.99999e-01,9.99999e-01,9.99693e-01,4.60841e-02,9.99999e-01
4.204560528e-01,4.89630e-02,9.99999e-01,9.99999e-01,9.99811e-01,4.89722e-02,9.99999e-01
4.225583331e-01,5.19751e-02,9.99999e-01,9.99999e-01,9.99929e-01,5.19788e-02,9.99999e-01
4.246711247e-01,5.51020e-02,9.99999e-01,9.99999e-01,9.99943e-01,5.51051e-02,9.99999e-01
4.267944804e-01,5.83473e-02,9.99999e-01,9.99999e-01,9.99917e-01,5.83521e-02,9.99999e-01
4.289284528e-01,6.17166e-02,9.99999e-01,9.99999e-01,9.99935e-01,6.17205e-02,9.99999e-01
4.310730950e-01,6.52094e-02,9.99999e-01,9.99999e-01,9.99972e-01,6.52111e-02,9.99999e-01
4.332284605e-01,6.88238e-02,9.99999e-01,9.99999e-01,9.99992e-01,6.88243e-02,9.99999e-01
4.353946028e-01,7.25601e-02,9.99999e-01,9.99999e-01,9.99996e-01,7.25603e-02,9.99999e-01
4.375715758e-01,7.64155e-02,9.99999e-01,9.99999e-01,9.99948e-01,7.64193e-02,9.99999e-01
4.397594337e-01,8.03650e-02,9.99999e-01,9.99999e-01,9.99549e-01,8.04012e-02,9.99999e-01
4.419582309e-01,8.43124e-02,9.99999e-01,9.99999e-01,9.97711e-01,8.45058e-02,9.99999e-01
4.441680220e-01,8.85737e-02,9.99999e-01,9.99999e-01,9.98208e-01,8.87326e-02,9.99999e-01
4.463888621e-01,9.29076e-02,9.99999e-01,9.99999e-01,9.98136e-01,9.30810e-02,9.99999e-01
4.486208064e-01,9.74374e-02,9.99999e-01,9.99999e-01,9.98842e-01,9.75503e-02,9.99999e-01
4.508639105e-01,1.02084e-01,9.99999e-01,9.99999e-01,9.99458e-01,1.02140e-01,9.99999e-01
4.531182300e-01,1.06825e-01,9.99999e-01,9.99999e-01,9.99785e-01,1.06848e-01,9.99999e-01
4.553838212e-01,1.11657e-01,9.99999e-01,9.99999e-01,9.99854e-01,1.11673e-01,9.99999e-01
4.576607403e-01,1.16607e-01,9.99999e-01,9.99999e-01,9.99932e-01,1.16615e-01,9.99999e-01
4.599490440e-01,1.21666e-01,9.99999e-01,9.99999e-01,9.99952e-01,1.21671e-01,9.99999e-01
4.622487892e-01,1.26840e-01,9.99999e-01,9.99999e-01,9.99991e-01,1.26841e-01,9.99999e-01
4.645600332e-01,1.32116e-01,9.99999e-01,9.99999e-01,9.99967e-01,1.32121e-01,9.99999e-01
4.668828333e-01,1.37435e-01,9.99999e-01,9.99999e-01,9.99452e-01,1.37510e-01,9.99999e-01
4.692172475e-01,1.42839e-01,9.99999e-01,9.99999e-01,9.98830e-01,1.43006e-01,9.99999e-01
4.715633337e-01,1.48493e-01,9.99999e-01,9.99999e-01,9.99235e-01,1.48607e-01,9.99999e-01
4.739211504e-01,1.54197e-01,9.99999e-01,9.99999e-01,9.99268e-01,1.54309e-01,9.99999e-01
4.762907561e-01,1.60051e-01,9.99999e-01,9.99999e-01,9.99620e-01,1.60112e-01,9.99999e-01
4.786722099e-01,1.65986e-01,9.99999e-01,9.99999e-01,9.99844e-01,1.66011e-01,9.99999e-01
4.810655710e-01,1.71997e-01,9.99999e-01,9.99999e-01,9.99953e-01,1.72005e-01,9.99999e-01
4.834708988e-01,1.78012e-01,9.99999e-01,9.99999e-01,9.99553e-01,1.78091e-01,9.99999e-01
4.858882533e-01,1.84113e-01,9.99999e-01,9.99999e-01,9.99171e-01,1.84265e-01,9.99999e-01
4.883176946e-01,1.90394e-01,9.99999e-01,9.99999e-01,9.99307e-01,1.90525e-01,9.99999e-01
4.907592831e-01,1.96745e-01,9.99999e-01,9.99999e-01,9.99373e-01,1.96868e-01,9.99999e-01
4.932130795e-01,2.03200e-01,9.99999e-01,9.99999e-01,9.99555e-01,2.03291e-01,9.99999e-01
4.956791449e-01,2.09740e-01,9.99999e-01,9.99999e-01,9.99765e-01,2.09790e-01,9.99999e-01
4.981575406e-01,2.16108e-01,9.99999e-01,9.99999e-01,9.98827e-01,2.16362e-01,9.99999e-01
5.006483283e-01,2.22322e-01,9.99999e-01,9.99999e-01,9.96963e-01,2.23004e-01,9.99979e-01
5.031515699e-01,2.26165e-01,9.99999e-01,9.99999e-01,9.84715e-01,2.29713e-01,9.99838e-01
5.056673278e-01,2.34522e-01,9.99999e-01,9.99999e-01,9.91884e-01,2.36485e-01,9.99814e-01
5.081956644e-01,2.40798e-01,9.99999e-01,9.99999e-01,9.89768e-01,2.43317e-01,9.99880e-01
5.107366428e-01,2.48470e-01,9.99999e-01,9.99999e-01,9.93086e-01,2.50205e-01,9.99977e-01
5.132903260e-01,2.56129e-01,9.99999e-01,9.99999e-01,9.96044e-01,2.57147e-01,9.99996e-01
5.158567776e-01,2.63697e-01,9.99999e-01,9.99999e-01,9.98328e-01,2.64139e-01,9.99999e-01
5.184360615e-01,2.70995e-01,9.99999e-01,9.99999e-01,9.99330e-01,2.71177e-01,9.99999e-01
5.210282418e-01,2.78188e-01,9.99999e-01,9.99999e-01,9.99749e-01,2.78257e-01,9.99999e-01
5.236333830e-01,2.85089e-01,9.99999e-01,9.99999e-01,9.98994e-01,2.85378e-01,9.99992e-01
5.262515499e-01,2.92347e-01,9.99999e-01,9.99999e-01,9.99369e-01,2.92535e-01,9.99989e-01
5.288828077e-01,2.99549e-01,9.99999e-01,9.99999e-01,9.99422e-01,2.99724e-01,9.99993e-01
5.315272217e-01,3.06787e-01,9.99999e-01,9.99999e-01,9.99492e-01,3.06943e-01,9.99998e-01
5.341848578e-01,3.14084e-01,9.99999e-01,9.99999e-01,9.99668e-01,3.14188e-01,9.99999e-01
5.368557821e-01,3.21079e-01,9.99999e-01,9.99999e-01,9.98830e-01,3.21456e-01,9.99996e-01
5.395400610e-01,3.27347e-01,9.99999e-01,9.99999e-01,9.95786e-01,3.28743e-01,9.99964e-01
5.422377613e-01,3.34181e-01,9.99999e-01,9.99999e-01,9.94545e-01,3.36047e-01,9.99901e-01
5.449489501e-01,3.41588e-01,9.99999e-01,9.99999e-01,9.94928e-01,3.43364e-01,9.99897e-01
5.476736949e-01,3.49098e-01,9.99999e-01,9.99999e-01,9.95506e-01,3.50691e-01,9.99949e-01
5.504120634e-01,3.56853e-01,9.99999e-01,9.99999e-01,9.96738e-01,3.58025e-01,9.99985e-01
5.531641237e-01,3.64763e-01,9.99999e-01,9.99999e-01,9.98359e-01,3.65363e-01,9.99997e-01
5.559299443e-01,3.72407e-01,9.99999e-01,9.99999e-01,9.99208e-01,3.72702e-01,9.99999e-01
5.587095940e-01,3.79851e-01,9.99999e-01,9.99999e-01,9.99503e-01,3.80040e-01,9.99999e-01
5.615031420e-01,3.87157e-01,9.99999e-01,9.99999e-01,9.99446e-01,3.87372e-01,9.99998e-01
5.643106577e-01,3.94448e-01,9.99999e-01,9.99999e-01,9.99373e-01,3.94697e-01,9.99994e-01
5.671322110e-01,3.98944e-01,9.99999e-01,9.99999e-01,9.92434e-01,4.02011e-01,9.99932e-01
5.699678720e-01,4.05921e-01,9.99999e-01,9.99999e-01,9.91918e-01,4.09313e-01,9.99792e-01
5.728177114e-01,4.13020e-01,9.99999e-01,9.99999e-01,9.91577e-01,4.16599e-01,9.99827e-01
5.756818000e-01,4.20546e-01,9.99999e-01,9.99999e-01,9.92268e-01,4.23867e-01,9.99894e-01
5.785602090e-01,4.28197e-01,9.99999e-01,9.99999e-01,9.93261e-01,4.31115e-01,9.99967e-01
5.814530100e-01,4.35368e-01,9.99999e-01,9.99999e-01,9.93235e-01,4.38340e-01,9.99985e-01
5.843602750e-01,4.41934e-01,9.99999e-01,9.99999e-01,9.91953e-01,4.45539e-01,9.99954e-01
5.872820764e-01,4.22416e-01,9.99999e-01,9.99999e-01,9.33536e-01,4.52711e-01,9.99511e-01
5.902184868e-01,4.22078e-01,9.99999e-01,9.99999e-01,9.19075e-01,4.59854e-01,9.98669e-01
5.931695792e-01,4.39570e-01,9.99999e-01,9.99999e-01,9.42539e-01,4.66964e-01,9.98720e-01
5.961354271e-01,4.43795e-01,9.99999e-01,9.99999e-01,9.36882e-01,4.74041e-01,9.99264e-01
5.991161043e-01,4.58577e-01,9.99999e-01,9.99999e-01,9.53434e-01,4.81083e-01,9.99771e-01
6.021116848e-01,4.75044e-01,9.99999e-01,9.99999e-01,9.73304e-01,4.88086e-01,9.99971e-01
6.051222432e-01,4.88318e-01,9.99999e-01,9.99999e-01,9.86401e-01,4.95051e-01,9.99997e-01
6.081478544e-01,4.99020e-01,9.99999e-01,9.99999e-01,9.94114e-01,5.01974e-01,9.99999e-01
6.111885937e-01,5.07585e-01,9.99999e-01,9.99999e-01,9.97506e-01,5.08854e-01,9.99999e-01
6.142445367e-01,5.15116e-01,9.99999e-01,9.99999e-01,9.98886e-01,5.15690e-01,9.99999e-01
6.173157594e-01,5.22159e-01,9.99999e-01,9.99999e-01,9.99385e-01,5.22480e-01,9.99999e-01
6.204023382e-01,5.28948e-01,9.99999e-01,9.99999e-01,9.99480e-01,5.29223e-01,9.99998e-01
6.235043498e-01,5.34688e-01,9.99999e-01,9.99999e-01,9.97712e-01,5.35917e-01,9.99993e-01
6.266218716e-01,5.35961e-01,9.99999e-01,9.99999e-01,9.87920e-01,5.42561e-01,9.99914e-01
6.297549810e-01,5.46618e-01,9.99999e-01,9.99999e-01,9.95552e-01,5.49153e-01,9.99829e-01
6.329037559e-01,5.50738e-01,9.99999e-01,9.99999e-01,9.91217e-01,5.55694e-01,9.99863e-01
6.360682746e-01,5.57932e-01,9.99999e-01,9.99999e-01,9.92522e-01,5.62180e-01,9.99918e-01
6.392486160e-01,5.63086e-01,9.99999e-01,9.99999e-01,9.90317e-01,5.68612e-01,9.99963e-01
6.424448591e-01,5.67534e-01,9.99999e-01,9.99999e-01,9.87091e-01,5.74988e-01,9.99942e-01
6.456570834e-01,5.47232e-01,9.99999e-01,9.99999e-01,9.41693e-01,5.81308e-01,9.99666e-01
6.488853688e-01,5.61783e-01,9.99999e-01,9.99999e-01,9.57004e-01,5.87570e-01,9.99066e-01
6.521297956e-01,5.67409e-01,9.99999e-01,9.99999e-01,9.56332e-01,5.93775e-01,9.99229e-01
6.553904446e-01,5.73287e-01,9.99999e-01,9.99999e-01,9.56153e-01,5.99920e-01,9.99426e-01
6.586673968e-01,5.83129e-01,9.99999e-01,9.99999e-01,9.62434e-01,6.06005e-01,9.99807e-01
6.619607338e-01,5.98575e-01,9.99999e-01,9.99999e-01,9.78054e-01,6.12030e-01,9.99958e-01
6.652705375e-01,6.10091e-01,9.99999e-01,9.99999e-01,9.87231e-01,6.17995e-01,9.99978e-01
6.685968902e-01,6.20183e-01,9.99999e-01,9.99999e-01,9.94048e-01,6.23897e-01,9.99996e-01
6.719398746e-01,6.28001e-01,9.99999e-01,9.99999e-01,9.97240e-01,6.29739e-01,9.99999e-01
6.752995740e-01,6.34567e-01,9.99999e-01,9.99999e-01,9.98504e-01,6.35517e-01,9.99999e-01
6.786760719e-01,6.39847e-01,9.99999e-01,9.99999e-01,9.97839e-01,6.41233e-01,9.99996e-01
6.820694522e-01,6.44481e-01,9.99999e-01,9.99999e-01,9.96299e-01,6.46886e-01,9.99980e-01
6.854797995e-01,6.49336e-01,9.99999e-01,9.99999e-01,9.95227e-01,6.52476e-01,9.99958e-01
6.889071985e-01,6.50406e-01,9.99999e-01,9.99999e-01,9.88556e-01,6.58002e-01,9.99896e-01
6.923517345e-01,5.50744e-01,9.99999e-01,9.99999e-01,8.30852e-01,6.63465e-01,9.99097e-01
6.958134932e-01,6.06276e-01,9.99999e-01,9.99999e-01,9.08240e-01,6.68863e-01,9.98001e-01
6.992925606e-01,6.13496e-01,9.99999e-01,9.99999e-01,9.11604e-01,6.74198e-01,9.98199e-01
7.027890234e-01,6.05171e-01,9.99999e-01,9.99999e-01,8.91878e-01,6.79468e-01,9.98624e-01
7.063029686e-01,6.21152e-01,9.99999e-01,9.99999e-01,9.07842e-01,6.84675e-01,9.99315e-01
7.098344834e-01,6.28355e-01,9.99999e-01,9.99999e-01,9.11268e-01,6.89817e-01,9.99594e-01
7.133836558e-01,6.14764e-01,9.99999e-01,9.99999e-01,8.85397e-01,6.94895e-01,9.99195e-01
7.169505741e-01,2.89707e-01,9.99999e-01,9.99999e-01,4.16551e-01,6.99909e-01,9.93685e-01
7.205353270e-01,4.43714e-01,9.99999e-01,9.99999e-01,6.36581e-01,7.04859e-01,9.88886e-01
7.241380036e-01,3.93844e-01,9.99999e-01,9.99999e-01,5.60289e-01,7.09746e-01,9.90395e-01
7.277586936e-01,4.20960e-01,9.99999e-01,9.99999e-01,5.93776e-01,7.14569e-01,9.92142e-01
7.313974871e-01,4.05716e-01,9.99999e-01,9.99999e-01,5.66108e-01,7.19328e-01,9.96311e-01
7.350544745e-01,5.27104e-01,9.99999e-01,9.99999e-01,7.28955e-01,7.24024e-01,9.98716e-01
7.387297469e-01,5.75171e-01,9.99999e-01,9.99999e-01,7.89822e-01,7.28657e-01,9.99411e-01
7.424233956e-01,6.52629e-01,9.99999e-01,9.99999e-01,8.90177e-01,7.33227e-01,9.99886e-01
7.461355126e-01,6.87394e-01,9.99999e-01,9.99999e-01,9.31781e-01,7.37735e-01,9.99979e-01
7.498661902e-01,7.18125e-01,9.99999e-01,9.99999e-01,9.67593e-01,7.42181e-01,9.99992e-01
7.536155211e-01,7.34591e-01,9.99999e-01,9.99999e-01,9.83965e-01,7.46565e-01,9.99995e-01
7.573835987e-01,7.44665e-01,9.99999e-01,9.99999e-01,9.91714e-01,7.50887e-01,9.99998e-01
7.611705167e-01,7.51256e-01,9.99999e-01,9.99999e-01,9.94844e-01,7.55149e-01,9.99999e-01
7.649763693e-01,7.56895e-01,9.99999e-01,9.99999e-01,9.96766e-01,7.59349e-01,9.99999e-01
7.688012511e-01,7.61771e-01,9.99999e-01,9.99999e-01,9.97748e-01,7.63490e-01,9.99999e-01
7.726452574e-01,7.66147e-01,9.99999e-01,9.99999e-01,9.98146e-01,7.67570e-01,9.99998e-01
7.765084837e-01,7.69558e-01,9.99999e-01,9.99999e-01,9.97367e-01,7.71591e-01,9.99996e-01
7.803910261e-01,7.66764e-01,9.99999e-01,9.99999e-01,9.88676e-01,7.75553e-01,9.99988e-01
7.842929812e-01,7.49097e-01,9.99999e-01,9.99999e-01,9.61119e-01,7.79457e-01,9.99926e-01
7.882144461e-01,7.21330e-01,9.99999e-01,9.99999e-01,9.21343e-01,7.83302e-01,9.99499e-01
7.921555184e-01,7.51824e-01,9.99999e-01,9.99999e-01,9.56118e-01,7.87090e-01,9.99031e-01
7.961162960e-01,7.30081e-01,9.99999e-01,9.99999e-01,9.24049e-01,7.90821e-01,9.99072e-01
8.000968774e-01,7.23979e-01,9.99999e-01,9.99999e-01,9.12143e-01,7.94496e-01,9.99012e-01
8.040973618e-01,7.27579e-01,9.99999e-01,9.99999e-01,9.12337e-01,7.98114e-01,9.99215e-01
8.081178486e-01,6.54351e-01,9.99999e-01,9.99999e-01,8.16827e-01,8.01677e-01,9.99264e-01
8.121584379e-01,3.60932e-01,9.99999e-01,9.99999e-01,4.49557e-01,8.05185e-01,9.97112e-01
8.162192301e-01,3.13576e-01,9.99999e-01,9.99999e-01,3.92021e-01,8.08639e-01,9.89185e-01
8.203003262e-01,5.18936e-01,9.99999e-01,9.99999e-01,6.47242e-01,8.12038e-01,9.87348e-01
8.244018279e-01,4.57116e-01,9.99999e-01,9.99999e-01,5.66322e-01,8.15385e-01,9.89918e-01
8.285238370e-01,4.54194e-01,9.99999e-01,9.99999e-01,5.59221e-01,8.18679e-01,9.92073e-01
8.326664562e-01,4.58005e-01,9.99999e-01,9.99999e-01,5.59074e-01,8.21920e-01,9.96714e-01
8.368297885e-01,5.36149e-01,9.99999e-01,9.99999e-01,6.50279e-01,8.25110e-01,9.99248e-01
8.410139374e-01,6.39252e-01,9.99999e-01,9.99999e-01,7.72149e-01,8.28249e-01,9.99560e-01
8.452190071e-01,7.31287e-01,9.99999e-01,9.99999e-01,8.79881e-01,8.31338e-01,9.99737e-01
8.494451021e-01,7.74256e-01,9.99999e-01,9.99999e-01,9.28140e-01,8.34377e-01,9.99788e-01
8.536923276e-01,8.01122e-01,9.99999e-01,9.99999e-01,9.56838e-01,8.37366e-01,9.99871e-01
8.579607893e-01,8.17755e-01,9.99999e-01,9.99999e-01,9.73190e-01,8.40307e-01,9.99968e-01
8.622505932e-01,8.28760e-01,9.99999e-01,9.99999e-01,9.82879e-01,8.43200e-01,9.99994e-01
8.665618462e-01,8.37060e-01,9.99999e-01,9.99999e-01,9.89382e-01,8.46045e-01,9.99996e-01
8.708946554e-01,8.38527e-01,9.99999e-01,9.99999e-01,9.87852e-01,8.48844e-01,9.99992e-01
8.752491287e-01,8.37762e-01,9.99999e-01,9.99999e-01,9.83771e-01,8.51596e-01,9.99982e-01
8.796253743e-01,8.35132e-01,9.99999e-01,9.99999e-01,9.77608e-01,8.54302e-01,9.99949e-01
8.840235012e-01,8.34964e-01,9.99999e-01,9.99999e-01,9.74480e-01,8.56964e-01,9.99842e-01
8.884436187e-01,7.84485e-01,9.99999e-01,9.99999e-01,9.13044e-01,8.59581e-01,9.99552e-01
8.928858368e-01,3.57508e-01,9.99999e-01,9.99999e-01,4.15740e-01,8.62154e-01,9.97422e-01
8.973502660e-01,1.84636e-01,9.99999e-01,9.99999e-01,2.16374e-01,8.64683e-01,9.86859e-01
9.018370173e-01,3.87879e-01,9.99999e-01,9.99999e-01,4.56693e-01,8.67170e-01,9.79416e-01
9.063462024e-01,4.22391e-01,9.99999e-01,9.99999e-01,4.94678e-01,8.69615e-01,9.81895e-01
9.108779334e-01,2.86704e-01,9.99999e-01,9.99999e-01,3.35083e-01,8.72018e-01,9.81194e-01
9.154323231e-01,2.40272e-01,9.99999e-01,9.99999e-01,2.79138e-01,8.74380e-01,9.84430e-01
9.200094847e-01,3.26748e-01,9.99999e-01,9.99999e-01,3.75989e-01,8.76701e-01,9.91256e-01
9.246095321e-01,2.16375e-01,9.99999e-01,9.99999e-01,2.48669e-01,8.78983e-01,9.89931e-01
9.292325798e-01,3.82526e-03,9.99999e-01,9.99999e-01,4.51558e-03,8.81225e-01,9.61304e-01
9.338787427e-01,6.24108e-05,9.99999e-01,9.99999e-01,8.31651e-05,8.83429e-01,8.49466e-01
9.385481364e-01,1.46964e-02,9.99999e-01,9.99999e-01,2.01486e-02,8.85594e-01,8.23626e-01
9.432408771e-01,5.41995e-03,9.99999e-01,9.99999e-01,7.21803e-03,8.87722e-01,8.45861e-01
9.479570815e-01,2.99307e-04,9.99999e-01,9.99999e-01,3.85466e-04,8.89813e-01,8.72632e-01
9.526968669e-01,1.63447e-03,9.99999e-01,9.99999e-01,1.99144e-03,8.91867e-01,9.20260e-01
9.574603512e-01,2.51799e-03,9.99999e-01,9.99999e-01,2.93835e-03,8.93885e-01,9.58667e-01
9.622476530e-01,6.85658e-03,9.99999e-01,9.99999e-01,7.88023e-03,8.95868e-01,9.71234e-01
9.670588912e-01,4.91584e-02,9.99999e-01,9.99999e-01,5.58571e-02,8.97816e-01,9.80236e-01
9.718941857e-01,1.07663e-01,9.99999e-01,9.99999e-01,1.21432e-01,8.99730e-01,9.85413e-01
9.767536566e-01,1.53967e-01,9.99999e-01,9.99999e-01,1.72697e-01,9.01609e-01,9.88833e-01
9.816374249e-01,2.32402e-01,9.99999e-01,9.99999e-01,2.58238e-01,9.03456e-01,9.96121e-01
9.865456120e-01,3.80453e-01,9.99999e-01,9.99999e-01,4.20605e-01,9.05269e-01,9.99190e-01
9.914783401e-01,5.26040e-01,9.99999e-01,9.99999e-01,5.80074e-01,9.07051e-01,9.99775e-01
9.964357318e-01,6.74873e-01,9.99999e-01,9.99999e-01,7.42695e-01,9.08800e-01,9.99868e-01
1.001417910e+00,7.60924e-01,9.99999e-01,9.99999e-01,8.35870e-01,9.10519e-01,9.99799e-01
1.006425000e+00,8.23081e-01,9.99999e-01,9.99999e-01,9.02554e-01,9.12206e-01,9.99714e-01
1.011457125e+00,8.57290e-01,9.99999e-01,9.99999e-01,9.38342e-01,9.13863e-01,9.99734e-01
1.016514411e+00,8.76584e-01,9.99999e-01,9.99999e-01,9.57680e-01,9.15491e-01,9.99812e-01
1.021596983e+00,8.85855e-01,9.99999e-01,9.99999e-01,9.66123e-01,9.17089e-01,9.99811e-01
1.026704968e+00,8.94176e-01,9.99999e-01,9.99999e-01,9.73472e-01,9.18658e-01,9.99873e-01
1.031838492e+00,9.02365e-01,9.99999e-01,9.99999e-01,9.80652e-01,9.20199e-01,9.99964e-01
1.036997685e+00,9.11078e-01,9.99999e-01,9.99999e-01,9.88467e-01,9.21711e-01,9.99994e-01
1.042182673e+00,9.10520e-01,9.99999e-01,9.99999e-01,9.86270e-01,9.23197e-01,9.99997e-01
1.047393587e+00,9.07850e-01,9.99999e-01,9.99999e-01,9.81828e-01,9.24655e-01,9.99996e-01
1.052630555e+00,9.03075e-01,9.99999e-01,9.99999e-01,9.75157e-01,9.26087e-01,9.99992e-01
1.057893707e+00,8.89382e-01,9.99999e-01,9.99999e-01,9.58923e-01,9.27493e-01,9.99985e-01
1.063183176e+00,8.67035e-01,9.99999e-01,9.99999e-01,9.33459e-01,9.28873e-01,9.99963e-01
1.068499092e+00,8.29109e-01,9.99999e-01,9.99999e-01,8.91366e-01,9.30227e-01,9.99921e-01
1.073841587e+00,8.15132e-01,9.99999e-01,9.99999e-01,8.75169e-01,9.31557e-01,9.99829e-01
1.079210795e+00,7.85195e-01,9.99999e-01,9.99999e-01,8.42093e-01,9.32863e-01,9.99538e-01
1.084606849e+00,7.20934e-01,9.99999e-01,9.99999e-01,7.72616e-01,9.34144e-01,9.98888e-01
1.090029883e+00,6.48378e-01,9.99999e-01,9.99999e-01,6.94753e-01,9.35402e-01,9.97698e-01
1.095480033e+00,3.49604e-01,9.99999e-01,9.99999e-01,3.74813e-01,9.36637e-01,9.95840e-01
1.100957433e+00,9.40148e-02,9.99999e-01,9.99999e-01,1.01017e-01,9.37849e-01,9.92357e-01
1.106462220e+00,6.73841e-03,9.99999e-01,9.99999e-01,7.26985e-03,9.39038e-01,9.87070e-01
1.111994531e+00,3.21601e-05,9.99999e-01,9.99999e-01,3.54077e-05,9.40205e-01,9.66040e-01
1.117554504e+00,5.17839e-07,9.99999e-01,9.99999e-01,6.23183e-07,9.41351e-01,8.82728e-01
1.123142276e+00,6.13488e-05,9.99999e-01,9.99999e-01,8.74988e-05,9.42476e-01,7.43932e-01
1.128757988e+00,2.88368e-04,9.99999e-01,9.99999e-01,4.30311e-04,9.43579e-01,7.10206e-01
1.134401778e+00,3.80586e-04,9.99999e-01,9.99999e-01,5.38945e-04,9.44662e-01,7.47535e-01
1.140073787e+00,4.13916e-03,9.99999e-01,9.99999e-01,5.52221e-03,9.45725e-01,7.92562e-01
1.145774156e+00,2.81823e-04,9.99999e-01,9.99999e-01,3.68258e-04,9.46768e-01,8.08313e-01
1.151503026e+00,5.12628e-05,9.99999e-01,9.99999e-01,6.08940e-05,9.47791e-01,8.88207e-01
1.157260541e+00,4.26221e-05,9.99999e-01,9.99999e-01,4.65432e-05,9.48796e-01,9.65175e-01
1.163046844e+00,5.90462e-04,9.99999e-01,9.99999e-01,6.27959e-04,9.49781e-01,9.90004e-01
1.168862078e+00,4.56631e-03,9.99999e-01,9.99999e-01,4.82777e-03,9.50748e-01,9.94838e-01
1.174706389e+00,2.94869e-02,9.99999e-01,9.99999e-01,3.11968e-02,9.51697e-01,9.93163e-01
1.180579921e+00,1.06222e-01,9.99999e-01,9.99999e-01,1.12666e-01,9.52628e-01,9.89679e-01
1.186482820e+00,2.57047e-01,9.99999e-01,9.99999e-01,2.72456e-01,9.53542e-01,9.89408e-01
1.192415234e+00,4.36477e-01,9.99999e-01,9.99999e-01,4.60973e-01,9.54438e-01,9.92058e-01
1.198377311e+00,4.94751e-01,9.99999e-01,9.99999e-01,5.21806e-01,9.55318e-01,9.92496e-01
1.204369197e+00,5.20221e-01,9.99999e-01,9.99999e-01,5.47781e-01,9.56181e-01,9.93208e-01
1.210391043e+00,5.31622e-01,9.99999e-01,9.99999e-01,5.57800e-01,9.57028e-01,9.95863e-01
1.216442998e+00,5.81444e-01,9.99999e-01,9.99999e-01,6.08568e-01,9.57858e-01,9.97464e-01
1.222525213e+00,6.46827e-01,9.99999e-01,9.99999e-01,6.75774e-01,9.58673e-01,9.98424e-01
1.228637839e+00,7.29562e-01,9.99999e-01,9.99999e-01,7.60935e-01,9.59473e-01,9.99266e-01
