#,Wave/freq,Total,N2,O2,H2O,Rayleigh,CIA
4.000000000e-01,7.29455e-01,9.99999e-01,9.99999e-01,9.99964e-01,7.29481e-01,9.99999e-01
4.020000000e-01,7.34029e-01,9.99999e-01,9.99999e-01,9.99977e-01,7.34045e-01,9.99999e-01
4.040100000e-01,7.38535e-01,9.99999e-01,9.99999e-01,9.99990e-01,7.38541e-01,9.99999e-01
4.060300500e-01,7.42974e-01,9.99999e-01,9.99999e-01,9.99997e-01,7.42976e-01,9.99999e-01
4.080602003e-01,7.47348e-01,9.99999e-01,9.99999e-01,9.99998e-01,7.47349e-01,9.99999e-01
4.101005013e-01,7.51660e-01,9.99999e-01,9.99999e-01,9.99999e-01,7.51660e-01,9.99999e-01
4.121510038e-01,7.55910e-01,9.99999e-01,9.99999e-01,9.99998e-01,7.55911e-01,9.99999e-01
4.142117588e-01,7.60093e-01,9.99999e-01,9.99999e-01,9.99989e-01,7.60100e-01,9.99999e-01
4.162828176e-01,7.64196e-01,9.99999e-01,9.99999e-01,9.99955e-01,7.64230e-01,9.99999e-01
4.183642317e-01,7.68280e-01,9.99999e-01,9.99999e-01,9.99973e-01,7.68300e-01,9.99999e-01
4.204560528e-01,7.72298e-01,9.99999e-01,9.99999e-01,9.99983e-01,7.72310e-01,9.99999e-01
4.225583331e-01,7.76257e-01,9.99999e-01,9.99999e-01,9.99993e-01,7.76262e-01,9.99999e-01
4.246711247e-01,7.80151e-01,9.99999e-01,9.99999e-01,9.99994e-01,7.80155e-01,9.99999e-01
4.267944804e-01,7.83984e-01,9.99999e-01,9.99999e-01,9.99992e-01,7.83990e-01,9.99999e-01
4.289284528e-01,7.87763e-01,9.99999e-01,9.99999e-01,9.99994e-01,7.87767e-01,9.99999e-01
4.310730950e-01,7.91486e-01,9.99999e-01,9.99999e-01,9.99997e-01,7.91488e-01,9.99999e-01
4.332284605e-01,7.95152e-01,9.99999e-01,9.99999e-01,9.99998e-01,7.95152e-01,9.99999e-01
4.353946028e-01,7.98760e-01,9.99999e-01,9.99999e-01,9.99999e-01,7.98761e-01,9.99999e-01
4.375715758e-01,8.02310e-01,9.99999e-01,9.99999e-01,9.99995e-01,8.02314e-01,9.99999e-01
4.397594337e-01,8.05780e-01,9.99999e-01,9.99999e-01,9.99960e-01,8.05812e-01,9.99999e-01
4.419582309e-01,8.09093e-01,9.99999e-01,9.99999e-01,9.99799e-01,8.09256e-01,9.99999e-01
4.441680220e-01,8.12522e-01,9.99999e-01,9.99999e-01,9.99847e-01,8.12646e-01,9.99999e-01
4.463888621e-01,8.15852e-01,9.99999e-01,9.99999e-01,9.99839e-01,8.15983e-01,9.99999e-01
4.486208064e-01,8.19186e-01,9.99999e-01,9.99999e-01,9.99901e-01,8.19267e-01,9.99999e-01
4.508639105e-01,8.22461e-01,9.99999e-01,9.99999e-01,9.99953e-01,8.22499e-01,9.99999e-01
4.531182300e-01,8.25665e-01,9.99999e-01,9.99999e-01,9.99981e-01,8.25680e-01,9.99999e-01
4.553838212e-01,8.28800e-01,9.99999e-01,9.99999e-01,9.99987e-01,8.28810e-01,9.99999e-01
4.576607403e-01,8.31885e-01,9.99999e-01,9.99999e-01,9.99993e-01,8.31889e-01,9.99999e-01
4.599490440e-01,8.34916e-01,9.99999e-01,9.99999e-01,9.99995e-01,8.34919e-01,9.99999e-01
4.622487892e-01,8.37899e-01,9.99999e-01,9.99999e-01,9.99998e-01,8.37900e-01,9.99999e-01
4.645600332e-01,8.40830e-01,9.99999e-01,9.99999e-01,9.99996e-01,8.40832e-01,9.99999e-01
4.668828333e-01,8.43677e-01,9.99999e-01,9.99999e-01,9.99952e-01,8.43716e-01,9.99999e-01
4.692172475e-01,8.46469e-01,9.99999e-01,9.99999e-01,9.99899e-01,8.46553e-01,9.99999e-01
4.715633337e-01,8.49288e-01,9.99999e-01,9.99999e-01,9.99933e-01,8.49343e-01,9.99999e-01
4.739211504e-01,8.52034e-01,9.99999e-01,9.99999e-01,9.99937e-01,8.52087e-01,9.99999e-01
4.762907561e-01,8.54758e-01,9.99999e-01,9.99999e-01,9.99967e-01,8.54786e-01,9.99999e-01
4.786722099e-01,8.57428e-01,9.99999e-01,9.99999e-01,9.99986e-01,8.57439e-01,9.99999e-01
4.810655710e-01,8.60044e-01,9.99999e-01,9.99999e-01,9.99995e-01,8.60048e-01,9.99999e-01
4.834708988e-01,8.62579e-01,9.99999e-01,9.99999e-01,9.99959e-01,8.62613e-01,9.99999e-01
4.858882533e-01,8.65074e-01,9.99999e-01,9.99999e-01,9.99928e-01,8.65135e-01,9.99999e-01
4.883176946e-01,8.67562e-01,9.99999e-01,9.99999e-01,9.99939e-01,8.67614e-01,9.99999e-01
4.907592831e-01,8.70004e-01,9.99999e-01,9.99999e-01,9.99946e-01,8.70051e-01,9.99999e-01
4.932130795e-01,8.72413e-01,9.99999e-01,9.99999e-01,9.99961e-01,8.72446e-01,9.99999e-01
4.956791449e-01,8.74784e-01,9.99999e-01,9.99999e-01,9.99979e-01,8.74801e-01,9.99999e-01
4.981575406e-01,8.77027e-01,9.99999e-01,9.99999e-01,9.99898e-01,8.77115e-01,9.99999e-01
5.006483283e-01,8.79156e-01,9.99999e-01,9.99999e-01,9.99734e-01,8.79390e-01,9.99997e-01
5.031515699e-01,8.80444e-01,9.99999e-01,9.99999e-01,9.98672e-01,8.81625e-01,9.99985e-01
5.056673278e-01,8.83192e-01,9.99999e-01,9.99999e-01,9.99302e-01,8.83822e-01,9.99983e-01
5.081956644e-01,8.85194e-01,9.99999e-01,9.99999e-01,9.99121e-01,8.85981e-01,9.99989e-01
5.107366428e-01,8.87574e-01,9.99999e-01,9.99999e-01,9.99406e-01,8.88102e-01,9.99997e-01
5.132903260e-01,8.89885e-01,9.99999e-01,9.99999e-01,9.99661e-01,8.90186e-01,9.99999e-01
5.158567776e-01,8.92107e-01,9.99999e-01,9.99999e-01,9.99857e-01,8.92234e-01,9.99999e-01
5.184360615e-01,8.94194e-01,9.99999e-01,9.99999e-01,9.99942e-01,8.94245e-01,9.99999e-01
5.210282418e-01,8.96203e-01,9.99999e-01,9.99999e-01,9.99978e-01,8.96222e-01,9.99999e-01
5.236333830e-01,8.98086e-01,9.99999e-01,9.99999e-01,9.99913e-01,8.98164e-01,9.99998e-01
5.262515499e-01,9.00022e-01,9.99999e-01,9.99999e-01,9.99945e-01,9.00071e-01,9.99998e-01
5.288828077e-01,9.01899e-01,9.99999e-01,9.99999e-01,9.99949e-01,9.01945e-01,9.99998e-01
5.315272217e-01,9.03746e-01,9.99999e-01,9.99999e-01,9.99956e-01,9.03785e-01,9.99999e-01
5.341848578e-01,9.05567e-01,9.99999e-01,9.99999e-01,9.99970e-01,9.05593e-01,9.99999e-01
5.368557821e-01,9.07277e-01,9.99999e-01,9.99999e-01,9.99898e-01,9.07369e-01,9.99999e-01
5.395400610e-01,9.08774e-01,9.99999e-01,9.99999e-01,9.99631e-01,9.09112e-01,9.99996e-01
5.422377613e-01,9.10393e-01,9.99999e-01,9.99999e-01,9.99533e-01,9.10825e-01,9.99990e-01
5.449489501e-01,9.12099e-01,9.99999e-01,9.99999e-01,9.99561e-01,9.12507e-01,9.99990e-01
5.476736949e-01,9.13804e-01,9.99999e-01,9.99999e-01,9.99615e-01,9.14159e-01,9.99995e-01
5.504120634e-01,9.15525e-01,9.99999e-01,9.99999e-01,9.99720e-01,9.15781e-01,9.99998e-01
5.531641237e-01,9.17245e-01,9.99999e-01,9.99999e-01,9.99859e-01,9.17374e-01,9.99999e-01
5.559299443e-01,9.18876e-01,9.99999e-01,9.99999e-01,9.99932e-01,9.18938e-01,9.99999e-01
5.587095940e-01,9.20434e-01,9.99999e-01,9.99999e-01,9.99956e-01,9.20473e-01,9.99999e-01
5.615031420e-01,9.21938e-01,9.99999e-01,9.99999e-01,9.99952e-01,9.21981e-01,9.99999e-01
5.643106577e-01,9.23411e-01,9.99999e-01,9.99999e-01,9.99944e-01,9.23462e-01,9.99999e-01
5.671322110e-01,9.24290e-01,9.99999e-01,9.99999e-01,9.99329e-01,9.24915e-01,9.99993e-01
5.699678720e-01,9.25689e-01,9.99999e-01,9.99999e-01,9.99312e-01,9.26342e-01,9.99981e-01
5.728177114e-01,9.27056e-01,9.99999e-01,9.99999e-01,9.99272e-01,9.27743e-01,9.99984e-01
5.756818000e-01,9.28493e-01,9.99999e-01,9.99999e-01,9.99334e-01,9.29119e-01,9.99990e-01
5.785602090e-01,9.29929e-01,9.99999e-01,9.99999e-01,9.99421e-01,9.30469e-01,9.99997e-01
5.814530100e-01,9.31251e-01,9.99999e-01,9.99999e-01,9.99417e-01,9.31794e-01,9.99998e-01
5.843602750e-01,9.32438e-01,9.99999e-01,9.99999e-01,9.99298e-01,9.33096e-01,9.99995e-01
5.872820764e-01,9.28705e-01,9.99999e-01,9.99999e-01,9.93975e-01,9.34373e-01,9.99957e-01
5.902184868e-01,9.28773e-01,9.99999e-01,9.99999e-01,9.92788e-01,9.35626e-01,9.99885e-01
5.931695792e-01,9.31959e-01,9.99999e-01,9.99999e-01,9.94881e-01,9.36857e-01,9.99889e-01
5.961354271e-01,9.32759e-01,9.99999e-01,9.99999e-01,9.94406e-01,9.38065e-01,9.99936e-01
5.991161043e-01,9.35404e-01,9.99999e-01,9.99999e-01,9.95923e-01,9.39250e-01,9.99979e-01
6.021116848e-01,9.38239e-01,9.99999e-01,9.99999e-01,9.97689e-01,9.40413e-01,9.99997e-01
6.051222432e-01,9.40455e-01,9.99999e-01,9.99999e-01,9.98830e-01,9.41555e-01,9.99999e-01
6.081478544e-01,9.42200e-01,9.99999e-01,9.99999e-01,9.99494e-01,9.42676e-01,9.99999e-01
6.111885937e-01,9.43575e-01,9.99999e-01,9.99999e-01,9.99786e-01,9.43776e-01,9.99999e-01
6.142445367e-01,9.44765e-01,9.99999e-01,9.99999e-01,9.99904e-01,9.44855e-01,9.99999e-01
6.173157594e-01,9.45865e-01,9.99999e-01,9.99999e-01,9.99946e-01,9.45914e-01,9.99999e-01
6.204023382e-01,9.46911e-01,9.99999e-01,9.99999e-01,9.99954e-01,9.46954e-01,9.99999e-01
6.235043498e-01,9.47782e-01,9.99999e-01,9.99999e-01,9.99798e-01,9.47974e-01,9.99999e-01
6.266218716e-01,9.47978e-01,9.99999e-01,9.99999e-01,9.98956e-01,9.48975e-01,9.99992e-01
6.297549810e-01,9.49580e-01,9.99999e-01,9.99999e-01,9.99616e-01,9.49957e-01,9.99984e-01
6.329037559e-01,9.50193e-01,9.99999e-01,9.99999e-01,9.99246e-01,9.50921e-01,9.99987e-01
6.360682746e-01,9.51246e-01,9.99999e-01,9.99999e-01,9.99354e-01,9.51866e-01,9.99992e-01
6.392486160e-01,9.51997e-01,9.99999e-01,9.99999e-01,9.99165e-01,9.52794e-01,9.99996e-01
6.424448591e-01,9.52624e-01,9.99999e-01,9.99999e-01,9.98871e-01,9.53705e-01,9.99994e-01
6.456570834e-01,9.49576e-01,9.99999e-01,9.99999e-01,9.94769e-01,9.54598e-01,9.99968e-01
6.488853688e-01,9.51791e-01,9.99999e-01,9.99999e-01,9.96224e-01,9.55475e-01,9.99919e-01
6.521297956e-01,9.52593e-01,9.99999e-01,9.99999e-01,9.96152e-01,9.56335e-01,9.99933e-01
6.553904446e-01,9.53443e-01,9.99999e-01,9.99999e-01,9.96145e-01,9.57178e-01,9.99950e-01
6.586673968e-01,9.54846e-01,9.99999e-01,9.99999e-01,9.96717e-01,9.58006e-01,9.99983e-01
6.619607338e-01,9.57061e-01,9.99999e-01,9.99999e-01,9.98170e-01,9.58818e-01,9.99995e-01
6.652705375e-01,9.58560e-01,9.99999e-01,9.99999e-01,9.98901e-01,9.59615e-01,9.99997e-01
6.685968902e-01,9.59949e-01,9.99999e-01,9.99999e-01,9.99533e-01,9.60397e-01,9.99999e-01
6.719398746e-01,9.60937e-01,9.99999e-01,9.99999e-01,9.99763e-01,9.61164e-01,9.99999e-01
6.752995740e-01,9.61796e-01,9.99999e-01,9.99999e-01,9.99874e-01,9.61916e-01,9.99999e-01
6.786760719e-01,9.62474e-01,9.99999e-01,9.99999e-01,9.99812e-01,9.62654e-01,9.99999e-01
6.820694522e-01,9.63067e-01,9.99999e-01,9.99999e-01,9.99677e-01,9.63378e-01,9.99997e-01
6.854797995e-01,9.63688e-01,9.99999e-01,9.99999e-01,9.99588e-01,9.64088e-01,9.99995e-01
6.889071985e-01,9.63490e-01,9.99999e-01,9.99999e-01,9.98666e-01,9.64785e-01,9.99990e-01
6.923517345e-01,9.49642e-01,9.99999e-01,9.99999e-01,9.83683e-01,9.65468e-01,9.99921e-01
6.958134932e-01,9.58003e-01,9.99999e-01,9.99999e-01,9.91749e-01,9.66139e-01,9.99827e-01
6.992925606e-01,9.58859e-01,9.99999e-01,9.99999e-01,9.91943e-01,9.66796e-01,9.99844e-01
7.027890234e-01,9.57814e-01,9.99999e-01,9.99999e-01,9.90165e-01,9.67441e-01,9.99881e-01
7.063029686e-01,9.59998e-01,9.99999e-01,9.99999e-01,9.91715e-01,9.68074e-01,9.99940e-01
7.098344834e-01,9.60960e-01,9.99999e-01,9.99999e-01,9.92049e-01,9.68695e-01,9.99964e-01
7.133836558e-01,9.58814e-01,9.99999e-01,9.99999e-01,9.89246e-01,9.69303e-01,9.99930e-01
7.169505741e-01,8.89417e-01,9.99999e-01,9.99999e-01,9.17518e-01,9.69900e-01,9.99454e-01
7.205353270e-01,9.30478e-01,9.99999e-01,9.99999e-01,9.59696e-01,9.70486e-01,9.99038e-01
7.241380036e-01,9.19801e-01,9.99999e-01,9.99999e-01,9.47999e-01,9.71061e-01,9.99169e-01
7.277586936e-01,9.25353e-01,9.99999e-01,9.99999e-01,9.53023e-01,9.71624e-01,9.99321e-01
7.313974871e-01,9.23759e-01,9.99999e-01,9.99999e-01,9.50497e-01,9.72177e-01,9.99681e-01
7.350544745e-01,9.45946e-01,9.99999e-01,9.99999e-01,9.72583e-01,9.72719e-01,9.99889e-01
7.387297469e-01,9.53510e-01,9.99999e-01,9.99999e-01,9.79766e-01,9.73250e-01,9.99948e-01
7.424233956e-01,9.64103e-01,9.99999e-01,9.99999e-01,9.90079e-01,9.73772e-01,9.99990e-01
7.461355126e-01,9.68402e-01,9.99999e-01,9.99999e-01,9.93965e-01,9.74283e-01,9.99997e-01
7.498661902e-01,9.72052e-01,9.99999e-01,9.99999e-01,9.97197e-01,9.74784e-01,9.99998e-01
7.536155211e-01,9.73929e-01,9.99999e-01,9.99999e-01,9.98618e-01,9.75276e-01,9.99999e-01
7.573835987e-01,9.75066e-01,9.99999e-01,9.99999e-01,9.99289e-01,9.75759e-01,9.99999e-01
7.611705167e-01,9.75801e-01,9.99999e-01,9.99999e-01,9.99557e-01,9.76232e-01,9.99999e-01
7.649763693e-01,9.76425e-01,9.99999e-01,9.99999e-01,9.99722e-01,9.76696e-01,9.99999e-01
7.688012511e-01,9.76962e-01,9.99999e-01,9.99999e-01,9.99806e-01,9.77151e-01,9.99999e-01
7.726452574e-01,9.77441e-01,9.99999e-01,9.99999e-01,9.99840e-01,9.77597e-01,9.99999e-01
7.765084837e-01,9.77811e-01,9.99999e-01,9.99999e-01,9.99771e-01,9.78034e-01,9.99999e-01
7.803910261e-01,9.77494e-01,9.99999e-01,9.99999e-01,9.99009e-01,9.78464e-01,9.99998e-01
7.842929812e-01,9.75497e-01,9.99999e-01,9.99999e-01,9.96545e-01,9.78884e-01,9.99993e-01
7.882144461e-01,9.72368e-01,9.99999e-01,9.99999e-01,9.92972e-01,9.79297e-01,9.99951e-01
7.921555184e-01,9.75866e-01,9.99999e-01,9.99999e-01,9.96167e-01,9.79702e-01,9.99915e-01
7.961162960e-01,9.73290e-01,9.99999e-01,9.99999e-01,9.93132e-01,9.80099e-01,9.99919e-01
8.000968774e-01,9.72690e-01,9.99999e-01,9.99999e-01,9.92130e-01,9.80488e-01,9.99914e-01
8.040973618e-01,9.73072e-01,9.99999e-01,9.99999e-01,9.92113e-01,9.80870e-01,9.99934e-01
8.081178486e-01,9.63686e-01,9.99999e-01,9.99999e-01,9.82170e-01,9.81244e-01,9.99933e-01
8.121584379e-01,9.10688e-01,9.99999e-01,9.99999e-01,9.27978e-01,9.81611e-01,9.99750e-01
8.162192301e-01,8.98838e-01,9.99999e-01,9.99999e-01,9.16196e-01,9.81971e-01,9.99064e-01
8.203003262e-01,9.38652e-01,9.99999e-01,9.99999e-01,9.56589e-01,9.82324e-01,9.98905e-01
8.244018279e-01,9.24750e-01,9.99999e-01,9.99999e-01,9.41879e-01,9.82670e-01,9.99128e-01
8.285238370e-01,9.31886e-01,9.99999e-01,9.99999e-01,9.48641e-01,9.83009e-01,9.99315e-01
8.326664562e-01,9.32331e-01,9.99999e-01,9.99999e-01,9.48392e-01,9.83342e-01,9.99716e-01
8.368297885e-01,9.47125e-01,9.99999e-01,9.99999e-01,9.62912e-01,9.83668e-01,9.99934e-01
8.410139374e-01,9.62116e-01,9.99999e-01,9.99999e-01,9.77808e-01,9.83988e-01,9.99961e-01
8.452190071e-01,9.73528e-01,9.99999e-01,9.99999e-01,9.89076e-01,9.84302e-01,9.99976e-01
8.494451021e-01,9.78308e-01,9.99999e-01,9.99999e-01,9.93617e-01,9.84610e-01,9.99981e-01
8.536923276e-01,9.81195e-01,9.99999e-01,9.99999e-01,9.96237e-01,9.84911e-01,9.99988e-01
8.579607893e-01,9.82912e-01,9.99999e-01,9.99999e-01,9.97672e-01,9.85207e-01,9.99996e-01
8.622505932e-01,9.84044e-01,9.99999e-01,9.99999e-01,9.98525e-01,9.85497e-01,9.99999e-01
8.665618462e-01,9.84878e-01,9.99999e-01,9.99999e-01,9.99083e-01,9.85782e-01,9.99999e-01
8.708946554e-01,9.85023e-01,9.99999e-01,9.99999e-01,9.98947e-01,9.86061e-01,9.99998e-01
8.752491287e-01,9.84946e-01,9.99999e-01,9.99999e-01,9.98593e-01,9.86334e-01,9.99998e-01
8.796253743e-01,9.84670e-01,9.99999e-01,9.99999e-01,9.98044e-01,9.86602e-01,9.99995e-01
8.840235012e-01,9.84651e-01,9.99999e-01,9.99999e-01,9.97769e-01,9.86865e-01,9.99986e-01
8.884436187e-01,9.78884e-01,9.99999e-01,9.99999e-01,9.91691e-01,9.87123e-01,9.99961e-01
8.928858368e-01,9.05600e-01,9.99999e-01,9.99999e-01,9.17382e-01,9.87375e-01,9.99777e-01
8.973502660e-01,8.48666e-01,9.99999e-01,9.99999e-01,8.60279e-01,9.87623e-01,9.98862e-01
9.018370173e-01,9.13935e-01,9.99999e-01,9.99999e-01,9.26816e-01,9.87866e-01,9.98212e-01
9.063462024e-01,9.21314e-01,9.99999e-01,9.99999e-01,9.33871e-01,9.88104e-01,9.98429e-01
9.108779334e-01,8.87528e-01,9.99999e-01,9.99999e-01,8.99467e-01,9.88338e-01,9.98368e-01
9.154323231e-01,8.75456e-01,9.99999e-01,9.99999e-01,8.86776e-01,9.88567e-01,9.98650e-01
9.200094847e-01,8.99663e-01,9.99999e-01,9.99999e-01,9.10547e-01,9.88792e-01,9.99244e-01
9.246095321e-01,8.51648e-01,9.99999e-01,9.99999e-01,8.61859e-01,9.89012e-01,9.99129e-01
9.292325798e-01,3.77765e-01,9.99999e-01,9.99999e-01,3.83487e-01,9.89228e-01,9.95806e-01
9.338787427e-01,2.88662e-01,9.99999e-01,9.99999e-01,2.96208e-01,9.89439e-01,9.84924e-01
9.385481364e-01,5.94827e-01,9.99999e-01,9.99999e-01,6.11164e-01,9.89647e-01,9.83449e-01
9.432408771e-01,4.93535e-01,9.99999e-01,9.99999e-01,5.05826e-01,9.89850e-01,9.85704e-01
9.479570815e-01,3.85368e-01,9.99999e-01,9.99999e-01,3.93828e-01,9.90050e-01,9.88350e-01
9.526968669e-01,4.85166e-01,9.99999e-01,9.99999e-01,4.93459e-01,9.90245e-01,9.92877e-01
9.574603512e-01,5.08072e-01,9.99999e-01,9.99999e-01,5.14843e-01,9.90437e-01,9.96375e-01
9.622476530e-01,5.74591e-01,9.99999e-01,9.99999e-01,5.81486e-01,9.90625e-01,9.97492e-01
9.670588912e-01,7.22336e-01,9.99999e-01,9.99999e-01,7.30236e-01,9.90809e-01,9.98356e-01
9.718941857e-01,8.11336e-01,9.99999e-01,9.99999e-01,8.19743e-01,9.90990e-01,9.98740e-01
9.767536566e-01,8.39456e-01,9.99999e-01,9.99999e-01,8.47755e-01,9.91167e-01,9.99034e-01
9.816374249e-01,8.77034e-01,9.99999e-01,9.99999e-01,8.84990e-01,9.91341e-01,9.99665e-01
9.865456120e-01,9.18538e-01,9.99999e-01,9.99999e-01,9.26466e-01,9.91511e-01,9.99929e-01
9.914783401e-01,9.45875e-01,9.99999e-01,9.99999e-01,9.53830e-01,9.91678e-01,9.99980e-01
9.964357318e-01,9.66633e-01,9.99999e-01,9.99999e-01,9.74594e-01,9.91842e-01,9.99988e-01
1.001417910e+00,9.76815e-01,9.99999e-01,9.99999e-01,9.84706e-01,9.92002e-01,9.99982e-01
1.006425000e+00,9.83433e-01,9.99999e-01,9.99999e-01,9.91227e-01,9.92160e-01,9.99974e-01
1.011457125e+00,9.86899e-01,9.99999e-01,9.99999e-01,9.94565e-01,9.92314e-01,9.99976e-01
1.016514411e+00,9.88778e-01,9.99999e-01,9.99999e-01,9.96300e-01,9.92465e-01,9.99983e-01
1.021596983e+00,9.89669e-01,9.99999e-01,9.99999e-01,9.97048e-01,9.92613e-01,9.99983e-01
1.026704968e+00,9.90462e-01,9.99999e-01,9.99999e-01,9.97696e-01,9.92759e-01,9.99989e-01
1.031838492e+00,9.91240e-01,9.99999e-01,9.99999e-01,9.98329e-01,9.92901e-01,9.99996e-01
1.036997685e+00,9.92053e-01,9.99999e-01,9.99999e-01,9.99004e-01,9.93041e-01,9.99999e-01
1.042182673e+00,9.91994e-01,9.99999e-01,9.99999e-01,9.98807e-01,9.93178e-01,9.99999e-01
1.047393587e+00,9.91746e-01,9.99999e-01,9.99999e-01,9.98423e-01,9.93312e-01,9.99999e-01
1.052630555e+00,9.91291e-01,9.99999e-01,9.99999e-01,9.97832e-01,9.93444e-01,9.99998e-01
1.057893707e+00,9.89972e-01,9.99999e-01,9.99999e-01,9.96376e-01,9.93573e-01,9.99998e-01
1.063183176e+00,9.87786e-01,9.99999e-01,9.99999e-01,9.94051e-01,9.93699e-01,9.99996e-01
1.068499092e+00,9.83956e-01,9.99999e-01,9.99999e-01,9.90077e-01,9.93823e-01,9.99992e-01
1.073841587e+00,9.82371e-01,9.99999e-01,9.99999e-01,9.88369e-01,9.93945e-01,9.99984e-01
1.079210795e+00,9.79295e-01,9.99999e-01,9.99999e-01,9.85181e-01,9.94064e-01,9.99959e-01
1.084606849e+00,9.71822e-01,9.99999e-01,9.99999e-01,9.77602e-01,9.94181e-01,9.99903e-01
1.090029883e+00,9.62018e-01,9.99999e-01,9.99999e-01,9.67728e-01,9.94296e-01,9.99801e-01
1.095480033e+00,9.09329e-01,9.99999e-01,9.99999e-01,9.14769e-01,9.94408e-01,9.99641e-01
1.100957433e+00,7.93235e-01,9.99999e-01,9.99999e-01,7.98133e-01,9.94518e-01,9.99339e-01
1.106462220e+00,5.64100e-01,9.99999e-01,9.99999e-01,5.67782e-01,9.94626e-01,9.98880e-01
1.111994531e+00,3.08402e-01,9.99999e-01,9.99999e-01,3.10958e-01,9.94732e-01,9.97032e-01
1.117554504e+00,1.53065e-01,9.99999e-01,9.99999e-01,1.55518e-01,9.94836e-01,9.89328e-01
1.123142276e+00,2.60823e-01,9.99999e-01,9.99999e-01,2.68905e-01,9.94937e-01,9.74878e-01
1.128757988e+00,4.01927e-01,9.99999e-01,9.99999e-01,4.15997e-01,9.95037e-01,9.70996e-01
1.134401778e+00,1.99265e-01,9.99999e-01,9.99999e-01,2.05313e-01,9.95135e-01,9.75284e-01
1.140073787e+00,5.70741e-01,9.99999e-01,9.99999e-01,5.85058e-01,9.95231e-01,9.80202e-01
1.145774156e+00,3.30682e-01,9.99999e-01,9.99999e-01,3.38372e-01,9.95325e-01,9.81863e-01
1.151503026e+00,2.96966e-01,9.99999e-01,9.99999e-01,3.01390e-01,9.95417e-01,9.89855e-01
1.157260541e+00,3.52912e-01,9.99999e-01,9.99999e-01,3.55587e-01,9.95507e-01,9.96955e-01
1.163046844e+00,4.62386e-01,9.99999e-01,9.99999e-01,4.64832e-01,9.95596e-01,9.99135e-01
1.168862078e+00,5.80774e-01,9.99999e-01,9.99999e-01,5.83554e-01,9.95683e-01,9.99549e-01
1.174706389e+00,7.13379e-01,9.99999e-01,9.99999e-01,7.16855e-01,9.95768e-01,9.99379e-01
1.180579921e+00,8.12145e-01,9.99999e-01,9.99999e-01,8.16256e-01,9.95851e-01,9.99107e-01
1.186482820e+00,8.86818e-01,9.99999e-01,9.99999e-01,8.91255e-01,9.95933e-01,9.99084e-01
1.192415234e+00,9.30527e-01,9.99999e-01,9.99999e-01,9.34892e-01,9.96013e-01,9.99313e-01
1.198377311e+00,9.40420e-01,9.99999e-01,9.99999e-01,9.44724e-01,9.96092e-01,9.99348e-01
1.204369197e+00,9.43558e-01,9.99999e-01,9.99999e-01,9.47723e-01,9.96169e-01,9.99432e-01
1.210391043e+00,9.46031e-01,9.99999e-01,9.99999e-01,9.49936e-01,9.96244e-01,9.99643e-01
1.216442998e+00,9.53635e-01,9.99999e-01,9.99999e-01,9.57367e-01,9.96318e-01,9.99781e-01
1.222525213e+00,9.62980e-01,9.99999e-01,9.99999e-01,9.66598e-01,9.96391e-01,9.99863e-01
1.228637839e+00,9.73150e-01,9.99999e-01,9.99999e-01,9.76666e-01,9.96462e-01,9.99936e-01
