#,Wave/freq,Total,N2,O2,H2O,Rayleigh,CIA
4.000000000e-01,9.13550e-01,9.99999e-01,9.99999e-01,9.99989e-01,9.13559e-01,9.99999e-01
4.020000000e-01,9.15188e-01,9.99999e-01,9.99999e-01,9.99993e-01,9.15194e-01,9.99999e-01
4.040100000e-01,9.16795e-01,9.99999e-01,9.99999e-01,9.99996e-01,9.16797e-01,9.99999e-01
4.060300500e-01,9.18371e-01,9.99999e-01,9.99999e-01,9.99998e-01,9.18372e-01,9.99999e-01
4.080602003e-01,9.19918e-01,9.99999e-01,9.99999e-01,9.99999e-01,9.19918e-01,9.99999e-01
4.101005013e-01,9.21436e-01,9.99999e-01,9.99999e-01,9.99999e-01,9.21436e-01,9.99999e-01
4.121510038e-01,9.22926e-01,9.99999e-01,9.99999e-01,9.99999e-01,9.22926e-01,9.99999e-01
4.142117588e-01,9.24387e-01,9.99999e-01,9.99999e-01,9.99996e-01,9.24389e-01,9.99999e-01
4.162828176e-01,9.25814e-01,9.99999e-01,9.99999e-01,9.99986e-01,9.25826e-01,9.99999e-01
4.183642317e-01,9.27230e-01,9.99999e-01,9.99999e-01,9.99991e-01,9.27236e-01,9.99999e-01
4.204560528e-01,9.28617e-01,9.99999e-01,9.99999e-01,9.99994e-01,9.28621e-01,9.99999e-01
4.225583331e-01,9.29979e-01,9.99999e-01,9.99999e-01,9.99997e-01,9.29980e-01,9.99999e-01
4.246711247e-01,9.31314e-01,9.99999e-01,9.99999e-01,9.99998e-01,9.31315e-01,9.99999e-01
4.267944804e-01,9.32623e-01,9.99999e-01,9.99999e-01,9.99997e-01,9.32625e-01,9.99999e-01
4.289284528e-01,9.33909e-01,9.99999e-01,9.99999e-01,9.99997e-01,9.33911e-01,9.99999e-01
4.310730950e-01,9.35172e-01,9.99999e-01,9.99999e-01,9.99998e-01,9.35173e-01,9.99999e-01
4.332284605e-01,9.36411e-01,9.99999e-01,9.99999e-01,9.99999e-01,9.36412e-01,9.99999e-01
4.353946028e-01,9.37628e-01,9.99999e-01,9.99999e-01,9.99999e-01,9.37628e-01,9.99999e-01
4.375715758e-01,9.38820e-01,9.99999e-01,9.99999e-01,9.99998e-01,9.38821e-01,9.99999e-01
4.397594337e-01,9.39982e-01,9.99999e-01,9.99999e-01,9.99988e-01,9.39993e-01,9.99999e-01
4.419582309e-01,9.41090e-01,9.99999e-01,9.99999e-01,9.99944e-01,9.41142e-01,9.99999e-01
4.441680220e-01,9.42229e-01,9.99999e-01,9.99999e-01,9.99955e-01,9.42271e-01,9.99999e-01
4.463888621e-01,9.43335e-01,9.99999e-01,9.99999e-01,9.99953e-01,9.43378e-01,9.99999e-01
4.486208064e-01,9.44438e-01,9.99999e-01,9.99999e-01,9.99970e-01,9.44465e-01,9.99999e-01
4.508639105e-01,9.45519e-01,9.99999e-01,9.99999e-01,9.99986e-01,9.45531e-01,9.99999e-01
4.531182300e-01,9.46573e-01,9.99999e-01,9.99999e-01,9.99994e-01,9.46578e-01,9.99999e-01
4.553838212e-01,9.47601e-01,9.99999e-01,9.99999e-01,9.99995e-01,9.47605e-01,9.99999e-01
4.576607403e-01,9.48611e-01,9.99999e-01,9.99999e-01,9.99997e-01,9.48613e-01,9.99999e-01
4.599490440e-01,9.49601e-01,9.99999e-01,9.99999e-01,9.99998e-01,9.49602e-01,9.99999e-01
4.622487892e-01,9.50572e-01,9.99999e-01,9.99999e-01,9.99999e-01,9.50572e-01,9.99999e-01
4.645600332e-01,9.51524e-01,9.99999e-01,9.99999e-01,9.99998e-01,9.51524e-01,9.99999e-01
4.668828333e-01,9.52446e-01,9.99999e-01,9.99999e-01,9.99986e-01,9.52459e-01,9.99999e-01
4.692172475e-01,9.53348e-01,9.99999e-01,9.99999e-01,9.99970e-01,9.53376e-01,9.99999e-01
4.715633337e-01,9.54257e-01,9.99999e-01,9.99999e-01,9.99980e-01,9.54275e-01,9.99999e-01
4.739211504e-01,9.55140e-01,9.99999e-01,9.99999e-01,9.99981e-01,9.55158e-01,9.99999e-01
4.762907561e-01,9.56015e-01,9.99999e-01,9.99999e-01,9.99990e-01,9.56024e-01,9.99999e-01
4.786722099e-01,9.56870e-01,9.99999e-01,9.99999e-01,9.99995e-01,9.56873e-01,9.99999e-01
4.810655710e-01,9.57706e-01,9.99999e-01,9.99999e-01,9.99998e-01,9.57707e-01,9.99999e-01
4.834708988e-01,9.58514e-01,9.99999e-01,9.99999e-01,9.99988e-01,9.58525e-01,9.99999e-01
4.858882533e-01,9.59307e-01,9.99999e-01,9.99999e-01,9.99979e-01,9.59327e-01,9.99999e-01
4.883176946e-01,9.60098e-01,9.99999e-01,9.99999e-01,9.99982e-01,9.60114e-01,9.99999e-01
4.907592831e-01,9.60871e-01,9.99999e-01,9.99999e-01,9.99984e-01,9.60886e-01,9.99999e-01
4.932130795e-01,9.61633e-01,9.99999e-01,9.99999e-01,9.99988e-01,9.61644e-01,9.99999e-01
4.956791449e-01,9.62381e-01,9.99999e-01,9.99999e-01,9.99993e-01,9.62387e-01,9.99999e-01
4.981575406e-01,9.63088e-01,9.99999e-01,9.99999e-01,9.99970e-01,9.63116e-01,9.99999e-01
5.006483283e-01,9.63760e-01,9.99999e-01,9.99999e-01,9.99925e-01,9.63831e-01,9.99998e-01
5.031515699e-01,9.64164e-01,9.99999e-01,9.99999e-01,9.99621e-01,9.64533e-01,9.99995e-01
5.056673278e-01,9.65023e-01,9.99999e-01,9.99999e-01,9.99799e-01,9.65221e-01,9.99994e-01
5.081956644e-01,9.65649e-01,9.99999e-01,9.99999e-01,9.99746e-01,9.65896e-01,9.99996e-01
5.107366428e-01,9.66393e-01,9.99999e-01,9.99999e-01,9.99828e-01,9.66558e-01,9.99998e-01
5.132903260e-01,9.67113e-01,9.99999e-01,9.99999e-01,9.99901e-01,9.67208e-01,9.99999e-01
5.158567776e-01,9.67805e-01,9.99999e-01,9.99999e-01,9.99958e-01,9.67845e-01,9.99999e-01
5.184360615e-01,9.68454e-01,9.99999e-01,9.99999e-01,9.99982e-01,9.68470e-01,9.99999e-01
5.210282418e-01,9.69077e-01,9.99999e-01,9.99999e-01,9.99993e-01,9.69083e-01,9.99999e-01
5.236333830e-01,9.69660e-01,9.99999e-01,9.99999e-01,9.99974e-01,9.69684e-01,9.99999e-01
5.262515499e-01,9.70259e-01,9.99999e-01,9.99999e-01,9.99984e-01,9.70274e-01,9.99999e-01
5.288828077e-01,9.70839e-01,9.99999e-01,9.99999e-01,9.99985e-01,9.70853e-01,9.99999e-01
5.315272217e-01,9.71408e-01,9.99999e-01,9.99999e-01,9.99986e-01,9.71420e-01,9.99999e-01
5.341848578e-01,9.71969e-01,9.99999e-01,9.99999e-01,9.99991e-01,9.71977e-01,9.99999e-01
5.368557821e-01,9.72495e-01,9.99999e-01,9.99999e-01,9.99970e-01,9.72523e-01,9.99999e-01
5.395400610e-01,9.72957e-01,9.99999e-01,9.99999e-01,9.99896e-01,9.73058e-01,9.99998e-01
5.422377613e-01,9.73450e-01,9.99999e-01,9.99999e-01,9.99864e-01,9.73583e-01,9.99997e-01
5.449489501e-01,9.73974e-01,9.99999e-01,9.99999e-01,9.99875e-01,9.74098e-01,9.99996e-01
5.476736949e-01,9.74494e-01,9.99999e-01,9.99999e-01,9.99888e-01,9.74603e-01,9.99998e-01
5.504120634e-01,9.75019e-01,9.99999e-01,9.99999e-01,9.99918e-01,9.75098e-01,9.99999e-01
5.531641237e-01,9.75545e-01,9.99999e-01,9.99999e-01,9.99958e-01,9.75584e-01,9.99999e-01
5.559299443e-01,9.76041e-01,9.99999e-01,9.99999e-01,9.99979e-01,9.76061e-01,9.99999e-01
5.587095940e-01,9.76516e-01,9.99999e-01,9.99999e-01,9.99987e-01,9.76528e-01,9.99999e-01
5.615031420e-01,9.76973e-01,9.99999e-01,9.99999e-01,9.99985e-01,9.76986e-01,9.99999e-01
5.643106577e-01,9.77420e-01,9.99999e-01,9.99999e-01,9.99984e-01,9.77435e-01,9.99999e-01
5.671322110e-01,9.77695e-01,9.99999e-01,9.99999e-01,9.99815e-01,9.77876e-01,9.99997e-01
5.699678720e-01,9.78106e-01,9.99999e-01,9.99999e-01,9.99798e-01,9.78308e-01,9.99994e-01
5.728177114e-01,9.78525e-01,9.99999e-01,9.99999e-01,9.99792e-01,9.78732e-01,9.99995e-01
5.756818000e-01,9.78959e-01,9.99999e-01,9.99999e-01,9.99808e-01,9.79148e-01,9.99996e-01
5.785602090e-01,9.79392e-01,9.99999e-01,9.99999e-01,9.99833e-01,9.79555e-01,9.99998e-01
5.814530100e-01,9.79791e-01,9.99999e-01,9.99999e-01,9.99832e-01,9.79955e-01,9.99999e-01
5.843602750e-01,9.80153e-01,9.99999e-01,9.99999e-01,9.99802e-01,9.80347e-01,9.99998e-01
5.872820764e-01,9.79050e-01,9.99999e-01,9.99999e-01,9.98296e-01,9.80732e-01,9.99987e-01
5.902184868e-01,9.79033e-01,9.99999e-01,9.99999e-01,9.97916e-01,9.81109e-01,9.99966e-01
5.931695792e-01,9.80007e-01,9.99999e-01,9.99999e-01,9.98532e-01,9.81478e-01,9.99967e-01
5.961354271e-01,9.80240e-01,9.99999e-01,9.99999e-01,9.98387e-01,9.81841e-01,9.99980e-01
5.991161043e-01,9.81035e-01,9.99999e-01,9.99999e-01,9.98822e-01,9.82196e-01,9.99993e-01
6.021116848e-01,9.81887e-01,9.99999e-01,9.99999e-01,9.99331e-01,9.82545e-01,9.99998e-01
6.051222432e-01,9.82554e-01,9.99999e-01,9.99999e-01,9.99661e-01,9.82887e-01,9.99999e-01
6.081478544e-01,9.83078e-01,9.99999e-01,9.99999e-01,9.99853e-01,9.83222e-01,9.99999e-01
6.111885937e-01,9.83490e-01,9.99999e-01,9.99999e-01,9.99937e-01,9.83550e-01,9.99999e-01
6.142445367e-01,9.83846e-01,9.99999e-01,9.99999e-01,9.99971e-01,9.83873e-01,9.99999e-01
6.173157594e-01,9.84174e-01,9.99999e-01,9.99999e-01,9.99984e-01,9.84189e-01,9.99999e-01
6.204023382e-01,9.84486e-01,9.99999e-01,9.99999e-01,9.99986e-01,9.84499e-01,9.99999e-01
6.235043498e-01,9.84748e-01,9.99999e-01,9.99999e-01,9.99944e-01,9.84802e-01,9.99999e-01
6.266218716e-01,9.84804e-01,9.99999e-01,9.99999e-01,9.99700e-01,9.85100e-01,9.99997e-01
6.297549810e-01,9.85280e-01,9.99999e-01,9.99999e-01,9.99890e-01,9.85392e-01,9.99995e-01
6.329037559e-01,9.85462e-01,9.99999e-01,9.99999e-01,9.99782e-01,9.85679e-01,9.99996e-01
6.360682746e-01,9.85776e-01,9.99999e-01,9.99999e-01,9.99815e-01,9.85960e-01,9.99997e-01
6.392486160e-01,9.85999e-01,9.99999e-01,9.99999e-01,9.99760e-01,9.86235e-01,9.99998e-01
6.424448591e-01,9.86221e-01,9.99999e-01,9.99999e-01,9.99713e-01,9.86505e-01,9.99998e-01
6.456570834e-01,9.85319e-01,9.99999e-01,9.99999e-01,9.98537e-01,9.86770e-01,9.99991e-01
6.488853688e-01,9.85742e-01,9.99999e-01,9.99999e-01,9.98718e-01,9.87029e-01,9.99976e-01
6.521297956e-01,9.86167e-01,9.99999e-01,9.99999e-01,9.98887e-01,9.87284e-01,9.99980e-01
6.553904446e-01,9.86436e-01,9.99999e-01,9.99999e-01,9.98902e-01,9.87534e-01,9.99985e-01
6.586673968e-01,9.86836e-01,9.99999e-01,9.99999e-01,9.99050e-01,9.87778e-01,9.99994e-01
6.619607338e-01,9.87476e-01,9.99999e-01,9.99999e-01,9.99451e-01,9.88018e-01,9.99998e-01
6.652705375e-01,9.87939e-01,9.99999e-01,9.99999e-01,9.99681e-01,9.88254e-01,9.99998e-01
6.685968902e-01,9.88338e-01,9.99999e-01,9.99999e-01,9.99851e-01,9.88484e-01,9.99999e-01
6.719398746e-01,9.88643e-01,9.99999e-01,9.99999e-01,9.99930e-01,9.88710e-01,9.99999e-01
6.752995740e-01,9.88896e-01,9.99999e-01,9.99999e-01,9.99962e-01,9.88932e-01,9.99999e-01
6.786760719e-01,9.89097e-01,9.99999e-01,9.99999e-01,9.99946e-01,9.89149e-01,9.99999e-01
6.820694522e-01,9.89272e-01,9.99999e-01,9.99999e-01,9.99908e-01,9.89363e-01,9.99999e-01
6.854797995e-01,9.89455e-01,9.99999e-01,9.99999e-01,9.99882e-01,9.89572e-01,9.99998e-01
6.889071985e-01,9.89498e-01,9.99999e-01,9.99999e-01,9.99720e-01,9.89777e-01,9.99996e-01
6.923517345e-01,9.85384e-01,9.99999e-01,9.99999e-01,9.95381e-01,9.89977e-01,9.99977e-01
6.958134932e-01,9.87695e-01,9.99999e-01,9.99999e-01,9.97545e-01,9.90174e-01,9.99949e-01
6.992925606e-01,9.88063e-01,9.99999e-01,9.99999e-01,9.97716e-01,9.90368e-01,9.99955e-01
7.027890234e-01,9.87709e-01,9.99999e-01,9.99999e-01,9.97157e-01,9.90557e-01,9.99965e-01
7.063029686e-01,9.88362e-01,9.99999e-01,9.99999e-01,9.97613e-01,9.90743e-01,9.99982e-01
7.098344834e-01,9.88646e-01,9.99999e-01,9.99999e-01,9.97710e-01,9.90925e-01,9.99989e-01
7.133836558e-01,9.88099e-01,9.99999e-01,9.99999e-01,9.96988e-01,9.91103e-01,9.99979e-01
7.169505741e-01,9.67082e-01,9.99999e-01,9.99999e-01,9.75742e-01,9.91278e-01,9.99843e-01
7.205353270e-01,9.79127e-01,9.99999e-01,9.99999e-01,9.87842e-01,9.91449e-01,9.99724e-01
7.241380036e-01,9.76349e-01,9.99999e-01,9.99999e-01,9.84838e-01,9.91618e-01,9.99759e-01
7.277586936e-01,9.77995e-01,9.99999e-01,9.99999e-01,9.86294e-01,9.91782e-01,9.99800e-01
7.313974871e-01,9.77324e-01,9.99999e-01,9.99999e-01,9.85350e-01,9.91944e-01,9.99908e-01
7.350544745e-01,9.84131e-01,9.99999e-01,9.99999e-01,9.91995e-01,9.92103e-01,9.99967e-01
7.387297469e-01,9.86394e-01,9.99999e-01,9.99999e-01,9.94103e-01,9.92258e-01,9.99985e-01
7.424233956e-01,9.89535e-01,9.99999e-01,9.99999e-01,9.97105e-01,9.92410e-01,9.99996e-01
7.461355126e-01,9.90821e-01,9.99999e-01,9.99999e-01,9.98248e-01,9.92560e-01,9.99999e-01
7.498661902e-01,9.91894e-01,9.99999e-01,9.99999e-01,9.99182e-01,9.92706e-01,9.99999e-01
7.536155211e-01,9.92453e-01,9.99999e-01,9.99999e-01,9.99599e-01,9.92850e-01,9.99999e-01
7.573835987e-01,9.92786e-01,9.99999e-01,9.99999e-01,9.99793e-01,9.92990e-01,9.99999e-01
7.611705167e-01,9.93001e-01,9.99999e-01,9.99999e-01,9.99871e-01,9.93128e-01,9.99999e-01
7.649763693e-01,9.93184e-01,9.99999e-01,9.99999e-01,9.99919e-01,9.93264e-01,9.99999e-01
7.688012511e-01,9.93341e-01,9.99999e-01,9.99999e-01,9.99943e-01,9.93396e-01,9.99999e-01
7.726452574e-01,9.93481e-01,9.99999e-01,9.99999e-01,9.99953e-01,9.93526e-01,9.99999e-01
7.765084837e-01,9.93589e-01,9.99999e-01,9.99999e-01,9.99935e-01,9.93654e-01,9.99999e-01
7.803910261e-01,9.93502e-01,9.99999e-01,9.99999e-01,9.99721e-01,9.93779e-01,9.99999e-01
7.842929812e-01,9.92934e-01,9.99999e-01,9.99999e-01,9.99027e-01,9.93901e-01,9.99997e-01
7.882144461e-01,9.92001e-01,9.99999e-01,9.99999e-01,9.97979e-01,9.94021e-01,9.99987e-01
7.921555184e-01,9.93008e-01,9.99999e-01,9.99999e-01,9.98885e-01,9.94139e-01,9.99975e-01
7.961162960e-01,9.92297e-01,9.99999e-01,9.99999e-01,9.98053e-01,9.94254e-01,9.99976e-01
8.000968774e-01,9.92096e-01,9.99999e-01,9.99999e-01,9.97739e-01,9.94367e-01,9.99975e-01
8.040973618e-01,9.92214e-01,9.99999e-01,9.99999e-01,9.97742e-01,9.94478e-01,9.99980e-01
8.081178486e-01,9.89543e-01,9.99999e-01,9.99999e-01,9.94946e-01,9.94587e-01,9.99981e-01
8.121584379e-01,9.73728e-01,9.99999e-01,9.99999e-01,9.78991e-01,9.94694e-01,9.99928e-01
8.162192301e-01,9.69496e-01,9.99999e-01,9.99999e-01,9.74825e-01,9.94798e-01,9.99731e-01
8.203003262e-01,9.82204e-01,9.99999e-01,9.99999e-01,9.87547e-01,9.94901e-01,9.99685e-01
8.244018279e-01,9.76972e-01,9.99999e-01,9.99999e-01,9.82124e-01,9.95001e-01,9.99749e-01
8.285238370e-01,9.80010e-01,9.99999e-01,9.99999e-01,9.85028e-01,9.95100e-01,9.99803e-01
8.326664562e-01,9.79984e-01,9.99999e-01,9.99999e-01,9.84793e-01,9.95196e-01,9.99918e-01
8.368297885e-01,9.84441e-01,9.99999e-01,9.99999e-01,9.89116e-01,9.95291e-01,9.99980e-01
8.410139374e-01,9.88925e-01,9.99999e-01,9.99999e-01,9.93521e-01,9.95384e-01,9.99988e-01
8.452190071e-01,9.92300e-01,9.99999e-01,9.99999e-01,9.96816e-01,9.95475e-01,9.99993e-01
8.494451021e-01,9.93727e-01,9.99999e-01,9.99999e-01,9.98159e-01,9.95564e-01,9.99994e-01
8.536923276e-01,9.94560e-01,9.99999e-01,9.99999e-01,9.98907e-01,9.95651e-01,9.99996e-01
8.579607893e-01,9.95069e-01,9.99999e-01,9.99999e-01,9.99329e-01,9.95737e-01,9.99998e-01
8.622505932e-01,9.95396e-01,9.99999e-01,9.99999e-01,9.99572e-01,9.95821e-01,9.99999e-01
8.665618462e-01,9.95641e-01,9.99999e-01,9.99999e-01,9.99736e-01,9.95903e-01,9.99999e-01
8.708946554e-01,9.95685e-01,9.99999e-01,9.99999e-01,9.99699e-01,9.95984e-01,9.99999e-01
8.752491287e-01,9.95662e-01,9.99999e-01,9.99999e-01,9.99597e-01,9.96063e-01,9.99999e-01
8.796253743e-01,9.95586e-01,9.99999e-01,9.99999e-01,9.99444e-01,9.96141e-01,9.99998e-01
8.840235012e-01,9.95580e-01,9.99999e-01,9.99999e-01,9.99364e-01,9.96217e-01,9.99995e-01
8.884436187e-01,9.94013e-01,9.99999e-01,9.99999e-01,9.97724e-01,9.96291e-01,9.99988e-01
8.928858368e-01,9.72249e-01,9.99999e-01,9.99999e-01,9.75858e-01,9.96364e-01,9.99935e-01
8.973502660e-01,9.53476e-01,9.99999e-01,9.99999e-01,9.57198e-01,9.96436e-01,9.99673e-01
9.018370173e-01,9.73833e-01,9.99999e-01,9.99999e-01,9.77747e-01,9.96506e-01,9.99487e-01
9.063462024e-01,9.76935e-01,9.99999e-01,9.99999e-01,9.80733e-01,9.96575e-01,9.99549e-01
9.108779334e-01,9.66234e-01,9.99999e-01,9.99999e-01,9.69941e-01,9.96643e-01,9.99531e-01
9.154323231e-01,9.62335e-01,9.99999e-01,9.99999e-01,9.65885e-01,9.96709e-01,9.99612e-01
9.200094847e-01,9.69739e-01,9.99999e-01,9.99999e-01,9.73088e-01,9.96774e-01,9.99783e-01
9.246095321e-01,9.55435e-01,9.99999e-01,9.99999e-01,9.58704e-01,9.96837e-01,9.99750e-01
9.292325798e-01,7.46147e-01,9.99999e-01,9.99999e-01,7.49195e-01,9.96900e-01,9.99027e-01
9.338787427e-01,6.80656e-01,9.99999e-01,9.99999e-01,6.85481e-01,9.96961e-01,9.95987e-01
9.385481364e-01,8.52383e-01,9.99999e-01,9.99999e-01,8.59027e-01,9.97021e-01,9.95229e-01
9.432408771e-01,8.03318e-01,9.99999e-01,9.99999e-01,8.09001e-01,9.97080e-01,9.95882e-01
9.479570815e-01,7.39703e-01,9.99999e-01,9.99999e-01,7.44321e-01,9.97137e-01,9.96647e-01
9.526968669e-01,7.98044e-01,9.99999e-01,9.99999e-01,8.01930e-01,9.97194e-01,9.97953e-01
9.574603512e-01,8.16726e-01,9.99999e-01,9.99999e-01,8.19830e-01,9.97249e-01,9.98959e-01
9.622476530e-01,8.48040e-01,9.99999e-01,9.99999e-01,8.50944e-01,9.97303e-01,9.99280e-01
9.670588912e-01,9.08640e-01,9.99999e-01,9.99999e-01,9.11496e-01,9.97356e-01,9.99507e-01
9.718941857e-01,9.41307e-01,9.99999e-01,9.99999e-01,9.44093e-01,9.97408e-01,9.99637e-01
9.767536566e-01,9.50721e-01,9.99999e-01,9.99999e-01,9.53406e-01,9.97460e-01,9.99722e-01
9.816374249e-01,9.62717e-01,9.99999e-01,9.99999e-01,9.65212e-01,9.97510e-01,9.99903e-01
9.865456120e-01,9.75727e-01,9.99999e-01,9.99999e-01,9.78133e-01,9.97559e-01,9.99979e-01
9.914783401e-01,9.84081e-01,9.99999e-01,9.99999e-01,9.86446e-01,9.97607e-01,9.99993e-01
9.964357318e-01,9.90264e-01,9.99999e-01,9.99999e-01,9.92595e-01,9.97654e-01,9.99996e-01
1.001417910e+00,9.93262e-01,9.99999e-01,9.99999e-01,9.95556e-01,9.97700e-01,9.99994e-01
1.006425000e+00,9.95215e-01,9.99999e-01,9.99999e-01,9.97470e-01,9.97746e-01,9.99992e-01
1.011457125e+00,9.96213e-01,9.99999e-01,9.99999e-01,9.98424e-01,9.97790e-01,9.99992e-01
1.016514411e+00,9.96764e-01,9.99999e-01,9.99999e-01,9.98932e-01,9.97834e-01,9.99994e-01
1.021596983e+00,9.97024e-01,9.99999e-01,9.99999e-01,9.99149e-01,9.97877e-01,9.99994e-01
1.026704968e+00,9.97254e-01,9.99999e-01,9.99999e-01,9.99337e-01,9.97918e-01,9.99996e-01
1.031838492e+00,9.97477e-01,9.99999e-01,9.99999e-01,9.99517e-01,9.97959e-01,9.99998e-01
1.036997685e+00,9.97714e-01,9.99999e-01,9.99999e-01,9.99713e-01,9.98000e-01,9.99999e-01
1.042182673e+00,9.97700e-01,9.99999e-01,9.99999e-01,9.99659e-01,9.98039e-01,9.99999e-01
1.047393587e+00,9.97627e-01,9.99999e-01,9.99999e-01,9.99548e-01,9.98078e-01,9.99999e-01
1.052630555e+00,9.97498e-01,9.99999e-01,9.99999e-01,9.99381e-01,9.98116e-01,9.99999e-01
1.057893707e+00,9.97124e-01,9.99999e-01,9.99999e-01,9.98968e-01,9.98153e-01,9.99999e-01
1.063183176e+00,9.96493e-01,9.99999e-01,9.99999e-01,9.98301e-01,9.98189e-01,9.99998e-01
1.068499092e+00,9.95381e-01,9.99999e-01,9.99999e-01,9.97151e-01,9.98225e-01,9.99997e-01
1.073841587e+00,9.94935e-01,9.99999e-01,9.99999e-01,9.96672e-01,9.98260e-01,9.99995e-01
1.079210795e+00,9.94014e-01,9.99999e-01,9.99999e-01,9.95723e-01,9.98294e-01,9.99988e-01
1.084606849e+00,9.91854e-01,9.99999e-01,9.99999e-01,9.93541e-01,9.98328e-01,9.99972e-01
1.090029883e+00,9.89105e-01,9.99999e-01,9.99999e-01,9.90784e-01,9.98361e-01,9.99942e-01
1.095480033e+00,9.73363e-01,9.99999e-01,9.99999e-01,9.75028e-01,9.98393e-01,9.99896e-01
1.100957433e+00,9.35984e-01,9.99999e-01,9.99999e-01,9.37637e-01,9.98425e-01,9.99810e-01
1.106462220e+00,8.46816e-01,9.99999e-01,9.99999e-01,8.48396e-01,9.98456e-01,9.99678e-01
1.111994531e+00,7.03327e-01,9.99999e-01,9.99999e-01,7.04992e-01,9.98487e-01,9.99148e-01
1.117554504e+00,5.63297e-01,9.99999e-01,9.99999e-01,5.65870e-01,9.98516e-01,9.96930e-01
1.123142276e+00,6.46478e-01,9.99999e-01,9.99999e-01,6.52155e-01,9.98546e-01,9.92736e-01
1.128757988e+00,7.56838e-01,9.99999e-01,9.99999e-01,7.64336e-01,9.98574e-01,9.91602e-01
1.134401778e+00,5.20411e-01,9.99999e-01,9.99999e-01,5.24978e-01,9.98602e-01,9.92686e-01
1.140073787e+00,8.47477e-01,9.99999e-01,9.99999e-01,8.53645e-01,9.98630e-01,9.94135e-01
1.145774156e+00,7.10778e-01,9.99999e-01,9.99999e-01,7.15475e-01,9.98657e-01,9.94769e-01
1.151503026e+00,6.84536e-01,9.99999e-01,9.99999e-01,6.87443e-01,9.98684e-01,9.97082e-01
1.157260541e+00,7.33513e-01,9.99999e-01,9.99999e-01,7.35102e-01,9.98709e-01,9.99126e-01
1.163046844e+00,7.95440e-01,9.99999e-01,9.99999e-01,7.96643e-01,9.98735e-01,9.99751e-01
1.168862078e+00,8.53487e-01,9.99999e-01,9.99999e-01,8.54655e-01,9.98760e-01,9.99871e-01
1.174706389e+00,9.06429e-01,9.99999e-01,9.99999e-01,9.07684e-01,9.98784e-01,9.99830e-01
1.180579921e+00,9.41386e-01,9.99999e-01,9.99999e-01,9.42749e-01,9.98808e-01,9.99743e-01
1.186482820e+00,9.65932e-01,9.99999e-01,9.99999e-01,9.67315e-01,9.98832e-01,9.99737e-01
1.192415234e+00,9.79512e-01,9.99999e-01,9.99999e-01,9.80826e-01,9.98855e-01,9.99803e-01
1.198377311e+00,9.82560e-01,9.99999e-01,9.99999e-01,9.83845e-01,9.98877e-01,9.99813e-01
1.204369197e+00,9.83434e-01,9.99999e-01,9.99999e-01,9.84681e-01,9.98900e-01,9.99831e-01
1.210391043e+00,9.84187e-01,9.99999e-01,9.99999e-01,9.85349e-01,9.98921e-01,9.99897e-01
1.216442998e+00,9.86391e-01,9.99999e-01,9.99999e-01,9.87495e-01,9.98943e-01,9.99936e-01
1.222525213e+00,9.89202e-01,9.99999e-01,9.99999e-01,9.90266e-01,9.98963e-01,9.99960e-01
1.228637839e+00,9.92211e-01,9.99999e-01,9.99999e-01,9.93237e-01,9.98984e-01,9.99981e-01
