#,Wave/freq,Total,N2,O2,H2O,Rayleigh,CIA
4.000000000e-01,6.70660e-01,9.99999e-01,9.99999e-01,9.99954e-01,6.70690e-01,9.99999e-01
4.020000000e-01,6.75989e-01,9.99999e-01,9.99999e-01,9.99971e-01,6.76008e-01,9.99999e-01
4.040100000e-01,6.81248e-01,9.99999e-01,9.99999e-01,9.99987e-01,6.81256e-01,9.99999e-01
4.060300500e-01,6.86439e-01,9.99999e-01,9.99999e-01,9.99996e-01,6.86441e-01,9.99999e-01
4.080602003e-01,6.91561e-01,9.99999e-01,9.99999e-01,9.99998e-01,6.91561e-01,9.99999e-01
4.101005013e-01,6.96617e-01,9.99999e-01,9.99999e-01,9.99999e-01,6.96617e-01,9.99999e-01
4.121510038e-01,7.01609e-01,9.99999e-01,9.99999e-01,9.99997e-01,7.01610e-01,9.99999e-01
4.142117588e-01,7.06529e-01,9.99999e-01,9.99999e-01,9.99986e-01,7.06538e-01,9.99999e-01
4.162828176e-01,7.11363e-01,9.99999e-01,9.99999e-01,9.99943e-01,7.11403e-01,9.99999e-01
4.183642317e-01,7.16180e-01,9.99999e-01,9.99999e-01,9.99966e-01,7.16204e-01,9.99999e-01
4.204560528e-01,7.20927e-01,9.99999e-01,9.99999e-01,9.99979e-01,7.20941e-01,9.99999e-01
4.225583331e-01,7.25610e-01,9.99999e-01,9.99999e-01,9.99991e-01,7.25616e-01,9.99999e-01
4.246711247e-01,7.30223e-01,9.99999e-01,9.99999e-01,9.99993e-01,7.30227e-01,9.99999e-01
4.267944804e-01,7.34770e-01,9.99999e-01,9.99999e-01,9.99990e-01,7.34776e-01,9.99999e-01
4.289284528e-01,7.39258e-01,9.99999e-01,9.99999e-01,9.99992e-01,7.39263e-01,9.99999e-01
4.310730950e-01,7.43685e-01,9.99999e-01,9.99999e-01,9.99996e-01,7.43688e-01,9.99999e-01
4.332284605e-01,7.48050e-01,9.99999e-01,9.99999e-01,9.99998e-01,7.48050e-01,9.99999e-01
4.353946028e-01,7.52352e-01,9.99999e-01,9.99999e-01,9.99999e-01,7.52352e-01,9.99999e-01
4.375715758e-01,7.56588e-01,9.99999e-01,9.99999e-01,9.99993e-01,7.56592e-01,9.99999e-01
4.397594337e-01,7.60735e-01,9.99999e-01,9.99999e-01,9.99950e-01,7.60772e-01,9.99999e-01
4.419582309e-01,7.64700e-01,9.99999e-01,9.99999e-01,9.99747e-01,7.64892e-01,9.99999e-01
4.441680220e-01,7.68804e-01,9.99999e-01,9.99999e-01,9.99806e-01,7.68952e-01,9.99999e-01
4.463888621e-01,7.72797e-01,9.99999e-01,9.99999e-01,9.99797e-01,7.72953e-01,9.99999e-01
4.486208064e-01,7.76798e-01,9.99999e-01,9.99999e-01,9.99874e-01,7.76895e-01,9.99999e-01
4.508639105e-01,7.80733e-01,9.99999e-01,9.99999e-01,9.99940e-01,7.80779e-01,9.99999e-01
4.531182300e-01,7.84587e-01,9.99999e-01,9.99999e-01,9.99976e-01,7.84605e-01,9.99999e-01
4.553838212e-01,7.88361e-01,9.99999e-01,9.99999e-01,9.99983e-01,7.88373e-01,9.99999e-01
4.576607403e-01,7.92079e-01,9.99999e-01,9.99999e-01,9.99992e-01,7.92085e-01,9.99999e-01
4.599490440e-01,7.95736e-01,9.99999e-01,9.99999e-01,9.99994e-01,7.95740e-01,9.99999e-01
4.622487892e-01,7.99338e-01,9.99999e-01,9.99999e-01,9.99998e-01,7.99339e-01,9.99999e-01
4.645600332e-01,8.02880e-01,9.99999e-01,9.99999e-01,9.99995e-01,8.02883e-01,9.99999e-01
4.668828333e-01,8.06324e-01,9.99999e-01,9.99999e-01,9.99939e-01,8.06373e-01,9.99999e-01
4.692172475e-01,8.09705e-01,9.99999e-01,9.99999e-01,9.99872e-01,8.09808e-01,9.99999e-01
4.715633337e-01,8.13122e-01,9.99999e-01,9.99999e-01,9.99916e-01,8.13189e-01,9.99999e-01
4.739211504e-01,8.16453e-01,9.99999e-01,9.99999e-01,9.99920e-01,8.16517e-01,9.99999e-01
4.762907561e-01,8.19760e-01,9.99999e-01,9.99999e-01,9.99958e-01,8.19793e-01,9.99999e-01
4.786722099e-01,8.23003e-01,9.99999e-01,9.99999e-01,9.99982e-01,8.23017e-01,9.99999e-01
4.810655710e-01,8.26186e-01,9.99999e-01,9.99999e-01,9.99994e-01,8.26190e-01,9.99999e-01
4.834708988e-01,8.29270e-01,9.99999e-01,9.99999e-01,9.99950e-01,8.29311e-01,9.99999e-01
4.858882533e-01,8.32308e-01,9.99999e-01,9.99999e-01,9.99910e-01,8.32383e-01,9.99999e-01
4.883176946e-01,8.35342e-01,9.99999e-01,9.99999e-01,9.99924e-01,8.35405e-01,9.99999e-01
4.907592831e-01,8.38321e-01,9.99999e-01,9.99999e-01,9.99931e-01,8.38378e-01,9.99999e-01
4.932130795e-01,8.41262e-01,9.99999e-01,9.99999e-01,9.99951e-01,8.41302e-01,9.99999e-01
4.956791449e-01,8.44157e-01,9.99999e-01,9.99999e-01,9.99974e-01,8.44179e-01,9.99999e-01
4.981575406e-01,8.46899e-01,9.99999e-01,9.99999e-01,9.99871e-01,8.47008e-01,9.99999e-01
5.006483283e-01,8.49505e-01,9.99999e-01,9.99999e-01,9.99666e-01,8.49790e-01,9.99997e-01
5.031515699e-01,8.51082e-01,9.99999e-01,9.99999e-01,9.98321e-01,8.52527e-01,9.99981e-01
5.056673278e-01,8.54446e-01,9.99999e-01,9.99999e-01,9.99116e-01,8.55218e-01,9.99979e-01
5.081956644e-01,8.56898e-01,9.99999e-01,9.99999e-01,9.98886e-01,8.57864e-01,9.99987e-01
5.107366428e-01,8.59817e-01,9.99999e-01,9.99999e-01,9.99248e-01,8.60466e-01,9.99997e-01
5.132903260e-01,8.62653e-01,9.99999e-01,9.99999e-01,9.99570e-01,8.63024e-01,9.99999e-01
5.158567776e-01,8.65382e-01,9.99999e-01,9.99999e-01,9.99818e-01,8.65539e-01,9.99999e-01
5.184360615e-01,8.67948e-01,9.99999e-01,9.99999e-01,9.99927e-01,8.68011e-01,9.99999e-01
5.210282418e-01,8.70417e-01,9.99999e-01,9.99999e-01,9.99972e-01,8.70441e-01,9.99999e-01
5.236333830e-01,8.72734e-01,9.99999e-01,9.99999e-01,9.99890e-01,8.72830e-01,9.99998e-01
5.262515499e-01,8.75118e-01,9.99999e-01,9.99999e-01,9.99931e-01,8.75178e-01,9.99998e-01
5.288828077e-01,8.77430e-01,9.99999e-01,9.99999e-01,9.99936e-01,8.77486e-01,9.99998e-01
5.315272217e-01,8.79706e-01,9.99999e-01,9.99999e-01,9.99944e-01,8.79754e-01,9.99999e-01
5.341848578e-01,8.81951e-01,9.99999e-01,9.99999e-01,9.99963e-01,8.81983e-01,9.99999e-01
5.368557821e-01,8.84061e-01,9.99999e-01,9.99999e-01,9.99871e-01,8.84174e-01,9.99999e-01
5.395400610e-01,8.85912e-01,9.99999e-01,9.99999e-01,9.99536e-01,8.86326e-01,9.99995e-01
5.422377613e-01,8.87906e-01,9.99999e-01,9.99999e-01,9.99408e-01,8.88441e-01,9.99988e-01
5.449489501e-01,8.90017e-01,9.99999e-01,9.99999e-01,9.99446e-01,8.90520e-01,9.99988e-01
5.476736949e-01,8.92122e-01,9.99999e-01,9.99999e-01,9.99512e-01,8.92561e-01,9.99994e-01
5.504120634e-01,8.94250e-01,9.99999e-01,9.99999e-01,9.99646e-01,8.94568e-01,9.99998e-01
5.531641237e-01,8.96379e-01,9.99999e-01,9.99999e-01,9.99821e-01,8.96538e-01,9.99999e-01
5.559299443e-01,8.98398e-01,9.99999e-01,9.99999e-01,9.99913e-01,8.98475e-01,9.99999e-01
5.587095940e-01,9.00328e-01,9.99999e-01,9.99999e-01,9.99945e-01,9.00376e-01,9.99999e-01
5.615031420e-01,9.02190e-01,9.99999e-01,9.99999e-01,9.99939e-01,9.02245e-01,9.99999e-01
5.643106577e-01,9.04017e-01,9.99999e-01,9.99999e-01,9.99930e-01,9.04080e-01,9.99998e-01
5.671322110e-01,9.05114e-01,9.99999e-01,9.99999e-01,9.99158e-01,9.05882e-01,9.99992e-01
5.699678720e-01,9.06839e-01,9.99999e-01,9.99999e-01,9.99124e-01,9.07653e-01,9.99976e-01
5.728177114e-01,9.08539e-01,9.99999e-01,9.99999e-01,9.99080e-01,9.09392e-01,9.99980e-01
5.756818000e-01,9.10322e-01,9.99999e-01,9.99999e-01,9.99157e-01,9.11099e-01,9.99988e-01
5.785602090e-01,9.12105e-01,9.99999e-01,9.99999e-01,9.99266e-01,9.12776e-01,9.99996e-01
5.814530100e-01,9.13748e-01,9.99999e-01,9.99999e-01,9.99262e-01,9.14423e-01,9.99997e-01
5.843602750e-01,9.15226e-01,9.99999e-01,9.99999e-01,9.99115e-01,9.16041e-01,9.99994e-01
5.872820764e-01,9.10613e-01,9.99999e-01,9.99999e-01,9.92407e-01,9.17629e-01,9.99946e-01
5.902184868e-01,9.10662e-01,9.99999e-01,9.99999e-01,9.90867e-01,9.19188e-01,9.99854e-01
5.931695792e-01,9.14633e-01,9.99999e-01,9.99999e-01,9.93527e-01,9.20719e-01,9.99860e-01
5.961354271e-01,9.15619e-01,9.99999e-01,9.99999e-01,9.92918e-01,9.22223e-01,9.99919e-01
5.991161043e-01,9.18906e-01,9.99999e-01,9.99999e-01,9.94835e-01,9.23699e-01,9.99974e-01
6.021116848e-01,9.22435e-01,9.99999e-01,9.99999e-01,9.97069e-01,9.25148e-01,9.99996e-01
6.051222432e-01,9.25197e-01,9.99999e-01,9.99999e-01,9.98516e-01,9.26571e-01,9.99999e-01
6.081478544e-01,9.27374e-01,9.99999e-01,9.99999e-01,9.99359e-01,9.27968e-01,9.99999e-01
6.111885937e-01,9.29088e-01,9.99999e-01,9.99999e-01,9.99729e-01,9.29339e-01,9.99999e-01
6.142445367e-01,9.30573e-01,9.99999e-01,9.99999e-01,9.99878e-01,9.30685e-01,9.99999e-01
6.173157594e-01,9.31944e-01,9.99999e-01,9.99999e-01,9.99932e-01,9.32007e-01,9.99999e-01
6.204023382e-01,9.33251e-01,9.99999e-01,9.99999e-01,9.99942e-01,9.33304e-01,9.99999e-01
6.235043498e-01,9.34340e-01,9.99999e-01,9.99999e-01,9.99746e-01,9.34577e-01,9.99998e-01
6.266218716e-01,9.34583e-01,9.99999e-01,9.99999e-01,9.98679e-01,9.35827e-01,9.99990e-01
6.297549810e-01,9.36583e-01,9.99999e-01,9.99999e-01,9.99515e-01,9.37054e-01,9.99980e-01
6.329037559e-01,9.37348e-01,9.99999e-01,9.99999e-01,9.99044e-01,9.38258e-01,9.99984e-01
6.360682746e-01,9.38665e-01,9.99999e-01,9.99999e-01,9.99183e-01,9.39440e-01,9.99990e-01
6.392486160e-01,9.39603e-01,9.99999e-01,9.99999e-01,9.98943e-01,9.40600e-01,9.99995e-01
6.424448591e-01,9.40392e-01,9.99999e-01,9.99999e-01,9.98577e-01,9.41738e-01,9.99992e-01
6.456570834e-01,9.36606e-01,9.99999e-01,9.99999e-01,9.93410e-01,9.42855e-01,9.99959e-01
6.488853688e-01,9.39340e-01,9.99999e-01,9.99999e-01,9.95215e-01,9.43952e-01,9.99897e-01
6.521297956e-01,9.40342e-01,9.99999e-01,9.99999e-01,9.95124e-01,9.45028e-01,9.99915e-01
6.553904446e-01,9.41415e-01,9.99999e-01,9.99999e-01,9.95126e-01,9.46084e-01,9.99937e-01
6.586673968e-01,9.43161e-01,9.99999e-01,9.99999e-01,9.95839e-01,9.47120e-01,9.99978e-01
6.619607338e-01,9.45934e-01,9.99999e-01,9.99999e-01,9.97680e-01,9.48137e-01,9.99995e-01
6.652705375e-01,9.47811e-01,9.99999e-01,9.99999e-01,9.98607e-01,9.49135e-01,9.99997e-01
6.685968902e-01,9.49552e-01,9.99999e-01,9.99999e-01,9.99408e-01,9.50114e-01,9.99999e-01
6.719398746e-01,9.50790e-01,9.99999e-01,9.99999e-01,9.99700e-01,9.51075e-01,9.99999e-01
6.752995740e-01,9.51867e-01,9.99999e-01,9.99999e-01,9.99841e-01,9.52018e-01,9.99999e-01
6.786760719e-01,9.52717e-01,9.99999e-01,9.99999e-01,9.99762e-01,9.52943e-01,9.99999e-01
6.820694522e-01,9.53464e-01,9.99999e-01,9.99999e-01,9.99596e-01,9.53851e-01,9.99997e-01
6.854797995e-01,9.54240e-01,9.99999e-01,9.99999e-01,9.99479e-01,9.54741e-01,9.99995e-01
6.889071985e-01,9.54387e-01,9.99999e-01,9.99999e-01,9.98725e-01,9.55615e-01,9.99988e-01
6.923517345e-01,9.36818e-01,9.99999e-01,9.99999e-01,9.79546e-01,9.56472e-01,9.99901e-01
6.958134932e-01,9.47051e-01,9.99999e-01,9.99999e-01,9.89494e-01,9.57313e-01,9.99781e-01
6.992925606e-01,9.48223e-01,9.99999e-01,9.99999e-01,9.89845e-01,9.58139e-01,9.99803e-01
7.027890234e-01,9.46873e-01,9.99999e-01,9.99999e-01,9.87554e-01,9.58948e-01,9.99849e-01
7.063029686e-01,9.49612e-01,9.99999e-01,9.99999e-01,9.89517e-01,9.59743e-01,9.99924e-01
7.098344834e-01,9.50818e-01,9.99999e-01,9.99999e-01,9.89939e-01,9.60522e-01,9.99955e-01
7.133836558e-01,9.48219e-01,9.99999e-01,9.99999e-01,9.86492e-01,9.61286e-01,9.99911e-01
7.169505741e-01,8.62640e-01,9.99999e-01,9.99999e-01,8.97299e-01,9.62036e-01,9.99309e-01
7.205353270e-01,9.12567e-01,9.99999e-01,9.99999e-01,9.49007e-01,9.62772e-01,9.98783e-01
7.241380036e-01,8.99757e-01,9.99999e-01,9.99999e-01,9.34830e-01,9.63494e-01,9.98949e-01
7.277586936e-01,9.06590e-01,9.99999e-01,9.99999e-01,9.41056e-01,9.64202e-01,9.99140e-01
7.313974871e-01,9.04383e-01,9.99999e-01,9.99999e-01,9.37661e-01,9.64896e-01,9.99597e-01
7.350544745e-01,9.32024e-01,9.99999e-01,9.99999e-01,9.65385e-01,9.65578e-01,9.99859e-01
7.387297469e-01,9.41460e-01,9.99999e-01,9.99999e-01,9.74410e-01,9.66246e-01,9.99935e-01
7.424233956e-01,9.54726e-01,9.99999e-01,9.99999e-01,9.87418e-01,9.66901e-01,9.99988e-01
7.461355126e-01,9.60140e-01,9.99999e-01,9.99999e-01,9.92348e-01,9.67544e-01,9.99997e-01
7.498661902e-01,9.64727e-01,9.99999e-01,9.99999e-01,9.96439e-01,9.68175e-01,9.99998e-01
7.536155211e-01,9.67096e-01,9.99999e-01,9.99999e-01,9.98247e-01,9.68794e-01,9.99999e-01
7.573835987e-01,9.68527e-01,9.99999e-01,9.99999e-01,9.99097e-01,9.69401e-01,9.99999e-01
7.611705167e-01,9.69452e-01,9.99999e-01,9.99999e-01,9.99439e-01,9.69996e-01,9.99999e-01
7.649763693e-01,9.70239e-01,9.99999e-01,9.99999e-01,9.99647e-01,9.70580e-01,9.99999e-01
7.688012511e-01,9.70914e-01,9.99999e-01,9.99999e-01,9.99754e-01,9.71152e-01,9.99999e-01
7.726452574e-01,9.71518e-01,9.99999e-01,9.99999e-01,9.99797e-01,9.71714e-01,9.99999e-01
7.765084837e-01,9.71984e-01,9.99999e-01,9.99999e-01,9.99711e-01,9.72265e-01,9.99999e-01
7.803910261e-01,9.71590e-01,9.99999e-01,9.99999e-01,9.98751e-01,9.72805e-01,9.99998e-01
7.842929812e-01,9.69091e-01,9.99999e-01,9.99999e-01,9.95647e-01,9.73335e-01,9.99991e-01
7.882144461e-01,9.65139e-01,9.99999e-01,9.99999e-01,9.91109e-01,9.73855e-01,9.99938e-01
7.921555184e-01,9.69524e-01,9.99999e-01,9.99999e-01,9.95137e-01,9.74365e-01,9.99893e-01
7.961162960e-01,9.66326e-01,9.99999e-01,9.99999e-01,9.91341e-01,9.74865e-01,9.99898e-01
8.000968774e-01,9.65544e-01,9.99999e-01,9.99999e-01,9.90047e-01,9.75355e-01,9.99891e-01
8.040973618e-01,9.66032e-01,9.99999e-01,9.99999e-01,9.90034e-01,9.75836e-01,9.99917e-01
8.081178486e-01,9.54339e-01,9.99999e-01,9.99999e-01,9.77579e-01,9.76307e-01,9.99916e-01
8.121584379e-01,8.88712e-01,9.99999e-01,9.99999e-01,9.10134e-01,9.76770e-01,9.99684e-01
8.162192301e-01,8.73699e-01,9.99999e-01,9.99999e-01,8.95121e-01,9.77223e-01,9.98816e-01
8.203003262e-01,9.23653e-01,9.99999e-01,9.99999e-01,9.46061e-01,9.77668e-01,9.98613e-01
8.244018279e-01,9.05807e-01,9.99999e-01,9.99999e-01,9.27105e-01,9.78104e-01,9.98896e-01
8.285238370e-01,9.14708e-01,9.99999e-01,9.99999e-01,9.35585e-01,9.78532e-01,9.99133e-01
8.326664562e-01,9.15151e-01,9.99999e-01,9.99999e-01,9.35162e-01,9.78952e-01,9.99641e-01
8.368297885e-01,9.33470e-01,9.99999e-01,9.99999e-01,9.53217e-01,9.79363e-01,9.99917e-01
8.410139374e-01,9.52226e-01,9.99999e-01,9.99999e-01,9.71936e-01,9.79767e-01,9.99951e-01
8.452190071e-01,9.66562e-01,9.99999e-01,9.99999e-01,9.86151e-01,9.80162e-01,9.99970e-01
8.494451021e-01,9.72605e-01,9.99999e-01,9.99999e-01,9.91919e-01,9.80550e-01,9.99976e-01
8.536923276e-01,9.76236e-01,9.99999e-01,9.99999e-01,9.95226e-01,9.80931e-01,9.99985e-01
8.579607893e-01,9.78408e-01,9.99999e-01,9.99999e-01,9.97051e-01,9.81304e-01,9.99996e-01
8.622505932e-01,9.79833e-01,9.99999e-01,9.99999e-01,9.98129e-01,9.81670e-01,9.99998e-01
8.665618462e-01,9.80889e-01,9.99999e-01,9.99999e-01,9.98839e-01,9.82028e-01,9.99999e-01
8.708946554e-01,9.81072e-01,9.99999e-01,9.99999e-01,9.98668e-01,9.82380e-01,9.99998e-01
8.752491287e-01,9.80975e-01,9.99999e-01,9.99999e-01,9.98220e-01,9.82725e-01,9.99997e-01
8.796253743e-01,9.80631e-01,9.99999e-01,9.99999e-01,9.97530e-01,9.83064e-01,9.99994e-01
8.840235012e-01,9.80607e-01,9.99999e-01,9.99999e-01,9.97181e-01,9.83395e-01,9.99982e-01
8.884436187e-01,9.73468e-01,9.99999e-01,9.99999e-01,9.89625e-01,9.83721e-01,9.99950e-01
8.928858368e-01,8.82708e-01,9.99999e-01,9.99999e-01,8.97276e-01,9.84040e-01,9.99718e-01
8.973502660e-01,8.12925e-01,9.99999e-01,9.99999e-01,8.27037e-01,9.84352e-01,9.98560e-01
9.018370173e-01,8.92242e-01,9.99999e-01,9.99999e-01,9.08197e-01,9.84659e-01,9.97737e-01
9.063462024e-01,9.01981e-01,9.99999e-01,9.99999e-01,9.17577e-01,9.84960e-01,9.98011e-01
9.108779334e-01,8.60306e-01,9.99999e-01,9.99999e-01,8.74987e-01,9.85255e-01,9.97934e-01
9.154323231e-01,8.45362e-01,9.99999e-01,9.99999e-01,8.59228e-01,9.85544e-01,9.98292e-01
9.200094847e-01,8.74918e-01,9.99999e-01,9.99999e-01,8.88344e-01,9.85827e-01,9.99043e-01
9.246095321e-01,8.19127e-01,9.99999e-01,9.99999e-01,8.31584e-01,9.86105e-01,9.98898e-01
9.292325798e-01,3.00757e-01,9.99999e-01,9.99999e-01,3.06537e-01,9.86378e-01,9.94692e-01
9.338787427e-01,2.14033e-01,9.99999e-01,9.99999e-01,2.21142e-01,9.86645e-01,9.80949e-01
9.385481364e-01,5.23653e-01,9.99999e-01,9.99999e-01,5.41931e-01,9.86907e-01,9.79089e-01
9.432408771e-01,4.19821e-01,9.99999e-01,9.99999e-01,4.33104e-01,9.87164e-01,9.81933e-01
9.479570815e-01,3.09204e-01,9.99999e-01,9.99999e-01,3.17825e-01,9.87416e-01,9.85271e-01
9.526968669e-01,4.07080e-01,9.99999e-01,9.99999e-01,4.15912e-01,9.87663e-01,9.90990e-01
9.574603512e-01,4.28958e-01,9.99999e-01,9.99999e-01,4.36210e-01,9.87905e-01,9.95413e-01
9.622476530e-01,4.98535e-01,9.99999e-01,9.99999e-01,5.06123e-01,9.88143e-01,9.96825e-01
9.670588912e-01,6.64190e-01,9.99999e-01,9.99999e-01,6.73464e-01,9.88375e-01,9.97828e-01
9.718941857e-01,7.67883e-01,9.99999e-01,9.99999e-01,7.77978e-01,9.88604e-01,9.98400e-01
9.767536566e-01,8.01625e-01,9.99999e-01,9.99999e-01,8.11674e-01,9.88827e-01,9.98777e-01
9.816374249e-01,8.46908e-01,9.99999e-01,9.99999e-01,8.56649e-01,9.89047e-01,9.99576e-01
9.865456120e-01,8.97915e-01,9.99999e-01,9.99999e-01,9.07740e-01,9.89262e-01,9.99911e-01
9.914783401e-01,9.31900e-01,9.99999e-01,9.99999e-01,9.41836e-01,9.89473e-01,9.99975e-01
9.964357318e-01,9.57899e-01,9.99999e-01,9.99999e-01,9.67901e-01,9.89680e-01,9.99985e-01
1.001417910e+00,9.70697e-01,9.99999e-01,9.99999e-01,9.80639e-01,9.89883e-01,9.99977e-01
1.006425000e+00,9.79060e-01,9.99999e-01,9.99999e-01,9.88898e-01,9.90081e-01,9.99968e-01
1.011457125e+00,9.83426e-01,9.99999e-01,9.99999e-01,9.93110e-01,9.90276e-01,9.99970e-01
1.016514411e+00,9.85805e-01,9.99999e-01,9.99999e-01,9.95312e-01,9.90468e-01,9.99979e-01
1.021596983e+00,9.86932e-01,9.99999e-01,9.99999e-01,9.96261e-01,9.90655e-01,9.99979e-01
1.026704968e+00,9.87936e-01,9.99999e-01,9.99999e-01,9.97082e-01,9.90839e-01,9.99986e-01
1.031838492e+00,9.88917e-01,9.99999e-01,9.99999e-01,9.97881e-01,9.91019e-01,9.99995e-01
1.036997685e+00,9.89946e-01,9.99999e-01,9.99999e-01,9.98739e-01,9.91195e-01,9.99998e-01
1.042182673e+00,9.89874e-01,9.99999e-01,9.99999e-01,9.98492e-01,9.91369e-01,9.99999e-01
1.047393587e+00,9.89560e-01,9.99999e-01,9.99999e-01,9.98004e-01,9.91538e-01,9.99999e-01
1.052630555e+00,9.88987e-01,9.99999e-01,9.99999e-01,9.97259e-01,9.91705e-01,9.99998e-01
1.057893707e+00,9.87327e-01,9.99999e-01,9.99999e-01,9.95423e-01,9.91868e-01,9.99997e-01
1.063183176e+00,9.84570e-01,9.99999e-01,9.99999e-01,9.92485e-01,9.92028e-01,9.99995e-01
1.068499092e+00,9.79737e-01,9.99999e-01,9.99999e-01,9.87461e-01,9.92185e-01,9.99991e-01
1.073841587e+00,9.77759e-01,9.99999e-01,9.99999e-01,9.85325e-01,9.92338e-01,9.99980e-01
1.079210795e+00,9.73857e-01,9.99999e-01,9.99999e-01,9.81275e-01,9.92489e-01,9.99949e-01
1.084606849e+00,9.64489e-01,9.99999e-01,9.99999e-01,9.71760e-01,9.92637e-01,9.99878e-01
1.090029883e+00,9.52369e-01,9.99999e-01,9.99999e-01,9.59533e-01,9.92782e-01,9.99748e-01
1.095480033e+00,8.87014e-01,9.99999e-01,9.99999e-01,8.93740e-01,9.92924e-01,9.99545e-01
1.100957433e+00,7.47064e-01,9.99999e-01,9.99999e-01,7.52910e-01,9.93063e-01,9.99164e-01
1.106462220e+00,4.89300e-01,9.99999e-01,9.99999e-01,4.93348e-01,9.93200e-01,9.98583e-01
1.111994531e+00,2.30945e-01,9.99999e-01,9.99999e-01,2.33371e-01,9.93334e-01,9.96244e-01
1.117554504e+00,9.77809e-02,9.99999e-01,9.99999e-01,9.97702e-02,9.93465e-01,9.86506e-01
1.123142276e+00,1.92437e-01,9.99999e-01,9.99999e-01,2.00018e-01,9.93593e-01,9.68298e-01
1.128757988e+00,3.22139e-01,9.99999e-01,9.99999e-01,3.36484e-01,9.93720e-01,9.63418e-01
1.134401778e+00,1.51706e-01,9.99999e-01,9.99999e-01,1.57560e-01,9.93843e-01,9.68807e-01
1.140073787e+00,4.95638e-01,9.99999e-01,9.99999e-01,5.11433e-01,9.93964e-01,9.74998e-01
1.145774156e+00,2.54013e-01,9.99999e-01,9.99999e-01,2.61516e-01,9.94083e-01,9.77090e-01
1.151503026e+00,2.23050e-01,9.99999e-01,9.99999e-01,2.27266e-01,9.94200e-01,9.87171e-01
1.157260541e+00,2.71493e-01,9.99999e-01,9.99999e-01,2.74102e-01,9.94314e-01,9.96146e-01
1.163046844e+00,3.79661e-01,9.99999e-01,9.99999e-01,3.82207e-01,9.94426e-01,9.98906e-01
1.168862078e+00,5.03478e-01,9.99999e-01,9.99999e-01,5.06529e-01,9.94536e-01,9.99436e-01
1.174706389e+00,6.52685e-01,9.99999e-01,9.99999e-01,6.56689e-01,9.94643e-01,9.99252e-01
1.180579921e+00,7.68560e-01,9.99999e-01,9.99999e-01,7.73490e-01,9.94749e-01,9.98870e-01
1.186482820e+00,8.58887e-01,9.99999e-01,9.99999e-01,8.64332e-01,9.94852e-01,9.98840e-01
1.192415234e+00,9.12841e-01,9.99999e-01,9.99999e-01,9.18267e-01,9.94954e-01,9.99131e-01
1.198377311e+00,9.25220e-01,9.99999e-01,9.99999e-01,9.30581e-01,9.95053e-01,9.99179e-01
1.204369197e+00,9.29113e-01,9.99999e-01,9.99999e-01,9.34333e-01,9.95151e-01,9.99257e-01
1.210391043e+00,9.32187e-01,9.99999e-01,9.99999e-01,9.37061e-01,9.95246e-01,9.99548e-01
1.216442998e+00,9.41622e-01,9.99999e-01,9.99999e-01,9.46292e-01,9.95340e-01,9.99723e-01
1.222525213e+00,9.53333e-01,9.99999e-01,9.99999e-01,9.57871e-01,9.95432e-01,9.99827e-01
1.228637839e+00,9.66113e-01,9.99999e-01,9.99999e-01,9.70536e-01,9.95522e-01,9.99919e-01
