#,Wave/freq,Total,N2,O2,H2O,Rayleigh,CIA
4.000000000e-01,8.94504e-01,9.99999e-01,9.99999e-01,9.99986e-01,8.94515e-01,9.99999e-01
4.020000000e-01,8.96482e-01,9.99999e-01,9.99999e-01,9.99991e-01,8.96489e-01,9.99999e-01
4.040100000e-01,8.98423e-01,9.99999e-01,9.99999e-01,9.99996e-01,8.98426e-01,9.99999e-01
4.060300500e-01,9.00328e-01,9.99999e-01,9.99999e-01,9.99998e-01,9.00329e-01,9.99999e-01
4.080602003e-01,9.02198e-01,9.99999e-01,9.99999e-01,9.99999e-01,9.02198e-01,9.99999e-01
4.101005013e-01,9.04034e-01,9.99999e-01,9.99999e-01,9.99999e-01,9.04034e-01,9.99999e-01
4.121510038e-01,9.05837e-01,9.99999e-01,9.99999e-01,9.99999e-01,9.05837e-01,9.99999e-01
4.142117588e-01,9.07605e-01,9.99999e-01,9.99999e-01,9.99996e-01,9.07608e-01,9.99999e-01
4.162828176e-01,9.09334e-01,9.99999e-01,9.99999e-01,9.99983e-01,9.09348e-01,9.99999e-01
4.183642317e-01,9.11048e-01,9.99999e-01,9.99999e-01,9.99990e-01,9.11056e-01,9.99999e-01
4.204560528e-01,9.12729e-01,9.99999e-01,9.99999e-01,9.99993e-01,9.12734e-01,9.99999e-01
4.225583331e-01,9.14380e-01,9.99999e-01,9.99999e-01,9.99997e-01,9.14382e-01,9.99999e-01
4.246711247e-01,9.15998e-01,9.99999e-01,9.99999e-01,9.99997e-01,9.16000e-01,9.99999e-01
4.267944804e-01,9.17587e-01,9.99999e-01,9.99999e-01,9.99997e-01,9.17589e-01,9.99999e-01
4.289284528e-01,9.19147e-01,9.99999e-01,9.99999e-01,9.99997e-01,9.19149e-01,9.99999e-01
4.310730950e-01,9.20680e-01,9.99999e-01,9.99999e-01,9.99998e-01,9.20681e-01,9.99999e-01
4.332284605e-01,9.22185e-01,9.99999e-01,9.99999e-01,9.99999e-01,9.22185e-01,9.99999e-01
4.353946028e-01,9.23662e-01,9.99999e-01,9.99999e-01,9.99999e-01,9.23662e-01,9.99999e-01
4.375715758e-01,9.25110e-01,9.99999e-01,9.99999e-01,9.99997e-01,9.25112e-01,9.99999e-01
4.397594337e-01,9.26523e-01,9.99999e-01,9.99999e-01,9.99985e-01,9.26535e-01,9.99999e-01
4.419582309e-01,9.27869e-01,9.99999e-01,9.99999e-01,9.99930e-01,9.27933e-01,9.99999e-01
4.441680220e-01,9.29254e-01,9.99999e-01,9.99999e-01,9.99944e-01,9.29305e-01,9.99999e-01
4.463888621e-01,9.30599e-01,9.99999e-01,9.99999e-01,9.99943e-01,9.30651e-01,9.99999e-01
4.486208064e-01,9.31941e-01,9.99999e-01,9.99999e-01,9.99964e-01,9.31973e-01,9.99999e-01
4.508639105e-01,9.33256e-01,9.99999e-01,9.99999e-01,9.99983e-01,9.33271e-01,9.99999e-01
4.531182300e-01,9.34539e-01,9.99999e-01,9.99999e-01,9.99992e-01,9.34545e-01,9.99999e-01
4.553838212e-01,9.35792e-01,9.99999e-01,9.99999e-01,9.99995e-01,9.35796e-01,9.99999e-01
4.576607403e-01,9.37021e-01,9.99999e-01,9.99999e-01,9.99997e-01,9.37023e-01,9.99999e-01
4.599490440e-01,9.38226e-01,9.99999e-01,9.99999e-01,9.99998e-01,9.38228e-01,9.99999e-01
4.622487892e-01,9.39410e-01,9.99999e-01,9.99999e-01,9.99999e-01,9.39410e-01,9.99999e-01
4.645600332e-01,9.40570e-01,9.99999e-01,9.99999e-01,9.99998e-01,9.40571e-01,9.99999e-01
4.668828333e-01,9.41694e-01,9.99999e-01,9.99999e-01,9.99983e-01,9.41710e-01,9.99999e-01
4.692172475e-01,9.42794e-01,9.99999e-01,9.99999e-01,9.99964e-01,9.42827e-01,9.99999e-01
4.715633337e-01,9.43903e-01,9.99999e-01,9.99999e-01,9.99976e-01,9.43924e-01,9.99999e-01
4.739211504e-01,9.44980e-01,9.99999e-01,9.99999e-01,9.99977e-01,9.45001e-01,9.99999e-01
4.762907561e-01,9.46046e-01,9.99999e-01,9.99999e-01,9.99987e-01,9.46057e-01,9.99999e-01
4.786722099e-01,9.47090e-01,9.99999e-01,9.99999e-01,9.99994e-01,9.47094e-01,9.99999e-01
4.810655710e-01,9.48110e-01,9.99999e-01,9.99999e-01,9.99998e-01,9.48112e-01,9.99999e-01
4.834708988e-01,9.49097e-01,9.99999e-01,9.99999e-01,9.99986e-01,9.49110e-01,9.99999e-01
4.858882533e-01,9.50066e-01,9.99999e-01,9.99999e-01,9.99974e-01,9.50090e-01,9.99999e-01
4.883176946e-01,9.51031e-01,9.99999e-01,9.99999e-01,9.99978e-01,9.51051e-01,9.99999e-01
4.907592831e-01,9.51976e-01,9.99999e-01,9.99999e-01,9.99980e-01,9.51994e-01,9.99999e-01
4.932130795e-01,9.52907e-01,9.99999e-01,9.99999e-01,9.99986e-01,9.52920e-01,9.99999e-01
4.956791449e-01,9.53821e-01,9.99999e-01,9.99999e-01,9.99992e-01,9.53828e-01,9.99999e-01
4.981575406e-01,9.54685e-01,9.99999e-01,9.99999e-01,9.99964e-01,9.54719e-01,9.99999e-01
5.006483283e-01,9.55505e-01,9.99999e-01,9.99999e-01,9.99908e-01,9.55593e-01,9.99998e-01
5.031515699e-01,9.56000e-01,9.99999e-01,9.99999e-01,9.99532e-01,9.56451e-01,9.99994e-01
5.056673278e-01,9.57051e-01,9.99999e-01,9.99999e-01,9.99752e-01,9.57292e-01,9.99993e-01
5.081956644e-01,9.57816e-01,9.99999e-01,9.99999e-01,9.99687e-01,9.58118e-01,9.99995e-01
5.107366428e-01,9.58725e-01,9.99999e-01,9.99999e-01,9.99788e-01,9.58928e-01,9.99998e-01
5.132903260e-01,9.59607e-01,9.99999e-01,9.99999e-01,9.99878e-01,9.59723e-01,9.99999e-01
5.158567776e-01,9.60453e-01,9.99999e-01,9.99999e-01,9.99948e-01,9.60502e-01,9.99999e-01
5.184360615e-01,9.61248e-01,9.99999e-01,9.99999e-01,9.99979e-01,9.61267e-01,9.99999e-01
5.210282418e-01,9.62010e-01,9.99999e-01,9.99999e-01,9.99991e-01,9.62018e-01,9.99999e-01
5.236333830e-01,9.62724e-01,9.99999e-01,9.99999e-01,9.99969e-01,9.62754e-01,9.99999e-01
5.262515499e-01,9.63457e-01,9.99999e-01,9.99999e-01,9.99980e-01,9.63476e-01,9.99999e-01
5.288828077e-01,9.64167e-01,9.99999e-01,9.99999e-01,9.99982e-01,9.64184e-01,9.99999e-01
5.315272217e-01,9.64864e-01,9.99999e-01,9.99999e-01,9.99984e-01,9.64879e-01,9.99999e-01
5.341848578e-01,9.65551e-01,9.99999e-01,9.99999e-01,9.99989e-01,9.65561e-01,9.99999e-01
5.368557821e-01,9.66195e-01,9.99999e-01,9.99999e-01,9.99964e-01,9.66229e-01,9.99999e-01
5.395400610e-01,9.66761e-01,9.99999e-01,9.99999e-01,9.99872e-01,9.66885e-01,9.99998e-01
5.422377613e-01,9.67365e-01,9.99999e-01,9.99999e-01,9.99833e-01,9.67528e-01,9.99996e-01
5.449489501e-01,9.68008e-01,9.99999e-01,9.99999e-01,9.99846e-01,9.68159e-01,9.99996e-01
5.476736949e-01,9.68644e-01,9.99999e-01,9.99999e-01,9.99862e-01,9.68778e-01,9.99997e-01
5.504120634e-01,9.69289e-01,9.99999e-01,9.99999e-01,9.99900e-01,9.69386e-01,9.99999e-01
5.531641237e-01,9.69933e-01,9.99999e-01,9.99999e-01,9.99949e-01,9.69981e-01,9.99999e-01
5.559299443e-01,9.70542e-01,9.99999e-01,9.99999e-01,9.99975e-01,9.70565e-01,9.99999e-01
5.587095940e-01,9.71124e-01,9.99999e-01,9.99999e-01,9.99984e-01,9.71138e-01,9.99999e-01
5.615031420e-01,9.71684e-01,9.99999e-01,9.99999e-01,9.99982e-01,9.71700e-01,9.99999e-01
5.643106577e-01,9.72233e-01,9.99999e-01,9.99999e-01,9.99980e-01,9.72251e-01,9.99999e-01
5.671322110e-01,9.72568e-01,9.99999e-01,9.99999e-01,9.99771e-01,9.72792e-01,9.99997e-01
5.699678720e-01,9.73075e-01,9.99999e-01,9.99999e-01,9.99751e-01,9.73322e-01,9.99993e-01
5.728177114e-01,9.73588e-01,9.99999e-01,9.99999e-01,9.99743e-01,9.73842e-01,9.99994e-01
5.756818000e-01,9.74120e-01,9.99999e-01,9.99999e-01,9.99764e-01,9.74352e-01,9.99996e-01
5.785602090e-01,9.74651e-01,9.99999e-01,9.99999e-01,9.99794e-01,9.74852e-01,9.99998e-01
5.814530100e-01,9.75142e-01,9.99999e-01,9.99999e-01,9.99793e-01,9.75343e-01,9.99999e-01
5.843602750e-01,9.75585e-01,9.99999e-01,9.99999e-01,9.99756e-01,9.75824e-01,9.99998e-01
5.872820764e-01,9.74228e-01,9.99999e-01,9.99999e-01,9.97896e-01,9.76296e-01,9.99984e-01
5.902184868e-01,9.74213e-01,9.99999e-01,9.99999e-01,9.97433e-01,9.76758e-01,9.99959e-01
5.931695792e-01,9.75406e-01,9.99999e-01,9.99999e-01,9.98190e-01,9.77212e-01,9.99960e-01
5.961354271e-01,9.75692e-01,9.99999e-01,9.99999e-01,9.98013e-01,9.77657e-01,9.99975e-01
5.991161043e-01,9.76669e-01,9.99999e-01,9.99999e-01,9.98549e-01,9.78094e-01,9.99992e-01
6.021116848e-01,9.77715e-01,9.99999e-01,9.99999e-01,9.99176e-01,9.78522e-01,9.99998e-01
6.051222432e-01,9.78533e-01,9.99999e-01,9.99999e-01,9.99582e-01,9.78941e-01,9.99999e-01
6.081478544e-01,9.79177e-01,9.99999e-01,9.99999e-01,9.99819e-01,9.79353e-01,9.99999e-01
6.111885937e-01,9.79682e-01,9.99999e-01,9.99999e-01,9.99923e-01,9.79757e-01,9.99999e-01
6.142445367e-01,9.80119e-01,9.99999e-01,9.99999e-01,9.99965e-01,9.80152e-01,9.99999e-01
6.173157594e-01,9.80522e-01,9.99999e-01,9.99999e-01,9.99980e-01,9.80541e-01,9.99999e-01
6.204023382e-01,9.80906e-01,9.99999e-01,9.99999e-01,9.99983e-01,9.80921e-01,9.99999e-01
6.235043498e-01,9.81227e-01,9.99999e-01,9.99999e-01,9.99930e-01,9.81294e-01,9.99999e-01
6.266218716e-01,9.81297e-01,9.99999e-01,9.99999e-01,9.99631e-01,9.81661e-01,9.99996e-01
6.297549810e-01,9.81882e-01,9.99999e-01,9.99999e-01,9.99864e-01,9.82019e-01,9.99994e-01
6.329037559e-01,9.82105e-01,9.99999e-01,9.99999e-01,9.99732e-01,9.82371e-01,9.99995e-01
6.360682746e-01,9.82491e-01,9.99999e-01,9.99999e-01,9.99772e-01,9.82717e-01,9.99997e-01
6.392486160e-01,9.82764e-01,9.99999e-01,9.99999e-01,9.99704e-01,9.83055e-01,9.99998e-01
6.424448591e-01,9.83000e-01,9.99999e-01,9.99999e-01,9.99607e-01,9.83387e-01,9.99997e-01
6.456570834e-01,9.81912e-01,9.99999e-01,9.99999e-01,9.98179e-01,9.83712e-01,9.99989e-01
6.488853688e-01,9.82453e-01,9.99999e-01,9.99999e-01,9.98423e-01,9.84032e-01,9.99971e-01
6.521297956e-01,9.82972e-01,9.99999e-01,9.99999e-01,9.98629e-01,9.84344e-01,9.99975e-01
6.553904446e-01,9.83302e-01,9.99999e-01,9.99999e-01,9.98646e-01,9.84651e-01,9.99981e-01
6.586673968e-01,9.83795e-01,9.99999e-01,9.99999e-01,9.98830e-01,9.84952e-01,9.99993e-01
6.619607338e-01,9.84581e-01,9.99999e-01,9.99999e-01,9.99324e-01,9.85247e-01,9.99998e-01
6.652705375e-01,9.85150e-01,9.99999e-01,9.99999e-01,9.99607e-01,9.85536e-01,9.99998e-01
6.685968902e-01,9.85641e-01,9.99999e-01,9.99999e-01,9.99817e-01,9.85820e-01,9.99999e-01
6.719398746e-01,9.86015e-01,9.99999e-01,9.99999e-01,9.99915e-01,9.86098e-01,9.99999e-01
6.752995740e-01,9.86326e-01,9.99999e-01,9.99999e-01,9.99954e-01,9.86371e-01,9.99999e-01
6.786760719e-01,9.86574e-01,9.99999e-01,9.99999e-01,9.99934e-01,9.86638e-01,9.99999e-01
6.820694522e-01,9.86789e-01,9.99999e-01,9.99999e-01,9.99887e-01,9.86900e-01,9.99998e-01
6.854797995e-01,9.87014e-01,9.99999e-01,9.99999e-01,9.99854e-01,9.87158e-01,9.99998e-01
6.889071985e-01,9.87065e-01,9.99999e-01,9.99999e-01,9.99653e-01,9.87410e-01,9.99996e-01
6.923517345e-01,9.82001e-01,9.99999e-01,9.99999e-01,9.94300e-01,9.87657e-01,9.99972e-01
6.958134932e-01,9.84859e-01,9.99999e-01,9.99999e-01,9.96984e-01,9.87899e-01,9.99937e-01
6.992925606e-01,9.85298e-01,9.99999e-01,9.99999e-01,9.97181e-01,9.88137e-01,9.99945e-01
7.027890234e-01,9.84868e-01,9.99999e-01,9.99999e-01,9.96498e-01,9.88370e-01,9.99957e-01
7.063029686e-01,9.85670e-01,9.99999e-01,9.99999e-01,9.97058e-01,9.88598e-01,9.99978e-01
7.098344834e-01,9.86020e-01,9.99999e-01,9.99999e-01,9.97177e-01,9.88822e-01,9.99987e-01
7.133836558e-01,9.85335e-01,9.99999e-01,9.99999e-01,9.96276e-01,9.89041e-01,9.99975e-01
7.169505741e-01,9.59546e-01,9.99999e-01,9.99999e-01,9.70152e-01,9.89257e-01,9.99807e-01
7.205353270e-01,9.74382e-01,9.99999e-01,9.99999e-01,9.85087e-01,9.89468e-01,9.99659e-01
7.241380036e-01,9.70917e-01,9.99999e-01,9.99999e-01,9.81333e-01,9.89675e-01,9.99706e-01
7.277586936e-01,9.72943e-01,9.99999e-01,9.99999e-01,9.83127e-01,9.89878e-01,9.99759e-01
7.313974871e-01,9.72140e-01,9.99999e-01,9.99999e-01,9.81993e-01,9.90077e-01,9.99887e-01
7.350544745e-01,9.80478e-01,9.99999e-01,9.99999e-01,9.90147e-01,9.90272e-01,9.99960e-01
7.387297469e-01,9.83257e-01,9.99999e-01,9.99999e-01,9.92741e-01,9.90463e-01,9.99981e-01
7.424233956e-01,9.87118e-01,9.99999e-01,9.99999e-01,9.96437e-01,9.90650e-01,9.99996e-01
7.461355126e-01,9.88697e-01,9.99999e-01,9.99999e-01,9.97843e-01,9.90834e-01,9.99998e-01
7.498661902e-01,9.90017e-01,9.99999e-01,9.99999e-01,9.98993e-01,9.91014e-01,9.99999e-01
7.536155211e-01,9.90703e-01,9.99999e-01,9.99999e-01,9.99507e-01,9.91191e-01,9.99999e-01
7.573835987e-01,9.91113e-01,9.99999e-01,9.99999e-01,9.99745e-01,9.91364e-01,9.99999e-01
7.611705167e-01,9.91378e-01,9.99999e-01,9.99999e-01,9.99842e-01,9.91534e-01,9.99999e-01
7.649763693e-01,9.91603e-01,9.99999e-01,9.99999e-01,9.99900e-01,9.91701e-01,9.99999e-01
7.688012511e-01,9.91796e-01,9.99999e-01,9.99999e-01,9.99930e-01,9.91864e-01,9.99999e-01
7.726452574e-01,9.91968e-01,9.99999e-01,9.99999e-01,9.99943e-01,9.92024e-01,9.99999e-01
7.765084837e-01,9.92102e-01,9.99999e-01,9.99999e-01,9.99919e-01,9.92181e-01,9.99999e-01
7.803910261e-01,9.91993e-01,9.99999e-01,9.99999e-01,9.99655e-01,9.92335e-01,9.99999e-01
7.842929812e-01,9.91292e-01,9.99999e-01,9.99999e-01,9.98799e-01,9.92485e-01,9.99997e-01
7.882144461e-01,9.90147e-01,9.99999e-01,9.99999e-01,9.97509e-01,9.92633e-01,9.99984e-01
7.921555184e-01,9.91388e-01,9.99999e-01,9.99999e-01,9.98628e-01,9.92778e-01,9.99970e-01
7.961162960e-01,9.90507e-01,9.99999e-01,9.99999e-01,9.97597e-01,9.92920e-01,9.99971e-01
8.000968774e-01,9.90263e-01,9.99999e-01,9.99999e-01,9.97213e-01,9.93060e-01,9.99969e-01
8.040973618e-01,9.90408e-01,9.99999e-01,9.99999e-01,9.97215e-01,9.93196e-01,9.99975e-01
8.081178486e-01,9.87110e-01,9.99999e-01,9.99999e-01,9.93760e-01,9.93330e-01,9.99977e-01
8.121584379e-01,9.67680e-01,9.99999e-01,9.99999e-01,9.74134e-01,9.93462e-01,9.99911e-01
8.162192301e-01,9.62572e-01,9.99999e-01,9.99999e-01,9.69101e-01,9.93590e-01,9.99669e-01
8.203003262e-01,9.78073e-01,9.99999e-01,9.99999e-01,9.84638e-01,9.93716e-01,9.99612e-01
8.244018279e-01,9.71790e-01,9.99999e-01,9.99999e-01,9.78114e-01,9.93840e-01,9.99691e-01
8.285238370e-01,9.75406e-01,9.99999e-01,9.99999e-01,9.81568e-01,9.93961e-01,9.99757e-01
8.326664562e-01,9.75394e-01,9.99999e-01,9.99999e-01,9.81300e-01,9.94080e-01,9.99899e-01
8.368297885e-01,9.80864e-01,9.99999e-01,9.99999e-01,9.86611e-01,9.94197e-01,9.99976e-01
8.410139374e-01,9.86370e-01,9.99999e-01,9.99999e-01,9.92026e-01,9.94311e-01,9.99986e-01
8.452190071e-01,9.90519e-01,9.99999e-01,9.99999e-01,9.96081e-01,9.94423e-01,9.99991e-01
8.494451021e-01,9.92272e-01,9.99999e-01,9.99999e-01,9.97732e-01,9.94533e-01,9.99993e-01
8.536923276e-01,9.93299e-01,9.99999e-01,9.99999e-01,9.98654e-01,9.94641e-01,9.99995e-01
8.579607893e-01,9.93923e-01,9.99999e-01,9.99999e-01,9.99173e-01,9.94746e-01,9.99998e-01
8.622505932e-01,9.94327e-01,9.99999e-01,9.99999e-01,9.99473e-01,9.94850e-01,9.99999e-01
8.665618462e-01,9.94629e-01,9.99999e-01,9.99999e-01,9.99675e-01,9.94951e-01,9.99999e-01
8.708946554e-01,9.94682e-01,9.99999e-01,9.99999e-01,9.99629e-01,9.95051e-01,9.99999e-01
8.752491287e-01,9.94654e-01,9.99999e-01,9.99999e-01,9.99503e-01,9.95148e-01,9.99998e-01
8.796253743e-01,9.94560e-01,9.99999e-01,9.99999e-01,9.99314e-01,9.95244e-01,9.99997e-01
8.840235012e-01,9.94553e-01,9.99999e-01,9.99999e-01,9.99216e-01,9.95337e-01,9.99994e-01
8.884436187e-01,9.92607e-01,9.99999e-01,9.99999e-01,9.97178e-01,9.95429e-01,9.99985e-01
8.928858368e-01,9.65855e-01,9.99999e-01,9.99999e-01,9.70277e-01,9.95519e-01,9.99921e-01
8.973502660e-01,9.43018e-01,9.99999e-01,9.99999e-01,9.47559e-01,9.95608e-01,9.99597e-01
9.018370173e-01,9.67920e-01,9.99999e-01,9.99999e-01,9.72719e-01,9.95694e-01,9.99367e-01
9.063462024e-01,9.71615e-01,9.99999e-01,9.99999e-01,9.76275e-01,9.95779e-01,9.99444e-01
9.108779334e-01,9.58546e-01,9.99999e-01,9.99999e-01,9.63083e-01,9.95862e-01,9.99422e-01
9.154323231e-01,9.53794e-01,9.99999e-01,9.99999e-01,9.58134e-01,9.95944e-01,9.99522e-01
9.200094847e-01,9.62871e-01,9.99999e-01,9.99999e-01,9.66972e-01,9.96024e-01,9.99732e-01
9.246095321e-01,9.45252e-01,9.99999e-01,9.99999e-01,9.49242e-01,9.96102e-01,9.99692e-01
9.292325798e-01,6.98091e-01,9.99999e-01,9.99999e-01,7.01609e-01,9.96179e-01,9.98801e-01
9.338787427e-01,6.24726e-01,9.99999e-01,9.99999e-01,6.30190e-01,9.96254e-01,9.95054e-01
9.385481364e-01,8.22400e-01,9.99999e-01,9.99999e-01,8.30311e-01,9.96328e-01,9.94120e-01
9.432408771e-01,7.65120e-01,9.99999e-01,9.99999e-01,7.71799e-01,9.96400e-01,9.94925e-01
9.479570815e-01,6.92692e-01,9.99999e-01,9.99999e-01,6.98028e-01,9.96471e-01,9.95868e-01
9.526968669e-01,7.59511e-01,9.99999e-01,9.99999e-01,7.64073e-01,9.96541e-01,9.97477e-01
9.574603512e-01,7.79918e-01,9.99999e-01,9.99999e-01,7.83575e-01,9.96609e-01,9.98717e-01
9.622476530e-01,8.16689e-01,9.99999e-01,9.99999e-01,8.20139e-01,9.96676e-01,9.99112e-01
9.670588912e-01,8.88857e-01,9.99999e-01,9.99999e-01,8.92303e-01,9.96742e-01,9.99393e-01
9.718941857e-01,9.28196e-01,9.99999e-01,9.99999e-01,9.31585e-01,9.96806e-01,9.99553e-01
9.767536566e-01,9.39634e-01,9.99999e-01,9.99999e-01,9.42906e-01,9.96869e-01,9.99658e-01
9.816374249e-01,9.54277e-01,9.99999e-01,9.99999e-01,9.57327e-01,9.96930e-01,9.99881e-01
9.865456120e-01,9.70183e-01,9.99999e-01,9.99999e-01,9.73134e-01,9.96991e-01,9.99974e-01
9.914783401e-01,9.80420e-01,9.99999e-01,9.99999e-01,9.83326e-01,9.97050e-01,9.99992e-01
9.964357318e-01,9.88017e-01,9.99999e-01,9.99999e-01,9.90885e-01,9.97109e-01,9.99995e-01
1.001417910e+00,9.91703e-01,9.99999e-01,9.99999e-01,9.94527e-01,9.97166e-01,9.99993e-01
1.006425000e+00,9.94105e-01,9.99999e-01,9.99999e-01,9.96882e-01,9.97221e-01,9.99990e-01
1.011457125e+00,9.95334e-01,9.99999e-01,9.99999e-01,9.98060e-01,9.97276e-01,9.99991e-01
1.016514411e+00,9.96013e-01,9.99999e-01,9.99999e-01,9.98684e-01,9.97330e-01,9.99993e-01
1.021596983e+00,9.96332e-01,9.99999e-01,9.99999e-01,9.98952e-01,9.97383e-01,9.99993e-01
1.026704968e+00,9.96616e-01,9.99999e-01,9.99999e-01,9.99183e-01,9.97434e-01,9.99995e-01
1.031838492e+00,9.96891e-01,9.99999e-01,9.99999e-01,9.99405e-01,9.97485e-01,9.99998e-01
1.036997685e+00,9.97183e-01,9.99999e-01,9.99999e-01,9.99647e-01,9.97534e-01,9.99999e-01
1.042182673e+00,9.97165e-01,9.99999e-01,9.99999e-01,9.99580e-01,9.97583e-01,9.99999e-01
1.047393587e+00,9.97075e-01,9.99999e-01,9.99999e-01,9.99443e-01,9.97631e-01,9.99999e-01
1.052630555e+00,9.96916e-01,9.99999e-01,9.99999e-01,9.99236e-01,9.97677e-01,9.99999e-01
1.057893707e+00,9.96454e-01,9.99999e-01,9.99999e-01,9.98727e-01,9.97723e-01,9.99999e-01
1.063183176e+00,9.95677e-01,9.99999e-01,9.99999e-01,9.97904e-01,9.97768e-01,9.99998e-01
1.068499092e+00,9.94306e-01,9.99999e-01,9.99999e-01,9.96488e-01,9.97812e-01,9.99997e-01
1.073841587e+00,9.93756e-01,9.99999e-01,9.99999e-01,9.95896e-01,9.97855e-01,9.99994e-01
1.079210795e+00,9.92626e-01,9.99999e-01,9.99999e-01,9.94730e-01,9.97898e-01,9.99985e-01
1.084606849e+00,9.89964e-01,9.99999e-01,9.99999e-01,9.92041e-01,9.97939e-01,9.99965e-01
1.090029883e+00,9.86564e-01,9.99999e-01,9.99999e-01,9.88630e-01,9.97980e-01,9.99929e-01
1.095480033e+00,9.67225e-01,9.99999e-01,9.99999e-01,9.69266e-01,9.98020e-01,9.99872e-01
1.100957433e+00,9.21622e-01,9.99999e-01,9.99999e-01,9.23629e-01,9.98059e-01,9.99766e-01
1.106462220e+00,8.14800e-01,9.99999e-01,9.99999e-01,8.16676e-01,9.98097e-01,9.99604e-01
1.111994531e+00,6.49188e-01,9.99999e-01,9.99999e-01,6.51084e-01,9.98134e-01,9.98950e-01
1.117554504e+00,4.95132e-01,9.99999e-01,9.99999e-01,4.97923e-01,9.98171e-01,9.96216e-01
1.123142276e+00,5.88339e-01,9.99999e-01,9.99999e-01,5.94717e-01,9.98207e-01,9.91051e-01
1.128757988e+00,7.11104e-01,9.99999e-01,9.99999e-01,7.19801e-01,9.98243e-01,9.89655e-01
1.134401778e+00,4.61590e-01,9.99999e-01,9.99999e-01,4.66492e-01,9.98277e-01,9.91196e-01
1.140073787e+00,8.16068e-01,9.99999e-01,9.99999e-01,8.23243e-01,9.98311e-01,9.92960e-01
1.145774156e+00,6.58581e-01,9.99999e-01,9.99999e-01,6.63952e-01,9.98345e-01,9.93553e-01
1.151503026e+00,6.29548e-01,9.99999e-01,9.99999e-01,6.32847e-01,9.98377e-01,9.96403e-01
1.157260541e+00,6.83445e-01,9.99999e-01,9.99999e-01,6.85271e-01,9.98409e-01,9.98923e-01
1.163046844e+00,7.54880e-01,9.99999e-01,9.99999e-01,7.56289e-01,9.98441e-01,9.99694e-01
1.168862078e+00,8.22819e-01,9.99999e-01,9.99999e-01,8.24207e-01,9.98471e-01,9.99842e-01
1.174706389e+00,8.86071e-01,9.99999e-01,9.99999e-01,8.87584e-01,9.98502e-01,9.99791e-01
1.180579921e+00,9.28319e-01,9.99999e-01,9.99999e-01,9.29977e-01,9.98531e-01,9.99684e-01
1.186482820e+00,9.58190e-01,9.99999e-01,9.99999e-01,9.59881e-01,9.98560e-01,9.99676e-01
1.192415234e+00,9.74806e-01,9.99999e-01,9.99999e-01,9.76420e-01,9.98588e-01,9.99757e-01
1.198377311e+00,9.78537e-01,9.99999e-01,9.99999e-01,9.80116e-01,9.98616e-01,9.99770e-01
1.204369197e+00,9.79618e-01,9.99999e-01,9.99999e-01,9.81151e-01,9.98644e-01,9.99792e-01
1.210391043e+00,9.80542e-01,9.99999e-01,9.99999e-01,9.81970e-01,9.98670e-01,9.99873e-01
1.216442998e+00,9.83259e-01,9.99999e-01,9.99999e-01,9.84617e-01,9.98697e-01,9.99922e-01
1.222525213e+00,9.86708e-01,9.99999e-01,9.99999e-01,9.88017e-01,9.98722e-01,9.99951e-01
1.228637839e+00,9.90407e-01,9.99999e-01,9.99999e-01,9.91670e-01,9.98748e-01,9.99977e-01
