#,Wave/freq,Total,N2,O2,H2O,Rayleigh,CIA
4.000000000e-01,2.72836e-01,9.99999e-01,9.99999e-01,9.99853e-01,2.72876e-01,9.99999e-01
4.020000000e-01,2.79948e-01,9.99999e-01,9.99999e-01,9.99908e-01,2.79974e-01,9.99999e-01
4.040100000e-01,2.87092e-01,9.99999e-01,9.99999e-01,9.99961e-01,2.87103e-01,9.99999e-01
4.060300500e-01,2.94265e-01,9.99999e-01,9.99999e-01,9.99990e-01,2.94268e-01,9.99999e-01
4.080602003e-01,3.01464e-01,9.99999e-01,9.99999e-01,9.99996e-01,3.01465e-01,9.99999e-01
4.101005013e-01,3.08690e-01,9.99999e-01,9.99999e-01,9.99999e-01,3.08690e-01,9.99999e-01
4.121510038e-01,3.15939e-01,9.99999e-01,9.99999e-01,9.99994e-01,3.15941e-01,9.99999e-01
4.142117588e-01,3.23201e-01,9.99999e-01,9.99999e-01,9.99959e-01,3.23214e-01,9.99999e-01
4.162828176e-01,3.30446e-01,9.99999e-01,9.99999e-01,9.99818e-01,3.30506e-01,9.99999e-01
4.183642317e-01,3.37777e-01,9.99999e-01,9.99999e-01,9.99891e-01,3.37813e-01,9.99999e-01
4.204560528e-01,3.45110e-01,9.99999e-01,9.99999e-01,9.99933e-01,3.45133e-01,9.99999e-01
4.225583331e-01,3.52453e-01,9.99999e-01,9.99999e-01,9.99974e-01,3.52462e-01,9.99999e-01
4.246711247e-01,3.59790e-01,9.99999e-01,9.99999e-01,9.99979e-01,3.59797e-01,9.99999e-01
4.267944804e-01,3.67125e-01,9.99999e-01,9.99999e-01,9.99970e-01,3.67136e-01,9.99999e-01
4.289284528e-01,3.74466e-01,9.99999e-01,9.99999e-01,9.99977e-01,3.74475e-01,9.99999e-01
4.310730950e-01,3.81807e-01,9.99999e-01,9.99999e-01,9.99990e-01,3.81811e-01,9.99999e-01
4.332284605e-01,3.89141e-01,9.99999e-01,9.99999e-01,9.99997e-01,3.89142e-01,9.99999e-01
4.353946028e-01,3.96464e-01,9.99999e-01,9.99999e-01,9.99998e-01,3.96464e-01,9.99999e-01
4.375715758e-01,4.03769e-01,9.99999e-01,9.99999e-01,9.99981e-01,4.03776e-01,9.99999e-01
4.397594337e-01,4.11009e-01,9.99999e-01,9.99999e-01,9.99839e-01,4.11074e-01,9.99999e-01
4.419582309e-01,4.18016e-01,9.99999e-01,9.99999e-01,9.99186e-01,4.18356e-01,9.99999e-01
4.441680220e-01,4.25352e-01,9.99999e-01,9.99999e-01,9.99369e-01,4.25620e-01,9.99999e-01
4.463888621e-01,4.32578e-01,9.99999e-01,9.99999e-01,9.99342e-01,4.32862e-01,9.99999e-01
4.486208064e-01,4.39902e-01,9.99999e-01,9.99999e-01,9.99592e-01,4.40081e-01,9.99999e-01
4.508639105e-01,4.47189e-01,9.99999e-01,9.99999e-01,9.99808e-01,4.47274e-01,9.99999e-01
4.531182300e-01,4.54405e-01,9.99999e-01,9.99999e-01,9.99924e-01,4.54439e-01,9.99999e-01
4.553838212e-01,4.61550e-01,9.99999e-01,9.99999e-01,9.99948e-01,4.61574e-01,9.99999e-01
4.576607403e-01,4.68666e-01,9.99999e-01,9.99999e-01,9.99975e-01,4.68677e-01,9.99999e-01
4.599490440e-01,4.75737e-01,9.99999e-01,9.99999e-01,9.99982e-01,4.75745e-01,9.99999e-01
4.622487892e-01,4.82776e-01,9.99999e-01,9.99999e-01,9.99996e-01,4.82778e-01,9.99999e-01
4.645600332e-01,4.89766e-01,9.99999e-01,9.99999e-01,9.99987e-01,4.89772e-01,9.99999e-01
4.668828333e-01,4.96630e-01,9.99999e-01,9.99999e-01,9.99806e-01,4.96726e-01,9.99999e-01
4.692172475e-01,5.03432e-01,9.99999e-01,9.99999e-01,9.99587e-01,5.03639e-01,9.99999e-01
4.715633337e-01,5.10372e-01,9.99999e-01,9.99999e-01,9.99730e-01,5.10509e-01,9.99999e-01
4.739211504e-01,5.17201e-01,9.99999e-01,9.99999e-01,9.99742e-01,5.17334e-01,9.99999e-01
4.762907561e-01,5.24043e-01,9.99999e-01,9.99999e-01,9.99866e-01,5.24113e-01,9.99999e-01
4.786722099e-01,5.30815e-01,9.99999e-01,9.99999e-01,9.99945e-01,5.30844e-01,9.99999e-01
4.810655710e-01,5.37517e-01,9.99999e-01,9.99999e-01,9.99983e-01,5.37526e-01,9.99999e-01
4.834708988e-01,5.44071e-01,9.99999e-01,9.99999e-01,9.99840e-01,5.44158e-01,9.99999e-01
4.858882533e-01,5.50577e-01,9.99999e-01,9.99999e-01,9.99708e-01,5.50738e-01,9.99999e-01
4.883176946e-01,5.57129e-01,9.99999e-01,9.99999e-01,9.99755e-01,5.57265e-01,9.99999e-01
4.907592831e-01,5.63614e-01,9.99999e-01,9.99999e-01,9.99779e-01,5.63739e-01,9.99999e-01
4.932130795e-01,5.70068e-01,9.99999e-01,9.99999e-01,9.99843e-01,5.70157e-01,9.99999e-01
4.956791449e-01,5.76472e-01,9.99999e-01,9.99999e-01,9.99916e-01,5.76520e-01,9.99999e-01
4.981575406e-01,5.82584e-01,9.99999e-01,9.99999e-01,9.99584e-01,5.82826e-01,9.99999e-01
5.006483283e-01,5.88435e-01,9.99999e-01,9.99999e-01,9.98922e-01,5.89074e-01,9.99992e-01
5.031515699e-01,5.91996e-01,9.99999e-01,9.99999e-01,9.94565e-01,5.95264e-01,9.99942e-01
5.056673278e-01,5.99630e-01,9.99999e-01,9.99999e-01,9.97130e-01,6.01395e-01,9.99934e-01
5.081956644e-01,6.05244e-01,9.99999e-01,9.99999e-01,9.96381e-01,6.07466e-01,9.99959e-01
5.107366428e-01,6.11974e-01,9.99999e-01,9.99999e-01,9.97556e-01,6.13476e-01,9.99992e-01
5.132903260e-01,6.18561e-01,9.99999e-01,9.99999e-01,9.98603e-01,6.19426e-01,9.99998e-01
5.158567776e-01,6.24945e-01,9.99999e-01,9.99999e-01,9.99410e-01,6.25314e-01,9.99999e-01
5.184360615e-01,6.30991e-01,9.99999e-01,9.99999e-01,9.99763e-01,6.31140e-01,9.99999e-01
5.210282418e-01,6.36847e-01,9.99999e-01,9.99999e-01,9.99911e-01,6.36903e-01,9.99999e-01
5.236333830e-01,6.42375e-01,9.99999e-01,9.99999e-01,9.99644e-01,6.42604e-01,9.99996e-01
5.262515499e-01,6.48096e-01,9.99999e-01,9.99999e-01,9.99777e-01,6.48242e-01,9.99996e-01
5.288828077e-01,6.53682e-01,9.99999e-01,9.99999e-01,9.99795e-01,6.53816e-01,9.99997e-01
5.315272217e-01,6.59209e-01,9.99999e-01,9.99999e-01,9.99821e-01,6.59327e-01,9.99998e-01
5.341848578e-01,6.64696e-01,9.99999e-01,9.99999e-01,9.99882e-01,6.64774e-01,9.99999e-01
5.368557821e-01,6.69880e-01,9.99999e-01,9.99999e-01,9.99585e-01,6.70157e-01,9.99998e-01
5.395400610e-01,6.74458e-01,9.99999e-01,9.99999e-01,9.98503e-01,6.75477e-01,9.99987e-01
5.422377613e-01,6.79398e-01,9.99999e-01,9.99999e-01,9.98075e-01,6.80732e-01,9.99964e-01
5.449489501e-01,6.84667e-01,9.99999e-01,9.99999e-01,9.98205e-01,6.85922e-01,9.99963e-01
5.476736949e-01,6.89942e-01,9.99999e-01,9.99999e-01,9.98415e-01,6.91049e-01,9.99981e-01
5.504120634e-01,6.95308e-01,9.99999e-01,9.99999e-01,9.98849e-01,6.96112e-01,9.99994e-01
5.531641237e-01,7.00705e-01,9.99999e-01,9.99999e-01,9.99421e-01,7.01111e-01,9.99998e-01
5.559299443e-01,7.05848e-01,9.99999e-01,9.99999e-01,9.99720e-01,7.06045e-01,9.99999e-01
5.587095940e-01,7.10792e-01,9.99999e-01,9.99999e-01,9.99824e-01,7.10916e-01,9.99999e-01
5.615031420e-01,7.15584e-01,9.99999e-01,9.99999e-01,9.99804e-01,7.15724e-01,9.99999e-01
5.643106577e-01,7.20306e-01,9.99999e-01,9.99999e-01,9.99777e-01,7.20468e-01,9.99997e-01
5.671322110e-01,7.23169e-01,9.99999e-01,9.99999e-01,9.97293e-01,7.25149e-01,9.99975e-01
5.699678720e-01,7.27633e-01,9.99999e-01,9.99999e-01,9.97149e-01,7.29767e-01,9.99926e-01
5.728177114e-01,7.32088e-01,9.99999e-01,9.99999e-01,9.97018e-01,7.34322e-01,9.99938e-01
5.756818000e-01,7.36769e-01,9.99999e-01,9.99999e-01,9.97265e-01,7.38815e-01,9.99964e-01
5.785602090e-01,7.41468e-01,9.99999e-01,9.99999e-01,9.97618e-01,7.43245e-01,9.99989e-01
5.814530100e-01,7.45821e-01,9.99999e-01,9.99999e-01,9.97605e-01,7.47614e-01,9.99994e-01
5.843602750e-01,7.49760e-01,9.99999e-01,9.99999e-01,9.97139e-01,7.51922e-01,9.99983e-01
5.872820764e-01,7.37667e-01,9.99999e-01,9.99999e-01,9.75699e-01,7.56169e-01,9.99826e-01
5.902184868e-01,7.37668e-01,9.99999e-01,9.99999e-01,9.70619e-01,7.60355e-01,9.99528e-01
5.931695792e-01,7.48227e-01,9.99999e-01,9.99999e-01,9.79181e-01,7.64481e-01,9.99546e-01
5.961354271e-01,7.50816e-01,9.99999e-01,9.99999e-01,9.77183e-01,7.68547e-01,9.99739e-01
5.991161043e-01,7.59593e-01,9.99999e-01,9.99999e-01,9.83302e-01,7.72554e-01,9.99919e-01
6.021116848e-01,7.69116e-01,9.99999e-01,9.99999e-01,9.90496e-01,7.76501e-01,9.99990e-01
6.051222432e-01,7.76631e-01,9.99999e-01,9.99999e-01,9.95181e-01,7.80391e-01,9.99998e-01
6.081478544e-01,7.82590e-01,9.99999e-01,9.99999e-01,9.97918e-01,7.84223e-01,9.99999e-01
6.111885937e-01,7.87303e-01,9.99999e-01,9.99999e-01,9.99119e-01,7.87997e-01,9.99999e-01
6.142445367e-01,7.91403e-01,9.99999e-01,9.99999e-01,9.99606e-01,7.91714e-01,9.99999e-01
6.173157594e-01,7.95202e-01,9.99999e-01,9.99999e-01,9.99782e-01,7.95375e-01,9.99999e-01
6.204023382e-01,7.98833e-01,9.99999e-01,9.99999e-01,9.99815e-01,7.98980e-01,9.99999e-01
6.235043498e-01,8.01874e-01,9.99999e-01,9.99999e-01,9.99185e-01,8.02529e-01,9.99997e-01
6.266218716e-01,8.02548e-01,9.99999e-01,9.99999e-01,9.95716e-01,8.06024e-01,9.99969e-01
6.297549810e-01,8.08143e-01,9.99999e-01,9.99999e-01,9.98426e-01,8.09465e-01,9.99939e-01
6.329037559e-01,8.10289e-01,9.99999e-01,9.99999e-01,9.96895e-01,8.12851e-01,9.99951e-01
6.360682746e-01,8.14001e-01,9.99999e-01,9.99999e-01,9.97351e-01,8.16185e-01,9.99971e-01
6.392486160e-01,8.16647e-01,9.99999e-01,9.99999e-01,9.96571e-01,8.19466e-01,9.99986e-01
6.424448591e-01,8.18897e-01,9.99999e-01,9.99999e-01,9.95402e-01,8.22695e-01,9.99979e-01
6.456570834e-01,8.08314e-01,9.99999e-01,9.99999e-01,9.78854e-01,8.25873e-01,9.99881e-01
6.488853688e-01,8.15919e-01,9.99999e-01,9.99999e-01,9.84545e-01,8.29000e-01,9.99669e-01
6.521297956e-01,8.18760e-01,9.99999e-01,9.99999e-01,9.84264e-01,8.32076e-01,9.99726e-01
6.553904446e-01,8.21798e-01,9.99999e-01,9.99999e-01,9.84267e-01,8.35103e-01,9.99796e-01
6.586673968e-01,8.26749e-01,9.99999e-01,9.99999e-01,9.86544e-01,8.38081e-01,9.99931e-01
6.619607338e-01,8.34670e-01,9.99999e-01,9.99999e-01,9.92475e-01,8.41010e-01,9.99985e-01
6.652705375e-01,8.40069e-01,9.99999e-01,9.99999e-01,9.95476e-01,8.43891e-01,9.99992e-01
6.685968902e-01,8.45095e-01,9.99999e-01,9.99999e-01,9.98075e-01,8.46725e-01,9.99998e-01
6.719398746e-01,8.48686e-01,9.99999e-01,9.99999e-01,9.99026e-01,8.49513e-01,9.99999e-01
6.752995740e-01,8.51803e-01,9.99999e-01,9.99999e-01,9.99471e-01,8.52254e-01,9.99999e-01
6.786760719e-01,8.54294e-01,9.99999e-01,9.99999e-01,9.99234e-01,8.54949e-01,9.99998e-01
6.820694522e-01,8.56472e-01,9.99999e-01,9.99999e-01,9.98691e-01,8.57600e-01,9.99992e-01
6.854797995e-01,8.58742e-01,9.99999e-01,9.99999e-01,9.98311e-01,8.60206e-01,9.99984e-01
6.889071985e-01,8.59201e-01,9.99999e-01,9.99999e-01,9.95900e-01,8.62768e-01,9.99963e-01
6.923517345e-01,8.09285e-01,9.99999e-01,9.99999e-01,9.35576e-01,8.65288e-01,9.99680e-01
6.958134932e-01,8.37895e-01,9.99999e-01,9.99999e-01,9.66262e-01,8.67764e-01,9.99292e-01
6.992925606e-01,8.41424e-01,9.99999e-01,9.99999e-01,9.67548e-01,8.70199e-01,9.99362e-01
7.027890234e-01,8.37442e-01,9.99999e-01,9.99999e-01,9.60184e-01,8.72592e-01,9.99513e-01
7.063029686e-01,8.45305e-01,9.99999e-01,9.99999e-01,9.66357e-01,8.74944e-01,9.99757e-01
7.098344834e-01,8.48785e-01,9.99999e-01,9.99999e-01,9.67683e-01,8.77256e-01,9.99856e-01
7.133836558e-01,8.41642e-01,9.99999e-01,9.99999e-01,9.57197e-01,8.79528e-01,9.99714e-01
7.169505741e-01,6.26445e-01,9.99999e-01,9.99999e-01,7.12040e-01,8.81761e-01,9.97761e-01
7.205353270e-01,7.44846e-01,9.99999e-01,9.99999e-01,8.45966e-01,8.83955e-01,9.96054e-01
7.241380036e-01,7.12558e-01,9.99999e-01,9.99999e-01,8.06889e-01,8.86112e-01,9.96591e-01
7.277586936e-01,7.30014e-01,9.99999e-01,9.99999e-01,8.24170e-01,8.88230e-01,9.97213e-01
7.313974871e-01,7.22914e-01,9.99999e-01,9.99999e-01,8.13039e-01,8.90312e-01,9.98693e-01
7.350544745e-01,7.96074e-01,9.99999e-01,9.99999e-01,8.92506e-01,8.92358e-01,9.99545e-01
7.387297469e-01,8.22104e-01,9.99999e-01,9.99999e-01,9.19391e-01,8.94367e-01,9.99791e-01
7.424233956e-01,8.60147e-01,9.99999e-01,9.99999e-01,9.59657e-01,8.96342e-01,9.99959e-01
7.461355126e-01,8.76113e-01,9.99999e-01,9.99999e-01,9.75328e-01,8.98281e-01,9.99992e-01
7.498661902e-01,8.89784e-01,9.99999e-01,9.99999e-01,9.88446e-01,9.00187e-01,9.99997e-01
7.536155211e-01,8.96925e-01,9.99999e-01,9.99999e-01,9.94309e-01,9.02058e-01,9.99998e-01
7.573835987e-01,9.01247e-01,9.99999e-01,9.99999e-01,9.97067e-01,9.03897e-01,9.99999e-01
7.611705167e-01,9.04052e-01,9.99999e-01,9.99999e-01,9.98177e-01,9.05703e-01,9.99999e-01
7.649763693e-01,9.06439e-01,9.99999e-01,9.99999e-01,9.98856e-01,9.07476e-01,9.99999e-01
7.688012511e-01,9.08494e-01,9.99999e-01,9.99999e-01,9.99203e-01,9.09218e-01,9.99999e-01
7.726452574e-01,9.10332e-01,9.99999e-01,9.99999e-01,9.99344e-01,9.10929e-01,9.99999e-01
7.765084837e-01,9.11756e-01,9.99999e-01,9.99999e-01,9.99065e-01,9.12609e-01,9.99998e-01
7.803910261e-01,9.10568e-01,9.99999e-01,9.99999e-01,9.95966e-01,9.14259e-01,9.99995e-01
7.842929812e-01,9.03029e-01,9.99999e-01,9.99999e-01,9.85994e-01,9.15879e-01,9.99973e-01
7.882144461e-01,8.91075e-01,9.99999e-01,9.99999e-01,9.71422e-01,9.17470e-01,9.99801e-01
7.921555184e-01,9.04261e-01,9.99999e-01,9.99999e-01,9.84266e-01,9.19033e-01,9.99654e-01
7.961162960e-01,8.94745e-01,9.99999e-01,9.99999e-01,9.72268e-01,9.20567e-01,9.99671e-01
8.000968774e-01,8.92282e-01,9.99999e-01,9.99999e-01,9.68028e-01,9.22073e-01,9.99650e-01
8.040973618e-01,8.93787e-01,9.99999e-01,9.99999e-01,9.68029e-01,9.23552e-01,9.99733e-01
8.081178486e-01,8.59697e-01,9.99999e-01,9.99999e-01,9.29649e-01,9.25003e-01,9.99729e-01
8.121584379e-01,6.86490e-01,9.99999e-01,9.99999e-01,7.41764e-01,9.26429e-01,9.98977e-01
8.162192301e-01,6.50401e-01,9.99999e-01,9.99999e-01,7.03693e-01,9.27828e-01,9.96160e-01
8.203003262e-01,7.80964e-01,9.99999e-01,9.99999e-01,8.44260e-01,9.29202e-01,9.95506e-01
8.244018279e-01,7.37100e-01,9.99999e-01,9.99999e-01,7.94955e-01,9.30551e-01,9.96421e-01
8.285238370e-01,7.51041e-01,9.99999e-01,9.99999e-01,8.08217e-01,9.31875e-01,9.97188e-01
8.326664562e-01,7.52490e-01,9.99999e-01,9.99999e-01,8.07314e-01,9.33174e-01,9.98836e-01
8.368297885e-01,8.00260e-01,9.99999e-01,9.99999e-01,8.56623e-01,9.34450e-01,9.99733e-01
8.410139374e-01,8.53114e-01,9.99999e-01,9.99999e-01,9.11878e-01,9.35702e-01,9.99844e-01
8.452190071e-01,8.95323e-01,9.99999e-01,9.99999e-01,9.55679e-01,9.36931e-01,9.99906e-01
8.494451021e-01,9.13658e-01,9.99999e-01,9.99999e-01,9.73977e-01,9.38138e-01,9.99925e-01
8.536923276e-01,9.24767e-01,9.99999e-01,9.99999e-01,9.84549e-01,9.39322e-01,9.99954e-01
8.579607893e-01,9.31490e-01,9.99999e-01,9.99999e-01,9.90446e-01,9.40484e-01,9.99988e-01
8.622505932e-01,9.35903e-01,9.99999e-01,9.99999e-01,9.93925e-01,9.41625e-01,9.99997e-01
8.665618462e-01,9.39193e-01,9.99999e-01,9.99999e-01,9.96234e-01,9.42744e-01,9.99998e-01
8.708946554e-01,9.39769e-01,9.99999e-01,9.99999e-01,9.95685e-01,9.43842e-01,9.99997e-01
8.752491287e-01,9.39466e-01,9.99999e-01,9.99999e-01,9.94233e-01,9.44921e-01,9.99993e-01
8.796253743e-01,9.38408e-01,9.99999e-01,9.99999e-01,9.92014e-01,9.45979e-01,9.99981e-01
8.840235012e-01,9.38336e-01,9.99999e-01,9.99999e-01,9.90887e-01,9.47017e-01,9.99943e-01
8.884436187e-01,9.16905e-01,9.99999e-01,9.99999e-01,9.67315e-01,9.48036e-01,9.99841e-01
8.928858368e-01,6.75257e-01,9.99999e-01,9.99999e-01,7.12168e-01,9.49035e-01,9.99087e-01
8.973502660e-01,5.23049e-01,9.99999e-01,9.99999e-01,5.53150e-01,9.50017e-01,9.95331e-01
9.018370173e-01,6.98313e-01,9.99999e-01,9.99999e-01,7.39731e-01,9.50979e-01,9.92669e-01
9.063462024e-01,7.22494e-01,9.99999e-01,9.99999e-01,7.63903e-01,9.51924e-01,9.93557e-01
9.108779334e-01,6.23002e-01,9.99999e-01,9.99999e-01,6.58234e-01,9.52851e-01,9.93306e-01
9.154323231e-01,5.87423e-01,9.99999e-01,9.99999e-01,6.19330e-01,9.53760e-01,9.94464e-01
9.200094847e-01,6.56152e-01,9.99999e-01,9.99999e-01,6.89458e-01,9.54652e-01,9.96897e-01
9.246095321e-01,5.50726e-01,9.99999e-01,9.99999e-01,5.78424e-01,9.55528e-01,9.96426e-01
9.292325798e-01,4.71287e-02,9.99999e-01,9.99999e-01,4.99705e-02,9.56387e-01,9.86137e-01
9.338787427e-01,1.43198e-02,9.99999e-01,9.99999e-01,1.58483e-02,9.57230e-01,9.43924e-01
9.385481364e-01,1.64464e-01,9.99999e-01,9.99999e-01,1.83860e-01,9.58056e-01,9.33666e-01
9.432408771e-01,9.77625e-02,9.99999e-01,9.99999e-01,1.08176e-01,9.58868e-01,9.42505e-01
9.479570815e-01,3.69522e-02,9.99999e-01,9.99999e-01,4.04064e-02,9.59663e-01,9.52950e-01
9.526968669e-01,7.55320e-02,9.99999e-01,9.99999e-01,8.09886e-02,9.60444e-01,9.71033e-01
9.574603512e-01,8.52430e-02,9.99999e-01,9.99999e-01,9.00170e-02,9.61210e-01,9.85179e-01
9.622476530e-01,1.26782e-01,9.99999e-01,9.99999e-01,1.33163e-01,9.61962e-01,9.89728e-01
9.670588912e-01,2.91380e-01,9.99999e-01,9.99999e-01,3.04815e-01,9.62699e-01,9.92963e-01
9.718941857e-01,4.33835e-01,9.99999e-01,9.99999e-01,4.52652e-01,9.63422e-01,9.94815e-01
9.767536566e-01,4.96152e-01,9.99999e-01,9.99999e-01,5.16658e-01,9.64131e-01,9.96035e-01
9.816374249e-01,5.86953e-01,9.99999e-01,9.99999e-01,6.09187e-01,9.64827e-01,9.98626e-01
9.865456120e-01,7.06407e-01,9.99999e-01,9.99999e-01,7.31851e-01,9.65510e-01,9.99713e-01
9.914783401e-01,7.95597e-01,9.99999e-01,9.99999e-01,8.23511e-01,9.66179e-01,9.99920e-01
9.964357318e-01,8.69715e-01,9.99999e-01,9.99999e-01,8.99589e-01,9.66836e-01,9.99953e-01
1.001417910e+00,9.07873e-01,9.99999e-01,9.99999e-01,9.38455e-01,9.67480e-01,9.99928e-01
1.006425000e+00,9.33536e-01,9.99999e-01,9.99999e-01,9.64381e-01,9.68112e-01,9.99898e-01
1.011457125e+00,9.47104e-01,9.99999e-01,9.99999e-01,9.77764e-01,9.68732e-01,9.99905e-01
1.016514411e+00,9.54582e-01,9.99999e-01,9.99999e-01,9.84839e-01,9.69340e-01,9.99933e-01
1.021596983e+00,9.58137e-01,9.99999e-01,9.99999e-01,9.87897e-01,9.69937e-01,9.99934e-01
1.026704968e+00,9.61309e-01,9.99999e-01,9.99999e-01,9.90547e-01,9.70522e-01,9.99958e-01
1.031838492e+00,9.64410e-01,9.99999e-01,9.99999e-01,9.93126e-01,9.71095e-01,9.99987e-01
1.036997685e+00,9.67682e-01,9.99999e-01,9.99999e-01,9.95909e-01,9.71658e-01,9.99997e-01
1.042182673e+00,9.67464e-01,9.99999e-01,9.99999e-01,9.95118e-01,9.72210e-01,9.99998e-01
1.047393587e+00,9.66462e-01,9.99999e-01,9.99999e-01,9.93535e-01,9.72751e-01,9.99998e-01
1.052630555e+00,9.64653e-01,9.99999e-01,9.99999e-01,9.91135e-01,9.73282e-01,9.99997e-01
1.057893707e+00,9.59425e-01,9.99999e-01,9.99999e-01,9.85239e-01,9.73803e-01,9.99994e-01
1.063183176e+00,9.50774e-01,9.99999e-01,9.99999e-01,9.75851e-01,9.74314e-01,9.99986e-01
1.068499092e+00,9.35737e-01,9.99999e-01,9.99999e-01,9.59938e-01,9.74815e-01,9.99971e-01
1.073841587e+00,9.29779e-01,9.99999e-01,9.99999e-01,9.53377e-01,9.75306e-01,9.99939e-01
1.079210795e+00,9.17688e-01,9.99999e-01,9.99999e-01,9.40611e-01,9.75788e-01,9.99836e-01
1.084606849e+00,8.89656e-01,9.99999e-01,9.99999e-01,9.11647e-01,9.76260e-01,9.99606e-01
1.090029883e+00,8.54909e-01,9.99999e-01,9.99999e-01,8.75995e-01,9.76724e-01,9.99184e-01
1.095480033e+00,6.81146e-01,9.99999e-01,9.99999e-01,6.98082e-01,9.77178e-01,9.98526e-01
1.100957433e+00,4.01317e-01,9.99999e-01,9.99999e-01,4.11618e-01,9.77624e-01,9.97289e-01
1.106462220e+00,1.22072e-01,9.99999e-01,9.99999e-01,1.25386e-01,9.78061e-01,9.95406e-01
1.111994531e+00,1.44834e-02,9.99999e-01,9.99999e-01,1.49838e-02,9.78490e-01,9.87853e-01
1.117554504e+00,1.66852e-03,9.99999e-01,9.99999e-01,1.78135e-03,9.78910e-01,9.56836e-01
1.123142276e+00,1.32569e-02,9.99999e-01,9.99999e-01,1.50300e-02,9.79322e-01,9.00654e-01
1.128757988e+00,3.77073e-02,9.99999e-01,9.99999e-01,4.34399e-02,9.79726e-01,8.85995e-01
1.134401778e+00,1.97246e-02,9.99999e-01,9.99999e-01,2.23063e-02,9.80123e-01,9.02195e-01
1.140073787e+00,1.19994e-01,9.99999e-01,9.99999e-01,1.32868e-01,9.80512e-01,9.21055e-01
1.145774156e+00,2.37344e-02,9.99999e-01,9.99999e-01,2.60884e-02,9.80893e-01,9.27489e-01
1.151503026e+00,1.53572e-02,9.99999e-01,9.99999e-01,1.63206e-02,9.81267e-01,9.58932e-01
1.157260541e+00,2.01287e-02,9.99999e-01,9.99999e-01,2.07640e-02,9.81633e-01,9.87540e-01
1.163046844e+00,5.42814e-02,9.99999e-01,9.99999e-01,5.54735e-02,9.81993e-01,9.96452e-01
1.168862078e+00,1.18400e-01,9.99999e-01,9.99999e-01,1.20748e-01,9.82345e-01,9.98170e-01
1.174706389e+00,2.61749e-01,9.99999e-01,9.99999e-01,2.67007e-01,9.82691e-01,9.97575e-01
1.180579921e+00,4.33367e-01,9.99999e-01,9.99999e-01,4.42468e-01,9.83030e-01,9.96336e-01
1.186482820e+00,6.12555e-01,9.99999e-01,9.99999e-01,6.25269e-01,9.83362e-01,9.96240e-01
1.192415234e+00,7.44232e-01,9.99999e-01,9.99999e-01,7.58709e-01,9.83688e-01,9.97183e-01
1.198377311e+00,7.77729e-01,9.99999e-01,9.99999e-01,7.92476e-01,9.84008e-01,9.97339e-01
1.204369197e+00,7.89369e-01,9.99999e-01,9.99999e-01,8.03877e-01,9.84321e-01,9.97592e-01
1.210391043e+00,7.97121e-01,9.99999e-01,9.99999e-01,8.10752e-01,9.84628e-01,9.98534e-01
1.216442998e+00,8.23316e-01,9.99999e-01,9.99999e-01,8.36663e-01,9.84930e-01,9.99102e-01
1.222525213e+00,8.56458e-01,9.99999e-01,9.99999e-01,8.69786e-01,9.85225e-01,9.99442e-01
1.228637839e+00,8.94168e-01,9.99999e-01,9.99999e-01,9.07545e-01,9.85515e-01,9.99740e-01
