#,Wave/freq,Total,N2,O2,H2O,Rayleigh,CIA
4.000000000e-01,5.74405e-01,9.99999e-01,9.99999e-01,9.99937e-01,5.74441e-01,9.99999e-01
4.020000000e-01,5.80750e-01,9.99999e-01,9.99999e-01,9.99960e-01,5.80772e-01,9.99999e-01
4.040100000e-01,5.87030e-01,9.99999e-01,9.99999e-01,9.99983e-01,5.87039e-01,9.99999e-01
4.060300500e-01,5.93246e-01,9.99999e-01,9.99999e-01,9.99995e-01,5.93248e-01,9.99999e-01
4.080602003e-01,5.99398e-01,9.99999e-01,9.99999e-01,9.99998e-01,5.99399e-01,9.99999e-01
4.101005013e-01,6.05489e-01,9.99999e-01,9.99999e-01,9.99999e-01,6.05489e-01,9.99999e-01
4.121510038e-01,6.11518e-01,9.99999e-01,9.99999e-01,9.99997e-01,6.11519e-01,9.99999e-01
4.142117588e-01,6.17478e-01,9.99999e-01,9.99999e-01,9.99982e-01,6.17489e-01,9.99999e-01
4.162828176e-01,6.23349e-01,9.99999e-01,9.99999e-01,9.99922e-01,6.23397e-01,9.99999e-01
4.183642317e-01,6.29214e-01,9.99999e-01,9.99999e-01,9.99953e-01,6.29243e-01,9.99999e-01
4.204560528e-01,6.35010e-01,9.99999e-01,9.99999e-01,9.99971e-01,6.35027e-01,9.99999e-01
4.225583331e-01,6.40742e-01,9.99999e-01,9.99999e-01,9.99988e-01,6.40749e-01,9.99999e-01
4.246711247e-01,6.46402e-01,9.99999e-01,9.99999e-01,9.99991e-01,6.46407e-01,9.99999e-01
4.267944804e-01,6.51994e-01,9.99999e-01,9.99999e-01,9.99987e-01,6.52002e-01,9.99999e-01
4.289284528e-01,6.57528e-01,9.99999e-01,9.99999e-01,9.99989e-01,6.57534e-01,9.99999e-01
4.310730950e-01,6.62999e-01,9.99999e-01,9.99999e-01,9.99995e-01,6.63002e-01,9.99999e-01
4.332284605e-01,6.68405e-01,9.99999e-01,9.99999e-01,9.99998e-01,6.68406e-01,9.99999e-01
4.353946028e-01,6.73746e-01,9.99999e-01,9.99999e-01,9.99999e-01,6.73746e-01,9.99999e-01
4.375715758e-01,6.79017e-01,9.99999e-01,9.99999e-01,9.99991e-01,6.79022e-01,9.99999e-01
4.397594337e-01,6.84187e-01,9.99999e-01,9.99999e-01,9.99931e-01,6.84234e-01,9.99999e-01
4.419582309e-01,6.89144e-01,9.99999e-01,9.99999e-01,9.99654e-01,6.89381e-01,9.99999e-01
4.441680220e-01,6.94278e-01,9.99999e-01,9.99999e-01,9.99729e-01,6.94465e-01,9.99999e-01
4.463888621e-01,6.99288e-01,9.99999e-01,9.99999e-01,9.99718e-01,6.99485e-01,9.99999e-01
4.486208064e-01,7.04317e-01,9.99999e-01,9.99999e-01,9.99825e-01,7.04440e-01,9.99999e-01
4.508639105e-01,7.09274e-01,9.99999e-01,9.99999e-01,9.99917e-01,7.09332e-01,9.99999e-01
4.531182300e-01,7.14137e-01,9.99999e-01,9.99999e-01,9.99967e-01,7.14160e-01,9.99999e-01
4.553838212e-01,7.18909e-01,9.99999e-01,9.99999e-01,9.99977e-01,7.18925e-01,9.99999e-01
4.576607403e-01,7.23619e-01,9.99999e-01,9.99999e-01,9.99989e-01,7.23627e-01,9.99999e-01
4.599490440e-01,7.28260e-01,9.99999e-01,9.99999e-01,9.99992e-01,7.28265e-01,9.99999e-01
4.622487892e-01,7.32840e-01,9.99999e-01,9.99999e-01,9.99998e-01,7.32841e-01,9.99999e-01
4.645600332e-01,7.37350e-01,9.99999e-01,9.99999e-01,9.99994e-01,7.37354e-01,9.99999e-01
4.668828333e-01,7.41744e-01,9.99999e-01,9.99999e-01,9.99917e-01,7.41805e-01,9.99999e-01
4.692172475e-01,7.46063e-01,9.99999e-01,9.99999e-01,9.99823e-01,7.46194e-01,9.99999e-01
4.715633337e-01,7.50435e-01,9.99999e-01,9.99999e-01,9.99884e-01,7.50522e-01,9.99999e-01
4.739211504e-01,7.54705e-01,9.99999e-01,9.99999e-01,9.99889e-01,7.54788e-01,9.99999e-01
4.762907561e-01,7.58951e-01,9.99999e-01,9.99999e-01,9.99942e-01,7.58994e-01,9.99999e-01
4.786722099e-01,7.63122e-01,9.99999e-01,9.99999e-01,9.99976e-01,7.63139e-01,9.99999e-01
4.810655710e-01,7.67220e-01,9.99999e-01,9.99999e-01,9.99992e-01,7.67225e-01,9.99999e-01
4.834708988e-01,7.71199e-01,9.99999e-01,9.99999e-01,9.99932e-01,7.71251e-01,9.99999e-01
4.858882533e-01,7.75122e-01,9.99999e-01,9.99999e-01,9.99874e-01,7.75218e-01,9.99999e-01
4.883176946e-01,7.79046e-01,9.99999e-01,9.99999e-01,9.99895e-01,7.79127e-01,9.99999e-01
4.907592831e-01,7.82903e-01,9.99999e-01,9.99999e-01,9.99905e-01,7.82977e-01,9.99999e-01
4.932130795e-01,7.86717e-01,9.99999e-01,9.99999e-01,9.99932e-01,7.86770e-01,9.99999e-01
4.956791449e-01,7.90478e-01,9.99999e-01,9.99999e-01,9.99964e-01,7.90506e-01,9.99999e-01
4.981575406e-01,7.94045e-01,9.99999e-01,9.99999e-01,9.99822e-01,7.94185e-01,9.99999e-01
5.006483283e-01,7.97441e-01,9.99999e-01,9.99999e-01,9.99541e-01,7.97808e-01,9.99996e-01
5.031515699e-01,7.99496e-01,9.99999e-01,9.99999e-01,9.97677e-01,8.01376e-01,9.99975e-01
5.056673278e-01,8.03879e-01,9.99999e-01,9.99999e-01,9.98772e-01,8.04888e-01,9.99971e-01
5.081956644e-01,8.07081e-01,9.99999e-01,9.99999e-01,9.98452e-01,8.08347e-01,9.99981e-01
5.107366428e-01,8.10900e-01,9.99999e-01,9.99999e-01,9.98954e-01,8.11751e-01,9.99996e-01
5.132903260e-01,8.14615e-01,9.99999e-01,9.99999e-01,9.99402e-01,8.15102e-01,9.99999e-01
5.158567776e-01,8.18194e-01,9.99999e-01,9.99999e-01,9.99747e-01,8.18400e-01,9.99999e-01
5.184360615e-01,8.21563e-01,9.99999e-01,9.99999e-01,9.99898e-01,8.21646e-01,9.99999e-01
5.210282418e-01,8.24809e-01,9.99999e-01,9.99999e-01,9.99961e-01,8.24841e-01,9.99999e-01
5.236333830e-01,8.27858e-01,9.99999e-01,9.99999e-01,9.99848e-01,8.27984e-01,9.99998e-01
5.262515499e-01,8.30997e-01,9.99999e-01,9.99999e-01,9.99904e-01,8.31077e-01,9.99998e-01
5.288828077e-01,8.34047e-01,9.99999e-01,9.99999e-01,9.99912e-01,8.34120e-01,9.99998e-01
5.315272217e-01,8.37049e-01,9.99999e-01,9.99999e-01,9.99923e-01,8.37114e-01,9.99999e-01
5.341848578e-01,8.40017e-01,9.99999e-01,9.99999e-01,9.99949e-01,8.40059e-01,9.99999e-01
5.368557821e-01,8.42807e-01,9.99999e-01,9.99999e-01,9.99823e-01,8.42955e-01,9.99999e-01
5.395400610e-01,8.45263e-01,9.99999e-01,9.99999e-01,9.99364e-01,8.45805e-01,9.99994e-01
5.422377613e-01,8.47896e-01,9.99999e-01,9.99999e-01,9.99176e-01,8.48607e-01,9.99984e-01
5.449489501e-01,8.50699e-01,9.99999e-01,9.99999e-01,9.99235e-01,8.51363e-01,9.99984e-01
5.476736949e-01,8.53488e-01,9.99999e-01,9.99999e-01,9.99321e-01,8.54074e-01,9.99991e-01
5.504120634e-01,8.56316e-01,9.99999e-01,9.99999e-01,9.99507e-01,8.56739e-01,9.99997e-01
5.531641237e-01,8.59147e-01,9.99999e-01,9.99999e-01,9.99751e-01,8.59359e-01,9.99999e-01
5.559299443e-01,8.61833e-01,9.99999e-01,9.99999e-01,9.99880e-01,8.61936e-01,9.99999e-01
5.587095940e-01,8.64405e-01,9.99999e-01,9.99999e-01,9.99924e-01,8.64469e-01,9.99999e-01
5.615031420e-01,8.66887e-01,9.99999e-01,9.99999e-01,9.99916e-01,8.66960e-01,9.99999e-01
5.643106577e-01,8.69325e-01,9.99999e-01,9.99999e-01,9.99905e-01,8.69408e-01,9.99998e-01
5.671322110e-01,8.70807e-01,9.99999e-01,9.99999e-01,9.98854e-01,8.71814e-01,9.99989e-01
5.699678720e-01,8.73083e-01,9.99999e-01,9.99999e-01,9.98775e-01,8.74180e-01,9.99968e-01
5.728177114e-01,8.75367e-01,9.99999e-01,9.99999e-01,9.98727e-01,8.76505e-01,9.99973e-01
5.756818000e-01,8.77750e-01,9.99999e-01,9.99999e-01,9.98831e-01,8.78790e-01,9.99983e-01
5.785602090e-01,8.80134e-01,9.99999e-01,9.99999e-01,9.98981e-01,8.81036e-01,9.99994e-01
5.814530100e-01,8.82338e-01,9.99999e-01,9.99999e-01,9.98977e-01,8.83243e-01,9.99997e-01
5.843602750e-01,8.84328e-01,9.99999e-01,9.99999e-01,9.98782e-01,8.85411e-01,9.99992e-01
5.872820764e-01,8.78210e-01,9.99999e-01,9.99999e-01,9.89557e-01,8.87542e-01,9.99925e-01
5.902184868e-01,8.78186e-01,9.99999e-01,9.99999e-01,9.87326e-01,8.89636e-01,9.99798e-01
5.931695792e-01,8.83536e-01,9.99999e-01,9.99999e-01,9.91043e-01,8.91694e-01,9.99806e-01
5.961354271e-01,8.84838e-01,9.99999e-01,9.99999e-01,9.90177e-01,8.93715e-01,9.99888e-01
5.991161043e-01,8.89244e-01,9.99999e-01,9.99999e-01,9.92824e-01,8.95701e-01,9.99965e-01
6.021116848e-01,8.93988e-01,9.99999e-01,9.99999e-01,9.95921e-01,8.97652e-01,9.99995e-01
6.051222432e-01,8.97710e-01,9.99999e-01,9.99999e-01,9.97934e-01,8.99568e-01,9.99999e-01
6.081478544e-01,9.00648e-01,9.99999e-01,9.99999e-01,9.99108e-01,9.01451e-01,9.99999e-01
6.111885937e-01,9.02959e-01,9.99999e-01,9.99999e-01,9.99622e-01,9.03300e-01,9.99999e-01
6.142445367e-01,9.04964e-01,9.99999e-01,9.99999e-01,9.99831e-01,9.05116e-01,9.99999e-01
6.173157594e-01,9.06816e-01,9.99999e-01,9.99999e-01,9.99906e-01,9.06900e-01,9.99999e-01
6.204023382e-01,9.08581e-01,9.99999e-01,9.99999e-01,9.99921e-01,9.08653e-01,9.99999e-01
6.235043498e-01,9.10059e-01,9.99999e-01,9.99999e-01,9.99654e-01,9.10373e-01,9.99998e-01
6.266218716e-01,9.10382e-01,9.99999e-01,9.99999e-01,9.98169e-01,9.12064e-01,9.99986e-01
6.297549810e-01,9.13086e-01,9.99999e-01,9.99999e-01,9.99328e-01,9.13723e-01,9.99973e-01
6.329037559e-01,9.14119e-01,9.99999e-01,9.99999e-01,9.98671e-01,9.15353e-01,9.99978e-01
6.360682746e-01,9.15907e-01,9.99999e-01,9.99999e-01,9.98869e-01,9.16954e-01,9.99987e-01
6.392486160e-01,9.17175e-01,9.99999e-01,9.99999e-01,9.98534e-01,9.18525e-01,9.99994e-01
6.424448591e-01,9.18261e-01,9.99999e-01,9.99999e-01,9.98043e-01,9.20068e-01,9.99990e-01
6.456570834e-01,9.13191e-01,9.99999e-01,9.99999e-01,9.90942e-01,9.21584e-01,9.99949e-01
6.488853688e-01,9.16805e-01,9.99999e-01,9.99999e-01,9.93350e-01,9.23071e-01,9.99858e-01
6.521297956e-01,9.18161e-01,9.99999e-01,9.99999e-01,9.93224e-01,9.24532e-01,9.99883e-01
6.553904446e-01,9.19642e-01,9.99999e-01,9.99999e-01,9.93255e-01,9.25966e-01,9.99912e-01
6.586673968e-01,9.21987e-01,9.99999e-01,9.99999e-01,9.94218e-01,9.27374e-01,9.99970e-01
6.619607338e-01,9.25643e-01,9.99999e-01,9.99999e-01,9.96653e-01,9.28756e-01,9.99993e-01
6.652705375e-01,9.28308e-01,9.99999e-01,9.99999e-01,9.98061e-01,9.30113e-01,9.99996e-01
6.685968902e-01,9.30606e-01,9.99999e-01,9.99999e-01,9.99098e-01,9.31445e-01,9.99998e-01
6.719398746e-01,9.32363e-01,9.99999e-01,9.99999e-01,9.99582e-01,9.32753e-01,9.99999e-01
6.752995740e-01,9.33825e-01,9.99999e-01,9.99999e-01,9.99773e-01,9.34036e-01,9.99999e-01
6.786760719e-01,9.34991e-01,9.99999e-01,9.99999e-01,9.99673e-01,9.35296e-01,9.99999e-01
6.820694522e-01,9.36007e-01,9.99999e-01,9.99999e-01,9.99441e-01,9.36532e-01,9.99996e-01
6.854797995e-01,9.37065e-01,9.99999e-01,9.99999e-01,9.99279e-01,9.37746e-01,9.99993e-01
6.889071985e-01,9.37291e-01,9.99999e-01,9.99999e-01,9.98261e-01,9.38937e-01,9.99983e-01
6.923517345e-01,9.13603e-01,9.99999e-01,9.99999e-01,9.71939e-01,9.40107e-01,9.99863e-01
6.958134932e-01,9.27113e-01,9.99999e-01,9.99999e-01,9.85273e-01,9.41254e-01,9.99697e-01
6.992925606e-01,9.28962e-01,9.99999e-01,9.99999e-01,9.86028e-01,9.42381e-01,9.99727e-01
7.027890234e-01,9.27020e-01,9.99999e-01,9.99999e-01,9.82752e-01,9.43486e-01,9.99791e-01
7.063029686e-01,9.30756e-01,9.99999e-01,9.99999e-01,9.85476e-01,9.44571e-01,9.99896e-01
7.098344834e-01,9.32395e-01,9.99999e-01,9.99999e-01,9.86058e-01,9.45635e-01,9.99938e-01
7.133836558e-01,9.29077e-01,9.99999e-01,9.99999e-01,9.81525e-01,9.46680e-01,9.99877e-01
7.169505741e-01,8.15979e-01,9.99999e-01,9.99999e-01,8.61829e-01,9.47705e-01,9.99043e-01
7.205353270e-01,8.80244e-01,9.99999e-01,9.99999e-01,9.29398e-01,9.48711e-01,9.98312e-01
7.241380036e-01,8.64151e-01,9.99999e-01,9.99999e-01,9.11249e-01,9.49698e-01,9.98542e-01
7.277586936e-01,8.73158e-01,9.99999e-01,9.99999e-01,9.19563e-01,9.50667e-01,9.98808e-01
7.313974871e-01,8.69649e-01,9.99999e-01,9.99999e-01,9.14373e-01,9.51617e-01,9.99441e-01
7.350544745e-01,9.06873e-01,9.99999e-01,9.99999e-01,9.52232e-01,9.52550e-01,9.99805e-01
7.387297469e-01,9.19607e-01,9.99999e-01,9.99999e-01,9.64574e-01,9.53465e-01,9.99910e-01
7.424233956e-01,9.37642e-01,9.99999e-01,9.99999e-01,9.82495e-01,9.54363e-01,9.99982e-01
7.461355126e-01,9.45075e-01,9.99999e-01,9.99999e-01,9.89357e-01,9.55244e-01,9.99996e-01
7.498661902e-01,9.51355e-01,9.99999e-01,9.99999e-01,9.95029e-01,9.56108e-01,9.99998e-01
7.536155211e-01,9.54621e-01,9.99999e-01,9.99999e-01,9.97560e-01,9.56956e-01,9.99998e-01
7.573835987e-01,9.56585e-01,9.99999e-01,9.99999e-01,9.98743e-01,9.57788e-01,9.99999e-01
7.611705167e-01,9.57856e-01,9.99999e-01,9.99999e-01,9.99219e-01,9.58604e-01,9.99999e-01
7.649763693e-01,9.58936e-01,9.99999e-01,9.99999e-01,9.99510e-01,9.59405e-01,9.99999e-01
7.688012511e-01,9.59864e-01,9.99999e-01,9.99999e-01,9.99658e-01,9.60191e-01,9.99999e-01
7.726452574e-01,9.60692e-01,9.99999e-01,9.99999e-01,9.99719e-01,9.60962e-01,9.99999e-01
7.765084837e-01,9.61335e-01,9.99999e-01,9.99999e-01,9.99601e-01,9.61718e-01,9.99999e-01
7.803910261e-01,9.60805e-01,9.99999e-01,9.99999e-01,9.98282e-01,9.62459e-01,9.99997e-01
7.842929812e-01,9.57413e-01,9.99999e-01,9.99999e-01,9.94015e-01,9.63187e-01,9.99988e-01
7.882144461e-01,9.51961e-01,9.99999e-01,9.99999e-01,9.87686e-01,9.63901e-01,9.99923e-01
7.921555184e-01,9.57928e-01,9.99999e-01,9.99999e-01,9.93226e-01,9.64601e-01,9.99853e-01
7.961162960e-01,9.53650e-01,9.99999e-01,9.99999e-01,9.88081e-01,9.65288e-01,9.99859e-01
8.000968774e-01,9.52511e-01,9.99999e-01,9.99999e-01,9.86221e-01,9.65962e-01,9.99850e-01
8.040973618e-01,9.53194e-01,9.99999e-01,9.99999e-01,9.86224e-01,9.66623e-01,9.99881e-01
8.081178486e-01,9.37465e-01,9.99999e-01,9.99999e-01,9.69292e-01,9.67271e-01,9.99888e-01
8.121584379e-01,8.50045e-01,9.99999e-01,9.99999e-01,8.78613e-01,9.67907e-01,9.99562e-01
8.162192301e-01,8.29247e-01,9.99999e-01,9.99999e-01,8.57597e-01,9.68531e-01,9.98358e-01
8.203003262e-01,8.97241e-01,9.99999e-01,9.99999e-01,9.27590e-01,9.69143e-01,9.98077e-01
8.244018279e-01,8.72007e-01,9.99999e-01,9.99999e-01,9.00591e-01,9.69743e-01,9.98469e-01
8.285238370e-01,8.84044e-01,9.99999e-01,9.99999e-01,9.12169e-01,9.70332e-01,9.98797e-01
8.326664562e-01,8.84365e-01,9.99999e-01,9.99999e-01,9.11315e-01,9.70909e-01,9.99502e-01
8.368297885e-01,9.08764e-01,9.99999e-01,9.99999e-01,9.35552e-01,9.71475e-01,9.99885e-01
8.410139374e-01,9.34214e-01,9.99999e-01,9.99999e-01,9.61157e-01,9.72031e-01,9.99933e-01
8.452190071e-01,9.53815e-01,9.99999e-01,9.99999e-01,9.80748e-01,9.72576e-01,9.99959e-01
8.494451021e-01,9.62172e-01,9.99999e-01,9.99999e-01,9.88790e-01,9.73110e-01,9.99967e-01
8.536923276e-01,9.67145e-01,9.99999e-01,9.99999e-01,9.93353e-01,9.73634e-01,9.99980e-01
8.579607893e-01,9.70154e-01,9.99999e-01,9.99999e-01,9.95904e-01,9.74148e-01,9.99994e-01
8.622505932e-01,9.72113e-01,9.99999e-01,9.99999e-01,9.97395e-01,9.74652e-01,9.99998e-01
8.665618462e-01,9.73576e-01,9.99999e-01,9.99999e-01,9.98389e-01,9.75147e-01,9.99999e-01
8.708946554e-01,9.73833e-01,9.99999e-01,9.99999e-01,9.98156e-01,9.75631e-01,9.99998e-01
8.752491287e-01,9.73698e-01,9.99999e-01,9.99999e-01,9.97534e-01,9.76107e-01,9.99996e-01
8.796253743e-01,9.73235e-01,9.99999e-01,9.99999e-01,9.96588e-01,9.76573e-01,9.99991e-01
8.840235012e-01,9.73201e-01,9.99999e-01,9.99999e-01,9.96103e-01,9.77031e-01,9.99975e-01
8.884436187e-01,9.63668e-01,9.99999e-01,9.99999e-01,9.85937e-01,9.77479e-01,9.99931e-01
8.928858368e-01,8.42753e-01,9.99999e-01,9.99999e-01,8.62117e-01,9.77919e-01,9.99609e-01
8.973502660e-01,7.51459e-01,9.99999e-01,9.99999e-01,7.69623e-01,9.78350e-01,9.98003e-01
9.018370173e-01,8.53532e-01,9.99999e-01,9.99999e-01,8.74786e-01,9.78774e-01,9.96862e-01
9.063462024e-01,8.67956e-01,9.99999e-01,9.99999e-01,8.88853e-01,9.79188e-01,9.97243e-01
9.108779334e-01,8.12832e-01,9.99999e-01,9.99999e-01,8.32146e-01,9.79595e-01,9.97135e-01
9.154323231e-01,7.92936e-01,9.99999e-01,9.99999e-01,8.11043e-01,9.79994e-01,9.97631e-01
9.200094847e-01,8.31305e-01,9.99999e-01,9.99999e-01,8.49062e-01,9.80385e-01,9.98673e-01
9.246095321e-01,7.64615e-01,9.99999e-01,9.99999e-01,7.80799e-01,9.80769e-01,9.98471e-01
9.292325798e-01,2.04083e-01,9.99999e-01,9.99999e-01,2.09249e-01,9.81145e-01,9.94054e-01
9.338787427e-01,1.26500e-01,9.99999e-01,9.99999e-01,1.32099e-01,9.81514e-01,9.75652e-01
9.385481364e-01,4.17958e-01,9.99999e-01,9.99999e-01,4.38336e-01,9.81876e-01,9.71108e-01
9.432408771e-01,3.17717e-01,9.99999e-01,9.99999e-01,3.31749e-01,9.82231e-01,9.75025e-01
9.479570815e-01,2.09425e-01,9.99999e-01,9.99999e-01,2.17571e-01,9.82579e-01,9.79626e-01
9.526968669e-01,2.97883e-01,9.99999e-01,9.99999e-01,3.06888e-01,9.82920e-01,9.87523e-01
9.574603512e-01,3.17081e-01,9.99999e-01,9.99999e-01,3.24544e-01,9.83254e-01,9.93642e-01
9.622476530e-01,3.85836e-01,9.99999e-01,9.99999e-01,3.94009e-01,9.83582e-01,9.95599e-01
9.670588912e-01,5.70686e-01,9.99999e-01,9.99999e-01,5.81773e-01,9.83904e-01,9.96988e-01
9.718941857e-01,6.94282e-01,9.99999e-01,9.99999e-01,7.06981e-01,9.84219e-01,9.97782e-01
9.767536566e-01,7.36707e-01,9.99999e-01,9.99999e-01,7.49553e-01,9.84529e-01,9.98304e-01
9.816374249e-01,7.94084e-01,9.99999e-01,9.99999e-01,8.06787e-01,9.84832e-01,9.99412e-01
9.865456120e-01,8.61036e-01,9.99999e-01,9.99999e-01,8.74139e-01,9.85129e-01,9.99877e-01
9.914783401e-01,9.06629e-01,9.99999e-01,9.99999e-01,9.20073e-01,9.85421e-01,9.99965e-01
9.964357318e-01,9.41965e-01,9.99999e-01,9.99999e-01,9.55642e-01,9.85707e-01,9.99979e-01
1.001417910e+00,9.59496e-01,9.99999e-01,9.99999e-01,9.73161e-01,9.85987e-01,9.99969e-01
1.006425000e+00,9.71046e-01,9.99999e-01,9.99999e-01,9.84614e-01,9.86262e-01,9.99956e-01
1.011457125e+00,9.77043e-01,9.99999e-01,9.99999e-01,9.90420e-01,9.86531e-01,9.99959e-01
1.016514411e+00,9.80343e-01,9.99999e-01,9.99999e-01,9.93488e-01,9.86796e-01,9.99971e-01
1.021596983e+00,9.81903e-01,9.99999e-01,9.99999e-01,9.94808e-01,9.87055e-01,9.99971e-01
1.026704968e+00,9.83291e-01,9.99999e-01,9.99999e-01,9.95949e-01,9.87309e-01,9.99980e-01
1.031838492e+00,9.84644e-01,9.99999e-01,9.99999e-01,9.97053e-01,9.87558e-01,9.99994e-01
1.036997685e+00,9.86073e-01,9.99999e-01,9.99999e-01,9.98249e-01,9.87802e-01,9.99998e-01
1.042182673e+00,9.85981e-01,9.99999e-01,9.99999e-01,9.97914e-01,9.88042e-01,9.99999e-01
1.047393587e+00,9.85543e-01,9.99999e-01,9.99999e-01,9.97234e-01,9.88276e-01,9.99998e-01
1.052630555e+00,9.84757e-01,9.99999e-01,9.99999e-01,9.96207e-01,9.88507e-01,9.99998e-01
1.057893707e+00,9.82480e-01,9.99999e-01,9.99999e-01,9.93678e-01,9.88732e-01,9.99997e-01
1.063183176e+00,9.78680e-01,9.99999e-01,9.99999e-01,9.89616e-01,9.88954e-01,9.99994e-01
1.068499092e+00,9.72017e-01,9.99999e-01,9.99999e-01,9.82669e-01,9.89171e-01,9.99987e-01
1.073841587e+00,9.69345e-01,9.99999e-01,9.99999e-01,9.79771e-01,9.89383e-01,9.99973e-01
1.079210795e+00,9.63915e-01,9.99999e-01,9.99999e-01,9.74120e-01,9.89592e-01,9.99929e-01
1.084606849e+00,9.51156e-01,9.99999e-01,9.99999e-01,9.61122e-01,9.89797e-01,9.99831e-01
1.090029883e+00,9.34993e-01,9.99999e-01,9.99999e-01,9.44768e-01,9.89997e-01,9.99651e-01
1.095480033e+00,8.47714e-01,9.99999e-01,9.99999e-01,8.56648e-01,9.90194e-01,9.99370e-01
1.100957433e+00,6.70178e-01,9.99999e-01,9.99999e-01,6.77467e-01,9.90386e-01,9.98841e-01
1.106462220e+00,3.80036e-01,9.99999e-01,9.99999e-01,3.84406e-01,9.90575e-01,9.98035e-01
1.111994531e+00,1.38172e-01,9.99999e-01,9.99999e-01,1.40191e-01,9.90761e-01,9.94793e-01
1.117554504e+00,4.46014e-02,9.99999e-01,9.99999e-01,4.58653e-02,9.90942e-01,9.81330e-01
1.123142276e+00,1.13456e-01,9.99999e-01,9.99999e-01,1.19704e-01,9.91120e-01,9.56292e-01
1.128757988e+00,2.17121e-01,9.99999e-01,9.99999e-01,2.30650e-01,9.91295e-01,9.49612e-01
1.134401778e+00,9.70477e-02,9.99999e-01,9.99999e-01,1.02282e-01,9.91466e-01,9.56990e-01
1.140073787e+00,3.84425e-01,9.99999e-01,9.99999e-01,4.01527e-01,9.91634e-01,9.65484e-01
1.145774156e+00,1.60003e-01,9.99999e-01,9.99999e-01,1.66597e-01,9.91799e-01,9.68359e-01
1.151503026e+00,1.34790e-01,9.99999e-01,9.99999e-01,1.38338e-01,9.91960e-01,9.82247e-01
1.157260541e+00,1.69412e-01,9.99999e-01,9.99999e-01,1.71675e-01,9.92118e-01,9.94658e-01
1.163046844e+00,2.65935e-01,9.99999e-01,9.99999e-01,2.68413e-01,9.92273e-01,9.98482e-01
1.168862078e+00,3.87774e-01,9.99999e-01,9.99999e-01,3.91039e-01,9.92425e-01,9.99217e-01
1.174706389e+00,5.54575e-01,9.99999e-01,9.99999e-01,5.59302e-01,9.92574e-01,9.98963e-01
1.180579921e+00,6.94429e-01,9.99999e-01,9.99999e-01,7.00617e-01,9.92720e-01,9.98433e-01
1.186482820e+00,8.09695e-01,9.99999e-01,9.99999e-01,8.16827e-01,9.92864e-01,9.98392e-01
1.192415234e+00,8.81110e-01,9.99999e-01,9.99999e-01,8.88386e-01,9.93004e-01,9.98795e-01
1.198377311e+00,8.97902e-01,9.99999e-01,9.99999e-01,9.05131e-01,9.93142e-01,9.98862e-01
1.204369197e+00,9.03167e-01,9.99999e-01,9.99999e-01,9.10216e-01,9.93277e-01,9.98970e-01
1.210391043e+00,9.07230e-01,9.99999e-01,9.99999e-01,9.13820e-01,9.93409e-01,9.99373e-01
1.216442998e+00,9.19844e-01,9.99999e-01,9.99999e-01,9.26180e-01,9.93539e-01,9.99616e-01
1.222525213e+00,9.35783e-01,9.99999e-01,9.99999e-01,9.41971e-01,9.93666e-01,9.99761e-01
1.228637839e+00,9.53270e-01,9.99999e-01,9.99999e-01,9.59331e-01,9.93791e-01,9.99888e-01
