#,Wave/freq,Total,N2,O2,H2O,Rayleigh,CIA
4.000000000e-01,9.40500e-01,9.99999e-01,9.99999e-01,9.99992e-01,9.40506e-01,9.99999e-01
4.020000000e-01,9.41644e-01,9.99999e-01,9.99999e-01,9.99995e-01,9.41648e-01,9.99999e-01
4.040100000e-01,9.42765e-01,9.99999e-01,9.99999e-01,9.99997e-01,9.42766e-01,9.99999e-01
4.060300500e-01,9.43864e-01,9.99999e-01,9.99999e-01,9.99999e-01,9.43865e-01,9.99999e-01
4.080602003e-01,9.44942e-01,9.99999e-01,9.99999e-01,9.99999e-01,9.44942e-01,9.99999e-01
4.101005013e-01,9.46000e-01,9.99999e-01,9.99999e-01,9.99999e-01,9.46000e-01,9.99999e-01
4.121510038e-01,9.47038e-01,9.99999e-01,9.99999e-01,9.99999e-01,9.47038e-01,9.99999e-01
4.142117588e-01,9.48054e-01,9.99999e-01,9.99999e-01,9.99997e-01,9.48056e-01,9.99999e-01
4.162828176e-01,9.49048e-01,9.99999e-01,9.99999e-01,9.99990e-01,9.49056e-01,9.99999e-01
4.183642317e-01,9.50031e-01,9.99999e-01,9.99999e-01,9.99994e-01,9.50036e-01,9.99999e-01
4.204560528e-01,9.50996e-01,9.99999e-01,9.99999e-01,9.99996e-01,9.50999e-01,9.99999e-01
4.225583331e-01,9.51942e-01,9.99999e-01,9.99999e-01,9.99998e-01,9.51943e-01,9.99999e-01
4.246711247e-01,9.52868e-01,9.99999e-01,9.99999e-01,9.99998e-01,9.52869e-01,9.99999e-01
4.267944804e-01,9.53777e-01,9.99999e-01,9.99999e-01,9.99998e-01,9.53778e-01,9.99999e-01
4.289284528e-01,9.54669e-01,9.99999e-01,9.99999e-01,9.99998e-01,9.54670e-01,9.99999e-01
4.310730950e-01,9.55545e-01,9.99999e-01,9.99999e-01,9.99999e-01,9.55546e-01,9.99999e-01
4.332284605e-01,9.56404e-01,9.99999e-01,9.99999e-01,9.99999e-01,9.56404e-01,9.99999e-01
4.353946028e-01,9.57247e-01,9.99999e-01,9.99999e-01,9.99999e-01,9.57247e-01,9.99999e-01
4.375715758e-01,9.58072e-01,9.99999e-01,9.99999e-01,9.99998e-01,9.58073e-01,9.99999e-01
4.397594337e-01,9.58877e-01,9.99999e-01,9.99999e-01,9.99991e-01,9.58884e-01,9.99999e-01
4.419582309e-01,9.59643e-01,9.99999e-01,9.99999e-01,9.99960e-01,9.59679e-01,9.99999e-01
4.441680220e-01,9.60431e-01,9.99999e-01,9.99999e-01,9.99969e-01,9.60460e-01,9.99999e-01
4.463888621e-01,9.61196e-01,9.99999e-01,9.99999e-01,9.99968e-01,9.61226e-01,9.99999e-01
4.486208064e-01,9.61958e-01,9.99999e-01,9.99999e-01,9.99980e-01,9.61977e-01,9.99999e-01
4.508639105e-01,9.62705e-01,9.99999e-01,9.99999e-01,9.99990e-01,9.62714e-01,9.99999e-01
4.531182300e-01,9.63433e-01,9.99999e-01,9.99999e-01,9.99995e-01,9.63436e-01,9.99999e-01
4.553838212e-01,9.64143e-01,9.99999e-01,9.99999e-01,9.99997e-01,9.64146e-01,9.99999e-01
4.576607403e-01,9.64840e-01,9.99999e-01,9.99999e-01,9.99998e-01,9.64841e-01,9.99999e-01
4.599490440e-01,9.65523e-01,9.99999e-01,9.99999e-01,9.99998e-01,9.65523e-01,9.99999e-01
4.622487892e-01,9.66193e-01,9.99999e-01,9.99999e-01,9.99999e-01,9.66193e-01,9.99999e-01
4.645600332e-01,9.66849e-01,9.99999e-01,9.99999e-01,9.99998e-01,9.66849e-01,9.99999e-01
4.668828333e-01,9.67485e-01,9.99999e-01,9.99999e-01,9.99990e-01,9.67493e-01,9.99999e-01
4.692172475e-01,9.68106e-01,9.99999e-01,9.99999e-01,9.99980e-01,9.68125e-01,9.99999e-01
4.715633337e-01,9.68732e-01,9.99999e-01,9.99999e-01,9.99986e-01,9.68745e-01,9.99999e-01
4.739211504e-01,9.69341e-01,9.99999e-01,9.99999e-01,9.99987e-01,9.69353e-01,9.99999e-01
4.762907561e-01,9.69943e-01,9.99999e-01,9.99999e-01,9.99993e-01,9.69949e-01,9.99999e-01
4.786722099e-01,9.70531e-01,9.99999e-01,9.99999e-01,9.99996e-01,9.70533e-01,9.99999e-01
4.810655710e-01,9.71106e-01,9.99999e-01,9.99999e-01,9.99998e-01,9.71107e-01,9.99999e-01
4.834708988e-01,9.71662e-01,9.99999e-01,9.99999e-01,9.99991e-01,9.71669e-01,9.99999e-01
4.858882533e-01,9.72208e-01,9.99999e-01,9.99999e-01,9.99985e-01,9.72221e-01,9.99999e-01
4.883176946e-01,9.72751e-01,9.99999e-01,9.99999e-01,9.99987e-01,9.72762e-01,9.99999e-01
4.907592831e-01,9.73283e-01,9.99999e-01,9.99999e-01,9.99989e-01,9.73293e-01,9.99999e-01
4.932130795e-01,9.73806e-01,9.99999e-01,9.99999e-01,9.99992e-01,9.73814e-01,9.99999e-01
4.956791449e-01,9.74320e-01,9.99999e-01,9.99999e-01,9.99995e-01,9.74324e-01,9.99999e-01
4.981575406e-01,9.74806e-01,9.99999e-01,9.99999e-01,9.99979e-01,9.74825e-01,9.99999e-01
5.006483283e-01,9.75266e-01,9.99999e-01,9.99999e-01,9.99948e-01,9.75316e-01,9.99999e-01
5.031515699e-01,9.75543e-01,9.99999e-01,9.99999e-01,9.99741e-01,9.75798e-01,9.99996e-01
5.056673278e-01,9.76134e-01,9.99999e-01,9.99999e-01,9.99863e-01,9.76270e-01,9.99996e-01
5.081956644e-01,9.76564e-01,9.99999e-01,9.99999e-01,9.99828e-01,9.76733e-01,9.99997e-01
5.107366428e-01,9.77074e-01,9.99999e-01,9.99999e-01,9.99884e-01,9.77187e-01,9.99999e-01
5.132903260e-01,9.77568e-01,9.99999e-01,9.99999e-01,9.99933e-01,9.77633e-01,9.99999e-01
5.158567776e-01,9.78043e-01,9.99999e-01,9.99999e-01,9.99971e-01,9.78070e-01,9.99999e-01
5.184360615e-01,9.78487e-01,9.99999e-01,9.99999e-01,9.99988e-01,9.78498e-01,9.99999e-01
5.210282418e-01,9.78914e-01,9.99999e-01,9.99999e-01,9.99995e-01,9.78918e-01,9.99999e-01
5.236333830e-01,9.79314e-01,9.99999e-01,9.99999e-01,9.99982e-01,9.79330e-01,9.99999e-01
5.262515499e-01,9.79724e-01,9.99999e-01,9.99999e-01,9.99989e-01,9.79735e-01,9.99999e-01
5.288828077e-01,9.80121e-01,9.99999e-01,9.99999e-01,9.99989e-01,9.80131e-01,9.99999e-01
5.315272217e-01,9.80511e-01,9.99999e-01,9.99999e-01,9.99991e-01,9.80519e-01,9.99999e-01
5.341848578e-01,9.80895e-01,9.99999e-01,9.99999e-01,9.99993e-01,9.80900e-01,9.99999e-01
5.368557821e-01,9.81255e-01,9.99999e-01,9.99999e-01,9.99979e-01,9.81274e-01,9.99999e-01
5.395400610e-01,9.81570e-01,9.99999e-01,9.99999e-01,9.99928e-01,9.81641e-01,9.99998e-01
5.422377613e-01,9.81909e-01,9.99999e-01,9.99999e-01,9.99908e-01,9.82000e-01,9.99997e-01
5.449489501e-01,9.82267e-01,9.99999e-01,9.99999e-01,9.99914e-01,9.82352e-01,9.99997e-01
5.476736949e-01,9.82624e-01,9.99999e-01,9.99999e-01,9.99924e-01,9.82698e-01,9.99998e-01
5.504120634e-01,9.82983e-01,9.99999e-01,9.99999e-01,9.99945e-01,9.83037e-01,9.99999e-01
5.531641237e-01,9.83342e-01,9.99999e-01,9.99999e-01,9.99972e-01,9.83369e-01,9.99999e-01
5.559299443e-01,9.83682e-01,9.99999e-01,9.99999e-01,9.99986e-01,9.83695e-01,9.99999e-01
5.587095940e-01,9.84006e-01,9.99999e-01,9.99999e-01,9.99991e-01,9.84014e-01,9.99999e-01
5.615031420e-01,9.84318e-01,9.99999e-01,9.99999e-01,9.99990e-01,9.84327e-01,9.99999e-01
5.643106577e-01,9.84624e-01,9.99999e-01,9.99999e-01,9.99988e-01,9.84635e-01,9.99999e-01
5.671322110e-01,9.84808e-01,9.99999e-01,9.99999e-01,9.99870e-01,9.84936e-01,9.99998e-01
5.699678720e-01,9.85095e-01,9.99999e-01,9.99999e-01,9.99864e-01,9.85231e-01,9.99996e-01
5.728177114e-01,9.85379e-01,9.99999e-01,9.99999e-01,9.99858e-01,9.85521e-01,9.99996e-01
5.756818000e-01,9.85676e-01,9.99999e-01,9.99999e-01,9.99870e-01,9.85805e-01,9.99997e-01
5.785602090e-01,9.85972e-01,9.99999e-01,9.99999e-01,9.99886e-01,9.86083e-01,9.99999e-01
5.814530100e-01,9.86244e-01,9.99999e-01,9.99999e-01,9.99886e-01,9.86356e-01,9.99999e-01
5.843602750e-01,9.86489e-01,9.99999e-01,9.99999e-01,9.99863e-01,9.86624e-01,9.99998e-01
5.872820764e-01,9.85724e-01,9.99999e-01,9.99999e-01,9.98830e-01,9.86886e-01,9.99991e-01
5.902184868e-01,9.85731e-01,9.99999e-01,9.99999e-01,9.98590e-01,9.87144e-01,9.99977e-01
5.931695792e-01,9.86390e-01,9.99999e-01,9.99999e-01,9.99002e-01,9.87396e-01,9.99978e-01
5.961354271e-01,9.86553e-01,9.99999e-01,9.99999e-01,9.98907e-01,9.87643e-01,9.99987e-01
5.991161043e-01,9.87096e-01,9.99999e-01,9.99999e-01,9.99204e-01,9.87886e-01,9.99995e-01
6.021116848e-01,9.87678e-01,9.99999e-01,9.99999e-01,9.99548e-01,9.88124e-01,9.99999e-01
6.051222432e-01,9.88131e-01,9.99999e-01,9.99999e-01,9.99771e-01,9.88357e-01,9.99999e-01
6.081478544e-01,9.88488e-01,9.99999e-01,9.99999e-01,9.99901e-01,9.88585e-01,9.99999e-01
6.111885937e-01,9.88769e-01,9.99999e-01,9.99999e-01,9.99957e-01,9.88810e-01,9.99999e-01
6.142445367e-01,9.89011e-01,9.99999e-01,9.99999e-01,9.99980e-01,9.89029e-01,9.99999e-01
6.173157594e-01,9.89235e-01,9.99999e-01,9.99999e-01,9.99989e-01,9.89245e-01,9.99999e-01
6.204023382e-01,9.89448e-01,9.99999e-01,9.99999e-01,9.99990e-01,9.89456e-01,9.99999e-01
6.235043498e-01,9.89625e-01,9.99999e-01,9.99999e-01,9.99960e-01,9.89663e-01,9.99999e-01
6.266218716e-01,9.89664e-01,9.99999e-01,9.99999e-01,9.99796e-01,9.89867e-01,9.99998e-01
6.297549810e-01,9.89989e-01,9.99999e-01,9.99999e-01,9.99925e-01,9.90066e-01,9.99996e-01
6.329037559e-01,9.90113e-01,9.99999e-01,9.99999e-01,9.99852e-01,9.90261e-01,9.99997e-01
6.360682746e-01,9.90327e-01,9.99999e-01,9.99999e-01,9.99874e-01,9.90452e-01,9.99998e-01
6.392486160e-01,9.90479e-01,9.99999e-01,9.99999e-01,9.99837e-01,9.90640e-01,9.99998e-01
6.424448591e-01,9.90607e-01,9.99999e-01,9.99999e-01,9.99781e-01,9.90824e-01,9.99998e-01
6.456570834e-01,9.89994e-01,9.99999e-01,9.99999e-01,9.98986e-01,9.91004e-01,9.99993e-01
6.488853688e-01,9.90435e-01,9.99999e-01,9.99999e-01,9.99262e-01,9.91181e-01,9.99983e-01
6.521297956e-01,9.90597e-01,9.99999e-01,9.99999e-01,9.99247e-01,9.91355e-01,9.99986e-01
6.553904446e-01,9.90772e-01,9.99999e-01,9.99999e-01,9.99249e-01,9.91525e-01,9.99989e-01
6.586673968e-01,9.91053e-01,9.99999e-01,9.99999e-01,9.99358e-01,9.91691e-01,9.99996e-01
6.619607338e-01,9.91500e-01,9.99999e-01,9.99999e-01,9.99642e-01,9.91855e-01,9.99998e-01
6.652705375e-01,9.91802e-01,9.99999e-01,9.99999e-01,9.99785e-01,9.92015e-01,9.99999e-01
6.685968902e-01,9.92082e-01,9.99999e-01,9.99999e-01,9.99908e-01,9.92172e-01,9.99999e-01
6.719398746e-01,9.92281e-01,9.99999e-01,9.99999e-01,9.99953e-01,9.92326e-01,9.99999e-01
6.752995740e-01,9.92452e-01,9.99999e-01,9.99999e-01,9.99974e-01,9.92477e-01,9.99999e-01
6.786760719e-01,9.92589e-01,9.99999e-01,9.99999e-01,9.99963e-01,9.92625e-01,9.99999e-01
6.820694522e-01,9.92709e-01,9.99999e-01,9.99999e-01,9.99937e-01,9.92770e-01,9.99999e-01
6.854797995e-01,9.92833e-01,9.99999e-01,9.99999e-01,9.99919e-01,9.92913e-01,9.99998e-01
6.889071985e-01,9.92857e-01,9.99999e-01,9.99999e-01,9.99804e-01,9.93052e-01,9.99997e-01
6.923517345e-01,9.90026e-01,9.99999e-01,9.99999e-01,9.96830e-01,9.93189e-01,9.99984e-01
6.958134932e-01,9.91670e-01,9.99999e-01,9.99999e-01,9.98369e-01,9.93323e-01,9.99966e-01
6.992925606e-01,9.91870e-01,9.99999e-01,9.99999e-01,9.98434e-01,9.93454e-01,9.99969e-01
7.027890234e-01,9.91649e-01,9.99999e-01,9.99999e-01,9.98075e-01,9.93583e-01,9.99976e-01
7.063029686e-01,9.92090e-01,9.99999e-01,9.99999e-01,9.98381e-01,9.93710e-01,9.99988e-01
7.098344834e-01,9.92284e-01,9.99999e-01,9.99999e-01,9.98447e-01,9.93833e-01,9.99992e-01
7.133836558e-01,9.91870e-01,9.99999e-01,9.99999e-01,9.97915e-01,9.93955e-01,9.99986e-01
7.169505741e-01,9.77380e-01,9.99999e-01,9.99999e-01,9.83310e-01,9.94074e-01,9.99893e-01
7.205353270e-01,9.85949e-01,9.99999e-01,9.99999e-01,9.91895e-01,9.94191e-01,9.99812e-01
7.241380036e-01,9.83840e-01,9.99999e-01,9.99999e-01,9.89633e-01,9.94305e-01,9.99838e-01
7.277586936e-01,9.84985e-01,9.99999e-01,9.99999e-01,9.90645e-01,9.94417e-01,9.99867e-01
7.313974871e-01,9.84625e-01,9.99999e-01,9.99999e-01,9.90103e-01,9.94527e-01,9.99937e-01
7.350544745e-01,9.89227e-01,9.99999e-01,9.99999e-01,9.94583e-01,9.94635e-01,9.99978e-01
7.387297469e-01,9.90769e-01,9.99999e-01,9.99999e-01,9.96017e-01,9.94741e-01,9.99989e-01
7.424233956e-01,9.92906e-01,9.99999e-01,9.99999e-01,9.98052e-01,9.94844e-01,9.99997e-01
7.461355126e-01,9.93771e-01,9.99999e-01,9.99999e-01,9.98818e-01,9.94946e-01,9.99999e-01
7.498661902e-01,9.94499e-01,9.99999e-01,9.99999e-01,9.99450e-01,9.95045e-01,9.99999e-01
7.536155211e-01,9.94875e-01,9.99999e-01,9.99999e-01,9.99729e-01,9.95143e-01,9.99999e-01
7.573835987e-01,9.95101e-01,9.99999e-01,9.99999e-01,9.99860e-01,9.95239e-01,9.99999e-01
7.611705167e-01,9.95247e-01,9.99999e-01,9.99999e-01,9.99913e-01,9.95332e-01,9.99999e-01
7.649763693e-01,9.95371e-01,9.99999e-01,9.99999e-01,9.99945e-01,9.95424e-01,9.99999e-01
7.688012511e-01,9.95477e-01,9.99999e-01,9.99999e-01,9.99961e-01,9.95514e-01,9.99999e-01
7.726452574e-01,9.95572e-01,9.99999e-01,9.99999e-01,9.99968e-01,9.95603e-01,9.99999e-01
7.765084837e-01,9.95645e-01,9.99999e-01,9.99999e-01,9.99955e-01,9.95690e-01,9.99999e-01
7.803910261e-01,9.95584e-01,9.99999e-01,9.99999e-01,9.99808e-01,9.95774e-01,9.99999e-01
7.842929812e-01,9.95191e-01,9.99999e-01,9.99999e-01,9.99331e-01,9.95858e-01,9.99998e-01
7.882144461e-01,9.94565e-01,9.99999e-01,9.99999e-01,9.98628e-01,9.95939e-01,9.99990e-01
7.921555184e-01,9.95256e-01,9.99999e-01,9.99999e-01,9.99249e-01,9.96019e-01,9.99983e-01
7.961162960e-01,9.94754e-01,9.99999e-01,9.99999e-01,9.98666e-01,9.96098e-01,9.99983e-01
8.000968774e-01,9.94629e-01,9.99999e-01,9.99999e-01,9.98464e-01,9.96175e-01,9.99982e-01
8.040973618e-01,9.94707e-01,9.99999e-01,9.99999e-01,9.98462e-01,9.96250e-01,9.99986e-01
8.081178486e-01,9.92846e-01,9.99999e-01,9.99999e-01,9.96521e-01,9.96324e-01,9.99986e-01
8.121584379e-01,9.81950e-01,9.99999e-01,9.99999e-01,9.85548e-01,9.96397e-01,9.99951e-01
8.162192301e-01,9.79289e-01,9.99999e-01,9.99999e-01,9.82938e-01,9.96468e-01,9.99817e-01
8.203003262e-01,9.87681e-01,9.99999e-01,9.99999e-01,9.91323e-01,9.96537e-01,9.99786e-01
8.244018279e-01,9.84503e-01,9.99999e-01,9.99999e-01,9.88022e-01,9.96605e-01,9.99830e-01
8.285238370e-01,9.86348e-01,9.99999e-01,9.99999e-01,9.89772e-01,9.96672e-01,9.99866e-01
8.326664562e-01,9.86396e-01,9.99999e-01,9.99999e-01,9.89677e-01,9.96738e-01,9.99944e-01
8.368297885e-01,9.89455e-01,9.99999e-01,9.99999e-01,9.92640e-01,9.96802e-01,9.99986e-01
8.410139374e-01,9.92498e-01,9.99999e-01,9.99999e-01,9.95626e-01,9.96865e-01,9.99992e-01
8.452190071e-01,9.94786e-01,9.99999e-01,9.99999e-01,9.97855e-01,9.96927e-01,9.99995e-01
8.494451021e-01,9.95742e-01,9.99999e-01,9.99999e-01,9.98753e-01,9.96988e-01,9.99995e-01
8.536923276e-01,9.96312e-01,9.99999e-01,9.99999e-01,9.99264e-01,9.97047e-01,9.99997e-01
8.579607893e-01,9.96653e-01,9.99999e-01,9.99999e-01,9.99545e-01,9.97105e-01,9.99998e-01
8.622505932e-01,9.96875e-01,9.99999e-01,9.99999e-01,9.99711e-01,9.97162e-01,9.99999e-01
8.665618462e-01,9.97041e-01,9.99999e-01,9.99999e-01,9.99821e-01,9.97218e-01,9.99999e-01
8.708946554e-01,9.97069e-01,9.99999e-01,9.99999e-01,9.99795e-01,9.97273e-01,9.99999e-01
8.752491287e-01,9.97054e-01,9.99999e-01,9.99999e-01,9.99726e-01,9.97327e-01,9.99999e-01
8.796253743e-01,9.97001e-01,9.99999e-01,9.99999e-01,9.99620e-01,9.97380e-01,9.99998e-01
8.840235012e-01,9.96997e-01,9.99999e-01,9.99999e-01,9.99566e-01,9.97431e-01,9.99996e-01
8.884436187e-01,9.95881e-01,9.99999e-01,9.99999e-01,9.98401e-01,9.97482e-01,9.99992e-01
8.928858368e-01,9.80851e-01,9.99999e-01,9.99999e-01,9.83319e-01,9.97532e-01,9.99956e-01
8.973502660e-01,9.68201e-01,9.99999e-01,9.99999e-01,9.70763e-01,9.97580e-01,9.99778e-01
9.018370173e-01,9.82346e-01,9.99999e-01,9.99999e-01,9.85023e-01,9.97628e-01,9.99651e-01
9.063462024e-01,9.84124e-01,9.99999e-01,9.99999e-01,9.86718e-01,9.97675e-01,9.99694e-01
9.108779334e-01,9.76870e-01,9.99999e-01,9.99999e-01,9.79411e-01,9.97721e-01,9.99682e-01
9.154323231e-01,9.74261e-01,9.99999e-01,9.99999e-01,9.76698e-01,9.97766e-01,9.99737e-01
9.200094847e-01,9.79415e-01,9.99999e-01,9.99999e-01,9.81709e-01,9.97810e-01,9.99852e-01
9.246095321e-01,9.68554e-01,9.99999e-01,9.99999e-01,9.70801e-01,9.97853e-01,9.99830e-01
9.292325798e-01,8.16900e-01,9.99999e-01,9.99999e-01,8.19163e-01,9.97895e-01,9.99339e-01
9.338787427e-01,7.69266e-01,9.99999e-01,9.99999e-01,7.72962e-01,9.97937e-01,9.97274e-01
9.385481364e-01,8.97181e-01,9.99999e-01,9.99999e-01,9.01920e-01,9.97977e-01,9.96759e-01
9.432408771e-01,8.59212e-01,9.99999e-01,9.99999e-01,8.63332e-01,9.98017e-01,9.97203e-01
9.479570815e-01,8.09669e-01,9.99999e-01,9.99999e-01,8.13096e-01,9.98056e-01,9.97723e-01
9.526968669e-01,8.56942e-01,9.99999e-01,9.99999e-01,8.59771e-01,9.98095e-01,9.98610e-01
9.574603512e-01,8.71175e-01,9.99999e-01,9.99999e-01,8.73420e-01,9.98132e-01,9.99293e-01
9.622476530e-01,8.94407e-01,9.99999e-01,9.99999e-01,8.96484e-01,9.98169e-01,9.99511e-01
9.670588912e-01,9.37095e-01,9.99999e-01,9.99999e-01,9.39093e-01,9.98205e-01,9.99665e-01
9.718941857e-01,9.59797e-01,9.99999e-01,9.99999e-01,9.61724e-01,9.98241e-01,9.99753e-01
9.767536566e-01,9.66285e-01,9.99999e-01,9.99999e-01,9.68135e-01,9.98275e-01,9.99811e-01
9.816374249e-01,9.74643e-01,9.99999e-01,9.99999e-01,9.76356e-01,9.98309e-01,9.99934e-01
9.865456120e-01,9.83536e-01,9.99999e-01,9.99999e-01,9.85181e-01,9.98343e-01,9.99985e-01
9.914783401e-01,9.89207e-01,9.99999e-01,9.99999e-01,9.90819e-01,9.98375e-01,9.99995e-01
9.964357318e-01,9.93406e-01,9.99999e-01,9.99999e-01,9.94992e-01,9.98408e-01,9.99997e-01
1.001417910e+00,9.95438e-01,9.99999e-01,9.99999e-01,9.96997e-01,9.98439e-01,9.99996e-01
1.006425000e+00,9.96754e-01,9.99999e-01,9.99999e-01,9.98285e-01,9.98470e-01,9.99994e-01
1.011457125e+00,9.97435e-01,9.99999e-01,9.99999e-01,9.98937e-01,9.98500e-01,9.99995e-01
1.016514411e+00,9.97806e-01,9.99999e-01,9.99999e-01,9.99277e-01,9.98529e-01,9.99996e-01
1.021596983e+00,9.97981e-01,9.99999e-01,9.99999e-01,9.99424e-01,9.98558e-01,9.99996e-01
1.026704968e+00,9.98137e-01,9.99999e-01,9.99999e-01,9.99550e-01,9.98587e-01,9.99997e-01
1.031838492e+00,9.98289e-01,9.99999e-01,9.99999e-01,9.99673e-01,9.98615e-01,9.99998e-01
1.036997685e+00,9.98449e-01,9.99999e-01,9.99999e-01,9.99805e-01,9.98642e-01,9.99999e-01
1.042182673e+00,9.98438e-01,9.99999e-01,9.99999e-01,9.99768e-01,9.98669e-01,9.99999e-01
1.047393587e+00,9.98389e-01,9.99999e-01,9.99999e-01,9.99692e-01,9.98695e-01,9.99999e-01
1.052630555e+00,9.98300e-01,9.99999e-01,9.99999e-01,9.99578e-01,9.98721e-01,9.99999e-01
1.057893707e+00,9.98043e-01,9.99999e-01,9.99999e-01,9.99295e-01,9.98746e-01,9.99999e-01
1.063183176e+00,9.97614e-01,9.99999e-01,9.99999e-01,9.98842e-01,9.98771e-01,9.99998e-01
1.068499092e+00,9.96859e-01,9.99999e-01,9.99999e-01,9.98062e-01,9.98795e-01,9.99998e-01
1.073841587e+00,9.96549e-01,9.99999e-01,9.99999e-01,9.97729e-01,9.98819e-01,9.99996e-01
1.079210795e+00,9.95935e-01,9.99999e-01,9.99999e-01,9.97097e-01,9.98842e-01,9.99991e-01
1.084606849e+00,9.94454e-01,9.99999e-01,9.99999e-01,9.95602e-01,9.98865e-01,9.99980e-01
1.090029883e+00,9.92519e-01,9.99999e-01,9.99999e-01,9.93662e-01,9.98887e-01,9.99960e-01
1.095480033e+00,9.81698e-01,9.99999e-01,9.99999e-01,9.82837e-01,9.98909e-01,9.99929e-01
1.100957433e+00,9.55690e-01,9.99999e-01,9.99999e-01,9.56835e-01,9.98931e-01,9.99871e-01
1.106462220e+00,8.91629e-01,9.99999e-01,9.99999e-01,8.92758e-01,9.98952e-01,9.99781e-01
1.111994531e+00,7.85483e-01,9.99999e-01,9.99999e-01,7.86745e-01,9.98973e-01,9.99421e-01
1.117554504e+00,6.74313e-01,9.99999e-01,9.99999e-01,6.76402e-01,9.98993e-01,9.97915e-01
1.123142276e+00,7.40597e-01,9.99999e-01,9.99999e-01,7.45004e-01,9.99013e-01,9.95064e-01
1.128757988e+00,8.25229e-01,9.99999e-01,9.99999e-01,8.30769e-01,9.99032e-01,9.94292e-01
1.134401778e+00,6.28257e-01,9.99999e-01,9.99999e-01,6.31920e-01,9.99051e-01,9.95145e-01
1.140073787e+00,8.92810e-01,9.99999e-01,9.99999e-01,8.97122e-01,9.99070e-01,9.96118e-01
1.145774156e+00,7.91357e-01,9.99999e-01,9.99999e-01,7.94902e-01,9.99088e-01,9.96446e-01
1.151503026e+00,7.70154e-01,9.99999e-01,9.99999e-01,7.72372e-01,9.99106e-01,9.98018e-01
1.157260541e+00,8.09468e-01,9.99999e-01,9.99999e-01,8.10658e-01,9.99124e-01,9.99406e-01
1.163046844e+00,8.56130e-01,9.99999e-01,9.99999e-01,8.57009e-01,9.99141e-01,9.99831e-01
1.168862078e+00,8.98330e-01,9.99999e-01,9.99999e-01,8.99164e-01,9.99158e-01,9.99912e-01
1.174706389e+00,9.35654e-01,9.99999e-01,9.99999e-01,9.36533e-01,9.99175e-01,9.99884e-01
1.180579921e+00,9.59981e-01,9.99999e-01,9.99999e-01,9.60924e-01,9.99191e-01,9.99826e-01
1.186482820e+00,9.76814e-01,9.99999e-01,9.99999e-01,9.77762e-01,9.99207e-01,9.99821e-01
1.192415234e+00,9.86071e-01,9.99999e-01,9.99999e-01,9.86968e-01,9.99223e-01,9.99866e-01
1.198377311e+00,9.88116e-01,9.99999e-01,9.99999e-01,9.88993e-01,9.99238e-01,9.99873e-01
1.204369197e+00,9.88727e-01,9.99999e-01,9.99999e-01,9.89578e-01,9.99253e-01,9.99885e-01
1.210391043e+00,9.89245e-01,9.99999e-01,9.99999e-01,9.90038e-01,9.99268e-01,9.99930e-01
1.216442998e+00,9.90776e-01,9.99999e-01,9.99999e-01,9.91529e-01,9.99282e-01,9.99957e-01
1.222525213e+00,9.92676e-01,9.99999e-01,9.99999e-01,9.93400e-01,9.99296e-01,9.99973e-01
1.228637839e+00,9.94714e-01,9.99999e-01,9.99999e-01,9.95412e-01,9.99310e-01,9.99987e-01
