#,Wave/freq,Total,N2,O2,H2O,Rayleigh,CIA
4.000000000e-01,2.56257e-02,9.99999e-01,9.99999e-01,9.99587e-01,2.56362e-02,9.99999e-01
4.020000000e-01,2.75553e-02,9.99999e-01,9.99999e-01,9.99745e-01,2.75623e-02,9.99999e-01
4.040100000e-01,2.95853e-02,9.99999e-01,9.99999e-01,9.99891e-01,2.95885e-02,9.99999e-01
4.060300500e-01,3.17184e-02,9.99999e-01,9.99999e-01,9.99975e-01,3.17192e-02,9.99999e-01
4.080602003e-01,3.39563e-02,9.99999e-01,9.99999e-01,9.99991e-01,3.39566e-02,9.99999e-01
4.101005013e-01,3.63029e-02,9.99999e-01,9.99999e-01,9.99998e-01,3.63030e-02,9.99999e-01
4.121510038e-01,3.87597e-02,9.99999e-01,9.99999e-01,9.99984e-01,3.87603e-02,9.99999e-01
4.142117588e-01,4.13256e-02,9.99999e-01,9.99999e-01,9.99883e-01,4.13304e-02,9.99999e-01
4.162828176e-01,4.39926e-02,9.99999e-01,9.99999e-01,9.99488e-01,4.40151e-02,9.99999e-01
4.183642317e-01,4.68018e-02,9.99999e-01,9.99999e-01,9.99696e-01,4.68160e-02,9.99999e-01
4.204560528e-01,4.97252e-02,9.99999e-01,9.99999e-01,9.99814e-01,4.97344e-02,9.99999e-01
4.225583331e-01,5.27681e-02,9.99999e-01,9.99999e-01,9.99930e-01,5.27717e-02,9.99999e-01
4.246711247e-01,5.59258e-02,9.99999e-01,9.99999e-01,9.99943e-01,5.59290e-02,9.99999e-01
4.267944804e-01,5.92024e-02,9.99999e-01,9.99999e-01,9.99918e-01,5.92072e-02,9.99999e-01
4.289284528e-01,6.26030e-02,9.99999e-01,9.99999e-01,9.99936e-01,6.26070e-02,9.99999e-01
4.310730950e-01,6.61273e-02,9.99999e-01,9.99999e-01,9.99973e-01,6.61291e-02,9.99999e-01
4.332284605e-01,6.97734e-02,9.99999e-01,9.99999e-01,9.99992e-01,6.97739e-02,9.99999e-01
4.353946028e-01,7.35413e-02,9.99999e-01,9.99999e-01,9.99996e-01,7.35415e-02,9.99999e-01
4.375715758e-01,7.74281e-02,9.99999e-01,9.99999e-01,9.99947e-01,7.74322e-02,9.99999e-01
4.397594337e-01,8.14084e-02,9.99999e-01,9.99999e-01,9.99542e-01,8.14457e-02,9.99999e-01
4.419582309e-01,8.53826e-02,9.99999e-01,9.99999e-01,9.97673e-01,8.55817e-02,9.99999e-01
4.441680220e-01,8.96815e-02,9.99999e-01,9.99999e-01,9.98236e-01,8.98399e-02,9.99999e-01
4.463888621e-01,9.40450e-02,9.99999e-01,9.99999e-01,9.98147e-01,9.42195e-02,9.99999e-01
4.486208064e-01,9.86070e-02,9.99999e-01,9.99999e-01,9.98858e-01,9.87197e-02,9.99999e-01
4.508639105e-01,1.03284e-01,9.99999e-01,9.99999e-01,9.99464e-01,1.03340e-01,9.99999e-01
4.531182300e-01,1.08055e-01,9.99999e-01,9.99999e-01,9.99789e-01,1.08078e-01,9.99999e-01
4.553838212e-01,1.12917e-01,9.99999e-01,9.99999e-01,9.99855e-01,1.12934e-01,9.99999e-01
4.576607403e-01,1.17897e-01,9.99999e-01,9.99999e-01,9.99933e-01,1.17905e-01,9.99999e-01
4.599490440e-01,1.22985e-01,9.99999e-01,9.99999e-01,9.99953e-01,1.22991e-01,9.99999e-01
4.622487892e-01,1.28188e-01,9.99999e-01,9.99999e-01,9.99991e-01,1.28189e-01,9.99999e-01
4.645600332e-01,1.33493e-01,9.99999e-01,9.99999e-01,9.99966e-01,1.33497e-01,9.99999e-01
4.668828333e-01,1.38838e-01,9.99999e-01,9.99999e-01,9.99449e-01,1.38914e-01,9.99999e-01
4.692172475e-01,1.44269e-01,9.99999e-01,9.99999e-01,9.98838e-01,1.44437e-01,9.99999e-01
4.715633337e-01,1.49950e-01,9.99999e-01,9.99999e-01,9.99238e-01,1.50064e-01,9.99999e-01
4.739211504e-01,1.55680e-01,9.99999e-01,9.99999e-01,9.99276e-01,1.55793e-01,9.99999e-01
4.762907561e-01,1.61560e-01,9.99999e-01,9.99999e-01,9.99625e-01,1.61621e-01,9.99999e-01
4.786722099e-01,1.67519e-01,9.99999e-01,9.99999e-01,9.99846e-01,1.67545e-01,9.99999e-01
4.810655710e-01,1.73555e-01,9.99999e-01,9.99999e-01,9.99953e-01,1.73563e-01,9.99999e-01
4.834708988e-01,1.79589e-01,9.99999e-01,9.99999e-01,9.99539e-01,1.79671e-01,9.99999e-01
4.858882533e-01,1.85716e-01,9.99999e-01,9.99999e-01,9.99180e-01,1.85868e-01,9.99999e-01
4.883176946e-01,1.92017e-01,9.99999e-01,9.99999e-01,9.99307e-01,1.92150e-01,9.99999e-01
4.907592831e-01,1.98390e-01,9.99999e-01,9.99999e-01,9.99379e-01,1.98513e-01,9.99999e-01
4.932130795e-01,2.04866e-01,9.99999e-01,9.99999e-01,9.99559e-01,2.04956e-01,9.99999e-01
4.956791449e-01,2.11425e-01,9.99999e-01,9.99999e-01,9.99766e-01,2.11474e-01,9.99999e-01
4.981575406e-01,2.17808e-01,9.99999e-01,9.99999e-01,9.98824e-01,2.18064e-01,9.99999e-01
5.006483283e-01,2.24030e-01,9.99999e-01,9.99999e-01,9.96931e-01,2.24724e-01,9.99979e-01
5.031515699e-01,2.27882e-01,9.99999e-01,9.99999e-01,9.84745e-01,2.31449e-01,9.99838e-01
5.056673278e-01,2.36274e-01,9.99999e-01,9.99999e-01,9.91944e-01,2.38237e-01,9.99815e-01
5.081956644e-01,2.42569e-01,9.99999e-01,9.99999e-01,9.89850e-01,2.45084e-01,9.99887e-01
5.107366428e-01,2.50255e-01,9.99999e-01,9.99999e-01,9.93146e-01,2.51986e-01,9.99980e-01
5.132903260e-01,2.57928e-01,9.99999e-01,9.99999e-01,9.96087e-01,2.58941e-01,9.99996e-01
5.158567776e-01,2.65506e-01,9.99999e-01,9.99999e-01,9.98349e-01,2.65945e-01,9.99999e-01
5.184360615e-01,2.72814e-01,9.99999e-01,9.99999e-01,9.99338e-01,2.72995e-01,9.99999e-01
5.210282418e-01,2.80016e-01,9.99999e-01,9.99999e-01,9.99750e-01,2.80086e-01,9.99999e-01
5.236333830e-01,2.86926e-01,9.99999e-01,9.99999e-01,9.98998e-01,2.87216e-01,9.99992e-01
5.262515499e-01,2.94194e-01,9.99999e-01,9.99999e-01,9.99374e-01,2.94381e-01,9.99989e-01
5.288828077e-01,3.01402e-01,9.99999e-01,9.99999e-01,9.99421e-01,3.01579e-01,9.99993e-01
5.315272217e-01,3.08650e-01,9.99999e-01,9.99999e-01,9.99498e-01,3.08805e-01,9.99998e-01
5.341848578e-01,3.15951e-01,9.99999e-01,9.99999e-01,9.99666e-01,3.16056e-01,9.99999e-01
5.368557821e-01,3.22948e-01,9.99999e-01,9.99999e-01,9.98825e-01,3.23329e-01,9.99996e-01
5.395400610e-01,3.29196e-01,9.99999e-01,9.99999e-01,9.95728e-01,3.30621e-01,9.99959e-01
5.422377613e-01,3.36070e-01,9.99999e-01,9.99999e-01,9.94597e-01,3.37929e-01,9.99900e-01
5.449489501e-01,3.43461e-01,9.99999e-01,9.99999e-01,9.94922e-01,3.45248e-01,9.99897e-01
5.476736949e-01,3.50994e-01,9.99999e-01,9.99999e-01,9.95556e-01,3.52578e-01,9.99949e-01
5.504120634e-01,3.58746e-01,9.99999e-01,9.99999e-01,9.96771e-01,3.59913e-01,9.99985e-01
5.531641237e-01,3.66655e-01,9.99999e-01,9.99999e-01,9.98375e-01,3.67252e-01,9.99997e-01
5.559299443e-01,3.74297e-01,9.99999e-01,9.99999e-01,9.99216e-01,3.74591e-01,9.99999e-01
5.587095940e-01,3.81738e-01,9.99999e-01,9.99999e-01,9.99505e-01,3.81927e-01,9.99999e-01
5.615031420e-01,3.89043e-01,9.99999e-01,9.99999e-01,9.99448e-01,3.89258e-01,9.99998e-01
5.643106577e-01,3.96326e-01,9.99999e-01,9.99999e-01,9.99363e-01,3.96580e-01,9.99994e-01
5.671322110e-01,4.00741e-01,9.99999e-01,9.99999e-01,9.92264e-01,4.03892e-01,9.99932e-01
5.699678720e-01,4.07844e-01,9.99999e-01,9.99999e-01,9.92067e-01,4.11190e-01,9.99793e-01
5.728177114e-01,4.14883e-01,9.99999e-01,9.99999e-01,9.91594e-01,4.18471e-01,9.99827e-01
5.756818000e-01,4.22418e-01,9.99999e-01,9.99999e-01,9.92308e-01,4.25734e-01,9.99899e-01
5.785602090e-01,4.30070e-01,9.99999e-01,9.99999e-01,9.93314e-01,4.32976e-01,9.99971e-01
5.814530100e-01,4.37223e-01,9.99999e-01,9.99999e-01,9.93262e-01,4.40195e-01,9.99985e-01
5.843602750e-01,4.43743e-01,9.99999e-01,9.99999e-01,9.91897e-01,4.47387e-01,9.99954e-01
5.872820764e-01,4.23968e-01,9.99999e-01,9.99999e-01,9.33170e-01,4.54552e-01,9.99512e-01
5.902184868e-01,4.24061e-01,9.99999e-01,9.99999e-01,9.19723e-01,4.61686e-01,9.98673e-01
5.931695792e-01,4.41393e-01,9.99999e-01,9.99999e-01,9.42761e-01,4.68789e-01,9.98724e-01
5.961354271e-01,4.45698e-01,9.99999e-01,9.99999e-01,9.37310e-01,4.75857e-01,9.99266e-01
5.991161043e-01,4.60482e-01,9.99999e-01,9.99999e-01,9.53814e-01,4.82888e-01,9.99772e-01
6.021116848e-01,4.76919e-01,9.99999e-01,9.99999e-01,9.73563e-01,4.89882e-01,9.99974e-01
6.051222432e-01,4.90148e-01,9.99999e-01,9.99999e-01,9.86539e-01,4.96836e-01,9.99998e-01
6.081478544e-01,5.00808e-01,9.99999e-01,9.99999e-01,9.94163e-01,5.03748e-01,9.99999e-01
6.111885937e-01,5.09360e-01,9.99999e-01,9.99999e-01,9.97537e-01,5.10617e-01,9.99999e-01
6.142445367e-01,5.16871e-01,9.99999e-01,9.99999e-01,9.98896e-01,5.17442e-01,9.99999e-01
6.173157594e-01,5.23900e-01,9.99999e-01,9.99999e-01,9.99390e-01,5.24220e-01,9.99999e-01
6.204023382e-01,5.30674e-01,9.99999e-01,9.99999e-01,9.99479e-01,5.30950e-01,9.99998e-01
6.235043498e-01,5.36372e-01,9.99999e-01,9.99999e-01,9.97663e-01,5.37631e-01,9.99993e-01
6.266218716e-01,5.37668e-01,9.99999e-01,9.99999e-01,9.87966e-01,5.44262e-01,9.99914e-01
6.297549810e-01,5.48308e-01,9.99999e-01,9.99999e-01,9.95570e-01,5.50841e-01,9.99829e-01
6.329037559e-01,5.52439e-01,9.99999e-01,9.99999e-01,9.91291e-01,5.57368e-01,9.99863e-01
6.360682746e-01,5.59586e-01,9.99999e-01,9.99999e-01,9.92533e-01,5.63840e-01,9.99919e-01
6.392486160e-01,5.64742e-01,9.99999e-01,9.99999e-01,9.90360e-01,5.70258e-01,9.99963e-01
6.424448591e-01,5.69083e-01,9.99999e-01,9.99999e-01,9.86992e-01,5.76620e-01,9.99935e-01
6.456570834e-01,5.48493e-01,9.99999e-01,9.99999e-01,9.41274e-01,5.82925e-01,9.99635e-01
6.488853688e-01,5.63553e-01,9.99999e-01,9.99999e-01,9.57407e-01,5.89172e-01,9.99069e-01
6.521297956e-01,5.69169e-01,9.99999e-01,9.99999e-01,9.56739e-01,5.95361e-01,9.99231e-01
6.553904446e-01,5.74855e-01,9.99999e-01,9.99999e-01,9.56262e-01,6.01491e-01,9.99427e-01
6.586673968e-01,5.84821e-01,9.99999e-01,9.99999e-01,9.62755e-01,6.07561e-01,9.99808e-01
6.619607338e-01,6.00672e-01,9.99999e-01,9.99999e-01,9.79016e-01,6.13571e-01,9.99958e-01
6.652705375e-01,6.11667e-01,9.99999e-01,9.99999e-01,9.87344e-01,6.19519e-01,9.99978e-01
6.685968902e-01,6.22034e-01,9.99999e-01,9.99999e-01,9.94610e-01,6.25406e-01,9.99996e-01
6.719398746e-01,6.29506e-01,9.99999e-01,9.99999e-01,9.97266e-01,6.31231e-01,9.99999e-01
6.752995740e-01,6.36072e-01,9.99999e-01,9.99999e-01,9.98553e-01,6.36994e-01,9.99999e-01
6.786760719e-01,6.41297e-01,9.99999e-01,9.99999e-01,9.97828e-01,6.42694e-01,9.99996e-01
6.820694522e-01,6.45901e-01,9.99999e-01,9.99999e-01,9.96271e-01,6.48331e-01,9.99980e-01
6.854797995e-01,6.50762e-01,9.99999e-01,9.99999e-01,9.95235e-01,6.53904e-01,9.99958e-01
6.889071985e-01,6.49251e-01,9.99999e-01,9.99999e-01,9.84688e-01,6.59414e-01,9.99896e-01
6.923517345e-01,5.50853e-01,9.99999e-01,9.99999e-01,8.29270e-01,6.64860e-01,9.99100e-01
6.958134932e-01,6.09035e-01,9.99999e-01,9.99999e-01,9.10492e-01,6.70242e-01,9.98008e-01
6.992925606e-01,6.14500e-01,9.99999e-01,9.99999e-01,9.11250e-01,6.75560e-01,9.98204e-01
7.027890234e-01,6.06898e-01,9.99999e-01,9.99999e-01,8.92652e-01,6.80814e-01,9.98628e-01
7.063029686e-01,6.22725e-01,9.99999e-01,9.99999e-01,9.08376e-01,6.86004e-01,9.99317e-01
7.098344834e-01,6.29893e-01,9.99999e-01,9.99999e-01,9.11764e-01,6.91130e-01,9.99596e-01
7.133836558e-01,6.15031e-01,9.99999e-01,9.99999e-01,8.84130e-01,6.96191e-01,9.99197e-01
7.169505741e-01,2.88647e-01,9.99999e-01,9.99999e-01,4.14261e-01,7.01189e-01,9.93704e-01
7.205353270e-01,4.48621e-01,9.99999e-01,9.99999e-01,6.42447e-01,7.06123e-01,9.88919e-01
7.241380036e-01,3.94514e-01,9.99999e-01,9.99999e-01,5.60241e-01,7.10993e-01,9.90424e-01
7.277586936e-01,4.22326e-01,9.99999e-01,9.99999e-01,5.94478e-01,7.15799e-01,9.92477e-01
7.313974871e-01,4.09186e-01,9.99999e-01,9.99999e-01,5.69792e-01,7.20542e-01,9.96652e-01
7.350544745e-01,5.29370e-01,9.99999e-01,9.99999e-01,7.30876e-01,7.25222e-01,9.98720e-01
7.387297469e-01,5.77399e-01,9.99999e-01,9.99999e-01,7.91596e-01,7.29839e-01,9.99413e-01
7.424233956e-01,6.54627e-01,9.99999e-01,9.99999e-01,8.91475e-01,7.34393e-01,9.99897e-01
7.461355126e-01,6.88962e-01,9.99999e-01,9.99999e-01,9.32450e-01,7.38885e-01,9.99982e-01
7.498661902e-01,7.19557e-01,9.99999e-01,9.99999e-01,9.68044e-01,7.43315e-01,9.99992e-01
7.536155211e-01,7.35806e-01,9.99999e-01,9.99999e-01,9.84118e-01,7.47683e-01,9.99995e-01
7.573835987e-01,7.45823e-01,9.99999e-01,9.99999e-01,9.91799e-01,7.51990e-01,9.99998e-01
7.611705167e-01,7.52374e-01,9.99999e-01,9.99999e-01,9.94893e-01,7.56235e-01,9.99999e-01
7.649763693e-01,7.57982e-01,9.99999e-01,9.99999e-01,9.96792e-01,7.60420e-01,9.99999e-01
7.688012511e-01,7.62834e-01,9.99999e-01,9.99999e-01,9.97760e-01,7.64545e-01,9.99999e-01
7.726452574e-01,7.67192e-01,9.99999e-01,9.99999e-01,9.98154e-01,7.68611e-01,9.99998e-01
7.765084837e-01,7.70568e-01,9.99999e-01,9.99999e-01,9.97352e-01,7.72616e-01,9.99996e-01
7.803910261e-01,7.67687e-01,9.99999e-01,9.99999e-01,9.88581e-01,7.76563e-01,9.99987e-01
7.842929812e-01,7.49810e-01,9.99999e-01,9.99999e-01,9.60807e-01,7.80452e-01,9.99926e-01
7.882144461e-01,7.22504e-01,9.99999e-01,9.99999e-01,9.21743e-01,7.84283e-01,9.99440e-01
7.921555184e-01,7.53179e-01,9.99999e-01,9.99999e-01,9.56672e-01,7.88056e-01,9.99027e-01
7.961162960e-01,7.30705e-01,9.99999e-01,9.99999e-01,9.23726e-01,7.91772e-01,9.99074e-01
8.000968774e-01,7.25138e-01,9.99999e-01,9.99999e-01,9.12524e-01,7.95432e-01,9.99015e-01
8.040973618e-01,7.28595e-01,9.99999e-01,9.99999e-01,9.12526e-01,7.99036e-01,9.99248e-01
8.081178486e-01,6.54123e-01,9.99999e-01,9.99999e-01,8.15639e-01,8.02585e-01,9.99239e-01
8.121584379e-01,3.59709e-01,9.99999e-01,9.99999e-01,4.47533e-01,8.06079e-01,9.97121e-01
8.162192301e-01,3.17336e-01,9.99999e-01,9.99999e-01,3.96278e-01,8.09519e-01,9.89218e-01
8.203003262e-01,5.18181e-01,9.99999e-01,9.99999e-01,6.45586e-01,8.12905e-01,9.87386e-01
8.244018279e-01,4.62268e-01,9.99999e-01,9.99999e-01,5.72090e-01,8.16237e-01,9.89948e-01
8.285238370e-01,4.54852e-01,9.99999e-01,9.99999e-01,5.59444e-01,8.19518e-01,9.92097e-01
8.326664562e-01,4.60303e-01,9.99999e-01,9.99999e-01,5.61309e-01,8.22746e-01,9.96724e-01
8.368297885e-01,5.38855e-01,9.99999e-01,9.99999e-01,6.52916e-01,8.25923e-01,9.99250e-01
8.410139374e-01,6.41548e-01,9.99999e-01,9.99999e-01,7.74174e-01,8.29049e-01,9.99561e-01
8.452190071e-01,7.33067e-01,9.99999e-01,9.99999e-01,8.81188e-01,8.32125e-01,9.99737e-01
8.494451021e-01,7.75334e-01,9.99999e-01,9.99999e-01,9.28571e-01,8.35151e-01,9.99789e-01
8.536923276e-01,8.02243e-01,9.99999e-01,9.99999e-01,9.57306e-01,8.38128e-01,9.99872e-01
8.579607893e-01,8.18636e-01,9.99999e-01,9.99999e-01,9.73371e-01,8.41056e-01,9.99968e-01
8.622505932e-01,8.29628e-01,9.99999e-01,9.99999e-01,9.83050e-01,8.43937e-01,9.99994e-01
8.665618462e-01,8.37817e-01,9.99999e-01,9.99999e-01,9.89429e-01,8.46770e-01,9.99996e-01
8.708946554e-01,8.39244e-01,9.99999e-01,9.99999e-01,9.87867e-01,8.49556e-01,9.99992e-01
8.752491287e-01,8.38491e-01,9.99999e-01,9.99999e-01,9.83818e-01,8.52297e-01,9.99982e-01
8.796253743e-01,8.35779e-01,9.99999e-01,9.99999e-01,9.77577e-01,8.54992e-01,9.99949e-01
8.840235012e-01,8.35626e-01,9.99999e-01,9.99999e-01,9.74482e-01,8.57641e-01,9.99843e-01
8.884436187e-01,7.83232e-01,9.99999e-01,9.99999e-01,9.10878e-01,8.60247e-01,9.99554e-01
8.928858368e-01,3.55196e-01,9.99999e-01,9.99999e-01,4.12734e-01,8.62809e-01,9.97430e-01
8.973502660e-01,1.86671e-01,9.99999e-01,9.99999e-01,2.18586e-01,8.65327e-01,9.86899e-01
9.018370173e-01,3.94114e-01,9.99999e-01,9.99999e-01,4.63666e-01,8.67803e-01,9.79478e-01
9.063462024e-01,4.20991e-01,9.99999e-01,9.99999e-01,4.92657e-01,8.70237e-01,9.81950e-01
9.108779334e-01,2.87491e-01,9.99999e-01,9.99999e-01,3.35748e-01,8.72629e-01,9.81251e-01
9.154323231e-01,2.41694e-01,9.99999e-01,9.99999e-01,2.80582e-01,8.74981e-01,9.84477e-01
9.200094847e-01,3.29217e-01,9.99999e-01,9.99999e-01,3.78564e-01,8.77292e-01,9.91282e-01
9.246095321e-01,2.14485e-01,9.99999e-01,9.99999e-01,2.46326e-01,8.79563e-01,9.89962e-01
9.292325798e-01,3.74723e-03,9.99999e-01,9.99999e-01,4.46165e-03,8.81796e-01,9.52457e-01
9.338787427e-01,6.68572e-05,9.99999e-01,9.99999e-01,9.01919e-05,8.83990e-01,8.38557e-01
9.385481364e-01,1.51331e-02,9.99999e-01,9.99999e-01,2.07222e-02,8.86145e-01,8.24113e-01
9.432408771e-01,5.28643e-03,9.99999e-01,9.99999e-01,7.03233e-03,8.88264e-01,8.46292e-01
9.479570815e-01,3.04624e-04,9.99999e-01,9.99999e-01,3.91917e-04,8.90345e-01,8.72994e-01
9.526968669e-01,1.67158e-03,9.99999e-01,9.99999e-01,2.03494e-03,8.92390e-01,9.20493e-01
9.574603512e-01,2.57819e-03,9.99999e-01,9.99999e-01,3.00649e-03,8.94399e-01,9.58791e-01
9.622476530e-01,7.11674e-03,9.99999e-01,9.99999e-01,8.17390e-03,8.96373e-01,9.71320e-01
9.670588912e-01,4.99449e-02,9.99999e-01,9.99999e-01,5.66687e-02,8.98312e-01,9.81115e-01
9.718941857e-01,1.08635e-01,9.99999e-01,9.99999e-01,1.22451e-01,9.00217e-01,9.85504e-01
9.767536566e-01,1.55107e-01,9.99999e-01,9.99999e-01,1.73878e-01,9.02088e-01,9.88867e-01
9.816374249e-01,2.34937e-01,9.99999e-01,9.99999e-01,2.60915e-01,9.03926e-01,9.96133e-01
9.865456120e-01,3.83412e-01,9.99999e-01,9.99999e-01,4.23659e-01,9.05731e-01,9.99193e-01
9.914783401e-01,5.28548e-01,9.99999e-01,9.99999e-01,5.82549e-01,9.07504e-01,9.99775e-01
9.964357318e-01,6.76773e-01,9.99999e-01,9.99999e-01,7.44421e-01,9.09245e-01,9.99868e-01
1.001417910e+00,7.62491e-01,9.99999e-01,9.99999e-01,8.37190e-01,9.10956e-01,9.99799e-01
1.006425000e+00,8.23929e-01,9.99999e-01,9.99999e-01,9.03058e-01,9.12635e-01,9.99715e-01
1.011457125e+00,8.58183e-01,9.99999e-01,9.99999e-01,9.38886e-01,9.14285e-01,9.99735e-01
1.016514411e+00,8.77253e-01,9.99999e-01,9.99999e-01,9.57977e-01,9.15905e-01,9.99813e-01
1.021596983e+00,8.86450e-01,9.99999e-01,9.99999e-01,9.66339e-01,9.17495e-01,9.99816e-01
1.026704968e+00,8.94710e-01,9.99999e-01,9.99999e-01,9.73619e-01,9.19057e-01,9.99884e-01
1.031838492e+00,9.02899e-01,9.99999e-01,9.99999e-01,9.80815e-01,9.20591e-01,9.99965e-01
1.036997685e+00,9.11513e-01,9.99999e-01,9.99999e-01,9.88526e-01,9.22096e-01,9.99994e-01
1.042182673e+00,9.10889e-01,9.99999e-01,9.99999e-01,9.86265e-01,9.23575e-01,9.99997e-01
1.047393587e+00,9.08255e-01,9.99999e-01,9.99999e-01,9.81872e-01,9.25026e-01,9.99996e-01
1.052630555e+00,9.03444e-01,9.99999e-01,9.99999e-01,9.75172e-01,9.26451e-01,9.99992e-01
1.057893707e+00,8.89666e-01,9.99999e-01,9.99999e-01,9.58859e-01,9.27850e-01,9.99985e-01
1.063183176e+00,8.67374e-01,9.99999e-01,9.99999e-01,9.33471e-01,9.29224e-01,9.99963e-01
1.068499092e+00,8.29663e-01,9.99999e-01,9.99999e-01,8.91630e-01,9.30572e-01,9.99921e-01
1.073841587e+00,8.15426e-01,9.99999e-01,9.99999e-01,8.75166e-01,9.31896e-01,9.99829e-01
1.079210795e+00,7.86133e-01,9.99999e-01,9.99999e-01,8.42798e-01,9.33195e-01,9.99539e-01
1.084606849e+00,7.21627e-01,9.99999e-01,9.99999e-01,7.73087e-01,9.34470e-01,9.98892e-01
1.090029883e+00,6.46987e-01,9.99999e-01,9.99999e-01,6.93021e-01,9.35722e-01,9.97705e-01
1.095480033e+00,3.48540e-01,9.99999e-01,9.99999e-01,3.73543e-01,9.36951e-01,9.95853e-01
1.100957433e+00,9.32488e-02,9.99999e-01,9.99999e-01,1.00159e-01,9.38157e-01,9.92380e-01
1.106462220e+00,6.62204e-03,9.99999e-01,9.99999e-01,7.14172e-03,9.39340e-01,9.87109e-01
1.111994531e+00,3.27883e-05,9.99999e-01,9.99999e-01,3.60842e-05,9.40502e-01,9.66142e-01
1.117554504e+00,5.37301e-07,9.99999e-01,9.99999e-01,6.46158e-07,9.41642e-01,8.83064e-01
1.123142276e+00,6.59654e-05,9.99999e-01,9.99999e-01,9.39698e-05,9.42761e-01,7.44603e-01
1.128757988e+00,2.96021e-04,9.99999e-01,9.99999e-01,4.41141e-04,9.43860e-01,7.10947e-01
1.134401778e+00,4.11655e-04,9.99999e-01,9.99999e-01,5.82254e-04,9.44937e-01,7.48198e-01
1.140073787e+00,4.20058e-03,9.99999e-01,9.99999e-01,5.59859e-03,9.45995e-01,7.93124e-01
1.145774156e+00,2.86445e-04,9.99999e-01,9.99999e-01,3.73951e-04,9.47033e-01,8.08837e-01
1.151503026e+00,5.22977e-05,9.99999e-01,9.99999e-01,6.20838e-05,9.48052e-01,8.88528e-01
1.157260541e+00,4.40270e-05,9.99999e-01,9.99999e-01,4.80591e-05,9.49051e-01,9.65279e-01
1.163046844e+00,6.12919e-04,9.99999e-01,9.99999e-01,6.51649e-04,9.50032e-01,9.90034e-01
1.168862078e+00,4.76819e-03,9.99999e-01,9.99999e-01,5.04012e-03,9.50994e-01,9.94796e-01
1.174706389e+00,3.01389e-02,9.99999e-01,9.99999e-01,3.18888e-02,9.51939e-01,9.92838e-01
1.180579921e+00,1.08241e-01,9.99999e-01,9.99999e-01,1.14776e-01,9.52865e-01,9.89711e-01
1.186482820e+00,2.59382e-01,9.99999e-01,9.99999e-01,2.74855e-01,9.53774e-01,9.89440e-01
1.192415234e+00,4.38441e-01,9.99999e-01,9.99999e-01,4.62926e-01,9.54666e-01,9.92082e-01
1.198377311e+00,4.95987e-01,9.99999e-01,9.99999e-01,5.22993e-01,9.55542e-01,9.92484e-01
1.204369197e+00,5.21757e-01,9.99999e-01,9.99999e-01,5.49138e-01,9.56400e-01,9.93450e-01
1.210391043e+00,5.33293e-01,9.99999e-01,9.99999e-01,5.59419e-01,9.57243e-01,9.95876e-01
1.216442998e+00,5.83839e-01,9.99999e-01,9.99999e-01,6.10934e-01,9.58069e-01,9.97472e-01
1.222525213e+00,6.48703e-01,9.99999e-01,9.99999e-01,6.77585e-01,9.58880e-01,9.98429e-01
1.228637839e+00,7.30847e-01,9.99999e-01,9.99999e-01,7.62112e-01,9.59676e-01,9.99268e-01
