#,Wave/freq,Total,N2,O2,H2O,Rayleigh,CIA
4.000000000e-01,5.61244e-01,9.99999e-01,9.99999e-01,9.99934e-01,5.61281e-01,9.99999e-01
4.020000000e-01,5.67704e-01,9.99999e-01,9.99999e-01,9.99959e-01,5.67727e-01,9.99999e-01
4.040100000e-01,5.74101e-01,9.99999e-01,9.99999e-01,9.99982e-01,5.74111e-01,9.99999e-01
4.060300500e-01,5.80436e-01,9.99999e-01,9.99999e-01,9.99995e-01,5.80439e-01,9.99999e-01
4.080602003e-01,5.86708e-01,9.99999e-01,9.99999e-01,9.99998e-01,5.86709e-01,9.99999e-01
4.101005013e-01,5.92921e-01,9.99999e-01,9.99999e-01,9.99999e-01,5.92921e-01,9.99999e-01
4.121510038e-01,5.99073e-01,9.99999e-01,9.99999e-01,9.99997e-01,5.99074e-01,9.99999e-01
4.142117588e-01,6.05157e-01,9.99999e-01,9.99999e-01,9.99981e-01,6.05168e-01,9.99999e-01
4.162828176e-01,6.11152e-01,9.99999e-01,9.99999e-01,9.99918e-01,6.11202e-01,9.99999e-01
4.183642317e-01,6.17145e-01,9.99999e-01,9.99999e-01,9.99951e-01,6.17174e-01,9.99999e-01
4.204560528e-01,6.23067e-01,9.99999e-01,9.99999e-01,9.99970e-01,6.23086e-01,9.99999e-01
4.225583331e-01,6.28928e-01,9.99999e-01,9.99999e-01,9.99988e-01,6.28935e-01,9.99999e-01
4.246711247e-01,6.34717e-01,9.99999e-01,9.99999e-01,9.99990e-01,6.34723e-01,9.99999e-01
4.267944804e-01,6.40439e-01,9.99999e-01,9.99999e-01,9.99986e-01,6.40447e-01,9.99999e-01
4.289284528e-01,6.46103e-01,9.99999e-01,9.99999e-01,9.99989e-01,6.46109e-01,9.99999e-01
4.310730950e-01,6.51705e-01,9.99999e-01,9.99999e-01,9.99995e-01,6.51708e-01,9.99999e-01
4.332284605e-01,6.57242e-01,9.99999e-01,9.99999e-01,9.99998e-01,6.57243e-01,9.99999e-01
4.353946028e-01,6.62714e-01,9.99999e-01,9.99999e-01,9.99999e-01,6.62714e-01,9.99999e-01
4.375715758e-01,6.68116e-01,9.99999e-01,9.99999e-01,9.99991e-01,6.68121e-01,9.99999e-01
4.397594337e-01,6.73417e-01,9.99999e-01,9.99999e-01,9.99928e-01,6.73465e-01,9.99999e-01
4.419582309e-01,6.78501e-01,9.99999e-01,9.99999e-01,9.99640e-01,6.78744e-01,9.99999e-01
4.441680220e-01,6.83767e-01,9.99999e-01,9.99999e-01,9.99718e-01,6.83959e-01,9.99999e-01
4.463888621e-01,6.88909e-01,9.99999e-01,9.99999e-01,9.99707e-01,6.89110e-01,9.99999e-01
4.486208064e-01,6.94071e-01,9.99999e-01,9.99999e-01,9.99817e-01,6.94197e-01,9.99999e-01
4.508639105e-01,6.99161e-01,9.99999e-01,9.99999e-01,9.99914e-01,6.99220e-01,9.99999e-01
4.531182300e-01,7.04156e-01,9.99999e-01,9.99999e-01,9.99965e-01,7.04179e-01,9.99999e-01
4.553838212e-01,7.09059e-01,9.99999e-01,9.99999e-01,9.99976e-01,7.09075e-01,9.99999e-01
4.576607403e-01,7.13899e-01,9.99999e-01,9.99999e-01,9.99989e-01,7.13906e-01,9.99999e-01
4.599490440e-01,7.18669e-01,9.99999e-01,9.99999e-01,9.99992e-01,7.18674e-01,9.99999e-01
4.622487892e-01,7.23378e-01,9.99999e-01,9.99999e-01,9.99998e-01,7.23379e-01,9.99999e-01
4.645600332e-01,7.28017e-01,9.99999e-01,9.99999e-01,9.99994e-01,7.28021e-01,9.99999e-01
4.668828333e-01,7.32537e-01,9.99999e-01,9.99999e-01,9.99913e-01,7.32600e-01,9.99999e-01
4.692172475e-01,7.36981e-01,9.99999e-01,9.99999e-01,9.99816e-01,7.37116e-01,9.99999e-01
4.715633337e-01,7.41482e-01,9.99999e-01,9.99999e-01,9.99879e-01,7.41571e-01,9.99999e-01
4.739211504e-01,7.45877e-01,9.99999e-01,9.99999e-01,9.99884e-01,7.45963e-01,9.99999e-01
4.762907561e-01,7.50249e-01,9.99999e-01,9.99999e-01,9.99939e-01,7.50294e-01,9.99999e-01
4.786722099e-01,7.54545e-01,9.99999e-01,9.99999e-01,9.99975e-01,7.54564e-01,9.99999e-01
4.810655710e-01,7.58767e-01,9.99999e-01,9.99999e-01,9.99992e-01,7.58773e-01,9.99999e-01
4.834708988e-01,7.62868e-01,9.99999e-01,9.99999e-01,9.99929e-01,7.62921e-01,9.99999e-01
4.858882533e-01,7.66911e-01,9.99999e-01,9.99999e-01,9.99869e-01,7.67010e-01,9.99999e-01
4.883176946e-01,7.70956e-01,9.99999e-01,9.99999e-01,9.99891e-01,7.71039e-01,9.99999e-01
4.907592831e-01,7.74933e-01,9.99999e-01,9.99999e-01,9.99901e-01,7.75010e-01,9.99999e-01
4.932130795e-01,7.78867e-01,9.99999e-01,9.99999e-01,9.99929e-01,7.78921e-01,9.99999e-01
4.956791449e-01,7.82746e-01,9.99999e-01,9.99999e-01,9.99962e-01,7.82775e-01,9.99999e-01
4.981575406e-01,7.86426e-01,9.99999e-01,9.99999e-01,9.99815e-01,7.86571e-01,9.99999e-01
5.006483283e-01,7.89930e-01,9.99999e-01,9.99999e-01,9.99523e-01,7.90309e-01,9.99996e-01
5.031515699e-01,7.92051e-01,9.99999e-01,9.99999e-01,9.97581e-01,7.93992e-01,9.99974e-01
5.056673278e-01,7.96575e-01,9.99999e-01,9.99999e-01,9.98721e-01,7.97618e-01,9.99970e-01
5.081956644e-01,7.99882e-01,9.99999e-01,9.99999e-01,9.98387e-01,8.01188e-01,9.99980e-01
5.107366428e-01,8.03825e-01,9.99999e-01,9.99999e-01,9.98910e-01,8.04704e-01,9.99996e-01
5.132903260e-01,8.07661e-01,9.99999e-01,9.99999e-01,9.99376e-01,8.08165e-01,9.99999e-01
5.158567776e-01,8.11358e-01,9.99999e-01,9.99999e-01,9.99736e-01,8.11572e-01,9.99999e-01
5.184360615e-01,8.14840e-01,9.99999e-01,9.99999e-01,9.99894e-01,8.14926e-01,9.99999e-01
5.210282418e-01,8.18195e-01,9.99999e-01,9.99999e-01,9.99960e-01,8.18227e-01,9.99999e-01
5.236333830e-01,8.21345e-01,9.99999e-01,9.99999e-01,9.99841e-01,8.21476e-01,9.99998e-01
5.262515499e-01,8.24590e-01,9.99999e-01,9.99999e-01,9.99900e-01,8.24673e-01,9.99997e-01
5.288828077e-01,8.27743e-01,9.99999e-01,9.99999e-01,9.99909e-01,8.27819e-01,9.99998e-01
5.315272217e-01,8.30848e-01,9.99999e-01,9.99999e-01,9.99919e-01,8.30914e-01,9.99999e-01
5.341848578e-01,8.33916e-01,9.99999e-01,9.99999e-01,9.99947e-01,8.33960e-01,9.99999e-01
5.368557821e-01,8.36802e-01,9.99999e-01,9.99999e-01,9.99816e-01,8.36956e-01,9.99999e-01
5.395400610e-01,8.39344e-01,9.99999e-01,9.99999e-01,9.99338e-01,8.39904e-01,9.99994e-01
5.422377613e-01,8.42067e-01,9.99999e-01,9.99999e-01,9.99142e-01,8.42803e-01,9.99984e-01
5.449489501e-01,8.44968e-01,9.99999e-01,9.99999e-01,9.99203e-01,8.45655e-01,9.99983e-01
5.476736949e-01,8.47854e-01,9.99999e-01,9.99999e-01,9.99293e-01,8.48460e-01,9.99991e-01
5.504120634e-01,8.50780e-01,9.99999e-01,9.99999e-01,9.99486e-01,8.51219e-01,9.99997e-01
5.531641237e-01,8.53711e-01,9.99999e-01,9.99999e-01,9.99741e-01,8.53931e-01,9.99999e-01
5.559299443e-01,8.56492e-01,9.99999e-01,9.99999e-01,9.99874e-01,8.56599e-01,9.99999e-01
5.587095940e-01,8.59155e-01,9.99999e-01,9.99999e-01,9.99921e-01,8.59222e-01,9.99999e-01
5.615031420e-01,8.61726e-01,9.99999e-01,9.99999e-01,9.99912e-01,8.61801e-01,9.99999e-01
5.643106577e-01,8.64251e-01,9.99999e-01,9.99999e-01,9.99901e-01,8.64336e-01,9.99998e-01
5.671322110e-01,8.65787e-01,9.99999e-01,9.99999e-01,9.98807e-01,8.66829e-01,9.99988e-01
5.699678720e-01,8.68142e-01,9.99999e-01,9.99999e-01,9.98723e-01,8.69279e-01,9.99966e-01
5.728177114e-01,8.70509e-01,9.99999e-01,9.99999e-01,9.98674e-01,8.71688e-01,9.99972e-01
5.756818000e-01,8.72978e-01,9.99999e-01,9.99999e-01,9.98782e-01,8.74056e-01,9.99982e-01
5.785602090e-01,8.75449e-01,9.99999e-01,9.99999e-01,9.98938e-01,8.76383e-01,9.99994e-01
5.814530100e-01,8.77732e-01,9.99999e-01,9.99999e-01,9.98934e-01,8.78670e-01,9.99997e-01
5.843602750e-01,8.79795e-01,9.99999e-01,9.99999e-01,9.98732e-01,8.80918e-01,9.99992e-01
5.872820764e-01,8.73460e-01,9.99999e-01,9.99999e-01,9.89129e-01,8.83127e-01,9.99922e-01
5.902184868e-01,8.73429e-01,9.99999e-01,9.99999e-01,9.86799e-01,8.85297e-01,9.99790e-01
5.931695792e-01,8.78976e-01,9.99999e-01,9.99999e-01,9.90672e-01,8.87430e-01,9.99798e-01
5.961354271e-01,8.80323e-01,9.99999e-01,9.99999e-01,9.89768e-01,8.89526e-01,9.99883e-01
5.991161043e-01,8.84889e-01,9.99999e-01,9.99999e-01,9.92524e-01,8.91585e-01,9.99963e-01
6.021116848e-01,8.89808e-01,9.99999e-01,9.99999e-01,9.95750e-01,8.93609e-01,9.99995e-01
6.051222432e-01,8.93669e-01,9.99999e-01,9.99999e-01,9.97847e-01,8.95596e-01,9.99999e-01
6.081478544e-01,8.96716e-01,9.99999e-01,9.99999e-01,9.99071e-01,8.97549e-01,9.99999e-01
6.111885937e-01,8.99114e-01,9.99999e-01,9.99999e-01,9.99606e-01,8.99467e-01,9.99999e-01
6.142445367e-01,9.01194e-01,9.99999e-01,9.99999e-01,9.99824e-01,9.01352e-01,9.99999e-01
6.173157594e-01,9.03115e-01,9.99999e-01,9.99999e-01,9.99902e-01,9.03203e-01,9.99999e-01
6.204023382e-01,9.04947e-01,9.99999e-01,9.99999e-01,9.99917e-01,9.05021e-01,9.99999e-01
6.235043498e-01,9.06480e-01,9.99999e-01,9.99999e-01,9.99640e-01,9.06807e-01,9.99998e-01
6.266218716e-01,9.06816e-01,9.99999e-01,9.99999e-01,9.98092e-01,9.08561e-01,9.99986e-01
6.297549810e-01,9.09622e-01,9.99999e-01,9.99999e-01,9.99300e-01,9.10283e-01,9.99972e-01
6.329037559e-01,9.10694e-01,9.99999e-01,9.99999e-01,9.98616e-01,9.11975e-01,9.99978e-01
6.360682746e-01,9.12549e-01,9.99999e-01,9.99999e-01,9.98822e-01,9.13636e-01,9.99986e-01
6.392486160e-01,9.13866e-01,9.99999e-01,9.99999e-01,9.98473e-01,9.15268e-01,9.99993e-01
6.424448591e-01,9.14994e-01,9.99999e-01,9.99999e-01,9.97962e-01,9.16870e-01,9.99990e-01
6.456570834e-01,9.09736e-01,9.99999e-01,9.99999e-01,9.90570e-01,9.18443e-01,9.99947e-01
6.488853688e-01,9.13481e-01,9.99999e-01,9.99999e-01,9.93073e-01,9.19987e-01,9.99852e-01
6.521297956e-01,9.14889e-01,9.99999e-01,9.99999e-01,9.92941e-01,9.21504e-01,9.99878e-01
6.553904446e-01,9.16428e-01,9.99999e-01,9.99999e-01,9.92975e-01,9.22993e-01,9.99909e-01
6.586673968e-01,9.18860e-01,9.99999e-01,9.99999e-01,9.93977e-01,9.24455e-01,9.99969e-01
6.619607338e-01,9.22657e-01,9.99999e-01,9.99999e-01,9.96513e-01,9.25891e-01,9.99993e-01
6.652705375e-01,9.25424e-01,9.99999e-01,9.99999e-01,9.97979e-01,9.27300e-01,9.99996e-01
6.685968902e-01,9.27811e-01,9.99999e-01,9.99999e-01,9.99060e-01,9.28684e-01,9.99998e-01
6.719398746e-01,9.29637e-01,9.99999e-01,9.99999e-01,9.99564e-01,9.30042e-01,9.99999e-01
6.752995740e-01,9.31156e-01,9.99999e-01,9.99999e-01,9.99764e-01,9.31375e-01,9.99999e-01
6.786760719e-01,9.32367e-01,9.99999e-01,9.99999e-01,9.99660e-01,9.32684e-01,9.99999e-01
6.820694522e-01,9.33423e-01,9.99999e-01,9.99999e-01,9.99417e-01,9.33969e-01,9.99996e-01
6.854797995e-01,9.34522e-01,9.99999e-01,9.99999e-01,9.99249e-01,9.35230e-01,9.99993e-01
6.889071985e-01,9.34759e-01,9.99999e-01,9.99999e-01,9.98190e-01,9.36467e-01,9.99983e-01
6.923517345e-01,9.10174e-01,9.99999e-01,9.99999e-01,9.70800e-01,9.37682e-01,9.99857e-01
6.958134932e-01,9.24170e-01,9.99999e-01,9.99999e-01,9.84652e-01,9.38875e-01,9.99678e-01
6.992925606e-01,9.26113e-01,9.99999e-01,9.99999e-01,9.85456e-01,9.40045e-01,9.99717e-01
7.027890234e-01,9.24088e-01,9.99999e-01,9.99999e-01,9.82037e-01,9.41194e-01,9.99782e-01
7.063029686e-01,9.27968e-01,9.99999e-01,9.99999e-01,9.84873e-01,9.42321e-01,9.99891e-01
7.098344834e-01,9.29670e-01,9.99999e-01,9.99999e-01,9.85479e-01,9.43428e-01,9.99935e-01
7.133836558e-01,9.26239e-01,9.99999e-01,9.99999e-01,9.80776e-01,9.44514e-01,9.99872e-01
7.169505741e-01,8.09228e-01,9.99999e-01,9.99999e-01,8.56654e-01,9.45579e-01,9.99002e-01
7.205353270e-01,8.75553e-01,9.99999e-01,9.99999e-01,9.26548e-01,9.46625e-01,9.98241e-01
7.241380036e-01,8.58955e-01,9.99999e-01,9.99999e-01,9.07781e-01,9.47651e-01,9.98481e-01
7.277586936e-01,8.68273e-01,9.99999e-01,9.99999e-01,9.16401e-01,9.48658e-01,9.98758e-01
7.313974871e-01,8.64590e-01,9.99999e-01,9.99999e-01,9.10962e-01,9.49646e-01,9.99418e-01
7.350544745e-01,9.03174e-01,9.99999e-01,9.99999e-01,9.50285e-01,9.50616e-01,9.99797e-01
7.387297469e-01,9.16385e-01,9.99999e-01,9.99999e-01,9.63115e-01,9.51567e-01,9.99906e-01
7.424233956e-01,9.35114e-01,9.99999e-01,9.99999e-01,9.81763e-01,9.52501e-01,9.99981e-01
7.461355126e-01,9.42842e-01,9.99999e-01,9.99999e-01,9.88911e-01,9.53417e-01,9.99996e-01
7.498661902e-01,9.49371e-01,9.99999e-01,9.99999e-01,9.94819e-01,9.54316e-01,9.99998e-01
7.536155211e-01,9.52769e-01,9.99999e-01,9.99999e-01,9.97457e-01,9.55197e-01,9.99998e-01
7.573835987e-01,9.54811e-01,9.99999e-01,9.99999e-01,9.98690e-01,9.56063e-01,9.99999e-01
7.611705167e-01,9.56133e-01,9.99999e-01,9.99999e-01,9.99186e-01,9.56912e-01,9.99999e-01
7.649763693e-01,9.57256e-01,9.99999e-01,9.99999e-01,9.99489e-01,9.57744e-01,9.99999e-01
7.688012511e-01,9.58221e-01,9.99999e-01,9.99999e-01,9.99644e-01,9.58561e-01,9.99999e-01
7.726452574e-01,9.59083e-01,9.99999e-01,9.99999e-01,9.99707e-01,9.59363e-01,9.99999e-01
7.765084837e-01,9.59752e-01,9.99999e-01,9.99999e-01,9.99585e-01,9.60150e-01,9.99999e-01
7.803910261e-01,9.59201e-01,9.99999e-01,9.99999e-01,9.98211e-01,9.60921e-01,9.99997e-01
7.842929812e-01,9.55676e-01,9.99999e-01,9.99999e-01,9.93769e-01,9.61678e-01,9.99988e-01
7.882144461e-01,9.50004e-01,9.99999e-01,9.99999e-01,9.87176e-01,9.62421e-01,9.99920e-01
7.921555184e-01,9.56206e-01,9.99999e-01,9.99999e-01,9.92942e-01,9.63149e-01,9.99847e-01
7.961162960e-01,9.51765e-01,9.99999e-01,9.99999e-01,9.87592e-01,9.63864e-01,9.99853e-01
8.000968774e-01,9.50576e-01,9.99999e-01,9.99999e-01,9.85650e-01,9.64564e-01,9.99844e-01
8.040973618e-01,9.51288e-01,9.99999e-01,9.99999e-01,9.85654e-01,9.65252e-01,9.99876e-01
8.081178486e-01,9.34957e-01,9.99999e-01,9.99999e-01,9.68049e-01,9.65927e-01,9.99883e-01
8.121584379e-01,8.44397e-01,9.99999e-01,9.99999e-01,8.73982e-01,9.66588e-01,9.99544e-01
8.162192301e-01,8.22845e-01,9.99999e-01,9.99999e-01,8.52174e-01,9.67237e-01,9.98289e-01
8.203003262e-01,8.93348e-01,9.99999e-01,9.99999e-01,9.24851e-01,9.67874e-01,9.97997e-01
8.244018279e-01,8.67156e-01,9.99999e-01,9.99999e-01,8.96790e-01,9.68498e-01,9.98405e-01
8.285238370e-01,8.79550e-01,9.99999e-01,9.99999e-01,9.08721e-01,9.69111e-01,9.98747e-01
8.326664562e-01,8.79866e-01,9.99999e-01,9.99999e-01,9.07818e-01,9.69712e-01,9.99481e-01
8.368297885e-01,9.05132e-01,9.99999e-01,9.99999e-01,9.32946e-01,9.70301e-01,9.99881e-01
8.410139374e-01,9.31552e-01,9.99999e-01,9.99999e-01,9.59558e-01,9.70879e-01,9.99930e-01
8.452190071e-01,9.51923e-01,9.99999e-01,9.99999e-01,9.79943e-01,9.71446e-01,9.99958e-01
8.494451021e-01,9.60620e-01,9.99999e-01,9.99999e-01,9.88322e-01,9.72002e-01,9.99966e-01
8.536923276e-01,9.65792e-01,9.99999e-01,9.99999e-01,9.93074e-01,9.72547e-01,9.99979e-01
8.579607893e-01,9.68925e-01,9.99999e-01,9.99999e-01,9.95732e-01,9.73082e-01,9.99994e-01
8.622505932e-01,9.70964e-01,9.99999e-01,9.99999e-01,9.97285e-01,9.73607e-01,9.99998e-01
8.665618462e-01,9.72486e-01,9.99999e-01,9.99999e-01,9.98321e-01,9.74121e-01,9.99999e-01
8.708946554e-01,9.72754e-01,9.99999e-01,9.99999e-01,9.98079e-01,9.74626e-01,9.99998e-01
8.752491287e-01,9.72613e-01,9.99999e-01,9.99999e-01,9.97430e-01,9.75121e-01,9.99996e-01
8.796253743e-01,9.72132e-01,9.99999e-01,9.99999e-01,9.96446e-01,9.75606e-01,9.99991e-01
8.840235012e-01,9.72097e-01,9.99999e-01,9.99999e-01,9.95941e-01,9.76082e-01,9.99974e-01
8.884436187e-01,9.62198e-01,9.99999e-01,9.99999e-01,9.85373e-01,9.76549e-01,9.99929e-01
8.928858368e-01,8.36918e-01,9.99999e-01,9.99999e-01,8.56961e-01,9.77007e-01,9.99593e-01
8.973502660e-01,7.42752e-01,9.99999e-01,9.99999e-01,7.61466e-01,9.77456e-01,9.97919e-01
9.018370173e-01,8.47973e-01,9.99999e-01,9.99999e-01,8.69983e-01,9.77896e-01,9.96730e-01
9.063462024e-01,8.62985e-01,9.99999e-01,9.99999e-01,8.84642e-01,9.78328e-01,9.97127e-01
9.108779334e-01,8.05996e-01,9.99999e-01,9.99999e-01,8.25958e-01,9.78751e-01,9.97015e-01
9.154323231e-01,7.85415e-01,9.99999e-01,9.99999e-01,8.04109e-01,9.79167e-01,9.97532e-01
9.200094847e-01,8.25020e-01,9.99999e-01,9.99999e-01,8.43388e-01,9.79574e-01,9.98617e-01
9.246095321e-01,7.56728e-01,9.99999e-01,9.99999e-01,7.73423e-01,9.79973e-01,9.98407e-01
9.292325798e-01,1.93026e-01,9.99999e-01,9.99999e-01,1.98118e-01,9.80365e-01,9.93805e-01
9.338787427e-01,1.17226e-01,9.99999e-01,9.99999e-01,1.22636e-01,9.80749e-01,9.74641e-01
9.385481364e-01,4.04590e-01,9.99999e-01,9.99999e-01,4.25165e-01,9.81126e-01,9.69913e-01
9.432408771e-01,3.05138e-01,9.99999e-01,9.99999e-01,3.19193e-01,9.81495e-01,9.73989e-01
9.479570815e-01,1.97758e-01,9.99999e-01,9.99999e-01,2.05779e-01,9.81857e-01,9.78779e-01
9.526968669e-01,2.84585e-01,9.99999e-01,9.99999e-01,2.93554e-01,9.82212e-01,9.87002e-01
9.574603512e-01,3.03367e-01,9.99999e-01,9.99999e-01,3.10810e-01,9.82560e-01,9.93376e-01
9.622476530e-01,3.71624e-01,9.99999e-01,9.99999e-01,3.79830e-01,9.82902e-01,9.95415e-01
9.670588912e-01,5.58075e-01,9.99999e-01,9.99999e-01,5.69376e-01,9.83237e-01,9.96861e-01
9.718941857e-01,6.83936e-01,9.99999e-01,9.99999e-01,6.96974e-01,9.83565e-01,9.97688e-01
9.767536566e-01,7.27492e-01,9.99999e-01,9.99999e-01,7.40713e-01,9.83887e-01,9.98233e-01
9.816374249e-01,7.86498e-01,9.99999e-01,9.99999e-01,7.99610e-01,9.84203e-01,9.99388e-01
9.865456120e-01,8.55660e-01,9.99999e-01,9.99999e-01,8.69230e-01,9.84512e-01,9.99872e-01
9.914783401e-01,9.02907e-01,9.99999e-01,9.99999e-01,9.16860e-01,9.84816e-01,9.99964e-01
9.964357318e-01,9.39602e-01,9.99999e-01,9.99999e-01,9.53819e-01,9.85114e-01,9.99978e-01
1.001417910e+00,9.57831e-01,9.99999e-01,9.99999e-01,9.72047e-01,9.85406e-01,9.99967e-01
1.006425000e+00,9.69851e-01,9.99999e-01,9.99999e-01,9.83972e-01,9.85692e-01,9.99954e-01
1.011457125e+00,9.76091e-01,9.99999e-01,9.99999e-01,9.90018e-01,9.85972e-01,9.99957e-01
1.016514411e+00,9.79527e-01,9.99999e-01,9.99999e-01,9.93214e-01,9.86248e-01,9.99970e-01
1.021596983e+00,9.81153e-01,9.99999e-01,9.99999e-01,9.94591e-01,9.86517e-01,9.99969e-01
1.026704968e+00,9.82598e-01,9.99999e-01,9.99999e-01,9.95779e-01,9.86782e-01,9.99979e-01
1.031838492e+00,9.84006e-01,9.99999e-01,9.99999e-01,9.96929e-01,9.87041e-01,9.99994e-01
1.036997685e+00,9.85495e-01,9.99999e-01,9.99999e-01,9.98176e-01,9.87296e-01,9.99998e-01
1.042182673e+00,9.85400e-01,9.99999e-01,9.99999e-01,9.97827e-01,9.87545e-01,9.99999e-01
1.047393587e+00,9.84943e-01,9.99999e-01,9.99999e-01,9.97118e-01,9.87789e-01,9.99998e-01
1.052630555e+00,9.84125e-01,9.99999e-01,9.99999e-01,9.96049e-01,9.88029e-01,9.99998e-01
1.057893707e+00,9.81755e-01,9.99999e-01,9.99999e-01,9.93415e-01,9.88264e-01,9.99997e-01
1.063183176e+00,9.77800e-01,9.99999e-01,9.99999e-01,9.89185e-01,9.88495e-01,9.99993e-01
1.068499092e+00,9.70866e-01,9.99999e-01,9.99999e-01,9.81953e-01,9.88721e-01,9.99987e-01
1.073841587e+00,9.68090e-01,9.99999e-01,9.99999e-01,9.78940e-01,9.88942e-01,9.99972e-01
1.079210795e+00,9.62436e-01,9.99999e-01,9.99999e-01,9.73054e-01,9.89159e-01,9.99926e-01
1.084606849e+00,9.49176e-01,9.99999e-01,9.99999e-01,9.59539e-01,9.89372e-01,9.99824e-01
1.090029883e+00,9.32405e-01,9.99999e-01,9.99999e-01,9.42562e-01,9.89581e-01,9.99636e-01
1.095480033e+00,8.41953e-01,9.99999e-01,9.99999e-01,8.51199e-01,9.89786e-01,9.99343e-01
1.100957433e+00,6.59367e-01,9.99999e-01,9.99999e-01,6.66841e-01,9.89987e-01,9.98792e-01
1.106462220e+00,3.66061e-01,9.99999e-01,9.99999e-01,3.70448e-01,9.90183e-01,9.97952e-01
1.111994531e+00,1.28135e-01,9.99999e-01,9.99999e-01,1.30086e-01,9.90376e-01,9.94575e-01
1.117554504e+00,3.98002e-02,9.99999e-01,9.99999e-01,4.09761e-02,9.90565e-01,9.80553e-01
1.123142276e+00,1.05174e-01,9.99999e-01,9.99999e-01,1.11216e-01,9.90751e-01,9.54497e-01
1.128757988e+00,2.04899e-01,9.99999e-01,9.99999e-01,2.18219e-01,9.90933e-01,9.47551e-01
1.134401778e+00,9.13083e-02,9.99999e-01,9.99999e-01,9.64455e-02,9.91111e-01,9.55223e-01
1.140073787e+00,3.70216e-01,9.99999e-01,9.99999e-01,3.87393e-01,9.91286e-01,9.64060e-01
1.145774156e+00,1.49668e-01,9.99999e-01,9.99999e-01,1.56100e-01,9.91457e-01,9.67051e-01
1.151503026e+00,1.25249e-01,9.99999e-01,9.99999e-01,1.28686e-01,9.91625e-01,9.81508e-01
1.157260541e+00,1.58024e-01,9.99999e-01,9.99999e-01,1.60224e-01,9.91790e-01,9.94434e-01
1.163046844e+00,2.52346e-01,9.99999e-01,9.99999e-01,2.54796e-01,9.91951e-01,9.98419e-01
1.168862078e+00,3.73038e-01,9.99999e-01,9.99999e-01,3.76310e-01,9.92110e-01,9.99185e-01
1.174706389e+00,5.41301e-01,9.99999e-01,9.99999e-01,5.46109e-01,9.92265e-01,9.98920e-01
1.180579921e+00,6.84015e-01,9.99999e-01,9.99999e-01,6.90367e-01,9.92417e-01,9.98367e-01
1.186482820e+00,8.02590e-01,9.99999e-01,9.99999e-01,8.09957e-01,9.92566e-01,9.98324e-01
1.192415234e+00,8.76453e-01,9.99999e-01,9.99999e-01,8.83995e-01,9.92713e-01,9.98745e-01
1.198377311e+00,8.93880e-01,9.99999e-01,9.99999e-01,9.01379e-01,9.92856e-01,9.98814e-01
1.204369197e+00,8.99353e-01,9.99999e-01,9.99999e-01,9.06667e-01,9.92997e-01,9.98927e-01
1.210391043e+00,9.03556e-01,9.99999e-01,9.99999e-01,9.10396e-01,9.93134e-01,9.99347e-01
1.216442998e+00,9.16636e-01,9.99999e-01,9.99999e-01,9.23215e-01,9.93270e-01,9.99599e-01
1.222525213e+00,9.33186e-01,9.99999e-01,9.99999e-01,9.39616e-01,9.93402e-01,9.99751e-01
1.228637839e+00,9.51362e-01,9.99999e-01,9.99999e-01,9.57665e-01,9.93532e-01,9.99884e-01
