#,Wave/freq,Total,N2,O2,H2O,Rayleigh,CIA
4.000000000e-01,6.16218e-01,9.99999e-01,9.99999e-01,9.99945e-01,6.16252e-01,9.99999e-01
4.020000000e-01,6.22158e-01,9.99999e-01,9.99999e-01,9.99965e-01,6.22179e-01,9.99999e-01
4.040100000e-01,6.28029e-01,9.99999e-01,9.99999e-01,9.99985e-01,6.28038e-01,9.99999e-01
4.060300500e-01,6.33833e-01,9.99999e-01,9.99999e-01,9.99996e-01,6.33835e-01,9.99999e-01
4.080602003e-01,6.39569e-01,9.99999e-01,9.99999e-01,9.99998e-01,6.39569e-01,9.99999e-01
4.101005013e-01,6.45241e-01,9.99999e-01,9.99999e-01,9.99999e-01,6.45241e-01,9.99999e-01
4.121510038e-01,6.50848e-01,9.99999e-01,9.99999e-01,9.99997e-01,6.50849e-01,9.99999e-01
4.142117588e-01,6.56384e-01,9.99999e-01,9.99999e-01,9.99984e-01,6.56394e-01,9.99999e-01
4.162828176e-01,6.61830e-01,9.99999e-01,9.99999e-01,9.99932e-01,6.61875e-01,9.99999e-01
4.183642317e-01,6.67265e-01,9.99999e-01,9.99999e-01,9.99959e-01,6.67292e-01,9.99999e-01
4.204560528e-01,6.72629e-01,9.99999e-01,9.99999e-01,9.99975e-01,6.72645e-01,9.99999e-01
4.225583331e-01,6.77929e-01,9.99999e-01,9.99999e-01,9.99990e-01,6.77935e-01,9.99999e-01
4.246711247e-01,6.83155e-01,9.99999e-01,9.99999e-01,9.99992e-01,6.83160e-01,9.99999e-01
4.267944804e-01,6.88313e-01,9.99999e-01,9.99999e-01,9.99988e-01,6.88321e-01,9.99999e-01
4.289284528e-01,6.93412e-01,9.99999e-01,9.99999e-01,9.99991e-01,6.93418e-01,9.99999e-01
4.310730950e-01,6.98448e-01,9.99999e-01,9.99999e-01,9.99996e-01,6.98450e-01,9.99999e-01
4.332284605e-01,7.03419e-01,9.99999e-01,9.99999e-01,9.99998e-01,7.03419e-01,9.99999e-01
4.353946028e-01,7.08324e-01,9.99999e-01,9.99999e-01,9.99999e-01,7.08324e-01,9.99999e-01
4.375715758e-01,7.13161e-01,9.99999e-01,9.99999e-01,9.99992e-01,7.13166e-01,9.99999e-01
4.397594337e-01,7.17900e-01,9.99999e-01,9.99999e-01,9.99939e-01,7.17944e-01,9.99999e-01
4.419582309e-01,7.22436e-01,9.99999e-01,9.99999e-01,9.99691e-01,7.22658e-01,9.99999e-01
4.441680220e-01,7.27140e-01,9.99999e-01,9.99999e-01,9.99766e-01,7.27310e-01,9.99999e-01
4.463888621e-01,7.31719e-01,9.99999e-01,9.99999e-01,9.99754e-01,7.31898e-01,9.99999e-01
4.486208064e-01,7.36313e-01,9.99999e-01,9.99999e-01,9.99848e-01,7.36424e-01,9.99999e-01
4.508639105e-01,7.40836e-01,9.99999e-01,9.99999e-01,9.99928e-01,7.40888e-01,9.99999e-01
4.531182300e-01,7.45269e-01,9.99999e-01,9.99999e-01,9.99971e-01,7.45290e-01,9.99999e-01
4.553838212e-01,7.49616e-01,9.99999e-01,9.99999e-01,9.99980e-01,7.49630e-01,9.99999e-01
4.576607403e-01,7.53903e-01,9.99999e-01,9.99999e-01,9.99990e-01,7.53910e-01,9.99999e-01
4.599490440e-01,7.58123e-01,9.99999e-01,9.99999e-01,9.99993e-01,7.58128e-01,9.99999e-01
4.622487892e-01,7.62285e-01,9.99999e-01,9.99999e-01,9.99998e-01,7.62286e-01,9.99999e-01
4.645600332e-01,7.66381e-01,9.99999e-01,9.99999e-01,9.99995e-01,7.66384e-01,9.99999e-01
4.668828333e-01,7.70366e-01,9.99999e-01,9.99999e-01,9.99926e-01,7.70422e-01,9.99999e-01
4.692172475e-01,7.74283e-01,9.99999e-01,9.99999e-01,9.99846e-01,7.74402e-01,9.99999e-01
4.715633337e-01,7.78244e-01,9.99999e-01,9.99999e-01,9.99898e-01,7.78322e-01,9.99999e-01
4.739211504e-01,7.82110e-01,9.99999e-01,9.99999e-01,9.99903e-01,7.82185e-01,9.99999e-01
4.762907561e-01,7.85951e-01,9.99999e-01,9.99999e-01,9.99950e-01,7.85989e-01,9.99999e-01
4.786722099e-01,7.89721e-01,9.99999e-01,9.99999e-01,9.99979e-01,7.89737e-01,9.99999e-01
4.810655710e-01,7.93423e-01,9.99999e-01,9.99999e-01,9.99993e-01,7.93428e-01,9.99999e-01
4.834708988e-01,7.97014e-01,9.99999e-01,9.99999e-01,9.99938e-01,7.97062e-01,9.99999e-01
4.858882533e-01,8.00555e-01,9.99999e-01,9.99999e-01,9.99891e-01,8.00642e-01,9.99999e-01
4.883176946e-01,8.04092e-01,9.99999e-01,9.99999e-01,9.99908e-01,8.04166e-01,9.99999e-01
4.907592831e-01,8.07569e-01,9.99999e-01,9.99999e-01,9.99917e-01,8.07635e-01,9.99999e-01
4.932130795e-01,8.11003e-01,9.99999e-01,9.99999e-01,9.99941e-01,8.11050e-01,9.99999e-01
4.956791449e-01,8.14387e-01,9.99999e-01,9.99999e-01,9.99968e-01,8.14412e-01,9.99999e-01
4.981575406e-01,8.17594e-01,9.99999e-01,9.99999e-01,9.99844e-01,8.17721e-01,9.99999e-01
5.006483283e-01,8.20642e-01,9.99999e-01,9.99999e-01,9.99593e-01,8.20978e-01,9.99996e-01
5.031515699e-01,8.22488e-01,9.99999e-01,9.99999e-01,9.97964e-01,8.24183e-01,9.99978e-01
5.056673278e-01,8.26432e-01,9.99999e-01,9.99999e-01,9.98930e-01,8.27337e-01,9.99975e-01
5.081956644e-01,8.29309e-01,9.99999e-01,9.99999e-01,9.98651e-01,8.30440e-01,9.99984e-01
5.107366428e-01,8.32734e-01,9.99999e-01,9.99999e-01,9.99090e-01,8.33494e-01,9.99996e-01
5.132903260e-01,8.36064e-01,9.99999e-01,9.99999e-01,9.99481e-01,8.36498e-01,9.99999e-01
5.158567776e-01,8.39269e-01,9.99999e-01,9.99999e-01,9.99781e-01,8.39453e-01,9.99999e-01
5.184360615e-01,8.42286e-01,9.99999e-01,9.99999e-01,9.99911e-01,8.42359e-01,9.99999e-01
5.210282418e-01,8.45191e-01,9.99999e-01,9.99999e-01,9.99966e-01,8.45219e-01,9.99999e-01
5.236333830e-01,8.47918e-01,9.99999e-01,9.99999e-01,9.99867e-01,8.48031e-01,9.99998e-01
5.262515499e-01,8.50725e-01,9.99999e-01,9.99999e-01,9.99916e-01,8.50796e-01,9.99998e-01
5.288828077e-01,8.53450e-01,9.99999e-01,9.99999e-01,9.99923e-01,8.53516e-01,9.99998e-01
5.315272217e-01,8.56134e-01,9.99999e-01,9.99999e-01,9.99933e-01,8.56191e-01,9.99999e-01
5.341848578e-01,8.58783e-01,9.99999e-01,9.99999e-01,9.99955e-01,8.58820e-01,9.99999e-01
5.368557821e-01,8.61272e-01,9.99999e-01,9.99999e-01,9.99844e-01,8.61406e-01,9.99999e-01
5.395400610e-01,8.63455e-01,9.99999e-01,9.99999e-01,9.99433e-01,8.63948e-01,9.99994e-01
5.422377613e-01,8.65816e-01,9.99999e-01,9.99999e-01,9.99284e-01,8.66448e-01,9.99986e-01
5.449489501e-01,8.68308e-01,9.99999e-01,9.99999e-01,9.99327e-01,8.68904e-01,9.99986e-01
5.476736949e-01,8.70801e-01,9.99999e-01,9.99999e-01,9.99411e-01,8.71320e-01,9.99992e-01
5.504120634e-01,8.73318e-01,9.99999e-01,9.99999e-01,9.99572e-01,8.73693e-01,9.99997e-01
5.531641237e-01,8.75838e-01,9.99999e-01,9.99999e-01,9.99784e-01,8.76027e-01,9.99999e-01
5.559299443e-01,8.78229e-01,9.99999e-01,9.99999e-01,9.99895e-01,8.78320e-01,9.99999e-01
5.587095940e-01,8.80516e-01,9.99999e-01,9.99999e-01,9.99934e-01,8.80574e-01,9.99999e-01
5.615031420e-01,8.82724e-01,9.99999e-01,9.99999e-01,9.99926e-01,8.82789e-01,9.99999e-01
5.643106577e-01,8.84890e-01,9.99999e-01,9.99999e-01,9.99915e-01,8.84965e-01,9.99998e-01
5.671322110e-01,8.86183e-01,9.99999e-01,9.99999e-01,9.98969e-01,8.87104e-01,9.99990e-01
5.699678720e-01,8.88244e-01,9.99999e-01,9.99999e-01,9.98945e-01,8.89206e-01,9.99972e-01
5.728177114e-01,8.90256e-01,9.99999e-01,9.99999e-01,9.98884e-01,8.91270e-01,9.99976e-01
5.756818000e-01,8.92376e-01,9.99999e-01,9.99999e-01,9.98979e-01,8.93299e-01,9.99986e-01
5.785602090e-01,8.94495e-01,9.99999e-01,9.99999e-01,9.99112e-01,8.95292e-01,9.99995e-01
5.814530100e-01,8.96447e-01,9.99999e-01,9.99999e-01,9.99105e-01,8.97250e-01,9.99997e-01
5.843602750e-01,8.98201e-01,9.99999e-01,9.99999e-01,9.98923e-01,8.99174e-01,9.99993e-01
5.872820764e-01,8.92691e-01,9.99999e-01,9.99999e-01,9.90771e-01,9.01064e-01,9.99935e-01
5.902184868e-01,8.92793e-01,9.99999e-01,9.99999e-01,9.88957e-01,9.02920e-01,9.99823e-01
5.931695792e-01,8.97498e-01,9.99999e-01,9.99999e-01,9.92159e-01,9.04743e-01,9.99830e-01
5.961354271e-01,8.98679e-01,9.99999e-01,9.99999e-01,9.91431e-01,9.06534e-01,9.99902e-01
5.991161043e-01,9.02592e-01,9.99999e-01,9.99999e-01,9.93753e-01,9.08292e-01,9.99969e-01
6.021116848e-01,9.06793e-01,9.99999e-01,9.99999e-01,9.96457e-01,9.10020e-01,9.99996e-01
6.051222432e-01,9.10082e-01,9.99999e-01,9.99999e-01,9.98207e-01,9.11716e-01,9.99999e-01
6.081478544e-01,9.12675e-01,9.99999e-01,9.99999e-01,9.99225e-01,9.13382e-01,9.99999e-01
6.111885937e-01,9.14720e-01,9.99999e-01,9.99999e-01,9.99673e-01,9.15018e-01,9.99999e-01
6.142445367e-01,9.16491e-01,9.99999e-01,9.99999e-01,9.99853e-01,9.16625e-01,9.99999e-01
6.173157594e-01,9.18128e-01,9.99999e-01,9.99999e-01,9.99918e-01,9.18202e-01,9.99999e-01
6.204023382e-01,9.19688e-01,9.99999e-01,9.99999e-01,9.99930e-01,9.19751e-01,9.99999e-01
6.235043498e-01,9.20986e-01,9.99999e-01,9.99999e-01,9.99690e-01,9.21272e-01,9.99998e-01
6.266218716e-01,9.21278e-01,9.99999e-01,9.99999e-01,9.98398e-01,9.22766e-01,9.99988e-01
6.297549810e-01,9.23668e-01,9.99999e-01,9.99999e-01,9.99412e-01,9.24232e-01,9.99977e-01
6.329037559e-01,9.24585e-01,9.99999e-01,9.99999e-01,9.98844e-01,9.25671e-01,9.99981e-01
6.360682746e-01,9.26157e-01,9.99999e-01,9.99999e-01,9.99009e-01,9.27085e-01,9.99988e-01
6.392486160e-01,9.27280e-01,9.99999e-01,9.99999e-01,9.98719e-01,9.28472e-01,9.99994e-01
6.424448591e-01,9.28216e-01,9.99999e-01,9.99999e-01,9.98268e-01,9.29834e-01,9.99991e-01
6.456570834e-01,9.23662e-01,9.99999e-01,9.99999e-01,9.91982e-01,9.31171e-01,9.99951e-01
6.488853688e-01,9.26976e-01,9.99999e-01,9.99999e-01,9.94215e-01,9.32484e-01,9.99876e-01
6.521297956e-01,9.28175e-01,9.99999e-01,9.99999e-01,9.94106e-01,9.33772e-01,9.99897e-01
6.553904446e-01,9.29442e-01,9.99999e-01,9.99999e-01,9.94090e-01,9.35037e-01,9.99923e-01
6.586673968e-01,9.31545e-01,9.99999e-01,9.99999e-01,9.94968e-01,9.36278e-01,9.99974e-01
6.619607338e-01,9.34862e-01,9.99999e-01,9.99999e-01,9.97194e-01,9.37497e-01,9.99994e-01
6.652705375e-01,9.37109e-01,9.99999e-01,9.99999e-01,9.98315e-01,9.38693e-01,9.99996e-01
6.685968902e-01,9.39194e-01,9.99999e-01,9.99999e-01,9.99284e-01,9.39866e-01,9.99999e-01
6.719398746e-01,9.40678e-01,9.99999e-01,9.99999e-01,9.99637e-01,9.41018e-01,9.99999e-01
6.752995740e-01,9.41969e-01,9.99999e-01,9.99999e-01,9.99807e-01,9.42149e-01,9.99999e-01
6.786760719e-01,9.42987e-01,9.99999e-01,9.99999e-01,9.99712e-01,9.43259e-01,9.99999e-01
6.820694522e-01,9.43879e-01,9.99999e-01,9.99999e-01,9.99505e-01,9.44348e-01,9.99996e-01
6.854797995e-01,9.44815e-01,9.99999e-01,9.99999e-01,9.99368e-01,9.45416e-01,9.99994e-01
6.889071985e-01,9.44516e-01,9.99999e-01,9.99999e-01,9.97953e-01,9.46465e-01,9.99985e-01
6.923517345e-01,9.23784e-01,9.99999e-01,9.99999e-01,9.75091e-01,9.47494e-01,9.99880e-01
6.958134932e-01,9.36300e-01,9.99999e-01,9.99999e-01,9.87393e-01,9.48504e-01,9.99735e-01
6.992925606e-01,9.37559e-01,9.99999e-01,9.99999e-01,9.87663e-01,9.49495e-01,9.99761e-01
7.027890234e-01,9.35999e-01,9.99999e-01,9.99999e-01,9.84955e-01,9.50468e-01,9.99817e-01
7.063029686e-01,9.39271e-01,9.99999e-01,9.99999e-01,9.87317e-01,9.51422e-01,9.99909e-01
7.098344834e-01,9.40716e-01,9.99999e-01,9.99999e-01,9.87827e-01,9.52358e-01,9.99946e-01
7.133836558e-01,9.37495e-01,9.99999e-01,9.99999e-01,9.83548e-01,9.53277e-01,9.99893e-01
7.169505741e-01,8.36047e-01,9.99999e-01,9.99999e-01,8.76928e-01,9.54178e-01,9.99163e-01
7.205353270e-01,8.95599e-01,9.99999e-01,9.99999e-01,9.39122e-01,9.55063e-01,9.98525e-01
7.241380036e-01,8.79845e-01,9.99999e-01,9.99999e-01,9.21579e-01,9.55930e-01,9.98726e-01
7.277586936e-01,8.88035e-01,9.99999e-01,9.99999e-01,9.29076e-01,9.56782e-01,9.99000e-01
7.313974871e-01,8.85633e-01,9.99999e-01,9.99999e-01,9.25240e-01,9.57617e-01,9.99555e-01
7.350544745e-01,9.18318e-01,9.99999e-01,9.99999e-01,9.58303e-01,9.58437e-01,9.99830e-01
7.387297469e-01,9.29573e-01,9.99999e-01,9.99999e-01,9.69146e-01,9.59241e-01,9.99921e-01
7.424233956e-01,9.45450e-01,9.99999e-01,9.99999e-01,9.84826e-01,9.60029e-01,9.99986e-01
7.461355126e-01,9.51921e-01,9.99999e-01,9.99999e-01,9.90757e-01,9.60803e-01,9.99997e-01
7.498661902e-01,9.57431e-01,9.99999e-01,9.99999e-01,9.95704e-01,9.61562e-01,9.99998e-01
7.536155211e-01,9.60269e-01,9.99999e-01,9.99999e-01,9.97882e-01,9.62307e-01,9.99998e-01
7.573835987e-01,9.61988e-01,9.99999e-01,9.99999e-01,9.98910e-01,9.63038e-01,9.99999e-01
7.611705167e-01,9.63101e-01,9.99999e-01,9.99999e-01,9.99322e-01,9.63754e-01,9.99999e-01
7.649763693e-01,9.64047e-01,9.99999e-01,9.99999e-01,9.99574e-01,9.64457e-01,9.99999e-01
7.688012511e-01,9.64861e-01,9.99999e-01,9.99999e-01,9.99702e-01,9.65147e-01,9.99999e-01
7.726452574e-01,9.65587e-01,9.99999e-01,9.99999e-01,9.99755e-01,9.65823e-01,9.99999e-01
7.765084837e-01,9.66148e-01,9.99999e-01,9.99999e-01,9.99648e-01,9.66487e-01,9.99999e-01
7.803910261e-01,9.65667e-01,9.99999e-01,9.99999e-01,9.98479e-01,9.67138e-01,9.99997e-01
7.842929812e-01,9.62640e-01,9.99999e-01,9.99999e-01,9.94701e-01,9.67777e-01,9.99989e-01
7.882144461e-01,9.57910e-01,9.99999e-01,9.99999e-01,9.89237e-01,9.68403e-01,9.99925e-01
7.921555184e-01,9.63204e-01,9.99999e-01,9.99999e-01,9.94128e-01,9.69017e-01,9.99870e-01
7.961162960e-01,9.59302e-01,9.99999e-01,9.99999e-01,9.89479e-01,9.69620e-01,9.99877e-01
8.000968774e-01,9.58394e-01,9.99999e-01,9.99999e-01,9.87948e-01,9.70211e-01,9.99869e-01
8.040973618e-01,9.58972e-01,9.99999e-01,9.99999e-01,9.87923e-01,9.70791e-01,9.99900e-01
8.081178486e-01,9.44832e-01,9.99999e-01,9.99999e-01,9.72787e-01,9.71359e-01,9.99898e-01
8.121584379e-01,8.66611e-01,9.99999e-01,9.99999e-01,8.91991e-01,9.71917e-01,9.99617e-01
8.162192301e-01,8.49630e-01,9.99999e-01,9.99999e-01,8.74942e-01,9.72464e-01,9.98565e-01
8.203003262e-01,9.08144e-01,9.99999e-01,9.99999e-01,9.34913e-01,9.73000e-01,9.98320e-01
8.244018279e-01,8.88190e-01,9.99999e-01,9.99999e-01,9.13563e-01,9.73526e-01,9.98662e-01
8.285238370e-01,8.97590e-01,9.99999e-01,9.99999e-01,9.22478e-01,9.74042e-01,9.98949e-01
8.326664562e-01,8.98320e-01,9.99999e-01,9.99999e-01,9.22180e-01,9.74549e-01,9.99565e-01
8.368297885e-01,9.20099e-01,9.99999e-01,9.99999e-01,9.43741e-01,9.75045e-01,9.99900e-01
8.410139374e-01,9.42487e-01,9.99999e-01,9.99999e-01,9.66181e-01,9.75532e-01,9.99941e-01
8.452190071e-01,9.59673e-01,9.99999e-01,9.99999e-01,9.83296e-01,9.76009e-01,9.99964e-01
8.494451021e-01,9.66905e-01,9.99999e-01,9.99999e-01,9.90223e-01,9.76478e-01,9.99971e-01
8.536923276e-01,9.71288e-01,9.99999e-01,9.99999e-01,9.94233e-01,9.76937e-01,9.99982e-01
8.579607893e-01,9.73896e-01,9.99999e-01,9.99999e-01,9.96431e-01,9.77387e-01,9.99995e-01
8.622505932e-01,9.75618e-01,9.99999e-01,9.99999e-01,9.97739e-01,9.77829e-01,9.99998e-01
8.665618462e-01,9.76886e-01,9.99999e-01,9.99999e-01,9.98593e-01,9.78262e-01,9.99999e-01
8.708946554e-01,9.77106e-01,9.99999e-01,9.99999e-01,9.98385e-01,9.78687e-01,9.99998e-01
8.752491287e-01,9.76990e-01,9.99999e-01,9.99999e-01,9.97843e-01,9.79103e-01,9.99997e-01
8.796253743e-01,9.76568e-01,9.99999e-01,9.99999e-01,9.97000e-01,9.79512e-01,9.99992e-01
8.840235012e-01,9.76540e-01,9.99999e-01,9.99999e-01,9.96579e-01,9.79912e-01,9.99978e-01
8.884436187e-01,9.67783e-01,9.99999e-01,9.99999e-01,9.87283e-01,9.80305e-01,9.99940e-01
8.928858368e-01,8.59485e-01,9.99999e-01,9.99999e-01,8.76706e-01,9.80690e-01,9.99658e-01
8.973502660e-01,7.78888e-01,9.99999e-01,9.99999e-01,7.95305e-01,9.81068e-01,9.98255e-01
9.018370173e-01,8.71919e-01,9.99999e-01,9.99999e-01,8.90851e-01,9.81438e-01,9.97257e-01
9.063462024e-01,8.82401e-01,9.99999e-01,9.99999e-01,9.00926e-01,9.81802e-01,9.97590e-01
9.108779334e-01,8.33632e-01,9.99999e-01,9.99999e-01,8.50905e-01,9.82158e-01,9.97496e-01
9.154323231e-01,8.16219e-01,9.99999e-01,9.99999e-01,8.32473e-01,9.82507e-01,9.97930e-01
9.200094847e-01,8.51089e-01,9.99999e-01,9.99999e-01,8.66944e-01,9.82850e-01,9.98840e-01
9.246095321e-01,7.85382e-01,9.99999e-01,9.99999e-01,7.99880e-01,9.83186e-01,9.98664e-01
9.292325798e-01,2.39741e-01,9.99999e-01,9.99999e-01,2.45336e-01,9.83515e-01,9.93570e-01
9.338787427e-01,1.61164e-01,9.99999e-01,9.99999e-01,1.67675e-01,9.83838e-01,9.76956e-01
9.385481364e-01,4.64201e-01,9.99999e-01,9.99999e-01,4.83912e-01,9.84155e-01,9.74711e-01
9.432408771e-01,3.57418e-01,9.99999e-01,9.99999e-01,3.71170e-01,9.84465e-01,9.78144e-01
9.479570815e-01,2.48238e-01,9.99999e-01,9.99999e-01,2.56651e-01,9.84770e-01,9.82176e-01
9.526968669e-01,3.43010e-01,9.99999e-01,9.99999e-01,3.52050e-01,9.85068e-01,9.89090e-01
9.574603512e-01,3.63464e-01,9.99999e-01,9.99999e-01,3.70924e-01,9.85361e-01,9.94443e-01
9.622476530e-01,4.34543e-01,9.99999e-01,9.99999e-01,4.42572e-01,9.85648e-01,9.96154e-01
9.670588912e-01,6.11817e-01,9.99999e-01,9.99999e-01,6.22116e-01,9.85929e-01,9.97478e-01
9.718941857e-01,7.26811e-01,9.99999e-01,9.99999e-01,7.38403e-01,9.86205e-01,9.98068e-01
9.767536566e-01,7.65466e-01,9.99999e-01,9.99999e-01,7.77110e-01,9.86476e-01,9.98518e-01
9.816374249e-01,8.18106e-01,9.99999e-01,9.99999e-01,8.29523e-01,9.86741e-01,9.99486e-01
9.865456120e-01,8.77935e-01,9.99999e-01,9.99999e-01,8.89592e-01,9.87002e-01,9.99892e-01
9.914783401e-01,9.18206e-01,9.99999e-01,9.99999e-01,9.30085e-01,9.87257e-01,9.99969e-01
9.964357318e-01,9.49277e-01,9.99999e-01,9.99999e-01,9.61303e-01,9.87507e-01,9.99982e-01
1.001417910e+00,9.64651e-01,9.99999e-01,9.99999e-01,9.76637e-01,9.87752e-01,9.99973e-01
1.006425000e+00,9.74689e-01,9.99999e-01,9.99999e-01,9.86571e-01,9.87992e-01,9.99961e-01
1.011457125e+00,9.79967e-01,9.99999e-01,9.99999e-01,9.91674e-01,9.88228e-01,9.99964e-01
1.016514411e+00,9.82831e-01,9.99999e-01,9.99999e-01,9.94329e-01,9.88459e-01,9.99974e-01
1.021596983e+00,9.84189e-01,9.99999e-01,9.99999e-01,9.95474e-01,9.88686e-01,9.99975e-01
1.026704968e+00,9.85400e-01,9.99999e-01,9.99999e-01,9.96466e-01,9.88908e-01,9.99984e-01
1.031838492e+00,9.86588e-01,9.99999e-01,9.99999e-01,9.97438e-01,9.89126e-01,9.99994e-01
1.036997685e+00,9.87829e-01,9.99999e-01,9.99999e-01,9.98473e-01,9.89340e-01,9.99998e-01
1.042182673e+00,9.87739e-01,9.99999e-01,9.99999e-01,9.98170e-01,9.89549e-01,9.99999e-01
1.047393587e+00,9.87360e-01,9.99999e-01,9.99999e-01,9.97581e-01,9.89754e-01,9.99999e-01
1.052630555e+00,9.86665e-01,9.99999e-01,9.99999e-01,9.96675e-01,9.89956e-01,9.99998e-01
1.057893707e+00,9.84651e-01,9.99999e-01,9.99999e-01,9.94444e-01,9.90153e-01,9.99997e-01
1.063183176e+00,9.81317e-01,9.99999e-01,9.99999e-01,9.90886e-01,9.90347e-01,9.99994e-01
1.068499092e+00,9.75489e-01,9.99999e-01,9.99999e-01,9.84818e-01,9.90537e-01,9.99989e-01
1.073841587e+00,9.73086e-01,9.99999e-01,9.99999e-01,9.82219e-01,9.90723e-01,9.99977e-01
1.079210795e+00,9.68416e-01,9.99999e-01,9.99999e-01,9.77363e-01,9.90905e-01,9.99938e-01
1.084606849e+00,9.57115e-01,9.99999e-01,9.99999e-01,9.65867e-01,9.91084e-01,9.99852e-01
1.090029883e+00,9.42372e-01,9.99999e-01,9.99999e-01,9.50970e-01,9.91259e-01,9.99695e-01
1.095480033e+00,8.64518e-01,9.99999e-01,9.99999e-01,8.72469e-01,9.91431e-01,9.99449e-01
1.100957433e+00,7.02392e-01,9.99999e-01,9.99999e-01,7.09059e-01,9.91600e-01,9.98987e-01
1.106462220e+00,4.23020e-01,9.99999e-01,9.99999e-01,4.27265e-01,9.91765e-01,9.98283e-01
1.111994531e+00,1.73316e-01,9.99999e-01,9.99999e-01,1.75526e-01,9.91927e-01,9.95449e-01
1.117554504e+00,6.30933e-02,9.99999e-01,9.99999e-01,6.46524e-02,9.92086e-01,9.83668e-01
1.123142276e+00,1.44504e-01,9.99999e-01,9.99999e-01,1.51433e-01,9.92241e-01,9.61705e-01
1.128757988e+00,2.58848e-01,9.99999e-01,9.99999e-01,2.72883e-01,9.92394e-01,9.55833e-01
1.134401778e+00,1.20542e-01,9.99999e-01,9.99999e-01,1.26203e-01,9.92544e-01,9.62318e-01
1.140073787e+00,4.30130e-01,9.99999e-01,9.99999e-01,4.46800e-01,9.92690e-01,9.69777e-01
1.145774156e+00,1.96817e-01,9.99999e-01,9.99999e-01,2.03885e-01,9.92834e-01,9.72299e-01
1.151503026e+00,1.68546e-01,9.99999e-01,9.99999e-01,1.72415e-01,9.92975e-01,9.84472e-01
1.157260541e+00,2.09425e-01,9.99999e-01,9.99999e-01,2.11865e-01,9.93113e-01,9.95331e-01
1.163046844e+00,3.13037e-01,9.99999e-01,9.99999e-01,3.15582e-01,9.93249e-01,9.98674e-01
1.168862078e+00,4.37440e-01,9.99999e-01,9.99999e-01,4.40658e-01,9.93382e-01,9.99309e-01
1.174706389e+00,5.97703e-01,9.99999e-01,9.99999e-01,6.02178e-01,9.93512e-01,9.99048e-01
1.180579921e+00,7.27760e-01,9.99999e-01,9.99999e-01,7.33422e-01,9.93640e-01,9.98631e-01
1.186482820e+00,8.31949e-01,9.99999e-01,9.99999e-01,8.38345e-01,9.93765e-01,9.98595e-01
1.192415234e+00,8.95453e-01,9.99999e-01,9.99999e-01,9.01907e-01,9.93888e-01,9.98947e-01
1.198377311e+00,9.10103e-01,9.99999e-01,9.99999e-01,9.16503e-01,9.94008e-01,9.99001e-01
1.204369197e+00,9.14859e-01,9.99999e-01,9.99999e-01,9.21064e-01,9.94126e-01,9.99129e-01
1.210391043e+00,9.18480e-01,9.99999e-01,9.99999e-01,9.24304e-01,9.94242e-01,9.99452e-01
1.216442998e+00,9.29825e-01,9.99999e-01,9.99999e-01,9.35416e-01,9.94355e-01,9.99664e-01
1.222525213e+00,9.43786e-01,9.99999e-01,9.99999e-01,9.49235e-01,9.94466e-01,9.99791e-01
1.228637839e+00,9.59106e-01,9.99999e-01,9.99999e-01,9.64430e-01,9.94575e-01,9.99902e-01
