#,Wave/freq,Total,N2,O2,H2O,Rayleigh,CIA
4.000000000e-01,2.99765e-01,9.99999e-01,9.99999e-01,9.99863e-01,2.99806e-01,9.99999e-01
4.020000000e-01,3.07007e-01,9.99999e-01,9.99999e-01,9.99914e-01,3.07033e-01,9.99999e-01
4.040100000e-01,3.14267e-01,9.99999e-01,9.99999e-01,9.99963e-01,3.14278e-01,9.99999e-01
4.060300500e-01,3.21544e-01,9.99999e-01,9.99999e-01,9.99991e-01,3.21546e-01,9.99999e-01
4.080602003e-01,3.28833e-01,9.99999e-01,9.99999e-01,9.99996e-01,3.28834e-01,9.99999e-01
4.101005013e-01,3.36138e-01,9.99999e-01,9.99999e-01,9.99999e-01,3.36138e-01,9.99999e-01
4.121510038e-01,3.43453e-01,9.99999e-01,9.99999e-01,9.99994e-01,3.43455e-01,9.99999e-01
4.142117588e-01,3.50769e-01,9.99999e-01,9.99999e-01,9.99962e-01,3.50782e-01,9.99999e-01
4.162828176e-01,3.58056e-01,9.99999e-01,9.99999e-01,9.99831e-01,3.58116e-01,9.99999e-01
4.183642317e-01,3.65418e-01,9.99999e-01,9.99999e-01,9.99899e-01,3.65455e-01,9.99999e-01
4.204560528e-01,3.72771e-01,9.99999e-01,9.99999e-01,9.99937e-01,3.72794e-01,9.99999e-01
4.225583331e-01,3.80122e-01,9.99999e-01,9.99999e-01,9.99976e-01,3.80131e-01,9.99999e-01
4.246711247e-01,3.87456e-01,9.99999e-01,9.99999e-01,9.99981e-01,3.87463e-01,9.99999e-01
4.267944804e-01,3.94777e-01,9.99999e-01,9.99999e-01,9.99972e-01,3.94788e-01,9.99999e-01
4.289284528e-01,4.02094e-01,9.99999e-01,9.99999e-01,9.99978e-01,4.02102e-01,9.99999e-01
4.310730950e-01,4.09400e-01,9.99999e-01,9.99999e-01,9.99990e-01,4.09404e-01,9.99999e-01
4.332284605e-01,4.16689e-01,9.99999e-01,9.99999e-01,9.99997e-01,4.16690e-01,9.99999e-01
4.353946028e-01,4.23957e-01,9.99999e-01,9.99999e-01,9.99998e-01,4.23958e-01,9.99999e-01
4.375715758e-01,4.31198e-01,9.99999e-01,9.99999e-01,9.99983e-01,4.31205e-01,9.99999e-01
4.397594337e-01,4.38366e-01,9.99999e-01,9.99999e-01,9.99853e-01,4.38429e-01,9.99999e-01
4.419582309e-01,4.45300e-01,9.99999e-01,9.99999e-01,9.99261e-01,4.45629e-01,9.99999e-01
4.441680220e-01,4.52533e-01,9.99999e-01,9.99999e-01,9.99409e-01,4.52800e-01,9.99999e-01
4.463888621e-01,4.59662e-01,9.99999e-01,9.99999e-01,9.99389e-01,4.59942e-01,9.99999e-01
4.486208064e-01,4.66875e-01,9.99999e-01,9.99999e-01,9.99618e-01,4.67053e-01,9.99999e-01
4.508639105e-01,4.74045e-01,9.99999e-01,9.99999e-01,9.99821e-01,4.74129e-01,9.99999e-01
4.531182300e-01,4.81136e-01,9.99999e-01,9.99999e-01,9.99929e-01,4.81170e-01,9.99999e-01
4.553838212e-01,4.88150e-01,9.99999e-01,9.99999e-01,9.99951e-01,4.88173e-01,9.99999e-01
4.576607403e-01,4.95126e-01,9.99999e-01,9.99999e-01,9.99977e-01,4.95137e-01,9.99999e-01
4.599490440e-01,5.02052e-01,9.99999e-01,9.99999e-01,9.99983e-01,5.02060e-01,9.99999e-01
4.622487892e-01,5.08938e-01,9.99999e-01,9.99999e-01,9.99996e-01,5.08939e-01,9.99999e-01
4.645600332e-01,5.15769e-01,9.99999e-01,9.99999e-01,9.99989e-01,5.15775e-01,9.99999e-01
4.668828333e-01,5.22471e-01,9.99999e-01,9.99999e-01,9.99821e-01,5.22564e-01,9.99999e-01
4.692172475e-01,5.29104e-01,9.99999e-01,9.99999e-01,9.99616e-01,5.29306e-01,9.99999e-01
4.715633337e-01,5.35866e-01,9.99999e-01,9.99999e-01,9.99750e-01,5.36000e-01,9.99999e-01
4.739211504e-01,5.42513e-01,9.99999e-01,9.99999e-01,9.99759e-01,5.42643e-01,9.99999e-01
4.762907561e-01,5.49167e-01,9.99999e-01,9.99999e-01,9.99874e-01,5.49235e-01,9.99999e-01
4.786722099e-01,5.55746e-01,9.99999e-01,9.99999e-01,9.99948e-01,5.55775e-01,9.99999e-01
4.810655710e-01,5.62252e-01,9.99999e-01,9.99999e-01,9.99984e-01,5.62261e-01,9.99999e-01
4.834708988e-01,5.68611e-01,9.99999e-01,9.99999e-01,9.99856e-01,5.68692e-01,9.99999e-01
4.858882533e-01,5.74911e-01,9.99999e-01,9.99999e-01,9.99727e-01,5.75067e-01,9.99999e-01
4.883176946e-01,5.81255e-01,9.99999e-01,9.99999e-01,9.99774e-01,5.81386e-01,9.99999e-01
4.907592831e-01,5.87527e-01,9.99999e-01,9.99999e-01,9.99794e-01,5.87648e-01,9.99999e-01
4.932130795e-01,5.93765e-01,9.99999e-01,9.99999e-01,9.99853e-01,5.93851e-01,9.99999e-01
4.956791449e-01,5.99950e-01,9.99999e-01,9.99999e-01,9.99922e-01,5.99996e-01,9.99999e-01
4.981575406e-01,6.05849e-01,9.99999e-01,9.99999e-01,9.99617e-01,6.06080e-01,9.99999e-01
5.006483283e-01,6.11498e-01,9.99999e-01,9.99999e-01,9.99015e-01,6.12105e-01,9.99992e-01
5.031515699e-01,6.14930e-01,9.99999e-01,9.99999e-01,9.94973e-01,6.18068e-01,9.99946e-01
5.056673278e-01,6.22269e-01,9.99999e-01,9.99999e-01,9.97333e-01,6.23971e-01,9.99938e-01
5.081956644e-01,6.27667e-01,9.99999e-01,9.99999e-01,9.96635e-01,6.29811e-01,9.99960e-01
5.107366428e-01,6.34139e-01,9.99999e-01,9.99999e-01,9.97725e-01,6.35589e-01,9.99992e-01
5.132903260e-01,6.40468e-01,9.99999e-01,9.99999e-01,9.98697e-01,6.41304e-01,9.99998e-01
5.158567776e-01,6.46600e-01,9.99999e-01,9.99999e-01,9.99448e-01,6.46956e-01,9.99999e-01
5.184360615e-01,6.52401e-01,9.99999e-01,9.99999e-01,9.99779e-01,6.52545e-01,9.99999e-01
5.210282418e-01,6.58017e-01,9.99999e-01,9.99999e-01,9.99917e-01,6.58071e-01,9.99999e-01
5.236333830e-01,6.63313e-01,9.99999e-01,9.99999e-01,9.99670e-01,6.63532e-01,9.99997e-01
5.262515499e-01,6.68790e-01,9.99999e-01,9.99999e-01,9.99793e-01,6.68930e-01,9.99996e-01
5.288828077e-01,6.74136e-01,9.99999e-01,9.99999e-01,9.99811e-01,6.74264e-01,9.99997e-01
5.315272217e-01,6.79420e-01,9.99999e-01,9.99999e-01,9.99832e-01,6.79533e-01,9.99999e-01
5.341848578e-01,6.84665e-01,9.99999e-01,9.99999e-01,9.99891e-01,6.84739e-01,9.99999e-01
5.368557821e-01,6.89617e-01,9.99999e-01,9.99999e-01,9.99618e-01,6.89881e-01,9.99998e-01
5.395400610e-01,6.94001e-01,9.99999e-01,9.99999e-01,9.98633e-01,6.94958e-01,9.99988e-01
5.422377613e-01,6.98694e-01,9.99999e-01,9.99999e-01,9.98207e-01,6.99971e-01,9.99967e-01
5.449489501e-01,7.03731e-01,9.99999e-01,9.99999e-01,9.98345e-01,7.04921e-01,9.99966e-01
5.476736949e-01,7.08746e-01,9.99999e-01,9.99999e-01,9.98521e-01,7.09806e-01,9.99983e-01
5.504120634e-01,7.13859e-01,9.99999e-01,9.99999e-01,9.98927e-01,7.14628e-01,9.99995e-01
5.531641237e-01,7.18998e-01,9.99999e-01,9.99999e-01,9.99459e-01,7.19387e-01,9.99998e-01
5.559299443e-01,7.23893e-01,9.99999e-01,9.99999e-01,9.99738e-01,7.24082e-01,9.99999e-01
5.587095940e-01,7.28596e-01,9.99999e-01,9.99999e-01,9.99837e-01,7.28714e-01,9.99999e-01
5.615031420e-01,7.33151e-01,9.99999e-01,9.99999e-01,9.99818e-01,7.33284e-01,9.99999e-01
5.643106577e-01,7.37641e-01,9.99999e-01,9.99999e-01,9.99797e-01,7.37791e-01,9.99998e-01
5.671322110e-01,7.40409e-01,9.99999e-01,9.99999e-01,9.97558e-01,7.42236e-01,9.99979e-01
5.699678720e-01,7.44570e-01,9.99999e-01,9.99999e-01,9.97322e-01,7.46619e-01,9.99931e-01
5.728177114e-01,7.48829e-01,9.99999e-01,9.99999e-01,9.97243e-01,7.50941e-01,9.99943e-01
5.756818000e-01,7.53260e-01,9.99999e-01,9.99999e-01,9.97463e-01,7.55201e-01,9.99964e-01
5.785602090e-01,7.57711e-01,9.99999e-01,9.99999e-01,9.97784e-01,7.59401e-01,9.99989e-01
5.814530100e-01,7.61843e-01,9.99999e-01,9.99999e-01,9.97780e-01,7.63541e-01,9.99994e-01
5.843602750e-01,7.65598e-01,9.99999e-01,9.99999e-01,9.97379e-01,7.67621e-01,9.99984e-01
5.872820764e-01,7.54280e-01,9.99999e-01,9.99999e-01,9.77657e-01,7.71641e-01,9.99839e-01
5.902184868e-01,7.54054e-01,9.99999e-01,9.99999e-01,9.72640e-01,7.75602e-01,9.99563e-01
5.931695792e-01,7.64135e-01,9.99999e-01,9.99999e-01,9.80698e-01,7.79505e-01,9.99574e-01
5.961354271e-01,7.66532e-01,9.99999e-01,9.99999e-01,9.78781e-01,7.83350e-01,9.99742e-01
5.991161043e-01,7.74841e-01,9.99999e-01,9.99999e-01,9.84452e-01,7.87137e-01,9.99924e-01
6.021116848e-01,7.83852e-01,9.99999e-01,9.99999e-01,9.91137e-01,7.90867e-01,9.99990e-01
6.051222432e-01,7.90969e-01,9.99999e-01,9.99999e-01,9.95504e-01,7.94541e-01,9.99998e-01
6.081478544e-01,7.96611e-01,9.99999e-01,9.99999e-01,9.98060e-01,7.98159e-01,9.99999e-01
6.111885937e-01,8.01062e-01,9.99999e-01,9.99999e-01,9.99176e-01,8.01721e-01,9.99999e-01
6.142445367e-01,8.04933e-01,9.99999e-01,9.99999e-01,9.99632e-01,8.05228e-01,9.99999e-01
6.173157594e-01,8.08518e-01,9.99999e-01,9.99999e-01,9.99797e-01,8.08681e-01,9.99999e-01
6.204023382e-01,8.11942e-01,9.99999e-01,9.99999e-01,9.99829e-01,8.12080e-01,9.99999e-01
6.235043498e-01,8.14824e-01,9.99999e-01,9.99999e-01,9.99262e-01,8.15426e-01,9.99997e-01
6.266218716e-01,8.15447e-01,9.99999e-01,9.99999e-01,9.96030e-01,8.18719e-01,9.99971e-01
6.297549810e-01,8.20717e-01,9.99999e-01,9.99999e-01,9.98542e-01,8.21960e-01,9.99943e-01
6.329037559e-01,8.22730e-01,9.99999e-01,9.99999e-01,9.97111e-01,8.25150e-01,9.99954e-01
6.360682746e-01,8.26239e-01,9.99999e-01,9.99999e-01,9.97552e-01,8.28288e-01,9.99973e-01
6.392486160e-01,8.28724e-01,9.99999e-01,9.99999e-01,9.96820e-01,8.31376e-01,9.99987e-01
6.424448591e-01,8.31222e-01,9.99999e-01,9.99999e-01,9.96192e-01,8.34414e-01,9.99980e-01
6.456570834e-01,8.21185e-01,9.99999e-01,9.99999e-01,9.80739e-01,8.37403e-01,9.99890e-01
6.488853688e-01,8.25897e-01,9.99999e-01,9.99999e-01,9.83109e-01,8.40343e-01,9.99693e-01
6.521297956e-01,8.30664e-01,9.99999e-01,9.99999e-01,9.85344e-01,8.43236e-01,9.99742e-01
6.553904446e-01,8.33649e-01,9.99999e-01,9.99999e-01,9.85496e-01,8.46080e-01,9.99806e-01
6.586673968e-01,8.38177e-01,9.99999e-01,9.99999e-01,9.87455e-01,8.48878e-01,9.99936e-01
6.619607338e-01,8.45426e-01,9.99999e-01,9.99999e-01,9.92728e-01,8.51630e-01,9.99986e-01
6.652705375e-01,8.50717e-01,9.99999e-01,9.99999e-01,9.95770e-01,8.54336e-01,9.99992e-01
6.685968902e-01,8.55312e-01,9.99999e-01,9.99999e-01,9.98035e-01,8.56997e-01,9.99998e-01
6.719398746e-01,8.58829e-01,9.99999e-01,9.99999e-01,9.99087e-01,8.59613e-01,9.99999e-01
6.752995740e-01,8.61761e-01,9.99999e-01,9.99999e-01,9.99508e-01,8.62185e-01,9.99999e-01
6.786760719e-01,8.64104e-01,9.99999e-01,9.99999e-01,9.99294e-01,8.64714e-01,9.99998e-01
6.820694522e-01,8.66145e-01,9.99999e-01,9.99999e-01,9.98788e-01,8.67201e-01,9.99993e-01
6.854797995e-01,8.68276e-01,9.99999e-01,9.99999e-01,9.98439e-01,8.69645e-01,9.99986e-01
6.889071985e-01,8.68784e-01,9.99999e-01,9.99999e-01,9.96290e-01,8.72047e-01,9.99965e-01
6.923517345e-01,8.22237e-01,9.99999e-01,9.99999e-01,9.40612e-01,8.74409e-01,9.99703e-01
6.958134932e-01,8.48157e-01,9.99999e-01,9.99999e-01,9.68055e-01,8.76730e-01,9.99331e-01
6.992925606e-01,8.52245e-01,9.99999e-01,9.99999e-01,9.70119e-01,8.79011e-01,9.99411e-01
7.027890234e-01,8.48197e-01,9.99999e-01,9.99999e-01,9.62923e-01,8.81253e-01,9.99548e-01
7.063029686e-01,8.55632e-01,9.99999e-01,9.99999e-01,9.68722e-01,8.83456e-01,9.99774e-01
7.098344834e-01,8.58900e-01,9.99999e-01,9.99999e-01,9.69956e-01,8.85621e-01,9.99866e-01
7.133836558e-01,8.52782e-01,9.99999e-01,9.99999e-01,9.60865e-01,8.87748e-01,9.99735e-01
7.169505741e-01,6.49099e-01,9.99999e-01,9.99999e-01,7.30974e-01,8.89839e-01,9.97923e-01
7.205353270e-01,7.58668e-01,9.99999e-01,9.99999e-01,8.53751e-01,8.91892e-01,9.96340e-01
7.241380036e-01,7.30573e-01,9.99999e-01,9.99999e-01,8.19888e-01,8.93910e-01,9.96815e-01
7.277586936e-01,7.46879e-01,9.99999e-01,9.99999e-01,8.35882e-01,8.95893e-01,9.97353e-01
7.313974871e-01,7.39020e-01,9.99999e-01,9.99999e-01,8.24107e-01,8.97840e-01,9.98788e-01
7.350544745e-01,8.08950e-01,9.99999e-01,9.99999e-01,8.99458e-01,8.99753e-01,9.99578e-01
7.387297469e-01,8.33516e-01,9.99999e-01,9.99999e-01,9.24630e-01,9.01633e-01,9.99806e-01
7.424233956e-01,8.69310e-01,9.99999e-01,9.99999e-01,9.62216e-01,9.03479e-01,9.99962e-01
7.461355126e-01,8.84429e-01,9.99999e-01,9.99999e-01,9.76960e-01,9.05292e-01,9.99992e-01
7.498661902e-01,8.97252e-01,9.99999e-01,9.99999e-01,9.89175e-01,9.07073e-01,9.99997e-01
7.536155211e-01,9.03997e-01,9.99999e-01,9.99999e-01,9.94692e-01,9.08822e-01,9.99998e-01
7.573835987e-01,9.08047e-01,9.99999e-01,9.99999e-01,9.97262e-01,9.10540e-01,9.99999e-01
7.611705167e-01,9.10675e-01,9.99999e-01,9.99999e-01,9.98298e-01,9.12227e-01,9.99999e-01
7.649763693e-01,9.12911e-01,9.99999e-01,9.99999e-01,9.98935e-01,9.13884e-01,9.99999e-01
7.688012511e-01,9.14833e-01,9.99999e-01,9.99999e-01,9.99259e-01,9.15511e-01,9.99999e-01
7.726452574e-01,9.16550e-01,9.99999e-01,9.99999e-01,9.99391e-01,9.17108e-01,9.99999e-01
7.765084837e-01,9.17888e-01,9.99999e-01,9.99999e-01,9.99141e-01,9.18677e-01,9.99998e-01
7.803910261e-01,9.16811e-01,9.99999e-01,9.99999e-01,9.96301e-01,9.20218e-01,9.99995e-01
7.842929812e-01,9.09871e-01,9.99999e-01,9.99999e-01,9.87156e-01,9.21730e-01,9.99975e-01
7.882144461e-01,8.98569e-01,9.99999e-01,9.99999e-01,9.73463e-01,9.23215e-01,9.99835e-01
7.921555184e-01,9.10785e-01,9.99999e-01,9.99999e-01,9.85292e-01,9.24673e-01,9.99681e-01
7.961162960e-01,9.02181e-01,9.99999e-01,9.99999e-01,9.74463e-01,9.26105e-01,9.99695e-01
8.000968774e-01,8.99696e-01,9.99999e-01,9.99999e-01,9.70326e-01,9.27510e-01,9.99675e-01
8.040973618e-01,9.01145e-01,9.99999e-01,9.99999e-01,9.70380e-01,9.28890e-01,9.99742e-01
8.081178486e-01,8.69814e-01,9.99999e-01,9.99999e-01,9.35262e-01,9.30244e-01,9.99758e-01
8.121584379e-01,7.06747e-01,9.99999e-01,9.99999e-01,7.59378e-01,9.31574e-01,9.99051e-01
8.162192301e-01,6.69127e-01,9.99999e-01,9.99999e-01,7.19833e-01,9.32879e-01,9.96439e-01
8.203003262e-01,7.96308e-01,9.99999e-01,9.99999e-01,8.55999e-01,9.34160e-01,9.95831e-01
8.244018279e-01,7.49982e-01,9.99999e-01,9.99999e-01,8.04430e-01,9.35418e-01,9.96681e-01
8.285238370e-01,7.67091e-01,9.99999e-01,9.99999e-01,8.21111e-01,9.36652e-01,9.97392e-01
8.326664562e-01,7.67518e-01,9.99999e-01,9.99999e-01,8.19252e-01,9.37863e-01,9.98920e-01
8.368297885e-01,8.12637e-01,9.99999e-01,9.99999e-01,8.65592e-01,9.39053e-01,9.99753e-01
8.410139374e-01,8.62551e-01,9.99999e-01,9.99999e-01,9.17525e-01,9.40220e-01,9.99855e-01
8.452190071e-01,9.02251e-01,9.99999e-01,9.99999e-01,9.58532e-01,9.41365e-01,9.99913e-01
8.494451021e-01,9.19611e-01,9.99999e-01,9.99999e-01,9.75792e-01,9.42489e-01,9.99930e-01
8.536923276e-01,9.29928e-01,9.99999e-01,9.99999e-01,9.85562e-01,9.43593e-01,9.99953e-01
8.579607893e-01,9.36270e-01,9.99999e-01,9.99999e-01,9.91113e-01,9.44675e-01,9.99987e-01
8.622505932e-01,9.40377e-01,9.99999e-01,9.99999e-01,9.94332e-01,9.45738e-01,9.99997e-01
8.665618462e-01,9.43471e-01,9.99999e-01,9.99999e-01,9.96504e-01,9.46781e-01,9.99998e-01
8.708946554e-01,9.44019e-01,9.99999e-01,9.99999e-01,9.96007e-01,9.47804e-01,9.99997e-01
8.752491287e-01,9.43733e-01,9.99999e-01,9.99999e-01,9.94656e-01,9.48808e-01,9.99993e-01
8.796253743e-01,9.42781e-01,9.99999e-01,9.99999e-01,9.92632e-01,9.49793e-01,9.99983e-01
8.840235012e-01,9.42709e-01,9.99999e-01,9.99999e-01,9.91581e-01,9.50760e-01,9.99948e-01
8.884436187e-01,9.23467e-01,9.99999e-01,9.99999e-01,9.70466e-01,9.51709e-01,9.99852e-01
8.928858368e-01,6.96522e-01,9.99999e-01,9.99999e-01,7.31768e-01,9.52640e-01,9.99153e-01
8.973502660e-01,5.46357e-01,9.99999e-01,9.99999e-01,5.75461e-01,9.53553e-01,9.95669e-01
9.018370173e-01,7.13429e-01,9.99999e-01,9.99999e-01,7.52593e-01,9.54449e-01,9.93200e-01
9.063462024e-01,7.40937e-01,9.99999e-01,9.99999e-01,7.80244e-01,9.55329e-01,9.94024e-01
9.108779334e-01,6.44530e-01,9.99999e-01,9.99999e-01,6.78270e-01,9.56192e-01,9.93791e-01
9.154323231e-01,6.09760e-01,9.99999e-01,9.99999e-01,6.40420e-01,9.57038e-01,9.94865e-01
9.200094847e-01,6.74924e-01,9.99999e-01,9.99999e-01,7.06642e-01,9.57868e-01,9.97122e-01
9.246095321e-01,5.77848e-01,9.99999e-01,9.99999e-01,6.04755e-01,9.58683e-01,9.96685e-01
9.292325798e-01,5.58988e-02,9.99999e-01,9.99999e-01,5.90183e-02,9.59482e-01,9.87137e-01
9.338787427e-01,1.78442e-02,9.99999e-01,9.99999e-01,1.96041e-02,9.60267e-01,9.47889e-01
9.385481364e-01,1.81859e-01,9.99999e-01,9.99999e-01,2.01668e-01,9.61036e-01,9.38332e-01
9.432408771e-01,1.13939e-01,9.99999e-01,9.99999e-01,1.25153e-01,9.61791e-01,9.46567e-01
9.479570815e-01,4.58600e-02,9.99999e-01,9.99999e-01,4.98228e-02,9.62531e-01,9.56291e-01
9.526968669e-01,8.90985e-02,9.99999e-01,9.99999e-01,9.50531e-02,9.63257e-01,9.73108e-01
9.574603512e-01,9.94604e-02,9.99999e-01,9.99999e-01,1.04616e-01,9.63970e-01,9.86248e-01
9.622476530e-01,1.43433e-01,9.99999e-01,9.99999e-01,1.50117e-01,9.64669e-01,9.90470e-01
9.670588912e-01,3.14950e-01,9.99999e-01,9.99999e-01,3.28396e-01,9.65354e-01,9.93473e-01
9.718941857e-01,4.59681e-01,9.99999e-01,9.99999e-01,4.78145e-01,9.66027e-01,9.95191e-01
9.767536566e-01,5.21021e-01,9.99999e-01,9.99999e-01,5.40965e-01,9.66687e-01,9.96322e-01
9.816374249e-01,6.08562e-01,9.99999e-01,9.99999e-01,6.29915e-01,9.67334e-01,9.98725e-01
9.865456120e-01,7.23317e-01,9.99999e-01,9.99999e-01,7.47450e-01,9.67969e-01,9.99734e-01
9.914783401e-01,8.08310e-01,9.99999e-01,9.99999e-01,8.34582e-01,9.68591e-01,9.99925e-01
9.964357318e-01,8.78183e-01,9.99999e-01,9.99999e-01,9.06127e-01,9.69202e-01,9.99956e-01
1.001417910e+00,9.14008e-01,9.99999e-01,9.99999e-01,9.42530e-01,9.69801e-01,9.99933e-01
1.006425000e+00,9.38149e-01,9.99999e-01,9.99999e-01,9.66866e-01,9.70389e-01,9.99905e-01
1.011457125e+00,9.50735e-01,9.99999e-01,9.99999e-01,9.79249e-01,9.70965e-01,9.99912e-01
1.016514411e+00,9.57760e-01,9.99999e-01,9.99999e-01,9.85886e-01,9.71530e-01,9.99938e-01
1.021596983e+00,9.61086e-01,9.99999e-01,9.99999e-01,9.88745e-01,9.72085e-01,9.99937e-01
1.026704968e+00,9.64047e-01,9.99999e-01,9.99999e-01,9.91217e-01,9.72628e-01,9.99958e-01
1.031838492e+00,9.66919e-01,9.99999e-01,9.99999e-01,9.93595e-01,9.73162e-01,9.99988e-01
1.036997685e+00,9.69984e-01,9.99999e-01,9.99999e-01,9.96200e-01,9.73685e-01,9.99997e-01
1.042182673e+00,9.69801e-01,9.99999e-01,9.99999e-01,9.95487e-01,9.74198e-01,9.99998e-01
1.047393587e+00,9.68861e-01,9.99999e-01,9.99999e-01,9.94009e-01,9.74701e-01,9.99998e-01
1.052630555e+00,9.67195e-01,9.99999e-01,9.99999e-01,9.91798e-01,9.75194e-01,9.99997e-01
1.057893707e+00,9.62376e-01,9.99999e-01,9.99999e-01,9.86370e-01,9.75678e-01,9.99994e-01
1.063183176e+00,9.54330e-01,9.99999e-01,9.99999e-01,9.77655e-01,9.76153e-01,9.99987e-01
1.068499092e+00,9.40303e-01,9.99999e-01,9.99999e-01,9.62838e-01,9.76618e-01,9.99973e-01
1.073841587e+00,9.34854e-01,9.99999e-01,9.99999e-01,9.56841e-01,9.77075e-01,9.99943e-01
1.079210795e+00,9.23382e-01,9.99999e-01,9.99999e-01,9.44757e-01,9.77523e-01,9.99848e-01
1.084606849e+00,8.97343e-01,9.99999e-01,9.99999e-01,9.17898e-01,9.77962e-01,9.99635e-01
1.090029883e+00,8.65611e-01,9.99999e-01,9.99999e-01,8.85396e-01,9.78392e-01,9.99244e-01
1.095480033e+00,7.01705e-01,9.99999e-01,9.99999e-01,7.17873e-01,9.78814e-01,9.98633e-01
1.100957433e+00,4.30121e-01,9.99999e-01,9.99999e-01,4.40351e-01,9.79228e-01,9.97486e-01
1.106462220e+00,1.41696e-01,9.99999e-01,9.99999e-01,1.45260e-01,9.79635e-01,9.95739e-01
1.111994531e+00,1.91088e-02,9.99999e-01,9.99999e-01,1.97203e-02,9.80033e-01,9.88730e-01
1.117554504e+00,2.45593e-03,9.99999e-01,9.99999e-01,2.60960e-03,9.80423e-01,9.59907e-01
1.123142276e+00,1.66514e-02,9.99999e-01,9.99999e-01,1.87072e-02,9.80806e-01,9.07524e-01
1.128757988e+00,4.66696e-02,9.99999e-01,9.99999e-01,5.32151e-02,9.81182e-01,8.93817e-01
1.134401778e+00,2.26607e-02,9.99999e-01,9.99999e-01,2.54562e-02,9.81550e-01,9.06913e-01
1.140073787e+00,1.38611e-01,9.99999e-01,9.99999e-01,1.52661e-01,9.81911e-01,9.24693e-01
1.145774156e+00,2.95147e-02,9.99999e-01,9.99999e-01,3.22201e-02,9.82265e-01,9.32573e-01
1.151503026e+00,1.99948e-02,9.99999e-01,9.99999e-01,2.11555e-02,9.82612e-01,9.61857e-01
1.157260541e+00,2.61386e-02,9.99999e-01,9.99999e-01,2.69028e-02,9.82953e-01,9.88439e-01
1.163046844e+00,6.54151e-02,9.99999e-01,9.99999e-01,6.67465e-02,9.83287e-01,9.96709e-01
1.168862078e+00,1.35765e-01,9.99999e-01,9.99999e-01,1.38261e-01,9.83614e-01,9.98303e-01
1.174706389e+00,2.86141e-01,9.99999e-01,9.99999e-01,2.91468e-01,9.83935e-01,9.97751e-01
1.180579921e+00,4.58104e-01,9.99999e-01,9.99999e-01,4.67021e-01,9.84250e-01,9.96602e-01
1.186482820e+00,6.33730e-01,9.99999e-01,9.99999e-01,6.45920e-01,9.84559e-01,9.96512e-01
1.192415234e+00,7.59995e-01,9.99999e-01,9.99999e-01,7.73697e-01,9.84861e-01,9.97387e-01
1.198377311e+00,7.92132e-01,9.99999e-01,9.99999e-01,8.06054e-01,9.85158e-01,9.97532e-01
1.204369197e+00,8.02835e-01,9.99999e-01,9.99999e-01,8.16512e-01,9.85449e-01,9.97766e-01
1.210391043e+00,8.10146e-01,9.99999e-01,9.99999e-01,8.22988e-01,9.85734e-01,9.98640e-01
1.216442998e+00,8.34430e-01,9.99999e-01,9.99999e-01,8.46970e-01,9.86014e-01,9.99167e-01
1.222525213e+00,8.65840e-01,9.99999e-01,9.99999e-01,8.78330e-01,9.86288e-01,9.99482e-01
1.228637839e+00,9.01329e-01,9.99999e-01,9.99999e-01,9.13829e-01,9.86557e-01,9.99759e-01
