#,Wave/freq,Total,N2,O2,H2O,Rayleigh,CIA
4.000000000e-01,5.74505e-01,9.99999e-01,9.99999e-01,9.99937e-01,5.74541e-01,9.99999e-01
4.020000000e-01,5.80848e-01,9.99999e-01,9.99999e-01,9.99960e-01,5.80871e-01,9.99999e-01
4.040100000e-01,5.87128e-01,9.99999e-01,9.99999e-01,9.99983e-01,5.87137e-01,9.99999e-01
4.060300500e-01,5.93343e-01,9.99999e-01,9.99999e-01,9.99995e-01,5.93345e-01,9.99999e-01
4.080602003e-01,5.99494e-01,9.99999e-01,9.99999e-01,9.99998e-01,5.99495e-01,9.99999e-01
4.101005013e-01,6.05584e-01,9.99999e-01,9.99999e-01,9.99999e-01,6.05584e-01,9.99999e-01
4.121510038e-01,6.11612e-01,9.99999e-01,9.99999e-01,9.99997e-01,6.11614e-01,9.99999e-01
4.142117588e-01,6.17572e-01,9.99999e-01,9.99999e-01,9.99982e-01,6.17582e-01,9.99999e-01
4.162828176e-01,6.23441e-01,9.99999e-01,9.99999e-01,9.99922e-01,6.23489e-01,9.99999e-01
4.183642317e-01,6.29306e-01,9.99999e-01,9.99999e-01,9.99953e-01,6.29335e-01,9.99999e-01
4.204560528e-01,6.35100e-01,9.99999e-01,9.99999e-01,9.99971e-01,6.35118e-01,9.99999e-01
4.225583331e-01,6.40832e-01,9.99999e-01,9.99999e-01,9.99988e-01,6.40838e-01,9.99999e-01
4.246711247e-01,6.46490e-01,9.99999e-01,9.99999e-01,9.99991e-01,6.46496e-01,9.99999e-01
4.267944804e-01,6.52082e-01,9.99999e-01,9.99999e-01,9.99987e-01,6.52090e-01,9.99999e-01
4.289284528e-01,6.57614e-01,9.99999e-01,9.99999e-01,9.99989e-01,6.57620e-01,9.99999e-01
4.310730950e-01,6.63085e-01,9.99999e-01,9.99999e-01,9.99995e-01,6.63087e-01,9.99999e-01
4.332284605e-01,6.68490e-01,9.99999e-01,9.99999e-01,9.99998e-01,6.68490e-01,9.99999e-01
4.353946028e-01,6.73829e-01,9.99999e-01,9.99999e-01,9.99999e-01,6.73829e-01,9.99999e-01
4.375715758e-01,6.79099e-01,9.99999e-01,9.99999e-01,9.99991e-01,6.79104e-01,9.99999e-01
4.397594337e-01,6.84269e-01,9.99999e-01,9.99999e-01,9.99931e-01,6.84315e-01,9.99999e-01
4.419582309e-01,6.89224e-01,9.99999e-01,9.99999e-01,9.99654e-01,6.89462e-01,9.99999e-01
4.441680220e-01,6.94357e-01,9.99999e-01,9.99999e-01,9.99730e-01,6.94544e-01,9.99999e-01
4.463888621e-01,6.99367e-01,9.99999e-01,9.99999e-01,9.99719e-01,6.99563e-01,9.99999e-01
4.486208064e-01,7.04395e-01,9.99999e-01,9.99999e-01,9.99825e-01,7.04518e-01,9.99999e-01
4.508639105e-01,7.09351e-01,9.99999e-01,9.99999e-01,9.99917e-01,7.09409e-01,9.99999e-01
4.531182300e-01,7.14213e-01,9.99999e-01,9.99999e-01,9.99967e-01,7.14236e-01,9.99999e-01
4.553838212e-01,7.18984e-01,9.99999e-01,9.99999e-01,9.99977e-01,7.18999e-01,9.99999e-01
4.576607403e-01,7.23693e-01,9.99999e-01,9.99999e-01,9.99989e-01,7.23700e-01,9.99999e-01
4.599490440e-01,7.28332e-01,9.99999e-01,9.99999e-01,9.99992e-01,7.28337e-01,9.99999e-01
4.622487892e-01,7.32911e-01,9.99999e-01,9.99999e-01,9.99998e-01,7.32912e-01,9.99999e-01
4.645600332e-01,7.37421e-01,9.99999e-01,9.99999e-01,9.99994e-01,7.37424e-01,9.99999e-01
4.668828333e-01,7.41813e-01,9.99999e-01,9.99999e-01,9.99917e-01,7.41874e-01,9.99999e-01
4.692172475e-01,7.46131e-01,9.99999e-01,9.99999e-01,9.99823e-01,7.46262e-01,9.99999e-01
4.715633337e-01,7.50503e-01,9.99999e-01,9.99999e-01,9.99884e-01,7.50589e-01,9.99999e-01
4.739211504e-01,7.54772e-01,9.99999e-01,9.99999e-01,9.99889e-01,7.54855e-01,9.99999e-01
4.762907561e-01,7.59016e-01,9.99999e-01,9.99999e-01,9.99942e-01,7.59060e-01,9.99999e-01
4.786722099e-01,7.63186e-01,9.99999e-01,9.99999e-01,9.99976e-01,7.63204e-01,9.99999e-01
4.810655710e-01,7.67283e-01,9.99999e-01,9.99999e-01,9.99992e-01,7.67289e-01,9.99999e-01
4.834708988e-01,7.71262e-01,9.99999e-01,9.99999e-01,9.99932e-01,7.71314e-01,9.99999e-01
4.858882533e-01,7.75184e-01,9.99999e-01,9.99999e-01,9.99875e-01,7.75280e-01,9.99999e-01
4.883176946e-01,7.79107e-01,9.99999e-01,9.99999e-01,9.99895e-01,7.79188e-01,9.99999e-01
4.907592831e-01,7.82964e-01,9.99999e-01,9.99999e-01,9.99905e-01,7.83037e-01,9.99999e-01
4.932130795e-01,7.86777e-01,9.99999e-01,9.99999e-01,9.99932e-01,7.86829e-01,9.99999e-01
4.956791449e-01,7.90536e-01,9.99999e-01,9.99999e-01,9.99964e-01,7.90564e-01,9.99999e-01
4.981575406e-01,7.94102e-01,9.99999e-01,9.99999e-01,9.99822e-01,7.94242e-01,9.99999e-01
5.006483283e-01,7.97496e-01,9.99999e-01,9.99999e-01,9.99541e-01,7.97865e-01,9.99996e-01
5.031515699e-01,7.99551e-01,9.99999e-01,9.99999e-01,9.97677e-01,8.01431e-01,9.99975e-01
5.056673278e-01,8.03934e-01,9.99999e-01,9.99999e-01,9.98773e-01,8.04943e-01,9.99971e-01
5.081956644e-01,8.07136e-01,9.99999e-01,9.99999e-01,9.98453e-01,8.08401e-01,9.99981e-01
5.107366428e-01,8.10954e-01,9.99999e-01,9.99999e-01,9.98955e-01,8.11804e-01,9.99996e-01
5.132903260e-01,8.14667e-01,9.99999e-01,9.99999e-01,9.99402e-01,8.15154e-01,9.99999e-01
5.158567776e-01,8.18245e-01,9.99999e-01,9.99999e-01,9.99747e-01,8.18452e-01,9.99999e-01
5.184360615e-01,8.21614e-01,9.99999e-01,9.99999e-01,9.99898e-01,8.21697e-01,9.99999e-01
5.210282418e-01,8.24859e-01,9.99999e-01,9.99999e-01,9.99961e-01,8.24890e-01,9.99999e-01
5.236333830e-01,8.27907e-01,9.99999e-01,9.99999e-01,9.99848e-01,8.28033e-01,9.99998e-01
5.262515499e-01,8.31045e-01,9.99999e-01,9.99999e-01,9.99904e-01,8.31125e-01,9.99998e-01
5.288828077e-01,8.34094e-01,9.99999e-01,9.99999e-01,9.99912e-01,8.34167e-01,9.99998e-01
5.315272217e-01,8.37096e-01,9.99999e-01,9.99999e-01,9.99923e-01,8.37160e-01,9.99999e-01
5.341848578e-01,8.40062e-01,9.99999e-01,9.99999e-01,9.99949e-01,8.40104e-01,9.99999e-01
5.368557821e-01,8.42852e-01,9.99999e-01,9.99999e-01,9.99823e-01,8.43001e-01,9.99999e-01
5.395400610e-01,8.45306e-01,9.99999e-01,9.99999e-01,9.99363e-01,8.45849e-01,9.99994e-01
5.422377613e-01,8.47941e-01,9.99999e-01,9.99999e-01,9.99177e-01,8.48651e-01,9.99984e-01
5.449489501e-01,8.50742e-01,9.99999e-01,9.99999e-01,9.99234e-01,8.51406e-01,9.99984e-01
5.476736949e-01,8.53531e-01,9.99999e-01,9.99999e-01,9.99322e-01,8.54116e-01,9.99991e-01
5.504120634e-01,8.56358e-01,9.99999e-01,9.99999e-01,9.99508e-01,8.56780e-01,9.99997e-01
5.531641237e-01,8.59188e-01,9.99999e-01,9.99999e-01,9.99752e-01,8.59400e-01,9.99999e-01
5.559299443e-01,8.61873e-01,9.99999e-01,9.99999e-01,9.99880e-01,8.61976e-01,9.99999e-01
5.587095940e-01,8.64444e-01,9.99999e-01,9.99999e-01,9.99924e-01,8.64509e-01,9.99999e-01
5.615031420e-01,8.66926e-01,9.99999e-01,9.99999e-01,9.99916e-01,8.66999e-01,9.99999e-01
5.643106577e-01,8.69363e-01,9.99999e-01,9.99999e-01,9.99905e-01,8.69446e-01,9.99998e-01
5.671322110e-01,8.70841e-01,9.99999e-01,9.99999e-01,9.98850e-01,8.71852e-01,9.99989e-01
5.699678720e-01,8.73122e-01,9.99999e-01,9.99999e-01,9.98778e-01,8.74217e-01,9.99968e-01
5.728177114e-01,8.75403e-01,9.99999e-01,9.99999e-01,9.98727e-01,8.76541e-01,9.99973e-01
5.756818000e-01,8.77786e-01,9.99999e-01,9.99999e-01,9.98831e-01,8.78826e-01,9.99983e-01
5.785602090e-01,8.80170e-01,9.99999e-01,9.99999e-01,9.98981e-01,8.81071e-01,9.99994e-01
5.814530100e-01,8.82372e-01,9.99999e-01,9.99999e-01,9.98977e-01,8.83277e-01,9.99997e-01
5.843602750e-01,8.84360e-01,9.99999e-01,9.99999e-01,9.98780e-01,8.85445e-01,9.99992e-01
5.872820764e-01,8.78233e-01,9.99999e-01,9.99999e-01,9.89546e-01,8.87575e-01,9.99925e-01
5.902184868e-01,8.78226e-01,9.99999e-01,9.99999e-01,9.87335e-01,8.89669e-01,9.99798e-01
5.931695792e-01,8.83569e-01,9.99999e-01,9.99999e-01,9.91044e-01,8.91726e-01,9.99806e-01
5.961354271e-01,8.84874e-01,9.99999e-01,9.99999e-01,9.90182e-01,8.93746e-01,9.99888e-01
5.991161043e-01,8.89279e-01,9.99999e-01,9.99999e-01,9.92830e-01,8.95732e-01,9.99965e-01
6.021116848e-01,8.94022e-01,9.99999e-01,9.99999e-01,9.95925e-01,8.97682e-01,9.99995e-01
6.051222432e-01,8.97742e-01,9.99999e-01,9.99999e-01,9.97936e-01,8.99598e-01,9.99999e-01
6.081478544e-01,9.00678e-01,9.99999e-01,9.99999e-01,9.99109e-01,9.01480e-01,9.99999e-01
6.111885937e-01,9.02989e-01,9.99999e-01,9.99999e-01,9.99623e-01,9.03329e-01,9.99999e-01
6.142445367e-01,9.04992e-01,9.99999e-01,9.99999e-01,9.99831e-01,9.05145e-01,9.99999e-01
6.173157594e-01,9.06844e-01,9.99999e-01,9.99999e-01,9.99906e-01,9.06928e-01,9.99999e-01
6.204023382e-01,9.08608e-01,9.99999e-01,9.99999e-01,9.99921e-01,9.08680e-01,9.99999e-01
6.235043498e-01,9.10085e-01,9.99999e-01,9.99999e-01,9.99653e-01,9.10400e-01,9.99998e-01
6.266218716e-01,9.10409e-01,9.99999e-01,9.99999e-01,9.98169e-01,9.12090e-01,9.99986e-01
6.297549810e-01,9.13112e-01,9.99999e-01,9.99999e-01,9.99328e-01,9.13749e-01,9.99973e-01
6.329037559e-01,9.14145e-01,9.99999e-01,9.99999e-01,9.98672e-01,9.15379e-01,9.99978e-01
6.360682746e-01,9.15931e-01,9.99999e-01,9.99999e-01,9.98869e-01,9.16979e-01,9.99987e-01
6.392486160e-01,9.17200e-01,9.99999e-01,9.99999e-01,9.98535e-01,9.18550e-01,9.99994e-01
6.424448591e-01,9.18282e-01,9.99999e-01,9.99999e-01,9.98040e-01,9.20093e-01,9.99990e-01
6.456570834e-01,9.13204e-01,9.99999e-01,9.99999e-01,9.90931e-01,9.21607e-01,9.99949e-01
6.488853688e-01,9.16833e-01,9.99999e-01,9.99999e-01,9.93356e-01,9.23095e-01,9.99858e-01
6.521297956e-01,9.18189e-01,9.99999e-01,9.99999e-01,9.93230e-01,9.24555e-01,9.99883e-01
6.553904446e-01,9.19664e-01,9.99999e-01,9.99999e-01,9.93255e-01,9.25988e-01,9.99912e-01
6.586673968e-01,9.22013e-01,9.99999e-01,9.99999e-01,9.94223e-01,9.27396e-01,9.99970e-01
6.619607338e-01,9.25779e-01,9.99999e-01,9.99999e-01,9.96776e-01,9.28778e-01,9.99993e-01
6.652705375e-01,9.28331e-01,9.99999e-01,9.99999e-01,9.98064e-01,9.30134e-01,9.99996e-01
6.685968902e-01,9.30627e-01,9.99999e-01,9.99999e-01,9.99100e-01,9.31466e-01,9.99998e-01
6.719398746e-01,9.32384e-01,9.99999e-01,9.99999e-01,9.99582e-01,9.32773e-01,9.99999e-01
6.752995740e-01,9.33845e-01,9.99999e-01,9.99999e-01,9.99773e-01,9.34056e-01,9.99999e-01
6.786760719e-01,9.35010e-01,9.99999e-01,9.99999e-01,9.99673e-01,9.35315e-01,9.99999e-01
6.820694522e-01,9.36026e-01,9.99999e-01,9.99999e-01,9.99441e-01,9.36552e-01,9.99996e-01
6.854797995e-01,9.37084e-01,9.99999e-01,9.99999e-01,9.99279e-01,9.37765e-01,9.99993e-01
6.889071985e-01,9.37304e-01,9.99999e-01,9.99999e-01,9.98256e-01,9.38956e-01,9.99983e-01
6.923517345e-01,9.13594e-01,9.99999e-01,9.99999e-01,9.71911e-01,9.40125e-01,9.99863e-01
6.958134932e-01,9.27172e-01,9.99999e-01,9.99999e-01,9.85317e-01,9.41272e-01,9.99697e-01
6.992925606e-01,9.28967e-01,9.99999e-01,9.99999e-01,9.86016e-01,9.42398e-01,9.99727e-01
7.027890234e-01,9.27048e-01,9.99999e-01,9.99999e-01,9.82762e-01,9.43503e-01,9.99791e-01
7.063029686e-01,9.30779e-01,9.99999e-01,9.99999e-01,9.85482e-01,9.44587e-01,9.99896e-01
7.098344834e-01,9.32417e-01,9.99999e-01,9.99999e-01,9.86064e-01,9.45652e-01,9.99938e-01
7.133836558e-01,9.29060e-01,9.99999e-01,9.99999e-01,9.81489e-01,9.46696e-01,9.99877e-01
7.169505741e-01,8.15896e-01,9.99999e-01,9.99999e-01,8.61727e-01,9.47721e-01,9.99043e-01
7.205353270e-01,8.80428e-01,9.99999e-01,9.99999e-01,9.29577e-01,9.48727e-01,9.98312e-01
7.241380036e-01,8.64146e-01,9.99999e-01,9.99999e-01,9.11229e-01,9.49713e-01,9.98542e-01
7.277586936e-01,8.73168e-01,9.99999e-01,9.99999e-01,9.19560e-01,9.50682e-01,9.98808e-01
7.313974871e-01,8.69754e-01,9.99999e-01,9.99999e-01,9.14470e-01,9.51632e-01,9.99441e-01
7.350544745e-01,9.06923e-01,9.99999e-01,9.99999e-01,9.52270e-01,9.52564e-01,9.99805e-01
7.387297469e-01,9.19652e-01,9.99999e-01,9.99999e-01,9.64608e-01,9.53479e-01,9.99910e-01
7.424233956e-01,9.37677e-01,9.99999e-01,9.99999e-01,9.82518e-01,9.54377e-01,9.99982e-01
7.461355126e-01,9.45100e-01,9.99999e-01,9.99999e-01,9.89368e-01,9.55257e-01,9.99996e-01
7.498661902e-01,9.51376e-01,9.99999e-01,9.99999e-01,9.95037e-01,9.56121e-01,9.99998e-01
7.536155211e-01,9.54637e-01,9.99999e-01,9.99999e-01,9.97562e-01,9.56969e-01,9.99998e-01
7.573835987e-01,9.56599e-01,9.99999e-01,9.99999e-01,9.98744e-01,9.57801e-01,9.99999e-01
7.611705167e-01,9.57870e-01,9.99999e-01,9.99999e-01,9.99219e-01,9.58617e-01,9.99999e-01
7.649763693e-01,9.58949e-01,9.99999e-01,9.99999e-01,9.99510e-01,9.59418e-01,9.99999e-01
7.688012511e-01,9.59876e-01,9.99999e-01,9.99999e-01,9.99659e-01,9.60203e-01,9.99999e-01
7.726452574e-01,9.60704e-01,9.99999e-01,9.99999e-01,9.99719e-01,9.60974e-01,9.99999e-01
7.765084837e-01,9.61346e-01,9.99999e-01,9.99999e-01,9.99601e-01,9.61729e-01,9.99999e-01
7.803910261e-01,9.60814e-01,9.99999e-01,9.99999e-01,9.98279e-01,9.62471e-01,9.99997e-01
7.842929812e-01,9.57416e-01,9.99999e-01,9.99999e-01,9.94007e-01,9.63198e-01,9.99988e-01
7.882144461e-01,9.51975e-01,9.99999e-01,9.99999e-01,9.87690e-01,9.63912e-01,9.99923e-01
7.921555184e-01,9.57947e-01,9.99999e-01,9.99999e-01,9.93235e-01,9.64612e-01,9.99853e-01
7.961162960e-01,9.53651e-01,9.99999e-01,9.99999e-01,9.88071e-01,9.65299e-01,9.99859e-01
8.000968774e-01,9.52524e-01,9.99999e-01,9.99999e-01,9.86224e-01,9.65972e-01,9.99850e-01
8.040973618e-01,9.53204e-01,9.99999e-01,9.99999e-01,9.86223e-01,9.66633e-01,9.99881e-01
8.081178486e-01,9.37437e-01,9.99999e-01,9.99999e-01,9.69253e-01,9.67281e-01,9.99888e-01
8.121584379e-01,8.49956e-01,9.99999e-01,9.99999e-01,8.78511e-01,9.67917e-01,9.99562e-01
8.162192301e-01,8.29392e-01,9.99999e-01,9.99999e-01,8.57738e-01,9.68541e-01,9.98358e-01
8.203003262e-01,8.97109e-01,9.99999e-01,9.99999e-01,9.27445e-01,9.69152e-01,9.98078e-01
8.244018279e-01,8.72241e-01,9.99999e-01,9.99999e-01,9.00824e-01,9.69752e-01,9.98470e-01
8.285238370e-01,8.84039e-01,9.99999e-01,9.99999e-01,9.12155e-01,9.70341e-01,9.98798e-01
8.326664562e-01,8.84424e-01,9.99999e-01,9.99999e-01,9.11367e-01,9.70918e-01,9.99502e-01
8.368297885e-01,9.08829e-01,9.99999e-01,9.99999e-01,9.35611e-01,9.71484e-01,9.99885e-01
8.410139374e-01,9.34260e-01,9.99999e-01,9.99999e-01,9.61196e-01,9.72040e-01,9.99933e-01
8.452190071e-01,9.53846e-01,9.99999e-01,9.99999e-01,9.80771e-01,9.72584e-01,9.99959e-01
8.494451021e-01,9.62186e-01,9.99999e-01,9.99999e-01,9.88796e-01,9.73118e-01,9.99967e-01
8.536923276e-01,9.67161e-01,9.99999e-01,9.99999e-01,9.93361e-01,9.73642e-01,9.99980e-01
8.579607893e-01,9.70165e-01,9.99999e-01,9.99999e-01,9.95906e-01,9.74156e-01,9.99994e-01
8.622505932e-01,9.72124e-01,9.99999e-01,9.99999e-01,9.97398e-01,9.74660e-01,9.99998e-01
8.665618462e-01,9.73584e-01,9.99999e-01,9.99999e-01,9.98389e-01,9.75154e-01,9.99999e-01
8.708946554e-01,9.73840e-01,9.99999e-01,9.99999e-01,9.98156e-01,9.75639e-01,9.99998e-01
8.752491287e-01,9.73706e-01,9.99999e-01,9.99999e-01,9.97534e-01,9.76114e-01,9.99996e-01
8.796253743e-01,9.73240e-01,9.99999e-01,9.99999e-01,9.96586e-01,9.76581e-01,9.99991e-01
8.840235012e-01,9.73207e-01,9.99999e-01,9.99999e-01,9.96101e-01,9.77038e-01,9.99975e-01
8.884436187e-01,9.63627e-01,9.99999e-01,9.99999e-01,9.85888e-01,9.77486e-01,9.99931e-01
8.928858368e-01,8.42595e-01,9.99999e-01,9.99999e-01,8.61950e-01,9.77926e-01,9.99609e-01
8.973502660e-01,7.51571e-01,9.99999e-01,9.99999e-01,7.69732e-01,9.78357e-01,9.98003e-01
9.018370173e-01,8.53762e-01,9.99999e-01,9.99999e-01,8.75015e-01,9.78780e-01,9.96862e-01
9.063462024e-01,8.67854e-01,9.99999e-01,9.99999e-01,8.88741e-01,9.79195e-01,9.97243e-01
9.108779334e-01,8.12826e-01,9.99999e-01,9.99999e-01,8.32133e-01,9.79602e-01,9.97135e-01
9.154323231e-01,7.92990e-01,9.99999e-01,9.99999e-01,8.11093e-01,9.80000e-01,9.97632e-01
9.200094847e-01,8.31414e-01,9.99999e-01,9.99999e-01,8.49168e-01,9.80392e-01,9.98673e-01
9.246095321e-01,7.64153e-01,9.99999e-01,9.99999e-01,7.80323e-01,9.80775e-01,9.98472e-01
9.292325798e-01,2.03813e-01,9.99999e-01,9.99999e-01,2.08970e-01,9.81151e-01,9.94056e-01
9.338787427e-01,1.26778e-01,9.99999e-01,9.99999e-01,1.32387e-01,9.81520e-01,9.75657e-01
9.385481364e-01,4.18346e-01,9.99999e-01,9.99999e-01,4.38738e-01,9.81882e-01,9.71114e-01
9.432408771e-01,3.17444e-01,9.99999e-01,9.99999e-01,3.31461e-01,9.82236e-01,9.75030e-01
9.479570815e-01,2.09343e-01,9.99999e-01,9.99999e-01,2.17483e-01,9.82584e-01,9.79630e-01
9.526968669e-01,2.98029e-01,9.99999e-01,9.99999e-01,3.07036e-01,9.82925e-01,9.87525e-01
9.574603512e-01,3.17240e-01,9.99999e-01,9.99999e-01,3.24704e-01,9.83260e-01,9.93643e-01
9.622476530e-01,3.86196e-01,9.99999e-01,9.99999e-01,3.94375e-01,9.83588e-01,9.95600e-01
9.670588912e-01,5.70901e-01,9.99999e-01,9.99999e-01,5.81989e-01,9.83909e-01,9.96988e-01
9.718941857e-01,6.94383e-01,9.99999e-01,9.99999e-01,7.07079e-01,9.84224e-01,9.97782e-01
9.767536566e-01,7.36784e-01,9.99999e-01,9.99999e-01,7.49629e-01,9.84534e-01,9.98304e-01
9.816374249e-01,7.94228e-01,9.99999e-01,9.99999e-01,8.06929e-01,9.84837e-01,9.99412e-01
9.865456120e-01,8.61142e-01,9.99999e-01,9.99999e-01,8.74243e-01,9.85134e-01,9.99877e-01
9.914783401e-01,9.06691e-01,9.99999e-01,9.99999e-01,9.20131e-01,9.85425e-01,9.99965e-01
9.964357318e-01,9.42004e-01,9.99999e-01,9.99999e-01,9.55677e-01,9.85711e-01,9.99979e-01
1.001417910e+00,9.59523e-01,9.99999e-01,9.99999e-01,9.73184e-01,9.85991e-01,9.99969e-01
1.006425000e+00,9.71058e-01,9.99999e-01,9.99999e-01,9.84621e-01,9.86266e-01,9.99956e-01
1.011457125e+00,9.77056e-01,9.99999e-01,9.99999e-01,9.90429e-01,9.86536e-01,9.99959e-01
1.016514411e+00,9.80351e-01,9.99999e-01,9.99999e-01,9.93492e-01,9.86800e-01,9.99971e-01
1.021596983e+00,9.81910e-01,9.99999e-01,9.99999e-01,9.94811e-01,9.87059e-01,9.99971e-01
1.026704968e+00,9.83297e-01,9.99999e-01,9.99999e-01,9.95951e-01,9.87313e-01,9.99980e-01
1.031838492e+00,9.84650e-01,9.99999e-01,9.99999e-01,9.97056e-01,9.87562e-01,9.99994e-01
1.036997685e+00,9.86078e-01,9.99999e-01,9.99999e-01,9.98250e-01,9.87806e-01,9.99998e-01
1.042182673e+00,9.85985e-01,9.99999e-01,9.99999e-01,9.97914e-01,9.88045e-01,9.99999e-01
1.047393587e+00,9.85547e-01,9.99999e-01,9.99999e-01,9.97234e-01,9.88280e-01,9.99998e-01
1.052630555e+00,9.84761e-01,9.99999e-01,9.99999e-01,9.96207e-01,9.88510e-01,9.99998e-01
1.057893707e+00,9.82481e-01,9.99999e-01,9.99999e-01,9.93675e-01,9.88736e-01,9.99997e-01
1.063183176e+00,9.78681e-01,9.99999e-01,9.99999e-01,9.89614e-01,9.88957e-01,9.99994e-01
1.068499092e+00,9.72022e-01,9.99999e-01,9.99999e-01,9.82670e-01,9.89174e-01,9.99987e-01
1.073841587e+00,9.69342e-01,9.99999e-01,9.99999e-01,9.79765e-01,9.89387e-01,9.99973e-01
1.079210795e+00,9.63927e-01,9.99999e-01,9.99999e-01,9.74129e-01,9.89595e-01,9.99929e-01
1.084606849e+00,9.51160e-01,9.99999e-01,9.99999e-01,9.61122e-01,9.89800e-01,9.99831e-01
1.090029883e+00,9.34940e-01,9.99999e-01,9.99999e-01,9.44712e-01,9.90000e-01,9.99651e-01
1.095480033e+00,8.47629e-01,9.99999e-01,9.99999e-01,8.56559e-01,9.90197e-01,9.99370e-01
1.100957433e+00,6.69987e-01,9.99999e-01,9.99999e-01,6.77272e-01,9.90389e-01,9.98841e-01
1.106462220e+00,3.79684e-01,9.99999e-01,9.99999e-01,3.84049e-01,9.90578e-01,9.98035e-01
1.111994531e+00,1.38154e-01,9.99999e-01,9.99999e-01,1.40172e-01,9.90764e-01,9.94794e-01
1.117554504e+00,4.46117e-02,9.99999e-01,9.99999e-01,4.58756e-02,9.90945e-01,9.81334e-01
1.123142276e+00,1.13670e-01,9.99999e-01,9.99999e-01,1.19929e-01,9.91123e-01,9.56301e-01
1.128757988e+00,2.17165e-01,9.99999e-01,9.99999e-01,2.30693e-01,9.91298e-01,9.49622e-01
1.134401778e+00,9.74299e-02,9.99999e-01,9.99999e-01,1.02684e-01,9.91469e-01,9.56999e-01
1.140073787e+00,3.84387e-01,9.99999e-01,9.99999e-01,4.01482e-01,9.91637e-01,9.65491e-01
1.145774156e+00,1.60112e-01,9.99999e-01,9.99999e-01,1.66710e-01,9.91801e-01,9.68365e-01
1.151503026e+00,1.34818e-01,9.99999e-01,9.99999e-01,1.38366e-01,9.91962e-01,9.82251e-01
1.157260541e+00,1.69490e-01,9.99999e-01,9.99999e-01,1.71753e-01,9.92121e-01,9.94659e-01
1.163046844e+00,2.66170e-01,9.99999e-01,9.99999e-01,2.68649e-01,9.92276e-01,9.98483e-01
1.168862078e+00,3.88057e-01,9.99999e-01,9.99999e-01,3.91323e-01,9.92428e-01,9.99218e-01
1.174706389e+00,5.54799e-01,9.99999e-01,9.99999e-01,5.59527e-01,9.92577e-01,9.98963e-01
1.180579921e+00,6.94630e-01,9.99999e-01,9.99999e-01,7.00819e-01,9.92723e-01,9.98433e-01
1.186482820e+00,8.09800e-01,9.99999e-01,9.99999e-01,8.16931e-01,9.92866e-01,9.98392e-01
1.192415234e+00,8.81160e-01,9.99999e-01,9.99999e-01,8.88435e-01,9.93006e-01,9.98795e-01
1.198377311e+00,8.97916e-01,9.99999e-01,9.99999e-01,9.05143e-01,9.93144e-01,9.98862e-01
1.204369197e+00,9.03195e-01,9.99999e-01,9.99999e-01,9.10242e-01,9.93279e-01,9.98970e-01
1.210391043e+00,9.07261e-01,9.99999e-01,9.99999e-01,9.13849e-01,9.93411e-01,9.99373e-01
1.216442998e+00,9.19898e-01,9.99999e-01,9.99999e-01,9.26233e-01,9.93541e-01,9.99616e-01
1.222525213e+00,9.35817e-01,9.99999e-01,9.99999e-01,9.42004e-01,9.93668e-01,9.99761e-01
1.228637839e+00,9.53290e-01,9.99999e-01,9.99999e-01,9.59349e-01,9.93793e-01,9.99888e-01
