#,Wave/freq,Total,N2,O2,H2O,Rayleigh,CIA
4.000000000e-01,8.89373e-01,9.99999e-01,9.99999e-01,9.99986e-01,8.89385e-01,9.99999e-01
4.020000000e-01,8.91442e-01,9.99999e-01,9.99999e-01,9.99991e-01,8.91449e-01,9.99999e-01
4.040100000e-01,8.93471e-01,9.99999e-01,9.99999e-01,9.99996e-01,8.93474e-01,9.99999e-01
4.060300500e-01,8.95464e-01,9.99999e-01,9.99999e-01,9.99998e-01,8.95465e-01,9.99999e-01
4.080602003e-01,8.97419e-01,9.99999e-01,9.99999e-01,9.99999e-01,8.97420e-01,9.99999e-01
4.101005013e-01,8.99340e-01,9.99999e-01,9.99999e-01,9.99999e-01,8.99340e-01,9.99999e-01
4.121510038e-01,9.01226e-01,9.99999e-01,9.99999e-01,9.99999e-01,9.01227e-01,9.99999e-01
4.142117588e-01,9.03077e-01,9.99999e-01,9.99999e-01,9.99995e-01,9.03080e-01,9.99999e-01
4.162828176e-01,9.04886e-01,9.99999e-01,9.99999e-01,9.99983e-01,9.04900e-01,9.99999e-01
4.183642317e-01,9.06679e-01,9.99999e-01,9.99999e-01,9.99989e-01,9.06688e-01,9.99999e-01
4.204560528e-01,9.08439e-01,9.99999e-01,9.99999e-01,9.99993e-01,9.08444e-01,9.99999e-01
4.225583331e-01,9.10167e-01,9.99999e-01,9.99999e-01,9.99997e-01,9.10169e-01,9.99999e-01
4.246711247e-01,9.11861e-01,9.99999e-01,9.99999e-01,9.99997e-01,9.11863e-01,9.99999e-01
4.267944804e-01,9.13524e-01,9.99999e-01,9.99999e-01,9.99996e-01,9.13526e-01,9.99999e-01
4.289284528e-01,9.15158e-01,9.99999e-01,9.99999e-01,9.99997e-01,9.15159e-01,9.99999e-01
4.310730950e-01,9.16763e-01,9.99999e-01,9.99999e-01,9.99998e-01,9.16763e-01,9.99999e-01
4.332284605e-01,9.18338e-01,9.99999e-01,9.99999e-01,9.99999e-01,9.18338e-01,9.99999e-01
4.353946028e-01,9.19885e-01,9.99999e-01,9.99999e-01,9.99999e-01,9.19885e-01,9.99999e-01
4.375715758e-01,9.21402e-01,9.99999e-01,9.99999e-01,9.99997e-01,9.21404e-01,9.99999e-01
4.397594337e-01,9.22881e-01,9.99999e-01,9.99999e-01,9.99985e-01,9.22895e-01,9.99999e-01
4.419582309e-01,9.24291e-01,9.99999e-01,9.99999e-01,9.99926e-01,9.24358e-01,9.99999e-01
4.441680220e-01,9.25743e-01,9.99999e-01,9.99999e-01,9.99942e-01,9.25796e-01,9.99999e-01
4.463888621e-01,9.27152e-01,9.99999e-01,9.99999e-01,9.99940e-01,9.27207e-01,9.99999e-01
4.486208064e-01,9.28558e-01,9.99999e-01,9.99999e-01,9.99962e-01,9.28592e-01,9.99999e-01
4.508639105e-01,9.29936e-01,9.99999e-01,9.99999e-01,9.99982e-01,9.29952e-01,9.99999e-01
4.531182300e-01,9.31280e-01,9.99999e-01,9.99999e-01,9.99992e-01,9.31287e-01,9.99999e-01
4.553838212e-01,9.32593e-01,9.99999e-01,9.99999e-01,9.99994e-01,9.32597e-01,9.99999e-01
4.576607403e-01,9.33881e-01,9.99999e-01,9.99999e-01,9.99997e-01,9.33883e-01,9.99999e-01
4.599490440e-01,9.35145e-01,9.99999e-01,9.99999e-01,9.99997e-01,9.35146e-01,9.99999e-01
4.622487892e-01,9.36385e-01,9.99999e-01,9.99999e-01,9.99999e-01,9.36385e-01,9.99999e-01
4.645600332e-01,9.37601e-01,9.99999e-01,9.99999e-01,9.99998e-01,9.37602e-01,9.99999e-01
4.668828333e-01,9.38780e-01,9.99999e-01,9.99999e-01,9.99982e-01,9.38796e-01,9.99999e-01
4.692172475e-01,9.39933e-01,9.99999e-01,9.99999e-01,9.99962e-01,9.39968e-01,9.99999e-01
4.715633337e-01,9.41095e-01,9.99999e-01,9.99999e-01,9.99975e-01,9.41118e-01,9.99999e-01
4.739211504e-01,9.42225e-01,9.99999e-01,9.99999e-01,9.99976e-01,9.42247e-01,9.99999e-01
4.762907561e-01,9.43343e-01,9.99999e-01,9.99999e-01,9.99987e-01,9.43355e-01,9.99999e-01
4.786722099e-01,9.44437e-01,9.99999e-01,9.99999e-01,9.99994e-01,9.44442e-01,9.99999e-01
4.810655710e-01,9.45507e-01,9.99999e-01,9.99999e-01,9.99998e-01,9.45509e-01,9.99999e-01
4.834708988e-01,9.46542e-01,9.99999e-01,9.99999e-01,9.99985e-01,9.46556e-01,9.99999e-01
4.858882533e-01,9.47558e-01,9.99999e-01,9.99999e-01,9.99973e-01,9.47583e-01,9.99999e-01
4.883176946e-01,9.48570e-01,9.99999e-01,9.99999e-01,9.99977e-01,9.48591e-01,9.99999e-01
4.907592831e-01,9.49562e-01,9.99999e-01,9.99999e-01,9.99979e-01,9.49581e-01,9.99999e-01
4.932130795e-01,9.50538e-01,9.99999e-01,9.99999e-01,9.99985e-01,9.50552e-01,9.99999e-01
4.956791449e-01,9.51497e-01,9.99999e-01,9.99999e-01,9.99992e-01,9.51504e-01,9.99999e-01
4.981575406e-01,9.52403e-01,9.99999e-01,9.99999e-01,9.99962e-01,9.52439e-01,9.99999e-01
5.006483283e-01,9.53263e-01,9.99999e-01,9.99999e-01,9.99902e-01,9.53356e-01,9.99998e-01
5.031515699e-01,9.53782e-01,9.99999e-01,9.99999e-01,9.99507e-01,9.54256e-01,9.99994e-01
5.056673278e-01,9.54886e-01,9.99999e-01,9.99999e-01,9.99740e-01,9.55139e-01,9.99993e-01
5.081956644e-01,9.55689e-01,9.99999e-01,9.99999e-01,9.99672e-01,9.56005e-01,9.99995e-01
5.107366428e-01,9.56643e-01,9.99999e-01,9.99999e-01,9.99778e-01,9.56855e-01,9.99998e-01
5.132903260e-01,9.57568e-01,9.99999e-01,9.99999e-01,9.99873e-01,9.57689e-01,9.99999e-01
5.158567776e-01,9.58456e-01,9.99999e-01,9.99999e-01,9.99946e-01,9.58507e-01,9.99999e-01
5.184360615e-01,9.59290e-01,9.99999e-01,9.99999e-01,9.99978e-01,9.59310e-01,9.99999e-01
5.210282418e-01,9.60090e-01,9.99999e-01,9.99999e-01,9.99991e-01,9.60097e-01,9.99999e-01
5.236333830e-01,9.60839e-01,9.99999e-01,9.99999e-01,9.99967e-01,9.60870e-01,9.99999e-01
5.262515499e-01,9.61608e-01,9.99999e-01,9.99999e-01,9.99979e-01,9.61628e-01,9.99999e-01
5.288828077e-01,9.62353e-01,9.99999e-01,9.99999e-01,9.99981e-01,9.62371e-01,9.99999e-01
5.315272217e-01,9.63085e-01,9.99999e-01,9.99999e-01,9.99983e-01,9.63101e-01,9.99999e-01
5.341848578e-01,9.63806e-01,9.99999e-01,9.99999e-01,9.99988e-01,9.63816e-01,9.99999e-01
5.368557821e-01,9.64482e-01,9.99999e-01,9.99999e-01,9.99962e-01,9.64518e-01,9.99999e-01
5.395400610e-01,9.65075e-01,9.99999e-01,9.99999e-01,9.99864e-01,9.65207e-01,9.99998e-01
5.422377613e-01,9.65711e-01,9.99999e-01,9.99999e-01,9.99825e-01,9.65882e-01,9.99996e-01
5.449489501e-01,9.66385e-01,9.99999e-01,9.99999e-01,9.99837e-01,9.66544e-01,9.99996e-01
5.476736949e-01,9.67054e-01,9.99999e-01,9.99999e-01,9.99856e-01,9.67194e-01,9.99997e-01
5.504120634e-01,9.67731e-01,9.99999e-01,9.99999e-01,9.99895e-01,9.67832e-01,9.99999e-01
5.531641237e-01,9.68406e-01,9.99999e-01,9.99999e-01,9.99947e-01,9.68457e-01,9.99999e-01
5.559299443e-01,9.69046e-01,9.99999e-01,9.99999e-01,9.99974e-01,9.69070e-01,9.99999e-01
5.587095940e-01,9.69656e-01,9.99999e-01,9.99999e-01,9.99983e-01,9.69672e-01,9.99999e-01
5.615031420e-01,9.70245e-01,9.99999e-01,9.99999e-01,9.99981e-01,9.70262e-01,9.99999e-01
5.643106577e-01,9.70821e-01,9.99999e-01,9.99999e-01,9.99979e-01,9.70841e-01,9.99999e-01
5.671322110e-01,9.71169e-01,9.99999e-01,9.99999e-01,9.99755e-01,9.71408e-01,9.99997e-01
5.699678720e-01,9.71708e-01,9.99999e-01,9.99999e-01,9.99741e-01,9.71965e-01,9.99992e-01
5.728177114e-01,9.72244e-01,9.99999e-01,9.99999e-01,9.99730e-01,9.72511e-01,9.99993e-01
5.756818000e-01,9.72803e-01,9.99999e-01,9.99999e-01,9.99752e-01,9.73047e-01,9.99996e-01
5.785602090e-01,9.73361e-01,9.99999e-01,9.99999e-01,9.99784e-01,9.73572e-01,9.99998e-01
5.814530100e-01,9.73876e-01,9.99999e-01,9.99999e-01,9.99783e-01,9.74087e-01,9.99999e-01
5.843602750e-01,9.74339e-01,9.99999e-01,9.99999e-01,9.99741e-01,9.74592e-01,9.99998e-01
5.872820764e-01,9.72901e-01,9.99999e-01,9.99999e-01,9.97772e-01,9.75088e-01,9.99983e-01
5.902184868e-01,9.72905e-01,9.99999e-01,9.99999e-01,9.97306e-01,9.75574e-01,9.99956e-01
5.931695792e-01,9.74152e-01,9.99999e-01,9.99999e-01,9.98095e-01,9.76050e-01,9.99958e-01
5.961354271e-01,9.74458e-01,9.99999e-01,9.99999e-01,9.97913e-01,9.76518e-01,9.99975e-01
5.991161043e-01,9.75483e-01,9.99999e-01,9.99999e-01,9.98478e-01,9.76976e-01,9.99992e-01
6.021116848e-01,9.76582e-01,9.99999e-01,9.99999e-01,9.99136e-01,9.77426e-01,9.99998e-01
6.051222432e-01,9.77440e-01,9.99999e-01,9.99999e-01,9.99562e-01,9.77867e-01,9.99999e-01
6.081478544e-01,9.78115e-01,9.99999e-01,9.99999e-01,9.99811e-01,9.78299e-01,9.99999e-01
6.111885937e-01,9.78645e-01,9.99999e-01,9.99999e-01,9.99919e-01,9.78723e-01,9.99999e-01
6.142445367e-01,9.79104e-01,9.99999e-01,9.99999e-01,9.99963e-01,9.79139e-01,9.99999e-01
6.173157594e-01,9.79528e-01,9.99999e-01,9.99999e-01,9.99979e-01,9.79547e-01,9.99999e-01
6.204023382e-01,9.79930e-01,9.99999e-01,9.99999e-01,9.99982e-01,9.79947e-01,9.99999e-01
6.235043498e-01,9.80267e-01,9.99999e-01,9.99999e-01,9.99926e-01,9.80339e-01,9.99999e-01
6.266218716e-01,9.80341e-01,9.99999e-01,9.99999e-01,9.99611e-01,9.80724e-01,9.99996e-01
6.297549810e-01,9.80956e-01,9.99999e-01,9.99999e-01,9.99857e-01,9.81101e-01,9.99994e-01
6.329037559e-01,9.81191e-01,9.99999e-01,9.99999e-01,9.99718e-01,9.81470e-01,9.99995e-01
6.360682746e-01,9.81596e-01,9.99999e-01,9.99999e-01,9.99760e-01,9.81833e-01,9.99996e-01
6.392486160e-01,9.81883e-01,9.99999e-01,9.99999e-01,9.99689e-01,9.82189e-01,9.99998e-01
6.424448591e-01,9.82127e-01,9.99999e-01,9.99999e-01,9.99584e-01,9.82537e-01,9.99997e-01
6.456570834e-01,9.80973e-01,9.99999e-01,9.99999e-01,9.98070e-01,9.82879e-01,9.99988e-01
6.488853688e-01,9.81799e-01,9.99999e-01,9.99999e-01,9.98589e-01,9.83215e-01,9.99969e-01
6.521297956e-01,9.82105e-01,9.99999e-01,9.99999e-01,9.98562e-01,9.83543e-01,9.99974e-01
6.553904446e-01,9.82440e-01,9.99999e-01,9.99999e-01,9.98568e-01,9.83866e-01,9.99981e-01
6.586673968e-01,9.82970e-01,9.99999e-01,9.99999e-01,9.98774e-01,9.84182e-01,9.99993e-01
6.619607338e-01,9.83819e-01,9.99999e-01,9.99999e-01,9.99316e-01,9.84492e-01,9.99998e-01
6.652705375e-01,9.84392e-01,9.99999e-01,9.99999e-01,9.99589e-01,9.84796e-01,9.99998e-01
6.685968902e-01,9.84906e-01,9.99999e-01,9.99999e-01,9.99809e-01,9.85094e-01,9.99999e-01
6.719398746e-01,9.85299e-01,9.99999e-01,9.99999e-01,9.99911e-01,9.85386e-01,9.99999e-01
6.752995740e-01,9.85626e-01,9.99999e-01,9.99999e-01,9.99951e-01,9.85673e-01,9.99999e-01
6.786760719e-01,9.85886e-01,9.99999e-01,9.99999e-01,9.99930e-01,9.85954e-01,9.99999e-01
6.820694522e-01,9.86112e-01,9.99999e-01,9.99999e-01,9.99881e-01,9.86229e-01,9.99998e-01
6.854797995e-01,9.86348e-01,9.99999e-01,9.99999e-01,9.99847e-01,9.86499e-01,9.99998e-01
6.889071985e-01,9.86396e-01,9.99999e-01,9.99999e-01,9.99629e-01,9.86764e-01,9.99996e-01
6.923517345e-01,9.81044e-01,9.99999e-01,9.99999e-01,9.93969e-01,9.87024e-01,9.99970e-01
6.958134932e-01,9.84127e-01,9.99999e-01,9.99999e-01,9.96870e-01,9.87279e-01,9.99935e-01
6.992925606e-01,9.84528e-01,9.99999e-01,9.99999e-01,9.97018e-01,9.87528e-01,9.99941e-01
7.027890234e-01,9.84099e-01,9.99999e-01,9.99999e-01,9.96323e-01,9.87773e-01,9.99955e-01
7.063029686e-01,9.84938e-01,9.99999e-01,9.99999e-01,9.96909e-01,9.88013e-01,9.99977e-01
7.098344834e-01,9.85306e-01,9.99999e-01,9.99999e-01,9.97034e-01,9.88249e-01,9.99986e-01
7.133836558e-01,9.84539e-01,9.99999e-01,9.99999e-01,9.96038e-01,9.88479e-01,9.99973e-01
7.169505741e-01,9.57346e-01,9.99999e-01,9.99999e-01,9.68477e-01,9.88706e-01,9.99797e-01
7.205353270e-01,9.73266e-01,9.99999e-01,9.99999e-01,9.84514e-01,9.88927e-01,9.99642e-01
7.241380036e-01,9.69389e-01,9.99999e-01,9.99999e-01,9.80329e-01,9.89145e-01,9.99691e-01
7.277586936e-01,9.71537e-01,9.99999e-01,9.99999e-01,9.82234e-01,9.89358e-01,9.99747e-01
7.313974871e-01,9.70805e-01,9.99999e-01,9.99999e-01,9.81155e-01,9.89567e-01,9.99881e-01
7.350544745e-01,9.79507e-01,9.99999e-01,9.99999e-01,9.89669e-01,9.89772e-01,9.99958e-01
7.387297469e-01,9.82425e-01,9.99999e-01,9.99999e-01,9.92393e-01,9.89973e-01,9.99980e-01
7.424233956e-01,9.86479e-01,9.99999e-01,9.99999e-01,9.96275e-01,9.90170e-01,9.99995e-01
7.461355126e-01,9.88126e-01,9.99999e-01,9.99999e-01,9.97741e-01,9.90363e-01,9.99998e-01
7.498661902e-01,9.89511e-01,9.99999e-01,9.99999e-01,9.98948e-01,9.90553e-01,9.99999e-01
7.536155211e-01,9.90227e-01,9.99999e-01,9.99999e-01,9.99483e-01,9.90739e-01,9.99999e-01
7.573835987e-01,9.90658e-01,9.99999e-01,9.99999e-01,9.99734e-01,9.90921e-01,9.99999e-01
7.611705167e-01,9.90936e-01,9.99999e-01,9.99999e-01,9.99834e-01,9.91099e-01,9.99999e-01
7.649763693e-01,9.91172e-01,9.99999e-01,9.99999e-01,9.99896e-01,9.91274e-01,9.99999e-01
7.688012511e-01,9.91374e-01,9.99999e-01,9.99999e-01,9.99927e-01,9.91446e-01,9.99999e-01
7.726452574e-01,9.91555e-01,9.99999e-01,9.99999e-01,9.99940e-01,9.91614e-01,9.99999e-01
7.765084837e-01,9.91695e-01,9.99999e-01,9.99999e-01,9.99915e-01,9.91779e-01,9.99999e-01
7.803910261e-01,9.91579e-01,9.99999e-01,9.99999e-01,9.99634e-01,9.91941e-01,9.99999e-01
7.842929812e-01,9.90834e-01,9.99999e-01,9.99999e-01,9.98726e-01,9.92099e-01,9.99997e-01
7.882144461e-01,9.89639e-01,9.99999e-01,9.99999e-01,9.97381e-01,9.92255e-01,9.99981e-01
7.921555184e-01,9.90952e-01,9.99999e-01,9.99999e-01,9.98564e-01,9.92407e-01,9.99968e-01
7.961162960e-01,9.90006e-01,9.99999e-01,9.99999e-01,9.97459e-01,9.92556e-01,9.99969e-01
8.000968774e-01,9.89762e-01,9.99999e-01,9.99999e-01,9.97068e-01,9.92703e-01,9.99967e-01
8.040973618e-01,9.89910e-01,9.99999e-01,9.99999e-01,9.97067e-01,9.92847e-01,9.99974e-01
8.081178486e-01,9.86398e-01,9.99999e-01,9.99999e-01,9.93386e-01,9.92987e-01,9.99976e-01
8.121584379e-01,9.65889e-01,9.99999e-01,9.99999e-01,9.72664e-01,9.93125e-01,9.99907e-01
8.162192301e-01,9.60801e-01,9.99999e-01,9.99999e-01,9.67655e-01,9.93261e-01,9.99652e-01
8.203003262e-01,9.76751e-01,9.99999e-01,9.99999e-01,9.83647e-01,9.93393e-01,9.99592e-01
8.244018279e-01,9.70618e-01,9.99999e-01,9.99999e-01,9.77261e-01,9.93523e-01,9.99675e-01
8.285238370e-01,9.74110e-01,9.99999e-01,9.99999e-01,9.80583e-01,9.93651e-01,9.99745e-01
8.326664562e-01,9.74174e-01,9.99999e-01,9.99999e-01,9.80378e-01,9.93776e-01,9.99894e-01
8.368297885e-01,9.79932e-01,9.99999e-01,9.99999e-01,9.85971e-01,9.93898e-01,9.99975e-01
8.410139374e-01,9.85703e-01,9.99999e-01,9.99999e-01,9.91647e-01,9.94019e-01,9.99985e-01
8.452190071e-01,9.90052e-01,9.99999e-01,9.99999e-01,9.95899e-01,9.94136e-01,9.99991e-01
8.494451021e-01,9.91878e-01,9.99999e-01,9.99999e-01,9.97618e-01,9.94252e-01,9.99992e-01
8.536923276e-01,9.92961e-01,9.99999e-01,9.99999e-01,9.98592e-01,9.94365e-01,9.99995e-01
8.579607893e-01,9.93613e-01,9.99999e-01,9.99999e-01,9.99132e-01,9.94476e-01,9.99998e-01
8.622505932e-01,9.94037e-01,9.99999e-01,9.99999e-01,9.99448e-01,9.94585e-01,9.99999e-01
8.665618462e-01,9.94352e-01,9.99999e-01,9.99999e-01,9.99658e-01,9.94691e-01,9.99999e-01
8.708946554e-01,9.94408e-01,9.99999e-01,9.99999e-01,9.99609e-01,9.94796e-01,9.99999e-01
8.752491287e-01,9.94379e-01,9.99999e-01,9.99999e-01,9.99477e-01,9.94899e-01,9.99998e-01
8.796253743e-01,9.94278e-01,9.99999e-01,9.99999e-01,9.99276e-01,9.94999e-01,9.99997e-01
8.840235012e-01,9.94270e-01,9.99999e-01,9.99999e-01,9.99173e-01,9.95098e-01,9.99994e-01
8.884436187e-01,9.92170e-01,9.99999e-01,9.99999e-01,9.96974e-01,9.95194e-01,9.99985e-01
8.928858368e-01,9.63886e-01,9.99999e-01,9.99999e-01,9.68527e-01,9.95289e-01,9.99917e-01
8.973502660e-01,9.40239e-01,9.99999e-01,9.99999e-01,9.45000e-01,9.95382e-01,9.99576e-01
9.018370173e-01,9.66527e-01,9.99999e-01,9.99999e-01,9.71567e-01,9.95473e-01,9.99335e-01
9.063462024e-01,9.70006e-01,9.99999e-01,9.99999e-01,9.74898e-01,9.95562e-01,9.99415e-01
9.108779334e-01,9.56388e-01,9.99999e-01,9.99999e-01,9.61149e-01,9.95649e-01,9.99392e-01
9.154323231e-01,9.51474e-01,9.99999e-01,9.99999e-01,9.56028e-01,9.95735e-01,9.99498e-01
9.200094847e-01,9.61082e-01,9.99999e-01,9.99999e-01,9.65387e-01,9.95819e-01,9.99718e-01
9.246095321e-01,9.41644e-01,9.99999e-01,9.99999e-01,9.45824e-01,9.95901e-01,9.99676e-01
9.292325798e-01,6.84262e-01,9.99999e-01,9.99999e-01,6.87888e-01,9.95982e-01,9.98739e-01
9.338787427e-01,6.11292e-01,9.99999e-01,9.99999e-01,6.16917e-01,9.96061e-01,9.94798e-01
9.385481364e-01,8.15133e-01,9.99999e-01,9.99999e-01,8.23382e-01,9.96139e-01,9.93817e-01
9.432408771e-01,7.54251e-01,9.99999e-01,9.99999e-01,7.61178e-01,9.96215e-01,9.94663e-01
9.479570815e-01,6.79223e-01,9.99999e-01,9.99999e-01,6.84727e-01,9.96290e-01,9.95654e-01
9.526968669e-01,7.50087e-01,9.99999e-01,9.99999e-01,7.54826e-01,9.96363e-01,9.97347e-01
9.574603512e-01,7.70382e-01,9.99999e-01,9.99999e-01,7.74182e-01,9.96435e-01,9.98651e-01
9.622476530e-01,8.08933e-01,9.99999e-01,9.99999e-01,8.12527e-01,9.96505e-01,9.99067e-01
9.670588912e-01,8.83755e-01,9.99999e-01,9.99999e-01,8.87358e-01,9.96574e-01,9.99361e-01
9.718941857e-01,9.24697e-01,9.99999e-01,9.99999e-01,9.28248e-01,9.96641e-01,9.99530e-01
9.767536566e-01,9.36650e-01,9.99999e-01,9.99999e-01,9.40081e-01,9.96708e-01,9.99640e-01
9.816374249e-01,9.52098e-01,9.99999e-01,9.99999e-01,9.55298e-01,9.96772e-01,9.99875e-01
9.865456120e-01,9.68754e-01,9.99999e-01,9.99999e-01,9.71853e-01,9.96836e-01,9.99973e-01
9.914783401e-01,9.79462e-01,9.99999e-01,9.99999e-01,9.82516e-01,9.96898e-01,9.99992e-01
9.964357318e-01,9.87428e-01,9.99999e-01,9.99999e-01,9.90443e-01,9.96960e-01,9.99995e-01
1.001417910e+00,9.91294e-01,9.99999e-01,9.99999e-01,9.94263e-01,9.97020e-01,9.99993e-01
1.006425000e+00,9.93805e-01,9.99999e-01,9.99999e-01,9.96725e-01,9.97078e-01,9.99990e-01
1.011457125e+00,9.95101e-01,9.99999e-01,9.99999e-01,9.97967e-01,9.97136e-01,9.99991e-01
1.016514411e+00,9.95810e-01,9.99999e-01,9.99999e-01,9.98619e-01,9.97192e-01,9.99993e-01
1.021596983e+00,9.96145e-01,9.99999e-01,9.99999e-01,9.98899e-01,9.97248e-01,9.99993e-01
1.026704968e+00,9.96443e-01,9.99999e-01,9.99999e-01,9.99141e-01,9.97302e-01,9.99995e-01
1.031838492e+00,9.96733e-01,9.99999e-01,9.99999e-01,9.99376e-01,9.97355e-01,9.99998e-01
1.036997685e+00,9.97038e-01,9.99999e-01,9.99999e-01,9.99629e-01,9.97407e-01,9.99999e-01
1.042182673e+00,9.97018e-01,9.99999e-01,9.99999e-01,9.99557e-01,9.97458e-01,9.99999e-01
1.047393587e+00,9.96924e-01,9.99999e-01,9.99999e-01,9.99413e-01,9.97509e-01,9.99999e-01
1.052630555e+00,9.96756e-01,9.99999e-01,9.99999e-01,9.99195e-01,9.97558e-01,9.99999e-01
1.057893707e+00,9.96266e-01,9.99999e-01,9.99999e-01,9.98657e-01,9.97606e-01,9.99999e-01
1.063183176e+00,9.95449e-01,9.99999e-01,9.99999e-01,9.97791e-01,9.97653e-01,9.99998e-01
1.068499092e+00,9.94009e-01,9.99999e-01,9.99999e-01,9.96303e-01,9.97699e-01,9.99997e-01
1.073841587e+00,9.93422e-01,9.99999e-01,9.99999e-01,9.95672e-01,9.97745e-01,9.99994e-01
1.079210795e+00,9.92248e-01,9.99999e-01,9.99999e-01,9.94460e-01,9.97789e-01,9.99984e-01
1.084606849e+00,9.89437e-01,9.99999e-01,9.99999e-01,9.91620e-01,9.97833e-01,9.99963e-01
1.090029883e+00,9.85796e-01,9.99999e-01,9.99999e-01,9.87966e-01,9.97876e-01,9.99925e-01
1.095480033e+00,9.65410e-01,9.99999e-01,9.99999e-01,9.67553e-01,9.97917e-01,9.99866e-01
1.100957433e+00,9.17363e-01,9.99999e-01,9.99999e-01,9.19464e-01,9.97959e-01,9.99754e-01
1.106462220e+00,8.05094e-01,9.99999e-01,9.99999e-01,8.07043e-01,9.97999e-01,9.99583e-01
1.111994531e+00,6.34606e-01,9.99999e-01,9.99999e-01,6.36555e-01,9.98038e-01,9.98895e-01
1.117554504e+00,4.77778e-01,9.99999e-01,9.99999e-01,4.80610e-01,9.98077e-01,9.96020e-01
1.123142276e+00,5.74450e-01,9.99999e-01,9.99999e-01,5.81001e-01,9.98115e-01,9.90590e-01
1.128757988e+00,6.98787e-01,9.99999e-01,9.99999e-01,7.07778e-01,9.98152e-01,9.89122e-01
1.134401778e+00,4.49439e-01,9.99999e-01,9.99999e-01,4.54461e-01,9.98189e-01,9.90743e-01
1.140073787e+00,8.07224e-01,9.99999e-01,9.99999e-01,8.14690e-01,9.98224e-01,9.92596e-01
1.145774156e+00,6.45261e-01,9.99999e-01,9.99999e-01,6.50796e-01,9.98259e-01,9.93221e-01
1.151503026e+00,6.15325e-01,9.99999e-01,9.99999e-01,6.18716e-01,9.98294e-01,9.96217e-01
1.157260541e+00,6.70475e-01,9.99999e-01,9.99999e-01,6.72359e-01,9.98327e-01,9.98867e-01
1.163046844e+00,7.44666e-01,9.99999e-01,9.99999e-01,7.46128e-01,9.98360e-01,9.99678e-01
1.168862078e+00,8.15016e-01,9.99999e-01,9.99999e-01,8.16462e-01,9.98393e-01,9.99834e-01
1.174706389e+00,8.80815e-01,9.99999e-01,9.99999e-01,8.82398e-01,9.98424e-01,9.99780e-01
1.180579921e+00,9.24958e-01,9.99999e-01,9.99999e-01,9.26695e-01,9.98455e-01,9.99668e-01
1.186482820e+00,9.56154e-01,9.99999e-01,9.99999e-01,9.57929e-01,9.98486e-01,9.99659e-01
1.192415234e+00,9.73546e-01,9.99999e-01,9.99999e-01,9.75240e-01,9.98516e-01,9.99744e-01
1.198377311e+00,9.77425e-01,9.99999e-01,9.99999e-01,9.79084e-01,9.98545e-01,9.99758e-01
1.204369197e+00,9.78580e-01,9.99999e-01,9.99999e-01,9.80191e-01,9.98574e-01,9.99781e-01
1.210391043e+00,9.79554e-01,9.99999e-01,9.99999e-01,9.81055e-01,9.98602e-01,9.99867e-01
1.216442998e+00,9.82440e-01,9.99999e-01,9.99999e-01,9.83867e-01,9.98629e-01,9.99918e-01
1.222525213e+00,9.86046e-01,9.99999e-01,9.99999e-01,9.87421e-01,9.98656e-01,9.99949e-01
1.228637839e+00,9.89922e-01,9.99999e-01,9.99999e-01,9.91250e-01,9.98683e-01,9.99976e-01
