#,Wave/freq,Total,N2,O2,H2O,Rayleigh,CIA
4.000000000e-01,3.39627e-01,9.99999e-01,9.99999e-01,9.99877e-01,3.39668e-01,9.99999e-01
4.020000000e-01,3.46972e-01,9.99999e-01,9.99999e-01,9.99923e-01,3.46998e-01,9.99999e-01
4.040100000e-01,3.54318e-01,9.99999e-01,9.99999e-01,9.99967e-01,3.54329e-01,9.99999e-01
4.060300500e-01,3.61663e-01,9.99999e-01,9.99999e-01,9.99992e-01,3.61666e-01,9.99999e-01
4.080602003e-01,3.69004e-01,9.99999e-01,9.99999e-01,9.99997e-01,3.69005e-01,9.99999e-01
4.101005013e-01,3.76343e-01,9.99999e-01,9.99999e-01,9.99999e-01,3.76343e-01,9.99999e-01
4.121510038e-01,3.83677e-01,9.99999e-01,9.99999e-01,9.99995e-01,3.83678e-01,9.99999e-01
4.142117588e-01,3.90994e-01,9.99999e-01,9.99999e-01,9.99966e-01,3.91007e-01,9.99999e-01
4.162828176e-01,3.98267e-01,9.99999e-01,9.99999e-01,9.99848e-01,3.98328e-01,9.99999e-01
4.183642317e-01,4.05600e-01,9.99999e-01,9.99999e-01,9.99909e-01,4.05636e-01,9.99999e-01
4.204560528e-01,4.12908e-01,9.99999e-01,9.99999e-01,9.99944e-01,4.12930e-01,9.99999e-01
4.225583331e-01,4.20199e-01,9.99999e-01,9.99999e-01,9.99978e-01,4.20208e-01,9.99999e-01
4.246711247e-01,4.27459e-01,9.99999e-01,9.99999e-01,9.99983e-01,4.27466e-01,9.99999e-01
4.267944804e-01,4.34692e-01,9.99999e-01,9.99999e-01,9.99975e-01,4.34703e-01,9.99999e-01
4.289284528e-01,4.41907e-01,9.99999e-01,9.99999e-01,9.99980e-01,4.41915e-01,9.99999e-01
4.310730950e-01,4.49098e-01,9.99999e-01,9.99999e-01,9.99991e-01,4.49101e-01,9.99999e-01
4.332284605e-01,4.56258e-01,9.99999e-01,9.99999e-01,9.99997e-01,4.56259e-01,9.99999e-01
4.353946028e-01,4.63385e-01,9.99999e-01,9.99999e-01,9.99998e-01,4.63386e-01,9.99999e-01
4.375715758e-01,4.70473e-01,9.99999e-01,9.99999e-01,9.99984e-01,4.70480e-01,9.99999e-01
4.397594337e-01,4.77477e-01,9.99999e-01,9.99999e-01,9.99867e-01,4.77540e-01,9.99999e-01
4.419582309e-01,4.84238e-01,9.99999e-01,9.99999e-01,9.99330e-01,4.84562e-01,9.99999e-01
4.441680220e-01,4.91288e-01,9.99999e-01,9.99999e-01,9.99473e-01,4.91547e-01,9.99999e-01
4.463888621e-01,4.98218e-01,9.99999e-01,9.99999e-01,9.99453e-01,4.98491e-01,9.99999e-01
4.486208064e-01,5.05221e-01,9.99999e-01,9.99999e-01,9.99659e-01,5.05393e-01,9.99999e-01
4.508639105e-01,5.12170e-01,9.99999e-01,9.99999e-01,9.99840e-01,5.12251e-01,9.99999e-01
4.531182300e-01,5.19032e-01,9.99999e-01,9.99999e-01,9.99936e-01,5.19065e-01,9.99999e-01
4.553838212e-01,5.25809e-01,9.99999e-01,9.99999e-01,9.99956e-01,5.25832e-01,9.99999e-01
4.576607403e-01,5.32540e-01,9.99999e-01,9.99999e-01,9.99979e-01,5.32550e-01,9.99999e-01
4.599490440e-01,5.39212e-01,9.99999e-01,9.99999e-01,9.99985e-01,5.39220e-01,9.99999e-01
4.622487892e-01,5.45837e-01,9.99999e-01,9.99999e-01,9.99997e-01,5.45838e-01,9.99999e-01
4.645600332e-01,5.52400e-01,9.99999e-01,9.99999e-01,9.99990e-01,5.52405e-01,9.99999e-01
4.668828333e-01,5.58829e-01,9.99999e-01,9.99999e-01,9.99839e-01,5.58919e-01,9.99999e-01
4.692172475e-01,5.65185e-01,9.99999e-01,9.99999e-01,9.99656e-01,5.65378e-01,9.99999e-01
4.715633337e-01,5.71655e-01,9.99999e-01,9.99999e-01,9.99775e-01,5.71783e-01,9.99999e-01
4.739211504e-01,5.78007e-01,9.99999e-01,9.99999e-01,9.99784e-01,5.78131e-01,9.99999e-01
4.762907561e-01,5.84357e-01,9.99999e-01,9.99999e-01,9.99888e-01,5.84422e-01,9.99999e-01
4.786722099e-01,5.90629e-01,9.99999e-01,9.99999e-01,9.99954e-01,5.90656e-01,9.99999e-01
4.810655710e-01,5.96823e-01,9.99999e-01,9.99999e-01,9.99985e-01,5.96831e-01,9.99999e-01
4.834708988e-01,6.02868e-01,9.99999e-01,9.99999e-01,9.99869e-01,6.02947e-01,9.99999e-01
4.858882533e-01,6.08854e-01,9.99999e-01,9.99999e-01,9.99756e-01,6.09002e-01,9.99999e-01
4.883176946e-01,6.14873e-01,9.99999e-01,9.99999e-01,9.99796e-01,6.14997e-01,9.99999e-01
4.907592831e-01,6.20817e-01,9.99999e-01,9.99999e-01,9.99815e-01,6.20931e-01,9.99999e-01
4.932130795e-01,6.26722e-01,9.99999e-01,9.99999e-01,9.99869e-01,6.26803e-01,9.99999e-01
4.956791449e-01,6.32570e-01,9.99999e-01,9.99999e-01,9.99930e-01,6.32613e-01,9.99999e-01
4.981575406e-01,6.38142e-01,9.99999e-01,9.99999e-01,9.99655e-01,6.38361e-01,9.99999e-01
5.006483283e-01,6.43469e-01,9.99999e-01,9.99999e-01,9.99110e-01,6.44046e-01,9.99993e-01
5.031515699e-01,6.46705e-01,9.99999e-01,9.99999e-01,9.95486e-01,6.49668e-01,9.99952e-01
5.056673278e-01,6.53626e-01,9.99999e-01,9.99999e-01,9.97611e-01,6.55226e-01,9.99945e-01
5.081956644e-01,6.58707e-01,9.99999e-01,9.99999e-01,9.96986e-01,6.60720e-01,9.99964e-01
5.107366428e-01,6.64791e-01,9.99999e-01,9.99999e-01,9.97964e-01,6.66151e-01,9.99992e-01
5.132903260e-01,6.70736e-01,9.99999e-01,9.99999e-01,9.98835e-01,6.71518e-01,9.99998e-01
5.158567776e-01,6.76488e-01,9.99999e-01,9.99999e-01,9.99507e-01,6.76821e-01,9.99999e-01
5.184360615e-01,6.81925e-01,9.99999e-01,9.99999e-01,9.99802e-01,6.82060e-01,9.99999e-01
5.210282418e-01,6.87184e-01,9.99999e-01,9.99999e-01,9.99926e-01,6.87234e-01,9.99999e-01
5.236333830e-01,6.92139e-01,9.99999e-01,9.99999e-01,9.99704e-01,6.92345e-01,9.99997e-01
5.262515499e-01,6.97260e-01,9.99999e-01,9.99999e-01,9.99814e-01,6.97391e-01,9.99996e-01
5.288828077e-01,7.02253e-01,9.99999e-01,9.99999e-01,9.99830e-01,7.02373e-01,9.99997e-01
5.315272217e-01,7.07186e-01,9.99999e-01,9.99999e-01,9.99850e-01,7.07292e-01,9.99999e-01
5.341848578e-01,7.12077e-01,9.99999e-01,9.99999e-01,9.99902e-01,7.12147e-01,9.99999e-01
5.368557821e-01,7.16692e-01,9.99999e-01,9.99999e-01,9.99656e-01,7.16938e-01,9.99998e-01
5.395400610e-01,7.20768e-01,9.99999e-01,9.99999e-01,9.98765e-01,7.21666e-01,9.99989e-01
5.422377613e-01,7.25145e-01,9.99999e-01,9.99999e-01,9.98396e-01,7.26331e-01,9.99970e-01
5.449489501e-01,7.29824e-01,9.99999e-01,9.99999e-01,9.98512e-01,7.30933e-01,9.99969e-01
5.476736949e-01,7.34489e-01,9.99999e-01,9.99999e-01,9.98678e-01,7.35472e-01,9.99984e-01
5.504120634e-01,7.39237e-01,9.99999e-01,9.99999e-01,9.99040e-01,7.39949e-01,9.99995e-01
5.531641237e-01,7.44004e-01,9.99999e-01,9.99999e-01,9.99517e-01,7.44364e-01,9.99998e-01
5.559299443e-01,7.48543e-01,9.99999e-01,9.99999e-01,9.99766e-01,7.48717e-01,9.99999e-01
5.587095940e-01,7.52900e-01,9.99999e-01,9.99999e-01,9.99853e-01,7.53009e-01,9.99999e-01
5.615031420e-01,7.57117e-01,9.99999e-01,9.99999e-01,9.99837e-01,7.57241e-01,9.99999e-01
5.643106577e-01,7.61271e-01,9.99999e-01,9.99999e-01,9.99816e-01,7.61411e-01,9.99997e-01
5.671322110e-01,7.63807e-01,9.99999e-01,9.99999e-01,9.97779e-01,7.65522e-01,9.99979e-01
5.699678720e-01,7.67690e-01,9.99999e-01,9.99999e-01,9.97614e-01,7.69573e-01,9.99938e-01
5.728177114e-01,7.71611e-01,9.99999e-01,9.99999e-01,9.97524e-01,7.73564e-01,9.99948e-01
5.756818000e-01,7.75706e-01,9.99999e-01,9.99999e-01,9.97726e-01,7.77497e-01,9.99968e-01
5.785602090e-01,7.79815e-01,9.99999e-01,9.99999e-01,9.98016e-01,7.81372e-01,9.99990e-01
5.814530100e-01,7.83623e-01,9.99999e-01,9.99999e-01,9.98009e-01,7.85189e-01,9.99995e-01
5.843602750e-01,7.87073e-01,9.99999e-01,9.99999e-01,9.97635e-01,7.88949e-01,9.99986e-01
5.872820764e-01,7.76559e-01,9.99999e-01,9.99999e-01,9.79837e-01,7.92652e-01,9.99855e-01
5.902184868e-01,7.76463e-01,9.99999e-01,9.99999e-01,9.75471e-01,7.96298e-01,9.99608e-01
5.931695792e-01,7.85725e-01,9.99999e-01,9.99999e-01,9.82662e-01,7.99889e-01,9.99623e-01
5.961354271e-01,7.87966e-01,9.99999e-01,9.99999e-01,9.80970e-01,8.03424e-01,9.99783e-01
5.991161043e-01,7.95614e-01,9.99999e-01,9.99999e-01,9.86072e-01,8.06905e-01,9.99932e-01
6.021116848e-01,8.03900e-01,9.99999e-01,9.99999e-01,9.92070e-01,8.10332e-01,9.99991e-01
6.051222432e-01,8.10434e-01,9.99999e-01,9.99999e-01,9.95979e-01,8.13705e-01,9.99998e-01
6.081478544e-01,8.15608e-01,9.99999e-01,9.99999e-01,9.98264e-01,8.17026e-01,9.99999e-01
6.111885937e-01,8.19691e-01,9.99999e-01,9.99999e-01,9.99264e-01,8.20293e-01,9.99999e-01
6.142445367e-01,8.23239e-01,9.99999e-01,9.99999e-01,9.99671e-01,8.23509e-01,9.99999e-01
6.173157594e-01,8.26525e-01,9.99999e-01,9.99999e-01,9.99818e-01,8.26674e-01,9.99999e-01
6.204023382e-01,8.29661e-01,9.99999e-01,9.99999e-01,9.99846e-01,8.29788e-01,9.99999e-01
6.235043498e-01,8.32293e-01,9.99999e-01,9.99999e-01,9.99330e-01,8.32852e-01,9.99997e-01
6.266218716e-01,8.32869e-01,9.99999e-01,9.99999e-01,9.96438e-01,8.35866e-01,9.99974e-01
6.297549810e-01,8.37693e-01,9.99999e-01,9.99999e-01,9.98692e-01,8.38831e-01,9.99949e-01
6.329037559e-01,8.39539e-01,9.99999e-01,9.99999e-01,9.97414e-01,8.41748e-01,9.99959e-01
6.360682746e-01,8.42741e-01,9.99999e-01,9.99999e-01,9.97801e-01,8.44618e-01,9.99975e-01
6.392486160e-01,8.45015e-01,9.99999e-01,9.99999e-01,9.97149e-01,8.47440e-01,9.99988e-01
6.424448591e-01,8.46970e-01,9.99999e-01,9.99999e-01,9.96199e-01,8.50215e-01,9.99982e-01
6.456570834e-01,8.37919e-01,9.99999e-01,9.99999e-01,9.82479e-01,8.52944e-01,9.99901e-01
6.488853688e-01,8.44361e-01,9.99999e-01,9.99999e-01,9.87101e-01,8.55628e-01,9.99724e-01
6.521297956e-01,8.46798e-01,9.99999e-01,9.99999e-01,9.86862e-01,8.58268e-01,9.99769e-01
6.553904446e-01,8.49503e-01,9.99999e-01,9.99999e-01,9.86974e-01,8.60863e-01,9.99826e-01
6.586673968e-01,8.53675e-01,9.99999e-01,9.99999e-01,9.88775e-01,8.63414e-01,9.99943e-01
6.619607338e-01,8.60277e-01,9.99999e-01,9.99999e-01,9.93491e-01,8.65922e-01,9.99987e-01
6.652705375e-01,8.65105e-01,9.99999e-01,9.99999e-01,9.96224e-01,8.68388e-01,9.99993e-01
6.685968902e-01,8.69283e-01,9.99999e-01,9.99999e-01,9.98244e-01,8.70812e-01,9.99998e-01
6.719398746e-01,8.72484e-01,9.99999e-01,9.99999e-01,9.99185e-01,8.73195e-01,9.99999e-01
6.752995740e-01,8.75151e-01,9.99999e-01,9.99999e-01,9.99559e-01,8.75536e-01,9.99999e-01
6.786760719e-01,8.77281e-01,9.99999e-01,9.99999e-01,9.99365e-01,8.77838e-01,9.99998e-01
6.820694522e-01,8.79139e-01,9.99999e-01,9.99999e-01,9.98912e-01,8.80100e-01,9.99993e-01
6.854797995e-01,8.81077e-01,9.99999e-01,9.99999e-01,9.98598e-01,8.82323e-01,9.99987e-01
6.889071985e-01,8.81502e-01,9.99999e-01,9.99999e-01,9.96631e-01,8.84508e-01,9.99969e-01
6.923517345e-01,8.38836e-01,9.99999e-01,9.99999e-01,9.46318e-01,8.86655e-01,9.99734e-01
6.958134932e-01,8.62965e-01,9.99999e-01,9.99999e-01,9.71553e-01,8.88764e-01,9.99400e-01
6.992925606e-01,8.66370e-01,9.99999e-01,9.99999e-01,9.73048e-01,8.90837e-01,9.99472e-01
7.027890234e-01,8.62814e-01,9.99999e-01,9.99999e-01,9.66725e-01,8.92873e-01,9.99594e-01
7.063029686e-01,8.69576e-01,9.99999e-01,9.99999e-01,9.71925e-01,8.94874e-01,9.99798e-01
7.098344834e-01,8.72553e-01,9.99999e-01,9.99999e-01,9.73036e-01,8.96839e-01,9.99880e-01
7.133836558e-01,8.66675e-01,9.99999e-01,9.99999e-01,9.64517e-01,8.98770e-01,9.99762e-01
7.169505741e-01,6.77043e-01,9.99999e-01,9.99999e-01,7.53114e-01,9.00667e-01,9.98137e-01
7.205353270e-01,7.81267e-01,9.99999e-01,9.99999e-01,8.68491e-01,9.02530e-01,9.96717e-01
7.241380036e-01,7.54112e-01,9.99999e-01,9.99999e-01,8.36233e-01,9.04360e-01,9.97164e-01
7.277586936e-01,7.69355e-01,9.99999e-01,9.99999e-01,8.51002e-01,9.06157e-01,9.97681e-01
7.313974871e-01,7.62722e-01,9.99999e-01,9.99999e-01,8.40986e-01,9.07923e-01,9.98913e-01
7.350544745e-01,8.26968e-01,9.99999e-01,9.99999e-01,9.09441e-01,9.09657e-01,9.99621e-01
7.387297469e-01,8.49496e-01,9.99999e-01,9.99999e-01,9.32279e-01,9.11360e-01,9.99826e-01
7.424233956e-01,8.82135e-01,9.99999e-01,9.99999e-01,9.66191e-01,9.13032e-01,9.99966e-01
7.461355126e-01,8.95805e-01,9.99999e-01,9.99999e-01,9.79375e-01,9.14674e-01,9.99993e-01
7.498661902e-01,9.07429e-01,9.99999e-01,9.99999e-01,9.90333e-01,9.16287e-01,9.99997e-01
7.536155211e-01,9.13512e-01,9.99999e-01,9.99999e-01,9.95251e-01,9.17871e-01,9.99998e-01
7.573835987e-01,9.17176e-01,9.99999e-01,9.99999e-01,9.97553e-01,9.19426e-01,9.99999e-01
7.611705167e-01,9.19552e-01,9.99999e-01,9.99999e-01,9.98479e-01,9.20953e-01,9.99999e-01
7.649763693e-01,9.21573e-01,9.99999e-01,9.99999e-01,9.99046e-01,9.22452e-01,9.99999e-01
7.688012511e-01,9.23311e-01,9.99999e-01,9.99999e-01,9.99336e-01,9.23924e-01,9.99999e-01
7.726452574e-01,9.24864e-01,9.99999e-01,9.99999e-01,9.99454e-01,9.25369e-01,9.99999e-01
7.765084837e-01,9.26070e-01,9.99999e-01,9.99999e-01,9.99226e-01,9.26788e-01,9.99998e-01
7.803910261e-01,9.25081e-01,9.99999e-01,9.99999e-01,9.96663e-01,9.28181e-01,9.99996e-01
7.842929812e-01,9.18752e-01,9.99999e-01,9.99999e-01,9.88406e-01,9.29548e-01,9.99978e-01
7.882144461e-01,9.08579e-01,9.99999e-01,9.99999e-01,9.76175e-01,9.30890e-01,9.99852e-01
7.921555184e-01,9.19688e-01,9.99999e-01,9.99999e-01,9.86850e-01,9.32208e-01,9.99714e-01
7.961162960e-01,9.11761e-01,9.99999e-01,9.99999e-01,9.76976e-01,9.33502e-01,9.99726e-01
8.000968774e-01,9.09596e-01,9.99999e-01,9.99999e-01,9.73350e-01,9.34771e-01,9.99709e-01
8.040973618e-01,9.10882e-01,9.99999e-01,9.99999e-01,9.73370e-01,9.36017e-01,9.99768e-01
8.081178486e-01,8.82110e-01,9.99999e-01,9.99999e-01,9.41380e-01,9.37241e-01,9.99783e-01
8.121584379e-01,7.31280e-01,9.99999e-01,9.99999e-01,7.79912e-01,9.38441e-01,9.99149e-01
8.162192301e-01,6.97445e-01,9.99999e-01,9.99999e-01,7.44641e-01,9.39620e-01,9.96805e-01
8.203003262e-01,8.13680e-01,9.99999e-01,9.99999e-01,8.68147e-01,9.40776e-01,9.96261e-01
8.244018279e-01,7.72335e-01,9.99999e-01,9.99999e-01,8.22412e-01,9.41912e-01,9.97023e-01
8.285238370e-01,7.87919e-01,9.99999e-01,9.99999e-01,8.37480e-01,9.43026e-01,9.97661e-01
8.326664562e-01,7.88654e-01,9.99999e-01,9.99999e-01,8.36141e-01,9.44119e-01,9.99031e-01
8.368297885e-01,8.30421e-01,9.99999e-01,9.99999e-01,8.78768e-01,9.45192e-01,9.99778e-01
8.410139374e-01,8.76000e-01,9.99999e-01,9.99999e-01,9.25883e-01,9.46245e-01,9.99870e-01
8.452190071e-01,9.12023e-01,9.99999e-01,9.99999e-01,9.62856e-01,9.47278e-01,9.99922e-01
8.494451021e-01,9.27645e-01,9.99999e-01,9.99999e-01,9.78287e-01,9.48292e-01,9.99937e-01
8.536923276e-01,9.36997e-01,9.99999e-01,9.99999e-01,9.87089e-01,9.49287e-01,9.99961e-01
8.579607893e-01,9.42690e-01,9.99999e-01,9.99999e-01,9.92038e-01,9.50263e-01,9.99990e-01
8.622505932e-01,9.46399e-01,9.99999e-01,9.99999e-01,9.94930e-01,9.51221e-01,9.99997e-01
8.665618462e-01,9.49177e-01,9.99999e-01,9.99999e-01,9.96866e-01,9.52161e-01,9.99998e-01
8.708946554e-01,9.49666e-01,9.99999e-01,9.99999e-01,9.96415e-01,9.53084e-01,9.99997e-01
8.752491287e-01,9.49410e-01,9.99999e-01,9.99999e-01,9.95204e-01,9.53989e-01,9.99994e-01
8.796253743e-01,9.48536e-01,9.99999e-01,9.99999e-01,9.93373e-01,9.54877e-01,9.99984e-01
8.840235012e-01,9.48472e-01,9.99999e-01,9.99999e-01,9.92432e-01,9.55748e-01,9.99953e-01
8.884436187e-01,9.30700e-01,9.99999e-01,9.99999e-01,9.73049e-01,9.56603e-01,9.99868e-01
8.928858368e-01,7.20968e-01,9.99999e-01,9.99999e-01,7.53586e-01,9.57442e-01,9.99240e-01
8.973502660e-01,5.80308e-01,9.99999e-01,9.99999e-01,6.07943e-01,9.58264e-01,9.96115e-01
9.018370173e-01,7.38927e-01,9.99999e-01,9.99999e-01,7.75189e-01,9.59072e-01,9.93899e-01
9.063462024e-01,7.62672e-01,9.99999e-01,9.99999e-01,7.98844e-01,9.59864e-01,9.94639e-01
9.108779334e-01,6.73068e-01,9.99999e-01,9.99999e-01,7.04568e-01,9.60641e-01,9.94430e-01
9.154323231e-01,6.40819e-01,9.99999e-01,9.99999e-01,6.69629e-01,9.61403e-01,9.95393e-01
9.200094847e-01,7.02292e-01,9.99999e-01,9.99999e-01,7.31806e-01,9.62151e-01,9.97419e-01
9.246095321e-01,6.06867e-01,9.99999e-01,9.99999e-01,6.32138e-01,9.62884e-01,9.97027e-01
9.292325798e-01,6.83409e-02,9.99999e-01,9.99999e-01,7.17503e-02,9.63604e-01,9.88456e-01
9.338787427e-01,2.57742e-02,9.99999e-01,9.99999e-01,2.80422e-02,9.64310e-01,9.53137e-01
9.385481364e-01,2.11843e-01,9.99999e-01,9.99999e-01,2.32422e-01,9.65002e-01,9.44514e-01
9.432408771e-01,1.35976e-01,9.99999e-01,9.99999e-01,1.47916e-01,9.65681e-01,9.51945e-01
9.479570815e-01,6.05077e-02,9.99999e-01,9.99999e-01,6.51753e-02,9.66348e-01,9.60711e-01
9.526968669e-01,1.11276e-01,9.99999e-01,9.99999e-01,1.17921e-01,9.67001e-01,9.75849e-01
9.574603512e-01,1.23016e-01,9.99999e-01,9.99999e-01,1.28718e-01,9.67642e-01,9.87658e-01
9.622476530e-01,1.72509e-01,9.99999e-01,9.99999e-01,1.79699e-01,9.68271e-01,9.91449e-01
9.670588912e-01,3.51779e-01,9.99999e-01,9.99999e-01,3.65213e-01,9.68888e-01,9.94144e-01
9.718941857e-01,4.97007e-01,9.99999e-01,9.99999e-01,5.14866e-01,9.69493e-01,9.95686e-01
9.767536566e-01,5.56329e-01,9.99999e-01,9.99999e-01,5.75380e-01,9.70087e-01,9.96701e-01
9.816374249e-01,6.40579e-01,9.99999e-01,9.99999e-01,6.60690e-01,9.70669e-01,9.98857e-01
9.865456120e-01,7.48148e-01,9.99999e-01,9.99999e-01,7.70484e-01,9.71240e-01,9.99761e-01
9.914783401e-01,8.26463e-01,9.99999e-01,9.99999e-01,8.50501e-01,9.71800e-01,9.99933e-01
9.964357318e-01,8.90186e-01,9.99999e-01,9.99999e-01,9.15535e-01,9.72349e-01,9.99960e-01
1.001417910e+00,9.22647e-01,9.99999e-01,9.99999e-01,9.48414e-01,9.72888e-01,9.99940e-01
1.006425000e+00,9.44388e-01,9.99999e-01,9.99999e-01,9.70260e-01,9.73416e-01,9.99915e-01
1.011457125e+00,9.55767e-01,9.99999e-01,9.99999e-01,9.81422e-01,9.73934e-01,9.99921e-01
1.016514411e+00,9.62068e-01,9.99999e-01,9.99999e-01,9.87354e-01,9.74442e-01,9.99944e-01
1.021596983e+00,9.65055e-01,9.99999e-01,9.99999e-01,9.89914e-01,9.74941e-01,9.99944e-01
1.026704968e+00,9.67714e-01,9.99999e-01,9.99999e-01,9.92126e-01,9.75430e-01,9.99962e-01
1.031838492e+00,9.70306e-01,9.99999e-01,9.99999e-01,9.94268e-01,9.75909e-01,9.99989e-01
1.036997685e+00,9.73053e-01,9.99999e-01,9.99999e-01,9.96594e-01,9.76379e-01,9.99997e-01
1.042182673e+00,9.72880e-01,9.99999e-01,9.99999e-01,9.95945e-01,9.76840e-01,9.99998e-01
1.047393587e+00,9.72037e-01,9.99999e-01,9.99999e-01,9.94623e-01,9.77293e-01,9.99998e-01
1.052630555e+00,9.70531e-01,9.99999e-01,9.99999e-01,9.92632e-01,9.77736e-01,9.99997e-01
1.057893707e+00,9.66174e-01,9.99999e-01,9.99999e-01,9.87738e-01,9.78171e-01,9.99995e-01
1.063183176e+00,9.58923e-01,9.99999e-01,9.99999e-01,9.79904e-01,9.78597e-01,9.99988e-01
1.068499092e+00,9.46276e-01,9.99999e-01,9.99999e-01,9.66580e-01,9.79016e-01,9.99976e-01
1.073841587e+00,9.41293e-01,9.99999e-01,9.99999e-01,9.61113e-01,9.79426e-01,9.99949e-01
1.079210795e+00,9.31020e-01,9.99999e-01,9.99999e-01,9.50315e-01,9.79828e-01,9.99863e-01
1.084606849e+00,9.07336e-01,9.99999e-01,9.99999e-01,9.25945e-01,9.80223e-01,9.99672e-01
1.090029883e+00,8.78018e-01,9.99999e-01,9.99999e-01,8.95986e-01,9.80609e-01,9.99321e-01
1.095480033e+00,7.26732e-01,9.99999e-01,9.99999e-01,7.41724e-01,9.80989e-01,9.98774e-01
1.100957433e+00,4.66293e-01,9.99999e-01,9.99999e-01,4.76223e-01,9.81361e-01,9.97745e-01
1.106462220e+00,1.68712e-01,9.99999e-01,9.99999e-01,1.72512e-01,9.81725e-01,9.96178e-01
1.111994531e+00,2.73497e-02,9.99999e-01,9.99999e-01,2.81331e-02,9.82083e-01,9.89887e-01
1.117554504e+00,4.10635e-03,9.99999e-01,9.99999e-01,4.33600e-03,9.82434e-01,9.63968e-01
1.123142276e+00,2.36509e-02,9.99999e-01,9.99999e-01,2.62534e-02,9.82778e-01,9.16656e-01
1.128757988e+00,6.19184e-02,9.99999e-01,9.99999e-01,6.96523e-02,9.83115e-01,9.04230e-01
1.134401778e+00,2.96598e-02,9.99999e-01,9.99999e-01,3.28543e-02,9.83446e-01,9.17960e-01
1.140073787e+00,1.67739e-01,9.99999e-01,9.99999e-01,1.82576e-01,9.83770e-01,9.33892e-01
1.145774156e+00,3.98420e-02,9.99999e-01,9.99999e-01,4.31018e-02,9.84088e-01,9.39314e-01
1.151503026e+00,2.82123e-02,9.99999e-01,9.99999e-01,2.96766e-02,9.84400e-01,9.65724e-01
1.157260541e+00,3.70093e-02,9.99999e-01,9.99999e-01,3.79780e-02,9.84706e-01,9.89626e-01
1.163046844e+00,8.50793e-02,9.99999e-01,9.99999e-01,8.66300e-02,9.85006e-01,9.97048e-01
1.168862078e+00,1.65646e-01,9.99999e-01,9.99999e-01,1.68374e-01,9.85299e-01,9.98478e-01
1.174706389e+00,3.24528e-01,9.99999e-01,9.99999e-01,3.29939e-01,9.85588e-01,9.97983e-01
1.180579921e+00,4.96241e-01,9.99999e-01,9.99999e-01,5.04891e-01,9.85870e-01,9.96952e-01
1.186482820e+00,6.64329e-01,9.99999e-01,9.99999e-01,6.75774e-01,9.86148e-01,9.96872e-01
1.192415234e+00,7.81906e-01,9.99999e-01,9.99999e-01,7.94531e-01,9.86419e-01,9.97656e-01
1.198377311e+00,8.11272e-01,9.99999e-01,9.99999e-01,8.24042e-01,9.86686e-01,9.97786e-01
1.204369197e+00,8.21067e-01,9.99999e-01,9.99999e-01,8.33594e-01,9.86947e-01,9.97996e-01
1.210391043e+00,8.27885e-01,9.99999e-01,9.99999e-01,8.39639e-01,9.87203e-01,9.98780e-01
1.216442998e+00,8.50304e-01,9.99999e-01,9.99999e-01,8.61750e-01,9.87454e-01,9.99253e-01
1.222525213e+00,8.78916e-01,9.99999e-01,9.99999e-01,8.90273e-01,9.87701e-01,9.99535e-01
1.228637839e+00,9.11094e-01,9.99999e-01,9.99999e-01,9.22412e-01,9.87942e-01,9.99783e-01
