#,Wave/freq,Total,N2,O2,H2O,Rayleigh,CIA
4.000000000e-01,8.18420e-01,9.99999e-01,9.99999e-01,9.99976e-01,8.18438e-01,9.99999e-01
4.020000000e-01,8.21675e-01,9.99999e-01,9.99999e-01,9.99985e-01,8.21687e-01,9.99999e-01
4.040100000e-01,8.24876e-01,9.99999e-01,9.99999e-01,9.99993e-01,8.24881e-01,9.99999e-01
4.060300500e-01,8.28022e-01,9.99999e-01,9.99999e-01,9.99998e-01,8.28023e-01,9.99999e-01
4.080602003e-01,8.31115e-01,9.99999e-01,9.99999e-01,9.99999e-01,8.31116e-01,9.99999e-01
4.101005013e-01,8.34158e-01,9.99999e-01,9.99999e-01,9.99999e-01,8.34158e-01,9.99999e-01
4.121510038e-01,8.37150e-01,9.99999e-01,9.99999e-01,9.99998e-01,8.37151e-01,9.99999e-01
4.142117588e-01,8.40090e-01,9.99999e-01,9.99999e-01,9.99993e-01,8.40095e-01,9.99999e-01
4.162828176e-01,8.42968e-01,9.99999e-01,9.99999e-01,9.99971e-01,8.42992e-01,9.99999e-01
4.183642317e-01,8.45826e-01,9.99999e-01,9.99999e-01,9.99982e-01,8.45841e-01,9.99999e-01
4.204560528e-01,8.48634e-01,9.99999e-01,9.99999e-01,9.99989e-01,8.48642e-01,9.99999e-01
4.225583331e-01,8.51395e-01,9.99999e-01,9.99999e-01,9.99995e-01,8.51398e-01,9.99999e-01
4.246711247e-01,8.54105e-01,9.99999e-01,9.99999e-01,9.99996e-01,8.54108e-01,9.99999e-01
4.267944804e-01,8.56768e-01,9.99999e-01,9.99999e-01,9.99995e-01,8.56772e-01,9.99999e-01
4.289284528e-01,8.59389e-01,9.99999e-01,9.99999e-01,9.99996e-01,8.59392e-01,9.99999e-01
4.310730950e-01,8.61967e-01,9.99999e-01,9.99999e-01,9.99998e-01,8.61968e-01,9.99999e-01
4.332284605e-01,8.64501e-01,9.99999e-01,9.99999e-01,9.99999e-01,8.64501e-01,9.99999e-01
4.353946028e-01,8.66991e-01,9.99999e-01,9.99999e-01,9.99999e-01,8.66991e-01,9.99999e-01
4.375715758e-01,8.69436e-01,9.99999e-01,9.99999e-01,9.99996e-01,8.69439e-01,9.99999e-01
4.397594337e-01,8.71823e-01,9.99999e-01,9.99999e-01,9.99974e-01,8.71845e-01,9.99999e-01
4.419582309e-01,8.74100e-01,9.99999e-01,9.99999e-01,9.99873e-01,8.74210e-01,9.99999e-01
4.441680220e-01,8.76449e-01,9.99999e-01,9.99999e-01,9.99902e-01,8.76534e-01,9.99999e-01
4.463888621e-01,8.78730e-01,9.99999e-01,9.99999e-01,9.99898e-01,8.78819e-01,9.99999e-01
4.486208064e-01,8.81008e-01,9.99999e-01,9.99999e-01,9.99936e-01,8.81064e-01,9.99999e-01
4.508639105e-01,8.83244e-01,9.99999e-01,9.99999e-01,9.99970e-01,8.83270e-01,9.99999e-01
4.531182300e-01,8.85428e-01,9.99999e-01,9.99999e-01,9.99987e-01,8.85438e-01,9.99999e-01
4.553838212e-01,8.87562e-01,9.99999e-01,9.99999e-01,9.99991e-01,8.87569e-01,9.99999e-01
4.576607403e-01,8.89659e-01,9.99999e-01,9.99999e-01,9.99995e-01,8.89662e-01,9.99999e-01
4.599490440e-01,8.91717e-01,9.99999e-01,9.99999e-01,9.99996e-01,8.91719e-01,9.99999e-01
4.622487892e-01,8.93740e-01,9.99999e-01,9.99999e-01,9.99999e-01,8.93740e-01,9.99999e-01
4.645600332e-01,8.95724e-01,9.99999e-01,9.99999e-01,9.99997e-01,8.95726e-01,9.99999e-01
4.668828333e-01,8.97649e-01,9.99999e-01,9.99999e-01,9.99969e-01,8.97676e-01,9.99999e-01
4.692172475e-01,8.99535e-01,9.99999e-01,9.99999e-01,9.99935e-01,8.99592e-01,9.99999e-01
4.715633337e-01,9.01437e-01,9.99999e-01,9.99999e-01,9.99957e-01,9.01474e-01,9.99999e-01
4.739211504e-01,9.03287e-01,9.99999e-01,9.99999e-01,9.99959e-01,9.03323e-01,9.99999e-01
4.762907561e-01,9.05120e-01,9.99999e-01,9.99999e-01,9.99978e-01,9.05139e-01,9.99999e-01
4.786722099e-01,9.06915e-01,9.99999e-01,9.99999e-01,9.99991e-01,9.06923e-01,9.99999e-01
4.810655710e-01,9.08672e-01,9.99999e-01,9.99999e-01,9.99996e-01,9.08675e-01,9.99999e-01
4.834708988e-01,9.10373e-01,9.99999e-01,9.99999e-01,9.99974e-01,9.10395e-01,9.99999e-01
4.858882533e-01,9.12044e-01,9.99999e-01,9.99999e-01,9.99954e-01,9.12085e-01,9.99999e-01
4.883176946e-01,9.13710e-01,9.99999e-01,9.99999e-01,9.99961e-01,9.13744e-01,9.99999e-01
4.907592831e-01,9.15342e-01,9.99999e-01,9.99999e-01,9.99965e-01,9.15374e-01,9.99999e-01
4.932130795e-01,9.16952e-01,9.99999e-01,9.99999e-01,9.99975e-01,9.16974e-01,9.99999e-01
4.956791449e-01,9.18533e-01,9.99999e-01,9.99999e-01,9.99986e-01,9.18545e-01,9.99999e-01
4.981575406e-01,9.20029e-01,9.99999e-01,9.99999e-01,9.99935e-01,9.20088e-01,9.99999e-01
5.006483283e-01,9.21448e-01,9.99999e-01,9.99999e-01,9.99833e-01,9.21603e-01,9.99998e-01
5.031515699e-01,9.22305e-01,9.99999e-01,9.99999e-01,9.99158e-01,9.23090e-01,9.99990e-01
5.056673278e-01,9.24131e-01,9.99999e-01,9.99999e-01,9.99556e-01,9.24550e-01,9.99989e-01
5.081956644e-01,9.25461e-01,9.99999e-01,9.99999e-01,9.99440e-01,9.25984e-01,9.99993e-01
5.107366428e-01,9.27041e-01,9.99999e-01,9.99999e-01,9.99622e-01,9.27392e-01,9.99998e-01
5.132903260e-01,9.28573e-01,9.99999e-01,9.99999e-01,9.99784e-01,9.28773e-01,9.99999e-01
5.158567776e-01,9.30045e-01,9.99999e-01,9.99999e-01,9.99908e-01,9.30130e-01,9.99999e-01
5.184360615e-01,9.31428e-01,9.99999e-01,9.99999e-01,9.99963e-01,9.31462e-01,9.99999e-01
5.210282418e-01,9.32756e-01,9.99999e-01,9.99999e-01,9.99985e-01,9.32769e-01,9.99999e-01
5.236333830e-01,9.34001e-01,9.99999e-01,9.99999e-01,9.99944e-01,9.34052e-01,9.99999e-01
5.262515499e-01,9.35279e-01,9.99999e-01,9.99999e-01,9.99965e-01,9.35312e-01,9.99998e-01
5.288828077e-01,9.36518e-01,9.99999e-01,9.99999e-01,9.99968e-01,9.36548e-01,9.99999e-01
5.315272217e-01,9.37735e-01,9.99999e-01,9.99999e-01,9.99971e-01,9.37761e-01,9.99999e-01
5.341848578e-01,9.38935e-01,9.99999e-01,9.99999e-01,9.99981e-01,9.38952e-01,9.99999e-01
5.368557821e-01,9.40061e-01,9.99999e-01,9.99999e-01,9.99935e-01,9.40121e-01,9.99999e-01
5.395400610e-01,9.41049e-01,9.99999e-01,9.99999e-01,9.99768e-01,9.41269e-01,9.99997e-01
5.422377613e-01,9.42110e-01,9.99999e-01,9.99999e-01,9.99702e-01,9.42395e-01,9.99994e-01
5.449489501e-01,9.43233e-01,9.99999e-01,9.99999e-01,9.99722e-01,9.43500e-01,9.99993e-01
5.476736949e-01,9.44351e-01,9.99999e-01,9.99999e-01,9.99754e-01,9.44584e-01,9.99996e-01
5.504120634e-01,9.45480e-01,9.99999e-01,9.99999e-01,9.99822e-01,9.45648e-01,9.99998e-01
5.531641237e-01,9.46608e-01,9.99999e-01,9.99999e-01,9.99910e-01,9.46693e-01,9.99999e-01
5.559299443e-01,9.47677e-01,9.99999e-01,9.99999e-01,9.99956e-01,9.47718e-01,9.99999e-01
5.587095940e-01,9.48698e-01,9.99999e-01,9.99999e-01,9.99972e-01,9.48724e-01,9.99999e-01
5.615031420e-01,9.49682e-01,9.99999e-01,9.99999e-01,9.99969e-01,9.49710e-01,9.99999e-01
5.643106577e-01,9.50646e-01,9.99999e-01,9.99999e-01,9.99965e-01,9.50679e-01,9.99999e-01
5.671322110e-01,9.51227e-01,9.99999e-01,9.99999e-01,9.99580e-01,9.51629e-01,9.99995e-01
5.699678720e-01,9.52131e-01,9.99999e-01,9.99999e-01,9.99559e-01,9.52561e-01,9.99988e-01
5.728177114e-01,9.53028e-01,9.99999e-01,9.99999e-01,9.99538e-01,9.53476e-01,9.99990e-01
5.756818000e-01,9.53966e-01,9.99999e-01,9.99999e-01,9.99577e-01,9.54374e-01,9.99994e-01
5.785602090e-01,9.54902e-01,9.99999e-01,9.99999e-01,9.99631e-01,9.55255e-01,9.99997e-01
5.814530100e-01,9.55765e-01,9.99999e-01,9.99999e-01,9.99629e-01,9.56119e-01,9.99998e-01
5.843602750e-01,9.56541e-01,9.99999e-01,9.99999e-01,9.99557e-01,9.56967e-01,9.99997e-01
5.872820764e-01,9.54125e-01,9.99999e-01,9.99999e-01,9.96191e-01,9.57798e-01,9.99972e-01
5.902184868e-01,9.54140e-01,9.99999e-01,9.99999e-01,9.95403e-01,9.58615e-01,9.99926e-01
5.931695792e-01,9.56228e-01,9.99999e-01,9.99999e-01,9.96747e-01,9.59415e-01,9.99929e-01
5.961354271e-01,9.56743e-01,9.99999e-01,9.99999e-01,9.96438e-01,9.60201e-01,9.99959e-01
5.991161043e-01,9.58464e-01,9.99999e-01,9.99999e-01,9.97403e-01,9.60971e-01,9.99987e-01
6.021116848e-01,9.60309e-01,9.99999e-01,9.99999e-01,9.98526e-01,9.61727e-01,9.99998e-01
6.051222432e-01,9.61751e-01,9.99999e-01,9.99999e-01,9.99254e-01,9.62469e-01,9.99999e-01
6.081478544e-01,9.62887e-01,9.99999e-01,9.99999e-01,9.99677e-01,9.63196e-01,9.99999e-01
6.111885937e-01,9.63779e-01,9.99999e-01,9.99999e-01,9.99863e-01,9.63910e-01,9.99999e-01
6.142445367e-01,9.64551e-01,9.99999e-01,9.99999e-01,9.99938e-01,9.64610e-01,9.99999e-01
6.173157594e-01,9.65264e-01,9.99999e-01,9.99999e-01,9.99966e-01,9.65297e-01,9.99999e-01
6.204023382e-01,9.65943e-01,9.99999e-01,9.99999e-01,9.99971e-01,9.65970e-01,9.99999e-01
6.235043498e-01,9.66509e-01,9.99999e-01,9.99999e-01,9.99873e-01,9.66631e-01,9.99999e-01
6.266218716e-01,9.66634e-01,9.99999e-01,9.99999e-01,9.99337e-01,9.67279e-01,9.99994e-01
6.297549810e-01,9.67671e-01,9.99999e-01,9.99999e-01,9.99756e-01,9.67915e-01,9.99990e-01
6.329037559e-01,9.68067e-01,9.99999e-01,9.99999e-01,9.99520e-01,9.68539e-01,9.99992e-01
6.360682746e-01,9.68750e-01,9.99999e-01,9.99999e-01,9.99590e-01,9.69151e-01,9.99995e-01
6.392486160e-01,9.69235e-01,9.99999e-01,9.99999e-01,9.99469e-01,9.69751e-01,9.99997e-01
6.424448591e-01,9.69645e-01,9.99999e-01,9.99999e-01,9.99288e-01,9.70339e-01,9.99996e-01
6.456570834e-01,9.67692e-01,9.99999e-01,9.99999e-01,9.96698e-01,9.70916e-01,9.99979e-01
6.488853688e-01,9.69095e-01,9.99999e-01,9.99999e-01,9.97593e-01,9.71483e-01,9.99948e-01
6.521297956e-01,9.69613e-01,9.99999e-01,9.99999e-01,9.97546e-01,9.72038e-01,9.99957e-01
6.553904446e-01,9.70173e-01,9.99999e-01,9.99999e-01,9.97553e-01,9.72583e-01,9.99968e-01
6.586673968e-01,9.71071e-01,9.99999e-01,9.99999e-01,9.97908e-01,9.73117e-01,9.99989e-01
6.619607338e-01,9.72504e-01,9.99999e-01,9.99999e-01,9.98834e-01,9.73641e-01,9.99997e-01
6.652705375e-01,9.73472e-01,9.99999e-01,9.99999e-01,9.99300e-01,9.74155e-01,9.99998e-01
6.685968902e-01,9.74369e-01,9.99999e-01,9.99999e-01,9.99702e-01,9.74659e-01,9.99999e-01
6.719398746e-01,9.75006e-01,9.99999e-01,9.99999e-01,9.99849e-01,9.75153e-01,9.99999e-01
6.752995740e-01,9.75558e-01,9.99999e-01,9.99999e-01,9.99917e-01,9.75638e-01,9.99999e-01
6.786760719e-01,9.75997e-01,9.99999e-01,9.99999e-01,9.99881e-01,9.76113e-01,9.99999e-01
6.820694522e-01,9.76381e-01,9.99999e-01,9.99999e-01,9.99797e-01,9.76579e-01,9.99998e-01
6.854797995e-01,9.76780e-01,9.99999e-01,9.99999e-01,9.99738e-01,9.77036e-01,9.99997e-01
6.889071985e-01,9.76858e-01,9.99999e-01,9.99999e-01,9.99364e-01,9.77485e-01,9.99993e-01
6.923517345e-01,9.67807e-01,9.99999e-01,9.99999e-01,9.89702e-01,9.77925e-01,9.99950e-01
6.958134932e-01,9.73045e-01,9.99999e-01,9.99999e-01,9.94680e-01,9.78356e-01,9.99890e-01
6.992925606e-01,9.73694e-01,9.99999e-01,9.99999e-01,9.94902e-01,9.78779e-01,9.99901e-01
7.027890234e-01,9.72981e-01,9.99999e-01,9.99999e-01,9.93729e-01,9.79194e-01,9.99924e-01
7.063029686e-01,9.74397e-01,9.99999e-01,9.99999e-01,9.94724e-01,9.79600e-01,9.99962e-01
7.098344834e-01,9.75018e-01,9.99999e-01,9.99999e-01,9.94938e-01,9.79999e-01,9.99977e-01
7.133836558e-01,9.73704e-01,9.99999e-01,9.99999e-01,9.93223e-01,9.80390e-01,9.99955e-01
7.169505741e-01,9.28292e-01,9.99999e-01,9.99999e-01,9.46816e-01,9.80774e-01,9.99653e-01
7.205353270e-01,9.54883e-01,9.99999e-01,9.99999e-01,9.73822e-01,9.81150e-01,9.99389e-01
7.241380036e-01,9.48288e-01,9.99999e-01,9.99999e-01,9.66652e-01,9.81519e-01,9.99472e-01
7.277586936e-01,9.51888e-01,9.99999e-01,9.99999e-01,9.69871e-01,9.81881e-01,9.99568e-01
7.313974871e-01,9.50693e-01,9.99999e-01,9.99999e-01,9.68082e-01,9.82235e-01,9.99797e-01
7.350544745e-01,9.65256e-01,9.99999e-01,9.99999e-01,9.82433e-01,9.82583e-01,9.99929e-01
7.387297469e-01,9.70167e-01,9.99999e-01,9.99999e-01,9.87051e-01,9.82924e-01,9.99967e-01
7.424233956e-01,9.77012e-01,9.99999e-01,9.99999e-01,9.93652e-01,9.83259e-01,9.99993e-01
7.461355126e-01,9.79796e-01,9.99999e-01,9.99999e-01,9.96147e-01,9.83587e-01,9.99998e-01
7.498661902e-01,9.82144e-01,9.99999e-01,9.99999e-01,9.98206e-01,9.83908e-01,9.99999e-01
7.536155211e-01,9.83357e-01,9.99999e-01,9.99999e-01,9.99119e-01,9.84223e-01,9.99999e-01
7.573835987e-01,9.84086e-01,9.99999e-01,9.99999e-01,9.99546e-01,9.84533e-01,9.99999e-01
7.611705167e-01,9.84558e-01,9.99999e-01,9.99999e-01,9.99717e-01,9.84836e-01,9.99999e-01
7.649763693e-01,9.84959e-01,9.99999e-01,9.99999e-01,9.99822e-01,9.85133e-01,9.99999e-01
7.688012511e-01,9.85303e-01,9.99999e-01,9.99999e-01,9.99876e-01,9.85425e-01,9.99999e-01
7.726452574e-01,9.85611e-01,9.99999e-01,9.99999e-01,9.99898e-01,9.85710e-01,9.99999e-01
7.765084837e-01,9.85848e-01,9.99999e-01,9.99999e-01,9.99855e-01,9.85991e-01,9.99999e-01
7.803910261e-01,9.85649e-01,9.99999e-01,9.99999e-01,9.99375e-01,9.86265e-01,9.99998e-01
7.842929812e-01,9.84381e-01,9.99999e-01,9.99999e-01,9.97820e-01,9.86535e-01,9.99995e-01
7.882144461e-01,9.82358e-01,9.99999e-01,9.99999e-01,9.95529e-01,9.86799e-01,9.99968e-01
7.921555184e-01,9.84590e-01,9.99999e-01,9.99999e-01,9.97551e-01,9.87058e-01,9.99946e-01
7.961162960e-01,9.82973e-01,9.99999e-01,9.99999e-01,9.95655e-01,9.87312e-01,9.99948e-01
8.000968774e-01,9.82566e-01,9.99999e-01,9.99999e-01,9.94995e-01,9.87561e-01,9.99945e-01
8.040973618e-01,9.82817e-01,9.99999e-01,9.99999e-01,9.94990e-01,9.87805e-01,9.99958e-01
8.081178486e-01,9.76847e-01,9.99999e-01,9.99999e-01,9.88707e-01,9.88045e-01,9.99957e-01
8.121584379e-01,9.42428e-01,9.99999e-01,9.99999e-01,9.53754e-01,9.88279e-01,9.99841e-01
8.162192301e-01,9.34123e-01,9.99999e-01,9.99999e-01,9.45542e-01,9.88510e-01,9.99405e-01
8.203003262e-01,9.60677e-01,9.99999e-01,9.99999e-01,9.72297e-01,9.88735e-01,9.99304e-01
8.244018279e-01,9.50727e-01,9.99999e-01,9.99999e-01,9.61875e-01,9.88956e-01,9.99446e-01
8.285238370e-01,9.56185e-01,9.99999e-01,9.99999e-01,9.67070e-01,9.89173e-01,9.99564e-01
8.326664562e-01,9.56339e-01,9.99999e-01,9.99999e-01,9.66771e-01,9.89386e-01,9.99819e-01
8.368297885e-01,9.65984e-01,9.99999e-01,9.99999e-01,9.76180e-01,9.89595e-01,9.99958e-01
8.410139374e-01,9.75709e-01,9.99999e-01,9.99999e-01,9.85787e-01,9.89799e-01,9.99975e-01
8.452190071e-01,9.83068e-01,9.99999e-01,9.99999e-01,9.93012e-01,9.90000e-01,9.99985e-01
8.494451021e-01,9.86160e-01,9.99999e-01,9.99999e-01,9.95935e-01,9.90196e-01,9.99987e-01
8.536923276e-01,9.88004e-01,9.99999e-01,9.99999e-01,9.97598e-01,9.90389e-01,9.99992e-01
8.579607893e-01,9.89109e-01,9.99999e-01,9.99999e-01,9.98518e-01,9.90578e-01,9.99997e-01
8.622505932e-01,9.89831e-01,9.99999e-01,9.99999e-01,9.99059e-01,9.90763e-01,9.99999e-01
8.665618462e-01,9.90367e-01,9.99999e-01,9.99999e-01,9.99417e-01,9.90945e-01,9.99999e-01
8.708946554e-01,9.90461e-01,9.99999e-01,9.99999e-01,9.99332e-01,9.91123e-01,9.99999e-01
8.752491287e-01,9.90412e-01,9.99999e-01,9.99999e-01,9.99107e-01,9.91297e-01,9.99998e-01
8.796253743e-01,9.90239e-01,9.99999e-01,9.99999e-01,9.98762e-01,9.91468e-01,9.99996e-01
8.840235012e-01,9.90226e-01,9.99999e-01,9.99999e-01,9.98586e-01,9.91636e-01,9.99990e-01
8.884436187e-01,9.86632e-01,9.99999e-01,9.99999e-01,9.94812e-01,9.91801e-01,9.99975e-01
8.928858368e-01,9.39120e-01,9.99999e-01,9.99999e-01,9.46862e-01,9.91962e-01,9.99858e-01
8.973502660e-01,9.00428e-01,9.99999e-01,9.99999e-01,9.08234e-01,9.92120e-01,9.99277e-01
9.018370173e-01,9.43772e-01,9.99999e-01,9.99999e-01,9.52199e-01,9.92275e-01,9.98864e-01
9.063462024e-01,9.49350e-01,9.99999e-01,9.99999e-01,9.57548e-01,9.92427e-01,9.99001e-01
9.108779334e-01,9.26814e-01,9.99999e-01,9.99999e-01,9.34714e-01,9.92576e-01,9.98962e-01
9.154323231e-01,9.18704e-01,9.99999e-01,9.99999e-01,9.26232e-01,9.92722e-01,9.99142e-01
9.200094847e-01,9.34644e-01,9.99999e-01,9.99999e-01,9.41811e-01,9.92865e-01,9.99519e-01
9.246095321e-01,9.03027e-01,9.99999e-01,9.99999e-01,9.09889e-01,9.93006e-01,9.99446e-01
9.292325798e-01,5.30277e-01,9.99999e-01,9.99999e-01,5.35090e-01,9.93143e-01,9.97846e-01
9.338787427e-01,4.41228e-01,9.99999e-01,9.99999e-01,4.48190e-01,9.93278e-01,9.91127e-01
9.385481364e-01,7.10956e-01,9.99999e-01,9.99999e-01,7.23297e-01,9.93411e-01,9.89455e-01
9.432408771e-01,6.27520e-01,9.99999e-01,9.99999e-01,6.37401e-01,9.93540e-01,9.90896e-01
9.479570815e-01,5.31292e-01,9.99999e-01,9.99999e-01,5.38672e-01,9.93668e-01,9.92584e-01
9.526968669e-01,6.21407e-01,9.99999e-01,9.99999e-01,6.28133e-01,9.93792e-01,9.95470e-01
9.574603512e-01,6.44655e-01,9.99999e-01,9.99999e-01,6.50098e-01,9.93914e-01,9.97696e-01
9.622476530e-01,6.98902e-01,9.99999e-01,9.99999e-01,7.04217e-01,9.94034e-01,9.98406e-01
9.670588912e-01,8.11097e-01,9.99999e-01,9.99999e-01,8.16758e-01,9.94152e-01,9.98909e-01
9.718941857e-01,8.75113e-01,9.99999e-01,9.99999e-01,8.80865e-01,9.94267e-01,9.99197e-01
9.767536566e-01,8.94427e-01,9.99999e-01,9.99999e-01,9.00033e-01,9.94380e-01,9.99386e-01
9.816374249e-01,9.19690e-01,9.99999e-01,9.99999e-01,9.24980e-01,9.94491e-01,9.99787e-01
9.865456120e-01,9.47268e-01,9.99999e-01,9.99999e-01,9.52453e-01,9.94599e-01,9.99955e-01
9.914783401e-01,9.65185e-01,9.99999e-01,9.99999e-01,9.70333e-01,9.94705e-01,9.99987e-01
9.964357318e-01,9.78626e-01,9.99999e-01,9.99999e-01,9.83738e-01,9.94810e-01,9.99992e-01
1.001417910e+00,9.85177e-01,9.99999e-01,9.99999e-01,9.90225e-01,9.94912e-01,9.99988e-01
1.006425000e+00,9.89438e-01,9.99999e-01,9.99999e-01,9.94412e-01,9.95012e-01,9.99983e-01
1.011457125e+00,9.91646e-01,9.99999e-01,9.99999e-01,9.96532e-01,9.95110e-01,9.99985e-01
1.016514411e+00,9.92852e-01,9.99999e-01,9.99999e-01,9.97643e-01,9.95207e-01,9.99989e-01
1.021596983e+00,9.93422e-01,9.99999e-01,9.99999e-01,9.98121e-01,9.95301e-01,9.99989e-01
1.026704968e+00,9.93929e-01,9.99999e-01,9.99999e-01,9.98534e-01,9.95394e-01,9.99993e-01
1.031838492e+00,9.94423e-01,9.99999e-01,9.99999e-01,9.98935e-01,9.95485e-01,9.99997e-01
1.036997685e+00,9.94943e-01,9.99999e-01,9.99999e-01,9.99366e-01,9.95574e-01,9.99999e-01
1.042182673e+00,9.94909e-01,9.99999e-01,9.99999e-01,9.99244e-01,9.95661e-01,9.99999e-01
1.047393587e+00,9.94749e-01,9.99999e-01,9.99999e-01,9.98998e-01,9.95746e-01,9.99999e-01
1.052630555e+00,9.94461e-01,9.99999e-01,9.99999e-01,9.98625e-01,9.95830e-01,9.99999e-01
1.057893707e+00,9.93626e-01,9.99999e-01,9.99999e-01,9.97704e-01,9.95912e-01,9.99998e-01
1.063183176e+00,9.92232e-01,9.99999e-01,9.99999e-01,9.96226e-01,9.95993e-01,9.99997e-01
1.068499092e+00,9.89783e-01,9.99999e-01,9.99999e-01,9.93690e-01,9.96072e-01,9.99995e-01
1.073841587e+00,9.88781e-01,9.99999e-01,9.99999e-01,9.92612e-01,9.96149e-01,9.99990e-01
1.079210795e+00,9.86791e-01,9.99999e-01,9.99999e-01,9.90554e-01,9.96225e-01,9.99974e-01
1.084606849e+00,9.82017e-01,9.99999e-01,9.99999e-01,9.85723e-01,9.96300e-01,9.99938e-01
1.090029883e+00,9.75828e-01,9.99999e-01,9.99999e-01,9.79503e-01,9.96372e-01,9.99873e-01
1.095480033e+00,9.41596e-01,9.99999e-01,9.99999e-01,9.45170e-01,9.96444e-01,9.99771e-01
1.100957433e+00,8.63183e-01,9.99999e-01,9.99999e-01,8.66564e-01,9.96514e-01,9.99580e-01
1.106462220e+00,6.92792e-01,9.99999e-01,9.99999e-01,6.95662e-01,9.96583e-01,9.99288e-01
1.111994531e+00,4.66104e-01,9.99999e-01,9.99999e-01,4.68554e-01,9.96650e-01,9.98114e-01
1.117554504e+00,2.92197e-01,9.99999e-01,9.99999e-01,2.95164e-01,9.96716e-01,9.93208e-01
1.123142276e+00,4.05089e-01,9.99999e-01,9.99999e-01,4.13017e-01,9.96781e-01,9.83970e-01
1.128757988e+00,5.50932e-01,9.99999e-01,9.99999e-01,5.63103e-01,9.96844e-01,9.81480e-01
1.134401778e+00,3.03203e-01,9.99999e-01,9.99999e-01,3.09016e-01,9.96907e-01,9.84230e-01
1.140073787e+00,6.96779e-01,9.99999e-01,9.99999e-01,7.07830e-01,9.96968e-01,9.87380e-01
1.145774156e+00,4.82899e-01,9.99999e-01,9.99999e-01,4.90002e-01,9.97027e-01,9.88442e-01
1.151503026e+00,4.48536e-01,9.99999e-01,9.99999e-01,4.52769e-01,9.97086e-01,9.93544e-01
1.157260541e+00,5.09936e-01,9.99999e-01,9.99999e-01,5.12387e-01,9.97143e-01,9.98065e-01
1.163046844e+00,6.07718e-01,9.99999e-01,9.99999e-01,6.09759e-01,9.97200e-01,9.99450e-01
1.168862078e+00,7.06128e-01,9.99999e-01,9.99999e-01,7.08271e-01,9.97255e-01,9.99716e-01
1.174706389e+00,8.05731e-01,9.99999e-01,9.99999e-01,8.08207e-01,9.97309e-01,9.99624e-01
1.180579921e+00,8.75535e-01,9.99999e-01,9.99999e-01,8.78347e-01,9.97362e-01,9.99433e-01
1.186482820e+00,9.26330e-01,9.99999e-01,9.99999e-01,9.29270e-01,9.97414e-01,9.99418e-01
1.192415234e+00,9.55237e-01,9.99999e-01,9.99999e-01,9.58080e-01,9.97465e-01,9.99564e-01
1.198377311e+00,9.61735e-01,9.99999e-01,9.99999e-01,9.64526e-01,9.97515e-01,9.99588e-01
1.204369197e+00,9.63706e-01,9.99999e-01,9.99999e-01,9.66418e-01,9.97564e-01,9.99627e-01
1.210391043e+00,9.65334e-01,9.99999e-01,9.99999e-01,9.67862e-01,9.97612e-01,9.99773e-01
1.216442998e+00,9.70210e-01,9.99999e-01,9.99999e-01,9.72620e-01,9.97659e-01,9.99860e-01
1.222525213e+00,9.76284e-01,9.99999e-01,9.99999e-01,9.78612e-01,9.97705e-01,9.99913e-01
1.228637839e+00,9.82843e-01,9.99999e-01,9.99999e-01,9.85098e-01,9.97751e-01,9.99959e-01
