#,Wave/freq,Total,N2,O2,H2O,Rayleigh,CIA
4.000000000e-01,7.55600e-01,9.99999e-01,9.99999e-01,9.99967e-01,7.55624e-01,9.99999e-01
4.020000000e-01,7.59807e-01,9.99999e-01,9.99999e-01,9.99979e-01,7.59822e-01,9.99999e-01
4.040100000e-01,7.63950e-01,9.99999e-01,9.99999e-01,9.99991e-01,7.63956e-01,9.99999e-01
4.060300500e-01,7.68028e-01,9.99999e-01,9.99999e-01,9.99997e-01,7.68030e-01,9.99999e-01
4.080602003e-01,7.72044e-01,9.99999e-01,9.99999e-01,9.99998e-01,7.72044e-01,9.99999e-01
4.101005013e-01,7.75999e-01,9.99999e-01,9.99999e-01,9.99999e-01,7.75999e-01,9.99999e-01
4.121510038e-01,7.79896e-01,9.99999e-01,9.99999e-01,9.99998e-01,7.79896e-01,9.99999e-01
4.142117588e-01,7.83729e-01,9.99999e-01,9.99999e-01,9.99990e-01,7.83735e-01,9.99999e-01
4.162828176e-01,7.87486e-01,9.99999e-01,9.99999e-01,9.99960e-01,7.87517e-01,9.99999e-01
4.183642317e-01,7.91223e-01,9.99999e-01,9.99999e-01,9.99976e-01,7.91241e-01,9.99999e-01
4.204560528e-01,7.94898e-01,9.99999e-01,9.99999e-01,9.99985e-01,7.94909e-01,9.99999e-01
4.225583331e-01,7.98517e-01,9.99999e-01,9.99999e-01,9.99994e-01,7.98521e-01,9.99999e-01
4.246711247e-01,8.02075e-01,9.99999e-01,9.99999e-01,9.99995e-01,8.02078e-01,9.99999e-01
4.267944804e-01,8.05575e-01,9.99999e-01,9.99999e-01,9.99993e-01,8.05580e-01,9.99999e-01
4.289284528e-01,8.09023e-01,9.99999e-01,9.99999e-01,9.99994e-01,8.09027e-01,9.99999e-01
4.310730950e-01,8.12419e-01,9.99999e-01,9.99999e-01,9.99997e-01,8.12421e-01,9.99999e-01
4.332284605e-01,8.15761e-01,9.99999e-01,9.99999e-01,9.99998e-01,8.15761e-01,9.99999e-01
4.353946028e-01,8.19049e-01,9.99999e-01,9.99999e-01,9.99999e-01,8.19049e-01,9.99999e-01
4.375715758e-01,8.22282e-01,9.99999e-01,9.99999e-01,9.99995e-01,8.22285e-01,9.99999e-01
4.397594337e-01,8.25441e-01,9.99999e-01,9.99999e-01,9.99965e-01,8.25469e-01,9.99999e-01
4.419582309e-01,8.28460e-01,9.99999e-01,9.99999e-01,9.99827e-01,8.28602e-01,9.99999e-01
4.441680220e-01,8.31571e-01,9.99999e-01,9.99999e-01,9.99862e-01,8.31685e-01,9.99999e-01
4.463888621e-01,8.34600e-01,9.99999e-01,9.99999e-01,9.99857e-01,8.34719e-01,9.99999e-01
4.486208064e-01,8.37628e-01,9.99999e-01,9.99999e-01,9.99910e-01,8.37703e-01,9.99999e-01
4.508639105e-01,8.40603e-01,9.99999e-01,9.99999e-01,9.99958e-01,8.40638e-01,9.99999e-01
4.531182300e-01,8.43512e-01,9.99999e-01,9.99999e-01,9.99983e-01,8.43525e-01,9.99999e-01
4.553838212e-01,8.46356e-01,9.99999e-01,9.99999e-01,9.99988e-01,8.46365e-01,9.99999e-01
4.576607403e-01,8.49154e-01,9.99999e-01,9.99999e-01,9.99994e-01,8.49159e-01,9.99999e-01
4.599490440e-01,8.51902e-01,9.99999e-01,9.99999e-01,9.99995e-01,8.51906e-01,9.99999e-01
4.622487892e-01,8.54606e-01,9.99999e-01,9.99999e-01,9.99998e-01,8.54607e-01,9.99999e-01
4.645600332e-01,8.57261e-01,9.99999e-01,9.99999e-01,9.99997e-01,8.57263e-01,9.99999e-01
4.668828333e-01,8.59839e-01,9.99999e-01,9.99999e-01,9.99958e-01,8.59875e-01,9.99999e-01
4.692172475e-01,8.62366e-01,9.99999e-01,9.99999e-01,9.99910e-01,8.62443e-01,9.99999e-01
4.715633337e-01,8.64917e-01,9.99999e-01,9.99999e-01,9.99941e-01,8.64968e-01,9.99999e-01
4.739211504e-01,8.67401e-01,9.99999e-01,9.99999e-01,9.99943e-01,8.67450e-01,9.99999e-01
4.762907561e-01,8.69864e-01,9.99999e-01,9.99999e-01,9.99970e-01,8.69889e-01,9.99999e-01
4.786722099e-01,8.72277e-01,9.99999e-01,9.99999e-01,9.99987e-01,8.72288e-01,9.99999e-01
4.810655710e-01,8.74642e-01,9.99999e-01,9.99999e-01,9.99995e-01,8.74645e-01,9.99999e-01
4.834708988e-01,8.76933e-01,9.99999e-01,9.99999e-01,9.99966e-01,8.76962e-01,9.99999e-01
4.858882533e-01,8.79184e-01,9.99999e-01,9.99999e-01,9.99936e-01,8.79239e-01,9.99999e-01
4.883176946e-01,8.81431e-01,9.99999e-01,9.99999e-01,9.99947e-01,8.81477e-01,9.99999e-01
4.907592831e-01,8.83634e-01,9.99999e-01,9.99999e-01,9.99951e-01,8.83677e-01,9.99999e-01
4.932130795e-01,8.85808e-01,9.99999e-01,9.99999e-01,9.99965e-01,8.85838e-01,9.99999e-01
4.956791449e-01,8.87945e-01,9.99999e-01,9.99999e-01,9.99981e-01,8.87961e-01,9.99999e-01
4.981575406e-01,8.89969e-01,9.99999e-01,9.99999e-01,9.99910e-01,8.90048e-01,9.99999e-01
5.006483283e-01,8.91892e-01,9.99999e-01,9.99999e-01,9.99770e-01,8.92098e-01,9.99997e-01
5.031515699e-01,8.93053e-01,9.99999e-01,9.99999e-01,9.98827e-01,8.94112e-01,9.99987e-01
5.056673278e-01,8.95522e-01,9.99999e-01,9.99999e-01,9.99378e-01,8.96091e-01,9.99985e-01
5.081956644e-01,8.97323e-01,9.99999e-01,9.99999e-01,9.99215e-01,8.98035e-01,9.99990e-01
5.107366428e-01,8.99467e-01,9.99999e-01,9.99999e-01,9.99469e-01,8.99945e-01,9.99997e-01
5.132903260e-01,9.01547e-01,9.99999e-01,9.99999e-01,9.99696e-01,9.01821e-01,9.99999e-01
5.158567776e-01,9.03547e-01,9.99999e-01,9.99999e-01,9.99871e-01,9.03663e-01,9.99999e-01
5.184360615e-01,9.05427e-01,9.99999e-01,9.99999e-01,9.99948e-01,9.05473e-01,9.99999e-01
5.210282418e-01,9.07234e-01,9.99999e-01,9.99999e-01,9.99980e-01,9.07251e-01,9.99999e-01
5.236333830e-01,9.08927e-01,9.99999e-01,9.99999e-01,9.99923e-01,9.08997e-01,9.99998e-01
5.262515499e-01,9.10667e-01,9.99999e-01,9.99999e-01,9.99951e-01,9.10712e-01,9.99998e-01
5.288828077e-01,9.12355e-01,9.99999e-01,9.99999e-01,9.99955e-01,9.12396e-01,9.99999e-01
5.315272217e-01,9.14014e-01,9.99999e-01,9.99999e-01,9.99960e-01,9.14050e-01,9.99999e-01
5.341848578e-01,9.15651e-01,9.99999e-01,9.99999e-01,9.99974e-01,9.15674e-01,9.99999e-01
5.368557821e-01,9.17187e-01,9.99999e-01,9.99999e-01,9.99910e-01,9.17268e-01,9.99999e-01
5.395400610e-01,9.18540e-01,9.99999e-01,9.99999e-01,9.99681e-01,9.18834e-01,9.99996e-01
5.422377613e-01,9.19981e-01,9.99999e-01,9.99999e-01,9.99582e-01,9.20372e-01,9.99991e-01
5.449489501e-01,9.21520e-01,9.99999e-01,9.99999e-01,9.99614e-01,9.21881e-01,9.99991e-01
5.476736949e-01,9.23043e-01,9.99999e-01,9.99999e-01,9.99655e-01,9.23364e-01,9.99995e-01
5.504120634e-01,9.24587e-01,9.99999e-01,9.99999e-01,9.99749e-01,9.24819e-01,9.99998e-01
5.531641237e-01,9.26131e-01,9.99999e-01,9.99999e-01,9.99873e-01,9.26248e-01,9.99999e-01
5.559299443e-01,9.27594e-01,9.99999e-01,9.99999e-01,9.99938e-01,9.27651e-01,9.99999e-01
5.587095940e-01,9.28993e-01,9.99999e-01,9.99999e-01,9.99961e-01,9.29028e-01,9.99999e-01
5.615031420e-01,9.30340e-01,9.99999e-01,9.99999e-01,9.99957e-01,9.30380e-01,9.99999e-01
5.643106577e-01,9.31663e-01,9.99999e-01,9.99999e-01,9.99952e-01,9.31707e-01,9.99999e-01
5.671322110e-01,9.32475e-01,9.99999e-01,9.99999e-01,9.99431e-01,9.33009e-01,9.99994e-01
5.699678720e-01,9.33690e-01,9.99999e-01,9.99999e-01,9.99375e-01,9.34288e-01,9.99983e-01
5.728177114e-01,9.34931e-01,9.99999e-01,9.99999e-01,9.99357e-01,9.35543e-01,9.99986e-01
5.756818000e-01,9.36215e-01,9.99999e-01,9.99999e-01,9.99409e-01,9.36775e-01,9.99991e-01
5.785602090e-01,9.37498e-01,9.99999e-01,9.99999e-01,9.99483e-01,9.37985e-01,9.99997e-01
5.814530100e-01,9.38685e-01,9.99999e-01,9.99999e-01,9.99482e-01,9.39172e-01,9.99998e-01
5.843602750e-01,9.39760e-01,9.99999e-01,9.99999e-01,9.99389e-01,9.40336e-01,9.99996e-01
5.872820764e-01,9.36491e-01,9.99999e-01,9.99999e-01,9.94737e-01,9.41480e-01,9.99962e-01
5.902184868e-01,9.36436e-01,9.99999e-01,9.99999e-01,9.93559e-01,9.42602e-01,9.99897e-01
5.931695792e-01,9.39329e-01,9.99999e-01,9.99999e-01,9.95462e-01,9.43703e-01,9.99900e-01
5.961354271e-01,9.40018e-01,9.99999e-01,9.99999e-01,9.95014e-01,9.44784e-01,9.99939e-01
5.991161043e-01,9.42383e-01,9.99999e-01,9.99999e-01,9.96357e-01,9.45844e-01,9.99982e-01
6.021116848e-01,9.44922e-01,9.99999e-01,9.99999e-01,9.97928e-01,9.46885e-01,9.99997e-01
6.051222432e-01,9.46912e-01,9.99999e-01,9.99999e-01,9.98951e-01,9.47906e-01,9.99999e-01
6.081478544e-01,9.48480e-01,9.99999e-01,9.99999e-01,9.99547e-01,9.48909e-01,9.99999e-01
6.111885937e-01,9.49710e-01,9.99999e-01,9.99999e-01,9.99807e-01,9.49892e-01,9.99999e-01
6.142445367e-01,9.50776e-01,9.99999e-01,9.99999e-01,9.99914e-01,9.50857e-01,9.99999e-01
6.173157594e-01,9.51759e-01,9.99999e-01,9.99999e-01,9.99952e-01,9.51804e-01,9.99999e-01
6.204023382e-01,9.52695e-01,9.99999e-01,9.99999e-01,9.99959e-01,9.52733e-01,9.99999e-01
6.235043498e-01,9.53481e-01,9.99999e-01,9.99999e-01,9.99828e-01,9.53645e-01,9.99999e-01
6.266218716e-01,9.53650e-01,9.99999e-01,9.99999e-01,9.99074e-01,9.54539e-01,9.99993e-01
6.297549810e-01,9.55080e-01,9.99999e-01,9.99999e-01,9.99660e-01,9.55417e-01,9.99986e-01
6.329037559e-01,9.55625e-01,9.99999e-01,9.99999e-01,9.99326e-01,9.56278e-01,9.99989e-01
6.360682746e-01,9.56571e-01,9.99999e-01,9.99999e-01,9.99429e-01,9.57123e-01,9.99993e-01
6.392486160e-01,9.57240e-01,9.99999e-01,9.99999e-01,9.99259e-01,9.57951e-01,9.99996e-01
6.424448591e-01,9.57910e-01,9.99999e-01,9.99999e-01,9.99112e-01,9.58765e-01,9.99995e-01
6.456570834e-01,9.55202e-01,9.99999e-01,9.99999e-01,9.95480e-01,9.59562e-01,9.99974e-01
6.488853688e-01,9.56468e-01,9.99999e-01,9.99999e-01,9.96032e-01,9.60345e-01,9.99928e-01
6.521297956e-01,9.57749e-01,9.99999e-01,9.99999e-01,9.96559e-01,9.61113e-01,9.99939e-01
6.553904446e-01,9.58557e-01,9.99999e-01,9.99999e-01,9.96604e-01,9.61866e-01,9.99954e-01
6.586673968e-01,9.59763e-01,9.99999e-01,9.99999e-01,9.97061e-01,9.62605e-01,9.99984e-01
6.619607338e-01,9.61691e-01,9.99999e-01,9.99999e-01,9.98301e-01,9.63330e-01,9.99996e-01
6.652705375e-01,9.63089e-01,9.99999e-01,9.99999e-01,9.99013e-01,9.64041e-01,9.99997e-01
6.685968902e-01,9.64297e-01,9.99999e-01,9.99999e-01,9.99541e-01,9.64739e-01,9.99999e-01
6.719398746e-01,9.65218e-01,9.99999e-01,9.99999e-01,9.99787e-01,9.65423e-01,9.99999e-01
6.752995740e-01,9.65984e-01,9.99999e-01,9.99999e-01,9.99885e-01,9.66094e-01,9.99999e-01
6.786760719e-01,9.66594e-01,9.99999e-01,9.99999e-01,9.99835e-01,9.66753e-01,9.99999e-01
6.820694522e-01,9.67125e-01,9.99999e-01,9.99999e-01,9.99717e-01,9.67399e-01,9.99998e-01
6.854797995e-01,9.67678e-01,9.99999e-01,9.99999e-01,9.99636e-01,9.68032e-01,9.99996e-01
6.889071985e-01,9.67809e-01,9.99999e-01,9.99999e-01,9.99135e-01,9.68654e-01,9.99991e-01
6.923517345e-01,9.55414e-01,9.99999e-01,9.99999e-01,9.85778e-01,9.69263e-01,9.99930e-01
6.958134932e-01,9.62359e-01,9.99999e-01,9.99999e-01,9.92419e-01,9.69861e-01,9.99843e-01
6.992925606e-01,9.63473e-01,9.99999e-01,9.99999e-01,9.92948e-01,9.70447e-01,9.99862e-01
7.027890234e-01,9.62399e-01,9.99999e-01,9.99999e-01,9.91222e-01,9.71023e-01,9.99894e-01
7.063029686e-01,9.64370e-01,9.99999e-01,9.99999e-01,9.92623e-01,9.71587e-01,9.99947e-01
7.098344834e-01,9.65229e-01,9.99999e-01,9.99999e-01,9.92921e-01,9.72140e-01,9.99968e-01
7.133836558e-01,9.63592e-01,9.99999e-01,9.99999e-01,9.90713e-01,9.72683e-01,9.99938e-01
7.169505741e-01,9.01985e-01,9.99999e-01,9.99999e-01,9.27257e-01,9.73215e-01,9.99515e-01
7.205353270e-01,9.36876e-01,9.99999e-01,9.99999e-01,9.62966e-01,9.73737e-01,9.99146e-01
7.241380036e-01,9.28701e-01,9.99999e-01,9.99999e-01,9.53955e-01,9.74249e-01,9.99257e-01
7.277586936e-01,9.33544e-01,9.99999e-01,9.99999e-01,9.58315e-01,9.74751e-01,9.99382e-01
7.313974871e-01,9.31485e-01,9.99999e-01,9.99999e-01,9.55399e-01,9.75244e-01,9.99717e-01
7.350544745e-01,9.51668e-01,9.99999e-01,9.99999e-01,9.75438e-01,9.75727e-01,9.99901e-01
7.387297469e-01,9.58441e-01,9.99999e-01,9.99999e-01,9.81851e-01,9.76200e-01,9.99954e-01
7.424233956e-01,9.67922e-01,9.99999e-01,9.99999e-01,9.91056e-01,9.76665e-01,9.99990e-01
7.461355126e-01,9.71826e-01,9.99999e-01,9.99999e-01,9.94582e-01,9.77121e-01,9.99997e-01
7.498661902e-01,9.75091e-01,9.99999e-01,9.99999e-01,9.97467e-01,9.77567e-01,9.99998e-01
7.536155211e-01,9.76794e-01,9.99999e-01,9.99999e-01,9.98761e-01,9.78005e-01,9.99999e-01
7.573835987e-01,9.77811e-01,9.99999e-01,9.99999e-01,9.99361e-01,9.78435e-01,9.99999e-01
7.611705167e-01,9.78469e-01,9.99999e-01,9.99999e-01,9.99603e-01,9.78857e-01,9.99999e-01
7.649763693e-01,9.79027e-01,9.99999e-01,9.99999e-01,9.99751e-01,9.79270e-01,9.99999e-01
7.688012511e-01,9.79506e-01,9.99999e-01,9.99999e-01,9.99827e-01,9.79675e-01,9.99999e-01
7.726452574e-01,9.79934e-01,9.99999e-01,9.99999e-01,9.99857e-01,9.80073e-01,9.99999e-01
7.765084837e-01,9.80266e-01,9.99999e-01,9.99999e-01,9.99799e-01,9.80462e-01,9.99999e-01
7.803910261e-01,9.79998e-01,9.99999e-01,9.99999e-01,9.99137e-01,9.80844e-01,9.99998e-01
7.842929812e-01,9.78265e-01,9.99999e-01,9.99999e-01,9.96993e-01,9.81219e-01,9.99993e-01
7.882144461e-01,9.75419e-01,9.99999e-01,9.99999e-01,9.93754e-01,9.81587e-01,9.99961e-01
7.921555184e-01,9.78489e-01,9.99999e-01,9.99999e-01,9.96551e-01,9.81947e-01,9.99925e-01
7.961162960e-01,9.76325e-01,9.99999e-01,9.99999e-01,9.93986e-01,9.82301e-01,9.99928e-01
8.000968774e-01,9.75708e-01,9.99999e-01,9.99999e-01,9.93012e-01,9.82647e-01,9.99924e-01
8.040973618e-01,9.76069e-01,9.99999e-01,9.99999e-01,9.93021e-01,9.82987e-01,9.99939e-01
8.081178486e-01,9.67976e-01,9.99999e-01,9.99999e-01,9.84450e-01,9.83320e-01,9.99943e-01
8.121584379e-01,9.21106e-01,9.99999e-01,9.99999e-01,9.36625e-01,9.83647e-01,9.99778e-01
8.162192301e-01,9.08843e-01,9.99999e-01,9.99999e-01,9.24418e-01,9.83967e-01,9.99169e-01
8.203003262e-01,9.46417e-01,9.99999e-01,9.99999e-01,9.62465e-01,9.84281e-01,9.99027e-01
8.244018279e-01,9.31283e-01,9.99999e-01,9.99999e-01,9.46591e-01,9.84589e-01,9.99225e-01
8.285238370e-01,9.39493e-01,9.99999e-01,9.99999e-01,9.54484e-01,9.84891e-01,9.99391e-01
8.326664562e-01,9.39441e-01,9.99999e-01,9.99999e-01,9.53804e-01,9.85188e-01,9.99748e-01
8.368297885e-01,9.52609e-01,9.99999e-01,9.99999e-01,9.66701e-01,9.85478e-01,9.99942e-01
8.410139374e-01,9.66087e-01,9.99999e-01,9.99999e-01,9.80072e-01,9.85763e-01,9.99965e-01
8.452190071e-01,9.76329e-01,9.99999e-01,9.99999e-01,9.90168e-01,9.86042e-01,9.99979e-01
8.494451021e-01,9.80687e-01,9.99999e-01,9.99999e-01,9.94308e-01,9.86316e-01,9.99983e-01
8.536923276e-01,9.83238e-01,9.99999e-01,9.99999e-01,9.96617e-01,9.86584e-01,9.99988e-01
8.579607893e-01,9.84796e-01,9.99999e-01,9.99999e-01,9.97923e-01,9.86848e-01,9.99996e-01
8.622505932e-01,9.85800e-01,9.99999e-01,9.99999e-01,9.98677e-01,9.87106e-01,9.99999e-01
8.665618462e-01,9.86554e-01,9.99999e-01,9.99999e-01,9.99184e-01,9.87359e-01,9.99999e-01
8.708946554e-01,9.86687e-01,9.99999e-01,9.99999e-01,9.99069e-01,9.87607e-01,9.99998e-01
8.752491287e-01,9.86618e-01,9.99999e-01,9.99999e-01,9.98753e-01,9.87850e-01,9.99998e-01
8.796253743e-01,9.86386e-01,9.99999e-01,9.99999e-01,9.98280e-01,9.88089e-01,9.99995e-01
8.840235012e-01,9.86368e-01,9.99999e-01,9.99999e-01,9.98033e-01,9.88323e-01,9.99987e-01
8.884436187e-01,9.81589e-01,9.99999e-01,9.99999e-01,9.92989e-01,9.88552e-01,9.99965e-01
8.928858368e-01,9.16998e-01,9.99999e-01,9.99999e-01,9.27589e-01,9.88777e-01,9.99802e-01
8.973502660e-01,8.63832e-01,9.99999e-01,9.99999e-01,8.74324e-01,9.88997e-01,9.98989e-01
9.018370173e-01,9.21700e-01,9.99999e-01,9.99999e-01,9.33231e-01,9.89213e-01,9.98412e-01
9.063462024e-01,9.30697e-01,9.99999e-01,9.99999e-01,9.41957e-01,9.89425e-01,9.98605e-01
9.108779334e-01,8.99730e-01,9.99999e-01,9.99999e-01,9.10474e-01,9.89633e-01,9.98550e-01
9.154323231e-01,8.88455e-01,9.99999e-01,9.99999e-01,8.98653e-01,9.89837e-01,9.98801e-01
9.200094847e-01,9.09783e-01,9.99999e-01,9.99999e-01,9.19555e-01,9.90036e-01,9.99329e-01
9.246095321e-01,8.71292e-01,9.99999e-01,9.99999e-01,8.80566e-01,9.90232e-01,9.99226e-01
9.292325798e-01,4.23017e-01,9.99999e-01,9.99999e-01,4.28396e-01,9.90424e-01,9.96990e-01
9.338787427e-01,3.24862e-01,9.99999e-01,9.99999e-01,3.32052e-01,9.90612e-01,9.87616e-01
9.385481364e-01,6.24563e-01,9.99999e-01,9.99999e-01,6.39775e-01,9.90797e-01,9.85289e-01
9.432408771e-01,5.33815e-01,9.99999e-01,9.99999e-01,5.45606e-01,9.90978e-01,9.87295e-01
9.479570815e-01,4.27467e-01,9.99999e-01,9.99999e-01,4.35792e-01,9.91155e-01,9.89648e-01
9.526968669e-01,5.21393e-01,9.99999e-01,9.99999e-01,5.29301e-01,9.91329e-01,9.93673e-01
9.574603512e-01,5.45290e-01,9.99999e-01,9.99999e-01,5.51740e-01,9.91500e-01,9.96780e-01
9.622476530e-01,6.07217e-01,9.99999e-01,9.99999e-01,6.13685e-01,9.91667e-01,9.97772e-01
9.670588912e-01,7.47153e-01,9.99999e-01,9.99999e-01,7.54455e-01,9.91831e-01,9.98476e-01
9.718941857e-01,8.30066e-01,9.99999e-01,9.99999e-01,8.37706e-01,9.91992e-01,9.98877e-01
9.767536566e-01,8.55775e-01,9.99999e-01,9.99999e-01,8.63286e-01,9.92149e-01,9.99142e-01
9.816374249e-01,8.89240e-01,9.99999e-01,9.99999e-01,8.96402e-01,9.92304e-01,9.99702e-01
9.865456120e-01,9.26785e-01,9.99999e-01,9.99999e-01,9.33888e-01,9.92455e-01,9.99937e-01
9.914783401e-01,9.51510e-01,9.99999e-01,9.99999e-01,9.58616e-01,9.92603e-01,9.99982e-01
9.964357318e-01,9.70146e-01,9.99999e-01,9.99999e-01,9.77240e-01,9.92749e-01,9.99989e-01
1.001417910e+00,9.79268e-01,9.99999e-01,9.99999e-01,9.86293e-01,9.92892e-01,9.99984e-01
1.006425000e+00,9.85248e-01,9.99999e-01,9.99999e-01,9.92182e-01,9.93032e-01,9.99977e-01
1.011457125e+00,9.88309e-01,9.99999e-01,9.99999e-01,9.95126e-01,9.93169e-01,9.99979e-01
1.016514411e+00,9.90007e-01,9.99999e-01,9.99999e-01,9.96695e-01,9.93303e-01,9.99985e-01
1.021596983e+00,9.90807e-01,9.99999e-01,9.99999e-01,9.97367e-01,9.93435e-01,9.99985e-01
1.026704968e+00,9.91517e-01,9.99999e-01,9.99999e-01,9.97948e-01,9.93564e-01,9.99989e-01
1.031838492e+00,9.92203e-01,9.99999e-01,9.99999e-01,9.98504e-01,9.93691e-01,9.99996e-01
1.036997685e+00,9.92935e-01,9.99999e-01,9.99999e-01,9.99113e-01,9.93815e-01,9.99999e-01
1.042182673e+00,9.92891e-01,9.99999e-01,9.99999e-01,9.98947e-01,9.93937e-01,9.99999e-01
1.047393587e+00,9.92667e-01,9.99999e-01,9.99999e-01,9.98601e-01,9.94056e-01,9.99999e-01
1.052630555e+00,9.92269e-01,9.99999e-01,9.99999e-01,9.98084e-01,9.94173e-01,9.99999e-01
1.057893707e+00,9.91115e-01,9.99999e-01,9.99999e-01,9.96809e-01,9.94288e-01,9.99998e-01
1.063183176e+00,9.89175e-01,9.99999e-01,9.99999e-01,9.94747e-01,9.94401e-01,9.99996e-01
1.068499092e+00,9.85759e-01,9.99999e-01,9.99999e-01,9.91205e-01,9.94511e-01,9.99993e-01
1.073841587e+00,9.84399e-01,9.99999e-01,9.99999e-01,9.89736e-01,9.94619e-01,9.99986e-01
1.079210795e+00,9.81576e-01,9.99999e-01,9.99999e-01,9.86815e-01,9.94725e-01,9.99964e-01
1.084606849e+00,9.74996e-01,9.99999e-01,9.99999e-01,9.80147e-01,9.94829e-01,9.99914e-01
1.090029883e+00,9.66695e-01,9.99999e-01,9.99999e-01,9.71790e-01,9.94931e-01,9.99823e-01
1.095480033e+00,9.19952e-01,9.99999e-01,9.99999e-01,9.24839e-01,9.95031e-01,9.99681e-01
1.100957433e+00,8.15918e-01,9.99999e-01,9.99999e-01,8.20392e-01,9.95129e-01,9.99413e-01
1.106462220e+00,6.05007e-01,9.99999e-01,9.99999e-01,6.08514e-01,9.95224e-01,9.99006e-01
1.111994531e+00,3.50960e-01,9.99999e-01,9.99999e-01,3.53542e-01,9.95319e-01,9.97364e-01
1.117554504e+00,1.86550e-01,9.99999e-01,9.99999e-01,1.89203e-01,9.95411e-01,9.90518e-01
1.123142276e+00,2.94770e-01,9.99999e-01,9.99999e-01,3.02868e-01,9.95501e-01,9.77661e-01
1.128757988e+00,4.42883e-01,9.99999e-01,9.99999e-01,4.56624e-01,9.95590e-01,9.74202e-01
1.134401778e+00,2.18452e-01,9.99999e-01,9.99999e-01,2.24448e-01,9.95677e-01,9.77507e-01
1.140073787e+00,6.07746e-01,9.99999e-01,9.99999e-01,6.21560e-01,9.95762e-01,9.81936e-01
1.145774156e+00,3.69959e-01,9.99999e-01,9.99999e-01,3.77589e-01,9.95845e-01,9.83878e-01
1.151503026e+00,3.36572e-01,9.99999e-01,9.99999e-01,3.41021e-01,9.95927e-01,9.90986e-01
1.157260541e+00,3.94479e-01,9.99999e-01,9.99999e-01,3.97134e-01,9.96008e-01,9.97296e-01
1.163046844e+00,5.00613e-01,9.99999e-01,9.99999e-01,5.02966e-01,9.96086e-01,9.99232e-01
1.168862078e+00,6.14706e-01,9.99999e-01,9.99999e-01,6.17317e-01,9.96163e-01,9.99604e-01
1.174706389e+00,7.39297e-01,9.99999e-01,9.99999e-01,7.42477e-01,9.96239e-01,9.99475e-01
1.180579921e+00,8.30073e-01,9.99999e-01,9.99999e-01,8.33805e-01,9.96313e-01,9.99207e-01
1.186482820e+00,8.98338e-01,9.99999e-01,9.99999e-01,9.02329e-01,9.96386e-01,9.99186e-01
1.192415234e+00,9.37900e-01,9.99999e-01,9.99999e-01,9.41808e-01,9.96457e-01,9.99390e-01
1.198377311e+00,9.46984e-01,9.99999e-01,9.99999e-01,9.50831e-01,9.96527e-01,9.99424e-01
1.204369197e+00,9.49657e-01,9.99999e-01,9.99999e-01,9.53397e-01,9.96595e-01,9.99479e-01
1.210391043e+00,9.51867e-01,9.99999e-01,9.99999e-01,9.55356e-01,9.96663e-01,9.99683e-01
1.216442998e+00,9.58473e-01,9.99999e-01,9.99999e-01,9.61805e-01,9.96728e-01,9.99805e-01
1.222525213e+00,9.66930e-01,9.99999e-01,9.99999e-01,9.70157e-01,9.96793e-01,9.99879e-01
1.228637839e+00,9.76067e-01,9.99999e-01,9.99999e-01,9.79199e-01,9.96856e-01,9.99943e-01
