#,Wave/freq,Total,N2,O2,H2O,Rayleigh,CIA
4.000000000e-01,9.42080e-01,9.99999e-01,9.99999e-01,9.99992e-01,9.42087e-01,9.99999e-01
4.020000000e-01,9.43195e-01,9.99999e-01,9.99999e-01,9.99995e-01,9.43199e-01,9.99999e-01
4.040100000e-01,9.44287e-01,9.99999e-01,9.99999e-01,9.99997e-01,9.44289e-01,9.99999e-01
4.060300500e-01,9.45358e-01,9.99999e-01,9.99999e-01,9.99999e-01,9.45358e-01,9.99999e-01
4.080602003e-01,9.46408e-01,9.99999e-01,9.99999e-01,9.99999e-01,9.46408e-01,9.99999e-01
4.101005013e-01,9.47438e-01,9.99999e-01,9.99999e-01,9.99999e-01,9.47438e-01,9.99999e-01
4.121510038e-01,9.48449e-01,9.99999e-01,9.99999e-01,9.99999e-01,9.48449e-01,9.99999e-01
4.142117588e-01,9.49440e-01,9.99999e-01,9.99999e-01,9.99997e-01,9.49441e-01,9.99999e-01
4.162828176e-01,9.50407e-01,9.99999e-01,9.99999e-01,9.99991e-01,9.50415e-01,9.99999e-01
4.183642317e-01,9.51365e-01,9.99999e-01,9.99999e-01,9.99994e-01,9.51370e-01,9.99999e-01
4.204560528e-01,9.52304e-01,9.99999e-01,9.99999e-01,9.99996e-01,9.52307e-01,9.99999e-01
4.225583331e-01,9.53226e-01,9.99999e-01,9.99999e-01,9.99998e-01,9.53227e-01,9.99999e-01
4.246711247e-01,9.54129e-01,9.99999e-01,9.99999e-01,9.99998e-01,9.54129e-01,9.99999e-01
4.267944804e-01,9.55013e-01,9.99999e-01,9.99999e-01,9.99998e-01,9.55015e-01,9.99999e-01
4.289284528e-01,9.55882e-01,9.99999e-01,9.99999e-01,9.99998e-01,9.55883e-01,9.99999e-01
4.310730950e-01,9.56735e-01,9.99999e-01,9.99999e-01,9.99999e-01,9.56736e-01,9.99999e-01
4.332284605e-01,9.57572e-01,9.99999e-01,9.99999e-01,9.99999e-01,9.57572e-01,9.99999e-01
4.353946028e-01,9.58392e-01,9.99999e-01,9.99999e-01,9.99999e-01,9.58392e-01,9.99999e-01
4.375715758e-01,9.59196e-01,9.99999e-01,9.99999e-01,9.99998e-01,9.59197e-01,9.99999e-01
4.397594337e-01,9.59980e-01,9.99999e-01,9.99999e-01,9.99992e-01,9.59987e-01,9.99999e-01
4.419582309e-01,9.60726e-01,9.99999e-01,9.99999e-01,9.99962e-01,9.60761e-01,9.99999e-01
4.441680220e-01,9.61493e-01,9.99999e-01,9.99999e-01,9.99970e-01,9.61521e-01,9.99999e-01
4.463888621e-01,9.62238e-01,9.99999e-01,9.99999e-01,9.99969e-01,9.62267e-01,9.99999e-01
4.486208064e-01,9.62980e-01,9.99999e-01,9.99999e-01,9.99980e-01,9.62998e-01,9.99999e-01
4.508639105e-01,9.63707e-01,9.99999e-01,9.99999e-01,9.99990e-01,9.63715e-01,9.99999e-01
4.531182300e-01,9.64416e-01,9.99999e-01,9.99999e-01,9.99996e-01,9.64419e-01,9.99999e-01
4.553838212e-01,9.65107e-01,9.99999e-01,9.99999e-01,9.99997e-01,9.65110e-01,9.99999e-01
4.576607403e-01,9.65786e-01,9.99999e-01,9.99999e-01,9.99998e-01,9.65787e-01,9.99999e-01
4.599490440e-01,9.66450e-01,9.99999e-01,9.99999e-01,9.99998e-01,9.66451e-01,9.99999e-01
4.622487892e-01,9.67103e-01,9.99999e-01,9.99999e-01,9.99999e-01,9.67103e-01,9.99999e-01
4.645600332e-01,9.67741e-01,9.99999e-01,9.99999e-01,9.99998e-01,9.67742e-01,9.99999e-01
4.668828333e-01,9.68360e-01,9.99999e-01,9.99999e-01,9.99990e-01,9.68369e-01,9.99999e-01
4.692172475e-01,9.68966e-01,9.99999e-01,9.99999e-01,9.99980e-01,9.68984e-01,9.99999e-01
4.715633337e-01,9.69575e-01,9.99999e-01,9.99999e-01,9.99987e-01,9.69587e-01,9.99999e-01
4.739211504e-01,9.70167e-01,9.99999e-01,9.99999e-01,9.99987e-01,9.70179e-01,9.99999e-01
4.762907561e-01,9.70753e-01,9.99999e-01,9.99999e-01,9.99993e-01,9.70759e-01,9.99999e-01
4.786722099e-01,9.71326e-01,9.99999e-01,9.99999e-01,9.99996e-01,9.71328e-01,9.99999e-01
4.810655710e-01,9.71886e-01,9.99999e-01,9.99999e-01,9.99998e-01,9.71887e-01,9.99999e-01
4.834708988e-01,9.72427e-01,9.99999e-01,9.99999e-01,9.99992e-01,9.72434e-01,9.99999e-01
4.858882533e-01,9.72958e-01,9.99999e-01,9.99999e-01,9.99986e-01,9.72971e-01,9.99999e-01
4.883176946e-01,9.73487e-01,9.99999e-01,9.99999e-01,9.99988e-01,9.73498e-01,9.99999e-01
4.907592831e-01,9.74005e-01,9.99999e-01,9.99999e-01,9.99989e-01,9.74015e-01,9.99999e-01
4.932130795e-01,9.74514e-01,9.99999e-01,9.99999e-01,9.99992e-01,9.74521e-01,9.99999e-01
4.956791449e-01,9.75014e-01,9.99999e-01,9.99999e-01,9.99995e-01,9.75018e-01,9.99999e-01
4.981575406e-01,9.75487e-01,9.99999e-01,9.99999e-01,9.99980e-01,9.75505e-01,9.99999e-01
5.006483283e-01,9.75935e-01,9.99999e-01,9.99999e-01,9.99950e-01,9.75983e-01,9.99999e-01
5.031515699e-01,9.76205e-01,9.99999e-01,9.99999e-01,9.99749e-01,9.76452e-01,9.99996e-01
5.056673278e-01,9.76780e-01,9.99999e-01,9.99999e-01,9.99867e-01,9.76912e-01,9.99996e-01
5.081956644e-01,9.77198e-01,9.99999e-01,9.99999e-01,9.99832e-01,9.77363e-01,9.99997e-01
5.107366428e-01,9.77694e-01,9.99999e-01,9.99999e-01,9.99886e-01,9.77805e-01,9.99999e-01
5.132903260e-01,9.78175e-01,9.99999e-01,9.99999e-01,9.99935e-01,9.78238e-01,9.99999e-01
5.158567776e-01,9.78637e-01,9.99999e-01,9.99999e-01,9.99972e-01,9.78664e-01,9.99999e-01
5.184360615e-01,9.79070e-01,9.99999e-01,9.99999e-01,9.99988e-01,9.79081e-01,9.99999e-01
5.210282418e-01,9.79486e-01,9.99999e-01,9.99999e-01,9.99995e-01,9.79489e-01,9.99999e-01
5.236333830e-01,9.79874e-01,9.99999e-01,9.99999e-01,9.99983e-01,9.79891e-01,9.99999e-01
5.262515499e-01,9.80274e-01,9.99999e-01,9.99999e-01,9.99989e-01,9.80284e-01,9.99999e-01
5.288828077e-01,9.80660e-01,9.99999e-01,9.99999e-01,9.99990e-01,9.80669e-01,9.99999e-01
5.315272217e-01,9.81039e-01,9.99999e-01,9.99999e-01,9.99991e-01,9.81048e-01,9.99999e-01
5.341848578e-01,9.81413e-01,9.99999e-01,9.99999e-01,9.99994e-01,9.81418e-01,9.99999e-01
5.368557821e-01,9.81763e-01,9.99999e-01,9.99999e-01,9.99980e-01,9.81782e-01,9.99999e-01
5.395400610e-01,9.82071e-01,9.99999e-01,9.99999e-01,9.99931e-01,9.82139e-01,9.99998e-01
5.422377613e-01,9.82400e-01,9.99999e-01,9.99999e-01,9.99910e-01,9.82488e-01,9.99997e-01
5.449489501e-01,9.82749e-01,9.99999e-01,9.99999e-01,9.99917e-01,9.82831e-01,9.99997e-01
5.476736949e-01,9.83095e-01,9.99999e-01,9.99999e-01,9.99926e-01,9.83167e-01,9.99998e-01
5.504120634e-01,9.83445e-01,9.99999e-01,9.99999e-01,9.99946e-01,9.83497e-01,9.99999e-01
5.531641237e-01,9.83794e-01,9.99999e-01,9.99999e-01,9.99972e-01,9.83820e-01,9.99999e-01
5.559299443e-01,9.84125e-01,9.99999e-01,9.99999e-01,9.99986e-01,9.84137e-01,9.99999e-01
5.587095940e-01,9.84440e-01,9.99999e-01,9.99999e-01,9.99991e-01,9.84448e-01,9.99999e-01
5.615031420e-01,9.84744e-01,9.99999e-01,9.99999e-01,9.99990e-01,9.84753e-01,9.99999e-01
5.643106577e-01,9.85042e-01,9.99999e-01,9.99999e-01,9.99989e-01,9.85052e-01,9.99999e-01
5.671322110e-01,9.85223e-01,9.99999e-01,9.99999e-01,9.99876e-01,9.85345e-01,9.99998e-01
5.699678720e-01,9.85499e-01,9.99999e-01,9.99999e-01,9.99867e-01,9.85632e-01,9.99996e-01
5.728177114e-01,9.85777e-01,9.99999e-01,9.99999e-01,9.99862e-01,9.85914e-01,9.99996e-01
5.756818000e-01,9.86065e-01,9.99999e-01,9.99999e-01,9.99873e-01,9.86190e-01,9.99997e-01
5.785602090e-01,9.86353e-01,9.99999e-01,9.99999e-01,9.99889e-01,9.86461e-01,9.99998e-01
5.814530100e-01,9.86618e-01,9.99999e-01,9.99999e-01,9.99889e-01,9.86727e-01,9.99999e-01
5.843602750e-01,9.86858e-01,9.99999e-01,9.99999e-01,9.99868e-01,9.86987e-01,9.99998e-01
5.872820764e-01,9.86120e-01,9.99999e-01,9.99999e-01,9.98870e-01,9.87243e-01,9.99991e-01
5.902184868e-01,9.86116e-01,9.99999e-01,9.99999e-01,9.98626e-01,9.87493e-01,9.99977e-01
5.931695792e-01,9.86761e-01,9.99999e-01,9.99999e-01,9.99030e-01,9.87739e-01,9.99978e-01
5.961354271e-01,9.86917e-01,9.99999e-01,9.99999e-01,9.98936e-01,9.87979e-01,9.99987e-01
5.991161043e-01,9.87445e-01,9.99999e-01,9.99999e-01,9.99223e-01,9.88215e-01,9.99995e-01
6.021116848e-01,9.88011e-01,9.99999e-01,9.99999e-01,9.99559e-01,9.88447e-01,9.99999e-01
6.051222432e-01,9.88453e-01,9.99999e-01,9.99999e-01,9.99776e-01,9.88674e-01,9.99999e-01
6.081478544e-01,9.88801e-01,9.99999e-01,9.99999e-01,9.99903e-01,9.88896e-01,9.99999e-01
6.111885937e-01,9.89074e-01,9.99999e-01,9.99999e-01,9.99958e-01,9.89114e-01,9.99999e-01
6.142445367e-01,9.89310e-01,9.99999e-01,9.99999e-01,9.99981e-01,9.89328e-01,9.99999e-01
6.173157594e-01,9.89528e-01,9.99999e-01,9.99999e-01,9.99989e-01,9.89538e-01,9.99999e-01
6.204023382e-01,9.89735e-01,9.99999e-01,9.99999e-01,9.99991e-01,9.89743e-01,9.99999e-01
6.235043498e-01,9.89908e-01,9.99999e-01,9.99999e-01,9.99962e-01,9.89945e-01,9.99999e-01
6.266218716e-01,9.89946e-01,9.99999e-01,9.99999e-01,9.99802e-01,9.90143e-01,9.99998e-01
6.297549810e-01,9.90262e-01,9.99999e-01,9.99999e-01,9.99927e-01,9.90336e-01,9.99996e-01
6.329037559e-01,9.90382e-01,9.99999e-01,9.99999e-01,9.99856e-01,9.90526e-01,9.99997e-01
6.360682746e-01,9.90591e-01,9.99999e-01,9.99999e-01,9.99877e-01,9.90712e-01,9.99998e-01
6.392486160e-01,9.90738e-01,9.99999e-01,9.99999e-01,9.99841e-01,9.90895e-01,9.99998e-01
6.424448591e-01,9.90865e-01,9.99999e-01,9.99999e-01,9.99789e-01,9.91074e-01,9.99998e-01
6.456570834e-01,9.90276e-01,9.99999e-01,9.99999e-01,9.99022e-01,9.91250e-01,9.99994e-01
6.488853688e-01,9.90694e-01,9.99999e-01,9.99999e-01,9.99280e-01,9.91422e-01,9.99984e-01
6.521297956e-01,9.90851e-01,9.99999e-01,9.99999e-01,9.99266e-01,9.91590e-01,9.99986e-01
6.553904446e-01,9.91028e-01,9.99999e-01,9.99999e-01,9.99274e-01,9.91756e-01,9.99989e-01
6.586673968e-01,9.91295e-01,9.99999e-01,9.99999e-01,9.99374e-01,9.91918e-01,9.99996e-01
6.619607338e-01,9.91718e-01,9.99999e-01,9.99999e-01,9.99638e-01,9.92077e-01,9.99998e-01
6.652705375e-01,9.92025e-01,9.99999e-01,9.99999e-01,9.99790e-01,9.92233e-01,9.99999e-01
6.685968902e-01,9.92289e-01,9.99999e-01,9.99999e-01,9.99902e-01,9.92386e-01,9.99999e-01
6.719398746e-01,9.92491e-01,9.99999e-01,9.99999e-01,9.99954e-01,9.92535e-01,9.99999e-01
6.752995740e-01,9.92658e-01,9.99999e-01,9.99999e-01,9.99975e-01,9.92682e-01,9.99999e-01
6.786760719e-01,9.92792e-01,9.99999e-01,9.99999e-01,9.99964e-01,9.92826e-01,9.99999e-01
6.820694522e-01,9.92908e-01,9.99999e-01,9.99999e-01,9.99939e-01,9.92968e-01,9.99999e-01
6.854797995e-01,9.93028e-01,9.99999e-01,9.99999e-01,9.99922e-01,9.93106e-01,9.99998e-01
6.889071985e-01,9.93055e-01,9.99999e-01,9.99999e-01,9.99813e-01,9.93242e-01,9.99997e-01
6.923517345e-01,9.90319e-01,9.99999e-01,9.99999e-01,9.96938e-01,9.93375e-01,9.99984e-01
6.958134932e-01,9.91874e-01,9.99999e-01,9.99999e-01,9.98391e-01,9.93505e-01,9.99966e-01
6.992925606e-01,9.92101e-01,9.99999e-01,9.99999e-01,9.98487e-01,9.93633e-01,9.99970e-01
7.027890234e-01,9.91873e-01,9.99999e-01,9.99999e-01,9.98125e-01,9.93758e-01,9.99977e-01
7.063029686e-01,9.92305e-01,9.99999e-01,9.99999e-01,9.98424e-01,9.93881e-01,9.99988e-01
7.098344834e-01,9.92493e-01,9.99999e-01,9.99999e-01,9.98488e-01,9.94002e-01,9.99992e-01
7.133836558e-01,9.92116e-01,9.99999e-01,9.99999e-01,9.97996e-01,9.94120e-01,9.99986e-01
7.169505741e-01,9.78081e-01,9.99999e-01,9.99999e-01,9.83852e-01,9.94236e-01,9.99896e-01
7.205353270e-01,9.86228e-01,9.99999e-01,9.99999e-01,9.92012e-01,9.94349e-01,9.99817e-01
7.241380036e-01,9.84307e-01,9.99999e-01,9.99999e-01,9.89945e-01,9.94460e-01,9.99842e-01
7.277586936e-01,9.85411e-01,9.99999e-01,9.99999e-01,9.90917e-01,9.94569e-01,9.99871e-01
7.313974871e-01,9.84998e-01,9.99999e-01,9.99999e-01,9.90328e-01,9.94676e-01,9.99939e-01
7.350544745e-01,9.89506e-01,9.99999e-01,9.99999e-01,9.94716e-01,9.94781e-01,9.99978e-01
7.387297469e-01,9.91007e-01,9.99999e-01,9.99999e-01,9.96112e-01,9.94884e-01,9.99989e-01
7.424233956e-01,9.93088e-01,9.99999e-01,9.99999e-01,9.98095e-01,9.94985e-01,9.99997e-01
7.461355126e-01,9.93936e-01,9.99999e-01,9.99999e-01,9.98846e-01,9.95084e-01,9.99999e-01
7.498661902e-01,9.94646e-01,9.99999e-01,9.99999e-01,9.99462e-01,9.95181e-01,9.99999e-01
7.536155211e-01,9.95013e-01,9.99999e-01,9.99999e-01,9.99736e-01,9.95275e-01,9.99999e-01
7.573835987e-01,9.95234e-01,9.99999e-01,9.99999e-01,9.99864e-01,9.95369e-01,9.99999e-01
7.611705167e-01,9.95376e-01,9.99999e-01,9.99999e-01,9.99915e-01,9.95460e-01,9.99999e-01
7.649763693e-01,9.95497e-01,9.99999e-01,9.99999e-01,9.99946e-01,9.95549e-01,9.99999e-01
7.688012511e-01,9.95600e-01,9.99999e-01,9.99999e-01,9.99962e-01,9.95637e-01,9.99999e-01
7.726452574e-01,9.95693e-01,9.99999e-01,9.99999e-01,9.99969e-01,9.95723e-01,9.99999e-01
7.765084837e-01,9.95765e-01,9.99999e-01,9.99999e-01,9.99956e-01,9.95807e-01,9.99999e-01
7.803910261e-01,9.95706e-01,9.99999e-01,9.99999e-01,9.99814e-01,9.95890e-01,9.99999e-01
7.842929812e-01,9.95328e-01,9.99999e-01,9.99999e-01,9.99355e-01,9.95971e-01,9.99998e-01
7.882144461e-01,9.94714e-01,9.99999e-01,9.99999e-01,9.98666e-01,9.96050e-01,9.99991e-01
7.921555184e-01,9.95382e-01,9.99999e-01,9.99999e-01,9.99266e-01,9.96128e-01,9.99983e-01
7.961162960e-01,9.94906e-01,9.99999e-01,9.99999e-01,9.98710e-01,9.96204e-01,9.99984e-01
8.000968774e-01,9.94777e-01,9.99999e-01,9.99999e-01,9.98507e-01,9.96279e-01,9.99983e-01
8.040973618e-01,9.94854e-01,9.99999e-01,9.99999e-01,9.98507e-01,9.96353e-01,9.99986e-01
8.081178486e-01,9.93070e-01,9.99999e-01,9.99999e-01,9.96645e-01,9.96424e-01,9.99987e-01
8.121584379e-01,9.82526e-01,9.99999e-01,9.99999e-01,9.86028e-01,9.96495e-01,9.99952e-01
8.162192301e-01,9.79786e-01,9.99999e-01,9.99999e-01,9.83337e-01,9.96564e-01,9.99822e-01
8.203003262e-01,9.88135e-01,9.99999e-01,9.99999e-01,9.91679e-01,9.96632e-01,9.99792e-01
8.244018279e-01,9.84783e-01,9.99999e-01,9.99999e-01,9.88207e-01,9.96698e-01,9.99834e-01
8.285238370e-01,9.86744e-01,9.99999e-01,9.99999e-01,9.90075e-01,9.96763e-01,9.99870e-01
8.326664562e-01,9.86749e-01,9.99999e-01,9.99999e-01,9.89941e-01,9.96827e-01,9.99945e-01
8.368297885e-01,9.89717e-01,9.99999e-01,9.99999e-01,9.92816e-01,9.96890e-01,9.99987e-01
8.410139374e-01,9.92686e-01,9.99999e-01,9.99999e-01,9.95728e-01,9.96951e-01,9.99992e-01
8.452190071e-01,9.94917e-01,9.99999e-01,9.99999e-01,9.97903e-01,9.97011e-01,9.99995e-01
8.494451021e-01,9.95857e-01,9.99999e-01,9.99999e-01,9.98786e-01,9.97070e-01,9.99996e-01
8.536923276e-01,9.96409e-01,9.99999e-01,9.99999e-01,9.99280e-01,9.97128e-01,9.99997e-01
8.579607893e-01,9.96743e-01,9.99999e-01,9.99999e-01,9.99557e-01,9.97184e-01,9.99998e-01
8.622505932e-01,9.96960e-01,9.99999e-01,9.99999e-01,9.99718e-01,9.97240e-01,9.99999e-01
8.665618462e-01,9.97121e-01,9.99999e-01,9.99999e-01,9.99826e-01,9.97294e-01,9.99999e-01
8.708946554e-01,9.97150e-01,9.99999e-01,9.99999e-01,9.99801e-01,9.97348e-01,9.99999e-01
8.752491287e-01,9.97135e-01,9.99999e-01,9.99999e-01,9.99733e-01,9.97400e-01,9.99999e-01
8.796253743e-01,9.97084e-01,9.99999e-01,9.99999e-01,9.99632e-01,9.97451e-01,9.99998e-01
8.840235012e-01,9.97080e-01,9.99999e-01,9.99999e-01,9.99579e-01,9.97502e-01,9.99996e-01
8.884436187e-01,9.96025e-01,9.99999e-01,9.99999e-01,9.98477e-01,9.97551e-01,9.99992e-01
8.928858368e-01,9.81505e-01,9.99999e-01,9.99999e-01,9.83908e-01,9.97599e-01,9.99957e-01
8.973502660e-01,9.69024e-01,9.99999e-01,9.99999e-01,9.71518e-01,9.97646e-01,9.99784e-01
9.018370173e-01,9.82700e-01,9.99999e-01,9.99999e-01,9.85305e-01,9.97693e-01,9.99661e-01
9.063462024e-01,9.84649e-01,9.99999e-01,9.99999e-01,9.87174e-01,9.97738e-01,9.99702e-01
9.108779334e-01,9.77537e-01,9.99999e-01,9.99999e-01,9.80011e-01,9.97783e-01,9.99690e-01
9.154323231e-01,9.74957e-01,9.99999e-01,9.99999e-01,9.77329e-01,9.97827e-01,9.99744e-01
9.200094847e-01,9.79928e-01,9.99999e-01,9.99999e-01,9.82159e-01,9.97870e-01,9.99856e-01
9.246095321e-01,9.69934e-01,9.99999e-01,9.99999e-01,9.72123e-01,9.97912e-01,9.99834e-01
9.292325798e-01,8.22321e-01,9.99999e-01,9.99999e-01,8.24536e-01,9.97953e-01,9.99357e-01
9.338787427e-01,7.74088e-01,9.99999e-01,9.99999e-01,7.77705e-01,9.97993e-01,9.97349e-01
9.385481364e-01,8.99350e-01,9.99999e-01,9.99999e-01,9.03970e-01,9.98033e-01,9.96848e-01
9.432408771e-01,8.63267e-01,9.99999e-01,9.99999e-01,8.67292e-01,9.98072e-01,9.97280e-01
9.479570815e-01,8.15237e-01,9.99999e-01,9.99999e-01,8.18592e-01,9.98110e-01,9.97786e-01
9.526968669e-01,8.59882e-01,9.99999e-01,9.99999e-01,8.62642e-01,9.98147e-01,9.98648e-01
9.574603512e-01,8.74313e-01,9.99999e-01,9.99999e-01,8.76504e-01,9.98183e-01,9.99313e-01
9.622476530e-01,8.96747e-01,9.99999e-01,9.99999e-01,8.98773e-01,9.98219e-01,9.99524e-01
9.670588912e-01,9.38624e-01,9.99999e-01,9.99999e-01,9.40569e-01,9.98254e-01,9.99674e-01
9.718941857e-01,9.60846e-01,9.99999e-01,9.99999e-01,9.62722e-01,9.98289e-01,9.99760e-01
9.767536566e-01,9.67179e-01,9.99999e-01,9.99999e-01,9.68981e-01,9.98323e-01,9.99816e-01
9.816374249e-01,9.75262e-01,9.99999e-01,9.99999e-01,9.76929e-01,9.98356e-01,9.99936e-01
9.865456120e-01,9.83936e-01,9.99999e-01,9.99999e-01,9.85537e-01,9.98388e-01,9.99986e-01
9.914783401e-01,9.89478e-01,9.99999e-01,9.99999e-01,9.91046e-01,9.98420e-01,9.99995e-01
9.964357318e-01,9.93572e-01,9.99999e-01,9.99999e-01,9.95114e-01,9.98451e-01,9.99997e-01
1.001417910e+00,9.95553e-01,9.99999e-01,9.99999e-01,9.97070e-01,9.98482e-01,9.99996e-01
1.006425000e+00,9.96841e-01,9.99999e-01,9.99999e-01,9.98330e-01,9.98512e-01,9.99994e-01
1.011457125e+00,9.97501e-01,9.99999e-01,9.99999e-01,9.98962e-01,9.98541e-01,9.99995e-01
1.016514411e+00,9.97864e-01,9.99999e-01,9.99999e-01,9.99295e-01,9.98570e-01,9.99996e-01
1.021596983e+00,9.98035e-01,9.99999e-01,9.99999e-01,9.99439e-01,9.98598e-01,9.99996e-01
1.026704968e+00,9.98187e-01,9.99999e-01,9.99999e-01,9.99562e-01,9.98626e-01,9.99997e-01
1.031838492e+00,9.98335e-01,9.99999e-01,9.99999e-01,9.99681e-01,9.98653e-01,9.99998e-01
1.036997685e+00,9.98491e-01,9.99999e-01,9.99999e-01,9.99810e-01,9.98679e-01,9.99999e-01
1.042182673e+00,9.98481e-01,9.99999e-01,9.99999e-01,9.99775e-01,9.98705e-01,9.99999e-01
1.047393587e+00,9.98433e-01,9.99999e-01,9.99999e-01,9.99701e-01,9.98731e-01,9.99999e-01
1.052630555e+00,9.98348e-01,9.99999e-01,9.99999e-01,9.99590e-01,9.98756e-01,9.99999e-01
1.057893707e+00,9.98099e-01,9.99999e-01,9.99999e-01,9.99317e-01,9.98780e-01,9.99999e-01
1.063183176e+00,9.97682e-01,9.99999e-01,9.99999e-01,9.98876e-01,9.98804e-01,9.99998e-01
1.068499092e+00,9.96947e-01,9.99999e-01,9.99999e-01,9.98117e-01,9.98828e-01,9.99998e-01
1.073841587e+00,9.96650e-01,9.99999e-01,9.99999e-01,9.97798e-01,9.98851e-01,9.99996e-01
1.079210795e+00,9.96046e-01,9.99999e-01,9.99999e-01,9.97175e-01,9.98874e-01,9.99991e-01
1.084606849e+00,9.94612e-01,9.99999e-01,9.99999e-01,9.95728e-01,9.98896e-01,9.99981e-01
1.090029883e+00,9.92769e-01,9.99999e-01,9.99999e-01,9.93880e-01,9.98918e-01,9.99962e-01
1.095480033e+00,9.82283e-01,9.99999e-01,9.99999e-01,9.83392e-01,9.98939e-01,9.99931e-01
1.100957433e+00,9.57098e-01,9.99999e-01,9.99999e-01,9.58213e-01,9.98960e-01,9.99874e-01
1.106462220e+00,8.95231e-01,9.99999e-01,9.99999e-01,8.96334e-01,9.98981e-01,9.99787e-01
1.111994531e+00,7.91097e-01,9.99999e-01,9.99999e-01,7.92333e-01,9.99001e-01,9.99437e-01
1.117554504e+00,6.81790e-01,9.99999e-01,9.99999e-01,6.83844e-01,9.99020e-01,9.97972e-01
1.123142276e+00,7.45834e-01,9.99999e-01,9.99999e-01,7.50151e-01,9.99040e-01,9.95200e-01
1.128757988e+00,8.29861e-01,9.99999e-01,9.99999e-01,8.35277e-01,9.99059e-01,9.94449e-01
1.134401778e+00,6.33593e-01,9.99999e-01,9.99999e-01,6.37186e-01,9.99077e-01,9.95278e-01
1.140073787e+00,8.95891e-01,9.99999e-01,9.99999e-01,9.00098e-01,9.99095e-01,9.96225e-01
1.145774156e+00,7.96231e-01,9.99999e-01,9.99999e-01,7.99700e-01,9.99113e-01,9.96544e-01
1.151503026e+00,7.75610e-01,9.99999e-01,9.99999e-01,7.77782e-01,9.99131e-01,9.98073e-01
1.157260541e+00,8.14078e-01,9.99999e-01,9.99999e-01,8.15241e-01,9.99148e-01,9.99423e-01
1.163046844e+00,8.59434e-01,9.99999e-01,9.99999e-01,8.60292e-01,9.99165e-01,9.99836e-01
1.168862078e+00,9.00729e-01,9.99999e-01,9.99999e-01,9.01542e-01,9.99181e-01,9.99915e-01
1.174706389e+00,9.37220e-01,9.99999e-01,9.99999e-01,9.38076e-01,9.99197e-01,9.99887e-01
1.180579921e+00,9.60951e-01,9.99999e-01,9.99999e-01,9.61869e-01,9.99213e-01,9.99830e-01
1.186482820e+00,9.77401e-01,9.99999e-01,9.99999e-01,9.78324e-01,9.99229e-01,9.99826e-01
1.192415234e+00,9.86437e-01,9.99999e-01,9.99999e-01,9.87311e-01,9.99244e-01,9.99869e-01
1.198377311e+00,9.88449e-01,9.99999e-01,9.99999e-01,9.89302e-01,9.99259e-01,9.99877e-01
1.204369197e+00,9.89033e-01,9.99999e-01,9.99999e-01,9.89861e-01,9.99273e-01,9.99888e-01
1.210391043e+00,9.89535e-01,9.99999e-01,9.99999e-01,9.90306e-01,9.99288e-01,9.99932e-01
1.216442998e+00,9.91008e-01,9.99999e-01,9.99999e-01,9.91740e-01,9.99302e-01,9.99958e-01
1.222525213e+00,9.92866e-01,9.99999e-01,9.99999e-01,9.93570e-01,9.99316e-01,9.99973e-01
1.228637839e+00,9.94855e-01,9.99999e-01,9.99999e-01,9.95534e-01,9.99329e-01,9.99987e-01
