#,Wave/freq,Total,N2,O2,H2O,Rayleigh,CIA
4.000000000e-01,6.66406e-01,9.99999e-01,9.99999e-01,9.99953e-01,6.66436e-01,9.99999e-01
4.020000000e-01,6.71786e-01,9.99999e-01,9.99999e-01,9.99971e-01,6.71805e-01,9.99999e-01
4.040100000e-01,6.77096e-01,9.99999e-01,9.99999e-01,9.99987e-01,6.77104e-01,9.99999e-01
4.060300500e-01,6.82338e-01,9.99999e-01,9.99999e-01,9.99996e-01,6.82339e-01,9.99999e-01
4.080602003e-01,6.87510e-01,9.99999e-01,9.99999e-01,9.99998e-01,6.87511e-01,9.99999e-01
4.101005013e-01,6.92618e-01,9.99999e-01,9.99999e-01,9.99999e-01,6.92618e-01,9.99999e-01
4.121510038e-01,6.97659e-01,9.99999e-01,9.99999e-01,9.99997e-01,6.97661e-01,9.99999e-01
4.142117588e-01,7.02631e-01,9.99999e-01,9.99999e-01,9.99986e-01,7.02639e-01,9.99999e-01
4.162828176e-01,7.07515e-01,9.99999e-01,9.99999e-01,9.99942e-01,7.07555e-01,9.99999e-01
4.183642317e-01,7.12382e-01,9.99999e-01,9.99999e-01,9.99965e-01,7.12406e-01,9.99999e-01
4.204560528e-01,7.17179e-01,9.99999e-01,9.99999e-01,9.99978e-01,7.17194e-01,9.99999e-01
4.225583331e-01,7.21913e-01,9.99999e-01,9.99999e-01,9.99991e-01,7.21918e-01,9.99999e-01
4.246711247e-01,7.26575e-01,9.99999e-01,9.99999e-01,9.99993e-01,7.26580e-01,9.99999e-01
4.267944804e-01,7.31172e-01,9.99999e-01,9.99999e-01,9.99990e-01,7.31178e-01,9.99999e-01
4.289284528e-01,7.35709e-01,9.99999e-01,9.99999e-01,9.99992e-01,7.35714e-01,9.99999e-01
4.310730950e-01,7.40186e-01,9.99999e-01,9.99999e-01,9.99996e-01,7.40188e-01,9.99999e-01
4.332284605e-01,7.44599e-01,9.99999e-01,9.99999e-01,9.99998e-01,7.44600e-01,9.99999e-01
4.353946028e-01,7.48949e-01,9.99999e-01,9.99999e-01,9.99999e-01,7.48950e-01,9.99999e-01
4.375715758e-01,7.53234e-01,9.99999e-01,9.99999e-01,9.99993e-01,7.53238e-01,9.99999e-01
4.397594337e-01,7.57428e-01,9.99999e-01,9.99999e-01,9.99949e-01,7.57466e-01,9.99999e-01
4.419582309e-01,7.61439e-01,9.99999e-01,9.99999e-01,9.99743e-01,7.61634e-01,9.99999e-01
4.441680220e-01,7.65591e-01,9.99999e-01,9.99999e-01,9.99803e-01,7.65741e-01,9.99999e-01
4.463888621e-01,7.69631e-01,9.99999e-01,9.99999e-01,9.99794e-01,7.69789e-01,9.99999e-01
4.486208064e-01,7.73679e-01,9.99999e-01,9.99999e-01,9.99872e-01,7.73777e-01,9.99999e-01
4.508639105e-01,7.77661e-01,9.99999e-01,9.99999e-01,9.99940e-01,7.77707e-01,9.99999e-01
4.531182300e-01,7.81561e-01,9.99999e-01,9.99999e-01,9.99976e-01,7.81579e-01,9.99999e-01
4.553838212e-01,7.85380e-01,9.99999e-01,9.99999e-01,9.99983e-01,7.85393e-01,9.99999e-01
4.576607403e-01,7.89143e-01,9.99999e-01,9.99999e-01,9.99992e-01,7.89149e-01,9.99999e-01
4.599490440e-01,7.92845e-01,9.99999e-01,9.99999e-01,9.99994e-01,7.92849e-01,9.99999e-01
4.622487892e-01,7.96492e-01,9.99999e-01,9.99999e-01,9.99998e-01,7.96493e-01,9.99999e-01
4.645600332e-01,8.00078e-01,9.99999e-01,9.99999e-01,9.99995e-01,8.00080e-01,9.99999e-01
4.668828333e-01,8.03564e-01,9.99999e-01,9.99999e-01,9.99938e-01,8.03613e-01,9.99999e-01
4.692172475e-01,8.06987e-01,9.99999e-01,9.99999e-01,9.99870e-01,8.07091e-01,9.99999e-01
4.715633337e-01,8.10447e-01,9.99999e-01,9.99999e-01,9.99915e-01,8.10515e-01,9.99999e-01
4.739211504e-01,8.13820e-01,9.99999e-01,9.99999e-01,9.99919e-01,8.13885e-01,9.99999e-01
4.762907561e-01,8.17169e-01,9.99999e-01,9.99999e-01,9.99957e-01,8.17203e-01,9.99999e-01
4.786722099e-01,8.20454e-01,9.99999e-01,9.99999e-01,9.99982e-01,8.20468e-01,9.99999e-01
4.810655710e-01,8.23677e-01,9.99999e-01,9.99999e-01,9.99994e-01,8.23681e-01,9.99999e-01
4.834708988e-01,8.26801e-01,9.99999e-01,9.99999e-01,9.99949e-01,8.26843e-01,9.99999e-01
4.858882533e-01,8.29879e-01,9.99999e-01,9.99999e-01,9.99908e-01,8.29954e-01,9.99999e-01
4.883176946e-01,8.32952e-01,9.99999e-01,9.99999e-01,9.99923e-01,8.33015e-01,9.99999e-01
4.907592831e-01,8.35969e-01,9.99999e-01,9.99999e-01,9.99930e-01,8.36027e-01,9.99999e-01
4.932130795e-01,8.38949e-01,9.99999e-01,9.99999e-01,9.99950e-01,8.38990e-01,9.99999e-01
4.956791449e-01,8.41882e-01,9.99999e-01,9.99999e-01,9.99973e-01,8.41904e-01,9.99999e-01
4.981575406e-01,8.44661e-01,9.99999e-01,9.99999e-01,9.99869e-01,8.44771e-01,9.99999e-01
5.006483283e-01,8.47301e-01,9.99999e-01,9.99999e-01,9.99661e-01,8.47590e-01,9.99997e-01
5.031515699e-01,8.48899e-01,9.99999e-01,9.99999e-01,9.98295e-01,8.50363e-01,9.99981e-01
5.056673278e-01,8.52307e-01,9.99999e-01,9.99999e-01,9.99102e-01,8.53090e-01,9.99979e-01
5.081956644e-01,8.54793e-01,9.99999e-01,9.99999e-01,9.98868e-01,8.55772e-01,9.99987e-01
5.107366428e-01,8.57751e-01,9.99999e-01,9.99999e-01,9.99236e-01,8.58408e-01,9.99997e-01
5.132903260e-01,8.60626e-01,9.99999e-01,9.99999e-01,9.99563e-01,8.61001e-01,9.99999e-01
5.158567776e-01,8.63391e-01,9.99999e-01,9.99999e-01,9.99815e-01,8.63550e-01,9.99999e-01
5.184360615e-01,8.65992e-01,9.99999e-01,9.99999e-01,9.99925e-01,8.66056e-01,9.99999e-01
5.210282418e-01,8.68495e-01,9.99999e-01,9.99999e-01,9.99971e-01,8.68519e-01,9.99999e-01
5.236333830e-01,8.70844e-01,9.99999e-01,9.99999e-01,9.99888e-01,8.70941e-01,9.99998e-01
5.262515499e-01,8.73260e-01,9.99999e-01,9.99999e-01,9.99930e-01,8.73322e-01,9.99998e-01
5.288828077e-01,8.75605e-01,9.99999e-01,9.99999e-01,9.99935e-01,8.75661e-01,9.99998e-01
5.315272217e-01,8.77912e-01,9.99999e-01,9.99999e-01,9.99943e-01,8.77961e-01,9.99999e-01
5.341848578e-01,8.80188e-01,9.99999e-01,9.99999e-01,9.99962e-01,8.80221e-01,9.99999e-01
5.368557821e-01,8.82327e-01,9.99999e-01,9.99999e-01,9.99869e-01,8.82442e-01,9.99999e-01
5.395400610e-01,8.84205e-01,9.99999e-01,9.99999e-01,9.99529e-01,8.84624e-01,9.99995e-01
5.422377613e-01,8.86226e-01,9.99999e-01,9.99999e-01,9.99398e-01,8.86769e-01,9.99988e-01
5.449489501e-01,8.88367e-01,9.99999e-01,9.99999e-01,9.99437e-01,8.88876e-01,9.99988e-01
5.476736949e-01,8.90501e-01,9.99999e-01,9.99999e-01,9.99504e-01,8.90947e-01,9.99993e-01
5.504120634e-01,8.92659e-01,9.99999e-01,9.99999e-01,9.99640e-01,8.92981e-01,9.99997e-01
5.531641237e-01,8.94818e-01,9.99999e-01,9.99999e-01,9.99818e-01,8.94980e-01,9.99999e-01
5.559299443e-01,8.96866e-01,9.99999e-01,9.99999e-01,9.99912e-01,8.96944e-01,9.99999e-01
5.587095940e-01,8.98823e-01,9.99999e-01,9.99999e-01,9.99944e-01,8.98873e-01,9.99999e-01
5.615031420e-01,9.00713e-01,9.99999e-01,9.99999e-01,9.99938e-01,9.00768e-01,9.99999e-01
5.643106577e-01,9.02565e-01,9.99999e-01,9.99999e-01,9.99929e-01,9.02629e-01,9.99998e-01
5.671322110e-01,9.03679e-01,9.99999e-01,9.99999e-01,9.99146e-01,9.04457e-01,9.99992e-01
5.699678720e-01,9.05427e-01,9.99999e-01,9.99999e-01,9.99110e-01,9.06253e-01,9.99976e-01
5.728177114e-01,9.07152e-01,9.99999e-01,9.99999e-01,9.99066e-01,9.08017e-01,9.99980e-01
5.756818000e-01,9.08961e-01,9.99999e-01,9.99999e-01,9.99144e-01,9.09749e-01,9.99988e-01
5.785602090e-01,9.10769e-01,9.99999e-01,9.99999e-01,9.99255e-01,9.11450e-01,9.99996e-01
5.814530100e-01,9.12436e-01,9.99999e-01,9.99999e-01,9.99250e-01,9.13121e-01,9.99997e-01
5.843602750e-01,9.13936e-01,9.99999e-01,9.99999e-01,9.99101e-01,9.14762e-01,9.99994e-01
5.872820764e-01,9.09260e-01,9.99999e-01,9.99999e-01,9.92290e-01,9.16373e-01,9.99945e-01
5.902184868e-01,9.09305e-01,9.99999e-01,9.99999e-01,9.90721e-01,9.17955e-01,9.99852e-01
5.931695792e-01,9.13335e-01,9.99999e-01,9.99999e-01,9.93425e-01,9.19509e-01,9.99857e-01
5.961354271e-01,9.14333e-01,9.99999e-01,9.99999e-01,9.92805e-01,9.21034e-01,9.99918e-01
5.991161043e-01,9.17668e-01,9.99999e-01,9.99999e-01,9.94752e-01,9.22532e-01,9.99974e-01
6.021116848e-01,9.21249e-01,9.99999e-01,9.99999e-01,9.97022e-01,9.24002e-01,9.99996e-01
6.051222432e-01,9.24051e-01,9.99999e-01,9.99999e-01,9.98492e-01,9.25446e-01,9.99999e-01
6.081478544e-01,9.26260e-01,9.99999e-01,9.99999e-01,9.99349e-01,9.26863e-01,9.99999e-01
6.111885937e-01,9.28000e-01,9.99999e-01,9.99999e-01,9.99724e-01,9.28255e-01,9.99999e-01
6.142445367e-01,9.29507e-01,9.99999e-01,9.99999e-01,9.99876e-01,9.29621e-01,9.99999e-01
6.173157594e-01,9.30899e-01,9.99999e-01,9.99999e-01,9.99931e-01,9.30962e-01,9.99999e-01
6.204023382e-01,9.32224e-01,9.99999e-01,9.99999e-01,9.99941e-01,9.32278e-01,9.99999e-01
6.235043498e-01,9.33331e-01,9.99999e-01,9.99999e-01,9.99743e-01,9.33570e-01,9.99998e-01
6.266218716e-01,9.33576e-01,9.99999e-01,9.99999e-01,9.98658e-01,9.34839e-01,9.99990e-01
6.297549810e-01,9.35606e-01,9.99999e-01,9.99999e-01,9.99507e-01,9.36084e-01,9.99980e-01
6.329037559e-01,9.36382e-01,9.99999e-01,9.99999e-01,9.99029e-01,9.37306e-01,9.99984e-01
6.360682746e-01,9.37719e-01,9.99999e-01,9.99999e-01,9.99170e-01,9.38505e-01,9.99990e-01
6.392486160e-01,9.38671e-01,9.99999e-01,9.99999e-01,9.98926e-01,9.39683e-01,9.99995e-01
6.424448591e-01,9.39473e-01,9.99999e-01,9.99999e-01,9.98555e-01,9.40838e-01,9.99992e-01
6.456570834e-01,9.35633e-01,9.99999e-01,9.99999e-01,9.93309e-01,9.41972e-01,9.99959e-01
6.488853688e-01,9.38404e-01,9.99999e-01,9.99999e-01,9.95138e-01,9.43085e-01,9.99896e-01
6.521297956e-01,9.39420e-01,9.99999e-01,9.99999e-01,9.95045e-01,9.44177e-01,9.99914e-01
6.553904446e-01,9.40510e-01,9.99999e-01,9.99999e-01,9.95049e-01,9.45249e-01,9.99936e-01
6.586673968e-01,9.42282e-01,9.99999e-01,9.99999e-01,9.95773e-01,9.46301e-01,9.99978e-01
6.619607338e-01,9.45097e-01,9.99999e-01,9.99999e-01,9.97643e-01,9.47333e-01,9.99994e-01
6.652705375e-01,9.47002e-01,9.99999e-01,9.99999e-01,9.98584e-01,9.48346e-01,9.99997e-01
6.685968902e-01,9.48769e-01,9.99999e-01,9.99999e-01,9.99398e-01,9.49340e-01,9.99999e-01
6.719398746e-01,9.50026e-01,9.99999e-01,9.99999e-01,9.99695e-01,9.50315e-01,9.99999e-01
6.752995740e-01,9.51120e-01,9.99999e-01,9.99999e-01,9.99838e-01,9.51272e-01,9.99999e-01
6.786760719e-01,9.51982e-01,9.99999e-01,9.99999e-01,9.99759e-01,9.52212e-01,9.99999e-01
6.820694522e-01,9.52741e-01,9.99999e-01,9.99999e-01,9.99590e-01,9.53133e-01,9.99997e-01
6.854797995e-01,9.53529e-01,9.99999e-01,9.99999e-01,9.99471e-01,9.54037e-01,9.99994e-01
6.889071985e-01,9.53679e-01,9.99999e-01,9.99999e-01,9.98706e-01,9.54924e-01,9.99988e-01
6.923517345e-01,9.35854e-01,9.99999e-01,9.99999e-01,9.79234e-01,9.55795e-01,9.99899e-01
6.958134932e-01,9.46222e-01,9.99999e-01,9.99999e-01,9.89319e-01,9.56648e-01,9.99778e-01
6.992925606e-01,9.47425e-01,9.99999e-01,9.99999e-01,9.89688e-01,9.57486e-01,9.99800e-01
7.027890234e-01,9.46048e-01,9.99999e-01,9.99999e-01,9.87356e-01,9.58308e-01,9.99847e-01
7.063029686e-01,9.48830e-01,9.99999e-01,9.99999e-01,9.89351e-01,9.59115e-01,9.99923e-01
7.098344834e-01,9.50054e-01,9.99999e-01,9.99999e-01,9.89780e-01,9.59906e-01,9.99954e-01
7.133836558e-01,9.47427e-01,9.99999e-01,9.99999e-01,9.86289e-01,9.60682e-01,9.99910e-01
7.169505741e-01,8.60668e-01,9.99999e-01,9.99999e-01,8.95810e-01,9.61443e-01,9.99298e-01
7.205353270e-01,9.11206e-01,9.99999e-01,9.99999e-01,9.48183e-01,9.62190e-01,9.98763e-01
7.241380036e-01,8.98265e-01,9.99999e-01,9.99999e-01,9.33848e-01,9.62923e-01,9.98932e-01
7.277586936e-01,9.05189e-01,9.99999e-01,9.99999e-01,9.40161e-01,9.63642e-01,9.99127e-01
7.313974871e-01,9.02925e-01,9.99999e-01,9.99999e-01,9.36688e-01,9.64347e-01,9.99590e-01
7.350544745e-01,9.30976e-01,9.99999e-01,9.99999e-01,9.64839e-01,9.65039e-01,9.99857e-01
7.387297469e-01,9.40552e-01,9.99999e-01,9.99999e-01,9.74003e-01,9.65718e-01,9.99934e-01
7.424233956e-01,9.54018e-01,9.99999e-01,9.99999e-01,9.87214e-01,9.66383e-01,9.99988e-01
7.461355126e-01,9.59516e-01,9.99999e-01,9.99999e-01,9.92224e-01,9.67036e-01,9.99997e-01
7.498661902e-01,9.64174e-01,9.99999e-01,9.99999e-01,9.96380e-01,9.67677e-01,9.99998e-01
7.536155211e-01,9.66581e-01,9.99999e-01,9.99999e-01,9.98219e-01,9.68305e-01,9.99999e-01
7.573835987e-01,9.68033e-01,9.99999e-01,9.99999e-01,9.99083e-01,9.68921e-01,9.99999e-01
7.611705167e-01,9.68973e-01,9.99999e-01,9.99999e-01,9.99430e-01,9.69525e-01,9.99999e-01
7.649763693e-01,9.69772e-01,9.99999e-01,9.99999e-01,9.99642e-01,9.70118e-01,9.99999e-01
7.688012511e-01,9.70458e-01,9.99999e-01,9.99999e-01,9.99750e-01,9.70700e-01,9.99999e-01
7.726452574e-01,9.71071e-01,9.99999e-01,9.99999e-01,9.99794e-01,9.71270e-01,9.99999e-01
7.765084837e-01,9.71545e-01,9.99999e-01,9.99999e-01,9.99706e-01,9.71830e-01,9.99999e-01
7.803910261e-01,9.71145e-01,9.99999e-01,9.99999e-01,9.98732e-01,9.72378e-01,9.99998e-01
7.842929812e-01,9.68609e-01,9.99999e-01,9.99999e-01,9.95580e-01,9.72916e-01,9.99991e-01
7.882144461e-01,9.64593e-01,9.99999e-01,9.99999e-01,9.90968e-01,9.73444e-01,9.99937e-01
7.921555184e-01,9.69044e-01,9.99999e-01,9.99999e-01,9.95058e-01,9.73962e-01,9.99891e-01
7.961162960e-01,9.65803e-01,9.99999e-01,9.99999e-01,9.91207e-01,9.74469e-01,9.99896e-01
8.000968774e-01,9.65005e-01,9.99999e-01,9.99999e-01,9.89889e-01,9.74967e-01,9.99890e-01
8.040973618e-01,9.65502e-01,9.99999e-01,9.99999e-01,9.89877e-01,9.75456e-01,9.99916e-01
8.081178486e-01,9.53641e-01,9.99999e-01,9.99999e-01,9.77239e-01,9.75935e-01,9.99915e-01
8.121584379e-01,8.87091e-01,9.99999e-01,9.99999e-01,9.08818e-01,9.76404e-01,9.99679e-01
8.162192301e-01,8.71816e-01,9.99999e-01,9.99999e-01,8.93537e-01,9.76865e-01,9.98797e-01
8.203003262e-01,9.22554e-01,9.99999e-01,9.99999e-01,9.45296e-01,9.77317e-01,9.98591e-01
8.244018279e-01,9.04370e-01,9.99999e-01,9.99999e-01,9.25977e-01,9.77760e-01,9.98879e-01
8.285238370e-01,9.13426e-01,9.99999e-01,9.99999e-01,9.34610e-01,9.78194e-01,9.99119e-01
8.326664562e-01,9.13862e-01,9.99999e-01,9.99999e-01,9.34166e-01,9.78620e-01,9.99635e-01
8.368297885e-01,9.32440e-01,9.99999e-01,9.99999e-01,9.52483e-01,9.79038e-01,9.99916e-01
8.410139374e-01,9.51478e-01,9.99999e-01,9.99999e-01,9.71490e-01,9.79448e-01,9.99950e-01
8.452190071e-01,9.66034e-01,9.99999e-01,9.99999e-01,9.85928e-01,9.79850e-01,9.99970e-01
8.494451021e-01,9.72174e-01,9.99999e-01,9.99999e-01,9.91790e-01,9.80244e-01,9.99976e-01
8.536923276e-01,9.75860e-01,9.99999e-01,9.99999e-01,9.95149e-01,9.80630e-01,9.99985e-01
8.579607893e-01,9.78067e-01,9.99999e-01,9.99999e-01,9.97004e-01,9.81009e-01,9.99996e-01
8.622505932e-01,9.79515e-01,9.99999e-01,9.99999e-01,9.98099e-01,9.81380e-01,9.99998e-01
8.665618462e-01,9.80587e-01,9.99999e-01,9.99999e-01,9.98820e-01,9.81745e-01,9.99999e-01
8.708946554e-01,9.80774e-01,9.99999e-01,9.99999e-01,9.98647e-01,9.82102e-01,9.99998e-01
8.752491287e-01,9.80675e-01,9.99999e-01,9.99999e-01,9.98192e-01,9.82453e-01,9.99997e-01
8.796253743e-01,9.80326e-01,9.99999e-01,9.99999e-01,9.97491e-01,9.82796e-01,9.99993e-01
8.840235012e-01,9.80302e-01,9.99999e-01,9.99999e-01,9.97137e-01,9.83133e-01,9.99982e-01
8.884436187e-01,9.73066e-01,9.99999e-01,9.99999e-01,9.89475e-01,9.83463e-01,9.99950e-01
8.928858368e-01,8.81031e-01,9.99999e-01,9.99999e-01,8.95805e-01,9.83787e-01,9.99714e-01
8.973502660e-01,8.10285e-01,9.99999e-01,9.99999e-01,8.24577e-01,9.84105e-01,9.98537e-01
9.018370173e-01,8.90569e-01,9.99999e-01,9.99999e-01,9.06750e-01,9.84417e-01,9.97701e-01
9.063462024e-01,9.00557e-01,9.99999e-01,9.99999e-01,9.16379e-01,9.84722e-01,9.97980e-01
9.108779334e-01,8.58294e-01,9.99999e-01,9.99999e-01,8.73176e-01,9.85021e-01,9.97901e-01
9.154323231e-01,8.43132e-01,9.99999e-01,9.99999e-01,8.57184e-01,9.85315e-01,9.98264e-01
9.200094847e-01,8.73070e-01,9.99999e-01,9.99999e-01,8.86683e-01,9.85603e-01,9.99028e-01
9.246095321e-01,8.16829e-01,9.99999e-01,9.99999e-01,8.29451e-01,9.85885e-01,9.98880e-01
9.292325798e-01,2.95810e-01,9.99999e-01,9.99999e-01,3.01586e-01,9.86162e-01,9.94608e-01
9.338787427e-01,2.09297e-01,9.99999e-01,9.99999e-01,2.16362e-01,9.86434e-01,9.80649e-01
9.385481364e-01,5.18660e-01,9.99999e-01,9.99999e-01,5.37057e-01,9.86700e-01,9.78760e-01
9.432408771e-01,4.14890e-01,9.99999e-01,9.99999e-01,4.28229e-01,9.86961e-01,9.81649e-01
9.479570815e-01,3.04211e-01,9.99999e-01,9.99999e-01,3.12830e-01,9.87217e-01,9.85039e-01
9.526968669e-01,4.01775e-01,9.99999e-01,9.99999e-01,4.10632e-01,9.87468e-01,9.90848e-01
9.574603512e-01,4.23558e-01,9.99999e-01,9.99999e-01,4.30833e-01,9.87714e-01,9.95340e-01
9.622476530e-01,4.93216e-01,9.99999e-01,9.99999e-01,5.00843e-01,9.87955e-01,9.96775e-01
9.670588912e-01,6.60004e-01,9.99999e-01,9.99999e-01,6.69367e-01,9.88191e-01,9.97793e-01
9.718941857e-01,7.64697e-01,9.99999e-01,9.99999e-01,7.74911e-01,9.88423e-01,9.98375e-01
9.767536566e-01,7.98838e-01,9.99999e-01,9.99999e-01,8.09012e-01,9.88651e-01,9.98757e-01
9.816374249e-01,8.44662e-01,9.99999e-01,9.99999e-01,8.54532e-01,9.88873e-01,9.99569e-01
9.865456120e-01,8.96365e-01,9.99999e-01,9.99999e-01,9.06331e-01,9.89092e-01,9.99909e-01
9.914783401e-01,9.30846e-01,9.99999e-01,9.99999e-01,9.40931e-01,9.89306e-01,9.99974e-01
9.964357318e-01,9.57239e-01,9.99999e-01,9.99999e-01,9.67393e-01,9.89516e-01,9.99985e-01
1.001417910e+00,9.70233e-01,9.99999e-01,9.99999e-01,9.80329e-01,9.89722e-01,9.99977e-01
1.006425000e+00,9.78730e-01,9.99999e-01,9.99999e-01,9.88722e-01,9.89924e-01,9.99967e-01
1.011457125e+00,9.83163e-01,9.99999e-01,9.99999e-01,9.92999e-01,9.90122e-01,9.99970e-01
1.016514411e+00,9.85580e-01,9.99999e-01,9.99999e-01,9.95237e-01,9.90316e-01,9.99978e-01
1.021596983e+00,9.86725e-01,9.99999e-01,9.99999e-01,9.96201e-01,9.90507e-01,9.99979e-01
1.026704968e+00,9.87744e-01,9.99999e-01,9.99999e-01,9.97035e-01,9.90693e-01,9.99986e-01
1.031838492e+00,9.88741e-01,9.99999e-01,9.99999e-01,9.97847e-01,9.90876e-01,9.99995e-01
1.036997685e+00,9.89786e-01,9.99999e-01,9.99999e-01,9.98719e-01,9.91056e-01,9.99998e-01
1.042182673e+00,9.89714e-01,9.99999e-01,9.99999e-01,9.98468e-01,9.91232e-01,9.99999e-01
1.047393587e+00,9.89395e-01,9.99999e-01,9.99999e-01,9.97972e-01,9.91404e-01,9.99999e-01
1.052630555e+00,9.88813e-01,9.99999e-01,9.99999e-01,9.97216e-01,9.91573e-01,9.99998e-01
1.057893707e+00,9.87128e-01,9.99999e-01,9.99999e-01,9.95351e-01,9.91739e-01,9.99997e-01
1.063183176e+00,9.84327e-01,9.99999e-01,9.99999e-01,9.92367e-01,9.91901e-01,9.99995e-01
1.068499092e+00,9.79419e-01,9.99999e-01,9.99999e-01,9.87264e-01,9.92061e-01,9.99990e-01
1.073841587e+00,9.77412e-01,9.99999e-01,9.99999e-01,9.85096e-01,9.92217e-01,9.99980e-01
1.079210795e+00,9.73446e-01,9.99999e-01,9.99999e-01,9.80980e-01,9.92370e-01,9.99948e-01
1.084606849e+00,9.63938e-01,9.99999e-01,9.99999e-01,9.71321e-01,9.92520e-01,9.99876e-01
1.090029883e+00,9.51652e-01,9.99999e-01,9.99999e-01,9.58925e-01,9.92667e-01,9.99744e-01
1.095480033e+00,8.85373e-01,9.99999e-01,9.99999e-01,8.92194e-01,9.92812e-01,9.99538e-01
1.100957433e+00,7.43734e-01,9.99999e-01,9.99999e-01,7.49647e-01,9.92953e-01,9.99151e-01
1.106462220e+00,4.84192e-01,9.99999e-01,9.99999e-01,4.88263e-01,9.93092e-01,9.98560e-01
1.111994531e+00,2.26034e-01,9.99999e-01,9.99999e-01,2.28447e-01,9.93228e-01,9.96184e-01
1.117554504e+00,9.45904e-02,9.99999e-01,9.99999e-01,9.65457e-02,9.93361e-01,9.86293e-01
1.123142276e+00,1.88142e-01,9.99999e-01,9.99999e-01,1.95674e-01,9.93492e-01,9.67802e-01
1.128757988e+00,3.16869e-01,9.99999e-01,9.99999e-01,3.31208e-01,9.93620e-01,9.62847e-01
1.134401778e+00,1.48707e-01,9.99999e-01,9.99999e-01,1.54539e-01,9.93745e-01,9.68320e-01
1.140073787e+00,4.90443e-01,9.99999e-01,9.99999e-01,5.06325e-01,9.93869e-01,9.74606e-01
1.145774156e+00,2.49086e-01,9.99999e-01,9.99999e-01,2.56562e-01,9.93989e-01,9.76730e-01
1.151503026e+00,2.18366e-01,9.99999e-01,9.99999e-01,2.22560e-01,9.94108e-01,9.86969e-01
1.157260541e+00,2.66211e-01,9.99999e-01,9.99999e-01,2.68809e-01,9.94224e-01,9.96085e-01
1.163046844e+00,3.74066e-01,9.99999e-01,9.99999e-01,3.76614e-01,9.94337e-01,9.98888e-01
1.168862078e+00,4.98062e-01,9.99999e-01,9.99999e-01,5.01129e-01,9.94449e-01,9.99427e-01
1.174706389e+00,6.48302e-01,9.99999e-01,9.99999e-01,6.52344e-01,9.94558e-01,9.99240e-01
1.180579921e+00,7.65349e-01,9.99999e-01,9.99999e-01,7.70336e-01,9.94666e-01,9.98852e-01
1.186482820e+00,8.56804e-01,9.99999e-01,9.99999e-01,8.62322e-01,9.94771e-01,9.98822e-01
1.192415234e+00,9.11515e-01,9.99999e-01,9.99999e-01,9.17020e-01,9.94874e-01,9.99117e-01
1.198377311e+00,9.24081e-01,9.99999e-01,9.99999e-01,9.29522e-01,9.94975e-01,9.99166e-01
1.204369197e+00,9.28031e-01,9.99999e-01,9.99999e-01,9.33328e-01,9.95074e-01,9.99245e-01
1.210391043e+00,9.31147e-01,9.99999e-01,9.99999e-01,9.36094e-01,9.95171e-01,9.99541e-01
1.216442998e+00,9.40716e-01,9.99999e-01,9.99999e-01,9.45455e-01,9.95266e-01,9.99718e-01
1.222525213e+00,9.52605e-01,9.99999e-01,9.99999e-01,9.57212e-01,9.95359e-01,9.99825e-01
1.228637839e+00,9.65582e-01,9.99999e-01,9.99999e-01,9.70073e-01,9.95450e-01,9.99918e-01
