#,Wave/freq,Total,N2,O2,H2O,Rayleigh,CIA
4.000000000e-01,7.68686e-01,9.99999e-01,9.99999e-01,9.99969e-01,7.68709e-01,9.99999e-01
4.020000000e-01,7.72703e-01,9.99999e-01,9.99999e-01,9.99981e-01,7.72717e-01,9.99999e-01
4.040100000e-01,7.76657e-01,9.99999e-01,9.99999e-01,9.99991e-01,7.76663e-01,9.99999e-01
4.060300500e-01,7.80549e-01,9.99999e-01,9.99999e-01,9.99997e-01,7.80550e-01,9.99999e-01
4.080602003e-01,7.84379e-01,9.99999e-01,9.99999e-01,9.99998e-01,7.84379e-01,9.99999e-01
4.101005013e-01,7.88151e-01,9.99999e-01,9.99999e-01,9.99999e-01,7.88151e-01,9.99999e-01
4.121510038e-01,7.91865e-01,9.99999e-01,9.99999e-01,9.99998e-01,7.91866e-01,9.99999e-01
4.142117588e-01,7.95518e-01,9.99999e-01,9.99999e-01,9.99991e-01,7.95524e-01,9.99999e-01
4.162828176e-01,7.99098e-01,9.99999e-01,9.99999e-01,9.99962e-01,7.99127e-01,9.99999e-01
4.183642317e-01,8.02657e-01,9.99999e-01,9.99999e-01,9.99977e-01,8.02674e-01,9.99999e-01
4.204560528e-01,8.06156e-01,9.99999e-01,9.99999e-01,9.99986e-01,8.06167e-01,9.99999e-01
4.225583331e-01,8.09601e-01,9.99999e-01,9.99999e-01,9.99994e-01,8.09605e-01,9.99999e-01
4.246711247e-01,8.12987e-01,9.99999e-01,9.99999e-01,9.99995e-01,8.12990e-01,9.99999e-01
4.267944804e-01,8.16317e-01,9.99999e-01,9.99999e-01,9.99993e-01,8.16321e-01,9.99999e-01
4.289284528e-01,8.19597e-01,9.99999e-01,9.99999e-01,9.99994e-01,8.19600e-01,9.99999e-01
4.310730950e-01,8.22826e-01,9.99999e-01,9.99999e-01,9.99997e-01,8.22827e-01,9.99999e-01
4.332284605e-01,8.26002e-01,9.99999e-01,9.99999e-01,9.99999e-01,8.26003e-01,9.99999e-01
4.353946028e-01,8.29127e-01,9.99999e-01,9.99999e-01,9.99999e-01,8.29128e-01,9.99999e-01
4.375715758e-01,8.32199e-01,9.99999e-01,9.99999e-01,9.99995e-01,8.32202e-01,9.99999e-01
4.397594337e-01,8.35200e-01,9.99999e-01,9.99999e-01,9.99967e-01,8.35227e-01,9.99999e-01
4.419582309e-01,8.38065e-01,9.99999e-01,9.99999e-01,9.99835e-01,8.38203e-01,9.99999e-01
4.441680220e-01,8.41022e-01,9.99999e-01,9.99999e-01,9.99871e-01,8.41130e-01,9.99999e-01
4.463888621e-01,8.43897e-01,9.99999e-01,9.99999e-01,9.99866e-01,8.44009e-01,9.99999e-01
4.486208064e-01,8.46771e-01,9.99999e-01,9.99999e-01,9.99916e-01,8.46841e-01,9.99999e-01
4.508639105e-01,8.49594e-01,9.99999e-01,9.99999e-01,9.99960e-01,8.49627e-01,9.99999e-01
4.531182300e-01,8.52353e-01,9.99999e-01,9.99999e-01,9.99984e-01,8.52366e-01,9.99999e-01
4.553838212e-01,8.55051e-01,9.99999e-01,9.99999e-01,9.99989e-01,8.55059e-01,9.99999e-01
4.576607403e-01,8.57704e-01,9.99999e-01,9.99999e-01,9.99994e-01,8.57708e-01,9.99999e-01
4.599490440e-01,8.60310e-01,9.99999e-01,9.99999e-01,9.99996e-01,8.60312e-01,9.99999e-01
4.622487892e-01,8.62873e-01,9.99999e-01,9.99999e-01,9.99998e-01,8.62873e-01,9.99999e-01
4.645600332e-01,8.65388e-01,9.99999e-01,9.99999e-01,9.99997e-01,8.65390e-01,9.99999e-01
4.668828333e-01,8.67831e-01,9.99999e-01,9.99999e-01,9.99960e-01,8.67865e-01,9.99999e-01
4.692172475e-01,8.70225e-01,9.99999e-01,9.99999e-01,9.99916e-01,8.70298e-01,9.99999e-01
4.715633337e-01,8.72642e-01,9.99999e-01,9.99999e-01,9.99944e-01,8.72689e-01,9.99999e-01
4.739211504e-01,8.74994e-01,9.99999e-01,9.99999e-01,9.99947e-01,8.75040e-01,9.99999e-01
4.762907561e-01,8.77326e-01,9.99999e-01,9.99999e-01,9.99972e-01,8.77350e-01,9.99999e-01
4.786722099e-01,8.79611e-01,9.99999e-01,9.99999e-01,9.99988e-01,8.79621e-01,9.99999e-01
4.810655710e-01,8.81849e-01,9.99999e-01,9.99999e-01,9.99996e-01,8.81852e-01,9.99999e-01
4.834708988e-01,8.84017e-01,9.99999e-01,9.99999e-01,9.99967e-01,8.84045e-01,9.99999e-01
4.858882533e-01,8.86147e-01,9.99999e-01,9.99999e-01,9.99940e-01,8.86200e-01,9.99999e-01
4.883176946e-01,8.88273e-01,9.99999e-01,9.99999e-01,9.99950e-01,8.88317e-01,9.99999e-01
4.907592831e-01,8.90358e-01,9.99999e-01,9.99999e-01,9.99954e-01,8.90397e-01,9.99999e-01
4.932130795e-01,8.92413e-01,9.99999e-01,9.99999e-01,9.99967e-01,8.92441e-01,9.99999e-01
4.956791449e-01,8.94435e-01,9.99999e-01,9.99999e-01,9.99982e-01,8.94450e-01,9.99999e-01
4.981575406e-01,8.96347e-01,9.99999e-01,9.99999e-01,9.99915e-01,8.96422e-01,9.99999e-01
5.006483283e-01,8.98164e-01,9.99999e-01,9.99999e-01,9.99781e-01,8.98361e-01,9.99998e-01
5.031515699e-01,8.99261e-01,9.99999e-01,9.99999e-01,9.98896e-01,9.00265e-01,9.99987e-01
5.056673278e-01,9.01598e-01,9.99999e-01,9.99999e-01,9.99417e-01,9.02135e-01,9.99986e-01
5.081956644e-01,9.03300e-01,9.99999e-01,9.99999e-01,9.99265e-01,9.03972e-01,9.99990e-01
5.107366428e-01,9.05326e-01,9.99999e-01,9.99999e-01,9.99503e-01,9.05776e-01,9.99997e-01
5.132903260e-01,9.07291e-01,9.99999e-01,9.99999e-01,9.99716e-01,9.07549e-01,9.99999e-01
5.158567776e-01,9.09181e-01,9.99999e-01,9.99999e-01,9.99879e-01,9.09289e-01,9.99999e-01
5.184360615e-01,9.10955e-01,9.99999e-01,9.99999e-01,9.99951e-01,9.10999e-01,9.99999e-01
5.210282418e-01,9.12661e-01,9.99999e-01,9.99999e-01,9.99981e-01,9.12678e-01,9.99999e-01
5.236333830e-01,9.14260e-01,9.99999e-01,9.99999e-01,9.99927e-01,9.14326e-01,9.99998e-01
5.262515499e-01,9.15904e-01,9.99999e-01,9.99999e-01,9.99954e-01,9.15945e-01,9.99998e-01
5.288828077e-01,9.17497e-01,9.99999e-01,9.99999e-01,9.99958e-01,9.17535e-01,9.99999e-01
5.315272217e-01,9.19063e-01,9.99999e-01,9.99999e-01,9.99963e-01,9.19096e-01,9.99999e-01
5.341848578e-01,9.20607e-01,9.99999e-01,9.99999e-01,9.99975e-01,9.20629e-01,9.99999e-01
5.368557821e-01,9.22057e-01,9.99999e-01,9.99999e-01,9.99915e-01,9.22134e-01,9.99999e-01
5.395400610e-01,9.23330e-01,9.99999e-01,9.99999e-01,9.99697e-01,9.23612e-01,9.99997e-01
5.422377613e-01,9.24695e-01,9.99999e-01,9.99999e-01,9.99609e-01,9.25063e-01,9.99992e-01
5.449489501e-01,9.26144e-01,9.99999e-01,9.99999e-01,9.99636e-01,9.26487e-01,9.99992e-01
5.476736949e-01,9.27584e-01,9.99999e-01,9.99999e-01,9.99678e-01,9.27885e-01,9.99995e-01
5.504120634e-01,9.29041e-01,9.99999e-01,9.99999e-01,9.99766e-01,9.29258e-01,9.99998e-01
5.531641237e-01,9.30497e-01,9.99999e-01,9.99999e-01,9.99882e-01,9.30606e-01,9.99999e-01
5.559299443e-01,9.31876e-01,9.99999e-01,9.99999e-01,9.99942e-01,9.31929e-01,9.99999e-01
5.587095940e-01,9.33194e-01,9.99999e-01,9.99999e-01,9.99963e-01,9.33227e-01,9.99999e-01
5.615031420e-01,9.34465e-01,9.99999e-01,9.99999e-01,9.99959e-01,9.34502e-01,9.99999e-01
5.643106577e-01,9.35711e-01,9.99999e-01,9.99999e-01,9.99954e-01,9.35753e-01,9.99999e-01
5.671322110e-01,9.36465e-01,9.99999e-01,9.99999e-01,9.99452e-01,9.36982e-01,9.99994e-01
5.699678720e-01,9.37629e-01,9.99999e-01,9.99999e-01,9.99419e-01,9.38187e-01,9.99984e-01
5.728177114e-01,9.38791e-01,9.99999e-01,9.99999e-01,9.99395e-01,9.39370e-01,9.99987e-01
5.756818000e-01,9.40003e-01,9.99999e-01,9.99999e-01,9.99445e-01,9.40531e-01,9.99991e-01
5.785602090e-01,9.41214e-01,9.99999e-01,9.99999e-01,9.99516e-01,9.41671e-01,9.99997e-01
5.814530100e-01,9.42331e-01,9.99999e-01,9.99999e-01,9.99514e-01,9.42790e-01,9.99998e-01
5.843602750e-01,9.43338e-01,9.99999e-01,9.99999e-01,9.99420e-01,9.43887e-01,9.99996e-01
5.872820764e-01,9.40222e-01,9.99999e-01,9.99999e-01,9.95015e-01,9.44965e-01,9.99964e-01
5.902184868e-01,9.40225e-01,9.99999e-01,9.99999e-01,9.93967e-01,9.46022e-01,9.99904e-01
5.931695792e-01,9.42933e-01,9.99999e-01,9.99999e-01,9.95734e-01,9.47059e-01,9.99907e-01
5.961354271e-01,9.43596e-01,9.99999e-01,9.99999e-01,9.95325e-01,9.48077e-01,9.99946e-01
5.991161043e-01,9.45825e-01,9.99999e-01,9.99999e-01,9.96589e-01,9.49076e-01,9.99983e-01
6.021116848e-01,9.48216e-01,9.99999e-01,9.99999e-01,9.98063e-01,9.50057e-01,9.99997e-01
6.051222432e-01,9.50087e-01,9.99999e-01,9.99999e-01,9.99019e-01,9.51018e-01,9.99999e-01
6.081478544e-01,9.51560e-01,9.99999e-01,9.99999e-01,9.99576e-01,9.51962e-01,9.99999e-01
6.111885937e-01,9.52718e-01,9.99999e-01,9.99999e-01,9.99820e-01,9.52888e-01,9.99999e-01
6.142445367e-01,9.53721e-01,9.99999e-01,9.99999e-01,9.99919e-01,9.53797e-01,9.99999e-01
6.173157594e-01,9.54647e-01,9.99999e-01,9.99999e-01,9.99955e-01,9.54689e-01,9.99999e-01
6.204023382e-01,9.55528e-01,9.99999e-01,9.99999e-01,9.99962e-01,9.55564e-01,9.99999e-01
6.235043498e-01,9.56264e-01,9.99999e-01,9.99999e-01,9.99835e-01,9.56422e-01,9.99999e-01
6.266218716e-01,9.56426e-01,9.99999e-01,9.99999e-01,9.99130e-01,9.57264e-01,9.99993e-01
6.297549810e-01,9.57773e-01,9.99999e-01,9.99999e-01,9.99680e-01,9.58090e-01,9.99987e-01
6.329037559e-01,9.58287e-01,9.99999e-01,9.99999e-01,9.99369e-01,9.58901e-01,9.99989e-01
6.360682746e-01,9.59175e-01,9.99999e-01,9.99999e-01,9.99462e-01,9.59696e-01,9.99993e-01
6.392486160e-01,9.59806e-01,9.99999e-01,9.99999e-01,9.99304e-01,9.60476e-01,9.99996e-01
6.424448591e-01,9.60342e-01,9.99999e-01,9.99999e-01,9.99068e-01,9.61241e-01,9.99995e-01
6.456570834e-01,9.57814e-01,9.99999e-01,9.99999e-01,9.95680e-01,9.61992e-01,9.99975e-01
6.488853688e-01,9.59622e-01,9.99999e-01,9.99999e-01,9.96839e-01,9.62729e-01,9.99932e-01
6.521297956e-01,9.60294e-01,9.99999e-01,9.99999e-01,9.96777e-01,9.63451e-01,9.99944e-01
6.553904446e-01,9.61028e-01,9.99999e-01,9.99999e-01,9.96791e-01,9.64160e-01,9.99958e-01
6.586673968e-01,9.62192e-01,9.99999e-01,9.99999e-01,9.97252e-01,9.64855e-01,9.99985e-01
6.619607338e-01,9.64056e-01,9.99999e-01,9.99999e-01,9.98468e-01,9.65538e-01,9.99996e-01
6.652705375e-01,9.65317e-01,9.99999e-01,9.99999e-01,9.99080e-01,9.66207e-01,9.99998e-01
6.685968902e-01,9.66450e-01,9.99999e-01,9.99999e-01,9.99572e-01,9.66863e-01,9.99999e-01
6.719398746e-01,9.67315e-01,9.99999e-01,9.99999e-01,9.99801e-01,9.67507e-01,9.99999e-01
6.752995740e-01,9.68034e-01,9.99999e-01,9.99999e-01,9.99892e-01,9.68138e-01,9.99999e-01
6.786760719e-01,9.68607e-01,9.99999e-01,9.99999e-01,9.99844e-01,9.68758e-01,9.99999e-01
6.820694522e-01,9.69107e-01,9.99999e-01,9.99999e-01,9.99734e-01,9.69365e-01,9.99998e-01
6.854797995e-01,9.69627e-01,9.99999e-01,9.99999e-01,9.99657e-01,9.69961e-01,9.99996e-01
6.889071985e-01,9.69734e-01,9.99999e-01,9.99999e-01,9.99170e-01,9.70545e-01,9.99992e-01
6.923517345e-01,9.57983e-01,9.99999e-01,9.99999e-01,9.86537e-01,9.71119e-01,9.99934e-01
6.958134932e-01,9.64736e-01,9.99999e-01,9.99999e-01,9.92994e-01,9.71681e-01,9.99856e-01
6.992925606e-01,9.65622e-01,9.99999e-01,9.99999e-01,9.93328e-01,9.72233e-01,9.99870e-01
7.027890234e-01,9.64677e-01,9.99999e-01,9.99999e-01,9.91773e-01,9.72774e-01,9.99900e-01
7.063029686e-01,9.66521e-01,9.99999e-01,9.99999e-01,9.93079e-01,9.73304e-01,9.99950e-01
7.098344834e-01,9.67330e-01,9.99999e-01,9.99999e-01,9.93359e-01,9.73824e-01,9.99970e-01
7.133836558e-01,9.65655e-01,9.99999e-01,9.99999e-01,9.91148e-01,9.74335e-01,9.99941e-01
7.169505741e-01,9.07202e-01,9.99999e-01,9.99999e-01,9.31043e-01,9.74835e-01,9.99545e-01
7.205353270e-01,9.41114e-01,9.99999e-01,9.99999e-01,9.65695e-01,9.75326e-01,9.99198e-01
7.241380036e-01,9.32764e-01,9.99999e-01,9.99999e-01,9.56550e-01,9.75807e-01,9.99307e-01
7.277586936e-01,9.37395e-01,9.99999e-01,9.99999e-01,9.60713e-01,9.76280e-01,9.99433e-01
7.313974871e-01,9.35751e-01,9.99999e-01,9.99999e-01,9.58285e-01,9.76743e-01,9.99734e-01
7.350544745e-01,9.54629e-01,9.99999e-01,9.99999e-01,9.76995e-01,9.77197e-01,9.99907e-01
7.387297469e-01,9.61003e-01,9.99999e-01,9.99999e-01,9.83021e-01,9.77642e-01,9.99957e-01
7.424233956e-01,9.69915e-01,9.99999e-01,9.99999e-01,9.91661e-01,9.78079e-01,9.99991e-01
7.461355126e-01,9.73554e-01,9.99999e-01,9.99999e-01,9.94938e-01,9.78507e-01,9.99998e-01
7.498661902e-01,9.76618e-01,9.99999e-01,9.99999e-01,9.97641e-01,9.78927e-01,9.99998e-01
7.536155211e-01,9.78205e-01,9.99999e-01,9.99999e-01,9.98842e-01,9.79339e-01,9.99999e-01
7.573835987e-01,9.79159e-01,9.99999e-01,9.99999e-01,9.99403e-01,9.79743e-01,9.99999e-01
7.611705167e-01,9.79776e-01,9.99999e-01,9.99999e-01,9.99629e-01,9.80139e-01,9.99999e-01
7.649763693e-01,9.80300e-01,9.99999e-01,9.99999e-01,9.99767e-01,9.80527e-01,9.99999e-01
7.688012511e-01,9.80750e-01,9.99999e-01,9.99999e-01,9.99837e-01,9.80908e-01,9.99999e-01
7.726452574e-01,9.81151e-01,9.99999e-01,9.99999e-01,9.99866e-01,9.81282e-01,9.99999e-01
7.765084837e-01,9.81462e-01,9.99999e-01,9.99999e-01,9.99810e-01,9.81648e-01,9.99999e-01
7.803910261e-01,9.81204e-01,9.99999e-01,9.99999e-01,9.99182e-01,9.82007e-01,9.99998e-01
7.842929812e-01,9.79553e-01,9.99999e-01,9.99999e-01,9.97147e-01,9.82360e-01,9.99994e-01
7.882144461e-01,9.76903e-01,9.99999e-01,9.99999e-01,9.94135e-01,9.82705e-01,9.99959e-01
7.921555184e-01,9.79813e-01,9.99999e-01,9.99999e-01,9.96782e-01,9.83044e-01,9.99929e-01
7.961162960e-01,9.77719e-01,9.99999e-01,9.99999e-01,9.94313e-01,9.83376e-01,9.99932e-01
8.000968774e-01,9.77176e-01,9.99999e-01,9.99999e-01,9.93435e-01,9.83701e-01,9.99928e-01
8.040973618e-01,9.77505e-01,9.99999e-01,9.99999e-01,9.93433e-01,9.84021e-01,9.99943e-01
8.081178486e-01,9.69760e-01,9.99999e-01,9.99999e-01,9.85245e-01,9.84334e-01,9.99946e-01
8.121584379e-01,9.25307e-01,9.99999e-01,9.99999e-01,9.39934e-01,9.84641e-01,9.99792e-01
8.162192301e-01,9.14465e-01,9.99999e-01,9.99999e-01,9.29169e-01,9.84942e-01,9.99220e-01
8.203003262e-01,9.49017e-01,9.99999e-01,9.99999e-01,9.64116e-01,9.85237e-01,9.99086e-01
8.244018279e-01,9.35932e-01,9.99999e-01,9.99999e-01,9.50366e-01,9.85527e-01,9.99273e-01
8.285238370e-01,9.42955e-01,9.99999e-01,9.99999e-01,9.57073e-01,9.85811e-01,9.99429e-01
8.326664562e-01,9.43110e-01,9.99999e-01,9.99999e-01,9.56640e-01,9.86089e-01,9.99763e-01
8.368297885e-01,9.55565e-01,9.99999e-01,9.99999e-01,9.68829e-01,9.86362e-01,9.99945e-01
8.410139374e-01,9.68214e-01,9.99999e-01,9.99999e-01,9.81365e-01,9.86629e-01,9.99967e-01
8.452190071e-01,9.77817e-01,9.99999e-01,9.99999e-01,9.90822e-01,9.86892e-01,9.99980e-01
8.494451021e-01,9.81868e-01,9.99999e-01,9.99999e-01,9.94665e-01,9.87149e-01,9.99984e-01
8.536923276e-01,9.84276e-01,9.99999e-01,9.99999e-01,9.96843e-01,9.87401e-01,9.99990e-01
8.579607893e-01,9.85725e-01,9.99999e-01,9.99999e-01,9.98054e-01,9.87648e-01,9.99997e-01
8.622505932e-01,9.86670e-01,9.99999e-01,9.99999e-01,9.98763e-01,9.87891e-01,9.99999e-01
8.665618462e-01,9.87373e-01,9.99999e-01,9.99999e-01,9.99235e-01,9.88129e-01,9.99999e-01
8.708946554e-01,9.87496e-01,9.99999e-01,9.99999e-01,9.99124e-01,9.88362e-01,9.99999e-01
8.752491287e-01,9.87431e-01,9.99999e-01,9.99999e-01,9.98828e-01,9.88590e-01,9.99998e-01
8.796253743e-01,9.87207e-01,9.99999e-01,9.99999e-01,9.98377e-01,9.88814e-01,9.99995e-01
8.840235012e-01,9.87190e-01,9.99999e-01,9.99999e-01,9.98146e-01,9.89034e-01,9.99988e-01
8.884436187e-01,9.82536e-01,9.99999e-01,9.99999e-01,9.93245e-01,9.89249e-01,9.99967e-01
8.928858368e-01,9.21174e-01,9.99999e-01,9.99999e-01,9.31158e-01,9.89461e-01,9.99814e-01
8.973502660e-01,8.71668e-01,9.99999e-01,9.99999e-01,8.81604e-01,9.89668e-01,9.99051e-01
9.018370173e-01,9.26871e-01,9.99999e-01,9.99999e-01,9.37752e-01,9.89871e-01,9.98509e-01
9.063462024e-01,9.34297e-01,9.99999e-01,9.99999e-01,9.44904e-01,9.90070e-01,9.98690e-01
9.108779334e-01,9.05312e-01,9.99999e-01,9.99999e-01,9.15456e-01,9.90265e-01,9.98639e-01
9.154323231e-01,8.94854e-01,9.99999e-01,9.99999e-01,9.04493e-01,9.90456e-01,9.98874e-01
9.200094847e-01,9.15227e-01,9.99999e-01,9.99999e-01,9.24452e-01,9.90644e-01,9.99369e-01
9.246095321e-01,8.76251e-01,9.99999e-01,9.99999e-01,8.85003e-01,9.90828e-01,9.99274e-01
9.292325798e-01,4.41752e-01,9.99999e-01,9.99999e-01,4.47023e-01,9.91008e-01,9.97173e-01
9.338787427e-01,3.48094e-01,9.99999e-01,9.99999e-01,3.55322e-01,9.91185e-01,9.88368e-01
9.385481364e-01,6.43123e-01,9.99999e-01,9.99999e-01,6.57819e-01,9.91358e-01,9.86180e-01
9.432408771e-01,5.50813e-01,9.99999e-01,9.99999e-01,5.62228e-01,9.91528e-01,9.88066e-01
9.479570815e-01,4.46195e-01,9.99999e-01,9.99999e-01,4.54349e-01,9.91695e-01,9.90276e-01
9.526968669e-01,5.41737e-01,9.99999e-01,9.99999e-01,5.49448e-01,9.91858e-01,9.94058e-01
9.574603512e-01,5.65348e-01,9.99999e-01,9.99999e-01,5.71624e-01,9.92018e-01,9.96977e-01
9.622476530e-01,6.26730e-01,9.99999e-01,9.99999e-01,6.32996e-01,9.92175e-01,9.97908e-01
9.670588912e-01,7.60799e-01,9.99999e-01,9.99999e-01,7.67777e-01,9.92329e-01,9.98569e-01
9.718941857e-01,8.39622e-01,9.99999e-01,9.99999e-01,8.46874e-01,9.92480e-01,9.98946e-01
9.767536566e-01,8.63964e-01,9.99999e-01,9.99999e-01,8.71081e-01,9.92628e-01,9.99194e-01
9.816374249e-01,8.95936e-01,9.99999e-01,9.99999e-01,9.02709e-01,9.92773e-01,9.99720e-01
9.865456120e-01,9.31327e-01,9.99999e-01,9.99999e-01,9.38025e-01,9.92916e-01,9.99941e-01
9.914783401e-01,9.54523e-01,9.99999e-01,9.99999e-01,9.61213e-01,9.93055e-01,9.99983e-01
9.964357318e-01,9.72019e-01,9.99999e-01,9.99999e-01,9.78691e-01,9.93192e-01,9.99990e-01
1.001417910e+00,9.80573e-01,9.99999e-01,9.99999e-01,9.87175e-01,9.93326e-01,9.99985e-01
1.006425000e+00,9.86154e-01,9.99999e-01,9.99999e-01,9.92668e-01,9.93457e-01,9.99979e-01
1.011457125e+00,9.89042e-01,9.99999e-01,9.99999e-01,9.95445e-01,9.93586e-01,9.99980e-01
1.016514411e+00,9.90624e-01,9.99999e-01,9.99999e-01,9.96905e-01,9.93712e-01,9.99986e-01
1.021596983e+00,9.91372e-01,9.99999e-01,9.99999e-01,9.97533e-01,9.93836e-01,9.99986e-01
1.026704968e+00,9.92036e-01,9.99999e-01,9.99999e-01,9.98075e-01,9.93957e-01,9.99990e-01
1.031838492e+00,9.92684e-01,9.99999e-01,9.99999e-01,9.98601e-01,9.94076e-01,9.99997e-01
1.036997685e+00,9.93367e-01,9.99999e-01,9.99999e-01,9.99168e-01,9.94193e-01,9.99999e-01
1.042182673e+00,9.93322e-01,9.99999e-01,9.99999e-01,9.99008e-01,9.94307e-01,9.99999e-01
1.047393587e+00,9.93113e-01,9.99999e-01,9.99999e-01,9.98686e-01,9.94419e-01,9.99999e-01
1.052630555e+00,9.92736e-01,9.99999e-01,9.99999e-01,9.98197e-01,9.94529e-01,9.99999e-01
1.057893707e+00,9.91644e-01,9.99999e-01,9.99999e-01,9.96991e-01,9.94637e-01,9.99998e-01
1.063183176e+00,9.89820e-01,9.99999e-01,9.99999e-01,9.95053e-01,9.94743e-01,9.99996e-01
1.068499092e+00,9.86613e-01,9.99999e-01,9.99999e-01,9.91728e-01,9.94846e-01,9.99993e-01
1.073841587e+00,9.85311e-01,9.99999e-01,9.99999e-01,9.90325e-01,9.94948e-01,9.99987e-01
1.079210795e+00,9.82697e-01,9.99999e-01,9.99999e-01,9.87620e-01,9.95047e-01,9.99966e-01
1.084606849e+00,9.76474e-01,9.99999e-01,9.99999e-01,9.81315e-01,9.95145e-01,9.99919e-01
1.090029883e+00,9.68468e-01,9.99999e-01,9.99999e-01,9.73259e-01,9.95241e-01,9.99834e-01
1.095480033e+00,9.24217e-01,9.99999e-01,9.99999e-01,9.28826e-01,9.95334e-01,9.99700e-01
1.100957433e+00,8.25007e-01,9.99999e-01,9.99999e-01,8.29253e-01,9.95426e-01,9.99449e-01
1.106462220e+00,6.20819e-01,9.99999e-01,9.99999e-01,6.24196e-01,9.95516e-01,9.99066e-01
1.111994531e+00,3.72074e-01,9.99999e-01,9.99999e-01,3.74644e-01,9.95605e-01,9.97524e-01
1.117554504e+00,2.04802e-01,9.99999e-01,9.99999e-01,2.07536e-01,9.95691e-01,9.91094e-01
1.123142276e+00,3.16164e-01,9.99999e-01,9.99999e-01,3.24312e-01,9.95776e-01,9.79009e-01
1.128757988e+00,4.63520e-01,9.99999e-01,9.99999e-01,4.77011e-01,9.95859e-01,9.75758e-01
1.134401778e+00,2.35875e-01,9.99999e-01,9.99999e-01,2.41830e-01,9.95941e-01,9.79349e-01
1.140073787e+00,6.25273e-01,9.99999e-01,9.99999e-01,6.38324e-01,9.96021e-01,9.83465e-01
1.145774156e+00,3.91580e-01,9.99999e-01,9.99999e-01,3.99158e-01,9.96099e-01,9.84854e-01
1.151503026e+00,3.57377e-01,9.99999e-01,9.99999e-01,3.61811e-01,9.96176e-01,9.91534e-01
1.157260541e+00,4.16683e-01,9.99999e-01,9.99999e-01,4.19315e-01,9.96252e-01,9.97460e-01
1.163046844e+00,5.22481e-01,9.99999e-01,9.99999e-01,5.24786e-01,9.96326e-01,9.99279e-01
1.168862078e+00,6.33946e-01,9.99999e-01,9.99999e-01,6.36473e-01,9.96398e-01,9.99628e-01
1.174706389e+00,7.53500e-01,9.99999e-01,9.99999e-01,7.56541e-01,9.96469e-01,9.99507e-01
1.180579921e+00,8.40009e-01,9.99999e-01,9.99999e-01,8.43553e-01,9.96539e-01,9.99255e-01
1.186482820e+00,9.04427e-01,9.99999e-01,9.99999e-01,9.08198e-01,9.96607e-01,9.99236e-01
1.192415234e+00,9.41646e-01,9.99999e-01,9.99999e-01,9.45328e-01,9.96674e-01,9.99427e-01
1.198377311e+00,9.50095e-01,9.99999e-01,9.99999e-01,9.53717e-01,9.96739e-01,9.99459e-01
1.204369197e+00,9.52659e-01,9.99999e-01,9.99999e-01,9.56180e-01,9.96804e-01,9.99510e-01
1.210391043e+00,9.54755e-01,9.99999e-01,9.99999e-01,9.58040e-01,9.96867e-01,9.99702e-01
1.216442998e+00,9.61065e-01,9.99999e-01,9.99999e-01,9.64200e-01,9.96928e-01,9.99817e-01
1.222525213e+00,9.68974e-01,9.99999e-01,9.99999e-01,9.72009e-01,9.96989e-01,9.99886e-01
1.228637839e+00,9.77535e-01,9.99999e-01,9.99999e-01,9.80479e-01,9.97048e-01,9.99946e-01
