#,Wave/freq,Total,N2,O2,H2O,Rayleigh,CIA
4.000000000e-01,5.83191e-01,9.99999e-01,9.99999e-01,9.99938e-01,5.83226e-01,9.99999e-01
4.020000000e-01,5.89455e-01,9.99999e-01,9.99999e-01,9.99961e-01,5.89477e-01,9.99999e-01
4.040100000e-01,5.95654e-01,9.99999e-01,9.99999e-01,9.99983e-01,5.95664e-01,9.99999e-01
4.060300500e-01,6.01788e-01,9.99999e-01,9.99999e-01,9.99995e-01,6.01791e-01,9.99999e-01
4.080602003e-01,6.07857e-01,9.99999e-01,9.99999e-01,9.99998e-01,6.07858e-01,9.99999e-01
4.101005013e-01,6.13864e-01,9.99999e-01,9.99999e-01,9.99999e-01,6.13864e-01,9.99999e-01
4.121510038e-01,6.19808e-01,9.99999e-01,9.99999e-01,9.99997e-01,6.19810e-01,9.99999e-01
4.142117588e-01,6.25683e-01,9.99999e-01,9.99999e-01,9.99983e-01,6.25694e-01,9.99999e-01
4.162828176e-01,6.31468e-01,9.99999e-01,9.99999e-01,9.99924e-01,6.31516e-01,9.99999e-01
4.183642317e-01,6.37247e-01,9.99999e-01,9.99999e-01,9.99954e-01,6.37275e-01,9.99999e-01
4.204560528e-01,6.42954e-01,9.99999e-01,9.99999e-01,9.99971e-01,6.42972e-01,9.99999e-01
4.225583331e-01,6.48599e-01,9.99999e-01,9.99999e-01,9.99989e-01,6.48606e-01,9.99999e-01
4.246711247e-01,6.54171e-01,9.99999e-01,9.99999e-01,9.99991e-01,6.54176e-01,9.99999e-01
4.267944804e-01,6.59675e-01,9.99999e-01,9.99999e-01,9.99987e-01,6.59683e-01,9.99999e-01
4.289284528e-01,6.65119e-01,9.99999e-01,9.99999e-01,9.99990e-01,6.65125e-01,9.99999e-01
4.310730950e-01,6.70502e-01,9.99999e-01,9.99999e-01,9.99995e-01,6.70504e-01,9.99999e-01
4.332284605e-01,6.75819e-01,9.99999e-01,9.99999e-01,9.99998e-01,6.75819e-01,9.99999e-01
4.353946028e-01,6.81070e-01,9.99999e-01,9.99999e-01,9.99999e-01,6.81070e-01,9.99999e-01
4.375715758e-01,6.86252e-01,9.99999e-01,9.99999e-01,9.99992e-01,6.86257e-01,9.99999e-01
4.397594337e-01,6.91335e-01,9.99999e-01,9.99999e-01,9.99934e-01,6.91380e-01,9.99999e-01
4.419582309e-01,6.96208e-01,9.99999e-01,9.99999e-01,9.99669e-01,6.96438e-01,9.99999e-01
4.441680220e-01,7.01247e-01,9.99999e-01,9.99999e-01,9.99735e-01,7.01433e-01,9.99999e-01
4.463888621e-01,7.06171e-01,9.99999e-01,9.99999e-01,9.99726e-01,7.06363e-01,9.99999e-01
4.486208064e-01,7.11109e-01,9.99999e-01,9.99999e-01,9.99828e-01,7.11230e-01,9.99999e-01
4.508639105e-01,7.15976e-01,9.99999e-01,9.99999e-01,9.99919e-01,7.16034e-01,9.99999e-01
4.531182300e-01,7.20751e-01,9.99999e-01,9.99999e-01,9.99967e-01,7.20773e-01,9.99999e-01
4.553838212e-01,7.25435e-01,9.99999e-01,9.99999e-01,9.99978e-01,7.25450e-01,9.99999e-01
4.576607403e-01,7.30057e-01,9.99999e-01,9.99999e-01,9.99989e-01,7.30064e-01,9.99999e-01
4.599490440e-01,7.34610e-01,9.99999e-01,9.99999e-01,9.99992e-01,7.34615e-01,9.99999e-01
4.622487892e-01,7.39103e-01,9.99999e-01,9.99999e-01,9.99998e-01,7.39104e-01,9.99999e-01
4.645600332e-01,7.43527e-01,9.99999e-01,9.99999e-01,9.99994e-01,7.43531e-01,9.99999e-01
4.668828333e-01,7.47836e-01,9.99999e-01,9.99999e-01,9.99919e-01,7.47896e-01,9.99999e-01
4.692172475e-01,7.52071e-01,9.99999e-01,9.99999e-01,9.99828e-01,7.52199e-01,9.99999e-01
4.715633337e-01,7.56358e-01,9.99999e-01,9.99999e-01,9.99887e-01,7.56442e-01,9.99999e-01
4.739211504e-01,7.60543e-01,9.99999e-01,9.99999e-01,9.99892e-01,7.60624e-01,9.99999e-01
4.762907561e-01,7.64704e-01,9.99999e-01,9.99999e-01,9.99943e-01,7.64746e-01,9.99999e-01
4.786722099e-01,7.68791e-01,9.99999e-01,9.99999e-01,9.99976e-01,7.68809e-01,9.99999e-01
4.810655710e-01,7.72806e-01,9.99999e-01,9.99999e-01,9.99992e-01,7.72811e-01,9.99999e-01
4.834708988e-01,7.76706e-01,9.99999e-01,9.99999e-01,9.99935e-01,7.76756e-01,9.99999e-01
4.858882533e-01,7.80546e-01,9.99999e-01,9.99999e-01,9.99877e-01,7.80641e-01,9.99999e-01
4.883176946e-01,7.84390e-01,9.99999e-01,9.99999e-01,9.99898e-01,7.84469e-01,9.99999e-01
4.907592831e-01,7.88167e-01,9.99999e-01,9.99999e-01,9.99907e-01,7.88240e-01,9.99999e-01
4.932130795e-01,7.91902e-01,9.99999e-01,9.99999e-01,9.99934e-01,7.91953e-01,9.99999e-01
4.956791449e-01,7.95583e-01,9.99999e-01,9.99999e-01,9.99965e-01,7.95610e-01,9.99999e-01
4.981575406e-01,7.99075e-01,9.99999e-01,9.99999e-01,9.99828e-01,7.99212e-01,9.99999e-01
5.006483283e-01,8.02402e-01,9.99999e-01,9.99999e-01,9.99558e-01,8.02758e-01,9.99996e-01
5.031515699e-01,8.04413e-01,9.99999e-01,9.99999e-01,9.97745e-01,8.06249e-01,9.99975e-01
5.056673278e-01,8.08697e-01,9.99999e-01,9.99999e-01,9.98805e-01,8.09686e-01,9.99972e-01
5.081956644e-01,8.11829e-01,9.99999e-01,9.99999e-01,9.98491e-01,8.13069e-01,9.99981e-01
5.107366428e-01,8.15565e-01,9.99999e-01,9.99999e-01,9.98980e-01,8.16400e-01,9.99996e-01
5.132903260e-01,8.19199e-01,9.99999e-01,9.99999e-01,9.99416e-01,8.19677e-01,9.99999e-01
5.158567776e-01,8.22700e-01,9.99999e-01,9.99999e-01,9.99752e-01,8.22903e-01,9.99999e-01
5.184360615e-01,8.25996e-01,9.99999e-01,9.99999e-01,9.99900e-01,8.26077e-01,9.99999e-01
5.210282418e-01,8.29171e-01,9.99999e-01,9.99999e-01,9.99962e-01,8.29201e-01,9.99999e-01
5.236333830e-01,8.32151e-01,9.99999e-01,9.99999e-01,9.99852e-01,8.32274e-01,9.99998e-01
5.262515499e-01,8.35220e-01,9.99999e-01,9.99999e-01,9.99907e-01,8.35298e-01,9.99998e-01
5.288828077e-01,8.38201e-01,9.99999e-01,9.99999e-01,9.99915e-01,8.38272e-01,9.99998e-01
5.315272217e-01,8.41136e-01,9.99999e-01,9.99999e-01,9.99924e-01,8.41199e-01,9.99999e-01
5.341848578e-01,8.44036e-01,9.99999e-01,9.99999e-01,9.99951e-01,8.44077e-01,9.99999e-01
5.368557821e-01,8.46763e-01,9.99999e-01,9.99999e-01,9.99829e-01,8.46908e-01,9.99999e-01
5.395400610e-01,8.49168e-01,9.99999e-01,9.99999e-01,9.99388e-01,8.49692e-01,9.99994e-01
5.422377613e-01,8.51733e-01,9.99999e-01,9.99999e-01,9.99196e-01,8.52430e-01,9.99985e-01
5.449489501e-01,8.54477e-01,9.99999e-01,9.99999e-01,9.99259e-01,8.55123e-01,9.99984e-01
5.476736949e-01,8.57196e-01,9.99999e-01,9.99999e-01,9.99337e-01,8.57770e-01,9.99992e-01
5.504120634e-01,8.59959e-01,9.99999e-01,9.99999e-01,9.99519e-01,8.60374e-01,9.99997e-01
5.531641237e-01,8.62724e-01,9.99999e-01,9.99999e-01,9.99757e-01,8.62933e-01,9.99999e-01
5.559299443e-01,8.65349e-01,9.99999e-01,9.99999e-01,9.99882e-01,8.65450e-01,9.99999e-01
5.587095940e-01,8.67860e-01,9.99999e-01,9.99999e-01,9.99926e-01,8.67923e-01,9.99999e-01
5.615031420e-01,8.70285e-01,9.99999e-01,9.99999e-01,9.99918e-01,8.70355e-01,9.99999e-01
5.643106577e-01,8.72666e-01,9.99999e-01,9.99999e-01,9.99909e-01,8.72746e-01,9.99998e-01
5.671322110e-01,8.74131e-01,9.99999e-01,9.99999e-01,9.98906e-01,8.75095e-01,9.99990e-01
5.699678720e-01,8.76325e-01,9.99999e-01,9.99999e-01,9.98799e-01,8.77404e-01,9.99969e-01
5.728177114e-01,8.78566e-01,9.99999e-01,9.99999e-01,9.98765e-01,8.79674e-01,9.99974e-01
5.756818000e-01,8.80889e-01,9.99999e-01,9.99999e-01,9.98863e-01,8.81904e-01,9.99984e-01
5.785602090e-01,8.83215e-01,9.99999e-01,9.99999e-01,9.99007e-01,8.84096e-01,9.99994e-01
5.814530100e-01,8.85367e-01,9.99999e-01,9.99999e-01,9.99005e-01,8.86250e-01,9.99997e-01
5.843602750e-01,8.87318e-01,9.99999e-01,9.99999e-01,9.98826e-01,8.88367e-01,9.99992e-01
5.872820764e-01,8.81399e-01,9.99999e-01,9.99999e-01,9.89910e-01,8.90446e-01,9.99927e-01
5.902184868e-01,8.81294e-01,9.99999e-01,9.99999e-01,9.87648e-01,8.92489e-01,9.99804e-01
5.931695792e-01,8.86543e-01,9.99999e-01,9.99999e-01,9.91295e-01,8.94497e-01,9.99809e-01
5.961354271e-01,8.87791e-01,9.99999e-01,9.99999e-01,9.90433e-01,8.96469e-01,9.99884e-01
5.991161043e-01,8.92092e-01,9.99999e-01,9.99999e-01,9.93005e-01,8.98406e-01,9.99966e-01
6.021116848e-01,8.96723e-01,9.99999e-01,9.99999e-01,9.96019e-01,9.00309e-01,9.99995e-01
6.051222432e-01,9.00359e-01,9.99999e-01,9.99999e-01,9.97983e-01,9.02179e-01,9.99999e-01
6.081478544e-01,9.03230e-01,9.99999e-01,9.99999e-01,9.99130e-01,9.04015e-01,9.99999e-01
6.111885937e-01,9.05485e-01,9.99999e-01,9.99999e-01,9.99630e-01,9.05819e-01,9.99999e-01
6.142445367e-01,9.07441e-01,9.99999e-01,9.99999e-01,9.99835e-01,9.07590e-01,9.99999e-01
6.173157594e-01,9.09248e-01,9.99999e-01,9.99999e-01,9.99909e-01,9.09330e-01,9.99999e-01
6.204023382e-01,9.10970e-01,9.99999e-01,9.99999e-01,9.99923e-01,9.11039e-01,9.99999e-01
6.235043498e-01,9.12415e-01,9.99999e-01,9.99999e-01,9.99669e-01,9.12717e-01,9.99998e-01
6.266218716e-01,9.12727e-01,9.99999e-01,9.99999e-01,9.98220e-01,9.14365e-01,9.99987e-01
6.297549810e-01,9.15363e-01,9.99999e-01,9.99999e-01,9.99347e-01,9.15983e-01,9.99974e-01
6.329037559e-01,9.16367e-01,9.99999e-01,9.99999e-01,9.98705e-01,9.17572e-01,9.99979e-01
6.360682746e-01,9.18115e-01,9.99999e-01,9.99999e-01,9.98903e-01,9.19133e-01,9.99987e-01
6.392486160e-01,9.19349e-01,9.99999e-01,9.99999e-01,9.98575e-01,9.20665e-01,9.99994e-01
6.424448591e-01,9.20589e-01,9.99999e-01,9.99999e-01,9.98293e-01,9.22169e-01,9.99991e-01
6.456570834e-01,9.15592e-01,9.99999e-01,9.99999e-01,9.91327e-01,9.23647e-01,9.99950e-01
6.488853688e-01,9.17928e-01,9.99999e-01,9.99999e-01,9.92386e-01,9.25097e-01,9.99862e-01
6.521297956e-01,9.20297e-01,9.99999e-01,9.99999e-01,9.93396e-01,9.26520e-01,9.99884e-01
6.553904446e-01,9.21788e-01,9.99999e-01,9.99999e-01,9.93478e-01,9.27918e-01,9.99913e-01
6.586673968e-01,9.24021e-01,9.99999e-01,9.99999e-01,9.94357e-01,9.29290e-01,9.99971e-01
6.619607338e-01,9.27594e-01,9.99999e-01,9.99999e-01,9.96735e-01,9.30638e-01,9.99993e-01
6.652705375e-01,9.30189e-01,9.99999e-01,9.99999e-01,9.98102e-01,9.31960e-01,9.99996e-01
6.685968902e-01,9.32436e-01,9.99999e-01,9.99999e-01,9.99119e-01,9.33258e-01,9.99998e-01
6.719398746e-01,9.34150e-01,9.99999e-01,9.99999e-01,9.99590e-01,9.34532e-01,9.99999e-01
6.752995740e-01,9.35577e-01,9.99999e-01,9.99999e-01,9.99779e-01,9.35783e-01,9.99999e-01
6.786760719e-01,9.36714e-01,9.99999e-01,9.99999e-01,9.99684e-01,9.37010e-01,9.99999e-01
6.820694522e-01,9.37704e-01,9.99999e-01,9.99999e-01,9.99457e-01,9.38215e-01,9.99996e-01
6.854797995e-01,9.38736e-01,9.99999e-01,9.99999e-01,9.99301e-01,9.39398e-01,9.99993e-01
6.889071985e-01,9.38982e-01,9.99999e-01,9.99999e-01,9.98337e-01,9.40559e-01,9.99984e-01
6.923517345e-01,9.16021e-01,9.99999e-01,9.99999e-01,9.72861e-01,9.41698e-01,9.99866e-01
6.958134932e-01,9.28861e-01,9.99999e-01,9.99999e-01,9.85492e-01,9.42816e-01,9.99700e-01
6.992925606e-01,9.30915e-01,9.99999e-01,9.99999e-01,9.86488e-01,9.43913e-01,9.99736e-01
7.027890234e-01,9.28921e-01,9.99999e-01,9.99999e-01,9.83194e-01,9.44990e-01,9.99797e-01
7.063029686e-01,9.32578e-01,9.99999e-01,9.99999e-01,9.85861e-01,9.46047e-01,9.99898e-01
7.098344834e-01,9.34175e-01,9.99999e-01,9.99999e-01,9.86428e-01,9.47084e-01,9.99940e-01
7.133836558e-01,9.31149e-01,9.99999e-01,9.99999e-01,9.82235e-01,9.48101e-01,9.99881e-01
7.169505741e-01,8.21153e-01,9.99999e-01,9.99999e-01,8.65996e-01,9.49100e-01,9.99069e-01
7.205353270e-01,8.82547e-01,9.99999e-01,9.99999e-01,9.30445e-01,9.50080e-01,9.98358e-01
7.241380036e-01,8.67794e-01,9.99999e-01,9.99999e-01,9.13771e-01,9.51041e-01,9.98572e-01
7.277586936e-01,8.76487e-01,9.99999e-01,9.99999e-01,9.21788e-01,9.51984e-01,9.98813e-01
7.313974871e-01,8.72639e-01,9.99999e-01,9.99999e-01,9.16258e-01,9.52910e-01,9.99456e-01
7.350544745e-01,9.09188e-01,9.99999e-01,9.99999e-01,9.53388e-01,9.53818e-01,9.99810e-01
7.387297469e-01,9.21612e-01,9.99999e-01,9.99999e-01,9.65415e-01,9.54710e-01,9.99913e-01
7.424233956e-01,9.39203e-01,9.99999e-01,9.99999e-01,9.82873e-01,9.55584e-01,9.99982e-01
7.461355126e-01,9.46499e-01,9.99999e-01,9.99999e-01,9.89606e-01,9.56442e-01,9.99996e-01
7.498661902e-01,9.52625e-01,9.99999e-01,9.99999e-01,9.95134e-01,9.57284e-01,9.99998e-01
7.536155211e-01,9.55828e-01,9.99999e-01,9.99999e-01,9.97618e-01,9.58110e-01,9.99998e-01
7.573835987e-01,9.57743e-01,9.99999e-01,9.99999e-01,9.98772e-01,9.58920e-01,9.99999e-01
7.611705167e-01,9.58983e-01,9.99999e-01,9.99999e-01,9.99237e-01,9.59715e-01,9.99999e-01
7.649763693e-01,9.60036e-01,9.99999e-01,9.99999e-01,9.99522e-01,9.60494e-01,9.99999e-01
7.688012511e-01,9.60940e-01,9.99999e-01,9.99999e-01,9.99667e-01,9.61259e-01,9.99999e-01
7.726452574e-01,9.61747e-01,9.99999e-01,9.99999e-01,9.99726e-01,9.62010e-01,9.99999e-01
7.765084837e-01,9.62376e-01,9.99999e-01,9.99999e-01,9.99615e-01,9.62746e-01,9.99999e-01
7.803910261e-01,9.61870e-01,9.99999e-01,9.99999e-01,9.98342e-01,9.63468e-01,9.99997e-01
7.842929812e-01,9.58600e-01,9.99999e-01,9.99999e-01,9.94226e-01,9.64177e-01,9.99988e-01
7.882144461e-01,9.53245e-01,9.99999e-01,9.99999e-01,9.88021e-01,9.64872e-01,9.99925e-01
7.921555184e-01,9.59025e-01,9.99999e-01,9.99999e-01,9.93379e-01,9.65554e-01,9.99857e-01
7.961162960e-01,9.54953e-01,9.99999e-01,9.99999e-01,9.88470e-01,9.66222e-01,9.99863e-01
8.000968774e-01,9.53786e-01,9.99999e-01,9.99999e-01,9.86601e-01,9.66878e-01,9.99854e-01
8.040973618e-01,9.54468e-01,9.99999e-01,9.99999e-01,9.86621e-01,9.67522e-01,9.99884e-01
8.081178486e-01,9.39349e-01,9.99999e-01,9.99999e-01,9.70353e-01,9.68153e-01,9.99891e-01
8.121584379e-01,8.54427e-01,9.99999e-01,9.99999e-01,8.82343e-01,9.68772e-01,9.99574e-01
8.162192301e-01,8.32974e-01,9.99999e-01,9.99999e-01,8.60659e-01,9.69379e-01,9.98403e-01
8.203003262e-01,9.00622e-01,9.99999e-01,9.99999e-01,9.30237e-01,9.69975e-01,9.98130e-01
8.244018279e-01,8.74210e-01,9.99999e-01,9.99999e-01,9.02069e-01,9.70559e-01,9.98511e-01
8.285238370e-01,8.87201e-01,9.99999e-01,9.99999e-01,9.14642e-01,9.71132e-01,9.98831e-01
8.326664562e-01,8.87194e-01,9.99999e-01,9.99999e-01,9.13479e-01,9.71694e-01,9.99516e-01
8.368297885e-01,9.10950e-01,9.99999e-01,9.99999e-01,9.37057e-01,9.72246e-01,9.99889e-01
8.410139374e-01,9.35820e-01,9.99999e-01,9.99999e-01,9.62061e-01,9.72786e-01,9.99934e-01
8.452190071e-01,9.54964e-01,9.99999e-01,9.99999e-01,9.81181e-01,9.73316e-01,9.99960e-01
8.494451021e-01,9.63174e-01,9.99999e-01,9.99999e-01,9.89081e-01,9.73837e-01,9.99968e-01
8.536923276e-01,9.67999e-01,9.99999e-01,9.99999e-01,9.93504e-01,9.74347e-01,9.99979e-01
8.579607893e-01,9.70952e-01,9.99999e-01,9.99999e-01,9.96009e-01,9.74847e-01,9.99994e-01
8.622505932e-01,9.72857e-01,9.99999e-01,9.99999e-01,9.97456e-01,9.75338e-01,9.99998e-01
8.665618462e-01,9.74289e-01,9.99999e-01,9.99999e-01,9.98432e-01,9.75819e-01,9.99999e-01
8.708946554e-01,9.74543e-01,9.99999e-01,9.99999e-01,9.98210e-01,9.76291e-01,9.99998e-01
8.752491287e-01,9.74411e-01,9.99999e-01,9.99999e-01,9.97603e-01,9.76753e-01,9.99996e-01
8.796253743e-01,9.73970e-01,9.99999e-01,9.99999e-01,9.96694e-01,9.77207e-01,9.99992e-01
8.840235012e-01,9.73936e-01,9.99999e-01,9.99999e-01,9.96221e-01,9.77652e-01,9.99976e-01
8.884436187e-01,9.64914e-01,9.99999e-01,9.99999e-01,9.86594e-01,9.78089e-01,9.99933e-01
8.928858368e-01,8.47615e-01,9.99999e-01,9.99999e-01,8.66551e-01,9.78517e-01,9.99620e-01
8.973502660e-01,7.57001e-01,9.99999e-01,9.99999e-01,7.74792e-01,9.78937e-01,9.98057e-01
9.018370173e-01,8.56255e-01,9.99999e-01,9.99999e-01,8.76986e-01,9.79349e-01,9.96948e-01
9.063462024e-01,8.71965e-01,9.99999e-01,9.99999e-01,8.92376e-01,9.79752e-01,9.97318e-01
9.108779334e-01,8.17652e-01,9.99999e-01,9.99999e-01,8.36542e-01,9.80148e-01,9.97214e-01
9.154323231e-01,7.97918e-01,9.99999e-01,9.99999e-01,8.15634e-01,9.80537e-01,9.97696e-01
9.200094847e-01,8.35134e-01,9.99999e-01,9.99999e-01,8.52479e-01,9.80917e-01,9.98710e-01
9.246095321e-01,7.72607e-01,9.99999e-01,9.99999e-01,7.88508e-01,9.81291e-01,9.98513e-01
9.292325798e-01,2.13564e-01,9.99999e-01,9.99999e-01,2.18820e-01,9.81657e-01,9.94218e-01
9.338787427e-01,1.31586e-01,9.99999e-01,9.99999e-01,1.37246e-01,9.82016e-01,9.76314e-01
9.385481364e-01,4.25503e-01,9.99999e-01,9.99999e-01,4.45665e-01,9.82368e-01,9.71893e-01
9.432408771e-01,3.28103e-01,9.99999e-01,9.99999e-01,3.42188e-01,9.82713e-01,9.75704e-01
9.479570815e-01,2.18356e-01,9.99999e-01,9.99999e-01,2.26612e-01,9.83052e-01,9.80181e-01
9.526968669e-01,3.06670e-01,9.99999e-01,9.99999e-01,3.15682e-01,9.83384e-01,9.87864e-01
9.574603512e-01,3.26110e-01,9.99999e-01,9.99999e-01,3.33573e-01,9.83709e-01,9.93817e-01
9.622476530e-01,3.94145e-01,9.99999e-01,9.99999e-01,4.02263e-01,9.84028e-01,9.95720e-01
9.670588912e-01,5.78458e-01,9.99999e-01,9.99999e-01,5.89386e-01,9.84341e-01,9.97071e-01
9.718941857e-01,7.00989e-01,9.99999e-01,9.99999e-01,7.13456e-01,9.84648e-01,9.97843e-01
9.767536566e-01,7.42739e-01,9.99999e-01,9.99999e-01,7.55333e-01,9.84949e-01,9.98351e-01
9.816374249e-01,7.98633e-01,9.99999e-01,9.99999e-01,8.11056e-01,9.85244e-01,9.99428e-01
9.865456120e-01,8.64217e-01,9.99999e-01,9.99999e-01,8.77006e-01,9.85533e-01,9.99880e-01
9.914783401e-01,9.08885e-01,9.99999e-01,9.99999e-01,9.21991e-01,9.85817e-01,9.99966e-01
9.964357318e-01,9.43393e-01,9.99999e-01,9.99999e-01,9.56713e-01,9.86095e-01,9.99980e-01
1.001417910e+00,9.60507e-01,9.99999e-01,9.99999e-01,9.73809e-01,9.86368e-01,9.99970e-01
1.006425000e+00,9.71813e-01,9.99999e-01,9.99999e-01,9.85017e-01,9.86636e-01,9.99957e-01
1.011457125e+00,9.77630e-01,9.99999e-01,9.99999e-01,9.90647e-01,9.86898e-01,9.99960e-01
1.016514411e+00,9.80863e-01,9.99999e-01,9.99999e-01,9.93652e-01,9.87155e-01,9.99972e-01
1.021596983e+00,9.82387e-01,9.99999e-01,9.99999e-01,9.94943e-01,9.87407e-01,9.99971e-01
1.026704968e+00,9.83742e-01,9.99999e-01,9.99999e-01,9.96056e-01,9.87654e-01,9.99981e-01
1.031838492e+00,9.85053e-01,9.99999e-01,9.99999e-01,9.97126e-01,9.87897e-01,9.99994e-01
1.036997685e+00,9.86450e-01,9.99999e-01,9.99999e-01,9.98296e-01,9.88134e-01,9.99998e-01
1.042182673e+00,9.86367e-01,9.99999e-01,9.99999e-01,9.97976e-01,9.88367e-01,9.99999e-01
1.047393587e+00,9.85939e-01,9.99999e-01,9.99999e-01,9.97312e-01,9.88596e-01,9.99999e-01
1.052630555e+00,9.85179e-01,9.99999e-01,9.99999e-01,9.96318e-01,9.88820e-01,9.99998e-01
1.057893707e+00,9.82977e-01,9.99999e-01,9.99999e-01,9.93871e-01,9.89039e-01,9.99997e-01
1.063183176e+00,9.79281e-01,9.99999e-01,9.99999e-01,9.89922e-01,9.89254e-01,9.99994e-01
1.068499092e+00,9.72792e-01,9.99999e-01,9.99999e-01,9.83159e-01,9.89466e-01,9.99988e-01
1.073841587e+00,9.70227e-01,9.99999e-01,9.99999e-01,9.80375e-01,9.89673e-01,9.99974e-01
1.079210795e+00,9.64879e-01,9.99999e-01,9.99999e-01,9.74813e-01,9.89876e-01,9.99931e-01
1.084606849e+00,9.52511e-01,9.99999e-01,9.99999e-01,9.62216e-01,9.90074e-01,9.99836e-01
1.090029883e+00,9.37064e-01,9.99999e-01,9.99999e-01,9.46591e-01,9.90270e-01,9.99661e-01
1.095480033e+00,8.52170e-01,9.99999e-01,9.99999e-01,8.60903e-01,9.90461e-01,9.99387e-01
1.100957433e+00,6.78775e-01,9.99999e-01,9.99999e-01,6.85955e-01,9.90648e-01,9.98873e-01
1.106462220e+00,3.91692e-01,9.99999e-01,9.99999e-01,3.96073e-01,9.90832e-01,9.98089e-01
1.111994531e+00,1.45658e-01,9.99999e-01,9.99999e-01,1.47727e-01,9.91012e-01,9.94936e-01
1.117554504e+00,4.82096e-02,9.99999e-01,9.99999e-01,4.95377e-02,9.91189e-01,9.81839e-01
1.123142276e+00,1.18416e-01,9.99999e-01,9.99999e-01,1.24754e-01,9.91362e-01,9.57469e-01
1.128757988e+00,2.25785e-01,9.99999e-01,9.99999e-01,2.39454e-01,9.91532e-01,9.50965e-01
1.134401778e+00,9.91104e-02,9.99999e-01,9.99999e-01,1.04411e-01,9.91699e-01,9.57181e-01
1.140073787e+00,3.94402e-01,9.99999e-01,9.99999e-01,4.11829e-01,9.91862e-01,9.65540e-01
1.145774156e+00,1.67040e-01,9.99999e-01,9.99999e-01,1.73731e-01,9.92022e-01,9.69217e-01
1.151503026e+00,1.41694e-01,9.99999e-01,9.99999e-01,1.45320e-01,9.92179e-01,9.82732e-01
1.157260541e+00,1.77335e-01,9.99999e-01,9.99999e-01,1.79638e-01,9.92333e-01,9.94805e-01
1.163046844e+00,2.74492e-01,9.99999e-01,9.99999e-01,2.76979e-01,9.92484e-01,9.98524e-01
1.168862078e+00,3.96755e-01,9.99999e-01,9.99999e-01,4.00004e-01,9.92632e-01,9.99239e-01
1.174706389e+00,5.62743e-01,9.99999e-01,9.99999e-01,5.67409e-01,9.92777e-01,9.98992e-01
1.180579921e+00,7.00627e-01,9.99999e-01,9.99999e-01,7.06699e-01,9.92919e-01,9.98476e-01
1.186482820e+00,8.14090e-01,9.99999e-01,9.99999e-01,8.21064e-01,9.93058e-01,9.98436e-01
1.192415234e+00,8.84072e-01,9.99999e-01,9.99999e-01,8.91171e-01,9.93195e-01,9.98828e-01
1.198377311e+00,9.00623e-01,9.99999e-01,9.99999e-01,9.07674e-01,9.93329e-01,9.98893e-01
1.204369197e+00,9.05673e-01,9.99999e-01,9.99999e-01,9.12547e-01,9.93460e-01,9.98998e-01
1.210391043e+00,9.09622e-01,9.99999e-01,9.99999e-01,9.16048e-01,9.93589e-01,9.99390e-01
1.216442998e+00,9.21782e-01,9.99999e-01,9.99999e-01,9.27957e-01,9.93715e-01,9.99626e-01
1.222525213e+00,9.37399e-01,9.99999e-01,9.99999e-01,9.43428e-01,9.93839e-01,9.99767e-01
1.228637839e+00,9.54488e-01,9.99999e-01,9.99999e-01,9.60390e-01,9.93960e-01,9.99891e-01
