#,Wave/freq,Total,N2,O2,H2O,Rayleigh,CIA
4.000000000e-01,7.80078e-01,9.99999e-01,9.99999e-01,9.99971e-01,7.80100e-01,9.99999e-01
4.020000000e-01,7.83926e-01,9.99999e-01,9.99999e-01,9.99982e-01,7.83940e-01,9.99999e-01
4.040100000e-01,7.87712e-01,9.99999e-01,9.99999e-01,9.99992e-01,7.87718e-01,9.99999e-01
4.060300500e-01,7.91438e-01,9.99999e-01,9.99999e-01,9.99997e-01,7.91440e-01,9.99999e-01
4.080602003e-01,7.95104e-01,9.99999e-01,9.99999e-01,9.99998e-01,7.95105e-01,9.99999e-01
4.101005013e-01,7.98714e-01,9.99999e-01,9.99999e-01,9.99999e-01,7.98714e-01,9.99999e-01
4.121510038e-01,8.02267e-01,9.99999e-01,9.99999e-01,9.99998e-01,8.02267e-01,9.99999e-01
4.142117588e-01,8.05760e-01,9.99999e-01,9.99999e-01,9.99991e-01,8.05766e-01,9.99999e-01
4.162828176e-01,8.09183e-01,9.99999e-01,9.99999e-01,9.99964e-01,8.09211e-01,9.99999e-01
4.183642317e-01,8.12585e-01,9.99999e-01,9.99999e-01,9.99978e-01,8.12602e-01,9.99999e-01
4.204560528e-01,8.15929e-01,9.99999e-01,9.99999e-01,9.99986e-01,8.15939e-01,9.99999e-01
4.225583331e-01,8.19220e-01,9.99999e-01,9.99999e-01,9.99994e-01,8.19224e-01,9.99999e-01
4.246711247e-01,8.22454e-01,9.99999e-01,9.99999e-01,9.99995e-01,8.22457e-01,9.99999e-01
4.267944804e-01,8.25634e-01,9.99999e-01,9.99999e-01,9.99993e-01,8.25639e-01,9.99999e-01
4.289284528e-01,8.28766e-01,9.99999e-01,9.99999e-01,9.99995e-01,8.28769e-01,9.99999e-01
4.310730950e-01,8.31848e-01,9.99999e-01,9.99999e-01,9.99997e-01,8.31849e-01,9.99999e-01
4.332284605e-01,8.34880e-01,9.99999e-01,9.99999e-01,9.99999e-01,8.34880e-01,9.99999e-01
4.353946028e-01,8.37861e-01,9.99999e-01,9.99999e-01,9.99999e-01,8.37861e-01,9.99999e-01
4.375715758e-01,8.40791e-01,9.99999e-01,9.99999e-01,9.99996e-01,8.40794e-01,9.99999e-01
4.397594337e-01,8.43653e-01,9.99999e-01,9.99999e-01,9.99968e-01,8.43679e-01,9.99999e-01
4.419582309e-01,8.46385e-01,9.99999e-01,9.99999e-01,9.99843e-01,8.46517e-01,9.99999e-01
4.441680220e-01,8.49205e-01,9.99999e-01,9.99999e-01,9.99879e-01,8.49307e-01,9.99999e-01
4.463888621e-01,8.51945e-01,9.99999e-01,9.99999e-01,9.99873e-01,8.52052e-01,9.99999e-01
4.486208064e-01,8.54684e-01,9.99999e-01,9.99999e-01,9.99921e-01,8.54751e-01,9.99999e-01
4.508639105e-01,8.57373e-01,9.99999e-01,9.99999e-01,9.99963e-01,8.57404e-01,9.99999e-01
4.531182300e-01,8.60002e-01,9.99999e-01,9.99999e-01,9.99985e-01,8.60014e-01,9.99999e-01
4.553838212e-01,8.62571e-01,9.99999e-01,9.99999e-01,9.99989e-01,8.62580e-01,9.99999e-01
4.576607403e-01,8.65098e-01,9.99999e-01,9.99999e-01,9.99995e-01,8.65102e-01,9.99999e-01
4.599490440e-01,8.67579e-01,9.99999e-01,9.99999e-01,9.99996e-01,8.67582e-01,9.99999e-01
4.622487892e-01,8.70019e-01,9.99999e-01,9.99999e-01,9.99998e-01,8.70019e-01,9.99999e-01
4.645600332e-01,8.72413e-01,9.99999e-01,9.99999e-01,9.99997e-01,8.72415e-01,9.99999e-01
4.668828333e-01,8.74738e-01,9.99999e-01,9.99999e-01,9.99962e-01,8.74771e-01,9.99999e-01
4.692172475e-01,8.77016e-01,9.99999e-01,9.99999e-01,9.99920e-01,8.77085e-01,9.99999e-01
4.715633337e-01,8.79315e-01,9.99999e-01,9.99999e-01,9.99947e-01,8.79360e-01,9.99999e-01
4.739211504e-01,8.81553e-01,9.99999e-01,9.99999e-01,9.99950e-01,8.81596e-01,9.99999e-01
4.762907561e-01,8.83771e-01,9.99999e-01,9.99999e-01,9.99974e-01,8.83794e-01,9.99999e-01
4.786722099e-01,8.85943e-01,9.99999e-01,9.99999e-01,9.99989e-01,8.85953e-01,9.99999e-01
4.810655710e-01,8.88071e-01,9.99999e-01,9.99999e-01,9.99996e-01,8.88074e-01,9.99999e-01
4.834708988e-01,8.90132e-01,9.99999e-01,9.99999e-01,9.99968e-01,8.90159e-01,9.99999e-01
4.858882533e-01,8.92157e-01,9.99999e-01,9.99999e-01,9.99943e-01,8.92207e-01,9.99999e-01
4.883176946e-01,8.94178e-01,9.99999e-01,9.99999e-01,9.99952e-01,8.94219e-01,9.99999e-01
4.907592831e-01,8.96159e-01,9.99999e-01,9.99999e-01,9.99957e-01,8.96196e-01,9.99999e-01
4.932130795e-01,8.98112e-01,9.99999e-01,9.99999e-01,9.99969e-01,8.98138e-01,9.99999e-01
4.956791449e-01,9.00032e-01,9.99999e-01,9.99999e-01,9.99983e-01,9.00046e-01,9.99999e-01
4.981575406e-01,9.01849e-01,9.99999e-01,9.99999e-01,9.99920e-01,9.01920e-01,9.99999e-01
5.006483283e-01,9.03574e-01,9.99999e-01,9.99999e-01,9.99793e-01,9.03761e-01,9.99998e-01
5.031515699e-01,9.04616e-01,9.99999e-01,9.99999e-01,9.98956e-01,9.05570e-01,9.99988e-01
5.056673278e-01,9.06836e-01,9.99999e-01,9.99999e-01,9.99450e-01,9.07346e-01,9.99986e-01
5.081956644e-01,9.08453e-01,9.99999e-01,9.99999e-01,9.99306e-01,9.09090e-01,9.99991e-01
5.107366428e-01,9.10376e-01,9.99999e-01,9.99999e-01,9.99531e-01,9.10803e-01,9.99998e-01
5.132903260e-01,9.12242e-01,9.99999e-01,9.99999e-01,9.99732e-01,9.12485e-01,9.99999e-01
5.158567776e-01,9.14034e-01,9.99999e-01,9.99999e-01,9.99886e-01,9.14137e-01,9.99999e-01
5.184360615e-01,9.15719e-01,9.99999e-01,9.99999e-01,9.99954e-01,9.15760e-01,9.99999e-01
5.210282418e-01,9.17338e-01,9.99999e-01,9.99999e-01,9.99982e-01,9.17353e-01,9.99999e-01
5.236333830e-01,9.18855e-01,9.99999e-01,9.99999e-01,9.99931e-01,9.18917e-01,9.99999e-01
5.262515499e-01,9.20414e-01,9.99999e-01,9.99999e-01,9.99957e-01,9.20454e-01,9.99998e-01
5.288828077e-01,9.21925e-01,9.99999e-01,9.99999e-01,9.99960e-01,9.21962e-01,9.99999e-01
5.315272217e-01,9.23411e-01,9.99999e-01,9.99999e-01,9.99965e-01,9.23443e-01,9.99999e-01
5.341848578e-01,9.24876e-01,9.99999e-01,9.99999e-01,9.99977e-01,9.24897e-01,9.99999e-01
5.368557821e-01,9.26250e-01,9.99999e-01,9.99999e-01,9.99920e-01,9.26324e-01,9.99999e-01
5.395400610e-01,9.27457e-01,9.99999e-01,9.99999e-01,9.99712e-01,9.27725e-01,9.99997e-01
5.422377613e-01,9.28753e-01,9.99999e-01,9.99999e-01,9.99631e-01,9.29101e-01,9.99992e-01
5.449489501e-01,9.30125e-01,9.99999e-01,9.99999e-01,9.99655e-01,9.30452e-01,9.99992e-01
5.476736949e-01,9.31492e-01,9.99999e-01,9.99999e-01,9.99696e-01,9.31777e-01,9.99996e-01
5.504120634e-01,9.32873e-01,9.99999e-01,9.99999e-01,9.99779e-01,9.33079e-01,9.99998e-01
5.531641237e-01,9.34253e-01,9.99999e-01,9.99999e-01,9.99888e-01,9.34356e-01,9.99999e-01
5.559299443e-01,9.35560e-01,9.99999e-01,9.99999e-01,9.99946e-01,9.35610e-01,9.99999e-01
5.587095940e-01,9.36809e-01,9.99999e-01,9.99999e-01,9.99965e-01,9.36841e-01,9.99999e-01
5.615031420e-01,9.38014e-01,9.99999e-01,9.99999e-01,9.99962e-01,9.38049e-01,9.99999e-01
5.643106577e-01,9.39194e-01,9.99999e-01,9.99999e-01,9.99956e-01,9.39235e-01,9.99999e-01
5.671322110e-01,9.39905e-01,9.99999e-01,9.99999e-01,9.99479e-01,9.40398e-01,9.99994e-01
5.699678720e-01,9.41014e-01,9.99999e-01,9.99999e-01,9.99454e-01,9.41541e-01,9.99985e-01
5.728177114e-01,9.42112e-01,9.99999e-01,9.99999e-01,9.99428e-01,9.42661e-01,9.99987e-01
5.756818000e-01,9.43261e-01,9.99999e-01,9.99999e-01,9.99476e-01,9.43762e-01,9.99992e-01
5.785602090e-01,9.44409e-01,9.99999e-01,9.99999e-01,9.99543e-01,9.44841e-01,9.99997e-01
5.814530100e-01,9.45466e-01,9.99999e-01,9.99999e-01,9.99541e-01,9.45901e-01,9.99998e-01
5.843602750e-01,9.46418e-01,9.99999e-01,9.99999e-01,9.99451e-01,9.46940e-01,9.99996e-01
5.872820764e-01,9.43456e-01,9.99999e-01,9.99999e-01,9.95280e-01,9.47961e-01,9.99966e-01
5.902184868e-01,9.43476e-01,9.99999e-01,9.99999e-01,9.94307e-01,9.48962e-01,9.99909e-01
5.931695792e-01,9.46035e-01,9.99999e-01,9.99999e-01,9.95970e-01,9.49944e-01,9.99912e-01
5.961354271e-01,9.46666e-01,9.99999e-01,9.99999e-01,9.95588e-01,9.50908e-01,9.99949e-01
5.991161043e-01,9.48778e-01,9.99999e-01,9.99999e-01,9.96782e-01,9.51854e-01,9.99984e-01
6.021116848e-01,9.51042e-01,9.99999e-01,9.99999e-01,9.98174e-01,9.52782e-01,9.99997e-01
6.051222432e-01,9.52812e-01,9.99999e-01,9.99999e-01,9.99076e-01,9.53693e-01,9.99999e-01
6.081478544e-01,9.54206e-01,9.99999e-01,9.99999e-01,9.99601e-01,9.54587e-01,9.99999e-01
6.111885937e-01,9.55303e-01,9.99999e-01,9.99999e-01,9.99831e-01,9.55463e-01,9.99999e-01
6.142445367e-01,9.56252e-01,9.99999e-01,9.99999e-01,9.99924e-01,9.56324e-01,9.99999e-01
6.173157594e-01,9.57128e-01,9.99999e-01,9.99999e-01,9.99958e-01,9.57168e-01,9.99999e-01
6.204023382e-01,9.57962e-01,9.99999e-01,9.99999e-01,9.99964e-01,9.57996e-01,9.99999e-01
6.235043498e-01,9.58658e-01,9.99999e-01,9.99999e-01,9.99843e-01,9.58808e-01,9.99999e-01
6.266218716e-01,9.58812e-01,9.99999e-01,9.99999e-01,9.99178e-01,9.59605e-01,9.99993e-01
6.297549810e-01,9.60087e-01,9.99999e-01,9.99999e-01,9.99698e-01,9.60387e-01,9.99987e-01
6.329037559e-01,9.60574e-01,9.99999e-01,9.99999e-01,9.99405e-01,9.61154e-01,9.99990e-01
6.360682746e-01,9.61413e-01,9.99999e-01,9.99999e-01,9.99492e-01,9.61906e-01,9.99994e-01
6.392486160e-01,9.62010e-01,9.99999e-01,9.99999e-01,9.99343e-01,9.62644e-01,9.99997e-01
6.424448591e-01,9.62514e-01,9.99999e-01,9.99999e-01,9.99117e-01,9.63369e-01,9.99995e-01
6.456570834e-01,9.60111e-01,9.99999e-01,9.99999e-01,9.95908e-01,9.64079e-01,9.99974e-01
6.488853688e-01,9.61839e-01,9.99999e-01,9.99999e-01,9.97018e-01,9.64776e-01,9.99936e-01
6.521297956e-01,9.62476e-01,9.99999e-01,9.99999e-01,9.96961e-01,9.65459e-01,9.99947e-01
6.553904446e-01,9.63164e-01,9.99999e-01,9.99999e-01,9.96968e-01,9.66130e-01,9.99960e-01
6.586673968e-01,9.64270e-01,9.99999e-01,9.99999e-01,9.97408e-01,9.66788e-01,9.99986e-01
6.619607338e-01,9.66033e-01,9.99999e-01,9.99999e-01,9.98555e-01,9.67433e-01,9.99996e-01
6.652705375e-01,9.67226e-01,9.99999e-01,9.99999e-01,9.99132e-01,9.68066e-01,9.99998e-01
6.685968902e-01,9.68330e-01,9.99999e-01,9.99999e-01,9.99631e-01,9.68687e-01,9.99999e-01
6.719398746e-01,9.69115e-01,9.99999e-01,9.99999e-01,9.99813e-01,9.69296e-01,9.99999e-01
6.752995740e-01,9.69795e-01,9.99999e-01,9.99999e-01,9.99898e-01,9.69893e-01,9.99999e-01
6.786760719e-01,9.70336e-01,9.99999e-01,9.99999e-01,9.99852e-01,9.70479e-01,9.99999e-01
6.820694522e-01,9.70809e-01,9.99999e-01,9.99999e-01,9.99749e-01,9.71053e-01,9.99998e-01
6.854797995e-01,9.71300e-01,9.99999e-01,9.99999e-01,9.99676e-01,9.71617e-01,9.99996e-01
6.889071985e-01,9.71397e-01,9.99999e-01,9.99999e-01,9.99211e-01,9.72169e-01,9.99992e-01
6.923517345e-01,9.60252e-01,9.99999e-01,9.99999e-01,9.87250e-01,9.72712e-01,9.99938e-01
6.958134932e-01,9.66708e-01,9.99999e-01,9.99999e-01,9.93418e-01,9.73243e-01,9.99864e-01
6.992925606e-01,9.67497e-01,9.99999e-01,9.99999e-01,9.93684e-01,9.73765e-01,9.99877e-01
7.027890234e-01,9.66623e-01,9.99999e-01,9.99999e-01,9.92236e-01,9.74276e-01,9.99906e-01
7.063029686e-01,9.68365e-01,9.99999e-01,9.99999e-01,9.93466e-01,9.74778e-01,9.99953e-01
7.098344834e-01,9.69130e-01,9.99999e-01,9.99999e-01,9.93731e-01,9.75270e-01,9.99972e-01
7.133836558e-01,9.67507e-01,9.99999e-01,9.99999e-01,9.91603e-01,9.75752e-01,9.99945e-01
7.169505741e-01,9.11989e-01,9.99999e-01,9.99999e-01,9.34599e-01,9.76226e-01,9.99570e-01
7.205353270e-01,9.44453e-01,9.99999e-01,9.99999e-01,9.67725e-01,9.76690e-01,9.99243e-01
7.241380036e-01,9.36344e-01,9.99999e-01,9.99999e-01,9.58871e-01,9.77145e-01,9.99346e-01
7.277586936e-01,9.40751e-01,9.99999e-01,9.99999e-01,9.62829e-01,9.77591e-01,9.99465e-01
7.313974871e-01,9.39290e-01,9.99999e-01,9.99999e-01,9.60631e-01,9.78029e-01,9.99749e-01
7.350544745e-01,9.57130e-01,9.99999e-01,9.99999e-01,9.78287e-01,9.78458e-01,9.99912e-01
7.387297469e-01,9.63163e-01,9.99999e-01,9.99999e-01,9.83983e-01,9.78879e-01,9.99959e-01
7.424233956e-01,9.71591e-01,9.99999e-01,9.99999e-01,9.92142e-01,9.79292e-01,9.99992e-01
7.461355126e-01,9.75021e-01,9.99999e-01,9.99999e-01,9.95228e-01,9.79697e-01,9.99998e-01
7.498661902e-01,9.77917e-01,9.99999e-01,9.99999e-01,9.97779e-01,9.80094e-01,9.99999e-01
7.536155211e-01,9.79413e-01,9.99999e-01,9.99999e-01,9.98908e-01,9.80483e-01,9.99999e-01
7.573835987e-01,9.80314e-01,9.99999e-01,9.99999e-01,9.99438e-01,9.80865e-01,9.99999e-01
7.611705167e-01,9.80897e-01,9.99999e-01,9.99999e-01,9.99650e-01,9.81239e-01,9.99999e-01
7.649763693e-01,9.81391e-01,9.99999e-01,9.99999e-01,9.99780e-01,9.81606e-01,9.99999e-01
7.688012511e-01,9.81817e-01,9.99999e-01,9.99999e-01,9.99847e-01,9.81966e-01,9.99999e-01
7.726452574e-01,9.82196e-01,9.99999e-01,9.99999e-01,9.99874e-01,9.82319e-01,9.99999e-01
7.765084837e-01,9.82489e-01,9.99999e-01,9.99999e-01,9.99820e-01,9.82665e-01,9.99999e-01
7.803910261e-01,9.82243e-01,9.99999e-01,9.99999e-01,9.99225e-01,9.83005e-01,9.99998e-01
7.842929812e-01,9.80677e-01,9.99999e-01,9.99999e-01,9.97298e-01,9.83338e-01,9.99994e-01
7.882144461e-01,9.78180e-01,9.99999e-01,9.99999e-01,9.94462e-01,9.83664e-01,9.99961e-01
7.921555184e-01,9.80936e-01,9.99999e-01,9.99999e-01,9.96967e-01,9.83984e-01,9.99933e-01
7.961162960e-01,9.78938e-01,9.99999e-01,9.99999e-01,9.94616e-01,9.84298e-01,9.99936e-01
8.000968774e-01,9.78437e-01,9.99999e-01,9.99999e-01,9.93800e-01,9.84606e-01,9.99932e-01
8.040973618e-01,9.78747e-01,9.99999e-01,9.99999e-01,9.93795e-01,9.84908e-01,9.99948e-01
8.081178486e-01,9.71381e-01,9.99999e-01,9.99999e-01,9.86020e-01,9.85203e-01,9.99947e-01
8.121584379e-01,9.29184e-01,9.99999e-01,9.99999e-01,9.43045e-01,9.85494e-01,9.99803e-01
8.162192301e-01,9.19114e-01,9.99999e-01,9.99999e-01,9.33060e-01,9.85778e-01,9.99263e-01
8.203003262e-01,9.51588e-01,9.99999e-01,9.99999e-01,9.65875e-01,9.86057e-01,9.99137e-01
8.244018279e-01,9.39539e-01,9.99999e-01,9.99999e-01,9.53213e-01,9.86330e-01,9.99313e-01
8.285238370e-01,9.46010e-01,9.99999e-01,9.99999e-01,9.59375e-01,9.86599e-01,9.99460e-01
8.326664562e-01,9.46217e-01,9.99999e-01,9.99999e-01,9.59027e-01,9.86862e-01,9.99776e-01
8.368297885e-01,9.58031e-01,9.99999e-01,9.99999e-01,9.70581e-01,9.87119e-01,9.99948e-01
8.410139374e-01,9.69989e-01,9.99999e-01,9.99999e-01,9.82423e-01,9.87372e-01,9.99969e-01
8.452190071e-01,9.79060e-01,9.99999e-01,9.99999e-01,9.91350e-01,9.87620e-01,9.99981e-01
8.494451021e-01,9.82876e-01,9.99999e-01,9.99999e-01,9.94965e-01,9.87863e-01,9.99985e-01
8.536923276e-01,9.85154e-01,9.99999e-01,9.99999e-01,9.97024e-01,9.88101e-01,9.99990e-01
8.579607893e-01,9.86519e-01,9.99999e-01,9.99999e-01,9.98164e-01,9.88335e-01,9.99997e-01
8.622505932e-01,9.87412e-01,9.99999e-01,9.99999e-01,9.98834e-01,9.88564e-01,9.99999e-01
8.665618462e-01,9.88075e-01,9.99999e-01,9.99999e-01,9.99277e-01,9.88789e-01,9.99999e-01
8.708946554e-01,9.88190e-01,9.99999e-01,9.99999e-01,9.99172e-01,9.89009e-01,9.99999e-01
8.752491287e-01,9.88130e-01,9.99999e-01,9.99999e-01,9.98893e-01,9.89225e-01,9.99998e-01
8.796253743e-01,9.87915e-01,9.99999e-01,9.99999e-01,9.98465e-01,9.89436e-01,9.99996e-01
8.840235012e-01,9.87900e-01,9.99999e-01,9.99999e-01,9.98248e-01,9.89644e-01,9.99988e-01
8.884436187e-01,9.83453e-01,9.99999e-01,9.99999e-01,9.93569e-01,9.89847e-01,9.99969e-01
8.928858368e-01,9.25180e-01,9.99999e-01,9.99999e-01,9.34644e-01,9.90047e-01,9.99824e-01
8.973502660e-01,8.78357e-01,9.99999e-01,9.99999e-01,8.87806e-01,9.90243e-01,9.99104e-01
9.018370173e-01,9.30955e-01,9.99999e-01,9.99999e-01,9.41270e-01,9.90434e-01,9.98592e-01
9.063462024e-01,9.37685e-01,9.99999e-01,9.99999e-01,9.47732e-01,9.90622e-01,9.98763e-01
9.108779334e-01,9.10251e-01,9.99999e-01,9.99999e-01,9.19877e-01,9.90807e-01,9.98714e-01
9.154323231e-01,9.00384e-01,9.99999e-01,9.99999e-01,9.09537e-01,9.90988e-01,9.98937e-01
9.200094847e-01,9.19792e-01,9.99999e-01,9.99999e-01,9.28542e-01,9.91165e-01,9.99405e-01
9.246095321e-01,8.81842e-01,9.99999e-01,9.99999e-01,8.90156e-01,9.91339e-01,9.99314e-01
9.292325798e-01,4.60171e-01,9.99999e-01,9.99999e-01,4.65353e-01,9.91509e-01,9.97331e-01
9.338787427e-01,3.68148e-01,9.99999e-01,9.99999e-01,3.75362e-01,9.91676e-01,9.89014e-01
9.385481364e-01,6.58673e-01,9.99999e-01,9.99999e-01,6.72874e-01,9.91840e-01,9.86947e-01
9.432408771e-01,5.67134e-01,9.99999e-01,9.99999e-01,5.78223e-01,9.92000e-01,9.88729e-01
9.479570815e-01,4.64120e-01,9.99999e-01,9.99999e-01,4.72124e-01,9.92157e-01,9.90817e-01
9.526968669e-01,5.59469e-01,9.99999e-01,9.99999e-01,5.66984e-01,9.92312e-01,9.94388e-01
9.574603512e-01,5.82988e-01,9.99999e-01,9.99999e-01,5.89096e-01,9.92463e-01,9.97145e-01
9.622476530e-01,6.43218e-01,9.99999e-01,9.99999e-01,6.49287e-01,9.92611e-01,9.98025e-01
9.670588912e-01,7.72398e-01,9.99999e-01,9.99999e-01,7.79084e-01,9.92757e-01,9.98648e-01
9.718941857e-01,8.47836e-01,9.99999e-01,9.99999e-01,8.54748e-01,9.92899e-01,9.99005e-01
9.767536566e-01,8.71021e-01,9.99999e-01,9.99999e-01,8.77792e-01,9.93039e-01,9.99239e-01
9.816374249e-01,9.01530e-01,9.99999e-01,9.99999e-01,9.07963e-01,9.93176e-01,9.99736e-01
9.865456120e-01,9.35099e-01,9.99999e-01,9.99999e-01,9.41448e-01,9.93310e-01,9.99944e-01
9.914783401e-01,9.57043e-01,9.99999e-01,9.99999e-01,9.63375e-01,9.93442e-01,9.99984e-01
9.964357318e-01,9.73584e-01,9.99999e-01,9.99999e-01,9.79891e-01,9.93571e-01,9.99990e-01
1.001417910e+00,9.81663e-01,9.99999e-01,9.99999e-01,9.87902e-01,9.93698e-01,9.99985e-01
1.006425000e+00,9.86926e-01,9.99999e-01,9.99999e-01,9.93080e-01,9.93822e-01,9.99980e-01
1.011457125e+00,9.89658e-01,9.99999e-01,9.99999e-01,9.95705e-01,9.93943e-01,9.99981e-01
1.016514411e+00,9.91149e-01,9.99999e-01,9.99999e-01,9.97080e-01,9.94063e-01,9.99986e-01
1.021596983e+00,9.91854e-01,9.99999e-01,9.99999e-01,9.97672e-01,9.94180e-01,9.99987e-01
1.026704968e+00,9.92481e-01,9.99999e-01,9.99999e-01,9.98184e-01,9.94294e-01,9.99991e-01
1.031838492e+00,9.93093e-01,9.99999e-01,9.99999e-01,9.98681e-01,9.94407e-01,9.99997e-01
1.036997685e+00,9.93737e-01,9.99999e-01,9.99999e-01,9.99215e-01,9.94517e-01,9.99999e-01
1.042182673e+00,9.93693e-01,9.99999e-01,9.99999e-01,9.99063e-01,9.94625e-01,9.99999e-01
1.047393587e+00,9.93496e-01,9.99999e-01,9.99999e-01,9.98759e-01,9.94731e-01,9.99999e-01
1.052630555e+00,9.93140e-01,9.99999e-01,9.99999e-01,9.98296e-01,9.94834e-01,9.99999e-01
1.057893707e+00,9.92105e-01,9.99999e-01,9.99999e-01,9.97154e-01,9.94936e-01,9.99998e-01
1.063183176e+00,9.90381e-01,9.99999e-01,9.99999e-01,9.95324e-01,9.95036e-01,9.99997e-01
1.068499092e+00,9.87353e-01,9.99999e-01,9.99999e-01,9.92185e-01,9.95134e-01,9.99994e-01
1.073841587e+00,9.86115e-01,9.99999e-01,9.99999e-01,9.90852e-01,9.95230e-01,9.99987e-01
1.079210795e+00,9.83657e-01,9.99999e-01,9.99999e-01,9.88309e-01,9.95324e-01,9.99968e-01
1.084606849e+00,9.77763e-01,9.99999e-01,9.99999e-01,9.82339e-01,9.95416e-01,9.99924e-01
1.090029883e+00,9.70129e-01,9.99999e-01,9.99999e-01,9.74660e-01,9.95506e-01,9.99843e-01
1.095480033e+00,9.28147e-01,9.99999e-01,9.99999e-01,9.32516e-01,9.95595e-01,9.99717e-01
1.100957433e+00,8.33540e-01,9.99999e-01,9.99999e-01,8.37589e-01,9.95681e-01,9.99480e-01
1.106462220e+00,6.36235e-01,9.99999e-01,9.99999e-01,6.39502e-01,9.95767e-01,9.99118e-01
1.111994531e+00,3.91851e-01,9.99999e-01,9.99999e-01,3.94405e-01,9.95850e-01,9.97663e-01
1.117554504e+00,2.22268e-01,9.99999e-01,9.99999e-01,2.25069e-01,9.95932e-01,9.91589e-01
1.123142276e+00,3.35076e-01,9.99999e-01,9.99999e-01,3.43223e-01,9.96012e-01,9.80170e-01
1.128757988e+00,4.82368e-01,9.99999e-01,9.99999e-01,4.95611e-01,9.96091e-01,9.77096e-01
1.134401778e+00,2.50350e-01,9.99999e-01,9.99999e-01,2.56314e-01,9.96168e-01,9.80491e-01
1.140073787e+00,6.41027e-01,9.99999e-01,9.99999e-01,6.53652e-01,9.96243e-01,9.84381e-01
1.145774156e+00,4.11125e-01,9.99999e-01,9.99999e-01,4.18633e-01,9.96317e-01,9.85694e-01
1.151503026e+00,3.76600e-01,9.99999e-01,9.99999e-01,3.81010e-01,9.96390e-01,9.92004e-01
1.157260541e+00,4.36775e-01,9.99999e-01,9.99999e-01,4.39379e-01,9.96461e-01,9.97602e-01
1.163046844e+00,5.41477e-01,9.99999e-01,9.99999e-01,5.43731e-01,9.96531e-01,9.99319e-01
1.168862078e+00,6.50384e-01,9.99999e-01,9.99999e-01,6.52832e-01,9.96599e-01,9.99649e-01
1.174706389e+00,7.65564e-01,9.99999e-01,9.99999e-01,7.68481e-01,9.96666e-01,9.99535e-01
1.180579921e+00,8.48321e-01,9.99999e-01,9.99999e-01,8.51700e-01,9.96732e-01,9.99297e-01
1.186482820e+00,9.09566e-01,9.99999e-01,9.99999e-01,9.13147e-01,9.96796e-01,9.99278e-01
1.192415234e+00,9.44833e-01,9.99999e-01,9.99999e-01,9.48320e-01,9.96859e-01,9.99459e-01
1.198377311e+00,9.52801e-01,9.99999e-01,9.99999e-01,9.56230e-01,9.96921e-01,9.99489e-01
1.204369197e+00,9.55239e-01,9.99999e-01,9.99999e-01,9.58572e-01,9.96982e-01,9.99538e-01
1.210391043e+00,9.57229e-01,9.99999e-01,9.99999e-01,9.60338e-01,9.97042e-01,9.99718e-01
1.216442998e+00,9.63228e-01,9.99999e-01,9.99999e-01,9.66194e-01,9.97100e-01,9.99827e-01
1.222525213e+00,9.70696e-01,9.99999e-01,9.99999e-01,9.73567e-01,9.97157e-01,9.99892e-01
1.228637839e+00,9.78783e-01,9.99999e-01,9.99999e-01,9.81566e-01,9.97213e-01,9.99949e-01
