#,Wave/freq,Total,N2,O2,H2O,Rayleigh,CIA
4.000000000e-01,7.92668e-01,9.99999e-01,9.99999e-01,9.99973e-01,7.92688e-01,9.99999e-01
4.020000000e-01,7.96325e-01,9.99999e-01,9.99999e-01,9.99983e-01,7.96338e-01,9.99999e-01
4.040100000e-01,7.99923e-01,9.99999e-01,9.99999e-01,9.99992e-01,7.99928e-01,9.99999e-01
4.060300500e-01,8.03462e-01,9.99999e-01,9.99999e-01,9.99997e-01,8.03463e-01,9.99999e-01
4.080602003e-01,8.06943e-01,9.99999e-01,9.99999e-01,9.99998e-01,8.06944e-01,9.99999e-01
4.101005013e-01,8.10370e-01,9.99999e-01,9.99999e-01,9.99999e-01,8.10370e-01,9.99999e-01
4.121510038e-01,8.13742e-01,9.99999e-01,9.99999e-01,9.99998e-01,8.13742e-01,9.99999e-01
4.142117588e-01,8.17056e-01,9.99999e-01,9.99999e-01,9.99992e-01,8.17062e-01,9.99999e-01
4.162828176e-01,8.20303e-01,9.99999e-01,9.99999e-01,9.99967e-01,8.20329e-01,9.99999e-01
4.183642317e-01,8.23529e-01,9.99999e-01,9.99999e-01,9.99980e-01,8.23545e-01,9.99999e-01
4.204560528e-01,8.26699e-01,9.99999e-01,9.99999e-01,9.99987e-01,8.26709e-01,9.99999e-01
4.225583331e-01,8.29818e-01,9.99999e-01,9.99999e-01,9.99995e-01,8.29822e-01,9.99999e-01
4.246711247e-01,8.32883e-01,9.99999e-01,9.99999e-01,9.99995e-01,8.32885e-01,9.99999e-01
4.267944804e-01,8.35895e-01,9.99999e-01,9.99999e-01,9.99994e-01,8.35899e-01,9.99999e-01
4.289284528e-01,8.38861e-01,9.99999e-01,9.99999e-01,9.99995e-01,8.38864e-01,9.99999e-01
4.310730950e-01,8.41779e-01,9.99999e-01,9.99999e-01,9.99997e-01,8.41780e-01,9.99999e-01
4.332284605e-01,8.44649e-01,9.99999e-01,9.99999e-01,9.99999e-01,8.44649e-01,9.99999e-01
4.353946028e-01,8.47470e-01,9.99999e-01,9.99999e-01,9.99999e-01,8.47471e-01,9.99999e-01
4.375715758e-01,8.50243e-01,9.99999e-01,9.99999e-01,9.99996e-01,8.50245e-01,9.99999e-01
4.397594337e-01,8.52950e-01,9.99999e-01,9.99999e-01,9.99971e-01,8.52974e-01,9.99999e-01
4.419582309e-01,8.55534e-01,9.99999e-01,9.99999e-01,9.99854e-01,8.55658e-01,9.99999e-01
4.441680220e-01,8.58200e-01,9.99999e-01,9.99999e-01,9.99886e-01,8.58297e-01,9.99999e-01
4.463888621e-01,8.60790e-01,9.99999e-01,9.99999e-01,9.99881e-01,8.60891e-01,9.99999e-01
4.486208064e-01,8.63379e-01,9.99999e-01,9.99999e-01,9.99926e-01,8.63442e-01,9.99999e-01
4.508639105e-01,8.65920e-01,9.99999e-01,9.99999e-01,9.99965e-01,8.65950e-01,9.99999e-01
4.531182300e-01,8.68403e-01,9.99999e-01,9.99999e-01,9.99985e-01,8.68415e-01,9.99999e-01
4.553838212e-01,8.70831e-01,9.99999e-01,9.99999e-01,9.99990e-01,8.70839e-01,9.99999e-01
4.576607403e-01,8.73217e-01,9.99999e-01,9.99999e-01,9.99995e-01,8.73221e-01,9.99999e-01
4.599490440e-01,8.75559e-01,9.99999e-01,9.99999e-01,9.99996e-01,8.75562e-01,9.99999e-01
4.622487892e-01,8.77863e-01,9.99999e-01,9.99999e-01,9.99998e-01,8.77863e-01,9.99999e-01
4.645600332e-01,8.80123e-01,9.99999e-01,9.99999e-01,9.99997e-01,8.80125e-01,9.99999e-01
4.668828333e-01,8.82317e-01,9.99999e-01,9.99999e-01,9.99965e-01,8.82348e-01,9.99999e-01
4.692172475e-01,8.84467e-01,9.99999e-01,9.99999e-01,9.99925e-01,8.84532e-01,9.99999e-01
4.715633337e-01,8.86635e-01,9.99999e-01,9.99999e-01,9.99951e-01,8.86678e-01,9.99999e-01
4.739211504e-01,8.88746e-01,9.99999e-01,9.99999e-01,9.99953e-01,8.88787e-01,9.99999e-01
4.762907561e-01,8.90838e-01,9.99999e-01,9.99999e-01,9.99975e-01,8.90859e-01,9.99999e-01
4.786722099e-01,8.92887e-01,9.99999e-01,9.99999e-01,9.99989e-01,8.92895e-01,9.99999e-01
4.810655710e-01,8.94893e-01,9.99999e-01,9.99999e-01,9.99996e-01,8.94895e-01,9.99999e-01
4.834708988e-01,8.96835e-01,9.99999e-01,9.99999e-01,9.99971e-01,8.96861e-01,9.99999e-01
4.858882533e-01,8.98744e-01,9.99999e-01,9.99999e-01,9.99947e-01,8.98791e-01,9.99999e-01
4.883176946e-01,9.00648e-01,9.99999e-01,9.99999e-01,9.99955e-01,9.00687e-01,9.99999e-01
4.907592831e-01,9.02514e-01,9.99999e-01,9.99999e-01,9.99960e-01,9.02550e-01,9.99999e-01
4.932130795e-01,9.04354e-01,9.99999e-01,9.99999e-01,9.99971e-01,9.04380e-01,9.99999e-01
4.956791449e-01,9.06164e-01,9.99999e-01,9.99999e-01,9.99984e-01,9.06177e-01,9.99999e-01
4.981575406e-01,9.07875e-01,9.99999e-01,9.99999e-01,9.99925e-01,9.07942e-01,9.99999e-01
5.006483283e-01,9.09500e-01,9.99999e-01,9.99999e-01,9.99807e-01,9.09676e-01,9.99998e-01
5.031515699e-01,9.10481e-01,9.99999e-01,9.99999e-01,9.99025e-01,9.11378e-01,9.99989e-01
5.056673278e-01,9.12570e-01,9.99999e-01,9.99999e-01,9.99485e-01,9.13050e-01,9.99987e-01
5.081956644e-01,9.14092e-01,9.99999e-01,9.99999e-01,9.99350e-01,9.14692e-01,9.99991e-01
5.107366428e-01,9.15902e-01,9.99999e-01,9.99999e-01,9.99561e-01,9.16305e-01,9.99998e-01
5.132903260e-01,9.17658e-01,9.99999e-01,9.99999e-01,9.99749e-01,9.17888e-01,9.99999e-01
5.158567776e-01,9.19346e-01,9.99999e-01,9.99999e-01,9.99893e-01,9.19443e-01,9.99999e-01
5.184360615e-01,9.20930e-01,9.99999e-01,9.99999e-01,9.99957e-01,9.20969e-01,9.99999e-01
5.210282418e-01,9.22454e-01,9.99999e-01,9.99999e-01,9.99983e-01,9.22468e-01,9.99999e-01
5.236333830e-01,9.23881e-01,9.99999e-01,9.99999e-01,9.99936e-01,9.23940e-01,9.99999e-01
5.262515499e-01,9.25347e-01,9.99999e-01,9.99999e-01,9.99959e-01,9.25385e-01,9.99998e-01
5.288828077e-01,9.26769e-01,9.99999e-01,9.99999e-01,9.99963e-01,9.26803e-01,9.99999e-01
5.315272217e-01,9.28166e-01,9.99999e-01,9.99999e-01,9.99967e-01,9.28196e-01,9.99999e-01
5.341848578e-01,9.29544e-01,9.99999e-01,9.99999e-01,9.99978e-01,9.29563e-01,9.99999e-01
5.368557821e-01,9.30836e-01,9.99999e-01,9.99999e-01,9.99925e-01,9.30905e-01,9.99999e-01
5.395400610e-01,9.31972e-01,9.99999e-01,9.99999e-01,9.99733e-01,9.32222e-01,9.99997e-01
5.422377613e-01,9.33188e-01,9.99999e-01,9.99999e-01,9.99654e-01,9.33516e-01,9.99993e-01
5.449489501e-01,9.34479e-01,9.99999e-01,9.99999e-01,9.99678e-01,9.34785e-01,9.99993e-01
5.476736949e-01,9.35762e-01,9.99999e-01,9.99999e-01,9.99715e-01,9.36031e-01,9.99996e-01
5.504120634e-01,9.37060e-01,9.99999e-01,9.99999e-01,9.99793e-01,9.37254e-01,9.99998e-01
5.531641237e-01,9.38357e-01,9.99999e-01,9.99999e-01,9.99895e-01,9.38455e-01,9.99999e-01
5.559299443e-01,9.39586e-01,9.99999e-01,9.99999e-01,9.99949e-01,9.39633e-01,9.99999e-01
5.587095940e-01,9.40760e-01,9.99999e-01,9.99999e-01,9.99968e-01,9.40789e-01,9.99999e-01
5.615031420e-01,9.41891e-01,9.99999e-01,9.99999e-01,9.99964e-01,9.41924e-01,9.99999e-01
5.643106577e-01,9.43000e-01,9.99999e-01,9.99999e-01,9.99959e-01,9.43038e-01,9.99999e-01
5.671322110e-01,9.43673e-01,9.99999e-01,9.99999e-01,9.99518e-01,9.44131e-01,9.99995e-01
5.699678720e-01,9.44706e-01,9.99999e-01,9.99999e-01,9.99486e-01,9.45204e-01,9.99986e-01
5.728177114e-01,9.45741e-01,9.99999e-01,9.99999e-01,9.99466e-01,9.46256e-01,9.99988e-01
5.756818000e-01,9.46819e-01,9.99999e-01,9.99999e-01,9.99509e-01,9.47289e-01,9.99992e-01
5.785602090e-01,9.47896e-01,9.99999e-01,9.99999e-01,9.99572e-01,9.48303e-01,9.99997e-01
5.814530100e-01,9.48890e-01,9.99999e-01,9.99999e-01,9.99570e-01,9.49298e-01,9.99998e-01
5.843602750e-01,9.49786e-01,9.99999e-01,9.99999e-01,9.99488e-01,9.50274e-01,9.99996e-01
5.872820764e-01,9.47019e-01,9.99999e-01,9.99999e-01,9.95601e-01,9.51232e-01,9.99968e-01
5.902184868e-01,9.47015e-01,9.99999e-01,9.99999e-01,9.94667e-01,9.52172e-01,9.99915e-01
5.931695792e-01,9.49426e-01,9.99999e-01,9.99999e-01,9.96232e-01,9.53094e-01,9.99918e-01
5.961354271e-01,9.50014e-01,9.99999e-01,9.99999e-01,9.95869e-01,9.53999e-01,9.99952e-01
5.991161043e-01,9.51995e-01,9.99999e-01,9.99999e-01,9.96985e-01,9.54887e-01,9.99985e-01
6.021116848e-01,9.54121e-01,9.99999e-01,9.99999e-01,9.98288e-01,9.55758e-01,9.99997e-01
6.051222432e-01,9.55784e-01,9.99999e-01,9.99999e-01,9.99133e-01,9.56612e-01,9.99999e-01
6.081478544e-01,9.57093e-01,9.99999e-01,9.99999e-01,9.99626e-01,9.57451e-01,9.99999e-01
6.111885937e-01,9.58122e-01,9.99999e-01,9.99999e-01,9.99841e-01,9.58273e-01,9.99999e-01
6.142445367e-01,9.59013e-01,9.99999e-01,9.99999e-01,9.99928e-01,9.59081e-01,9.99999e-01
6.173157594e-01,9.59835e-01,9.99999e-01,9.99999e-01,9.99960e-01,9.59872e-01,9.99999e-01
6.204023382e-01,9.60618e-01,9.99999e-01,9.99999e-01,9.99966e-01,9.60649e-01,9.99999e-01
6.235043498e-01,9.61272e-01,9.99999e-01,9.99999e-01,9.99854e-01,9.61411e-01,9.99999e-01
6.266218716e-01,9.61415e-01,9.99999e-01,9.99999e-01,9.99231e-01,9.62159e-01,9.99994e-01
6.297549810e-01,9.62611e-01,9.99999e-01,9.99999e-01,9.99718e-01,9.62892e-01,9.99988e-01
6.329037559e-01,9.63067e-01,9.99999e-01,9.99999e-01,9.99442e-01,9.63612e-01,9.99990e-01
6.360682746e-01,9.63856e-01,9.99999e-01,9.99999e-01,9.99525e-01,9.64317e-01,9.99994e-01
6.392486160e-01,9.64415e-01,9.99999e-01,9.99999e-01,9.99385e-01,9.65010e-01,9.99997e-01
6.424448591e-01,9.64893e-01,9.99999e-01,9.99999e-01,9.99178e-01,9.65689e-01,9.99995e-01
6.456570834e-01,9.62653e-01,9.99999e-01,9.99999e-01,9.96189e-01,9.66355e-01,9.99978e-01
6.488853688e-01,9.64250e-01,9.99999e-01,9.99999e-01,9.97205e-01,9.67009e-01,9.99940e-01
6.521297956e-01,9.64847e-01,9.99999e-01,9.99999e-01,9.97151e-01,9.67650e-01,9.99950e-01
6.553904446e-01,9.65500e-01,9.99999e-01,9.99999e-01,9.97166e-01,9.68278e-01,9.99963e-01
6.586673968e-01,9.66531e-01,9.99999e-01,9.99999e-01,9.97571e-01,9.68895e-01,9.99987e-01
6.619607338e-01,9.68137e-01,9.99999e-01,9.99999e-01,9.98595e-01,9.69500e-01,9.99996e-01
6.652705375e-01,9.69304e-01,9.99999e-01,9.99999e-01,9.99187e-01,9.70093e-01,9.99998e-01
6.685968902e-01,9.70309e-01,9.99999e-01,9.99999e-01,9.99622e-01,9.70675e-01,9.99999e-01
6.719398746e-01,9.71076e-01,9.99999e-01,9.99999e-01,9.99824e-01,9.71246e-01,9.99999e-01
6.752995740e-01,9.71714e-01,9.99999e-01,9.99999e-01,9.99904e-01,9.71806e-01,9.99999e-01
6.786760719e-01,9.72222e-01,9.99999e-01,9.99999e-01,9.99862e-01,9.72355e-01,9.99999e-01
6.820694522e-01,9.72665e-01,9.99999e-01,9.99999e-01,9.99765e-01,9.72894e-01,9.99998e-01
6.854797995e-01,9.73125e-01,9.99999e-01,9.99999e-01,9.99697e-01,9.73422e-01,9.99996e-01
6.889071985e-01,9.73223e-01,9.99999e-01,9.99999e-01,9.99269e-01,9.73940e-01,9.99992e-01
6.923517345e-01,9.62810e-01,9.99999e-01,9.99999e-01,9.88112e-01,9.74448e-01,9.99942e-01
6.958134932e-01,9.68771e-01,9.99999e-01,9.99999e-01,9.93791e-01,9.74946e-01,9.99872e-01
6.992925606e-01,9.69581e-01,9.99999e-01,9.99999e-01,9.94111e-01,9.75435e-01,9.99885e-01
7.027890234e-01,9.68733e-01,9.99999e-01,9.99999e-01,9.92727e-01,9.75914e-01,9.99912e-01
7.063029686e-01,9.70371e-01,9.99999e-01,9.99999e-01,9.93884e-01,9.76384e-01,9.99956e-01
7.098344834e-01,9.71088e-01,9.99999e-01,9.99999e-01,9.94131e-01,9.76845e-01,9.99973e-01
7.133836558e-01,9.69620e-01,9.99999e-01,9.99999e-01,9.92193e-01,9.77297e-01,9.99948e-01
7.169505741e-01,9.17573e-01,9.99999e-01,9.99999e-01,9.38838e-01,9.77741e-01,9.99598e-01
7.205353270e-01,9.47714e-01,9.99999e-01,9.99999e-01,9.69544e-01,9.78176e-01,9.99291e-01
7.241380036e-01,9.40371e-01,9.99999e-01,9.99999e-01,9.61520e-01,9.78602e-01,9.99388e-01
7.277586936e-01,9.44488e-01,9.99999e-01,9.99999e-01,9.65209e-01,9.79020e-01,9.99499e-01
7.313974871e-01,9.42988e-01,9.99999e-01,9.99999e-01,9.63017e-01,9.79430e-01,9.99765e-01
7.350544745e-01,9.59803e-01,9.99999e-01,9.99999e-01,9.79637e-01,9.79833e-01,9.99918e-01
7.387297469e-01,9.65466e-01,9.99999e-01,9.99999e-01,9.84977e-01,9.80227e-01,9.99962e-01
7.424233956e-01,9.73373e-01,9.99999e-01,9.99999e-01,9.92623e-01,9.80614e-01,9.99992e-01
7.461355126e-01,9.76602e-01,9.99999e-01,9.99999e-01,9.95524e-01,9.80993e-01,9.99998e-01
7.498661902e-01,9.79317e-01,9.99999e-01,9.99999e-01,9.97913e-01,9.81365e-01,9.99999e-01
7.536155211e-01,9.80725e-01,9.99999e-01,9.99999e-01,9.98976e-01,9.81729e-01,9.99999e-01
7.573835987e-01,9.81570e-01,9.99999e-01,9.99999e-01,9.99472e-01,9.82087e-01,9.99999e-01
7.611705167e-01,9.82116e-01,9.99999e-01,9.99999e-01,9.99672e-01,9.82438e-01,9.99999e-01
7.649763693e-01,9.82580e-01,9.99999e-01,9.99999e-01,9.99794e-01,9.82782e-01,9.99999e-01
7.688012511e-01,9.82978e-01,9.99999e-01,9.99999e-01,9.99856e-01,9.83119e-01,9.99999e-01
7.726452574e-01,9.83334e-01,9.99999e-01,9.99999e-01,9.99882e-01,9.83449e-01,9.99999e-01
7.765084837e-01,9.83609e-01,9.99999e-01,9.99999e-01,9.99832e-01,9.83774e-01,9.99999e-01
7.803910261e-01,9.83382e-01,9.99999e-01,9.99999e-01,9.99278e-01,9.84092e-01,9.99998e-01
7.842929812e-01,9.81923e-01,9.99999e-01,9.99999e-01,9.97484e-01,9.84403e-01,9.99994e-01
7.882144461e-01,9.79576e-01,9.99999e-01,9.99999e-01,9.94818e-01,9.84709e-01,9.99967e-01
7.921555184e-01,9.82146e-01,9.99999e-01,9.99999e-01,9.97154e-01,9.85009e-01,9.99938e-01
7.961162960e-01,9.80300e-01,9.99999e-01,9.99999e-01,9.94980e-01,9.85303e-01,9.99940e-01
8.000968774e-01,9.79814e-01,9.99999e-01,9.99999e-01,9.94200e-01,9.85591e-01,9.99936e-01
8.040973618e-01,9.80107e-01,9.99999e-01,9.99999e-01,9.94199e-01,9.85873e-01,9.99949e-01
8.081178486e-01,9.73261e-01,9.99999e-01,9.99999e-01,9.86974e-01,9.86151e-01,9.99952e-01
8.121584379e-01,9.33755e-01,9.99999e-01,9.99999e-01,9.46780e-01,9.86422e-01,9.99816e-01
8.162192301e-01,9.23963e-01,9.99999e-01,9.99999e-01,9.37073e-01,9.86689e-01,9.99311e-01
8.203003262e-01,9.54841e-01,9.99999e-01,9.99999e-01,9.68246e-01,9.86950e-01,9.99193e-01
8.244018279e-01,9.42974e-01,9.99999e-01,9.99999e-01,9.55808e-01,9.87206e-01,9.99357e-01
8.285238370e-01,9.49443e-01,9.99999e-01,9.99999e-01,9.61987e-01,9.87457e-01,9.99495e-01
8.326664562e-01,9.49546e-01,9.99999e-01,9.99999e-01,9.61567e-01,9.87703e-01,9.99791e-01
8.368297885e-01,9.60625e-01,9.99999e-01,9.99999e-01,9.72393e-01,9.87945e-01,9.99951e-01
8.410139374e-01,9.71859e-01,9.99999e-01,9.99999e-01,9.83509e-01,9.88181e-01,9.99971e-01
8.452190071e-01,9.80373e-01,9.99999e-01,9.99999e-01,9.91881e-01,9.88413e-01,9.99982e-01
8.494451021e-01,9.83967e-01,9.99999e-01,9.99999e-01,9.95285e-01,9.88641e-01,9.99986e-01
8.536923276e-01,9.86096e-01,9.99999e-01,9.99999e-01,9.97208e-01,9.88864e-01,9.99991e-01
8.579607893e-01,9.87381e-01,9.99999e-01,9.99999e-01,9.98280e-01,9.89083e-01,9.99997e-01
8.622505932e-01,9.88216e-01,9.99999e-01,9.99999e-01,9.98907e-01,9.89297e-01,9.99999e-01
8.665618462e-01,9.88839e-01,9.99999e-01,9.99999e-01,9.99324e-01,9.89507e-01,9.99999e-01
8.708946554e-01,9.88948e-01,9.99999e-01,9.99999e-01,9.99226e-01,9.89714e-01,9.99999e-01
8.752491287e-01,9.88891e-01,9.99999e-01,9.99999e-01,9.98965e-01,9.89916e-01,9.99998e-01
8.796253743e-01,9.88693e-01,9.99999e-01,9.99999e-01,9.98567e-01,9.90114e-01,9.99996e-01
8.840235012e-01,9.88679e-01,9.99999e-01,9.99999e-01,9.98363e-01,9.90308e-01,9.99989e-01
8.884436187e-01,9.84580e-01,9.99999e-01,9.99999e-01,9.94052e-01,9.90499e-01,9.99971e-01
8.928858368e-01,9.30075e-01,9.99999e-01,9.99999e-01,9.38972e-01,9.90686e-01,9.99836e-01
8.973502660e-01,8.85588e-01,9.99999e-01,9.99999e-01,8.94497e-01,9.90869e-01,9.99162e-01
9.018370173e-01,9.34957e-01,9.99999e-01,9.99999e-01,9.44644e-01,9.91048e-01,9.98683e-01
9.063462024e-01,9.41746e-01,9.99999e-01,9.99999e-01,9.51182e-01,9.91224e-01,9.98843e-01
9.108779334e-01,9.15822e-01,9.99999e-01,9.99999e-01,9.24880e-01,9.91397e-01,9.98797e-01
9.154323231e-01,9.06453e-01,9.99999e-01,9.99999e-01,9.15071e-01,9.91566e-01,9.99006e-01
9.200094847e-01,9.24628e-01,9.99999e-01,9.99999e-01,9.32854e-01,9.91732e-01,9.99443e-01
9.246095321e-01,8.89768e-01,9.99999e-01,9.99999e-01,8.97614e-01,9.91895e-01,9.99358e-01
9.292325798e-01,4.83391e-01,9.99999e-01,9.99999e-01,4.88482e-01,9.92054e-01,9.97503e-01
9.338787427e-01,3.90184e-01,9.99999e-01,9.99999e-01,3.97331e-01,9.92210e-01,9.89719e-01
9.385481364e-01,6.74867e-01,9.99999e-01,9.99999e-01,6.88468e-01,9.92364e-01,9.87784e-01
9.432408771e-01,5.87248e-01,9.99999e-01,9.99999e-01,5.97983e-01,9.92514e-01,9.89452e-01
9.479570815e-01,4.86167e-01,9.99999e-01,9.99999e-01,4.94005e-01,9.92661e-01,9.91407e-01
9.526968669e-01,5.78904e-01,9.99999e-01,9.99999e-01,5.86176e-01,9.92806e-01,9.94750e-01
9.574603512e-01,6.02613e-01,9.99999e-01,9.99999e-01,6.08518e-01,9.92947e-01,9.97329e-01
9.622476530e-01,6.60642e-01,9.99999e-01,9.99999e-01,6.66472e-01,9.93086e-01,9.98152e-01
9.670588912e-01,7.84837e-01,9.99999e-01,9.99999e-01,7.91191e-01,9.93222e-01,9.98736e-01
9.718941857e-01,8.56782e-01,9.99999e-01,9.99999e-01,8.63315e-01,9.93355e-01,9.99069e-01
9.767536566e-01,8.78734e-01,9.99999e-01,9.99999e-01,8.85123e-01,9.93486e-01,9.99288e-01
9.816374249e-01,9.07415e-01,9.99999e-01,9.99999e-01,9.13471e-01,9.93614e-01,9.99753e-01
9.865456120e-01,9.39047e-01,9.99999e-01,9.99999e-01,9.45010e-01,9.93740e-01,9.99948e-01
9.914783401e-01,9.59704e-01,9.99999e-01,9.99999e-01,9.65642e-01,9.93863e-01,9.99985e-01
9.964357318e-01,9.75234e-01,9.99999e-01,9.99999e-01,9.81143e-01,9.93984e-01,9.99991e-01
1.001417910e+00,9.82815e-01,9.99999e-01,9.99999e-01,9.88656e-01,9.94103e-01,9.99986e-01
1.006425000e+00,9.87759e-01,9.99999e-01,9.99999e-01,9.93520e-01,9.94219e-01,9.99981e-01
1.011457125e+00,9.90313e-01,9.99999e-01,9.99999e-01,9.95973e-01,9.94333e-01,9.99982e-01
1.016514411e+00,9.91713e-01,9.99999e-01,9.99999e-01,9.97265e-01,9.94444e-01,9.99987e-01
1.021596983e+00,9.92375e-01,9.99999e-01,9.99999e-01,9.97820e-01,9.94554e-01,9.99987e-01
1.026704968e+00,9.92963e-01,9.99999e-01,9.99999e-01,9.98299e-01,9.94661e-01,9.99991e-01
1.031838492e+00,9.93535e-01,9.99999e-01,9.99999e-01,9.98763e-01,9.94766e-01,9.99997e-01
1.036997685e+00,9.94139e-01,9.99999e-01,9.99999e-01,9.99265e-01,9.94869e-01,9.99999e-01
1.042182673e+00,9.94100e-01,9.99999e-01,9.99999e-01,9.99124e-01,9.94970e-01,9.99999e-01
1.047393587e+00,9.93915e-01,9.99999e-01,9.99999e-01,9.98839e-01,9.95069e-01,9.99999e-01
1.052630555e+00,9.93582e-01,9.99999e-01,9.99999e-01,9.98408e-01,9.95167e-01,9.99999e-01
1.057893707e+00,9.92618e-01,9.99999e-01,9.99999e-01,9.97343e-01,9.95262e-01,9.99998e-01
1.063183176e+00,9.91005e-01,9.99999e-01,9.99999e-01,9.95631e-01,9.95355e-01,9.99997e-01
1.068499092e+00,9.88168e-01,9.99999e-01,9.99999e-01,9.92692e-01,9.95447e-01,9.99994e-01
1.073841587e+00,9.87018e-01,9.99999e-01,9.99999e-01,9.91454e-01,9.95536e-01,9.99988e-01
1.079210795e+00,9.84700e-01,9.99999e-01,9.99999e-01,9.89056e-01,9.95624e-01,9.99970e-01
1.084606849e+00,9.79194e-01,9.99999e-01,9.99999e-01,9.83480e-01,9.95711e-01,9.99929e-01
1.090029883e+00,9.72121e-01,9.99999e-01,9.99999e-01,9.76368e-01,9.95795e-01,9.99853e-01
1.095480033e+00,9.32793e-01,9.99999e-01,9.99999e-01,9.36900e-01,9.95878e-01,9.99735e-01
1.100957433e+00,8.43717e-01,9.99999e-01,9.99999e-01,8.47551e-01,9.95959e-01,9.99513e-01
1.106462220e+00,6.55635e-01,9.99999e-01,9.99999e-01,6.58784e-01,9.96039e-01,9.99175e-01
1.111994531e+00,4.15493e-01,9.99999e-01,9.99999e-01,4.18026e-01,9.96117e-01,9.97813e-01
1.117554504e+00,2.43529e-01,9.99999e-01,9.99999e-01,2.46398e-01,9.96193e-01,9.92130e-01
1.123142276e+00,3.56063e-01,9.99999e-01,9.99999e-01,3.64155e-01,9.96268e-01,9.81438e-01
1.128757988e+00,5.04336e-01,9.99999e-01,9.99999e-01,5.17278e-01,9.96342e-01,9.78558e-01
1.134401778e+00,2.64790e-01,9.99999e-01,9.99999e-01,2.70686e-01,9.96414e-01,9.81738e-01
1.140073787e+00,6.59453e-01,9.99999e-01,9.99999e-01,6.71595e-01,9.96485e-01,9.85382e-01
1.145774156e+00,4.33484e-01,9.99999e-01,9.99999e-01,4.40885e-01,9.96554e-01,9.86611e-01
1.151503026e+00,3.99129e-01,9.99999e-01,9.99999e-01,4.03499e-01,9.96622e-01,9.92519e-01
1.157260541e+00,4.59816e-01,9.99999e-01,9.99999e-01,4.62380e-01,9.96689e-01,9.97757e-01
1.163046844e+00,5.62243e-01,9.99999e-01,9.99999e-01,5.64432e-01,9.96754e-01,9.99363e-01
1.168862078e+00,6.68067e-01,9.99999e-01,9.99999e-01,6.70418e-01,9.96818e-01,9.99671e-01
1.174706389e+00,7.78483e-01,9.99999e-01,9.99999e-01,7.81258e-01,9.96881e-01,9.99565e-01
1.180579921e+00,8.57104e-01,9.99999e-01,9.99999e-01,8.60297e-01,9.96942e-01,9.99342e-01
1.186482820e+00,9.15043e-01,9.99999e-01,9.99999e-01,9.18413e-01,9.97002e-01,9.99325e-01
1.192415234e+00,9.48266e-01,9.99999e-01,9.99999e-01,9.51540e-01,9.97062e-01,9.99494e-01
1.198377311e+00,9.55791e-01,9.99999e-01,9.99999e-01,9.59009e-01,9.97119e-01,9.99522e-01
1.204369197e+00,9.58054e-01,9.99999e-01,9.99999e-01,9.61181e-01,9.97176e-01,9.99568e-01
1.210391043e+00,9.59920e-01,9.99999e-01,9.99999e-01,9.62836e-01,9.97232e-01,9.99737e-01
1.216442998e+00,9.65510e-01,9.99999e-01,9.99999e-01,9.68292e-01,9.97287e-01,9.99838e-01
1.222525213e+00,9.72537e-01,9.99999e-01,9.99999e-01,9.75227e-01,9.97340e-01,9.99899e-01
1.228637839e+00,9.80128e-01,9.99999e-01,9.99999e-01,9.82735e-01,9.97392e-01,9.99953e-01
