#,Wave/freq,Total,N2,O2,H2O,Rayleigh,CIA
4.000000000e-01,6.94276e-01,9.99999e-01,9.99999e-01,9.99958e-01,6.94305e-01,9.99999e-01
4.020000000e-01,6.99314e-01,9.99999e-01,9.99999e-01,9.99974e-01,6.99331e-01,9.99999e-01
4.040100000e-01,7.04281e-01,9.99999e-01,9.99999e-01,9.99988e-01,7.04289e-01,9.99999e-01
4.060300500e-01,7.09181e-01,9.99999e-01,9.99999e-01,9.99997e-01,7.09183e-01,9.99999e-01
4.080602003e-01,7.14012e-01,9.99999e-01,9.99999e-01,9.99998e-01,7.14013e-01,9.99999e-01
4.101005013e-01,7.18780e-01,9.99999e-01,9.99999e-01,9.99999e-01,7.18780e-01,9.99999e-01
4.121510038e-01,7.23482e-01,9.99999e-01,9.99999e-01,9.99997e-01,7.23483e-01,9.99999e-01
4.142117588e-01,7.28115e-01,9.99999e-01,9.99999e-01,9.99988e-01,7.28123e-01,9.99999e-01
4.162828176e-01,7.32664e-01,9.99999e-01,9.99999e-01,9.99948e-01,7.32701e-01,9.99999e-01
4.183642317e-01,7.37194e-01,9.99999e-01,9.99999e-01,9.99969e-01,7.37216e-01,9.99999e-01
4.204560528e-01,7.41655e-01,9.99999e-01,9.99999e-01,9.99980e-01,7.41669e-01,9.99999e-01
4.225583331e-01,7.46055e-01,9.99999e-01,9.99999e-01,9.99992e-01,7.46060e-01,9.99999e-01
4.246711247e-01,7.50385e-01,9.99999e-01,9.99999e-01,9.99993e-01,7.50390e-01,9.99999e-01
4.267944804e-01,7.54652e-01,9.99999e-01,9.99999e-01,9.99991e-01,7.54658e-01,9.99999e-01
4.289284528e-01,7.58861e-01,9.99999e-01,9.99999e-01,9.99993e-01,7.58866e-01,9.99999e-01
4.310730950e-01,7.63011e-01,9.99999e-01,9.99999e-01,9.99996e-01,7.63013e-01,9.99999e-01
4.332284605e-01,7.67100e-01,9.99999e-01,9.99999e-01,9.99998e-01,7.67100e-01,9.99999e-01
4.353946028e-01,7.71128e-01,9.99999e-01,9.99999e-01,9.99999e-01,7.71128e-01,9.99999e-01
4.375715758e-01,7.75093e-01,9.99999e-01,9.99999e-01,9.99994e-01,7.75097e-01,9.99999e-01
4.397594337e-01,7.78973e-01,9.99999e-01,9.99999e-01,9.99954e-01,7.79007e-01,9.99999e-01
4.419582309e-01,7.82682e-01,9.99999e-01,9.99999e-01,9.99771e-01,7.82860e-01,9.99999e-01
4.441680220e-01,7.86515e-01,9.99999e-01,9.99999e-01,9.99822e-01,7.86654e-01,9.99999e-01
4.463888621e-01,7.90246e-01,9.99999e-01,9.99999e-01,9.99814e-01,7.90392e-01,9.99999e-01
4.486208064e-01,7.93982e-01,9.99999e-01,9.99999e-01,9.99884e-01,7.94073e-01,9.99999e-01
4.508639105e-01,7.97655e-01,9.99999e-01,9.99999e-01,9.99945e-01,7.97698e-01,9.99999e-01
4.531182300e-01,8.01250e-01,9.99999e-01,9.99999e-01,9.99978e-01,8.01267e-01,9.99999e-01
4.553838212e-01,8.04770e-01,9.99999e-01,9.99999e-01,9.99985e-01,8.04781e-01,9.99999e-01
4.576607403e-01,8.08236e-01,9.99999e-01,9.99999e-01,9.99992e-01,8.08241e-01,9.99999e-01
4.599490440e-01,8.11643e-01,9.99999e-01,9.99999e-01,9.99994e-01,8.11647e-01,9.99999e-01
4.622487892e-01,8.14999e-01,9.99999e-01,9.99999e-01,9.99998e-01,8.15000e-01,9.99999e-01
4.645600332e-01,8.18297e-01,9.99999e-01,9.99999e-01,9.99996e-01,8.18300e-01,9.99999e-01
4.668828333e-01,8.21503e-01,9.99999e-01,9.99999e-01,9.99945e-01,8.21547e-01,9.99999e-01
4.692172475e-01,8.24648e-01,9.99999e-01,9.99999e-01,9.99883e-01,8.24743e-01,9.99999e-01
4.715633337e-01,8.27825e-01,9.99999e-01,9.99999e-01,9.99923e-01,8.27888e-01,9.99999e-01
4.739211504e-01,8.30922e-01,9.99999e-01,9.99999e-01,9.99927e-01,8.30982e-01,9.99999e-01
4.762907561e-01,8.33996e-01,9.99999e-01,9.99999e-01,9.99961e-01,8.34027e-01,9.99999e-01
4.786722099e-01,8.37009e-01,9.99999e-01,9.99999e-01,9.99984e-01,8.37022e-01,9.99999e-01
4.810655710e-01,8.39965e-01,9.99999e-01,9.99999e-01,9.99994e-01,8.39969e-01,9.99999e-01
4.834708988e-01,8.42830e-01,9.99999e-01,9.99999e-01,9.99955e-01,8.42867e-01,9.99999e-01
4.858882533e-01,8.45649e-01,9.99999e-01,9.99999e-01,9.99917e-01,8.45718e-01,9.99999e-01
4.883176946e-01,8.48464e-01,9.99999e-01,9.99999e-01,9.99930e-01,8.48522e-01,9.99999e-01
4.907592831e-01,8.51227e-01,9.99999e-01,9.99999e-01,9.99937e-01,8.51279e-01,9.99999e-01
4.932130795e-01,8.53954e-01,9.99999e-01,9.99999e-01,9.99955e-01,8.53991e-01,9.99999e-01
4.956791449e-01,8.56638e-01,9.99999e-01,9.99999e-01,9.99976e-01,8.56658e-01,9.99999e-01
4.981575406e-01,8.59180e-01,9.99999e-01,9.99999e-01,9.99883e-01,8.59280e-01,9.99999e-01
5.006483283e-01,8.61595e-01,9.99999e-01,9.99999e-01,9.99697e-01,8.61858e-01,9.99997e-01
5.031515699e-01,8.63056e-01,9.99999e-01,9.99999e-01,9.98469e-01,8.64392e-01,9.99983e-01
5.056673278e-01,8.66168e-01,9.99999e-01,9.99999e-01,9.99192e-01,8.66884e-01,9.99981e-01
5.081956644e-01,8.68438e-01,9.99999e-01,9.99999e-01,9.98981e-01,8.69333e-01,9.99987e-01
5.107366428e-01,8.71140e-01,9.99999e-01,9.99999e-01,9.99311e-01,8.71741e-01,9.99997e-01
5.132903260e-01,8.73764e-01,9.99999e-01,9.99999e-01,9.99606e-01,8.74108e-01,9.99999e-01
5.158567776e-01,8.76289e-01,9.99999e-01,9.99999e-01,9.99833e-01,8.76434e-01,9.99999e-01
5.184360615e-01,8.78662e-01,9.99999e-01,9.99999e-01,9.99933e-01,8.78720e-01,9.99999e-01
5.210282418e-01,8.80945e-01,9.99999e-01,9.99999e-01,9.99974e-01,8.80967e-01,9.99999e-01
5.236333830e-01,8.83087e-01,9.99999e-01,9.99999e-01,9.99899e-01,8.83175e-01,9.99998e-01
5.262515499e-01,8.85289e-01,9.99999e-01,9.99999e-01,9.99937e-01,8.85345e-01,9.99998e-01
5.288828077e-01,8.87426e-01,9.99999e-01,9.99999e-01,9.99942e-01,8.87477e-01,9.99998e-01
5.315272217e-01,8.89528e-01,9.99999e-01,9.99999e-01,9.99949e-01,8.89572e-01,9.99999e-01
5.341848578e-01,8.91601e-01,9.99999e-01,9.99999e-01,9.99966e-01,8.91631e-01,9.99999e-01
5.368557821e-01,8.93549e-01,9.99999e-01,9.99999e-01,9.99883e-01,8.93653e-01,9.99999e-01
5.395400610e-01,8.95261e-01,9.99999e-01,9.99999e-01,9.99580e-01,8.95640e-01,9.99996e-01
5.422377613e-01,8.97097e-01,9.99999e-01,9.99999e-01,9.99458e-01,8.97592e-01,9.99989e-01
5.449489501e-01,8.99047e-01,9.99999e-01,9.99999e-01,9.99495e-01,8.99510e-01,9.99989e-01
5.476736949e-01,9.00987e-01,9.99999e-01,9.99999e-01,9.99553e-01,9.01393e-01,9.99994e-01
5.504120634e-01,9.02950e-01,9.99999e-01,9.99999e-01,9.99675e-01,9.03244e-01,9.99998e-01
5.531641237e-01,9.04913e-01,9.99999e-01,9.99999e-01,9.99836e-01,9.05061e-01,9.99999e-01
5.559299443e-01,9.06775e-01,9.99999e-01,9.99999e-01,9.99920e-01,9.06846e-01,9.99999e-01
5.587095940e-01,9.08554e-01,9.99999e-01,9.99999e-01,9.99950e-01,9.08599e-01,9.99999e-01
5.615031420e-01,9.10271e-01,9.99999e-01,9.99999e-01,9.99944e-01,9.10321e-01,9.99999e-01
5.643106577e-01,9.11955e-01,9.99999e-01,9.99999e-01,9.99937e-01,9.12012e-01,9.99998e-01
5.671322110e-01,9.12974e-01,9.99999e-01,9.99999e-01,9.99241e-01,9.13673e-01,9.99992e-01
5.699678720e-01,9.14549e-01,9.99999e-01,9.99999e-01,9.99195e-01,9.15304e-01,9.99978e-01
5.728177114e-01,9.16121e-01,9.99999e-01,9.99999e-01,9.99161e-01,9.16905e-01,9.99982e-01
5.756818000e-01,9.17762e-01,9.99999e-01,9.99999e-01,9.99230e-01,9.18477e-01,9.99989e-01
5.785602090e-01,9.19402e-01,9.99999e-01,9.99999e-01,9.99329e-01,9.20021e-01,9.99996e-01
5.814530100e-01,9.20916e-01,9.99999e-01,9.99999e-01,9.99326e-01,9.21538e-01,9.99998e-01
5.843602750e-01,9.22281e-01,9.99999e-01,9.99999e-01,9.99196e-01,9.23026e-01,9.99995e-01
5.872820764e-01,9.18061e-01,9.99999e-01,9.99999e-01,9.93096e-01,9.24488e-01,9.99950e-01
5.902184868e-01,9.18064e-01,9.99999e-01,9.99999e-01,9.91643e-01,9.25922e-01,9.99867e-01
5.931695792e-01,9.21734e-01,9.99999e-01,9.99999e-01,9.94090e-01,9.27331e-01,9.99872e-01
5.961354271e-01,9.22632e-01,9.99999e-01,9.99999e-01,9.93523e-01,9.28714e-01,9.99926e-01
5.991161043e-01,9.25655e-01,9.99999e-01,9.99999e-01,9.95273e-01,9.30072e-01,9.99976e-01
6.021116848e-01,9.28903e-01,9.99999e-01,9.99999e-01,9.97316e-01,9.31404e-01,9.99996e-01
6.051222432e-01,9.31446e-01,9.99999e-01,9.99999e-01,9.98641e-01,9.32713e-01,9.99999e-01
6.081478544e-01,9.33450e-01,9.99999e-01,9.99999e-01,9.99413e-01,9.33997e-01,9.99999e-01
6.111885937e-01,9.35026e-01,9.99999e-01,9.99999e-01,9.99751e-01,9.35257e-01,9.99999e-01
6.142445367e-01,9.36391e-01,9.99999e-01,9.99999e-01,9.99888e-01,9.36495e-01,9.99999e-01
6.173157594e-01,9.37652e-01,9.99999e-01,9.99999e-01,9.99938e-01,9.37709e-01,9.99999e-01
6.204023382e-01,9.38853e-01,9.99999e-01,9.99999e-01,9.99947e-01,9.38901e-01,9.99999e-01
6.235043498e-01,9.39856e-01,9.99999e-01,9.99999e-01,9.99771e-01,9.40071e-01,9.99998e-01
6.266218716e-01,9.40077e-01,9.99999e-01,9.99999e-01,9.98794e-01,9.41219e-01,9.99991e-01
6.297549810e-01,9.41914e-01,9.99999e-01,9.99999e-01,9.99557e-01,9.42346e-01,9.99982e-01
6.329037559e-01,9.42615e-01,9.99999e-01,9.99999e-01,9.99125e-01,9.43452e-01,9.99985e-01
6.360682746e-01,9.43827e-01,9.99999e-01,9.99999e-01,9.99255e-01,9.44538e-01,9.99991e-01
6.392486160e-01,9.44688e-01,9.99999e-01,9.99999e-01,9.99035e-01,9.45603e-01,9.99995e-01
6.424448591e-01,9.45420e-01,9.99999e-01,9.99999e-01,9.98708e-01,9.46648e-01,9.99993e-01
6.456570834e-01,9.41971e-01,9.99999e-01,9.99999e-01,9.94014e-01,9.47674e-01,9.99966e-01
6.488853688e-01,9.44438e-01,9.99999e-01,9.99999e-01,9.95619e-01,9.48680e-01,9.99906e-01
6.521297956e-01,9.45356e-01,9.99999e-01,9.99999e-01,9.95535e-01,9.49668e-01,9.99922e-01
6.553904446e-01,9.46357e-01,9.99999e-01,9.99999e-01,9.95553e-01,9.50637e-01,9.99942e-01
6.586673968e-01,9.47947e-01,9.99999e-01,9.99999e-01,9.96192e-01,9.51588e-01,9.99980e-01
6.619607338e-01,9.50495e-01,9.99999e-01,9.99999e-01,9.97876e-01,9.52521e-01,9.99995e-01
6.652705375e-01,9.52220e-01,9.99999e-01,9.99999e-01,9.98725e-01,9.53437e-01,9.99997e-01
6.685968902e-01,9.53770e-01,9.99999e-01,9.99999e-01,9.99407e-01,9.54335e-01,9.99999e-01
6.719398746e-01,9.54955e-01,9.99999e-01,9.99999e-01,9.99725e-01,9.55217e-01,9.99999e-01
6.752995740e-01,9.55940e-01,9.99999e-01,9.99999e-01,9.99850e-01,9.56082e-01,9.99999e-01
6.786760719e-01,9.56724e-01,9.99999e-01,9.99999e-01,9.99784e-01,9.56930e-01,9.99999e-01
6.820694522e-01,9.57409e-01,9.99999e-01,9.99999e-01,9.99631e-01,9.57763e-01,9.99997e-01
6.854797995e-01,9.58121e-01,9.99999e-01,9.99999e-01,9.99525e-01,9.58579e-01,9.99995e-01
6.889071985e-01,9.58268e-01,9.99999e-01,9.99999e-01,9.98849e-01,9.59381e-01,9.99989e-01
6.923517345e-01,9.42212e-01,9.99999e-01,9.99999e-01,9.81387e-01,9.60167e-01,9.99909e-01
6.958134932e-01,9.51432e-01,9.99999e-01,9.99999e-01,9.90303e-01,9.60938e-01,9.99800e-01
6.992925606e-01,9.52640e-01,9.99999e-01,9.99999e-01,9.90761e-01,9.61695e-01,9.99820e-01
7.027890234e-01,9.51347e-01,9.99999e-01,9.99999e-01,9.88612e-01,9.62437e-01,9.99862e-01
7.063029686e-01,9.53870e-01,9.99999e-01,9.99999e-01,9.90416e-01,9.63165e-01,9.99931e-01
7.098344834e-01,9.54976e-01,9.99999e-01,9.99999e-01,9.90802e-01,9.63879e-01,9.99959e-01
7.133836558e-01,9.52690e-01,9.99999e-01,9.99999e-01,9.87751e-01,9.64580e-01,9.99919e-01
7.169505741e-01,8.73980e-01,9.99999e-01,9.99999e-01,9.05997e-01,9.65267e-01,9.99369e-01
7.205353270e-01,9.19389e-01,9.99999e-01,9.99999e-01,9.52864e-01,9.65941e-01,9.98888e-01
7.241380036e-01,9.08102e-01,9.99999e-01,9.99999e-01,9.40379e-01,9.66603e-01,9.99040e-01
7.277586936e-01,9.14353e-01,9.99999e-01,9.99999e-01,9.46052e-01,9.67252e-01,9.99215e-01
7.313974871e-01,9.12090e-01,9.99999e-01,9.99999e-01,9.42696e-01,9.67888e-01,9.99632e-01
7.350544745e-01,9.37657e-01,9.99999e-01,9.99999e-01,9.68265e-01,9.68512e-01,9.99871e-01
7.387297469e-01,9.46334e-01,9.99999e-01,9.99999e-01,9.76540e-01,9.69124e-01,9.99941e-01
7.424233956e-01,9.58519e-01,9.99999e-01,9.99999e-01,9.88455e-01,9.69725e-01,9.99988e-01
7.461355126e-01,9.63509e-01,9.99999e-01,9.99999e-01,9.92987e-01,9.70314e-01,9.99997e-01
7.498661902e-01,9.67717e-01,9.99999e-01,9.99999e-01,9.96730e-01,9.70892e-01,9.99998e-01
7.536155211e-01,9.69899e-01,9.99999e-01,9.99999e-01,9.98394e-01,9.71458e-01,9.99999e-01
7.573835987e-01,9.71211e-01,9.99999e-01,9.99999e-01,9.99173e-01,9.72014e-01,9.99999e-01
7.611705167e-01,9.72060e-01,9.99999e-01,9.99999e-01,9.99486e-01,9.72559e-01,9.99999e-01
7.649763693e-01,9.72781e-01,9.99999e-01,9.99999e-01,9.99677e-01,9.73094e-01,9.99999e-01
7.688012511e-01,9.73400e-01,9.99999e-01,9.99999e-01,9.99775e-01,9.73618e-01,9.99999e-01
7.726452574e-01,9.73953e-01,9.99999e-01,9.99999e-01,9.99815e-01,9.74132e-01,9.99999e-01
7.765084837e-01,9.74381e-01,9.99999e-01,9.99999e-01,9.99737e-01,9.74637e-01,9.99999e-01
7.803910261e-01,9.74025e-01,9.99999e-01,9.99999e-01,9.98866e-01,9.75132e-01,9.99998e-01
7.842929812e-01,9.71754e-01,9.99999e-01,9.99999e-01,9.96047e-01,9.75617e-01,9.99992e-01
7.882144461e-01,9.68110e-01,9.99999e-01,9.99999e-01,9.91876e-01,9.76093e-01,9.99943e-01
7.921555184e-01,9.72111e-01,9.99999e-01,9.99999e-01,9.95540e-01,9.76559e-01,9.99902e-01
7.961162960e-01,9.69232e-01,9.99999e-01,9.99999e-01,9.92123e-01,9.77017e-01,9.99907e-01
8.000968774e-01,9.68484e-01,9.99999e-01,9.99999e-01,9.90907e-01,9.77466e-01,9.99901e-01
8.040973618e-01,9.68937e-01,9.99999e-01,9.99999e-01,9.90905e-01,9.77906e-01,9.99921e-01
8.081178486e-01,9.58320e-01,9.99999e-01,9.99999e-01,9.79610e-01,9.78337e-01,9.99926e-01
8.121584379e-01,8.98114e-01,9.99999e-01,9.99999e-01,9.17866e-01,9.78761e-01,9.99712e-01
8.162192301e-01,8.83640e-01,9.99999e-01,9.99999e-01,9.03408e-01,9.79176e-01,9.98918e-01
8.203003262e-01,9.30350e-01,9.99999e-01,9.99999e-01,9.50943e-01,9.79583e-01,9.98734e-01
8.244018279e-01,9.12880e-01,9.99999e-01,9.99999e-01,9.32465e-01,9.79982e-01,9.98992e-01
8.285238370e-01,9.21865e-01,9.99999e-01,9.99999e-01,9.41063e-01,9.80374e-01,9.99208e-01
8.326664562e-01,9.22099e-01,9.99999e-01,9.99999e-01,9.40498e-01,9.80757e-01,9.99672e-01
8.368297885e-01,9.38941e-01,9.99999e-01,9.99999e-01,9.57067e-01,9.81134e-01,9.99924e-01
8.410139374e-01,9.56200e-01,9.99999e-01,9.99999e-01,9.74261e-01,9.81503e-01,9.99955e-01
8.452190071e-01,9.69368e-01,9.99999e-01,9.99999e-01,9.87296e-01,9.81865e-01,9.99973e-01
8.494451021e-01,9.74940e-01,9.99999e-01,9.99999e-01,9.92608e-01,9.82220e-01,9.99978e-01
8.536923276e-01,9.78257e-01,9.99999e-01,9.99999e-01,9.95624e-01,9.82568e-01,9.99986e-01
8.579607893e-01,9.80256e-01,9.99999e-01,9.99999e-01,9.97303e-01,9.82909e-01,9.99996e-01
8.622505932e-01,9.81559e-01,9.99999e-01,9.99999e-01,9.98286e-01,9.83244e-01,9.99998e-01
8.665618462e-01,9.82529e-01,9.99999e-01,9.99999e-01,9.98939e-01,9.83572e-01,9.99999e-01
8.708946554e-01,9.82699e-01,9.99999e-01,9.99999e-01,9.98785e-01,9.83894e-01,9.99998e-01
8.752491287e-01,9.82610e-01,9.99999e-01,9.99999e-01,9.98375e-01,9.84210e-01,9.99997e-01
8.796253743e-01,9.82300e-01,9.99999e-01,9.99999e-01,9.97750e-01,9.84519e-01,9.99994e-01
8.840235012e-01,9.82278e-01,9.99999e-01,9.99999e-01,9.97430e-01,9.84823e-01,9.99983e-01
8.884436187e-01,9.75871e-01,9.99999e-01,9.99999e-01,9.90654e-01,9.85120e-01,9.99955e-01
8.928858368e-01,8.92700e-01,9.99999e-01,9.99999e-01,9.06148e-01,9.85412e-01,9.99742e-01
8.973502660e-01,8.27278e-01,9.99999e-01,9.99999e-01,8.40385e-01,9.85698e-01,9.98684e-01
9.018370173e-01,9.00442e-01,9.99999e-01,9.99999e-01,9.15137e-01,9.85979e-01,9.97933e-01
9.063462024e-01,9.10341e-01,9.99999e-01,9.99999e-01,9.24707e-01,9.86254e-01,9.98184e-01
9.108779334e-01,8.71593e-01,9.99999e-01,9.99999e-01,8.85168e-01,9.86523e-01,9.98113e-01
9.154323231e-01,8.57619e-01,9.99999e-01,9.99999e-01,8.70458e-01,9.86788e-01,9.98440e-01
9.200094847e-01,8.84802e-01,9.99999e-01,9.99999e-01,8.97196e-01,9.87047e-01,9.99126e-01
9.246095321e-01,8.34480e-01,9.99999e-01,9.99999e-01,8.46064e-01,9.87301e-01,9.98993e-01
9.292325798e-01,3.32127e-01,9.99999e-01,9.99999e-01,3.37636e-01,9.87550e-01,9.96082e-01
9.338787427e-01,2.40968e-01,9.99999e-01,9.99999e-01,2.47936e-01,9.87795e-01,9.83903e-01
9.385481364e-01,5.50185e-01,9.99999e-01,9.99999e-01,5.67698e-01,9.88034e-01,9.80885e-01
9.432408771e-01,4.49932e-01,9.99999e-01,9.99999e-01,4.62916e-01,9.88269e-01,9.83487e-01
9.479570815e-01,3.39399e-01,9.99999e-01,9.99999e-01,3.48032e-01,9.88500e-01,9.86540e-01
9.526968669e-01,4.36906e-01,9.99999e-01,9.99999e-01,4.45555e-01,9.88726e-01,9.91768e-01
9.574603512e-01,4.59407e-01,9.99999e-01,9.99999e-01,4.66496e-01,9.88947e-01,9.95810e-01
9.622476530e-01,5.27233e-01,9.99999e-01,9.99999e-01,5.34558e-01,9.89164e-01,9.97100e-01
9.670588912e-01,6.86935e-01,9.99999e-01,9.99999e-01,6.95690e-01,9.89377e-01,9.98016e-01
9.718941857e-01,7.85353e-01,9.99999e-01,9.99999e-01,7.94778e-01,9.89586e-01,9.98539e-01
9.767536566e-01,8.16925e-01,9.99999e-01,9.99999e-01,8.26273e-01,9.89790e-01,9.98883e-01
9.816374249e-01,8.58865e-01,9.99999e-01,9.99999e-01,8.67883e-01,9.89991e-01,9.99613e-01
9.865456120e-01,9.06122e-01,9.99999e-01,9.99999e-01,9.15174e-01,9.90188e-01,9.99919e-01
9.914783401e-01,9.37508e-01,9.99999e-01,9.99999e-01,9.46635e-01,9.90381e-01,9.99977e-01
9.964357318e-01,9.61413e-01,9.99999e-01,9.99999e-01,9.70578e-01,9.90570e-01,9.99986e-01
1.001417910e+00,9.73160e-01,9.99999e-01,9.99999e-01,9.82260e-01,9.90755e-01,9.99979e-01
1.006425000e+00,9.80849e-01,9.99999e-01,9.99999e-01,9.89847e-01,9.90937e-01,9.99971e-01
1.011457125e+00,9.84835e-01,9.99999e-01,9.99999e-01,9.93689e-01,9.91115e-01,9.99973e-01
1.016514411e+00,9.87020e-01,9.99999e-01,9.99999e-01,9.95710e-01,9.91290e-01,9.99980e-01
1.021596983e+00,9.88053e-01,9.99999e-01,9.99999e-01,9.96580e-01,9.91461e-01,9.99980e-01
1.026704968e+00,9.88972e-01,9.99999e-01,9.99999e-01,9.97332e-01,9.91629e-01,9.99987e-01
1.031838492e+00,9.89868e-01,9.99999e-01,9.99999e-01,9.98061e-01,9.91794e-01,9.99996e-01
1.036997685e+00,9.90812e-01,9.99999e-01,9.99999e-01,9.98847e-01,9.91955e-01,9.99998e-01
1.042182673e+00,9.90750e-01,9.99999e-01,9.99999e-01,9.98625e-01,9.92113e-01,9.99999e-01
1.047393587e+00,9.90461e-01,9.99999e-01,9.99999e-01,9.98178e-01,9.92268e-01,9.99999e-01
1.052630555e+00,9.89940e-01,9.99999e-01,9.99999e-01,9.97500e-01,9.92421e-01,9.99998e-01
1.057893707e+00,9.88429e-01,9.99999e-01,9.99999e-01,9.95829e-01,9.92570e-01,9.99998e-01
1.063183176e+00,9.85909e-01,9.99999e-01,9.99999e-01,9.93146e-01,9.92716e-01,9.99995e-01
1.068499092e+00,9.81484e-01,9.99999e-01,9.99999e-01,9.88549e-01,9.92859e-01,9.99991e-01
1.073841587e+00,9.79692e-01,9.99999e-01,9.99999e-01,9.86614e-01,9.93000e-01,9.99982e-01
1.079210795e+00,9.76089e-01,9.99999e-01,9.99999e-01,9.82878e-01,9.93138e-01,9.99953e-01
1.084606849e+00,9.67536e-01,9.99999e-01,9.99999e-01,9.74196e-01,9.93273e-01,9.99888e-01
1.090029883e+00,9.56579e-01,9.99999e-01,9.99999e-01,9.63149e-01,9.93405e-01,9.99770e-01
1.095480033e+00,8.96594e-01,9.99999e-01,9.99999e-01,9.02801e-01,9.93535e-01,9.99585e-01
1.100957433e+00,7.66641e-01,9.99999e-01,9.99999e-01,7.72119e-01,9.93662e-01,9.99236e-01
1.106462220e+00,5.20676e-01,9.99999e-01,9.99999e-01,5.24609e-01,9.93787e-01,9.98705e-01
1.111994531e+00,2.60510e-01,9.99999e-01,9.99999e-01,2.63009e-01,9.93909e-01,9.96569e-01
1.117554504e+00,1.17589e-01,9.99999e-01,9.99999e-01,1.19772e-01,9.94029e-01,9.87669e-01
1.123142276e+00,2.16784e-01,9.99999e-01,9.99999e-01,2.24571e-01,9.94147e-01,9.71007e-01
1.128757988e+00,3.52951e-01,9.99999e-01,9.99999e-01,3.67278e-01,9.94262e-01,9.66536e-01
1.134401778e+00,1.66802e-01,9.99999e-01,9.99999e-01,1.72671e-01,9.94375e-01,9.71473e-01
1.140073787e+00,5.25865e-01,9.99999e-01,9.99999e-01,5.41150e-01,9.94486e-01,9.77141e-01
1.145774156e+00,2.82626e-01,9.99999e-01,9.99999e-01,2.90240e-01,9.94594e-01,9.79056e-01
1.151503026e+00,2.50855e-01,9.99999e-01,9.99999e-01,2.55182e-01,9.94701e-01,9.88277e-01
1.157260541e+00,3.02272e-01,9.99999e-01,9.99999e-01,3.04923e-01,9.94805e-01,9.96480e-01
1.163046844e+00,4.10875e-01,9.99999e-01,9.99999e-01,4.13391e-01,9.94908e-01,9.99000e-01
1.168862078e+00,5.33120e-01,9.99999e-01,9.99999e-01,5.36070e-01,9.95008e-01,9.99484e-01
1.174706389e+00,6.76468e-01,9.99999e-01,9.99999e-01,6.80258e-01,9.95106e-01,9.99317e-01
1.180579921e+00,7.85748e-01,9.99999e-01,9.99999e-01,7.90350e-01,9.95203e-01,9.98968e-01
1.186482820e+00,8.70080e-01,9.99999e-01,9.99999e-01,8.75116e-01,9.95297e-01,9.98941e-01
1.192415234e+00,9.20023e-01,9.99999e-01,9.99999e-01,9.25016e-01,9.95390e-01,9.99206e-01
1.198377311e+00,9.31493e-01,9.99999e-01,9.99999e-01,9.36422e-01,9.95481e-01,9.99250e-01
1.204369197e+00,9.35023e-01,9.99999e-01,9.99999e-01,9.39819e-01,9.95570e-01,9.99322e-01
1.210391043e+00,9.37847e-01,9.99999e-01,9.99999e-01,9.42326e-01,9.95657e-01,9.99587e-01
1.216442998e+00,9.46448e-01,9.99999e-01,9.99999e-01,9.50733e-01,9.95743e-01,9.99747e-01
1.222525213e+00,9.57242e-01,9.99999e-01,9.99999e-01,9.61404e-01,9.95826e-01,9.99842e-01
1.228637839e+00,9.68984e-01,9.99999e-01,9.99999e-01,9.73035e-01,9.95909e-01,9.99926e-01
