#,Wave/freq,Total,N2,O2,H2O,Rayleigh,CIA
4.000000000e-01,8.29890e-01,9.99999e-01,9.99999e-01,9.99978e-01,8.29908e-01,9.99999e-01
4.020000000e-01,8.32962e-01,9.99999e-01,9.99999e-01,9.99986e-01,8.32973e-01,9.99999e-01
4.040100000e-01,8.35980e-01,9.99999e-01,9.99999e-01,9.99993e-01,8.35985e-01,9.99999e-01
4.060300500e-01,8.38947e-01,9.99999e-01,9.99999e-01,9.99998e-01,8.38948e-01,9.99999e-01
4.080602003e-01,8.41863e-01,9.99999e-01,9.99999e-01,9.99999e-01,8.41863e-01,9.99999e-01
4.101005013e-01,8.44731e-01,9.99999e-01,9.99999e-01,9.99999e-01,8.44731e-01,9.99999e-01
4.121510038e-01,8.47550e-01,9.99999e-01,9.99999e-01,9.99998e-01,8.47551e-01,9.99999e-01
4.142117588e-01,8.50320e-01,9.99999e-01,9.99999e-01,9.99993e-01,8.50324e-01,9.99999e-01
4.162828176e-01,8.53030e-01,9.99999e-01,9.99999e-01,9.99973e-01,8.53052e-01,9.99999e-01
4.183642317e-01,8.55721e-01,9.99999e-01,9.99999e-01,9.99984e-01,8.55734e-01,9.99999e-01
4.204560528e-01,8.58364e-01,9.99999e-01,9.99999e-01,9.99989e-01,8.58372e-01,9.99999e-01
4.225583331e-01,8.60962e-01,9.99999e-01,9.99999e-01,9.99995e-01,8.60965e-01,9.99999e-01
4.246711247e-01,8.63512e-01,9.99999e-01,9.99999e-01,9.99996e-01,8.63515e-01,9.99999e-01
4.267944804e-01,8.66018e-01,9.99999e-01,9.99999e-01,9.99995e-01,8.66021e-01,9.99999e-01
4.289284528e-01,8.68482e-01,9.99999e-01,9.99999e-01,9.99996e-01,8.68485e-01,9.99999e-01
4.310730950e-01,8.70906e-01,9.99999e-01,9.99999e-01,9.99998e-01,8.70908e-01,9.99999e-01
4.332284605e-01,8.73288e-01,9.99999e-01,9.99999e-01,9.99999e-01,8.73288e-01,9.99999e-01
4.353946028e-01,8.75629e-01,9.99999e-01,9.99999e-01,9.99999e-01,8.75629e-01,9.99999e-01
4.375715758e-01,8.77927e-01,9.99999e-01,9.99999e-01,9.99996e-01,8.77929e-01,9.99999e-01
4.397594337e-01,8.80169e-01,9.99999e-01,9.99999e-01,9.99976e-01,8.80189e-01,9.99999e-01
4.419582309e-01,8.82309e-01,9.99999e-01,9.99999e-01,9.99883e-01,8.82411e-01,9.99999e-01
4.441680220e-01,8.84514e-01,9.99999e-01,9.99999e-01,9.99908e-01,8.84594e-01,9.99999e-01
4.463888621e-01,8.86656e-01,9.99999e-01,9.99999e-01,9.99905e-01,8.86739e-01,9.99999e-01
4.486208064e-01,8.88795e-01,9.99999e-01,9.99999e-01,9.99940e-01,8.88847e-01,9.99999e-01
4.508639105e-01,8.90894e-01,9.99999e-01,9.99999e-01,9.99972e-01,8.90918e-01,9.99999e-01
4.531182300e-01,8.92943e-01,9.99999e-01,9.99999e-01,9.99988e-01,8.92953e-01,9.99999e-01
4.553838212e-01,8.94946e-01,9.99999e-01,9.99999e-01,9.99992e-01,8.94952e-01,9.99999e-01
4.576607403e-01,8.96913e-01,9.99999e-01,9.99999e-01,9.99996e-01,8.96916e-01,9.99999e-01
4.599490440e-01,8.98844e-01,9.99999e-01,9.99999e-01,9.99997e-01,8.98846e-01,9.99999e-01
4.622487892e-01,9.00741e-01,9.99999e-01,9.99999e-01,9.99999e-01,9.00741e-01,9.99999e-01
4.645600332e-01,9.02602e-01,9.99999e-01,9.99999e-01,9.99997e-01,9.02603e-01,9.99999e-01
4.668828333e-01,9.04407e-01,9.99999e-01,9.99999e-01,9.99971e-01,9.04432e-01,9.99999e-01
4.692172475e-01,9.06174e-01,9.99999e-01,9.99999e-01,9.99940e-01,9.06228e-01,9.99999e-01
4.715633337e-01,9.07957e-01,9.99999e-01,9.99999e-01,9.99960e-01,9.07992e-01,9.99999e-01
4.739211504e-01,9.09691e-01,9.99999e-01,9.99999e-01,9.99962e-01,9.09725e-01,9.99999e-01
4.762907561e-01,9.11409e-01,9.99999e-01,9.99999e-01,9.99980e-01,9.11427e-01,9.99999e-01
4.786722099e-01,9.13091e-01,9.99999e-01,9.99999e-01,9.99991e-01,9.13098e-01,9.99999e-01
4.810655710e-01,9.14737e-01,9.99999e-01,9.99999e-01,9.99997e-01,9.14739e-01,9.99999e-01
4.834708988e-01,9.16330e-01,9.99999e-01,9.99999e-01,9.99977e-01,9.16351e-01,9.99999e-01
4.858882533e-01,9.17895e-01,9.99999e-01,9.99999e-01,9.99957e-01,9.17933e-01,9.99999e-01
4.883176946e-01,9.19455e-01,9.99999e-01,9.99999e-01,9.99964e-01,9.19487e-01,9.99999e-01
4.907592831e-01,9.20984e-01,9.99999e-01,9.99999e-01,9.99967e-01,9.21013e-01,9.99999e-01
4.932130795e-01,9.22490e-01,9.99999e-01,9.99999e-01,9.99977e-01,9.22511e-01,9.99999e-01
4.956791449e-01,9.23971e-01,9.99999e-01,9.99999e-01,9.99987e-01,9.23982e-01,9.99999e-01
4.981575406e-01,9.25371e-01,9.99999e-01,9.99999e-01,9.99940e-01,9.25426e-01,9.99999e-01
5.006483283e-01,9.26700e-01,9.99999e-01,9.99999e-01,9.99845e-01,9.26844e-01,9.99998e-01
5.031515699e-01,9.27502e-01,9.99999e-01,9.99999e-01,9.99217e-01,9.28235e-01,9.99991e-01
5.056673278e-01,9.29209e-01,9.99999e-01,9.99999e-01,9.99586e-01,9.29602e-01,9.99990e-01
5.081956644e-01,9.30453e-01,9.99999e-01,9.99999e-01,9.99478e-01,9.30943e-01,9.99993e-01
5.107366428e-01,9.31931e-01,9.99999e-01,9.99999e-01,9.99647e-01,9.32260e-01,9.99998e-01
5.132903260e-01,9.33365e-01,9.99999e-01,9.99999e-01,9.99798e-01,9.33552e-01,9.99999e-01
5.158567776e-01,9.34742e-01,9.99999e-01,9.99999e-01,9.99914e-01,9.34821e-01,9.99999e-01
5.184360615e-01,9.36035e-01,9.99999e-01,9.99999e-01,9.99965e-01,9.36067e-01,9.99999e-01
5.210282418e-01,9.37277e-01,9.99999e-01,9.99999e-01,9.99986e-01,9.37289e-01,9.99999e-01
5.236333830e-01,9.38441e-01,9.99999e-01,9.99999e-01,9.99948e-01,9.38489e-01,9.99999e-01
5.262515499e-01,9.39636e-01,9.99999e-01,9.99999e-01,9.99967e-01,9.39666e-01,9.99999e-01
5.288828077e-01,9.40794e-01,9.99999e-01,9.99999e-01,9.99970e-01,9.40822e-01,9.99999e-01
5.315272217e-01,9.41932e-01,9.99999e-01,9.99999e-01,9.99973e-01,9.41956e-01,9.99999e-01
5.341848578e-01,9.43054e-01,9.99999e-01,9.99999e-01,9.99982e-01,9.43069e-01,9.99999e-01
5.368557821e-01,9.44106e-01,9.99999e-01,9.99999e-01,9.99940e-01,9.44162e-01,9.99999e-01
5.395400610e-01,9.45031e-01,9.99999e-01,9.99999e-01,9.99786e-01,9.45234e-01,9.99997e-01
5.422377613e-01,9.46019e-01,9.99999e-01,9.99999e-01,9.99722e-01,9.46286e-01,9.99994e-01
5.449489501e-01,9.47070e-01,9.99999e-01,9.99999e-01,9.99742e-01,9.47319e-01,9.99994e-01
5.476736949e-01,9.48113e-01,9.99999e-01,9.99999e-01,9.99771e-01,9.48332e-01,9.99996e-01
5.504120634e-01,9.49168e-01,9.99999e-01,9.99999e-01,9.99833e-01,9.49326e-01,9.99998e-01
5.531641237e-01,9.50223e-01,9.99999e-01,9.99999e-01,9.99916e-01,9.50302e-01,9.99999e-01
5.559299443e-01,9.51221e-01,9.99999e-01,9.99999e-01,9.99959e-01,9.51259e-01,9.99999e-01
5.587095940e-01,9.52175e-01,9.99999e-01,9.99999e-01,9.99974e-01,9.52199e-01,9.99999e-01
5.615031420e-01,9.53093e-01,9.99999e-01,9.99999e-01,9.99971e-01,9.53120e-01,9.99999e-01
5.643106577e-01,9.53994e-01,9.99999e-01,9.99999e-01,9.99967e-01,9.54025e-01,9.99999e-01
5.671322110e-01,9.54541e-01,9.99999e-01,9.99999e-01,9.99614e-01,9.54912e-01,9.99996e-01
5.699678720e-01,9.55378e-01,9.99999e-01,9.99999e-01,9.99587e-01,9.55782e-01,9.99988e-01
5.728177114e-01,9.56219e-01,9.99999e-01,9.99999e-01,9.99571e-01,9.56637e-01,9.99990e-01
5.756818000e-01,9.57093e-01,9.99999e-01,9.99999e-01,9.99606e-01,9.57475e-01,9.99994e-01
5.785602090e-01,9.57967e-01,9.99999e-01,9.99999e-01,9.99656e-01,9.58297e-01,9.99997e-01
5.814530100e-01,9.58773e-01,9.99999e-01,9.99999e-01,9.99655e-01,9.59104e-01,9.99998e-01
5.843602750e-01,9.59500e-01,9.99999e-01,9.99999e-01,9.99590e-01,9.59895e-01,9.99997e-01
5.872820764e-01,9.57259e-01,9.99999e-01,9.99999e-01,9.96472e-01,9.60671e-01,9.99974e-01
5.902184868e-01,9.57250e-01,9.99999e-01,9.99999e-01,9.95716e-01,9.61433e-01,9.99931e-01
5.931695792e-01,9.59208e-01,9.99999e-01,9.99999e-01,9.96975e-01,9.62180e-01,9.99934e-01
5.961354271e-01,9.59683e-01,9.99999e-01,9.99999e-01,9.96682e-01,9.62913e-01,9.99962e-01
5.991161043e-01,9.61289e-01,9.99999e-01,9.99999e-01,9.97579e-01,9.63632e-01,9.99987e-01
6.021116848e-01,9.63011e-01,9.99999e-01,9.99999e-01,9.98625e-01,9.64337e-01,9.99998e-01
6.051222432e-01,9.64358e-01,9.99999e-01,9.99999e-01,9.99304e-01,9.65029e-01,9.99999e-01
6.081478544e-01,9.65419e-01,9.99999e-01,9.99999e-01,9.99699e-01,9.65708e-01,9.99999e-01
6.111885937e-01,9.66251e-01,9.99999e-01,9.99999e-01,9.99872e-01,9.66374e-01,9.99999e-01
6.142445367e-01,9.66972e-01,9.99999e-01,9.99999e-01,9.99942e-01,9.67027e-01,9.99999e-01
6.173157594e-01,9.67638e-01,9.99999e-01,9.99999e-01,9.99968e-01,9.67668e-01,9.99999e-01
6.204023382e-01,9.68271e-01,9.99999e-01,9.99999e-01,9.99973e-01,9.68296e-01,9.99999e-01
6.235043498e-01,9.68800e-01,9.99999e-01,9.99999e-01,9.99883e-01,9.68912e-01,9.99999e-01
6.266218716e-01,9.68916e-01,9.99999e-01,9.99999e-01,9.99383e-01,9.69517e-01,9.99995e-01
6.297549810e-01,9.69883e-01,9.99999e-01,9.99999e-01,9.99773e-01,9.70110e-01,9.99990e-01
6.329037559e-01,9.70251e-01,9.99999e-01,9.99999e-01,9.99552e-01,9.70692e-01,9.99992e-01
6.360682746e-01,9.70889e-01,9.99999e-01,9.99999e-01,9.99619e-01,9.71262e-01,9.99995e-01
6.392486160e-01,9.71341e-01,9.99999e-01,9.99999e-01,9.99506e-01,9.71822e-01,9.99997e-01
6.424448591e-01,9.71728e-01,9.99999e-01,9.99999e-01,9.99341e-01,9.72371e-01,9.99996e-01
6.456570834e-01,9.69921e-01,9.99999e-01,9.99999e-01,9.96945e-01,9.72909e-01,9.99982e-01
6.488853688e-01,9.71206e-01,9.99999e-01,9.99999e-01,9.97755e-01,9.73437e-01,9.99952e-01
6.521297956e-01,9.71688e-01,9.99999e-01,9.99999e-01,9.97711e-01,9.73955e-01,9.99959e-01
6.553904446e-01,9.72218e-01,9.99999e-01,9.99999e-01,9.97726e-01,9.74462e-01,9.99969e-01
6.586673968e-01,9.73050e-01,9.99999e-01,9.99999e-01,9.98049e-01,9.74960e-01,9.99989e-01
6.619607338e-01,9.74347e-01,9.99999e-01,9.99999e-01,9.98872e-01,9.75449e-01,9.99997e-01
6.652705375e-01,9.75290e-01,9.99999e-01,9.99999e-01,9.99346e-01,9.75928e-01,9.99998e-01
6.685968902e-01,9.76101e-01,9.99999e-01,9.99999e-01,9.99696e-01,9.76398e-01,9.99999e-01
6.719398746e-01,9.76721e-01,9.99999e-01,9.99999e-01,9.99858e-01,9.76858e-01,9.99999e-01
6.752995740e-01,9.77236e-01,9.99999e-01,9.99999e-01,9.99923e-01,9.77310e-01,9.99999e-01
6.786760719e-01,9.77646e-01,9.99999e-01,9.99999e-01,9.99889e-01,9.77753e-01,9.99999e-01
6.820694522e-01,9.78003e-01,9.99999e-01,9.99999e-01,9.99811e-01,9.78188e-01,9.99998e-01
6.854797995e-01,9.78375e-01,9.99999e-01,9.99999e-01,9.99757e-01,9.78614e-01,9.99997e-01
6.889071985e-01,9.78455e-01,9.99999e-01,9.99999e-01,9.99415e-01,9.79032e-01,9.99994e-01
6.923517345e-01,9.70053e-01,9.99999e-01,9.99999e-01,9.90458e-01,9.79442e-01,9.99953e-01
6.958134932e-01,9.74844e-01,9.99999e-01,9.99999e-01,9.94999e-01,9.79844e-01,9.99895e-01
6.992925606e-01,9.75520e-01,9.99999e-01,9.99999e-01,9.95276e-01,9.80238e-01,9.99908e-01
7.027890234e-01,9.74827e-01,9.99999e-01,9.99999e-01,9.94157e-01,9.80625e-01,9.99929e-01
7.063029686e-01,9.76151e-01,9.99999e-01,9.99999e-01,9.95087e-01,9.81004e-01,9.99964e-01
7.098344834e-01,9.76730e-01,9.99999e-01,9.99999e-01,9.95286e-01,9.81375e-01,9.99978e-01
7.133836558e-01,9.75558e-01,9.99999e-01,9.99999e-01,9.93743e-01,9.81740e-01,9.99958e-01
7.169505741e-01,9.33263e-01,9.99999e-01,9.99999e-01,9.50581e-01,9.82097e-01,9.99677e-01
7.205353270e-01,9.57732e-01,9.99999e-01,9.99999e-01,9.75395e-01,9.82448e-01,9.99431e-01
7.241380036e-01,9.51844e-01,9.99999e-01,9.99999e-01,9.68985e-01,9.82791e-01,9.99509e-01
7.277586936e-01,9.55182e-01,9.99999e-01,9.99999e-01,9.71963e-01,9.83128e-01,9.99598e-01
7.313974871e-01,9.53940e-01,9.99999e-01,9.99999e-01,9.70166e-01,9.83459e-01,9.99811e-01
7.350544745e-01,9.67597e-01,9.99999e-01,9.99999e-01,9.83610e-01,9.83783e-01,9.99934e-01
7.387297469e-01,9.72180e-01,9.99999e-01,9.99999e-01,9.87915e-01,9.84101e-01,9.99969e-01
7.424233956e-01,9.78568e-01,9.99999e-01,9.99999e-01,9.94068e-01,9.84412e-01,9.99993e-01
7.461355126e-01,9.81176e-01,9.99999e-01,9.99999e-01,9.96403e-01,9.84718e-01,9.99998e-01
7.498661902e-01,9.83366e-01,9.99999e-01,9.99999e-01,9.98323e-01,9.85017e-01,9.99999e-01
7.536155211e-01,9.84501e-01,9.99999e-01,9.99999e-01,9.99177e-01,9.85311e-01,9.99999e-01
7.573835987e-01,9.85182e-01,9.99999e-01,9.99999e-01,9.99576e-01,9.85599e-01,9.99999e-01
7.611705167e-01,9.85622e-01,9.99999e-01,9.99999e-01,9.99736e-01,9.85881e-01,9.99999e-01
7.649763693e-01,9.85996e-01,9.99999e-01,9.99999e-01,9.99834e-01,9.86158e-01,9.99999e-01
7.688012511e-01,9.86317e-01,9.99999e-01,9.99999e-01,9.99884e-01,9.86430e-01,9.99999e-01
7.726452574e-01,9.86603e-01,9.99999e-01,9.99999e-01,9.99905e-01,9.86696e-01,9.99999e-01
7.765084837e-01,9.86825e-01,9.99999e-01,9.99999e-01,9.99865e-01,9.86957e-01,9.99999e-01
7.803910261e-01,9.86643e-01,9.99999e-01,9.99999e-01,9.99422e-01,9.87213e-01,9.99998e-01
7.842929812e-01,9.85470e-01,9.99999e-01,9.99999e-01,9.97983e-01,9.87464e-01,9.99995e-01
7.882144461e-01,9.83576e-01,9.99999e-01,9.99999e-01,9.95839e-01,9.87710e-01,9.99974e-01
7.921555184e-01,9.85644e-01,9.99999e-01,9.99999e-01,9.97713e-01,9.87951e-01,9.99950e-01
7.961162960e-01,9.84164e-01,9.99999e-01,9.99999e-01,9.95974e-01,9.88188e-01,9.99952e-01
8.000968774e-01,9.83768e-01,9.99999e-01,9.99999e-01,9.95343e-01,9.88420e-01,9.99949e-01
8.040973618e-01,9.84005e-01,9.99999e-01,9.99999e-01,9.95343e-01,9.88647e-01,9.99959e-01
8.081178486e-01,9.78497e-01,9.99999e-01,9.99999e-01,9.89546e-01,9.88870e-01,9.99962e-01
8.121584379e-01,9.46483e-01,9.99999e-01,9.99999e-01,9.57063e-01,9.89089e-01,9.99852e-01
8.162192301e-01,9.38403e-01,9.99999e-01,9.99999e-01,9.49073e-01,9.89303e-01,9.99447e-01
8.203003262e-01,9.63571e-01,9.99999e-01,9.99999e-01,9.74412e-01,9.89513e-01,9.99352e-01
8.244018279e-01,9.53739e-01,9.99999e-01,9.99999e-01,9.64141e-01,9.89720e-01,9.99484e-01
8.285238370e-01,9.59210e-01,9.99999e-01,9.99999e-01,9.69367e-01,9.89922e-01,9.99595e-01
8.326664562e-01,9.59264e-01,9.99999e-01,9.99999e-01,9.68998e-01,9.90120e-01,9.99832e-01
8.368297885e-01,9.68254e-01,9.99999e-01,9.99999e-01,9.77761e-01,9.90314e-01,9.99961e-01
8.410139374e-01,9.77340e-01,9.99999e-01,9.99999e-01,9.86731e-01,9.90504e-01,9.99977e-01
8.452190071e-01,9.84212e-01,9.99999e-01,9.99999e-01,9.93472e-01,9.90691e-01,9.99986e-01
8.494451021e-01,9.87112e-01,9.99999e-01,9.99999e-01,9.96213e-01,9.90874e-01,9.99988e-01
8.536923276e-01,9.88825e-01,9.99999e-01,9.99999e-01,9.97757e-01,9.91053e-01,9.99993e-01
8.579607893e-01,9.89860e-01,9.99999e-01,9.99999e-01,9.98619e-01,9.91229e-01,9.99997e-01
8.622505932e-01,9.90532e-01,9.99999e-01,9.99999e-01,9.99122e-01,9.91402e-01,9.99999e-01
8.665618462e-01,9.91033e-01,9.99999e-01,9.99999e-01,9.99457e-01,9.91571e-01,9.99999e-01
8.708946554e-01,9.91121e-01,9.99999e-01,9.99999e-01,9.99379e-01,9.91737e-01,9.99999e-01
8.752491287e-01,9.91075e-01,9.99999e-01,9.99999e-01,9.99169e-01,9.91899e-01,9.99998e-01
8.796253743e-01,9.90917e-01,9.99999e-01,9.99999e-01,9.98851e-01,9.92058e-01,9.99996e-01
8.840235012e-01,9.90905e-01,9.99999e-01,9.99999e-01,9.98687e-01,9.92215e-01,9.99991e-01
8.884436187e-01,9.87622e-01,9.99999e-01,9.99999e-01,9.95239e-01,9.92368e-01,9.99976e-01
8.928858368e-01,9.43480e-01,9.99999e-01,9.99999e-01,9.50716e-01,9.92518e-01,9.99868e-01
8.973502660e-01,9.06891e-01,9.99999e-01,9.99999e-01,9.14205e-01,9.92665e-01,9.99327e-01
9.018370173e-01,9.47285e-01,9.99999e-01,9.99999e-01,9.55154e-01,9.92810e-01,9.98942e-01
9.063462024e-01,9.52956e-01,9.99999e-01,9.99999e-01,9.60612e-01,9.92951e-01,9.99071e-01
9.108779334e-01,9.31771e-01,9.99999e-01,9.99999e-01,9.39159e-01,9.93090e-01,9.99035e-01
9.154323231e-01,9.24101e-01,9.99999e-01,9.99999e-01,9.31146e-01,9.93226e-01,9.99202e-01
9.200094847e-01,9.38920e-01,9.99999e-01,9.99999e-01,9.45618e-01,9.93359e-01,9.99553e-01
9.246095321e-01,9.10271e-01,9.99999e-01,9.99999e-01,9.16706e-01,9.93490e-01,9.99485e-01
9.292325798e-01,5.54214e-01,9.99999e-01,9.99999e-01,5.58893e-01,9.93618e-01,9.97995e-01
9.338787427e-01,4.64662e-01,9.99999e-01,9.99999e-01,4.71480e-01,9.93744e-01,9.91741e-01
9.385481364e-01,7.26412e-01,9.99999e-01,9.99999e-01,7.38138e-01,9.93867e-01,9.90185e-01
9.432408771e-01,6.47534e-01,9.99999e-01,9.99999e-01,6.57016e-01,9.93988e-01,9.91527e-01
9.479570815e-01,5.54032e-01,9.99999e-01,9.99999e-01,5.61189e-01,9.94106e-01,9.93098e-01
9.526968669e-01,6.40430e-01,9.99999e-01,9.99999e-01,6.46878e-01,9.94222e-01,9.95784e-01
9.574603512e-01,6.63760e-01,9.99999e-01,9.99999e-01,6.68974e-01,9.94336e-01,9.97856e-01
9.622476530e-01,7.15462e-01,9.99999e-01,9.99999e-01,7.20525e-01,9.94447e-01,9.98517e-01
9.670588912e-01,8.22520e-01,9.99999e-01,9.99999e-01,8.27860e-01,9.94557e-01,9.98985e-01
9.718941857e-01,8.83154e-01,9.99999e-01,9.99999e-01,8.88554e-01,9.94664e-01,9.99252e-01
9.767536566e-01,9.01325e-01,9.99999e-01,9.99999e-01,9.06581e-01,9.94769e-01,9.99428e-01
9.816374249e-01,9.24901e-01,9.99999e-01,9.99999e-01,9.29851e-01,9.94872e-01,9.99802e-01
9.865456120e-01,9.50736e-01,9.99999e-01,9.99999e-01,9.55578e-01,9.94973e-01,9.99958e-01
9.914783401e-01,9.67513e-01,9.99999e-01,9.99999e-01,9.72314e-01,9.95072e-01,9.99988e-01
9.964357318e-01,9.80065e-01,9.99999e-01,9.99999e-01,9.84828e-01,9.95169e-01,9.99992e-01
1.001417910e+00,9.86179e-01,9.99999e-01,9.99999e-01,9.90880e-01,9.95264e-01,9.99989e-01
1.006425000e+00,9.90164e-01,9.99999e-01,9.99999e-01,9.94795e-01,9.95358e-01,9.99984e-01
1.011457125e+00,9.92216e-01,9.99999e-01,9.99999e-01,9.96764e-01,9.95449e-01,9.99986e-01
1.016514411e+00,9.93343e-01,9.99999e-01,9.99999e-01,9.97803e-01,9.95539e-01,9.99990e-01
1.021596983e+00,9.93875e-01,9.99999e-01,9.99999e-01,9.98249e-01,9.95627e-01,9.99989e-01
1.026704968e+00,9.94348e-01,9.99999e-01,9.99999e-01,9.98635e-01,9.95713e-01,9.99993e-01
1.031838492e+00,9.94808e-01,9.99999e-01,9.99999e-01,9.99007e-01,9.95797e-01,9.99997e-01
1.036997685e+00,9.95293e-01,9.99999e-01,9.99999e-01,9.99410e-01,9.95880e-01,9.99999e-01
1.042182673e+00,9.95263e-01,9.99999e-01,9.99999e-01,9.99297e-01,9.95961e-01,9.99999e-01
1.047393587e+00,9.95114e-01,9.99999e-01,9.99999e-01,9.99068e-01,9.96041e-01,9.99999e-01
1.052630555e+00,9.94847e-01,9.99999e-01,9.99999e-01,9.98722e-01,9.96119e-01,9.99999e-01
1.057893707e+00,9.94073e-01,9.99999e-01,9.99999e-01,9.97869e-01,9.96196e-01,9.99998e-01
1.063183176e+00,9.92776e-01,9.99999e-01,9.99999e-01,9.96493e-01,9.96271e-01,9.99997e-01
1.068499092e+00,9.90494e-01,9.99999e-01,9.99999e-01,9.94131e-01,9.96344e-01,9.99995e-01
1.073841587e+00,9.89571e-01,9.99999e-01,9.99999e-01,9.93138e-01,9.96416e-01,9.99990e-01
1.079210795e+00,9.87701e-01,9.99999e-01,9.99999e-01,9.91206e-01,9.96487e-01,9.99976e-01
1.084606849e+00,9.83268e-01,9.99999e-01,9.99999e-01,9.86721e-01,9.96556e-01,9.99943e-01
1.090029883e+00,9.77579e-01,9.99999e-01,9.99999e-01,9.81005e-01,9.96624e-01,9.99882e-01
1.095480033e+00,9.45712e-01,9.99999e-01,9.99999e-01,9.49052e-01,9.96690e-01,9.99787e-01
1.100957433e+00,8.72417e-01,9.99999e-01,9.99999e-01,8.75597e-01,9.96756e-01,9.99609e-01
1.106462220e+00,7.11502e-01,9.99999e-01,9.99999e-01,7.14244e-01,9.96820e-01,9.99338e-01
1.111994531e+00,4.90977e-01,9.99999e-01,9.99999e-01,4.93378e-01,9.96882e-01,9.98245e-01
1.117554504e+00,3.17020e-01,9.99999e-01,9.99999e-01,3.20014e-01,9.96944e-01,9.93679e-01
1.123142276e+00,4.27922e-01,9.99999e-01,9.99999e-01,4.35709e-01,9.97004e-01,9.85077e-01
1.128757988e+00,5.73210e-01,9.99999e-01,9.99999e-01,5.84985e-01,9.97063e-01,9.82757e-01
1.134401778e+00,3.20097e-01,9.99999e-01,9.99999e-01,3.25803e-01,9.97121e-01,9.85319e-01
1.140073787e+00,7.14439e-01,9.99999e-01,9.99999e-01,7.24977e-01,9.97178e-01,9.88252e-01
1.145774156e+00,5.06266e-01,9.99999e-01,9.99999e-01,5.13190e-01,9.97234e-01,9.89241e-01
1.151503026e+00,4.72460e-01,9.99999e-01,9.99999e-01,4.76608e-01,9.97288e-01,9.93992e-01
1.157260541e+00,5.33556e-01,9.99999e-01,9.99999e-01,5.35942e-01,9.97342e-01,9.98199e-01
1.163046844e+00,6.28110e-01,9.99999e-01,9.99999e-01,6.30072e-01,9.97394e-01,9.99489e-01
1.168862078e+00,7.22829e-01,9.99999e-01,9.99999e-01,7.24870e-01,9.97445e-01,9.99736e-01
1.174706389e+00,8.17560e-01,9.99999e-01,9.99999e-01,8.19897e-01,9.97496e-01,9.99650e-01
1.180579921e+00,8.83410e-01,9.99999e-01,9.99999e-01,8.86050e-01,9.97545e-01,9.99472e-01
1.186482820e+00,9.31174e-01,9.99999e-01,9.99999e-01,9.33924e-01,9.97594e-01,9.99458e-01
1.192415234e+00,9.58252e-01,9.99999e-01,9.99999e-01,9.60906e-01,9.97641e-01,9.99594e-01
1.198377311e+00,9.64361e-01,9.99999e-01,9.99999e-01,9.66966e-01,9.97688e-01,9.99616e-01
1.204369197e+00,9.66177e-01,9.99999e-01,9.99999e-01,9.68707e-01,9.97733e-01,9.99653e-01
1.210391043e+00,9.67693e-01,9.99999e-01,9.99999e-01,9.70052e-01,9.97778e-01,9.99788e-01
1.216442998e+00,9.72205e-01,9.99999e-01,9.99999e-01,9.74452e-01,9.97822e-01,9.99870e-01
1.222525213e+00,9.77891e-01,9.99999e-01,9.99999e-01,9.80061e-01,9.97865e-01,9.99919e-01
1.228637839e+00,9.84017e-01,9.99999e-01,9.99999e-01,9.86117e-01,9.97907e-01,9.99962e-01
