#,Wave/freq,Total,N2,O2,H2O,Rayleigh,CIA
4.000000000e-01,8.82873e-01,9.99999e-01,9.99999e-01,9.99985e-01,8.82886e-01,9.99999e-01
4.020000000e-01,8.85055e-01,9.99999e-01,9.99999e-01,9.99990e-01,8.85063e-01,9.99999e-01
4.040100000e-01,8.87196e-01,9.99999e-01,9.99999e-01,9.99995e-01,8.87200e-01,9.99999e-01
4.060300500e-01,8.89299e-01,9.99999e-01,9.99999e-01,9.99998e-01,8.89300e-01,9.99999e-01
4.080602003e-01,8.91363e-01,9.99999e-01,9.99999e-01,9.99999e-01,8.91363e-01,9.99999e-01
4.101005013e-01,8.93390e-01,9.99999e-01,9.99999e-01,9.99999e-01,8.93390e-01,9.99999e-01
4.121510038e-01,8.95381e-01,9.99999e-01,9.99999e-01,9.99998e-01,8.95382e-01,9.99999e-01
4.142117588e-01,8.97335e-01,9.99999e-01,9.99999e-01,9.99995e-01,8.97338e-01,9.99999e-01
4.162828176e-01,8.99244e-01,9.99999e-01,9.99999e-01,9.99982e-01,8.99260e-01,9.99999e-01
4.183642317e-01,9.01139e-01,9.99999e-01,9.99999e-01,9.99989e-01,9.01148e-01,9.99999e-01
4.204560528e-01,9.02997e-01,9.99999e-01,9.99999e-01,9.99993e-01,9.03003e-01,9.99999e-01
4.225583331e-01,9.04822e-01,9.99999e-01,9.99999e-01,9.99997e-01,9.04824e-01,9.99999e-01
4.246711247e-01,9.06612e-01,9.99999e-01,9.99999e-01,9.99997e-01,9.06614e-01,9.99999e-01
4.267944804e-01,9.08368e-01,9.99999e-01,9.99999e-01,9.99996e-01,9.08371e-01,9.99999e-01
4.289284528e-01,9.10095e-01,9.99999e-01,9.99999e-01,9.99997e-01,9.10097e-01,9.99999e-01
4.310730950e-01,9.11791e-01,9.99999e-01,9.99999e-01,9.99998e-01,9.11792e-01,9.99999e-01
4.332284605e-01,9.13456e-01,9.99999e-01,9.99999e-01,9.99999e-01,9.13457e-01,9.99999e-01
4.353946028e-01,9.15091e-01,9.99999e-01,9.99999e-01,9.99999e-01,9.15091e-01,9.99999e-01
4.375715758e-01,9.16695e-01,9.99999e-01,9.99999e-01,9.99997e-01,9.16697e-01,9.99999e-01
4.397594337e-01,9.18259e-01,9.99999e-01,9.99999e-01,9.99984e-01,9.18273e-01,9.99999e-01
4.419582309e-01,9.19750e-01,9.99999e-01,9.99999e-01,9.99922e-01,9.19821e-01,9.99999e-01
4.441680220e-01,9.21284e-01,9.99999e-01,9.99999e-01,9.99938e-01,9.21340e-01,9.99999e-01
4.463888621e-01,9.22774e-01,9.99999e-01,9.99999e-01,9.99936e-01,9.22832e-01,9.99999e-01
4.486208064e-01,9.24261e-01,9.99999e-01,9.99999e-01,9.99960e-01,9.24297e-01,9.99999e-01
4.508639105e-01,9.25719e-01,9.99999e-01,9.99999e-01,9.99981e-01,9.25736e-01,9.99999e-01
4.531182300e-01,9.27141e-01,9.99999e-01,9.99999e-01,9.99992e-01,9.27148e-01,9.99999e-01
4.553838212e-01,9.28530e-01,9.99999e-01,9.99999e-01,9.99994e-01,9.28534e-01,9.99999e-01
4.576607403e-01,9.29893e-01,9.99999e-01,9.99999e-01,9.99997e-01,9.29895e-01,9.99999e-01
4.599490440e-01,9.31230e-01,9.99999e-01,9.99999e-01,9.99997e-01,9.31231e-01,9.99999e-01
4.622487892e-01,9.32542e-01,9.99999e-01,9.99999e-01,9.99999e-01,9.32542e-01,9.99999e-01
4.645600332e-01,9.33829e-01,9.99999e-01,9.99999e-01,9.99998e-01,9.33830e-01,9.99999e-01
4.668828333e-01,9.35076e-01,9.99999e-01,9.99999e-01,9.99981e-01,9.35093e-01,9.99999e-01
4.692172475e-01,9.36297e-01,9.99999e-01,9.99999e-01,9.99959e-01,9.36334e-01,9.99999e-01
4.715633337e-01,9.37527e-01,9.99999e-01,9.99999e-01,9.99973e-01,9.37551e-01,9.99999e-01
4.739211504e-01,9.38723e-01,9.99999e-01,9.99999e-01,9.99974e-01,9.38746e-01,9.99999e-01
4.762907561e-01,9.39907e-01,9.99999e-01,9.99999e-01,9.99986e-01,9.39919e-01,9.99999e-01
4.786722099e-01,9.41065e-01,9.99999e-01,9.99999e-01,9.99994e-01,9.41070e-01,9.99999e-01
4.810655710e-01,9.42198e-01,9.99999e-01,9.99999e-01,9.99997e-01,9.42200e-01,9.99999e-01
4.834708988e-01,9.43294e-01,9.99999e-01,9.99999e-01,9.99984e-01,9.43308e-01,9.99999e-01
4.858882533e-01,9.44370e-01,9.99999e-01,9.99999e-01,9.99971e-01,9.44396e-01,9.99999e-01
4.883176946e-01,9.45442e-01,9.99999e-01,9.99999e-01,9.99976e-01,9.45464e-01,9.99999e-01
4.907592831e-01,9.46492e-01,9.99999e-01,9.99999e-01,9.99978e-01,9.46512e-01,9.99999e-01
4.932130795e-01,9.47526e-01,9.99999e-01,9.99999e-01,9.99984e-01,9.47540e-01,9.99999e-01
4.956791449e-01,9.48542e-01,9.99999e-01,9.99999e-01,9.99991e-01,9.48549e-01,9.99999e-01
4.981575406e-01,9.49502e-01,9.99999e-01,9.99999e-01,9.99959e-01,9.49540e-01,9.99999e-01
5.006483283e-01,9.50413e-01,9.99999e-01,9.99999e-01,9.99896e-01,9.50511e-01,9.99998e-01
5.031515699e-01,9.50963e-01,9.99999e-01,9.99999e-01,9.99477e-01,9.51465e-01,9.99994e-01
5.056673278e-01,9.52131e-01,9.99999e-01,9.99999e-01,9.99723e-01,9.52400e-01,9.99993e-01
5.081956644e-01,9.52982e-01,9.99999e-01,9.99999e-01,9.99651e-01,9.53318e-01,9.99995e-01
5.107366428e-01,9.53993e-01,9.99999e-01,9.99999e-01,9.99764e-01,9.54219e-01,9.99998e-01
5.132903260e-01,9.54974e-01,9.99999e-01,9.99999e-01,9.99865e-01,9.55102e-01,9.99999e-01
5.158567776e-01,9.55915e-01,9.99999e-01,9.99999e-01,9.99942e-01,9.55969e-01,9.99999e-01
5.184360615e-01,9.56798e-01,9.99999e-01,9.99999e-01,9.99976e-01,9.56820e-01,9.99999e-01
5.210282418e-01,9.57646e-01,9.99999e-01,9.99999e-01,9.99991e-01,9.57654e-01,9.99999e-01
5.236333830e-01,9.58440e-01,9.99999e-01,9.99999e-01,9.99965e-01,9.58473e-01,9.99999e-01
5.262515499e-01,9.59256e-01,9.99999e-01,9.99999e-01,9.99978e-01,9.59277e-01,9.99999e-01
5.288828077e-01,9.60046e-01,9.99999e-01,9.99999e-01,9.99980e-01,9.60065e-01,9.99999e-01
5.315272217e-01,9.60821e-01,9.99999e-01,9.99999e-01,9.99982e-01,9.60838e-01,9.99999e-01
5.341848578e-01,9.61585e-01,9.99999e-01,9.99999e-01,9.99988e-01,9.61596e-01,9.99999e-01
5.368557821e-01,9.62302e-01,9.99999e-01,9.99999e-01,9.99960e-01,9.62340e-01,9.99999e-01
5.395400610e-01,9.62932e-01,9.99999e-01,9.99999e-01,9.99857e-01,9.63070e-01,9.99998e-01
5.422377613e-01,9.63605e-01,9.99999e-01,9.99999e-01,9.99814e-01,9.63786e-01,9.99996e-01
5.449489501e-01,9.64320e-01,9.99999e-01,9.99999e-01,9.99827e-01,9.64489e-01,9.99996e-01
5.476736949e-01,9.65029e-01,9.99999e-01,9.99999e-01,9.99846e-01,9.65178e-01,9.99997e-01
5.504120634e-01,9.65746e-01,9.99999e-01,9.99999e-01,9.99888e-01,9.65854e-01,9.99999e-01
5.531641237e-01,9.66463e-01,9.99999e-01,9.99999e-01,9.99943e-01,9.66517e-01,9.99999e-01
5.559299443e-01,9.67141e-01,9.99999e-01,9.99999e-01,9.99972e-01,9.67167e-01,9.99999e-01
5.587095940e-01,9.67789e-01,9.99999e-01,9.99999e-01,9.99982e-01,9.67805e-01,9.99999e-01
5.615031420e-01,9.68413e-01,9.99999e-01,9.99999e-01,9.99980e-01,9.68431e-01,9.99999e-01
5.643106577e-01,9.69024e-01,9.99999e-01,9.99999e-01,9.99978e-01,9.69045e-01,9.99999e-01
5.671322110e-01,9.69396e-01,9.99999e-01,9.99999e-01,9.99743e-01,9.69647e-01,9.99997e-01
5.699678720e-01,9.69963e-01,9.99999e-01,9.99999e-01,9.99723e-01,9.70237e-01,9.99992e-01
5.728177114e-01,9.70533e-01,9.99999e-01,9.99999e-01,9.99713e-01,9.70816e-01,9.99993e-01
5.756818000e-01,9.71126e-01,9.99999e-01,9.99999e-01,9.99736e-01,9.71385e-01,9.99995e-01
5.785602090e-01,9.71718e-01,9.99999e-01,9.99999e-01,9.99770e-01,9.71942e-01,9.99998e-01
5.814530100e-01,9.72264e-01,9.99999e-01,9.99999e-01,9.99769e-01,9.72488e-01,9.99999e-01
5.843602750e-01,9.72757e-01,9.99999e-01,9.99999e-01,9.99726e-01,9.73024e-01,9.99997e-01
5.872820764e-01,9.71241e-01,9.99999e-01,9.99999e-01,9.97644e-01,9.73550e-01,9.99982e-01
5.902184868e-01,9.71231e-01,9.99999e-01,9.99999e-01,9.97134e-01,9.74066e-01,9.99954e-01
5.931695792e-01,9.72559e-01,9.99999e-01,9.99999e-01,9.97977e-01,9.74571e-01,9.99956e-01
5.961354271e-01,9.72880e-01,9.99999e-01,9.99999e-01,9.97781e-01,9.75067e-01,9.99974e-01
5.991161043e-01,9.73967e-01,9.99999e-01,9.99999e-01,9.98381e-01,9.75554e-01,9.99991e-01
6.021116848e-01,9.75133e-01,9.99999e-01,9.99999e-01,9.99080e-01,9.76031e-01,9.99998e-01
6.051222432e-01,9.76044e-01,9.99999e-01,9.99999e-01,9.99534e-01,9.76498e-01,9.99999e-01
6.081478544e-01,9.76761e-01,9.99999e-01,9.99999e-01,9.99799e-01,9.76957e-01,9.99999e-01
6.111885937e-01,9.77324e-01,9.99999e-01,9.99999e-01,9.99914e-01,9.77407e-01,9.99999e-01
6.142445367e-01,9.77811e-01,9.99999e-01,9.99999e-01,9.99961e-01,9.77848e-01,9.99999e-01
6.173157594e-01,9.78261e-01,9.99999e-01,9.99999e-01,9.99978e-01,9.78281e-01,9.99999e-01
6.204023382e-01,9.78688e-01,9.99999e-01,9.99999e-01,9.99981e-01,9.78706e-01,9.99999e-01
6.235043498e-01,9.79046e-01,9.99999e-01,9.99999e-01,9.99922e-01,9.79122e-01,9.99999e-01
6.266218716e-01,9.79124e-01,9.99999e-01,9.99999e-01,9.99587e-01,9.79530e-01,9.99996e-01
6.297549810e-01,9.79777e-01,9.99999e-01,9.99999e-01,9.99848e-01,9.79930e-01,9.99993e-01
6.329037559e-01,9.80025e-01,9.99999e-01,9.99999e-01,9.99700e-01,9.80323e-01,9.99994e-01
6.360682746e-01,9.80456e-01,9.99999e-01,9.99999e-01,9.99745e-01,9.80707e-01,9.99996e-01
6.392486160e-01,9.80761e-01,9.99999e-01,9.99999e-01,9.99670e-01,9.81085e-01,9.99998e-01
6.424448591e-01,9.81022e-01,9.99999e-01,9.99999e-01,9.99560e-01,9.81455e-01,9.99997e-01
6.456570834e-01,9.79805e-01,9.99999e-01,9.99999e-01,9.97960e-01,9.81818e-01,9.99988e-01
6.488853688e-01,9.80669e-01,9.99999e-01,9.99999e-01,9.98498e-01,9.82174e-01,9.99967e-01
6.521297956e-01,9.80993e-01,9.99999e-01,9.99999e-01,9.98469e-01,9.82523e-01,9.99972e-01
6.553904446e-01,9.81359e-01,9.99999e-01,9.99999e-01,9.98487e-01,9.82865e-01,9.99979e-01
6.586673968e-01,9.81912e-01,9.99999e-01,9.99999e-01,9.98695e-01,9.83201e-01,9.99992e-01
6.619607338e-01,9.82787e-01,9.99999e-01,9.99999e-01,9.99245e-01,9.83530e-01,9.99998e-01
6.652705375e-01,9.83422e-01,9.99999e-01,9.99999e-01,9.99562e-01,9.83852e-01,9.99998e-01
6.685968902e-01,9.83969e-01,9.99999e-01,9.99999e-01,9.99796e-01,9.84169e-01,9.99999e-01
6.719398746e-01,9.84386e-01,9.99999e-01,9.99999e-01,9.99905e-01,9.84479e-01,9.99999e-01
6.752995740e-01,9.84733e-01,9.99999e-01,9.99999e-01,9.99948e-01,9.84783e-01,9.99999e-01
6.786760719e-01,9.85009e-01,9.99999e-01,9.99999e-01,9.99926e-01,9.85082e-01,9.99999e-01
6.820694522e-01,9.85250e-01,9.99999e-01,9.99999e-01,9.99874e-01,9.85374e-01,9.99998e-01
6.854797995e-01,9.85500e-01,9.99999e-01,9.99999e-01,9.99837e-01,9.85661e-01,9.99998e-01
6.889071985e-01,9.85555e-01,9.99999e-01,9.99999e-01,9.99610e-01,9.85942e-01,9.99996e-01
6.923517345e-01,9.79897e-01,9.99999e-01,9.99999e-01,9.93620e-01,9.86218e-01,9.99968e-01
6.958134932e-01,9.83112e-01,9.99999e-01,9.99999e-01,9.96646e-01,9.86488e-01,9.99930e-01
6.992925606e-01,9.83581e-01,9.99999e-01,9.99999e-01,9.96844e-01,9.86753e-01,9.99938e-01
7.027890234e-01,9.83109e-01,9.99999e-01,9.99999e-01,9.96090e-01,9.87013e-01,9.99952e-01
7.063029686e-01,9.84002e-01,9.99999e-01,9.99999e-01,9.96714e-01,9.87268e-01,9.99976e-01
7.098344834e-01,9.84392e-01,9.99999e-01,9.99999e-01,9.96847e-01,9.87518e-01,9.99985e-01
7.133836558e-01,9.83611e-01,9.99999e-01,9.99999e-01,9.95823e-01,9.87763e-01,9.99972e-01
7.169505741e-01,9.54862e-01,9.99999e-01,9.99999e-01,9.66664e-01,9.88003e-01,9.99784e-01
7.205353270e-01,9.71491e-01,9.99999e-01,9.99999e-01,9.83425e-01,9.88239e-01,9.99620e-01
7.241380036e-01,9.67547e-01,9.99999e-01,9.99999e-01,9.79153e-01,9.88470e-01,9.99671e-01
7.277586936e-01,9.69810e-01,9.99999e-01,9.99999e-01,9.81160e-01,9.88696e-01,9.99731e-01
7.313974871e-01,9.68952e-01,9.99999e-01,9.99999e-01,9.79932e-01,9.88918e-01,9.99874e-01
7.350544745e-01,9.78221e-01,9.99999e-01,9.99999e-01,9.89008e-01,9.89136e-01,9.99955e-01
7.387297469e-01,9.81319e-01,9.99999e-01,9.99999e-01,9.91902e-01,9.89349e-01,9.99979e-01
7.424233956e-01,9.85625e-01,9.99999e-01,9.99999e-01,9.96028e-01,9.89559e-01,9.99995e-01
7.461355126e-01,9.87382e-01,9.99999e-01,9.99999e-01,9.97593e-01,9.89764e-01,9.99998e-01
7.498661902e-01,9.88854e-01,9.99999e-01,9.99999e-01,9.98877e-01,9.89965e-01,9.99999e-01
7.536155211e-01,9.89618e-01,9.99999e-01,9.99999e-01,9.99450e-01,9.90162e-01,9.99999e-01
7.573835987e-01,9.90075e-01,9.99999e-01,9.99999e-01,9.99716e-01,9.90355e-01,9.99999e-01
7.611705167e-01,9.90371e-01,9.99999e-01,9.99999e-01,9.99823e-01,9.90545e-01,9.99999e-01
7.649763693e-01,9.90622e-01,9.99999e-01,9.99999e-01,9.99889e-01,9.90731e-01,9.99999e-01
7.688012511e-01,9.90837e-01,9.99999e-01,9.99999e-01,9.99922e-01,9.90913e-01,9.99999e-01
7.726452574e-01,9.91029e-01,9.99999e-01,9.99999e-01,9.99936e-01,9.91092e-01,9.99999e-01
7.765084837e-01,9.91178e-01,9.99999e-01,9.99999e-01,9.99910e-01,9.91267e-01,9.99999e-01
7.803910261e-01,9.91056e-01,9.99999e-01,9.99999e-01,9.99614e-01,9.91439e-01,9.99999e-01
7.842929812e-01,9.90271e-01,9.99999e-01,9.99999e-01,9.98654e-01,9.91607e-01,9.99997e-01
7.882144461e-01,9.88997e-01,9.99999e-01,9.99999e-01,9.97217e-01,9.91772e-01,9.99982e-01
7.921555184e-01,9.90384e-01,9.99999e-01,9.99999e-01,9.98469e-01,9.91934e-01,9.99966e-01
7.961162960e-01,9.89394e-01,9.99999e-01,9.99999e-01,9.97310e-01,9.92093e-01,9.99967e-01
8.000968774e-01,9.89126e-01,9.99999e-01,9.99999e-01,9.96886e-01,9.92248e-01,9.99965e-01
8.040973618e-01,9.89286e-01,9.99999e-01,9.99999e-01,9.96887e-01,9.92401e-01,9.99972e-01
8.081178486e-01,9.85590e-01,9.99999e-01,9.99999e-01,9.93012e-01,9.92550e-01,9.99974e-01
8.121584379e-01,9.63910e-01,9.99999e-01,9.99999e-01,9.71095e-01,9.92697e-01,9.99901e-01
8.162192301e-01,9.58326e-01,9.99999e-01,9.99999e-01,9.65592e-01,9.92841e-01,9.99630e-01
8.203003262e-01,9.75475e-01,9.99999e-01,9.99999e-01,9.82793e-01,9.92981e-01,9.99567e-01
8.244018279e-01,9.68651e-01,9.99999e-01,9.99999e-01,9.75696e-01,9.93120e-01,9.99655e-01
8.285238370e-01,9.72547e-01,9.99999e-01,9.99999e-01,9.79415e-01,9.93255e-01,9.99729e-01
8.326664562e-01,9.72563e-01,9.99999e-01,9.99999e-01,9.79145e-01,9.93388e-01,9.99887e-01
8.368297885e-01,9.78659e-01,9.99999e-01,9.99999e-01,9.85069e-01,9.93518e-01,9.99973e-01
8.410139374e-01,9.84794e-01,9.99999e-01,9.99999e-01,9.91106e-01,9.93646e-01,9.99984e-01
8.452190071e-01,9.89419e-01,9.99999e-01,9.99999e-01,9.95629e-01,9.93771e-01,9.99990e-01
8.494451021e-01,9.91370e-01,9.99999e-01,9.99999e-01,9.97467e-01,9.93893e-01,9.99992e-01
8.536923276e-01,9.92518e-01,9.99999e-01,9.99999e-01,9.98499e-01,9.94014e-01,9.99994e-01
8.579607893e-01,9.93213e-01,9.99999e-01,9.99999e-01,9.99077e-01,9.94131e-01,9.99998e-01
8.622505932e-01,9.93664e-01,9.99999e-01,9.99999e-01,9.99412e-01,9.94247e-01,9.99999e-01
8.665618462e-01,9.94000e-01,9.99999e-01,9.99999e-01,9.99637e-01,9.94360e-01,9.99999e-01
8.708946554e-01,9.94059e-01,9.99999e-01,9.99999e-01,9.99585e-01,9.94471e-01,9.99999e-01
8.752491287e-01,9.94028e-01,9.99999e-01,9.99999e-01,9.99445e-01,9.94580e-01,9.99998e-01
8.796253743e-01,9.93923e-01,9.99999e-01,9.99999e-01,9.99232e-01,9.94687e-01,9.99997e-01
8.840235012e-01,9.93915e-01,9.99999e-01,9.99999e-01,9.99123e-01,9.94792e-01,9.99994e-01
8.884436187e-01,9.91722e-01,9.99999e-01,9.99999e-01,9.96826e-01,9.94894e-01,9.99984e-01
8.928858368e-01,9.61853e-01,9.99999e-01,9.99999e-01,9.66775e-01,9.94995e-01,9.99911e-01
8.973502660e-01,9.36603e-01,9.99999e-01,9.99999e-01,9.41643e-01,9.95093e-01,9.99550e-01
9.018370173e-01,9.64322e-01,9.99999e-01,9.99999e-01,9.69666e-01,9.95190e-01,9.99293e-01
9.063462024e-01,9.68289e-01,9.99999e-01,9.99999e-01,9.73479e-01,9.95285e-01,9.99379e-01
9.108779334e-01,9.53790e-01,9.99999e-01,9.99999e-01,9.58836e-01,9.95378e-01,9.99355e-01
9.154323231e-01,9.48532e-01,9.99999e-01,9.99999e-01,9.53356e-01,9.95469e-01,9.99466e-01
9.200094847e-01,9.58653e-01,9.99999e-01,9.99999e-01,9.63216e-01,9.95558e-01,9.99701e-01
9.246095321e-01,9.38808e-01,9.99999e-01,9.99999e-01,9.43237e-01,9.95646e-01,9.99655e-01
9.292325798e-01,6.69765e-01,9.99999e-01,9.99999e-01,6.73537e-01,9.95731e-01,9.98660e-01
9.338787427e-01,5.92880e-01,9.99999e-01,9.99999e-01,5.98679e-01,9.95816e-01,9.94475e-01
9.385481364e-01,8.04633e-01,9.99999e-01,9.99999e-01,8.13287e-01,9.95898e-01,9.93432e-01
9.432408771e-01,7.42433e-01,9.99999e-01,9.99999e-01,7.49679e-01,9.95979e-01,9.94331e-01
9.479570815e-01,6.65188e-01,9.99999e-01,9.99999e-01,6.70917e-01,9.96058e-01,9.95384e-01
9.526968669e-01,7.36957e-01,9.99999e-01,9.99999e-01,7.41905e-01,9.96136e-01,9.97181e-01
9.574603512e-01,7.58069e-01,9.99999e-01,9.99999e-01,7.62043e-01,9.96212e-01,9.98567e-01
9.622476530e-01,7.98016e-01,9.99999e-01,9.99999e-01,8.01784e-01,9.96287e-01,9.99008e-01
9.670588912e-01,8.76877e-01,9.99999e-01,9.99999e-01,8.80676e-01,9.96360e-01,9.99321e-01
9.718941857e-01,9.20164e-01,9.99999e-01,9.99999e-01,9.23919e-01,9.96432e-01,9.99500e-01
9.767536566e-01,9.32823e-01,9.99999e-01,9.99999e-01,9.36453e-01,9.96502e-01,9.99618e-01
9.816374249e-01,9.49101e-01,9.99999e-01,9.99999e-01,9.52491e-01,9.96571e-01,9.99867e-01
9.865456120e-01,9.66775e-01,9.99999e-01,9.99999e-01,9.70061e-01,9.96638e-01,9.99972e-01
9.914783401e-01,9.78162e-01,9.99999e-01,9.99999e-01,9.81403e-01,9.96705e-01,9.99991e-01
9.964357318e-01,9.86629e-01,9.99999e-01,9.99999e-01,9.89830e-01,9.96770e-01,9.99995e-01
1.001417910e+00,9.90740e-01,9.99999e-01,9.99999e-01,9.93893e-01,9.96833e-01,9.99992e-01
1.006425000e+00,9.93416e-01,9.99999e-01,9.99999e-01,9.96518e-01,9.96896e-01,9.99989e-01
1.011457125e+00,9.94791e-01,9.99999e-01,9.99999e-01,9.97835e-01,9.96957e-01,9.99990e-01
1.016514411e+00,9.95547e-01,9.99999e-01,9.99999e-01,9.98531e-01,9.97017e-01,9.99993e-01
1.021596983e+00,9.95903e-01,9.99999e-01,9.99999e-01,9.98829e-01,9.97076e-01,9.99993e-01
1.026704968e+00,9.96220e-01,9.99999e-01,9.99999e-01,9.99087e-01,9.97134e-01,9.99995e-01
1.031838492e+00,9.96527e-01,9.99999e-01,9.99999e-01,9.99336e-01,9.97190e-01,9.99998e-01
1.036997685e+00,9.96853e-01,9.99999e-01,9.99999e-01,9.99605e-01,9.97245e-01,9.99999e-01
1.042182673e+00,9.96832e-01,9.99999e-01,9.99999e-01,9.99530e-01,9.97300e-01,9.99999e-01
1.047393587e+00,9.96733e-01,9.99999e-01,9.99999e-01,9.99377e-01,9.97353e-01,9.99999e-01
1.052630555e+00,9.96554e-01,9.99999e-01,9.99999e-01,9.99146e-01,9.97405e-01,9.99999e-01
1.057893707e+00,9.96037e-01,9.99999e-01,9.99999e-01,9.98576e-01,9.97456e-01,9.99999e-01
1.063183176e+00,9.95169e-01,9.99999e-01,9.99999e-01,9.97656e-01,9.97507e-01,9.99998e-01
1.068499092e+00,9.93639e-01,9.99999e-01,9.99999e-01,9.96075e-01,9.97556e-01,9.99996e-01
1.073841587e+00,9.93021e-01,9.99999e-01,9.99999e-01,9.95411e-01,9.97604e-01,9.99993e-01
1.079210795e+00,9.91764e-01,9.99999e-01,9.99999e-01,9.94114e-01,9.97651e-01,9.99983e-01
1.084606849e+00,9.88789e-01,9.99999e-01,9.99999e-01,9.91107e-01,9.97697e-01,9.99961e-01
1.090029883e+00,9.84972e-01,9.99999e-01,9.99999e-01,9.87276e-01,9.97743e-01,9.99921e-01
1.095480033e+00,9.63398e-01,9.99999e-01,9.99999e-01,9.65670e-01,9.97787e-01,9.99857e-01
1.100957433e+00,9.12727e-01,9.99999e-01,9.99999e-01,9.14949e-01,9.97831e-01,9.99739e-01
1.106462220e+00,7.95328e-01,9.99999e-01,9.99999e-01,7.97374e-01,9.97874e-01,9.99557e-01
1.111994531e+00,6.17765e-01,9.99999e-01,9.99999e-01,6.19781e-01,9.97916e-01,9.98827e-01
1.117554504e+00,4.57319e-01,9.99999e-01,9.99999e-01,4.60199e-01,9.97957e-01,9.95772e-01
1.123142276e+00,5.55705e-01,9.99999e-01,9.99999e-01,5.62441e-01,9.97997e-01,9.90005e-01
1.128757988e+00,6.84294e-01,9.99999e-01,9.99999e-01,6.93653e-01,9.98037e-01,9.88447e-01
1.134401778e+00,4.30732e-01,9.99999e-01,9.99999e-01,4.35847e-01,9.98075e-01,9.90167e-01
1.140073787e+00,7.97066e-01,9.99999e-01,9.99999e-01,8.04901e-01,9.98113e-01,9.92136e-01
1.145774156e+00,6.28479e-01,9.99999e-01,9.99999e-01,6.34209e-01,9.98151e-01,9.92799e-01
1.151503026e+00,5.98042e-01,9.99999e-01,9.99999e-01,6.01545e-01,9.98187e-01,9.95982e-01
1.157260541e+00,6.54257e-01,9.99999e-01,9.99999e-01,6.56211e-01,9.98223e-01,9.98796e-01
1.163046844e+00,7.30948e-01,9.99999e-01,9.99999e-01,7.32473e-01,9.98258e-01,9.99658e-01
1.168862078e+00,8.04442e-01,9.99999e-01,9.99999e-01,8.05959e-01,9.98292e-01,9.99823e-01
1.174706389e+00,8.73724e-01,9.99999e-01,9.99999e-01,8.75393e-01,9.98326e-01,9.99766e-01
1.180579921e+00,9.20343e-01,9.99999e-01,9.99999e-01,9.22180e-01,9.98359e-01,9.99647e-01
1.186482820e+00,9.53429e-01,9.99999e-01,9.99999e-01,9.55310e-01,9.98391e-01,9.99638e-01
1.192415234e+00,9.71900e-01,9.99999e-01,9.99999e-01,9.73697e-01,9.98423e-01,9.99728e-01
1.198377311e+00,9.76043e-01,9.99999e-01,9.99999e-01,9.77803e-01,9.98454e-01,9.99743e-01
1.204369197e+00,9.77257e-01,9.99999e-01,9.99999e-01,9.78966e-01,9.98485e-01,9.99768e-01
1.210391043e+00,9.78287e-01,9.99999e-01,9.99999e-01,9.79879e-01,9.98515e-01,9.99858e-01
1.216442998e+00,9.81327e-01,9.99999e-01,9.99999e-01,9.82842e-01,9.98544e-01,9.99913e-01
1.222525213e+00,9.85167e-01,9.99999e-01,9.99999e-01,9.86627e-01,9.98573e-01,9.99945e-01
1.228637839e+00,9.89290e-01,9.99999e-01,9.99999e-01,9.90700e-01,9.98601e-01,9.99974e-01
