#,Wave/freq,Total,N2,O2,H2O,Rayleigh,CIA
4.000000000e-01,7.13627e-01,9.99999e-01,9.99999e-01,9.99961e-01,7.13654e-01,9.99999e-01
4.020000000e-01,7.18414e-01,9.99999e-01,9.99999e-01,9.99975e-01,7.18431e-01,9.99999e-01
4.040100000e-01,7.23131e-01,9.99999e-01,9.99999e-01,9.99989e-01,7.23139e-01,9.99999e-01
4.060300500e-01,7.27782e-01,9.99999e-01,9.99999e-01,9.99997e-01,7.27784e-01,9.99999e-01
4.080602003e-01,7.32365e-01,9.99999e-01,9.99999e-01,9.99998e-01,7.32366e-01,9.99999e-01
4.101005013e-01,7.36885e-01,9.99999e-01,9.99999e-01,9.99999e-01,7.36885e-01,9.99999e-01
4.121510038e-01,7.41342e-01,9.99999e-01,9.99999e-01,9.99998e-01,7.41343e-01,9.99999e-01
4.142117588e-01,7.45731e-01,9.99999e-01,9.99999e-01,9.99989e-01,7.45739e-01,9.99999e-01
4.162828176e-01,7.50037e-01,9.99999e-01,9.99999e-01,9.99952e-01,7.50073e-01,9.99999e-01
4.183642317e-01,7.54324e-01,9.99999e-01,9.99999e-01,9.99971e-01,7.54346e-01,9.99999e-01
4.204560528e-01,7.58545e-01,9.99999e-01,9.99999e-01,9.99982e-01,7.58558e-01,9.99999e-01
4.225583331e-01,7.62705e-01,9.99999e-01,9.99999e-01,9.99993e-01,7.62709e-01,9.99999e-01
4.246711247e-01,7.66797e-01,9.99999e-01,9.99999e-01,9.99994e-01,7.66801e-01,9.99999e-01
4.267944804e-01,7.70828e-01,9.99999e-01,9.99999e-01,9.99991e-01,7.70834e-01,9.99999e-01
4.289284528e-01,7.74802e-01,9.99999e-01,9.99999e-01,9.99993e-01,7.74807e-01,9.99999e-01
4.310730950e-01,7.78719e-01,9.99999e-01,9.99999e-01,9.99997e-01,7.78721e-01,9.99999e-01
4.332284605e-01,7.82577e-01,9.99999e-01,9.99999e-01,9.99998e-01,7.82578e-01,9.99999e-01
4.353946028e-01,7.86377e-01,9.99999e-01,9.99999e-01,9.99999e-01,7.86377e-01,9.99999e-01
4.375715758e-01,7.90115e-01,9.99999e-01,9.99999e-01,9.99994e-01,7.90118e-01,9.99999e-01
4.397594337e-01,7.93771e-01,9.99999e-01,9.99999e-01,9.99958e-01,7.93804e-01,9.99999e-01
4.419582309e-01,7.97264e-01,9.99999e-01,9.99999e-01,9.99788e-01,7.97433e-01,9.99999e-01
4.441680220e-01,8.00875e-01,9.99999e-01,9.99999e-01,9.99835e-01,8.01006e-01,9.99999e-01
4.463888621e-01,8.04387e-01,9.99999e-01,9.99999e-01,9.99828e-01,8.04524e-01,9.99999e-01
4.486208064e-01,8.07903e-01,9.99999e-01,9.99999e-01,9.99893e-01,8.07988e-01,9.99999e-01
4.508639105e-01,8.11358e-01,9.99999e-01,9.99999e-01,9.99949e-01,8.11398e-01,9.99999e-01
4.531182300e-01,8.14739e-01,9.99999e-01,9.99999e-01,9.99979e-01,8.14755e-01,9.99999e-01
4.553838212e-01,8.18047e-01,9.99999e-01,9.99999e-01,9.99986e-01,8.18058e-01,9.99999e-01
4.576607403e-01,8.21305e-01,9.99999e-01,9.99999e-01,9.99993e-01,8.21310e-01,9.99999e-01
4.599490440e-01,8.24506e-01,9.99999e-01,9.99999e-01,9.99995e-01,8.24509e-01,9.99999e-01
4.622487892e-01,8.27657e-01,9.99999e-01,9.99999e-01,9.99998e-01,8.27658e-01,9.99999e-01
4.645600332e-01,8.30754e-01,9.99999e-01,9.99999e-01,9.99996e-01,8.30756e-01,9.99999e-01
4.668828333e-01,8.33763e-01,9.99999e-01,9.99999e-01,9.99949e-01,8.33804e-01,9.99999e-01
4.692172475e-01,8.36714e-01,9.99999e-01,9.99999e-01,9.99892e-01,8.36803e-01,9.99999e-01
4.715633337e-01,8.39695e-01,9.99999e-01,9.99999e-01,9.99929e-01,8.39753e-01,9.99999e-01
4.739211504e-01,8.42599e-01,9.99999e-01,9.99999e-01,9.99932e-01,8.42655e-01,9.99999e-01
4.762907561e-01,8.45480e-01,9.99999e-01,9.99999e-01,9.99964e-01,8.45510e-01,9.99999e-01
4.786722099e-01,8.48305e-01,9.99999e-01,9.99999e-01,9.99985e-01,8.48317e-01,9.99999e-01
4.810655710e-01,8.51074e-01,9.99999e-01,9.99999e-01,9.99995e-01,8.51078e-01,9.99999e-01
4.834708988e-01,8.53758e-01,9.99999e-01,9.99999e-01,9.99958e-01,8.53793e-01,9.99999e-01
4.858882533e-01,8.56398e-01,9.99999e-01,9.99999e-01,9.99923e-01,8.56463e-01,9.99999e-01
4.883176946e-01,8.59033e-01,9.99999e-01,9.99999e-01,9.99936e-01,8.59088e-01,9.99999e-01
4.907592831e-01,8.61620e-01,9.99999e-01,9.99999e-01,9.99942e-01,8.61669e-01,9.99999e-01
4.932130795e-01,8.64172e-01,9.99999e-01,9.99999e-01,9.99958e-01,8.64207e-01,9.99999e-01
4.956791449e-01,8.66683e-01,9.99999e-01,9.99999e-01,9.99978e-01,8.66702e-01,9.99999e-01
4.981575406e-01,8.69061e-01,9.99999e-01,9.99999e-01,9.99891e-01,8.69154e-01,9.99999e-01
5.006483283e-01,8.71320e-01,9.99999e-01,9.99999e-01,9.99719e-01,8.71565e-01,9.99997e-01
5.031515699e-01,8.72685e-01,9.99999e-01,9.99999e-01,9.98584e-01,8.73935e-01,9.99984e-01
5.056673278e-01,8.75595e-01,9.99999e-01,9.99999e-01,9.99253e-01,8.76264e-01,9.99982e-01
5.081956644e-01,8.77717e-01,9.99999e-01,9.99999e-01,9.99058e-01,8.78553e-01,9.99989e-01
5.107366428e-01,8.80242e-01,9.99999e-01,9.99999e-01,9.99364e-01,8.80803e-01,9.99997e-01
5.132903260e-01,8.82693e-01,9.99999e-01,9.99999e-01,9.99636e-01,8.83014e-01,9.99999e-01
5.158567776e-01,8.85051e-01,9.99999e-01,9.99999e-01,9.99846e-01,8.85187e-01,9.99999e-01
5.184360615e-01,8.87267e-01,9.99999e-01,9.99999e-01,9.99938e-01,8.87322e-01,9.99999e-01
5.210282418e-01,8.89399e-01,9.99999e-01,9.99999e-01,9.99976e-01,8.89419e-01,9.99999e-01
5.236333830e-01,8.91398e-01,9.99999e-01,9.99999e-01,9.99907e-01,8.91480e-01,9.99998e-01
5.262515499e-01,8.93453e-01,9.99999e-01,9.99999e-01,9.99941e-01,8.93505e-01,9.99998e-01
5.288828077e-01,8.95447e-01,9.99999e-01,9.99999e-01,9.99946e-01,8.95495e-01,9.99998e-01
5.315272217e-01,8.97408e-01,9.99999e-01,9.99999e-01,9.99953e-01,8.97450e-01,9.99999e-01
5.341848578e-01,8.99342e-01,9.99999e-01,9.99999e-01,9.99969e-01,8.99370e-01,9.99999e-01
5.368557821e-01,9.01159e-01,9.99999e-01,9.99999e-01,9.99892e-01,9.01256e-01,9.99999e-01
5.395400610e-01,9.02754e-01,9.99999e-01,9.99999e-01,9.99610e-01,9.03108e-01,9.99996e-01
5.422377613e-01,9.04467e-01,9.99999e-01,9.99999e-01,9.99499e-01,9.04928e-01,9.99990e-01
5.449489501e-01,9.06284e-01,9.99999e-01,9.99999e-01,9.99533e-01,9.06716e-01,9.99990e-01
5.476736949e-01,9.08093e-01,9.99999e-01,9.99999e-01,9.99587e-01,9.08471e-01,9.99994e-01
5.504120634e-01,9.09922e-01,9.99999e-01,9.99999e-01,9.99700e-01,9.10195e-01,9.99998e-01
5.531641237e-01,9.11751e-01,9.99999e-01,9.99999e-01,9.99849e-01,9.11889e-01,9.99999e-01
5.559299443e-01,9.13485e-01,9.99999e-01,9.99999e-01,9.99926e-01,9.13551e-01,9.99999e-01
5.587095940e-01,9.15143e-01,9.99999e-01,9.99999e-01,9.99953e-01,9.15184e-01,9.99999e-01
5.615031420e-01,9.16741e-01,9.99999e-01,9.99999e-01,9.99948e-01,9.16788e-01,9.99999e-01
5.643106577e-01,9.18309e-01,9.99999e-01,9.99999e-01,9.99941e-01,9.18363e-01,9.99999e-01
5.671322110e-01,9.19256e-01,9.99999e-01,9.99999e-01,9.99295e-01,9.19909e-01,9.99993e-01
5.699678720e-01,9.20726e-01,9.99999e-01,9.99999e-01,9.99257e-01,9.21427e-01,9.99980e-01
5.728177114e-01,9.22187e-01,9.99999e-01,9.99999e-01,9.99224e-01,9.22917e-01,9.99983e-01
5.756818000e-01,9.23715e-01,9.99999e-01,9.99999e-01,9.99288e-01,9.24381e-01,9.99990e-01
5.785602090e-01,9.25242e-01,9.99999e-01,9.99999e-01,9.99380e-01,9.25818e-01,9.99996e-01
5.814530100e-01,9.26650e-01,9.99999e-01,9.99999e-01,9.99377e-01,9.27228e-01,9.99998e-01
5.843602750e-01,9.27919e-01,9.99999e-01,9.99999e-01,9.99255e-01,9.28613e-01,9.99995e-01
5.872820764e-01,9.23984e-01,9.99999e-01,9.99999e-01,9.93605e-01,9.29973e-01,9.99954e-01
5.902184868e-01,9.23998e-01,9.99999e-01,9.99999e-01,9.92273e-01,9.31307e-01,9.99877e-01
5.931695792e-01,9.27410e-01,9.99999e-01,9.99999e-01,9.94533e-01,9.32617e-01,9.99881e-01
5.961354271e-01,9.28248e-01,9.99999e-01,9.99999e-01,9.94011e-01,9.33903e-01,9.99931e-01
5.991161043e-01,9.31060e-01,9.99999e-01,9.99999e-01,9.95630e-01,9.35165e-01,9.99978e-01
6.021116848e-01,9.34080e-01,9.99999e-01,9.99999e-01,9.97519e-01,9.36404e-01,9.99997e-01
6.051222432e-01,9.36444e-01,9.99999e-01,9.99999e-01,9.98744e-01,9.37621e-01,9.99999e-01
6.081478544e-01,9.38306e-01,9.99999e-01,9.99999e-01,9.99457e-01,9.38814e-01,9.99999e-01
6.111885937e-01,9.39771e-01,9.99999e-01,9.99999e-01,9.99770e-01,9.39986e-01,9.99999e-01
6.142445367e-01,9.41039e-01,9.99999e-01,9.99999e-01,9.99897e-01,9.41135e-01,9.99999e-01
6.173157594e-01,9.42211e-01,9.99999e-01,9.99999e-01,9.99943e-01,9.42264e-01,9.99999e-01
6.204023382e-01,9.43326e-01,9.99999e-01,9.99999e-01,9.99951e-01,9.43371e-01,9.99999e-01
6.235043498e-01,9.44258e-01,9.99999e-01,9.99999e-01,9.99788e-01,9.44458e-01,9.99998e-01
6.266218716e-01,9.44464e-01,9.99999e-01,9.99999e-01,9.98884e-01,9.45525e-01,9.99991e-01
6.297549810e-01,9.46170e-01,9.99999e-01,9.99999e-01,9.99590e-01,9.46572e-01,9.99983e-01
6.329037559e-01,9.46822e-01,9.99999e-01,9.99999e-01,9.99192e-01,9.47599e-01,9.99986e-01
6.360682746e-01,9.47947e-01,9.99999e-01,9.99999e-01,9.99311e-01,9.48607e-01,9.99992e-01
6.392486160e-01,9.48746e-01,9.99999e-01,9.99999e-01,9.99107e-01,9.49596e-01,9.99996e-01
6.424448591e-01,9.49424e-01,9.99999e-01,9.99999e-01,9.98803e-01,9.50566e-01,9.99994e-01
6.456570834e-01,9.46214e-01,9.99999e-01,9.99999e-01,9.94455e-01,9.51519e-01,9.99968e-01
6.488853688e-01,9.48516e-01,9.99999e-01,9.99999e-01,9.95950e-01,9.52453e-01,9.99913e-01
6.521297956e-01,9.49369e-01,9.99999e-01,9.99999e-01,9.95873e-01,9.53370e-01,9.99928e-01
6.553904446e-01,9.50294e-01,9.99999e-01,9.99999e-01,9.95885e-01,9.54270e-01,9.99946e-01
6.586673968e-01,9.51774e-01,9.99999e-01,9.99999e-01,9.96480e-01,9.55153e-01,9.99981e-01
6.619607338e-01,9.54139e-01,9.99999e-01,9.99999e-01,9.98037e-01,9.56019e-01,9.99995e-01
6.652705375e-01,9.55739e-01,9.99999e-01,9.99999e-01,9.98821e-01,9.56868e-01,9.99997e-01
6.685968902e-01,9.57178e-01,9.99999e-01,9.99999e-01,9.99452e-01,9.57702e-01,9.99999e-01
6.719398746e-01,9.58277e-01,9.99999e-01,9.99999e-01,9.99746e-01,9.58520e-01,9.99999e-01
6.752995740e-01,9.59190e-01,9.99999e-01,9.99999e-01,9.99862e-01,9.59322e-01,9.99999e-01
6.786760719e-01,9.59918e-01,9.99999e-01,9.99999e-01,9.99800e-01,9.60109e-01,9.99999e-01
6.820694522e-01,9.60553e-01,9.99999e-01,9.99999e-01,9.99659e-01,9.60882e-01,9.99997e-01
6.854797995e-01,9.61214e-01,9.99999e-01,9.99999e-01,9.99560e-01,9.61639e-01,9.99995e-01
6.889071985e-01,9.61347e-01,9.99999e-01,9.99999e-01,9.98932e-01,9.62383e-01,9.99990e-01
6.923517345e-01,9.46422e-01,9.99999e-01,9.99999e-01,9.82752e-01,9.63112e-01,9.99916e-01
6.958134932e-01,9.55028e-01,9.99999e-01,9.99999e-01,9.91052e-01,9.63827e-01,9.99815e-01
6.992925606e-01,9.56118e-01,9.99999e-01,9.99999e-01,9.91443e-01,9.64529e-01,9.99833e-01
7.027890234e-01,9.54931e-01,9.99999e-01,9.99999e-01,9.89468e-01,9.65217e-01,9.99872e-01
7.063029686e-01,9.57270e-01,9.99999e-01,9.99999e-01,9.91135e-01,9.65892e-01,9.99936e-01
7.098344834e-01,9.58297e-01,9.99999e-01,9.99999e-01,9.91493e-01,9.66555e-01,9.99962e-01
7.133836558e-01,9.56148e-01,9.99999e-01,9.99999e-01,9.88642e-01,9.67204e-01,9.99925e-01
7.169505741e-01,8.82722e-01,9.99999e-01,9.99999e-01,9.12583e-01,9.67841e-01,9.99417e-01
7.205353270e-01,9.25297e-01,9.99999e-01,9.99999e-01,9.56406e-01,9.68466e-01,9.98972e-01
7.241380036e-01,9.14660e-01,9.99999e-01,9.99999e-01,9.44681e-01,9.69080e-01,9.99112e-01
7.277586936e-01,9.20494e-01,9.99999e-01,9.99999e-01,9.49963e-01,9.69681e-01,9.99274e-01
7.313974871e-01,9.18459e-01,9.99999e-01,9.99999e-01,9.46921e-01,9.70271e-01,9.99659e-01
7.350544745e-01,9.42223e-01,9.99999e-01,9.99999e-01,9.70628e-01,9.70849e-01,9.99881e-01
7.387297469e-01,9.50286e-01,9.99999e-01,9.99999e-01,9.78299e-01,9.71417e-01,9.99945e-01
7.424233956e-01,9.61594e-01,9.99999e-01,9.99999e-01,9.89331e-01,9.71973e-01,9.99989e-01
7.461355126e-01,9.66215e-01,9.99999e-01,9.99999e-01,9.93519e-01,9.72519e-01,9.99997e-01
7.498661902e-01,9.70117e-01,9.99999e-01,9.99999e-01,9.96980e-01,9.73055e-01,9.99998e-01
7.536155211e-01,9.72136e-01,9.99999e-01,9.99999e-01,9.98516e-01,9.73580e-01,9.99999e-01
7.573835987e-01,9.73351e-01,9.99999e-01,9.99999e-01,9.99236e-01,9.74095e-01,9.99999e-01
7.611705167e-01,9.74138e-01,9.99999e-01,9.99999e-01,9.99525e-01,9.74600e-01,9.99999e-01
7.649763693e-01,9.74805e-01,9.99999e-01,9.99999e-01,9.99702e-01,9.75095e-01,9.99999e-01
7.688012511e-01,9.75379e-01,9.99999e-01,9.99999e-01,9.99792e-01,9.75581e-01,9.99999e-01
7.726452574e-01,9.75891e-01,9.99999e-01,9.99999e-01,9.99829e-01,9.76058e-01,9.99999e-01
7.765084837e-01,9.76288e-01,9.99999e-01,9.99999e-01,9.99756e-01,9.76525e-01,9.99999e-01
7.803910261e-01,9.75957e-01,9.99999e-01,9.99999e-01,9.98949e-01,9.76983e-01,9.99998e-01
7.842929812e-01,9.73847e-01,9.99999e-01,9.99999e-01,9.96338e-01,9.77433e-01,9.99992e-01
7.882144461e-01,9.70476e-01,9.99999e-01,9.99999e-01,9.92485e-01,9.77874e-01,9.99947e-01
7.921555184e-01,9.74188e-01,9.99999e-01,9.99999e-01,9.95879e-01,9.78306e-01,9.99909e-01
7.961162960e-01,9.71507e-01,9.99999e-01,9.99999e-01,9.92704e-01,9.78730e-01,9.99914e-01
8.000968774e-01,9.70822e-01,9.99999e-01,9.99999e-01,9.91589e-01,9.79145e-01,9.99908e-01
8.040973618e-01,9.71243e-01,9.99999e-01,9.99999e-01,9.91584e-01,9.79553e-01,9.99930e-01
8.081178486e-01,9.61363e-01,9.99999e-01,9.99999e-01,9.81098e-01,9.79953e-01,9.99929e-01
8.121584379e-01,9.05281e-01,9.99999e-01,9.99999e-01,9.23675e-01,9.80345e-01,9.99733e-01
8.162192301e-01,8.91906e-01,9.99999e-01,9.99999e-01,9.10341e-01,9.80729e-01,9.98999e-01
8.203003262e-01,9.35224e-01,9.99999e-01,9.99999e-01,9.54350e-01,9.81106e-01,9.98829e-01
8.244018279e-01,9.19146e-01,9.99999e-01,9.99999e-01,9.37366e-01,9.81476e-01,9.99068e-01
8.285238370e-01,9.27482e-01,9.99999e-01,9.99999e-01,9.45329e-01,9.81839e-01,9.99267e-01
8.326664562e-01,9.27736e-01,9.99999e-01,9.99999e-01,9.44839e-01,9.82194e-01,9.99696e-01
8.368297885e-01,9.43424e-01,9.99999e-01,9.99999e-01,9.60252e-01,9.82543e-01,9.99930e-01
8.410139374e-01,9.59445e-01,9.99999e-01,9.99999e-01,9.76191e-01,9.82885e-01,9.99959e-01
8.452190071e-01,9.71653e-01,9.99999e-01,9.99999e-01,9.88258e-01,9.83220e-01,9.99975e-01
8.494451021e-01,9.76808e-01,9.99999e-01,9.99999e-01,9.93165e-01,9.83548e-01,9.99980e-01
8.536923276e-01,9.79882e-01,9.99999e-01,9.99999e-01,9.95957e-01,9.83871e-01,9.99987e-01
8.579607893e-01,9.81731e-01,9.99999e-01,9.99999e-01,9.97506e-01,9.84187e-01,9.99996e-01
8.622505932e-01,9.82938e-01,9.99999e-01,9.99999e-01,9.98416e-01,9.84497e-01,9.99999e-01
8.665618462e-01,9.83835e-01,9.99999e-01,9.99999e-01,9.99019e-01,9.84801e-01,9.99999e-01
8.708946554e-01,9.83992e-01,9.99999e-01,9.99999e-01,9.98876e-01,9.85099e-01,9.99998e-01
8.752491287e-01,9.83909e-01,9.99999e-01,9.99999e-01,9.98497e-01,9.85391e-01,9.99997e-01
8.796253743e-01,9.83621e-01,9.99999e-01,9.99999e-01,9.97918e-01,9.85677e-01,9.99994e-01
8.840235012e-01,9.83600e-01,9.99999e-01,9.99999e-01,9.97622e-01,9.85958e-01,9.99985e-01
8.884436187e-01,9.77632e-01,9.99999e-01,9.99999e-01,9.91318e-01,9.86233e-01,9.99958e-01
8.928858368e-01,9.00151e-01,9.99999e-01,9.99999e-01,9.12682e-01,9.86504e-01,9.99762e-01
8.973502660e-01,8.39026e-01,9.99999e-01,9.99999e-01,8.51311e-01,9.86768e-01,9.98783e-01
9.018370173e-01,9.07602e-01,9.99999e-01,9.99999e-01,9.21290e-01,9.87028e-01,9.98088e-01
9.063462024e-01,9.16642e-01,9.99999e-01,9.99999e-01,9.30010e-01,9.87283e-01,9.98320e-01
9.108779334e-01,8.80506e-01,9.99999e-01,9.99999e-01,8.93180e-01,9.87532e-01,9.98254e-01
9.154323231e-01,8.67493e-01,9.99999e-01,9.99999e-01,8.79495e-01,9.87777e-01,9.98557e-01
9.200094847e-01,8.92935e-01,9.99999e-01,9.99999e-01,9.04494e-01,9.88017e-01,9.99192e-01
9.246095321e-01,8.45041e-01,9.99999e-01,9.99999e-01,8.55882e-01,9.88252e-01,9.99069e-01
9.292325798e-01,3.57744e-01,9.99999e-01,9.99999e-01,3.63228e-01,9.88483e-01,9.96376e-01
9.338787427e-01,2.65899e-01,9.99999e-01,9.99999e-01,2.73001e-01,9.88709e-01,9.85106e-01
9.385481364e-01,5.73754e-01,9.99999e-01,9.99999e-01,5.90622e-01,9.88931e-01,9.82311e-01
9.432408771e-01,4.74296e-01,9.99999e-01,9.99999e-01,4.86939e-01,9.89148e-01,9.84721e-01
9.479570815e-01,3.64744e-01,9.99999e-01,9.99999e-01,3.73314e-01,9.89361e-01,9.87547e-01
9.526968669e-01,4.62772e-01,9.99999e-01,9.99999e-01,4.71237e-01,9.89570e-01,9.92385e-01
9.574603512e-01,4.85635e-01,9.99999e-01,9.99999e-01,4.92560e-01,9.89775e-01,9.96124e-01
9.622476530e-01,5.52436e-01,9.99999e-01,9.99999e-01,5.59529e-01,9.89976e-01,9.97318e-01
9.670588912e-01,7.06105e-01,9.99999e-01,9.99999e-01,7.14422e-01,9.90173e-01,9.98165e-01
9.718941857e-01,7.99637e-01,9.99999e-01,9.99999e-01,8.08506e-01,9.90366e-01,9.98649e-01
9.767536566e-01,8.29349e-01,9.99999e-01,9.99999e-01,8.38121e-01,9.90556e-01,9.98967e-01
9.816374249e-01,8.68770e-01,9.99999e-01,9.99999e-01,8.77201e-01,9.90741e-01,9.99642e-01
9.865456120e-01,9.12899e-01,9.99999e-01,9.99999e-01,9.21329e-01,9.90923e-01,9.99925e-01
9.914783401e-01,9.42094e-01,9.99999e-01,9.99999e-01,9.50571e-01,9.91102e-01,9.99978e-01
9.964357318e-01,9.64279e-01,9.99999e-01,9.99999e-01,9.72775e-01,9.91277e-01,9.99987e-01
1.001417910e+00,9.75166e-01,9.99999e-01,9.99999e-01,9.83594e-01,9.91448e-01,9.99981e-01
1.006425000e+00,9.82280e-01,9.99999e-01,9.99999e-01,9.90610e-01,9.91617e-01,9.99973e-01
1.011457125e+00,9.85973e-01,9.99999e-01,9.99999e-01,9.94166e-01,9.91782e-01,9.99975e-01
1.016514411e+00,9.87994e-01,9.99999e-01,9.99999e-01,9.96034e-01,9.91943e-01,9.99982e-01
1.021596983e+00,9.88949e-01,9.99999e-01,9.99999e-01,9.96838e-01,9.92102e-01,9.99982e-01
1.026704968e+00,9.89799e-01,9.99999e-01,9.99999e-01,9.97533e-01,9.92257e-01,9.99987e-01
1.031838492e+00,9.90628e-01,9.99999e-01,9.99999e-01,9.98207e-01,9.92409e-01,9.99996e-01
1.036997685e+00,9.91501e-01,9.99999e-01,9.99999e-01,9.98934e-01,9.92559e-01,9.99999e-01
1.042182673e+00,9.91443e-01,9.99999e-01,9.99999e-01,9.98728e-01,9.92705e-01,9.99999e-01
1.047393587e+00,9.91176e-01,9.99999e-01,9.99999e-01,9.98315e-01,9.92849e-01,9.99999e-01
1.052630555e+00,9.90693e-01,9.99999e-01,9.99999e-01,9.97687e-01,9.92989e-01,9.99998e-01
1.057893707e+00,9.89294e-01,9.99999e-01,9.99999e-01,9.96140e-01,9.93127e-01,9.99998e-01
1.063183176e+00,9.86960e-01,9.99999e-01,9.99999e-01,9.93657e-01,9.93263e-01,9.99996e-01
1.068499092e+00,9.82864e-01,9.99999e-01,9.99999e-01,9.89404e-01,9.93395e-01,9.99992e-01
1.073841587e+00,9.81198e-01,9.99999e-01,9.99999e-01,9.87607e-01,9.93525e-01,9.99983e-01
1.079210795e+00,9.77869e-01,9.99999e-01,9.99999e-01,9.84156e-01,9.93653e-01,9.99957e-01
1.084606849e+00,9.69934e-01,9.99999e-01,9.99999e-01,9.76106e-01,9.93778e-01,9.99897e-01
1.090029883e+00,9.59725e-01,9.99999e-01,9.99999e-01,9.65819e-01,9.93900e-01,9.99787e-01
1.095480033e+00,9.03872e-01,9.99999e-01,9.99999e-01,9.09657e-01,9.94020e-01,9.99616e-01
1.100957433e+00,7.81743e-01,9.99999e-01,9.99999e-01,7.86907e-01,9.94138e-01,9.99294e-01
1.106462220e+00,5.45327e-01,9.99999e-01,9.99999e-01,5.49135e-01,9.94254e-01,9.98803e-01
1.111994531e+00,2.86361e-01,9.99999e-01,9.99999e-01,2.88899e-01,9.94367e-01,9.96826e-01
1.117554504e+00,1.36187e-01,9.99999e-01,9.99999e-01,1.38523e-01,9.94478e-01,9.88592e-01
1.123142276e+00,2.39636e-01,9.99999e-01,9.99999e-01,2.47585e-01,9.94586e-01,9.73160e-01
1.128757988e+00,3.79485e-01,9.99999e-01,9.99999e-01,3.93707e-01,9.94693e-01,9.69016e-01
1.134401778e+00,1.82686e-01,9.99999e-01,9.99999e-01,1.88623e-01,9.94798e-01,9.73592e-01
1.140073787e+00,5.50684e-01,9.99999e-01,9.99999e-01,5.65469e-01,9.94900e-01,9.78844e-01
1.145774156e+00,3.08188e-01,9.99999e-01,9.99999e-01,3.15858e-01,9.95001e-01,9.80617e-01
1.151503026e+00,2.75513e-01,9.99999e-01,9.99999e-01,2.79905e-01,9.95099e-01,9.89155e-01
1.157260541e+00,3.29385e-01,9.99999e-01,9.99999e-01,3.32055e-01,9.95196e-01,9.96744e-01
1.163046844e+00,4.38342e-01,9.99999e-01,9.99999e-01,4.40823e-01,9.95290e-01,9.99075e-01
1.168862078e+00,5.58709e-01,9.99999e-01,9.99999e-01,5.61567e-01,9.95383e-01,9.99523e-01
1.174706389e+00,6.96497e-01,9.99999e-01,9.99999e-01,7.00104e-01,9.95474e-01,9.99368e-01
1.180579921e+00,8.00104e-01,9.99999e-01,9.99999e-01,8.04436e-01,9.95563e-01,9.99045e-01
1.186482820e+00,8.79253e-01,9.99999e-01,9.99999e-01,8.83958e-01,9.95651e-01,9.99020e-01
1.192415234e+00,9.25821e-01,9.99999e-01,9.99999e-01,9.30467e-01,9.95736e-01,9.99266e-01
1.198377311e+00,9.36468e-01,9.99999e-01,9.99999e-01,9.41049e-01,9.95820e-01,9.99307e-01
1.204369197e+00,9.39748e-01,9.99999e-01,9.99999e-01,9.44205e-01,9.95903e-01,9.99373e-01
1.210391043e+00,9.42383e-01,9.99999e-01,9.99999e-01,9.46543e-01,9.95983e-01,9.99618e-01
1.216442998e+00,9.50390e-01,9.99999e-01,9.99999e-01,9.54369e-01,9.96063e-01,9.99766e-01
1.222525213e+00,9.60405e-01,9.99999e-01,9.99999e-01,9.64265e-01,9.96140e-01,9.99854e-01
1.228637839e+00,9.71289e-01,9.99999e-01,9.99999e-01,9.75043e-01,9.96216e-01,9.99932e-01
