#,Wave/freq,Total,N2,O2,H2O,Rayleigh,CIA
4.000000000e-01,8.61947e-02,9.99999e-01,9.99999e-01,9.99723e-01,8.62186e-02,9.99999e-01
4.020000000e-01,9.04841e-02,9.99999e-01,9.99999e-01,9.99828e-01,9.04997e-02,9.99999e-01
4.040100000e-01,9.48908e-02,9.99999e-01,9.99999e-01,9.99926e-01,9.48977e-02,9.99999e-01
4.060300500e-01,9.94146e-02,9.99999e-01,9.99999e-01,9.99982e-01,9.94163e-02,9.99999e-01
4.080602003e-01,1.04054e-01,9.99999e-01,9.99999e-01,9.99994e-01,1.04054e-01,9.99999e-01
4.101005013e-01,1.08811e-01,9.99999e-01,9.99999e-01,9.99999e-01,1.08811e-01,9.99999e-01
4.121510038e-01,1.13683e-01,9.99999e-01,9.99999e-01,9.99989e-01,1.13684e-01,9.99999e-01
4.142117588e-01,1.18664e-01,9.99999e-01,9.99999e-01,9.99923e-01,1.18673e-01,9.99999e-01
4.162828176e-01,1.23733e-01,9.99999e-01,9.99999e-01,9.99657e-01,1.23776e-01,9.99999e-01
4.183642317e-01,1.28965e-01,9.99999e-01,9.99999e-01,9.99796e-01,1.28991e-01,9.99999e-01
4.204560528e-01,1.34299e-01,9.99999e-01,9.99999e-01,9.99874e-01,1.34316e-01,9.99999e-01
4.225583331e-01,1.39743e-01,9.99999e-01,9.99999e-01,9.99952e-01,1.39749e-01,9.99999e-01
4.246711247e-01,1.45283e-01,9.99999e-01,9.99999e-01,9.99962e-01,1.45288e-01,9.99999e-01
4.267944804e-01,1.50923e-01,9.99999e-01,9.99999e-01,9.99944e-01,1.50931e-01,9.99999e-01
4.289284528e-01,1.56668e-01,9.99999e-01,9.99999e-01,9.99957e-01,1.56675e-01,9.99999e-01
4.310730950e-01,1.62515e-01,9.99999e-01,9.99999e-01,9.99981e-01,1.62518e-01,9.99999e-01
4.332284605e-01,1.68455e-01,9.99999e-01,9.99999e-01,9.99994e-01,1.68456e-01,9.99999e-01
4.353946028e-01,1.74488e-01,9.99999e-01,9.99999e-01,9.99997e-01,1.74488e-01,9.99999e-01
4.375715758e-01,1.80604e-01,9.99999e-01,9.99999e-01,9.99965e-01,1.80610e-01,9.99999e-01
4.397594337e-01,1.86764e-01,9.99999e-01,9.99999e-01,9.99699e-01,1.86820e-01,9.99999e-01
4.419582309e-01,1.92820e-01,9.99999e-01,9.99999e-01,9.98476e-01,1.93115e-01,9.99999e-01
4.441680220e-01,1.99253e-01,9.99999e-01,9.99999e-01,9.98807e-01,1.99490e-01,9.99999e-01
4.463888621e-01,2.05689e-01,9.99999e-01,9.99999e-01,9.98759e-01,2.05945e-01,9.99999e-01
4.486208064e-01,2.12310e-01,9.99999e-01,9.99999e-01,9.99229e-01,2.12474e-01,9.99999e-01
4.508639105e-01,2.18996e-01,9.99999e-01,9.99999e-01,9.99638e-01,2.19075e-01,9.99999e-01
4.531182300e-01,2.25713e-01,9.99999e-01,9.99999e-01,9.99857e-01,2.25745e-01,9.99999e-01
4.553838212e-01,2.32457e-01,9.99999e-01,9.99999e-01,9.99902e-01,2.32480e-01,9.99999e-01
4.576607403e-01,2.39266e-01,9.99999e-01,9.99999e-01,9.99955e-01,2.39277e-01,9.99999e-01
4.599490440e-01,2.46125e-01,9.99999e-01,9.99999e-01,9.99968e-01,2.46133e-01,9.99999e-01
4.622487892e-01,2.53042e-01,9.99999e-01,9.99999e-01,9.99994e-01,2.53043e-01,9.99999e-01
4.645600332e-01,2.60000e-01,9.99999e-01,9.99999e-01,9.99977e-01,2.60006e-01,9.99999e-01
4.668828333e-01,2.66920e-01,9.99999e-01,9.99999e-01,9.99635e-01,2.67017e-01,9.99999e-01
4.692172475e-01,2.73860e-01,9.99999e-01,9.99999e-01,9.99221e-01,2.74073e-01,9.99999e-01
4.715633337e-01,2.81028e-01,9.99999e-01,9.99999e-01,9.99491e-01,2.81170e-01,9.99999e-01
4.739211504e-01,2.88166e-01,9.99999e-01,9.99999e-01,9.99513e-01,2.88306e-01,9.99999e-01
4.762907561e-01,2.95402e-01,9.99999e-01,9.99999e-01,9.99747e-01,2.95477e-01,9.99999e-01
4.786722099e-01,3.02647e-01,9.99999e-01,9.99999e-01,9.99896e-01,3.02678e-01,9.99999e-01
4.810655710e-01,3.09899e-01,9.99999e-01,9.99999e-01,9.99968e-01,3.09908e-01,9.99999e-01
4.834708988e-01,3.17069e-01,9.99999e-01,9.99999e-01,9.99702e-01,3.17163e-01,9.99999e-01
4.858882533e-01,3.24261e-01,9.99999e-01,9.99999e-01,9.99448e-01,3.24439e-01,9.99999e-01
4.883176946e-01,3.31581e-01,9.99999e-01,9.99999e-01,9.99539e-01,3.31734e-01,9.99999e-01
4.907592831e-01,3.38902e-01,9.99999e-01,9.99999e-01,9.99582e-01,3.39044e-01,9.99999e-01
4.932130795e-01,3.46263e-01,9.99999e-01,9.99999e-01,9.99703e-01,3.46365e-01,9.99999e-01
4.956791449e-01,3.53640e-01,9.99999e-01,9.99999e-01,9.99843e-01,3.53695e-01,9.99999e-01
4.981575406e-01,3.60750e-01,9.99999e-01,9.99999e-01,9.99218e-01,3.61032e-01,9.99999e-01
5.006483283e-01,3.67621e-01,9.99999e-01,9.99999e-01,9.97977e-01,3.68370e-01,9.99985e-01
5.031515699e-01,3.71834e-01,9.99999e-01,9.99999e-01,9.89792e-01,3.75709e-01,9.99891e-01
5.056673278e-01,3.80926e-01,9.99999e-01,9.99999e-01,9.94591e-01,3.83045e-01,9.99876e-01
5.081956644e-01,3.87681e-01,9.99999e-01,9.99999e-01,9.93179e-01,3.90374e-01,9.99919e-01
5.107366428e-01,3.95857e-01,9.99999e-01,9.99999e-01,9.95390e-01,3.97695e-01,9.99984e-01
5.132903260e-01,4.03937e-01,9.99999e-01,9.99999e-01,9.97363e-01,4.05005e-01,9.99997e-01
5.158567776e-01,4.11841e-01,9.99999e-01,9.99999e-01,9.98885e-01,4.12301e-01,9.99999e-01
5.184360615e-01,4.19393e-01,9.99999e-01,9.99999e-01,9.99553e-01,4.19580e-01,9.99999e-01
5.210282418e-01,4.26769e-01,9.99999e-01,9.99999e-01,9.99832e-01,4.26840e-01,9.99999e-01
5.236333830e-01,4.33786e-01,9.99999e-01,9.99999e-01,9.99330e-01,4.34078e-01,9.99994e-01
5.262515499e-01,4.41105e-01,9.99999e-01,9.99999e-01,9.99580e-01,4.41293e-01,9.99993e-01
5.288828077e-01,4.48307e-01,9.99999e-01,9.99999e-01,9.99615e-01,4.48481e-01,9.99995e-01
5.315272217e-01,4.55487e-01,9.99999e-01,9.99999e-01,9.99661e-01,4.55642e-01,9.99998e-01
5.341848578e-01,4.62669e-01,9.99999e-01,9.99999e-01,9.99778e-01,4.62771e-01,9.99999e-01
5.368557821e-01,4.69502e-01,9.99999e-01,9.99999e-01,9.99221e-01,4.69868e-01,9.99997e-01
5.395400610e-01,4.75582e-01,9.99999e-01,9.99999e-01,9.97193e-01,4.76931e-01,9.99976e-01
5.422377613e-01,4.82167e-01,9.99999e-01,9.99999e-01,9.96367e-01,4.83957e-01,9.99933e-01
5.449489501e-01,4.89254e-01,9.99999e-01,9.99999e-01,9.96623e-01,4.90945e-01,9.99931e-01
5.476736949e-01,4.96386e-01,9.99999e-01,9.99999e-01,9.97006e-01,4.97892e-01,9.99966e-01
5.504120634e-01,5.03697e-01,9.99999e-01,9.99999e-01,9.97827e-01,5.04798e-01,9.99990e-01
5.531641237e-01,5.11101e-01,9.99999e-01,9.99999e-01,9.98906e-01,5.11661e-01,9.99998e-01
5.559299443e-01,5.18204e-01,9.99999e-01,9.99999e-01,9.99472e-01,5.18478e-01,9.99999e-01
5.587095940e-01,5.25075e-01,9.99999e-01,9.99999e-01,9.99668e-01,5.25249e-01,9.99999e-01
5.615031420e-01,5.31775e-01,9.99999e-01,9.99999e-01,9.99631e-01,5.31972e-01,9.99998e-01
5.643106577e-01,5.38419e-01,9.99999e-01,9.99999e-01,9.99582e-01,5.38645e-01,9.99995e-01
5.671322110e-01,5.42491e-01,9.99999e-01,9.99999e-01,9.94950e-01,5.45268e-01,9.99954e-01
5.699678720e-01,5.48790e-01,9.99999e-01,9.99999e-01,9.94610e-01,5.51840e-01,9.99861e-01
5.728177114e-01,5.55161e-01,9.99999e-01,9.99999e-01,9.94387e-01,5.58358e-01,9.99884e-01
5.756818000e-01,5.61873e-01,9.99999e-01,9.99999e-01,9.94847e-01,5.64822e-01,9.99929e-01
5.785602090e-01,5.68654e-01,9.99999e-01,9.99999e-01,9.95508e-01,5.71232e-01,9.99978e-01
5.814530100e-01,5.74974e-01,9.99999e-01,9.99999e-01,9.95489e-01,5.77585e-01,9.99989e-01
5.843602750e-01,5.80730e-01,9.99999e-01,9.99999e-01,9.94632e-01,5.83881e-01,9.99969e-01
5.872820764e-01,5.63390e-01,9.99999e-01,9.99999e-01,9.55015e-01,5.90120e-01,9.99673e-01
5.902184868e-01,5.63190e-01,9.99999e-01,9.99999e-01,9.45313e-01,5.96300e-01,9.99112e-01
5.931695792e-01,5.78578e-01,9.99999e-01,9.99999e-01,9.61242e-01,6.02420e-01,9.99146e-01
5.961354271e-01,5.82304e-01,9.99999e-01,9.99999e-01,9.57448e-01,6.08481e-01,9.99508e-01
5.991161043e-01,5.95173e-01,9.99999e-01,9.99999e-01,9.68723e-01,6.14482e-01,9.99847e-01
6.021116848e-01,6.09321e-01,9.99999e-01,9.99999e-01,9.82127e-01,6.20421e-01,9.99981e-01
6.051222432e-01,6.20608e-01,9.99999e-01,9.99999e-01,9.90915e-01,6.26298e-01,9.99998e-01
6.081478544e-01,6.29631e-01,9.99999e-01,9.99999e-01,9.96072e-01,6.32114e-01,9.99999e-01
6.111885937e-01,6.36806e-01,9.99999e-01,9.99999e-01,9.98336e-01,6.37867e-01,9.99999e-01
6.142445367e-01,6.43079e-01,9.99999e-01,9.99999e-01,9.99256e-01,6.43557e-01,9.99999e-01
6.173157594e-01,6.48918e-01,9.99999e-01,9.99999e-01,9.99590e-01,6.49184e-01,9.99999e-01
6.204023382e-01,6.54521e-01,9.99999e-01,9.99999e-01,9.99653e-01,6.54748e-01,9.99999e-01
6.235043498e-01,6.59239e-01,9.99999e-01,9.99999e-01,9.98475e-01,6.60248e-01,9.99995e-01
6.266218716e-01,6.60281e-01,9.99999e-01,9.99999e-01,9.91939e-01,6.65684e-01,9.99942e-01
6.297549810e-01,6.68993e-01,9.99999e-01,9.99999e-01,9.97037e-01,6.71057e-01,9.99886e-01
6.329037559e-01,6.72345e-01,9.99999e-01,9.99999e-01,9.94145e-01,6.76365e-01,9.99908e-01
6.360682746e-01,6.78176e-01,9.99999e-01,9.99999e-01,9.95016e-01,6.81609e-01,9.99945e-01
6.392486160e-01,6.82339e-01,9.99999e-01,9.99999e-01,9.93542e-01,6.86789e-01,9.99975e-01
6.424448591e-01,6.85917e-01,9.99999e-01,9.99999e-01,9.91382e-01,6.91905e-01,9.99961e-01
6.456570834e-01,6.69423e-01,9.99999e-01,9.99999e-01,9.60705e-01,6.96957e-01,9.99777e-01
6.488853688e-01,6.81228e-01,9.99999e-01,9.99999e-01,9.71089e-01,7.01945e-01,9.99376e-01
6.521297956e-01,6.85733e-01,9.99999e-01,9.99999e-01,9.70596e-01,7.06869e-01,9.99485e-01
6.553904446e-01,6.90521e-01,9.99999e-01,9.99999e-01,9.70572e-01,7.11730e-01,9.99616e-01
6.586673968e-01,6.98368e-01,9.99999e-01,9.99999e-01,9.74782e-01,7.16526e-01,9.99871e-01
6.619607338e-01,7.10652e-01,9.99999e-01,9.99999e-01,9.85318e-01,7.21260e-01,9.99972e-01
6.652705375e-01,7.19730e-01,9.99999e-01,9.99999e-01,9.91472e-01,7.25930e-01,9.99985e-01
6.685968902e-01,7.27635e-01,9.99999e-01,9.99999e-01,9.96029e-01,7.30537e-01,9.99997e-01
6.719398746e-01,7.33729e-01,9.99999e-01,9.99999e-01,9.98159e-01,7.35082e-01,9.99999e-01
6.752995740e-01,7.38827e-01,9.99999e-01,9.99999e-01,9.99002e-01,7.39564e-01,9.99999e-01
6.786760719e-01,7.42912e-01,9.99999e-01,9.99999e-01,9.98560e-01,7.43985e-01,9.99997e-01
6.820694522e-01,7.46489e-01,9.99999e-01,9.99999e-01,9.97534e-01,7.48343e-01,9.99986e-01
6.854797995e-01,7.50228e-01,9.99999e-01,9.99999e-01,9.96820e-01,7.52641e-01,9.99972e-01
6.889071985e-01,7.51037e-01,9.99999e-01,9.99999e-01,9.92351e-01,7.56877e-01,9.99930e-01
6.923517345e-01,6.71670e-01,9.99999e-01,9.99999e-01,8.83083e-01,7.61053e-01,9.99397e-01
6.958134932e-01,7.16338e-01,9.99999e-01,9.99999e-01,9.37432e-01,7.65169e-01,9.98666e-01
6.992925606e-01,7.22238e-01,9.99999e-01,9.99999e-01,9.40045e-01,7.69225e-01,9.98798e-01
7.027890234e-01,7.15661e-01,9.99999e-01,9.99999e-01,9.26406e-01,7.73222e-01,9.99082e-01
7.063029686e-01,7.28300e-01,9.99999e-01,9.99999e-01,9.37557e-01,7.77160e-01,9.99543e-01
7.098344834e-01,7.33934e-01,9.99999e-01,9.99999e-01,9.39942e-01,7.81040e-01,9.99729e-01
7.133836558e-01,7.22977e-01,9.99999e-01,9.99999e-01,9.21645e-01,7.84862e-01,9.99463e-01
7.169505741e-01,4.26096e-01,9.99999e-01,9.99999e-01,5.42589e-01,7.88626e-01,9.95783e-01
7.205353270e-01,5.77550e-01,9.99999e-01,9.99999e-01,7.34377e-01,7.92334e-01,9.92572e-01
7.241380036e-01,5.32881e-01,9.99999e-01,9.99999e-01,6.73784e-01,7.95985e-01,9.93582e-01
7.277586936e-01,5.57321e-01,9.99999e-01,9.99999e-01,7.00693e-01,7.99581e-01,9.94751e-01
7.313974871e-01,5.45088e-01,9.99999e-01,9.99999e-01,6.80386e-01,8.03121e-01,9.97538e-01
7.350544745e-01,6.51509e-01,9.99999e-01,9.99999e-01,8.08407e-01,8.06607e-01,9.99143e-01
7.387297469e-01,6.91387e-01,9.99999e-01,9.99999e-01,8.53857e-01,8.10038e-01,9.99607e-01
7.424233956e-01,7.52551e-01,9.99999e-01,9.99999e-01,9.25242e-01,8.13416e-01,9.99923e-01
7.461355126e-01,7.79113e-01,9.99999e-01,9.99999e-01,9.53941e-01,8.16741e-01,9.99986e-01
7.498661902e-01,8.02186e-01,9.99999e-01,9.99999e-01,9.78264e-01,8.20013e-01,9.99994e-01
7.536155211e-01,8.14405e-01,9.99999e-01,9.99999e-01,9.89277e-01,8.23234e-01,9.99996e-01
7.573835987e-01,8.21830e-01,9.99999e-01,9.99999e-01,9.94466e-01,8.26403e-01,9.99998e-01
7.611705167e-01,8.26667e-01,9.99999e-01,9.99999e-01,9.96558e-01,8.29521e-01,9.99999e-01
7.649763693e-01,8.30793e-01,9.99999e-01,9.99999e-01,9.97842e-01,8.32589e-01,9.99999e-01
7.688012511e-01,8.34352e-01,9.99999e-01,9.99999e-01,9.98497e-01,8.35608e-01,9.99999e-01
7.726452574e-01,8.37540e-01,9.99999e-01,9.99999e-01,9.98763e-01,8.38577e-01,9.99998e-01
7.765084837e-01,8.40019e-01,9.99999e-01,9.99999e-01,9.98244e-01,8.41498e-01,9.99997e-01
7.803910261e-01,8.37979e-01,9.99999e-01,9.99999e-01,9.92436e-01,8.44372e-01,9.99992e-01
7.842929812e-01,8.25033e-01,9.99999e-01,9.99999e-01,9.73885e-01,8.47198e-01,9.99950e-01
7.882144461e-01,8.04532e-01,9.99999e-01,9.99999e-01,9.46849e-01,8.49977e-01,9.99665e-01
7.921555184e-01,8.27036e-01,9.99999e-01,9.99999e-01,9.70516e-01,8.52710e-01,9.99353e-01
7.961162960e-01,8.10947e-01,9.99999e-01,9.99999e-01,9.48621e-01,8.55398e-01,9.99380e-01
8.000968774e-01,8.06530e-01,9.99999e-01,9.99999e-01,9.40584e-01,8.58041e-01,9.99341e-01
8.040973618e-01,8.09149e-01,9.99999e-01,9.99999e-01,9.40662e-01,8.60640e-01,9.99476e-01
8.081178486e-01,7.53082e-01,9.99999e-01,9.99999e-01,8.72862e-01,8.63195e-01,9.99509e-01
8.121584379e-01,4.99918e-01,9.99999e-01,9.99999e-01,5.78581e-01,8.65707e-01,9.98072e-01
8.162192301e-01,4.52891e-01,9.99999e-01,9.99999e-01,5.25454e-01,8.68177e-01,9.92772e-01
8.203003262e-01,6.38369e-01,9.99999e-01,9.99999e-01,7.39501e-01,8.70604e-01,9.91542e-01
8.244018279e-01,5.79263e-01,9.99999e-01,9.99999e-01,6.68038e-01,8.72990e-01,9.93263e-01
8.285238370e-01,5.87165e-01,9.99999e-01,9.99999e-01,6.74358e-01,8.75336e-01,9.94705e-01
8.326664562e-01,5.89706e-01,9.99999e-01,9.99999e-01,6.73397e-01,8.77641e-01,9.97806e-01
8.368297885e-01,6.58358e-01,9.99999e-01,9.99999e-01,7.48588e-01,8.79906e-01,9.99498e-01
8.410139374e-01,7.41534e-01,9.99999e-01,9.99999e-01,8.40861e-01,8.82133e-01,9.99706e-01
8.452190071e-01,8.11711e-01,9.99999e-01,9.99999e-01,9.18051e-01,8.84321e-01,9.99824e-01
8.494451021e-01,8.43343e-01,9.99999e-01,9.99999e-01,9.51482e-01,8.86471e-01,9.99859e-01
8.536923276e-01,8.62751e-01,9.99999e-01,9.99999e-01,9.71010e-01,8.88583e-01,9.99914e-01
8.579607893e-01,8.74652e-01,9.99999e-01,9.99999e-01,9.82048e-01,8.90659e-01,9.99979e-01
8.622505932e-01,8.82478e-01,9.99999e-01,9.99999e-01,9.88554e-01,8.92698e-01,9.99995e-01
8.665618462e-01,8.88356e-01,9.99999e-01,9.99999e-01,9.92908e-01,8.94702e-01,9.99997e-01
8.708946554e-01,8.89391e-01,9.99999e-01,9.99999e-01,9.91884e-01,8.96671e-01,9.99995e-01
8.752491287e-01,8.88849e-01,9.99999e-01,9.99999e-01,9.89154e-01,8.98604e-01,9.99988e-01
8.796253743e-01,8.86987e-01,9.99999e-01,9.99999e-01,9.85022e-01,9.00504e-01,9.99965e-01
8.840235012e-01,8.86862e-01,9.99999e-01,9.99999e-01,9.82916e-01,9.02370e-01,9.99894e-01
8.884436187e-01,8.50121e-01,9.99999e-01,9.99999e-01,9.40468e-01,9.04203e-01,9.99701e-01
8.928858368e-01,4.90680e-01,9.99999e-01,9.99999e-01,5.42520e-01,9.06003e-01,9.98279e-01
8.973502660e-01,3.10006e-01,9.99999e-01,9.99999e-01,3.44528e-01,9.07771e-01,9.91214e-01
9.018370173e-01,5.20084e-01,9.99999e-01,9.99999e-01,5.79818e-01,9.09508e-01,9.86221e-01
9.063462024e-01,5.53209e-01,9.99999e-01,9.99999e-01,6.14555e-01,9.11214e-01,9.87886e-01
9.108779334e-01,4.23051e-01,9.99999e-01,9.99999e-01,4.69326e-01,9.12889e-01,9.87415e-01
9.154323231e-01,3.77152e-01,9.99999e-01,9.99999e-01,4.16737e-01,9.14534e-01,9.89586e-01
9.200094847e-01,4.63630e-01,9.99999e-01,9.99999e-01,5.09037e-01,9.16149e-01,9.94158e-01
9.246095321e-01,3.46176e-01,9.99999e-01,9.99999e-01,3.79761e-01,9.17735e-01,9.93272e-01
9.292325798e-01,1.19064e-02,9.99999e-01,9.99999e-01,1.32972e-02,9.19293e-01,9.74017e-01
9.338787427e-01,8.43465e-04,9.99999e-01,9.99999e-01,1.02130e-03,9.20822e-01,8.96881e-01
9.385481364e-01,4.81758e-02,9.99999e-01,9.99999e-01,5.94511e-02,9.22323e-01,8.78588e-01
9.432408771e-01,2.17998e-02,9.99999e-01,9.99999e-01,2.63859e-02,9.23798e-01,8.94340e-01
9.479570815e-01,3.28921e-03,9.99999e-01,9.99999e-01,3.89318e-03,9.25245e-01,9.13124e-01
9.526968669e-01,1.11080e-02,9.99999e-01,9.99999e-01,1.26703e-02,9.26666e-01,9.46075e-01
9.574603512e-01,1.43030e-02,9.99999e-01,9.99999e-01,1.58518e-02,9.28061e-01,9.72234e-01
9.622476530e-01,2.82443e-02,9.99999e-01,9.99999e-01,3.09863e-02,9.29431e-01,9.80717e-01
9.670588912e-01,1.16498e-01,9.99999e-01,9.99999e-01,1.26840e-01,9.30775e-01,9.86772e-01
9.718941857e-01,2.17005e-01,9.99999e-01,9.99999e-01,2.35107e-01,9.32095e-01,9.90245e-01
9.767536566e-01,2.77101e-01,9.99999e-01,9.99999e-01,2.99108e-01,9.33391e-01,9.92537e-01
9.816374249e-01,3.71980e-01,9.99999e-01,9.99999e-01,3.99016e-01,9.34662e-01,9.97411e-01
9.865456120e-01,5.21976e-01,9.99999e-01,9.99999e-01,5.58021e-01,9.35911e-01,9.99459e-01
9.914783401e-01,6.50535e-01,9.99999e-01,9.99999e-01,6.94277e-01,9.37136e-01,9.99849e-01
9.964357318e-01,7.68875e-01,9.99999e-01,9.99999e-01,8.19471e-01,9.38339e-01,9.99912e-01
1.001417910e+00,8.33372e-01,9.99999e-01,9.99999e-01,8.87138e-01,9.39519e-01,9.99865e-01
1.006425000e+00,8.78320e-01,9.99999e-01,9.99999e-01,9.33887e-01,9.40677e-01,9.99809e-01
1.011457125e+00,9.02507e-01,9.99999e-01,9.99999e-01,9.58433e-01,9.41814e-01,9.99822e-01
1.016514411e+00,9.16016e-01,9.99999e-01,9.99999e-01,9.71577e-01,9.42930e-01,9.99874e-01
1.021596983e+00,9.22469e-01,9.99999e-01,9.99999e-01,9.77287e-01,9.44025e-01,9.99874e-01
1.026704968e+00,9.28237e-01,9.99999e-01,9.99999e-01,9.82238e-01,9.45100e-01,9.99915e-01
1.031838492e+00,9.33891e-01,9.99999e-01,9.99999e-01,9.87060e-01,9.46155e-01,9.99976e-01
1.036997685e+00,9.39890e-01,9.99999e-01,9.99999e-01,9.92296e-01,9.47190e-01,9.99995e-01
1.042182673e+00,9.39504e-01,9.99999e-01,9.99999e-01,9.90824e-01,9.48205e-01,9.99997e-01
1.047393587e+00,9.37664e-01,9.99999e-01,9.99999e-01,9.87846e-01,9.49202e-01,9.99997e-01
1.052630555e+00,9.34370e-01,9.99999e-01,9.99999e-01,9.83364e-01,9.50180e-01,9.99995e-01
1.057893707e+00,9.24885e-01,9.99999e-01,9.99999e-01,9.72405e-01,9.51139e-01,9.99989e-01
1.063183176e+00,9.09279e-01,9.99999e-01,9.99999e-01,9.55065e-01,9.52081e-01,9.99975e-01
1.068499092e+00,8.82457e-01,9.99999e-01,9.99999e-01,9.26020e-01,9.53005e-01,9.99947e-01
1.073841587e+00,8.72240e-01,9.99999e-01,9.99999e-01,9.14486e-01,9.53911e-01,9.99885e-01
1.079210795e+00,8.50815e-01,9.99999e-01,9.99999e-01,8.91365e-01,9.54801e-01,9.99691e-01
1.084606849e+00,8.03169e-01,9.99999e-01,9.99999e-01,8.41045e-01,9.55674e-01,9.99258e-01
1.090029883e+00,7.46928e-01,9.99999e-01,9.99999e-01,7.82073e-01,9.56530e-01,9.98463e-01
1.095480033e+00,4.90773e-01,9.99999e-01,9.99999e-01,5.14053e-01,9.57370e-01,9.97223e-01
1.100957433e+00,1.92839e-01,9.99999e-01,9.99999e-01,2.02285e-01,9.58194e-01,9.94895e-01
1.106462220e+00,2.72148e-02,9.99999e-01,9.99999e-01,2.86256e-02,9.59003e-01,9.91355e-01
1.111994531e+00,6.63654e-04,9.99999e-01,9.99999e-01,7.07573e-04,9.59796e-01,9.77216e-01
1.117554504e+00,2.59634e-05,9.99999e-01,9.99999e-01,2.93743e-05,9.60574e-01,9.20158e-01
1.123142276e+00,8.23468e-04,9.99999e-01,9.99999e-01,1.04344e-03,9.61338e-01,8.20924e-01
1.128757988e+00,3.26841e-03,9.99999e-01,9.99999e-01,4.26834e-03,9.62087e-01,7.95906e-01
1.134401778e+00,2.59488e-03,9.99999e-01,9.99999e-01,3.27241e-03,9.62821e-01,8.23574e-01
1.140073787e+00,2.24755e-02,9.99999e-01,9.99999e-01,2.72390e-02,9.63542e-01,8.56342e-01
1.145774156e+00,2.25587e-03,9.99999e-01,9.99999e-01,2.69634e-03,9.64249e-01,8.67658e-01
1.151503026e+00,8.30264e-04,9.99999e-01,9.99999e-01,9.31234e-04,9.64943e-01,9.23964e-01
1.157260541e+00,9.41959e-04,9.99999e-01,9.99999e-01,9.98832e-04,9.65623e-01,9.76632e-01
1.163046844e+00,5.65883e-03,9.99999e-01,9.99999e-01,5.89561e-03,9.66291e-01,9.93320e-01
1.168862078e+00,2.22892e-02,9.99999e-01,9.99999e-01,2.31309e-02,9.66945e-01,9.96553e-01
1.174706389e+00,8.75922e-02,9.99999e-01,9.99999e-01,9.09415e-02,9.67588e-01,9.95433e-01
1.180579921e+00,2.15286e-01,9.99999e-01,9.99999e-01,2.23897e-01,9.68217e-01,9.93103e-01
1.186482820e+00,4.00488e-01,9.99999e-01,9.99999e-01,4.16316e-01,9.68835e-01,9.92922e-01
1.192415234e+00,5.74078e-01,9.99999e-01,9.99999e-01,5.95332e-01,9.69441e-01,9.94694e-01
1.198377311e+00,6.24104e-01,9.99999e-01,9.99999e-01,6.46623e-01,9.70036e-01,9.94988e-01
1.204369197e+00,6.43598e-01,9.99999e-01,9.99999e-01,6.66100e-01,9.70619e-01,9.95464e-01
1.210391043e+00,6.54208e-01,9.99999e-01,9.99999e-01,6.75478e-01,9.71191e-01,9.97238e-01
1.216442998e+00,6.94779e-01,9.99999e-01,9.99999e-01,7.16187e-01,9.71752e-01,9.98307e-01
1.222525213e+00,7.47236e-01,9.99999e-01,9.99999e-01,7.69330e-01,9.72302e-01,9.98948e-01
1.228637839e+00,8.10114e-01,9.99999e-01,9.99999e-01,8.33137e-01,9.72841e-01,9.99510e-01
