#,Wave/freq,Total,N2,O2,H2O,Rayleigh,CIA
4.000000000e-01,6.07117e-01,9.99999e-01,9.99999e-01,9.99943e-01,6.07151e-01,9.99999e-01
4.020000000e-01,6.13149e-01,9.99999e-01,9.99999e-01,9.99964e-01,6.13171e-01,9.99999e-01
4.040100000e-01,6.19114e-01,9.99999e-01,9.99999e-01,9.99984e-01,6.19123e-01,9.99999e-01
4.060300500e-01,6.25013e-01,9.99999e-01,9.99999e-01,9.99996e-01,6.25015e-01,9.99999e-01
4.080602003e-01,6.30843e-01,9.99999e-01,9.99999e-01,9.99998e-01,6.30844e-01,9.99999e-01
4.101005013e-01,6.36611e-01,9.99999e-01,9.99999e-01,9.99999e-01,6.36611e-01,9.99999e-01
4.121510038e-01,6.42313e-01,9.99999e-01,9.99999e-01,9.99997e-01,6.42315e-01,9.99999e-01
4.142117588e-01,6.47946e-01,9.99999e-01,9.99999e-01,9.99984e-01,6.47956e-01,9.99999e-01
4.162828176e-01,6.53488e-01,9.99999e-01,9.99999e-01,9.99929e-01,6.53533e-01,9.99999e-01
4.183642317e-01,6.59020e-01,9.99999e-01,9.99999e-01,9.99958e-01,6.59047e-01,9.99999e-01
4.204560528e-01,6.64481e-01,9.99999e-01,9.99999e-01,9.99974e-01,6.64498e-01,9.99999e-01
4.225583331e-01,6.69878e-01,9.99999e-01,9.99999e-01,9.99990e-01,6.69884e-01,9.99999e-01
4.246711247e-01,6.75201e-01,9.99999e-01,9.99999e-01,9.99991e-01,6.75206e-01,9.99999e-01
4.267944804e-01,6.80457e-01,9.99999e-01,9.99999e-01,9.99988e-01,6.80465e-01,9.99999e-01
4.289284528e-01,6.85653e-01,9.99999e-01,9.99999e-01,9.99990e-01,6.85659e-01,9.99999e-01
4.310730950e-01,6.90786e-01,9.99999e-01,9.99999e-01,9.99995e-01,6.90789e-01,9.99999e-01
4.332284605e-01,6.95854e-01,9.99999e-01,9.99999e-01,9.99998e-01,6.95855e-01,9.99999e-01
4.353946028e-01,7.00857e-01,9.99999e-01,9.99999e-01,9.99999e-01,7.00857e-01,9.99999e-01
4.375715758e-01,7.05790e-01,9.99999e-01,9.99999e-01,9.99992e-01,7.05795e-01,9.99999e-01
4.397594337e-01,7.10626e-01,9.99999e-01,9.99999e-01,9.99938e-01,7.10669e-01,9.99999e-01
4.419582309e-01,7.15257e-01,9.99999e-01,9.99999e-01,9.99687e-01,7.15480e-01,9.99999e-01
4.441680220e-01,7.20053e-01,9.99999e-01,9.99999e-01,9.99757e-01,7.20227e-01,9.99999e-01
4.463888621e-01,7.24728e-01,9.99999e-01,9.99999e-01,9.99747e-01,7.24911e-01,9.99999e-01
4.486208064e-01,7.29418e-01,9.99999e-01,9.99999e-01,9.99842e-01,7.29532e-01,9.99999e-01
4.508639105e-01,7.34037e-01,9.99999e-01,9.99999e-01,9.99926e-01,7.34091e-01,9.99999e-01
4.531182300e-01,7.38565e-01,9.99999e-01,9.99999e-01,9.99970e-01,7.38587e-01,9.99999e-01
4.553838212e-01,7.43006e-01,9.99999e-01,9.99999e-01,9.99979e-01,7.43021e-01,9.99999e-01
4.576607403e-01,7.47386e-01,9.99999e-01,9.99999e-01,9.99990e-01,7.47393e-01,9.99999e-01
4.599490440e-01,7.51699e-01,9.99999e-01,9.99999e-01,9.99993e-01,7.51704e-01,9.99999e-01
4.622487892e-01,7.55953e-01,9.99999e-01,9.99999e-01,9.99998e-01,7.55953e-01,9.99999e-01
4.645600332e-01,7.60139e-01,9.99999e-01,9.99999e-01,9.99995e-01,7.60143e-01,9.99999e-01
4.668828333e-01,7.64215e-01,9.99999e-01,9.99999e-01,9.99925e-01,7.64271e-01,9.99999e-01
4.692172475e-01,7.68219e-01,9.99999e-01,9.99999e-01,9.99841e-01,7.68341e-01,9.99999e-01
4.715633337e-01,7.72270e-01,9.99999e-01,9.99999e-01,9.99896e-01,7.72350e-01,9.99999e-01
4.739211504e-01,7.76224e-01,9.99999e-01,9.99999e-01,9.99900e-01,7.76301e-01,9.99999e-01
4.762907561e-01,7.80154e-01,9.99999e-01,9.99999e-01,9.99948e-01,7.80194e-01,9.99999e-01
4.786722099e-01,7.84012e-01,9.99999e-01,9.99999e-01,9.99978e-01,7.84028e-01,9.99999e-01
4.810655710e-01,7.87800e-01,9.99999e-01,9.99999e-01,9.99993e-01,7.87805e-01,9.99999e-01
4.834708988e-01,7.91477e-01,9.99999e-01,9.99999e-01,9.99938e-01,7.91525e-01,9.99999e-01
4.858882533e-01,7.95100e-01,9.99999e-01,9.99999e-01,9.99887e-01,7.95189e-01,9.99999e-01
4.883176946e-01,7.98722e-01,9.99999e-01,9.99999e-01,9.99905e-01,7.98797e-01,9.99999e-01
4.907592831e-01,8.02281e-01,9.99999e-01,9.99999e-01,9.99914e-01,8.02349e-01,9.99999e-01
4.932130795e-01,8.05798e-01,9.99999e-01,9.99999e-01,9.99939e-01,8.05847e-01,9.99999e-01
4.956791449e-01,8.09265e-01,9.99999e-01,9.99999e-01,9.99967e-01,8.09290e-01,9.99999e-01
4.981575406e-01,8.12550e-01,9.99999e-01,9.99999e-01,9.99840e-01,8.12680e-01,9.99999e-01
5.006483283e-01,8.15677e-01,9.99999e-01,9.99999e-01,9.99586e-01,8.16016e-01,9.99996e-01
5.031515699e-01,8.17568e-01,9.99999e-01,9.99999e-01,9.97907e-01,8.19300e-01,9.99977e-01
5.056673278e-01,8.21603e-01,9.99999e-01,9.99999e-01,9.98895e-01,8.22532e-01,9.99974e-01
5.081956644e-01,8.24549e-01,9.99999e-01,9.99999e-01,9.98607e-01,8.25712e-01,9.99983e-01
5.107366428e-01,8.28060e-01,9.99999e-01,9.99999e-01,9.99059e-01,8.28841e-01,9.99996e-01
5.132903260e-01,8.31473e-01,9.99999e-01,9.99999e-01,9.99462e-01,8.31920e-01,9.99999e-01
5.158567776e-01,8.34760e-01,9.99999e-01,9.99999e-01,9.99772e-01,8.34950e-01,9.99999e-01
5.184360615e-01,8.37854e-01,9.99999e-01,9.99999e-01,9.99908e-01,8.37930e-01,9.99999e-01
5.210282418e-01,8.40833e-01,9.99999e-01,9.99999e-01,9.99965e-01,8.40862e-01,9.99999e-01
5.236333830e-01,8.43630e-01,9.99999e-01,9.99999e-01,9.99863e-01,8.43745e-01,9.99998e-01
5.262515499e-01,8.46509e-01,9.99999e-01,9.99999e-01,9.99914e-01,8.46582e-01,9.99998e-01
5.288828077e-01,8.49304e-01,9.99999e-01,9.99999e-01,9.99921e-01,8.49371e-01,9.99998e-01
5.315272217e-01,8.52056e-01,9.99999e-01,9.99999e-01,9.99930e-01,8.52115e-01,9.99999e-01
5.341848578e-01,8.54774e-01,9.99999e-01,9.99999e-01,9.99954e-01,8.54813e-01,9.99999e-01
5.368557821e-01,8.57329e-01,9.99999e-01,9.99999e-01,9.99840e-01,8.57466e-01,9.99999e-01
5.395400610e-01,8.59576e-01,9.99999e-01,9.99999e-01,9.99425e-01,8.60074e-01,9.99994e-01
5.422377613e-01,8.61989e-01,9.99999e-01,9.99999e-01,9.99259e-01,8.62639e-01,9.99986e-01
5.449489501e-01,8.64552e-01,9.99999e-01,9.99999e-01,9.99310e-01,8.65160e-01,9.99985e-01
5.476736949e-01,8.67104e-01,9.99999e-01,9.99999e-01,9.99390e-01,8.67639e-01,9.99992e-01
5.504120634e-01,8.69689e-01,9.99999e-01,9.99999e-01,9.99557e-01,8.70075e-01,9.99997e-01
5.531641237e-01,8.72276e-01,9.99999e-01,9.99999e-01,9.99776e-01,8.72471e-01,9.99999e-01
5.559299443e-01,8.74731e-01,9.99999e-01,9.99999e-01,9.99892e-01,8.74825e-01,9.99999e-01
5.587095940e-01,8.77080e-01,9.99999e-01,9.99999e-01,9.99932e-01,8.77139e-01,9.99999e-01
5.615031420e-01,8.79347e-01,9.99999e-01,9.99999e-01,9.99924e-01,8.79413e-01,9.99999e-01
5.643106577e-01,8.81572e-01,9.99999e-01,9.99999e-01,9.99914e-01,8.81648e-01,9.99998e-01
5.671322110e-01,8.82919e-01,9.99999e-01,9.99999e-01,9.98961e-01,8.83844e-01,9.99990e-01
5.699678720e-01,8.85004e-01,9.99999e-01,9.99999e-01,9.98900e-01,8.86002e-01,9.99971e-01
5.728177114e-01,8.87085e-01,9.99999e-01,9.99999e-01,9.98853e-01,8.88123e-01,9.99976e-01
5.756818000e-01,8.89258e-01,9.99999e-01,9.99999e-01,9.98948e-01,8.90207e-01,9.99985e-01
5.785602090e-01,8.91433e-01,9.99999e-01,9.99999e-01,9.99083e-01,8.92254e-01,9.99995e-01
5.814530100e-01,8.93441e-01,9.99999e-01,9.99999e-01,9.99079e-01,8.94266e-01,9.99997e-01
5.843602750e-01,8.95252e-01,9.99999e-01,9.99999e-01,9.98900e-01,8.96242e-01,9.99993e-01
5.872820764e-01,8.89656e-01,9.99999e-01,9.99999e-01,9.90571e-01,8.98183e-01,9.99933e-01
5.902184868e-01,8.89662e-01,9.99999e-01,9.99999e-01,9.88592e-01,9.00090e-01,9.99818e-01
5.931695792e-01,8.94530e-01,9.99999e-01,9.99999e-01,9.91930e-01,9.01964e-01,9.99825e-01
5.961354271e-01,8.95722e-01,9.99999e-01,9.99999e-01,9.91156e-01,9.03804e-01,9.99899e-01
5.991161043e-01,8.99737e-01,9.99999e-01,9.99999e-01,9.93543e-01,9.05611e-01,9.99968e-01
6.021116848e-01,9.04056e-01,9.99999e-01,9.99999e-01,9.96332e-01,9.07386e-01,9.99996e-01
6.051222432e-01,9.07442e-01,9.99999e-01,9.99999e-01,9.98142e-01,9.09130e-01,9.99999e-01
6.081478544e-01,9.10113e-01,9.99999e-01,9.99999e-01,9.99198e-01,9.10842e-01,9.99999e-01
6.111885937e-01,9.12215e-01,9.99999e-01,9.99999e-01,9.99660e-01,9.12524e-01,9.99999e-01
6.142445367e-01,9.14037e-01,9.99999e-01,9.99999e-01,9.99848e-01,9.14175e-01,9.99999e-01
6.173157594e-01,9.15721e-01,9.99999e-01,9.99999e-01,9.99916e-01,9.15797e-01,9.99999e-01
6.204023382e-01,9.17325e-01,9.99999e-01,9.99999e-01,9.99928e-01,9.17390e-01,9.99999e-01
6.235043498e-01,9.18666e-01,9.99999e-01,9.99999e-01,9.99687e-01,9.18953e-01,9.99998e-01
6.266218716e-01,9.18961e-01,9.99999e-01,9.99999e-01,9.98351e-01,9.20489e-01,9.99987e-01
6.297549810e-01,9.21418e-01,9.99999e-01,9.99999e-01,9.99394e-01,9.21996e-01,9.99976e-01
6.329037559e-01,9.22357e-01,9.99999e-01,9.99999e-01,9.98805e-01,9.23477e-01,9.99980e-01
6.360682746e-01,9.23979e-01,9.99999e-01,9.99999e-01,9.98981e-01,9.24930e-01,9.99988e-01
6.392486160e-01,9.25131e-01,9.99999e-01,9.99999e-01,9.98681e-01,9.26357e-01,9.99994e-01
6.424448591e-01,9.26111e-01,9.99999e-01,9.99999e-01,9.98232e-01,9.27758e-01,9.99991e-01
6.456570834e-01,9.21492e-01,9.99999e-01,9.99999e-01,9.91821e-01,9.29133e-01,9.99954e-01
6.488853688e-01,9.24799e-01,9.99999e-01,9.99999e-01,9.94017e-01,9.30483e-01,9.99872e-01
6.521297956e-01,9.26031e-01,9.99999e-01,9.99999e-01,9.93903e-01,9.31808e-01,9.99894e-01
6.553904446e-01,9.27367e-01,9.99999e-01,9.99999e-01,9.93923e-01,9.33109e-01,9.99921e-01
6.586673968e-01,9.29502e-01,9.99999e-01,9.99999e-01,9.94798e-01,9.34386e-01,9.99973e-01
6.619607338e-01,9.32919e-01,9.99999e-01,9.99999e-01,9.97098e-01,9.35639e-01,9.99993e-01
6.652705375e-01,9.35234e-01,9.99999e-01,9.99999e-01,9.98257e-01,9.36869e-01,9.99996e-01
6.685968902e-01,9.37317e-01,9.99999e-01,9.99999e-01,9.99190e-01,9.38077e-01,9.99999e-01
6.719398746e-01,9.38910e-01,9.99999e-01,9.99999e-01,9.99624e-01,9.39262e-01,9.99999e-01
6.752995740e-01,9.40234e-01,9.99999e-01,9.99999e-01,9.99796e-01,9.40425e-01,9.99999e-01
6.786760719e-01,9.41290e-01,9.99999e-01,9.99999e-01,9.99705e-01,9.41567e-01,9.99999e-01
6.820694522e-01,9.42211e-01,9.99999e-01,9.99999e-01,9.99496e-01,9.42687e-01,9.99996e-01
6.854797995e-01,9.43170e-01,9.99999e-01,9.99999e-01,9.99350e-01,9.43787e-01,9.99993e-01
6.889071985e-01,9.43366e-01,9.99999e-01,9.99999e-01,9.98425e-01,9.44866e-01,9.99985e-01
6.923517345e-01,9.21827e-01,9.99999e-01,9.99999e-01,9.74643e-01,9.45925e-01,9.99876e-01
6.958134932e-01,9.34199e-01,9.99999e-01,9.99999e-01,9.86787e-01,9.46964e-01,9.99727e-01
6.992925606e-01,9.35799e-01,9.99999e-01,9.99999e-01,9.87387e-01,9.47984e-01,9.99754e-01
7.027890234e-01,9.34070e-01,9.99999e-01,9.99999e-01,9.84467e-01,9.48985e-01,9.99812e-01
7.063029686e-01,9.37454e-01,9.99999e-01,9.99999e-01,9.86919e-01,9.49967e-01,9.99906e-01
7.098344834e-01,9.38940e-01,9.99999e-01,9.99999e-01,9.87444e-01,9.50930e-01,9.99944e-01
7.133836558e-01,9.35866e-01,9.99999e-01,9.99999e-01,9.83287e-01,9.51876e-01,9.99890e-01
7.169505741e-01,8.32285e-01,9.99999e-01,9.99999e-01,8.74263e-01,9.52804e-01,9.99138e-01
7.205353270e-01,8.91673e-01,9.99999e-01,9.99999e-01,9.36370e-01,9.53714e-01,9.98480e-01
7.241380036e-01,8.76691e-01,9.99999e-01,9.99999e-01,9.19584e-01,9.54607e-01,9.98687e-01
7.277586936e-01,8.84945e-01,9.99999e-01,9.99999e-01,9.27168e-01,9.55484e-01,9.98927e-01
7.313974871e-01,8.81913e-01,9.99999e-01,9.99999e-01,9.22634e-01,9.56343e-01,9.99497e-01
7.350544745e-01,9.15785e-01,9.99999e-01,9.99999e-01,9.56913e-01,9.57187e-01,9.99824e-01
7.387297469e-01,9.27363e-01,9.99999e-01,9.99999e-01,9.68081e-01,9.58015e-01,9.99919e-01
7.424233956e-01,9.43716e-01,9.99999e-01,9.99999e-01,9.84254e-01,9.58827e-01,9.99984e-01
7.461355126e-01,9.50434e-01,9.99999e-01,9.99999e-01,9.90426e-01,9.59623e-01,9.99996e-01
7.498661902e-01,9.56115e-01,9.99999e-01,9.99999e-01,9.95534e-01,9.60405e-01,9.99998e-01
7.536155211e-01,9.59063e-01,9.99999e-01,9.99999e-01,9.97806e-01,9.61171e-01,9.99998e-01
7.573835987e-01,9.60837e-01,9.99999e-01,9.99999e-01,9.98870e-01,9.61924e-01,9.99999e-01
7.611705167e-01,9.61986e-01,9.99999e-01,9.99999e-01,9.99297e-01,9.62661e-01,9.99999e-01
7.649763693e-01,9.62961e-01,9.99999e-01,9.99999e-01,9.99559e-01,9.63385e-01,9.99999e-01
7.688012511e-01,9.63800e-01,9.99999e-01,9.99999e-01,9.99693e-01,9.64095e-01,9.99999e-01
7.726452574e-01,9.64549e-01,9.99999e-01,9.99999e-01,9.99747e-01,9.64792e-01,9.99999e-01
7.765084837e-01,9.65128e-01,9.99999e-01,9.99999e-01,9.99640e-01,9.65475e-01,9.99999e-01
7.803910261e-01,9.64646e-01,9.99999e-01,9.99999e-01,9.98449e-01,9.66145e-01,9.99998e-01
7.842929812e-01,9.61569e-01,9.99999e-01,9.99999e-01,9.94596e-01,9.66803e-01,9.99989e-01
7.882144461e-01,9.56645e-01,9.99999e-01,9.99999e-01,9.88909e-01,9.67448e-01,9.99923e-01
7.921555184e-01,9.62058e-01,9.99999e-01,9.99999e-01,9.93910e-01,9.68080e-01,9.99866e-01
7.961162960e-01,9.58160e-01,9.99999e-01,9.99999e-01,9.89242e-01,9.68701e-01,9.99873e-01
8.000968774e-01,9.57150e-01,9.99999e-01,9.99999e-01,9.87587e-01,9.69310e-01,9.99865e-01
8.040973618e-01,9.57762e-01,9.99999e-01,9.99999e-01,9.87583e-01,9.69906e-01,9.99892e-01
8.081178486e-01,9.43450e-01,9.99999e-01,9.99999e-01,9.72232e-01,9.70492e-01,9.99899e-01
8.121584379e-01,8.63616e-01,9.99999e-01,9.99999e-01,8.89697e-01,9.71066e-01,9.99606e-01
8.162192301e-01,8.44858e-01,9.99999e-01,9.99999e-01,8.70813e-01,9.71630e-01,9.98521e-01
8.203003262e-01,9.06529e-01,9.99999e-01,9.99999e-01,9.34084e-01,9.72182e-01,9.98269e-01
8.244018279e-01,8.83903e-01,9.99999e-01,9.99999e-01,9.09941e-01,9.72724e-01,9.98622e-01
8.285238370e-01,8.94865e-01,9.99999e-01,9.99999e-01,9.20450e-01,9.73256e-01,9.98917e-01
8.326664562e-01,8.95238e-01,9.99999e-01,9.99999e-01,9.19757e-01,9.73777e-01,9.99552e-01
8.368297885e-01,9.17522e-01,9.99999e-01,9.99999e-01,9.41831e-01,9.74288e-01,9.99897e-01
8.410139374e-01,9.40616e-01,9.99999e-01,9.99999e-01,9.64999e-01,9.74789e-01,9.99939e-01
8.452190071e-01,9.58354e-01,9.99999e-01,9.99999e-01,9.82678e-01,9.75281e-01,9.99963e-01
8.494451021e-01,9.65888e-01,9.99999e-01,9.99999e-01,9.89907e-01,9.75763e-01,9.99970e-01
8.536923276e-01,9.70386e-01,9.99999e-01,9.99999e-01,9.94024e-01,9.76236e-01,9.99982e-01
8.579607893e-01,9.73097e-01,9.99999e-01,9.99999e-01,9.96314e-01,9.76700e-01,9.99995e-01
8.622505932e-01,9.74866e-01,9.99999e-01,9.99999e-01,9.97658e-01,9.77155e-01,9.99998e-01
8.665618462e-01,9.76184e-01,9.99999e-01,9.99999e-01,9.98550e-01,9.77601e-01,9.99999e-01
8.708946554e-01,9.76414e-01,9.99999e-01,9.99999e-01,9.98339e-01,9.78039e-01,9.99998e-01
8.752491287e-01,9.76293e-01,9.99999e-01,9.99999e-01,9.97779e-01,9.78468e-01,9.99997e-01
8.796253743e-01,9.75872e-01,9.99999e-01,9.99999e-01,9.96924e-01,9.78889e-01,9.99992e-01
8.840235012e-01,9.75842e-01,9.99999e-01,9.99999e-01,9.96487e-01,9.79301e-01,9.99978e-01
8.884436187e-01,9.67150e-01,9.99999e-01,9.99999e-01,9.87243e-01,9.79706e-01,9.99938e-01
8.928858368e-01,8.56733e-01,9.99999e-01,9.99999e-01,8.74431e-01,9.80103e-01,9.99648e-01
8.973502660e-01,7.72797e-01,9.99999e-01,9.99999e-01,7.89592e-01,9.80492e-01,9.98201e-01
9.018370173e-01,8.67147e-01,9.99999e-01,9.99999e-01,8.86560e-01,9.80874e-01,9.97174e-01
9.063462024e-01,8.79906e-01,9.99999e-01,9.99999e-01,8.98952e-01,9.81248e-01,9.97517e-01
9.108779334e-01,8.29423e-01,9.99999e-01,9.99999e-01,8.47142e-01,9.81615e-01,9.97420e-01
9.154323231e-01,8.11238e-01,9.99999e-01,9.99999e-01,8.27894e-01,9.81975e-01,9.97867e-01
9.200094847e-01,8.46599e-01,9.99999e-01,9.99999e-01,8.62859e-01,9.82327e-01,9.98805e-01
9.246095321e-01,7.83469e-01,9.99999e-01,9.99999e-01,7.98381e-01,9.82673e-01,9.98624e-01
9.292325798e-01,2.33500e-01,9.99999e-01,9.99999e-01,2.38813e-01,9.83013e-01,9.94645e-01
9.338787427e-01,1.52255e-01,9.99999e-01,9.99999e-01,1.58308e-01,9.83345e-01,9.78052e-01
9.385481364e-01,4.52400e-01,9.99999e-01,9.99999e-01,4.72210e-01,9.83672e-01,9.73951e-01
9.432408771e-01,3.50119e-01,9.99999e-01,9.99999e-01,3.64009e-01,9.83992e-01,9.77486e-01
9.479570815e-01,2.40251e-01,9.99999e-01,9.99999e-01,2.48647e-01,9.84305e-01,9.81638e-01
9.526968669e-01,3.32563e-01,9.99999e-01,9.99999e-01,3.41599e-01,9.84613e-01,9.88760e-01
9.574603512e-01,3.52757e-01,9.99999e-01,9.99999e-01,3.60222e-01,9.84914e-01,9.94274e-01
9.622476530e-01,4.22474e-01,9.99999e-01,9.99999e-01,4.30522e-01,9.85210e-01,9.96037e-01
9.670588912e-01,6.02223e-01,9.99999e-01,9.99999e-01,6.12745e-01,9.85500e-01,9.97288e-01
9.718941857e-01,7.19661e-01,9.99999e-01,9.99999e-01,7.31499e-01,9.85785e-01,9.98002e-01
9.767536566e-01,7.59219e-01,9.99999e-01,9.99999e-01,7.71125e-01,9.86063e-01,9.98473e-01
9.816374249e-01,8.12561e-01,9.99999e-01,9.99999e-01,8.24251e-01,9.86337e-01,9.99471e-01
9.865456120e-01,8.74040e-01,9.99999e-01,9.99999e-01,8.86004e-01,9.86605e-01,9.99889e-01
9.914783401e-01,9.15583e-01,9.99999e-01,9.99999e-01,9.27794e-01,9.86868e-01,9.99969e-01
9.964357318e-01,9.47631e-01,9.99999e-01,9.99999e-01,9.60007e-01,9.87125e-01,9.99981e-01
1.001417910e+00,9.63486e-01,9.99999e-01,9.99999e-01,9.75828e-01,9.87378e-01,9.99972e-01
1.006425000e+00,9.73903e-01,9.99999e-01,9.99999e-01,9.86143e-01,9.87626e-01,9.99960e-01
1.011457125e+00,9.79321e-01,9.99999e-01,9.99999e-01,9.91382e-01,9.87869e-01,9.99963e-01
1.016514411e+00,9.82292e-01,9.99999e-01,9.99999e-01,9.94140e-01,9.88107e-01,9.99974e-01
1.021596983e+00,9.83698e-01,9.99999e-01,9.99999e-01,9.95327e-01,9.88340e-01,9.99973e-01
1.026704968e+00,9.84949e-01,9.99999e-01,9.99999e-01,9.96354e-01,9.88569e-01,9.99982e-01
1.031838492e+00,9.86169e-01,9.99999e-01,9.99999e-01,9.97349e-01,9.88794e-01,9.99994e-01
1.036997685e+00,9.87456e-01,9.99999e-01,9.99999e-01,9.98424e-01,9.89014e-01,9.99998e-01
1.042182673e+00,9.87371e-01,9.99999e-01,9.99999e-01,9.98120e-01,9.89230e-01,9.99999e-01
1.047393587e+00,9.86977e-01,9.99999e-01,9.99999e-01,9.97509e-01,9.89441e-01,9.99999e-01
1.052630555e+00,9.86267e-01,9.99999e-01,9.99999e-01,9.96583e-01,9.89649e-01,9.99998e-01
1.057893707e+00,9.84209e-01,9.99999e-01,9.99999e-01,9.94300e-01,9.89852e-01,9.99997e-01
1.063183176e+00,9.80780e-01,9.99999e-01,9.99999e-01,9.90639e-01,9.90052e-01,9.99994e-01
1.068499092e+00,9.74768e-01,9.99999e-01,9.99999e-01,9.84378e-01,9.90247e-01,9.99988e-01
1.073841587e+00,9.72340e-01,9.99999e-01,9.99999e-01,9.81749e-01,9.90439e-01,9.99976e-01
1.079210795e+00,9.67456e-01,9.99999e-01,9.99999e-01,9.76671e-01,9.90627e-01,9.99936e-01
1.084606849e+00,9.55896e-01,9.99999e-01,9.99999e-01,9.64906e-01,9.90811e-01,9.99848e-01
1.090029883e+00,9.41150e-01,9.99999e-01,9.99999e-01,9.50002e-01,9.90992e-01,9.99686e-01
1.095480033e+00,8.61526e-01,9.99999e-01,9.99999e-01,8.69694e-01,9.91169e-01,9.99432e-01
1.100957433e+00,6.96536e-01,9.99999e-01,9.99999e-01,7.03351e-01,9.91343e-01,9.98956e-01
1.106462220e+00,4.15448e-01,9.99999e-01,9.99999e-01,4.19746e-01,9.91513e-01,9.98230e-01
1.111994531e+00,1.65586e-01,9.99999e-01,9.99999e-01,1.67762e-01,9.91680e-01,9.95311e-01
1.117554504e+00,5.87200e-02,9.99999e-01,9.99999e-01,6.02159e-02,9.91843e-01,9.83175e-01
1.123142276e+00,1.36459e-01,9.99999e-01,9.99999e-01,1.43206e-01,9.92004e-01,9.60562e-01
1.128757988e+00,2.49568e-01,9.99999e-01,9.99999e-01,2.63524e-01,9.92161e-01,9.54519e-01
1.134401778e+00,1.13035e-01,9.99999e-01,9.99999e-01,1.18509e-01,9.92315e-01,9.61193e-01
1.140073787e+00,4.20656e-01,9.99999e-01,9.99999e-01,4.37466e-01,9.92467e-01,9.68871e-01
1.145774156e+00,1.88124e-01,9.99999e-01,9.99999e-01,1.95090e-01,9.92615e-01,9.71468e-01
1.151503026e+00,1.60874e-01,9.99999e-01,9.99999e-01,1.64681e-01,9.92760e-01,9.84003e-01
1.157260541e+00,2.00192e-01,9.99999e-01,9.99999e-01,2.02598e-01,9.92903e-01,9.95189e-01
1.163046844e+00,3.01690e-01,9.99999e-01,9.99999e-01,3.04219e-01,9.93042e-01,9.98634e-01
1.168862078e+00,4.25539e-01,9.99999e-01,9.99999e-01,4.28763e-01,9.93179e-01,9.99295e-01
1.174706389e+00,5.87705e-01,9.99999e-01,9.99999e-01,5.92212e-01,9.93313e-01,9.99066e-01
1.180579921e+00,7.20020e-01,9.99999e-01,9.99999e-01,7.25793e-01,9.93445e-01,9.98589e-01
1.186482820e+00,8.26933e-01,9.99999e-01,9.99999e-01,8.33487e-01,9.93574e-01,9.98552e-01
1.192415234e+00,8.92320e-01,9.99999e-01,9.99999e-01,8.98950e-01,9.93701e-01,9.98915e-01
1.198377311e+00,9.07563e-01,9.99999e-01,9.99999e-01,9.14138e-01,9.93825e-01,9.98975e-01
1.204369197e+00,9.12346e-01,9.99999e-01,9.99999e-01,9.18753e-01,9.93946e-01,9.99073e-01
1.210391043e+00,9.16067e-01,9.99999e-01,9.99999e-01,9.22055e-01,9.94065e-01,9.99435e-01
1.216442998e+00,9.27570e-01,9.99999e-01,9.99999e-01,9.33319e-01,9.94182e-01,9.99654e-01
1.222525213e+00,9.42019e-01,9.99999e-01,9.99999e-01,9.47624e-01,9.94297e-01,9.99785e-01
1.228637839e+00,9.57841e-01,9.99999e-01,9.99999e-01,9.63321e-01,9.94409e-01,9.99899e-01
