#,Wave/freq,Total,N2,O2,H2O,Rayleigh,CIA
4.000000000e-01,2.89890e-03,9.99999e-01,9.99999e-01,9.99341e-01,2.90081e-03,9.99999e-01
4.020000000e-01,3.25473e-03,9.99999e-01,9.99999e-01,9.99592e-01,3.25606e-03,9.99999e-01
4.040100000e-01,3.64542e-03,9.99999e-01,9.99999e-01,9.99827e-01,3.64605e-03,9.99999e-01
4.060300500e-01,4.07348e-03,9.99999e-01,9.99999e-01,9.99960e-01,4.07364e-03,9.99999e-01
4.080602003e-01,4.54136e-03,9.99999e-01,9.99999e-01,9.99986e-01,4.54142e-03,9.99999e-01
4.101005013e-01,5.05204e-03,9.99999e-01,9.99999e-01,9.99998e-01,5.05205e-03,9.99999e-01
4.121510038e-01,5.60814e-03,9.99999e-01,9.99999e-01,9.99975e-01,5.60828e-03,9.99999e-01
4.142117588e-01,6.21179e-03,9.99999e-01,9.99999e-01,9.99816e-01,6.21292e-03,9.99999e-01
4.162828176e-01,6.86324e-03,9.99999e-01,9.99999e-01,9.99183e-01,6.86885e-03,9.99999e-01
4.183642317e-01,7.57531e-03,9.99999e-01,9.99999e-01,9.99514e-01,7.57898e-03,9.99999e-01
4.204560528e-01,8.34382e-03,9.99999e-01,9.99999e-01,9.99703e-01,8.34629e-03,9.99999e-01
4.225583331e-01,9.17279e-03,9.99999e-01,9.99999e-01,9.99889e-01,9.17380e-03,9.99999e-01
4.246711247e-01,1.00636e-02,9.99999e-01,9.99999e-01,9.99910e-01,1.00645e-02,9.99999e-01
4.267944804e-01,1.10201e-02,9.99999e-01,9.99999e-01,9.99869e-01,1.10216e-02,9.99999e-01
4.289284528e-01,1.20468e-02,9.99999e-01,9.99999e-01,9.99898e-01,1.20480e-02,9.99999e-01
4.310730950e-01,1.31463e-02,9.99999e-01,9.99999e-01,9.99957e-01,1.31468e-02,9.99999e-01
4.332284605e-01,1.43210e-02,9.99999e-01,9.99999e-01,9.99988e-01,1.43212e-02,9.99999e-01
4.353946028e-01,1.55740e-02,9.99999e-01,9.99999e-01,9.99994e-01,1.55741e-02,9.99999e-01
4.375715758e-01,1.69072e-02,9.99999e-01,9.99999e-01,9.99917e-01,1.69086e-02,9.99999e-01
4.397594337e-01,1.83144e-02,9.99999e-01,9.99999e-01,9.99278e-01,1.83276e-02,9.99999e-01
4.419582309e-01,1.97615e-02,9.99999e-01,9.99999e-01,9.96333e-01,1.98342e-02,9.99999e-01
4.441680220e-01,2.13705e-02,9.99999e-01,9.99999e-01,9.97172e-01,2.14311e-02,9.99999e-01
4.463888621e-01,2.30529e-02,9.99999e-01,9.99999e-01,9.97046e-01,2.31212e-02,9.99999e-01
4.486208064e-01,2.48617e-02,9.99999e-01,9.99999e-01,9.98172e-01,2.49072e-02,9.99999e-01
4.508639105e-01,2.67689e-02,9.99999e-01,9.99999e-01,9.99144e-01,2.67918e-02,9.99999e-01
4.531182300e-01,2.87678e-02,9.99999e-01,9.99999e-01,9.99662e-01,2.87775e-02,9.99999e-01
4.553838212e-01,3.08596e-02,9.99999e-01,9.99999e-01,9.99769e-01,3.08667e-02,9.99999e-01
4.576607403e-01,3.30583e-02,9.99999e-01,9.99999e-01,9.99893e-01,3.30618e-02,9.99999e-01
4.599490440e-01,3.53624e-02,9.99999e-01,9.99999e-01,9.99924e-01,3.53650e-02,9.99999e-01
4.622487892e-01,3.77779e-02,9.99999e-01,9.99999e-01,9.99986e-01,3.77784e-02,9.99999e-01
4.645600332e-01,4.03017e-02,9.99999e-01,9.99999e-01,9.99947e-01,4.03038e-02,9.99999e-01
4.668828333e-01,4.29057e-02,9.99999e-01,9.99999e-01,9.99127e-01,4.29432e-02,9.99999e-01
4.692172475e-01,4.56134e-02,9.99999e-01,9.99999e-01,9.98146e-01,4.56980e-02,9.99999e-01
4.715633337e-01,4.85111e-02,9.99999e-01,9.99999e-01,9.98786e-01,4.85700e-02,9.99999e-01
4.739211504e-01,5.15007e-02,9.99999e-01,9.99999e-01,9.98842e-01,5.15603e-02,9.99999e-01
4.762907561e-01,5.46375e-02,9.99999e-01,9.99999e-01,9.99401e-01,5.46702e-02,9.99999e-01
4.786722099e-01,5.78864e-02,9.99999e-01,9.99999e-01,9.99755e-01,5.79006e-02,9.99999e-01
4.810655710e-01,6.12479e-02,9.99999e-01,9.99999e-01,9.99926e-01,6.12524e-02,9.99999e-01
4.834708988e-01,6.46797e-02,9.99999e-01,9.99999e-01,9.99279e-01,6.47262e-02,9.99999e-01
4.858882533e-01,6.82331e-02,9.99999e-01,9.99999e-01,9.98689e-01,6.83226e-02,9.99999e-01
4.883176946e-01,7.19625e-02,9.99999e-01,9.99999e-01,9.98898e-01,7.20418e-02,9.99999e-01
4.907592831e-01,7.58088e-02,9.99999e-01,9.99999e-01,9.99008e-01,7.58840e-02,9.99999e-01
4.932130795e-01,7.97930e-02,9.99999e-01,9.99999e-01,9.99296e-01,7.98491e-02,9.99999e-01
4.956791449e-01,8.39057e-02,9.99999e-01,9.99999e-01,9.99628e-01,8.39369e-02,9.99999e-01
4.981575406e-01,8.79826e-02,9.99999e-01,9.99999e-01,9.98135e-01,8.81470e-02,9.99999e-01
5.006483283e-01,9.20277e-02,9.99999e-01,9.99999e-01,9.95154e-01,9.24788e-02,9.99967e-01
5.031515699e-01,9.45685e-02,9.99999e-01,9.99999e-01,9.75869e-01,9.69316e-02,9.99743e-01
5.056673278e-01,1.00173e-01,9.99999e-01,9.99999e-01,9.87175e-01,1.01504e-01,9.99706e-01
5.081956644e-01,1.04462e-01,9.99999e-01,9.99999e-01,9.83840e-01,1.06196e-01,9.99821e-01
5.107366428e-01,1.09791e-01,9.99999e-01,9.99999e-01,9.89080e-01,1.11006e-01,9.99969e-01
5.132903260e-01,1.15208e-01,9.99999e-01,9.99999e-01,9.93754e-01,1.15932e-01,9.99995e-01
5.158567776e-01,1.20654e-01,9.99999e-01,9.99999e-01,9.97362e-01,1.20973e-01,9.99999e-01
5.184360615e-01,1.25993e-01,9.99999e-01,9.99999e-01,9.98943e-01,1.26127e-01,9.99999e-01
5.210282418e-01,1.31340e-01,9.99999e-01,9.99999e-01,9.99603e-01,1.31392e-01,9.99999e-01
5.236333830e-01,1.36546e-01,9.99999e-01,9.99999e-01,9.98404e-01,1.36766e-01,9.99988e-01
5.262515499e-01,1.42103e-01,9.99999e-01,9.99999e-01,9.99001e-01,1.42248e-01,9.99984e-01
5.288828077e-01,1.47697e-01,9.99999e-01,9.99999e-01,9.99080e-01,1.47834e-01,9.99989e-01
5.315272217e-01,1.53400e-01,9.99999e-01,9.99999e-01,9.99198e-01,1.53523e-01,9.99997e-01
5.341848578e-01,1.59228e-01,9.99999e-01,9.99999e-01,9.99471e-01,1.59312e-01,9.99999e-01
5.368557821e-01,1.64890e-01,9.99999e-01,9.99999e-01,9.98137e-01,1.65198e-01,9.99995e-01
5.395400610e-01,1.70017e-01,9.99999e-01,9.99999e-01,9.93270e-01,1.71180e-01,9.99936e-01
5.422377613e-01,1.75697e-01,9.99999e-01,9.99999e-01,9.91377e-01,1.77253e-01,9.99841e-01
5.449489501e-01,1.81908e-01,9.99999e-01,9.99999e-01,9.91940e-01,1.83415e-01,9.99837e-01
5.476736949e-01,1.88303e-01,9.99999e-01,9.99999e-01,9.92902e-01,1.89664e-01,9.99920e-01
5.504120634e-01,1.94981e-01,9.99999e-01,9.99999e-01,9.94845e-01,1.95996e-01,9.99977e-01
5.531641237e-01,2.01882e-01,9.99999e-01,9.99999e-01,9.97406e-01,2.02407e-01,9.99996e-01
5.559299443e-01,2.08635e-01,9.99999e-01,9.99999e-01,9.98749e-01,2.08896e-01,9.99999e-01
5.587095940e-01,2.15289e-01,9.99999e-01,9.99999e-01,9.99212e-01,2.15458e-01,9.99999e-01
5.615031420e-01,2.21896e-01,9.99999e-01,9.99999e-01,9.99122e-01,2.22091e-01,9.99998e-01
5.643106577e-01,2.28559e-01,9.99999e-01,9.99999e-01,9.98996e-01,2.28791e-01,9.99991e-01
5.671322110e-01,2.32678e-01,9.99999e-01,9.99999e-01,9.87895e-01,2.35554e-01,9.99892e-01
5.699678720e-01,2.39224e-01,9.99999e-01,9.99999e-01,9.87307e-01,2.42378e-01,9.99672e-01
5.728177114e-01,2.45865e-01,9.99999e-01,9.99999e-01,9.86651e-01,2.49259e-01,9.99726e-01
5.756818000e-01,2.53019e-01,9.99999e-01,9.99999e-01,9.87763e-01,2.56194e-01,9.99841e-01
5.785602090e-01,2.60365e-01,9.99999e-01,9.99999e-01,9.89352e-01,2.63179e-01,9.99954e-01
5.814530100e-01,2.67311e-01,9.99999e-01,9.99999e-01,9.89290e-01,2.70211e-01,9.99976e-01
5.843602750e-01,2.73720e-01,9.99999e-01,9.99999e-01,9.87207e-01,2.77286e-01,9.99928e-01
5.872820764e-01,2.54934e-01,9.99999e-01,9.99999e-01,8.97080e-01,2.84401e-01,9.99225e-01
5.902184868e-01,2.54627e-01,9.99999e-01,9.99999e-01,8.75189e-01,2.91553e-01,9.97893e-01
5.931695792e-01,2.71579e-01,9.99999e-01,9.99999e-01,9.10930e-01,2.98738e-01,9.97973e-01
5.961354271e-01,2.75704e-01,9.99999e-01,9.99999e-01,9.02182e-01,3.05953e-01,9.98834e-01
5.991161043e-01,2.90349e-01,9.99999e-01,9.99999e-01,9.27389e-01,3.13195e-01,9.99639e-01
6.021116848e-01,3.07037e-01,9.99999e-01,9.99999e-01,9.58150e-01,3.20460e-01,9.99959e-01
6.051222432e-01,3.20730e-01,9.99999e-01,9.99999e-01,9.78599e-01,3.27745e-01,9.99997e-01
6.081478544e-01,3.31934e-01,9.99999e-01,9.99999e-01,9.90709e-01,3.35047e-01,9.99999e-01
6.111885937e-01,3.41016e-01,9.99999e-01,9.99999e-01,9.96067e-01,3.42362e-01,9.99999e-01
6.142445367e-01,3.49073e-01,9.99999e-01,9.99999e-01,9.98240e-01,3.49688e-01,9.99999e-01
6.173157594e-01,3.56675e-01,9.99999e-01,9.99999e-01,9.99029e-01,3.57021e-01,9.99999e-01
6.204023382e-01,3.64058e-01,9.99999e-01,9.99999e-01,9.99174e-01,3.64359e-01,9.99998e-01
6.235043498e-01,3.70333e-01,9.99999e-01,9.99999e-01,9.96334e-01,3.71698e-01,9.99990e-01
6.266218716e-01,3.71750e-01,9.99999e-01,9.99999e-01,9.80910e-01,3.79036e-01,9.99865e-01
6.297549810e-01,3.83544e-01,9.99999e-01,9.99999e-01,9.92955e-01,3.86369e-01,9.99730e-01
6.329037559e-01,3.88150e-01,9.99999e-01,9.99999e-01,9.86127e-01,3.93695e-01,9.99783e-01
6.360682746e-01,3.96208e-01,9.99999e-01,9.99999e-01,9.88148e-01,4.01011e-01,9.99871e-01
6.392486160e-01,4.02039e-01,9.99999e-01,9.99999e-01,9.84684e-01,4.08315e-01,9.99942e-01
6.424448591e-01,4.07040e-01,9.99999e-01,9.99999e-01,9.79493e-01,4.15603e-01,9.99898e-01
6.456570834e-01,3.84156e-01,9.99999e-01,9.99999e-01,9.08966e-01,4.22874e-01,9.99421e-01
6.488853688e-01,4.00779e-01,9.99999e-01,9.99999e-01,9.33153e-01,4.30125e-01,9.98521e-01
6.521297956e-01,4.07225e-01,9.99999e-01,9.99999e-01,9.32251e-01,4.37353e-01,9.98779e-01
6.553904446e-01,4.13673e-01,9.99999e-01,9.99999e-01,9.31377e-01,4.44556e-01,9.99091e-01
6.586673968e-01,4.25122e-01,9.99999e-01,9.99999e-01,9.41378e-01,4.51732e-01,9.99695e-01
6.619607338e-01,4.43590e-01,9.99999e-01,9.99999e-01,9.66746e-01,4.58878e-01,9.99934e-01
6.652705375e-01,4.56606e-01,9.99999e-01,9.99999e-01,9.79886e-01,4.65993e-01,9.99966e-01
6.685968902e-01,4.69009e-01,9.99999e-01,9.99999e-01,9.91409e-01,4.73075e-01,9.99994e-01
6.719398746e-01,4.78030e-01,9.99999e-01,9.99999e-01,9.95644e-01,4.80121e-01,9.99999e-01
6.752995740e-01,4.85978e-01,9.99999e-01,9.99999e-01,9.97633e-01,4.87130e-01,9.99998e-01
6.786760719e-01,4.92401e-01,9.99999e-01,9.99999e-01,9.96565e-01,4.94100e-01,9.99994e-01
6.820694522e-01,4.98074e-01,9.99999e-01,9.99999e-01,9.94131e-01,5.01029e-01,9.99969e-01
6.854797995e-01,5.04036e-01,9.99999e-01,9.99999e-01,9.92425e-01,5.07915e-01,9.99934e-01
6.889071985e-01,5.05279e-01,9.99999e-01,9.99999e-01,9.81746e-01,5.14757e-01,9.99836e-01
6.923517345e-01,3.89169e-01,9.99999e-01,9.99999e-01,7.47239e-01,5.21554e-01,9.98570e-01
6.958134932e-01,4.53777e-01,9.99999e-01,9.99999e-01,8.61657e-01,5.28303e-01,9.96836e-01
6.992925606e-01,4.60803e-01,9.99999e-01,9.99999e-01,8.63769e-01,5.35004e-01,9.97148e-01
7.027890234e-01,4.51393e-01,9.99999e-01,9.99999e-01,8.35177e-01,5.41655e-01,9.97822e-01
7.063029686e-01,4.70066e-01,9.99999e-01,9.99999e-01,8.58316e-01,5.48254e-01,9.98915e-01
7.098344834e-01,4.78648e-01,9.99999e-01,9.99999e-01,8.63290e-01,5.54802e-01,9.99358e-01
7.133836558e-01,4.62487e-01,9.99999e-01,9.99999e-01,8.25014e-01,5.61296e-01,9.98725e-01
7.169505741e-01,1.55352e-01,9.99999e-01,9.99999e-01,2.76395e-01,5.67735e-01,9.90013e-01
7.205353270e-01,2.85076e-01,9.99999e-01,9.99999e-01,5.05416e-01,5.74119e-01,9.82446e-01
7.241380036e-01,2.35639e-01,9.99999e-01,9.99999e-01,4.12217e-01,5.80447e-01,9.84824e-01
7.277586936e-01,2.61716e-01,9.99999e-01,9.99999e-01,4.51679e-01,5.86717e-01,9.87577e-01
7.313974871e-01,2.45696e-01,9.99999e-01,9.99999e-01,4.16810e-01,5.92929e-01,9.94162e-01
7.350544745e-01,3.65453e-01,9.99999e-01,9.99999e-01,6.11263e-01,5.99082e-01,9.97967e-01
7.387297469e-01,4.17665e-01,9.99999e-01,9.99999e-01,6.90798e-01,6.05176e-01,9.99067e-01
7.424233956e-01,5.08943e-01,9.99999e-01,9.99999e-01,8.32815e-01,6.11209e-01,9.99837e-01
7.461355126e-01,5.52091e-01,9.99999e-01,9.99999e-01,8.94559e-01,6.17182e-01,9.99971e-01
7.498661902e-01,5.91573e-01,9.99999e-01,9.99999e-01,9.49424e-01,6.23093e-01,9.99988e-01
7.536155211e-01,6.13081e-01,9.99999e-01,9.99999e-01,9.74785e-01,6.28943e-01,9.99992e-01
7.573835987e-01,6.26441e-01,9.99999e-01,9.99999e-01,9.86942e-01,6.34730e-01,9.99997e-01
7.611705167e-01,6.35246e-01,9.99999e-01,9.99999e-01,9.91866e-01,6.40455e-01,9.99999e-01
7.649763693e-01,6.42817e-01,9.99999e-01,9.99999e-01,9.94893e-01,6.46116e-01,9.99999e-01
7.688012511e-01,6.49394e-01,9.99999e-01,9.99999e-01,9.96438e-01,6.51715e-01,9.99998e-01
7.726452574e-01,6.55321e-01,9.99999e-01,9.99999e-01,9.97065e-01,6.57250e-01,9.99997e-01
7.765084837e-01,6.59943e-01,9.99999e-01,9.99999e-01,9.95812e-01,6.62721e-01,9.99994e-01
7.803910261e-01,6.56103e-01,9.99999e-01,9.99999e-01,9.82017e-01,6.68128e-01,9.99982e-01
7.842929812e-01,6.32238e-01,9.99999e-01,9.99999e-01,9.38882e-01,6.73472e-01,9.99883e-01
7.882144461e-01,5.95753e-01,9.99999e-01,9.99999e-01,8.78500e-01,6.78751e-01,9.99110e-01
7.921555184e-01,6.36330e-01,9.99999e-01,9.99999e-01,9.31791e-01,6.83966e-01,9.98455e-01
7.961162960e-01,6.07164e-01,9.99999e-01,9.99999e-01,8.82370e-01,6.89117e-01,9.98530e-01
8.000968774e-01,5.99141e-01,9.99999e-01,9.99999e-01,8.64412e-01,6.94204e-01,9.98436e-01
8.040973618e-01,6.03943e-01,9.99999e-01,9.99999e-01,8.64760e-01,6.99227e-01,9.98806e-01
8.081178486e-01,5.11910e-01,9.99999e-01,9.99999e-01,7.27832e-01,7.04186e-01,9.98791e-01
8.121584379e-01,2.08777e-01,9.99999e-01,9.99999e-01,2.95785e-01,7.09081e-01,9.95429e-01
8.162192301e-01,1.71963e-01,9.99999e-01,9.99999e-01,2.45060e-01,7.13912e-01,9.82918e-01
8.203003262e-01,3.64946e-01,9.99999e-01,9.99999e-01,5.18148e-01,7.18680e-01,9.80027e-01
8.244018279e-01,3.12371e-01,9.99999e-01,9.99999e-01,4.38807e-01,7.23385e-01,9.84072e-01
8.285238370e-01,2.93036e-01,9.99999e-01,9.99999e-01,4.07614e-01,7.28027e-01,9.87469e-01
8.326664562e-01,2.98790e-01,9.99999e-01,9.99999e-01,4.09978e-01,7.32606e-01,9.94799e-01
8.368297885e-01,3.77062e-01,9.99999e-01,9.99999e-01,5.12141e-01,7.37122e-01,9.98809e-01
8.410139374e-01,4.94539e-01,9.99999e-01,9.99999e-01,6.67340e-01,7.41576e-01,9.99303e-01
8.452190071e-01,6.09731e-01,9.99999e-01,9.99999e-01,8.17708e-01,7.45969e-01,9.99583e-01
8.494451021e-01,6.66610e-01,9.99999e-01,9.99999e-01,8.88754e-01,7.50300e-01,9.99665e-01
8.536923276e-01,7.03676e-01,9.99999e-01,9.99999e-01,9.32741e-01,7.54569e-01,9.99797e-01
8.579607893e-01,7.26811e-01,9.99999e-01,9.99999e-01,9.57916e-01,7.58778e-01,9.99950e-01
8.622505932e-01,7.42388e-01,9.99999e-01,9.99999e-01,9.73086e-01,7.62927e-01,9.99991e-01
8.665618462e-01,7.54151e-01,9.99999e-01,9.99999e-01,9.83232e-01,7.67015e-01,9.99994e-01
8.708946554e-01,7.56227e-01,9.99999e-01,9.99999e-01,9.80792e-01,7.71045e-01,9.99989e-01
8.752491287e-01,7.55143e-01,9.99999e-01,9.99999e-01,9.74386e-01,7.75015e-01,9.99972e-01
8.796253743e-01,7.51340e-01,9.99999e-01,9.99999e-01,9.64661e-01,7.78926e-01,9.99919e-01
8.840235012e-01,7.51135e-01,9.99999e-01,9.99999e-01,9.59812e-01,7.82780e-01,9.99750e-01
8.884436187e-01,6.81199e-01,9.99999e-01,9.99999e-01,8.66644e-01,7.86575e-01,9.99291e-01
8.928858368e-01,2.15520e-01,9.99999e-01,9.99999e-01,2.73819e-01,7.90314e-01,9.95919e-01
8.973502660e-01,8.00058e-02,9.99999e-01,9.99999e-01,1.02898e-01,7.93996e-01,9.79257e-01
9.018370173e-01,2.43041e-01,9.99999e-01,9.99999e-01,3.14916e-01,7.97622e-01,9.67581e-01
9.063462024e-01,2.70676e-01,9.99999e-01,9.99999e-01,3.47764e-01,8.01193e-01,9.71464e-01
9.108779334e-01,1.51315e-01,9.99999e-01,9.99999e-01,1.93779e-01,8.04708e-01,9.70365e-01
9.154323231e-01,1.13509e-01,9.99999e-01,9.99999e-01,1.43988e-01,8.08169e-01,9.75441e-01
9.200094847e-01,1.83801e-01,9.99999e-01,9.99999e-01,2.29648e-01,8.11576e-01,9.86180e-01
9.246095321e-01,9.87103e-02,9.99999e-01,9.99999e-01,1.23085e-01,8.14930e-01,9.84092e-01
9.292325798e-01,5.86723e-04,9.99999e-01,9.99999e-01,7.74782e-04,8.18231e-01,9.25500e-01
9.338787427e-01,1.02075e-06,9.99999e-01,9.99999e-01,1.64385e-06,8.21480e-01,7.55894e-01
9.385481364e-01,2.06181e-03,9.99999e-01,9.99999e-01,3.40014e-03,8.24677e-01,7.35304e-01
9.432408771e-01,6.20047e-04,9.99999e-01,9.99999e-01,9.76535e-04,8.27823e-01,7.67006e-01
9.479570815e-01,5.75505e-06,9.99999e-01,9.99999e-01,8.59505e-06,8.30918e-01,8.05827e-01
9.526968669e-01,6.55664e-05,9.99999e-01,9.99999e-01,8.96850e-05,8.33964e-01,8.76624e-01
9.574603512e-01,1.44255e-04,9.99999e-01,9.99999e-01,1.84278e-04,8.36960e-01,9.35301e-01
9.622476530e-01,7.31369e-04,9.99999e-01,9.99999e-01,9.11991e-04,8.39908e-01,9.54803e-01
9.670588912e-01,1.28096e-02,9.99999e-01,9.99999e-01,1.56872e-02,8.42807e-01,9.68865e-01
9.718941857e-01,3.37596e-02,9.99999e-01,9.99999e-01,4.08614e-02,8.45659e-01,9.76985e-01
9.767536566e-01,5.86226e-02,9.99999e-01,9.99999e-01,7.03330e-02,8.48464e-01,9.82363e-01
9.816374249e-01,1.05513e-01,9.99999e-01,9.99999e-01,1.24720e-01,8.51222e-01,9.93861e-01
9.865456120e-01,2.21742e-01,9.99999e-01,9.99999e-01,2.60003e-01,8.53935e-01,9.98718e-01
9.914783401e-01,3.64560e-01,9.99999e-01,9.99999e-01,4.25739e-01,8.56602e-01,9.99644e-01
9.964357318e-01,5.38297e-01,9.99999e-01,9.99999e-01,6.26621e-01,8.59225e-01,9.99791e-01
1.001417910e+00,6.49485e-01,9.99999e-01,9.99999e-01,7.53873e-01,8.61804e-01,9.99682e-01
1.006425000e+00,7.34616e-01,9.99999e-01,9.99999e-01,8.50299e-01,8.64339e-01,9.99547e-01
1.011457125e+00,7.83628e-01,9.99999e-01,9.99999e-01,9.04392e-01,8.66832e-01,9.99580e-01
1.016514411e+00,8.11584e-01,9.99999e-01,9.99999e-01,9.33900e-01,8.69282e-01,9.99703e-01
1.021596983e+00,8.25188e-01,9.99999e-01,9.99999e-01,9.46926e-01,8.71691e-01,9.99708e-01
1.026704968e+00,8.37478e-01,9.99999e-01,9.99999e-01,9.58323e-01,8.74059e-01,9.99817e-01
1.031838492e+00,8.49683e-01,9.99999e-01,9.99999e-01,9.69583e-01,8.76386e-01,9.99944e-01
1.036997685e+00,8.62673e-01,9.99999e-01,9.99999e-01,9.81798e-01,8.78673e-01,9.99990e-01
1.042182673e+00,8.61793e-01,9.99999e-01,9.99999e-01,9.78289e-01,8.80921e-01,9.99995e-01
1.047393587e+00,8.57814e-01,9.99999e-01,9.99999e-01,9.71339e-01,8.83129e-01,9.99994e-01
1.052630555e+00,8.50653e-01,9.99999e-01,9.99999e-01,9.60873e-01,8.85300e-01,9.99989e-01
1.057893707e+00,8.30270e-01,9.99999e-01,9.99999e-01,9.35607e-01,8.87433e-01,9.99976e-01
1.063183176e+00,7.97638e-01,9.99999e-01,9.99999e-01,8.96747e-01,8.89529e-01,9.99942e-01
1.068499092e+00,7.43534e-01,9.99999e-01,9.99999e-01,8.34045e-01,8.91588e-01,9.99876e-01
1.073841587e+00,7.24500e-01,9.99999e-01,9.99999e-01,8.10973e-01,8.93611e-01,9.99729e-01
1.079210795e+00,6.82983e-01,9.99999e-01,9.99999e-01,7.63156e-01,8.95599e-01,9.99268e-01
1.084606849e+00,5.98084e-01,9.99999e-01,9.99999e-01,6.67525e-01,8.97552e-01,9.98240e-01
1.090029883e+00,5.07900e-01,9.99999e-01,9.99999e-01,5.66731e-01,8.99470e-01,9.96355e-01
1.095480033e+00,1.96956e-01,9.99999e-01,9.99999e-01,2.19959e-01,9.01354e-01,9.93417e-01
1.100957433e+00,2.99485e-02,9.99999e-01,9.99999e-01,3.35635e-02,9.03205e-01,9.87916e-01
1.106462220e+00,7.67279e-04,9.99999e-01,9.99999e-01,8.65464e-04,9.05023e-01,9.79589e-01
1.111994531e+00,2.13366e-07,9.99999e-01,9.99999e-01,2.48533e-07,9.06809e-01,9.46725e-01
1.117554504e+00,7.39477e-10,9.99999e-01,9.99999e-01,9.91769e-10,9.08563e-01,8.20651e-01
1.123142276e+00,9.61998e-07,9.99999e-01,9.99999e-01,1.68874e-06,9.10285e-01,6.25797e-01
1.128757988e+00,5.07320e-06,9.99999e-01,9.99999e-01,9.56736e-06,9.11977e-01,5.81441e-01
1.134401778e+00,1.68871e-05,9.99999e-01,9.99999e-01,2.93105e-05,9.13638e-01,6.30606e-01
1.140073787e+00,2.45172e-04,9.99999e-01,9.99999e-01,3.87178e-04,9.15270e-01,6.91846e-01
1.145774156e+00,1.11919e-05,9.99999e-01,9.99999e-01,1.71018e-05,9.16872e-01,7.13759e-01
1.151503026e+00,6.05447e-07,9.99999e-01,9.99999e-01,7.95437e-07,9.18445e-01,8.28736e-01
1.157260541e+00,2.35411e-07,9.99999e-01,9.99999e-01,2.70668e-07,9.19989e-01,9.45381e-01
1.163046844e+00,1.37238e-05,9.99999e-01,9.99999e-01,1.51318e-05,9.21506e-01,9.84207e-01
1.168862078e+00,3.84047e-04,9.99999e-01,9.99999e-01,4.19514e-04,9.22995e-01,9.91833e-01
1.174706389e+00,5.12056e-03,9.99999e-01,9.99999e-01,5.59953e-03,9.24457e-01,9.89188e-01
1.180579921e+00,3.35386e-02,9.99999e-01,9.99999e-01,3.68233e-02,9.25893e-01,9.83696e-01
1.186482820e+00,1.20702e-01,9.99999e-01,9.99999e-01,1.32379e-01,9.27302e-01,9.83269e-01
1.192415234e+00,2.71684e-01,9.99999e-01,9.99999e-01,2.96266e-01,9.28685e-01,9.87444e-01
1.198377311e+00,3.31030e-01,9.99999e-01,9.99999e-01,3.60202e-01,9.30044e-01,9.88136e-01
1.204369197e+00,3.62013e-01,9.99999e-01,9.99999e-01,3.92905e-01,9.31377e-01,9.89260e-01
1.210391043e+00,3.72354e-01,9.99999e-01,9.99999e-01,4.01858e-01,9.32686e-01,9.93453e-01
1.216442998e+00,4.28762e-01,9.99999e-01,9.99999e-01,4.60925e-01,9.33970e-01,9.95985e-01
1.222525213e+00,5.03958e-01,9.99999e-01,9.99999e-01,5.40207e-01,9.35231e-01,9.97504e-01
1.228637839e+00,6.08094e-01,9.99999e-01,9.99999e-01,6.50102e-01,9.36469e-01,9.98838e-01
