#,Wave/freq,Total,N2,O2,H2O,Rayleigh,CIA
4.000000000e-01,9.89453e-08,9.99999e-01,9.99999e-01,9.98177e-01,9.91259e-08,9.99999e-01
4.020000000e-01,1.36202e-07,9.99999e-01,9.99999e-01,9.98882e-01,1.36354e-07,9.99999e-01
4.040100000e-01,1.86239e-07,9.99999e-01,9.99999e-01,9.99526e-01,1.86327e-07,9.99999e-01
4.060300500e-01,2.53022e-07,9.99999e-01,9.99999e-01,9.99893e-01,2.53049e-07,9.99999e-01
4.080602003e-01,3.41580e-07,9.99999e-01,9.99999e-01,9.99964e-01,3.41592e-07,9.99999e-01
4.101005013e-01,4.58390e-07,9.99999e-01,9.99999e-01,9.99996e-01,4.58391e-07,9.99999e-01
4.121510038e-01,6.11524e-07,9.99999e-01,9.99999e-01,9.99931e-01,6.11565e-07,9.99999e-01
4.142117588e-01,8.10875e-07,9.99999e-01,9.99999e-01,9.99488e-01,8.11290e-07,9.99999e-01
4.162828176e-01,1.06783e-06,9.99999e-01,9.99999e-01,9.97741e-01,1.07025e-06,9.99999e-01
4.183642317e-01,1.40228e-06,9.99999e-01,9.99999e-01,9.98657e-01,1.40416e-06,9.99999e-01
4.204560528e-01,1.83091e-06,9.99999e-01,9.99999e-01,9.99183e-01,1.83240e-06,9.99999e-01
4.225583331e-01,2.37799e-06,9.99999e-01,9.99999e-01,9.99698e-01,2.37870e-06,9.99999e-01
4.246711247e-01,3.07124e-06,9.99999e-01,9.99999e-01,9.99751e-01,3.07200e-06,9.99999e-01
4.267944804e-01,3.94595e-06,9.99999e-01,9.99999e-01,9.99639e-01,3.94737e-06,9.99999e-01
4.289284528e-01,5.04571e-06,9.99999e-01,9.99999e-01,9.99718e-01,5.04713e-06,9.99999e-01
4.310730950e-01,6.42128e-06,9.99999e-01,9.99999e-01,9.99883e-01,6.42203e-06,9.99999e-01
4.332284605e-01,8.13244e-06,9.99999e-01,9.99999e-01,9.99969e-01,8.13268e-06,9.99999e-01
4.353946028e-01,1.02509e-05,9.99999e-01,9.99999e-01,9.99986e-01,1.02511e-05,9.99999e-01
4.375715758e-01,1.28594e-05,9.99999e-01,9.99999e-01,9.99771e-01,1.28623e-05,9.99999e-01
4.397594337e-01,1.60343e-05,9.99999e-01,9.99999e-01,9.97994e-01,1.60665e-05,9.99999e-01
4.419582309e-01,1.97775e-05,9.99999e-01,9.99999e-01,9.89817e-01,1.99810e-05,9.99999e-01
4.441680220e-01,2.45498e-05,9.99999e-01,9.99999e-01,9.92217e-01,2.47424e-05,9.99999e-01
4.463888621e-01,3.02609e-05,9.99999e-01,9.99999e-01,9.91857e-01,3.05093e-05,9.99999e-01
4.486208064e-01,3.72778e-05,9.99999e-01,9.99999e-01,9.95002e-01,3.74650e-05,9.99999e-01
4.508639105e-01,4.57134e-05,9.99999e-01,9.99999e-01,9.97667e-01,4.58203e-05,9.99999e-01
4.531182300e-01,5.57653e-05,9.99999e-01,9.99999e-01,9.99082e-01,5.58165e-05,9.99999e-01
4.553838212e-01,6.76862e-05,9.99999e-01,9.99999e-01,9.99366e-01,6.77290e-05,9.99999e-01
4.576607403e-01,8.18466e-05,9.99999e-01,9.99999e-01,9.99708e-01,8.18704e-05,9.99999e-01
4.599490440e-01,9.85744e-05,9.99999e-01,9.99999e-01,9.99794e-01,9.85946e-05,9.99999e-01
4.622487892e-01,1.18296e-04,9.99999e-01,9.99999e-01,9.99964e-01,1.18300e-04,9.99999e-01
4.645600332e-01,1.41413e-04,9.99999e-01,9.99999e-01,9.99854e-01,1.41434e-04,9.99999e-01
4.668828333e-01,1.68087e-04,9.99999e-01,9.99999e-01,9.97576e-01,1.68496e-04,9.99999e-01
4.692172475e-01,1.99019e-04,9.99999e-01,9.99999e-01,9.94881e-01,2.00043e-04,9.99999e-01
4.715633337e-01,2.35897e-04,9.99999e-01,9.99999e-01,9.96638e-01,2.36693e-04,9.99999e-01
4.739211504e-01,2.78239e-04,9.99999e-01,9.99999e-01,9.96812e-01,2.79128e-04,9.99999e-01
4.762907561e-01,3.27564e-04,9.99999e-01,9.99999e-01,9.98361e-01,3.28101e-04,9.99999e-01
4.786722099e-01,3.84181e-04,9.99999e-01,9.99999e-01,9.99332e-01,3.84437e-04,9.99999e-01
4.810655710e-01,4.48948e-04,9.99999e-01,9.99999e-01,9.99798e-01,4.49038e-04,9.99999e-01
4.834708988e-01,5.21834e-04,9.99999e-01,9.99999e-01,9.97982e-01,5.22889e-04,9.99999e-01
4.858882533e-01,6.04859e-04,9.99999e-01,9.99999e-01,9.96379e-01,6.07056e-04,9.99999e-01
4.883176946e-01,7.00546e-04,9.99999e-01,9.99999e-01,9.96938e-01,7.02697e-04,9.99999e-01
4.907592831e-01,8.08843e-04,9.99999e-01,9.99999e-01,9.97268e-01,8.11058e-04,9.99999e-01
4.932130795e-01,9.31680e-04,9.99999e-01,9.99999e-01,9.98068e-01,9.33482e-04,9.99999e-01
4.956791449e-01,1.07032e-03,9.99999e-01,9.99999e-01,9.98984e-01,1.07141e-03,9.99999e-01
4.981575406e-01,1.22008e-03,9.99999e-01,9.99999e-01,9.94875e-01,1.22636e-03,9.99999e-01
5.006483283e-01,1.38116e-03,9.99999e-01,9.99999e-01,9.86632e-01,1.40000e-03,9.99911e-01
5.031515699e-01,1.48977e-03,9.99999e-01,9.99999e-01,9.35239e-01,1.59403e-03,9.99306e-01
5.056673278e-01,1.74564e-03,9.99999e-01,9.99999e-01,9.65035e-01,1.81032e-03,9.99205e-01
5.081956644e-01,1.95978e-03,9.99999e-01,9.99999e-01,9.56082e-01,2.05079e-03,9.99517e-01
5.107366428e-01,2.24857e-03,9.99999e-01,9.99999e-01,9.70342e-01,2.31749e-03,9.99917e-01
5.132903260e-01,2.56818e-03,9.99999e-01,9.99999e-01,9.83027e-01,2.61255e-03,9.99988e-01
5.158567776e-01,2.91718e-03,9.99999e-01,9.99999e-01,9.92838e-01,2.93822e-03,9.99999e-01
5.184360615e-01,3.28738e-03,9.99999e-01,9.99999e-01,9.97134e-01,3.29683e-03,9.99999e-01
5.210282418e-01,3.68681e-03,9.99999e-01,9.99999e-01,9.98921e-01,3.69079e-03,9.99998e-01
5.236333830e-01,4.10436e-03,9.99999e-01,9.99999e-01,9.95597e-01,4.12264e-03,9.99969e-01
5.262515499e-01,4.58207e-03,9.99999e-01,9.99999e-01,9.97237e-01,4.59496e-03,9.99957e-01
5.288828077e-01,5.09726e-03,9.99999e-01,9.99999e-01,9.97449e-01,5.11043e-03,9.99972e-01
5.315272217e-01,5.65928e-03,9.99999e-01,9.99999e-01,9.97799e-01,5.67180e-03,9.99993e-01
5.341848578e-01,6.27273e-03,9.99999e-01,9.99999e-01,9.98543e-01,6.28189e-03,9.99998e-01
5.368557821e-01,6.90786e-03,9.99999e-01,9.99999e-01,9.94865e-01,6.94358e-03,9.99988e-01
5.395400610e-01,7.51614e-03,9.99999e-01,9.99999e-01,9.81412e-01,7.65980e-03,9.99827e-01
5.422377613e-01,8.23087e-03,9.99999e-01,9.99999e-01,9.76386e-01,8.43353e-03,9.99571e-01
5.449489501e-01,9.05804e-03,9.99999e-01,9.99999e-01,9.77796e-01,9.26778e-03,9.99560e-01
5.476736949e-01,9.96634e-03,9.99999e-01,9.99999e-01,9.80607e-01,1.01656e-02,9.99785e-01
5.504120634e-01,1.09727e-02,9.99999e-01,9.99999e-01,9.85919e-01,1.11301e-02,9.99940e-01
5.531641237e-01,1.20781e-02,9.99999e-01,9.99999e-01,9.92928e-01,1.21642e-02,9.99991e-01
5.559299443e-01,1.32260e-02,9.99999e-01,9.99999e-01,9.96599e-01,1.32711e-02,9.99999e-01
5.587095940e-01,1.44227e-02,9.99999e-01,9.99999e-01,9.97844e-01,1.44539e-02,9.99999e-01
5.615031420e-01,1.56776e-02,9.99999e-01,9.99999e-01,9.97587e-01,1.57156e-02,9.99995e-01
5.643106577e-01,1.70112e-02,9.99999e-01,9.99999e-01,9.97213e-01,1.70591e-02,9.99976e-01
5.671322110e-01,1.78723e-02,9.99999e-01,9.99999e-01,9.67000e-01,1.84876e-02,9.99710e-01
5.699678720e-01,1.93015e-02,9.99999e-01,9.99999e-01,9.65745e-01,2.00039e-02,9.99111e-01
5.728177114e-01,2.08065e-02,9.99999e-01,9.99999e-01,9.63494e-01,2.16108e-02,9.99259e-01
5.756818000e-01,2.25231e-02,9.99999e-01,9.99999e-01,9.66607e-01,2.33112e-02,9.99570e-01
5.785602090e-01,2.43781e-02,9.99999e-01,9.99999e-01,9.71052e-01,2.51079e-02,9.99876e-01
5.814530100e-01,2.62153e-02,9.99999e-01,9.99999e-01,9.70876e-01,2.70033e-02,9.99937e-01
5.843602750e-01,2.79845e-02,9.99999e-01,9.99999e-01,9.65163e-01,2.90002e-02,9.99806e-01
5.872820764e-01,2.32813e-02,9.99999e-01,9.99999e-01,7.50145e-01,3.11009e-02,9.97902e-01
5.902184868e-01,2.30377e-02,9.99999e-01,9.99999e-01,6.95629e-01,3.33076e-02,9.94296e-01
5.931695792e-01,2.76006e-02,9.99999e-01,9.99999e-01,7.79077e-01,3.56227e-02,9.94513e-01
5.961354271e-01,2.87032e-02,9.99999e-01,9.99999e-01,7.56779e-01,3.80482e-02,9.96843e-01
5.991161043e-01,3.30158e-02,9.99999e-01,9.99999e-01,8.14274e-01,4.05860e-02,9.99022e-01
6.021116848e-01,3.84855e-02,9.99999e-01,9.99999e-01,8.90183e-01,4.32379e-02,9.99891e-01
6.051222432e-01,4.33763e-02,9.99999e-01,9.99999e-01,9.42857e-01,4.60054e-02,9.99993e-01
6.081478544e-01,4.76655e-02,9.99999e-01,9.99999e-01,9.74949e-01,4.88902e-02,9.99999e-01
6.111885937e-01,5.13426e-02,9.99999e-01,9.99999e-01,9.89383e-01,5.18935e-02,9.99999e-01
6.142445367e-01,5.47546e-02,9.99999e-01,9.99999e-01,9.95240e-01,5.50165e-02,9.99999e-01
6.173157594e-01,5.81071e-02,9.99999e-01,9.99999e-01,9.97373e-01,5.82601e-02,9.99998e-01
6.204023382e-01,6.14866e-02,9.99999e-01,9.99999e-01,9.97753e-01,6.16252e-02,9.99997e-01
6.235043498e-01,6.44528e-02,9.99999e-01,9.99999e-01,9.89893e-01,6.51124e-02,9.99975e-01
6.266218716e-01,6.51549e-02,9.99999e-01,9.99999e-01,9.48437e-01,6.87221e-02,9.99634e-01
6.297549810e-01,7.10058e-02,9.99999e-01,9.99999e-01,9.80719e-01,7.24547e-02,9.99268e-01
6.329037559e-01,7.33883e-02,9.99999e-01,9.99999e-01,9.62270e-01,7.63103e-02,9.99414e-01
6.360682746e-01,7.76659e-02,9.99999e-01,9.99999e-01,9.67666e-01,8.02888e-02,9.99653e-01
6.392486160e-01,8.08697e-02,9.99999e-01,9.99999e-01,9.58432e-01,8.43899e-02,9.99846e-01
6.424448591e-01,8.36802e-02,9.99999e-01,9.99999e-01,9.44588e-01,8.86133e-02,9.99725e-01
6.456570834e-01,7.16326e-02,9.99999e-01,9.99999e-01,7.71796e-01,9.29584e-02,9.98432e-01
6.488853688e-01,8.05771e-02,9.99999e-01,9.99999e-01,8.30398e-01,9.74243e-02,9.95994e-01
6.521297956e-01,8.43644e-02,9.99999e-01,9.99999e-01,8.29762e-01,1.02010e-01,9.96692e-01
6.553904446e-01,8.76258e-02,9.99999e-01,9.99999e-01,8.23146e-01,1.06715e-01,9.97537e-01
6.586673968e-01,9.46579e-02,9.99999e-01,9.99999e-01,8.49363e-01,1.11537e-01,9.99176e-01
6.619607338e-01,1.06216e-01,9.99999e-01,9.99999e-01,9.12071e-01,1.16476e-01,9.99823e-01
6.652705375e-01,1.14972e-01,9.99999e-01,9.99999e-01,9.46127e-01,1.21529e-01,9.99910e-01
6.685968902e-01,1.23756e-01,9.99999e-01,9.99999e-01,9.76812e-01,1.26695e-01,9.99984e-01
6.719398746e-01,1.30416e-01,9.99999e-01,9.99999e-01,9.88207e-01,1.31972e-01,9.99998e-01
6.752995740e-01,1.36500e-01,9.99999e-01,9.99999e-01,9.93754e-01,1.37359e-01,9.99997e-01
6.786760719e-01,1.41505e-01,9.99999e-01,9.99999e-01,9.90582e-01,1.42852e-01,9.99986e-01
6.820694522e-01,1.46030e-01,9.99999e-01,9.99999e-01,9.83784e-01,1.48449e-01,9.99917e-01
6.854797995e-01,1.50920e-01,9.99999e-01,9.99999e-01,9.79224e-01,1.54149e-01,9.99822e-01
6.889071985e-01,1.52026e-01,9.99999e-01,9.99999e-01,9.50884e-01,1.59949e-01,9.99557e-01
6.923517345e-01,7.77231e-02,9.99999e-01,9.99999e-01,4.70467e-01,1.65846e-01,9.96128e-01
6.958134932e-01,1.16375e-01,9.99999e-01,9.99999e-01,6.83084e-01,1.71837e-01,9.91442e-01
6.992925606e-01,1.19134e-01,9.99999e-01,9.99999e-01,6.74794e-01,1.77921e-01,9.92285e-01
7.027890234e-01,1.13083e-01,9.99999e-01,9.99999e-01,6.17912e-01,1.84092e-01,9.94104e-01
7.063029686e-01,1.25434e-01,9.99999e-01,9.99999e-01,6.60904e-01,1.90350e-01,9.97062e-01
7.098344834e-01,1.31600e-01,9.99999e-01,9.99999e-01,6.70236e-01,1.96691e-01,9.98261e-01
7.133836558e-01,1.21720e-01,9.99999e-01,9.99999e-01,6.01353e-01,2.03111e-01,9.96547e-01
7.169505741e-01,1.65697e-02,9.99999e-01,9.99999e-01,8.12322e-02,2.09608e-01,9.73144e-01
7.205353270e-01,4.09834e-02,9.99999e-01,9.99999e-01,1.98910e-01,2.16178e-01,9.53102e-01
7.241380036e-01,2.60163e-02,9.99999e-01,9.99999e-01,1.21705e-01,2.22818e-01,9.59371e-01
7.277586936e-01,3.40512e-02,9.99999e-01,9.99999e-01,1.53471e-01,2.29525e-01,9.66663e-01
7.313974871e-01,2.72007e-02,9.99999e-01,9.99999e-01,1.16955e-01,2.36295e-01,9.84246e-01
7.350544745e-01,6.81816e-02,9.99999e-01,9.99999e-01,2.81989e-01,2.43126e-01,9.94497e-01
7.387297469e-01,9.41060e-02,9.99999e-01,9.99999e-01,3.77357e-01,2.50013e-01,9.97474e-01
7.424233956e-01,1.57556e-01,9.99999e-01,9.99999e-01,6.13438e-01,2.56953e-01,9.99560e-01
7.461355126e-01,1.95494e-01,9.99999e-01,9.99999e-01,7.40723e-01,2.63943e-01,9.99924e-01
7.498661902e-01,2.35569e-01,9.99999e-01,9.99999e-01,8.69346e-01,2.70980e-01,9.99969e-01
7.536155211e-01,2.59468e-01,9.99999e-01,9.99999e-01,9.33153e-01,2.78060e-01,9.99981e-01
7.573835987e-01,2.75202e-01,9.99999e-01,9.99999e-01,9.65018e-01,2.85179e-01,9.99994e-01
7.611705167e-01,2.85937e-01,9.99999e-01,9.99998e-01,9.78114e-01,2.92335e-01,9.99999e-01
7.649763693e-01,2.95400e-01,9.99999e-01,9.99999e-01,9.86234e-01,2.99524e-01,9.99998e-01
7.688012511e-01,3.03791e-01,9.99999e-01,9.99999e-01,9.90380e-01,3.06742e-01,9.99998e-01
7.726452574e-01,3.11488e-01,9.99999e-01,9.99999e-01,9.92046e-01,3.13986e-01,9.99995e-01
7.765084837e-01,3.17586e-01,9.99999e-01,9.99999e-01,9.88597e-01,3.21253e-01,9.99984e-01
7.803910261e-01,3.12612e-01,9.99999e-01,9.99999e-01,9.51566e-01,3.28540e-01,9.99948e-01
7.842929812e-01,2.82893e-01,9.99999e-01,9.99999e-01,8.42599e-01,3.35844e-01,9.99686e-01
7.882144461e-01,2.40767e-01,9.99999e-01,9.99999e-01,7.03311e-01,3.43160e-01,9.97591e-01
7.921555184e-01,2.88386e-01,9.99999e-01,9.99999e-01,8.26272e-01,3.50487e-01,9.95816e-01
7.961162960e-01,2.54376e-01,9.99999e-01,9.99999e-01,7.13742e-01,3.57821e-01,9.96019e-01
8.000968774e-01,2.43974e-01,9.99999e-01,9.99999e-01,6.70971e-01,3.65159e-01,9.95764e-01
8.040973618e-01,2.50103e-01,9.99999e-01,9.99999e-01,6.73598e-01,3.72498e-01,9.96767e-01
8.081178486e-01,1.67212e-01,9.99999e-01,9.99999e-01,4.41669e-01,3.79835e-01,9.96725e-01
8.121584379e-01,2.23774e-02,9.99999e-01,9.99999e-01,5.85201e-02,3.87168e-01,9.87651e-01
8.162192301e-01,1.56526e-02,9.99999e-01,9.99999e-01,4.15760e-02,3.94493e-01,9.54343e-01
8.203003262e-01,7.73940e-02,9.99999e-01,9.99999e-01,2.03448e-01,4.01808e-01,9.46749e-01
8.244018279e-01,6.38910e-02,9.99999e-01,9.99999e-01,1.63122e-01,4.09110e-01,9.57385e-01
8.285238370e-01,4.34783e-02,9.99999e-01,9.99999e-01,1.08048e-01,4.16397e-01,9.66376e-01
8.326664562e-01,4.67493e-02,9.99999e-01,9.99999e-01,1.11916e-01,4.23665e-01,9.85956e-01
8.368297885e-01,7.84399e-02,9.99999e-01,9.99999e-01,1.82620e-01,4.30914e-01,9.96774e-01
8.410139374e-01,1.52950e-01,9.99999e-01,9.99999e-01,3.49748e-01,4.38139e-01,9.98112e-01
8.452190071e-01,2.60063e-01,9.99999e-01,9.99999e-01,5.84624e-01,4.45339e-01,9.98871e-01
8.494451021e-01,3.28384e-01,9.99999e-01,9.99999e-01,7.26346e-01,4.52512e-01,9.99095e-01
8.536923276e-01,3.80374e-01,9.99999e-01,9.99999e-01,8.27974e-01,4.59655e-01,9.99450e-01
8.579607893e-01,4.15173e-01,9.99999e-01,9.99999e-01,8.89581e-01,4.66767e-01,9.99867e-01
8.622505932e-01,4.39980e-01,9.99999e-01,9.99999e-01,9.28553e-01,4.73845e-01,9.99976e-01
8.665618462e-01,4.59259e-01,9.99999e-01,9.99999e-01,9.55035e-01,4.80887e-01,9.99986e-01
8.708946554e-01,4.62746e-01,9.99999e-01,9.99999e-01,9.48487e-01,4.87892e-01,9.99971e-01
8.752491287e-01,4.60970e-01,9.99999e-01,9.99999e-01,9.31588e-01,4.94857e-01,9.99926e-01
8.796253743e-01,4.54616e-01,9.99999e-01,9.99999e-01,9.06199e-01,5.01782e-01,9.99783e-01
8.840235012e-01,4.54477e-01,9.99999e-01,9.99999e-01,8.94075e-01,5.08663e-01,9.99325e-01
8.884436187e-01,3.57319e-01,9.99999e-01,9.99999e-01,6.94482e-01,5.15501e-01,9.98080e-01
8.928858368e-01,3.88574e-02,9.99999e-01,9.99999e-01,7.52275e-02,5.22292e-01,9.88970e-01
8.973502660e-01,2.74379e-03,9.99999e-01,9.99999e-01,5.48979e-03,5.29036e-01,9.44734e-01
9.018370173e-01,4.00364e-02,9.99999e-01,9.99999e-01,8.17200e-02,5.35731e-01,9.14490e-01
9.063462024e-01,4.70827e-02,9.99999e-01,9.99999e-01,9.38992e-02,5.42377e-01,9.24480e-01
9.108779334e-01,1.08854e-02,9.99999e-01,9.99999e-01,2.15145e-02,5.48971e-01,9.21645e-01
9.154323231e-01,4.97537e-03,9.99999e-01,9.99999e-01,9.58122e-03,5.55512e-01,9.34781e-01
9.200094847e-01,1.69444e-02,9.99999e-01,9.99999e-01,3.13099e-02,5.62000e-01,9.62958e-01
9.246095321e-01,4.06327e-03,9.99999e-01,9.99999e-01,7.46592e-03,5.68434e-01,9.57440e-01
9.292325798e-01,1.86659e-07,9.99999e-01,9.99999e-01,4.00609e-07,5.74812e-01,8.10590e-01
9.338787427e-01,1.40204e-14,9.99999e-01,9.99999e-01,5.15396e-14,5.81133e-01,4.68103e-01
9.385481364e-01,3.58331e-07,9.99999e-01,9.99999e-01,1.40456e-06,5.87397e-01,4.34320e-01
9.432408771e-01,1.52985e-07,9.99999e-01,9.99999e-01,5.29199e-07,5.93603e-01,4.87004e-01
9.479570815e-01,3.01657e-13,9.99999e-01,9.99999e-01,9.03334e-13,5.99749e-01,5.56793e-01
9.526968669e-01,4.39431e-11,9.99999e-01,9.99999e-01,1.03668e-10,6.05837e-01,6.99664e-01
9.574603512e-01,5.40095e-10,9.99999e-01,9.99999e-01,1.05829e-09,6.11863e-01,8.34086e-01
9.622476530e-01,7.60344e-08,9.99999e-01,9.99999e-01,1.39515e-07,6.17829e-01,8.82102e-01
9.670588912e-01,6.34979e-05,9.99999e-01,9.99999e-01,1.10523e-04,6.23734e-01,9.21098e-01
9.718941857e-01,3.00049e-04,9.99999e-01,9.99999e-01,5.07552e-04,6.29577e-01,9.38992e-01
9.767536566e-01,1.14432e-03,9.99999e-01,9.99999e-01,1.89011e-03,6.35357e-01,9.52884e-01
9.816374249e-01,3.75091e-03,9.99999e-01,9.99999e-01,5.94948e-03,6.41075e-01,9.83439e-01
9.865456120e-01,2.01396e-02,9.99999e-01,9.99999e-01,3.12492e-02,6.46730e-01,9.96527e-01
9.914783401e-01,6.98276e-02,9.99999e-01,9.99999e-01,1.07148e-01,6.52321e-01,9.99036e-01
9.964357318e-01,1.90982e-01,9.99999e-01,9.99999e-01,2.90476e-01,6.57849e-01,9.99436e-01
1.001417910e+00,3.11294e-01,9.99999e-01,9.99999e-01,4.69705e-01,6.63314e-01,9.99139e-01
1.006425000e+00,4.30658e-01,9.99999e-01,9.99999e-01,6.44800e-01,6.68714e-01,9.98773e-01
1.011457125e+00,5.13127e-01,9.99999e-01,9.99999e-01,7.62125e-01,6.74050e-01,9.98862e-01
1.016514411e+00,5.63800e-01,9.99999e-01,9.99999e-01,8.30610e-01,6.79323e-01,9.99197e-01
1.021596983e+00,5.89662e-01,9.99999e-01,9.99999e-01,8.62089e-01,6.84531e-01,9.99210e-01
1.026704968e+00,6.13822e-01,9.99999e-01,9.99999e-01,8.90456e-01,6.89675e-01,9.99504e-01
1.031838492e+00,6.38704e-01,9.99999e-01,9.99999e-01,9.19459e-01,6.94755e-01,9.99851e-01
1.036997685e+00,6.65653e-01,9.99999e-01,9.99999e-01,9.51266e-01,6.99771e-01,9.99976e-01
1.042182673e+00,6.63792e-01,9.99999e-01,9.99999e-01,9.41928e-01,7.04723e-01,9.99989e-01
1.047393587e+00,6.55602e-01,9.99999e-01,9.99999e-01,9.23902e-01,7.09611e-01,9.99984e-01
1.052630555e+00,6.40880e-01,9.99999e-01,9.99999e-01,8.97068e-01,7.14435e-01,9.99971e-01
1.057893707e+00,6.00295e-01,9.99999e-01,9.99999e-01,8.34726e-01,7.19196e-01,9.99937e-01
1.063183176e+00,5.39722e-01,9.99999e-01,9.99999e-01,7.45696e-01,7.23894e-01,9.99845e-01
1.068499092e+00,4.48658e-01,9.99999e-01,9.99999e-01,6.16046e-01,7.28529e-01,9.99665e-01
1.073841587e+00,4.23556e-01,9.99998e-01,9.99999e-01,5.78182e-01,7.33101e-01,9.99268e-01
1.079210795e+00,3.60078e-01,9.99998e-01,9.99999e-01,4.89137e-01,7.37611e-01,9.98018e-01
1.084606849e+00,2.58512e-01,9.99998e-01,9.99999e-01,3.50040e-01,7.42058e-01,9.95234e-01
1.090029883e+00,1.75663e-01,9.99998e-01,9.99999e-01,2.37675e-01,7.46444e-01,9.90145e-01
1.095480033e+00,1.97559e-02,9.99998e-01,9.99999e-01,2.67899e-02,7.50768e-01,9.82245e-01
1.100957433e+00,4.07089e-04,9.99999e-01,9.99999e-01,5.57242e-04,7.55031e-01,9.67564e-01
1.106462220e+00,1.45229e-07,9.99999e-01,9.99999e-01,2.02288e-07,7.59233e-01,9.45601e-01
1.111994531e+00,5.15338e-17,9.99999e-01,9.99999e-01,7.83146e-17,7.63375e-01,8.62007e-01
1.117554504e+00,5.93271e-23,9.99999e-01,9.99999e-01,1.32139e-22,7.67458e-01,5.85015e-01
1.123142276e+00,1.06334e-14,9.99999e-01,9.99999e-01,4.91464e-14,7.71480e-01,2.80449e-01
1.128757988e+00,9.52411e-14,9.99999e-01,9.99999e-01,5.34588e-13,7.75444e-01,2.29749e-01
1.134401778e+00,1.93903e-11,9.99999e-01,9.99999e-01,8.68923e-11,7.79349e-01,2.86333e-01
1.140073787e+00,1.59909e-09,9.99999e-01,9.99999e-01,5.54566e-09,7.83196e-01,3.68169e-01
1.145774156e+00,9.80929e-12,9.99999e-01,9.99999e-01,3.11093e-11,7.86986e-01,4.00664e-01
1.151503026e+00,2.98989e-15,9.99999e-01,9.99999e-01,6.29384e-15,7.90718e-01,6.00781e-01
1.157260541e+00,2.96143e-17,9.99999e-01,9.99999e-01,4.34137e-17,7.94394e-01,8.58693e-01
1.163046844e+00,1.25442e-12,9.99999e-01,9.99999e-01,1.64128e-12,7.98014e-01,9.57741e-01
1.168862078e+00,1.30673e-08,9.99999e-01,9.99999e-01,1.66728e-08,8.01579e-01,9.77759e-01
1.174706389e+00,8.69727e-06,9.99999e-01,9.99999e-01,1.11428e-05,8.05088e-01,9.69491e-01
1.180579921e+00,3.62333e-04,9.99999e-01,9.99999e-01,4.68562e-04,8.08543e-01,9.56394e-01
1.186482820e+00,4.56046e-03,9.99999e-01,9.99999e-01,5.87971e-03,8.11945e-01,9.55268e-01
1.192415234e+00,3.20655e-02,9.99999e-01,9.99999e-01,4.07012e-02,8.15292e-01,9.66311e-01
1.198377311e+00,5.41842e-02,9.99999e-01,9.99999e-01,6.83802e-02,8.18588e-01,9.68002e-01
1.204369197e+00,7.48266e-02,9.99999e-01,9.99999e-01,9.36646e-02,8.21831e-01,9.72070e-01
1.210391043e+00,7.68851e-02,9.99999e-01,9.99999e-01,9.48663e-02,8.25022e-01,9.82344e-01
1.216442998e+00,1.10927e-01,9.99999e-01,9.99999e-01,1.35413e-01,8.28163e-01,9.89148e-01
1.222525213e+00,1.62436e-01,9.99999e-01,9.99999e-01,1.96739e-01,8.31253e-01,9.93246e-01
1.228637839e+00,2.63280e-01,9.99999e-01,9.99999e-01,3.16569e-01,8.34293e-01,9.96853e-01
