#,Wave/freq,Total,N2,O2,H2O,Rayleigh,CIA
4.000000000e-01,5.61199e-01,9.99999e-01,9.99999e-01,9.99934e-01,5.61236e-01,9.99999e-01
4.020000000e-01,5.67659e-01,9.99999e-01,9.99999e-01,9.99959e-01,5.67682e-01,9.99999e-01
4.040100000e-01,5.74057e-01,9.99999e-01,9.99999e-01,9.99982e-01,5.74067e-01,9.99999e-01
4.060300500e-01,5.80392e-01,9.99999e-01,9.99999e-01,9.99995e-01,5.80395e-01,9.99999e-01
4.080602003e-01,5.86665e-01,9.99999e-01,9.99999e-01,9.99998e-01,5.86665e-01,9.99999e-01
4.101005013e-01,5.92878e-01,9.99999e-01,9.99999e-01,9.99999e-01,5.92878e-01,9.99999e-01
4.121510038e-01,5.99030e-01,9.99999e-01,9.99999e-01,9.99997e-01,5.99032e-01,9.99999e-01
4.142117588e-01,6.05115e-01,9.99999e-01,9.99999e-01,9.99981e-01,6.05126e-01,9.99999e-01
4.162828176e-01,6.11110e-01,9.99999e-01,9.99999e-01,9.99918e-01,6.11160e-01,9.99999e-01
4.183642317e-01,6.17103e-01,9.99999e-01,9.99999e-01,9.99951e-01,6.17133e-01,9.99999e-01
4.204560528e-01,6.23026e-01,9.99999e-01,9.99999e-01,9.99970e-01,6.23045e-01,9.99999e-01
4.225583331e-01,6.28888e-01,9.99999e-01,9.99999e-01,9.99988e-01,6.28895e-01,9.99999e-01
4.246711247e-01,6.34677e-01,9.99999e-01,9.99999e-01,9.99990e-01,6.34682e-01,9.99999e-01
4.267944804e-01,6.40399e-01,9.99999e-01,9.99999e-01,9.99986e-01,6.40408e-01,9.99999e-01
4.289284528e-01,6.46063e-01,9.99999e-01,9.99999e-01,9.99989e-01,6.46070e-01,9.99999e-01
4.310730950e-01,6.51666e-01,9.99999e-01,9.99999e-01,9.99995e-01,6.51669e-01,9.99999e-01
4.332284605e-01,6.57203e-01,9.99999e-01,9.99999e-01,9.99998e-01,6.57204e-01,9.99999e-01
4.353946028e-01,6.62676e-01,9.99999e-01,9.99999e-01,9.99999e-01,6.62676e-01,9.99999e-01
4.375715758e-01,6.68078e-01,9.99999e-01,9.99999e-01,9.99991e-01,6.68084e-01,9.99999e-01
4.397594337e-01,6.73380e-01,9.99999e-01,9.99999e-01,9.99928e-01,6.73428e-01,9.99999e-01
4.419582309e-01,6.78461e-01,9.99999e-01,9.99999e-01,9.99636e-01,6.78707e-01,9.99999e-01
4.441680220e-01,6.83732e-01,9.99999e-01,9.99999e-01,9.99719e-01,6.83923e-01,9.99999e-01
4.463888621e-01,6.88873e-01,9.99999e-01,9.99999e-01,9.99707e-01,6.89075e-01,9.99999e-01
4.486208064e-01,6.94036e-01,9.99999e-01,9.99999e-01,9.99818e-01,6.94162e-01,9.99999e-01
4.508639105e-01,6.99126e-01,9.99999e-01,9.99999e-01,9.99914e-01,6.99186e-01,9.99999e-01
4.531182300e-01,7.04122e-01,9.99999e-01,9.99999e-01,9.99966e-01,7.04145e-01,9.99999e-01
4.553838212e-01,7.09025e-01,9.99999e-01,9.99999e-01,9.99976e-01,7.09041e-01,9.99999e-01
4.576607403e-01,7.13865e-01,9.99999e-01,9.99999e-01,9.99989e-01,7.13873e-01,9.99999e-01
4.599490440e-01,7.18636e-01,9.99999e-01,9.99999e-01,9.99992e-01,7.18641e-01,9.99999e-01
4.622487892e-01,7.23346e-01,9.99999e-01,9.99999e-01,9.99998e-01,7.23346e-01,9.99999e-01
4.645600332e-01,7.27985e-01,9.99999e-01,9.99999e-01,9.99994e-01,7.27989e-01,9.99999e-01
4.668828333e-01,7.32505e-01,9.99999e-01,9.99999e-01,9.99913e-01,7.32568e-01,9.99999e-01
4.692172475e-01,7.36950e-01,9.99999e-01,9.99999e-01,9.99816e-01,7.37085e-01,9.99999e-01
4.715633337e-01,7.41451e-01,9.99999e-01,9.99999e-01,9.99879e-01,7.41540e-01,9.99999e-01
4.739211504e-01,7.45847e-01,9.99999e-01,9.99999e-01,9.99885e-01,7.45933e-01,9.99999e-01
4.762907561e-01,7.50219e-01,9.99999e-01,9.99999e-01,9.99940e-01,7.50264e-01,9.99999e-01
4.786722099e-01,7.54516e-01,9.99999e-01,9.99999e-01,9.99975e-01,7.54534e-01,9.99999e-01
4.810655710e-01,7.58738e-01,9.99999e-01,9.99999e-01,9.99992e-01,7.58744e-01,9.99999e-01
4.834708988e-01,7.62839e-01,9.99999e-01,9.99999e-01,9.99928e-01,7.62893e-01,9.99999e-01
4.858882533e-01,7.66882e-01,9.99999e-01,9.99999e-01,9.99869e-01,7.66982e-01,9.99999e-01
4.883176946e-01,7.70928e-01,9.99999e-01,9.99999e-01,9.99890e-01,7.71011e-01,9.99999e-01
4.907592831e-01,7.74906e-01,9.99999e-01,9.99999e-01,9.99901e-01,7.74982e-01,9.99999e-01
4.932130795e-01,7.78840e-01,9.99999e-01,9.99999e-01,9.99929e-01,7.78894e-01,9.99999e-01
4.956791449e-01,7.82719e-01,9.99999e-01,9.99999e-01,9.99962e-01,7.82748e-01,9.99999e-01
4.981575406e-01,7.86399e-01,9.99999e-01,9.99999e-01,9.99814e-01,7.86544e-01,9.99999e-01
5.006483283e-01,7.89902e-01,9.99999e-01,9.99999e-01,9.99519e-01,7.90283e-01,9.99996e-01
5.031515699e-01,7.92022e-01,9.99999e-01,9.99999e-01,9.97576e-01,7.93966e-01,9.99974e-01
5.056673278e-01,7.96551e-01,9.99999e-01,9.99999e-01,9.98722e-01,7.97593e-01,9.99970e-01
5.081956644e-01,7.99859e-01,9.99999e-01,9.99999e-01,9.98389e-01,8.01163e-01,9.99981e-01
5.107366428e-01,8.03802e-01,9.99999e-01,9.99999e-01,9.98912e-01,8.04679e-01,9.99996e-01
5.132903260e-01,8.07639e-01,9.99999e-01,9.99999e-01,9.99378e-01,8.08141e-01,9.99999e-01
5.158567776e-01,8.11336e-01,9.99999e-01,9.99999e-01,9.99737e-01,8.11548e-01,9.99999e-01
5.184360615e-01,8.14817e-01,9.99999e-01,9.99999e-01,9.99894e-01,8.14903e-01,9.99999e-01
5.210282418e-01,8.18172e-01,9.99999e-01,9.99999e-01,9.99960e-01,8.18204e-01,9.99999e-01
5.236333830e-01,8.21323e-01,9.99999e-01,9.99999e-01,9.99841e-01,8.21453e-01,9.99998e-01
5.262515499e-01,8.24568e-01,9.99999e-01,9.99999e-01,9.99900e-01,8.24651e-01,9.99997e-01
5.288828077e-01,8.27721e-01,9.99999e-01,9.99999e-01,9.99908e-01,8.27797e-01,9.99998e-01
5.315272217e-01,8.30827e-01,9.99999e-01,9.99999e-01,9.99920e-01,8.30893e-01,9.99999e-01
5.341848578e-01,8.33895e-01,9.99999e-01,9.99999e-01,9.99947e-01,8.33939e-01,9.99999e-01
5.368557821e-01,8.36781e-01,9.99999e-01,9.99999e-01,9.99815e-01,8.36935e-01,9.99999e-01
5.395400610e-01,8.39319e-01,9.99999e-01,9.99999e-01,9.99332e-01,8.39883e-01,9.99994e-01
5.422377613e-01,8.42049e-01,9.99999e-01,9.99999e-01,9.99143e-01,8.42783e-01,9.99984e-01
5.449489501e-01,8.44946e-01,9.99999e-01,9.99999e-01,9.99200e-01,8.45635e-01,9.99983e-01
5.476736949e-01,8.47836e-01,9.99999e-01,9.99999e-01,9.99294e-01,8.48441e-01,9.99991e-01
5.504120634e-01,8.50762e-01,9.99999e-01,9.99999e-01,9.99488e-01,8.51199e-01,9.99997e-01
5.531641237e-01,8.53693e-01,9.99999e-01,9.99999e-01,9.99742e-01,8.53912e-01,9.99999e-01
5.559299443e-01,8.56474e-01,9.99999e-01,9.99999e-01,9.99875e-01,8.56580e-01,9.99999e-01
5.587095940e-01,8.59137e-01,9.99999e-01,9.99999e-01,9.99921e-01,8.59204e-01,9.99999e-01
5.615031420e-01,8.61708e-01,9.99999e-01,9.99999e-01,9.99912e-01,8.61783e-01,9.99999e-01
5.643106577e-01,8.64232e-01,9.99999e-01,9.99999e-01,9.99900e-01,8.64319e-01,9.99998e-01
5.671322110e-01,8.65755e-01,9.99999e-01,9.99999e-01,9.98791e-01,8.66812e-01,9.99988e-01
5.699678720e-01,8.68132e-01,9.99999e-01,9.99999e-01,9.98731e-01,8.69262e-01,9.99966e-01
5.728177114e-01,8.70491e-01,9.99999e-01,9.99999e-01,9.98672e-01,8.71671e-01,9.99972e-01
5.756818000e-01,8.72962e-01,9.99999e-01,9.99999e-01,9.98782e-01,8.74039e-01,9.99983e-01
5.785602090e-01,8.75434e-01,9.99999e-01,9.99999e-01,9.98939e-01,8.76367e-01,9.99995e-01
5.814530100e-01,8.77716e-01,9.99999e-01,9.99999e-01,9.98933e-01,8.78654e-01,9.99997e-01
5.843602750e-01,8.79773e-01,9.99999e-01,9.99999e-01,9.98724e-01,8.80902e-01,9.99992e-01
5.872820764e-01,8.73395e-01,9.99999e-01,9.99999e-01,9.89073e-01,8.83111e-01,9.99922e-01
5.902184868e-01,8.73428e-01,9.99999e-01,9.99999e-01,9.86816e-01,8.85282e-01,9.99790e-01
5.931695792e-01,8.78954e-01,9.99999e-01,9.99999e-01,9.90663e-01,8.87416e-01,9.99797e-01
5.961354271e-01,8.80315e-01,9.99999e-01,9.99999e-01,9.89775e-01,8.89512e-01,9.99883e-01
5.991161043e-01,8.84885e-01,9.99999e-01,9.99999e-01,9.92535e-01,8.91571e-01,9.99963e-01
6.021116848e-01,8.89804e-01,9.99999e-01,9.99999e-01,9.95760e-01,8.93595e-01,9.99995e-01
6.051222432e-01,8.93661e-01,9.99999e-01,9.99999e-01,9.97853e-01,8.95583e-01,9.99999e-01
6.081478544e-01,8.96704e-01,9.99999e-01,9.99999e-01,9.99073e-01,8.97536e-01,9.99999e-01
6.111885937e-01,8.99102e-01,9.99999e-01,9.99999e-01,9.99608e-01,8.99454e-01,9.99999e-01
6.142445367e-01,9.01181e-01,9.99999e-01,9.99999e-01,9.99824e-01,9.01339e-01,9.99999e-01
6.173157594e-01,9.03103e-01,9.99999e-01,9.99999e-01,9.99903e-01,9.03190e-01,9.99999e-01
6.204023382e-01,9.04934e-01,9.99999e-01,9.99999e-01,9.99917e-01,9.05008e-01,9.99999e-01
6.235043498e-01,9.06464e-01,9.99999e-01,9.99999e-01,9.99636e-01,9.06794e-01,9.99998e-01
6.266218716e-01,9.06803e-01,9.99999e-01,9.99999e-01,9.98091e-01,9.08548e-01,9.99986e-01
6.297549810e-01,9.09610e-01,9.99999e-01,9.99999e-01,9.99299e-01,9.10271e-01,9.99972e-01
6.329037559e-01,9.10684e-01,9.99999e-01,9.99999e-01,9.98618e-01,9.11963e-01,9.99978e-01
6.360682746e-01,9.12536e-01,9.99999e-01,9.99999e-01,9.98820e-01,9.13625e-01,9.99986e-01
6.392486160e-01,9.13854e-01,9.99999e-01,9.99999e-01,9.98473e-01,9.15256e-01,9.99993e-01
6.424448591e-01,9.14969e-01,9.99999e-01,9.99999e-01,9.97948e-01,9.16859e-01,9.99989e-01
6.456570834e-01,9.09669e-01,9.99999e-01,9.99999e-01,9.90515e-01,9.18432e-01,9.99942e-01
6.488853688e-01,9.13482e-01,9.99999e-01,9.99999e-01,9.93086e-01,9.19977e-01,9.99852e-01
6.521297956e-01,9.14891e-01,9.99999e-01,9.99999e-01,9.92955e-01,9.21494e-01,9.99878e-01
6.553904446e-01,9.16408e-01,9.99999e-01,9.99999e-01,9.92965e-01,9.22983e-01,9.99909e-01
6.586673968e-01,9.18859e-01,9.99999e-01,9.99999e-01,9.93987e-01,9.24445e-01,9.99969e-01
6.619607338e-01,9.22769e-01,9.99999e-01,9.99999e-01,9.96644e-01,9.25881e-01,9.99993e-01
6.652705375e-01,9.25419e-01,9.99999e-01,9.99999e-01,9.97985e-01,9.27290e-01,9.99996e-01
6.685968902e-01,9.27878e-01,9.99999e-01,9.99999e-01,9.99143e-01,9.28674e-01,9.99998e-01
6.719398746e-01,9.29629e-01,9.99999e-01,9.99999e-01,9.99566e-01,9.30032e-01,9.99999e-01
6.752995740e-01,9.31147e-01,9.99999e-01,9.99999e-01,9.99764e-01,9.31366e-01,9.99999e-01
6.786760719e-01,9.32357e-01,9.99999e-01,9.99999e-01,9.99658e-01,9.32675e-01,9.99999e-01
6.820694522e-01,9.33413e-01,9.99999e-01,9.99999e-01,9.99417e-01,9.33960e-01,9.99996e-01
6.854797995e-01,9.34512e-01,9.99999e-01,9.99999e-01,9.99248e-01,9.35221e-01,9.99993e-01
6.889071985e-01,9.34729e-01,9.99999e-01,9.99999e-01,9.98168e-01,9.36459e-01,9.99983e-01
6.923517345e-01,9.10031e-01,9.99999e-01,9.99999e-01,9.70657e-01,9.37674e-01,9.99857e-01
6.958134932e-01,9.24304e-01,9.99999e-01,9.99999e-01,9.84798e-01,9.38867e-01,9.99684e-01
6.992925606e-01,9.26040e-01,9.99999e-01,9.99999e-01,9.85388e-01,9.40037e-01,9.99715e-01
7.027890234e-01,9.24097e-01,9.99999e-01,9.99999e-01,9.82055e-01,9.41186e-01,9.99782e-01
7.063029686e-01,9.27965e-01,9.99999e-01,9.99999e-01,9.84878e-01,9.42314e-01,9.99891e-01
7.098344834e-01,9.29668e-01,9.99999e-01,9.99999e-01,9.85485e-01,9.43420e-01,9.99935e-01
7.133836558e-01,9.26083e-01,9.99999e-01,9.99999e-01,9.80618e-01,9.44506e-01,9.99872e-01
7.169505741e-01,8.08696e-01,9.99999e-01,9.99999e-01,8.56098e-01,9.45572e-01,9.99002e-01
7.205353270e-01,8.76110e-01,9.99999e-01,9.99999e-01,9.27145e-01,9.46618e-01,9.98241e-01
7.241380036e-01,8.58763e-01,9.99999e-01,9.99999e-01,9.07585e-01,9.47644e-01,9.98481e-01
7.277586936e-01,8.68152e-01,9.99999e-01,9.99999e-01,9.16280e-01,9.48651e-01,9.98758e-01
7.313974871e-01,8.64830e-01,9.99999e-01,9.99999e-01,9.11222e-01,9.49639e-01,9.99417e-01
7.350544745e-01,9.03250e-01,9.99999e-01,9.99999e-01,9.50372e-01,9.50609e-01,9.99797e-01
7.387297469e-01,9.16458e-01,9.99999e-01,9.99999e-01,9.63199e-01,9.51561e-01,9.99906e-01
7.424233956e-01,9.35175e-01,9.99999e-01,9.99999e-01,9.81832e-01,9.52494e-01,9.99983e-01
7.461355126e-01,9.42866e-01,9.99999e-01,9.99999e-01,9.88942e-01,9.53411e-01,9.99996e-01
7.498661902e-01,9.49389e-01,9.99999e-01,9.99999e-01,9.94844e-01,9.54309e-01,9.99998e-01
7.536155211e-01,9.52769e-01,9.99999e-01,9.99999e-01,9.97464e-01,9.55191e-01,9.99998e-01
7.573835987e-01,9.54809e-01,9.99999e-01,9.99999e-01,9.98694e-01,9.56057e-01,9.99999e-01
7.611705167e-01,9.56129e-01,9.99999e-01,9.99999e-01,9.99188e-01,9.56906e-01,9.99999e-01
7.649763693e-01,9.57251e-01,9.99999e-01,9.99999e-01,9.99490e-01,9.57739e-01,9.99999e-01
7.688012511e-01,9.58216e-01,9.99999e-01,9.99999e-01,9.99645e-01,9.58556e-01,9.99999e-01
7.726452574e-01,9.59078e-01,9.99999e-01,9.99999e-01,9.99707e-01,9.59358e-01,9.99999e-01
7.765084837e-01,9.59744e-01,9.99999e-01,9.99999e-01,9.99583e-01,9.60144e-01,9.99999e-01
7.803910261e-01,9.59185e-01,9.99999e-01,9.99999e-01,9.98200e-01,9.60916e-01,9.99997e-01
7.842929812e-01,9.55633e-01,9.99999e-01,9.99999e-01,9.93730e-01,9.61673e-01,9.99988e-01
7.882144461e-01,9.49988e-01,9.99999e-01,9.99999e-01,9.87173e-01,9.62415e-01,9.99911e-01
7.921555184e-01,9.56223e-01,9.99999e-01,9.99999e-01,9.92966e-01,9.63144e-01,9.99845e-01
7.961162960e-01,9.51706e-01,9.99999e-01,9.99999e-01,9.87535e-01,9.63859e-01,9.99853e-01
8.000968774e-01,9.50565e-01,9.99999e-01,9.99999e-01,9.85644e-01,9.64560e-01,9.99844e-01
8.040973618e-01,9.51268e-01,9.99999e-01,9.99999e-01,9.85633e-01,9.65247e-01,9.99880e-01
8.081178486e-01,9.34771e-01,9.99999e-01,9.99999e-01,9.67865e-01,9.65922e-01,9.99879e-01
8.121584379e-01,8.43881e-01,9.99999e-01,9.99999e-01,8.73452e-01,9.66584e-01,9.99544e-01
8.162192301e-01,8.23182e-01,9.99999e-01,9.99999e-01,8.52527e-01,9.67233e-01,9.98288e-01
8.203003262e-01,8.92717e-01,9.99999e-01,9.99999e-01,9.24202e-01,9.67869e-01,9.97996e-01
8.244018279e-01,8.67891e-01,9.99999e-01,9.99999e-01,8.97554e-01,9.68494e-01,9.98405e-01
8.285238370e-01,8.79384e-01,9.99999e-01,9.99999e-01,9.08554e-01,9.69107e-01,9.98747e-01
8.326664562e-01,8.79949e-01,9.99999e-01,9.99999e-01,9.07907e-01,9.69707e-01,9.99481e-01
8.368297885e-01,9.05272e-01,9.99999e-01,9.99999e-01,9.33094e-01,9.70297e-01,9.99881e-01
8.410139374e-01,9.31649e-01,9.99999e-01,9.99999e-01,9.59662e-01,9.70875e-01,9.99930e-01
8.452190071e-01,9.51986e-01,9.99999e-01,9.99999e-01,9.80012e-01,9.71442e-01,9.99958e-01
8.494451021e-01,9.60626e-01,9.99999e-01,9.99999e-01,9.88332e-01,9.71998e-01,9.99966e-01
8.536923276e-01,9.65810e-01,9.99999e-01,9.99999e-01,9.93096e-01,9.72543e-01,9.99979e-01
8.579607893e-01,9.68926e-01,9.99999e-01,9.99999e-01,9.95737e-01,9.73078e-01,9.99994e-01
8.622505932e-01,9.70967e-01,9.99999e-01,9.99999e-01,9.97293e-01,9.73603e-01,9.99998e-01
8.665618462e-01,9.72483e-01,9.99999e-01,9.99999e-01,9.98322e-01,9.74118e-01,9.99999e-01
8.708946554e-01,9.72748e-01,9.99999e-01,9.99999e-01,9.98077e-01,9.74622e-01,9.99998e-01
8.752491287e-01,9.72608e-01,9.99999e-01,9.99999e-01,9.97429e-01,9.75117e-01,9.99996e-01
8.796253743e-01,9.72118e-01,9.99999e-01,9.99999e-01,9.96436e-01,9.75603e-01,9.99991e-01
8.840235012e-01,9.72084e-01,9.99999e-01,9.99999e-01,9.95931e-01,9.76079e-01,9.99974e-01
8.884436187e-01,9.61991e-01,9.99999e-01,9.99999e-01,9.85164e-01,9.76546e-01,9.99929e-01
8.928858368e-01,8.36147e-01,9.99999e-01,9.99999e-01,8.56175e-01,9.77004e-01,9.99593e-01
8.973502660e-01,7.42892e-01,9.99999e-01,9.99999e-01,7.61612e-01,9.77453e-01,9.97918e-01
9.018370173e-01,8.48660e-01,9.99999e-01,9.99999e-01,8.70692e-01,9.77893e-01,9.96730e-01
9.063462024e-01,8.62432e-01,9.99999e-01,9.99999e-01,8.84078e-01,9.78325e-01,9.97126e-01
9.108779334e-01,8.05744e-01,9.99999e-01,9.99999e-01,8.25703e-01,9.78748e-01,9.97014e-01
9.154323231e-01,7.85381e-01,9.99999e-01,9.99999e-01,8.04077e-01,9.79164e-01,9.97531e-01
9.200094847e-01,8.25234e-01,9.99999e-01,9.99999e-01,8.43609e-01,9.79571e-01,9.98617e-01
9.246095321e-01,7.54687e-01,9.99999e-01,9.99999e-01,7.71340e-01,9.79970e-01,9.98407e-01
9.292325798e-01,1.91737e-01,9.99999e-01,9.99999e-01,1.96797e-01,9.80362e-01,9.93804e-01
9.338787427e-01,1.17928e-01,9.99999e-01,9.99999e-01,1.23372e-01,9.80746e-01,9.74637e-01
9.385481364e-01,4.05649e-01,9.99999e-01,9.99999e-01,4.26281e-01,9.81123e-01,9.69908e-01
9.432408771e-01,3.03757e-01,9.99999e-01,9.99999e-01,3.17750e-01,9.81492e-01,9.73985e-01
9.479570815e-01,1.97154e-01,9.99999e-01,9.99999e-01,2.05151e-01,9.81855e-01,9.78775e-01
9.526968669e-01,2.84716e-01,9.99999e-01,9.99999e-01,2.93691e-01,9.82210e-01,9.87000e-01
9.574603512e-01,3.03549e-01,9.99999e-01,9.99999e-01,3.10997e-01,9.82558e-01,9.93375e-01
9.622476530e-01,3.72546e-01,9.99999e-01,9.99999e-01,3.80773e-01,9.82900e-01,9.95414e-01
9.670588912e-01,5.58515e-01,9.99999e-01,9.99999e-01,5.69826e-01,9.83235e-01,9.96861e-01
9.718941857e-01,6.84019e-01,9.99999e-01,9.99999e-01,6.97060e-01,9.83563e-01,9.97688e-01
9.767536566e-01,7.27513e-01,9.99999e-01,9.99999e-01,7.40737e-01,9.83885e-01,9.98232e-01
9.816374249e-01,7.86821e-01,9.99999e-01,9.99999e-01,7.99940e-01,9.84201e-01,9.99387e-01
9.865456120e-01,8.55912e-01,9.99999e-01,9.99999e-01,8.69488e-01,9.84510e-01,9.99872e-01
9.914783401e-01,9.03040e-01,9.99999e-01,9.99999e-01,9.16996e-01,9.84814e-01,9.99964e-01
9.964357318e-01,9.39686e-01,9.99999e-01,9.99999e-01,9.53906e-01,9.85112e-01,9.99978e-01
1.001417910e+00,9.57887e-01,9.99999e-01,9.99999e-01,9.72105e-01,9.85404e-01,9.99967e-01
1.006425000e+00,9.69860e-01,9.99999e-01,9.99999e-01,9.83984e-01,9.85690e-01,9.99954e-01
1.011457125e+00,9.76113e-01,9.99999e-01,9.99999e-01,9.90042e-01,9.85970e-01,9.99957e-01
1.016514411e+00,9.79536e-01,9.99999e-01,9.99999e-01,9.93225e-01,9.86246e-01,9.99970e-01
1.021596983e+00,9.81157e-01,9.99999e-01,9.99999e-01,9.94596e-01,9.86515e-01,9.99970e-01
1.026704968e+00,9.82601e-01,9.99999e-01,9.99999e-01,9.95782e-01,9.86780e-01,9.99981e-01
1.031838492e+00,9.84010e-01,9.99999e-01,9.99999e-01,9.96936e-01,9.87039e-01,9.99994e-01
1.036997685e+00,9.85494e-01,9.99999e-01,9.99999e-01,9.98177e-01,9.87294e-01,9.99998e-01
1.042182673e+00,9.85394e-01,9.99999e-01,9.99999e-01,9.97823e-01,9.87543e-01,9.99999e-01
1.047393587e+00,9.84940e-01,9.99999e-01,9.99999e-01,9.97117e-01,9.87788e-01,9.99998e-01
1.052630555e+00,9.84118e-01,9.99999e-01,9.99999e-01,9.96043e-01,9.88027e-01,9.99998e-01
1.057893707e+00,9.81736e-01,9.99999e-01,9.99999e-01,9.93397e-01,9.88262e-01,9.99997e-01
1.063183176e+00,9.77778e-01,9.99999e-01,9.99999e-01,9.89165e-01,9.88493e-01,9.99993e-01
1.068499092e+00,9.70848e-01,9.99999e-01,9.99999e-01,9.81936e-01,9.88719e-01,9.99987e-01
1.073841587e+00,9.68041e-01,9.99999e-01,9.99999e-01,9.78892e-01,9.88941e-01,9.99972e-01
1.079210795e+00,9.62436e-01,9.99999e-01,9.99999e-01,9.73055e-01,9.89158e-01,9.99926e-01
1.084606849e+00,9.49128e-01,9.99999e-01,9.99999e-01,9.59491e-01,9.89371e-01,9.99824e-01
1.090029883e+00,9.32118e-01,9.99999e-01,9.99999e-01,9.42274e-01,9.89580e-01,9.99636e-01
1.095480033e+00,8.41439e-01,9.99999e-01,9.99999e-01,8.50681e-01,9.89784e-01,9.99343e-01
1.100957433e+00,6.58350e-01,9.99999e-01,9.99999e-01,6.65813e-01,9.89985e-01,9.98792e-01
1.106462220e+00,3.64426e-01,9.99999e-01,9.99999e-01,3.68794e-01,9.90182e-01,9.97952e-01
1.111994531e+00,1.27803e-01,9.99999e-01,9.99999e-01,1.29749e-01,9.90375e-01,9.94574e-01
1.117554504e+00,3.97047e-02,9.99999e-01,9.99999e-01,4.08779e-02,9.90564e-01,9.80550e-01
1.123142276e+00,1.05708e-01,9.99999e-01,9.99999e-01,1.11781e-01,9.90750e-01,9.54490e-01
1.128757988e+00,2.04706e-01,9.99999e-01,9.99999e-01,2.18016e-01,9.90931e-01,9.47543e-01
1.134401778e+00,9.26342e-02,9.99999e-01,9.99999e-01,9.78469e-02,9.91110e-01,9.55216e-01
1.140073787e+00,3.69667e-01,9.99999e-01,9.99999e-01,3.86821e-01,9.91285e-01,9.64054e-01
1.145774156e+00,1.49754e-01,9.99999e-01,9.99999e-01,1.56191e-01,9.91456e-01,9.67046e-01
1.151503026e+00,1.25082e-01,9.99999e-01,9.99999e-01,1.28515e-01,9.91624e-01,9.81505e-01
1.157260541e+00,1.57985e-01,9.99999e-01,9.99999e-01,1.60184e-01,9.91789e-01,9.94433e-01
1.163046844e+00,2.52829e-01,9.99999e-01,9.99999e-01,2.55284e-01,9.91950e-01,9.98418e-01
1.168862078e+00,3.73699e-01,9.99999e-01,9.99999e-01,3.76978e-01,9.92109e-01,9.99185e-01
1.174706389e+00,5.41781e-01,9.99999e-01,9.99999e-01,5.46595e-01,9.92264e-01,9.98919e-01
1.180579921e+00,6.84486e-01,9.99999e-01,9.99999e-01,6.90844e-01,9.92416e-01,9.98367e-01
1.186482820e+00,8.02790e-01,9.99999e-01,9.99999e-01,8.10160e-01,9.92565e-01,9.98324e-01
1.192415234e+00,8.76513e-01,9.99999e-01,9.99999e-01,8.84057e-01,9.92712e-01,9.98744e-01
1.198377311e+00,8.93815e-01,9.99999e-01,9.99999e-01,9.01315e-01,9.92855e-01,9.98814e-01
1.204369197e+00,8.99342e-01,9.99999e-01,9.99999e-01,9.06657e-01,9.92996e-01,9.98927e-01
1.210391043e+00,9.03562e-01,9.99999e-01,9.99999e-01,9.10402e-01,9.93134e-01,9.99347e-01
1.216442998e+00,9.16748e-01,9.99999e-01,9.99999e-01,9.23329e-01,9.93269e-01,9.99599e-01
1.222525213e+00,9.33240e-01,9.99999e-01,9.99999e-01,9.39671e-01,9.93401e-01,9.99751e-01
1.228637839e+00,9.51381e-01,9.99999e-01,9.99999e-01,9.57685e-01,9.93531e-01,9.99884e-01
