#,Wave/freq,Total,CO2,Rayleigh,CIA
4.000000000e-01,1.37169e-05,9.99999e-01,1.37169e-05,9.99999e-01
4.020000000e-01,1.71163e-05,9.99999e-01,1.71163e-05,9.99999e-01
4.040100000e-01,2.12599e-05,9.99999e-01,2.12599e-05,9.99999e-01
4.060300500e-01,2.62938e-05,9.99999e-01,2.62938e-05,9.99999e-01
4.080602003e-01,3.23835e-05,9.99999e-01,3.23835e-05,9.99999e-01
4.101005013e-01,3.97196e-05,9.99999e-01,3.97196e-05,9.99999e-01
4.121510038e-01,4.85217e-05,9.99999e-01,4.85217e-05,9.99999e-01
4.142117588e-01,5.90404e-05,9.99999e-01,5.90404e-05,9.99999e-01
4.162828176e-01,7.15615e-05,9.99999e-01,7.15615e-05,9.99999e-01
4.183642317e-01,8.64092e-05,9.99999e-01,8.64092e-05,9.99999e-01
4.204560528e-01,1.03950e-04,9.99999e-01,1.03950e-04,9.99999e-01
4.225583331e-01,1.24595e-04,9.99999e-01,1.24595e-04,9.99999e-01
4.246711247e-01,1.48807e-04,9.99999e-01,1.48807e-04,9.99999e-01
4.267944804e-01,1.77102e-04,9.99999e-01,1.77102e-04,9.99999e-01
4.289284528e-01,2.10054e-04,9.99999e-01,2.10054e-04,9.99999e-01
4.310730950e-01,2.48299e-04,9.99999e-01,2.48299e-04,9.99999e-01
4.332284605e-01,2.92538e-04,9.99999e-01,2.92538e-04,9.99999e-01
4.353946028e-01,3.43545e-04,9.99999e-01,3.43545e-04,9.99999e-01
4.375715758e-01,4.02167e-04,9.99999e-01,4.02167e-04,9.99999e-01
4.397594337e-01,4.69330e-04,9.99999e-01,4.69330e-04,9.99999e-01
4.419582309e-01,5.46040e-04,9.99999e-01,5.46040e-04,9.99999e-01
4.441680220e-01,6.33392e-04,9.99999e-01,6.33392e-04,9.99999e-01
4.463888621e-01,7.32567e-04,9.99999e-01,7.32567e-04,9.99999e-01
4.486208064e-01,8.44840e-04,9.99999e-01,8.44840e-04,9.99999e-01
4.508639105e-01,9.71580e-04,9.99999e-01,9.71580e-04,9.99999e-01
4.531182300e-01,1.11425e-03,9.99999e-01,1.11425e-03,9.99999e-01
4.553838212e-01,1.27442e-03,9.99999e-01,1.27442e-03,9.99999e-01
4.576607403e-01,1.45375e-03,9.99999e-01,1.45375e-03,9.99999e-01
4.599490440e-01,1.65401e-03,9.99999e-01,1.65401e-03,9.99999e-01
4.622487892e-01,1.87706e-03,9.99999e-01,1.87706e-03,9.99999e-01
4.645600332e-01,2.12488e-03,9.99999e-01,2.12488e-03,9.99999e-01
4.668828333e-01,2.39953e-03,9.99999e-01,2.39953e-03,9.99999e-01
4.692172475e-01,2.70318e-03,9.99999e-01,2.70318e-03,9.99999e-01
4.715633337e-01,3.03810e-03,9.99999e-01,3.03810e-03,9.99999e-01
4.739211504e-01,3.40664e-03,9.99999e-01,3.40664e-03,9.99999e-01
4.762907561e-01,3.81126e-03,9.99999e-01,3.81126e-03,9.99999e-01
4.786722099e-01,4.25450e-03,9.99999e-01,4.25450e-03,9.99999e-01
4.810655710e-01,4.73898e-03,9.99999e-01,4.73898e-03,9.99999e-01
4.834708988e-01,5.26740e-03,9.99999e-01,5.26740e-03,9.99999e-01
4.858882533e-01,5.84252e-03,9.99999e-01,5.84252e-03,9.99999e-01
4.883176946e-01,6.46719e-03,9.99999e-01,6.46719e-03,9.99999e-01
4.907592831e-01,7.14429e-03,9.99999e-01,7.14429e-03,9.99999e-01
4.932130795e-01,7.87678e-03,9.99999e-01,7.87678e-03,9.99999e-01
4.956791449e-01,8.66764e-03,9.99999e-01,8.66764e-03,9.99999e-01
4.981575406e-01,9.51990e-03,9.99999e-01,9.51990e-03,9.99999e-01
5.006483283e-01,1.04366e-02,9.99999e-01,1.04366e-02,9.99999e-01
5.031515699e-01,1.14208e-02,9.99999e-01,1.14208e-02,9.99999e-01
5.056673278e-01,1.24757e-02,9.99999e-01,1.24757e-02,9.99999e-01
5.081956644e-01,1.36041e-02,9.99999e-01,1.36041e-02,9.99999e-01
5.107366428e-01,1.48093e-02,9.99999e-01,1.48093e-02,9.99999e-01
5.132903260e-01,1.60943e-02,9.99999e-01,1.60943e-02,9.99999e-01
5.158567776e-01,1.74620e-02,9.99999e-01,1.74620e-02,9.99999e-01
5.184360615e-01,1.89155e-02,9.99999e-01,1.89155e-02,9.99999e-01
5.210282418e-01,2.04576e-02,9.99999e-01,2.04576e-02,9.99999e-01
5.236333830e-01,2.20912e-02,9.99999e-01,2.20912e-02,9.99999e-01
5.262515499e-01,2.38191e-02,9.99999e-01,2.38191e-02,9.99999e-01
5.288828077e-01,2.56439e-02,9.99999e-01,2.56439e-02,9.99999e-01
5.315272217e-01,2.75684e-02,9.99999e-01,2.75684e-02,9.99999e-01
5.341848578e-01,2.95949e-02,9.99999e-01,2.95949e-02,9.99999e-01
5.368557821e-01,3.17259e-02,9.99999e-01,3.17259e-02,9.99999e-01
5.395400610e-01,3.39637e-02,9.99999e-01,3.39637e-02,9.99999e-01
5.422377613e-01,3.63104e-02,9.99999e-01,3.63104e-02,9.99999e-01
5.449489501e-01,3.87681e-02,9.99999e-01,3.87681e-02,9.99999e-01
5.476736949e-01,4.13385e-02,9.99999e-01,4.13385e-02,9.99999e-01
5.504120634e-01,4.40236e-02,9.99999e-01,4.40236e-02,9.99999e-01
5.531641237e-01,4.68248e-02,9.99999e-01,4.68248e-02,9.99999e-01
5.559299443e-01,4.97436e-02,9.99999e-01,4.97436e-02,9.99999e-01
5.587095940e-01,5.27813e-02,9.99999e-01,5.27813e-02,9.99999e-01
5.615031420e-01,5.59390e-02,9.99999e-01,5.59390e-02,9.99999e-01
5.643106577e-01,5.92175e-02,9.99999e-01,5.92175e-02,9.99999e-01
5.671322110e-01,6.26177e-02,9.99999e-01,6.26177e-02,9.99999e-01
5.699678720e-01,6.61402e-02,9.99999e-01,6.61402e-02,9.99999e-01
5.728177114e-01,6.97853e-02,9.99999e-01,6.97853e-02,9.99999e-01
5.756818000e-01,7.35534e-02,9.99999e-01,7.35534e-02,9.99999e-01
5.785602090e-01,7.74444e-02,9.99999e-01,7.74444e-02,9.99999e-01
5.814530100e-01,8.14583e-02,9.99999e-01,8.14583e-02,9.99999e-01
5.843602750e-01,8.55947e-02,9.99999e-01,8.55947e-02,9.99999e-01
5.872820764e-01,8.98533e-02,9.99999e-01,8.98533e-02,9.99999e-01
5.902184868e-01,9.42332e-02,9.99999e-01,9.42332e-02,9.99999e-01
5.931695792e-01,9.87339e-02,9.99999e-01,9.87339e-02,9.99999e-01
5.961354271e-01,1.03354e-01,9.99999e-01,1.03354e-01,9.99999e-01
5.991161043e-01,1.08093e-01,9.99999e-01,1.08093e-01,9.99999e-01
6.021116848e-01,1.12949e-01,9.99999e-01,1.12949e-01,9.99999e-01
6.051222432e-01,1.17921e-01,9.99999e-01,1.17921e-01,9.99999e-01
6.081478544e-01,1.23007e-01,9.99999e-01,1.23007e-01,9.99999e-01
6.111885937e-01,1.28205e-01,9.99999e-01,1.28205e-01,9.99999e-01
6.142445367e-01,1.33514e-01,9.99999e-01,1.33514e-01,9.99999e-01
6.173157594e-01,1.38931e-01,9.99999e-01,1.38931e-01,9.99999e-01
6.204023382e-01,1.44454e-01,9.99999e-01,1.44454e-01,9.99999e-01
6.235043498e-01,1.50082e-01,9.99999e-01,1.50082e-01,9.99999e-01
6.266218716e-01,1.55811e-01,9.99999e-01,1.55811e-01,9.99999e-01
6.297549810e-01,1.61639e-01,9.99999e-01,1.61639e-01,9.99999e-01
6.329037559e-01,1.67563e-01,9.99999e-01,1.67563e-01,9.99999e-01
6.360682746e-01,1.73581e-01,9.99999e-01,1.73581e-01,9.99999e-01
6.392486160e-01,1.79690e-01,9.99999e-01,1.79690e-01,9.99999e-01
6.424448591e-01,1.85887e-01,9.99999e-01,1.85887e-01,9.99999e-01
6.456570834e-01,1.92169e-01,9.99999e-01,1.92169e-01,9.99999e-01
6.488853688e-01,1.98533e-01,9.99999e-01,1.98533e-01,9.99999e-01
6.521297956e-01,2.04976e-01,9.99999e-01,2.04976e-01,9.99999e-01
6.553904446e-01,2.11494e-01,9.99999e-01,2.11494e-01,9.99999e-01
6.586673968e-01,2.18085e-01,9.99999e-01,2.18085e-01,9.99999e-01
6.619607338e-01,2.24744e-01,9.99999e-01,2.24744e-01,9.99999e-01
6.652705375e-01,2.31470e-01,9.99999e-01,2.31470e-01,9.99999e-01
6.685968902e-01,2.38258e-01,9.99999e-01,2.38258e-01,9.99999e-01
6.719398746e-01,2.45105e-01,9.99999e-01,2.45105e-01,9.99999e-01
6.752995740e-01,2.52008e-01,9.99999e-01,2.52008e-01,9.99999e-01
6.786760719e-01,2.58963e-01,9.99999e-01,2.58963e-01,9.99999e-01
6.820694522e-01,2.65967e-01,9.99999e-01,2.65967e-01,9.99999e-01
6.854797995e-01,2.73016e-01,9.99999e-01,2.73016e-01,9.99999e-01
6.889071985e-01,2.80108e-01,9.99999e-01,2.80108e-01,9.99999e-01
6.923517345e-01,2.87238e-01,9.99999e-01,2.87238e-01,9.99999e-01
6.958134932e-01,2.94404e-01,9.99999e-01,2.94404e-01,9.99999e-01
6.992925606e-01,3.01601e-01,9.99999e-01,3.01601e-01,9.99999e-01
7.027890234e-01,3.08827e-01,9.99999e-01,3.08827e-01,9.99999e-01
7.063029686e-01,3.16078e-01,9.99999e-01,3.16078e-01,9.99999e-01
7.098344834e-01,3.23352e-01,9.99999e-01,3.23352e-01,9.99999e-01
7.133836558e-01,3.30644e-01,9.99999e-01,3.30644e-01,9.99999e-01
7.169505741e-01,3.37951e-01,9.99999e-01,3.37951e-01,9.99999e-01
7.205353270e-01,3.45271e-01,9.99999e-01,3.45271e-01,9.99999e-01
7.241380036e-01,3.52600e-01,9.99999e-01,3.52600e-01,9.99999e-01
7.277586936e-01,3.59936e-01,9.99999e-01,3.59936e-01,9.99999e-01
7.313974871e-01,3.67274e-01,9.99999e-01,3.67274e-01,9.99999e-01
7.350544745e-01,3.74613e-01,9.99999e-01,3.74613e-01,9.99999e-01
7.387297469e-01,3.81950e-01,9.99999e-01,3.81950e-01,9.99999e-01
7.424233956e-01,3.89280e-01,9.99999e-01,3.89280e-01,9.99999e-01
7.461355126e-01,3.96603e-01,9.99999e-01,3.96603e-01,9.99999e-01
7.498661902e-01,4.03914e-01,9.99999e-01,4.03914e-01,9.99999e-01
7.536155211e-01,4.11212e-01,9.99999e-01,4.11212e-01,9.99999e-01
7.573835987e-01,4.18494e-01,9.99999e-01,4.18494e-01,9.99999e-01
7.611705167e-01,4.25757e-01,9.99999e-01,4.25757e-01,9.99999e-01
7.649763693e-01,4.32999e-01,9.99999e-01,4.32999e-01,9.99999e-01
7.688012511e-01,4.40217e-01,9.99999e-01,4.40217e-01,9.99999e-01
7.726452574e-01,4.47410e-01,9.99999e-01,4.47410e-01,9.99999e-01
7.765084837e-01,4.54574e-01,9.99999e-01,4.54574e-01,9.99999e-01
7.803910261e-01,4.46245e-01,9.66508e-01,4.61709e-01,9.99999e-01
7.842929812e-01,3.97707e-01,8.48330e-01,4.68811e-01,9.99999e-01
7.882144461e-01,3.99895e-01,8.40329e-01,4.75878e-01,9.99999e-01
7.921555184e-01,4.36269e-01,9.03416e-01,4.82910e-01,9.99999e-01
7.961162960e-01,4.57264e-01,9.33375e-01,4.89904e-01,9.99999e-01
8.000968774e-01,4.78685e-01,9.63424e-01,4.96857e-01,9.99999e-01
8.040973618e-01,4.94064e-01,9.80733e-01,5.03770e-01,9.99999e-01
8.081178486e-01,5.06135e-01,9.91179e-01,5.10639e-01,9.99999e-01
8.121584379e-01,5.16028e-01,9.97227e-01,5.17463e-01,9.99999e-01
8.162192301e-01,5.23919e-01,9.99386e-01,5.24241e-01,9.99999e-01
8.203003262e-01,5.30965e-01,9.99988e-01,5.30971e-01,9.99999e-01
8.244018279e-01,5.37652e-01,9.99999e-01,5.37652e-01,9.99999e-01
8.285238370e-01,5.44283e-01,9.99999e-01,5.44283e-01,9.99999e-01
8.326664562e-01,5.50862e-01,9.99999e-01,5.50862e-01,9.99999e-01
8.368297885e-01,5.57388e-01,9.99999e-01,5.57388e-01,9.99999e-01
8.410139374e-01,5.63860e-01,9.99999e-01,5.63860e-01,9.99999e-01
8.452190071e-01,5.70278e-01,9.99999e-01,5.70278e-01,9.99999e-01
8.494451021e-01,5.76640e-01,9.99999e-01,5.76640e-01,9.99999e-01
8.536923276e-01,5.82944e-01,9.99999e-01,5.82944e-01,9.99999e-01
8.579607893e-01,5.89192e-01,9.99999e-01,5.89192e-01,9.99999e-01
8.622505932e-01,5.95380e-01,9.99999e-01,5.95380e-01,9.99999e-01
8.665618462e-01,5.57579e-01,9.26964e-01,6.01510e-01,9.99999e-01
8.708946554e-01,4.02032e-01,6.61693e-01,6.07580e-01,9.99999e-01
8.752491287e-01,4.38585e-01,7.14785e-01,6.13589e-01,9.99999e-01
8.796253743e-01,5.14818e-01,8.30970e-01,6.19538e-01,9.99999e-01
8.840235012e-01,5.68191e-01,9.08488e-01,6.25425e-01,9.99999e-01
8.884436187e-01,6.07627e-01,9.62578e-01,6.31249e-01,9.99999e-01
8.928858368e-01,6.27302e-01,9.84756e-01,6.37012e-01,9.99999e-01
8.973502660e-01,6.40290e-01,9.96232e-01,6.42711e-01,9.99999e-01
9.018370173e-01,6.48078e-01,9.99582e-01,6.48348e-01,9.99999e-01
9.063462024e-01,6.47376e-01,9.89990e-01,6.53921e-01,9.99999e-01
9.108779334e-01,6.43689e-01,9.76127e-01,6.59431e-01,9.99999e-01
9.154323231e-01,6.61051e-01,9.94245e-01,6.64877e-01,9.99999e-01
9.200094847e-01,6.18956e-01,9.23458e-01,6.70259e-01,9.99999e-01
9.246095321e-01,6.00372e-01,8.88681e-01,6.75576e-01,9.99999e-01
9.292325798e-01,6.21804e-01,9.13301e-01,6.80830e-01,9.99999e-01
9.338787427e-01,6.27419e-01,9.14578e-01,6.86020e-01,9.99999e-01
9.385481364e-01,6.47256e-01,9.36496e-01,6.91146e-01,9.99999e-01
9.432408771e-01,6.68617e-01,9.60369e-01,6.96207e-01,9.99999e-01
9.479570815e-01,6.86888e-01,9.79582e-01,7.01204e-01,9.99999e-01
9.526968669e-01,6.99128e-01,9.90072e-01,7.06138e-01,9.99999e-01
9.574603512e-01,7.07978e-01,9.95738e-01,7.11008e-01,9.99999e-01
9.622476530e-01,7.14860e-01,9.98666e-01,7.15814e-01,9.99999e-01
9.670588912e-01,7.20268e-01,9.99598e-01,7.20557e-01,9.99999e-01
9.718941857e-01,7.25215e-01,9.99970e-01,7.25237e-01,9.99999e-01
9.767536566e-01,7.29853e-01,9.99999e-01,7.29853e-01,9.99999e-01
9.816374249e-01,7.34407e-01,9.99999e-01,7.34407e-01,9.99999e-01
9.865456120e-01,7.38899e-01,9.99999e-01,7.38899e-01,9.99999e-01
9.914783401e-01,7.43329e-01,9.99999e-01,7.43329e-01,9.99999e-01
9.964357318e-01,7.47696e-01,9.99999e-01,7.47696e-01,9.99999e-01
1.001417910e+00,7.52003e-01,9.99999e-01,7.52003e-01,9.99999e-01
1.006425000e+00,7.56248e-01,9.99999e-01,7.56248e-01,9.99999e-01
1.011457125e+00,7.60433e-01,9.99999e-01,7.60433e-01,9.99999e-01
1.016514411e+00,7.64558e-01,9.99999e-01,7.64558e-01,9.99999e-01
1.021596983e+00,7.68589e-01,9.99955e-01,7.68623e-01,9.99999e-01
1.026704968e+00,7.69622e-01,9.96108e-01,7.72629e-01,9.99999e-01
1.031838492e+00,7.44832e-01,9.59123e-01,7.76576e-01,9.99999e-01
1.036997685e+00,1.13648e-01,1.45616e-01,7.80464e-01,9.99999e-01
1.042182673e+00,7.94488e-02,1.01300e-01,7.84294e-01,9.99999e-01
1.047393587e+00,1.01420e-01,1.28694e-01,7.88067e-01,9.99999e-01
1.052630555e+00,2.19183e-03,2.76821e-03,7.91784e-01,9.99999e-01
1.057893707e+00,5.60985e-03,7.05247e-03,7.95443e-01,9.99999e-01
1.063183176e+00,2.06424e-02,2.58337e-02,7.99047e-01,9.99999e-01
1.068499092e+00,6.30401e-02,7.85452e-02,8.02596e-01,9.99999e-01
1.073841587e+00,1.60004e-01,1.98493e-01,8.06090e-01,9.99999e-01
1.079210795e+00,2.90835e-01,3.59264e-01,8.09529e-01,9.99999e-01
1.084606849e+00,4.61552e-01,5.67774e-01,8.12915e-01,9.99999e-01
1.090029883e+00,6.08658e-01,7.45678e-01,8.16248e-01,9.99999e-01
1.095480033e+00,7.08916e-01,8.65030e-01,8.19528e-01,9.99999e-01
1.100957433e+00,7.67248e-01,9.32534e-01,8.22756e-01,9.99999e-01
1.106462220e+00,8.02370e-01,9.71470e-01,8.25933e-01,9.99999e-01
1.111994531e+00,8.20215e-01,9.89332e-01,8.29058e-01,9.99999e-01
1.117554504e+00,8.29940e-01,9.97362e-01,8.32134e-01,9.99999e-01
1.123142276e+00,8.35014e-01,9.99824e-01,8.35160e-01,9.99999e-01
1.128757988e+00,8.38137e-01,9.99999e-01,8.38137e-01,9.99999e-01
1.134401778e+00,8.41065e-01,9.99999e-01,8.41065e-01,9.99999e-01
1.140073787e+00,8.43945e-01,9.99999e-01,8.43945e-01,9.99999e-01
1.145774156e+00,8.46779e-01,9.99999e-01,8.46779e-01,9.99999e-01
1.151503026e+00,8.49565e-01,9.99999e-01,8.49565e-01,9.99999e-01
1.157260541e+00,8.52305e-01,9.99999e-01,8.52305e-01,9.99999e-01
1.163046844e+00,8.55000e-01,9.99999e-01,8.55000e-01,9.99999e-01
1.168862078e+00,8.57650e-01,9.99999e-01,8.57650e-01,9.99999e-01
1.174706389e+00,8.60255e-01,9.99999e-01,8.60255e-01,9.99999e-01
1.180579921e+00,8.62816e-01,9.99999e-01,8.62816e-01,9.99999e-01
1.186482820e+00,8.65332e-01,9.99996e-01,8.65335e-01,9.99999e-01
1.192415234e+00,8.55964e-01,9.86347e-01,8.67811e-01,9.99999e-01
1.198377311e+00,4.88259e-01,5.61060e-01,8.70244e-01,9.99999e-01
1.204369197e+00,5.89867e-12,6.75959e-12,8.72637e-01,9.99999e-01
1.210391043e+00,5.99478e-44,6.85126e-44,8.74988e-01,9.99999e-01
1.216442998e+00,3.15013e-38,3.59072e-38,8.77299e-01,9.99999e-01
1.222525213e+00,1.12246e-37,1.27614e-37,8.79570e-01,9.99999e-01
1.228637839e+00,3.50222e-29,3.97166e-29,8.81803e-01,9.99999e-01
1.234781029e+00,1.62045e-22,1.83309e-22,8.83996e-01,9.99999e-01
1.240954934e+00,9.49772e-13,1.07179e-12,8.86152e-01,9.99999e-01
1.247159708e+00,2.33410e-08,2.62768e-08,8.88270e-01,9.99999e-01
1.253395507e+00,1.47974e-04,1.66198e-04,8.90351e-01,9.99999e-01
1.259662485e+00,4.17529e-03,4.67874e-03,8.92396e-01,9.99999e-01
1.265960797e+00,4.88104e-02,5.45730e-02,8.94405e-01,9.99999e-01
1.272290601e+00,2.37636e-01,2.65107e-01,8.96379e-01,9.99999e-01
1.278652054e+00,2.29906e-01,2.55929e-01,8.98318e-01,9.99999e-01
1.285045314e+00,5.56917e-03,6.18643e-03,9.00222e-01,9.99999e-01
1.291470541e+00,7.80375e-06,8.65070e-06,9.02093e-01,9.99999e-01
1.297927893e+00,3.04448e-03,3.36804e-03,9.03931e-01,9.99999e-01
1.304417533e+00,9.64698e-02,1.06510e-01,9.05736e-01,9.99999e-01
1.310939621e+00,2.48279e-02,2.73583e-02,9.07509e-01,9.99999e-01
1.317494319e+00,1.46319e-15,1.60922e-15,9.09251e-01,9.99999e-01
1.324081790e+00,9.63056e-11,1.05719e-10,9.10961e-01,9.99999e-01
1.330702199e+00,2.39241e-06,2.62141e-06,9.12641e-01,9.99999e-01
1.337355710e+00,3.36297e-06,3.67823e-06,9.14290e-01,9.99999e-01
1.344042489e+00,1.09811e-06,1.19893e-06,9.15910e-01,9.99999e-01
1.350762701e+00,1.40474e-06,1.53105e-06,9.17500e-01,9.99999e-01
1.357516515e+00,1.76368e-04,1.91900e-04,9.19062e-01,9.99999e-01
1.364304097e+00,3.38464e-03,3.67657e-03,9.20595e-01,9.99999e-01
1.371125618e+00,4.94840e-02,5.36643e-02,9.22101e-01,9.99999e-01
1.377981246e+00,8.37437e-02,9.06729e-02,9.23579e-01,9.99999e-01
1.384871152e+00,2.28599e-01,2.47126e-01,9.25031e-01,9.99999e-01
1.391795508e+00,2.54068e-01,2.74236e-01,9.26456e-01,9.99999e-01
1.398754485e+00,4.17524e-01,4.49988e-01,9.27855e-01,9.99999e-01
1.405748258e+00,5.15746e-01,5.55026e-01,9.29228e-01,9.99999e-01
1.412776999e+00,6.41161e-01,6.88993e-01,9.30576e-01,9.99999e-01
1.419840884e+00,5.84958e-01,6.27704e-01,9.31900e-01,9.99999e-01
1.426940089e+00,5.21633e-02,5.58973e-02,9.33199e-01,9.99999e-01
1.434074789e+00,0.00000e+00,0.00000e+00,9.34474e-01,9.99999e-01
1.441245163e+00,0.00000e+00,0.00000e+00,9.35726e-01,9.99999e-01
1.448451389e+00,0.00000e+00,0.00000e+00,9.36954e-01,9.99999e-01
1.455693646e+00,0.00000e+00,0.00000e+00,9.38160e-01,9.99999e-01
1.462972114e+00,1.65739e-171,1.76442e-171,9.39344e-01,9.99999e-01
1.470286975e+00,6.78066e-72,7.20958e-72,9.40506e-01,9.99999e-01
1.477638409e+00,1.22517e-45,1.30109e-45,9.41646e-01,9.99999e-01
1.485026601e+00,6.09514e-26,6.46517e-26,9.42765e-01,9.99999e-01
1.492451734e+00,4.18120e-22,4.42988e-22,9.43863e-01,9.99999e-01
1.499913993e+00,2.48249e-10,2.62713e-10,9.44941e-01,9.99999e-01
1.507413563e+00,4.35583e-09,4.60447e-09,9.45998e-01,9.99999e-01
1.514950631e+00,1.72734e-10,1.82394e-10,9.47036e-01,9.99999e-01
1.522525384e+00,8.55925e-33,9.02821e-33,9.48055e-01,9.99999e-01
1.530138011e+00,1.26202e-76,1.32977e-76,9.49054e-01,9.99999e-01
1.537788701e+00,5.35829e-57,5.64009e-57,9.50035e-01,9.99999e-01
1.545477645e+00,5.43256e-13,5.71248e-13,9.50997e-01,9.99999e-01
1.553205033e+00,3.42651e-09,3.59949e-09,9.51941e-01,9.99999e-01
1.560971058e+00,1.14074e-09,1.19717e-09,9.52868e-01,9.99999e-01
1.568775913e+00,2.13510e-192,2.23857e-192,9.53777e-01,9.99999e-01
1.576619793e+00,0.00000e+00,0.00000e+00,9.54669e-01,9.99999e-01
1.584502892e+00,7.07861e-246,7.40793e-246,9.55544e-01,9.99999e-01
1.592425406e+00,1.46601e-171,1.53283e-171,9.56403e-01,9.99999e-01
1.600387533e+00,4.38569e-276,4.58157e-276,9.57245e-01,9.99999e-01
1.608389471e+00,0.00000e+00,0.00000e+00,9.58072e-01,9.99999e-01
1.616431418e+00,0.00000e+00,0.00000e+00,9.58883e-01,9.99999e-01
1.624513575e+00,9.50948e-218,9.90901e-218,9.59678e-01,9.99999e-01
1.632636143e+00,6.51119e-162,6.77925e-162,9.60459e-01,9.99999e-01
1.640799324e+00,1.07393e-66,1.11725e-66,9.61224e-01,9.99999e-01
1.649003321e+00,1.08727e-66,1.13024e-66,9.61976e-01,9.99999e-01
1.657248337e+00,8.50611e-52,8.83555e-52,9.62713e-01,9.99999e-01
1.665534579e+00,3.94224e-52,4.09186e-52,9.63435e-01,9.99999e-01
1.673862252e+00,1.13310e-33,1.17523e-33,9.64144e-01,9.99999e-01
1.682231563e+00,1.17258e-23,1.21531e-23,9.64840e-01,9.99999e-01
1.690642721e+00,1.08694e-13,1.12576e-13,9.65522e-01,9.99999e-01
1.699095934e+00,6.65887e-09,6.89187e-09,9.66192e-01,9.99999e-01
1.707591414e+00,4.40092e-05,4.55182e-05,9.66848e-01,9.99999e-01
1.716129371e+00,3.57826e-03,3.69848e-03,9.67492e-01,9.99999e-01
1.724710018e+00,4.38457e-02,4.52893e-02,9.68124e-01,9.99999e-01
1.733333568e+00,1.31243e-01,1.35477e-01,9.68744e-01,9.99999e-01
1.742000236e+00,2.95435e-01,3.04776e-01,9.69352e-01,9.99999e-01
1.750710237e+00,7.22316e-03,7.44695e-03,9.69948e-01,9.99999e-01
1.759463788e+00,4.18351e-32,4.31053e-32,9.70533e-01,9.99999e-01
1.768261107e+00,1.14841e-33,1.18258e-33,9.71106e-01,9.99999e-01
1.777102413e+00,1.77414e-32,1.82587e-32,9.71669e-01,9.99999e-01
1.785987925e+00,8.57410e-31,8.81908e-31,9.72220e-01,9.99999e-01
1.794917864e+00,2.33720e-29,2.40264e-29,9.72762e-01,9.99999e-01
1.803892454e+00,2.18404e-28,2.24397e-28,9.73292e-01,9.99999e-01
1.812911916e+00,3.31859e-27,3.40783e-27,9.73813e-01,9.99999e-01
1.821976476e+00,2.40486e-27,2.46824e-27,9.74323e-01,9.99999e-01
1.831086358e+00,3.43131e-22,3.51992e-22,9.74824e-01,9.99999e-01
1.840241790e+00,6.54335e-19,6.70896e-19,9.75315e-01,9.99999e-01
1.849442999e+00,3.10340e-13,3.18037e-13,9.75797e-01,9.99999e-01
1.858690214e+00,2.77241e-12,2.83980e-12,9.76269e-01,9.99999e-01
1.867983665e+00,5.37515e-13,5.50320e-13,9.76732e-01,9.99999e-01
1.877323583e+00,1.71513e-60,1.75517e-60,9.77187e-01,9.99999e-01
