#,Wave/freq,Total,CO2,Rayleigh,CIA
4.000000000e-01,1.46785e-05,9.99999e-01,1.46785e-05,9.99999e-01
4.020000000e-01,1.82916e-05,9.99999e-01,1.82916e-05,9.99999e-01
4.040100000e-01,2.26900e-05,9.99999e-01,2.26900e-05,9.99999e-01
4.060300500e-01,2.80265e-05,9.99999e-01,2.80265e-05,9.99999e-01
4.080602003e-01,3.44739e-05,9.99999e-01,3.44739e-05,9.99999e-01
4.101005013e-01,4.22315e-05,9.99999e-01,4.22315e-05,9.99999e-01
4.121510038e-01,5.15277e-05,9.99999e-01,5.15277e-05,9.99999e-01
4.142117588e-01,6.26237e-05,9.99999e-01,6.26237e-05,9.99999e-01
4.162828176e-01,7.58164e-05,9.99999e-01,7.58164e-05,9.99999e-01
4.183642317e-01,9.14425e-05,9.99999e-01,9.14425e-05,9.99999e-01
4.204560528e-01,1.09882e-04,9.99999e-01,1.09882e-04,9.99999e-01
4.225583331e-01,1.31561e-04,9.99999e-01,1.31561e-04,9.99999e-01
4.246711247e-01,1.56958e-04,9.99999e-01,1.56958e-04,9.99999e-01
4.267944804e-01,1.86606e-04,9.99999e-01,1.86606e-04,9.99999e-01
4.289284528e-01,2.21098e-04,9.99999e-01,2.21098e-04,9.99999e-01
4.310730950e-01,2.61089e-04,9.99999e-01,2.61089e-04,9.99999e-01
4.332284605e-01,3.07302e-04,9.99999e-01,3.07302e-04,9.99999e-01
4.353946028e-01,3.60533e-04,9.99999e-01,3.60533e-04,9.99999e-01
4.375715758e-01,4.21652e-04,9.99999e-01,4.21652e-04,9.99999e-01
4.397594337e-01,4.91609e-04,9.99999e-01,4.91609e-04,9.99999e-01
4.419582309e-01,5.71437e-04,9.99999e-01,5.71437e-04,9.99999e-01
4.441680220e-01,6.62256e-04,9.99999e-01,6.62256e-04,9.99999e-01
4.463888621e-01,7.65277e-04,9.99999e-01,7.65277e-04,9.99999e-01
4.486208064e-01,8.81802e-04,9.99999e-01,8.81802e-04,9.99999e-01
4.508639105e-01,1.01323e-03,9.99999e-01,1.01323e-03,9.99999e-01
4.531182300e-01,1.16105e-03,9.99999e-01,1.16105e-03,9.99999e-01
4.553838212e-01,1.32687e-03,9.99999e-01,1.32687e-03,9.99999e-01
4.576607403e-01,1.51238e-03,9.99999e-01,1.51238e-03,9.99999e-01
4.599490440e-01,1.71937e-03,9.99999e-01,1.71937e-03,9.99999e-01
4.622487892e-01,1.94974e-03,9.99999e-01,1.94974e-03,9.99999e-01
4.645600332e-01,2.20550e-03,9.99999e-01,2.20550e-03,9.99999e-01
4.668828333e-01,2.48874e-03,9.99999e-01,2.48874e-03,9.99999e-01
4.692172475e-01,2.80166e-03,9.99999e-01,2.80166e-03,9.99999e-01
4.715633337e-01,3.14655e-03,9.99999e-01,3.14655e-03,9.99999e-01
4.739211504e-01,3.52581e-03,9.99999e-01,3.52581e-03,9.99999e-01
4.762907561e-01,3.94191e-03,9.99999e-01,3.94191e-03,9.99999e-01
4.786722099e-01,4.39741e-03,9.99999e-01,4.39741e-03,9.99999e-01
4.810655710e-01,4.89497e-03,9.99999e-01,4.89497e-03,9.99999e-01
4.834708988e-01,5.43729e-03,9.99999e-01,5.43729e-03,9.99999e-01
4.858882533e-01,6.02719e-03,9.99999e-01,6.02719e-03,9.99999e-01
4.883176946e-01,6.66750e-03,9.99999e-01,6.66750e-03,9.99999e-01
4.907592831e-01,7.36114e-03,9.99999e-01,7.36114e-03,9.99999e-01
4.932130795e-01,8.11107e-03,9.99999e-01,8.11107e-03,9.99999e-01
4.956791449e-01,8.92029e-03,9.99999e-01,8.92029e-03,9.99999e-01
4.981575406e-01,9.79184e-03,9.99999e-01,9.79184e-03,9.99999e-01
5.006483283e-01,1.07288e-02,9.99999e-01,1.07288e-02,9.99999e-01
5.031515699e-01,1.17341e-02,9.99999e-01,1.17341e-02,9.99999e-01
5.056673278e-01,1.28110e-02,9.99999e-01,1.28110e-02,9.99999e-01
5.081956644e-01,1.39625e-02,9.99999e-01,1.39625e-02,9.99999e-01
5.107366428e-01,1.51917e-02,9.99999e-01,1.51917e-02,9.99999e-01
5.132903260e-01,1.65015e-02,9.99999e-01,1.65015e-02,9.99999e-01
5.158567776e-01,1.78950e-02,9.99999e-01,1.78950e-02,9.99999e-01
5.184360615e-01,1.93751e-02,9.99999e-01,1.93751e-02,9.99999e-01
5.210282418e-01,2.09448e-02,9.99999e-01,2.09448e-02,9.99999e-01
5.236333830e-01,2.26068e-02,9.99999e-01,2.26068e-02,9.99999e-01
5.262515499e-01,2.43639e-02,9.99999e-01,2.43639e-02,9.99999e-01
5.288828077e-01,2.62188e-02,9.99999e-01,2.62188e-02,9.99999e-01
5.315272217e-01,2.81740e-02,9.99999e-01,2.81740e-02,9.99999e-01
5.341848578e-01,3.02321e-02,9.99999e-01,3.02321e-02,9.99999e-01
5.368557821e-01,3.23953e-02,9.99999e-01,3.23953e-02,9.99999e-01
5.395400610e-01,3.46660e-02,9.99999e-01,3.46660e-02,9.99999e-01
5.422377613e-01,3.70463e-02,9.99999e-01,3.70463e-02,9.99999e-01
5.449489501e-01,3.95381e-02,9.99999e-01,3.95381e-02,9.99999e-01
5.476736949e-01,4.21432e-02,9.99999e-01,4.21432e-02,9.99999e-01
5.504120634e-01,4.48635e-02,9.99999e-01,4.48635e-02,9.99999e-01
5.531641237e-01,4.77003e-02,9.99999e-01,4.77003e-02,9.99999e-01
5.559299443e-01,5.06552e-02,9.99999e-01,5.06552e-02,9.99999e-01
5.587095940e-01,5.37292e-02,9.99999e-01,5.37292e-02,9.99999e-01
5.615031420e-01,5.69236e-02,9.99999e-01,5.69236e-02,9.99999e-01
5.643106577e-01,6.02391e-02,9.99999e-01,6.02391e-02,9.99999e-01
5.671322110e-01,6.36764e-02,9.99999e-01,6.36764e-02,9.99999e-01
5.699678720e-01,6.72362e-02,9.99999e-01,6.72362e-02,9.99999e-01
5.728177114e-01,7.09187e-02,9.99999e-01,7.09187e-02,9.99999e-01
5.756818000e-01,7.47242e-02,9.99999e-01,7.47242e-02,9.99999e-01
5.785602090e-01,7.86526e-02,9.99999e-01,7.86526e-02,9.99999e-01
5.814530100e-01,8.27038e-02,9.99999e-01,8.27038e-02,9.99999e-01
5.843602750e-01,8.68774e-02,9.99999e-01,8.68774e-02,9.99999e-01
5.872820764e-01,9.11730e-02,9.99999e-01,9.11730e-02,9.99999e-01
5.902184868e-01,9.55897e-02,9.99999e-01,9.55897e-02,9.99999e-01
5.931695792e-01,1.00127e-01,9.99999e-01,1.00127e-01,9.99999e-01
5.961354271e-01,1.04783e-01,9.99999e-01,1.04783e-01,9.99999e-01
5.991161043e-01,1.09558e-01,9.99999e-01,1.09558e-01,9.99999e-01
6.021116848e-01,1.14449e-01,9.99999e-01,1.14449e-01,9.99999e-01
6.051222432e-01,1.19456e-01,9.99999e-01,1.19456e-01,9.99999e-01
6.081478544e-01,1.24576e-01,9.99999e-01,1.24576e-01,9.99999e-01
6.111885937e-01,1.29808e-01,9.99999e-01,1.29808e-01,9.99999e-01
6.142445367e-01,1.35150e-01,9.99999e-01,1.35150e-01,9.99999e-01
6.173157594e-01,1.40600e-01,9.99999e-01,1.40600e-01,9.99999e-01
6.204023382e-01,1.46156e-01,9.99999e-01,1.46156e-01,9.99999e-01
6.235043498e-01,1.51814e-01,9.99999e-01,1.51814e-01,9.99999e-01
6.266218716e-01,1.57574e-01,9.99999e-01,1.57574e-01,9.99999e-01
6.297549810e-01,1.63431e-01,9.99999e-01,1.63431e-01,9.99999e-01
6.329037559e-01,1.69384e-01,9.99999e-01,1.69384e-01,9.99999e-01
6.360682746e-01,1.75431e-01,9.99999e-01,1.75431e-01,9.99999e-01
6.392486160e-01,1.81567e-01,9.99999e-01,1.81567e-01,9.99999e-01
6.424448591e-01,1.87790e-01,9.99999e-01,1.87790e-01,9.99999e-01
6.456570834e-01,1.94097e-01,9.99999e-01,1.94097e-01,9.99999e-01
6.488853688e-01,2.00485e-01,9.99999e-01,2.00485e-01,9.99999e-01
6.521297956e-01,2.06951e-01,9.99999e-01,2.06951e-01,9.99999e-01
6.553904446e-01,2.13492e-01,9.99999e-01,2.13492e-01,9.99999e-01
6.586673968e-01,2.20104e-01,9.99999e-01,2.20104e-01,9.99999e-01
6.619607338e-01,2.26784e-01,9.99999e-01,2.26784e-01,9.99999e-01
6.652705375e-01,2.33529e-01,9.99999e-01,2.33529e-01,9.99999e-01
6.685968902e-01,2.40335e-01,9.99999e-01,2.40335e-01,9.99999e-01
6.719398746e-01,2.47199e-01,9.99999e-01,2.47199e-01,9.99999e-01
6.752995740e-01,2.54119e-01,9.99999e-01,2.54119e-01,9.99999e-01
6.786760719e-01,2.61089e-01,9.99999e-01,2.61089e-01,9.99999e-01
6.820694522e-01,2.68107e-01,9.99999e-01,2.68107e-01,9.99999e-01
6.854797995e-01,2.75170e-01,9.99999e-01,2.75170e-01,9.99999e-01
6.889071985e-01,2.82273e-01,9.99999e-01,2.82273e-01,9.99999e-01
6.923517345e-01,2.89415e-01,9.99999e-01,2.89415e-01,9.99999e-01
6.958134932e-01,2.96590e-01,9.99999e-01,2.96590e-01,9.99999e-01
6.992925606e-01,3.03797e-01,9.99999e-01,3.03797e-01,9.99999e-01
7.027890234e-01,3.11031e-01,9.99999e-01,3.11031e-01,9.99999e-01
7.063029686e-01,3.18289e-01,9.99999e-01,3.18289e-01,9.99999e-01
7.098344834e-01,3.25568e-01,9.99999e-01,3.25568e-01,9.99999e-01
7.133836558e-01,3.32865e-01,9.99999e-01,3.32865e-01,9.99999e-01
7.169505741e-01,3.40177e-01,9.99999e-01,3.40177e-01,9.99999e-01
7.205353270e-01,3.47500e-01,9.99999e-01,3.47500e-01,9.99999e-01
7.241380036e-01,3.54832e-01,9.99999e-01,3.54832e-01,9.99999e-01
7.277586936e-01,3.62168e-01,9.99999e-01,3.62168e-01,9.99999e-01
7.313974871e-01,3.69507e-01,9.99999e-01,3.69507e-01,9.99999e-01
7.350544745e-01,3.76846e-01,9.99999e-01,3.76846e-01,9.99999e-01
7.387297469e-01,3.84180e-01,9.99999e-01,3.84180e-01,9.99999e-01
7.424233956e-01,3.91509e-01,9.99999e-01,3.91509e-01,9.99999e-01
7.461355126e-01,3.98828e-01,9.99999e-01,3.98828e-01,9.99999e-01
7.498661902e-01,4.06136e-01,9.99999e-01,4.06136e-01,9.99999e-01
7.536155211e-01,4.13429e-01,9.99999e-01,4.13429e-01,9.99999e-01
7.573835987e-01,4.20706e-01,9.99999e-01,4.20706e-01,9.99999e-01
7.611705167e-01,4.27962e-01,9.99999e-01,4.27962e-01,9.99999e-01
7.649763693e-01,4.35197e-01,9.99999e-01,4.35197e-01,9.99999e-01
7.688012511e-01,4.42408e-01,9.99999e-01,4.42408e-01,9.99999e-01
7.726452574e-01,4.49592e-01,9.99999e-01,4.49592e-01,9.99999e-01
7.765084837e-01,4.56748e-01,9.99999e-01,4.56748e-01,9.99999e-01
7.803910261e-01,4.48421e-01,9.66689e-01,4.63873e-01,9.99999e-01
7.842929812e-01,3.99918e-01,8.49147e-01,4.70965e-01,9.99999e-01
7.882144461e-01,4.02102e-01,8.41178e-01,4.78022e-01,9.99999e-01
7.921555184e-01,4.38462e-01,9.03966e-01,4.85042e-01,9.99999e-01
7.961162960e-01,4.59434e-01,9.33763e-01,4.92024e-01,9.99999e-01
8.000968774e-01,4.80824e-01,9.63641e-01,4.98965e-01,9.99999e-01
8.040973618e-01,4.96176e-01,9.80848e-01,5.05864e-01,9.99999e-01
8.081178486e-01,5.08224e-01,9.91232e-01,5.12720e-01,9.99999e-01
8.121584379e-01,5.18098e-01,9.97244e-01,5.19530e-01,9.99999e-01
8.162192301e-01,5.25973e-01,9.99390e-01,5.26293e-01,9.99999e-01
8.203003262e-01,5.33003e-01,9.99988e-01,5.33009e-01,9.99999e-01
8.244018279e-01,5.39675e-01,9.99999e-01,5.39675e-01,9.99999e-01
8.285238370e-01,5.46290e-01,9.99999e-01,5.46290e-01,9.99999e-01
8.326664562e-01,5.52853e-01,9.99999e-01,5.52853e-01,9.99999e-01
8.368297885e-01,5.59363e-01,9.99999e-01,5.59363e-01,9.99999e-01
8.410139374e-01,5.65819e-01,9.99999e-01,5.65819e-01,9.99999e-01
8.452190071e-01,5.72219e-01,9.99999e-01,5.72219e-01,9.99999e-01
8.494451021e-01,5.78564e-01,9.99999e-01,5.78564e-01,9.99999e-01
8.536923276e-01,5.84851e-01,9.99999e-01,5.84851e-01,9.99999e-01
8.579607893e-01,5.91081e-01,9.99999e-01,5.91081e-01,9.99999e-01
8.622505932e-01,5.97252e-01,9.99999e-01,5.97252e-01,9.99999e-01
8.665618462e-01,5.59452e-01,9.27222e-01,6.03363e-01,9.99999e-01
8.708946554e-01,4.04194e-01,6.63249e-01,6.09415e-01,9.99999e-01
8.752491287e-01,4.40745e-01,7.16185e-01,6.15405e-01,9.99999e-01
8.796253743e-01,5.16881e-01,8.31886e-01,6.21335e-01,9.99999e-01
8.840235012e-01,5.70136e-01,9.09012e-01,6.27203e-01,9.99999e-01
8.884436187e-01,6.09461e-01,9.62799e-01,6.33009e-01,9.99999e-01
8.928858368e-01,6.29074e-01,9.84847e-01,6.38752e-01,9.99999e-01
8.973502660e-01,6.42020e-01,9.96255e-01,6.44433e-01,9.99999e-01
9.018370173e-01,6.49781e-01,9.99584e-01,6.50050e-01,9.99999e-01
9.063462024e-01,6.49081e-01,9.90049e-01,6.55604e-01,9.99999e-01
9.108779334e-01,6.45407e-01,9.76269e-01,6.61094e-01,9.99999e-01
9.154323231e-01,6.62709e-01,9.94280e-01,6.66521e-01,9.99999e-01
9.200094847e-01,6.20733e-01,9.23870e-01,6.71883e-01,9.99999e-01
9.246095321e-01,6.02226e-01,8.89312e-01,6.77182e-01,9.99999e-01
9.292325798e-01,6.23589e-01,9.13795e-01,6.82416e-01,9.99999e-01
9.338787427e-01,6.29189e-01,9.15068e-01,6.87586e-01,9.99999e-01
9.385481364e-01,6.48961e-01,9.36866e-01,6.92692e-01,9.99999e-01
9.432408771e-01,6.70247e-01,9.60604e-01,6.97734e-01,9.99999e-01
9.479570815e-01,6.88451e-01,9.79704e-01,7.02712e-01,9.99999e-01
9.526968669e-01,7.00644e-01,9.90132e-01,7.07626e-01,9.99999e-01
9.574603512e-01,7.09459e-01,9.95764e-01,7.12477e-01,9.99999e-01
9.622476530e-01,7.16314e-01,9.98674e-01,7.17264e-01,9.99999e-01
9.670588912e-01,7.21699e-01,9.99600e-01,7.21987e-01,9.99999e-01
9.718941857e-01,7.26627e-01,9.99970e-01,7.26648e-01,9.99999e-01
9.767536566e-01,7.31245e-01,9.99999e-01,7.31245e-01,9.99999e-01
9.816374249e-01,7.35780e-01,9.99999e-01,7.35780e-01,9.99999e-01
9.865456120e-01,7.40253e-01,9.99999e-01,7.40253e-01,9.99999e-01
9.914783401e-01,7.44664e-01,9.99999e-01,7.44664e-01,9.99999e-01
9.964357318e-01,7.49013e-01,9.99999e-01,7.49013e-01,9.99999e-01
1.001417910e+00,7.53301e-01,9.99999e-01,7.53301e-01,9.99999e-01
1.006425000e+00,7.57528e-01,9.99999e-01,7.57528e-01,9.99999e-01
1.011457125e+00,7.61695e-01,9.99999e-01,7.61695e-01,9.99999e-01
1.016514411e+00,7.65801e-01,9.99999e-01,7.65801e-01,9.99999e-01
1.021596983e+00,7.69814e-01,9.99955e-01,7.69848e-01,9.99999e-01
1.026704968e+00,7.70842e-01,9.96131e-01,7.73836e-01,9.99999e-01
1.031838492e+00,7.46112e-01,9.59302e-01,7.77765e-01,9.99999e-01
1.036997685e+00,1.14439e-01,1.46409e-01,7.81635e-01,9.99999e-01
1.042182673e+00,8.05747e-02,1.02584e-01,7.85448e-01,9.99999e-01
1.047393587e+00,1.02520e-01,1.29902e-01,7.89204e-01,9.99999e-01
1.052630555e+00,2.25921e-03,2.84929e-03,7.92903e-01,9.99999e-01
1.057893707e+00,5.76599e-03,7.23873e-03,7.96546e-01,9.99999e-01
1.063183176e+00,2.10832e-02,2.63496e-02,8.00133e-01,9.99999e-01
1.068499092e+00,6.40635e-02,7.97142e-02,8.03665e-01,9.99999e-01
1.073841587e+00,1.61733e-01,2.00377e-01,8.07142e-01,9.99999e-01
1.079210795e+00,2.92959e-01,3.61426e-01,8.10565e-01,9.99999e-01
1.084606849e+00,4.63695e-01,5.69695e-01,8.13934e-01,9.99999e-01
1.090029883e+00,6.10482e-01,7.46993e-01,8.17251e-01,9.99999e-01
1.095480033e+00,7.10390e-01,8.65785e-01,8.20515e-01,9.99999e-01
1.100957433e+00,7.68479e-01,9.32927e-01,8.23728e-01,9.99999e-01
1.106462220e+00,8.03439e-01,9.71640e-01,8.26889e-01,9.99999e-01
1.111994531e+00,8.21199e-01,9.89396e-01,8.29999e-01,9.99999e-01
1.117554504e+00,8.30877e-01,9.97378e-01,8.33060e-01,9.99999e-01
1.123142276e+00,8.35925e-01,9.99825e-01,8.36071e-01,9.99999e-01
1.128757988e+00,8.39033e-01,9.99999e-01,8.39033e-01,9.99999e-01
1.134401778e+00,8.41946e-01,9.99999e-01,8.41946e-01,9.99999e-01
1.140073787e+00,8.44812e-01,9.99999e-01,8.44812e-01,9.99999e-01
1.145774156e+00,8.47631e-01,9.99999e-01,8.47631e-01,9.99999e-01
1.151503026e+00,8.50403e-01,9.99999e-01,8.50403e-01,9.99999e-01
1.157260541e+00,8.53130e-01,9.99999e-01,8.53130e-01,9.99999e-01
1.163046844e+00,8.55811e-01,9.99999e-01,8.55811e-01,9.99999e-01
1.168862078e+00,8.58447e-01,9.99999e-01,8.58447e-01,9.99999e-01
1.174706389e+00,8.61039e-01,9.99999e-01,8.61039e-01,9.99999e-01
1.180579921e+00,8.63587e-01,9.99999e-01,8.63587e-01,9.99999e-01
1.186482820e+00,8.66090e-01,9.99996e-01,8.66092e-01,9.99999e-01
1.192415234e+00,8.56768e-01,9.86428e-01,8.68555e-01,9.99999e-01
1.198377311e+00,4.88812e-01,5.61222e-01,8.70976e-01,9.99999e-01
1.204369197e+00,6.75282e-12,7.73203e-12,8.73356e-01,9.99999e-01
1.210391043e+00,1.07174e-43,1.22387e-43,8.75695e-01,9.99999e-01
1.216442998e+00,5.20033e-38,5.92295e-38,8.77994e-01,9.99999e-01
1.222525213e+00,1.83887e-37,2.08903e-37,8.80254e-01,9.99999e-01
1.228637839e+00,5.13482e-29,5.81866e-29,8.82474e-01,9.99999e-01
1.234781029e+00,2.15943e-22,2.44098e-22,8.84656e-01,9.99999e-01
1.240954934e+00,1.10691e-12,1.24821e-12,8.86800e-01,9.99999e-01
1.247159708e+00,2.57573e-08,2.89763e-08,8.88907e-01,9.99999e-01
1.253395507e+00,1.55376e-04,1.74388e-04,8.90977e-01,9.99999e-01
1.259662485e+00,4.30256e-03,4.81803e-03,8.93011e-01,9.99999e-01
1.265960797e+00,4.96262e-02,5.54476e-02,8.95009e-01,9.99999e-01
1.272290601e+00,2.39640e-01,2.67165e-01,8.96972e-01,9.99999e-01
1.278652054e+00,2.31727e-01,2.57789e-01,8.98901e-01,9.99999e-01
1.285045314e+00,5.67562e-03,6.30067e-03,9.00795e-01,9.99999e-01
1.291470541e+00,8.33702e-06,9.23608e-06,9.02656e-01,9.99999e-01
1.297927893e+00,3.12301e-03,3.45280e-03,9.04484e-01,9.99999e-01
1.304417533e+00,9.78092e-02,1.07924e-01,9.06279e-01,9.99999e-01
1.310939621e+00,2.51888e-02,2.77397e-02,9.08043e-01,9.99999e-01
1.317494319e+00,1.78235e-15,1.95910e-15,9.09774e-01,9.99999e-01
1.324081790e+00,1.09171e-10,1.19773e-10,9.11475e-01,9.99999e-01
1.330702199e+00,2.57794e-06,2.82314e-06,9.13145e-01,9.99999e-01
1.337355710e+00,3.59253e-06,3.92718e-06,9.14786e-01,9.99999e-01
1.344042489e+00,1.17109e-06,1.27793e-06,9.16397e-01,9.99999e-01
1.350762701e+00,1.51620e-06,1.65167e-06,9.17978e-01,9.99999e-01
1.357516515e+00,1.84672e-04,2.00833e-04,9.19531e-01,9.99999e-01
1.364304097e+00,3.49867e-03,3.79854e-03,9.21056e-01,9.99999e-01
1.371125618e+00,5.03355e-02,5.45610e-02,9.22554e-01,9.99999e-01
1.377981246e+00,8.49937e-02,9.19820e-02,9.24024e-01,9.99999e-01
1.384871152e+00,2.30620e-01,2.49193e-01,9.25467e-01,9.99999e-01
1.391795508e+00,2.56158e-01,2.76365e-01,9.26884e-01,9.99999e-01
1.398754485e+00,4.19730e-01,4.52161e-01,9.28275e-01,9.99999e-01
1.405748258e+00,5.17800e-01,5.56989e-01,9.29641e-01,9.99999e-01
1.412776999e+00,6.42882e-01,6.90542e-01,9.30981e-01,9.99999e-01
1.419840884e+00,5.86566e-01,6.29161e-01,9.32297e-01,9.99999e-01
1.426940089e+00,5.25307e-02,5.62675e-02,9.33589e-01,9.99999e-01
1.434074789e+00,0.00000e+00,0.00000e+00,9.34857e-01,9.99999e-01
1.441245163e+00,0.00000e+00,0.00000e+00,9.36102e-01,9.99999e-01
1.448451389e+00,0.00000e+00,0.00000e+00,9.37324e-01,9.99999e-01
1.455693646e+00,0.00000e+00,0.00000e+00,9.38523e-01,9.99999e-01
1.462972114e+00,1.75208e-170,1.86451e-170,9.39700e-01,9.99999e-01
1.470286975e+00,1.78928e-71,1.90176e-71,9.40855e-01,9.99999e-01
1.477638409e+00,2.24255e-45,2.38065e-45,9.41989e-01,9.99999e-01
1.485026601e+00,8.48842e-26,9.00053e-26,9.43101e-01,9.99999e-01
1.492451734e+00,5.54862e-22,5.87656e-22,9.44193e-01,9.99999e-01
1.499913993e+00,2.78546e-10,2.94675e-10,9.45265e-01,9.99999e-01
1.507413563e+00,4.88356e-09,5.16059e-09,9.46316e-01,9.99999e-01
1.514950631e+00,1.93761e-10,2.04529e-10,9.47348e-01,9.99999e-01
1.522525384e+00,1.30995e-32,1.38128e-32,9.48361e-01,9.99999e-01
1.530138011e+00,3.56063e-76,3.75058e-76,9.49355e-01,9.99999e-01
1.537788701e+00,1.14975e-56,1.20984e-56,9.50330e-01,9.99999e-01
1.545477645e+00,6.30962e-13,6.63271e-13,9.51286e-01,9.99999e-01
1.553205033e+00,3.83917e-09,4.03179e-09,9.52225e-01,9.99999e-01
1.560971058e+00,1.27536e-09,1.33805e-09,9.53146e-01,9.99999e-01
1.568775913e+00,3.01966e-191,3.16509e-191,9.54050e-01,9.99999e-01
1.576619793e+00,0.00000e+00,0.00000e+00,9.54937e-01,9.99999e-01
1.584502892e+00,2.10907e-244,2.20658e-244,9.55807e-01,9.99999e-01
1.592425406e+00,1.55301e-170,1.62336e-170,9.56661e-01,9.99999e-01
1.600387533e+00,1.99051e-274,2.07887e-274,9.57498e-01,9.99999e-01
1.608389471e+00,0.00000e+00,0.00000e+00,9.58320e-01,9.99999e-01
1.616431418e+00,0.00000e+00,0.00000e+00,9.59126e-01,9.99999e-01
1.624513575e+00,1.91467e-216,1.99462e-216,9.59917e-01,9.99999e-01
1.632636143e+00,6.02230e-161,6.26869e-161,9.60693e-01,9.99999e-01
1.640799324e+00,2.63586e-66,2.74153e-66,9.61455e-01,9.99999e-01
1.649003321e+00,2.66959e-66,2.77446e-66,9.62201e-01,9.99999e-01
1.657248337e+00,1.69834e-51,1.76371e-51,9.62934e-01,9.99999e-01
1.665534579e+00,7.90955e-52,8.20788e-52,9.63653e-01,9.99999e-01
1.673862252e+00,1.75759e-33,1.82255e-33,9.64358e-01,9.99999e-01
1.682231563e+00,1.58375e-23,1.64110e-23,9.65049e-01,9.99999e-01
1.690642721e+00,1.27578e-13,1.32105e-13,9.65727e-01,9.99999e-01
1.699095934e+00,7.37818e-09,7.63476e-09,9.66393e-01,9.99999e-01
1.707591414e+00,4.63404e-05,4.79195e-05,9.67046e-01,9.99999e-01
1.716129371e+00,3.68997e-03,3.81319e-03,9.67686e-01,9.99999e-01
1.724710018e+00,4.46467e-02,4.61076e-02,9.68314e-01,9.99999e-01
1.733333568e+00,1.32834e-01,1.37093e-01,9.68930e-01,9.99999e-01
1.742000236e+00,2.97494e-01,3.06842e-01,9.69534e-01,9.99999e-01
1.750710237e+00,7.34766e-03,7.57391e-03,9.70127e-01,9.99999e-01
1.759463788e+00,6.37271e-32,6.56500e-32,9.70708e-01,9.99999e-01
1.768261107e+00,1.77908e-33,1.83169e-33,9.71278e-01,9.99999e-01
1.777102413e+00,2.73420e-32,2.81343e-32,9.71838e-01,9.99999e-01
1.785987925e+00,1.27850e-30,1.31481e-30,9.72386e-01,9.99999e-01
1.794917864e+00,3.43260e-29,3.52813e-29,9.72924e-01,9.99999e-01
1.803892454e+00,3.14365e-28,3.22939e-28,9.73452e-01,9.99999e-01
1.812911916e+00,4.72182e-27,4.84801e-27,9.73969e-01,9.99999e-01
1.821976476e+00,3.41357e-27,3.50298e-27,9.74477e-01,9.99999e-01
1.831086358e+00,4.53283e-22,4.64917e-22,9.74975e-01,9.99999e-01
1.840241790e+00,8.30776e-19,8.51673e-19,9.75463e-01,9.99999e-01
1.849442999e+00,3.66022e-13,3.75044e-13,9.75942e-01,9.99999e-01
1.858690214e+00,3.24730e-12,3.32574e-12,9.76411e-01,9.99999e-01
1.867983665e+00,6.28231e-13,6.43104e-13,9.76872e-01,9.99999e-01
1.877323583e+00,3.86446e-60,3.95412e-60,9.77323e-01,9.99999e-01
