#,Wave/freq,Total,CO2,Rayleigh,CIA
4.000000000e-01,3.03487e-03,9.99999e-01,3.03487e-03,9.99999e-01
4.020000000e-01,3.40352e-03,9.99999e-01,3.40352e-03,9.99999e-01
4.040100000e-01,3.80784e-03,9.99999e-01,3.80784e-03,9.99999e-01
4.060300500e-01,4.25075e-03,9.99999e-01,4.25075e-03,9.99999e-01
4.080602003e-01,4.73489e-03,9.99999e-01,4.73489e-03,9.99999e-01
4.101005013e-01,5.26293e-03,9.99999e-01,5.26293e-03,9.99999e-01
4.121510038e-01,5.83767e-03,9.99999e-01,5.83767e-03,9.99999e-01
4.142117588e-01,6.46192e-03,9.99999e-01,6.46192e-03,9.99999e-01
4.162828176e-01,7.13859e-03,9.99999e-01,7.13859e-03,9.99999e-01
4.183642317e-01,7.87062e-03,9.99999e-01,7.87062e-03,9.99999e-01
4.204560528e-01,8.66100e-03,9.99999e-01,8.66100e-03,9.99999e-01
4.225583331e-01,9.51275e-03,9.99999e-01,9.51275e-03,9.99999e-01
4.246711247e-01,1.04289e-02,9.99999e-01,1.04289e-02,9.99999e-01
4.267944804e-01,1.14126e-02,9.99999e-01,1.14126e-02,9.99999e-01
4.289284528e-01,1.24668e-02,9.99999e-01,1.24668e-02,9.99999e-01
4.310730950e-01,1.35947e-02,9.99999e-01,1.35947e-02,9.99999e-01
4.332284605e-01,1.47993e-02,9.99999e-01,1.47993e-02,9.99999e-01
4.353946028e-01,1.60836e-02,9.99999e-01,1.60836e-02,9.99999e-01
4.375715758e-01,1.74506e-02,9.99999e-01,1.74506e-02,9.99999e-01
4.397594337e-01,1.89034e-02,9.99999e-01,1.89034e-02,9.99999e-01
4.419582309e-01,2.04447e-02,9.99999e-01,2.04447e-02,9.99999e-01
4.441680220e-01,2.20776e-02,9.99999e-01,2.20776e-02,9.99999e-01
4.463888621e-01,2.38047e-02,9.99999e-01,2.38047e-02,9.99999e-01
4.486208064e-01,2.56288e-02,9.99999e-01,2.56288e-02,9.99999e-01
4.508639105e-01,2.75524e-02,9.99999e-01,2.75524e-02,9.99999e-01
4.531182300e-01,2.95781e-02,9.99999e-01,2.95781e-02,9.99999e-01
4.553838212e-01,3.17082e-02,9.99999e-01,3.17082e-02,9.99999e-01
4.576607403e-01,3.39452e-02,9.99999e-01,3.39452e-02,9.99999e-01
4.599490440e-01,3.62910e-02,9.99999e-01,3.62910e-02,9.99999e-01
4.622487892e-01,3.87477e-02,9.99999e-01,3.87477e-02,9.99999e-01
4.645600332e-01,4.13173e-02,9.99999e-01,4.13173e-02,9.99999e-01
4.668828333e-01,4.40014e-02,9.99999e-01,4.40014e-02,9.99999e-01
4.692172475e-01,4.68017e-02,9.99999e-01,4.68017e-02,9.99999e-01
4.715633337e-01,4.97195e-02,9.99999e-01,4.97195e-02,9.99999e-01
4.739211504e-01,5.27562e-02,9.99999e-01,5.27562e-02,9.99999e-01
4.762907561e-01,5.59129e-02,9.99999e-01,5.59129e-02,9.99999e-01
4.786722099e-01,5.91905e-02,9.99999e-01,5.91905e-02,9.99999e-01
4.810655710e-01,6.25897e-02,9.99999e-01,6.25897e-02,9.99999e-01
4.834708988e-01,6.61112e-02,9.99999e-01,6.61112e-02,9.99999e-01
4.858882533e-01,6.97553e-02,9.99999e-01,6.97553e-02,9.99999e-01
4.883176946e-01,7.35224e-02,9.99999e-01,7.35224e-02,9.99999e-01
4.907592831e-01,7.74124e-02,9.99999e-01,7.74124e-02,9.99999e-01
4.932130795e-01,8.14253e-02,9.99999e-01,8.14253e-02,9.99999e-01
4.956791449e-01,8.55607e-02,9.99999e-01,8.55607e-02,9.99999e-01
4.981575406e-01,8.98183e-02,9.99999e-01,8.98183e-02,9.99999e-01
5.006483283e-01,9.41973e-02,9.99999e-01,9.41973e-02,9.99999e-01
5.031515699e-01,9.86969e-02,9.99999e-01,9.86969e-02,9.99999e-01
5.056673278e-01,1.03316e-01,9.99999e-01,1.03316e-01,9.99999e-01
5.081956644e-01,1.08054e-01,9.99999e-01,1.08054e-01,9.99999e-01
5.107366428e-01,1.12909e-01,9.99999e-01,1.12909e-01,9.99999e-01
5.132903260e-01,1.17880e-01,9.99999e-01,1.17880e-01,9.99999e-01
5.158567776e-01,1.22965e-01,9.99999e-01,1.22965e-01,9.99999e-01
5.184360615e-01,1.28162e-01,9.99999e-01,1.28162e-01,9.99999e-01
5.210282418e-01,1.33470e-01,9.99999e-01,1.33470e-01,9.99999e-01
5.236333830e-01,1.38887e-01,9.99999e-01,1.38887e-01,9.99999e-01
5.262515499e-01,1.44409e-01,9.99999e-01,1.44409e-01,9.99999e-01
5.288828077e-01,1.50036e-01,9.99999e-01,1.50036e-01,9.99999e-01
5.315272217e-01,1.55764e-01,9.99999e-01,1.55764e-01,9.99999e-01
5.341848578e-01,1.61591e-01,9.99999e-01,1.61591e-01,9.99999e-01
5.368557821e-01,1.67515e-01,9.99999e-01,1.67515e-01,9.99999e-01
5.395400610e-01,1.73532e-01,9.99999e-01,1.73532e-01,9.99999e-01
5.422377613e-01,1.79641e-01,9.99999e-01,1.79641e-01,9.99999e-01
5.449489501e-01,1.85837e-01,9.99999e-01,1.85837e-01,9.99999e-01
5.476736949e-01,1.92118e-01,9.99999e-01,1.92118e-01,9.99999e-01
5.504120634e-01,1.98481e-01,9.99999e-01,1.98481e-01,9.99999e-01
5.531641237e-01,2.04923e-01,9.99999e-01,2.04923e-01,9.99999e-01
5.559299443e-01,2.11441e-01,9.99999e-01,2.11441e-01,9.99999e-01
5.587095940e-01,2.18031e-01,9.99999e-01,2.18031e-01,9.99999e-01
5.615031420e-01,2.24690e-01,9.99999e-01,2.24690e-01,9.99999e-01
5.643106577e-01,2.31415e-01,9.99999e-01,2.31415e-01,9.99999e-01
5.671322110e-01,2.38203e-01,9.99999e-01,2.38203e-01,9.99999e-01
5.699678720e-01,2.45049e-01,9.99999e-01,2.45049e-01,9.99999e-01
5.728177114e-01,2.51952e-01,9.99999e-01,2.51952e-01,9.99999e-01
5.756818000e-01,2.58906e-01,9.99999e-01,2.58906e-01,9.99999e-01
5.785602090e-01,2.65910e-01,9.99999e-01,2.65910e-01,9.99999e-01
5.814530100e-01,2.72959e-01,9.99999e-01,2.72959e-01,9.99999e-01
5.843602750e-01,2.80050e-01,9.99999e-01,2.80050e-01,9.99999e-01
5.872820764e-01,2.87180e-01,9.99999e-01,2.87180e-01,9.99999e-01
5.902184868e-01,2.94346e-01,9.99999e-01,2.94346e-01,9.99999e-01
5.931695792e-01,3.01543e-01,9.99999e-01,3.01543e-01,9.99999e-01
5.961354271e-01,3.08768e-01,9.99999e-01,3.08768e-01,9.99999e-01
5.991161043e-01,3.16020e-01,9.99999e-01,3.16020e-01,9.99999e-01
6.021116848e-01,3.23293e-01,9.99999e-01,3.23293e-01,9.99999e-01
6.051222432e-01,3.30585e-01,9.99999e-01,3.30585e-01,9.99999e-01
6.081478544e-01,3.37892e-01,9.99999e-01,3.37892e-01,9.99999e-01
6.111885937e-01,3.45212e-01,9.99999e-01,3.45212e-01,9.99999e-01
6.142445367e-01,3.52541e-01,9.99999e-01,3.52541e-01,9.99999e-01
6.173157594e-01,3.59876e-01,9.99999e-01,3.59876e-01,9.99999e-01
6.204023382e-01,3.67215e-01,9.99999e-01,3.67215e-01,9.99999e-01
6.235043498e-01,3.74554e-01,9.99999e-01,3.74554e-01,9.99999e-01
6.266218716e-01,3.81890e-01,9.99999e-01,3.81890e-01,9.99999e-01
6.297549810e-01,3.89221e-01,9.99999e-01,3.89221e-01,9.99999e-01
6.329037559e-01,3.96543e-01,9.99999e-01,3.96543e-01,9.99999e-01
6.360682746e-01,4.03855e-01,9.99999e-01,4.03855e-01,9.99999e-01
6.392486160e-01,4.11153e-01,9.99999e-01,4.11153e-01,9.99999e-01
6.424448591e-01,4.18435e-01,9.99999e-01,4.18435e-01,9.99999e-01
6.456570834e-01,4.25698e-01,9.99999e-01,4.25698e-01,9.99999e-01
6.488853688e-01,4.32940e-01,9.99999e-01,4.32940e-01,9.99999e-01
6.521297956e-01,4.40159e-01,9.99999e-01,4.40159e-01,9.99999e-01
6.553904446e-01,4.47351e-01,9.99999e-01,4.47351e-01,9.99999e-01
6.586673968e-01,4.54516e-01,9.99999e-01,4.54516e-01,9.99999e-01
6.619607338e-01,4.61651e-01,9.99999e-01,4.61651e-01,9.99999e-01
6.652705375e-01,4.68753e-01,9.99999e-01,4.68753e-01,9.99999e-01
6.685968902e-01,4.75821e-01,9.99999e-01,4.75821e-01,9.99999e-01
6.719398746e-01,4.82853e-01,9.99999e-01,4.82853e-01,9.99999e-01
6.752995740e-01,4.89847e-01,9.99999e-01,4.89847e-01,9.99999e-01
6.786760719e-01,4.96801e-01,9.99999e-01,4.96801e-01,9.99999e-01
6.820694522e-01,5.03714e-01,9.99999e-01,5.03714e-01,9.99999e-01
6.854797995e-01,5.10583e-01,9.99999e-01,5.10583e-01,9.99999e-01
6.889071985e-01,5.17408e-01,9.99999e-01,5.17408e-01,9.99999e-01
6.923517345e-01,5.24186e-01,9.99999e-01,5.24186e-01,9.99999e-01
6.958134932e-01,5.30916e-01,9.99999e-01,5.30916e-01,9.99999e-01
6.992925606e-01,5.37598e-01,9.99999e-01,5.37598e-01,9.99999e-01
7.027890234e-01,5.44229e-01,9.99999e-01,5.44229e-01,9.99999e-01
7.063029686e-01,5.50809e-01,9.99999e-01,5.50809e-01,9.99999e-01
7.098344834e-01,5.57335e-01,9.99999e-01,5.57335e-01,9.99999e-01
7.133836558e-01,5.63808e-01,9.99999e-01,5.63808e-01,9.99999e-01
7.169505741e-01,5.70226e-01,9.99999e-01,5.70226e-01,9.99999e-01
7.205353270e-01,5.76588e-01,9.99999e-01,5.76588e-01,9.99999e-01
7.241380036e-01,5.82894e-01,9.99999e-01,5.82894e-01,9.99999e-01
7.277586936e-01,5.89141e-01,9.99999e-01,5.89141e-01,9.99999e-01
7.313974871e-01,5.95331e-01,9.99999e-01,5.95331e-01,9.99999e-01
7.350544745e-01,6.01461e-01,9.99999e-01,6.01461e-01,9.99999e-01
7.387297469e-01,6.07531e-01,9.99999e-01,6.07531e-01,9.99999e-01
7.424233956e-01,6.13541e-01,9.99999e-01,6.13541e-01,9.99999e-01
7.461355126e-01,6.19490e-01,9.99999e-01,6.19490e-01,9.99999e-01
7.498661902e-01,6.25377e-01,9.99999e-01,6.25377e-01,9.99999e-01
7.536155211e-01,6.31202e-01,9.99999e-01,6.31202e-01,9.99999e-01
7.573835987e-01,6.36965e-01,9.99999e-01,6.36965e-01,9.99999e-01
7.611705167e-01,6.42666e-01,9.99999e-01,6.42666e-01,9.99999e-01
7.649763693e-01,6.48303e-01,9.99999e-01,6.48303e-01,9.99999e-01
7.688012511e-01,6.53876e-01,9.99999e-01,6.53876e-01,9.99999e-01
7.726452574e-01,6.59386e-01,9.99999e-01,6.59386e-01,9.99999e-01
7.765084837e-01,6.64833e-01,9.99999e-01,6.64833e-01,9.99999e-01
7.803910261e-01,6.57936e-01,9.81677e-01,6.70215e-01,9.99999e-01
7.842929812e-01,6.19479e-01,9.17021e-01,6.75534e-01,9.99999e-01
7.882144461e-01,6.21000e-01,9.12178e-01,6.80788e-01,9.99999e-01
7.921555184e-01,6.50679e-01,9.48541e-01,6.85978e-01,9.99999e-01
7.961162960e-01,6.66824e-01,9.64867e-01,6.91104e-01,9.99999e-01
8.000968774e-01,6.82850e-01,9.80870e-01,6.96166e-01,9.99999e-01
8.040973618e-01,6.94133e-01,9.89971e-01,7.01164e-01,9.99999e-01
8.081178486e-01,7.02866e-01,9.95421e-01,7.06098e-01,9.99999e-01
8.121584379e-01,7.09947e-01,9.98563e-01,7.10969e-01,9.99999e-01
8.162192301e-01,7.15548e-01,9.99681e-01,7.15775e-01,9.99999e-01
8.203003262e-01,7.20515e-01,9.99993e-01,7.20519e-01,9.99999e-01
8.244018279e-01,7.25199e-01,9.99999e-01,7.25199e-01,9.99999e-01
8.285238370e-01,7.29816e-01,9.99999e-01,7.29816e-01,9.99999e-01
8.326664562e-01,7.34371e-01,9.99999e-01,7.34371e-01,9.99999e-01
8.368297885e-01,7.38863e-01,9.99999e-01,7.38863e-01,9.99999e-01
8.410139374e-01,7.43293e-01,9.99999e-01,7.43293e-01,9.99999e-01
8.452190071e-01,7.47661e-01,9.99999e-01,7.47661e-01,9.99999e-01
8.494451021e-01,7.51968e-01,9.99999e-01,7.51968e-01,9.99999e-01
8.536923276e-01,7.56214e-01,9.99999e-01,7.56214e-01,9.99999e-01
8.579607893e-01,7.60400e-01,9.99999e-01,7.60400e-01,9.99999e-01
8.622505932e-01,7.64525e-01,9.99999e-01,7.64525e-01,9.99999e-01
8.665618462e-01,7.32013e-01,9.52409e-01,7.68590e-01,9.99999e-01
8.708946554e-01,6.19505e-01,8.01847e-01,7.72597e-01,9.99999e-01
8.752491287e-01,6.50437e-01,8.37604e-01,7.76544e-01,9.99999e-01
8.796253743e-01,7.08525e-01,9.07861e-01,7.80433e-01,9.99999e-01
8.840235012e-01,7.46134e-01,9.51381e-01,7.84264e-01,9.99999e-01
8.884436187e-01,7.72610e-01,9.80422e-01,7.88037e-01,9.99999e-01
8.928858368e-01,7.85479e-01,9.92073e-01,7.91754e-01,9.99999e-01
8.973502660e-01,7.93861e-01,9.98046e-01,7.95414e-01,9.99999e-01
9.018370173e-01,7.98846e-01,9.99783e-01,7.99018e-01,9.99999e-01
9.063462024e-01,7.98377e-01,9.94778e-01,8.02567e-01,9.99999e-01
9.108779334e-01,7.96030e-01,9.87554e-01,8.06062e-01,9.99999e-01
9.154323231e-01,8.07085e-01,9.97013e-01,8.09502e-01,9.99999e-01
9.200094847e-01,7.78852e-01,9.58129e-01,8.12888e-01,9.99999e-01
9.246095321e-01,7.67705e-01,9.40559e-01,8.16221e-01,9.99999e-01
9.292325798e-01,7.81637e-01,9.53795e-01,8.19501e-01,9.99999e-01
9.338787427e-01,7.85389e-01,9.54613e-01,8.22730e-01,9.99999e-01
9.385481364e-01,7.98264e-01,9.66530e-01,8.25907e-01,9.99999e-01
9.432408771e-01,8.11846e-01,9.79268e-01,8.29033e-01,9.99999e-01
9.479570815e-01,8.23266e-01,9.89372e-01,8.32109e-01,9.99999e-01
9.526968669e-01,8.30831e-01,9.94844e-01,8.35136e-01,9.99999e-01
9.574603512e-01,8.36261e-01,9.97790e-01,8.38113e-01,9.99999e-01
9.622476530e-01,8.40461e-01,9.99309e-01,8.41042e-01,9.99999e-01
9.670588912e-01,8.43747e-01,9.99791e-01,8.43922e-01,9.99999e-01
9.718941857e-01,8.46743e-01,9.99984e-01,8.46756e-01,9.99999e-01
9.767536566e-01,8.49543e-01,9.99999e-01,8.49543e-01,9.99999e-01
9.816374249e-01,8.52283e-01,9.99999e-01,8.52283e-01,9.99999e-01
9.865456120e-01,8.54978e-01,9.99999e-01,8.54978e-01,9.99999e-01
9.914783401e-01,8.57628e-01,9.99999e-01,8.57628e-01,9.99999e-01
9.964357318e-01,8.60234e-01,9.99999e-01,8.60234e-01,9.99999e-01
1.001417910e+00,8.62796e-01,9.99999e-01,8.62796e-01,9.99999e-01
1.006425000e+00,8.65315e-01,9.99999e-01,8.65315e-01,9.99999e-01
1.011457125e+00,8.67791e-01,9.99999e-01,8.67791e-01,9.99999e-01
1.016514411e+00,8.70225e-01,9.99999e-01,8.70225e-01,9.99999e-01
1.021596983e+00,8.72597e-01,9.99976e-01,8.72617e-01,9.99999e-01
1.026704968e+00,8.73202e-01,9.97979e-01,8.74969e-01,9.99999e-01
1.031838492e+00,8.55107e-01,9.74724e-01,8.77281e-01,9.99999e-01
1.036997685e+00,2.26771e-01,2.57825e-01,8.79552e-01,9.99999e-01
1.042182673e+00,2.54604e-01,2.88736e-01,8.81785e-01,9.99999e-01
1.047393587e+00,2.50738e-01,2.83646e-01,8.83979e-01,9.99999e-01
1.052630555e+00,2.84854e-02,3.21456e-02,8.86135e-01,9.99999e-01
1.057893707e+00,5.55071e-02,6.24901e-02,8.88253e-01,9.99999e-01
1.063183176e+00,1.19139e-01,1.33814e-01,8.90335e-01,9.99999e-01
1.068499092e+00,2.32315e-01,2.60332e-01,8.92380e-01,9.99999e-01
1.073841587e+00,3.80778e-01,4.25740e-01,8.94389e-01,9.99999e-01
1.079210795e+00,5.23187e-01,5.83677e-01,8.96363e-01,9.99999e-01
1.084606849e+00,6.68755e-01,7.44465e-01,8.98302e-01,9.99999e-01
1.090029883e+00,7.72878e-01,8.58554e-01,9.00207e-01,9.99999e-01
1.095480033e+00,8.36667e-01,9.27488e-01,9.02078e-01,9.99999e-01
1.100957433e+00,8.71774e-01,9.64439e-01,9.03917e-01,9.99999e-01
1.106462220e+00,8.92240e-01,9.85114e-01,9.05722e-01,9.99999e-01
1.111994531e+00,9.02468e-01,9.94460e-01,9.07495e-01,9.99999e-01
1.117554504e+00,9.07994e-01,9.98633e-01,9.09237e-01,9.99999e-01
1.123142276e+00,9.10865e-01,9.99908e-01,9.10947e-01,9.99999e-01
1.128757988e+00,9.12627e-01,9.99999e-01,9.12627e-01,9.99999e-01
1.134401778e+00,9.14277e-01,9.99999e-01,9.14277e-01,9.99999e-01
1.140073787e+00,9.15897e-01,9.99999e-01,9.15897e-01,9.99999e-01
1.145774156e+00,9.17487e-01,9.99999e-01,9.17487e-01,9.99999e-01
1.151503026e+00,9.19049e-01,9.99999e-01,9.19049e-01,9.99999e-01
1.157260541e+00,9.20583e-01,9.99999e-01,9.20583e-01,9.99999e-01
1.163046844e+00,9.22089e-01,9.99999e-01,9.22089e-01,9.99999e-01
1.168862078e+00,9.23567e-01,9.99999e-01,9.23567e-01,9.99999e-01
1.174706389e+00,9.25019e-01,9.99999e-01,9.25019e-01,9.99999e-01
1.180579921e+00,9.26444e-01,9.99999e-01,9.26444e-01,9.99999e-01
1.186482820e+00,9.27842e-01,9.99997e-01,9.27843e-01,9.99999e-01
1.192415234e+00,9.22561e-01,9.92836e-01,9.29217e-01,9.99999e-01
1.198377311e+00,5.41643e-01,5.82057e-01,9.30565e-01,9.99999e-01
1.204369197e+00,2.83172e-07,3.03869e-07,9.31889e-01,9.99999e-01
1.210391043e+00,7.68050e-24,8.23037e-24,9.33188e-01,9.99999e-01
1.216442998e+00,7.06708e-21,7.56270e-21,9.34464e-01,9.99999e-01
1.222525213e+00,1.41452e-20,1.51169e-20,9.35716e-01,9.99999e-01
1.228637839e+00,7.27752e-16,7.76728e-16,9.36945e-01,9.99999e-01
1.234781029e+00,1.66686e-12,1.77675e-12,9.38151e-01,9.99999e-01
1.240954934e+00,2.10215e-07,2.23791e-07,9.39335e-01,9.99999e-01
1.247159708e+00,6.97469e-05,7.41596e-05,9.40496e-01,9.99999e-01
1.253395507e+00,8.07547e-03,8.57599e-03,9.41637e-01,9.99999e-01
1.259662485e+00,5.03716e-02,5.34301e-02,9.42756e-01,9.99999e-01
1.265960797e+00,1.94385e-01,2.05948e-01,9.43854e-01,9.99999e-01
1.272290601e+00,4.68982e-01,4.96312e-01,9.44932e-01,9.99999e-01
1.278652054e+00,4.42465e-01,4.67727e-01,9.45990e-01,9.99999e-01
1.285045314e+00,3.06452e-02,3.23593e-02,9.47028e-01,9.99999e-01
1.291470541e+00,1.69484e-03,1.78772e-03,9.48047e-01,9.99999e-01
1.297927893e+00,2.86082e-02,3.01441e-02,9.49046e-01,9.99999e-01
1.304417533e+00,2.92954e-01,3.08364e-01,9.50027e-01,9.99999e-01
1.310939621e+00,8.49635e-02,8.93421e-02,9.50989e-01,9.99999e-01
1.317494319e+00,1.19725e-08,1.25770e-08,9.51934e-01,9.99999e-01
1.324081790e+00,2.50375e-06,2.62761e-06,9.52861e-01,9.99999e-01
1.330702199e+00,9.87709e-04,1.03558e-03,9.53770e-01,9.99999e-01
1.337355710e+00,7.34604e-04,7.69490e-04,9.54662e-01,9.99999e-01
1.344042489e+00,2.52216e-04,2.63952e-04,9.55537e-01,9.99999e-01
1.350762701e+00,7.13529e-04,7.46059e-04,9.56396e-01,9.99999e-01
1.357516515e+00,8.37083e-03,8.74476e-03,9.57239e-01,9.99999e-01
1.364304097e+00,4.95700e-02,5.17396e-02,9.58065e-01,9.99999e-01
1.371125618e+00,1.99676e-01,2.08240e-01,9.58876e-01,9.99999e-01
1.377981246e+00,2.74735e-01,2.86279e-01,9.59672e-01,9.99999e-01
1.384871152e+00,4.63152e-01,4.82222e-01,9.60453e-01,9.99999e-01
1.391795508e+00,4.89967e-01,5.09735e-01,9.61218e-01,9.99999e-01
1.398754485e+00,6.35796e-01,6.60931e-01,9.61970e-01,9.99999e-01
1.405748258e+00,7.08797e-01,7.36254e-01,9.62707e-01,9.99999e-01
1.412776999e+00,7.94125e-01,8.24268e-01,9.63430e-01,9.99999e-01
1.419840884e+00,7.38387e-01,7.65851e-01,9.64139e-01,9.99999e-01
1.426940089e+00,9.48546e-02,9.83116e-02,9.64835e-01,9.99999e-01
1.434074789e+00,0.00000e+00,0.00000e+00,9.65517e-01,9.99999e-01
1.441245163e+00,0.00000e+00,0.00000e+00,9.66186e-01,9.99999e-01
1.448451389e+00,0.00000e+00,0.00000e+00,9.66843e-01,9.99999e-01
1.455693646e+00,1.80808e-184,1.86884e-184,9.67487e-01,9.99999e-01
1.462972114e+00,6.84549e-90,7.07091e-90,9.68119e-01,9.99999e-01
1.470286975e+00,2.59765e-38,2.68147e-38,9.68739e-01,9.99999e-01
1.477638409e+00,1.04897e-24,1.08214e-24,9.69347e-01,9.99999e-01
1.485026601e+00,2.01630e-14,2.07878e-14,9.69943e-01,9.99999e-01
1.492451734e+00,2.88429e-12,2.97187e-12,9.70528e-01,9.99999e-01
1.499913993e+00,2.78626e-06,2.86917e-06,9.71102e-01,9.99999e-01
1.507413563e+00,4.11877e-05,4.23888e-05,9.71664e-01,9.99999e-01
1.514950631e+00,1.73257e-06,1.78208e-06,9.72216e-01,9.99999e-01
1.522525384e+00,4.61122e-18,4.74035e-18,9.72757e-01,9.99999e-01
1.530138011e+00,1.13746e-40,1.16868e-40,9.73288e-01,9.99999e-01
1.537788701e+00,1.60821e-30,1.65146e-30,9.73809e-01,9.99999e-01
1.545477645e+00,8.23436e-08,8.45139e-08,9.74319e-01,9.99999e-01
1.553205033e+00,3.17687e-05,3.25892e-05,9.74820e-01,9.99999e-01
1.560971058e+00,9.14082e-06,9.37220e-06,9.75311e-01,9.99999e-01
1.568775913e+00,1.04465e-100,1.07057e-100,9.75793e-01,9.99999e-01
1.576619793e+00,1.66741e-234,1.70795e-234,9.76265e-01,9.99999e-01
1.584502892e+00,2.12732e-128,2.17800e-128,9.76729e-01,9.99999e-01
1.592425406e+00,8.30819e-90,8.50217e-90,9.77183e-01,9.99999e-01
1.600387533e+00,4.85682e-144,4.96796e-144,9.77629e-01,9.99999e-01
1.608389471e+00,2.66153e-241,2.72122e-241,9.78066e-01,9.99999e-01
1.616431418e+00,8.12316e-243,8.30169e-243,9.78494e-01,9.99999e-01
1.624513575e+00,7.80245e-114,7.97051e-114,9.78914e-01,9.99999e-01
1.632636143e+00,6.53889e-85,6.67692e-85,9.79327e-01,9.99999e-01
1.640799324e+00,1.27932e-35,1.30579e-35,9.79731e-01,9.99999e-01
1.649003321e+00,1.46974e-35,1.49954e-35,9.80127e-01,9.99999e-01
1.657248337e+00,8.33836e-28,8.50405e-28,9.80516e-01,9.99999e-01
1.665534579e+00,5.68394e-28,5.79463e-28,9.80897e-01,9.99999e-01
1.673862252e+00,2.03913e-18,2.07805e-18,9.81271e-01,9.99999e-01
1.682231563e+00,3.55916e-13,3.62573e-13,9.81637e-01,9.99999e-01
1.690642721e+00,4.57803e-08,4.66195e-08,9.81997e-01,9.99999e-01
1.699095934e+00,2.90663e-05,2.95885e-05,9.82349e-01,9.99999e-01
1.707591414e+00,3.57059e-03,3.63346e-03,9.82695e-01,9.99999e-01
1.716129371e+00,4.61875e-02,4.69846e-02,9.83033e-01,9.99999e-01
1.724710018e+00,1.90978e-01,1.94208e-01,9.83366e-01,9.99999e-01
1.733333568e+00,3.45897e-01,3.51632e-01,9.83692e-01,9.99999e-01
1.742000236e+00,5.18706e-01,5.27134e-01,9.84011e-01,9.99999e-01
1.750710237e+00,3.24831e-02,3.30004e-02,9.84324e-01,9.99999e-01
1.759463788e+00,1.81391e-17,1.84222e-17,9.84632e-01,9.99999e-01
1.768261107e+00,1.63393e-18,1.65893e-18,9.84933e-01,9.99999e-01
1.777102413e+00,1.95981e-17,1.98919e-17,9.85228e-01,9.99999e-01
1.785987925e+00,6.62628e-17,6.72365e-17,9.85518e-01,9.99999e-01
1.794917864e+00,6.58022e-16,6.67498e-16,9.85802e-01,9.99999e-01
1.803892454e+00,9.20518e-16,9.33511e-16,9.86080e-01,9.99999e-01
1.812911916e+00,6.24184e-15,6.32820e-15,9.86353e-01,9.99999e-01
1.821976476e+00,3.57199e-15,3.62042e-15,9.86621e-01,9.99999e-01
1.831086358e+00,1.71672e-12,1.73954e-12,9.86884e-01,9.99999e-01
1.840241790e+00,1.42205e-10,1.44058e-10,9.87141e-01,9.99999e-01
1.849442999e+00,1.79049e-07,1.81335e-07,9.87393e-01,9.99999e-01
1.858690214e+00,9.02942e-07,9.14240e-07,9.87641e-01,9.99999e-01
1.867983665e+00,1.57495e-07,1.59426e-07,9.87884e-01,9.99999e-01
1.877323583e+00,2.59203e-32,2.62319e-32,9.88121e-01,9.99999e-01
