#,Wave/freq,Total,CO2,Rayleigh,CIA
4.000000000e-01,9.12536e-10,9.99999e-01,9.12536e-10,9.99999e-01
4.020000000e-01,1.37721e-09,9.99999e-01,1.37721e-09,9.99999e-01
4.040100000e-01,2.06075e-09,9.99999e-01,2.06075e-09,9.99999e-01
4.060300500e-01,3.05911e-09,9.99999e-01,3.05911e-09,9.99999e-01
4.080602003e-01,4.50584e-09,9.99999e-01,4.50584e-09,9.99999e-01
4.101005013e-01,6.58619e-09,9.99999e-01,6.58619e-09,9.99999e-01
4.121510038e-01,9.55513e-09,9.99999e-01,9.55513e-09,9.99999e-01
4.142117588e-01,1.37609e-08,9.99999e-01,1.37609e-08,9.99999e-01
4.162828176e-01,1.96756e-08,9.99999e-01,1.96756e-08,9.99999e-01
4.183642317e-01,2.79346e-08,9.99999e-01,2.79346e-08,9.99999e-01
4.204560528e-01,3.93867e-08,9.99999e-01,3.93867e-08,9.99999e-01
4.225583331e-01,5.51581e-08,9.99999e-01,5.51581e-08,9.99999e-01
4.246711247e-01,7.67327e-08,9.99999e-01,7.67327e-08,9.99999e-01
4.267944804e-01,1.06052e-07,9.99999e-01,1.06052e-07,9.99999e-01
4.289284528e-01,1.45641e-07,9.99999e-01,1.45641e-07,9.99999e-01
4.310730950e-01,1.98758e-07,9.99999e-01,1.98758e-07,9.99999e-01
4.332284605e-01,2.69588e-07,9.99999e-01,2.69588e-07,9.99999e-01
4.353946028e-01,3.63463e-07,9.99999e-01,3.63463e-07,9.99999e-01
4.375715758e-01,4.87143e-07,9.99999e-01,4.87143e-07,9.99999e-01
4.397594337e-01,6.49144e-07,9.99999e-01,6.49144e-07,9.99999e-01
4.419582309e-01,8.60127e-07,9.99999e-01,8.60127e-07,9.99999e-01
4.441680220e-01,1.13337e-06,9.99999e-01,1.13337e-06,9.99999e-01
4.463888621e-01,1.48529e-06,9.99999e-01,1.48529e-06,9.99999e-01
4.486208064e-01,1.93612e-06,9.99999e-01,1.93612e-06,9.99999e-01
4.508639105e-01,2.51061e-06,9.99999e-01,2.51061e-06,9.99999e-01
4.531182300e-01,3.23890e-06,9.99999e-01,3.23890e-06,9.99999e-01
4.553838212e-01,4.15749e-06,9.99999e-01,4.15749e-06,9.99999e-01
4.576607403e-01,5.31034e-06,9.99999e-01,5.31034e-06,9.99999e-01
4.599490440e-01,6.75016e-06,9.99999e-01,6.75016e-06,9.99999e-01
4.622487892e-01,8.53981e-06,9.99999e-01,8.53981e-06,9.99999e-01
4.645600332e-01,1.07539e-05,9.99999e-01,1.07539e-05,9.99999e-01
4.668828333e-01,1.34804e-05,9.99999e-01,1.34804e-05,9.99999e-01
4.692172475e-01,1.68230e-05,9.99999e-01,1.68230e-05,9.99999e-01
4.715633337e-01,2.09028e-05,9.99999e-01,2.09028e-05,9.99999e-01
4.739211504e-01,2.58608e-05,9.99999e-01,2.58608e-05,9.99999e-01
4.762907561e-01,3.18606e-05,9.99999e-01,3.18606e-05,9.99999e-01
4.786722099e-01,3.90909e-05,9.99999e-01,3.90909e-05,9.99999e-01
4.810655710e-01,4.77686e-05,9.99999e-01,4.77686e-05,9.99999e-01
4.834708988e-01,5.81420e-05,9.99999e-01,5.81420e-05,9.99999e-01
4.858882533e-01,7.04940e-05,9.99999e-01,7.04940e-05,9.99999e-01
4.883176946e-01,8.51454e-05,9.99999e-01,8.51454e-05,9.99999e-01
4.907592831e-01,1.02459e-04,9.99999e-01,1.02459e-04,9.99999e-01
4.932130795e-01,1.22844e-04,9.99999e-01,1.22844e-04,9.99999e-01
4.956791449e-01,1.46756e-04,9.99999e-01,1.46756e-04,9.99999e-01
4.981575406e-01,1.74709e-04,9.99999e-01,1.74709e-04,9.99999e-01
5.006483283e-01,2.07272e-04,9.99999e-01,2.07272e-04,9.99999e-01
5.031515699e-01,2.45074e-04,9.99999e-01,2.45074e-04,9.99999e-01
5.056673278e-01,2.88814e-04,9.99999e-01,2.88814e-04,9.99999e-01
5.081956644e-01,3.39257e-04,9.99999e-01,3.39257e-04,9.99999e-01
5.107366428e-01,3.97246e-04,9.99999e-01,3.97246e-04,9.99999e-01
5.132903260e-01,4.63700e-04,9.99999e-01,4.63700e-04,9.99999e-01
5.158567776e-01,5.39619e-04,9.99999e-01,5.39619e-04,9.99999e-01
5.184360615e-01,6.26089e-04,9.99999e-01,6.26089e-04,9.99999e-01
5.210282418e-01,7.24287e-04,9.99999e-01,7.24287e-04,9.99999e-01
5.236333830e-01,8.35479e-04,9.99999e-01,8.35479e-04,9.99999e-01
5.262515499e-01,9.61025e-04,9.99999e-01,9.61025e-04,9.99999e-01
5.288828077e-01,1.10238e-03,9.99999e-01,1.10238e-03,9.99999e-01
5.315272217e-01,1.26111e-03,9.99999e-01,1.26111e-03,9.99999e-01
5.341848578e-01,1.43887e-03,9.99999e-01,1.43887e-03,9.99999e-01
5.368557821e-01,1.63741e-03,9.99999e-01,1.63741e-03,9.99999e-01
5.395400610e-01,1.85860e-03,9.99999e-01,1.85860e-03,9.99999e-01
5.422377613e-01,2.10439e-03,9.99999e-01,2.10439e-03,9.99999e-01
5.449489501e-01,2.37684e-03,9.99999e-01,2.37684e-03,9.99999e-01
5.476736949e-01,2.67812e-03,9.99999e-01,2.67812e-03,9.99999e-01
5.504120634e-01,3.01049e-03,9.99999e-01,3.01049e-03,9.99999e-01
5.531641237e-01,3.37630e-03,9.99999e-01,3.37630e-03,9.99999e-01
5.559299443e-01,3.77798e-03,9.99999e-01,3.77798e-03,9.99999e-01
5.587095940e-01,4.21808e-03,9.99999e-01,4.21808e-03,9.99999e-01
5.615031420e-01,4.69921e-03,9.99999e-01,4.69921e-03,9.99999e-01
5.643106577e-01,5.22406e-03,9.99999e-01,5.22406e-03,9.99999e-01
5.671322110e-01,5.79540e-03,9.99999e-01,5.79540e-03,9.99999e-01
5.699678720e-01,6.41605e-03,9.99999e-01,6.41605e-03,9.99999e-01
5.728177114e-01,7.08892e-03,9.99999e-01,7.08892e-03,9.99999e-01
5.756818000e-01,7.81693e-03,9.99999e-01,7.81693e-03,9.99999e-01
5.785602090e-01,8.60308e-03,9.99999e-01,8.60308e-03,9.99999e-01
5.814530100e-01,9.45039e-03,9.99999e-01,9.45039e-03,9.99999e-01
5.843602750e-01,1.03619e-02,9.99999e-01,1.03619e-02,9.99999e-01
5.872820764e-01,1.13407e-02,9.99999e-01,1.13407e-02,9.99999e-01
5.902184868e-01,1.23898e-02,9.99999e-01,1.23898e-02,9.99999e-01
5.931695792e-01,1.35124e-02,9.99999e-01,1.35124e-02,9.99999e-01
5.961354271e-01,1.47114e-02,9.99999e-01,1.47114e-02,9.99999e-01
5.991161043e-01,1.59900e-02,9.99999e-01,1.59900e-02,9.99999e-01
6.021116848e-01,1.73511e-02,9.99999e-01,1.73511e-02,9.99999e-01
6.051222432e-01,1.87977e-02,9.99999e-01,1.87977e-02,9.99999e-01
6.081478544e-01,2.03327e-02,9.99999e-01,2.03327e-02,9.99999e-01
6.111885937e-01,2.19590e-02,9.99999e-01,2.19590e-02,9.99999e-01
6.142445367e-01,2.36793e-02,9.99999e-01,2.36793e-02,9.99999e-01
6.173157594e-01,2.54964e-02,9.99999e-01,2.54964e-02,9.99999e-01
6.204023382e-01,2.74129e-02,9.99999e-01,2.74129e-02,9.99999e-01
6.235043498e-01,2.94313e-02,9.99999e-01,2.94313e-02,9.99999e-01
6.266218716e-01,3.15540e-02,9.99999e-01,3.15540e-02,9.99999e-01
6.297549810e-01,3.37833e-02,9.99999e-01,3.37833e-02,9.99999e-01
6.329037559e-01,3.61213e-02,9.99999e-01,3.61213e-02,9.99999e-01
6.360682746e-01,3.85702e-02,9.99999e-01,3.85702e-02,9.99999e-01
6.392486160e-01,4.11317e-02,9.99999e-01,4.11317e-02,9.99999e-01
6.424448591e-01,4.38076e-02,9.99999e-01,4.38076e-02,9.99999e-01
6.456570834e-01,4.65996e-02,9.99999e-01,4.65996e-02,9.99999e-01
6.488853688e-01,4.95091e-02,9.99999e-01,4.95091e-02,9.99999e-01
6.521297956e-01,5.25374e-02,9.99999e-01,5.25374e-02,9.99999e-01
6.553904446e-01,5.56855e-02,9.99999e-01,5.56855e-02,9.99999e-01
6.586673968e-01,5.89545e-02,9.99999e-01,5.89545e-02,9.99999e-01
6.619607338e-01,6.23451e-02,9.99999e-01,6.23451e-02,9.99999e-01
6.652705375e-01,6.58579e-02,9.99999e-01,6.58579e-02,9.99999e-01
6.685968902e-01,6.94934e-02,9.99999e-01,6.94934e-02,9.99999e-01
6.719398746e-01,7.32517e-02,9.99999e-01,7.32517e-02,9.99999e-01
6.752995740e-01,7.71331e-02,9.99999e-01,7.71331e-02,9.99999e-01
6.786760719e-01,8.11373e-02,9.99999e-01,8.11373e-02,9.99999e-01
6.820694522e-01,8.52641e-02,9.99999e-01,8.52641e-02,9.99999e-01
6.854797995e-01,8.95130e-02,9.99999e-01,8.95130e-02,9.99999e-01
6.889071985e-01,9.38834e-02,9.99999e-01,9.38834e-02,9.99999e-01
6.923517345e-01,9.83745e-02,9.99999e-01,9.83745e-02,9.99999e-01
6.958134932e-01,1.02985e-01,9.99999e-01,1.02985e-01,9.99999e-01
6.992925606e-01,1.07715e-01,9.99999e-01,1.07715e-01,9.99999e-01
7.027890234e-01,1.12562e-01,9.99999e-01,1.12562e-01,9.99999e-01
7.063029686e-01,1.17524e-01,9.99999e-01,1.17524e-01,9.99999e-01
7.098344834e-01,1.22601e-01,9.99999e-01,1.22601e-01,9.99999e-01
7.133836558e-01,1.27791e-01,9.99999e-01,1.27791e-01,9.99999e-01
7.169505741e-01,1.33091e-01,9.99999e-01,1.33091e-01,9.99999e-01
7.205353270e-01,1.38500e-01,9.99999e-01,1.38500e-01,9.99999e-01
7.241380036e-01,1.44015e-01,9.99999e-01,1.44015e-01,9.99999e-01
7.277586936e-01,1.49634e-01,9.99999e-01,1.49634e-01,9.99999e-01
7.313974871e-01,1.55355e-01,9.99999e-01,1.55355e-01,9.99999e-01
7.350544745e-01,1.61176e-01,9.99999e-01,1.61176e-01,9.99999e-01
7.387297469e-01,1.67093e-01,9.99999e-01,1.67093e-01,9.99999e-01
7.424233956e-01,1.73103e-01,9.99999e-01,1.73103e-01,9.99999e-01
7.461355126e-01,1.79205e-01,9.99999e-01,1.79205e-01,9.99999e-01
7.498661902e-01,1.85396e-01,9.99999e-01,1.85396e-01,9.99999e-01
7.536155211e-01,1.91671e-01,9.99999e-01,1.91671e-01,9.99999e-01
7.573835987e-01,1.98028e-01,9.99999e-01,1.98028e-01,9.99999e-01
7.611705167e-01,2.04465e-01,9.99999e-01,2.04465e-01,9.99999e-01
7.649763693e-01,2.10977e-01,9.99999e-01,2.10977e-01,9.99999e-01
7.688012511e-01,2.17562e-01,9.99999e-01,2.17562e-01,9.99999e-01
7.726452574e-01,2.24217e-01,9.99999e-01,2.24217e-01,9.99999e-01
7.765084837e-01,2.30937e-01,9.99999e-01,2.30937e-01,9.99999e-01
7.803910261e-01,2.24165e-01,9.42977e-01,2.37720e-01,9.99999e-01
7.842929812e-01,1.81606e-01,7.42575e-01,2.44563e-01,9.99999e-01
7.882144461e-01,1.83902e-01,7.31331e-01,2.51462e-01,9.99999e-01
7.921555184e-01,2.14261e-01,8.29141e-01,2.58413e-01,9.99999e-01
7.961162960e-01,2.33576e-01,8.80047e-01,2.65413e-01,9.99999e-01
8.000968774e-01,2.54259e-01,9.33202e-01,2.72459e-01,9.99999e-01
8.040973618e-01,2.69628e-01,9.64515e-01,2.79547e-01,9.99999e-01
8.081178486e-01,2.81994e-01,9.83672e-01,2.86675e-01,9.99999e-01
8.121584379e-01,2.92326e-01,9.94854e-01,2.93837e-01,9.99999e-01
8.162192301e-01,3.00689e-01,9.98860e-01,3.01032e-01,9.99999e-01
8.203003262e-01,3.08250e-01,9.99979e-01,3.08256e-01,9.99999e-01
8.244018279e-01,3.15506e-01,9.99999e-01,3.15506e-01,9.99999e-01
8.285238370e-01,3.22777e-01,9.99999e-01,3.22777e-01,9.99999e-01
8.326664562e-01,3.30068e-01,9.99999e-01,3.30068e-01,9.99999e-01
8.368297885e-01,3.37374e-01,9.99999e-01,3.37374e-01,9.99999e-01
8.410139374e-01,3.44693e-01,9.99999e-01,3.44693e-01,9.99999e-01
8.452190071e-01,3.52022e-01,9.99999e-01,3.52022e-01,9.99999e-01
8.494451021e-01,3.59357e-01,9.99999e-01,3.59357e-01,9.99999e-01
8.536923276e-01,3.66696e-01,9.99999e-01,3.66696e-01,9.99999e-01
8.579607893e-01,3.74035e-01,9.99999e-01,3.74035e-01,9.99999e-01
8.622505932e-01,3.81371e-01,9.99999e-01,3.81371e-01,9.99999e-01
8.665618462e-01,3.49405e-01,8.98901e-01,3.88702e-01,9.99999e-01
8.708946554e-01,1.90066e-01,4.79932e-01,3.96026e-01,9.99999e-01
8.752491287e-01,2.19825e-01,5.45013e-01,4.03338e-01,9.99999e-01
8.796253743e-01,2.92441e-01,7.12164e-01,4.10637e-01,9.99999e-01
8.840235012e-01,3.49955e-01,8.37373e-01,4.17920e-01,9.99999e-01
8.884436187e-01,3.96141e-01,9.31690e-01,4.25185e-01,9.99999e-01
8.928858368e-01,4.20264e-01,9.71869e-01,4.32428e-01,9.99999e-01
8.973502660e-01,4.36577e-01,9.93011e-01,4.39649e-01,9.99999e-01
9.018370173e-01,4.46497e-01,9.99224e-01,4.46843e-01,9.99999e-01
9.063462024e-01,4.45673e-01,9.81635e-01,4.54010e-01,9.99999e-01
9.108779334e-01,4.40929e-01,9.56155e-01,4.61147e-01,9.99999e-01
9.154323231e-01,4.63262e-01,9.89343e-01,4.68252e-01,9.99999e-01
9.200094847e-01,4.13635e-01,8.70219e-01,4.75322e-01,9.99999e-01
9.246095321e-01,3.87747e-01,8.03859e-01,4.82357e-01,9.99999e-01
9.292325798e-01,4.14289e-01,8.46603e-01,4.89354e-01,9.99999e-01
9.338787427e-01,4.20946e-01,8.48150e-01,4.96310e-01,9.99999e-01
9.385481364e-01,4.45644e-01,8.85573e-01,5.03226e-01,9.99999e-01
9.432408771e-01,4.73196e-01,9.27655e-01,5.10098e-01,9.99999e-01
9.479570815e-01,4.97489e-01,9.62397e-01,5.16926e-01,9.99999e-01
9.526968669e-01,5.14093e-01,9.81640e-01,5.23708e-01,9.99999e-01
9.574603512e-01,5.26249e-01,9.92095e-01,5.30442e-01,9.99999e-01
9.622476530e-01,5.35797e-01,9.97523e-01,5.37127e-01,9.99999e-01
9.670588912e-01,5.43356e-01,9.99253e-01,5.43761e-01,9.99999e-01
9.718941857e-01,5.50315e-01,9.99945e-01,5.50345e-01,9.99999e-01
9.767536566e-01,5.56875e-01,9.99999e-01,5.56875e-01,9.99999e-01
9.816374249e-01,5.63352e-01,9.99999e-01,5.63352e-01,9.99999e-01
9.865456120e-01,5.69774e-01,9.99999e-01,5.69774e-01,9.99999e-01
9.914783401e-01,5.76140e-01,9.99999e-01,5.76140e-01,9.99999e-01
9.964357318e-01,5.82449e-01,9.99999e-01,5.82449e-01,9.99999e-01
1.001417910e+00,5.88701e-01,9.99999e-01,5.88701e-01,9.99999e-01
1.006425000e+00,5.94895e-01,9.99999e-01,5.94895e-01,9.99999e-01
1.011457125e+00,6.01029e-01,9.99999e-01,6.01029e-01,9.99999e-01
1.016514411e+00,6.07103e-01,9.99999e-01,6.07103e-01,9.99999e-01
1.021596983e+00,6.13067e-01,9.99916e-01,6.13118e-01,9.99999e-01
1.026704968e+00,6.14613e-01,9.92798e-01,6.19071e-01,9.99999e-01
1.031838492e+00,5.85125e-01,9.36255e-01,6.24962e-01,9.99999e-01
1.036997685e+00,5.23612e-02,8.30086e-02,6.30792e-01,9.99999e-01
1.042182673e+00,1.21656e-02,1.91115e-02,6.36560e-01,9.99999e-01
1.047393587e+00,2.36796e-02,3.68690e-02,6.42264e-01,9.99999e-01
1.052630555e+00,4.07011e-05,6.28194e-05,6.47906e-01,9.99999e-01
1.057893707e+00,1.35882e-04,2.07935e-04,6.53484e-01,9.99999e-01
1.063183176e+00,1.19391e-03,1.81170e-03,6.58999e-01,9.99999e-01
1.068499092e+00,6.77347e-03,1.01941e-02,6.64449e-01,9.99999e-01
1.073841587e+00,3.56158e-02,5.31709e-02,6.69836e-01,9.99999e-01
1.079210795e+00,1.05667e-01,1.56507e-01,6.75159e-01,9.99999e-01
1.084606849e+00,2.40364e-01,3.53258e-01,6.80418e-01,9.99999e-01
1.090029883e+00,3.98712e-01,5.81540e-01,6.85613e-01,9.99999e-01
1.095480033e+00,5.28204e-01,7.64688e-01,6.90744e-01,9.99999e-01
1.100957433e+00,6.11238e-01,8.78454e-01,6.95810e-01,9.99999e-01
1.106462220e+00,6.64145e-01,9.47677e-01,7.00813e-01,9.99999e-01
1.111994531e+00,6.91828e-01,9.80270e-01,7.05751e-01,9.99999e-01
1.117554504e+00,7.07149e-01,9.95106e-01,7.10626e-01,9.99999e-01
1.123142276e+00,7.15205e-01,9.99674e-01,7.15437e-01,9.99999e-01
1.128757988e+00,7.20185e-01,9.99999e-01,7.20185e-01,9.99999e-01
1.134401778e+00,7.24870e-01,9.99999e-01,7.24870e-01,9.99999e-01
1.140073787e+00,7.29491e-01,9.99999e-01,7.29491e-01,9.99999e-01
1.145774156e+00,7.34050e-01,9.99999e-01,7.34050e-01,9.99999e-01
1.151503026e+00,7.38547e-01,9.99999e-01,7.38547e-01,9.99999e-01
1.157260541e+00,7.42981e-01,9.99999e-01,7.42981e-01,9.99999e-01
1.163046844e+00,7.47354e-01,9.99999e-01,7.47354e-01,9.99999e-01
1.168862078e+00,7.51666e-01,9.99999e-01,7.51666e-01,9.99999e-01
1.174706389e+00,7.55916e-01,9.99999e-01,7.55916e-01,9.99999e-01
1.180579921e+00,7.60106e-01,9.99999e-01,7.60106e-01,9.99999e-01
1.186482820e+00,7.64230e-01,9.99993e-01,7.64235e-01,9.99999e-01
1.192415234e+00,7.49253e-01,9.75202e-01,7.68305e-01,9.99999e-01
1.198377311e+00,4.18303e-01,5.41621e-01,7.72315e-01,9.99999e-01
1.204369197e+00,2.71618e-20,3.49902e-20,7.76266e-01,9.99999e-01
1.210391043e+00,9.14539e-80,1.17225e-79,7.80159e-01,9.99999e-01
1.216442998e+00,3.93951e-69,5.02492e-69,7.83994e-01,9.99999e-01
1.222525213e+00,4.17383e-68,5.29827e-68,7.87772e-01,9.99999e-01
1.228637839e+00,1.16892e-52,1.47686e-52,7.91493e-01,9.99999e-01
1.234781029e+00,4.02286e-40,5.05920e-40,7.95157e-01,9.99999e-01
1.240954934e+00,3.92634e-22,4.91550e-22,7.98765e-01,9.99999e-01
1.247159708e+00,2.60724e-14,3.24962e-14,8.02318e-01,9.99999e-01
1.253395507e+00,1.71421e-07,2.12729e-07,8.05816e-01,9.99999e-01
1.259662485e+00,7.12376e-05,8.80280e-05,8.09260e-01,9.99999e-01
1.265960797e+00,5.43207e-03,6.68439e-03,8.12650e-01,9.99999e-01
1.272290601e+00,7.43096e-02,9.10671e-02,8.15987e-01,9.99999e-01
1.278652054e+00,7.89893e-02,9.64140e-02,8.19271e-01,9.99999e-01
1.285045314e+00,4.60205e-04,5.59517e-04,8.22503e-01,9.99999e-01
1.291470541e+00,7.95885e-10,9.63909e-10,8.25684e-01,9.99999e-01
1.297927893e+00,1.07017e-04,1.29121e-04,8.28814e-01,9.99999e-01
1.304417533e+00,1.40769e-02,1.69215e-02,8.31893e-01,9.99999e-01
1.310939621e+00,3.62246e-03,4.33867e-03,8.34923e-01,9.99999e-01
1.317494319e+00,1.49321e-27,1.78208e-27,8.37904e-01,9.99999e-01
1.324081790e+00,2.33010e-18,2.77117e-18,8.40836e-01,9.99999e-01
1.330702199e+00,6.69663e-11,7.93702e-11,8.43720e-01,9.99999e-01
1.337355710e+00,3.33096e-10,3.93472e-10,8.46557e-01,9.99999e-01
1.344042489e+00,1.44668e-10,1.70329e-10,8.49347e-01,9.99999e-01
1.350762701e+00,3.44817e-11,4.04672e-11,8.52091e-01,9.99999e-01
1.357516515e+00,3.69616e-07,4.32406e-07,8.54789e-01,9.99999e-01
1.364304097e+00,3.42236e-05,3.99135e-05,8.57442e-01,9.99999e-01
1.371125618e+00,4.73350e-03,5.50374e-03,8.60051e-01,9.99999e-01
1.377981246e+00,1.04718e-02,1.21396e-02,8.62616e-01,9.99999e-01
1.384871152e+00,6.63816e-02,7.67294e-02,8.65138e-01,9.99999e-01
1.391795508e+00,8.04431e-02,9.27172e-02,8.67617e-01,9.99999e-01
1.398754485e+00,1.97929e-01,2.27491e-01,8.70054e-01,9.99999e-01
1.405748258e+00,2.94417e-01,3.37460e-01,8.72449e-01,9.99999e-01
1.412776999e+00,4.38718e-01,5.01504e-01,8.74804e-01,9.99999e-01
1.419840884e+00,4.06111e-01,4.63006e-01,8.77118e-01,9.99999e-01
1.426940089e+00,2.17414e-02,2.47232e-02,8.79393e-01,9.99999e-01
1.434074789e+00,0.00000e+00,0.00000e+00,8.81628e-01,9.99999e-01
1.441245163e+00,0.00000e+00,0.00000e+00,8.83825e-01,9.99999e-01
1.448451389e+00,0.00000e+00,0.00000e+00,8.85983e-01,9.99999e-01
1.455693646e+00,0.00000e+00,0.00000e+00,8.88104e-01,9.99999e-01
1.462972114e+00,6.99359e-317,7.85630e-317,8.90188e-01,9.99999e-01
1.470286975e+00,1.03008e-131,1.15449e-131,8.92236e-01,9.99999e-01
1.477638409e+00,6.62227e-83,7.40539e-83,8.94248e-01,9.99999e-01
1.485026601e+00,2.55005e-46,2.84532e-46,8.96224e-01,9.99999e-01
1.492451734e+00,1.75021e-39,1.94865e-39,8.98166e-01,9.99999e-01
1.499913993e+00,2.33541e-17,2.59468e-17,9.00073e-01,9.99999e-01
1.507413563e+00,4.15457e-16,4.60622e-16,9.01947e-01,9.99999e-01
1.514950631e+00,1.44271e-17,1.59630e-17,9.03788e-01,9.99999e-01
1.522525384e+00,4.97962e-59,5.49872e-59,9.05595e-01,9.99999e-01
1.530138011e+00,1.55809e-140,1.71715e-140,9.07371e-01,9.99999e-01
1.537788701e+00,4.87439e-104,5.36168e-104,9.09115e-01,9.99999e-01
1.545477645e+00,3.22382e-22,3.53944e-22,9.10827e-01,9.99999e-01
1.553205033e+00,3.85855e-16,4.22850e-16,9.12509e-01,9.99999e-01
1.560971058e+00,1.78727e-16,1.95509e-16,9.14161e-01,9.99999e-01
1.568775913e+00,0.00000e+00,0.00000e+00,9.15783e-01,9.99999e-01
1.576619793e+00,0.00000e+00,0.00000e+00,9.17376e-01,9.99999e-01
1.584502892e+00,0.00000e+00,0.00000e+00,9.18940e-01,9.99999e-01
1.592425406e+00,5.10864e-317,5.55000e-317,9.20475e-01,9.99999e-01
1.600387533e+00,0.00000e+00,0.00000e+00,9.21983e-01,9.99999e-01
1.608389471e+00,0.00000e+00,0.00000e+00,9.23464e-01,9.99999e-01
1.616431418e+00,0.00000e+00,0.00000e+00,9.24917e-01,9.99999e-01
1.624513575e+00,0.00000e+00,0.00000e+00,9.26344e-01,9.99999e-01
1.632636143e+00,4.74519e-299,5.11475e-299,9.27745e-01,9.99999e-01
1.640799324e+00,4.76297e-122,5.12631e-122,9.29121e-01,9.99999e-01
1.649003321e+00,4.76866e-122,5.12500e-122,9.30471e-01,9.99999e-01
1.657248337e+00,2.20355e-94,2.36484e-94,9.31796e-01,9.99999e-01
1.665534579e+00,5.18630e-95,5.55815e-95,9.33097e-01,9.99999e-01
1.673862252e+00,1.08010e-60,1.15596e-60,9.34374e-01,9.99999e-01
1.682231563e+00,4.07082e-42,4.35089e-42,9.35628e-01,9.99999e-01
1.690642721e+00,1.55667e-23,1.66158e-23,9.36858e-01,9.99999e-01
1.699095934e+00,4.08348e-15,4.35307e-15,9.38066e-01,9.99999e-01
1.707591414e+00,4.96666e-08,5.28789e-08,9.39251e-01,9.99999e-01
1.716129371e+00,5.71209e-05,6.07401e-05,9.40415e-01,9.99999e-01
1.724710018e+00,3.63269e-03,3.85817e-03,9.41557e-01,9.99999e-01
1.733333568e+00,2.43815e-02,2.58640e-02,9.42677e-01,9.99999e-01
1.742000236e+00,1.12125e-01,1.18804e-01,9.43777e-01,9.99999e-01
1.750710237e+00,8.00253e-04,8.46956e-04,9.44856e-01,9.99999e-01
1.759463788e+00,5.93041e-58,6.26949e-58,9.45916e-01,9.99999e-01
1.768261107e+00,1.19087e-60,1.25757e-60,9.46955e-01,9.99999e-01
1.777102413e+00,5.12238e-59,5.40349e-59,9.47975e-01,9.99999e-01
1.785987925e+00,2.30132e-55,2.42506e-55,9.48976e-01,9.99999e-01
1.794917864e+00,7.10681e-53,7.48117e-53,9.49958e-01,9.99999e-01
1.803892454e+00,7.74460e-51,8.14430e-51,9.50922e-01,9.99999e-01
1.812911916e+00,7.54023e-49,7.92150e-49,9.51868e-01,9.99999e-01
1.821976476e+00,6.49213e-49,6.81376e-49,9.52796e-01,9.99999e-01
1.831086358e+00,2.48724e-39,2.60797e-39,9.53706e-01,9.99999e-01
1.840241790e+00,1.55935e-33,1.63352e-33,9.54599e-01,9.99999e-01
1.849442999e+00,2.47267e-23,2.58789e-23,9.55476e-01,9.99999e-01
1.858690214e+00,6.28729e-22,6.57434e-22,9.56336e-01,9.99999e-01
1.867983665e+00,1.61335e-22,1.68552e-22,9.57180e-01,9.99999e-01
1.877323583e+00,1.53889e-110,1.60635e-110,9.58007e-01,9.99999e-01
