#,Wave/freq,Total,CO2,Rayleigh,CIA
4.000000000e-01,2.95929e-08,9.99999e-01,2.95929e-08,9.99999e-01
4.020000000e-01,4.16713e-08,9.99999e-01,4.16713e-08,9.99999e-01
4.040100000e-01,5.82926e-08,9.99999e-01,5.82926e-08,9.99999e-01
4.060300500e-01,8.10048e-08,9.99999e-01,8.10048e-08,9.99999e-01
4.080602003e-01,1.11837e-07,9.99999e-01,1.11837e-07,9.99999e-01
4.101005013e-01,1.53424e-07,9.99999e-01,1.53424e-07,9.99999e-01
4.121510038e-01,2.09165e-07,9.99999e-01,2.09165e-07,9.99999e-01
4.142117588e-01,2.83417e-07,9.99999e-01,2.83417e-07,9.99999e-01
4.162828176e-01,3.81730e-07,9.99999e-01,3.81730e-07,9.99999e-01
4.183642317e-01,5.11131e-07,9.99999e-01,5.11131e-07,9.99999e-01
4.204560528e-01,6.80463e-07,9.99999e-01,6.80463e-07,9.99999e-01
4.225583331e-01,9.00786e-07,9.99999e-01,9.00786e-07,9.99999e-01
4.246711247e-01,1.18586e-06,9.99999e-01,1.18586e-06,9.99999e-01
4.267944804e-01,1.55269e-06,9.99999e-01,1.55269e-06,9.99999e-01
4.289284528e-01,2.02221e-06,9.99999e-01,2.02221e-06,9.99999e-01
4.310730950e-01,2.61999e-06,9.99999e-01,2.61999e-06,9.99999e-01
4.332284605e-01,3.37717e-06,9.99999e-01,3.37717e-06,9.99999e-01
4.353946028e-01,4.33139e-06,9.99999e-01,4.33139e-06,9.99999e-01
4.375715758e-01,5.52799e-06,9.99999e-01,5.52799e-06,9.99999e-01
4.397594337e-01,7.02125e-06,9.99999e-01,7.02125e-06,9.99999e-01
4.419582309e-01,8.87586e-06,9.99999e-01,8.87586e-06,9.99999e-01
4.441680220e-01,1.11685e-05,9.99999e-01,1.11685e-05,9.99999e-01
4.463888621e-01,1.39898e-05,9.99999e-01,1.39898e-05,9.99999e-01
4.486208064e-01,1.74459e-05,9.99999e-01,1.74459e-05,9.99999e-01
4.508639105e-01,2.16611e-05,9.99999e-01,2.16611e-05,9.99999e-01
4.531182300e-01,2.67801e-05,9.99999e-01,2.67801e-05,9.99999e-01
4.553838212e-01,3.29704e-05,9.99999e-01,3.29704e-05,9.99999e-01
4.576607403e-01,4.04253e-05,9.99999e-01,4.04253e-05,9.99999e-01
4.599490440e-01,4.93665e-05,9.99999e-01,4.93665e-05,9.99999e-01
4.622487892e-01,6.00479e-05,9.99999e-01,6.00479e-05,9.99999e-01
4.645600332e-01,7.27583e-05,9.99999e-01,7.27583e-05,9.99999e-01
4.668828333e-01,8.78255e-05,9.99999e-01,8.78255e-05,9.99999e-01
4.692172475e-01,1.05620e-04,9.99999e-01,1.05620e-04,9.99999e-01
4.715633337e-01,1.26557e-04,9.99999e-01,1.26557e-04,9.99999e-01
4.739211504e-01,1.51104e-04,9.99999e-01,1.51104e-04,9.99999e-01
4.762907561e-01,1.79781e-04,9.99999e-01,1.79781e-04,9.99999e-01
4.786722099e-01,2.13168e-04,9.99999e-01,2.13168e-04,9.99999e-01
4.810655710e-01,2.51906e-04,9.99999e-01,2.51906e-04,9.99999e-01
4.834708988e-01,2.96704e-04,9.99999e-01,2.96704e-04,9.99999e-01
4.858882533e-01,3.48340e-04,9.99999e-01,3.48340e-04,9.99999e-01
4.883176946e-01,4.07669e-04,9.99999e-01,4.07669e-04,9.99999e-01
4.907592831e-01,4.75622e-04,9.99999e-01,4.75622e-04,9.99999e-01
4.932130795e-01,5.53216e-04,9.99999e-01,5.53216e-04,9.99999e-01
4.956791449e-01,6.41550e-04,9.99999e-01,6.41550e-04,9.99999e-01
4.981575406e-01,7.41815e-04,9.99999e-01,7.41815e-04,9.99999e-01
5.006483283e-01,8.55293e-04,9.99999e-01,8.55293e-04,9.99999e-01
5.031515699e-01,9.83361e-04,9.99999e-01,9.83361e-04,9.99999e-01
5.056673278e-01,1.12749e-03,9.99999e-01,1.12749e-03,9.99999e-01
5.081956644e-01,1.28927e-03,9.99999e-01,1.28927e-03,9.99999e-01
5.107366428e-01,1.47035e-03,9.99999e-01,1.47035e-03,9.99999e-01
5.132903260e-01,1.67252e-03,9.99999e-01,1.67252e-03,9.99999e-01
5.158567776e-01,1.89765e-03,9.99999e-01,1.89765e-03,9.99999e-01
5.184360615e-01,2.14772e-03,9.99999e-01,2.14772e-03,9.99999e-01
5.210282418e-01,2.42481e-03,9.99999e-01,2.42481e-03,9.99999e-01
5.236333830e-01,2.73110e-03,9.99999e-01,2.73110e-03,9.99999e-01
5.262515499e-01,3.06885e-03,9.99999e-01,3.06885e-03,9.99999e-01
5.288828077e-01,3.44044e-03,9.99999e-01,3.44044e-03,9.99999e-01
5.315272217e-01,3.84833e-03,9.99999e-01,3.84833e-03,9.99999e-01
5.341848578e-01,4.29506e-03,9.99999e-01,4.29506e-03,9.99999e-01
5.368557821e-01,4.78326e-03,9.99999e-01,4.78326e-03,9.99999e-01
5.395400610e-01,5.31563e-03,9.99999e-01,5.31563e-03,9.99999e-01
5.422377613e-01,5.89496e-03,9.99999e-01,5.89496e-03,9.99999e-01
5.449489501e-01,6.52408e-03,9.99999e-01,6.52408e-03,9.99999e-01
5.476736949e-01,7.20590e-03,9.99999e-01,7.20590e-03,9.99999e-01
5.504120634e-01,7.94336e-03,9.99999e-01,7.94336e-03,9.99999e-01
5.531641237e-01,8.73945e-03,9.99999e-01,8.73945e-03,9.99999e-01
5.559299443e-01,9.59721e-03,9.99999e-01,9.59721e-03,9.99999e-01
5.587095940e-01,1.05197e-02,9.99999e-01,1.05197e-02,9.99999e-01
5.615031420e-01,1.15099e-02,9.99999e-01,1.15099e-02,9.99999e-01
5.643106577e-01,1.25711e-02,9.99999e-01,1.25711e-02,9.99999e-01
5.671322110e-01,1.37061e-02,9.99999e-01,1.37061e-02,9.99999e-01
5.699678720e-01,1.49181e-02,9.99999e-01,1.49181e-02,9.99999e-01
5.728177114e-01,1.62102e-02,9.99999e-01,1.62102e-02,9.99999e-01
5.756818000e-01,1.75853e-02,9.99999e-01,1.75853e-02,9.99999e-01
5.785602090e-01,1.90463e-02,9.99999e-01,1.90463e-02,9.99999e-01
5.814530100e-01,2.05963e-02,9.99999e-01,2.05963e-02,9.99999e-01
5.843602750e-01,2.22380e-02,9.99999e-01,2.22380e-02,9.99999e-01
5.872820764e-01,2.39743e-02,9.99999e-01,2.39743e-02,9.99999e-01
5.902184868e-01,2.58077e-02,9.99999e-01,2.58077e-02,9.99999e-01
5.931695792e-01,2.77410e-02,9.99999e-01,2.77410e-02,9.99999e-01
5.961354271e-01,2.97765e-02,9.99999e-01,2.97765e-02,9.99999e-01
5.991161043e-01,3.19167e-02,9.99999e-01,3.19167e-02,9.99999e-01
6.021116848e-01,3.41639e-02,9.99999e-01,3.41639e-02,9.99999e-01
6.051222432e-01,3.65202e-02,9.99999e-01,3.65202e-02,9.99999e-01
6.081478544e-01,3.89876e-02,9.99999e-01,3.89876e-02,9.99999e-01
6.111885937e-01,4.15680e-02,9.99999e-01,4.15680e-02,9.99999e-01
6.142445367e-01,4.42632e-02,9.99999e-01,4.42632e-02,9.99999e-01
6.173157594e-01,4.70746e-02,9.99999e-01,4.70746e-02,9.99999e-01
6.204023382e-01,5.00037e-02,9.99999e-01,5.00037e-02,9.99999e-01
6.235043498e-01,5.30518e-02,9.99999e-01,5.30518e-02,9.99999e-01
6.266218716e-01,5.62199e-02,9.99999e-01,5.62199e-02,9.99999e-01
6.297549810e-01,5.95091e-02,9.99999e-01,5.95091e-02,9.99999e-01
6.329037559e-01,6.29199e-02,9.99999e-01,6.29199e-02,9.99999e-01
6.360682746e-01,6.64531e-02,9.99999e-01,6.64531e-02,9.99999e-01
6.392486160e-01,7.01089e-02,9.99999e-01,7.01089e-02,9.99999e-01
6.424448591e-01,7.38877e-02,9.99999e-01,7.38877e-02,9.99999e-01
6.456570834e-01,7.77894e-02,9.99999e-01,7.77894e-02,9.99999e-01
6.488853688e-01,8.18140e-02,9.99999e-01,8.18140e-02,9.99999e-01
6.521297956e-01,8.59611e-02,9.99999e-01,8.59611e-02,9.99999e-01
6.553904446e-01,9.02303e-02,9.99999e-01,9.02303e-02,9.99999e-01
6.586673968e-01,9.46208e-02,9.99999e-01,9.46208e-02,9.99999e-01
6.619607338e-01,9.91319e-02,9.99999e-01,9.91319e-02,9.99999e-01
6.652705375e-01,1.03763e-01,9.99999e-01,1.03763e-01,9.99999e-01
6.685968902e-01,1.08512e-01,9.99999e-01,1.08512e-01,9.99999e-01
6.719398746e-01,1.13378e-01,9.99999e-01,1.13378e-01,9.99999e-01
6.752995740e-01,1.18360e-01,9.99999e-01,1.18360e-01,9.99999e-01
6.786760719e-01,1.23455e-01,9.99999e-01,1.23455e-01,9.99999e-01
6.820694522e-01,1.28663e-01,9.99999e-01,1.28663e-01,9.99999e-01
6.854797995e-01,1.33982e-01,9.99999e-01,1.33982e-01,9.99999e-01
6.889071985e-01,1.39408e-01,9.99999e-01,1.39408e-01,9.99999e-01
6.923517345e-01,1.44941e-01,9.99999e-01,1.44941e-01,9.99999e-01
6.958134932e-01,1.50577e-01,9.99999e-01,1.50577e-01,9.99999e-01
6.992925606e-01,1.56315e-01,9.99999e-01,1.56315e-01,9.99999e-01
7.027890234e-01,1.62152e-01,9.99999e-01,1.62152e-01,9.99999e-01
7.063029686e-01,1.68084e-01,9.99999e-01,1.68084e-01,9.99999e-01
7.098344834e-01,1.74110e-01,9.99999e-01,1.74110e-01,9.99999e-01
7.133836558e-01,1.80227e-01,9.99999e-01,1.80227e-01,9.99999e-01
7.169505741e-01,1.86432e-01,9.99999e-01,1.86432e-01,9.99999e-01
7.205353270e-01,1.92721e-01,9.99999e-01,1.92721e-01,9.99999e-01
7.241380036e-01,1.99092e-01,9.99999e-01,1.99092e-01,9.99999e-01
7.277586936e-01,2.05541e-01,9.99999e-01,2.05541e-01,9.99999e-01
7.313974871e-01,2.12066e-01,9.99999e-01,2.12066e-01,9.99999e-01
7.350544745e-01,2.18663e-01,9.99999e-01,2.18663e-01,9.99999e-01
7.387297469e-01,2.25328e-01,9.99999e-01,2.25328e-01,9.99999e-01
7.424233956e-01,2.32059e-01,9.99999e-01,2.32059e-01,9.99999e-01
7.461355126e-01,2.38853e-01,9.99999e-01,2.38853e-01,9.99999e-01
7.498661902e-01,2.45705e-01,9.99999e-01,2.45705e-01,9.99999e-01
7.536155211e-01,2.52612e-01,9.99999e-01,2.52612e-01,9.99999e-01
7.573835987e-01,2.59572e-01,9.99999e-01,2.59572e-01,9.99999e-01
7.611705167e-01,2.66580e-01,9.99999e-01,2.66580e-01,9.99999e-01
7.649763693e-01,2.73633e-01,9.99999e-01,2.73633e-01,9.99999e-01
7.688012511e-01,2.80728e-01,9.99999e-01,2.80728e-01,9.99999e-01
7.726452574e-01,2.87861e-01,9.99999e-01,2.87861e-01,9.99999e-01
7.765084837e-01,2.93922e-01,9.96243e-01,2.95030e-01,9.99999e-01
7.803910261e-01,2.36266e-01,7.81741e-01,3.02230e-01,9.99999e-01
7.842929812e-01,2.56605e-01,8.29207e-01,3.09458e-01,9.99999e-01
7.882144461e-01,2.57820e-01,8.14053e-01,3.16712e-01,9.99999e-01
7.921555184e-01,2.82082e-01,8.70659e-01,3.23987e-01,9.99999e-01
7.961162960e-01,3.05708e-01,9.22808e-01,3.31280e-01,9.99999e-01
8.000968774e-01,3.24858e-01,9.59446e-01,3.38589e-01,9.99999e-01
8.040973618e-01,3.39415e-01,9.81225e-01,3.45910e-01,9.99999e-01
8.081178486e-01,3.50609e-01,9.92552e-01,3.53240e-01,9.99999e-01
8.121584379e-01,3.59860e-01,9.98015e-01,3.60575e-01,9.99999e-01
8.162192301e-01,3.67865e-01,9.99865e-01,3.67914e-01,9.99999e-01
8.203003262e-01,3.75253e-01,9.99999e-01,3.75253e-01,9.99999e-01
8.244018279e-01,3.82589e-01,9.99999e-01,3.82589e-01,9.99999e-01
8.285238370e-01,3.89919e-01,9.99999e-01,3.89919e-01,9.99999e-01
8.326664562e-01,3.97241e-01,9.99999e-01,3.97241e-01,9.99999e-01
8.368297885e-01,4.04551e-01,9.99999e-01,4.04551e-01,9.99999e-01
8.410139374e-01,4.11848e-01,9.99999e-01,4.11848e-01,9.99999e-01
8.452190071e-01,4.19128e-01,9.99999e-01,4.19128e-01,9.99999e-01
8.494451021e-01,4.26389e-01,9.99999e-01,4.26389e-01,9.99999e-01
8.536923276e-01,4.33629e-01,9.99999e-01,4.33629e-01,9.99999e-01
8.579607893e-01,4.40845e-01,9.99999e-01,4.40845e-01,9.99999e-01
8.622505932e-01,4.47326e-01,9.98416e-01,4.48035e-01,9.99999e-01
8.665618462e-01,2.52855e-01,5.55484e-01,4.55197e-01,9.99999e-01
8.708946554e-01,2.43346e-01,5.26348e-01,4.62329e-01,9.99999e-01
8.752491287e-01,3.13619e-01,6.68086e-01,4.69428e-01,9.99999e-01
8.796253743e-01,3.91240e-01,8.21082e-01,4.76493e-01,9.99999e-01
8.840235012e-01,4.43032e-01,9.16262e-01,4.83521e-01,9.99999e-01
8.884436187e-01,4.73826e-01,9.65983e-01,4.90512e-01,9.99999e-01
8.928858368e-01,4.92284e-01,9.89591e-01,4.97462e-01,9.99999e-01
8.973502660e-01,5.03353e-01,9.97982e-01,5.04370e-01,9.99999e-01
9.018370173e-01,5.10450e-01,9.98463e-01,5.11235e-01,9.99999e-01
9.063462024e-01,4.97339e-01,9.60011e-01,5.18055e-01,9.99999e-01
9.108779334e-01,5.15332e-01,9.81903e-01,5.24829e-01,9.99999e-01
9.154323231e-01,5.16578e-01,9.71823e-01,5.31555e-01,9.99999e-01
9.200094847e-01,4.37110e-01,8.12121e-01,5.38232e-01,9.99999e-01
9.246095321e-01,4.73361e-01,8.68777e-01,5.44858e-01,9.99999e-01
9.292325798e-01,4.71803e-01,8.55594e-01,5.51433e-01,9.99999e-01
9.338787427e-01,4.90801e-01,8.79642e-01,5.57954e-01,9.99999e-01
9.385481364e-01,5.26134e-01,9.32164e-01,5.64422e-01,9.99999e-01
9.432408771e-01,5.47025e-01,9.58288e-01,5.70835e-01,9.99999e-01
9.479570815e-01,5.64169e-01,9.77437e-01,5.77191e-01,9.99999e-01
9.526968669e-01,5.77783e-01,9.90216e-01,5.83491e-01,9.99999e-01
9.574603512e-01,5.87711e-01,9.96570e-01,5.89734e-01,9.99999e-01
9.622476530e-01,5.95257e-01,9.98890e-01,5.95917e-01,9.99999e-01
9.670588912e-01,6.01938e-01,9.99828e-01,6.02042e-01,9.99999e-01
9.718941857e-01,6.08106e-01,9.99999e-01,6.08106e-01,9.99999e-01
9.767536566e-01,6.14110e-01,9.99999e-01,6.14110e-01,9.99999e-01
9.816374249e-01,6.20053e-01,9.99999e-01,6.20053e-01,9.99999e-01
9.865456120e-01,6.25935e-01,9.99999e-01,6.25935e-01,9.99999e-01
9.914783401e-01,6.31754e-01,9.99999e-01,6.31754e-01,9.99999e-01
9.964357318e-01,6.37511e-01,9.99999e-01,6.37511e-01,9.99999e-01
1.001417910e+00,6.43205e-01,9.99999e-01,6.43205e-01,9.99999e-01
1.006425000e+00,6.48836e-01,9.99999e-01,6.48836e-01,9.99999e-01
1.011457125e+00,6.54404e-01,9.99999e-01,6.54404e-01,9.99999e-01
1.016514411e+00,6.59907e-01,9.99998e-01,6.59908e-01,9.99999e-01
1.021596983e+00,6.64244e-01,9.98339e-01,6.65348e-01,9.99999e-01
1.026704968e+00,6.61874e-01,9.86804e-01,6.70725e-01,9.99999e-01
1.031838492e+00,2.84912e-01,4.21444e-01,6.76037e-01,9.99999e-01
1.036997685e+00,7.42456e-03,1.08979e-02,6.81285e-01,9.99999e-01
1.042182673e+00,5.66315e-02,8.24967e-02,6.86469e-01,9.99999e-01
1.047393587e+00,3.65395e-03,5.28340e-03,6.91589e-01,9.99999e-01
1.052630555e+00,1.53902e-04,2.20918e-04,6.96645e-01,9.99999e-01
1.057893707e+00,7.69168e-04,1.09625e-03,7.01637e-01,9.99999e-01
1.063183176e+00,9.11029e-03,1.28938e-02,7.06565e-01,9.99999e-01
1.068499092e+00,4.66801e-02,6.56145e-02,7.11429e-01,9.99999e-01
1.073841587e+00,9.38625e-02,1.31051e-01,7.16230e-01,9.99999e-01
1.079210795e+00,2.43309e-01,3.37476e-01,7.20967e-01,9.99999e-01
1.084606849e+00,3.89750e-01,5.37111e-01,7.25642e-01,9.99999e-01
1.090029883e+00,5.38266e-01,7.37095e-01,7.30253e-01,9.99999e-01
1.095480033e+00,6.32317e-01,8.60527e-01,7.34801e-01,9.99999e-01
1.100957433e+00,6.93582e-01,9.38175e-01,7.39288e-01,9.99999e-01
1.106462220e+00,7.24452e-01,9.74103e-01,7.43712e-01,9.99999e-01
1.111994531e+00,7.42394e-01,9.92406e-01,7.48074e-01,9.99999e-01
1.117554504e+00,7.51435e-01,9.98749e-01,7.52375e-01,9.99999e-01
1.123142276e+00,7.56610e-01,9.99992e-01,7.56616e-01,9.99999e-01
1.128757988e+00,7.60795e-01,9.99999e-01,7.60795e-01,9.99999e-01
1.134401778e+00,7.64915e-01,9.99999e-01,7.64915e-01,9.99999e-01
1.140073787e+00,7.68975e-01,9.99999e-01,7.68975e-01,9.99999e-01
1.145774156e+00,7.72975e-01,9.99999e-01,7.72975e-01,9.99999e-01
1.151503026e+00,7.76917e-01,9.99999e-01,7.76917e-01,9.99999e-01
1.157260541e+00,7.80800e-01,9.99999e-01,7.80800e-01,9.99999e-01
1.163046844e+00,7.84626e-01,9.99999e-01,7.84626e-01,9.99999e-01
1.168862078e+00,7.88394e-01,9.99999e-01,7.88394e-01,9.99999e-01
1.174706389e+00,7.92105e-01,9.99999e-01,7.92105e-01,9.99999e-01
1.180579921e+00,7.95760e-01,9.99999e-01,7.95760e-01,9.99999e-01
1.186482820e+00,7.97606e-01,9.97806e-01,7.99359e-01,9.99999e-01
1.192415234e+00,7.56050e-01,9.41645e-01,8.02903e-01,9.99999e-01
1.198377311e+00,6.62211e-02,8.21202e-02,8.06392e-01,9.99999e-01
1.204369197e+00,1.60363e-86,1.98021e-86,8.09826e-01,9.99999e-01
1.210391043e+00,5.10181e-66,6.27369e-66,8.13208e-01,9.99999e-01
1.216442998e+00,1.10563e-57,1.35405e-57,8.16536e-01,9.99999e-01
1.222525213e+00,8.43949e-45,1.02944e-44,8.19811e-01,9.99999e-01
1.228637839e+00,3.40567e-34,4.13793e-34,8.23035e-01,9.99999e-01
1.234781029e+00,6.01423e-23,7.27931e-23,8.26207e-01,9.99999e-01
1.240954934e+00,3.39594e-14,4.09480e-14,8.29329e-01,9.99999e-01
1.247159708e+00,2.89589e-07,3.47896e-07,8.32400e-01,9.99999e-01
1.253395507e+00,2.85205e-05,3.41390e-05,8.35421e-01,9.99999e-01
1.259662485e+00,2.80203e-03,3.34214e-03,8.38394e-01,9.99999e-01
1.265960797e+00,5.43268e-02,6.45734e-02,8.41318e-01,9.99999e-01
1.272290601e+00,1.75216e-01,2.07554e-01,8.44194e-01,9.99999e-01
1.278652054e+00,1.93322e-02,2.28237e-02,8.47023e-01,9.99999e-01
1.285045314e+00,5.70560e-07,6.71400e-07,8.49806e-01,9.99999e-01
1.291470541e+00,5.07063e-07,5.94766e-07,8.52542e-01,9.99999e-01
1.297927893e+00,1.34036e-02,1.56724e-02,8.55233e-01,9.99999e-01
1.304417533e+00,2.26106e-02,2.63563e-02,8.57878e-01,9.99999e-01
1.310939621e+00,2.08916e-04,2.42790e-04,8.60480e-01,9.99999e-01
1.317494319e+00,6.78129e-22,7.85746e-22,8.63038e-01,9.99999e-01
1.324081790e+00,6.54453e-10,7.56109e-10,8.65552e-01,9.99999e-01
1.330702199e+00,8.68031e-10,1.00001e-09,8.68024e-01,9.99999e-01
1.337355710e+00,6.23495e-09,7.16286e-09,8.70454e-01,9.99999e-01
1.344042489e+00,5.90395e-11,6.76404e-11,8.72843e-01,9.99999e-01
1.350762701e+00,1.55092e-07,1.77209e-07,8.75191e-01,9.99999e-01
1.357516515e+00,4.09349e-05,4.66495e-05,8.77499e-01,9.99999e-01
1.364304097e+00,2.94637e-03,3.34903e-03,8.79767e-01,9.99999e-01
1.371125618e+00,1.65359e-02,1.87482e-02,8.81995e-01,9.99999e-01
1.377981246e+00,7.56184e-02,8.55231e-02,8.84186e-01,9.99999e-01
1.384871152e+00,9.72873e-02,1.09763e-01,8.86338e-01,9.99999e-01
1.391795508e+00,2.18379e-01,2.45797e-01,8.88453e-01,9.99999e-01
1.398754485e+00,2.92810e-01,3.28803e-01,8.90531e-01,9.99999e-01
1.405748258e+00,4.47236e-01,5.01064e-01,8.92573e-01,9.99999e-01
1.412776999e+00,5.58442e-01,6.24251e-01,8.94579e-01,9.99999e-01
1.419840884e+00,1.05195e-01,1.17333e-01,8.96549e-01,9.99999e-01
1.426940089e+00,7.72405e-146,8.59674e-146,8.98485e-01,9.99999e-01
1.434074789e+00,0.00000e+00,0.00000e+00,9.00387e-01,9.99999e-01
1.441245163e+00,0.00000e+00,0.00000e+00,9.02255e-01,9.99999e-01
1.448451389e+00,0.00000e+00,0.00000e+00,9.04090e-01,9.99999e-01
1.455693646e+00,0.00000e+00,0.00000e+00,9.05892e-01,9.99999e-01
1.462972114e+00,4.80750e-158,5.29656e-158,9.07662e-01,9.99999e-01
1.470286975e+00,3.04429e-104,3.34758e-104,9.09401e-01,9.99999e-01
1.477638409e+00,3.30109e-50,3.62316e-50,9.11109e-01,9.99999e-01
1.485026601e+00,4.97355e-39,5.44875e-39,9.12786e-01,9.99999e-01
1.492451734e+00,8.71531e-21,9.53084e-21,9.14432e-01,9.99999e-01
1.499913993e+00,6.17598e-14,6.74197e-14,9.16049e-01,9.99999e-01
1.507413563e+00,1.80599e-14,1.96809e-14,9.17637e-01,9.99999e-01
1.514950631e+00,1.27951e-29,1.39199e-29,9.19197e-01,9.99999e-01
1.522525384e+00,3.65615e-80,3.97093e-80,9.20728e-01,9.99999e-01
1.530138011e+00,1.58745e-88,1.72131e-88,9.22231e-01,9.99999e-01
1.537788701e+00,5.49490e-39,5.94874e-39,9.23707e-01,9.99999e-01
1.545477645e+00,1.55255e-14,1.67814e-14,9.25156e-01,9.99999e-01
1.553205033e+00,1.05348e-13,1.13695e-13,9.26579e-01,9.99999e-01
1.560971058e+00,8.04766e-38,8.67227e-38,9.27975e-01,9.99999e-01
1.568775913e+00,0.00000e+00,0.00000e+00,9.29346e-01,9.99999e-01
1.576619793e+00,0.00000e+00,0.00000e+00,9.30692e-01,9.99999e-01
1.584502892e+00,1.37755e-267,1.47803e-267,9.32014e-01,9.99999e-01
1.592425406e+00,1.33811e-267,1.43372e-267,9.33311e-01,9.99999e-01
1.600387533e+00,0.00000e+00,0.00000e+00,9.34584e-01,9.99999e-01
1.608389471e+00,0.00000e+00,0.00000e+00,9.35834e-01,9.99999e-01
1.616431418e+00,0.00000e+00,0.00000e+00,9.37060e-01,9.99999e-01
1.624513575e+00,8.11915e-278,8.65337e-278,9.38264e-01,9.99999e-01
1.632636143e+00,2.63060e-136,2.80016e-136,9.39446e-01,9.99999e-01
1.640799324e+00,3.35760e-103,3.56961e-103,9.40606e-01,9.99999e-01
1.649003321e+00,7.50973e-81,7.97427e-81,9.41744e-01,9.99999e-01
1.657248337e+00,7.08890e-80,7.51849e-80,9.42861e-01,9.99999e-01
1.665534579e+00,8.56765e-57,9.07630e-57,9.43958e-01,9.99999e-01
1.673862252e+00,2.24664e-45,2.37730e-45,9.45034e-01,9.99999e-01
1.682231563e+00,8.77644e-25,9.27653e-25,9.46090e-01,9.99999e-01
1.690642721e+00,3.97133e-16,4.19303e-16,9.47126e-01,9.99999e-01
1.699095934e+00,1.26685e-08,1.33614e-08,9.48143e-01,9.99999e-01
1.707591414e+00,2.14757e-05,2.26265e-05,9.49140e-01,9.99999e-01
1.716129371e+00,2.70930e-03,2.85153e-03,9.50120e-01,9.99999e-01
1.724710018e+00,2.57764e-02,2.71022e-02,9.51080e-01,9.99999e-01
1.733333568e+00,1.15779e-01,1.21613e-01,9.52023e-01,9.99999e-01
1.742000236e+00,4.33506e-02,4.54910e-02,9.52948e-01,9.99999e-01
1.750710237e+00,6.06432e-08,6.35769e-08,9.53856e-01,9.99999e-01
1.759463788e+00,4.82954e-51,5.05845e-51,9.54746e-01,9.99999e-01
1.768261107e+00,2.91669e-50,3.05214e-50,9.55620e-01,9.99999e-01
1.777102413e+00,3.68110e-50,3.84860e-50,9.56477e-01,9.99999e-01
1.785987925e+00,9.31199e-45,9.72715e-45,9.57318e-01,9.99999e-01
1.794917864e+00,1.15108e-45,1.20137e-45,9.58143e-01,9.99999e-01
1.803892454e+00,2.27683e-41,2.37428e-41,9.58953e-01,9.99999e-01
1.812911916e+00,2.32354e-49,2.42099e-49,9.59747e-01,9.99999e-01
1.821976476e+00,3.13703e-36,3.26594e-36,9.60526e-01,9.99999e-01
1.831086358e+00,4.76470e-33,4.95656e-33,9.61291e-01,9.99999e-01
1.840241790e+00,1.78200e-20,1.85231e-20,9.62040e-01,9.99999e-01
1.849442999e+00,2.27125e-19,2.35906e-19,9.62776e-01,9.99999e-01
1.858690214e+00,9.77807e-19,1.01485e-18,9.63498e-01,9.99999e-01
1.867983665e+00,9.59571e-30,9.95192e-30,9.64206e-01,9.99999e-01
1.877323583e+00,1.39573e-94,1.44650e-94,9.64900e-01,9.99999e-01
