#,Wave/freq,Total,CO2,Rayleigh,CIA
4.000000000e-01,6.50805e-06,9.99999e-01,6.50805e-06,9.99999e-01
4.020000000e-01,8.24153e-06,9.99999e-01,8.24153e-06,9.99999e-01
4.040100000e-01,1.03855e-05,9.99999e-01,1.03855e-05,9.99999e-01
4.060300500e-01,1.30277e-05,9.99999e-01,1.30277e-05,9.99999e-01
4.080602003e-01,1.62690e-05,9.99999e-01,1.62690e-05,9.99999e-01
4.101005013e-01,2.02278e-05,9.99999e-01,2.02278e-05,9.99999e-01
4.121510038e-01,2.50419e-05,9.99999e-01,2.50419e-05,9.99999e-01
4.142117588e-01,3.08713e-05,9.99999e-01,3.08713e-05,9.99999e-01
4.162828176e-01,3.79007e-05,9.99999e-01,3.79007e-05,9.99999e-01
4.183642317e-01,4.63426e-05,9.99999e-01,4.63426e-05,9.99999e-01
4.204560528e-01,5.64401e-05,9.99999e-01,5.64401e-05,9.99999e-01
4.225583331e-01,6.84706e-05,9.99999e-01,6.84706e-05,9.99999e-01
4.246711247e-01,8.27491e-05,9.99999e-01,8.27491e-05,9.99999e-01
4.267944804e-01,9.96318e-05,9.99999e-01,9.96318e-05,9.99999e-01
4.289284528e-01,1.19520e-04,9.99999e-01,1.19520e-04,9.99999e-01
4.310730950e-01,1.42863e-04,9.99999e-01,1.42863e-04,9.99999e-01
4.332284605e-01,1.70165e-04,9.99999e-01,1.70165e-04,9.99999e-01
4.353946028e-01,2.01985e-04,9.99999e-01,2.01985e-04,9.99999e-01
4.375715758e-01,2.38945e-04,9.99999e-01,2.38945e-04,9.99999e-01
4.397594337e-01,2.81732e-04,9.99999e-01,2.81732e-04,9.99999e-01
4.419582309e-01,3.31101e-04,9.99999e-01,3.31101e-04,9.99999e-01
4.441680220e-01,3.87882e-04,9.99999e-01,3.87882e-04,9.99999e-01
4.463888621e-01,4.52982e-04,9.99999e-01,4.52982e-04,9.99999e-01
4.486208064e-01,5.27390e-04,9.99999e-01,5.27390e-04,9.99999e-01
4.508639105e-01,6.12178e-04,9.99999e-01,6.12178e-04,9.99999e-01
4.531182300e-01,7.08509e-04,9.99999e-01,7.08509e-04,9.99999e-01
4.553838212e-01,8.17633e-04,9.99999e-01,8.17633e-04,9.99999e-01
4.576607403e-01,9.40900e-04,9.99999e-01,9.40900e-04,9.99999e-01
4.599490440e-01,1.07975e-03,9.99999e-01,1.07975e-03,9.99999e-01
4.622487892e-01,1.23573e-03,9.99999e-01,1.23573e-03,9.99999e-01
4.645600332e-01,1.41047e-03,9.99999e-01,1.41047e-03,9.99999e-01
4.668828333e-01,1.60573e-03,9.99999e-01,1.60573e-03,9.99999e-01
4.692172475e-01,1.82333e-03,9.99999e-01,1.82333e-03,9.99999e-01
4.715633337e-01,2.06524e-03,9.99999e-01,2.06524e-03,9.99999e-01
4.739211504e-01,2.33350e-03,9.99999e-01,2.33350e-03,9.99999e-01
4.762907561e-01,2.63024e-03,9.99999e-01,2.63024e-03,9.99999e-01
4.786722099e-01,2.95772e-03,9.99999e-01,2.95772e-03,9.99999e-01
4.810655710e-01,3.31827e-03,9.99999e-01,3.31827e-03,9.99999e-01
4.834708988e-01,3.71432e-03,9.99999e-01,3.71432e-03,9.99999e-01
4.858882533e-01,4.14840e-03,9.99999e-01,4.14840e-03,9.99999e-01
4.883176946e-01,4.62310e-03,9.99999e-01,4.62310e-03,9.99999e-01
4.907592831e-01,5.14111e-03,9.99999e-01,5.14111e-03,9.99999e-01
4.932130795e-01,5.70518e-03,9.99999e-01,5.70518e-03,9.99999e-01
4.956791449e-01,6.31813e-03,9.99999e-01,6.31813e-03,9.99999e-01
4.981575406e-01,6.98284e-03,9.99999e-01,6.98284e-03,9.99999e-01
5.006483283e-01,7.70225e-03,9.99999e-01,7.70225e-03,9.99999e-01
5.031515699e-01,8.47935e-03,9.99999e-01,8.47935e-03,9.99999e-01
5.056673278e-01,9.31713e-03,9.99999e-01,9.31713e-03,9.99999e-01
5.081956644e-01,1.02187e-02,9.99999e-01,1.02187e-02,9.99999e-01
5.107366428e-01,1.11870e-02,9.99999e-01,1.11870e-02,9.99999e-01
5.132903260e-01,1.22252e-02,9.99999e-01,1.22252e-02,9.99999e-01
5.158567776e-01,1.33364e-02,9.99999e-01,1.33364e-02,9.99999e-01
5.184360615e-01,1.45235e-02,9.99999e-01,1.45235e-02,9.99999e-01
5.210282418e-01,1.57898e-02,9.99999e-01,1.57898e-02,9.99999e-01
5.236333830e-01,1.71381e-02,9.99999e-01,1.71381e-02,9.99999e-01
5.262515499e-01,1.85715e-02,9.99999e-01,1.85715e-02,9.99999e-01
5.288828077e-01,2.00928e-02,9.99999e-01,2.00928e-02,9.99999e-01
5.315272217e-01,2.17050e-02,9.99999e-01,2.17050e-02,9.99999e-01
5.341848578e-01,2.34108e-02,9.99999e-01,2.34108e-02,9.99999e-01
5.368557821e-01,2.52130e-02,9.99999e-01,2.52130e-02,9.99999e-01
5.395400610e-01,2.71142e-02,9.99999e-01,2.71142e-02,9.99999e-01
5.422377613e-01,2.91169e-02,9.99999e-01,2.91169e-02,9.99999e-01
5.449489501e-01,3.12235e-02,9.99999e-01,3.12235e-02,9.99999e-01
5.476736949e-01,3.34364e-02,9.99999e-01,3.34364e-02,9.99999e-01
5.504120634e-01,3.57578e-02,9.99999e-01,3.57578e-02,9.99999e-01
5.531641237e-01,3.81896e-02,9.99999e-01,3.81896e-02,9.99999e-01
5.559299443e-01,4.07338e-02,9.99999e-01,4.07338e-02,9.99999e-01
5.587095940e-01,4.33922e-02,9.99999e-01,4.33922e-02,9.99999e-01
5.615031420e-01,4.61664e-02,9.99999e-01,4.61664e-02,9.99999e-01
5.643106577e-01,4.90579e-02,9.99999e-01,4.90579e-02,9.99999e-01
5.671322110e-01,5.20680e-02,9.99999e-01,5.20680e-02,9.99999e-01
5.699678720e-01,5.51978e-02,9.99999e-01,5.51978e-02,9.99999e-01
5.728177114e-01,5.84483e-02,9.99999e-01,5.84483e-02,9.99999e-01
5.756818000e-01,6.18203e-02,9.99999e-01,6.18203e-02,9.99999e-01
5.785602090e-01,6.53144e-02,9.99999e-01,6.53144e-02,9.99999e-01
5.814530100e-01,6.89312e-02,9.99999e-01,6.89312e-02,9.99999e-01
5.843602750e-01,7.26708e-02,9.99999e-01,7.26708e-02,9.99999e-01
5.872820764e-01,7.65334e-02,9.99999e-01,7.65334e-02,9.99999e-01
5.902184868e-01,8.05189e-02,9.99999e-01,8.05189e-02,9.99999e-01
5.931695792e-01,8.46270e-02,9.99999e-01,8.46270e-02,9.99999e-01
5.961354271e-01,8.88573e-02,9.99999e-01,8.88573e-02,9.99999e-01
5.991161043e-01,9.32093e-02,9.99999e-01,9.32093e-02,9.99999e-01
6.021116848e-01,9.76821e-02,9.99999e-01,9.76821e-02,9.99999e-01
6.051222432e-01,1.02275e-01,9.99999e-01,1.02275e-01,9.99999e-01
6.081478544e-01,1.06986e-01,9.99999e-01,1.06986e-01,9.99999e-01
6.111885937e-01,1.11815e-01,9.99999e-01,1.11815e-01,9.99999e-01
6.142445367e-01,1.16760e-01,9.99999e-01,1.16760e-01,9.99999e-01
6.173157594e-01,1.21820e-01,9.99999e-01,1.21820e-01,9.99999e-01
6.204023382e-01,1.26993e-01,9.99999e-01,1.26993e-01,9.99999e-01
6.235043498e-01,1.32276e-01,9.99999e-01,1.32276e-01,9.99999e-01
6.266218716e-01,1.37668e-01,9.99999e-01,1.37668e-01,9.99999e-01
6.297549810e-01,1.43167e-01,9.99999e-01,1.43167e-01,9.99999e-01
6.329037559e-01,1.48771e-01,9.99999e-01,1.48771e-01,9.99999e-01
6.360682746e-01,1.54477e-01,9.99999e-01,1.54477e-01,9.99999e-01
6.392486160e-01,1.60282e-01,9.99999e-01,1.60282e-01,9.99999e-01
6.424448591e-01,1.66184e-01,9.99999e-01,1.66184e-01,9.99999e-01
6.456570834e-01,1.72181e-01,9.99999e-01,1.72181e-01,9.99999e-01
6.488853688e-01,1.78269e-01,9.99999e-01,1.78269e-01,9.99999e-01
6.521297956e-01,1.84446e-01,9.99999e-01,1.84446e-01,9.99999e-01
6.553904446e-01,1.90709e-01,9.99999e-01,1.90709e-01,9.99999e-01
6.586673968e-01,1.97054e-01,9.99999e-01,1.97054e-01,9.99999e-01
6.619607338e-01,2.03479e-01,9.99999e-01,2.03479e-01,9.99999e-01
6.652705375e-01,2.09980e-01,9.99999e-01,2.09980e-01,9.99999e-01
6.685968902e-01,2.16554e-01,9.99999e-01,2.16554e-01,9.99999e-01
6.719398746e-01,2.23198e-01,9.99999e-01,2.23198e-01,9.99999e-01
6.752995740e-01,2.29909e-01,9.99999e-01,2.29909e-01,9.99999e-01
6.786760719e-01,2.36682e-01,9.99999e-01,2.36682e-01,9.99999e-01
6.820694522e-01,2.43516e-01,9.99999e-01,2.43516e-01,9.99999e-01
6.854797995e-01,2.50406e-01,9.99999e-01,2.50406e-01,9.99999e-01
6.889071985e-01,2.57350e-01,9.99999e-01,2.57350e-01,9.99999e-01
6.923517345e-01,2.64343e-01,9.99999e-01,2.64343e-01,9.99999e-01
6.958134932e-01,2.71382e-01,9.99999e-01,2.71382e-01,9.99999e-01
6.992925606e-01,2.78464e-01,9.99999e-01,2.78464e-01,9.99999e-01
7.027890234e-01,2.85585e-01,9.99999e-01,2.85585e-01,9.99999e-01
7.063029686e-01,2.92743e-01,9.99999e-01,2.92743e-01,9.99999e-01
7.098344834e-01,2.99933e-01,9.99999e-01,2.99933e-01,9.99999e-01
7.133836558e-01,3.07153e-01,9.99999e-01,3.07153e-01,9.99999e-01
7.169505741e-01,3.14399e-01,9.99999e-01,3.14399e-01,9.99999e-01
7.205353270e-01,3.21667e-01,9.99999e-01,3.21667e-01,9.99999e-01
7.241380036e-01,3.28955e-01,9.99999e-01,3.28955e-01,9.99999e-01
7.277586936e-01,3.36260e-01,9.99999e-01,3.36260e-01,9.99999e-01
7.313974871e-01,3.43577e-01,9.99999e-01,3.43577e-01,9.99999e-01
7.350544745e-01,3.50904e-01,9.99999e-01,3.50904e-01,9.99999e-01
7.387297469e-01,3.58238e-01,9.99999e-01,3.58238e-01,9.99999e-01
7.424233956e-01,3.65577e-01,9.99999e-01,3.65577e-01,9.99999e-01
7.461355126e-01,3.72916e-01,9.99999e-01,3.72916e-01,9.99999e-01
7.498661902e-01,3.80253e-01,9.99999e-01,3.80253e-01,9.99999e-01
7.536155211e-01,3.87585e-01,9.99999e-01,3.87585e-01,9.99999e-01
7.573835987e-01,3.94910e-01,9.99999e-01,3.94910e-01,9.99999e-01
7.611705167e-01,4.02224e-01,9.99999e-01,4.02224e-01,9.99999e-01
7.649763693e-01,4.09525e-01,9.99999e-01,4.09525e-01,9.99999e-01
7.688012511e-01,4.16811e-01,9.99999e-01,4.16811e-01,9.99999e-01
7.726452574e-01,4.24078e-01,9.99999e-01,4.24078e-01,9.99999e-01
7.765084837e-01,4.31325e-01,9.99999e-01,4.31325e-01,9.99999e-01
7.803910261e-01,4.22997e-01,9.64536e-01,4.38549e-01,9.99999e-01
7.842929812e-01,3.74169e-01,8.39417e-01,4.45748e-01,9.99999e-01
7.882144461e-01,3.76406e-01,8.31066e-01,4.52919e-01,9.99999e-01
7.921555184e-01,4.12853e-01,8.97386e-01,4.60061e-01,9.99999e-01
7.961162960e-01,4.34056e-01,9.29116e-01,4.67171e-01,9.99999e-01
8.000968774e-01,4.55772e-01,9.61043e-01,4.74247e-01,9.99999e-01
8.040973618e-01,4.71404e-01,9.79465e-01,4.81287e-01,9.99999e-01
8.081178486e-01,4.83697e-01,9.90595e-01,4.88289e-01,9.99999e-01
8.121584379e-01,4.93788e-01,9.97043e-01,4.95252e-01,9.99999e-01
8.162192301e-01,5.01846e-01,9.99345e-01,5.02174e-01,9.99999e-01
8.203003262e-01,5.09048e-01,9.99988e-01,5.09053e-01,9.99999e-01
8.244018279e-01,5.15888e-01,9.99999e-01,5.15888e-01,9.99999e-01
8.285238370e-01,5.22677e-01,9.99999e-01,5.22677e-01,9.99999e-01
8.326664562e-01,5.29418e-01,9.99999e-01,5.29418e-01,9.99999e-01
8.368297885e-01,5.36111e-01,9.99999e-01,5.36111e-01,9.99999e-01
8.410139374e-01,5.42753e-01,9.99999e-01,5.42753e-01,9.99999e-01
8.452190071e-01,5.49344e-01,9.99999e-01,5.49344e-01,9.99999e-01
8.494451021e-01,5.55883e-01,9.99999e-01,5.55883e-01,9.99999e-01
8.536923276e-01,5.62368e-01,9.99999e-01,5.62368e-01,9.99999e-01
8.579607893e-01,5.68798e-01,9.99999e-01,5.68798e-01,9.99999e-01
8.622505932e-01,5.75173e-01,9.99999e-01,5.75173e-01,9.99999e-01
8.665618462e-01,5.37414e-01,9.24199e-01,5.81491e-01,9.99999e-01
8.708946554e-01,3.79020e-01,6.44864e-01,5.87752e-01,9.99999e-01
8.752491287e-01,4.15523e-01,6.99588e-01,5.93954e-01,9.99999e-01
8.796253743e-01,4.92661e-01,8.20968e-01,6.00097e-01,9.99999e-01
8.840235012e-01,5.47223e-01,9.02738e-01,6.06181e-01,9.99999e-01
8.884436187e-01,5.87804e-01,9.60143e-01,6.12205e-01,9.99999e-01
8.928858368e-01,6.08123e-01,9.83750e-01,6.18167e-01,9.99999e-01
8.973502660e-01,6.21561e-01,9.95982e-01,6.24068e-01,9.99999e-01
9.018370173e-01,6.29627e-01,9.99554e-01,6.29907e-01,9.99999e-01
9.063462024e-01,6.28905e-01,9.89334e-01,6.35684e-01,9.99999e-01
9.108779334e-01,6.25083e-01,9.74561e-01,6.41399e-01,9.99999e-01
9.154323231e-01,6.43080e-01,9.93864e-01,6.47050e-01,9.99999e-01
9.200094847e-01,5.99750e-01,9.18962e-01,6.52638e-01,9.99999e-01
9.246095321e-01,5.80346e-01,8.81767e-01,6.58162e-01,9.99999e-01
9.292325798e-01,6.02497e-01,9.07889e-01,6.63623e-01,9.99999e-01
9.338787427e-01,6.08280e-01,9.09211e-01,6.69019e-01,9.99999e-01
9.385481364e-01,6.28788e-01,9.32432e-01,6.74352e-01,9.99999e-01
9.432408771e-01,6.50935e-01,9.57790e-01,6.79621e-01,9.99999e-01
9.479570815e-01,6.69923e-01,9.78239e-01,6.84825e-01,9.99999e-01
9.526968669e-01,6.82663e-01,9.89416e-01,6.89966e-01,9.99999e-01
9.574603512e-01,6.91883e-01,9.95455e-01,6.95042e-01,9.99999e-01
9.622476530e-01,6.99059e-01,9.98578e-01,7.00054e-01,9.99999e-01
9.670588912e-01,7.04701e-01,9.99571e-01,7.05002e-01,9.99999e-01
9.718941857e-01,7.09865e-01,9.99968e-01,7.09887e-01,9.99999e-01
9.767536566e-01,7.14708e-01,9.99999e-01,7.14708e-01,9.99999e-01
9.816374249e-01,7.19465e-01,9.99999e-01,7.19465e-01,9.99999e-01
9.865456120e-01,7.24160e-01,9.99999e-01,7.24160e-01,9.99999e-01
9.914783401e-01,7.28791e-01,9.99999e-01,7.28791e-01,9.99999e-01
9.964357318e-01,7.33359e-01,9.99999e-01,7.33359e-01,9.99999e-01
1.001417910e+00,7.37865e-01,9.99999e-01,7.37865e-01,9.99999e-01
1.006425000e+00,7.42309e-01,9.99999e-01,7.42309e-01,9.99999e-01
1.011457125e+00,7.46691e-01,9.99999e-01,7.46691e-01,9.99999e-01
1.016514411e+00,7.51012e-01,9.99999e-01,7.51012e-01,9.99999e-01
1.021596983e+00,7.55236e-01,9.99952e-01,7.55272e-01,9.99999e-01
1.026704968e+00,7.56320e-01,9.95850e-01,7.59471e-01,9.99999e-01
1.031838492e+00,7.30908e-01,9.57175e-01,7.63609e-01,9.99999e-01
1.036997685e+00,1.05516e-01,1.37447e-01,7.67688e-01,9.99999e-01
1.042182673e+00,6.81093e-02,8.82578e-02,7.71707e-01,9.99999e-01
1.047393587e+00,9.01321e-02,1.16199e-01,7.75668e-01,9.99999e-01
1.052630555e+00,1.57471e-03,2.01997e-03,7.79570e-01,9.99999e-01
1.057893707e+00,4.15383e-03,5.30221e-03,7.83413e-01,9.99999e-01
1.063183176e+00,1.63788e-02,2.08064e-02,7.87200e-01,9.99999e-01
1.068499092e+00,5.28240e-02,6.67872e-02,7.90929e-01,9.99999e-01
1.073841587e+00,1.42178e-01,1.78930e-01,7.94602e-01,9.99999e-01
1.079210795e+00,2.68488e-01,3.36358e-01,7.98219e-01,9.99999e-01
1.084606849e+00,4.38633e-01,5.47073e-01,8.01780e-01,9.99999e-01
1.090029883e+00,5.88957e-01,7.31363e-01,8.05286e-01,9.99999e-01
1.095480033e+00,6.92901e-01,8.56767e-01,8.08738e-01,9.99999e-01
1.100957433e+00,7.53840e-01,9.28218e-01,8.12136e-01,9.99999e-01
1.106462220e+00,7.90694e-01,9.69603e-01,8.15481e-01,9.99999e-01
1.111994531e+00,8.09462e-01,9.88626e-01,8.18774e-01,9.99999e-01
1.117554504e+00,8.19702e-01,9.97187e-01,8.22014e-01,9.99999e-01
1.123142276e+00,8.25048e-01,9.99812e-01,8.25202e-01,9.99999e-01
1.128757988e+00,8.28340e-01,9.99999e-01,8.28340e-01,9.99999e-01
1.134401778e+00,8.31427e-01,9.99999e-01,8.31427e-01,9.99999e-01
1.140073787e+00,8.34464e-01,9.99999e-01,8.34464e-01,9.99999e-01
1.145774156e+00,8.37452e-01,9.99999e-01,8.37452e-01,9.99999e-01
1.151503026e+00,8.40392e-01,9.99999e-01,8.40392e-01,9.99999e-01
1.157260541e+00,8.43283e-01,9.99999e-01,8.43283e-01,9.99999e-01
1.163046844e+00,8.46127e-01,9.99999e-01,8.46127e-01,9.99999e-01
1.168862078e+00,8.48924e-01,9.99999e-01,8.48924e-01,9.99999e-01
1.174706389e+00,8.51675e-01,9.99999e-01,8.51675e-01,9.99999e-01
1.180579921e+00,8.54380e-01,9.99999e-01,8.54380e-01,9.99999e-01
1.186482820e+00,8.57037e-01,9.99995e-01,8.57041e-01,9.99999e-01
1.192415234e+00,8.47162e-01,9.85465e-01,8.59656e-01,9.99999e-01
1.198377311e+00,4.82265e-01,5.59324e-01,8.62228e-01,9.99999e-01
1.204369197e+00,1.33206e-12,1.54039e-12,8.64756e-01,9.99999e-01
1.210391043e+00,1.00318e-46,1.15675e-46,8.67242e-01,9.99999e-01
1.216442998e+00,1.26718e-40,1.45706e-40,8.69685e-01,9.99999e-01
1.222525213e+00,4.91185e-40,5.63229e-40,8.72087e-01,9.99999e-01
1.228637839e+00,5.20967e-31,5.95767e-31,8.74448e-01,9.99999e-01
1.234781029e+00,6.89314e-24,7.86198e-24,8.76768e-01,9.99999e-01
1.240954934e+00,1.76389e-13,2.00659e-13,8.79049e-01,9.99999e-01
1.247159708e+00,7.91442e-09,8.98049e-09,8.81290e-01,9.99999e-01
1.253395507e+00,8.66249e-05,9.80482e-05,8.83492e-01,9.99999e-01
1.259662485e+00,3.00546e-03,3.39348e-03,8.85657e-01,9.99999e-01
1.265960797e+00,4.07213e-02,4.58684e-02,8.87783e-01,9.99999e-01
1.272290601e+00,2.16711e-01,2.43530e-01,8.89873e-01,9.99999e-01
1.278652054e+00,2.10875e-01,2.36427e-01,8.91926e-01,9.99999e-01
1.285045314e+00,4.53132e-03,5.06891e-03,8.93943e-01,9.99999e-01
1.291470541e+00,3.77690e-06,4.21564e-06,8.95925e-01,9.99999e-01
1.297927893e+00,2.30669e-03,2.56906e-03,8.97872e-01,9.99999e-01
1.304417533e+00,8.29087e-02,9.21427e-02,8.99785e-01,9.99999e-01
1.310939621e+00,2.12074e-02,2.35203e-02,9.01664e-01,9.99999e-01
1.317494319e+00,1.67415e-16,1.85294e-16,9.03509e-01,9.99999e-01
1.324081790e+00,2.42960e-11,2.68368e-11,9.05322e-01,9.99999e-01
1.330702199e+00,1.05288e-06,1.16070e-06,9.07102e-01,9.99999e-01
1.337355710e+00,1.62857e-06,1.79190e-06,9.08851e-01,9.99999e-01
1.344042489e+00,5.42441e-07,5.95717e-07,9.10568e-01,9.99999e-01
1.350762701e+00,6.07657e-07,6.66104e-07,9.12255e-01,9.99999e-01
1.357516515e+00,1.06645e-04,1.16691e-04,9.13911e-01,9.99999e-01
1.364304097e+00,2.35244e-03,2.56946e-03,9.15538e-01,9.99999e-01
1.371125618e+00,4.10395e-02,4.47475e-02,9.17135e-01,9.99999e-01
1.377981246e+00,7.11564e-02,7.74530e-02,9.18703e-01,9.99999e-01
1.384871152e+00,2.07514e-01,2.25499e-01,9.20243e-01,9.99999e-01
1.391795508e+00,2.32183e-01,2.51893e-01,9.21755e-01,9.99999e-01
1.398754485e+00,3.94005e-01,4.26763e-01,9.23240e-01,9.99999e-01
1.405748258e+00,4.93686e-01,5.33889e-01,9.24697e-01,9.99999e-01
1.412776999e+00,6.22530e-01,6.72185e-01,9.26128e-01,9.99999e-01
1.419840884e+00,5.67677e-01,6.12029e-01,9.27533e-01,9.99999e-01
1.426940089e+00,4.83256e-02,5.20238e-02,9.28912e-01,9.99999e-01
1.434074789e+00,0.00000e+00,0.00000e+00,9.30266e-01,9.99999e-01
1.441245163e+00,0.00000e+00,0.00000e+00,9.31596e-01,9.99999e-01
1.448451389e+00,0.00000e+00,0.00000e+00,9.32900e-01,9.99999e-01
1.455693646e+00,0.00000e+00,0.00000e+00,9.34181e-01,9.99999e-01
1.462972114e+00,8.92649e-183,9.54256e-183,9.35438e-01,9.99999e-01
1.470286975e+00,1.56476e-76,1.67055e-76,9.36672e-01,9.99999e-01
1.477638409e+00,1.58252e-48,1.68733e-48,9.37883e-01,9.99999e-01
1.485026601e+00,1.59508e-27,1.69857e-27,9.39072e-01,9.99999e-01
1.492451734e+00,1.86091e-23,1.97919e-23,9.40239e-01,9.99999e-01
1.499913993e+00,7.00549e-11,7.44168e-11,9.41384e-01,9.99999e-01
1.507413563e+00,1.23835e-09,1.31389e-09,9.42508e-01,9.99999e-01
1.514950631e+00,4.88108e-11,5.17277e-11,9.43611e-01,9.99999e-01
1.522525384e+00,7.92089e-35,8.38461e-35,9.44693e-01,9.99999e-01
1.530138011e+00,1.39566e-81,1.47570e-81,9.45755e-01,9.99999e-01
1.537788701e+00,1.20458e-60,1.27227e-60,9.46798e-01,9.99999e-01
1.545477645e+00,1.04661e-13,1.10423e-13,9.47821e-01,9.99999e-01
1.553205033e+00,9.81598e-10,1.03454e-09,9.48825e-01,9.99999e-01
1.560971058e+00,3.34790e-10,3.52481e-10,9.49810e-01,9.99999e-01
1.568775913e+00,4.67235e-205,4.91424e-205,9.50776e-01,9.99999e-01
1.576619793e+00,0.00000e+00,0.00000e+00,9.51725e-01,9.99999e-01
1.584502892e+00,4.25704e-262,4.46860e-262,9.52655e-01,9.99999e-01
1.592425406e+00,7.72512e-183,8.10127e-183,9.53568e-01,9.99999e-01
1.600387533e+00,2.56971e-294,2.69230e-294,9.54464e-01,9.99999e-01
1.608389471e+00,0.00000e+00,0.00000e+00,9.55343e-01,9.99999e-01
1.616431418e+00,0.00000e+00,0.00000e+00,9.56206e-01,9.99999e-01
1.624513575e+00,4.26904e-232,4.46061e-232,9.57052e-01,9.99999e-01
1.632636143e+00,1.52477e-172,1.59182e-172,9.57882e-01,9.99999e-01
1.640799324e+00,5.49845e-71,5.73533e-71,9.58697e-01,9.99999e-01
1.649003321e+00,5.54774e-71,5.78192e-71,9.59496e-01,9.99999e-01
1.657248337e+00,4.22652e-55,4.40134e-55,9.60280e-01,9.99999e-01
1.665534579e+00,1.85684e-55,1.93210e-55,9.61049e-01,9.99999e-01
1.673862252e+00,9.05789e-36,9.41761e-36,9.61803e-01,9.99999e-01
1.682231563e+00,4.30146e-25,4.46885e-25,9.62543e-01,9.99999e-01
1.690642721e+00,1.86745e-14,1.93865e-14,9.63269e-01,9.99999e-01
1.699095934e+00,2.15942e-09,2.24010e-09,9.63982e-01,9.99999e-01
1.707591414e+00,2.50622e-05,2.59798e-05,9.64680e-01,9.99999e-01
1.716129371e+00,2.55613e-03,2.64783e-03,9.65366e-01,9.99999e-01
1.724710018e+00,3.59472e-02,3.72110e-02,9.66038e-01,9.99999e-01
1.733333568e+00,1.14969e-01,1.18929e-01,9.66698e-01,9.99999e-01
1.742000236e+00,2.73739e-01,2.82980e-01,9.67345e-01,9.99999e-01
1.750710237e+00,5.99723e-03,6.19562e-03,9.67979e-01,9.99999e-01
1.759463788e+00,4.08603e-34,4.21848e-34,9.68602e-01,9.99999e-01
1.768261107e+00,9.29798e-36,9.59333e-36,9.69212e-01,9.99999e-01
1.777102413e+00,1.52495e-34,1.57242e-34,9.69811e-01,9.99999e-01
1.785987925e+00,1.05861e-32,1.09090e-32,9.70398e-01,9.99999e-01
1.794917864e+00,3.41946e-31,3.52167e-31,9.70974e-01,9.99999e-01
1.803892454e+00,3.97098e-30,4.08731e-30,9.71540e-01,9.99999e-01
1.812911916e+00,6.86621e-29,7.06332e-29,9.72094e-01,9.99999e-01
1.821976476e+00,5.10147e-29,5.24498e-29,9.72637e-01,9.99999e-01
1.831086358e+00,1.60499e-23,1.64924e-23,9.73170e-01,9.99999e-01
1.840241790e+00,4.74121e-20,4.86930e-20,9.73693e-01,9.99999e-01
1.849442999e+00,5.05775e-14,5.19166e-14,9.74206e-01,9.99999e-01
1.858690214e+00,4.87654e-13,5.00306e-13,9.74709e-01,9.99999e-01
1.867983665e+00,9.68404e-14,9.93028e-14,9.75202e-01,9.99999e-01
1.877323583e+00,2.25283e-64,2.30897e-64,9.75686e-01,9.99999e-01
