#,Wave/freq,Total,CO2,Rayleigh,CIA
4.000000000e-01,1.16582e-02,9.99999e-01,1.16582e-02,9.99999e-01
4.020000000e-01,1.27309e-02,9.99999e-01,1.27309e-02,9.99999e-01
4.040100000e-01,1.38770e-02,9.99999e-01,1.38770e-02,9.99999e-01
4.060300500e-01,1.51004e-02,9.99999e-01,1.51004e-02,9.99999e-01
4.080602003e-01,1.64043e-02,9.99999e-01,1.64043e-02,9.99999e-01
4.101005013e-01,1.77917e-02,9.99999e-01,1.77917e-02,9.99999e-01
4.121510038e-01,1.92655e-02,9.99999e-01,1.92655e-02,9.99999e-01
4.142117588e-01,2.08286e-02,9.99999e-01,2.08286e-02,9.99999e-01
4.162828176e-01,2.24838e-02,9.99999e-01,2.24838e-02,9.99999e-01
4.183642317e-01,2.42340e-02,9.99999e-01,2.42340e-02,9.99999e-01
4.204560528e-01,2.60817e-02,9.99999e-01,2.60817e-02,9.99999e-01
4.225583331e-01,2.80296e-02,9.99999e-01,2.80296e-02,9.99999e-01
4.246711247e-01,3.00802e-02,9.99999e-01,3.00802e-02,9.99999e-01
4.267944804e-01,3.22358e-02,9.99999e-01,3.22358e-02,9.99999e-01
4.289284528e-01,3.44987e-02,9.99999e-01,3.44987e-02,9.99999e-01
4.310730950e-01,3.68710e-02,9.99999e-01,3.68710e-02,9.99999e-01
4.332284605e-01,3.93547e-02,9.99999e-01,3.93547e-02,9.99999e-01
4.353946028e-01,4.19516e-02,9.99999e-01,4.19516e-02,9.99999e-01
4.375715758e-01,4.46635e-02,9.99999e-01,4.46635e-02,9.99999e-01
4.397594337e-01,4.74919e-02,9.99999e-01,4.74919e-02,9.99999e-01
4.419582309e-01,5.04382e-02,9.99999e-01,5.04382e-02,9.99999e-01
4.441680220e-01,5.35036e-02,9.99999e-01,5.35036e-02,9.99999e-01
4.463888621e-01,5.66893e-02,9.99999e-01,5.66893e-02,9.99999e-01
4.486208064e-01,5.99960e-02,9.99999e-01,5.99960e-02,9.99999e-01
4.508639105e-01,6.34245e-02,9.99999e-01,6.34245e-02,9.99999e-01
4.531182300e-01,6.69755e-02,9.99999e-01,6.69755e-02,9.99999e-01
4.553838212e-01,7.06491e-02,9.99999e-01,7.06491e-02,9.99999e-01
4.576607403e-01,7.44457e-02,9.99999e-01,7.44457e-02,9.99999e-01
4.599490440e-01,7.83653e-02,9.99999e-01,7.83653e-02,9.99999e-01
4.622487892e-01,8.24076e-02,9.99999e-01,8.24076e-02,9.99999e-01
4.645600332e-01,8.65725e-02,9.99999e-01,8.65725e-02,9.99999e-01
4.668828333e-01,9.08593e-02,9.99999e-01,9.08593e-02,9.99999e-01
4.692172475e-01,9.52673e-02,9.99999e-01,9.52673e-02,9.99999e-01
4.715633337e-01,9.97958e-02,9.99999e-01,9.97958e-02,9.99999e-01
4.739211504e-01,1.04444e-01,9.99999e-01,1.04444e-01,9.99999e-01
4.762907561e-01,1.09210e-01,9.99999e-01,1.09210e-01,9.99999e-01
4.786722099e-01,1.14093e-01,9.99999e-01,1.14093e-01,9.99999e-01
4.810655710e-01,1.19091e-01,9.99999e-01,1.19091e-01,9.99999e-01
4.834708988e-01,1.24203e-01,9.99999e-01,1.24203e-01,9.99999e-01
4.858882533e-01,1.29428e-01,9.99999e-01,1.29428e-01,9.99999e-01
4.883176946e-01,1.34762e-01,9.99999e-01,1.34762e-01,9.99999e-01
4.907592831e-01,1.40204e-01,9.99999e-01,1.40204e-01,9.99999e-01
4.932130795e-01,1.45752e-01,9.99999e-01,1.45752e-01,9.99999e-01
4.956791449e-01,1.51403e-01,9.99999e-01,1.51403e-01,9.99999e-01
4.981575406e-01,1.57155e-01,9.99999e-01,1.57155e-01,9.99999e-01
5.006483283e-01,1.63006e-01,9.99999e-01,1.63006e-01,9.99999e-01
5.031515699e-01,1.68952e-01,9.99999e-01,1.68952e-01,9.99999e-01
5.056673278e-01,1.74992e-01,9.99999e-01,1.74992e-01,9.99999e-01
5.081956644e-01,1.81121e-01,9.99999e-01,1.81121e-01,9.99999e-01
5.107366428e-01,1.87338e-01,9.99999e-01,1.87338e-01,9.99999e-01
5.132903260e-01,1.93639e-01,9.99999e-01,1.93639e-01,9.99999e-01
5.158567776e-01,2.00022e-01,9.99999e-01,2.00022e-01,9.99999e-01
5.184360615e-01,2.06482e-01,9.99999e-01,2.06482e-01,9.99999e-01
5.210282418e-01,2.13018e-01,9.99999e-01,2.13018e-01,9.99999e-01
5.236333830e-01,2.19625e-01,9.99999e-01,2.19625e-01,9.99999e-01
5.262515499e-01,2.26300e-01,9.99999e-01,2.26300e-01,9.99999e-01
5.288828077e-01,2.33040e-01,9.99999e-01,2.33040e-01,9.99999e-01
5.315272217e-01,2.39842e-01,9.99999e-01,2.39842e-01,9.99999e-01
5.341848578e-01,2.46703e-01,9.99999e-01,2.46703e-01,9.99999e-01
5.368557821e-01,2.53618e-01,9.99999e-01,2.53618e-01,9.99999e-01
5.395400610e-01,2.60585e-01,9.99999e-01,2.60585e-01,9.99999e-01
5.422377613e-01,2.67600e-01,9.99999e-01,2.67600e-01,9.99999e-01
5.449489501e-01,2.74659e-01,9.99999e-01,2.74659e-01,9.99999e-01
5.476736949e-01,2.81760e-01,9.99999e-01,2.81760e-01,9.99999e-01
5.504120634e-01,2.88899e-01,9.99999e-01,2.88899e-01,9.99999e-01
5.531641237e-01,2.96072e-01,9.99999e-01,2.96072e-01,9.99999e-01
5.559299443e-01,3.03276e-01,9.99999e-01,3.03276e-01,9.99999e-01
5.587095940e-01,3.10508e-01,9.99999e-01,3.10508e-01,9.99999e-01
5.615031420e-01,3.17765e-01,9.99999e-01,3.17765e-01,9.99999e-01
5.643106577e-01,3.25043e-01,9.99999e-01,3.25043e-01,9.99999e-01
5.671322110e-01,3.32339e-01,9.99999e-01,3.32339e-01,9.99999e-01
5.699678720e-01,3.39649e-01,9.99999e-01,3.39649e-01,9.99999e-01
5.728177114e-01,3.46972e-01,9.99999e-01,3.46972e-01,9.99999e-01
5.756818000e-01,3.54303e-01,9.99999e-01,3.54303e-01,9.99999e-01
5.785602090e-01,3.61639e-01,9.99999e-01,3.61639e-01,9.99999e-01
5.814530100e-01,3.68978e-01,9.99999e-01,3.68978e-01,9.99999e-01
5.843602750e-01,3.76317e-01,9.99999e-01,3.76317e-01,9.99999e-01
5.872820764e-01,3.83652e-01,9.99999e-01,3.83652e-01,9.99999e-01
5.902184868e-01,3.90981e-01,9.99999e-01,3.90981e-01,9.99999e-01
5.931695792e-01,3.98301e-01,9.99999e-01,3.98301e-01,9.99999e-01
5.961354271e-01,4.05610e-01,9.99999e-01,4.05610e-01,9.99999e-01
5.991161043e-01,4.12904e-01,9.99999e-01,4.12904e-01,9.99999e-01
6.021116848e-01,4.20182e-01,9.99999e-01,4.20182e-01,9.99999e-01
6.051222432e-01,4.27440e-01,9.99999e-01,4.27440e-01,9.99999e-01
6.081478544e-01,4.34677e-01,9.99999e-01,4.34677e-01,9.99999e-01
6.111885937e-01,4.41889e-01,9.99999e-01,4.41889e-01,9.99999e-01
6.142445367e-01,4.49075e-01,9.99999e-01,4.49075e-01,9.99999e-01
6.173157594e-01,4.56233e-01,9.99999e-01,4.56233e-01,9.99999e-01
6.204023382e-01,4.63360e-01,9.99999e-01,4.63360e-01,9.99999e-01
6.235043498e-01,4.70455e-01,9.99999e-01,4.70455e-01,9.99999e-01
6.266218716e-01,4.77514e-01,9.99999e-01,4.77514e-01,9.99999e-01
6.297549810e-01,4.84537e-01,9.99999e-01,4.84537e-01,9.99999e-01
6.329037559e-01,4.91522e-01,9.99999e-01,4.91522e-01,9.99999e-01
6.360682746e-01,4.98466e-01,9.99999e-01,4.98466e-01,9.99999e-01
6.392486160e-01,5.05368e-01,9.99999e-01,5.05368e-01,9.99999e-01
6.424448591e-01,5.12227e-01,9.99999e-01,5.12227e-01,9.99999e-01
6.456570834e-01,5.19040e-01,9.99999e-01,5.19040e-01,9.99999e-01
6.488853688e-01,5.25807e-01,9.99999e-01,5.25807e-01,9.99999e-01
6.521297956e-01,5.32526e-01,9.99999e-01,5.32526e-01,9.99999e-01
6.553904446e-01,5.39196e-01,9.99999e-01,5.39196e-01,9.99999e-01
6.586673968e-01,5.45814e-01,9.99999e-01,5.45814e-01,9.99999e-01
6.619607338e-01,5.52381e-01,9.99999e-01,5.52381e-01,9.99999e-01
6.652705375e-01,5.58895e-01,9.99999e-01,5.58895e-01,9.99999e-01
6.685968902e-01,5.65355e-01,9.99999e-01,5.65355e-01,9.99999e-01
6.719398746e-01,5.71760e-01,9.99999e-01,5.71760e-01,9.99999e-01
6.752995740e-01,5.78108e-01,9.99999e-01,5.78108e-01,9.99999e-01
6.786760719e-01,5.84400e-01,9.99999e-01,5.84400e-01,9.99999e-01
6.820694522e-01,5.90634e-01,9.99999e-01,5.90634e-01,9.99999e-01
6.854797995e-01,5.96809e-01,9.99999e-01,5.96809e-01,9.99999e-01
6.889071985e-01,6.02925e-01,9.99999e-01,6.02925e-01,9.99999e-01
6.923517345e-01,6.08980e-01,9.99999e-01,6.08980e-01,9.99999e-01
6.958134932e-01,6.14976e-01,9.99999e-01,6.14976e-01,9.99999e-01
6.992925606e-01,6.20910e-01,9.99999e-01,6.20910e-01,9.99999e-01
7.027890234e-01,6.26782e-01,9.99999e-01,6.26782e-01,9.99999e-01
7.063029686e-01,6.32593e-01,9.99999e-01,6.32593e-01,9.99999e-01
7.098344834e-01,6.38341e-01,9.99999e-01,6.38341e-01,9.99999e-01
7.133836558e-01,6.44026e-01,9.99999e-01,6.44026e-01,9.99999e-01
7.169505741e-01,6.49647e-01,9.99999e-01,6.49647e-01,9.99999e-01
7.205353270e-01,6.55206e-01,9.99999e-01,6.55206e-01,9.99999e-01
7.241380036e-01,6.60701e-01,9.99999e-01,6.60701e-01,9.99999e-01
7.277586936e-01,6.66132e-01,9.99999e-01,6.66132e-01,9.99999e-01
7.313974871e-01,6.71499e-01,9.99999e-01,6.71499e-01,9.99999e-01
7.350544745e-01,6.76802e-01,9.99999e-01,6.76802e-01,9.99999e-01
7.387297469e-01,6.82041e-01,9.99999e-01,6.82041e-01,9.99999e-01
7.424233956e-01,6.87216e-01,9.99999e-01,6.87216e-01,9.99999e-01
7.461355126e-01,6.92326e-01,9.99999e-01,6.92326e-01,9.99999e-01
7.498661902e-01,6.97373e-01,9.99999e-01,6.97373e-01,9.99999e-01
7.536155211e-01,7.02355e-01,9.99999e-01,7.02355e-01,9.99999e-01
7.573835987e-01,7.07274e-01,9.99999e-01,7.07274e-01,9.99999e-01
7.611705167e-01,7.12129e-01,9.99999e-01,7.12129e-01,9.99999e-01
7.649763693e-01,7.16921e-01,9.99999e-01,7.16921e-01,9.99999e-01
7.688012511e-01,7.21649e-01,9.99999e-01,7.21649e-01,9.99999e-01
7.726452574e-01,7.26314e-01,9.99999e-01,7.26314e-01,9.99999e-01
7.765084837e-01,7.30916e-01,9.99999e-01,7.30916e-01,9.99999e-01
7.803910261e-01,7.24958e-01,9.85726e-01,7.35456e-01,9.99999e-01
7.842929812e-01,6.92112e-01,9.35370e-01,7.39933e-01,9.99999e-01
7.882144461e-01,6.93364e-01,9.31504e-01,7.44348e-01,9.99999e-01
7.921555184e-01,7.18904e-01,9.60201e-01,7.48702e-01,9.99999e-01
7.961162960e-01,7.32588e-01,9.72899e-01,7.52994e-01,9.99999e-01
8.000968774e-01,7.46075e-01,9.85274e-01,7.57225e-01,9.99999e-01
8.040973618e-01,7.55526e-01,9.92289e-01,7.61396e-01,9.99999e-01
8.081178486e-01,7.62815e-01,9.96482e-01,7.65507e-01,9.99999e-01
8.121584379e-01,7.68709e-01,9.98896e-01,7.69558e-01,9.99999e-01
8.162192301e-01,7.73362e-01,9.99755e-01,7.73550e-01,9.99999e-01
8.203003262e-01,7.77480e-01,9.99995e-01,7.77483e-01,9.99999e-01
8.244018279e-01,7.81358e-01,9.99999e-01,7.81358e-01,9.99999e-01
8.285238370e-01,7.85175e-01,9.99999e-01,7.85175e-01,9.99999e-01
8.326664562e-01,7.88935e-01,9.99999e-01,7.88935e-01,9.99999e-01
8.368297885e-01,7.92638e-01,9.99999e-01,7.92638e-01,9.99999e-01
8.410139374e-01,7.96285e-01,9.99999e-01,7.96285e-01,9.99999e-01
8.452190071e-01,7.99876e-01,9.99999e-01,7.99876e-01,9.99999e-01
8.494451021e-01,8.03412e-01,9.99999e-01,8.03412e-01,9.99999e-01
8.536923276e-01,8.06893e-01,9.99999e-01,8.06893e-01,9.99999e-01
8.579607893e-01,8.10320e-01,9.99999e-01,8.10320e-01,9.99999e-01
8.622505932e-01,8.13693e-01,9.99999e-01,8.13693e-01,9.99999e-01
8.665618462e-01,7.85058e-01,9.60887e-01,8.17014e-01,9.99999e-01
8.708946554e-01,6.91241e-01,8.42687e-01,8.20282e-01,9.99999e-01
8.752491287e-01,7.18222e-01,8.72159e-01,8.23498e-01,9.99999e-01
8.796253743e-01,7.67407e-01,9.28319e-01,8.26663e-01,9.99999e-01
8.840235012e-01,7.98599e-01,9.62425e-01,8.29777e-01,9.99999e-01
8.884436187e-01,8.20289e-01,9.84928e-01,8.32841e-01,9.99999e-01
8.928858368e-01,8.30763e-01,9.93907e-01,8.35855e-01,9.99999e-01
8.973502660e-01,8.37563e-01,9.98499e-01,8.38821e-01,9.99999e-01
9.018370173e-01,8.41598e-01,9.99833e-01,8.41738e-01,9.99999e-01
9.063462024e-01,8.41215e-01,9.95982e-01,8.44607e-01,9.99999e-01
9.108779334e-01,8.39317e-01,9.90426e-01,8.47430e-01,9.99999e-01
9.154323231e-01,8.48255e-01,9.97705e-01,8.50205e-01,9.99999e-01
9.200094847e-01,8.25124e-01,9.67393e-01,8.52935e-01,9.99999e-01
9.246095321e-01,8.16264e-01,9.54003e-01,8.55619e-01,9.99999e-01
9.292325798e-01,8.27586e-01,9.64261e-01,8.58258e-01,9.99999e-01
9.338787427e-01,8.30656e-01,9.64921e-01,8.60853e-01,9.99999e-01
9.385481364e-01,8.41116e-01,9.74184e-01,8.63405e-01,9.99999e-01
9.432408771e-01,8.52094e-01,9.84039e-01,8.65913e-01,9.99999e-01
9.479570815e-01,8.61284e-01,9.91828e-01,8.68379e-01,9.99999e-01
9.526968669e-01,8.67354e-01,9.96038e-01,8.70803e-01,9.99999e-01
9.574603512e-01,8.71704e-01,9.98302e-01,8.73186e-01,9.99999e-01
9.622476530e-01,8.75064e-01,9.99469e-01,8.75528e-01,9.99999e-01
9.670588912e-01,8.77690e-01,9.99839e-01,8.77830e-01,9.99999e-01
9.718941857e-01,8.80082e-01,9.99987e-01,8.80092e-01,9.99999e-01
9.767536566e-01,8.82315e-01,9.99999e-01,8.82315e-01,9.99999e-01
9.816374249e-01,8.84500e-01,9.99999e-01,8.84500e-01,9.99999e-01
9.865456120e-01,8.86647e-01,9.99999e-01,8.86647e-01,9.99999e-01
9.914783401e-01,8.88756e-01,9.99999e-01,8.88756e-01,9.99999e-01
9.964357318e-01,8.90829e-01,9.99999e-01,8.90829e-01,9.99999e-01
1.001417910e+00,8.92866e-01,9.99999e-01,8.92866e-01,9.99999e-01
1.006425000e+00,8.94866e-01,9.99999e-01,8.94866e-01,9.99999e-01
1.011457125e+00,8.96832e-01,9.99999e-01,8.96832e-01,9.99999e-01
1.016514411e+00,8.98763e-01,9.99999e-01,8.98763e-01,9.99999e-01
1.021596983e+00,9.00644e-01,9.99981e-01,9.00660e-01,9.99999e-01
1.026704968e+00,9.01122e-01,9.98447e-01,9.02523e-01,9.99999e-01
1.031838492e+00,8.85578e-01,9.79239e-01,9.04353e-01,9.99999e-01
1.036997685e+00,2.87533e-01,3.17312e-01,9.06151e-01,9.99999e-01
1.042182673e+00,3.45532e-01,3.80576e-01,9.07916e-01,9.99999e-01
1.047393587e+00,3.21492e-01,3.53424e-01,9.09651e-01,9.99999e-01
1.052630555e+00,5.76801e-02,6.32905e-02,9.11354e-01,9.99999e-01
1.057893707e+00,1.02963e-01,1.12771e-01,9.13026e-01,9.99999e-01
1.063183176e+00,1.89608e-01,2.07297e-01,9.14669e-01,9.99999e-01
1.068499092e+00,3.23984e-01,3.53586e-01,9.16281e-01,9.99999e-01
1.073841587e+00,4.74538e-01,5.17002e-01,9.17865e-01,9.99999e-01
1.079210795e+00,6.07077e-01,6.60282e-01,9.19420e-01,9.99999e-01
1.084606849e+00,7.33931e-01,7.96929e-01,9.20947e-01,9.99999e-01
1.090029883e+00,8.20423e-01,8.89398e-01,9.22447e-01,9.99999e-01
1.095480033e+00,8.71996e-01,9.43800e-01,9.23919e-01,9.99999e-01
1.100957433e+00,8.99984e-01,9.72572e-01,9.25364e-01,9.99999e-01
1.106462220e+00,9.16170e-01,9.88548e-01,9.26783e-01,9.99999e-01
1.111994531e+00,9.24225e-01,9.95742e-01,9.28176e-01,9.99999e-01
1.117554504e+00,9.28568e-01,9.98950e-01,9.29543e-01,9.99999e-01
1.123142276e+00,9.30821e-01,9.99929e-01,9.30886e-01,9.99999e-01
1.128757988e+00,9.32203e-01,9.99999e-01,9.32203e-01,9.99999e-01
1.134401778e+00,9.33497e-01,9.99999e-01,9.33497e-01,9.99999e-01
1.140073787e+00,9.34767e-01,9.99999e-01,9.34767e-01,9.99999e-01
1.145774156e+00,9.36013e-01,9.99999e-01,9.36013e-01,9.99999e-01
1.151503026e+00,9.37236e-01,9.99999e-01,9.37236e-01,9.99999e-01
1.157260541e+00,9.38437e-01,9.99999e-01,9.38437e-01,9.99999e-01
1.163046844e+00,9.39616e-01,9.99999e-01,9.39616e-01,9.99999e-01
1.168862078e+00,9.40772e-01,9.99999e-01,9.40772e-01,9.99999e-01
1.174706389e+00,9.41908e-01,9.99999e-01,9.41908e-01,9.99999e-01
1.180579921e+00,9.43022e-01,9.99999e-01,9.43022e-01,9.99999e-01
1.186482820e+00,9.44114e-01,9.99998e-01,9.44115e-01,9.99999e-01
1.192415234e+00,9.39972e-01,9.94480e-01,9.45188e-01,9.99999e-01
1.198377311e+00,5.63359e-01,5.95364e-01,9.46241e-01,9.99999e-01
1.204369197e+00,4.19105e-06,4.42432e-06,9.47274e-01,9.99999e-01
1.210391043e+00,7.89967e-19,8.33044e-19,9.48288e-01,9.99999e-01
1.216442998e+00,1.51889e-16,1.60004e-16,9.49284e-01,9.99999e-01
1.222525213e+00,2.75991e-16,2.90438e-16,9.50260e-01,9.99999e-01
1.228637839e+00,1.65515e-12,1.74003e-12,9.51218e-01,9.99999e-01
1.234781029e+00,5.76116e-10,6.05063e-10,9.52158e-01,9.99999e-01
1.240954934e+00,4.89213e-06,5.13296e-06,9.53081e-01,9.99999e-01
1.247159708e+00,5.51850e-04,5.78467e-04,9.53986e-01,9.99999e-01
1.253395507e+00,2.30600e-02,2.41497e-02,9.54874e-01,9.99999e-01
1.259662485e+00,9.73770e-02,1.01886e-01,9.55745e-01,9.99999e-01
1.265960797e+00,2.80089e-01,2.92796e-01,9.56600e-01,9.99999e-01
1.272290601e+00,5.57604e-01,5.82391e-01,9.57439e-01,9.99999e-01
1.278652054e+00,5.26772e-01,5.49716e-01,9.58262e-01,9.99999e-01
1.285045314e+00,5.35363e-02,5.58210e-02,9.59069e-01,9.99999e-01
1.291470541e+00,6.84963e-03,7.13606e-03,9.59861e-01,9.99999e-01
1.297927893e+00,5.59530e-02,5.82456e-02,9.60638e-01,9.99999e-01
1.304417533e+00,3.88053e-01,4.03633e-01,9.61400e-01,9.99999e-01
1.310939621e+00,1.20113e-01,1.24839e-01,9.62148e-01,9.99999e-01
1.317494319e+00,6.86102e-07,7.12550e-07,9.62882e-01,9.99999e-01
1.324081790e+00,3.45772e-05,3.58833e-05,9.63601e-01,9.99999e-01
1.330702199e+00,4.59458e-03,4.76464e-03,9.64307e-01,9.99999e-01
1.337355710e+00,3.06024e-03,3.17123e-03,9.65000e-01,9.99999e-01
1.344042489e+00,1.21482e-03,1.25800e-03,9.65679e-01,9.99999e-01
1.350762701e+00,3.59413e-03,3.71930e-03,9.66345e-01,9.99999e-01
1.357516515e+00,2.36921e-02,2.45006e-02,9.66999e-01,9.99999e-01
1.364304097e+00,9.82986e-02,1.01586e-01,9.67640e-01,9.99999e-01
1.371125618e+00,2.86611e-01,2.96003e-01,9.68269e-01,9.99999e-01
1.377981246e+00,3.70269e-01,3.82159e-01,9.68886e-01,9.99999e-01
1.384871152e+00,5.53133e-01,5.70539e-01,9.69491e-01,9.99999e-01
1.391795508e+00,5.77791e-01,5.95608e-01,9.70085e-01,9.99999e-01
1.398754485e+00,7.06188e-01,7.27529e-01,9.70667e-01,9.99999e-01
1.405748258e+00,7.67552e-01,7.90282e-01,9.71238e-01,9.99999e-01
1.412776999e+00,8.37718e-01,8.62028e-01,9.71798e-01,9.99999e-01
1.419840884e+00,7.87224e-01,8.09611e-01,9.72347e-01,9.99999e-01
1.426940089e+00,1.11421e-01,1.14527e-01,9.72886e-01,9.99999e-01
1.434074789e+00,1.13263e-261,1.16356e-261,9.73414e-01,9.99999e-01
1.441245163e+00,0.00000e+00,0.00000e+00,9.73932e-01,9.99999e-01
1.448451389e+00,3.18228e-317,3.26575e-317,9.74441e-01,9.99999e-01
1.455693646e+00,3.60461e-142,3.69727e-142,9.74939e-01,9.99999e-01
1.462972114e+00,1.51448e-69,1.55263e-69,9.75428e-01,9.99999e-01
1.470286975e+00,6.12227e-30,6.27341e-30,9.75907e-01,9.99999e-01
1.477638409e+00,1.79853e-19,1.84204e-19,9.76378e-01,9.99999e-01
1.485026601e+00,1.62011e-11,1.65852e-11,9.76839e-01,9.99999e-01
1.492451734e+00,8.77278e-10,8.97662e-10,9.77291e-01,9.99999e-01
1.499913993e+00,3.11516e-05,3.18610e-05,9.77734e-01,9.99999e-01
1.507413563e+00,4.11995e-04,4.21189e-04,9.78169e-01,9.99999e-01
1.514950631e+00,1.89177e-05,1.93315e-05,9.78596e-01,9.99999e-01
1.522525384e+00,2.20292e-14,2.25014e-14,9.79014e-01,9.99999e-01
1.530138011e+00,1.14494e-31,1.16899e-31,9.79424e-01,9.99999e-01
1.537788701e+00,7.06771e-24,7.21321e-24,9.79827e-01,9.99999e-01
1.545477645e+00,1.62163e-06,1.65435e-06,9.80221e-01,9.99999e-01
1.553205033e+00,3.20191e-04,3.26523e-04,9.80608e-01,9.99999e-01
1.560971058e+00,9.00669e-05,9.18124e-05,9.80987e-01,9.99999e-01
1.568775913e+00,7.49175e-78,7.63405e-78,9.81359e-01,9.99999e-01
1.576619793e+00,1.37058e-180,1.39609e-180,9.81724e-01,9.99999e-01
1.584502892e+00,4.08859e-99,4.16318e-99,9.82082e-01,9.99999e-01
1.592425406e+00,2.19983e-69,2.23916e-69,9.82433e-01,9.99999e-01
1.600387533e+00,3.99067e-111,4.06060e-111,9.82777e-01,9.99999e-01
1.608389471e+00,8.27461e-186,8.41673e-186,9.83114e-01,9.99999e-01
1.616431418e+00,5.67633e-187,5.77187e-187,9.83445e-01,9.99999e-01
1.624513575e+00,6.23778e-88,6.34069e-88,9.83769e-01,9.99999e-01
1.632636143e+00,1.06485e-65,1.08206e-65,9.84087e-01,9.99999e-01
1.640799324e+00,7.13512e-28,7.24820e-28,9.84399e-01,9.99999e-01
1.649003321e+00,9.13263e-28,9.27448e-28,9.84705e-01,9.99999e-01
1.657248337e+00,8.76481e-22,8.89824e-22,9.85004e-01,9.99999e-01
1.665534579e+00,6.49759e-22,6.59454e-22,9.85298e-01,9.99999e-01
1.673862252e+00,1.43255e-14,1.45349e-14,9.85587e-01,9.99999e-01
1.682231563e+00,1.63237e-10,1.65576e-10,9.85869e-01,9.99999e-01
1.690642721e+00,1.38909e-06,1.40860e-06,9.86147e-01,9.99999e-01
1.699095934e+00,2.64733e-04,2.68378e-04,9.86418e-01,9.99999e-01
1.707591414e+00,1.19010e-02,1.20616e-02,9.86685e-01,9.99999e-01
1.716129371e+00,9.10302e-02,9.22341e-02,9.86946e-01,9.99999e-01
1.724710018e+00,2.78343e-01,2.81951e-01,9.87202e-01,9.99999e-01
1.733333568e+00,4.41683e-01,4.47294e-01,9.87453e-01,9.99999e-01
1.742000236e+00,5.99511e-01,6.06976e-01,9.87700e-01,9.99999e-01
1.750710237e+00,5.10051e-02,5.16276e-02,9.87941e-01,9.99999e-01
1.759463788e+00,8.80867e-14,8.91405e-14,9.88178e-01,9.99999e-01
1.768261107e+00,1.00046e-14,1.01219e-14,9.88410e-01,9.99999e-01
1.777102413e+00,1.19079e-13,1.20447e-13,9.88638e-01,9.99999e-01
1.785987925e+00,2.05973e-13,2.08293e-13,9.88861e-01,9.99999e-01
1.794917864e+00,1.73360e-12,1.75274e-12,9.89080e-01,9.99999e-01
1.803892454e+00,1.38838e-12,1.40341e-12,9.89294e-01,9.99999e-01
1.812911916e+00,7.78588e-12,7.86845e-12,9.89504e-01,9.99999e-01
1.821976476e+00,4.22717e-12,4.27112e-12,9.89711e-01,9.99999e-01
1.831086358e+00,5.21921e-10,5.27239e-10,9.89913e-01,9.99999e-01
1.840241790e+00,1.90444e-08,1.92346e-08,9.90111e-01,9.99999e-01
1.849442999e+00,5.21040e-06,5.26140e-06,9.90305e-01,9.99999e-01
1.858690214e+00,2.21178e-05,2.23300e-05,9.90496e-01,9.99999e-01
1.867983665e+00,3.99334e-06,4.03089e-06,9.90683e-01,9.99999e-01
1.877323583e+00,3.09319e-25,3.12170e-25,9.90866e-01,9.99999e-01
