#,Wave/freq,Total,CO2,Rayleigh,CIA
4.000000000e-01,9.54178e-10,9.99999e-01,9.54178e-10,9.99999e-01
4.020000000e-01,1.43878e-09,9.99999e-01,1.43878e-09,9.99999e-01
4.040100000e-01,2.15103e-09,9.99999e-01,2.15103e-09,9.99999e-01
4.060300500e-01,3.19042e-09,9.99999e-01,3.19042e-09,9.99999e-01
4.080602003e-01,4.69535e-09,9.99999e-01,4.69535e-09,9.99999e-01
4.101005013e-01,6.85762e-09,9.99999e-01,6.85762e-09,9.99999e-01
4.121510038e-01,9.94098e-09,9.99999e-01,9.94098e-09,9.99999e-01
4.142117588e-01,1.43054e-08,9.99999e-01,1.43054e-08,9.99999e-01
4.162828176e-01,2.04385e-08,9.99999e-01,2.04385e-08,9.99999e-01
4.183642317e-01,2.89959e-08,9.99999e-01,2.89959e-08,9.99999e-01
4.204560528e-01,4.08529e-08,9.99999e-01,4.08529e-08,9.99999e-01
4.225583331e-01,5.71702e-08,9.99999e-01,5.71702e-08,9.99999e-01
4.246711247e-01,7.94756e-08,9.99999e-01,7.94756e-08,9.99999e-01
4.267944804e-01,1.09767e-07,9.99999e-01,1.09767e-07,9.99999e-01
4.289284528e-01,1.50640e-07,9.99999e-01,1.50640e-07,9.99999e-01
4.310730950e-01,2.05443e-07,9.99999e-01,2.05443e-07,9.99999e-01
4.332284605e-01,2.78473e-07,9.99999e-01,2.78473e-07,9.99999e-01
4.353946028e-01,3.75202e-07,9.99999e-01,3.75202e-07,9.99999e-01
4.375715758e-01,5.02561e-07,9.99999e-01,5.02561e-07,9.99999e-01
4.397594337e-01,6.69278e-07,9.99999e-01,6.69278e-07,9.99999e-01
4.419582309e-01,8.86270e-07,9.99999e-01,8.86270e-07,9.99999e-01
4.441680220e-01,1.16712e-06,9.99999e-01,1.16712e-06,9.99999e-01
4.463888621e-01,1.52864e-06,9.99999e-01,1.52864e-06,9.99999e-01
4.486208064e-01,1.99150e-06,9.99999e-01,1.99150e-06,9.99999e-01
4.508639105e-01,2.58098e-06,9.99999e-01,2.58098e-06,9.99999e-01
4.531182300e-01,3.32787e-06,9.99999e-01,3.32787e-06,9.99999e-01
4.553838212e-01,4.26940e-06,9.99999e-01,4.26940e-06,9.99999e-01
4.576607403e-01,5.45043e-06,9.99999e-01,5.45043e-06,9.99999e-01
4.599490440e-01,6.92467e-06,9.99999e-01,6.92467e-06,9.99999e-01
4.622487892e-01,8.75617e-06,9.99999e-01,8.75617e-06,9.99999e-01
4.645600332e-01,1.10209e-05,9.99999e-01,1.10209e-05,9.99999e-01
4.668828333e-01,1.38084e-05,9.99999e-01,1.38084e-05,9.99999e-01
4.692172475e-01,1.72242e-05,9.99999e-01,1.72242e-05,9.99999e-01
4.715633337e-01,2.13913e-05,9.99999e-01,2.13913e-05,9.99999e-01
4.739211504e-01,2.64531e-05,9.99999e-01,2.64531e-05,9.99999e-01
4.762907561e-01,3.25757e-05,9.99999e-01,3.25757e-05,9.99999e-01
4.786722099e-01,3.99508e-05,9.99999e-01,3.99508e-05,9.99999e-01
4.810655710e-01,4.87984e-05,9.99999e-01,4.87984e-05,9.99999e-01
4.834708988e-01,5.93705e-05,9.99999e-01,5.93705e-05,9.99999e-01
4.858882533e-01,7.19537e-05,9.99999e-01,7.19537e-05,9.99999e-01
4.883176946e-01,8.68733e-05,9.99999e-01,8.68733e-05,9.99999e-01
4.907592831e-01,1.04497e-04,9.99999e-01,1.04497e-04,9.99999e-01
4.932130795e-01,1.25238e-04,9.99999e-01,1.25238e-04,9.99999e-01
4.956791449e-01,1.49560e-04,9.99999e-01,1.49560e-04,9.99999e-01
4.981575406e-01,1.77980e-04,9.99999e-01,1.77980e-04,9.99999e-01
5.006483283e-01,2.11075e-04,9.99999e-01,2.11075e-04,9.99999e-01
5.031515699e-01,2.49481e-04,9.99999e-01,2.49481e-04,9.99999e-01
5.056673278e-01,2.93904e-04,9.99999e-01,2.93904e-04,9.99999e-01
5.081956644e-01,3.45118e-04,9.99999e-01,3.45118e-04,9.99999e-01
5.107366428e-01,4.03972e-04,9.99999e-01,4.03972e-04,9.99999e-01
5.132903260e-01,4.71394e-04,9.99999e-01,4.71394e-04,9.99999e-01
5.158567776e-01,5.48394e-04,9.99999e-01,5.48394e-04,9.99999e-01
5.184360615e-01,6.36068e-04,9.99999e-01,6.36068e-04,9.99999e-01
5.210282418e-01,7.35601e-04,9.99999e-01,7.35601e-04,9.99999e-01
5.236333830e-01,8.48270e-04,9.99999e-01,8.48270e-04,9.99999e-01
5.262515499e-01,9.75446e-04,9.99999e-01,9.75446e-04,9.99999e-01
5.288828077e-01,1.11860e-03,9.99999e-01,1.11860e-03,9.99999e-01
5.315272217e-01,1.27929e-03,9.99999e-01,1.27929e-03,9.99999e-01
5.341848578e-01,1.45920e-03,9.99999e-01,1.45920e-03,9.99999e-01
5.368557821e-01,1.66008e-03,9.99999e-01,1.66008e-03,9.99999e-01
5.395400610e-01,1.88382e-03,9.99999e-01,1.88382e-03,9.99999e-01
5.422377613e-01,2.13238e-03,9.99999e-01,2.13238e-03,9.99999e-01
5.449489501e-01,2.40783e-03,9.99999e-01,2.40783e-03,9.99999e-01
5.476736949e-01,2.71235e-03,9.99999e-01,2.71235e-03,9.99999e-01
5.504120634e-01,3.04820e-03,9.99999e-01,3.04820e-03,9.99999e-01
5.531641237e-01,3.41774e-03,9.99999e-01,3.41774e-03,9.99999e-01
5.559299443e-01,3.82344e-03,9.99999e-01,3.82344e-03,9.99999e-01
5.587095940e-01,4.26782e-03,9.99999e-01,4.26782e-03,9.99999e-01
5.615031420e-01,4.75352e-03,9.99999e-01,4.75352e-03,9.99999e-01
5.643106577e-01,5.28324e-03,9.99999e-01,5.28324e-03,9.99999e-01
5.671322110e-01,5.85975e-03,9.99999e-01,5.85975e-03,9.99999e-01
5.699678720e-01,6.48588e-03,9.99999e-01,6.48588e-03,9.99999e-01
5.728177114e-01,7.16453e-03,9.99999e-01,7.16453e-03,9.99999e-01
5.756818000e-01,7.89865e-03,9.99999e-01,7.89865e-03,9.99999e-01
5.785602090e-01,8.69124e-03,9.99999e-01,8.69124e-03,9.99999e-01
5.814530100e-01,9.54531e-03,9.99999e-01,9.54531e-03,9.99999e-01
5.843602750e-01,1.04639e-02,9.99999e-01,1.04639e-02,9.99999e-01
5.872820764e-01,1.14501e-02,9.99999e-01,1.14501e-02,9.99999e-01
5.902184868e-01,1.25070e-02,9.99999e-01,1.25070e-02,9.99999e-01
5.931695792e-01,1.36376e-02,9.99999e-01,1.36376e-02,9.99999e-01
5.961354271e-01,1.48451e-02,9.99999e-01,1.48451e-02,9.99999e-01
5.991161043e-01,1.61324e-02,9.99999e-01,1.61324e-02,9.99999e-01
6.021116848e-01,1.75025e-02,9.99999e-01,1.75025e-02,9.99999e-01
6.051222432e-01,1.89585e-02,9.99999e-01,1.89585e-02,9.99999e-01
6.081478544e-01,2.05032e-02,9.99999e-01,2.05032e-02,9.99999e-01
6.111885937e-01,2.21395e-02,9.99999e-01,2.21395e-02,9.99999e-01
6.142445367e-01,2.38701e-02,9.99999e-01,2.38701e-02,9.99999e-01
6.173157594e-01,2.56978e-02,9.99999e-01,2.56978e-02,9.99999e-01
6.204023382e-01,2.76251e-02,9.99999e-01,2.76251e-02,9.99999e-01
6.235043498e-01,2.96546e-02,9.99999e-01,2.96546e-02,9.99999e-01
6.266218716e-01,3.17887e-02,9.99999e-01,3.17887e-02,9.99999e-01
6.297549810e-01,3.40295e-02,9.99999e-01,3.40295e-02,9.99999e-01
6.329037559e-01,3.63794e-02,9.99999e-01,3.63794e-02,9.99999e-01
6.360682746e-01,3.88403e-02,9.99999e-01,3.88403e-02,9.99999e-01
6.392486160e-01,4.14140e-02,9.99999e-01,4.14140e-02,9.99999e-01
6.424448591e-01,4.41024e-02,9.99999e-01,4.41024e-02,9.99999e-01
6.456570834e-01,4.69070e-02,9.99999e-01,4.69070e-02,9.99999e-01
6.488853688e-01,4.98292e-02,9.99999e-01,4.98292e-02,9.99999e-01
6.521297956e-01,5.28703e-02,9.99999e-01,5.28703e-02,9.99999e-01
6.553904446e-01,5.60314e-02,9.99999e-01,5.60314e-02,9.99999e-01
6.586673968e-01,5.93134e-02,9.99999e-01,5.93134e-02,9.99999e-01
6.619607338e-01,6.27171e-02,9.99999e-01,6.27171e-02,9.99999e-01
6.652705375e-01,6.62431e-02,9.99999e-01,6.62431e-02,9.99999e-01
6.685968902e-01,6.98918e-02,9.99999e-01,6.98918e-02,9.99999e-01
6.719398746e-01,7.36634e-02,9.99999e-01,7.36634e-02,9.99999e-01
6.752995740e-01,7.75579e-02,9.99999e-01,7.75579e-02,9.99999e-01
6.786760719e-01,8.15753e-02,9.99999e-01,8.15753e-02,9.99999e-01
6.820694522e-01,8.57153e-02,9.99999e-01,8.57153e-02,9.99999e-01
6.854797995e-01,8.99773e-02,9.99999e-01,8.99773e-02,9.99999e-01
6.889071985e-01,9.43608e-02,9.99999e-01,9.43608e-02,9.99999e-01
6.923517345e-01,9.88648e-02,9.99999e-01,9.88648e-02,9.99999e-01
6.958134932e-01,1.03489e-01,9.99999e-01,1.03489e-01,9.99999e-01
6.992925606e-01,1.08231e-01,9.99999e-01,1.08231e-01,9.99999e-01
7.027890234e-01,1.13090e-01,9.99999e-01,1.13090e-01,9.99999e-01
7.063029686e-01,1.18065e-01,9.99999e-01,1.18065e-01,9.99999e-01
7.098344834e-01,1.23154e-01,9.99999e-01,1.23154e-01,9.99999e-01
7.133836558e-01,1.28356e-01,9.99999e-01,1.28356e-01,9.99999e-01
7.169505741e-01,1.33668e-01,9.99999e-01,1.33668e-01,9.99999e-01
7.205353270e-01,1.39088e-01,9.99999e-01,1.39088e-01,9.99999e-01
7.241380036e-01,1.44614e-01,9.99999e-01,1.44614e-01,9.99999e-01
7.277586936e-01,1.50245e-01,9.99999e-01,1.50245e-01,9.99999e-01
7.313974871e-01,1.55977e-01,9.99999e-01,1.55977e-01,9.99999e-01
7.350544745e-01,1.61808e-01,9.99999e-01,1.61808e-01,9.99999e-01
7.387297469e-01,1.67735e-01,9.99999e-01,1.67735e-01,9.99999e-01
7.424233956e-01,1.73756e-01,9.99999e-01,1.73756e-01,9.99999e-01
7.461355126e-01,1.79867e-01,9.99999e-01,1.79867e-01,9.99999e-01
7.498661902e-01,1.86067e-01,9.99999e-01,1.86067e-01,9.99999e-01
7.536155211e-01,1.92351e-01,9.99999e-01,1.92351e-01,9.99999e-01
7.573835987e-01,1.98717e-01,9.99999e-01,1.98717e-01,9.99999e-01
7.611705167e-01,2.05162e-01,9.99999e-01,2.05162e-01,9.99999e-01
7.649763693e-01,2.11682e-01,9.99999e-01,2.11682e-01,9.99999e-01
7.688012511e-01,2.18275e-01,9.99999e-01,2.18275e-01,9.99999e-01
7.726452574e-01,2.24937e-01,9.99999e-01,2.24937e-01,9.99999e-01
7.765084837e-01,2.31664e-01,9.99999e-01,2.31664e-01,9.99999e-01
7.803910261e-01,2.24881e-01,9.43078e-01,2.38454e-01,9.99999e-01
7.842929812e-01,1.82265e-01,7.43022e-01,2.45303e-01,9.99999e-01
7.882144461e-01,1.84562e-01,7.31789e-01,2.52207e-01,9.99999e-01
7.921555184e-01,2.14968e-01,8.29469e-01,2.59163e-01,9.99999e-01
7.961162960e-01,2.34305e-01,8.80287e-01,2.66169e-01,9.99999e-01
8.000968774e-01,2.55007e-01,9.33340e-01,2.73219e-01,9.99999e-01
8.040973618e-01,2.70386e-01,9.64589e-01,2.80312e-01,9.99999e-01
8.081178486e-01,2.82760e-01,9.83707e-01,2.87443e-01,9.99999e-01
8.121584379e-01,2.93097e-01,9.94865e-01,2.94610e-01,9.99999e-01
8.162192301e-01,3.01465e-01,9.98862e-01,3.01808e-01,9.99999e-01
8.203003262e-01,3.09029e-01,9.99979e-01,3.09035e-01,9.99999e-01
8.244018279e-01,3.16287e-01,9.99999e-01,3.16287e-01,9.99999e-01
8.285238370e-01,3.23561e-01,9.99999e-01,3.23561e-01,9.99999e-01
8.326664562e-01,3.30853e-01,9.99999e-01,3.30853e-01,9.99999e-01
8.368297885e-01,3.38161e-01,9.99999e-01,3.38161e-01,9.99999e-01
8.410139374e-01,3.45481e-01,9.99999e-01,3.45481e-01,9.99999e-01
8.452190071e-01,3.52811e-01,9.99999e-01,3.52811e-01,9.99999e-01
8.494451021e-01,3.60146e-01,9.99999e-01,3.60146e-01,9.99999e-01
8.536923276e-01,3.67485e-01,9.99999e-01,3.67485e-01,9.99999e-01
8.579607893e-01,3.74824e-01,9.99999e-01,3.74824e-01,9.99999e-01
8.622505932e-01,3.82160e-01,9.99999e-01,3.82160e-01,9.99999e-01
8.665618462e-01,3.50154e-01,8.99004e-01,3.89491e-01,9.99999e-01
8.708946554e-01,1.90718e-01,4.80623e-01,3.96813e-01,9.99999e-01
8.752491287e-01,2.20525e-01,5.45685e-01,4.04124e-01,9.99999e-01
8.796253743e-01,2.93208e-01,7.12669e-01,4.11421e-01,9.99999e-01
8.840235012e-01,3.50743e-01,8.37689e-01,4.18703e-01,9.99999e-01
8.884436187e-01,3.96928e-01,9.31832e-01,4.25965e-01,9.99999e-01
8.928858368e-01,4.21046e-01,9.71929e-01,4.33206e-01,9.99999e-01
8.973502660e-01,4.37353e-01,9.93026e-01,4.40424e-01,9.99999e-01
9.018370173e-01,4.47270e-01,9.99226e-01,4.47616e-01,9.99999e-01
9.063462024e-01,4.46445e-01,9.81673e-01,4.54779e-01,9.99999e-01
9.108779334e-01,4.41703e-01,9.56247e-01,4.61913e-01,9.99999e-01
9.154323231e-01,4.64027e-01,9.89366e-01,4.69014e-01,9.99999e-01
9.200094847e-01,4.14402e-01,8.70444e-01,4.76081e-01,9.99999e-01
9.246095321e-01,3.88534e-01,8.04232e-01,4.83111e-01,9.99999e-01
9.292325798e-01,4.15068e-01,8.46898e-01,4.90104e-01,9.99999e-01
9.338787427e-01,4.21725e-01,8.48445e-01,4.97056e-01,9.99999e-01
9.385481364e-01,4.46416e-01,8.85802e-01,5.03967e-01,9.99999e-01
9.432408771e-01,4.73956e-01,9.27804e-01,5.10835e-01,9.99999e-01
9.479570815e-01,4.98234e-01,9.62476e-01,5.17658e-01,9.99999e-01
9.526968669e-01,5.14827e-01,9.81679e-01,5.24434e-01,9.99999e-01
9.574603512e-01,5.26974e-01,9.92112e-01,5.31163e-01,9.99999e-01
9.622476530e-01,5.36514e-01,9.97529e-01,5.37843e-01,9.99999e-01
9.670588912e-01,5.44067e-01,9.99255e-01,5.44472e-01,9.99999e-01
9.718941857e-01,5.51020e-01,9.99945e-01,5.51050e-01,9.99999e-01
9.767536566e-01,5.57574e-01,9.99999e-01,5.57574e-01,9.99999e-01
9.816374249e-01,5.64045e-01,9.99999e-01,5.64045e-01,9.99999e-01
9.865456120e-01,5.70461e-01,9.99999e-01,5.70461e-01,9.99999e-01
9.914783401e-01,5.76821e-01,9.99999e-01,5.76821e-01,9.99999e-01
9.964357318e-01,5.83125e-01,9.99999e-01,5.83125e-01,9.99999e-01
1.001417910e+00,5.89370e-01,9.99999e-01,5.89370e-01,9.99999e-01
1.006425000e+00,5.95557e-01,9.99999e-01,5.95557e-01,9.99999e-01
1.011457125e+00,6.01685e-01,9.99999e-01,6.01685e-01,9.99999e-01
1.016514411e+00,6.07753e-01,9.99999e-01,6.07753e-01,9.99999e-01
1.021596983e+00,6.13710e-01,9.99917e-01,6.13761e-01,9.99999e-01
1.026704968e+00,6.15254e-01,9.92813e-01,6.19708e-01,9.99999e-01
1.031838492e+00,5.85776e-01,9.36352e-01,6.25593e-01,9.99999e-01
1.036997685e+00,5.25191e-02,8.31767e-02,6.31416e-01,9.99999e-01
1.042182673e+00,1.22658e-02,1.92502e-02,6.37176e-01,9.99999e-01
1.047393587e+00,2.38344e-02,3.70748e-02,6.42874e-01,9.99999e-01
1.052630555e+00,4.14165e-05,6.38642e-05,6.48509e-01,9.99999e-01
1.057893707e+00,1.38176e-04,2.11252e-04,6.54080e-01,9.99999e-01
1.063183176e+00,1.20916e-03,1.83320e-03,6.59588e-01,9.99999e-01
1.068499092e+00,6.84256e-03,1.02891e-02,6.65032e-01,9.99999e-01
1.073841587e+00,3.58623e-02,5.34928e-02,6.70412e-01,9.99999e-01
1.079210795e+00,1.06157e-01,1.57100e-01,6.75728e-01,9.99999e-01
1.084606849e+00,2.41089e-01,3.54033e-01,6.80980e-01,9.99999e-01
1.090029883e+00,3.99494e-01,5.82210e-01,6.86168e-01,9.99999e-01
1.095480033e+00,5.28926e-01,7.65127e-01,6.91292e-01,9.99999e-01
1.100957433e+00,6.11883e-01,8.78698e-01,6.96351e-01,9.99999e-01
1.106462220e+00,6.64728e-01,9.47787e-01,7.01347e-01,9.99999e-01
1.111994531e+00,6.92374e-01,9.80312e-01,7.06279e-01,9.99999e-01
1.117554504e+00,7.07674e-01,9.95116e-01,7.11147e-01,9.99999e-01
1.123142276e+00,7.15719e-01,9.99674e-01,7.15951e-01,9.99999e-01
1.128757988e+00,7.20692e-01,9.99999e-01,7.20692e-01,9.99999e-01
1.134401778e+00,7.25370e-01,9.99999e-01,7.25370e-01,9.99999e-01
1.140073787e+00,7.29985e-01,9.99999e-01,7.29985e-01,9.99999e-01
1.145774156e+00,7.34537e-01,9.99999e-01,7.34537e-01,9.99999e-01
1.151503026e+00,7.39027e-01,9.99999e-01,7.39027e-01,9.99999e-01
1.157260541e+00,7.43455e-01,9.99999e-01,7.43455e-01,9.99999e-01
1.163046844e+00,7.47821e-01,9.99999e-01,7.47821e-01,9.99999e-01
1.168862078e+00,7.52126e-01,9.99999e-01,7.52126e-01,9.99999e-01
1.174706389e+00,7.56369e-01,9.99999e-01,7.56369e-01,9.99999e-01
1.180579921e+00,7.60553e-01,9.99999e-01,7.60553e-01,9.99999e-01
1.186482820e+00,7.64671e-01,9.99993e-01,7.64676e-01,9.99999e-01
1.192415234e+00,7.49715e-01,9.75252e-01,7.68739e-01,9.99999e-01
1.198377311e+00,4.18599e-01,5.41705e-01,7.72743e-01,9.99999e-01
1.204369197e+00,2.97064e-20,3.82475e-20,7.76688e-01,9.99999e-01
1.210391043e+00,1.34278e-79,1.72024e-79,7.80575e-01,9.99999e-01
1.216442998e+00,5.48787e-69,6.99623e-69,7.84404e-01,9.99999e-01
1.222525213e+00,5.78447e-68,7.33907e-68,7.88175e-01,9.99999e-01
1.228637839e+00,1.50236e-52,1.89718e-52,7.91889e-01,9.99999e-01
1.234781029e+00,4.85601e-40,6.10398e-40,7.95548e-01,9.99999e-01
1.240954934e+00,4.34052e-22,5.43142e-22,7.99150e-01,9.99999e-01
1.247159708e+00,2.77669e-14,3.45920e-14,8.02697e-01,9.99999e-01
1.253395507e+00,1.76821e-07,2.19329e-07,8.06189e-01,9.99999e-01
1.259662485e+00,7.25553e-05,8.96156e-05,8.09627e-01,9.99999e-01
1.265960797e+00,5.48460e-03,6.74602e-03,8.13011e-01,9.99999e-01
1.272290601e+00,7.47044e-02,9.15110e-02,8.16343e-01,9.99999e-01
1.278652054e+00,7.93689e-02,9.68360e-02,8.19621e-01,9.99999e-01
1.285045314e+00,4.65340e-04,5.65523e-04,8.22848e-01,9.99999e-01
1.291470541e+00,8.30075e-10,1.00490e-09,8.26023e-01,9.99999e-01
1.297927893e+00,1.08615e-04,1.30996e-04,8.29147e-01,9.99999e-01
1.304417533e+00,1.42017e-02,1.70648e-02,8.32222e-01,9.99999e-01
1.310939621e+00,3.65370e-03,4.37439e-03,8.35246e-01,9.99999e-01
1.317494319e+00,1.69537e-27,2.02258e-27,8.38221e-01,9.99999e-01
1.324081790e+00,2.52645e-18,3.00357e-18,8.41148e-01,9.99999e-01
1.330702199e+00,7.02924e-11,8.32820e-11,8.44027e-01,9.99999e-01
1.337355710e+00,3.47540e-10,4.10386e-10,8.46859e-01,9.99999e-01
1.344042489e+00,1.50764e-10,1.77444e-10,8.49644e-01,9.99999e-01
1.350762701e+00,3.62045e-11,4.24744e-11,8.52383e-01,9.99999e-01
1.357516515e+00,3.79944e-07,4.44338e-07,8.55076e-01,9.99999e-01
1.364304097e+00,3.49489e-05,4.07460e-05,8.57725e-01,9.99999e-01
1.371125618e+00,4.78430e-03,5.56101e-03,8.60329e-01,9.99999e-01
1.377981246e+00,1.05725e-02,1.22524e-02,8.62889e-01,9.99999e-01
1.384871152e+00,6.67610e-02,7.71440e-02,8.65406e-01,9.99999e-01
1.391795508e+00,8.08699e-02,9.31808e-02,8.67881e-01,9.99999e-01
1.398754485e+00,1.98617e-01,2.28213e-01,8.70314e-01,9.99999e-01
1.405748258e+00,2.95182e-01,3.38238e-01,8.72705e-01,9.99999e-01
1.412776999e+00,4.39492e-01,5.02245e-01,8.75055e-01,9.99999e-01
1.419840884e+00,4.06771e-01,4.63628e-01,8.77365e-01,9.99999e-01
1.426940089e+00,2.18188e-02,2.48044e-02,8.79635e-01,9.99999e-01
1.434074789e+00,0.00000e+00,0.00000e+00,8.81866e-01,9.99999e-01
1.441245163e+00,0.00000e+00,0.00000e+00,8.84059e-01,9.99999e-01
1.448451389e+00,0.00000e+00,0.00000e+00,8.86213e-01,9.99999e-01
1.455693646e+00,0.00000e+00,0.00000e+00,8.88330e-01,9.99999e-01
1.462972114e+00,3.33386e-316,3.74418e-316,8.90410e-01,9.99999e-01
1.470286975e+00,1.95881e-131,2.19485e-131,8.92454e-01,9.99999e-01
1.477638409e+00,9.88086e-83,1.10467e-82,8.94462e-01,9.99999e-01
1.485026601e+00,3.17311e-46,3.53969e-46,8.96435e-01,9.99999e-01
1.492451734e+00,2.10779e-39,2.34622e-39,8.98373e-01,9.99999e-01
1.499913993e+00,2.51756e-17,2.79643e-17,9.00277e-01,9.99999e-01
1.507413563e+00,4.47890e-16,4.96471e-16,9.02147e-01,9.99999e-01
1.514950631e+00,1.55668e-17,1.72203e-17,9.03984e-01,9.99999e-01
1.522525384e+00,6.59884e-59,7.28519e-59,9.05788e-01,9.99999e-01
1.530138011e+00,3.08898e-140,3.40361e-140,9.07560e-01,9.99999e-01
1.537788701e+00,8.06826e-104,8.87303e-104,9.09300e-01,9.99999e-01
1.545477645e+00,3.55921e-22,3.90688e-22,9.11010e-01,9.99999e-01
1.553205033e+00,4.15491e-16,4.55238e-16,9.12688e-01,9.99999e-01
1.560971058e+00,1.92161e-16,2.10164e-16,9.14337e-01,9.99999e-01
1.568775913e+00,0.00000e+00,0.00000e+00,9.15956e-01,9.99999e-01
1.576619793e+00,0.00000e+00,0.00000e+00,9.17545e-01,9.99999e-01
1.584502892e+00,0.00000e+00,0.00000e+00,9.19106e-01,9.99999e-01
1.592425406e+00,2.43479e-316,2.64467e-316,9.20639e-01,9.99999e-01
1.600387533e+00,0.00000e+00,0.00000e+00,9.22144e-01,9.99999e-01
1.608389471e+00,0.00000e+00,0.00000e+00,9.23621e-01,9.99999e-01
1.616431418e+00,0.00000e+00,0.00000e+00,9.25072e-01,9.99999e-01
1.624513575e+00,0.00000e+00,0.00000e+00,9.26496e-01,9.99999e-01
1.632636143e+00,2.06704e-298,2.22767e-298,9.27894e-01,9.99999e-01
1.640799324e+00,8.62944e-122,9.28628e-122,9.29267e-01,9.99999e-01
1.649003321e+00,8.63976e-122,9.28393e-122,9.30614e-01,9.99999e-01
1.657248337e+00,3.47855e-94,3.73259e-94,9.31937e-01,9.99999e-01
1.665534579e+00,8.21216e-95,8.79966e-95,9.33236e-01,9.99999e-01
1.673862252e+00,1.44313e-60,1.54426e-60,9.34510e-01,9.99999e-01
1.682231563e+00,4.96155e-42,5.30215e-42,9.35761e-01,9.99999e-01
1.690642721e+00,1.73015e-23,1.84649e-23,9.36989e-01,9.99999e-01
1.699095934e+00,4.36209e-15,4.64945e-15,9.38195e-01,9.99999e-01
1.707591414e+00,5.11845e-08,5.44876e-08,9.39378e-01,9.99999e-01
1.716129371e+00,5.81901e-05,6.18689e-05,9.40539e-01,9.99999e-01
1.724710018e+00,3.67396e-03,3.90150e-03,9.41678e-01,9.99999e-01
1.733333568e+00,2.45709e-02,2.60617e-02,9.42797e-01,9.99999e-01
1.742000236e+00,1.12626e-01,1.19321e-01,9.43894e-01,9.99999e-01
1.750710237e+00,8.07930e-04,8.54978e-04,9.44971e-01,9.99999e-01
1.759463788e+00,7.82379e-58,8.27014e-58,9.46028e-01,9.99999e-01
1.768261107e+00,1.59111e-60,1.68004e-60,9.47066e-01,9.99999e-01
1.777102413e+00,6.80668e-59,7.17940e-59,9.48084e-01,9.99999e-01
1.785987925e+00,2.99598e-55,3.15671e-55,9.49083e-01,9.99999e-01
1.794917864e+00,9.14106e-53,9.62152e-53,9.50063e-01,9.99999e-01
1.803892454e+00,9.85826e-51,1.03659e-50,9.51025e-01,9.99999e-01
1.812911916e+00,9.50926e-49,9.98904e-49,9.51968e-01,9.99999e-01
1.821976476e+00,8.18562e-49,8.59026e-49,9.52894e-01,9.99999e-01
1.831086358e+00,2.99036e-39,3.13520e-39,9.53803e-01,9.99999e-01
1.840241790e+00,1.82370e-33,1.91025e-33,9.54694e-01,9.99999e-01
1.849442999e+00,2.75490e-23,2.88299e-23,9.55569e-01,9.99999e-01
1.858690214e+00,6.96818e-22,7.28563e-22,9.56427e-01,9.99999e-01
1.867983665e+00,1.78619e-22,1.86592e-22,9.57269e-01,9.99999e-01
1.877323583e+00,2.63009e-110,2.74512e-110,9.58095e-01,9.99999e-01
