#,Wave/freq,Total,N2,CO2,Rayleigh,CIA
4.000000000e-01,4.40476e-11,9.99999e-01,9.99999e-01,4.40476e-11,9.99999e-01
4.020000000e-01,7.05824e-11,9.99999e-01,9.99999e-01,7.05824e-11,9.99999e-01
4.040100000e-01,1.11998e-10,9.99999e-01,9.99999e-01,1.11998e-10,9.99999e-01
4.060300500e-01,1.76101e-10,9.99999e-01,9.99999e-01,1.76101e-10,9.99999e-01
4.080602003e-01,2.74431e-10,9.99999e-01,9.99999e-01,2.74431e-10,9.99999e-01
4.101005013e-01,4.23933e-10,9.99999e-01,9.99999e-01,4.23933e-10,9.99999e-01
4.121510038e-01,6.49279e-10,9.99999e-01,9.99999e-01,6.49279e-10,9.99999e-01
4.142117588e-01,9.86072e-10,9.99999e-01,9.99999e-01,9.86072e-10,9.99999e-01
4.162828176e-01,1.48526e-09,9.99999e-01,9.99999e-01,1.48526e-09,9.99999e-01
4.183642317e-01,2.21912e-09,9.99999e-01,9.99999e-01,2.21912e-09,9.99999e-01
4.204560528e-01,3.28938e-09,9.99999e-01,9.99999e-01,3.28938e-09,9.99999e-01
4.225583331e-01,4.83807e-09,9.99999e-01,9.99999e-01,4.83807e-09,9.99999e-01
4.246711247e-01,7.06189e-09,9.99999e-01,9.99999e-01,7.06189e-09,9.99999e-01
4.267944804e-01,1.02312e-08,9.99999e-01,9.99999e-01,1.02312e-08,9.99999e-01
4.289284528e-01,1.47146e-08,9.99999e-01,9.99999e-01,1.47146e-08,9.99999e-01
4.310730950e-01,2.10114e-08,9.99999e-01,9.99999e-01,2.10114e-08,9.99999e-01
4.332284605e-01,2.97924e-08,9.99999e-01,9.99999e-01,2.97924e-08,9.99999e-01
4.353946028e-01,4.19528e-08,9.99999e-01,9.99999e-01,4.19528e-08,9.99999e-01
4.375715758e-01,5.86785e-08,9.99999e-01,9.99999e-01,5.86785e-08,9.99999e-01
4.397594337e-01,8.15304e-08,9.99999e-01,9.99999e-01,8.15304e-08,9.99999e-01
4.419582309e-01,1.12548e-07,9.99999e-01,9.99999e-01,1.12548e-07,9.99999e-01
4.441680220e-01,1.54380e-07,9.99999e-01,9.99999e-01,1.54380e-07,9.99999e-01
4.463888621e-01,2.10443e-07,9.99999e-01,9.99999e-01,2.10443e-07,9.99999e-01
4.486208064e-01,2.85114e-07,9.99999e-01,9.99999e-01,2.85114e-07,9.99999e-01
4.508639105e-01,3.83971e-07,9.99999e-01,9.99999e-01,3.83971e-07,9.99999e-01
4.531182300e-01,5.14073e-07,9.99999e-01,9.99999e-01,5.14073e-07,9.99999e-01
4.553838212e-01,6.84301e-07,9.99999e-01,9.99999e-01,6.84301e-07,9.99999e-01
4.576607403e-01,9.05767e-07,9.99999e-01,9.99999e-01,9.05767e-07,9.99999e-01
4.599490440e-01,1.19229e-06,9.99999e-01,9.99999e-01,1.19229e-06,9.99999e-01
4.622487892e-01,1.56094e-06,9.99999e-01,9.99999e-01,1.56094e-06,9.99999e-01
4.645600332e-01,2.03274e-06,9.99999e-01,9.99999e-01,2.03274e-06,9.99999e-01
4.668828333e-01,2.63336e-06,9.99999e-01,9.99999e-01,2.63336e-06,9.99999e-01
4.692172475e-01,3.39406e-06,9.99999e-01,9.99999e-01,3.39406e-06,9.99999e-01
4.715633337e-01,4.35263e-06,9.99999e-01,9.99999e-01,4.35263e-06,9.99999e-01
4.739211504e-01,5.55456e-06,9.99999e-01,9.99999e-01,5.55456e-06,9.99999e-01
4.762907561e-01,7.05433e-06,9.99999e-01,9.99999e-01,7.05433e-06,9.99999e-01
4.786722099e-01,8.91685e-06,9.99999e-01,9.99999e-01,8.91685e-06,9.99999e-01
4.810655710e-01,1.12191e-05,9.99999e-01,9.99999e-01,1.12191e-05,9.99999e-01
4.834708988e-01,1.40518e-05,9.99999e-01,9.99999e-01,1.40518e-05,9.99999e-01
4.858882533e-01,1.75217e-05,9.99999e-01,9.99999e-01,1.75217e-05,9.99999e-01
4.883176946e-01,2.17535e-05,9.99999e-01,9.99999e-01,2.17535e-05,9.99999e-01
4.907592831e-01,2.68920e-05,9.99999e-01,9.99999e-01,2.68920e-05,9.99999e-01
4.932130795e-01,3.31055e-05,9.99999e-01,9.99999e-01,3.31055e-05,9.99999e-01
4.956791449e-01,4.05876e-05,9.99999e-01,9.99999e-01,4.05876e-05,9.99999e-01
4.981575406e-01,4.95608e-05,9.99999e-01,9.99999e-01,4.95608e-05,9.99999e-01
5.006483283e-01,6.02795e-05,9.99999e-01,9.99999e-01,6.02795e-05,9.99999e-01
5.031515699e-01,7.30335e-05,9.99999e-01,9.99999e-01,7.30335e-05,9.99999e-01
5.056673278e-01,8.81511e-05,9.99999e-01,9.99999e-01,8.81511e-05,9.99999e-01
5.081956644e-01,1.06003e-04,9.99999e-01,9.99999e-01,1.06003e-04,9.99999e-01
5.107366428e-01,1.27007e-04,9.99999e-01,9.99999e-01,1.27007e-04,9.99999e-01
5.132903260e-01,1.51631e-04,9.99999e-01,9.99999e-01,1.51631e-04,9.99999e-01
5.158567776e-01,1.80396e-04,9.99999e-01,9.99999e-01,1.80396e-04,9.99999e-01
5.184360615e-01,2.13883e-04,9.99999e-01,9.99999e-01,2.13883e-04,9.99999e-01
5.210282418e-01,2.52734e-04,9.99999e-01,9.99999e-01,2.52734e-04,9.99999e-01
5.236333830e-01,2.97660e-04,9.99999e-01,9.99999e-01,2.97660e-04,9.99999e-01
5.262515499e-01,3.49440e-04,9.99999e-01,9.99999e-01,3.49440e-04,9.99999e-01
5.288828077e-01,4.08931e-04,9.99999e-01,9.99999e-01,4.08931e-04,9.99999e-01
5.315272217e-01,4.77066e-04,9.99999e-01,9.99999e-01,4.77066e-04,9.99999e-01
5.341848578e-01,5.54861e-04,9.99999e-01,9.99999e-01,5.54861e-04,9.99999e-01
5.368557821e-01,6.43421e-04,9.99999e-01,9.99999e-01,6.43421e-04,9.99999e-01
5.395400610e-01,7.43935e-04,9.99999e-01,9.99999e-01,7.43935e-04,9.99999e-01
5.422377613e-01,8.57689e-04,9.99999e-01,9.99999e-01,8.57689e-04,9.99999e-01
5.449489501e-01,9.86062e-04,9.99999e-01,9.99999e-01,9.86062e-04,9.99999e-01
5.476736949e-01,1.13053e-03,9.99999e-01,9.99999e-01,1.13053e-03,9.99999e-01
5.504120634e-01,1.29267e-03,9.99999e-01,9.99999e-01,1.29267e-03,9.99999e-01
5.531641237e-01,1.47415e-03,9.99999e-01,9.99999e-01,1.47415e-03,9.99999e-01
5.559299443e-01,1.67676e-03,9.99999e-01,9.99999e-01,1.67676e-03,9.99999e-01
5.587095940e-01,1.90237e-03,9.99999e-01,9.99999e-01,1.90237e-03,9.99999e-01
5.615031420e-01,2.15295e-03,9.99999e-01,9.99999e-01,2.15295e-03,9.99999e-01
5.643106577e-01,2.43060e-03,9.99999e-01,9.99999e-01,2.43060e-03,9.99999e-01
5.671322110e-01,2.73749e-03,9.99999e-01,9.99999e-01,2.73749e-03,9.99999e-01
5.699678720e-01,3.07589e-03,9.99999e-01,9.99999e-01,3.07589e-03,9.99999e-01
5.728177114e-01,3.44818e-03,9.99999e-01,9.99999e-01,3.44818e-03,9.99999e-01
5.756818000e-01,3.85682e-03,9.99999e-01,9.99999e-01,3.85682e-03,9.99999e-01
5.785602090e-01,4.30434e-03,9.99999e-01,9.99999e-01,4.30434e-03,9.99999e-01
5.814530100e-01,4.79339e-03,9.99999e-01,9.99999e-01,4.79339e-03,9.99999e-01
5.843602750e-01,5.32667e-03,9.99999e-01,9.99999e-01,5.32667e-03,9.99999e-01
5.872820764e-01,5.90696e-03,9.99999e-01,9.99999e-01,5.90696e-03,9.99999e-01
5.902184868e-01,6.53710e-03,9.99999e-01,9.99999e-01,6.53710e-03,9.99999e-01
5.931695792e-01,7.21999e-03,9.99999e-01,9.99999e-01,7.21999e-03,9.99999e-01
5.961354271e-01,7.95859e-03,9.99999e-01,9.99999e-01,7.95859e-03,9.99999e-01
5.991161043e-01,8.75588e-03,9.99999e-01,9.99999e-01,8.75588e-03,9.99999e-01
6.021116848e-01,9.61489e-03,9.99999e-01,9.99999e-01,9.61489e-03,9.99999e-01
6.051222432e-01,1.05387e-02,9.99999e-01,9.99999e-01,1.05387e-02,9.99999e-01
6.081478544e-01,1.15303e-02,9.99999e-01,9.99999e-01,1.15303e-02,9.99999e-01
6.111885937e-01,1.25929e-02,9.99999e-01,9.99999e-01,1.25929e-02,9.99999e-01
6.142445367e-01,1.37294e-02,9.99999e-01,9.99999e-01,1.37294e-02,9.99999e-01
6.173157594e-01,1.49430e-02,9.99999e-01,9.99999e-01,1.49430e-02,9.99999e-01
6.204023382e-01,1.62367e-02,9.99999e-01,9.99999e-01,1.62367e-02,9.99999e-01
6.235043498e-01,1.76134e-02,9.99999e-01,9.99999e-01,1.76134e-02,9.99999e-01
6.266218716e-01,1.90763e-02,9.99999e-01,9.99999e-01,1.90763e-02,9.99999e-01
6.297549810e-01,2.06280e-02,9.99999e-01,9.99999e-01,2.06280e-02,9.99999e-01
6.329037559e-01,2.22716e-02,9.99999e-01,9.99999e-01,2.22716e-02,9.99999e-01
6.360682746e-01,2.40097e-02,9.99999e-01,9.99999e-01,2.40097e-02,9.99999e-01
6.392486160e-01,2.58451e-02,9.99999e-01,9.99999e-01,2.58451e-02,9.99999e-01
6.424448591e-01,2.77804e-02,9.99999e-01,9.99999e-01,2.77804e-02,9.99999e-01
6.456570834e-01,2.98180e-02,9.99999e-01,9.99999e-01,2.98180e-02,9.99999e-01
6.488853688e-01,3.19603e-02,9.99999e-01,9.99999e-01,3.19603e-02,9.99999e-01
6.521297956e-01,3.42096e-02,9.99999e-01,9.99999e-01,3.42096e-02,9.99999e-01
6.553904446e-01,3.65681e-02,9.99999e-01,9.99999e-01,3.65681e-02,9.99999e-01
6.586673968e-01,3.90378e-02,9.99999e-01,9.99999e-01,3.90378e-02,9.99999e-01
6.619607338e-01,4.16204e-02,9.99999e-01,9.99999e-01,4.16204e-02,9.99999e-01
6.652705375e-01,4.43179e-02,9.99999e-01,9.99999e-01,4.43179e-02,9.99999e-01
6.685968902e-01,4.71316e-02,9.99999e-01,9.99999e-01,4.71316e-02,9.99999e-01
6.719398746e-01,5.00631e-02,9.99999e-01,9.99999e-01,5.00631e-02,9.99999e-01
6.752995740e-01,5.31135e-02,9.99999e-01,9.99999e-01,5.31135e-02,9.99999e-01
6.786760719e-01,5.62841e-02,9.99999e-01,9.99999e-01,5.62841e-02,9.99999e-01
6.820694522e-01,5.95756e-02,9.99999e-01,9.99999e-01,5.95756e-02,9.99999e-01
6.854797995e-01,6.29889e-02,9.99999e-01,9.99999e-01,6.29889e-02,9.99999e-01
6.889071985e-01,6.65245e-02,9.99999e-01,9.99999e-01,6.65245e-02,9.99999e-01
6.923517345e-01,7.01828e-02,9.99999e-01,9.99999e-01,7.01828e-02,9.99999e-01
6.958134932e-01,7.39640e-02,9.99999e-01,9.99999e-01,7.39640e-02,9.99999e-01
6.992925606e-01,7.78682e-02,9.99999e-01,9.99999e-01,7.78682e-02,9.99999e-01
7.027890234e-01,8.18952e-02,9.99999e-01,9.99999e-01,8.18952e-02,9.99999e-01
7.063029686e-01,8.60447e-02,9.99999e-01,9.99999e-01,8.60447e-02,9.99999e-01
7.098344834e-01,9.03163e-02,9.99999e-01,9.99999e-01,9.03163e-02,9.99999e-01
7.133836558e-01,9.47092e-02,9.99999e-01,9.99999e-01,9.47092e-02,9.99999e-01
7.169505741e-01,9.92227e-02,9.99999e-01,9.99999e-01,9.92227e-02,9.99999e-01
7.205353270e-01,1.03856e-01,9.99999e-01,9.99999e-01,1.03856e-01,9.99999e-01
7.241380036e-01,1.08607e-01,9.99999e-01,9.99999e-01,1.08607e-01,9.99999e-01
7.277586936e-01,1.13476e-01,9.99999e-01,9.99999e-01,1.13476e-01,9.99999e-01
7.313974871e-01,1.18460e-01,9.99999e-01,9.99999e-01,1.18460e-01,9.99999e-01
7.350544745e-01,1.23558e-01,9.99999e-01,9.99999e-01,1.23558e-01,9.99999e-01
7.387297469e-01,1.28768e-01,9.99999e-01,9.99999e-01,1.28768e-01,9.99999e-01
7.424233956e-01,1.34088e-01,9.99999e-01,9.99999e-01,1.34088e-01,9.99999e-01
7.461355126e-01,1.39517e-01,9.99999e-01,9.99999e-01,1.39517e-01,9.99999e-01
7.498661902e-01,1.45052e-01,9.99999e-01,9.99999e-01,1.45052e-01,9.99999e-01
7.536155211e-01,1.50690e-01,9.99999e-01,9.99999e-01,1.50690e-01,9.99999e-01
7.573835987e-01,1.56430e-01,9.99999e-01,9.99999e-01,1.56430e-01,9.99999e-01
7.611705167e-01,1.62268e-01,9.99999e-01,9.99999e-01,1.62268e-01,9.99999e-01
7.649763693e-01,1.68203e-01,9.99999e-01,9.99999e-01,1.68203e-01,9.99999e-01
7.688012511e-01,1.74231e-01,9.99999e-01,9.99999e-01,1.74231e-01,9.99999e-01
7.726452574e-01,1.80350e-01,9.99999e-01,9.99999e-01,1.80350e-01,9.99999e-01
7.765084837e-01,1.86556e-01,9.99999e-01,9.99999e-01,1.86556e-01,9.99999e-01
7.803910261e-01,1.80423e-01,9.99999e-01,9.35579e-01,1.92847e-01,9.99999e-01
7.842929812e-01,1.42957e-01,9.99999e-01,7.17584e-01,1.99219e-01,9.99999e-01
7.882144461e-01,1.44977e-01,9.99999e-01,7.04898e-01,2.05670e-01,9.99999e-01
7.921555184e-01,1.71868e-01,9.99999e-01,8.09950e-01,2.12196e-01,9.99999e-01
7.961162960e-01,1.89588e-01,9.99999e-01,8.66512e-01,2.18794e-01,9.99999e-01
8.000968774e-01,2.08625e-01,9.99999e-01,9.25323e-01,2.25461e-01,9.99999e-01
8.040973618e-01,2.22989e-01,9.99999e-01,9.60359e-01,2.32194e-01,9.99999e-01
8.081178486e-01,2.34612e-01,9.99999e-01,9.81687e-01,2.38988e-01,9.99999e-01
8.121584379e-01,2.44429e-01,9.99999e-01,9.94252e-01,2.45841e-01,9.99999e-01
8.162192301e-01,2.52428e-01,9.99999e-01,9.98727e-01,2.52750e-01,9.99999e-01
8.203003262e-01,2.59705e-01,9.99999e-01,9.99978e-01,2.59710e-01,9.99999e-01
8.244018279e-01,2.66719e-01,9.99999e-01,9.99999e-01,2.66719e-01,9.99999e-01
8.285238370e-01,2.73774e-01,9.99999e-01,9.99999e-01,2.73774e-01,9.99999e-01
8.326664562e-01,2.80869e-01,9.99999e-01,9.99999e-01,2.80869e-01,9.99999e-01
8.368297885e-01,2.88003e-01,9.99999e-01,9.99999e-01,2.88003e-01,9.99999e-01
8.410139374e-01,2.95173e-01,9.99999e-01,9.99999e-01,2.95173e-01,9.99999e-01
8.452190071e-01,3.02373e-01,9.99999e-01,9.99999e-01,3.02373e-01,9.99999e-01
8.494451021e-01,3.09602e-01,9.99999e-01,9.99999e-01,3.09602e-01,9.99999e-01
8.536923276e-01,3.16856e-01,9.99999e-01,9.99999e-01,3.16856e-01,9.99999e-01
8.579607893e-01,3.24131e-01,9.99999e-01,9.99999e-01,3.24131e-01,9.99999e-01
8.622505932e-01,3.31425e-01,9.99999e-01,9.99999e-01,3.31425e-01,9.99999e-01
8.665618462e-01,3.01609e-01,9.99999e-01,8.90401e-01,3.38734e-01,9.99999e-01
8.708946554e-01,1.52625e-01,9.99999e-01,4.41041e-01,3.46055e-01,9.99999e-01
8.752491287e-01,1.79483e-01,9.99999e-01,5.07895e-01,3.53385e-01,9.99999e-01
8.796253743e-01,2.46801e-01,9.99999e-01,6.84186e-01,3.60721e-01,9.99999e-01
8.840235012e-01,3.01662e-01,9.99999e-01,8.19600e-01,3.68060e-01,9.99999e-01
8.884436187e-01,3.46835e-01,9.99999e-01,9.23909e-01,3.75399e-01,9.99999e-01
8.928858368e-01,3.70685e-01,9.99999e-01,9.68517e-01,3.82734e-01,9.99999e-01
8.973502660e-01,3.87022e-01,9.99999e-01,9.92200e-01,3.90064e-01,9.99999e-01
9.018370173e-01,3.97042e-01,9.99999e-01,9.99135e-01,3.97386e-01,9.99999e-01
9.063462024e-01,3.96250e-01,9.99999e-01,9.79129e-01,4.04696e-01,9.99999e-01
9.108779334e-01,3.91774e-01,9.99999e-01,9.50926e-01,4.11992e-01,9.99999e-01
9.154323231e-01,4.14292e-01,9.99999e-01,9.88122e-01,4.19272e-01,9.99999e-01
9.200094847e-01,3.65236e-01,9.99999e-01,8.56290e-01,4.26533e-01,9.99999e-01
9.246095321e-01,3.39508e-01,9.99999e-01,7.82686e-01,4.33772e-01,9.99999e-01
9.292325798e-01,3.65522e-01,9.99999e-01,8.28870e-01,4.40988e-01,9.99999e-01
9.338787427e-01,3.72568e-01,9.99999e-01,8.31293e-01,4.48178e-01,9.99999e-01
9.385481364e-01,3.97256e-01,9.99999e-01,8.72438e-01,4.55339e-01,9.99999e-01
9.432408771e-01,4.25127e-01,9.99999e-01,9.19252e-01,4.62470e-01,9.99999e-01
9.479570815e-01,4.49782e-01,9.99999e-01,9.57862e-01,4.69569e-01,9.99999e-01
9.526968669e-01,4.66827e-01,9.99999e-01,9.79425e-01,4.76633e-01,9.99999e-01
9.574603512e-01,4.79375e-01,9.99999e-01,9.91139e-01,4.83661e-01,9.99999e-01
9.622476530e-01,4.89288e-01,9.99999e-01,9.97224e-01,4.90650e-01,9.99999e-01
9.670588912e-01,4.97184e-01,9.99999e-01,9.99165e-01,4.97599e-01,9.99999e-01
9.718941857e-01,5.04477e-01,9.99999e-01,9.99939e-01,5.04507e-01,9.99999e-01
9.767536566e-01,5.11371e-01,9.99999e-01,9.99999e-01,5.11371e-01,9.99999e-01
9.816374249e-01,5.18190e-01,9.99999e-01,9.99999e-01,5.18190e-01,9.99999e-01
9.865456120e-01,5.24963e-01,9.99999e-01,9.99999e-01,5.24963e-01,9.99999e-01
9.914783401e-01,5.31688e-01,9.99999e-01,9.99999e-01,5.31688e-01,9.99999e-01
9.964357318e-01,5.38364e-01,9.99999e-01,9.99999e-01,5.38364e-01,9.99999e-01
1.001417910e+00,5.44989e-01,9.99999e-01,9.99999e-01,5.44989e-01,9.99999e-01
1.006425000e+00,5.51563e-01,9.99999e-01,9.99999e-01,5.51563e-01,9.99999e-01
1.011457125e+00,5.58083e-01,9.99999e-01,9.99999e-01,5.58083e-01,9.99999e-01
1.016514411e+00,5.64550e-01,9.99999e-01,9.99999e-01,5.64550e-01,9.99999e-01
1.021596983e+00,5.70904e-01,9.99999e-01,9.99899e-01,5.70962e-01,9.99999e-01
1.026704968e+00,5.72570e-01,9.99999e-01,9.91776e-01,5.77317e-01,9.99999e-01
1.031838492e+00,5.41702e-01,9.99999e-01,9.28182e-01,5.83616e-01,9.99999e-01
1.036997685e+00,4.31932e-02,9.99999e-01,7.32266e-02,5.89857e-01,9.99999e-01
1.042182673e+00,7.56460e-03,9.99999e-01,1.26914e-02,5.96039e-01,9.99999e-01
1.047393587e+00,1.59380e-02,9.99999e-01,2.64679e-02,6.02163e-01,9.99999e-01
1.052630555e+00,1.46506e-05,9.99999e-01,2.40874e-05,6.08226e-01,9.99999e-01
1.057893707e+00,5.13808e-05,9.99999e-01,8.36508e-05,6.14229e-01,9.99999e-01
1.063183176e+00,5.70866e-04,9.99999e-01,9.20498e-04,6.20171e-01,9.99999e-01
1.068499092e+00,3.71853e-03,9.99999e-01,5.93965e-03,6.26051e-01,9.99999e-01
1.073841587e+00,2.37013e-02,9.99999e-01,3.75097e-02,6.31869e-01,9.99999e-01
1.079210795e+00,8.02833e-02,9.99999e-01,1.25910e-01,6.37625e-01,9.99999e-01
1.084606849e+00,2.00548e-01,9.99999e-01,3.11740e-01,6.43318e-01,9.99999e-01
1.090029883e+00,3.53244e-01,9.99999e-01,5.44334e-01,6.48948e-01,9.99999e-01
1.095480033e+00,4.84451e-01,9.99999e-01,7.40168e-01,6.54514e-01,9.99999e-01
1.100957433e+00,5.70684e-01,9.99999e-01,8.64651e-01,6.60017e-01,9.99999e-01
1.106462220e+00,6.26527e-01,9.99999e-01,9.41500e-01,6.65456e-01,9.99999e-01
1.111994531e+00,6.55999e-01,9.99999e-01,9.77890e-01,6.70831e-01,9.99999e-01
1.117554504e+00,6.72442e-01,9.99999e-01,9.94527e-01,6.76142e-01,9.99999e-01
1.123142276e+00,6.81142e-01,9.99999e-01,9.99636e-01,6.81389e-01,9.99999e-01
1.128757988e+00,6.86572e-01,9.99999e-01,9.99999e-01,6.86572e-01,9.99999e-01
1.134401778e+00,6.91690e-01,9.99999e-01,9.99999e-01,6.91690e-01,9.99999e-01
1.140073787e+00,6.96745e-01,9.99999e-01,9.99999e-01,6.96745e-01,9.99999e-01
1.145774156e+00,7.01736e-01,9.99999e-01,9.99999e-01,7.01736e-01,9.99999e-01
1.151503026e+00,7.06662e-01,9.99999e-01,9.99999e-01,7.06662e-01,9.99999e-01
1.157260541e+00,7.11525e-01,9.99999e-01,9.99999e-01,7.11525e-01,9.99999e-01
1.163046844e+00,7.16325e-01,9.99999e-01,9.99999e-01,7.16325e-01,9.99999e-01
1.168862078e+00,7.21061e-01,9.99999e-01,9.99999e-01,7.21061e-01,9.99999e-01
1.174706389e+00,7.25734e-01,9.99999e-01,9.99999e-01,7.25734e-01,9.99999e-01
1.180579921e+00,7.30344e-01,9.99999e-01,9.99999e-01,7.30344e-01,9.99999e-01
1.186482820e+00,7.34884e-01,9.99999e-01,9.99989e-01,7.34891e-01,9.99999e-01
1.192415234e+00,7.18470e-01,9.99999e-01,9.71724e-01,7.39376e-01,9.99999e-01
1.198377311e+00,3.98566e-01,9.99999e-01,5.35851e-01,7.43799e-01,9.99999e-01
1.204369197e+00,1.44434e-22,9.99999e-01,1.93052e-22,7.48160e-01,9.99999e-01
1.210391043e+00,1.54958e-89,9.99999e-01,2.05935e-89,7.52460e-01,9.99999e-01
1.216442998e+00,1.46494e-77,9.99999e-01,1.93596e-77,7.56699e-01,9.99999e-01
1.222525213e+00,2.09314e-76,9.99999e-01,2.75095e-76,7.60878e-01,9.99999e-01
1.228637839e+00,4.84497e-59,9.99999e-01,6.33332e-59,7.64996e-01,9.99999e-01
1.234781029e+00,5.55572e-37,9.99999e-01,7.22408e-37,7.69055e-01,9.99999e-01
1.240954934e+00,1.13942e-24,9.99999e-01,1.47392e-24,7.73054e-01,9.99999e-01
1.247159708e+00,6.70140e-16,9.99999e-01,8.62476e-16,7.76994e-01,9.99999e-01
1.253395507e+00,2.86053e-08,9.99999e-01,3.66322e-08,7.80877e-01,9.99999e-01
1.259662485e+00,2.48641e-05,9.99999e-01,3.16860e-05,7.84701e-01,9.99999e-01
1.265960797e+00,3.18530e-03,9.99999e-01,4.03986e-03,7.88468e-01,9.99999e-01
1.272290601e+00,5.47758e-02,9.99999e-01,6.91457e-02,7.92178e-01,9.99999e-01
1.278652054e+00,5.90612e-02,9.99999e-01,7.42131e-02,7.95832e-01,9.99999e-01
1.285045314e+00,2.37397e-04,9.99999e-01,2.96957e-04,7.99430e-01,9.99999e-01
1.291470541e+00,6.78246e-11,9.99999e-01,8.44668e-11,8.02972e-01,9.99999e-01
1.297927893e+00,4.56456e-05,9.99999e-01,5.65999e-05,8.06460e-01,9.99999e-01
1.304417533e+00,8.43591e-03,9.99999e-01,1.04161e-02,8.09894e-01,9.99999e-01
1.310939621e+00,2.14646e-03,9.99999e-01,2.63928e-03,8.13274e-01,9.99999e-01
1.317494319e+00,8.67612e-31,9.99999e-01,1.06247e-30,8.16601e-01,9.99999e-01
1.324081790e+00,2.05895e-20,9.99999e-01,2.51129e-20,8.19876e-01,9.99999e-01
1.330702199e+00,3.94289e-12,9.99999e-01,4.79030e-12,8.23098e-01,9.99999e-01
1.337355710e+00,2.80835e-11,9.99999e-01,3.39882e-11,8.26270e-01,9.99999e-01
1.344042489e+00,1.28675e-11,9.99999e-01,1.55144e-11,8.29390e-01,9.99999e-01
1.350762701e+00,2.01921e-12,9.99999e-01,2.42560e-12,8.32460e-01,9.99999e-01
1.357516515e+00,7.57774e-08,9.99999e-01,9.06990e-08,8.35481e-01,9.99999e-01
1.364304097e+00,1.01878e-05,9.99999e-01,1.21508e-05,8.38452e-01,9.99999e-01
1.371125618e+00,2.55990e-03,9.99999e-01,3.04251e-03,8.41376e-01,9.99999e-01
1.377981246e+00,6.00199e-03,9.99999e-01,7.10924e-03,8.44251e-01,9.99999e-01
1.384871152e+00,4.75327e-02,9.99999e-01,5.61136e-02,8.47079e-01,9.99999e-01
1.391795508e+00,5.91865e-02,9.99999e-01,6.96425e-02,8.49860e-01,9.99999e-01
1.398754485e+00,1.61433e-01,9.99999e-01,1.89343e-01,8.52596e-01,9.99999e-01
1.405748258e+00,2.52935e-01,9.99999e-01,2.95732e-01,8.55286e-01,9.99999e-01
1.412776999e+00,3.95490e-01,9.99999e-01,4.60981e-01,8.57930e-01,9.99999e-01
1.419840884e+00,3.66427e-01,9.99999e-01,4.25814e-01,8.60531e-01,9.99999e-01
1.426940089e+00,1.75275e-02,9.99999e-01,2.03078e-02,8.63088e-01,9.99999e-01
1.434074789e+00,0.00000e+00,9.99999e-01,0.00000e+00,8.65602e-01,9.99999e-01
1.441245163e+00,0.00000e+00,9.99999e-01,0.00000e+00,8.68073e-01,9.99999e-01
1.448451389e+00,0.00000e+00,9.99999e-01,0.00000e+00,8.70502e-01,9.99999e-01
1.455693646e+00,0.00000e+00,9.99999e-01,0.00000e+00,8.72890e-01,9.99999e-01
1.462972114e+00,0.00000e+00,9.99999e-01,0.00000e+00,8.75237e-01,9.99999e-01
1.470286975e+00,5.13075e-148,9.99999e-01,5.84671e-148,8.77544e-01,9.99999e-01
