#,Wave/freq,Total,N2,CO2,Rayleigh,CIA
4.000000000e-01,5.51005e-14,9.99999e-01,9.99999e-01,5.51005e-14,9.99999e-01
4.020000000e-01,1.00769e-13,9.99999e-01,9.99999e-01,1.00769e-13,9.99999e-01
4.040100000e-01,1.81988e-13,9.99999e-01,9.99999e-01,1.81988e-13,9.99999e-01
4.060300500e-01,3.24855e-13,9.99999e-01,9.99999e-01,3.24855e-13,9.99999e-01
4.080602003e-01,5.73277e-13,9.99999e-01,9.99999e-01,5.73277e-13,9.99999e-01
4.101005013e-01,1.00038e-12,9.99999e-01,9.99999e-01,1.00038e-12,9.99999e-01
4.121510038e-01,1.72661e-12,9.99999e-01,9.99999e-01,1.72661e-12,9.99999e-01
4.142117588e-01,2.94807e-12,9.99999e-01,9.99999e-01,2.94807e-12,9.99999e-01
4.162828176e-01,4.98073e-12,9.99999e-01,9.99999e-01,4.98073e-12,9.99999e-01
4.183642317e-01,8.32817e-12,9.99999e-01,9.99999e-01,8.32817e-12,9.99999e-01
4.204560528e-01,1.37847e-11,9.99999e-01,9.99999e-01,1.37847e-11,9.99999e-01
4.225583331e-01,2.25902e-11,9.99999e-01,9.99999e-01,2.25902e-11,9.99999e-01
4.246711247e-01,3.66612e-11,9.99999e-01,9.99999e-01,3.66612e-11,9.99999e-01
4.267944804e-01,5.89304e-11,9.99999e-01,9.99999e-01,5.89304e-11,9.99999e-01
4.289284528e-01,9.38427e-11,9.99999e-01,9.99999e-01,9.38427e-11,9.99999e-01
4.310730950e-01,1.48071e-10,9.99999e-01,9.99999e-01,1.48071e-10,9.99999e-01
4.332284605e-01,2.31541e-10,9.99999e-01,9.99999e-01,2.31541e-10,9.99999e-01
4.353946028e-01,3.58881e-10,9.99999e-01,9.99999e-01,3.58881e-10,9.99999e-01
4.375715758e-01,5.51459e-10,9.99999e-01,9.99999e-01,5.51459e-10,9.99999e-01
4.397594337e-01,8.40217e-10,9.99999e-01,9.99999e-01,8.40217e-10,9.99999e-01
4.419582309e-01,1.26957e-09,9.99999e-01,9.99999e-01,1.26957e-09,9.99999e-01
4.441680220e-01,1.90275e-09,9.99999e-01,9.99999e-01,1.90275e-09,9.99999e-01
4.463888621e-01,2.82902e-09,9.99999e-01,9.99999e-01,2.82902e-09,9.99999e-01
4.486208064e-01,4.17337e-09,9.99999e-01,9.99999e-01,4.17337e-09,9.99999e-01
4.508639105e-01,6.10947e-09,9.99999e-01,9.99999e-01,6.10947e-09,9.99999e-01
4.531182300e-01,8.87667e-09,9.99999e-01,9.99999e-01,8.87667e-09,9.99999e-01
4.553838212e-01,1.28024e-08,9.99999e-01,9.99999e-01,1.28024e-08,9.99999e-01
4.576607403e-01,1.83313e-08,9.99999e-01,9.99999e-01,1.83313e-08,9.99999e-01
4.599490440e-01,2.60624e-08,9.99999e-01,9.99999e-01,2.60624e-08,9.99999e-01
4.622487892e-01,3.67973e-08,9.99999e-01,9.99999e-01,3.67973e-08,9.99999e-01
4.645600332e-01,5.16012e-08,9.99999e-01,9.99999e-01,5.16012e-08,9.99999e-01
4.668828333e-01,7.18792e-08,9.99999e-01,9.99999e-01,7.18792e-08,9.99999e-01
4.692172475e-01,9.94724e-08,9.99999e-01,9.99999e-01,9.94724e-08,9.99999e-01
4.715633337e-01,1.36778e-07,9.99999e-01,9.99999e-01,1.36778e-07,9.99999e-01
4.739211504e-01,1.86894e-07,9.99999e-01,9.99999e-01,1.86894e-07,9.99999e-01
4.762907561e-01,2.53804e-07,9.99999e-01,9.99999e-01,2.53804e-07,9.99999e-01
4.786722099e-01,3.42591e-07,9.99999e-01,9.99999e-01,3.42591e-07,9.99999e-01
4.810655710e-01,4.59706e-07,9.99999e-01,9.99999e-01,4.59706e-07,9.99999e-01
4.834708988e-01,6.13285e-07,9.99999e-01,9.99999e-01,6.13285e-07,9.99999e-01
4.858882533e-01,8.13526e-07,9.99999e-01,9.99999e-01,8.13526e-07,9.99999e-01
4.883176946e-01,1.07314e-06,9.99999e-01,9.99999e-01,1.07314e-06,9.99999e-01
4.907592831e-01,1.40788e-06,9.99999e-01,9.99999e-01,1.40788e-06,9.99999e-01
4.932130795e-01,1.83716e-06,9.99999e-01,9.99999e-01,1.83716e-06,9.99999e-01
4.956791449e-01,2.38475e-06,9.99999e-01,9.99999e-01,2.38475e-06,9.99999e-01
4.981575406e-01,3.07966e-06,9.99999e-01,9.99999e-01,3.07966e-06,9.99999e-01
5.006483283e-01,3.95702e-06,9.99999e-01,9.99999e-01,3.95702e-06,9.99999e-01
5.031515699e-01,5.05922e-06,9.99999e-01,9.99999e-01,5.05922e-06,9.99999e-01
5.056673278e-01,6.43712e-06,9.99999e-01,9.99999e-01,6.43712e-06,9.99999e-01
5.081956644e-01,8.15141e-06,9.99999e-01,9.99999e-01,8.15141e-06,9.99999e-01
5.107366428e-01,1.02742e-05,9.99999e-01,9.99999e-01,1.02742e-05,9.99999e-01
5.132903260e-01,1.28908e-05,9.99999e-01,9.99999e-01,1.28908e-05,9.99999e-01
5.158567776e-01,1.61014e-05,9.99999e-01,9.99999e-01,1.61014e-05,9.99999e-01
5.184360615e-01,2.00235e-05,9.99999e-01,9.99999e-01,2.00235e-05,9.99999e-01
5.210282418e-01,2.47939e-05,9.99999e-01,9.99999e-01,2.47939e-05,9.99999e-01
5.236333830e-01,3.05716e-05,9.99999e-01,9.99999e-01,3.05716e-05,9.99999e-01
5.262515499e-01,3.75400e-05,9.99999e-01,9.99999e-01,3.75400e-05,9.99999e-01
5.288828077e-01,4.59102e-05,9.99999e-01,9.99999e-01,4.59102e-05,9.99999e-01
5.315272217e-01,5.59239e-05,9.99999e-01,9.99999e-01,5.59239e-05,9.99999e-01
5.341848578e-01,6.78567e-05,9.99999e-01,9.99999e-01,6.78567e-05,9.99999e-01
5.368557821e-01,8.20218e-05,9.99999e-01,9.99999e-01,8.20218e-05,9.99999e-01
5.395400610e-01,9.87732e-05,9.99999e-01,9.99999e-01,9.87732e-05,9.99999e-01
5.422377613e-01,1.18510e-04,9.99999e-01,9.99999e-01,1.18510e-04,9.99999e-01
5.449489501e-01,1.41680e-04,9.99999e-01,9.99999e-01,1.41680e-04,9.99999e-01
5.476736949e-01,1.68783e-04,9.99999e-01,9.99999e-01,1.68783e-04,9.99999e-01
5.504120634e-01,2.00377e-04,9.99999e-01,9.99999e-01,2.00377e-04,9.99999e-01
5.531641237e-01,2.37081e-04,9.99999e-01,9.99999e-01,2.37081e-04,9.99999e-01
5.559299443e-01,2.79577e-04,9.99999e-01,9.99999e-01,2.79577e-04,9.99999e-01
5.587095940e-01,3.28618e-04,9.99999e-01,9.99999e-01,3.28618e-04,9.99999e-01
5.615031420e-01,3.85031e-04,9.99999e-01,9.99999e-01,3.85031e-04,9.99999e-01
5.643106577e-01,4.49718e-04,9.99999e-01,9.99999e-01,4.49718e-04,9.99999e-01
5.671322110e-01,5.23665e-04,9.99999e-01,9.99999e-01,5.23665e-04,9.99999e-01
5.699678720e-01,6.07939e-04,9.99999e-01,9.99999e-01,6.07939e-04,9.99999e-01
5.728177114e-01,7.03699e-04,9.99999e-01,9.99999e-01,7.03699e-04,9.99999e-01
5.756818000e-01,8.12192e-04,9.99999e-01,9.99999e-01,8.12192e-04,9.99999e-01
5.785602090e-01,9.34761e-04,9.99999e-01,9.99999e-01,9.34761e-04,9.99999e-01
5.814530100e-01,1.07284e-03,9.99999e-01,9.99999e-01,1.07284e-03,9.99999e-01
5.843602750e-01,1.22798e-03,9.99999e-01,9.99999e-01,1.22798e-03,9.99999e-01
5.872820764e-01,1.40180e-03,9.99999e-01,9.99999e-01,1.40180e-03,9.99999e-01
5.902184868e-01,1.59605e-03,9.99999e-01,9.99999e-01,1.59605e-03,9.99999e-01
5.931695792e-01,1.81256e-03,9.99999e-01,9.99999e-01,1.81256e-03,9.99999e-01
5.961354271e-01,2.05328e-03,9.99999e-01,9.99999e-01,2.05328e-03,9.99999e-01
5.991161043e-01,2.32025e-03,9.99999e-01,9.99999e-01,2.32025e-03,9.99999e-01
6.021116848e-01,2.61560e-03,9.99999e-01,9.99999e-01,2.61560e-03,9.99999e-01
6.051222432e-01,2.94158e-03,9.99999e-01,9.99999e-01,2.94158e-03,9.99999e-01
6.081478544e-01,3.30053e-03,9.99999e-01,9.99999e-01,3.30053e-03,9.99999e-01
6.111885937e-01,3.69485e-03,9.99999e-01,9.99999e-01,3.69485e-03,9.99999e-01
6.142445367e-01,4.12708e-03,9.99999e-01,9.99999e-01,4.12708e-03,9.99999e-01
6.173157594e-01,4.59981e-03,9.99999e-01,9.99999e-01,4.59981e-03,9.99999e-01
6.204023382e-01,5.11572e-03,9.99999e-01,9.99999e-01,5.11572e-03,9.99999e-01
6.235043498e-01,5.67756e-03,9.99999e-01,9.99999e-01,5.67756e-03,9.99999e-01
6.266218716e-01,6.28814e-03,9.99999e-01,9.99999e-01,6.28814e-03,9.99999e-01
6.297549810e-01,6.95036e-03,9.99999e-01,9.99999e-01,6.95036e-03,9.99999e-01
6.329037559e-01,7.66713e-03,9.99999e-01,9.99999e-01,7.66713e-03,9.99999e-01
6.360682746e-01,8.44144e-03,9.99999e-01,9.99999e-01,8.44144e-03,9.99999e-01
6.392486160e-01,9.27630e-03,9.99999e-01,9.99999e-01,9.27630e-03,9.99999e-01
6.424448591e-01,1.01748e-02,9.99999e-01,9.99999e-01,1.01748e-02,9.99999e-01
6.456570834e-01,1.11399e-02,9.99999e-01,9.99999e-01,1.11399e-02,9.99999e-01
6.488853688e-01,1.21747e-02,9.99999e-01,9.99999e-01,1.21747e-02,9.99999e-01
6.521297956e-01,1.32824e-02,9.99999e-01,9.99999e-01,1.32824e-02,9.99999e-01
6.553904446e-01,1.44659e-02,9.99999e-01,9.99999e-01,1.44659e-02,9.99999e-01
6.586673968e-01,1.57284e-02,9.99999e-01,9.99999e-01,1.57284e-02,9.99999e-01
6.619607338e-01,1.70728e-02,9.99999e-01,9.99999e-01,1.70728e-02,9.99999e-01
6.652705375e-01,1.85021e-02,9.99999e-01,9.99999e-01,1.85021e-02,9.99999e-01
6.685968902e-01,2.00192e-02,9.99999e-01,9.99999e-01,2.00192e-02,9.99999e-01
6.719398746e-01,2.16271e-02,9.99999e-01,9.99999e-01,2.16271e-02,9.99999e-01
6.752995740e-01,2.33284e-02,9.99999e-01,9.99999e-01,2.33284e-02,9.99999e-01
6.786760719e-01,2.51260e-02,9.99999e-01,9.99999e-01,2.51260e-02,9.99999e-01
6.820694522e-01,2.70225e-02,9.99999e-01,9.99999e-01,2.70225e-02,9.99999e-01
6.854797995e-01,2.90204e-02,9.99999e-01,9.99999e-01,2.90204e-02,9.99999e-01
6.889071985e-01,3.11220e-02,9.99999e-01,9.99999e-01,3.11220e-02,9.99999e-01
6.923517345e-01,3.33299e-02,9.99999e-01,9.99999e-01,3.33299e-02,9.99999e-01
6.958134932e-01,3.56461e-02,9.99999e-01,9.99999e-01,3.56461e-02,9.99999e-01
6.992925606e-01,3.80726e-02,9.99999e-01,9.99999e-01,3.80726e-02,9.99999e-01
7.027890234e-01,4.06115e-02,9.99999e-01,9.99999e-01,4.06115e-02,9.99999e-01
7.063029686e-01,4.32645e-02,9.99999e-01,9.99999e-01,4.32645e-02,9.99999e-01
7.098344834e-01,4.60332e-02,9.99999e-01,9.99999e-01,4.60332e-02,9.99999e-01
7.133836558e-01,4.89192e-02,9.99999e-01,9.99999e-01,4.89192e-02,9.99999e-01
7.169505741e-01,5.19237e-02,9.99999e-01,9.99999e-01,5.19237e-02,9.99999e-01
7.205353270e-01,5.50478e-02,9.99999e-01,9.99999e-01,5.50478e-02,9.99999e-01
7.241380036e-01,5.82926e-02,9.99999e-01,9.99999e-01,5.82926e-02,9.99999e-01
7.277586936e-01,6.16589e-02,9.99999e-01,9.99999e-01,6.16589e-02,9.99999e-01
7.313974871e-01,6.51473e-02,9.99999e-01,9.99999e-01,6.51473e-02,9.99999e-01
7.350544745e-01,6.87582e-02,9.99999e-01,9.99999e-01,6.87582e-02,9.99999e-01
7.387297469e-01,7.24921e-02,9.99999e-01,9.99999e-01,7.24921e-02,9.99999e-01
7.424233956e-01,7.63488e-02,9.99999e-01,9.99999e-01,7.63488e-02,9.99999e-01
7.461355126e-01,8.03285e-02,9.99999e-01,9.99999e-01,8.03285e-02,9.99999e-01
7.498661902e-01,8.44309e-02,9.99999e-01,9.99999e-01,8.44309e-02,9.99999e-01
7.536155211e-01,8.86555e-02,9.99999e-01,9.99999e-01,8.86555e-02,9.99999e-01
7.573835987e-01,9.30017e-02,9.99999e-01,9.99999e-01,9.30017e-02,9.99999e-01
7.611705167e-01,9.74689e-02,9.99999e-01,9.99999e-01,9.74689e-02,9.99999e-01
7.649763693e-01,1.02056e-01,9.99999e-01,9.99999e-01,1.02056e-01,9.99999e-01
7.688012511e-01,1.06762e-01,9.99999e-01,9.99999e-01,1.06762e-01,9.99999e-01
7.726452574e-01,1.11585e-01,9.99999e-01,9.99999e-01,1.11585e-01,9.99999e-01
7.765084837e-01,1.16525e-01,9.99999e-01,9.99999e-01,1.16525e-01,9.99999e-01
7.803910261e-01,1.12068e-01,9.99999e-01,9.21768e-01,1.21579e-01,9.99999e-01
7.842929812e-01,8.34263e-02,9.99999e-01,6.58213e-01,1.26747e-01,9.99999e-01
7.882144461e-01,8.51210e-02,9.99999e-01,6.44734e-01,1.32025e-01,9.99999e-01
7.921555184e-01,1.05056e-01,9.99999e-01,7.64528e-01,1.37412e-01,9.99999e-01
7.961162960e-01,1.18998e-01,9.99999e-01,8.32699e-01,1.42906e-01,9.99999e-01
8.000968774e-01,1.34476e-01,9.99999e-01,9.05530e-01,1.48505e-01,9.99999e-01
8.040973618e-01,1.46429e-01,9.99999e-01,9.49567e-01,1.54206e-01,9.99999e-01
8.081178486e-01,1.56266e-01,9.99999e-01,9.76623e-01,1.60007e-01,9.99999e-01
8.121584379e-01,1.64685e-01,9.99999e-01,9.92650e-01,1.65904e-01,9.99999e-01
8.162192301e-01,1.71617e-01,9.99999e-01,9.98371e-01,1.71897e-01,9.99999e-01
8.203003262e-01,1.77976e-01,9.99999e-01,9.99972e-01,1.77981e-01,9.99999e-01
8.244018279e-01,1.84154e-01,9.99999e-01,9.99999e-01,1.84154e-01,9.99999e-01
8.285238370e-01,1.90412e-01,9.99999e-01,9.99999e-01,1.90412e-01,9.99999e-01
8.326664562e-01,1.96754e-01,9.99999e-01,9.99999e-01,1.96754e-01,9.99999e-01
8.368297885e-01,2.03175e-01,9.99999e-01,9.99999e-01,2.03175e-01,9.99999e-01
8.410139374e-01,2.09672e-01,9.99999e-01,9.99999e-01,2.09672e-01,9.99999e-01
8.452190071e-01,2.16243e-01,9.99999e-01,9.99999e-01,2.16243e-01,9.99999e-01
8.494451021e-01,2.22884e-01,9.99999e-01,9.99999e-01,2.22884e-01,9.99999e-01
8.536923276e-01,2.29591e-01,9.99999e-01,9.99999e-01,2.29591e-01,9.99999e-01
8.579607893e-01,2.36362e-01,9.99999e-01,9.99999e-01,2.36362e-01,9.99999e-01
8.622505932e-01,2.43193e-01,9.99999e-01,9.99999e-01,2.43193e-01,9.99999e-01
8.665618462e-01,2.19524e-01,9.99999e-01,8.77812e-01,2.50081e-01,9.99999e-01
8.708946554e-01,9.23666e-02,9.99999e-01,3.59372e-01,2.57022e-01,9.99999e-01
8.752491287e-01,1.12311e-01,9.99999e-01,4.25401e-01,2.64012e-01,9.99999e-01
8.796253743e-01,1.67452e-01,9.99999e-01,6.17791e-01,2.71050e-01,9.99999e-01
8.840235012e-01,2.15789e-01,9.99999e-01,7.75856e-01,2.78130e-01,9.99999e-01
8.884436187e-01,2.57802e-01,9.99999e-01,9.03776e-01,2.85250e-01,9.99999e-01
8.928858368e-01,2.80679e-01,9.99999e-01,9.59897e-01,2.92406e-01,9.99999e-01
8.973502660e-01,2.96608e-01,9.99999e-01,9.90029e-01,2.99594e-01,9.99999e-01
9.018370173e-01,3.06473e-01,9.99999e-01,9.98893e-01,3.06813e-01,9.99999e-01
9.063462024e-01,3.05741e-01,9.99999e-01,9.73517e-01,3.14057e-01,9.99999e-01
9.108779334e-01,3.01301e-01,9.99999e-01,9.37681e-01,3.21325e-01,9.99999e-01
9.154323231e-01,3.23628e-01,9.99999e-01,9.84832e-01,3.28612e-01,9.99999e-01
9.200094847e-01,2.77575e-01,9.99999e-01,8.26324e-01,3.35915e-01,9.99999e-01
9.246095321e-01,2.51057e-01,9.99999e-01,7.31449e-01,3.43232e-01,9.99999e-01
9.292325798e-01,2.76197e-01,9.99999e-01,7.87874e-01,3.50559e-01,9.99999e-01
9.338787427e-01,2.82825e-01,9.99999e-01,7.90249e-01,3.57893e-01,9.99999e-01
9.385481364e-01,3.06816e-01,9.99999e-01,8.40058e-01,3.65231e-01,9.99999e-01
9.432408771e-01,3.34525e-01,9.99999e-01,8.97883e-01,3.72570e-01,9.99999e-01
9.479570815e-01,3.59543e-01,9.99999e-01,9.46394e-01,3.79908e-01,9.99999e-01
9.526968669e-01,3.77076e-01,9.99999e-01,9.73751e-01,3.87240e-01,9.99999e-01
9.574603512e-01,3.90096e-01,9.99999e-01,9.88673e-01,3.94565e-01,9.99999e-01
9.622476530e-01,4.00453e-01,9.99999e-01,9.96448e-01,4.01880e-01,9.99999e-01
9.670588912e-01,4.08745e-01,9.99999e-01,9.98931e-01,4.09182e-01,9.99999e-01
9.718941857e-01,4.16436e-01,9.99999e-01,9.99922e-01,4.16468e-01,9.99999e-01
9.767536566e-01,4.23737e-01,9.99999e-01,9.99999e-01,4.23737e-01,9.99999e-01
9.816374249e-01,4.30985e-01,9.99999e-01,9.99999e-01,4.30985e-01,9.99999e-01
9.865456120e-01,4.38210e-01,9.99999e-01,9.99999e-01,4.38210e-01,9.99999e-01
9.914783401e-01,4.45410e-01,9.99999e-01,9.99999e-01,4.45410e-01,9.99999e-01
9.964357318e-01,4.52583e-01,9.99999e-01,9.99999e-01,4.52583e-01,9.99999e-01
1.001417910e+00,4.59726e-01,9.99999e-01,9.99999e-01,4.59726e-01,9.99999e-01
1.006425000e+00,4.66837e-01,9.99999e-01,9.99999e-01,4.66837e-01,9.99999e-01
1.011457125e+00,4.73914e-01,9.99999e-01,9.99999e-01,4.73914e-01,9.99999e-01
1.016514411e+00,4.80956e-01,9.99999e-01,9.99999e-01,4.80956e-01,9.99999e-01
1.021596983e+00,4.87898e-01,9.99999e-01,9.99870e-01,4.87961e-01,9.99999e-01
1.026704968e+00,4.89732e-01,9.99999e-01,9.89504e-01,4.94926e-01,9.99999e-01
1.031838492e+00,4.59178e-01,9.99999e-01,9.14970e-01,5.01850e-01,9.99999e-01
1.036997685e+00,2.89695e-02,9.99999e-01,5.69446e-02,5.08731e-01,9.99999e-01
1.042182673e+00,2.48075e-03,9.99999e-01,4.81168e-03,5.15568e-01,9.99999e-01
1.047393587e+00,6.30115e-03,9.99999e-01,1.20629e-02,5.22358e-01,9.99999e-01
1.052630555e+00,1.27679e-06,9.99999e-01,2.41313e-06,5.29102e-01,9.99999e-01
1.057893707e+00,4.66625e-06,9.99999e-01,8.70898e-06,5.35797e-01,9.99999e-01
1.063183176e+00,9.59591e-05,9.99999e-01,1.76902e-04,5.42442e-01,9.99999e-01
1.068499092e+00,8.68284e-04,9.99999e-01,1.58147e-03,5.49035e-01,9.99999e-01
1.073841587e+00,8.71703e-03,9.99999e-01,1.56900e-02,5.55576e-01,9.99999e-01
1.079210795e+00,4.12378e-02,9.99999e-01,7.33685e-02,5.62064e-01,9.99999e-01
1.084606849e+00,1.29136e-01,9.99999e-01,2.27153e-01,5.68497e-01,9.99999e-01
1.090029883e+00,2.64758e-01,9.99999e-01,4.60549e-01,5.74874e-01,9.99999e-01
1.095480033e+00,3.95863e-01,9.99999e-01,6.81118e-01,5.81195e-01,9.99999e-01
1.100957433e+00,4.87786e-01,9.99999e-01,8.30332e-01,5.87458e-01,9.99999e-01
1.106462220e+00,5.49608e-01,9.99999e-01,9.25789e-01,5.93663e-01,9.99999e-01
1.111994531e+00,5.82892e-01,9.99999e-01,9.71794e-01,5.99810e-01,9.99999e-01
1.117554504e+00,6.01656e-01,9.99999e-01,9.93001e-01,6.05896e-01,9.99999e-01
1.123142276e+00,6.11639e-01,9.99999e-01,9.99535e-01,6.11922e-01,9.99999e-01
1.128757988e+00,6.17888e-01,9.99999e-01,9.99999e-01,6.17888e-01,9.99999e-01
1.134401778e+00,6.23792e-01,9.99999e-01,9.99999e-01,6.23792e-01,9.99999e-01
1.140073787e+00,6.29634e-01,9.99999e-01,9.99999e-01,6.29634e-01,9.99999e-01
1.145774156e+00,6.35414e-01,9.99999e-01,9.99999e-01,6.35414e-01,9.99999e-01
1.151503026e+00,6.41131e-01,9.99999e-01,9.99999e-01,6.41131e-01,9.99999e-01
1.157260541e+00,6.46785e-01,9.99999e-01,9.99999e-01,6.46785e-01,9.99999e-01
1.163046844e+00,6.52376e-01,9.99999e-01,9.99999e-01,6.52376e-01,9.99999e-01
1.168862078e+00,6.57903e-01,9.99999e-01,9.99999e-01,6.57903e-01,9.99999e-01
1.174706389e+00,6.63367e-01,9.99999e-01,9.99999e-01,6.63367e-01,9.99999e-01
1.180579921e+00,6.68767e-01,9.99999e-01,9.99999e-01,6.68767e-01,9.99999e-01
1.186482820e+00,6.74094e-01,9.99999e-01,9.99986e-01,6.74102e-01,9.99999e-01
1.192415234e+00,6.55161e-01,9.99999e-01,9.64358e-01,6.79374e-01,9.99999e-01
1.198377311e+00,3.58556e-01,9.99999e-01,5.23758e-01,6.84582e-01,9.99999e-01
1.204369197e+00,2.93312e-28,9.99999e-01,4.25259e-28,6.89725e-01,9.99999e-01
1.210391043e+00,5.39056e-114,9.99999e-01,7.75837e-114,6.94804e-01,9.99999e-01
1.216442998e+00,1.15729e-98,9.99999e-01,1.65369e-98,6.99820e-01,9.99999e-01
1.222525213e+00,3.48119e-97,9.99999e-01,4.93945e-97,7.04771e-01,9.99999e-01
1.228637839e+00,5.37829e-75,9.99999e-01,7.57869e-75,7.09659e-01,9.99999e-01
1.234781029e+00,1.02981e-46,9.99999e-01,1.44134e-46,7.14482e-01,9.99999e-01
1.240954934e+00,4.97614e-31,9.99999e-01,6.91858e-31,7.19243e-01,9.99999e-01
1.247159708e+00,7.25979e-20,9.99999e-01,1.00282e-19,7.23940e-01,9.99999e-01
1.253395507e+00,3.21225e-10,9.99999e-01,4.40895e-10,7.28574e-01,9.99999e-01
1.259662485e+00,1.81077e-06,9.99999e-01,2.46986e-06,7.33146e-01,9.99999e-01
1.265960797e+00,8.41065e-04,9.99999e-01,1.14019e-03,7.37655e-01,9.99999e-01
1.272290601e+00,2.56686e-02,9.99999e-01,3.45891e-02,7.42102e-01,9.99999e-01
1.278652054e+00,2.99200e-02,9.99999e-01,4.00811e-02,7.46487e-01,9.99999e-01
1.285045314e+00,4.91276e-05,9.99999e-01,6.54327e-05,7.50810e-01,9.99999e-01
1.291470541e+00,1.52334e-13,9.99999e-01,2.01747e-13,7.55073e-01,9.99999e-01
1.297927893e+00,5.53320e-06,9.99999e-01,7.28748e-06,7.59274e-01,9.99999e-01
1.304417533e+00,2.36056e-03,9.99999e-01,3.09209e-03,7.63416e-01,9.99999e-01
1.310939621e+00,6.31362e-04,9.99999e-01,8.22624e-04,7.67497e-01,9.99999e-01
1.317494319e+00,7.58575e-39,9.99999e-01,9.83221e-39,7.71520e-01,9.99999e-01
1.324081790e+00,1.53838e-25,9.99999e-01,1.98377e-25,7.75483e-01,9.99999e-01
1.330702199e+00,3.40252e-15,9.99999e-01,4.36563e-15,7.79387e-01,9.99999e-01
1.337355710e+00,5.81668e-14,9.99999e-01,7.42648e-14,7.83234e-01,9.99999e-01
1.344042489e+00,3.04630e-14,9.99999e-01,3.87065e-14,7.87023e-01,9.99999e-01
1.350762701e+00,1.66725e-15,9.99999e-01,2.10843e-15,7.90755e-01,9.99999e-01
1.357516515e+00,1.49039e-09,9.99999e-01,1.87605e-09,7.94430e-01,9.99999e-01
1.364304097e+00,5.01437e-07,9.99999e-01,6.28327e-07,7.98050e-01,9.99999e-01
1.371125618e+00,5.52000e-04,9.99999e-01,6.88611e-04,8.01614e-01,9.99999e-01
1.377981246e+00,1.50682e-03,9.99999e-01,1.87154e-03,8.05122e-01,9.99999e-01
1.384871152e+00,2.07596e-02,9.99999e-01,2.56742e-02,8.08577e-01,9.99999e-01
1.391795508e+00,2.75711e-02,9.99999e-01,3.39554e-02,8.11978e-01,9.99999e-01
1.398754485e+00,9.71571e-02,9.99999e-01,1.19163e-01,8.15325e-01,9.99999e-01
1.405748258e+00,1.73351e-01,9.99999e-01,2.11760e-01,8.18620e-01,9.99999e-01
1.412776999e+00,3.05667e-01,9.99999e-01,3.71920e-01,8.21862e-01,9.99999e-01
1.419840884e+00,2.90613e-01,9.99999e-01,3.52235e-01,8.25053e-01,9.99999e-01
1.426940089e+00,1.12433e-02,9.99999e-01,1.35757e-02,8.28193e-01,9.99999e-01
1.434074789e+00,0.00000e+00,9.99999e-01,0.00000e+00,8.31283e-01,9.99999e-01
1.441245163e+00,0.00000e+00,9.99999e-01,0.00000e+00,8.34322e-01,9.99999e-01
1.448451389e+00,0.00000e+00,9.99998e-01,0.00000e+00,8.37313e-01,9.99999e-01
1.455693646e+00,0.00000e+00,9.99999e-01,0.00000e+00,8.40255e-01,9.99999e-01
1.462972114e+00,0.00000e+00,9.99999e-01,0.00000e+00,8.43148e-01,9.99999e-01
1.470286975e+00,7.43812e-189,9.99999e-01,8.79216e-189,8.45995e-01,9.99999e-01
