#,Wave/freq,Total,N2,CO2,Rayleigh,CIA
4.000000000e-01,1.14814e-03,9.99999e-01,9.99999e-01,1.14814e-03,9.99999e-01
4.020000000e-01,1.31258e-03,9.99999e-01,9.99999e-01,1.31258e-03,9.99999e-01
4.040100000e-01,1.49641e-03,9.99999e-01,9.99999e-01,1.49641e-03,9.99999e-01
4.060300500e-01,1.70157e-03,9.99999e-01,9.99999e-01,1.70157e-03,9.99999e-01
4.080602003e-01,1.92996e-03,9.99999e-01,9.99999e-01,1.92996e-03,9.99999e-01
4.101005013e-01,2.18356e-03,9.99999e-01,9.99999e-01,2.18356e-03,9.99999e-01
4.121510038e-01,2.46447e-03,9.99999e-01,9.99999e-01,2.46447e-03,9.99999e-01
4.142117588e-01,2.77487e-03,9.99999e-01,9.99999e-01,2.77487e-03,9.99999e-01
4.162828176e-01,3.11706e-03,9.99999e-01,9.99999e-01,3.11706e-03,9.99999e-01
4.183642317e-01,3.49341e-03,9.99999e-01,9.99999e-01,3.49341e-03,9.99999e-01
4.204560528e-01,3.90640e-03,9.99999e-01,9.99999e-01,3.90640e-03,9.99999e-01
4.225583331e-01,4.35858e-03,9.99999e-01,9.99999e-01,4.35858e-03,9.99999e-01
4.246711247e-01,4.85259e-03,9.99999e-01,9.99999e-01,4.85259e-03,9.99999e-01
4.267944804e-01,5.39115e-03,9.99999e-01,9.99999e-01,5.39115e-03,9.99999e-01
4.289284528e-01,5.97704e-03,9.99999e-01,9.99999e-01,5.97704e-03,9.99999e-01
4.310730950e-01,6.61312e-03,9.99999e-01,9.99999e-01,6.61312e-03,9.99999e-01
4.332284605e-01,7.30228e-03,9.99999e-01,9.99999e-01,7.30228e-03,9.99999e-01
4.353946028e-01,8.04750e-03,9.99999e-01,9.99999e-01,8.04750e-03,9.99999e-01
4.375715758e-01,8.85175e-03,9.99999e-01,9.99999e-01,8.85175e-03,9.99999e-01
4.397594337e-01,9.71808e-03,9.99999e-01,9.99999e-01,9.71808e-03,9.99999e-01
4.419582309e-01,1.06495e-02,9.99999e-01,9.99999e-01,1.06495e-02,9.99999e-01
4.441680220e-01,1.16492e-02,9.99999e-01,9.99999e-01,1.16492e-02,9.99999e-01
4.463888621e-01,1.27201e-02,9.99999e-01,9.99999e-01,1.27201e-02,9.99999e-01
4.486208064e-01,1.38654e-02,9.99999e-01,9.99999e-01,1.38654e-02,9.99999e-01
4.508639105e-01,1.50881e-02,9.99999e-01,9.99999e-01,1.50881e-02,9.99999e-01
4.531182300e-01,1.63912e-02,9.99999e-01,9.99999e-01,1.63912e-02,9.99999e-01
4.553838212e-01,1.77777e-02,9.99999e-01,9.99999e-01,1.77777e-02,9.99999e-01
4.576607403e-01,1.92506e-02,9.99999e-01,9.99999e-01,1.92506e-02,9.99999e-01
4.599490440e-01,2.08129e-02,9.99999e-01,9.99999e-01,2.08129e-02,9.99999e-01
4.622487892e-01,2.24672e-02,9.99999e-01,9.99999e-01,2.24672e-02,9.99999e-01
4.645600332e-01,2.42164e-02,9.99999e-01,9.99999e-01,2.42164e-02,9.99999e-01
4.668828333e-01,2.60632e-02,9.99999e-01,9.99999e-01,2.60632e-02,9.99999e-01
4.692172475e-01,2.80101e-02,9.99999e-01,9.99999e-01,2.80101e-02,9.99999e-01
4.715633337e-01,3.00597e-02,9.99999e-01,9.99999e-01,3.00597e-02,9.99999e-01
4.739211504e-01,3.22142e-02,9.99999e-01,9.99999e-01,3.22142e-02,9.99999e-01
4.762907561e-01,3.44761e-02,9.99999e-01,9.99999e-01,3.44761e-02,9.99999e-01
4.786722099e-01,3.68473e-02,9.99999e-01,9.99999e-01,3.68473e-02,9.99999e-01
4.810655710e-01,3.93299e-02,9.99999e-01,9.99999e-01,3.93299e-02,9.99999e-01
4.834708988e-01,4.19257e-02,9.99999e-01,9.99999e-01,4.19257e-02,9.99999e-01
4.858882533e-01,4.46364e-02,9.99999e-01,9.99999e-01,4.46364e-02,9.99999e-01
4.883176946e-01,4.74637e-02,9.99999e-01,9.99999e-01,4.74637e-02,9.99999e-01
4.907592831e-01,5.04088e-02,9.99999e-01,9.99999e-01,5.04088e-02,9.99999e-01
4.932130795e-01,5.34731e-02,9.99999e-01,9.99999e-01,5.34731e-02,9.99999e-01
4.956791449e-01,5.66575e-02,9.99999e-01,9.99999e-01,5.66575e-02,9.99999e-01
4.981575406e-01,5.99631e-02,9.99999e-01,9.99999e-01,5.99631e-02,9.99999e-01
5.006483283e-01,6.33904e-02,9.99999e-01,9.99999e-01,6.33904e-02,9.99999e-01
5.031515699e-01,6.69402e-02,9.99999e-01,9.99999e-01,6.69402e-02,9.99999e-01
5.056673278e-01,7.06126e-02,9.99999e-01,9.99999e-01,7.06126e-02,9.99999e-01
5.081956644e-01,7.44080e-02,9.99999e-01,9.99999e-01,7.44080e-02,9.99999e-01
5.107366428e-01,7.83264e-02,9.99999e-01,9.99999e-01,7.83264e-02,9.99999e-01
5.132903260e-01,8.23675e-02,9.99999e-01,9.99999e-01,8.23675e-02,9.99999e-01
5.158567776e-01,8.65312e-02,9.99999e-01,9.99999e-01,8.65312e-02,9.99999e-01
5.184360615e-01,9.08168e-02,9.99999e-01,9.99999e-01,9.08168e-02,9.99999e-01
5.210282418e-01,9.52237e-02,9.99999e-01,9.99999e-01,9.52237e-02,9.99999e-01
5.236333830e-01,9.97510e-02,9.99999e-01,9.99999e-01,9.97510e-02,9.99999e-01
5.262515499e-01,1.04398e-01,9.99999e-01,9.99999e-01,1.04398e-01,9.99999e-01
5.288828077e-01,1.09163e-01,9.99999e-01,9.99999e-01,1.09163e-01,9.99999e-01
5.315272217e-01,1.14045e-01,9.99999e-01,9.99999e-01,1.14045e-01,9.99999e-01
5.341848578e-01,1.19042e-01,9.99999e-01,9.99999e-01,1.19042e-01,9.99999e-01
5.368557821e-01,1.24153e-01,9.99999e-01,9.99999e-01,1.24153e-01,9.99999e-01
5.395400610e-01,1.29376e-01,9.99999e-01,9.99999e-01,1.29376e-01,9.99999e-01
5.422377613e-01,1.34709e-01,9.99999e-01,9.99999e-01,1.34709e-01,9.99999e-01
5.449489501e-01,1.40150e-01,9.99999e-01,9.99999e-01,1.40150e-01,9.99999e-01
5.476736949e-01,1.45697e-01,9.99999e-01,9.99999e-01,1.45697e-01,9.99999e-01
5.504120634e-01,1.51347e-01,9.99999e-01,9.99999e-01,1.51347e-01,9.99999e-01
5.531641237e-01,1.57098e-01,9.99999e-01,9.99999e-01,1.57098e-01,9.99999e-01
5.559299443e-01,1.62948e-01,9.99999e-01,9.99999e-01,1.62948e-01,9.99999e-01
5.587095940e-01,1.68894e-01,9.99999e-01,9.99999e-01,1.68894e-01,9.99999e-01
5.615031420e-01,1.74932e-01,9.99999e-01,9.99999e-01,1.74932e-01,9.99999e-01
5.643106577e-01,1.81061e-01,9.99999e-01,9.99999e-01,1.81061e-01,9.99999e-01
5.671322110e-01,1.87277e-01,9.99999e-01,9.99999e-01,1.87277e-01,9.99999e-01
5.699678720e-01,1.93578e-01,9.99999e-01,9.99999e-01,1.93578e-01,9.99999e-01
5.728177114e-01,1.99959e-01,9.99999e-01,9.99999e-01,1.99959e-01,9.99999e-01
5.756818000e-01,2.06419e-01,9.99999e-01,9.99999e-01,2.06419e-01,9.99999e-01
5.785602090e-01,2.12954e-01,9.99999e-01,9.99999e-01,2.12954e-01,9.99999e-01
5.814530100e-01,2.19560e-01,9.99999e-01,9.99999e-01,2.19560e-01,9.99999e-01
5.843602750e-01,2.26234e-01,9.99999e-01,9.99999e-01,2.26234e-01,9.99999e-01
5.872820764e-01,2.32974e-01,9.99999e-01,9.99999e-01,2.32974e-01,9.99999e-01
5.902184868e-01,2.39776e-01,9.99999e-01,9.99999e-01,2.39776e-01,9.99999e-01
5.931695792e-01,2.46635e-01,9.99999e-01,9.99999e-01,2.46635e-01,9.99999e-01
5.961354271e-01,2.53550e-01,9.99999e-01,9.99999e-01,2.53550e-01,9.99999e-01
5.991161043e-01,2.60516e-01,9.99999e-01,9.99999e-01,2.60516e-01,9.99999e-01
6.021116848e-01,2.67531e-01,9.99999e-01,9.99999e-01,2.67531e-01,9.99999e-01
6.051222432e-01,2.74590e-01,9.99999e-01,9.99999e-01,2.74590e-01,9.99999e-01
6.081478544e-01,2.81690e-01,9.99999e-01,9.99999e-01,2.81690e-01,9.99999e-01
6.111885937e-01,2.88829e-01,9.99999e-01,9.99999e-01,2.88829e-01,9.99999e-01
6.142445367e-01,2.96002e-01,9.99999e-01,9.99999e-01,2.96002e-01,9.99999e-01
6.173157594e-01,3.03206e-01,9.99999e-01,9.99999e-01,3.03206e-01,9.99999e-01
6.204023382e-01,3.10438e-01,9.99999e-01,9.99999e-01,3.10438e-01,9.99999e-01
6.235043498e-01,3.17694e-01,9.99999e-01,9.99999e-01,3.17694e-01,9.99999e-01
6.266218716e-01,3.24972e-01,9.99999e-01,9.99999e-01,3.24972e-01,9.99999e-01
6.297549810e-01,3.32267e-01,9.99999e-01,9.99999e-01,3.32267e-01,9.99999e-01
6.329037559e-01,3.39578e-01,9.99999e-01,9.99999e-01,3.39578e-01,9.99999e-01
6.360682746e-01,3.46900e-01,9.99999e-01,9.99999e-01,3.46900e-01,9.99999e-01
6.392486160e-01,3.54231e-01,9.99999e-01,9.99999e-01,3.54231e-01,9.99999e-01
6.424448591e-01,3.61568e-01,9.99999e-01,9.99999e-01,3.61568e-01,9.99999e-01
6.456570834e-01,3.68906e-01,9.99999e-01,9.99999e-01,3.68906e-01,9.99999e-01
6.488853688e-01,3.76245e-01,9.99999e-01,9.99999e-01,3.76245e-01,9.99999e-01
6.521297956e-01,3.83580e-01,9.99999e-01,9.99999e-01,3.83580e-01,9.99999e-01
6.553904446e-01,3.90909e-01,9.99999e-01,9.99999e-01,3.90909e-01,9.99999e-01
6.586673968e-01,3.98230e-01,9.99999e-01,9.99999e-01,3.98230e-01,9.99999e-01
6.619607338e-01,4.05538e-01,9.99999e-01,9.99999e-01,4.05538e-01,9.99999e-01
6.652705375e-01,4.12833e-01,9.99999e-01,9.99999e-01,4.12833e-01,9.99999e-01
6.685968902e-01,4.20111e-01,9.99999e-01,9.99999e-01,4.20111e-01,9.99999e-01
6.719398746e-01,4.27369e-01,9.99999e-01,9.99999e-01,4.27369e-01,9.99999e-01
6.752995740e-01,4.34606e-01,9.99999e-01,9.99999e-01,4.34606e-01,9.99999e-01
6.786760719e-01,4.41819e-01,9.99999e-01,9.99999e-01,4.41819e-01,9.99999e-01
6.820694522e-01,4.49005e-01,9.99999e-01,9.99999e-01,4.49005e-01,9.99999e-01
6.854797995e-01,4.56163e-01,9.99999e-01,9.99999e-01,4.56163e-01,9.99999e-01
6.889071985e-01,4.63291e-01,9.99999e-01,9.99999e-01,4.63291e-01,9.99999e-01
6.923517345e-01,4.70385e-01,9.99999e-01,9.99999e-01,4.70385e-01,9.99999e-01
6.958134932e-01,4.77445e-01,9.99999e-01,9.99999e-01,4.77445e-01,9.99999e-01
6.992925606e-01,4.84469e-01,9.99999e-01,9.99999e-01,4.84469e-01,9.99999e-01
7.027890234e-01,4.91454e-01,9.99999e-01,9.99999e-01,4.91454e-01,9.99999e-01
7.063029686e-01,4.98398e-01,9.99999e-01,9.99999e-01,4.98398e-01,9.99999e-01
7.098344834e-01,5.05301e-01,9.99999e-01,9.99999e-01,5.05301e-01,9.99999e-01
7.133836558e-01,5.12160e-01,9.99999e-01,9.99999e-01,5.12160e-01,9.99999e-01
7.169505741e-01,5.18974e-01,9.99999e-01,9.99999e-01,5.18974e-01,9.99999e-01
7.205353270e-01,5.25741e-01,9.99999e-01,9.99999e-01,5.25741e-01,9.99999e-01
7.241380036e-01,5.32461e-01,9.99999e-01,9.99999e-01,5.32461e-01,9.99999e-01
7.277586936e-01,5.39131e-01,9.99999e-01,9.99999e-01,5.39131e-01,9.99999e-01
7.313974871e-01,5.45750e-01,9.99999e-01,9.99999e-01,5.45750e-01,9.99999e-01
7.350544745e-01,5.52318e-01,9.99999e-01,9.99999e-01,5.52318e-01,9.99999e-01
7.387297469e-01,5.58832e-01,9.99999e-01,9.99999e-01,5.58832e-01,9.99999e-01
7.424233956e-01,5.65292e-01,9.99999e-01,9.99999e-01,5.65292e-01,9.99999e-01
7.461355126e-01,5.71697e-01,9.99999e-01,9.99999e-01,5.71697e-01,9.99999e-01
7.498661902e-01,5.78047e-01,9.99999e-01,9.99999e-01,5.78047e-01,9.99999e-01
7.536155211e-01,5.84339e-01,9.99999e-01,9.99999e-01,5.84339e-01,9.99999e-01
7.573835987e-01,5.90573e-01,9.99999e-01,9.99999e-01,5.90573e-01,9.99999e-01
7.611705167e-01,5.96749e-01,9.99999e-01,9.99999e-01,5.96749e-01,9.99999e-01
7.649763693e-01,6.02865e-01,9.99999e-01,9.99999e-01,6.02865e-01,9.99999e-01
7.688012511e-01,6.08922e-01,9.99999e-01,9.99999e-01,6.08922e-01,9.99999e-01
7.726452574e-01,6.14917e-01,9.99999e-01,9.99999e-01,6.14917e-01,9.99999e-01
7.765084837e-01,6.20852e-01,9.99999e-01,9.99999e-01,6.20852e-01,9.99999e-01
7.803910261e-01,6.12367e-01,9.99999e-01,9.77090e-01,6.26725e-01,9.99999e-01
7.842929812e-01,5.73520e-01,9.99999e-01,9.06698e-01,6.32536e-01,9.99999e-01
7.882144461e-01,5.74396e-01,9.99999e-01,8.99904e-01,6.38285e-01,9.99999e-01
7.921555184e-01,6.05950e-01,9.99999e-01,9.40959e-01,6.43970e-01,9.99999e-01
7.961162960e-01,6.23805e-01,9.99999e-01,9.60301e-01,6.49593e-01,9.99999e-01
8.000968774e-01,6.40917e-01,9.99999e-01,9.78271e-01,6.55152e-01,9.99999e-01
8.040973618e-01,6.53190e-01,9.99999e-01,9.88711e-01,6.60647e-01,9.99999e-01
8.081178486e-01,6.62612e-01,9.99999e-01,9.94794e-01,6.66079e-01,9.99999e-01
8.121584379e-01,6.70370e-01,9.99999e-01,9.98396e-01,6.71447e-01,9.99999e-01
8.162192301e-01,6.76511e-01,9.99999e-01,9.99645e-01,6.76750e-01,9.99999e-01
8.203003262e-01,6.81986e-01,9.99999e-01,9.99994e-01,6.81990e-01,9.99999e-01
8.244018279e-01,6.87165e-01,9.99999e-01,9.99999e-01,6.87165e-01,9.99999e-01
8.285238370e-01,6.92277e-01,9.99999e-01,9.99999e-01,6.92277e-01,9.99999e-01
8.326664562e-01,6.97324e-01,9.99999e-01,9.99999e-01,6.97324e-01,9.99999e-01
8.368297885e-01,7.02307e-01,9.99999e-01,9.99999e-01,7.02307e-01,9.99999e-01
8.410139374e-01,7.07226e-01,9.99999e-01,9.99999e-01,7.07226e-01,9.99999e-01
8.452190071e-01,7.12082e-01,9.99999e-01,9.99999e-01,7.12082e-01,9.99999e-01
8.494451021e-01,7.16874e-01,9.99999e-01,9.99999e-01,7.16874e-01,9.99999e-01
8.536923276e-01,7.21603e-01,9.99999e-01,9.99999e-01,7.21603e-01,9.99999e-01
8.579607893e-01,7.26269e-01,9.99999e-01,9.99999e-01,7.26269e-01,9.99999e-01
8.622505932e-01,7.30871e-01,9.99999e-01,9.99999e-01,7.30871e-01,9.99999e-01
8.665618462e-01,6.93573e-01,9.99999e-01,9.43108e-01,7.35412e-01,9.99999e-01
8.708946554e-01,5.75142e-01,9.99999e-01,7.77334e-01,7.39889e-01,9.99999e-01
8.752491287e-01,6.08882e-01,9.99999e-01,8.18053e-01,7.44305e-01,9.99999e-01
8.796253743e-01,6.71038e-01,9.99999e-01,8.96319e-01,7.48659e-01,9.99999e-01
8.840235012e-01,7.11549e-01,9.99999e-01,9.45011e-01,7.52952e-01,9.99999e-01
8.884436187e-01,7.40545e-01,9.99999e-01,9.78023e-01,7.57184e-01,9.99999e-01
8.928858368e-01,7.54534e-01,9.99999e-01,9.91039e-01,7.61356e-01,9.99999e-01
8.973502660e-01,7.63801e-01,9.99999e-01,9.97823e-01,7.65467e-01,9.99999e-01
9.018370173e-01,7.69335e-01,9.99999e-01,9.99759e-01,7.69519e-01,9.99999e-01
9.063462024e-01,7.68672e-01,9.99999e-01,9.93743e-01,7.73511e-01,9.99999e-01
9.108779334e-01,7.66464e-01,9.99999e-01,9.85875e-01,7.77445e-01,9.99999e-01
9.154323231e-01,7.78730e-01,9.99999e-01,9.96683e-01,7.81321e-01,9.99999e-01
9.200094847e-01,7.46769e-01,9.99999e-01,9.51129e-01,7.85138e-01,9.99999e-01
9.246095321e-01,7.35751e-01,9.99999e-01,9.32629e-01,7.88899e-01,9.99999e-01
9.292325798e-01,7.50109e-01,9.99999e-01,9.46387e-01,7.92602e-01,9.99999e-01
9.338787427e-01,7.55220e-01,9.99999e-01,9.48471e-01,7.96250e-01,9.99999e-01
9.385481364e-01,7.69387e-01,9.99999e-01,9.61924e-01,7.99841e-01,9.99999e-01
9.432408771e-01,7.84555e-01,9.99999e-01,9.76570e-01,8.03378e-01,9.99999e-01
9.479570815e-01,7.97099e-01,9.99999e-01,9.87902e-01,8.06859e-01,9.99999e-01
9.526968669e-01,8.05550e-01,9.99999e-01,9.94154e-01,8.10287e-01,9.99999e-01
9.574603512e-01,8.11625e-01,9.99999e-01,9.97497e-01,8.13661e-01,9.99999e-01
9.622476530e-01,8.16344e-01,9.99999e-01,9.99219e-01,8.16982e-01,9.99999e-01
9.670588912e-01,8.20059e-01,9.99999e-01,9.99766e-01,8.20250e-01,9.99999e-01
9.718941857e-01,8.23453e-01,9.99999e-01,9.99983e-01,8.23467e-01,9.99999e-01
9.767536566e-01,8.26632e-01,9.99999e-01,9.99999e-01,8.26632e-01,9.99999e-01
9.816374249e-01,8.29747e-01,9.99999e-01,9.99999e-01,8.29747e-01,9.99999e-01
9.865456120e-01,8.32811e-01,9.99999e-01,9.99999e-01,8.32811e-01,9.99999e-01
9.914783401e-01,8.35826e-01,9.99999e-01,9.99999e-01,8.35826e-01,9.99999e-01
9.964357318e-01,8.38792e-01,9.99999e-01,9.99999e-01,8.38792e-01,9.99999e-01
1.001417910e+00,8.41710e-01,9.99999e-01,9.99999e-01,8.41710e-01,9.99999e-01
1.006425000e+00,8.44580e-01,9.99999e-01,9.99999e-01,8.44580e-01,9.99999e-01
1.011457125e+00,8.47402e-01,9.99999e-01,9.99999e-01,8.47402e-01,9.99999e-01
1.016514411e+00,8.50178e-01,9.99999e-01,9.99999e-01,8.50178e-01,9.99999e-01
1.021596983e+00,8.52878e-01,9.99999e-01,9.99964e-01,8.52908e-01,9.99999e-01
1.026704968e+00,8.53505e-01,9.99999e-01,9.97558e-01,8.55593e-01,9.99999e-01
1.031838492e+00,8.29166e-01,9.99999e-01,9.66131e-01,8.58233e-01,9.99999e-01
1.036997685e+00,1.94599e-01,9.99999e-01,2.26060e-01,8.60828e-01,9.99999e-01
1.042182673e+00,2.12034e-01,9.99999e-01,2.45586e-01,8.63380e-01,9.99999e-01
1.047393587e+00,2.10299e-01,9.99999e-01,2.42871e-01,8.65889e-01,9.99999e-01
1.052630555e+00,1.83655e-02,9.99999e-01,2.11498e-02,8.68355e-01,9.99999e-01
1.057893707e+00,3.87016e-02,9.99999e-01,4.44447e-02,8.70780e-01,9.99999e-01
1.063183176e+00,9.00391e-02,9.99999e-01,1.03118e-01,8.73163e-01,9.99999e-01
1.068499092e+00,1.87560e-01,9.99999e-01,2.14231e-01,8.75505e-01,9.99999e-01
1.073841587e+00,3.32610e-01,9.99999e-01,3.78910e-01,8.77808e-01,9.99999e-01
1.079210795e+00,4.76619e-01,9.99999e-01,5.41569e-01,8.80070e-01,9.99999e-01
1.084606849e+00,6.30915e-01,9.99999e-01,7.15084e-01,8.82294e-01,9.99999e-01
1.090029883e+00,7.43344e-01,9.99999e-01,8.40430e-01,8.84479e-01,9.99999e-01
1.095480033e+00,8.13942e-01,9.99999e-01,9.18021e-01,8.86626e-01,9.99999e-01
1.100957433e+00,8.52887e-01,9.99999e-01,9.59662e-01,8.88736e-01,9.99999e-01
1.106462220e+00,8.75787e-01,9.99999e-01,9.83135e-01,8.90809e-01,9.99999e-01
1.111994531e+00,8.87237e-01,9.99999e-01,9.93717e-01,8.92846e-01,9.99999e-01
1.117554504e+00,8.93475e-01,9.99999e-01,9.98466e-01,8.94847e-01,9.99999e-01
1.123142276e+00,8.96723e-01,9.99999e-01,9.99899e-01,8.96813e-01,9.99999e-01
1.128757988e+00,8.98744e-01,9.99999e-01,9.99999e-01,8.98744e-01,9.99999e-01
1.134401778e+00,9.00641e-01,9.99999e-01,9.99999e-01,9.00641e-01,9.99999e-01
1.140073787e+00,9.02505e-01,9.99999e-01,9.99999e-01,9.02505e-01,9.99999e-01
1.145774156e+00,9.04336e-01,9.99999e-01,9.99999e-01,9.04336e-01,9.99999e-01
1.151503026e+00,9.06133e-01,9.99999e-01,9.99999e-01,9.06133e-01,9.99999e-01
1.157260541e+00,9.07899e-01,9.99999e-01,9.99999e-01,9.07899e-01,9.99999e-01
1.163046844e+00,9.09634e-01,9.99999e-01,9.99999e-01,9.09634e-01,9.99999e-01
1.168862078e+00,9.11337e-01,9.99999e-01,9.99999e-01,9.11337e-01,9.99999e-01
1.174706389e+00,9.13010e-01,9.99999e-01,9.99999e-01,9.13010e-01,9.99999e-01
1.180579921e+00,9.14653e-01,9.99999e-01,9.99999e-01,9.14653e-01,9.99999e-01
1.186482820e+00,9.16261e-01,9.99999e-01,9.99994e-01,9.16266e-01,9.99999e-01
1.192415234e+00,9.09814e-01,9.99999e-01,9.91244e-01,9.17850e-01,9.99999e-01
1.198377311e+00,5.27457e-01,9.99999e-01,5.73693e-01,9.19405e-01,9.99999e-01
1.204369197e+00,5.09232e-08,9.99999e-01,5.52952e-08,9.20932e-01,9.99999e-01
1.210391043e+00,4.86962e-27,9.99999e-01,5.27910e-27,9.22432e-01,9.99999e-01
1.216442998e+00,1.22779e-23,9.99999e-01,1.32891e-23,9.23904e-01,9.99999e-01
1.222525213e+00,2.64303e-23,9.99999e-01,2.85624e-23,9.25350e-01,9.99999e-01
1.228637839e+00,5.32839e-18,9.99999e-01,5.74942e-18,9.26769e-01,9.99999e-01
1.234781029e+00,4.14346e-12,9.99999e-01,4.46415e-12,9.28162e-01,9.99999e-01
1.240954934e+00,3.30060e-08,9.99999e-01,3.55082e-08,9.29530e-01,9.99999e-01
1.247159708e+00,6.95194e-05,9.99999e-01,7.46819e-05,9.30873e-01,9.99999e-01
1.253395507e+00,4.34645e-03,9.99999e-01,4.66261e-03,9.32191e-01,9.99999e-01
1.259662485e+00,4.37028e-02,9.99999e-01,4.68168e-02,9.33484e-01,9.99999e-01
1.265960797e+00,1.58492e-01,9.99999e-01,1.69554e-01,9.34754e-01,9.99999e-01
1.272290601e+00,4.48751e-01,9.99999e-01,4.79434e-01,9.36001e-01,9.99999e-01
1.278652054e+00,3.89430e-01,9.99999e-01,4.15513e-01,9.37225e-01,9.99999e-01
1.285045314e+00,1.53501e-02,9.99999e-01,1.63573e-02,9.38426e-01,9.99999e-01
1.291470541e+00,7.13769e-04,9.99999e-01,7.59647e-04,9.39604e-01,9.99999e-01
1.297927893e+00,3.32913e-02,9.99999e-01,3.53876e-02,9.40761e-01,9.99999e-01
1.304417533e+00,2.47997e-01,9.99999e-01,2.63295e-01,9.41897e-01,9.99999e-01
1.310939621e+00,6.46283e-02,9.99999e-01,6.85339e-02,9.43011e-01,9.99999e-01
1.317494319e+00,9.20301e-10,9.99999e-01,9.74787e-10,9.44104e-01,9.99999e-01
1.324081790e+00,5.09809e-07,9.99999e-01,5.39378e-07,9.45178e-01,9.99999e-01
1.330702199e+00,3.76217e-04,9.99999e-01,3.97595e-04,9.46231e-01,9.99999e-01
1.337355710e+00,3.17954e-04,9.99999e-01,3.35654e-04,9.47264e-01,9.99999e-01
1.344042489e+00,9.53522e-05,9.99999e-01,1.00553e-04,9.48279e-01,9.99999e-01
1.350762701e+00,2.68537e-04,9.99999e-01,2.82887e-04,9.49274e-01,9.99999e-01
1.357516515e+00,4.60028e-03,9.99999e-01,4.84112e-03,9.50250e-01,9.99999e-01
1.364304097e+00,3.27013e-02,9.99999e-01,3.43787e-02,9.51209e-01,9.99999e-01
1.371125618e+00,1.61864e-01,9.99999e-01,1.69998e-01,9.52149e-01,9.99999e-01
1.377981246e+00,2.28131e-01,9.99999e-01,2.39364e-01,9.53072e-01,9.99999e-01
1.384871152e+00,4.15192e-01,9.99999e-01,4.35221e-01,9.53977e-01,9.99999e-01
1.391795508e+00,4.42905e-01,9.99999e-01,4.63840e-01,9.54865e-01,9.99999e-01
1.398754485e+00,5.95651e-01,9.99999e-01,6.23237e-01,9.55737e-01,9.99999e-01
1.405748258e+00,6.75068e-01,9.99999e-01,7.05701e-01,9.56592e-01,9.99999e-01
1.412776999e+00,7.68502e-01,9.99999e-01,8.02670e-01,9.57431e-01,9.99999e-01
1.419840884e+00,7.01625e-01,9.99999e-01,7.32191e-01,9.58254e-01,9.99999e-01
1.426940089e+00,8.32458e-02,9.99999e-01,8.67992e-02,9.59061e-01,9.99999e-01
1.434074789e+00,0.00000e+00,9.99999e-01,0.00000e+00,9.59853e-01,9.99999e-01
1.441245163e+00,0.00000e+00,9.99999e-01,0.00000e+00,9.60630e-01,9.99999e-01
1.448451389e+00,0.00000e+00,9.99999e-01,0.00000e+00,9.61393e-01,9.99999e-01
1.455693646e+00,1.91996e-211,9.99999e-01,1.99551e-211,9.62141e-01,9.99999e-01
1.462972114e+00,7.31673e-103,9.99999e-01,7.59884e-103,9.62874e-01,9.99999e-01
1.470286975e+00,1.19556e-43,9.99999e-01,1.24073e-43,9.63594e-01,9.99999e-01
