#,Wave/freq,Total,N2,CO2,Rayleigh,CIA
4.000000000e-01,1.59938e-02,9.99999e-01,9.99999e-01,1.59938e-02,9.99999e-01
4.020000000e-01,1.73565e-02,9.99999e-01,9.99999e-01,1.73565e-02,9.99999e-01
4.040100000e-01,1.88035e-02,9.99999e-01,9.99999e-01,1.88035e-02,9.99999e-01
4.060300500e-01,2.03388e-02,9.99999e-01,9.99999e-01,2.03388e-02,9.99999e-01
4.080602003e-01,2.19655e-02,9.99999e-01,9.99999e-01,2.19655e-02,9.99999e-01
4.101005013e-01,2.36862e-02,9.99999e-01,9.99999e-01,2.36862e-02,9.99999e-01
4.121510038e-01,2.55037e-02,9.99999e-01,9.99999e-01,2.55037e-02,9.99999e-01
4.142117588e-01,2.74206e-02,9.99999e-01,9.99999e-01,2.74206e-02,9.99999e-01
4.162828176e-01,2.94394e-02,9.99999e-01,9.99999e-01,2.94394e-02,9.99999e-01
4.183642317e-01,3.15625e-02,9.99999e-01,9.99999e-01,3.15625e-02,9.99999e-01
4.204560528e-01,3.37922e-02,9.99999e-01,9.99999e-01,3.37922e-02,9.99999e-01
4.225583331e-01,3.61306e-02,9.99999e-01,9.99999e-01,3.61306e-02,9.99999e-01
4.246711247e-01,3.85799e-02,9.99999e-01,9.99999e-01,3.85799e-02,9.99999e-01
4.267944804e-01,4.11419e-02,9.99999e-01,9.99999e-01,4.11419e-02,9.99999e-01
4.289284528e-01,4.38183e-02,9.99999e-01,9.99999e-01,4.38183e-02,9.99999e-01
4.310730950e-01,4.66108e-02,9.99999e-01,9.99999e-01,4.66108e-02,9.99999e-01
4.332284605e-01,4.95207e-02,9.99999e-01,9.99999e-01,4.95207e-02,9.99999e-01
4.353946028e-01,5.25494e-02,9.99999e-01,9.99999e-01,5.25494e-02,9.99999e-01
4.375715758e-01,5.56980e-02,9.99999e-01,9.99999e-01,5.56980e-02,9.99999e-01
4.397594337e-01,5.89675e-02,9.99999e-01,9.99999e-01,5.89675e-02,9.99999e-01
4.419582309e-01,6.23586e-02,9.99999e-01,9.99999e-01,6.23586e-02,9.99999e-01
4.441680220e-01,6.58719e-02,9.99999e-01,9.99999e-01,6.58719e-02,9.99999e-01
4.463888621e-01,6.95078e-02,9.99999e-01,9.99999e-01,6.95078e-02,9.99999e-01
4.486208064e-01,7.32666e-02,9.99999e-01,9.99999e-01,7.32666e-02,9.99999e-01
4.508639105e-01,7.71484e-02,9.99999e-01,9.99999e-01,7.71484e-02,9.99999e-01
4.531182300e-01,8.11531e-02,9.99999e-01,9.99999e-01,8.11531e-02,9.99999e-01
4.553838212e-01,8.52804e-02,9.99999e-01,9.99999e-01,8.52804e-02,9.99999e-01
4.576607403e-01,8.95298e-02,9.99999e-01,9.99999e-01,8.95298e-02,9.99999e-01
4.599490440e-01,9.39007e-02,9.99999e-01,9.99999e-01,9.39007e-02,9.99999e-01
4.622487892e-01,9.83923e-02,9.99999e-01,9.99999e-01,9.83923e-02,9.99999e-01
4.645600332e-01,1.03004e-01,9.99999e-01,9.99999e-01,1.03004e-01,9.99999e-01
4.668828333e-01,1.07734e-01,9.99999e-01,9.99999e-01,1.07734e-01,9.99999e-01
4.692172475e-01,1.12581e-01,9.99999e-01,9.99999e-01,1.12581e-01,9.99999e-01
4.715633337e-01,1.17544e-01,9.99999e-01,9.99999e-01,1.17544e-01,9.99999e-01
4.739211504e-01,1.22621e-01,9.99999e-01,9.99999e-01,1.22621e-01,9.99999e-01
4.762907561e-01,1.27811e-01,9.99999e-01,9.99999e-01,1.27811e-01,9.99999e-01
4.786722099e-01,1.33112e-01,9.99999e-01,9.99999e-01,1.33112e-01,9.99999e-01
4.810655710e-01,1.38521e-01,9.99999e-01,9.99999e-01,1.38521e-01,9.99999e-01
4.834708988e-01,1.44037e-01,9.99999e-01,9.99999e-01,1.44037e-01,9.99999e-01
4.858882533e-01,1.49656e-01,9.99999e-01,9.99999e-01,1.49656e-01,9.99999e-01
4.883176946e-01,1.55378e-01,9.99999e-01,9.99999e-01,1.55378e-01,9.99999e-01
4.907592831e-01,1.61199e-01,9.99999e-01,9.99999e-01,1.61199e-01,9.99999e-01
4.932130795e-01,1.67116e-01,9.99999e-01,9.99999e-01,1.67116e-01,9.99999e-01
4.956791449e-01,1.73127e-01,9.99999e-01,9.99999e-01,1.73127e-01,9.99999e-01
4.981575406e-01,1.79229e-01,9.99999e-01,9.99999e-01,1.79229e-01,9.99999e-01
5.006483283e-01,1.85420e-01,9.99999e-01,9.99999e-01,1.85420e-01,9.99999e-01
5.031515699e-01,1.91695e-01,9.99999e-01,9.99999e-01,1.91695e-01,9.99999e-01
5.056673278e-01,1.98053e-01,9.99999e-01,9.99999e-01,1.98053e-01,9.99999e-01
5.081956644e-01,2.04490e-01,9.99999e-01,9.99999e-01,2.04490e-01,9.99999e-01
5.107366428e-01,2.11003e-01,9.99999e-01,9.99999e-01,2.11003e-01,9.99999e-01
5.132903260e-01,2.17588e-01,9.99999e-01,9.99999e-01,2.17588e-01,9.99999e-01
5.158567776e-01,2.24243e-01,9.99999e-01,9.99999e-01,2.24243e-01,9.99999e-01
5.184360615e-01,2.30964e-01,9.99999e-01,9.99999e-01,2.30964e-01,9.99999e-01
5.210282418e-01,2.37747e-01,9.99999e-01,9.99999e-01,2.37747e-01,9.99999e-01
5.236333830e-01,2.44590e-01,9.99999e-01,9.99999e-01,2.44590e-01,9.99999e-01
5.262515499e-01,2.51489e-01,9.99999e-01,9.99999e-01,2.51489e-01,9.99999e-01
5.288828077e-01,2.58440e-01,9.99999e-01,9.99999e-01,2.58440e-01,9.99999e-01
5.315272217e-01,2.65440e-01,9.99999e-01,9.99999e-01,2.65440e-01,9.99999e-01
5.341848578e-01,2.72486e-01,9.99999e-01,9.99999e-01,2.72486e-01,9.99999e-01
5.368557821e-01,2.79575e-01,9.99999e-01,9.99999e-01,2.79575e-01,9.99999e-01
5.395400610e-01,2.86702e-01,9.99999e-01,9.99999e-01,2.86702e-01,9.99999e-01
5.422377613e-01,2.93865e-01,9.99999e-01,9.99999e-01,2.93865e-01,9.99999e-01
5.449489501e-01,3.01060e-01,9.99999e-01,9.99999e-01,3.01060e-01,9.99999e-01
5.476736949e-01,3.08284e-01,9.99999e-01,9.99999e-01,3.08284e-01,9.99999e-01
5.504120634e-01,3.15534e-01,9.99999e-01,9.99999e-01,3.15534e-01,9.99999e-01
5.531641237e-01,3.22806e-01,9.99999e-01,9.99999e-01,3.22806e-01,9.99999e-01
5.559299443e-01,3.30096e-01,9.99999e-01,9.99999e-01,3.30096e-01,9.99999e-01
5.587095940e-01,3.37403e-01,9.99999e-01,9.99999e-01,3.37403e-01,9.99999e-01
5.615031420e-01,3.44722e-01,9.99999e-01,9.99999e-01,3.44722e-01,9.99999e-01
5.643106577e-01,3.52051e-01,9.99999e-01,9.99999e-01,3.52051e-01,9.99999e-01
5.671322110e-01,3.59386e-01,9.99999e-01,9.99999e-01,3.59386e-01,9.99999e-01
5.699678720e-01,3.66724e-01,9.99999e-01,9.99999e-01,3.66724e-01,9.99999e-01
5.728177114e-01,3.74063e-01,9.99999e-01,9.99999e-01,3.74063e-01,9.99999e-01
5.756818000e-01,3.81400e-01,9.99999e-01,9.99999e-01,3.81400e-01,9.99999e-01
5.785602090e-01,3.88731e-01,9.99999e-01,9.99999e-01,3.88731e-01,9.99999e-01
5.814530100e-01,3.96054e-01,9.99999e-01,9.99999e-01,3.96054e-01,9.99999e-01
5.843602750e-01,4.03367e-01,9.99999e-01,9.99999e-01,4.03367e-01,9.99999e-01
5.872820764e-01,4.10666e-01,9.99999e-01,9.99999e-01,4.10666e-01,9.99999e-01
5.902184868e-01,4.17949e-01,9.99999e-01,9.99999e-01,4.17949e-01,9.99999e-01
5.931695792e-01,4.25213e-01,9.99999e-01,9.99999e-01,4.25213e-01,9.99999e-01
5.961354271e-01,4.32457e-01,9.99999e-01,9.99999e-01,4.32457e-01,9.99999e-01
5.991161043e-01,4.39677e-01,9.99999e-01,9.99999e-01,4.39677e-01,9.99999e-01
6.021116848e-01,4.46871e-01,9.99999e-01,9.99999e-01,4.46871e-01,9.99999e-01
6.051222432e-01,4.54038e-01,9.99999e-01,9.99999e-01,4.54038e-01,9.99999e-01
6.081478544e-01,4.61175e-01,9.99999e-01,9.99999e-01,4.61175e-01,9.99999e-01
6.111885937e-01,4.68279e-01,9.99999e-01,9.99999e-01,4.68279e-01,9.99999e-01
6.142445367e-01,4.75350e-01,9.99999e-01,9.99999e-01,4.75350e-01,9.99999e-01
6.173157594e-01,4.82384e-01,9.99999e-01,9.99999e-01,4.82384e-01,9.99999e-01
6.204023382e-01,4.89381e-01,9.99999e-01,9.99999e-01,4.89381e-01,9.99999e-01
6.235043498e-01,4.96338e-01,9.99999e-01,9.99999e-01,4.96338e-01,9.99999e-01
6.266218716e-01,5.03253e-01,9.99999e-01,9.99999e-01,5.03253e-01,9.99999e-01
6.297549810e-01,5.10125e-01,9.99999e-01,9.99999e-01,5.10125e-01,9.99999e-01
6.329037559e-01,5.16953e-01,9.99999e-01,9.99999e-01,5.16953e-01,9.99999e-01
6.360682746e-01,5.23734e-01,9.99999e-01,9.99999e-01,5.23734e-01,9.99999e-01
6.392486160e-01,5.30468e-01,9.99999e-01,9.99999e-01,5.30468e-01,9.99999e-01
6.424448591e-01,5.37153e-01,9.99999e-01,9.99999e-01,5.37153e-01,9.99999e-01
6.456570834e-01,5.43787e-01,9.99999e-01,9.99999e-01,5.43787e-01,9.99999e-01
6.488853688e-01,5.50370e-01,9.99999e-01,9.99999e-01,5.50370e-01,9.99999e-01
6.521297956e-01,5.56901e-01,9.99999e-01,9.99999e-01,5.56901e-01,9.99999e-01
6.553904446e-01,5.63377e-01,9.99999e-01,9.99999e-01,5.63377e-01,9.99999e-01
6.586673968e-01,5.69799e-01,9.99999e-01,9.99999e-01,5.69799e-01,9.99999e-01
6.619607338e-01,5.76165e-01,9.99999e-01,9.99999e-01,5.76165e-01,9.99999e-01
6.652705375e-01,5.82474e-01,9.99999e-01,9.99999e-01,5.82474e-01,9.99999e-01
6.685968902e-01,5.88725e-01,9.99999e-01,9.99999e-01,5.88725e-01,9.99999e-01
6.719398746e-01,5.94919e-01,9.99999e-01,9.99999e-01,5.94919e-01,9.99999e-01
6.752995740e-01,6.01053e-01,9.99999e-01,9.99999e-01,6.01053e-01,9.99999e-01
6.786760719e-01,6.07127e-01,9.99999e-01,9.99999e-01,6.07127e-01,9.99999e-01
6.820694522e-01,6.13141e-01,9.99999e-01,9.99999e-01,6.13141e-01,9.99999e-01
6.854797995e-01,6.19094e-01,9.99999e-01,9.99999e-01,6.19094e-01,9.99999e-01
6.889071985e-01,6.24985e-01,9.99999e-01,9.99999e-01,6.24985e-01,9.99999e-01
6.923517345e-01,6.30815e-01,9.99999e-01,9.99999e-01,6.30815e-01,9.99999e-01
6.958134932e-01,6.36582e-01,9.99999e-01,9.99999e-01,6.36582e-01,9.99999e-01
6.992925606e-01,6.42286e-01,9.99999e-01,9.99999e-01,6.42286e-01,9.99999e-01
7.027890234e-01,6.47928e-01,9.99999e-01,9.99999e-01,6.47928e-01,9.99999e-01
7.063029686e-01,6.53506e-01,9.99999e-01,9.99999e-01,6.53506e-01,9.99999e-01
7.098344834e-01,6.59020e-01,9.99999e-01,9.99999e-01,6.59020e-01,9.99999e-01
7.133836558e-01,6.64471e-01,9.99999e-01,9.99999e-01,6.64471e-01,9.99999e-01
7.169505741e-01,6.69857e-01,9.99999e-01,9.99999e-01,6.69857e-01,9.99999e-01
7.205353270e-01,6.75180e-01,9.99999e-01,9.99999e-01,6.75180e-01,9.99999e-01
7.241380036e-01,6.80439e-01,9.99999e-01,9.99999e-01,6.80439e-01,9.99999e-01
7.277586936e-01,6.85633e-01,9.99999e-01,9.99999e-01,6.85633e-01,9.99999e-01
7.313974871e-01,6.90763e-01,9.99999e-01,9.99999e-01,6.90763e-01,9.99999e-01
7.350544745e-01,6.95830e-01,9.99999e-01,9.99999e-01,6.95830e-01,9.99999e-01
7.387297469e-01,7.00832e-01,9.99999e-01,9.99999e-01,7.00832e-01,9.99999e-01
7.424233956e-01,7.05770e-01,9.99999e-01,9.99999e-01,7.05770e-01,9.99999e-01
7.461355126e-01,7.10645e-01,9.99999e-01,9.99999e-01,7.10645e-01,9.99999e-01
7.498661902e-01,7.15456e-01,9.99999e-01,9.99999e-01,7.15456e-01,9.99999e-01
7.536155211e-01,7.20204e-01,9.99999e-01,9.99999e-01,7.20204e-01,9.99999e-01
7.573835987e-01,7.24888e-01,9.99999e-01,9.99999e-01,7.24888e-01,9.99999e-01
7.611705167e-01,7.29509e-01,9.99999e-01,9.99999e-01,7.29509e-01,9.99999e-01
7.649763693e-01,7.34068e-01,9.99999e-01,9.99999e-01,7.34068e-01,9.99999e-01
7.688012511e-01,7.38564e-01,9.99999e-01,9.99999e-01,7.38564e-01,9.99999e-01
7.726452574e-01,7.42999e-01,9.99999e-01,9.99999e-01,7.42999e-01,9.99999e-01
7.765084837e-01,7.47371e-01,9.99999e-01,9.99999e-01,7.47371e-01,9.99999e-01
7.803910261e-01,7.40766e-01,9.99999e-01,9.85476e-01,7.51682e-01,9.99999e-01
7.842929812e-01,7.11718e-01,9.99999e-01,9.41509e-01,7.55932e-01,9.99999e-01
7.882144461e-01,7.12215e-01,9.99999e-01,9.36974e-01,7.60122e-01,9.99999e-01
7.921555184e-01,7.36288e-01,9.99999e-01,9.63411e-01,7.64251e-01,9.99999e-01
7.961162960e-01,7.49548e-01,9.99999e-01,9.75566e-01,7.68320e-01,9.99999e-01
8.000968774e-01,7.62037e-01,9.99999e-01,9.86672e-01,7.72330e-01,9.99999e-01
8.040973618e-01,7.70923e-01,9.99999e-01,9.93097e-01,7.76282e-01,9.99999e-01
8.081178486e-01,7.77693e-01,9.99999e-01,9.96818e-01,7.80174e-01,9.99999e-01
8.121584379e-01,7.83243e-01,9.99999e-01,9.99022e-01,7.84009e-01,9.99999e-01
8.162192301e-01,7.87617e-01,9.99999e-01,9.99783e-01,7.87787e-01,9.99999e-01
8.203003262e-01,7.91505e-01,9.99999e-01,9.99996e-01,7.91507e-01,9.99999e-01
8.244018279e-01,7.95171e-01,9.99999e-01,9.99999e-01,7.95171e-01,9.99999e-01
8.285238370e-01,7.98779e-01,9.99999e-01,9.99999e-01,7.98779e-01,9.99999e-01
8.326664562e-01,8.02332e-01,9.99999e-01,9.99999e-01,8.02332e-01,9.99999e-01
8.368297885e-01,8.05830e-01,9.99999e-01,9.99999e-01,8.05830e-01,9.99999e-01
8.410139374e-01,8.09273e-01,9.99999e-01,9.99999e-01,8.09273e-01,9.99999e-01
8.452190071e-01,8.12663e-01,9.99999e-01,9.99999e-01,8.12663e-01,9.99999e-01
8.494451021e-01,8.16000e-01,9.99999e-01,9.99999e-01,8.16000e-01,9.99999e-01
8.536923276e-01,8.19284e-01,9.99999e-01,9.99999e-01,8.19284e-01,9.99999e-01
8.579607893e-01,8.22516e-01,9.99999e-01,9.99999e-01,8.22516e-01,9.99999e-01
8.622505932e-01,8.25696e-01,9.99999e-01,9.99999e-01,8.25696e-01,9.99999e-01
8.665618462e-01,7.95816e-01,9.99999e-01,9.60172e-01,8.28826e-01,9.99999e-01
8.708946554e-01,7.11421e-01,9.99999e-01,8.55170e-01,8.31905e-01,9.99999e-01
8.752491287e-01,7.37738e-01,9.99999e-01,8.83587e-01,8.34935e-01,9.99999e-01
8.796253743e-01,7.83563e-01,9.99999e-01,9.35133e-01,8.37915e-01,9.99999e-01
8.840235012e-01,8.12280e-01,9.99999e-01,9.66025e-01,8.40847e-01,9.99999e-01
8.884436187e-01,8.32369e-01,9.99999e-01,9.86532e-01,8.43731e-01,9.99999e-01
8.928858368e-01,8.41932e-01,9.99999e-01,9.94523e-01,8.46568e-01,9.99999e-01
8.973502660e-01,8.48231e-01,9.99999e-01,9.98672e-01,8.49358e-01,9.99999e-01
9.018370173e-01,8.51977e-01,9.99999e-01,9.99853e-01,8.52101e-01,9.99999e-01
9.063462024e-01,8.51509e-01,9.99999e-01,9.96149e-01,8.54799e-01,9.99999e-01
9.108779334e-01,8.50036e-01,9.99999e-01,9.91350e-01,8.57452e-01,9.99999e-01
9.154323231e-01,8.58322e-01,9.99999e-01,9.97977e-01,8.60061e-01,9.99999e-01
9.200094847e-01,8.36107e-01,9.99999e-01,9.69257e-01,8.62626e-01,9.99999e-01
9.246095321e-01,8.29038e-01,9.99999e-01,9.58261e-01,8.65147e-01,9.99999e-01
9.292325798e-01,8.38757e-01,9.99999e-01,9.66726e-01,8.67626e-01,9.99999e-01
9.338787427e-01,8.42353e-01,9.99999e-01,9.68151e-01,8.70063e-01,9.99999e-01
9.385481364e-01,8.52003e-01,9.99999e-01,9.76553e-01,8.72459e-01,9.99999e-01
9.432408771e-01,8.62243e-01,9.99999e-01,9.85630e-01,8.74813e-01,9.99999e-01
9.479570815e-01,8.70633e-01,9.99999e-01,9.92595e-01,8.77127e-01,9.99999e-01
9.526968669e-01,8.76260e-01,9.99999e-01,9.96427e-01,8.79402e-01,9.99999e-01
9.574603512e-01,8.80290e-01,9.99999e-01,9.98472e-01,8.81637e-01,9.99999e-01
9.622476530e-01,8.83412e-01,9.99999e-01,9.99523e-01,8.83833e-01,9.99999e-01
9.670588912e-01,8.85865e-01,9.99999e-01,9.99857e-01,8.85992e-01,9.99999e-01
9.718941857e-01,8.88104e-01,9.99999e-01,9.99989e-01,8.88113e-01,9.99999e-01
9.767536566e-01,8.90196e-01,9.99999e-01,9.99999e-01,8.90196e-01,9.99999e-01
9.816374249e-01,8.92244e-01,9.99999e-01,9.99999e-01,8.92244e-01,9.99999e-01
9.865456120e-01,8.94256e-01,9.99999e-01,9.99999e-01,8.94256e-01,9.99999e-01
9.914783401e-01,8.96232e-01,9.99999e-01,9.99999e-01,8.96232e-01,9.99999e-01
9.964357318e-01,8.98174e-01,9.99999e-01,9.99999e-01,8.98174e-01,9.99999e-01
1.001417910e+00,9.00081e-01,9.99999e-01,9.99999e-01,9.00081e-01,9.99999e-01
1.006425000e+00,9.01954e-01,9.99999e-01,9.99999e-01,9.01954e-01,9.99999e-01
1.011457125e+00,9.03795e-01,9.99999e-01,9.99999e-01,9.03795e-01,9.99999e-01
1.016514411e+00,9.05602e-01,9.99999e-01,9.99999e-01,9.05602e-01,9.99999e-01
1.021596983e+00,9.07358e-01,9.99999e-01,9.99977e-01,9.07378e-01,9.99999e-01
1.026704968e+00,9.07758e-01,9.99999e-01,9.98500e-01,9.09121e-01,9.99999e-01
1.031838492e+00,8.88621e-01,9.99999e-01,9.75612e-01,9.10834e-01,9.99999e-01
1.036997685e+00,3.06904e-01,9.99999e-01,3.36327e-01,9.12516e-01,9.99999e-01
1.042182673e+00,3.79944e-01,9.99999e-01,4.15617e-01,9.14167e-01,9.99999e-01
1.047393587e+00,3.38903e-01,9.99999e-01,3.70066e-01,9.15789e-01,9.99999e-01
1.052630555e+00,7.10510e-02,9.99999e-01,7.74497e-02,9.17382e-01,9.99999e-01
1.057893707e+00,1.25478e-01,9.99999e-01,1.36545e-01,9.18946e-01,9.99999e-01
1.063183176e+00,2.18663e-01,9.99999e-01,2.37553e-01,9.20481e-01,9.99999e-01
1.068499092e+00,3.55713e-01,9.99999e-01,3.85810e-01,9.21989e-01,9.99999e-01
1.073841587e+00,5.07385e-01,9.99999e-01,5.49433e-01,9.23469e-01,9.99999e-01
1.079210795e+00,6.34209e-01,9.99999e-01,6.85687e-01,9.24923e-01,9.99999e-01
1.084606849e+00,7.54368e-01,9.99999e-01,8.14344e-01,9.26350e-01,9.99999e-01
1.090029883e+00,8.34169e-01,9.99999e-01,8.99130e-01,9.27751e-01,9.99999e-01
1.095480033e+00,8.81805e-01,9.99999e-01,9.49069e-01,9.29126e-01,9.99999e-01
1.100957433e+00,9.07368e-01,9.99999e-01,9.75165e-01,9.30476e-01,9.99999e-01
1.106462220e+00,9.22177e-01,9.99999e-01,9.89670e-01,9.31801e-01,9.99999e-01
1.111994531e+00,9.29520e-01,9.99999e-01,9.96160e-01,9.33102e-01,9.99999e-01
1.117554504e+00,9.33505e-01,9.99999e-01,9.99064e-01,9.34379e-01,9.99999e-01
1.123142276e+00,9.35576e-01,9.99999e-01,9.99938e-01,9.35633e-01,9.99999e-01
1.128757988e+00,9.36863e-01,9.99999e-01,9.99999e-01,9.36863e-01,9.99999e-01
1.134401778e+00,9.38071e-01,9.99999e-01,9.99999e-01,9.38071e-01,9.99999e-01
1.140073787e+00,9.39256e-01,9.99999e-01,9.99999e-01,9.39256e-01,9.99999e-01
1.145774156e+00,9.40419e-01,9.99999e-01,9.99999e-01,9.40419e-01,9.99999e-01
1.151503026e+00,9.41561e-01,9.99999e-01,9.99999e-01,9.41561e-01,9.99999e-01
1.157260541e+00,9.42682e-01,9.99999e-01,9.99999e-01,9.42682e-01,9.99999e-01
1.163046844e+00,9.43781e-01,9.99999e-01,9.99999e-01,9.43781e-01,9.99999e-01
1.168862078e+00,9.44861e-01,9.99999e-01,9.99999e-01,9.44861e-01,9.99999e-01
1.174706389e+00,9.45920e-01,9.99999e-01,9.99999e-01,9.45920e-01,9.99999e-01
1.180579921e+00,9.46959e-01,9.99999e-01,9.99999e-01,9.46959e-01,9.99999e-01
1.186482820e+00,9.47976e-01,9.99999e-01,9.99996e-01,9.47979e-01,9.99999e-01
1.192415234e+00,9.43844e-01,9.99999e-01,9.94586e-01,9.48980e-01,9.99999e-01
1.198377311e+00,5.65903e-01,9.99999e-01,5.95710e-01,9.49962e-01,9.99999e-01
1.204369197e+00,9.05582e-06,9.99999e-01,9.52316e-06,9.50926e-01,9.99999e-01
1.210391043e+00,2.15033e-17,9.99999e-01,2.25905e-17,9.51871e-01,9.99999e-01
1.216442998e+00,2.66817e-15,9.99999e-01,2.80035e-15,9.52799e-01,9.99999e-01
1.222525213e+00,4.60879e-15,9.99999e-01,4.83248e-15,9.53710e-01,9.99999e-01
1.228637839e+00,1.51291e-11,9.99999e-01,1.58486e-11,9.54603e-01,9.99999e-01
1.234781029e+00,3.21456e-08,9.99999e-01,3.36434e-08,9.55479e-01,9.99999e-01
1.240954934e+00,1.41228e-05,9.99999e-01,1.47676e-05,9.56339e-01,9.99999e-01
1.247159708e+00,1.87220e-03,9.99999e-01,1.95594e-03,9.57183e-01,9.99999e-01
1.253395507e+00,3.21943e-02,9.99999e-01,3.36053e-02,9.58010e-01,9.99999e-01
1.259662485e+00,1.40807e-01,9.99999e-01,1.46854e-01,9.58823e-01,9.99999e-01
1.265960797e+00,3.16399e-01,9.99999e-01,3.29712e-01,9.59619e-01,9.99999e-01
1.272290601e+00,6.10783e-01,9.99999e-01,6.35966e-01,9.60401e-01,9.99999e-01
1.278652054e+00,5.45967e-01,9.99999e-01,5.68024e-01,9.61168e-01,9.99999e-01
1.285045314e+00,4.49291e-02,9.99999e-01,4.67077e-02,9.61920e-01,9.99999e-01
1.291470541e+00,1.03892e-02,9.99999e-01,1.07922e-02,9.62658e-01,9.99999e-01
1.297927893e+00,1.01696e-01,9.99999e-01,1.05561e-01,9.63382e-01,9.99999e-01
1.304417533e+00,4.24716e-01,9.99999e-01,4.40535e-01,9.64092e-01,9.99999e-01
1.310939621e+00,8.57256e-02,9.99999e-01,8.88542e-02,9.64788e-01,9.99999e-01
1.317494319e+00,2.13789e-06,9.99999e-01,2.21435e-06,9.65472e-01,9.99999e-01
1.324081790e+00,7.93622e-05,9.99999e-01,8.21434e-05,9.66142e-01,9.99999e-01
1.330702199e+00,7.21777e-03,9.99999e-01,7.46562e-03,9.66800e-01,9.99999e-01
1.337355710e+00,4.87723e-03,9.99999e-01,5.04135e-03,9.67445e-01,9.99999e-01
1.344042489e+00,1.89306e-03,9.99999e-01,1.95549e-03,9.68077e-01,9.99999e-01
1.350762701e+00,5.90799e-03,9.99999e-01,6.09889e-03,9.68698e-01,9.99999e-01
1.357516515e+00,3.32652e-02,9.99999e-01,3.43186e-02,9.69306e-01,9.99999e-01
1.364304097e+00,1.21213e-01,9.99999e-01,1.24974e-01,9.69904e-01,9.99999e-01
1.371125618e+00,3.22514e-01,9.99999e-01,3.32321e-01,9.70489e-01,9.99999e-01
1.377981246e+00,4.04451e-01,9.99999e-01,4.16503e-01,9.71064e-01,9.99999e-01
1.384871152e+00,5.83698e-01,9.99999e-01,6.00743e-01,9.71627e-01,9.99999e-01
1.391795508e+00,6.07370e-01,9.99999e-01,6.24751e-01,9.72179e-01,9.99999e-01
1.398754485e+00,7.28654e-01,9.99999e-01,7.49087e-01,9.72721e-01,9.99999e-01
1.405748258e+00,7.86355e-01,9.99999e-01,8.07965e-01,9.73253e-01,9.99999e-01
1.412776999e+00,8.51395e-01,9.99999e-01,8.74324e-01,9.73774e-01,9.99999e-01
1.419840884e+00,7.95369e-01,9.99999e-01,8.16361e-01,9.74285e-01,9.99999e-01
1.426940089e+00,1.14238e-01,9.99999e-01,1.17193e-01,9.74787e-01,9.99999e-01
1.434074789e+00,3.26425e-239,9.99999e-01,3.34699e-239,9.75279e-01,9.99999e-01
1.441245163e+00,0.00000e+00,9.99999e-01,0.00000e+00,9.75761e-01,9.99999e-01
1.448451389e+00,5.80135e-290,9.99999e-01,5.94257e-290,9.76234e-01,9.99999e-01
1.455693646e+00,4.72994e-130,9.99999e-01,4.84278e-130,9.76698e-01,9.99999e-01
1.462972114e+00,1.02458e-63,9.99999e-01,1.04854e-63,9.77153e-01,9.99999e-01
1.470286975e+00,1.56166e-27,9.99999e-01,1.59744e-27,9.77599e-01,9.99999e-01
