#,Wave/freq,Total,N2,CO2,Rayleigh,CIA
4.000000000e-01,2.14737e-06,9.99999e-01,9.99999e-01,2.14737e-06,9.99999e-01
4.020000000e-01,2.77958e-06,9.99999e-01,9.99999e-01,2.77958e-06,9.99999e-01
4.040100000e-01,3.57869e-06,9.99999e-01,9.99999e-01,3.57869e-06,9.99999e-01
4.060300500e-01,4.58460e-06,9.99999e-01,9.99999e-01,4.58460e-06,9.99999e-01
4.080602003e-01,5.84459e-06,9.99999e-01,9.99999e-01,5.84459e-06,9.99999e-01
4.101005013e-01,7.41521e-06,9.99999e-01,9.99999e-01,7.41521e-06,9.99999e-01
4.121510038e-01,9.36378e-06,9.99999e-01,9.99999e-01,9.36378e-06,9.99999e-01
4.142117588e-01,1.17700e-05,9.99999e-01,9.99999e-01,1.17700e-05,9.99999e-01
4.162828176e-01,1.47279e-05,9.99999e-01,9.99999e-01,1.47279e-05,9.99999e-01
4.183642317e-01,1.83478e-05,9.99999e-01,9.99999e-01,1.83478e-05,9.99999e-01
4.204560528e-01,2.27583e-05,9.99999e-01,9.99999e-01,2.27583e-05,9.99999e-01
4.225583331e-01,2.81091e-05,9.99999e-01,9.99999e-01,2.81091e-05,9.99999e-01
4.246711247e-01,3.45735e-05,9.99999e-01,9.99999e-01,3.45735e-05,9.99999e-01
4.267944804e-01,4.23511e-05,9.99999e-01,9.99999e-01,4.23511e-05,9.99999e-01
4.289284528e-01,5.16707e-05,9.99999e-01,9.99999e-01,5.16707e-05,9.99999e-01
4.310730950e-01,6.27941e-05,9.99999e-01,9.99999e-01,6.27941e-05,9.99999e-01
4.332284605e-01,7.60187e-05,9.99999e-01,9.99999e-01,7.60187e-05,9.99999e-01
4.353946028e-01,9.16816e-05,9.99999e-01,9.99999e-01,9.16816e-05,9.99999e-01
4.375715758e-01,1.10163e-04,9.99999e-01,9.99999e-01,1.10163e-04,9.99999e-01
4.397594337e-01,1.31891e-04,9.99999e-01,9.99999e-01,1.31891e-04,9.99999e-01
4.419582309e-01,1.57345e-04,9.99999e-01,9.99999e-01,1.57345e-04,9.99999e-01
4.441680220e-01,1.87057e-04,9.99999e-01,9.99999e-01,1.87057e-04,9.99999e-01
4.463888621e-01,2.21621e-04,9.99999e-01,9.99999e-01,2.21621e-04,9.99999e-01
4.486208064e-01,2.61695e-04,9.99999e-01,9.99999e-01,2.61695e-04,9.99999e-01
4.508639105e-01,3.08001e-04,9.99999e-01,9.99999e-01,3.08001e-04,9.99999e-01
4.531182300e-01,3.61337e-04,9.99999e-01,9.99999e-01,3.61337e-04,9.99999e-01
4.553838212e-01,4.22573e-04,9.99999e-01,9.99999e-01,4.22573e-04,9.99999e-01
4.576607403e-01,4.92661e-04,9.99999e-01,9.99999e-01,4.92661e-04,9.99999e-01
4.599490440e-01,5.72636e-04,9.99999e-01,9.99999e-01,5.72636e-04,9.99999e-01
4.622487892e-01,6.63619e-04,9.99999e-01,9.99999e-01,6.63619e-04,9.99999e-01
4.645600332e-01,7.66820e-04,9.99999e-01,9.99999e-01,7.66820e-04,9.99999e-01
4.668828333e-01,8.83545e-04,9.99999e-01,9.99999e-01,8.83545e-04,9.99999e-01
4.692172475e-01,1.01519e-03,9.99999e-01,9.99999e-01,1.01519e-03,9.99999e-01
4.715633337e-01,1.16326e-03,9.99999e-01,9.99999e-01,1.16326e-03,9.99999e-01
4.739211504e-01,1.32934e-03,9.99999e-01,9.99999e-01,1.32934e-03,9.99999e-01
4.762907561e-01,1.51514e-03,9.99999e-01,9.99999e-01,1.51514e-03,9.99999e-01
4.786722099e-01,1.72244e-03,9.99999e-01,9.99999e-01,1.72244e-03,9.99999e-01
4.810655710e-01,1.95316e-03,9.99999e-01,9.99999e-01,1.95316e-03,9.99999e-01
4.834708988e-01,2.20929e-03,9.99999e-01,9.99999e-01,2.20929e-03,9.99999e-01
4.858882533e-01,2.49293e-03,9.99999e-01,9.99999e-01,2.49293e-03,9.99999e-01
4.883176946e-01,2.80628e-03,9.99999e-01,9.99999e-01,2.80628e-03,9.99999e-01
4.907592831e-01,3.15164e-03,9.99999e-01,9.99999e-01,3.15164e-03,9.99999e-01
4.932130795e-01,3.53140e-03,9.99999e-01,9.99999e-01,3.53140e-03,9.99999e-01
4.956791449e-01,3.94804e-03,9.99999e-01,9.99999e-01,3.94804e-03,9.99999e-01
4.981575406e-01,4.40412e-03,9.99999e-01,9.99999e-01,4.40412e-03,9.99999e-01
5.006483283e-01,4.90228e-03,9.99999e-01,9.99999e-01,4.90228e-03,9.99999e-01
5.031515699e-01,5.44526e-03,9.99999e-01,9.99999e-01,5.44526e-03,9.99999e-01
5.056673278e-01,6.03584e-03,9.99999e-01,9.99999e-01,6.03584e-03,9.99999e-01
5.081956644e-01,6.67688e-03,9.99999e-01,9.99999e-01,6.67688e-03,9.99999e-01
5.107366428e-01,7.37130e-03,9.99999e-01,9.99999e-01,7.37130e-03,9.99999e-01
5.132903260e-01,8.12204e-03,9.99999e-01,9.99999e-01,8.12204e-03,9.99999e-01
5.158567776e-01,8.93212e-03,9.99999e-01,9.99999e-01,8.93212e-03,9.99999e-01
5.184360615e-01,9.80456e-03,9.99999e-01,9.99999e-01,9.80456e-03,9.99999e-01
5.210282418e-01,1.07424e-02,9.99999e-01,9.99999e-01,1.07424e-02,9.99999e-01
5.236333830e-01,1.17488e-02,9.99999e-01,9.99999e-01,1.17488e-02,9.99999e-01
5.262515499e-01,1.28267e-02,9.99999e-01,9.99999e-01,1.28267e-02,9.99999e-01
5.288828077e-01,1.39793e-02,9.99999e-01,9.99999e-01,1.39793e-02,9.99999e-01
5.315272217e-01,1.52095e-02,9.99999e-01,9.99999e-01,1.52095e-02,9.99999e-01
5.341848578e-01,1.65205e-02,9.99999e-01,9.99999e-01,1.65205e-02,9.99999e-01
5.368557821e-01,1.79152e-02,9.99999e-01,9.99999e-01,1.79152e-02,9.99999e-01
5.395400610e-01,1.93966e-02,9.99999e-01,9.99999e-01,1.93966e-02,9.99999e-01
5.422377613e-01,2.09675e-02,9.99999e-01,9.99999e-01,2.09675e-02,9.99999e-01
5.449489501e-01,2.26308e-02,9.99999e-01,9.99999e-01,2.26308e-02,9.99999e-01
5.476736949e-01,2.43893e-02,9.99999e-01,9.99999e-01,2.43893e-02,9.99999e-01
5.504120634e-01,2.62456e-02,9.99999e-01,9.99999e-01,2.62456e-02,9.99999e-01
5.531641237e-01,2.82023e-02,9.99999e-01,9.99999e-01,2.82023e-02,9.99999e-01
5.559299443e-01,3.02618e-02,9.99999e-01,9.99999e-01,3.02618e-02,9.99999e-01
5.587095940e-01,3.24265e-02,9.99999e-01,9.99999e-01,3.24265e-02,9.99999e-01
5.615031420e-01,3.46988e-02,9.99999e-01,9.99999e-01,3.46988e-02,9.99999e-01
5.643106577e-01,3.70806e-02,9.99999e-01,9.99999e-01,3.70806e-02,9.99999e-01
5.671322110e-01,3.95739e-02,9.99999e-01,9.99999e-01,3.95739e-02,9.99999e-01
5.699678720e-01,4.21807e-02,9.99999e-01,9.99999e-01,4.21807e-02,9.99999e-01
5.728177114e-01,4.49026e-02,9.99999e-01,9.99999e-01,4.49026e-02,9.99999e-01
5.756818000e-01,4.77411e-02,9.99999e-01,9.99999e-01,4.77411e-02,9.99999e-01
5.785602090e-01,5.06976e-02,9.99999e-01,9.99999e-01,5.06976e-02,9.99999e-01
5.814530100e-01,5.37734e-02,9.99999e-01,9.99999e-01,5.37734e-02,9.99999e-01
5.843602750e-01,5.69694e-02,9.99999e-01,9.99999e-01,5.69694e-02,9.99999e-01
5.872820764e-01,6.02866e-02,9.99999e-01,9.99999e-01,6.02866e-02,9.99999e-01
5.902184868e-01,6.37257e-02,9.99999e-01,9.99999e-01,6.37257e-02,9.99999e-01
5.931695792e-01,6.72872e-02,9.99999e-01,9.99999e-01,6.72872e-02,9.99999e-01
5.961354271e-01,7.09714e-02,9.99999e-01,9.99999e-01,7.09714e-02,9.99999e-01
5.991161043e-01,7.47786e-02,9.99999e-01,9.99999e-01,7.47786e-02,9.99999e-01
6.021116848e-01,7.87087e-02,9.99999e-01,9.99999e-01,7.87087e-02,9.99999e-01
6.051222432e-01,8.27617e-02,9.99999e-01,9.99999e-01,8.27617e-02,9.99999e-01
6.081478544e-01,8.69370e-02,9.99999e-01,9.99999e-01,8.69370e-02,9.99999e-01
6.111885937e-01,9.12343e-02,9.99999e-01,9.99999e-01,9.12343e-02,9.99999e-01
6.142445367e-01,9.56528e-02,9.99999e-01,9.99999e-01,9.56528e-02,9.99999e-01
6.173157594e-01,1.00192e-01,9.99999e-01,9.99999e-01,1.00192e-01,9.99999e-01
6.204023382e-01,1.04850e-01,9.99999e-01,9.99999e-01,1.04850e-01,9.99999e-01
6.235043498e-01,1.09626e-01,9.99999e-01,9.99999e-01,1.09626e-01,9.99999e-01
6.266218716e-01,1.14519e-01,9.99999e-01,9.99999e-01,1.14519e-01,9.99999e-01
6.297549810e-01,1.19527e-01,9.99999e-01,9.99999e-01,1.19527e-01,9.99999e-01
6.329037559e-01,1.24649e-01,9.99999e-01,9.99999e-01,1.24649e-01,9.99999e-01
6.360682746e-01,1.29883e-01,9.99999e-01,9.99999e-01,1.29883e-01,9.99999e-01
6.392486160e-01,1.35226e-01,9.99999e-01,9.99999e-01,1.35226e-01,9.99999e-01
6.424448591e-01,1.40678e-01,9.99999e-01,9.99999e-01,1.40678e-01,9.99999e-01
6.456570834e-01,1.46234e-01,9.99999e-01,9.99999e-01,1.46234e-01,9.99999e-01
6.488853688e-01,1.51894e-01,9.99999e-01,9.99999e-01,1.51894e-01,9.99999e-01
6.521297956e-01,1.57655e-01,9.99999e-01,9.99999e-01,1.57655e-01,9.99999e-01
6.553904446e-01,1.63514e-01,9.99999e-01,9.99999e-01,1.63514e-01,9.99999e-01
6.586673968e-01,1.69469e-01,9.99999e-01,9.99999e-01,1.69469e-01,9.99999e-01
6.619607338e-01,1.75516e-01,9.99999e-01,9.99999e-01,1.75516e-01,9.99999e-01
6.652705375e-01,1.81654e-01,9.99999e-01,9.99999e-01,1.81654e-01,9.99999e-01
6.685968902e-01,1.87878e-01,9.99999e-01,9.99999e-01,1.87878e-01,9.99999e-01
6.719398746e-01,1.94186e-01,9.99999e-01,9.99999e-01,1.94186e-01,9.99999e-01
6.752995740e-01,2.00576e-01,9.99999e-01,9.99999e-01,2.00576e-01,9.99999e-01
6.786760719e-01,2.07043e-01,9.99999e-01,9.99999e-01,2.07043e-01,9.99999e-01
6.820694522e-01,2.13584e-01,9.99999e-01,9.99999e-01,2.13584e-01,9.99999e-01
6.854797995e-01,2.20197e-01,9.99999e-01,9.99999e-01,2.20197e-01,9.99999e-01
6.889071985e-01,2.26878e-01,9.99999e-01,9.99999e-01,2.26878e-01,9.99999e-01
6.923517345e-01,2.33624e-01,9.99999e-01,9.99999e-01,2.33624e-01,9.99999e-01
6.958134932e-01,2.40431e-01,9.99999e-01,9.99999e-01,2.40431e-01,9.99999e-01
6.992925606e-01,2.47296e-01,9.99999e-01,9.99999e-01,2.47296e-01,9.99999e-01
7.027890234e-01,2.54216e-01,9.99999e-01,9.99999e-01,2.54216e-01,9.99999e-01
7.063029686e-01,2.61187e-01,9.99999e-01,9.99999e-01,2.61187e-01,9.99999e-01
7.098344834e-01,2.68206e-01,9.99999e-01,9.99999e-01,2.68206e-01,9.99999e-01
7.133836558e-01,2.75269e-01,9.99999e-01,9.99999e-01,2.75269e-01,9.99999e-01
7.169505741e-01,2.82374e-01,9.99999e-01,9.99999e-01,2.82374e-01,9.99999e-01
7.205353270e-01,2.89515e-01,9.99999e-01,9.99999e-01,2.89515e-01,9.99999e-01
7.241380036e-01,2.96691e-01,9.99999e-01,9.99999e-01,2.96691e-01,9.99999e-01
7.277586936e-01,3.03898e-01,9.99999e-01,9.99999e-01,3.03898e-01,9.99999e-01
7.313974871e-01,3.11133e-01,9.99999e-01,9.99999e-01,3.11133e-01,9.99999e-01
7.350544745e-01,3.18391e-01,9.99999e-01,9.99999e-01,3.18391e-01,9.99999e-01
7.387297469e-01,3.25671e-01,9.99999e-01,9.99999e-01,3.25671e-01,9.99999e-01
7.424233956e-01,3.32968e-01,9.99999e-01,9.99999e-01,3.32968e-01,9.99999e-01
7.461355126e-01,3.40280e-01,9.99999e-01,9.99999e-01,3.40280e-01,9.99999e-01
7.498661902e-01,3.47603e-01,9.99999e-01,9.99999e-01,3.47603e-01,9.99999e-01
7.536155211e-01,3.54935e-01,9.99999e-01,9.99999e-01,3.54935e-01,9.99999e-01
7.573835987e-01,3.62272e-01,9.99999e-01,9.99999e-01,3.62272e-01,9.99999e-01
7.611705167e-01,3.69611e-01,9.99999e-01,9.99999e-01,3.69611e-01,9.99999e-01
7.649763693e-01,3.76949e-01,9.99999e-01,9.99999e-01,3.76949e-01,9.99999e-01
7.688012511e-01,3.84284e-01,9.99999e-01,9.99999e-01,3.84284e-01,9.99999e-01
7.726452574e-01,3.91612e-01,9.99999e-01,9.99999e-01,3.91612e-01,9.99999e-01
7.765084837e-01,3.98931e-01,9.99999e-01,9.99999e-01,3.98931e-01,9.99999e-01
7.803910261e-01,3.89332e-01,9.99999e-01,9.58382e-01,4.06239e-01,9.99999e-01
7.842929812e-01,3.43613e-01,9.99999e-01,8.30921e-01,4.13532e-01,9.99999e-01
7.882144461e-01,3.44949e-01,9.99999e-01,8.19730e-01,4.20808e-01,9.99999e-01
7.921555184e-01,3.80901e-01,9.99999e-01,8.89820e-01,4.28064e-01,9.99999e-01
7.961162960e-01,4.02674e-01,9.99999e-01,9.25052e-01,4.35299e-01,9.99999e-01
8.000968774e-01,4.24190e-01,9.99999e-01,9.58601e-01,4.42509e-01,9.99999e-01
8.040973618e-01,4.39974e-01,9.99999e-01,9.78386e-01,4.49693e-01,9.99999e-01
8.081178486e-01,4.52279e-01,9.99999e-01,9.89996e-01,4.56848e-01,9.99999e-01
8.121584379e-01,4.62543e-01,9.99999e-01,9.96917e-01,4.63973e-01,9.99999e-01
8.162192301e-01,4.70743e-01,9.99999e-01,9.99318e-01,4.71064e-01,9.99999e-01
8.203003262e-01,4.78116e-01,9.99999e-01,9.99989e-01,4.78121e-01,9.99999e-01
8.244018279e-01,4.85140e-01,9.99999e-01,9.99999e-01,4.85140e-01,9.99999e-01
8.285238370e-01,4.92122e-01,9.99999e-01,9.99999e-01,4.92122e-01,9.99999e-01
8.326664562e-01,4.99062e-01,9.99999e-01,9.99999e-01,4.99062e-01,9.99999e-01
8.368297885e-01,5.05961e-01,9.99999e-01,9.99999e-01,5.05961e-01,9.99999e-01
8.410139374e-01,5.12816e-01,9.99999e-01,9.99999e-01,5.12816e-01,9.99999e-01
8.452190071e-01,5.19625e-01,9.99999e-01,9.99999e-01,5.19625e-01,9.99999e-01
8.494451021e-01,5.26388e-01,9.99999e-01,9.99999e-01,5.26388e-01,9.99999e-01
8.536923276e-01,5.33103e-01,9.99999e-01,9.99999e-01,5.33103e-01,9.99999e-01
8.579607893e-01,5.39768e-01,9.99999e-01,9.99999e-01,5.39768e-01,9.99999e-01
8.622505932e-01,5.46382e-01,9.99999e-01,9.99999e-01,5.46382e-01,9.99999e-01
8.665618462e-01,5.05422e-01,9.99999e-01,9.14055e-01,5.52945e-01,9.99999e-01
8.708946554e-01,3.49832e-01,9.99999e-01,6.25310e-01,5.59454e-01,9.99999e-01
8.752491287e-01,3.87330e-01,9.99999e-01,6.84438e-01,5.65909e-01,9.99999e-01
8.796253743e-01,4.64390e-01,9.99999e-01,8.11432e-01,5.72309e-01,9.99999e-01
8.840235012e-01,5.19104e-01,9.99999e-01,8.97091e-01,5.78653e-01,9.99999e-01
8.884436187e-01,5.60470e-01,9.99999e-01,9.58167e-01,5.84939e-01,9.99999e-01
8.928858368e-01,5.81014e-01,9.99999e-01,9.82823e-01,5.91168e-01,9.99999e-01
8.973502660e-01,5.94839e-01,9.99999e-01,9.95816e-01,5.97338e-01,9.99999e-01
9.018370173e-01,6.03171e-01,9.99999e-01,9.99538e-01,6.03449e-01,9.99999e-01
9.063462024e-01,6.02193e-01,9.99999e-01,9.88012e-01,6.09499e-01,9.99999e-01
9.108779334e-01,5.98868e-01,9.99999e-01,9.72994e-01,6.15489e-01,9.99999e-01
9.154323231e-01,6.17463e-01,9.99999e-01,9.93634e-01,6.21418e-01,9.99999e-01
9.200094847e-01,5.71650e-01,9.99999e-01,9.11306e-01,6.27285e-01,9.99999e-01
9.246095321e-01,5.53697e-01,9.99999e-01,8.74593e-01,6.33090e-01,9.99999e-01
9.292325798e-01,5.74931e-01,9.99999e-01,8.99971e-01,6.38833e-01,9.99999e-01
9.338787427e-01,5.82335e-01,9.99999e-01,9.03526e-01,6.44512e-01,9.99999e-01
9.385481364e-01,6.03370e-01,9.99999e-01,9.28077e-01,6.50129e-01,9.99999e-01
9.432408771e-01,6.26425e-01,9.99999e-01,9.55379e-01,6.55682e-01,9.99999e-01
9.479570815e-01,6.45849e-01,9.99999e-01,9.76825e-01,6.61171e-01,9.99999e-01
9.526968669e-01,6.59114e-01,9.99999e-01,9.88774e-01,6.66597e-01,9.99999e-01
9.574603512e-01,6.68725e-01,9.99999e-01,9.95187e-01,6.71958e-01,9.99999e-01
9.622476530e-01,6.76239e-01,9.99999e-01,9.98497e-01,6.77256e-01,9.99999e-01
9.670588912e-01,6.82182e-01,9.99999e-01,9.99550e-01,6.82489e-01,9.99999e-01
9.718941857e-01,6.87637e-01,9.99999e-01,9.99968e-01,6.87658e-01,9.99999e-01
9.767536566e-01,6.92764e-01,9.99999e-01,9.99999e-01,6.92764e-01,9.99999e-01
9.816374249e-01,6.97805e-01,9.99999e-01,9.99999e-01,6.97805e-01,9.99999e-01
9.865456120e-01,7.02782e-01,9.99999e-01,9.99999e-01,7.02782e-01,9.99999e-01
9.914783401e-01,7.07695e-01,9.99999e-01,9.99999e-01,7.07695e-01,9.99999e-01
9.964357318e-01,7.12545e-01,9.99999e-01,9.99999e-01,7.12545e-01,9.99999e-01
1.001417910e+00,7.17331e-01,9.99999e-01,9.99999e-01,7.17331e-01,9.99999e-01
1.006425000e+00,7.22053e-01,9.99999e-01,9.99999e-01,7.22053e-01,9.99999e-01
1.011457125e+00,7.26713e-01,9.99999e-01,9.99999e-01,7.26713e-01,9.99999e-01
1.016514411e+00,7.31310e-01,9.99999e-01,9.99999e-01,7.31310e-01,9.99999e-01
1.021596983e+00,7.35793e-01,9.99999e-01,9.99930e-01,7.35844e-01,9.99999e-01
1.026704968e+00,7.36832e-01,9.99999e-01,9.95294e-01,7.40316e-01,9.99999e-01
1.031838492e+00,7.05083e-01,9.99999e-01,9.46768e-01,7.44726e-01,9.99999e-01
1.036997685e+00,9.32198e-02,9.99999e-01,1.24447e-01,7.49074e-01,9.99999e-01
1.042182673e+00,5.75849e-02,9.99999e-01,7.64373e-02,7.53361e-01,9.99999e-01
1.047393587e+00,7.59034e-02,9.99999e-01,1.00191e-01,7.57587e-01,9.99999e-01
1.052630555e+00,1.04883e-03,9.99999e-01,1.37687e-03,7.61753e-01,9.99999e-01
1.057893707e+00,3.00447e-03,9.99999e-01,3.92300e-03,7.65858e-01,9.99999e-01
1.063183176e+00,1.26594e-02,9.99999e-01,1.64428e-02,7.69905e-01,9.99999e-01
1.068499092e+00,4.25677e-02,9.99999e-01,5.50046e-02,7.73891e-01,9.99999e-01
1.073841587e+00,1.24272e-01,9.99999e-01,1.59769e-01,7.77820e-01,9.99999e-01
1.079210795e+00,2.44632e-01,9.99999e-01,3.12952e-01,7.81689e-01,9.99999e-01
1.084606849e+00,4.13568e-01,9.99999e-01,5.26502e-01,7.85502e-01,9.99999e-01
1.090029883e+00,5.65344e-01,9.99999e-01,7.16299e-01,7.89257e-01,9.99999e-01
1.095480033e+00,6.72787e-01,9.99999e-01,8.48455e-01,7.92955e-01,9.99999e-01
1.100957433e+00,7.35912e-01,9.99999e-01,9.23819e-01,7.96597e-01,9.99999e-01
1.106462220e+00,7.74407e-01,9.99999e-01,9.67787e-01,8.00183e-01,9.99999e-01
1.111994531e+00,7.94018e-01,9.99999e-01,9.87936e-01,8.03714e-01,9.99999e-01
1.117554504e+00,8.04810e-01,9.99999e-01,9.97050e-01,8.07190e-01,9.99999e-01
1.123142276e+00,8.10456e-01,9.99999e-01,9.99806e-01,8.10613e-01,9.99999e-01
1.128757988e+00,8.13981e-01,9.99999e-01,9.99999e-01,8.13982e-01,9.99999e-01
1.134401778e+00,8.17297e-01,9.99999e-01,9.99999e-01,8.17297e-01,9.99999e-01
1.140073787e+00,8.20561e-01,9.99999e-01,9.99999e-01,8.20561e-01,9.99999e-01
1.145774156e+00,8.23773e-01,9.99999e-01,9.99999e-01,8.23773e-01,9.99999e-01
1.151503026e+00,8.26933e-01,9.99999e-01,9.99999e-01,8.26933e-01,9.99999e-01
1.157260541e+00,8.30043e-01,9.99999e-01,9.99999e-01,8.30043e-01,9.99999e-01
1.163046844e+00,8.33103e-01,9.99999e-01,9.99999e-01,8.33103e-01,9.99999e-01
1.168862078e+00,8.36113e-01,9.99999e-01,9.99999e-01,8.36113e-01,9.99999e-01
1.174706389e+00,8.39074e-01,9.99999e-01,9.99999e-01,8.39074e-01,9.99999e-01
1.180579921e+00,8.41987e-01,9.99999e-01,9.99999e-01,8.41987e-01,9.99999e-01
1.186482820e+00,8.44844e-01,9.99999e-01,9.99989e-01,8.44852e-01,9.99999e-01
1.192415234e+00,8.33537e-01,9.99999e-01,9.83326e-01,8.47671e-01,9.99999e-01
1.198377311e+00,4.72028e-01,9.99999e-01,5.55037e-01,8.50442e-01,9.99999e-01
1.204369197e+00,2.25032e-13,9.99999e-01,2.63760e-13,8.53168e-01,9.99999e-01
1.210391043e+00,4.83438e-50,9.99999e-01,5.64863e-50,8.55848e-01,9.99999e-01
1.216442998e+00,1.74258e-43,9.99999e-01,2.02983e-43,8.58484e-01,9.99999e-01
1.222525213e+00,7.47766e-43,9.99999e-01,8.68409e-43,8.61075e-01,9.99999e-01
1.228637839e+00,3.40759e-33,9.99999e-01,3.94569e-33,8.63623e-01,9.99999e-01
1.234781029e+00,2.88235e-21,9.99999e-01,3.32786e-21,8.66127e-01,9.99999e-01
1.240954934e+00,2.60293e-14,9.99999e-01,2.99672e-14,8.68590e-01,9.99999e-01
1.247159708e+00,1.05636e-07,9.99999e-01,1.21280e-07,8.71010e-01,9.99999e-01
1.253395507e+00,4.83789e-05,9.99999e-01,5.53921e-05,8.73389e-01,9.99999e-01
1.259662485e+00,3.15277e-03,9.99999e-01,3.60017e-03,8.75728e-01,9.99999e-01
1.265960797e+00,3.45713e-02,9.99999e-01,3.93739e-02,8.78026e-01,9.99999e-01
1.272290601e+00,2.19011e-01,9.99999e-01,2.48795e-01,8.80285e-01,9.99999e-01
1.278652054e+00,1.85185e-01,9.99999e-01,2.09840e-01,8.82505e-01,9.99999e-01
1.285045314e+00,2.51329e-03,9.99999e-01,2.84088e-03,8.84687e-01,9.99999e-01
1.291470541e+00,1.60619e-06,9.99999e-01,1.81115e-06,8.86830e-01,9.99999e-01
1.297927893e+00,3.94177e-03,9.99999e-01,4.43425e-03,8.88937e-01,9.99999e-01
1.304417533e+00,7.02716e-02,9.99999e-01,7.88676e-02,8.91006e-01,9.99999e-01
1.310939621e+00,1.14002e-02,9.99999e-01,1.27655e-02,8.93039e-01,9.99999e-01
1.317494319e+00,9.42653e-18,9.99999e-01,1.05320e-17,8.95037e-01,9.99999e-01
1.324081790e+00,4.91159e-12,9.99999e-01,5.47557e-12,8.97000e-01,9.99999e-01
1.330702199e+00,3.97335e-07,9.99999e-01,4.42010e-07,8.98928e-01,9.99999e-01
1.337355710e+00,7.19653e-07,9.99999e-01,7.98884e-07,9.00822e-01,9.99999e-01
1.344042489e+00,2.31603e-07,9.99999e-01,2.56572e-07,9.02682e-01,9.99999e-01
1.350762701e+00,2.37601e-07,9.99999e-01,2.62684e-07,9.04509e-01,9.99999e-01
1.357516515e+00,6.30936e-05,9.99999e-01,6.96163e-05,9.06304e-01,9.99999e-01
1.364304097e+00,1.57324e-03,9.99999e-01,1.73251e-03,9.08067e-01,9.99999e-01
1.371125618e+00,3.37495e-02,9.99999e-01,3.70955e-02,9.09799e-01,9.99999e-01
1.377981246e+00,5.90965e-02,9.99999e-01,6.48343e-02,9.11499e-01,9.99999e-01
1.384871152e+00,1.85922e-01,9.99999e-01,2.03600e-01,9.13169e-01,9.99999e-01
1.391795508e+00,2.10299e-01,9.99999e-01,2.29883e-01,9.14809e-01,9.99999e-01
1.398754485e+00,3.68840e-01,9.99999e-01,4.02479e-01,9.16419e-01,9.99999e-01
1.405748258e+00,4.70474e-01,9.99999e-01,5.12498e-01,9.18000e-01,9.99999e-01
1.412776999e+00,6.02584e-01,9.99999e-01,6.55300e-01,9.19553e-01,9.99999e-01
1.419840884e+00,5.37819e-01,9.99999e-01,5.83902e-01,9.21078e-01,9.99999e-01
1.426940089e+00,4.21150e-02,9.99999e-01,4.56494e-02,9.22574e-01,9.99999e-01
1.434074789e+00,0.00000e+00,9.99999e-01,0.00000e+00,9.24044e-01,9.99999e-01
1.441245163e+00,0.00000e+00,9.99999e-01,0.00000e+00,9.25487e-01,9.99999e-01
1.448451389e+00,0.00000e+00,9.99999e-01,0.00000e+00,9.26904e-01,9.99999e-01
1.455693646e+00,0.00000e+00,9.99999e-01,0.00000e+00,9.28294e-01,9.99999e-01
1.462972114e+00,3.19052e-196,9.99999e-01,3.43192e-196,9.29660e-01,9.99999e-01
1.470286975e+00,4.58639e-82,9.99999e-01,4.92630e-82,9.31000e-01,9.99999e-01
