#,Wave/freq,Total,N2,CO2,Rayleigh,CIA
4.000000000e-01,4.71616e-11,9.99999e-01,9.99999e-01,4.71616e-11,9.99999e-01
4.020000000e-01,7.54698e-11,9.99999e-01,9.99999e-01,7.54698e-11,9.99999e-01
4.040100000e-01,1.19595e-10,9.99999e-01,9.99999e-01,1.19595e-10,9.99999e-01
4.060300500e-01,1.87803e-10,9.99999e-01,9.99999e-01,1.87803e-10,9.99999e-01
4.080602003e-01,2.92294e-10,9.99999e-01,9.99999e-01,2.92294e-10,9.99999e-01
4.101005013e-01,4.50966e-10,9.99999e-01,9.99999e-01,4.50966e-10,9.99999e-01
4.121510038e-01,6.89839e-10,9.99999e-01,9.99999e-01,6.89839e-10,9.99999e-01
4.142117588e-01,1.04642e-09,9.99999e-01,9.99999e-01,1.04642e-09,9.99999e-01
4.162828176e-01,1.57430e-09,9.99999e-01,9.99999e-01,1.57430e-09,9.99999e-01
4.183642317e-01,2.34946e-09,9.99999e-01,9.99999e-01,2.34946e-09,9.99999e-01
4.204560528e-01,3.47866e-09,9.99999e-01,9.99999e-01,3.47866e-09,9.99999e-01
4.225583331e-01,5.11082e-09,9.99999e-01,9.99999e-01,5.11082e-09,9.99999e-01
4.246711247e-01,7.45192e-09,9.99999e-01,9.99999e-01,7.45192e-09,9.99999e-01
4.267944804e-01,1.07848e-08,9.99999e-01,9.99999e-01,1.07848e-08,9.99999e-01
4.289284528e-01,1.54947e-08,9.99999e-01,9.99999e-01,1.54947e-08,9.99999e-01
4.310730950e-01,2.21027e-08,9.99999e-01,9.99999e-01,2.21027e-08,9.99999e-01
4.332284605e-01,3.13085e-08,9.99999e-01,9.99999e-01,3.13085e-08,9.99999e-01
4.353946028e-01,4.40445e-08,9.99999e-01,9.99999e-01,4.40445e-08,9.99999e-01
4.375715758e-01,6.15450e-08,9.99999e-01,9.99999e-01,6.15450e-08,9.99999e-01
4.397594337e-01,8.54327e-08,9.99999e-01,9.99999e-01,8.54327e-08,9.99999e-01
4.419582309e-01,1.17826e-07,9.99999e-01,9.99999e-01,1.17826e-07,9.99999e-01
4.441680220e-01,1.61474e-07,9.99999e-01,9.99999e-01,1.61474e-07,9.99999e-01
4.463888621e-01,2.19917e-07,9.99999e-01,9.99999e-01,2.19917e-07,9.99999e-01
4.486208064e-01,2.97691e-07,9.99999e-01,9.99999e-01,2.97691e-07,9.99999e-01
4.508639105e-01,4.00567e-07,9.99999e-01,9.99999e-01,4.00567e-07,9.99999e-01
4.531182300e-01,5.35844e-07,9.99999e-01,9.99999e-01,5.35844e-07,9.99999e-01
4.553838212e-01,7.12697e-07,9.99999e-01,9.99999e-01,7.12697e-07,9.99999e-01
4.576607403e-01,9.42596e-07,9.99999e-01,9.99999e-01,9.42596e-07,9.99999e-01
4.599490440e-01,1.23979e-06,9.99999e-01,9.99999e-01,1.23979e-06,9.99999e-01
4.622487892e-01,1.62188e-06,9.99999e-01,9.99999e-01,1.62188e-06,9.99999e-01
4.645600332e-01,2.11050e-06,9.99999e-01,9.99999e-01,2.11050e-06,9.99999e-01
4.668828333e-01,2.73207e-06,9.99999e-01,9.99999e-01,2.73207e-06,9.99999e-01
4.692172475e-01,3.51873e-06,9.99999e-01,9.99999e-01,3.51873e-06,9.99999e-01
4.715633337e-01,4.50929e-06,9.99999e-01,9.99999e-01,4.50929e-06,9.99999e-01
4.739211504e-01,5.75046e-06,9.99999e-01,9.99999e-01,5.75046e-06,9.99999e-01
4.762907561e-01,7.29813e-06,9.99999e-01,9.99999e-01,7.29813e-06,9.99999e-01
4.786722099e-01,9.21883e-06,9.99999e-01,9.99999e-01,9.21883e-06,9.99999e-01
4.810655710e-01,1.15914e-05,9.99999e-01,9.99999e-01,1.15914e-05,9.99999e-01
4.834708988e-01,1.45088e-05,9.99999e-01,9.99999e-01,1.45088e-05,9.99999e-01
4.858882533e-01,1.80801e-05,9.99999e-01,9.99999e-01,1.80801e-05,9.99999e-01
4.883176946e-01,2.24328e-05,9.99999e-01,9.99999e-01,2.24328e-05,9.99999e-01
4.907592831e-01,2.77150e-05,9.99999e-01,9.99999e-01,2.77150e-05,9.99999e-01
4.932130795e-01,3.40983e-05,9.99999e-01,9.99999e-01,3.40983e-05,9.99999e-01
4.956791449e-01,4.17803e-05,9.99999e-01,9.99999e-01,4.17803e-05,9.99999e-01
4.981575406e-01,5.09881e-05,9.99999e-01,9.99999e-01,5.09881e-05,9.99999e-01
5.006483283e-01,6.19807e-05,9.99999e-01,9.99999e-01,6.19807e-05,9.99999e-01
5.031515699e-01,7.50534e-05,9.99999e-01,9.99999e-01,7.50534e-05,9.99999e-01
5.056673278e-01,9.05403e-05,9.99999e-01,9.99999e-01,9.05403e-05,9.99999e-01
5.081956644e-01,1.08819e-04,9.99999e-01,9.99999e-01,1.08819e-04,9.99999e-01
5.107366428e-01,1.30313e-04,9.99999e-01,9.99999e-01,1.30313e-04,9.99999e-01
5.132903260e-01,1.55499e-04,9.99999e-01,9.99999e-01,1.55499e-04,9.99999e-01
5.158567776e-01,1.84906e-04,9.99999e-01,9.99999e-01,1.84906e-04,9.99999e-01
5.184360615e-01,2.19123e-04,9.99999e-01,9.99999e-01,2.19123e-04,9.99999e-01
5.210282418e-01,2.58802e-04,9.99999e-01,9.99999e-01,2.58802e-04,9.99999e-01
5.236333830e-01,3.04664e-04,9.99999e-01,9.99999e-01,3.04664e-04,9.99999e-01
5.262515499e-01,3.57498e-04,9.99999e-01,9.99999e-01,3.57498e-04,9.99999e-01
5.288828077e-01,4.18172e-04,9.99999e-01,9.99999e-01,4.18172e-04,9.99999e-01
5.315272217e-01,4.87632e-04,9.99999e-01,9.99999e-01,4.87632e-04,9.99999e-01
5.341848578e-01,5.66905e-04,9.99999e-01,9.99999e-01,5.66905e-04,9.99999e-01
5.368557821e-01,6.57108e-04,9.99999e-01,9.99999e-01,6.57108e-04,9.99999e-01
5.395400610e-01,7.59444e-04,9.99999e-01,9.99999e-01,7.59444e-04,9.99999e-01
5.422377613e-01,8.75213e-04,9.99999e-01,9.99999e-01,8.75213e-04,9.99999e-01
5.449489501e-01,1.00581e-03,9.99999e-01,9.99999e-01,1.00581e-03,9.99999e-01
5.476736949e-01,1.15272e-03,9.99999e-01,9.99999e-01,1.15272e-03,9.99999e-01
5.504120634e-01,1.31753e-03,9.99999e-01,9.99999e-01,1.31753e-03,9.99999e-01
5.531641237e-01,1.50194e-03,9.99999e-01,9.99999e-01,1.50194e-03,9.99999e-01
5.559299443e-01,1.70774e-03,9.99999e-01,9.99999e-01,1.70774e-03,9.99999e-01
5.587095940e-01,1.93681e-03,9.99999e-01,9.99999e-01,1.93681e-03,9.99999e-01
5.615031420e-01,2.19116e-03,9.99999e-01,9.99999e-01,2.19116e-03,9.99999e-01
5.643106577e-01,2.47288e-03,9.99999e-01,9.99999e-01,2.47288e-03,9.99999e-01
5.671322110e-01,2.78415e-03,9.99999e-01,9.99999e-01,2.78415e-03,9.99999e-01
5.699678720e-01,3.12728e-03,9.99999e-01,9.99999e-01,3.12728e-03,9.99999e-01
5.728177114e-01,3.50464e-03,9.99999e-01,9.99999e-01,3.50464e-03,9.99999e-01
5.756818000e-01,3.91871e-03,9.99999e-01,9.99999e-01,3.91871e-03,9.99999e-01
5.785602090e-01,4.37204e-03,9.99999e-01,9.99999e-01,4.37204e-03,9.99999e-01
5.814530100e-01,4.86728e-03,9.99999e-01,9.99999e-01,4.86728e-03,9.99999e-01
5.843602750e-01,5.40715e-03,9.99999e-01,9.99999e-01,5.40715e-03,9.99999e-01
5.872820764e-01,5.99443e-03,9.99999e-01,9.99999e-01,5.99443e-03,9.99999e-01
5.902184868e-01,6.63197e-03,9.99999e-01,9.99999e-01,6.63197e-03,9.99999e-01
5.931695792e-01,7.32269e-03,9.99999e-01,9.99999e-01,7.32269e-03,9.99999e-01
5.961354271e-01,8.06954e-03,9.99999e-01,9.99999e-01,8.06954e-03,9.99999e-01
5.991161043e-01,8.87552e-03,9.99999e-01,9.99999e-01,8.87552e-03,9.99999e-01
6.021116848e-01,9.74365e-03,9.99999e-01,9.99999e-01,9.74365e-03,9.99999e-01
6.051222432e-01,1.06770e-02,9.99999e-01,9.99999e-01,1.06770e-02,9.99999e-01
6.081478544e-01,1.16786e-02,9.99999e-01,9.99999e-01,1.16786e-02,9.99999e-01
6.111885937e-01,1.27516e-02,9.99999e-01,9.99999e-01,1.27516e-02,9.99999e-01
6.142445367e-01,1.38991e-02,9.99999e-01,9.99999e-01,1.38991e-02,9.99999e-01
6.173157594e-01,1.51240e-02,9.99999e-01,9.99999e-01,1.51240e-02,9.99999e-01
6.204023382e-01,1.64294e-02,9.99999e-01,9.99999e-01,1.64294e-02,9.99999e-01
6.235043498e-01,1.78184e-02,9.99999e-01,9.99999e-01,1.78184e-02,9.99999e-01
6.266218716e-01,1.92938e-02,9.99999e-01,9.99999e-01,1.92938e-02,9.99999e-01
6.297549810e-01,2.08586e-02,9.99999e-01,9.99999e-01,2.08586e-02,9.99999e-01
6.329037559e-01,2.25156e-02,9.99999e-01,9.99999e-01,2.25156e-02,9.99999e-01
6.360682746e-01,2.42676e-02,9.99999e-01,9.99999e-01,2.42676e-02,9.99999e-01
6.392486160e-01,2.61172e-02,9.99999e-01,9.99999e-01,2.61172e-02,9.99999e-01
6.424448591e-01,2.80670e-02,9.99999e-01,9.99999e-01,2.80670e-02,9.99999e-01
6.456570834e-01,3.01195e-02,9.99999e-01,9.99999e-01,3.01195e-02,9.99999e-01
6.488853688e-01,3.22771e-02,9.99999e-01,9.99999e-01,3.22771e-02,9.99999e-01
6.521297956e-01,3.45420e-02,9.99999e-01,9.99999e-01,3.45420e-02,9.99999e-01
6.553904446e-01,3.69163e-02,9.99999e-01,9.99999e-01,3.69163e-02,9.99999e-01
6.586673968e-01,3.94021e-02,9.99999e-01,9.99999e-01,3.94021e-02,9.99999e-01
6.619607338e-01,4.20012e-02,9.99999e-01,9.99999e-01,4.20012e-02,9.99999e-01
6.652705375e-01,4.47152e-02,9.99999e-01,9.99999e-01,4.47152e-02,9.99999e-01
6.685968902e-01,4.75458e-02,9.99999e-01,9.99999e-01,4.75458e-02,9.99999e-01
6.719398746e-01,5.04943e-02,9.99999e-01,9.99999e-01,5.04943e-02,9.99999e-01
6.752995740e-01,5.35620e-02,9.99999e-01,9.99999e-01,5.35620e-02,9.99999e-01
6.786760719e-01,5.67499e-02,9.99999e-01,9.99999e-01,5.67499e-02,9.99999e-01
6.820694522e-01,6.00589e-02,9.99999e-01,9.99999e-01,6.00589e-02,9.99999e-01
6.854797995e-01,6.34897e-02,9.99999e-01,9.99999e-01,6.34897e-02,9.99999e-01
6.889071985e-01,6.70429e-02,9.99999e-01,9.99999e-01,6.70429e-02,9.99999e-01
6.923517345e-01,7.07189e-02,9.99999e-01,9.99999e-01,7.07189e-02,9.99999e-01
6.958134932e-01,7.45178e-02,9.99999e-01,9.99999e-01,7.45178e-02,9.99999e-01
6.992925606e-01,7.84396e-02,9.99999e-01,9.99999e-01,7.84396e-02,9.99999e-01
7.027890234e-01,8.24843e-02,9.99999e-01,9.99999e-01,8.24843e-02,9.99999e-01
7.063029686e-01,8.66514e-02,9.99999e-01,9.99999e-01,8.66514e-02,9.99999e-01
7.098344834e-01,9.09404e-02,9.99999e-01,9.99999e-01,9.09404e-02,9.99999e-01
7.133836558e-01,9.53508e-02,9.99999e-01,9.99999e-01,9.53508e-02,9.99999e-01
7.169505741e-01,9.98815e-02,9.99999e-01,9.99999e-01,9.98815e-02,9.99999e-01
7.205353270e-01,1.04532e-01,9.99999e-01,9.99999e-01,1.04532e-01,9.99999e-01
7.241380036e-01,1.09300e-01,9.99999e-01,9.99999e-01,1.09300e-01,9.99999e-01
7.277586936e-01,1.14185e-01,9.99999e-01,9.99999e-01,1.14185e-01,9.99999e-01
7.313974871e-01,1.19186e-01,9.99999e-01,9.99999e-01,1.19186e-01,9.99999e-01
7.350544745e-01,1.24300e-01,9.99999e-01,9.99999e-01,1.24300e-01,9.99999e-01
7.387297469e-01,1.29526e-01,9.99999e-01,9.99999e-01,1.29526e-01,9.99999e-01
7.424233956e-01,1.34862e-01,9.99999e-01,9.99999e-01,1.34862e-01,9.99999e-01
7.461355126e-01,1.40306e-01,9.99999e-01,9.99999e-01,1.40306e-01,9.99999e-01
7.498661902e-01,1.45856e-01,9.99999e-01,9.99999e-01,1.45856e-01,9.99999e-01
7.536155211e-01,1.51509e-01,9.99999e-01,9.99999e-01,1.51509e-01,9.99999e-01
7.573835987e-01,1.57263e-01,9.99999e-01,9.99999e-01,1.57263e-01,9.99999e-01
7.611705167e-01,1.63116e-01,9.99999e-01,9.99999e-01,1.63116e-01,9.99999e-01
7.649763693e-01,1.69064e-01,9.99999e-01,9.99999e-01,1.69064e-01,9.99999e-01
7.688012511e-01,1.75105e-01,9.99999e-01,9.99999e-01,1.75105e-01,9.99999e-01
7.726452574e-01,1.81237e-01,9.99999e-01,9.99999e-01,1.81237e-01,9.99999e-01
7.765084837e-01,1.87455e-01,9.99999e-01,9.99999e-01,1.87455e-01,9.99999e-01
7.803910261e-01,1.80989e-01,9.99999e-01,9.34096e-01,1.93758e-01,9.99999e-01
7.842929812e-01,1.43900e-01,9.99999e-01,7.18987e-01,2.00142e-01,9.99999e-01
7.882144461e-01,1.45726e-01,9.99999e-01,7.05340e-01,2.06604e-01,9.99999e-01
7.921555184e-01,1.72693e-01,9.99999e-01,8.10231e-01,2.13140e-01,9.99999e-01
7.961162960e-01,1.90584e-01,9.99999e-01,8.67278e-01,2.19749e-01,9.99999e-01
8.000968774e-01,2.09604e-01,9.99999e-01,9.25709e-01,2.26425e-01,9.99999e-01
8.040973618e-01,2.23998e-01,9.99999e-01,9.60674e-01,2.33167e-01,9.99999e-01
8.081178486e-01,2.35599e-01,9.99999e-01,9.81784e-01,2.39970e-01,9.99999e-01
8.121584379e-01,2.45428e-01,9.99999e-01,9.94313e-01,2.46831e-01,9.99999e-01
8.162192301e-01,2.53428e-01,9.99999e-01,9.98741e-01,2.53748e-01,9.99999e-01
8.203003262e-01,2.60710e-01,9.99999e-01,9.99979e-01,2.60715e-01,9.99999e-01
8.244018279e-01,2.67731e-01,9.99999e-01,9.99999e-01,2.67731e-01,9.99999e-01
8.285238370e-01,2.74791e-01,9.99999e-01,9.99999e-01,2.74791e-01,9.99999e-01
8.326664562e-01,2.81893e-01,9.99999e-01,9.99999e-01,2.81893e-01,9.99999e-01
8.368297885e-01,2.89032e-01,9.99999e-01,9.99999e-01,2.89032e-01,9.99999e-01
8.410139374e-01,2.96206e-01,9.99999e-01,9.99999e-01,2.96206e-01,9.99999e-01
8.452190071e-01,3.03411e-01,9.99999e-01,9.99999e-01,3.03411e-01,9.99999e-01
8.494451021e-01,3.10644e-01,9.99999e-01,9.99999e-01,3.10644e-01,9.99999e-01
8.536923276e-01,3.17901e-01,9.99999e-01,9.99999e-01,3.17901e-01,9.99999e-01
8.579607893e-01,3.25179e-01,9.99999e-01,9.99999e-01,3.25179e-01,9.99999e-01
8.622505932e-01,3.32475e-01,9.99999e-01,9.99999e-01,3.32475e-01,9.99999e-01
8.665618462e-01,3.01773e-01,9.99999e-01,8.88126e-01,3.39786e-01,9.99999e-01
8.708946554e-01,1.53353e-01,9.99999e-01,4.41800e-01,3.47109e-01,9.99999e-01
8.752491287e-01,1.80614e-01,9.99999e-01,5.09576e-01,3.54440e-01,9.99999e-01
8.796253743e-01,2.48092e-01,9.99999e-01,6.85762e-01,3.61776e-01,9.99999e-01
8.840235012e-01,3.02870e-01,9.99999e-01,8.20530e-01,3.69115e-01,9.99999e-01
8.884436187e-01,3.48057e-01,9.99999e-01,9.24567e-01,3.76454e-01,9.99999e-01
8.928858368e-01,3.71787e-01,9.99999e-01,9.68727e-01,3.83789e-01,9.99999e-01
8.973502660e-01,3.88101e-01,9.99999e-01,9.92287e-01,3.91118e-01,9.99999e-01
9.018370173e-01,3.98098e-01,9.99999e-01,9.99146e-01,3.98438e-01,9.99999e-01
9.063462024e-01,3.97190e-01,9.99999e-01,9.78912e-01,4.05746e-01,9.99999e-01
9.108779334e-01,3.92885e-01,9.99999e-01,9.51203e-01,4.13040e-01,9.99999e-01
9.154323231e-01,4.15385e-01,9.99999e-01,9.88265e-01,4.20317e-01,9.99999e-01
9.200094847e-01,3.65822e-01,9.99999e-01,8.55573e-01,4.27575e-01,9.99999e-01
9.246095321e-01,3.40738e-01,9.99999e-01,7.83645e-01,4.34811e-01,9.99999e-01
9.292325798e-01,3.66282e-01,9.99999e-01,8.28648e-01,4.42024e-01,9.99999e-01
9.338787427e-01,3.73736e-01,9.99999e-01,8.31985e-01,4.49209e-01,9.99999e-01
9.385481364e-01,3.98399e-01,9.99999e-01,8.72980e-01,4.56366e-01,9.99999e-01
9.432408771e-01,4.26331e-01,9.99999e-01,9.19821e-01,4.63493e-01,9.99999e-01
9.479570815e-01,4.50853e-01,9.99999e-01,9.58065e-01,4.70587e-01,9.99999e-01
9.526968669e-01,4.67878e-01,9.99999e-01,9.79549e-01,4.77646e-01,9.99999e-01
9.574603512e-01,4.80401e-01,9.99999e-01,9.91196e-01,4.84668e-01,9.99999e-01
9.622476530e-01,4.90297e-01,9.99999e-01,9.97244e-01,4.91652e-01,9.99999e-01
9.670588912e-01,4.98183e-01,9.99999e-01,9.99172e-01,4.98595e-01,9.99999e-01
9.718941857e-01,5.05467e-01,9.99999e-01,9.99940e-01,5.05497e-01,9.99999e-01
9.767536566e-01,5.12354e-01,9.99999e-01,9.99999e-01,5.12354e-01,9.99999e-01
9.816374249e-01,5.19167e-01,9.99999e-01,9.99999e-01,5.19167e-01,9.99999e-01
9.865456120e-01,5.25933e-01,9.99999e-01,9.99999e-01,5.25933e-01,9.99999e-01
9.914783401e-01,5.32651e-01,9.99999e-01,9.99999e-01,5.32651e-01,9.99999e-01
9.964357318e-01,5.39320e-01,9.99999e-01,9.99999e-01,5.39320e-01,9.99999e-01
1.001417910e+00,5.45938e-01,9.99999e-01,9.99999e-01,5.45938e-01,9.99999e-01
1.006425000e+00,5.52504e-01,9.99999e-01,9.99999e-01,5.52504e-01,9.99999e-01
1.011457125e+00,5.59016e-01,9.99999e-01,9.99999e-01,5.59016e-01,9.99999e-01
1.016514411e+00,5.65475e-01,9.99999e-01,9.99999e-01,5.65475e-01,9.99999e-01
1.021596983e+00,5.71817e-01,9.99999e-01,9.99891e-01,5.71879e-01,9.99999e-01
1.026704968e+00,5.73416e-01,9.99999e-01,9.91680e-01,5.78226e-01,9.99999e-01
1.031838492e+00,5.41201e-01,9.99999e-01,9.25894e-01,5.84517e-01,9.99999e-01
1.036997685e+00,4.28201e-02,9.99999e-01,7.24843e-02,5.90749e-01,9.99999e-01
1.042182673e+00,7.70137e-03,9.99999e-01,1.29018e-02,5.96923e-01,9.99999e-01
1.047393587e+00,1.59435e-02,9.99999e-01,2.64385e-02,6.03038e-01,9.99999e-01
1.052630555e+00,1.49492e-05,9.99999e-01,2.45433e-05,6.09093e-01,9.99999e-01
1.057893707e+00,5.31824e-05,9.99999e-01,8.64630e-05,6.15087e-01,9.99999e-01
1.063183176e+00,5.84878e-04,9.99999e-01,9.41802e-04,6.21020e-01,9.99999e-01
1.068499092e+00,3.77209e-03,9.99999e-01,6.01713e-03,6.26891e-01,9.99999e-01
1.073841587e+00,2.40272e-02,9.99999e-01,3.79756e-02,6.32701e-01,9.99999e-01
1.079210795e+00,8.10228e-02,9.99999e-01,1.26906e-01,6.38447e-01,9.99999e-01
1.084606849e+00,2.01956e-01,9.99999e-01,3.13532e-01,6.44131e-01,9.99999e-01
1.090029883e+00,3.54640e-01,9.99999e-01,5.45808e-01,6.49752e-01,9.99999e-01
1.095480033e+00,4.85808e-01,9.99999e-01,7.41341e-01,6.55309e-01,9.99999e-01
1.100957433e+00,5.71809e-01,9.99999e-01,8.65323e-01,6.60803e-01,9.99999e-01
1.106462220e+00,6.27487e-01,9.99999e-01,9.41843e-01,6.66233e-01,9.99999e-01
1.111994531e+00,6.56838e-01,9.99999e-01,9.78021e-01,6.71598e-01,9.99999e-01
1.117554504e+00,6.73230e-01,9.99999e-01,9.94576e-01,6.76900e-01,9.99999e-01
1.123142276e+00,6.81894e-01,9.99999e-01,9.99641e-01,6.82138e-01,9.99999e-01
1.128757988e+00,6.87311e-01,9.99999e-01,9.99999e-01,6.87312e-01,9.99999e-01
1.134401778e+00,6.92421e-01,9.99999e-01,9.99999e-01,6.92421e-01,9.99999e-01
1.140073787e+00,6.97466e-01,9.99999e-01,9.99999e-01,6.97466e-01,9.99999e-01
1.145774156e+00,7.02448e-01,9.99999e-01,9.99999e-01,7.02448e-01,9.99999e-01
1.151503026e+00,7.07365e-01,9.99999e-01,9.99999e-01,7.07365e-01,9.99999e-01
1.157260541e+00,7.12219e-01,9.99999e-01,9.99999e-01,7.12219e-01,9.99999e-01
1.163046844e+00,7.17010e-01,9.99999e-01,9.99999e-01,7.17010e-01,9.99999e-01
1.168862078e+00,7.21737e-01,9.99999e-01,9.99999e-01,7.21737e-01,9.99999e-01
1.174706389e+00,7.26400e-01,9.99999e-01,9.99999e-01,7.26400e-01,9.99999e-01
1.180579921e+00,7.31001e-01,9.99999e-01,9.99999e-01,7.31001e-01,9.99999e-01
1.186482820e+00,7.35530e-01,9.99999e-01,9.99986e-01,7.35540e-01,9.99999e-01
1.192415234e+00,7.18748e-01,9.99999e-01,9.71259e-01,7.40016e-01,9.99999e-01
1.198377311e+00,3.98319e-01,9.99999e-01,5.35066e-01,7.44430e-01,9.99999e-01
1.204369197e+00,1.63782e-22,9.99999e-01,2.18730e-22,7.48782e-01,9.99999e-01
1.210391043e+00,2.66870e-89,9.99999e-01,3.54374e-89,7.53073e-01,9.99999e-01
1.216442998e+00,2.34030e-77,9.99999e-01,3.09031e-77,7.57304e-01,9.99999e-01
1.222525213e+00,3.32105e-76,9.99999e-01,4.36134e-76,7.61474e-01,9.99999e-01
1.228637839e+00,6.90299e-59,9.99999e-01,9.01663e-59,7.65583e-01,9.99999e-01
1.234781029e+00,6.89489e-37,9.99999e-01,8.95866e-37,7.69633e-01,9.99999e-01
1.240954934e+00,1.33743e-24,9.99999e-01,1.72878e-24,7.73624e-01,9.99999e-01
1.247159708e+00,3.33858e-12,9.99999e-01,4.29368e-12,7.77556e-01,9.99999e-01
1.253395507e+00,3.03956e-08,9.99999e-01,3.88974e-08,7.81430e-01,9.99999e-01
1.259662485e+00,4.67140e-05,9.99999e-01,5.94896e-05,7.85246e-01,9.99999e-01
1.265960797e+00,3.31008e-03,9.99999e-01,4.19525e-03,7.89005e-01,9.99999e-01
1.272290601e+00,5.55837e-02,9.99999e-01,7.01188e-02,7.92707e-01,9.99999e-01
1.278652054e+00,5.89041e-02,9.99999e-01,7.39673e-02,7.96353e-01,9.99999e-01
1.285045314e+00,2.37526e-04,9.99999e-01,2.96929e-04,7.99943e-01,9.99999e-01
1.291470541e+00,7.21504e-11,9.99999e-01,8.97976e-11,8.03477e-01,9.99999e-01
1.297927893e+00,4.72052e-05,9.99999e-01,5.84977e-05,8.06957e-01,9.99999e-01
1.304417533e+00,8.59548e-03,9.99999e-01,1.06067e-02,8.10383e-01,9.99999e-01
1.310939621e+00,2.12540e-03,9.99999e-01,2.61184e-03,8.13756e-01,9.99999e-01
1.317494319e+00,1.03962e-30,9.99999e-01,1.27236e-30,8.17075e-01,9.99999e-01
1.324081790e+00,2.31938e-20,9.99999e-01,2.82733e-20,8.20342e-01,9.99999e-01
1.330702199e+00,4.22486e-12,9.99999e-01,5.13001e-12,8.23557e-01,9.99999e-01
1.337355710e+00,3.01770e-11,9.99999e-01,3.65020e-11,8.26721e-01,9.99999e-01
1.344042489e+00,1.36384e-11,9.99999e-01,1.64351e-11,8.29835e-01,9.99999e-01
1.350762701e+00,2.20075e-12,9.99999e-01,2.64228e-12,8.32898e-01,9.99999e-01
1.357516515e+00,8.01682e-08,9.99999e-01,9.59051e-08,8.35911e-01,9.99999e-01
1.364304097e+00,1.06207e-05,9.99999e-01,1.26607e-05,8.38876e-01,9.99999e-01
1.371125618e+00,2.62354e-03,9.99999e-01,3.11661e-03,8.41792e-01,9.99999e-01
1.377981246e+00,6.11393e-03,9.99999e-01,7.23832e-03,8.44660e-01,9.99999e-01
1.384871152e+00,4.80309e-02,9.99999e-01,5.66748e-02,8.47482e-01,9.99999e-01
1.391795508e+00,5.99291e-02,9.99999e-01,7.04834e-02,8.50257e-01,9.99999e-01
1.398754485e+00,1.62561e-01,9.99999e-01,1.90579e-01,8.52985e-01,9.99999e-01
1.405748258e+00,2.54506e-01,9.99999e-01,2.97435e-01,8.55669e-01,9.99999e-01
1.412776999e+00,3.97244e-01,9.99999e-01,4.62823e-01,8.58307e-01,9.99999e-01
1.419840884e+00,3.65024e-01,9.99999e-01,4.24002e-01,8.60901e-01,9.99999e-01
1.426940089e+00,1.73899e-02,9.99999e-01,2.01400e-02,8.63452e-01,9.99999e-01
1.434074789e+00,0.00000e+00,9.99999e-01,0.00000e+00,8.65960e-01,9.99999e-01
1.441245163e+00,0.00000e+00,9.99999e-01,0.00000e+00,8.68425e-01,9.99999e-01
1.448451389e+00,0.00000e+00,9.99999e-01,0.00000e+00,8.70848e-01,9.99999e-01
1.455693646e+00,0.00000e+00,9.99999e-01,0.00000e+00,8.73230e-01,9.99999e-01
1.462972114e+00,0.00000e+00,9.99999e-01,0.00000e+00,8.75571e-01,9.99999e-01
1.470286975e+00,1.26309e-147,9.99999e-01,1.43880e-147,8.77872e-01,9.99999e-01
