#,Wave/freq,Total,N2,CO2,Rayleigh,CIA
4.000000000e-01,2.86902e-02,9.99999e-01,9.99999e-01,2.86902e-02,9.99999e-01
4.020000000e-01,3.07771e-02,9.99999e-01,9.99999e-01,3.07771e-02,9.99999e-01
4.040100000e-01,3.29677e-02,9.99999e-01,9.99999e-01,3.29677e-02,9.99999e-01
4.060300500e-01,3.52663e-02,9.99999e-01,9.99999e-01,3.52663e-02,9.99999e-01
4.080602003e-01,3.76750e-02,9.99999e-01,9.99999e-01,3.76750e-02,9.99999e-01
4.101005013e-01,4.01957e-02,9.99999e-01,9.99999e-01,4.01957e-02,9.99999e-01
4.121510038e-01,4.28302e-02,9.99999e-01,9.99999e-01,4.28302e-02,9.99999e-01
4.142117588e-01,4.55803e-02,9.99999e-01,9.99999e-01,4.55803e-02,9.99999e-01
4.162828176e-01,4.84473e-02,9.99999e-01,9.99999e-01,4.84473e-02,9.99999e-01
4.183642317e-01,5.14326e-02,9.99999e-01,9.99999e-01,5.14326e-02,9.99999e-01
4.204560528e-01,5.45374e-02,9.99999e-01,9.99999e-01,5.45374e-02,9.99999e-01
4.225583331e-01,5.77628e-02,9.99999e-01,9.99999e-01,5.77628e-02,9.99999e-01
4.246711247e-01,6.11095e-02,9.99999e-01,9.99999e-01,6.11095e-02,9.99999e-01
4.267944804e-01,6.45782e-02,9.99999e-01,9.99999e-01,6.45782e-02,9.99999e-01
4.289284528e-01,6.81694e-02,9.99999e-01,9.99999e-01,6.81694e-02,9.99999e-01
4.310730950e-01,7.18835e-02,9.99999e-01,9.99999e-01,7.18835e-02,9.99999e-01
4.332284605e-01,7.57205e-02,9.99999e-01,9.99999e-01,7.57205e-02,9.99999e-01
4.353946028e-01,7.96805e-02,9.99999e-01,9.99999e-01,7.96805e-02,9.99999e-01
4.375715758e-01,8.37631e-02,9.99999e-01,9.99999e-01,8.37631e-02,9.99999e-01
4.397594337e-01,8.79681e-02,9.99999e-01,9.99999e-01,8.79681e-02,9.99999e-01
4.419582309e-01,9.22948e-02,9.99999e-01,9.99999e-01,9.22948e-02,9.99999e-01
4.441680220e-01,9.67426e-02,9.99999e-01,9.99999e-01,9.67426e-02,9.99999e-01
4.463888621e-01,1.01310e-01,9.99999e-01,9.99999e-01,1.01310e-01,9.99999e-01
4.486208064e-01,1.05997e-01,9.99999e-01,9.99999e-01,1.05997e-01,9.99999e-01
4.508639105e-01,1.10802e-01,9.99999e-01,9.99999e-01,1.10802e-01,9.99999e-01
4.531182300e-01,1.15723e-01,9.99999e-01,9.99999e-01,1.15723e-01,9.99999e-01
4.553838212e-01,1.20759e-01,9.99999e-01,9.99999e-01,1.20759e-01,9.99999e-01
4.576607403e-01,1.25908e-01,9.99999e-01,9.99999e-01,1.25908e-01,9.99999e-01
4.599490440e-01,1.31169e-01,9.99999e-01,9.99999e-01,1.31169e-01,9.99999e-01
4.622487892e-01,1.36539e-01,9.99999e-01,9.99999e-01,1.36539e-01,9.99999e-01
4.645600332e-01,1.42016e-01,9.99999e-01,9.99999e-01,1.42016e-01,9.99999e-01
4.668828333e-01,1.47598e-01,9.99999e-01,9.99999e-01,1.47598e-01,9.99999e-01
4.692172475e-01,1.53283e-01,9.99999e-01,9.99999e-01,1.53283e-01,9.99999e-01
4.715633337e-01,1.59067e-01,9.99999e-01,9.99999e-01,1.59067e-01,9.99999e-01
4.739211504e-01,1.64950e-01,9.99999e-01,9.99999e-01,1.64950e-01,9.99999e-01
4.762907561e-01,1.70927e-01,9.99999e-01,9.99999e-01,1.70927e-01,9.99999e-01
4.786722099e-01,1.76997e-01,9.99999e-01,9.99999e-01,1.76997e-01,9.99999e-01
4.810655710e-01,1.83155e-01,9.99999e-01,9.99999e-01,1.83155e-01,9.99999e-01
4.834708988e-01,1.89400e-01,9.99999e-01,9.99999e-01,1.89400e-01,9.99999e-01
4.858882533e-01,1.95729e-01,9.99999e-01,9.99999e-01,1.95729e-01,9.99999e-01
4.883176946e-01,2.02137e-01,9.99999e-01,9.99999e-01,2.02137e-01,9.99999e-01
4.907592831e-01,2.08622e-01,9.99999e-01,9.99999e-01,2.08622e-01,9.99999e-01
4.932130795e-01,2.15182e-01,9.99999e-01,9.99999e-01,2.15182e-01,9.99999e-01
4.956791449e-01,2.21811e-01,9.99999e-01,9.99999e-01,2.21811e-01,9.99999e-01
4.981575406e-01,2.28509e-01,9.99999e-01,9.99999e-01,2.28509e-01,9.99999e-01
5.006483283e-01,2.35270e-01,9.99999e-01,9.99999e-01,2.35270e-01,9.99999e-01
5.031515699e-01,2.42091e-01,9.99999e-01,9.99999e-01,2.42091e-01,9.99999e-01
5.056673278e-01,2.48970e-01,9.99999e-01,9.99999e-01,2.48970e-01,9.99999e-01
5.081956644e-01,2.55902e-01,9.99999e-01,9.99999e-01,2.55902e-01,9.99999e-01
5.107366428e-01,2.62885e-01,9.99999e-01,9.99999e-01,2.62885e-01,9.99999e-01
5.132903260e-01,2.69915e-01,9.99999e-01,9.99999e-01,2.69915e-01,9.99999e-01
5.158567776e-01,2.76989e-01,9.99999e-01,9.99999e-01,2.76989e-01,9.99999e-01
5.184360615e-01,2.84102e-01,9.99999e-01,9.99999e-01,2.84102e-01,9.99999e-01
5.210282418e-01,2.91253e-01,9.99999e-01,9.99999e-01,2.91253e-01,9.99999e-01
5.236333830e-01,2.98437e-01,9.99999e-01,9.99999e-01,2.98437e-01,9.99999e-01
5.262515499e-01,3.05650e-01,9.99999e-01,9.99999e-01,3.05650e-01,9.99999e-01
5.288828077e-01,3.12891e-01,9.99999e-01,9.99999e-01,3.12891e-01,9.99999e-01
5.315272217e-01,3.20155e-01,9.99999e-01,9.99999e-01,3.20155e-01,9.99999e-01
5.341848578e-01,3.27439e-01,9.99999e-01,9.99999e-01,3.27439e-01,9.99999e-01
5.368557821e-01,3.34740e-01,9.99999e-01,9.99999e-01,3.34740e-01,9.99999e-01
5.395400610e-01,3.42055e-01,9.99999e-01,9.99999e-01,3.42055e-01,9.99999e-01
5.422377613e-01,3.49381e-01,9.99999e-01,9.99999e-01,3.49381e-01,9.99999e-01
5.449489501e-01,3.56714e-01,9.99999e-01,9.99999e-01,3.56714e-01,9.99999e-01
5.476736949e-01,3.64051e-01,9.99999e-01,9.99999e-01,3.64051e-01,9.99999e-01
5.504120634e-01,3.71391e-01,9.99999e-01,9.99999e-01,3.71391e-01,9.99999e-01
5.531641237e-01,3.78728e-01,9.99999e-01,9.99999e-01,3.78728e-01,9.99999e-01
5.559299443e-01,3.86062e-01,9.99999e-01,9.99999e-01,3.86062e-01,9.99999e-01
5.587095940e-01,3.93388e-01,9.99999e-01,9.99999e-01,3.93388e-01,9.99999e-01
5.615031420e-01,4.00705e-01,9.99999e-01,9.99999e-01,4.00705e-01,9.99999e-01
5.643106577e-01,4.08009e-01,9.99999e-01,9.99999e-01,4.08009e-01,9.99999e-01
5.671322110e-01,4.15298e-01,9.99999e-01,9.99999e-01,4.15298e-01,9.99999e-01
5.699678720e-01,4.22570e-01,9.99999e-01,9.99999e-01,4.22570e-01,9.99999e-01
5.728177114e-01,4.29821e-01,9.99999e-01,9.99999e-01,4.29821e-01,9.99999e-01
5.756818000e-01,4.37050e-01,9.99999e-01,9.99999e-01,4.37050e-01,9.99999e-01
5.785602090e-01,4.44254e-01,9.99999e-01,9.99999e-01,4.44254e-01,9.99999e-01
5.814530100e-01,4.51431e-01,9.99999e-01,9.99999e-01,4.51431e-01,9.99999e-01
5.843602750e-01,4.58579e-01,9.99999e-01,9.99999e-01,4.58579e-01,9.99999e-01
5.872820764e-01,4.65696e-01,9.99999e-01,9.99999e-01,4.65696e-01,9.99999e-01
5.902184868e-01,4.72779e-01,9.99999e-01,9.99999e-01,4.72779e-01,9.99999e-01
5.931695792e-01,4.79827e-01,9.99999e-01,9.99999e-01,4.79827e-01,9.99999e-01
5.961354271e-01,4.86837e-01,9.99999e-01,9.99999e-01,4.86837e-01,9.99999e-01
5.991161043e-01,4.93809e-01,9.99999e-01,9.99999e-01,4.93809e-01,9.99999e-01
6.021116848e-01,5.00739e-01,9.99999e-01,9.99999e-01,5.00739e-01,9.99999e-01
6.051222432e-01,5.07627e-01,9.99999e-01,9.99999e-01,5.07627e-01,9.99999e-01
6.081478544e-01,5.14471e-01,9.99999e-01,9.99999e-01,5.14471e-01,9.99999e-01
6.111885937e-01,5.21270e-01,9.99999e-01,9.99999e-01,5.21270e-01,9.99999e-01
6.142445367e-01,5.28021e-01,9.99999e-01,9.99999e-01,5.28021e-01,9.99999e-01
6.173157594e-01,5.34724e-01,9.99999e-01,9.99999e-01,5.34724e-01,9.99999e-01
6.204023382e-01,5.41377e-01,9.99999e-01,9.99999e-01,5.41377e-01,9.99999e-01
6.235043498e-01,5.47979e-01,9.99999e-01,9.99999e-01,5.47979e-01,9.99999e-01
6.266218716e-01,5.54528e-01,9.99999e-01,9.99999e-01,5.54528e-01,9.99999e-01
6.297549810e-01,5.61025e-01,9.99999e-01,9.99999e-01,5.61025e-01,9.99999e-01
6.329037559e-01,5.67466e-01,9.99999e-01,9.99999e-01,5.67466e-01,9.99999e-01
6.360682746e-01,5.73853e-01,9.99999e-01,9.99999e-01,5.73853e-01,9.99999e-01
6.392486160e-01,5.80183e-01,9.99999e-01,9.99999e-01,5.80183e-01,9.99999e-01
6.424448591e-01,5.86455e-01,9.99999e-01,9.99999e-01,5.86455e-01,9.99999e-01
6.456570834e-01,5.92670e-01,9.99999e-01,9.99999e-01,5.92670e-01,9.99999e-01
6.488853688e-01,5.98826e-01,9.99999e-01,9.99999e-01,5.98826e-01,9.99999e-01
6.521297956e-01,6.04922e-01,9.99999e-01,9.99999e-01,6.04922e-01,9.99999e-01
6.553904446e-01,6.10958e-01,9.99999e-01,9.99999e-01,6.10958e-01,9.99999e-01
6.586673968e-01,6.16933e-01,9.99999e-01,9.99999e-01,6.16933e-01,9.99999e-01
6.619607338e-01,6.22847e-01,9.99999e-01,9.99999e-01,6.22847e-01,9.99999e-01
6.652705375e-01,6.28699e-01,9.99999e-01,9.99999e-01,6.28699e-01,9.99999e-01
6.685968902e-01,6.34489e-01,9.99999e-01,9.99999e-01,6.34489e-01,9.99999e-01
6.719398746e-01,6.40216e-01,9.99999e-01,9.99999e-01,6.40216e-01,9.99999e-01
6.752995740e-01,6.45880e-01,9.99999e-01,9.99999e-01,6.45880e-01,9.99999e-01
6.786760719e-01,6.51481e-01,9.99999e-01,9.99999e-01,6.51481e-01,9.99999e-01
6.820694522e-01,6.57019e-01,9.99999e-01,9.99999e-01,6.57019e-01,9.99999e-01
6.854797995e-01,6.62493e-01,9.99999e-01,9.99999e-01,6.62493e-01,9.99999e-01
6.889071985e-01,6.67903e-01,9.99999e-01,9.99999e-01,6.67903e-01,9.99999e-01
6.923517345e-01,6.73249e-01,9.99999e-01,9.99999e-01,6.73249e-01,9.99999e-01
6.958134932e-01,6.78531e-01,9.99999e-01,9.99999e-01,6.78531e-01,9.99999e-01
6.992925606e-01,6.83749e-01,9.99999e-01,9.99999e-01,6.83749e-01,9.99999e-01
7.027890234e-01,6.88902e-01,9.99999e-01,9.99999e-01,6.88902e-01,9.99999e-01
7.063029686e-01,6.93992e-01,9.99999e-01,9.99999e-01,6.93992e-01,9.99999e-01
7.098344834e-01,6.99018e-01,9.99999e-01,9.99999e-01,6.99018e-01,9.99999e-01
7.133836558e-01,7.03979e-01,9.99999e-01,9.99999e-01,7.03979e-01,9.99999e-01
7.169505741e-01,7.08877e-01,9.99999e-01,9.99999e-01,7.08877e-01,9.99999e-01
7.205353270e-01,7.13711e-01,9.99999e-01,9.99999e-01,7.13711e-01,9.99999e-01
7.241380036e-01,7.18482e-01,9.99999e-01,9.99999e-01,7.18482e-01,9.99999e-01
7.277586936e-01,7.23189e-01,9.99999e-01,9.99999e-01,7.23189e-01,9.99999e-01
7.313974871e-01,7.27834e-01,9.99999e-01,9.99999e-01,7.27834e-01,9.99999e-01
7.350544745e-01,7.32415e-01,9.99999e-01,9.99999e-01,7.32415e-01,9.99999e-01
7.387297469e-01,7.36934e-01,9.99999e-01,9.99999e-01,7.36934e-01,9.99999e-01
7.424233956e-01,7.41391e-01,9.99999e-01,9.99999e-01,7.41391e-01,9.99999e-01
7.461355126e-01,7.45786e-01,9.99999e-01,9.99999e-01,7.45786e-01,9.99999e-01
7.498661902e-01,7.50119e-01,9.99999e-01,9.99999e-01,7.50119e-01,9.99999e-01
7.536155211e-01,7.54391e-01,9.99999e-01,9.99999e-01,7.54391e-01,9.99999e-01
7.573835987e-01,7.58603e-01,9.99999e-01,9.99999e-01,7.58603e-01,9.99999e-01
7.611705167e-01,7.62754e-01,9.99999e-01,9.99999e-01,7.62754e-01,9.99999e-01
7.649763693e-01,7.66845e-01,9.99999e-01,9.99999e-01,7.66845e-01,9.99999e-01
7.688012511e-01,7.70877e-01,9.99999e-01,9.99999e-01,7.70877e-01,9.99999e-01
7.726452574e-01,7.74849e-01,9.99999e-01,9.99999e-01,7.74849e-01,9.99999e-01
7.765084837e-01,7.78763e-01,9.99999e-01,9.99999e-01,7.78763e-01,9.99999e-01
7.803910261e-01,7.72608e-01,9.99999e-01,9.87207e-01,7.82619e-01,9.99999e-01
7.842929812e-01,7.46778e-01,9.99999e-01,9.49594e-01,7.86418e-01,9.99999e-01
7.882144461e-01,7.47080e-01,9.99999e-01,9.45480e-01,7.90159e-01,9.99999e-01
7.921555184e-01,7.68802e-01,9.99999e-01,9.68455e-01,7.93843e-01,9.99999e-01
7.961162960e-01,7.80753e-01,9.99999e-01,9.79034e-01,7.97471e-01,9.99999e-01
8.000968774e-01,7.91883e-01,9.99999e-01,9.88562e-01,8.01044e-01,9.99999e-01
8.040973618e-01,7.99806e-01,9.99999e-01,9.94088e-01,8.04562e-01,9.99999e-01
8.081178486e-01,8.05821e-01,9.99999e-01,9.97271e-01,8.08025e-01,9.99999e-01
8.121584379e-01,8.10758e-01,9.99999e-01,9.99165e-01,8.11435e-01,9.99999e-01
8.162192301e-01,8.14641e-01,9.99999e-01,9.99815e-01,8.14791e-01,9.99999e-01
8.203003262e-01,8.18092e-01,9.99999e-01,9.99997e-01,8.18094e-01,9.99999e-01
8.244018279e-01,8.21345e-01,9.99999e-01,9.99999e-01,8.21345e-01,9.99999e-01
8.285238370e-01,8.24544e-01,9.99999e-01,9.99999e-01,8.24544e-01,9.99999e-01
8.326664562e-01,8.27692e-01,9.99999e-01,9.99999e-01,8.27692e-01,9.99999e-01
8.368297885e-01,8.30789e-01,9.99999e-01,9.99999e-01,8.30789e-01,9.99999e-01
8.410139374e-01,8.33837e-01,9.99999e-01,9.99999e-01,8.33837e-01,9.99999e-01
8.452190071e-01,8.36835e-01,9.99999e-01,9.99999e-01,8.36835e-01,9.99999e-01
8.494451021e-01,8.39785e-01,9.99999e-01,9.99999e-01,8.39785e-01,9.99999e-01
8.536923276e-01,8.42686e-01,9.99999e-01,9.99999e-01,8.42686e-01,9.99999e-01
8.579607893e-01,8.45540e-01,9.99999e-01,9.99999e-01,8.45540e-01,9.99999e-01
8.622505932e-01,8.48347e-01,9.99999e-01,9.99999e-01,8.48347e-01,9.99999e-01
8.665618462e-01,8.20595e-01,9.99999e-01,9.64149e-01,8.51107e-01,9.99999e-01
8.708946554e-01,7.46128e-01,9.99999e-01,8.73867e-01,8.53822e-01,9.99999e-01
8.752491287e-01,7.70121e-01,9.99999e-01,8.99157e-01,8.56491e-01,9.99999e-01
8.796253743e-01,8.11109e-01,9.99999e-01,9.44119e-01,8.59116e-01,9.99999e-01
8.840235012e-01,8.36548e-01,9.99999e-01,9.70814e-01,8.61697e-01,9.99999e-01
8.884436187e-01,8.54273e-01,9.99999e-01,9.88473e-01,8.64234e-01,9.99999e-01
8.928858368e-01,8.62665e-01,9.99999e-01,9.95310e-01,8.66728e-01,9.99999e-01
8.973502660e-01,8.68196e-01,9.99999e-01,9.98866e-01,8.69181e-01,9.99999e-01
9.018370173e-01,8.71483e-01,9.99999e-01,9.99875e-01,8.71591e-01,9.99999e-01
9.063462024e-01,8.71044e-01,9.99999e-01,9.96662e-01,8.73960e-01,9.99999e-01
9.108779334e-01,8.69790e-01,9.99999e-01,9.92583e-01,8.76289e-01,9.99999e-01
9.154323231e-01,8.77063e-01,9.99999e-01,9.98275e-01,8.78578e-01,9.99999e-01
9.200094847e-01,8.57304e-01,9.99999e-01,9.73293e-01,8.80827e-01,9.99999e-01
9.246095321e-01,8.51337e-01,9.99999e-01,9.64099e-01,8.83038e-01,9.99999e-01
9.292325798e-01,8.59755e-01,9.99999e-01,9.71243e-01,8.85210e-01,9.99999e-01
9.338787427e-01,8.63047e-01,9.99999e-01,9.72617e-01,8.87344e-01,9.99999e-01
9.385481364e-01,8.71522e-01,9.99999e-01,9.79852e-01,8.89442e-01,9.99999e-01
9.432408771e-01,8.80515e-01,9.99999e-01,9.87674e-01,8.91503e-01,9.99999e-01
9.479570815e-01,8.87851e-01,9.99999e-01,9.93647e-01,8.93527e-01,9.99999e-01
9.526968669e-01,8.92775e-01,9.99999e-01,9.96938e-01,8.95516e-01,9.99999e-01
9.574603512e-01,8.96297e-01,9.99999e-01,9.98691e-01,8.97470e-01,9.99999e-01
9.622476530e-01,8.99024e-01,9.99999e-01,9.99592e-01,8.99390e-01,9.99999e-01
9.670588912e-01,9.01166e-01,9.99999e-01,9.99877e-01,9.01276e-01,9.99999e-01
9.718941857e-01,9.03121e-01,9.99999e-01,9.99991e-01,9.03128e-01,9.99999e-01
9.767536566e-01,9.04948e-01,9.99999e-01,9.99999e-01,9.04948e-01,9.99999e-01
9.816374249e-01,9.06735e-01,9.99999e-01,9.99999e-01,9.06735e-01,9.99999e-01
9.865456120e-01,9.08490e-01,9.99999e-01,9.99999e-01,9.08490e-01,9.99999e-01
9.914783401e-01,9.10214e-01,9.99999e-01,9.99999e-01,9.10214e-01,9.99999e-01
9.964357318e-01,9.11907e-01,9.99999e-01,9.99999e-01,9.11907e-01,9.99999e-01
1.001417910e+00,9.13569e-01,9.99999e-01,9.99999e-01,9.13569e-01,9.99999e-01
1.006425000e+00,9.15202e-01,9.99999e-01,9.99999e-01,9.15202e-01,9.99999e-01
1.011457125e+00,9.16805e-01,9.99999e-01,9.99999e-01,9.16805e-01,9.99999e-01
1.016514411e+00,9.18379e-01,9.99999e-01,9.99999e-01,9.18379e-01,9.99999e-01
1.021596983e+00,9.19907e-01,9.99999e-01,9.99979e-01,9.19925e-01,9.99999e-01
1.026704968e+00,9.20244e-01,9.99999e-01,9.98697e-01,9.21443e-01,9.99999e-01
1.031838492e+00,9.01962e-01,9.99999e-01,9.77277e-01,9.22933e-01,9.99999e-01
1.036997685e+00,3.46309e-01,9.99999e-01,3.74632e-01,9.24397e-01,9.99999e-01
1.042182673e+00,4.34310e-01,9.99999e-01,4.69101e-01,9.25833e-01,9.99999e-01
1.047393587e+00,3.78823e-01,9.99999e-01,4.08547e-01,9.27243e-01,9.99999e-01
1.052630555e+00,9.79833e-02,9.99999e-01,1.05514e-01,9.28628e-01,9.99999e-01
1.057893707e+00,1.65389e-01,9.99999e-01,1.77840e-01,9.29987e-01,9.99999e-01
1.063183176e+00,2.68462e-01,9.99999e-01,2.88259e-01,9.31321e-01,9.99999e-01
1.068499092e+00,4.10620e-01,9.99999e-01,4.40281e-01,9.32631e-01,9.99999e-01
1.073841587e+00,5.58142e-01,9.99999e-01,5.97635e-01,9.33917e-01,9.99999e-01
1.079210795e+00,6.76229e-01,9.99999e-01,7.23101e-01,9.35179e-01,9.99999e-01
1.084606849e+00,7.85180e-01,9.99999e-01,8.38492e-01,9.36418e-01,9.99999e-01
1.090029883e+00,8.55886e-01,9.99999e-01,9.12814e-01,9.37634e-01,9.99999e-01
1.095480033e+00,8.97687e-01,9.99999e-01,9.56178e-01,9.38827e-01,9.99999e-01
1.100957433e+00,9.19948e-01,9.99999e-01,9.78669e-01,9.39998e-01,9.99999e-01
1.106462220e+00,9.32814e-01,9.99999e-01,9.91144e-01,9.41148e-01,9.99999e-01
1.111994531e+00,9.39176e-01,9.99999e-01,9.96709e-01,9.42276e-01,9.99999e-01
1.117554504e+00,9.42629e-01,9.99999e-01,9.99200e-01,9.43383e-01,9.99999e-01
1.123142276e+00,9.44421e-01,9.99999e-01,9.99947e-01,9.44470e-01,9.99999e-01
1.128757988e+00,9.45536e-01,9.99999e-01,9.99999e-01,9.45536e-01,9.99999e-01
1.134401778e+00,9.46583e-01,9.99999e-01,9.99999e-01,9.46583e-01,9.99999e-01
1.140073787e+00,9.47610e-01,9.99999e-01,9.99999e-01,9.47610e-01,9.99999e-01
1.145774156e+00,9.48618e-01,9.99999e-01,9.99999e-01,9.48618e-01,9.99999e-01
1.151503026e+00,9.49606e-01,9.99999e-01,9.99999e-01,9.49606e-01,9.99999e-01
1.157260541e+00,9.50577e-01,9.99999e-01,9.99999e-01,9.50577e-01,9.99999e-01
1.163046844e+00,9.51529e-01,9.99999e-01,9.99999e-01,9.51529e-01,9.99999e-01
1.168862078e+00,9.52463e-01,9.99999e-01,9.99999e-01,9.52463e-01,9.99999e-01
1.174706389e+00,9.53380e-01,9.99999e-01,9.99999e-01,9.53380e-01,9.99999e-01
1.180579921e+00,9.54279e-01,9.99999e-01,9.99999e-01,9.54279e-01,9.99999e-01
1.186482820e+00,9.55159e-01,9.99999e-01,9.99996e-01,9.55162e-01,9.99999e-01
1.192415234e+00,9.51519e-01,9.99999e-01,9.95283e-01,9.56028e-01,9.99999e-01
1.198377311e+00,5.78612e-01,9.99999e-01,6.04687e-01,9.56877e-01,9.99999e-01
1.204369197e+00,2.88231e-05,9.99999e-01,3.00958e-05,9.57711e-01,9.99999e-01
1.210391043e+00,2.96044e-15,9.99999e-01,3.08853e-15,9.58529e-01,9.99999e-01
1.216442998e+00,1.94300e-13,9.99999e-01,2.02537e-13,9.59331e-01,9.99999e-01
1.222525213e+00,3.28484e-13,9.99999e-01,3.42128e-13,9.60118e-01,9.99999e-01
1.228637839e+00,4.20219e-10,9.99999e-01,4.37322e-10,9.60890e-01,9.99999e-01
1.234781029e+00,2.52053e-07,9.99999e-01,2.62105e-07,9.61648e-01,9.99999e-01
1.240954934e+00,5.72374e-05,9.99999e-01,5.94742e-05,9.62391e-01,9.99999e-01
1.247159708e+00,4.19540e-03,9.99999e-01,4.35605e-03,9.63120e-01,9.99999e-01
1.253395507e+00,5.11443e-02,9.99999e-01,5.30633e-02,9.63835e-01,9.99999e-01
1.259662485e+00,1.84197e-01,9.99999e-01,1.90969e-01,9.64536e-01,9.99999e-01
1.265960797e+00,3.71091e-01,9.99999e-01,3.84461e-01,9.65224e-01,9.99999e-01
1.272290601e+00,6.54767e-01,9.99999e-01,6.77882e-01,9.65899e-01,9.99999e-01
1.278652054e+00,5.89495e-01,9.99999e-01,6.09888e-01,9.66562e-01,9.99999e-01
1.285045314e+00,6.09542e-02,9.99999e-01,6.30205e-02,9.67211e-01,9.99999e-01
1.291470541e+00,1.91784e-02,9.99999e-01,1.98155e-02,9.67848e-01,9.99999e-01
1.297927893e+00,1.34630e-01,9.99999e-01,1.39012e-01,9.68473e-01,9.99999e-01
1.304417533e+00,4.79012e-01,9.99999e-01,4.94292e-01,9.69086e-01,9.99999e-01
1.310939621e+00,9.99718e-02,9.99999e-01,1.03097e-01,9.69687e-01,9.99999e-01
1.317494319e+00,1.23609e-05,9.99999e-01,1.27395e-05,9.70277e-01,9.99999e-01
1.324081790e+00,7.51588e-04,9.99999e-01,7.74149e-04,9.70856e-01,9.99999e-01
1.330702199e+00,1.40752e-02,9.99999e-01,1.44893e-02,9.71423e-01,9.99999e-01
1.337355710e+00,9.35569e-03,9.99999e-01,9.62539e-03,9.71979e-01,9.99999e-01
1.344042489e+00,3.99844e-03,9.99999e-01,4.11139e-03,9.72525e-01,9.99999e-01
1.350762701e+00,1.19685e-02,9.99999e-01,1.22998e-02,9.73061e-01,9.99999e-01
1.357516515e+00,5.28748e-02,9.99999e-01,5.43093e-02,9.73586e-01,9.99999e-01
1.364304097e+00,1.62917e-01,9.99999e-01,1.67249e-01,9.74100e-01,9.99999e-01
1.371125618e+00,3.77702e-01,9.99999e-01,3.87543e-01,9.74605e-01,9.99999e-01
1.377981246e+00,4.59615e-01,9.99999e-01,4.71351e-01,9.75101e-01,9.99999e-01
1.384871152e+00,6.29946e-01,9.99999e-01,6.45710e-01,9.75586e-01,9.99999e-01
1.391795508e+00,6.51843e-01,9.99999e-01,6.67829e-01,9.76063e-01,9.99999e-01
1.398754485e+00,7.62181e-01,9.99999e-01,7.80498e-01,9.76530e-01,9.99999e-01
1.405748258e+00,8.13691e-01,9.99999e-01,8.32856e-01,9.76988e-01,9.99999e-01
1.412776999e+00,8.71133e-01,9.99999e-01,8.91241e-01,9.77438e-01,9.99999e-01
1.419840884e+00,8.18339e-01,9.99999e-01,8.36850e-01,9.77878e-01,9.99999e-01
1.426940089e+00,1.22465e-01,9.99999e-01,1.25180e-01,9.78310e-01,9.99999e-01
1.434074789e+00,9.53410e-206,9.99999e-01,9.74124e-206,9.78734e-01,9.99999e-01
1.441245163e+00,4.24100e-303,9.99999e-01,4.33130e-303,9.79150e-01,9.99999e-01
1.448451389e+00,2.49084e-249,9.99999e-01,2.54282e-249,9.79557e-01,9.99999e-01
1.455693646e+00,5.29523e-112,9.99999e-01,5.40352e-112,9.79957e-01,9.99999e-01
1.462972114e+00,4.92732e-55,9.99999e-01,5.02609e-55,9.80349e-01,9.99999e-01
1.470286975e+00,5.98612e-24,9.99999e-01,6.10371e-24,9.80734e-01,9.99999e-01
