#,Wave/freq,Total,N2,CO2,Rayleigh,CIA
4.000000000e-01,6.18867e-09,9.99999e-01,9.99999e-01,6.18867e-09,9.99999e-01
4.020000000e-01,8.99291e-09,9.99999e-01,9.99999e-01,8.99291e-09,9.99999e-01
4.040100000e-01,1.29667e-08,9.99999e-01,9.99999e-01,1.29667e-08,9.99999e-01
4.060300500e-01,1.85619e-08,9.99999e-01,9.99999e-01,1.85619e-08,9.99999e-01
4.080602003e-01,2.63837e-08,9.99999e-01,9.99999e-01,2.63837e-08,9.99999e-01
4.101005013e-01,3.72420e-08,9.99999e-01,9.99999e-01,3.72420e-08,9.99999e-01
4.121510038e-01,5.22124e-08,9.99999e-01,9.99999e-01,5.22124e-08,9.99999e-01
4.142117588e-01,7.27136e-08,9.99999e-01,9.99999e-01,7.27136e-08,9.99999e-01
4.162828176e-01,1.00604e-07,9.99999e-01,9.99999e-01,1.00604e-07,9.99999e-01
4.183642317e-01,1.38303e-07,9.99999e-01,9.99999e-01,1.38303e-07,9.99999e-01
4.204560528e-01,1.88937e-07,9.99999e-01,9.99999e-01,1.88937e-07,9.99999e-01
4.225583331e-01,2.56523e-07,9.99999e-01,9.99999e-01,2.56523e-07,9.99999e-01
4.246711247e-01,3.46189e-07,9.99999e-01,9.99999e-01,3.46189e-07,9.99999e-01
4.267944804e-01,4.64438e-07,9.99999e-01,9.99999e-01,4.64438e-07,9.99999e-01
4.289284528e-01,6.19472e-07,9.99999e-01,9.99999e-01,6.19472e-07,9.99999e-01
4.310730950e-01,8.21570e-07,9.99999e-01,9.99999e-01,8.21570e-07,9.99999e-01
4.332284605e-01,1.08354e-06,9.99999e-01,9.99999e-01,1.08354e-06,9.99999e-01
4.353946028e-01,1.42125e-06,9.99999e-01,9.99999e-01,1.42125e-06,9.99999e-01
4.375715758e-01,1.85426e-06,9.99999e-01,9.99999e-01,1.85426e-06,9.99999e-01
4.397594337e-01,2.40652e-06,9.99999e-01,9.99999e-01,2.40652e-06,9.99999e-01
4.419582309e-01,3.10721e-06,9.99999e-01,9.99999e-01,3.10721e-06,9.99999e-01
4.441680220e-01,3.99172e-06,9.99999e-01,9.99999e-01,3.99172e-06,9.99999e-01
4.463888621e-01,5.10270e-06,9.99999e-01,9.99999e-01,5.10270e-06,9.99999e-01
4.486208064e-01,6.49134e-06,9.99999e-01,9.99999e-01,6.49134e-06,9.99999e-01
4.508639105e-01,8.21871e-06,9.99999e-01,9.99999e-01,8.21871e-06,9.99999e-01
4.531182300e-01,1.03574e-05,9.99999e-01,9.99999e-01,1.03574e-05,9.99999e-01
4.553838212e-01,1.29930e-05,9.99999e-01,9.99999e-01,1.29930e-05,9.99999e-01
4.576607403e-01,1.62265e-05,9.99999e-01,9.99999e-01,1.62265e-05,9.99999e-01
4.599490440e-01,2.01760e-05,9.99999e-01,9.99999e-01,2.01760e-05,9.99999e-01
4.622487892e-01,2.49791e-05,9.99999e-01,9.99999e-01,2.49791e-05,9.99999e-01
4.645600332e-01,3.07954e-05,9.99999e-01,9.99999e-01,3.07954e-05,9.99999e-01
4.668828333e-01,3.78094e-05,9.99999e-01,9.99999e-01,3.78094e-05,9.99999e-01
4.692172475e-01,4.62331e-05,9.99999e-01,9.99999e-01,4.62331e-05,9.99999e-01
4.715633337e-01,5.63094e-05,9.99999e-01,9.99999e-01,5.63094e-05,9.99999e-01
4.739211504e-01,6.83153e-05,9.99999e-01,9.99999e-01,6.83153e-05,9.99999e-01
4.762907561e-01,8.25651e-05,9.99999e-01,9.99999e-01,8.25651e-05,9.99999e-01
4.786722099e-01,9.94145e-05,9.99999e-01,9.99999e-01,9.94145e-05,9.99999e-01
4.810655710e-01,1.19264e-04,9.99999e-01,9.99999e-01,1.19264e-04,9.99999e-01
4.834708988e-01,1.42564e-04,9.99999e-01,9.99999e-01,1.42564e-04,9.99999e-01
4.858882533e-01,1.69815e-04,9.99999e-01,9.99999e-01,1.69815e-04,9.99999e-01
4.883176946e-01,2.01578e-04,9.99999e-01,9.99999e-01,2.01578e-04,9.99999e-01
4.907592831e-01,2.38474e-04,9.99999e-01,9.99999e-01,2.38474e-04,9.99999e-01
4.932130795e-01,2.81187e-04,9.99999e-01,9.99999e-01,2.81187e-04,9.99999e-01
4.956791449e-01,3.30473e-04,9.99999e-01,9.99999e-01,3.30473e-04,9.99999e-01
4.981575406e-01,3.87161e-04,9.99999e-01,9.99999e-01,3.87161e-04,9.99999e-01
5.006483283e-01,4.52157e-04,9.99999e-01,9.99999e-01,4.52157e-04,9.99999e-01
5.031515699e-01,5.26448e-04,9.99999e-01,9.99999e-01,5.26448e-04,9.99999e-01
5.056673278e-01,6.11106e-04,9.99999e-01,9.99999e-01,6.11106e-04,9.99999e-01
5.081956644e-01,7.07292e-04,9.99999e-01,9.99999e-01,7.07292e-04,9.99999e-01
5.107366428e-01,8.16258e-04,9.99999e-01,9.99999e-01,8.16258e-04,9.99999e-01
5.132903260e-01,9.39347e-04,9.99999e-01,9.99999e-01,9.39347e-04,9.99999e-01
5.158567776e-01,1.07800e-03,9.99999e-01,9.99999e-01,1.07800e-03,9.99999e-01
5.184360615e-01,1.23377e-03,9.99999e-01,9.99999e-01,1.23377e-03,9.99999e-01
5.210282418e-01,1.40828e-03,9.99999e-01,9.99999e-01,1.40828e-03,9.99999e-01
5.236333830e-01,1.60328e-03,9.99999e-01,9.99999e-01,1.60328e-03,9.99999e-01
5.262515499e-01,1.82061e-03,9.99999e-01,9.99999e-01,1.82061e-03,9.99999e-01
5.288828077e-01,2.06222e-03,9.99999e-01,9.99999e-01,2.06222e-03,9.99999e-01
5.315272217e-01,2.33015e-03,9.99999e-01,9.99999e-01,2.33015e-03,9.99999e-01
5.341848578e-01,2.62654e-03,9.99999e-01,9.99999e-01,2.62654e-03,9.99999e-01
5.368557821e-01,2.95364e-03,9.99999e-01,9.99999e-01,2.95364e-03,9.99999e-01
5.395400610e-01,3.31378e-03,9.99999e-01,9.99999e-01,3.31378e-03,9.99999e-01
5.422377613e-01,3.70940e-03,9.99999e-01,9.99999e-01,3.70940e-03,9.99999e-01
5.449489501e-01,4.14301e-03,9.99999e-01,9.99999e-01,4.14301e-03,9.99999e-01
5.476736949e-01,4.61722e-03,9.99999e-01,9.99999e-01,4.61722e-03,9.99999e-01
5.504120634e-01,5.13469e-03,9.99999e-01,9.99999e-01,5.13469e-03,9.99999e-01
5.531641237e-01,5.69820e-03,9.99999e-01,9.99999e-01,5.69820e-03,9.99999e-01
5.559299443e-01,6.31055e-03,9.99999e-01,9.99999e-01,6.31055e-03,9.99999e-01
5.587095940e-01,6.97463e-03,9.99999e-01,9.99999e-01,6.97463e-03,9.99999e-01
5.615031420e-01,7.69338e-03,9.99999e-01,9.99999e-01,7.69338e-03,9.99999e-01
5.643106577e-01,8.46977e-03,9.99999e-01,9.99999e-01,8.46977e-03,9.99999e-01
5.671322110e-01,9.30682e-03,9.99999e-01,9.99999e-01,9.30682e-03,9.99999e-01
5.699678720e-01,1.02076e-02,9.99999e-01,9.99999e-01,1.02076e-02,9.99999e-01
5.728177114e-01,1.11751e-02,9.99999e-01,9.99999e-01,1.11751e-02,9.99999e-01
5.756818000e-01,1.22125e-02,9.99999e-01,9.99999e-01,1.22125e-02,9.99999e-01
5.785602090e-01,1.33227e-02,9.99999e-01,9.99999e-01,1.33227e-02,9.99999e-01
5.814530100e-01,1.45090e-02,9.99999e-01,9.99999e-01,1.45090e-02,9.99999e-01
5.843602750e-01,1.57743e-02,9.99999e-01,9.99999e-01,1.57743e-02,9.99999e-01
5.872820764e-01,1.71216e-02,9.99999e-01,9.99999e-01,1.71216e-02,9.99999e-01
5.902184868e-01,1.85539e-02,9.99999e-01,9.99999e-01,1.85539e-02,9.99999e-01
5.931695792e-01,2.00742e-02,9.99999e-01,9.99999e-01,2.00742e-02,9.99999e-01
5.961354271e-01,2.16853e-02,9.99999e-01,9.99999e-01,2.16853e-02,9.99999e-01
5.991161043e-01,2.33900e-02,9.99999e-01,9.99999e-01,2.33900e-02,9.99999e-01
6.021116848e-01,2.51911e-02,9.99999e-01,9.99999e-01,2.51911e-02,9.99999e-01
6.051222432e-01,2.70911e-02,9.99999e-01,9.99999e-01,2.70911e-02,9.99999e-01
6.081478544e-01,2.90925e-02,9.99999e-01,9.99999e-01,2.90925e-02,9.99999e-01
6.111885937e-01,3.11979e-02,9.99999e-01,9.99999e-01,3.11979e-02,9.99999e-01
6.142445367e-01,3.34095e-02,9.99999e-01,9.99999e-01,3.34095e-02,9.99999e-01
6.173157594e-01,3.57295e-02,9.99999e-01,9.99999e-01,3.57295e-02,9.99999e-01
6.204023382e-01,3.81600e-02,9.99999e-01,9.99999e-01,3.81600e-02,9.99999e-01
6.235043498e-01,4.07029e-02,9.99999e-01,9.99999e-01,4.07029e-02,9.99999e-01
6.266218716e-01,4.33600e-02,9.99999e-01,9.99999e-01,4.33600e-02,9.99999e-01
6.297549810e-01,4.61328e-02,9.99999e-01,9.99999e-01,4.61328e-02,9.99999e-01
6.329037559e-01,4.90229e-02,9.99999e-01,9.99999e-01,4.90229e-02,9.99999e-01
6.360682746e-01,5.20315e-02,9.99999e-01,9.99999e-01,5.20315e-02,9.99999e-01
6.392486160e-01,5.51599e-02,9.99999e-01,9.99999e-01,5.51599e-02,9.99999e-01
6.424448591e-01,5.84090e-02,9.99999e-01,9.99999e-01,5.84090e-02,9.99999e-01
6.456570834e-01,6.17795e-02,9.99999e-01,9.99999e-01,6.17795e-02,9.99999e-01
6.488853688e-01,6.52722e-02,9.99999e-01,9.99999e-01,6.52722e-02,9.99999e-01
6.521297956e-01,6.88875e-02,9.99999e-01,9.99999e-01,6.88875e-02,9.99999e-01
6.553904446e-01,7.26257e-02,9.99999e-01,9.99999e-01,7.26257e-02,9.99999e-01
6.586673968e-01,7.64868e-02,9.99999e-01,9.99999e-01,7.64868e-02,9.99999e-01
6.619607338e-01,8.04708e-02,9.99999e-01,9.99999e-01,8.04708e-02,9.99999e-01
6.652705375e-01,8.45775e-02,9.99999e-01,9.99999e-01,8.45775e-02,9.99999e-01
6.685968902e-01,8.88064e-02,9.99999e-01,9.99999e-01,8.88064e-02,9.99999e-01
6.719398746e-01,9.31569e-02,9.99999e-01,9.99999e-01,9.31569e-02,9.99999e-01
6.752995740e-01,9.76282e-02,9.99999e-01,9.99999e-01,9.76282e-02,9.99999e-01
6.786760719e-01,1.02220e-01,9.99999e-01,9.99999e-01,1.02220e-01,9.99999e-01
6.820694522e-01,1.06930e-01,9.99999e-01,9.99999e-01,1.06930e-01,9.99999e-01
6.854797995e-01,1.11757e-01,9.99999e-01,9.99999e-01,1.11757e-01,9.99999e-01
6.889071985e-01,1.16701e-01,9.99999e-01,9.99999e-01,1.16701e-01,9.99999e-01
6.923517345e-01,1.21759e-01,9.99999e-01,9.99999e-01,1.21759e-01,9.99999e-01
6.958134932e-01,1.26930e-01,9.99999e-01,9.99999e-01,1.26930e-01,9.99999e-01
6.992925606e-01,1.32213e-01,9.99999e-01,9.99999e-01,1.32213e-01,9.99999e-01
7.027890234e-01,1.37604e-01,9.99999e-01,9.99999e-01,1.37604e-01,9.99999e-01
7.063029686e-01,1.43101e-01,9.99999e-01,9.99999e-01,1.43101e-01,9.99999e-01
7.098344834e-01,1.48704e-01,9.99999e-01,9.99999e-01,1.48704e-01,9.99999e-01
7.133836558e-01,1.54408e-01,9.99999e-01,9.99999e-01,1.54408e-01,9.99999e-01
7.169505741e-01,1.60212e-01,9.99999e-01,9.99999e-01,1.60212e-01,9.99999e-01
7.205353270e-01,1.66114e-01,9.99999e-01,9.99999e-01,1.66114e-01,9.99999e-01
7.241380036e-01,1.72109e-01,9.99999e-01,9.99999e-01,1.72109e-01,9.99999e-01
7.277586936e-01,1.78197e-01,9.99999e-01,9.99999e-01,1.78197e-01,9.99999e-01
7.313974871e-01,1.84372e-01,9.99999e-01,9.99999e-01,1.84372e-01,9.99999e-01
7.350544745e-01,1.90634e-01,9.99999e-01,9.99999e-01,1.90634e-01,9.99999e-01
7.387297469e-01,1.96978e-01,9.99999e-01,9.99999e-01,1.96978e-01,9.99999e-01
7.424233956e-01,2.03402e-01,9.99999e-01,9.99999e-01,2.03402e-01,9.99999e-01
7.461355126e-01,2.09902e-01,9.99999e-01,9.99999e-01,2.09902e-01,9.99999e-01
7.498661902e-01,2.16475e-01,9.99999e-01,9.99999e-01,2.16475e-01,9.99999e-01
7.536155211e-01,2.23119e-01,9.99999e-01,9.99999e-01,2.23119e-01,9.99999e-01
7.573835987e-01,2.29828e-01,9.99999e-01,9.99999e-01,2.29828e-01,9.99999e-01
7.611705167e-01,2.36602e-01,9.99999e-01,9.99999e-01,2.36602e-01,9.99999e-01
7.649763693e-01,2.43435e-01,9.99999e-01,9.99999e-01,2.43435e-01,9.99999e-01
7.688012511e-01,2.50324e-01,9.99999e-01,9.99999e-01,2.50324e-01,9.99999e-01
7.726452574e-01,2.57267e-01,9.99999e-01,9.99999e-01,2.57267e-01,9.99999e-01
7.765084837e-01,2.64259e-01,9.99999e-01,9.99999e-01,2.64259e-01,9.99999e-01
7.803910261e-01,2.56095e-01,9.99999e-01,9.43962e-01,2.71298e-01,9.99999e-01
7.842929812e-01,2.13652e-01,9.99999e-01,7.67485e-01,2.78380e-01,9.99999e-01
7.882144461e-01,2.15333e-01,9.99999e-01,7.54230e-01,2.85501e-01,9.99999e-01
7.921555184e-01,2.47372e-01,9.99999e-01,8.45260e-01,2.92658e-01,9.99999e-01
7.961162960e-01,2.67827e-01,9.99999e-01,8.93209e-01,2.99848e-01,9.99999e-01
8.000968774e-01,2.88820e-01,9.99999e-01,9.40576e-01,3.07067e-01,9.99999e-01
8.040973618e-01,3.04494e-01,9.99999e-01,9.68760e-01,3.14313e-01,9.99999e-01
8.081178486e-01,3.16926e-01,9.99999e-01,9.85525e-01,3.21581e-01,9.99999e-01
8.121584379e-01,3.27393e-01,9.99999e-01,9.95513e-01,3.28869e-01,9.99999e-01
8.162192301e-01,3.35839e-01,9.99999e-01,9.99007e-01,3.36173e-01,9.99999e-01
8.203003262e-01,3.43485e-01,9.99999e-01,9.99984e-01,3.43490e-01,9.99999e-01
8.244018279e-01,3.50817e-01,9.99999e-01,9.99999e-01,3.50817e-01,9.99999e-01
8.285238370e-01,3.58151e-01,9.99999e-01,9.99999e-01,3.58151e-01,9.99999e-01
8.326664562e-01,3.65489e-01,9.99999e-01,9.99999e-01,3.65489e-01,9.99999e-01
8.368297885e-01,3.72829e-01,9.99999e-01,9.99999e-01,3.72829e-01,9.99999e-01
8.410139374e-01,3.80166e-01,9.99999e-01,9.99999e-01,3.80166e-01,9.99999e-01
8.452190071e-01,3.87498e-01,9.99999e-01,9.99999e-01,3.87498e-01,9.99999e-01
8.494451021e-01,3.94823e-01,9.99999e-01,9.99999e-01,3.94823e-01,9.99999e-01
8.536923276e-01,4.02137e-01,9.99999e-01,9.99999e-01,4.02137e-01,9.99999e-01
8.579607893e-01,4.09439e-01,9.99999e-01,9.99999e-01,4.09439e-01,9.99999e-01
8.622505932e-01,4.16725e-01,9.99999e-01,9.99999e-01,4.16725e-01,9.99999e-01
8.665618462e-01,3.80484e-01,9.99999e-01,8.97383e-01,4.23992e-01,9.99999e-01
8.708946554e-01,2.22380e-01,9.99999e-01,5.15676e-01,4.31240e-01,9.99999e-01
8.752491287e-01,2.55221e-01,9.99999e-01,5.82079e-01,4.38464e-01,9.99999e-01
8.796253743e-01,3.29879e-01,9.99999e-01,7.40199e-01,4.45663e-01,9.99999e-01
8.840235012e-01,3.86982e-01,9.99999e-01,8.54576e-01,4.52834e-01,9.99999e-01
8.884436187e-01,4.32300e-01,9.99999e-01,9.39831e-01,4.59976e-01,9.99999e-01
8.928858368e-01,4.55480e-01,9.99999e-01,9.75150e-01,4.67086e-01,9.99999e-01
8.973502660e-01,4.71277e-01,9.99999e-01,9.93913e-01,4.74163e-01,9.99999e-01
9.018370173e-01,4.80880e-01,9.99999e-01,9.99327e-01,4.81203e-01,9.99999e-01
9.063462024e-01,4.79868e-01,9.99999e-01,9.82920e-01,4.88206e-01,9.99999e-01
9.108779334e-01,4.75904e-01,9.99999e-01,9.61091e-01,4.95170e-01,9.99999e-01
9.154323231e-01,4.97443e-01,9.99999e-01,9.90739e-01,5.02092e-01,9.99999e-01
9.200094847e-01,4.47436e-01,9.99999e-01,8.79097e-01,5.08972e-01,9.99999e-01
9.246095321e-01,4.24928e-01,9.99999e-01,8.23811e-01,5.15807e-01,9.99999e-01
9.292325798e-01,4.49366e-01,9.99999e-01,8.59871e-01,5.22597e-01,9.99999e-01
9.338787427e-01,4.57215e-01,9.99999e-01,8.63747e-01,5.29338e-01,9.99999e-01
9.385481364e-01,4.81163e-01,9.99999e-01,8.97638e-01,5.36032e-01,9.99999e-01
9.432408771e-01,5.07903e-01,9.99999e-01,9.35924e-01,5.42675e-01,9.99999e-01
9.479570815e-01,5.30910e-01,9.99999e-01,9.66579e-01,5.49266e-01,9.99999e-01
9.526968669e-01,5.46777e-01,9.99999e-01,9.83755e-01,5.55806e-01,9.99999e-01
9.574603512e-01,5.58367e-01,9.99999e-01,9.93020e-01,5.62291e-01,9.99999e-01
9.622476530e-01,5.67482e-01,9.99999e-01,9.97818e-01,5.68722e-01,9.99999e-01
9.670588912e-01,5.74722e-01,9.99999e-01,9.99345e-01,5.75098e-01,9.99999e-01
9.718941857e-01,5.81390e-01,9.99999e-01,9.99953e-01,5.81416e-01,9.99999e-01
9.767536566e-01,5.87678e-01,9.99999e-01,9.99999e-01,5.87678e-01,9.99999e-01
9.816374249e-01,5.93881e-01,9.99999e-01,9.99999e-01,5.93881e-01,9.99999e-01
9.865456120e-01,6.00025e-01,9.99999e-01,9.99999e-01,6.00025e-01,9.99999e-01
9.914783401e-01,6.06109e-01,9.99999e-01,9.99999e-01,6.06109e-01,9.99999e-01
9.964357318e-01,6.12133e-01,9.99999e-01,9.99999e-01,6.12133e-01,9.99999e-01
1.001417910e+00,6.18097e-01,9.99999e-01,9.99999e-01,6.18097e-01,9.99999e-01
1.006425000e+00,6.23998e-01,9.99999e-01,9.99999e-01,6.23998e-01,9.99999e-01
1.011457125e+00,6.29838e-01,9.99999e-01,9.99999e-01,6.29838e-01,9.99999e-01
1.016514411e+00,6.35616e-01,9.99999e-01,9.99999e-01,6.35616e-01,9.99999e-01
1.021596983e+00,6.41272e-01,9.99999e-01,9.99907e-01,6.41331e-01,9.99999e-01
1.026704968e+00,6.42632e-01,9.99999e-01,9.93274e-01,6.46983e-01,9.99999e-01
1.031838492e+00,6.09390e-01,9.99999e-01,9.33827e-01,6.52572e-01,9.99999e-01
1.036997685e+00,5.85942e-02,9.99999e-01,8.90358e-02,6.58097e-01,9.99999e-01
1.042182673e+00,1.86364e-02,9.99999e-01,2.80856e-02,6.63558e-01,9.99999e-01
1.047393587e+00,3.18169e-02,9.99999e-01,4.75620e-02,6.68956e-01,9.99999e-01
1.052630555e+00,9.62149e-05,9.99999e-01,1.42691e-04,6.74289e-01,9.99999e-01
1.057893707e+00,3.22802e-04,9.99999e-01,4.75017e-04,6.79558e-01,9.99999e-01
1.063183176e+00,2.29031e-03,9.99999e-01,3.34467e-03,6.84764e-01,9.99999e-01
1.068499092e+00,1.11872e-02,9.99999e-01,1.62155e-02,6.89905e-01,9.99999e-01
1.073841587e+00,5.04860e-02,9.99999e-01,7.26435e-02,6.94982e-01,9.99999e-01
1.079210795e+00,1.33275e-01,9.99999e-01,1.90395e-01,6.99995e-01,9.99999e-01
1.084606849e+00,2.79643e-01,9.99999e-01,3.96688e-01,7.04944e-01,9.99999e-01
1.090029883e+00,4.38368e-01,9.99999e-01,6.17567e-01,7.09829e-01,9.99999e-01
1.095480033e+00,5.63399e-01,9.99999e-01,7.88355e-01,7.14651e-01,9.99999e-01
1.100957433e+00,6.41379e-01,9.99999e-01,8.91535e-01,7.19409e-01,9.99999e-01
1.106462220e+00,6.90515e-01,9.99999e-01,9.53612e-01,7.24104e-01,9.99999e-01
1.111994531e+00,7.16014e-01,9.99999e-01,9.82541e-01,7.28736e-01,9.99999e-01
1.117554504e+00,7.30162e-01,9.99999e-01,9.95713e-01,7.33305e-01,9.99999e-01
1.123142276e+00,7.37605e-01,9.99999e-01,9.99718e-01,7.37812e-01,9.99999e-01
1.128757988e+00,7.42257e-01,9.99999e-01,9.99999e-01,7.42257e-01,9.99999e-01
1.134401778e+00,7.46640e-01,9.99999e-01,9.99999e-01,7.46640e-01,9.99999e-01
1.140073787e+00,7.50961e-01,9.99999e-01,9.99999e-01,7.50961e-01,9.99999e-01
1.145774156e+00,7.55222e-01,9.99999e-01,9.99999e-01,7.55222e-01,9.99999e-01
1.151503026e+00,7.59421e-01,9.99999e-01,9.99999e-01,7.59421e-01,9.99999e-01
1.157260541e+00,7.63560e-01,9.99999e-01,9.99999e-01,7.63560e-01,9.99999e-01
1.163046844e+00,7.67640e-01,9.99999e-01,9.99999e-01,7.67640e-01,9.99999e-01
1.168862078e+00,7.71660e-01,9.99999e-01,9.99999e-01,7.71660e-01,9.99999e-01
1.174706389e+00,7.75621e-01,9.99999e-01,9.99999e-01,7.75621e-01,9.99999e-01
1.180579921e+00,7.79524e-01,9.99999e-01,9.99999e-01,7.79524e-01,9.99999e-01
1.186482820e+00,7.83358e-01,9.99999e-01,9.99986e-01,7.83368e-01,9.99999e-01
1.192415234e+00,7.68644e-01,9.99999e-01,9.76482e-01,7.87155e-01,9.99999e-01
1.198377311e+00,4.29875e-01,9.99999e-01,5.43536e-01,7.90885e-01,9.99999e-01
1.204369197e+00,2.33432e-18,9.99999e-01,2.93788e-18,7.94559e-01,9.99999e-01
1.210391043e+00,1.87065e-71,9.99999e-01,2.34365e-71,7.98176e-01,9.99999e-01
1.216442998e+00,5.84218e-62,9.99999e-01,7.28689e-62,8.01738e-01,9.99999e-01
1.222525213e+00,4.81329e-61,9.99999e-01,5.97741e-61,8.05245e-01,9.99999e-01
1.228637839e+00,3.15399e-47,9.99999e-01,3.90008e-47,8.08698e-01,9.99999e-01
1.234781029e+00,8.70018e-30,9.99999e-01,1.07132e-29,8.12096e-01,9.99999e-01
1.240954934e+00,6.20150e-20,9.99999e-01,7.60507e-20,8.15442e-01,9.99999e-01
1.247159708e+00,3.67080e-10,9.99999e-01,4.48350e-10,8.18735e-01,9.99999e-01
1.253395507e+00,8.46772e-07,9.99999e-01,1.03017e-06,8.21976e-01,9.99999e-01
1.259662485e+00,3.07081e-04,9.99999e-01,3.72145e-04,8.25165e-01,9.99999e-01
1.265960797e+00,9.34940e-03,9.99999e-01,1.12874e-02,8.28303e-01,9.99999e-01
1.272290601e+00,1.13918e-01,9.99999e-01,1.37020e-01,8.31391e-01,9.99999e-01
1.278652054e+00,9.77536e-02,9.99999e-01,1.17150e-01,8.34429e-01,9.99999e-01
1.285045314e+00,5.93696e-04,9.99999e-01,7.08960e-04,8.37417e-01,9.99999e-01
1.291470541e+00,6.55788e-09,9.99999e-01,7.80367e-09,8.40357e-01,9.99999e-01
1.297927893e+00,2.34668e-04,9.99999e-01,2.78290e-04,8.43249e-01,9.99999e-01
1.304417533e+00,2.22175e-02,9.99999e-01,2.62589e-02,8.46094e-01,9.99999e-01
1.310939621e+00,5.21112e-03,9.99999e-01,6.13873e-03,8.48892e-01,9.99999e-01
1.317494319e+00,8.50409e-25,9.99999e-01,9.98550e-25,8.51643e-01,9.99999e-01
1.324081790e+00,1.34700e-16,9.99999e-01,1.57664e-16,8.54349e-01,9.99999e-01
1.330702199e+00,7.51785e-10,9.99999e-01,8.77218e-10,8.57009e-01,9.99999e-01
1.337355710e+00,2.87342e-09,9.99999e-01,3.34264e-09,8.59625e-01,9.99999e-01
1.344042489e+00,1.12742e-09,9.99999e-01,1.30761e-09,8.62197e-01,9.99999e-01
1.350762701e+00,4.13774e-10,9.99999e-01,4.78502e-10,8.64726e-01,9.99999e-01
1.357516515e+00,1.55693e-06,9.99999e-01,1.79532e-06,8.67212e-01,9.99999e-01
1.364304097e+00,1.00724e-04,9.99999e-01,1.15820e-04,8.69656e-01,9.99999e-01
1.371125618e+00,8.27309e-03,9.99999e-01,9.48684e-03,8.72059e-01,9.99999e-01
1.377981246e+00,1.70551e-02,9.99999e-01,1.95045e-02,8.74420e-01,9.99999e-01
1.384871152e+00,8.86233e-02,9.99999e-01,1.01083e-01,8.76741e-01,9.99999e-01
1.391795508e+00,1.05817e-01,9.99999e-01,1.20380e-01,8.79022e-01,9.99999e-01
1.398754485e+00,2.36019e-01,9.99999e-01,2.67818e-01,8.81263e-01,9.99999e-01
1.405748258e+00,3.36490e-01,9.99999e-01,3.80874e-01,8.83466e-01,9.99999e-01
1.412776999e+00,4.80293e-01,9.99999e-01,5.42316e-01,8.85631e-01,9.99999e-01
1.419840884e+00,4.32409e-01,9.99999e-01,4.87080e-01,8.87758e-01,9.99999e-01
1.426940089e+00,2.50193e-02,9.99999e-01,2.81163e-02,8.89848e-01,9.99999e-01
1.434074789e+00,0.00000e+00,9.99999e-01,0.00000e+00,8.91902e-01,9.99999e-01
1.441245163e+00,0.00000e+00,9.99999e-01,0.00000e+00,8.93920e-01,9.99999e-01
1.448451389e+00,0.00000e+00,9.99999e-01,0.00000e+00,8.95902e-01,9.99999e-01
1.455693646e+00,0.00000e+00,9.99999e-01,0.00000e+00,8.97849e-01,9.99999e-01
1.462972114e+00,3.99869e-283,9.99999e-01,4.44416e-283,8.99762e-01,9.99999e-01
1.470286975e+00,8.00467e-118,9.99999e-01,8.87788e-118,9.01641e-01,9.99999e-01
