#,Wave/freq,Total,N2,CO2,Rayleigh,CIA
4.000000000e-01,1.58031e-03,9.99999e-01,9.99999e-01,1.58031e-03,9.99999e-01
4.020000000e-01,1.79529e-03,9.99999e-01,9.99999e-01,1.79529e-03,9.99999e-01
4.040100000e-01,2.03409e-03,9.99999e-01,9.99999e-01,2.03409e-03,9.99999e-01
4.060300500e-01,2.29899e-03,9.99999e-01,9.99999e-01,2.29899e-03,9.99999e-01
4.080602003e-01,2.59211e-03,9.99999e-01,9.99999e-01,2.59211e-03,9.99999e-01
4.101005013e-01,2.91568e-03,9.99999e-01,9.99999e-01,2.91568e-03,9.99999e-01
4.121510038e-01,3.27204e-03,9.99999e-01,9.99999e-01,3.27204e-03,9.99999e-01
4.142117588e-01,3.66359e-03,9.99999e-01,9.99999e-01,3.66359e-03,9.99999e-01
4.162828176e-01,4.09285e-03,9.99999e-01,9.99999e-01,4.09285e-03,9.99999e-01
4.183642317e-01,4.56241e-03,9.99999e-01,9.99999e-01,4.56241e-03,9.99999e-01
4.204560528e-01,5.07494e-03,9.99999e-01,9.99999e-01,5.07494e-03,9.99999e-01
4.225583331e-01,5.63318e-03,9.99999e-01,9.99999e-01,5.63318e-03,9.99999e-01
4.246711247e-01,6.23997e-03,9.99999e-01,9.99999e-01,6.23997e-03,9.99999e-01
4.267944804e-01,6.89815e-03,9.99999e-01,9.99999e-01,6.89815e-03,9.99999e-01
4.289284528e-01,7.61067e-03,9.99999e-01,9.99999e-01,7.61067e-03,9.99999e-01
4.310730950e-01,8.38051e-03,9.99999e-01,9.99999e-01,8.38051e-03,9.99999e-01
4.332284605e-01,9.21066e-03,9.99999e-01,9.99999e-01,9.21066e-03,9.99999e-01
4.353946028e-01,1.01042e-02,9.99999e-01,9.99999e-01,1.01042e-02,9.99999e-01
4.375715758e-01,1.10641e-02,9.99999e-01,9.99999e-01,1.10641e-02,9.99999e-01
4.397594337e-01,1.20936e-02,9.99999e-01,9.99999e-01,1.20936e-02,9.99999e-01
4.419582309e-01,1.31956e-02,9.99999e-01,9.99999e-01,1.31956e-02,9.99999e-01
4.441680220e-01,1.43733e-02,9.99999e-01,9.99999e-01,1.43733e-02,9.99999e-01
4.463888621e-01,1.56296e-02,9.99999e-01,9.99999e-01,1.56296e-02,9.99999e-01
4.486208064e-01,1.69677e-02,9.99999e-01,9.99999e-01,1.69677e-02,9.99999e-01
4.508639105e-01,1.83904e-02,9.99999e-01,9.99999e-01,1.83904e-02,9.99999e-01
4.531182300e-01,1.99008e-02,9.99999e-01,9.99999e-01,1.99008e-02,9.99999e-01
4.553838212e-01,2.15016e-02,9.99999e-01,9.99999e-01,2.15016e-02,9.99999e-01
4.576607403e-01,2.31958e-02,9.99999e-01,9.99999e-01,2.31958e-02,9.99999e-01
4.599490440e-01,2.49860e-02,9.99999e-01,9.99999e-01,2.49860e-02,9.99999e-01
4.622487892e-01,2.68748e-02,9.99999e-01,9.99999e-01,2.68748e-02,9.99999e-01
4.645600332e-01,2.88649e-02,9.99999e-01,9.99999e-01,2.88649e-02,9.99999e-01
4.668828333e-01,3.09586e-02,9.99999e-01,9.99999e-01,3.09586e-02,9.99999e-01
4.692172475e-01,3.31583e-02,9.99999e-01,9.99999e-01,3.31583e-02,9.99999e-01
4.715633337e-01,3.54662e-02,9.99999e-01,9.99999e-01,3.54662e-02,9.99999e-01
4.739211504e-01,3.78843e-02,9.99999e-01,9.99999e-01,3.78843e-02,9.99999e-01
4.762907561e-01,4.04146e-02,9.99999e-01,9.99999e-01,4.04146e-02,9.99999e-01
4.786722099e-01,4.30589e-02,9.99999e-01,9.99999e-01,4.30589e-02,9.99999e-01
4.810655710e-01,4.58187e-02,9.99999e-01,9.99999e-01,4.58187e-02,9.99999e-01
4.834708988e-01,4.86957e-02,9.99999e-01,9.99999e-01,4.86957e-02,9.99999e-01
4.858882533e-01,5.16911e-02,9.99999e-01,9.99999e-01,5.16911e-02,9.99999e-01
4.883176946e-01,5.48062e-02,9.99999e-01,9.99999e-01,5.48062e-02,9.99999e-01
4.907592831e-01,5.80418e-02,9.99999e-01,9.99999e-01,5.80418e-02,9.99999e-01
4.932130795e-01,6.13988e-02,9.99999e-01,9.99999e-01,6.13988e-02,9.99999e-01
4.956791449e-01,6.48779e-02,9.99999e-01,9.99999e-01,6.48779e-02,9.99999e-01
4.981575406e-01,6.84795e-02,9.99999e-01,9.99999e-01,6.84795e-02,9.99999e-01
5.006483283e-01,7.22040e-02,9.99999e-01,9.99999e-01,7.22040e-02,9.99999e-01
5.031515699e-01,7.60514e-02,9.99999e-01,9.99999e-01,7.60514e-02,9.99999e-01
5.056673278e-01,8.00218e-02,9.99999e-01,9.99999e-01,8.00218e-02,9.99999e-01
5.081956644e-01,8.41148e-02,9.99999e-01,9.99999e-01,8.41148e-02,9.99999e-01
5.107366428e-01,8.83302e-02,9.99999e-01,9.99999e-01,8.83302e-02,9.99999e-01
5.132903260e-01,9.26672e-02,9.99999e-01,9.99999e-01,9.26672e-02,9.99999e-01
5.158567776e-01,9.71252e-02,9.99999e-01,9.99999e-01,9.71252e-02,9.99999e-01
5.184360615e-01,1.01703e-01,9.99999e-01,9.99999e-01,1.01703e-01,9.99999e-01
5.210282418e-01,1.06400e-01,9.99999e-01,9.99999e-01,1.06400e-01,9.99999e-01
5.236333830e-01,1.11215e-01,9.99999e-01,9.99999e-01,1.11215e-01,9.99999e-01
5.262515499e-01,1.16146e-01,9.99999e-01,9.99999e-01,1.16146e-01,9.99999e-01
5.288828077e-01,1.21191e-01,9.99999e-01,9.99999e-01,1.21191e-01,9.99999e-01
5.315272217e-01,1.26350e-01,9.99999e-01,9.99999e-01,1.26350e-01,9.99999e-01
5.341848578e-01,1.31620e-01,9.99999e-01,9.99999e-01,1.31620e-01,9.99999e-01
5.368557821e-01,1.36999e-01,9.99999e-01,9.99999e-01,1.36999e-01,9.99999e-01
5.395400610e-01,1.42485e-01,9.99999e-01,9.99999e-01,1.42485e-01,9.99999e-01
5.422377613e-01,1.48076e-01,9.99999e-01,9.99999e-01,1.48076e-01,9.99999e-01
5.449489501e-01,1.53769e-01,9.99999e-01,9.99999e-01,1.53769e-01,9.99999e-01
5.476736949e-01,1.59562e-01,9.99999e-01,9.99999e-01,1.59562e-01,9.99999e-01
5.504120634e-01,1.65453e-01,9.99999e-01,9.99999e-01,1.65453e-01,9.99999e-01
5.531641237e-01,1.71438e-01,9.99999e-01,9.99999e-01,1.71438e-01,9.99999e-01
5.559299443e-01,1.77515e-01,9.99999e-01,9.99999e-01,1.77515e-01,9.99999e-01
5.587095940e-01,1.83681e-01,9.99999e-01,9.99999e-01,1.83681e-01,9.99999e-01
5.615031420e-01,1.89934e-01,9.99999e-01,9.99999e-01,1.89934e-01,9.99999e-01
5.643106577e-01,1.96269e-01,9.99999e-01,9.99999e-01,1.96269e-01,9.99999e-01
5.671322110e-01,2.02684e-01,9.99999e-01,9.99999e-01,2.02684e-01,9.99999e-01
5.699678720e-01,2.09176e-01,9.99999e-01,9.99999e-01,2.09176e-01,9.99999e-01
5.728177114e-01,2.15741e-01,9.99999e-01,9.99999e-01,2.15741e-01,9.99999e-01
5.756818000e-01,2.22377e-01,9.99999e-01,9.99999e-01,2.22377e-01,9.99999e-01
5.785602090e-01,2.29079e-01,9.99999e-01,9.99999e-01,2.29079e-01,9.99999e-01
5.814530100e-01,2.35846e-01,9.99999e-01,9.99999e-01,2.35846e-01,9.99999e-01
5.843602750e-01,2.42672e-01,9.99999e-01,9.99999e-01,2.42672e-01,9.99999e-01
5.872820764e-01,2.49556e-01,9.99999e-01,9.99999e-01,2.49556e-01,9.99999e-01
5.902184868e-01,2.56492e-01,9.99999e-01,9.99999e-01,2.56492e-01,9.99999e-01
5.931695792e-01,2.63480e-01,9.99999e-01,9.99999e-01,2.63480e-01,9.99999e-01
5.961354271e-01,2.70513e-01,9.99999e-01,9.99999e-01,2.70513e-01,9.99999e-01
5.991161043e-01,2.77590e-01,9.99999e-01,9.99999e-01,2.77590e-01,9.99999e-01
6.021116848e-01,2.84707e-01,9.99999e-01,9.99999e-01,2.84707e-01,9.99999e-01
6.051222432e-01,2.91860e-01,9.99999e-01,9.99999e-01,2.91860e-01,9.99999e-01
6.081478544e-01,2.99047e-01,9.99999e-01,9.99999e-01,2.99047e-01,9.99999e-01
6.111885937e-01,3.06263e-01,9.99999e-01,9.99999e-01,3.06263e-01,9.99999e-01
6.142445367e-01,3.13506e-01,9.99999e-01,9.99999e-01,3.13506e-01,9.99999e-01
6.173157594e-01,3.20772e-01,9.99999e-01,9.99999e-01,3.20772e-01,9.99999e-01
6.204023382e-01,3.28058e-01,9.99999e-01,9.99999e-01,3.28058e-01,9.99999e-01
6.235043498e-01,3.35360e-01,9.99999e-01,9.99999e-01,3.35360e-01,9.99999e-01
6.266218716e-01,3.42676e-01,9.99999e-01,9.99999e-01,3.42676e-01,9.99999e-01
6.297549810e-01,3.50002e-01,9.99999e-01,9.99999e-01,3.50002e-01,9.99999e-01
6.329037559e-01,3.57336e-01,9.99999e-01,9.99999e-01,3.57336e-01,9.99999e-01
6.360682746e-01,3.64674e-01,9.99999e-01,9.99999e-01,3.64674e-01,9.99999e-01
6.392486160e-01,3.72013e-01,9.99999e-01,9.99999e-01,3.72013e-01,9.99999e-01
6.424448591e-01,3.79350e-01,9.99999e-01,9.99999e-01,3.79350e-01,9.99999e-01
6.456570834e-01,3.86683e-01,9.99999e-01,9.99999e-01,3.86683e-01,9.99999e-01
6.488853688e-01,3.94009e-01,9.99999e-01,9.99999e-01,3.94009e-01,9.99999e-01
6.521297956e-01,4.01325e-01,9.99999e-01,9.99999e-01,4.01325e-01,9.99999e-01
6.553904446e-01,4.08628e-01,9.99999e-01,9.99999e-01,4.08628e-01,9.99999e-01
6.586673968e-01,4.15915e-01,9.99999e-01,9.99999e-01,4.15915e-01,9.99999e-01
6.619607338e-01,4.23185e-01,9.99999e-01,9.99999e-01,4.23185e-01,9.99999e-01
6.652705375e-01,4.30435e-01,9.99999e-01,9.99999e-01,4.30435e-01,9.99999e-01
6.685968902e-01,4.37662e-01,9.99999e-01,9.99999e-01,4.37662e-01,9.99999e-01
6.719398746e-01,4.44864e-01,9.99999e-01,9.99999e-01,4.44864e-01,9.99999e-01
6.752995740e-01,4.52039e-01,9.99999e-01,9.99999e-01,4.52039e-01,9.99999e-01
6.786760719e-01,4.59184e-01,9.99999e-01,9.99999e-01,4.59184e-01,9.99999e-01
6.820694522e-01,4.66298e-01,9.99999e-01,9.99999e-01,4.66298e-01,9.99999e-01
6.854797995e-01,4.73378e-01,9.99999e-01,9.99999e-01,4.73378e-01,9.99999e-01
6.889071985e-01,4.80422e-01,9.99999e-01,9.99999e-01,4.80422e-01,9.99999e-01
6.923517345e-01,4.87430e-01,9.99999e-01,9.99999e-01,4.87430e-01,9.99999e-01
6.958134932e-01,4.94398e-01,9.99999e-01,9.99999e-01,4.94398e-01,9.99999e-01
6.992925606e-01,5.01325e-01,9.99999e-01,9.99999e-01,5.01325e-01,9.99999e-01
7.027890234e-01,5.08209e-01,9.99999e-01,9.99999e-01,5.08209e-01,9.99999e-01
7.063029686e-01,5.15050e-01,9.99999e-01,9.99999e-01,5.15050e-01,9.99999e-01
7.098344834e-01,5.21844e-01,9.99999e-01,9.99999e-01,5.21844e-01,9.99999e-01
7.133836558e-01,5.28591e-01,9.99999e-01,9.99999e-01,5.28591e-01,9.99999e-01
7.169505741e-01,5.35290e-01,9.99999e-01,9.99999e-01,5.35290e-01,9.99999e-01
7.205353270e-01,5.41939e-01,9.99999e-01,9.99999e-01,5.41939e-01,9.99999e-01
7.241380036e-01,5.48536e-01,9.99999e-01,9.99999e-01,5.48536e-01,9.99999e-01
7.277586936e-01,5.55081e-01,9.99999e-01,9.99999e-01,5.55081e-01,9.99999e-01
7.313974871e-01,5.61573e-01,9.99999e-01,9.99999e-01,5.61573e-01,9.99999e-01
7.350544745e-01,5.68010e-01,9.99999e-01,9.99999e-01,5.68010e-01,9.99999e-01
7.387297469e-01,5.74392e-01,9.99999e-01,9.99999e-01,5.74392e-01,9.99999e-01
7.424233956e-01,5.80717e-01,9.99999e-01,9.99999e-01,5.80717e-01,9.99999e-01
7.461355126e-01,5.86984e-01,9.99999e-01,9.99999e-01,5.86984e-01,9.99999e-01
7.498661902e-01,5.93194e-01,9.99999e-01,9.99999e-01,5.93194e-01,9.99999e-01
7.536155211e-01,5.99345e-01,9.99999e-01,9.99999e-01,5.99345e-01,9.99999e-01
7.573835987e-01,6.05436e-01,9.99999e-01,9.99999e-01,6.05436e-01,9.99999e-01
7.611705167e-01,6.11467e-01,9.99999e-01,9.99999e-01,6.11467e-01,9.99999e-01
7.649763693e-01,6.17437e-01,9.99999e-01,9.99999e-01,6.17437e-01,9.99999e-01
7.688012511e-01,6.23345e-01,9.99999e-01,9.99999e-01,6.23345e-01,9.99999e-01
7.726452574e-01,6.29192e-01,9.99999e-01,9.99999e-01,6.29192e-01,9.99999e-01
7.765084837e-01,6.34977e-01,9.99999e-01,9.99999e-01,6.34977e-01,9.99999e-01
7.803910261e-01,6.27506e-01,9.99999e-01,9.79407e-01,6.40699e-01,9.99999e-01
7.842929812e-01,5.88265e-01,9.99999e-01,9.10122e-01,6.46358e-01,9.99999e-01
7.882144461e-01,5.89668e-01,9.99999e-01,9.04462e-01,6.51953e-01,9.99999e-01
7.921555184e-01,6.20541e-01,9.99999e-01,9.43808e-01,6.57486e-01,9.99999e-01
7.961162960e-01,6.37639e-01,9.99999e-01,9.61814e-01,6.62954e-01,9.99999e-01
8.000968774e-01,6.54433e-01,9.99999e-01,9.79164e-01,6.68359e-01,9.99999e-01
8.040973618e-01,6.66364e-01,9.99999e-01,9.89110e-01,6.73699e-01,9.99999e-01
8.081178486e-01,6.75589e-01,9.99999e-01,9.95011e-01,6.78976e-01,9.99999e-01
8.121584379e-01,6.83123e-01,9.99999e-01,9.98443e-01,6.84188e-01,9.99999e-01
8.162192301e-01,6.89099e-01,9.99999e-01,9.99655e-01,6.89336e-01,9.99999e-01
8.203003262e-01,6.94417e-01,9.99999e-01,9.99993e-01,6.94421e-01,9.99999e-01
8.244018279e-01,6.99441e-01,9.99999e-01,9.99999e-01,6.99441e-01,9.99999e-01
8.285238370e-01,7.04397e-01,9.99999e-01,9.99999e-01,7.04397e-01,9.99999e-01
8.326664562e-01,7.09289e-01,9.99999e-01,9.99999e-01,7.09289e-01,9.99999e-01
8.368297885e-01,7.14118e-01,9.99999e-01,9.99999e-01,7.14118e-01,9.99999e-01
8.410139374e-01,7.18883e-01,9.99999e-01,9.99999e-01,7.18883e-01,9.99999e-01
8.452190071e-01,7.23585e-01,9.99999e-01,9.99999e-01,7.23585e-01,9.99999e-01
8.494451021e-01,7.28224e-01,9.99999e-01,9.99999e-01,7.28224e-01,9.99999e-01
8.536923276e-01,7.32801e-01,9.99999e-01,9.99999e-01,7.32801e-01,9.99999e-01
8.579607893e-01,7.37314e-01,9.99999e-01,9.99999e-01,7.37314e-01,9.99999e-01
8.622505932e-01,7.41766e-01,9.99999e-01,9.99999e-01,7.41766e-01,9.99999e-01
8.665618462e-01,7.07167e-01,9.99999e-01,9.47747e-01,7.46156e-01,9.99999e-01
8.708946554e-01,5.89982e-01,9.99999e-01,7.86134e-01,7.50484e-01,9.99999e-01
8.752491287e-01,6.22418e-01,9.99999e-01,8.24667e-01,7.54751e-01,9.99999e-01
8.796253743e-01,6.83188e-01,9.99999e-01,9.00166e-01,7.58957e-01,9.99999e-01
8.840235012e-01,7.22783e-01,9.99999e-01,9.47162e-01,7.63103e-01,9.99999e-01
8.884436187e-01,7.50902e-01,9.99999e-01,9.78769e-01,7.67189e-01,9.99999e-01
8.928858368e-01,7.64567e-01,9.99999e-01,9.91378e-01,7.71216e-01,9.99999e-01
8.973502660e-01,7.73545e-01,9.99999e-01,9.97885e-01,7.75184e-01,9.99999e-01
9.018370173e-01,7.78911e-01,9.99999e-01,9.99765e-01,7.79093e-01,9.99999e-01
9.063462024e-01,7.78406e-01,9.99999e-01,9.94204e-01,7.82944e-01,9.99999e-01
9.108779334e-01,7.76073e-01,9.99999e-01,9.86445e-01,7.86737e-01,9.99999e-01
9.154323231e-01,7.87921e-01,9.99999e-01,9.96771e-01,7.90473e-01,9.99999e-01
9.200094847e-01,7.57688e-01,9.99999e-01,9.54082e-01,7.94153e-01,9.99999e-01
9.246095321e-01,7.46215e-01,9.99999e-01,9.35367e-01,7.97777e-01,9.99999e-01
9.292325798e-01,7.60758e-01,9.99999e-01,9.49351e-01,8.01345e-01,9.99999e-01
9.338787427e-01,7.65103e-01,9.99999e-01,9.50605e-01,8.04858e-01,9.99999e-01
9.385481364e-01,7.78846e-01,9.99999e-01,9.63540e-01,8.08316e-01,9.99999e-01
9.432408771e-01,7.93429e-01,9.99999e-01,9.77464e-01,8.11721e-01,9.99999e-01
9.479570815e-01,8.05631e-01,9.99999e-01,9.88415e-01,8.15073e-01,9.99999e-01
9.526968669e-01,8.13778e-01,9.99999e-01,9.94386e-01,8.18371e-01,9.99999e-01
9.574603512e-01,8.19642e-01,9.99999e-01,9.97595e-01,8.21618e-01,9.99999e-01
9.622476530e-01,8.24193e-01,9.99999e-01,9.99248e-01,8.24813e-01,9.99999e-01
9.670588912e-01,8.27770e-01,9.99999e-01,9.99774e-01,8.27956e-01,9.99999e-01
9.718941857e-01,8.31036e-01,9.99999e-01,9.99983e-01,8.31050e-01,9.99999e-01
9.767536566e-01,8.34093e-01,9.99999e-01,9.99999e-01,8.34093e-01,9.99999e-01
9.816374249e-01,8.37087e-01,9.99999e-01,9.99999e-01,8.37087e-01,9.99999e-01
9.865456120e-01,8.40033e-01,9.99999e-01,9.99999e-01,8.40033e-01,9.99999e-01
9.914783401e-01,8.42930e-01,9.99999e-01,9.99999e-01,8.42930e-01,9.99999e-01
9.964357318e-01,8.45780e-01,9.99999e-01,9.99999e-01,8.45780e-01,9.99999e-01
1.001417910e+00,8.48583e-01,9.99999e-01,9.99999e-01,8.48583e-01,9.99999e-01
1.006425000e+00,8.51339e-01,9.99999e-01,9.99999e-01,8.51339e-01,9.99999e-01
1.011457125e+00,8.54050e-01,9.99999e-01,9.99999e-01,8.54050e-01,9.99999e-01
1.016514411e+00,8.56716e-01,9.99999e-01,9.99999e-01,8.56716e-01,9.99999e-01
1.021596983e+00,8.59313e-01,9.99999e-01,9.99971e-01,8.59337e-01,9.99999e-01
1.026704968e+00,8.59975e-01,9.99999e-01,9.97750e-01,8.61914e-01,9.99999e-01
1.031838492e+00,8.39483e-01,9.99999e-01,9.71120e-01,8.64447e-01,9.99999e-01
1.036997685e+00,2.06515e-01,9.99999e-01,2.38211e-01,8.66938e-01,9.99999e-01
1.042182673e+00,2.25768e-01,9.99999e-01,2.59686e-01,8.69387e-01,9.99999e-01
1.047393587e+00,2.25487e-01,9.99999e-01,2.58647e-01,8.71793e-01,9.99999e-01
1.052630555e+00,2.15623e-02,9.99999e-01,2.46663e-02,8.74159e-01,9.99999e-01
1.057893707e+00,4.37967e-02,9.99999e-01,4.99685e-02,8.76485e-01,9.99999e-01
1.063183176e+00,9.93065e-02,9.99999e-01,1.13006e-01,8.78770e-01,9.99999e-01
1.068499092e+00,2.02813e-01,9.99999e-01,2.30203e-01,8.81016e-01,9.99999e-01
1.073841587e+00,3.48597e-01,9.99999e-01,3.94687e-01,8.83223e-01,9.99999e-01
1.079210795e+00,4.92368e-01,9.99999e-01,5.56100e-01,8.85392e-01,9.99999e-01
1.084606849e+00,6.43524e-01,9.99999e-01,7.25077e-01,8.87524e-01,9.99999e-01
1.090029883e+00,7.53295e-01,9.99999e-01,8.46761e-01,8.89618e-01,9.99999e-01
1.095480033e+00,8.21463e-01,9.99999e-01,9.21257e-01,8.91676e-01,9.99999e-01
1.100957433e+00,8.59120e-01,9.99999e-01,9.61309e-01,8.93697e-01,9.99999e-01
1.106462220e+00,8.81176e-01,9.99999e-01,9.83802e-01,8.95683e-01,9.99999e-01
1.111994531e+00,8.92220e-01,9.99999e-01,9.93967e-01,8.97635e-01,9.99999e-01
1.117554504e+00,8.98218e-01,9.99999e-01,9.98516e-01,8.99551e-01,9.99999e-01
1.123142276e+00,9.01346e-01,9.99999e-01,9.99901e-01,9.01434e-01,9.99999e-01
1.128757988e+00,9.03284e-01,9.99999e-01,9.99999e-01,9.03284e-01,9.99999e-01
1.134401778e+00,9.05100e-01,9.99999e-01,9.99999e-01,9.05100e-01,9.99999e-01
1.140073787e+00,9.06885e-01,9.99999e-01,9.99999e-01,9.06885e-01,9.99999e-01
1.145774156e+00,9.08637e-01,9.99999e-01,9.99999e-01,9.08637e-01,9.99999e-01
1.151503026e+00,9.10358e-01,9.99999e-01,9.99999e-01,9.10358e-01,9.99999e-01
1.157260541e+00,9.12049e-01,9.99999e-01,9.99999e-01,9.12049e-01,9.99999e-01
1.163046844e+00,9.13709e-01,9.99999e-01,9.99999e-01,9.13709e-01,9.99999e-01
1.168862078e+00,9.15339e-01,9.99999e-01,9.99999e-01,9.15339e-01,9.99999e-01
1.174706389e+00,9.16940e-01,9.99999e-01,9.99999e-01,9.16940e-01,9.99999e-01
1.180579921e+00,9.18512e-01,9.99999e-01,9.99999e-01,9.18512e-01,9.99999e-01
1.186482820e+00,9.20052e-01,9.99999e-01,9.99996e-01,9.20055e-01,9.99999e-01
1.192415234e+00,9.14192e-01,9.99999e-01,9.91992e-01,9.21570e-01,9.99999e-01
1.198377311e+00,5.32904e-01,9.99999e-01,5.77323e-01,9.23058e-01,9.99999e-01
1.204369197e+00,9.57052e-08,9.99999e-01,1.03519e-07,9.24519e-01,9.99999e-01
1.210391043e+00,7.30930e-26,9.99999e-01,7.89380e-26,9.25954e-01,9.99999e-01
1.216442998e+00,1.27168e-22,9.99999e-01,1.37129e-22,9.27362e-01,9.99999e-01
1.222525213e+00,2.65149e-22,9.99999e-01,2.85492e-22,9.28744e-01,9.99999e-01
1.228637839e+00,3.25406e-17,9.99999e-01,3.49860e-17,9.30101e-01,9.99999e-01
1.234781029e+00,1.22111e-11,9.99999e-01,1.31100e-11,9.31433e-01,9.99999e-01
1.240954934e+00,6.30488e-08,9.99999e-01,6.75951e-08,9.32741e-01,9.99999e-01
1.247159708e+00,9.97869e-05,9.99999e-01,1.06835e-04,9.34025e-01,9.99999e-01
1.253395507e+00,5.40651e-03,9.99999e-01,5.78059e-03,9.35285e-01,9.99999e-01
1.259662485e+00,3.91520e-02,9.99999e-01,4.18057e-02,9.36522e-01,9.99999e-01
1.265960797e+00,1.69644e-01,9.99999e-01,1.80908e-01,9.37736e-01,9.99999e-01
1.272290601e+00,4.38354e-01,9.99999e-01,4.66867e-01,9.38927e-01,9.99999e-01
1.278652054e+00,4.09946e-01,9.99999e-01,4.36068e-01,9.40097e-01,9.99999e-01
1.285045314e+00,2.44866e-02,9.99999e-01,2.60151e-02,9.41244e-01,9.99999e-01
1.291470541e+00,9.76200e-04,9.99999e-01,1.03590e-03,9.42371e-01,9.99999e-01
1.297927893e+00,2.25977e-02,9.99999e-01,2.39516e-02,9.43476e-01,9.99999e-01
1.304417533e+00,2.62724e-01,9.99999e-01,2.78143e-01,9.44561e-01,9.99999e-01
1.310939621e+00,7.27705e-02,9.99999e-01,7.69547e-02,9.45626e-01,9.99999e-01
1.317494319e+00,2.35978e-09,9.99999e-01,2.49271e-09,9.46671e-01,9.99999e-01
1.324081790e+00,8.98764e-07,9.99999e-01,9.48367e-07,9.47696e-01,9.99999e-01
1.330702199e+00,5.35165e-04,9.99999e-01,5.64101e-04,9.48702e-01,9.99999e-01
1.337355710e+00,4.25926e-04,9.99999e-01,4.48489e-04,9.49689e-01,9.99999e-01
1.344042489e+00,1.36981e-04,9.99999e-01,1.44090e-04,9.50658e-01,9.99999e-01
1.350762701e+00,3.79550e-04,9.99999e-01,3.98851e-04,9.51609e-01,9.99999e-01
1.357516515e+00,5.63966e-03,9.99999e-01,5.92063e-03,9.52542e-01,9.99999e-01
1.364304097e+00,3.78809e-02,9.99999e-01,3.97300e-02,9.53457e-01,9.99999e-01
1.371125618e+00,1.73804e-01,9.99999e-01,1.82117e-01,9.54355e-01,9.99999e-01
1.377981246e+00,2.43837e-01,9.99999e-01,2.55263e-01,9.55236e-01,9.99999e-01
1.384871152e+00,4.31489e-01,9.99999e-01,4.51300e-01,9.56100e-01,9.99999e-01
1.391795508e+00,4.58867e-01,9.99999e-01,4.79510e-01,9.56949e-01,9.99999e-01
1.398754485e+00,6.09471e-01,9.99999e-01,6.36336e-01,9.57781e-01,9.99999e-01
1.405748258e+00,6.86524e-01,9.99999e-01,7.16175e-01,9.58597e-01,9.99999e-01
1.412776999e+00,7.77164e-01,9.99999e-01,8.10053e-01,9.59398e-01,9.99999e-01
1.419840884e+00,7.17044e-01,9.99999e-01,7.46777e-01,9.60184e-01,9.99999e-01
1.426940089e+00,8.81141e-02,9.99999e-01,9.16942e-02,9.60955e-01,9.99999e-01
1.434074789e+00,0.00000e+00,9.99999e-01,0.00000e+00,9.61711e-01,9.99999e-01
1.441245163e+00,0.00000e+00,9.99999e-01,0.00000e+00,9.62453e-01,9.99999e-01
1.448451389e+00,0.00000e+00,9.99999e-01,0.00000e+00,9.63181e-01,9.99999e-01
1.455693646e+00,1.62331e-201,9.99999e-01,1.68411e-201,9.63895e-01,9.99999e-01
1.462972114e+00,4.35279e-98,9.99999e-01,4.51255e-98,9.64595e-01,9.99999e-01
1.470286975e+00,1.10132e-41,9.99999e-01,1.14093e-41,9.65282e-01,9.99999e-01
