#,Wave/freq,Total,N2,CO2,Rayleigh,CIA
4.000000000e-01,7.87548e-09,9.99999e-01,9.99999e-01,7.87548e-09,9.99999e-01
4.020000000e-01,1.13898e-08,9.99999e-01,9.99999e-01,1.13898e-08,9.99999e-01
4.040100000e-01,1.63462e-08,9.99999e-01,9.99999e-01,1.63462e-08,9.99999e-01
4.060300500e-01,2.32928e-08,9.99999e-01,9.99999e-01,2.32928e-08,9.99999e-01
4.080602003e-01,3.29601e-08,9.99999e-01,9.99999e-01,3.29601e-08,9.99999e-01
4.101005013e-01,4.63209e-08,9.99999e-01,9.99999e-01,4.63209e-08,9.99999e-01
4.121510038e-01,6.46615e-08,9.99999e-01,9.99999e-01,6.46615e-08,9.99999e-01
4.142117588e-01,8.96713e-08,9.99999e-01,9.99999e-01,8.96713e-08,9.99999e-01
4.162828176e-01,1.23554e-07,9.99999e-01,9.99999e-01,1.23554e-07,9.99999e-01
4.183642317e-01,1.69164e-07,9.99999e-01,9.99999e-01,1.69164e-07,9.99999e-01
4.204560528e-01,2.30179e-07,9.99999e-01,9.99999e-01,2.30179e-07,9.99999e-01
4.225583331e-01,3.11302e-07,9.99999e-01,9.99999e-01,3.11302e-07,9.99999e-01
4.246711247e-01,4.18512e-07,9.99999e-01,9.99999e-01,4.18512e-07,9.99999e-01
4.267944804e-01,5.59365e-07,9.99999e-01,9.99999e-01,5.59365e-07,9.99999e-01
4.289284528e-01,7.43350e-07,9.99999e-01,9.99999e-01,7.43350e-07,9.99999e-01
4.310730950e-01,9.82319e-07,9.99999e-01,9.99999e-01,9.82319e-07,9.99999e-01
4.332284605e-01,1.29098e-06,9.99999e-01,9.99999e-01,1.29098e-06,9.99999e-01
4.353946028e-01,1.68750e-06,9.99999e-01,9.99999e-01,1.68750e-06,9.99999e-01
4.375715758e-01,2.19417e-06,9.99999e-01,9.99999e-01,2.19417e-06,9.99999e-01
4.397594337e-01,2.83821e-06,9.99999e-01,9.99999e-01,2.83821e-06,9.99999e-01
4.419582309e-01,3.65267e-06,9.99999e-01,9.99999e-01,3.65267e-06,9.99999e-01
4.441680220e-01,4.67749e-06,9.99999e-01,9.99999e-01,4.67749e-06,9.99999e-01
4.463888621e-01,5.96064e-06,9.99999e-01,9.99999e-01,5.96064e-06,9.99999e-01
4.486208064e-01,7.55951e-06,9.99999e-01,9.99999e-01,7.55951e-06,9.99999e-01
4.508639105e-01,9.54237e-06,9.99999e-01,9.99999e-01,9.54237e-06,9.99999e-01
4.531182300e-01,1.19900e-05,9.99999e-01,9.99999e-01,1.19900e-05,9.99999e-01
4.553838212e-01,1.49977e-05,9.99999e-01,9.99999e-01,1.49977e-05,9.99999e-01
4.576607403e-01,1.86772e-05,9.99999e-01,9.99999e-01,1.86772e-05,9.99999e-01
4.599490440e-01,2.31587e-05,9.99999e-01,9.99999e-01,2.31587e-05,9.99999e-01
4.622487892e-01,2.85939e-05,9.99999e-01,9.99999e-01,2.85939e-05,9.99999e-01
4.645600332e-01,3.51579e-05,9.99999e-01,9.99999e-01,3.51579e-05,9.99999e-01
4.668828333e-01,4.30527e-05,9.99999e-01,9.99999e-01,4.30527e-05,9.99999e-01
4.692172475e-01,5.25097e-05,9.99999e-01,9.99999e-01,5.25097e-05,9.99999e-01
4.715633337e-01,6.37933e-05,9.99999e-01,9.99999e-01,6.37933e-05,9.99999e-01
4.739211504e-01,7.72043e-05,9.99999e-01,9.99999e-01,7.72043e-05,9.99999e-01
4.762907561e-01,9.30830e-05,9.99999e-01,9.99999e-01,9.30830e-05,9.99999e-01
4.786722099e-01,1.11814e-04,9.99999e-01,9.99999e-01,1.11814e-04,9.99999e-01
4.810655710e-01,1.33828e-04,9.99999e-01,9.99999e-01,1.33828e-04,9.99999e-01
4.834708988e-01,1.59609e-04,9.99999e-01,9.99999e-01,1.59609e-04,9.99999e-01
4.858882533e-01,1.89695e-04,9.99999e-01,9.99999e-01,1.89695e-04,9.99999e-01
4.883176946e-01,2.24685e-04,9.99999e-01,9.99999e-01,2.24685e-04,9.99999e-01
4.907592831e-01,2.65240e-04,9.99999e-01,9.99999e-01,2.65240e-04,9.99999e-01
4.932130795e-01,3.12091e-04,9.99999e-01,9.99999e-01,3.12091e-04,9.99999e-01
4.956791449e-01,3.66040e-04,9.99999e-01,9.99999e-01,3.66040e-04,9.99999e-01
4.981575406e-01,4.27964e-04,9.99999e-01,9.99999e-01,4.27964e-04,9.99999e-01
5.006483283e-01,4.98821e-04,9.99999e-01,9.99999e-01,4.98821e-04,9.99999e-01
5.031515699e-01,5.79654e-04,9.99999e-01,9.99999e-01,5.79654e-04,9.99999e-01
5.056673278e-01,6.71590e-04,9.99999e-01,9.99999e-01,6.71590e-04,9.99999e-01
5.081956644e-01,7.75848e-04,9.99999e-01,9.99999e-01,7.75848e-04,9.99999e-01
5.107366428e-01,8.93741e-04,9.99999e-01,9.99999e-01,8.93741e-04,9.99999e-01
5.132903260e-01,1.02667e-03,9.99999e-01,9.99999e-01,1.02667e-03,9.99999e-01
5.158567776e-01,1.17615e-03,9.99999e-01,9.99999e-01,1.17615e-03,9.99999e-01
5.184360615e-01,1.34378e-03,9.99999e-01,9.99999e-01,1.34378e-03,9.99999e-01
5.210282418e-01,1.53127e-03,9.99999e-01,9.99999e-01,1.53127e-03,9.99999e-01
5.236333830e-01,1.74042e-03,9.99999e-01,9.99999e-01,1.74042e-03,9.99999e-01
5.262515499e-01,1.97314e-03,9.99999e-01,9.99999e-01,1.97314e-03,9.99999e-01
5.288828077e-01,2.23144e-03,9.99999e-01,9.99999e-01,2.23144e-03,9.99999e-01
5.315272217e-01,2.51743e-03,9.99999e-01,9.99999e-01,2.51743e-03,9.99999e-01
5.341848578e-01,2.83332e-03,9.99999e-01,9.99999e-01,2.83332e-03,9.99999e-01
5.368557821e-01,3.18140e-03,9.99999e-01,9.99999e-01,3.18140e-03,9.99999e-01
5.395400610e-01,3.56409e-03,9.99999e-01,9.99999e-01,3.56409e-03,9.99999e-01
5.422377613e-01,3.98385e-03,9.99999e-01,9.99999e-01,3.98385e-03,9.99999e-01
5.449489501e-01,4.44328e-03,9.99999e-01,9.99999e-01,4.44328e-03,9.99999e-01
5.476736949e-01,4.94501e-03,9.99999e-01,9.99999e-01,4.94501e-03,9.99999e-01
5.504120634e-01,5.49178e-03,9.99999e-01,9.99999e-01,5.49178e-03,9.99999e-01
5.531641237e-01,6.08638e-03,9.99999e-01,9.99999e-01,6.08638e-03,9.99999e-01
5.559299443e-01,6.73168e-03,9.99999e-01,9.99999e-01,6.73168e-03,9.99999e-01
5.587095940e-01,7.43059e-03,9.99999e-01,9.99999e-01,7.43059e-03,9.99999e-01
5.615031420e-01,8.18608e-03,9.99999e-01,9.99999e-01,8.18608e-03,9.99999e-01
5.643106577e-01,9.00115e-03,9.99999e-01,9.99999e-01,9.00115e-03,9.99999e-01
5.671322110e-01,9.87883e-03,9.99999e-01,9.99999e-01,9.87883e-03,9.99999e-01
5.699678720e-01,1.08222e-02,9.99999e-01,9.99999e-01,1.08222e-02,9.99999e-01
5.728177114e-01,1.18343e-02,9.99999e-01,9.99999e-01,1.18343e-02,9.99999e-01
5.756818000e-01,1.29182e-02,9.99999e-01,9.99999e-01,1.29182e-02,9.99999e-01
5.785602090e-01,1.40770e-02,9.99999e-01,9.99999e-01,1.40770e-02,9.99999e-01
5.814530100e-01,1.53138e-02,9.99999e-01,9.99999e-01,1.53138e-02,9.99999e-01
5.843602750e-01,1.66315e-02,9.99999e-01,9.99999e-01,1.66315e-02,9.99999e-01
5.872820764e-01,1.80332e-02,9.99999e-01,9.99999e-01,1.80332e-02,9.99999e-01
5.902184868e-01,1.95218e-02,9.99999e-01,9.99999e-01,1.95218e-02,9.99999e-01
5.931695792e-01,2.11002e-02,9.99999e-01,9.99999e-01,2.11002e-02,9.99999e-01
5.961354271e-01,2.27712e-02,9.99999e-01,9.99999e-01,2.27712e-02,9.99999e-01
5.991161043e-01,2.45375e-02,9.99999e-01,9.99999e-01,2.45375e-02,9.99999e-01
6.021116848e-01,2.64019e-02,9.99999e-01,9.99999e-01,2.64019e-02,9.99999e-01
6.051222432e-01,2.83669e-02,9.99999e-01,9.99999e-01,2.83669e-02,9.99999e-01
6.081478544e-01,3.04350e-02,9.99999e-01,9.99999e-01,3.04350e-02,9.99999e-01
6.111885937e-01,3.26085e-02,9.99999e-01,9.99999e-01,3.26085e-02,9.99999e-01
6.142445367e-01,3.48896e-02,9.99999e-01,9.99999e-01,3.48896e-02,9.99999e-01
6.173157594e-01,3.72804e-02,9.99999e-01,9.99999e-01,3.72804e-02,9.99999e-01
6.204023382e-01,3.97830e-02,9.99999e-01,9.99999e-01,3.97830e-02,9.99999e-01
6.235043498e-01,4.23992e-02,9.99999e-01,9.99999e-01,4.23992e-02,9.99999e-01
6.266218716e-01,4.51305e-02,9.99999e-01,9.99999e-01,4.51305e-02,9.99999e-01
6.297549810e-01,4.79786e-02,9.99999e-01,9.99999e-01,4.79786e-02,9.99999e-01
6.329037559e-01,5.09449e-02,9.99999e-01,9.99999e-01,5.09449e-02,9.99999e-01
6.360682746e-01,5.40304e-02,9.99999e-01,9.99999e-01,5.40304e-02,9.99999e-01
6.392486160e-01,5.72364e-02,9.99999e-01,9.99999e-01,5.72364e-02,9.99999e-01
6.424448591e-01,6.05635e-02,9.99999e-01,9.99999e-01,6.05635e-02,9.99999e-01
6.456570834e-01,6.40126e-02,9.99999e-01,9.99999e-01,6.40126e-02,9.99999e-01
6.488853688e-01,6.75841e-02,9.99999e-01,9.99999e-01,6.75841e-02,9.99999e-01
6.521297956e-01,7.12784e-02,9.99999e-01,9.99999e-01,7.12784e-02,9.99999e-01
6.553904446e-01,7.50957e-02,9.99999e-01,9.99999e-01,7.50957e-02,9.99999e-01
6.586673968e-01,7.90359e-02,9.99999e-01,9.99999e-01,7.90359e-02,9.99999e-01
6.619607338e-01,8.30989e-02,9.99999e-01,9.99999e-01,8.30989e-02,9.99999e-01
6.652705375e-01,8.72842e-02,9.99999e-01,9.99999e-01,8.72842e-02,9.99999e-01
6.685968902e-01,9.15914e-02,9.99999e-01,9.99999e-01,9.15914e-02,9.99999e-01
6.719398746e-01,9.60198e-02,9.99999e-01,9.99999e-01,9.60198e-02,9.99999e-01
6.752995740e-01,1.00568e-01,9.99999e-01,9.99999e-01,1.00568e-01,9.99999e-01
6.786760719e-01,1.05236e-01,9.99999e-01,9.99999e-01,1.05236e-01,9.99999e-01
6.820694522e-01,1.10022e-01,9.99999e-01,9.99999e-01,1.10022e-01,9.99999e-01
6.854797995e-01,1.14925e-01,9.99999e-01,9.99999e-01,1.14925e-01,9.99999e-01
6.889071985e-01,1.19942e-01,9.99999e-01,9.99999e-01,1.19942e-01,9.99999e-01
6.923517345e-01,1.25073e-01,9.99999e-01,9.99999e-01,1.25073e-01,9.99999e-01
6.958134932e-01,1.30316e-01,9.99999e-01,9.99999e-01,1.30316e-01,9.99999e-01
6.992925606e-01,1.35669e-01,9.99999e-01,9.99999e-01,1.35669e-01,9.99999e-01
7.027890234e-01,1.41129e-01,9.99999e-01,9.99999e-01,1.41129e-01,9.99999e-01
7.063029686e-01,1.46694e-01,9.99999e-01,9.99999e-01,1.46694e-01,9.99999e-01
7.098344834e-01,1.52362e-01,9.99999e-01,9.99999e-01,1.52362e-01,9.99999e-01
7.133836558e-01,1.58131e-01,9.99999e-01,9.99999e-01,1.58131e-01,9.99999e-01
7.169505741e-01,1.63998e-01,9.99999e-01,9.99999e-01,1.63998e-01,9.99999e-01
7.205353270e-01,1.69960e-01,9.99999e-01,9.99999e-01,1.69960e-01,9.99999e-01
7.241380036e-01,1.76015e-01,9.99999e-01,9.99999e-01,1.76015e-01,9.99999e-01
7.277586936e-01,1.82160e-01,9.99999e-01,9.99999e-01,1.82160e-01,9.99999e-01
7.313974871e-01,1.88391e-01,9.99999e-01,9.99999e-01,1.88391e-01,9.99999e-01
7.350544745e-01,1.94706e-01,9.99999e-01,9.99999e-01,1.94706e-01,9.99999e-01
7.387297469e-01,2.01102e-01,9.99999e-01,9.99999e-01,2.01102e-01,9.99999e-01
7.424233956e-01,2.07575e-01,9.99999e-01,9.99999e-01,2.07575e-01,9.99999e-01
7.461355126e-01,2.14123e-01,9.99999e-01,9.99999e-01,2.14123e-01,9.99999e-01
7.498661902e-01,2.20742e-01,9.99999e-01,9.99999e-01,2.20742e-01,9.99999e-01
7.536155211e-01,2.27428e-01,9.99999e-01,9.99999e-01,2.27428e-01,9.99999e-01
7.573835987e-01,2.34179e-01,9.99999e-01,9.99999e-01,2.34179e-01,9.99999e-01
7.611705167e-01,2.40991e-01,9.99999e-01,9.99999e-01,2.40991e-01,9.99999e-01
7.649763693e-01,2.47861e-01,9.99999e-01,9.99999e-01,2.47861e-01,9.99999e-01
7.688012511e-01,2.54785e-01,9.99999e-01,9.99999e-01,2.54785e-01,9.99999e-01
7.726452574e-01,2.61760e-01,9.99999e-01,9.99999e-01,2.61760e-01,9.99999e-01
7.765084837e-01,2.68783e-01,9.99999e-01,9.99999e-01,2.68783e-01,9.99999e-01
7.803910261e-01,2.61203e-01,9.99999e-01,9.46905e-01,2.75849e-01,9.99999e-01
7.842929812e-01,2.17543e-01,9.99999e-01,7.68821e-01,2.82957e-01,9.99999e-01
7.882144461e-01,2.19634e-01,9.99999e-01,7.57093e-01,2.90101e-01,9.99999e-01
7.921555184e-01,2.51894e-01,9.99999e-01,8.47329e-01,2.97280e-01,9.99999e-01
7.961162960e-01,2.72180e-01,9.99999e-01,8.93889e-01,3.04489e-01,9.99999e-01
8.000968774e-01,2.93353e-01,9.99999e-01,9.41061e-01,3.11726e-01,9.99999e-01
8.040973618e-01,3.09059e-01,9.99999e-01,9.68878e-01,3.18986e-01,9.99999e-01
8.081178486e-01,3.21585e-01,9.99999e-01,9.85648e-01,3.26268e-01,9.99999e-01
8.121584379e-01,3.32068e-01,9.99999e-01,9.95509e-01,3.33566e-01,9.99999e-01
8.162192301e-01,3.40540e-01,9.99999e-01,9.99006e-01,3.40879e-01,9.99999e-01
8.203003262e-01,3.48197e-01,9.99999e-01,9.99983e-01,3.48203e-01,9.99999e-01
8.244018279e-01,3.55535e-01,9.99999e-01,9.99999e-01,3.55535e-01,9.99999e-01
8.285238370e-01,3.62872e-01,9.99999e-01,9.99999e-01,3.62872e-01,9.99999e-01
8.326664562e-01,3.70211e-01,9.99999e-01,9.99999e-01,3.70211e-01,9.99999e-01
8.368297885e-01,3.77549e-01,9.99999e-01,9.99999e-01,3.77549e-01,9.99999e-01
8.410139374e-01,3.84884e-01,9.99999e-01,9.99999e-01,3.84884e-01,9.99999e-01
8.452190071e-01,3.92212e-01,9.99999e-01,9.99999e-01,3.92212e-01,9.99999e-01
8.494451021e-01,3.99530e-01,9.99999e-01,9.99999e-01,3.99530e-01,9.99999e-01
8.536923276e-01,4.06836e-01,9.99999e-01,9.99999e-01,4.06836e-01,9.99999e-01
8.579607893e-01,4.14128e-01,9.99999e-01,9.99999e-01,4.14128e-01,9.99999e-01
8.622505932e-01,4.21403e-01,9.99999e-01,9.99999e-01,4.21403e-01,9.99999e-01
8.665618462e-01,3.86541e-01,9.99999e-01,9.01747e-01,4.28657e-01,9.99999e-01
8.708946554e-01,2.26632e-01,9.99999e-01,5.19928e-01,4.35890e-01,9.99999e-01
8.752491287e-01,2.59065e-01,9.99999e-01,5.84666e-01,4.43098e-01,9.99999e-01
8.796253743e-01,3.33976e-01,9.99999e-01,7.41706e-01,4.50280e-01,9.99999e-01
8.840235012e-01,3.91375e-01,9.99999e-01,8.55588e-01,4.57433e-01,9.99999e-01
8.884436187e-01,4.36682e-01,9.99999e-01,9.40001e-01,4.64555e-01,9.99999e-01
8.928858368e-01,4.59993e-01,9.99999e-01,9.75298e-01,4.71643e-01,9.99999e-01
8.973502660e-01,4.75780e-01,9.99999e-01,9.93905e-01,4.78697e-01,9.99999e-01
9.018370173e-01,4.85386e-01,9.99999e-01,9.99325e-01,4.85713e-01,9.99999e-01
9.063462024e-01,4.84555e-01,9.99999e-01,9.83485e-01,4.92691e-01,9.99999e-01
9.108779334e-01,4.80337e-01,9.99999e-01,9.61387e-01,4.99629e-01,9.99999e-01
9.154323231e-01,5.01820e-01,9.99999e-01,9.90713e-01,5.06524e-01,9.99999e-01
9.200094847e-01,4.52745e-01,9.99999e-01,8.81899e-01,5.13375e-01,9.99999e-01
9.246095321e-01,4.29274e-01,9.99999e-01,8.25239e-01,5.20181e-01,9.99999e-01
9.292325798e-01,4.54448e-01,9.99999e-01,8.62428e-01,5.26940e-01,9.99999e-01
9.338787427e-01,4.61581e-01,9.99999e-01,8.64950e-01,5.33650e-01,9.99999e-01
9.385481364e-01,4.85517e-01,9.99999e-01,8.98586e-01,5.40311e-01,9.99999e-01
9.432408771e-01,5.12083e-01,9.99999e-01,9.36300e-01,5.46922e-01,9.99999e-01
9.479570815e-01,5.35151e-01,9.99999e-01,9.66884e-01,5.53480e-01,9.99999e-01
9.526968669e-01,5.50953e-01,9.99999e-01,9.83872e-01,5.59984e-01,9.99999e-01
9.574603512e-01,5.62508e-01,9.99999e-01,9.93065e-01,5.66435e-01,9.99999e-01
9.622476530e-01,5.71588e-01,9.99999e-01,9.97829e-01,5.72830e-01,9.99999e-01
9.670588912e-01,5.78792e-01,9.99999e-01,9.99347e-01,5.79169e-01,9.99999e-01
9.718941857e-01,5.85424e-01,9.99999e-01,9.99952e-01,5.85451e-01,9.99999e-01
9.767536566e-01,5.91675e-01,9.99999e-01,9.99999e-01,5.91675e-01,9.99999e-01
9.816374249e-01,5.97840e-01,9.99999e-01,9.99999e-01,5.97840e-01,9.99999e-01
9.865456120e-01,6.03946e-01,9.99999e-01,9.99999e-01,6.03946e-01,9.99999e-01
9.914783401e-01,6.09992e-01,9.99999e-01,9.99999e-01,6.09992e-01,9.99999e-01
9.964357318e-01,6.15977e-01,9.99999e-01,9.99999e-01,6.15977e-01,9.99999e-01
1.001417910e+00,6.21901e-01,9.99999e-01,9.99999e-01,6.21901e-01,9.99999e-01
1.006425000e+00,6.27763e-01,9.99999e-01,9.99999e-01,6.27763e-01,9.99999e-01
1.011457125e+00,6.33563e-01,9.99999e-01,9.99999e-01,6.33563e-01,9.99999e-01
1.016514411e+00,6.39300e-01,9.99999e-01,9.99999e-01,6.39300e-01,9.99999e-01
1.021596983e+00,6.44923e-01,9.99999e-01,9.99919e-01,6.44975e-01,9.99999e-01
1.026704968e+00,6.46371e-01,9.99999e-01,9.93521e-01,6.50586e-01,9.99999e-01
1.031838492e+00,6.15917e-01,9.99999e-01,9.38705e-01,6.56134e-01,9.99999e-01
1.036997685e+00,6.08543e-02,9.99999e-01,9.19780e-02,6.61618e-01,9.99999e-01
1.042182673e+00,1.92978e-02,9.99999e-01,2.89306e-02,6.67038e-01,9.99999e-01
1.047393587e+00,3.34477e-02,9.99999e-01,4.97442e-02,6.72394e-01,9.99999e-01
1.052630555e+00,1.06716e-04,9.99999e-01,1.57470e-04,6.77687e-01,9.99999e-01
1.057893707e+00,3.47355e-04,9.99999e-01,5.08636e-04,6.82915e-01,9.99999e-01
1.063183176e+00,2.42871e-03,9.99999e-01,3.52970e-03,6.88079e-01,9.99999e-01
1.068499092e+00,1.18270e-02,9.99999e-01,1.70620e-02,6.93179e-01,9.99999e-01
1.073841587e+00,5.21052e-02,9.99999e-01,7.46262e-02,6.98214e-01,9.99999e-01
1.079210795e+00,1.36150e-01,9.99999e-01,1.93618e-01,7.03186e-01,9.99999e-01
1.084606849e+00,2.83163e-01,9.99999e-01,3.99894e-01,7.08094e-01,9.99999e-01
1.090029883e+00,4.42368e-01,9.99999e-01,6.20484e-01,7.12939e-01,9.99999e-01
1.095480033e+00,5.66940e-01,9.99999e-01,7.89918e-01,7.17720e-01,9.99999e-01
1.100957433e+00,6.44710e-01,9.99999e-01,8.92409e-01,7.22437e-01,9.99999e-01
1.106462220e+00,6.93603e-01,9.99999e-01,9.53941e-01,7.27092e-01,9.99999e-01
1.111994531e+00,7.19002e-01,9.99999e-01,9.82668e-01,7.31683e-01,9.99999e-01
1.117554504e+00,7.33063e-01,9.99999e-01,9.95722e-01,7.36212e-01,9.99999e-01
1.123142276e+00,7.40469e-01,9.99999e-01,9.99716e-01,7.40679e-01,9.99999e-01
1.128757988e+00,7.45084e-01,9.99999e-01,9.99999e-01,7.45084e-01,9.99999e-01
1.134401778e+00,7.49427e-01,9.99999e-01,9.99999e-01,7.49427e-01,9.99999e-01
1.140073787e+00,7.53709e-01,9.99999e-01,9.99999e-01,7.53709e-01,9.99999e-01
1.145774156e+00,7.57930e-01,9.99999e-01,9.99999e-01,7.57930e-01,9.99999e-01
1.151503026e+00,7.62091e-01,9.99999e-01,9.99999e-01,7.62091e-01,9.99999e-01
1.157260541e+00,7.66192e-01,9.99999e-01,9.99999e-01,7.66192e-01,9.99999e-01
1.163046844e+00,7.70233e-01,9.99999e-01,9.99999e-01,7.70233e-01,9.99999e-01
1.168862078e+00,7.74215e-01,9.99999e-01,9.99999e-01,7.74215e-01,9.99999e-01
1.174706389e+00,7.78138e-01,9.99999e-01,9.99999e-01,7.78138e-01,9.99999e-01
1.180579921e+00,7.82004e-01,9.99999e-01,9.99999e-01,7.82004e-01,9.99999e-01
1.186482820e+00,7.85804e-01,9.99999e-01,9.99991e-01,7.85811e-01,9.99999e-01
1.192415234e+00,7.71773e-01,9.99999e-01,9.77470e-01,7.89561e-01,9.99999e-01
1.198377311e+00,4.32614e-01,9.99999e-01,5.45366e-01,7.93255e-01,9.99999e-01
1.204369197e+00,3.78062e-18,9.99999e-01,4.74420e-18,7.96892e-01,9.99999e-01
1.210391043e+00,1.48143e-70,9.99999e-01,1.85069e-70,8.00474e-01,9.99999e-01
1.216442998e+00,3.48431e-61,9.99999e-01,4.33371e-61,8.04001e-01,9.99999e-01
1.222525213e+00,2.79253e-60,9.99999e-01,3.45836e-60,8.07472e-01,9.99999e-01
1.228637839e+00,1.22373e-46,9.99999e-01,1.50912e-46,8.10890e-01,9.99999e-01
1.234781029e+00,1.98252e-29,9.99999e-01,2.43476e-29,8.14255e-01,9.99999e-01
1.240954934e+00,1.02829e-19,9.99999e-01,1.25774e-19,8.17567e-01,9.99999e-01
1.247159708e+00,4.65199e-10,9.99999e-01,5.66745e-10,8.20826e-01,9.99999e-01
1.253395507e+00,9.74704e-07,9.99999e-01,1.18284e-06,8.24033e-01,9.99999e-01
1.259662485e+00,2.00658e-04,9.99999e-01,2.42578e-04,8.27189e-01,9.99999e-01
1.265960797e+00,9.54522e-03,9.99999e-01,1.14962e-02,8.30295e-01,9.99999e-01
1.272290601e+00,1.00160e-01,9.99999e-01,1.20189e-01,8.33351e-01,9.99999e-01
1.278652054e+00,1.01693e-01,9.99999e-01,1.21590e-01,8.36357e-01,9.99999e-01
1.285045314e+00,8.33509e-04,9.99999e-01,9.93082e-04,8.39314e-01,9.99999e-01
1.291470541e+00,8.21002e-09,9.99999e-01,9.74802e-09,8.42223e-01,9.99999e-01
1.297927893e+00,2.48468e-04,9.99999e-01,2.94015e-04,8.45085e-01,9.99999e-01
1.304417533e+00,2.30731e-02,9.99999e-01,2.72121e-02,8.47899e-01,9.99999e-01
1.310939621e+00,5.67140e-03,9.99999e-01,6.66700e-03,8.50667e-01,9.99999e-01
1.317494319e+00,1.69211e-24,9.99999e-01,1.98280e-24,8.53389e-01,9.99999e-01
1.324081790e+00,2.06008e-16,9.99999e-01,2.40645e-16,8.56065e-01,9.99999e-01
1.330702199e+00,9.75067e-10,9.99999e-01,1.13552e-09,8.58697e-01,9.99999e-01
1.337355710e+00,3.53993e-09,9.99999e-01,4.11006e-09,8.61285e-01,9.99999e-01
1.344042489e+00,1.41030e-09,9.99999e-01,1.63261e-09,8.63829e-01,9.99999e-01
1.350762701e+00,5.23221e-10,9.99999e-01,6.03950e-10,8.66331e-01,9.99999e-01
1.357516515e+00,1.75189e-06,9.99999e-01,2.01647e-06,8.68789e-01,9.99999e-01
1.364304097e+00,1.10814e-04,9.99999e-01,1.27196e-04,8.71207e-01,9.99999e-01
1.371125618e+00,8.63597e-03,9.99999e-01,9.88569e-03,8.73582e-01,9.99999e-01
1.377981246e+00,1.78411e-02,9.99999e-01,2.03685e-02,8.75918e-01,9.99999e-01
1.384871152e+00,9.10577e-02,9.99999e-01,1.03685e-01,8.78213e-01,9.99999e-01
1.391795508e+00,1.08159e-01,9.99999e-01,1.22843e-01,8.80468e-01,9.99999e-01
1.398754485e+00,2.39734e-01,9.99999e-01,2.71596e-01,8.82685e-01,9.99999e-01
1.405748258e+00,3.40023e-01,9.99999e-01,3.84265e-01,8.84863e-01,9.99999e-01
1.412776999e+00,4.83573e-01,9.99999e-01,5.45175e-01,8.87004e-01,9.99999e-01
1.419840884e+00,4.40417e-01,9.99999e-01,4.95347e-01,8.89107e-01,9.99999e-01
1.426940089e+00,2.61324e-02,9.99999e-01,2.93235e-02,8.91174e-01,9.99999e-01
1.434074789e+00,0.00000e+00,9.99999e-01,0.00000e+00,8.93204e-01,9.99999e-01
1.441245163e+00,0.00000e+00,9.99999e-01,0.00000e+00,8.95199e-01,9.99999e-01
1.448451389e+00,0.00000e+00,9.99999e-01,0.00000e+00,8.97159e-01,9.99999e-01
1.455693646e+00,0.00000e+00,9.99999e-01,0.00000e+00,8.99084e-01,9.99999e-01
1.462972114e+00,1.79300e-279,9.99999e-01,1.99006e-279,9.00975e-01,9.99999e-01
1.470286975e+00,2.54707e-116,9.99999e-01,2.82120e-116,9.02833e-01,9.99999e-01
