#,Wave/freq,Total,N2,CO2,Rayleigh,CIA
4.000000000e-01,9.33412e-13,9.99999e-01,9.99999e-01,9.33412e-13,9.99999e-01
4.020000000e-01,1.61415e-12,9.99999e-01,9.99999e-01,1.61415e-12,9.99999e-01
4.040100000e-01,2.75973e-12,9.99999e-01,9.99999e-01,2.75973e-12,9.99999e-01
4.060300500e-01,4.66861e-12,9.99999e-01,9.99999e-01,4.66861e-12,9.99999e-01
4.080602003e-01,7.81626e-12,9.99999e-01,9.99999e-01,7.81626e-12,9.99999e-01
4.101005013e-01,1.29536e-11,9.99999e-01,9.99999e-01,1.29536e-11,9.99999e-01
4.121510038e-01,2.12543e-11,9.99999e-01,9.99999e-01,2.12543e-11,9.99999e-01
4.142117588e-01,3.45348e-11,9.99999e-01,9.99999e-01,3.45348e-11,9.99999e-01
4.162828176e-01,5.55779e-11,9.99999e-01,9.99999e-01,5.55779e-11,9.99999e-01
4.183642317e-01,8.86065e-11,9.99999e-01,9.99999e-01,8.86065e-11,9.99999e-01
4.204560528e-01,1.39968e-10,9.99999e-01,9.99999e-01,1.39968e-10,9.99999e-01
4.225583331e-01,2.19113e-10,9.99999e-01,9.99999e-01,2.19113e-10,9.99999e-01
4.246711247e-01,3.39988e-10,9.99999e-01,9.99999e-01,3.39988e-10,9.99999e-01
4.267944804e-01,5.22987e-10,9.99999e-01,9.99999e-01,5.22987e-10,9.99999e-01
4.289284528e-01,7.97671e-10,9.99999e-01,9.99999e-01,7.97671e-10,9.99999e-01
4.310730950e-01,1.20652e-09,9.99999e-01,9.99999e-01,1.20652e-09,9.99999e-01
4.332284605e-01,1.81008e-09,9.99999e-01,9.99999e-01,1.81008e-09,9.99999e-01
4.353946028e-01,2.69389e-09,9.99999e-01,9.99999e-01,2.69389e-09,9.99999e-01
4.375715758e-01,3.97787e-09,9.99999e-01,9.99999e-01,3.97787e-09,9.99999e-01
4.397594337e-01,5.82879e-09,9.99999e-01,9.99999e-01,5.82879e-09,9.99999e-01
4.419582309e-01,8.47673e-09,9.99999e-01,9.99999e-01,8.47673e-09,9.99999e-01
4.441680220e-01,1.22367e-08,9.99999e-01,9.99999e-01,1.22367e-08,9.99999e-01
4.463888621e-01,1.75370e-08,9.99999e-01,9.99999e-01,1.75370e-08,9.99999e-01
4.486208064e-01,2.49549e-08,9.99999e-01,9.99999e-01,2.49549e-08,9.99999e-01
4.508639105e-01,3.52639e-08,9.99999e-01,9.99999e-01,3.52639e-08,9.99999e-01
4.531182300e-01,4.94925e-08,9.99999e-01,9.99999e-01,4.94925e-08,9.99999e-01
4.553838212e-01,6.89985e-08,9.99999e-01,9.99999e-01,6.89985e-08,9.99999e-01
4.576607403e-01,9.55632e-08,9.99999e-01,9.99999e-01,9.55632e-08,9.99999e-01
4.599490440e-01,1.31507e-07,9.99999e-01,9.99999e-01,1.31507e-07,9.99999e-01
4.622487892e-01,1.79831e-07,9.99999e-01,9.99999e-01,1.79831e-07,9.99999e-01
4.645600332e-01,2.44398e-07,9.99999e-01,9.99999e-01,2.44398e-07,9.99999e-01
4.668828333e-01,3.30141e-07,9.99999e-01,9.99999e-01,3.30141e-07,9.99999e-01
4.692172475e-01,4.43324e-07,9.99999e-01,9.99999e-01,4.43324e-07,9.99999e-01
4.715633337e-01,5.91854e-07,9.99999e-01,9.99999e-01,5.91854e-07,9.99999e-01
4.739211504e-01,7.85649e-07,9.99999e-01,9.99999e-01,7.85649e-07,9.99999e-01
4.762907561e-01,1.03708e-06,9.99999e-01,9.99999e-01,1.03708e-06,9.99999e-01
4.786722099e-01,1.36149e-06,9.99999e-01,9.99999e-01,1.36149e-06,9.99999e-01
4.810655710e-01,1.77780e-06,9.99999e-01,9.99999e-01,1.77780e-06,9.99999e-01
4.834708988e-01,2.30920e-06,9.99999e-01,9.99999e-01,2.30920e-06,9.99999e-01
4.858882533e-01,2.98399e-06,9.99999e-01,9.99999e-01,2.98399e-06,9.99999e-01
4.883176946e-01,3.83649e-06,9.99999e-01,9.99999e-01,3.83649e-06,9.99999e-01
4.907592831e-01,4.90812e-06,9.99999e-01,9.99999e-01,4.90812e-06,9.99999e-01
4.932130795e-01,6.24860e-06,9.99999e-01,9.99999e-01,6.24860e-06,9.99999e-01
4.956791449e-01,7.91733e-06,9.99999e-01,9.99999e-01,7.91733e-06,9.99999e-01
4.981575406e-01,9.98492e-06,9.99999e-01,9.99999e-01,9.98492e-06,9.99999e-01
5.006483283e-01,1.25349e-05,9.99999e-01,9.99999e-01,1.25349e-05,9.99999e-01
5.031515699e-01,1.56655e-05,9.99999e-01,9.99999e-01,1.56655e-05,9.99999e-01
5.056673278e-01,1.94920e-05,9.99999e-01,9.99999e-01,1.94920e-05,9.99999e-01
5.081956644e-01,2.41486e-05,9.99999e-01,9.99999e-01,2.41486e-05,9.99999e-01
5.107366428e-01,2.97915e-05,9.99999e-01,9.99999e-01,2.97915e-05,9.99999e-01
5.132903260e-01,3.66007e-05,9.99999e-01,9.99999e-01,3.66007e-05,9.99999e-01
5.158567776e-01,4.47839e-05,9.99999e-01,9.99999e-01,4.47839e-05,9.99999e-01
5.184360615e-01,5.45787e-05,9.99999e-01,9.99999e-01,5.45787e-05,9.99999e-01
5.210282418e-01,6.62563e-05,9.99999e-01,9.99999e-01,6.62563e-05,9.99999e-01
5.236333830e-01,8.01251e-05,9.99999e-01,9.99999e-01,8.01251e-05,9.99999e-01
5.262515499e-01,9.65338e-05,9.99999e-01,9.99999e-01,9.65338e-05,9.99999e-01
5.288828077e-01,1.15876e-04,9.99999e-01,9.99999e-01,1.15876e-04,9.99999e-01
5.315272217e-01,1.38592e-04,9.99999e-01,9.99999e-01,1.38592e-04,9.99999e-01
5.341848578e-01,1.65176e-04,9.99999e-01,9.99999e-01,1.65176e-04,9.99999e-01
5.368557821e-01,1.96179e-04,9.99999e-01,9.99999e-01,1.96179e-04,9.99999e-01
5.395400610e-01,2.32211e-04,9.99999e-01,9.99999e-01,2.32211e-04,9.99999e-01
5.422377613e-01,2.73946e-04,9.99999e-01,9.99999e-01,2.73946e-04,9.99999e-01
5.449489501e-01,3.22129e-04,9.99999e-01,9.99999e-01,3.22129e-04,9.99999e-01
5.476736949e-01,3.77577e-04,9.99999e-01,9.99999e-01,3.77577e-04,9.99999e-01
5.504120634e-01,4.41182e-04,9.99999e-01,9.99999e-01,4.41182e-04,9.99999e-01
5.531641237e-01,5.13919e-04,9.99999e-01,9.99999e-01,5.13919e-04,9.99999e-01
5.559299443e-01,5.96847e-04,9.99999e-01,9.99999e-01,5.96847e-04,9.99999e-01
5.587095940e-01,6.91110e-04,9.99999e-01,9.99999e-01,6.91110e-04,9.99999e-01
5.615031420e-01,7.97947e-04,9.99999e-01,9.99999e-01,7.97947e-04,9.99999e-01
5.643106577e-01,9.18688e-04,9.99999e-01,9.99999e-01,9.18688e-04,9.99999e-01
5.671322110e-01,1.05476e-03,9.99999e-01,9.99999e-01,1.05476e-03,9.99999e-01
5.699678720e-01,1.20768e-03,9.99999e-01,9.99999e-01,1.20768e-03,9.99999e-01
5.728177114e-01,1.37909e-03,9.99999e-01,9.99999e-01,1.37909e-03,9.99999e-01
5.756818000e-01,1.57069e-03,9.99999e-01,9.99999e-01,1.57069e-03,9.99999e-01
5.785602090e-01,1.78433e-03,9.99999e-01,9.99999e-01,1.78433e-03,9.99999e-01
5.814530100e-01,2.02193e-03,9.99999e-01,9.99999e-01,2.02193e-03,9.99999e-01
5.843602750e-01,2.28551e-03,9.99999e-01,9.99999e-01,2.28551e-03,9.99999e-01
5.872820764e-01,2.57721e-03,9.99999e-01,9.99999e-01,2.57721e-03,9.99999e-01
5.902184868e-01,2.89926e-03,9.99999e-01,9.99999e-01,2.89926e-03,9.99999e-01
5.931695792e-01,3.25396e-03,9.99999e-01,9.99999e-01,3.25396e-03,9.99999e-01
5.961354271e-01,3.64375e-03,9.99999e-01,9.99999e-01,3.64375e-03,9.99999e-01
5.991161043e-01,4.07112e-03,9.99999e-01,9.99999e-01,4.07112e-03,9.99999e-01
6.021116848e-01,4.53867e-03,9.99999e-01,9.99999e-01,4.53867e-03,9.99999e-01
6.051222432e-01,5.04905e-03,9.99999e-01,9.99999e-01,5.04905e-03,9.99999e-01
6.081478544e-01,5.60502e-03,9.99999e-01,9.99999e-01,5.60502e-03,9.99999e-01
6.111885937e-01,6.20938e-03,9.99999e-01,9.99999e-01,6.20938e-03,9.99999e-01
6.142445367e-01,6.86501e-03,9.99999e-01,9.99999e-01,6.86501e-03,9.99999e-01
6.173157594e-01,7.57482e-03,9.99999e-01,9.99999e-01,7.57482e-03,9.99999e-01
6.204023382e-01,8.34181e-03,9.99999e-01,9.99999e-01,8.34181e-03,9.99999e-01
6.235043498e-01,9.16897e-03,9.99999e-01,9.99999e-01,9.16897e-03,9.99999e-01
6.266218716e-01,1.00593e-02,9.99999e-01,9.99999e-01,1.00593e-02,9.99999e-01
6.297549810e-01,1.10160e-02,9.99999e-01,9.99999e-01,1.10160e-02,9.99999e-01
6.329037559e-01,1.20420e-02,9.99999e-01,9.99999e-01,1.20420e-02,9.99999e-01
6.360682746e-01,1.31404e-02,9.99999e-01,9.99999e-01,1.31404e-02,9.99999e-01
6.392486160e-01,1.43144e-02,9.99999e-01,9.99999e-01,1.43144e-02,9.99999e-01
6.424448591e-01,1.55668e-02,9.99999e-01,9.99999e-01,1.55668e-02,9.99999e-01
6.456570834e-01,1.69008e-02,9.99999e-01,9.99999e-01,1.69008e-02,9.99999e-01
6.488853688e-01,1.83194e-02,9.99999e-01,9.99999e-01,1.83194e-02,9.99999e-01
6.521297956e-01,1.98255e-02,9.99999e-01,9.99999e-01,1.98255e-02,9.99999e-01
6.553904446e-01,2.14219e-02,9.99999e-01,9.99999e-01,2.14219e-02,9.99999e-01
6.586673968e-01,2.31114e-02,9.99999e-01,9.99999e-01,2.31114e-02,9.99999e-01
6.619607338e-01,2.48969e-02,9.99999e-01,9.99999e-01,2.48969e-02,9.99999e-01
6.652705375e-01,2.67809e-02,9.99999e-01,9.99999e-01,2.67809e-02,9.99999e-01
6.685968902e-01,2.87660e-02,9.99999e-01,9.99999e-01,2.87660e-02,9.99999e-01
6.719398746e-01,3.08547e-02,9.99999e-01,9.99999e-01,3.08547e-02,9.99999e-01
6.752995740e-01,3.30492e-02,9.99999e-01,9.99999e-01,3.30492e-02,9.99999e-01
6.786760719e-01,3.53517e-02,9.99999e-01,9.99999e-01,3.53517e-02,9.99999e-01
6.820694522e-01,3.77645e-02,9.99999e-01,9.99999e-01,3.77645e-02,9.99999e-01
6.854797995e-01,4.02893e-02,9.99999e-01,9.99999e-01,4.02893e-02,9.99999e-01
6.889071985e-01,4.29280e-02,9.99999e-01,9.99999e-01,4.29280e-02,9.99999e-01
6.923517345e-01,4.56822e-02,9.99999e-01,9.99999e-01,4.56822e-02,9.99999e-01
6.958134932e-01,4.85535e-02,9.99999e-01,9.99999e-01,4.85535e-02,9.99999e-01
6.992925606e-01,5.15431e-02,9.99999e-01,9.99999e-01,5.15431e-02,9.99999e-01
7.027890234e-01,5.46523e-02,9.99999e-01,9.99999e-01,5.46523e-02,9.99999e-01
7.063029686e-01,5.78821e-02,9.99999e-01,9.99999e-01,5.78821e-02,9.99999e-01
7.098344834e-01,6.12332e-02,9.99999e-01,9.99999e-01,6.12332e-02,9.99999e-01
7.133836558e-01,6.47063e-02,9.99999e-01,9.99999e-01,6.47063e-02,9.99999e-01
7.169505741e-01,6.83020e-02,9.99999e-01,9.99999e-01,6.83020e-02,9.99999e-01
7.205353270e-01,7.20205e-02,9.99999e-01,9.99999e-01,7.20205e-02,9.99999e-01
7.241380036e-01,7.58620e-02,9.99999e-01,9.99999e-01,7.58620e-02,9.99999e-01
7.277586936e-01,7.98264e-02,9.99999e-01,9.99999e-01,7.98264e-02,9.99999e-01
7.313974871e-01,8.39135e-02,9.99999e-01,9.99999e-01,8.39135e-02,9.99999e-01
7.350544745e-01,8.81229e-02,9.99999e-01,9.99999e-01,8.81229e-02,9.99999e-01
7.387297469e-01,9.24541e-02,9.99999e-01,9.99999e-01,9.24541e-02,9.99999e-01
7.424233956e-01,9.69062e-02,9.99999e-01,9.99999e-01,9.69062e-02,9.99999e-01
7.461355126e-01,1.01478e-01,9.99999e-01,9.99999e-01,1.01478e-01,9.99999e-01
7.498661902e-01,1.06170e-01,9.99999e-01,9.99999e-01,1.06170e-01,9.99999e-01
7.536155211e-01,1.10979e-01,9.99999e-01,9.99999e-01,1.10979e-01,9.99999e-01
7.573835987e-01,1.15904e-01,9.99999e-01,9.99999e-01,1.15904e-01,9.99999e-01
7.611705167e-01,1.20944e-01,9.99999e-01,9.99999e-01,1.20944e-01,9.99999e-01
7.649763693e-01,1.26097e-01,9.99999e-01,9.99999e-01,1.26097e-01,9.99999e-01
7.688012511e-01,1.31362e-01,9.99999e-01,9.99999e-01,1.31362e-01,9.99999e-01
7.726452574e-01,1.36736e-01,9.99999e-01,9.99999e-01,1.36736e-01,9.99999e-01
7.765084837e-01,1.42216e-01,9.99999e-01,9.99999e-01,1.42216e-01,9.99999e-01
7.803910261e-01,1.36946e-01,9.99999e-01,9.26545e-01,1.47802e-01,9.99999e-01
7.842929812e-01,1.04826e-01,9.99999e-01,6.82945e-01,1.53491e-01,9.99999e-01
7.882144461e-01,1.06587e-01,9.99999e-01,6.69182e-01,1.59279e-01,9.99999e-01
7.921555184e-01,1.29369e-01,9.99999e-01,7.83272e-01,1.65165e-01,9.99999e-01
7.961162960e-01,1.44971e-01,9.99999e-01,8.47060e-01,1.71146e-01,9.99999e-01
8.000968774e-01,1.61969e-01,9.99999e-01,9.13951e-01,1.77219e-01,9.99999e-01
8.040973618e-01,1.74988e-01,9.99999e-01,9.54236e-01,1.83380e-01,9.99999e-01
8.081178486e-01,1.85606e-01,9.99999e-01,9.78788e-01,1.89628e-01,9.99999e-01
8.121584379e-01,1.94657e-01,9.99999e-01,9.93353e-01,1.95960e-01,9.99999e-01
8.162192301e-01,2.02073e-01,9.99999e-01,9.98528e-01,2.02371e-01,9.99999e-01
8.203003262e-01,2.08854e-01,9.99999e-01,9.99975e-01,2.08859e-01,9.99999e-01
8.244018279e-01,2.15421e-01,9.99999e-01,9.99999e-01,2.15421e-01,9.99999e-01
8.285238370e-01,2.22053e-01,9.99999e-01,9.99999e-01,2.22053e-01,9.99999e-01
8.326664562e-01,2.28753e-01,9.99999e-01,9.99999e-01,2.28753e-01,9.99999e-01
8.368297885e-01,2.35516e-01,9.99999e-01,9.99999e-01,2.35516e-01,9.99999e-01
8.410139374e-01,2.42340e-01,9.99999e-01,9.99999e-01,2.42340e-01,9.99999e-01
8.452190071e-01,2.49220e-01,9.99999e-01,9.99999e-01,2.49220e-01,9.99999e-01
8.494451021e-01,2.56155e-01,9.99999e-01,9.99999e-01,2.56155e-01,9.99999e-01
8.536923276e-01,2.63140e-01,9.99999e-01,9.99999e-01,2.63140e-01,9.99999e-01
8.579607893e-01,2.70171e-01,9.99999e-01,9.99999e-01,2.70171e-01,9.99999e-01
8.622505932e-01,2.77246e-01,9.99999e-01,9.99999e-01,2.77246e-01,9.99999e-01
8.665618462e-01,2.50674e-01,9.99999e-01,8.81532e-01,2.84361e-01,9.99999e-01
8.708946554e-01,1.14111e-01,9.99999e-01,3.91445e-01,2.91513e-01,9.99999e-01
8.752491287e-01,1.37016e-01,9.99999e-01,4.58711e-01,2.98698e-01,9.99999e-01
8.796253743e-01,1.97436e-01,9.99999e-01,6.45400e-01,3.05913e-01,9.99999e-01
8.840235012e-01,2.48737e-01,9.99999e-01,7.94294e-01,3.13154e-01,9.99999e-01
8.884436187e-01,2.92384e-01,9.99999e-01,9.12504e-01,3.20419e-01,9.99999e-01
8.928858368e-01,3.15777e-01,9.99999e-01,9.63603e-01,3.27704e-01,9.99999e-01
8.973502660e-01,3.31985e-01,9.99999e-01,9.90984e-01,3.35005e-01,9.99999e-01
9.018370173e-01,3.41979e-01,9.99999e-01,9.99000e-01,3.42321e-01,9.99999e-01
9.063462024e-01,3.41155e-01,9.99999e-01,9.75712e-01,3.49647e-01,9.99999e-01
9.108779334e-01,3.36755e-01,9.99999e-01,9.43344e-01,3.56980e-01,9.99999e-01
9.154323231e-01,3.59322e-01,9.99999e-01,9.86287e-01,3.64318e-01,9.99999e-01
9.200094847e-01,3.11453e-01,9.99999e-01,8.38011e-01,3.71657e-01,9.99999e-01
9.246095321e-01,2.85350e-01,9.99999e-01,7.52911e-01,3.78994e-01,9.99999e-01
9.292325798e-01,3.10816e-01,9.99999e-01,8.04538e-01,3.86328e-01,9.99999e-01
9.338787427e-01,3.17863e-01,9.99999e-01,8.07467e-01,3.93654e-01,9.99999e-01
9.385481364e-01,3.42312e-01,9.99999e-01,8.53710e-01,4.00970e-01,9.99999e-01
9.432408771e-01,3.70336e-01,9.99999e-01,9.07076e-01,4.08274e-01,9.99999e-01
9.479570815e-01,3.95316e-01,9.99999e-01,9.51279e-01,4.15562e-01,9.99999e-01
9.526968669e-01,4.12764e-01,9.99999e-01,9.76186e-01,4.22833e-01,9.99999e-01
9.574603512e-01,4.25669e-01,9.99999e-01,9.89734e-01,4.30084e-01,9.99999e-01
9.622476530e-01,4.35906e-01,9.99999e-01,9.96783e-01,4.37312e-01,9.99999e-01
9.670588912e-01,4.44086e-01,9.99999e-01,9.99033e-01,4.44515e-01,9.99999e-01
9.718941857e-01,4.51660e-01,9.99999e-01,9.99930e-01,4.51691e-01,9.99999e-01
9.767536566e-01,4.58838e-01,9.99999e-01,9.99999e-01,4.58838e-01,9.99999e-01
9.816374249e-01,4.65953e-01,9.99999e-01,9.99999e-01,4.65953e-01,9.99999e-01
9.865456120e-01,4.73035e-01,9.99999e-01,9.99999e-01,4.73035e-01,9.99999e-01
9.914783401e-01,4.80082e-01,9.99999e-01,9.99999e-01,4.80082e-01,9.99999e-01
9.964357318e-01,4.87091e-01,9.99999e-01,9.99999e-01,4.87091e-01,9.99999e-01
1.001417910e+00,4.94061e-01,9.99999e-01,9.99999e-01,4.94061e-01,9.99999e-01
1.006425000e+00,5.00990e-01,9.99999e-01,9.99999e-01,5.00990e-01,9.99999e-01
1.011457125e+00,5.07877e-01,9.99999e-01,9.99999e-01,5.07877e-01,9.99999e-01
1.016514411e+00,5.14719e-01,9.99999e-01,9.99999e-01,5.14719e-01,9.99999e-01
1.021596983e+00,5.21452e-01,9.99999e-01,9.99878e-01,5.21516e-01,9.99999e-01
1.026704968e+00,5.23191e-01,9.99999e-01,9.90394e-01,5.28265e-01,9.99999e-01
1.031838492e+00,4.91719e-01,9.99999e-01,9.19159e-01,5.34966e-01,9.99999e-01
1.036997685e+00,3.39222e-02,9.99999e-01,6.26312e-02,5.41617e-01,9.99999e-01
1.042182673e+00,3.94013e-03,9.99999e-01,7.18716e-03,5.48217e-01,9.99999e-01
1.047393587e+00,9.25328e-03,9.99999e-01,1.66796e-02,5.54765e-01,9.99999e-01
1.052630555e+00,3.53138e-06,9.99999e-01,6.29187e-06,5.61259e-01,9.99999e-01
1.057893707e+00,1.28525e-05,9.99999e-01,2.26395e-05,5.67699e-01,9.99999e-01
1.063183176e+00,2.02541e-04,9.99999e-01,3.52807e-04,5.74083e-01,9.99999e-01
1.068499092e+00,1.59850e-03,9.99999e-01,2.75407e-03,5.80411e-01,9.99999e-01
1.073841587e+00,1.33111e-02,9.99999e-01,2.26887e-02,5.86682e-01,9.99999e-01
1.079210795e+00,5.46407e-02,9.99999e-01,9.21592e-02,5.92894e-01,9.99999e-01
1.084606849e+00,1.55720e-01,9.99999e-01,2.59946e-01,5.99048e-01,9.99999e-01
1.090029883e+00,2.99240e-01,9.99999e-01,4.94495e-01,6.05142e-01,9.99999e-01
1.095480033e+00,4.31339e-01,9.99999e-01,7.05753e-01,6.11176e-01,9.99999e-01
1.100957433e+00,5.21398e-01,9.99999e-01,8.44849e-01,6.17149e-01,9.99999e-01
1.106462220e+00,5.81007e-01,9.99999e-01,9.32505e-01,6.23060e-01,9.99999e-01
1.111994531e+00,6.12815e-01,9.99999e-01,9.74407e-01,6.28910e-01,9.99999e-01
1.117554504e+00,6.30678e-01,9.99999e-01,9.93666e-01,6.34698e-01,9.99999e-01
1.123142276e+00,6.40154e-01,9.99999e-01,9.99580e-01,6.40423e-01,9.99999e-01
1.128757988e+00,6.46085e-01,9.99999e-01,9.99999e-01,6.46085e-01,9.99999e-01
1.134401778e+00,6.51684e-01,9.99999e-01,9.99999e-01,6.51684e-01,9.99999e-01
1.140073787e+00,6.57219e-01,9.99999e-01,9.99999e-01,6.57219e-01,9.99999e-01
1.145774156e+00,6.62690e-01,9.99999e-01,9.99999e-01,6.62690e-01,9.99999e-01
1.151503026e+00,6.68098e-01,9.99999e-01,9.99999e-01,6.68098e-01,9.99999e-01
1.157260541e+00,6.73442e-01,9.99999e-01,9.99999e-01,6.73442e-01,9.99999e-01
1.163046844e+00,6.78721e-01,9.99999e-01,9.99999e-01,6.78721e-01,9.99999e-01
1.168862078e+00,6.83937e-01,9.99999e-01,9.99999e-01,6.83937e-01,9.99999e-01
1.174706389e+00,6.89088e-01,9.99999e-01,9.99999e-01,6.89088e-01,9.99999e-01
1.180579921e+00,6.94176e-01,9.99999e-01,9.99999e-01,6.94176e-01,9.99999e-01
1.186482820e+00,6.99190e-01,9.99999e-01,9.99986e-01,6.99199e-01,9.99999e-01
1.192415234e+00,6.81016e-01,9.99999e-01,9.67135e-01,7.04158e-01,9.99999e-01
1.198377311e+00,3.74605e-01,9.99999e-01,5.28316e-01,7.09054e-01,9.99999e-01
1.204369197e+00,7.46793e-26,9.99999e-01,1.04609e-25,7.13885e-01,9.99999e-01
1.210391043e+00,1.18186e-103,9.99999e-01,1.64454e-103,7.18654e-01,9.99999e-01
1.216442998e+00,9.65713e-90,9.99999e-01,1.33504e-89,7.23359e-01,9.99999e-01
1.222525213e+00,2.12215e-88,9.99999e-01,2.91503e-88,7.28001e-01,9.99999e-01
1.228637839e+00,2.97486e-68,9.99999e-01,4.06079e-68,7.32580e-01,9.99999e-01
1.234781029e+00,1.33975e-42,9.99999e-01,1.81760e-42,7.37097e-01,9.99999e-01
1.240954934e+00,2.43462e-28,9.99999e-01,3.28314e-28,7.41551e-01,9.99999e-01
1.247159708e+00,7.62543e-14,9.99999e-01,1.02225e-13,7.45944e-01,9.99999e-01
1.253395507e+00,2.14930e-09,9.99999e-01,2.86468e-09,7.50275e-01,9.99999e-01
1.259662485e+00,5.48667e-06,9.99999e-01,7.27148e-06,7.54545e-01,9.99999e-01
1.265960797e+00,1.48624e-03,9.99999e-01,1.95879e-03,7.58755e-01,9.99999e-01
1.272290601e+00,3.54260e-02,9.99999e-01,4.64358e-02,7.62904e-01,9.99999e-01
1.278652054e+00,3.95850e-02,9.99999e-01,5.16106e-02,7.66993e-01,9.99999e-01
1.285045314e+00,9.44391e-05,9.99999e-01,1.22485e-04,7.71022e-01,9.99999e-01
1.291470541e+00,1.99140e-12,9.99999e-01,2.56958e-12,7.74993e-01,9.99999e-01
1.297927893e+00,1.34867e-05,9.99999e-01,1.73150e-05,7.78904e-01,9.99999e-01
1.304417533e+00,4.04747e-03,9.99999e-01,5.17078e-03,7.82758e-01,9.99999e-01
1.310939621e+00,1.04367e-03,9.99999e-01,1.32688e-03,7.86554e-01,9.99999e-01
1.317494319e+00,1.92361e-35,9.99999e-01,2.43405e-35,7.90293e-01,9.99999e-01
1.324081790e+00,2.25308e-23,9.99999e-01,2.83772e-23,7.93976e-01,9.99999e-01
1.330702199e+00,6.68265e-14,9.99999e-01,8.37841e-14,7.97602e-01,9.99999e-01
1.337355710e+00,7.93605e-13,9.99999e-01,9.90553e-13,8.01173e-01,9.99999e-01
1.344042489e+00,3.92445e-13,9.99999e-01,4.87698e-13,8.04689e-01,9.99999e-01
1.350762701e+00,3.36387e-14,9.99999e-01,4.16243e-14,8.08150e-01,9.99999e-01
1.357516515e+00,7.82136e-09,9.99999e-01,9.63746e-09,8.11557e-01,9.99999e-01
1.364304097e+00,1.78974e-06,9.99999e-01,2.19624e-06,8.14911e-01,9.99999e-01
1.371125618e+00,1.05770e-03,9.99999e-01,1.29269e-03,8.18213e-01,9.99999e-01
1.377981246e+00,2.70345e-03,9.99999e-01,3.29103e-03,8.21462e-01,9.99999e-01
1.384871152e+00,2.94688e-02,9.99999e-01,3.57345e-02,8.24659e-01,9.99999e-01
1.391795508e+00,3.81338e-02,9.99999e-01,4.60661e-02,8.27805e-01,9.99999e-01
1.398754485e+00,1.20536e-01,9.99999e-01,1.45067e-01,8.30901e-01,9.99999e-01
1.405748258e+00,2.03595e-01,9.99999e-01,2.44134e-01,8.33947e-01,9.99999e-01
1.412776999e+00,3.41176e-01,9.99999e-01,4.07645e-01,8.36943e-01,9.99999e-01
1.419840884e+00,3.19254e-01,9.99999e-01,3.80113e-01,8.39891e-01,9.99999e-01
1.426940089e+00,1.33676e-02,9.99999e-01,1.58611e-02,8.42791e-01,9.99999e-01
1.434074789e+00,0.00000e+00,9.99999e-01,0.00000e+00,8.45643e-01,9.99999e-01
1.441245163e+00,0.00000e+00,9.99999e-01,0.00000e+00,8.48448e-01,9.99999e-01
1.448451389e+00,0.00000e+00,9.99998e-01,0.00000e+00,8.51207e-01,9.99999e-01
1.455693646e+00,0.00000e+00,9.99999e-01,0.00000e+00,8.53920e-01,9.99999e-01
1.462972114e+00,0.00000e+00,9.99999e-01,0.00000e+00,8.56587e-01,9.99999e-01
1.470286975e+00,1.35252e-171,9.99999e-01,1.57415e-171,8.59211e-01,9.99999e-01
