#,Wave/freq,Total,N2,CO2,Rayleigh,CIA
4.000000000e-01,1.10043e-03,9.99999e-01,9.99999e-01,1.10043e-03,9.99999e-01
4.020000000e-01,1.25910e-03,9.99999e-01,9.99999e-01,1.25910e-03,9.99999e-01
4.040100000e-01,1.43662e-03,9.99999e-01,9.99999e-01,1.43662e-03,9.99999e-01
4.060300500e-01,1.63490e-03,9.99999e-01,9.99999e-01,1.63490e-03,9.99999e-01
4.080602003e-01,1.85580e-03,9.99999e-01,9.99999e-01,1.85580e-03,9.99999e-01
4.101005013e-01,2.10128e-03,9.99999e-01,9.99999e-01,2.10128e-03,9.99999e-01
4.121510038e-01,2.37341e-03,9.99999e-01,9.99999e-01,2.37341e-03,9.99999e-01
4.142117588e-01,2.67433e-03,9.99999e-01,9.99999e-01,2.67433e-03,9.99999e-01
4.162828176e-01,3.00631e-03,9.99999e-01,9.99999e-01,3.00631e-03,9.99999e-01
4.183642317e-01,3.37170e-03,9.99999e-01,9.99999e-01,3.37170e-03,9.99999e-01
4.204560528e-01,3.77294e-03,9.99999e-01,9.99999e-01,3.77294e-03,9.99999e-01
4.225583331e-01,4.21257e-03,9.99999e-01,9.99999e-01,4.21257e-03,9.99999e-01
4.246711247e-01,4.69319e-03,9.99999e-01,9.99999e-01,4.69319e-03,9.99999e-01
4.267944804e-01,5.21749e-03,9.99999e-01,9.99999e-01,5.21749e-03,9.99999e-01
4.289284528e-01,5.78826e-03,9.99999e-01,9.99999e-01,5.78826e-03,9.99999e-01
4.310730950e-01,6.40830e-03,9.99999e-01,9.99999e-01,6.40830e-03,9.99999e-01
4.332284605e-01,7.08052e-03,9.99999e-01,9.99999e-01,7.08052e-03,9.99999e-01
4.353946028e-01,7.80786e-03,9.99999e-01,9.99999e-01,7.80786e-03,9.99999e-01
4.375715758e-01,8.59329e-03,9.99999e-01,9.99999e-01,8.59329e-03,9.99999e-01
4.397594337e-01,9.43985e-03,9.99999e-01,9.99999e-01,9.43985e-03,9.99999e-01
4.419582309e-01,1.03506e-02,9.99999e-01,9.99999e-01,1.03506e-02,9.99999e-01
4.441680220e-01,1.13285e-02,9.99999e-01,9.99999e-01,1.13285e-02,9.99999e-01
4.463888621e-01,1.23768e-02,9.99999e-01,9.99999e-01,1.23768e-02,9.99999e-01
4.486208064e-01,1.34985e-02,9.99999e-01,9.99999e-01,1.34985e-02,9.99999e-01
4.508639105e-01,1.46966e-02,9.99999e-01,9.99999e-01,1.46966e-02,9.99999e-01
4.531182300e-01,1.59742e-02,9.99999e-01,9.99999e-01,1.59742e-02,9.99999e-01
4.553838212e-01,1.73342e-02,9.99999e-01,9.99999e-01,1.73342e-02,9.99999e-01
4.576607403e-01,1.87798e-02,9.99999e-01,9.99999e-01,1.87798e-02,9.99999e-01
4.599490440e-01,2.03137e-02,9.99999e-01,9.99999e-01,2.03137e-02,9.99999e-01
4.622487892e-01,2.19389e-02,9.99999e-01,9.99999e-01,2.19389e-02,9.99999e-01
4.645600332e-01,2.36581e-02,9.99999e-01,9.99999e-01,2.36581e-02,9.99999e-01
4.668828333e-01,2.54741e-02,9.99999e-01,9.99999e-01,2.54741e-02,9.99999e-01
4.692172475e-01,2.73893e-02,9.99999e-01,9.99999e-01,2.73893e-02,9.99999e-01
4.715633337e-01,2.94065e-02,9.99999e-01,9.99999e-01,2.94065e-02,9.99999e-01
4.739211504e-01,3.15279e-02,9.99999e-01,9.99999e-01,3.15279e-02,9.99999e-01
4.762907561e-01,3.37559e-02,9.99999e-01,9.99999e-01,3.37559e-02,9.99999e-01
4.786722099e-01,3.60926e-02,9.99999e-01,9.99999e-01,3.60926e-02,9.99999e-01
4.810655710e-01,3.85401e-02,9.99999e-01,9.99999e-01,3.85401e-02,9.99999e-01
4.834708988e-01,4.11003e-02,9.99999e-01,9.99999e-01,4.11003e-02,9.99999e-01
4.858882533e-01,4.37749e-02,9.99999e-01,9.99999e-01,4.37749e-02,9.99999e-01
4.883176946e-01,4.65655e-02,9.99999e-01,9.99999e-01,4.65655e-02,9.99999e-01
4.907592831e-01,4.94735e-02,9.99999e-01,9.99999e-01,4.94735e-02,9.99999e-01
4.932130795e-01,5.25004e-02,9.99999e-01,9.99999e-01,5.25004e-02,9.99999e-01
4.956791449e-01,5.56471e-02,9.99999e-01,9.99999e-01,5.56471e-02,9.99999e-01
4.981575406e-01,5.89146e-02,9.99999e-01,9.99999e-01,5.89146e-02,9.99999e-01
5.006483283e-01,6.23037e-02,9.99999e-01,9.99999e-01,6.23037e-02,9.99999e-01
5.031515699e-01,6.58151e-02,9.99999e-01,9.99999e-01,6.58151e-02,9.99999e-01
5.056673278e-01,6.94490e-02,9.99999e-01,9.99999e-01,6.94490e-02,9.99999e-01
5.081956644e-01,7.32059e-02,9.99999e-01,9.99999e-01,7.32059e-02,9.99999e-01
5.107366428e-01,7.70858e-02,9.99999e-01,9.99999e-01,7.70858e-02,9.99999e-01
5.132903260e-01,8.10885e-02,9.99999e-01,9.99999e-01,8.10885e-02,9.99999e-01
5.158567776e-01,8.52138e-02,9.99999e-01,9.99999e-01,8.52138e-02,9.99999e-01
5.184360615e-01,8.94613e-02,9.99999e-01,9.99999e-01,8.94613e-02,9.99999e-01
5.210282418e-01,9.38303e-02,9.99999e-01,9.99999e-01,9.38303e-02,9.99999e-01
5.236333830e-01,9.83199e-02,9.99999e-01,9.99999e-01,9.83199e-02,9.99999e-01
5.262515499e-01,1.02929e-01,9.99999e-01,9.99999e-01,1.02929e-01,9.99999e-01
5.288828077e-01,1.07657e-01,9.99999e-01,9.99999e-01,1.07657e-01,9.99999e-01
5.315272217e-01,1.12503e-01,9.99999e-01,9.99999e-01,1.12503e-01,9.99999e-01
5.341848578e-01,1.17464e-01,9.99999e-01,9.99999e-01,1.17464e-01,9.99999e-01
5.368557821e-01,1.22540e-01,9.99999e-01,9.99999e-01,1.22540e-01,9.99999e-01
5.395400610e-01,1.27728e-01,9.99999e-01,9.99999e-01,1.27728e-01,9.99999e-01
5.422377613e-01,1.33027e-01,9.99999e-01,9.99999e-01,1.33027e-01,9.99999e-01
5.449489501e-01,1.38434e-01,9.99999e-01,9.99999e-01,1.38434e-01,9.99999e-01
5.476736949e-01,1.43948e-01,9.99999e-01,9.99999e-01,1.43948e-01,9.99999e-01
5.504120634e-01,1.49566e-01,9.99999e-01,9.99999e-01,1.49566e-01,9.99999e-01
5.531641237e-01,1.55286e-01,9.99999e-01,9.99999e-01,1.55286e-01,9.99999e-01
5.559299443e-01,1.61105e-01,9.99999e-01,9.99999e-01,1.61105e-01,9.99999e-01
5.587095940e-01,1.67021e-01,9.99999e-01,9.99999e-01,1.67021e-01,9.99999e-01
5.615031420e-01,1.73031e-01,9.99999e-01,9.99999e-01,1.73031e-01,9.99999e-01
5.643106577e-01,1.79132e-01,9.99999e-01,9.99999e-01,1.79132e-01,9.99999e-01
5.671322110e-01,1.85321e-01,9.99999e-01,9.99999e-01,1.85321e-01,9.99999e-01
5.699678720e-01,1.91595e-01,9.99999e-01,9.99999e-01,1.91595e-01,9.99999e-01
5.728177114e-01,1.97952e-01,9.99999e-01,9.99999e-01,1.97952e-01,9.99999e-01
5.756818000e-01,2.04387e-01,9.99999e-01,9.99999e-01,2.04387e-01,9.99999e-01
5.785602090e-01,2.10899e-01,9.99999e-01,9.99999e-01,2.10899e-01,9.99999e-01
5.814530100e-01,2.17483e-01,9.99999e-01,9.99999e-01,2.17483e-01,9.99999e-01
5.843602750e-01,2.24137e-01,9.99999e-01,9.99999e-01,2.24137e-01,9.99999e-01
5.872820764e-01,2.30856e-01,9.99999e-01,9.99999e-01,2.30856e-01,9.99999e-01
5.902184868e-01,2.37639e-01,9.99999e-01,9.99999e-01,2.37639e-01,9.99999e-01
5.931695792e-01,2.44481e-01,9.99999e-01,9.99999e-01,2.44481e-01,9.99999e-01
5.961354271e-01,2.51378e-01,9.99999e-01,9.99999e-01,2.51378e-01,9.99999e-01
5.991161043e-01,2.58329e-01,9.99999e-01,9.99999e-01,2.58329e-01,9.99999e-01
6.021116848e-01,2.65329e-01,9.99999e-01,9.99999e-01,2.65329e-01,9.99999e-01
6.051222432e-01,2.72374e-01,9.99999e-01,9.99999e-01,2.72374e-01,9.99999e-01
6.081478544e-01,2.79462e-01,9.99999e-01,9.99999e-01,2.79462e-01,9.99999e-01
6.111885937e-01,2.86589e-01,9.99999e-01,9.99999e-01,2.86589e-01,9.99999e-01
6.142445367e-01,2.93751e-01,9.99999e-01,9.99999e-01,2.93751e-01,9.99999e-01
6.173157594e-01,3.00946e-01,9.99999e-01,9.99999e-01,3.00946e-01,9.99999e-01
6.204023382e-01,3.08169e-01,9.99999e-01,9.99999e-01,3.08169e-01,9.99999e-01
6.235043498e-01,3.15418e-01,9.99999e-01,9.99999e-01,3.15418e-01,9.99999e-01
6.266218716e-01,3.22690e-01,9.99999e-01,9.99999e-01,3.22690e-01,9.99999e-01
6.297549810e-01,3.29980e-01,9.99999e-01,9.99999e-01,3.29980e-01,9.99999e-01
6.329037559e-01,3.37287e-01,9.99999e-01,9.99999e-01,3.37287e-01,9.99999e-01
6.360682746e-01,3.44606e-01,9.99999e-01,9.99999e-01,3.44606e-01,9.99999e-01
6.392486160e-01,3.51934e-01,9.99999e-01,9.99999e-01,3.51934e-01,9.99999e-01
6.424448591e-01,3.59269e-01,9.99999e-01,9.99999e-01,3.59269e-01,9.99999e-01
6.456570834e-01,3.66608e-01,9.99999e-01,9.99999e-01,3.66608e-01,9.99999e-01
6.488853688e-01,3.73946e-01,9.99999e-01,9.99999e-01,3.73946e-01,9.99999e-01
6.521297956e-01,3.81283e-01,9.99999e-01,9.99999e-01,3.81283e-01,9.99999e-01
6.553904446e-01,3.88614e-01,9.99999e-01,9.99999e-01,3.88614e-01,9.99999e-01
6.586673968e-01,3.95938e-01,9.99999e-01,9.99999e-01,3.95938e-01,9.99999e-01
6.619607338e-01,4.03250e-01,9.99999e-01,9.99999e-01,4.03250e-01,9.99999e-01
6.652705375e-01,4.10550e-01,9.99999e-01,9.99999e-01,4.10550e-01,9.99999e-01
6.685968902e-01,4.17833e-01,9.99999e-01,9.99999e-01,4.17833e-01,9.99999e-01
6.719398746e-01,4.25098e-01,9.99999e-01,9.99999e-01,4.25098e-01,9.99999e-01
6.752995740e-01,4.32342e-01,9.99999e-01,9.99999e-01,4.32342e-01,9.99999e-01
6.786760719e-01,4.39562e-01,9.99999e-01,9.99999e-01,4.39562e-01,9.99999e-01
6.820694522e-01,4.46757e-01,9.99999e-01,9.99999e-01,4.46757e-01,9.99999e-01
6.854797995e-01,4.53924e-01,9.99999e-01,9.99999e-01,4.53924e-01,9.99999e-01
6.889071985e-01,4.61062e-01,9.99999e-01,9.99999e-01,4.61062e-01,9.99999e-01
6.923517345e-01,4.68167e-01,9.99999e-01,9.99999e-01,4.68167e-01,9.99999e-01
6.958134932e-01,4.75238e-01,9.99999e-01,9.99999e-01,4.75238e-01,9.99999e-01
6.992925606e-01,4.82273e-01,9.99999e-01,9.99999e-01,4.82273e-01,9.99999e-01
7.027890234e-01,4.89270e-01,9.99999e-01,9.99999e-01,4.89270e-01,9.99999e-01
7.063029686e-01,4.96227e-01,9.99999e-01,9.99999e-01,4.96227e-01,9.99999e-01
7.098344834e-01,5.03143e-01,9.99999e-01,9.99999e-01,5.03143e-01,9.99999e-01
7.133836558e-01,5.10016e-01,9.99999e-01,9.99999e-01,5.10016e-01,9.99999e-01
7.169505741e-01,5.16845e-01,9.99999e-01,9.99999e-01,5.16845e-01,9.99999e-01
7.205353270e-01,5.23627e-01,9.99999e-01,9.99999e-01,5.23627e-01,9.99999e-01
7.241380036e-01,5.30361e-01,9.99999e-01,9.99999e-01,5.30361e-01,9.99999e-01
7.277586936e-01,5.37047e-01,9.99999e-01,9.99999e-01,5.37047e-01,9.99999e-01
7.313974871e-01,5.43682e-01,9.99999e-01,9.99999e-01,5.43682e-01,9.99999e-01
7.350544745e-01,5.50266e-01,9.99999e-01,9.99999e-01,5.50266e-01,9.99999e-01
7.387297469e-01,5.56797e-01,9.99999e-01,9.99999e-01,5.56797e-01,9.99999e-01
7.424233956e-01,5.63275e-01,9.99999e-01,9.99999e-01,5.63275e-01,9.99999e-01
7.461355126e-01,5.69697e-01,9.99999e-01,9.99999e-01,5.69697e-01,9.99999e-01
7.498661902e-01,5.76064e-01,9.99999e-01,9.99999e-01,5.76064e-01,9.99999e-01
7.536155211e-01,5.82374e-01,9.99999e-01,9.99999e-01,5.82374e-01,9.99999e-01
7.573835987e-01,5.88626e-01,9.99999e-01,9.99999e-01,5.88626e-01,9.99999e-01
7.611705167e-01,5.94821e-01,9.99999e-01,9.99999e-01,5.94821e-01,9.99999e-01
7.649763693e-01,6.00956e-01,9.99999e-01,9.99999e-01,6.00956e-01,9.99999e-01
7.688012511e-01,6.07031e-01,9.99999e-01,9.99999e-01,6.07031e-01,9.99999e-01
7.726452574e-01,6.13046e-01,9.99999e-01,9.99999e-01,6.13046e-01,9.99999e-01
7.765084837e-01,6.19000e-01,9.99999e-01,9.99999e-01,6.19000e-01,9.99999e-01
7.803910261e-01,6.11391e-01,9.99999e-01,9.78394e-01,6.24892e-01,9.99999e-01
7.842929812e-01,5.71055e-01,9.99999e-01,9.05397e-01,6.30723e-01,9.99999e-01
7.882144461e-01,5.72536e-01,9.99999e-01,8.99519e-01,6.36491e-01,9.99999e-01
7.921555184e-01,6.04163e-01,9.99999e-01,9.40775e-01,6.42196e-01,9.99999e-01
7.961162960e-01,6.21734e-01,9.99999e-01,9.59705e-01,6.47838e-01,9.99999e-01
8.000968774e-01,6.39045e-01,9.99999e-01,9.78004e-01,6.53417e-01,9.99999e-01
8.040973618e-01,6.51354e-01,9.99999e-01,9.88497e-01,6.58933e-01,9.99999e-01
8.081178486e-01,6.60884e-01,9.99999e-01,9.94730e-01,6.64384e-01,9.99999e-01
8.121584379e-01,6.68670e-01,9.99999e-01,9.98354e-01,6.69772e-01,9.99999e-01
8.162192301e-01,6.74851e-01,9.99999e-01,9.99636e-01,6.75096e-01,9.99999e-01
8.203003262e-01,6.80351e-01,9.99999e-01,9.99993e-01,6.80356e-01,9.99999e-01
8.244018279e-01,6.85551e-01,9.99999e-01,9.99999e-01,6.85551e-01,9.99999e-01
8.285238370e-01,6.90682e-01,9.99999e-01,9.99999e-01,6.90682e-01,9.99999e-01
8.326664562e-01,6.95750e-01,9.99999e-01,9.99999e-01,6.95750e-01,9.99999e-01
8.368297885e-01,7.00753e-01,9.99999e-01,9.99999e-01,7.00753e-01,9.99999e-01
8.410139374e-01,7.05692e-01,9.99999e-01,9.99999e-01,7.05692e-01,9.99999e-01
8.452190071e-01,7.10568e-01,9.99999e-01,9.99999e-01,7.10568e-01,9.99999e-01
8.494451021e-01,7.15380e-01,9.99999e-01,9.99999e-01,7.15380e-01,9.99999e-01
8.536923276e-01,7.20129e-01,9.99999e-01,9.99999e-01,7.20129e-01,9.99999e-01
8.579607893e-01,7.24814e-01,9.99999e-01,9.99999e-01,7.24814e-01,9.99999e-01
8.622505932e-01,7.29436e-01,9.99999e-01,9.99999e-01,7.29436e-01,9.99999e-01
8.665618462e-01,6.94254e-01,9.99999e-01,9.45854e-01,7.33996e-01,9.99999e-01
8.708946554e-01,5.73098e-01,9.99999e-01,7.76036e-01,7.38493e-01,9.99999e-01
8.752491287e-01,6.06206e-01,9.99999e-01,8.15968e-01,7.42929e-01,9.99999e-01
8.796253743e-01,6.68753e-01,9.99999e-01,8.94889e-01,7.47302e-01,9.99999e-01
8.840235012e-01,7.09732e-01,9.99999e-01,9.44276e-01,7.51614e-01,9.99999e-01
8.884436187e-01,7.38918e-01,9.99999e-01,9.77578e-01,7.55865e-01,9.99999e-01
8.928858368e-01,7.53135e-01,9.99999e-01,9.90893e-01,7.60056e-01,9.99999e-01
8.973502660e-01,7.62478e-01,9.99999e-01,9.97765e-01,7.64186e-01,9.99999e-01
9.018370173e-01,7.68067e-01,9.99999e-01,9.99752e-01,7.68256e-01,9.99999e-01
9.063462024e-01,7.67549e-01,9.99999e-01,9.93890e-01,7.72267e-01,9.99999e-01
9.108779334e-01,7.65110e-01,9.99999e-01,9.85687e-01,7.76219e-01,9.99999e-01
9.154323231e-01,7.77451e-01,9.99999e-01,9.96587e-01,7.80113e-01,9.99999e-01
9.200094847e-01,7.46098e-01,9.99999e-01,9.51717e-01,7.83949e-01,9.99999e-01
9.246095321e-01,7.34055e-01,9.99999e-01,9.31864e-01,7.87727e-01,9.99999e-01
9.292325798e-01,7.49215e-01,9.99999e-01,9.46637e-01,7.91448e-01,9.99999e-01
9.338787427e-01,7.53699e-01,9.99999e-01,9.47913e-01,7.95113e-01,9.99999e-01
9.385481364e-01,7.67998e-01,9.99999e-01,9.61533e-01,7.98722e-01,9.99999e-01
9.432408771e-01,7.83186e-01,9.99999e-01,9.76204e-01,8.02276e-01,9.99999e-01
9.479570815e-01,7.95918e-01,9.99999e-01,9.87767e-01,8.05774e-01,9.99999e-01
9.526968669e-01,8.04421e-01,9.99999e-01,9.94071e-01,8.09219e-01,9.99999e-01
9.574603512e-01,8.10546e-01,9.99999e-01,9.97459e-01,8.12610e-01,9.99999e-01
9.622476530e-01,8.15300e-01,9.99999e-01,9.99206e-01,8.15947e-01,9.99999e-01
9.670588912e-01,8.19037e-01,9.99999e-01,9.99761e-01,8.19232e-01,9.99999e-01
9.718941857e-01,8.22451e-01,9.99999e-01,9.99982e-01,8.22465e-01,9.99999e-01
9.767536566e-01,8.25646e-01,9.99999e-01,9.99999e-01,8.25646e-01,9.99999e-01
9.816374249e-01,8.28776e-01,9.99999e-01,9.99999e-01,8.28776e-01,9.99999e-01
9.865456120e-01,8.31857e-01,9.99999e-01,9.99999e-01,8.31857e-01,9.99999e-01
9.914783401e-01,8.34887e-01,9.99999e-01,9.99999e-01,8.34887e-01,9.99999e-01
9.964357318e-01,8.37868e-01,9.99999e-01,9.99999e-01,8.37868e-01,9.99999e-01
1.001417910e+00,8.40801e-01,9.99999e-01,9.99999e-01,8.40801e-01,9.99999e-01
1.006425000e+00,8.43686e-01,9.99999e-01,9.99999e-01,8.43686e-01,9.99999e-01
1.011457125e+00,8.46523e-01,9.99999e-01,9.99999e-01,8.46523e-01,9.99999e-01
1.016514411e+00,8.49314e-01,9.99999e-01,9.99999e-01,8.49314e-01,9.99999e-01
1.021596983e+00,8.52033e-01,9.99999e-01,9.99970e-01,8.52058e-01,9.99999e-01
1.026704968e+00,8.52730e-01,9.99999e-01,9.97628e-01,8.54757e-01,9.99999e-01
1.031838492e+00,8.31799e-01,9.99999e-01,9.70128e-01,8.57411e-01,9.99999e-01
1.036997685e+00,1.95687e-01,9.99999e-01,2.27538e-01,8.60020e-01,9.99999e-01
1.042182673e+00,2.08569e-01,9.99999e-01,2.41795e-01,8.62585e-01,9.99999e-01
1.047393587e+00,2.11918e-01,9.99999e-01,2.44961e-01,8.65108e-01,9.99999e-01
1.052630555e+00,1.80503e-02,9.99999e-01,2.08052e-02,8.67587e-01,9.99999e-01
1.057893707e+00,3.74101e-02,9.99999e-01,4.29988e-02,8.70025e-01,9.99999e-01
1.063183176e+00,8.81146e-02,9.99999e-01,1.01000e-01,8.72421e-01,9.99999e-01
1.068499092e+00,1.85893e-01,9.99999e-01,2.12503e-01,8.74776e-01,9.99999e-01
1.073841587e+00,3.28986e-01,9.99999e-01,3.75088e-01,8.77091e-01,9.99999e-01
1.079210795e+00,4.73443e-01,9.99999e-01,5.38391e-01,8.79366e-01,9.99999e-01
1.084606849e+00,6.27848e-01,9.99999e-01,7.12167e-01,8.81601e-01,9.99999e-01
1.090029883e+00,7.41424e-01,9.99999e-01,8.38905e-01,8.83799e-01,9.99999e-01
1.095480033e+00,8.12442e-01,9.99999e-01,9.17021e-01,8.85958e-01,9.99999e-01
1.100957433e+00,8.51825e-01,9.99999e-01,9.59176e-01,8.88079e-01,9.99999e-01
1.106462220e+00,8.74939e-01,9.99999e-01,9.82896e-01,8.90164e-01,9.99999e-01
1.111994531e+00,8.86528e-01,9.99999e-01,9.93628e-01,8.92212e-01,9.99999e-01
1.117554504e+00,8.92823e-01,9.99999e-01,9.98432e-01,8.94224e-01,9.99999e-01
1.123142276e+00,8.96108e-01,9.99999e-01,9.99895e-01,8.96201e-01,9.99999e-01
1.128757988e+00,8.98143e-01,9.99999e-01,9.99999e-01,8.98143e-01,9.99999e-01
1.134401778e+00,9.00051e-01,9.99999e-01,9.99999e-01,9.00051e-01,9.99999e-01
1.140073787e+00,9.01925e-01,9.99999e-01,9.99999e-01,9.01925e-01,9.99999e-01
1.145774156e+00,9.03766e-01,9.99999e-01,9.99999e-01,9.03766e-01,9.99999e-01
1.151503026e+00,9.05574e-01,9.99999e-01,9.99999e-01,9.05574e-01,9.99999e-01
1.157260541e+00,9.07350e-01,9.99999e-01,9.99999e-01,9.07350e-01,9.99999e-01
1.163046844e+00,9.09094e-01,9.99999e-01,9.99999e-01,9.09094e-01,9.99999e-01
1.168862078e+00,9.10807e-01,9.99999e-01,9.99999e-01,9.10807e-01,9.99999e-01
1.174706389e+00,9.12489e-01,9.99999e-01,9.99999e-01,9.12489e-01,9.99999e-01
1.180579921e+00,9.14141e-01,9.99999e-01,9.99999e-01,9.14141e-01,9.99999e-01
1.186482820e+00,9.15761e-01,9.99999e-01,9.99996e-01,9.15764e-01,9.99999e-01
1.192415234e+00,9.09622e-01,9.99999e-01,9.91568e-01,9.17357e-01,9.99999e-01
1.198377311e+00,5.28771e-01,9.99999e-01,5.75425e-01,9.18921e-01,9.99999e-01
1.204369197e+00,4.70414e-08,9.99999e-01,5.11065e-08,9.20457e-01,9.99999e-01
1.210391043e+00,3.46179e-27,9.99999e-01,3.75480e-27,9.21965e-01,9.99999e-01
1.216442998e+00,9.14528e-24,9.99999e-01,9.90342e-24,9.23446e-01,9.99999e-01
1.222525213e+00,1.97806e-23,9.99999e-01,2.13868e-23,9.24900e-01,9.99999e-01
1.228637839e+00,4.27280e-18,9.99999e-01,4.61262e-18,9.26327e-01,9.99999e-01
1.234781029e+00,3.61423e-12,9.99999e-01,3.89579e-12,9.27728e-01,9.99999e-01
1.240954934e+00,2.76844e-08,9.99999e-01,2.97969e-08,9.29104e-01,9.99999e-01
1.247159708e+00,1.82289e-05,9.99999e-01,1.95914e-05,9.30455e-01,9.99999e-01
1.253395507e+00,4.12421e-03,9.99999e-01,4.42615e-03,9.31780e-01,9.99999e-01
1.259662485e+00,3.30346e-02,9.99999e-01,3.54037e-02,9.33082e-01,9.99999e-01
1.265960797e+00,1.54337e-01,9.99999e-01,1.65180e-01,9.34359e-01,9.99999e-01
1.272290601e+00,4.18859e-01,9.99999e-01,4.47683e-01,9.35613e-01,9.99999e-01
1.278652054e+00,3.92189e-01,9.99999e-01,4.18627e-01,9.36844e-01,9.99999e-01
1.285045314e+00,2.16189e-02,9.99999e-01,2.30466e-02,9.38052e-01,9.99999e-01
1.291470541e+00,6.79892e-04,9.99999e-01,7.23876e-04,9.39237e-01,9.99999e-01
1.297927893e+00,1.92106e-02,9.99999e-01,2.04280e-02,9.40401e-01,9.99999e-01
1.304417533e+00,2.43970e-01,9.99999e-01,2.59117e-01,9.41543e-01,9.99999e-01
1.310939621e+00,6.68772e-02,9.99999e-01,7.09448e-02,9.42664e-01,9.99999e-01
1.317494319e+00,8.18010e-10,9.99999e-01,8.66752e-10,9.43764e-01,9.99999e-01
1.324081790e+00,4.54240e-07,9.99999e-01,4.80757e-07,9.44844e-01,9.99999e-01
1.330702199e+00,3.58252e-04,9.99999e-01,3.78740e-04,9.45903e-01,9.99999e-01
1.337355710e+00,2.95786e-04,9.99999e-01,3.12359e-04,9.46943e-01,9.99999e-01
1.344042489e+00,9.37124e-05,9.99999e-01,9.88565e-05,9.47963e-01,9.99999e-01
1.350762701e+00,2.49470e-04,9.99999e-01,2.62886e-04,9.48964e-01,9.99999e-01
1.357516515e+00,4.32286e-03,9.99999e-01,4.55064e-03,9.49947e-01,9.99999e-01
1.364304097e+00,3.16608e-02,9.99999e-01,3.32952e-02,9.50911e-01,9.99999e-01
1.371125618e+00,1.58182e-01,9.99999e-01,1.66183e-01,9.51856e-01,9.99999e-01
1.377981246e+00,2.25380e-01,9.99999e-01,2.36549e-01,9.52785e-01,9.99999e-01
1.384871152e+00,4.11735e-01,9.99999e-01,4.31725e-01,9.53695e-01,9.99999e-01
1.391795508e+00,4.39319e-01,9.99999e-01,4.60218e-01,9.54589e-01,9.99999e-01
1.398754485e+00,5.92761e-01,9.99999e-01,6.20390e-01,9.55465e-01,9.99999e-01
1.405748258e+00,6.72208e-01,9.99999e-01,7.02906e-01,9.56326e-01,9.99999e-01
1.412776999e+00,7.66229e-01,9.99999e-01,8.00515e-01,9.57169e-01,9.99999e-01
1.419840884e+00,7.05649e-01,9.99999e-01,7.36587e-01,9.57997e-01,9.99999e-01
1.426940089e+00,8.45848e-02,9.99999e-01,8.82184e-02,9.58810e-01,9.99999e-01
1.434074789e+00,0.00000e+00,9.99999e-01,0.00000e+00,9.59607e-01,9.99999e-01
1.441245163e+00,0.00000e+00,9.99999e-01,0.00000e+00,9.60389e-01,9.99999e-01
1.448451389e+00,0.00000e+00,9.99999e-01,0.00000e+00,9.61156e-01,9.99999e-01
1.455693646e+00,1.07859e-212,9.99999e-01,1.12130e-212,9.61908e-01,9.99999e-01
1.462972114e+00,1.83200e-103,9.99999e-01,1.90309e-103,9.62646e-01,9.99999e-01
1.470286975e+00,6.75792e-44,9.99999e-01,7.01486e-44,9.63370e-01,9.99999e-01
