#,Wave/freq,Total,N2,CO2,Rayleigh,CIA
4.000000000e-01,2.14183e-10,9.99999e-01,9.99999e-01,2.14183e-10,9.99999e-01
4.020000000e-01,3.32634e-10,9.99999e-01,9.99999e-01,3.32634e-10,9.99999e-01
4.040100000e-01,5.11896e-10,9.99999e-01,9.99999e-01,5.11896e-10,9.99999e-01
4.060300500e-01,7.81085e-10,9.99999e-01,9.99999e-01,7.81085e-10,9.99999e-01
4.080602003e-01,1.18193e-09,9.99999e-01,9.99999e-01,1.18193e-09,9.99999e-01
4.101005013e-01,1.77390e-09,9.99999e-01,9.99999e-01,1.77390e-09,9.99999e-01
4.121510038e-01,2.64110e-09,9.99999e-01,9.99999e-01,2.64110e-09,9.99999e-01
4.142117588e-01,3.90144e-09,9.99999e-01,9.99999e-01,3.90144e-09,9.99999e-01
4.162828176e-01,5.71899e-09,9.99999e-01,9.99999e-01,5.71899e-09,9.99999e-01
4.183642317e-01,8.32018e-09,9.99999e-01,9.99999e-01,8.32018e-09,9.99999e-01
4.204560528e-01,1.20152e-08,9.99999e-01,9.99999e-01,1.20152e-08,9.99999e-01
4.225583331e-01,1.72256e-08,9.99999e-01,9.99999e-01,1.72256e-08,9.99999e-01
4.246711247e-01,2.45205e-08,9.99999e-01,9.99999e-01,2.45205e-08,9.99999e-01
4.267944804e-01,3.46621e-08,9.99999e-01,9.99999e-01,3.46621e-08,9.99999e-01
4.289284528e-01,4.86644e-08,9.99999e-01,9.99999e-01,4.86644e-08,9.99999e-01
4.310730950e-01,6.78668e-08,9.99999e-01,9.99999e-01,6.78668e-08,9.99999e-01
4.332284605e-01,9.40264e-08,9.99999e-01,9.99999e-01,9.40264e-08,9.99999e-01
4.353946028e-01,1.29433e-07,9.99999e-01,9.99999e-01,1.29433e-07,9.99999e-01
4.375715758e-01,1.77052e-07,9.99999e-01,9.99999e-01,1.77052e-07,9.99999e-01
4.397594337e-01,2.40695e-07,9.99999e-01,9.99999e-01,2.40695e-07,9.99999e-01
4.419582309e-01,3.25236e-07,9.99999e-01,9.99999e-01,3.25236e-07,9.99999e-01
4.441680220e-01,4.36867e-07,9.99999e-01,9.99999e-01,4.36867e-07,9.99999e-01
4.463888621e-01,5.83402e-07,9.99999e-01,9.99999e-01,5.83402e-07,9.99999e-01
4.486208064e-01,7.74650e-07,9.99999e-01,9.99999e-01,7.74650e-07,9.99999e-01
4.508639105e-01,1.02285e-06,9.99999e-01,9.99999e-01,1.02285e-06,9.99999e-01
4.531182300e-01,1.34317e-06,9.99999e-01,9.99999e-01,1.34317e-06,9.99999e-01
4.553838212e-01,1.75435e-06,9.99999e-01,9.99999e-01,1.75435e-06,9.99999e-01
4.576607403e-01,2.27934e-06,9.99999e-01,9.99999e-01,2.27934e-06,9.99999e-01
4.599490440e-01,2.94616e-06,9.99999e-01,9.99999e-01,2.94616e-06,9.99999e-01
4.622487892e-01,3.78880e-06,9.99999e-01,9.99999e-01,3.78880e-06,9.99999e-01
4.645600332e-01,4.84831e-06,9.99999e-01,9.99999e-01,4.84831e-06,9.99999e-01
4.668828333e-01,6.17394e-06,9.99999e-01,9.99999e-01,6.17394e-06,9.99999e-01
4.692172475e-01,7.82460e-06,9.99999e-01,9.99999e-01,7.82460e-06,9.99999e-01
4.715633337e-01,9.87026e-06,9.99999e-01,9.99999e-01,9.87026e-06,9.99999e-01
4.739211504e-01,1.23938e-05,9.99999e-01,9.99999e-01,1.23938e-05,9.99999e-01
4.762907561e-01,1.54926e-05,9.99999e-01,9.99999e-01,1.54926e-05,9.99999e-01
4.786722099e-01,1.92811e-05,9.99999e-01,9.99999e-01,1.92811e-05,9.99999e-01
4.810655710e-01,2.38925e-05,9.99999e-01,9.99999e-01,2.38925e-05,9.99999e-01
4.834708988e-01,2.94817e-05,9.99999e-01,9.99999e-01,2.94817e-05,9.99999e-01
4.858882533e-01,3.62277e-05,9.99999e-01,9.99999e-01,3.62277e-05,9.99999e-01
4.883176946e-01,4.43364e-05,9.99999e-01,9.99999e-01,4.43364e-05,9.99999e-01
4.907592831e-01,5.40440e-05,9.99999e-01,9.99999e-01,5.40440e-05,9.99999e-01
4.932130795e-01,6.56200e-05,9.99999e-01,9.99999e-01,6.56200e-05,9.99999e-01
4.956791449e-01,7.93707e-05,9.99999e-01,9.99999e-01,7.93707e-05,9.99999e-01
4.981575406e-01,9.56427e-05,9.99999e-01,9.99999e-01,9.56427e-05,9.99999e-01
5.006483283e-01,1.14827e-04,9.99999e-01,9.99999e-01,1.14827e-04,9.99999e-01
5.031515699e-01,1.37362e-04,9.99999e-01,9.99999e-01,1.37362e-04,9.99999e-01
5.056673278e-01,1.63740e-04,9.99999e-01,9.99999e-01,1.63740e-04,9.99999e-01
5.081956644e-01,1.94507e-04,9.99999e-01,9.99999e-01,1.94507e-04,9.99999e-01
5.107366428e-01,2.30270e-04,9.99999e-01,9.99999e-01,2.30270e-04,9.99999e-01
5.132903260e-01,2.71701e-04,9.99999e-01,9.99999e-01,2.71701e-04,9.99999e-01
5.158567776e-01,3.19542e-04,9.99999e-01,9.99999e-01,3.19542e-04,9.99999e-01
5.184360615e-01,3.74603e-04,9.99999e-01,9.99999e-01,3.74603e-04,9.99999e-01
5.210282418e-01,4.37776e-04,9.99999e-01,9.99999e-01,4.37776e-04,9.99999e-01
5.236333830e-01,5.10030e-04,9.99999e-01,9.99999e-01,5.10030e-04,9.99999e-01
5.262515499e-01,5.92419e-04,9.99999e-01,9.99999e-01,5.92419e-04,9.99999e-01
5.288828077e-01,6.86084e-04,9.99999e-01,9.99999e-01,6.86084e-04,9.99999e-01
5.315272217e-01,7.92258e-04,9.99999e-01,9.99999e-01,7.92258e-04,9.99999e-01
5.341848578e-01,9.12267e-04,9.99999e-01,9.99999e-01,9.12267e-04,9.99999e-01
5.368557821e-01,1.04753e-03,9.99999e-01,9.99999e-01,1.04753e-03,9.99999e-01
5.395400610e-01,1.19957e-03,9.99999e-01,9.99999e-01,1.19957e-03,9.99999e-01
5.422377613e-01,1.37001e-03,9.99999e-01,9.99999e-01,1.37001e-03,9.99999e-01
5.449489501e-01,1.56056e-03,9.99999e-01,9.99999e-01,1.56056e-03,9.99999e-01
5.476736949e-01,1.77304e-03,9.99999e-01,9.99999e-01,1.77304e-03,9.99999e-01
5.504120634e-01,2.00939e-03,9.99999e-01,9.99999e-01,2.00939e-03,9.99999e-01
5.531641237e-01,2.27162e-03,9.99999e-01,9.99999e-01,2.27162e-03,9.99999e-01
5.559299443e-01,2.56185e-03,9.99999e-01,9.99999e-01,2.56185e-03,9.99999e-01
5.587095940e-01,2.88231e-03,9.99999e-01,9.99999e-01,2.88231e-03,9.99999e-01
5.615031420e-01,3.23532e-03,9.99999e-01,9.99999e-01,3.23532e-03,9.99999e-01
5.643106577e-01,3.62329e-03,9.99999e-01,9.99999e-01,3.62329e-03,9.99999e-01
5.671322110e-01,4.04871e-03,9.99999e-01,9.99999e-01,4.04871e-03,9.99999e-01
5.699678720e-01,4.51417e-03,9.99999e-01,9.99999e-01,4.51417e-03,9.99999e-01
5.728177114e-01,5.02234e-03,9.99999e-01,9.99999e-01,5.02234e-03,9.99999e-01
5.756818000e-01,5.57595e-03,9.99999e-01,9.99999e-01,5.57595e-03,9.99999e-01
5.785602090e-01,6.17781e-03,9.99999e-01,9.99999e-01,6.17781e-03,9.99999e-01
5.814530100e-01,6.83079e-03,9.99999e-01,9.99999e-01,6.83079e-03,9.99999e-01
5.843602750e-01,7.53782e-03,9.99999e-01,9.99999e-01,7.53782e-03,9.99999e-01
5.872820764e-01,8.30186e-03,9.99999e-01,9.99999e-01,8.30186e-03,9.99999e-01
5.902184868e-01,9.12592e-03,9.99999e-01,9.99999e-01,9.12592e-03,9.99999e-01
5.931695792e-01,1.00130e-02,9.99999e-01,9.99999e-01,1.00130e-02,9.99999e-01
5.961354271e-01,1.09663e-02,9.99999e-01,9.99999e-01,1.09663e-02,9.99999e-01
5.991161043e-01,1.19887e-02,9.99999e-01,9.99999e-01,1.19887e-02,9.99999e-01
6.021116848e-01,1.30835e-02,9.99999e-01,9.99999e-01,1.30835e-02,9.99999e-01
6.051222432e-01,1.42535e-02,9.99999e-01,9.99999e-01,1.42535e-02,9.99999e-01
6.081478544e-01,1.55020e-02,9.99999e-01,9.99999e-01,1.55020e-02,9.99999e-01
6.111885937e-01,1.68318e-02,9.99999e-01,9.99999e-01,1.68318e-02,9.99999e-01
6.142445367e-01,1.82461e-02,9.99999e-01,9.99999e-01,1.82461e-02,9.99999e-01
6.173157594e-01,1.97477e-02,9.99999e-01,9.99999e-01,1.97477e-02,9.99999e-01
6.204023382e-01,2.13395e-02,9.99999e-01,9.99999e-01,2.13395e-02,9.99999e-01
6.235043498e-01,2.30243e-02,9.99999e-01,9.99999e-01,2.30243e-02,9.99999e-01
6.266218716e-01,2.48049e-02,9.99999e-01,9.99999e-01,2.48049e-02,9.99999e-01
6.297549810e-01,2.66839e-02,9.99999e-01,9.99999e-01,2.66839e-02,9.99999e-01
6.329037559e-01,2.86638e-02,9.99999e-01,9.99999e-01,2.86638e-02,9.99999e-01
6.360682746e-01,3.07472e-02,9.99999e-01,9.99999e-01,3.07472e-02,9.99999e-01
6.392486160e-01,3.29363e-02,9.99999e-01,9.99999e-01,3.29363e-02,9.99999e-01
6.424448591e-01,3.52334e-02,9.99999e-01,9.99999e-01,3.52334e-02,9.99999e-01
6.456570834e-01,3.76406e-02,9.99999e-01,9.99999e-01,3.76406e-02,9.99999e-01
6.488853688e-01,4.01597e-02,9.99999e-01,9.99999e-01,4.01597e-02,9.99999e-01
6.521297956e-01,4.27926e-02,9.99999e-01,9.99999e-01,4.27926e-02,9.99999e-01
6.553904446e-01,4.55410e-02,9.99999e-01,9.99999e-01,4.55410e-02,9.99999e-01
6.586673968e-01,4.84064e-02,9.99999e-01,9.99999e-01,4.84064e-02,9.99999e-01
6.619607338e-01,5.13901e-02,9.99999e-01,9.99999e-01,5.13901e-02,9.99999e-01
6.652705375e-01,5.44932e-02,9.99999e-01,9.99999e-01,5.44932e-02,9.99999e-01
6.685968902e-01,5.77169e-02,9.99999e-01,9.99999e-01,5.77169e-02,9.99999e-01
6.719398746e-01,6.10619e-02,9.99999e-01,9.99999e-01,6.10619e-02,9.99999e-01
6.752995740e-01,6.45289e-02,9.99999e-01,9.99999e-01,6.45289e-02,9.99999e-01
6.786760719e-01,6.81184e-02,9.99999e-01,9.99999e-01,6.81184e-02,9.99999e-01
6.820694522e-01,7.18308e-02,9.99999e-01,9.99999e-01,7.18308e-02,9.99999e-01
6.854797995e-01,7.56661e-02,9.99999e-01,9.99999e-01,7.56661e-02,9.99999e-01
6.889071985e-01,7.96243e-02,9.99999e-01,9.99999e-01,7.96243e-02,9.99999e-01
6.923517345e-01,8.37052e-02,9.99999e-01,9.99999e-01,8.37052e-02,9.99999e-01
6.958134932e-01,8.79085e-02,9.99999e-01,9.99999e-01,8.79085e-02,9.99999e-01
6.992925606e-01,9.22336e-02,9.99999e-01,9.99999e-01,9.22336e-02,9.99999e-01
7.027890234e-01,9.66796e-02,9.99999e-01,9.99999e-01,9.66796e-02,9.99999e-01
7.063029686e-01,1.01246e-01,9.99999e-01,9.99999e-01,1.01246e-01,9.99999e-01
7.098344834e-01,1.05931e-01,9.99999e-01,9.99999e-01,1.05931e-01,9.99999e-01
7.133836558e-01,1.10734e-01,9.99999e-01,9.99999e-01,1.10734e-01,9.99999e-01
7.169505741e-01,1.15654e-01,9.99999e-01,9.99999e-01,1.15654e-01,9.99999e-01
7.205353270e-01,1.20688e-01,9.99999e-01,9.99999e-01,1.20688e-01,9.99999e-01
7.241380036e-01,1.25836e-01,9.99999e-01,9.99999e-01,1.25836e-01,9.99999e-01
7.277586936e-01,1.31095e-01,9.99999e-01,9.99999e-01,1.31095e-01,9.99999e-01
7.313974871e-01,1.36463e-01,9.99999e-01,9.99999e-01,1.36463e-01,9.99999e-01
7.350544745e-01,1.41939e-01,9.99999e-01,9.99999e-01,1.41939e-01,9.99999e-01
7.387297469e-01,1.47519e-01,9.99999e-01,9.99999e-01,1.47519e-01,9.99999e-01
7.424233956e-01,1.53202e-01,9.99999e-01,9.99999e-01,1.53202e-01,9.99999e-01
7.461355126e-01,1.58986e-01,9.99999e-01,9.99999e-01,1.58986e-01,9.99999e-01
7.498661902e-01,1.64867e-01,9.99999e-01,9.99999e-01,1.64867e-01,9.99999e-01
7.536155211e-01,1.70843e-01,9.99999e-01,9.99999e-01,1.70843e-01,9.99999e-01
7.573835987e-01,1.76911e-01,9.99999e-01,9.99999e-01,1.76911e-01,9.99999e-01
7.611705167e-01,1.83069e-01,9.99999e-01,9.99999e-01,1.83069e-01,9.99999e-01
7.649763693e-01,1.89313e-01,9.99999e-01,9.99999e-01,1.89313e-01,9.99999e-01
7.688012511e-01,1.95640e-01,9.99999e-01,9.99999e-01,1.95640e-01,9.99999e-01
7.726452574e-01,2.02047e-01,9.99999e-01,9.99999e-01,2.02047e-01,9.99999e-01
7.765084837e-01,2.08531e-01,9.99999e-01,9.99999e-01,2.08531e-01,9.99999e-01
7.803910261e-01,2.00713e-01,9.99999e-01,9.33159e-01,2.15090e-01,9.99999e-01
7.842929812e-01,1.63051e-01,9.99999e-01,7.35395e-01,2.21718e-01,9.99999e-01
7.882144461e-01,1.64345e-01,9.99999e-01,7.19501e-01,2.28415e-01,9.99999e-01
7.921555184e-01,1.92953e-01,9.99999e-01,8.20464e-01,2.35175e-01,9.99999e-01
7.961162960e-01,2.12050e-01,9.99999e-01,8.76257e-01,2.41995e-01,9.99999e-01
8.000968774e-01,2.31625e-01,9.99999e-01,9.30695e-01,2.48873e-01,9.99999e-01
8.040973618e-01,2.46498e-01,9.99999e-01,9.63613e-01,2.55805e-01,9.99999e-01
8.081178486e-01,2.58332e-01,9.99999e-01,9.83044e-01,2.62787e-01,9.99999e-01
8.121584379e-01,2.68413e-01,9.99999e-01,9.94798e-01,2.69817e-01,9.99999e-01
8.162192301e-01,2.76571e-01,9.99999e-01,9.98848e-01,2.76890e-01,9.99999e-01
8.203003262e-01,2.83998e-01,9.99999e-01,9.99984e-01,2.84003e-01,9.99999e-01
8.244018279e-01,2.91153e-01,9.99999e-01,9.99999e-01,2.91153e-01,9.99999e-01
8.285238370e-01,2.98336e-01,9.99999e-01,9.99999e-01,2.98336e-01,9.99999e-01
8.326664562e-01,3.05549e-01,9.99999e-01,9.99999e-01,3.05549e-01,9.99999e-01
8.368297885e-01,3.12790e-01,9.99999e-01,9.99999e-01,3.12790e-01,9.99999e-01
8.410139374e-01,3.20053e-01,9.99999e-01,9.99999e-01,3.20053e-01,9.99999e-01
8.452190071e-01,3.27337e-01,9.99999e-01,9.99999e-01,3.27337e-01,9.99999e-01
8.494451021e-01,3.34638e-01,9.99999e-01,9.99999e-01,3.34638e-01,9.99999e-01
8.536923276e-01,3.41953e-01,9.99999e-01,9.99999e-01,3.41953e-01,9.99999e-01
8.579607893e-01,3.49278e-01,9.99999e-01,9.99999e-01,3.49278e-01,9.99999e-01
8.622505932e-01,3.56611e-01,9.99999e-01,9.99999e-01,3.56611e-01,9.99999e-01
8.665618462e-01,3.22049e-01,9.99999e-01,8.84872e-01,3.63949e-01,9.99999e-01
8.708946554e-01,1.71857e-01,9.99999e-01,4.62868e-01,3.71288e-01,9.99999e-01
8.752491287e-01,2.01726e-01,9.99999e-01,5.32785e-01,3.78626e-01,9.99999e-01
8.796253743e-01,2.71778e-01,9.99999e-01,7.04161e-01,3.85959e-01,9.99999e-01
8.840235012e-01,3.27282e-01,9.99999e-01,8.32173e-01,3.93286e-01,9.99999e-01
8.884436187e-01,3.72652e-01,9.99999e-01,9.30228e-01,4.00603e-01,9.99999e-01
8.928858368e-01,3.96094e-01,9.99999e-01,9.71038e-01,4.07907e-01,9.99999e-01
8.973502660e-01,4.12262e-01,9.99999e-01,9.92932e-01,4.15196e-01,9.99999e-01
9.018370173e-01,4.22140e-01,9.99999e-01,9.99221e-01,4.22468e-01,9.99999e-01
9.063462024e-01,4.20936e-01,9.99999e-01,9.79557e-01,4.29720e-01,9.99999e-01
9.108779334e-01,4.17104e-01,9.99999e-01,9.54581e-01,4.36949e-01,9.99999e-01
9.154323231e-01,4.39396e-01,9.99999e-01,9.89288e-01,4.44154e-01,9.99999e-01
9.200094847e-01,3.88131e-01,9.99999e-01,8.59968e-01,4.51331e-01,9.99999e-01
9.246095321e-01,3.65337e-01,9.99999e-01,7.96843e-01,4.58480e-01,9.99999e-01
9.292325798e-01,3.89540e-01,9.99999e-01,8.36647e-01,4.65597e-01,9.99999e-01
9.338787427e-01,3.98163e-01,9.99999e-01,8.42350e-01,4.72680e-01,9.99999e-01
9.385481364e-01,4.22645e-01,9.99999e-01,8.81009e-01,4.79728e-01,9.99999e-01
9.432408771e-01,4.50420e-01,9.99999e-01,9.25382e-01,4.86740e-01,9.99999e-01
9.479570815e-01,4.74402e-01,9.99999e-01,9.60889e-01,4.93712e-01,9.99999e-01
9.526968669e-01,4.91134e-01,9.99999e-01,9.81007e-01,5.00643e-01,9.99999e-01
9.574603512e-01,5.03390e-01,9.99999e-01,9.91839e-01,5.07532e-01,9.99999e-01
9.622476530e-01,5.13066e-01,9.99999e-01,9.97451e-01,5.14376e-01,9.99999e-01
9.670588912e-01,5.20778e-01,9.99999e-01,9.99237e-01,5.21175e-01,9.99999e-01
9.718941857e-01,5.27900e-01,9.99999e-01,9.99947e-01,5.27927e-01,9.99999e-01
9.767536566e-01,5.34631e-01,9.99999e-01,9.99999e-01,5.34631e-01,9.99999e-01
9.816374249e-01,5.41284e-01,9.99999e-01,9.99999e-01,5.41284e-01,9.99999e-01
9.865456120e-01,5.47887e-01,9.99999e-01,9.99999e-01,5.47887e-01,9.99999e-01
9.914783401e-01,5.54437e-01,9.99999e-01,9.99999e-01,5.54437e-01,9.99999e-01
9.964357318e-01,5.60934e-01,9.99999e-01,9.99999e-01,5.60934e-01,9.99999e-01
1.001417910e+00,5.67377e-01,9.99999e-01,9.99999e-01,5.67377e-01,9.99999e-01
1.006425000e+00,5.73764e-01,9.99999e-01,9.99999e-01,5.73764e-01,9.99999e-01
1.011457125e+00,5.80095e-01,9.99999e-01,9.99999e-01,5.80095e-01,9.99999e-01
1.016514411e+00,5.86368e-01,9.99999e-01,9.99999e-01,5.86368e-01,9.99999e-01
1.021596983e+00,5.92508e-01,9.99999e-01,9.99872e-01,5.92583e-01,9.99999e-01
1.026704968e+00,5.93883e-01,9.99999e-01,9.91887e-01,5.98740e-01,9.99999e-01
1.031838492e+00,5.57571e-01,9.99999e-01,9.21853e-01,6.04837e-01,9.99999e-01
1.036997685e+00,4.55008e-02,9.99999e-01,7.44847e-02,6.10874e-01,9.99999e-01
1.042182673e+00,1.02228e-02,9.99999e-01,1.65726e-02,6.16850e-01,9.99999e-01
1.047393587e+00,1.92786e-02,9.99999e-01,3.09565e-02,6.22765e-01,9.99999e-01
1.052630555e+00,2.60530e-05,9.99999e-01,4.14449e-05,6.28618e-01,9.99999e-01
1.057893707e+00,9.48679e-05,9.99999e-01,1.49537e-04,6.34408e-01,9.99999e-01
1.063183176e+00,9.01861e-04,9.99999e-01,1.40886e-03,6.40137e-01,9.99999e-01
1.068499092e+00,5.26486e-03,9.99999e-01,8.15243e-03,6.45802e-01,9.99999e-01
1.073841587e+00,3.04812e-02,9.99999e-01,4.67930e-02,6.51404e-01,9.99999e-01
1.079210795e+00,9.50248e-02,9.99999e-01,1.44647e-01,6.56942e-01,9.99999e-01
1.084606849e+00,2.24733e-01,9.99999e-01,3.39261e-01,6.62417e-01,9.99999e-01
1.090029883e+00,3.79633e-01,9.99999e-01,5.68458e-01,6.67828e-01,9.99999e-01
1.095480033e+00,5.09580e-01,9.99999e-01,7.56980e-01,6.73175e-01,9.99999e-01
1.100957433e+00,5.93019e-01,9.99999e-01,8.74068e-01,6.78458e-01,9.99999e-01
1.106462220e+00,6.46701e-01,9.99999e-01,9.45916e-01,6.83676e-01,9.99999e-01
1.111994531e+00,6.74771e-01,9.99999e-01,9.79587e-01,6.88831e-01,9.99999e-01
1.117554504e+00,6.90459e-01,9.99999e-01,9.95009e-01,6.93921e-01,9.99999e-01
1.123142276e+00,6.98721e-01,9.99999e-01,9.99674e-01,6.98948e-01,9.99999e-01
1.128757988e+00,7.03910e-01,9.99999e-01,9.99999e-01,7.03910e-01,9.99999e-01
1.134401778e+00,7.08809e-01,9.99999e-01,9.99999e-01,7.08809e-01,9.99999e-01
1.140073787e+00,7.13644e-01,9.99999e-01,9.99999e-01,7.13644e-01,9.99999e-01
1.145774156e+00,7.18416e-01,9.99999e-01,9.99999e-01,7.18416e-01,9.99999e-01
1.151503026e+00,7.23124e-01,9.99999e-01,9.99999e-01,7.23124e-01,9.99999e-01
1.157260541e+00,7.27769e-01,9.99999e-01,9.99999e-01,7.27769e-01,9.99999e-01
1.163046844e+00,7.32351e-01,9.99999e-01,9.99999e-01,7.32351e-01,9.99999e-01
1.168862078e+00,7.36871e-01,9.99999e-01,9.99999e-01,7.36871e-01,9.99999e-01
1.174706389e+00,7.41329e-01,9.99999e-01,9.99999e-01,7.41329e-01,9.99999e-01
1.180579921e+00,7.45725e-01,9.99999e-01,9.99999e-01,7.45725e-01,9.99999e-01
1.186482820e+00,7.50044e-01,9.99999e-01,9.99979e-01,7.50059e-01,9.99999e-01
1.192415234e+00,7.32971e-01,9.99999e-01,9.71680e-01,7.54332e-01,9.99999e-01
1.198377311e+00,4.05939e-01,9.99999e-01,5.35154e-01,7.58545e-01,9.99999e-01
1.204369197e+00,3.14682e-21,9.99999e-01,4.12591e-21,7.62697e-01,9.99999e-01
1.210391043e+00,8.71796e-84,9.99999e-01,1.13694e-83,7.66789e-01,9.99999e-01
1.216442998e+00,1.33941e-72,9.99999e-01,1.73765e-72,7.70821e-01,9.99999e-01
1.222525213e+00,1.60666e-71,9.99999e-01,2.07366e-71,7.74794e-01,9.99999e-01
1.228637839e+00,2.74413e-55,9.99999e-01,3.52394e-55,7.78709e-01,9.99999e-01
1.234781029e+00,1.07822e-34,9.99999e-01,1.37779e-34,7.82566e-01,9.99999e-01
1.240954934e+00,3.85314e-23,9.99999e-01,4.89993e-23,7.86365e-01,9.99999e-01
1.247159708e+00,1.42632e-11,9.99999e-01,1.80523e-11,7.90107e-01,9.99999e-01
1.253395507e+00,8.81742e-08,9.99999e-01,1.11080e-07,7.93792e-01,9.99999e-01
1.259662485e+00,8.53938e-05,9.99999e-01,1.07087e-04,7.97421e-01,9.99999e-01
1.265960797e+00,4.76457e-03,9.99999e-01,5.94831e-03,8.00995e-01,9.99999e-01
1.272290601e+00,7.93756e-02,9.99999e-01,9.86628e-02,8.04513e-01,9.99999e-01
1.278652054e+00,6.75766e-02,9.99999e-01,8.36367e-02,8.07977e-01,9.99999e-01
1.285045314e+00,2.62733e-04,9.99999e-01,3.23807e-04,8.11387e-01,9.99999e-01
1.291470541e+00,2.89211e-10,9.99999e-01,3.54971e-10,8.14744e-01,9.99999e-01
1.297927893e+00,3.35819e-04,9.99999e-01,4.10513e-04,8.18048e-01,9.99999e-01
1.304417533e+00,1.16134e-02,9.99999e-01,1.41402e-02,8.21300e-01,9.99999e-01
1.310939621e+00,1.94292e-03,9.99999e-01,2.35649e-03,8.24499e-01,9.99999e-01
1.317494319e+00,3.05409e-29,9.99999e-01,3.69007e-29,8.27648e-01,9.99999e-01
1.324081790e+00,6.80248e-14,9.99999e-01,8.18839e-14,8.30747e-01,9.99999e-01
1.330702199e+00,2.09410e-11,9.99999e-01,2.51152e-11,8.33795e-01,9.99999e-01
1.337355710e+00,1.80001e-10,9.99999e-01,2.15108e-10,8.36794e-01,9.99999e-01
1.344042489e+00,1.03688e-12,9.99999e-01,1.23476e-12,8.39744e-01,9.99999e-01
1.350762701e+00,1.15104e-11,9.99999e-01,1.36598e-11,8.42646e-01,9.99999e-01
1.357516515e+00,2.09601e-07,9.99999e-01,2.47901e-07,8.45501e-01,9.99999e-01
1.364304097e+00,2.17993e-05,9.99999e-01,2.56973e-05,8.48308e-01,9.99999e-01
1.371125618e+00,3.82082e-03,9.99999e-01,4.48944e-03,8.51069e-01,9.99999e-01
1.377981246e+00,8.48053e-03,9.99999e-01,9.93286e-03,8.53784e-01,9.99999e-01
1.384871152e+00,5.83347e-02,9.99999e-01,6.81118e-02,8.56454e-01,9.99999e-01
1.391795508e+00,7.22107e-02,9.99999e-01,8.40558e-02,8.59080e-01,9.99999e-01
1.398754485e+00,1.83298e-01,9.99999e-01,2.12726e-01,8.61661e-01,9.99999e-01
1.405748258e+00,2.79123e-01,9.99999e-01,3.22984e-01,8.64199e-01,9.99999e-01
1.412776999e+00,4.23181e-01,9.99999e-01,4.88269e-01,8.66694e-01,9.99999e-01
1.419840884e+00,3.79134e-01,9.99999e-01,4.36214e-01,8.69147e-01,9.99999e-01
1.426940089e+00,1.87320e-02,9.99999e-01,2.14925e-02,8.71558e-01,9.99999e-01
1.434074789e+00,0.00000e+00,9.99999e-01,0.00000e+00,8.73927e-01,9.99999e-01
1.441245163e+00,0.00000e+00,9.99999e-01,0.00000e+00,8.76257e-01,9.99999e-01
1.448451389e+00,0.00000e+00,9.99999e-01,0.00000e+00,8.78546e-01,9.99999e-01
1.455693646e+00,0.00000e+00,9.99999e-01,0.00000e+00,8.80796e-01,9.99999e-01
1.462972114e+00,0.00000e+00,9.99999e-01,0.00000e+00,8.83007e-01,9.99999e-01
1.470286975e+00,2.04380e-138,9.99999e-01,2.30891e-138,8.85180e-01,9.99999e-01
