#,Wave/freq,Total,N2,CO2,Rayleigh,CIA
4.000000000e-01,5.23465e-17,9.99999e-01,9.99999e-01,5.23465e-17,9.99999e-01
4.020000000e-01,1.09855e-16,9.99999e-01,9.99999e-01,1.09855e-16,9.99999e-01
4.040100000e-01,2.27014e-16,9.99999e-01,9.99999e-01,2.27014e-16,9.99999e-01
4.060300500e-01,4.62444e-16,9.99999e-01,9.99999e-01,4.62444e-16,9.99999e-01
4.080602003e-01,9.28885e-16,9.99999e-01,9.99999e-01,9.28885e-16,9.99999e-01
4.101005013e-01,1.84027e-15,9.99999e-01,9.99999e-01,1.84027e-15,9.99999e-01
4.121510038e-01,3.59697e-15,9.99999e-01,9.99999e-01,3.59697e-15,9.99999e-01
4.142117588e-01,6.93814e-15,9.99999e-01,9.99999e-01,6.93814e-15,9.99999e-01
4.162828176e-01,1.32103e-14,9.99999e-01,9.99999e-01,1.32103e-14,9.99999e-01
4.183642317e-01,2.48348e-14,9.99999e-01,9.99999e-01,2.48348e-14,9.99999e-01
4.204560528e-01,4.61096e-14,9.99999e-01,9.99999e-01,4.61096e-14,9.99999e-01
4.225583331e-01,8.45696e-14,9.99999e-01,9.99999e-01,8.45696e-14,9.99999e-01
4.246711247e-01,1.53262e-13,9.99999e-01,9.99999e-01,1.53262e-13,9.99999e-01
4.267944804e-01,2.74507e-13,9.99999e-01,9.99999e-01,2.74507e-13,9.99999e-01
4.289284528e-01,4.86041e-13,9.99999e-01,9.99999e-01,4.86041e-13,9.99999e-01
4.310730950e-01,8.50926e-13,9.99999e-01,9.99999e-01,8.50926e-13,9.99999e-01
4.332284605e-01,1.47335e-12,9.99999e-01,9.99999e-01,1.47335e-12,9.99999e-01
4.353946028e-01,2.52355e-12,9.99999e-01,9.99999e-01,2.52355e-12,9.99999e-01
4.375715758e-01,4.27662e-12,9.99999e-01,9.99999e-01,4.27662e-12,9.99999e-01
4.397594337e-01,7.17240e-12,9.99999e-01,9.99999e-01,7.17240e-12,9.99999e-01
4.419582309e-01,1.19067e-11,9.99999e-01,9.99999e-01,1.19067e-11,9.99999e-01
4.441680220e-01,1.95692e-11,9.99999e-01,9.99999e-01,1.95692e-11,9.99999e-01
4.463888621e-01,3.18487e-11,9.99999e-01,9.99999e-01,3.18487e-11,9.99999e-01
4.486208064e-01,5.13371e-11,9.99999e-01,9.99999e-01,5.13371e-11,9.99999e-01
4.508639105e-01,8.19739e-11,9.99999e-01,9.99999e-01,8.19739e-11,9.99999e-01
4.531182300e-01,1.29690e-10,9.99999e-01,9.99999e-01,1.29690e-10,9.99999e-01
4.553838212e-01,2.03329e-10,9.99999e-01,9.99999e-01,2.03329e-10,9.99999e-01
4.576607403e-01,3.15964e-10,9.99999e-01,9.99999e-01,3.15964e-10,9.99999e-01
4.599490440e-01,4.86735e-10,9.99999e-01,9.99999e-01,4.86735e-10,9.99999e-01
4.622487892e-01,7.43433e-10,9.99999e-01,9.99999e-01,7.43433e-10,9.99999e-01
4.645600332e-01,1.12605e-09,9.99999e-01,9.99999e-01,1.12605e-09,9.99999e-01
4.668828333e-01,1.69165e-09,9.99999e-01,9.99999e-01,1.69165e-09,9.99999e-01
4.692172475e-01,2.52101e-09,9.99999e-01,9.99999e-01,2.52101e-09,9.99999e-01
4.715633337e-01,3.72747e-09,9.99999e-01,9.99999e-01,3.72747e-09,9.99999e-01
4.739211504e-01,5.46889e-09,9.99999e-01,9.99999e-01,5.46889e-09,9.99999e-01
4.762907561e-01,7.96336e-09,9.99999e-01,9.99999e-01,7.96336e-09,9.99999e-01
4.786722099e-01,1.15099e-08,9.99999e-01,9.99999e-01,1.15099e-08,9.99999e-01
4.810655710e-01,1.65152e-08,9.99999e-01,9.99999e-01,1.65152e-08,9.99999e-01
4.834708988e-01,2.35288e-08,9.99999e-01,9.99999e-01,2.35288e-08,9.99999e-01
4.858882533e-01,3.32874e-08,9.99999e-01,9.99999e-01,3.32874e-08,9.99999e-01
4.883176946e-01,4.67717e-08,9.99999e-01,9.99999e-01,4.67717e-08,9.99999e-01
4.907592831e-01,6.52783e-08,9.99999e-01,9.99999e-01,6.52783e-08,9.99999e-01
4.932130795e-01,9.05097e-08,9.99999e-01,9.99999e-01,9.05097e-08,9.99999e-01
4.956791449e-01,1.24686e-07,9.99999e-01,9.99999e-01,1.24686e-07,9.99999e-01
4.981575406e-01,1.70684e-07,9.99999e-01,9.99999e-01,1.70684e-07,9.99999e-01
5.006483283e-01,2.32206e-07,9.99999e-01,9.99999e-01,2.32206e-07,9.99999e-01
5.031515699e-01,3.13989e-07,9.99999e-01,9.99999e-01,3.13989e-07,9.99999e-01
5.056673278e-01,4.22052e-07,9.99999e-01,9.99999e-01,4.22052e-07,9.99999e-01
5.081956644e-01,5.64002e-07,9.99999e-01,9.99999e-01,5.64002e-07,9.99999e-01
5.107366428e-01,7.49391e-07,9.99999e-01,9.99999e-01,7.49391e-07,9.99999e-01
5.132903260e-01,9.90143e-07,9.99999e-01,9.99999e-01,9.90143e-07,9.99999e-01
5.158567776e-01,1.30106e-06,9.99999e-01,9.99999e-01,1.30106e-06,9.99999e-01
5.184360615e-01,1.70042e-06,9.99999e-01,9.99999e-01,1.70042e-06,9.99999e-01
5.210282418e-01,2.21063e-06,9.99999e-01,9.99999e-01,2.21063e-06,9.99999e-01
5.236333830e-01,2.85908e-06,9.99999e-01,9.99999e-01,2.85908e-06,9.99999e-01
5.262515499e-01,3.67899e-06,9.99999e-01,9.99999e-01,3.67899e-06,9.99999e-01
5.288828077e-01,4.71052e-06,9.99999e-01,9.99999e-01,4.71052e-06,9.99999e-01
5.315272217e-01,6.00191e-06,9.99999e-01,9.99999e-01,6.00191e-06,9.99999e-01
5.341848578e-01,7.61081e-06,9.99999e-01,9.99999e-01,7.61081e-06,9.99999e-01
5.368557821e-01,9.60584e-06,9.99999e-01,9.99999e-01,9.60584e-06,9.99999e-01
5.395400610e-01,1.20682e-05,9.99999e-01,9.99999e-01,1.20682e-05,9.99999e-01
5.422377613e-01,1.50936e-05,9.99999e-01,9.99999e-01,1.50936e-05,9.99999e-01
5.449489501e-01,1.87942e-05,9.99999e-01,9.99999e-01,1.87942e-05,9.99999e-01
5.476736949e-01,2.33009e-05,9.99999e-01,9.99999e-01,2.33009e-05,9.99999e-01
5.504120634e-01,2.87660e-05,9.99999e-01,9.99999e-01,2.87660e-05,9.99999e-01
5.531641237e-01,3.53653e-05,9.99999e-01,9.99999e-01,3.53653e-05,9.99999e-01
5.559299443e-01,4.33016e-05,9.99999e-01,9.99999e-01,4.33016e-05,9.99999e-01
5.587095940e-01,5.28073e-05,9.99999e-01,9.99999e-01,5.28073e-05,9.99999e-01
5.615031420e-01,6.41477e-05,9.99999e-01,9.99999e-01,6.41477e-05,9.99999e-01
5.643106577e-01,7.76247e-05,9.99999e-01,9.99999e-01,7.76247e-05,9.99999e-01
5.671322110e-01,9.35799e-05,9.99999e-01,9.99999e-01,9.35799e-05,9.99999e-01
5.699678720e-01,1.12399e-04,9.99999e-01,9.99999e-01,1.12399e-04,9.99999e-01
5.728177114e-01,1.34514e-04,9.99999e-01,9.99999e-01,1.34514e-04,9.99999e-01
5.756818000e-01,1.60411e-04,9.99999e-01,9.99999e-01,1.60411e-04,9.99999e-01
5.785602090e-01,1.90630e-04,9.99999e-01,9.99999e-01,1.90630e-04,9.99999e-01
5.814530100e-01,2.25770e-04,9.99999e-01,9.99999e-01,2.25770e-04,9.99999e-01
5.843602750e-01,2.66496e-04,9.99999e-01,9.99999e-01,2.66496e-04,9.99999e-01
5.872820764e-01,3.13539e-04,9.99999e-01,9.99999e-01,3.13539e-04,9.99999e-01
5.902184868e-01,3.67705e-04,9.99999e-01,9.99999e-01,3.67705e-04,9.99999e-01
5.931695792e-01,4.29872e-04,9.99999e-01,9.99999e-01,4.29872e-04,9.99999e-01
5.961354271e-01,5.01001e-04,9.99999e-01,9.99999e-01,5.01001e-04,9.99999e-01
5.991161043e-01,5.82137e-04,9.99999e-01,9.99999e-01,5.82137e-04,9.99999e-01
6.021116848e-01,6.74410e-04,9.99999e-01,9.99999e-01,6.74410e-04,9.99999e-01
6.051222432e-01,7.79042e-04,9.99999e-01,9.99999e-01,7.79042e-04,9.99999e-01
6.081478544e-01,8.97346e-04,9.99999e-01,9.99999e-01,8.97346e-04,9.99999e-01
6.111885937e-01,1.03073e-03,9.99999e-01,9.99999e-01,1.03073e-03,9.99999e-01
6.142445367e-01,1.18071e-03,9.99999e-01,9.99999e-01,1.18071e-03,9.99999e-01
6.173157594e-01,1.34889e-03,9.99999e-01,9.99999e-01,1.34889e-03,9.99999e-01
6.204023382e-01,1.53697e-03,9.99999e-01,9.99999e-01,1.53697e-03,9.99999e-01
6.235043498e-01,1.74678e-03,9.99999e-01,9.99999e-01,1.74678e-03,9.99999e-01
6.266218716e-01,1.98020e-03,9.99999e-01,9.99999e-01,1.98020e-03,9.99999e-01
6.297549810e-01,2.23927e-03,9.99999e-01,9.99999e-01,2.23927e-03,9.99999e-01
6.329037559e-01,2.52609e-03,9.99999e-01,9.99999e-01,2.52609e-03,9.99999e-01
6.360682746e-01,2.84287e-03,9.99999e-01,9.99999e-01,2.84287e-03,9.99999e-01
6.392486160e-01,3.19191e-03,9.99999e-01,9.99999e-01,3.19191e-03,9.99999e-01
6.424448591e-01,3.57563e-03,9.99999e-01,9.99999e-01,3.57563e-03,9.99999e-01
6.456570834e-01,3.99650e-03,9.99999e-01,9.99999e-01,3.99650e-03,9.99999e-01
6.488853688e-01,4.45710e-03,9.99999e-01,9.99999e-01,4.45710e-03,9.99999e-01
6.521297956e-01,4.96009e-03,9.99999e-01,9.99999e-01,4.96009e-03,9.99999e-01
6.553904446e-01,5.50819e-03,9.99999e-01,9.99999e-01,5.50819e-03,9.99999e-01
6.586673968e-01,6.10421e-03,9.99999e-01,9.99999e-01,6.10421e-03,9.99999e-01
6.619607338e-01,6.75102e-03,9.99999e-01,9.99999e-01,6.75102e-03,9.99999e-01
6.652705375e-01,7.45151e-03,9.99999e-01,9.99999e-01,7.45151e-03,9.99999e-01
6.685968902e-01,8.20867e-03,9.99999e-01,9.99999e-01,8.20867e-03,9.99999e-01
6.719398746e-01,9.02550e-03,9.99999e-01,9.99999e-01,9.02550e-03,9.99999e-01
6.752995740e-01,9.90503e-03,9.99999e-01,9.99999e-01,9.90503e-03,9.99999e-01
6.786760719e-01,1.08503e-02,9.99999e-01,9.99999e-01,1.08503e-02,9.99999e-01
6.820694522e-01,1.18644e-02,9.99999e-01,9.99999e-01,1.18644e-02,9.99999e-01
6.854797995e-01,1.29505e-02,9.99999e-01,9.99999e-01,1.29505e-02,9.99999e-01
6.889071985e-01,1.41115e-02,9.99999e-01,9.99999e-01,1.41115e-02,9.99999e-01
6.923517345e-01,1.53505e-02,9.99999e-01,9.99999e-01,1.53505e-02,9.99999e-01
6.958134932e-01,1.66706e-02,9.99999e-01,9.99999e-01,1.66706e-02,9.99999e-01
6.992925606e-01,1.80748e-02,9.99999e-01,9.99999e-01,1.80748e-02,9.99999e-01
7.027890234e-01,1.95659e-02,9.99999e-01,9.99999e-01,1.95659e-02,9.99999e-01
7.063029686e-01,2.11469e-02,9.99999e-01,9.99999e-01,2.11469e-02,9.99999e-01
7.098344834e-01,2.28206e-02,9.99999e-01,9.99999e-01,2.28206e-02,9.99999e-01
7.133836558e-01,2.45898e-02,9.99999e-01,9.99999e-01,2.45898e-02,9.99999e-01
7.169505741e-01,2.64570e-02,9.99999e-01,9.99999e-01,2.64570e-02,9.99999e-01
7.205353270e-01,2.84250e-02,9.99999e-01,9.99999e-01,2.84250e-02,9.99999e-01
7.241380036e-01,3.04960e-02,9.99999e-01,9.99999e-01,3.04960e-02,9.99999e-01
7.277586936e-01,3.26725e-02,9.99999e-01,9.99999e-01,3.26725e-02,9.99999e-01
7.313974871e-01,3.49568e-02,9.99999e-01,9.99999e-01,3.49568e-02,9.99999e-01
7.350544745e-01,3.73508e-02,9.99999e-01,9.99999e-01,3.73508e-02,9.99999e-01
7.387297469e-01,3.98567e-02,9.99999e-01,9.99999e-01,3.98567e-02,9.99999e-01
7.424233956e-01,4.24761e-02,9.99999e-01,9.99999e-01,4.24761e-02,9.99999e-01
7.461355126e-01,4.52108e-02,9.99999e-01,9.99999e-01,4.52108e-02,9.99999e-01
7.498661902e-01,4.80623e-02,9.99999e-01,9.99999e-01,4.80623e-02,9.99999e-01
7.536155211e-01,5.10319e-02,9.99999e-01,9.99999e-01,5.10319e-02,9.99999e-01
7.573835987e-01,5.41209e-02,9.99999e-01,9.99999e-01,5.41209e-02,9.99999e-01
7.611705167e-01,5.73303e-02,9.99999e-01,9.99999e-01,5.73303e-02,9.99999e-01
7.649763693e-01,6.06610e-02,9.99999e-01,9.99999e-01,6.06610e-02,9.99999e-01
7.688012511e-01,6.41136e-02,9.99999e-01,9.99999e-01,6.41136e-02,9.99999e-01
7.726452574e-01,6.76886e-02,9.99999e-01,9.99999e-01,6.76886e-02,9.99999e-01
7.765084837e-01,7.13865e-02,9.99999e-01,9.99999e-01,7.13865e-02,9.99999e-01
7.803910261e-01,6.82915e-02,9.99999e-01,9.08042e-01,7.52073e-02,9.99999e-01
7.842929812e-01,4.77489e-02,9.99999e-01,6.03263e-01,7.91510e-02,9.99999e-01
7.882144461e-01,4.90368e-02,9.99999e-01,5.89260e-01,8.32175e-02,9.99999e-01
7.921555184e-01,6.29570e-02,9.99999e-01,7.20279e-01,8.74064e-02,9.99999e-01
7.961162960e-01,7.32994e-02,9.99999e-01,7.99190e-01,9.17171e-02,9.99999e-01
8.000968774e-01,8.51407e-02,9.99999e-01,8.85508e-01,9.61489e-02,9.99999e-01
8.040973618e-01,9.45152e-02,9.99999e-01,9.38572e-01,1.00701e-01,9.99999e-01
8.081178486e-01,1.02359e-01,9.99999e-01,9.71404e-01,1.05372e-01,9.99999e-01
8.121584379e-01,1.09171e-01,9.99999e-01,9.91006e-01,1.10162e-01,9.99999e-01
8.162192301e-01,1.14838e-01,9.99999e-01,9.98005e-01,1.15067e-01,9.99999e-01
8.203003262e-01,1.20084e-01,9.99999e-01,9.99966e-01,1.20088e-01,9.99999e-01
8.244018279e-01,1.25223e-01,9.99999e-01,9.99999e-01,1.25223e-01,9.99999e-01
8.285238370e-01,1.30469e-01,9.99999e-01,9.99999e-01,1.30469e-01,9.99999e-01
8.326664562e-01,1.35824e-01,9.99999e-01,9.99999e-01,1.35824e-01,9.99999e-01
8.368297885e-01,1.41287e-01,9.99999e-01,9.99999e-01,1.41287e-01,9.99999e-01
8.410139374e-01,1.46855e-01,9.99999e-01,9.99999e-01,1.46855e-01,9.99999e-01
8.452190071e-01,1.52527e-01,9.99999e-01,9.99999e-01,1.52527e-01,9.99999e-01
8.494451021e-01,1.58299e-01,9.99999e-01,9.99999e-01,1.58299e-01,9.99999e-01
8.536923276e-01,1.64168e-01,9.99999e-01,9.99999e-01,1.64168e-01,9.99999e-01
8.579607893e-01,1.70133e-01,9.99999e-01,9.99999e-01,1.70133e-01,9.99999e-01
8.622505932e-01,1.76191e-01,9.99999e-01,9.99999e-01,1.76191e-01,9.99999e-01
8.665618462e-01,1.57917e-01,9.99999e-01,8.66067e-01,1.82338e-01,9.99999e-01
8.708946554e-01,5.51745e-02,9.99999e-01,2.92592e-01,1.88572e-01,9.99999e-01
8.752491287e-01,6.92211e-02,9.99999e-01,3.55182e-01,1.94889e-01,9.99999e-01
8.796253743e-01,1.12073e-01,9.99999e-01,5.56780e-01,2.01287e-01,9.99999e-01
8.840235012e-01,1.52351e-01,9.99999e-01,7.33291e-01,2.07763e-01,9.99999e-01
8.884436187e-01,1.89358e-01,9.99999e-01,8.83559e-01,2.14312e-01,9.99999e-01
8.928858368e-01,2.10123e-01,9.99999e-01,9.51071e-01,2.20933e-01,9.99999e-01
8.973502660e-01,2.24846e-01,9.99999e-01,9.87806e-01,2.27621e-01,9.99999e-01
9.018370173e-01,2.34057e-01,9.99999e-01,9.98645e-01,2.34374e-01,9.99999e-01
9.063462024e-01,2.33385e-01,9.99999e-01,9.67647e-01,2.41188e-01,9.99999e-01
9.108779334e-01,2.29253e-01,9.99999e-01,9.24184e-01,2.48059e-01,9.99999e-01
9.154323231e-01,2.50262e-01,9.99999e-01,9.81476e-01,2.54985e-01,9.99999e-01
9.200094847e-01,2.09081e-01,9.99999e-01,7.98135e-01,2.61961e-01,9.99999e-01
9.246095321e-01,1.83478e-01,9.99999e-01,6.82109e-01,2.68985e-01,9.99999e-01
9.292325798e-01,2.06386e-01,9.99999e-01,7.47632e-01,2.76053e-01,9.99999e-01
9.338787427e-01,2.12405e-01,9.99999e-01,7.50117e-01,2.83162e-01,9.99999e-01
9.385481364e-01,2.34529e-01,9.99999e-01,8.07864e-01,2.90307e-01,9.99999e-01
9.432408771e-01,2.60709e-01,9.99999e-01,8.76371e-01,2.97487e-01,9.99999e-01
9.479570815e-01,2.84786e-01,9.99999e-01,9.34651e-01,3.04697e-01,9.99999e-01
9.526968669e-01,3.01927e-01,9.99999e-01,9.67918e-01,3.11934e-01,9.99999e-01
9.574603512e-01,3.14768e-01,9.99999e-01,9.86129e-01,3.19195e-01,9.99999e-01
9.622476530e-01,3.25056e-01,9.99999e-01,9.95647e-01,3.26477e-01,9.99999e-01
9.670588912e-01,3.33340e-01,9.99999e-01,9.98691e-01,3.33776e-01,9.99999e-01
9.718941857e-01,3.41057e-01,9.99999e-01,9.99905e-01,3.41090e-01,9.99999e-01
9.767536566e-01,3.48414e-01,9.99999e-01,9.99999e-01,3.48414e-01,9.99999e-01
9.816374249e-01,3.55746e-01,9.99999e-01,9.99999e-01,3.55746e-01,9.99999e-01
9.865456120e-01,3.63083e-01,9.99999e-01,9.99999e-01,3.63083e-01,9.99999e-01
9.914783401e-01,3.70422e-01,9.99999e-01,9.99999e-01,3.70422e-01,9.99999e-01
9.964357318e-01,3.77760e-01,9.99999e-01,9.99999e-01,3.77760e-01,9.99999e-01
1.001417910e+00,3.85095e-01,9.99999e-01,9.99999e-01,3.85095e-01,9.99999e-01
1.006425000e+00,3.92422e-01,9.99999e-01,9.99999e-01,3.92422e-01,9.99999e-01
1.011457125e+00,3.99740e-01,9.99999e-01,9.99999e-01,3.99740e-01,9.99999e-01
1.016514411e+00,4.07046e-01,9.99999e-01,9.99999e-01,4.07046e-01,9.99999e-01
1.021596983e+00,4.14271e-01,9.99999e-01,9.99838e-01,4.14338e-01,9.99999e-01
1.026704968e+00,4.16172e-01,9.99999e-01,9.87098e-01,4.21611e-01,9.99999e-01
1.031838492e+00,3.86662e-01,9.99999e-01,9.01592e-01,4.28866e-01,9.99999e-01
1.036997685e+00,1.96248e-02,9.99999e-01,4.50008e-02,4.36098e-01,9.99999e-01
1.042182673e+00,8.61754e-04,9.99999e-01,1.94393e-03,4.43305e-01,9.99999e-01
1.047393587e+00,2.45806e-03,9.99999e-01,5.45646e-03,4.50486e-01,9.99999e-01
1.052630555e+00,1.09464e-07,9.99999e-01,2.39193e-07,4.57638e-01,9.99999e-01
1.057893707e+00,4.04569e-07,9.99999e-01,8.70492e-07,4.64759e-01,9.99999e-01
1.063183176e+00,1.63087e-05,9.99999e-01,3.45635e-05,4.71846e-01,9.99999e-01
1.068499092e+00,1.99099e-04,9.99999e-01,4.15744e-04,4.78899e-01,9.99999e-01
1.073841587e+00,3.12648e-03,9.99999e-01,6.43422e-03,4.85915e-01,9.99999e-01
1.079210795e+00,2.09204e-02,9.99999e-01,4.24442e-02,4.92891e-01,9.99999e-01
1.084606849e+00,8.20702e-02,9.99999e-01,1.64197e-01,4.99827e-01,9.99999e-01
1.090029883e+00,1.96475e-01,9.99999e-01,3.87738e-01,5.06721e-01,9.99999e-01
1.095480033e+00,3.21071e-01,9.99999e-01,6.25172e-01,5.13571e-01,9.99999e-01
1.100957433e+00,4.14368e-01,9.99999e-01,7.96285e-01,5.20376e-01,9.99999e-01
1.106462220e+00,4.79599e-01,9.99999e-01,9.09824e-01,5.27133e-01,9.99999e-01
1.111994531e+00,5.15439e-01,9.99999e-01,9.65526e-01,5.33843e-01,9.99999e-01
1.117554504e+00,5.35872e-01,9.99999e-01,9.91433e-01,5.40502e-01,9.99999e-01
1.123142276e+00,5.46800e-01,9.99999e-01,9.99431e-01,5.47111e-01,9.99999e-01
1.128757988e+00,5.53667e-01,9.99999e-01,9.99999e-01,5.53667e-01,9.99999e-01
1.134401778e+00,5.60171e-01,9.99999e-01,9.99999e-01,5.60171e-01,9.99999e-01
1.140073787e+00,5.66620e-01,9.99999e-01,9.99999e-01,5.66620e-01,9.99999e-01
1.145774156e+00,5.73013e-01,9.99999e-01,9.99999e-01,5.73013e-01,9.99999e-01
1.151503026e+00,5.79351e-01,9.99999e-01,9.99999e-01,5.79351e-01,9.99999e-01
1.157260541e+00,5.85631e-01,9.99999e-01,9.99999e-01,5.85631e-01,9.99999e-01
1.163046844e+00,5.91853e-01,9.99999e-01,9.99999e-01,5.91853e-01,9.99999e-01
1.168862078e+00,5.98017e-01,9.99999e-01,9.99999e-01,5.98017e-01,9.99999e-01
1.174706389e+00,6.04121e-01,9.99999e-01,9.99999e-01,6.04121e-01,9.99999e-01
1.180579921e+00,6.10165e-01,9.99999e-01,9.99999e-01,6.10165e-01,9.99999e-01
1.186482820e+00,6.16138e-01,9.99999e-01,9.99982e-01,6.16148e-01,9.99999e-01
1.192415234e+00,5.95124e-01,9.99999e-01,9.56681e-01,6.22070e-01,9.99999e-01
1.198377311e+00,3.21043e-01,9.99999e-01,5.11271e-01,6.27930e-01,9.99999e-01
1.204369197e+00,3.47196e-34,9.99999e-01,5.47862e-34,6.33729e-01,9.99999e-01
1.210391043e+00,1.83810e-139,9.99999e-01,2.87444e-139,6.39464e-01,9.99999e-01
1.216442998e+00,1.23314e-120,9.99999e-01,1.91144e-120,6.45137e-01,9.99999e-01
1.222525213e+00,8.05018e-119,9.99999e-01,1.23707e-118,6.50746e-01,9.99999e-01
1.228637839e+00,1.36111e-91,9.99999e-01,2.07393e-91,6.56292e-01,9.99999e-01
1.234781029e+00,7.57835e-57,9.99999e-01,1.14516e-56,6.61774e-01,9.99999e-01
1.240954934e+00,1.24419e-37,9.99999e-01,1.86480e-37,6.67193e-01,9.99999e-01
1.247159708e+00,6.15041e-18,9.99999e-01,9.14494e-18,6.72547e-01,9.99999e-01
1.253395507e+00,3.14554e-12,9.99999e-01,4.64054e-12,6.77838e-01,9.99999e-01
1.259662485e+00,1.25070e-07,9.99999e-01,1.83101e-07,6.83064e-01,9.99999e-01
1.265960797e+00,2.26059e-04,9.99999e-01,3.28465e-04,6.88226e-01,9.99999e-01
1.272290601e+00,1.18942e-02,9.99999e-01,1.71552e-02,6.93324e-01,9.99999e-01
1.278652054e+00,1.50039e-02,9.99999e-01,2.14845e-02,6.98358e-01,9.99999e-01
1.285045314e+00,9.89392e-06,9.99999e-01,1.40673e-05,7.03328e-01,9.99999e-01
1.291470541e+00,2.86271e-16,9.99999e-01,4.04203e-16,7.08235e-01,9.99999e-01
1.297927893e+00,6.48403e-07,9.99999e-01,9.09302e-07,7.13077e-01,9.99999e-01
1.304417533e+00,6.41757e-04,9.99999e-01,8.93990e-04,7.17856e-01,9.99999e-01
1.310939621e+00,1.80391e-04,9.99999e-01,2.49652e-04,7.22572e-01,9.99999e-01
1.317494319e+00,3.26863e-47,9.99999e-01,4.49467e-47,7.27224e-01,9.99999e-01
1.324081790e+00,7.31508e-31,9.99999e-01,9.99581e-31,7.31814e-01,9.99999e-01
1.330702199e+00,2.28165e-18,9.99999e-01,3.09863e-18,7.36341e-01,9.99999e-01
1.337355710e+00,9.73136e-17,9.99999e-01,1.31362e-16,7.40806e-01,9.99999e-01
1.344042489e+00,5.62751e-17,9.99999e-01,7.55157e-17,7.45210e-01,9.99999e-01
1.350762701e+00,1.07583e-18,9.99999e-01,1.43530e-18,7.49551e-01,9.99999e-01
1.357516515e+00,2.69892e-11,9.99999e-01,3.58027e-11,7.53831e-01,9.99999e-01
1.364304097e+00,2.31702e-08,9.99999e-01,3.05654e-08,7.58051e-01,9.99999e-01
1.371125618e+00,1.14815e-04,9.99999e-01,1.50634e-04,7.62210e-01,9.99999e-01
1.377981246e+00,3.66925e-04,9.99999e-01,4.78821e-04,7.66309e-01,9.99999e-01
1.384871152e+00,8.84694e-03,9.99999e-01,1.14843e-02,7.70348e-01,9.99999e-01
1.391795508e+00,1.26529e-02,9.99999e-01,1.63405e-02,7.74329e-01,9.99999e-01
1.398754485e+00,5.73838e-02,9.99999e-01,7.37342e-02,7.78250e-01,9.99999e-01
1.405748258e+00,1.17455e-01,9.99999e-01,1.50176e-01,7.82114e-01,9.99999e-01
1.412776999e+00,2.34208e-01,9.99999e-01,2.98005e-01,7.85920e-01,9.99999e-01
1.419840884e+00,2.29011e-01,9.99999e-01,2.90009e-01,7.89668e-01,9.99999e-01
1.426940089e+00,7.54086e-03,9.99998e-01,9.50496e-03,7.93360e-01,9.99999e-01
1.434074789e+00,0.00000e+00,9.99999e-01,0.00000e+00,7.96996e-01,9.99999e-01
1.441245163e+00,0.00000e+00,9.99999e-01,0.00000e+00,8.00576e-01,9.99999e-01
1.448451389e+00,0.00000e+00,9.99998e-01,0.00000e+00,8.04101e-01,9.99999e-01
1.455693646e+00,0.00000e+00,9.99999e-01,0.00000e+00,8.07572e-01,9.99999e-01
1.462972114e+00,0.00000e+00,9.99999e-01,0.00000e+00,8.10988e-01,9.99999e-01
1.470286975e+00,2.24507e-231,9.99999e-01,2.75688e-231,8.14351e-01,9.99999e-01
