#,Wave/freq,Total,N2,CO2,Rayleigh,CIA
4.000000000e-01,8.00204e-08,9.99999e-01,9.99999e-01,8.00204e-08,9.99999e-01
4.020000000e-01,1.10541e-07,9.99999e-01,9.99999e-01,1.10541e-07,9.99999e-01
4.040100000e-01,1.51681e-07,9.99999e-01,9.99999e-01,1.51681e-07,9.99999e-01
4.060300500e-01,2.06835e-07,9.99999e-01,9.99999e-01,2.06835e-07,9.99999e-01
4.080602003e-01,2.80322e-07,9.99999e-01,9.99999e-01,2.80322e-07,9.99999e-01
4.101005013e-01,3.77643e-07,9.99999e-01,9.99999e-01,3.77643e-07,9.99999e-01
4.121510038e-01,5.05766e-07,9.99999e-01,9.99999e-01,5.05766e-07,9.99999e-01
4.142117588e-01,6.73461e-07,9.99999e-01,9.99999e-01,6.73461e-07,9.99999e-01
4.162828176e-01,8.91700e-07,9.99999e-01,9.99999e-01,8.91700e-07,9.99999e-01
4.183642317e-01,1.17413e-06,9.99999e-01,9.99999e-01,1.17413e-06,9.99999e-01
4.204560528e-01,1.53764e-06,9.99999e-01,9.99999e-01,1.53764e-06,9.99999e-01
4.225583331e-01,2.00299e-06,9.99999e-01,9.99999e-01,2.00299e-06,9.99999e-01
4.246711247e-01,2.59558e-06,9.99999e-01,9.99999e-01,2.59558e-06,9.99999e-01
4.267944804e-01,3.34632e-06,9.99999e-01,9.99999e-01,3.34632e-06,9.99999e-01
4.289284528e-01,4.29260e-06,9.99999e-01,9.99999e-01,4.29260e-06,9.99999e-01
4.310730950e-01,5.47946e-06,9.99999e-01,9.99999e-01,5.47946e-06,9.99999e-01
4.332284605e-01,6.96083e-06,9.99999e-01,9.99999e-01,6.96083e-06,9.99999e-01
4.353946028e-01,8.80098e-06,9.99999e-01,9.99999e-01,8.80098e-06,9.99999e-01
4.375715758e-01,1.10762e-05,9.99999e-01,9.99999e-01,1.10762e-05,9.99999e-01
4.397594337e-01,1.38763e-05,9.99999e-01,9.99999e-01,1.38763e-05,9.99999e-01
4.419582309e-01,1.73072e-05,9.99999e-01,9.99999e-01,1.73072e-05,9.99999e-01
4.441680220e-01,2.14923e-05,9.99999e-01,9.99999e-01,2.14923e-05,9.99999e-01
4.463888621e-01,2.65756e-05,9.99999e-01,9.99999e-01,2.65756e-05,9.99999e-01
4.486208064e-01,3.27235e-05,9.99999e-01,9.99999e-01,3.27235e-05,9.99999e-01
4.508639105e-01,4.01285e-05,9.99999e-01,9.99999e-01,4.01285e-05,9.99999e-01
4.531182300e-01,4.90112e-05,9.99999e-01,9.99999e-01,4.90112e-05,9.99999e-01
4.553838212e-01,5.96242e-05,9.99999e-01,9.99999e-01,5.96242e-05,9.99999e-01
4.576607403e-01,7.22551e-05,9.99999e-01,9.99999e-01,7.22551e-05,9.99999e-01
4.599490440e-01,8.72301e-05,9.99999e-01,9.99999e-01,8.72301e-05,9.99999e-01
4.622487892e-01,1.04918e-04,9.99999e-01,9.99999e-01,1.04918e-04,9.99999e-01
4.645600332e-01,1.25732e-04,9.99999e-01,9.99999e-01,1.25732e-04,9.99999e-01
4.668828333e-01,1.50138e-04,9.99999e-01,9.99999e-01,1.50138e-04,9.99999e-01
4.692172475e-01,1.78655e-04,9.99999e-01,9.99999e-01,1.78655e-04,9.99999e-01
4.715633337e-01,2.11859e-04,9.99999e-01,9.99999e-01,2.11859e-04,9.99999e-01
4.739211504e-01,2.50390e-04,9.99999e-01,9.99999e-01,2.50390e-04,9.99999e-01
4.762907561e-01,2.94953e-04,9.99999e-01,9.99999e-01,2.94953e-04,9.99999e-01
4.786722099e-01,3.46326e-04,9.99999e-01,9.99999e-01,3.46326e-04,9.99999e-01
4.810655710e-01,4.05358e-04,9.99999e-01,9.99999e-01,4.05358e-04,9.99999e-01
4.834708988e-01,4.72979e-04,9.99999e-01,9.99999e-01,4.72979e-04,9.99999e-01
4.858882533e-01,5.50202e-04,9.99999e-01,9.99999e-01,5.50202e-04,9.99999e-01
4.883176946e-01,6.38124e-04,9.99999e-01,9.99999e-01,6.38124e-04,9.99999e-01
4.907592831e-01,7.37931e-04,9.99999e-01,9.99999e-01,7.37931e-04,9.99999e-01
4.932130795e-01,8.50904e-04,9.99999e-01,9.99999e-01,8.50904e-04,9.99999e-01
4.956791449e-01,9.78414e-04,9.99999e-01,9.99999e-01,9.78414e-04,9.99999e-01
4.981575406e-01,1.12193e-03,9.99999e-01,9.99999e-01,1.12193e-03,9.99999e-01
5.006483283e-01,1.28303e-03,9.99999e-01,9.99999e-01,1.28303e-03,9.99999e-01
5.031515699e-01,1.46338e-03,9.99999e-01,9.99999e-01,1.46338e-03,9.99999e-01
5.056673278e-01,1.66475e-03,9.99999e-01,9.99999e-01,1.66475e-03,9.99999e-01
5.081956644e-01,1.88901e-03,9.99999e-01,9.99999e-01,1.88901e-03,9.99999e-01
5.107366428e-01,2.13813e-03,9.99999e-01,9.99999e-01,2.13813e-03,9.99999e-01
5.132903260e-01,2.41420e-03,9.99999e-01,9.99999e-01,2.41420e-03,9.99999e-01
5.158567776e-01,2.71938e-03,9.99999e-01,9.99999e-01,2.71938e-03,9.99999e-01
5.184360615e-01,3.05595e-03,9.99999e-01,9.99999e-01,3.05595e-03,9.99999e-01
5.210282418e-01,3.42626e-03,9.99999e-01,9.99999e-01,3.42626e-03,9.99999e-01
5.236333830e-01,3.83278e-03,9.99999e-01,9.99999e-01,3.83278e-03,9.99999e-01
5.262515499e-01,4.27804e-03,9.99999e-01,9.99999e-01,4.27804e-03,9.99999e-01
5.288828077e-01,4.76468e-03,9.99999e-01,9.99999e-01,4.76468e-03,9.99999e-01
5.315272217e-01,5.29540e-03,9.99999e-01,9.99999e-01,5.29540e-03,9.99999e-01
5.341848578e-01,5.87296e-03,9.99999e-01,9.99999e-01,5.87296e-03,9.99999e-01
5.368557821e-01,6.50022e-03,9.99999e-01,9.99999e-01,6.50022e-03,9.99999e-01
5.395400610e-01,7.18006e-03,9.99999e-01,9.99999e-01,7.18006e-03,9.99999e-01
5.422377613e-01,7.91543e-03,9.99999e-01,9.99999e-01,7.91543e-03,9.99999e-01
5.449489501e-01,8.70933e-03,9.99999e-01,9.99999e-01,8.70933e-03,9.99999e-01
5.476736949e-01,9.56479e-03,9.99999e-01,9.99999e-01,9.56479e-03,9.99999e-01
5.504120634e-01,1.04848e-02,9.99999e-01,9.99999e-01,1.04848e-02,9.99999e-01
5.531641237e-01,1.14726e-02,9.99999e-01,9.99999e-01,1.14726e-02,9.99999e-01
5.559299443e-01,1.25310e-02,9.99999e-01,9.99999e-01,1.25310e-02,9.99999e-01
5.587095940e-01,1.36633e-02,9.99999e-01,9.99999e-01,1.36633e-02,9.99999e-01
5.615031420e-01,1.48725e-02,9.99999e-01,9.99999e-01,1.48725e-02,9.99999e-01
5.643106577e-01,1.61616e-02,9.99999e-01,9.99999e-01,1.61616e-02,9.99999e-01
5.671322110e-01,1.75336e-02,9.99999e-01,9.99999e-01,1.75336e-02,9.99999e-01
5.699678720e-01,1.89915e-02,9.99999e-01,9.99999e-01,1.89915e-02,9.99999e-01
5.728177114e-01,2.05382e-02,9.99999e-01,9.99999e-01,2.05382e-02,9.99999e-01
5.756818000e-01,2.21765e-02,9.99999e-01,9.99999e-01,2.21765e-02,9.99999e-01
5.785602090e-01,2.39092e-02,9.99999e-01,9.99999e-01,2.39092e-02,9.99999e-01
5.814530100e-01,2.57391e-02,9.99999e-01,9.99999e-01,2.57391e-02,9.99999e-01
5.843602750e-01,2.76686e-02,9.99999e-01,9.99999e-01,2.76686e-02,9.99999e-01
5.872820764e-01,2.97004e-02,9.99999e-01,9.99999e-01,2.97004e-02,9.99999e-01
5.902184868e-01,3.18368e-02,9.99999e-01,9.99999e-01,3.18368e-02,9.99999e-01
5.931695792e-01,3.40800e-02,9.99999e-01,9.99999e-01,3.40800e-02,9.99999e-01
5.961354271e-01,3.64323e-02,9.99999e-01,9.99999e-01,3.64323e-02,9.99999e-01
5.991161043e-01,3.88956e-02,9.99999e-01,9.99999e-01,3.88956e-02,9.99999e-01
6.021116848e-01,4.14719e-02,9.99999e-01,9.99999e-01,4.14719e-02,9.99999e-01
6.051222432e-01,4.41628e-02,9.99999e-01,9.99999e-01,4.41628e-02,9.99999e-01
6.081478544e-01,4.69699e-02,9.99999e-01,9.99999e-01,4.69699e-02,9.99999e-01
6.111885937e-01,4.98947e-02,9.99999e-01,9.99999e-01,4.98947e-02,9.99999e-01
6.142445367e-01,5.29385e-02,9.99999e-01,9.99999e-01,5.29385e-02,9.99999e-01
6.173157594e-01,5.61022e-02,9.99999e-01,9.99999e-01,5.61022e-02,9.99999e-01
6.204023382e-01,5.93869e-02,9.99999e-01,9.99999e-01,5.93869e-02,9.99999e-01
6.235043498e-01,6.27933e-02,9.99999e-01,9.99999e-01,6.27933e-02,9.99999e-01
6.266218716e-01,6.63220e-02,9.99999e-01,9.99999e-01,6.63220e-02,9.99999e-01
6.297549810e-01,6.99734e-02,9.99999e-01,9.99999e-01,6.99734e-02,9.99999e-01
6.329037559e-01,7.37476e-02,9.99999e-01,9.99999e-01,7.37476e-02,9.99999e-01
6.360682746e-01,7.76449e-02,9.99999e-01,9.99999e-01,7.76449e-02,9.99999e-01
6.392486160e-01,8.16650e-02,9.99999e-01,9.99999e-01,8.16650e-02,9.99999e-01
6.424448591e-01,8.58076e-02,9.99999e-01,9.99999e-01,8.58076e-02,9.99999e-01
6.456570834e-01,9.00723e-02,9.99999e-01,9.99999e-01,9.00723e-02,9.99999e-01
6.488853688e-01,9.44584e-02,9.99999e-01,9.99999e-01,9.44584e-02,9.99999e-01
6.521297956e-01,9.89652e-02,9.99999e-01,9.99999e-01,9.89652e-02,9.99999e-01
6.553904446e-01,1.03591e-01,9.99999e-01,9.99999e-01,1.03591e-01,9.99999e-01
6.586673968e-01,1.08336e-01,9.99999e-01,9.99999e-01,1.08336e-01,9.99999e-01
6.619607338e-01,1.13198e-01,9.99999e-01,9.99999e-01,1.13198e-01,9.99999e-01
6.652705375e-01,1.18176e-01,9.99999e-01,9.99999e-01,1.18176e-01,9.99999e-01
6.685968902e-01,1.23267e-01,9.99999e-01,9.99999e-01,1.23267e-01,9.99999e-01
6.719398746e-01,1.28471e-01,9.99999e-01,9.99999e-01,1.28471e-01,9.99999e-01
6.752995740e-01,1.33786e-01,9.99999e-01,9.99999e-01,1.33786e-01,9.99999e-01
6.786760719e-01,1.39208e-01,9.99999e-01,9.99999e-01,1.39208e-01,9.99999e-01
6.820694522e-01,1.44737e-01,9.99999e-01,9.99999e-01,1.44737e-01,9.99999e-01
6.854797995e-01,1.50370e-01,9.99999e-01,9.99999e-01,1.50370e-01,9.99999e-01
6.889071985e-01,1.56104e-01,9.99999e-01,9.99999e-01,1.56104e-01,9.99999e-01
6.923517345e-01,1.61937e-01,9.99999e-01,9.99999e-01,1.61937e-01,9.99999e-01
6.958134932e-01,1.67866e-01,9.99999e-01,9.99999e-01,1.67866e-01,9.99999e-01
6.992925606e-01,1.73889e-01,9.99999e-01,9.99999e-01,1.73889e-01,9.99999e-01
7.027890234e-01,1.80002e-01,9.99999e-01,9.99999e-01,1.80002e-01,9.99999e-01
7.063029686e-01,1.86204e-01,9.99999e-01,9.99999e-01,1.86204e-01,9.99999e-01
7.098344834e-01,1.92490e-01,9.99999e-01,9.99999e-01,1.92490e-01,9.99999e-01
7.133836558e-01,1.98858e-01,9.99999e-01,9.99999e-01,1.98858e-01,9.99999e-01
7.169505741e-01,2.05304e-01,9.99999e-01,9.99999e-01,2.05304e-01,9.99999e-01
7.205353270e-01,2.11826e-01,9.99999e-01,9.99999e-01,2.11826e-01,9.99999e-01
7.241380036e-01,2.18421e-01,9.99999e-01,9.99999e-01,2.18421e-01,9.99999e-01
7.277586936e-01,2.25084e-01,9.99999e-01,9.99999e-01,2.25084e-01,9.99999e-01
7.313974871e-01,2.31813e-01,9.99999e-01,9.99999e-01,2.31813e-01,9.99999e-01
7.350544745e-01,2.38604e-01,9.99999e-01,9.99999e-01,2.38604e-01,9.99999e-01
7.387297469e-01,2.45454e-01,9.99999e-01,9.99999e-01,2.45454e-01,9.99999e-01
7.424233956e-01,2.52359e-01,9.99999e-01,9.99999e-01,2.52359e-01,9.99999e-01
7.461355126e-01,2.59317e-01,9.99999e-01,9.99999e-01,2.59317e-01,9.99999e-01
7.498661902e-01,2.66323e-01,9.99999e-01,9.99999e-01,2.66323e-01,9.99999e-01
7.536155211e-01,2.73375e-01,9.99999e-01,9.99999e-01,2.73375e-01,9.99999e-01
7.573835987e-01,2.80468e-01,9.99999e-01,9.99999e-01,2.80468e-01,9.99999e-01
7.611705167e-01,2.87601e-01,9.99999e-01,9.99999e-01,2.87601e-01,9.99999e-01
7.649763693e-01,2.94768e-01,9.99999e-01,9.99999e-01,2.94768e-01,9.99999e-01
7.688012511e-01,3.01967e-01,9.99999e-01,9.99999e-01,3.01967e-01,9.99999e-01
7.726452574e-01,3.09194e-01,9.99999e-01,9.99999e-01,3.09194e-01,9.99999e-01
7.765084837e-01,3.16446e-01,9.99999e-01,9.99999e-01,3.16446e-01,9.99999e-01
7.803910261e-01,3.07295e-01,9.99999e-01,9.49260e-01,3.23721e-01,9.99999e-01
7.842929812e-01,2.63091e-01,9.99999e-01,7.94804e-01,3.31014e-01,9.99999e-01
7.882144461e-01,2.64506e-01,9.99999e-01,7.81817e-01,3.38322e-01,9.99999e-01
7.921555184e-01,2.98749e-01,9.99999e-01,8.64330e-01,3.45642e-01,9.99999e-01
7.961162960e-01,3.20218e-01,9.99999e-01,9.07205e-01,3.52972e-01,9.99999e-01
8.000968774e-01,3.41751e-01,9.99999e-01,9.48496e-01,3.60308e-01,9.99999e-01
8.040973618e-01,3.57737e-01,9.99999e-01,9.73047e-01,3.67646e-01,9.99999e-01
8.081178486e-01,3.70298e-01,9.99999e-01,9.87499e-01,3.74985e-01,9.99999e-01
8.121584379e-01,3.80849e-01,9.99999e-01,9.96149e-01,3.82321e-01,9.99999e-01
8.162192301e-01,3.89320e-01,9.99999e-01,9.99148e-01,3.89652e-01,9.99999e-01
8.203003262e-01,3.96969e-01,9.99999e-01,9.99987e-01,3.96974e-01,9.99999e-01
8.244018279e-01,4.04284e-01,9.99999e-01,9.99999e-01,4.04284e-01,9.99999e-01
8.285238370e-01,4.11582e-01,9.99999e-01,9.99999e-01,4.11582e-01,9.99999e-01
8.326664562e-01,4.18862e-01,9.99999e-01,9.99999e-01,4.18862e-01,9.99999e-01
8.368297885e-01,4.26124e-01,9.99999e-01,9.99999e-01,4.26124e-01,9.99999e-01
8.410139374e-01,4.33365e-01,9.99999e-01,9.99999e-01,4.33365e-01,9.99999e-01
8.452190071e-01,4.40582e-01,9.99999e-01,9.99999e-01,4.40582e-01,9.99999e-01
8.494451021e-01,4.47773e-01,9.99999e-01,9.99999e-01,4.47773e-01,9.99999e-01
8.536923276e-01,4.54936e-01,9.99999e-01,9.99999e-01,4.54936e-01,9.99999e-01
8.579607893e-01,4.62069e-01,9.99999e-01,9.99999e-01,4.62069e-01,9.99999e-01
8.622505932e-01,4.69170e-01,9.99999e-01,9.99999e-01,4.69170e-01,9.99999e-01
8.665618462e-01,4.29893e-01,9.99999e-01,9.02688e-01,4.76236e-01,9.99999e-01
8.708946554e-01,2.70835e-01,9.99999e-01,5.60427e-01,4.83265e-01,9.99999e-01
8.752491287e-01,3.06400e-01,9.99999e-01,6.24977e-01,4.90257e-01,9.99999e-01
8.796253743e-01,3.83285e-01,9.99999e-01,7.70874e-01,4.97209e-01,9.99999e-01
8.840235012e-01,4.40176e-01,9.99999e-01,8.73158e-01,5.04119e-01,9.99999e-01
8.884436187e-01,4.84433e-01,9.99999e-01,9.48035e-01,5.10986e-01,9.99999e-01
8.928858368e-01,5.06709e-01,9.99999e-01,9.78566e-01,5.17807e-01,9.99999e-01
8.973502660e-01,5.21842e-01,9.99999e-01,9.94773e-01,5.24583e-01,9.99999e-01
9.018370173e-01,5.31005e-01,9.99999e-01,9.99423e-01,5.31311e-01,9.99999e-01
9.063462024e-01,5.29931e-01,9.99999e-01,9.85021e-01,5.37989e-01,9.99999e-01
9.108779334e-01,5.26287e-01,9.99999e-01,9.66343e-01,5.44617e-01,9.99999e-01
9.154323231e-01,5.46815e-01,9.99999e-01,9.92055e-01,5.51194e-01,9.99999e-01
9.200094847e-01,4.97592e-01,9.99999e-01,8.92193e-01,5.57717e-01,9.99999e-01
9.246095321e-01,4.77207e-01,9.99999e-01,8.45830e-01,5.64187e-01,9.99999e-01
9.292325798e-01,5.00300e-01,9.99999e-01,8.76793e-01,5.70602e-01,9.99999e-01
9.338787427e-01,5.08324e-01,9.99999e-01,8.81036e-01,5.76960e-01,9.99999e-01
9.385481364e-01,5.31301e-01,9.99999e-01,9.10911e-01,5.83262e-01,9.99999e-01
9.432408771e-01,5.56792e-01,9.99999e-01,9.44504e-01,5.89507e-01,9.99999e-01
9.479570815e-01,5.78469e-01,9.99999e-01,9.71086e-01,5.95693e-01,9.99999e-01
9.526968669e-01,5.93382e-01,9.99999e-01,9.85979e-01,6.01819e-01,9.99999e-01
9.574603512e-01,6.04229e-01,9.99999e-01,9.93983e-01,6.07886e-01,9.99999e-01
9.622476530e-01,6.12739e-01,9.99999e-01,9.98121e-01,6.13892e-01,9.99999e-01
9.670588912e-01,6.19489e-01,9.99999e-01,9.99437e-01,6.19838e-01,9.99999e-01
9.718941857e-01,6.25697e-01,9.99999e-01,9.99960e-01,6.25721e-01,9.99999e-01
9.767536566e-01,6.31543e-01,9.99999e-01,9.99999e-01,6.31543e-01,9.99999e-01
9.816374249e-01,6.37302e-01,9.99999e-01,9.99999e-01,6.37302e-01,9.99999e-01
9.865456120e-01,6.42999e-01,9.99999e-01,9.99999e-01,6.42999e-01,9.99999e-01
9.914783401e-01,6.48632e-01,9.99999e-01,9.99999e-01,6.48632e-01,9.99999e-01
9.964357318e-01,6.54202e-01,9.99999e-01,9.99999e-01,6.54202e-01,9.99999e-01
1.001417910e+00,6.59708e-01,9.99999e-01,9.99999e-01,6.59708e-01,9.99999e-01
1.006425000e+00,6.65151e-01,9.99999e-01,9.99999e-01,6.65151e-01,9.99999e-01
1.011457125e+00,6.70530e-01,9.99999e-01,9.99999e-01,6.70530e-01,9.99999e-01
1.016514411e+00,6.75844e-01,9.99999e-01,9.99999e-01,6.75844e-01,9.99999e-01
1.021596983e+00,6.81035e-01,9.99999e-01,9.99912e-01,6.81095e-01,9.99999e-01
1.026704968e+00,6.82233e-01,9.99999e-01,9.94100e-01,6.86281e-01,9.99999e-01
1.031838492e+00,6.48377e-01,9.99999e-01,9.37768e-01,6.91404e-01,9.99999e-01
1.036997685e+00,7.02271e-02,9.99999e-01,1.00834e-01,6.96462e-01,9.99999e-01
1.042182673e+00,3.03344e-02,9.99999e-01,4.32449e-02,7.01456e-01,9.99999e-01
1.047393587e+00,4.60436e-02,9.99999e-01,6.51819e-02,7.06386e-01,9.99999e-01
1.052630555e+00,2.66215e-04,9.99999e-01,3.74289e-04,7.11253e-01,9.99999e-01
1.057893707e+00,8.51386e-04,9.99999e-01,1.18899e-03,7.16056e-01,9.99999e-01
1.063183176e+00,4.80233e-03,9.99999e-01,6.66254e-03,7.20796e-01,9.99999e-01
1.068499092e+00,1.99759e-02,9.99999e-01,2.75350e-02,7.25472e-01,9.99999e-01
1.073841587e+00,7.48833e-02,9.99999e-01,1.02568e-01,7.30086e-01,9.99999e-01
1.079210795e+00,1.73773e-01,9.99999e-01,2.36543e-01,7.34636e-01,9.99999e-01
1.084606849e+00,3.32146e-01,9.99999e-01,4.49377e-01,7.39125e-01,9.99999e-01
1.090029883e+00,4.90153e-01,9.99999e-01,6.59204e-01,7.43551e-01,9.99999e-01
1.095480033e+00,6.09082e-01,9.99999e-01,8.14371e-01,7.47916e-01,9.99999e-01
1.100957433e+00,6.81252e-01,9.99999e-01,9.05655e-01,7.52220e-01,9.99999e-01
1.106462220e+00,7.26110e-01,9.99999e-01,9.59875e-01,7.56462e-01,9.99999e-01
1.111994531e+00,7.49182e-01,9.99999e-01,9.84931e-01,7.60644e-01,9.99999e-01
1.117554504e+00,7.61947e-01,9.99999e-01,9.96314e-01,7.64766e-01,9.99999e-01
1.123142276e+00,7.68642e-01,9.99999e-01,9.99758e-01,7.68828e-01,9.99999e-01
1.128757988e+00,7.72830e-01,9.99999e-01,9.99999e-01,7.72830e-01,9.99999e-01
1.134401778e+00,7.76774e-01,9.99999e-01,9.99999e-01,7.76774e-01,9.99999e-01
1.140073787e+00,7.80659e-01,9.99999e-01,9.99999e-01,7.80659e-01,9.99999e-01
1.145774156e+00,7.84487e-01,9.99999e-01,9.99999e-01,7.84487e-01,9.99999e-01
1.151503026e+00,7.88257e-01,9.99999e-01,9.99999e-01,7.88257e-01,9.99999e-01
1.157260541e+00,7.91970e-01,9.99999e-01,9.99999e-01,7.91970e-01,9.99999e-01
1.163046844e+00,7.95627e-01,9.99999e-01,9.99999e-01,7.95627e-01,9.99999e-01
1.168862078e+00,7.99228e-01,9.99999e-01,9.99999e-01,7.99228e-01,9.99999e-01
1.174706389e+00,8.02774e-01,9.99999e-01,9.99999e-01,8.02774e-01,9.99999e-01
1.180579921e+00,8.06265e-01,9.99999e-01,9.99999e-01,8.06265e-01,9.99999e-01
1.186482820e+00,8.09692e-01,9.99999e-01,9.99986e-01,8.09702e-01,9.99999e-01
1.192415234e+00,7.96190e-01,9.99999e-01,9.79220e-01,8.13085e-01,9.99999e-01
1.198377311e+00,4.47337e-01,9.99999e-01,5.47928e-01,8.16415e-01,9.99999e-01
1.204369197e+00,3.53276e-16,9.99999e-01,4.30986e-16,8.19693e-01,9.99999e-01
1.210391043e+00,4.33768e-62,9.99999e-01,5.27109e-62,8.22918e-01,9.99999e-01
1.216442998e+00,7.03011e-54,9.99999e-01,8.51007e-54,8.26092e-01,9.99999e-01
1.222525213e+00,4.35411e-53,9.99999e-01,5.25087e-53,8.29215e-01,9.99999e-01
1.228637839e+00,4.25289e-41,9.99999e-01,5.10987e-41,8.32289e-01,9.99999e-01
1.234781029e+00,4.63537e-26,9.99999e-01,5.54926e-26,8.35312e-01,9.99999e-01
1.240954934e+00,1.78934e-17,9.99999e-01,2.13452e-17,8.38286e-01,9.99999e-01
1.247159708e+00,4.33895e-09,9.99999e-01,5.15797e-09,8.41212e-01,9.99999e-01
1.253395507e+00,4.96046e-06,9.99999e-01,5.87668e-06,8.44090e-01,9.99999e-01
1.259662485e+00,8.45627e-04,9.99999e-01,9.98471e-04,8.46921e-01,9.99999e-01
1.265960797e+00,1.65274e-02,9.99999e-01,1.94508e-02,8.49705e-01,9.99999e-01
1.272290601e+00,1.51694e-01,9.99999e-01,1.77952e-01,8.52443e-01,9.99999e-01
1.278652054e+00,1.28221e-01,9.99999e-01,1.49942e-01,8.55135e-01,9.99999e-01
1.285045314e+00,1.09144e-03,9.99999e-01,1.27239e-03,8.57783e-01,9.99999e-01
1.291470541e+00,7.17131e-08,9.99999e-01,8.33498e-08,8.60386e-01,9.99999e-01
1.297927893e+00,1.53628e-03,9.99999e-01,1.78027e-03,8.62945e-01,9.99999e-01
1.304417533e+00,3.67144e-02,9.99999e-01,4.24217e-02,8.65461e-01,9.99999e-01
1.310939621e+00,5.96568e-03,9.99999e-01,6.87341e-03,8.67935e-01,9.99999e-01
1.317494319e+00,7.14669e-22,9.99999e-01,8.21112e-22,8.70366e-01,9.99999e-01
1.324081790e+00,1.31427e-14,9.99999e-01,1.50588e-14,8.72757e-01,9.99999e-01
1.330702199e+00,1.15778e-08,9.99999e-01,1.32301e-08,8.75106e-01,9.99999e-01
1.337355710e+00,3.20676e-08,9.99999e-01,3.65478e-08,8.77415e-01,9.99999e-01
1.344042489e+00,1.14854e-08,9.99999e-01,1.30563e-08,8.79685e-01,9.99999e-01
1.350762701e+00,6.63302e-09,9.99999e-01,7.52115e-09,8.81915e-01,9.99999e-01
1.357516515e+00,7.76948e-06,9.99999e-01,8.78793e-06,8.84106e-01,9.99999e-01
1.364304097e+00,3.34340e-04,9.99999e-01,3.77247e-04,8.86260e-01,9.99999e-01
1.371125618e+00,1.52981e-02,9.99999e-01,1.72203e-02,8.88376e-01,9.99999e-01
1.377981246e+00,2.93748e-02,9.99999e-01,3.29885e-02,8.90456e-01,9.99999e-01
1.384871152e+00,1.22598e-01,9.99999e-01,1.37365e-01,8.92499e-01,9.99999e-01
1.391795508e+00,1.43050e-01,9.99999e-01,1.59920e-01,8.94506e-01,9.99999e-01
1.398754485e+00,2.87157e-01,9.99999e-01,3.20317e-01,8.96478e-01,9.99999e-01
1.405748258e+00,3.89988e-01,9.99999e-01,4.34084e-01,8.98415e-01,9.99999e-01
1.412776999e+00,5.30814e-01,9.99999e-01,5.89584e-01,9.00318e-01,9.99999e-01
1.419840884e+00,4.73288e-01,9.99999e-01,5.24601e-01,9.02187e-01,9.99999e-01
1.426940089e+00,3.07968e-02,9.99999e-01,3.40663e-02,9.04024e-01,9.99999e-01
1.434074789e+00,0.00000e+00,9.99999e-01,0.00000e+00,9.05827e-01,9.99999e-01
1.441245163e+00,0.00000e+00,9.99999e-01,0.00000e+00,9.07598e-01,9.99999e-01
1.448451389e+00,0.00000e+00,9.99999e-01,0.00000e+00,9.09338e-01,9.99999e-01
1.455693646e+00,0.00000e+00,9.99999e-01,0.00000e+00,9.11047e-01,9.99999e-01
1.462972114e+00,4.08564e-245,9.99999e-01,4.47631e-245,9.12725e-01,9.99999e-01
1.470286975e+00,3.49397e-102,9.99999e-01,3.82116e-102,9.14373e-01,9.99999e-01
