#,Wave/freq,Total,N2,CO2,Rayleigh,CIA
4.000000000e-01,5.90782e-18,9.99999e-01,9.99999e-01,5.90782e-18,9.99999e-01
4.020000000e-01,1.29448e-17,9.99999e-01,9.99999e-01,1.29448e-17,9.99999e-01
4.040100000e-01,2.79044e-17,9.99999e-01,9.99999e-01,2.79044e-17,9.99999e-01
4.060300500e-01,5.92463e-17,9.99999e-01,9.99999e-01,5.92463e-17,9.99999e-01
4.080602003e-01,1.23934e-16,9.99999e-01,9.99999e-01,1.23934e-16,9.99999e-01
4.101005013e-01,2.55499e-16,9.99999e-01,9.99999e-01,2.55499e-16,9.99999e-01
4.121510038e-01,5.19257e-16,9.99999e-01,9.99999e-01,5.19257e-16,9.99999e-01
4.142117588e-01,1.04062e-15,9.99999e-01,9.99999e-01,1.04062e-15,9.99999e-01
4.162828176e-01,2.05701e-15,9.99999e-01,9.99999e-01,2.05701e-15,9.99999e-01
4.183642317e-01,4.01178e-15,9.99999e-01,9.99999e-01,4.01178e-15,9.99999e-01
4.204560528e-01,7.72160e-15,9.99999e-01,9.99999e-01,7.72160e-15,9.99999e-01
4.225583331e-01,1.46710e-14,9.99999e-01,9.99999e-01,1.46710e-14,9.99999e-01
4.246711247e-01,2.75237e-14,9.99999e-01,9.99999e-01,2.75237e-14,9.99999e-01
4.267944804e-01,5.09983e-14,9.99999e-01,9.99999e-01,5.09983e-14,9.99999e-01
4.289284528e-01,9.33501e-14,9.99999e-01,9.99999e-01,9.33501e-14,9.99999e-01
4.310730950e-01,1.68845e-13,9.99999e-01,9.99999e-01,1.68845e-13,9.99999e-01
4.332284605e-01,3.01839e-13,9.99999e-01,9.99999e-01,3.01839e-13,9.99999e-01
4.353946028e-01,5.33435e-13,9.99999e-01,9.99999e-01,5.33435e-13,9.99999e-01
4.375715758e-01,9.32185e-13,9.99999e-01,9.99999e-01,9.32185e-13,9.99999e-01
4.397594337e-01,1.61114e-12,9.99999e-01,9.99999e-01,1.61114e-12,9.99999e-01
4.419582309e-01,2.75469e-12,9.99999e-01,9.99999e-01,2.75469e-12,9.99999e-01
4.441680220e-01,4.66025e-12,9.99999e-01,9.99999e-01,4.66025e-12,9.99999e-01
4.463888621e-01,7.80255e-12,9.99999e-01,9.99999e-01,7.80255e-12,9.99999e-01
4.486208064e-01,1.29313e-11,9.99999e-01,9.99999e-01,1.29313e-11,9.99999e-01
4.508639105e-01,2.12185e-11,9.99999e-01,9.99999e-01,2.12185e-11,9.99999e-01
4.531182300e-01,3.44777e-11,9.99999e-01,9.99999e-01,3.44777e-11,9.99999e-01
4.553838212e-01,5.54878e-11,9.99999e-01,9.99999e-01,5.54878e-11,9.99999e-01
4.576607403e-01,8.84658e-11,9.99999e-01,9.99999e-01,8.84658e-11,9.99999e-01
4.599490440e-01,1.39750e-10,9.99999e-01,9.99999e-01,1.39750e-10,9.99999e-01
4.622487892e-01,2.18779e-10,9.99999e-01,9.99999e-01,2.18779e-10,9.99999e-01
4.645600332e-01,3.39480e-10,9.99999e-01,9.99999e-01,3.39480e-10,9.99999e-01
4.668828333e-01,5.22220e-10,9.99999e-01,9.99999e-01,5.22220e-10,9.99999e-01
4.692172475e-01,7.96525e-10,9.99999e-01,9.99999e-01,7.96525e-10,9.99999e-01
4.715633337e-01,1.20482e-09,9.99999e-01,9.99999e-01,1.20482e-09,9.99999e-01
4.739211504e-01,1.80758e-09,9.99999e-01,9.99999e-01,1.80758e-09,9.99999e-01
4.762907561e-01,2.69024e-09,9.99999e-01,9.99999e-01,2.69024e-09,9.99999e-01
4.786722099e-01,3.97259e-09,9.99999e-01,9.99999e-01,3.97259e-09,9.99999e-01
4.810655710e-01,5.82121e-09,9.99999e-01,9.99999e-01,5.82121e-09,9.99999e-01
4.834708988e-01,8.46592e-09,9.99999e-01,9.99999e-01,8.46592e-09,9.99999e-01
4.858882533e-01,1.22215e-08,9.99999e-01,9.99999e-01,1.22215e-08,9.99999e-01
4.883176946e-01,1.75155e-08,9.99999e-01,9.99999e-01,1.75155e-08,9.99999e-01
4.907592831e-01,2.49249e-08,9.99999e-01,9.99999e-01,2.49249e-08,9.99999e-01
4.932130795e-01,3.52224e-08,9.99999e-01,9.99999e-01,3.52224e-08,9.99999e-01
4.956791449e-01,4.94353e-08,9.99999e-01,9.99999e-01,4.94353e-08,9.99999e-01
4.981575406e-01,6.89205e-08,9.99999e-01,9.99999e-01,6.89205e-08,9.99999e-01
5.006483283e-01,9.54572e-08,9.99999e-01,9.99999e-01,9.54572e-08,9.99999e-01
5.031515699e-01,1.31364e-07,9.99999e-01,9.99999e-01,1.31364e-07,9.99999e-01
5.056673278e-01,1.79640e-07,9.99999e-01,9.99999e-01,1.79640e-07,9.99999e-01
5.081956644e-01,2.44143e-07,9.99999e-01,9.99999e-01,2.44143e-07,9.99999e-01
5.107366428e-01,3.29803e-07,9.99999e-01,9.99999e-01,3.29803e-07,9.99999e-01
5.132903260e-01,4.42879e-07,9.99999e-01,9.99999e-01,4.42879e-07,9.99999e-01
5.158567776e-01,5.91271e-07,9.99999e-01,9.99999e-01,5.91271e-07,9.99999e-01
5.184360615e-01,7.84891e-07,9.99999e-01,9.99999e-01,7.84891e-07,9.99999e-01
5.210282418e-01,1.03610e-06,9.99999e-01,9.99999e-01,1.03610e-06,9.99999e-01
5.236333830e-01,1.36023e-06,9.99999e-01,9.99999e-01,1.36023e-06,9.99999e-01
5.262515499e-01,1.77619e-06,9.99999e-01,9.99999e-01,1.77619e-06,9.99999e-01
5.288828077e-01,2.30715e-06,9.99999e-01,9.99999e-01,2.30715e-06,9.99999e-01
5.315272217e-01,2.98139e-06,9.99999e-01,9.99999e-01,2.98139e-06,9.99999e-01
5.341848578e-01,3.83321e-06,9.99999e-01,9.99999e-01,3.83321e-06,9.99999e-01
5.368557821e-01,4.90400e-06,9.99999e-01,9.99999e-01,4.90400e-06,9.99999e-01
5.395400610e-01,6.24346e-06,9.99999e-01,9.99999e-01,6.24346e-06,9.99999e-01
5.422377613e-01,7.91095e-06,9.99999e-01,9.99999e-01,7.91095e-06,9.99999e-01
5.449489501e-01,9.97703e-06,9.99999e-01,9.99999e-01,9.97703e-06,9.99999e-01
5.476736949e-01,1.25252e-05,9.99999e-01,9.99999e-01,1.25252e-05,9.99999e-01
5.504120634e-01,1.56536e-05,9.99999e-01,9.99999e-01,1.56536e-05,9.99999e-01
5.531641237e-01,1.94775e-05,9.99999e-01,9.99999e-01,1.94775e-05,9.99999e-01
5.559299443e-01,2.41310e-05,9.99999e-01,9.99999e-01,2.41310e-05,9.99999e-01
5.587095940e-01,2.97702e-05,9.99999e-01,9.99999e-01,2.97702e-05,9.99999e-01
5.615031420e-01,3.65751e-05,9.99999e-01,9.99999e-01,3.65751e-05,9.99999e-01
5.643106577e-01,4.47531e-05,9.99999e-01,9.99999e-01,4.47531e-05,9.99999e-01
5.671322110e-01,5.45419e-05,9.99999e-01,9.99999e-01,5.45419e-05,9.99999e-01
5.699678720e-01,6.62126e-05,9.99999e-01,9.99999e-01,6.62126e-05,9.99999e-01
5.728177114e-01,8.00732e-05,9.99999e-01,9.99999e-01,8.00732e-05,9.99999e-01
5.756818000e-01,9.64725e-05,9.99999e-01,9.99999e-01,9.64725e-05,9.99999e-01
5.785602090e-01,1.15803e-04,9.99999e-01,9.99999e-01,1.15803e-04,9.99999e-01
5.814530100e-01,1.38507e-04,9.99999e-01,9.99999e-01,1.38507e-04,9.99999e-01
5.843602750e-01,1.65078e-04,9.99999e-01,9.99999e-01,1.65078e-04,9.99999e-01
5.872820764e-01,1.96064e-04,9.99999e-01,9.99999e-01,1.96064e-04,9.99999e-01
5.902184868e-01,2.32077e-04,9.99999e-01,9.99999e-01,2.32077e-04,9.99999e-01
5.931695792e-01,2.73792e-04,9.99999e-01,9.99999e-01,2.73792e-04,9.99999e-01
5.961354271e-01,3.21951e-04,9.99999e-01,9.99999e-01,3.21951e-04,9.99999e-01
5.991161043e-01,3.77372e-04,9.99999e-01,9.99999e-01,3.77372e-04,9.99999e-01
6.021116848e-01,4.40948e-04,9.99999e-01,9.99999e-01,4.40948e-04,9.99999e-01
6.051222432e-01,5.13652e-04,9.99999e-01,9.99999e-01,5.13652e-04,9.99999e-01
6.081478544e-01,5.96542e-04,9.99999e-01,9.99999e-01,5.96542e-04,9.99999e-01
6.111885937e-01,6.90765e-04,9.99999e-01,9.99999e-01,6.90765e-04,9.99999e-01
6.142445367e-01,7.97556e-04,9.99999e-01,9.99999e-01,7.97556e-04,9.99999e-01
6.173157594e-01,9.18247e-04,9.99999e-01,9.99999e-01,9.18247e-04,9.99999e-01
6.204023382e-01,1.05426e-03,9.99999e-01,9.99999e-01,1.05426e-03,9.99999e-01
6.235043498e-01,1.20713e-03,9.99999e-01,9.99999e-01,1.20713e-03,9.99999e-01
6.266218716e-01,1.37846e-03,9.99999e-01,9.99999e-01,1.37846e-03,9.99999e-01
6.297549810e-01,1.57000e-03,9.99999e-01,9.99999e-01,1.57000e-03,9.99999e-01
6.329037559e-01,1.78356e-03,9.99999e-01,9.99999e-01,1.78356e-03,9.99999e-01
6.360682746e-01,2.02107e-03,9.99999e-01,9.99999e-01,2.02107e-03,9.99999e-01
6.392486160e-01,2.28456e-03,9.99999e-01,9.99999e-01,2.28456e-03,9.99999e-01
6.424448591e-01,2.57616e-03,9.99999e-01,9.99999e-01,2.57616e-03,9.99999e-01
6.456570834e-01,2.89809e-03,9.99999e-01,9.99999e-01,2.89809e-03,9.99999e-01
6.488853688e-01,3.25268e-03,9.99999e-01,9.99999e-01,3.25268e-03,9.99999e-01
6.521297956e-01,3.64235e-03,9.99999e-01,9.99999e-01,3.64235e-03,9.99999e-01
6.553904446e-01,4.06958e-03,9.99999e-01,9.99999e-01,4.06958e-03,9.99999e-01
6.586673968e-01,4.53698e-03,9.99999e-01,9.99999e-01,4.53698e-03,9.99999e-01
6.619607338e-01,5.04722e-03,9.99999e-01,9.99999e-01,5.04722e-03,9.99999e-01
6.652705375e-01,5.60302e-03,9.99999e-01,9.99999e-01,5.60302e-03,9.99999e-01
6.685968902e-01,6.20721e-03,9.99999e-01,9.99999e-01,6.20721e-03,9.99999e-01
6.719398746e-01,6.86266e-03,9.99999e-01,9.99999e-01,6.86266e-03,9.99999e-01
6.752995740e-01,7.57229e-03,9.99999e-01,9.99999e-01,7.57229e-03,9.99999e-01
6.786760719e-01,8.33907e-03,9.99999e-01,9.99999e-01,8.33907e-03,9.99999e-01
6.820694522e-01,9.16602e-03,9.99999e-01,9.99999e-01,9.16602e-03,9.99999e-01
6.854797995e-01,1.00562e-02,9.99999e-01,9.99999e-01,1.00562e-02,9.99999e-01
6.889071985e-01,1.10126e-02,9.99999e-01,9.99999e-01,1.10126e-02,9.99999e-01
6.923517345e-01,1.20384e-02,9.99999e-01,9.99999e-01,1.20384e-02,9.99999e-01
6.958134932e-01,1.31365e-02,9.99999e-01,9.99999e-01,1.31365e-02,9.99999e-01
6.992925606e-01,1.43102e-02,9.99999e-01,9.99999e-01,1.43102e-02,9.99999e-01
7.027890234e-01,1.55624e-02,9.99999e-01,9.99999e-01,1.55624e-02,9.99999e-01
7.063029686e-01,1.68961e-02,9.99999e-01,9.99999e-01,1.68961e-02,9.99999e-01
7.098344834e-01,1.83144e-02,9.99999e-01,9.99999e-01,1.83144e-02,9.99999e-01
7.133836558e-01,1.98201e-02,9.99999e-01,9.99999e-01,1.98201e-02,9.99999e-01
7.169505741e-01,2.14162e-02,9.99999e-01,9.99999e-01,2.14162e-02,9.99999e-01
7.205353270e-01,2.31055e-02,9.99999e-01,9.99999e-01,2.31055e-02,9.99999e-01
7.241380036e-01,2.48906e-02,9.99999e-01,9.99999e-01,2.48906e-02,9.99999e-01
7.277586936e-01,2.67743e-02,9.99999e-01,9.99999e-01,2.67743e-02,9.99999e-01
7.313974871e-01,2.87590e-02,9.99999e-01,9.99999e-01,2.87590e-02,9.99999e-01
7.350544745e-01,3.08473e-02,9.99999e-01,9.99999e-01,3.08473e-02,9.99999e-01
7.387297469e-01,3.30414e-02,9.99999e-01,9.99999e-01,3.30414e-02,9.99999e-01
7.424233956e-01,3.53436e-02,9.99999e-01,9.99999e-01,3.53436e-02,9.99999e-01
7.461355126e-01,3.77560e-02,9.99999e-01,9.99999e-01,3.77560e-02,9.99999e-01
7.498661902e-01,4.02804e-02,9.99999e-01,9.99999e-01,4.02804e-02,9.99999e-01
7.536155211e-01,4.29187e-02,9.99999e-01,9.99999e-01,4.29187e-02,9.99999e-01
7.573835987e-01,4.56725e-02,9.99999e-01,9.99999e-01,4.56725e-02,9.99999e-01
7.611705167e-01,4.85434e-02,9.99999e-01,9.99999e-01,4.85434e-02,9.99999e-01
7.649763693e-01,5.15326e-02,9.99999e-01,9.99999e-01,5.15326e-02,9.99999e-01
7.688012511e-01,5.46414e-02,9.99999e-01,9.99999e-01,5.46414e-02,9.99999e-01
7.726452574e-01,5.78707e-02,9.99999e-01,9.99999e-01,5.78707e-02,9.99999e-01
7.765084837e-01,6.12214e-02,9.99999e-01,9.99999e-01,6.12214e-02,9.99999e-01
7.803910261e-01,5.85375e-02,9.99999e-01,9.04833e-01,6.46942e-02,9.99999e-01
7.842929812e-01,4.00795e-02,9.99999e-01,5.86906e-01,6.82894e-02,9.99999e-01
7.882144461e-01,4.12821e-02,9.99999e-01,5.73302e-01,7.20075e-02,9.99999e-01
7.921555184e-01,5.36334e-02,9.99999e-01,7.07111e-01,7.58486e-02,9.99999e-01
7.961162960e-01,6.29524e-02,9.99999e-01,7.88752e-01,7.98126e-02,9.99999e-01
8.000968774e-01,7.37655e-02,9.99999e-01,8.79215e-01,8.38993e-02,9.99999e-01
8.040973618e-01,8.23832e-02,9.99999e-01,9.35022e-01,8.81083e-02,9.99999e-01
8.081178486e-01,8.96421e-02,9.99999e-01,9.69742e-01,9.24390e-02,9.99999e-01
8.121584379e-01,9.59667e-02,9.99999e-01,9.90463e-01,9.68907e-02,9.99999e-01
8.162192301e-01,1.01248e-01,9.99999e-01,9.97884e-01,1.01462e-01,9.99999e-01
8.203003262e-01,1.06149e-01,9.99999e-01,9.99963e-01,1.06153e-01,9.99999e-01
8.244018279e-01,1.10962e-01,9.99999e-01,9.99999e-01,1.10962e-01,9.99999e-01
8.285238370e-01,1.15887e-01,9.99999e-01,9.99999e-01,1.15887e-01,9.99999e-01
8.326664562e-01,1.20926e-01,9.99999e-01,9.99999e-01,1.20926e-01,9.99999e-01
8.368297885e-01,1.26079e-01,9.99999e-01,9.99999e-01,1.26079e-01,9.99999e-01
8.410139374e-01,1.31343e-01,9.99999e-01,9.99999e-01,1.31343e-01,9.99999e-01
8.452190071e-01,1.36717e-01,9.99999e-01,9.99999e-01,1.36717e-01,9.99999e-01
8.494451021e-01,1.42197e-01,9.99999e-01,9.99999e-01,1.42197e-01,9.99999e-01
8.536923276e-01,1.47783e-01,9.99999e-01,9.99999e-01,1.47783e-01,9.99999e-01
8.579607893e-01,1.53471e-01,9.99999e-01,9.99999e-01,1.53471e-01,9.99999e-01
8.622505932e-01,1.59259e-01,9.99999e-01,9.99999e-01,1.59259e-01,9.99999e-01
8.665618462e-01,1.42661e-01,9.99999e-01,8.63854e-01,1.65145e-01,9.99999e-01
8.708946554e-01,4.70326e-02,9.99999e-01,2.74843e-01,1.71125e-01,9.99999e-01
8.752491287e-01,5.94645e-02,9.99999e-01,3.35583e-01,1.77197e-01,9.99999e-01
8.796253743e-01,9.87694e-02,9.99999e-01,5.38666e-01,1.83359e-01,9.99999e-01
8.840235012e-01,1.36557e-01,9.99999e-01,7.20211e-01,1.89607e-01,9.99999e-01
8.884436187e-01,1.71842e-01,9.99999e-01,8.77024e-01,1.95938e-01,9.99999e-01
8.928858368e-01,1.91875e-01,9.99999e-01,9.48239e-01,2.02349e-01,9.99999e-01
8.973502660e-01,2.06136e-01,9.99999e-01,9.87068e-01,2.08837e-01,9.99999e-01
9.018370173e-01,2.15089e-01,9.99999e-01,9.98562e-01,2.15398e-01,9.99999e-01
9.063462024e-01,2.14482e-01,9.99999e-01,9.66003e-01,2.22030e-01,9.99999e-01
9.108779334e-01,2.10413e-01,9.99999e-01,9.19919e-01,2.28730e-01,9.99999e-01
9.154323231e-01,2.30868e-01,9.99999e-01,9.80359e-01,2.35493e-01,9.99999e-01
9.200094847e-01,1.91550e-01,9.99999e-01,7.90496e-01,2.42316e-01,9.99999e-01
9.246095321e-01,1.66261e-01,9.99999e-01,6.67186e-01,2.49197e-01,9.99999e-01
9.292325798e-01,1.88479e-01,9.99999e-01,7.35869e-01,2.56131e-01,9.99999e-01
9.338787427e-01,1.94153e-01,9.99999e-01,7.37901e-01,2.63115e-01,9.99999e-01
9.385481364e-01,2.15560e-01,9.99999e-01,7.97936e-01,2.70147e-01,9.99999e-01
9.432408771e-01,2.41044e-01,9.99999e-01,8.69499e-01,2.77222e-01,9.99999e-01
9.479570815e-01,2.64701e-01,9.99999e-01,9.30941e-01,2.84337e-01,9.99999e-01
9.526968669e-01,2.81593e-01,9.99999e-01,9.66054e-01,2.91488e-01,9.99999e-01
9.574603512e-01,2.94286e-01,9.99999e-01,9.85312e-01,2.98673e-01,9.99999e-01
9.622476530e-01,3.04477e-01,9.99999e-01,9.95388e-01,3.05888e-01,9.99999e-01
9.670588912e-01,3.12695e-01,9.99999e-01,9.98612e-01,3.13129e-01,9.99999e-01
9.718941857e-01,3.20362e-01,9.99999e-01,9.99899e-01,3.20394e-01,9.99999e-01
9.767536566e-01,3.27679e-01,9.99999e-01,9.99999e-01,3.27679e-01,9.99999e-01
9.816374249e-01,3.34980e-01,9.99999e-01,9.99999e-01,3.34980e-01,9.99999e-01
9.865456120e-01,3.42296e-01,9.99999e-01,9.99999e-01,3.42296e-01,9.99999e-01
9.914783401e-01,3.49621e-01,9.99999e-01,9.99999e-01,3.49621e-01,9.99999e-01
9.964357318e-01,3.56955e-01,9.99999e-01,9.99999e-01,3.56955e-01,9.99999e-01
1.001417910e+00,3.64292e-01,9.99999e-01,9.99999e-01,3.64292e-01,9.99999e-01
1.006425000e+00,3.71632e-01,9.99999e-01,9.99999e-01,3.71632e-01,9.99999e-01
1.011457125e+00,3.78969e-01,9.99999e-01,9.99999e-01,3.78969e-01,9.99999e-01
1.016514411e+00,3.86302e-01,9.99999e-01,9.99999e-01,3.86302e-01,9.99999e-01
1.021596983e+00,3.93563e-01,9.99999e-01,9.99832e-01,3.93629e-01,9.99999e-01
1.026704968e+00,3.95500e-01,9.99999e-01,9.86419e-01,4.00945e-01,9.99999e-01
1.031838492e+00,3.66862e-01,9.99999e-01,8.98624e-01,4.08249e-01,9.99999e-01
1.036997685e+00,1.75326e-02,9.99999e-01,4.21927e-02,4.15537e-01,9.99999e-01
1.042182673e+00,6.29373e-04,9.99999e-01,1.48855e-03,4.22808e-01,9.99999e-01
1.047393587e+00,1.84514e-03,9.99999e-01,4.29042e-03,4.30059e-01,9.99999e-01
1.052630555e+00,5.12626e-08,9.99999e-01,1.17228e-07,4.37287e-01,9.99999e-01
1.057893707e+00,1.88543e-07,9.99999e-01,4.24178e-07,4.44490e-01,9.99999e-01
1.063183176e+00,9.47899e-06,9.99999e-01,2.09867e-05,4.51667e-01,9.99999e-01
1.068499092e+00,1.26492e-04,9.99999e-01,2.75694e-04,4.58813e-01,9.99999e-01
1.073841587e+00,2.26888e-03,9.99999e-01,4.86959e-03,4.65929e-01,9.99999e-01
1.079210795e+00,1.69296e-02,9.99999e-01,3.57912e-02,4.73011e-01,9.99999e-01
1.084606849e+00,7.11352e-02,9.99999e-01,1.48180e-01,4.80058e-01,9.99999e-01
1.090029883e+00,1.78850e-01,9.99999e-01,3.67198e-01,4.87067e-01,9.99999e-01
1.095480033e+00,3.00545e-01,9.99999e-01,6.08344e-01,4.94037e-01,9.99999e-01
1.100957433e+00,3.93611e-01,9.99999e-01,7.85704e-01,5.00966e-01,9.99999e-01
1.106462220e+00,4.59482e-01,9.99999e-01,9.04754e-01,5.07853e-01,9.99999e-01
1.111994531e+00,4.95920e-01,9.99999e-01,9.63520e-01,5.14695e-01,9.99999e-01
1.117554504e+00,5.16757e-01,9.99999e-01,9.90919e-01,5.21492e-01,9.99999e-01
1.123142276e+00,5.27924e-01,9.99999e-01,9.99396e-01,5.28242e-01,9.99999e-01
1.128757988e+00,5.34943e-01,9.99999e-01,9.99999e-01,5.34943e-01,9.99999e-01
1.134401778e+00,5.41595e-01,9.99999e-01,9.99999e-01,5.41595e-01,9.99999e-01
1.140073787e+00,5.48195e-01,9.99999e-01,9.99999e-01,5.48195e-01,9.99999e-01
1.145774156e+00,5.54743e-01,9.99999e-01,9.99999e-01,5.54743e-01,9.99999e-01
1.151503026e+00,5.61237e-01,9.99999e-01,9.99999e-01,5.61237e-01,9.99999e-01
1.157260541e+00,5.67677e-01,9.99999e-01,9.99999e-01,5.67677e-01,9.99999e-01
1.163046844e+00,5.74062e-01,9.99999e-01,9.99999e-01,5.74062e-01,9.99999e-01
1.168862078e+00,5.80390e-01,9.99999e-01,9.99999e-01,5.80390e-01,9.99999e-01
1.174706389e+00,5.86660e-01,9.99999e-01,9.99999e-01,5.86660e-01,9.99999e-01
1.180579921e+00,5.92873e-01,9.99999e-01,9.99999e-01,5.92873e-01,9.99999e-01
1.186482820e+00,5.99017e-01,9.99999e-01,9.99982e-01,5.99027e-01,9.99999e-01
1.192415234e+00,5.77672e-01,9.99999e-01,9.54639e-01,6.05121e-01,9.99999e-01
1.198377311e+00,3.10429e-01,9.99999e-01,5.07938e-01,6.11155e-01,9.99999e-01
1.204369197e+00,4.77554e-36,9.99999e-01,7.73832e-36,6.17128e-01,9.99999e-01
1.210391043e+00,1.87105e-147,9.99999e-01,3.00309e-147,6.23040e-01,9.99999e-01
1.216442998e+00,1.56478e-127,9.99999e-01,2.48815e-127,6.28890e-01,9.99999e-01
1.222525213e+00,1.30464e-125,9.99999e-01,2.05559e-125,6.34678e-01,9.99999e-01
1.228637839e+00,8.45645e-97,9.99999e-01,1.32049e-96,6.40403e-01,9.99999e-01
1.234781029e+00,4.99834e-60,9.99999e-01,7.73657e-60,6.46065e-01,9.99999e-01
1.240954934e+00,1.05398e-39,9.99999e-01,1.61737e-39,6.51664e-01,9.99999e-01
1.247159708e+00,3.00601e-25,9.99999e-01,4.57397e-25,6.57200e-01,9.99999e-01
1.253395507e+00,7.35916e-13,9.99999e-01,1.11053e-12,6.62672e-01,9.99999e-01
1.259662485e+00,5.40973e-08,9.99999e-01,8.09742e-08,6.68080e-01,9.99999e-01
1.265960797e+00,1.49121e-04,9.99999e-01,2.21437e-04,6.73423e-01,9.99999e-01
1.272290601e+00,9.33563e-03,9.99999e-01,1.37551e-02,6.78703e-01,9.99999e-01
1.278652054e+00,1.21698e-02,9.99999e-01,1.77941e-02,6.83919e-01,9.99999e-01
1.285045314e+00,6.04534e-06,9.99999e-01,8.77317e-06,6.89071e-01,9.99999e-01
1.291470541e+00,4.04523e-17,9.99999e-01,5.82753e-17,6.94158e-01,9.99999e-01
1.297927893e+00,3.32181e-07,9.99999e-01,4.75100e-07,6.99182e-01,9.99999e-01
1.304417533e+00,4.26845e-04,9.99999e-01,6.06191e-04,7.04141e-01,9.99999e-01
1.310939621e+00,1.23254e-04,9.99999e-01,1.73832e-04,7.09037e-01,9.99999e-01
1.317494319e+00,7.84118e-50,9.99999e-01,1.09840e-49,7.13869e-01,9.99999e-01
1.324081790e+00,1.56665e-32,9.99999e-01,2.18002e-32,7.18637e-01,9.99999e-01
1.330702199e+00,2.31361e-19,9.99999e-01,3.19849e-19,7.23343e-01,9.99999e-01
1.337355710e+00,1.31138e-17,9.99999e-01,1.80138e-17,7.27985e-01,9.99999e-01
1.344042489e+00,7.80788e-18,9.99999e-01,1.06583e-17,7.32564e-01,9.99999e-01
1.350762701e+00,1.07362e-19,9.99999e-01,1.45658e-19,7.37081e-01,9.99999e-01
1.357516515e+00,7.69839e-12,9.99999e-01,1.03817e-11,7.41536e-01,9.99999e-01
1.364304097e+00,8.86250e-09,9.99999e-01,1.18811e-08,7.45929e-01,9.99999e-01
1.371125618e+00,7.00896e-05,9.99999e-01,9.34203e-05,7.50261e-01,9.99999e-01
1.377981246e+00,2.36019e-04,9.99999e-01,3.12802e-04,7.54531e-01,9.99999e-01
1.384871152e+00,6.77586e-03,9.99999e-01,8.93039e-03,7.58740e-01,9.99999e-01
1.391795508e+00,9.90841e-03,9.99999e-01,1.29880e-02,7.62889e-01,9.99999e-01
1.398754485e+00,4.86053e-02,9.99999e-01,6.33724e-02,7.66979e-01,9.99999e-01
1.405748258e+00,1.03852e-01,9.99999e-01,1.34696e-01,7.71008e-01,9.99999e-01
1.412776999e+00,2.15219e-01,9.99999e-01,2.77710e-01,7.74979e-01,9.99999e-01
1.419840884e+00,2.13260e-01,9.99998e-01,2.73800e-01,7.78891e-01,9.99999e-01
1.426940089e+00,6.73809e-03,9.99998e-01,8.60828e-03,7.82745e-01,9.99999e-01
1.434074789e+00,0.00000e+00,9.99998e-01,0.00000e+00,7.86541e-01,9.99999e-01
1.441245163e+00,0.00000e+00,9.99999e-01,0.00000e+00,7.90281e-01,9.99999e-01
1.448451389e+00,0.00000e+00,9.99998e-01,0.00000e+00,7.93963e-01,9.99999e-01
1.455693646e+00,0.00000e+00,9.99999e-01,0.00000e+00,7.97590e-01,9.99999e-01
1.462972114e+00,0.00000e+00,9.99999e-01,0.00000e+00,8.01161e-01,9.99999e-01
1.470286975e+00,9.87447e-245,9.99999e-01,1.22713e-244,8.04677e-01,9.99999e-01
