#,Wave/freq,Total,N2,CO2,Rayleigh,CIA
4.000000000e-01,2.46036e-10,9.99999e-01,9.99999e-01,2.46036e-10,9.99999e-01
4.020000000e-01,3.81059e-10,9.99999e-01,9.99999e-01,3.81059e-10,9.99999e-01
4.040100000e-01,5.84845e-10,9.99999e-01,9.99999e-01,5.84845e-10,9.99999e-01
4.060300500e-01,8.90051e-10,9.99999e-01,9.99999e-01,8.90051e-10,9.99999e-01
4.080602003e-01,1.34334e-09,9.99999e-01,9.99999e-01,1.34334e-09,9.99999e-01
4.101005013e-01,2.01107e-09,9.99999e-01,9.99999e-01,2.01107e-09,9.99999e-01
4.121510038e-01,2.98679e-09,9.99999e-01,9.99999e-01,2.98679e-09,9.99999e-01
4.142117588e-01,4.40140e-09,9.99999e-01,9.99999e-01,4.40140e-09,9.99999e-01
4.162828176e-01,6.43652e-09,9.99999e-01,9.99999e-01,6.43652e-09,9.99999e-01
4.183642317e-01,9.34223e-09,9.99999e-01,9.99999e-01,9.34223e-09,9.99999e-01
4.204560528e-01,1.34603e-08,9.99999e-01,9.99999e-01,1.34603e-08,9.99999e-01
4.225583331e-01,1.92542e-08,9.99999e-01,9.99999e-01,1.92542e-08,9.99999e-01
4.246711247e-01,2.73479e-08,9.99999e-01,9.99999e-01,2.73479e-08,9.99999e-01
4.267944804e-01,3.85757e-08,9.99999e-01,9.99999e-01,3.85757e-08,9.99999e-01
4.289284528e-01,5.40446e-08,9.99999e-01,9.99999e-01,5.40446e-08,9.99999e-01
4.310730950e-01,7.52140e-08,9.99999e-01,9.99999e-01,7.52140e-08,9.99999e-01
4.332284605e-01,1.03994e-07,9.99999e-01,9.99999e-01,1.03994e-07,9.99999e-01
4.353946028e-01,1.42870e-07,9.99999e-01,9.99999e-01,1.42870e-07,9.99999e-01
4.375715758e-01,1.95051e-07,9.99999e-01,9.99999e-01,1.95051e-07,9.99999e-01
4.397594337e-01,2.64657e-07,9.99999e-01,9.99999e-01,2.64657e-07,9.99999e-01
4.419582309e-01,3.56946e-07,9.99999e-01,9.99999e-01,3.56946e-07,9.99999e-01
4.441680220e-01,4.78580e-07,9.99999e-01,9.99999e-01,4.78580e-07,9.99999e-01
4.463888621e-01,6.37956e-07,9.99999e-01,9.99999e-01,6.37956e-07,9.99999e-01
4.486208064e-01,8.45593e-07,9.99999e-01,9.99999e-01,8.45593e-07,9.99999e-01
4.508639105e-01,1.11459e-06,9.99999e-01,9.99999e-01,1.11459e-06,9.99999e-01
4.531182300e-01,1.46117e-06,9.99999e-01,9.99999e-01,1.46117e-06,9.99999e-01
4.553838212e-01,1.90529e-06,9.99999e-01,9.99999e-01,1.90529e-06,9.99999e-01
4.576607403e-01,2.47142e-06,9.99999e-01,9.99999e-01,2.47142e-06,9.99999e-01
4.599490440e-01,3.18933e-06,9.99999e-01,9.99999e-01,3.18933e-06,9.99999e-01
4.622487892e-01,4.09510e-06,9.99999e-01,9.99999e-01,4.09510e-06,9.99999e-01
4.645600332e-01,5.23222e-06,9.99999e-01,9.99999e-01,5.23222e-06,9.99999e-01
4.668828333e-01,6.65280e-06,9.99999e-01,9.99999e-01,6.65280e-06,9.99999e-01
4.692172475e-01,8.41905e-06,9.99999e-01,9.99999e-01,8.41905e-06,9.99999e-01
4.715633337e-01,1.06048e-05,9.99999e-01,9.99999e-01,1.06048e-05,9.99999e-01
4.739211504e-01,1.32972e-05,9.99999e-01,9.99999e-01,1.32972e-05,9.99999e-01
4.762907561e-01,1.65989e-05,9.99999e-01,9.99999e-01,1.65989e-05,9.99999e-01
4.786722099e-01,2.06297e-05,9.99999e-01,9.99999e-01,2.06297e-05,9.99999e-01
4.810655710e-01,2.55296e-05,9.99999e-01,9.99999e-01,2.55296e-05,9.99999e-01
4.834708988e-01,3.14605e-05,9.99999e-01,9.99999e-01,3.14605e-05,9.99999e-01
4.858882533e-01,3.86097e-05,9.99999e-01,9.99999e-01,3.86097e-05,9.99999e-01
4.883176946e-01,4.71922e-05,9.99999e-01,9.99999e-01,4.71922e-05,9.99999e-01
4.907592831e-01,5.74542e-05,9.99999e-01,9.99999e-01,5.74542e-05,9.99999e-01
4.932130795e-01,6.96764e-05,9.99999e-01,9.99999e-01,6.96764e-05,9.99999e-01
4.956791449e-01,8.41773e-05,9.99999e-01,9.99999e-01,8.41773e-05,9.99999e-01
4.981575406e-01,1.01317e-04,9.99999e-01,9.99999e-01,1.01317e-04,9.99999e-01
5.006483283e-01,1.21501e-04,9.99999e-01,9.99999e-01,1.21501e-04,9.99999e-01
5.031515699e-01,1.45184e-04,9.99999e-01,9.99999e-01,1.45184e-04,9.99999e-01
5.056673278e-01,1.72875e-04,9.99999e-01,9.99999e-01,1.72875e-04,9.99999e-01
5.081956644e-01,2.05138e-04,9.99999e-01,9.99999e-01,2.05138e-04,9.99999e-01
5.107366428e-01,2.42600e-04,9.99999e-01,9.99999e-01,2.42600e-04,9.99999e-01
5.132903260e-01,2.85956e-04,9.99999e-01,9.99999e-01,2.85956e-04,9.99999e-01
5.158567776e-01,3.35966e-04,9.99999e-01,9.99999e-01,3.35966e-04,9.99999e-01
5.184360615e-01,3.93469e-04,9.99999e-01,9.99999e-01,3.93469e-04,9.99999e-01
5.210282418e-01,4.59377e-04,9.99999e-01,9.99999e-01,4.59377e-04,9.99999e-01
5.236333830e-01,5.34687e-04,9.99999e-01,9.99999e-01,5.34687e-04,9.99999e-01
5.262515499e-01,6.20480e-04,9.99999e-01,9.99999e-01,6.20480e-04,9.99999e-01
5.288828077e-01,7.17925e-04,9.99999e-01,9.99999e-01,7.17925e-04,9.99999e-01
5.315272217e-01,8.28284e-04,9.99999e-01,9.99999e-01,8.28284e-04,9.99999e-01
5.341848578e-01,9.52912e-04,9.99999e-01,9.99999e-01,9.52912e-04,9.99999e-01
5.368557821e-01,1.09326e-03,9.99999e-01,9.99999e-01,1.09326e-03,9.99999e-01
5.395400610e-01,1.25088e-03,9.99999e-01,9.99999e-01,1.25088e-03,9.99999e-01
5.422377613e-01,1.42743e-03,9.99999e-01,9.99999e-01,1.42743e-03,9.99999e-01
5.449489501e-01,1.62464e-03,9.99999e-01,9.99999e-01,1.62464e-03,9.99999e-01
5.476736949e-01,1.84439e-03,9.99999e-01,9.99999e-01,1.84439e-03,9.99999e-01
5.504120634e-01,2.08862e-03,9.99999e-01,9.99999e-01,2.08862e-03,9.99999e-01
5.531641237e-01,2.35938e-03,9.99999e-01,9.99999e-01,2.35938e-03,9.99999e-01
5.559299443e-01,2.65884e-03,9.99999e-01,9.99999e-01,2.65884e-03,9.99999e-01
5.587095940e-01,2.98924e-03,9.99999e-01,9.99999e-01,2.98924e-03,9.99999e-01
5.615031420e-01,3.35293e-03,9.99999e-01,9.99999e-01,3.35293e-03,9.99999e-01
5.643106577e-01,3.75235e-03,9.99999e-01,9.99999e-01,3.75235e-03,9.99999e-01
5.671322110e-01,4.19003e-03,9.99999e-01,9.99999e-01,4.19003e-03,9.99999e-01
5.699678720e-01,4.66858e-03,9.99999e-01,9.99999e-01,4.66858e-03,9.99999e-01
5.728177114e-01,5.19067e-03,9.99999e-01,9.99999e-01,5.19067e-03,9.99999e-01
5.756818000e-01,5.75909e-03,9.99999e-01,9.99999e-01,5.75909e-03,9.99999e-01
5.785602090e-01,6.37665e-03,9.99999e-01,9.99999e-01,6.37665e-03,9.99999e-01
5.814530100e-01,7.04623e-03,9.99999e-01,9.99999e-01,7.04623e-03,9.99999e-01
5.843602750e-01,7.77079e-03,9.99999e-01,9.99999e-01,7.77079e-03,9.99999e-01
5.872820764e-01,8.55330e-03,9.99999e-01,9.99999e-01,8.55330e-03,9.99999e-01
5.902184868e-01,9.39678e-03,9.99999e-01,9.99999e-01,9.39678e-03,9.99999e-01
5.931695792e-01,1.03043e-02,9.99999e-01,9.99999e-01,1.03043e-02,9.99999e-01
5.961354271e-01,1.12789e-02,9.99999e-01,9.99999e-01,1.12789e-02,9.99999e-01
5.991161043e-01,1.23236e-02,9.99999e-01,9.99999e-01,1.23236e-02,9.99999e-01
6.021116848e-01,1.34416e-02,9.99999e-01,9.99999e-01,1.34416e-02,9.99999e-01
6.051222432e-01,1.46359e-02,9.99999e-01,9.99999e-01,1.46359e-02,9.99999e-01
6.081478544e-01,1.59095e-02,9.99999e-01,9.99999e-01,1.59095e-02,9.99999e-01
6.111885937e-01,1.72654e-02,9.99999e-01,9.99999e-01,1.72654e-02,9.99999e-01
6.142445367e-01,1.87067e-02,9.99999e-01,9.99999e-01,1.87067e-02,9.99999e-01
6.173157594e-01,2.02363e-02,9.99999e-01,9.99999e-01,2.02363e-02,9.99999e-01
6.204023382e-01,2.18569e-02,9.99999e-01,9.99999e-01,2.18569e-02,9.99999e-01
6.235043498e-01,2.35714e-02,9.99999e-01,9.99999e-01,2.35714e-02,9.99999e-01
6.266218716e-01,2.53825e-02,9.99999e-01,9.99999e-01,2.53825e-02,9.99999e-01
6.297549810e-01,2.72929e-02,9.99999e-01,9.99999e-01,2.72929e-02,9.99999e-01
6.329037559e-01,2.93050e-02,9.99999e-01,9.99999e-01,2.93050e-02,9.99999e-01
6.360682746e-01,3.14212e-02,9.99999e-01,9.99999e-01,3.14212e-02,9.99999e-01
6.392486160e-01,3.36439e-02,9.99999e-01,9.99999e-01,3.36439e-02,9.99999e-01
6.424448591e-01,3.59752e-02,9.99999e-01,9.99999e-01,3.59752e-02,9.99999e-01
6.456570834e-01,3.84173e-02,9.99999e-01,9.99999e-01,3.84173e-02,9.99999e-01
6.488853688e-01,4.09718e-02,9.99999e-01,9.99999e-01,4.09718e-02,9.99999e-01
6.521297956e-01,4.36408e-02,9.99999e-01,9.99999e-01,4.36408e-02,9.99999e-01
6.553904446e-01,4.64256e-02,9.99999e-01,9.99999e-01,4.64256e-02,9.99999e-01
6.586673968e-01,4.93279e-02,9.99999e-01,9.99999e-01,4.93279e-02,9.99999e-01
6.619607338e-01,5.23489e-02,9.99999e-01,9.99999e-01,5.23489e-02,9.99999e-01
6.652705375e-01,5.54896e-02,9.99999e-01,9.99999e-01,5.54896e-02,9.99999e-01
6.685968902e-01,5.87512e-02,9.99999e-01,9.99999e-01,5.87512e-02,9.99999e-01
6.719398746e-01,6.21344e-02,9.99999e-01,9.99999e-01,6.21344e-02,9.99999e-01
6.752995740e-01,6.56397e-02,9.99999e-01,9.99999e-01,6.56397e-02,9.99999e-01
6.786760719e-01,6.92676e-02,9.99999e-01,9.99999e-01,6.92676e-02,9.99999e-01
6.820694522e-01,7.30185e-02,9.99999e-01,9.99999e-01,7.30185e-02,9.99999e-01
6.854797995e-01,7.68923e-02,9.99999e-01,9.99999e-01,7.68923e-02,9.99999e-01
6.889071985e-01,8.08890e-02,9.99999e-01,9.99999e-01,8.08890e-02,9.99999e-01
6.923517345e-01,8.50083e-02,9.99999e-01,9.99999e-01,8.50083e-02,9.99999e-01
6.958134932e-01,8.92498e-02,9.99999e-01,9.99999e-01,8.92498e-02,9.99999e-01
6.992925606e-01,9.36128e-02,9.99999e-01,9.99999e-01,9.36128e-02,9.99999e-01
7.027890234e-01,9.80966e-02,9.99999e-01,9.99999e-01,9.80966e-02,9.99999e-01
7.063029686e-01,1.02700e-01,9.99999e-01,9.99999e-01,1.02700e-01,9.99999e-01
7.098344834e-01,1.07422e-01,9.99999e-01,9.99999e-01,1.07422e-01,9.99999e-01
7.133836558e-01,1.12262e-01,9.99999e-01,9.99999e-01,1.12262e-01,9.99999e-01
7.169505741e-01,1.17218e-01,9.99999e-01,9.99999e-01,1.17218e-01,9.99999e-01
7.205353270e-01,1.22288e-01,9.99999e-01,9.99999e-01,1.22288e-01,9.99999e-01
7.241380036e-01,1.27470e-01,9.99999e-01,9.99999e-01,1.27470e-01,9.99999e-01
7.277586936e-01,1.32764e-01,9.99999e-01,9.99999e-01,1.32764e-01,9.99999e-01
7.313974871e-01,1.38166e-01,9.99999e-01,9.99999e-01,1.38166e-01,9.99999e-01
7.350544745e-01,1.43675e-01,9.99999e-01,9.99999e-01,1.43675e-01,9.99999e-01
7.387297469e-01,1.49288e-01,9.99999e-01,9.99999e-01,1.49288e-01,9.99999e-01
7.424233956e-01,1.55003e-01,9.99999e-01,9.99999e-01,1.55003e-01,9.99999e-01
7.461355126e-01,1.60817e-01,9.99999e-01,9.99999e-01,1.60817e-01,9.99999e-01
7.498661902e-01,1.66728e-01,9.99999e-01,9.99999e-01,1.66728e-01,9.99999e-01
7.536155211e-01,1.72733e-01,9.99999e-01,9.99999e-01,1.72733e-01,9.99999e-01
7.573835987e-01,1.78830e-01,9.99999e-01,9.99999e-01,1.78830e-01,9.99999e-01
7.611705167e-01,1.85015e-01,9.99999e-01,9.99999e-01,1.85015e-01,9.99999e-01
7.649763693e-01,1.91285e-01,9.99999e-01,9.99999e-01,1.91285e-01,9.99999e-01
7.688012511e-01,1.97637e-01,9.99999e-01,9.99999e-01,1.97637e-01,9.99999e-01
7.726452574e-01,2.04069e-01,9.99999e-01,9.99999e-01,2.04069e-01,9.99999e-01
7.765084837e-01,2.10577e-01,9.99999e-01,9.99999e-01,2.10577e-01,9.99999e-01
7.803910261e-01,2.02965e-01,9.99999e-01,9.34644e-01,2.17158e-01,9.99999e-01
7.842929812e-01,1.64769e-01,9.99999e-01,7.36204e-01,2.23808e-01,9.99999e-01
7.882144461e-01,1.66214e-01,9.99999e-01,7.21024e-01,2.30525e-01,9.99999e-01
7.921555184e-01,1.94966e-01,9.99999e-01,8.21587e-01,2.37304e-01,9.99999e-01
7.961162960e-01,2.14035e-01,9.99999e-01,8.76679e-01,2.44143e-01,9.99999e-01
8.000968774e-01,2.33716e-01,9.99999e-01,9.30997e-01,2.51038e-01,9.99999e-01
8.040973618e-01,2.48626e-01,9.99999e-01,9.63719e-01,2.57986e-01,9.99999e-01
8.081178486e-01,2.60511e-01,9.99999e-01,9.83120e-01,2.64984e-01,9.99999e-01
8.121584379e-01,2.70612e-01,9.99999e-01,9.94796e-01,2.72027e-01,9.99999e-01
8.162192301e-01,2.78791e-01,9.99999e-01,9.98848e-01,2.79113e-01,9.99999e-01
8.203003262e-01,2.86233e-01,9.99999e-01,9.99983e-01,2.86238e-01,9.99999e-01
8.244018279e-01,2.93399e-01,9.99999e-01,9.99999e-01,2.93399e-01,9.99999e-01
8.285238370e-01,3.00592e-01,9.99999e-01,9.99999e-01,3.00592e-01,9.99999e-01
8.326664562e-01,3.07814e-01,9.99999e-01,9.99999e-01,3.07814e-01,9.99999e-01
8.368297885e-01,3.15062e-01,9.99999e-01,9.99999e-01,3.15062e-01,9.99999e-01
8.410139374e-01,3.22332e-01,9.99999e-01,9.99999e-01,3.22332e-01,9.99999e-01
8.452190071e-01,3.29622e-01,9.99999e-01,9.99999e-01,3.29622e-01,9.99999e-01
8.494451021e-01,3.36927e-01,9.99999e-01,9.99999e-01,3.36927e-01,9.99999e-01
8.536923276e-01,3.44246e-01,9.99999e-01,9.99999e-01,3.44246e-01,9.99999e-01
8.579607893e-01,3.51574e-01,9.99999e-01,9.99999e-01,3.51574e-01,9.99999e-01
8.622505932e-01,3.58909e-01,9.99999e-01,9.99999e-01,3.58909e-01,9.99999e-01
8.665618462e-01,3.24845e-01,9.99999e-01,8.86955e-01,3.66247e-01,9.99999e-01
8.708946554e-01,1.73725e-01,9.99999e-01,4.65019e-01,3.73586e-01,9.99999e-01
8.752491287e-01,2.03500e-01,9.99999e-01,5.34229e-01,3.80923e-01,9.99999e-01
8.796253743e-01,2.73753e-01,9.99999e-01,7.05086e-01,3.88254e-01,9.99999e-01
8.840235012e-01,3.29418e-01,9.99999e-01,8.32749e-01,3.95578e-01,9.99999e-01
8.884436187e-01,3.74856e-01,9.99999e-01,9.30415e-01,4.02891e-01,9.99999e-01
8.928858368e-01,3.98344e-01,9.99999e-01,9.71117e-01,4.10191e-01,9.99999e-01
8.973502660e-01,4.14528e-01,9.99999e-01,9.92938e-01,4.17475e-01,9.99999e-01
9.018370173e-01,4.24411e-01,9.99999e-01,9.99220e-01,4.24741e-01,9.99999e-01
9.063462024e-01,4.23284e-01,9.99999e-01,9.79853e-01,4.31986e-01,9.99999e-01
9.108779334e-01,4.19340e-01,9.99999e-01,9.54762e-01,4.39208e-01,9.99999e-01
9.154323231e-01,4.41618e-01,9.99999e-01,9.89276e-01,4.46404e-01,9.99999e-01
9.200094847e-01,3.90732e-01,9.99999e-01,8.61452e-01,4.53573e-01,9.99999e-01
9.246095321e-01,3.67499e-01,9.99999e-01,7.97677e-01,4.60712e-01,9.99999e-01
9.292325798e-01,3.92026e-01,9.99999e-01,8.37986e-01,4.67818e-01,9.99999e-01
9.338787427e-01,4.00355e-01,9.99999e-01,8.43045e-01,4.74891e-01,9.99999e-01
9.385481364e-01,4.24853e-01,9.99999e-01,8.81568e-01,4.81928e-01,9.99999e-01
9.432408771e-01,4.52588e-01,9.99999e-01,9.25676e-01,4.88927e-01,9.99999e-01
9.479570815e-01,4.76584e-01,9.99999e-01,9.61074e-01,4.95886e-01,9.99999e-01
9.526968669e-01,4.93292e-01,9.99999e-01,9.81079e-01,5.02804e-01,9.99999e-01
9.574603512e-01,5.05535e-01,9.99999e-01,9.91867e-01,5.09680e-01,9.99999e-01
9.622476530e-01,5.15198e-01,9.99999e-01,9.97458e-01,5.16510e-01,9.99999e-01
9.670588912e-01,5.22897e-01,9.99999e-01,9.99239e-01,5.23295e-01,9.99999e-01
9.718941857e-01,5.30004e-01,9.99999e-01,9.99946e-01,5.30032e-01,9.99999e-01
9.767536566e-01,5.36720e-01,9.99999e-01,9.99999e-01,5.36720e-01,9.99999e-01
9.816374249e-01,5.43357e-01,9.99999e-01,9.99999e-01,5.43357e-01,9.99999e-01
9.865456120e-01,5.49944e-01,9.99999e-01,9.99999e-01,5.49944e-01,9.99999e-01
9.914783401e-01,5.56478e-01,9.99999e-01,9.99999e-01,5.56478e-01,9.99999e-01
9.964357318e-01,5.62958e-01,9.99999e-01,9.99999e-01,5.62958e-01,9.99999e-01
1.001417910e+00,5.69383e-01,9.99999e-01,9.99999e-01,5.69383e-01,9.99999e-01
1.006425000e+00,5.75752e-01,9.99999e-01,9.99999e-01,5.75752e-01,9.99999e-01
1.011457125e+00,5.82065e-01,9.99999e-01,9.99999e-01,5.82065e-01,9.99999e-01
1.016514411e+00,5.88321e-01,9.99999e-01,9.99999e-01,5.88321e-01,9.99999e-01
1.021596983e+00,5.94447e-01,9.99999e-01,9.99880e-01,5.94518e-01,9.99999e-01
1.026704968e+00,5.95864e-01,9.99999e-01,9.92022e-01,6.00656e-01,9.99999e-01
1.031838492e+00,5.60582e-01,9.99999e-01,9.23933e-01,6.06734e-01,9.99999e-01
1.036997685e+00,4.63669e-02,9.99999e-01,7.56699e-02,6.12752e-01,9.99999e-01
1.042182673e+00,1.04334e-02,9.99999e-01,1.68632e-02,6.18709e-01,9.99999e-01
1.047393587e+00,1.97937e-02,9.99999e-01,3.16899e-02,6.24604e-01,9.99999e-01
1.052630555e+00,2.75655e-05,9.99999e-01,4.37243e-05,6.30438e-01,9.99999e-01
1.057893707e+00,9.91232e-05,9.99999e-01,1.55803e-04,6.36209e-01,9.99999e-01
1.063183176e+00,9.33051e-04,9.99999e-01,1.45354e-03,6.41917e-01,9.99999e-01
1.068499092e+00,5.43216e-03,9.99999e-01,8.38862e-03,6.47563e-01,9.99999e-01
1.073841587e+00,3.10482e-02,9.99999e-01,4.75364e-02,6.53145e-01,9.99999e-01
1.079210795e+00,9.62003e-02,9.99999e-01,1.46054e-01,6.58663e-01,9.99999e-01
1.084606849e+00,2.26389e-01,9.99999e-01,3.40887e-01,6.64118e-01,9.99999e-01
1.090029883e+00,3.81647e-01,9.99999e-01,5.70040e-01,6.69509e-01,9.99999e-01
1.095480033e+00,5.11444e-01,9.99999e-01,7.57879e-01,6.74836e-01,9.99999e-01
1.100957433e+00,5.94818e-01,9.99999e-01,8.74604e-01,6.80099e-01,9.99999e-01
1.106462220e+00,6.48371e-01,9.99999e-01,9.46116e-01,6.85297e-01,9.99999e-01
1.111994531e+00,6.76393e-01,9.99999e-01,9.79665e-01,6.90432e-01,9.99999e-01
1.117554504e+00,6.92037e-01,9.99999e-01,9.95017e-01,6.95502e-01,9.99999e-01
1.123142276e+00,7.00281e-01,9.99999e-01,9.99673e-01,7.00509e-01,9.99999e-01
1.128757988e+00,7.05451e-01,9.99999e-01,9.99999e-01,7.05451e-01,9.99999e-01
1.134401778e+00,7.10330e-01,9.99999e-01,9.99999e-01,7.10330e-01,9.99999e-01
1.140073787e+00,7.15145e-01,9.99999e-01,9.99999e-01,7.15145e-01,9.99999e-01
1.145774156e+00,7.19897e-01,9.99999e-01,9.99999e-01,7.19897e-01,9.99999e-01
1.151503026e+00,7.24585e-01,9.99999e-01,9.99999e-01,7.24585e-01,9.99999e-01
1.157260541e+00,7.29211e-01,9.99999e-01,9.99999e-01,7.29211e-01,9.99999e-01
1.163046844e+00,7.33774e-01,9.99999e-01,9.99999e-01,7.33774e-01,9.99999e-01
1.168862078e+00,7.38274e-01,9.99999e-01,9.99999e-01,7.38274e-01,9.99999e-01
1.174706389e+00,7.42712e-01,9.99999e-01,9.99999e-01,7.42712e-01,9.99999e-01
1.180579921e+00,7.47089e-01,9.99999e-01,9.99999e-01,7.47089e-01,9.99999e-01
1.186482820e+00,7.51391e-01,9.99999e-01,9.99982e-01,7.51404e-01,9.99999e-01
1.192415234e+00,7.34659e-01,9.99999e-01,9.72210e-01,7.55658e-01,9.99999e-01
1.198377311e+00,4.07443e-01,9.99999e-01,5.36213e-01,7.59851e-01,9.99999e-01
1.204369197e+00,4.14864e-21,9.99999e-01,5.43026e-21,7.63984e-01,9.99999e-01
1.210391043e+00,2.85609e-83,9.99999e-01,3.71859e-83,7.68058e-01,9.99999e-01
1.216442998e+00,3.72925e-72,9.99999e-01,4.83018e-72,7.72072e-01,9.99999e-01
1.222525213e+00,4.40329e-71,9.99999e-01,5.67415e-71,7.76027e-01,9.99999e-01
1.228637839e+00,5.96097e-55,9.99999e-01,7.64301e-55,7.79923e-01,9.99999e-01
1.234781029e+00,1.72903e-34,9.99999e-01,2.20607e-34,7.83762e-01,9.99999e-01
1.240954934e+00,5.18403e-23,9.99999e-01,6.58254e-23,7.87543e-01,9.99999e-01
1.247159708e+00,1.63372e-11,9.99999e-01,2.06469e-11,7.91267e-01,9.99999e-01
1.253395507e+00,9.58561e-08,9.99999e-01,1.20584e-07,7.94934e-01,9.99999e-01
1.259662485e+00,8.94132e-05,9.99999e-01,1.11970e-04,7.98546e-01,9.99999e-01
1.265960797e+00,4.83913e-03,9.99999e-01,6.03305e-03,8.02102e-01,9.99999e-01
1.272290601e+00,8.03437e-02,9.99999e-01,9.97309e-02,8.05604e-01,9.99999e-01
1.278652054e+00,6.89305e-02,9.99999e-01,8.51992e-02,8.09051e-01,9.99999e-01
1.285045314e+00,2.73574e-04,9.99999e-01,3.36730e-04,8.12444e-01,9.99999e-01
1.291470541e+00,3.29266e-10,9.99999e-01,4.03618e-10,8.15784e-01,9.99999e-01
1.297927893e+00,3.44572e-04,9.99999e-01,4.20686e-04,8.19072e-01,9.99999e-01
1.304417533e+00,1.19128e-02,9.99999e-01,1.44870e-02,8.22307e-01,9.99999e-01
1.310939621e+00,2.01240e-03,9.99999e-01,2.43782e-03,8.25491e-01,9.99999e-01
1.317494319e+00,4.57122e-29,9.99999e-01,5.51663e-29,8.28624e-01,9.99999e-01
1.324081790e+00,4.35115e-19,9.99999e-01,5.23159e-19,8.31706e-01,9.99999e-01
1.330702199e+00,2.42881e-11,9.99999e-01,2.90966e-11,8.34739e-01,9.99999e-01
1.337355710e+00,1.42845e-10,9.99999e-01,1.70516e-10,8.37723e-01,9.99999e-01
1.344042489e+00,6.05465e-11,9.99999e-01,7.20227e-11,8.40658e-01,9.99999e-01
1.350762701e+00,1.32238e-11,9.99999e-01,1.56765e-11,8.43545e-01,9.99999e-01
1.357516515e+00,2.24029e-07,9.99999e-01,2.64690e-07,8.46385e-01,9.99999e-01
1.364304097e+00,2.30636e-05,9.99999e-01,2.71599e-05,8.49178e-01,9.99999e-01
1.371125618e+00,3.92043e-03,9.99999e-01,4.60185e-03,8.51924e-01,9.99999e-01
1.377981246e+00,8.70443e-03,9.99999e-01,1.01851e-02,8.54625e-01,9.99999e-01
1.384871152e+00,5.92775e-02,9.99999e-01,6.91458e-02,8.57281e-01,9.99999e-01
1.391795508e+00,7.31500e-02,9.99999e-01,8.50687e-02,8.59893e-01,9.99999e-01
1.398754485e+00,1.84997e-01,9.99999e-01,2.14499e-01,8.62460e-01,9.99999e-01
1.405748258e+00,2.80841e-01,9.99999e-01,3.24677e-01,8.64985e-01,9.99999e-01
1.412776999e+00,4.24886e-01,9.99999e-01,4.89801e-01,8.67466e-01,9.99999e-01
1.419840884e+00,3.82563e-01,9.99999e-01,4.39775e-01,8.69906e-01,9.99999e-01
1.426940089e+00,1.91177e-02,9.99999e-01,2.19163e-02,8.72304e-01,9.99999e-01
1.434074789e+00,0.00000e+00,9.99999e-01,0.00000e+00,8.74661e-01,9.99999e-01
1.441245163e+00,0.00000e+00,9.99999e-01,0.00000e+00,8.76978e-01,9.99999e-01
1.448451389e+00,0.00000e+00,9.99999e-01,0.00000e+00,8.79255e-01,9.99999e-01
1.455693646e+00,0.00000e+00,9.99999e-01,0.00000e+00,8.81493e-01,9.99999e-01
1.462972114e+00,0.00000e+00,9.99999e-01,0.00000e+00,8.83692e-01,9.99999e-01
1.470286975e+00,1.48513e-137,9.99999e-01,1.67649e-137,8.85852e-01,9.99999e-01
