#,Wave/freq,Total,N2,CO2,Rayleigh,CIA
4.000000000e-01,7.61474e-10,9.99999e-01,9.99999e-01,7.61474e-10,9.99999e-01
4.020000000e-01,1.15333e-09,9.99999e-01,9.99999e-01,1.15333e-09,9.99999e-01
4.040100000e-01,1.73182e-09,9.99999e-01,9.99999e-01,1.73182e-09,9.99999e-01
4.060300500e-01,2.57967e-09,9.99999e-01,9.99999e-01,2.57967e-09,9.99999e-01
4.080602003e-01,3.81248e-09,9.99999e-01,9.99999e-01,3.81248e-09,9.99999e-01
4.101005013e-01,5.59113e-09,9.99999e-01,9.99999e-01,5.59113e-09,9.99999e-01
4.121510038e-01,8.13780e-09,9.99999e-01,9.99999e-01,8.13780e-09,9.99999e-01
4.142117588e-01,1.17570e-08,9.99999e-01,9.99999e-01,1.17570e-08,9.99999e-01
4.162828176e-01,1.68627e-08,9.99999e-01,9.99999e-01,1.68627e-08,9.99999e-01
4.183642317e-01,2.40139e-08,9.99999e-01,9.99999e-01,2.40139e-08,9.99999e-01
4.204560528e-01,3.39600e-08,9.99999e-01,9.99999e-01,3.39600e-08,9.99999e-01
4.225583331e-01,4.76980e-08,9.99999e-01,9.99999e-01,4.76980e-08,9.99999e-01
4.246711247e-01,6.65454e-08,9.99999e-01,9.99999e-01,6.65454e-08,9.99999e-01
4.267944804e-01,9.22315e-08,9.99999e-01,9.99999e-01,9.22315e-08,9.99999e-01
4.289284528e-01,1.27011e-07,9.99999e-01,9.99999e-01,1.27011e-07,9.99999e-01
4.310730950e-01,1.73803e-07,9.99999e-01,9.99999e-01,1.73803e-07,9.99999e-01
4.332284605e-01,2.36364e-07,9.99999e-01,9.99999e-01,2.36364e-07,9.99999e-01
4.353946028e-01,3.19499e-07,9.99999e-01,9.99999e-01,3.19499e-07,9.99999e-01
4.375715758e-01,4.29312e-07,9.99999e-01,9.99999e-01,4.29312e-07,9.99999e-01
4.397594337e-01,5.73511e-07,9.99999e-01,9.99999e-01,5.73511e-07,9.99999e-01
4.419582309e-01,7.61773e-07,9.99999e-01,9.99999e-01,7.61773e-07,9.99999e-01
4.441680220e-01,1.00618e-06,9.99999e-01,9.99999e-01,1.00618e-06,9.99999e-01
4.463888621e-01,1.32171e-06,9.99999e-01,9.99999e-01,1.32171e-06,9.99999e-01
4.486208064e-01,1.72687e-06,9.99999e-01,9.99999e-01,1.72687e-06,9.99999e-01
4.508639105e-01,2.24433e-06,9.99999e-01,9.99999e-01,2.24433e-06,9.99999e-01
4.531182300e-01,2.90180e-06,9.99999e-01,9.99999e-01,2.90180e-06,9.99999e-01
4.553838212e-01,3.73287e-06,9.99999e-01,9.99999e-01,3.73287e-06,9.99999e-01
4.576607403e-01,4.77814e-06,9.99999e-01,9.99999e-01,4.77814e-06,9.99999e-01
4.599490440e-01,6.08635e-06,9.99999e-01,9.99999e-01,6.08635e-06,9.99999e-01
4.622487892e-01,7.71576e-06,9.99999e-01,9.99999e-01,7.71576e-06,9.99999e-01
4.645600332e-01,9.73567e-06,9.99999e-01,9.99999e-01,9.73567e-06,9.99999e-01
4.668828333e-01,1.22281e-05,9.99999e-01,9.99999e-01,1.22281e-05,9.99999e-01
4.692172475e-01,1.52895e-05,9.99999e-01,9.99999e-01,1.52895e-05,9.99999e-01
4.715633337e-01,1.90333e-05,9.99999e-01,9.99999e-01,1.90333e-05,9.99999e-01
4.739211504e-01,2.35915e-05,9.99999e-01,9.99999e-01,2.35915e-05,9.99999e-01
4.762907561e-01,2.91176e-05,9.99999e-01,9.99999e-01,2.91176e-05,9.99999e-01
4.786722099e-01,3.57890e-05,9.99999e-01,9.99999e-01,3.57890e-05,9.99999e-01
4.810655710e-01,4.38101e-05,9.99999e-01,9.99999e-01,4.38101e-05,9.99999e-01
4.834708988e-01,5.34151e-05,9.99999e-01,9.99999e-01,5.34151e-05,9.99999e-01
4.858882533e-01,6.48714e-05,9.99999e-01,9.99999e-01,6.48714e-05,9.99999e-01
4.883176946e-01,7.84830e-05,9.99999e-01,9.99999e-01,7.84830e-05,9.99999e-01
4.907592831e-01,9.45940e-05,9.99999e-01,9.99999e-01,9.45940e-05,9.99999e-01
4.932130795e-01,1.13593e-04,9.99999e-01,9.99999e-01,1.13593e-04,9.99999e-01
4.956791449e-01,1.35915e-04,9.99999e-01,9.99999e-01,1.35915e-04,9.99999e-01
4.981575406e-01,1.62048e-04,9.99999e-01,9.99999e-01,1.62048e-04,9.99999e-01
5.006483283e-01,1.92537e-04,9.99999e-01,9.99999e-01,1.92537e-04,9.99999e-01
5.031515699e-01,2.27984e-04,9.99999e-01,9.99999e-01,2.27984e-04,9.99999e-01
5.056673278e-01,2.69057e-04,9.99999e-01,9.99999e-01,2.69057e-04,9.99999e-01
5.081956644e-01,3.16492e-04,9.99999e-01,9.99999e-01,3.16492e-04,9.99999e-01
5.107366428e-01,3.71099e-04,9.99999e-01,9.99999e-01,3.71099e-04,9.99999e-01
5.132903260e-01,4.33761e-04,9.99999e-01,9.99999e-01,4.33761e-04,9.99999e-01
5.158567776e-01,5.05445e-04,9.99999e-01,9.99999e-01,5.05445e-04,9.99999e-01
5.184360615e-01,5.87197e-04,9.99999e-01,9.99999e-01,5.87197e-04,9.99999e-01
5.210282418e-01,6.80156e-04,9.99999e-01,9.99999e-01,6.80156e-04,9.99999e-01
5.236333830e-01,7.85548e-04,9.99999e-01,9.99999e-01,7.85548e-04,9.99999e-01
5.262515499e-01,9.04692e-04,9.99999e-01,9.99999e-01,9.04692e-04,9.99999e-01
5.288828077e-01,1.03900e-03,9.99999e-01,9.99999e-01,1.03900e-03,9.99999e-01
5.315272217e-01,1.19000e-03,9.99999e-01,9.99999e-01,1.19000e-03,9.99999e-01
5.341848578e-01,1.35929e-03,9.99999e-01,9.99999e-01,1.35929e-03,9.99999e-01
5.368557821e-01,1.54859e-03,9.99999e-01,9.99999e-01,1.54859e-03,9.99999e-01
5.395400610e-01,1.75971e-03,9.99999e-01,9.99999e-01,1.75971e-03,9.99999e-01
5.422377613e-01,1.99458e-03,9.99999e-01,9.99999e-01,1.99458e-03,9.99999e-01
5.449489501e-01,2.25520e-03,9.99999e-01,9.99999e-01,2.25520e-03,9.99999e-01
5.476736949e-01,2.54370e-03,9.99999e-01,9.99999e-01,2.54370e-03,9.99999e-01
5.504120634e-01,2.86230e-03,9.99999e-01,9.99999e-01,2.86230e-03,9.99999e-01
5.531641237e-01,3.21330e-03,9.99999e-01,9.99999e-01,3.21330e-03,9.99999e-01
5.559299443e-01,3.59911e-03,9.99999e-01,9.99999e-01,3.59911e-03,9.99999e-01
5.587095940e-01,4.02222e-03,9.99999e-01,9.99999e-01,4.02222e-03,9.99999e-01
5.615031420e-01,4.48522e-03,9.99999e-01,9.99999e-01,4.48522e-03,9.99999e-01
5.643106577e-01,4.99076e-03,9.99999e-01,9.99999e-01,4.99076e-03,9.99999e-01
5.671322110e-01,5.54159e-03,9.99999e-01,9.99999e-01,5.54159e-03,9.99999e-01
5.699678720e-01,6.14049e-03,9.99999e-01,9.99999e-01,6.14049e-03,9.99999e-01
5.728177114e-01,6.79034e-03,9.99999e-01,9.99999e-01,6.79034e-03,9.99999e-01
5.756818000e-01,7.49405e-03,9.99999e-01,9.99999e-01,7.49405e-03,9.99999e-01
5.785602090e-01,8.25461e-03,9.99999e-01,9.99999e-01,8.25461e-03,9.99999e-01
5.814530100e-01,9.07500e-03,9.99999e-01,9.99999e-01,9.07500e-03,9.99999e-01
5.843602750e-01,9.95828e-03,9.99999e-01,9.99999e-01,9.95828e-03,9.99999e-01
5.872820764e-01,1.09075e-02,9.99999e-01,9.99999e-01,1.09075e-02,9.99999e-01
5.902184868e-01,1.19257e-02,9.99999e-01,9.99999e-01,1.19257e-02,9.99999e-01
5.931695792e-01,1.30160e-02,9.99999e-01,9.99999e-01,1.30160e-02,9.99999e-01
5.961354271e-01,1.41815e-02,9.99999e-01,9.99999e-01,1.41815e-02,9.99999e-01
5.991161043e-01,1.54252e-02,9.99999e-01,9.99999e-01,1.54252e-02,9.99999e-01
6.021116848e-01,1.67501e-02,9.99999e-01,9.99999e-01,1.67501e-02,9.99999e-01
6.051222432e-01,1.81592e-02,9.99999e-01,9.99999e-01,1.81592e-02,9.99999e-01
6.081478544e-01,1.96555e-02,9.99999e-01,9.99999e-01,1.96555e-02,9.99999e-01
6.111885937e-01,2.12419e-02,9.99999e-01,9.99999e-01,2.12419e-02,9.99999e-01
6.142445367e-01,2.29211e-02,9.99999e-01,9.99999e-01,2.29211e-02,9.99999e-01
6.173157594e-01,2.46959e-02,9.99999e-01,9.99999e-01,2.46959e-02,9.99999e-01
6.204023382e-01,2.65689e-02,9.99999e-01,9.99999e-01,2.65689e-02,9.99999e-01
6.235043498e-01,2.85428e-02,9.99999e-01,9.99999e-01,2.85428e-02,9.99999e-01
6.266218716e-01,3.06199e-02,9.99999e-01,9.99999e-01,3.06199e-02,9.99999e-01
6.297549810e-01,3.28027e-02,9.99999e-01,9.99999e-01,3.28027e-02,9.99999e-01
6.329037559e-01,3.50933e-02,9.99999e-01,9.99999e-01,3.50933e-02,9.99999e-01
6.360682746e-01,3.74938e-02,9.99999e-01,9.99999e-01,3.74938e-02,9.99999e-01
6.392486160e-01,4.00062e-02,9.99999e-01,9.99999e-01,4.00062e-02,9.99999e-01
6.424448591e-01,4.26323e-02,9.99999e-01,9.99999e-01,4.26323e-02,9.99999e-01
6.456570834e-01,4.53737e-02,9.99999e-01,9.99999e-01,4.53737e-02,9.99999e-01
6.488853688e-01,4.82321e-02,9.99999e-01,9.99999e-01,4.82321e-02,9.99999e-01
6.521297956e-01,5.12087e-02,9.99999e-01,9.99999e-01,5.12087e-02,9.99999e-01
6.553904446e-01,5.43047e-02,9.99999e-01,9.99999e-01,5.43047e-02,9.99999e-01
6.586673968e-01,5.75211e-02,9.99999e-01,9.99999e-01,5.75211e-02,9.99999e-01
6.619607338e-01,6.08588e-02,9.99999e-01,9.99999e-01,6.08588e-02,9.99999e-01
6.652705375e-01,6.43186e-02,9.99999e-01,9.99999e-01,6.43186e-02,9.99999e-01
6.685968902e-01,6.79008e-02,9.99999e-01,9.99999e-01,6.79008e-02,9.99999e-01
6.719398746e-01,7.16058e-02,9.99999e-01,9.99999e-01,7.16058e-02,9.99999e-01
6.752995740e-01,7.54337e-02,9.99999e-01,9.99999e-01,7.54337e-02,9.99999e-01
6.786760719e-01,7.93846e-02,9.99999e-01,9.99999e-01,7.93846e-02,9.99999e-01
6.820694522e-01,8.34583e-02,9.99999e-01,9.99999e-01,8.34583e-02,9.99999e-01
6.854797995e-01,8.76543e-02,9.99999e-01,9.99999e-01,8.76543e-02,9.99999e-01
6.889071985e-01,9.19720e-02,9.99999e-01,9.99999e-01,9.19720e-02,9.99999e-01
6.923517345e-01,9.64109e-02,9.99999e-01,9.99999e-01,9.64109e-02,9.99999e-01
6.958134932e-01,1.00970e-01,9.99999e-01,9.99999e-01,1.00970e-01,9.99999e-01
6.992925606e-01,1.05648e-01,9.99999e-01,9.99999e-01,1.05648e-01,9.99999e-01
7.027890234e-01,1.10444e-01,9.99999e-01,9.99999e-01,1.10444e-01,9.99999e-01
7.063029686e-01,1.15357e-01,9.99999e-01,9.99999e-01,1.15357e-01,9.99999e-01
7.098344834e-01,1.20384e-01,9.99999e-01,9.99999e-01,1.20384e-01,9.99999e-01
7.133836558e-01,1.25525e-01,9.99999e-01,9.99999e-01,1.25525e-01,9.99999e-01
7.169505741e-01,1.30778e-01,9.99999e-01,9.99999e-01,1.30778e-01,9.99999e-01
7.205353270e-01,1.36140e-01,9.99999e-01,9.99999e-01,1.36140e-01,9.99999e-01
7.241380036e-01,1.41609e-01,9.99999e-01,9.99999e-01,1.41609e-01,9.99999e-01
7.277586936e-01,1.47183e-01,9.99999e-01,9.99999e-01,1.47183e-01,9.99999e-01
7.313974871e-01,1.52860e-01,9.99999e-01,9.99999e-01,1.52860e-01,9.99999e-01
7.350544745e-01,1.58638e-01,9.99999e-01,9.99999e-01,1.58638e-01,9.99999e-01
7.387297469e-01,1.64513e-01,9.99999e-01,9.99999e-01,1.64513e-01,9.99999e-01
7.424233956e-01,1.70484e-01,9.99999e-01,9.99999e-01,1.70484e-01,9.99999e-01
7.461355126e-01,1.76547e-01,9.99999e-01,9.99999e-01,1.76547e-01,9.99999e-01
7.498661902e-01,1.82699e-01,9.99999e-01,9.99999e-01,1.82699e-01,9.99999e-01
7.536155211e-01,1.88938e-01,9.99999e-01,9.99999e-01,1.88938e-01,9.99999e-01
7.573835987e-01,1.95260e-01,9.99999e-01,9.99999e-01,1.95260e-01,9.99999e-01
7.611705167e-01,2.01662e-01,9.99999e-01,9.99999e-01,2.01662e-01,9.99999e-01
7.649763693e-01,2.08142e-01,9.99999e-01,9.99999e-01,2.08142e-01,9.99999e-01
7.688012511e-01,2.14696e-01,9.99999e-01,9.99999e-01,2.14696e-01,9.99999e-01
7.726452574e-01,2.21321e-01,9.99999e-01,9.99999e-01,2.21321e-01,9.99999e-01
7.765084837e-01,2.28013e-01,9.99999e-01,9.99999e-01,2.28013e-01,9.99999e-01
7.803910261e-01,2.21131e-01,9.99999e-01,9.41906e-01,2.34770e-01,9.99999e-01
7.842929812e-01,1.79995e-01,9.99999e-01,7.45052e-01,2.41587e-01,9.99999e-01
7.882144461e-01,1.82111e-01,9.99999e-01,7.32954e-01,2.48461e-01,9.99999e-01
7.921555184e-01,2.12043e-01,9.99999e-01,8.30271e-01,2.55390e-01,9.99999e-01
7.961162960e-01,2.31248e-01,9.99999e-01,8.81382e-01,2.62369e-01,9.99999e-01
8.000968774e-01,2.51591e-01,9.99999e-01,9.33908e-01,2.69396e-01,9.99999e-01
8.040973618e-01,2.66791e-01,9.99999e-01,9.65001e-01,2.76466e-01,9.99999e-01
8.081178486e-01,2.78999e-01,9.99999e-01,9.83855e-01,2.83577e-01,9.99999e-01
8.121584379e-01,2.89253e-01,9.99999e-01,9.94937e-01,2.90725e-01,9.99999e-01
8.162192301e-01,2.97573e-01,9.99999e-01,9.98879e-01,2.97906e-01,9.99999e-01
8.203003262e-01,3.05112e-01,9.99999e-01,9.99980e-01,3.05118e-01,9.99999e-01
8.244018279e-01,3.12357e-01,9.99999e-01,9.99999e-01,3.12357e-01,9.99999e-01
8.285238370e-01,3.19619e-01,9.99999e-01,9.99999e-01,3.19619e-01,9.99999e-01
8.326664562e-01,3.26902e-01,9.99999e-01,9.99999e-01,3.26902e-01,9.99999e-01
8.368297885e-01,3.34202e-01,9.99999e-01,9.99999e-01,3.34202e-01,9.99999e-01
8.410139374e-01,3.41516e-01,9.99999e-01,9.99999e-01,3.41516e-01,9.99999e-01
8.452190071e-01,3.48841e-01,9.99999e-01,9.99999e-01,3.48841e-01,9.99999e-01
8.494451021e-01,3.56174e-01,9.99999e-01,9.99999e-01,3.56174e-01,9.99999e-01
8.536923276e-01,3.63511e-01,9.99999e-01,9.99999e-01,3.63511e-01,9.99999e-01
8.579607893e-01,3.70850e-01,9.99999e-01,9.99999e-01,3.70850e-01,9.99999e-01
8.622505932e-01,3.78188e-01,9.99999e-01,9.99999e-01,3.78188e-01,9.99999e-01
8.665618462e-01,3.45694e-01,9.99999e-01,8.96689e-01,3.85522e-01,9.99999e-01
8.708946554e-01,1.89543e-01,9.99999e-01,4.82483e-01,3.92849e-01,9.99999e-01
8.752491287e-01,2.19466e-01,9.99999e-01,5.48436e-01,4.00166e-01,9.99999e-01
8.796253743e-01,2.91341e-01,9.99999e-01,7.14996e-01,4.07472e-01,9.99999e-01
8.840235012e-01,3.48024e-01,9.99999e-01,8.39092e-01,4.14762e-01,9.99999e-01
8.884436187e-01,3.93610e-01,9.99999e-01,9.32646e-01,4.22035e-01,9.99999e-01
8.928858368e-01,4.17362e-01,9.99999e-01,9.72219e-01,4.29288e-01,9.99999e-01
8.973502660e-01,4.33519e-01,9.99999e-01,9.93128e-01,4.36519e-01,9.99999e-01
9.018370173e-01,4.43387e-01,9.99999e-01,9.99238e-01,4.43725e-01,9.99999e-01
9.063462024e-01,4.42586e-01,9.99999e-01,9.81553e-01,4.50904e-01,9.99999e-01
9.108779334e-01,4.38193e-01,9.99999e-01,9.56640e-01,4.58054e-01,9.99999e-01
9.154323231e-01,4.60303e-01,9.99999e-01,9.89530e-01,4.65173e-01,9.99999e-01
9.200094847e-01,4.10957e-01,9.99999e-01,8.70195e-01,4.72258e-01,9.99999e-01
9.246095321e-01,3.86185e-01,9.99999e-01,8.05710e-01,4.79309e-01,9.99999e-01
9.292325798e-01,4.12005e-01,9.99999e-01,8.47184e-01,4.86322e-01,9.99999e-01
9.338787427e-01,4.19084e-01,9.99999e-01,8.49557e-01,4.93297e-01,9.99999e-01
9.385481364e-01,4.43540e-01,9.99999e-01,8.86670e-01,5.00230e-01,9.99999e-01
9.432408771e-01,4.70876e-01,9.99999e-01,9.28526e-01,5.07122e-01,9.99999e-01
9.479570815e-01,4.94848e-01,9.99999e-01,9.62796e-01,5.13969e-01,9.99999e-01
9.526968669e-01,5.11323e-01,9.99999e-01,9.81856e-01,5.20771e-01,9.99999e-01
9.574603512e-01,5.23407e-01,9.99999e-01,9.92193e-01,5.27526e-01,9.99999e-01
9.622476530e-01,5.32926e-01,9.99999e-01,9.97555e-01,5.34232e-01,9.99999e-01
9.670588912e-01,5.40491e-01,9.99999e-01,9.99264e-01,5.40889e-01,9.99999e-01
9.718941857e-01,5.47465e-01,9.99999e-01,9.99946e-01,5.47494e-01,9.99999e-01
9.767536566e-01,5.54048e-01,9.99999e-01,9.99999e-01,5.54048e-01,9.99999e-01
9.816374249e-01,5.60548e-01,9.99999e-01,9.99999e-01,5.60548e-01,9.99999e-01
9.865456120e-01,5.66994e-01,9.99999e-01,9.99999e-01,5.66994e-01,9.99999e-01
9.914783401e-01,5.73384e-01,9.99999e-01,9.99999e-01,5.73384e-01,9.99999e-01
9.964357318e-01,5.79718e-01,9.99999e-01,9.99999e-01,5.79718e-01,9.99999e-01
1.001417910e+00,5.85995e-01,9.99999e-01,9.99999e-01,5.85995e-01,9.99999e-01
1.006425000e+00,5.92214e-01,9.99999e-01,9.99999e-01,5.92214e-01,9.99999e-01
1.011457125e+00,5.98374e-01,9.99999e-01,9.99999e-01,5.98374e-01,9.99999e-01
1.016514411e+00,6.04475e-01,9.99999e-01,9.99999e-01,6.04475e-01,9.99999e-01
1.021596983e+00,6.10461e-01,9.99999e-01,9.99911e-01,6.10515e-01,9.99999e-01
1.026704968e+00,6.12025e-01,9.99999e-01,9.92749e-01,6.16495e-01,9.99999e-01
1.031838492e+00,5.81473e-01,9.99999e-01,9.34223e-01,6.22413e-01,9.99999e-01
1.036997685e+00,5.19565e-02,9.99999e-01,8.26976e-02,6.28270e-01,9.99999e-01
1.042182673e+00,1.25466e-02,9.99999e-01,1.97876e-02,6.34065e-01,9.99999e-01
1.047393587e+00,2.39111e-02,9.99999e-01,3.73730e-02,6.39796e-01,9.99999e-01
1.052630555e+00,4.30937e-05,9.99999e-01,6.67637e-05,6.45465e-01,9.99999e-01
1.057893707e+00,1.45679e-04,9.99999e-01,2.23752e-04,6.51071e-01,9.99999e-01
1.063183176e+00,1.25436e-03,9.99999e-01,1.91034e-03,6.56613e-01,9.99999e-01
1.068499092e+00,7.00016e-03,9.99999e-01,1.05728e-02,6.62092e-01,9.99999e-01
1.073841587e+00,3.64739e-02,9.99999e-01,5.46419e-02,6.67507e-01,9.99999e-01
1.079210795e+00,1.07146e-01,9.99999e-01,1.59241e-01,6.72857e-01,9.99999e-01
1.084606849e+00,2.42242e-01,9.99999e-01,3.57212e-01,6.78144e-01,9.99999e-01
1.090029883e+00,3.99624e-01,9.99999e-01,5.84787e-01,6.83367e-01,9.99999e-01
1.095480033e+00,5.28093e-01,9.99999e-01,7.66991e-01,6.88525e-01,9.99999e-01
1.100957433e+00,6.10205e-01,9.99999e-01,8.79739e-01,6.93619e-01,9.99999e-01
1.106462220e+00,6.62521e-01,9.99999e-01,9.48287e-01,6.98650e-01,9.99999e-01
1.111994531e+00,6.89898e-01,9.99999e-01,9.80502e-01,7.03616e-01,9.99999e-01
1.117554504e+00,7.05103e-01,9.99999e-01,9.95178e-01,7.08519e-01,9.99999e-01
1.123142276e+00,7.13130e-01,9.99999e-01,9.99680e-01,7.13357e-01,9.99999e-01
1.128757988e+00,7.18133e-01,9.99999e-01,9.99999e-01,7.18133e-01,9.99999e-01
1.134401778e+00,7.22845e-01,9.99999e-01,9.99999e-01,7.22845e-01,9.99999e-01
1.140073787e+00,7.27494e-01,9.99999e-01,9.99999e-01,7.27494e-01,9.99999e-01
1.145774156e+00,7.32080e-01,9.99999e-01,9.99999e-01,7.32080e-01,9.99999e-01
1.151503026e+00,7.36603e-01,9.99999e-01,9.99999e-01,7.36603e-01,9.99999e-01
1.157260541e+00,7.41065e-01,9.99999e-01,9.99999e-01,7.41065e-01,9.99999e-01
1.163046844e+00,7.45464e-01,9.99999e-01,9.99999e-01,7.45464e-01,9.99999e-01
1.168862078e+00,7.49802e-01,9.99999e-01,9.99999e-01,7.49802e-01,9.99999e-01
1.174706389e+00,7.54079e-01,9.99999e-01,9.99999e-01,7.54079e-01,9.99999e-01
1.180579921e+00,7.58295e-01,9.99999e-01,9.99999e-01,7.58295e-01,9.99999e-01
1.186482820e+00,7.62444e-01,9.99999e-01,9.99990e-01,7.62450e-01,9.99999e-01
1.192415234e+00,7.47333e-01,9.99999e-01,9.74935e-01,7.66546e-01,9.99999e-01
1.198377311e+00,4.17005e-01,9.99999e-01,5.41155e-01,7.70582e-01,9.99999e-01
1.204369197e+00,3.86137e-20,9.99999e-01,4.98525e-20,7.74559e-01,9.99999e-01
1.210391043e+00,4.15839e-79,9.99999e-01,5.34169e-79,7.78477e-01,9.99999e-01
1.216442998e+00,1.45706e-68,9.99999e-01,1.86244e-68,7.82337e-01,9.99999e-01
1.222525213e+00,1.51572e-67,9.99999e-01,1.92805e-67,7.86140e-01,9.99999e-01
1.228637839e+00,3.13740e-52,9.99999e-01,3.97197e-52,7.89885e-01,9.99999e-01
1.234781029e+00,7.83914e-33,9.99999e-01,9.87827e-33,7.93574e-01,9.99999e-01
1.240954934e+00,5.96389e-22,9.99999e-01,7.48098e-22,7.97206e-01,9.99999e-01
1.247159708e+00,3.38577e-14,9.99999e-01,4.22806e-14,8.00783e-01,9.99999e-01
1.253395507e+00,1.97164e-07,9.99999e-01,2.45135e-07,8.04305e-01,9.99999e-01
1.259662485e+00,7.75782e-05,9.99999e-01,9.60396e-05,8.07772e-01,9.99999e-01
1.265960797e+00,5.75693e-03,9.99999e-01,7.09693e-03,8.11185e-01,9.99999e-01
1.272290601e+00,7.61134e-02,9.99999e-01,9.34427e-02,8.14545e-01,9.99999e-01
1.278652054e+00,7.95357e-02,9.99999e-01,9.72494e-02,8.17852e-01,9.99999e-01
1.285045314e+00,4.72116e-04,9.99999e-01,5.74975e-04,8.21107e-01,9.99999e-01
1.291470541e+00,9.38286e-10,9.99999e-01,1.13827e-09,8.24310e-01,9.99999e-01
1.297927893e+00,1.14675e-04,9.99999e-01,1.38587e-04,8.27462e-01,9.99999e-01
1.304417533e+00,1.46219e-02,9.99999e-01,1.76047e-02,8.30563e-01,9.99999e-01
1.310939621e+00,3.65904e-03,9.99999e-01,4.38936e-03,8.33614e-01,9.99999e-01
1.317494319e+00,2.44985e-27,9.99999e-01,2.92828e-27,8.36616e-01,9.99999e-01
1.324081790e+00,3.21930e-18,9.99999e-01,3.83446e-18,8.39569e-01,9.99999e-01
1.330702199e+00,8.10193e-11,9.99999e-01,9.61681e-11,8.42474e-01,9.99999e-01
1.337355710e+00,3.97660e-10,9.99999e-01,4.70418e-10,8.45332e-01,9.99999e-01
1.344042489e+00,1.69739e-10,9.99999e-01,2.00131e-10,8.48142e-01,9.99999e-01
1.350762701e+00,4.24067e-11,9.99999e-01,4.98371e-11,8.50906e-01,9.99999e-01
1.357516515e+00,4.19000e-07,9.99999e-01,4.90848e-07,8.53624e-01,9.99999e-01
1.364304097e+00,3.75257e-05,9.99999e-01,4.38233e-05,8.56296e-01,9.99999e-01
1.371125618e+00,4.97071e-03,9.99999e-01,5.78713e-03,8.58924e-01,9.99999e-01
1.377981246e+00,1.08955e-02,9.99999e-01,1.26470e-02,8.61508e-01,9.99999e-01
1.384871152e+00,6.78635e-02,9.99999e-01,7.85412e-02,8.64049e-01,9.99999e-01
1.391795508e+00,8.23014e-02,9.99999e-01,9.49762e-02,8.66546e-01,9.99999e-01
1.398754485e+00,2.00536e-01,9.99999e-01,2.30766e-01,8.69001e-01,9.99999e-01
1.405748258e+00,2.97417e-01,9.99999e-01,3.41303e-01,8.71415e-01,9.99999e-01
1.412776999e+00,4.41543e-01,9.99999e-01,5.05321e-01,8.73787e-01,9.99999e-01
1.419840884e+00,4.05430e-01,9.99999e-01,4.62757e-01,8.76119e-01,9.99999e-01
1.426940089e+00,2.17172e-02,9.99999e-01,2.47233e-02,8.78411e-01,9.99999e-01
1.434074789e+00,0.00000e+00,9.99999e-01,0.00000e+00,8.80663e-01,9.99999e-01
1.441245163e+00,0.00000e+00,9.99999e-01,0.00000e+00,8.82876e-01,9.99999e-01
1.448451389e+00,0.00000e+00,9.99999e-01,0.00000e+00,8.85051e-01,9.99999e-01
1.455693646e+00,0.00000e+00,9.99999e-01,0.00000e+00,8.87189e-01,9.99999e-01
1.462972114e+00,3.48089e-314,9.99999e-01,3.91424e-314,8.89289e-01,9.99999e-01
1.470286975e+00,1.32668e-130,9.99999e-01,1.48839e-130,8.91352e-01,9.99999e-01
