#,Wave/freq,Total,N2,CO2,Rayleigh,CIA
4.000000000e-01,1.39433e-06,9.99999e-01,9.99999e-01,1.39433e-06,9.99999e-01
4.020000000e-01,1.82033e-06,9.99999e-01,9.99999e-01,1.82033e-06,9.99999e-01
4.040100000e-01,2.36334e-06,9.99999e-01,9.99999e-01,2.36334e-06,9.99999e-01
4.060300500e-01,3.05255e-06,9.99999e-01,9.99999e-01,3.05255e-06,9.99999e-01
4.080602003e-01,3.92288e-06,9.99999e-01,9.99999e-01,3.92288e-06,9.99999e-01
4.101005013e-01,5.01643e-06,9.99999e-01,9.99999e-01,5.01643e-06,9.99999e-01
4.121510038e-01,6.38374e-06,9.99999e-01,9.99999e-01,6.38374e-06,9.99999e-01
4.142117588e-01,8.08514e-06,9.99999e-01,9.99999e-01,8.08514e-06,9.99999e-01
4.162828176e-01,1.01923e-05,9.99999e-01,9.99999e-01,1.01923e-05,9.99999e-01
4.183642317e-01,1.27901e-05,9.99999e-01,9.99999e-01,1.27901e-05,9.99999e-01
4.204560528e-01,1.59780e-05,9.99999e-01,9.99999e-01,1.59780e-05,9.99999e-01
4.225583331e-01,1.98731e-05,9.99999e-01,9.99999e-01,1.98731e-05,9.99999e-01
4.246711247e-01,2.46114e-05,9.99999e-01,9.99999e-01,2.46114e-05,9.99999e-01
4.267944804e-01,3.03510e-05,9.99999e-01,9.99999e-01,3.03510e-05,9.99999e-01
4.289284528e-01,3.72745e-05,9.99999e-01,9.99999e-01,3.72745e-05,9.99999e-01
4.310730950e-01,4.55918e-05,9.99999e-01,9.99999e-01,4.55918e-05,9.99999e-01
4.332284605e-01,5.55437e-05,9.99999e-01,9.99999e-01,5.55437e-05,9.99999e-01
4.353946028e-01,6.74045e-05,9.99999e-01,9.99999e-01,6.74045e-05,9.99999e-01
4.375715758e-01,8.14859e-05,9.99999e-01,9.99999e-01,8.14859e-05,9.99999e-01
4.397594337e-01,9.81406e-05,9.99999e-01,9.99999e-01,9.81406e-05,9.99999e-01
4.419582309e-01,1.17766e-04,9.99999e-01,9.99999e-01,1.17766e-04,9.99999e-01
4.441680220e-01,1.40808e-04,9.99999e-01,9.99999e-01,1.40808e-04,9.99999e-01
4.463888621e-01,1.67765e-04,9.99999e-01,9.99999e-01,1.67765e-04,9.99999e-01
4.486208064e-01,1.99192e-04,9.99999e-01,9.99999e-01,1.99192e-04,9.99999e-01
4.508639105e-01,2.35706e-04,9.99999e-01,9.99999e-01,2.35706e-04,9.99999e-01
4.531182300e-01,2.77988e-04,9.99999e-01,9.99999e-01,2.77988e-04,9.99999e-01
4.553838212e-01,3.26787e-04,9.99999e-01,9.99999e-01,3.26787e-04,9.99999e-01
4.576607403e-01,3.82928e-04,9.99999e-01,9.99999e-01,3.82928e-04,9.99999e-01
4.599490440e-01,4.47310e-04,9.99999e-01,9.99999e-01,4.47310e-04,9.99999e-01
4.622487892e-01,5.20916e-04,9.99999e-01,9.99999e-01,5.20916e-04,9.99999e-01
4.645600332e-01,6.04811e-04,9.99999e-01,9.99999e-01,6.04811e-04,9.99999e-01
4.668828333e-01,7.00149e-04,9.99999e-01,9.99999e-01,7.00149e-04,9.99999e-01
4.692172475e-01,8.08176e-04,9.99999e-01,9.99999e-01,8.08176e-04,9.99999e-01
4.715633337e-01,9.30230e-04,9.99999e-01,9.99999e-01,9.30230e-04,9.99999e-01
4.739211504e-01,1.06775e-03,9.99999e-01,9.99999e-01,1.06775e-03,9.99999e-01
4.762907561e-01,1.22226e-03,9.99999e-01,9.99999e-01,1.22226e-03,9.99999e-01
4.786722099e-01,1.39540e-03,9.99999e-01,9.99999e-01,1.39540e-03,9.99999e-01
4.810655710e-01,1.58891e-03,9.99999e-01,9.99999e-01,1.58891e-03,9.99999e-01
4.834708988e-01,1.80461e-03,9.99999e-01,9.99999e-01,1.80461e-03,9.99999e-01
4.858882533e-01,2.04445e-03,9.99999e-01,9.99999e-01,2.04445e-03,9.99999e-01
4.883176946e-01,2.31047e-03,9.99999e-01,9.99999e-01,2.31047e-03,9.99999e-01
4.907592831e-01,2.60479e-03,9.99999e-01,9.99999e-01,2.60479e-03,9.99999e-01
4.932130795e-01,2.92966e-03,9.99999e-01,9.99999e-01,2.92966e-03,9.99999e-01
4.956791449e-01,3.28741e-03,9.99999e-01,9.99999e-01,3.28741e-03,9.99999e-01
4.981575406e-01,3.68046e-03,9.99999e-01,9.99999e-01,3.68046e-03,9.99999e-01
5.006483283e-01,4.11133e-03,9.99999e-01,9.99999e-01,4.11133e-03,9.99999e-01
5.031515699e-01,4.58260e-03,9.99999e-01,9.99999e-01,4.58260e-03,9.99999e-01
5.056673278e-01,5.09695e-03,9.99999e-01,9.99999e-01,5.09695e-03,9.99999e-01
5.081956644e-01,5.65714e-03,9.99999e-01,9.99999e-01,5.65714e-03,9.99999e-01
5.107366428e-01,6.26598e-03,9.99999e-01,9.99999e-01,6.26598e-03,9.99999e-01
5.132903260e-01,6.92634e-03,9.99999e-01,9.99999e-01,6.92634e-03,9.99999e-01
5.158567776e-01,7.64116e-03,9.99999e-01,9.99999e-01,7.64116e-03,9.99999e-01
5.184360615e-01,8.41341e-03,9.99999e-01,9.99999e-01,8.41341e-03,9.99999e-01
5.210282418e-01,9.24611e-03,9.99999e-01,9.99999e-01,9.24611e-03,9.99999e-01
5.236333830e-01,1.01423e-02,9.99999e-01,9.99999e-01,1.01423e-02,9.99999e-01
5.262515499e-01,1.11050e-02,9.99999e-01,9.99999e-01,1.11050e-02,9.99999e-01
5.288828077e-01,1.21374e-02,9.99999e-01,9.99999e-01,1.21374e-02,9.99999e-01
5.315272217e-01,1.32425e-02,9.99999e-01,9.99999e-01,1.32425e-02,9.99999e-01
5.341848578e-01,1.44233e-02,9.99999e-01,9.99999e-01,1.44233e-02,9.99999e-01
5.368557821e-01,1.56830e-02,9.99999e-01,9.99999e-01,1.56830e-02,9.99999e-01
5.395400610e-01,1.70244e-02,9.99999e-01,9.99999e-01,1.70244e-02,9.99999e-01
5.422377613e-01,1.84507e-02,9.99999e-01,9.99999e-01,1.84507e-02,9.99999e-01
5.449489501e-01,1.99647e-02,9.99999e-01,9.99999e-01,1.99647e-02,9.99999e-01
5.476736949e-01,2.15694e-02,9.99999e-01,9.99999e-01,2.15694e-02,9.99999e-01
5.504120634e-01,2.32674e-02,9.99999e-01,9.99999e-01,2.32674e-02,9.99999e-01
5.531641237e-01,2.50616e-02,9.99999e-01,9.99999e-01,2.50616e-02,9.99999e-01
5.559299443e-01,2.69546e-02,9.99999e-01,9.99999e-01,2.69546e-02,9.99999e-01
5.587095940e-01,2.89489e-02,9.99999e-01,9.99999e-01,2.89489e-02,9.99999e-01
5.615031420e-01,3.10469e-02,9.99999e-01,9.99999e-01,3.10469e-02,9.99999e-01
5.643106577e-01,3.32510e-02,9.99999e-01,9.99999e-01,3.32510e-02,9.99999e-01
5.671322110e-01,3.55634e-02,9.99999e-01,9.99999e-01,3.55634e-02,9.99999e-01
5.699678720e-01,3.79860e-02,9.99999e-01,9.99999e-01,3.79860e-02,9.99999e-01
5.728177114e-01,4.05210e-02,9.99999e-01,9.99999e-01,4.05210e-02,9.99999e-01
5.756818000e-01,4.31700e-02,9.99999e-01,9.99999e-01,4.31700e-02,9.99999e-01
5.785602090e-01,4.59346e-02,9.99999e-01,9.99999e-01,4.59346e-02,9.99999e-01
5.814530100e-01,4.88165e-02,9.99999e-01,9.99999e-01,4.88165e-02,9.99999e-01
5.843602750e-01,5.18168e-02,9.99999e-01,9.99999e-01,5.18168e-02,9.99999e-01
5.872820764e-01,5.49367e-02,9.99999e-01,9.99999e-01,5.49367e-02,9.99999e-01
5.902184868e-01,5.81773e-02,9.99999e-01,9.99999e-01,5.81773e-02,9.99999e-01
5.931695792e-01,6.15393e-02,9.99999e-01,9.99999e-01,6.15393e-02,9.99999e-01
5.961354271e-01,6.50234e-02,9.99999e-01,9.99999e-01,6.50234e-02,9.99999e-01
5.991161043e-01,6.86301e-02,9.99999e-01,9.99999e-01,6.86301e-02,9.99999e-01
6.021116848e-01,7.23596e-02,9.99999e-01,9.99999e-01,7.23596e-02,9.99999e-01
6.051222432e-01,7.62121e-02,9.99999e-01,9.99999e-01,7.62121e-02,9.99999e-01
6.081478544e-01,8.01876e-02,9.99999e-01,9.99999e-01,8.01876e-02,9.99999e-01
6.111885937e-01,8.42856e-02,9.99999e-01,9.99999e-01,8.42856e-02,9.99999e-01
6.142445367e-01,8.85060e-02,9.99999e-01,9.99999e-01,8.85060e-02,9.99999e-01
6.173157594e-01,9.28480e-02,9.99999e-01,9.99999e-01,9.28480e-02,9.99999e-01
6.204023382e-01,9.73109e-02,9.99999e-01,9.99999e-01,9.73109e-02,9.99999e-01
6.235043498e-01,1.01894e-01,9.99999e-01,9.99999e-01,1.01894e-01,9.99999e-01
6.266218716e-01,1.06596e-01,9.99999e-01,9.99999e-01,1.06596e-01,9.99999e-01
6.297549810e-01,1.11415e-01,9.99999e-01,9.99999e-01,1.11415e-01,9.99999e-01
6.329037559e-01,1.16351e-01,9.99999e-01,9.99999e-01,1.16351e-01,9.99999e-01
6.360682746e-01,1.21401e-01,9.99999e-01,9.99999e-01,1.21401e-01,9.99999e-01
6.392486160e-01,1.26564e-01,9.99999e-01,9.99999e-01,1.26564e-01,9.99999e-01
6.424448591e-01,1.31839e-01,9.99999e-01,9.99999e-01,1.31839e-01,9.99999e-01
6.456570834e-01,1.37222e-01,9.99999e-01,9.99999e-01,1.37222e-01,9.99999e-01
6.488853688e-01,1.42713e-01,9.99999e-01,9.99999e-01,1.42713e-01,9.99999e-01
6.521297956e-01,1.48308e-01,9.99999e-01,9.99999e-01,1.48308e-01,9.99999e-01
6.553904446e-01,1.54005e-01,9.99999e-01,9.99999e-01,1.54005e-01,9.99999e-01
6.586673968e-01,1.59802e-01,9.99999e-01,9.99999e-01,1.59802e-01,9.99999e-01
6.619607338e-01,1.65697e-01,9.99999e-01,9.99999e-01,1.65697e-01,9.99999e-01
6.652705375e-01,1.71686e-01,9.99999e-01,9.99999e-01,1.71686e-01,9.99999e-01
6.685968902e-01,1.77767e-01,9.99999e-01,9.99999e-01,1.77767e-01,9.99999e-01
6.719398746e-01,1.83937e-01,9.99999e-01,9.99999e-01,1.83937e-01,9.99999e-01
6.752995740e-01,1.90192e-01,9.99999e-01,9.99999e-01,1.90192e-01,9.99999e-01
6.786760719e-01,1.96531e-01,9.99999e-01,9.99999e-01,1.96531e-01,9.99999e-01
6.820694522e-01,2.02949e-01,9.99999e-01,9.99999e-01,2.02949e-01,9.99999e-01
6.854797995e-01,2.09444e-01,9.99999e-01,9.99999e-01,2.09444e-01,9.99999e-01
6.889071985e-01,2.16012e-01,9.99999e-01,9.99999e-01,2.16012e-01,9.99999e-01
6.923517345e-01,2.22651e-01,9.99999e-01,9.99999e-01,2.22651e-01,9.99999e-01
6.958134932e-01,2.29356e-01,9.99999e-01,9.99999e-01,2.29356e-01,9.99999e-01
6.992925606e-01,2.36125e-01,9.99999e-01,9.99999e-01,2.36125e-01,9.99999e-01
7.027890234e-01,2.42954e-01,9.99999e-01,9.99999e-01,2.42954e-01,9.99999e-01
7.063029686e-01,2.49840e-01,9.99999e-01,9.99999e-01,2.49840e-01,9.99999e-01
7.098344834e-01,2.56779e-01,9.99999e-01,9.99999e-01,2.56779e-01,9.99999e-01
7.133836558e-01,2.63768e-01,9.99999e-01,9.99999e-01,2.63768e-01,9.99999e-01
7.169505741e-01,2.70803e-01,9.99999e-01,9.99999e-01,2.70803e-01,9.99999e-01
7.205353270e-01,2.77882e-01,9.99999e-01,9.99999e-01,2.77882e-01,9.99999e-01
7.241380036e-01,2.85000e-01,9.99999e-01,9.99999e-01,2.85000e-01,9.99999e-01
7.277586936e-01,2.92155e-01,9.99999e-01,9.99999e-01,2.92155e-01,9.99999e-01
7.313974871e-01,2.99343e-01,9.99999e-01,9.99999e-01,2.99343e-01,9.99999e-01
7.350544745e-01,3.06560e-01,9.99999e-01,9.99999e-01,3.06560e-01,9.99999e-01
7.387297469e-01,3.13804e-01,9.99999e-01,9.99999e-01,3.13804e-01,9.99999e-01
7.424233956e-01,3.21071e-01,9.99999e-01,9.99999e-01,3.21071e-01,9.99999e-01
7.461355126e-01,3.28357e-01,9.99999e-01,9.99999e-01,3.28357e-01,9.99999e-01
7.498661902e-01,3.35660e-01,9.99999e-01,9.99999e-01,3.35660e-01,9.99999e-01
7.536155211e-01,3.42977e-01,9.99999e-01,9.99999e-01,3.42977e-01,9.99999e-01
7.573835987e-01,3.50303e-01,9.99999e-01,9.99999e-01,3.50303e-01,9.99999e-01
7.611705167e-01,3.57637e-01,9.99999e-01,9.99999e-01,3.57637e-01,9.99999e-01
7.649763693e-01,3.64975e-01,9.99999e-01,9.99999e-01,3.64975e-01,9.99999e-01
7.688012511e-01,3.72314e-01,9.99999e-01,9.99999e-01,3.72314e-01,9.99999e-01
7.726452574e-01,3.79652e-01,9.99999e-01,9.99999e-01,3.79652e-01,9.99999e-01
7.765084837e-01,3.86984e-01,9.99999e-01,9.99999e-01,3.86984e-01,9.99999e-01
7.803910261e-01,3.78531e-01,9.99999e-01,9.59982e-01,3.94310e-01,9.99999e-01
7.842929812e-01,3.31195e-01,9.99999e-01,8.24638e-01,4.01625e-01,9.99999e-01
7.882144461e-01,3.33269e-01,9.99999e-01,8.14983e-01,4.08927e-01,9.99999e-01
7.921555184e-01,3.69084e-01,9.99999e-01,8.86764e-01,4.16214e-01,9.99999e-01
7.961162960e-01,3.90441e-01,9.99999e-01,9.21973e-01,4.23484e-01,9.99999e-01
8.000968774e-01,4.12206e-01,9.99999e-01,9.56989e-01,4.30732e-01,9.99999e-01
8.040973618e-01,4.28051e-01,9.99999e-01,9.77377e-01,4.37958e-01,9.99999e-01
8.081178486e-01,4.40530e-01,9.99999e-01,9.89601e-01,4.45159e-01,9.99999e-01
8.121584379e-01,4.50862e-01,9.99999e-01,9.96747e-01,4.52333e-01,9.99999e-01
8.162192301e-01,4.59146e-01,9.99999e-01,9.99280e-01,4.59477e-01,9.99999e-01
8.203003262e-01,4.66584e-01,9.99999e-01,9.99987e-01,4.66589e-01,9.99999e-01
8.244018279e-01,4.73668e-01,9.99999e-01,9.99999e-01,4.73668e-01,9.99999e-01
8.285238370e-01,4.80711e-01,9.99999e-01,9.99999e-01,4.80711e-01,9.99999e-01
8.326664562e-01,4.87717e-01,9.99999e-01,9.99999e-01,4.87717e-01,9.99999e-01
8.368297885e-01,4.94683e-01,9.99999e-01,9.99999e-01,4.94683e-01,9.99999e-01
8.410139374e-01,5.01609e-01,9.99999e-01,9.99999e-01,5.01609e-01,9.99999e-01
8.452190071e-01,5.08491e-01,9.99999e-01,9.99999e-01,5.08491e-01,9.99999e-01
8.494451021e-01,5.15330e-01,9.99999e-01,9.99999e-01,5.15330e-01,9.99999e-01
8.536923276e-01,5.22122e-01,9.99999e-01,9.99999e-01,5.22122e-01,9.99999e-01
8.579607893e-01,5.28867e-01,9.99999e-01,9.99999e-01,5.28867e-01,9.99999e-01
8.622505932e-01,5.35564e-01,9.99999e-01,9.99999e-01,5.35564e-01,9.99999e-01
8.665618462e-01,4.97417e-01,9.99999e-01,9.17386e-01,5.42211e-01,9.99999e-01
8.708946554e-01,3.38304e-01,9.99999e-01,6.16435e-01,5.48806e-01,9.99999e-01
8.752491287e-01,3.74592e-01,9.99999e-01,6.74516e-01,5.55349e-01,9.99999e-01
8.796253743e-01,4.51943e-01,9.99999e-01,8.04400e-01,5.61838e-01,9.99999e-01
8.840235012e-01,5.07514e-01,9.99999e-01,8.93080e-01,5.68273e-01,9.99999e-01
8.884436187e-01,5.49466e-01,9.99999e-01,9.56169e-01,5.74653e-01,9.99999e-01
8.928858368e-01,5.70557e-01,9.99999e-01,9.82066e-01,5.80975e-01,9.99999e-01
8.973502660e-01,5.84647e-01,9.99999e-01,9.95583e-01,5.87241e-01,9.99999e-01
9.018370173e-01,5.93158e-01,9.99999e-01,9.99511e-01,5.93448e-01,9.99999e-01
9.063462024e-01,5.92411e-01,9.99999e-01,9.88016e-01,5.99596e-01,9.99999e-01
9.108779334e-01,5.88668e-01,9.99999e-01,9.71904e-01,6.05685e-01,9.99999e-01
9.154323231e-01,6.07592e-01,9.99999e-01,9.93263e-01,6.11713e-01,9.99999e-01
9.200094847e-01,5.62415e-01,9.99999e-01,9.10527e-01,6.17681e-01,9.99999e-01
9.246095321e-01,5.42550e-01,9.99999e-01,8.70047e-01,6.23587e-01,9.99999e-01
9.292325798e-01,5.65239e-01,9.99999e-01,8.98015e-01,6.29431e-01,9.99999e-01
9.338787427e-01,5.71727e-01,9.99999e-01,9.00054e-01,6.35213e-01,9.99999e-01
9.385481364e-01,5.93169e-01,9.99999e-01,9.25477e-01,6.40933e-01,9.99999e-01
9.432408771e-01,6.16512e-01,9.99999e-01,9.53483e-01,6.46589e-01,9.99999e-01
9.479570815e-01,6.36492e-01,9.99999e-01,9.75942e-01,6.52182e-01,9.99999e-01
9.526968669e-01,6.50021e-01,9.99999e-01,9.88306e-01,6.57712e-01,9.99999e-01
9.574603512e-01,6.59848e-01,9.99999e-01,9.94979e-01,6.63177e-01,9.99999e-01
9.622476530e-01,6.67530e-01,9.99999e-01,9.98429e-01,6.68579e-01,9.99999e-01
9.670588912e-01,6.73599e-01,9.99999e-01,9.99527e-01,6.73917e-01,9.99999e-01
9.718941857e-01,6.79168e-01,9.99999e-01,9.99965e-01,6.79191e-01,9.99999e-01
9.767536566e-01,6.84401e-01,9.99999e-01,9.99999e-01,6.84401e-01,9.99999e-01
9.816374249e-01,6.89547e-01,9.99999e-01,9.99999e-01,6.89547e-01,9.99999e-01
9.865456120e-01,6.94628e-01,9.99999e-01,9.99999e-01,6.94628e-01,9.99999e-01
9.914783401e-01,6.99646e-01,9.99999e-01,9.99999e-01,6.99646e-01,9.99999e-01
9.964357318e-01,7.04599e-01,9.99999e-01,9.99999e-01,7.04599e-01,9.99999e-01
1.001417910e+00,7.09489e-01,9.99999e-01,9.99999e-01,7.09489e-01,9.99999e-01
1.006425000e+00,7.14315e-01,9.99999e-01,9.99999e-01,7.14315e-01,9.99999e-01
1.011457125e+00,7.19078e-01,9.99999e-01,9.99999e-01,7.19078e-01,9.99999e-01
1.016514411e+00,7.23777e-01,9.99999e-01,9.99999e-01,7.23777e-01,9.99999e-01
1.021596983e+00,7.28372e-01,9.99999e-01,9.99942e-01,7.28414e-01,9.99999e-01
1.026704968e+00,7.29558e-01,9.99999e-01,9.95320e-01,7.32987e-01,9.99999e-01
1.031838492e+00,7.01742e-01,9.99999e-01,9.51515e-01,7.37498e-01,9.99999e-01
1.036997685e+00,9.19570e-02,9.99999e-01,1.23940e-01,7.41947e-01,9.99999e-01
1.042182673e+00,5.21720e-02,9.99999e-01,6.99043e-02,7.46335e-01,9.99999e-01
1.047393587e+00,7.24912e-02,9.99999e-01,9.65698e-02,7.50660e-01,9.99999e-01
1.052630555e+00,8.82086e-04,9.99999e-01,1.16844e-03,7.54925e-01,9.99999e-01
1.057893707e+00,2.47980e-03,9.99999e-01,3.26663e-03,7.59129e-01,9.99999e-01
1.063183176e+00,1.09742e-02,9.99999e-01,1.43778e-02,7.63272e-01,9.99999e-01
1.068499092e+00,3.85857e-02,9.99999e-01,5.02839e-02,7.67356e-01,9.99999e-01
1.073841587e+00,1.15437e-01,9.99999e-01,1.49650e-01,7.71380e-01,9.99999e-01
1.079210795e+00,2.32847e-01,9.99999e-01,3.00314e-01,7.75345e-01,9.99999e-01
1.084606849e+00,4.00155e-01,9.99999e-01,5.13511e-01,7.79252e-01,9.99999e-01
1.090029883e+00,5.53970e-01,9.99999e-01,7.07405e-01,7.83101e-01,9.99999e-01
1.095480033e+00,6.63269e-01,9.99999e-01,8.42897e-01,7.86892e-01,9.99999e-01
1.100957433e+00,7.28101e-01,9.99999e-01,9.20917e-01,7.90625e-01,9.99999e-01
1.106462220e+00,7.67660e-01,9.99999e-01,9.66457e-01,7.94303e-01,9.99999e-01
1.111994531e+00,7.87898e-01,9.99999e-01,9.87433e-01,7.97924e-01,9.99999e-01
1.117554504e+00,7.99008e-01,9.99999e-01,9.96902e-01,8.01490e-01,9.99999e-01
1.123142276e+00,8.04836e-01,9.99999e-01,9.99794e-01,8.05001e-01,9.99999e-01
1.128757988e+00,8.08457e-01,9.99999e-01,9.99999e-01,8.08457e-01,9.99999e-01
1.134401778e+00,8.11860e-01,9.99999e-01,9.99999e-01,8.11860e-01,9.99999e-01
1.140073787e+00,8.15209e-01,9.99999e-01,9.99999e-01,8.15209e-01,9.99999e-01
1.145774156e+00,8.18506e-01,9.99999e-01,9.99999e-01,8.18506e-01,9.99999e-01
1.151503026e+00,8.21750e-01,9.99999e-01,9.99999e-01,8.21750e-01,9.99999e-01
1.157260541e+00,8.24943e-01,9.99999e-01,9.99999e-01,8.24943e-01,9.99999e-01
1.163046844e+00,8.28085e-01,9.99999e-01,9.99999e-01,8.28085e-01,9.99999e-01
1.168862078e+00,8.31176e-01,9.99999e-01,9.99999e-01,8.31176e-01,9.99999e-01
1.174706389e+00,8.34217e-01,9.99999e-01,9.99999e-01,8.34217e-01,9.99999e-01
1.180579921e+00,8.37209e-01,9.99999e-01,9.99999e-01,8.37209e-01,9.99999e-01
1.186482820e+00,8.40148e-01,9.99999e-01,9.99993e-01,8.40153e-01,9.99999e-01
1.192415234e+00,8.29206e-01,9.99999e-01,9.83580e-01,8.43048e-01,9.99999e-01
1.198377311e+00,4.70145e-01,9.99999e-01,5.55794e-01,8.45896e-01,9.99999e-01
1.204369197e+00,9.72510e-14,9.99999e-01,1.14588e-13,8.48697e-01,9.99999e-01
1.210391043e+00,1.31505e-51,9.99999e-01,1.54448e-51,8.51452e-01,9.99999e-01
1.216442998e+00,7.77298e-45,9.99999e-01,9.10014e-45,8.54160e-01,9.99999e-01
1.222525213e+00,3.49825e-44,9.99999e-01,4.08280e-44,8.56824e-01,9.99999e-01
1.228637839e+00,3.20696e-34,9.99999e-01,3.73144e-34,8.59443e-01,9.99999e-01
1.234781029e+00,6.86846e-22,9.99999e-01,7.96787e-22,8.62019e-01,9.99999e-01
1.240954934e+00,9.45517e-15,9.99999e-01,1.09365e-14,8.64550e-01,9.99999e-01
1.247159708e+00,1.21393e-09,9.99999e-01,1.40008e-09,8.67039e-01,9.99999e-01
1.253395507e+00,3.46139e-05,9.99999e-01,3.98096e-05,8.69486e-01,9.99999e-01
1.259662485e+00,1.71931e-03,9.99999e-01,1.97193e-03,8.71891e-01,9.99999e-01
1.265960797e+00,3.02361e-02,9.99999e-01,3.45850e-02,8.74256e-01,9.99999e-01
1.272290601e+00,1.84980e-01,9.99999e-01,2.11025e-01,8.76579e-01,9.99999e-01
1.278652054e+00,1.79581e-01,9.99999e-01,2.04333e-01,8.78863e-01,9.99999e-01
1.285045314e+00,3.11269e-03,9.99999e-01,3.53270e-03,8.81108e-01,9.99999e-01
1.291470541e+00,1.06251e-06,9.99999e-01,1.20287e-06,8.83313e-01,9.99999e-01
1.297927893e+00,1.45341e-03,9.99999e-01,1.64138e-03,8.85481e-01,9.99999e-01
1.304417533e+00,6.38387e-02,9.99999e-01,7.19219e-02,8.87610e-01,9.99999e-01
1.310939621e+00,1.57737e-02,9.99999e-01,1.77291e-02,8.89703e-01,9.99999e-01
1.317494319e+00,3.73316e-18,9.99999e-01,4.18628e-18,8.91759e-01,9.99999e-01
1.324081790e+00,2.20162e-12,9.99999e-01,2.46326e-12,8.93779e-01,9.99999e-01
1.330702199e+00,2.49762e-07,9.99999e-01,2.78826e-07,8.95764e-01,9.99999e-01
1.337355710e+00,4.63468e-07,9.99999e-01,5.16276e-07,8.97714e-01,9.99999e-01
1.344042489e+00,1.57618e-07,9.99999e-01,1.75203e-07,8.99629e-01,9.99999e-01
1.350762701e+00,1.42669e-07,9.99999e-01,1.58256e-07,9.01511e-01,9.99999e-01
1.357516515e+00,4.54553e-05,9.99999e-01,5.03180e-05,9.03359e-01,9.99999e-01
1.364304097e+00,1.25547e-03,9.99999e-01,1.38700e-03,9.05174e-01,9.99999e-01
1.371125618e+00,2.98127e-02,9.99999e-01,3.28711e-02,9.06957e-01,9.99999e-01
1.377981246e+00,5.35496e-02,9.99999e-01,5.89293e-02,9.08709e-01,9.99999e-01
1.384871152e+00,1.75176e-01,9.99999e-01,1.92411e-01,9.10429e-01,9.99999e-01
1.391795508e+00,1.98534e-01,9.99999e-01,2.17663e-01,9.12118e-01,9.99999e-01
1.398754485e+00,3.55773e-01,9.99999e-01,3.89343e-01,9.13776e-01,9.99999e-01
1.405748258e+00,4.57261e-01,9.99999e-01,4.99517e-01,9.15405e-01,9.99999e-01
1.412776999e+00,5.90957e-01,9.99999e-01,6.44442e-01,9.17005e-01,9.99999e-01
1.419840884e+00,5.35407e-01,9.99999e-01,5.82866e-01,9.18576e-01,9.99999e-01
1.426940089e+00,4.17704e-02,9.99999e-01,4.53968e-02,9.20118e-01,9.99999e-01
1.434074789e+00,0.00000e+00,9.99999e-01,0.00000e+00,9.21632e-01,9.99999e-01
1.441245163e+00,0.00000e+00,9.99999e-01,0.00000e+00,9.23119e-01,9.99999e-01
1.448451389e+00,0.00000e+00,9.99999e-01,0.00000e+00,9.24579e-01,9.99999e-01
1.455693646e+00,0.00000e+00,9.99999e-01,0.00000e+00,9.26012e-01,9.99999e-01
1.462972114e+00,1.41740e-202,9.99999e-01,1.52832e-202,9.27419e-01,9.99999e-01
1.470286975e+00,1.11592e-84,9.99999e-01,1.20147e-84,9.28800e-01,9.99999e-01
