#,Wave/freq,Total,N2,CO2,Rayleigh,CIA
4.000000000e-01,5.32432e-19,9.99999e-01,9.99999e-01,5.32432e-19,9.99999e-01
4.020000000e-01,1.22347e-18,9.99999e-01,9.99999e-01,1.22347e-18,9.99999e-01
4.040100000e-01,2.76318e-18,9.99999e-01,9.99999e-01,2.76318e-18,9.99999e-01
4.060300500e-01,6.14094e-18,9.99999e-01,9.99999e-01,6.14094e-18,9.99999e-01
4.080602003e-01,1.34341e-17,9.99999e-01,9.99999e-01,1.34341e-17,9.99999e-01
4.101005013e-01,2.89381e-17,9.99999e-01,9.99999e-01,2.89381e-17,9.99999e-01
4.121510038e-01,6.13969e-17,9.99999e-01,9.99999e-01,6.13969e-17,9.99999e-01
4.142117588e-01,1.28343e-16,9.99999e-01,9.99999e-01,1.28343e-16,9.99999e-01
4.162828176e-01,2.64405e-16,9.99999e-01,9.99999e-01,2.64405e-16,9.99999e-01
4.183642317e-01,5.36993e-16,9.99999e-01,9.99999e-01,5.36993e-16,9.99999e-01
4.204560528e-01,1.07545e-15,9.99999e-01,9.99999e-01,1.07545e-15,9.99999e-01
4.225583331e-01,2.12448e-15,9.99999e-01,9.99999e-01,2.12448e-15,9.99999e-01
4.246711247e-01,4.14072e-15,9.99999e-01,9.99999e-01,4.14072e-15,9.99999e-01
4.267944804e-01,7.96479e-15,9.99999e-01,9.99999e-01,7.96479e-15,9.99999e-01
4.289284528e-01,1.51238e-14,9.99999e-01,9.99999e-01,1.51238e-14,9.99999e-01
4.310730950e-01,2.83561e-14,9.99999e-01,9.99999e-01,2.83561e-14,9.99999e-01
4.332284605e-01,5.25099e-14,9.99999e-01,9.99999e-01,5.25099e-14,9.99999e-01
4.353946028e-01,9.60614e-14,9.99999e-01,9.99999e-01,9.60614e-14,9.99999e-01
4.375715758e-01,1.73650e-13,9.99999e-01,9.99999e-01,1.73650e-13,9.99999e-01
4.397594337e-01,3.10259e-13,9.99999e-01,9.99999e-01,3.10259e-13,9.99999e-01
4.419582309e-01,5.48016e-13,9.99999e-01,9.99999e-01,5.48016e-13,9.99999e-01
4.441680220e-01,9.57156e-13,9.99999e-01,9.99999e-01,9.57156e-13,9.99999e-01
4.463888621e-01,1.65344e-12,9.99999e-01,9.99999e-01,1.65344e-12,9.99999e-01
4.486208064e-01,2.82556e-12,9.99999e-01,9.99999e-01,2.82556e-12,9.99999e-01
4.508639105e-01,4.77775e-12,9.99999e-01,9.99999e-01,4.77775e-12,9.99999e-01
4.531182300e-01,7.99533e-12,9.99999e-01,9.99999e-01,7.99533e-12,9.99999e-01
4.553838212e-01,1.32444e-11,9.99999e-01,9.99999e-01,1.32444e-11,9.99999e-01
4.576607403e-01,2.17220e-11,9.99999e-01,9.99999e-01,2.17220e-11,9.99999e-01
4.599490440e-01,3.52795e-11,9.99999e-01,9.99999e-01,3.52795e-11,9.99999e-01
4.622487892e-01,5.67525e-11,9.99999e-01,9.99999e-01,5.67525e-11,9.99999e-01
4.645600332e-01,9.04418e-11,9.99999e-01,9.99999e-01,9.04418e-11,9.99999e-01
4.668828333e-01,1.42809e-10,9.99999e-01,9.99999e-01,1.42809e-10,9.99999e-01
4.692172475e-01,2.23472e-10,9.99999e-01,9.99999e-01,2.23472e-10,9.99999e-01
4.715633337e-01,3.46617e-10,9.99999e-01,9.99999e-01,3.46617e-10,9.99999e-01
4.739211504e-01,5.32981e-10,9.99999e-01,9.99999e-01,5.32981e-10,9.99999e-01
4.762907561e-01,8.12610e-10,9.99999e-01,9.99999e-01,8.12610e-10,9.99999e-01
4.786722099e-01,1.22867e-09,9.99999e-01,9.99999e-01,1.22867e-09,9.99999e-01
4.810655710e-01,1.84264e-09,9.99999e-01,9.99999e-01,1.84264e-09,9.99999e-01
4.834708988e-01,2.74138e-09,9.99999e-01,9.99999e-01,2.74138e-09,9.99999e-01
4.858882533e-01,4.04660e-09,9.99999e-01,9.99999e-01,4.04660e-09,9.99999e-01
4.883176946e-01,5.92750e-09,9.99999e-01,9.99999e-01,5.92750e-09,9.99999e-01
4.907592831e-01,8.61743e-09,9.99999e-01,9.99999e-01,8.61743e-09,9.99999e-01
4.932130795e-01,1.24358e-08,9.99999e-01,9.99999e-01,1.24358e-08,9.99999e-01
4.956791449e-01,1.78166e-08,9.99999e-01,9.99999e-01,1.78166e-08,9.99999e-01
4.981575406e-01,2.53448e-08,9.99999e-01,9.99999e-01,2.53448e-08,9.99999e-01
5.006483283e-01,3.58040e-08,9.99999e-01,9.99999e-01,3.58040e-08,9.99999e-01
5.031515699e-01,5.02354e-08,9.99999e-01,9.99999e-01,5.02354e-08,9.99999e-01
5.056673278e-01,7.00136e-08,9.99999e-01,9.99999e-01,7.00136e-08,9.99999e-01
5.081956644e-01,9.69411e-08,9.99999e-01,9.99999e-01,9.69411e-08,9.99999e-01
5.107366428e-01,1.33365e-07,9.99999e-01,9.99999e-01,1.33365e-07,9.99999e-01
5.132903260e-01,1.82322e-07,9.99999e-01,9.99999e-01,1.82322e-07,9.99999e-01
5.158567776e-01,2.47716e-07,9.99999e-01,9.99999e-01,2.47716e-07,9.99999e-01
5.184360615e-01,3.34534e-07,9.99999e-01,9.99999e-01,3.34534e-07,9.99999e-01
5.210282418e-01,4.49106e-07,9.99999e-01,9.99999e-01,4.49106e-07,9.99999e-01
5.236333830e-01,5.99419e-07,9.99999e-01,9.99999e-01,5.99419e-07,9.99999e-01
5.262515499e-01,7.95492e-07,9.99999e-01,9.99999e-01,7.95492e-07,9.99999e-01
5.288828077e-01,1.04982e-06,9.99999e-01,9.99999e-01,1.04982e-06,9.99999e-01
5.315272217e-01,1.37788e-06,9.99999e-01,9.99999e-01,1.37788e-06,9.99999e-01
5.341848578e-01,1.79877e-06,9.99999e-01,9.99999e-01,1.79877e-06,9.99999e-01
5.368557821e-01,2.33590e-06,9.99999e-01,9.99999e-01,2.33590e-06,9.99999e-01
5.395400610e-01,3.01781e-06,9.99999e-01,9.99999e-01,3.01781e-06,9.99999e-01
5.422377613e-01,3.87910e-06,9.99999e-01,9.99999e-01,3.87910e-06,9.99999e-01
5.449489501e-01,4.96155e-06,9.99999e-01,9.99999e-01,4.96155e-06,9.99999e-01
5.476736949e-01,6.31527e-06,9.99999e-01,9.99999e-01,6.31527e-06,9.99999e-01
5.504120634e-01,8.00013e-06,9.99999e-01,9.99999e-01,8.00013e-06,9.99999e-01
5.531641237e-01,1.00873e-05,9.99999e-01,9.99999e-01,1.00873e-05,9.99999e-01
5.559299443e-01,1.26608e-05,9.99999e-01,9.99999e-01,1.26608e-05,9.99999e-01
5.587095940e-01,1.58198e-05,9.99999e-01,9.99999e-01,1.58198e-05,9.99999e-01
5.615031420e-01,1.96801e-05,9.99999e-01,9.99999e-01,1.96801e-05,9.99999e-01
5.643106577e-01,2.43771e-05,9.99999e-01,9.99999e-01,2.43771e-05,9.99999e-01
5.671322110e-01,3.00677e-05,9.99999e-01,9.99999e-01,3.00677e-05,9.99999e-01
5.699678720e-01,3.69334e-05,9.99999e-01,9.99999e-01,3.69334e-05,9.99999e-01
5.728177114e-01,4.51829e-05,9.99999e-01,9.99999e-01,4.51829e-05,9.99999e-01
5.756818000e-01,5.50553e-05,9.99999e-01,9.99999e-01,5.50553e-05,9.99999e-01
5.785602090e-01,6.68234e-05,9.99999e-01,9.99999e-01,6.68234e-05,9.99999e-01
5.814530100e-01,8.07973e-05,9.99999e-01,9.99999e-01,8.07973e-05,9.99999e-01
5.843602750e-01,9.73275e-05,9.99999e-01,9.99999e-01,9.73275e-05,9.99999e-01
5.872820764e-01,1.16809e-04,9.99999e-01,9.99999e-01,1.16809e-04,9.99999e-01
5.902184868e-01,1.39687e-04,9.99999e-01,9.99999e-01,1.39687e-04,9.99999e-01
5.931695792e-01,1.66455e-04,9.99999e-01,9.99999e-01,1.66455e-04,9.99999e-01
5.961354271e-01,1.97668e-04,9.99999e-01,9.99999e-01,1.97668e-04,9.99999e-01
5.991161043e-01,2.33938e-04,9.99999e-01,9.99999e-01,2.33938e-04,9.99999e-01
6.021116848e-01,2.75943e-04,9.99999e-01,9.99999e-01,2.75943e-04,9.99999e-01
6.051222432e-01,3.24431e-04,9.99999e-01,9.99999e-01,3.24431e-04,9.99999e-01
6.081478544e-01,3.80222e-04,9.99999e-01,9.99999e-01,3.80222e-04,9.99999e-01
6.111885937e-01,4.44211e-04,9.99999e-01,9.99999e-01,4.44211e-04,9.99999e-01
6.142445367e-01,5.17378e-04,9.99999e-01,9.99999e-01,5.17378e-04,9.99999e-01
6.173157594e-01,6.00784e-04,9.99999e-01,9.99999e-01,6.00784e-04,9.99999e-01
6.204023382e-01,6.95579e-04,9.99999e-01,9.99999e-01,6.95579e-04,9.99999e-01
6.235043498e-01,8.03005e-04,9.99999e-01,9.99999e-01,8.03005e-04,9.99999e-01
6.266218716e-01,9.24395e-04,9.99999e-01,9.99999e-01,9.24395e-04,9.99999e-01
6.297549810e-01,1.06118e-03,9.99999e-01,9.99999e-01,1.06118e-03,9.99999e-01
6.329037559e-01,1.21489e-03,9.99999e-01,9.99999e-01,1.21489e-03,9.99999e-01
6.360682746e-01,1.38716e-03,9.99999e-01,9.99999e-01,1.38716e-03,9.99999e-01
6.392486160e-01,1.57970e-03,9.99999e-01,9.99999e-01,1.57970e-03,9.99999e-01
6.424448591e-01,1.79436e-03,9.99999e-01,9.99999e-01,1.79436e-03,9.99999e-01
6.456570834e-01,2.03307e-03,9.99999e-01,9.99999e-01,2.03307e-03,9.99999e-01
6.488853688e-01,2.29786e-03,9.99999e-01,9.99999e-01,2.29786e-03,9.99999e-01
6.521297956e-01,2.59086e-03,9.99999e-01,9.99999e-01,2.59086e-03,9.99999e-01
6.553904446e-01,2.91430e-03,9.99999e-01,9.99999e-01,2.91430e-03,9.99999e-01
6.586673968e-01,3.27051e-03,9.99999e-01,9.99999e-01,3.27051e-03,9.99999e-01
6.619607338e-01,3.66192e-03,9.99999e-01,9.99999e-01,3.66192e-03,9.99999e-01
6.652705375e-01,4.09102e-03,9.99999e-01,9.99999e-01,4.09102e-03,9.99999e-01
6.685968902e-01,4.56041e-03,9.99999e-01,9.99999e-01,4.56041e-03,9.99999e-01
6.719398746e-01,5.07276e-03,9.99999e-01,9.99999e-01,5.07276e-03,9.99999e-01
6.752995740e-01,5.63081e-03,9.99999e-01,9.99999e-01,5.63081e-03,9.99999e-01
6.786760719e-01,6.23739e-03,9.99999e-01,9.99999e-01,6.23739e-03,9.99999e-01
6.820694522e-01,6.89536e-03,9.99999e-01,9.99999e-01,6.89536e-03,9.99999e-01
6.854797995e-01,7.60766e-03,9.99999e-01,9.99999e-01,7.60766e-03,9.99999e-01
6.889071985e-01,8.37725e-03,9.99999e-01,9.99999e-01,8.37725e-03,9.99999e-01
6.923517345e-01,9.20715e-03,9.99999e-01,9.99999e-01,9.20715e-03,9.99999e-01
6.958134932e-01,1.01004e-02,9.99999e-01,9.99999e-01,1.01004e-02,9.99999e-01
6.992925606e-01,1.10601e-02,9.99999e-01,9.99999e-01,1.10601e-02,9.99999e-01
7.027890234e-01,1.20892e-02,9.99999e-01,9.99999e-01,1.20892e-02,9.99999e-01
7.063029686e-01,1.31909e-02,9.99999e-01,9.99999e-01,1.31909e-02,9.99999e-01
7.098344834e-01,1.43683e-02,9.99999e-01,9.99999e-01,1.43683e-02,9.99999e-01
7.133836558e-01,1.56243e-02,9.99999e-01,9.99999e-01,1.56243e-02,9.99999e-01
7.169505741e-01,1.69620e-02,9.99999e-01,9.99999e-01,1.69620e-02,9.99999e-01
7.205353270e-01,1.83844e-02,9.99999e-01,9.99999e-01,1.83844e-02,9.99999e-01
7.241380036e-01,1.98944e-02,9.99999e-01,9.99999e-01,1.98944e-02,9.99999e-01
7.277586936e-01,2.14949e-02,9.99999e-01,9.99999e-01,2.14949e-02,9.99999e-01
7.313974871e-01,2.31887e-02,9.99999e-01,9.99999e-01,2.31887e-02,9.99999e-01
7.350544745e-01,2.49785e-02,9.99999e-01,9.99999e-01,2.49785e-02,9.99999e-01
7.387297469e-01,2.68669e-02,9.99999e-01,9.99999e-01,2.68669e-02,9.99999e-01
7.424233956e-01,2.88566e-02,9.99999e-01,9.99999e-01,2.88566e-02,9.99999e-01
7.461355126e-01,3.09499e-02,9.99999e-01,9.99999e-01,3.09499e-02,9.99999e-01
7.498661902e-01,3.31491e-02,9.99999e-01,9.99999e-01,3.31491e-02,9.99999e-01
7.536155211e-01,3.54566e-02,9.99999e-01,9.99999e-01,3.54566e-02,9.99999e-01
7.573835987e-01,3.78742e-02,9.99999e-01,9.99999e-01,3.78742e-02,9.99999e-01
7.611705167e-01,4.04040e-02,9.99999e-01,9.99999e-01,4.04040e-02,9.99999e-01
7.649763693e-01,4.30478e-02,9.99999e-01,9.99999e-01,4.30478e-02,9.99999e-01
7.688012511e-01,4.58072e-02,9.99999e-01,9.99999e-01,4.58072e-02,9.99999e-01
7.726452574e-01,4.86838e-02,9.99999e-01,9.99999e-01,4.86838e-02,9.99999e-01
7.765084837e-01,5.16787e-02,9.99999e-01,9.99999e-01,5.16787e-02,9.99999e-01
7.803910261e-01,4.93011e-02,9.99999e-01,8.99765e-01,5.47932e-02,9.99999e-01
7.842929812e-01,3.30852e-02,9.99999e-01,5.70156e-01,5.80283e-02,9.99999e-01
7.882144461e-01,3.41402e-02,9.99999e-01,5.56166e-01,6.13848e-02,9.99999e-01
7.921555184e-01,4.49336e-02,9.99999e-01,6.92740e-01,6.48634e-02,9.99999e-01
7.961162960e-01,5.32564e-02,9.99999e-01,7.77868e-01,6.84646e-02,9.99999e-01
8.000968774e-01,6.29892e-02,9.99999e-01,8.72564e-01,7.21886e-02,9.99999e-01
8.040973618e-01,7.08183e-02,9.99999e-01,9.31384e-01,7.60355e-02,9.99999e-01
8.081178486e-01,7.74434e-02,9.99999e-01,9.67977e-01,8.00054e-02,9.99999e-01
8.121584379e-01,8.32503e-02,9.99999e-01,9.89920e-01,8.40979e-02,9.99999e-01
8.162192301e-01,8.81153e-02,9.99999e-01,9.97764e-01,8.83127e-02,9.99999e-01
8.203003262e-01,9.26459e-02,9.99999e-01,9.99962e-01,9.26493e-02,9.99999e-01
8.244018279e-01,9.71067e-02,9.99999e-01,9.99999e-01,9.71067e-02,9.99999e-01
8.285238370e-01,1.01684e-01,9.99999e-01,9.99999e-01,1.01684e-01,9.99999e-01
8.326664562e-01,1.06381e-01,9.99999e-01,9.99999e-01,1.06381e-01,9.99999e-01
8.368297885e-01,1.11195e-01,9.99999e-01,9.99999e-01,1.11195e-01,9.99999e-01
8.410139374e-01,1.16125e-01,9.99999e-01,9.99999e-01,1.16125e-01,9.99999e-01
8.452190071e-01,1.21171e-01,9.99999e-01,9.99999e-01,1.21171e-01,9.99999e-01
8.494451021e-01,1.26329e-01,9.99999e-01,9.99999e-01,1.26329e-01,9.99999e-01
8.536923276e-01,1.31598e-01,9.99999e-01,9.99999e-01,1.31598e-01,9.99999e-01
8.579607893e-01,1.36977e-01,9.99999e-01,9.99999e-01,1.36977e-01,9.99999e-01
8.622505932e-01,1.42462e-01,9.99999e-01,9.99999e-01,1.42462e-01,9.99999e-01
8.665618462e-01,1.27241e-01,9.99999e-01,8.59430e-01,1.48053e-01,9.99999e-01
8.708946554e-01,3.94444e-02,9.99999e-01,2.56556e-01,1.53746e-01,9.99999e-01
8.752491287e-01,5.03853e-02,9.99999e-01,3.15819e-01,1.59539e-01,9.99999e-01
8.796253743e-01,8.60719e-02,9.99999e-01,5.20296e-01,1.65429e-01,9.99999e-01
8.840235012e-01,1.21128e-01,9.99999e-01,7.06639e-01,1.71414e-01,9.99999e-01
8.884436187e-01,1.54501e-01,9.99999e-01,8.70474e-01,1.77490e-01,9.99999e-01
8.928858368e-01,1.73609e-01,9.99999e-01,9.45292e-01,1.83656e-01,9.99999e-01
8.973502660e-01,1.87314e-01,9.99999e-01,9.86339e-01,1.89908e-01,9.99999e-01
9.018370173e-01,1.95945e-01,9.99999e-01,9.98482e-01,1.96243e-01,9.99999e-01
9.063462024e-01,1.95333e-01,9.99999e-01,9.63856e-01,2.02658e-01,9.99999e-01
9.108779334e-01,1.91455e-01,9.99999e-01,9.15400e-01,2.09149e-01,9.99999e-01
9.154323231e-01,2.11242e-01,9.99999e-01,9.79266e-01,2.15714e-01,9.99999e-01
9.200094847e-01,1.73721e-01,9.99999e-01,7.81298e-01,2.22349e-01,9.99999e-01
9.246095321e-01,1.49234e-01,9.99999e-01,6.51531e-01,2.29052e-01,9.99999e-01
9.292325798e-01,1.70391e-01,9.99999e-01,7.22552e-01,2.35818e-01,9.99999e-01
9.338787427e-01,1.75902e-01,9.99999e-01,7.24938e-01,2.42644e-01,9.99999e-01
9.385481364e-01,1.96474e-01,9.99999e-01,7.87382e-01,2.49527e-01,9.99999e-01
9.432408771e-01,2.21189e-01,9.99999e-01,8.62453e-01,2.56464e-01,9.99999e-01
9.479570815e-01,2.44216e-01,9.99999e-01,9.26986e-01,2.63451e-01,9.99999e-01
9.526968669e-01,2.60772e-01,9.99999e-01,9.64090e-01,2.70484e-01,9.99999e-01
9.574603512e-01,2.73246e-01,9.99999e-01,9.84453e-01,2.77561e-01,9.99999e-01
9.622476530e-01,2.83289e-01,9.99999e-01,9.95118e-01,2.84678e-01,9.99999e-01
9.670588912e-01,2.91403e-01,9.99999e-01,9.98532e-01,2.91831e-01,9.99999e-01
9.718941857e-01,2.98986e-01,9.99999e-01,9.99894e-01,2.99018e-01,9.99999e-01
9.767536566e-01,3.06234e-01,9.99999e-01,9.99999e-01,3.06234e-01,9.99999e-01
9.816374249e-01,3.13476e-01,9.99999e-01,9.99999e-01,3.13476e-01,9.99999e-01
9.865456120e-01,3.20742e-01,9.99999e-01,9.99999e-01,3.20742e-01,9.99999e-01
9.914783401e-01,3.28028e-01,9.99999e-01,9.99999e-01,3.28028e-01,9.99999e-01
9.964357318e-01,3.35330e-01,9.99999e-01,9.99999e-01,3.35330e-01,9.99999e-01
1.001417910e+00,3.42646e-01,9.99999e-01,9.99999e-01,3.42646e-01,9.99999e-01
1.006425000e+00,3.49972e-01,9.99999e-01,9.99999e-01,3.49972e-01,9.99999e-01
1.011457125e+00,3.57306e-01,9.99999e-01,9.99999e-01,3.57306e-01,9.99999e-01
1.016514411e+00,3.64644e-01,9.99999e-01,9.99999e-01,3.64644e-01,9.99999e-01
1.021596983e+00,3.71915e-01,9.99999e-01,9.99817e-01,3.71983e-01,9.99999e-01
1.026704968e+00,3.73832e-01,9.99999e-01,9.85529e-01,3.79320e-01,9.99999e-01
1.031838492e+00,3.45496e-01,9.99999e-01,8.93555e-01,3.86653e-01,9.99999e-01
1.036997685e+00,1.53693e-02,9.99999e-01,3.90104e-02,3.93979e-01,9.99999e-01
1.042182673e+00,4.51222e-04,9.99999e-01,1.12442e-03,4.01295e-01,9.99999e-01
1.047393587e+00,1.33938e-03,9.99999e-01,3.27799e-03,4.08598e-01,9.99999e-01
1.052630555e+00,2.22919e-08,9.99999e-01,5.36009e-08,4.15886e-01,9.99999e-01
1.057893707e+00,8.22738e-08,9.99999e-01,1.94429e-07,4.23156e-01,9.99999e-01
1.063183176e+00,5.27350e-06,9.99999e-01,1.22524e-05,4.30405e-01,9.99999e-01
1.068499092e+00,7.71495e-05,9.99999e-01,1.76288e-04,4.37632e-01,9.99999e-01
1.073841587e+00,1.60207e-03,9.99999e-01,3.60149e-03,4.44834e-01,9.99999e-01
1.079210795e+00,1.34614e-02,9.99999e-01,2.97812e-02,4.52009e-01,9.99999e-01
1.084606849e+00,6.09794e-02,9.99999e-01,1.32808e-01,4.59155e-01,9.99999e-01
1.090029883e+00,1.61509e-01,9.99999e-01,3.46386e-01,4.66269e-01,9.99999e-01
1.095480033e+00,2.79726e-01,9.99999e-01,5.90950e-01,4.73349e-01,9.99999e-01
1.100957433e+00,3.72128e-01,9.99999e-01,7.74630e-01,4.80394e-01,9.99999e-01
1.106462220e+00,4.38393e-01,9.99999e-01,8.99450e-01,4.87401e-01,9.99999e-01
1.111994531e+00,4.75293e-01,9.99999e-01,9.61412e-01,4.94369e-01,9.99999e-01
1.117554504e+00,4.96484e-01,9.99999e-01,9.90398e-01,5.01297e-01,9.99999e-01
1.123142276e+00,5.07858e-01,9.99999e-01,9.99362e-01,5.08181e-01,9.99999e-01
1.128757988e+00,5.15022e-01,9.99999e-01,9.99999e-01,5.15022e-01,9.99999e-01
1.134401778e+00,5.21816e-01,9.99999e-01,9.99999e-01,5.21816e-01,9.99999e-01
1.140073787e+00,5.28564e-01,9.99999e-01,9.99999e-01,5.28564e-01,9.99999e-01
1.145774156e+00,5.35263e-01,9.99999e-01,9.99999e-01,5.35263e-01,9.99999e-01
1.151503026e+00,5.41912e-01,9.99999e-01,9.99999e-01,5.41912e-01,9.99999e-01
1.157260541e+00,5.48509e-01,9.99999e-01,9.99999e-01,5.48509e-01,9.99999e-01
1.163046844e+00,5.55055e-01,9.99999e-01,9.99999e-01,5.55055e-01,9.99999e-01
1.168862078e+00,5.61547e-01,9.99999e-01,9.99999e-01,5.61547e-01,9.99999e-01
1.174706389e+00,5.67984e-01,9.99999e-01,9.99999e-01,5.67984e-01,9.99999e-01
1.180579921e+00,5.74366e-01,9.99999e-01,9.99999e-01,5.74366e-01,9.99999e-01
1.186482820e+00,5.80680e-01,9.99999e-01,9.99980e-01,5.80691e-01,9.99999e-01
1.192415234e+00,5.58663e-01,9.99999e-01,9.51792e-01,5.86959e-01,9.99999e-01
1.198377311e+00,2.98584e-01,9.99999e-01,5.03371e-01,5.93169e-01,9.99999e-01
1.204369197e+00,4.29903e-38,9.99999e-01,7.17317e-38,5.99320e-01,9.99999e-01
1.210391043e+00,2.98438e-156,9.99999e-01,4.92950e-156,6.05411e-01,9.99999e-01
1.216442998e+00,4.03218e-135,9.99999e-01,6.59454e-135,6.11442e-01,9.99999e-01
1.222525213e+00,4.38683e-133,9.99999e-01,7.10518e-133,6.17412e-01,9.99999e-01
1.228637839e+00,1.57257e-102,9.99999e-01,2.52288e-102,6.23321e-01,9.99999e-01
1.234781029e+00,1.58202e-63,9.99999e-01,2.51446e-63,6.29169e-01,9.99999e-01
1.240954934e+00,5.60451e-42,9.99999e-01,8.82664e-42,6.34953e-01,9.99999e-01
1.247159708e+00,7.40512e-20,9.99999e-01,1.15583e-19,6.40676e-01,9.99999e-01
1.253395507e+00,1.51502e-13,9.99999e-01,2.34401e-13,6.46335e-01,9.99999e-01
1.259662485e+00,2.18535e-08,9.99999e-01,3.35211e-08,6.51931e-01,9.99999e-01
1.265960797e+00,9.72262e-05,9.99999e-01,1.47881e-04,6.57463e-01,9.99999e-01
1.272290601e+00,7.21583e-03,9.99999e-01,1.08847e-02,6.62932e-01,9.99999e-01
1.278652054e+00,9.61377e-03,9.99999e-01,1.43846e-02,6.68337e-01,9.99999e-01
1.285045314e+00,3.50326e-06,9.99999e-01,5.20020e-06,6.73678e-01,9.99999e-01
1.291470541e+00,4.71104e-18,9.99999e-01,6.93866e-18,6.78954e-01,9.99999e-01
1.297927893e+00,1.60593e-07,9.99999e-01,2.34728e-07,6.84167e-01,9.99999e-01
1.304417533e+00,2.74586e-04,9.99999e-01,3.98345e-04,6.89316e-01,9.99999e-01
1.310939621e+00,8.00127e-05,9.99999e-01,1.15226e-04,6.94400e-01,9.99999e-01
1.317494319e+00,1.01217e-52,9.99999e-01,1.44716e-52,6.99420e-01,9.99999e-01
1.324081790e+00,2.28445e-34,9.99999e-01,3.24322e-34,7.04377e-01,9.99999e-01
1.330702199e+00,1.87502e-20,9.99999e-01,2.64359e-20,7.09270e-01,9.99999e-01
1.337355710e+00,1.45814e-18,9.99999e-01,2.04193e-18,7.14099e-01,9.99999e-01
1.344042489e+00,8.87779e-19,9.99999e-01,1.23497e-18,7.18864e-01,9.99999e-01
1.350762701e+00,8.60732e-21,9.99999e-01,1.18957e-20,7.23566e-01,9.99999e-01
1.357516515e+00,1.96237e-12,9.99999e-01,2.69480e-12,7.28206e-01,9.99999e-01
1.364304097e+00,3.12664e-09,9.99999e-01,4.26680e-09,7.32782e-01,9.99999e-01
1.371125618e+00,4.11355e-05,9.99999e-01,5.57924e-05,7.37296e-01,9.99999e-01
1.377981246e+00,1.46451e-04,9.99999e-01,1.97440e-04,7.41748e-01,9.99999e-01
1.384871152e+00,5.06348e-03,9.99999e-01,6.78625e-03,7.46138e-01,9.99999e-01
1.391795508e+00,7.62930e-03,9.99999e-01,1.01661e-02,7.50466e-01,9.99999e-01
1.398754485e+00,4.05752e-02,9.99999e-01,5.37609e-02,7.54734e-01,9.99999e-01
1.405748258e+00,9.09929e-02,9.99999e-01,1.19895e-01,7.58940e-01,9.99999e-01
1.412776999e+00,1.96587e-01,9.99999e-01,2.57620e-01,7.63086e-01,9.99999e-01
1.419840884e+00,1.96230e-01,9.99998e-01,2.55783e-01,7.67173e-01,9.99999e-01
1.426940089e+00,5.94820e-03,9.99998e-01,7.71292e-03,7.71200e-01,9.99999e-01
1.434074789e+00,0.00000e+00,9.99998e-01,0.00000e+00,7.75167e-01,9.99999e-01
1.441245163e+00,0.00000e+00,9.99999e-01,0.00000e+00,7.79077e-01,9.99999e-01
1.448451389e+00,0.00000e+00,9.99998e-01,0.00000e+00,7.82928e-01,9.99999e-01
1.455693646e+00,0.00000e+00,9.99999e-01,0.00000e+00,7.86722e-01,9.99999e-01
1.462972114e+00,0.00000e+00,9.99999e-01,0.00000e+00,7.90458e-01,9.99999e-01
1.470286975e+00,2.08881e-259,9.99999e-01,2.63029e-259,7.94138e-01,9.99999e-01
