#,Wave/freq,Total,N2,CO2,Rayleigh,CIA
4.000000000e-01,1.71766e-08,9.99999e-01,9.99999e-01,1.71766e-08,9.99999e-01
4.020000000e-01,2.44609e-08,9.99999e-01,9.99999e-01,2.44609e-08,9.99999e-01
4.040100000e-01,3.45795e-08,9.99999e-01,9.99999e-01,3.45795e-08,9.99999e-01
4.060300500e-01,4.85508e-08,9.99999e-01,9.99999e-01,4.85508e-08,9.99999e-01
4.080602003e-01,6.77114e-08,9.99999e-01,9.99999e-01,6.77114e-08,9.99999e-01
4.101005013e-01,9.38154e-08,9.99999e-01,9.99999e-01,9.38154e-08,9.99999e-01
4.121510038e-01,1.29148e-07,9.99999e-01,9.99999e-01,1.29148e-07,9.99999e-01
4.142117588e-01,1.76670e-07,9.99999e-01,9.99999e-01,1.76670e-07,9.99999e-01
4.162828176e-01,2.40186e-07,9.99999e-01,9.99999e-01,2.40186e-07,9.99999e-01
4.183642317e-01,3.24562e-07,9.99999e-01,9.99999e-01,3.24562e-07,9.99999e-01
4.204560528e-01,4.35979e-07,9.99999e-01,9.99999e-01,4.35979e-07,9.99999e-01
4.225583331e-01,5.82240e-07,9.99999e-01,9.99999e-01,5.82240e-07,9.99999e-01
4.246711247e-01,7.73138e-07,9.99999e-01,9.99999e-01,7.73138e-07,9.99999e-01
4.267944804e-01,1.02089e-06,9.99999e-01,9.99999e-01,1.02089e-06,9.99999e-01
4.289284528e-01,1.34065e-06,9.99999e-01,9.99999e-01,1.34065e-06,9.99999e-01
4.310730950e-01,1.75112e-06,9.99999e-01,9.99999e-01,1.75112e-06,9.99999e-01
4.332284605e-01,2.27523e-06,9.99999e-01,9.99999e-01,2.27523e-06,9.99999e-01
4.353946028e-01,2.94095e-06,9.99999e-01,9.99999e-01,2.94095e-06,9.99999e-01
4.375715758e-01,3.78224e-06,9.99999e-01,9.99999e-01,3.78224e-06,9.99999e-01
4.397594337e-01,4.84007e-06,9.99999e-01,9.99999e-01,4.84007e-06,9.99999e-01
4.419582309e-01,6.16367e-06,9.99999e-01,9.99999e-01,6.16367e-06,9.99999e-01
4.441680220e-01,7.81183e-06,9.99999e-01,9.99999e-01,7.81183e-06,9.99999e-01
4.463888621e-01,9.85448e-06,9.99999e-01,9.99999e-01,9.85448e-06,9.99999e-01
4.486208064e-01,1.23743e-05,9.99999e-01,9.99999e-01,1.23743e-05,9.99999e-01
4.508639105e-01,1.54688e-05,9.99999e-01,9.99999e-01,1.54688e-05,9.99999e-01
4.531182300e-01,1.92520e-05,9.99999e-01,9.99999e-01,1.92520e-05,9.99999e-01
4.553838212e-01,2.38572e-05,9.99999e-01,9.99999e-01,2.38572e-05,9.99999e-01
4.576607403e-01,2.94390e-05,9.99999e-01,9.99999e-01,2.94390e-05,9.99999e-01
4.599490440e-01,3.61762e-05,9.99999e-01,9.99999e-01,3.61762e-05,9.99999e-01
4.622487892e-01,4.42747e-05,9.99999e-01,9.99999e-01,4.42747e-05,9.99999e-01
4.645600332e-01,5.39703e-05,9.99999e-01,9.99999e-01,5.39703e-05,9.99999e-01
4.668828333e-01,6.55323e-05,9.99999e-01,9.99999e-01,6.55323e-05,9.99999e-01
4.692172475e-01,7.92667e-05,9.99999e-01,9.99999e-01,7.92667e-05,9.99999e-01
4.715633337e-01,9.55199e-05,9.99999e-01,9.99999e-01,9.55199e-05,9.99999e-01
4.739211504e-01,1.14682e-04,9.99999e-01,9.99999e-01,1.14682e-04,9.99999e-01
4.762907561e-01,1.37193e-04,9.99999e-01,9.99999e-01,1.37193e-04,9.99999e-01
4.786722099e-01,1.63542e-04,9.99999e-01,9.99999e-01,1.63542e-04,9.99999e-01
4.810655710e-01,1.94276e-04,9.99999e-01,9.99999e-01,1.94276e-04,9.99999e-01
4.834708988e-01,2.30002e-04,9.99999e-01,9.99999e-01,2.30002e-04,9.99999e-01
4.858882533e-01,2.71392e-04,9.99999e-01,9.99999e-01,2.71392e-04,9.99999e-01
4.883176946e-01,3.19185e-04,9.99999e-01,9.99999e-01,3.19185e-04,9.99999e-01
4.907592831e-01,3.74193e-04,9.99999e-01,9.99999e-01,3.74193e-04,9.99999e-01
4.932130795e-01,4.37306e-04,9.99999e-01,9.99999e-01,4.37306e-04,9.99999e-01
4.956791449e-01,5.09493e-04,9.99999e-01,9.99999e-01,5.09493e-04,9.99999e-01
4.981575406e-01,5.91808e-04,9.99999e-01,9.99999e-01,5.91808e-04,9.99999e-01
5.006483283e-01,6.85390e-04,9.99999e-01,9.99999e-01,6.85390e-04,9.99999e-01
5.031515699e-01,7.91473e-04,9.99999e-01,9.99999e-01,7.91473e-04,9.99999e-01
5.056673278e-01,9.11380e-04,9.99999e-01,9.99999e-01,9.11380e-04,9.99999e-01
5.081956644e-01,1.04653e-03,9.99999e-01,9.99999e-01,1.04653e-03,9.99999e-01
5.107366428e-01,1.19845e-03,9.99999e-01,9.99999e-01,1.19845e-03,9.99999e-01
5.132903260e-01,1.36875e-03,9.99999e-01,9.99999e-01,1.36875e-03,9.99999e-01
5.158567776e-01,1.55916e-03,9.99999e-01,9.99999e-01,1.55916e-03,9.99999e-01
5.184360615e-01,1.77148e-03,9.99999e-01,9.99999e-01,1.77148e-03,9.99999e-01
5.210282418e-01,2.00766e-03,9.99999e-01,9.99999e-01,2.00766e-03,9.99999e-01
5.236333830e-01,2.26970e-03,9.99999e-01,9.99999e-01,2.26970e-03,9.99999e-01
5.262515499e-01,2.55973e-03,9.99999e-01,9.99999e-01,2.55973e-03,9.99999e-01
5.288828077e-01,2.87997e-03,9.99999e-01,9.99999e-01,2.87997e-03,9.99999e-01
5.315272217e-01,3.23275e-03,9.99999e-01,9.99999e-01,3.23275e-03,9.99999e-01
5.341848578e-01,3.62046e-03,9.99999e-01,9.99999e-01,3.62046e-03,9.99999e-01
5.368557821e-01,4.04561e-03,9.99999e-01,9.99999e-01,4.04561e-03,9.99999e-01
5.395400610e-01,4.51079e-03,9.99999e-01,9.99999e-01,4.51079e-03,9.99999e-01
5.422377613e-01,5.01865e-03,9.99999e-01,9.99999e-01,5.01865e-03,9.99999e-01
5.449489501e-01,5.57193e-03,9.99999e-01,9.99999e-01,5.57193e-03,9.99999e-01
5.476736949e-01,6.17345e-03,9.99999e-01,9.99999e-01,6.17345e-03,9.99999e-01
5.504120634e-01,6.82606e-03,9.99999e-01,9.99999e-01,6.82606e-03,9.99999e-01
5.531641237e-01,7.53270e-03,9.99999e-01,9.99999e-01,7.53270e-03,9.99999e-01
5.559299443e-01,8.29633e-03,9.99999e-01,9.99999e-01,8.29633e-03,9.99999e-01
5.587095940e-01,9.11997e-03,9.99999e-01,9.99999e-01,9.11997e-03,9.99999e-01
5.615031420e-01,1.00066e-02,9.99999e-01,9.99999e-01,1.00066e-02,9.99999e-01
5.643106577e-01,1.09594e-02,9.99999e-01,9.99999e-01,1.09594e-02,9.99999e-01
5.671322110e-01,1.19814e-02,9.99999e-01,9.99999e-01,1.19814e-02,9.99999e-01
5.699678720e-01,1.30756e-02,9.99999e-01,9.99999e-01,1.30756e-02,9.99999e-01
5.728177114e-01,1.42451e-02,9.99999e-01,9.99999e-01,1.42451e-02,9.99999e-01
5.756818000e-01,1.54930e-02,9.99999e-01,9.99999e-01,1.54930e-02,9.99999e-01
5.785602090e-01,1.68223e-02,9.99999e-01,9.99999e-01,1.68223e-02,9.99999e-01
5.814530100e-01,1.82359e-02,9.99999e-01,9.99999e-01,1.82359e-02,9.99999e-01
5.843602750e-01,1.97369e-02,9.99999e-01,9.99999e-01,1.97369e-02,9.99999e-01
5.872820764e-01,2.13281e-02,9.99999e-01,9.99999e-01,2.13281e-02,9.99999e-01
5.902184868e-01,2.30122e-02,9.99999e-01,9.99999e-01,2.30122e-02,9.99999e-01
5.931695792e-01,2.47921e-02,9.99999e-01,9.99999e-01,2.47921e-02,9.99999e-01
5.961354271e-01,2.66704e-02,9.99999e-01,9.99999e-01,2.66704e-02,9.99999e-01
5.991161043e-01,2.86497e-02,9.99999e-01,9.99999e-01,2.86497e-02,9.99999e-01
6.021116848e-01,3.07323e-02,9.99999e-01,9.99999e-01,3.07323e-02,9.99999e-01
6.051222432e-01,3.29207e-02,9.99999e-01,9.99999e-01,3.29207e-02,9.99999e-01
6.081478544e-01,3.52171e-02,9.99999e-01,9.99999e-01,3.52171e-02,9.99999e-01
6.111885937e-01,3.76234e-02,9.99999e-01,9.99999e-01,3.76234e-02,9.99999e-01
6.142445367e-01,4.01418e-02,9.99999e-01,9.99999e-01,4.01418e-02,9.99999e-01
6.173157594e-01,4.27739e-02,9.99999e-01,9.99999e-01,4.27739e-02,9.99999e-01
6.204023382e-01,4.55215e-02,9.99999e-01,9.99999e-01,4.55215e-02,9.99999e-01
6.235043498e-01,4.83860e-02,9.99999e-01,9.99999e-01,4.83860e-02,9.99999e-01
6.266218716e-01,5.13689e-02,9.99999e-01,9.99999e-01,5.13689e-02,9.99999e-01
6.297549810e-01,5.44712e-02,9.99999e-01,9.99999e-01,5.44712e-02,9.99999e-01
6.329037559e-01,5.76940e-02,9.99999e-01,9.99999e-01,5.76940e-02,9.99999e-01
6.360682746e-01,6.10382e-02,9.99999e-01,9.99999e-01,6.10382e-02,9.99999e-01
6.392486160e-01,6.45043e-02,9.99999e-01,9.99999e-01,6.45043e-02,9.99999e-01
6.424448591e-01,6.80930e-02,9.99999e-01,9.99999e-01,6.80930e-02,9.99999e-01
6.456570834e-01,7.18045e-02,9.99999e-01,9.99999e-01,7.18045e-02,9.99999e-01
6.488853688e-01,7.56389e-02,9.99999e-01,9.99999e-01,7.56389e-02,9.99999e-01
6.521297956e-01,7.95963e-02,9.99999e-01,9.99999e-01,7.95963e-02,9.99999e-01
6.553904446e-01,8.36764e-02,9.99999e-01,9.99999e-01,8.36764e-02,9.99999e-01
6.586673968e-01,8.78788e-02,9.99999e-01,9.99999e-01,8.78788e-02,9.99999e-01
6.619607338e-01,9.22030e-02,9.99999e-01,9.99999e-01,9.22030e-02,9.99999e-01
6.652705375e-01,9.66483e-02,9.99999e-01,9.99999e-01,9.66483e-02,9.99999e-01
6.685968902e-01,1.01214e-01,9.99999e-01,9.99999e-01,1.01214e-01,9.99999e-01
6.719398746e-01,1.05898e-01,9.99999e-01,9.99999e-01,1.05898e-01,9.99999e-01
6.752995740e-01,1.10700e-01,9.99999e-01,9.99999e-01,1.10700e-01,9.99999e-01
6.786760719e-01,1.15619e-01,9.99999e-01,9.99999e-01,1.15619e-01,9.99999e-01
6.820694522e-01,1.20653e-01,9.99999e-01,9.99999e-01,1.20653e-01,9.99999e-01
6.854797995e-01,1.25799e-01,9.99999e-01,9.99999e-01,1.25799e-01,9.99999e-01
6.889071985e-01,1.31058e-01,9.99999e-01,9.99999e-01,1.31058e-01,9.99999e-01
6.923517345e-01,1.36425e-01,9.99999e-01,9.99999e-01,1.36425e-01,9.99999e-01
6.958134932e-01,1.41900e-01,9.99999e-01,9.99999e-01,1.41900e-01,9.99999e-01
6.992925606e-01,1.47480e-01,9.99999e-01,9.99999e-01,1.47480e-01,9.99999e-01
7.027890234e-01,1.53163e-01,9.99999e-01,9.99999e-01,1.53163e-01,9.99999e-01
7.063029686e-01,1.58945e-01,9.99999e-01,9.99999e-01,1.58945e-01,9.99999e-01
7.098344834e-01,1.64826e-01,9.99999e-01,9.99999e-01,1.64826e-01,9.99999e-01
7.133836558e-01,1.70801e-01,9.99999e-01,9.99999e-01,1.70801e-01,9.99999e-01
7.169505741e-01,1.76869e-01,9.99999e-01,9.99999e-01,1.76869e-01,9.99999e-01
7.205353270e-01,1.83026e-01,9.99999e-01,9.99999e-01,1.83026e-01,9.99999e-01
7.241380036e-01,1.89269e-01,9.99999e-01,9.99999e-01,1.89269e-01,9.99999e-01
7.277586936e-01,1.95595e-01,9.99999e-01,9.99999e-01,1.95595e-01,9.99999e-01
7.313974871e-01,2.02002e-01,9.99999e-01,9.99999e-01,2.02002e-01,9.99999e-01
7.350544745e-01,2.08486e-01,9.99999e-01,9.99999e-01,2.08486e-01,9.99999e-01
7.387297469e-01,2.15044e-01,9.99999e-01,9.99999e-01,2.15044e-01,9.99999e-01
7.424233956e-01,2.21672e-01,9.99999e-01,9.99999e-01,2.21672e-01,9.99999e-01
7.461355126e-01,2.28368e-01,9.99999e-01,9.99999e-01,2.28368e-01,9.99999e-01
7.498661902e-01,2.35127e-01,9.99999e-01,9.99999e-01,2.35127e-01,9.99999e-01
7.536155211e-01,2.41948e-01,9.99999e-01,9.99999e-01,2.41948e-01,9.99999e-01
7.573835987e-01,2.48825e-01,9.99999e-01,9.99999e-01,2.48825e-01,9.99999e-01
7.611705167e-01,2.55757e-01,9.99999e-01,9.99999e-01,2.55757e-01,9.99999e-01
7.649763693e-01,2.62739e-01,9.99999e-01,9.99999e-01,2.62739e-01,9.99999e-01
7.688012511e-01,2.69768e-01,9.99999e-01,9.99999e-01,2.69768e-01,9.99999e-01
7.726452574e-01,2.76840e-01,9.99999e-01,9.99999e-01,2.76840e-01,9.99999e-01
7.765084837e-01,2.83953e-01,9.99999e-01,9.99999e-01,2.83953e-01,9.99999e-01
7.803910261e-01,2.75488e-01,9.99999e-01,9.46360e-01,2.91103e-01,9.99999e-01
7.842929812e-01,2.32089e-01,9.99999e-01,7.78075e-01,2.98286e-01,9.99999e-01
7.882144461e-01,2.33739e-01,9.99999e-01,7.65103e-01,3.05499e-01,9.99999e-01
7.921555184e-01,2.66718e-01,9.99999e-01,8.52843e-01,3.12739e-01,9.99999e-01
7.961162960e-01,2.87582e-01,9.99999e-01,8.98684e-01,3.20003e-01,9.99999e-01
8.000968774e-01,3.08859e-01,9.99999e-01,9.43696e-01,3.27287e-01,9.99999e-01
8.040973618e-01,3.24696e-01,9.99999e-01,9.70435e-01,3.34587e-01,9.99999e-01
8.081178486e-01,3.37220e-01,9.99999e-01,9.86304e-01,3.41902e-01,9.99999e-01
8.121584379e-01,3.47746e-01,9.99999e-01,9.95758e-01,3.49227e-01,9.99999e-01
8.162192301e-01,3.56226e-01,9.99999e-01,9.99061e-01,3.56560e-01,9.99999e-01
8.203003262e-01,3.63893e-01,9.99999e-01,9.99985e-01,3.63898e-01,9.99999e-01
8.244018279e-01,3.71237e-01,9.99999e-01,9.99999e-01,3.71237e-01,9.99999e-01
8.285238370e-01,3.78575e-01,9.99999e-01,9.99999e-01,3.78575e-01,9.99999e-01
8.326664562e-01,3.85908e-01,9.99999e-01,9.99999e-01,3.85908e-01,9.99999e-01
8.368297885e-01,3.93235e-01,9.99999e-01,9.99999e-01,3.93235e-01,9.99999e-01
8.410139374e-01,4.00552e-01,9.99999e-01,9.99999e-01,4.00552e-01,9.99999e-01
8.452190071e-01,4.07856e-01,9.99999e-01,9.99999e-01,4.07856e-01,9.99999e-01
8.494451021e-01,4.15146e-01,9.99999e-01,9.99999e-01,4.15146e-01,9.99999e-01
8.536923276e-01,4.22418e-01,9.99999e-01,9.99999e-01,4.22418e-01,9.99999e-01
8.579607893e-01,4.29670e-01,9.99999e-01,9.99999e-01,4.29670e-01,9.99999e-01
8.622505932e-01,4.36899e-01,9.99999e-01,9.99999e-01,4.36899e-01,9.99999e-01
8.665618462e-01,3.99664e-01,9.99999e-01,8.99933e-01,4.44104e-01,9.99999e-01
8.708946554e-01,2.40535e-01,9.99999e-01,5.33005e-01,4.51281e-01,9.99999e-01
8.752491287e-01,2.74414e-01,9.99999e-01,5.98594e-01,4.58430e-01,9.99999e-01
8.796253743e-01,3.50137e-01,9.99999e-01,7.52097e-01,4.65547e-01,9.99999e-01
8.840235012e-01,4.07330e-01,9.99999e-01,8.61835e-01,4.72631e-01,9.99999e-01
8.884436187e-01,4.52341e-01,9.99999e-01,9.43006e-01,4.79680e-01,9.99999e-01
8.928858368e-01,4.75247e-01,9.99999e-01,9.76485e-01,4.86691e-01,9.99999e-01
8.973502660e-01,4.90823e-01,9.99999e-01,9.94246e-01,4.93663e-01,9.99999e-01
9.018370173e-01,5.00277e-01,9.99999e-01,9.99364e-01,5.00595e-01,9.99999e-01
9.063462024e-01,4.99263e-01,9.99999e-01,9.83801e-01,5.07484e-01,9.99999e-01
9.108779334e-01,4.95380e-01,9.99999e-01,9.63157e-01,5.14329e-01,9.99999e-01
9.154323231e-01,5.16566e-01,9.99999e-01,9.91244e-01,5.21128e-01,9.99999e-01
9.200094847e-01,4.66886e-01,9.99999e-01,8.84453e-01,5.27880e-01,9.99999e-01
9.246095321e-01,4.45010e-01,9.99999e-01,8.32440e-01,5.34584e-01,9.99999e-01
9.292325798e-01,4.69087e-01,9.99999e-01,8.66692e-01,5.41238e-01,9.99999e-01
9.338787427e-01,4.76917e-01,9.99999e-01,8.70539e-01,5.47841e-01,9.99999e-01
9.385481364e-01,5.00544e-01,9.99999e-01,9.02870e-01,5.54392e-01,9.99999e-01
9.432408771e-01,5.26839e-01,9.99999e-01,9.39292e-01,5.60889e-01,9.99999e-01
9.479570815e-01,5.49382e-01,9.99999e-01,9.68360e-01,5.67332e-01,9.99999e-01
9.526968669e-01,5.64902e-01,9.99999e-01,9.84630e-01,5.73720e-01,9.99999e-01
9.574603512e-01,5.76222e-01,9.99999e-01,9.93398e-01,5.80051e-01,9.99999e-01
9.622476530e-01,5.85115e-01,9.99999e-01,9.97936e-01,5.86325e-01,9.99999e-01
9.670588912e-01,5.92174e-01,9.99999e-01,9.99381e-01,5.92540e-01,9.99999e-01
9.718941857e-01,5.98671e-01,9.99999e-01,9.99956e-01,5.98697e-01,9.99999e-01
9.767536566e-01,6.04795e-01,9.99999e-01,9.99999e-01,6.04795e-01,9.99999e-01
9.816374249e-01,6.10832e-01,9.99999e-01,9.99999e-01,6.10832e-01,9.99999e-01
9.865456120e-01,6.16809e-01,9.99999e-01,9.99999e-01,6.16809e-01,9.99999e-01
9.914783401e-01,6.22724e-01,9.99999e-01,9.99999e-01,6.22724e-01,9.99999e-01
9.964357318e-01,6.28577e-01,9.99999e-01,9.99999e-01,6.28577e-01,9.99999e-01
1.001417910e+00,6.34368e-01,9.99999e-01,9.99999e-01,6.34368e-01,9.99999e-01
1.006425000e+00,6.40097e-01,9.99999e-01,9.99999e-01,6.40097e-01,9.99999e-01
1.011457125e+00,6.45763e-01,9.99999e-01,9.99999e-01,6.45763e-01,9.99999e-01
1.016514411e+00,6.51365e-01,9.99999e-01,9.99999e-01,6.51365e-01,9.99999e-01
1.021596983e+00,6.56846e-01,9.99999e-01,9.99911e-01,6.56904e-01,9.99999e-01
1.026704968e+00,6.58157e-01,9.99999e-01,9.93625e-01,6.62379e-01,9.99999e-01
1.031838492e+00,6.25032e-01,9.99999e-01,9.35969e-01,6.67790e-01,9.99999e-01
1.036997685e+00,6.30394e-02,9.99999e-01,9.36500e-02,6.73138e-01,9.99999e-01
1.042182673e+00,2.25608e-02,9.99999e-01,3.32548e-02,6.78421e-01,9.99999e-01
1.047393587e+00,3.69172e-02,9.99999e-01,5.40008e-02,6.83640e-01,9.99999e-01
1.052630555e+00,1.43988e-04,9.99999e-01,2.09044e-04,6.88795e-01,9.99999e-01
1.057893707e+00,4.73175e-04,9.99999e-01,6.81919e-04,6.93886e-01,9.99999e-01
1.063183176e+00,3.06655e-03,9.99999e-01,4.38760e-03,6.98913e-01,9.99999e-01
1.068499092e+00,1.40888e-02,9.99999e-01,2.00160e-02,7.03876e-01,9.99999e-01
1.073841587e+00,5.90179e-02,9.99999e-01,8.32674e-02,7.08775e-01,9.99999e-01
1.079210795e+00,1.48034e-01,9.99999e-01,2.07443e-01,7.13611e-01,9.99999e-01
1.084606849e+00,2.99344e-01,9.99999e-01,4.16691e-01,7.18383e-01,9.99999e-01
1.090029883e+00,4.58238e-01,9.99999e-01,6.33720e-01,7.23091e-01,9.99999e-01
1.095480033e+00,5.81109e-01,9.99999e-01,7.98514e-01,7.27737e-01,9.99999e-01
1.100957433e+00,6.56955e-01,9.99999e-01,8.97086e-01,7.32320e-01,9.99999e-01
1.106462220e+00,7.04473e-01,9.99999e-01,9.56072e-01,7.36840e-01,9.99999e-01
1.111994531e+00,7.29054e-01,9.99999e-01,9.83481e-01,7.41298e-01,9.99999e-01
1.117554504e+00,7.42672e-01,9.99999e-01,9.95946e-01,7.45694e-01,9.99999e-01
1.123142276e+00,7.49830e-01,9.99999e-01,9.99733e-01,7.50029e-01,9.99999e-01
1.128757988e+00,7.54303e-01,9.99999e-01,9.99999e-01,7.54303e-01,9.99999e-01
1.134401778e+00,7.58515e-01,9.99999e-01,9.99999e-01,7.58515e-01,9.99999e-01
1.140073787e+00,7.62668e-01,9.99999e-01,9.99999e-01,7.62668e-01,9.99999e-01
1.145774156e+00,7.66760e-01,9.99999e-01,9.99999e-01,7.66760e-01,9.99999e-01
1.151503026e+00,7.70793e-01,9.99999e-01,9.99999e-01,7.70793e-01,9.99999e-01
1.157260541e+00,7.74767e-01,9.99999e-01,9.99999e-01,7.74767e-01,9.99999e-01
1.163046844e+00,7.78682e-01,9.99999e-01,9.99999e-01,7.78682e-01,9.99999e-01
1.168862078e+00,7.82539e-01,9.99999e-01,9.99999e-01,7.82539e-01,9.99999e-01
1.174706389e+00,7.86339e-01,9.99999e-01,9.99999e-01,7.86339e-01,9.99999e-01
1.180579921e+00,7.90081e-01,9.99999e-01,9.99999e-01,7.90081e-01,9.99999e-01
1.186482820e+00,7.93757e-01,9.99999e-01,9.99987e-01,7.93767e-01,9.99999e-01
1.192415234e+00,7.79582e-01,9.99999e-01,9.77659e-01,7.97396e-01,9.99999e-01
1.198377311e+00,4.36912e-01,9.99999e-01,5.45478e-01,8.00970e-01,9.99999e-01
1.204369197e+00,1.73059e-17,9.99999e-01,2.15117e-17,8.04489e-01,9.99999e-01
1.210391043e+00,1.02208e-67,9.99999e-01,1.26502e-67,8.07953e-01,9.99999e-01
1.216442998e+00,9.80251e-59,9.99999e-01,1.20815e-58,8.11364e-01,9.99999e-01
1.222525213e+00,7.20644e-58,9.99999e-01,8.84528e-58,8.14721e-01,9.99999e-01
1.228637839e+00,8.79350e-45,9.99999e-01,1.07497e-44,8.18025e-01,9.99999e-01
1.234781029e+00,2.67146e-28,9.99999e-01,3.25280e-28,8.21277e-01,9.99999e-01
1.240954934e+00,5.90416e-19,9.99999e-01,7.16109e-19,8.24477e-01,9.99999e-01
1.247159708e+00,9.83102e-10,9.99999e-01,1.18786e-09,8.27627e-01,9.99999e-01
1.253395507e+00,1.70510e-06,9.99999e-01,2.05255e-06,8.30725e-01,9.99999e-01
1.259662485e+00,4.58036e-04,9.99999e-01,5.49352e-04,8.33774e-01,9.99999e-01
1.265960797e+00,1.16674e-02,9.99999e-01,1.39433e-02,8.36773e-01,9.99999e-01
1.272290601e+00,1.27556e-01,9.99999e-01,1.51902e-01,8.39724e-01,9.99999e-01
1.278652054e+00,1.09039e-01,9.99999e-01,1.29403e-01,8.42626e-01,9.99999e-01
1.285045314e+00,7.58475e-04,9.99999e-01,8.97093e-04,8.45481e-01,9.99999e-01
1.291470541e+00,1.69897e-08,9.99999e-01,2.00282e-08,8.48289e-01,9.99999e-01
1.297927893e+00,3.30390e-04,9.99999e-01,3.88214e-04,8.51050e-01,9.99999e-01
1.304417533e+00,2.71308e-02,9.99999e-01,3.17778e-02,8.53766e-01,9.99999e-01
1.310939621e+00,6.32929e-03,9.99999e-01,7.39026e-03,8.56436e-01,9.99999e-01
1.317494319e+00,1.49212e-23,9.99999e-01,1.73691e-23,8.59062e-01,9.99999e-01
1.324081790e+00,8.33660e-16,9.99999e-01,9.67523e-16,8.61643e-01,9.99999e-01
1.330702199e+00,2.23506e-09,9.99999e-01,2.58633e-09,8.64181e-01,9.99999e-01
1.337355710e+00,7.48893e-09,9.99999e-01,8.64096e-09,8.66677e-01,9.99999e-01
1.344042489e+00,2.84583e-09,9.99999e-01,3.27434e-09,8.69130e-01,9.99999e-01
1.350762701e+00,1.24409e-09,9.99999e-01,1.42745e-09,8.71541e-01,9.99999e-01
1.357516515e+00,2.92784e-06,9.99999e-01,3.35027e-06,8.73911e-01,9.99999e-01
1.364304097e+00,1.61939e-04,9.99999e-01,1.84811e-04,8.76241e-01,9.99999e-01
1.371125618e+00,1.05411e-02,9.99999e-01,1.19985e-02,8.78530e-01,9.99999e-01
1.377981246e+00,2.11610e-02,9.99999e-01,2.40253e-02,8.80780e-01,9.99999e-01
1.384871152e+00,1.00796e-01,9.99999e-01,1.14152e-01,8.82992e-01,9.99999e-01
1.391795508e+00,1.19218e-01,9.99999e-01,1.34684e-01,8.85165e-01,9.99999e-01
1.398754485e+00,2.55131e-01,9.99999e-01,2.87537e-01,8.87300e-01,9.99999e-01
1.405748258e+00,3.56707e-01,9.99999e-01,4.01065e-01,8.89398e-01,9.99999e-01
1.412776999e+00,4.99675e-01,9.99999e-01,5.60512e-01,8.91460e-01,9.99999e-01
1.419840884e+00,4.48734e-01,9.99999e-01,5.02228e-01,8.93485e-01,9.99999e-01
1.426940089e+00,2.72277e-02,9.99999e-01,3.04059e-02,8.95475e-01,9.99999e-01
1.434074789e+00,0.00000e+00,9.99999e-01,0.00000e+00,8.97430e-01,9.99999e-01
1.441245163e+00,0.00000e+00,9.99999e-01,0.00000e+00,8.99350e-01,9.99999e-01
1.448451389e+00,0.00000e+00,9.99999e-01,0.00000e+00,9.01237e-01,9.99999e-01
1.455693646e+00,0.00000e+00,9.99999e-01,0.00000e+00,9.03090e-01,9.99999e-01
1.462972114e+00,5.91301e-268,9.99999e-01,6.53436e-268,9.04910e-01,9.99999e-01
1.470286975e+00,1.39778e-111,9.99999e-01,1.54162e-111,9.06698e-01,9.99999e-01
