#,Wave/freq,Total,N2,CO2,Rayleigh,CIA
4.000000000e-01,2.00029e-06,9.99999e-01,9.99999e-01,2.00029e-06,9.99999e-01
4.020000000e-01,2.59284e-06,9.99999e-01,9.99999e-01,2.59284e-06,9.99999e-01
4.040100000e-01,3.34285e-06,9.99999e-01,9.99999e-01,3.34285e-06,9.99999e-01
4.060300500e-01,4.28824e-06,9.99999e-01,9.99999e-01,4.28824e-06,9.99999e-01
4.080602003e-01,5.47400e-06,9.99999e-01,9.99999e-01,5.47400e-06,9.99999e-01
4.101005013e-01,6.95403e-06,9.99999e-01,9.99999e-01,6.95403e-06,9.99999e-01
4.121510038e-01,8.79255e-06,9.99999e-01,9.99999e-01,8.79255e-06,9.99999e-01
4.142117588e-01,1.10658e-05,9.99999e-01,9.99999e-01,1.10658e-05,9.99999e-01
4.162828176e-01,1.38636e-05,9.99999e-01,9.99999e-01,1.38636e-05,9.99999e-01
4.183642317e-01,1.72916e-05,9.99999e-01,9.99999e-01,1.72916e-05,9.99999e-01
4.204560528e-01,2.14733e-05,9.99999e-01,9.99999e-01,2.14733e-05,9.99999e-01
4.225583331e-01,2.65525e-05,9.99999e-01,9.99999e-01,2.65525e-05,9.99999e-01
4.246711247e-01,3.26957e-05,9.99999e-01,9.99999e-01,3.26957e-05,9.99999e-01
4.267944804e-01,4.00951e-05,9.99999e-01,9.99999e-01,4.00951e-05,9.99999e-01
4.289284528e-01,4.89712e-05,9.99999e-01,9.99999e-01,4.89712e-05,9.99999e-01
4.310730950e-01,5.95765e-05,9.99999e-01,9.99999e-01,5.95765e-05,9.99999e-01
4.332284605e-01,7.21985e-05,9.99999e-01,9.99999e-01,7.21985e-05,9.99999e-01
4.353946028e-01,8.71630e-05,9.99999e-01,9.99999e-01,8.71630e-05,9.99999e-01
4.375715758e-01,1.04839e-04,9.99999e-01,9.99999e-01,1.04839e-04,9.99999e-01
4.397594337e-01,1.25639e-04,9.99999e-01,9.99999e-01,1.25639e-04,9.99999e-01
4.419582309e-01,1.50030e-04,9.99999e-01,9.99999e-01,1.50030e-04,9.99999e-01
4.441680220e-01,1.78528e-04,9.99999e-01,9.99999e-01,1.78528e-04,9.99999e-01
4.463888621e-01,2.11712e-04,9.99999e-01,9.99999e-01,2.11712e-04,9.99999e-01
4.486208064e-01,2.50219e-04,9.99999e-01,9.99999e-01,2.50219e-04,9.99999e-01
4.508639105e-01,2.94756e-04,9.99999e-01,9.99999e-01,2.94756e-04,9.99999e-01
4.531182300e-01,3.46099e-04,9.99999e-01,9.99999e-01,3.46099e-04,9.99999e-01
4.553838212e-01,4.05097e-04,9.99999e-01,9.99999e-01,4.05097e-04,9.99999e-01
4.576607403e-01,4.72681e-04,9.99999e-01,9.99999e-01,4.72681e-04,9.99999e-01
4.599490440e-01,5.49862e-04,9.99999e-01,9.99999e-01,5.49862e-04,9.99999e-01
4.622487892e-01,6.37738e-04,9.99999e-01,9.99999e-01,6.37738e-04,9.99999e-01
4.645600332e-01,7.37493e-04,9.99999e-01,9.99999e-01,7.37493e-04,9.99999e-01
4.668828333e-01,8.50409e-04,9.99999e-01,9.99999e-01,8.50409e-04,9.99999e-01
4.692172475e-01,9.77857e-04,9.99999e-01,9.99999e-01,9.77857e-04,9.99999e-01
4.715633337e-01,1.12131e-03,9.99999e-01,9.99999e-01,1.12131e-03,9.99999e-01
4.739211504e-01,1.28233e-03,9.99999e-01,9.99999e-01,1.28233e-03,9.99999e-01
4.762907561e-01,1.46260e-03,9.99999e-01,9.99999e-01,1.46260e-03,9.99999e-01
4.786722099e-01,1.66387e-03,9.99999e-01,9.99999e-01,1.66387e-03,9.99999e-01
4.810655710e-01,1.88803e-03,9.99999e-01,9.99999e-01,1.88803e-03,9.99999e-01
4.834708988e-01,2.13705e-03,9.99999e-01,9.99999e-01,2.13705e-03,9.99999e-01
4.858882533e-01,2.41300e-03,9.99999e-01,9.99999e-01,2.41300e-03,9.99999e-01
4.883176946e-01,2.71806e-03,9.99999e-01,9.99999e-01,2.71806e-03,9.99999e-01
4.907592831e-01,3.05449e-03,9.99999e-01,9.99999e-01,3.05449e-03,9.99999e-01
4.932130795e-01,3.42466e-03,9.99999e-01,9.99999e-01,3.42466e-03,9.99999e-01
4.956791449e-01,3.83102e-03,9.99999e-01,9.99999e-01,3.83102e-03,9.99999e-01
4.981575406e-01,4.27612e-03,9.99999e-01,9.99999e-01,4.27612e-03,9.99999e-01
5.006483283e-01,4.76259e-03,9.99999e-01,9.99999e-01,4.76259e-03,9.99999e-01
5.031515699e-01,5.29311e-03,9.99999e-01,9.99999e-01,5.29311e-03,9.99999e-01
5.056673278e-01,5.87048e-03,9.99999e-01,9.99999e-01,5.87048e-03,9.99999e-01
5.081956644e-01,6.49752e-03,9.99999e-01,9.99999e-01,6.49752e-03,9.99999e-01
5.107366428e-01,7.17714e-03,9.99999e-01,9.99999e-01,7.17714e-03,9.99999e-01
5.132903260e-01,7.91228e-03,9.99999e-01,9.99999e-01,7.91228e-03,9.99999e-01
5.158567776e-01,8.70594e-03,9.99999e-01,9.99999e-01,8.70594e-03,9.99999e-01
5.184360615e-01,9.56113e-03,9.99999e-01,9.99999e-01,9.56113e-03,9.99999e-01
5.210282418e-01,1.04809e-02,9.99999e-01,9.99999e-01,1.04809e-02,9.99999e-01
5.236333830e-01,1.14684e-02,9.99999e-01,9.99999e-01,1.14684e-02,9.99999e-01
5.262515499e-01,1.25265e-02,9.99999e-01,9.99999e-01,1.25265e-02,9.99999e-01
5.288828077e-01,1.36585e-02,9.99999e-01,9.99999e-01,1.36585e-02,9.99999e-01
5.315272217e-01,1.48674e-02,9.99999e-01,9.99999e-01,1.48674e-02,9.99999e-01
5.341848578e-01,1.61561e-02,9.99999e-01,9.99999e-01,1.61561e-02,9.99999e-01
5.368557821e-01,1.75278e-02,9.99999e-01,9.99999e-01,1.75278e-02,9.99999e-01
5.395400610e-01,1.89853e-02,9.99999e-01,9.99999e-01,1.89853e-02,9.99999e-01
5.422377613e-01,2.05316e-02,9.99999e-01,9.99999e-01,2.05316e-02,9.99999e-01
5.449489501e-01,2.21695e-02,9.99999e-01,9.99999e-01,2.21695e-02,9.99999e-01
5.476736949e-01,2.39019e-02,9.99999e-01,9.99999e-01,2.39019e-02,9.99999e-01
5.504120634e-01,2.57313e-02,9.99999e-01,9.99999e-01,2.57313e-02,9.99999e-01
5.531641237e-01,2.76604e-02,9.99999e-01,9.99999e-01,2.76604e-02,9.99999e-01
5.559299443e-01,2.96918e-02,9.99999e-01,9.99999e-01,2.96918e-02,9.99999e-01
5.587095940e-01,3.18277e-02,9.99999e-01,9.99999e-01,3.18277e-02,9.99999e-01
5.615031420e-01,3.40705e-02,9.99999e-01,9.99999e-01,3.40705e-02,9.99999e-01
5.643106577e-01,3.64224e-02,9.99999e-01,9.99999e-01,3.64224e-02,9.99999e-01
5.671322110e-01,3.88852e-02,9.99999e-01,9.99999e-01,3.88852e-02,9.99999e-01
5.699678720e-01,4.14610e-02,9.99999e-01,9.99999e-01,4.14610e-02,9.99999e-01
5.728177114e-01,4.41514e-02,9.99999e-01,9.99999e-01,4.41514e-02,9.99999e-01
5.756818000e-01,4.69581e-02,9.99999e-01,9.99999e-01,4.69581e-02,9.99999e-01
5.785602090e-01,4.98824e-02,9.99999e-01,9.99999e-01,4.98824e-02,9.99999e-01
5.814530100e-01,5.29257e-02,9.99999e-01,9.99999e-01,5.29257e-02,9.99999e-01
5.843602750e-01,5.60889e-02,9.99999e-01,9.99999e-01,5.60889e-02,9.99999e-01
5.872820764e-01,5.93731e-02,9.99999e-01,9.99999e-01,5.93731e-02,9.99999e-01
5.902184868e-01,6.27790e-02,9.99999e-01,9.99999e-01,6.27790e-02,9.99999e-01
5.931695792e-01,6.63072e-02,9.99999e-01,9.99999e-01,6.63072e-02,9.99999e-01
5.961354271e-01,6.99580e-02,9.99999e-01,9.99999e-01,6.99580e-02,9.99999e-01
5.991161043e-01,7.37318e-02,9.99999e-01,9.99999e-01,7.37318e-02,9.99999e-01
6.021116848e-01,7.76286e-02,9.99999e-01,9.99999e-01,7.76286e-02,9.99999e-01
6.051222432e-01,8.16482e-02,9.99999e-01,9.99999e-01,8.16482e-02,9.99999e-01
6.081478544e-01,8.57903e-02,9.99999e-01,9.99999e-01,8.57903e-02,9.99999e-01
6.111885937e-01,9.00545e-02,9.99999e-01,9.99999e-01,9.00545e-02,9.99999e-01
6.142445367e-01,9.44401e-02,9.99999e-01,9.99999e-01,9.44401e-02,9.99999e-01
6.173157594e-01,9.89463e-02,9.99999e-01,9.99999e-01,9.89463e-02,9.99999e-01
6.204023382e-01,1.03572e-01,9.99999e-01,9.99999e-01,1.03572e-01,9.99999e-01
6.235043498e-01,1.08316e-01,9.99999e-01,9.99999e-01,1.08316e-01,9.99999e-01
6.266218716e-01,1.13178e-01,9.99999e-01,9.99999e-01,1.13178e-01,9.99999e-01
6.297549810e-01,1.18155e-01,9.99999e-01,9.99999e-01,1.18155e-01,9.99999e-01
6.329037559e-01,1.23246e-01,9.99999e-01,9.99999e-01,1.23246e-01,9.99999e-01
6.360682746e-01,1.28450e-01,9.99999e-01,9.99999e-01,1.28450e-01,9.99999e-01
6.392486160e-01,1.33764e-01,9.99999e-01,9.99999e-01,1.33764e-01,9.99999e-01
6.424448591e-01,1.39186e-01,9.99999e-01,9.99999e-01,1.39186e-01,9.99999e-01
6.456570834e-01,1.44714e-01,9.99999e-01,9.99999e-01,1.44714e-01,9.99999e-01
6.488853688e-01,1.50346e-01,9.99999e-01,9.99999e-01,1.50346e-01,9.99999e-01
6.521297956e-01,1.56080e-01,9.99999e-01,9.99999e-01,1.56080e-01,9.99999e-01
6.553904446e-01,1.61913e-01,9.99999e-01,9.99999e-01,1.61913e-01,9.99999e-01
6.586673968e-01,1.67841e-01,9.99999e-01,9.99999e-01,1.67841e-01,9.99999e-01
6.619607338e-01,1.73864e-01,9.99999e-01,9.99999e-01,1.73864e-01,9.99999e-01
6.652705375e-01,1.79977e-01,9.99999e-01,9.99999e-01,1.79977e-01,9.99999e-01
6.685968902e-01,1.86178e-01,9.99999e-01,9.99999e-01,1.86178e-01,9.99999e-01
6.719398746e-01,1.92464e-01,9.99999e-01,9.99999e-01,1.92464e-01,9.99999e-01
6.752995740e-01,1.98831e-01,9.99999e-01,9.99999e-01,1.98831e-01,9.99999e-01
6.786760719e-01,2.05278e-01,9.99999e-01,9.99999e-01,2.05278e-01,9.99999e-01
6.820694522e-01,2.11799e-01,9.99999e-01,9.99999e-01,2.11799e-01,9.99999e-01
6.854797995e-01,2.18393e-01,9.99999e-01,9.99999e-01,2.18393e-01,9.99999e-01
6.889071985e-01,2.25056e-01,9.99999e-01,9.99999e-01,2.25056e-01,9.99999e-01
6.923517345e-01,2.31785e-01,9.99999e-01,9.99999e-01,2.31785e-01,9.99999e-01
6.958134932e-01,2.38576e-01,9.99999e-01,9.99999e-01,2.38576e-01,9.99999e-01
6.992925606e-01,2.45425e-01,9.99999e-01,9.99999e-01,2.45425e-01,9.99999e-01
7.027890234e-01,2.52331e-01,9.99999e-01,9.99999e-01,2.52331e-01,9.99999e-01
7.063029686e-01,2.59288e-01,9.99999e-01,9.99999e-01,2.59288e-01,9.99999e-01
7.098344834e-01,2.66294e-01,9.99999e-01,9.99999e-01,2.66294e-01,9.99999e-01
7.133836558e-01,2.73346e-01,9.99999e-01,9.99999e-01,2.73346e-01,9.99999e-01
7.169505741e-01,2.80439e-01,9.99999e-01,9.99999e-01,2.80439e-01,9.99999e-01
7.205353270e-01,2.87571e-01,9.99999e-01,9.99999e-01,2.87571e-01,9.99999e-01
7.241380036e-01,2.94738e-01,9.99999e-01,9.99999e-01,2.94738e-01,9.99999e-01
7.277586936e-01,3.01937e-01,9.99999e-01,9.99999e-01,3.01937e-01,9.99999e-01
7.313974871e-01,3.09164e-01,9.99999e-01,9.99999e-01,3.09164e-01,9.99999e-01
7.350544745e-01,3.16417e-01,9.99999e-01,9.99999e-01,3.16417e-01,9.99999e-01
7.387297469e-01,3.23691e-01,9.99999e-01,9.99999e-01,3.23691e-01,9.99999e-01
7.424233956e-01,3.30984e-01,9.99999e-01,9.99999e-01,3.30984e-01,9.99999e-01
7.461355126e-01,3.38292e-01,9.99999e-01,9.99999e-01,3.38292e-01,9.99999e-01
7.498661902e-01,3.45612e-01,9.99999e-01,9.99999e-01,3.45612e-01,9.99999e-01
7.536155211e-01,3.52942e-01,9.99999e-01,9.99999e-01,3.52942e-01,9.99999e-01
7.573835987e-01,3.60277e-01,9.99999e-01,9.99999e-01,3.60277e-01,9.99999e-01
7.611705167e-01,3.67616e-01,9.99999e-01,9.99999e-01,3.67616e-01,9.99999e-01
7.649763693e-01,3.74955e-01,9.99999e-01,9.99999e-01,3.74955e-01,9.99999e-01
7.688012511e-01,3.82291e-01,9.99999e-01,9.99999e-01,3.82291e-01,9.99999e-01
7.726452574e-01,3.89621e-01,9.99999e-01,9.99999e-01,3.89621e-01,9.99999e-01
7.765084837e-01,3.96943e-01,9.99999e-01,9.99999e-01,3.96943e-01,9.99999e-01
7.803910261e-01,3.87264e-01,9.99999e-01,9.57971e-01,4.04254e-01,9.99999e-01
7.842929812e-01,3.41679e-01,9.99999e-01,8.30222e-01,4.11552e-01,9.99999e-01
7.882144461e-01,3.42964e-01,9.99999e-01,8.18857e-01,4.18832e-01,9.99999e-01
7.921555184e-01,3.78899e-01,9.99999e-01,8.89237e-01,4.26094e-01,9.99999e-01
7.961162960e-01,4.00712e-01,9.99999e-01,9.24714e-01,4.33335e-01,9.99999e-01
8.000968774e-01,4.22226e-01,9.99999e-01,9.58401e-01,4.40553e-01,9.99999e-01
8.040973618e-01,4.38024e-01,9.99999e-01,9.78291e-01,4.47744e-01,9.99999e-01
8.081178486e-01,4.50334e-01,9.99999e-01,9.89947e-01,4.54907e-01,9.99999e-01
8.121584379e-01,4.60611e-01,9.99999e-01,9.96906e-01,4.62040e-01,9.99999e-01
8.162192301e-01,4.68820e-01,9.99999e-01,9.99315e-01,4.69140e-01,9.99999e-01
8.203003262e-01,4.76202e-01,9.99999e-01,9.99990e-01,4.76207e-01,9.99999e-01
8.244018279e-01,4.83237e-01,9.99999e-01,9.99999e-01,4.83237e-01,9.99999e-01
8.285238370e-01,4.90228e-01,9.99999e-01,9.99999e-01,4.90228e-01,9.99999e-01
8.326664562e-01,4.97180e-01,9.99999e-01,9.99999e-01,4.97180e-01,9.99999e-01
8.368297885e-01,5.04090e-01,9.99999e-01,9.99999e-01,5.04090e-01,9.99999e-01
8.410139374e-01,5.10957e-01,9.99999e-01,9.99999e-01,5.10957e-01,9.99999e-01
8.452190071e-01,5.17779e-01,9.99999e-01,9.99999e-01,5.17779e-01,9.99999e-01
8.494451021e-01,5.24555e-01,9.99999e-01,9.99999e-01,5.24555e-01,9.99999e-01
8.536923276e-01,5.31283e-01,9.99999e-01,9.99999e-01,5.31283e-01,9.99999e-01
8.579607893e-01,5.37962e-01,9.99999e-01,9.99999e-01,5.37962e-01,9.99999e-01
8.622505932e-01,5.44590e-01,9.99999e-01,9.99999e-01,5.44590e-01,9.99999e-01
8.665618462e-01,5.03446e-01,9.99999e-01,9.13417e-01,5.51167e-01,9.99999e-01
8.708946554e-01,3.47892e-01,9.99999e-01,6.23808e-01,5.57690e-01,9.99999e-01
8.752491287e-01,3.85445e-01,9.99999e-01,6.83219e-01,5.64160e-01,9.99999e-01
8.796253743e-01,4.62533e-01,9.99999e-01,8.10643e-01,5.70575e-01,9.99999e-01
8.840235012e-01,5.17298e-01,9.99999e-01,8.96632e-01,5.76934e-01,9.99999e-01
8.884436187e-01,5.58756e-01,9.99999e-01,9.58025e-01,5.83237e-01,9.99999e-01
8.928858368e-01,5.79311e-01,9.99999e-01,9.82747e-01,5.89481e-01,9.99999e-01
8.973502660e-01,5.93166e-01,9.99999e-01,9.95800e-01,5.95667e-01,9.99999e-01
9.018370173e-01,6.01516e-01,9.99999e-01,9.99537e-01,6.01794e-01,9.99999e-01
9.063462024e-01,6.00518e-01,9.99999e-01,9.87919e-01,6.07861e-01,9.99999e-01
9.108779334e-01,5.97211e-01,9.99999e-01,9.72866e-01,6.13868e-01,9.99999e-01
9.154323231e-01,6.15854e-01,9.99999e-01,9.93612e-01,6.19813e-01,9.99999e-01
9.200094847e-01,5.69849e-01,9.99999e-01,9.10742e-01,6.25697e-01,9.99999e-01
9.246095321e-01,5.51956e-01,9.99999e-01,8.74013e-01,6.31519e-01,9.99999e-01
9.292325798e-01,5.73156e-01,9.99999e-01,8.99380e-01,6.37279e-01,9.99999e-01
9.338787427e-01,5.80652e-01,9.99999e-01,9.03069e-01,6.42975e-01,9.99999e-01
9.385481364e-01,6.01732e-01,9.99999e-01,9.27726e-01,6.48609e-01,9.99999e-01
9.432408771e-01,6.24854e-01,9.99999e-01,9.55171e-01,6.54179e-01,9.99999e-01
9.479570815e-01,6.44323e-01,9.99999e-01,9.76710e-01,6.59686e-01,9.99999e-01
9.526968669e-01,6.57628e-01,9.99999e-01,9.88722e-01,6.65129e-01,9.99999e-01
9.574603512e-01,6.67266e-01,9.99999e-01,9.95164e-01,6.70508e-01,9.99999e-01
9.622476530e-01,6.74803e-01,9.99999e-01,9.98490e-01,6.75822e-01,9.99999e-01
9.670588912e-01,6.80766e-01,9.99999e-01,9.99548e-01,6.81073e-01,9.99999e-01
9.718941857e-01,6.86238e-01,9.99999e-01,9.99968e-01,6.86260e-01,9.99999e-01
9.767536566e-01,6.91383e-01,9.99999e-01,9.99999e-01,6.91383e-01,9.99999e-01
9.816374249e-01,6.96441e-01,9.99999e-01,9.99999e-01,6.96441e-01,9.99999e-01
9.865456120e-01,7.01436e-01,9.99999e-01,9.99999e-01,7.01436e-01,9.99999e-01
9.914783401e-01,7.06366e-01,9.99999e-01,9.99999e-01,7.06366e-01,9.99999e-01
9.964357318e-01,7.11233e-01,9.99999e-01,9.99999e-01,7.11233e-01,9.99999e-01
1.001417910e+00,7.16036e-01,9.99999e-01,9.99999e-01,7.16036e-01,9.99999e-01
1.006425000e+00,7.20776e-01,9.99999e-01,9.99999e-01,7.20776e-01,9.99999e-01
1.011457125e+00,7.25453e-01,9.99999e-01,9.99999e-01,7.25453e-01,9.99999e-01
1.016514411e+00,7.30067e-01,9.99999e-01,9.99999e-01,7.30067e-01,9.99999e-01
1.021596983e+00,7.34566e-01,9.99999e-01,9.99929e-01,7.34618e-01,9.99999e-01
1.026704968e+00,7.35600e-01,9.99999e-01,9.95255e-01,7.39107e-01,9.99999e-01
1.031838492e+00,7.03486e-01,9.99999e-01,9.46138e-01,7.43533e-01,9.99999e-01
1.036997685e+00,9.24178e-02,9.99999e-01,1.23570e-01,7.47898e-01,9.99999e-01
1.042182673e+00,5.68330e-02,9.99999e-01,7.55554e-02,7.52202e-01,9.99999e-01
1.047393587e+00,7.49612e-02,9.99999e-01,9.90966e-02,7.56445e-01,9.99999e-01
1.052630555e+00,1.01668e-03,9.99999e-01,1.33664e-03,7.60627e-01,9.99999e-01
1.057893707e+00,2.92800e-03,9.99999e-01,3.82870e-03,7.64749e-01,9.99999e-01
1.063183176e+00,1.24064e-02,9.99999e-01,1.61371e-02,7.68811e-01,9.99999e-01
1.068499092e+00,4.18683e-02,9.99999e-01,5.41764e-02,7.72814e-01,9.99999e-01
1.073841587e+00,1.22983e-01,9.99999e-01,1.58329e-01,7.76758e-01,9.99999e-01
1.079210795e+00,2.42904e-01,9.99999e-01,3.11158e-01,7.80644e-01,9.99999e-01
1.084606849e+00,4.11741e-01,9.99999e-01,5.24864e-01,7.84471e-01,9.99999e-01
1.090029883e+00,5.63672e-01,9.99999e-01,7.15099e-01,7.88242e-01,9.99999e-01
1.095480033e+00,6.71405e-01,9.99999e-01,8.47781e-01,7.91955e-01,9.99999e-01
1.100957433e+00,7.34716e-01,9.99999e-01,9.23458e-01,7.95612e-01,9.99999e-01
1.106462220e+00,7.73350e-01,9.99999e-01,9.67637e-01,7.99214e-01,9.99999e-01
1.111994531e+00,7.93030e-01,9.99999e-01,9.87879e-01,8.02760e-01,9.99999e-01
1.117554504e+00,8.03864e-01,9.99999e-01,9.97038e-01,8.06251e-01,9.99999e-01
1.123142276e+00,8.09531e-01,9.99999e-01,9.99806e-01,8.09688e-01,9.99999e-01
1.128757988e+00,8.13071e-01,9.99999e-01,9.99999e-01,8.13071e-01,9.99999e-01
1.134401778e+00,8.16402e-01,9.99999e-01,9.99999e-01,8.16402e-01,9.99999e-01
1.140073787e+00,8.19679e-01,9.99999e-01,9.99999e-01,8.19679e-01,9.99999e-01
1.145774156e+00,8.22905e-01,9.99999e-01,9.99999e-01,8.22905e-01,9.99999e-01
1.151503026e+00,8.26079e-01,9.99999e-01,9.99999e-01,8.26079e-01,9.99999e-01
1.157260541e+00,8.29203e-01,9.99999e-01,9.99999e-01,8.29203e-01,9.99999e-01
1.163046844e+00,8.32276e-01,9.99999e-01,9.99999e-01,8.32276e-01,9.99999e-01
1.168862078e+00,8.35300e-01,9.99999e-01,9.99999e-01,8.35300e-01,9.99999e-01
1.174706389e+00,8.38274e-01,9.99999e-01,9.99999e-01,8.38274e-01,9.99999e-01
1.180579921e+00,8.41200e-01,9.99999e-01,9.99999e-01,8.41200e-01,9.99999e-01
1.186482820e+00,8.44070e-01,9.99999e-01,9.99989e-01,8.44078e-01,9.99999e-01
1.192415234e+00,8.32665e-01,9.99999e-01,9.83179e-01,8.46909e-01,9.99999e-01
1.198377311e+00,4.71359e-01,9.99999e-01,5.54739e-01,8.49694e-01,9.99999e-01
1.204369197e+00,1.95722e-13,9.99999e-01,2.29604e-13,8.52432e-01,9.99999e-01
1.210391043e+00,2.65331e-50,9.99999e-01,3.10283e-50,8.55124e-01,9.99999e-01
1.216442998e+00,1.03852e-43,9.99999e-01,1.21072e-43,8.57772e-01,9.99999e-01
1.222525213e+00,4.49176e-43,9.99999e-01,5.22070e-43,8.60375e-01,9.99999e-01
1.228637839e+00,2.29648e-33,9.99999e-01,2.66125e-33,8.62935e-01,9.99999e-01
1.234781029e+00,2.27033e-21,9.99999e-01,2.62329e-21,8.65451e-01,9.99999e-01
1.240954934e+00,2.23373e-14,9.99999e-01,2.57364e-14,8.67925e-01,9.99999e-01
1.247159708e+00,9.85657e-08,9.99999e-01,1.13247e-07,8.70357e-01,9.99999e-01
1.253395507e+00,4.61624e-05,9.99999e-01,5.28932e-05,8.72747e-01,9.99999e-01
1.259662485e+00,3.06828e-03,9.99999e-01,3.50621e-03,8.75096e-01,9.99999e-01
1.265960797e+00,3.40909e-02,9.99999e-01,3.88541e-02,8.77406e-01,9.99999e-01
1.272290601e+00,2.17396e-01,9.99999e-01,2.47131e-01,8.79675e-01,9.99999e-01
1.278652054e+00,1.83480e-01,9.99999e-01,2.08049e-01,8.81906e-01,9.99999e-01
1.285045314e+00,2.45904e-03,9.99999e-01,2.78141e-03,8.84098e-01,9.99999e-01
1.291470541e+00,1.50139e-06,9.99999e-01,1.69409e-06,8.86251e-01,9.99999e-01
1.297927893e+00,3.87122e-03,9.99999e-01,4.35767e-03,8.88368e-01,9.99999e-01
1.304417533e+00,6.93060e-02,9.99999e-01,7.78327e-02,8.90447e-01,9.99999e-01
1.310939621e+00,1.12089e-02,9.99999e-01,1.25591e-02,8.92490e-01,9.99999e-01
1.317494319e+00,7.66600e-18,9.99999e-01,8.57016e-18,8.94498e-01,9.99999e-01
1.324081790e+00,4.32800e-12,9.99999e-01,4.82782e-12,8.96470e-01,9.99999e-01
1.330702199e+00,3.68085e-07,9.99999e-01,4.09709e-07,8.98407e-01,9.99999e-01
1.337355710e+00,6.74252e-07,9.99999e-01,7.48910e-07,9.00310e-01,9.99999e-01
1.344042489e+00,2.16827e-07,9.99999e-01,2.40336e-07,9.02180e-01,9.99999e-01
1.350762701e+00,2.20447e-07,9.99999e-01,2.43852e-07,9.04016e-01,9.99999e-01
1.357516515e+00,6.05148e-05,9.99999e-01,6.68066e-05,9.05820e-01,9.99999e-01
1.364304097e+00,1.52357e-03,9.99999e-01,1.67870e-03,9.07591e-01,9.99999e-01
1.371125618e+00,3.32206e-02,9.99999e-01,3.65330e-02,9.09331e-01,9.99999e-01
1.377981246e+00,5.82375e-02,9.99999e-01,6.39241e-02,9.11040e-01,9.99999e-01
1.384871152e+00,1.84334e-01,9.99999e-01,2.01961e-01,9.12718e-01,9.99999e-01
1.391795508e+00,2.08657e-01,9.99999e-01,2.28198e-01,9.14366e-01,9.99999e-01
1.398754485e+00,3.66940e-01,9.99999e-01,4.00595e-01,9.15984e-01,9.99999e-01
1.405748258e+00,4.68709e-01,9.99999e-01,5.10813e-01,9.17573e-01,9.99999e-01
1.412776999e+00,6.01061e-01,9.99999e-01,6.53943e-01,9.19134e-01,9.99999e-01
1.419840884e+00,5.35819e-01,9.99999e-01,5.81990e-01,9.20666e-01,9.99999e-01
1.426940089e+00,4.17057e-02,9.99999e-01,4.52255e-02,9.22170e-01,9.99999e-01
1.434074789e+00,0.00000e+00,9.99999e-01,0.00000e+00,9.23647e-01,9.99999e-01
1.441245163e+00,0.00000e+00,9.99999e-01,0.00000e+00,9.25098e-01,9.99999e-01
1.448451389e+00,0.00000e+00,9.99999e-01,0.00000e+00,9.26521e-01,9.99999e-01
1.455693646e+00,0.00000e+00,9.99999e-01,0.00000e+00,9.27919e-01,9.99999e-01
1.462972114e+00,2.80003e-197,9.99999e-01,3.01308e-197,9.29291e-01,9.99999e-01
1.470286975e+00,1.68534e-82,9.99999e-01,1.81095e-82,9.30638e-01,9.99999e-01
