#,Wave/freq,Total,N2,CO2,Rayleigh,CIA
4.000000000e-01,9.84793e-09,9.99999e-01,9.99999e-01,9.84793e-09,9.99999e-01
4.020000000e-01,1.41794e-08,9.99999e-01,9.99999e-01,1.41794e-08,9.99999e-01
4.040100000e-01,2.02620e-08,9.99999e-01,9.99999e-01,2.02620e-08,9.99999e-01
4.060300500e-01,2.87504e-08,9.99999e-01,9.99999e-01,2.87504e-08,9.99999e-01
4.080602003e-01,4.05140e-08,9.99999e-01,9.99999e-01,4.05140e-08,9.99999e-01
4.101005013e-01,5.67052e-08,9.99999e-01,9.99999e-01,5.67052e-08,9.99999e-01
4.121510038e-01,7.88419e-08,9.99999e-01,9.99999e-01,7.88419e-08,9.99999e-01
4.142117588e-01,1.08909e-07,9.99999e-01,9.99999e-01,1.08909e-07,9.99999e-01
4.162828176e-01,1.49485e-07,9.99999e-01,9.99999e-01,1.49485e-07,9.99999e-01
4.183642317e-01,2.03900e-07,9.99999e-01,9.99999e-01,2.03900e-07,9.99999e-01
4.204560528e-01,2.76422e-07,9.99999e-01,9.99999e-01,2.76422e-07,9.99999e-01
4.225583331e-01,3.72493e-07,9.99999e-01,9.99999e-01,3.72493e-07,9.99999e-01
4.246711247e-01,4.99005e-07,9.99999e-01,9.99999e-01,4.99005e-07,9.99999e-01
4.267944804e-01,6.64634e-07,9.99999e-01,9.99999e-01,6.64634e-07,9.99999e-01
4.289284528e-01,8.80242e-07,9.99999e-01,9.99999e-01,8.80242e-07,9.99999e-01
4.310730950e-01,1.15934e-06,9.99999e-01,9.99999e-01,1.15934e-06,9.99999e-01
4.332284605e-01,1.51865e-06,9.99999e-01,9.99999e-01,1.51865e-06,9.99999e-01
4.353946028e-01,1.97874e-06,9.99999e-01,9.99999e-01,1.97874e-06,9.99999e-01
4.375715758e-01,2.56477e-06,9.99999e-01,9.99999e-01,2.56477e-06,9.99999e-01
4.397594337e-01,3.30738e-06,9.99999e-01,9.99999e-01,3.30738e-06,9.99999e-01
4.419582309e-01,4.24363e-06,9.99999e-01,9.99999e-01,4.24363e-06,9.99999e-01
4.441680220e-01,5.41817e-06,9.99999e-01,9.99999e-01,5.41817e-06,9.99999e-01
4.463888621e-01,6.88450e-06,9.99999e-01,9.99999e-01,6.88450e-06,9.99999e-01
4.486208064e-01,8.70637e-06,9.99999e-01,9.99999e-01,8.70637e-06,9.99999e-01
4.508639105e-01,1.09594e-05,9.99999e-01,9.99999e-01,1.09594e-05,9.99999e-01
4.531182300e-01,1.37330e-05,9.99999e-01,9.99999e-01,1.37330e-05,9.99999e-01
4.553838212e-01,1.71319e-05,9.99999e-01,9.99999e-01,1.71319e-05,9.99999e-01
4.576607403e-01,2.12789e-05,9.99999e-01,9.99999e-01,2.12789e-05,9.99999e-01
4.599490440e-01,2.63169e-05,9.99999e-01,9.99999e-01,2.63169e-05,9.99999e-01
4.622487892e-01,3.24113e-05,9.99999e-01,9.99999e-01,3.24113e-05,9.99999e-01
4.645600332e-01,3.97531e-05,9.99999e-01,9.99999e-01,3.97531e-05,9.99999e-01
4.668828333e-01,4.85617e-05,9.99999e-01,9.99999e-01,4.85617e-05,9.99999e-01
4.692172475e-01,5.90882e-05,9.99999e-01,9.99999e-01,5.90882e-05,9.99999e-01
4.715633337e-01,7.16183e-05,9.99999e-01,9.99999e-01,7.16183e-05,9.99999e-01
4.739211504e-01,8.64764e-05,9.99999e-01,9.99999e-01,8.64764e-05,9.99999e-01
4.762907561e-01,1.04029e-04,9.99999e-01,9.99999e-01,1.04029e-04,9.99999e-01
4.786722099e-01,1.24688e-04,9.99999e-01,9.99999e-01,1.24688e-04,9.99999e-01
4.810655710e-01,1.48916e-04,9.99999e-01,9.99999e-01,1.48916e-04,9.99999e-01
4.834708988e-01,1.77229e-04,9.99999e-01,9.99999e-01,1.77229e-04,9.99999e-01
4.858882533e-01,2.10202e-04,9.99999e-01,9.99999e-01,2.10202e-04,9.99999e-01
4.883176946e-01,2.48470e-04,9.99999e-01,9.99999e-01,2.48470e-04,9.99999e-01
4.907592831e-01,2.92736e-04,9.99999e-01,9.99999e-01,2.92736e-04,9.99999e-01
4.932130795e-01,3.43773e-04,9.99999e-01,9.99999e-01,3.43773e-04,9.99999e-01
4.956791449e-01,4.02429e-04,9.99999e-01,9.99999e-01,4.02429e-04,9.99999e-01
4.981575406e-01,4.69629e-04,9.99999e-01,9.99999e-01,4.69629e-04,9.99999e-01
5.006483283e-01,5.46381e-04,9.99999e-01,9.99999e-01,5.46381e-04,9.99999e-01
5.031515699e-01,6.33780e-04,9.99999e-01,9.99999e-01,6.33780e-04,9.99999e-01
5.056673278e-01,7.33007e-04,9.99999e-01,9.99999e-01,7.33007e-04,9.99999e-01
5.081956644e-01,8.45337e-04,9.99999e-01,9.99999e-01,8.45337e-04,9.99999e-01
5.107366428e-01,9.72140e-04,9.99999e-01,9.99999e-01,9.72140e-04,9.99999e-01
5.132903260e-01,1.11488e-03,9.99999e-01,9.99999e-01,1.11488e-03,9.99999e-01
5.158567776e-01,1.27513e-03,9.99999e-01,9.99999e-01,1.27513e-03,9.99999e-01
5.184360615e-01,1.45454e-03,9.99999e-01,9.99999e-01,1.45454e-03,9.99999e-01
5.210282418e-01,1.65489e-03,9.99999e-01,9.99999e-01,1.65489e-03,9.99999e-01
5.236333830e-01,1.87804e-03,9.99999e-01,9.99999e-01,1.87804e-03,9.99999e-01
5.262515499e-01,2.12596e-03,9.99999e-01,9.99999e-01,2.12596e-03,9.99999e-01
5.288828077e-01,2.40073e-03,9.99999e-01,9.99999e-01,2.40073e-03,9.99999e-01
5.315272217e-01,2.70451e-03,9.99999e-01,9.99999e-01,2.70451e-03,9.99999e-01
5.341848578e-01,3.03956e-03,9.99999e-01,9.99999e-01,3.03956e-03,9.99999e-01
5.368557821e-01,3.40825e-03,9.99999e-01,9.99999e-01,3.40825e-03,9.99999e-01
5.395400610e-01,3.81303e-03,9.99999e-01,9.99999e-01,3.81303e-03,9.99999e-01
5.422377613e-01,4.25643e-03,9.99999e-01,9.99999e-01,4.25643e-03,9.99999e-01
5.449489501e-01,4.74109e-03,9.99999e-01,9.99999e-01,4.74109e-03,9.99999e-01
5.476736949e-01,5.26969e-03,9.99999e-01,9.99999e-01,5.26969e-03,9.99999e-01
5.504120634e-01,5.84502e-03,9.99999e-01,9.99999e-01,5.84502e-03,9.99999e-01
5.531641237e-01,6.46989e-03,9.99999e-01,9.99999e-01,6.46989e-03,9.99999e-01
5.559299443e-01,7.14722e-03,9.99999e-01,9.99999e-01,7.14722e-03,9.99999e-01
5.587095940e-01,7.87995e-03,9.99999e-01,9.99999e-01,7.87995e-03,9.99999e-01
5.615031420e-01,8.67106e-03,9.99999e-01,9.99999e-01,8.67106e-03,9.99999e-01
5.643106577e-01,9.52359e-03,9.99999e-01,9.99999e-01,9.52359e-03,9.99999e-01
5.671322110e-01,1.04406e-02,9.99999e-01,9.99999e-01,1.04406e-02,9.99999e-01
5.699678720e-01,1.14251e-02,9.99999e-01,9.99999e-01,1.14251e-02,9.99999e-01
5.728177114e-01,1.24802e-02,9.99999e-01,9.99999e-01,1.24802e-02,9.99999e-01
5.756818000e-01,1.36090e-02,9.99999e-01,9.99999e-01,1.36090e-02,9.99999e-01
5.785602090e-01,1.48145e-02,9.99999e-01,9.99999e-01,1.48145e-02,9.99999e-01
5.814530100e-01,1.60998e-02,9.99999e-01,9.99999e-01,1.60998e-02,9.99999e-01
5.843602750e-01,1.74679e-02,9.99999e-01,9.99999e-01,1.74679e-02,9.99999e-01
5.872820764e-01,1.89217e-02,9.99999e-01,9.99999e-01,1.89217e-02,9.99999e-01
5.902184868e-01,2.04642e-02,9.99999e-01,9.99999e-01,2.04642e-02,9.99999e-01
5.931695792e-01,2.20982e-02,9.99999e-01,9.99999e-01,2.20982e-02,9.99999e-01
5.961354271e-01,2.38265e-02,9.99999e-01,9.99999e-01,2.38265e-02,9.99999e-01
5.991161043e-01,2.56518e-02,9.99999e-01,9.99999e-01,2.56518e-02,9.99999e-01
6.021116848e-01,2.75766e-02,9.99999e-01,9.99999e-01,2.75766e-02,9.99999e-01
6.051222432e-01,2.96036e-02,9.99999e-01,9.99999e-01,2.96036e-02,9.99999e-01
6.081478544e-01,3.17350e-02,9.99999e-01,9.99999e-01,3.17350e-02,9.99999e-01
6.111885937e-01,3.39733e-02,9.99999e-01,9.99999e-01,3.39733e-02,9.99999e-01
6.142445367e-01,3.63204e-02,9.99999e-01,9.99999e-01,3.63204e-02,9.99999e-01
6.173157594e-01,3.87785e-02,9.99999e-01,9.99999e-01,3.87785e-02,9.99999e-01
6.204023382e-01,4.13495e-02,9.99999e-01,9.99999e-01,4.13495e-02,9.99999e-01
6.235043498e-01,4.40350e-02,9.99999e-01,9.99999e-01,4.40350e-02,9.99999e-01
6.266218716e-01,4.68367e-02,9.99999e-01,9.99999e-01,4.68367e-02,9.99999e-01
6.297549810e-01,4.97560e-02,9.99999e-01,9.99999e-01,4.97560e-02,9.99999e-01
6.329037559e-01,5.27942e-02,9.99999e-01,9.99999e-01,5.27942e-02,9.99999e-01
6.360682746e-01,5.59524e-02,9.99999e-01,9.99999e-01,5.59524e-02,9.99999e-01
6.392486160e-01,5.92314e-02,9.99999e-01,9.99999e-01,5.92314e-02,9.99999e-01
6.424448591e-01,6.26321e-02,9.99999e-01,9.99999e-01,6.26321e-02,9.99999e-01
6.456570834e-01,6.61551e-02,9.99999e-01,9.99999e-01,6.61551e-02,9.99999e-01
6.488853688e-01,6.98008e-02,9.99999e-01,9.99999e-01,6.98008e-02,9.99999e-01
6.521297956e-01,7.35693e-02,9.99999e-01,9.99999e-01,7.35693e-02,9.99999e-01
6.553904446e-01,7.74609e-02,9.99999e-01,9.99999e-01,7.74609e-02,9.99999e-01
6.586673968e-01,8.14753e-02,9.99999e-01,9.99999e-01,8.14753e-02,9.99999e-01
6.619607338e-01,8.56122e-02,9.99999e-01,9.99999e-01,8.56122e-02,9.99999e-01
6.652705375e-01,8.98712e-02,9.99999e-01,9.99999e-01,8.98712e-02,9.99999e-01
6.685968902e-01,9.42517e-02,9.99999e-01,9.99999e-01,9.42517e-02,9.99999e-01
6.719398746e-01,9.87529e-02,9.99999e-01,9.99999e-01,9.87529e-02,9.99999e-01
6.752995740e-01,1.03374e-01,9.99999e-01,9.99999e-01,1.03374e-01,9.99999e-01
6.786760719e-01,1.08113e-01,9.99999e-01,9.99999e-01,1.08113e-01,9.99999e-01
6.820694522e-01,1.12969e-01,9.99999e-01,9.99999e-01,1.12969e-01,9.99999e-01
6.854797995e-01,1.17942e-01,9.99999e-01,9.99999e-01,1.17942e-01,9.99999e-01
6.889071985e-01,1.23028e-01,9.99999e-01,9.99999e-01,1.23028e-01,9.99999e-01
6.923517345e-01,1.28227e-01,9.99999e-01,9.99999e-01,1.28227e-01,9.99999e-01
6.958134932e-01,1.33536e-01,9.99999e-01,9.99999e-01,1.33536e-01,9.99999e-01
6.992925606e-01,1.38954e-01,9.99999e-01,9.99999e-01,1.38954e-01,9.99999e-01
7.027890234e-01,1.44478e-01,9.99999e-01,9.99999e-01,1.44478e-01,9.99999e-01
7.063029686e-01,1.50105e-01,9.99999e-01,9.99999e-01,1.50105e-01,9.99999e-01
7.098344834e-01,1.55835e-01,9.99999e-01,9.99999e-01,1.55835e-01,9.99999e-01
7.133836558e-01,1.61663e-01,9.99999e-01,9.99999e-01,1.61663e-01,9.99999e-01
7.169505741e-01,1.67588e-01,9.99999e-01,9.99999e-01,1.67588e-01,9.99999e-01
7.205353270e-01,1.73607e-01,9.99999e-01,9.99999e-01,1.73607e-01,9.99999e-01
7.241380036e-01,1.79716e-01,9.99999e-01,9.99999e-01,1.79716e-01,9.99999e-01
7.277586936e-01,1.85913e-01,9.99999e-01,9.99999e-01,1.85913e-01,9.99999e-01
7.313974871e-01,1.92196e-01,9.99999e-01,9.99999e-01,1.92196e-01,9.99999e-01
7.350544745e-01,1.98560e-01,9.99999e-01,9.99999e-01,1.98560e-01,9.99999e-01
7.387297469e-01,2.05003e-01,9.99999e-01,9.99999e-01,2.05003e-01,9.99999e-01
7.424233956e-01,2.11521e-01,9.99999e-01,9.99999e-01,2.11521e-01,9.99999e-01
7.461355126e-01,2.18112e-01,9.99999e-01,9.99999e-01,2.18112e-01,9.99999e-01
7.498661902e-01,2.24772e-01,9.99999e-01,9.99999e-01,2.24772e-01,9.99999e-01
7.536155211e-01,2.31498e-01,9.99999e-01,9.99999e-01,2.31498e-01,9.99999e-01
7.573835987e-01,2.38286e-01,9.99999e-01,9.99999e-01,2.38286e-01,9.99999e-01
7.611705167e-01,2.45134e-01,9.99999e-01,9.99999e-01,2.45134e-01,9.99999e-01
7.649763693e-01,2.52037e-01,9.99999e-01,9.99999e-01,2.52037e-01,9.99999e-01
7.688012511e-01,2.58992e-01,9.99999e-01,9.99999e-01,2.58992e-01,9.99999e-01
7.726452574e-01,2.65996e-01,9.99999e-01,9.99999e-01,2.65996e-01,9.99999e-01
7.765084837e-01,2.73046e-01,9.99999e-01,9.99999e-01,2.73046e-01,9.99999e-01
7.803910261e-01,2.64722e-01,9.99999e-01,9.44971e-01,2.80138e-01,9.99999e-01
7.842929812e-01,2.21862e-01,9.99999e-01,7.72316e-01,2.87268e-01,9.99999e-01
7.882144461e-01,2.23517e-01,9.99999e-01,7.59140e-01,2.94434e-01,9.99999e-01
7.921555184e-01,2.55992e-01,9.99999e-01,8.48693e-01,3.01631e-01,9.99999e-01
7.961162960e-01,2.76649e-01,9.99999e-01,8.95718e-01,3.08857e-01,9.99999e-01
8.000968774e-01,2.97776e-01,9.99999e-01,9.42003e-01,3.16109e-01,9.99999e-01
8.040973618e-01,3.13529e-01,9.99999e-01,9.69532e-01,3.23382e-01,9.99999e-01
8.081178486e-01,3.26006e-01,9.99999e-01,9.85882e-01,3.30674e-01,9.99999e-01
8.121584379e-01,3.36504e-01,9.99999e-01,9.95627e-01,3.37982e-01,9.99999e-01
8.162192301e-01,3.44968e-01,9.99999e-01,9.99032e-01,3.45302e-01,9.99999e-01
8.203003262e-01,3.52626e-01,9.99999e-01,9.99985e-01,3.52631e-01,9.99999e-01
8.244018279e-01,3.59966e-01,9.99999e-01,9.99999e-01,3.59966e-01,9.99999e-01
8.285238370e-01,3.67305e-01,9.99999e-01,9.99999e-01,3.67305e-01,9.99999e-01
8.326664562e-01,3.74644e-01,9.99999e-01,9.99999e-01,3.74644e-01,9.99999e-01
8.368297885e-01,3.81980e-01,9.99999e-01,9.99999e-01,3.81980e-01,9.99999e-01
8.410139374e-01,3.89311e-01,9.99999e-01,9.99999e-01,3.89311e-01,9.99999e-01
8.452190071e-01,3.96633e-01,9.99999e-01,9.99999e-01,3.96633e-01,9.99999e-01
8.494451021e-01,4.03945e-01,9.99999e-01,9.99999e-01,4.03945e-01,9.99999e-01
8.536923276e-01,4.11242e-01,9.99999e-01,9.99999e-01,4.11242e-01,9.99999e-01
8.579607893e-01,4.18524e-01,9.99999e-01,9.99999e-01,4.18524e-01,9.99999e-01
8.622505932e-01,4.25787e-01,9.99999e-01,9.99999e-01,4.25787e-01,9.99999e-01
8.665618462e-01,3.89035e-01,9.99999e-01,8.98404e-01,4.33029e-01,9.99999e-01
8.708946554e-01,2.30455e-01,9.99999e-01,5.23467e-01,4.40247e-01,9.99999e-01
8.752491287e-01,2.63798e-01,9.99999e-01,5.89573e-01,4.47440e-01,9.99999e-01
8.796253743e-01,3.38968e-01,9.99999e-01,7.45633e-01,4.54604e-01,9.99999e-01
8.840235012e-01,3.96125e-01,9.99999e-01,8.57899e-01,4.61738e-01,9.99999e-01
8.884436187e-01,4.41317e-01,9.99999e-01,9.41294e-01,4.68840e-01,9.99999e-01
8.928858368e-01,4.64374e-01,9.99999e-01,9.75764e-01,4.75908e-01,9.99999e-01
8.973502660e-01,4.80075e-01,9.99999e-01,9.94067e-01,4.82939e-01,9.99999e-01
9.018370173e-01,4.89612e-01,9.99999e-01,9.99344e-01,4.89933e-01,9.99999e-01
9.063462024e-01,4.88594e-01,9.99999e-01,9.83310e-01,4.96886e-01,9.99999e-01
9.108779334e-01,4.84673e-01,9.99999e-01,9.62036e-01,5.03798e-01,9.99999e-01
9.154323231e-01,5.06058e-01,9.99999e-01,9.90974e-01,5.10667e-01,9.99999e-01
9.200094847e-01,4.56153e-01,9.99999e-01,8.81469e-01,5.17491e-01,9.99999e-01
9.246095321e-01,4.33961e-01,9.99999e-01,8.27744e-01,5.24269e-01,9.99999e-01
9.292325798e-01,4.58219e-01,9.99999e-01,8.62937e-01,5.30999e-01,9.99999e-01
9.338787427e-01,4.66084e-01,9.99999e-01,8.66843e-01,5.37680e-01,9.99999e-01
9.385481364e-01,4.89893e-01,9.99999e-01,9.00025e-01,5.44310e-01,9.99999e-01
9.432408771e-01,5.16441e-01,9.99999e-01,9.37468e-01,5.50889e-01,9.99999e-01
9.479570815e-01,5.39240e-01,9.99999e-01,9.67393e-01,5.57415e-01,9.99999e-01
9.526968669e-01,5.54954e-01,9.99999e-01,9.84157e-01,5.63887e-01,9.99999e-01
9.574603512e-01,5.66423e-01,9.99999e-01,9.93194e-01,5.70305e-01,9.99999e-01
9.622476530e-01,5.75440e-01,9.99999e-01,9.97872e-01,5.76666e-01,9.99999e-01
9.670588912e-01,5.82599e-01,9.99999e-01,9.99362e-01,5.82971e-01,9.99999e-01
9.718941857e-01,5.89191e-01,9.99999e-01,9.99954e-01,5.89218e-01,9.99999e-01
9.767536566e-01,5.95406e-01,9.99999e-01,9.99999e-01,5.95406e-01,9.99999e-01
9.816374249e-01,6.01536e-01,9.99999e-01,9.99999e-01,6.01536e-01,9.99999e-01
9.865456120e-01,6.07605e-01,9.99999e-01,9.99999e-01,6.07605e-01,9.99999e-01
9.914783401e-01,6.13614e-01,9.99999e-01,9.99999e-01,6.13614e-01,9.99999e-01
9.964357318e-01,6.19562e-01,9.99999e-01,9.99999e-01,6.19562e-01,9.99999e-01
1.001417910e+00,6.25449e-01,9.99999e-01,9.99999e-01,6.25449e-01,9.99999e-01
1.006425000e+00,6.31273e-01,9.99999e-01,9.99999e-01,6.31273e-01,9.99999e-01
1.011457125e+00,6.37036e-01,9.99999e-01,9.99999e-01,6.37036e-01,9.99999e-01
1.016514411e+00,6.42735e-01,9.99999e-01,9.99999e-01,6.42735e-01,9.99999e-01
1.021596983e+00,6.48312e-01,9.99999e-01,9.99908e-01,6.48371e-01,9.99999e-01
1.026704968e+00,6.49647e-01,9.99999e-01,9.93428e-01,6.53944e-01,9.99999e-01
1.031838492e+00,6.16362e-01,9.99999e-01,9.34655e-01,6.59454e-01,9.99999e-01
1.036997685e+00,6.05177e-02,9.99999e-01,9.10178e-02,6.64899e-01,9.99999e-01
1.042182673e+00,2.03311e-02,9.99999e-01,3.03321e-02,6.70281e-01,9.99999e-01
1.047393587e+00,3.40250e-02,9.99999e-01,5.03627e-02,6.75598e-01,9.99999e-01
1.052630555e+00,1.15496e-04,9.99999e-01,1.69635e-04,6.80852e-01,9.99999e-01
1.057893707e+00,3.84307e-04,9.99999e-01,5.60180e-04,6.86041e-01,9.99999e-01
1.063183176e+00,2.61596e-03,9.99999e-01,3.78484e-03,6.91167e-01,9.99999e-01
1.068499092e+00,1.24238e-02,9.99999e-01,1.78445e-02,6.96228e-01,9.99999e-01
1.073841587e+00,5.42128e-02,9.99999e-01,7.73115e-02,7.01225e-01,9.99999e-01
1.079210795e+00,1.39815e-01,9.99999e-01,1.97993e-01,7.06158e-01,9.99999e-01
1.084606849e+00,2.88480e-01,9.99999e-01,4.05722e-01,7.11028e-01,9.99999e-01
1.090029883e+00,4.47327e-01,9.99999e-01,6.24902e-01,7.15834e-01,9.99999e-01
1.095480033e+00,5.71414e-01,9.99999e-01,7.92995e-01,7.20577e-01,9.99999e-01
1.100957433e+00,6.48433e-01,9.99999e-01,8.94074e-01,7.25256e-01,9.99999e-01
1.106462220e+00,6.96840e-01,9.99999e-01,9.54741e-01,7.29872e-01,9.99999e-01
1.111994531e+00,7.21922e-01,9.99999e-01,9.82973e-01,7.34426e-01,9.99999e-01
1.117554504e+00,7.35830e-01,9.99999e-01,9.95821e-01,7.38918e-01,9.99999e-01
1.123142276e+00,7.43143e-01,9.99999e-01,9.99725e-01,7.43347e-01,9.99999e-01
1.128757988e+00,7.47714e-01,9.99999e-01,9.99999e-01,7.47714e-01,9.99999e-01
1.134401778e+00,7.52021e-01,9.99999e-01,9.99999e-01,7.52021e-01,9.99999e-01
1.140073787e+00,7.56266e-01,9.99999e-01,9.99999e-01,7.56266e-01,9.99999e-01
1.145774156e+00,7.60451e-01,9.99999e-01,9.99999e-01,7.60451e-01,9.99999e-01
1.151503026e+00,7.64575e-01,9.99999e-01,9.99999e-01,7.64575e-01,9.99999e-01
1.157260541e+00,7.68640e-01,9.99999e-01,9.99999e-01,7.68640e-01,9.99999e-01
1.163046844e+00,7.72645e-01,9.99999e-01,9.99999e-01,7.72645e-01,9.99999e-01
1.168862078e+00,7.76592e-01,9.99999e-01,9.99999e-01,7.76592e-01,9.99999e-01
1.174706389e+00,7.80480e-01,9.99999e-01,9.99999e-01,7.80480e-01,9.99999e-01
1.180579921e+00,7.84310e-01,9.99999e-01,9.99999e-01,7.84310e-01,9.99999e-01
1.186482820e+00,7.88073e-01,9.99999e-01,9.99987e-01,7.88083e-01,9.99999e-01
1.192415234e+00,7.73585e-01,9.99999e-01,9.76995e-01,7.91799e-01,9.99999e-01
1.198377311e+00,4.33025e-01,9.99999e-01,5.44371e-01,7.95459e-01,9.99999e-01
1.204369197e+00,5.81496e-18,9.99999e-01,7.27722e-18,7.99062e-01,9.99999e-01
1.210391043e+00,9.41925e-70,9.99999e-01,1.17358e-69,8.02611e-01,9.99999e-01
1.216442998e+00,1.71880e-60,9.99999e-01,2.13222e-60,8.06104e-01,9.99999e-01
1.222525213e+00,1.34426e-59,9.99999e-01,1.66052e-59,8.09543e-01,9.99999e-01
1.228637839e+00,4.09455e-46,9.99999e-01,5.03679e-46,8.12929e-01,9.99999e-01
1.234781029e+00,4.13880e-29,9.99999e-01,5.07043e-29,8.16261e-01,9.99999e-01
1.240954934e+00,1.73242e-19,9.99999e-01,2.11388e-19,8.19541e-01,9.99999e-01
1.247159708e+00,5.74975e-10,9.99999e-01,6.98829e-10,8.22769e-01,9.99999e-01
1.253395507e+00,1.16552e-06,9.99999e-01,1.41113e-06,8.25946e-01,9.99999e-01
1.259662485e+00,3.68513e-04,9.99999e-01,4.44489e-04,8.29071e-01,9.99999e-01
1.265960797e+00,1.03485e-02,9.99999e-01,1.24359e-02,8.32147e-01,9.99999e-01
1.272290601e+00,1.19959e-01,9.99999e-01,1.43634e-01,8.35172e-01,9.99999e-01
1.278652054e+00,1.02692e-01,9.99999e-01,1.22523e-01,8.38149e-01,9.99999e-01
1.285045314e+00,6.63071e-04,9.99999e-01,7.88358e-04,8.41077e-01,9.99999e-01
1.291470541e+00,1.01111e-08,9.99999e-01,1.19806e-08,8.43957e-01,9.99999e-01
1.297927893e+00,2.74331e-04,9.99999e-01,3.23965e-04,8.46790e-01,9.99999e-01
1.304417533e+00,2.43394e-02,9.99999e-01,2.86488e-02,8.49576e-01,9.99999e-01
1.310939621e+00,5.68515e-03,9.99999e-01,6.67022e-03,8.52316e-01,9.99999e-01
1.317494319e+00,3.13006e-24,9.99999e-01,3.66084e-24,8.55011e-01,9.99999e-01
1.324081790e+00,3.08939e-16,9.99999e-01,3.60211e-16,8.57660e-01,9.99999e-01
1.330702199e+00,1.23474e-09,9.99999e-01,1.43530e-09,8.60266e-01,9.99999e-01
1.337355710e+00,4.44645e-09,9.99999e-01,5.15334e-09,8.62827e-01,9.99999e-01
1.344042489e+00,1.71849e-09,9.99999e-01,1.98590e-09,8.65345e-01,9.99999e-01
1.350762701e+00,6.83461e-10,9.99999e-01,7.87559e-10,8.67821e-01,9.99999e-01
1.357516515e+00,2.07706e-06,9.99999e-01,2.38672e-06,8.70254e-01,9.99999e-01
1.364304097e+00,1.25087e-04,9.99999e-01,1.43342e-04,8.72646e-01,9.99999e-01
1.371125618e+00,9.24155e-03,9.99999e-01,1.05618e-02,8.74998e-01,9.99999e-01
1.377981246e+00,1.88181e-02,9.99999e-01,2.14498e-02,8.77309e-01,9.99999e-01
1.384871152e+00,9.39803e-02,9.99999e-01,1.06847e-01,8.79580e-01,9.99999e-01
1.391795508e+00,1.11741e-01,9.99999e-01,1.26717e-01,8.81812e-01,9.99999e-01
1.398754485e+00,2.44560e-01,9.99999e-01,2.76649e-01,8.84005e-01,9.99999e-01
1.405748258e+00,3.45589e-01,9.99999e-01,3.89985e-01,8.86161e-01,9.99999e-01
1.412776999e+00,4.89068e-01,9.99999e-01,5.50579e-01,8.88279e-01,9.99999e-01
1.419840884e+00,4.39621e-01,9.99999e-01,4.93756e-01,8.90360e-01,9.99999e-01
1.426940089e+00,2.59735e-02,9.99999e-01,2.91051e-02,8.92405e-01,9.99999e-01
1.434074789e+00,0.00000e+00,9.99999e-01,0.00000e+00,8.94413e-01,9.99999e-01
1.441245163e+00,0.00000e+00,9.99999e-01,0.00000e+00,8.96387e-01,9.99999e-01
1.448451389e+00,0.00000e+00,9.99999e-01,0.00000e+00,8.98326e-01,9.99999e-01
1.455693646e+00,0.00000e+00,9.99999e-01,0.00000e+00,9.00230e-01,9.99999e-01
1.462972114e+00,3.26163e-276,9.99999e-01,3.61559e-276,9.02101e-01,9.99999e-01
1.470286975e+00,5.58971e-115,9.99999e-01,6.18372e-115,9.03939e-01,9.99999e-01
