#,Wave/freq,Total,N2,CO2,Rayleigh,CIA
4.000000000e-01,1.14305e-04,9.99999e-01,9.99999e-01,1.14305e-04,9.99999e-01
4.020000000e-01,1.36775e-04,9.99999e-01,9.99999e-01,1.36775e-04,9.99999e-01
4.040100000e-01,1.63054e-04,9.99999e-01,9.99999e-01,1.63054e-04,9.99999e-01
4.060300500e-01,1.93708e-04,9.99999e-01,9.99999e-01,1.93708e-04,9.99999e-01
4.080602003e-01,2.29343e-04,9.99999e-01,9.99999e-01,2.29343e-04,9.99999e-01
4.101005013e-01,2.70629e-04,9.99999e-01,9.99999e-01,2.70629e-04,9.99999e-01
4.121510038e-01,3.18306e-04,9.99999e-01,9.99999e-01,3.18306e-04,9.99999e-01
4.142117588e-01,3.73183e-04,9.99999e-01,9.99999e-01,3.73183e-04,9.99999e-01
4.162828176e-01,4.36149e-04,9.99999e-01,9.99999e-01,4.36149e-04,9.99999e-01
4.183642317e-01,5.08172e-04,9.99999e-01,9.99999e-01,5.08172e-04,9.99999e-01
4.204560528e-01,5.90303e-04,9.99999e-01,9.99999e-01,5.90303e-04,9.99999e-01
4.225583331e-01,6.83682e-04,9.99999e-01,9.99999e-01,6.83682e-04,9.99999e-01
4.246711247e-01,7.89539e-04,9.99999e-01,9.99999e-01,7.89539e-04,9.99999e-01
4.267944804e-01,9.09197e-04,9.99999e-01,9.99999e-01,9.09197e-04,9.99999e-01
4.289284528e-01,1.04408e-03,9.99999e-01,9.99999e-01,1.04408e-03,9.99999e-01
4.310730950e-01,1.19569e-03,9.99999e-01,9.99999e-01,1.19569e-03,9.99999e-01
4.332284605e-01,1.36566e-03,9.99999e-01,9.99999e-01,1.36566e-03,9.99999e-01
4.353946028e-01,1.55571e-03,9.99999e-01,9.99999e-01,1.55571e-03,9.99999e-01
4.375715758e-01,1.76764e-03,9.99999e-01,9.99999e-01,1.76764e-03,9.99999e-01
4.397594337e-01,2.00339e-03,9.99999e-01,9.99999e-01,2.00339e-03,9.99999e-01
4.419582309e-01,2.26497e-03,9.99999e-01,9.99999e-01,2.26497e-03,9.99999e-01
4.441680220e-01,2.55450e-03,9.99999e-01,9.99999e-01,2.55450e-03,9.99999e-01
4.463888621e-01,2.87421e-03,9.99999e-01,9.99999e-01,2.87421e-03,9.99999e-01
4.486208064e-01,3.22640e-03,9.99999e-01,9.99999e-01,3.22640e-03,9.99999e-01
4.508639105e-01,3.61350e-03,9.99999e-01,9.99999e-01,3.61350e-03,9.99999e-01
4.531182300e-01,4.03798e-03,9.99999e-01,9.99999e-01,4.03798e-03,9.99999e-01
4.553838212e-01,4.50245e-03,9.99999e-01,9.99999e-01,4.50245e-03,9.99999e-01
4.576607403e-01,5.00955e-03,9.99999e-01,9.99999e-01,5.00955e-03,9.99999e-01
4.599490440e-01,5.56203e-03,9.99999e-01,9.99999e-01,5.56203e-03,9.99999e-01
4.622487892e-01,6.16270e-03,9.99999e-01,9.99999e-01,6.16270e-03,9.99999e-01
4.645600332e-01,6.81441e-03,9.99999e-01,9.99999e-01,6.81441e-03,9.99999e-01
4.668828333e-01,7.52010e-03,9.99999e-01,9.99999e-01,7.52010e-03,9.99999e-01
4.692172475e-01,8.28273e-03,9.99999e-01,9.99999e-01,8.28273e-03,9.99999e-01
4.715633337e-01,9.10531e-03,9.99999e-01,9.99999e-01,9.10531e-03,9.99999e-01
4.739211504e-01,9.99087e-03,9.99999e-01,9.99999e-01,9.99087e-03,9.99999e-01
4.762907561e-01,1.09425e-02,9.99999e-01,9.99999e-01,1.09425e-02,9.99999e-01
4.786722099e-01,1.19632e-02,9.99999e-01,9.99999e-01,1.19632e-02,9.99999e-01
4.810655710e-01,1.30562e-02,9.99999e-01,9.99999e-01,1.30562e-02,9.99999e-01
4.834708988e-01,1.42244e-02,9.99999e-01,9.99999e-01,1.42244e-02,9.99999e-01
4.858882533e-01,1.54709e-02,9.99999e-01,9.99999e-01,1.54709e-02,9.99999e-01
4.883176946e-01,1.67987e-02,9.99999e-01,9.99999e-01,1.67987e-02,9.99999e-01
4.907592831e-01,1.82109e-02,9.99999e-01,9.99999e-01,1.82109e-02,9.99999e-01
4.932130795e-01,1.97104e-02,9.99999e-01,9.99999e-01,1.97104e-02,9.99999e-01
4.956791449e-01,2.13000e-02,9.99999e-01,9.99999e-01,2.13000e-02,9.99999e-01
4.981575406e-01,2.29825e-02,9.99999e-01,9.99999e-01,2.29825e-02,9.99999e-01
5.006483283e-01,2.47608e-02,9.99999e-01,9.99999e-01,2.47608e-02,9.99999e-01
5.031515699e-01,2.66373e-02,9.99999e-01,9.99999e-01,2.66373e-02,9.99999e-01
5.056673278e-01,2.86148e-02,9.99999e-01,9.99999e-01,2.86148e-02,9.99999e-01
5.081956644e-01,3.06957e-02,9.99999e-01,9.99999e-01,3.06957e-02,9.99999e-01
5.107366428e-01,3.28823e-02,9.99999e-01,9.99999e-01,3.28823e-02,9.99999e-01
5.132903260e-01,3.51767e-02,9.99999e-01,9.99999e-01,3.51767e-02,9.99999e-01
5.158567776e-01,3.75812e-02,9.99999e-01,9.99999e-01,3.75812e-02,9.99999e-01
5.184360615e-01,4.00976e-02,9.99999e-01,9.99999e-01,4.00976e-02,9.99999e-01
5.210282418e-01,4.27277e-02,9.99999e-01,9.99999e-01,4.27277e-02,9.99999e-01
5.236333830e-01,4.54733e-02,9.99999e-01,9.99999e-01,4.54733e-02,9.99999e-01
5.262515499e-01,4.83359e-02,9.99999e-01,9.99999e-01,4.83359e-02,9.99999e-01
5.288828077e-01,5.13167e-02,9.99999e-01,9.99999e-01,5.13167e-02,9.99999e-01
5.315272217e-01,5.44169e-02,9.99999e-01,9.99999e-01,5.44169e-02,9.99999e-01
5.341848578e-01,5.76377e-02,9.99999e-01,9.99999e-01,5.76377e-02,9.99999e-01
5.368557821e-01,6.09797e-02,9.99999e-01,9.99999e-01,6.09797e-02,9.99999e-01
5.395400610e-01,6.44438e-02,9.99999e-01,9.99999e-01,6.44438e-02,9.99999e-01
5.422377613e-01,6.80303e-02,9.99999e-01,9.99999e-01,6.80303e-02,9.99999e-01
5.449489501e-01,7.17397e-02,9.99999e-01,9.99999e-01,7.17397e-02,9.99999e-01
5.476736949e-01,7.55721e-02,9.99999e-01,9.99999e-01,7.55721e-02,9.99999e-01
5.504120634e-01,7.95273e-02,9.99999e-01,9.99999e-01,7.95273e-02,9.99999e-01
5.531641237e-01,8.36053e-02,9.99999e-01,9.99999e-01,8.36053e-02,9.99999e-01
5.559299443e-01,8.78057e-02,9.99999e-01,9.99999e-01,8.78057e-02,9.99999e-01
5.587095940e-01,9.21278e-02,9.99999e-01,9.99999e-01,9.21278e-02,9.99999e-01
5.615031420e-01,9.65709e-02,9.99999e-01,9.99999e-01,9.65709e-02,9.99999e-01
5.643106577e-01,1.01134e-01,9.99999e-01,9.99999e-01,1.01134e-01,9.99999e-01
5.671322110e-01,1.05817e-01,9.99999e-01,9.99999e-01,1.05817e-01,9.99999e-01
5.699678720e-01,1.10617e-01,9.99999e-01,9.99999e-01,1.10617e-01,9.99999e-01
5.728177114e-01,1.15534e-01,9.99999e-01,9.99999e-01,1.15534e-01,9.99999e-01
5.756818000e-01,1.20565e-01,9.99999e-01,9.99999e-01,1.20565e-01,9.99999e-01
5.785602090e-01,1.25710e-01,9.99999e-01,9.99999e-01,1.25710e-01,9.99999e-01
5.814530100e-01,1.30966e-01,9.99999e-01,9.99999e-01,1.30966e-01,9.99999e-01
5.843602750e-01,1.36332e-01,9.99999e-01,9.99999e-01,1.36332e-01,9.99999e-01
5.872820764e-01,1.41805e-01,9.99999e-01,9.99999e-01,1.41805e-01,9.99999e-01
5.902184868e-01,1.47383e-01,9.99999e-01,9.99999e-01,1.47383e-01,9.99999e-01
5.931695792e-01,1.53064e-01,9.99999e-01,9.99999e-01,1.53064e-01,9.99999e-01
5.961354271e-01,1.58845e-01,9.99999e-01,9.99999e-01,1.58845e-01,9.99999e-01
5.991161043e-01,1.64724e-01,9.99999e-01,9.99999e-01,1.64724e-01,9.99999e-01
6.021116848e-01,1.70698e-01,9.99999e-01,9.99999e-01,1.70698e-01,9.99999e-01
6.051222432e-01,1.76764e-01,9.99999e-01,9.99999e-01,1.76764e-01,9.99999e-01
6.081478544e-01,1.82919e-01,9.99999e-01,9.99999e-01,1.82919e-01,9.99999e-01
6.111885937e-01,1.89161e-01,9.99999e-01,9.99999e-01,1.89161e-01,9.99999e-01
6.142445367e-01,1.95486e-01,9.99999e-01,9.99999e-01,1.95486e-01,9.99999e-01
6.173157594e-01,2.01891e-01,9.99999e-01,9.99999e-01,2.01891e-01,9.99999e-01
6.204023382e-01,2.08374e-01,9.99999e-01,9.99999e-01,2.08374e-01,9.99999e-01
6.235043498e-01,2.14930e-01,9.99999e-01,9.99999e-01,2.14930e-01,9.99999e-01
6.266218716e-01,2.21558e-01,9.99999e-01,9.99999e-01,2.21558e-01,9.99999e-01
6.297549810e-01,2.28252e-01,9.99999e-01,9.99999e-01,2.28252e-01,9.99999e-01
6.329037559e-01,2.35011e-01,9.99999e-01,9.99999e-01,2.35011e-01,9.99999e-01
6.360682746e-01,2.41830e-01,9.99999e-01,9.99999e-01,2.41830e-01,9.99999e-01
6.392486160e-01,2.48707e-01,9.99999e-01,9.99999e-01,2.48707e-01,9.99999e-01
6.424448591e-01,2.55637e-01,9.99999e-01,9.99999e-01,2.55637e-01,9.99999e-01
6.456570834e-01,2.62618e-01,9.99999e-01,9.99999e-01,2.62618e-01,9.99999e-01
6.488853688e-01,2.69647e-01,9.99999e-01,9.99999e-01,2.69647e-01,9.99999e-01
6.521297956e-01,2.76718e-01,9.99999e-01,9.99999e-01,2.76718e-01,9.99999e-01
6.553904446e-01,2.83831e-01,9.99999e-01,9.99999e-01,2.83831e-01,9.99999e-01
6.586673968e-01,2.90980e-01,9.99999e-01,9.99999e-01,2.90980e-01,9.99999e-01
6.619607338e-01,2.98162e-01,9.99999e-01,9.99999e-01,2.98162e-01,9.99999e-01
6.652705375e-01,3.05375e-01,9.99999e-01,9.99999e-01,3.05375e-01,9.99999e-01
6.685968902e-01,3.12615e-01,9.99999e-01,9.99999e-01,3.12615e-01,9.99999e-01
6.719398746e-01,3.19878e-01,9.99999e-01,9.99999e-01,3.19878e-01,9.99999e-01
6.752995740e-01,3.27161e-01,9.99999e-01,9.99999e-01,3.27161e-01,9.99999e-01
6.786760719e-01,3.34462e-01,9.99999e-01,9.99999e-01,3.34462e-01,9.99999e-01
6.820694522e-01,3.41776e-01,9.99999e-01,9.99999e-01,3.41776e-01,9.99999e-01
6.854797995e-01,3.49101e-01,9.99999e-01,9.99999e-01,3.49101e-01,9.99999e-01
6.889071985e-01,3.56434e-01,9.99999e-01,9.99999e-01,3.56434e-01,9.99999e-01
6.923517345e-01,3.63772e-01,9.99999e-01,9.99999e-01,3.63772e-01,9.99999e-01
6.958134932e-01,3.71111e-01,9.99999e-01,9.99999e-01,3.71111e-01,9.99999e-01
6.992925606e-01,3.78449e-01,9.99999e-01,9.99999e-01,3.78449e-01,9.99999e-01
7.027890234e-01,3.85782e-01,9.99999e-01,9.99999e-01,3.85782e-01,9.99999e-01
7.063029686e-01,3.93109e-01,9.99999e-01,9.99999e-01,3.93109e-01,9.99999e-01
7.098344834e-01,4.00426e-01,9.99999e-01,9.99999e-01,4.00426e-01,9.99999e-01
7.133836558e-01,4.07731e-01,9.99999e-01,9.99999e-01,4.07731e-01,9.99999e-01
7.169505741e-01,4.15021e-01,9.99999e-01,9.99999e-01,4.15021e-01,9.99999e-01
7.205353270e-01,4.22293e-01,9.99999e-01,9.99999e-01,4.22293e-01,9.99999e-01
7.241380036e-01,4.29545e-01,9.99999e-01,9.99999e-01,4.29545e-01,9.99999e-01
7.277586936e-01,4.36775e-01,9.99999e-01,9.99999e-01,4.36775e-01,9.99999e-01
7.313974871e-01,4.43980e-01,9.99999e-01,9.99999e-01,4.43980e-01,9.99999e-01
7.350544745e-01,4.51158e-01,9.99999e-01,9.99999e-01,4.51158e-01,9.99999e-01
7.387297469e-01,4.58308e-01,9.99999e-01,9.99999e-01,4.58308e-01,9.99999e-01
7.424233956e-01,4.65425e-01,9.99999e-01,9.99999e-01,4.65425e-01,9.99999e-01
7.461355126e-01,4.72510e-01,9.99999e-01,9.99999e-01,4.72510e-01,9.99999e-01
7.498661902e-01,4.79559e-01,9.99999e-01,9.99999e-01,4.79559e-01,9.99999e-01
7.536155211e-01,4.86571e-01,9.99999e-01,9.99999e-01,4.86571e-01,9.99999e-01
7.573835987e-01,4.93544e-01,9.99999e-01,9.99999e-01,4.93544e-01,9.99999e-01
7.611705167e-01,5.00476e-01,9.99999e-01,9.99999e-01,5.00476e-01,9.99999e-01
7.649763693e-01,5.07366e-01,9.99999e-01,9.99999e-01,5.07366e-01,9.99999e-01
7.688012511e-01,5.14212e-01,9.99999e-01,9.99999e-01,5.14212e-01,9.99999e-01
7.726452574e-01,5.21012e-01,9.99999e-01,9.99999e-01,5.21012e-01,9.99999e-01
7.765084837e-01,5.27765e-01,9.99999e-01,9.99999e-01,5.27765e-01,9.99999e-01
7.803910261e-01,5.19029e-01,9.99999e-01,9.71109e-01,5.34469e-01,9.99999e-01
7.842929812e-01,4.74664e-01,9.99999e-01,8.77181e-01,5.41124e-01,9.99999e-01
7.882144461e-01,4.76157e-01,9.99999e-01,8.69330e-01,5.47728e-01,9.99999e-01
7.921555184e-01,5.11003e-01,9.99999e-01,9.21922e-01,5.54280e-01,9.99999e-01
7.961162960e-01,5.30998e-01,9.99999e-01,9.46894e-01,5.60778e-01,9.99999e-01
8.000968774e-01,5.50709e-01,9.99999e-01,9.70887e-01,5.67222e-01,9.99999e-01
8.040973618e-01,5.64885e-01,9.99999e-01,9.84787e-01,5.73610e-01,9.99999e-01
8.081178486e-01,5.75885e-01,9.99999e-01,9.93003e-01,5.79943e-01,9.99999e-01
8.121584379e-01,5.84943e-01,9.99999e-01,9.97825e-01,5.86217e-01,9.99999e-01
8.162192301e-01,5.92150e-01,9.99999e-01,9.99519e-01,5.92434e-01,9.99999e-01
8.203003262e-01,5.98588e-01,9.99999e-01,9.99991e-01,5.98592e-01,9.99999e-01
8.244018279e-01,6.04691e-01,9.99999e-01,9.99999e-01,6.04691e-01,9.99999e-01
8.285238370e-01,6.10729e-01,9.99999e-01,9.99999e-01,6.10729e-01,9.99999e-01
8.326664562e-01,6.16706e-01,9.99999e-01,9.99999e-01,6.16706e-01,9.99999e-01
8.368297885e-01,6.22623e-01,9.99999e-01,9.99999e-01,6.22623e-01,9.99999e-01
8.410139374e-01,6.28477e-01,9.99999e-01,9.99999e-01,6.28477e-01,9.99999e-01
8.452190071e-01,6.34269e-01,9.99999e-01,9.99999e-01,6.34269e-01,9.99999e-01
8.494451021e-01,6.39999e-01,9.99999e-01,9.99999e-01,6.39999e-01,9.99999e-01
8.536923276e-01,6.45666e-01,9.99999e-01,9.99999e-01,6.45666e-01,9.99999e-01
8.579607893e-01,6.51269e-01,9.99999e-01,9.99999e-01,6.51269e-01,9.99999e-01
8.622505932e-01,6.56809e-01,9.99999e-01,9.99999e-01,6.56809e-01,9.99999e-01
8.665618462e-01,6.17969e-01,9.99999e-01,9.33085e-01,6.62286e-01,9.99999e-01
8.708946554e-01,4.78432e-01,9.99999e-01,7.16539e-01,6.67698e-01,9.99999e-01
8.752491287e-01,5.14741e-01,9.99999e-01,7.64792e-01,6.73046e-01,9.99999e-01
8.796253743e-01,5.85616e-01,9.99999e-01,8.63319e-01,6.78331e-01,9.99999e-01
8.840235012e-01,6.33477e-01,9.99999e-01,9.26742e-01,6.83551e-01,9.99999e-01
8.884436187e-01,6.68343e-01,9.99999e-01,9.70430e-01,6.88707e-01,9.99999e-01
8.928858368e-01,6.85429e-01,9.99999e-01,9.87935e-01,6.93799e-01,9.99999e-01
8.973502660e-01,6.96765e-01,9.99999e-01,9.97048e-01,6.98827e-01,9.99999e-01
9.018370173e-01,7.03562e-01,9.99999e-01,9.99673e-01,7.03791e-01,9.99999e-01
9.063462024e-01,7.02865e-01,9.99999e-01,9.91778e-01,7.08692e-01,9.99999e-01
9.108779334e-01,6.99999e-01,9.99999e-01,9.81038e-01,7.13528e-01,9.99999e-01
9.154323231e-01,7.15069e-01,9.99999e-01,9.95499e-01,7.18301e-01,9.99999e-01
9.200094847e-01,6.77215e-01,9.99999e-01,9.36658e-01,7.23011e-01,9.99999e-01
9.246095321e-01,6.62569e-01,9.99999e-01,9.10550e-01,7.27658e-01,9.99999e-01
9.292325798e-01,6.80575e-01,9.99999e-01,9.29440e-01,7.32242e-01,9.99999e-01
9.338787427e-01,6.86263e-01,9.99999e-01,9.31456e-01,7.36763e-01,9.99999e-01
9.385481364e-01,7.03573e-01,9.99999e-01,9.49206e-01,7.41222e-01,9.99999e-01
9.432408771e-01,7.22180e-01,9.99999e-01,9.68563e-01,7.45620e-01,9.99999e-01
9.479570815e-01,7.37784e-01,9.99999e-01,9.83770e-01,7.49955e-01,9.99999e-01
9.526968669e-01,7.48299e-01,9.99999e-01,9.92135e-01,7.54230e-01,9.99999e-01
9.574603512e-01,7.55888e-01,9.99999e-01,9.96629e-01,7.58444e-01,9.99999e-01
9.622476530e-01,7.61794e-01,9.99999e-01,9.98947e-01,7.62597e-01,9.99999e-01
9.670588912e-01,7.66449e-01,9.99999e-01,9.99683e-01,7.66690e-01,9.99999e-01
9.718941857e-01,7.70707e-01,9.99999e-01,9.99977e-01,7.70724e-01,9.99999e-01
9.767536566e-01,7.74699e-01,9.99999e-01,9.99999e-01,7.74699e-01,9.99999e-01
9.816374249e-01,7.78615e-01,9.99999e-01,9.99999e-01,7.78615e-01,9.99999e-01
9.865456120e-01,7.82473e-01,9.99999e-01,9.99999e-01,7.82473e-01,9.99999e-01
9.914783401e-01,7.86274e-01,9.99999e-01,9.99999e-01,7.86274e-01,9.99999e-01
9.964357318e-01,7.90017e-01,9.99999e-01,9.99999e-01,7.90017e-01,9.99999e-01
1.001417910e+00,7.93704e-01,9.99999e-01,9.99999e-01,7.93704e-01,9.99999e-01
1.006425000e+00,7.97334e-01,9.99999e-01,9.99999e-01,7.97334e-01,9.99999e-01
1.011457125e+00,8.00909e-01,9.99999e-01,9.99999e-01,8.00909e-01,9.99999e-01
1.016514411e+00,8.04429e-01,9.99999e-01,9.99999e-01,8.04429e-01,9.99999e-01
1.021596983e+00,8.07861e-01,9.99999e-01,9.99958e-01,8.07894e-01,9.99999e-01
1.026704968e+00,8.08708e-01,9.99999e-01,9.96797e-01,8.11306e-01,9.99999e-01
1.031838492e+00,7.83276e-01,9.99999e-01,9.61470e-01,8.14664e-01,9.99999e-01
1.036997685e+00,1.43823e-01,9.99999e-01,1.75829e-01,8.17969e-01,9.99999e-01
1.042182673e+00,1.28950e-01,9.99999e-01,1.57022e-01,8.21222e-01,9.99999e-01
1.047393587e+00,1.44098e-01,9.99999e-01,1.74786e-01,8.24423e-01,9.99999e-01
1.052630555e+00,6.14988e-03,9.99999e-01,7.43122e-03,8.27573e-01,9.99999e-01
1.057893707e+00,1.45160e-02,9.99999e-01,1.74750e-02,8.30672e-01,9.99999e-01
1.063183176e+00,4.26525e-02,9.99999e-01,5.11590e-02,8.33722e-01,9.99999e-01
1.068499092e+00,1.08185e-01,9.99999e-01,1.29296e-01,8.36722e-01,9.99999e-01
1.073841587e+00,2.30280e-01,9.99999e-01,2.74249e-01,8.39674e-01,9.99999e-01
1.079210795e+00,3.71626e-01,9.99999e-01,4.41058e-01,8.42577e-01,9.99999e-01
1.084606849e+00,5.39102e-01,9.99999e-01,6.37664e-01,8.45432e-01,9.99999e-01
1.090029883e+00,6.71735e-01,9.99999e-01,7.91914e-01,8.48241e-01,9.99999e-01
1.095480033e+00,7.58558e-01,9.99999e-01,8.91369e-01,8.51003e-01,9.99999e-01
1.100957433e+00,8.07736e-01,9.99999e-01,9.46136e-01,8.53719e-01,9.99999e-01
1.106462220e+00,8.36998e-01,9.99999e-01,9.77355e-01,8.56390e-01,9.99999e-01
1.111994531e+00,8.51757e-01,9.99999e-01,9.91547e-01,8.59017e-01,9.99999e-01
1.117554504e+00,8.59813e-01,9.99999e-01,9.97925e-01,8.61599e-01,9.99999e-01
1.123142276e+00,8.64020e-01,9.99999e-01,9.99863e-01,8.64138e-01,9.99999e-01
1.128757988e+00,8.66634e-01,9.99999e-01,9.99999e-01,8.66634e-01,9.99999e-01
1.134401778e+00,8.69088e-01,9.99999e-01,9.99999e-01,8.69088e-01,9.99999e-01
1.140073787e+00,8.71500e-01,9.99999e-01,9.99999e-01,8.71500e-01,9.99999e-01
1.145774156e+00,8.73871e-01,9.99999e-01,9.99999e-01,8.73871e-01,9.99999e-01
1.151503026e+00,8.76201e-01,9.99999e-01,9.99999e-01,8.76201e-01,9.99999e-01
1.157260541e+00,8.78491e-01,9.99999e-01,9.99999e-01,8.78491e-01,9.99999e-01
1.163046844e+00,8.80742e-01,9.99999e-01,9.99999e-01,8.80742e-01,9.99999e-01
1.168862078e+00,8.82954e-01,9.99999e-01,9.99999e-01,8.82954e-01,9.99999e-01
1.174706389e+00,8.85128e-01,9.99999e-01,9.99999e-01,8.85128e-01,9.99999e-01
1.180579921e+00,8.87264e-01,9.99999e-01,9.99999e-01,8.87264e-01,9.99999e-01
1.186482820e+00,8.89358e-01,9.99999e-01,9.99994e-01,8.89363e-01,9.99999e-01
1.192415234e+00,8.81272e-01,9.99999e-01,9.88609e-01,8.91425e-01,9.99999e-01
1.198377311e+00,5.05610e-01,9.99999e-01,5.65906e-01,8.93451e-01,9.99999e-01
1.204369197e+00,5.51664e-10,9.99999e-01,6.16081e-10,8.95441e-01,9.99999e-01
1.210391043e+00,1.75965e-35,9.99999e-01,1.96083e-35,8.97397e-01,9.99999e-01
1.216442998e+00,6.37721e-31,9.99999e-01,7.09115e-31,8.99318e-01,9.99999e-01
1.222525213e+00,1.75911e-30,9.99999e-01,1.95195e-30,9.01205e-01,9.99999e-01
1.228637839e+00,1.34744e-23,9.99999e-01,1.49208e-23,9.03058e-01,9.99999e-01
1.234781029e+00,1.79582e-15,9.99999e-01,1.98460e-15,9.04879e-01,9.99999e-01
1.240954934e+00,1.75613e-10,9.99999e-01,1.93691e-10,9.06667e-01,9.99999e-01
1.247159708e+00,5.60143e-06,9.99999e-01,6.16609e-06,9.08424e-01,9.99999e-01
1.253395507e+00,7.94335e-04,9.99999e-01,8.72753e-04,9.10149e-01,9.99999e-01
1.259662485e+00,1.61399e-02,9.99999e-01,1.77003e-02,9.11843e-01,9.99999e-01
1.265960797e+00,8.78375e-02,9.99999e-01,9.61542e-02,9.13506e-01,9.99999e-01
1.272290601e+00,3.17296e-01,9.99999e-01,3.46718e-01,9.15140e-01,9.99999e-01
1.278652054e+00,2.96267e-01,9.99999e-01,3.23172e-01,9.16745e-01,9.99999e-01
1.285045314e+00,1.03262e-02,9.99999e-01,1.12446e-02,9.18320e-01,9.99999e-01
1.291470541e+00,7.33621e-05,9.99999e-01,7.97529e-05,9.19867e-01,9.99999e-01
1.297927893e+00,7.60531e-03,9.99999e-01,8.25420e-03,9.21386e-01,9.99999e-01
1.304417533e+00,1.54814e-01,9.99999e-01,1.67751e-01,9.22877e-01,9.99999e-01
1.310939621e+00,3.91419e-02,9.99999e-01,4.23457e-02,9.24341e-01,9.99999e-01
1.317494319e+00,1.12822e-12,9.99999e-01,1.21867e-12,9.25779e-01,9.99999e-01
1.324081790e+00,6.83356e-09,9.99999e-01,7.37018e-09,9.27190e-01,9.99999e-01
1.330702199e+00,2.97055e-05,9.99999e-01,3.19904e-05,9.28576e-01,9.99999e-01
1.337355710e+00,3.21687e-05,9.99999e-01,3.45923e-05,9.29936e-01,9.99999e-01
1.344042489e+00,9.66174e-06,9.99999e-01,1.03748e-05,9.31271e-01,9.99999e-01
1.350762701e+00,1.91182e-05,9.99999e-01,2.05003e-05,9.32582e-01,9.99999e-01
1.357516515e+00,8.78339e-04,9.99999e-01,9.40537e-04,9.33868e-01,9.99999e-01
1.364304097e+00,1.04987e-02,9.99999e-01,1.12269e-02,9.35131e-01,9.99999e-01
1.371125618e+00,8.92839e-02,9.99999e-01,9.53509e-02,9.36371e-01,9.99999e-01
1.377981246e+00,1.38254e-01,9.99999e-01,1.47457e-01,9.37588e-01,9.99999e-01
1.384871152e+00,3.08072e-01,9.99999e-01,3.28161e-01,9.38782e-01,9.99999e-01
1.391795508e+00,3.35634e-01,9.99999e-01,3.57075e-01,9.39954e-01,9.99999e-01
1.398754485e+00,4.98792e-01,9.99999e-01,5.30007e-01,9.41104e-01,9.99999e-01
1.405748258e+00,5.90126e-01,9.99999e-01,6.26305e-01,9.42233e-01,9.99999e-01
1.412776999e+00,7.01985e-01,9.99999e-01,7.44147e-01,9.43342e-01,9.99999e-01
1.419840884e+00,6.37017e-01,9.99999e-01,6.74500e-01,9.44429e-01,9.99999e-01
1.426940089e+00,6.50066e-02,9.99999e-01,6.87539e-02,9.45496e-01,9.99999e-01
1.434074789e+00,0.00000e+00,9.99999e-01,0.00000e+00,9.46543e-01,9.99999e-01
1.441245163e+00,0.00000e+00,9.99999e-01,0.00000e+00,9.47571e-01,9.99999e-01
1.448451389e+00,0.00000e+00,9.99999e-01,0.00000e+00,9.48580e-01,9.99999e-01
1.455693646e+00,1.10649e-282,9.99999e-01,1.16526e-282,9.49569e-01,9.99999e-01
1.462972114e+00,3.99679e-137,9.99999e-01,4.20475e-137,9.50540e-01,9.99999e-01
1.470286975e+00,9.52614e-58,9.99999e-01,1.00118e-57,9.51493e-01,9.99999e-01
