#,Wave/freq,Total,N2,CO2,Rayleigh,CIA
4.000000000e-01,3.68924e-27,9.99999e-01,9.99999e-01,3.68924e-27,9.99999e-01
4.020000000e-01,1.22914e-26,9.99999e-01,9.99999e-01,1.22914e-26,9.99999e-01
4.040100000e-01,3.99387e-26,9.99999e-01,9.99999e-01,3.99387e-26,9.99999e-01
4.060300500e-01,1.26788e-25,9.99999e-01,9.99999e-01,1.26788e-25,9.99999e-01
4.080602003e-01,3.93419e-25,9.99999e-01,9.99999e-01,3.93419e-25,9.99999e-01
4.101005013e-01,1.19376e-24,9.99999e-01,9.99999e-01,1.19376e-24,9.99999e-01
4.121510038e-01,3.54371e-24,9.99999e-01,9.99999e-01,3.54371e-24,9.99999e-01
4.142117588e-01,1.02959e-23,9.99999e-01,9.99999e-01,1.02959e-23,9.99999e-01
4.162828176e-01,2.92901e-23,9.99999e-01,9.99999e-01,2.92901e-23,9.99999e-01
4.183642317e-01,8.16224e-23,9.99999e-01,9.99999e-01,8.16224e-23,9.99999e-01
4.204560528e-01,2.22898e-22,9.99999e-01,9.99999e-01,2.22898e-22,9.99999e-01
4.225583331e-01,5.96739e-22,9.99999e-01,9.99999e-01,5.96739e-22,9.99999e-01
4.246711247e-01,1.56681e-21,9.99999e-01,9.99999e-01,1.56681e-21,9.99999e-01
4.267944804e-01,4.03613e-21,9.99999e-01,9.99999e-01,4.03613e-21,9.99999e-01
4.289284528e-01,1.02046e-20,9.99999e-01,9.99999e-01,1.02046e-20,9.99999e-01
4.310730950e-01,2.53322e-20,9.99999e-01,9.99999e-01,2.53322e-20,9.99999e-01
4.332284605e-01,6.17660e-20,9.99999e-01,9.99999e-01,6.17660e-20,9.99999e-01
4.353946028e-01,1.47972e-19,9.99999e-01,9.99999e-01,1.47972e-19,9.99999e-01
4.375715758e-01,3.48430e-19,9.99999e-01,9.99999e-01,3.48430e-19,9.99999e-01
4.397594337e-01,8.06686e-19,9.99999e-01,9.99999e-01,8.06686e-19,9.99999e-01
4.419582309e-01,1.83693e-18,9.99999e-01,9.99999e-01,1.83693e-18,9.99999e-01
4.441680220e-01,4.11547e-18,9.99999e-01,9.99999e-01,4.11547e-18,9.99999e-01
4.463888621e-01,9.07462e-18,9.99999e-01,9.99999e-01,9.07462e-18,9.99999e-01
4.486208064e-01,1.96994e-17,9.99999e-01,9.99999e-01,1.96994e-17,9.99999e-01
4.508639105e-01,4.21143e-17,9.99999e-01,9.99999e-01,4.21143e-17,9.99999e-01
4.531182300e-01,8.86926e-17,9.99999e-01,9.99999e-01,8.86926e-17,9.99999e-01
4.553838212e-01,1.84059e-16,9.99999e-01,9.99999e-01,1.84059e-16,9.99999e-01
4.576607403e-01,3.76498e-16,9.99999e-01,9.99999e-01,3.76498e-16,9.99999e-01
4.599490440e-01,7.59328e-16,9.99999e-01,9.99999e-01,7.59328e-16,9.99999e-01
4.622487892e-01,1.51035e-15,9.99999e-01,9.99999e-01,1.51035e-15,9.99999e-01
4.645600332e-01,2.96366e-15,9.99999e-01,9.99999e-01,2.96366e-15,9.99999e-01
4.668828333e-01,5.73846e-15,9.99999e-01,9.99999e-01,5.73846e-15,9.99999e-01
4.692172475e-01,1.09672e-14,9.99999e-01,9.99999e-01,1.09672e-14,9.99999e-01
4.715633337e-01,2.06937e-14,9.99999e-01,9.99999e-01,2.06937e-14,9.99999e-01
4.739211504e-01,3.85597e-14,9.99999e-01,9.99999e-01,3.85597e-14,9.99999e-01
4.762907561e-01,7.09726e-14,9.99999e-01,9.99999e-01,7.09726e-14,9.99999e-01
4.786722099e-01,1.29067e-13,9.99999e-01,9.99999e-01,1.29067e-13,9.99999e-01
4.810655710e-01,2.31957e-13,9.99999e-01,9.99999e-01,2.31957e-13,9.99999e-01
4.834708988e-01,4.12071e-13,9.99999e-01,9.99999e-01,4.12071e-13,9.99999e-01
4.858882533e-01,7.23781e-13,9.99999e-01,9.99999e-01,7.23781e-13,9.99999e-01
4.883176946e-01,1.25722e-12,9.99999e-01,9.99999e-01,1.25722e-12,9.99999e-01
4.907592831e-01,2.16011e-12,9.99999e-01,9.99999e-01,2.16011e-12,9.99999e-01
4.932130795e-01,3.67197e-12,9.99999e-01,9.99999e-01,3.67197e-12,9.99999e-01
4.956791449e-01,6.17690e-12,9.99999e-01,9.99999e-01,6.17690e-12,9.99999e-01
4.981575406e-01,1.02844e-11,9.99999e-01,9.99999e-01,1.02844e-11,9.99999e-01
5.006483283e-01,1.69519e-11,9.99999e-01,9.99999e-01,1.69519e-11,9.99999e-01
5.031515699e-01,2.76673e-11,9.99999e-01,9.99999e-01,2.76673e-11,9.99999e-01
5.056673278e-01,4.47213e-11,9.99999e-01,9.99999e-01,4.47213e-11,9.99999e-01
5.081956644e-01,7.16048e-11,9.99999e-01,9.99999e-01,7.16048e-11,9.99999e-01
5.107366428e-01,1.13588e-10,9.99999e-01,9.99999e-01,1.13588e-10,9.99999e-01
5.132903260e-01,1.78552e-10,9.99999e-01,9.99999e-01,1.78552e-10,9.99999e-01
5.158567776e-01,2.78174e-10,9.99999e-01,9.99999e-01,2.78174e-10,9.99999e-01
5.184360615e-01,4.29600e-10,9.99999e-01,9.99999e-01,4.29600e-10,9.99999e-01
5.210282418e-01,6.57786e-10,9.99999e-01,9.99999e-01,6.57786e-10,9.99999e-01
5.236333830e-01,9.98735e-10,9.99999e-01,9.99999e-01,9.98735e-10,9.99999e-01
5.262515499e-01,1.50395e-09,9.99999e-01,9.99999e-01,1.50395e-09,9.99999e-01
5.288828077e-01,2.24649e-09,9.99999e-01,9.99999e-01,2.24649e-09,9.99999e-01
5.315272217e-01,3.32915e-09,9.99999e-01,9.99999e-01,3.32915e-09,9.99999e-01
5.341848578e-01,4.89541e-09,9.99999e-01,9.99999e-01,4.89541e-09,9.99999e-01
5.368557821e-01,7.14391e-09,9.99999e-01,9.99999e-01,7.14391e-09,9.99999e-01
5.395400610e-01,1.03476e-08,9.99999e-01,9.99999e-01,1.03476e-08,9.99999e-01
5.422377613e-01,1.48788e-08,9.99999e-01,9.99999e-01,1.48788e-08,9.99999e-01
5.449489501e-01,2.12412e-08,9.99999e-01,9.99999e-01,2.12412e-08,9.99999e-01
5.476736949e-01,3.01118e-08,9.99999e-01,9.99999e-01,3.01118e-08,9.99999e-01
5.504120634e-01,4.23935e-08,9.99999e-01,9.99999e-01,4.23935e-08,9.99999e-01
5.531641237e-01,5.92828e-08,9.99999e-01,9.99999e-01,5.92828e-08,9.99999e-01
5.559299443e-01,8.23534e-08,9.99999e-01,9.99999e-01,8.23534e-08,9.99999e-01
5.587095940e-01,1.13662e-07,9.99999e-01,9.99999e-01,1.13662e-07,9.99999e-01
5.615031420e-01,1.55877e-07,9.99999e-01,9.99999e-01,1.55877e-07,9.99999e-01
5.643106577e-01,2.12443e-07,9.99999e-01,9.99999e-01,2.12443e-07,9.99999e-01
5.671322110e-01,2.87770e-07,9.99999e-01,9.99999e-01,2.87770e-07,9.99999e-01
5.699678720e-01,3.87477e-07,9.99999e-01,9.99999e-01,3.87477e-07,9.99999e-01
5.728177114e-01,5.18673e-07,9.99999e-01,9.99999e-01,5.18673e-07,9.99999e-01
5.756818000e-01,6.90304e-07,9.99999e-01,9.99999e-01,6.90304e-07,9.99999e-01
5.785602090e-01,9.13555e-07,9.99999e-01,9.99999e-01,9.13555e-07,9.99999e-01
5.814530100e-01,1.20233e-06,9.99999e-01,9.99999e-01,1.20233e-06,9.99999e-01
5.843602750e-01,1.57384e-06,9.99999e-01,9.99999e-01,1.57384e-06,9.99999e-01
5.872820764e-01,2.04920e-06,9.99999e-01,9.99999e-01,2.04920e-06,9.99999e-01
5.902184868e-01,2.65426e-06,9.99999e-01,9.99999e-01,2.65426e-06,9.99999e-01
5.931695792e-01,3.42046e-06,9.99999e-01,9.99999e-01,3.42046e-06,9.99999e-01
5.961354271e-01,4.38581e-06,9.99999e-01,9.99999e-01,4.38581e-06,9.99999e-01
5.991161043e-01,5.59607e-06,9.99999e-01,9.99999e-01,5.59607e-06,9.99999e-01
6.021116848e-01,7.10600e-06,9.99999e-01,9.99999e-01,7.10600e-06,9.99999e-01
6.051222432e-01,8.98087e-06,9.99999e-01,9.99999e-01,8.98087e-06,9.99999e-01
6.081478544e-01,1.12980e-05,9.99999e-01,9.99999e-01,1.12980e-05,9.99999e-01
6.111885937e-01,1.41488e-05,9.99999e-01,9.99999e-01,1.41488e-05,9.99999e-01
6.142445367e-01,1.76402e-05,9.99999e-01,9.99999e-01,1.76402e-05,9.99999e-01
6.173157594e-01,2.18976e-05,9.99999e-01,9.99999e-01,2.18976e-05,9.99999e-01
6.204023382e-01,2.70667e-05,9.99999e-01,9.99999e-01,2.70667e-05,9.99999e-01
6.235043498e-01,3.33163e-05,9.99999e-01,9.99999e-01,3.33163e-05,9.99999e-01
6.266218716e-01,4.08409e-05,9.99999e-01,9.99999e-01,4.08409e-05,9.99999e-01
6.297549810e-01,4.98640e-05,9.99999e-01,9.99999e-01,4.98640e-05,9.99999e-01
6.329037559e-01,6.06410e-05,9.99999e-01,9.99999e-01,6.06410e-05,9.99999e-01
6.360682746e-01,7.34627e-05,9.99999e-01,9.99999e-01,7.34627e-05,9.99999e-01
6.392486160e-01,8.86589e-05,9.99999e-01,9.99999e-01,8.86589e-05,9.99999e-01
6.424448591e-01,1.06602e-04,9.99999e-01,9.99999e-01,1.06602e-04,9.99999e-01
6.456570834e-01,1.27710e-04,9.99999e-01,9.99999e-01,1.27710e-04,9.99999e-01
6.488853688e-01,1.52454e-04,9.99999e-01,9.99999e-01,1.52454e-04,9.99999e-01
6.521297956e-01,1.81355e-04,9.99999e-01,9.99999e-01,1.81355e-04,9.99999e-01
6.553904446e-01,2.14998e-04,9.99999e-01,9.99999e-01,2.14998e-04,9.99999e-01
6.586673968e-01,2.54026e-04,9.99999e-01,9.99999e-01,2.54026e-04,9.99999e-01
6.619607338e-01,2.99151e-04,9.99999e-01,9.99999e-01,2.99151e-04,9.99999e-01
6.652705375e-01,3.51156e-04,9.99999e-01,9.99999e-01,3.51156e-04,9.99999e-01
6.685968902e-01,4.10899e-04,9.99999e-01,9.99999e-01,4.10899e-04,9.99999e-01
6.719398746e-01,4.79316e-04,9.99999e-01,9.99999e-01,4.79316e-04,9.99999e-01
6.752995740e-01,5.57427e-04,9.99999e-01,9.99999e-01,5.57427e-04,9.99999e-01
6.786760719e-01,6.46336e-04,9.99999e-01,9.99999e-01,6.46336e-04,9.99999e-01
6.820694522e-01,7.47240e-04,9.99999e-01,9.99999e-01,7.47240e-04,9.99999e-01
6.854797995e-01,8.61424e-04,9.99999e-01,9.99999e-01,8.61424e-04,9.99999e-01
6.889071985e-01,9.90271e-04,9.99999e-01,9.99999e-01,9.90271e-04,9.99999e-01
6.923517345e-01,1.13526e-03,9.99999e-01,9.99999e-01,1.13526e-03,9.99999e-01
6.958134932e-01,1.29797e-03,9.99999e-01,9.99999e-01,1.29797e-03,9.99999e-01
6.992925606e-01,1.48008e-03,9.99999e-01,9.99999e-01,1.48008e-03,9.99999e-01
7.027890234e-01,1.68337e-03,9.99999e-01,9.99999e-01,1.68337e-03,9.99999e-01
7.063029686e-01,1.90971e-03,9.99999e-01,9.99999e-01,1.90971e-03,9.99999e-01
7.098344834e-01,2.16111e-03,9.99999e-01,9.99999e-01,2.16111e-03,9.99999e-01
7.133836558e-01,2.43962e-03,9.99999e-01,9.99999e-01,2.43962e-03,9.99999e-01
7.169505741e-01,2.74745e-03,9.99999e-01,9.99999e-01,2.74745e-03,9.99999e-01
7.205353270e-01,3.08686e-03,9.99999e-01,9.99999e-01,3.08686e-03,9.99999e-01
7.241380036e-01,3.46023e-03,9.99999e-01,9.99999e-01,3.46023e-03,9.99999e-01
7.277586936e-01,3.87003e-03,9.99999e-01,9.99999e-01,3.87003e-03,9.99999e-01
7.313974871e-01,4.31880e-03,9.99999e-01,9.99999e-01,4.31880e-03,9.99999e-01
7.350544745e-01,4.80917e-03,9.99999e-01,9.99999e-01,4.80917e-03,9.99999e-01
7.387297469e-01,5.34386e-03,9.99999e-01,9.99999e-01,5.34386e-03,9.99999e-01
7.424233956e-01,5.92564e-03,9.99999e-01,9.99999e-01,5.92564e-03,9.99999e-01
7.461355126e-01,6.55737e-03,9.99999e-01,9.99999e-01,6.55737e-03,9.99999e-01
7.498661902e-01,7.24193e-03,9.99999e-01,9.99999e-01,7.24193e-03,9.99999e-01
7.536155211e-01,7.98229e-03,9.99999e-01,9.99999e-01,7.98229e-03,9.99999e-01
7.573835987e-01,8.78144e-03,9.99999e-01,9.99999e-01,8.78144e-03,9.99999e-01
7.611705167e-01,9.64241e-03,9.99999e-01,9.99999e-01,9.64241e-03,9.99999e-01
7.649763693e-01,1.05682e-02,9.99999e-01,9.99999e-01,1.05682e-02,9.99999e-01
7.688012511e-01,1.15620e-02,9.99999e-01,9.99999e-01,1.15620e-02,9.99999e-01
7.726452574e-01,1.26268e-02,9.99999e-01,9.99999e-01,1.26268e-02,9.99999e-01
7.765084837e-01,1.37657e-02,9.99999e-01,9.99999e-01,1.37657e-02,9.99999e-01
7.803910261e-01,1.30212e-02,9.99999e-01,8.69139e-01,1.49817e-02,9.99999e-01
7.842929812e-01,7.42806e-03,9.99999e-01,4.56328e-01,1.62779e-02,9.99999e-01
7.882144461e-01,7.82731e-03,9.99999e-01,4.43291e-01,1.76573e-02,9.99999e-01
7.921555184e-01,1.13170e-02,9.99999e-01,5.91809e-01,1.91228e-02,9.99999e-01
7.961162960e-01,1.44118e-02,9.99999e-01,6.96984e-01,2.06773e-02,9.99999e-01
8.000968774e-01,1.83464e-02,9.99999e-01,8.21830e-01,2.23238e-02,9.99999e-01
8.040973618e-01,2.17244e-02,9.99999e-01,9.02742e-01,2.40649e-02,9.99999e-01
8.081178486e-01,2.47147e-02,9.99999e-01,9.54113e-01,2.59033e-02,9.99999e-01
8.121584379e-01,2.74389e-02,9.99999e-01,9.85530e-01,2.78417e-02,9.99999e-01
8.162192301e-01,2.97864e-02,9.99999e-01,9.96784e-01,2.98825e-02,9.99999e-01
8.203003262e-01,3.20265e-02,9.99999e-01,9.99948e-01,3.20281e-02,9.99999e-01
8.244018279e-01,3.42808e-02,9.99999e-01,9.99999e-01,3.42808e-02,9.99999e-01
8.285238370e-01,3.66426e-02,9.99999e-01,9.99999e-01,3.66426e-02,9.99999e-01
8.326664562e-01,3.91157e-02,9.99999e-01,9.99999e-01,3.91157e-02,9.99999e-01
8.368297885e-01,4.17019e-02,9.99999e-01,9.99999e-01,4.17019e-02,9.99999e-01
8.410139374e-01,4.44029e-02,9.99999e-01,9.99999e-01,4.44029e-02,9.99999e-01
8.452190071e-01,4.72203e-02,9.99999e-01,9.99999e-01,4.72203e-02,9.99999e-01
8.494451021e-01,5.01554e-02,9.99999e-01,9.99999e-01,5.01554e-02,9.99999e-01
8.536923276e-01,5.32096e-02,9.99999e-01,9.99999e-01,5.32096e-02,9.99999e-01
8.579607893e-01,5.63838e-02,9.99999e-01,9.99999e-01,5.63838e-02,9.99999e-01
8.622505932e-01,5.96791e-02,9.99999e-01,9.99999e-01,5.96791e-02,9.99999e-01
8.665618462e-01,5.27545e-02,9.99999e-01,8.36097e-01,6.30961e-02,9.99999e-01
8.708946554e-01,1.03030e-02,9.99999e-01,1.54617e-01,6.66355e-02,9.99999e-01
8.752491287e-01,1.38754e-02,9.99999e-01,1.97381e-01,7.02976e-02,9.99999e-01
8.796253743e-01,2.94183e-02,9.99999e-01,3.97101e-01,7.40826e-02,9.99999e-01
8.840235012e-01,4.74650e-02,9.99999e-01,6.08598e-01,7.79906e-02,9.99999e-01
8.884436187e-01,6.72087e-02,9.99999e-01,8.19403e-01,8.20214e-02,9.99999e-01
8.928858368e-01,7.94637e-02,9.99999e-01,9.22122e-01,8.61747e-02,9.99999e-01
8.973502660e-01,8.86783e-02,9.99999e-01,9.80412e-01,9.04500e-02,9.99999e-01
9.018370173e-01,9.46398e-02,9.99999e-01,9.97818e-01,9.48467e-02,9.99999e-01
9.063462024e-01,9.42574e-02,9.99999e-01,9.48608e-01,9.93638e-02,9.99999e-01
9.108779334e-01,9.15777e-02,9.99999e-01,8.80550e-01,1.04001e-01,9.99999e-01
9.154323231e-01,1.05534e-01,9.99999e-01,9.70381e-01,1.08756e-01,9.99999e-01
9.200094847e-01,8.21129e-02,9.99999e-01,7.22648e-01,1.13628e-01,9.99999e-01
9.246095321e-01,6.41857e-02,9.99999e-01,5.41124e-01,1.18615e-01,9.99999e-01
9.292325798e-01,7.79048e-02,9.99999e-01,6.29702e-01,1.23717e-01,9.99999e-01
9.338787427e-01,8.14354e-02,9.99999e-01,6.31622e-01,1.28930e-01,9.99999e-01
9.385481364e-01,9.52528e-02,9.99999e-01,7.09495e-01,1.34254e-01,9.99999e-01
9.432408771e-01,1.12878e-01,9.99999e-01,8.08085e-01,1.39686e-01,9.99999e-01
9.479570815e-01,1.30171e-01,9.99999e-01,8.96346e-01,1.45224e-01,9.99999e-01
9.526968669e-01,1.43119e-01,9.99999e-01,9.48652e-01,1.50866e-01,9.99999e-01
9.574603512e-01,1.53109e-01,9.99999e-01,9.77652e-01,1.56609e-01,9.99999e-01
9.622476530e-01,1.61308e-01,9.99999e-01,9.92967e-01,1.62450e-01,9.99999e-01
9.670588912e-01,1.68032e-01,9.99999e-01,9.97885e-01,1.68388e-01,9.99999e-01
9.718941857e-01,1.74392e-01,9.99999e-01,9.99848e-01,1.74418e-01,9.99999e-01
9.767536566e-01,1.80540e-01,9.99999e-01,9.99999e-01,1.80540e-01,9.99999e-01
9.816374249e-01,1.86749e-01,9.99999e-01,9.99999e-01,1.86749e-01,9.99999e-01
9.865456120e-01,1.93042e-01,9.99999e-01,9.99999e-01,1.93042e-01,9.99999e-01
9.914783401e-01,1.99417e-01,9.99999e-01,9.99999e-01,1.99417e-01,9.99999e-01
9.964357318e-01,2.05870e-01,9.99999e-01,9.99999e-01,2.05870e-01,9.99999e-01
1.001417910e+00,2.12399e-01,9.99999e-01,9.99999e-01,2.12399e-01,9.99999e-01
1.006425000e+00,2.18999e-01,9.99999e-01,9.99999e-01,2.18999e-01,9.99999e-01
1.011457125e+00,2.25668e-01,9.99999e-01,9.99999e-01,2.25668e-01,9.99999e-01
1.016514411e+00,2.32402e-01,9.99999e-01,9.99999e-01,2.32402e-01,9.99999e-01
1.021596983e+00,2.39133e-01,9.99999e-01,9.99724e-01,2.39199e-01,9.99999e-01
1.026704968e+00,2.40904e-01,9.99999e-01,9.79070e-01,2.46054e-01,9.99999e-01
1.031838492e+00,2.18463e-01,9.99999e-01,8.63614e-01,2.52964e-01,9.99999e-01
1.036997685e+00,5.96994e-03,9.99999e-01,2.29678e-02,2.59926e-01,9.99999e-01
1.042182673e+00,4.25939e-05,9.99999e-01,1.59566e-04,2.66936e-01,9.99999e-01
1.047393587e+00,1.20307e-04,9.99999e-01,4.39090e-04,2.73992e-01,9.99999e-01
1.052630555e+00,3.63887e-11,9.99999e-01,1.29456e-10,2.81089e-01,9.99999e-01
1.057893707e+00,1.35309e-10,9.99999e-01,4.69457e-10,2.88224e-01,9.99999e-01
1.063183176e+00,6.56908e-08,9.99999e-01,2.22383e-07,2.95394e-01,9.99999e-01
1.068499092e+00,1.90384e-06,9.99999e-01,6.29169e-06,3.02596e-01,9.99999e-01
1.073841587e+00,1.10204e-04,9.99999e-01,3.55698e-04,3.09825e-01,9.99999e-01
1.079210795e+00,2.31317e-03,9.99999e-01,7.29523e-03,3.17080e-01,9.99999e-01
1.084606849e+00,1.83747e-02,9.99999e-01,5.66496e-02,3.24356e-01,9.99999e-01
1.090029883e+00,7.28681e-02,9.99999e-01,2.19713e-01,3.31650e-01,9.99999e-01
1.095480033e+00,1.59477e-01,9.99999e-01,4.70488e-01,3.38960e-01,9.99999e-01
1.100957433e+00,2.39778e-01,9.99999e-01,6.92437e-01,3.46281e-01,9.99999e-01
1.106462220e+00,3.03540e-01,9.99999e-01,8.58399e-01,3.53611e-01,9.99999e-01
1.111994531e+00,3.41029e-01,9.99999e-01,9.44815e-01,3.60948e-01,9.99999e-01
1.117554504e+00,3.63205e-01,9.99999e-01,9.86202e-01,3.68286e-01,9.99999e-01
1.123142276e+00,3.75282e-01,9.99999e-01,9.99084e-01,3.75625e-01,9.99999e-01
1.128757988e+00,3.82961e-01,9.99999e-01,9.99999e-01,3.82961e-01,9.99999e-01
1.134401778e+00,3.90290e-01,9.99999e-01,9.99999e-01,3.90290e-01,9.99999e-01
1.140073787e+00,3.97612e-01,9.99999e-01,9.99999e-01,3.97612e-01,9.99999e-01
1.145774156e+00,4.04921e-01,9.99999e-01,9.99999e-01,4.04921e-01,9.99999e-01
1.151503026e+00,4.12217e-01,9.99999e-01,9.99999e-01,4.12217e-01,9.99999e-01
1.157260541e+00,4.19496e-01,9.99999e-01,9.99999e-01,4.19496e-01,9.99999e-01
1.163046844e+00,4.26757e-01,9.99999e-01,9.99999e-01,4.26757e-01,9.99999e-01
1.168862078e+00,4.33995e-01,9.99999e-01,9.99999e-01,4.33995e-01,9.99999e-01
1.174706389e+00,4.41210e-01,9.99999e-01,9.99999e-01,4.41210e-01,9.99999e-01
1.180579921e+00,4.48399e-01,9.99999e-01,9.99999e-01,4.48399e-01,9.99999e-01
1.186482820e+00,4.55545e-01,9.99999e-01,9.99966e-01,4.55560e-01,9.99999e-01
1.192415234e+00,4.31391e-01,9.99999e-01,9.32353e-01,4.62690e-01,9.99999e-01
1.198377311e+00,2.21951e-01,9.99999e-01,4.72450e-01,4.69787e-01,9.99999e-01
1.204369197e+00,4.17726e-54,9.99999e-01,8.76009e-54,4.76850e-01,9.99999e-01
1.210391043e+00,4.82090e-225,9.99999e-01,9.96306e-225,4.83877e-01,9.99999e-01
1.216442998e+00,1.78590e-194,9.99999e-01,3.63826e-194,4.90865e-01,9.99999e-01
1.222525213e+00,1.58035e-191,9.99999e-01,3.17458e-191,4.97813e-01,9.99999e-01
1.228637839e+00,2.48263e-147,9.99999e-01,4.91882e-147,5.04719e-01,9.99999e-01
1.234781029e+00,6.70226e-91,9.99999e-01,1.31010e-90,5.11582e-01,9.99999e-01
1.240954934e+00,9.25453e-60,9.99999e-01,1.78521e-59,5.18400e-01,9.99999e-01
1.247159708e+00,1.00871e-27,9.99999e-01,1.92073e-27,5.25171e-01,9.99999e-01
1.253395507e+00,6.78731e-19,9.99999e-01,1.27606e-18,5.31895e-01,9.99999e-01
1.259662485e+00,9.51288e-11,9.99999e-01,1.76632e-10,5.38569e-01,9.99999e-01
1.265960797e+00,3.52824e-06,9.99999e-01,6.47153e-06,5.45193e-01,9.99999e-01
1.272290601e+00,9.83713e-04,9.99999e-01,1.78285e-03,5.51765e-01,9.99999e-01
1.278652054e+00,1.63184e-03,9.99999e-01,2.92296e-03,5.58284e-01,9.99999e-01
1.285045314e+00,5.39805e-08,9.99999e-01,9.55831e-08,5.64749e-01,9.99999e-01
1.291470541e+00,2.74885e-25,9.99999e-01,4.81276e-25,5.71158e-01,9.99999e-01
1.297927893e+00,5.79488e-10,9.99999e-01,1.00342e-09,5.77512e-01,9.99999e-01
1.304417533e+00,9.08482e-06,9.99999e-01,1.55613e-05,5.83809e-01,9.99999e-01
1.310939621e+00,3.01732e-06,9.99999e-01,5.11367e-06,5.90048e-01,9.99999e-01
1.317494319e+00,2.84436e-75,9.99999e-01,4.77058e-75,5.96229e-01,9.99999e-01
1.324081790e+00,1.01325e-48,9.99999e-01,1.68215e-48,6.02351e-01,9.99999e-01
1.330702199e+00,5.85931e-29,9.99999e-01,9.63049e-29,6.08412e-01,9.99999e-01
1.337355710e+00,5.30826e-26,9.99999e-01,8.63956e-26,6.14413e-01,9.99999e-01
1.344042489e+00,3.67302e-26,9.99999e-01,5.92084e-26,6.20353e-01,9.99999e-01
1.350762701e+00,2.41650e-29,9.99999e-01,3.85879e-29,6.26231e-01,9.99999e-01
1.357516515e+00,4.70372e-17,9.99999e-01,7.44203e-17,6.32048e-01,9.99999e-01
1.364304097e+00,9.91765e-13,9.99999e-01,1.55497e-12,6.37801e-01,9.99999e-01
1.371125618e+00,6.48422e-07,9.99999e-01,1.00766e-06,6.43492e-01,9.99999e-01
1.377981246e+00,3.77651e-06,9.99999e-01,5.81788e-06,6.49120e-01,9.99999e-01
1.384871152e+00,5.31578e-04,9.99999e-01,8.11959e-04,6.54685e-01,9.99999e-01
1.391795508e+00,1.02852e-03,9.99999e-01,1.55792e-03,6.60186e-01,9.99999e-01
1.398754485e+00,9.87152e-03,9.99999e-01,1.48305e-02,6.65623e-01,9.99999e-01
1.405748258e+00,3.24008e-02,9.99999e-01,4.82876e-02,6.70996e-01,9.99999e-01
1.412776999e+00,9.65628e-02,9.99999e-01,1.42780e-01,6.76305e-01,9.99999e-01
1.419840884e+00,1.05088e-01,9.99998e-01,1.54190e-01,6.81550e-01,9.99999e-01
1.426940089e+00,2.50282e-03,9.99998e-01,3.64454e-03,6.86730e-01,9.99999e-01
1.434074789e+00,0.00000e+00,9.99998e-01,0.00000e+00,6.91847e-01,9.99999e-01
1.441245163e+00,0.00000e+00,9.99999e-01,0.00000e+00,6.96900e-01,9.99999e-01
1.448451389e+00,0.00000e+00,9.99998e-01,0.00000e+00,7.01889e-01,9.99999e-01
1.455693646e+00,0.00000e+00,9.99998e-01,0.00000e+00,7.06813e-01,9.99999e-01
1.462972114e+00,0.00000e+00,9.99999e-01,0.00000e+00,7.11674e-01,9.99999e-01
1.470286975e+00,0.00000e+00,9.99999e-01,0.00000e+00,7.16472e-01,9.99999e-01
