#,Wave/freq,Total,N2,CO2,Rayleigh,CIA
4.000000000e-01,2.45386e-10,9.99999e-01,9.99999e-01,2.45386e-10,9.99999e-01
4.020000000e-01,3.80080e-10,9.99999e-01,9.99999e-01,3.80080e-10,9.99999e-01
4.040100000e-01,5.83373e-10,9.99999e-01,9.99999e-01,5.83373e-10,9.99999e-01
4.060300500e-01,8.87854e-10,9.99999e-01,9.99999e-01,8.87854e-10,9.99999e-01
4.080602003e-01,1.34009e-09,9.99999e-01,9.99999e-01,1.34009e-09,9.99999e-01
4.101005013e-01,2.00630e-09,9.99999e-01,9.99999e-01,2.00630e-09,9.99999e-01
4.121510038e-01,2.97985e-09,9.99999e-01,9.99999e-01,2.97985e-09,9.99999e-01
4.142117588e-01,4.39137e-09,9.99999e-01,9.99999e-01,4.39137e-09,9.99999e-01
4.162828176e-01,6.42214e-09,9.99999e-01,9.99999e-01,6.42214e-09,9.99999e-01
4.183642317e-01,9.32177e-09,9.99999e-01,9.99999e-01,9.32177e-09,9.99999e-01
4.204560528e-01,1.34314e-08,9.99999e-01,9.99999e-01,1.34314e-08,9.99999e-01
4.225583331e-01,1.92136e-08,9.99999e-01,9.99999e-01,1.92136e-08,9.99999e-01
4.246711247e-01,2.72915e-08,9.99999e-01,9.99999e-01,2.72915e-08,9.99999e-01
4.267944804e-01,3.84977e-08,9.99999e-01,9.99999e-01,3.84977e-08,9.99999e-01
4.289284528e-01,5.39375e-08,9.99999e-01,9.99999e-01,5.39375e-08,9.99999e-01
4.310730950e-01,7.50678e-08,9.99999e-01,9.99999e-01,7.50678e-08,9.99999e-01
4.332284605e-01,1.03796e-07,9.99999e-01,9.99999e-01,1.03796e-07,9.99999e-01
4.353946028e-01,1.42603e-07,9.99999e-01,9.99999e-01,1.42603e-07,9.99999e-01
4.375715758e-01,1.94694e-07,9.99999e-01,9.99999e-01,1.94694e-07,9.99999e-01
4.397594337e-01,2.64182e-07,9.99999e-01,9.99999e-01,2.64182e-07,9.99999e-01
4.419582309e-01,3.56318e-07,9.99999e-01,9.99999e-01,3.56318e-07,9.99999e-01
4.441680220e-01,4.77754e-07,9.99999e-01,9.99999e-01,4.77754e-07,9.99999e-01
4.463888621e-01,6.36878e-07,9.99999e-01,9.99999e-01,6.36878e-07,9.99999e-01
4.486208064e-01,8.44192e-07,9.99999e-01,9.99999e-01,8.44192e-07,9.99999e-01
4.508639105e-01,1.11278e-06,9.99999e-01,9.99999e-01,1.11278e-06,9.99999e-01
4.531182300e-01,1.45884e-06,9.99999e-01,9.99999e-01,1.45884e-06,9.99999e-01
4.553838212e-01,1.90232e-06,9.99999e-01,9.99999e-01,1.90232e-06,9.99999e-01
4.576607403e-01,2.46764e-06,9.99999e-01,9.99999e-01,2.46764e-06,9.99999e-01
4.599490440e-01,3.18454e-06,9.99999e-01,9.99999e-01,3.18454e-06,9.99999e-01
4.622487892e-01,4.08908e-06,9.99999e-01,9.99999e-01,4.08908e-06,9.99999e-01
4.645600332e-01,5.22468e-06,9.99999e-01,9.99999e-01,5.22468e-06,9.99999e-01
4.668828333e-01,6.64341e-06,9.99999e-01,9.99999e-01,6.64341e-06,9.99999e-01
4.692172475e-01,8.40740e-06,9.99999e-01,9.99999e-01,8.40740e-06,9.99999e-01
4.715633337e-01,1.05904e-05,9.99999e-01,9.99999e-01,1.05904e-05,9.99999e-01
4.739211504e-01,1.32795e-05,9.99999e-01,9.99999e-01,1.32795e-05,9.99999e-01
4.762907561e-01,1.65772e-05,9.99999e-01,9.99999e-01,1.65772e-05,9.99999e-01
4.786722099e-01,2.06034e-05,9.99999e-01,9.99999e-01,2.06034e-05,9.99999e-01
4.810655710e-01,2.54976e-05,9.99999e-01,9.99999e-01,2.54976e-05,9.99999e-01
4.834708988e-01,3.14219e-05,9.99999e-01,9.99999e-01,3.14219e-05,9.99999e-01
4.858882533e-01,3.85632e-05,9.99999e-01,9.99999e-01,3.85632e-05,9.99999e-01
4.883176946e-01,4.71365e-05,9.99999e-01,9.99999e-01,4.71365e-05,9.99999e-01
4.907592831e-01,5.73877e-05,9.99999e-01,9.99999e-01,5.73877e-05,9.99999e-01
4.932130795e-01,6.95974e-05,9.99999e-01,9.99999e-01,6.95974e-05,9.99999e-01
4.956791449e-01,8.40837e-05,9.99999e-01,9.99999e-01,8.40837e-05,9.99999e-01
4.981575406e-01,1.01207e-04,9.99999e-01,9.99999e-01,1.01207e-04,9.99999e-01
5.006483283e-01,1.21371e-04,9.99999e-01,9.99999e-01,1.21371e-04,9.99999e-01
5.031515699e-01,1.45032e-04,9.99999e-01,9.99999e-01,1.45032e-04,9.99999e-01
5.056673278e-01,1.72697e-04,9.99999e-01,9.99999e-01,1.72697e-04,9.99999e-01
5.081956644e-01,2.04931e-04,9.99999e-01,9.99999e-01,2.04931e-04,9.99999e-01
5.107366428e-01,2.42361e-04,9.99999e-01,9.99999e-01,2.42361e-04,9.99999e-01
5.132903260e-01,2.85679e-04,9.99999e-01,9.99999e-01,2.85679e-04,9.99999e-01
5.158567776e-01,3.35648e-04,9.99999e-01,9.99999e-01,3.35648e-04,9.99999e-01
5.184360615e-01,3.93103e-04,9.99999e-01,9.99999e-01,3.93103e-04,9.99999e-01
5.210282418e-01,4.58958e-04,9.99999e-01,9.99999e-01,4.58958e-04,9.99999e-01
5.236333830e-01,5.34209e-04,9.99999e-01,9.99999e-01,5.34209e-04,9.99999e-01
5.262515499e-01,6.19936e-04,9.99999e-01,9.99999e-01,6.19936e-04,9.99999e-01
5.288828077e-01,7.17309e-04,9.99999e-01,9.99999e-01,7.17309e-04,9.99999e-01
5.315272217e-01,8.27587e-04,9.99999e-01,9.99999e-01,8.27587e-04,9.99999e-01
5.341848578e-01,9.52127e-04,9.99999e-01,9.99999e-01,9.52127e-04,9.99999e-01
5.368557821e-01,1.09238e-03,9.99999e-01,9.99999e-01,1.09238e-03,9.99999e-01
5.395400610e-01,1.24989e-03,9.99999e-01,9.99999e-01,1.24989e-03,9.99999e-01
5.422377613e-01,1.42632e-03,9.99999e-01,9.99999e-01,1.42632e-03,9.99999e-01
5.449489501e-01,1.62341e-03,9.99999e-01,9.99999e-01,1.62341e-03,9.99999e-01
5.476736949e-01,1.84301e-03,9.99999e-01,9.99999e-01,1.84301e-03,9.99999e-01
5.504120634e-01,2.08709e-03,9.99999e-01,9.99999e-01,2.08709e-03,9.99999e-01
5.531641237e-01,2.35769e-03,9.99999e-01,9.99999e-01,2.35769e-03,9.99999e-01
5.559299443e-01,2.65697e-03,9.99999e-01,9.99999e-01,2.65697e-03,9.99999e-01
5.587095940e-01,2.98718e-03,9.99999e-01,9.99999e-01,2.98718e-03,9.99999e-01
5.615031420e-01,3.35067e-03,9.99999e-01,9.99999e-01,3.35067e-03,9.99999e-01
5.643106577e-01,3.74987e-03,9.99999e-01,9.99999e-01,3.74987e-03,9.99999e-01
5.671322110e-01,4.18731e-03,9.99999e-01,9.99999e-01,4.18731e-03,9.99999e-01
5.699678720e-01,4.66560e-03,9.99999e-01,9.99999e-01,4.66560e-03,9.99999e-01
5.728177114e-01,5.18744e-03,9.99999e-01,9.99999e-01,5.18744e-03,9.99999e-01
5.756818000e-01,5.75557e-03,9.99999e-01,9.99999e-01,5.75557e-03,9.99999e-01
5.785602090e-01,6.37282e-03,9.99999e-01,9.99999e-01,6.37282e-03,9.99999e-01
5.814530100e-01,7.04209e-03,9.99999e-01,9.99999e-01,7.04209e-03,9.99999e-01
5.843602750e-01,7.76632e-03,9.99999e-01,9.99999e-01,7.76632e-03,9.99999e-01
5.872820764e-01,8.54847e-03,9.99999e-01,9.99999e-01,8.54847e-03,9.99999e-01
5.902184868e-01,9.39158e-03,9.99999e-01,9.99999e-01,9.39158e-03,9.99999e-01
5.931695792e-01,1.02987e-02,9.99999e-01,9.99999e-01,1.02987e-02,9.99999e-01
5.961354271e-01,1.12729e-02,9.99999e-01,9.99999e-01,1.12729e-02,9.99999e-01
5.991161043e-01,1.23172e-02,9.99999e-01,9.99999e-01,1.23172e-02,9.99999e-01
6.021116848e-01,1.34347e-02,9.99999e-01,9.99999e-01,1.34347e-02,9.99999e-01
6.051222432e-01,1.46285e-02,9.99999e-01,9.99999e-01,1.46285e-02,9.99999e-01
6.081478544e-01,1.59017e-02,9.99999e-01,9.99999e-01,1.59017e-02,9.99999e-01
6.111885937e-01,1.72571e-02,9.99999e-01,9.99999e-01,1.72571e-02,9.99999e-01
6.142445367e-01,1.86979e-02,9.99999e-01,9.99999e-01,1.86979e-02,9.99999e-01
6.173157594e-01,2.02269e-02,9.99999e-01,9.99999e-01,2.02269e-02,9.99999e-01
6.204023382e-01,2.18470e-02,9.99999e-01,9.99999e-01,2.18470e-02,9.99999e-01
6.235043498e-01,2.35609e-02,9.99999e-01,9.99999e-01,2.35609e-02,9.99999e-01
6.266218716e-01,2.53715e-02,9.99999e-01,9.99999e-01,2.53715e-02,9.99999e-01
6.297549810e-01,2.72812e-02,9.99999e-01,9.99999e-01,2.72812e-02,9.99999e-01
6.329037559e-01,2.92927e-02,9.99999e-01,9.99999e-01,2.92927e-02,9.99999e-01
6.360682746e-01,3.14083e-02,9.99999e-01,9.99999e-01,3.14083e-02,9.99999e-01
6.392486160e-01,3.36304e-02,9.99999e-01,9.99999e-01,3.36304e-02,9.99999e-01
6.424448591e-01,3.59611e-02,9.99999e-01,9.99999e-01,3.59611e-02,9.99999e-01
6.456570834e-01,3.84024e-02,9.99999e-01,9.99999e-01,3.84024e-02,9.99999e-01
6.488853688e-01,4.09563e-02,9.99999e-01,9.99999e-01,4.09563e-02,9.99999e-01
6.521297956e-01,4.36245e-02,9.99999e-01,9.99999e-01,4.36245e-02,9.99999e-01
6.553904446e-01,4.64087e-02,9.99999e-01,9.99999e-01,4.64087e-02,9.99999e-01
6.586673968e-01,4.93103e-02,9.99999e-01,9.99999e-01,4.93103e-02,9.99999e-01
6.619607338e-01,5.23306e-02,9.99999e-01,9.99999e-01,5.23306e-02,9.99999e-01
6.652705375e-01,5.54706e-02,9.99999e-01,9.99999e-01,5.54706e-02,9.99999e-01
6.685968902e-01,5.87315e-02,9.99999e-01,9.99999e-01,5.87315e-02,9.99999e-01
6.719398746e-01,6.21139e-02,9.99999e-01,9.99999e-01,6.21139e-02,9.99999e-01
6.752995740e-01,6.56185e-02,9.99999e-01,9.99999e-01,6.56185e-02,9.99999e-01
6.786760719e-01,6.92457e-02,9.99999e-01,9.99999e-01,6.92457e-02,9.99999e-01
6.820694522e-01,7.29958e-02,9.99999e-01,9.99999e-01,7.29958e-02,9.99999e-01
6.854797995e-01,7.68689e-02,9.99999e-01,9.99999e-01,7.68689e-02,9.99999e-01
6.889071985e-01,8.08649e-02,9.99999e-01,9.99999e-01,8.08649e-02,9.99999e-01
6.923517345e-01,8.49834e-02,9.99999e-01,9.99999e-01,8.49834e-02,9.99999e-01
6.958134932e-01,8.92242e-02,9.99999e-01,9.99999e-01,8.92242e-02,9.99999e-01
6.992925606e-01,9.35865e-02,9.99999e-01,9.99999e-01,9.35865e-02,9.99999e-01
7.027890234e-01,9.80696e-02,9.99999e-01,9.99999e-01,9.80696e-02,9.99999e-01
7.063029686e-01,1.02672e-01,9.99999e-01,9.99999e-01,1.02672e-01,9.99999e-01
7.098344834e-01,1.07394e-01,9.99999e-01,9.99999e-01,1.07394e-01,9.99999e-01
7.133836558e-01,1.12233e-01,9.99999e-01,9.99999e-01,1.12233e-01,9.99999e-01
7.169505741e-01,1.17188e-01,9.99999e-01,9.99999e-01,1.17188e-01,9.99999e-01
7.205353270e-01,1.22257e-01,9.99999e-01,9.99999e-01,1.22257e-01,9.99999e-01
7.241380036e-01,1.27439e-01,9.99999e-01,9.99999e-01,1.27439e-01,9.99999e-01
7.277586936e-01,1.32732e-01,9.99999e-01,9.99999e-01,1.32732e-01,9.99999e-01
7.313974871e-01,1.38134e-01,9.99999e-01,9.99999e-01,1.38134e-01,9.99999e-01
7.350544745e-01,1.43642e-01,9.99999e-01,9.99999e-01,1.43642e-01,9.99999e-01
7.387297469e-01,1.49254e-01,9.99999e-01,9.99999e-01,1.49254e-01,9.99999e-01
7.424233956e-01,1.54968e-01,9.99999e-01,9.99999e-01,1.54968e-01,9.99999e-01
7.461355126e-01,1.60782e-01,9.99999e-01,9.99999e-01,1.60782e-01,9.99999e-01
7.498661902e-01,1.66693e-01,9.99999e-01,9.99999e-01,1.66693e-01,9.99999e-01
7.536155211e-01,1.72697e-01,9.99999e-01,9.99999e-01,1.72697e-01,9.99999e-01
7.573835987e-01,1.78793e-01,9.99999e-01,9.99999e-01,1.78793e-01,9.99999e-01
7.611705167e-01,1.84978e-01,9.99999e-01,9.99999e-01,1.84978e-01,9.99999e-01
7.649763693e-01,1.91247e-01,9.99999e-01,9.99999e-01,1.91247e-01,9.99999e-01
7.688012511e-01,1.97599e-01,9.99999e-01,9.99999e-01,1.97599e-01,9.99999e-01
7.726452574e-01,2.04031e-01,9.99999e-01,9.99999e-01,2.04031e-01,9.99999e-01
7.765084837e-01,2.10538e-01,9.99999e-01,9.99999e-01,2.10538e-01,9.99999e-01
7.803910261e-01,2.03952e-01,9.99999e-01,9.39358e-01,2.17119e-01,9.99999e-01
7.842929812e-01,1.64240e-01,9.99999e-01,7.33970e-01,2.23768e-01,9.99999e-01
7.882144461e-01,1.66322e-01,9.99999e-01,7.21620e-01,2.30485e-01,9.99999e-01
7.921555184e-01,1.95061e-01,9.99999e-01,8.22128e-01,2.37264e-01,9.99999e-01
7.961162960e-01,2.13698e-01,9.99999e-01,8.75443e-01,2.44102e-01,9.99999e-01
8.000968774e-01,2.33550e-01,9.99999e-01,9.30489e-01,2.50997e-01,9.99999e-01
8.040973618e-01,2.48441e-01,9.99999e-01,9.63155e-01,2.57945e-01,9.99999e-01
8.081178486e-01,2.60437e-01,9.99999e-01,9.82994e-01,2.64942e-01,9.99999e-01
8.121584379e-01,2.70534e-01,9.99999e-01,9.94665e-01,2.71985e-01,9.99999e-01
8.162192301e-01,2.78741e-01,9.99999e-01,9.98818e-01,2.79071e-01,9.99999e-01
8.203003262e-01,2.86190e-01,9.99999e-01,9.99979e-01,2.86195e-01,9.99999e-01
8.244018279e-01,2.93356e-01,9.99999e-01,9.99999e-01,2.93356e-01,9.99999e-01
8.285238370e-01,3.00549e-01,9.99999e-01,9.99999e-01,3.00549e-01,9.99999e-01
8.326664562e-01,3.07771e-01,9.99999e-01,9.99999e-01,3.07771e-01,9.99999e-01
8.368297885e-01,3.15019e-01,9.99999e-01,9.99999e-01,3.15019e-01,9.99999e-01
8.410139374e-01,3.22289e-01,9.99999e-01,9.99999e-01,3.22289e-01,9.99999e-01
8.452190071e-01,3.29578e-01,9.99999e-01,9.99999e-01,3.29578e-01,9.99999e-01
8.494451021e-01,3.36884e-01,9.99999e-01,9.99999e-01,3.36884e-01,9.99999e-01
8.536923276e-01,3.44202e-01,9.99999e-01,9.99999e-01,3.44202e-01,9.99999e-01
8.579607893e-01,3.51530e-01,9.99999e-01,9.99999e-01,3.51530e-01,9.99999e-01
8.622505932e-01,3.58865e-01,9.99999e-01,9.99999e-01,3.58865e-01,9.99999e-01
8.665618462e-01,3.27427e-01,9.99999e-01,8.94111e-01,3.66203e-01,9.99999e-01
8.708946554e-01,1.73876e-01,9.99999e-01,4.65479e-01,3.73542e-01,9.99999e-01
8.752491287e-01,2.02592e-01,9.99999e-01,5.31905e-01,3.80879e-01,9.99999e-01
8.796253743e-01,2.72746e-01,9.99999e-01,7.02570e-01,3.88211e-01,9.99999e-01
8.840235012e-01,3.28805e-01,9.99999e-01,8.31291e-01,3.95535e-01,9.99999e-01
8.884436187e-01,3.74313e-01,9.99999e-01,9.29167e-01,4.02848e-01,9.99999e-01
8.928858368e-01,3.98151e-01,9.99999e-01,9.70748e-01,4.10148e-01,9.99999e-01
8.973502660e-01,4.14410e-01,9.99999e-01,9.92760e-01,4.17432e-01,9.99999e-01
9.018370173e-01,4.24358e-01,9.99999e-01,9.99197e-01,4.24698e-01,9.99999e-01
9.063462024e-01,4.23559e-01,9.99999e-01,9.80588e-01,4.31943e-01,9.99999e-01
9.108779334e-01,4.19124e-01,9.99999e-01,9.54364e-01,4.39165e-01,9.99999e-01
9.154323231e-01,4.41439e-01,9.99999e-01,9.88970e-01,4.46362e-01,9.99999e-01
9.200094847e-01,3.92115e-01,9.99999e-01,8.64582e-01,4.53530e-01,9.99999e-01
9.246095321e-01,3.66912e-01,9.99999e-01,7.96474e-01,4.60669e-01,9.99999e-01
9.292325798e-01,3.92861e-01,9.99999e-01,8.39847e-01,4.67776e-01,9.99999e-01
9.338787427e-01,3.99939e-01,9.99999e-01,8.42244e-01,4.74849e-01,9.99999e-01
9.385481364e-01,4.24535e-01,9.99999e-01,8.80986e-01,4.81886e-01,9.99999e-01
9.432408771e-01,4.52137e-01,9.99999e-01,9.24831e-01,4.88886e-01,9.99999e-01
9.479570815e-01,4.76425e-01,9.99999e-01,9.60834e-01,4.95845e-01,9.99999e-01
9.526968669e-01,4.93156e-01,9.99999e-01,9.80890e-01,5.02764e-01,9.99999e-01
9.574603512e-01,5.05447e-01,9.99999e-01,9.91774e-01,5.09639e-01,9.99999e-01
9.622476530e-01,5.15140e-01,9.99999e-01,9.97424e-01,5.16470e-01,9.99999e-01
9.670588912e-01,5.22849e-01,9.99999e-01,9.99225e-01,5.23254e-01,9.99999e-01
9.718941857e-01,5.29962e-01,9.99999e-01,9.99943e-01,5.29992e-01,9.99999e-01
9.767536566e-01,5.36680e-01,9.99999e-01,9.99999e-01,5.36680e-01,9.99999e-01
9.816374249e-01,5.43318e-01,9.99999e-01,9.99999e-01,5.43318e-01,9.99999e-01
9.865456120e-01,5.49905e-01,9.99999e-01,9.99999e-01,5.49905e-01,9.99999e-01
9.914783401e-01,5.56439e-01,9.99999e-01,9.99999e-01,5.56439e-01,9.99999e-01
9.964357318e-01,5.62919e-01,9.99999e-01,9.99999e-01,5.62919e-01,9.99999e-01
1.001417910e+00,5.69345e-01,9.99999e-01,9.99999e-01,5.69345e-01,9.99999e-01
1.006425000e+00,5.75715e-01,9.99999e-01,9.99999e-01,5.75715e-01,9.99999e-01
1.011457125e+00,5.82028e-01,9.99999e-01,9.99999e-01,5.82028e-01,9.99999e-01
1.016514411e+00,5.88284e-01,9.99999e-01,9.99999e-01,5.88284e-01,9.99999e-01
1.021596983e+00,5.94426e-01,9.99999e-01,9.99906e-01,5.94481e-01,9.99999e-01
1.026704968e+00,5.96033e-01,9.99999e-01,9.92362e-01,6.00619e-01,9.99999e-01
1.031838492e+00,5.65317e-01,9.99999e-01,9.31792e-01,6.06698e-01,9.99999e-01
1.036997685e+00,4.82150e-02,9.99999e-01,7.86905e-02,6.12716e-01,9.99999e-01
1.042182673e+00,1.02397e-02,9.99999e-01,1.65510e-02,6.18673e-01,9.99999e-01
1.047393587e+00,2.03372e-02,9.99999e-01,3.25619e-02,6.24569e-01,9.99999e-01
1.052630555e+00,2.79788e-05,9.99999e-01,4.43823e-05,6.30403e-01,9.99999e-01
1.057893707e+00,9.61480e-05,9.99999e-01,1.51134e-04,6.36175e-01,9.99999e-01
1.063183176e+00,9.15694e-04,9.99999e-01,1.42657e-03,6.41884e-01,9.99999e-01
1.068499092e+00,5.44002e-03,9.99999e-01,8.40119e-03,6.47529e-01,9.99999e-01
1.073841587e+00,3.07241e-02,9.99999e-01,4.70426e-02,6.53112e-01,9.99999e-01
1.079210795e+00,9.55092e-02,9.99999e-01,1.45012e-01,6.58631e-01,9.99999e-01
1.084606849e+00,2.24717e-01,9.99999e-01,3.38385e-01,6.64086e-01,9.99999e-01
1.090029883e+00,3.80506e-01,9.99999e-01,5.68362e-01,6.69477e-01,9.99999e-01
1.095480033e+00,5.10302e-01,9.99999e-01,7.56222e-01,6.74804e-01,9.99999e-01
1.100957433e+00,5.94187e-01,9.99999e-01,8.73717e-01,6.80068e-01,9.99999e-01
1.106462220e+00,6.47980e-01,9.99999e-01,9.45587e-01,6.85267e-01,9.99999e-01
1.111994531e+00,6.76225e-01,9.99999e-01,9.79465e-01,6.90401e-01,9.99999e-01
1.117554504e+00,6.91940e-01,9.99999e-01,9.94920e-01,6.95472e-01,9.99999e-01
1.123142276e+00,7.00243e-01,9.99999e-01,9.99663e-01,7.00479e-01,9.99999e-01
1.128757988e+00,7.05422e-01,9.99999e-01,9.99999e-01,7.05422e-01,9.99999e-01
1.134401778e+00,7.10301e-01,9.99999e-01,9.99999e-01,7.10301e-01,9.99999e-01
1.140073787e+00,7.15117e-01,9.99999e-01,9.99999e-01,7.15117e-01,9.99999e-01
1.145774156e+00,7.19869e-01,9.99999e-01,9.99999e-01,7.19869e-01,9.99999e-01
1.151503026e+00,7.24558e-01,9.99999e-01,9.99999e-01,7.24558e-01,9.99999e-01
1.157260541e+00,7.29183e-01,9.99999e-01,9.99999e-01,7.29183e-01,9.99999e-01
1.163046844e+00,7.33747e-01,9.99999e-01,9.99999e-01,7.33747e-01,9.99999e-01
1.168862078e+00,7.38247e-01,9.99999e-01,9.99999e-01,7.38247e-01,9.99999e-01
1.174706389e+00,7.42686e-01,9.99999e-01,9.99999e-01,7.42686e-01,9.99999e-01
1.180579921e+00,7.47063e-01,9.99999e-01,9.99999e-01,7.47063e-01,9.99999e-01
1.186482820e+00,7.51371e-01,9.99999e-01,9.99990e-01,7.51378e-01,9.99999e-01
1.192415234e+00,7.35726e-01,9.99999e-01,9.73655e-01,7.55633e-01,9.99999e-01
1.198377311e+00,4.09575e-01,9.99999e-01,5.39037e-01,7.59826e-01,9.99999e-01
1.204369197e+00,4.20057e-21,9.99999e-01,5.49841e-21,7.63960e-01,9.99999e-01
1.210391043e+00,3.00569e-83,9.99999e-01,3.91349e-83,7.68034e-01,9.99999e-01
1.216442998e+00,3.89877e-72,9.99999e-01,5.04990e-72,7.72048e-01,9.99999e-01
1.222525213e+00,4.59917e-71,9.99999e-01,5.92674e-71,7.76003e-01,9.99999e-01
1.228637839e+00,6.18210e-55,9.99999e-01,7.92677e-55,7.79900e-01,9.99999e-01
1.234781029e+00,1.76492e-34,9.99999e-01,2.25192e-34,7.83739e-01,9.99999e-01
1.240954934e+00,4.96053e-23,9.99999e-01,6.29891e-23,7.87520e-01,9.99999e-01
1.247159708e+00,7.11611e-15,9.99999e-01,8.99355e-15,7.91245e-01,9.99999e-01
1.253395507e+00,9.14959e-08,9.99999e-01,1.15102e-07,7.94913e-01,9.99999e-01
1.259662485e+00,4.92884e-05,9.99999e-01,6.17242e-05,7.98525e-01,9.99999e-01
1.265960797e+00,4.54214e-03,9.99999e-01,5.66294e-03,8.02081e-01,9.99999e-01
1.272290601e+00,6.67646e-02,9.99999e-01,8.28773e-02,8.05583e-01,9.99999e-01
1.278652054e+00,7.06278e-02,9.99999e-01,8.72992e-02,8.09031e-01,9.99999e-01
1.285045314e+00,3.58862e-04,9.99999e-01,4.41718e-04,8.12424e-01,9.99999e-01
1.291470541e+00,3.29768e-10,9.99999e-01,4.04244e-10,8.15765e-01,9.99999e-01
1.297927893e+00,7.93893e-05,9.99999e-01,9.69281e-05,8.19052e-01,9.99999e-01
1.304417533e+00,1.17468e-02,9.99999e-01,1.42855e-02,8.22288e-01,9.99999e-01
1.310939621e+00,2.95762e-03,9.99999e-01,3.58294e-03,8.25472e-01,9.99999e-01
1.317494319e+00,1.03963e-28,9.99999e-01,1.25467e-28,8.28605e-01,9.99999e-01
1.324081790e+00,4.32254e-19,9.99999e-01,5.19730e-19,8.31688e-01,9.99999e-01
1.330702199e+00,2.43715e-11,9.99999e-01,2.91972e-11,8.34721e-01,9.99999e-01
1.337355710e+00,1.38625e-10,9.99999e-01,1.65482e-10,8.37705e-01,9.99999e-01
1.344042489e+00,6.09300e-11,9.99999e-01,7.24803e-11,8.40641e-01,9.99999e-01
1.350762701e+00,1.26372e-11,9.99999e-01,1.49813e-11,8.43528e-01,9.99999e-01
1.357516515e+00,2.11819e-07,9.99999e-01,2.50268e-07,8.46368e-01,9.99999e-01
1.364304097e+00,2.23271e-05,9.99999e-01,2.62932e-05,8.49161e-01,9.99999e-01
1.371125618e+00,3.81636e-03,9.99999e-01,4.47978e-03,8.51908e-01,9.99999e-01
1.377981246e+00,8.59402e-03,9.99999e-01,1.00561e-02,8.54609e-01,9.99999e-01
1.384871152e+00,5.89021e-02,9.99999e-01,6.87092e-02,8.57266e-01,9.99999e-01
1.391795508e+00,7.21813e-02,9.99999e-01,8.39436e-02,8.59877e-01,9.99999e-01
1.398754485e+00,1.83982e-01,9.99999e-01,2.13326e-01,8.62445e-01,9.99999e-01
1.405748258e+00,2.78870e-01,9.99999e-01,3.22404e-01,8.64970e-01,9.99999e-01
1.412776999e+00,4.22641e-01,9.99999e-01,4.87220e-01,8.67452e-01,9.99999e-01
1.419840884e+00,3.89391e-01,9.99999e-01,4.47631e-01,8.69892e-01,9.99999e-01
1.426940089e+00,1.99051e-02,9.99999e-01,2.28194e-02,8.72290e-01,9.99999e-01
1.434074789e+00,0.00000e+00,9.99999e-01,0.00000e+00,8.74647e-01,9.99999e-01
1.441245163e+00,0.00000e+00,9.99999e-01,0.00000e+00,8.76964e-01,9.99999e-01
1.448451389e+00,0.00000e+00,9.99999e-01,0.00000e+00,8.79241e-01,9.99999e-01
1.455693646e+00,0.00000e+00,9.99999e-01,0.00000e+00,8.81479e-01,9.99999e-01
1.462972114e+00,0.00000e+00,9.99999e-01,0.00000e+00,8.83679e-01,9.99999e-01
1.470286975e+00,1.62577e-137,9.99999e-01,1.83528e-137,8.85840e-01,9.99999e-01
