#,Wave/freq,Total,N2,CO2,Rayleigh,CIA
4.000000000e-01,1.26046e-02,9.99999e-01,9.99999e-01,1.26046e-02,9.99999e-01
4.020000000e-01,1.37432e-02,9.99999e-01,9.99999e-01,1.37432e-02,9.99999e-01
4.040100000e-01,1.49577e-02,9.99999e-01,9.99999e-01,1.49577e-02,9.99999e-01
4.060300500e-01,1.62524e-02,9.99999e-01,9.99999e-01,1.62524e-02,9.99999e-01
4.080602003e-01,1.76301e-02,9.99999e-01,9.99999e-01,1.76301e-02,9.99999e-01
4.101005013e-01,1.90940e-02,9.99999e-01,9.99999e-01,1.90940e-02,9.99999e-01
4.121510038e-01,2.06468e-02,9.99999e-01,9.99999e-01,2.06468e-02,9.99999e-01
4.142117588e-01,2.22915e-02,9.99999e-01,9.99999e-01,2.22915e-02,9.99999e-01
4.162828176e-01,2.40307e-02,9.99999e-01,9.99999e-01,2.40307e-02,9.99999e-01
4.183642317e-01,2.58673e-02,9.99999e-01,9.99999e-01,2.58673e-02,9.99999e-01
4.204560528e-01,2.78037e-02,9.99999e-01,9.99999e-01,2.78037e-02,9.99999e-01
4.225583331e-01,2.98425e-02,9.99999e-01,9.99999e-01,2.98425e-02,9.99999e-01
4.246711247e-01,3.19861e-02,9.99999e-01,9.99999e-01,3.19861e-02,9.99999e-01
4.267944804e-01,3.42367e-02,9.99999e-01,9.99999e-01,3.42367e-02,9.99999e-01
4.289284528e-01,3.65965e-02,9.99999e-01,9.99999e-01,3.65965e-02,9.99999e-01
4.310730950e-01,3.90674e-02,9.99999e-01,9.99999e-01,3.90674e-02,9.99999e-01
4.332284605e-01,4.16515e-02,9.99999e-01,9.99999e-01,4.16515e-02,9.99999e-01
4.353946028e-01,4.43502e-02,9.99999e-01,9.99999e-01,4.43502e-02,9.99999e-01
4.375715758e-01,4.71653e-02,9.99999e-01,9.99999e-01,4.71653e-02,9.99999e-01
4.397594337e-01,5.00982e-02,9.99999e-01,9.99999e-01,5.00982e-02,9.99999e-01
4.419582309e-01,5.31501e-02,9.99999e-01,9.99999e-01,5.31501e-02,9.99999e-01
4.441680220e-01,5.63220e-02,9.99999e-01,9.99999e-01,5.63220e-02,9.99999e-01
4.463888621e-01,5.96150e-02,9.99999e-01,9.99999e-01,5.96150e-02,9.99999e-01
4.486208064e-01,6.30297e-02,9.99999e-01,9.99999e-01,6.30297e-02,9.99999e-01
4.508639105e-01,6.65667e-02,9.99999e-01,9.99999e-01,6.65667e-02,9.99999e-01
4.531182300e-01,7.02265e-02,9.99999e-01,9.99999e-01,7.02265e-02,9.99999e-01
4.553838212e-01,7.40091e-02,9.99999e-01,9.99999e-01,7.40091e-02,9.99999e-01
4.576607403e-01,7.79148e-02,9.99999e-01,9.99999e-01,7.79148e-02,9.99999e-01
4.599490440e-01,8.19432e-02,9.99999e-01,9.99999e-01,8.19432e-02,9.99999e-01
4.622487892e-01,8.60942e-02,9.99999e-01,9.99999e-01,8.60942e-02,9.99999e-01
4.645600332e-01,9.03672e-02,9.99999e-01,9.99999e-01,9.03672e-02,9.99999e-01
4.668828333e-01,9.47615e-02,9.99999e-01,9.99999e-01,9.47615e-02,9.99999e-01
4.692172475e-01,9.92764e-02,9.99999e-01,9.99999e-01,9.92764e-02,9.99999e-01
4.715633337e-01,1.03911e-01,9.99999e-01,9.99999e-01,1.03911e-01,9.99999e-01
4.739211504e-01,1.08664e-01,9.99999e-01,9.99999e-01,1.08664e-01,9.99999e-01
4.762907561e-01,1.13533e-01,9.99999e-01,9.99999e-01,1.13533e-01,9.99999e-01
4.786722099e-01,1.18519e-01,9.99999e-01,9.99999e-01,1.18519e-01,9.99999e-01
4.810655710e-01,1.23618e-01,9.99999e-01,9.99999e-01,1.23618e-01,9.99999e-01
4.834708988e-01,1.28830e-01,9.99999e-01,9.99999e-01,1.28830e-01,9.99999e-01
4.858882533e-01,1.34152e-01,9.99999e-01,9.99999e-01,1.34152e-01,9.99999e-01
4.883176946e-01,1.39581e-01,9.99999e-01,9.99999e-01,1.39581e-01,9.99999e-01
4.907592831e-01,1.45117e-01,9.99999e-01,9.99999e-01,1.45117e-01,9.99999e-01
4.932130795e-01,1.50757e-01,9.99999e-01,9.99999e-01,1.50757e-01,9.99999e-01
4.956791449e-01,1.56498e-01,9.99999e-01,9.99999e-01,1.56498e-01,9.99999e-01
4.981575406e-01,1.62338e-01,9.99999e-01,9.99999e-01,1.62338e-01,9.99999e-01
5.006483283e-01,1.68273e-01,9.99999e-01,9.99999e-01,1.68273e-01,9.99999e-01
5.031515699e-01,1.74302e-01,9.99999e-01,9.99999e-01,1.74302e-01,9.99999e-01
5.056673278e-01,1.80422e-01,9.99999e-01,9.99999e-01,1.80422e-01,9.99999e-01
5.081956644e-01,1.86629e-01,9.99999e-01,9.99999e-01,1.86629e-01,9.99999e-01
5.107366428e-01,1.92921e-01,9.99999e-01,9.99999e-01,1.92921e-01,9.99999e-01
5.132903260e-01,1.99294e-01,9.99999e-01,9.99999e-01,1.99294e-01,9.99999e-01
5.158567776e-01,2.05746e-01,9.99999e-01,9.99999e-01,2.05746e-01,9.99999e-01
5.184360615e-01,2.12273e-01,9.99999e-01,9.99999e-01,2.12273e-01,9.99999e-01
5.210282418e-01,2.18872e-01,9.99999e-01,9.99999e-01,2.18872e-01,9.99999e-01
5.236333830e-01,2.25540e-01,9.99999e-01,9.99999e-01,2.25540e-01,9.99999e-01
5.262515499e-01,2.32273e-01,9.99999e-01,9.99999e-01,2.32273e-01,9.99999e-01
5.288828077e-01,2.39068e-01,9.99999e-01,9.99999e-01,2.39068e-01,9.99999e-01
5.315272217e-01,2.45922e-01,9.99999e-01,9.99999e-01,2.45922e-01,9.99999e-01
5.341848578e-01,2.52831e-01,9.99999e-01,9.99999e-01,2.52831e-01,9.99999e-01
5.368557821e-01,2.59792e-01,9.99999e-01,9.99999e-01,2.59792e-01,9.99999e-01
5.395400610e-01,2.66802e-01,9.99999e-01,9.99999e-01,2.66802e-01,9.99999e-01
5.422377613e-01,2.73857e-01,9.99999e-01,9.99999e-01,2.73857e-01,9.99999e-01
5.449489501e-01,2.80953e-01,9.99999e-01,9.99999e-01,2.80953e-01,9.99999e-01
5.476736949e-01,2.88088e-01,9.99999e-01,9.99999e-01,2.88088e-01,9.99999e-01
5.504120634e-01,2.95257e-01,9.99999e-01,9.99999e-01,2.95257e-01,9.99999e-01
5.531641237e-01,3.02458e-01,9.99999e-01,9.99999e-01,3.02458e-01,9.99999e-01
5.559299443e-01,3.09687e-01,9.99999e-01,9.99999e-01,3.09687e-01,9.99999e-01
5.587095940e-01,3.16941e-01,9.99999e-01,9.99999e-01,3.16941e-01,9.99999e-01
5.615031420e-01,3.24217e-01,9.99999e-01,9.99999e-01,3.24217e-01,9.99999e-01
5.643106577e-01,3.31511e-01,9.99999e-01,9.99999e-01,3.31511e-01,9.99999e-01
5.671322110e-01,3.38820e-01,9.99999e-01,9.99999e-01,3.38820e-01,9.99999e-01
5.699678720e-01,3.46141e-01,9.99999e-01,9.99999e-01,3.46141e-01,9.99999e-01
5.728177114e-01,3.53471e-01,9.99999e-01,9.99999e-01,3.53471e-01,9.99999e-01
5.756818000e-01,3.60807e-01,9.99999e-01,9.99999e-01,3.60807e-01,9.99999e-01
5.785602090e-01,3.68146e-01,9.99999e-01,9.99999e-01,3.68146e-01,9.99999e-01
5.814530100e-01,3.75485e-01,9.99999e-01,9.99999e-01,3.75485e-01,9.99999e-01
5.843602750e-01,3.82821e-01,9.99999e-01,9.99999e-01,3.82821e-01,9.99999e-01
5.872820764e-01,3.90150e-01,9.99999e-01,9.99999e-01,3.90150e-01,9.99999e-01
5.902184868e-01,3.97472e-01,9.99999e-01,9.99999e-01,3.97472e-01,9.99999e-01
5.931695792e-01,4.04782e-01,9.99999e-01,9.99999e-01,4.04782e-01,9.99999e-01
5.961354271e-01,4.12078e-01,9.99999e-01,9.99999e-01,4.12078e-01,9.99999e-01
5.991161043e-01,4.19358e-01,9.99999e-01,9.99999e-01,4.19358e-01,9.99999e-01
6.021116848e-01,4.26618e-01,9.99999e-01,9.99999e-01,4.26618e-01,9.99999e-01
6.051222432e-01,4.33857e-01,9.99999e-01,9.99999e-01,4.33857e-01,9.99999e-01
6.081478544e-01,4.41073e-01,9.99999e-01,9.99999e-01,4.41073e-01,9.99999e-01
6.111885937e-01,4.48262e-01,9.99999e-01,9.99999e-01,4.48262e-01,9.99999e-01
6.142445367e-01,4.55423e-01,9.99999e-01,9.99999e-01,4.55423e-01,9.99999e-01
6.173157594e-01,4.62554e-01,9.99999e-01,9.99999e-01,4.62554e-01,9.99999e-01
6.204023382e-01,4.69652e-01,9.99999e-01,9.99999e-01,4.69652e-01,9.99999e-01
6.235043498e-01,4.76716e-01,9.99999e-01,9.99999e-01,4.76716e-01,9.99999e-01
6.266218716e-01,4.83743e-01,9.99999e-01,9.99999e-01,4.83743e-01,9.99999e-01
6.297549810e-01,4.90732e-01,9.99999e-01,9.99999e-01,4.90732e-01,9.99999e-01
6.329037559e-01,4.97681e-01,9.99999e-01,9.99999e-01,4.97681e-01,9.99999e-01
6.360682746e-01,5.04588e-01,9.99999e-01,9.99999e-01,5.04588e-01,9.99999e-01
6.392486160e-01,5.11452e-01,9.99999e-01,9.99999e-01,5.11452e-01,9.99999e-01
6.424448591e-01,5.18270e-01,9.99999e-01,9.99999e-01,5.18270e-01,9.99999e-01
6.456570834e-01,5.25043e-01,9.99999e-01,9.99999e-01,5.25043e-01,9.99999e-01
6.488853688e-01,5.31767e-01,9.99999e-01,9.99999e-01,5.31767e-01,9.99999e-01
6.521297956e-01,5.38442e-01,9.99999e-01,9.99999e-01,5.38442e-01,9.99999e-01
6.553904446e-01,5.45067e-01,9.99999e-01,9.99999e-01,5.45067e-01,9.99999e-01
6.586673968e-01,5.51640e-01,9.99999e-01,9.99999e-01,5.51640e-01,9.99999e-01
6.619607338e-01,5.58160e-01,9.99999e-01,9.99999e-01,5.58160e-01,9.99999e-01
6.652705375e-01,5.64626e-01,9.99999e-01,9.99999e-01,5.64626e-01,9.99999e-01
6.685968902e-01,5.71036e-01,9.99999e-01,9.99999e-01,5.71036e-01,9.99999e-01
6.719398746e-01,5.77391e-01,9.99999e-01,9.99999e-01,5.77391e-01,9.99999e-01
6.752995740e-01,5.83690e-01,9.99999e-01,9.99999e-01,5.83690e-01,9.99999e-01
6.786760719e-01,5.89930e-01,9.99999e-01,9.99999e-01,5.89930e-01,9.99999e-01
6.820694522e-01,5.96112e-01,9.99999e-01,9.99999e-01,5.96112e-01,9.99999e-01
6.854797995e-01,6.02234e-01,9.99999e-01,9.99999e-01,6.02234e-01,9.99999e-01
6.889071985e-01,6.08297e-01,9.99999e-01,9.99999e-01,6.08297e-01,9.99999e-01
6.923517345e-01,6.14299e-01,9.99999e-01,9.99999e-01,6.14299e-01,9.99999e-01
6.958134932e-01,6.20240e-01,9.99999e-01,9.99999e-01,6.20240e-01,9.99999e-01
6.992925606e-01,6.26120e-01,9.99999e-01,9.99999e-01,6.26120e-01,9.99999e-01
7.027890234e-01,6.31937e-01,9.99999e-01,9.99999e-01,6.31937e-01,9.99999e-01
7.063029686e-01,6.37692e-01,9.99999e-01,9.99999e-01,6.37692e-01,9.99999e-01
7.098344834e-01,6.43384e-01,9.99999e-01,9.99999e-01,6.43384e-01,9.99999e-01
7.133836558e-01,6.49013e-01,9.99999e-01,9.99999e-01,6.49013e-01,9.99999e-01
7.169505741e-01,6.54579e-01,9.99999e-01,9.99999e-01,6.54579e-01,9.99999e-01
7.205353270e-01,6.60081e-01,9.99999e-01,9.99999e-01,6.60081e-01,9.99999e-01
7.241380036e-01,6.65519e-01,9.99999e-01,9.99999e-01,6.65519e-01,9.99999e-01
7.277586936e-01,6.70894e-01,9.99999e-01,9.99999e-01,6.70894e-01,9.99999e-01
7.313974871e-01,6.76204e-01,9.99999e-01,9.99999e-01,6.76204e-01,9.99999e-01
7.350544745e-01,6.81450e-01,9.99999e-01,9.99999e-01,6.81450e-01,9.99999e-01
7.387297469e-01,6.86632e-01,9.99999e-01,9.99999e-01,6.86632e-01,9.99999e-01
7.424233956e-01,6.91750e-01,9.99999e-01,9.99999e-01,6.91750e-01,9.99999e-01
7.461355126e-01,6.96804e-01,9.99999e-01,9.99999e-01,6.96804e-01,9.99999e-01
7.498661902e-01,7.01794e-01,9.99999e-01,9.99999e-01,7.01794e-01,9.99999e-01
7.536155211e-01,7.06720e-01,9.99999e-01,9.99999e-01,7.06720e-01,9.99999e-01
7.573835987e-01,7.11582e-01,9.99999e-01,9.99999e-01,7.11582e-01,9.99999e-01
7.611705167e-01,7.16381e-01,9.99999e-01,9.99999e-01,7.16381e-01,9.99999e-01
7.649763693e-01,7.21116e-01,9.99999e-01,9.99999e-01,7.21116e-01,9.99999e-01
7.688012511e-01,7.25788e-01,9.99999e-01,9.99999e-01,7.25788e-01,9.99999e-01
7.726452574e-01,7.30397e-01,9.99999e-01,9.99999e-01,7.30397e-01,9.99999e-01
7.765084837e-01,7.34944e-01,9.99999e-01,9.99999e-01,7.34944e-01,9.99999e-01
7.803910261e-01,7.28696e-01,9.99999e-01,9.85485e-01,7.39428e-01,9.99999e-01
7.842929812e-01,6.97630e-01,9.99999e-01,9.37862e-01,7.43851e-01,9.99999e-01
7.882144461e-01,6.98558e-01,9.99999e-01,9.33637e-01,7.48211e-01,9.99999e-01
7.921555184e-01,7.23501e-01,9.99999e-01,9.61449e-01,7.52510e-01,9.99999e-01
7.961162960e-01,7.37061e-01,9.99999e-01,9.73983e-01,7.56749e-01,9.99999e-01
8.000968774e-01,7.50152e-01,9.99999e-01,9.85840e-01,7.60926e-01,9.99999e-01
8.040973618e-01,7.59402e-01,9.99999e-01,9.92625e-01,7.65044e-01,9.99999e-01
8.081178486e-01,7.66502e-01,9.99999e-01,9.96619e-01,7.69102e-01,9.99999e-01
8.121584379e-01,7.72288e-01,9.99999e-01,9.98948e-01,7.73101e-01,9.99999e-01
8.162192301e-01,7.76860e-01,9.99999e-01,9.99767e-01,7.77040e-01,9.99999e-01
8.203003262e-01,7.80919e-01,9.99999e-01,9.99995e-01,7.80922e-01,9.99999e-01
8.244018279e-01,7.84746e-01,9.99999e-01,9.99999e-01,7.84746e-01,9.99999e-01
8.285238370e-01,7.88512e-01,9.99999e-01,9.99999e-01,7.88512e-01,9.99999e-01
8.326664562e-01,7.92221e-01,9.99999e-01,9.99999e-01,7.92221e-01,9.99999e-01
8.368297885e-01,7.95874e-01,9.99999e-01,9.99999e-01,7.95874e-01,9.99999e-01
8.410139374e-01,7.99472e-01,9.99999e-01,9.99999e-01,7.99472e-01,9.99999e-01
8.452190071e-01,8.03014e-01,9.99999e-01,9.99999e-01,8.03014e-01,9.99999e-01
8.494451021e-01,8.06501e-01,9.99999e-01,9.99999e-01,8.06501e-01,9.99999e-01
8.536923276e-01,8.09934e-01,9.99999e-01,9.99999e-01,8.09934e-01,9.99999e-01
8.579607893e-01,8.13314e-01,9.99999e-01,9.99999e-01,8.13314e-01,9.99999e-01
8.622505932e-01,8.16640e-01,9.99999e-01,9.99999e-01,8.16640e-01,9.99999e-01
8.665618462e-01,7.87302e-01,9.99999e-01,9.60224e-01,8.19914e-01,9.99999e-01
8.708946554e-01,6.97662e-01,9.99999e-01,8.47565e-01,8.23136e-01,9.99999e-01
8.752491287e-01,7.24475e-01,9.99999e-01,8.76762e-01,8.26307e-01,9.99999e-01
8.796253743e-01,7.72274e-01,9.99999e-01,9.31093e-01,8.29426e-01,9.99999e-01
8.840235012e-01,8.02428e-01,9.99999e-01,9.63881e-01,8.32496e-01,9.99999e-01
8.884436187e-01,8.23486e-01,9.99999e-01,9.85600e-01,8.35516e-01,9.99999e-01
8.928858368e-01,8.33590e-01,9.99999e-01,9.94158e-01,8.38487e-01,9.99999e-01
8.973502660e-01,8.40209e-01,9.99999e-01,9.98572e-01,8.41410e-01,9.99999e-01
9.018370173e-01,8.44152e-01,9.99999e-01,9.99842e-01,8.44284e-01,9.99999e-01
9.063462024e-01,8.43747e-01,9.99999e-01,9.96027e-01,8.47112e-01,9.99999e-01
9.108779334e-01,8.42075e-01,9.99999e-01,9.90801e-01,8.49893e-01,9.99999e-01
9.154323231e-01,8.50770e-01,9.99999e-01,9.97821e-01,8.52628e-01,9.99999e-01
9.200094847e-01,8.27997e-01,9.99999e-01,9.68057e-01,8.55317e-01,9.99999e-01
9.246095321e-01,8.19970e-01,9.99999e-01,9.55718e-01,8.57961e-01,9.99999e-01
9.292325798e-01,8.30593e-01,9.99999e-01,9.65175e-01,8.60561e-01,9.99999e-01
9.338787427e-01,8.33958e-01,9.99999e-01,9.66214e-01,8.63118e-01,9.99999e-01
9.385481364e-01,8.44109e-01,9.99999e-01,9.75136e-01,8.65631e-01,9.99999e-01
9.432408771e-01,8.54820e-01,9.99999e-01,9.84700e-01,8.68102e-01,9.99999e-01
9.479570815e-01,8.63688e-01,9.99999e-01,9.92139e-01,8.70531e-01,9.99999e-01
9.526968669e-01,8.69599e-01,9.99999e-01,9.96197e-01,8.72918e-01,9.99999e-01
9.574603512e-01,8.73840e-01,9.99999e-01,9.98372e-01,8.75265e-01,9.99999e-01
9.622476530e-01,8.77125e-01,9.99999e-01,9.99491e-01,8.77571e-01,9.99999e-01
9.670588912e-01,8.79704e-01,9.99999e-01,9.99847e-01,8.79838e-01,9.99999e-01
9.718941857e-01,8.82056e-01,9.99999e-01,9.99988e-01,8.82065e-01,9.99999e-01
9.767536566e-01,8.84254e-01,9.99999e-01,9.99999e-01,8.84254e-01,9.99999e-01
9.816374249e-01,8.86405e-01,9.99999e-01,9.99999e-01,8.86405e-01,9.99999e-01
9.865456120e-01,8.88519e-01,9.99999e-01,9.99999e-01,8.88519e-01,9.99999e-01
9.914783401e-01,8.90596e-01,9.99999e-01,9.99999e-01,8.90596e-01,9.99999e-01
9.964357318e-01,8.92637e-01,9.99999e-01,9.99999e-01,8.92637e-01,9.99999e-01
1.001417910e+00,8.94641e-01,9.99999e-01,9.99999e-01,8.94641e-01,9.99999e-01
1.006425000e+00,8.96611e-01,9.99999e-01,9.99999e-01,8.96611e-01,9.99999e-01
1.011457125e+00,8.98546e-01,9.99999e-01,9.99999e-01,8.98546e-01,9.99999e-01
1.016514411e+00,9.00446e-01,9.99999e-01,9.99999e-01,9.00446e-01,9.99999e-01
1.021596983e+00,9.02296e-01,9.99999e-01,9.99979e-01,9.02313e-01,9.99999e-01
1.026704968e+00,9.02755e-01,9.99999e-01,9.98459e-01,9.04147e-01,9.99999e-01
1.031838492e+00,8.85522e-01,9.99999e-01,9.77452e-01,9.05949e-01,9.99999e-01
1.036997685e+00,2.94327e-01,9.99999e-01,3.24249e-01,9.07718e-01,9.99999e-01
1.042182673e+00,3.58604e-01,9.99999e-01,3.94306e-01,9.09456e-01,9.99999e-01
1.047393587e+00,3.27323e-01,9.99999e-01,3.59237e-01,9.11162e-01,9.99999e-01
1.052630555e+00,6.25256e-02,9.99999e-01,6.84958e-02,9.12838e-01,9.99999e-01
1.057893707e+00,1.11385e-01,9.99999e-01,1.21800e-01,9.14484e-01,9.99999e-01
1.063183176e+00,2.00521e-01,9.99999e-01,2.18885e-01,9.16100e-01,9.99999e-01
1.068499092e+00,3.35804e-01,9.99999e-01,3.65924e-01,9.17687e-01,9.99999e-01
1.073841587e+00,4.87010e-01,9.99999e-01,5.29793e-01,9.19245e-01,9.99999e-01
1.079210795e+00,6.17231e-01,9.99999e-01,6.70337e-01,9.20776e-01,9.99999e-01
1.084606849e+00,7.41450e-01,9.99999e-01,8.03932e-01,9.22278e-01,9.99999e-01
1.090029883e+00,8.25192e-01,9.99999e-01,8.93303e-01,9.23753e-01,9.99999e-01
1.095480033e+00,8.75181e-01,9.99999e-01,9.45934e-01,9.25201e-01,9.99999e-01
1.100957433e+00,9.02186e-01,9.99999e-01,9.73627e-01,9.26623e-01,9.99999e-01
1.106462220e+00,9.17817e-01,9.99999e-01,9.89006e-01,9.28019e-01,9.99999e-01
1.111994531e+00,9.25591e-01,9.99999e-01,9.95913e-01,9.29389e-01,9.99999e-01
1.117554504e+00,9.29802e-01,9.99999e-01,9.98997e-01,9.30735e-01,9.99999e-01
1.123142276e+00,9.31994e-01,9.99999e-01,9.99933e-01,9.32055e-01,9.99999e-01
1.128757988e+00,9.33351e-01,9.99999e-01,9.99999e-01,9.33351e-01,9.99999e-01
1.134401778e+00,9.34624e-01,9.99999e-01,9.99999e-01,9.34624e-01,9.99999e-01
1.140073787e+00,9.35873e-01,9.99999e-01,9.99999e-01,9.35873e-01,9.99999e-01
1.145774156e+00,9.37099e-01,9.99999e-01,9.99999e-01,9.37099e-01,9.99999e-01
1.151503026e+00,9.38302e-01,9.99999e-01,9.99999e-01,9.38302e-01,9.99999e-01
1.157260541e+00,9.39483e-01,9.99999e-01,9.99999e-01,9.39483e-01,9.99999e-01
1.163046844e+00,9.40642e-01,9.99999e-01,9.99999e-01,9.40642e-01,9.99999e-01
1.168862078e+00,9.41780e-01,9.99999e-01,9.99999e-01,9.41780e-01,9.99999e-01
1.174706389e+00,9.42896e-01,9.99999e-01,9.99999e-01,9.42896e-01,9.99999e-01
1.180579921e+00,9.43992e-01,9.99999e-01,9.99999e-01,9.43992e-01,9.99999e-01
1.186482820e+00,9.45065e-01,9.99999e-01,9.99997e-01,9.45067e-01,9.99999e-01
1.192415234e+00,9.40899e-01,9.99999e-01,9.94477e-01,9.46123e-01,9.99999e-01
1.198377311e+00,5.63569e-01,9.99999e-01,5.95010e-01,9.47158e-01,9.99999e-01
1.204369197e+00,5.67930e-06,9.99999e-01,5.98972e-06,9.48174e-01,9.99999e-01
1.210391043e+00,2.91269e-18,9.99999e-01,3.06866e-18,9.49172e-01,9.99999e-01
1.216442998e+00,4.70783e-16,9.99999e-01,4.95482e-16,9.50150e-01,9.99999e-01
1.222525213e+00,8.25679e-16,9.99999e-01,8.68120e-16,9.51110e-01,9.99999e-01
1.228637839e+00,3.96000e-12,9.99999e-01,4.15943e-12,9.52052e-01,9.99999e-01
1.234781029e+00,1.40848e-08,9.99999e-01,1.47798e-08,9.52977e-01,9.99999e-01
1.240954934e+00,7.57338e-06,9.99999e-01,7.93951e-06,9.53884e-01,9.99999e-01
1.247159708e+00,1.34405e-03,9.99999e-01,1.40771e-03,9.54774e-01,9.99999e-01
1.253395507e+00,2.64197e-02,9.99999e-01,2.76458e-02,9.55647e-01,9.99999e-01
1.259662485e+00,1.25537e-01,9.99999e-01,1.31246e-01,9.56504e-01,9.99999e-01
1.265960797e+00,2.94711e-01,9.99999e-01,3.07842e-01,9.57344e-01,9.99999e-01
1.272290601e+00,5.70004e-01,9.99999e-01,5.94888e-01,9.58169e-01,9.99999e-01
1.278652054e+00,5.32895e-01,9.99999e-01,5.55690e-01,9.58978e-01,9.99999e-01
1.285045314e+00,5.57218e-02,9.99999e-01,5.80573e-02,9.59772e-01,9.99999e-01
1.291470541e+00,8.07774e-03,9.99999e-01,8.40948e-03,9.60551e-01,9.99999e-01
1.297927893e+00,6.19503e-02,9.99999e-01,6.44432e-02,9.61314e-01,9.99999e-01
1.304417533e+00,4.02665e-01,9.99999e-01,4.18543e-01,9.62064e-01,9.99999e-01
1.310939621e+00,1.21578e-01,9.99999e-01,1.26276e-01,9.62799e-01,9.99999e-01
1.317494319e+00,1.08546e-06,9.99999e-01,1.12655e-06,9.63520e-01,9.99999e-01
1.324081790e+00,4.82219e-05,9.99999e-01,5.00108e-05,9.64228e-01,9.99999e-01
1.330702199e+00,5.49181e-03,9.99999e-01,5.69145e-03,9.64922e-01,9.99999e-01
1.337355710e+00,3.68781e-03,9.99999e-01,3.81918e-03,9.65603e-01,9.99999e-01
1.344042489e+00,1.43802e-03,9.99999e-01,1.48821e-03,9.66270e-01,9.99999e-01
1.350762701e+00,4.38279e-03,9.99999e-01,4.53270e-03,9.66926e-01,9.99999e-01
1.357516515e+00,2.71479e-02,9.99999e-01,2.80579e-02,9.67568e-01,9.99999e-01
1.364304097e+00,1.06879e-01,9.99999e-01,1.10390e-01,9.68198e-01,9.99999e-01
1.371125618e+00,3.00577e-01,9.99999e-01,3.10251e-01,9.68817e-01,9.99999e-01
1.377981246e+00,3.83405e-01,9.99999e-01,3.95497e-01,9.69423e-01,9.99999e-01
1.384871152e+00,5.64978e-01,9.99999e-01,5.82440e-01,9.70018e-01,9.99999e-01
1.391795508e+00,5.89294e-01,9.99999e-01,6.07143e-01,9.70601e-01,9.99999e-01
1.398754485e+00,7.14859e-01,9.99999e-01,7.36077e-01,9.71174e-01,9.99999e-01
1.405748258e+00,7.74813e-01,9.99999e-01,7.97350e-01,9.71735e-01,9.99999e-01
1.412776999e+00,8.42954e-01,9.99999e-01,8.66981e-01,9.72285e-01,9.99999e-01
1.419840884e+00,7.89525e-01,9.99999e-01,8.11578e-01,9.72825e-01,9.99999e-01
1.426940089e+00,1.12288e-01,9.99999e-01,1.15361e-01,9.73355e-01,9.99999e-01
1.434074789e+00,8.49854e-253,9.99999e-01,8.72652e-253,9.73874e-01,9.99999e-01
1.441245163e+00,0.00000e+00,9.99999e-01,0.00000e+00,9.74383e-01,9.99999e-01
1.448451389e+00,1.86066e-306,9.99999e-01,1.90859e-306,9.74883e-01,9.99999e-01
1.455693646e+00,2.23009e-137,9.99999e-01,2.28640e-137,9.75373e-01,9.99999e-01
1.462972114e+00,3.06548e-67,9.99999e-01,3.14133e-67,9.75853e-01,9.99999e-01
1.470286975e+00,5.47073e-29,9.99999e-01,5.60339e-29,9.76325e-01,9.99999e-01
