#,Wave/freq,Total,N2,CO2,Rayleigh,CIA
4.000000000e-01,1.08413e-02,9.99999e-01,9.99999e-01,1.08413e-02,9.99999e-01
4.020000000e-01,1.18558e-02,9.99999e-01,9.99999e-01,1.18558e-02,9.99999e-01
4.040100000e-01,1.29412e-02,9.99999e-01,9.99999e-01,1.29412e-02,9.99999e-01
4.060300500e-01,1.41016e-02,9.99999e-01,9.99999e-01,1.41016e-02,9.99999e-01
4.080602003e-01,1.53400e-02,9.99999e-01,9.99999e-01,1.53400e-02,9.99999e-01
4.101005013e-01,1.66594e-02,9.99999e-01,9.99999e-01,1.66594e-02,9.99999e-01
4.121510038e-01,1.80629e-02,9.99999e-01,9.99999e-01,1.80629e-02,9.99999e-01
4.142117588e-01,1.95533e-02,9.99999e-01,9.99999e-01,1.95533e-02,9.99999e-01
4.162828176e-01,2.11335e-02,9.99999e-01,9.99999e-01,2.11335e-02,9.99999e-01
4.183642317e-01,2.28065e-02,9.99999e-01,9.99999e-01,2.28065e-02,9.99999e-01
4.204560528e-01,2.45748e-02,9.99999e-01,9.99999e-01,2.45748e-02,9.99999e-01
4.225583331e-01,2.64413e-02,9.99999e-01,9.99999e-01,2.64413e-02,9.99999e-01
4.246711247e-01,2.84083e-02,9.99999e-01,9.99999e-01,2.84083e-02,9.99999e-01
4.267944804e-01,3.04785e-02,9.99999e-01,9.99999e-01,3.04785e-02,9.99999e-01
4.289284528e-01,3.26542e-02,9.99999e-01,9.99999e-01,3.26542e-02,9.99999e-01
4.310730950e-01,3.49375e-02,9.99999e-01,9.99999e-01,3.49375e-02,9.99999e-01
4.332284605e-01,3.73307e-02,9.99999e-01,9.99999e-01,3.73307e-02,9.99999e-01
4.353946028e-01,3.98356e-02,9.99999e-01,9.99999e-01,3.98356e-02,9.99999e-01
4.375715758e-01,4.24541e-02,9.99999e-01,9.99999e-01,4.24541e-02,9.99999e-01
4.397594337e-01,4.51878e-02,9.99999e-01,9.99999e-01,4.51878e-02,9.99999e-01
4.419582309e-01,4.80383e-02,9.99999e-01,9.99999e-01,4.80383e-02,9.99999e-01
4.441680220e-01,5.10070e-02,9.99999e-01,9.99999e-01,5.10070e-02,9.99999e-01
4.463888621e-01,5.40950e-02,9.99999e-01,9.99999e-01,5.40950e-02,9.99999e-01
4.486208064e-01,5.73034e-02,9.99999e-01,9.99999e-01,5.73034e-02,9.99999e-01
4.508639105e-01,6.06331e-02,9.99999e-01,9.99999e-01,6.06331e-02,9.99999e-01
4.531182300e-01,6.40847e-02,9.99999e-01,9.99999e-01,6.40847e-02,9.99999e-01
4.553838212e-01,6.76587e-02,9.99999e-01,9.99999e-01,6.76587e-02,9.99999e-01
4.576607403e-01,7.13555e-02,9.99999e-01,9.99999e-01,7.13555e-02,9.99999e-01
4.599490440e-01,7.51753e-02,9.99999e-01,9.99999e-01,7.51753e-02,9.99999e-01
4.622487892e-01,7.91181e-02,9.99999e-01,9.99999e-01,7.91181e-02,9.99999e-01
4.645600332e-01,8.31835e-02,9.99999e-01,9.99999e-01,8.31835e-02,9.99999e-01
4.668828333e-01,8.73714e-02,9.99999e-01,9.99999e-01,8.73714e-02,9.99999e-01
4.692172475e-01,9.16811e-02,9.99999e-01,9.99999e-01,9.16811e-02,9.99999e-01
4.715633337e-01,9.61120e-02,9.99999e-01,9.99999e-01,9.61120e-02,9.99999e-01
4.739211504e-01,1.00663e-01,9.99999e-01,9.99999e-01,1.00663e-01,9.99999e-01
4.762907561e-01,1.05333e-01,9.99999e-01,9.99999e-01,1.05333e-01,9.99999e-01
4.786722099e-01,1.10122e-01,9.99999e-01,9.99999e-01,1.10122e-01,9.99999e-01
4.810655710e-01,1.15027e-01,9.99999e-01,9.99999e-01,1.15027e-01,9.99999e-01
4.834708988e-01,1.20047e-01,9.99999e-01,9.99999e-01,1.20047e-01,9.99999e-01
4.858882533e-01,1.25180e-01,9.99999e-01,9.99999e-01,1.25180e-01,9.99999e-01
4.883176946e-01,1.30425e-01,9.99999e-01,9.99999e-01,1.30425e-01,9.99999e-01
4.907592831e-01,1.35780e-01,9.99999e-01,9.99999e-01,1.35780e-01,9.99999e-01
4.932130795e-01,1.41242e-01,9.99999e-01,9.99999e-01,1.41242e-01,9.99999e-01
4.956791449e-01,1.46809e-01,9.99999e-01,9.99999e-01,1.46809e-01,9.99999e-01
4.981575406e-01,1.52480e-01,9.99999e-01,9.99999e-01,1.52480e-01,9.99999e-01
5.006483283e-01,1.58251e-01,9.99999e-01,9.99999e-01,1.58251e-01,9.99999e-01
5.031515699e-01,1.64120e-01,9.99999e-01,9.99999e-01,1.64120e-01,9.99999e-01
5.056673278e-01,1.70084e-01,9.99999e-01,9.99999e-01,1.70084e-01,9.99999e-01
5.081956644e-01,1.76141e-01,9.99999e-01,9.99999e-01,1.76141e-01,9.99999e-01
5.107366428e-01,1.82287e-01,9.99999e-01,9.99999e-01,1.82287e-01,9.99999e-01
5.132903260e-01,1.88520e-01,9.99999e-01,9.99999e-01,1.88520e-01,9.99999e-01
5.158567776e-01,1.94837e-01,9.99999e-01,9.99999e-01,1.94837e-01,9.99999e-01
5.184360615e-01,2.01234e-01,9.99999e-01,9.99999e-01,2.01234e-01,9.99999e-01
5.210282418e-01,2.07709e-01,9.99999e-01,9.99999e-01,2.07709e-01,9.99999e-01
5.236333830e-01,2.14258e-01,9.99999e-01,9.99999e-01,2.14258e-01,9.99999e-01
5.262515499e-01,2.20878e-01,9.99999e-01,9.99999e-01,2.20878e-01,9.99999e-01
5.288828077e-01,2.27566e-01,9.99999e-01,9.99999e-01,2.27566e-01,9.99999e-01
5.315272217e-01,2.34318e-01,9.99999e-01,9.99999e-01,2.34318e-01,9.99999e-01
5.341848578e-01,2.41132e-01,9.99999e-01,9.99999e-01,2.41132e-01,9.99999e-01
5.368557821e-01,2.48002e-01,9.99999e-01,9.99999e-01,2.48002e-01,9.99999e-01
5.395400610e-01,2.54928e-01,9.99999e-01,9.99999e-01,2.54928e-01,9.99999e-01
5.422377613e-01,2.61904e-01,9.99999e-01,9.99999e-01,2.61904e-01,9.99999e-01
5.449489501e-01,2.68927e-01,9.99999e-01,9.99999e-01,2.68927e-01,9.99999e-01
5.476736949e-01,2.75995e-01,9.99999e-01,9.99999e-01,2.75995e-01,9.99999e-01
5.504120634e-01,2.83103e-01,9.99999e-01,9.99999e-01,2.83103e-01,9.99999e-01
5.531641237e-01,2.90249e-01,9.99999e-01,9.99999e-01,2.90249e-01,9.99999e-01
5.559299443e-01,2.97428e-01,9.99999e-01,9.99999e-01,2.97428e-01,9.99999e-01
5.587095940e-01,3.04638e-01,9.99999e-01,9.99999e-01,3.04638e-01,9.99999e-01
5.615031420e-01,3.11875e-01,9.99999e-01,9.99999e-01,3.11875e-01,9.99999e-01
5.643106577e-01,3.19136e-01,9.99999e-01,9.99999e-01,3.19136e-01,9.99999e-01
5.671322110e-01,3.26417e-01,9.99999e-01,9.99999e-01,3.26417e-01,9.99999e-01
5.699678720e-01,3.33716e-01,9.99999e-01,9.99999e-01,3.33716e-01,9.99999e-01
5.728177114e-01,3.41029e-01,9.99999e-01,9.99999e-01,3.41029e-01,9.99999e-01
5.756818000e-01,3.48354e-01,9.99999e-01,9.99999e-01,3.48354e-01,9.99999e-01
5.785602090e-01,3.55686e-01,9.99999e-01,9.99999e-01,3.55686e-01,9.99999e-01
5.814530100e-01,3.63023e-01,9.99999e-01,9.99999e-01,3.63023e-01,9.99999e-01
5.843602750e-01,3.70362e-01,9.99999e-01,9.99999e-01,3.70362e-01,9.99999e-01
5.872820764e-01,3.77700e-01,9.99999e-01,9.99999e-01,3.77700e-01,9.99999e-01
5.902184868e-01,3.85034e-01,9.99999e-01,9.99999e-01,3.85034e-01,9.99999e-01
5.931695792e-01,3.92362e-01,9.99999e-01,9.99999e-01,3.92362e-01,9.99999e-01
5.961354271e-01,3.99680e-01,9.99999e-01,9.99999e-01,3.99680e-01,9.99999e-01
5.991161043e-01,4.06986e-01,9.99999e-01,9.99999e-01,4.06986e-01,9.99999e-01
6.021116848e-01,4.14278e-01,9.99999e-01,9.99999e-01,4.14278e-01,9.99999e-01
6.051222432e-01,4.21552e-01,9.99999e-01,9.99999e-01,4.21552e-01,9.99999e-01
6.081478544e-01,4.28806e-01,9.99999e-01,9.99999e-01,4.28806e-01,9.99999e-01
6.111885937e-01,4.36038e-01,9.99999e-01,9.99999e-01,4.36038e-01,9.99999e-01
6.142445367e-01,4.43246e-01,9.99999e-01,9.99999e-01,4.43246e-01,9.99999e-01
6.173157594e-01,4.50427e-01,9.99999e-01,9.99999e-01,4.50427e-01,9.99999e-01
6.204023382e-01,4.57579e-01,9.99999e-01,9.99999e-01,4.57579e-01,9.99999e-01
6.235043498e-01,4.64700e-01,9.99999e-01,9.99999e-01,4.64700e-01,9.99999e-01
6.266218716e-01,4.71788e-01,9.99999e-01,9.99999e-01,4.71788e-01,9.99999e-01
6.297549810e-01,4.78841e-01,9.99999e-01,9.99999e-01,4.78841e-01,9.99999e-01
6.329037559e-01,4.85857e-01,9.99999e-01,9.99999e-01,4.85857e-01,9.99999e-01
6.360682746e-01,4.92834e-01,9.99999e-01,9.99999e-01,4.92834e-01,9.99999e-01
6.392486160e-01,4.99770e-01,9.99999e-01,9.99999e-01,4.99770e-01,9.99999e-01
6.424448591e-01,5.06665e-01,9.99999e-01,9.99999e-01,5.06665e-01,9.99999e-01
6.456570834e-01,5.13515e-01,9.99999e-01,9.99999e-01,5.13515e-01,9.99999e-01
6.488853688e-01,5.20320e-01,9.99999e-01,9.99999e-01,5.20320e-01,9.99999e-01
6.521297956e-01,5.27078e-01,9.99999e-01,9.99999e-01,5.27078e-01,9.99999e-01
6.553904446e-01,5.33788e-01,9.99999e-01,9.99999e-01,5.33788e-01,9.99999e-01
6.586673968e-01,5.40448e-01,9.99999e-01,9.99999e-01,5.40448e-01,9.99999e-01
6.619607338e-01,5.47057e-01,9.99999e-01,9.99999e-01,5.47057e-01,9.99999e-01
6.652705375e-01,5.53614e-01,9.99999e-01,9.99999e-01,5.53614e-01,9.99999e-01
6.685968902e-01,5.60117e-01,9.99999e-01,9.99999e-01,5.60117e-01,9.99999e-01
6.719398746e-01,5.66567e-01,9.99999e-01,9.99999e-01,5.66567e-01,9.99999e-01
6.752995740e-01,5.72961e-01,9.99999e-01,9.99999e-01,5.72961e-01,9.99999e-01
6.786760719e-01,5.79299e-01,9.99999e-01,9.99999e-01,5.79299e-01,9.99999e-01
6.820694522e-01,5.85580e-01,9.99999e-01,9.99999e-01,5.85580e-01,9.99999e-01
6.854797995e-01,5.91802e-01,9.99999e-01,9.99999e-01,5.91802e-01,9.99999e-01
6.889071985e-01,5.97966e-01,9.99999e-01,9.99999e-01,5.97966e-01,9.99999e-01
6.923517345e-01,6.04071e-01,9.99999e-01,9.99999e-01,6.04071e-01,9.99999e-01
6.958134932e-01,6.10115e-01,9.99999e-01,9.99999e-01,6.10115e-01,9.99999e-01
6.992925606e-01,6.16099e-01,9.99999e-01,9.99999e-01,6.16099e-01,9.99999e-01
7.027890234e-01,6.22022e-01,9.99999e-01,9.99999e-01,6.22022e-01,9.99999e-01
7.063029686e-01,6.27883e-01,9.99999e-01,9.99999e-01,6.27883e-01,9.99999e-01
7.098344834e-01,6.33681e-01,9.99999e-01,9.99999e-01,6.33681e-01,9.99999e-01
7.133836558e-01,6.39417e-01,9.99999e-01,9.99999e-01,6.39417e-01,9.99999e-01
7.169505741e-01,6.45090e-01,9.99999e-01,9.99999e-01,6.45090e-01,9.99999e-01
7.205353270e-01,6.50700e-01,9.99999e-01,9.99999e-01,6.50700e-01,9.99999e-01
7.241380036e-01,6.56247e-01,9.99999e-01,9.99999e-01,6.56247e-01,9.99999e-01
7.277586936e-01,6.61730e-01,9.99999e-01,9.99999e-01,6.61730e-01,9.99999e-01
7.313974871e-01,6.67149e-01,9.99999e-01,9.99999e-01,6.67149e-01,9.99999e-01
7.350544745e-01,6.72504e-01,9.99999e-01,9.99999e-01,6.72504e-01,9.99999e-01
7.387297469e-01,6.77795e-01,9.99999e-01,9.99999e-01,6.77795e-01,9.99999e-01
7.424233956e-01,6.83021e-01,9.99999e-01,9.99999e-01,6.83021e-01,9.99999e-01
7.461355126e-01,6.88184e-01,9.99999e-01,9.99999e-01,6.88184e-01,9.99999e-01
7.498661902e-01,6.93283e-01,9.99999e-01,9.99999e-01,6.93283e-01,9.99999e-01
7.536155211e-01,6.98317e-01,9.99999e-01,9.99999e-01,6.98317e-01,9.99999e-01
7.573835987e-01,7.03288e-01,9.99999e-01,9.99999e-01,7.03288e-01,9.99999e-01
7.611705167e-01,7.08195e-01,9.99999e-01,9.99999e-01,7.08195e-01,9.99999e-01
7.649763693e-01,7.13038e-01,9.99999e-01,9.99999e-01,7.13038e-01,9.99999e-01
7.688012511e-01,7.17817e-01,9.99999e-01,9.99999e-01,7.17817e-01,9.99999e-01
7.726452574e-01,7.22533e-01,9.99999e-01,9.99999e-01,7.22533e-01,9.99999e-01
7.765084837e-01,7.27186e-01,9.99999e-01,9.99999e-01,7.27186e-01,9.99999e-01
7.803910261e-01,7.19950e-01,9.99999e-01,9.83837e-01,7.31777e-01,9.99999e-01
7.842929812e-01,6.89510e-01,9.99999e-01,9.36445e-01,7.36304e-01,9.99999e-01
7.882144461e-01,6.89887e-01,9.99999e-01,9.31310e-01,7.40770e-01,9.99999e-01
7.921555184e-01,7.15378e-01,9.99999e-01,9.60014e-01,7.45174e-01,9.99999e-01
7.961162960e-01,7.29567e-01,9.99999e-01,9.73384e-01,7.49516e-01,9.99999e-01
8.000968774e-01,7.42835e-01,9.99999e-01,9.85457e-01,7.53796e-01,9.99999e-01
8.040973618e-01,7.52316e-01,9.99999e-01,9.92479e-01,7.58016e-01,9.99999e-01
8.081178486e-01,7.59529e-01,9.99999e-01,9.96526e-01,7.62176e-01,9.99999e-01
8.121584379e-01,7.65463e-01,9.99999e-01,9.98938e-01,7.66275e-01,9.99999e-01
8.162192301e-01,7.70135e-01,9.99999e-01,9.99765e-01,7.70315e-01,9.99999e-01
8.203003262e-01,7.74294e-01,9.99999e-01,9.99996e-01,7.74296e-01,9.99999e-01
8.244018279e-01,7.78218e-01,9.99999e-01,9.99999e-01,7.78218e-01,9.99999e-01
8.285238370e-01,7.82082e-01,9.99999e-01,9.99999e-01,7.82082e-01,9.99999e-01
8.326664562e-01,7.85889e-01,9.99999e-01,9.99999e-01,7.85889e-01,9.99999e-01
8.368297885e-01,7.89638e-01,9.99999e-01,9.99999e-01,7.89638e-01,9.99999e-01
8.410139374e-01,7.93330e-01,9.99999e-01,9.99999e-01,7.93330e-01,9.99999e-01
8.452190071e-01,7.96966e-01,9.99999e-01,9.99999e-01,7.96966e-01,9.99999e-01
8.494451021e-01,8.00547e-01,9.99999e-01,9.99999e-01,8.00547e-01,9.99999e-01
8.536923276e-01,8.04072e-01,9.99999e-01,9.99999e-01,8.04072e-01,9.99999e-01
8.579607893e-01,8.07543e-01,9.99999e-01,9.99999e-01,8.07543e-01,9.99999e-01
8.622505932e-01,8.10960e-01,9.99999e-01,9.99999e-01,8.10960e-01,9.99999e-01
8.665618462e-01,7.78922e-01,9.99999e-01,9.56525e-01,8.14323e-01,9.99999e-01
8.708946554e-01,6.89356e-01,9.99999e-01,8.43110e-01,8.17634e-01,9.99999e-01
8.752491287e-01,7.17303e-01,9.99999e-01,8.73808e-01,8.20892e-01,9.99999e-01
8.796253743e-01,7.65985e-01,9.99999e-01,9.29481e-01,8.24099e-01,9.99999e-01
8.840235012e-01,7.96644e-01,9.99999e-01,9.62997e-01,8.27254e-01,9.99999e-01
8.884436187e-01,8.18192e-01,9.99999e-01,9.85348e-01,8.30358e-01,9.99999e-01
8.928858368e-01,8.28441e-01,9.99999e-01,9.94033e-01,8.33413e-01,9.99999e-01
8.973502660e-01,8.35212e-01,9.99999e-01,9.98557e-01,8.36418e-01,9.99999e-01
9.018370173e-01,8.39242e-01,9.99999e-01,9.99841e-01,8.39375e-01,9.99999e-01
9.063462024e-01,8.38702e-01,9.99999e-01,9.95748e-01,8.42283e-01,9.99999e-01
9.108779334e-01,8.37169e-01,9.99999e-01,9.90564e-01,8.45143e-01,9.99999e-01
9.154323231e-01,8.46096e-01,9.99999e-01,9.97805e-01,8.47956e-01,9.99999e-01
9.200094847e-01,8.22045e-01,9.99999e-01,9.66288e-01,8.50723e-01,9.99999e-01
9.246095321e-01,8.14631e-01,9.99999e-01,9.54520e-01,8.53444e-01,9.99999e-01
9.292325798e-01,8.24910e-01,9.99999e-01,9.63544e-01,8.56120e-01,9.99999e-01
9.338787427e-01,8.28935e-01,9.99999e-01,9.65279e-01,8.58751e-01,9.99999e-01
9.385481364e-01,8.39302e-01,9.99999e-01,9.74415e-01,8.61338e-01,9.99999e-01
9.432408771e-01,8.50344e-01,9.99999e-01,9.84329e-01,8.63881e-01,9.99999e-01
9.479570815e-01,8.59377e-01,9.99999e-01,9.91915e-01,8.66381e-01,9.99999e-01
9.526968669e-01,8.65454e-01,9.99999e-01,9.96102e-01,8.68839e-01,9.99999e-01
9.574603512e-01,8.69805e-01,9.99999e-01,9.98334e-01,8.71256e-01,9.99999e-01
9.622476530e-01,8.73178e-01,9.99999e-01,9.99480e-01,8.73631e-01,9.99999e-01
9.670588912e-01,8.75829e-01,9.99999e-01,9.99844e-01,8.75965e-01,9.99999e-01
9.718941857e-01,8.78250e-01,9.99999e-01,9.99988e-01,8.78259e-01,9.99999e-01
9.767536566e-01,8.80514e-01,9.99999e-01,9.99999e-01,8.80514e-01,9.99999e-01
9.816374249e-01,8.82730e-01,9.99999e-01,9.99999e-01,8.82730e-01,9.99999e-01
9.865456120e-01,8.84908e-01,9.99999e-01,9.99999e-01,8.84908e-01,9.99999e-01
9.914783401e-01,8.87048e-01,9.99999e-01,9.99999e-01,8.87048e-01,9.99999e-01
9.964357318e-01,8.89150e-01,9.99999e-01,9.99999e-01,8.89150e-01,9.99999e-01
1.001417910e+00,8.91216e-01,9.99999e-01,9.99999e-01,8.91216e-01,9.99999e-01
1.006425000e+00,8.93246e-01,9.99999e-01,9.99999e-01,8.93246e-01,9.99999e-01
1.011457125e+00,8.95240e-01,9.99999e-01,9.99999e-01,8.95240e-01,9.99999e-01
1.016514411e+00,8.97199e-01,9.99999e-01,9.99999e-01,8.97199e-01,9.99999e-01
1.021596983e+00,8.99100e-01,9.99999e-01,9.99973e-01,8.99123e-01,9.99999e-01
1.026704968e+00,8.99518e-01,9.99999e-01,9.98339e-01,9.01014e-01,9.99999e-01
1.031838492e+00,8.78392e-01,9.99999e-01,9.72887e-01,9.02871e-01,9.99999e-01
1.036997685e+00,2.83650e-01,9.99999e-01,3.13531e-01,9.04695e-01,9.99999e-01
1.042182673e+00,3.48712e-01,9.99999e-01,3.84685e-01,9.06486e-01,9.99999e-01
1.047393587e+00,3.13246e-01,9.99999e-01,3.44890e-01,9.08246e-01,9.99999e-01
1.052630555e+00,5.76522e-02,9.99999e-01,6.33558e-02,9.09974e-01,9.99999e-01
1.057893707e+00,1.05309e-01,9.99999e-01,1.15512e-01,9.11671e-01,9.99999e-01
1.063183176e+00,1.91587e-01,9.99999e-01,2.09766e-01,9.13338e-01,9.99999e-01
1.068499092e+00,3.23271e-01,9.99999e-01,3.53311e-01,9.14975e-01,9.99999e-01
1.073841587e+00,4.77110e-01,9.99999e-01,5.20531e-01,9.16582e-01,9.99999e-01
1.079210795e+00,6.08229e-01,9.99999e-01,6.62442e-01,9.18161e-01,9.99999e-01
1.084606849e+00,7.35071e-01,9.99999e-01,7.99241e-01,9.19710e-01,9.99999e-01
1.090029883e+00,8.20231e-01,9.99999e-01,8.90362e-01,9.21232e-01,9.99999e-01
1.095480033e+00,8.71560e-01,9.99999e-01,9.44548e-01,9.22726e-01,9.99999e-01
1.100957433e+00,8.99162e-01,9.99999e-01,9.72915e-01,9.24193e-01,9.99999e-01
1.106462220e+00,9.15208e-01,9.99999e-01,9.88737e-01,9.25633e-01,9.99999e-01
1.111994531e+00,9.23165e-01,9.99999e-01,9.95811e-01,9.27047e-01,9.99999e-01
1.117554504e+00,9.27491e-01,9.99999e-01,9.98981e-01,9.28435e-01,9.99999e-01
1.123142276e+00,9.29737e-01,9.99999e-01,9.99933e-01,9.29798e-01,9.99999e-01
1.128757988e+00,9.31136e-01,9.99999e-01,9.99999e-01,9.31136e-01,9.99999e-01
1.134401778e+00,9.32449e-01,9.99999e-01,9.99999e-01,9.32449e-01,9.99999e-01
1.140073787e+00,9.33738e-01,9.99999e-01,9.99999e-01,9.33738e-01,9.99999e-01
1.145774156e+00,9.35003e-01,9.99999e-01,9.99999e-01,9.35003e-01,9.99999e-01
1.151503026e+00,9.36245e-01,9.99999e-01,9.99999e-01,9.36245e-01,9.99999e-01
1.157260541e+00,9.37465e-01,9.99999e-01,9.99999e-01,9.37465e-01,9.99999e-01
1.163046844e+00,9.38661e-01,9.99999e-01,9.99999e-01,9.38661e-01,9.99999e-01
1.168862078e+00,9.39835e-01,9.99999e-01,9.99999e-01,9.39835e-01,9.99999e-01
1.174706389e+00,9.40988e-01,9.99999e-01,9.99999e-01,9.40988e-01,9.99999e-01
1.180579921e+00,9.42119e-01,9.99999e-01,9.99999e-01,9.42119e-01,9.99999e-01
1.186482820e+00,9.43226e-01,9.99999e-01,9.99995e-01,9.43229e-01,9.99999e-01
1.192415234e+00,9.38648e-01,9.99999e-01,9.93994e-01,9.44319e-01,9.99999e-01
1.198377311e+00,5.57472e-01,9.99999e-01,5.89675e-01,9.45388e-01,9.99999e-01
1.204369197e+00,4.19643e-06,9.99999e-01,4.43392e-06,9.46437e-01,9.99999e-01
1.210391043e+00,8.07191e-19,9.99999e-01,8.51945e-19,9.47467e-01,9.99999e-01
1.216442998e+00,1.55002e-16,9.99999e-01,1.63422e-16,9.48478e-01,9.99999e-01
1.222525213e+00,2.73370e-16,9.99999e-01,2.87918e-16,9.49469e-01,9.99999e-01
1.228637839e+00,1.65736e-12,9.99999e-01,1.74378e-12,9.50442e-01,9.99999e-01
1.234781029e+00,8.36806e-09,9.99999e-01,8.79554e-09,9.51397e-01,9.99999e-01
1.240954934e+00,5.83070e-06,9.99999e-01,6.12253e-06,9.52333e-01,9.99999e-01
1.247159708e+00,1.11918e-03,9.99999e-01,1.17407e-03,9.53253e-01,9.99999e-01
1.253395507e+00,2.39262e-02,9.99999e-01,2.50758e-02,9.54154e-01,9.99999e-01
1.259662485e+00,1.18450e-01,9.99999e-01,1.24026e-01,9.55039e-01,9.99999e-01
1.265960797e+00,2.86024e-01,9.99999e-01,2.99217e-01,9.55907e-01,9.99999e-01
1.272290601e+00,5.84013e-01,9.99999e-01,6.10406e-01,9.56759e-01,9.99999e-01
1.278652054e+00,5.16945e-01,9.99999e-01,5.39836e-01,9.57595e-01,9.99999e-01
1.285045314e+00,3.67829e-02,9.99999e-01,3.83788e-02,9.58415e-01,9.99999e-01
1.291470541e+00,6.95534e-03,9.99999e-01,7.25103e-03,9.59219e-01,9.99999e-01
1.297927893e+00,8.59114e-02,9.99999e-01,8.94902e-02,9.60009e-01,9.99999e-01
1.304417533e+00,3.92280e-01,9.99999e-01,4.08292e-01,9.60783e-01,9.99999e-01
1.310939621e+00,7.63242e-02,9.99999e-01,7.93768e-02,9.61542e-01,9.99999e-01
1.317494319e+00,6.64555e-07,9.99999e-01,6.90598e-07,9.62287e-01,9.99999e-01
1.324081790e+00,1.76766e-04,9.99999e-01,1.83554e-04,9.63018e-01,9.99999e-01
1.330702199e+00,4.63984e-03,9.99999e-01,4.81443e-03,9.63735e-01,9.99999e-01
1.337355710e+00,3.24380e-03,9.99999e-01,3.36340e-03,9.64439e-01,9.99999e-01
1.344042489e+00,1.16202e-03,9.99999e-01,1.20401e-03,9.65129e-01,9.99999e-01
1.350762701e+00,3.73957e-03,9.99999e-01,3.87196e-03,9.65806e-01,9.99999e-01
1.357516515e+00,2.48769e-02,9.99999e-01,2.57400e-02,9.66470e-01,9.99999e-01
1.364304097e+00,1.00032e-01,9.99999e-01,1.03432e-01,9.67121e-01,9.99999e-01
1.371125618e+00,2.91861e-01,9.99999e-01,3.01584e-01,9.67760e-01,9.99999e-01
1.377981246e+00,3.71856e-01,9.99999e-01,3.83995e-01,9.68386e-01,9.99999e-01
1.384871152e+00,5.55422e-01,9.99999e-01,5.73190e-01,9.69001e-01,9.99999e-01
1.391795508e+00,5.80068e-01,9.99999e-01,5.98252e-01,9.69604e-01,9.99999e-01
1.398754485e+00,7.07587e-01,9.99999e-01,7.29323e-01,9.70195e-01,9.99999e-01
1.405748258e+00,7.69170e-01,9.99999e-01,7.92325e-01,9.70775e-01,9.99999e-01
1.412776999e+00,8.38888e-01,9.99999e-01,8.63635e-01,9.71344e-01,9.99999e-01
1.419840884e+00,7.78637e-01,9.99999e-01,8.01146e-01,9.71902e-01,9.99999e-01
1.426940089e+00,1.08245e-01,9.99999e-01,1.11311e-01,9.72449e-01,9.99999e-01
1.434074789e+00,1.61833e-261,9.99999e-01,1.66326e-261,9.72986e-01,9.99999e-01
1.441245163e+00,0.00000e+00,9.99999e-01,0.00000e+00,9.73513e-01,9.99999e-01
1.448451389e+00,4.80532e-317,9.99999e-01,4.93344e-317,9.74029e-01,9.99999e-01
1.455693646e+00,4.41793e-142,9.99999e-01,4.53337e-142,9.74535e-01,9.99999e-01
1.462972114e+00,1.67715e-69,9.99999e-01,1.72009e-69,9.75032e-01,9.99999e-01
1.470286975e+00,6.47959e-30,9.99999e-01,6.64219e-30,9.75519e-01,9.99999e-01
