#,Wave/freq,Total,N2,CO2,Rayleigh,CIA
4.000000000e-01,9.60161e-06,9.99999e-01,9.99999e-01,9.60161e-06,9.99999e-01
4.020000000e-01,1.20658e-05,9.99999e-01,9.99999e-01,1.20658e-05,9.99999e-01
4.040100000e-01,1.50906e-05,9.99999e-01,9.99999e-01,1.50906e-05,9.99999e-01
4.060300500e-01,1.87905e-05,9.99999e-01,9.99999e-01,1.87905e-05,9.99999e-01
4.080602003e-01,2.32965e-05,9.99999e-01,9.99999e-01,2.32965e-05,9.99999e-01
4.101005013e-01,2.87606e-05,9.99999e-01,9.99999e-01,2.87606e-05,9.99999e-01
4.121510038e-01,3.53588e-05,9.99999e-01,9.99999e-01,3.53588e-05,9.99999e-01
4.142117588e-01,4.32938e-05,9.99999e-01,9.99999e-01,4.32938e-05,9.99999e-01
4.162828176e-01,5.27980e-05,9.99999e-01,9.99999e-01,5.27980e-05,9.99999e-01
4.183642317e-01,6.41366e-05,9.99999e-01,9.99999e-01,6.41366e-05,9.99999e-01
4.204560528e-01,7.76115e-05,9.99999e-01,9.99999e-01,7.76115e-05,9.99999e-01
4.225583331e-01,9.35643e-05,9.99999e-01,9.99999e-01,9.35643e-05,9.99999e-01
4.246711247e-01,1.12380e-04,9.99999e-01,9.99999e-01,1.12380e-04,9.99999e-01
4.267944804e-01,1.34493e-04,9.99999e-01,9.99999e-01,1.34493e-04,9.99999e-01
4.289284528e-01,1.60386e-04,9.99999e-01,9.99999e-01,1.60386e-04,9.99999e-01
4.310730950e-01,1.90601e-04,9.99999e-01,9.99999e-01,1.90601e-04,9.99999e-01
4.332284605e-01,2.25736e-04,9.99999e-01,9.99999e-01,2.25736e-04,9.99999e-01
4.353946028e-01,2.66457e-04,9.99999e-01,9.99999e-01,2.66457e-04,9.99999e-01
4.375715758e-01,3.13494e-04,9.99999e-01,9.99999e-01,3.13494e-04,9.99999e-01
4.397594337e-01,3.67653e-04,9.99999e-01,9.99999e-01,3.67653e-04,9.99999e-01
4.419582309e-01,4.29812e-04,9.99999e-01,9.99999e-01,4.29812e-04,9.99999e-01
4.441680220e-01,5.00933e-04,9.99999e-01,9.99999e-01,5.00933e-04,9.99999e-01
4.463888621e-01,5.82059e-04,9.99999e-01,9.99999e-01,5.82059e-04,9.99999e-01
4.486208064e-01,6.74322e-04,9.99999e-01,9.99999e-01,6.74322e-04,9.99999e-01
4.508639105e-01,7.78942e-04,9.99999e-01,9.99999e-01,7.78942e-04,9.99999e-01
4.531182300e-01,8.97233e-04,9.99999e-01,9.99999e-01,8.97233e-04,9.99999e-01
4.553838212e-01,1.03061e-03,9.99999e-01,9.99999e-01,1.03061e-03,9.99999e-01
4.576607403e-01,1.18057e-03,9.99999e-01,9.99999e-01,1.18057e-03,9.99999e-01
4.599490440e-01,1.34873e-03,9.99999e-01,9.99999e-01,1.34873e-03,9.99999e-01
4.622487892e-01,1.53680e-03,9.99999e-01,9.99999e-01,1.53680e-03,9.99999e-01
4.645600332e-01,1.74658e-03,9.99999e-01,9.99999e-01,1.74658e-03,9.99999e-01
4.668828333e-01,1.97998e-03,9.99999e-01,9.99999e-01,1.97998e-03,9.99999e-01
4.692172475e-01,2.23902e-03,9.99999e-01,9.99999e-01,2.23902e-03,9.99999e-01
4.715633337e-01,2.52582e-03,9.99999e-01,9.99999e-01,2.52582e-03,9.99999e-01
4.739211504e-01,2.84257e-03,9.99999e-01,9.99999e-01,2.84257e-03,9.99999e-01
4.762907561e-01,3.19158e-03,9.99999e-01,9.99999e-01,3.19158e-03,9.99999e-01
4.786722099e-01,3.57527e-03,9.99999e-01,9.99999e-01,3.57527e-03,9.99999e-01
4.810655710e-01,3.99610e-03,9.99999e-01,9.99999e-01,3.99610e-03,9.99999e-01
4.834708988e-01,4.45667e-03,9.99999e-01,9.99999e-01,4.45667e-03,9.99999e-01
4.858882533e-01,4.95962e-03,9.99999e-01,9.99999e-01,4.95962e-03,9.99999e-01
4.883176946e-01,5.50768e-03,9.99999e-01,9.99999e-01,5.50768e-03,9.99999e-01
4.907592831e-01,6.10366e-03,9.99999e-01,9.99999e-01,6.10366e-03,9.99999e-01
4.932130795e-01,6.75041e-03,9.99999e-01,9.99999e-01,6.75041e-03,9.99999e-01
4.956791449e-01,7.45086e-03,9.99999e-01,9.99999e-01,7.45086e-03,9.99999e-01
4.981575406e-01,8.20796e-03,9.99999e-01,9.99999e-01,8.20796e-03,9.99999e-01
5.006483283e-01,9.02474e-03,9.99999e-01,9.99999e-01,9.02474e-03,9.99999e-01
5.031515699e-01,9.90421e-03,9.99999e-01,9.99999e-01,9.90421e-03,9.99999e-01
5.056673278e-01,1.08494e-02,9.99999e-01,9.99999e-01,1.08494e-02,9.99999e-01
5.081956644e-01,1.18635e-02,9.99999e-01,9.99999e-01,1.18635e-02,9.99999e-01
5.107366428e-01,1.29495e-02,9.99999e-01,9.99999e-01,1.29495e-02,9.99999e-01
5.132903260e-01,1.41104e-02,9.99999e-01,9.99999e-01,1.41104e-02,9.99999e-01
5.158567776e-01,1.53494e-02,9.99999e-01,9.99999e-01,1.53494e-02,9.99999e-01
5.184360615e-01,1.66694e-02,9.99999e-01,9.99999e-01,1.66694e-02,9.99999e-01
5.210282418e-01,1.80735e-02,9.99999e-01,9.99999e-01,1.80735e-02,9.99999e-01
5.236333830e-01,1.95645e-02,9.99999e-01,9.99999e-01,1.95645e-02,9.99999e-01
5.262515499e-01,2.11454e-02,9.99999e-01,9.99999e-01,2.11454e-02,9.99999e-01
5.288828077e-01,2.28191e-02,9.99999e-01,9.99999e-01,2.28191e-02,9.99999e-01
5.315272217e-01,2.45881e-02,9.99999e-01,9.99999e-01,2.45881e-02,9.99999e-01
5.341848578e-01,2.64553e-02,9.99999e-01,9.99999e-01,2.64553e-02,9.99999e-01
5.368557821e-01,2.84231e-02,9.99999e-01,9.99999e-01,2.84231e-02,9.99999e-01
5.395400610e-01,3.04941e-02,9.99999e-01,9.99999e-01,3.04941e-02,9.99999e-01
5.422377613e-01,3.26705e-02,9.99999e-01,9.99999e-01,3.26705e-02,9.99999e-01
5.449489501e-01,3.49547e-02,9.99999e-01,9.99999e-01,3.49547e-02,9.99999e-01
5.476736949e-01,3.73486e-02,9.99999e-01,9.99999e-01,3.73486e-02,9.99999e-01
5.504120634e-01,3.98544e-02,9.99999e-01,9.99999e-01,3.98544e-02,9.99999e-01
5.531641237e-01,4.24737e-02,9.99999e-01,9.99999e-01,4.24737e-02,9.99999e-01
5.559299443e-01,4.52083e-02,9.99999e-01,9.99999e-01,4.52083e-02,9.99999e-01
5.587095940e-01,4.80597e-02,9.99999e-01,9.99999e-01,4.80597e-02,9.99999e-01
5.615031420e-01,5.10292e-02,9.99999e-01,9.99999e-01,5.10292e-02,9.99999e-01
5.643106577e-01,5.41181e-02,9.99999e-01,9.99999e-01,5.41181e-02,9.99999e-01
5.671322110e-01,5.73274e-02,9.99999e-01,9.99999e-01,5.73274e-02,9.99999e-01
5.699678720e-01,6.06579e-02,9.99999e-01,9.99999e-01,6.06579e-02,9.99999e-01
5.728177114e-01,6.41104e-02,9.99999e-01,9.99999e-01,6.41104e-02,9.99999e-01
5.756818000e-01,6.76854e-02,9.99999e-01,9.99999e-01,6.76854e-02,9.99999e-01
5.785602090e-01,7.13831e-02,9.99999e-01,9.99999e-01,7.13831e-02,9.99999e-01
5.814530100e-01,7.52038e-02,9.99999e-01,9.99999e-01,7.52038e-02,9.99999e-01
5.843602750e-01,7.91474e-02,9.99999e-01,9.99999e-01,7.91474e-02,9.99999e-01
5.872820764e-01,8.32138e-02,9.99999e-01,9.99999e-01,8.32138e-02,9.99999e-01
5.902184868e-01,8.74026e-02,9.99999e-01,9.99999e-01,8.74026e-02,9.99999e-01
5.931695792e-01,9.17132e-02,9.99999e-01,9.99999e-01,9.17132e-02,9.99999e-01
5.961354271e-01,9.61449e-02,9.99999e-01,9.99999e-01,9.61449e-02,9.99999e-01
5.991161043e-01,1.00697e-01,9.99999e-01,9.99999e-01,1.00697e-01,9.99999e-01
6.021116848e-01,1.05368e-01,9.99999e-01,9.99999e-01,1.05368e-01,9.99999e-01
6.051222432e-01,1.10157e-01,9.99999e-01,9.99999e-01,1.10157e-01,9.99999e-01
6.081478544e-01,1.15063e-01,9.99999e-01,9.99999e-01,1.15063e-01,9.99999e-01
6.111885937e-01,1.20084e-01,9.99999e-01,9.99999e-01,1.20084e-01,9.99999e-01
6.142445367e-01,1.25218e-01,9.99999e-01,9.99999e-01,1.25218e-01,9.99999e-01
6.173157594e-01,1.30464e-01,9.99999e-01,9.99999e-01,1.30464e-01,9.99999e-01
6.204023382e-01,1.35819e-01,9.99999e-01,9.99999e-01,1.35819e-01,9.99999e-01
6.235043498e-01,1.41282e-01,9.99999e-01,9.99999e-01,1.41282e-01,9.99999e-01
6.266218716e-01,1.46850e-01,9.99999e-01,9.99999e-01,1.46850e-01,9.99999e-01
6.297549810e-01,1.52522e-01,9.99999e-01,9.99999e-01,1.52522e-01,9.99999e-01
6.329037559e-01,1.58293e-01,9.99999e-01,9.99999e-01,1.58293e-01,9.99999e-01
6.360682746e-01,1.64163e-01,9.99999e-01,9.99999e-01,1.64163e-01,9.99999e-01
6.392486160e-01,1.70128e-01,9.99999e-01,9.99999e-01,1.70128e-01,9.99999e-01
6.424448591e-01,1.76185e-01,9.99999e-01,9.99999e-01,1.76185e-01,9.99999e-01
6.456570834e-01,1.82332e-01,9.99999e-01,9.99999e-01,1.82332e-01,9.99999e-01
6.488853688e-01,1.88566e-01,9.99999e-01,9.99999e-01,1.88566e-01,9.99999e-01
6.521297956e-01,1.94883e-01,9.99999e-01,9.99999e-01,1.94883e-01,9.99999e-01
6.553904446e-01,2.01281e-01,9.99999e-01,9.99999e-01,2.01281e-01,9.99999e-01
6.586673968e-01,2.07757e-01,9.99999e-01,9.99999e-01,2.07757e-01,9.99999e-01
6.619607338e-01,2.14306e-01,9.99999e-01,9.99999e-01,2.14306e-01,9.99999e-01
6.652705375e-01,2.20927e-01,9.99999e-01,9.99999e-01,2.20927e-01,9.99999e-01
6.685968902e-01,2.27615e-01,9.99999e-01,9.99999e-01,2.27615e-01,9.99999e-01
6.719398746e-01,2.34368e-01,9.99999e-01,9.99999e-01,2.34368e-01,9.99999e-01
6.752995740e-01,2.41182e-01,9.99999e-01,9.99999e-01,2.41182e-01,9.99999e-01
6.786760719e-01,2.48053e-01,9.99999e-01,9.99999e-01,2.48053e-01,9.99999e-01
6.820694522e-01,2.54979e-01,9.99999e-01,9.99999e-01,2.54979e-01,9.99999e-01
6.854797995e-01,2.61955e-01,9.99999e-01,9.99999e-01,2.61955e-01,9.99999e-01
6.889071985e-01,2.68979e-01,9.99999e-01,9.99999e-01,2.68979e-01,9.99999e-01
6.923517345e-01,2.76047e-01,9.99999e-01,9.99999e-01,2.76047e-01,9.99999e-01
6.958134932e-01,2.83155e-01,9.99999e-01,9.99999e-01,2.83155e-01,9.99999e-01
6.992925606e-01,2.90301e-01,9.99999e-01,9.99999e-01,2.90301e-01,9.99999e-01
7.027890234e-01,2.97481e-01,9.99999e-01,9.99999e-01,2.97481e-01,9.99999e-01
7.063029686e-01,3.04691e-01,9.99999e-01,9.99999e-01,3.04691e-01,9.99999e-01
7.098344834e-01,3.11928e-01,9.99999e-01,9.99999e-01,3.11928e-01,9.99999e-01
7.133836558e-01,3.19189e-01,9.99999e-01,9.99999e-01,3.19189e-01,9.99999e-01
7.169505741e-01,3.26471e-01,9.99999e-01,9.99999e-01,3.26471e-01,9.99999e-01
7.205353270e-01,3.33770e-01,9.99999e-01,9.99999e-01,3.33770e-01,9.99999e-01
7.241380036e-01,3.41083e-01,9.99999e-01,9.99999e-01,3.41083e-01,9.99999e-01
7.277586936e-01,3.48407e-01,9.99999e-01,9.99999e-01,3.48407e-01,9.99999e-01
7.313974871e-01,3.55739e-01,9.99999e-01,9.99999e-01,3.55739e-01,9.99999e-01
7.350544745e-01,3.63077e-01,9.99999e-01,9.99999e-01,3.63077e-01,9.99999e-01
7.387297469e-01,3.70416e-01,9.99999e-01,9.99999e-01,3.70416e-01,9.99999e-01
7.424233956e-01,3.77754e-01,9.99999e-01,9.99999e-01,3.77754e-01,9.99999e-01
7.461355126e-01,3.85088e-01,9.99999e-01,9.99999e-01,3.85088e-01,9.99999e-01
7.498661902e-01,3.92416e-01,9.99999e-01,9.99999e-01,3.92416e-01,9.99999e-01
7.536155211e-01,3.99734e-01,9.99999e-01,9.99999e-01,3.99734e-01,9.99999e-01
7.573835987e-01,4.07040e-01,9.99999e-01,9.99999e-01,4.07040e-01,9.99999e-01
7.611705167e-01,4.14331e-01,9.99999e-01,9.99999e-01,4.14331e-01,9.99999e-01
7.649763693e-01,4.21605e-01,9.99999e-01,9.99999e-01,4.21605e-01,9.99999e-01
7.688012511e-01,4.28859e-01,9.99999e-01,9.99999e-01,4.28859e-01,9.99999e-01
7.726452574e-01,4.36091e-01,9.99999e-01,9.99999e-01,4.36091e-01,9.99999e-01
7.765084837e-01,4.43299e-01,9.99999e-01,9.99999e-01,4.43299e-01,9.99999e-01
7.803910261e-01,4.33236e-01,9.99999e-01,9.61721e-01,4.50480e-01,9.99999e-01
7.842929812e-01,3.88353e-01,9.99999e-01,8.48614e-01,4.57632e-01,9.99999e-01
7.882144461e-01,3.89344e-01,9.99999e-01,8.37744e-01,4.64752e-01,9.99999e-01
7.921555184e-01,4.25413e-01,9.99999e-01,9.01602e-01,4.71840e-01,9.99999e-01
7.961162960e-01,4.47071e-01,9.99999e-01,9.33550e-01,4.78893e-01,9.99999e-01
8.000968774e-01,4.68091e-01,9.99999e-01,9.63331e-01,4.85908e-01,9.99999e-01
8.040973618e-01,4.83481e-01,9.99999e-01,9.80920e-01,4.92885e-01,9.99999e-01
8.081178486e-01,4.95402e-01,9.99999e-01,9.91158e-01,4.99821e-01,9.99999e-01
8.121584379e-01,5.05344e-01,9.99999e-01,9.97293e-01,5.06715e-01,9.99999e-01
8.162192301e-01,5.13258e-01,9.99999e-01,9.99401e-01,5.13565e-01,9.99999e-01
8.203003262e-01,5.20365e-01,9.99999e-01,9.99991e-01,5.20370e-01,9.99999e-01
8.244018279e-01,5.27127e-01,9.99999e-01,9.99999e-01,5.27127e-01,9.99999e-01
8.285238370e-01,5.33837e-01,9.99999e-01,9.99999e-01,5.33837e-01,9.99999e-01
8.326664562e-01,5.40496e-01,9.99999e-01,9.99999e-01,5.40496e-01,9.99999e-01
8.368297885e-01,5.47105e-01,9.99999e-01,9.99999e-01,5.47105e-01,9.99999e-01
8.410139374e-01,5.53662e-01,9.99999e-01,9.99999e-01,5.53662e-01,9.99999e-01
8.452190071e-01,5.60165e-01,9.99999e-01,9.99999e-01,5.60165e-01,9.99999e-01
8.494451021e-01,5.66614e-01,9.99999e-01,9.99999e-01,5.66614e-01,9.99999e-01
8.536923276e-01,5.73008e-01,9.99999e-01,9.99999e-01,5.73008e-01,9.99999e-01
8.579607893e-01,5.79345e-01,9.99999e-01,9.99999e-01,5.79345e-01,9.99999e-01
8.622505932e-01,5.85625e-01,9.99999e-01,9.99999e-01,5.85625e-01,9.99999e-01
8.665618462e-01,5.43416e-01,9.99999e-01,9.18168e-01,5.91848e-01,9.99999e-01
8.708946554e-01,3.93416e-01,9.99999e-01,6.57872e-01,5.98011e-01,9.99999e-01
8.752491287e-01,4.31548e-01,9.99999e-01,7.14346e-01,6.04115e-01,9.99999e-01
8.796253743e-01,5.07201e-01,9.99999e-01,8.31259e-01,6.10160e-01,9.99999e-01
8.840235012e-01,5.59790e-01,9.99999e-01,9.08538e-01,6.16143e-01,9.99999e-01
8.884436187e-01,5.99089e-01,9.99999e-01,9.63064e-01,6.22065e-01,9.99999e-01
8.928858368e-01,6.18408e-01,9.99999e-01,9.84843e-01,6.27925e-01,9.99999e-01
8.973502660e-01,6.31392e-01,9.99999e-01,9.96321e-01,6.33723e-01,9.99999e-01
9.018370173e-01,6.39201e-01,9.99999e-01,9.99595e-01,6.39459e-01,9.99999e-01
9.063462024e-01,6.38196e-01,9.99999e-01,9.89248e-01,6.45132e-01,9.99999e-01
9.108779334e-01,6.35198e-01,9.99999e-01,9.76113e-01,6.50741e-01,9.99999e-01
9.154323231e-01,6.52621e-01,9.99999e-01,9.94412e-01,6.56287e-01,9.99999e-01
9.200094847e-01,6.08671e-01,9.99999e-01,9.19762e-01,6.61770e-01,9.99999e-01
9.246095321e-01,5.92655e-01,9.99999e-01,8.88288e-01,6.67188e-01,9.99999e-01
9.292325798e-01,6.12286e-01,9.99999e-01,9.10403e-01,6.72543e-01,9.99999e-01
9.338787427e-01,6.19650e-01,9.99999e-01,9.14162e-01,6.77833e-01,9.99999e-01
9.385481364e-01,6.39427e-01,9.99999e-01,9.36121e-01,6.83059e-01,9.99999e-01
9.432408771e-01,6.61037e-01,9.99999e-01,9.60499e-01,6.88222e-01,9.99999e-01
9.479570815e-01,6.79102e-01,9.99999e-01,9.79492e-01,6.93320e-01,9.99999e-01
9.526968669e-01,6.91430e-01,9.99999e-01,9.90085e-01,6.98354e-01,9.99999e-01
9.574603512e-01,7.00337e-01,9.99999e-01,9.95753e-01,7.03324e-01,9.99999e-01
9.622476530e-01,7.07293e-01,9.99999e-01,9.98675e-01,7.08230e-01,9.99999e-01
9.670588912e-01,7.12791e-01,9.99999e-01,9.99603e-01,7.13073e-01,9.99999e-01
9.718941857e-01,7.17832e-01,9.99999e-01,9.99972e-01,7.17852e-01,9.99999e-01
9.767536566e-01,7.22568e-01,9.99999e-01,9.99999e-01,7.22568e-01,9.99999e-01
9.816374249e-01,7.27220e-01,9.99999e-01,9.99999e-01,7.27220e-01,9.99999e-01
9.865456120e-01,7.31810e-01,9.99999e-01,9.99999e-01,7.31810e-01,9.99999e-01
9.914783401e-01,7.36337e-01,9.99999e-01,9.99999e-01,7.36337e-01,9.99999e-01
9.964357318e-01,7.40802e-01,9.99999e-01,9.99999e-01,7.40802e-01,9.99999e-01
1.001417910e+00,7.45206e-01,9.99999e-01,9.99999e-01,7.45206e-01,9.99999e-01
1.006425000e+00,7.49547e-01,9.99999e-01,9.99999e-01,7.49547e-01,9.99999e-01
1.011457125e+00,7.53828e-01,9.99999e-01,9.99999e-01,7.53828e-01,9.99999e-01
1.016514411e+00,7.58047e-01,9.99999e-01,9.99999e-01,7.58047e-01,9.99999e-01
1.021596983e+00,7.62156e-01,9.99999e-01,9.99934e-01,7.62206e-01,9.99999e-01
1.026704968e+00,7.63068e-01,9.99999e-01,9.95774e-01,7.66305e-01,9.99999e-01
1.031838492e+00,7.31076e-01,9.99999e-01,9.49024e-01,7.70345e-01,9.99999e-01
1.036997685e+00,1.06930e-01,9.99999e-01,1.38094e-01,7.74325e-01,9.99999e-01
1.042182673e+00,7.81380e-02,9.99999e-01,1.00402e-01,7.78247e-01,9.99999e-01
1.047393587e+00,9.51690e-02,9.99999e-01,1.21682e-01,7.82111e-01,9.99999e-01
1.052630555e+00,2.00044e-03,9.99999e-01,2.54536e-03,7.85916e-01,9.99999e-01
1.057893707e+00,5.45549e-03,9.99999e-01,6.90861e-03,7.89665e-01,9.99999e-01
1.063183176e+00,2.00055e-02,9.99999e-01,2.52163e-02,7.93357e-01,9.99999e-01
1.068499092e+00,6.02895e-02,9.99999e-01,7.56461e-02,7.96993e-01,9.99999e-01
1.073841587e+00,1.57199e-01,9.99999e-01,1.96358e-01,8.00573e-01,9.99999e-01
1.079210795e+00,2.86731e-01,9.99999e-01,3.56587e-01,8.04098e-01,9.99999e-01
1.084606849e+00,4.57821e-01,9.99999e-01,5.66912e-01,8.07568e-01,9.99999e-01
1.090029883e+00,6.03695e-01,9.99999e-01,7.44397e-01,8.10985e-01,9.99999e-01
1.095480033e+00,7.04280e-01,9.99999e-01,8.64838e-01,8.14348e-01,9.99999e-01
1.100957433e+00,7.62368e-01,9.99999e-01,9.32379e-01,8.17658e-01,9.99999e-01
1.106462220e+00,7.97531e-01,9.99999e-01,9.71513e-01,8.20916e-01,9.99999e-01
1.111994531e+00,8.15341e-01,9.99999e-01,9.89344e-01,8.24122e-01,9.99999e-01
1.117554504e+00,8.25130e-01,9.99999e-01,9.97404e-01,8.27277e-01,9.99999e-01
1.123142276e+00,8.30241e-01,9.99999e-01,9.99830e-01,8.30381e-01,9.99999e-01
1.128757988e+00,8.33435e-01,9.99999e-01,9.99999e-01,8.33435e-01,9.99999e-01
1.134401778e+00,8.36440e-01,9.99999e-01,9.99999e-01,8.36440e-01,9.99999e-01
1.140073787e+00,8.39396e-01,9.99999e-01,9.99999e-01,8.39396e-01,9.99999e-01
1.145774156e+00,8.42304e-01,9.99999e-01,9.99999e-01,8.42304e-01,9.99999e-01
1.151503026e+00,8.45164e-01,9.99999e-01,9.99999e-01,8.45164e-01,9.99999e-01
1.157260541e+00,8.47977e-01,9.99999e-01,9.99999e-01,8.47977e-01,9.99999e-01
1.163046844e+00,8.50743e-01,9.99999e-01,9.99999e-01,8.50743e-01,9.99999e-01
1.168862078e+00,8.53464e-01,9.99999e-01,9.99999e-01,8.53464e-01,9.99999e-01
1.174706389e+00,8.56139e-01,9.99999e-01,9.99999e-01,8.56139e-01,9.99999e-01
1.180579921e+00,8.58770e-01,9.99999e-01,9.99999e-01,8.58770e-01,9.99999e-01
1.186482820e+00,8.61348e-01,9.99999e-01,9.99989e-01,8.61357e-01,9.99999e-01
1.192415234e+00,8.50886e-01,9.99999e-01,9.84935e-01,8.63900e-01,9.99999e-01
1.198377311e+00,4.83277e-01,9.99999e-01,5.57799e-01,8.66400e-01,9.99999e-01
1.204369197e+00,4.24401e-12,9.99999e-01,4.88458e-12,8.68857e-01,9.99999e-01
1.210391043e+00,1.45908e-44,9.99999e-01,1.67465e-44,8.71273e-01,9.99999e-01
1.216442998e+00,9.31416e-39,9.99999e-01,1.06612e-38,8.73648e-01,9.99999e-01
1.222525213e+00,3.38278e-38,9.99999e-01,3.86169e-38,8.75982e-01,9.99999e-01
1.228637839e+00,1.36729e-29,9.99999e-01,1.55678e-29,8.78276e-01,9.99999e-01
1.234781029e+00,4.36766e-19,9.99999e-01,4.96025e-19,8.80531e-01,9.99999e-01
1.240954934e+00,7.42374e-13,9.99999e-01,8.40981e-13,8.82746e-01,9.99999e-01
1.247159708e+00,4.59751e-07,9.99999e-01,5.19537e-07,8.84924e-01,9.99999e-01
1.253395507e+00,1.39932e-04,9.99999e-01,1.57747e-04,8.87063e-01,9.99999e-01
1.259662485e+00,5.85012e-03,9.99999e-01,6.57933e-03,8.89165e-01,9.99999e-01
1.265960797e+00,4.94737e-02,9.99999e-01,5.55116e-02,8.91231e-01,9.99999e-01
1.272290601e+00,2.59991e-01,9.99999e-01,2.91058e-01,8.93260e-01,9.99999e-01
1.278652054e+00,2.18560e-01,9.99999e-01,2.44131e-01,8.95254e-01,9.99999e-01
1.285045314e+00,3.67030e-03,9.99999e-01,4.09077e-03,8.97213e-01,9.99999e-01
1.291470541e+00,6.71812e-06,9.99999e-01,7.47174e-06,8.99137e-01,9.99999e-01
1.297927893e+00,6.35474e-03,9.99999e-01,7.05277e-03,9.01027e-01,9.99999e-01
1.304417533e+00,9.47620e-02,9.99999e-01,1.04955e-01,9.02884e-01,9.99999e-01
1.310939621e+00,1.52596e-02,9.99999e-01,1.68668e-02,9.04708e-01,9.99999e-01
1.317494319e+00,7.17497e-16,9.99999e-01,7.91502e-16,9.06499e-01,9.99999e-01
1.324081790e+00,2.72427e-08,9.99999e-01,2.99944e-08,9.08259e-01,9.99999e-01
1.330702199e+00,2.00454e-06,9.99999e-01,2.20282e-06,9.09987e-01,9.99999e-01
1.337355710e+00,3.03878e-06,9.99999e-01,3.33315e-06,9.11684e-01,9.99999e-01
1.344042489e+00,9.18239e-07,9.99999e-01,1.00535e-06,9.13350e-01,9.99999e-01
1.350762701e+00,1.24921e-06,9.99999e-01,1.36527e-06,9.14987e-01,9.99999e-01
1.357516515e+00,1.72199e-04,9.99999e-01,1.87868e-04,9.16594e-01,9.99999e-01
1.364304097e+00,3.23373e-03,9.99999e-01,3.52192e-03,9.18172e-01,9.99999e-01
1.371125618e+00,4.90047e-02,9.99999e-01,5.32821e-02,9.19722e-01,9.99999e-01
1.377981246e+00,8.15678e-02,9.99999e-01,8.85410e-02,9.21243e-01,9.99999e-01
1.384871152e+00,2.25321e-01,9.99999e-01,2.44187e-01,9.22737e-01,9.99999e-01
1.391795508e+00,2.51445e-01,9.99999e-01,2.72066e-01,9.24204e-01,9.99999e-01
1.398754485e+00,4.13886e-01,9.99999e-01,4.47133e-01,9.25644e-01,9.99999e-01
1.405748258e+00,5.13265e-01,9.99999e-01,5.53649e-01,9.27058e-01,9.99999e-01
1.412776999e+00,6.39081e-01,9.99999e-01,6.88333e-01,9.28445e-01,9.99999e-01
1.419840884e+00,5.68823e-01,9.99999e-01,6.11764e-01,9.29808e-01,9.99999e-01
1.426940089e+00,4.84172e-02,9.99999e-01,5.19974e-02,9.31146e-01,9.99999e-01
1.434074789e+00,0.00000e+00,9.99999e-01,0.00000e+00,9.32459e-01,9.99999e-01
1.441245163e+00,0.00000e+00,9.99999e-01,0.00000e+00,9.33747e-01,9.99999e-01
1.448451389e+00,0.00000e+00,9.99999e-01,0.00000e+00,9.35013e-01,9.99999e-01
1.455693646e+00,0.00000e+00,9.99999e-01,0.00000e+00,9.36254e-01,9.99999e-01
1.462972114e+00,5.54428e-174,9.99999e-01,5.91406e-174,9.37473e-01,9.99999e-01
1.470286975e+00,6.49721e-73,9.99999e-01,6.92171e-73,9.38670e-01,9.99999e-01
