#,Wave/freq,Total,N2,CO2,Rayleigh,CIA
4.000000000e-01,1.26177e-05,9.99999e-01,9.99999e-01,1.26177e-05,9.99999e-01
4.020000000e-01,1.57705e-05,9.99999e-01,9.99999e-01,1.57705e-05,9.99999e-01
4.040100000e-01,1.96200e-05,9.99999e-01,9.99999e-01,1.96200e-05,9.99999e-01
4.060300500e-01,2.43042e-05,9.99999e-01,9.99999e-01,2.43042e-05,9.99999e-01
4.080602003e-01,2.99795e-05,9.99999e-01,9.99999e-01,2.99795e-05,9.99999e-01
4.101005013e-01,3.68272e-05,9.99999e-01,9.99999e-01,3.68272e-05,9.99999e-01
4.121510038e-01,4.50555e-05,9.99999e-01,9.99999e-01,4.50555e-05,9.99999e-01
4.142117588e-01,5.49031e-05,9.99999e-01,9.99999e-01,5.49031e-05,9.99999e-01
4.162828176e-01,6.66424e-05,9.99999e-01,9.99999e-01,6.66424e-05,9.99999e-01
4.183642317e-01,8.05827e-05,9.99999e-01,9.99999e-01,8.05827e-05,9.99999e-01
4.204560528e-01,9.70742e-05,9.99999e-01,9.99999e-01,9.70742e-05,9.99999e-01
4.225583331e-01,1.16511e-04,9.99999e-01,9.99999e-01,1.16511e-04,9.99999e-01
4.246711247e-01,1.39337e-04,9.99999e-01,9.99999e-01,1.39337e-04,9.99999e-01
4.267944804e-01,1.66047e-04,9.99999e-01,9.99999e-01,1.66047e-04,9.99999e-01
4.289284528e-01,1.97193e-04,9.99999e-01,9.99999e-01,1.97193e-04,9.99999e-01
4.310730950e-01,2.33387e-04,9.99999e-01,9.99999e-01,2.33387e-04,9.99999e-01
4.332284605e-01,2.75306e-04,9.99999e-01,9.99999e-01,2.75306e-04,9.99999e-01
4.353946028e-01,3.23697e-04,9.99999e-01,9.99999e-01,3.23697e-04,9.99999e-01
4.375715758e-01,3.79378e-04,9.99999e-01,9.99999e-01,3.79378e-04,9.99999e-01
4.397594337e-01,4.43245e-04,9.99999e-01,9.99999e-01,4.43245e-04,9.99999e-01
4.419582309e-01,5.16274e-04,9.99999e-01,9.99999e-01,5.16274e-04,9.99999e-01
4.441680220e-01,5.99528e-04,9.99999e-01,9.99999e-01,5.99528e-04,9.99999e-01
4.463888621e-01,6.94154e-04,9.99999e-01,9.99999e-01,6.94154e-04,9.99999e-01
4.486208064e-01,8.01391e-04,9.99999e-01,9.99999e-01,8.01391e-04,9.99999e-01
4.508639105e-01,9.22574e-04,9.99999e-01,9.99999e-01,9.22574e-04,9.99999e-01
4.531182300e-01,1.05913e-03,9.99999e-01,9.99999e-01,1.05913e-03,9.99999e-01
4.553838212e-01,1.21259e-03,9.99999e-01,9.99999e-01,1.21259e-03,9.99999e-01
4.576607403e-01,1.38458e-03,9.99999e-01,9.99999e-01,1.38458e-03,9.99999e-01
4.599490440e-01,1.57683e-03,9.99999e-01,9.99999e-01,1.57683e-03,9.99999e-01
4.622487892e-01,1.79116e-03,9.99999e-01,9.99999e-01,1.79116e-03,9.99999e-01
4.645600332e-01,2.02952e-03,9.99999e-01,9.99999e-01,2.02952e-03,9.99999e-01
4.668828333e-01,2.29392e-03,9.99999e-01,9.99999e-01,2.29392e-03,9.99999e-01
4.692172475e-01,2.58651e-03,9.99999e-01,9.99999e-01,2.58651e-03,9.99999e-01
4.715633337e-01,2.90950e-03,9.99999e-01,9.99999e-01,2.90950e-03,9.99999e-01
4.739211504e-01,3.26524e-03,9.99999e-01,9.99999e-01,3.26524e-03,9.99999e-01
4.762907561e-01,3.65612e-03,9.99999e-01,9.99999e-01,3.65612e-03,9.99999e-01
4.786722099e-01,4.08467e-03,9.99999e-01,9.99999e-01,4.08467e-03,9.99999e-01
4.810655710e-01,4.55347e-03,9.99999e-01,9.99999e-01,4.55347e-03,9.99999e-01
4.834708988e-01,5.06520e-03,9.99999e-01,9.99999e-01,5.06520e-03,9.99999e-01
4.858882533e-01,5.62259e-03,9.99999e-01,9.99999e-01,5.62259e-03,9.99999e-01
4.883176946e-01,6.22846e-03,9.99999e-01,9.99999e-01,6.22846e-03,9.99999e-01
4.907592831e-01,6.88568e-03,9.99999e-01,9.99999e-01,6.88568e-03,9.99999e-01
4.932130795e-01,7.59719e-03,9.99999e-01,9.99999e-01,7.59719e-03,9.99999e-01
4.956791449e-01,8.36595e-03,9.99999e-01,9.99999e-01,8.36595e-03,9.99999e-01
4.981575406e-01,9.19498e-03,9.99999e-01,9.99999e-01,9.19498e-03,9.99999e-01
5.006483283e-01,1.00873e-02,9.99999e-01,9.99999e-01,1.00873e-02,9.99999e-01
5.031515699e-01,1.10460e-02,9.99999e-01,9.99999e-01,1.10460e-02,9.99999e-01
5.056673278e-01,1.20742e-02,9.99999e-01,9.99999e-01,1.20742e-02,9.99999e-01
5.081956644e-01,1.31748e-02,9.99999e-01,9.99999e-01,1.31748e-02,9.99999e-01
5.107366428e-01,1.43511e-02,9.99999e-01,9.99999e-01,1.43511e-02,9.99999e-01
5.132903260e-01,1.56060e-02,9.99999e-01,9.99999e-01,1.56060e-02,9.99999e-01
5.158567776e-01,1.69425e-02,9.99999e-01,9.99999e-01,1.69425e-02,9.99999e-01
5.184360615e-01,1.83637e-02,9.99999e-01,9.99999e-01,1.83637e-02,9.99999e-01
5.210282418e-01,1.98725e-02,9.99999e-01,9.99999e-01,1.98725e-02,9.99999e-01
5.236333830e-01,2.14716e-02,9.99999e-01,9.99999e-01,2.14716e-02,9.99999e-01
5.262515499e-01,2.31641e-02,9.99999e-01,9.99999e-01,2.31641e-02,9.99999e-01
5.288828077e-01,2.49525e-02,9.99999e-01,9.99999e-01,2.49525e-02,9.99999e-01
5.315272217e-01,2.68395e-02,9.99999e-01,9.99999e-01,2.68395e-02,9.99999e-01
5.341848578e-01,2.88277e-02,9.99999e-01,9.99999e-01,2.88277e-02,9.99999e-01
5.368557821e-01,3.09195e-02,9.99999e-01,9.99999e-01,3.09195e-02,9.99999e-01
5.395400610e-01,3.31173e-02,9.99999e-01,9.99999e-01,3.31173e-02,9.99999e-01
5.422377613e-01,3.54232e-02,9.99999e-01,9.99999e-01,3.54232e-02,9.99999e-01
5.449489501e-01,3.78392e-02,9.99999e-01,9.99999e-01,3.78392e-02,9.99999e-01
5.476736949e-01,4.03675e-02,9.99999e-01,9.99999e-01,4.03675e-02,9.99999e-01
5.504120634e-01,4.30096e-02,9.99999e-01,9.99999e-01,4.30096e-02,9.99999e-01
5.531641237e-01,4.57674e-02,9.99999e-01,9.99999e-01,4.57674e-02,9.99999e-01
5.559299443e-01,4.86423e-02,9.99999e-01,9.99999e-01,4.86423e-02,9.99999e-01
5.587095940e-01,5.16355e-02,9.99999e-01,9.99999e-01,5.16355e-02,9.99999e-01
5.615031420e-01,5.47483e-02,9.99999e-01,9.99999e-01,5.47483e-02,9.99999e-01
5.643106577e-01,5.79817e-02,9.99999e-01,9.99999e-01,5.79817e-02,9.99999e-01
5.671322110e-01,6.13365e-02,9.99999e-01,9.99999e-01,6.13365e-02,9.99999e-01
5.699678720e-01,6.48134e-02,9.99999e-01,9.99999e-01,6.48134e-02,9.99999e-01
5.728177114e-01,6.84128e-02,9.99999e-01,9.99999e-01,6.84128e-02,9.99999e-01
5.756818000e-01,7.21350e-02,9.99999e-01,9.99999e-01,7.21350e-02,9.99999e-01
5.785602090e-01,7.59802e-02,9.99999e-01,9.99999e-01,7.59802e-02,9.99999e-01
5.814530100e-01,7.99484e-02,9.99999e-01,9.99999e-01,7.99484e-02,9.99999e-01
5.843602750e-01,8.40392e-02,9.99999e-01,9.99999e-01,8.40392e-02,9.99999e-01
5.872820764e-01,8.82523e-02,9.99999e-01,9.99999e-01,8.82523e-02,9.99999e-01
5.902184868e-01,9.25871e-02,9.99999e-01,9.99999e-01,9.25871e-02,9.99999e-01
5.931695792e-01,9.70429e-02,9.99999e-01,9.99999e-01,9.70429e-02,9.99999e-01
5.961354271e-01,1.01619e-01,9.99999e-01,9.99999e-01,1.01619e-01,9.99999e-01
5.991161043e-01,1.06313e-01,9.99999e-01,9.99999e-01,1.06313e-01,9.99999e-01
6.021116848e-01,1.11126e-01,9.99999e-01,9.99999e-01,1.11126e-01,9.99999e-01
6.051222432e-01,1.16055e-01,9.99999e-01,9.99999e-01,1.16055e-01,9.99999e-01
6.081478544e-01,1.21098e-01,9.99999e-01,9.99999e-01,1.21098e-01,9.99999e-01
6.111885937e-01,1.26255e-01,9.99999e-01,9.99999e-01,1.26255e-01,9.99999e-01
6.142445367e-01,1.31523e-01,9.99999e-01,9.99999e-01,1.31523e-01,9.99999e-01
6.173157594e-01,1.36900e-01,9.99999e-01,9.99999e-01,1.36900e-01,9.99999e-01
6.204023382e-01,1.42384e-01,9.99999e-01,9.99999e-01,1.42384e-01,9.99999e-01
6.235043498e-01,1.47973e-01,9.99999e-01,9.99999e-01,1.47973e-01,9.99999e-01
6.266218716e-01,1.53664e-01,9.99999e-01,9.99999e-01,1.53664e-01,9.99999e-01
6.297549810e-01,1.59456e-01,9.99999e-01,9.99999e-01,1.59456e-01,9.99999e-01
6.329037559e-01,1.65345e-01,9.99999e-01,9.99999e-01,1.65345e-01,9.99999e-01
6.360682746e-01,1.71328e-01,9.99999e-01,9.99999e-01,1.71328e-01,9.99999e-01
6.392486160e-01,1.77404e-01,9.99999e-01,9.99999e-01,1.77404e-01,9.99999e-01
6.424448591e-01,1.83568e-01,9.99999e-01,9.99999e-01,1.83568e-01,9.99999e-01
6.456570834e-01,1.89819e-01,9.99999e-01,9.99999e-01,1.89819e-01,9.99999e-01
6.488853688e-01,1.96153e-01,9.99999e-01,9.99999e-01,1.96153e-01,9.99999e-01
6.521297956e-01,2.02566e-01,9.99999e-01,9.99999e-01,2.02566e-01,9.99999e-01
6.553904446e-01,2.09057e-01,9.99999e-01,9.99999e-01,2.09057e-01,9.99999e-01
6.586673968e-01,2.15621e-01,9.99999e-01,9.99999e-01,2.15621e-01,9.99999e-01
6.619607338e-01,2.22255e-01,9.99999e-01,9.99999e-01,2.22255e-01,9.99999e-01
6.652705375e-01,2.28957e-01,9.99999e-01,9.99999e-01,2.28957e-01,9.99999e-01
6.685968902e-01,2.35722e-01,9.99999e-01,9.99999e-01,2.35722e-01,9.99999e-01
6.719398746e-01,2.42547e-01,9.99999e-01,9.99999e-01,2.42547e-01,9.99999e-01
6.752995740e-01,2.49430e-01,9.99999e-01,9.99999e-01,2.49430e-01,9.99999e-01
6.786760719e-01,2.56366e-01,9.99999e-01,9.99999e-01,2.56366e-01,9.99999e-01
6.820694522e-01,2.63352e-01,9.99999e-01,9.99999e-01,2.63352e-01,9.99999e-01
6.854797995e-01,2.70385e-01,9.99999e-01,9.99999e-01,2.70385e-01,9.99999e-01
6.889071985e-01,2.77461e-01,9.99999e-01,9.99999e-01,2.77461e-01,9.99999e-01
6.923517345e-01,2.84577e-01,9.99999e-01,9.99999e-01,2.84577e-01,9.99999e-01
6.958134932e-01,2.91730e-01,9.99999e-01,9.99999e-01,2.91730e-01,9.99999e-01
6.992925606e-01,2.98916e-01,9.99999e-01,9.99999e-01,2.98916e-01,9.99999e-01
7.027890234e-01,3.06132e-01,9.99999e-01,9.99999e-01,3.06132e-01,9.99999e-01
7.063029686e-01,3.13374e-01,9.99999e-01,9.99999e-01,3.13374e-01,9.99999e-01
7.098344834e-01,3.20639e-01,9.99999e-01,9.99999e-01,3.20639e-01,9.99999e-01
7.133836558e-01,3.27925e-01,9.99999e-01,9.99999e-01,3.27925e-01,9.99999e-01
7.169505741e-01,3.35227e-01,9.99999e-01,9.99999e-01,3.35227e-01,9.99999e-01
7.205353270e-01,3.42542e-01,9.99999e-01,9.99999e-01,3.42542e-01,9.99999e-01
7.241380036e-01,3.49869e-01,9.99999e-01,9.99999e-01,3.49869e-01,9.99999e-01
7.277586936e-01,3.57202e-01,9.99999e-01,9.99999e-01,3.57202e-01,9.99999e-01
7.313974871e-01,3.64540e-01,9.99999e-01,9.99999e-01,3.64540e-01,9.99999e-01
7.350544745e-01,3.71879e-01,9.99999e-01,9.99999e-01,3.71879e-01,9.99999e-01
7.387297469e-01,3.79216e-01,9.99999e-01,9.99999e-01,3.79216e-01,9.99999e-01
7.424233956e-01,3.86550e-01,9.99999e-01,9.99999e-01,3.86550e-01,9.99999e-01
7.461355126e-01,3.93875e-01,9.99999e-01,9.99999e-01,3.93875e-01,9.99999e-01
7.498661902e-01,4.01191e-01,9.99999e-01,9.99999e-01,4.01191e-01,9.99999e-01
7.536155211e-01,4.08495e-01,9.99999e-01,9.99999e-01,4.08495e-01,9.99999e-01
7.573835987e-01,4.15783e-01,9.99999e-01,9.99999e-01,4.15783e-01,9.99999e-01
7.611705167e-01,4.23053e-01,9.99999e-01,9.99999e-01,4.23053e-01,9.99999e-01
7.649763693e-01,4.30303e-01,9.99999e-01,9.99999e-01,4.30303e-01,9.99999e-01
7.688012511e-01,4.37530e-01,9.99999e-01,9.99999e-01,4.37530e-01,9.99999e-01
7.726452574e-01,4.44733e-01,9.99999e-01,9.99999e-01,4.44733e-01,9.99999e-01
7.765084837e-01,4.51908e-01,9.99999e-01,9.99999e-01,4.51908e-01,9.99999e-01
7.803910261e-01,4.41850e-01,9.99999e-01,9.62522e-01,4.59054e-01,9.99999e-01
7.842929812e-01,3.97086e-01,9.99999e-01,8.51807e-01,4.66168e-01,9.99999e-01
7.882144461e-01,3.98058e-01,9.99999e-01,8.41117e-01,4.73249e-01,9.99999e-01
7.921555184e-01,4.34087e-01,9.99999e-01,9.03792e-01,4.80294e-01,9.99999e-01
7.961162960e-01,4.55659e-01,9.99999e-01,9.35064e-01,4.87302e-01,9.99999e-01
8.000968774e-01,4.76567e-01,9.99999e-01,9.64181e-01,4.94271e-01,9.99999e-01
8.040973618e-01,4.91860e-01,9.99999e-01,9.81367e-01,5.01199e-01,9.99999e-01
8.081178486e-01,5.03698e-01,9.99999e-01,9.91366e-01,5.08084e-01,9.99999e-01
8.121584379e-01,5.13565e-01,9.99999e-01,9.97357e-01,5.14925e-01,9.99999e-01
8.162192301e-01,5.21416e-01,9.99999e-01,9.99415e-01,5.21721e-01,9.99999e-01
8.203003262e-01,5.28465e-01,9.99999e-01,9.99991e-01,5.28469e-01,9.99999e-01
8.244018279e-01,5.35168e-01,9.99999e-01,9.99999e-01,5.35168e-01,9.99999e-01
8.285238370e-01,5.41818e-01,9.99999e-01,9.99999e-01,5.41818e-01,9.99999e-01
8.326664562e-01,5.48416e-01,9.99999e-01,9.99999e-01,5.48416e-01,9.99999e-01
8.368297885e-01,5.54962e-01,9.99999e-01,9.99999e-01,5.54962e-01,9.99999e-01
8.410139374e-01,5.61455e-01,9.99999e-01,9.99999e-01,5.61455e-01,9.99999e-01
8.452190071e-01,5.67893e-01,9.99999e-01,9.99999e-01,5.67893e-01,9.99999e-01
8.494451021e-01,5.74276e-01,9.99999e-01,9.99999e-01,5.74276e-01,9.99999e-01
8.536923276e-01,5.80602e-01,9.99999e-01,9.99999e-01,5.80602e-01,9.99999e-01
8.579607893e-01,5.86871e-01,9.99999e-01,9.99999e-01,5.86871e-01,9.99999e-01
8.622505932e-01,5.93081e-01,9.99999e-01,9.99999e-01,5.93081e-01,9.99999e-01
8.665618462e-01,5.50874e-01,9.99999e-01,9.19297e-01,5.99233e-01,9.99999e-01
8.708946554e-01,4.01964e-01,9.99999e-01,6.64046e-01,6.05325e-01,9.99999e-01
8.752491287e-01,4.40086e-01,9.99999e-01,7.19851e-01,6.11357e-01,9.99999e-01
8.796253743e-01,5.15371e-01,9.99999e-01,8.34840e-01,6.17328e-01,9.99999e-01
8.840235012e-01,5.67514e-01,9.99999e-01,9.10588e-01,6.23238e-01,9.99999e-01
8.884436187e-01,6.06389e-01,9.99999e-01,9.63919e-01,6.29086e-01,9.99999e-01
8.928858368e-01,6.25475e-01,9.99999e-01,9.85198e-01,6.34872e-01,9.99999e-01
8.973502660e-01,6.38294e-01,9.99999e-01,9.96408e-01,6.40595e-01,9.99999e-01
9.018370173e-01,6.46000e-01,9.99999e-01,9.99604e-01,6.46255e-01,9.99999e-01
9.063462024e-01,6.45007e-01,9.99999e-01,9.89499e-01,6.51852e-01,9.99999e-01
9.108779334e-01,6.42049e-01,9.99999e-01,9.76670e-01,6.57385e-01,9.99999e-01
9.154323231e-01,6.59239e-01,9.99999e-01,9.94544e-01,6.62855e-01,9.99999e-01
9.200094847e-01,6.15770e-01,9.99999e-01,9.21451e-01,6.68261e-01,9.99999e-01
9.246095321e-01,6.00023e-01,9.99999e-01,8.90766e-01,6.73602e-01,9.99999e-01
9.292325798e-01,6.19407e-01,9.99999e-01,9.12394e-01,6.78880e-01,9.99999e-01
9.338787427e-01,6.26690e-01,9.99999e-01,9.16087e-01,6.84094e-01,9.99999e-01
9.385481364e-01,6.46219e-01,9.99999e-01,9.37577e-01,6.89243e-01,9.99999e-01
9.432408771e-01,6.67538e-01,9.99999e-01,9.61414e-01,6.94329e-01,9.99999e-01
9.479570815e-01,6.85344e-01,9.99999e-01,9.79972e-01,6.99350e-01,9.99999e-01
9.526968669e-01,6.97489e-01,9.99999e-01,9.90318e-01,7.04307e-01,9.99999e-01
9.574603512e-01,7.06260e-01,9.99999e-01,9.95853e-01,7.09201e-01,9.99999e-01
9.622476530e-01,7.13108e-01,9.99999e-01,9.98706e-01,7.14031e-01,9.99999e-01
9.670588912e-01,7.18519e-01,9.99999e-01,9.99613e-01,7.18797e-01,9.99999e-01
9.718941857e-01,7.23481e-01,9.99999e-01,9.99972e-01,7.23500e-01,9.99999e-01
9.767536566e-01,7.28140e-01,9.99999e-01,9.99999e-01,7.28140e-01,9.99999e-01
9.816374249e-01,7.32718e-01,9.99999e-01,9.99999e-01,7.32718e-01,9.99999e-01
9.865456120e-01,7.37233e-01,9.99999e-01,9.99999e-01,7.37233e-01,9.99999e-01
9.914783401e-01,7.41685e-01,9.99999e-01,9.99999e-01,7.41685e-01,9.99999e-01
9.964357318e-01,7.46076e-01,9.99999e-01,9.99999e-01,7.46076e-01,9.99999e-01
1.001417910e+00,7.50405e-01,9.99999e-01,9.99999e-01,7.50405e-01,9.99999e-01
1.006425000e+00,7.54674e-01,9.99999e-01,9.99999e-01,7.54674e-01,9.99999e-01
1.011457125e+00,7.58881e-01,9.99999e-01,9.99999e-01,7.58881e-01,9.99999e-01
1.016514411e+00,7.63028e-01,9.99999e-01,9.99999e-01,7.63028e-01,9.99999e-01
1.021596983e+00,7.67066e-01,9.99999e-01,9.99935e-01,7.67115e-01,9.99999e-01
1.026704968e+00,7.67962e-01,9.99999e-01,9.95873e-01,7.71143e-01,9.99999e-01
1.031838492e+00,7.36216e-01,9.99999e-01,9.49818e-01,7.75112e-01,9.99999e-01
1.036997685e+00,1.10000e-01,9.99999e-01,1.41202e-01,7.79022e-01,9.99999e-01
1.042182673e+00,8.25962e-02,9.99999e-01,1.05504e-01,7.82874e-01,9.99999e-01
1.047393587e+00,9.93566e-02,9.99999e-01,1.26300e-01,7.86668e-01,9.99999e-01
1.052630555e+00,2.25640e-03,9.99999e-01,2.85473e-03,7.90406e-01,9.99999e-01
1.057893707e+00,6.08012e-03,9.99999e-01,7.65675e-03,7.94086e-01,9.99999e-01
1.063183176e+00,2.17463e-02,9.99999e-01,2.72609e-02,7.97711e-01,9.99999e-01
1.068499092e+00,6.42676e-02,9.99999e-01,8.02061e-02,8.01280e-01,9.99999e-01
1.073841587e+00,1.64029e-01,9.99999e-01,2.03815e-01,8.04794e-01,9.99999e-01
1.079210795e+00,2.95107e-01,9.99999e-01,3.65116e-01,8.08254e-01,9.99999e-01
1.084606849e+00,4.66276e-01,9.99999e-01,5.74472e-01,8.11660e-01,9.99999e-01
1.090029883e+00,6.10910e-01,9.99999e-01,7.49572e-01,8.15012e-01,9.99999e-01
1.095480033e+00,7.10129e-01,9.99999e-01,8.67797e-01,8.18312e-01,9.99999e-01
1.100957433e+00,7.67271e-01,9.99999e-01,9.33920e-01,8.21559e-01,9.99999e-01
1.106462220e+00,8.01808e-01,9.99999e-01,9.72176e-01,8.24755e-01,9.99999e-01
1.111994531e+00,8.19286e-01,9.99999e-01,9.89594e-01,8.27900e-01,9.99999e-01
1.117554504e+00,8.28888e-01,9.99999e-01,9.97465e-01,8.30994e-01,9.99999e-01
1.123142276e+00,8.33901e-01,9.99999e-01,9.99834e-01,8.34038e-01,9.99999e-01
1.128757988e+00,8.37033e-01,9.99999e-01,9.99999e-01,8.37033e-01,9.99999e-01
1.134401778e+00,8.39980e-01,9.99999e-01,9.99999e-01,8.39980e-01,9.99999e-01
1.140073787e+00,8.42878e-01,9.99999e-01,9.99999e-01,8.42878e-01,9.99999e-01
1.145774156e+00,8.45728e-01,9.99999e-01,9.99999e-01,8.45728e-01,9.99999e-01
1.151503026e+00,8.48532e-01,9.99999e-01,9.99999e-01,8.48532e-01,9.99999e-01
1.157260541e+00,8.51289e-01,9.99999e-01,9.99999e-01,8.51289e-01,9.99999e-01
1.163046844e+00,8.54001e-01,9.99999e-01,9.99999e-01,8.54001e-01,9.99999e-01
1.168862078e+00,8.56667e-01,9.99999e-01,9.99999e-01,8.56667e-01,9.99999e-01
1.174706389e+00,8.59289e-01,9.99999e-01,9.99999e-01,8.59289e-01,9.99999e-01
1.180579921e+00,8.61867e-01,9.99999e-01,9.99999e-01,8.61867e-01,9.99999e-01
1.186482820e+00,8.64393e-01,9.99999e-01,9.99989e-01,8.64401e-01,9.99999e-01
1.192415234e+00,8.54134e-01,9.99999e-01,9.85281e-01,8.66893e-01,9.99999e-01
1.198377311e+00,4.85485e-01,9.99999e-01,5.58450e-01,8.69342e-01,9.99999e-01
1.204369197e+00,7.25446e-12,9.99999e-01,8.32171e-12,8.71750e-01,9.99999e-01
1.210391043e+00,1.46008e-43,9.99999e-01,1.67035e-43,8.74117e-01,9.99999e-01
1.216442998e+00,6.79516e-38,9.99999e-01,7.75310e-38,8.76443e-01,9.99999e-01
1.222525213e+00,2.39399e-37,9.99999e-01,2.72438e-37,8.78729e-01,9.99999e-01
1.228637839e+00,6.23116e-29,9.99999e-01,7.07301e-29,8.80975e-01,9.99999e-01
1.234781029e+00,1.09217e-18,9.99999e-01,1.23663e-18,8.83183e-01,9.99999e-01
1.240954934e+00,1.36447e-12,9.99999e-01,1.54116e-12,8.85353e-01,9.99999e-01
1.247159708e+00,6.02690e-07,9.99999e-01,6.79098e-07,8.87485e-01,9.99999e-01
1.253395507e+00,1.69666e-04,9.99999e-01,1.90726e-04,8.89580e-01,9.99999e-01
1.259662485e+00,6.54571e-03,9.99999e-01,7.34121e-03,8.91638e-01,9.99999e-01
1.265960797e+00,5.27623e-02,9.99999e-01,5.90406e-02,8.93661e-01,9.99999e-01
1.272290601e+00,2.68158e-01,9.99999e-01,2.99402e-01,8.95647e-01,9.99999e-01
1.278652054e+00,2.25572e-01,9.99999e-01,2.51306e-01,8.97599e-01,9.99999e-01
1.285045314e+00,3.95005e-03,9.99999e-01,4.39130e-03,8.99517e-01,9.99999e-01
1.291470541e+00,8.73231e-06,9.99999e-01,9.68749e-06,9.01400e-01,9.99999e-01
1.297927893e+00,6.93198e-03,9.99999e-01,7.67448e-03,9.03250e-01,9.99999e-01
1.304417533e+00,1.00071e-01,9.99999e-01,1.10568e-01,9.05068e-01,9.99999e-01
1.310939621e+00,1.61439e-02,9.99999e-01,1.78021e-02,9.06853e-01,9.99999e-01
1.317494319e+00,1.58588e-15,9.99999e-01,1.74540e-15,9.08606e-01,9.99999e-01
1.324081790e+00,3.78711e-08,9.99999e-01,4.16016e-08,9.10327e-01,9.99999e-01
1.330702199e+00,2.69525e-06,9.99999e-01,2.95526e-06,9.12018e-01,9.99999e-01
1.337355710e+00,3.94856e-06,9.99999e-01,4.32160e-06,9.13679e-01,9.99999e-01
1.344042489e+00,1.18333e-06,9.99999e-01,1.29282e-06,9.15310e-01,9.99999e-01
1.350762701e+00,1.68951e-06,9.99999e-01,1.84260e-06,9.16911e-01,9.99999e-01
1.357516515e+00,2.06442e-04,9.99999e-01,2.24764e-04,9.18483e-01,9.99999e-01
1.364304097e+00,3.68532e-03,9.99999e-01,4.00566e-03,9.20027e-01,9.99999e-01
1.371125618e+00,5.24120e-02,9.99999e-01,5.68741e-02,9.21543e-01,9.99999e-01
1.377981246e+00,8.64815e-02,9.99999e-01,9.36928e-02,9.23032e-01,9.99999e-01
1.384871152e+00,2.33304e-01,9.99999e-01,2.52359e-01,9.24493e-01,9.99999e-01
1.391795508e+00,2.59684e-01,9.99999e-01,2.80458e-01,9.25928e-01,9.99999e-01
1.398754485e+00,4.22591e-01,9.99999e-01,4.55703e-01,9.27336e-01,9.99999e-01
1.405748258e+00,5.21360e-01,9.99999e-01,5.61375e-01,9.28719e-01,9.99999e-01
1.412776999e+00,6.45859e-01,9.99999e-01,6.94414e-01,9.30077e-01,9.99999e-01
1.419840884e+00,5.75208e-01,9.99999e-01,6.17567e-01,9.31409e-01,9.99999e-01
1.426940089e+00,4.98155e-02,9.99999e-01,5.34090e-02,9.32717e-01,9.99999e-01
1.434074789e+00,0.00000e+00,9.99999e-01,0.00000e+00,9.34002e-01,9.99999e-01
1.441245163e+00,0.00000e+00,9.99999e-01,0.00000e+00,9.35262e-01,9.99999e-01
1.448451389e+00,0.00000e+00,9.99999e-01,0.00000e+00,9.36499e-01,9.99999e-01
1.455693646e+00,0.00000e+00,9.99999e-01,0.00000e+00,9.37714e-01,9.99999e-01
1.462972114e+00,6.35945e-170,9.99999e-01,6.77325e-170,9.38906e-01,9.99999e-01
1.470286975e+00,3.04190e-71,9.99999e-01,3.23580e-71,9.40075e-01,9.99999e-01
