#,Wave/freq,Total,N2,CO2,Rayleigh,CIA
4.000000000e-01,3.70110e-04,9.99999e-01,9.99999e-01,3.70110e-04,9.99999e-01
4.020000000e-01,4.32698e-04,9.99999e-01,9.99999e-01,4.32698e-04,9.99999e-01
4.040100000e-01,5.04230e-04,9.99999e-01,9.99999e-01,5.04230e-04,9.99999e-01
4.060300500e-01,5.85814e-04,9.99999e-01,9.99999e-01,5.85814e-04,9.99999e-01
4.080602003e-01,6.78586e-04,9.99999e-01,9.99999e-01,6.78586e-04,9.99999e-01
4.101005013e-01,7.83769e-04,9.99999e-01,9.99999e-01,7.83769e-04,9.99999e-01
4.121510038e-01,9.02684e-04,9.99999e-01,9.99999e-01,9.02684e-04,9.99999e-01
4.142117588e-01,1.03674e-03,9.99999e-01,9.99999e-01,1.03674e-03,9.99999e-01
4.162828176e-01,1.18746e-03,9.99999e-01,9.99999e-01,1.18746e-03,9.99999e-01
4.183642317e-01,1.35645e-03,9.99999e-01,9.99999e-01,1.35645e-03,9.99999e-01
4.204560528e-01,1.54541e-03,9.99999e-01,9.99999e-01,1.54541e-03,9.99999e-01
4.225583331e-01,1.75618e-03,9.99999e-01,9.99999e-01,1.75618e-03,9.99999e-01
4.246711247e-01,1.99065e-03,9.99999e-01,9.99999e-01,1.99065e-03,9.99999e-01
4.267944804e-01,2.25085e-03,9.99999e-01,9.99999e-01,2.25085e-03,9.99999e-01
4.289284528e-01,2.53889e-03,9.99999e-01,9.99999e-01,2.53889e-03,9.99999e-01
4.310730950e-01,2.85699e-03,9.99999e-01,9.99999e-01,2.85699e-03,9.99999e-01
4.332284605e-01,3.20746e-03,9.99999e-01,9.99999e-01,3.20746e-03,9.99999e-01
4.353946028e-01,3.59270e-03,9.99999e-01,9.99999e-01,3.59270e-03,9.99999e-01
4.375715758e-01,4.01520e-03,9.99999e-01,9.99999e-01,4.01520e-03,9.99999e-01
4.397594337e-01,4.47754e-03,9.99999e-01,9.99999e-01,4.47754e-03,9.99999e-01
4.419582309e-01,4.98239e-03,9.99999e-01,9.99999e-01,4.98239e-03,9.99999e-01
4.441680220e-01,5.53247e-03,9.99999e-01,9.99999e-01,5.53247e-03,9.99999e-01
4.463888621e-01,6.13058e-03,9.99999e-01,9.99999e-01,6.13058e-03,9.99999e-01
4.486208064e-01,6.77960e-03,9.99999e-01,9.99999e-01,6.77960e-03,9.99999e-01
4.508639105e-01,7.48244e-03,9.99999e-01,9.99999e-01,7.48244e-03,9.99999e-01
4.531182300e-01,8.24206e-03,9.99999e-01,9.99999e-01,8.24206e-03,9.99999e-01
4.553838212e-01,9.06149e-03,9.99999e-01,9.99999e-01,9.06149e-03,9.99999e-01
4.576607403e-01,9.94374e-03,9.99999e-01,9.99999e-01,9.94374e-03,9.99999e-01
4.599490440e-01,1.08919e-02,9.99999e-01,9.99999e-01,1.08919e-02,9.99999e-01
4.622487892e-01,1.19090e-02,9.99999e-01,9.99999e-01,1.19090e-02,9.99999e-01
4.645600332e-01,1.29981e-02,9.99999e-01,9.99999e-01,1.29981e-02,9.99999e-01
4.668828333e-01,1.41624e-02,9.99999e-01,9.99999e-01,1.41624e-02,9.99999e-01
4.692172475e-01,1.54048e-02,9.99999e-01,9.99999e-01,1.54048e-02,9.99999e-01
4.715633337e-01,1.67284e-02,9.99999e-01,9.99999e-01,1.67284e-02,9.99999e-01
4.739211504e-01,1.81362e-02,9.99999e-01,9.99999e-01,1.81362e-02,9.99999e-01
4.762907561e-01,1.96311e-02,9.99999e-01,9.99999e-01,1.96311e-02,9.99999e-01
4.786722099e-01,2.12160e-02,9.99999e-01,9.99999e-01,2.12160e-02,9.99999e-01
4.810655710e-01,2.28937e-02,9.99999e-01,9.99999e-01,2.28937e-02,9.99999e-01
4.834708988e-01,2.46669e-02,9.99999e-01,9.99999e-01,2.46669e-02,9.99999e-01
4.858882533e-01,2.65384e-02,9.99999e-01,9.99999e-01,2.65384e-02,9.99999e-01
4.883176946e-01,2.85106e-02,9.99999e-01,9.99999e-01,2.85106e-02,9.99999e-01
4.907592831e-01,3.05861e-02,9.99999e-01,9.99999e-01,3.05861e-02,9.99999e-01
4.932130795e-01,3.27672e-02,9.99999e-01,9.99999e-01,3.27672e-02,9.99999e-01
4.956791449e-01,3.50560e-02,9.99999e-01,9.99999e-01,3.50560e-02,9.99999e-01
4.981575406e-01,3.74548e-02,9.99999e-01,9.99999e-01,3.74548e-02,9.99999e-01
5.006483283e-01,3.99654e-02,9.99999e-01,9.99999e-01,3.99654e-02,9.99999e-01
5.031515699e-01,4.25897e-02,9.99999e-01,9.99999e-01,4.25897e-02,9.99999e-01
5.056673278e-01,4.53293e-02,9.99999e-01,9.99999e-01,4.53293e-02,9.99999e-01
5.081956644e-01,4.81858e-02,9.99999e-01,9.99999e-01,4.81858e-02,9.99999e-01
5.107366428e-01,5.11604e-02,9.99999e-01,9.99999e-01,5.11604e-02,9.99999e-01
5.132903260e-01,5.42545e-02,9.99999e-01,9.99999e-01,5.42545e-02,9.99999e-01
5.158567776e-01,5.74691e-02,9.99999e-01,9.99999e-01,5.74691e-02,9.99999e-01
5.184360615e-01,6.08049e-02,9.99999e-01,9.99999e-01,6.08049e-02,9.99999e-01
5.210282418e-01,6.42626e-02,9.99999e-01,9.99999e-01,6.42626e-02,9.99999e-01
5.236333830e-01,6.78429e-02,9.99999e-01,9.99999e-01,6.78429e-02,9.99999e-01
5.262515499e-01,7.15459e-02,9.99999e-01,9.99999e-01,7.15459e-02,9.99999e-01
5.288828077e-01,7.53719e-02,9.99999e-01,9.99999e-01,7.53719e-02,9.99999e-01
5.315272217e-01,7.93209e-02,9.99999e-01,9.99999e-01,7.93209e-02,9.99999e-01
5.341848578e-01,8.33926e-02,9.99999e-01,9.99999e-01,8.33926e-02,9.99999e-01
5.368557821e-01,8.75866e-02,9.99999e-01,9.99999e-01,8.75866e-02,9.99999e-01
5.395400610e-01,9.19025e-02,9.99999e-01,9.99999e-01,9.19025e-02,9.99999e-01
5.422377613e-01,9.63394e-02,9.99999e-01,9.99999e-01,9.63394e-02,9.99999e-01
5.449489501e-01,1.00897e-01,9.99999e-01,9.99999e-01,1.00897e-01,9.99999e-01
5.476736949e-01,1.05573e-01,9.99999e-01,9.99999e-01,1.05573e-01,9.99999e-01
5.504120634e-01,1.10367e-01,9.99999e-01,9.99999e-01,1.10367e-01,9.99999e-01
5.531641237e-01,1.15278e-01,9.99999e-01,9.99999e-01,1.15278e-01,9.99999e-01
5.559299443e-01,1.20304e-01,9.99999e-01,9.99999e-01,1.20304e-01,9.99999e-01
5.587095940e-01,1.25443e-01,9.99999e-01,9.99999e-01,1.25443e-01,9.99999e-01
5.615031420e-01,1.30693e-01,9.99999e-01,9.99999e-01,1.30693e-01,9.99999e-01
5.643106577e-01,1.36053e-01,9.99999e-01,9.99999e-01,1.36053e-01,9.99999e-01
5.671322110e-01,1.41521e-01,9.99999e-01,9.99999e-01,1.41521e-01,9.99999e-01
5.699678720e-01,1.47094e-01,9.99999e-01,9.99999e-01,1.47094e-01,9.99999e-01
5.728177114e-01,1.52769e-01,9.99999e-01,9.99999e-01,1.52769e-01,9.99999e-01
5.756818000e-01,1.58545e-01,9.99999e-01,9.99999e-01,1.58545e-01,9.99999e-01
5.785602090e-01,1.64419e-01,9.99999e-01,9.99999e-01,1.64419e-01,9.99999e-01
5.814530100e-01,1.70388e-01,9.99999e-01,9.99999e-01,1.70388e-01,9.99999e-01
5.843602750e-01,1.76450e-01,9.99999e-01,9.99999e-01,1.76450e-01,9.99999e-01
5.872820764e-01,1.82600e-01,9.99999e-01,9.99999e-01,1.82600e-01,9.99999e-01
5.902184868e-01,1.88838e-01,9.99999e-01,9.99999e-01,1.88838e-01,9.99999e-01
5.931695792e-01,1.95159e-01,9.99999e-01,9.99999e-01,1.95159e-01,9.99999e-01
5.961354271e-01,2.01560e-01,9.99999e-01,9.99999e-01,2.01560e-01,9.99999e-01
5.991161043e-01,2.08039e-01,9.99999e-01,9.99999e-01,2.08039e-01,9.99999e-01
6.021116848e-01,2.14591e-01,9.99999e-01,9.99999e-01,2.14591e-01,9.99999e-01
6.051222432e-01,2.21215e-01,9.99999e-01,9.99999e-01,2.21215e-01,9.99999e-01
6.081478544e-01,2.27906e-01,9.99999e-01,9.99999e-01,2.27906e-01,9.99999e-01
6.111885937e-01,2.34662e-01,9.99999e-01,9.99999e-01,2.34662e-01,9.99999e-01
6.142445367e-01,2.41478e-01,9.99999e-01,9.99999e-01,2.41478e-01,9.99999e-01
6.173157594e-01,2.48352e-01,9.99999e-01,9.99999e-01,2.48352e-01,9.99999e-01
6.204023382e-01,2.55280e-01,9.99999e-01,9.99999e-01,2.55280e-01,9.99999e-01
6.235043498e-01,2.62258e-01,9.99999e-01,9.99999e-01,2.62258e-01,9.99999e-01
6.266218716e-01,2.69284e-01,9.99999e-01,9.99999e-01,2.69284e-01,9.99999e-01
6.297549810e-01,2.76354e-01,9.99999e-01,9.99999e-01,2.76354e-01,9.99999e-01
6.329037559e-01,2.83464e-01,9.99999e-01,9.99999e-01,2.83464e-01,9.99999e-01
6.360682746e-01,2.90611e-01,9.99999e-01,9.99999e-01,2.90611e-01,9.99999e-01
6.392486160e-01,2.97792e-01,9.99999e-01,9.99999e-01,2.97792e-01,9.99999e-01
6.424448591e-01,3.05003e-01,9.99999e-01,9.99999e-01,3.05003e-01,9.99999e-01
6.456570834e-01,3.12242e-01,9.99999e-01,9.99999e-01,3.12242e-01,9.99999e-01
6.488853688e-01,3.19504e-01,9.99999e-01,9.99999e-01,3.19504e-01,9.99999e-01
6.521297956e-01,3.26786e-01,9.99999e-01,9.99999e-01,3.26786e-01,9.99999e-01
6.553904446e-01,3.34086e-01,9.99999e-01,9.99999e-01,3.34086e-01,9.99999e-01
6.586673968e-01,3.41400e-01,9.99999e-01,9.99999e-01,3.41400e-01,9.99999e-01
6.619607338e-01,3.48724e-01,9.99999e-01,9.99999e-01,3.48724e-01,9.99999e-01
6.652705375e-01,3.56057e-01,9.99999e-01,9.99999e-01,3.56057e-01,9.99999e-01
6.685968902e-01,3.63394e-01,9.99999e-01,9.99999e-01,3.63394e-01,9.99999e-01
6.719398746e-01,3.70733e-01,9.99999e-01,9.99999e-01,3.70733e-01,9.99999e-01
6.752995740e-01,3.78071e-01,9.99999e-01,9.99999e-01,3.78071e-01,9.99999e-01
6.786760719e-01,3.85405e-01,9.99999e-01,9.99999e-01,3.85405e-01,9.99999e-01
6.820694522e-01,3.92733e-01,9.99999e-01,9.99999e-01,3.92733e-01,9.99999e-01
6.854797995e-01,4.00050e-01,9.99999e-01,9.99999e-01,4.00050e-01,9.99999e-01
6.889071985e-01,4.07356e-01,9.99999e-01,9.99999e-01,4.07356e-01,9.99999e-01
6.923517345e-01,4.14646e-01,9.99999e-01,9.99999e-01,4.14646e-01,9.99999e-01
6.958134932e-01,4.21919e-01,9.99999e-01,9.99999e-01,4.21919e-01,9.99999e-01
6.992925606e-01,4.29173e-01,9.99999e-01,9.99999e-01,4.29173e-01,9.99999e-01
7.027890234e-01,4.36404e-01,9.99999e-01,9.99999e-01,4.36404e-01,9.99999e-01
7.063029686e-01,4.43610e-01,9.99999e-01,9.99999e-01,4.43610e-01,9.99999e-01
7.098344834e-01,4.50790e-01,9.99999e-01,9.99999e-01,4.50790e-01,9.99999e-01
7.133836558e-01,4.57941e-01,9.99999e-01,9.99999e-01,4.57941e-01,9.99999e-01
7.169505741e-01,4.65060e-01,9.99999e-01,9.99999e-01,4.65060e-01,9.99999e-01
7.205353270e-01,4.72146e-01,9.99999e-01,9.99999e-01,4.72146e-01,9.99999e-01
7.241380036e-01,4.79197e-01,9.99999e-01,9.99999e-01,4.79197e-01,9.99999e-01
7.277586936e-01,4.86211e-01,9.99999e-01,9.99999e-01,4.86211e-01,9.99999e-01
7.313974871e-01,4.93186e-01,9.99999e-01,9.99999e-01,4.93186e-01,9.99999e-01
7.350544745e-01,5.00120e-01,9.99999e-01,9.99999e-01,5.00120e-01,9.99999e-01
7.387297469e-01,5.07012e-01,9.99999e-01,9.99999e-01,5.07012e-01,9.99999e-01
7.424233956e-01,5.13861e-01,9.99999e-01,9.99999e-01,5.13861e-01,9.99999e-01
7.461355126e-01,5.20663e-01,9.99999e-01,9.99999e-01,5.20663e-01,9.99999e-01
7.498661902e-01,5.27419e-01,9.99999e-01,9.99999e-01,5.27419e-01,9.99999e-01
7.536155211e-01,5.34126e-01,9.99999e-01,9.99999e-01,5.34126e-01,9.99999e-01
7.573835987e-01,5.40783e-01,9.99999e-01,9.99999e-01,5.40783e-01,9.99999e-01
7.611705167e-01,5.47390e-01,9.99999e-01,9.99999e-01,5.47390e-01,9.99999e-01
7.649763693e-01,5.53944e-01,9.99999e-01,9.99999e-01,5.53944e-01,9.99999e-01
7.688012511e-01,5.60445e-01,9.99999e-01,9.99999e-01,5.60445e-01,9.99999e-01
7.726452574e-01,5.66892e-01,9.99999e-01,9.99999e-01,5.66892e-01,9.99999e-01
7.765084837e-01,5.73283e-01,9.99999e-01,9.99999e-01,5.73283e-01,9.99999e-01
7.803910261e-01,5.64942e-01,9.99999e-01,9.74678e-01,5.79618e-01,9.99999e-01
7.842929812e-01,5.22474e-01,9.99999e-01,8.91750e-01,5.85896e-01,9.99999e-01
7.882144461e-01,5.23893e-01,9.99999e-01,8.84781e-01,5.92116e-01,9.99999e-01
7.921555184e-01,5.57371e-01,9.99999e-01,9.31626e-01,5.98277e-01,9.99999e-01
7.961162960e-01,5.76310e-01,9.99999e-01,9.53557e-01,6.04378e-01,9.99999e-01
8.000968774e-01,5.94909e-01,9.99999e-01,9.74588e-01,6.10420e-01,9.99999e-01
8.040973618e-01,6.08220e-01,9.99999e-01,9.86728e-01,6.16400e-01,9.99999e-01
8.081178486e-01,6.18526e-01,9.99999e-01,9.93903e-01,6.22320e-01,9.99999e-01
8.121584379e-01,6.26987e-01,9.99999e-01,9.98103e-01,6.28178e-01,9.99999e-01
8.162192301e-01,6.33708e-01,9.99999e-01,9.99580e-01,6.33973e-01,9.99999e-01
8.203003262e-01,6.39702e-01,9.99999e-01,9.99992e-01,6.39706e-01,9.99999e-01
8.244018279e-01,6.45376e-01,9.99999e-01,9.99999e-01,6.45376e-01,9.99999e-01
8.285238370e-01,6.50983e-01,9.99999e-01,9.99999e-01,6.50983e-01,9.99999e-01
8.326664562e-01,6.56526e-01,9.99999e-01,9.99999e-01,6.56526e-01,9.99999e-01
8.368297885e-01,6.62005e-01,9.99999e-01,9.99999e-01,6.62005e-01,9.99999e-01
8.410139374e-01,6.67421e-01,9.99999e-01,9.99999e-01,6.67421e-01,9.99999e-01
8.452190071e-01,6.72773e-01,9.99999e-01,9.99999e-01,6.72773e-01,9.99999e-01
8.494451021e-01,6.78061e-01,9.99999e-01,9.99999e-01,6.78061e-01,9.99999e-01
8.536923276e-01,6.83284e-01,9.99999e-01,9.99999e-01,6.83284e-01,9.99999e-01
8.579607893e-01,6.88444e-01,9.99999e-01,9.99999e-01,6.88444e-01,9.99999e-01
8.622505932e-01,6.93539e-01,9.99999e-01,9.99999e-01,6.93539e-01,9.99999e-01
8.665618462e-01,6.56007e-01,9.99999e-01,9.39069e-01,6.98570e-01,9.99999e-01
8.708946554e-01,5.25302e-01,9.99999e-01,7.46658e-01,7.03538e-01,9.99999e-01
8.752491287e-01,5.60351e-01,9.99999e-01,7.90962e-01,7.08441e-01,9.99999e-01
8.796253743e-01,6.27421e-01,9.99999e-01,8.79626e-01,7.13281e-01,9.99999e-01
8.840235012e-01,6.71984e-01,9.99999e-01,9.35836e-01,7.18057e-01,9.99999e-01
8.884436187e-01,7.04103e-01,9.99999e-01,9.74171e-01,7.22770e-01,9.99999e-01
8.928858368e-01,7.19768e-01,9.99999e-01,9.89479e-01,7.27420e-01,9.99999e-01
8.973502660e-01,7.30123e-01,9.99999e-01,9.97425e-01,7.32007e-01,9.99999e-01
9.018370173e-01,7.36323e-01,9.99999e-01,9.99715e-01,7.36532e-01,9.99999e-01
9.063462024e-01,7.35696e-01,9.99999e-01,9.92848e-01,7.40994e-01,9.99999e-01
9.108779334e-01,7.33065e-01,9.99999e-01,9.83458e-01,7.45395e-01,9.99999e-01
9.154323231e-01,7.46790e-01,9.99999e-01,9.96073e-01,7.49734e-01,9.99999e-01
9.200094847e-01,7.12006e-01,9.99999e-01,9.44290e-01,7.54011e-01,9.99999e-01
9.246095321e-01,6.98772e-01,9.99999e-01,9.21584e-01,7.58228e-01,9.99999e-01
9.292325798e-01,7.15302e-01,9.99999e-01,9.38242e-01,7.62385e-01,9.99999e-01
9.338787427e-01,7.20476e-01,9.99999e-01,9.39978e-01,7.66481e-01,9.99999e-01
9.385481364e-01,7.36306e-01,9.99999e-01,9.55598e-01,7.70518e-01,9.99999e-01
9.432408771e-01,7.53237e-01,9.99999e-01,9.72551e-01,7.74496e-01,9.99999e-01
9.479570815e-01,7.67401e-01,9.99999e-01,9.85849e-01,7.78415e-01,9.99999e-01
9.526968669e-01,7.76914e-01,9.99999e-01,9.93144e-01,7.82276e-01,9.99999e-01
9.574603512e-01,7.83771e-01,9.99999e-01,9.97062e-01,7.86080e-01,9.99999e-01
9.622476530e-01,7.89102e-01,9.99999e-01,9.99082e-01,7.89826e-01,9.99999e-01
9.670588912e-01,7.93297e-01,9.99999e-01,9.99724e-01,7.93516e-01,9.99999e-01
9.718941857e-01,7.97133e-01,9.99999e-01,9.99979e-01,7.97149e-01,9.99999e-01
9.767536566e-01,8.00727e-01,9.99999e-01,9.99999e-01,8.00727e-01,9.99999e-01
9.816374249e-01,8.04249e-01,9.99999e-01,9.99999e-01,8.04249e-01,9.99999e-01
9.865456120e-01,8.07717e-01,9.99999e-01,9.99999e-01,8.07717e-01,9.99999e-01
9.914783401e-01,8.11132e-01,9.99999e-01,9.99999e-01,8.11132e-01,9.99999e-01
9.964357318e-01,8.14492e-01,9.99999e-01,9.99999e-01,8.14492e-01,9.99999e-01
1.001417910e+00,8.17800e-01,9.99999e-01,9.99999e-01,8.17800e-01,9.99999e-01
1.006425000e+00,8.21056e-01,9.99999e-01,9.99999e-01,8.21056e-01,9.99999e-01
1.011457125e+00,8.24259e-01,9.99999e-01,9.99999e-01,8.24259e-01,9.99999e-01
1.016514411e+00,8.27412e-01,9.99999e-01,9.99999e-01,8.27412e-01,9.99999e-01
1.021596983e+00,8.30485e-01,9.99999e-01,9.99963e-01,8.30514e-01,9.99999e-01
1.026704968e+00,8.31248e-01,9.99999e-01,9.97218e-01,8.33566e-01,9.99999e-01
1.031838492e+00,8.07633e-01,9.99999e-01,9.65410e-01,8.36569e-01,9.99999e-01
1.036997685e+00,1.67229e-01,9.99999e-01,1.99195e-01,8.39523e-01,9.99999e-01
1.042182673e+00,1.65310e-01,9.99999e-01,1.96230e-01,8.42429e-01,9.99999e-01
1.047393587e+00,1.75236e-01,9.99999e-01,2.07309e-01,8.45287e-01,9.99999e-01
1.052630555e+00,1.06644e-02,9.99999e-01,1.25744e-02,8.48098e-01,9.99999e-01
1.057893707e+00,2.36386e-02,9.99999e-01,2.77820e-02,8.50862e-01,9.99999e-01
1.063183176e+00,6.19927e-02,9.99999e-01,7.26265e-02,8.53581e-01,9.99999e-01
1.068499092e+00,1.43100e-01,9.99999e-01,1.67123e-01,8.56254e-01,9.99999e-01
1.073841587e+00,2.77106e-01,9.99999e-01,3.22635e-01,8.58883e-01,9.99999e-01
1.079210795e+00,4.21345e-01,9.99999e-01,4.89101e-01,8.61468e-01,9.99999e-01
1.084606849e+00,5.83550e-01,9.99999e-01,6.75398e-01,8.64009e-01,9.99999e-01
1.090029883e+00,7.07077e-01,9.99999e-01,8.16008e-01,8.66507e-01,9.99999e-01
1.095480033e+00,7.86097e-01,9.99999e-01,9.04637e-01,8.68963e-01,9.99999e-01
1.100957433e+00,8.30342e-01,9.99999e-01,9.52907e-01,8.71377e-01,9.99999e-01
1.106462220e+00,8.56486e-01,9.99999e-01,9.80241e-01,8.73750e-01,9.99999e-01
1.111994531e+00,8.69628e-01,9.99999e-01,9.92632e-01,8.76082e-01,9.99999e-01
1.117554504e+00,8.76787e-01,9.99999e-01,9.98191e-01,8.78375e-01,9.99999e-01
1.123142276e+00,8.80523e-01,9.99999e-01,9.99880e-01,8.80627e-01,9.99999e-01
1.128757988e+00,8.82841e-01,9.99999e-01,9.99999e-01,8.82841e-01,9.99999e-01
1.134401778e+00,8.85017e-01,9.99999e-01,9.99999e-01,8.85017e-01,9.99999e-01
1.140073787e+00,8.87155e-01,9.99999e-01,9.99999e-01,8.87155e-01,9.99999e-01
1.145774156e+00,8.89256e-01,9.99999e-01,9.99999e-01,8.89256e-01,9.99999e-01
1.151503026e+00,8.91320e-01,9.99999e-01,9.99999e-01,8.91320e-01,9.99999e-01
1.157260541e+00,8.93347e-01,9.99999e-01,9.99999e-01,8.93347e-01,9.99999e-01
1.163046844e+00,8.95340e-01,9.99999e-01,9.99999e-01,8.95340e-01,9.99999e-01
1.168862078e+00,8.97297e-01,9.99999e-01,9.99999e-01,8.97297e-01,9.99999e-01
1.174706389e+00,8.99220e-01,9.99999e-01,9.99999e-01,8.99220e-01,9.99999e-01
1.180579921e+00,9.01108e-01,9.99999e-01,9.99999e-01,9.01108e-01,9.99999e-01
1.186482820e+00,9.02960e-01,9.99999e-01,9.99995e-01,9.02964e-01,9.99999e-01
1.192415234e+00,8.95822e-01,9.99999e-01,9.90092e-01,9.04786e-01,9.99999e-01
1.198377311e+00,5.16754e-01,9.99999e-01,5.70006e-01,9.06576e-01,9.99999e-01
1.204369197e+00,5.53487e-09,9.99999e-01,6.09343e-09,9.08334e-01,9.99999e-01
1.210391043e+00,3.52799e-31,9.99999e-01,3.87665e-31,9.10061e-01,9.99999e-01
1.216442998e+00,3.28568e-27,9.99999e-01,3.60367e-27,9.11756e-01,9.99999e-01
1.222525213e+00,7.97298e-27,9.99999e-01,8.72869e-27,9.13422e-01,9.99999e-01
1.228637839e+00,9.51713e-21,9.99999e-01,1.04006e-20,9.15057e-01,9.99999e-01
1.234781029e+00,9.27000e-14,9.99999e-01,1.01128e-13,9.16663e-01,9.99999e-01
1.240954934e+00,2.43541e-09,9.99999e-01,2.65226e-09,9.18240e-01,9.99999e-01
1.247159708e+00,1.94811e-05,9.99999e-01,2.11800e-05,9.19788e-01,9.99999e-01
1.253395507e+00,1.86064e-03,9.99999e-01,2.01956e-03,9.21308e-01,9.99999e-01
1.259662485e+00,2.65814e-02,9.99999e-01,2.88051e-02,9.22801e-01,9.99999e-01
1.265960797e+00,1.17628e-01,9.99999e-01,1.27266e-01,9.24267e-01,9.99999e-01
1.272290601e+00,3.66555e-01,9.99999e-01,3.95974e-01,9.25706e-01,9.99999e-01
1.278652054e+00,3.41591e-01,9.99999e-01,3.68443e-01,9.27118e-01,9.99999e-01
1.285045314e+00,1.48595e-02,9.99999e-01,1.60037e-02,9.28505e-01,9.99999e-01
1.291470541e+00,2.31692e-04,9.99999e-01,2.49166e-04,9.29866e-01,9.99999e-01
1.297927893e+00,1.22075e-02,9.99999e-01,1.31094e-02,9.31203e-01,9.99999e-01
1.304417533e+00,1.96096e-01,9.99999e-01,2.10287e-01,9.32515e-01,9.99999e-01
1.310939621e+00,5.11584e-02,9.99999e-01,5.47850e-02,9.33803e-01,9.99999e-01
1.317494319e+00,3.40310e-11,9.99999e-01,3.63942e-11,9.35067e-01,9.99999e-01
1.324081790e+00,6.00052e-08,9.99999e-01,6.40870e-08,9.36308e-01,9.99999e-01
1.330702199e+00,1.07709e-04,9.99999e-01,1.14886e-04,9.37526e-01,9.99999e-01
1.337355710e+00,1.01324e-04,9.99999e-01,1.07938e-04,9.38721e-01,9.99999e-01
1.344042489e+00,3.06083e-05,9.99999e-01,3.25657e-05,9.39894e-01,9.99999e-01
1.350762701e+00,7.21469e-05,9.99999e-01,7.66667e-05,9.41046e-01,9.99999e-01
1.357516515e+00,1.99584e-03,9.99999e-01,2.11833e-03,9.42176e-01,9.99999e-01
1.364304097e+00,1.86031e-02,9.99999e-01,1.97216e-02,9.43285e-01,9.99999e-01
1.371125618e+00,1.20107e-01,9.99999e-01,1.27181e-01,9.44374e-01,9.99999e-01
1.377981246e+00,1.78157e-01,9.99999e-01,1.88438e-01,9.45442e-01,9.99999e-01
1.384871152e+00,3.58163e-01,9.99999e-01,3.78411e-01,9.46490e-01,9.99999e-01
1.391795508e+00,3.86018e-01,9.99999e-01,4.07399e-01,9.47519e-01,9.99999e-01
1.398754485e+00,5.45605e-01,9.99999e-01,5.75212e-01,9.48528e-01,9.99999e-01
1.405748258e+00,6.31474e-01,9.99999e-01,6.65045e-01,9.49519e-01,9.99999e-01
1.412776999e+00,7.34714e-01,9.99999e-01,7.72983e-01,9.50491e-01,9.99999e-01
1.419840884e+00,6.70586e-01,9.99999e-01,7.04808e-01,9.51444e-01,9.99999e-01
1.426940089e+00,7.42067e-02,9.99999e-01,7.79170e-02,9.52380e-01,9.99999e-01
1.434074789e+00,0.00000e+00,9.99999e-01,0.00000e+00,9.53299e-01,9.99999e-01
1.441245163e+00,0.00000e+00,9.99999e-01,0.00000e+00,9.54200e-01,9.99999e-01
1.448451389e+00,0.00000e+00,9.99999e-01,0.00000e+00,9.55084e-01,9.99999e-01
1.455693646e+00,2.22555e-246,9.99999e-01,2.32810e-246,9.55951e-01,9.99999e-01
1.462972114e+00,1.15295e-119,9.99999e-01,1.20500e-119,9.56802e-01,9.99999e-01
1.470286975e+00,1.45669e-50,9.99999e-01,1.52113e-50,9.57637e-01,9.99999e-01
