#,Wave/freq,Total,N2,CO2,Rayleigh,CIA
4.000000000e-01,2.30387e-02,9.99999e-01,9.99999e-01,2.30387e-02,9.99999e-01
4.020000000e-01,2.48220e-02,9.99999e-01,9.99999e-01,2.48220e-02,9.99999e-01
4.040100000e-01,2.67020e-02,9.99999e-01,9.99999e-01,2.67020e-02,9.99999e-01
4.060300500e-01,2.86829e-02,9.99999e-01,9.99999e-01,2.86829e-02,9.99999e-01
4.080602003e-01,3.07673e-02,9.99999e-01,9.99999e-01,3.07673e-02,9.99999e-01
4.101005013e-01,3.29574e-02,9.99999e-01,9.99999e-01,3.29574e-02,9.99999e-01
4.121510038e-01,3.52555e-02,9.99999e-01,9.99999e-01,3.52555e-02,9.99999e-01
4.142117588e-01,3.76637e-02,9.99999e-01,9.99999e-01,3.76637e-02,9.99999e-01
4.162828176e-01,4.01839e-02,9.99999e-01,9.99999e-01,4.01839e-02,9.99999e-01
4.183642317e-01,4.28179e-02,9.99999e-01,9.99999e-01,4.28179e-02,9.99999e-01
4.204560528e-01,4.55674e-02,9.99999e-01,9.99999e-01,4.55674e-02,9.99999e-01
4.225583331e-01,4.84338e-02,9.99999e-01,9.99999e-01,4.84338e-02,9.99999e-01
4.246711247e-01,5.14186e-02,9.99999e-01,9.99999e-01,5.14186e-02,9.99999e-01
4.267944804e-01,5.45229e-02,9.99999e-01,9.99999e-01,5.45229e-02,9.99999e-01
4.289284528e-01,5.77477e-02,9.99999e-01,9.99999e-01,5.77477e-02,9.99999e-01
4.310730950e-01,6.10938e-02,9.99999e-01,9.99999e-01,6.10938e-02,9.99999e-01
4.332284605e-01,6.45620e-02,9.99999e-01,9.99999e-01,6.45620e-02,9.99999e-01
4.353946028e-01,6.81527e-02,9.99999e-01,9.99999e-01,6.81527e-02,9.99999e-01
4.375715758e-01,7.18662e-02,9.99999e-01,9.99999e-01,7.18662e-02,9.99999e-01
4.397594337e-01,7.57026e-02,9.99999e-01,9.99999e-01,7.57026e-02,9.99999e-01
4.419582309e-01,7.96620e-02,9.99999e-01,9.99999e-01,7.96620e-02,9.99999e-01
4.441680220e-01,8.37441e-02,9.99999e-01,9.99999e-01,8.37441e-02,9.99999e-01
4.463888621e-01,8.79485e-02,9.99999e-01,9.99999e-01,8.79485e-02,9.99999e-01
4.486208064e-01,9.22747e-02,9.99999e-01,9.99999e-01,9.22747e-02,9.99999e-01
4.508639105e-01,9.67219e-02,9.99999e-01,9.99999e-01,9.67219e-02,9.99999e-01
4.531182300e-01,1.01289e-01,9.99999e-01,9.99999e-01,1.01289e-01,9.99999e-01
4.553838212e-01,1.05976e-01,9.99999e-01,9.99999e-01,1.05976e-01,9.99999e-01
4.576607403e-01,1.10780e-01,9.99999e-01,9.99999e-01,1.10780e-01,9.99999e-01
4.599490440e-01,1.15700e-01,9.99999e-01,9.99999e-01,1.15700e-01,9.99999e-01
4.622487892e-01,1.20736e-01,9.99999e-01,9.99999e-01,1.20736e-01,9.99999e-01
4.645600332e-01,1.25884e-01,9.99999e-01,9.99999e-01,1.25884e-01,9.99999e-01
4.668828333e-01,1.31144e-01,9.99999e-01,9.99999e-01,1.31144e-01,9.99999e-01
4.692172475e-01,1.36514e-01,9.99999e-01,9.99999e-01,1.36514e-01,9.99999e-01
4.715633337e-01,1.41990e-01,9.99999e-01,9.99999e-01,1.41990e-01,9.99999e-01
4.739211504e-01,1.47572e-01,9.99999e-01,9.99999e-01,1.47572e-01,9.99999e-01
4.762907561e-01,1.53256e-01,9.99999e-01,9.99999e-01,1.53256e-01,9.99999e-01
4.786722099e-01,1.59041e-01,9.99999e-01,9.99999e-01,1.59041e-01,9.99999e-01
4.810655710e-01,1.64923e-01,9.99999e-01,9.99999e-01,1.64923e-01,9.99999e-01
4.834708988e-01,1.70900e-01,9.99999e-01,9.99999e-01,1.70900e-01,9.99999e-01
4.858882533e-01,1.76969e-01,9.99999e-01,9.99999e-01,1.76969e-01,9.99999e-01
4.883176946e-01,1.83127e-01,9.99999e-01,9.99999e-01,1.83127e-01,9.99999e-01
4.907592831e-01,1.89371e-01,9.99999e-01,9.99999e-01,1.89371e-01,9.99999e-01
4.932130795e-01,1.95699e-01,9.99999e-01,9.99999e-01,1.95699e-01,9.99999e-01
4.956791449e-01,2.02107e-01,9.99999e-01,9.99999e-01,2.02107e-01,9.99999e-01
4.981575406e-01,2.08593e-01,9.99999e-01,9.99999e-01,2.08593e-01,9.99999e-01
5.006483283e-01,2.15151e-01,9.99999e-01,9.99999e-01,2.15151e-01,9.99999e-01
5.031515699e-01,2.21781e-01,9.99999e-01,9.99999e-01,2.21781e-01,9.99999e-01
5.056673278e-01,2.28478e-01,9.99999e-01,9.99999e-01,2.28478e-01,9.99999e-01
5.081956644e-01,2.35238e-01,9.99999e-01,9.99999e-01,2.35238e-01,9.99999e-01
5.107366428e-01,2.42060e-01,9.99999e-01,9.99999e-01,2.42060e-01,9.99999e-01
5.132903260e-01,2.48938e-01,9.99999e-01,9.99999e-01,2.48938e-01,9.99999e-01
5.158567776e-01,2.55870e-01,9.99999e-01,9.99999e-01,2.55870e-01,9.99999e-01
5.184360615e-01,2.62853e-01,9.99999e-01,9.99999e-01,2.62853e-01,9.99999e-01
5.210282418e-01,2.69883e-01,9.99999e-01,9.99999e-01,2.69883e-01,9.99999e-01
5.236333830e-01,2.76956e-01,9.99999e-01,9.99999e-01,2.76956e-01,9.99999e-01
5.262515499e-01,2.84070e-01,9.99999e-01,9.99999e-01,2.84070e-01,9.99999e-01
5.288828077e-01,2.91220e-01,9.99999e-01,9.99999e-01,2.91220e-01,9.99999e-01
5.315272217e-01,2.98404e-01,9.99999e-01,9.99999e-01,2.98404e-01,9.99999e-01
5.341848578e-01,3.05617e-01,9.99999e-01,9.99999e-01,3.05617e-01,9.99999e-01
5.368557821e-01,3.12858e-01,9.99999e-01,9.99999e-01,3.12858e-01,9.99999e-01
5.395400610e-01,3.20122e-01,9.99999e-01,9.99999e-01,3.20122e-01,9.99999e-01
5.422377613e-01,3.27406e-01,9.99999e-01,9.99999e-01,3.27406e-01,9.99999e-01
5.449489501e-01,3.34707e-01,9.99999e-01,9.99999e-01,3.34707e-01,9.99999e-01
5.476736949e-01,3.42022e-01,9.99999e-01,9.99999e-01,3.42022e-01,9.99999e-01
5.504120634e-01,3.49347e-01,9.99999e-01,9.99999e-01,3.49347e-01,9.99999e-01
5.531641237e-01,3.56680e-01,9.99999e-01,9.99999e-01,3.56680e-01,9.99999e-01
5.559299443e-01,3.64018e-01,9.99999e-01,9.99999e-01,3.64018e-01,9.99999e-01
5.587095940e-01,3.71357e-01,9.99999e-01,9.99999e-01,3.71357e-01,9.99999e-01
5.615031420e-01,3.78695e-01,9.99999e-01,9.99999e-01,3.78695e-01,9.99999e-01
5.643106577e-01,3.86028e-01,9.99999e-01,9.99999e-01,3.86028e-01,9.99999e-01
5.671322110e-01,3.93355e-01,9.99999e-01,9.99999e-01,3.93355e-01,9.99999e-01
5.699678720e-01,4.00671e-01,9.99999e-01,9.99999e-01,4.00671e-01,9.99999e-01
5.728177114e-01,4.07976e-01,9.99999e-01,9.99999e-01,4.07976e-01,9.99999e-01
5.756818000e-01,4.15265e-01,9.99999e-01,9.99999e-01,4.15265e-01,9.99999e-01
5.785602090e-01,4.22536e-01,9.99999e-01,9.99999e-01,4.22536e-01,9.99999e-01
5.814530100e-01,4.29788e-01,9.99999e-01,9.99999e-01,4.29788e-01,9.99999e-01
5.843602750e-01,4.37017e-01,9.99999e-01,9.99999e-01,4.37017e-01,9.99999e-01
5.872820764e-01,4.44221e-01,9.99999e-01,9.99999e-01,4.44221e-01,9.99999e-01
5.902184868e-01,4.51399e-01,9.99999e-01,9.99999e-01,4.51399e-01,9.99999e-01
5.931695792e-01,4.58547e-01,9.99999e-01,9.99999e-01,4.58547e-01,9.99999e-01
5.961354271e-01,4.65663e-01,9.99999e-01,9.99999e-01,4.65663e-01,9.99999e-01
5.991161043e-01,4.72747e-01,9.99999e-01,9.99999e-01,4.72747e-01,9.99999e-01
6.021116848e-01,4.79794e-01,9.99999e-01,9.99999e-01,4.79794e-01,9.99999e-01
6.051222432e-01,4.86805e-01,9.99999e-01,9.99999e-01,4.86805e-01,9.99999e-01
6.081478544e-01,4.93777e-01,9.99999e-01,9.99999e-01,4.93777e-01,9.99999e-01
6.111885937e-01,5.00708e-01,9.99999e-01,9.99999e-01,5.00708e-01,9.99999e-01
6.142445367e-01,5.07596e-01,9.99999e-01,9.99999e-01,5.07596e-01,9.99999e-01
6.173157594e-01,5.14440e-01,9.99999e-01,9.99999e-01,5.14440e-01,9.99999e-01
6.204023382e-01,5.21239e-01,9.99999e-01,9.99999e-01,5.21239e-01,9.99999e-01
6.235043498e-01,5.27990e-01,9.99999e-01,9.99999e-01,5.27990e-01,9.99999e-01
6.266218716e-01,5.34693e-01,9.99999e-01,9.99999e-01,5.34693e-01,9.99999e-01
6.297549810e-01,5.41347e-01,9.99999e-01,9.99999e-01,5.41347e-01,9.99999e-01
6.329037559e-01,5.47949e-01,9.99999e-01,9.99999e-01,5.47949e-01,9.99999e-01
6.360682746e-01,5.54499e-01,9.99999e-01,9.99999e-01,5.54499e-01,9.99999e-01
6.392486160e-01,5.60995e-01,9.99999e-01,9.99999e-01,5.60995e-01,9.99999e-01
6.424448591e-01,5.67437e-01,9.99999e-01,9.99999e-01,5.67437e-01,9.99999e-01
6.456570834e-01,5.73824e-01,9.99999e-01,9.99999e-01,5.73824e-01,9.99999e-01
6.488853688e-01,5.80154e-01,9.99999e-01,9.99999e-01,5.80154e-01,9.99999e-01
6.521297956e-01,5.86427e-01,9.99999e-01,9.99999e-01,5.86427e-01,9.99999e-01
6.553904446e-01,5.92641e-01,9.99999e-01,9.99999e-01,5.92641e-01,9.99999e-01
6.586673968e-01,5.98797e-01,9.99999e-01,9.99999e-01,5.98797e-01,9.99999e-01
6.619607338e-01,6.04894e-01,9.99999e-01,9.99999e-01,6.04894e-01,9.99999e-01
6.652705375e-01,6.10930e-01,9.99999e-01,9.99999e-01,6.10930e-01,9.99999e-01
6.685968902e-01,6.16906e-01,9.99999e-01,9.99999e-01,6.16906e-01,9.99999e-01
6.719398746e-01,6.22820e-01,9.99999e-01,9.99999e-01,6.22820e-01,9.99999e-01
6.752995740e-01,6.28672e-01,9.99999e-01,9.99999e-01,6.28672e-01,9.99999e-01
6.786760719e-01,6.34462e-01,9.99999e-01,9.99999e-01,6.34462e-01,9.99999e-01
6.820694522e-01,6.40190e-01,9.99999e-01,9.99999e-01,6.40190e-01,9.99999e-01
6.854797995e-01,6.45855e-01,9.99999e-01,9.99999e-01,6.45855e-01,9.99999e-01
6.889071985e-01,6.51456e-01,9.99999e-01,9.99999e-01,6.51456e-01,9.99999e-01
6.923517345e-01,6.56994e-01,9.99999e-01,9.99999e-01,6.56994e-01,9.99999e-01
6.958134932e-01,6.62468e-01,9.99999e-01,9.99999e-01,6.62468e-01,9.99999e-01
6.992925606e-01,6.67878e-01,9.99999e-01,9.99999e-01,6.67878e-01,9.99999e-01
7.027890234e-01,6.73225e-01,9.99999e-01,9.99999e-01,6.73225e-01,9.99999e-01
7.063029686e-01,6.78507e-01,9.99999e-01,9.99999e-01,6.78507e-01,9.99999e-01
7.098344834e-01,6.83725e-01,9.99999e-01,9.99999e-01,6.83725e-01,9.99999e-01
7.133836558e-01,6.88879e-01,9.99999e-01,9.99999e-01,6.88879e-01,9.99999e-01
7.169505741e-01,6.93969e-01,9.99999e-01,9.99999e-01,6.93969e-01,9.99999e-01
7.205353270e-01,6.98995e-01,9.99999e-01,9.99999e-01,6.98995e-01,9.99999e-01
7.241380036e-01,7.03957e-01,9.99999e-01,9.99999e-01,7.03957e-01,9.99999e-01
7.277586936e-01,7.08855e-01,9.99999e-01,9.99999e-01,7.08855e-01,9.99999e-01
7.313974871e-01,7.13689e-01,9.99999e-01,9.99999e-01,7.13689e-01,9.99999e-01
7.350544745e-01,7.18460e-01,9.99999e-01,9.99999e-01,7.18460e-01,9.99999e-01
7.387297469e-01,7.23168e-01,9.99999e-01,9.99999e-01,7.23168e-01,9.99999e-01
7.424233956e-01,7.27812e-01,9.99999e-01,9.99999e-01,7.27812e-01,9.99999e-01
7.461355126e-01,7.32394e-01,9.99999e-01,9.99999e-01,7.32394e-01,9.99999e-01
7.498661902e-01,7.36913e-01,9.99999e-01,9.99999e-01,7.36913e-01,9.99999e-01
7.536155211e-01,7.41371e-01,9.99999e-01,9.99999e-01,7.41371e-01,9.99999e-01
7.573835987e-01,7.45766e-01,9.99999e-01,9.99999e-01,7.45766e-01,9.99999e-01
7.611705167e-01,7.50099e-01,9.99999e-01,9.99999e-01,7.50099e-01,9.99999e-01
7.649763693e-01,7.54372e-01,9.99999e-01,9.99999e-01,7.54372e-01,9.99999e-01
7.688012511e-01,7.58584e-01,9.99999e-01,9.99999e-01,7.58584e-01,9.99999e-01
7.726452574e-01,7.62735e-01,9.99999e-01,9.99999e-01,7.62735e-01,9.99999e-01
7.765084837e-01,7.66827e-01,9.99999e-01,9.99999e-01,7.66827e-01,9.99999e-01
7.803910261e-01,7.60908e-01,9.99999e-01,9.87090e-01,7.70859e-01,9.99999e-01
7.842929812e-01,7.33193e-01,9.99999e-01,9.46261e-01,7.74831e-01,9.99999e-01
7.882144461e-01,7.33848e-01,9.99999e-01,9.42346e-01,7.78746e-01,9.99999e-01
7.921555184e-01,7.56480e-01,9.99999e-01,9.66621e-01,7.82602e-01,9.99999e-01
7.961162960e-01,7.68787e-01,9.99999e-01,9.77601e-01,7.86400e-01,9.99999e-01
8.000968774e-01,7.80509e-01,9.99999e-01,9.87808e-01,7.90142e-01,9.99999e-01
8.040973618e-01,7.88801e-01,9.99999e-01,9.93668e-01,7.93826e-01,9.99999e-01
8.081178486e-01,7.95136e-01,9.99999e-01,9.97090e-01,7.97455e-01,9.99999e-01
8.121584379e-01,8.00308e-01,9.99999e-01,9.99100e-01,8.01028e-01,9.99999e-01
8.162192301e-01,8.04386e-01,9.99999e-01,9.99800e-01,8.04546e-01,9.99999e-01
8.203003262e-01,8.08007e-01,9.99999e-01,9.99996e-01,8.08010e-01,9.99999e-01
8.244018279e-01,8.11419e-01,9.99999e-01,9.99999e-01,8.11419e-01,9.99999e-01
8.285238370e-01,8.14775e-01,9.99999e-01,9.99999e-01,8.14775e-01,9.99999e-01
8.326664562e-01,8.18079e-01,9.99999e-01,9.99999e-01,8.18079e-01,9.99999e-01
8.368297885e-01,8.21330e-01,9.99999e-01,9.99999e-01,8.21330e-01,9.99999e-01
8.410139374e-01,8.24529e-01,9.99999e-01,9.99999e-01,8.24529e-01,9.99999e-01
8.452190071e-01,8.27678e-01,9.99999e-01,9.99999e-01,8.27678e-01,9.99999e-01
8.494451021e-01,8.30775e-01,9.99999e-01,9.99999e-01,8.30775e-01,9.99999e-01
8.536923276e-01,8.33823e-01,9.99999e-01,9.99999e-01,8.33823e-01,9.99999e-01
8.579607893e-01,8.36822e-01,9.99999e-01,9.99999e-01,8.36822e-01,9.99999e-01
8.622505932e-01,8.39772e-01,9.99999e-01,9.99999e-01,8.39772e-01,9.99999e-01
8.665618462e-01,8.12235e-01,9.99999e-01,9.63878e-01,8.42673e-01,9.99999e-01
8.708946554e-01,7.32790e-01,9.99999e-01,8.66666e-01,8.45527e-01,9.99999e-01
8.752491287e-01,7.57418e-01,9.99999e-01,8.92829e-01,8.48334e-01,9.99999e-01
8.796253743e-01,8.00397e-01,9.99999e-01,9.40431e-01,8.51095e-01,9.99999e-01
8.840235012e-01,8.27222e-01,9.99999e-01,9.68858e-01,8.53810e-01,9.99999e-01
8.884436187e-01,8.45890e-01,9.99999e-01,9.87635e-01,8.56479e-01,9.99999e-01
8.928858368e-01,8.54792e-01,9.99999e-01,9.94979e-01,8.59104e-01,9.99999e-01
8.973502660e-01,8.60633e-01,9.99999e-01,9.98778e-01,8.61685e-01,9.99999e-01
9.018370173e-01,8.64106e-01,9.99999e-01,9.99864e-01,8.64223e-01,9.99999e-01
9.063462024e-01,8.63713e-01,9.99999e-01,9.96533e-01,8.66717e-01,9.99999e-01
9.108779334e-01,8.62290e-01,9.99999e-01,9.92084e-01,8.69169e-01,9.99999e-01
9.154323231e-01,8.69956e-01,9.99999e-01,9.98136e-01,8.71580e-01,9.99999e-01
9.200094847e-01,8.49568e-01,9.99999e-01,9.72101e-01,8.73950e-01,9.99999e-01
9.246095321e-01,8.42781e-01,9.99999e-01,9.61772e-01,8.76278e-01,9.99999e-01
9.292325798e-01,8.51995e-01,9.99999e-01,9.69754e-01,8.78567e-01,9.99999e-01
9.338787427e-01,8.55136e-01,9.99999e-01,9.70843e-01,8.80817e-01,9.99999e-01
9.385481364e-01,8.64094e-01,9.99999e-01,9.78557e-01,8.83028e-01,9.99999e-01
9.432408771e-01,8.73552e-01,9.99999e-01,9.86840e-01,8.85200e-01,9.99999e-01
9.479570815e-01,8.81329e-01,9.99999e-01,9.93231e-01,8.87335e-01,9.99999e-01
9.526968669e-01,8.86524e-01,9.99999e-01,9.96730e-01,8.89432e-01,9.99999e-01
9.574603512e-01,8.90246e-01,9.99999e-01,9.98600e-01,8.91493e-01,9.99999e-01
9.622476530e-01,8.93128e-01,9.99999e-01,9.99563e-01,8.93518e-01,9.99999e-01
9.670588912e-01,8.95390e-01,9.99999e-01,9.99868e-01,8.95507e-01,9.99999e-01
9.718941857e-01,8.97453e-01,9.99999e-01,9.99990e-01,8.97462e-01,9.99999e-01
9.767536566e-01,8.99381e-01,9.99999e-01,9.99999e-01,8.99381e-01,9.99999e-01
9.816374249e-01,9.01267e-01,9.99999e-01,9.99999e-01,9.01267e-01,9.99999e-01
9.865456120e-01,9.03120e-01,9.99999e-01,9.99999e-01,9.03120e-01,9.99999e-01
9.914783401e-01,9.04939e-01,9.99999e-01,9.99999e-01,9.04939e-01,9.99999e-01
9.964357318e-01,9.06727e-01,9.99999e-01,9.99999e-01,9.06727e-01,9.99999e-01
1.001417910e+00,9.08482e-01,9.99999e-01,9.99999e-01,9.08482e-01,9.99999e-01
1.006425000e+00,9.10206e-01,9.99999e-01,9.99999e-01,9.10206e-01,9.99999e-01
1.011457125e+00,9.11899e-01,9.99999e-01,9.99999e-01,9.11899e-01,9.99999e-01
1.016514411e+00,9.13562e-01,9.99999e-01,9.99999e-01,9.13562e-01,9.99999e-01
1.021596983e+00,9.15178e-01,9.99999e-01,9.99981e-01,9.15194e-01,9.99999e-01
1.026704968e+00,9.15564e-01,9.99999e-01,9.98654e-01,9.16798e-01,9.99999e-01
1.031838492e+00,8.98709e-01,9.99999e-01,9.78589e-01,9.18372e-01,9.99999e-01
1.036997685e+00,3.31664e-01,9.99999e-01,3.60536e-01,9.19918e-01,9.99999e-01
1.042182673e+00,4.11846e-01,9.99999e-01,4.46961e-01,9.21436e-01,9.99999e-01
1.047393587e+00,3.66035e-01,9.99999e-01,3.96602e-01,9.22927e-01,9.99999e-01
1.052630555e+00,8.67338e-02,9.99999e-01,9.38280e-02,9.24390e-01,9.99999e-01
1.057893707e+00,1.48093e-01,9.99999e-01,1.59958e-01,9.25827e-01,9.99999e-01
1.063183176e+00,2.47744e-01,9.99999e-01,2.67185e-01,9.27237e-01,9.99999e-01
1.068499092e+00,3.89259e-01,9.99999e-01,4.19178e-01,9.28622e-01,9.99999e-01
1.073841587e+00,5.37523e-01,9.99999e-01,5.77993e-01,9.29981e-01,9.99999e-01
1.079210795e+00,6.59587e-01,9.99999e-01,7.08231e-01,9.31315e-01,9.99999e-01
1.084606849e+00,7.72892e-01,9.99999e-01,8.28727e-01,9.32625e-01,9.99999e-01
1.090029883e+00,8.47443e-01,9.99999e-01,9.07412e-01,9.33911e-01,9.99999e-01
1.095480033e+00,8.91511e-01,9.99999e-01,9.53310e-01,9.35173e-01,9.99999e-01
1.100957433e+00,9.15128e-01,9.99999e-01,9.77270e-01,9.36412e-01,9.99999e-01
1.106462220e+00,9.28761e-01,9.99999e-01,9.90542e-01,9.37628e-01,9.99999e-01
1.111994531e+00,9.35523e-01,9.99999e-01,9.96485e-01,9.38822e-01,9.99999e-01
1.117554504e+00,9.39186e-01,9.99999e-01,9.99140e-01,9.39993e-01,9.99999e-01
1.123142276e+00,9.41090e-01,9.99999e-01,9.99943e-01,9.41143e-01,9.99999e-01
1.128757988e+00,9.42271e-01,9.99999e-01,9.99999e-01,9.42271e-01,9.99999e-01
1.134401778e+00,9.43378e-01,9.99999e-01,9.99999e-01,9.43378e-01,9.99999e-01
1.140073787e+00,9.44465e-01,9.99999e-01,9.99999e-01,9.44465e-01,9.99999e-01
1.145774156e+00,9.45532e-01,9.99999e-01,9.99999e-01,9.45532e-01,9.99999e-01
1.151503026e+00,9.46578e-01,9.99999e-01,9.99999e-01,9.46578e-01,9.99999e-01
1.157260541e+00,9.47605e-01,9.99999e-01,9.99999e-01,9.47605e-01,9.99999e-01
1.163046844e+00,9.48613e-01,9.99999e-01,9.99999e-01,9.48613e-01,9.99999e-01
1.168862078e+00,9.49602e-01,9.99999e-01,9.99999e-01,9.49602e-01,9.99999e-01
1.174706389e+00,9.50572e-01,9.99999e-01,9.99999e-01,9.50572e-01,9.99999e-01
1.180579921e+00,9.51525e-01,9.99999e-01,9.99999e-01,9.51525e-01,9.99999e-01
1.186482820e+00,9.52457e-01,9.99999e-01,9.99997e-01,9.52459e-01,9.99999e-01
1.192415234e+00,9.48756e-01,9.99999e-01,9.95153e-01,9.53376e-01,9.99999e-01
1.198377311e+00,5.75576e-01,9.99999e-01,6.03155e-01,9.54275e-01,9.99999e-01
1.204369197e+00,1.87158e-05,9.99999e-01,1.95944e-05,9.55158e-01,9.99999e-01
1.210391043e+00,4.68692e-16,9.99999e-01,4.90250e-16,9.56024e-01,9.99999e-01
1.216442998e+00,3.88769e-14,9.99999e-01,4.06290e-14,9.56874e-01,9.99999e-01
1.222525213e+00,6.63330e-14,9.99999e-01,6.92623e-14,9.57707e-01,9.99999e-01
1.228637839e+00,1.21430e-10,9.99999e-01,1.26685e-10,9.58525e-01,9.99999e-01
1.234781029e+00,1.15441e-07,9.99999e-01,1.20335e-07,9.59327e-01,9.99999e-01
1.240954934e+00,3.22710e-05,9.99999e-01,3.36116e-05,9.60114e-01,9.99999e-01
1.247159708e+00,3.06137e-03,9.99999e-01,3.18598e-03,9.60887e-01,9.99999e-01
1.253395507e+00,4.25963e-02,9.99999e-01,4.42953e-02,9.61644e-01,9.99999e-01
1.259662485e+00,1.65698e-01,9.99999e-01,1.72174e-01,9.62387e-01,9.99999e-01
1.265960797e+00,3.47842e-01,9.99999e-01,3.61162e-01,9.63116e-01,9.99999e-01
1.272290601e+00,6.36970e-01,9.99999e-01,6.60872e-01,9.63832e-01,9.99999e-01
1.278652054e+00,5.75514e-01,9.99999e-01,5.96676e-01,9.64533e-01,9.99999e-01
1.285045314e+00,5.50606e-02,9.99999e-01,5.70444e-02,9.65221e-01,9.99999e-01
1.291470541e+00,1.51776e-02,9.99999e-01,1.57135e-02,9.65896e-01,9.99999e-01
1.297927893e+00,8.62460e-02,9.99999e-01,8.92299e-02,9.66559e-01,9.99999e-01
1.304417533e+00,4.57094e-01,9.99999e-01,4.72591e-01,9.67208e-01,9.99999e-01
1.310939621e+00,1.41273e-01,9.99999e-01,1.45966e-01,9.67845e-01,9.99999e-01
1.317494319e+00,6.57265e-06,9.99999e-01,6.78662e-06,9.68470e-01,9.99999e-01
1.324081790e+00,1.59953e-04,9.99999e-01,1.65055e-04,9.69083e-01,9.99999e-01
1.330702199e+00,1.09288e-02,9.99999e-01,1.12705e-02,9.69685e-01,9.99999e-01
1.337355710e+00,7.18637e-03,9.99999e-01,7.40652e-03,9.70274e-01,9.99999e-01
1.344042489e+00,3.04799e-03,9.99999e-01,3.13950e-03,9.70853e-01,9.99999e-01
1.350762701e+00,9.08617e-03,9.99999e-01,9.35348e-03,9.71420e-01,9.99999e-01
1.357516515e+00,4.37910e-02,9.99999e-01,4.50535e-02,9.71977e-01,9.99999e-01
1.364304097e+00,1.45146e-01,9.99999e-01,1.49247e-01,9.72523e-01,9.99999e-01
1.371125618e+00,3.54109e-01,9.99999e-01,3.63913e-01,9.73058e-01,9.99999e-01
1.377981246e+00,4.37615e-01,9.99999e-01,4.49489e-01,9.73583e-01,9.99999e-01
1.384871152e+00,6.11427e-01,9.99999e-01,6.27685e-01,9.74098e-01,9.99999e-01
1.391795508e+00,6.34099e-01,9.99999e-01,6.50622e-01,9.74603e-01,9.99999e-01
1.398754485e+00,7.48984e-01,9.99999e-01,7.68110e-01,9.75098e-01,9.99999e-01
1.405748258e+00,8.02783e-01,9.99999e-01,8.22873e-01,9.75584e-01,9.99999e-01
1.412776999e+00,8.63265e-01,9.99999e-01,8.84437e-01,9.76061e-01,9.99999e-01
1.419840884e+00,8.12042e-01,9.99999e-01,8.31560e-01,9.76528e-01,9.99999e-01
1.426940089e+00,1.20327e-01,9.99999e-01,1.23162e-01,9.76986e-01,9.99999e-01
1.434074789e+00,2.85048e-218,9.99999e-01,2.91628e-218,9.77436e-01,9.99999e-01
1.441245163e+00,1.29445e-321,9.99999e-01,1.32410e-321,9.77876e-01,9.99999e-01
1.448451389e+00,1.54773e-264,9.99999e-01,1.58205e-264,9.78309e-01,9.99999e-01
1.455693646e+00,9.31238e-119,9.99999e-01,9.51473e-119,9.78732e-01,9.99999e-01
1.462972114e+00,2.77307e-58,9.99999e-01,2.83212e-58,9.79148e-01,9.99999e-01
1.470286975e+00,2.68794e-25,9.99999e-01,2.74404e-25,9.79556e-01,9.99999e-01
