#,Wave/freq,Total,N2,CO2,Rayleigh,CIA
4.000000000e-01,4.23838e-05,9.99999e-01,9.99999e-01,4.23838e-05,9.99999e-01
4.020000000e-01,5.17206e-05,9.99999e-01,9.99999e-01,5.17206e-05,9.99999e-01
4.040100000e-01,6.28535e-05,9.99999e-01,9.99999e-01,6.28535e-05,9.99999e-01
4.060300500e-01,7.60892e-05,9.99999e-01,9.99999e-01,7.60892e-05,9.99999e-01
4.080602003e-01,9.17650e-05,9.99999e-01,9.99999e-01,9.17650e-05,9.99999e-01
4.101005013e-01,1.10262e-04,9.99999e-01,9.99999e-01,1.10262e-04,9.99999e-01
4.121510038e-01,1.32007e-04,9.99999e-01,9.99999e-01,1.32007e-04,9.99999e-01
4.142117588e-01,1.57479e-04,9.99999e-01,9.99999e-01,1.57479e-04,9.99999e-01
4.162828176e-01,1.87214e-04,9.99999e-01,9.99999e-01,1.87214e-04,9.99999e-01
4.183642317e-01,2.21804e-04,9.99999e-01,9.99999e-01,2.21804e-04,9.99999e-01
4.204560528e-01,2.61906e-04,9.99999e-01,9.99999e-01,2.61906e-04,9.99999e-01
4.225583331e-01,3.08244e-04,9.99999e-01,9.99999e-01,3.08244e-04,9.99999e-01
4.246711247e-01,3.61617e-04,9.99999e-01,9.99999e-01,3.61617e-04,9.99999e-01
4.267944804e-01,4.22894e-04,9.99999e-01,9.99999e-01,4.22894e-04,9.99999e-01
4.289284528e-01,4.93028e-04,9.99999e-01,9.99999e-01,4.93028e-04,9.99999e-01
4.310730950e-01,5.73054e-04,9.99999e-01,9.99999e-01,5.73054e-04,9.99999e-01
4.332284605e-01,6.64094e-04,9.99999e-01,9.99999e-01,6.64094e-04,9.99999e-01
4.353946028e-01,7.67358e-04,9.99999e-01,9.99999e-01,7.67358e-04,9.99999e-01
4.375715758e-01,8.84153e-04,9.99999e-01,9.99999e-01,8.84153e-04,9.99999e-01
4.397594337e-01,1.01588e-03,9.99999e-01,9.99999e-01,1.01588e-03,9.99999e-01
4.419582309e-01,1.16403e-03,9.99999e-01,9.99999e-01,1.16403e-03,9.99999e-01
4.441680220e-01,1.33020e-03,9.99999e-01,9.99999e-01,1.33020e-03,9.99999e-01
4.463888621e-01,1.51610e-03,9.99999e-01,9.99999e-01,1.51610e-03,9.99999e-01
4.486208064e-01,1.72351e-03,9.99999e-01,9.99999e-01,1.72351e-03,9.99999e-01
4.508639105e-01,1.95435e-03,9.99999e-01,9.99999e-01,1.95435e-03,9.99999e-01
4.531182300e-01,2.21061e-03,9.99999e-01,9.99999e-01,2.21061e-03,9.99999e-01
4.553838212e-01,2.49439e-03,9.99999e-01,9.99999e-01,2.49439e-03,9.99999e-01
4.576607403e-01,2.80790e-03,9.99999e-01,9.99999e-01,2.80790e-03,9.99999e-01
4.599490440e-01,3.15342e-03,9.99999e-01,9.99999e-01,3.15342e-03,9.99999e-01
4.622487892e-01,3.53335e-03,9.99999e-01,9.99999e-01,3.53335e-03,9.99999e-01
4.645600332e-01,3.95017e-03,9.99999e-01,9.99999e-01,3.95017e-03,9.99999e-01
4.668828333e-01,4.40645e-03,9.99999e-01,9.99999e-01,4.40645e-03,9.99999e-01
4.692172475e-01,4.90483e-03,9.99999e-01,9.99999e-01,4.90483e-03,9.99999e-01
4.715633337e-01,5.44804e-03,9.99999e-01,9.99999e-01,5.44804e-03,9.99999e-01
4.739211504e-01,6.03886e-03,9.99999e-01,9.99999e-01,6.03886e-03,9.99999e-01
4.762907561e-01,6.68015e-03,9.99999e-01,9.99999e-01,6.68015e-03,9.99999e-01
4.786722099e-01,7.37484e-03,9.99999e-01,9.99999e-01,7.37484e-03,9.99999e-01
4.810655710e-01,8.12586e-03,9.99999e-01,9.99999e-01,8.12586e-03,9.99999e-01
4.834708988e-01,8.93624e-03,9.99999e-01,9.99999e-01,8.93624e-03,9.99999e-01
4.858882533e-01,9.80900e-03,9.99999e-01,9.99999e-01,9.80900e-03,9.99999e-01
4.883176946e-01,1.07472e-02,9.99999e-01,9.99999e-01,1.07472e-02,9.99999e-01
4.907592831e-01,1.17539e-02,9.99999e-01,9.99999e-01,1.17539e-02,9.99999e-01
4.932130795e-01,1.28322e-02,9.99999e-01,9.99999e-01,1.28322e-02,9.99999e-01
4.956791449e-01,1.39851e-02,9.99999e-01,9.99999e-01,1.39851e-02,9.99999e-01
4.981575406e-01,1.52158e-02,9.99999e-01,9.99999e-01,1.52158e-02,9.99999e-01
5.006483283e-01,1.65272e-02,9.99999e-01,9.99999e-01,1.65272e-02,9.99999e-01
5.031515699e-01,1.79223e-02,9.99999e-01,9.99999e-01,1.79223e-02,9.99999e-01
5.056673278e-01,1.94041e-02,9.99999e-01,9.99999e-01,1.94041e-02,9.99999e-01
5.081956644e-01,2.09754e-02,9.99999e-01,9.99999e-01,2.09754e-02,9.99999e-01
5.107366428e-01,2.26392e-02,9.99999e-01,9.99999e-01,2.26392e-02,9.99999e-01
5.132903260e-01,2.43982e-02,9.99999e-01,9.99999e-01,2.43982e-02,9.99999e-01
5.158567776e-01,2.62549e-02,9.99999e-01,9.99999e-01,2.62549e-02,9.99999e-01
5.184360615e-01,2.82121e-02,9.99999e-01,9.99999e-01,2.82121e-02,9.99999e-01
5.210282418e-01,3.02721e-02,9.99999e-01,9.99999e-01,3.02721e-02,9.99999e-01
5.236333830e-01,3.24374e-02,9.99999e-01,9.99999e-01,3.24374e-02,9.99999e-01
5.262515499e-01,3.47102e-02,9.99999e-01,9.99999e-01,3.47102e-02,9.99999e-01
5.288828077e-01,3.70925e-02,9.99999e-01,9.99999e-01,3.70925e-02,9.99999e-01
5.315272217e-01,3.95864e-02,9.99999e-01,9.99999e-01,3.95864e-02,9.99999e-01
5.341848578e-01,4.21938e-02,9.99999e-01,9.99999e-01,4.21938e-02,9.99999e-01
5.368557821e-01,4.49162e-02,9.99999e-01,9.99999e-01,4.49162e-02,9.99999e-01
5.395400610e-01,4.77553e-02,9.99999e-01,9.99999e-01,4.77553e-02,9.99999e-01
5.422377613e-01,5.07124e-02,9.99999e-01,9.99999e-01,5.07124e-02,9.99999e-01
5.449489501e-01,5.37887e-02,9.99999e-01,9.99999e-01,5.37887e-02,9.99999e-01
5.476736949e-01,5.69854e-02,9.99999e-01,9.99999e-01,5.69854e-02,9.99999e-01
5.504120634e-01,6.03031e-02,9.99999e-01,9.99999e-01,6.03031e-02,9.99999e-01
5.531641237e-01,6.37428e-02,9.99999e-01,9.99999e-01,6.37428e-02,9.99999e-01
5.559299443e-01,6.73049e-02,9.99999e-01,9.99999e-01,6.73049e-02,9.99999e-01
5.587095940e-01,7.09898e-02,9.99999e-01,9.99999e-01,7.09898e-02,9.99999e-01
5.615031420e-01,7.47976e-02,9.99999e-01,9.99999e-01,7.47976e-02,9.99999e-01
5.643106577e-01,7.87283e-02,9.99999e-01,9.99999e-01,7.87283e-02,9.99999e-01
5.671322110e-01,8.27818e-02,9.99999e-01,9.99999e-01,8.27818e-02,9.99999e-01
5.699678720e-01,8.69578e-02,9.99999e-01,9.99999e-01,8.69578e-02,9.99999e-01
5.728177114e-01,9.12557e-02,9.99999e-01,9.99999e-01,9.12557e-02,9.99999e-01
5.756818000e-01,9.56747e-02,9.99999e-01,9.99999e-01,9.56747e-02,9.99999e-01
5.785602090e-01,1.00214e-01,9.99999e-01,9.99999e-01,1.00214e-01,9.99999e-01
5.814530100e-01,1.04873e-01,9.99999e-01,9.99999e-01,1.04873e-01,9.99999e-01
5.843602750e-01,1.09650e-01,9.99999e-01,9.99999e-01,1.09650e-01,9.99999e-01
5.872820764e-01,1.14543e-01,9.99999e-01,9.99999e-01,1.14543e-01,9.99999e-01
5.902184868e-01,1.19552e-01,9.99999e-01,9.99999e-01,1.19552e-01,9.99999e-01
5.931695792e-01,1.24675e-01,9.99999e-01,9.99999e-01,1.24675e-01,9.99999e-01
5.961354271e-01,1.29909e-01,9.99999e-01,9.99999e-01,1.29909e-01,9.99999e-01
5.991161043e-01,1.35253e-01,9.99999e-01,9.99999e-01,1.35253e-01,9.99999e-01
6.021116848e-01,1.40705e-01,9.99999e-01,9.99999e-01,1.40705e-01,9.99999e-01
6.051222432e-01,1.46262e-01,9.99999e-01,9.99999e-01,1.46262e-01,9.99999e-01
6.081478544e-01,1.51922e-01,9.99999e-01,9.99999e-01,1.51922e-01,9.99999e-01
6.111885937e-01,1.57684e-01,9.99999e-01,9.99999e-01,1.57684e-01,9.99999e-01
6.142445367e-01,1.63543e-01,9.99999e-01,9.99999e-01,1.63543e-01,9.99999e-01
6.173157594e-01,1.69498e-01,9.99999e-01,9.99999e-01,1.69498e-01,9.99999e-01
6.204023382e-01,1.75546e-01,9.99999e-01,9.99999e-01,1.75546e-01,9.99999e-01
6.235043498e-01,1.81684e-01,9.99999e-01,9.99999e-01,1.81684e-01,9.99999e-01
6.266218716e-01,1.87909e-01,9.99999e-01,9.99999e-01,1.87909e-01,9.99999e-01
6.297549810e-01,1.94217e-01,9.99999e-01,9.99999e-01,1.94217e-01,9.99999e-01
6.329037559e-01,2.00607e-01,9.99999e-01,9.99999e-01,2.00607e-01,9.99999e-01
6.360682746e-01,2.07074e-01,9.99999e-01,9.99999e-01,2.07074e-01,9.99999e-01
6.392486160e-01,2.13616e-01,9.99999e-01,9.99999e-01,2.13616e-01,9.99999e-01
6.424448591e-01,2.20230e-01,9.99999e-01,9.99999e-01,2.20230e-01,9.99999e-01
6.456570834e-01,2.26911e-01,9.99999e-01,9.99999e-01,2.26911e-01,9.99999e-01
6.488853688e-01,2.33657e-01,9.99999e-01,9.99999e-01,2.33657e-01,9.99999e-01
6.521297956e-01,2.40465e-01,9.99999e-01,9.99999e-01,2.40465e-01,9.99999e-01
6.553904446e-01,2.47330e-01,9.99999e-01,9.99999e-01,2.47330e-01,9.99999e-01
6.586673968e-01,2.54250e-01,9.99999e-01,9.99999e-01,2.54250e-01,9.99999e-01
6.619607338e-01,2.61222e-01,9.99999e-01,9.99999e-01,2.61222e-01,9.99999e-01
6.652705375e-01,2.68241e-01,9.99999e-01,9.99999e-01,2.68241e-01,9.99999e-01
6.685968902e-01,2.75304e-01,9.99999e-01,9.99999e-01,2.75304e-01,9.99999e-01
6.719398746e-01,2.82408e-01,9.99999e-01,9.99999e-01,2.82408e-01,9.99999e-01
6.752995740e-01,2.89550e-01,9.99999e-01,9.99999e-01,2.89550e-01,9.99999e-01
6.786760719e-01,2.96727e-01,9.99999e-01,9.99999e-01,2.96727e-01,9.99999e-01
6.820694522e-01,3.03934e-01,9.99999e-01,9.99999e-01,3.03934e-01,9.99999e-01
6.854797995e-01,3.11168e-01,9.99999e-01,9.99999e-01,3.11168e-01,9.99999e-01
6.889071985e-01,3.18427e-01,9.99999e-01,9.99999e-01,3.18427e-01,9.99999e-01
6.923517345e-01,3.25707e-01,9.99999e-01,9.99999e-01,3.25707e-01,9.99999e-01
6.958134932e-01,3.33004e-01,9.99999e-01,9.99999e-01,3.33004e-01,9.99999e-01
6.992925606e-01,3.40316e-01,9.99999e-01,9.99999e-01,3.40316e-01,9.99999e-01
7.027890234e-01,3.47639e-01,9.99999e-01,9.99999e-01,3.47639e-01,9.99999e-01
7.063029686e-01,3.54971e-01,9.99999e-01,9.99999e-01,3.54971e-01,9.99999e-01
7.098344834e-01,3.62307e-01,9.99999e-01,9.99999e-01,3.62307e-01,9.99999e-01
7.133836558e-01,3.69647e-01,9.99999e-01,9.99999e-01,3.69647e-01,9.99999e-01
7.169505741e-01,3.76985e-01,9.99999e-01,9.99999e-01,3.76985e-01,9.99999e-01
7.205353270e-01,3.84320e-01,9.99999e-01,9.99999e-01,3.84320e-01,9.99999e-01
7.241380036e-01,3.91648e-01,9.99999e-01,9.99999e-01,3.91648e-01,9.99999e-01
7.277586936e-01,3.98967e-01,9.99999e-01,9.99999e-01,3.98967e-01,9.99999e-01
7.313974871e-01,4.06275e-01,9.99999e-01,9.99999e-01,4.06275e-01,9.99999e-01
7.350544745e-01,4.13568e-01,9.99999e-01,9.99999e-01,4.13568e-01,9.99999e-01
7.387297469e-01,4.20843e-01,9.99999e-01,9.99999e-01,4.20843e-01,9.99999e-01
7.424233956e-01,4.28100e-01,9.99999e-01,9.99999e-01,4.28100e-01,9.99999e-01
7.461355126e-01,4.35334e-01,9.99999e-01,9.99999e-01,4.35334e-01,9.99999e-01
7.498661902e-01,4.42545e-01,9.99999e-01,9.99999e-01,4.42545e-01,9.99999e-01
7.536155211e-01,4.49728e-01,9.99999e-01,9.99999e-01,4.49728e-01,9.99999e-01
7.573835987e-01,4.56883e-01,9.99999e-01,9.99999e-01,4.56883e-01,9.99999e-01
7.611705167e-01,4.64008e-01,9.99999e-01,9.99999e-01,4.64008e-01,9.99999e-01
7.649763693e-01,4.71099e-01,9.99999e-01,9.99999e-01,4.71099e-01,9.99999e-01
7.688012511e-01,4.78155e-01,9.99999e-01,9.99999e-01,4.78155e-01,9.99999e-01
7.726452574e-01,4.85175e-01,9.99999e-01,9.99999e-01,4.85175e-01,9.99999e-01
7.765084837e-01,4.92156e-01,9.99999e-01,9.99999e-01,4.92156e-01,9.99999e-01
7.803910261e-01,4.83304e-01,9.99999e-01,9.68358e-01,4.99096e-01,9.99999e-01
7.842929812e-01,4.37705e-01,9.99999e-01,8.65037e-01,5.05995e-01,9.99999e-01
7.882144461e-01,4.39316e-01,9.99999e-01,8.56617e-01,5.12849e-01,9.99999e-01
7.921555184e-01,4.74887e-01,9.99999e-01,9.13844e-01,5.19659e-01,9.99999e-01
7.961162960e-01,4.95499e-01,9.99999e-01,9.41259e-01,5.26421e-01,9.99999e-01
8.000968774e-01,5.15945e-01,9.99999e-01,9.67755e-01,5.33136e-01,9.99999e-01
8.040973618e-01,5.30695e-01,9.99999e-01,9.83131e-01,5.39801e-01,9.99999e-01
8.081178486e-01,5.42175e-01,9.99999e-01,9.92240e-01,5.46415e-01,9.99999e-01
8.121584379e-01,5.51643e-01,9.99999e-01,9.97586e-01,5.52977e-01,9.99999e-01
8.162192301e-01,5.59188e-01,9.99999e-01,9.99466e-01,5.59486e-01,9.99999e-01
8.203003262e-01,5.65936e-01,9.99999e-01,9.99991e-01,5.65941e-01,9.99999e-01
8.244018279e-01,5.72340e-01,9.99999e-01,9.99999e-01,5.72340e-01,9.99999e-01
8.285238370e-01,5.78684e-01,9.99999e-01,9.99999e-01,5.78684e-01,9.99999e-01
8.326664562e-01,5.84970e-01,9.99999e-01,9.99999e-01,5.84970e-01,9.99999e-01
8.368297885e-01,5.91198e-01,9.99999e-01,9.99999e-01,5.91198e-01,9.99999e-01
8.410139374e-01,5.97368e-01,9.99999e-01,9.99999e-01,5.97368e-01,9.99999e-01
8.452190071e-01,6.03479e-01,9.99999e-01,9.99999e-01,6.03479e-01,9.99999e-01
8.494451021e-01,6.09529e-01,9.99999e-01,9.99999e-01,6.09529e-01,9.99999e-01
8.536923276e-01,6.15519e-01,9.99999e-01,9.99999e-01,6.15519e-01,9.99999e-01
8.579607893e-01,6.21447e-01,9.99999e-01,9.99999e-01,6.21447e-01,9.99999e-01
8.622505932e-01,6.27314e-01,9.99999e-01,9.99999e-01,6.27314e-01,9.99999e-01
8.665618462e-01,5.88046e-01,9.99999e-01,9.28808e-01,6.33119e-01,9.99999e-01
8.708946554e-01,4.42284e-01,9.99999e-01,6.92300e-01,6.38861e-01,9.99999e-01
8.752491287e-01,4.79133e-01,9.99999e-01,7.43371e-01,6.44540e-01,9.99999e-01
8.796253743e-01,5.52448e-01,9.99999e-01,8.49716e-01,6.50156e-01,9.99999e-01
8.840235012e-01,6.02653e-01,9.99999e-01,9.19085e-01,6.55709e-01,9.99999e-01
8.884436187e-01,6.39537e-01,9.99999e-01,9.67240e-01,6.61198e-01,9.99999e-01
8.928858368e-01,6.57705e-01,9.99999e-01,9.86621e-01,6.66623e-01,9.99999e-01
8.973502660e-01,6.69783e-01,9.99999e-01,9.96724e-01,6.71984e-01,9.99999e-01
9.018370173e-01,6.77037e-01,9.99999e-01,9.99637e-01,6.77282e-01,9.99999e-01
9.063462024e-01,6.76306e-01,9.99999e-01,9.90903e-01,6.82515e-01,9.99999e-01
9.108779334e-01,6.73232e-01,9.99999e-01,9.78985e-01,6.87684e-01,9.99999e-01
9.154323231e-01,6.89328e-01,9.99999e-01,9.95004e-01,6.92788e-01,9.99999e-01
9.200094847e-01,6.49313e-01,9.99999e-01,9.30475e-01,6.97829e-01,9.99999e-01
9.246095321e-01,6.33437e-01,9.99999e-01,9.01296e-01,7.02806e-01,9.99999e-01
9.292325798e-01,6.52640e-01,9.99999e-01,9.22172e-01,7.07719e-01,9.99999e-01
9.338787427e-01,6.58627e-01,9.99999e-01,9.24299e-01,7.12568e-01,9.99999e-01
9.385481364e-01,6.77056e-01,9.99999e-01,9.43823e-01,7.17354e-01,9.99999e-01
9.432408771e-01,6.96932e-01,9.99999e-01,9.65177e-01,7.22076e-01,9.99999e-01
9.479570815e-01,7.13662e-01,9.99999e-01,9.82009e-01,7.26736e-01,9.99999e-01
9.526968669e-01,7.24953e-01,9.99999e-01,9.91277e-01,7.31332e-01,9.99999e-01
9.574603512e-01,7.33114e-01,9.99999e-01,9.96260e-01,7.35866e-01,9.99999e-01
9.622476530e-01,7.39473e-01,9.99999e-01,9.98831e-01,7.40337e-01,9.99999e-01
9.670588912e-01,7.44486e-01,9.99999e-01,9.99649e-01,7.44747e-01,9.99999e-01
9.718941857e-01,7.49076e-01,9.99999e-01,9.99974e-01,7.49095e-01,9.99999e-01
9.767536566e-01,7.53382e-01,9.99999e-01,9.99999e-01,7.53382e-01,9.99999e-01
9.816374249e-01,7.57608e-01,9.99999e-01,9.99999e-01,7.57608e-01,9.99999e-01
9.865456120e-01,7.61773e-01,9.99999e-01,9.99999e-01,7.61773e-01,9.99999e-01
9.914783401e-01,7.65878e-01,9.99999e-01,9.99999e-01,7.65878e-01,9.99999e-01
9.964357318e-01,7.69924e-01,9.99999e-01,9.99999e-01,7.69924e-01,9.99999e-01
1.001417910e+00,7.73911e-01,9.99999e-01,9.99999e-01,7.73911e-01,9.99999e-01
1.006425000e+00,7.77839e-01,9.99999e-01,9.99999e-01,7.77839e-01,9.99999e-01
1.011457125e+00,7.81708e-01,9.99999e-01,9.99999e-01,7.81708e-01,9.99999e-01
1.016514411e+00,7.85520e-01,9.99999e-01,9.99999e-01,7.85520e-01,9.99999e-01
1.021596983e+00,7.89239e-01,9.99999e-01,9.99953e-01,7.89275e-01,9.99999e-01
1.026704968e+00,7.90161e-01,9.99999e-01,9.96453e-01,7.92973e-01,9.99999e-01
1.031838492e+00,7.63813e-01,9.99999e-01,9.58823e-01,7.96614e-01,9.99999e-01
1.036997685e+00,1.28222e-01,9.99999e-01,1.60237e-01,8.00200e-01,9.99999e-01
1.042182673e+00,1.04773e-01,9.99999e-01,1.30358e-01,8.03731e-01,9.99999e-01
1.047393587e+00,1.22808e-01,9.99999e-01,1.52139e-01,8.07207e-01,9.99999e-01
1.052630555e+00,3.91048e-03,9.99999e-01,4.82400e-03,8.10629e-01,9.99999e-01
1.057893707e+00,9.67180e-03,9.99999e-01,1.18818e-02,8.13998e-01,9.99999e-01
1.063183176e+00,3.12304e-02,9.99999e-01,3.82110e-02,8.17314e-01,9.99999e-01
1.068499092e+00,8.55735e-02,9.99999e-01,1.04284e-01,8.20577e-01,9.99999e-01
1.073841587e+00,1.96992e-01,9.99999e-01,2.39130e-01,8.23788e-01,9.99999e-01
1.079210795e+00,3.34313e-01,9.99999e-01,4.04272e-01,8.26948e-01,9.99999e-01
1.084606849e+00,5.04133e-01,9.99999e-01,6.07347e-01,8.30058e-01,9.99999e-01
1.090029883e+00,6.43226e-01,9.99999e-01,7.72071e-01,8.33117e-01,9.99999e-01
1.095480033e+00,7.36008e-01,9.99999e-01,8.80257e-01,8.36127e-01,9.99999e-01
1.100957433e+00,7.89100e-01,9.99999e-01,9.40424e-01,8.39088e-01,9.99999e-01
1.106462220e+00,8.20873e-01,9.99999e-01,9.74906e-01,8.42001e-01,9.99999e-01
1.111994531e+00,8.36947e-01,9.99999e-01,9.90625e-01,8.44866e-01,9.99999e-01
1.117554504e+00,8.45733e-01,9.99999e-01,9.97698e-01,8.47684e-01,9.99999e-01
1.123142276e+00,8.50327e-01,9.99999e-01,9.99847e-01,8.50456e-01,9.99999e-01
1.128757988e+00,8.53181e-01,9.99999e-01,9.99999e-01,8.53181e-01,9.99999e-01
1.134401778e+00,8.55861e-01,9.99999e-01,9.99999e-01,8.55861e-01,9.99999e-01
1.140073787e+00,8.58496e-01,9.99999e-01,9.99999e-01,8.58496e-01,9.99999e-01
1.145774156e+00,8.61088e-01,9.99999e-01,9.99999e-01,8.61088e-01,9.99999e-01
1.151503026e+00,8.63635e-01,9.99999e-01,9.99999e-01,8.63635e-01,9.99999e-01
1.157260541e+00,8.66140e-01,9.99999e-01,9.99999e-01,8.66140e-01,9.99999e-01
1.163046844e+00,8.68602e-01,9.99999e-01,9.99999e-01,8.68602e-01,9.99999e-01
1.168862078e+00,8.71022e-01,9.99999e-01,9.99999e-01,8.71022e-01,9.99999e-01
1.174706389e+00,8.73401e-01,9.99999e-01,9.99999e-01,8.73401e-01,9.99999e-01
1.180579921e+00,8.75739e-01,9.99999e-01,9.99999e-01,8.75739e-01,9.99999e-01
1.186482820e+00,8.78033e-01,9.99999e-01,9.99994e-01,8.78038e-01,9.99999e-01
1.192415234e+00,8.69222e-01,9.99999e-01,9.87418e-01,8.80296e-01,9.99999e-01
1.198377311e+00,4.97007e-01,9.99999e-01,5.63170e-01,8.82516e-01,9.99999e-01
1.204369197e+00,7.87526e-11,9.99999e-01,8.90164e-11,8.84697e-01,9.99999e-01
1.210391043e+00,4.10745e-39,9.99999e-01,4.63155e-39,8.86841e-01,9.99999e-01
1.216442998e+00,4.68827e-34,9.99999e-01,5.27396e-34,8.88947e-01,9.99999e-01
1.222525213e+00,1.44309e-33,9.99999e-01,1.61960e-33,8.91016e-01,9.99999e-01
1.228637839e+00,5.37447e-26,9.99999e-01,6.01811e-26,8.93049e-01,9.99999e-01
1.234781029e+00,6.43884e-17,9.99999e-01,7.19385e-17,8.95047e-01,9.99999e-01
1.240954934e+00,1.90691e-11,9.99999e-01,2.12585e-11,8.97009e-01,9.99999e-01
1.247159708e+00,2.02647e-06,9.99999e-01,2.25430e-06,8.98937e-01,9.99999e-01
1.253395507e+00,3.89250e-04,9.99999e-01,4.32100e-04,9.00831e-01,9.99999e-01
1.259662485e+00,1.06299e-02,9.99999e-01,1.17758e-02,9.02691e-01,9.99999e-01
1.265960797e+00,6.88016e-02,9.99999e-01,7.60643e-02,9.04518e-01,9.99999e-01
1.272290601e+00,2.80863e-01,9.99999e-01,3.09896e-01,9.06313e-01,9.99999e-01
1.278652054e+00,2.63713e-01,9.99999e-01,2.90408e-01,9.08076e-01,9.99999e-01
1.285045314e+00,7.75345e-03,9.99999e-01,8.52207e-03,9.09807e-01,9.99999e-01
1.291470541e+00,2.79945e-05,9.99999e-01,3.07123e-05,9.11507e-01,9.99999e-01
1.297927893e+00,5.16026e-03,9.99999e-01,5.65088e-03,9.13177e-01,9.99999e-01
1.304417533e+00,1.26728e-01,9.99999e-01,1.38528e-01,9.14817e-01,9.99999e-01
1.310939621e+00,3.15821e-02,9.99999e-01,3.44622e-02,9.16427e-01,9.99999e-01
1.317494319e+00,6.45346e-14,9.99999e-01,7.02985e-14,9.18008e-01,9.99999e-01
1.324081790e+00,1.10172e-09,9.99999e-01,1.19809e-09,9.19560e-01,9.99999e-01
1.330702199e+00,1.00633e-05,9.99999e-01,1.09255e-05,9.21085e-01,9.99999e-01
1.337355710e+00,1.22820e-05,9.99999e-01,1.33127e-05,9.22582e-01,9.99999e-01
1.344042489e+00,3.74762e-06,9.99999e-01,4.05564e-06,9.24051e-01,9.99999e-01
1.350762701e+00,6.27663e-06,9.99999e-01,6.78192e-06,9.25494e-01,9.99999e-01
1.357516515e+00,4.43723e-04,9.99999e-01,4.78711e-04,9.26911e-01,9.99999e-01
1.364304097e+00,6.48658e-03,9.99999e-01,6.98758e-03,9.28301e-01,9.99999e-01
1.371125618e+00,6.95758e-02,9.99999e-01,7.48395e-02,9.29666e-01,9.99999e-01
1.377981246e+00,1.11616e-01,9.99999e-01,1.19888e-01,9.31007e-01,9.99999e-01
1.384871152e+00,2.71240e-01,9.99999e-01,2.90929e-01,9.32322e-01,9.99999e-01
1.391795508e+00,2.98195e-01,9.99999e-01,3.19398e-01,9.33614e-01,9.99999e-01
1.398754485e+00,4.62304e-01,9.99999e-01,4.94505e-01,9.34881e-01,9.99999e-01
1.405748258e+00,5.57231e-01,9.99999e-01,5.95252e-01,9.36125e-01,9.99999e-01
1.412776999e+00,6.75373e-01,9.99999e-01,7.20515e-01,9.37347e-01,9.99999e-01
1.419840884e+00,6.11292e-01,9.99999e-01,6.51318e-01,9.38545e-01,9.99999e-01
1.426940089e+00,5.84661e-02,9.99999e-01,6.22163e-02,9.39722e-01,9.99999e-01
1.434074789e+00,0.00000e+00,9.99999e-01,0.00000e+00,9.40877e-01,9.99999e-01
1.441245163e+00,0.00000e+00,9.99999e-01,0.00000e+00,9.42010e-01,9.99999e-01
1.448451389e+00,0.00000e+00,9.99999e-01,0.00000e+00,9.43122e-01,9.99999e-01
1.455693646e+00,2.48778e-313,9.99999e-01,2.63476e-313,9.44214e-01,9.99999e-01
1.462972114e+00,7.26746e-152,9.99999e-01,7.68811e-152,9.45285e-01,9.99999e-01
1.470286975e+00,8.19584e-64,9.99999e-01,8.66060e-64,9.46336e-01,9.99999e-01
