#,Wave/freq,Total,N2,CO2,Rayleigh,CIA
4.000000000e-01,1.63234e-11,9.99999e-01,9.99999e-01,1.63234e-11,9.99999e-01
4.020000000e-01,2.66750e-11,9.99999e-01,9.99999e-01,2.66750e-11,9.99999e-01
4.040100000e-01,4.31485e-11,9.99999e-01,9.99999e-01,4.31485e-11,9.99999e-01
4.060300500e-01,6.91354e-11,9.99999e-01,9.99999e-01,6.91354e-11,9.99999e-01
4.080602003e-01,1.09747e-10,9.99999e-01,9.99999e-01,1.09747e-10,9.99999e-01
4.101005013e-01,1.72631e-10,9.99999e-01,9.99999e-01,1.72631e-10,9.99999e-01
4.121510038e-01,2.69128e-10,9.99999e-01,9.99999e-01,2.69128e-10,9.99999e-01
4.142117588e-01,4.15903e-10,9.99999e-01,9.99999e-01,4.15903e-10,9.99999e-01
4.162828176e-01,6.37220e-10,9.99999e-01,9.99999e-01,6.37220e-10,9.99999e-01
4.183642317e-01,9.68117e-10,9.99999e-01,9.99999e-01,9.68117e-10,9.99999e-01
4.204560528e-01,1.45874e-09,9.99999e-01,9.99999e-01,1.45874e-09,9.99999e-01
4.225583331e-01,2.18028e-09,9.99999e-01,9.99999e-01,2.18028e-09,9.99999e-01
4.246711247e-01,3.23294e-09,9.99999e-01,9.99999e-01,3.23294e-09,9.99999e-01
4.267944804e-01,4.75668e-09,9.99999e-01,9.99999e-01,4.75668e-09,9.99999e-01
4.289284528e-01,6.94540e-09,9.99999e-01,9.99999e-01,6.94540e-09,9.99999e-01
4.310730950e-01,1.00657e-08,9.99999e-01,9.99999e-01,1.00657e-08,9.99999e-01
4.332284605e-01,1.44813e-08,9.99999e-01,9.99999e-01,1.44813e-08,9.99999e-01
4.353946028e-01,2.06848e-08,9.99999e-01,9.99999e-01,2.06848e-08,9.99999e-01
4.375715758e-01,2.93384e-08,9.99999e-01,9.99999e-01,2.93384e-08,9.99999e-01
4.397594337e-01,4.13260e-08,9.99999e-01,9.99999e-01,4.13260e-08,9.99999e-01
4.419582309e-01,5.78190e-08,9.99999e-01,9.99999e-01,5.78190e-08,9.99999e-01
4.441680220e-01,8.03596e-08,9.99999e-01,9.99999e-01,8.03596e-08,9.99999e-01
4.463888621e-01,1.10964e-07,9.99999e-01,9.99999e-01,1.10964e-07,9.99999e-01
4.486208064e-01,1.52250e-07,9.99999e-01,9.99999e-01,1.52250e-07,9.99999e-01
4.508639105e-01,2.07595e-07,9.99999e-01,9.99999e-01,2.07595e-07,9.99999e-01
4.531182300e-01,2.81332e-07,9.99999e-01,9.99999e-01,2.81332e-07,9.99999e-01
4.553838212e-01,3.78977e-07,9.99999e-01,9.99999e-01,3.78977e-07,9.99999e-01
4.576607403e-01,5.07518e-07,9.99999e-01,9.99999e-01,5.07518e-07,9.99999e-01
4.599490440e-01,6.75747e-07,9.99999e-01,9.99999e-01,6.75747e-07,9.99999e-01
4.622487892e-01,8.94667e-07,9.99999e-01,9.99999e-01,8.94667e-07,9.99999e-01
4.645600332e-01,1.17796e-06,9.99999e-01,9.99999e-01,1.17796e-06,9.99999e-01
4.668828333e-01,1.54256e-06,9.99999e-01,9.99999e-01,1.54256e-06,9.99999e-01
4.692172475e-01,2.00927e-06,9.99999e-01,9.99999e-01,2.00927e-06,9.99999e-01
4.715633337e-01,2.60355e-06,9.99999e-01,9.99999e-01,2.60355e-06,9.99999e-01
4.739211504e-01,3.35639e-06,9.99999e-01,9.99999e-01,3.35639e-06,9.99999e-01
4.762907561e-01,4.30527e-06,9.99999e-01,9.99999e-01,4.30527e-06,9.99999e-01
4.786722099e-01,5.49531e-06,9.99999e-01,9.99999e-01,5.49531e-06,9.99999e-01
4.810655710e-01,6.98056e-06,9.99999e-01,9.99999e-01,6.98056e-06,9.99999e-01
4.834708988e-01,8.82544e-06,9.99999e-01,9.99999e-01,8.82544e-06,9.99999e-01
4.858882533e-01,1.11063e-05,9.99999e-01,9.99999e-01,1.11063e-05,9.99999e-01
4.883176946e-01,1.39134e-05,9.99999e-01,9.99999e-01,1.39134e-05,9.99999e-01
4.907592831e-01,1.73525e-05,9.99999e-01,9.99999e-01,1.73525e-05,9.99999e-01
4.932130795e-01,2.15475e-05,9.99999e-01,9.99999e-01,2.15475e-05,9.99999e-01
4.956791449e-01,2.66424e-05,9.99999e-01,9.99999e-01,2.66424e-05,9.99999e-01
4.981575406e-01,3.28042e-05,9.99999e-01,9.99999e-01,3.28042e-05,9.99999e-01
5.006483283e-01,4.02255e-05,9.99999e-01,9.99999e-01,4.02255e-05,9.99999e-01
5.031515699e-01,4.91273e-05,9.99999e-01,9.99999e-01,4.91273e-05,9.99999e-01
5.056673278e-01,5.97627e-05,9.99999e-01,9.99999e-01,5.97627e-05,9.99999e-01
5.081956644e-01,7.24196e-05,9.99999e-01,9.99999e-01,7.24196e-05,9.99999e-01
5.107366428e-01,8.74247e-05,9.99999e-01,9.99999e-01,8.74247e-05,9.99999e-01
5.132903260e-01,1.05147e-04,9.99999e-01,9.99999e-01,1.05147e-04,9.99999e-01
5.158567776e-01,1.26002e-04,9.99999e-01,9.99999e-01,1.26002e-04,9.99999e-01
5.184360615e-01,1.50454e-04,9.99999e-01,9.99999e-01,1.50454e-04,9.99999e-01
5.210282418e-01,1.79023e-04,9.99999e-01,9.99999e-01,1.79023e-04,9.99999e-01
5.236333830e-01,2.12287e-04,9.99999e-01,9.99999e-01,2.12287e-04,9.99999e-01
5.262515499e-01,2.50886e-04,9.99999e-01,9.99999e-01,2.50886e-04,9.99999e-01
5.288828077e-01,2.95526e-04,9.99999e-01,9.99999e-01,2.95526e-04,9.99999e-01
5.315272217e-01,3.46984e-04,9.99999e-01,9.99999e-01,3.46984e-04,9.99999e-01
5.341848578e-01,4.06113e-04,9.99999e-01,9.99999e-01,4.06113e-04,9.99999e-01
5.368557821e-01,4.73843e-04,9.99999e-01,9.99999e-01,4.73843e-04,9.99999e-01
5.395400610e-01,5.51187e-04,9.99999e-01,9.99999e-01,5.51187e-04,9.99999e-01
5.422377613e-01,6.39244e-04,9.99999e-01,9.99999e-01,6.39244e-04,9.99999e-01
5.449489501e-01,7.39201e-04,9.99999e-01,9.99999e-01,7.39201e-04,9.99999e-01
5.476736949e-01,8.52339e-04,9.99999e-01,9.99999e-01,8.52339e-04,9.99999e-01
5.504120634e-01,9.80032e-04,9.99999e-01,9.99999e-01,9.80032e-04,9.99999e-01
5.531641237e-01,1.12375e-03,9.99999e-01,9.99999e-01,1.12375e-03,9.99999e-01
5.559299443e-01,1.28507e-03,9.99999e-01,9.99999e-01,1.28507e-03,9.99999e-01
5.587095940e-01,1.46566e-03,9.99999e-01,9.99999e-01,1.46566e-03,9.99999e-01
5.615031420e-01,1.66729e-03,9.99999e-01,9.99999e-01,1.66729e-03,9.99999e-01
5.643106577e-01,1.89183e-03,9.99999e-01,9.99999e-01,1.89183e-03,9.99999e-01
5.671322110e-01,2.14127e-03,9.99999e-01,9.99999e-01,2.14127e-03,9.99999e-01
5.699678720e-01,2.41767e-03,9.99999e-01,9.99999e-01,2.41767e-03,9.99999e-01
5.728177114e-01,2.72321e-03,9.99999e-01,9.99999e-01,2.72321e-03,9.99999e-01
5.756818000e-01,3.06017e-03,9.99999e-01,9.99999e-01,3.06017e-03,9.99999e-01
5.785602090e-01,3.43090e-03,9.99999e-01,9.99999e-01,3.43090e-03,9.99999e-01
5.814530100e-01,3.83787e-03,9.99999e-01,9.99999e-01,3.83787e-03,9.99999e-01
5.843602750e-01,4.28361e-03,9.99999e-01,9.99999e-01,4.28361e-03,9.99999e-01
5.872820764e-01,4.77076e-03,9.99999e-01,9.99999e-01,4.77076e-03,9.99999e-01
5.902184868e-01,5.30202e-03,9.99999e-01,9.99999e-01,5.30202e-03,9.99999e-01
5.931695792e-01,5.88016e-03,9.99999e-01,9.99999e-01,5.88016e-03,9.99999e-01
5.961354271e-01,6.50803e-03,9.99999e-01,9.99999e-01,6.50803e-03,9.99999e-01
5.991161043e-01,7.18851e-03,9.99999e-01,9.99999e-01,7.18851e-03,9.99999e-01
6.021116848e-01,7.92457e-03,9.99999e-01,9.99999e-01,7.92457e-03,9.99999e-01
6.051222432e-01,8.71919e-03,9.99999e-01,9.99999e-01,8.71919e-03,9.99999e-01
6.081478544e-01,9.57540e-03,9.99999e-01,9.99999e-01,9.57540e-03,9.99999e-01
6.111885937e-01,1.04962e-02,9.99999e-01,9.99999e-01,1.04962e-02,9.99999e-01
6.142445367e-01,1.14848e-02,9.99999e-01,9.99999e-01,1.14848e-02,9.99999e-01
6.173157594e-01,1.25441e-02,9.99999e-01,9.99999e-01,1.25441e-02,9.99999e-01
6.204023382e-01,1.36773e-02,9.99999e-01,9.99999e-01,1.36773e-02,9.99999e-01
6.235043498e-01,1.48874e-02,9.99999e-01,9.99999e-01,1.48874e-02,9.99999e-01
6.266218716e-01,1.61775e-02,9.99999e-01,9.99999e-01,1.61775e-02,9.99999e-01
6.297549810e-01,1.75505e-02,9.99999e-01,9.99999e-01,1.75505e-02,9.99999e-01
6.329037559e-01,1.90094e-02,9.99999e-01,9.99999e-01,1.90094e-02,9.99999e-01
6.360682746e-01,2.05572e-02,9.99999e-01,9.99999e-01,2.05572e-02,9.99999e-01
6.392486160e-01,2.21966e-02,9.99999e-01,9.99999e-01,2.21966e-02,9.99999e-01
6.424448591e-01,2.39305e-02,9.99999e-01,9.99999e-01,2.39305e-02,9.99999e-01
6.456570834e-01,2.57615e-02,9.99999e-01,9.99999e-01,2.57615e-02,9.99999e-01
6.488853688e-01,2.76923e-02,9.99999e-01,9.99999e-01,2.76923e-02,9.99999e-01
6.521297956e-01,2.97253e-02,9.99999e-01,9.99999e-01,2.97253e-02,9.99999e-01
6.553904446e-01,3.18629e-02,9.99999e-01,9.99999e-01,3.18629e-02,9.99999e-01
6.586673968e-01,3.41075e-02,9.99999e-01,9.99999e-01,3.41075e-02,9.99999e-01
6.619607338e-01,3.64611e-02,9.99999e-01,9.99999e-01,3.64611e-02,9.99999e-01
6.652705375e-01,3.89257e-02,9.99999e-01,9.99999e-01,3.89257e-02,9.99999e-01
6.685968902e-01,4.15033e-02,9.99999e-01,9.99999e-01,4.15033e-02,9.99999e-01
6.719398746e-01,4.41956e-02,9.99999e-01,9.99999e-01,4.41956e-02,9.99999e-01
6.752995740e-01,4.70042e-02,9.99999e-01,9.99999e-01,4.70042e-02,9.99999e-01
6.786760719e-01,4.99304e-02,9.99999e-01,9.99999e-01,4.99304e-02,9.99999e-01
6.820694522e-01,5.29756e-02,9.99999e-01,9.99999e-01,5.29756e-02,9.99999e-01
6.854797995e-01,5.61408e-02,9.99999e-01,9.99999e-01,5.61408e-02,9.99999e-01
6.889071985e-01,5.94269e-02,9.99999e-01,9.99999e-01,5.94269e-02,9.99999e-01
6.923517345e-01,6.28348e-02,9.99999e-01,9.99999e-01,6.28348e-02,9.99999e-01
6.958134932e-01,6.63649e-02,9.99999e-01,9.99999e-01,6.63649e-02,9.99999e-01
6.992925606e-01,7.00177e-02,9.99999e-01,9.99999e-01,7.00177e-02,9.99999e-01
7.027890234e-01,7.37935e-02,9.99999e-01,9.99999e-01,7.37935e-02,9.99999e-01
7.063029686e-01,7.76922e-02,9.99999e-01,9.99999e-01,7.76922e-02,9.99999e-01
7.098344834e-01,8.17138e-02,9.99999e-01,9.99999e-01,8.17138e-02,9.99999e-01
7.133836558e-01,8.58579e-02,9.99999e-01,9.99999e-01,8.58579e-02,9.99999e-01
7.169505741e-01,9.01240e-02,9.99999e-01,9.99999e-01,9.01240e-02,9.99999e-01
7.205353270e-01,9.45116e-02,9.99999e-01,9.99999e-01,9.45116e-02,9.99999e-01
7.241380036e-01,9.90197e-02,9.99999e-01,9.99999e-01,9.90197e-02,9.99999e-01
7.277586936e-01,1.03647e-01,9.99999e-01,9.99999e-01,1.03647e-01,9.99999e-01
7.313974871e-01,1.08394e-01,9.99999e-01,9.99999e-01,1.08394e-01,9.99999e-01
7.350544745e-01,1.13257e-01,9.99999e-01,9.99999e-01,1.13257e-01,9.99999e-01
7.387297469e-01,1.18236e-01,9.99999e-01,9.99999e-01,1.18236e-01,9.99999e-01
7.424233956e-01,1.23329e-01,9.99999e-01,9.99999e-01,1.23329e-01,9.99999e-01
7.461355126e-01,1.28534e-01,9.99999e-01,9.99999e-01,1.28534e-01,9.99999e-01
7.498661902e-01,1.33850e-01,9.99999e-01,9.99999e-01,1.33850e-01,9.99999e-01
7.536155211e-01,1.39274e-01,9.99999e-01,9.99999e-01,1.39274e-01,9.99999e-01
7.573835987e-01,1.44804e-01,9.99999e-01,9.99999e-01,1.44804e-01,9.99999e-01
7.611705167e-01,1.50438e-01,9.99999e-01,9.99999e-01,1.50438e-01,9.99999e-01
7.649763693e-01,1.56173e-01,9.99999e-01,9.99999e-01,1.56173e-01,9.99999e-01
7.688012511e-01,1.62007e-01,9.99999e-01,9.99999e-01,1.62007e-01,9.99999e-01
7.726452574e-01,1.67938e-01,9.99999e-01,9.99999e-01,1.67938e-01,9.99999e-01
7.765084837e-01,1.73961e-01,9.99999e-01,9.99999e-01,1.73961e-01,9.99999e-01
7.803910261e-01,1.67542e-01,9.99999e-01,9.30392e-01,1.80076e-01,9.99999e-01
7.842929812e-01,1.32208e-01,9.99999e-01,7.09734e-01,1.86278e-01,9.99999e-01
7.882144461e-01,1.33849e-01,9.99999e-01,6.95083e-01,1.92566e-01,9.99999e-01
7.921555184e-01,1.59674e-01,9.99999e-01,8.02647e-01,1.98934e-01,9.99999e-01
7.961162960e-01,1.77078e-01,9.99999e-01,8.62189e-01,2.05382e-01,9.99999e-01
8.000968774e-01,1.95525e-01,9.99999e-01,9.22699e-01,2.11905e-01,9.99999e-01
8.040973618e-01,2.09570e-01,9.99999e-01,9.59132e-01,2.18500e-01,9.99999e-01
8.081178486e-01,2.20890e-01,9.99999e-01,9.81018e-01,2.25164e-01,9.99999e-01
8.121584379e-01,2.30525e-01,9.99999e-01,9.94100e-01,2.31893e-01,9.99999e-01
8.162192301e-01,2.38374e-01,9.99999e-01,9.98694e-01,2.38685e-01,9.99999e-01
8.203003262e-01,2.45531e-01,9.99999e-01,9.99980e-01,2.45536e-01,9.99999e-01
8.244018279e-01,2.52442e-01,9.99999e-01,9.99999e-01,2.52442e-01,9.99999e-01
8.285238370e-01,2.59400e-01,9.99999e-01,9.99999e-01,2.59400e-01,9.99999e-01
8.326664562e-01,2.66407e-01,9.99999e-01,9.99999e-01,2.66407e-01,9.99999e-01
8.368297885e-01,2.73459e-01,9.99999e-01,9.99999e-01,2.73459e-01,9.99999e-01
8.410139374e-01,2.80553e-01,9.99999e-01,9.99999e-01,2.80553e-01,9.99999e-01
8.452190071e-01,2.87686e-01,9.99999e-01,9.99999e-01,2.87686e-01,9.99999e-01
8.494451021e-01,2.94854e-01,9.99999e-01,9.99999e-01,2.94854e-01,9.99999e-01
8.536923276e-01,3.02053e-01,9.99999e-01,9.99999e-01,3.02053e-01,9.99999e-01
8.579607893e-01,3.09281e-01,9.99999e-01,9.99999e-01,3.09281e-01,9.99999e-01
8.622505932e-01,3.16533e-01,9.99999e-01,9.99999e-01,3.16533e-01,9.99999e-01
8.665618462e-01,2.86215e-01,9.99999e-01,8.83902e-01,3.23808e-01,9.99999e-01
8.708946554e-01,1.41470e-01,9.99999e-01,4.27271e-01,3.31101e-01,9.99999e-01
8.752491287e-01,1.67834e-01,9.99999e-01,4.95951e-01,3.38409e-01,9.99999e-01
8.796253743e-01,2.33512e-01,9.99999e-01,6.75418e-01,3.45730e-01,9.99999e-01
8.840235012e-01,2.87336e-01,9.99999e-01,8.13844e-01,3.53060e-01,9.99999e-01
8.884436187e-01,3.32177e-01,9.99999e-01,9.21702e-01,3.60395e-01,9.99999e-01
8.928858368e-01,3.55770e-01,9.99999e-01,9.67464e-01,3.67734e-01,9.99999e-01
8.973502660e-01,3.72072e-01,9.99999e-01,9.91999e-01,3.75073e-01,9.99999e-01
9.018370173e-01,3.82071e-01,9.99999e-01,9.99115e-01,3.82409e-01,9.99999e-01
9.063462024e-01,3.81082e-01,9.99999e-01,9.77787e-01,3.89739e-01,9.99999e-01
9.108779334e-01,3.76893e-01,9.99999e-01,9.49207e-01,3.97061e-01,9.99999e-01
9.154323231e-01,3.99453e-01,9.99999e-01,9.87835e-01,4.04372e-01,9.99999e-01
9.200094847e-01,3.49755e-01,9.99999e-01,8.49602e-01,4.11669e-01,9.99999e-01
9.246095321e-01,3.24938e-01,9.99999e-01,7.75602e-01,4.18949e-01,9.99999e-01
9.292325798e-01,3.50089e-01,9.99999e-01,8.21398e-01,4.26211e-01,9.99999e-01
9.338787427e-01,3.57829e-01,9.99999e-01,8.25533e-01,4.33452e-01,9.99999e-01
9.385481364e-01,3.82467e-01,9.99999e-01,8.67923e-01,4.40668e-01,9.99999e-01
9.432408771e-01,4.10532e-01,9.99999e-01,9.16653e-01,4.47859e-01,9.99999e-01
9.479570815e-01,4.35143e-01,9.99999e-01,9.56311e-01,4.55022e-01,9.99999e-01
9.526968669e-01,4.52313e-01,9.99999e-01,9.78705e-01,4.62154e-01,9.99999e-01
9.574603512e-01,4.64953e-01,9.99999e-01,9.90833e-01,4.69254e-01,9.99999e-01
9.622476530e-01,4.74954e-01,9.99999e-01,9.97131e-01,4.76320e-01,9.99999e-01
9.670588912e-01,4.82934e-01,9.99999e-01,9.99139e-01,4.83349e-01,9.99999e-01
9.718941857e-01,4.90311e-01,9.99999e-01,9.99938e-01,4.90340e-01,9.99999e-01
9.767536566e-01,4.97292e-01,9.99999e-01,9.99999e-01,4.97292e-01,9.99999e-01
9.816374249e-01,5.04201e-01,9.99999e-01,9.99999e-01,5.04201e-01,9.99999e-01
9.865456120e-01,5.11067e-01,9.99999e-01,9.99999e-01,5.11067e-01,9.99999e-01
9.914783401e-01,5.17889e-01,9.99999e-01,9.99999e-01,5.17889e-01,9.99999e-01
9.964357318e-01,5.24664e-01,9.99999e-01,9.99999e-01,5.24664e-01,9.99999e-01
1.001417910e+00,5.31391e-01,9.99999e-01,9.99999e-01,5.31391e-01,9.99999e-01
1.006425000e+00,5.38069e-01,9.99999e-01,9.99999e-01,5.38069e-01,9.99999e-01
1.011457125e+00,5.44696e-01,9.99999e-01,9.99999e-01,5.44696e-01,9.99999e-01
1.016514411e+00,5.51272e-01,9.99999e-01,9.99999e-01,5.51272e-01,9.99999e-01
1.021596983e+00,5.57728e-01,9.99999e-01,9.99880e-01,5.57795e-01,9.99999e-01
1.026704968e+00,5.59306e-01,9.99999e-01,9.91213e-01,5.64264e-01,9.99999e-01
1.031838492e+00,5.25776e-01,9.99999e-01,9.21317e-01,5.70678e-01,9.99999e-01
1.036997685e+00,3.96443e-02,9.99999e-01,6.87032e-02,5.77036e-01,9.99999e-01
1.042182673e+00,6.44111e-03,9.99999e-01,1.10418e-02,5.83337e-01,9.99999e-01
1.047393587e+00,1.36285e-02,9.99999e-01,2.31155e-02,5.89581e-01,9.99999e-01
1.052630555e+00,1.00318e-05,9.99999e-01,1.68385e-05,5.95766e-01,9.99999e-01
1.057893707e+00,3.64931e-05,9.99999e-01,6.06306e-05,6.01892e-01,9.99999e-01
1.063183176e+00,4.40310e-04,9.99999e-01,7.24243e-04,6.07958e-01,9.99999e-01
1.068499092e+00,2.98527e-03,9.99999e-01,4.86229e-03,6.13964e-01,9.99999e-01
1.073841587e+00,2.05409e-02,9.99999e-01,3.31353e-02,6.19908e-01,9.99999e-01
1.079210795e+00,7.29727e-02,9.99999e-01,1.16609e-01,6.25791e-01,9.99999e-01
1.084606849e+00,1.88708e-01,9.99999e-01,2.98772e-01,6.31612e-01,9.99999e-01
1.090029883e+00,3.39061e-01,9.99999e-01,5.31967e-01,6.37371e-01,9.99999e-01
1.095480033e+00,4.70794e-01,9.99999e-01,7.32108e-01,6.43066e-01,9.99999e-01
1.100957433e+00,5.57916e-01,9.99999e-01,8.60054e-01,6.48699e-01,9.99999e-01
1.106462220e+00,6.14682e-01,9.99999e-01,9.39495e-01,6.54268e-01,9.99999e-01
1.111994531e+00,6.44675e-01,9.99999e-01,9.77114e-01,6.59774e-01,9.99999e-01
1.117554504e+00,6.61468e-01,9.99999e-01,9.94365e-01,6.65216e-01,9.99999e-01
1.123142276e+00,6.70345e-01,9.99999e-01,9.99629e-01,6.70594e-01,9.99999e-01
1.128757988e+00,6.75907e-01,9.99999e-01,9.99999e-01,6.75907e-01,9.99999e-01
1.134401778e+00,6.81157e-01,9.99999e-01,9.99999e-01,6.81157e-01,9.99999e-01
1.140073787e+00,6.86343e-01,9.99999e-01,9.99999e-01,6.86343e-01,9.99999e-01
1.145774156e+00,6.91464e-01,9.99999e-01,9.99999e-01,6.91464e-01,9.99999e-01
1.151503026e+00,6.96522e-01,9.99999e-01,9.99999e-01,6.96522e-01,9.99999e-01
1.157260541e+00,7.01515e-01,9.99999e-01,9.99999e-01,7.01515e-01,9.99999e-01
1.163046844e+00,7.06445e-01,9.99999e-01,9.99999e-01,7.06445e-01,9.99999e-01
1.168862078e+00,7.11311e-01,9.99999e-01,9.99999e-01,7.11311e-01,9.99999e-01
1.174706389e+00,7.16113e-01,9.99999e-01,9.99999e-01,7.16113e-01,9.99999e-01
1.180579921e+00,7.20852e-01,9.99999e-01,9.99999e-01,7.20852e-01,9.99999e-01
1.186482820e+00,7.25516e-01,9.99999e-01,9.99983e-01,7.25528e-01,9.99999e-01
1.192415234e+00,7.07972e-01,9.99999e-01,9.69637e-01,7.30140e-01,9.99999e-01
1.198377311e+00,3.91051e-01,9.99999e-01,5.32266e-01,7.34690e-01,9.99999e-01
1.204369197e+00,2.04083e-23,9.99999e-01,2.76094e-23,7.39178e-01,9.99999e-01
1.210391043e+00,3.45400e-93,9.99999e-01,4.64494e-93,7.43604e-01,9.99999e-01
1.216442998e+00,1.03530e-80,9.99999e-01,1.38415e-80,7.47968e-01,9.99999e-01
1.222525213e+00,1.65311e-79,9.99999e-01,2.19749e-79,7.52271e-01,9.99999e-01
1.228637839e+00,1.99965e-61,9.99999e-01,2.64324e-61,7.56512e-01,9.99999e-01
1.234781029e+00,1.95747e-38,9.99999e-01,2.57327e-38,7.60693e-01,9.99999e-01
1.240954934e+00,1.31852e-25,9.99999e-01,1.72397e-25,7.64814e-01,9.99999e-01
1.247159708e+00,1.20009e-12,9.99999e-01,1.56084e-12,7.68876e-01,9.99999e-01
1.253395507e+00,1.50537e-08,9.99999e-01,1.94774e-08,7.72878e-01,9.99999e-01
1.259662485e+00,3.15579e-05,9.99999e-01,4.06244e-05,7.76821e-01,9.99999e-01
1.265960797e+00,2.71609e-03,9.99999e-01,3.47902e-03,7.80706e-01,9.99999e-01
1.272290601e+00,5.95504e-02,9.99999e-01,7.59055e-02,7.84532e-01,9.99999e-01
1.278652054e+00,5.24566e-02,9.99999e-01,6.65437e-02,7.88302e-01,9.99999e-01
1.285045314e+00,1.48107e-04,9.99999e-01,1.87000e-04,7.92015e-01,9.99999e-01
1.291470541e+00,2.72235e-11,9.99999e-01,3.42144e-11,7.95671e-01,9.99999e-01
1.297927893e+00,3.39346e-05,9.99999e-01,4.24569e-05,7.99271e-01,9.99999e-01
1.304417533e+00,7.04771e-03,9.99999e-01,8.77872e-03,8.02816e-01,9.99999e-01
1.310939621e+00,1.71436e-03,9.99999e-01,2.12618e-03,8.06307e-01,9.99999e-01
1.317494319e+00,5.39911e-32,9.99999e-01,6.66768e-32,8.09743e-01,9.99999e-01
1.324081790e+00,3.55073e-21,9.99999e-01,4.36677e-21,8.13125e-01,9.99999e-01
1.330702199e+00,1.37379e-12,9.99999e-01,1.68263e-12,8.16455e-01,9.99999e-01
1.337355710e+00,1.13679e-11,9.99999e-01,1.38678e-11,8.19731e-01,9.99999e-01
1.344042489e+00,5.21493e-12,9.99999e-01,6.33682e-12,8.22956e-01,9.99999e-01
1.350762701e+00,7.19219e-13,9.99999e-01,8.70587e-13,8.26130e-01,9.99999e-01
1.357516515e+00,4.32708e-08,9.99999e-01,5.21804e-08,8.29253e-01,9.99999e-01
1.364304097e+00,6.62042e-06,9.99999e-01,7.95412e-06,8.32325e-01,9.99999e-01
1.371125618e+00,2.06821e-03,9.99999e-01,2.47587e-03,8.35348e-01,9.99999e-01
1.377981246e+00,4.92184e-03,9.99999e-01,5.87106e-03,8.38322e-01,9.99999e-01
1.384871152e+00,4.21532e-02,9.99999e-01,5.01080e-02,8.41247e-01,9.99999e-01
1.391795508e+00,5.32647e-02,9.99999e-01,6.31005e-02,8.44124e-01,9.99999e-01
1.398754485e+00,1.50236e-01,9.99999e-01,1.77384e-01,8.46954e-01,9.99999e-01
1.405748258e+00,2.40175e-01,9.99999e-01,2.82645e-01,8.49738e-01,9.99999e-01
1.412776999e+00,3.81954e-01,9.99999e-01,4.48052e-01,8.52475e-01,9.99999e-01
1.419840884e+00,3.49930e-01,9.99999e-01,4.09195e-01,8.55167e-01,9.99999e-01
1.426940089e+00,1.59636e-02,9.99999e-01,1.86096e-02,8.57814e-01,9.99999e-01
1.434074789e+00,0.00000e+00,9.99999e-01,0.00000e+00,8.60417e-01,9.99999e-01
1.441245163e+00,0.00000e+00,9.99999e-01,0.00000e+00,8.62975e-01,9.99999e-01
1.448451389e+00,0.00000e+00,9.99998e-01,0.00000e+00,8.65491e-01,9.99999e-01
1.455693646e+00,0.00000e+00,9.99999e-01,0.00000e+00,8.67964e-01,9.99999e-01
1.462972114e+00,0.00000e+00,9.99999e-01,0.00000e+00,8.70395e-01,9.99999e-01
1.470286975e+00,4.10042e-154,9.99999e-01,4.69808e-154,8.72785e-01,9.99999e-01
