#,Wave/freq,Total,N2,CO2,Rayleigh,CIA
4.000000000e-01,6.69172e-08,9.99999e-01,9.99999e-01,6.69172e-08,9.99999e-01
4.020000000e-01,9.27677e-08,9.99999e-01,9.99999e-01,9.27677e-08,9.99999e-01
4.040100000e-01,1.27735e-07,9.99999e-01,9.99999e-01,1.27735e-07,9.99999e-01
4.060300500e-01,1.74774e-07,9.99999e-01,9.99999e-01,1.74774e-07,9.99999e-01
4.080602003e-01,2.37659e-07,9.99999e-01,9.99999e-01,2.37659e-07,9.99999e-01
4.101005013e-01,3.21214e-07,9.99999e-01,9.99999e-01,3.21214e-07,9.99999e-01
4.121510038e-01,4.31571e-07,9.99999e-01,9.99999e-01,4.31571e-07,9.99999e-01
4.142117588e-01,5.76468e-07,9.99999e-01,9.99999e-01,5.76468e-07,9.99999e-01
4.162828176e-01,7.65624e-07,9.99999e-01,9.99999e-01,7.65624e-07,9.99999e-01
4.183642317e-01,1.01116e-06,9.99999e-01,9.99999e-01,1.01116e-06,9.99999e-01
4.204560528e-01,1.32813e-06,9.99999e-01,9.99999e-01,1.32813e-06,9.99999e-01
4.225583331e-01,1.73509e-06,9.99999e-01,9.99999e-01,1.73509e-06,9.99999e-01
4.246711247e-01,2.25481e-06,9.99999e-01,9.99999e-01,2.25481e-06,9.99999e-01
4.267944804e-01,2.91507e-06,9.99999e-01,9.99999e-01,2.91507e-06,9.99999e-01
4.289284528e-01,3.74961e-06,9.99999e-01,9.99999e-01,3.74961e-06,9.99999e-01
4.310730950e-01,4.79914e-06,9.99999e-01,9.99999e-01,4.79914e-06,9.99999e-01
4.332284605e-01,6.11257e-06,9.99999e-01,9.99999e-01,6.11257e-06,9.99999e-01
4.353946028e-01,7.74834e-06,9.99999e-01,9.99999e-01,7.74834e-06,9.99999e-01
4.375715758e-01,9.77596e-06,9.99999e-01,9.99999e-01,9.77596e-06,9.99999e-01
4.397594337e-01,1.22777e-05,9.99999e-01,9.99999e-01,1.22777e-05,9.99999e-01
4.419582309e-01,1.53503e-05,9.99999e-01,9.99999e-01,1.53503e-05,9.99999e-01
4.441680220e-01,1.91075e-05,9.99999e-01,9.99999e-01,1.91075e-05,9.99999e-01
4.463888621e-01,2.36817e-05,9.99999e-01,9.99999e-01,2.36817e-05,9.99999e-01
4.486208064e-01,2.92266e-05,9.99999e-01,9.99999e-01,2.92266e-05,9.99999e-01
4.508639105e-01,3.59204e-05,9.99999e-01,9.99999e-01,3.59204e-05,9.99999e-01
4.531182300e-01,4.39677e-05,9.99999e-01,9.99999e-01,4.39677e-05,9.99999e-01
4.553838212e-01,5.36035e-05,9.99999e-01,9.99999e-01,5.36035e-05,9.99999e-01
4.576607403e-01,6.50957e-05,9.99999e-01,9.99999e-01,6.50957e-05,9.99999e-01
4.599490440e-01,7.87489e-05,9.99999e-01,9.99999e-01,7.87489e-05,9.99999e-01
4.622487892e-01,9.49083e-05,9.99999e-01,9.99999e-01,9.49083e-05,9.99999e-01
4.645600332e-01,1.13963e-04,9.99999e-01,9.99999e-01,1.13963e-04,9.99999e-01
4.668828333e-01,1.36349e-04,9.99999e-01,9.99999e-01,1.36349e-04,9.99999e-01
4.692172475e-01,1.62555e-04,9.99999e-01,9.99999e-01,1.62555e-04,9.99999e-01
4.715633337e-01,1.93127e-04,9.99999e-01,9.99999e-01,1.93127e-04,9.99999e-01
4.739211504e-01,2.28669e-04,9.99999e-01,9.99999e-01,2.28669e-04,9.99999e-01
4.762907561e-01,2.69850e-04,9.99999e-01,9.99999e-01,2.69850e-04,9.99999e-01
4.786722099e-01,3.17407e-04,9.99999e-01,9.99999e-01,3.17407e-04,9.99999e-01
4.810655710e-01,3.72150e-04,9.99999e-01,9.99999e-01,3.72150e-04,9.99999e-01
4.834708988e-01,4.34965e-04,9.99999e-01,9.99999e-01,4.34965e-04,9.99999e-01
4.858882533e-01,5.06820e-04,9.99999e-01,9.99999e-01,5.06820e-04,9.99999e-01
4.883176946e-01,5.88763e-04,9.99999e-01,9.99999e-01,5.88763e-04,9.99999e-01
4.907592831e-01,6.81934e-04,9.99999e-01,9.99999e-01,6.81934e-04,9.99999e-01
4.932130795e-01,7.87560e-04,9.99999e-01,9.99999e-01,7.87560e-04,9.99999e-01
4.956791449e-01,9.06964e-04,9.99999e-01,9.99999e-01,9.06964e-04,9.99999e-01
4.981575406e-01,1.04156e-03,9.99999e-01,9.99999e-01,1.04156e-03,9.99999e-01
5.006483283e-01,1.19287e-03,9.99999e-01,9.99999e-01,1.19287e-03,9.99999e-01
5.031515699e-01,1.36250e-03,9.99999e-01,9.99999e-01,1.36250e-03,9.99999e-01
5.056673278e-01,1.55218e-03,9.99999e-01,9.99999e-01,1.55218e-03,9.99999e-01
5.081956644e-01,1.76371e-03,9.99999e-01,9.99999e-01,1.76371e-03,9.99999e-01
5.107366428e-01,1.99902e-03,9.99999e-01,9.99999e-01,1.99902e-03,9.99999e-01
5.132903260e-01,2.26013e-03,9.99999e-01,9.99999e-01,2.26013e-03,9.99999e-01
5.158567776e-01,2.54915e-03,9.99999e-01,9.99999e-01,2.54915e-03,9.99999e-01
5.184360615e-01,2.86830e-03,9.99999e-01,9.99999e-01,2.86830e-03,9.99999e-01
5.210282418e-01,3.21991e-03,9.99999e-01,9.99999e-01,3.21991e-03,9.99999e-01
5.236333830e-01,3.60637e-03,9.99999e-01,9.99999e-01,3.60637e-03,9.99999e-01
5.262515499e-01,4.03017e-03,9.99999e-01,9.99999e-01,4.03017e-03,9.99999e-01
5.288828077e-01,4.49391e-03,9.99999e-01,9.99999e-01,4.49391e-03,9.99999e-01
5.315272217e-01,5.00024e-03,9.99999e-01,9.99999e-01,5.00024e-03,9.99999e-01
5.341848578e-01,5.55190e-03,9.99999e-01,9.99999e-01,5.55190e-03,9.99999e-01
5.368557821e-01,6.15169e-03,9.99999e-01,9.99999e-01,6.15169e-03,9.99999e-01
5.395400610e-01,6.80248e-03,9.99999e-01,9.99999e-01,6.80248e-03,9.99999e-01
5.422377613e-01,7.50719e-03,9.99999e-01,9.99999e-01,7.50719e-03,9.99999e-01
5.449489501e-01,8.26879e-03,9.99999e-01,9.99999e-01,8.26879e-03,9.99999e-01
5.476736949e-01,9.09029e-03,9.99999e-01,9.99999e-01,9.09029e-03,9.99999e-01
5.504120634e-01,9.97472e-03,9.99999e-01,9.99999e-01,9.97472e-03,9.99999e-01
5.531641237e-01,1.09252e-02,9.99999e-01,9.99999e-01,1.09252e-02,9.99999e-01
5.559299443e-01,1.19446e-02,9.99999e-01,9.99999e-01,1.19446e-02,9.99999e-01
5.587095940e-01,1.30363e-02,9.99999e-01,9.99999e-01,1.30363e-02,9.99999e-01
5.615031420e-01,1.42031e-02,9.99999e-01,9.99999e-01,1.42031e-02,9.99999e-01
5.643106577e-01,1.54483e-02,9.99999e-01,9.99999e-01,1.54483e-02,9.99999e-01
5.671322110e-01,1.67746e-02,9.99999e-01,9.99999e-01,1.67746e-02,9.99999e-01
5.699678720e-01,1.81853e-02,9.99999e-01,9.99999e-01,1.81853e-02,9.99999e-01
5.728177114e-01,1.96832e-02,9.99999e-01,9.99999e-01,1.96832e-02,9.99999e-01
5.756818000e-01,2.12712e-02,9.99999e-01,9.99999e-01,2.12712e-02,9.99999e-01
5.785602090e-01,2.29521e-02,9.99999e-01,9.99999e-01,2.29521e-02,9.99999e-01
5.814530100e-01,2.47286e-02,9.99999e-01,9.99999e-01,2.47286e-02,9.99999e-01
5.843602750e-01,2.66034e-02,9.99999e-01,9.99999e-01,2.66034e-02,9.99999e-01
5.872820764e-01,2.85791e-02,9.99999e-01,9.99999e-01,2.85791e-02,9.99999e-01
5.902184868e-01,3.06582e-02,9.99999e-01,9.99999e-01,3.06582e-02,9.99999e-01
5.931695792e-01,3.28428e-02,9.99999e-01,9.99999e-01,3.28428e-02,9.99999e-01
5.961354271e-01,3.51354e-02,9.99999e-01,9.99999e-01,3.51354e-02,9.99999e-01
5.991161043e-01,3.75379e-02,9.99999e-01,9.99999e-01,3.75379e-02,9.99999e-01
6.021116848e-01,4.00523e-02,9.99999e-01,9.99999e-01,4.00523e-02,9.99999e-01
6.051222432e-01,4.26805e-02,9.99999e-01,9.99999e-01,4.26805e-02,9.99999e-01
6.081478544e-01,4.54240e-02,9.99999e-01,9.99999e-01,4.54240e-02,9.99999e-01
6.111885937e-01,4.82845e-02,9.99999e-01,9.99999e-01,4.82845e-02,9.99999e-01
6.142445367e-01,5.12632e-02,9.99999e-01,9.99999e-01,5.12632e-02,9.99999e-01
6.173157594e-01,5.43613e-02,9.99999e-01,9.99999e-01,5.43613e-02,9.99999e-01
6.204023382e-01,5.75799e-02,9.99999e-01,9.99999e-01,5.75799e-02,9.99999e-01
6.235043498e-01,6.09198e-02,9.99999e-01,9.99999e-01,6.09198e-02,9.99999e-01
6.266218716e-01,6.43818e-02,9.99999e-01,9.99999e-01,6.43818e-02,9.99999e-01
6.297549810e-01,6.79661e-02,9.99999e-01,9.99999e-01,6.79661e-02,9.99999e-01
6.329037559e-01,7.16734e-02,9.99999e-01,9.99999e-01,7.16734e-02,9.99999e-01
6.360682746e-01,7.55035e-02,9.99999e-01,9.99999e-01,7.55035e-02,9.99999e-01
6.392486160e-01,7.94566e-02,9.99999e-01,9.99999e-01,7.94566e-02,9.99999e-01
6.424448591e-01,8.35325e-02,9.99999e-01,9.99999e-01,8.35325e-02,9.99999e-01
6.456570834e-01,8.77307e-02,9.99999e-01,9.99999e-01,8.77307e-02,9.99999e-01
6.488853688e-01,9.20506e-02,9.99999e-01,9.99999e-01,9.20506e-02,9.99999e-01
6.521297956e-01,9.64917e-02,9.99999e-01,9.99999e-01,9.64917e-02,9.99999e-01
6.553904446e-01,1.01053e-01,9.99999e-01,9.99999e-01,1.01053e-01,9.99999e-01
6.586673968e-01,1.05733e-01,9.99999e-01,9.99999e-01,1.05733e-01,9.99999e-01
6.619607338e-01,1.10531e-01,9.99999e-01,9.99999e-01,1.10531e-01,9.99999e-01
6.652705375e-01,1.15446e-01,9.99999e-01,9.99999e-01,1.15446e-01,9.99999e-01
6.685968902e-01,1.20476e-01,9.99999e-01,9.99999e-01,1.20476e-01,9.99999e-01
6.719398746e-01,1.25619e-01,9.99999e-01,9.99999e-01,1.25619e-01,9.99999e-01
6.752995740e-01,1.30873e-01,9.99999e-01,9.99999e-01,1.30873e-01,9.99999e-01
6.786760719e-01,1.36237e-01,9.99999e-01,9.99999e-01,1.36237e-01,9.99999e-01
6.820694522e-01,1.41708e-01,9.99999e-01,9.99999e-01,1.41708e-01,9.99999e-01
6.854797995e-01,1.47284e-01,9.99999e-01,9.99999e-01,1.47284e-01,9.99999e-01
6.889071985e-01,1.52963e-01,9.99999e-01,9.99999e-01,1.52963e-01,9.99999e-01
6.923517345e-01,1.58743e-01,9.99999e-01,9.99999e-01,1.58743e-01,9.99999e-01
6.958134932e-01,1.64620e-01,9.99999e-01,9.99999e-01,1.64620e-01,9.99999e-01
6.992925606e-01,1.70592e-01,9.99999e-01,9.99999e-01,1.70592e-01,9.99999e-01
7.027890234e-01,1.76656e-01,9.99999e-01,9.99999e-01,1.76656e-01,9.99999e-01
7.063029686e-01,1.82810e-01,9.99999e-01,9.99999e-01,1.82810e-01,9.99999e-01
7.098344834e-01,1.89050e-01,9.99999e-01,9.99999e-01,1.89050e-01,9.99999e-01
7.133836558e-01,1.95374e-01,9.99999e-01,9.99999e-01,1.95374e-01,9.99999e-01
7.169505741e-01,2.01778e-01,9.99999e-01,9.99999e-01,2.01778e-01,9.99999e-01
7.205353270e-01,2.08259e-01,9.99999e-01,9.99999e-01,2.08259e-01,9.99999e-01
7.241380036e-01,2.14814e-01,9.99999e-01,9.99999e-01,2.14814e-01,9.99999e-01
7.277586936e-01,2.21440e-01,9.99999e-01,9.99999e-01,2.21440e-01,9.99999e-01
7.313974871e-01,2.28134e-01,9.99999e-01,9.99999e-01,2.28134e-01,9.99999e-01
7.350544745e-01,2.34891e-01,9.99999e-01,9.99999e-01,2.34891e-01,9.99999e-01
7.387297469e-01,2.41710e-01,9.99999e-01,9.99999e-01,2.41710e-01,9.99999e-01
7.424233956e-01,2.48585e-01,9.99999e-01,9.99999e-01,2.48585e-01,9.99999e-01
7.461355126e-01,2.55515e-01,9.99999e-01,9.99999e-01,2.55515e-01,9.99999e-01
7.498661902e-01,2.62495e-01,9.99999e-01,9.99999e-01,2.62495e-01,9.99999e-01
7.536155211e-01,2.69522e-01,9.99999e-01,9.99999e-01,2.69522e-01,9.99999e-01
7.573835987e-01,2.76594e-01,9.99999e-01,9.99999e-01,2.76594e-01,9.99999e-01
7.611705167e-01,2.83705e-01,9.99999e-01,9.99999e-01,2.83705e-01,9.99999e-01
7.649763693e-01,2.90854e-01,9.99999e-01,9.99999e-01,2.90854e-01,9.99999e-01
7.688012511e-01,2.98036e-01,9.99999e-01,9.99999e-01,2.98036e-01,9.99999e-01
7.726452574e-01,3.05248e-01,9.99999e-01,9.99999e-01,3.05248e-01,9.99999e-01
7.765084837e-01,3.12487e-01,9.99999e-01,9.99999e-01,3.12487e-01,9.99999e-01
7.803910261e-01,3.03744e-01,9.99999e-01,9.49942e-01,3.19750e-01,9.99999e-01
7.842929812e-01,2.59121e-01,9.99999e-01,7.92337e-01,3.27033e-01,9.99999e-01
7.882144461e-01,2.60775e-01,9.99999e-01,7.79984e-01,3.34333e-01,9.99999e-01
7.921555184e-01,2.94878e-01,9.99999e-01,8.63106e-01,3.41647e-01,9.99999e-01
7.961162960e-01,3.16151e-01,9.99999e-01,9.05948e-01,3.48972e-01,9.99999e-01
8.000968774e-01,3.37720e-01,9.99999e-01,9.47839e-01,3.56305e-01,9.99999e-01
8.040973618e-01,3.53692e-01,9.99999e-01,9.72635e-01,3.63643e-01,9.99999e-01
8.081178486e-01,3.66284e-01,9.99999e-01,9.87335e-01,3.70982e-01,9.99999e-01
8.121584379e-01,3.76836e-01,9.99999e-01,9.96077e-01,3.78320e-01,9.99999e-01
8.162192301e-01,3.85319e-01,9.99999e-01,9.99132e-01,3.85653e-01,9.99999e-01
8.203003262e-01,3.92975e-01,9.99999e-01,9.99986e-01,3.92980e-01,9.99999e-01
8.244018279e-01,4.00298e-01,9.99999e-01,9.99999e-01,4.00298e-01,9.99999e-01
8.285238370e-01,4.07603e-01,9.99999e-01,9.99999e-01,4.07603e-01,9.99999e-01
8.326664562e-01,4.14893e-01,9.99999e-01,9.99999e-01,4.14893e-01,9.99999e-01
8.368297885e-01,4.22165e-01,9.99999e-01,9.99999e-01,4.22165e-01,9.99999e-01
8.410139374e-01,4.29418e-01,9.99999e-01,9.99999e-01,4.29418e-01,9.99999e-01
8.452190071e-01,4.36648e-01,9.99999e-01,9.99999e-01,4.36648e-01,9.99999e-01
8.494451021e-01,4.43854e-01,9.99999e-01,9.99999e-01,4.43854e-01,9.99999e-01
8.536923276e-01,4.51032e-01,9.99999e-01,9.99999e-01,4.51032e-01,9.99999e-01
8.579607893e-01,4.58182e-01,9.99999e-01,9.99999e-01,4.58182e-01,9.99999e-01
8.622505932e-01,4.65300e-01,9.99999e-01,9.99999e-01,4.65300e-01,9.99999e-01
8.665618462e-01,4.27063e-01,9.99999e-01,9.04056e-01,4.72385e-01,9.99999e-01
8.708946554e-01,2.67156e-01,9.99999e-01,5.57229e-01,4.79435e-01,9.99999e-01
8.752491287e-01,3.02210e-01,9.99999e-01,6.21258e-01,4.86448e-01,9.99999e-01
8.796253743e-01,3.79004e-01,9.99999e-01,7.68114e-01,4.93421e-01,9.99999e-01
8.840235012e-01,4.36064e-01,9.99999e-01,8.71509e-01,5.00354e-01,9.99999e-01
8.884436187e-01,4.80453e-01,9.99999e-01,9.47180e-01,5.07245e-01,9.99999e-01
8.928858368e-01,5.02906e-01,9.99999e-01,9.78242e-01,5.14091e-01,9.99999e-01
8.973502660e-01,5.18120e-01,9.99999e-01,9.94677e-01,5.20892e-01,9.99999e-01
9.018370173e-01,5.27336e-01,9.99999e-01,9.99412e-01,5.27646e-01,9.99999e-01
9.063462024e-01,5.26350e-01,9.99999e-01,9.85023e-01,5.34352e-01,9.99999e-01
9.108779334e-01,5.22556e-01,9.99999e-01,9.65892e-01,5.41008e-01,9.99999e-01
9.154323231e-01,5.43176e-01,9.99999e-01,9.91898e-01,5.47612e-01,9.99999e-01
9.200094847e-01,4.94296e-01,9.99999e-01,8.91965e-01,5.54165e-01,9.99999e-01
9.246095321e-01,4.73206e-01,9.99999e-01,8.44009e-01,5.60664e-01,9.99999e-01
9.292325798e-01,4.96798e-01,9.99999e-01,8.76018e-01,5.67109e-01,9.99999e-01
9.338787427e-01,5.04466e-01,9.99999e-01,8.79629e-01,5.73498e-01,9.99999e-01
9.385481364e-01,5.27564e-01,9.99999e-01,9.09856e-01,5.79832e-01,9.99999e-01
9.432408771e-01,5.53139e-01,9.99999e-01,9.43750e-01,5.86107e-01,9.99999e-01
9.479570815e-01,5.74984e-01,9.99999e-01,9.70723e-01,5.92325e-01,9.99999e-01
9.526968669e-01,5.89977e-01,9.99999e-01,9.85784e-01,5.98484e-01,9.99999e-01
9.574603512e-01,6.00894e-01,9.99999e-01,9.93896e-01,6.04584e-01,9.99999e-01
9.622476530e-01,6.09459e-01,9.99999e-01,9.98092e-01,6.10623e-01,9.99999e-01
9.670588912e-01,6.16250e-01,9.99999e-01,9.99428e-01,6.16602e-01,9.99999e-01
9.718941857e-01,6.22494e-01,9.99999e-01,9.99959e-01,6.22519e-01,9.99999e-01
9.767536566e-01,6.28375e-01,9.99999e-01,9.99999e-01,6.28375e-01,9.99999e-01
9.816374249e-01,6.34168e-01,9.99999e-01,9.99999e-01,6.34168e-01,9.99999e-01
9.865456120e-01,6.39899e-01,9.99999e-01,9.99999e-01,6.39899e-01,9.99999e-01
9.914783401e-01,6.45567e-01,9.99999e-01,9.99999e-01,6.45567e-01,9.99999e-01
9.964357318e-01,6.51171e-01,9.99999e-01,9.99999e-01,6.51171e-01,9.99999e-01
1.001417910e+00,6.56712e-01,9.99999e-01,9.99999e-01,6.56712e-01,9.99999e-01
1.006425000e+00,6.62190e-01,9.99999e-01,9.99999e-01,6.62190e-01,9.99999e-01
1.011457125e+00,6.67603e-01,9.99999e-01,9.99999e-01,6.67603e-01,9.99999e-01
1.016514411e+00,6.72953e-01,9.99999e-01,9.99999e-01,6.72953e-01,9.99999e-01
1.021596983e+00,6.78184e-01,9.99999e-01,9.99918e-01,6.78238e-01,9.99999e-01
1.026704968e+00,6.79438e-01,9.99999e-01,9.94115e-01,6.83460e-01,9.99999e-01
1.031838492e+00,6.46958e-01,9.99999e-01,9.39502e-01,6.88617e-01,9.99999e-01
1.036997685e+00,6.99912e-02,9.99999e-01,1.00894e-01,6.93710e-01,9.99999e-01
1.042182673e+00,2.91703e-02,9.99999e-01,4.17470e-02,6.98739e-01,9.99999e-01
1.047393587e+00,4.51778e-02,9.99999e-01,6.42000e-02,7.03705e-01,9.99999e-01
1.052630555e+00,2.48684e-04,9.99999e-01,3.50947e-04,7.08606e-01,9.99999e-01
1.057893707e+00,7.88782e-04,9.99999e-01,1.10560e-03,7.13444e-01,9.99999e-01
1.063183176e+00,4.53534e-03,9.99999e-01,6.31470e-03,7.18218e-01,9.99999e-01
1.068499092e+00,1.91899e-02,9.99999e-01,2.65446e-02,7.22929e-01,9.99999e-01
1.073841587e+00,7.26589e-02,9.99999e-01,9.98642e-02,7.27576e-01,9.99999e-01
1.079210795e+00,1.70284e-01,9.99999e-01,2.32576e-01,7.32162e-01,9.99999e-01
1.084606849e+00,3.27649e-01,9.99999e-01,4.44761e-01,7.36684e-01,9.99999e-01
1.090029883e+00,4.86043e-01,9.99999e-01,6.55800e-01,7.41144e-01,9.99999e-01
1.095480033e+00,6.05490e-01,9.99999e-01,8.12146e-01,7.45543e-01,9.99999e-01
1.100957433e+00,6.78251e-01,9.99999e-01,9.04479e-01,7.49879e-01,9.99999e-01
1.106462220e+00,7.23480e-01,9.99999e-01,9.59324e-01,7.54155e-01,9.99999e-01
1.111994531e+00,7.46784e-01,9.99999e-01,9.84721e-01,7.58370e-01,9.99999e-01
1.117554504e+00,7.59667e-01,9.99999e-01,9.96251e-01,7.62524e-01,9.99999e-01
1.123142276e+00,7.66430e-01,9.99999e-01,9.99753e-01,7.66619e-01,9.99999e-01
1.128757988e+00,7.70654e-01,9.99999e-01,9.99999e-01,7.70654e-01,9.99999e-01
1.134401778e+00,7.74630e-01,9.99999e-01,9.99999e-01,7.74630e-01,9.99999e-01
1.140073787e+00,7.78547e-01,9.99999e-01,9.99999e-01,7.78547e-01,9.99999e-01
1.145774156e+00,7.82406e-01,9.99999e-01,9.99999e-01,7.82406e-01,9.99999e-01
1.151503026e+00,7.86207e-01,9.99999e-01,9.99999e-01,7.86207e-01,9.99999e-01
1.157260541e+00,7.89952e-01,9.99999e-01,9.99999e-01,7.89952e-01,9.99999e-01
1.163046844e+00,7.93639e-01,9.99999e-01,9.99999e-01,7.93639e-01,9.99999e-01
1.168862078e+00,7.97271e-01,9.99999e-01,9.99999e-01,7.97271e-01,9.99999e-01
1.174706389e+00,8.00847e-01,9.99999e-01,9.99999e-01,8.00847e-01,9.99999e-01
1.180579921e+00,8.04368e-01,9.99999e-01,9.99999e-01,8.04368e-01,9.99999e-01
1.186482820e+00,8.07825e-01,9.99999e-01,9.99988e-01,8.07834e-01,9.99999e-01
1.192415234e+00,7.94474e-01,9.99999e-01,9.79325e-01,8.11246e-01,9.99999e-01
1.198377311e+00,4.46641e-01,9.99999e-01,5.48291e-01,8.14605e-01,9.99999e-01
1.204369197e+00,2.49620e-16,9.99999e-01,3.05192e-16,8.17911e-01,9.99999e-01
1.210391043e+00,9.75420e-63,9.99999e-01,1.18785e-62,8.21165e-01,9.99999e-01
1.216442998e+00,1.94009e-54,9.99999e-01,2.35343e-54,8.24367e-01,9.99999e-01
1.222525213e+00,1.22554e-53,9.99999e-01,1.48098e-53,8.27518e-01,9.99999e-01
1.228637839e+00,1.60230e-41,9.99999e-01,1.92904e-41,8.30618e-01,9.99999e-01
1.234781029e+00,2.55986e-26,9.99999e-01,3.07059e-26,8.33669e-01,9.99999e-01
1.240954934e+00,1.18659e-17,9.99999e-01,1.41823e-17,8.36670e-01,9.99999e-01
1.247159708e+00,3.65609e-09,9.99999e-01,4.35444e-09,8.39622e-01,9.99999e-01
1.253395507e+00,4.33139e-06,9.99999e-01,5.14095e-06,8.42526e-01,9.99999e-01
1.259662485e+00,7.81625e-04,9.99999e-01,9.24581e-04,8.45382e-01,9.99999e-01
1.265960797e+00,1.56765e-02,9.99999e-01,1.84822e-02,8.48192e-01,9.99999e-01
1.272290601e+00,1.48259e-01,9.99999e-01,1.74227e-01,8.50955e-01,9.99999e-01
1.278652054e+00,1.26500e-01,9.99999e-01,1.48184e-01,8.53672e-01,9.99999e-01
1.285045314e+00,1.05922e-03,9.99999e-01,1.23691e-03,8.56344e-01,9.99999e-01
1.291470541e+00,6.06878e-08,9.99999e-01,7.06517e-08,8.58971e-01,9.99999e-01
1.297927893e+00,5.22130e-04,9.99999e-01,6.06032e-04,8.61554e-01,9.99999e-01
1.304417533e+00,3.53942e-02,9.99999e-01,4.09610e-02,8.64094e-01,9.99999e-01
1.310939621e+00,8.26771e-03,9.99999e-01,9.54050e-03,8.66591e-01,9.99999e-01
1.317494319e+00,6.85426e-22,9.99999e-01,7.88711e-22,8.69045e-01,9.99999e-01
1.324081790e+00,9.49152e-15,9.99999e-01,1.08915e-14,8.71458e-01,9.99999e-01
1.330702199e+00,9.56860e-09,9.99999e-01,1.09502e-08,8.73829e-01,9.99999e-01
1.337355710e+00,2.68482e-08,9.99999e-01,3.06430e-08,8.76160e-01,9.99999e-01
1.344042489e+00,9.78909e-09,9.99999e-01,1.11436e-08,8.78451e-01,9.99999e-01
1.350762701e+00,5.39496e-09,9.99999e-01,6.12574e-09,8.80703e-01,9.99999e-01
1.357516515e+00,6.81249e-06,9.99999e-01,7.71589e-06,8.82916e-01,9.99999e-01
1.364304097e+00,3.05052e-04,9.99999e-01,3.44656e-04,8.85090e-01,9.99999e-01
1.371125618e+00,1.45538e-02,9.99999e-01,1.64037e-02,8.87227e-01,9.99999e-01
1.377981246e+00,2.82052e-02,9.99999e-01,3.17152e-02,8.89326e-01,9.99999e-01
1.384871152e+00,1.19636e-01,9.99999e-01,1.34212e-01,8.91389e-01,9.99999e-01
1.391795508e+00,1.39688e-01,9.99999e-01,1.56352e-01,8.93415e-01,9.99999e-01
1.398754485e+00,2.82930e-01,9.99999e-01,3.15979e-01,8.95406e-01,9.99999e-01
1.405748258e+00,3.85400e-01,9.99999e-01,4.29481e-01,8.97363e-01,9.99999e-01
1.412776999e+00,5.26545e-01,9.99999e-01,5.85516e-01,8.99284e-01,9.99999e-01
1.419840884e+00,4.72314e-01,9.99999e-01,5.24110e-01,9.01172e-01,9.99999e-01
1.426940089e+00,3.07045e-02,9.99999e-01,3.40018e-02,9.03026e-01,9.99999e-01
1.434074789e+00,0.00000e+00,9.99999e-01,0.00000e+00,9.04847e-01,9.99999e-01
1.441245163e+00,0.00000e+00,9.99999e-01,0.00000e+00,9.06636e-01,9.99999e-01
1.448451389e+00,0.00000e+00,9.99999e-01,0.00000e+00,9.08393e-01,9.99999e-01
1.455693646e+00,0.00000e+00,9.99999e-01,0.00000e+00,9.10119e-01,9.99999e-01
1.462972114e+00,9.58302e-248,9.99999e-01,1.05098e-247,9.11813e-01,9.99999e-01
1.470286975e+00,2.89231e-103,9.99999e-01,3.16626e-103,9.13477e-01,9.99999e-01
