#,Wave/freq,Total,N2,CO2,Rayleigh,CIA
4.000000000e-01,1.06097e-02,9.99999e-01,9.99999e-01,1.06097e-02,9.99999e-01
4.020000000e-01,1.16075e-02,9.99999e-01,9.99999e-01,1.16075e-02,9.99999e-01
4.040100000e-01,1.26755e-02,9.99999e-01,9.99999e-01,1.26755e-02,9.99999e-01
4.060300500e-01,1.38177e-02,9.99999e-01,9.99999e-01,1.38177e-02,9.99999e-01
4.080602003e-01,1.50372e-02,9.99999e-01,9.99999e-01,1.50372e-02,9.99999e-01
4.101005013e-01,1.63370e-02,9.99999e-01,9.99999e-01,1.63370e-02,9.99999e-01
4.121510038e-01,1.77202e-02,9.99999e-01,9.99999e-01,1.77202e-02,9.99999e-01
4.142117588e-01,1.91895e-02,9.99999e-01,9.99999e-01,1.91895e-02,9.99999e-01
4.162828176e-01,2.07481e-02,9.99999e-01,9.99999e-01,2.07481e-02,9.99999e-01
4.183642317e-01,2.23987e-02,9.99999e-01,9.99999e-01,2.23987e-02,9.99999e-01
4.204560528e-01,2.41440e-02,9.99999e-01,9.99999e-01,2.41440e-02,9.99999e-01
4.225583331e-01,2.59868e-02,9.99999e-01,9.99999e-01,2.59868e-02,9.99999e-01
4.246711247e-01,2.79297e-02,9.99999e-01,9.99999e-01,2.79297e-02,9.99999e-01
4.267944804e-01,2.99750e-02,9.99999e-01,9.99999e-01,2.99750e-02,9.99999e-01
4.289284528e-01,3.21253e-02,9.99999e-01,9.99999e-01,3.21253e-02,9.99999e-01
4.310730950e-01,3.43828e-02,9.99999e-01,9.99999e-01,3.43828e-02,9.99999e-01
4.332284605e-01,3.67495e-02,9.99999e-01,9.99999e-01,3.67495e-02,9.99999e-01
4.353946028e-01,3.92276e-02,9.99999e-01,9.99999e-01,3.92276e-02,9.99999e-01
4.375715758e-01,4.18188e-02,9.99999e-01,9.99999e-01,4.18188e-02,9.99999e-01
4.397594337e-01,4.45249e-02,9.99999e-01,9.99999e-01,4.45249e-02,9.99999e-01
4.419582309e-01,4.73474e-02,9.99999e-01,9.99999e-01,4.73474e-02,9.99999e-01
4.441680220e-01,5.02878e-02,9.99999e-01,9.99999e-01,5.02878e-02,9.99999e-01
4.463888621e-01,5.33472e-02,9.99999e-01,9.99999e-01,5.33472e-02,9.99999e-01
4.486208064e-01,5.65268e-02,9.99999e-01,9.99999e-01,5.65268e-02,9.99999e-01
4.508639105e-01,5.98275e-02,9.99999e-01,9.99999e-01,5.98275e-02,9.99999e-01
4.531182300e-01,6.32499e-02,9.99999e-01,9.99999e-01,6.32499e-02,9.99999e-01
4.553838212e-01,6.67947e-02,9.99999e-01,9.99999e-01,6.67947e-02,9.99999e-01
4.576607403e-01,7.04622e-02,9.99999e-01,9.99999e-01,7.04622e-02,9.99999e-01
4.599490440e-01,7.42526e-02,9.99999e-01,9.99999e-01,7.42526e-02,9.99999e-01
4.622487892e-01,7.81660e-02,9.99999e-01,9.99999e-01,7.81660e-02,9.99999e-01
4.645600332e-01,8.22022e-02,9.99999e-01,9.99999e-01,8.22022e-02,9.99999e-01
4.668828333e-01,8.63609e-02,9.99999e-01,9.99999e-01,8.63609e-02,9.99999e-01
4.692172475e-01,9.06416e-02,9.99999e-01,9.99999e-01,9.06416e-02,9.99999e-01
4.715633337e-01,9.50436e-02,9.99999e-01,9.99999e-01,9.50436e-02,9.99999e-01
4.739211504e-01,9.95661e-02,9.99999e-01,9.99999e-01,9.95661e-02,9.99999e-01
4.762907561e-01,1.04208e-01,9.99999e-01,9.99999e-01,1.04208e-01,9.99999e-01
4.786722099e-01,1.08968e-01,9.99999e-01,9.99999e-01,1.08968e-01,9.99999e-01
4.810655710e-01,1.13846e-01,9.99999e-01,9.99999e-01,1.13846e-01,9.99999e-01
4.834708988e-01,1.18838e-01,9.99999e-01,9.99999e-01,1.18838e-01,9.99999e-01
4.858882533e-01,1.23945e-01,9.99999e-01,9.99999e-01,1.23945e-01,9.99999e-01
4.883176946e-01,1.29163e-01,9.99999e-01,9.99999e-01,1.29163e-01,9.99999e-01
4.907592831e-01,1.34492e-01,9.99999e-01,9.99999e-01,1.34492e-01,9.99999e-01
4.932130795e-01,1.39929e-01,9.99999e-01,9.99999e-01,1.39929e-01,9.99999e-01
4.956791449e-01,1.45471e-01,9.99999e-01,9.99999e-01,1.45471e-01,9.99999e-01
4.981575406e-01,1.51117e-01,9.99999e-01,9.99999e-01,1.51117e-01,9.99999e-01
5.006483283e-01,1.56865e-01,9.99999e-01,9.99999e-01,1.56865e-01,9.99999e-01
5.031515699e-01,1.62710e-01,9.99999e-01,9.99999e-01,1.62710e-01,9.99999e-01
5.056673278e-01,1.68652e-01,9.99999e-01,9.99999e-01,1.68652e-01,9.99999e-01
5.081956644e-01,1.74687e-01,9.99999e-01,9.99999e-01,1.74687e-01,9.99999e-01
5.107366428e-01,1.80812e-01,9.99999e-01,9.99999e-01,1.80812e-01,9.99999e-01
5.132903260e-01,1.87025e-01,9.99999e-01,9.99999e-01,1.87025e-01,9.99999e-01
5.158567776e-01,1.93322e-01,9.99999e-01,9.99999e-01,1.93322e-01,9.99999e-01
5.184360615e-01,1.99700e-01,9.99999e-01,9.99999e-01,1.99700e-01,9.99999e-01
5.210282418e-01,2.06157e-01,9.99999e-01,9.99999e-01,2.06157e-01,9.99999e-01
5.236333830e-01,2.12689e-01,9.99999e-01,9.99999e-01,2.12689e-01,9.99999e-01
5.262515499e-01,2.19292e-01,9.99999e-01,9.99999e-01,2.19292e-01,9.99999e-01
5.288828077e-01,2.25964e-01,9.99999e-01,9.99999e-01,2.25964e-01,9.99999e-01
5.315272217e-01,2.32701e-01,9.99999e-01,9.99999e-01,2.32701e-01,9.99999e-01
5.341848578e-01,2.39500e-01,9.99999e-01,9.99999e-01,2.39500e-01,9.99999e-01
5.368557821e-01,2.46358e-01,9.99999e-01,9.99999e-01,2.46358e-01,9.99999e-01
5.395400610e-01,2.53270e-01,9.99999e-01,9.99999e-01,2.53270e-01,9.99999e-01
5.422377613e-01,2.60235e-01,9.99999e-01,9.99999e-01,2.60235e-01,9.99999e-01
5.449489501e-01,2.67247e-01,9.99999e-01,9.99999e-01,2.67247e-01,9.99999e-01
5.476736949e-01,2.74304e-01,9.99999e-01,9.99999e-01,2.74304e-01,9.99999e-01
5.504120634e-01,2.81403e-01,9.99999e-01,9.99999e-01,2.81403e-01,9.99999e-01
5.531641237e-01,2.88540e-01,9.99999e-01,9.99999e-01,2.88540e-01,9.99999e-01
5.559299443e-01,2.95712e-01,9.99999e-01,9.99999e-01,2.95712e-01,9.99999e-01
5.587095940e-01,3.02915e-01,9.99999e-01,9.99999e-01,3.02915e-01,9.99999e-01
5.615031420e-01,3.10145e-01,9.99999e-01,9.99999e-01,3.10145e-01,9.99999e-01
5.643106577e-01,3.17401e-01,9.99999e-01,9.99999e-01,3.17401e-01,9.99999e-01
5.671322110e-01,3.24678e-01,9.99999e-01,9.99999e-01,3.24678e-01,9.99999e-01
5.699678720e-01,3.31973e-01,9.99999e-01,9.99999e-01,3.31973e-01,9.99999e-01
5.728177114e-01,3.39283e-01,9.99999e-01,9.99999e-01,3.39283e-01,9.99999e-01
5.756818000e-01,3.46605e-01,9.99999e-01,9.99999e-01,3.46605e-01,9.99999e-01
5.785602090e-01,3.53935e-01,9.99999e-01,9.99999e-01,3.53935e-01,9.99999e-01
5.814530100e-01,3.61272e-01,9.99999e-01,9.99999e-01,3.61272e-01,9.99999e-01
5.843602750e-01,3.68611e-01,9.99999e-01,9.99999e-01,3.68611e-01,9.99999e-01
5.872820764e-01,3.75949e-01,9.99999e-01,9.99999e-01,3.75949e-01,9.99999e-01
5.902184868e-01,3.83285e-01,9.99999e-01,9.99999e-01,3.83285e-01,9.99999e-01
5.931695792e-01,3.90614e-01,9.99999e-01,9.99999e-01,3.90614e-01,9.99999e-01
5.961354271e-01,3.97935e-01,9.99999e-01,9.99999e-01,3.97935e-01,9.99999e-01
5.991161043e-01,4.05244e-01,9.99999e-01,9.99999e-01,4.05244e-01,9.99999e-01
6.021116848e-01,4.12539e-01,9.99999e-01,9.99999e-01,4.12539e-01,9.99999e-01
6.051222432e-01,4.19818e-01,9.99999e-01,9.99999e-01,4.19818e-01,9.99999e-01
6.081478544e-01,4.27077e-01,9.99999e-01,9.99999e-01,4.27077e-01,9.99999e-01
6.111885937e-01,4.34315e-01,9.99999e-01,9.99999e-01,4.34315e-01,9.99999e-01
6.142445367e-01,4.41528e-01,9.99999e-01,9.99999e-01,4.41528e-01,9.99999e-01
6.173157594e-01,4.48716e-01,9.99999e-01,9.99999e-01,4.48716e-01,9.99999e-01
6.204023382e-01,4.55875e-01,9.99999e-01,9.99999e-01,4.55875e-01,9.99999e-01
6.235043498e-01,4.63004e-01,9.99999e-01,9.99999e-01,4.63004e-01,9.99999e-01
6.266218716e-01,4.70100e-01,9.99999e-01,9.99999e-01,4.70100e-01,9.99999e-01
6.297549810e-01,4.77161e-01,9.99999e-01,9.99999e-01,4.77161e-01,9.99999e-01
6.329037559e-01,4.84186e-01,9.99999e-01,9.99999e-01,4.84186e-01,9.99999e-01
6.360682746e-01,4.91173e-01,9.99999e-01,9.99999e-01,4.91173e-01,9.99999e-01
6.392486160e-01,4.98119e-01,9.99999e-01,9.99999e-01,4.98119e-01,9.99999e-01
6.424448591e-01,5.05023e-01,9.99999e-01,9.99999e-01,5.05023e-01,9.99999e-01
6.456570834e-01,5.11884e-01,9.99999e-01,9.99999e-01,5.11884e-01,9.99999e-01
6.488853688e-01,5.18700e-01,9.99999e-01,9.99999e-01,5.18700e-01,9.99999e-01
6.521297956e-01,5.25469e-01,9.99999e-01,9.99999e-01,5.25469e-01,9.99999e-01
6.553904446e-01,5.32191e-01,9.99999e-01,9.99999e-01,5.32191e-01,9.99999e-01
6.586673968e-01,5.38863e-01,9.99999e-01,9.99999e-01,5.38863e-01,9.99999e-01
6.619607338e-01,5.45484e-01,9.99999e-01,9.99999e-01,5.45484e-01,9.99999e-01
6.652705375e-01,5.52054e-01,9.99999e-01,9.99999e-01,5.52054e-01,9.99999e-01
6.685968902e-01,5.58570e-01,9.99999e-01,9.99999e-01,5.58570e-01,9.99999e-01
6.719398746e-01,5.65033e-01,9.99999e-01,9.99999e-01,5.65033e-01,9.99999e-01
6.752995740e-01,5.71440e-01,9.99999e-01,9.99999e-01,5.71440e-01,9.99999e-01
6.786760719e-01,5.77792e-01,9.99999e-01,9.99999e-01,5.77792e-01,9.99999e-01
6.820694522e-01,5.84086e-01,9.99999e-01,9.99999e-01,5.84086e-01,9.99999e-01
6.854797995e-01,5.90323e-01,9.99999e-01,9.99999e-01,5.90323e-01,9.99999e-01
6.889071985e-01,5.96501e-01,9.99999e-01,9.99999e-01,5.96501e-01,9.99999e-01
6.923517345e-01,6.02620e-01,9.99999e-01,9.99999e-01,6.02620e-01,9.99999e-01
6.958134932e-01,6.08679e-01,9.99999e-01,9.99999e-01,6.08679e-01,9.99999e-01
6.992925606e-01,6.14677e-01,9.99999e-01,9.99999e-01,6.14677e-01,9.99999e-01
7.027890234e-01,6.20614e-01,9.99999e-01,9.99999e-01,6.20614e-01,9.99999e-01
7.063029686e-01,6.26490e-01,9.99999e-01,9.99999e-01,6.26490e-01,9.99999e-01
7.098344834e-01,6.32303e-01,9.99999e-01,9.99999e-01,6.32303e-01,9.99999e-01
7.133836558e-01,6.38054e-01,9.99999e-01,9.99999e-01,6.38054e-01,9.99999e-01
7.169505741e-01,6.43742e-01,9.99999e-01,9.99999e-01,6.43742e-01,9.99999e-01
7.205353270e-01,6.49367e-01,9.99999e-01,9.99999e-01,6.49367e-01,9.99999e-01
7.241380036e-01,6.54929e-01,9.99999e-01,9.99999e-01,6.54929e-01,9.99999e-01
7.277586936e-01,6.60427e-01,9.99999e-01,9.99999e-01,6.60427e-01,9.99999e-01
7.313974871e-01,6.65861e-01,9.99999e-01,9.99999e-01,6.65861e-01,9.99999e-01
7.350544745e-01,6.71231e-01,9.99999e-01,9.99999e-01,6.71231e-01,9.99999e-01
7.387297469e-01,6.76538e-01,9.99999e-01,9.99999e-01,6.76538e-01,9.99999e-01
7.424233956e-01,6.81780e-01,9.99999e-01,9.99999e-01,6.81780e-01,9.99999e-01
7.461355126e-01,6.86958e-01,9.99999e-01,9.99999e-01,6.86958e-01,9.99999e-01
7.498661902e-01,6.92072e-01,9.99999e-01,9.99999e-01,6.92072e-01,9.99999e-01
7.536155211e-01,6.97122e-01,9.99999e-01,9.99999e-01,6.97122e-01,9.99999e-01
7.573835987e-01,7.02107e-01,9.99999e-01,9.99999e-01,7.02107e-01,9.99999e-01
7.611705167e-01,7.07029e-01,9.99999e-01,9.99999e-01,7.07029e-01,9.99999e-01
7.649763693e-01,7.11888e-01,9.99999e-01,9.99999e-01,7.11888e-01,9.99999e-01
7.688012511e-01,7.16682e-01,9.99999e-01,9.99999e-01,7.16682e-01,9.99999e-01
7.726452574e-01,7.21414e-01,9.99999e-01,9.99999e-01,7.21414e-01,9.99999e-01
7.765084837e-01,7.26082e-01,9.99999e-01,9.99999e-01,7.26082e-01,9.99999e-01
7.803910261e-01,7.19655e-01,9.99999e-01,9.84901e-01,7.30687e-01,9.99999e-01
7.842929812e-01,6.87846e-01,9.99999e-01,9.35552e-01,7.35230e-01,9.99999e-01
7.882144461e-01,6.88784e-01,9.99999e-01,9.31154e-01,7.39710e-01,9.99999e-01
7.921555184e-01,7.14335e-01,9.99999e-01,9.59962e-01,7.44128e-01,9.99999e-01
7.961162960e-01,7.28264e-01,9.99999e-01,9.72984e-01,7.48485e-01,9.99999e-01
8.000968774e-01,7.41708e-01,9.99999e-01,9.85290e-01,7.52780e-01,9.99999e-01
8.040973618e-01,7.51217e-01,9.99999e-01,9.92340e-01,7.57015e-01,9.99999e-01
8.081178486e-01,7.58515e-01,9.99999e-01,9.96487e-01,7.61189e-01,9.99999e-01
8.121584379e-01,7.64467e-01,9.99999e-01,9.98908e-01,7.65303e-01,9.99999e-01
8.162192301e-01,7.69171e-01,9.99999e-01,9.99758e-01,7.69357e-01,9.99999e-01
8.203003262e-01,7.73349e-01,9.99999e-01,9.99995e-01,7.73352e-01,9.99999e-01
8.244018279e-01,7.77288e-01,9.99999e-01,9.99999e-01,7.77288e-01,9.99999e-01
8.285238370e-01,7.81166e-01,9.99999e-01,9.99999e-01,7.81166e-01,9.99999e-01
8.326664562e-01,7.84986e-01,9.99999e-01,9.99999e-01,7.84986e-01,9.99999e-01
8.368297885e-01,7.88748e-01,9.99999e-01,9.99999e-01,7.88748e-01,9.99999e-01
8.410139374e-01,7.92454e-01,9.99999e-01,9.99999e-01,7.92454e-01,9.99999e-01
8.452190071e-01,7.96104e-01,9.99999e-01,9.99999e-01,7.96104e-01,9.99999e-01
8.494451021e-01,7.99697e-01,9.99999e-01,9.99999e-01,7.99697e-01,9.99999e-01
8.536923276e-01,8.03236e-01,9.99999e-01,9.99999e-01,8.03236e-01,9.99999e-01
8.579607893e-01,8.06720e-01,9.99999e-01,9.99999e-01,8.06720e-01,9.99999e-01
8.622505932e-01,8.10150e-01,9.99999e-01,9.99999e-01,8.10150e-01,9.99999e-01
8.665618462e-01,7.80117e-01,9.99999e-01,9.58933e-01,8.13526e-01,9.99999e-01
8.708946554e-01,6.87982e-01,9.99999e-01,8.42238e-01,8.16849e-01,9.99999e-01
8.752491287e-01,7.15425e-01,9.99999e-01,8.72342e-01,8.20119e-01,9.99999e-01
8.796253743e-01,7.64486e-01,9.99999e-01,9.28519e-01,8.23338e-01,9.99999e-01
8.840235012e-01,7.95512e-01,9.99999e-01,9.62500e-01,8.26505e-01,9.99999e-01
8.884436187e-01,8.17217e-01,9.99999e-01,9.85047e-01,8.29622e-01,9.99999e-01
8.928858368e-01,8.27636e-01,9.99999e-01,9.93931e-01,8.32689e-01,9.99999e-01
8.973502660e-01,8.34467e-01,9.99999e-01,9.98517e-01,8.35706e-01,9.99999e-01
9.018370173e-01,8.38536e-01,9.99999e-01,9.99836e-01,8.38673e-01,9.99999e-01
9.063462024e-01,8.38115e-01,9.99999e-01,9.95866e-01,8.41593e-01,9.99999e-01
9.108779334e-01,8.36395e-01,9.99999e-01,9.90443e-01,8.44465e-01,9.99999e-01
9.154323231e-01,8.45373e-01,9.99999e-01,9.97737e-01,8.47289e-01,9.99999e-01
9.200094847e-01,8.21875e-01,9.99999e-01,9.66834e-01,8.50067e-01,9.99999e-01
9.246095321e-01,8.13596e-01,9.99999e-01,9.54029e-01,8.52799e-01,9.99999e-01
9.292325798e-01,8.24535e-01,9.99999e-01,9.63821e-01,8.55486e-01,9.99999e-01
9.338787427e-01,8.28024e-01,9.99999e-01,9.64919e-01,8.58127e-01,9.99999e-01
9.385481364e-01,8.38498e-01,9.99999e-01,9.74176e-01,8.60724e-01,9.99999e-01
9.432408771e-01,8.49560e-01,9.99999e-01,9.84109e-01,8.63278e-01,9.99999e-01
9.479570815e-01,8.58718e-01,9.99999e-01,9.91832e-01,8.65789e-01,9.99999e-01
9.526968669e-01,8.64827e-01,9.99999e-01,9.96048e-01,8.68257e-01,9.99999e-01
9.574603512e-01,8.69211e-01,9.99999e-01,9.98308e-01,8.70683e-01,9.99999e-01
9.622476530e-01,8.72607e-01,9.99999e-01,9.99471e-01,8.73068e-01,9.99999e-01
9.670588912e-01,8.75273e-01,9.99999e-01,9.99841e-01,8.75412e-01,9.99999e-01
9.718941857e-01,8.77706e-01,9.99999e-01,9.99988e-01,8.77716e-01,9.99999e-01
9.767536566e-01,8.79980e-01,9.99999e-01,9.99999e-01,8.79980e-01,9.99999e-01
9.816374249e-01,8.82205e-01,9.99999e-01,9.99999e-01,8.82205e-01,9.99999e-01
9.865456120e-01,8.84392e-01,9.99999e-01,9.99999e-01,8.84392e-01,9.99999e-01
9.914783401e-01,8.86540e-01,9.99999e-01,9.99999e-01,8.86540e-01,9.99999e-01
9.964357318e-01,8.88652e-01,9.99999e-01,9.99999e-01,8.88652e-01,9.99999e-01
1.001417910e+00,8.90726e-01,9.99999e-01,9.99999e-01,8.90726e-01,9.99999e-01
1.006425000e+00,8.92764e-01,9.99999e-01,9.99999e-01,8.92764e-01,9.99999e-01
1.011457125e+00,8.94767e-01,9.99999e-01,9.99999e-01,8.94767e-01,9.99999e-01
1.016514411e+00,8.96734e-01,9.99999e-01,9.99999e-01,8.96734e-01,9.99999e-01
1.021596983e+00,8.98649e-01,9.99999e-01,9.99979e-01,8.98667e-01,9.99999e-01
1.026704968e+00,8.99122e-01,9.99999e-01,9.98396e-01,9.00566e-01,9.99999e-01
1.031838492e+00,8.81383e-01,9.99999e-01,9.76676e-01,9.02430e-01,9.99999e-01
1.036997685e+00,2.84703e-01,9.99999e-01,3.14845e-01,9.04262e-01,9.99999e-01
1.042182673e+00,3.45020e-01,9.99999e-01,3.80791e-01,9.06062e-01,9.99999e-01
1.047393587e+00,3.16670e-01,9.99999e-01,3.48821e-01,9.07829e-01,9.99999e-01
1.052630555e+00,5.70419e-02,9.99999e-01,6.27133e-02,9.09564e-01,9.99999e-01
1.057893707e+00,1.02940e-01,9.99999e-01,1.12963e-01,9.11269e-01,9.99999e-01
1.063183176e+00,1.89001e-01,9.99999e-01,2.07024e-01,9.12943e-01,9.99999e-01
1.068499092e+00,3.21926e-01,9.99999e-01,3.51990e-01,9.14587e-01,9.99999e-01
1.073841587e+00,4.73708e-01,9.99999e-01,5.17034e-01,9.16201e-01,9.99999e-01
1.079210795e+00,6.05772e-01,9.99999e-01,6.60035e-01,9.17786e-01,9.99999e-01
1.084606849e+00,7.32842e-01,9.99999e-01,7.97135e-01,9.19343e-01,9.99999e-01
1.090029883e+00,8.18997e-01,9.99999e-01,8.89371e-01,9.20871e-01,9.99999e-01
1.095480033e+00,8.70613e-01,9.99999e-01,9.43884e-01,9.22372e-01,9.99999e-01
1.100957433e+00,8.98543e-01,9.99999e-01,9.72610e-01,9.23845e-01,9.99999e-01
1.106462220e+00,9.14725e-01,9.99999e-01,9.88579e-01,9.25292e-01,9.99999e-01
1.111994531e+00,9.22778e-01,9.99999e-01,9.95753e-01,9.26712e-01,9.99999e-01
1.117554504e+00,9.27141e-01,9.99999e-01,9.98958e-01,9.28106e-01,9.99999e-01
1.123142276e+00,9.29412e-01,9.99999e-01,9.99930e-01,9.29475e-01,9.99999e-01
1.128757988e+00,9.30819e-01,9.99999e-01,9.99999e-01,9.30819e-01,9.99999e-01
1.134401778e+00,9.32138e-01,9.99999e-01,9.99999e-01,9.32138e-01,9.99999e-01
1.140073787e+00,9.33433e-01,9.99999e-01,9.99999e-01,9.33433e-01,9.99999e-01
1.145774156e+00,9.34704e-01,9.99999e-01,9.99999e-01,9.34704e-01,9.99999e-01
1.151503026e+00,9.35951e-01,9.99999e-01,9.99999e-01,9.35951e-01,9.99999e-01
1.157260541e+00,9.37176e-01,9.99999e-01,9.99999e-01,9.37176e-01,9.99999e-01
1.163046844e+00,9.38378e-01,9.99999e-01,9.99999e-01,9.38378e-01,9.99999e-01
1.168862078e+00,9.39557e-01,9.99999e-01,9.99999e-01,9.39557e-01,9.99999e-01
1.174706389e+00,9.40715e-01,9.99999e-01,9.99999e-01,9.40715e-01,9.99999e-01
1.180579921e+00,9.41851e-01,9.99999e-01,9.99999e-01,9.41851e-01,9.99999e-01
1.186482820e+00,9.42964e-01,9.99999e-01,9.99997e-01,9.42966e-01,9.99999e-01
1.192415234e+00,9.38635e-01,9.99999e-01,9.94251e-01,9.44061e-01,9.99999e-01
1.198377311e+00,5.60153e-01,9.99999e-01,5.92669e-01,9.45135e-01,9.99999e-01
1.204369197e+00,4.04127e-06,9.99999e-01,4.27110e-06,9.46189e-01,9.99999e-01
1.210391043e+00,6.81237e-19,9.99999e-01,7.19193e-19,9.47223e-01,9.99999e-01
1.216442998e+00,1.33717e-16,9.99999e-01,1.41016e-16,9.48238e-01,9.99999e-01
1.222525213e+00,2.36900e-16,9.99999e-01,2.49570e-16,9.49234e-01,9.99999e-01
1.228637839e+00,1.49023e-12,9.99999e-01,1.56831e-12,9.50211e-01,9.99999e-01
1.234781029e+00,7.78020e-09,9.99999e-01,8.17960e-09,9.51170e-01,9.99999e-01
1.240954934e+00,5.08758e-06,9.99999e-01,5.34347e-06,9.52111e-01,9.99999e-01
1.247159708e+00,1.07026e-03,9.99999e-01,1.12301e-03,9.53035e-01,9.99999e-01
1.253395507e+00,2.31255e-02,9.99999e-01,2.42420e-02,9.53941e-01,9.99999e-01
1.259662485e+00,1.16168e-01,9.99999e-01,1.21663e-01,9.54830e-01,9.99999e-01
1.265960797e+00,2.81505e-01,9.99999e-01,2.94553e-01,9.55702e-01,9.99999e-01
1.272290601e+00,5.57808e-01,9.99999e-01,5.83140e-01,9.56557e-01,9.99999e-01
1.278652054e+00,5.20742e-01,9.99999e-01,5.43914e-01,9.57397e-01,9.99999e-01
1.285045314e+00,5.14430e-02,9.99999e-01,5.36859e-02,9.58221e-01,9.99999e-01
1.291470541e+00,6.76191e-03,9.99999e-01,7.05078e-03,9.59029e-01,9.99999e-01
1.297927893e+00,5.67518e-02,9.99999e-01,5.91274e-02,9.59822e-01,9.99999e-01
1.304417533e+00,3.88791e-01,9.99999e-01,4.04737e-01,9.60599e-01,9.99999e-01
1.310939621e+00,1.15958e-01,9.99999e-01,1.20618e-01,9.61362e-01,9.99999e-01
1.317494319e+00,6.49855e-07,9.99999e-01,6.75447e-07,9.62111e-01,9.99999e-01
1.324081790e+00,3.45470e-05,9.99999e-01,3.58800e-05,9.62845e-01,9.99999e-01
1.330702199e+00,4.51869e-03,9.99999e-01,4.68955e-03,9.63565e-01,9.99999e-01
1.337355710e+00,3.07028e-03,9.99999e-01,3.18404e-03,9.64272e-01,9.99999e-01
1.344042489e+00,1.16461e-03,9.99999e-01,1.20689e-03,9.64965e-01,9.99999e-01
1.350762701e+00,3.57178e-03,9.99999e-01,3.69885e-03,9.65645e-01,9.99999e-01
1.357516515e+00,2.37867e-02,9.99999e-01,2.46159e-02,9.66312e-01,9.99999e-01
1.364304097e+00,9.80610e-02,9.99999e-01,1.01411e-01,9.66967e-01,9.99999e-01
1.371125618e+00,2.87237e-01,9.99999e-01,2.96852e-01,9.67608e-01,9.99999e-01
1.377981246e+00,3.69294e-01,9.99999e-01,3.81408e-01,9.68238e-01,9.99999e-01
1.384871152e+00,5.52539e-01,9.99999e-01,5.70300e-01,9.68855e-01,9.99999e-01
1.391795508e+00,5.77248e-01,9.99999e-01,5.95431e-01,9.69461e-01,9.99999e-01
1.398754485e+00,7.05512e-01,9.99999e-01,7.27290e-01,9.70055e-01,9.99999e-01
1.405748258e+00,7.67127e-01,9.99999e-01,7.90333e-01,9.70638e-01,9.99999e-01
1.412776999e+00,8.37338e-01,9.99999e-01,8.62159e-01,9.71209e-01,9.99999e-01
1.419840884e+00,7.82716e-01,9.99999e-01,8.05453e-01,9.71770e-01,9.99999e-01
1.426940089e+00,1.09893e-01,9.99999e-01,1.13022e-01,9.72320e-01,9.99999e-01
1.434074789e+00,1.13863e-262,9.99999e-01,1.17039e-262,9.72859e-01,9.99999e-01
1.441245163e+00,0.00000e+00,9.99999e-01,0.00000e+00,9.73388e-01,9.99999e-01
1.448451389e+00,1.91491e-318,9.99999e-01,1.96621e-318,9.73907e-01,9.99999e-01
1.455693646e+00,1.05570e-142,9.99999e-01,1.08342e-142,9.74415e-01,9.99999e-01
1.462972114e+00,8.42268e-70,9.99999e-01,8.63940e-70,9.74914e-01,9.99999e-01
1.470286975e+00,4.82750e-30,9.99999e-01,4.94923e-30,9.75404e-01,9.99999e-01
