#,Wave/freq,Total,N2,CO2,Rayleigh,CIA
4.000000000e-01,4.37271e-02,9.99999e-01,9.99999e-01,4.37271e-02,9.99999e-01
4.020000000e-01,4.65186e-02,9.99999e-01,9.99999e-01,4.65186e-02,9.99999e-01
4.040100000e-01,4.94248e-02,9.99999e-01,9.99999e-01,4.94248e-02,9.99999e-01
4.060300500e-01,5.24496e-02,9.99999e-01,9.99999e-01,5.24496e-02,9.99999e-01
4.080602003e-01,5.55944e-02,9.99999e-01,9.99999e-01,5.55944e-02,9.99999e-01
4.101005013e-01,5.88599e-02,9.99999e-01,9.99999e-01,5.88599e-02,9.99999e-01
4.121510038e-01,6.22470e-02,9.99999e-01,9.99999e-01,6.22470e-02,9.99999e-01
4.142117588e-01,6.57563e-02,9.99999e-01,9.99999e-01,6.57563e-02,9.99999e-01
4.162828176e-01,6.93883e-02,9.99999e-01,9.99999e-01,6.93883e-02,9.99999e-01
4.183642317e-01,7.31432e-02,9.99999e-01,9.99999e-01,7.31432e-02,9.99999e-01
4.204560528e-01,7.70210e-02,9.99999e-01,9.99999e-01,7.70210e-02,9.99999e-01
4.225583331e-01,8.10217e-02,9.99999e-01,9.99999e-01,8.10217e-02,9.99999e-01
4.246711247e-01,8.51450e-02,9.99999e-01,9.99999e-01,8.51450e-02,9.99999e-01
4.267944804e-01,8.93905e-02,9.99999e-01,9.99999e-01,8.93905e-02,9.99999e-01
4.289284528e-01,9.37574e-02,9.99999e-01,9.99999e-01,9.37574e-02,9.99999e-01
4.310730950e-01,9.82452e-02,9.99999e-01,9.99999e-01,9.82452e-02,9.99999e-01
4.332284605e-01,1.02853e-01,9.99999e-01,9.99999e-01,1.02853e-01,9.99999e-01
4.353946028e-01,1.07579e-01,9.99999e-01,9.99999e-01,1.07579e-01,9.99999e-01
4.375715758e-01,1.12422e-01,9.99999e-01,9.99999e-01,1.12422e-01,9.99999e-01
4.397594337e-01,1.17382e-01,9.99999e-01,9.99999e-01,1.17382e-01,9.99999e-01
4.419582309e-01,1.22455e-01,9.99999e-01,9.99999e-01,1.22455e-01,9.99999e-01
4.441680220e-01,1.27642e-01,9.99999e-01,9.99999e-01,1.27642e-01,9.99999e-01
4.463888621e-01,1.32939e-01,9.99999e-01,9.99999e-01,1.32939e-01,9.99999e-01
4.486208064e-01,1.38344e-01,9.99999e-01,9.99999e-01,1.38344e-01,9.99999e-01
4.508639105e-01,1.43857e-01,9.99999e-01,9.99999e-01,1.43857e-01,9.99999e-01
4.531182300e-01,1.49473e-01,9.99999e-01,9.99999e-01,1.49473e-01,9.99999e-01
4.553838212e-01,1.55191e-01,9.99999e-01,9.99999e-01,1.55191e-01,9.99999e-01
4.576607403e-01,1.61009e-01,9.99999e-01,9.99999e-01,1.61009e-01,9.99999e-01
4.599490440e-01,1.66923e-01,9.99999e-01,9.99999e-01,1.66923e-01,9.99999e-01
4.622487892e-01,1.72931e-01,9.99999e-01,9.99999e-01,1.72931e-01,9.99999e-01
4.645600332e-01,1.79031e-01,9.99999e-01,9.99999e-01,1.79031e-01,9.99999e-01
4.668828333e-01,1.85218e-01,9.99999e-01,9.99999e-01,1.85218e-01,9.99999e-01
4.692172475e-01,1.91491e-01,9.99999e-01,9.99999e-01,1.91491e-01,9.99999e-01
4.715633337e-01,1.97846e-01,9.99999e-01,9.99999e-01,1.97846e-01,9.99999e-01
4.739211504e-01,2.04281e-01,9.99999e-01,9.99999e-01,2.04281e-01,9.99999e-01
4.762907561e-01,2.10791e-01,9.99999e-01,9.99999e-01,2.10791e-01,9.99999e-01
4.786722099e-01,2.17374e-01,9.99999e-01,9.99999e-01,2.17374e-01,9.99999e-01
4.810655710e-01,2.24027e-01,9.99999e-01,9.99999e-01,2.24027e-01,9.99999e-01
4.834708988e-01,2.30745e-01,9.99999e-01,9.99999e-01,2.30745e-01,9.99999e-01
4.858882533e-01,2.37527e-01,9.99999e-01,9.99999e-01,2.37527e-01,9.99999e-01
4.883176946e-01,2.44368e-01,9.99999e-01,9.99999e-01,2.44368e-01,9.99999e-01
4.907592831e-01,2.51265e-01,9.99999e-01,9.99999e-01,2.51265e-01,9.99999e-01
4.932130795e-01,2.58214e-01,9.99999e-01,9.99999e-01,2.58214e-01,9.99999e-01
4.956791449e-01,2.65213e-01,9.99999e-01,9.99999e-01,2.65213e-01,9.99999e-01
4.981575406e-01,2.72258e-01,9.99999e-01,9.99999e-01,2.72258e-01,9.99999e-01
5.006483283e-01,2.79345e-01,9.99999e-01,9.99999e-01,2.79345e-01,9.99999e-01
5.031515699e-01,2.86471e-01,9.99999e-01,9.99999e-01,2.86471e-01,9.99999e-01
5.056673278e-01,2.93633e-01,9.99999e-01,9.99999e-01,2.93633e-01,9.99999e-01
5.081956644e-01,3.00827e-01,9.99999e-01,9.99999e-01,3.00827e-01,9.99999e-01
5.107366428e-01,3.08050e-01,9.99999e-01,9.99999e-01,3.08050e-01,9.99999e-01
5.132903260e-01,3.15299e-01,9.99999e-01,9.99999e-01,3.15299e-01,9.99999e-01
5.158567776e-01,3.22570e-01,9.99999e-01,9.99999e-01,3.22570e-01,9.99999e-01
5.184360615e-01,3.29860e-01,9.99999e-01,9.99999e-01,3.29860e-01,9.99999e-01
5.210282418e-01,3.37166e-01,9.99999e-01,9.99999e-01,3.37166e-01,9.99999e-01
5.236333830e-01,3.44485e-01,9.99999e-01,9.99999e-01,3.44485e-01,9.99999e-01
5.262515499e-01,3.51814e-01,9.99999e-01,9.99999e-01,3.51814e-01,9.99999e-01
5.288828077e-01,3.59148e-01,9.99999e-01,9.99999e-01,3.59148e-01,9.99999e-01
5.315272217e-01,3.66487e-01,9.99999e-01,9.99999e-01,3.66487e-01,9.99999e-01
5.341848578e-01,3.73826e-01,9.99999e-01,9.99999e-01,3.73826e-01,9.99999e-01
5.368557821e-01,3.81162e-01,9.99999e-01,9.99999e-01,3.81162e-01,9.99999e-01
5.395400610e-01,3.88494e-01,9.99999e-01,9.99999e-01,3.88494e-01,9.99999e-01
5.422377613e-01,3.95817e-01,9.99999e-01,9.99999e-01,3.95817e-01,9.99999e-01
5.449489501e-01,4.03130e-01,9.99999e-01,9.99999e-01,4.03130e-01,9.99999e-01
5.476736949e-01,4.10430e-01,9.99999e-01,9.99999e-01,4.10430e-01,9.99999e-01
5.504120634e-01,4.17713e-01,9.99999e-01,9.99999e-01,4.17713e-01,9.99999e-01
5.531641237e-01,4.24978e-01,9.99999e-01,9.99999e-01,4.24978e-01,9.99999e-01
5.559299443e-01,4.32223e-01,9.99999e-01,9.99999e-01,4.32223e-01,9.99999e-01
5.587095940e-01,4.39444e-01,9.99999e-01,9.99999e-01,4.39444e-01,9.99999e-01
5.615031420e-01,4.46639e-01,9.99999e-01,9.99999e-01,4.46639e-01,9.99999e-01
5.643106577e-01,4.53807e-01,9.99999e-01,9.99999e-01,4.53807e-01,9.99999e-01
5.671322110e-01,4.60944e-01,9.99999e-01,9.99999e-01,4.60944e-01,9.99999e-01
5.699678720e-01,4.68050e-01,9.99999e-01,9.99999e-01,4.68050e-01,9.99999e-01
5.728177114e-01,4.75122e-01,9.99999e-01,9.99999e-01,4.75122e-01,9.99999e-01
5.756818000e-01,4.82157e-01,9.99999e-01,9.99999e-01,4.82157e-01,9.99999e-01
5.785602090e-01,4.89155e-01,9.99999e-01,9.99999e-01,4.89155e-01,9.99999e-01
5.814530100e-01,4.96113e-01,9.99999e-01,9.99999e-01,4.96113e-01,9.99999e-01
5.843602750e-01,5.03030e-01,9.99999e-01,9.99999e-01,5.03030e-01,9.99999e-01
5.872820764e-01,5.09904e-01,9.99999e-01,9.99999e-01,5.09904e-01,9.99999e-01
5.902184868e-01,5.16733e-01,9.99999e-01,9.99999e-01,5.16733e-01,9.99999e-01
5.931695792e-01,5.23516e-01,9.99999e-01,9.99999e-01,5.23516e-01,9.99999e-01
5.961354271e-01,5.30251e-01,9.99999e-01,9.99999e-01,5.30251e-01,9.99999e-01
5.991161043e-01,5.36937e-01,9.99999e-01,9.99999e-01,5.36937e-01,9.99999e-01
6.021116848e-01,5.43573e-01,9.99999e-01,9.99999e-01,5.43573e-01,9.99999e-01
6.051222432e-01,5.50158e-01,9.99999e-01,9.99999e-01,5.50158e-01,9.99999e-01
6.081478544e-01,5.56690e-01,9.99999e-01,9.99999e-01,5.56690e-01,9.99999e-01
6.111885937e-01,5.63168e-01,9.99999e-01,9.99999e-01,5.63168e-01,9.99999e-01
6.142445367e-01,5.69592e-01,9.99999e-01,9.99999e-01,5.69592e-01,9.99999e-01
6.173157594e-01,5.75960e-01,9.99999e-01,9.99999e-01,5.75960e-01,9.99999e-01
6.204023382e-01,5.82271e-01,9.99999e-01,9.99999e-01,5.82271e-01,9.99999e-01
6.235043498e-01,5.88524e-01,9.99999e-01,9.99999e-01,5.88524e-01,9.99999e-01
6.266218716e-01,5.94719e-01,9.99999e-01,9.99999e-01,5.94719e-01,9.99999e-01
6.297549810e-01,6.00855e-01,9.99999e-01,9.99999e-01,6.00855e-01,9.99999e-01
6.329037559e-01,6.06932e-01,9.99999e-01,9.99999e-01,6.06932e-01,9.99999e-01
6.360682746e-01,6.12947e-01,9.99999e-01,9.99999e-01,6.12947e-01,9.99999e-01
6.392486160e-01,6.18902e-01,9.99999e-01,9.99999e-01,6.18902e-01,9.99999e-01
6.424448591e-01,6.24796e-01,9.99999e-01,9.99999e-01,6.24796e-01,9.99999e-01
6.456570834e-01,6.30627e-01,9.99999e-01,9.99999e-01,6.30627e-01,9.99999e-01
6.488853688e-01,6.36396e-01,9.99999e-01,9.99999e-01,6.36396e-01,9.99999e-01
6.521297956e-01,6.42103e-01,9.99999e-01,9.99999e-01,6.42103e-01,9.99999e-01
6.553904446e-01,6.47746e-01,9.99999e-01,9.99999e-01,6.47746e-01,9.99999e-01
6.586673968e-01,6.53326e-01,9.99999e-01,9.99999e-01,6.53326e-01,9.99999e-01
6.619607338e-01,6.58843e-01,9.99999e-01,9.99999e-01,6.58843e-01,9.99999e-01
6.652705375e-01,6.64295e-01,9.99999e-01,9.99999e-01,6.64295e-01,9.99999e-01
6.685968902e-01,6.69684e-01,9.99999e-01,9.99999e-01,6.69684e-01,9.99999e-01
6.719398746e-01,6.75009e-01,9.99999e-01,9.99999e-01,6.75009e-01,9.99999e-01
6.752995740e-01,6.80270e-01,9.99999e-01,9.99999e-01,6.80270e-01,9.99999e-01
6.786760719e-01,6.85466e-01,9.99999e-01,9.99999e-01,6.85466e-01,9.99999e-01
6.820694522e-01,6.90599e-01,9.99999e-01,9.99999e-01,6.90599e-01,9.99999e-01
6.854797995e-01,6.95667e-01,9.99999e-01,9.99999e-01,6.95667e-01,9.99999e-01
6.889071985e-01,7.00671e-01,9.99999e-01,9.99999e-01,7.00671e-01,9.99999e-01
6.923517345e-01,7.05612e-01,9.99999e-01,9.99999e-01,7.05612e-01,9.99999e-01
6.958134932e-01,7.10488e-01,9.99999e-01,9.99999e-01,7.10488e-01,9.99999e-01
6.992925606e-01,7.15301e-01,9.99999e-01,9.99999e-01,7.15301e-01,9.99999e-01
7.027890234e-01,7.20051e-01,9.99999e-01,9.99999e-01,7.20051e-01,9.99999e-01
7.063029686e-01,7.24737e-01,9.99999e-01,9.99999e-01,7.24737e-01,9.99999e-01
7.098344834e-01,7.29361e-01,9.99999e-01,9.99999e-01,7.29361e-01,9.99999e-01
7.133836558e-01,7.33922e-01,9.99999e-01,9.99999e-01,7.33922e-01,9.99999e-01
7.169505741e-01,7.38420e-01,9.99999e-01,9.99999e-01,7.38420e-01,9.99999e-01
7.205353270e-01,7.42856e-01,9.99999e-01,9.99999e-01,7.42856e-01,9.99999e-01
7.241380036e-01,7.47231e-01,9.99999e-01,9.99999e-01,7.47231e-01,9.99999e-01
7.277586936e-01,7.51544e-01,9.99999e-01,9.99999e-01,7.51544e-01,9.99999e-01
7.313974871e-01,7.55796e-01,9.99999e-01,9.99999e-01,7.55796e-01,9.99999e-01
7.350544745e-01,7.59987e-01,9.99999e-01,9.99999e-01,7.59987e-01,9.99999e-01
7.387297469e-01,7.64118e-01,9.99999e-01,9.99999e-01,7.64118e-01,9.99999e-01
7.424233956e-01,7.68190e-01,9.99999e-01,9.99999e-01,7.68190e-01,9.99999e-01
7.461355126e-01,7.72202e-01,9.99999e-01,9.99999e-01,7.72202e-01,9.99999e-01
7.498661902e-01,7.76155e-01,9.99999e-01,9.99999e-01,7.76155e-01,9.99999e-01
7.536155211e-01,7.80049e-01,9.99999e-01,9.99999e-01,7.80049e-01,9.99999e-01
7.573835987e-01,7.83886e-01,9.99999e-01,9.99999e-01,7.83886e-01,9.99999e-01
7.611705167e-01,7.87665e-01,9.99999e-01,9.99999e-01,7.87665e-01,9.99999e-01
7.649763693e-01,7.91388e-01,9.99999e-01,9.99999e-01,7.91388e-01,9.99999e-01
7.688012511e-01,7.95053e-01,9.99999e-01,9.99999e-01,7.95053e-01,9.99999e-01
7.726452574e-01,7.98663e-01,9.99999e-01,9.99999e-01,7.98663e-01,9.99999e-01
7.765084837e-01,8.02218e-01,9.99999e-01,9.99999e-01,8.02218e-01,9.99999e-01
7.803910261e-01,7.97233e-01,9.99999e-01,9.89469e-01,8.05717e-01,9.99999e-01
7.842929812e-01,7.72711e-01,9.99999e-01,9.54951e-01,8.09163e-01,9.99999e-01
7.882144461e-01,7.73407e-01,9.99999e-01,9.51821e-01,8.12554e-01,9.99999e-01
7.921555184e-01,7.93236e-01,9.99999e-01,9.72230e-01,8.15893e-01,9.99999e-01
7.961162960e-01,8.03865e-01,9.99999e-01,9.81306e-01,8.19178e-01,9.99999e-01
8.000968774e-01,8.14060e-01,9.99999e-01,9.89844e-01,8.22412e-01,9.99999e-01
8.040973618e-01,8.21232e-01,9.99999e-01,9.94716e-01,8.25594e-01,9.99999e-01
8.081178486e-01,8.26720e-01,9.99999e-01,9.97579e-01,8.28725e-01,9.99999e-01
8.121584379e-01,8.31181e-01,9.99999e-01,9.99247e-01,8.31806e-01,9.99999e-01
8.162192301e-01,8.34699e-01,9.99999e-01,9.99833e-01,8.34838e-01,9.99999e-01
8.203003262e-01,8.37817e-01,9.99999e-01,9.99996e-01,8.37820e-01,9.99999e-01
8.244018279e-01,8.40753e-01,9.99999e-01,9.99999e-01,8.40753e-01,9.99999e-01
8.285238370e-01,8.43639e-01,9.99999e-01,9.99999e-01,8.43639e-01,9.99999e-01
8.326664562e-01,8.46477e-01,9.99999e-01,9.99999e-01,8.46477e-01,9.99999e-01
8.368297885e-01,8.49268e-01,9.99999e-01,9.99999e-01,8.49268e-01,9.99999e-01
8.410139374e-01,8.52013e-01,9.99999e-01,9.99999e-01,8.52013e-01,9.99999e-01
8.452190071e-01,8.54713e-01,9.99999e-01,9.99999e-01,8.54713e-01,9.99999e-01
8.494451021e-01,8.57367e-01,9.99999e-01,9.99999e-01,8.57367e-01,9.99999e-01
8.536923276e-01,8.59977e-01,9.99999e-01,9.99999e-01,8.59977e-01,9.99999e-01
8.579607893e-01,8.62544e-01,9.99999e-01,9.99999e-01,8.62544e-01,9.99999e-01
8.622505932e-01,8.65067e-01,9.99999e-01,9.99999e-01,8.65067e-01,9.99999e-01
8.665618462e-01,8.41147e-01,9.99999e-01,9.69568e-01,8.67547e-01,9.99999e-01
8.708946554e-01,7.72069e-01,9.99999e-01,8.87450e-01,8.69985e-01,9.99999e-01
8.752491287e-01,7.93661e-01,9.99999e-01,9.09762e-01,8.72382e-01,9.99999e-01
8.796253743e-01,8.31089e-01,9.99999e-01,9.50100e-01,8.74738e-01,9.99999e-01
8.840235012e-01,8.54251e-01,9.99999e-01,9.74001e-01,8.77053e-01,9.99999e-01
8.884436187e-01,8.70247e-01,9.99999e-01,9.89672e-01,8.79329e-01,9.99999e-01
8.928858368e-01,8.77877e-01,9.99999e-01,9.95815e-01,8.81565e-01,9.99999e-01
8.973502660e-01,8.82860e-01,9.99999e-01,9.98978e-01,8.83763e-01,9.99999e-01
9.018370173e-01,8.85823e-01,9.99999e-01,9.99886e-01,8.85922e-01,9.99999e-01
9.063462024e-01,8.85516e-01,9.99999e-01,9.97152e-01,8.88045e-01,9.99999e-01
9.108779334e-01,8.84262e-01,9.99999e-01,9.93407e-01,8.90130e-01,9.99999e-01
9.154323231e-01,8.90787e-01,9.99999e-01,9.98439e-01,8.92178e-01,9.99999e-01
9.200094847e-01,8.73486e-01,9.99999e-01,9.76844e-01,8.94191e-01,9.99999e-01
9.246095321e-01,8.67572e-01,9.99999e-01,9.68089e-01,8.96169e-01,9.99999e-01
9.292325798e-01,8.75578e-01,9.99999e-01,9.74909e-01,8.98111e-01,9.99999e-01
9.338787427e-01,8.78132e-01,9.99999e-01,9.75680e-01,9.00020e-01,9.99999e-01
9.385481364e-01,8.85783e-01,9.99999e-01,9.82136e-01,9.01894e-01,9.99999e-01
9.432408771e-01,8.93818e-01,9.99999e-01,9.89025e-01,9.03736e-01,9.99999e-01
9.479570815e-01,9.00445e-01,9.99999e-01,9.94368e-01,9.05544e-01,9.99999e-01
9.526968669e-01,9.04850e-01,9.99999e-01,9.97276e-01,9.07321e-01,9.99999e-01
9.574603512e-01,9.08006e-01,9.99999e-01,9.98834e-01,9.09065e-01,9.99999e-01
9.622476530e-01,9.10448e-01,9.99999e-01,9.99635e-01,9.10779e-01,9.99999e-01
9.670588912e-01,9.12362e-01,9.99999e-01,9.99890e-01,9.12462e-01,9.99999e-01
9.718941857e-01,9.14107e-01,9.99999e-01,9.99991e-01,9.14114e-01,9.99999e-01
9.767536566e-01,9.15737e-01,9.99999e-01,9.99999e-01,9.15737e-01,9.99999e-01
9.816374249e-01,9.17331e-01,9.99999e-01,9.99999e-01,9.17331e-01,9.99999e-01
9.865456120e-01,9.18896e-01,9.99999e-01,9.99999e-01,9.18896e-01,9.99999e-01
9.914783401e-01,9.20432e-01,9.99999e-01,9.99999e-01,9.20432e-01,9.99999e-01
9.964357318e-01,9.21941e-01,9.99999e-01,9.99999e-01,9.21941e-01,9.99999e-01
1.001417910e+00,9.23422e-01,9.99999e-01,9.99999e-01,9.23422e-01,9.99999e-01
1.006425000e+00,9.24876e-01,9.99999e-01,9.99999e-01,9.24876e-01,9.99999e-01
1.011457125e+00,9.26304e-01,9.99999e-01,9.99999e-01,9.26304e-01,9.99999e-01
1.016514411e+00,9.27706e-01,9.99999e-01,9.99999e-01,9.27706e-01,9.99999e-01
1.021596983e+00,9.29069e-01,9.99999e-01,9.99985e-01,9.29082e-01,9.99999e-01
1.026704968e+00,9.29407e-01,9.99999e-01,9.98896e-01,9.30433e-01,9.99999e-01
1.031838492e+00,9.15365e-01,9.99999e-01,9.82405e-01,9.31759e-01,9.99999e-01
1.036997685e+00,3.82302e-01,9.99999e-01,4.09729e-01,9.33060e-01,9.99999e-01
1.042182673e+00,4.76212e-01,9.99999e-01,5.09678e-01,9.34338e-01,9.99999e-01
1.047393587e+00,4.18322e-01,9.99999e-01,4.47120e-01,9.35593e-01,9.99999e-01
1.052630555e+00,1.24245e-01,9.99999e-01,1.32624e-01,9.36824e-01,9.99999e-01
1.057893707e+00,2.00232e-01,9.99999e-01,2.13460e-01,9.38032e-01,9.99999e-01
1.063183176e+00,3.10194e-01,9.99999e-01,3.30267e-01,9.39218e-01,9.99999e-01
1.068499092e+00,4.56073e-01,9.99999e-01,4.84987e-01,9.40382e-01,9.99999e-01
1.073841587e+00,5.95976e-01,9.99999e-01,6.32989e-01,9.41525e-01,9.99999e-01
1.079210795e+00,7.07275e-01,9.99999e-01,7.50308e-01,9.42646e-01,9.99999e-01
1.084606849e+00,8.07092e-01,9.99999e-01,8.55199e-01,9.43746e-01,9.99999e-01
1.090029883e+00,8.71481e-01,9.99999e-01,9.22371e-01,9.44826e-01,9.99999e-01
1.095480033e+00,9.08981e-01,9.99999e-01,9.60983e-01,9.45886e-01,9.99999e-01
1.100957433e+00,9.28984e-01,9.99999e-01,9.81051e-01,9.46926e-01,9.99999e-01
1.106462220e+00,9.40476e-01,9.99999e-01,9.92119e-01,9.47946e-01,9.99999e-01
1.111994531e+00,9.46171e-01,9.99999e-01,9.97073e-01,9.48948e-01,9.99999e-01
1.117554504e+00,9.49249e-01,9.99999e-01,9.99282e-01,9.49931e-01,9.99999e-01
1.123142276e+00,9.50850e-01,9.99999e-01,9.99952e-01,9.50895e-01,9.99999e-01
1.128757988e+00,9.51841e-01,9.99999e-01,9.99999e-01,9.51841e-01,9.99999e-01
1.134401778e+00,9.52769e-01,9.99999e-01,9.99999e-01,9.52769e-01,9.99999e-01
1.140073787e+00,9.53680e-01,9.99999e-01,9.99999e-01,9.53680e-01,9.99999e-01
1.145774156e+00,9.54574e-01,9.99999e-01,9.99999e-01,9.54574e-01,9.99999e-01
1.151503026e+00,9.55451e-01,9.99999e-01,9.99999e-01,9.55451e-01,9.99999e-01
1.157260541e+00,9.56312e-01,9.99999e-01,9.99999e-01,9.56312e-01,9.99999e-01
1.163046844e+00,9.57156e-01,9.99999e-01,9.99999e-01,9.57156e-01,9.99999e-01
1.168862078e+00,9.57984e-01,9.99999e-01,9.99999e-01,9.57984e-01,9.99999e-01
1.174706389e+00,9.58797e-01,9.99999e-01,9.99999e-01,9.58797e-01,9.99999e-01
1.180579921e+00,9.59594e-01,9.99999e-01,9.99999e-01,9.59594e-01,9.99999e-01
1.186482820e+00,9.60374e-01,9.99999e-01,9.99997e-01,9.60376e-01,9.99999e-01
1.192415234e+00,9.57334e-01,9.99999e-01,9.96036e-01,9.61143e-01,9.99999e-01
1.198377311e+00,5.95203e-01,9.99999e-01,6.18780e-01,9.61896e-01,9.99999e-01
1.204369197e+00,6.76657e-05,9.99999e-01,7.02922e-05,9.62634e-01,9.99999e-01
1.210391043e+00,1.04350e-13,9.99999e-01,1.08319e-13,9.63358e-01,9.99999e-01
1.216442998e+00,4.40890e-12,9.99999e-01,4.57321e-12,9.64069e-01,9.99999e-01
1.222525213e+00,7.48449e-12,9.99999e-01,7.75783e-12,9.64766e-01,9.99999e-01
1.228637839e+00,4.74618e-09,9.99999e-01,4.91602e-09,9.65450e-01,9.99999e-01
1.234781029e+00,1.15138e-06,9.99999e-01,1.19175e-06,9.66121e-01,9.99999e-01
1.240954934e+00,1.46062e-04,9.99999e-01,1.51081e-04,9.66779e-01,9.99999e-01
1.247159708e+00,7.49122e-03,9.99999e-01,7.74346e-03,9.67424e-01,9.99999e-01
1.253395507e+00,7.06141e-02,9.99999e-01,7.29441e-02,9.68057e-01,9.99999e-01
1.259662485e+00,2.22043e-01,9.99999e-01,2.29222e-01,9.68678e-01,9.99999e-01
1.265960797e+00,4.13220e-01,9.99999e-01,4.26313e-01,9.69287e-01,9.99999e-01
1.272290601e+00,6.67679e-01,9.99999e-01,6.88410e-01,9.69884e-01,9.99999e-01
1.278652054e+00,6.29797e-01,9.99999e-01,6.48960e-01,9.70470e-01,9.99999e-01
1.285045314e+00,1.04753e-01,9.99999e-01,1.07877e-01,9.71045e-01,9.99999e-01
1.291470541e+00,2.98133e-02,9.99999e-01,3.06844e-02,9.71609e-01,9.99999e-01
1.297927893e+00,1.22411e-01,9.99999e-01,1.25916e-01,9.72162e-01,9.99999e-01
1.304417533e+00,5.20438e-01,9.99999e-01,5.35042e-01,9.72704e-01,9.99999e-01
1.310939621e+00,1.72110e-01,9.99999e-01,1.76843e-01,9.73236e-01,9.99999e-01
1.317494319e+00,4.52977e-05,9.99999e-01,4.65184e-05,9.73758e-01,9.99999e-01
1.324081790e+00,5.67952e-04,9.99999e-01,5.82951e-04,9.74269e-01,9.99999e-01
1.330702199e+00,2.28077e-02,9.99999e-01,2.33980e-02,9.74771e-01,9.99999e-01
1.337355710e+00,1.46969e-02,9.99999e-01,1.50697e-02,9.75263e-01,9.99999e-01
1.344042489e+00,7.21615e-03,9.99999e-01,7.39551e-03,9.75746e-01,9.99999e-01
1.350762701e+00,1.96404e-02,9.99999e-01,2.01188e-02,9.76219e-01,9.99999e-01
1.357516515e+00,7.23414e-02,9.99999e-01,7.40684e-02,9.76683e-01,9.99999e-01
1.364304097e+00,2.00188e-01,9.99999e-01,2.04871e-01,9.77138e-01,9.99999e-01
1.371125618e+00,4.19626e-01,9.99999e-01,4.29248e-01,9.77585e-01,9.99999e-01
1.377981246e+00,5.03108e-01,9.99999e-01,5.14413e-01,9.78023e-01,9.99999e-01
1.384871152e+00,6.64145e-01,9.99999e-01,6.78770e-01,9.78452e-01,9.99999e-01
1.391795508e+00,6.84620e-01,9.99999e-01,6.99395e-01,9.78873e-01,9.99999e-01
1.398754485e+00,7.86412e-01,9.99999e-01,8.03046e-01,9.79286e-01,9.99999e-01
1.405748258e+00,8.32988e-01,9.99999e-01,8.50256e-01,9.79691e-01,9.99999e-01
1.412776999e+00,8.84885e-01,9.99999e-01,9.02861e-01,9.80088e-01,9.99999e-01
1.419840884e+00,8.40502e-01,9.99999e-01,8.57237e-01,9.80478e-01,9.99999e-01
1.426940089e+00,1.30910e-01,9.99999e-01,1.33465e-01,9.80859e-01,9.99999e-01
1.434074789e+00,1.53494e-181,9.99999e-01,1.56430e-181,9.81234e-01,9.99999e-01
1.441245163e+00,2.59881e-267,9.99999e-01,2.64752e-267,9.81601e-01,9.99999e-01
1.448451389e+00,6.13135e-220,9.99999e-01,6.24398e-220,9.81961e-01,9.99999e-01
1.455693646e+00,6.01755e-99,9.99999e-01,6.12588e-99,9.82314e-01,9.99999e-01
1.462972114e+00,9.39388e-49,9.99999e-01,9.55963e-49,9.82661e-01,9.99999e-01
1.470286975e+00,2.27290e-21,9.99999e-01,2.31221e-21,9.83000e-01,9.99999e-01
