#,Wave/freq,Total,N2,CO2,Rayleigh,CIA
4.000000000e-01,3.73984e-04,9.99999e-01,9.99999e-01,3.73984e-04,9.99999e-01
4.020000000e-01,4.37137e-04,9.99999e-01,9.99999e-01,4.37137e-04,9.99999e-01
4.040100000e-01,5.09300e-04,9.99999e-01,9.99999e-01,5.09300e-04,9.99999e-01
4.060300500e-01,5.91588e-04,9.99999e-01,9.99999e-01,5.91588e-04,9.99999e-01
4.080602003e-01,6.85141e-04,9.99999e-01,9.99999e-01,6.85141e-04,9.99999e-01
4.101005013e-01,7.91191e-04,9.99999e-01,9.99999e-01,7.91191e-04,9.99999e-01
4.121510038e-01,9.11062e-04,9.99999e-01,9.99999e-01,9.11062e-04,9.99999e-01
4.142117588e-01,1.04617e-03,9.99999e-01,9.99999e-01,1.04617e-03,9.99999e-01
4.162828176e-01,1.19805e-03,9.99999e-01,9.99999e-01,1.19805e-03,9.99999e-01
4.183642317e-01,1.36830e-03,9.99999e-01,9.99999e-01,1.36830e-03,9.99999e-01
4.204560528e-01,1.55865e-03,9.99999e-01,9.99999e-01,1.55865e-03,9.99999e-01
4.225583331e-01,1.77092e-03,9.99999e-01,9.99999e-01,1.77092e-03,9.99999e-01
4.246711247e-01,2.00703e-03,9.99999e-01,9.99999e-01,2.00703e-03,9.99999e-01
4.267944804e-01,2.26901e-03,9.99999e-01,9.99999e-01,2.26901e-03,9.99999e-01
4.289284528e-01,2.55896e-03,9.99999e-01,9.99999e-01,2.55896e-03,9.99999e-01
4.310730950e-01,2.87913e-03,9.99999e-01,9.99999e-01,2.87913e-03,9.99999e-01
4.332284605e-01,3.23182e-03,9.99999e-01,9.99999e-01,3.23182e-03,9.99999e-01
4.353946028e-01,3.61944e-03,9.99999e-01,9.99999e-01,3.61944e-03,9.99999e-01
4.375715758e-01,4.04450e-03,9.99999e-01,9.99999e-01,4.04450e-03,9.99999e-01
4.397594337e-01,4.50957e-03,9.99999e-01,9.99999e-01,4.50957e-03,9.99999e-01
4.419582309e-01,5.01732e-03,9.99999e-01,9.99999e-01,5.01732e-03,9.99999e-01
4.441680220e-01,5.57049e-03,9.99999e-01,9.99999e-01,5.57049e-03,9.99999e-01
4.463888621e-01,6.17188e-03,9.99999e-01,9.99999e-01,6.17188e-03,9.99999e-01
4.486208064e-01,6.82436e-03,9.99999e-01,9.99999e-01,6.82436e-03,9.99999e-01
4.508639105e-01,7.53086e-03,9.99999e-01,9.99999e-01,7.53086e-03,9.99999e-01
4.531182300e-01,8.29435e-03,9.99999e-01,9.99999e-01,8.29435e-03,9.99999e-01
4.553838212e-01,9.11783e-03,9.99999e-01,9.99999e-01,9.11783e-03,9.99999e-01
4.576607403e-01,1.00043e-02,9.99999e-01,9.99999e-01,1.00043e-02,9.99999e-01
4.599490440e-01,1.09570e-02,9.99999e-01,9.99999e-01,1.09570e-02,9.99999e-01
4.622487892e-01,1.19787e-02,9.99999e-01,9.99999e-01,1.19787e-02,9.99999e-01
4.645600332e-01,1.30728e-02,9.99999e-01,9.99999e-01,1.30728e-02,9.99999e-01
4.668828333e-01,1.42421e-02,9.99999e-01,9.99999e-01,1.42421e-02,9.99999e-01
4.692172475e-01,1.54898e-02,9.99999e-01,9.99999e-01,1.54898e-02,9.99999e-01
4.715633337e-01,1.68188e-02,9.99999e-01,9.99999e-01,1.68188e-02,9.99999e-01
4.739211504e-01,1.82323e-02,9.99999e-01,9.99999e-01,1.82323e-02,9.99999e-01
4.762907561e-01,1.97330e-02,9.99999e-01,9.99999e-01,1.97330e-02,9.99999e-01
4.786722099e-01,2.13240e-02,9.99999e-01,9.99999e-01,2.13240e-02,9.99999e-01
4.810655710e-01,2.30079e-02,9.99999e-01,9.99999e-01,2.30079e-02,9.99999e-01
4.834708988e-01,2.47876e-02,9.99999e-01,9.99999e-01,2.47876e-02,9.99999e-01
4.858882533e-01,2.66656e-02,9.99999e-01,9.99999e-01,2.66656e-02,9.99999e-01
4.883176946e-01,2.86446e-02,9.99999e-01,9.99999e-01,2.86446e-02,9.99999e-01
4.907592831e-01,3.07270e-02,9.99999e-01,9.99999e-01,3.07270e-02,9.99999e-01
4.932130795e-01,3.29151e-02,9.99999e-01,9.99999e-01,3.29151e-02,9.99999e-01
4.956791449e-01,3.52112e-02,9.99999e-01,9.99999e-01,3.52112e-02,9.99999e-01
4.981575406e-01,3.76173e-02,9.99999e-01,9.99999e-01,3.76173e-02,9.99999e-01
5.006483283e-01,4.01353e-02,9.99999e-01,9.99999e-01,4.01353e-02,9.99999e-01
5.031515699e-01,4.27672e-02,9.99999e-01,9.99999e-01,4.27672e-02,9.99999e-01
5.056673278e-01,4.55145e-02,9.99999e-01,9.99999e-01,4.55145e-02,9.99999e-01
5.081956644e-01,4.83787e-02,9.99999e-01,9.99999e-01,4.83787e-02,9.99999e-01
5.107366428e-01,5.13613e-02,9.99999e-01,9.99999e-01,5.13613e-02,9.99999e-01
5.132903260e-01,5.44633e-02,9.99999e-01,9.99999e-01,5.44633e-02,9.99999e-01
5.158567776e-01,5.76858e-02,9.99999e-01,9.99999e-01,5.76858e-02,9.99999e-01
5.184360615e-01,6.10296e-02,9.99999e-01,9.99999e-01,6.10296e-02,9.99999e-01
5.210282418e-01,6.44955e-02,9.99999e-01,9.99999e-01,6.44955e-02,9.99999e-01
5.236333830e-01,6.80839e-02,9.99999e-01,9.99999e-01,6.80839e-02,9.99999e-01
5.262515499e-01,7.17950e-02,9.99999e-01,9.99999e-01,7.17950e-02,9.99999e-01
5.288828077e-01,7.56292e-02,9.99999e-01,9.99999e-01,7.56292e-02,9.99999e-01
5.315272217e-01,7.95862e-02,9.99999e-01,9.99999e-01,7.95862e-02,9.99999e-01
5.341848578e-01,8.36660e-02,9.99999e-01,9.99999e-01,8.36660e-02,9.99999e-01
5.368557821e-01,8.78682e-02,9.99999e-01,9.99999e-01,8.78682e-02,9.99999e-01
5.395400610e-01,9.21920e-02,9.99999e-01,9.99999e-01,9.21920e-02,9.99999e-01
5.422377613e-01,9.66370e-02,9.99999e-01,9.99999e-01,9.66370e-02,9.99999e-01
5.449489501e-01,1.01202e-01,9.99999e-01,9.99999e-01,1.01202e-01,9.99999e-01
5.476736949e-01,1.05886e-01,9.99999e-01,9.99999e-01,1.05886e-01,9.99999e-01
5.504120634e-01,1.10688e-01,9.99999e-01,9.99999e-01,1.10688e-01,9.99999e-01
5.531641237e-01,1.15607e-01,9.99999e-01,9.99999e-01,1.15607e-01,9.99999e-01
5.559299443e-01,1.20640e-01,9.99999e-01,9.99999e-01,1.20640e-01,9.99999e-01
5.587095940e-01,1.25786e-01,9.99999e-01,9.99999e-01,1.25786e-01,9.99999e-01
5.615031420e-01,1.31044e-01,9.99999e-01,9.99999e-01,1.31044e-01,9.99999e-01
5.643106577e-01,1.36412e-01,9.99999e-01,9.99999e-01,1.36412e-01,9.99999e-01
5.671322110e-01,1.41886e-01,9.99999e-01,9.99999e-01,1.41886e-01,9.99999e-01
5.699678720e-01,1.47466e-01,9.99999e-01,9.99999e-01,1.47466e-01,9.99999e-01
5.728177114e-01,1.53148e-01,9.99999e-01,9.99999e-01,1.53148e-01,9.99999e-01
5.756818000e-01,1.58931e-01,9.99999e-01,9.99999e-01,1.58931e-01,9.99999e-01
5.785602090e-01,1.64811e-01,9.99999e-01,9.99999e-01,1.64811e-01,9.99999e-01
5.814530100e-01,1.70786e-01,9.99999e-01,9.99999e-01,1.70786e-01,9.99999e-01
5.843602750e-01,1.76853e-01,9.99999e-01,9.99999e-01,1.76853e-01,9.99999e-01
5.872820764e-01,1.83010e-01,9.99999e-01,9.99999e-01,1.83010e-01,9.99999e-01
5.902184868e-01,1.89253e-01,9.99999e-01,9.99999e-01,1.89253e-01,9.99999e-01
5.931695792e-01,1.95579e-01,9.99999e-01,9.99999e-01,1.95579e-01,9.99999e-01
5.961354271e-01,2.01986e-01,9.99999e-01,9.99999e-01,2.01986e-01,9.99999e-01
5.991161043e-01,2.08470e-01,9.99999e-01,9.99999e-01,2.08470e-01,9.99999e-01
6.021116848e-01,2.15027e-01,9.99999e-01,9.99999e-01,2.15027e-01,9.99999e-01
6.051222432e-01,2.21655e-01,9.99999e-01,9.99999e-01,2.21655e-01,9.99999e-01
6.081478544e-01,2.28351e-01,9.99999e-01,9.99999e-01,2.28351e-01,9.99999e-01
6.111885937e-01,2.35110e-01,9.99999e-01,9.99999e-01,2.35110e-01,9.99999e-01
6.142445367e-01,2.41931e-01,9.99999e-01,9.99999e-01,2.41931e-01,9.99999e-01
6.173157594e-01,2.48808e-01,9.99999e-01,9.99999e-01,2.48808e-01,9.99999e-01
6.204023382e-01,2.55739e-01,9.99999e-01,9.99999e-01,2.55739e-01,9.99999e-01
6.235043498e-01,2.62721e-01,9.99999e-01,9.99999e-01,2.62721e-01,9.99999e-01
6.266218716e-01,2.69750e-01,9.99999e-01,9.99999e-01,2.69750e-01,9.99999e-01
6.297549810e-01,2.76822e-01,9.99999e-01,9.99999e-01,2.76822e-01,9.99999e-01
6.329037559e-01,2.83935e-01,9.99999e-01,9.99999e-01,2.83935e-01,9.99999e-01
6.360682746e-01,2.91085e-01,9.99999e-01,9.99999e-01,2.91085e-01,9.99999e-01
6.392486160e-01,2.98268e-01,9.99999e-01,9.99999e-01,2.98268e-01,9.99999e-01
6.424448591e-01,3.05481e-01,9.99999e-01,9.99999e-01,3.05481e-01,9.99999e-01
6.456570834e-01,3.12721e-01,9.99999e-01,9.99999e-01,3.12721e-01,9.99999e-01
6.488853688e-01,3.19985e-01,9.99999e-01,9.99999e-01,3.19985e-01,9.99999e-01
6.521297956e-01,3.27268e-01,9.99999e-01,9.99999e-01,3.27268e-01,9.99999e-01
6.553904446e-01,3.34569e-01,9.99999e-01,9.99999e-01,3.34569e-01,9.99999e-01
6.586673968e-01,3.41884e-01,9.99999e-01,9.99999e-01,3.41884e-01,9.99999e-01
6.619607338e-01,3.49209e-01,9.99999e-01,9.99999e-01,3.49209e-01,9.99999e-01
6.652705375e-01,3.56542e-01,9.99999e-01,9.99999e-01,3.56542e-01,9.99999e-01
6.685968902e-01,3.63879e-01,9.99999e-01,9.99999e-01,3.63879e-01,9.99999e-01
6.719398746e-01,3.71219e-01,9.99999e-01,9.99999e-01,3.71219e-01,9.99999e-01
6.752995740e-01,3.78556e-01,9.99999e-01,9.99999e-01,3.78556e-01,9.99999e-01
6.786760719e-01,3.85890e-01,9.99999e-01,9.99999e-01,3.85890e-01,9.99999e-01
6.820694522e-01,3.93217e-01,9.99999e-01,9.99999e-01,3.93217e-01,9.99999e-01
6.854797995e-01,4.00534e-01,9.99999e-01,9.99999e-01,4.00534e-01,9.99999e-01
6.889071985e-01,4.07838e-01,9.99999e-01,9.99999e-01,4.07838e-01,9.99999e-01
6.923517345e-01,4.15128e-01,9.99999e-01,9.99999e-01,4.15128e-01,9.99999e-01
6.958134932e-01,4.22399e-01,9.99999e-01,9.99999e-01,4.22399e-01,9.99999e-01
6.992925606e-01,4.29651e-01,9.99999e-01,9.99999e-01,4.29651e-01,9.99999e-01
7.027890234e-01,4.36881e-01,9.99999e-01,9.99999e-01,4.36881e-01,9.99999e-01
7.063029686e-01,4.44086e-01,9.99999e-01,9.99999e-01,4.44086e-01,9.99999e-01
7.098344834e-01,4.51264e-01,9.99999e-01,9.99999e-01,4.51264e-01,9.99999e-01
7.133836558e-01,4.58412e-01,9.99999e-01,9.99999e-01,4.58412e-01,9.99999e-01
7.169505741e-01,4.65529e-01,9.99999e-01,9.99999e-01,4.65529e-01,9.99999e-01
7.205353270e-01,4.72613e-01,9.99999e-01,9.99999e-01,4.72613e-01,9.99999e-01
7.241380036e-01,4.79662e-01,9.99999e-01,9.99999e-01,4.79662e-01,9.99999e-01
7.277586936e-01,4.86673e-01,9.99999e-01,9.99999e-01,4.86673e-01,9.99999e-01
7.313974871e-01,4.93646e-01,9.99999e-01,9.99999e-01,4.93646e-01,9.99999e-01
7.350544745e-01,5.00577e-01,9.99999e-01,9.99999e-01,5.00577e-01,9.99999e-01
7.387297469e-01,5.07467e-01,9.99999e-01,9.99999e-01,5.07467e-01,9.99999e-01
7.424233956e-01,5.14312e-01,9.99999e-01,9.99999e-01,5.14312e-01,9.99999e-01
7.461355126e-01,5.21111e-01,9.99999e-01,9.99999e-01,5.21111e-01,9.99999e-01
7.498661902e-01,5.27863e-01,9.99999e-01,9.99999e-01,5.27863e-01,9.99999e-01
7.536155211e-01,5.34567e-01,9.99999e-01,9.99999e-01,5.34567e-01,9.99999e-01
7.573835987e-01,5.41222e-01,9.99999e-01,9.99999e-01,5.41222e-01,9.99999e-01
7.611705167e-01,5.47825e-01,9.99999e-01,9.99999e-01,5.47825e-01,9.99999e-01
7.649763693e-01,5.54376e-01,9.99999e-01,9.99999e-01,5.54376e-01,9.99999e-01
7.688012511e-01,5.60873e-01,9.99999e-01,9.99999e-01,5.60873e-01,9.99999e-01
7.726452574e-01,5.67316e-01,9.99999e-01,9.99999e-01,5.67316e-01,9.99999e-01
7.765084837e-01,5.73704e-01,9.99999e-01,9.99999e-01,5.73704e-01,9.99999e-01
7.803910261e-01,5.65208e-01,9.99999e-01,9.74436e-01,5.80035e-01,9.99999e-01
7.842929812e-01,5.23002e-01,9.99999e-01,8.92024e-01,5.86309e-01,9.99999e-01
7.882144461e-01,5.24315e-01,9.99999e-01,8.84882e-01,5.92525e-01,9.99999e-01
7.921555184e-01,5.57780e-01,9.99999e-01,9.31680e-01,5.98682e-01,9.99999e-01
7.961162960e-01,5.76769e-01,9.99999e-01,9.53684e-01,6.04780e-01,9.99999e-01
8.000968774e-01,5.95332e-01,9.99999e-01,9.74648e-01,6.10817e-01,9.99999e-01
8.040973618e-01,6.08636e-01,9.99999e-01,9.86773e-01,6.16794e-01,9.99999e-01
8.081178486e-01,6.18922e-01,9.99999e-01,9.93917e-01,6.22709e-01,9.99999e-01
8.121584379e-01,6.27376e-01,9.99999e-01,9.98112e-01,6.28563e-01,9.99999e-01
8.162192301e-01,6.34089e-01,9.99999e-01,9.99582e-01,6.34354e-01,9.99999e-01
8.203003262e-01,6.40079e-01,9.99999e-01,9.99993e-01,6.40083e-01,9.99999e-01
8.244018279e-01,6.45748e-01,9.99999e-01,9.99999e-01,6.45748e-01,9.99999e-01
8.285238370e-01,6.51351e-01,9.99999e-01,9.99999e-01,6.51351e-01,9.99999e-01
8.326664562e-01,6.56890e-01,9.99999e-01,9.99999e-01,6.56890e-01,9.99999e-01
8.368297885e-01,6.62365e-01,9.99999e-01,9.99999e-01,6.62365e-01,9.99999e-01
8.410139374e-01,6.67777e-01,9.99999e-01,9.99999e-01,6.67777e-01,9.99999e-01
8.452190071e-01,6.73124e-01,9.99999e-01,9.99999e-01,6.73124e-01,9.99999e-01
8.494451021e-01,6.78408e-01,9.99999e-01,9.99999e-01,6.78408e-01,9.99999e-01
8.536923276e-01,6.83627e-01,9.99999e-01,9.99999e-01,6.83627e-01,9.99999e-01
8.579607893e-01,6.88782e-01,9.99999e-01,9.99999e-01,6.88782e-01,9.99999e-01
8.622505932e-01,6.93874e-01,9.99999e-01,9.99999e-01,6.93874e-01,9.99999e-01
8.665618462e-01,6.55976e-01,9.99999e-01,9.38582e-01,6.98901e-01,9.99999e-01
8.708946554e-01,5.25748e-01,9.99999e-01,7.46944e-01,7.03864e-01,9.99999e-01
8.752491287e-01,5.60914e-01,9.99999e-01,7.91397e-01,7.08763e-01,9.99999e-01
8.796253743e-01,6.27915e-01,9.99999e-01,8.79926e-01,7.13599e-01,9.99999e-01
8.840235012e-01,6.72392e-01,9.99999e-01,9.35995e-01,7.18371e-01,9.99999e-01
8.884436187e-01,7.04471e-01,9.99999e-01,9.74264e-01,7.23080e-01,9.99999e-01
8.928858368e-01,7.20092e-01,9.99999e-01,9.89510e-01,7.27725e-01,9.99999e-01
8.973502660e-01,7.30432e-01,9.99999e-01,9.97437e-01,7.32308e-01,9.99999e-01
9.018370173e-01,7.36621e-01,9.99999e-01,9.99716e-01,7.36829e-01,9.99999e-01
9.063462024e-01,7.35967e-01,9.99999e-01,9.92822e-01,7.41287e-01,9.99999e-01
9.108779334e-01,7.33380e-01,9.99999e-01,9.83499e-01,7.45684e-01,9.99999e-01
9.154323231e-01,7.47088e-01,9.99999e-01,9.96092e-01,7.50018e-01,9.99999e-01
9.200094847e-01,7.12196e-01,9.99999e-01,9.44190e-01,7.54292e-01,9.99999e-01
9.246095321e-01,6.99153e-01,9.99999e-01,9.21750e-01,7.58505e-01,9.99999e-01
9.292325798e-01,7.15534e-01,9.99999e-01,9.38211e-01,7.62657e-01,9.99999e-01
9.338787427e-01,7.20823e-01,9.99999e-01,9.40100e-01,7.66750e-01,9.99999e-01
9.385481364e-01,7.36627e-01,9.99999e-01,9.55686e-01,7.70783e-01,9.99999e-01
9.432408771e-01,7.53552e-01,9.99999e-01,9.72630e-01,7.74757e-01,9.99999e-01
9.479570815e-01,7.67677e-01,9.99999e-01,9.85879e-01,7.78672e-01,9.99999e-01
9.526968669e-01,7.77180e-01,9.99999e-01,9.93162e-01,7.82530e-01,9.99999e-01
9.574603512e-01,7.84026e-01,9.99999e-01,9.97070e-01,7.86329e-01,9.99999e-01
9.622476530e-01,7.89349e-01,9.99999e-01,9.99085e-01,7.90072e-01,9.99999e-01
9.670588912e-01,7.93540e-01,9.99999e-01,9.99725e-01,7.93757e-01,9.99999e-01
9.718941857e-01,7.97372e-01,9.99999e-01,9.99980e-01,7.97387e-01,9.99999e-01
9.767536566e-01,8.00961e-01,9.99999e-01,9.99999e-01,8.00961e-01,9.99999e-01
9.816374249e-01,8.04480e-01,9.99999e-01,9.99999e-01,8.04480e-01,9.99999e-01
9.865456120e-01,8.07945e-01,9.99999e-01,9.99999e-01,8.07945e-01,9.99999e-01
9.914783401e-01,8.11355e-01,9.99999e-01,9.99999e-01,8.11355e-01,9.99999e-01
9.964357318e-01,8.14713e-01,9.99999e-01,9.99999e-01,8.14713e-01,9.99999e-01
1.001417910e+00,8.18017e-01,9.99999e-01,9.99999e-01,8.18017e-01,9.99999e-01
1.006425000e+00,8.21269e-01,9.99999e-01,9.99999e-01,8.21269e-01,9.99999e-01
1.011457125e+00,8.24469e-01,9.99999e-01,9.99999e-01,8.24469e-01,9.99999e-01
1.016514411e+00,8.27619e-01,9.99999e-01,9.99999e-01,8.27619e-01,9.99999e-01
1.021596983e+00,8.30687e-01,9.99999e-01,9.99962e-01,8.30717e-01,9.99999e-01
1.026704968e+00,8.31437e-01,9.99999e-01,9.97205e-01,8.33766e-01,9.99999e-01
1.031838492e+00,8.07191e-01,9.99999e-01,9.64654e-01,8.36766e-01,9.99999e-01
1.036997685e+00,1.67068e-01,9.99999e-01,1.98957e-01,8.39716e-01,9.99999e-01
1.042182673e+00,1.65907e-01,9.99999e-01,1.96894e-01,8.42619e-01,9.99999e-01
1.047393587e+00,1.75084e-01,9.99999e-01,2.07083e-01,8.45474e-01,9.99999e-01
1.052630555e+00,1.07088e-02,9.99999e-01,1.26241e-02,8.48282e-01,9.99999e-01
1.057893707e+00,2.38113e-02,9.99999e-01,2.79790e-02,8.51043e-01,9.99999e-01
1.063183176e+00,6.22905e-02,9.99999e-01,7.29602e-02,8.53759e-01,9.99999e-01
1.068499092e+00,1.43424e-01,9.99999e-01,1.67467e-01,8.56429e-01,9.99999e-01
1.073841587e+00,2.77783e-01,9.99999e-01,3.23358e-01,8.59055e-01,9.99999e-01
1.079210795e+00,4.21985e-01,9.99999e-01,4.89747e-01,8.61637e-01,9.99999e-01
1.084606849e+00,5.84187e-01,9.99999e-01,6.76005e-01,8.64175e-01,9.99999e-01
1.090029883e+00,7.07498e-01,9.99999e-01,8.16340e-01,8.66671e-01,9.99999e-01
1.095480033e+00,7.86430e-01,9.99999e-01,9.04853e-01,8.69124e-01,9.99999e-01
1.100957433e+00,8.30586e-01,9.99999e-01,9.53014e-01,8.71535e-01,9.99999e-01
1.106462220e+00,8.56684e-01,9.99999e-01,9.80292e-01,8.73905e-01,9.99999e-01
1.111994531e+00,8.69797e-01,9.99999e-01,9.92651e-01,8.76235e-01,9.99999e-01
1.117554504e+00,8.76943e-01,9.99999e-01,9.98198e-01,8.78525e-01,9.99999e-01
1.123142276e+00,8.80671e-01,9.99999e-01,9.99881e-01,8.80775e-01,9.99999e-01
1.128757988e+00,8.82986e-01,9.99999e-01,9.99999e-01,8.82986e-01,9.99999e-01
1.134401778e+00,8.85159e-01,9.99999e-01,9.99999e-01,8.85159e-01,9.99999e-01
1.140073787e+00,8.87295e-01,9.99999e-01,9.99999e-01,8.87295e-01,9.99999e-01
1.145774156e+00,8.89393e-01,9.99999e-01,9.99999e-01,8.89393e-01,9.99999e-01
1.151503026e+00,8.91455e-01,9.99999e-01,9.99999e-01,8.91455e-01,9.99999e-01
1.157260541e+00,8.93480e-01,9.99999e-01,9.99999e-01,8.93480e-01,9.99999e-01
1.163046844e+00,8.95470e-01,9.99999e-01,9.99999e-01,8.95470e-01,9.99999e-01
1.168862078e+00,8.97425e-01,9.99999e-01,9.99999e-01,8.97425e-01,9.99999e-01
1.174706389e+00,8.99346e-01,9.99999e-01,9.99999e-01,8.99346e-01,9.99999e-01
1.180579921e+00,9.01232e-01,9.99999e-01,9.99999e-01,9.01232e-01,9.99999e-01
1.186482820e+00,9.03081e-01,9.99999e-01,9.99994e-01,9.03085e-01,9.99999e-01
1.192415234e+00,8.95887e-01,9.99999e-01,9.90033e-01,9.04905e-01,9.99999e-01
1.198377311e+00,5.16601e-01,9.99999e-01,5.69763e-01,9.06693e-01,9.99999e-01
1.204369197e+00,5.64549e-09,9.99999e-01,6.21441e-09,9.08449e-01,9.99999e-01
1.210391043e+00,3.84055e-31,9.99999e-01,4.21957e-31,9.10174e-01,9.99999e-01
1.216442998e+00,3.53546e-27,9.99999e-01,3.87716e-27,9.11867e-01,9.99999e-01
1.222525213e+00,8.56928e-27,9.99999e-01,9.38039e-27,9.13531e-01,9.99999e-01
1.228637839e+00,1.00582e-20,9.99999e-01,1.09906e-20,9.15164e-01,9.99999e-01
1.234781029e+00,9.58923e-14,9.99999e-01,1.04598e-13,9.16768e-01,9.99999e-01
1.240954934e+00,2.52588e-09,9.99999e-01,2.75047e-09,9.18343e-01,9.99999e-01
1.247159708e+00,1.97269e-05,9.99999e-01,2.14448e-05,9.19889e-01,9.99999e-01
1.253395507e+00,1.88219e-03,9.99999e-01,2.04273e-03,9.21408e-01,9.99999e-01
1.259662485e+00,2.67616e-02,9.99999e-01,2.89973e-02,9.22899e-01,9.99999e-01
1.265960797e+00,1.18272e-01,9.99999e-01,1.27950e-01,9.24363e-01,9.99999e-01
1.272290601e+00,3.93260e-01,9.99999e-01,4.24778e-01,9.25800e-01,9.99999e-01
1.278652054e+00,3.41246e-01,9.99999e-01,3.68035e-01,9.27211e-01,9.99999e-01
1.285045314e+00,1.47893e-02,9.99999e-01,1.59265e-02,9.28596e-01,9.99999e-01
1.291470541e+00,2.34379e-04,9.99999e-01,2.52032e-04,9.29956e-01,9.99999e-01
1.297927893e+00,1.23367e-02,9.99999e-01,1.32469e-02,9.31290e-01,9.99999e-01
1.304417533e+00,1.96907e-01,9.99999e-01,2.11137e-01,9.32601e-01,9.99999e-01
1.310939621e+00,5.08938e-02,9.99999e-01,5.44967e-02,9.33887e-01,9.99999e-01
1.317494319e+00,3.50354e-11,9.99999e-01,3.74650e-11,9.35150e-01,9.99999e-01
1.324081790e+00,6.15220e-08,9.99999e-01,6.57013e-08,9.36389e-01,9.99999e-01
1.330702199e+00,1.08979e-04,9.99999e-01,1.16231e-04,9.37605e-01,9.99999e-01
1.337355710e+00,1.02878e-04,9.99999e-01,1.09585e-04,9.38799e-01,9.99999e-01
1.344042489e+00,3.08081e-05,9.99999e-01,3.27755e-05,9.39971e-01,9.99999e-01
1.350762701e+00,7.33455e-05,9.99999e-01,7.79341e-05,9.41121e-01,9.99999e-01
1.357516515e+00,2.02215e-03,9.99999e-01,2.14609e-03,9.42250e-01,9.99999e-01
1.364304097e+00,1.87388e-02,9.99999e-01,1.98639e-02,9.43358e-01,9.99999e-01
1.371125618e+00,1.20688e-01,9.99999e-01,1.27787e-01,9.44445e-01,9.99999e-01
1.377981246e+00,1.78662e-01,9.99999e-01,1.88958e-01,9.45512e-01,9.99999e-01
1.384871152e+00,3.58843e-01,9.99999e-01,3.79103e-01,9.46559e-01,9.99999e-01
1.391795508e+00,3.86731e-01,9.99999e-01,4.08122e-01,9.47586e-01,9.99999e-01
1.398754485e+00,5.46233e-01,9.99999e-01,5.75833e-01,9.48594e-01,9.99999e-01
1.405748258e+00,6.32072e-01,9.99999e-01,6.65630e-01,9.49584e-01,9.99999e-01
1.412776999e+00,7.35200e-01,9.99999e-01,7.73443e-01,9.50554e-01,9.99999e-01
1.419840884e+00,6.69946e-01,9.99999e-01,7.04089e-01,9.51507e-01,9.99999e-01
1.426940089e+00,7.40098e-02,9.99999e-01,7.77053e-02,9.52442e-01,9.99999e-01
1.434074789e+00,0.00000e+00,9.99999e-01,0.00000e+00,9.53359e-01,9.99999e-01
1.441245163e+00,0.00000e+00,9.99999e-01,0.00000e+00,9.54259e-01,9.99999e-01
1.448451389e+00,0.00000e+00,9.99999e-01,0.00000e+00,9.55141e-01,9.99999e-01
1.455693646e+00,4.55882e-246,9.99999e-01,4.76860e-246,9.56008e-01,9.99999e-01
1.462972114e+00,1.62808e-119,9.99999e-01,1.70149e-119,9.56858e-01,9.99999e-01
1.470286975e+00,1.67901e-50,9.99999e-01,1.75319e-50,9.57692e-01,9.99999e-01
