#,Wave/freq,Total,N2,CO2,Rayleigh,CIA
4.000000000e-01,1.55342e-03,9.99999e-01,9.99999e-01,1.55342e-03,9.99999e-01
4.020000000e-01,1.76533e-03,9.99999e-01,9.99999e-01,1.76533e-03,9.99999e-01
4.040100000e-01,2.00082e-03,9.99999e-01,9.99999e-01,2.00082e-03,9.99999e-01
4.060300500e-01,2.26212e-03,9.99999e-01,9.99999e-01,2.26212e-03,9.99999e-01
4.080602003e-01,2.55135e-03,9.99999e-01,9.99999e-01,2.55135e-03,9.99999e-01
4.101005013e-01,2.87074e-03,9.99999e-01,9.99999e-01,2.87074e-03,9.99999e-01
4.121510038e-01,3.22258e-03,9.99999e-01,9.99999e-01,3.22258e-03,9.99999e-01
4.142117588e-01,3.60930e-03,9.99999e-01,9.99999e-01,3.60930e-03,9.99999e-01
4.162828176e-01,4.03339e-03,9.99999e-01,9.99999e-01,4.03339e-03,9.99999e-01
4.183642317e-01,4.49743e-03,9.99999e-01,9.99999e-01,4.49743e-03,9.99999e-01
4.204560528e-01,5.00408e-03,9.99999e-01,9.99999e-01,5.00408e-03,9.99999e-01
4.225583331e-01,5.55607e-03,9.99999e-01,9.99999e-01,5.55607e-03,9.99999e-01
4.246711247e-01,6.15622e-03,9.99999e-01,9.99999e-01,6.15622e-03,9.99999e-01
4.267944804e-01,6.80740e-03,9.99999e-01,9.99999e-01,6.80740e-03,9.99999e-01
4.289284528e-01,7.51251e-03,9.99999e-01,9.99999e-01,7.51251e-03,9.99999e-01
4.310730950e-01,8.27453e-03,9.99999e-01,9.99999e-01,8.27453e-03,9.99999e-01
4.332284605e-01,9.09648e-03,9.99999e-01,9.99999e-01,9.09648e-03,9.99999e-01
4.353946028e-01,9.98138e-03,9.99999e-01,9.99999e-01,9.98138e-03,9.99999e-01
4.375715758e-01,1.09323e-02,9.99999e-01,9.99999e-01,1.09323e-02,9.99999e-01
4.397594337e-01,1.19523e-02,9.99999e-01,9.99999e-01,1.19523e-02,9.99999e-01
4.419582309e-01,1.30445e-02,9.99999e-01,9.99999e-01,1.30445e-02,9.99999e-01
4.441680220e-01,1.42119e-02,9.99999e-01,9.99999e-01,1.42119e-02,9.99999e-01
4.463888621e-01,1.54576e-02,9.99999e-01,9.99999e-01,1.54576e-02,9.99999e-01
4.486208064e-01,1.67846e-02,9.99999e-01,9.99999e-01,1.67846e-02,9.99999e-01
4.508639105e-01,1.81959e-02,9.99999e-01,9.99999e-01,1.81959e-02,9.99999e-01
4.531182300e-01,1.96944e-02,9.99999e-01,9.99999e-01,1.96944e-02,9.99999e-01
4.553838212e-01,2.12830e-02,9.99999e-01,9.99999e-01,2.12830e-02,9.99999e-01
4.576607403e-01,2.29646e-02,9.99999e-01,9.99999e-01,2.29646e-02,9.99999e-01
4.599490440e-01,2.47419e-02,9.99999e-01,9.99999e-01,2.47419e-02,9.99999e-01
4.622487892e-01,2.66174e-02,9.99999e-01,9.99999e-01,2.66174e-02,9.99999e-01
4.645600332e-01,2.85939e-02,9.99999e-01,9.99999e-01,2.85939e-02,9.99999e-01
4.668828333e-01,3.06736e-02,9.99999e-01,9.99999e-01,3.06736e-02,9.99999e-01
4.692172475e-01,3.28591e-02,9.99999e-01,9.99999e-01,3.28591e-02,9.99999e-01
4.715633337e-01,3.51524e-02,9.99999e-01,9.99999e-01,3.51524e-02,9.99999e-01
4.739211504e-01,3.75557e-02,9.99999e-01,9.99999e-01,3.75557e-02,9.99999e-01
4.762907561e-01,4.00710e-02,9.99999e-01,9.99999e-01,4.00710e-02,9.99999e-01
4.786722099e-01,4.26999e-02,9.99999e-01,9.99999e-01,4.26999e-02,9.99999e-01
4.810655710e-01,4.54443e-02,9.99999e-01,9.99999e-01,4.54443e-02,9.99999e-01
4.834708988e-01,4.83056e-02,9.99999e-01,9.99999e-01,4.83056e-02,9.99999e-01
4.858882533e-01,5.12852e-02,9.99999e-01,9.99999e-01,5.12852e-02,9.99999e-01
4.883176946e-01,5.43842e-02,9.99999e-01,9.99999e-01,5.43842e-02,9.99999e-01
4.907592831e-01,5.76037e-02,9.99999e-01,9.99999e-01,5.76037e-02,9.99999e-01
4.932130795e-01,6.09445e-02,9.99999e-01,9.99999e-01,6.09445e-02,9.99999e-01
4.956791449e-01,6.44073e-02,9.99999e-01,9.99999e-01,6.44073e-02,9.99999e-01
4.981575406e-01,6.79926e-02,9.99999e-01,9.99999e-01,6.79926e-02,9.99999e-01
5.006483283e-01,7.17007e-02,9.99999e-01,9.99999e-01,7.17007e-02,9.99999e-01
5.031515699e-01,7.55318e-02,9.99999e-01,9.99999e-01,7.55318e-02,9.99999e-01
5.056673278e-01,7.94858e-02,9.99999e-01,9.99999e-01,7.94858e-02,9.99999e-01
5.081956644e-01,8.35625e-02,9.99999e-01,9.99999e-01,8.35625e-02,9.99999e-01
5.107366428e-01,8.77616e-02,9.99999e-01,9.99999e-01,8.77616e-02,9.99999e-01
5.132903260e-01,9.20824e-02,9.99999e-01,9.99999e-01,9.20824e-02,9.99999e-01
5.158567776e-01,9.65243e-02,9.99999e-01,9.99999e-01,9.65243e-02,9.99999e-01
5.184360615e-01,1.01086e-01,9.99999e-01,9.99999e-01,1.01086e-01,9.99999e-01
5.210282418e-01,1.05768e-01,9.99999e-01,9.99999e-01,1.05768e-01,9.99999e-01
5.236333830e-01,1.10567e-01,9.99999e-01,9.99999e-01,1.10567e-01,9.99999e-01
5.262515499e-01,1.15482e-01,9.99999e-01,9.99999e-01,1.15482e-01,9.99999e-01
5.288828077e-01,1.20513e-01,9.99999e-01,9.99999e-01,1.20513e-01,9.99999e-01
5.315272217e-01,1.25656e-01,9.99999e-01,9.99999e-01,1.25656e-01,9.99999e-01
5.341848578e-01,1.30911e-01,9.99999e-01,9.99999e-01,1.30911e-01,9.99999e-01
5.368557821e-01,1.36276e-01,9.99999e-01,9.99999e-01,1.36276e-01,9.99999e-01
5.395400610e-01,1.41748e-01,9.99999e-01,9.99999e-01,1.41748e-01,9.99999e-01
5.422377613e-01,1.47325e-01,9.99999e-01,9.99999e-01,1.47325e-01,9.99999e-01
5.449489501e-01,1.53005e-01,9.99999e-01,9.99999e-01,1.53005e-01,9.99999e-01
5.476736949e-01,1.58785e-01,9.99999e-01,9.99999e-01,1.58785e-01,9.99999e-01
5.504120634e-01,1.64663e-01,9.99999e-01,9.99999e-01,1.64663e-01,9.99999e-01
5.531641237e-01,1.70635e-01,9.99999e-01,9.99999e-01,1.70635e-01,9.99999e-01
5.559299443e-01,1.76701e-01,9.99999e-01,9.99999e-01,1.76701e-01,9.99999e-01
5.587095940e-01,1.82855e-01,9.99999e-01,9.99999e-01,1.82855e-01,9.99999e-01
5.615031420e-01,1.89096e-01,9.99999e-01,9.99999e-01,1.89096e-01,9.99999e-01
5.643106577e-01,1.95420e-01,9.99999e-01,9.99999e-01,1.95420e-01,9.99999e-01
5.671322110e-01,2.01825e-01,9.99999e-01,9.99999e-01,2.01825e-01,9.99999e-01
5.699678720e-01,2.08307e-01,9.99999e-01,9.99999e-01,2.08307e-01,9.99999e-01
5.728177114e-01,2.14862e-01,9.99999e-01,9.99999e-01,2.14862e-01,9.99999e-01
5.756818000e-01,2.21489e-01,9.99999e-01,9.99999e-01,2.21489e-01,9.99999e-01
5.785602090e-01,2.28183e-01,9.99999e-01,9.99999e-01,2.28183e-01,9.99999e-01
5.814530100e-01,2.34941e-01,9.99999e-01,9.99999e-01,2.34941e-01,9.99999e-01
5.843602750e-01,2.41759e-01,9.99999e-01,9.99999e-01,2.41759e-01,9.99999e-01
5.872820764e-01,2.48635e-01,9.99999e-01,9.99999e-01,2.48635e-01,9.99999e-01
5.902184868e-01,2.55565e-01,9.99999e-01,9.99999e-01,2.55565e-01,9.99999e-01
5.931695792e-01,2.62546e-01,9.99999e-01,9.99999e-01,2.62546e-01,9.99999e-01
5.961354271e-01,2.69574e-01,9.99999e-01,9.99999e-01,2.69574e-01,9.99999e-01
5.991161043e-01,2.76645e-01,9.99999e-01,9.99999e-01,2.76645e-01,9.99999e-01
6.021116848e-01,2.83757e-01,9.99999e-01,9.99999e-01,2.83757e-01,9.99999e-01
6.051222432e-01,2.90906e-01,9.99999e-01,9.99999e-01,2.90906e-01,9.99999e-01
6.081478544e-01,2.98088e-01,9.99999e-01,9.99999e-01,2.98088e-01,9.99999e-01
6.111885937e-01,3.05300e-01,9.99999e-01,9.99999e-01,3.05300e-01,9.99999e-01
6.142445367e-01,3.12540e-01,9.99999e-01,9.99999e-01,3.12540e-01,9.99999e-01
6.173157594e-01,3.19803e-01,9.99999e-01,9.99999e-01,3.19803e-01,9.99999e-01
6.204023382e-01,3.27086e-01,9.99999e-01,9.99999e-01,3.27086e-01,9.99999e-01
6.235043498e-01,3.34386e-01,9.99999e-01,9.99999e-01,3.34386e-01,9.99999e-01
6.266218716e-01,3.41701e-01,9.99999e-01,9.99999e-01,3.41701e-01,9.99999e-01
6.297549810e-01,3.49026e-01,9.99999e-01,9.99999e-01,3.49026e-01,9.99999e-01
6.329037559e-01,3.56358e-01,9.99999e-01,9.99999e-01,3.56358e-01,9.99999e-01
6.360682746e-01,3.63696e-01,9.99999e-01,9.99999e-01,3.63696e-01,9.99999e-01
6.392486160e-01,3.71035e-01,9.99999e-01,9.99999e-01,3.71035e-01,9.99999e-01
6.424448591e-01,3.78373e-01,9.99999e-01,9.99999e-01,3.78373e-01,9.99999e-01
6.456570834e-01,3.85707e-01,9.99999e-01,9.99999e-01,3.85707e-01,9.99999e-01
6.488853688e-01,3.93033e-01,9.99999e-01,9.99999e-01,3.93033e-01,9.99999e-01
6.521297956e-01,4.00351e-01,9.99999e-01,9.99999e-01,4.00351e-01,9.99999e-01
6.553904446e-01,4.07655e-01,9.99999e-01,9.99999e-01,4.07655e-01,9.99999e-01
6.586673968e-01,4.14945e-01,9.99999e-01,9.99999e-01,4.14945e-01,9.99999e-01
6.619607338e-01,4.22218e-01,9.99999e-01,9.99999e-01,4.22218e-01,9.99999e-01
6.652705375e-01,4.29470e-01,9.99999e-01,9.99999e-01,4.29470e-01,9.99999e-01
6.685968902e-01,4.36700e-01,9.99999e-01,9.99999e-01,4.36700e-01,9.99999e-01
6.719398746e-01,4.43906e-01,9.99999e-01,9.99999e-01,4.43906e-01,9.99999e-01
6.752995740e-01,4.51084e-01,9.99999e-01,9.99999e-01,4.51084e-01,9.99999e-01
6.786760719e-01,4.58234e-01,9.99999e-01,9.99999e-01,4.58234e-01,9.99999e-01
6.820694522e-01,4.65352e-01,9.99999e-01,9.99999e-01,4.65352e-01,9.99999e-01
6.854797995e-01,4.72437e-01,9.99999e-01,9.99999e-01,4.72437e-01,9.99999e-01
6.889071985e-01,4.79486e-01,9.99999e-01,9.99999e-01,4.79486e-01,9.99999e-01
6.923517345e-01,4.86498e-01,9.99999e-01,9.99999e-01,4.86498e-01,9.99999e-01
6.958134932e-01,4.93472e-01,9.99999e-01,9.99999e-01,4.93472e-01,9.99999e-01
6.992925606e-01,5.00404e-01,9.99999e-01,9.99999e-01,5.00404e-01,9.99999e-01
7.027890234e-01,5.07295e-01,9.99999e-01,9.99999e-01,5.07295e-01,9.99999e-01
7.063029686e-01,5.14141e-01,9.99999e-01,9.99999e-01,5.14141e-01,9.99999e-01
7.098344834e-01,5.20942e-01,9.99999e-01,9.99999e-01,5.20942e-01,9.99999e-01
7.133836558e-01,5.27695e-01,9.99999e-01,9.99999e-01,5.27695e-01,9.99999e-01
7.169505741e-01,5.34400e-01,9.99999e-01,9.99999e-01,5.34400e-01,9.99999e-01
7.205353270e-01,5.41056e-01,9.99999e-01,9.99999e-01,5.41056e-01,9.99999e-01
7.241380036e-01,5.47660e-01,9.99999e-01,9.99999e-01,5.47660e-01,9.99999e-01
7.277586936e-01,5.54212e-01,9.99999e-01,9.99999e-01,5.54212e-01,9.99999e-01
7.313974871e-01,5.60711e-01,9.99999e-01,9.99999e-01,5.60711e-01,9.99999e-01
7.350544745e-01,5.67156e-01,9.99999e-01,9.99999e-01,5.67156e-01,9.99999e-01
7.387297469e-01,5.73545e-01,9.99999e-01,9.99999e-01,5.73545e-01,9.99999e-01
7.424233956e-01,5.79877e-01,9.99999e-01,9.99999e-01,5.79877e-01,9.99999e-01
7.461355126e-01,5.86153e-01,9.99999e-01,9.99999e-01,5.86153e-01,9.99999e-01
7.498661902e-01,5.92370e-01,9.99999e-01,9.99999e-01,5.92370e-01,9.99999e-01
7.536155211e-01,5.98529e-01,9.99999e-01,9.99999e-01,5.98529e-01,9.99999e-01
7.573835987e-01,6.04628e-01,9.99999e-01,9.99999e-01,6.04628e-01,9.99999e-01
7.611705167e-01,6.10667e-01,9.99999e-01,9.99999e-01,6.10667e-01,9.99999e-01
7.649763693e-01,6.16645e-01,9.99999e-01,9.99999e-01,6.16645e-01,9.99999e-01
7.688012511e-01,6.22562e-01,9.99999e-01,9.99999e-01,6.22562e-01,9.99999e-01
7.726452574e-01,6.28417e-01,9.99999e-01,9.99999e-01,6.28417e-01,9.99999e-01
7.765084837e-01,6.34210e-01,9.99999e-01,9.99999e-01,6.34210e-01,9.99999e-01
7.803910261e-01,6.26293e-01,9.99999e-01,9.78674e-01,6.39940e-01,9.99999e-01
7.842929812e-01,5.87671e-01,9.99999e-01,9.10259e-01,6.45607e-01,9.99999e-01
7.882144461e-01,5.88784e-01,9.99999e-01,9.04135e-01,6.51212e-01,9.99999e-01
7.921555184e-01,6.19699e-01,9.99999e-01,9.43581e-01,6.56752e-01,9.99999e-01
7.961162960e-01,6.36984e-01,9.99999e-01,9.61878e-01,6.62229e-01,9.99999e-01
8.000968774e-01,6.53739e-01,9.99999e-01,9.79174e-01,6.67642e-01,9.99999e-01
8.040973618e-01,6.65691e-01,9.99999e-01,9.89151e-01,6.72991e-01,9.99999e-01
8.081178486e-01,6.74894e-01,9.99999e-01,9.95012e-01,6.78276e-01,9.99999e-01
8.121584379e-01,6.82441e-01,9.99999e-01,9.98453e-01,6.83497e-01,9.99999e-01
8.162192301e-01,6.88419e-01,9.99999e-01,9.99658e-01,6.88654e-01,9.99999e-01
8.203003262e-01,6.93743e-01,9.99999e-01,9.99994e-01,6.93747e-01,9.99999e-01
8.244018279e-01,6.98776e-01,9.99999e-01,9.99999e-01,6.98776e-01,9.99999e-01
8.285238370e-01,7.03740e-01,9.99999e-01,9.99999e-01,7.03740e-01,9.99999e-01
8.326664562e-01,7.08641e-01,9.99999e-01,9.99999e-01,7.08641e-01,9.99999e-01
8.368297885e-01,7.13479e-01,9.99999e-01,9.99999e-01,7.13479e-01,9.99999e-01
8.410139374e-01,7.18252e-01,9.99999e-01,9.99999e-01,7.18252e-01,9.99999e-01
8.452190071e-01,7.22963e-01,9.99999e-01,9.99999e-01,7.22963e-01,9.99999e-01
8.494451021e-01,7.27610e-01,9.99999e-01,9.99999e-01,7.27610e-01,9.99999e-01
8.536923276e-01,7.32195e-01,9.99999e-01,9.99999e-01,7.32195e-01,9.99999e-01
8.579607893e-01,7.36717e-01,9.99999e-01,9.99999e-01,7.36717e-01,9.99999e-01
8.622505932e-01,7.41176e-01,9.99999e-01,9.99999e-01,7.41176e-01,9.99999e-01
8.665618462e-01,7.05480e-01,9.99999e-01,9.46222e-01,7.45574e-01,9.99999e-01
8.708946554e-01,5.89210e-01,9.99999e-01,7.85706e-01,7.49911e-01,9.99999e-01
8.752491287e-01,6.22030e-01,9.99999e-01,8.24769e-01,7.54186e-01,9.99999e-01
8.796253743e-01,6.82792e-01,9.99999e-01,9.00305e-01,7.58400e-01,9.99999e-01
8.840235012e-01,7.22300e-01,9.99999e-01,9.47210e-01,7.62554e-01,9.99999e-01
8.884436187e-01,7.50445e-01,9.99999e-01,9.78864e-01,7.66648e-01,9.99999e-01
8.928858368e-01,7.64053e-01,9.99999e-01,9.91397e-01,7.70683e-01,9.99999e-01
8.973502660e-01,7.73033e-01,9.99999e-01,9.97901e-01,7.74658e-01,9.99999e-01
9.018370173e-01,7.78395e-01,9.99999e-01,9.99768e-01,7.78575e-01,9.99999e-01
9.063462024e-01,7.77817e-01,9.99999e-01,9.94098e-01,7.82434e-01,9.99999e-01
9.108779334e-01,7.75587e-01,9.99999e-01,9.86457e-01,7.86235e-01,9.99999e-01
9.154323231e-01,7.87450e-01,9.99999e-01,9.96798e-01,7.89979e-01,9.99999e-01
9.200094847e-01,7.56811e-01,9.99999e-01,9.53563e-01,7.93666e-01,9.99999e-01
9.246095321e-01,7.45771e-01,9.99999e-01,9.35373e-01,7.97297e-01,9.99999e-01
9.292325798e-01,7.59987e-01,9.99999e-01,9.48948e-01,8.00872e-01,9.99999e-01
9.338787427e-01,7.64649e-01,9.99999e-01,9.50591e-01,8.04393e-01,9.99999e-01
9.385481364e-01,7.78390e-01,9.99999e-01,9.63522e-01,8.07859e-01,9.99999e-01
9.432408771e-01,7.93032e-01,9.99999e-01,9.77517e-01,8.11271e-01,9.99999e-01
9.479570815e-01,8.05191e-01,9.99999e-01,9.88414e-01,8.14629e-01,9.99999e-01
9.526968669e-01,8.13350e-01,9.99999e-01,9.94394e-01,8.17935e-01,9.99999e-01
9.574603512e-01,8.19217e-01,9.99999e-01,9.97599e-01,8.21188e-01,9.99999e-01
9.622476530e-01,8.23772e-01,9.99999e-01,9.99250e-01,8.24390e-01,9.99999e-01
9.670588912e-01,8.27355e-01,9.99999e-01,9.99775e-01,8.27541e-01,9.99999e-01
9.718941857e-01,8.30627e-01,9.99999e-01,9.99983e-01,8.30641e-01,9.99999e-01
9.767536566e-01,8.33691e-01,9.99999e-01,9.99999e-01,8.33691e-01,9.99999e-01
9.816374249e-01,8.36691e-01,9.99999e-01,9.99999e-01,8.36691e-01,9.99999e-01
9.865456120e-01,8.39643e-01,9.99999e-01,9.99999e-01,8.39643e-01,9.99999e-01
9.914783401e-01,8.42547e-01,9.99999e-01,9.99999e-01,8.42547e-01,9.99999e-01
9.964357318e-01,8.45403e-01,9.99999e-01,9.99999e-01,8.45403e-01,9.99999e-01
1.001417910e+00,8.48212e-01,9.99999e-01,9.99999e-01,8.48212e-01,9.99999e-01
1.006425000e+00,8.50975e-01,9.99999e-01,9.99999e-01,8.50975e-01,9.99999e-01
1.011457125e+00,8.53692e-01,9.99999e-01,9.99999e-01,8.53692e-01,9.99999e-01
1.016514411e+00,8.56363e-01,9.99999e-01,9.99999e-01,8.56363e-01,9.99999e-01
1.021596983e+00,8.58964e-01,9.99999e-01,9.99969e-01,8.58990e-01,9.99999e-01
1.026704968e+00,8.59596e-01,9.99999e-01,9.97705e-01,8.61573e-01,9.99999e-01
1.031838492e+00,8.37386e-01,9.99999e-01,9.69070e-01,8.64112e-01,9.99999e-01
1.036997685e+00,2.04852e-01,9.99999e-01,2.36383e-01,8.66609e-01,9.99999e-01
1.042182673e+00,2.25706e-01,9.99999e-01,2.59712e-01,8.69063e-01,9.99999e-01
1.047393587e+00,2.23168e-01,9.99999e-01,2.56081e-01,8.71475e-01,9.99999e-01
1.052630555e+00,2.13477e-02,9.99999e-01,2.44296e-02,8.73846e-01,9.99999e-01
1.057893707e+00,4.38007e-02,9.99999e-01,4.99906e-02,8.76177e-01,9.99999e-01
1.063183176e+00,9.91020e-02,9.99999e-01,1.12812e-01,8.78468e-01,9.99999e-01
1.068499092e+00,2.01849e-01,9.99999e-01,2.29186e-01,8.80719e-01,9.99999e-01
1.073841587e+00,3.48356e-01,9.99999e-01,3.94544e-01,8.82931e-01,9.99999e-01
1.079210795e+00,4.91941e-01,9.99999e-01,5.55798e-01,8.85106e-01,9.99999e-01
1.084606849e+00,6.43382e-01,9.99999e-01,7.25147e-01,8.87242e-01,9.99999e-01
1.090029883e+00,7.52986e-01,9.99999e-01,8.46677e-01,8.89341e-01,9.99999e-01
1.095480033e+00,8.21247e-01,9.99999e-01,9.21296e-01,8.91404e-01,9.99999e-01
1.100957433e+00,8.58877e-01,9.99999e-01,9.61324e-01,8.93430e-01,9.99999e-01
1.106462220e+00,8.80936e-01,9.99999e-01,9.83822e-01,8.95421e-01,9.99999e-01
1.111994531e+00,8.91970e-01,9.99999e-01,9.93975e-01,8.97377e-01,9.99999e-01
1.117554504e+00,8.97971e-01,9.99999e-01,9.98524e-01,8.99298e-01,9.99999e-01
1.123142276e+00,9.01098e-01,9.99999e-01,9.99902e-01,9.01185e-01,9.99999e-01
1.128757988e+00,9.03039e-01,9.99999e-01,9.99999e-01,9.03039e-01,9.99999e-01
1.134401778e+00,9.04860e-01,9.99999e-01,9.99999e-01,9.04860e-01,9.99999e-01
1.140073787e+00,9.06649e-01,9.99999e-01,9.99999e-01,9.06649e-01,9.99999e-01
1.145774156e+00,9.08406e-01,9.99999e-01,9.99999e-01,9.08406e-01,9.99999e-01
1.151503026e+00,9.10131e-01,9.99999e-01,9.99999e-01,9.10131e-01,9.99999e-01
1.157260541e+00,9.11825e-01,9.99999e-01,9.99999e-01,9.11825e-01,9.99999e-01
1.163046844e+00,9.13489e-01,9.99999e-01,9.99999e-01,9.13489e-01,9.99999e-01
1.168862078e+00,9.15123e-01,9.99999e-01,9.99999e-01,9.15123e-01,9.99999e-01
1.174706389e+00,9.16728e-01,9.99999e-01,9.99999e-01,9.16728e-01,9.99999e-01
1.180579921e+00,9.18304e-01,9.99999e-01,9.99999e-01,9.18304e-01,9.99999e-01
1.186482820e+00,9.19848e-01,9.99999e-01,9.99995e-01,9.19851e-01,9.99999e-01
1.192415234e+00,9.13804e-01,9.99999e-01,9.91787e-01,9.21370e-01,9.99999e-01
1.198377311e+00,5.31749e-01,9.99999e-01,5.76196e-01,9.22862e-01,9.99999e-01
1.204369197e+00,9.23540e-08,9.99999e-01,9.99148e-08,9.24326e-01,9.99999e-01
1.210391043e+00,6.27529e-26,9.99999e-01,6.77849e-26,9.25764e-01,9.99999e-01
1.216442998e+00,1.11488e-22,9.99999e-01,1.20245e-22,9.27176e-01,9.99999e-01
1.222525213e+00,2.32789e-22,9.99999e-01,2.50698e-22,9.28561e-01,9.99999e-01
1.228637839e+00,2.93038e-17,9.99999e-01,3.15121e-17,9.29922e-01,9.99999e-01
1.234781029e+00,1.14932e-11,9.99999e-01,1.23415e-11,9.31257e-01,9.99999e-01
1.240954934e+00,6.32372e-08,9.99999e-01,6.78097e-08,9.32568e-01,9.99999e-01
1.247159708e+00,9.83289e-05,9.99999e-01,1.05293e-04,9.33855e-01,9.99999e-01
1.253395507e+00,5.39160e-03,9.99999e-01,5.76568e-03,9.35118e-01,9.99999e-01
1.259662485e+00,4.95938e-02,9.99999e-01,5.29646e-02,9.36358e-01,9.99999e-01
1.265960797e+00,1.70218e-01,9.99999e-01,1.81551e-01,9.37575e-01,9.99999e-01
1.272290601e+00,4.64010e-01,9.99999e-01,4.94274e-01,9.38770e-01,9.99999e-01
1.278652054e+00,4.06436e-01,9.99999e-01,4.32405e-01,9.39942e-01,9.99999e-01
1.285045314e+00,2.37709e-02,9.99999e-01,2.52588e-02,9.41093e-01,9.99999e-01
1.291470541e+00,9.63229e-04,9.99999e-01,1.02229e-03,9.42222e-01,9.99999e-01
1.297927893e+00,2.28220e-02,9.99999e-01,2.41930e-02,9.43330e-01,9.99999e-01
1.304417533e+00,2.62998e-01,9.99999e-01,2.78476e-01,9.44418e-01,9.99999e-01
1.310939621e+00,7.09278e-02,9.99999e-01,7.50172e-02,9.45485e-01,9.99999e-01
1.317494319e+00,2.23725e-09,9.99999e-01,2.36363e-09,9.46533e-01,9.99999e-01
1.324081790e+00,8.86187e-07,9.99999e-01,9.35229e-07,9.47561e-01,9.99999e-01
1.330702199e+00,5.25603e-04,9.99999e-01,5.54100e-04,9.48569e-01,9.99999e-01
1.337355710e+00,4.24861e-04,9.99999e-01,4.47429e-04,9.49559e-01,9.99999e-01
1.344042489e+00,1.32653e-04,9.99999e-01,1.39557e-04,9.50530e-01,9.99999e-01
1.350762701e+00,3.76525e-04,9.99999e-01,3.95724e-04,9.51483e-01,9.99999e-01
1.357516515e+00,5.65086e-03,9.99999e-01,5.93317e-03,9.52418e-01,9.99999e-01
1.364304097e+00,3.77662e-02,9.99999e-01,3.96148e-02,9.53336e-01,9.99999e-01
1.371125618e+00,1.74036e-01,9.99999e-01,1.82383e-01,9.54236e-01,9.99999e-01
1.377981246e+00,2.43266e-01,9.99999e-01,2.54697e-01,9.55120e-01,9.99999e-01
1.384871152e+00,4.31151e-01,9.99999e-01,4.51001e-01,9.55986e-01,9.99999e-01
1.391795508e+00,4.58586e-01,9.99999e-01,4.79273e-01,9.56837e-01,9.99999e-01
1.398754485e+00,6.09160e-01,9.99999e-01,6.36084e-01,9.57671e-01,9.99999e-01
1.405748258e+00,6.86413e-01,9.99999e-01,7.16140e-01,9.58489e-01,9.99999e-01
1.412776999e+00,7.77124e-01,9.99999e-01,8.10100e-01,9.59292e-01,9.99999e-01
1.419840884e+00,7.13837e-01,9.99999e-01,7.43518e-01,9.60080e-01,9.99999e-01
1.426940089e+00,8.70829e-02,9.99999e-01,9.06307e-02,9.60853e-01,9.99999e-01
1.434074789e+00,0.00000e+00,9.99999e-01,0.00000e+00,9.61611e-01,9.99999e-01
1.441245163e+00,0.00000e+00,9.99999e-01,0.00000e+00,9.62355e-01,9.99999e-01
1.448451389e+00,0.00000e+00,9.99999e-01,0.00000e+00,9.63085e-01,9.99999e-01
1.455693646e+00,4.48123e-202,9.99999e-01,4.64953e-202,9.63800e-01,9.99999e-01
1.462972114e+00,2.34382e-98,9.99999e-01,2.43008e-98,9.64503e-01,9.99999e-01
1.470286975e+00,8.53968e-42,9.99999e-01,8.84765e-42,9.65191e-01,9.99999e-01
