#,Wave/freq,Total,N2,CO2,Rayleigh,CIA
4.000000000e-01,3.52855e-07,9.99999e-01,9.99999e-01,3.52855e-07,9.99999e-01
4.020000000e-01,4.73347e-07,9.99999e-01,9.99999e-01,4.73347e-07,9.99999e-01
4.040100000e-01,6.31118e-07,9.99999e-01,9.99999e-01,6.31118e-07,9.99999e-01
4.060300500e-01,8.36708e-07,9.99999e-01,9.99999e-01,8.36708e-07,9.99999e-01
4.080602003e-01,1.10311e-06,9.99999e-01,9.99999e-01,1.10311e-06,9.99999e-01
4.101005013e-01,1.44641e-06,9.99999e-01,9.99999e-01,1.44641e-06,9.99999e-01
4.121510038e-01,1.88643e-06,9.99999e-01,9.99999e-01,1.88643e-06,9.99999e-01
4.142117588e-01,2.44743e-06,9.99999e-01,9.99999e-01,2.44743e-06,9.99999e-01
4.162828176e-01,3.15898e-06,9.99999e-01,9.99999e-01,3.15898e-06,9.99999e-01
4.183642317e-01,4.05690e-06,9.99999e-01,9.99999e-01,4.05690e-06,9.99999e-01
4.204560528e-01,5.18437e-06,9.99999e-01,9.99999e-01,5.18437e-06,9.99999e-01
4.225583331e-01,6.59316e-06,9.99999e-01,9.99999e-01,6.59316e-06,9.99999e-01
4.246711247e-01,8.34506e-06,9.99999e-01,9.99999e-01,8.34506e-06,9.99999e-01
4.267944804e-01,1.05134e-05,9.99999e-01,9.99999e-01,1.05134e-05,9.99999e-01
4.289284528e-01,1.31849e-05,9.99999e-01,9.99999e-01,1.31849e-05,9.99999e-01
4.310730950e-01,1.64614e-05,9.99999e-01,9.99999e-01,1.64614e-05,9.99999e-01
4.332284605e-01,2.04623e-05,9.99999e-01,9.99999e-01,2.04623e-05,9.99999e-01
4.353946028e-01,2.53264e-05,9.99999e-01,9.99999e-01,2.53264e-05,9.99999e-01
4.375715758e-01,3.12151e-05,9.99999e-01,9.99999e-01,3.12151e-05,9.99999e-01
4.397594337e-01,3.83144e-05,9.99999e-01,9.99999e-01,3.83144e-05,9.99999e-01
4.419582309e-01,4.68384e-05,9.99999e-01,9.99999e-01,4.68384e-05,9.99999e-01
4.441680220e-01,5.70320e-05,9.99999e-01,9.99999e-01,5.70320e-05,9.99999e-01
4.463888621e-01,6.91744e-05,9.99999e-01,9.99999e-01,6.91744e-05,9.99999e-01
4.486208064e-01,8.35828e-05,9.99999e-01,9.99999e-01,8.35828e-05,9.99999e-01
4.508639105e-01,1.00616e-04,9.99999e-01,9.99999e-01,1.00616e-04,9.99999e-01
4.531182300e-01,1.20676e-04,9.99999e-01,9.99999e-01,1.20676e-04,9.99999e-01
4.553838212e-01,1.44218e-04,9.99999e-01,9.99999e-01,1.44218e-04,9.99999e-01
4.576607403e-01,1.71747e-04,9.99999e-01,9.99999e-01,1.71747e-04,9.99999e-01
4.599490440e-01,2.03826e-04,9.99999e-01,9.99999e-01,2.03826e-04,9.99999e-01
4.622487892e-01,2.41080e-04,9.99999e-01,9.99999e-01,2.41080e-04,9.99999e-01
4.645600332e-01,2.84198e-04,9.99999e-01,9.99999e-01,2.84198e-04,9.99999e-01
4.668828333e-01,3.33942e-04,9.99999e-01,9.99999e-01,3.33942e-04,9.99999e-01
4.692172475e-01,3.91145e-04,9.99999e-01,9.99999e-01,3.91145e-04,9.99999e-01
4.715633337e-01,4.56717e-04,9.99999e-01,9.99999e-01,4.56717e-04,9.99999e-01
4.739211504e-01,5.31652e-04,9.99999e-01,9.99999e-01,5.31652e-04,9.99999e-01
4.762907561e-01,6.17028e-04,9.99999e-01,9.99999e-01,6.17028e-04,9.99999e-01
4.786722099e-01,7.14010e-04,9.99999e-01,9.99999e-01,7.14010e-04,9.99999e-01
4.810655710e-01,8.23856e-04,9.99999e-01,9.99999e-01,8.23856e-04,9.99999e-01
4.834708988e-01,9.47918e-04,9.99999e-01,9.99999e-01,9.47918e-04,9.99999e-01
4.858882533e-01,1.08764e-03,9.99999e-01,9.99999e-01,1.08764e-03,9.99999e-01
4.883176946e-01,1.24458e-03,9.99999e-01,9.99999e-01,1.24458e-03,9.99999e-01
4.907592831e-01,1.42038e-03,9.99999e-01,9.99999e-01,1.42038e-03,9.99999e-01
4.932130795e-01,1.61678e-03,9.99999e-01,9.99999e-01,1.61678e-03,9.99999e-01
4.956791449e-01,1.83564e-03,9.99999e-01,9.99999e-01,1.83564e-03,9.99999e-01
4.981575406e-01,2.07890e-03,9.99999e-01,9.99999e-01,2.07890e-03,9.99999e-01
5.006483283e-01,2.34862e-03,9.99999e-01,9.99999e-01,2.34862e-03,9.99999e-01
5.031515699e-01,2.64696e-03,9.99999e-01,9.99999e-01,2.64696e-03,9.99999e-01
5.056673278e-01,2.97614e-03,9.99999e-01,9.99999e-01,2.97614e-03,9.99999e-01
5.081956644e-01,3.33853e-03,9.99999e-01,9.99999e-01,3.33853e-03,9.99999e-01
5.107366428e-01,3.73655e-03,9.99999e-01,9.99999e-01,3.73655e-03,9.99999e-01
5.132903260e-01,4.17274e-03,9.99999e-01,9.99999e-01,4.17274e-03,9.99999e-01
5.158567776e-01,4.64968e-03,9.99999e-01,9.99999e-01,4.64968e-03,9.99999e-01
5.184360615e-01,5.17008e-03,9.99999e-01,9.99999e-01,5.17008e-03,9.99999e-01
5.210282418e-01,5.73669e-03,9.99999e-01,9.99999e-01,5.73669e-03,9.99999e-01
5.236333830e-01,6.35234e-03,9.99999e-01,9.99999e-01,6.35234e-03,9.99999e-01
5.262515499e-01,7.01990e-03,9.99999e-01,9.99999e-01,7.01990e-03,9.99999e-01
5.288828077e-01,7.74233e-03,9.99999e-01,9.99999e-01,7.74233e-03,9.99999e-01
5.315272217e-01,8.52259e-03,9.99999e-01,9.99999e-01,8.52259e-03,9.99999e-01
5.341848578e-01,9.36371e-03,9.99999e-01,9.99999e-01,9.36371e-03,9.99999e-01
5.368557821e-01,1.02687e-02,9.99999e-01,9.99999e-01,1.02687e-02,9.99999e-01
5.395400610e-01,1.12407e-02,9.99999e-01,9.99999e-01,1.12407e-02,9.99999e-01
5.422377613e-01,1.22828e-02,9.99999e-01,9.99999e-01,1.22828e-02,9.99999e-01
5.449489501e-01,1.33979e-02,9.99999e-01,9.99999e-01,1.33979e-02,9.99999e-01
5.476736949e-01,1.45892e-02,9.99999e-01,9.99999e-01,1.45892e-02,9.99999e-01
5.504120634e-01,1.58598e-02,9.99999e-01,9.99999e-01,1.58598e-02,9.99999e-01
5.531641237e-01,1.72126e-02,9.99999e-01,9.99999e-01,1.72126e-02,9.99999e-01
5.559299443e-01,1.86506e-02,9.99999e-01,9.99999e-01,1.86506e-02,9.99999e-01
5.587095940e-01,2.01767e-02,9.99999e-01,9.99999e-01,2.01767e-02,9.99999e-01
5.615031420e-01,2.17939e-02,9.99999e-01,9.99999e-01,2.17939e-02,9.99999e-01
5.643106577e-01,2.35048e-02,9.99999e-01,9.99999e-01,2.35048e-02,9.99999e-01
5.671322110e-01,2.53122e-02,9.99999e-01,9.99999e-01,2.53122e-02,9.99999e-01
5.699678720e-01,2.72187e-02,9.99999e-01,9.99999e-01,2.72187e-02,9.99999e-01
5.728177114e-01,2.92269e-02,9.99999e-01,9.99999e-01,2.92269e-02,9.99999e-01
5.756818000e-01,3.13392e-02,9.99999e-01,9.99999e-01,3.13392e-02,9.99999e-01
5.785602090e-01,3.35578e-02,9.99999e-01,9.99999e-01,3.35578e-02,9.99999e-01
5.814530100e-01,3.58850e-02,9.99999e-01,9.99999e-01,3.58850e-02,9.99999e-01
5.843602750e-01,3.83228e-02,9.99999e-01,9.99999e-01,3.83228e-02,9.99999e-01
5.872820764e-01,4.08731e-02,9.99999e-01,9.99999e-01,4.08731e-02,9.99999e-01
5.902184868e-01,4.35376e-02,9.99999e-01,9.99999e-01,4.35376e-02,9.99999e-01
5.931695792e-01,4.63181e-02,9.99999e-01,9.99999e-01,4.63181e-02,9.99999e-01
5.961354271e-01,4.92159e-02,9.99999e-01,9.99999e-01,4.92159e-02,9.99999e-01
5.991161043e-01,5.22323e-02,9.99999e-01,9.99999e-01,5.22323e-02,9.99999e-01
6.021116848e-01,5.53686e-02,9.99999e-01,9.99999e-01,5.53686e-02,9.99999e-01
6.051222432e-01,5.86256e-02,9.99999e-01,9.99999e-01,5.86256e-02,9.99999e-01
6.081478544e-01,6.20041e-02,9.99999e-01,9.99999e-01,6.20041e-02,9.99999e-01
6.111885937e-01,6.55048e-02,9.99999e-01,9.99999e-01,6.55048e-02,9.99999e-01
6.142445367e-01,6.91281e-02,9.99999e-01,9.99999e-01,6.91281e-02,9.99999e-01
6.173157594e-01,7.28743e-02,9.99999e-01,9.99999e-01,7.28743e-02,9.99999e-01
6.204023382e-01,7.67434e-02,9.99999e-01,9.99999e-01,7.67434e-02,9.99999e-01
6.235043498e-01,8.07355e-02,9.99999e-01,9.99999e-01,8.07355e-02,9.99999e-01
6.266218716e-01,8.48501e-02,9.99999e-01,9.99999e-01,8.48501e-02,9.99999e-01
6.297549810e-01,8.90870e-02,9.99999e-01,9.99999e-01,8.90870e-02,9.99999e-01
6.329037559e-01,9.34454e-02,9.99999e-01,9.99999e-01,9.34454e-02,9.99999e-01
6.360682746e-01,9.79247e-02,9.99999e-01,9.99999e-01,9.79247e-02,9.99999e-01
6.392486160e-01,1.02524e-01,9.99999e-01,9.99999e-01,1.02524e-01,9.99999e-01
6.424448591e-01,1.07242e-01,9.99999e-01,9.99999e-01,1.07242e-01,9.99999e-01
6.456570834e-01,1.12077e-01,9.99999e-01,9.99999e-01,1.12077e-01,9.99999e-01
6.488853688e-01,1.17028e-01,9.99999e-01,9.99999e-01,1.17028e-01,9.99999e-01
6.521297956e-01,1.22094e-01,9.99999e-01,9.99999e-01,1.22094e-01,9.99999e-01
6.553904446e-01,1.27272e-01,9.99999e-01,9.99999e-01,1.27272e-01,9.99999e-01
6.586673968e-01,1.32562e-01,9.99999e-01,9.99999e-01,1.32562e-01,9.99999e-01
6.619607338e-01,1.37960e-01,9.99999e-01,9.99999e-01,1.37960e-01,9.99999e-01
6.652705375e-01,1.43464e-01,9.99999e-01,9.99999e-01,1.43464e-01,9.99999e-01
6.685968902e-01,1.49073e-01,9.99999e-01,9.99999e-01,1.49073e-01,9.99999e-01
6.719398746e-01,1.54785e-01,9.99999e-01,9.99999e-01,1.54785e-01,9.99999e-01
6.752995740e-01,1.60595e-01,9.99999e-01,9.99999e-01,1.60595e-01,9.99999e-01
6.786760719e-01,1.66503e-01,9.99999e-01,9.99999e-01,1.66503e-01,9.99999e-01
6.820694522e-01,1.72504e-01,9.99999e-01,9.99999e-01,1.72504e-01,9.99999e-01
6.854797995e-01,1.78597e-01,9.99999e-01,9.99999e-01,1.78597e-01,9.99999e-01
6.889071985e-01,1.84779e-01,9.99999e-01,9.99999e-01,1.84779e-01,9.99999e-01
6.923517345e-01,1.91046e-01,9.99999e-01,9.99999e-01,1.91046e-01,9.99999e-01
6.958134932e-01,1.97396e-01,9.99999e-01,9.99999e-01,1.97396e-01,9.99999e-01
6.992925606e-01,2.03824e-01,9.99999e-01,9.99999e-01,2.03824e-01,9.99999e-01
7.027890234e-01,2.10329e-01,9.99999e-01,9.99999e-01,2.10329e-01,9.99999e-01
7.063029686e-01,2.16907e-01,9.99999e-01,9.99999e-01,2.16907e-01,9.99999e-01
7.098344834e-01,2.23555e-01,9.99999e-01,9.99999e-01,2.23555e-01,9.99999e-01
7.133836558e-01,2.30269e-01,9.99999e-01,9.99999e-01,2.30269e-01,9.99999e-01
7.169505741e-01,2.37046e-01,9.99999e-01,9.99999e-01,2.37046e-01,9.99999e-01
7.205353270e-01,2.43883e-01,9.99999e-01,9.99999e-01,2.43883e-01,9.99999e-01
7.241380036e-01,2.50776e-01,9.99999e-01,9.99999e-01,2.50776e-01,9.99999e-01
7.277586936e-01,2.57722e-01,9.99999e-01,9.99999e-01,2.57722e-01,9.99999e-01
7.313974871e-01,2.64718e-01,9.99999e-01,9.99999e-01,2.64718e-01,9.99999e-01
7.350544745e-01,2.71760e-01,9.99999e-01,9.99999e-01,2.71760e-01,9.99999e-01
7.387297469e-01,2.78844e-01,9.99999e-01,9.99999e-01,2.78844e-01,9.99999e-01
7.424233956e-01,2.85967e-01,9.99999e-01,9.99999e-01,2.85967e-01,9.99999e-01
7.461355126e-01,2.93127e-01,9.99999e-01,9.99999e-01,2.93127e-01,9.99999e-01
7.498661902e-01,3.00319e-01,9.99999e-01,9.99999e-01,3.00319e-01,9.99999e-01
7.536155211e-01,3.07540e-01,9.99999e-01,9.99999e-01,3.07540e-01,9.99999e-01
7.573835987e-01,3.14787e-01,9.99999e-01,9.99999e-01,3.14787e-01,9.99999e-01
7.611705167e-01,3.22057e-01,9.99999e-01,9.99999e-01,3.22057e-01,9.99999e-01
7.649763693e-01,3.29346e-01,9.99999e-01,9.99999e-01,3.29346e-01,9.99999e-01
7.688012511e-01,3.36651e-01,9.99999e-01,9.99999e-01,3.36651e-01,9.99999e-01
7.726452574e-01,3.43969e-01,9.99999e-01,9.99999e-01,3.43969e-01,9.99999e-01
7.765084837e-01,3.51296e-01,9.99999e-01,9.99999e-01,3.51296e-01,9.99999e-01
7.803910261e-01,3.42649e-01,9.99999e-01,9.55435e-01,3.58631e-01,9.99999e-01
7.842929812e-01,2.96351e-01,9.99999e-01,8.09771e-01,3.65969e-01,9.99999e-01
7.882144461e-01,2.98229e-01,9.99999e-01,7.98882e-01,3.73308e-01,9.99999e-01
7.921555184e-01,3.33435e-01,9.99999e-01,8.75972e-01,3.80645e-01,9.99999e-01
7.961162960e-01,3.54868e-01,9.99999e-01,9.14663e-01,3.87977e-01,9.99999e-01
8.000968774e-01,3.76656e-01,9.99999e-01,9.52831e-01,3.95301e-01,9.99999e-01
8.040973618e-01,3.92639e-01,9.99999e-01,9.75222e-01,4.02615e-01,9.99999e-01
8.081178486e-01,4.05232e-01,9.99999e-01,9.88574e-01,4.09915e-01,9.99999e-01
8.121584379e-01,4.15716e-01,9.99999e-01,9.96441e-01,4.17200e-01,9.99999e-01
8.162192301e-01,4.24133e-01,9.99999e-01,9.99213e-01,4.24467e-01,9.99999e-01
8.203003262e-01,4.31707e-01,9.99999e-01,9.99987e-01,4.31712e-01,9.99999e-01
8.244018279e-01,4.38935e-01,9.99999e-01,9.99999e-01,4.38935e-01,9.99999e-01
8.285238370e-01,4.46132e-01,9.99999e-01,9.99999e-01,4.46132e-01,9.99999e-01
8.326664562e-01,4.53302e-01,9.99999e-01,9.99999e-01,4.53302e-01,9.99999e-01
8.368297885e-01,4.60442e-01,9.99999e-01,9.99999e-01,4.60442e-01,9.99999e-01
8.410139374e-01,4.67550e-01,9.99999e-01,9.99999e-01,4.67550e-01,9.99999e-01
8.452190071e-01,4.74624e-01,9.99999e-01,9.99999e-01,4.74624e-01,9.99999e-01
8.494451021e-01,4.81662e-01,9.99999e-01,9.99999e-01,4.81662e-01,9.99999e-01
8.536923276e-01,4.88663e-01,9.99999e-01,9.99999e-01,4.88663e-01,9.99999e-01
8.579607893e-01,4.95624e-01,9.99999e-01,9.99999e-01,4.95624e-01,9.99999e-01
8.622505932e-01,5.02543e-01,9.99999e-01,9.99999e-01,5.02543e-01,9.99999e-01
8.665618462e-01,4.64176e-01,9.99999e-01,9.11184e-01,5.09420e-01,9.99999e-01
8.708946554e-01,3.03943e-01,9.99999e-01,5.88749e-01,5.16252e-01,9.99999e-01
8.752491287e-01,3.39843e-01,9.99999e-01,6.49746e-01,5.23039e-01,9.99999e-01
8.796253743e-01,4.17306e-01,9.99999e-01,7.87699e-01,5.29777e-01,9.99999e-01
8.840235012e-01,4.73818e-01,9.99999e-01,8.83217e-01,5.36467e-01,9.99999e-01
8.884436187e-01,5.17086e-01,9.99999e-01,9.52087e-01,5.43107e-01,9.99999e-01
8.928858368e-01,5.38883e-01,9.99999e-01,9.80329e-01,5.49695e-01,9.99999e-01
8.973502660e-01,5.53546e-01,9.99999e-01,9.95171e-01,5.56231e-01,9.99999e-01
9.018370173e-01,5.62413e-01,9.99999e-01,9.99466e-01,5.62713e-01,9.99999e-01
9.063462024e-01,5.61551e-01,9.99999e-01,9.86664e-01,5.69141e-01,9.99999e-01
9.108779334e-01,5.57772e-01,9.99999e-01,9.69173e-01,5.75512e-01,9.99999e-01
9.154323231e-01,5.77547e-01,9.99999e-01,9.92642e-01,5.81827e-01,9.99999e-01
9.200094847e-01,5.30488e-01,9.99999e-01,9.02060e-01,5.88085e-01,9.99999e-01
9.246095321e-01,5.09981e-01,9.99999e-01,8.58143e-01,5.94284e-01,9.99999e-01
9.292325798e-01,5.33176e-01,9.99999e-01,8.87997e-01,6.00424e-01,9.99999e-01
9.338787427e-01,5.40232e-01,9.99999e-01,8.90728e-01,6.06505e-01,9.99999e-01
9.385481364e-01,5.62523e-01,9.99999e-01,9.18366e-01,6.12525e-01,9.99999e-01
9.432408771e-01,5.86986e-01,9.99999e-01,9.49071e-01,6.18484e-01,9.99999e-01
9.479570815e-01,6.07883e-01,9.99999e-01,9.73575e-01,6.24382e-01,9.99999e-01
9.526968669e-01,6.22128e-01,9.99999e-01,9.87162e-01,6.30218e-01,9.99999e-01
9.574603512e-01,6.32486e-01,9.99999e-01,9.94488e-01,6.35992e-01,9.99999e-01
9.622476530e-01,6.40597e-01,9.99999e-01,9.98276e-01,6.41702e-01,9.99999e-01
9.670588912e-01,6.47016e-01,9.99999e-01,9.99482e-01,6.47350e-01,9.99999e-01
9.718941857e-01,6.52911e-01,9.99999e-01,9.99962e-01,6.52935e-01,9.99999e-01
9.767536566e-01,6.58456e-01,9.99999e-01,9.99999e-01,6.58456e-01,9.99999e-01
9.816374249e-01,6.63913e-01,9.99999e-01,9.99999e-01,6.63913e-01,9.99999e-01
9.865456120e-01,6.69306e-01,9.99999e-01,9.99999e-01,6.69306e-01,9.99999e-01
9.914783401e-01,6.74635e-01,9.99999e-01,9.99999e-01,6.74635e-01,9.99999e-01
9.964357318e-01,6.79901e-01,9.99999e-01,9.99999e-01,6.79901e-01,9.99999e-01
1.001417910e+00,6.85102e-01,9.99999e-01,9.99999e-01,6.85102e-01,9.99999e-01
1.006425000e+00,6.90239e-01,9.99999e-01,9.99999e-01,6.90239e-01,9.99999e-01
1.011457125e+00,6.95311e-01,9.99999e-01,9.99999e-01,6.95311e-01,9.99999e-01
1.016514411e+00,7.00320e-01,9.99999e-01,9.99999e-01,7.00320e-01,9.99999e-01
1.021596983e+00,7.05218e-01,9.99999e-01,9.99932e-01,7.05265e-01,9.99999e-01
1.026704968e+00,7.06440e-01,9.99999e-01,9.94779e-01,7.10146e-01,9.99999e-01
1.031838492e+00,6.76468e-01,9.99999e-01,9.46156e-01,7.14964e-01,9.99999e-01
1.036997685e+00,8.09386e-02,9.99999e-01,1.12459e-01,7.19718e-01,9.99999e-01
1.042182673e+00,3.99890e-02,9.99999e-01,5.52022e-02,7.24409e-01,9.99999e-01
1.047393587e+00,5.84277e-02,9.99999e-01,8.01436e-02,7.29037e-01,9.99999e-01
1.052630555e+00,4.93928e-04,9.99999e-01,6.73291e-04,7.33602e-01,9.99999e-01
1.057893707e+00,1.47154e-03,9.99999e-01,1.99367e-03,7.38105e-01,9.99999e-01
1.063183176e+00,7.33222e-03,9.99999e-01,9.87443e-03,7.42545e-01,9.99999e-01
1.068499092e+00,2.80927e-02,9.99999e-01,3.76112e-02,7.46924e-01,9.99999e-01
1.073841587e+00,9.35701e-02,9.99999e-01,1.24554e-01,7.51242e-01,9.99999e-01
1.079210795e+00,2.01996e-01,9.99999e-01,2.67368e-01,7.55498e-01,9.99999e-01
1.084606849e+00,3.65473e-01,9.99999e-01,4.81079e-01,7.59694e-01,9.99999e-01
1.090029883e+00,5.22091e-01,9.99999e-01,6.83518e-01,7.63829e-01,9.99999e-01
1.095480033e+00,6.36442e-01,9.99999e-01,8.28802e-01,7.67904e-01,9.99999e-01
1.100957433e+00,7.05098e-01,9.99999e-01,9.13433e-01,7.71921e-01,9.99999e-01
1.106462220e+00,7.47338e-01,9.99999e-01,9.63215e-01,7.75878e-01,9.99999e-01
1.111994531e+00,7.69018e-01,9.99999e-01,9.86202e-01,7.79777e-01,9.99999e-01
1.117554504e+00,7.80959e-01,9.99999e-01,9.96606e-01,7.83617e-01,9.99999e-01
1.123142276e+00,7.87225e-01,9.99999e-01,9.99775e-01,7.87401e-01,9.99999e-01
1.128757988e+00,7.91127e-01,9.99999e-01,9.99999e-01,7.91127e-01,9.99999e-01
1.134401778e+00,7.94797e-01,9.99999e-01,9.99999e-01,7.94797e-01,9.99999e-01
1.140073787e+00,7.98410e-01,9.99999e-01,9.99999e-01,7.98410e-01,9.99999e-01
1.145774156e+00,8.01969e-01,9.99999e-01,9.99999e-01,8.01969e-01,9.99999e-01
1.151503026e+00,8.05472e-01,9.99999e-01,9.99999e-01,8.05472e-01,9.99999e-01
1.157260541e+00,8.08921e-01,9.99999e-01,9.99999e-01,8.08921e-01,9.99999e-01
1.163046844e+00,8.12317e-01,9.99999e-01,9.99999e-01,8.12317e-01,9.99999e-01
1.168862078e+00,8.15659e-01,9.99999e-01,9.99999e-01,8.15659e-01,9.99999e-01
1.174706389e+00,8.18948e-01,9.99999e-01,9.99999e-01,8.18948e-01,9.99999e-01
1.180579921e+00,8.22186e-01,9.99999e-01,9.99999e-01,8.22186e-01,9.99999e-01
1.186482820e+00,8.25365e-01,9.99999e-01,9.99991e-01,8.25371e-01,9.99999e-01
1.192415234e+00,8.13306e-01,9.99999e-01,9.81652e-01,8.28506e-01,9.99999e-01
1.198377311e+00,4.59362e-01,9.99999e-01,5.52389e-01,8.31591e-01,9.99999e-01
1.204369197e+00,6.54389e-15,9.99999e-01,7.84050e-15,8.34625e-01,9.99999e-01
1.210391043e+00,1.21177e-56,9.99999e-01,1.44670e-56,8.37611e-01,9.99999e-01
1.216442998e+00,3.51525e-49,9.99999e-01,4.18208e-49,8.40548e-01,9.99999e-01
1.222525213e+00,1.84423e-48,9.99999e-01,2.18656e-48,8.43437e-01,9.99999e-01
1.228637839e+00,1.58545e-37,9.99999e-01,1.87344e-37,8.46278e-01,9.99999e-01
1.234781029e+00,6.81061e-24,9.99999e-01,8.02122e-24,8.49073e-01,9.99999e-01
1.240954934e+00,4.59901e-16,9.99999e-01,5.39903e-16,8.51821e-01,9.99999e-01
1.247159708e+00,1.82940e-08,9.99999e-01,2.14084e-08,8.54524e-01,9.99999e-01
1.253395507e+00,1.34694e-05,9.99999e-01,1.57135e-05,8.57182e-01,9.99999e-01
1.259662485e+00,1.50180e-03,9.99999e-01,1.74669e-03,8.59795e-01,9.99999e-01
1.265960797e+00,2.23896e-02,9.99999e-01,2.59630e-02,8.62364e-01,9.99999e-01
1.272290601e+00,1.57589e-01,9.99999e-01,1.82207e-01,8.64890e-01,9.99999e-01
1.278652054e+00,1.52951e-01,9.99999e-01,1.76338e-01,8.67373e-01,9.99999e-01
1.285045314e+00,2.14429e-03,9.99999e-01,2.46522e-03,8.69814e-01,9.99999e-01
1.291470541e+00,2.89956e-07,9.99999e-01,3.32436e-07,8.72214e-01,9.99999e-01
1.297927893e+00,9.10552e-04,9.99999e-01,1.04114e-03,8.74573e-01,9.99999e-01
1.304417533e+00,4.88403e-02,9.99999e-01,5.56971e-02,8.76891e-01,9.99999e-01
1.310939621e+00,1.17429e-02,9.99999e-01,1.33568e-02,8.79169e-01,9.99999e-01
1.317494319e+00,7.54561e-20,9.99999e-01,8.56084e-20,8.81409e-01,9.99999e-01
1.324081790e+00,1.86497e-13,9.99999e-01,2.11063e-13,8.83609e-01,9.99999e-01
1.330702199e+00,5.69484e-08,9.99999e-01,6.42924e-08,8.85771e-01,9.99999e-01
1.337355710e+00,1.27407e-07,9.99999e-01,1.43493e-07,8.87896e-01,9.99999e-01
1.344042489e+00,4.46504e-08,9.99999e-01,5.01698e-08,8.89984e-01,9.99999e-01
1.350762701e+00,3.22766e-08,9.99999e-01,3.61830e-08,8.92035e-01,9.99999e-01
1.357516515e+00,1.91102e-05,9.99999e-01,2.13749e-05,8.94050e-01,9.99999e-01
1.364304097e+00,6.60168e-04,9.99999e-01,7.36769e-04,8.96030e-01,9.99999e-01
1.371125618e+00,2.15173e-02,9.99999e-01,2.39620e-02,8.97975e-01,9.99999e-01
1.377981246e+00,4.00361e-02,9.99999e-01,4.44902e-02,8.99886e-01,9.99999e-01
1.384871152e+00,1.47385e-01,9.99999e-01,1.63441e-01,9.01763e-01,9.99999e-01
1.391795508e+00,1.69253e-01,9.99999e-01,1.87308e-01,9.03607e-01,9.99999e-01
1.398754485e+00,3.20698e-01,9.99999e-01,3.54199e-01,9.05418e-01,9.99999e-01
1.405748258e+00,4.23139e-01,9.99999e-01,4.66424e-01,9.07196e-01,9.99999e-01
1.412776999e+00,5.60829e-01,9.99999e-01,6.17011e-01,9.08943e-01,9.99999e-01
1.419840884e+00,5.05580e-01,9.99999e-01,5.55180e-01,9.10659e-01,9.99999e-01
1.426940089e+00,3.62303e-02,9.99999e-01,3.97112e-02,9.12344e-01,9.99999e-01
1.434074789e+00,0.00000e+00,9.99999e-01,0.00000e+00,9.13999e-01,9.99999e-01
1.441245163e+00,0.00000e+00,9.99999e-01,0.00000e+00,9.15624e-01,9.99999e-01
1.448451389e+00,0.00000e+00,9.99999e-01,0.00000e+00,9.17219e-01,9.99999e-01
1.455693646e+00,0.00000e+00,9.99999e-01,0.00000e+00,9.18786e-01,9.99999e-01
1.462972114e+00,5.19408e-223,9.99999e-01,5.64374e-223,9.20325e-01,9.99999e-01
1.470286975e+00,4.35238e-93,9.99999e-01,4.72142e-93,9.21835e-01,9.99999e-01
