#,Wave/freq,Total,N2,CO2,Rayleigh,CIA
4.000000000e-01,2.19940e-05,9.99999e-01,9.99999e-01,2.19940e-05,9.99999e-01
4.020000000e-01,2.71895e-05,9.99999e-01,9.99999e-01,2.71895e-05,9.99999e-01
4.040100000e-01,3.34644e-05,9.99999e-01,9.99999e-01,3.34644e-05,9.99999e-01
4.060300500e-01,4.10189e-05,9.99999e-01,9.99999e-01,4.10189e-05,9.99999e-01
4.080602003e-01,5.00770e-05,9.99999e-01,9.99999e-01,5.00770e-05,9.99999e-01
4.101005013e-01,6.08950e-05,9.99999e-01,9.99999e-01,6.08950e-05,9.99999e-01
4.121510038e-01,7.37643e-05,9.99999e-01,9.99999e-01,7.37643e-05,9.99999e-01
4.142117588e-01,8.90157e-05,9.99999e-01,9.99999e-01,8.90157e-05,9.99999e-01
4.162828176e-01,1.07022e-04,9.99999e-01,9.99999e-01,1.07022e-04,9.99999e-01
4.183642317e-01,1.28204e-04,9.99999e-01,9.99999e-01,1.28204e-04,9.99999e-01
4.204560528e-01,1.53032e-04,9.99999e-01,9.99999e-01,1.53032e-04,9.99999e-01
4.225583331e-01,1.82029e-04,9.99999e-01,9.99999e-01,1.82029e-04,9.99999e-01
4.246711247e-01,2.15781e-04,9.99999e-01,9.99999e-01,2.15781e-04,9.99999e-01
4.267944804e-01,2.54932e-04,9.99999e-01,9.99999e-01,2.54932e-04,9.99999e-01
4.289284528e-01,3.00197e-04,9.99999e-01,9.99999e-01,3.00197e-04,9.99999e-01
4.310730950e-01,3.52360e-04,9.99999e-01,9.99999e-01,3.52360e-04,9.99999e-01
4.332284605e-01,4.12280e-04,9.99999e-01,9.99999e-01,4.12280e-04,9.99999e-01
4.353946028e-01,4.80895e-04,9.99999e-01,9.99999e-01,4.80895e-04,9.99999e-01
4.375715758e-01,5.59227e-04,9.99999e-01,9.99999e-01,5.59227e-04,9.99999e-01
4.397594337e-01,6.48383e-04,9.99999e-01,9.99999e-01,6.48383e-04,9.99999e-01
4.419582309e-01,7.49559e-04,9.99999e-01,9.99999e-01,7.49559e-04,9.99999e-01
4.441680220e-01,8.64044e-04,9.99999e-01,9.99999e-01,8.64044e-04,9.99999e-01
4.463888621e-01,9.93224e-04,9.99999e-01,9.99999e-01,9.93224e-04,9.99999e-01
4.486208064e-01,1.13858e-03,9.99999e-01,9.99999e-01,1.13858e-03,9.99999e-01
4.508639105e-01,1.30169e-03,9.99999e-01,9.99999e-01,1.30169e-03,9.99999e-01
4.531182300e-01,1.48423e-03,9.99999e-01,9.99999e-01,1.48423e-03,9.99999e-01
4.553838212e-01,1.68800e-03,9.99999e-01,9.99999e-01,1.68800e-03,9.99999e-01
4.576607403e-01,1.91487e-03,9.99999e-01,9.99999e-01,1.91487e-03,9.99999e-01
4.599490440e-01,2.16682e-03,9.99999e-01,9.99999e-01,2.16682e-03,9.99999e-01
4.622487892e-01,2.44595e-03,9.99999e-01,9.99999e-01,2.44595e-03,9.99999e-01
4.645600332e-01,2.75443e-03,9.99999e-01,9.99999e-01,2.75443e-03,9.99999e-01
4.668828333e-01,3.09455e-03,9.99999e-01,9.99999e-01,3.09455e-03,9.99999e-01
4.692172475e-01,3.46868e-03,9.99999e-01,9.99999e-01,3.46868e-03,9.99999e-01
4.715633337e-01,3.87929e-03,9.99999e-01,9.99999e-01,3.87929e-03,9.99999e-01
4.739211504e-01,4.32893e-03,9.99999e-01,9.99999e-01,4.32893e-03,9.99999e-01
4.762907561e-01,4.82023e-03,9.99999e-01,9.99999e-01,4.82023e-03,9.99999e-01
4.786722099e-01,5.35591e-03,9.99999e-01,9.99999e-01,5.35591e-03,9.99999e-01
4.810655710e-01,5.93874e-03,9.99999e-01,9.99999e-01,5.93874e-03,9.99999e-01
4.834708988e-01,6.57157e-03,9.99999e-01,9.99999e-01,6.57157e-03,9.99999e-01
4.858882533e-01,7.25731e-03,9.99999e-01,9.99999e-01,7.25731e-03,9.99999e-01
4.883176946e-01,7.99891e-03,9.99999e-01,9.99999e-01,7.99891e-03,9.99999e-01
4.907592831e-01,8.79936e-03,9.99999e-01,9.99999e-01,8.79936e-03,9.99999e-01
4.932130795e-01,9.66169e-03,9.99999e-01,9.99999e-01,9.66169e-03,9.99999e-01
4.956791449e-01,1.05890e-02,9.99999e-01,9.99999e-01,1.05890e-02,9.99999e-01
4.981575406e-01,1.15842e-02,9.99999e-01,9.99999e-01,1.15842e-02,9.99999e-01
5.006483283e-01,1.26506e-02,9.99999e-01,9.99999e-01,1.26506e-02,9.99999e-01
5.031515699e-01,1.37911e-02,9.99999e-01,9.99999e-01,1.37911e-02,9.99999e-01
5.056673278e-01,1.50088e-02,9.99999e-01,9.99999e-01,1.50088e-02,9.99999e-01
5.081956644e-01,1.63068e-02,9.99999e-01,9.99999e-01,1.63068e-02,9.99999e-01
5.107366428e-01,1.76880e-02,9.99999e-01,9.99999e-01,1.76880e-02,9.99999e-01
5.132903260e-01,1.91554e-02,9.99999e-01,9.99999e-01,1.91554e-02,9.99999e-01
5.158567776e-01,2.07119e-02,9.99999e-01,9.99999e-01,2.07119e-02,9.99999e-01
5.184360615e-01,2.23603e-02,9.99999e-01,9.99999e-01,2.23603e-02,9.99999e-01
5.210282418e-01,2.41035e-02,9.99999e-01,9.99999e-01,2.41035e-02,9.99999e-01
5.236333830e-01,2.59441e-02,9.99999e-01,9.99999e-01,2.59441e-02,9.99999e-01
5.262515499e-01,2.78846e-02,9.99999e-01,9.99999e-01,2.78846e-02,9.99999e-01
5.288828077e-01,2.99277e-02,9.99999e-01,9.99999e-01,2.99277e-02,9.99999e-01
5.315272217e-01,3.20756e-02,9.99999e-01,9.99999e-01,3.20756e-02,9.99999e-01
5.341848578e-01,3.43306e-02,9.99999e-01,9.99999e-01,3.43306e-02,9.99999e-01
5.368557821e-01,3.66948e-02,9.99999e-01,9.99999e-01,3.66948e-02,9.99999e-01
5.395400610e-01,3.91704e-02,9.99999e-01,9.99999e-01,3.91704e-02,9.99999e-01
5.422377613e-01,4.17590e-02,9.99999e-01,9.99999e-01,4.17590e-02,9.99999e-01
5.449489501e-01,4.44625e-02,9.99999e-01,9.99999e-01,4.44625e-02,9.99999e-01
5.476736949e-01,4.72824e-02,9.99999e-01,9.99999e-01,4.72824e-02,9.99999e-01
5.504120634e-01,5.02200e-02,9.99999e-01,9.99999e-01,5.02200e-02,9.99999e-01
5.531641237e-01,5.32768e-02,9.99999e-01,9.99999e-01,5.32768e-02,9.99999e-01
5.559299443e-01,5.64537e-02,9.99999e-01,9.99999e-01,5.64537e-02,9.99999e-01
5.587095940e-01,5.97516e-02,9.99999e-01,9.99999e-01,5.97516e-02,9.99999e-01
5.615031420e-01,6.31712e-02,9.99999e-01,9.99999e-01,6.31712e-02,9.99999e-01
5.643106577e-01,6.67132e-02,9.99999e-01,9.99999e-01,6.67132e-02,9.99999e-01
5.671322110e-01,7.03780e-02,9.99999e-01,9.99999e-01,7.03780e-02,9.99999e-01
5.699678720e-01,7.41656e-02,9.99999e-01,9.99999e-01,7.41656e-02,9.99999e-01
5.728177114e-01,7.80763e-02,9.99999e-01,9.99999e-01,7.80763e-02,9.99999e-01
5.756818000e-01,8.21097e-02,9.99999e-01,9.99999e-01,8.21097e-02,9.99999e-01
5.785602090e-01,8.62656e-02,9.99999e-01,9.99999e-01,8.62656e-02,9.99999e-01
5.814530100e-01,9.05436e-02,9.99999e-01,9.99999e-01,9.05436e-02,9.99999e-01
5.843602750e-01,9.49429e-02,9.99999e-01,9.99999e-01,9.49429e-02,9.99999e-01
5.872820764e-01,9.94626e-02,9.99999e-01,9.99999e-01,9.94626e-02,9.99999e-01
5.902184868e-01,1.04102e-01,9.99999e-01,9.99999e-01,1.04102e-01,9.99999e-01
5.931695792e-01,1.08859e-01,9.99999e-01,9.99999e-01,1.08859e-01,9.99999e-01
5.961354271e-01,1.13734e-01,9.99999e-01,9.99999e-01,1.13734e-01,9.99999e-01
5.991161043e-01,1.18724e-01,9.99999e-01,9.99999e-01,1.18724e-01,9.99999e-01
6.021116848e-01,1.23828e-01,9.99999e-01,9.99999e-01,1.23828e-01,9.99999e-01
6.051222432e-01,1.29044e-01,9.99999e-01,9.99999e-01,1.29044e-01,9.99999e-01
6.081478544e-01,1.34370e-01,9.99999e-01,9.99999e-01,1.34370e-01,9.99999e-01
6.111885937e-01,1.39805e-01,9.99999e-01,9.99999e-01,1.39805e-01,9.99999e-01
6.142445367e-01,1.45345e-01,9.99999e-01,9.99999e-01,1.45345e-01,9.99999e-01
6.173157594e-01,1.50989e-01,9.99999e-01,9.99999e-01,1.50989e-01,9.99999e-01
6.204023382e-01,1.56734e-01,9.99999e-01,9.99999e-01,1.56734e-01,9.99999e-01
6.235043498e-01,1.62577e-01,9.99999e-01,9.99999e-01,1.62577e-01,9.99999e-01
6.266218716e-01,1.68517e-01,9.99999e-01,9.99999e-01,1.68517e-01,9.99999e-01
6.297549810e-01,1.74550e-01,9.99999e-01,9.99999e-01,1.74550e-01,9.99999e-01
6.329037559e-01,1.80673e-01,9.99999e-01,9.99999e-01,1.80673e-01,9.99999e-01
6.360682746e-01,1.86884e-01,9.99999e-01,9.99999e-01,1.86884e-01,9.99999e-01
6.392486160e-01,1.93179e-01,9.99999e-01,9.99999e-01,1.93179e-01,9.99999e-01
6.424448591e-01,1.99555e-01,9.99999e-01,9.99999e-01,1.99555e-01,9.99999e-01
6.456570834e-01,2.06010e-01,9.99999e-01,9.99999e-01,2.06010e-01,9.99999e-01
6.488853688e-01,2.12540e-01,9.99999e-01,9.99999e-01,2.12540e-01,9.99999e-01
6.521297956e-01,2.19142e-01,9.99999e-01,9.99999e-01,2.19142e-01,9.99999e-01
6.553904446e-01,2.25813e-01,9.99999e-01,9.99999e-01,2.25813e-01,9.99999e-01
6.586673968e-01,2.32548e-01,9.99999e-01,9.99999e-01,2.32548e-01,9.99999e-01
6.619607338e-01,2.39346e-01,9.99999e-01,9.99999e-01,2.39346e-01,9.99999e-01
6.652705375e-01,2.46202e-01,9.99999e-01,9.99999e-01,2.46202e-01,9.99999e-01
6.685968902e-01,2.53114e-01,9.99999e-01,9.99999e-01,2.53114e-01,9.99999e-01
6.719398746e-01,2.60077e-01,9.99999e-01,9.99999e-01,2.60077e-01,9.99999e-01
6.752995740e-01,2.67088e-01,9.99999e-01,9.99999e-01,2.67088e-01,9.99999e-01
6.786760719e-01,2.74145e-01,9.99999e-01,9.99999e-01,2.74145e-01,9.99999e-01
6.820694522e-01,2.81242e-01,9.99999e-01,9.99999e-01,2.81242e-01,9.99999e-01
6.854797995e-01,2.88379e-01,9.99999e-01,9.99999e-01,2.88379e-01,9.99999e-01
6.889071985e-01,2.95549e-01,9.99999e-01,9.99999e-01,2.95549e-01,9.99999e-01
6.923517345e-01,3.02752e-01,9.99999e-01,9.99999e-01,3.02752e-01,9.99999e-01
6.958134932e-01,3.09982e-01,9.99999e-01,9.99999e-01,3.09982e-01,9.99999e-01
6.992925606e-01,3.17237e-01,9.99999e-01,9.99999e-01,3.17237e-01,9.99999e-01
7.027890234e-01,3.24513e-01,9.99999e-01,9.99999e-01,3.24513e-01,9.99999e-01
7.063029686e-01,3.31808e-01,9.99999e-01,9.99999e-01,3.31808e-01,9.99999e-01
7.098344834e-01,3.39118e-01,9.99999e-01,9.99999e-01,3.39118e-01,9.99999e-01
7.133836558e-01,3.46439e-01,9.99999e-01,9.99999e-01,3.46439e-01,9.99999e-01
7.169505741e-01,3.53770e-01,9.99999e-01,9.99999e-01,3.53770e-01,9.99999e-01
7.205353270e-01,3.61106e-01,9.99999e-01,9.99999e-01,3.61106e-01,9.99999e-01
7.241380036e-01,3.68445e-01,9.99999e-01,9.99999e-01,3.68445e-01,9.99999e-01
7.277586936e-01,3.75783e-01,9.99999e-01,9.99999e-01,3.75783e-01,9.99999e-01
7.313974871e-01,3.83119e-01,9.99999e-01,9.99999e-01,3.83119e-01,9.99999e-01
7.350544745e-01,3.90449e-01,9.99999e-01,9.99999e-01,3.90449e-01,9.99999e-01
7.387297469e-01,3.97769e-01,9.99999e-01,9.99999e-01,3.97769e-01,9.99999e-01
7.424233956e-01,4.05079e-01,9.99999e-01,9.99999e-01,4.05079e-01,9.99999e-01
7.461355126e-01,4.12374e-01,9.99999e-01,9.99999e-01,4.12374e-01,9.99999e-01
7.498661902e-01,4.19653e-01,9.99999e-01,9.99999e-01,4.19653e-01,9.99999e-01
7.536155211e-01,4.26913e-01,9.99999e-01,9.99999e-01,4.26913e-01,9.99999e-01
7.573835987e-01,4.34151e-01,9.99999e-01,9.99999e-01,4.34151e-01,9.99999e-01
7.611705167e-01,4.41366e-01,9.99999e-01,9.99999e-01,4.41366e-01,9.99999e-01
7.649763693e-01,4.48554e-01,9.99999e-01,9.99999e-01,4.48554e-01,9.99999e-01
7.688012511e-01,4.55714e-01,9.99999e-01,9.99999e-01,4.55714e-01,9.99999e-01
7.726452574e-01,4.62843e-01,9.99999e-01,9.99999e-01,4.62843e-01,9.99999e-01
7.765084837e-01,4.69940e-01,9.99999e-01,9.99999e-01,4.69940e-01,9.99999e-01
7.803910261e-01,4.61115e-01,9.99999e-01,9.66693e-01,4.77002e-01,9.99999e-01
7.842929812e-01,4.14847e-01,9.99999e-01,8.57072e-01,4.84028e-01,9.99999e-01
7.882144461e-01,4.16567e-01,9.99999e-01,8.48378e-01,4.91015e-01,9.99999e-01
7.921555184e-01,4.52431e-01,9.99999e-01,9.08564e-01,4.97963e-01,9.99999e-01
7.961162960e-01,4.73325e-01,9.99999e-01,9.37522e-01,5.04868e-01,9.99999e-01
8.000968774e-01,4.94166e-01,9.99999e-01,9.65677e-01,5.11730e-01,9.99999e-01
8.040973618e-01,5.09226e-01,9.99999e-01,9.82024e-01,5.18547e-01,9.99999e-01
8.081178486e-01,5.20975e-01,9.99999e-01,9.91733e-01,5.25317e-01,9.99999e-01
8.121584379e-01,5.30670e-01,9.99999e-01,9.97425e-01,5.32040e-01,9.99999e-01
8.162192301e-01,5.38406e-01,9.99999e-01,9.99430e-01,5.38713e-01,9.99999e-01
8.203003262e-01,5.45330e-01,9.99999e-01,9.99990e-01,5.45335e-01,9.99999e-01
8.244018279e-01,5.51906e-01,9.99999e-01,9.99999e-01,5.51906e-01,9.99999e-01
8.285238370e-01,5.58424e-01,9.99999e-01,9.99999e-01,5.58424e-01,9.99999e-01
8.326664562e-01,5.64887e-01,9.99999e-01,9.99999e-01,5.64887e-01,9.99999e-01
8.368297885e-01,5.71296e-01,9.99999e-01,9.99999e-01,5.71296e-01,9.99999e-01
8.410139374e-01,5.77649e-01,9.99999e-01,9.99999e-01,5.77649e-01,9.99999e-01
8.452190071e-01,5.83945e-01,9.99999e-01,9.99999e-01,5.83945e-01,9.99999e-01
8.494451021e-01,5.90182e-01,9.99999e-01,9.99999e-01,5.90182e-01,9.99999e-01
8.536923276e-01,5.96362e-01,9.99999e-01,9.99999e-01,5.96362e-01,9.99999e-01
8.579607893e-01,6.02482e-01,9.99999e-01,9.99999e-01,6.02482e-01,9.99999e-01
8.622505932e-01,6.08542e-01,9.99999e-01,9.99999e-01,6.08542e-01,9.99999e-01
8.665618462e-01,5.69299e-01,9.99999e-01,9.26378e-01,6.14542e-01,9.99999e-01
8.708946554e-01,4.19970e-01,9.99999e-01,6.76845e-01,6.20481e-01,9.99999e-01
8.752491287e-01,4.56940e-01,9.99999e-01,7.29519e-01,6.26358e-01,9.99999e-01
8.796253743e-01,5.31524e-01,9.99999e-01,8.40789e-01,6.32172e-01,9.99999e-01
8.840235012e-01,5.83079e-01,9.99999e-01,9.14023e-01,6.37925e-01,9.99999e-01
8.884436187e-01,6.21157e-01,9.99999e-01,9.65107e-01,6.43614e-01,9.99999e-01
8.928858368e-01,6.39986e-01,9.99999e-01,9.85745e-01,6.49241e-01,9.99999e-01
8.973502660e-01,6.52516e-01,9.99999e-01,9.96505e-01,6.54804e-01,9.99999e-01
9.018370173e-01,6.60049e-01,9.99999e-01,9.99613e-01,6.60304e-01,9.99999e-01
9.063462024e-01,6.59311e-01,9.99999e-01,9.90343e-01,6.65739e-01,9.99999e-01
9.108779334e-01,6.56093e-01,9.99999e-01,9.77621e-01,6.71111e-01,9.99999e-01
9.154323231e-01,6.72814e-01,9.99999e-01,9.94671e-01,6.76419e-01,9.99999e-01
9.200094847e-01,6.31582e-01,9.99999e-01,9.26532e-01,6.81662e-01,9.99999e-01
9.246095321e-01,6.14863e-01,9.99999e-01,8.95203e-01,6.86842e-01,9.99999e-01
9.292325798e-01,6.34842e-01,9.99999e-01,9.17458e-01,6.91957e-01,9.99999e-01
9.338787427e-01,6.40957e-01,9.99999e-01,9.19582e-01,6.97008e-01,9.99999e-01
9.385481364e-01,6.60065e-01,9.99999e-01,9.40268e-01,7.01995e-01,9.99999e-01
9.432408771e-01,6.80709e-01,9.99999e-01,9.62923e-01,7.06919e-01,9.99999e-01
9.479570815e-01,6.98142e-01,9.99999e-01,9.80841e-01,7.11779e-01,9.99999e-01
9.526968669e-01,7.09915e-01,9.99999e-01,9.90706e-01,7.16575e-01,9.99999e-01
9.574603512e-01,7.18433e-01,9.99999e-01,9.96014e-01,7.21307e-01,9.99999e-01
9.622476530e-01,7.25073e-01,9.99999e-01,9.98754e-01,7.25977e-01,9.99999e-01
9.670588912e-01,7.30311e-01,9.99999e-01,9.99625e-01,7.30584e-01,9.99999e-01
9.718941857e-01,7.35108e-01,9.99999e-01,9.99972e-01,7.35128e-01,9.99999e-01
9.767536566e-01,7.39609e-01,9.99999e-01,9.99999e-01,7.39609e-01,9.99999e-01
9.816374249e-01,7.44029e-01,9.99999e-01,9.99999e-01,7.44029e-01,9.99999e-01
9.865456120e-01,7.48387e-01,9.99999e-01,9.99999e-01,7.48387e-01,9.99999e-01
9.914783401e-01,7.52684e-01,9.99999e-01,9.99999e-01,7.52684e-01,9.99999e-01
9.964357318e-01,7.56920e-01,9.99999e-01,9.99999e-01,7.56920e-01,9.99999e-01
1.001417910e+00,7.61095e-01,9.99999e-01,9.99999e-01,7.61095e-01,9.99999e-01
1.006425000e+00,7.65210e-01,9.99999e-01,9.99999e-01,7.65210e-01,9.99999e-01
1.011457125e+00,7.69266e-01,9.99999e-01,9.99999e-01,7.69266e-01,9.99999e-01
1.016514411e+00,7.73262e-01,9.99999e-01,9.99999e-01,7.73262e-01,9.99999e-01
1.021596983e+00,7.77162e-01,9.99999e-01,9.99951e-01,7.77199e-01,9.99999e-01
1.026704968e+00,7.78138e-01,9.99999e-01,9.96234e-01,7.81079e-01,9.99999e-01
1.031838492e+00,7.51449e-01,9.99999e-01,9.57381e-01,7.84900e-01,9.99999e-01
1.036997685e+00,1.19537e-01,9.99999e-01,1.51569e-01,7.88664e-01,9.99999e-01
1.042182673e+00,9.14156e-02,9.99999e-01,1.15370e-01,7.92371e-01,9.99999e-01
1.047393587e+00,1.10762e-01,9.99999e-01,1.39144e-01,7.96022e-01,9.99999e-01
1.052630555e+00,2.91511e-03,9.99999e-01,3.64562e-03,7.99617e-01,9.99999e-01
1.057893707e+00,7.41080e-03,9.99999e-01,9.22708e-03,8.03157e-01,9.99999e-01
1.063183176e+00,2.54568e-02,9.99999e-01,3.15590e-02,8.06642e-01,9.99999e-01
1.068499092e+00,7.33444e-02,9.99999e-01,9.05405e-02,8.10073e-01,9.99999e-01
1.073841587e+00,1.77672e-01,9.99999e-01,2.18417e-01,8.13450e-01,9.99999e-01
1.079210795e+00,3.11742e-01,9.99999e-01,3.81674e-01,8.16774e-01,9.99999e-01
1.084606849e+00,4.82205e-01,9.99999e-01,5.88021e-01,8.20046e-01,9.99999e-01
1.090029883e+00,6.25011e-01,9.99999e-01,7.59184e-01,8.23266e-01,9.99999e-01
1.095480033e+00,7.21433e-01,9.99999e-01,8.72946e-01,8.26434e-01,9.99999e-01
1.100957433e+00,7.76997e-01,9.99999e-01,9.36645e-01,8.29552e-01,9.99999e-01
1.106462220e+00,8.10371e-01,9.99999e-01,9.73278e-01,8.32620e-01,9.99999e-01
1.111994531e+00,8.27292e-01,9.99999e-01,9.90012e-01,8.35638e-01,9.99999e-01
1.117554504e+00,8.36549e-01,9.99999e-01,9.97545e-01,8.38607e-01,9.99999e-01
1.123142276e+00,8.41391e-01,9.99999e-01,9.99837e-01,8.41528e-01,9.99999e-01
1.128757988e+00,8.44400e-01,9.99999e-01,9.99999e-01,8.44400e-01,9.99999e-01
1.134401778e+00,8.47226e-01,9.99999e-01,9.99999e-01,8.47226e-01,9.99999e-01
1.140073787e+00,8.50005e-01,9.99999e-01,9.99999e-01,8.50005e-01,9.99999e-01
1.145774156e+00,8.52738e-01,9.99999e-01,9.99999e-01,8.52738e-01,9.99999e-01
1.151503026e+00,8.55425e-01,9.99999e-01,9.99999e-01,8.55425e-01,9.99999e-01
1.157260541e+00,8.58068e-01,9.99999e-01,9.99999e-01,8.58068e-01,9.99999e-01
1.163046844e+00,8.60666e-01,9.99999e-01,9.99999e-01,8.60666e-01,9.99999e-01
1.168862078e+00,8.63221e-01,9.99999e-01,9.99999e-01,8.63221e-01,9.99999e-01
1.174706389e+00,8.65732e-01,9.99999e-01,9.99999e-01,8.65732e-01,9.99999e-01
1.180579921e+00,8.68201e-01,9.99999e-01,9.99999e-01,8.68201e-01,9.99999e-01
1.186482820e+00,8.70624e-01,9.99999e-01,9.99994e-01,8.70629e-01,9.99999e-01
1.192415234e+00,8.61379e-01,9.99999e-01,9.86671e-01,8.73014e-01,9.99999e-01
1.198377311e+00,4.91611e-01,9.99999e-01,5.61611e-01,8.75359e-01,9.99999e-01
1.204369197e+00,2.17423e-11,9.99999e-01,2.47729e-11,8.77664e-01,9.99999e-01
1.210391043e+00,1.63097e-41,9.99999e-01,1.85352e-41,8.79929e-01,9.99999e-01
1.216442998e+00,3.97441e-36,9.99999e-01,4.50533e-36,8.82155e-01,9.99999e-01
1.222525213e+00,1.31581e-35,9.99999e-01,1.48790e-35,8.84343e-01,9.99999e-01
1.228637839e+00,1.40189e-27,9.99999e-01,1.58139e-27,8.86492e-01,9.99999e-01
1.234781029e+00,7.13281e-18,9.99999e-01,8.02698e-18,8.88604e-01,9.99999e-01
1.240954934e+00,4.39292e-12,9.99999e-01,4.93209e-12,8.90680e-01,9.99999e-01
1.247159708e+00,1.04758e-06,9.99999e-01,1.17347e-06,8.92719e-01,9.99999e-01
1.253395507e+00,2.43329e-04,9.99999e-01,2.71960e-04,8.94722e-01,9.99999e-01
1.259662485e+00,8.07642e-03,9.99999e-01,9.00691e-03,8.96690e-01,9.99999e-01
1.265960797e+00,5.85817e-02,9.99999e-01,6.51904e-02,8.98624e-01,9.99999e-01
1.272290601e+00,2.59053e-01,9.99999e-01,2.87669e-01,9.00523e-01,9.99999e-01
1.278652054e+00,2.44640e-01,9.99999e-01,2.71102e-01,9.02389e-01,9.99999e-01
1.285045314e+00,6.46830e-03,9.99999e-01,7.15344e-03,9.04221e-01,9.99999e-01
1.291470541e+00,1.48540e-05,9.99999e-01,1.63947e-05,9.06021e-01,9.99999e-01
1.297927893e+00,4.01047e-03,9.99999e-01,4.41784e-03,9.07789e-01,9.99999e-01
1.304417533e+00,1.10992e-01,9.99999e-01,1.22032e-01,9.09526e-01,9.99999e-01
1.310939621e+00,2.75511e-02,9.99999e-01,3.02351e-02,9.11231e-01,9.99999e-01
1.317494319e+00,9.80087e-15,9.99999e-01,1.07359e-14,9.12906e-01,9.99999e-01
1.324081790e+00,3.30960e-10,9.99999e-01,3.61883e-10,9.14550e-01,9.99999e-01
1.330702199e+00,4.93017e-06,9.99999e-01,5.38131e-06,9.16165e-01,9.99999e-01
1.337355710e+00,6.51094e-06,9.99999e-01,7.09444e-06,9.17751e-01,9.99999e-01
1.344042489e+00,2.02213e-06,9.99999e-01,2.19962e-06,9.19308e-01,9.99999e-01
1.350762701e+00,3.01378e-06,9.99999e-01,3.27287e-06,9.20837e-01,9.99999e-01
1.357516515e+00,2.83689e-04,9.99999e-01,3.07576e-04,9.22338e-01,9.99999e-01
1.364304097e+00,4.72017e-03,9.99999e-01,5.10944e-03,9.23812e-01,9.99999e-01
1.371125618e+00,5.90137e-02,9.99999e-01,6.37806e-02,9.25260e-01,9.99999e-01
1.377981246e+00,9.68849e-02,9.99999e-01,1.04550e-01,9.26680e-01,9.99999e-01
1.384871152e+00,2.49315e-01,9.99999e-01,2.68636e-01,9.28075e-01,9.99999e-01
1.391795508e+00,2.75718e-01,9.99999e-01,2.96647e-01,9.29445e-01,9.99999e-01
1.398754485e+00,4.39595e-01,9.99999e-01,4.72282e-01,9.30789e-01,9.99999e-01
1.405748258e+00,5.36425e-01,9.99999e-01,5.75496e-01,9.32108e-01,9.99999e-01
1.412776999e+00,6.58258e-01,9.99999e-01,7.05223e-01,9.33404e-01,9.99999e-01
1.419840884e+00,5.95506e-01,9.99999e-01,6.37126e-01,9.34675e-01,9.99999e-01
1.426940089e+00,5.46758e-02,9.99999e-01,5.84190e-02,9.35923e-01,9.99999e-01
1.434074789e+00,0.00000e+00,9.99999e-01,0.00000e+00,9.37148e-01,9.99999e-01
1.441245163e+00,0.00000e+00,9.99999e-01,0.00000e+00,9.38351e-01,9.99999e-01
1.448451389e+00,0.00000e+00,9.99999e-01,0.00000e+00,9.39531e-01,9.99999e-01
1.455693646e+00,0.00000e+00,9.99999e-01,0.00000e+00,9.40689e-01,9.99999e-01
1.462972114e+00,1.30446e-161,9.99999e-01,1.38503e-161,9.41826e-01,9.99999e-01
1.470286975e+00,8.00440e-68,9.99999e-01,8.48875e-68,9.42941e-01,9.99999e-01
