#,Wave/freq,Total,N2,CO2,Rayleigh,CIA
4.000000000e-01,1.41838e-10,9.99999e-01,9.99999e-01,1.41838e-10,9.99999e-01
4.020000000e-01,2.22081e-10,9.99999e-01,9.99999e-01,2.22081e-10,9.99999e-01
4.040100000e-01,3.44502e-10,9.99999e-01,9.99999e-01,3.44502e-10,9.99999e-01
4.060300500e-01,5.29793e-10,9.99999e-01,9.99999e-01,5.29793e-10,9.99999e-01
4.080602003e-01,8.07845e-10,9.99999e-01,9.99999e-01,8.07845e-10,9.99999e-01
4.101005013e-01,1.22161e-09,9.99999e-01,9.99999e-01,1.22161e-09,9.99999e-01
4.121510038e-01,1.83226e-09,9.99999e-01,9.99999e-01,1.83226e-09,9.99999e-01
4.142117588e-01,2.72624e-09,9.99999e-01,9.99999e-01,2.72624e-09,9.99999e-01
4.162828176e-01,4.02469e-09,9.99999e-01,9.99999e-01,4.02469e-09,9.99999e-01
4.183642317e-01,5.89603e-09,9.99999e-01,9.99999e-01,5.89603e-09,9.99999e-01
4.204560528e-01,8.57258e-09,9.99999e-01,9.99999e-01,8.57258e-09,9.99999e-01
4.225583331e-01,1.23724e-08,9.99999e-01,9.99999e-01,1.23724e-08,9.99999e-01
4.246711247e-01,1.77275e-08,9.99999e-01,9.99999e-01,1.77275e-08,9.99999e-01
4.267944804e-01,2.52206e-08,9.99999e-01,9.99999e-01,2.52206e-08,9.99999e-01
4.289284528e-01,3.56319e-08,9.99999e-01,9.99999e-01,3.56319e-08,9.99999e-01
4.310730950e-01,4.99987e-08,9.99999e-01,9.99999e-01,4.99987e-08,9.99999e-01
4.332284605e-01,6.96903e-08,9.99999e-01,9.99999e-01,6.96903e-08,9.99999e-01
4.353946028e-01,9.65022e-08,9.99999e-01,9.99999e-01,9.65022e-08,9.99999e-01
4.375715758e-01,1.32773e-07,9.99999e-01,9.99999e-01,1.32773e-07,9.99999e-01
4.397594337e-01,1.81529e-07,9.99999e-01,9.99999e-01,1.81529e-07,9.99999e-01
4.419582309e-01,2.46660e-07,9.99999e-01,9.99999e-01,2.46660e-07,9.99999e-01
4.441680220e-01,3.33135e-07,9.99999e-01,9.99999e-01,3.33135e-07,9.99999e-01
4.463888621e-01,4.47265e-07,9.99999e-01,9.99999e-01,4.47265e-07,9.99999e-01
4.486208064e-01,5.97011e-07,9.99999e-01,9.99999e-01,5.97011e-07,9.99999e-01
4.508639105e-01,7.92359e-07,9.99999e-01,9.99999e-01,7.92359e-07,9.99999e-01
4.531182300e-01,1.04576e-06,9.99999e-01,9.99999e-01,1.04576e-06,9.99999e-01
4.553838212e-01,1.37266e-06,9.99999e-01,9.99999e-01,1.37266e-06,9.99999e-01
4.576607403e-01,1.79210e-06,9.99999e-01,9.99999e-01,1.79210e-06,9.99999e-01
4.599490440e-01,2.32741e-06,9.99999e-01,9.99999e-01,2.32741e-06,9.99999e-01
4.622487892e-01,3.00705e-06,9.99999e-01,9.99999e-01,3.00705e-06,9.99999e-01
4.645600332e-01,3.86555e-06,9.99999e-01,9.99999e-01,3.86555e-06,9.99999e-01
4.668828333e-01,4.94455e-06,9.99999e-01,9.99999e-01,4.94455e-06,9.99999e-01
4.692172475e-01,6.29406e-06,9.99999e-01,9.99999e-01,6.29406e-06,9.99999e-01
4.715633337e-01,7.97379e-06,9.99999e-01,9.99999e-01,7.97379e-06,9.99999e-01
4.739211504e-01,1.00547e-05,9.99999e-01,9.99999e-01,1.00547e-05,9.99999e-01
4.762907561e-01,1.26208e-05,9.99999e-01,9.99999e-01,1.26208e-05,9.99999e-01
4.786722099e-01,1.57707e-05,9.99999e-01,9.99999e-01,1.57707e-05,9.99999e-01
4.810655710e-01,1.96203e-05,9.99999e-01,9.99999e-01,1.96203e-05,9.99999e-01
4.834708988e-01,2.43045e-05,9.99999e-01,9.99999e-01,2.43045e-05,9.99999e-01
4.858882533e-01,2.99799e-05,9.99999e-01,9.99999e-01,2.99799e-05,9.99999e-01
4.883176946e-01,3.68276e-05,9.99999e-01,9.99999e-01,3.68276e-05,9.99999e-01
4.907592831e-01,4.50560e-05,9.99999e-01,9.99999e-01,4.50560e-05,9.99999e-01
4.932130795e-01,5.49038e-05,9.99999e-01,9.99999e-01,5.49038e-05,9.99999e-01
4.956791449e-01,6.66432e-05,9.99999e-01,9.99999e-01,6.66432e-05,9.99999e-01
4.981575406e-01,8.05836e-05,9.99999e-01,9.99999e-01,8.05836e-05,9.99999e-01
5.006483283e-01,9.70752e-05,9.99999e-01,9.99999e-01,9.70752e-05,9.99999e-01
5.031515699e-01,1.16513e-04,9.99999e-01,9.99999e-01,1.16513e-04,9.99999e-01
5.056673278e-01,1.39339e-04,9.99999e-01,9.99999e-01,1.39339e-04,9.99999e-01
5.081956644e-01,1.66049e-04,9.99999e-01,9.99999e-01,1.66049e-04,9.99999e-01
5.107366428e-01,1.97195e-04,9.99999e-01,9.99999e-01,1.97195e-04,9.99999e-01
5.132903260e-01,2.33389e-04,9.99999e-01,9.99999e-01,2.33389e-04,9.99999e-01
5.158567776e-01,2.75309e-04,9.99999e-01,9.99999e-01,2.75309e-04,9.99999e-01
5.184360615e-01,3.23700e-04,9.99999e-01,9.99999e-01,3.23700e-04,9.99999e-01
5.210282418e-01,3.79381e-04,9.99999e-01,9.99999e-01,3.79381e-04,9.99999e-01
5.236333830e-01,4.43249e-04,9.99999e-01,9.99999e-01,4.43249e-04,9.99999e-01
5.262515499e-01,5.16279e-04,9.99999e-01,9.99999e-01,5.16279e-04,9.99999e-01
5.288828077e-01,5.99533e-04,9.99999e-01,9.99999e-01,5.99533e-04,9.99999e-01
5.315272217e-01,6.94160e-04,9.99999e-01,9.99999e-01,6.94160e-04,9.99999e-01
5.341848578e-01,8.01398e-04,9.99999e-01,9.99999e-01,8.01398e-04,9.99999e-01
5.368557821e-01,9.22582e-04,9.99999e-01,9.99999e-01,9.22582e-04,9.99999e-01
5.395400610e-01,1.05914e-03,9.99999e-01,9.99999e-01,1.05914e-03,9.99999e-01
5.422377613e-01,1.21260e-03,9.99999e-01,9.99999e-01,1.21260e-03,9.99999e-01
5.449489501e-01,1.38459e-03,9.99999e-01,9.99999e-01,1.38459e-03,9.99999e-01
5.476736949e-01,1.57684e-03,9.99999e-01,9.99999e-01,1.57684e-03,9.99999e-01
5.504120634e-01,1.79118e-03,9.99999e-01,9.99999e-01,1.79118e-03,9.99999e-01
5.531641237e-01,2.02953e-03,9.99999e-01,9.99999e-01,2.02953e-03,9.99999e-01
5.559299443e-01,2.29394e-03,9.99999e-01,9.99999e-01,2.29394e-03,9.99999e-01
5.587095940e-01,2.58652e-03,9.99999e-01,9.99999e-01,2.58652e-03,9.99999e-01
5.615031420e-01,2.90952e-03,9.99999e-01,9.99999e-01,2.90952e-03,9.99999e-01
5.643106577e-01,3.26526e-03,9.99999e-01,9.99999e-01,3.26526e-03,9.99999e-01
5.671322110e-01,3.65615e-03,9.99999e-01,9.99999e-01,3.65615e-03,9.99999e-01
5.699678720e-01,4.08470e-03,9.99999e-01,9.99999e-01,4.08470e-03,9.99999e-01
5.728177114e-01,4.55350e-03,9.99999e-01,9.99999e-01,4.55350e-03,9.99999e-01
5.756818000e-01,5.06523e-03,9.99999e-01,9.99999e-01,5.06523e-03,9.99999e-01
5.785602090e-01,5.62262e-03,9.99999e-01,9.99999e-01,5.62262e-03,9.99999e-01
5.814530100e-01,6.22850e-03,9.99999e-01,9.99999e-01,6.22850e-03,9.99999e-01
5.843602750e-01,6.88572e-03,9.99999e-01,9.99999e-01,6.88572e-03,9.99999e-01
5.872820764e-01,7.59723e-03,9.99999e-01,9.99999e-01,7.59723e-03,9.99999e-01
5.902184868e-01,8.36600e-03,9.99999e-01,9.99999e-01,8.36600e-03,9.99999e-01
5.931695792e-01,9.19503e-03,9.99999e-01,9.99999e-01,9.19503e-03,9.99999e-01
5.961354271e-01,1.00874e-02,9.99999e-01,9.99999e-01,1.00874e-02,9.99999e-01
5.991161043e-01,1.10461e-02,9.99999e-01,9.99999e-01,1.10461e-02,9.99999e-01
6.021116848e-01,1.20742e-02,9.99999e-01,9.99999e-01,1.20742e-02,9.99999e-01
6.051222432e-01,1.31749e-02,9.99999e-01,9.99999e-01,1.31749e-02,9.99999e-01
6.081478544e-01,1.43512e-02,9.99999e-01,9.99999e-01,1.43512e-02,9.99999e-01
6.111885937e-01,1.56061e-02,9.99999e-01,9.99999e-01,1.56061e-02,9.99999e-01
6.142445367e-01,1.69426e-02,9.99999e-01,9.99999e-01,1.69426e-02,9.99999e-01
6.173157594e-01,1.83638e-02,9.99999e-01,9.99999e-01,1.83638e-02,9.99999e-01
6.204023382e-01,1.98725e-02,9.99999e-01,9.99999e-01,1.98725e-02,9.99999e-01
6.235043498e-01,2.14717e-02,9.99999e-01,9.99999e-01,2.14717e-02,9.99999e-01
6.266218716e-01,2.31642e-02,9.99999e-01,9.99999e-01,2.31642e-02,9.99999e-01
6.297549810e-01,2.49526e-02,9.99999e-01,9.99999e-01,2.49526e-02,9.99999e-01
6.329037559e-01,2.68396e-02,9.99999e-01,9.99999e-01,2.68396e-02,9.99999e-01
6.360682746e-01,2.88279e-02,9.99999e-01,9.99999e-01,2.88279e-02,9.99999e-01
6.392486160e-01,3.09197e-02,9.99999e-01,9.99999e-01,3.09197e-02,9.99999e-01
6.424448591e-01,3.31174e-02,9.99999e-01,9.99999e-01,3.31174e-02,9.99999e-01
6.456570834e-01,3.54233e-02,9.99999e-01,9.99999e-01,3.54233e-02,9.99999e-01
6.488853688e-01,3.78394e-02,9.99999e-01,9.99999e-01,3.78394e-02,9.99999e-01
6.521297956e-01,4.03676e-02,9.99999e-01,9.99999e-01,4.03676e-02,9.99999e-01
6.553904446e-01,4.30098e-02,9.99999e-01,9.99999e-01,4.30098e-02,9.99999e-01
6.586673968e-01,4.57676e-02,9.99999e-01,9.99999e-01,4.57676e-02,9.99999e-01
6.619607338e-01,4.86424e-02,9.99999e-01,9.99999e-01,4.86424e-02,9.99999e-01
6.652705375e-01,5.16357e-02,9.99999e-01,9.99999e-01,5.16357e-02,9.99999e-01
6.685968902e-01,5.47485e-02,9.99999e-01,9.99999e-01,5.47485e-02,9.99999e-01
6.719398746e-01,5.79819e-02,9.99999e-01,9.99999e-01,5.79819e-02,9.99999e-01
6.752995740e-01,6.13367e-02,9.99999e-01,9.99999e-01,6.13367e-02,9.99999e-01
6.786760719e-01,6.48136e-02,9.99999e-01,9.99999e-01,6.48136e-02,9.99999e-01
6.820694522e-01,6.84130e-02,9.99999e-01,9.99999e-01,6.84130e-02,9.99999e-01
6.854797995e-01,7.21353e-02,9.99999e-01,9.99999e-01,7.21353e-02,9.99999e-01
6.889071985e-01,7.59805e-02,9.99999e-01,9.99999e-01,7.59805e-02,9.99999e-01
6.923517345e-01,7.99486e-02,9.99999e-01,9.99999e-01,7.99486e-02,9.99999e-01
6.958134932e-01,8.40394e-02,9.99999e-01,9.99999e-01,8.40394e-02,9.99999e-01
6.992925606e-01,8.82525e-02,9.99999e-01,9.99999e-01,8.82525e-02,9.99999e-01
7.027890234e-01,9.25874e-02,9.99999e-01,9.99999e-01,9.25874e-02,9.99999e-01
7.063029686e-01,9.70431e-02,9.99999e-01,9.99999e-01,9.70431e-02,9.99999e-01
7.098344834e-01,1.01619e-01,9.99999e-01,9.99999e-01,1.01619e-01,9.99999e-01
7.133836558e-01,1.06314e-01,9.99999e-01,9.99999e-01,1.06314e-01,9.99999e-01
7.169505741e-01,1.11126e-01,9.99999e-01,9.99999e-01,1.11126e-01,9.99999e-01
7.205353270e-01,1.16055e-01,9.99999e-01,9.99999e-01,1.16055e-01,9.99999e-01
7.241380036e-01,1.21099e-01,9.99999e-01,9.99999e-01,1.21099e-01,9.99999e-01
7.277586936e-01,1.26255e-01,9.99999e-01,9.99999e-01,1.26255e-01,9.99999e-01
7.313974871e-01,1.31523e-01,9.99999e-01,9.99999e-01,1.31523e-01,9.99999e-01
7.350544745e-01,1.36900e-01,9.99999e-01,9.99999e-01,1.36900e-01,9.99999e-01
7.387297469e-01,1.42384e-01,9.99999e-01,9.99999e-01,1.42384e-01,9.99999e-01
7.424233956e-01,1.47973e-01,9.99999e-01,9.99999e-01,1.47973e-01,9.99999e-01
7.461355126e-01,1.53665e-01,9.99999e-01,9.99999e-01,1.53665e-01,9.99999e-01
7.498661902e-01,1.59456e-01,9.99999e-01,9.99999e-01,1.59456e-01,9.99999e-01
7.536155211e-01,1.65345e-01,9.99999e-01,9.99999e-01,1.65345e-01,9.99999e-01
7.573835987e-01,1.71329e-01,9.99999e-01,9.99999e-01,1.71329e-01,9.99999e-01
7.611705167e-01,1.77404e-01,9.99999e-01,9.99999e-01,1.77404e-01,9.99999e-01
7.649763693e-01,1.83569e-01,9.99999e-01,9.99999e-01,1.83569e-01,9.99999e-01
7.688012511e-01,1.89819e-01,9.99999e-01,9.99999e-01,1.89819e-01,9.99999e-01
7.726452574e-01,1.96153e-01,9.99999e-01,9.99999e-01,1.96153e-01,9.99999e-01
7.765084837e-01,2.02567e-01,9.99999e-01,9.99999e-01,2.02567e-01,9.99999e-01
7.803910261e-01,1.94806e-01,9.99999e-01,9.31829e-01,2.09057e-01,9.99999e-01
7.842929812e-01,1.57749e-01,9.99999e-01,7.31604e-01,2.15621e-01,9.99999e-01
7.882144461e-01,1.59001e-01,9.99999e-01,7.15395e-01,2.22256e-01,9.99999e-01
7.921555184e-01,1.87169e-01,9.99999e-01,8.17483e-01,2.28957e-01,9.99999e-01
7.961162960e-01,2.06073e-01,9.99999e-01,8.74221e-01,2.35722e-01,9.99999e-01
8.000968774e-01,2.25448e-01,9.99999e-01,9.29499e-01,2.42548e-01,9.99999e-01
8.040973618e-01,2.40199e-01,9.99999e-01,9.62989e-01,2.49430e-01,9.99999e-01
8.081178486e-01,2.51942e-01,9.99999e-01,9.82743e-01,2.56366e-01,9.99999e-01
8.121584379e-01,2.61960e-01,9.99999e-01,9.94713e-01,2.63352e-01,9.99999e-01
8.162192301e-01,2.70069e-01,9.99999e-01,9.98828e-01,2.70385e-01,9.99999e-01
8.203003262e-01,2.77457e-01,9.99999e-01,9.99984e-01,2.77461e-01,9.99999e-01
8.244018279e-01,2.84578e-01,9.99999e-01,9.99999e-01,2.84578e-01,9.99999e-01
8.285238370e-01,2.91730e-01,9.99999e-01,9.99999e-01,2.91730e-01,9.99999e-01
8.326664562e-01,2.98916e-01,9.99999e-01,9.99999e-01,2.98916e-01,9.99999e-01
8.368297885e-01,3.06132e-01,9.99999e-01,9.99999e-01,3.06132e-01,9.99999e-01
8.410139374e-01,3.13374e-01,9.99999e-01,9.99999e-01,3.13374e-01,9.99999e-01
8.452190071e-01,3.20640e-01,9.99999e-01,9.99999e-01,3.20640e-01,9.99999e-01
8.494451021e-01,3.27925e-01,9.99999e-01,9.99999e-01,3.27925e-01,9.99999e-01
8.536923276e-01,3.35227e-01,9.99999e-01,9.99999e-01,3.35227e-01,9.99999e-01
8.579607893e-01,3.42543e-01,9.99999e-01,9.99999e-01,3.42543e-01,9.99999e-01
8.622505932e-01,3.49869e-01,9.99999e-01,9.99999e-01,3.49869e-01,9.99999e-01
8.665618462e-01,3.15550e-01,9.99999e-01,8.83392e-01,3.57202e-01,9.99999e-01
8.708946554e-01,1.66537e-01,9.99999e-01,4.56840e-01,3.64540e-01,9.99999e-01
8.752491287e-01,1.96017e-01,9.99999e-01,5.27097e-01,3.71879e-01,9.99999e-01
8.796253743e-01,2.65419e-01,9.99999e-01,6.99912e-01,3.79217e-01,9.99999e-01
8.840235012e-01,3.20643e-01,9.99999e-01,8.29498e-01,3.86550e-01,9.99999e-01
8.884436187e-01,3.65933e-01,9.99999e-01,9.29055e-01,3.93876e-01,9.99999e-01
8.928858368e-01,3.89374e-01,9.99999e-01,9.70543e-01,4.01192e-01,9.99999e-01
8.973502660e-01,4.05560e-01,9.99999e-01,9.92814e-01,4.08495e-01,9.99999e-01
9.018370173e-01,4.15455e-01,9.99999e-01,9.99209e-01,4.15783e-01,9.99999e-01
9.063462024e-01,4.14229e-01,9.99999e-01,9.79140e-01,4.23053e-01,9.99999e-01
9.108779334e-01,4.10420e-01,9.99999e-01,9.53790e-01,4.30303e-01,9.99999e-01
9.154323231e-01,4.32770e-01,9.99999e-01,9.89117e-01,4.37531e-01,9.99999e-01
9.200094847e-01,3.81435e-01,9.99999e-01,8.57671e-01,4.44733e-01,9.99999e-01
9.246095321e-01,3.58643e-01,9.99999e-01,7.93617e-01,4.51908e-01,9.99999e-01
9.292325798e-01,3.82782e-01,9.99999e-01,8.33847e-01,4.59054e-01,9.99999e-01
9.338787427e-01,3.91479e-01,9.99999e-01,8.39779e-01,4.66169e-01,9.99999e-01
9.385481364e-01,4.15987e-01,9.99999e-01,8.79001e-01,4.73250e-01,9.99999e-01
9.432408771e-01,4.43842e-01,9.99999e-01,9.24103e-01,4.80295e-01,9.99999e-01
9.479570815e-01,4.67907e-01,9.99999e-01,9.60197e-01,4.87303e-01,9.99999e-01
9.526968669e-01,4.84719e-01,9.99999e-01,9.80672e-01,4.94272e-01,9.99999e-01
9.574603512e-01,4.97038e-01,9.99999e-01,9.91696e-01,5.01199e-01,9.99999e-01
9.622476530e-01,5.06768e-01,9.99999e-01,9.97407e-01,5.08085e-01,9.99999e-01
9.670588912e-01,5.14527e-01,9.99999e-01,9.99224e-01,5.14926e-01,9.99999e-01
9.718941857e-01,5.21693e-01,9.99999e-01,9.99946e-01,5.21721e-01,9.99999e-01
9.767536566e-01,5.28469e-01,9.99999e-01,9.99999e-01,5.28469e-01,9.99999e-01
9.816374249e-01,5.35169e-01,9.99999e-01,9.99999e-01,5.35169e-01,9.99999e-01
9.865456120e-01,5.41818e-01,9.99999e-01,9.99999e-01,5.41818e-01,9.99999e-01
9.914783401e-01,5.48417e-01,9.99999e-01,9.99999e-01,5.48417e-01,9.99999e-01
9.964357318e-01,5.54963e-01,9.99999e-01,9.99999e-01,5.54963e-01,9.99999e-01
1.001417910e+00,5.61455e-01,9.99999e-01,9.99999e-01,5.61455e-01,9.99999e-01
1.006425000e+00,5.67894e-01,9.99999e-01,9.99999e-01,5.67894e-01,9.99999e-01
1.011457125e+00,5.74276e-01,9.99999e-01,9.99999e-01,5.74276e-01,9.99999e-01
1.016514411e+00,5.80602e-01,9.99999e-01,9.99999e-01,5.80602e-01,9.99999e-01
1.021596983e+00,5.86794e-01,9.99999e-01,9.99868e-01,5.86871e-01,9.99999e-01
1.026704968e+00,5.88168e-01,9.99999e-01,9.91714e-01,5.93082e-01,9.99999e-01
1.031838492e+00,5.51563e-01,9.99999e-01,9.20446e-01,5.99234e-01,9.99999e-01
1.036997685e+00,4.41685e-02,9.99999e-01,7.29665e-02,6.05326e-01,9.99999e-01
1.042182673e+00,9.51506e-03,9.99999e-01,1.55638e-02,6.11358e-01,9.99999e-01
1.047393587e+00,1.81451e-02,9.99999e-01,2.93929e-02,6.17329e-01,9.99999e-01
1.052630555e+00,2.22721e-05,9.99999e-01,3.57361e-05,6.23239e-01,9.99999e-01
1.057893707e+00,8.17783e-05,9.99999e-01,1.29995e-04,6.29087e-01,9.99999e-01
1.063183176e+00,8.06001e-04,9.99999e-01,1.26955e-03,6.34872e-01,9.99999e-01
1.068499092e+00,4.80478e-03,9.99999e-01,7.50048e-03,6.40595e-01,9.99999e-01
1.073841587e+00,2.86641e-02,9.99999e-01,4.43541e-02,6.46256e-01,9.99999e-01
1.079210795e+00,9.12011e-02,9.99999e-01,1.39910e-01,6.51852e-01,9.99999e-01
1.084606849e+00,2.18836e-01,9.99999e-01,3.32887e-01,6.57386e-01,9.99999e-01
1.090029883e+00,3.73030e-01,9.99999e-01,5.62761e-01,6.62855e-01,9.99999e-01
1.095480033e+00,5.03376e-01,9.99999e-01,7.53262e-01,6.68261e-01,9.99999e-01
1.100957433e+00,5.87360e-01,9.99999e-01,8.71966e-01,6.73603e-01,9.99999e-01
1.106462220e+00,6.41534e-01,9.99999e-01,9.44987e-01,6.78880e-01,9.99999e-01
1.111994531e+00,6.69885e-01,9.99999e-01,9.79229e-01,6.84094e-01,9.99999e-01
1.117554504e+00,6.85746e-01,9.99999e-01,9.94925e-01,6.89244e-01,9.99999e-01
1.123142276e+00,6.94099e-01,9.99999e-01,9.99669e-01,6.94329e-01,9.99999e-01
1.128757988e+00,6.99350e-01,9.99999e-01,9.99999e-01,6.99350e-01,9.99999e-01
1.134401778e+00,7.04308e-01,9.99999e-01,9.99999e-01,7.04308e-01,9.99999e-01
1.140073787e+00,7.09201e-01,9.99999e-01,9.99999e-01,7.09201e-01,9.99999e-01
1.145774156e+00,7.14031e-01,9.99999e-01,9.99999e-01,7.14031e-01,9.99999e-01
1.151503026e+00,7.18797e-01,9.99999e-01,9.99999e-01,7.18797e-01,9.99999e-01
1.157260541e+00,7.23501e-01,9.99999e-01,9.99999e-01,7.23501e-01,9.99999e-01
1.163046844e+00,7.28141e-01,9.99999e-01,9.99999e-01,7.28141e-01,9.99999e-01
1.168862078e+00,7.32718e-01,9.99999e-01,9.99999e-01,7.32718e-01,9.99999e-01
1.174706389e+00,7.37233e-01,9.99999e-01,9.99999e-01,7.37233e-01,9.99999e-01
1.180579921e+00,7.41686e-01,9.99999e-01,9.99999e-01,7.41686e-01,9.99999e-01
1.186482820e+00,7.46061e-01,9.99999e-01,9.99979e-01,7.46076e-01,9.99999e-01
1.192415234e+00,7.28704e-01,9.99999e-01,9.71079e-01,7.50406e-01,9.99999e-01
1.198377311e+00,4.03070e-01,9.99999e-01,5.34098e-01,7.54674e-01,9.99999e-01
1.204369197e+00,1.40330e-21,9.99999e-01,1.84917e-21,7.58881e-01,9.99999e-01
1.210391043e+00,2.70538e-85,9.99999e-01,3.54558e-85,7.63028e-01,9.99999e-01
1.216442998e+00,6.69685e-74,9.99999e-01,8.72989e-74,7.67116e-01,9.99999e-01
1.222525213e+00,8.40816e-73,9.99999e-01,1.09035e-72,7.71143e-01,9.99999e-01
1.228637839e+00,2.84020e-56,9.99999e-01,3.66424e-56,7.75112e-01,9.99999e-01
1.234781029e+00,2.70850e-35,9.99999e-01,3.47680e-35,7.79022e-01,9.99999e-01
1.240954934e+00,1.56349e-23,9.99999e-01,1.99711e-23,7.82874e-01,9.99999e-01
1.247159708e+00,9.59156e-12,9.99999e-01,1.21926e-11,7.86669e-01,9.99999e-01
1.253395507e+00,6.69584e-08,9.99999e-01,8.47138e-08,7.90406e-01,9.99999e-01
1.259662485e+00,7.31498e-05,9.99999e-01,9.21181e-05,7.94087e-01,9.99999e-01
1.265960797e+00,4.39575e-03,9.99999e-01,5.51045e-03,7.97711e-01,9.99999e-01
1.272290601e+00,7.59749e-02,9.99999e-01,9.48168e-02,8.01280e-01,9.99999e-01
1.278652054e+00,6.46295e-02,9.99999e-01,8.03056e-02,8.04794e-01,9.99999e-01
1.285045314e+00,2.38333e-04,9.99999e-01,2.94874e-04,8.08254e-01,9.99999e-01
1.291470541e+00,1.97726e-10,9.99999e-01,2.43606e-10,8.11660e-01,9.99999e-01
1.297927893e+00,3.04379e-04,9.99999e-01,3.73465e-04,8.15012e-01,9.99999e-01
1.304417533e+00,1.07325e-02,9.99999e-01,1.31154e-02,8.18312e-01,9.99999e-01
1.310939621e+00,1.79658e-03,9.99999e-01,2.18679e-03,8.21559e-01,9.99999e-01
1.317494319e+00,9.41410e-30,9.99999e-01,1.14144e-29,8.24755e-01,9.99999e-01
1.324081790e+00,4.14371e-14,9.99999e-01,5.00508e-14,8.27900e-01,9.99999e-01
1.330702199e+00,1.35213e-11,9.99999e-01,1.62712e-11,8.30994e-01,9.99999e-01
1.337355710e+00,1.22442e-10,9.99999e-01,1.46806e-10,8.34038e-01,9.99999e-01
1.344042489e+00,6.59637e-13,9.99999e-01,7.88065e-13,8.37033e-01,9.99999e-01
1.350762701e+00,7.43449e-12,9.99999e-01,8.85079e-12,8.39980e-01,9.99999e-01
1.357516515e+00,1.64489e-07,9.99999e-01,1.95152e-07,8.42878e-01,9.99999e-01
1.364304097e+00,1.81037e-05,9.99999e-01,2.14060e-05,8.45729e-01,9.99999e-01
1.371125618e+00,3.47918e-03,9.99999e-01,4.10022e-03,8.48532e-01,9.99999e-01
1.377981246e+00,7.78986e-03,9.99999e-01,9.15065e-03,8.51290e-01,9.99999e-01
1.384871152e+00,5.54352e-02,9.99999e-01,6.49123e-02,8.54001e-01,9.99999e-01
1.391795508e+00,6.89364e-02,9.99999e-01,8.04703e-02,8.56668e-01,9.99999e-01
1.398754485e+00,1.77717e-01,9.99999e-01,2.06819e-01,8.59289e-01,9.99999e-01
1.405748258e+00,2.72850e-01,9.99999e-01,3.16580e-01,8.61867e-01,9.99999e-01
1.412776999e+00,4.16726e-01,9.99999e-01,4.82097e-01,8.64402e-01,9.99999e-01
1.419840884e+00,3.73166e-01,9.99999e-01,4.30463e-01,8.66893e-01,9.99999e-01
1.426940089e+00,1.81175e-02,9.99999e-01,2.08404e-02,8.69342e-01,9.99999e-01
1.434074789e+00,0.00000e+00,9.99999e-01,0.00000e+00,8.71750e-01,9.99999e-01
1.441245163e+00,0.00000e+00,9.99999e-01,0.00000e+00,8.74117e-01,9.99999e-01
1.448451389e+00,0.00000e+00,9.99999e-01,0.00000e+00,8.76443e-01,9.99999e-01
1.455693646e+00,0.00000e+00,9.99999e-01,0.00000e+00,8.78729e-01,9.99999e-01
1.462972114e+00,0.00000e+00,9.99999e-01,0.00000e+00,8.80976e-01,9.99999e-01
1.470286975e+00,6.23008e-141,9.99999e-01,7.05411e-141,8.83184e-01,9.99999e-01
