#,Wave/freq,Total,N2,CO2,Rayleigh,CIA
4.000000000e-01,6.42034e-06,9.99999e-01,9.99999e-01,6.42034e-06,9.99999e-01
4.020000000e-01,8.13256e-06,9.99999e-01,9.99999e-01,8.13256e-06,9.99999e-01
4.040100000e-01,1.02509e-05,9.99999e-01,9.99999e-01,1.02509e-05,9.99999e-01
4.060300500e-01,1.28621e-05,9.99999e-01,9.99999e-01,1.28621e-05,9.99999e-01
4.080602003e-01,1.60663e-05,9.99999e-01,9.99999e-01,1.60663e-05,9.99999e-01
4.101005013e-01,1.99807e-05,9.99999e-01,9.99999e-01,1.99807e-05,9.99999e-01
4.121510038e-01,2.47420e-05,9.99999e-01,9.99999e-01,2.47420e-05,9.99999e-01
4.142117588e-01,3.05089e-05,9.99999e-01,9.99999e-01,3.05089e-05,9.99999e-01
4.162828176e-01,3.74645e-05,9.99999e-01,9.99999e-01,3.74645e-05,9.99999e-01
4.183642317e-01,4.58197e-05,9.99999e-01,9.99999e-01,4.58197e-05,9.99999e-01
4.204560528e-01,5.58158e-05,9.99999e-01,9.99999e-01,5.58158e-05,9.99999e-01
4.225583331e-01,6.77281e-05,9.99999e-01,9.99999e-01,6.77281e-05,9.99999e-01
4.246711247e-01,8.18694e-05,9.99999e-01,9.99999e-01,8.18694e-05,9.99999e-01
4.267944804e-01,9.85934e-05,9.99999e-01,9.99999e-01,9.85934e-05,9.99999e-01
4.289284528e-01,1.18298e-04,9.99999e-01,9.99999e-01,1.18298e-04,9.99999e-01
4.310730950e-01,1.41432e-04,9.99999e-01,9.99999e-01,1.41432e-04,9.99999e-01
4.332284605e-01,1.68494e-04,9.99999e-01,9.99999e-01,1.68494e-04,9.99999e-01
4.353946028e-01,2.00041e-04,9.99999e-01,9.99999e-01,2.00041e-04,9.99999e-01
4.375715758e-01,2.36690e-04,9.99999e-01,9.99999e-01,2.36690e-04,9.99999e-01
4.397594337e-01,2.79125e-04,9.99999e-01,9.99999e-01,2.79125e-04,9.99999e-01
4.419582309e-01,3.28098e-04,9.99999e-01,9.99999e-01,3.28098e-04,9.99999e-01
4.441680220e-01,3.84433e-04,9.99999e-01,9.99999e-01,3.84433e-04,9.99999e-01
4.463888621e-01,4.49034e-04,9.99999e-01,9.99999e-01,4.49034e-04,9.99999e-01
4.486208064e-01,5.22883e-04,9.99999e-01,9.99999e-01,5.22883e-04,9.99999e-01
4.508639105e-01,6.07050e-04,9.99999e-01,9.99999e-01,6.07050e-04,9.99999e-01
4.531182300e-01,7.02690e-04,9.99999e-01,9.99999e-01,7.02690e-04,9.99999e-01
4.553838212e-01,8.11051e-04,9.99999e-01,9.99999e-01,8.11051e-04,9.99999e-01
4.576607403e-01,9.33473e-04,9.99999e-01,9.99999e-01,9.33473e-04,9.99999e-01
4.599490440e-01,1.07140e-03,9.99999e-01,9.99999e-01,1.07140e-03,9.99999e-01
4.622487892e-01,1.22635e-03,9.99999e-01,9.99999e-01,1.22635e-03,9.99999e-01
4.645600332e-01,1.39998e-03,9.99999e-01,9.99999e-01,1.39998e-03,9.99999e-01
4.668828333e-01,1.59402e-03,9.99999e-01,9.99999e-01,1.59402e-03,9.99999e-01
4.692172475e-01,1.81030e-03,9.99999e-01,9.99999e-01,1.81030e-03,9.99999e-01
4.715633337e-01,2.05077e-03,9.99999e-01,9.99999e-01,2.05077e-03,9.99999e-01
4.739211504e-01,2.31747e-03,9.99999e-01,9.99999e-01,2.31747e-03,9.99999e-01
4.762907561e-01,2.61253e-03,9.99999e-01,9.99999e-01,2.61253e-03,9.99999e-01
4.786722099e-01,2.93820e-03,9.99999e-01,9.99999e-01,2.93820e-03,9.99999e-01
4.810655710e-01,3.29680e-03,9.99999e-01,9.99999e-01,3.29680e-03,9.99999e-01
4.834708988e-01,3.69077e-03,9.99999e-01,9.99999e-01,3.69077e-03,9.99999e-01
4.858882533e-01,4.12261e-03,9.99999e-01,9.99999e-01,4.12261e-03,9.99999e-01
4.883176946e-01,4.59492e-03,9.99999e-01,9.99999e-01,4.59492e-03,9.99999e-01
4.907592831e-01,5.11039e-03,9.99999e-01,9.99999e-01,5.11039e-03,9.99999e-01
4.932130795e-01,5.67176e-03,9.99999e-01,9.99999e-01,5.67176e-03,9.99999e-01
4.956791449e-01,6.28185e-03,9.99999e-01,9.99999e-01,6.28185e-03,9.99999e-01
4.981575406e-01,6.94353e-03,9.99999e-01,9.99999e-01,6.94353e-03,9.99999e-01
5.006483283e-01,7.65975e-03,9.99999e-01,9.99999e-01,7.65975e-03,9.99999e-01
5.031515699e-01,8.43348e-03,9.99999e-01,9.99999e-01,8.43348e-03,9.99999e-01
5.056673278e-01,9.26773e-03,9.99999e-01,9.99999e-01,9.26773e-03,9.99999e-01
5.081956644e-01,1.01655e-02,9.99999e-01,9.99999e-01,1.01655e-02,9.99999e-01
5.107366428e-01,1.11300e-02,9.99999e-01,9.99999e-01,1.11300e-02,9.99999e-01
5.132903260e-01,1.21641e-02,9.99999e-01,9.99999e-01,1.21641e-02,9.99999e-01
5.158567776e-01,1.32711e-02,9.99999e-01,9.99999e-01,1.32711e-02,9.99999e-01
5.184360615e-01,1.44538e-02,9.99999e-01,9.99999e-01,1.44538e-02,9.99999e-01
5.210282418e-01,1.57155e-02,9.99999e-01,9.99999e-01,1.57155e-02,9.99999e-01
5.236333830e-01,1.70590e-02,9.99999e-01,9.99999e-01,1.70590e-02,9.99999e-01
5.262515499e-01,1.84875e-02,9.99999e-01,9.99999e-01,1.84875e-02,9.99999e-01
5.288828077e-01,2.00037e-02,9.99999e-01,9.99999e-01,2.00037e-02,9.99999e-01
5.315272217e-01,2.16107e-02,9.99999e-01,9.99999e-01,2.16107e-02,9.99999e-01
5.341848578e-01,2.33111e-02,9.99999e-01,9.99999e-01,2.33111e-02,9.99999e-01
5.368557821e-01,2.51077e-02,9.99999e-01,9.99999e-01,2.51077e-02,9.99999e-01
5.395400610e-01,2.70032e-02,9.99999e-01,9.99999e-01,2.70032e-02,9.99999e-01
5.422377613e-01,2.90001e-02,9.99999e-01,9.99999e-01,2.90001e-02,9.99999e-01
5.449489501e-01,3.11007e-02,9.99999e-01,9.99999e-01,3.11007e-02,9.99999e-01
5.476736949e-01,3.33075e-02,9.99999e-01,9.99999e-01,3.33075e-02,9.99999e-01
5.504120634e-01,3.56226e-02,9.99999e-01,9.99999e-01,3.56226e-02,9.99999e-01
5.531641237e-01,3.80480e-02,9.99999e-01,9.99999e-01,3.80480e-02,9.99999e-01
5.559299443e-01,4.05858e-02,9.99999e-01,9.99999e-01,4.05858e-02,9.99999e-01
5.587095940e-01,4.32377e-02,9.99999e-01,9.99999e-01,4.32377e-02,9.99999e-01
5.615031420e-01,4.60053e-02,9.99999e-01,9.99999e-01,4.60053e-02,9.99999e-01
5.643106577e-01,4.88900e-02,9.99999e-01,9.99999e-01,4.88900e-02,9.99999e-01
5.671322110e-01,5.18933e-02,9.99999e-01,9.99999e-01,5.18933e-02,9.99999e-01
5.699678720e-01,5.50163e-02,9.99999e-01,9.99999e-01,5.50163e-02,9.99999e-01
5.728177114e-01,5.82599e-02,9.99999e-01,9.99999e-01,5.82599e-02,9.99999e-01
5.756818000e-01,6.16249e-02,9.99999e-01,9.99999e-01,6.16249e-02,9.99999e-01
5.785602090e-01,6.51121e-02,9.99999e-01,9.99999e-01,6.51121e-02,9.99999e-01
5.814530100e-01,6.87219e-02,9.99999e-01,9.99999e-01,6.87219e-02,9.99999e-01
5.843602750e-01,7.24545e-02,9.99999e-01,9.99999e-01,7.24545e-02,9.99999e-01
5.872820764e-01,7.63100e-02,9.99999e-01,9.99999e-01,7.63100e-02,9.99999e-01
5.902184868e-01,8.02885e-02,9.99999e-01,9.99999e-01,8.02885e-02,9.99999e-01
5.931695792e-01,8.43897e-02,9.99999e-01,9.99999e-01,8.43897e-02,9.99999e-01
5.961354271e-01,8.86131e-02,9.99999e-01,9.99999e-01,8.86131e-02,9.99999e-01
5.991161043e-01,9.29581e-02,9.99999e-01,9.99999e-01,9.29581e-02,9.99999e-01
6.021116848e-01,9.74240e-02,9.99999e-01,9.99999e-01,9.74240e-02,9.99999e-01
6.051222432e-01,1.02010e-01,9.99999e-01,9.99999e-01,1.02010e-01,9.99999e-01
6.081478544e-01,1.06715e-01,9.99999e-01,9.99999e-01,1.06715e-01,9.99999e-01
6.111885937e-01,1.11537e-01,9.99999e-01,9.99999e-01,1.11537e-01,9.99999e-01
6.142445367e-01,1.16476e-01,9.99999e-01,9.99999e-01,1.16476e-01,9.99999e-01
6.173157594e-01,1.21529e-01,9.99999e-01,9.99999e-01,1.21529e-01,9.99999e-01
6.204023382e-01,1.26695e-01,9.99999e-01,9.99999e-01,1.26695e-01,9.99999e-01
6.235043498e-01,1.31972e-01,9.99999e-01,9.99999e-01,1.31972e-01,9.99999e-01
6.266218716e-01,1.37358e-01,9.99999e-01,9.99999e-01,1.37358e-01,9.99999e-01
6.297549810e-01,1.42851e-01,9.99999e-01,9.99999e-01,1.42851e-01,9.99999e-01
6.329037559e-01,1.48449e-01,9.99999e-01,9.99999e-01,1.48449e-01,9.99999e-01
6.360682746e-01,1.54149e-01,9.99999e-01,9.99999e-01,1.54149e-01,9.99999e-01
6.392486160e-01,1.59949e-01,9.99999e-01,9.99999e-01,1.59949e-01,9.99999e-01
6.424448591e-01,1.65846e-01,9.99999e-01,9.99999e-01,1.65846e-01,9.99999e-01
6.456570834e-01,1.71837e-01,9.99999e-01,9.99999e-01,1.71837e-01,9.99999e-01
6.488853688e-01,1.77920e-01,9.99999e-01,9.99999e-01,1.77920e-01,9.99999e-01
6.521297956e-01,1.84092e-01,9.99999e-01,9.99999e-01,1.84092e-01,9.99999e-01
6.553904446e-01,1.90350e-01,9.99999e-01,9.99999e-01,1.90350e-01,9.99999e-01
6.586673968e-01,1.96690e-01,9.99999e-01,9.99999e-01,1.96690e-01,9.99999e-01
6.619607338e-01,2.03111e-01,9.99999e-01,9.99999e-01,2.03111e-01,9.99999e-01
6.652705375e-01,2.09607e-01,9.99999e-01,9.99999e-01,2.09607e-01,9.99999e-01
6.685968902e-01,2.16177e-01,9.99999e-01,9.99999e-01,2.16177e-01,9.99999e-01
6.719398746e-01,2.22818e-01,9.99999e-01,9.99999e-01,2.22818e-01,9.99999e-01
6.752995740e-01,2.29525e-01,9.99999e-01,9.99999e-01,2.29525e-01,9.99999e-01
6.786760719e-01,2.36295e-01,9.99999e-01,9.99999e-01,2.36295e-01,9.99999e-01
6.820694522e-01,2.43125e-01,9.99999e-01,9.99999e-01,2.43125e-01,9.99999e-01
6.854797995e-01,2.50012e-01,9.99999e-01,9.99999e-01,2.50012e-01,9.99999e-01
6.889071985e-01,2.56953e-01,9.99999e-01,9.99999e-01,2.56953e-01,9.99999e-01
6.923517345e-01,2.63943e-01,9.99999e-01,9.99999e-01,2.63943e-01,9.99999e-01
6.958134932e-01,2.70980e-01,9.99999e-01,9.99999e-01,2.70980e-01,9.99999e-01
6.992925606e-01,2.78059e-01,9.99999e-01,9.99999e-01,2.78059e-01,9.99999e-01
7.027890234e-01,2.85179e-01,9.99999e-01,9.99999e-01,2.85179e-01,9.99999e-01
7.063029686e-01,2.92334e-01,9.99999e-01,9.99999e-01,2.92334e-01,9.99999e-01
7.098344834e-01,2.99523e-01,9.99999e-01,9.99999e-01,2.99523e-01,9.99999e-01
7.133836558e-01,3.06741e-01,9.99999e-01,9.99999e-01,3.06741e-01,9.99999e-01
7.169505741e-01,3.13985e-01,9.99999e-01,9.99999e-01,3.13985e-01,9.99999e-01
7.205353270e-01,3.21253e-01,9.99999e-01,9.99999e-01,3.21253e-01,9.99999e-01
7.241380036e-01,3.28540e-01,9.99999e-01,9.99999e-01,3.28540e-01,9.99999e-01
7.277586936e-01,3.35843e-01,9.99999e-01,9.99999e-01,3.35843e-01,9.99999e-01
7.313974871e-01,3.43160e-01,9.99999e-01,9.99999e-01,3.43160e-01,9.99999e-01
7.350544745e-01,3.50487e-01,9.99999e-01,9.99999e-01,3.50487e-01,9.99999e-01
7.387297469e-01,3.57821e-01,9.99999e-01,9.99999e-01,3.57821e-01,9.99999e-01
7.424233956e-01,3.65159e-01,9.99999e-01,9.99999e-01,3.65159e-01,9.99999e-01
7.461355126e-01,3.72498e-01,9.99999e-01,9.99999e-01,3.72498e-01,9.99999e-01
7.498661902e-01,3.79835e-01,9.99999e-01,9.99999e-01,3.79835e-01,9.99999e-01
7.536155211e-01,3.87168e-01,9.99999e-01,9.99999e-01,3.87168e-01,9.99999e-01
7.573835987e-01,3.94493e-01,9.99999e-01,9.99999e-01,3.94493e-01,9.99999e-01
7.611705167e-01,4.01808e-01,9.99999e-01,9.99999e-01,4.01808e-01,9.99999e-01
7.649763693e-01,4.09110e-01,9.99999e-01,9.99999e-01,4.09110e-01,9.99999e-01
7.688012511e-01,4.16396e-01,9.99999e-01,9.99999e-01,4.16396e-01,9.99999e-01
7.726452574e-01,4.23665e-01,9.99999e-01,9.99999e-01,4.23665e-01,9.99999e-01
7.765084837e-01,4.30913e-01,9.99999e-01,9.99999e-01,4.30913e-01,9.99999e-01
7.803910261e-01,4.21554e-01,9.99999e-01,9.62147e-01,4.38139e-01,9.99999e-01
7.842929812e-01,3.75484e-01,9.99999e-01,8.43142e-01,4.45339e-01,9.99999e-01
7.882144461e-01,3.76954e-01,9.99999e-01,8.33026e-01,4.52512e-01,9.99999e-01
7.921555184e-01,4.13035e-01,9.99999e-01,8.98574e-01,4.59655e-01,9.99999e-01
7.961162960e-01,4.34525e-01,9.99999e-01,9.30925e-01,4.66767e-01,9.99999e-01
8.000968774e-01,4.55809e-01,9.99999e-01,9.61938e-01,4.73844e-01,9.99999e-01
8.040973618e-01,4.71322e-01,9.99999e-01,9.80110e-01,4.80887e-01,9.99999e-01
8.081178486e-01,4.83411e-01,9.99999e-01,9.90816e-01,4.87892e-01,9.99999e-01
8.121584379e-01,4.93451e-01,9.99999e-01,9.97158e-01,4.94857e-01,9.99999e-01
8.162192301e-01,5.01466e-01,9.99999e-01,9.99371e-01,5.01781e-01,9.99999e-01
8.203003262e-01,5.08658e-01,9.99999e-01,9.99990e-01,5.08663e-01,9.99999e-01
8.244018279e-01,5.15500e-01,9.99999e-01,9.99999e-01,5.15500e-01,9.99999e-01
8.285238370e-01,5.22291e-01,9.99999e-01,9.99999e-01,5.22291e-01,9.99999e-01
8.326664562e-01,5.29035e-01,9.99999e-01,9.99999e-01,5.29035e-01,9.99999e-01
8.368297885e-01,5.35731e-01,9.99999e-01,9.99999e-01,5.35731e-01,9.99999e-01
8.410139374e-01,5.42376e-01,9.99999e-01,9.99999e-01,5.42376e-01,9.99999e-01
8.452190071e-01,5.48970e-01,9.99999e-01,9.99999e-01,5.48970e-01,9.99999e-01
8.494451021e-01,5.55512e-01,9.99999e-01,9.99999e-01,5.55512e-01,9.99999e-01
8.536923276e-01,5.62000e-01,9.99999e-01,9.99999e-01,5.62000e-01,9.99999e-01
8.579607893e-01,5.68433e-01,9.99999e-01,9.99999e-01,5.68433e-01,9.99999e-01
8.622505932e-01,5.74811e-01,9.99999e-01,9.99999e-01,5.74811e-01,9.99999e-01
8.665618462e-01,5.34324e-01,9.99999e-01,9.19451e-01,5.81133e-01,9.99999e-01
8.708946554e-01,3.81193e-01,9.99999e-01,6.48952e-01,5.87397e-01,9.99999e-01
8.752491287e-01,4.18669e-01,9.99999e-01,7.05301e-01,5.93602e-01,9.99999e-01
8.796253743e-01,4.94887e-01,9.99999e-01,8.25156e-01,5.99749e-01,9.99999e-01
8.840235012e-01,5.48305e-01,9.99999e-01,9.05038e-01,6.05836e-01,9.99999e-01
8.884436187e-01,5.88276e-01,9.99999e-01,9.61450e-01,6.11863e-01,9.99999e-01
8.928858368e-01,6.08067e-01,9.99999e-01,9.84199e-01,6.17829e-01,9.99999e-01
8.973502660e-01,6.21329e-01,9.99999e-01,9.96144e-01,6.23734e-01,9.99999e-01
9.018370173e-01,6.29309e-01,9.99999e-01,9.99574e-01,6.29576e-01,9.99999e-01
9.063462024e-01,6.28428e-01,9.99999e-01,9.89093e-01,6.35357e-01,9.99999e-01
9.108779334e-01,6.25161e-01,9.99999e-01,9.75176e-01,6.41075e-01,9.99999e-01
9.154323231e-01,6.42931e-01,9.99999e-01,9.94126e-01,6.46729e-01,9.99999e-01
9.200094847e-01,5.99048e-01,9.99999e-01,9.18332e-01,6.52321e-01,9.99999e-01
9.246095321e-01,5.81707e-01,9.99999e-01,8.84255e-01,6.57849e-01,9.99999e-01
9.292325798e-01,6.02360e-01,9.99999e-01,9.08108e-01,6.63313e-01,9.99999e-01
9.338787427e-01,6.09236e-01,9.99999e-01,9.11056e-01,6.68714e-01,9.99999e-01
9.385481364e-01,6.29433e-01,9.99999e-01,9.33806e-01,6.74050e-01,9.99999e-01
9.432408771e-01,6.51433e-01,9.99999e-01,9.58945e-01,6.79322e-01,9.99999e-01
9.479570815e-01,6.69963e-01,9.99999e-01,9.78718e-01,6.84530e-01,9.99999e-01
9.526968669e-01,6.82562e-01,9.99999e-01,9.89687e-01,6.89674e-01,9.99999e-01
9.574603512e-01,6.91683e-01,9.99999e-01,9.95578e-01,6.94754e-01,9.99999e-01
9.622476530e-01,6.98804e-01,9.99999e-01,9.98619e-01,6.99770e-01,9.99999e-01
9.670588912e-01,7.04431e-01,9.99999e-01,9.99586e-01,7.04722e-01,9.99999e-01
9.718941857e-01,7.09590e-01,9.99999e-01,9.99970e-01,7.09610e-01,9.99999e-01
9.767536566e-01,7.14435e-01,9.99999e-01,9.99999e-01,7.14435e-01,9.99999e-01
9.816374249e-01,7.19196e-01,9.99999e-01,9.99999e-01,7.19196e-01,9.99999e-01
9.865456120e-01,7.23894e-01,9.99999e-01,9.99999e-01,7.23894e-01,9.99999e-01
9.914783401e-01,7.28529e-01,9.99999e-01,9.99999e-01,7.28529e-01,9.99999e-01
9.964357318e-01,7.33101e-01,9.99999e-01,9.99999e-01,7.33101e-01,9.99999e-01
1.001417910e+00,7.37610e-01,9.99999e-01,9.99999e-01,7.37610e-01,9.99999e-01
1.006425000e+00,7.42058e-01,9.99999e-01,9.99999e-01,7.42058e-01,9.99999e-01
1.011457125e+00,7.46444e-01,9.99999e-01,9.99999e-01,7.46444e-01,9.99999e-01
1.016514411e+00,7.50768e-01,9.99999e-01,9.99999e-01,7.50768e-01,9.99999e-01
1.021596983e+00,7.54987e-01,9.99999e-01,9.99941e-01,7.55031e-01,9.99999e-01
1.026704968e+00,7.55993e-01,9.99999e-01,9.95731e-01,7.59233e-01,9.99999e-01
1.031838492e+00,7.26207e-01,9.99999e-01,9.51310e-01,7.63375e-01,9.99999e-01
1.036997685e+00,1.04253e-01,9.99999e-01,1.35842e-01,7.67457e-01,9.99999e-01
1.042182673e+00,7.15015e-02,9.99999e-01,9.26809e-02,7.71480e-01,9.99999e-01
1.047393587e+00,9.04493e-02,9.99999e-01,1.16642e-01,7.75444e-01,9.99999e-01
1.052630555e+00,1.68744e-03,9.99999e-01,2.16519e-03,7.79349e-01,9.99999e-01
1.057893707e+00,4.58756e-03,9.99999e-01,5.85749e-03,7.83196e-01,9.99999e-01
1.063183176e+00,1.75571e-02,9.99999e-01,2.23093e-02,7.86986e-01,9.99999e-01
1.068499092e+00,5.49414e-02,9.99999e-01,6.94829e-02,7.90718e-01,9.99999e-01
1.073841587e+00,1.47040e-01,9.99999e-01,1.85097e-01,7.94394e-01,9.99999e-01
1.079210795e+00,2.74157e-01,9.99999e-01,3.43548e-01,7.98014e-01,9.99999e-01
1.084606849e+00,4.44605e-01,9.99999e-01,5.54662e-01,8.01579e-01,9.99999e-01
1.090029883e+00,5.92708e-01,9.99999e-01,7.36201e-01,8.05088e-01,9.99999e-01
1.095480033e+00,6.95289e-01,9.99999e-01,8.59927e-01,8.08543e-01,9.99999e-01
1.100957433e+00,7.54990e-01,9.99999e-01,9.29853e-01,8.11944e-01,9.99999e-01
1.106462220e+00,7.91141e-01,9.99999e-01,9.70376e-01,8.15292e-01,9.99999e-01
1.111994531e+00,8.09515e-01,9.99999e-01,9.88916e-01,8.18587e-01,9.99999e-01
1.117554504e+00,8.19600e-01,9.99999e-01,9.97285e-01,8.21831e-01,9.99999e-01
1.123142276e+00,8.24875e-01,9.99999e-01,9.99821e-01,8.25022e-01,9.99999e-01
1.128757988e+00,8.28162e-01,9.99999e-01,9.99999e-01,8.28162e-01,9.99999e-01
1.134401778e+00,8.31252e-01,9.99999e-01,9.99999e-01,8.31252e-01,9.99999e-01
1.140073787e+00,8.34293e-01,9.99999e-01,9.99999e-01,8.34293e-01,9.99999e-01
1.145774156e+00,8.37284e-01,9.99999e-01,9.99999e-01,8.37284e-01,9.99999e-01
1.151503026e+00,8.40226e-01,9.99999e-01,9.99999e-01,8.40226e-01,9.99999e-01
1.157260541e+00,8.43120e-01,9.99999e-01,9.99999e-01,8.43120e-01,9.99999e-01
1.163046844e+00,8.45967e-01,9.99999e-01,9.99999e-01,8.45967e-01,9.99999e-01
1.168862078e+00,8.48766e-01,9.99999e-01,9.99999e-01,8.48766e-01,9.99999e-01
1.174706389e+00,8.51520e-01,9.99999e-01,9.99999e-01,8.51520e-01,9.99999e-01
1.180579921e+00,8.54228e-01,9.99999e-01,9.99999e-01,8.54228e-01,9.99999e-01
1.186482820e+00,8.56883e-01,9.99999e-01,9.99991e-01,8.56890e-01,9.99999e-01
1.192415234e+00,8.46502e-01,9.99999e-01,9.84867e-01,8.59508e-01,9.99999e-01
1.198377311e+00,4.81003e-01,9.99999e-01,5.57954e-01,8.62082e-01,9.99999e-01
1.204369197e+00,1.93541e-12,9.99999e-01,2.23846e-12,8.64613e-01,9.99999e-01
1.210391043e+00,5.00006e-46,9.99999e-01,5.76641e-46,8.67101e-01,9.99999e-01
1.216442998e+00,5.07070e-40,9.99999e-01,5.83142e-40,8.69547e-01,9.99999e-01
1.222525213e+00,1.92551e-39,9.99999e-01,2.20827e-39,8.71951e-01,9.99999e-01
1.228637839e+00,1.48915e-30,9.99999e-01,1.70322e-30,8.74314e-01,9.99999e-01
1.234781029e+00,1.14093e-19,9.99999e-01,1.30148e-19,8.76637e-01,9.99999e-01
1.240954934e+00,2.92163e-13,9.99999e-01,3.32411e-13,8.78920e-01,9.99999e-01
1.247159708e+00,3.09195e-07,9.99999e-01,3.50894e-07,8.81163e-01,9.99999e-01
1.253395507e+00,1.03366e-04,9.99999e-01,1.17013e-04,8.83368e-01,9.99999e-01
1.259662485e+00,4.90210e-03,9.99999e-01,5.53574e-03,8.85534e-01,9.99999e-01
1.265960797e+00,4.42567e-02,9.99999e-01,4.98575e-02,8.87663e-01,9.99999e-01
1.272290601e+00,2.47381e-01,9.99999e-01,2.78033e-01,8.89755e-01,9.99999e-01
1.278652054e+00,2.10682e-01,9.99999e-01,2.36241e-01,8.91810e-01,9.99999e-01
1.285045314e+00,3.39123e-03,9.99999e-01,3.79404e-03,8.93830e-01,9.99999e-01
1.291470541e+00,4.56658e-06,9.99999e-01,5.09769e-06,8.95813e-01,9.99999e-01
1.297927893e+00,2.59056e-03,9.99999e-01,2.88557e-03,8.97762e-01,9.99999e-01
1.304417533e+00,8.72928e-02,9.99999e-01,9.70267e-02,8.99677e-01,9.99999e-01
1.310939621e+00,2.07409e-02,9.99999e-01,2.30056e-02,9.01557e-01,9.99999e-01
1.317494319e+00,2.86934e-16,9.99999e-01,3.17614e-16,9.03405e-01,9.99999e-01
1.324081790e+00,3.55784e-11,9.99999e-01,3.93036e-11,9.05219e-01,9.99999e-01
1.330702199e+00,1.29785e-06,9.99999e-01,1.43092e-06,9.07002e-01,9.99999e-01
1.337355710e+00,2.02887e-06,9.99999e-01,2.23259e-06,9.08752e-01,9.99999e-01
1.344042489e+00,6.37835e-07,9.99999e-01,7.00554e-07,9.10471e-01,9.99999e-01
1.350762701e+00,7.84193e-07,9.99999e-01,8.59710e-07,9.12159e-01,9.99999e-01
1.357516515e+00,1.27445e-04,9.99999e-01,1.39464e-04,9.13817e-01,9.99999e-01
1.364304097e+00,2.63721e-03,9.99999e-01,2.88079e-03,9.15446e-01,9.99999e-01
1.371125618e+00,4.38950e-02,9.99999e-01,4.78656e-02,9.17044e-01,9.99999e-01
1.377981246e+00,7.45732e-02,9.99999e-01,8.11800e-02,9.18614e-01,9.99999e-01
1.384871152e+00,2.13461e-01,9.99999e-01,2.31983e-01,9.20156e-01,9.99999e-01
1.391795508e+00,2.38911e-01,9.99999e-01,2.59215e-01,9.21670e-01,9.99999e-01
1.398754485e+00,4.00677e-01,9.99999e-01,4.34029e-01,9.23156e-01,9.99999e-01
1.405748258e+00,5.00484e-01,9.99999e-01,5.41288e-01,9.24615e-01,9.99999e-01
1.412776999e+00,6.28242e-01,9.99999e-01,6.78412e-01,9.26047e-01,9.99999e-01
1.419840884e+00,5.63588e-01,9.99999e-01,6.07672e-01,9.27454e-01,9.99999e-01
1.426940089e+00,4.74519e-02,9.99999e-01,5.10875e-02,9.28835e-01,9.99999e-01
1.434074789e+00,0.00000e+00,9.99999e-01,0.00000e+00,9.30190e-01,9.99999e-01
1.441245163e+00,0.00000e+00,9.99999e-01,0.00000e+00,9.31521e-01,9.99999e-01
1.448451389e+00,0.00000e+00,9.99999e-01,0.00000e+00,9.32827e-01,9.99999e-01
1.455693646e+00,0.00000e+00,9.99999e-01,0.00000e+00,9.34109e-01,9.99999e-01
1.462972114e+00,6.28575e-180,9.99999e-01,6.72008e-180,9.35367e-01,9.99999e-01
1.470286975e+00,2.32439e-75,9.99999e-01,2.48172e-75,9.36603e-01,9.99999e-01
