#,Wave/freq,Total,N2,CO2,Rayleigh,CIA
4.000000000e-01,2.76104e-23,9.99999e-01,9.99999e-01,2.76104e-23,9.99999e-01
4.020000000e-01,7.71112e-23,9.99999e-01,9.99999e-01,7.71112e-23,9.99999e-01
4.040100000e-01,2.10815e-22,9.99999e-01,9.99999e-01,2.10815e-22,9.99999e-01
4.060300500e-01,5.65013e-22,9.99999e-01,9.99999e-01,5.65013e-22,9.99999e-01
4.080602003e-01,1.48511e-21,9.99999e-01,9.99999e-01,1.48511e-21,9.99999e-01
4.101005013e-01,3.82972e-21,9.99999e-01,9.99999e-01,3.82972e-21,9.99999e-01
4.121510038e-01,9.69282e-21,9.99999e-01,9.99999e-01,9.69282e-21,9.99999e-01
4.142117588e-01,2.40861e-20,9.99999e-01,9.99999e-01,2.40861e-20,9.99999e-01
4.162828176e-01,5.87863e-20,9.99999e-01,9.99999e-01,5.87863e-20,9.99999e-01
4.183642317e-01,1.40971e-19,9.99999e-01,9.99999e-01,1.40971e-19,9.99999e-01
4.204560528e-01,3.32263e-19,9.99999e-01,9.99999e-01,3.32263e-19,9.99999e-01
4.225583331e-01,7.69978e-19,9.99999e-01,9.99999e-01,7.69978e-19,9.99999e-01
4.246711247e-01,1.75495e-18,9.99999e-01,9.99999e-01,1.75495e-18,9.99999e-01
4.267944804e-01,3.93537e-18,9.99999e-01,9.99999e-01,3.93537e-18,9.99999e-01
4.289284528e-01,8.68515e-18,9.99999e-01,9.99999e-01,8.68515e-18,9.99999e-01
4.310730950e-01,1.88703e-17,9.99999e-01,9.99999e-01,1.88703e-17,9.99999e-01
4.332284605e-01,4.03760e-17,9.99999e-01,9.99999e-01,4.03760e-17,9.99999e-01
4.353946028e-01,8.51027e-17,9.99999e-01,9.99999e-01,8.51027e-17,9.99999e-01
4.375715758e-01,1.76753e-16,9.99999e-01,9.99999e-01,1.76753e-16,9.99999e-01
4.397594337e-01,3.61843e-16,9.99999e-01,9.99999e-01,3.61843e-16,9.99999e-01
4.419582309e-01,7.30344e-16,9.99999e-01,9.99999e-01,7.30344e-16,9.99999e-01
4.441680220e-01,1.45382e-15,9.99999e-01,9.99999e-01,1.45382e-15,9.99999e-01
4.463888621e-01,2.85488e-15,9.99999e-01,9.99999e-01,2.85488e-15,9.99999e-01
4.486208064e-01,5.53192e-15,9.99999e-01,9.99999e-01,5.53192e-15,9.99999e-01
4.508639105e-01,1.05801e-14,9.99999e-01,9.99999e-01,1.05801e-14,9.99999e-01
4.531182300e-01,1.99775e-14,9.99999e-01,9.99999e-01,1.99775e-14,9.99999e-01
4.553838212e-01,3.72511e-14,9.99999e-01,9.99999e-01,3.72511e-14,9.99999e-01
4.576607403e-01,6.86107e-14,9.99999e-01,9.99999e-01,6.86107e-14,9.99999e-01
4.599490440e-01,1.24855e-13,9.99999e-01,9.99999e-01,1.24855e-13,9.99999e-01
4.622487892e-01,2.24535e-13,9.99999e-01,9.99999e-01,2.24535e-13,9.99999e-01
4.645600332e-01,3.99142e-13,9.99999e-01,9.99999e-01,3.99142e-13,9.99999e-01
4.668828333e-01,7.01513e-13,9.99999e-01,9.99999e-01,7.01513e-13,9.99999e-01
4.692172475e-01,1.21929e-12,9.99999e-01,9.99999e-01,1.21929e-12,9.99999e-01
4.715633337e-01,2.09621e-12,9.99999e-01,9.99999e-01,2.09621e-12,9.99999e-01
4.739211504e-01,3.56546e-12,9.99999e-01,9.99999e-01,3.56546e-12,9.99999e-01
4.762907561e-01,6.00123e-12,9.99999e-01,9.99999e-01,6.00123e-12,9.99999e-01
4.786722099e-01,9.99764e-12,9.99999e-01,9.99999e-01,9.99764e-12,9.99999e-01
4.810655710e-01,1.64883e-11,9.99999e-01,9.99999e-01,1.64883e-11,9.99999e-01
4.834708988e-01,2.69255e-11,9.99999e-01,9.99999e-01,2.69255e-11,9.99999e-01
4.858882533e-01,4.35457e-11,9.99999e-01,9.99999e-01,4.35457e-11,9.99999e-01
4.883176946e-01,6.97592e-11,9.99999e-01,9.99999e-01,6.97592e-11,9.99999e-01
4.907592831e-01,1.10717e-10,9.99999e-01,9.99999e-01,1.10717e-10,9.99999e-01
4.932130795e-01,1.74127e-10,9.99999e-01,9.99999e-01,1.74127e-10,9.99999e-01
4.956791449e-01,2.71415e-10,9.99999e-01,9.99999e-01,2.71415e-10,9.99999e-01
4.981575406e-01,4.19366e-10,9.99999e-01,9.99999e-01,4.19366e-10,9.99999e-01
5.006483283e-01,6.42422e-10,9.99999e-01,9.99999e-01,6.42422e-10,9.99999e-01
5.031515699e-01,9.75863e-10,9.99999e-01,9.99999e-01,9.75863e-10,9.99999e-01
5.056673278e-01,1.47018e-09,9.99999e-01,9.99999e-01,1.47018e-09,9.99999e-01
5.081956644e-01,2.19703e-09,9.99999e-01,9.99999e-01,2.19703e-09,9.99999e-01
5.107366428e-01,3.25729e-09,9.99999e-01,9.99999e-01,3.25729e-09,9.99999e-01
5.132903260e-01,4.79180e-09,9.99999e-01,9.99999e-01,4.79180e-09,9.99999e-01
5.158567776e-01,6.99568e-09,9.99999e-01,9.99999e-01,6.99568e-09,9.99999e-01
5.184360615e-01,1.01371e-08,9.99999e-01,9.99999e-01,1.01371e-08,9.99999e-01
5.210282418e-01,1.45820e-08,9.99999e-01,9.99999e-01,1.45820e-08,9.99999e-01
5.236333830e-01,2.08258e-08,9.99999e-01,9.99999e-01,2.08258e-08,9.99999e-01
5.262515499e-01,2.95344e-08,9.99999e-01,9.99999e-01,2.95344e-08,9.99999e-01
5.288828077e-01,4.15966e-08,9.99999e-01,9.99999e-01,4.15966e-08,9.99999e-01
5.315272217e-01,5.81902e-08,9.99999e-01,9.99999e-01,5.81902e-08,9.99999e-01
5.341848578e-01,8.08653e-08,9.99999e-01,9.99999e-01,8.08653e-08,9.99999e-01
5.368557821e-01,1.11648e-07,9.99999e-01,9.99999e-01,1.11648e-07,9.99999e-01
5.395400610e-01,1.53170e-07,9.99999e-01,9.99999e-01,1.53170e-07,9.99999e-01
5.422377613e-01,2.08825e-07,9.99999e-01,9.99999e-01,2.08825e-07,9.99999e-01
5.449489501e-01,2.82966e-07,9.99999e-01,9.99999e-01,2.82966e-07,9.99999e-01
5.476736949e-01,3.81135e-07,9.99999e-01,9.99999e-01,3.81135e-07,9.99999e-01
5.504120634e-01,5.10350e-07,9.99999e-01,9.99999e-01,5.10350e-07,9.99999e-01
5.531641237e-01,6.79443e-07,9.99999e-01,9.99999e-01,6.79443e-07,9.99999e-01
5.559299443e-01,8.99463e-07,9.99999e-01,9.99999e-01,8.99463e-07,9.99999e-01
5.587095940e-01,1.18415e-06,9.99999e-01,9.99999e-01,1.18415e-06,9.99999e-01
5.615031420e-01,1.55050e-06,9.99999e-01,9.99999e-01,1.55050e-06,9.99999e-01
5.643106577e-01,2.01941e-06,9.99999e-01,9.99999e-01,2.01941e-06,9.99999e-01
5.671322110e-01,2.61644e-06,9.99999e-01,9.99999e-01,2.61644e-06,9.99999e-01
5.699678720e-01,3.37268e-06,9.99999e-01,9.99999e-01,3.37268e-06,9.99999e-01
5.728177114e-01,4.32574e-06,9.99999e-01,9.99999e-01,4.32574e-06,9.99999e-01
5.756818000e-01,5.52092e-06,9.99999e-01,9.99999e-01,5.52092e-06,9.99999e-01
5.785602090e-01,7.01246e-06,9.99999e-01,9.99999e-01,7.01246e-06,9.99999e-01
5.814530100e-01,8.86496e-06,9.99999e-01,9.99999e-01,8.86496e-06,9.99999e-01
5.843602750e-01,1.11551e-05,9.99999e-01,9.99999e-01,1.11551e-05,9.99999e-01
5.872820764e-01,1.39733e-05,9.99999e-01,9.99999e-01,1.39733e-05,9.99999e-01
5.902184868e-01,1.74257e-05,9.99999e-01,9.99999e-01,1.74257e-05,9.99999e-01
5.931695792e-01,2.16366e-05,9.99999e-01,9.99999e-01,2.16366e-05,9.99999e-01
5.961354271e-01,2.67504e-05,9.99999e-01,9.99999e-01,2.67504e-05,9.99999e-01
5.991161043e-01,3.29345e-05,9.99999e-01,9.99999e-01,3.29345e-05,9.99999e-01
6.021116848e-01,4.03821e-05,9.99999e-01,9.99999e-01,4.03821e-05,9.99999e-01
6.051222432e-01,4.93148e-05,9.99999e-01,9.99999e-01,4.93148e-05,9.99999e-01
6.081478544e-01,5.99863e-05,9.99999e-01,9.99999e-01,5.99863e-05,9.99999e-01
6.111885937e-01,7.26852e-05,9.99999e-01,9.99999e-01,7.26852e-05,9.99999e-01
6.142445367e-01,8.77390e-05,9.99999e-01,9.99999e-01,8.77390e-05,9.99999e-01
6.173157594e-01,1.05517e-04,9.99999e-01,9.99999e-01,1.05517e-04,9.99999e-01
6.204023382e-01,1.26437e-04,9.99999e-01,9.99999e-01,1.26437e-04,9.99999e-01
6.235043498e-01,1.50963e-04,9.99999e-01,9.99999e-01,1.50963e-04,9.99999e-01
6.266218716e-01,1.79617e-04,9.99999e-01,9.99999e-01,1.79617e-04,9.99999e-01
6.297549810e-01,2.12978e-04,9.99999e-01,9.99999e-01,2.12978e-04,9.99999e-01
6.329037559e-01,2.51686e-04,9.99999e-01,9.99999e-01,2.51686e-04,9.99999e-01
6.360682746e-01,2.96449e-04,9.99999e-01,9.99999e-01,2.96449e-04,9.99999e-01
6.392486160e-01,3.48047e-04,9.99999e-01,9.99999e-01,3.48047e-04,9.99999e-01
6.424448591e-01,4.07333e-04,9.99999e-01,9.99999e-01,4.07333e-04,9.99999e-01
6.456570834e-01,4.75238e-04,9.99999e-01,9.99999e-01,4.75238e-04,9.99999e-01
6.488853688e-01,5.52778e-04,9.99999e-01,9.99999e-01,5.52778e-04,9.99999e-01
6.521297956e-01,6.41052e-04,9.99999e-01,9.99999e-01,6.41052e-04,9.99999e-01
6.553904446e-01,7.41250e-04,9.99999e-01,9.99999e-01,7.41250e-04,9.99999e-01
6.586673968e-01,8.54655e-04,9.99999e-01,9.99999e-01,8.54655e-04,9.99999e-01
6.619607338e-01,9.82643e-04,9.99999e-01,9.99999e-01,9.82643e-04,9.99999e-01
6.652705375e-01,1.12669e-03,9.99999e-01,9.99999e-01,1.12669e-03,9.99999e-01
6.685968902e-01,1.28836e-03,9.99999e-01,9.99999e-01,1.28836e-03,9.99999e-01
6.719398746e-01,1.46934e-03,9.99999e-01,9.99999e-01,1.46934e-03,9.99999e-01
6.752995740e-01,1.67139e-03,9.99999e-01,9.99999e-01,1.67139e-03,9.99999e-01
6.786760719e-01,1.89639e-03,9.99999e-01,9.99999e-01,1.89639e-03,9.99999e-01
6.820694522e-01,2.14633e-03,9.99999e-01,9.99999e-01,2.14633e-03,9.99999e-01
6.854797995e-01,2.42327e-03,9.99999e-01,9.99999e-01,2.42327e-03,9.99999e-01
6.889071985e-01,2.72940e-03,9.99999e-01,9.99999e-01,2.72940e-03,9.99999e-01
6.923517345e-01,3.06698e-03,9.99999e-01,9.99999e-01,3.06698e-03,9.99999e-01
6.958134932e-01,3.43838e-03,9.99999e-01,9.99999e-01,3.43838e-03,9.99999e-01
6.992925606e-01,3.84607e-03,9.99999e-01,9.99999e-01,3.84607e-03,9.99999e-01
7.027890234e-01,4.29259e-03,9.99999e-01,9.99999e-01,4.29259e-03,9.99999e-01
7.063029686e-01,4.78056e-03,9.99999e-01,9.99999e-01,4.78056e-03,9.99999e-01
7.098344834e-01,5.31270e-03,9.99999e-01,9.99999e-01,5.31270e-03,9.99999e-01
7.133836558e-01,5.89177e-03,9.99999e-01,9.99999e-01,5.89177e-03,9.99999e-01
7.169505741e-01,6.52062e-03,9.99999e-01,9.99999e-01,6.52062e-03,9.99999e-01
7.205353270e-01,7.20215e-03,9.99999e-01,9.99999e-01,7.20215e-03,9.99999e-01
7.241380036e-01,7.93930e-03,9.99999e-01,9.99999e-01,7.93930e-03,9.99999e-01
7.277586936e-01,8.73508e-03,9.99999e-01,9.99999e-01,8.73508e-03,9.99999e-01
7.313974871e-01,9.59250e-03,9.99999e-01,9.99999e-01,9.59250e-03,9.99999e-01
7.350544745e-01,1.05146e-02,9.99999e-01,9.99999e-01,1.05146e-02,9.99999e-01
7.387297469e-01,1.15045e-02,9.99999e-01,9.99999e-01,1.15045e-02,9.99999e-01
7.424233956e-01,1.25652e-02,9.99999e-01,9.99999e-01,1.25652e-02,9.99999e-01
7.461355126e-01,1.36999e-02,9.99999e-01,9.99999e-01,1.36999e-02,9.99999e-01
7.498661902e-01,1.49115e-02,9.99999e-01,9.99999e-01,1.49115e-02,9.99999e-01
7.536155211e-01,1.62031e-02,9.99999e-01,9.99999e-01,1.62031e-02,9.99999e-01
7.573835987e-01,1.75778e-02,9.99999e-01,9.99999e-01,1.75778e-02,9.99999e-01
7.611705167e-01,1.90384e-02,9.99999e-01,9.99999e-01,1.90384e-02,9.99999e-01
7.649763693e-01,2.05879e-02,9.99999e-01,9.99999e-01,2.05879e-02,9.99999e-01
7.688012511e-01,2.22291e-02,9.99999e-01,9.99999e-01,2.22291e-02,9.99999e-01
7.726452574e-01,2.39648e-02,9.99999e-01,9.99999e-01,2.39648e-02,9.99999e-01
7.765084837e-01,2.57977e-02,9.99999e-01,9.99999e-01,2.57977e-02,9.99999e-01
7.803910261e-01,2.43017e-02,9.99999e-01,8.76352e-01,2.77305e-02,9.99999e-01
7.842929812e-01,1.51485e-02,9.99999e-01,5.08927e-01,2.97654e-02,9.99999e-01
7.882144461e-01,1.56973e-02,9.99999e-01,4.92000e-01,3.19051e-02,9.99999e-01
7.921555184e-01,2.17476e-02,9.99999e-01,6.36792e-01,3.41517e-02,9.99999e-01
7.961162960e-01,2.68694e-02,9.99999e-01,7.35998e-01,3.65075e-02,9.99999e-01
8.000968774e-01,3.29861e-02,9.99999e-01,8.46354e-01,3.89743e-02,9.99999e-01
8.040973618e-01,3.81142e-02,9.99999e-01,9.17219e-01,4.15541e-02,9.99999e-01
8.081178486e-01,4.25186e-02,9.99999e-01,9.60903e-01,4.42486e-02,9.99999e-01
8.121584379e-01,4.64883e-02,9.99999e-01,9.87864e-01,4.70594e-02,9.99999e-01
8.162192301e-01,4.98532e-02,9.99999e-01,9.97305e-01,4.99879e-02,9.99999e-01
8.203003262e-01,5.30334e-02,9.99999e-01,9.99962e-01,5.30354e-02,9.99999e-01
8.244018279e-01,5.62029e-02,9.99999e-01,9.99999e-01,5.62029e-02,9.99999e-01
8.285238370e-01,5.94913e-02,9.99999e-01,9.99999e-01,5.94913e-02,9.99999e-01
8.326664562e-01,6.29016e-02,9.99999e-01,9.99999e-01,6.29016e-02,9.99999e-01
8.368297885e-01,6.64341e-02,9.99999e-01,9.99999e-01,6.64341e-02,9.99999e-01
8.410139374e-01,7.00893e-02,9.99999e-01,9.99999e-01,7.00893e-02,9.99999e-01
8.452190071e-01,7.38674e-02,9.99999e-01,9.99999e-01,7.38674e-02,9.99999e-01
8.494451021e-01,7.77685e-02,9.99999e-01,9.99999e-01,7.77685e-02,9.99999e-01
8.536923276e-01,8.17924e-02,9.99999e-01,9.99999e-01,8.17924e-02,9.99999e-01
8.579607893e-01,8.59388e-02,9.99999e-01,9.99999e-01,8.59388e-02,9.99999e-01
8.622505932e-01,9.02073e-02,9.99999e-01,9.99999e-01,9.02073e-02,9.99999e-01
8.665618462e-01,7.92952e-02,9.99999e-01,8.38239e-01,9.45972e-02,9.99999e-01
8.708946554e-01,1.93106e-02,9.99999e-01,1.94844e-01,9.91077e-02,9.99999e-01
8.752491287e-01,2.57049e-02,9.99999e-01,2.47787e-01,1.03738e-01,9.99999e-01
8.796253743e-01,4.92216e-02,9.99999e-01,4.53712e-01,1.08486e-01,9.99999e-01
8.840235012e-01,7.42817e-02,9.99999e-01,6.55320e-01,1.13352e-01,9.99999e-01
8.884436187e-01,1.00029e-01,9.99999e-01,8.45320e-01,1.18333e-01,9.99999e-01
8.928858368e-01,1.15251e-01,9.99999e-01,9.33747e-01,1.23428e-01,9.99999e-01
8.973502660e-01,1.26520e-01,9.99999e-01,9.83556e-01,1.28635e-01,9.99999e-01
9.018370173e-01,1.33709e-01,9.99999e-01,9.98178e-01,1.33953e-01,9.99999e-01
9.063462024e-01,1.33030e-01,9.99999e-01,9.54446e-01,1.39379e-01,9.99999e-01
9.108779334e-01,1.30071e-01,9.99999e-01,8.97590e-01,1.44911e-01,9.99999e-01
9.154323231e-01,1.46806e-01,9.99999e-01,9.75152e-01,1.50547e-01,9.99999e-01
9.200094847e-01,1.16216e-01,9.99999e-01,7.43615e-01,1.56284e-01,9.99999e-01
9.246095321e-01,9.60268e-02,9.99999e-01,5.92317e-01,1.62120e-01,9.99999e-01
9.292325798e-01,1.12505e-01,9.99999e-01,6.69464e-01,1.68053e-01,9.99999e-01
9.338787427e-01,1.17516e-01,9.99999e-01,6.75076e-01,1.74078e-01,9.99999e-01
9.385481364e-01,1.34466e-01,9.99999e-01,7.46226e-01,1.80195e-01,9.99999e-01
9.432408771e-01,1.55601e-01,9.99999e-01,8.34776e-01,1.86399e-01,9.99999e-01
9.479570815e-01,1.75576e-01,9.99999e-01,9.11193e-01,1.92687e-01,9.99999e-01
9.526968669e-01,1.90359e-01,9.99999e-01,9.56298e-01,1.99058e-01,9.99999e-01
9.574603512e-01,2.01613e-01,9.99999e-01,9.81052e-01,2.05507e-01,9.99999e-01
9.622476530e-01,2.10771e-01,9.99999e-01,9.94054e-01,2.12031e-01,9.99999e-01
9.670588912e-01,2.18238e-01,9.99999e-01,9.98218e-01,2.18627e-01,9.99999e-01
9.718941857e-01,2.25265e-01,9.99999e-01,9.99876e-01,2.25293e-01,9.99999e-01
9.767536566e-01,2.32024e-01,9.99999e-01,9.99999e-01,2.32024e-01,9.99999e-01
9.816374249e-01,2.38817e-01,9.99999e-01,9.99999e-01,2.38817e-01,9.99999e-01
9.865456120e-01,2.45668e-01,9.99999e-01,9.99999e-01,2.45668e-01,9.99999e-01
9.914783401e-01,2.52576e-01,9.99999e-01,9.99999e-01,2.52576e-01,9.99999e-01
9.964357318e-01,2.59535e-01,9.99999e-01,9.99999e-01,2.59535e-01,9.99999e-01
1.001417910e+00,2.66543e-01,9.99999e-01,9.99999e-01,2.66543e-01,9.99999e-01
1.006425000e+00,2.73596e-01,9.99999e-01,9.99999e-01,2.73596e-01,9.99999e-01
1.011457125e+00,2.80690e-01,9.99999e-01,9.99999e-01,2.80690e-01,9.99999e-01
1.016514411e+00,2.87824e-01,9.99999e-01,9.99999e-01,2.87824e-01,9.99999e-01
1.021596983e+00,2.94908e-01,9.99999e-01,9.99715e-01,2.94992e-01,9.99999e-01
1.026704968e+00,2.96596e-01,9.99999e-01,9.81482e-01,3.02192e-01,9.99999e-01
1.031838492e+00,2.69075e-01,9.99999e-01,8.69610e-01,3.09420e-01,9.99999e-01
1.036997685e+00,8.98774e-03,9.99999e-01,2.83817e-02,3.16673e-01,9.99999e-01
1.042182673e+00,1.25715e-04,9.99999e-01,3.88071e-04,3.23948e-01,9.99999e-01
1.047393587e+00,3.62982e-04,9.99999e-01,1.09582e-03,3.31241e-01,9.99999e-01
1.052630555e+00,7.51705e-10,9.99999e-01,2.22036e-09,3.38550e-01,9.99999e-01
1.057893707e+00,2.84732e-09,9.99999e-01,8.23231e-09,3.45871e-01,9.99999e-01
1.063183176e+00,5.09971e-07,9.99999e-01,1.44386e-06,3.53201e-01,9.99999e-01
1.068499092e+00,1.06614e-05,9.99999e-01,2.95708e-05,3.60537e-01,9.99999e-01
1.073841587e+00,3.93254e-04,9.99999e-01,1.06899e-03,3.67875e-01,9.99999e-01
1.079210795e+00,5.34385e-03,9.99999e-01,1.42421e-02,3.75214e-01,9.99999e-01
1.084606849e+00,3.27763e-02,9.99999e-01,8.56784e-02,3.82550e-01,9.99999e-01
1.090029883e+00,1.06785e-01,9.99999e-01,2.73891e-01,3.89880e-01,9.99999e-01
1.095480033e+00,2.08983e-01,9.99999e-01,5.26138e-01,3.97202e-01,9.99999e-01
1.100957433e+00,2.95964e-01,9.99999e-01,7.31657e-01,4.04512e-01,9.99999e-01
1.106462220e+00,3.61805e-01,9.99999e-01,8.78573e-01,4.11809e-01,9.99999e-01
1.111994531e+00,3.99408e-01,9.99999e-01,9.53038e-01,4.19089e-01,9.99999e-01
1.117554504e+00,4.21396e-01,9.99999e-01,9.88377e-01,4.26351e-01,9.99999e-01
1.123142276e+00,4.33260e-01,9.99999e-01,9.99237e-01,4.33591e-01,9.99999e-01
1.128757988e+00,4.40807e-01,9.99999e-01,9.99999e-01,4.40807e-01,9.99999e-01
1.134401778e+00,4.47997e-01,9.99999e-01,9.99999e-01,4.47997e-01,9.99999e-01
1.140073787e+00,4.55160e-01,9.99999e-01,9.99999e-01,4.55160e-01,9.99999e-01
1.145774156e+00,4.62291e-01,9.99999e-01,9.99999e-01,4.62291e-01,9.99999e-01
1.151503026e+00,4.69391e-01,9.99999e-01,9.99999e-01,4.69391e-01,9.99999e-01
1.157260541e+00,4.76456e-01,9.99999e-01,9.99999e-01,4.76456e-01,9.99999e-01
1.163046844e+00,4.83484e-01,9.99999e-01,9.99999e-01,4.83484e-01,9.99999e-01
1.168862078e+00,4.90475e-01,9.99999e-01,9.99999e-01,4.90475e-01,9.99999e-01
1.174706389e+00,4.97425e-01,9.99999e-01,9.99999e-01,4.97425e-01,9.99999e-01
1.180579921e+00,5.04334e-01,9.99999e-01,9.99999e-01,5.04334e-01,9.99999e-01
1.186482820e+00,5.11178e-01,9.99999e-01,9.99957e-01,5.11199e-01,9.99999e-01
1.192415234e+00,4.86397e-01,9.99999e-01,9.38953e-01,5.18019e-01,9.99999e-01
1.198377311e+00,2.53156e-01,9.99999e-01,4.82392e-01,5.24794e-01,9.99999e-01
1.204369197e+00,1.65353e-46,9.99999e-01,3.11094e-46,5.31520e-01,9.99999e-01
1.210391043e+00,2.05491e-192,9.99999e-01,3.81814e-192,5.38197e-01,9.99999e-01
1.216442998e+00,2.54905e-166,9.99999e-01,4.67867e-166,5.44823e-01,9.99999e-01
1.222525213e+00,8.32816e-164,9.99999e-01,1.51037e-163,5.51398e-01,9.99999e-01
1.228637839e+00,4.40803e-126,9.99999e-01,7.90083e-126,5.57920e-01,9.99999e-01
1.234781029e+00,6.47129e-78,9.99999e-01,1.14660e-77,5.64388e-01,9.99999e-01
1.240954934e+00,2.53922e-51,9.99999e-01,4.44851e-51,5.70801e-01,9.99999e-01
1.247159708e+00,5.44229e-24,9.99999e-01,9.42946e-24,5.77158e-01,9.99999e-01
1.253395507e+00,2.40016e-16,9.99999e-01,4.11368e-16,5.83458e-01,9.99999e-01
1.259662485e+00,1.99579e-09,9.99999e-01,3.38441e-09,5.89701e-01,9.99999e-01
1.265960797e+00,1.79445e-05,9.99999e-01,3.01140e-05,5.95885e-01,9.99999e-01
1.272290601e+00,3.51937e-03,9.99999e-01,5.84603e-03,6.02009e-01,9.99999e-01
1.278652054e+00,3.67045e-03,9.99999e-01,6.03617e-03,6.08074e-01,9.99999e-01
1.285045314e+00,3.67270e-07,9.99999e-01,5.98082e-07,6.14079e-01,9.99999e-01
1.291470541e+00,7.20351e-22,9.99999e-01,1.16181e-21,6.20022e-01,9.99999e-01
1.297927893e+00,4.52962e-07,9.99999e-01,7.23692e-07,6.25904e-01,9.99999e-01
1.304417533e+00,4.59959e-05,9.99999e-01,7.28101e-05,6.31724e-01,9.99999e-01
1.310939621e+00,1.02541e-05,9.99999e-01,1.60853e-05,6.37481e-01,9.99999e-01
1.317494319e+00,1.05790e-65,9.99999e-01,1.64481e-65,6.43175e-01,9.99999e-01
1.324081790e+00,2.09462e-29,9.99999e-01,3.22841e-29,6.48807e-01,9.99999e-01
1.330702199e+00,6.31578e-25,9.99999e-01,9.65162e-25,6.54375e-01,9.99999e-01
1.337355710e+00,1.80377e-22,9.99999e-01,2.73349e-22,6.59879e-01,9.99999e-01
1.344042489e+00,1.16707e-22,9.99999e-01,1.75415e-22,6.65320e-01,9.99999e-01
1.350762701e+00,2.80847e-25,9.99999e-01,4.18739e-25,6.70696e-01,9.99999e-01
1.357516515e+00,7.37194e-15,9.99999e-01,1.09051e-14,6.76009e-01,9.99999e-01
1.364304097e+00,4.57377e-11,9.99999e-01,6.71371e-11,6.81258e-01,9.99999e-01
1.371125618e+00,4.73977e-06,9.99999e-01,6.90483e-06,6.86442e-01,9.99999e-01
1.377981246e+00,2.15131e-05,9.99999e-01,3.11080e-05,6.91562e-01,9.99999e-01
1.384871152e+00,1.54578e-03,9.99999e-01,2.21897e-03,6.96619e-01,9.99999e-01
1.391795508e+00,2.69754e-03,9.99999e-01,3.84478e-03,7.01611e-01,9.99999e-01
1.398754485e+00,1.94472e-02,9.99999e-01,2.75246e-02,7.06539e-01,9.99999e-01
1.405748258e+00,5.34446e-02,9.99999e-01,7.51254e-02,7.11404e-01,9.99999e-01
1.412776999e+00,1.36559e-01,9.99999e-01,1.90671e-01,7.16205e-01,9.99999e-01
1.419840884e+00,1.38539e-01,9.99998e-01,1.92163e-01,7.20942e-01,9.99999e-01
1.426940089e+00,3.68445e-03,9.99998e-01,5.07767e-03,7.25617e-01,9.99999e-01
1.434074789e+00,0.00000e+00,9.99998e-01,0.00000e+00,7.30229e-01,9.99999e-01
1.441245163e+00,0.00000e+00,9.99999e-01,0.00000e+00,7.34777e-01,9.99999e-01
1.448451389e+00,0.00000e+00,9.99998e-01,0.00000e+00,7.39264e-01,9.99999e-01
1.455693646e+00,0.00000e+00,9.99999e-01,0.00000e+00,7.43689e-01,9.99999e-01
1.462972114e+00,0.00000e+00,9.99999e-01,0.00000e+00,7.48051e-01,9.99999e-01
1.470286975e+00,8.88429e-320,9.99999e-01,1.18087e-319,7.52353e-01,9.99999e-01
