#,Wave/freq,Total,N2,CO2,Rayleigh,CIA
4.000000000e-01,4.39644e-18,9.99999e-01,9.99999e-01,4.39644e-18,9.99999e-01
4.020000000e-01,9.68928e-18,9.99999e-01,9.99999e-01,9.68928e-18,9.99999e-01
4.040100000e-01,2.10065e-17,9.99999e-01,9.99999e-01,2.10065e-17,9.99999e-01
4.060300500e-01,4.48517e-17,9.99999e-01,9.99999e-01,4.48517e-17,9.99999e-01
4.080602003e-01,9.43402e-17,9.99999e-01,9.99999e-01,9.43402e-17,9.99999e-01
4.101005013e-01,1.95540e-16,9.99999e-01,9.99999e-01,1.95540e-16,9.99999e-01
4.121510038e-01,3.99506e-16,9.99999e-01,9.99999e-01,3.99506e-16,9.99999e-01
4.142117588e-01,8.04788e-16,9.99999e-01,9.99999e-01,8.04788e-16,9.99999e-01
4.162828176e-01,1.59894e-15,9.99999e-01,9.99999e-01,1.59894e-15,9.99999e-01
4.183642317e-01,3.13395e-15,9.99999e-01,9.99999e-01,3.13395e-15,9.99999e-01
4.204560528e-01,6.06151e-15,9.99999e-01,9.99999e-01,6.06151e-15,9.99999e-01
4.225583331e-01,1.15720e-14,9.99999e-01,9.99999e-01,1.15720e-14,9.99999e-01
4.246711247e-01,2.18118e-14,9.99999e-01,9.99999e-01,2.18118e-14,9.99999e-01
4.267944804e-01,4.06010e-14,9.99999e-01,9.99999e-01,4.06010e-14,9.99999e-01
4.289284528e-01,7.46537e-14,9.99999e-01,9.99999e-01,7.46537e-14,9.99999e-01
4.310730950e-01,1.35625e-13,9.99999e-01,9.99999e-01,1.35625e-13,9.99999e-01
4.332284605e-01,2.43506e-13,9.99999e-01,9.99999e-01,2.43506e-13,9.99999e-01
4.353946028e-01,4.32172e-13,9.99999e-01,9.99999e-01,4.32172e-13,9.99999e-01
4.375715758e-01,7.58374e-13,9.99999e-01,9.99999e-01,7.58374e-13,9.99999e-01
4.397594337e-01,1.31609e-12,9.99999e-01,9.99999e-01,1.31609e-12,9.99999e-01
4.419582309e-01,2.25922e-12,9.99999e-01,9.99999e-01,2.25922e-12,9.99999e-01
4.441680220e-01,3.83705e-12,9.99999e-01,9.99999e-01,3.83705e-12,9.99999e-01
4.463888621e-01,6.44899e-12,9.99999e-01,9.99999e-01,6.44899e-12,9.99999e-01
4.486208064e-01,1.07283e-11,9.99999e-01,9.99999e-01,1.07283e-11,9.99999e-01
4.508639105e-01,1.76688e-11,9.99999e-01,9.99999e-01,1.76688e-11,9.99999e-01
4.531182300e-01,2.88138e-11,9.99999e-01,9.99999e-01,2.88138e-11,9.99999e-01
4.553838212e-01,4.65371e-11,9.99999e-01,9.99999e-01,4.65371e-11,9.99999e-01
4.576607403e-01,7.44537e-11,9.99999e-01,9.99999e-01,7.44537e-11,9.99999e-01
4.599490440e-01,1.18016e-10,9.99999e-01,9.99999e-01,1.18016e-10,9.99999e-01
4.622487892e-01,1.85372e-10,9.99999e-01,9.99999e-01,1.85372e-10,9.99999e-01
4.645600332e-01,2.88586e-10,9.99999e-01,9.99999e-01,2.88586e-10,9.99999e-01
4.668828333e-01,4.45357e-10,9.99999e-01,9.99999e-01,4.45357e-10,9.99999e-01
4.692172475e-01,6.81428e-10,9.99999e-01,9.99999e-01,6.81428e-10,9.99999e-01
4.715633337e-01,1.03391e-09,9.99999e-01,9.99999e-01,1.03391e-09,9.99999e-01
4.739211504e-01,1.55585e-09,9.99999e-01,9.99999e-01,1.55585e-09,9.99999e-01
4.762907561e-01,2.32246e-09,9.99999e-01,9.99999e-01,2.32246e-09,9.99999e-01
4.786722099e-01,3.43948e-09,9.99999e-01,9.99999e-01,3.43948e-09,9.99999e-01
4.810655710e-01,5.05438e-09,9.99999e-01,9.99999e-01,5.05438e-09,9.99999e-01
4.834708988e-01,7.37125e-09,9.99999e-01,9.99999e-01,7.37125e-09,9.99999e-01
4.858882533e-01,1.06703e-08,9.99999e-01,9.99999e-01,1.06703e-08,9.99999e-01
4.883176946e-01,1.53335e-08,9.99999e-01,9.99999e-01,1.53335e-08,9.99999e-01
4.907592831e-01,2.18773e-08,9.99999e-01,9.99999e-01,2.18773e-08,9.99999e-01
4.932130795e-01,3.09954e-08,9.99999e-01,9.99999e-01,3.09954e-08,9.99999e-01
4.956791449e-01,4.36127e-08,9.99999e-01,9.99999e-01,4.36127e-08,9.99999e-01
4.981575406e-01,6.09536e-08,9.99999e-01,9.99999e-01,6.09536e-08,9.99999e-01
5.006483283e-01,8.46279e-08,9.99999e-01,9.99999e-01,8.46279e-08,9.99999e-01
5.031515699e-01,1.16738e-07,9.99999e-01,9.99999e-01,1.16738e-07,9.99999e-01
5.056673278e-01,1.60012e-07,9.99999e-01,9.99999e-01,1.60012e-07,9.99999e-01
5.081956644e-01,2.17965e-07,9.99999e-01,9.99999e-01,2.17965e-07,9.99999e-01
5.107366428e-01,2.95101e-07,9.99999e-01,9.99999e-01,2.95101e-07,9.99999e-01
5.132903260e-01,3.97150e-07,9.99999e-01,9.99999e-01,3.97150e-07,9.99999e-01
5.158567776e-01,5.31363e-07,9.99999e-01,9.99999e-01,5.31363e-07,9.99999e-01
5.184360615e-01,7.06855e-07,9.99999e-01,9.99999e-01,7.06855e-07,9.99999e-01
5.210282418e-01,9.35021e-07,9.99999e-01,9.99999e-01,9.35021e-07,9.99999e-01
5.236333830e-01,1.23002e-06,9.99999e-01,9.99999e-01,1.23002e-06,9.99999e-01
5.262515499e-01,1.60935e-06,9.99999e-01,9.99999e-01,1.60935e-06,9.99999e-01
5.288828077e-01,2.09452e-06,9.99999e-01,9.99999e-01,2.09452e-06,9.99999e-01
5.315272217e-01,2.71180e-06,9.99999e-01,9.99999e-01,2.71180e-06,9.99999e-01
5.341848578e-01,3.49312e-06,9.99999e-01,9.99999e-01,3.49312e-06,9.99999e-01
5.368557821e-01,4.47712e-06,9.99999e-01,9.99999e-01,4.47712e-06,9.99999e-01
5.395400610e-01,5.71025e-06,9.99999e-01,9.99999e-01,5.71025e-06,9.99999e-01
5.422377613e-01,7.24810e-06,9.99999e-01,9.99999e-01,7.24810e-06,9.99999e-01
5.449489501e-01,9.15687e-06,9.99999e-01,9.99999e-01,9.15687e-06,9.99999e-01
5.476736949e-01,1.15150e-05,9.99999e-01,9.99999e-01,1.15150e-05,9.99999e-01
5.504120634e-01,1.44151e-05,9.99999e-01,9.99999e-01,1.44151e-05,9.99999e-01
5.531641237e-01,1.79656e-05,9.99999e-01,9.99999e-01,1.79656e-05,9.99999e-01
5.559299443e-01,2.22936e-05,9.99999e-01,9.99999e-01,2.22936e-05,9.99999e-01
5.587095940e-01,2.75464e-05,9.99999e-01,9.99999e-01,2.75464e-05,9.99999e-01
5.615031420e-01,3.38949e-05,9.99999e-01,9.99999e-01,3.38949e-05,9.99999e-01
5.643106577e-01,4.15361e-05,9.99999e-01,9.99999e-01,4.15361e-05,9.99999e-01
5.671322110e-01,5.06958e-05,9.99999e-01,9.99999e-01,5.06958e-05,9.99999e-01
5.699678720e-01,6.16325e-05,9.99999e-01,9.99999e-01,6.16325e-05,9.99999e-01
5.728177114e-01,7.46399e-05,9.99999e-01,9.99999e-01,7.46399e-05,9.99999e-01
5.756818000e-01,9.00514e-05,9.99999e-01,9.99999e-01,9.00514e-05,9.99999e-01
5.785602090e-01,1.08243e-04,9.99999e-01,9.99999e-01,1.08243e-04,9.99999e-01
5.814530100e-01,1.29637e-04,9.99999e-01,9.99999e-01,1.29637e-04,9.99999e-01
5.843602750e-01,1.54708e-04,9.99999e-01,9.99999e-01,1.54708e-04,9.99999e-01
5.872820764e-01,1.83984e-04,9.99999e-01,9.99999e-01,1.83984e-04,9.99999e-01
5.902184868e-01,2.18052e-04,9.99999e-01,9.99999e-01,2.18052e-04,9.99999e-01
5.931695792e-01,2.57562e-04,9.99999e-01,9.99999e-01,2.57562e-04,9.99999e-01
5.961354271e-01,3.03233e-04,9.99999e-01,9.99999e-01,3.03233e-04,9.99999e-01
5.991161043e-01,3.55852e-04,9.99999e-01,9.99999e-01,3.55852e-04,9.99999e-01
6.021116848e-01,4.16285e-04,9.99999e-01,9.99999e-01,4.16285e-04,9.99999e-01
6.051222432e-01,4.85474e-04,9.99999e-01,9.99999e-01,4.85474e-04,9.99999e-01
6.081478544e-01,5.64446e-04,9.99999e-01,9.99999e-01,5.64446e-04,9.99999e-01
6.111885937e-01,6.54313e-04,9.99999e-01,9.99999e-01,6.54313e-04,9.99999e-01
6.142445367e-01,7.56279e-04,9.99999e-01,9.99999e-01,7.56279e-04,9.99999e-01
6.173157594e-01,8.71637e-04,9.99999e-01,9.99999e-01,8.71637e-04,9.99999e-01
6.204023382e-01,1.00178e-03,9.99999e-01,9.99999e-01,1.00178e-03,9.99999e-01
6.235043498e-01,1.14819e-03,9.99999e-01,9.99999e-01,1.14819e-03,9.99999e-01
6.266218716e-01,1.31246e-03,9.99999e-01,9.99999e-01,1.31246e-03,9.99999e-01
6.297549810e-01,1.49627e-03,9.99999e-01,9.99999e-01,1.49627e-03,9.99999e-01
6.329037559e-01,1.70142e-03,9.99999e-01,9.99999e-01,1.70142e-03,9.99999e-01
6.360682746e-01,1.92979e-03,9.99999e-01,9.99999e-01,1.92979e-03,9.99999e-01
6.392486160e-01,2.18337e-03,9.99999e-01,9.99999e-01,2.18337e-03,9.99999e-01
6.424448591e-01,2.46426e-03,9.99999e-01,9.99999e-01,2.46426e-03,9.99999e-01
6.456570834e-01,2.77464e-03,9.99999e-01,9.99999e-01,2.77464e-03,9.99999e-01
6.488853688e-01,3.11681e-03,9.99999e-01,9.99999e-01,3.11681e-03,9.99999e-01
6.521297956e-01,3.49313e-03,9.99999e-01,9.99999e-01,3.49313e-03,9.99999e-01
6.553904446e-01,3.90610e-03,9.99999e-01,9.99999e-01,3.90610e-03,9.99999e-01
6.586673968e-01,4.35825e-03,9.99999e-01,9.99999e-01,4.35825e-03,9.99999e-01
6.619607338e-01,4.85223e-03,9.99999e-01,9.99999e-01,4.85223e-03,9.99999e-01
6.652705375e-01,5.39076e-03,9.99999e-01,9.99999e-01,5.39076e-03,9.99999e-01
6.685968902e-01,5.97662e-03,9.99999e-01,9.99999e-01,5.97662e-03,9.99999e-01
6.719398746e-01,6.61265e-03,9.99999e-01,9.99999e-01,6.61265e-03,9.99999e-01
6.752995740e-01,7.30178e-03,9.99999e-01,9.99999e-01,7.30178e-03,9.99999e-01
6.786760719e-01,8.04695e-03,9.99999e-01,9.99999e-01,8.04695e-03,9.99999e-01
6.820694522e-01,8.85116e-03,9.99999e-01,9.99999e-01,8.85116e-03,9.99999e-01
6.854797995e-01,9.71745e-03,9.99999e-01,9.99999e-01,9.71745e-03,9.99999e-01
6.889071985e-01,1.06489e-02,9.99999e-01,9.99999e-01,1.06489e-02,9.99999e-01
6.923517345e-01,1.16485e-02,9.99999e-01,9.99999e-01,1.16485e-02,9.99999e-01
6.958134932e-01,1.27193e-02,9.99999e-01,9.99999e-01,1.27193e-02,9.99999e-01
6.992925606e-01,1.38646e-02,9.99999e-01,9.99999e-01,1.38646e-02,9.99999e-01
7.027890234e-01,1.50872e-02,9.99999e-01,9.99999e-01,1.50872e-02,9.99999e-01
7.063029686e-01,1.63902e-02,9.99999e-01,9.99999e-01,1.63902e-02,9.99999e-01
7.098344834e-01,1.77767e-02,9.99999e-01,9.99999e-01,1.77767e-02,9.99999e-01
7.133836558e-01,1.92496e-02,9.99999e-01,9.99999e-01,1.92496e-02,9.99999e-01
7.169505741e-01,2.08117e-02,9.99999e-01,9.99999e-01,2.08117e-02,9.99999e-01
7.205353270e-01,2.24660e-02,9.99999e-01,9.99999e-01,2.24660e-02,9.99999e-01
7.241380036e-01,2.42151e-02,9.99999e-01,9.99999e-01,2.42151e-02,9.99999e-01
7.277586936e-01,2.60619e-02,9.99999e-01,9.99999e-01,2.60619e-02,9.99999e-01
7.313974871e-01,2.80087e-02,9.99999e-01,9.99999e-01,2.80087e-02,9.99999e-01
7.350544745e-01,3.00582e-02,9.99999e-01,9.99999e-01,3.00582e-02,9.99999e-01
7.387297469e-01,3.22127e-02,9.99999e-01,9.99999e-01,3.22127e-02,9.99999e-01
7.424233956e-01,3.44744e-02,9.99999e-01,9.99999e-01,3.44744e-02,9.99999e-01
7.461355126e-01,3.68456e-02,9.99999e-01,9.99999e-01,3.68456e-02,9.99999e-01
7.498661902e-01,3.93281e-02,9.99999e-01,9.99999e-01,3.93281e-02,9.99999e-01
7.536155211e-01,4.19238e-02,9.99999e-01,9.99999e-01,4.19238e-02,9.99999e-01
7.573835987e-01,4.46345e-02,9.99999e-01,9.99999e-01,4.46345e-02,9.99999e-01
7.611705167e-01,4.74617e-02,9.99999e-01,9.99999e-01,4.74617e-02,9.99999e-01
7.649763693e-01,5.04067e-02,9.99999e-01,9.99999e-01,5.04067e-02,9.99999e-01
7.688012511e-01,5.34709e-02,9.99999e-01,9.99999e-01,5.34709e-02,9.99999e-01
7.726452574e-01,5.66553e-02,9.99999e-01,9.99999e-01,5.66553e-02,9.99999e-01
7.765084837e-01,5.99607e-02,9.99999e-01,9.99999e-01,5.99607e-02,9.99999e-01
7.803910261e-01,5.69289e-02,9.99999e-01,8.98101e-01,6.33880e-02,9.99999e-01
7.842929812e-01,3.93129e-02,9.99999e-01,5.87306e-01,6.69376e-02,9.99999e-01
7.882144461e-01,4.02752e-02,9.99999e-01,5.70389e-01,7.06100e-02,9.99999e-01
7.921555184e-01,5.24295e-02,9.99999e-01,7.04646e-01,7.44053e-02,9.99999e-01
7.961162960e-01,6.18018e-02,9.99999e-01,7.89056e-01,7.83236e-02,9.99999e-01
8.000968774e-01,7.24107e-02,9.99999e-01,8.79147e-01,8.23647e-02,9.99999e-01
8.040973618e-01,8.09428e-02,9.99999e-01,9.35449e-01,8.65282e-02,9.99999e-01
8.081178486e-01,8.80642e-02,9.99999e-01,9.69723e-01,9.08137e-02,9.99999e-01
8.121584379e-01,9.43257e-02,9.99999e-01,9.90601e-01,9.52205e-02,9.99999e-01
8.162192301e-01,9.95400e-02,9.99999e-01,9.97916e-01,9.97478e-02,9.99999e-01
8.203003262e-01,1.04391e-01,9.99999e-01,9.99970e-01,1.04394e-01,9.99999e-01
8.244018279e-01,1.09159e-01,9.99999e-01,9.99999e-01,1.09159e-01,9.99999e-01
8.285238370e-01,1.14041e-01,9.99999e-01,9.99999e-01,1.14041e-01,9.99999e-01
8.326664562e-01,1.19038e-01,9.99999e-01,9.99999e-01,1.19038e-01,9.99999e-01
8.368297885e-01,1.24149e-01,9.99999e-01,9.99999e-01,1.24149e-01,9.99999e-01
8.410139374e-01,1.29372e-01,9.99999e-01,9.99999e-01,1.29372e-01,9.99999e-01
8.452190071e-01,1.34705e-01,9.99999e-01,9.99999e-01,1.34705e-01,9.99999e-01
8.494451021e-01,1.40146e-01,9.99999e-01,9.99999e-01,1.40146e-01,9.99999e-01
8.536923276e-01,1.45693e-01,9.99999e-01,9.99999e-01,1.45693e-01,9.99999e-01
8.579607893e-01,1.51343e-01,9.99999e-01,9.99999e-01,1.51343e-01,9.99999e-01
8.622505932e-01,1.57094e-01,9.99999e-01,9.99999e-01,1.57094e-01,9.99999e-01
8.665618462e-01,1.39379e-01,9.99999e-01,8.55378e-01,1.62944e-01,9.99999e-01
8.708946554e-01,4.59199e-02,9.99999e-01,2.71893e-01,1.68889e-01,9.99999e-01
8.752491287e-01,5.85916e-02,9.99999e-01,3.34947e-01,1.74928e-01,9.99999e-01
8.796253743e-01,9.76360e-02,9.99999e-01,5.39256e-01,1.81057e-01,9.99999e-01
8.840235012e-01,1.34930e-01,9.99999e-01,7.20498e-01,1.87273e-01,9.99999e-01
8.884436187e-01,1.69959e-01,9.99999e-01,8.78010e-01,1.93573e-01,9.99999e-01
8.928858368e-01,1.89646e-01,9.99999e-01,9.48446e-01,1.99955e-01,9.99999e-01
8.973502660e-01,2.03785e-01,9.99999e-01,9.87262e-01,2.06414e-01,9.99999e-01
9.018370173e-01,2.12649e-01,9.99999e-01,9.98590e-01,2.12949e-01,9.99999e-01
9.063462024e-01,2.11783e-01,9.99999e-01,9.64600e-01,2.19555e-01,9.99999e-01
9.108779334e-01,2.08122e-01,9.99999e-01,9.19959e-01,2.26230e-01,9.99999e-01
9.154323231e-01,2.28474e-01,9.99999e-01,9.80702e-01,2.32969e-01,9.99999e-01
9.200094847e-01,1.88227e-01,9.99999e-01,7.85029e-01,2.39771e-01,9.99999e-01
9.246095321e-01,1.64435e-01,9.99999e-01,6.66723e-01,2.46631e-01,9.99999e-01
9.292325798e-01,1.85564e-01,9.99999e-01,7.31876e-01,2.53545e-01,9.99999e-01
9.338787427e-01,1.92062e-01,9.99999e-01,7.37249e-01,2.60512e-01,9.99999e-01
9.385481364e-01,2.13334e-01,9.99999e-01,7.97432e-01,2.67526e-01,9.99999e-01
9.432408771e-01,2.38865e-01,9.99999e-01,8.69910e-01,2.74585e-01,9.99999e-01
9.479570815e-01,2.62200e-01,9.99999e-01,9.30823e-01,2.81685e-01,9.99999e-01
9.526968669e-01,2.79035e-01,9.99999e-01,9.66106e-01,2.88824e-01,9.99999e-01
9.574603512e-01,2.91661e-01,9.99999e-01,9.85352e-01,2.95996e-01,9.99999e-01
9.622476530e-01,3.01809e-01,9.99999e-01,9.95409e-01,3.03201e-01,9.99999e-01
9.670588912e-01,3.10005e-01,9.99999e-01,9.98624e-01,3.10432e-01,9.99999e-01
9.718941857e-01,3.17658e-01,9.99999e-01,9.99903e-01,3.17689e-01,9.99999e-01
9.767536566e-01,3.24967e-01,9.99999e-01,9.99999e-01,3.24967e-01,9.99999e-01
9.816374249e-01,3.32262e-01,9.99999e-01,9.99999e-01,3.32262e-01,9.99999e-01
9.865456120e-01,3.39573e-01,9.99999e-01,9.99999e-01,3.39573e-01,9.99999e-01
9.914783401e-01,3.46895e-01,9.99999e-01,9.99999e-01,3.46895e-01,9.99999e-01
9.964357318e-01,3.54226e-01,9.99999e-01,9.99999e-01,3.54226e-01,9.99999e-01
1.001417910e+00,3.61562e-01,9.99999e-01,9.99999e-01,3.61562e-01,9.99999e-01
1.006425000e+00,3.68901e-01,9.99999e-01,9.99999e-01,3.68901e-01,9.99999e-01
1.011457125e+00,3.76240e-01,9.99999e-01,9.99999e-01,3.76240e-01,9.99999e-01
1.016514411e+00,3.83575e-01,9.99999e-01,9.99999e-01,3.83575e-01,9.99999e-01
1.021596983e+00,3.90822e-01,9.99999e-01,9.99789e-01,3.90904e-01,9.99999e-01
1.026704968e+00,3.92561e-01,9.99999e-01,9.85776e-01,3.98225e-01,9.99999e-01
1.031838492e+00,3.61013e-01,9.99999e-01,8.90218e-01,4.05533e-01,9.99999e-01
1.036997685e+00,1.66461e-02,9.99999e-01,4.03222e-02,4.12828e-01,9.99999e-01
1.042182673e+00,6.11199e-04,9.99999e-01,1.45487e-03,4.20106e-01,9.99999e-01
1.047393587e+00,1.72611e-03,9.99999e-01,4.03896e-03,4.27364e-01,9.99999e-01
1.052630555e+00,4.58106e-08,9.99999e-01,1.05408e-07,4.34601e-01,9.99999e-01
1.057893707e+00,1.74406e-07,9.99999e-01,3.94749e-07,4.41814e-01,9.99999e-01
1.063183176e+00,8.91230e-06,9.99999e-01,1.98492e-05,4.49000e-01,9.99999e-01
1.068499092e+00,1.18913e-04,9.99999e-01,2.60684e-04,4.56158e-01,9.99999e-01
1.073841587e+00,2.19968e-03,9.99999e-01,4.74799e-03,4.63286e-01,9.99999e-01
1.079210795e+00,1.65975e-02,9.99999e-01,3.52852e-02,4.70380e-01,9.99999e-01
1.084606849e+00,7.05330e-02,9.99999e-01,1.47731e-01,4.77440e-01,9.99999e-01
1.090029883e+00,1.77418e-01,9.99999e-01,3.66216e-01,4.84464e-01,9.99999e-01
1.095480033e+00,2.98890e-01,9.99999e-01,6.08180e-01,4.91449e-01,9.99999e-01
1.100957433e+00,3.91539e-01,9.99999e-01,7.85601e-01,4.98393e-01,9.99999e-01
1.106462220e+00,4.57241e-01,9.99999e-01,9.04896e-01,5.05296e-01,9.99999e-01
1.111994531e+00,4.93500e-01,9.99999e-01,9.63574e-01,5.12155e-01,9.99999e-01
1.117554504e+00,5.14303e-01,9.99999e-01,9.91008e-01,5.18969e-01,9.99999e-01
1.123142276e+00,5.25427e-01,9.99999e-01,9.99409e-01,5.25737e-01,9.99999e-01
1.128757988e+00,5.32456e-01,9.99999e-01,9.99999e-01,5.32456e-01,9.99999e-01
1.134401778e+00,5.39126e-01,9.99999e-01,9.99999e-01,5.39126e-01,9.99999e-01
1.140073787e+00,5.45745e-01,9.99999e-01,9.99999e-01,5.45745e-01,9.99999e-01
1.145774156e+00,5.52313e-01,9.99999e-01,9.99999e-01,5.52313e-01,9.99999e-01
1.151503026e+00,5.58827e-01,9.99999e-01,9.99999e-01,5.58827e-01,9.99999e-01
1.157260541e+00,5.65288e-01,9.99999e-01,9.99999e-01,5.65288e-01,9.99999e-01
1.163046844e+00,5.71693e-01,9.99999e-01,9.99999e-01,5.71693e-01,9.99999e-01
1.168862078e+00,5.78042e-01,9.99999e-01,9.99999e-01,5.78042e-01,9.99999e-01
1.174706389e+00,5.84334e-01,9.99999e-01,9.99999e-01,5.84334e-01,9.99999e-01
1.180579921e+00,5.90569e-01,9.99999e-01,9.99999e-01,5.90569e-01,9.99999e-01
1.186482820e+00,5.96727e-01,9.99999e-01,9.99969e-01,5.96744e-01,9.99999e-01
1.192415234e+00,5.74009e-01,9.99999e-01,9.52141e-01,6.02861e-01,9.99999e-01
1.198377311e+00,3.06622e-01,9.99999e-01,5.03552e-01,6.08917e-01,9.99999e-01
1.204369197e+00,2.61875e-36,9.99999e-01,4.25872e-36,6.14913e-01,9.99999e-01
1.210391043e+00,1.40731e-148,9.99999e-01,2.26675e-148,6.20848e-01,9.99999e-01
1.216442998e+00,1.68002e-128,9.99999e-01,2.68065e-128,6.26721e-01,9.99999e-01
1.222525213e+00,1.44873e-126,9.99999e-01,2.29036e-126,6.32532e-01,9.99999e-01
1.228637839e+00,1.56654e-97,9.99999e-01,2.45431e-97,6.38281e-01,9.99999e-01
1.234781029e+00,1.78642e-60,9.99999e-01,2.77408e-60,6.43966e-01,9.99999e-01
1.240954934e+00,5.54918e-40,9.99999e-01,8.54259e-40,6.49589e-01,9.99999e-01
1.247159708e+00,5.57620e-19,9.99999e-01,8.51136e-19,6.55148e-01,9.99999e-01
1.253395507e+00,6.31158e-13,9.99999e-01,9.55368e-13,6.60644e-01,9.99999e-01
1.259662485e+00,1.28141e-07,9.99999e-01,1.92382e-07,6.66075e-01,9.99999e-01
1.265960797e+00,1.52949e-04,9.99999e-01,2.27791e-04,6.71443e-01,9.99999e-01
1.272290601e+00,1.20373e-02,9.99999e-01,1.77870e-02,6.76747e-01,9.99999e-01
1.278652054e+00,1.15299e-02,9.99999e-01,1.69063e-02,6.81986e-01,9.99999e-01
1.285045314e+00,5.03745e-06,9.99999e-01,7.33079e-06,6.87162e-01,9.99999e-01
1.291470541e+00,3.07337e-17,9.99999e-01,4.43953e-17,6.92273e-01,9.99999e-01
1.297927893e+00,6.00231e-06,9.99999e-01,8.60767e-06,6.97320e-01,9.99999e-01
1.304417533e+00,4.10916e-04,9.99999e-01,5.85097e-04,7.02304e-01,9.99999e-01
1.310939621e+00,8.35156e-05,9.99999e-01,1.18089e-04,7.07223e-01,9.99999e-01
1.317494319e+00,4.95280e-51,9.99999e-01,6.95540e-51,7.12079e-01,9.99999e-01
1.324081790e+00,9.15664e-33,9.99999e-01,1.27731e-32,7.16871e-01,9.99999e-01
1.330702199e+00,1.68279e-19,9.99999e-01,2.33202e-19,7.21600e-01,9.99999e-01
1.337355710e+00,1.01610e-17,9.99999e-01,1.39908e-17,7.26265e-01,9.99999e-01
1.344042489e+00,5.91496e-18,9.99999e-01,8.09305e-18,7.30868e-01,9.99999e-01
1.350762701e+00,8.10807e-20,9.99999e-01,1.10252e-19,7.35408e-01,9.99999e-01
1.357516515e+00,6.68560e-12,9.99999e-01,9.03598e-12,7.39886e-01,9.99999e-01
1.364304097e+00,8.05313e-09,9.99999e-01,1.08197e-08,7.44302e-01,9.99999e-01
1.371125618e+00,6.74188e-05,9.99999e-01,9.00530e-05,7.48656e-01,9.99999e-01
1.377981246e+00,2.26868e-04,9.99999e-01,3.01305e-04,7.52949e-01,9.99999e-01
1.384871152e+00,6.56429e-03,9.99999e-01,8.66937e-03,7.57181e-01,9.99999e-01
1.391795508e+00,9.80078e-03,9.99999e-01,1.28728e-02,7.61353e-01,9.99999e-01
1.398754485e+00,4.78736e-02,9.99999e-01,6.25419e-02,7.65464e-01,9.99999e-01
1.405748258e+00,1.03239e-01,9.99999e-01,1.34161e-01,7.69516e-01,9.99999e-01
1.412776999e+00,2.14596e-01,9.99999e-01,2.77431e-01,7.73509e-01,9.99999e-01
1.419840884e+00,2.07148e-01,9.99998e-01,2.66448e-01,7.77442e-01,9.99999e-01
1.426940089e+00,6.50884e-03,9.99998e-01,8.33058e-03,7.81318e-01,9.99999e-01
1.434074789e+00,0.00000e+00,9.99998e-01,0.00000e+00,7.85136e-01,9.99999e-01
1.441245163e+00,0.00000e+00,9.99999e-01,0.00000e+00,7.88896e-01,9.99999e-01
1.448451389e+00,0.00000e+00,9.99998e-01,0.00000e+00,7.92600e-01,9.99999e-01
1.455693646e+00,0.00000e+00,9.99999e-01,0.00000e+00,7.96247e-01,9.99999e-01
1.462972114e+00,0.00000e+00,9.99999e-01,0.00000e+00,7.99839e-01,9.99999e-01
1.470286975e+00,1.32607e-246,9.99999e-01,1.65062e-246,8.03375e-01,9.99999e-01
