#,Wave/freq,Total,N2,CO2,Rayleigh,CIA
4.000000000e-01,1.78843e-03,9.99999e-01,9.99999e-01,1.78843e-03,9.99999e-01
4.020000000e-01,2.02674e-03,9.99999e-01,9.99999e-01,2.02674e-03,9.99999e-01
4.040100000e-01,2.29084e-03,9.99999e-01,9.99999e-01,2.29084e-03,9.99999e-01
4.060300500e-01,2.58311e-03,9.99999e-01,9.99999e-01,2.58311e-03,9.99999e-01
4.080602003e-01,2.90575e-03,9.99999e-01,9.99999e-01,2.90575e-03,9.99999e-01
4.101005013e-01,3.26111e-03,9.99999e-01,9.99999e-01,3.26111e-03,9.99999e-01
4.121510038e-01,3.65160e-03,9.99999e-01,9.99999e-01,3.65160e-03,9.99999e-01
4.142117588e-01,4.07972e-03,9.99999e-01,9.99999e-01,4.07972e-03,9.99999e-01
4.162828176e-01,4.54806e-03,9.99999e-01,9.99999e-01,4.54806e-03,9.99999e-01
4.183642317e-01,5.05929e-03,9.99999e-01,9.99999e-01,5.05929e-03,9.99999e-01
4.204560528e-01,5.61616e-03,9.99999e-01,9.99999e-01,5.61616e-03,9.99999e-01
4.225583331e-01,6.22148e-03,9.99999e-01,9.99999e-01,6.22148e-03,9.99999e-01
4.246711247e-01,6.87812e-03,9.99999e-01,9.99999e-01,6.87812e-03,9.99999e-01
4.267944804e-01,7.58901e-03,9.99999e-01,9.99999e-01,7.58901e-03,9.99999e-01
4.289284528e-01,8.35712e-03,9.99999e-01,9.99999e-01,8.35712e-03,9.99999e-01
4.310730950e-01,9.18547e-03,9.99999e-01,9.99999e-01,9.18547e-03,9.99999e-01
4.332284605e-01,1.00771e-02,9.99999e-01,9.99999e-01,1.00771e-02,9.99999e-01
4.353946028e-01,1.10350e-02,9.99999e-01,9.99999e-01,1.10350e-02,9.99999e-01
4.375715758e-01,1.20624e-02,9.99999e-01,9.99999e-01,1.20624e-02,9.99999e-01
4.397594337e-01,1.31623e-02,9.99999e-01,9.99999e-01,1.31623e-02,9.99999e-01
4.419582309e-01,1.43377e-02,9.99999e-01,9.99999e-01,1.43377e-02,9.99999e-01
4.441680220e-01,1.55917e-02,9.99999e-01,9.99999e-01,1.55917e-02,9.99999e-01
4.463888621e-01,1.69273e-02,9.99999e-01,9.99999e-01,1.69273e-02,9.99999e-01
4.486208064e-01,1.83475e-02,9.99999e-01,9.99999e-01,1.83475e-02,9.99999e-01
4.508639105e-01,1.98553e-02,9.99999e-01,9.99999e-01,1.98553e-02,9.99999e-01
4.531182300e-01,2.14534e-02,9.99999e-01,9.99999e-01,2.14534e-02,9.99999e-01
4.553838212e-01,2.31448e-02,9.99999e-01,9.99999e-01,2.31448e-02,9.99999e-01
4.576607403e-01,2.49322e-02,9.99999e-01,9.99999e-01,2.49322e-02,9.99999e-01
4.599490440e-01,2.68181e-02,9.99999e-01,9.99999e-01,2.68181e-02,9.99999e-01
4.622487892e-01,2.88052e-02,9.99999e-01,9.99999e-01,2.88052e-02,9.99999e-01
4.645600332e-01,3.08958e-02,9.99999e-01,9.99999e-01,3.08958e-02,9.99999e-01
4.668828333e-01,3.30924e-02,9.99999e-01,9.99999e-01,3.30924e-02,9.99999e-01
4.692172475e-01,3.53970e-02,9.99999e-01,9.99999e-01,3.53970e-02,9.99999e-01
4.715633337e-01,3.78119e-02,9.99999e-01,9.99999e-01,3.78119e-02,9.99999e-01
4.739211504e-01,4.03389e-02,9.99999e-01,9.99999e-01,4.03389e-02,9.99999e-01
4.762907561e-01,4.29798e-02,9.99999e-01,9.99999e-01,4.29798e-02,9.99999e-01
4.786722099e-01,4.57363e-02,9.99999e-01,9.99999e-01,4.57363e-02,9.99999e-01
4.810655710e-01,4.86098e-02,9.99999e-01,9.99999e-01,4.86098e-02,9.99999e-01
4.834708988e-01,5.16017e-02,9.99999e-01,9.99999e-01,5.16017e-02,9.99999e-01
4.858882533e-01,5.47132e-02,9.99999e-01,9.99999e-01,5.47132e-02,9.99999e-01
4.883176946e-01,5.79453e-02,9.99999e-01,9.99999e-01,5.79453e-02,9.99999e-01
4.907592831e-01,6.12987e-02,9.99999e-01,9.99999e-01,6.12987e-02,9.99999e-01
4.932130795e-01,6.47743e-02,9.99999e-01,9.99999e-01,6.47743e-02,9.99999e-01
4.956791449e-01,6.83723e-02,9.99999e-01,9.99999e-01,6.83723e-02,9.99999e-01
4.981575406e-01,7.20932e-02,9.99999e-01,9.99999e-01,7.20932e-02,9.99999e-01
5.006483283e-01,7.59370e-02,9.99999e-01,9.99999e-01,7.59370e-02,9.99999e-01
5.031515699e-01,7.99038e-02,9.99999e-01,9.99999e-01,7.99038e-02,9.99999e-01
5.056673278e-01,8.39932e-02,9.99999e-01,9.99999e-01,8.39932e-02,9.99999e-01
5.081956644e-01,8.82050e-02,9.99999e-01,9.99999e-01,8.82050e-02,9.99999e-01
5.107366428e-01,9.25385e-02,9.99999e-01,9.99999e-01,9.25385e-02,9.99999e-01
5.132903260e-01,9.69929e-02,9.99999e-01,9.99999e-01,9.69929e-02,9.99999e-01
5.158567776e-01,1.01567e-01,9.99999e-01,9.99999e-01,1.01567e-01,9.99999e-01
5.184360615e-01,1.06261e-01,9.99999e-01,9.99999e-01,1.06261e-01,9.99999e-01
5.210282418e-01,1.11072e-01,9.99999e-01,9.99999e-01,1.11072e-01,9.99999e-01
5.236333830e-01,1.16000e-01,9.99999e-01,9.99999e-01,1.16000e-01,9.99999e-01
5.262515499e-01,1.21042e-01,9.99999e-01,9.99999e-01,1.21042e-01,9.99999e-01
5.288828077e-01,1.26197e-01,9.99999e-01,9.99999e-01,1.26197e-01,9.99999e-01
5.315272217e-01,1.31464e-01,9.99999e-01,9.99999e-01,1.31464e-01,9.99999e-01
5.341848578e-01,1.36840e-01,9.99999e-01,9.99999e-01,1.36840e-01,9.99999e-01
5.368557821e-01,1.42323e-01,9.99999e-01,9.99999e-01,1.42323e-01,9.99999e-01
5.395400610e-01,1.47911e-01,9.99999e-01,9.99999e-01,1.47911e-01,9.99999e-01
5.422377613e-01,1.53601e-01,9.99999e-01,9.99999e-01,1.53601e-01,9.99999e-01
5.449489501e-01,1.59391e-01,9.99999e-01,9.99999e-01,1.59391e-01,9.99999e-01
5.476736949e-01,1.65279e-01,9.99999e-01,9.99999e-01,1.65279e-01,9.99999e-01
5.504120634e-01,1.71262e-01,9.99999e-01,9.99999e-01,1.71262e-01,9.99999e-01
5.531641237e-01,1.77336e-01,9.99999e-01,9.99999e-01,1.77336e-01,9.99999e-01
5.559299443e-01,1.83500e-01,9.99999e-01,9.99999e-01,1.83500e-01,9.99999e-01
5.587095940e-01,1.89749e-01,9.99999e-01,9.99999e-01,1.89749e-01,9.99999e-01
5.615031420e-01,1.96082e-01,9.99999e-01,9.99999e-01,1.96082e-01,9.99999e-01
5.643106577e-01,2.02495e-01,9.99999e-01,9.99999e-01,2.02495e-01,9.99999e-01
5.671322110e-01,2.08985e-01,9.99999e-01,9.99999e-01,2.08985e-01,9.99999e-01
5.699678720e-01,2.15548e-01,9.99999e-01,9.99999e-01,2.15548e-01,9.99999e-01
5.728177114e-01,2.22181e-01,9.99999e-01,9.99999e-01,2.22181e-01,9.99999e-01
5.756818000e-01,2.28882e-01,9.99999e-01,9.99999e-01,2.28882e-01,9.99999e-01
5.785602090e-01,2.35647e-01,9.99999e-01,9.99999e-01,2.35647e-01,9.99999e-01
5.814530100e-01,2.42471e-01,9.99999e-01,9.99999e-01,2.42471e-01,9.99999e-01
5.843602750e-01,2.49353e-01,9.99999e-01,9.99999e-01,2.49353e-01,9.99999e-01
5.872820764e-01,2.56289e-01,9.99999e-01,9.99999e-01,2.56289e-01,9.99999e-01
5.902184868e-01,2.63274e-01,9.99999e-01,9.99999e-01,2.63274e-01,9.99999e-01
5.931695792e-01,2.70307e-01,9.99999e-01,9.99999e-01,2.70307e-01,9.99999e-01
5.961354271e-01,2.77382e-01,9.99999e-01,9.99999e-01,2.77382e-01,9.99999e-01
5.991161043e-01,2.84498e-01,9.99999e-01,9.99999e-01,2.84498e-01,9.99999e-01
6.021116848e-01,2.91651e-01,9.99999e-01,9.99999e-01,2.91651e-01,9.99999e-01
6.051222432e-01,2.98836e-01,9.99999e-01,9.99999e-01,2.98836e-01,9.99999e-01
6.081478544e-01,3.06052e-01,9.99999e-01,9.99999e-01,3.06052e-01,9.99999e-01
6.111885937e-01,3.13293e-01,9.99999e-01,9.99999e-01,3.13293e-01,9.99999e-01
6.142445367e-01,3.20559e-01,9.99999e-01,9.99999e-01,3.20559e-01,9.99999e-01
6.173157594e-01,3.27844e-01,9.99999e-01,9.99999e-01,3.27844e-01,9.99999e-01
6.204023382e-01,3.35146e-01,9.99999e-01,9.99999e-01,3.35146e-01,9.99999e-01
6.235043498e-01,3.42461e-01,9.99999e-01,9.99999e-01,3.42461e-01,9.99999e-01
6.266218716e-01,3.49787e-01,9.99999e-01,9.99999e-01,3.49787e-01,9.99999e-01
6.297549810e-01,3.57121e-01,9.99999e-01,9.99999e-01,3.57121e-01,9.99999e-01
6.329037559e-01,3.64459e-01,9.99999e-01,9.99999e-01,3.64459e-01,9.99999e-01
6.360682746e-01,3.71798e-01,9.99999e-01,9.99999e-01,3.71798e-01,9.99999e-01
6.392486160e-01,3.79135e-01,9.99999e-01,9.99999e-01,3.79135e-01,9.99999e-01
6.424448591e-01,3.86469e-01,9.99999e-01,9.99999e-01,3.86469e-01,9.99999e-01
6.456570834e-01,3.93794e-01,9.99999e-01,9.99999e-01,3.93794e-01,9.99999e-01
6.488853688e-01,4.01111e-01,9.99999e-01,9.99999e-01,4.01111e-01,9.99999e-01
6.521297956e-01,4.08414e-01,9.99999e-01,9.99999e-01,4.08414e-01,9.99999e-01
6.553904446e-01,4.15702e-01,9.99999e-01,9.99999e-01,4.15702e-01,9.99999e-01
6.586673968e-01,4.22973e-01,9.99999e-01,9.99999e-01,4.22973e-01,9.99999e-01
6.619607338e-01,4.30223e-01,9.99999e-01,9.99999e-01,4.30223e-01,9.99999e-01
6.652705375e-01,4.37451e-01,9.99999e-01,9.99999e-01,4.37451e-01,9.99999e-01
6.685968902e-01,4.44653e-01,9.99999e-01,9.99999e-01,4.44653e-01,9.99999e-01
6.719398746e-01,4.51829e-01,9.99999e-01,9.99999e-01,4.51829e-01,9.99999e-01
6.752995740e-01,4.58975e-01,9.99999e-01,9.99999e-01,4.58975e-01,9.99999e-01
6.786760719e-01,4.66090e-01,9.99999e-01,9.99999e-01,4.66090e-01,9.99999e-01
6.820694522e-01,4.73171e-01,9.99999e-01,9.99999e-01,4.73171e-01,9.99999e-01
6.854797995e-01,4.80217e-01,9.99999e-01,9.99999e-01,4.80217e-01,9.99999e-01
6.889071985e-01,4.87225e-01,9.99999e-01,9.99999e-01,4.87225e-01,9.99999e-01
6.923517345e-01,4.94194e-01,9.99999e-01,9.99999e-01,4.94194e-01,9.99999e-01
6.958134932e-01,5.01123e-01,9.99999e-01,9.99999e-01,5.01123e-01,9.99999e-01
6.992925606e-01,5.08008e-01,9.99999e-01,9.99999e-01,5.08008e-01,9.99999e-01
7.027890234e-01,5.14850e-01,9.99999e-01,9.99999e-01,5.14850e-01,9.99999e-01
7.063029686e-01,5.21646e-01,9.99999e-01,9.99999e-01,5.21646e-01,9.99999e-01
7.098344834e-01,5.28394e-01,9.99999e-01,9.99999e-01,5.28394e-01,9.99999e-01
7.133836558e-01,5.35094e-01,9.99999e-01,9.99999e-01,5.35094e-01,9.99999e-01
7.169505741e-01,5.41745e-01,9.99999e-01,9.99999e-01,5.41745e-01,9.99999e-01
7.205353270e-01,5.48344e-01,9.99999e-01,9.99999e-01,5.48344e-01,9.99999e-01
7.241380036e-01,5.54890e-01,9.99999e-01,9.99999e-01,5.54890e-01,9.99999e-01
7.277586936e-01,5.61384e-01,9.99999e-01,9.99999e-01,5.61384e-01,9.99999e-01
7.313974871e-01,5.67822e-01,9.99999e-01,9.99999e-01,5.67822e-01,9.99999e-01
7.350544745e-01,5.74205e-01,9.99999e-01,9.99999e-01,5.74205e-01,9.99999e-01
7.387297469e-01,5.80532e-01,9.99999e-01,9.99999e-01,5.80532e-01,9.99999e-01
7.424233956e-01,5.86802e-01,9.99999e-01,9.99999e-01,5.86802e-01,9.99999e-01
7.461355126e-01,5.93013e-01,9.99999e-01,9.99999e-01,5.93013e-01,9.99999e-01
7.498661902e-01,5.99165e-01,9.99999e-01,9.99999e-01,5.99165e-01,9.99999e-01
7.536155211e-01,6.05258e-01,9.99999e-01,9.99999e-01,6.05258e-01,9.99999e-01
7.573835987e-01,6.11291e-01,9.99999e-01,9.99999e-01,6.11291e-01,9.99999e-01
7.611705167e-01,6.17263e-01,9.99999e-01,9.99999e-01,6.17263e-01,9.99999e-01
7.649763693e-01,6.23173e-01,9.99999e-01,9.99999e-01,6.23173e-01,9.99999e-01
7.688012511e-01,6.29022e-01,9.99999e-01,9.99999e-01,6.29022e-01,9.99999e-01
7.726452574e-01,6.34808e-01,9.99999e-01,9.99999e-01,6.34808e-01,9.99999e-01
7.765084837e-01,6.40532e-01,9.99999e-01,9.99999e-01,6.40532e-01,9.99999e-01
7.803910261e-01,6.32910e-01,9.99999e-01,9.79443e-01,6.46193e-01,9.99999e-01
7.842929812e-01,5.94375e-01,9.99999e-01,9.11911e-01,6.51790e-01,9.99999e-01
7.882144461e-01,5.95615e-01,9.99999e-01,9.06119e-01,6.57324e-01,9.99999e-01
7.921555184e-01,6.26215e-01,9.99999e-01,9.44809e-01,6.62795e-01,9.99999e-01
7.961162960e-01,6.43218e-01,9.99999e-01,9.62610e-01,6.68201e-01,9.99999e-01
8.000968774e-01,6.59798e-01,9.99999e-01,9.79591e-01,6.73544e-01,9.99999e-01
8.040973618e-01,6.71595e-01,9.99999e-01,9.89352e-01,6.78822e-01,9.99999e-01
8.081178486e-01,6.80695e-01,9.99999e-01,9.95113e-01,6.84036e-01,9.99999e-01
8.121584379e-01,6.88139e-01,9.99999e-01,9.98480e-01,6.89187e-01,9.99999e-01
8.162192301e-01,6.94040e-01,9.99999e-01,9.99663e-01,6.94273e-01,9.99999e-01
8.203003262e-01,6.99291e-01,9.99999e-01,9.99994e-01,6.99295e-01,9.99999e-01
8.244018279e-01,7.04253e-01,9.99999e-01,9.99999e-01,7.04253e-01,9.99999e-01
8.285238370e-01,7.09147e-01,9.99999e-01,9.99999e-01,7.09147e-01,9.99999e-01
8.326664562e-01,7.13978e-01,9.99999e-01,9.99999e-01,7.13978e-01,9.99999e-01
8.368297885e-01,7.18745e-01,9.99999e-01,9.99999e-01,7.18745e-01,9.99999e-01
8.410139374e-01,7.23449e-01,9.99999e-01,9.99999e-01,7.23449e-01,9.99999e-01
8.452190071e-01,7.28089e-01,9.99999e-01,9.99999e-01,7.28089e-01,9.99999e-01
8.494451021e-01,7.32667e-01,9.99999e-01,9.99999e-01,7.32667e-01,9.99999e-01
8.536923276e-01,7.37183e-01,9.99999e-01,9.99999e-01,7.37183e-01,9.99999e-01
8.579607893e-01,7.41636e-01,9.99999e-01,9.99999e-01,7.41636e-01,9.99999e-01
8.622505932e-01,7.46028e-01,9.99999e-01,9.99999e-01,7.46028e-01,9.99999e-01
8.665618462e-01,7.11151e-01,9.99999e-01,9.47749e-01,7.50358e-01,9.99999e-01
8.708946554e-01,5.95891e-01,9.99999e-01,7.89649e-01,7.54627e-01,9.99999e-01
8.752491287e-01,6.28242e-01,9.99999e-01,8.27903e-01,7.58835e-01,9.99999e-01
8.796253743e-01,6.88331e-01,9.99999e-01,9.02157e-01,7.62983e-01,9.99999e-01
8.840235012e-01,7.27361e-01,9.99999e-01,9.48232e-01,7.67071e-01,9.99999e-01
8.884436187e-01,7.55097e-01,9.99999e-01,9.79248e-01,7.71099e-01,9.99999e-01
8.928858368e-01,7.68530e-01,9.99999e-01,9.91563e-01,7.75068e-01,9.99999e-01
8.973502660e-01,7.77372e-01,9.99999e-01,9.97936e-01,7.78979e-01,9.99999e-01
9.018370173e-01,7.82653e-01,9.99999e-01,9.99771e-01,7.82832e-01,9.99999e-01
9.063462024e-01,7.82119e-01,9.99999e-01,9.94269e-01,7.86627e-01,9.99999e-01
9.108779334e-01,7.79874e-01,9.99999e-01,9.86726e-01,7.90365e-01,9.99999e-01
9.154323231e-01,7.91546e-01,9.99999e-01,9.96851e-01,7.94046e-01,9.99999e-01
9.200094847e-01,7.61548e-01,9.99999e-01,9.54713e-01,7.97671e-01,9.99999e-01
9.246095321e-01,7.50481e-01,9.99999e-01,9.36648e-01,8.01241e-01,9.99999e-01
9.292325798e-01,7.64644e-01,9.99999e-01,9.50156e-01,8.04756e-01,9.99999e-01
9.338787427e-01,7.69082e-01,9.99999e-01,9.51579e-01,8.08216e-01,9.99999e-01
9.385481364e-01,7.82618e-01,9.99999e-01,9.64263e-01,8.11622e-01,9.99999e-01
9.432408771e-01,7.97005e-01,9.99999e-01,9.77949e-01,8.14975e-01,9.99999e-01
9.479570815e-01,8.08989e-01,9.99999e-01,9.88650e-01,8.18275e-01,9.99999e-01
9.526968669e-01,8.17010e-01,9.99999e-01,9.94504e-01,8.21523e-01,9.99999e-01
9.574603512e-01,8.22779e-01,9.99999e-01,9.97646e-01,8.24720e-01,9.99999e-01
9.622476530e-01,8.27257e-01,9.99999e-01,9.99264e-01,8.27865e-01,9.99999e-01
9.670588912e-01,8.30777e-01,9.99999e-01,9.99779e-01,8.30960e-01,9.99999e-01
9.718941857e-01,8.33992e-01,9.99999e-01,9.99983e-01,8.34005e-01,9.99999e-01
9.767536566e-01,8.37000e-01,9.99999e-01,9.99999e-01,8.37000e-01,9.99999e-01
9.816374249e-01,8.39947e-01,9.99999e-01,9.99999e-01,8.39947e-01,9.99999e-01
9.865456120e-01,8.42846e-01,9.99999e-01,9.99999e-01,8.42846e-01,9.99999e-01
9.914783401e-01,8.45697e-01,9.99999e-01,9.99999e-01,8.45697e-01,9.99999e-01
9.964357318e-01,8.48501e-01,9.99999e-01,9.99999e-01,8.48501e-01,9.99999e-01
1.001417910e+00,8.51259e-01,9.99999e-01,9.99999e-01,8.51259e-01,9.99999e-01
1.006425000e+00,8.53971e-01,9.99999e-01,9.99999e-01,8.53971e-01,9.99999e-01
1.011457125e+00,8.56638e-01,9.99999e-01,9.99999e-01,8.56638e-01,9.99999e-01
1.016514411e+00,8.59260e-01,9.99999e-01,9.99999e-01,8.59260e-01,9.99999e-01
1.021596983e+00,8.61814e-01,9.99999e-01,9.99971e-01,8.61839e-01,9.99999e-01
1.026704968e+00,8.62450e-01,9.99999e-01,9.97774e-01,8.64374e-01,9.99999e-01
1.031838492e+00,8.41371e-01,9.99999e-01,9.70589e-01,8.66866e-01,9.99999e-01
1.036997685e+00,2.09932e-01,9.99999e-01,2.41491e-01,8.69315e-01,9.99999e-01
1.042182673e+00,2.32359e-01,9.99999e-01,2.66551e-01,8.71724e-01,9.99999e-01
1.047393587e+00,2.29571e-01,9.99999e-01,2.62640e-01,8.74091e-01,9.99999e-01
1.052630555e+00,2.29086e-02,9.99999e-01,2.61388e-02,8.76417e-01,9.99999e-01
1.057893707e+00,4.63979e-02,9.99999e-01,5.28026e-02,8.78704e-01,9.99999e-01
1.063183176e+00,1.03640e-01,9.99999e-01,1.17646e-01,8.80951e-01,9.99999e-01
1.068499092e+00,2.08893e-01,9.99999e-01,2.36529e-01,8.83159e-01,9.99999e-01
1.073841587e+00,3.55909e-01,9.99999e-01,4.02007e-01,8.85329e-01,9.99999e-01
1.079210795e+00,4.99243e-01,9.99999e-01,5.62551e-01,8.87462e-01,9.99999e-01
1.084606849e+00,6.49253e-01,9.99999e-01,7.29860e-01,8.89557e-01,9.99999e-01
1.090029883e+00,7.57515e-01,9.99999e-01,8.49597e-01,8.91616e-01,9.99999e-01
1.095480033e+00,8.24667e-01,9.99999e-01,9.22819e-01,8.93638e-01,9.99999e-01
1.100957433e+00,8.61676e-01,9.99999e-01,9.62093e-01,8.95626e-01,9.99999e-01
1.106462220e+00,8.83344e-01,9.99999e-01,9.84141e-01,8.97578e-01,9.99999e-01
1.111994531e+00,8.94184e-01,9.99999e-01,9.94094e-01,8.99496e-01,9.99999e-01
1.117554504e+00,9.00074e-01,9.99999e-01,9.98550e-01,9.01380e-01,9.99999e-01
1.123142276e+00,9.03144e-01,9.99999e-01,9.99904e-01,9.03230e-01,9.99999e-01
1.128757988e+00,9.05048e-01,9.99999e-01,9.99999e-01,9.05048e-01,9.99999e-01
1.134401778e+00,9.06833e-01,9.99999e-01,9.99999e-01,9.06833e-01,9.99999e-01
1.140073787e+00,9.08586e-01,9.99999e-01,9.99999e-01,9.08586e-01,9.99999e-01
1.145774156e+00,9.10308e-01,9.99999e-01,9.99999e-01,9.10308e-01,9.99999e-01
1.151503026e+00,9.12000e-01,9.99999e-01,9.99999e-01,9.12000e-01,9.99999e-01
1.157260541e+00,9.13661e-01,9.99999e-01,9.99999e-01,9.13661e-01,9.99999e-01
1.163046844e+00,9.15292e-01,9.99999e-01,9.99999e-01,9.15292e-01,9.99999e-01
1.168862078e+00,9.16893e-01,9.99999e-01,9.99999e-01,9.16893e-01,9.99999e-01
1.174706389e+00,9.18466e-01,9.99999e-01,9.99999e-01,9.18466e-01,9.99999e-01
1.180579921e+00,9.20010e-01,9.99999e-01,9.99999e-01,9.20010e-01,9.99999e-01
1.186482820e+00,9.21524e-01,9.99999e-01,9.99996e-01,9.21527e-01,9.99999e-01
1.192415234e+00,9.15679e-01,9.99999e-01,9.92051e-01,9.23015e-01,9.99999e-01
1.198377311e+00,5.33913e-01,9.99999e-01,5.77529e-01,9.24477e-01,9.99999e-01
1.204369197e+00,1.21899e-07,9.99999e-01,1.31653e-07,9.25912e-01,9.99999e-01
1.210391043e+00,2.06586e-25,9.99999e-01,2.22777e-25,9.27321e-01,9.99999e-01
1.216442998e+00,3.11789e-22,9.99999e-01,3.35725e-22,9.28704e-01,9.99999e-01
1.222525213e+00,6.42052e-22,9.99999e-01,6.90332e-22,9.30062e-01,9.99999e-01
1.228637839e+00,6.49222e-17,9.99999e-01,6.97042e-17,9.31395e-01,9.99999e-01
1.234781029e+00,1.84969e-11,9.99999e-01,1.98314e-11,9.32703e-01,9.99999e-01
1.240954934e+00,8.52481e-08,9.99999e-01,9.12732e-08,9.33988e-01,9.99999e-01
1.247159708e+00,1.15746e-04,9.99999e-01,1.23760e-04,9.35248e-01,9.99999e-01
1.253395507e+00,5.96035e-03,9.99999e-01,6.36458e-03,9.36486e-01,9.99999e-01
1.259662485e+00,5.25965e-02,9.99999e-01,5.60908e-02,9.37700e-01,9.99999e-01
1.265960797e+00,1.75951e-01,9.99999e-01,1.87403e-01,9.38893e-01,9.99999e-01
1.272290601e+00,4.45819e-01,9.99999e-01,4.74244e-01,9.40063e-01,9.99999e-01
1.278652054e+00,4.14922e-01,9.99999e-01,4.40838e-01,9.41211e-01,9.99999e-01
1.285045314e+00,2.52989e-02,9.99999e-01,2.68470e-02,9.42338e-01,9.99999e-01
1.291470541e+00,1.10708e-03,9.99999e-01,1.17344e-03,9.43444e-01,9.99999e-01
1.297927893e+00,2.41039e-02,9.99999e-01,2.55195e-02,9.44530e-01,9.99999e-01
1.304417533e+00,2.69964e-01,9.99999e-01,2.85496e-01,9.45595e-01,9.99999e-01
1.310939621e+00,7.41771e-02,9.99999e-01,7.83582e-02,9.46640e-01,9.99999e-01
1.317494319e+00,3.38679e-09,9.99999e-01,3.57382e-09,9.47666e-01,9.99999e-01
1.324081790e+00,1.14555e-06,9.99999e-01,1.20753e-06,9.48673e-01,9.99999e-01
1.330702199e+00,6.14323e-04,9.99999e-01,6.46886e-04,9.49661e-01,9.99999e-01
1.337355710e+00,4.86123e-04,9.99999e-01,5.11369e-04,9.50630e-01,9.99999e-01
1.344042489e+00,1.55155e-04,9.99999e-01,1.63050e-04,9.51581e-01,9.99999e-01
1.350762701e+00,4.40687e-04,9.99999e-01,4.62656e-04,9.52515e-01,9.99999e-01
1.357516515e+00,6.22068e-03,9.99999e-01,6.52452e-03,9.53430e-01,9.99999e-01
1.364304097e+00,4.03819e-02,9.99999e-01,4.23144e-02,9.54329e-01,9.99999e-01
1.371125618e+00,1.79996e-01,9.99999e-01,1.88435e-01,9.55210e-01,9.99999e-01
1.377981246e+00,2.50649e-01,9.99999e-01,2.62164e-01,9.56075e-01,9.99999e-01
1.384871152e+00,4.38756e-01,9.99999e-01,4.58506e-01,9.56924e-01,9.99999e-01
1.391795508e+00,4.66058e-01,9.99999e-01,4.86613e-01,9.57757e-01,9.99999e-01
1.398754485e+00,6.15503e-01,9.99999e-01,6.42102e-01,9.58574e-01,9.99999e-01
1.405748258e+00,6.91750e-01,9.99999e-01,7.21042e-01,9.59375e-01,9.99999e-01
1.412776999e+00,7.81156e-01,9.99999e-01,8.13567e-01,9.60161e-01,9.99999e-01
1.419840884e+00,7.19776e-01,9.99999e-01,7.49039e-01,9.60932e-01,9.99999e-01
1.426940089e+00,8.89636e-02,9.99999e-01,9.25076e-02,9.61689e-01,9.99999e-01
1.434074789e+00,0.00000e+00,9.99999e-01,0.00000e+00,9.62431e-01,9.99999e-01
1.441245163e+00,0.00000e+00,9.99999e-01,0.00000e+00,9.63160e-01,9.99999e-01
1.448451389e+00,0.00000e+00,9.99999e-01,0.00000e+00,9.63874e-01,9.99999e-01
1.455693646e+00,1.04266e-197,9.99999e-01,1.08095e-197,9.64575e-01,9.99999e-01
1.462972114e+00,2.95203e-96,9.99999e-01,3.05826e-96,9.65262e-01,9.99999e-01
1.470286975e+00,6.24566e-41,9.99999e-01,6.46590e-41,9.65937e-01,9.99999e-01
