#,Wave/freq,Total,N2,CO2,Rayleigh,CIA
4.000000000e-01,9.62618e-05,9.99999e-01,9.99999e-01,9.62618e-05,9.99999e-01
4.020000000e-01,1.15577e-04,9.99999e-01,9.99999e-01,1.15577e-04,9.99999e-01
4.040100000e-01,1.38241e-04,9.99999e-01,9.99999e-01,1.38241e-04,9.99999e-01
4.060300500e-01,1.64767e-04,9.99999e-01,9.99999e-01,1.64767e-04,9.99999e-01
4.080602003e-01,1.95702e-04,9.99999e-01,9.99999e-01,1.95702e-04,9.99999e-01
4.101005013e-01,2.31657e-04,9.99999e-01,9.99999e-01,2.31657e-04,9.99999e-01
4.121510038e-01,2.73306e-04,9.99999e-01,9.99999e-01,2.73306e-04,9.99999e-01
4.142117588e-01,3.21392e-04,9.99999e-01,9.99999e-01,3.21392e-04,9.99999e-01
4.162828176e-01,3.76729e-04,9.99999e-01,9.99999e-01,3.76729e-04,9.99999e-01
4.183642317e-01,4.40211e-04,9.99999e-01,9.99999e-01,4.40211e-04,9.99999e-01
4.204560528e-01,5.12811e-04,9.99999e-01,9.99999e-01,5.12811e-04,9.99999e-01
4.225583331e-01,5.95585e-04,9.99999e-01,9.99999e-01,5.95585e-04,9.99999e-01
4.246711247e-01,6.89678e-04,9.99999e-01,9.99999e-01,6.89678e-04,9.99999e-01
4.267944804e-01,7.96326e-04,9.99999e-01,9.99999e-01,7.96326e-04,9.99999e-01
4.289284528e-01,9.16858e-04,9.99999e-01,9.99999e-01,9.16858e-04,9.99999e-01
4.310730950e-01,1.05270e-03,9.99999e-01,9.99999e-01,1.05270e-03,9.99999e-01
4.332284605e-01,1.20537e-03,9.99999e-01,9.99999e-01,1.20537e-03,9.99999e-01
4.353946028e-01,1.37650e-03,9.99999e-01,9.99999e-01,1.37650e-03,9.99999e-01
4.375715758e-01,1.56781e-03,9.99999e-01,9.99999e-01,1.56781e-03,9.99999e-01
4.397594337e-01,1.78112e-03,9.99999e-01,9.99999e-01,1.78112e-03,9.99999e-01
4.419582309e-01,2.01836e-03,9.99999e-01,9.99999e-01,2.01836e-03,9.99999e-01
4.441680220e-01,2.28156e-03,9.99999e-01,9.99999e-01,2.28156e-03,9.99999e-01
4.463888621e-01,2.57284e-03,9.99999e-01,9.99999e-01,2.57284e-03,9.99999e-01
4.486208064e-01,2.89443e-03,9.99999e-01,9.99999e-01,2.89443e-03,9.99999e-01
4.508639105e-01,3.24866e-03,9.99999e-01,9.99999e-01,3.24866e-03,9.99999e-01
4.531182300e-01,3.63792e-03,9.99999e-01,9.99999e-01,3.63792e-03,9.99999e-01
4.553838212e-01,4.06474e-03,9.99999e-01,9.99999e-01,4.06474e-03,9.99999e-01
4.576607403e-01,4.53169e-03,9.99999e-01,9.99999e-01,4.53169e-03,9.99999e-01
4.599490440e-01,5.04144e-03,9.99999e-01,9.99999e-01,5.04144e-03,9.99999e-01
4.622487892e-01,5.59674e-03,9.99999e-01,9.99999e-01,5.59674e-03,9.99999e-01
4.645600332e-01,6.20039e-03,9.99999e-01,9.99999e-01,6.20039e-03,9.99999e-01
4.668828333e-01,6.85526e-03,9.99999e-01,9.99999e-01,6.85526e-03,9.99999e-01
4.692172475e-01,7.56429e-03,9.99999e-01,9.99999e-01,7.56429e-03,9.99999e-01
4.715633337e-01,8.33044e-03,9.99999e-01,9.99999e-01,8.33044e-03,9.99999e-01
4.739211504e-01,9.15671e-03,9.99999e-01,9.99999e-01,9.15671e-03,9.99999e-01
4.762907561e-01,1.00462e-02,9.99999e-01,9.99999e-01,1.00462e-02,9.99999e-01
4.786722099e-01,1.10019e-02,9.99999e-01,9.99999e-01,1.10019e-02,9.99999e-01
4.810655710e-01,1.20268e-02,9.99999e-01,9.99999e-01,1.20268e-02,9.99999e-01
4.834708988e-01,1.31242e-02,9.99999e-01,9.99999e-01,1.31242e-02,9.99999e-01
4.858882533e-01,1.42970e-02,9.99999e-01,9.99999e-01,1.42970e-02,9.99999e-01
4.883176946e-01,1.55484e-02,9.99999e-01,9.99999e-01,1.55484e-02,9.99999e-01
4.907592831e-01,1.68812e-02,9.99999e-01,9.99999e-01,1.68812e-02,9.99999e-01
4.932130795e-01,1.82985e-02,9.99999e-01,9.99999e-01,1.82985e-02,9.99999e-01
4.956791449e-01,1.98033e-02,9.99999e-01,9.99999e-01,1.98033e-02,9.99999e-01
4.981575406e-01,2.13984e-02,9.99999e-01,9.99999e-01,2.13984e-02,9.99999e-01
5.006483283e-01,2.30866e-02,9.99999e-01,9.99999e-01,2.30866e-02,9.99999e-01
5.031515699e-01,2.48707e-02,9.99999e-01,9.99999e-01,2.48707e-02,9.99999e-01
5.056673278e-01,2.67533e-02,9.99999e-01,9.99999e-01,2.67533e-02,9.99999e-01
5.081956644e-01,2.87370e-02,9.99999e-01,9.99999e-01,2.87370e-02,9.99999e-01
5.107366428e-01,3.08241e-02,9.99999e-01,9.99999e-01,3.08241e-02,9.99999e-01
5.132903260e-01,3.30171e-02,9.99999e-01,9.99999e-01,3.30171e-02,9.99999e-01
5.158567776e-01,3.53181e-02,9.99999e-01,9.99999e-01,3.53181e-02,9.99999e-01
5.184360615e-01,3.77292e-02,9.99999e-01,9.99999e-01,3.77292e-02,9.99999e-01
5.210282418e-01,4.02524e-02,9.99999e-01,9.99999e-01,4.02524e-02,9.99999e-01
5.236333830e-01,4.28895e-02,9.99999e-01,9.99999e-01,4.28895e-02,9.99999e-01
5.262515499e-01,4.56420e-02,9.99999e-01,9.99999e-01,4.56420e-02,9.99999e-01
5.288828077e-01,4.85116e-02,9.99999e-01,9.99999e-01,4.85116e-02,9.99999e-01
5.315272217e-01,5.14996e-02,9.99999e-01,9.99999e-01,5.14996e-02,9.99999e-01
5.341848578e-01,5.46071e-02,9.99999e-01,9.99999e-01,5.46071e-02,9.99999e-01
5.368557821e-01,5.78351e-02,9.99999e-01,9.99999e-01,5.78351e-02,9.99999e-01
5.395400610e-01,6.11844e-02,9.99999e-01,9.99999e-01,6.11844e-02,9.99999e-01
5.422377613e-01,6.46559e-02,9.99999e-01,9.99999e-01,6.46559e-02,9.99999e-01
5.449489501e-01,6.82498e-02,9.99999e-01,9.99999e-01,6.82498e-02,9.99999e-01
5.476736949e-01,7.19666e-02,9.99999e-01,9.99999e-01,7.19666e-02,9.99999e-01
5.504120634e-01,7.58063e-02,9.99999e-01,9.99999e-01,7.58063e-02,9.99999e-01
5.531641237e-01,7.97689e-02,9.99999e-01,9.99999e-01,7.97689e-02,9.99999e-01
5.559299443e-01,8.38543e-02,9.99999e-01,9.99999e-01,8.38543e-02,9.99999e-01
5.587095940e-01,8.80620e-02,9.99999e-01,9.99999e-01,8.80620e-02,9.99999e-01
5.615031420e-01,9.23914e-02,9.99999e-01,9.99999e-01,9.23914e-02,9.99999e-01
5.643106577e-01,9.68418e-02,9.99999e-01,9.99999e-01,9.68418e-02,9.99999e-01
5.671322110e-01,1.01412e-01,9.99999e-01,9.99999e-01,1.01412e-01,9.99999e-01
5.699678720e-01,1.06102e-01,9.99999e-01,9.99999e-01,1.06102e-01,9.99999e-01
5.728177114e-01,1.10909e-01,9.99999e-01,9.99999e-01,1.10909e-01,9.99999e-01
5.756818000e-01,1.15833e-01,9.99999e-01,9.99999e-01,1.15833e-01,9.99999e-01
5.785602090e-01,1.20871e-01,9.99999e-01,9.99999e-01,1.20871e-01,9.99999e-01
5.814530100e-01,1.26023e-01,9.99999e-01,9.99999e-01,1.26023e-01,9.99999e-01
5.843602750e-01,1.31286e-01,9.99999e-01,9.99999e-01,1.31286e-01,9.99999e-01
5.872820764e-01,1.36658e-01,9.99999e-01,9.99999e-01,1.36658e-01,9.99999e-01
5.902184868e-01,1.42137e-01,9.99999e-01,9.99999e-01,1.42137e-01,9.99999e-01
5.931695792e-01,1.47722e-01,9.99999e-01,9.99999e-01,1.47722e-01,9.99999e-01
5.961354271e-01,1.53409e-01,9.99999e-01,9.99999e-01,1.53409e-01,9.99999e-01
5.991161043e-01,1.59196e-01,9.99999e-01,9.99999e-01,1.59196e-01,9.99999e-01
6.021116848e-01,1.65080e-01,9.99999e-01,9.99999e-01,1.65080e-01,9.99999e-01
6.051222432e-01,1.71060e-01,9.99999e-01,9.99999e-01,1.71060e-01,9.99999e-01
6.081478544e-01,1.77131e-01,9.99999e-01,9.99999e-01,1.77131e-01,9.99999e-01
6.111885937e-01,1.83292e-01,9.99999e-01,9.99999e-01,1.83292e-01,9.99999e-01
6.142445367e-01,1.89539e-01,9.99999e-01,9.99999e-01,1.89539e-01,9.99999e-01
6.173157594e-01,1.95869e-01,9.99999e-01,9.99999e-01,1.95869e-01,9.99999e-01
6.204023382e-01,2.02279e-01,9.99999e-01,9.99999e-01,2.02279e-01,9.99999e-01
6.235043498e-01,2.08766e-01,9.99999e-01,9.99999e-01,2.08766e-01,9.99999e-01
6.266218716e-01,2.15327e-01,9.99999e-01,9.99999e-01,2.15327e-01,9.99999e-01
6.297549810e-01,2.21958e-01,9.99999e-01,9.99999e-01,2.21958e-01,9.99999e-01
6.329037559e-01,2.28657e-01,9.99999e-01,9.99999e-01,2.28657e-01,9.99999e-01
6.360682746e-01,2.35419e-01,9.99999e-01,9.99999e-01,2.35419e-01,9.99999e-01
6.392486160e-01,2.42242e-01,9.99999e-01,9.99999e-01,2.42242e-01,9.99999e-01
6.424448591e-01,2.49122e-01,9.99999e-01,9.99999e-01,2.49122e-01,9.99999e-01
6.456570834e-01,2.56055e-01,9.99999e-01,9.99999e-01,2.56055e-01,9.99999e-01
6.488853688e-01,2.63039e-01,9.99999e-01,9.99999e-01,2.63039e-01,9.99999e-01
6.521297956e-01,2.70070e-01,9.99999e-01,9.99999e-01,2.70070e-01,9.99999e-01
6.553904446e-01,2.77145e-01,9.99999e-01,9.99999e-01,2.77145e-01,9.99999e-01
6.586673968e-01,2.84259e-01,9.99999e-01,9.99999e-01,2.84259e-01,9.99999e-01
6.619607338e-01,2.91410e-01,9.99999e-01,9.99999e-01,2.91410e-01,9.99999e-01
6.652705375e-01,2.98595e-01,9.99999e-01,9.99999e-01,2.98595e-01,9.99999e-01
6.685968902e-01,3.05809e-01,9.99999e-01,9.99999e-01,3.05809e-01,9.99999e-01
6.719398746e-01,3.13051e-01,9.99999e-01,9.99999e-01,3.13051e-01,9.99999e-01
6.752995740e-01,3.20315e-01,9.99999e-01,9.99999e-01,3.20315e-01,9.99999e-01
6.786760719e-01,3.27600e-01,9.99999e-01,9.99999e-01,3.27600e-01,9.99999e-01
6.820694522e-01,3.34901e-01,9.99999e-01,9.99999e-01,3.34901e-01,9.99999e-01
6.854797995e-01,3.42216e-01,9.99999e-01,9.99999e-01,3.42216e-01,9.99999e-01
6.889071985e-01,3.49542e-01,9.99999e-01,9.99999e-01,3.49542e-01,9.99999e-01
6.923517345e-01,3.56875e-01,9.99999e-01,9.99999e-01,3.56875e-01,9.99999e-01
6.958134932e-01,3.64213e-01,9.99999e-01,9.99999e-01,3.64213e-01,9.99999e-01
6.992925606e-01,3.71552e-01,9.99999e-01,9.99999e-01,3.71552e-01,9.99999e-01
7.027890234e-01,3.78890e-01,9.99999e-01,9.99999e-01,3.78890e-01,9.99999e-01
7.063029686e-01,3.86223e-01,9.99999e-01,9.99999e-01,3.86223e-01,9.99999e-01
7.098344834e-01,3.93549e-01,9.99999e-01,9.99999e-01,3.93549e-01,9.99999e-01
7.133836558e-01,4.00866e-01,9.99999e-01,9.99999e-01,4.00866e-01,9.99999e-01
7.169505741e-01,4.08170e-01,9.99999e-01,9.99999e-01,4.08170e-01,9.99999e-01
7.205353270e-01,4.15458e-01,9.99999e-01,9.99999e-01,4.15458e-01,9.99999e-01
7.241380036e-01,4.22729e-01,9.99999e-01,9.99999e-01,4.22729e-01,9.99999e-01
7.277586936e-01,4.29980e-01,9.99999e-01,9.99999e-01,4.29980e-01,9.99999e-01
7.313974871e-01,4.37209e-01,9.99999e-01,9.99999e-01,4.37209e-01,9.99999e-01
7.350544745e-01,4.44412e-01,9.99999e-01,9.99999e-01,4.44412e-01,9.99999e-01
7.387297469e-01,4.51589e-01,9.99999e-01,9.99999e-01,4.51589e-01,9.99999e-01
7.424233956e-01,4.58736e-01,9.99999e-01,9.99999e-01,4.58736e-01,9.99999e-01
7.461355126e-01,4.65852e-01,9.99999e-01,9.99999e-01,4.65852e-01,9.99999e-01
7.498661902e-01,4.72934e-01,9.99999e-01,9.99999e-01,4.72934e-01,9.99999e-01
7.536155211e-01,4.79981e-01,9.99999e-01,9.99999e-01,4.79981e-01,9.99999e-01
7.573835987e-01,4.86991e-01,9.99999e-01,9.99999e-01,4.86991e-01,9.99999e-01
7.611705167e-01,4.93962e-01,9.99999e-01,9.99999e-01,4.93962e-01,9.99999e-01
7.649763693e-01,5.00891e-01,9.99999e-01,9.99999e-01,5.00891e-01,9.99999e-01
7.688012511e-01,5.07778e-01,9.99999e-01,9.99999e-01,5.07778e-01,9.99999e-01
7.726452574e-01,5.14621e-01,9.99999e-01,9.99999e-01,5.14621e-01,9.99999e-01
7.765084837e-01,5.21419e-01,9.99999e-01,9.99999e-01,5.21419e-01,9.99999e-01
7.803910261e-01,5.11463e-01,9.99999e-01,9.68369e-01,5.28169e-01,9.99999e-01
7.842929812e-01,4.68662e-01,9.99999e-01,8.76214e-01,5.34871e-01,9.99999e-01
7.882144461e-01,4.69395e-01,9.99999e-01,8.66805e-01,5.41523e-01,9.99999e-01
7.921555184e-01,5.04413e-01,9.99999e-01,9.20253e-01,5.48123e-01,9.99999e-01
7.961162960e-01,5.24984e-01,9.99999e-01,9.46476e-01,5.54672e-01,9.99999e-01
8.000968774e-01,5.44639e-01,9.99999e-01,9.70547e-01,5.61167e-01,9.99999e-01
8.040973618e-01,5.58933e-01,9.99999e-01,9.84716e-01,5.67607e-01,9.99999e-01
8.081178486e-01,5.69929e-01,9.99999e-01,9.92920e-01,5.73993e-01,9.99999e-01
8.121584379e-01,5.79067e-01,9.99999e-01,9.97838e-01,5.80321e-01,9.99999e-01
8.162192301e-01,5.86312e-01,9.99999e-01,9.99521e-01,5.86593e-01,9.99999e-01
8.203003262e-01,5.92802e-01,9.99999e-01,9.99993e-01,5.92806e-01,9.99999e-01
8.244018279e-01,5.98960e-01,9.99999e-01,9.99999e-01,5.98960e-01,9.99999e-01
8.285238370e-01,6.05055e-01,9.99999e-01,9.99999e-01,6.05055e-01,9.99999e-01
8.326664562e-01,6.11090e-01,9.99999e-01,9.99999e-01,6.11090e-01,9.99999e-01
8.368297885e-01,6.17064e-01,9.99999e-01,9.99999e-01,6.17064e-01,9.99999e-01
8.410139374e-01,6.22976e-01,9.99999e-01,9.99999e-01,6.22976e-01,9.99999e-01
8.452190071e-01,6.28827e-01,9.99999e-01,9.99999e-01,6.28827e-01,9.99999e-01
8.494451021e-01,6.34616e-01,9.99999e-01,9.99999e-01,6.34616e-01,9.99999e-01
8.536923276e-01,6.40341e-01,9.99999e-01,9.99999e-01,6.40341e-01,9.99999e-01
8.579607893e-01,6.46004e-01,9.99999e-01,9.99999e-01,6.46004e-01,9.99999e-01
8.622505932e-01,6.51604e-01,9.99999e-01,9.99999e-01,6.51604e-01,9.99999e-01
8.665618462e-01,6.09786e-01,9.99999e-01,9.27939e-01,6.57140e-01,9.99999e-01
8.708946554e-01,4.71990e-01,9.99999e-01,7.12316e-01,6.62613e-01,9.99999e-01
8.752491287e-01,5.09432e-01,9.99999e-01,7.62598e-01,6.68021e-01,9.99999e-01
8.796253743e-01,5.80566e-01,9.99999e-01,8.62185e-01,6.73366e-01,9.99999e-01
8.840235012e-01,6.28482e-01,9.99999e-01,9.26081e-01,6.78646e-01,9.99999e-01
8.884436187e-01,6.63586e-01,9.99999e-01,9.70349e-01,6.83863e-01,9.99999e-01
8.928858368e-01,6.80655e-01,9.99999e-01,9.87865e-01,6.89015e-01,9.99999e-01
8.973502660e-01,6.92063e-01,9.99999e-01,9.97060e-01,6.94103e-01,9.99999e-01
9.018370173e-01,6.98902e-01,9.99999e-01,9.99677e-01,6.99127e-01,9.99999e-01
9.063462024e-01,6.97987e-01,9.99999e-01,9.91334e-01,7.04088e-01,9.99999e-01
9.108779334e-01,6.95402e-01,9.99999e-01,9.80842e-01,7.08984e-01,9.99999e-01
9.154323231e-01,7.10633e-01,9.99999e-01,9.95539e-01,7.13817e-01,9.99999e-01
9.200094847e-01,6.71264e-01,9.99999e-01,9.34144e-01,7.18586e-01,9.99999e-01
9.246095321e-01,6.57834e-01,9.99999e-01,9.09499e-01,7.23292e-01,9.99999e-01
9.292325798e-01,6.75009e-01,9.99999e-01,9.27291e-01,7.27935e-01,9.99999e-01
9.338787427e-01,6.81682e-01,9.99999e-01,9.30603e-01,7.32515e-01,9.99999e-01
9.385481364e-01,6.99087e-01,9.99999e-01,9.48515e-01,7.37033e-01,9.99999e-01
9.432408771e-01,7.17964e-01,9.99999e-01,9.68274e-01,7.41488e-01,9.99999e-01
9.479570815e-01,7.33619e-01,9.99999e-01,9.83558e-01,7.45882e-01,9.99999e-01
9.526968669e-01,7.44259e-01,9.99999e-01,9.92061e-01,7.50214e-01,9.99999e-01
9.574603512e-01,7.51922e-01,9.99999e-01,9.96602e-01,7.54485e-01,9.99999e-01
9.622476530e-01,7.57892e-01,9.99999e-01,9.98941e-01,7.58695e-01,9.99999e-01
9.670588912e-01,7.62603e-01,9.99999e-01,9.99683e-01,7.62845e-01,9.99999e-01
9.718941857e-01,7.66918e-01,9.99999e-01,9.99977e-01,7.66935e-01,9.99999e-01
9.767536566e-01,7.70965e-01,9.99999e-01,9.99999e-01,7.70965e-01,9.99999e-01
9.816374249e-01,7.74936e-01,9.99999e-01,9.99999e-01,7.74936e-01,9.99999e-01
9.865456120e-01,7.78849e-01,9.99999e-01,9.99999e-01,7.78849e-01,9.99999e-01
9.914783401e-01,7.82703e-01,9.99999e-01,9.99999e-01,7.82703e-01,9.99999e-01
9.964357318e-01,7.86500e-01,9.99999e-01,9.99999e-01,7.86500e-01,9.99999e-01
1.001417910e+00,7.90240e-01,9.99999e-01,9.99999e-01,7.90240e-01,9.99999e-01
1.006425000e+00,7.93924e-01,9.99999e-01,9.99999e-01,7.93924e-01,9.99999e-01
1.011457125e+00,7.97551e-01,9.99999e-01,9.99999e-01,7.97551e-01,9.99999e-01
1.016514411e+00,8.01122e-01,9.99999e-01,9.99999e-01,8.01122e-01,9.99999e-01
1.021596983e+00,8.04596e-01,9.99999e-01,9.99946e-01,8.04639e-01,9.99999e-01
1.026704968e+00,8.05352e-01,9.99999e-01,9.96598e-01,8.08101e-01,9.99999e-01
1.031838492e+00,7.75321e-01,9.99999e-01,9.55405e-01,8.11509e-01,9.99999e-01
1.036997685e+00,1.37964e-01,9.99999e-01,1.69309e-01,8.14864e-01,9.99999e-01
1.042182673e+00,1.25731e-01,9.99999e-01,1.53675e-01,8.18166e-01,9.99999e-01
1.047393587e+00,1.37392e-01,9.99999e-01,1.67262e-01,8.21416e-01,9.99999e-01
1.052630555e+00,5.63910e-03,9.99999e-01,6.83847e-03,8.24614e-01,9.99999e-01
1.057893707e+00,1.38288e-02,9.99999e-01,1.67062e-02,8.27761e-01,9.99999e-01
1.063183176e+00,4.08836e-02,9.99999e-01,4.92065e-02,8.30857e-01,9.99999e-01
1.068499092e+00,1.03690e-01,9.99999e-01,1.24342e-01,8.33904e-01,9.99999e-01
1.073841587e+00,2.25534e-01,9.99999e-01,2.69487e-01,8.36901e-01,9.99999e-01
1.079210795e+00,3.66118e-01,9.99999e-01,4.35932e-01,8.39849e-01,9.99999e-01
1.084606849e+00,5.34608e-01,9.99999e-01,6.34361e-01,8.42750e-01,9.99999e-01
1.090029883e+00,6.67500e-01,9.99999e-01,7.89378e-01,8.45602e-01,9.99999e-01
1.095480033e+00,7.55293e-01,9.99999e-01,8.90247e-01,8.48408e-01,9.99999e-01
1.100957433e+00,8.04786e-01,9.99999e-01,9.45508e-01,8.51168e-01,9.99999e-01
1.106462220e+00,8.34370e-01,9.99999e-01,9.77150e-01,8.53881e-01,9.99999e-01
1.111994531e+00,8.49243e-01,9.99999e-01,9.91468e-01,8.56550e-01,9.99999e-01
1.117554504e+00,8.57391e-01,9.99999e-01,9.97925e-01,8.59173e-01,9.99999e-01
1.123142276e+00,8.61637e-01,9.99999e-01,9.99864e-01,8.61753e-01,9.99999e-01
1.128757988e+00,8.64289e-01,9.99999e-01,9.99999e-01,8.64289e-01,9.99999e-01
1.134401778e+00,8.66783e-01,9.99999e-01,9.99999e-01,8.66783e-01,9.99999e-01
1.140073787e+00,8.69234e-01,9.99999e-01,9.99999e-01,8.69234e-01,9.99999e-01
1.145774156e+00,8.71644e-01,9.99999e-01,9.99999e-01,8.71644e-01,9.99999e-01
1.151503026e+00,8.74012e-01,9.99999e-01,9.99999e-01,8.74012e-01,9.99999e-01
1.157260541e+00,8.76340e-01,9.99999e-01,9.99999e-01,8.76340e-01,9.99999e-01
1.163046844e+00,8.78628e-01,9.99999e-01,9.99999e-01,8.78628e-01,9.99999e-01
1.168862078e+00,8.80876e-01,9.99999e-01,9.99999e-01,8.80876e-01,9.99999e-01
1.174706389e+00,8.83086e-01,9.99999e-01,9.99999e-01,8.83086e-01,9.99999e-01
1.180579921e+00,8.85257e-01,9.99999e-01,9.99999e-01,8.85257e-01,9.99999e-01
1.186482820e+00,8.87384e-01,9.99999e-01,9.99991e-01,8.87391e-01,9.99999e-01
1.192415234e+00,8.78638e-01,9.99999e-01,9.87801e-01,8.89488e-01,9.99999e-01
1.198377311e+00,5.02430e-01,9.99999e-01,5.63548e-01,8.91547e-01,9.99999e-01
1.204369197e+00,3.91404e-10,9.99999e-01,4.38021e-10,8.93571e-01,9.99999e-01
1.210391043e+00,4.02777e-36,9.99999e-01,4.49749e-36,8.95560e-01,9.99999e-01
1.216442998e+00,1.78699e-31,9.99999e-01,1.99105e-31,8.97513e-01,9.99999e-01
1.222525213e+00,5.02457e-31,9.99999e-01,5.58638e-31,8.99432e-01,9.99999e-01
1.228637839e+00,5.04998e-24,9.99999e-01,5.60288e-24,9.01317e-01,9.99999e-01
1.234781029e+00,9.98677e-16,9.99999e-01,1.10575e-15,9.03169e-01,9.99999e-01
1.240954934e+00,1.28987e-10,9.99999e-01,1.42529e-10,9.04987e-01,9.99999e-01
1.247159708e+00,4.70938e-06,9.99999e-01,5.19356e-06,9.06774e-01,9.99999e-01
1.253395507e+00,7.23231e-04,9.99999e-01,7.96046e-04,9.08528e-01,9.99999e-01
1.259662485e+00,1.52750e-02,9.99999e-01,1.67811e-02,9.10251e-01,9.99999e-01
1.265960797e+00,8.61437e-02,9.99999e-01,9.44616e-02,9.11944e-01,9.99999e-01
1.272290601e+00,3.38183e-01,9.99999e-01,3.70162e-01,9.13605e-01,9.99999e-01
1.278652054e+00,2.85926e-01,9.99999e-01,3.12406e-01,9.15237e-01,9.99999e-01
1.285045314e+00,6.92206e-03,9.99999e-01,7.54990e-03,9.16840e-01,9.99999e-01
1.291470541e+00,6.23134e-05,9.99999e-01,6.78489e-05,9.18414e-01,9.99999e-01
1.297927893e+00,1.36844e-02,9.99999e-01,1.48750e-02,9.19959e-01,9.99999e-01
1.304417533e+00,1.50409e-01,9.99999e-01,1.63226e-01,9.21476e-01,9.99999e-01
1.310939621e+00,2.47122e-02,9.99999e-01,2.67748e-02,9.22966e-01,9.99999e-01
1.317494319e+00,5.88248e-13,9.99999e-01,6.36336e-13,9.24428e-01,9.99999e-01
1.324081790e+00,4.41307e-07,9.99999e-01,4.76642e-07,9.25864e-01,9.99999e-01
1.330702199e+00,2.45846e-05,9.99999e-01,2.65128e-05,9.27274e-01,9.99999e-01
1.337355710e+00,4.20950e-05,9.99999e-01,4.53288e-05,9.28658e-01,9.99999e-01
1.344042489e+00,2.38527e-06,9.99999e-01,2.56476e-06,9.30017e-01,9.99999e-01
1.350762701e+00,1.63095e-05,9.99999e-01,1.75117e-05,9.31350e-01,9.99999e-01
1.357516515e+00,8.20959e-04,9.99999e-01,8.80234e-04,9.32660e-01,9.99999e-01
1.364304097e+00,9.82403e-03,9.99999e-01,1.05188e-02,9.33945e-01,9.99999e-01
1.371125618e+00,8.69896e-02,9.99999e-01,9.30164e-02,9.35206e-01,9.99999e-01
1.377981246e+00,1.33859e-01,9.99999e-01,1.42943e-01,9.36445e-01,9.99999e-01
1.384871152e+00,3.02608e-01,9.99999e-01,3.22726e-01,9.37660e-01,9.99999e-01
1.391795508e+00,3.30455e-01,9.99999e-01,3.51978e-01,9.38853e-01,9.99999e-01
1.398754485e+00,4.93506e-01,9.99999e-01,5.24992e-01,9.40024e-01,9.99999e-01
1.405748258e+00,5.86026e-01,9.99999e-01,6.22654e-01,9.41173e-01,9.99999e-01
1.412776999e+00,6.98813e-01,9.99999e-01,7.41602e-01,9.42301e-01,9.99999e-01
1.419840884e+00,6.25657e-01,9.99999e-01,6.63188e-01,9.43407e-01,9.99999e-01
1.426940089e+00,6.17819e-02,9.99999e-01,6.54127e-02,9.44494e-01,9.99999e-01
1.434074789e+00,0.00000e+00,9.99999e-01,0.00000e+00,9.45560e-01,9.99999e-01
1.441245163e+00,0.00000e+00,9.99999e-01,0.00000e+00,9.46606e-01,9.99999e-01
1.448451389e+00,0.00000e+00,9.99999e-01,0.00000e+00,9.47632e-01,9.99999e-01
1.455693646e+00,4.36616e-288,9.99999e-01,4.60255e-288,9.48640e-01,9.99999e-01
1.462972114e+00,1.00633e-139,9.99999e-01,1.05971e-139,9.49628e-01,9.99999e-01
1.470286975e+00,8.11996e-59,9.99999e-01,8.54194e-59,9.50598e-01,9.99999e-01
