#,Wave/freq,Total,N2,CO2,Rayleigh,CIA
4.000000000e-01,3.47574e-03,9.99999e-01,9.99999e-01,3.47574e-03,9.99999e-01
4.020000000e-01,3.88749e-03,9.99999e-01,9.99999e-01,3.88749e-03,9.99999e-01
4.040100000e-01,4.33790e-03,9.99999e-01,9.99999e-01,4.33790e-03,9.99999e-01
4.060300500e-01,4.83002e-03,9.99999e-01,9.99999e-01,4.83002e-03,9.99999e-01
4.080602003e-01,5.36657e-03,9.99999e-01,9.99999e-01,5.36657e-03,9.99999e-01
4.101005013e-01,5.95033e-03,9.99999e-01,9.99999e-01,5.95033e-03,9.99999e-01
4.121510038e-01,6.58414e-03,9.99999e-01,9.99999e-01,6.58414e-03,9.99999e-01
4.142117588e-01,7.27092e-03,9.99999e-01,9.99999e-01,7.27092e-03,9.99999e-01
4.162828176e-01,8.01361e-03,9.99999e-01,9.99999e-01,8.01361e-03,9.99999e-01
4.183642317e-01,8.81521e-03,9.99999e-01,9.99999e-01,8.81521e-03,9.99999e-01
4.204560528e-01,9.67876e-03,9.99999e-01,9.99999e-01,9.67876e-03,9.99999e-01
4.225583331e-01,1.06073e-02,9.99999e-01,9.99999e-01,1.06073e-02,9.99999e-01
4.246711247e-01,1.16039e-02,9.99999e-01,9.99999e-01,1.16039e-02,9.99999e-01
4.267944804e-01,1.26716e-02,9.99999e-01,9.99999e-01,1.26716e-02,9.99999e-01
4.289284528e-01,1.38136e-02,9.99999e-01,9.99999e-01,1.38136e-02,9.99999e-01
4.310730950e-01,1.50328e-02,9.99999e-01,9.99999e-01,1.50328e-02,9.99999e-01
4.332284605e-01,1.63323e-02,9.99999e-01,9.99999e-01,1.63323e-02,9.99999e-01
4.353946028e-01,1.77151e-02,9.99999e-01,9.99999e-01,1.77151e-02,9.99999e-01
4.375715758e-01,1.91842e-02,9.99999e-01,9.99999e-01,1.91842e-02,9.99999e-01
4.397594337e-01,2.07425e-02,9.99999e-01,9.99999e-01,2.07425e-02,9.99999e-01
4.419582309e-01,2.23927e-02,9.99999e-01,9.99999e-01,2.23927e-02,9.99999e-01
4.441680220e-01,2.41377e-02,9.99999e-01,9.99999e-01,2.41377e-02,9.99999e-01
4.463888621e-01,2.59802e-02,9.99999e-01,9.99999e-01,2.59802e-02,9.99999e-01
4.486208064e-01,2.79226e-02,9.99999e-01,9.99999e-01,2.79226e-02,9.99999e-01
4.508639105e-01,2.99676e-02,9.99999e-01,9.99999e-01,2.99676e-02,9.99999e-01
4.531182300e-01,3.21176e-02,9.99999e-01,9.99999e-01,3.21176e-02,9.99999e-01
4.553838212e-01,3.43746e-02,9.99999e-01,9.99999e-01,3.43746e-02,9.99999e-01
4.576607403e-01,3.67410e-02,9.99999e-01,9.99999e-01,3.67410e-02,9.99999e-01
4.599490440e-01,3.92187e-02,9.99999e-01,9.99999e-01,3.92187e-02,9.99999e-01
4.622487892e-01,4.18095e-02,9.99999e-01,9.99999e-01,4.18095e-02,9.99999e-01
4.645600332e-01,4.45152e-02,9.99999e-01,9.99999e-01,4.45152e-02,9.99999e-01
4.668828333e-01,4.73373e-02,9.99999e-01,9.99999e-01,4.73373e-02,9.99999e-01
4.692172475e-01,5.02772e-02,9.99999e-01,9.99999e-01,5.02772e-02,9.99999e-01
4.715633337e-01,5.33362e-02,9.99999e-01,9.99999e-01,5.33362e-02,9.99999e-01
4.739211504e-01,5.65154e-02,9.99999e-01,9.99999e-01,5.65154e-02,9.99999e-01
4.762907561e-01,5.98156e-02,9.99999e-01,9.99999e-01,5.98156e-02,9.99999e-01
4.786722099e-01,6.32376e-02,9.99999e-01,9.99999e-01,6.32376e-02,9.99999e-01
4.810655710e-01,6.67820e-02,9.99999e-01,9.99999e-01,6.67820e-02,9.99999e-01
4.834708988e-01,7.04491e-02,9.99999e-01,9.99999e-01,7.04491e-02,9.99999e-01
4.858882533e-01,7.42391e-02,9.99999e-01,9.99999e-01,7.42391e-02,9.99999e-01
4.883176946e-01,7.81520e-02,9.99999e-01,9.99999e-01,7.81520e-02,9.99999e-01
4.907592831e-01,8.21878e-02,9.99999e-01,9.99999e-01,8.21878e-02,9.99999e-01
4.932130795e-01,8.63461e-02,9.99999e-01,9.99999e-01,8.63461e-02,9.99999e-01
4.956791449e-01,9.06264e-02,9.99999e-01,9.99999e-01,9.06264e-02,9.99999e-01
4.981575406e-01,9.50279e-02,9.99999e-01,9.99999e-01,9.50279e-02,9.99999e-01
5.006483283e-01,9.95500e-02,9.99999e-01,9.99999e-01,9.95500e-02,9.99999e-01
5.031515699e-01,1.04192e-01,9.99999e-01,9.99999e-01,1.04192e-01,9.99999e-01
5.056673278e-01,1.08951e-01,9.99999e-01,9.99999e-01,1.08951e-01,9.99999e-01
5.081956644e-01,1.13828e-01,9.99999e-01,9.99999e-01,1.13828e-01,9.99999e-01
5.107366428e-01,1.18820e-01,9.99999e-01,9.99999e-01,1.18820e-01,9.99999e-01
5.132903260e-01,1.23927e-01,9.99999e-01,9.99999e-01,1.23927e-01,9.99999e-01
5.158567776e-01,1.29145e-01,9.99999e-01,9.99999e-01,1.29145e-01,9.99999e-01
5.184360615e-01,1.34473e-01,9.99999e-01,9.99999e-01,1.34473e-01,9.99999e-01
5.210282418e-01,1.39909e-01,9.99999e-01,9.99999e-01,1.39909e-01,9.99999e-01
5.236333830e-01,1.45452e-01,9.99999e-01,9.99999e-01,1.45452e-01,9.99999e-01
5.262515499e-01,1.51097e-01,9.99999e-01,9.99999e-01,1.51097e-01,9.99999e-01
5.288828077e-01,1.56844e-01,9.99999e-01,9.99999e-01,1.56844e-01,9.99999e-01
5.315272217e-01,1.62690e-01,9.99999e-01,9.99999e-01,1.62690e-01,9.99999e-01
5.341848578e-01,1.68631e-01,9.99999e-01,9.99999e-01,1.68631e-01,9.99999e-01
5.368557821e-01,1.74666e-01,9.99999e-01,9.99999e-01,1.74666e-01,9.99999e-01
5.395400610e-01,1.80790e-01,9.99999e-01,9.99999e-01,1.80790e-01,9.99999e-01
5.422377613e-01,1.87003e-01,9.99999e-01,9.99999e-01,1.87003e-01,9.99999e-01
5.449489501e-01,1.93300e-01,9.99999e-01,9.99999e-01,1.93300e-01,9.99999e-01
5.476736949e-01,1.99678e-01,9.99999e-01,9.99999e-01,1.99678e-01,9.99999e-01
5.504120634e-01,2.06134e-01,9.99999e-01,9.99999e-01,2.06134e-01,9.99999e-01
5.531641237e-01,2.12666e-01,9.99999e-01,9.99999e-01,2.12666e-01,9.99999e-01
5.559299443e-01,2.19269e-01,9.99999e-01,9.99999e-01,2.19269e-01,9.99999e-01
5.587095940e-01,2.25941e-01,9.99999e-01,9.99999e-01,2.25941e-01,9.99999e-01
5.615031420e-01,2.32677e-01,9.99999e-01,9.99999e-01,2.32677e-01,9.99999e-01
5.643106577e-01,2.39476e-01,9.99999e-01,9.99999e-01,2.39476e-01,9.99999e-01
5.671322110e-01,2.46334e-01,9.99999e-01,9.99999e-01,2.46334e-01,9.99999e-01
5.699678720e-01,2.53246e-01,9.99999e-01,9.99999e-01,2.53246e-01,9.99999e-01
5.728177114e-01,2.60210e-01,9.99999e-01,9.99999e-01,2.60210e-01,9.99999e-01
5.756818000e-01,2.67222e-01,9.99999e-01,9.99999e-01,2.67222e-01,9.99999e-01
5.785602090e-01,2.74280e-01,9.99999e-01,9.99999e-01,2.74280e-01,9.99999e-01
5.814530100e-01,2.81378e-01,9.99999e-01,9.99999e-01,2.81378e-01,9.99999e-01
5.843602750e-01,2.88515e-01,9.99999e-01,9.99999e-01,2.88515e-01,9.99999e-01
5.872820764e-01,2.95686e-01,9.99999e-01,9.99999e-01,2.95686e-01,9.99999e-01
5.902184868e-01,3.02889e-01,9.99999e-01,9.99999e-01,3.02889e-01,9.99999e-01
5.931695792e-01,3.10120e-01,9.99999e-01,9.99999e-01,3.10120e-01,9.99999e-01
5.961354271e-01,3.17375e-01,9.99999e-01,9.99999e-01,3.17375e-01,9.99999e-01
5.991161043e-01,3.24652e-01,9.99999e-01,9.99999e-01,3.24652e-01,9.99999e-01
6.021116848e-01,3.31947e-01,9.99999e-01,9.99999e-01,3.31947e-01,9.99999e-01
6.051222432e-01,3.39257e-01,9.99999e-01,9.99999e-01,3.39257e-01,9.99999e-01
6.081478544e-01,3.46579e-01,9.99999e-01,9.99999e-01,3.46579e-01,9.99999e-01
6.111885937e-01,3.53910e-01,9.99999e-01,9.99999e-01,3.53910e-01,9.99999e-01
6.142445367e-01,3.61246e-01,9.99999e-01,9.99999e-01,3.61246e-01,9.99999e-01
6.173157594e-01,3.68585e-01,9.99999e-01,9.99999e-01,3.68585e-01,9.99999e-01
6.204023382e-01,3.75923e-01,9.99999e-01,9.99999e-01,3.75923e-01,9.99999e-01
6.235043498e-01,3.83259e-01,9.99999e-01,9.99999e-01,3.83259e-01,9.99999e-01
6.266218716e-01,3.90588e-01,9.99999e-01,9.99999e-01,3.90588e-01,9.99999e-01
6.297549810e-01,3.97909e-01,9.99999e-01,9.99999e-01,3.97909e-01,9.99999e-01
6.329037559e-01,4.05218e-01,9.99999e-01,9.99999e-01,4.05218e-01,9.99999e-01
6.360682746e-01,4.12513e-01,9.99999e-01,9.99999e-01,4.12513e-01,9.99999e-01
6.392486160e-01,4.19792e-01,9.99999e-01,9.99999e-01,4.19792e-01,9.99999e-01
6.424448591e-01,4.27051e-01,9.99999e-01,9.99999e-01,4.27051e-01,9.99999e-01
6.456570834e-01,4.34289e-01,9.99999e-01,9.99999e-01,4.34289e-01,9.99999e-01
6.488853688e-01,4.41503e-01,9.99999e-01,9.99999e-01,4.41503e-01,9.99999e-01
6.521297956e-01,4.48691e-01,9.99999e-01,9.99999e-01,4.48691e-01,9.99999e-01
6.553904446e-01,4.55850e-01,9.99999e-01,9.99999e-01,4.55850e-01,9.99999e-01
6.586673968e-01,4.62979e-01,9.99999e-01,9.99999e-01,4.62979e-01,9.99999e-01
6.619607338e-01,4.70075e-01,9.99999e-01,9.99999e-01,4.70075e-01,9.99999e-01
6.652705375e-01,4.77137e-01,9.99999e-01,9.99999e-01,4.77137e-01,9.99999e-01
6.685968902e-01,4.84162e-01,9.99999e-01,9.99999e-01,4.84162e-01,9.99999e-01
6.719398746e-01,4.91148e-01,9.99999e-01,9.99999e-01,4.91148e-01,9.99999e-01
6.752995740e-01,4.98095e-01,9.99999e-01,9.99999e-01,4.98095e-01,9.99999e-01
6.786760719e-01,5.04999e-01,9.99999e-01,9.99999e-01,5.04999e-01,9.99999e-01
6.820694522e-01,5.11860e-01,9.99999e-01,9.99999e-01,5.11860e-01,9.99999e-01
6.854797995e-01,5.18676e-01,9.99999e-01,9.99999e-01,5.18676e-01,9.99999e-01
6.889071985e-01,5.25446e-01,9.99999e-01,9.99999e-01,5.25446e-01,9.99999e-01
6.923517345e-01,5.32167e-01,9.99999e-01,9.99999e-01,5.32167e-01,9.99999e-01
6.958134932e-01,5.38839e-01,9.99999e-01,9.99999e-01,5.38839e-01,9.99999e-01
6.992925606e-01,5.45461e-01,9.99999e-01,9.99999e-01,5.45461e-01,9.99999e-01
7.027890234e-01,5.52031e-01,9.99999e-01,9.99999e-01,5.52031e-01,9.99999e-01
7.063029686e-01,5.58547e-01,9.99999e-01,9.99999e-01,5.58547e-01,9.99999e-01
7.098344834e-01,5.65010e-01,9.99999e-01,9.99999e-01,5.65010e-01,9.99999e-01
7.133836558e-01,5.71418e-01,9.99999e-01,9.99999e-01,5.71418e-01,9.99999e-01
7.169505741e-01,5.77769e-01,9.99999e-01,9.99999e-01,5.77769e-01,9.99999e-01
7.205353270e-01,5.84064e-01,9.99999e-01,9.99999e-01,5.84064e-01,9.99999e-01
7.241380036e-01,5.90301e-01,9.99999e-01,9.99999e-01,5.90301e-01,9.99999e-01
7.277586936e-01,5.96479e-01,9.99999e-01,9.99999e-01,5.96479e-01,9.99999e-01
7.313974871e-01,6.02598e-01,9.99999e-01,9.99999e-01,6.02598e-01,9.99999e-01
7.350544745e-01,6.08657e-01,9.99999e-01,9.99999e-01,6.08657e-01,9.99999e-01
7.387297469e-01,6.14656e-01,9.99999e-01,9.99999e-01,6.14656e-01,9.99999e-01
7.424233956e-01,6.20593e-01,9.99999e-01,9.99999e-01,6.20593e-01,9.99999e-01
7.461355126e-01,6.26469e-01,9.99999e-01,9.99999e-01,6.26469e-01,9.99999e-01
7.498661902e-01,6.32283e-01,9.99999e-01,9.99999e-01,6.32283e-01,9.99999e-01
7.536155211e-01,6.38034e-01,9.99999e-01,9.99999e-01,6.38034e-01,9.99999e-01
7.573835987e-01,6.43722e-01,9.99999e-01,9.99999e-01,6.43722e-01,9.99999e-01
7.611705167e-01,6.49348e-01,9.99999e-01,9.99999e-01,6.49348e-01,9.99999e-01
7.649763693e-01,6.54910e-01,9.99999e-01,9.99999e-01,6.54910e-01,9.99999e-01
7.688012511e-01,6.60408e-01,9.99999e-01,9.99999e-01,6.60408e-01,9.99999e-01
7.726452574e-01,6.65842e-01,9.99999e-01,9.99999e-01,6.65842e-01,9.99999e-01
7.765084837e-01,6.71213e-01,9.99999e-01,9.99999e-01,6.71213e-01,9.99999e-01
7.803910261e-01,6.64256e-01,9.99999e-01,9.81872e-01,6.76519e-01,9.99999e-01
7.842929812e-01,6.27502e-01,9.99999e-01,9.20411e-01,6.81762e-01,9.99999e-01
7.882144461e-01,6.28825e-01,9.99999e-01,9.15400e-01,6.86940e-01,9.99999e-01
7.921555184e-01,6.57785e-01,9.99999e-01,9.50482e-01,6.92054e-01,9.99999e-01
7.961162960e-01,6.73660e-01,9.99999e-01,9.66368e-01,6.97104e-01,9.99999e-01
8.000968774e-01,6.89224e-01,9.99999e-01,9.81674e-01,7.02090e-01,9.99999e-01
8.040973618e-01,7.00242e-01,9.99999e-01,9.90424e-01,7.07012e-01,9.99999e-01
8.081178486e-01,7.08751e-01,9.99999e-01,9.95616e-01,7.11871e-01,9.99999e-01
8.121584379e-01,7.15685e-01,9.99999e-01,9.98630e-01,7.16666e-01,9.99999e-01
8.162192301e-01,7.21179e-01,9.99999e-01,9.99697e-01,7.21397e-01,9.99999e-01
8.203003262e-01,7.26062e-01,9.99999e-01,9.99994e-01,7.26065e-01,9.99999e-01
8.244018279e-01,7.30671e-01,9.99999e-01,9.99999e-01,7.30671e-01,9.99999e-01
8.285238370e-01,7.35214e-01,9.99999e-01,9.99999e-01,7.35214e-01,9.99999e-01
8.326664562e-01,7.39694e-01,9.99999e-01,9.99999e-01,7.39694e-01,9.99999e-01
8.368297885e-01,7.44113e-01,9.99999e-01,9.99999e-01,7.44113e-01,9.99999e-01
8.410139374e-01,7.48470e-01,9.99999e-01,9.99999e-01,7.48470e-01,9.99999e-01
8.452190071e-01,7.52765e-01,9.99999e-01,9.99999e-01,7.52765e-01,9.99999e-01
8.494451021e-01,7.57000e-01,9.99999e-01,9.99999e-01,7.57000e-01,9.99999e-01
8.536923276e-01,7.61174e-01,9.99999e-01,9.99999e-01,7.61174e-01,9.99999e-01
8.579607893e-01,7.65288e-01,9.99999e-01,9.99999e-01,7.65288e-01,9.99999e-01
8.622505932e-01,7.69343e-01,9.99999e-01,9.99999e-01,7.69343e-01,9.99999e-01
8.665618462e-01,7.36686e-01,9.99999e-01,9.52605e-01,7.73338e-01,9.99999e-01
8.708946554e-01,6.28595e-01,9.99999e-01,8.08716e-01,7.77274e-01,9.99999e-01
8.752491287e-01,6.59161e-01,9.99999e-01,8.43831e-01,7.81152e-01,9.99999e-01
8.796253743e-01,7.15621e-01,9.99999e-01,9.11651e-01,7.84972e-01,9.99999e-01
8.840235012e-01,7.51997e-01,9.99999e-01,9.53420e-01,7.88735e-01,9.99999e-01
8.884436187e-01,7.77632e-01,9.99999e-01,9.81311e-01,7.92441e-01,9.99999e-01
8.928858368e-01,7.90058e-01,9.99999e-01,9.92421e-01,7.96091e-01,9.99999e-01
8.973502660e-01,7.98198e-01,9.99999e-01,9.98140e-01,7.99685e-01,9.99999e-01
9.018370173e-01,8.03059e-01,9.99999e-01,9.99794e-01,8.03224e-01,9.99999e-01
9.063462024e-01,8.02611e-01,9.99999e-01,9.94920e-01,8.06708e-01,9.99999e-01
9.108779334e-01,8.00484e-01,9.99999e-01,9.88082e-01,8.10138e-01,9.99999e-01
9.154323231e-01,8.11204e-01,9.99999e-01,9.97159e-01,8.13514e-01,9.99999e-01
9.200094847e-01,7.83694e-01,9.99999e-01,9.59424e-01,8.16837e-01,9.99999e-01
9.246095321e-01,7.73352e-01,9.99999e-01,9.42988e-01,8.20108e-01,9.99999e-01
9.292325798e-01,7.86601e-01,9.99999e-01,9.55392e-01,8.23327e-01,9.99999e-01
9.338787427e-01,7.90512e-01,9.99999e-01,9.56463e-01,8.26494e-01,9.99999e-01
9.385481364e-01,8.02983e-01,9.99999e-01,9.67902e-01,8.29611e-01,9.99999e-01
9.432408771e-01,8.16166e-01,9.99999e-01,9.80169e-01,8.32678e-01,9.99999e-01
9.479570815e-01,8.27187e-01,9.99999e-01,9.89819e-01,8.35695e-01,9.99999e-01
9.526968669e-01,8.34527e-01,9.99999e-01,9.95067e-01,8.38663e-01,9.99999e-01
9.574603512e-01,8.39805e-01,9.99999e-01,9.97887e-01,8.41583e-01,9.99999e-01
9.622476530e-01,8.43898e-01,9.99999e-01,9.99339e-01,8.44455e-01,9.99999e-01
9.670588912e-01,8.47112e-01,9.99999e-01,9.99801e-01,8.47279e-01,9.99999e-01
9.718941857e-01,8.50045e-01,9.99999e-01,9.99985e-01,8.50058e-01,9.99999e-01
9.767536566e-01,8.52790e-01,9.99999e-01,9.99999e-01,8.52790e-01,9.99999e-01
9.816374249e-01,8.55476e-01,9.99999e-01,9.99999e-01,8.55476e-01,9.99999e-01
9.865456120e-01,8.58118e-01,9.99999e-01,9.99999e-01,8.58118e-01,9.99999e-01
9.914783401e-01,8.60715e-01,9.99999e-01,9.99999e-01,8.60715e-01,9.99999e-01
9.964357318e-01,8.63269e-01,9.99999e-01,9.99999e-01,8.63269e-01,9.99999e-01
1.001417910e+00,8.65780e-01,9.99999e-01,9.99999e-01,8.65780e-01,9.99999e-01
1.006425000e+00,8.68248e-01,9.99999e-01,9.99999e-01,8.68248e-01,9.99999e-01
1.011457125e+00,8.70674e-01,9.99999e-01,9.99999e-01,8.70674e-01,9.99999e-01
1.016514411e+00,8.73059e-01,9.99999e-01,9.99999e-01,8.73059e-01,9.99999e-01
1.021596983e+00,8.75383e-01,9.99999e-01,9.99975e-01,8.75404e-01,9.99999e-01
1.026704968e+00,8.75979e-01,9.99999e-01,9.98030e-01,8.77707e-01,9.99999e-01
1.031838492e+00,8.57099e-01,9.99999e-01,9.74007e-01,8.79972e-01,9.99999e-01
1.036997685e+00,2.34308e-01,9.99999e-01,2.65596e-01,8.82197e-01,9.99999e-01
1.042182673e+00,2.68380e-01,9.99999e-01,3.03465e-01,8.84384e-01,9.99999e-01
1.047393587e+00,2.59423e-01,9.99999e-01,2.92627e-01,8.86533e-01,9.99999e-01
1.052630555e+00,3.20007e-02,9.99999e-01,3.60106e-02,8.88644e-01,9.99999e-01
1.057893707e+00,6.18850e-02,9.99999e-01,6.94775e-02,8.90719e-01,9.99999e-01
1.063183176e+00,1.29067e-01,9.99999e-01,1.44571e-01,8.92757e-01,9.99999e-01
1.068499092e+00,2.45421e-01,9.99999e-01,2.74287e-01,8.94760e-01,9.99999e-01
1.073841587e+00,3.95339e-01,9.99999e-01,4.40868e-01,8.96727e-01,9.99999e-01
1.079210795e+00,5.36187e-01,9.99999e-01,5.96651e-01,8.98660e-01,9.99999e-01
1.084606849e+00,6.78855e-01,9.99999e-01,7.53814e-01,9.00559e-01,9.99999e-01
1.090029883e+00,7.79729e-01,9.99999e-01,8.64038e-01,9.02424e-01,9.99999e-01
1.095480033e+00,8.41389e-01,9.99999e-01,9.30476e-01,9.04256e-01,9.99999e-01
1.100957433e+00,8.75189e-01,9.99999e-01,9.65933e-01,9.06055e-01,9.99999e-01
1.106462220e+00,8.94892e-01,9.99999e-01,9.85756e-01,9.07823e-01,9.99999e-01
1.111994531e+00,9.04738e-01,9.99999e-01,9.94699e-01,9.09558e-01,9.99999e-01
1.117554504e+00,9.10076e-01,9.99999e-01,9.98696e-01,9.11263e-01,9.99999e-01
1.123142276e+00,9.12859e-01,9.99999e-01,9.99913e-01,9.12937e-01,9.99999e-01
1.128757988e+00,9.14581e-01,9.99999e-01,9.99999e-01,9.14581e-01,9.99999e-01
1.134401778e+00,9.16196e-01,9.99999e-01,9.99999e-01,9.16196e-01,9.99999e-01
1.140073787e+00,9.17781e-01,9.99999e-01,9.99999e-01,9.17781e-01,9.99999e-01
1.145774156e+00,9.19338e-01,9.99999e-01,9.99999e-01,9.19338e-01,9.99999e-01
1.151503026e+00,9.20866e-01,9.99999e-01,9.99999e-01,9.20866e-01,9.99999e-01
1.157260541e+00,9.22367e-01,9.99999e-01,9.99999e-01,9.22367e-01,9.99999e-01
1.163046844e+00,9.23840e-01,9.99999e-01,9.99999e-01,9.23840e-01,9.99999e-01
1.168862078e+00,9.25287e-01,9.99999e-01,9.99999e-01,9.25287e-01,9.99999e-01
1.174706389e+00,9.26707e-01,9.99999e-01,9.99999e-01,9.26707e-01,9.99999e-01
1.180579921e+00,9.28102e-01,9.99999e-01,9.99999e-01,9.28102e-01,9.99999e-01
1.186482820e+00,9.29468e-01,9.99999e-01,9.99997e-01,9.29470e-01,9.99999e-01
1.192415234e+00,9.24285e-01,9.99999e-01,9.92985e-01,9.30814e-01,9.99999e-01
1.198377311e+00,5.43234e-01,9.99999e-01,5.82786e-01,9.32133e-01,9.99999e-01
1.204369197e+00,4.50141e-07,9.99999e-01,4.82244e-07,9.33428e-01,9.99999e-01
1.210391043e+00,5.62069e-23,9.99999e-01,6.01337e-23,9.34699e-01,9.99999e-01
1.216442998e+00,3.94315e-20,9.99999e-01,4.21300e-20,9.35947e-01,9.99999e-01
1.222525213e+00,7.62659e-20,9.99999e-01,8.13787e-20,9.37171e-01,9.99999e-01
1.228637839e+00,2.74210e-15,9.99999e-01,2.92218e-15,9.38373e-01,9.99999e-01
1.234781029e+00,1.74404e-10,9.99999e-01,1.85624e-10,9.39553e-01,9.99999e-01
1.240954934e+00,3.76407e-07,9.99999e-01,4.00130e-07,9.40711e-01,9.99999e-01
1.247159708e+00,1.00794e-04,9.99999e-01,1.07018e-04,9.41847e-01,9.99999e-01
1.253395507e+00,9.76644e-03,9.99999e-01,1.03572e-02,9.42962e-01,9.99999e-01
1.259662485e+00,5.67326e-02,9.99999e-01,6.00944e-02,9.44057e-01,9.99999e-01
1.265960797e+00,2.08186e-01,9.99999e-01,2.20272e-01,9.45131e-01,9.99999e-01
1.272290601e+00,4.83725e-01,9.99999e-01,5.11236e-01,9.46185e-01,9.99999e-01
1.278652054e+00,4.53064e-01,9.99999e-01,4.78309e-01,9.47220e-01,9.99999e-01
1.285045314e+00,3.29014e-02,9.99999e-01,3.46975e-02,9.48235e-01,9.99999e-01
1.291470541e+00,2.15662e-03,9.99999e-01,2.27196e-03,9.49231e-01,9.99999e-01
1.297927893e+00,3.23979e-02,9.99999e-01,3.40956e-02,9.50208e-01,9.99999e-01
1.304417533e+00,3.08434e-01,9.99999e-01,3.24268e-01,9.51167e-01,9.99999e-01
1.310939621e+00,8.85024e-02,9.99999e-01,9.29540e-02,9.52108e-01,9.99999e-01
1.317494319e+00,2.39372e-08,9.99999e-01,2.51169e-08,9.53032e-01,9.99999e-01
1.324081790e+00,3.98740e-06,9.99999e-01,4.17993e-06,9.53938e-01,9.99999e-01
1.330702199e+00,1.28731e-03,9.99999e-01,1.34821e-03,9.54827e-01,9.99999e-01
1.337355710e+00,9.46726e-04,9.99999e-01,9.90610e-04,9.55699e-01,9.99999e-01
1.344042489e+00,3.23216e-04,9.99999e-01,3.37896e-04,9.56555e-01,9.99999e-01
1.350762701e+00,9.49283e-04,9.99999e-01,9.91526e-04,9.57394e-01,9.99999e-01
1.357516515e+00,1.00971e-02,9.99999e-01,1.05373e-02,9.58218e-01,9.99999e-01
1.364304097e+00,5.59680e-02,9.99999e-01,5.83591e-02,9.59026e-01,9.99999e-01
1.371125618e+00,2.13244e-01,9.99999e-01,2.22171e-01,9.59819e-01,9.99999e-01
1.377981246e+00,2.89360e-01,9.99999e-01,3.01230e-01,9.60597e-01,9.99999e-01
1.384871152e+00,4.77698e-01,9.99999e-01,4.96897e-01,9.61360e-01,9.99999e-01
1.391795508e+00,5.04316e-01,9.99999e-01,5.24178e-01,9.62108e-01,9.99999e-01
1.398754485e+00,6.47366e-01,9.99999e-01,6.72348e-01,9.62843e-01,9.99999e-01
1.405748258e+00,7.18594e-01,9.99999e-01,7.45766e-01,9.63563e-01,9.99999e-01
1.412776999e+00,8.01368e-01,9.99999e-01,8.31061e-01,9.64270e-01,9.99999e-01
1.419840884e+00,7.43933e-01,9.99999e-01,7.70944e-01,9.64963e-01,9.99999e-01
1.426940089e+00,9.67477e-02,9.99999e-01,1.00190e-01,9.65643e-01,9.99999e-01
1.434074789e+00,0.00000e+00,9.99999e-01,0.00000e+00,9.66310e-01,9.99999e-01
1.441245163e+00,0.00000e+00,9.99999e-01,0.00000e+00,9.66964e-01,9.99999e-01
1.448451389e+00,0.00000e+00,9.99999e-01,0.00000e+00,9.67606e-01,9.99999e-01
1.455693646e+00,3.66272e-177,9.99999e-01,3.78288e-177,9.68236e-01,9.99999e-01
1.462972114e+00,2.24722e-86,9.99999e-01,2.31946e-86,9.68853e-01,9.99999e-01
1.470286975e+00,7.27328e-37,9.99999e-01,7.50240e-37,9.69459e-01,9.99999e-01
