#,Wave/freq,Total,N2,CO2,Rayleigh,CIA
4.000000000e-01,2.41815e-06,9.99999e-01,9.99999e-01,2.41815e-06,9.99999e-01
4.020000000e-01,3.12275e-06,9.99999e-01,9.99999e-01,3.12275e-06,9.99999e-01
4.040100000e-01,4.01129e-06,9.99999e-01,9.99999e-01,4.01129e-06,9.99999e-01
4.060300500e-01,5.12723e-06,9.99999e-01,9.99999e-01,5.12723e-06,9.99999e-01
4.080602003e-01,6.52192e-06,9.99999e-01,9.99999e-01,6.52192e-06,9.99999e-01
4.101005013e-01,8.25666e-06,9.99999e-01,9.99999e-01,8.25666e-06,9.99999e-01
4.121510038e-01,1.04042e-05,9.99999e-01,9.99999e-01,1.04042e-05,9.99999e-01
4.142117588e-01,1.30507e-05,9.99999e-01,9.99999e-01,1.30507e-05,9.99999e-01
4.162828176e-01,1.62971e-05,9.99999e-01,9.99999e-01,1.62971e-05,9.99999e-01
4.183642317e-01,2.02621e-05,9.99999e-01,9.99999e-01,2.02621e-05,9.99999e-01
4.204560528e-01,2.50835e-05,9.99999e-01,9.99999e-01,2.50835e-05,9.99999e-01
4.225583331e-01,3.09216e-05,9.99999e-01,9.99999e-01,3.09216e-05,9.99999e-01
4.246711247e-01,3.79612e-05,9.99999e-01,9.99999e-01,3.79612e-05,9.99999e-01
4.267944804e-01,4.64151e-05,9.99999e-01,9.99999e-01,4.64151e-05,9.99999e-01
4.289284528e-01,5.65267e-05,9.99999e-01,9.99999e-01,5.65267e-05,9.99999e-01
4.310730950e-01,6.85736e-05,9.99999e-01,9.99999e-01,6.85736e-05,9.99999e-01
4.332284605e-01,8.28711e-05,9.99999e-01,9.99999e-01,8.28711e-05,9.99999e-01
4.353946028e-01,9.97757e-05,9.99999e-01,9.99999e-01,9.97757e-05,9.99999e-01
4.375715758e-01,1.19689e-04,9.99999e-01,9.99999e-01,1.19689e-04,9.99999e-01
4.397594337e-01,1.43061e-04,9.99999e-01,9.99999e-01,1.43061e-04,9.99999e-01
4.419582309e-01,1.70396e-04,9.99999e-01,9.99999e-01,1.70396e-04,9.99999e-01
4.441680220e-01,2.02254e-04,9.99999e-01,9.99999e-01,2.02254e-04,9.99999e-01
4.463888621e-01,2.39258e-04,9.99999e-01,9.99999e-01,2.39258e-04,9.99999e-01
4.486208064e-01,2.82093e-04,9.99999e-01,9.99999e-01,2.82093e-04,9.99999e-01
4.508639105e-01,3.31517e-04,9.99999e-01,9.99999e-01,3.31517e-04,9.99999e-01
4.531182300e-01,3.88360e-04,9.99999e-01,9.99999e-01,3.88360e-04,9.99999e-01
4.553838212e-01,4.53529e-04,9.99999e-01,9.99999e-01,4.53529e-04,9.99999e-01
4.576607403e-01,5.28014e-04,9.99999e-01,9.99999e-01,5.28014e-04,9.99999e-01
4.599490440e-01,6.12889e-04,9.99999e-01,9.99999e-01,6.12889e-04,9.99999e-01
4.622487892e-01,7.09314e-04,9.99999e-01,9.99999e-01,7.09314e-04,9.99999e-01
4.645600332e-01,8.18545e-04,9.99999e-01,9.99999e-01,8.18545e-04,9.99999e-01
4.668828333e-01,9.41928e-04,9.99999e-01,9.99999e-01,9.41928e-04,9.99999e-01
4.692172475e-01,1.08091e-03,9.99999e-01,9.99999e-01,1.08091e-03,9.99999e-01
4.715633337e-01,1.23702e-03,9.99999e-01,9.99999e-01,1.23702e-03,9.99999e-01
4.739211504e-01,1.41192e-03,9.99999e-01,9.99999e-01,1.41192e-03,9.99999e-01
4.762907561e-01,1.60735e-03,9.99999e-01,9.99999e-01,1.60735e-03,9.99999e-01
4.786722099e-01,1.82514e-03,9.99999e-01,9.99999e-01,1.82514e-03,9.99999e-01
4.810655710e-01,2.06724e-03,9.99999e-01,9.99999e-01,2.06724e-03,9.99999e-01
4.834708988e-01,2.33571e-03,9.99999e-01,9.99999e-01,2.33571e-03,9.99999e-01
4.858882533e-01,2.63269e-03,9.99999e-01,9.99999e-01,2.63269e-03,9.99999e-01
4.883176946e-01,2.96042e-03,9.99999e-01,9.99999e-01,2.96042e-03,9.99999e-01
4.907592831e-01,3.32124e-03,9.99999e-01,9.99999e-01,3.32124e-03,9.99999e-01
4.932130795e-01,3.71758e-03,9.99999e-01,9.99999e-01,3.71758e-03,9.99999e-01
4.956791449e-01,4.15197e-03,9.99999e-01,9.99999e-01,4.15197e-03,9.99999e-01
4.981575406e-01,4.62700e-03,9.99999e-01,9.99999e-01,4.62700e-03,9.99999e-01
5.006483283e-01,5.14536e-03,9.99999e-01,9.99999e-01,5.14536e-03,9.99999e-01
5.031515699e-01,5.70980e-03,9.99999e-01,9.99999e-01,5.70980e-03,9.99999e-01
5.056673278e-01,6.32314e-03,9.99999e-01,9.99999e-01,6.32314e-03,9.99999e-01
5.081956644e-01,6.98827e-03,9.99999e-01,9.99999e-01,6.98827e-03,9.99999e-01
5.107366428e-01,7.70813e-03,9.99999e-01,9.99999e-01,7.70813e-03,9.99999e-01
5.132903260e-01,8.48569e-03,9.99999e-01,9.99999e-01,8.48569e-03,9.99999e-01
5.158567776e-01,9.32396e-03,9.99999e-01,9.99999e-01,9.32396e-03,9.99999e-01
5.184360615e-01,1.02260e-02,9.99999e-01,9.99999e-01,1.02260e-02,9.99999e-01
5.210282418e-01,1.11949e-02,9.99999e-01,9.99999e-01,1.11949e-02,9.99999e-01
5.236333830e-01,1.22336e-02,9.99999e-01,9.99999e-01,1.22336e-02,9.99999e-01
5.262515499e-01,1.33454e-02,9.99999e-01,9.99999e-01,1.33454e-02,9.99999e-01
5.288828077e-01,1.45332e-02,9.99999e-01,9.99999e-01,1.45332e-02,9.99999e-01
5.315272217e-01,1.58001e-02,9.99999e-01,9.99999e-01,1.58001e-02,9.99999e-01
5.341848578e-01,1.71490e-02,9.99999e-01,9.99999e-01,1.71490e-02,9.99999e-01
5.368557821e-01,1.85831e-02,9.99999e-01,9.99999e-01,1.85831e-02,9.99999e-01
5.395400610e-01,2.01051e-02,9.99999e-01,9.99999e-01,2.01051e-02,9.99999e-01
5.422377613e-01,2.17180e-02,9.99999e-01,9.99999e-01,2.17180e-02,9.99999e-01
5.449489501e-01,2.34246e-02,9.99999e-01,9.99999e-01,2.34246e-02,9.99999e-01
5.476736949e-01,2.52276e-02,9.99999e-01,9.99999e-01,2.52276e-02,9.99999e-01
5.504120634e-01,2.71296e-02,9.99999e-01,9.99999e-01,2.71296e-02,9.99999e-01
5.531641237e-01,2.91331e-02,9.99999e-01,9.99999e-01,2.91331e-02,9.99999e-01
5.559299443e-01,3.12405e-02,9.99999e-01,9.99999e-01,3.12405e-02,9.99999e-01
5.587095940e-01,3.34542e-02,9.99999e-01,9.99999e-01,3.34542e-02,9.99999e-01
5.615031420e-01,3.57764e-02,9.99999e-01,9.99999e-01,3.57764e-02,9.99999e-01
5.643106577e-01,3.82091e-02,9.99999e-01,9.99999e-01,3.82091e-02,9.99999e-01
5.671322110e-01,4.07542e-02,9.99999e-01,9.99999e-01,4.07542e-02,9.99999e-01
5.699678720e-01,4.34135e-02,9.99999e-01,9.99999e-01,4.34135e-02,9.99999e-01
5.728177114e-01,4.61887e-02,9.99999e-01,9.99999e-01,4.61887e-02,9.99999e-01
5.756818000e-01,4.90811e-02,9.99999e-01,9.99999e-01,4.90811e-02,9.99999e-01
5.785602090e-01,5.20921e-02,9.99999e-01,9.99999e-01,5.20921e-02,9.99999e-01
5.814530100e-01,5.52228e-02,9.99999e-01,9.99999e-01,5.52228e-02,9.99999e-01
5.843602750e-01,5.84743e-02,9.99999e-01,9.99999e-01,5.84743e-02,9.99999e-01
5.872820764e-01,6.18473e-02,9.99999e-01,9.99999e-01,6.18473e-02,9.99999e-01
5.902184868e-01,6.53424e-02,9.99999e-01,9.99999e-01,6.53424e-02,9.99999e-01
5.931695792e-01,6.89601e-02,9.99999e-01,9.99999e-01,6.89601e-02,9.99999e-01
5.961354271e-01,7.27007e-02,9.99999e-01,9.99999e-01,7.27007e-02,9.99999e-01
5.991161043e-01,7.65642e-02,9.99999e-01,9.99999e-01,7.65642e-02,9.99999e-01
6.021116848e-01,8.05506e-02,9.99999e-01,9.99999e-01,8.05506e-02,9.99999e-01
6.051222432e-01,8.46597e-02,9.99999e-01,9.99999e-01,8.46597e-02,9.99999e-01
6.081478544e-01,8.88910e-02,9.99999e-01,9.99999e-01,8.88910e-02,9.99999e-01
6.111885937e-01,9.32439e-02,9.99999e-01,9.99999e-01,9.32439e-02,9.99999e-01
6.142445367e-01,9.77177e-02,9.99999e-01,9.99999e-01,9.77177e-02,9.99999e-01
6.173157594e-01,1.02311e-01,9.99999e-01,9.99999e-01,1.02311e-01,9.99999e-01
6.204023382e-01,1.07024e-01,9.99999e-01,9.99999e-01,1.07024e-01,9.99999e-01
6.235043498e-01,1.11854e-01,9.99999e-01,9.99999e-01,1.11854e-01,9.99999e-01
6.266218716e-01,1.16800e-01,9.99999e-01,9.99999e-01,1.16800e-01,9.99999e-01
6.297549810e-01,1.21860e-01,9.99999e-01,9.99999e-01,1.21860e-01,9.99999e-01
6.329037559e-01,1.27034e-01,9.99999e-01,9.99999e-01,1.27034e-01,9.99999e-01
6.360682746e-01,1.32318e-01,9.99999e-01,9.99999e-01,1.32318e-01,9.99999e-01
6.392486160e-01,1.37711e-01,9.99999e-01,9.99999e-01,1.37711e-01,9.99999e-01
6.424448591e-01,1.43211e-01,9.99999e-01,9.99999e-01,1.43211e-01,9.99999e-01
6.456570834e-01,1.48815e-01,9.99999e-01,9.99999e-01,1.48815e-01,9.99999e-01
6.488853688e-01,1.54522e-01,9.99999e-01,9.99999e-01,1.54522e-01,9.99999e-01
6.521297956e-01,1.60328e-01,9.99999e-01,9.99999e-01,1.60328e-01,9.99999e-01
6.553904446e-01,1.66231e-01,9.99999e-01,9.99999e-01,1.66231e-01,9.99999e-01
6.586673968e-01,1.72229e-01,9.99999e-01,9.99999e-01,1.72229e-01,9.99999e-01
6.619607338e-01,1.78318e-01,9.99999e-01,9.99999e-01,1.78318e-01,9.99999e-01
6.652705375e-01,1.84495e-01,9.99999e-01,9.99999e-01,1.84495e-01,9.99999e-01
6.685968902e-01,1.90758e-01,9.99999e-01,9.99999e-01,1.90758e-01,9.99999e-01
6.719398746e-01,1.97104e-01,9.99999e-01,9.99999e-01,1.97104e-01,9.99999e-01
6.752995740e-01,2.03529e-01,9.99999e-01,9.99999e-01,2.03529e-01,9.99999e-01
6.786760719e-01,2.10031e-01,9.99999e-01,9.99999e-01,2.10031e-01,9.99999e-01
6.820694522e-01,2.16606e-01,9.99999e-01,9.99999e-01,2.16606e-01,9.99999e-01
6.854797995e-01,2.23250e-01,9.99999e-01,9.99999e-01,2.23250e-01,9.99999e-01
6.889071985e-01,2.29962e-01,9.99999e-01,9.99999e-01,2.29962e-01,9.99999e-01
6.923517345e-01,2.36736e-01,9.99999e-01,9.99999e-01,2.36736e-01,9.99999e-01
6.958134932e-01,2.43570e-01,9.99999e-01,9.99999e-01,2.43570e-01,9.99999e-01
6.992925606e-01,2.50461e-01,9.99999e-01,9.99999e-01,2.50461e-01,9.99999e-01
7.027890234e-01,2.57404e-01,9.99999e-01,9.99999e-01,2.57404e-01,9.99999e-01
7.063029686e-01,2.64398e-01,9.99999e-01,9.99999e-01,2.64398e-01,9.99999e-01
7.098344834e-01,2.71437e-01,9.99999e-01,9.99999e-01,2.71437e-01,9.99999e-01
7.133836558e-01,2.78520e-01,9.99999e-01,9.99999e-01,2.78520e-01,9.99999e-01
7.169505741e-01,2.85642e-01,9.99999e-01,9.99999e-01,2.85642e-01,9.99999e-01
7.205353270e-01,2.92799e-01,9.99999e-01,9.99999e-01,2.92799e-01,9.99999e-01
7.241380036e-01,2.99990e-01,9.99999e-01,9.99999e-01,2.99990e-01,9.99999e-01
7.277586936e-01,3.07210e-01,9.99999e-01,9.99999e-01,3.07210e-01,9.99999e-01
7.313974871e-01,3.14456e-01,9.99999e-01,9.99999e-01,3.14456e-01,9.99999e-01
7.350544745e-01,3.21724e-01,9.99999e-01,9.99999e-01,3.21724e-01,9.99999e-01
7.387297469e-01,3.29013e-01,9.99999e-01,9.99999e-01,3.29013e-01,9.99999e-01
7.424233956e-01,3.36317e-01,9.99999e-01,9.99999e-01,3.36317e-01,9.99999e-01
7.461355126e-01,3.43634e-01,9.99999e-01,9.99999e-01,3.43634e-01,9.99999e-01
7.498661902e-01,3.50962e-01,9.99999e-01,9.99999e-01,3.50962e-01,9.99999e-01
7.536155211e-01,3.58296e-01,9.99999e-01,9.99999e-01,3.58296e-01,9.99999e-01
7.573835987e-01,3.65634e-01,9.99999e-01,9.99999e-01,3.65634e-01,9.99999e-01
7.611705167e-01,3.72973e-01,9.99999e-01,9.99999e-01,3.72973e-01,9.99999e-01
7.649763693e-01,3.80310e-01,9.99999e-01,9.99999e-01,3.80310e-01,9.99999e-01
7.688012511e-01,3.87643e-01,9.99999e-01,9.99999e-01,3.87643e-01,9.99999e-01
7.726452574e-01,3.94967e-01,9.99999e-01,9.99999e-01,3.94967e-01,9.99999e-01
7.765084837e-01,4.02281e-01,9.99999e-01,9.99999e-01,4.02281e-01,9.99999e-01
7.803910261e-01,3.93016e-01,9.99999e-01,9.59552e-01,4.09583e-01,9.99999e-01
7.842929812e-01,3.46772e-01,9.99999e-01,8.31850e-01,4.16868e-01,9.99999e-01
7.882144461e-01,3.48326e-01,9.99999e-01,8.21260e-01,4.24135e-01,9.99999e-01
7.921555184e-01,3.84300e-01,9.99999e-01,8.90855e-01,4.31382e-01,9.99999e-01
7.961162960e-01,4.05926e-01,9.99999e-01,9.25491e-01,4.38606e-01,9.99999e-01
8.000968774e-01,4.27479e-01,9.99999e-01,9.58892e-01,4.45805e-01,9.99999e-01
8.040973618e-01,4.43234e-01,9.99999e-01,9.78494e-01,4.52976e-01,9.99999e-01
8.081178486e-01,4.55547e-01,9.99999e-01,9.90068e-01,4.60117e-01,9.99999e-01
8.121584379e-01,4.65790e-01,9.99999e-01,9.96924e-01,4.67226e-01,9.99999e-01
8.162192301e-01,4.73980e-01,9.99999e-01,9.99320e-01,4.74302e-01,9.99999e-01
8.203003262e-01,4.81337e-01,9.99999e-01,9.99989e-01,4.81342e-01,9.99999e-01
8.244018279e-01,4.88344e-01,9.99999e-01,9.99999e-01,4.88344e-01,9.99999e-01
8.285238370e-01,4.95307e-01,9.99999e-01,9.99999e-01,4.95307e-01,9.99999e-01
8.326664562e-01,5.02229e-01,9.99999e-01,9.99999e-01,5.02229e-01,9.99999e-01
8.368297885e-01,5.09107e-01,9.99999e-01,9.99999e-01,5.09107e-01,9.99999e-01
8.410139374e-01,5.15942e-01,9.99999e-01,9.99999e-01,5.15942e-01,9.99999e-01
8.452190071e-01,5.22730e-01,9.99999e-01,9.99999e-01,5.22730e-01,9.99999e-01
8.494451021e-01,5.29471e-01,9.99999e-01,9.99999e-01,5.29471e-01,9.99999e-01
8.536923276e-01,5.36163e-01,9.99999e-01,9.99999e-01,5.36163e-01,9.99999e-01
8.579607893e-01,5.42805e-01,9.99999e-01,9.99999e-01,5.42805e-01,9.99999e-01
8.622505932e-01,5.49396e-01,9.99999e-01,9.99999e-01,5.49396e-01,9.99999e-01
8.665618462e-01,5.09229e-01,9.99999e-01,9.15987e-01,5.55934e-01,9.99999e-01
8.708946554e-01,3.53116e-01,9.99999e-01,6.27852e-01,5.62419e-01,9.99999e-01
8.752491287e-01,3.90333e-01,9.99999e-01,6.86180e-01,5.68849e-01,9.99999e-01
8.796253743e-01,4.67360e-01,9.99999e-01,8.12485e-01,5.75223e-01,9.99999e-01
8.840235012e-01,5.22057e-01,9.99999e-01,8.97713e-01,5.81540e-01,9.99999e-01
8.884436187e-01,5.63321e-01,9.99999e-01,9.58354e-01,5.87801e-01,9.99999e-01
8.928858368e-01,5.83854e-01,9.99999e-01,9.82914e-01,5.94003e-01,9.99999e-01
8.973502660e-01,5.97641e-01,9.99999e-01,9.95826e-01,6.00145e-01,9.99999e-01
9.018370173e-01,6.05950e-01,9.99999e-01,9.99539e-01,6.06229e-01,9.99999e-01
9.063462024e-01,6.05047e-01,9.99999e-01,9.88232e-01,6.12252e-01,9.99999e-01
9.108779334e-01,6.01630e-01,9.99999e-01,9.73173e-01,6.18214e-01,9.99999e-01
9.154323231e-01,6.20147e-01,9.99999e-01,9.93643e-01,6.24114e-01,9.99999e-01
9.200094847e-01,5.74871e-01,9.99999e-01,9.12560e-01,6.29953e-01,9.99999e-01
9.246095321e-01,5.56547e-01,9.99999e-01,8.75445e-01,6.35729e-01,9.99999e-01
9.292325798e-01,5.78040e-01,9.99999e-01,9.01154e-01,6.41443e-01,9.99999e-01
9.338787427e-01,5.85105e-01,9.99999e-01,9.04203e-01,6.47094e-01,9.99999e-01
9.385481364e-01,6.06088e-01,9.99999e-01,9.28611e-01,6.52681e-01,9.99999e-01
9.432408771e-01,6.29019e-01,9.99999e-01,9.55657e-01,6.58205e-01,9.99999e-01
9.479570815e-01,6.48400e-01,9.99999e-01,9.76997e-01,6.63665e-01,9.99999e-01
9.526968669e-01,6.61600e-01,9.99999e-01,9.88846e-01,6.69061e-01,9.99999e-01
9.574603512e-01,6.71168e-01,9.99999e-01,9.95216e-01,6.74394e-01,9.99999e-01
9.622476530e-01,6.78646e-01,9.99999e-01,9.98505e-01,6.79662e-01,9.99999e-01
9.670588912e-01,6.84559e-01,9.99999e-01,9.99552e-01,6.84866e-01,9.99999e-01
9.718941857e-01,6.89984e-01,9.99999e-01,9.99967e-01,6.90006e-01,9.99999e-01
9.767536566e-01,6.95081e-01,9.99999e-01,9.99999e-01,6.95081e-01,9.99999e-01
9.816374249e-01,7.00093e-01,9.99999e-01,9.99999e-01,7.00093e-01,9.99999e-01
9.865456120e-01,7.05041e-01,9.99999e-01,9.99999e-01,7.05041e-01,9.99999e-01
9.914783401e-01,7.09925e-01,9.99999e-01,9.99999e-01,7.09925e-01,9.99999e-01
9.964357318e-01,7.14746e-01,9.99999e-01,9.99999e-01,7.14746e-01,9.99999e-01
1.001417910e+00,7.19503e-01,9.99999e-01,9.99999e-01,7.19503e-01,9.99999e-01
1.006425000e+00,7.24196e-01,9.99999e-01,9.99999e-01,7.24196e-01,9.99999e-01
1.011457125e+00,7.28827e-01,9.99999e-01,9.99999e-01,7.28827e-01,9.99999e-01
1.016514411e+00,7.33395e-01,9.99999e-01,9.99999e-01,7.33395e-01,9.99999e-01
1.021596983e+00,7.37854e-01,9.99999e-01,9.99936e-01,7.37901e-01,9.99999e-01
1.026704968e+00,7.38924e-01,9.99999e-01,9.95391e-01,7.42344e-01,9.99999e-01
1.031838492e+00,7.08562e-01,9.99999e-01,9.48892e-01,7.46726e-01,9.99999e-01
1.036997685e+00,9.50206e-02,9.99999e-01,1.26518e-01,7.51046e-01,9.99999e-01
1.042182673e+00,5.87377e-02,9.99999e-01,7.77668e-02,7.55305e-01,9.99999e-01
1.047393587e+00,7.77949e-02,9.99999e-01,1.02428e-01,7.59503e-01,9.99999e-01
1.052630555e+00,1.10718e-03,9.99999e-01,1.44987e-03,7.63642e-01,9.99999e-01
1.057893707e+00,3.12418e-03,9.99999e-01,4.06943e-03,7.67720e-01,9.99999e-01
1.063183176e+00,1.30639e-02,9.99999e-01,1.69278e-02,7.71739e-01,9.99999e-01
1.068499092e+00,4.37814e-02,9.99999e-01,5.64412e-02,7.75699e-01,9.99999e-01
1.073841587e+00,1.26314e-01,9.99999e-01,1.62024e-01,7.79600e-01,9.99999e-01
1.079210795e+00,2.47375e-01,9.99999e-01,3.15753e-01,7.83443e-01,9.99999e-01
1.084606849e+00,4.16359e-01,9.99999e-01,5.28891e-01,7.87229e-01,9.99999e-01
1.090029883e+00,5.68008e-01,9.99999e-01,7.18126e-01,7.90958e-01,9.99999e-01
1.095480033e+00,6.74975e-01,9.99999e-01,8.49419e-01,7.94630e-01,9.99999e-01
1.100957433e+00,7.37855e-01,9.99999e-01,9.24344e-01,7.98247e-01,9.99999e-01
1.106462220e+00,7.76142e-01,9.99999e-01,9.67989e-01,8.01808e-01,9.99999e-01
1.111994531e+00,7.95661e-01,9.99999e-01,9.88013e-01,8.05314e-01,9.99999e-01
1.117554504e+00,8.06389e-01,9.99999e-01,9.97061e-01,8.08765e-01,9.99999e-01
1.123142276e+00,8.12006e-01,9.99999e-01,9.99806e-01,8.12163e-01,9.99999e-01
1.128757988e+00,8.15507e-01,9.99999e-01,9.99999e-01,8.15507e-01,9.99999e-01
1.134401778e+00,8.18799e-01,9.99999e-01,9.99999e-01,8.18799e-01,9.99999e-01
1.140073787e+00,8.22039e-01,9.99999e-01,9.99999e-01,8.22039e-01,9.99999e-01
1.145774156e+00,8.25227e-01,9.99999e-01,9.99999e-01,8.25227e-01,9.99999e-01
1.151503026e+00,8.28364e-01,9.99999e-01,9.99999e-01,8.28364e-01,9.99999e-01
1.157260541e+00,8.31451e-01,9.99999e-01,9.99999e-01,8.31451e-01,9.99999e-01
1.163046844e+00,8.34488e-01,9.99999e-01,9.99999e-01,8.34488e-01,9.99999e-01
1.168862078e+00,8.37476e-01,9.99999e-01,9.99999e-01,8.37476e-01,9.99999e-01
1.174706389e+00,8.40415e-01,9.99999e-01,9.99999e-01,8.40415e-01,9.99999e-01
1.180579921e+00,8.43306e-01,9.99999e-01,9.99999e-01,8.43306e-01,9.99999e-01
1.186482820e+00,8.46142e-01,9.99999e-01,9.99991e-01,8.46150e-01,9.99999e-01
1.192415234e+00,8.35108e-01,9.99999e-01,9.83699e-01,8.48946e-01,9.99999e-01
1.198377311e+00,4.73412e-01,9.99999e-01,5.55845e-01,8.51697e-01,9.99999e-01
1.204369197e+00,2.84925e-13,9.99999e-01,3.33478e-13,8.54402e-01,9.99999e-01
1.210391043e+00,1.33162e-49,9.99999e-01,1.55370e-49,8.57061e-01,9.99999e-01
1.216442998e+00,4.17736e-43,9.99999e-01,4.85921e-43,8.59676e-01,9.99999e-01
1.222525213e+00,1.76860e-42,9.99999e-01,2.05115e-42,8.62248e-01,9.99999e-01
1.228637839e+00,6.64175e-33,9.99999e-01,7.68031e-33,8.64776e-01,9.99999e-01
1.234781029e+00,4.31389e-21,9.99999e-01,4.97415e-21,8.67261e-01,9.99999e-01
1.240954934e+00,3.33169e-14,9.99999e-01,3.83083e-14,8.69704e-01,9.99999e-01
1.247159708e+00,1.18729e-07,9.99999e-01,1.36141e-07,8.72106e-01,9.99999e-01
1.253395507e+00,5.20413e-05,9.99999e-01,5.95120e-05,8.74466e-01,9.99999e-01
1.259662485e+00,3.28832e-03,9.99999e-01,3.75042e-03,8.76786e-01,9.99999e-01
1.265960797e+00,3.51962e-02,9.99999e-01,4.00381e-02,8.79066e-01,9.99999e-01
1.272290601e+00,2.21472e-01,9.99999e-01,2.51299e-01,8.81307e-01,9.99999e-01
1.278652054e+00,1.88628e-01,9.99999e-01,2.13499e-01,8.83509e-01,9.99999e-01
1.285045314e+00,2.62793e-03,9.99999e-01,2.96715e-03,8.85673e-01,9.99999e-01
1.291470541e+00,1.79858e-06,9.99999e-01,2.02588e-06,8.87800e-01,9.99999e-01
1.297927893e+00,1.81758e-03,9.99999e-01,2.04248e-03,8.89889e-01,9.99999e-01
1.304417533e+00,7.18320e-02,9.99999e-01,8.05343e-02,8.91942e-01,9.99999e-01
1.310939621e+00,1.69894e-02,9.99999e-01,1.90046e-02,8.93959e-01,9.99999e-01
1.317494319e+00,1.77186e-17,9.99999e-01,1.97765e-17,8.95941e-01,9.99999e-01
1.324081790e+00,6.04877e-12,9.99999e-01,6.73666e-12,8.97887e-01,9.99999e-01
1.330702199e+00,4.51889e-07,9.99999e-01,5.02210e-07,8.99800e-01,9.99999e-01
1.337355710e+00,7.98602e-07,9.99999e-01,8.85684e-07,9.01678e-01,9.99999e-01
1.344042489e+00,2.59271e-07,9.99999e-01,2.86956e-07,9.03523e-01,9.99999e-01
1.350762701e+00,2.67624e-07,9.99999e-01,2.95607e-07,9.05336e-01,9.99999e-01
1.357516515e+00,6.70716e-05,9.99999e-01,7.39393e-05,9.07116e-01,9.99999e-01
1.364304097e+00,1.65445e-03,9.99999e-01,1.82035e-03,9.08864e-01,9.99999e-01
1.371125618e+00,3.45407e-02,9.99999e-01,3.79325e-02,9.10581e-01,9.99999e-01
1.377981246e+00,6.05000e-02,9.99999e-01,6.63182e-02,9.12268e-01,9.99999e-01
1.384871152e+00,1.88475e-01,9.99999e-01,2.06226e-01,9.13924e-01,9.99999e-01
1.391795508e+00,2.12840e-01,9.99999e-01,2.32472e-01,9.15550e-01,9.99999e-01
1.398754485e+00,3.71872e-01,9.99999e-01,4.05466e-01,9.17147e-01,9.99999e-01
1.405748258e+00,4.73144e-01,9.99999e-01,5.15005e-01,9.18715e-01,9.99999e-01
1.412776999e+00,6.04861e-01,9.99999e-01,6.57275e-01,9.20255e-01,9.99999e-01
1.419840884e+00,5.42369e-01,9.99999e-01,5.88401e-01,9.21767e-01,9.99999e-01
1.426940089e+00,4.30770e-02,9.99999e-01,4.66579e-02,9.23251e-01,9.99999e-01
1.434074789e+00,0.00000e+00,9.99999e-01,0.00000e+00,9.24709e-01,9.99999e-01
1.441245163e+00,0.00000e+00,9.99999e-01,0.00000e+00,9.26139e-01,9.99999e-01
1.448451389e+00,0.00000e+00,9.99999e-01,0.00000e+00,9.27544e-01,9.99999e-01
1.455693646e+00,0.00000e+00,9.99999e-01,0.00000e+00,9.28923e-01,9.99999e-01
1.462972114e+00,1.95417e-194,9.99999e-01,2.10063e-194,9.30277e-01,9.99999e-01
1.470286975e+00,2.49377e-81,9.99999e-01,2.67684e-81,9.31606e-01,9.99999e-01
