#,Wave/freq,Total,N2,CO2,Rayleigh,CIA
4.000000000e-01,5.88254e-22,9.99999e-01,9.99999e-01,5.88254e-22,9.99999e-01
4.020000000e-01,1.54654e-21,9.99999e-01,9.99999e-01,1.54654e-21,9.99999e-01
4.040100000e-01,3.98496e-21,9.99999e-01,9.99999e-01,3.98496e-21,9.99999e-01
4.060300500e-01,1.00778e-20,9.99999e-01,9.99999e-01,1.00778e-20,9.99999e-01
4.080602003e-01,2.50235e-20,9.99999e-01,9.99999e-01,2.50235e-20,9.99999e-01
4.101005013e-01,6.10281e-20,9.99999e-01,9.99999e-01,6.10281e-20,9.99999e-01
4.121510038e-01,1.46239e-19,9.99999e-01,9.99999e-01,1.46239e-19,9.99999e-01
4.142117588e-01,3.44429e-19,9.99999e-01,9.99999e-01,3.44429e-19,9.99999e-01
4.162828176e-01,7.97605e-19,9.99999e-01,9.99999e-01,7.97605e-19,9.99999e-01
4.183642317e-01,1.81666e-18,9.99999e-01,9.99999e-01,1.81666e-18,9.99999e-01
4.204560528e-01,4.07095e-18,9.99999e-01,9.99999e-01,4.07095e-18,9.99999e-01
4.225583331e-01,8.97837e-18,9.99999e-01,9.99999e-01,8.97837e-18,9.99999e-01
4.246711247e-01,1.94946e-17,9.99999e-01,9.99999e-01,1.94946e-17,9.99999e-01
4.267944804e-01,4.16850e-17,9.99999e-01,9.99999e-01,4.16850e-17,9.99999e-01
4.289284528e-01,8.78063e-17,9.99999e-01,9.99999e-01,8.78063e-17,9.99999e-01
4.310730950e-01,1.82256e-16,9.99999e-01,9.99999e-01,1.82256e-16,9.99999e-01
4.332284605e-01,3.72882e-16,9.99999e-01,9.99999e-01,3.72882e-16,9.99999e-01
4.353946028e-01,7.52179e-16,9.99999e-01,9.99999e-01,7.52179e-16,9.99999e-01
4.375715758e-01,1.49641e-15,9.99999e-01,9.99999e-01,1.49641e-15,9.99999e-01
4.397594337e-01,2.93684e-15,9.99999e-01,9.99999e-01,2.93684e-15,9.99999e-01
4.419582309e-01,5.68756e-15,9.99999e-01,9.99999e-01,5.68756e-15,9.99999e-01
4.441680220e-01,1.08718e-14,9.99999e-01,9.99999e-01,1.08718e-14,9.99999e-01
4.463888621e-01,2.05173e-14,9.99999e-01,9.99999e-01,2.05173e-14,9.99999e-01
4.486208064e-01,3.82374e-14,9.99999e-01,9.99999e-01,3.82374e-14,9.99999e-01
4.508639105e-01,7.03911e-14,9.99999e-01,9.99999e-01,7.03911e-14,9.99999e-01
4.531182300e-01,1.28030e-13,9.99999e-01,9.99999e-01,1.28030e-13,9.99999e-01
4.553838212e-01,2.30131e-13,9.99999e-01,9.99999e-01,2.30131e-13,9.99999e-01
4.576607403e-01,4.08890e-13,9.99999e-01,9.99999e-01,4.08890e-13,9.99999e-01
4.599490440e-01,7.18304e-13,9.99999e-01,9.99999e-01,7.18304e-13,9.99999e-01
4.622487892e-01,1.24789e-12,9.99999e-01,9.99999e-01,1.24789e-12,9.99999e-01
4.645600332e-01,2.14440e-12,9.99999e-01,9.99999e-01,2.14440e-12,9.99999e-01
4.668828333e-01,3.64579e-12,9.99999e-01,9.99999e-01,3.64579e-12,9.99999e-01
4.692172475e-01,6.13373e-12,9.99999e-01,9.99999e-01,6.13373e-12,9.99999e-01
4.715633337e-01,1.02140e-11,9.99999e-01,9.99999e-01,1.02140e-11,9.99999e-01
4.739211504e-01,1.68380e-11,9.99999e-01,9.99999e-01,1.68380e-11,9.99999e-01
4.762907561e-01,2.74851e-11,9.99999e-01,9.99999e-01,2.74851e-11,9.99999e-01
4.786722099e-01,4.44326e-11,9.99999e-01,9.99999e-01,4.44326e-11,9.99999e-01
4.810655710e-01,7.11518e-11,9.99999e-01,9.99999e-01,7.11518e-11,9.99999e-01
4.834708988e-01,1.12883e-10,9.99999e-01,9.99999e-01,1.12883e-10,9.99999e-01
4.858882533e-01,1.77466e-10,9.99999e-01,9.99999e-01,1.77466e-10,9.99999e-01
4.883176946e-01,2.76515e-10,9.99999e-01,9.99999e-01,2.76515e-10,9.99999e-01
4.907592831e-01,4.27090e-10,9.99999e-01,9.99999e-01,4.27090e-10,9.99999e-01
4.932130795e-01,6.54018e-10,9.99999e-01,9.99999e-01,6.54018e-10,9.99999e-01
4.956791449e-01,9.93126e-10,9.99999e-01,9.99999e-01,9.93126e-10,9.99999e-01
4.981575406e-01,1.49567e-09,9.99999e-01,9.99999e-01,1.49567e-09,9.99999e-01
5.006483283e-01,2.23437e-09,9.99999e-01,9.99999e-01,2.23437e-09,9.99999e-01
5.031515699e-01,3.31154e-09,9.99999e-01,9.99999e-01,3.31154e-09,9.99999e-01
5.056673278e-01,4.87002e-09,9.99999e-01,9.99999e-01,4.87002e-09,9.99999e-01
5.081956644e-01,7.10759e-09,9.99999e-01,9.99999e-01,7.10759e-09,9.99999e-01
5.107366428e-01,1.02961e-08,9.99999e-01,9.99999e-01,1.02961e-08,9.99999e-01
5.132903260e-01,1.48061e-08,9.99999e-01,9.99999e-01,1.48061e-08,9.99999e-01
5.158567776e-01,2.11395e-08,9.99999e-01,9.99999e-01,2.11395e-08,9.99999e-01
5.184360615e-01,2.99704e-08,9.99999e-01,9.99999e-01,2.99704e-08,9.99999e-01
5.210282418e-01,4.21984e-08,9.99999e-01,9.99999e-01,4.21984e-08,9.99999e-01
5.236333830e-01,5.90154e-08,9.99999e-01,9.99999e-01,5.90154e-08,9.99999e-01
5.262515499e-01,8.19892e-08,9.99999e-01,9.99999e-01,8.19892e-08,9.99999e-01
5.288828077e-01,1.13169e-07,9.99999e-01,9.99999e-01,1.13169e-07,9.99999e-01
5.315272217e-01,1.55215e-07,9.99999e-01,9.99999e-01,1.55215e-07,9.99999e-01
5.341848578e-01,2.11558e-07,9.99999e-01,9.99999e-01,2.11558e-07,9.99999e-01
5.368557821e-01,2.86595e-07,9.99999e-01,9.99999e-01,2.86595e-07,9.99999e-01
5.395400610e-01,3.85926e-07,9.99999e-01,9.99999e-01,3.85926e-07,9.99999e-01
5.422377613e-01,5.16638e-07,9.99999e-01,9.99999e-01,5.16638e-07,9.99999e-01
5.449489501e-01,6.87648e-07,9.99999e-01,9.99999e-01,6.87648e-07,9.99999e-01
5.476736949e-01,9.10109e-07,9.99999e-01,9.99999e-01,9.10109e-07,9.99999e-01
5.504120634e-01,1.19789e-06,9.99999e-01,9.99999e-01,1.19789e-06,9.99999e-01
5.531641237e-01,1.56813e-06,9.99999e-01,9.99999e-01,1.56813e-06,9.99999e-01
5.559299443e-01,2.04192e-06,9.99999e-01,9.99999e-01,2.04192e-06,9.99999e-01
5.587095940e-01,2.64502e-06,9.99999e-01,9.99999e-01,2.64502e-06,9.99999e-01
5.615031420e-01,3.40879e-06,9.99999e-01,9.99999e-01,3.40879e-06,9.99999e-01
5.643106577e-01,4.37114e-06,9.99999e-01,9.99999e-01,4.37114e-06,9.99999e-01
5.671322110e-01,5.57771e-06,9.99999e-01,9.99999e-01,5.57771e-06,9.99999e-01
5.699678720e-01,7.08315e-06,9.99999e-01,9.99999e-01,7.08315e-06,9.99999e-01
5.728177114e-01,8.95256e-06,9.99999e-01,9.99999e-01,8.95256e-06,9.99999e-01
5.756818000e-01,1.12631e-05,9.99999e-01,9.99999e-01,1.12631e-05,9.99999e-01
5.785602090e-01,1.41059e-05,9.99999e-01,9.99999e-01,1.41059e-05,9.99999e-01
5.814530100e-01,1.75878e-05,9.99999e-01,9.99999e-01,1.75878e-05,9.99999e-01
5.843602750e-01,2.18339e-05,9.99999e-01,9.99999e-01,2.18339e-05,9.99999e-01
5.872820764e-01,2.69895e-05,9.99999e-01,9.99999e-01,2.69895e-05,9.99999e-01
5.902184868e-01,3.32231e-05,9.99999e-01,9.99999e-01,3.32231e-05,9.99999e-01
5.931695792e-01,4.07289e-05,9.99999e-01,9.99999e-01,4.07289e-05,9.99999e-01
5.961354271e-01,4.97299e-05,9.99999e-01,9.99999e-01,4.97299e-05,9.99999e-01
5.991161043e-01,6.04812e-05,9.99999e-01,9.99999e-01,6.04812e-05,9.99999e-01
6.021116848e-01,7.32730e-05,9.99999e-01,9.99999e-01,7.32730e-05,9.99999e-01
6.051222432e-01,8.84344e-05,9.99999e-01,9.99999e-01,8.84344e-05,9.99999e-01
6.081478544e-01,1.06337e-04,9.99999e-01,9.99999e-01,1.06337e-04,9.99999e-01
6.111885937e-01,1.27400e-04,9.99999e-01,9.99999e-01,1.27400e-04,9.99999e-01
6.142445367e-01,1.52090e-04,9.99999e-01,9.99999e-01,1.52090e-04,9.99999e-01
6.173157594e-01,1.80931e-04,9.99999e-01,9.99999e-01,1.80931e-04,9.99999e-01
6.204023382e-01,2.14505e-04,9.99999e-01,9.99999e-01,2.14505e-04,9.99999e-01
6.235043498e-01,2.53455e-04,9.99999e-01,9.99999e-01,2.53455e-04,9.99999e-01
6.266218716e-01,2.98492e-04,9.99999e-01,9.99999e-01,2.98492e-04,9.99999e-01
6.297549810e-01,3.50398e-04,9.99999e-01,9.99999e-01,3.50398e-04,9.99999e-01
6.329037559e-01,4.10029e-04,9.99999e-01,9.99999e-01,4.10029e-04,9.99999e-01
6.360682746e-01,4.78322e-04,9.99999e-01,9.99999e-01,4.78322e-04,9.99999e-01
6.392486160e-01,5.56293e-04,9.99999e-01,9.99999e-01,5.56293e-04,9.99999e-01
6.424448591e-01,6.45048e-04,9.99999e-01,9.99999e-01,6.45048e-04,9.99999e-01
6.456570834e-01,7.45779e-04,9.99999e-01,9.99999e-01,7.45779e-04,9.99999e-01
6.488853688e-01,8.59774e-04,9.99999e-01,9.99999e-01,8.59774e-04,9.99999e-01
6.521297956e-01,9.88411e-04,9.99999e-01,9.99999e-01,9.88411e-04,9.99999e-01
6.553904446e-01,1.13317e-03,9.99999e-01,9.99999e-01,1.13317e-03,9.99999e-01
6.586673968e-01,1.29563e-03,9.99999e-01,9.99999e-01,1.29563e-03,9.99999e-01
6.619607338e-01,1.47746e-03,9.99999e-01,9.99999e-01,1.47746e-03,9.99999e-01
6.652705375e-01,1.68045e-03,9.99999e-01,9.99999e-01,1.68045e-03,9.99999e-01
6.685968902e-01,1.90647e-03,9.99999e-01,9.99999e-01,1.90647e-03,9.99999e-01
6.719398746e-01,2.15750e-03,9.99999e-01,9.99999e-01,2.15750e-03,9.99999e-01
6.752995740e-01,2.43564e-03,9.99999e-01,9.99999e-01,2.43564e-03,9.99999e-01
6.786760719e-01,2.74305e-03,9.99999e-01,9.99999e-01,2.74305e-03,9.99999e-01
6.820694522e-01,3.08202e-03,9.99999e-01,9.99999e-01,3.08202e-03,9.99999e-01
6.854797995e-01,3.45491e-03,9.99999e-01,9.99999e-01,3.45491e-03,9.99999e-01
6.889071985e-01,3.86419e-03,9.99999e-01,9.99999e-01,3.86419e-03,9.99999e-01
6.923517345e-01,4.31241e-03,9.99999e-01,9.99999e-01,4.31241e-03,9.99999e-01
6.958134932e-01,4.80220e-03,9.99999e-01,9.99999e-01,4.80220e-03,9.99999e-01
6.992925606e-01,5.33627e-03,9.99999e-01,9.99999e-01,5.33627e-03,9.99999e-01
7.027890234e-01,5.91739e-03,9.99999e-01,9.99999e-01,5.91739e-03,9.99999e-01
7.063029686e-01,6.54841e-03,9.99999e-01,9.99999e-01,6.54841e-03,9.99999e-01
7.098344834e-01,7.23224e-03,9.99999e-01,9.99999e-01,7.23224e-03,9.99999e-01
7.133836558e-01,7.97182e-03,9.99999e-01,9.99999e-01,7.97182e-03,9.99999e-01
7.169505741e-01,8.77015e-03,9.99999e-01,9.99999e-01,8.77015e-03,9.99999e-01
7.205353270e-01,9.63025e-03,9.99999e-01,9.99999e-01,9.63025e-03,9.99999e-01
7.241380036e-01,1.05552e-02,9.99999e-01,9.99999e-01,1.05552e-02,9.99999e-01
7.277586936e-01,1.15480e-02,9.99999e-01,9.99999e-01,1.15480e-02,9.99999e-01
7.313974871e-01,1.26118e-02,9.99999e-01,9.99999e-01,1.26118e-02,9.99999e-01
7.350544745e-01,1.37497e-02,9.99999e-01,9.99999e-01,1.37497e-02,9.99999e-01
7.387297469e-01,1.49646e-02,9.99999e-01,9.99999e-01,1.49646e-02,9.99999e-01
7.424233956e-01,1.62597e-02,9.99999e-01,9.99999e-01,1.62597e-02,9.99999e-01
7.461355126e-01,1.76379e-02,9.99999e-01,9.99999e-01,1.76379e-02,9.99999e-01
7.498661902e-01,1.91022e-02,9.99999e-01,9.99999e-01,1.91022e-02,9.99999e-01
7.536155211e-01,2.06556e-02,9.99999e-01,9.99999e-01,2.06556e-02,9.99999e-01
7.573835987e-01,2.23007e-02,9.99999e-01,9.99999e-01,2.23007e-02,9.99999e-01
7.611705167e-01,2.40405e-02,9.99999e-01,9.99999e-01,2.40405e-02,9.99999e-01
7.649763693e-01,2.58776e-02,9.99999e-01,9.99999e-01,2.58776e-02,9.99999e-01
7.688012511e-01,2.78146e-02,9.99999e-01,9.99999e-01,2.78146e-02,9.99999e-01
7.726452574e-01,2.98540e-02,9.99999e-01,9.99999e-01,2.98540e-02,9.99999e-01
7.765084837e-01,3.19982e-02,9.99999e-01,9.99999e-01,3.19982e-02,9.99999e-01
7.803910261e-01,3.04684e-02,9.99999e-01,8.89604e-01,3.42494e-02,9.99999e-01
7.842929812e-01,1.92059e-02,9.99999e-01,5.24610e-01,3.66097e-02,9.99999e-01
7.882144461e-01,1.99939e-02,9.99999e-01,5.11598e-01,3.90813e-02,9.99999e-01
7.921555184e-01,2.72590e-02,9.99999e-01,6.54226e-01,4.16659e-02,9.99999e-01
7.961162960e-01,3.31411e-02,9.99999e-01,7.47004e-01,4.43654e-02,9.99999e-01
8.000968774e-01,4.02720e-02,9.99999e-01,8.53562e-01,4.71811e-02,9.99999e-01
8.040973618e-01,4.61366e-02,9.99999e-01,9.20620e-01,5.01146e-02,9.99999e-01
8.081178486e-01,5.11929e-02,9.99999e-01,9.62866e-01,5.31672e-02,9.99999e-01
8.121584379e-01,5.56788e-02,9.99999e-01,9.88266e-01,5.63398e-02,9.99999e-01
8.162192301e-01,5.94781e-02,9.99999e-01,9.97394e-01,5.96334e-02,9.99999e-01
8.203003262e-01,6.30460e-02,9.99999e-01,9.99955e-01,6.30488e-02,9.99999e-01
8.244018279e-01,6.65865e-02,9.99999e-01,9.99999e-01,6.65865e-02,9.99999e-01
8.285238370e-01,7.02469e-02,9.99999e-01,9.99999e-01,7.02469e-02,9.99999e-01
8.326664562e-01,7.40302e-02,9.99999e-01,9.99999e-01,7.40302e-02,9.99999e-01
8.368297885e-01,7.79365e-02,9.99999e-01,9.99999e-01,7.79365e-02,9.99999e-01
8.410139374e-01,8.19657e-02,9.99999e-01,9.99999e-01,8.19657e-02,9.99999e-01
8.452190071e-01,8.61173e-02,9.99999e-01,9.99999e-01,8.61173e-02,9.99999e-01
8.494451021e-01,9.03910e-02,9.99999e-01,9.99999e-01,9.03910e-02,9.99999e-01
8.536923276e-01,9.47860e-02,9.99999e-01,9.99999e-01,9.47860e-02,9.99999e-01
8.579607893e-01,9.93015e-02,9.99999e-01,9.99999e-01,9.93015e-02,9.99999e-01
8.622505932e-01,1.03937e-01,9.99999e-01,9.99999e-01,1.03937e-01,9.99999e-01
8.665618462e-01,9.26274e-02,9.99999e-01,8.52215e-01,1.08690e-01,9.99999e-01
8.708946554e-01,2.41238e-02,9.99999e-01,2.12431e-01,1.13561e-01,9.99999e-01
8.752491287e-01,3.14740e-02,9.99999e-01,2.65499e-01,1.18547e-01,9.99999e-01
8.796253743e-01,5.81729e-02,9.99999e-01,4.70477e-01,1.23647e-01,9.99999e-01
8.840235012e-01,8.61637e-02,9.99999e-01,6.68668e-01,1.28859e-01,9.99999e-01
8.884436187e-01,1.14186e-01,9.99999e-01,8.50982e-01,1.34181e-01,9.99999e-01
8.928858368e-01,1.30769e-01,9.99999e-01,9.36660e-01,1.39612e-01,9.99999e-01
8.973502660e-01,1.42840e-01,9.99999e-01,9.84099e-01,1.45148e-01,9.99999e-01
9.018370173e-01,1.50521e-01,9.99999e-01,9.98230e-01,1.50788e-01,9.99999e-01
9.063462024e-01,1.50052e-01,9.99999e-01,9.58614e-01,1.56530e-01,9.99999e-01
9.108779334e-01,1.46524e-01,9.99999e-01,9.02407e-01,1.62370e-01,9.99999e-01
9.154323231e-01,1.64247e-01,9.99999e-01,9.75883e-01,1.68306e-01,9.99999e-01
9.200094847e-01,1.32375e-01,9.99999e-01,7.59311e-01,1.74336e-01,9.99999e-01
9.246095321e-01,1.09815e-01,9.99999e-01,6.08541e-01,1.80456e-01,9.99999e-01
9.292325798e-01,1.28373e-01,9.99999e-01,6.87721e-01,1.86663e-01,9.99999e-01
9.338787427e-01,1.32979e-01,9.99999e-01,6.89167e-01,1.92956e-01,9.99999e-01
9.385481364e-01,1.51066e-01,9.99999e-01,7.57871e-01,1.99330e-01,9.99999e-01
9.432408771e-01,1.73239e-01,9.99999e-01,8.41859e-01,2.05782e-01,9.99999e-01
9.479570815e-01,1.94400e-01,9.99999e-01,9.15643e-01,2.12309e-01,9.99999e-01
9.526968669e-01,2.09796e-01,9.99999e-01,9.58373e-01,2.18909e-01,9.99999e-01
9.574603512e-01,2.21503e-01,9.99999e-01,9.81939e-01,2.25577e-01,9.99999e-01
9.622476530e-01,2.30991e-01,9.99999e-01,9.94322e-01,2.32310e-01,9.99999e-01
9.670588912e-01,2.38697e-01,9.99999e-01,9.98290e-01,2.39106e-01,9.99999e-01
9.718941857e-01,2.45930e-01,9.99999e-01,9.99876e-01,2.45960e-01,9.99999e-01
9.767536566e-01,2.52869e-01,9.99999e-01,9.99999e-01,2.52869e-01,9.99999e-01
9.816374249e-01,2.59831e-01,9.99999e-01,9.99999e-01,2.59831e-01,9.99999e-01
9.865456120e-01,2.66841e-01,9.99999e-01,9.99999e-01,2.66841e-01,9.99999e-01
9.914783401e-01,2.73895e-01,9.99999e-01,9.99999e-01,2.73895e-01,9.99999e-01
9.964357318e-01,2.80992e-01,9.99999e-01,9.99999e-01,2.80992e-01,9.99999e-01
1.001417910e+00,2.88127e-01,9.99999e-01,9.99999e-01,2.88127e-01,9.99999e-01
1.006425000e+00,2.95296e-01,9.99999e-01,9.99999e-01,2.95296e-01,9.99999e-01
1.011457125e+00,3.02498e-01,9.99999e-01,9.99999e-01,3.02498e-01,9.99999e-01
1.016514411e+00,3.09727e-01,9.99999e-01,9.99999e-01,3.09727e-01,9.99999e-01
1.021596983e+00,3.16916e-01,9.99999e-01,9.99793e-01,3.16981e-01,9.99999e-01
1.026704968e+00,3.18854e-01,9.99999e-01,9.83337e-01,3.24257e-01,9.99999e-01
1.031838492e+00,2.93008e-01,9.99999e-01,8.83749e-01,3.31551e-01,9.99999e-01
1.036997685e+00,1.08948e-02,9.99999e-01,3.21513e-02,3.38860e-01,9.99999e-01
1.042182673e+00,1.83252e-04,9.99999e-01,5.29351e-04,3.46181e-01,9.99999e-01
1.047393587e+00,5.55501e-04,9.99999e-01,1.57138e-03,3.53512e-01,9.99999e-01
1.052630555e+00,2.15503e-09,9.99999e-01,5.97212e-09,3.60848e-01,9.99999e-01
1.057893707e+00,7.88088e-09,9.99999e-01,2.14046e-08,3.68186e-01,9.99999e-01
1.063183176e+00,1.03515e-06,9.99999e-01,2.75653e-06,3.75525e-01,9.99999e-01
1.068499092e+00,1.95255e-05,9.99999e-01,5.09989e-05,3.82861e-01,9.99999e-01
1.073841587e+00,5.98888e-04,9.99999e-01,1.53486e-03,3.90191e-01,9.99999e-01
1.079210795e+00,7.04434e-03,9.99999e-01,1.77211e-02,3.97512e-01,9.99999e-01
1.084606849e+00,3.92577e-02,9.99999e-01,9.69752e-02,4.04822e-01,9.99999e-01
1.090029883e+00,1.20752e-01,9.99999e-01,2.93004e-01,4.12118e-01,9.99999e-01
1.095480033e+00,2.27892e-01,9.99999e-01,5.43380e-01,4.19397e-01,9.99999e-01
1.100957433e+00,3.17149e-01,9.99999e-01,7.43333e-01,4.26658e-01,9.99999e-01
1.106462220e+00,3.83608e-01,9.99999e-01,8.84099e-01,4.33897e-01,9.99999e-01
1.111994531e+00,4.21381e-01,9.99999e-01,9.55269e-01,4.41112e-01,9.99999e-01
1.117554504e+00,4.43294e-01,9.99999e-01,9.88828e-01,4.48302e-01,9.99999e-01
1.123142276e+00,4.55124e-01,9.99999e-01,9.99257e-01,4.55462e-01,9.99999e-01
1.128757988e+00,4.62593e-01,9.99999e-01,9.99999e-01,4.62593e-01,9.99999e-01
1.134401778e+00,4.69691e-01,9.99999e-01,9.99999e-01,4.69691e-01,9.99999e-01
1.140073787e+00,4.76754e-01,9.99999e-01,9.99999e-01,4.76754e-01,9.99999e-01
1.145774156e+00,4.83781e-01,9.99999e-01,9.99999e-01,4.83781e-01,9.99999e-01
1.151503026e+00,4.90770e-01,9.99999e-01,9.99999e-01,4.90770e-01,9.99999e-01
1.157260541e+00,4.97719e-01,9.99999e-01,9.99999e-01,4.97719e-01,9.99999e-01
1.163046844e+00,5.04626e-01,9.99999e-01,9.99999e-01,5.04626e-01,9.99999e-01
1.168862078e+00,5.11489e-01,9.99999e-01,9.99999e-01,5.11489e-01,9.99999e-01
1.174706389e+00,5.18308e-01,9.99999e-01,9.99999e-01,5.18308e-01,9.99999e-01
1.180579921e+00,5.25080e-01,9.99999e-01,9.99999e-01,5.25080e-01,9.99999e-01
1.186482820e+00,5.31793e-01,9.99999e-01,9.99979e-01,5.31804e-01,9.99999e-01
1.192415234e+00,5.08991e-01,9.99999e-01,9.45239e-01,5.38479e-01,9.99999e-01
1.198377311e+00,2.68619e-01,9.99999e-01,4.92786e-01,5.45103e-01,9.99999e-01
1.204369197e+00,6.85001e-44,9.99999e-01,1.24167e-43,5.51676e-01,9.99999e-01
1.210391043e+00,3.67643e-181,9.99999e-01,6.58627e-181,5.58195e-01,9.99999e-01
1.216442998e+00,1.29991e-156,9.99999e-01,2.30210e-156,5.64661e-01,9.99999e-01
1.222525213e+00,3.01964e-154,9.99999e-01,5.28767e-154,5.71072e-01,9.99999e-01
1.228637839e+00,9.39063e-119,9.99999e-01,1.62629e-118,5.77426e-01,9.99999e-01
1.234781029e+00,1.93936e-73,9.99999e-01,3.32239e-73,5.83724e-01,9.99999e-01
1.240954934e+00,2.01626e-48,9.99999e-01,3.41759e-48,5.89964e-01,9.99999e-01
1.247159708e+00,1.21317e-30,9.99999e-01,2.03502e-30,5.96145e-01,9.99999e-01
1.253395507e+00,1.70359e-15,9.99999e-01,2.82862e-15,6.02268e-01,9.99999e-01
1.259662485e+00,1.66095e-09,9.99999e-01,2.73034e-09,6.08330e-01,9.99999e-01
1.265960797e+00,2.80401e-05,9.99999e-01,4.56432e-05,6.14332e-01,9.99999e-01
1.272290601e+00,3.45187e-03,9.99999e-01,5.56508e-03,6.20273e-01,9.99999e-01
1.278652054e+00,5.04679e-03,9.99999e-01,8.06000e-03,6.26152e-01,9.99999e-01
1.285045314e+00,7.66883e-07,9.99999e-01,1.21348e-06,6.31969e-01,9.99999e-01
1.291470541e+00,1.10180e-20,9.99999e-01,1.72771e-20,6.37723e-01,9.99999e-01
1.297927893e+00,2.05826e-08,9.99999e-01,3.19895e-08,6.43415e-01,9.99999e-01
1.304417533e+00,7.85899e-05,9.99999e-01,1.21086e-04,6.49044e-01,9.99999e-01
1.310939621e+00,2.44854e-05,9.99999e-01,3.74045e-05,6.54609e-01,9.99999e-01
1.317494319e+00,6.87243e-61,9.99999e-01,1.04110e-60,6.60111e-01,9.99999e-01
1.324081790e+00,1.44676e-39,9.99999e-01,2.17378e-39,6.65549e-01,9.99999e-01
1.330702199e+00,1.53730e-23,9.99999e-01,2.29131e-23,6.70923e-01,9.99999e-01
1.337355710e+00,2.89870e-21,9.99999e-01,4.28653e-21,6.76233e-01,9.99999e-01
1.344042489e+00,1.88280e-21,9.99999e-01,2.76281e-21,6.81479e-01,9.99999e-01
1.350762701e+00,6.73400e-24,9.99999e-01,9.80687e-24,6.86660e-01,9.99999e-01
1.357516515e+00,4.08810e-14,9.99999e-01,5.90955e-14,6.91778e-01,9.99999e-01
1.364304097e+00,1.63681e-10,9.99999e-01,2.34892e-10,6.96831e-01,9.99999e-01
1.371125618e+00,9.01070e-06,9.99999e-01,1.28390e-05,7.01821e-01,9.99999e-01
1.377981246e+00,3.80052e-05,9.99999e-01,5.37747e-05,7.06747e-01,9.99999e-01
1.384871152e+00,2.22379e-03,9.99999e-01,3.12502e-03,7.11609e-01,9.99999e-01
1.391795508e+00,3.62479e-03,9.99999e-01,5.05968e-03,7.16407e-01,9.99999e-01
1.398754485e+00,2.42461e-02,9.99999e-01,3.36218e-02,7.21142e-01,9.99999e-01
1.405748258e+00,6.22836e-02,9.99999e-01,8.58120e-02,7.25814e-01,9.99999e-01
1.412776999e+00,1.51438e-01,9.99999e-01,2.07328e-01,7.30423e-01,9.99999e-01
1.419840884e+00,1.57000e-01,9.99998e-01,2.13615e-01,7.34969e-01,9.99999e-01
1.426940089e+00,4.29538e-03,9.99998e-01,5.80886e-03,7.39453e-01,9.99999e-01
1.434074789e+00,0.00000e+00,9.99998e-01,0.00000e+00,7.43875e-01,9.99999e-01
1.441245163e+00,0.00000e+00,9.99999e-01,0.00000e+00,7.48235e-01,9.99999e-01
1.448451389e+00,0.00000e+00,9.99998e-01,0.00000e+00,7.52534e-01,9.99999e-01
1.455693646e+00,0.00000e+00,9.99999e-01,0.00000e+00,7.56772e-01,9.99999e-01
1.462972114e+00,0.00000e+00,9.99999e-01,0.00000e+00,7.60949e-01,9.99999e-01
1.470286975e+00,5.31054e-301,9.99999e-01,6.94127e-301,7.65066e-01,9.99999e-01
