#,Wave/freq,Total,N2,CO2,Rayleigh,CIA
4.000000000e-01,1.65901e-03,9.99999e-01,9.99999e-01,1.65901e-03,9.99999e-01
4.020000000e-01,1.88286e-03,9.99999e-01,9.99999e-01,1.88286e-03,9.99999e-01
4.040100000e-01,2.13132e-03,9.99999e-01,9.99999e-01,2.13132e-03,9.99999e-01
4.060300500e-01,2.40665e-03,9.99999e-01,9.99999e-01,2.40665e-03,9.99999e-01
4.080602003e-01,2.71105e-03,9.99999e-01,9.99999e-01,2.71105e-03,9.99999e-01
4.101005013e-01,3.04677e-03,9.99999e-01,9.99999e-01,3.04677e-03,9.99999e-01
4.121510038e-01,3.41617e-03,9.99999e-01,9.99999e-01,3.41617e-03,9.99999e-01
4.142117588e-01,3.82171e-03,9.99999e-01,9.99999e-01,3.82171e-03,9.99999e-01
4.162828176e-01,4.26594e-03,9.99999e-01,9.99999e-01,4.26594e-03,9.99999e-01
4.183642317e-01,4.75147e-03,9.99999e-01,9.99999e-01,4.75147e-03,9.99999e-01
4.204560528e-01,5.28100e-03,9.99999e-01,9.99999e-01,5.28100e-03,9.99999e-01
4.225583331e-01,5.85731e-03,9.99999e-01,9.99999e-01,5.85731e-03,9.99999e-01
4.246711247e-01,6.48323e-03,9.99999e-01,9.99999e-01,6.48323e-03,9.99999e-01
4.267944804e-01,7.16166e-03,9.99999e-01,9.99999e-01,7.16166e-03,9.99999e-01
4.289284528e-01,7.89556e-03,9.99999e-01,9.99999e-01,7.89556e-03,9.99999e-01
4.310730950e-01,8.68790e-03,9.99999e-01,9.99999e-01,8.68790e-03,9.99999e-01
4.332284605e-01,9.54171e-03,9.99999e-01,9.99999e-01,9.54171e-03,9.99999e-01
4.353946028e-01,1.04600e-02,9.99999e-01,9.99999e-01,1.04600e-02,9.99999e-01
4.375715758e-01,1.14460e-02,9.99999e-01,9.99999e-01,1.14460e-02,9.99999e-01
4.397594337e-01,1.25026e-02,9.99999e-01,9.99999e-01,1.25026e-02,9.99999e-01
4.419582309e-01,1.36329e-02,9.99999e-01,9.99999e-01,1.36329e-02,9.99999e-01
4.441680220e-01,1.48400e-02,9.99999e-01,9.99999e-01,1.48400e-02,9.99999e-01
4.463888621e-01,1.61270e-02,9.99999e-01,9.99999e-01,1.61270e-02,9.99999e-01
4.486208064e-01,1.74968e-02,9.99999e-01,9.99999e-01,1.74968e-02,9.99999e-01
4.508639105e-01,1.89524e-02,9.99999e-01,9.99999e-01,1.89524e-02,9.99999e-01
4.531182300e-01,2.04967e-02,9.99999e-01,9.99999e-01,2.04967e-02,9.99999e-01
4.553838212e-01,2.21326e-02,9.99999e-01,9.99999e-01,2.21326e-02,9.99999e-01
4.576607403e-01,2.38629e-02,9.99999e-01,9.99999e-01,2.38629e-02,9.99999e-01
4.599490440e-01,2.56902e-02,9.99999e-01,9.99999e-01,2.56902e-02,9.99999e-01
4.622487892e-01,2.76171e-02,9.99999e-01,9.99999e-01,2.76171e-02,9.99999e-01
4.645600332e-01,2.96462e-02,9.99999e-01,9.99999e-01,2.96462e-02,9.99999e-01
4.668828333e-01,3.17798e-02,9.99999e-01,9.99999e-01,3.17798e-02,9.99999e-01
4.692172475e-01,3.40202e-02,9.99999e-01,9.99999e-01,3.40202e-02,9.99999e-01
4.715633337e-01,3.63696e-02,9.99999e-01,9.99999e-01,3.63696e-02,9.99999e-01
4.739211504e-01,3.88300e-02,9.99999e-01,9.99999e-01,3.88300e-02,9.99999e-01
4.762907561e-01,4.14033e-02,9.99999e-01,9.99999e-01,4.14033e-02,9.99999e-01
4.786722099e-01,4.40912e-02,9.99999e-01,9.99999e-01,4.40912e-02,9.99999e-01
4.810655710e-01,4.68953e-02,9.99999e-01,9.99999e-01,4.68953e-02,9.99999e-01
4.834708988e-01,4.98171e-02,9.99999e-01,9.99999e-01,4.98171e-02,9.99999e-01
4.858882533e-01,5.28577e-02,9.99999e-01,9.99999e-01,5.28577e-02,9.99999e-01
4.883176946e-01,5.60183e-02,9.99999e-01,9.99999e-01,5.60183e-02,9.99999e-01
4.907592831e-01,5.92998e-02,9.99999e-01,9.99999e-01,5.92998e-02,9.99999e-01
4.932130795e-01,6.27031e-02,9.99999e-01,9.99999e-01,6.27031e-02,9.99999e-01
4.956791449e-01,6.62286e-02,9.99999e-01,9.99999e-01,6.62286e-02,9.99999e-01
4.981575406e-01,6.98767e-02,9.99999e-01,9.99999e-01,6.98767e-02,9.99999e-01
5.006483283e-01,7.36478e-02,9.99999e-01,9.99999e-01,7.36478e-02,9.99999e-01
5.031515699e-01,7.75419e-02,9.99999e-01,9.99999e-01,7.75419e-02,9.99999e-01
5.056673278e-01,8.15588e-02,9.99999e-01,9.99999e-01,8.15588e-02,9.99999e-01
5.081956644e-01,8.56982e-02,9.99999e-01,9.99999e-01,8.56982e-02,9.99999e-01
5.107366428e-01,8.99597e-02,9.99999e-01,9.99999e-01,8.99597e-02,9.99999e-01
5.132903260e-01,9.43427e-02,9.99999e-01,9.99999e-01,9.43427e-02,9.99999e-01
5.158567776e-01,9.88463e-02,9.99999e-01,9.99999e-01,9.88463e-02,9.99999e-01
5.184360615e-01,1.03470e-01,9.99999e-01,9.99999e-01,1.03470e-01,9.99999e-01
5.210282418e-01,1.08211e-01,9.99999e-01,9.99999e-01,1.08211e-01,9.99999e-01
5.236333830e-01,1.13070e-01,9.99999e-01,9.99999e-01,1.13070e-01,9.99999e-01
5.262515499e-01,1.18045e-01,9.99999e-01,9.99999e-01,1.18045e-01,9.99999e-01
5.288828077e-01,1.23133e-01,9.99999e-01,9.99999e-01,1.23133e-01,9.99999e-01
5.315272217e-01,1.28334e-01,9.99999e-01,9.99999e-01,1.28334e-01,9.99999e-01
5.341848578e-01,1.33646e-01,9.99999e-01,9.99999e-01,1.33646e-01,9.99999e-01
5.368557821e-01,1.39066e-01,9.99999e-01,9.99999e-01,1.39066e-01,9.99999e-01
5.395400610e-01,1.44592e-01,9.99999e-01,9.99999e-01,1.44592e-01,9.99999e-01
5.422377613e-01,1.50222e-01,9.99999e-01,9.99999e-01,1.50222e-01,9.99999e-01
5.449489501e-01,1.55953e-01,9.99999e-01,9.99999e-01,1.55953e-01,9.99999e-01
5.476736949e-01,1.61784e-01,9.99999e-01,9.99999e-01,1.61784e-01,9.99999e-01
5.504120634e-01,1.67711e-01,9.99999e-01,9.99999e-01,1.67711e-01,9.99999e-01
5.531641237e-01,1.73731e-01,9.99999e-01,9.99999e-01,1.73731e-01,9.99999e-01
5.559299443e-01,1.79842e-01,9.99999e-01,9.99999e-01,1.79842e-01,9.99999e-01
5.587095940e-01,1.86041e-01,9.99999e-01,9.99999e-01,1.86041e-01,9.99999e-01
5.615031420e-01,1.92325e-01,9.99999e-01,9.99999e-01,1.92325e-01,9.99999e-01
5.643106577e-01,1.98691e-01,9.99999e-01,9.99999e-01,1.98691e-01,9.99999e-01
5.671322110e-01,2.05136e-01,9.99999e-01,9.99999e-01,2.05136e-01,9.99999e-01
5.699678720e-01,2.11656e-01,9.99999e-01,9.99999e-01,2.11656e-01,9.99999e-01
5.728177114e-01,2.18248e-01,9.99999e-01,9.99999e-01,2.18248e-01,9.99999e-01
5.756818000e-01,2.24909e-01,9.99999e-01,9.99999e-01,2.24909e-01,9.99999e-01
5.785602090e-01,2.31637e-01,9.99999e-01,9.99999e-01,2.31637e-01,9.99999e-01
5.814530100e-01,2.38426e-01,9.99999e-01,9.99999e-01,2.38426e-01,9.99999e-01
5.843602750e-01,2.45275e-01,9.99999e-01,9.99999e-01,2.45275e-01,9.99999e-01
5.872820764e-01,2.52179e-01,9.99999e-01,9.99999e-01,2.52179e-01,9.99999e-01
5.902184868e-01,2.59135e-01,9.99999e-01,9.99999e-01,2.59135e-01,9.99999e-01
5.931695792e-01,2.66140e-01,9.99999e-01,9.99999e-01,2.66140e-01,9.99999e-01
5.961354271e-01,2.73191e-01,9.99999e-01,9.99999e-01,2.73191e-01,9.99999e-01
5.991161043e-01,2.80283e-01,9.99999e-01,9.99999e-01,2.80283e-01,9.99999e-01
6.021116848e-01,2.87414e-01,9.99999e-01,9.99999e-01,2.87414e-01,9.99999e-01
6.051222432e-01,2.94581e-01,9.99999e-01,9.99999e-01,2.94581e-01,9.99999e-01
6.081478544e-01,3.01779e-01,9.99999e-01,9.99999e-01,3.01779e-01,9.99999e-01
6.111885937e-01,3.09005e-01,9.99999e-01,9.99999e-01,3.09005e-01,9.99999e-01
6.142445367e-01,3.16257e-01,9.99999e-01,9.99999e-01,3.16257e-01,9.99999e-01
6.173157594e-01,3.23531e-01,9.99999e-01,9.99999e-01,3.23531e-01,9.99999e-01
6.204023382e-01,3.30824e-01,9.99999e-01,9.99999e-01,3.30824e-01,9.99999e-01
6.235043498e-01,3.38131e-01,9.99999e-01,9.99999e-01,3.38131e-01,9.99999e-01
6.266218716e-01,3.45452e-01,9.99999e-01,9.99999e-01,3.45452e-01,9.99999e-01
6.297549810e-01,3.52781e-01,9.99999e-01,9.99999e-01,3.52781e-01,9.99999e-01
6.329037559e-01,3.60117e-01,9.99999e-01,9.99999e-01,3.60117e-01,9.99999e-01
6.360682746e-01,3.67455e-01,9.99999e-01,9.99999e-01,3.67455e-01,9.99999e-01
6.392486160e-01,3.74794e-01,9.99999e-01,9.99999e-01,3.74794e-01,9.99999e-01
6.424448591e-01,3.82130e-01,9.99999e-01,9.99999e-01,3.82130e-01,9.99999e-01
6.456570834e-01,3.89461e-01,9.99999e-01,9.99999e-01,3.89461e-01,9.99999e-01
6.488853688e-01,3.96783e-01,9.99999e-01,9.99999e-01,3.96783e-01,9.99999e-01
6.521297956e-01,4.04094e-01,9.99999e-01,9.99999e-01,4.04094e-01,9.99999e-01
6.553904446e-01,4.11392e-01,9.99999e-01,9.99999e-01,4.11392e-01,9.99999e-01
6.586673968e-01,4.18673e-01,9.99999e-01,9.99999e-01,4.18673e-01,9.99999e-01
6.619607338e-01,4.25936e-01,9.99999e-01,9.99999e-01,4.25936e-01,9.99999e-01
6.652705375e-01,4.33177e-01,9.99999e-01,9.99999e-01,4.33177e-01,9.99999e-01
6.685968902e-01,4.40395e-01,9.99999e-01,9.99999e-01,4.40395e-01,9.99999e-01
6.719398746e-01,4.47587e-01,9.99999e-01,9.99999e-01,4.47587e-01,9.99999e-01
6.752995740e-01,4.54750e-01,9.99999e-01,9.99999e-01,4.54750e-01,9.99999e-01
6.786760719e-01,4.61884e-01,9.99999e-01,9.99999e-01,4.61884e-01,9.99999e-01
6.820694522e-01,4.68985e-01,9.99999e-01,9.99999e-01,4.68985e-01,9.99999e-01
6.854797995e-01,4.76052e-01,9.99999e-01,9.99999e-01,4.76052e-01,9.99999e-01
6.889071985e-01,4.83083e-01,9.99999e-01,9.99999e-01,4.83083e-01,9.99999e-01
6.923517345e-01,4.90076e-01,9.99999e-01,9.99999e-01,4.90076e-01,9.99999e-01
6.958134932e-01,4.97028e-01,9.99999e-01,9.99999e-01,4.97028e-01,9.99999e-01
6.992925606e-01,5.03939e-01,9.99999e-01,9.99999e-01,5.03939e-01,9.99999e-01
7.027890234e-01,5.10807e-01,9.99999e-01,9.99999e-01,5.10807e-01,9.99999e-01
7.063029686e-01,5.17630e-01,9.99999e-01,9.99999e-01,5.17630e-01,9.99999e-01
7.098344834e-01,5.24407e-01,9.99999e-01,9.99999e-01,5.24407e-01,9.99999e-01
7.133836558e-01,5.31136e-01,9.99999e-01,9.99999e-01,5.31136e-01,9.99999e-01
7.169505741e-01,5.37816e-01,9.99999e-01,9.99999e-01,5.37816e-01,9.99999e-01
7.205353270e-01,5.44445e-01,9.99999e-01,9.99999e-01,5.44445e-01,9.99999e-01
7.241380036e-01,5.51023e-01,9.99999e-01,9.99999e-01,5.51023e-01,9.99999e-01
7.277586936e-01,5.57548e-01,9.99999e-01,9.99999e-01,5.57548e-01,9.99999e-01
7.313974871e-01,5.64019e-01,9.99999e-01,9.99999e-01,5.64019e-01,9.99999e-01
7.350544745e-01,5.70435e-01,9.99999e-01,9.99999e-01,5.70435e-01,9.99999e-01
7.387297469e-01,5.76796e-01,9.99999e-01,9.99999e-01,5.76796e-01,9.99999e-01
7.424233956e-01,5.83099e-01,9.99999e-01,9.99999e-01,5.83099e-01,9.99999e-01
7.461355126e-01,5.89345e-01,9.99999e-01,9.99999e-01,5.89345e-01,9.99999e-01
7.498661902e-01,5.95532e-01,9.99999e-01,9.99999e-01,5.95532e-01,9.99999e-01
7.536155211e-01,6.01660e-01,9.99999e-01,9.99999e-01,6.01660e-01,9.99999e-01
7.573835987e-01,6.07729e-01,9.99999e-01,9.99999e-01,6.07729e-01,9.99999e-01
7.611705167e-01,6.13737e-01,9.99999e-01,9.99999e-01,6.13737e-01,9.99999e-01
7.649763693e-01,6.19683e-01,9.99999e-01,9.99999e-01,6.19683e-01,9.99999e-01
7.688012511e-01,6.25569e-01,9.99999e-01,9.99999e-01,6.25569e-01,9.99999e-01
7.726452574e-01,6.31392e-01,9.99999e-01,9.99999e-01,6.31392e-01,9.99999e-01
7.765084837e-01,6.37153e-01,9.99999e-01,9.99999e-01,6.37153e-01,9.99999e-01
7.803910261e-01,6.28682e-01,9.99999e-01,9.77959e-01,6.42851e-01,9.99999e-01
7.842929812e-01,5.91157e-01,9.99999e-01,9.11594e-01,6.48486e-01,9.99999e-01
7.882144461e-01,5.91867e-01,9.99999e-01,9.04915e-01,6.54058e-01,9.99999e-01
7.921555184e-01,6.22648e-01,9.99999e-01,9.44026e-01,6.59566e-01,9.99999e-01
7.961162960e-01,6.40061e-01,9.99999e-01,9.62483e-01,6.65010e-01,9.99999e-01
8.000968774e-01,6.56624e-01,9.99999e-01,9.79463e-01,6.70390e-01,9.99999e-01
8.040973618e-01,6.68509e-01,9.99999e-01,9.89347e-01,6.75707e-01,9.99999e-01
8.081178486e-01,6.77611e-01,9.99999e-01,9.95082e-01,6.80959e-01,9.99999e-01
8.121584379e-01,6.85112e-01,9.99999e-01,9.98490e-01,6.86147e-01,9.99999e-01
8.162192301e-01,6.91041e-01,9.99999e-01,9.99666e-01,6.91271e-01,9.99999e-01
8.203003262e-01,6.96328e-01,9.99999e-01,9.99994e-01,6.96331e-01,9.99999e-01
8.244018279e-01,7.01327e-01,9.99999e-01,9.99999e-01,7.01327e-01,9.99999e-01
8.285238370e-01,7.06259e-01,9.99999e-01,9.99999e-01,7.06259e-01,9.99999e-01
8.326664562e-01,7.11127e-01,9.99999e-01,9.99999e-01,7.11127e-01,9.99999e-01
8.368297885e-01,7.15932e-01,9.99999e-01,9.99999e-01,7.15932e-01,9.99999e-01
8.410139374e-01,7.20673e-01,9.99999e-01,9.99999e-01,7.20673e-01,9.99999e-01
8.452190071e-01,7.25351e-01,9.99999e-01,9.99999e-01,7.25351e-01,9.99999e-01
8.494451021e-01,7.29966e-01,9.99999e-01,9.99999e-01,7.29966e-01,9.99999e-01
8.536923276e-01,7.34519e-01,9.99999e-01,9.99999e-01,7.34519e-01,9.99999e-01
8.579607893e-01,7.39009e-01,9.99999e-01,9.99999e-01,7.39009e-01,9.99999e-01
8.622505932e-01,7.43437e-01,9.99999e-01,9.99999e-01,7.43437e-01,9.99999e-01
8.665618462e-01,7.06421e-01,9.99999e-01,9.44661e-01,7.47803e-01,9.99999e-01
8.708946554e-01,5.92411e-01,9.99999e-01,7.87666e-01,7.52108e-01,9.99999e-01
8.752491287e-01,6.25542e-01,9.99999e-01,8.27051e-01,7.56352e-01,9.99999e-01
8.796253743e-01,6.85833e-01,9.99999e-01,9.01776e-01,7.60536e-01,9.99999e-01
8.840235012e-01,7.24896e-01,9.99999e-01,9.47998e-01,7.64659e-01,9.99999e-01
8.884436187e-01,7.52794e-01,9.99999e-01,9.79279e-01,7.68723e-01,9.99999e-01
8.928858368e-01,7.66194e-01,9.99999e-01,9.91544e-01,7.72727e-01,9.99999e-01
8.973502660e-01,7.75080e-01,9.99999e-01,9.97949e-01,7.76672e-01,9.99999e-01
9.018370173e-01,7.80383e-01,9.99999e-01,9.99774e-01,7.80559e-01,9.99999e-01
9.063462024e-01,7.79717e-01,9.99999e-01,9.94044e-01,7.84388e-01,9.99999e-01
9.108779334e-01,7.77644e-01,9.99999e-01,9.86657e-01,7.88160e-01,9.99999e-01
9.154323231e-01,7.89403e-01,9.99999e-01,9.96878e-01,7.91875e-01,9.99999e-01
9.200094847e-01,7.58485e-01,9.99999e-01,9.53429e-01,7.95533e-01,9.99999e-01
9.246095321e-01,7.48178e-01,9.99999e-01,9.36233e-01,7.99135e-01,9.99999e-01
9.292325798e-01,7.61816e-01,9.99999e-01,9.49086e-01,8.02683e-01,9.99999e-01
9.338787427e-01,7.66866e-01,9.99999e-01,9.51240e-01,8.06175e-01,9.99999e-01
9.385481364e-01,7.80453e-01,9.99999e-01,9.63982e-01,8.09613e-01,9.99999e-01
9.432408771e-01,7.95002e-01,9.99999e-01,9.77864e-01,8.12998e-01,9.99999e-01
9.479570815e-01,8.06997e-01,9.99999e-01,9.88567e-01,8.16329e-01,9.99999e-01
9.526968669e-01,8.15084e-01,9.99999e-01,9.94480e-01,8.19608e-01,9.99999e-01
9.574603512e-01,8.20892e-01,9.99999e-01,9.97638e-01,8.22835e-01,9.99999e-01
9.622476530e-01,8.25402e-01,9.99999e-01,9.99263e-01,8.26010e-01,9.99999e-01
9.670588912e-01,8.28952e-01,9.99999e-01,9.99779e-01,8.29135e-01,9.99999e-01
9.718941857e-01,8.32196e-01,9.99999e-01,9.99984e-01,8.32209e-01,9.99999e-01
9.767536566e-01,8.35234e-01,9.99999e-01,9.99999e-01,8.35234e-01,9.99999e-01
9.816374249e-01,8.38209e-01,9.99999e-01,9.99999e-01,8.38209e-01,9.99999e-01
9.865456120e-01,8.41137e-01,9.99999e-01,9.99999e-01,8.41137e-01,9.99999e-01
9.914783401e-01,8.44016e-01,9.99999e-01,9.99999e-01,8.44016e-01,9.99999e-01
9.964357318e-01,8.46848e-01,9.99999e-01,9.99999e-01,8.46848e-01,9.99999e-01
1.001417910e+00,8.49633e-01,9.99999e-01,9.99999e-01,8.49633e-01,9.99999e-01
1.006425000e+00,8.52372e-01,9.99999e-01,9.99999e-01,8.52372e-01,9.99999e-01
1.011457125e+00,8.55066e-01,9.99999e-01,9.99999e-01,8.55066e-01,9.99999e-01
1.016514411e+00,8.57714e-01,9.99999e-01,9.99999e-01,8.57714e-01,9.99999e-01
1.021596983e+00,8.60289e-01,9.99999e-01,9.99965e-01,8.60319e-01,9.99999e-01
1.026704968e+00,8.60872e-01,9.99999e-01,9.97673e-01,8.62879e-01,9.99999e-01
1.031838492e+00,8.36480e-01,9.99999e-01,9.66585e-01,8.65396e-01,9.99999e-01
1.036997685e+00,2.05370e-01,9.99999e-01,2.36637e-01,8.67871e-01,9.99999e-01
1.042182673e+00,2.30029e-01,9.99999e-01,2.64308e-01,8.70304e-01,9.99999e-01
1.047393587e+00,2.23517e-01,9.99999e-01,2.56123e-01,8.72695e-01,9.99999e-01
1.052630555e+00,2.20092e-02,9.99999e-01,2.51520e-02,8.75045e-01,9.99999e-01
1.057893707e+00,4.55243e-02,9.99999e-01,5.18880e-02,8.77356e-01,9.99999e-01
1.063183176e+00,1.01787e-01,9.99999e-01,1.15716e-01,8.79626e-01,9.99999e-01
1.068499092e+00,2.04907e-01,9.99999e-01,2.32359e-01,8.81857e-01,9.99999e-01
1.073841587e+00,3.52995e-01,9.99999e-01,3.99293e-01,8.84050e-01,9.99999e-01
1.079210795e+00,4.96135e-01,9.99999e-01,5.59842e-01,8.86205e-01,9.99999e-01
1.084606849e+00,6.47085e-01,9.99999e-01,7.28435e-01,8.88322e-01,9.99999e-01
1.090029883e+00,7.55509e-01,9.99999e-01,8.48503e-01,8.90402e-01,9.99999e-01
1.095480033e+00,8.23185e-01,9.99999e-01,9.22392e-01,8.92446e-01,9.99999e-01
1.100957433e+00,8.60336e-01,9.99999e-01,9.61855e-01,8.94454e-01,9.99999e-01
1.106462220e+00,8.82149e-01,9.99999e-01,9.84071e-01,8.96427e-01,9.99999e-01
1.111994531e+00,8.93036e-01,9.99999e-01,9.94067e-01,8.98365e-01,9.99999e-01
1.117554504e+00,8.98968e-01,9.99999e-01,9.98554e-01,9.00269e-01,9.99999e-01
1.123142276e+00,9.02054e-01,9.99999e-01,9.99905e-01,9.02139e-01,9.99999e-01
1.128757988e+00,9.03976e-01,9.99999e-01,9.99999e-01,9.03976e-01,9.99999e-01
1.134401778e+00,9.05781e-01,9.99999e-01,9.99999e-01,9.05781e-01,9.99999e-01
1.140073787e+00,9.07553e-01,9.99999e-01,9.99999e-01,9.07553e-01,9.99999e-01
1.145774156e+00,9.09293e-01,9.99999e-01,9.99999e-01,9.09293e-01,9.99999e-01
1.151503026e+00,9.11003e-01,9.99999e-01,9.99999e-01,9.11003e-01,9.99999e-01
1.157260541e+00,9.12682e-01,9.99999e-01,9.99999e-01,9.12682e-01,9.99999e-01
1.163046844e+00,9.14330e-01,9.99999e-01,9.99999e-01,9.14330e-01,9.99999e-01
1.168862078e+00,9.15949e-01,9.99999e-01,9.99999e-01,9.15949e-01,9.99999e-01
1.174706389e+00,9.17539e-01,9.99999e-01,9.99999e-01,9.17539e-01,9.99999e-01
1.180579921e+00,9.19100e-01,9.99999e-01,9.99999e-01,9.19100e-01,9.99999e-01
1.186482820e+00,9.20628e-01,9.99999e-01,9.99994e-01,9.20633e-01,9.99999e-01
1.192415234e+00,9.14428e-01,9.99999e-01,9.91638e-01,9.22138e-01,9.99999e-01
1.198377311e+00,5.31272e-01,9.99999e-01,5.75209e-01,9.23615e-01,9.99999e-01
1.204369197e+00,1.04812e-07,9.99999e-01,1.13302e-07,9.25066e-01,9.99999e-01
1.210391043e+00,1.08115e-25,9.99999e-01,1.16693e-25,9.26490e-01,9.99999e-01
1.216442998e+00,1.78310e-22,9.99999e-01,1.92168e-22,9.27889e-01,9.99999e-01
1.222525213e+00,3.69725e-22,9.99999e-01,3.97870e-22,9.29261e-01,9.99999e-01
1.228637839e+00,4.19228e-17,9.99999e-01,4.50488e-17,9.30609e-01,9.99999e-01
1.234781029e+00,1.42894e-11,9.99999e-01,1.53331e-11,9.31932e-01,9.99999e-01
1.240954934e+00,7.72809e-08,9.99999e-01,8.28100e-08,9.33230e-01,9.99999e-01
1.247159708e+00,1.07027e-04,9.99999e-01,1.14528e-04,9.34505e-01,9.99999e-01
1.253395507e+00,5.73954e-03,9.99999e-01,6.13357e-03,9.35756e-01,9.99999e-01
1.259662485e+00,5.14294e-02,9.99999e-01,5.48882e-02,9.36984e-01,9.99999e-01
1.265960797e+00,1.74675e-01,9.99999e-01,1.86183e-01,9.38190e-01,9.99999e-01
1.272290601e+00,4.68719e-01,9.99999e-01,4.98970e-01,9.39373e-01,9.99999e-01
1.278652054e+00,4.06853e-01,9.99999e-01,4.32576e-01,9.40534e-01,9.99999e-01
1.285045314e+00,1.73134e-02,9.99999e-01,1.83858e-02,9.41674e-01,9.99999e-01
1.291470541e+00,1.03202e-03,9.99999e-01,1.09464e-03,9.42792e-01,9.99999e-01
1.297927893e+00,3.87352e-02,9.99999e-01,4.10378e-02,9.43890e-01,9.99999e-01
1.304417533e+00,2.67339e-01,9.99999e-01,2.82908e-01,9.44967e-01,9.99999e-01
1.310939621e+00,4.78937e-02,9.99999e-01,5.06262e-02,9.46024e-01,9.99999e-01
1.317494319e+00,2.52591e-09,9.99999e-01,2.66709e-09,9.47062e-01,9.99999e-01
1.324081790e+00,1.02773e-06,9.99999e-01,1.08401e-06,9.48080e-01,9.99999e-01
1.330702199e+00,5.66258e-04,9.99999e-01,5.96639e-04,9.49079e-01,9.99999e-01
1.337355710e+00,4.63196e-04,9.99999e-01,4.87544e-04,9.50059e-01,9.99999e-01
1.344042489e+00,1.39682e-04,9.99999e-01,1.46876e-04,9.51021e-01,9.99999e-01
1.350762701e+00,4.12771e-04,9.99999e-01,4.33599e-04,9.51965e-01,9.99999e-01
1.357516515e+00,6.05932e-03,9.99999e-01,6.35888e-03,9.52891e-01,9.99999e-01
1.364304097e+00,3.92982e-02,9.99999e-01,4.12017e-02,9.53799e-01,9.99999e-01
1.371125618e+00,1.78402e-01,9.99999e-01,1.86869e-01,9.54691e-01,9.99999e-01
1.377981246e+00,2.47222e-01,9.99999e-01,2.58717e-01,9.55566e-01,9.99999e-01
1.384871152e+00,4.35665e-01,9.99999e-01,4.55514e-01,9.56424e-01,9.99999e-01
1.391795508e+00,4.63103e-01,9.99999e-01,4.83776e-01,9.57266e-01,9.99999e-01
1.398754485e+00,6.12838e-01,9.99999e-01,6.39643e-01,9.58092e-01,9.99999e-01
1.405748258e+00,6.89838e-01,9.99999e-01,7.19403e-01,9.58903e-01,9.99999e-01
1.412776999e+00,7.79764e-01,9.99999e-01,8.12509e-01,9.59698e-01,9.99999e-01
1.419840884e+00,7.12520e-01,9.99999e-01,7.41838e-01,9.60478e-01,9.99999e-01
1.426940089e+00,8.65416e-02,9.99999e-01,9.00309e-02,9.61243e-01,9.99999e-01
1.434074789e+00,0.00000e+00,9.99999e-01,0.00000e+00,9.61994e-01,9.99999e-01
1.441245163e+00,0.00000e+00,9.99999e-01,0.00000e+00,9.62730e-01,9.99999e-01
1.448451389e+00,0.00000e+00,9.99999e-01,0.00000e+00,9.63453e-01,9.99999e-01
1.455693646e+00,4.41561e-200,9.99999e-01,4.57974e-200,9.64162e-01,9.99999e-01
1.462972114e+00,2.13183e-97,9.99999e-01,2.20947e-97,9.64857e-01,9.99999e-01
1.470286975e+00,2.12047e-41,9.99999e-01,2.19614e-41,9.65539e-01,9.99999e-01
