#,Wave/freq,Total,N2,CO2,Rayleigh,CIA
4.000000000e-01,3.64384e-03,9.99999e-01,9.99999e-01,3.64384e-03,9.99999e-01
4.020000000e-01,4.07169e-03,9.99999e-01,9.99999e-01,4.07169e-03,9.99999e-01
4.040100000e-01,4.53928e-03,9.99999e-01,9.99999e-01,4.53928e-03,9.99999e-01
4.060300500e-01,5.04972e-03,9.99999e-01,9.99999e-01,5.04972e-03,9.99999e-01
4.080602003e-01,5.60575e-03,9.99999e-01,9.99999e-01,5.60575e-03,9.99999e-01
4.101005013e-01,6.21017e-03,9.99999e-01,9.99999e-01,6.21017e-03,9.99999e-01
4.121510038e-01,6.86587e-03,9.99999e-01,9.99999e-01,6.86587e-03,9.99999e-01
4.142117588e-01,7.57576e-03,9.99999e-01,9.99999e-01,7.57576e-03,9.99999e-01
4.162828176e-01,8.34281e-03,9.99999e-01,9.99999e-01,8.34281e-03,9.99999e-01
4.183642317e-01,9.17005e-03,9.99999e-01,9.99999e-01,9.17005e-03,9.99999e-01
4.204560528e-01,1.00605e-02,9.99999e-01,9.99999e-01,1.00605e-02,9.99999e-01
4.225583331e-01,1.10172e-02,9.99999e-01,9.99999e-01,1.10172e-02,9.99999e-01
4.246711247e-01,1.20433e-02,9.99999e-01,9.99999e-01,1.20433e-02,9.99999e-01
4.267944804e-01,1.31419e-02,9.99999e-01,9.99999e-01,1.31419e-02,9.99999e-01
4.289284528e-01,1.43159e-02,9.99999e-01,9.99999e-01,1.43159e-02,9.99999e-01
4.310730950e-01,1.55685e-02,9.99999e-01,9.99999e-01,1.55685e-02,9.99999e-01
4.332284605e-01,1.69026e-02,9.99999e-01,9.99999e-01,1.69026e-02,9.99999e-01
4.353946028e-01,1.83213e-02,9.99999e-01,9.99999e-01,1.83213e-02,9.99999e-01
4.375715758e-01,1.98274e-02,9.99999e-01,9.99999e-01,1.98274e-02,9.99999e-01
4.397594337e-01,2.14239e-02,9.99999e-01,9.99999e-01,2.14239e-02,9.99999e-01
4.419582309e-01,2.31136e-02,9.99999e-01,9.99999e-01,2.31136e-02,9.99999e-01
4.441680220e-01,2.48992e-02,9.99999e-01,9.99999e-01,2.48992e-02,9.99999e-01
4.463888621e-01,2.67834e-02,9.99999e-01,9.99999e-01,2.67834e-02,9.99999e-01
4.486208064e-01,2.87686e-02,9.99999e-01,9.99999e-01,2.87686e-02,9.99999e-01
4.508639105e-01,3.08574e-02,9.99999e-01,9.99999e-01,3.08574e-02,9.99999e-01
4.531182300e-01,3.30520e-02,9.99999e-01,9.99999e-01,3.30520e-02,9.99999e-01
4.553838212e-01,3.53547e-02,9.99999e-01,9.99999e-01,3.53547e-02,9.99999e-01
4.576607403e-01,3.77676e-02,9.99999e-01,9.99999e-01,3.77676e-02,9.99999e-01
4.599490440e-01,4.02925e-02,9.99999e-01,9.99999e-01,4.02925e-02,9.99999e-01
4.622487892e-01,4.29314e-02,9.99999e-01,9.99999e-01,4.29314e-02,9.99999e-01
4.645600332e-01,4.56858e-02,9.99999e-01,9.99999e-01,4.56858e-02,9.99999e-01
4.668828333e-01,4.85572e-02,9.99999e-01,9.99999e-01,4.85572e-02,9.99999e-01
4.692172475e-01,5.15470e-02,9.99999e-01,9.99999e-01,5.15470e-02,9.99999e-01
4.715633337e-01,5.46563e-02,9.99999e-01,9.99999e-01,5.46563e-02,9.99999e-01
4.739211504e-01,5.78862e-02,9.99999e-01,9.99999e-01,5.78862e-02,9.99999e-01
4.762907561e-01,6.12375e-02,9.99999e-01,9.99999e-01,6.12375e-02,9.99999e-01
4.786722099e-01,6.47108e-02,9.99999e-01,9.99999e-01,6.47108e-02,9.99999e-01
4.810655710e-01,6.83066e-02,9.99999e-01,9.99999e-01,6.83066e-02,9.99999e-01
4.834708988e-01,7.20253e-02,9.99999e-01,9.99999e-01,7.20253e-02,9.99999e-01
4.858882533e-01,7.58670e-02,9.99999e-01,9.99999e-01,7.58670e-02,9.99999e-01
4.883176946e-01,7.98315e-02,9.99999e-01,9.99999e-01,7.98315e-02,9.99999e-01
4.907592831e-01,8.39188e-02,9.99999e-01,9.99999e-01,8.39188e-02,9.99999e-01
4.932130795e-01,8.81283e-02,9.99999e-01,9.99999e-01,8.81283e-02,9.99999e-01
4.956791449e-01,9.24596e-02,9.99999e-01,9.99999e-01,9.24596e-02,9.99999e-01
4.981575406e-01,9.69119e-02,9.99999e-01,9.99999e-01,9.69119e-02,9.99999e-01
5.006483283e-01,1.01484e-01,9.99999e-01,9.99999e-01,1.01484e-01,9.99999e-01
5.031515699e-01,1.06176e-01,9.99999e-01,9.99999e-01,1.06176e-01,9.99999e-01
5.056673278e-01,1.10985e-01,9.99999e-01,9.99999e-01,1.10985e-01,9.99999e-01
5.081956644e-01,1.15910e-01,9.99999e-01,9.99999e-01,1.15910e-01,9.99999e-01
5.107366428e-01,1.20950e-01,9.99999e-01,9.99999e-01,1.20950e-01,9.99999e-01
5.132903260e-01,1.26104e-01,9.99999e-01,9.99999e-01,1.26104e-01,9.99999e-01
5.158567776e-01,1.31368e-01,9.99999e-01,9.99999e-01,1.31368e-01,9.99999e-01
5.184360615e-01,1.36742e-01,9.99999e-01,9.99999e-01,1.36742e-01,9.99999e-01
5.210282418e-01,1.42223e-01,9.99999e-01,9.99999e-01,1.42223e-01,9.99999e-01
5.236333830e-01,1.47809e-01,9.99999e-01,9.99999e-01,1.47809e-01,9.99999e-01
5.262515499e-01,1.53498e-01,9.99999e-01,9.99999e-01,1.53498e-01,9.99999e-01
5.288828077e-01,1.59287e-01,9.99999e-01,9.99999e-01,1.59287e-01,9.99999e-01
5.315272217e-01,1.65173e-01,9.99999e-01,9.99999e-01,1.65173e-01,9.99999e-01
5.341848578e-01,1.71153e-01,9.99999e-01,9.99999e-01,1.71153e-01,9.99999e-01
5.368557821e-01,1.77226e-01,9.99999e-01,9.99999e-01,1.77226e-01,9.99999e-01
5.395400610e-01,1.83388e-01,9.99999e-01,9.99999e-01,1.83388e-01,9.99999e-01
5.422377613e-01,1.89636e-01,9.99999e-01,9.99999e-01,1.89636e-01,9.99999e-01
5.449489501e-01,1.95968e-01,9.99999e-01,9.99999e-01,1.95968e-01,9.99999e-01
5.476736949e-01,2.02379e-01,9.99999e-01,9.99999e-01,2.02379e-01,9.99999e-01
5.504120634e-01,2.08867e-01,9.99999e-01,9.99999e-01,2.08867e-01,9.99999e-01
5.531641237e-01,2.15429e-01,9.99999e-01,9.99999e-01,2.15429e-01,9.99999e-01
5.559299443e-01,2.22062e-01,9.99999e-01,9.99999e-01,2.22062e-01,9.99999e-01
5.587095940e-01,2.28761e-01,9.99999e-01,9.99999e-01,2.28761e-01,9.99999e-01
5.615031420e-01,2.35525e-01,9.99999e-01,9.99999e-01,2.35525e-01,9.99999e-01
5.643106577e-01,2.42348e-01,9.99999e-01,9.99999e-01,2.42348e-01,9.99999e-01
5.671322110e-01,2.49229e-01,9.99999e-01,9.99999e-01,2.49229e-01,9.99999e-01
5.699678720e-01,2.56164e-01,9.99999e-01,9.99999e-01,2.56164e-01,9.99999e-01
5.728177114e-01,2.63148e-01,9.99999e-01,9.99999e-01,2.63148e-01,9.99999e-01
5.756818000e-01,2.70180e-01,9.99999e-01,9.99999e-01,2.70180e-01,9.99999e-01
5.785602090e-01,2.77255e-01,9.99999e-01,9.99999e-01,2.77255e-01,9.99999e-01
5.814530100e-01,2.84370e-01,9.99999e-01,9.99999e-01,2.84370e-01,9.99999e-01
5.843602750e-01,2.91522e-01,9.99999e-01,9.99999e-01,2.91522e-01,9.99999e-01
5.872820764e-01,2.98707e-01,9.99999e-01,9.99999e-01,2.98707e-01,9.99999e-01
5.902184868e-01,3.05922e-01,9.99999e-01,9.99999e-01,3.05922e-01,9.99999e-01
5.931695792e-01,3.13163e-01,9.99999e-01,9.99999e-01,3.13163e-01,9.99999e-01
5.961354271e-01,3.20428e-01,9.99999e-01,9.99999e-01,3.20428e-01,9.99999e-01
5.991161043e-01,3.27713e-01,9.99999e-01,9.99999e-01,3.27713e-01,9.99999e-01
6.021116848e-01,3.35015e-01,9.99999e-01,9.99999e-01,3.35015e-01,9.99999e-01
6.051222432e-01,3.42330e-01,9.99999e-01,9.99999e-01,3.42330e-01,9.99999e-01
6.081478544e-01,3.49656e-01,9.99999e-01,9.99999e-01,3.49656e-01,9.99999e-01
6.111885937e-01,3.56989e-01,9.99999e-01,9.99999e-01,3.56989e-01,9.99999e-01
6.142445367e-01,3.64327e-01,9.99999e-01,9.99999e-01,3.64327e-01,9.99999e-01
6.173157594e-01,3.71666e-01,9.99999e-01,9.99999e-01,3.71666e-01,9.99999e-01
6.204023382e-01,3.79004e-01,9.99999e-01,9.99999e-01,3.79004e-01,9.99999e-01
6.235043498e-01,3.86337e-01,9.99999e-01,9.99999e-01,3.86337e-01,9.99999e-01
6.266218716e-01,3.93663e-01,9.99999e-01,9.99999e-01,3.93663e-01,9.99999e-01
6.297549810e-01,4.00979e-01,9.99999e-01,9.99999e-01,4.00979e-01,9.99999e-01
6.329037559e-01,4.08283e-01,9.99999e-01,9.99999e-01,4.08283e-01,9.99999e-01
6.360682746e-01,4.15571e-01,9.99999e-01,9.99999e-01,4.15571e-01,9.99999e-01
6.392486160e-01,4.22842e-01,9.99999e-01,9.99999e-01,4.22842e-01,9.99999e-01
6.424448591e-01,4.30093e-01,9.99999e-01,9.99999e-01,4.30093e-01,9.99999e-01
6.456570834e-01,4.37321e-01,9.99999e-01,9.99999e-01,4.37321e-01,9.99999e-01
6.488853688e-01,4.44524e-01,9.99999e-01,9.99999e-01,4.44524e-01,9.99999e-01
6.521297956e-01,4.51700e-01,9.99999e-01,9.99999e-01,4.51700e-01,9.99999e-01
6.553904446e-01,4.58847e-01,9.99999e-01,9.99999e-01,4.58847e-01,9.99999e-01
6.586673968e-01,4.65962e-01,9.99999e-01,9.99999e-01,4.65962e-01,9.99999e-01
6.619607338e-01,4.73044e-01,9.99999e-01,9.99999e-01,4.73044e-01,9.99999e-01
6.652705375e-01,4.80091e-01,9.99999e-01,9.99999e-01,4.80091e-01,9.99999e-01
6.685968902e-01,4.87100e-01,9.99999e-01,9.99999e-01,4.87100e-01,9.99999e-01
6.719398746e-01,4.94070e-01,9.99999e-01,9.99999e-01,4.94070e-01,9.99999e-01
6.752995740e-01,5.00999e-01,9.99999e-01,9.99999e-01,5.00999e-01,9.99999e-01
6.786760719e-01,5.07885e-01,9.99999e-01,9.99999e-01,5.07885e-01,9.99999e-01
6.820694522e-01,5.14728e-01,9.99999e-01,9.99999e-01,5.14728e-01,9.99999e-01
6.854797995e-01,5.21524e-01,9.99999e-01,9.99999e-01,5.21524e-01,9.99999e-01
6.889071985e-01,5.28274e-01,9.99999e-01,9.99999e-01,5.28274e-01,9.99999e-01
6.923517345e-01,5.34975e-01,9.99999e-01,9.99999e-01,5.34975e-01,9.99999e-01
6.958134932e-01,5.41626e-01,9.99999e-01,9.99999e-01,5.41626e-01,9.99999e-01
6.992925606e-01,5.48226e-01,9.99999e-01,9.99999e-01,5.48226e-01,9.99999e-01
7.027890234e-01,5.54773e-01,9.99999e-01,9.99999e-01,5.54773e-01,9.99999e-01
7.063029686e-01,5.61267e-01,9.99999e-01,9.99999e-01,5.61267e-01,9.99999e-01
7.098344834e-01,5.67707e-01,9.99999e-01,9.99999e-01,5.67707e-01,9.99999e-01
7.133836558e-01,5.74091e-01,9.99999e-01,9.99999e-01,5.74091e-01,9.99999e-01
7.169505741e-01,5.80419e-01,9.99999e-01,9.99999e-01,5.80419e-01,9.99999e-01
7.205353270e-01,5.86690e-01,9.99999e-01,9.99999e-01,5.86690e-01,9.99999e-01
7.241380036e-01,5.92902e-01,9.99999e-01,9.99999e-01,5.92902e-01,9.99999e-01
7.277586936e-01,5.99056e-01,9.99999e-01,9.99999e-01,5.99056e-01,9.99999e-01
7.313974871e-01,6.05149e-01,9.99999e-01,9.99999e-01,6.05149e-01,9.99999e-01
7.350544745e-01,6.11183e-01,9.99999e-01,9.99999e-01,6.11183e-01,9.99999e-01
7.387297469e-01,6.17156e-01,9.99999e-01,9.99999e-01,6.17156e-01,9.99999e-01
7.424233956e-01,6.23068e-01,9.99999e-01,9.99999e-01,6.23068e-01,9.99999e-01
7.461355126e-01,6.28917e-01,9.99999e-01,9.99999e-01,6.28917e-01,9.99999e-01
7.498661902e-01,6.34705e-01,9.99999e-01,9.99999e-01,6.34705e-01,9.99999e-01
7.536155211e-01,6.40430e-01,9.99999e-01,9.99999e-01,6.40430e-01,9.99999e-01
7.573835987e-01,6.46092e-01,9.99999e-01,9.99999e-01,6.46092e-01,9.99999e-01
7.611705167e-01,6.51691e-01,9.99999e-01,9.99999e-01,6.51691e-01,9.99999e-01
7.649763693e-01,6.57226e-01,9.99999e-01,9.99999e-01,6.57226e-01,9.99999e-01
7.688012511e-01,6.62697e-01,9.99999e-01,9.99999e-01,6.62697e-01,9.99999e-01
7.726452574e-01,6.68105e-01,9.99999e-01,9.99999e-01,6.68105e-01,9.99999e-01
7.765084837e-01,6.73448e-01,9.99999e-01,9.99999e-01,6.73448e-01,9.99999e-01
7.803910261e-01,6.65978e-01,9.99999e-01,9.81214e-01,6.78728e-01,9.99999e-01
7.842929812e-01,6.30229e-01,9.99999e-01,9.21463e-01,6.83943e-01,9.99999e-01
7.882144461e-01,6.31179e-01,9.99999e-01,9.15953e-01,6.89095e-01,9.99999e-01
7.921555184e-01,6.60019e-01,9.99999e-01,9.50785e-01,6.94182e-01,9.99999e-01
7.961162960e-01,6.76017e-01,9.99999e-01,9.66835e-01,6.99205e-01,9.99999e-01
8.000968774e-01,6.91420e-01,9.99999e-01,9.81901e-01,7.04164e-01,9.99999e-01
8.040973618e-01,7.02383e-01,9.99999e-01,9.90583e-01,7.09060e-01,9.99999e-01
8.081178486e-01,7.10801e-01,9.99999e-01,9.95670e-01,7.13891e-01,9.99999e-01
8.121584379e-01,7.17697e-01,9.99999e-01,9.98659e-01,7.18660e-01,9.99999e-01
8.162192301e-01,7.23151e-01,9.99999e-01,9.99703e-01,7.23365e-01,9.99999e-01
8.203003262e-01,7.28003e-01,9.99999e-01,9.99995e-01,7.28007e-01,9.99999e-01
8.244018279e-01,7.32586e-01,9.99999e-01,9.99999e-01,7.32586e-01,9.99999e-01
8.285238370e-01,7.37103e-01,9.99999e-01,9.99999e-01,7.37103e-01,9.99999e-01
8.326664562e-01,7.41557e-01,9.99999e-01,9.99999e-01,7.41557e-01,9.99999e-01
8.368297885e-01,7.45950e-01,9.99999e-01,9.99999e-01,7.45950e-01,9.99999e-01
8.410139374e-01,7.50281e-01,9.99999e-01,9.99999e-01,7.50281e-01,9.99999e-01
8.452190071e-01,7.54551e-01,9.99999e-01,9.99999e-01,7.54551e-01,9.99999e-01
8.494451021e-01,7.58760e-01,9.99999e-01,9.99999e-01,7.58760e-01,9.99999e-01
8.536923276e-01,7.62909e-01,9.99999e-01,9.99999e-01,7.62909e-01,9.99999e-01
8.579607893e-01,7.66998e-01,9.99999e-01,9.99999e-01,7.66998e-01,9.99999e-01
8.622505932e-01,7.71027e-01,9.99999e-01,9.99999e-01,7.71027e-01,9.99999e-01
8.665618462e-01,7.37148e-01,9.99999e-01,9.51161e-01,7.74997e-01,9.99999e-01
8.708946554e-01,6.31063e-01,9.99999e-01,8.10188e-01,7.78909e-01,9.99999e-01
8.752491287e-01,6.61923e-01,9.99999e-01,8.45623e-01,7.82763e-01,9.99999e-01
8.796253743e-01,7.17977e-01,9.99999e-01,9.12807e-01,7.86559e-01,9.99999e-01
8.840235012e-01,7.53956e-01,9.99999e-01,9.54014e-01,7.90298e-01,9.99999e-01
8.884436187e-01,7.79405e-01,9.99999e-01,9.81641e-01,7.93980e-01,9.99999e-01
8.928858368e-01,7.91651e-01,9.99999e-01,9.92532e-01,7.97607e-01,9.99999e-01
8.973502660e-01,7.99720e-01,9.99999e-01,9.98180e-01,8.01177e-01,9.99999e-01
9.018370173e-01,8.04532e-01,9.99999e-01,9.99799e-01,8.04693e-01,9.99999e-01
9.063462024e-01,8.03999e-01,9.99999e-01,9.94857e-01,8.08154e-01,9.99999e-01
9.108779334e-01,8.02016e-01,9.99999e-01,9.88237e-01,8.11562e-01,9.99999e-01
9.154323231e-01,8.12654e-01,9.99999e-01,9.97224e-01,8.14916e-01,9.99999e-01
9.200094847e-01,7.84892e-01,9.99999e-01,9.59270e-01,8.18217e-01,9.99999e-01
9.246095321e-01,7.75176e-01,9.99999e-01,9.43649e-01,8.21466e-01,9.99999e-01
9.292325798e-01,7.87911e-01,9.99999e-01,9.55433e-01,8.24663e-01,9.99999e-01
9.338787427e-01,7.92172e-01,9.99999e-01,9.56950e-01,8.27809e-01,9.99999e-01
9.385481364e-01,8.04528e-01,9.99999e-01,9.68254e-01,8.30905e-01,9.99999e-01
9.432408771e-01,8.17660e-01,9.99999e-01,9.80464e-01,8.33951e-01,9.99999e-01
9.479570815e-01,8.28525e-01,9.99999e-01,9.89937e-01,8.36947e-01,9.99999e-01
9.526968669e-01,8.35808e-01,9.99999e-01,9.95134e-01,8.39895e-01,9.99999e-01
9.574603512e-01,8.41039e-01,9.99999e-01,9.97917e-01,8.42794e-01,9.99999e-01
9.622476530e-01,8.45097e-01,9.99999e-01,9.99349e-01,8.45646e-01,9.99999e-01
9.670588912e-01,8.48286e-01,9.99999e-01,9.99804e-01,8.48451e-01,9.99999e-01
9.718941857e-01,8.51198e-01,9.99999e-01,9.99985e-01,8.51210e-01,9.99999e-01
9.767536566e-01,8.53923e-01,9.99999e-01,9.99999e-01,8.53923e-01,9.99999e-01
9.816374249e-01,8.56591e-01,9.99999e-01,9.99999e-01,8.56591e-01,9.99999e-01
9.865456120e-01,8.59214e-01,9.99999e-01,9.99999e-01,8.59214e-01,9.99999e-01
9.914783401e-01,8.61793e-01,9.99999e-01,9.99999e-01,8.61793e-01,9.99999e-01
9.964357318e-01,8.64329e-01,9.99999e-01,9.99999e-01,8.64329e-01,9.99999e-01
1.001417910e+00,8.66821e-01,9.99999e-01,9.99999e-01,8.66821e-01,9.99999e-01
1.006425000e+00,8.69272e-01,9.99999e-01,9.99999e-01,8.69272e-01,9.99999e-01
1.011457125e+00,8.71681e-01,9.99999e-01,9.99999e-01,8.71681e-01,9.99999e-01
1.016514411e+00,8.74048e-01,9.99999e-01,9.99999e-01,8.74048e-01,9.99999e-01
1.021596983e+00,8.76352e-01,9.99999e-01,9.99972e-01,8.76376e-01,9.99999e-01
1.026704968e+00,8.76907e-01,9.99999e-01,9.98000e-01,8.78663e-01,9.99999e-01
1.031838492e+00,8.55963e-01,9.99999e-01,9.71678e-01,8.80911e-01,9.99999e-01
1.036997685e+00,2.34742e-01,9.99999e-01,2.65809e-01,8.83120e-01,9.99999e-01
1.042182673e+00,2.72321e-01,9.99999e-01,3.07606e-01,8.85291e-01,9.99999e-01
1.047393587e+00,2.59197e-01,9.99999e-01,2.92078e-01,8.87424e-01,9.99999e-01
1.052630555e+00,3.27337e-02,9.99999e-01,3.67992e-02,8.89520e-01,9.99999e-01
1.057893707e+00,6.37754e-02,9.99999e-01,7.15308e-02,8.91579e-01,9.99999e-01
1.063183176e+00,1.31691e-01,9.99999e-01,1.47371e-01,8.93603e-01,9.99999e-01
1.068499092e+00,2.48059e-01,9.99999e-01,2.76977e-01,8.95590e-01,9.99999e-01
1.073841587e+00,3.99323e-01,9.99999e-01,4.44906e-01,8.97543e-01,9.99999e-01
1.079210795e+00,5.39567e-01,9.99999e-01,5.99877e-01,8.99462e-01,9.99999e-01
1.084606849e+00,6.81789e-01,9.99999e-01,7.56411e-01,9.01346e-01,9.99999e-01
1.090029883e+00,7.81657e-01,9.99999e-01,8.65433e-01,9.03197e-01,9.99999e-01
1.095480033e+00,8.42855e-01,9.99999e-01,9.31315e-01,9.05015e-01,9.99999e-01
1.100957433e+00,8.76285e-01,9.99999e-01,9.66346e-01,9.06801e-01,9.99999e-01
1.106462220e+00,8.95789e-01,9.99999e-01,9.85947e-01,9.08555e-01,9.99999e-01
1.111994531e+00,9.05518e-01,9.99999e-01,9.94770e-01,9.10278e-01,9.99999e-01
1.117554504e+00,9.10803e-01,9.99999e-01,9.98720e-01,9.11970e-01,9.99999e-01
1.123142276e+00,9.13554e-01,9.99999e-01,9.99915e-01,9.13631e-01,9.99999e-01
1.128757988e+00,9.15263e-01,9.99999e-01,9.99999e-01,9.15263e-01,9.99999e-01
1.134401778e+00,9.16865e-01,9.99999e-01,9.99999e-01,9.16865e-01,9.99999e-01
1.140073787e+00,9.18438e-01,9.99999e-01,9.99999e-01,9.18438e-01,9.99999e-01
1.145774156e+00,9.19983e-01,9.99999e-01,9.99999e-01,9.19983e-01,9.99999e-01
1.151503026e+00,9.21500e-01,9.99999e-01,9.99999e-01,9.21500e-01,9.99999e-01
1.157260541e+00,9.22989e-01,9.99999e-01,9.99999e-01,9.22989e-01,9.99999e-01
1.163046844e+00,9.24451e-01,9.99999e-01,9.99999e-01,9.24451e-01,9.99999e-01
1.168862078e+00,9.25886e-01,9.99999e-01,9.99999e-01,9.25886e-01,9.99999e-01
1.174706389e+00,9.27296e-01,9.99999e-01,9.99999e-01,9.27296e-01,9.99999e-01
1.180579921e+00,9.28679e-01,9.99999e-01,9.99999e-01,9.28679e-01,9.99999e-01
1.186482820e+00,9.30034e-01,9.99999e-01,9.99996e-01,9.30038e-01,9.99999e-01
1.192415234e+00,9.24693e-01,9.99999e-01,9.92829e-01,9.31371e-01,9.99999e-01
1.198377311e+00,5.42401e-01,9.99999e-01,5.81550e-01,9.32680e-01,9.99999e-01
1.204369197e+00,4.92665e-07,9.99999e-01,5.27498e-07,9.33965e-01,9.99999e-01
1.210391043e+00,8.29343e-23,9.99999e-01,8.86783e-23,9.35226e-01,9.99999e-01
1.216442998e+00,5.51848e-20,9.99999e-01,5.89288e-20,9.36464e-01,9.99999e-01
1.222525213e+00,1.06198e-19,9.99999e-01,1.13257e-19,9.37679e-01,9.99999e-01
1.228637839e+00,3.54074e-15,9.99999e-01,3.77127e-15,9.38871e-01,9.99999e-01
1.234781029e+00,2.04042e-10,9.99999e-01,2.17056e-10,9.40042e-01,9.99999e-01
1.240954934e+00,4.44126e-07,9.99999e-01,4.71876e-07,9.41191e-01,9.99999e-01
1.247159708e+00,2.74593e-04,9.99999e-01,2.91401e-04,9.42318e-01,9.99999e-01
1.253395507e+00,1.02504e-02,9.99999e-01,1.08650e-02,9.43424e-01,9.99999e-01
1.259662485e+00,7.22357e-02,9.99999e-01,7.64795e-02,9.44510e-01,9.99999e-01
1.265960797e+00,2.12726e-01,9.99999e-01,2.24970e-01,9.45576e-01,9.99999e-01
1.272290601e+00,5.12718e-01,9.99999e-01,5.41629e-01,9.46622e-01,9.99999e-01
1.278652054e+00,4.52223e-01,9.99999e-01,4.77205e-01,9.47648e-01,9.99999e-01
1.285045314e+00,3.25060e-02,9.99999e-01,3.42654e-02,9.48655e-01,9.99999e-01
1.291470541e+00,2.27344e-03,9.99999e-01,2.39399e-03,9.49643e-01,9.99999e-01
1.297927893e+00,3.38702e-02,9.99999e-01,3.56298e-02,9.50613e-01,9.99999e-01
1.304417533e+00,3.13109e-01,9.99999e-01,3.29046e-01,9.51564e-01,9.99999e-01
1.310939621e+00,8.71014e-02,9.99999e-01,9.14452e-02,9.52498e-01,9.99999e-01
1.317494319e+00,2.74166e-08,9.99999e-01,2.87563e-08,9.53414e-01,9.99999e-01
1.324081790e+00,4.47519e-06,9.99999e-01,4.68944e-06,9.54313e-01,9.99999e-01
1.330702199e+00,1.35937e-03,9.99999e-01,1.42313e-03,9.55195e-01,9.99999e-01
1.337355710e+00,1.01317e-03,9.99999e-01,1.05974e-03,9.56060e-01,9.99999e-01
1.344042489e+00,3.34336e-04,9.99999e-01,3.49391e-04,9.56909e-01,9.99999e-01
1.350762701e+00,1.01772e-03,9.99999e-01,1.06262e-03,9.57742e-01,9.99999e-01
1.357516515e+00,1.06461e-02,9.99999e-01,1.11063e-02,9.58559e-01,9.99999e-01
1.364304097e+00,5.76707e-02,9.99999e-01,6.01136e-02,9.59361e-01,9.99999e-01
1.371125618e+00,2.17415e-01,9.99999e-01,2.26439e-01,9.60147e-01,9.99999e-01
1.377981246e+00,2.92818e-01,9.99999e-01,3.04727e-01,9.60919e-01,9.99999e-01
1.384871152e+00,4.81437e-01,9.99999e-01,5.00622e-01,9.61676e-01,9.99999e-01
1.391795508e+00,5.08033e-01,9.99999e-01,5.27871e-01,9.62418e-01,9.99999e-01
1.398754485e+00,6.50323e-01,9.99999e-01,6.75206e-01,9.63147e-01,9.99999e-01
1.405748258e+00,7.21269e-01,9.99999e-01,7.48311e-01,9.63861e-01,9.99999e-01
1.412776999e+00,8.03421e-01,9.99999e-01,8.32937e-01,9.64562e-01,9.99999e-01
1.419840884e+00,7.42262e-01,9.99999e-01,7.68983e-01,9.65250e-01,9.99999e-01
1.426940089e+00,9.61580e-02,9.99999e-01,9.95502e-02,9.65925e-01,9.99999e-01
1.434074789e+00,4.94066e-324,9.99999e-01,4.94066e-324,9.66586e-01,9.99999e-01
1.441245163e+00,0.00000e+00,9.99999e-01,0.00000e+00,9.67235e-01,9.99999e-01
1.448451389e+00,0.00000e+00,9.99999e-01,0.00000e+00,9.67872e-01,9.99999e-01
1.455693646e+00,9.76019e-176,9.99999e-01,1.00777e-175,9.68496e-01,9.99999e-01
1.462972114e+00,1.08978e-85,9.99999e-01,1.12452e-85,9.69109e-01,9.99999e-01
1.470286975e+00,1.39460e-36,9.99999e-01,1.43816e-36,9.69710e-01,9.99999e-01
