#,Wave/freq,Total,N2,CO2,Rayleigh,CIA
4.000000000e-01,3.45063e-04,9.99999e-01,9.99999e-01,3.45063e-04,9.99999e-01
4.020000000e-01,4.03975e-04,9.99999e-01,9.99999e-01,4.03975e-04,9.99999e-01
4.040100000e-01,4.71397e-04,9.99999e-01,9.99999e-01,4.71397e-04,9.99999e-01
4.060300500e-01,5.48398e-04,9.99999e-01,9.99999e-01,5.48398e-04,9.99999e-01
4.080602003e-01,6.36073e-04,9.99999e-01,9.99999e-01,6.36073e-04,9.99999e-01
4.101005013e-01,7.35607e-04,9.99999e-01,9.99999e-01,7.35607e-04,9.99999e-01
4.121510038e-01,8.48276e-04,9.99999e-01,9.99999e-01,8.48276e-04,9.99999e-01
4.142117588e-01,9.75452e-04,9.99999e-01,9.99999e-01,9.75452e-04,9.99999e-01
4.162828176e-01,1.11860e-03,9.99999e-01,9.99999e-01,1.11860e-03,9.99999e-01
4.183642317e-01,1.27930e-03,9.99999e-01,9.99999e-01,1.27930e-03,9.99999e-01
4.204560528e-01,1.45921e-03,9.99999e-01,9.99999e-01,1.45921e-03,9.99999e-01
4.225583331e-01,1.66009e-03,9.99999e-01,9.99999e-01,1.66009e-03,9.99999e-01
4.246711247e-01,1.88383e-03,9.99999e-01,9.99999e-01,1.88383e-03,9.99999e-01
4.267944804e-01,2.13239e-03,9.99999e-01,9.99999e-01,2.13239e-03,9.99999e-01
4.289284528e-01,2.40784e-03,9.99999e-01,9.99999e-01,2.40784e-03,9.99999e-01
4.310730950e-01,2.71236e-03,9.99999e-01,9.99999e-01,2.71236e-03,9.99999e-01
4.332284605e-01,3.04821e-03,9.99999e-01,9.99999e-01,3.04821e-03,9.99999e-01
4.353946028e-01,3.41776e-03,9.99999e-01,9.99999e-01,3.41776e-03,9.99999e-01
4.375715758e-01,3.82346e-03,9.99999e-01,9.99999e-01,3.82346e-03,9.99999e-01
4.397594337e-01,4.26785e-03,9.99999e-01,9.99999e-01,4.26785e-03,9.99999e-01
4.419582309e-01,4.75355e-03,9.99999e-01,9.99999e-01,4.75355e-03,9.99999e-01
4.441680220e-01,5.28327e-03,9.99999e-01,9.99999e-01,5.28327e-03,9.99999e-01
4.463888621e-01,5.85978e-03,9.99999e-01,9.99999e-01,5.85978e-03,9.99999e-01
4.486208064e-01,6.48591e-03,9.99999e-01,9.99999e-01,6.48591e-03,9.99999e-01
4.508639105e-01,7.16457e-03,9.99999e-01,9.99999e-01,7.16457e-03,9.99999e-01
4.531182300e-01,7.89869e-03,9.99999e-01,9.99999e-01,7.89869e-03,9.99999e-01
4.553838212e-01,8.69128e-03,9.99999e-01,9.99999e-01,8.69128e-03,9.99999e-01
4.576607403e-01,9.54535e-03,9.99999e-01,9.99999e-01,9.54535e-03,9.99999e-01
4.599490440e-01,1.04640e-02,9.99999e-01,9.99999e-01,1.04640e-02,9.99999e-01
4.622487892e-01,1.14502e-02,9.99999e-01,9.99999e-01,1.14502e-02,9.99999e-01
4.645600332e-01,1.25071e-02,9.99999e-01,9.99999e-01,1.25071e-02,9.99999e-01
4.668828333e-01,1.36377e-02,9.99999e-01,9.99999e-01,1.36377e-02,9.99999e-01
4.692172475e-01,1.48451e-02,9.99999e-01,9.99999e-01,1.48451e-02,9.99999e-01
4.715633337e-01,1.61324e-02,9.99999e-01,9.99999e-01,1.61324e-02,9.99999e-01
4.739211504e-01,1.75026e-02,9.99999e-01,9.99999e-01,1.75026e-02,9.99999e-01
4.762907561e-01,1.89586e-02,9.99999e-01,9.99999e-01,1.89586e-02,9.99999e-01
4.786722099e-01,2.05033e-02,9.99999e-01,9.99999e-01,2.05033e-02,9.99999e-01
4.810655710e-01,2.21396e-02,9.99999e-01,9.99999e-01,2.21396e-02,9.99999e-01
4.834708988e-01,2.38702e-02,9.99999e-01,9.99999e-01,2.38702e-02,9.99999e-01
4.858882533e-01,2.56979e-02,9.99999e-01,9.99999e-01,2.56979e-02,9.99999e-01
4.883176946e-01,2.76252e-02,9.99999e-01,9.99999e-01,2.76252e-02,9.99999e-01
4.907592831e-01,2.96547e-02,9.99999e-01,9.99999e-01,2.96547e-02,9.99999e-01
4.932130795e-01,3.17888e-02,9.99999e-01,9.99999e-01,3.17888e-02,9.99999e-01
4.956791449e-01,3.40297e-02,9.99999e-01,9.99999e-01,3.40297e-02,9.99999e-01
4.981575406e-01,3.63795e-02,9.99999e-01,9.99999e-01,3.63795e-02,9.99999e-01
5.006483283e-01,3.88404e-02,9.99999e-01,9.99999e-01,3.88404e-02,9.99999e-01
5.031515699e-01,4.14141e-02,9.99999e-01,9.99999e-01,4.14141e-02,9.99999e-01
5.056673278e-01,4.41025e-02,9.99999e-01,9.99999e-01,4.41025e-02,9.99999e-01
5.081956644e-01,4.69071e-02,9.99999e-01,9.99999e-01,4.69071e-02,9.99999e-01
5.107366428e-01,4.98293e-02,9.99999e-01,9.99999e-01,4.98293e-02,9.99999e-01
5.132903260e-01,5.28704e-02,9.99999e-01,9.99999e-01,5.28704e-02,9.99999e-01
5.158567776e-01,5.60315e-02,9.99999e-01,9.99999e-01,5.60315e-02,9.99999e-01
5.184360615e-01,5.93136e-02,9.99999e-01,9.99999e-01,5.93136e-02,9.99999e-01
5.210282418e-01,6.27173e-02,9.99999e-01,9.99999e-01,6.27173e-02,9.99999e-01
5.236333830e-01,6.62433e-02,9.99999e-01,9.99999e-01,6.62433e-02,9.99999e-01
5.262515499e-01,6.98920e-02,9.99999e-01,9.99999e-01,6.98920e-02,9.99999e-01
5.288828077e-01,7.36636e-02,9.99999e-01,9.99999e-01,7.36636e-02,9.99999e-01
5.315272217e-01,7.75581e-02,9.99999e-01,9.99999e-01,7.75581e-02,9.99999e-01
5.341848578e-01,8.15755e-02,9.99999e-01,9.99999e-01,8.15755e-02,9.99999e-01
5.368557821e-01,8.57155e-02,9.99999e-01,9.99999e-01,8.57155e-02,9.99999e-01
5.395400610e-01,8.99775e-02,9.99999e-01,9.99999e-01,8.99775e-02,9.99999e-01
5.422377613e-01,9.43610e-02,9.99999e-01,9.99999e-01,9.43610e-02,9.99999e-01
5.449489501e-01,9.88651e-02,9.99999e-01,9.99999e-01,9.88651e-02,9.99999e-01
5.476736949e-01,1.03489e-01,9.99999e-01,9.99999e-01,1.03489e-01,9.99999e-01
5.504120634e-01,1.08231e-01,9.99999e-01,9.99999e-01,1.08231e-01,9.99999e-01
5.531641237e-01,1.13090e-01,9.99999e-01,9.99999e-01,1.13090e-01,9.99999e-01
5.559299443e-01,1.18065e-01,9.99999e-01,9.99999e-01,1.18065e-01,9.99999e-01
5.587095940e-01,1.23155e-01,9.99999e-01,9.99999e-01,1.23155e-01,9.99999e-01
5.615031420e-01,1.28356e-01,9.99999e-01,9.99999e-01,1.28356e-01,9.99999e-01
5.643106577e-01,1.33668e-01,9.99999e-01,9.99999e-01,1.33668e-01,9.99999e-01
5.671322110e-01,1.39088e-01,9.99999e-01,9.99999e-01,1.39088e-01,9.99999e-01
5.699678720e-01,1.44615e-01,9.99999e-01,9.99999e-01,1.44615e-01,9.99999e-01
5.728177114e-01,1.50245e-01,9.99999e-01,9.99999e-01,1.50245e-01,9.99999e-01
5.756818000e-01,1.55977e-01,9.99999e-01,9.99999e-01,1.55977e-01,9.99999e-01
5.785602090e-01,1.61808e-01,9.99999e-01,9.99999e-01,1.61808e-01,9.99999e-01
5.814530100e-01,1.67735e-01,9.99999e-01,9.99999e-01,1.67735e-01,9.99999e-01
5.843602750e-01,1.73756e-01,9.99999e-01,9.99999e-01,1.73756e-01,9.99999e-01
5.872820764e-01,1.79867e-01,9.99999e-01,9.99999e-01,1.79867e-01,9.99999e-01
5.902184868e-01,1.86067e-01,9.99999e-01,9.99999e-01,1.86067e-01,9.99999e-01
5.931695792e-01,1.92351e-01,9.99999e-01,9.99999e-01,1.92351e-01,9.99999e-01
5.961354271e-01,1.98717e-01,9.99999e-01,9.99999e-01,1.98717e-01,9.99999e-01
5.991161043e-01,2.05162e-01,9.99999e-01,9.99999e-01,2.05162e-01,9.99999e-01
6.021116848e-01,2.11683e-01,9.99999e-01,9.99999e-01,2.11683e-01,9.99999e-01
6.051222432e-01,2.18275e-01,9.99999e-01,9.99999e-01,2.18275e-01,9.99999e-01
6.081478544e-01,2.24937e-01,9.99999e-01,9.99999e-01,2.24937e-01,9.99999e-01
6.111885937e-01,2.31664e-01,9.99999e-01,9.99999e-01,2.31664e-01,9.99999e-01
6.142445367e-01,2.38454e-01,9.99999e-01,9.99999e-01,2.38454e-01,9.99999e-01
6.173157594e-01,2.45303e-01,9.99999e-01,9.99999e-01,2.45303e-01,9.99999e-01
6.204023382e-01,2.52207e-01,9.99999e-01,9.99999e-01,2.52207e-01,9.99999e-01
6.235043498e-01,2.59164e-01,9.99999e-01,9.99999e-01,2.59164e-01,9.99999e-01
6.266218716e-01,2.66169e-01,9.99999e-01,9.99999e-01,2.66169e-01,9.99999e-01
6.297549810e-01,2.73220e-01,9.99999e-01,9.99999e-01,2.73220e-01,9.99999e-01
6.329037559e-01,2.80312e-01,9.99999e-01,9.99999e-01,2.80312e-01,9.99999e-01
6.360682746e-01,2.87444e-01,9.99999e-01,9.99999e-01,2.87444e-01,9.99999e-01
6.392486160e-01,2.94610e-01,9.99999e-01,9.99999e-01,2.94610e-01,9.99999e-01
6.424448591e-01,3.01808e-01,9.99999e-01,9.99999e-01,3.01808e-01,9.99999e-01
6.456570834e-01,3.09035e-01,9.99999e-01,9.99999e-01,3.09035e-01,9.99999e-01
6.488853688e-01,3.16287e-01,9.99999e-01,9.99999e-01,3.16287e-01,9.99999e-01
6.521297956e-01,3.23561e-01,9.99999e-01,9.99999e-01,3.23561e-01,9.99999e-01
6.553904446e-01,3.30854e-01,9.99999e-01,9.99999e-01,3.30854e-01,9.99999e-01
6.586673968e-01,3.38162e-01,9.99999e-01,9.99999e-01,3.38162e-01,9.99999e-01
6.619607338e-01,3.45482e-01,9.99999e-01,9.99999e-01,3.45482e-01,9.99999e-01
6.652705375e-01,3.52811e-01,9.99999e-01,9.99999e-01,3.52811e-01,9.99999e-01
6.685968902e-01,3.60147e-01,9.99999e-01,9.99999e-01,3.60147e-01,9.99999e-01
6.719398746e-01,3.67485e-01,9.99999e-01,9.99999e-01,3.67485e-01,9.99999e-01
6.752995740e-01,3.74824e-01,9.99999e-01,9.99999e-01,3.74824e-01,9.99999e-01
6.786760719e-01,3.82160e-01,9.99999e-01,9.99999e-01,3.82160e-01,9.99999e-01
6.820694522e-01,3.89491e-01,9.99999e-01,9.99999e-01,3.89491e-01,9.99999e-01
6.854797995e-01,3.96813e-01,9.99999e-01,9.99999e-01,3.96813e-01,9.99999e-01
6.889071985e-01,4.04124e-01,9.99999e-01,9.99999e-01,4.04124e-01,9.99999e-01
6.923517345e-01,4.11422e-01,9.99999e-01,9.99999e-01,4.11422e-01,9.99999e-01
6.958134932e-01,4.18703e-01,9.99999e-01,9.99999e-01,4.18703e-01,9.99999e-01
6.992925606e-01,4.25965e-01,9.99999e-01,9.99999e-01,4.25965e-01,9.99999e-01
7.027890234e-01,4.33207e-01,9.99999e-01,9.99999e-01,4.33207e-01,9.99999e-01
7.063029686e-01,4.40424e-01,9.99999e-01,9.99999e-01,4.40424e-01,9.99999e-01
7.098344834e-01,4.47616e-01,9.99999e-01,9.99999e-01,4.47616e-01,9.99999e-01
7.133836558e-01,4.54780e-01,9.99999e-01,9.99999e-01,4.54780e-01,9.99999e-01
7.169505741e-01,4.61913e-01,9.99999e-01,9.99999e-01,4.61913e-01,9.99999e-01
7.205353270e-01,4.69014e-01,9.99999e-01,9.99999e-01,4.69014e-01,9.99999e-01
7.241380036e-01,4.76081e-01,9.99999e-01,9.99999e-01,4.76081e-01,9.99999e-01
7.277586936e-01,4.83112e-01,9.99999e-01,9.99999e-01,4.83112e-01,9.99999e-01
7.313974871e-01,4.90104e-01,9.99999e-01,9.99999e-01,4.90104e-01,9.99999e-01
7.350544745e-01,4.97057e-01,9.99999e-01,9.99999e-01,4.97057e-01,9.99999e-01
7.387297469e-01,5.03968e-01,9.99999e-01,9.99999e-01,5.03968e-01,9.99999e-01
7.424233956e-01,5.10835e-01,9.99999e-01,9.99999e-01,5.10835e-01,9.99999e-01
7.461355126e-01,5.17658e-01,9.99999e-01,9.99999e-01,5.17658e-01,9.99999e-01
7.498661902e-01,5.24435e-01,9.99999e-01,9.99999e-01,5.24435e-01,9.99999e-01
7.536155211e-01,5.31164e-01,9.99999e-01,9.99999e-01,5.31164e-01,9.99999e-01
7.573835987e-01,5.37843e-01,9.99999e-01,9.99999e-01,5.37843e-01,9.99999e-01
7.611705167e-01,5.44472e-01,9.99999e-01,9.99999e-01,5.44472e-01,9.99999e-01
7.649763693e-01,5.51050e-01,9.99999e-01,9.99999e-01,5.51050e-01,9.99999e-01
7.688012511e-01,5.57575e-01,9.99999e-01,9.99999e-01,5.57575e-01,9.99999e-01
7.726452574e-01,5.64046e-01,9.99999e-01,9.99999e-01,5.64046e-01,9.99999e-01
7.765084837e-01,5.70462e-01,9.99999e-01,9.99999e-01,5.70462e-01,9.99999e-01
7.803910261e-01,5.61898e-01,9.99999e-01,9.74128e-01,5.76822e-01,9.99999e-01
7.842929812e-01,5.19592e-01,9.99999e-01,8.91047e-01,5.83125e-01,9.99999e-01
7.882144461e-01,5.20888e-01,9.99999e-01,8.83803e-01,5.89370e-01,9.99999e-01
7.921555184e-01,5.54467e-01,9.99999e-01,9.31004e-01,5.95558e-01,9.99999e-01
7.961162960e-01,5.73552e-01,9.99999e-01,9.53241e-01,6.01685e-01,9.99999e-01
8.000968774e-01,5.92196e-01,9.99999e-01,9.74400e-01,6.07754e-01,9.99999e-01
8.040973618e-01,6.05566e-01,9.99999e-01,9.86646e-01,6.13761e-01,9.99999e-01
8.081178486e-01,6.15901e-01,9.99999e-01,9.93856e-01,6.19708e-01,9.99999e-01
8.121584379e-01,6.24401e-01,9.99999e-01,9.98094e-01,6.25593e-01,9.99999e-01
8.162192301e-01,6.31150e-01,9.99999e-01,9.99578e-01,6.31416e-01,9.99999e-01
8.203003262e-01,6.37172e-01,9.99999e-01,9.99993e-01,6.37177e-01,9.99999e-01
8.244018279e-01,6.42874e-01,9.99999e-01,9.99999e-01,6.42874e-01,9.99999e-01
8.285238370e-01,6.48509e-01,9.99999e-01,9.99999e-01,6.48509e-01,9.99999e-01
8.326664562e-01,6.54081e-01,9.99999e-01,9.99999e-01,6.54081e-01,9.99999e-01
8.368297885e-01,6.59588e-01,9.99999e-01,9.99999e-01,6.59588e-01,9.99999e-01
8.410139374e-01,6.65032e-01,9.99999e-01,9.99999e-01,6.65032e-01,9.99999e-01
8.452190071e-01,6.70412e-01,9.99999e-01,9.99999e-01,6.70412e-01,9.99999e-01
8.494451021e-01,6.75728e-01,9.99999e-01,9.99999e-01,6.75728e-01,9.99999e-01
8.536923276e-01,6.80980e-01,9.99999e-01,9.99999e-01,6.80980e-01,9.99999e-01
8.579607893e-01,6.86168e-01,9.99999e-01,9.99999e-01,6.86168e-01,9.99999e-01
8.622505932e-01,6.91292e-01,9.99999e-01,9.99999e-01,6.91292e-01,9.99999e-01
8.665618462e-01,6.53200e-01,9.99999e-01,9.38031e-01,6.96352e-01,9.99999e-01
8.708946554e-01,5.22387e-01,9.99999e-01,7.44833e-01,7.01347e-01,9.99999e-01
8.752491287e-01,5.57688e-01,9.99999e-01,7.89613e-01,7.06279e-01,9.99999e-01
8.796253743e-01,6.24979e-01,9.99999e-01,8.78832e-01,7.11147e-01,9.99999e-01
8.840235012e-01,6.69692e-01,9.99999e-01,9.35386e-01,7.15951e-01,9.99999e-01
8.884436187e-01,7.01969e-01,9.99999e-01,9.74020e-01,7.20692e-01,9.99999e-01
8.928858368e-01,7.17687e-01,9.99999e-01,9.89407e-01,7.25370e-01,9.99999e-01
8.973502660e-01,7.28098e-01,9.99999e-01,9.97413e-01,7.29985e-01,9.99999e-01
9.018370173e-01,7.34328e-01,9.99999e-01,9.99714e-01,7.34537e-01,9.99999e-01
9.063462024e-01,7.33663e-01,9.99999e-01,9.92740e-01,7.39027e-01,9.99999e-01
9.108779334e-01,7.31068e-01,9.99999e-01,9.83337e-01,7.43455e-01,9.99999e-01
9.154323231e-01,7.44872e-01,9.99999e-01,9.96056e-01,7.47821e-01,9.99999e-01
9.200094847e-01,7.09724e-01,9.99999e-01,9.43623e-01,7.52126e-01,9.99999e-01
9.246095321e-01,6.96621e-01,9.99999e-01,9.21005e-01,7.56370e-01,9.99999e-01
9.292325798e-01,7.13080e-01,9.99999e-01,9.37580e-01,7.60553e-01,9.99999e-01
9.338787427e-01,7.18432e-01,9.99999e-01,9.39524e-01,7.64676e-01,9.99999e-01
9.385481364e-01,7.34341e-01,9.99999e-01,9.55254e-01,7.68739e-01,9.99999e-01
9.432408771e-01,7.51389e-01,9.99999e-01,9.72365e-01,7.72743e-01,9.99999e-01
9.479570815e-01,7.65613e-01,9.99999e-01,9.85739e-01,7.76688e-01,9.99999e-01
9.526968669e-01,7.75186e-01,9.99999e-01,9.93095e-01,7.80575e-01,9.99999e-01
9.574603512e-01,7.82084e-01,9.99999e-01,9.97042e-01,7.84404e-01,9.99999e-01
9.622476530e-01,7.87447e-01,9.99999e-01,9.99076e-01,7.88175e-01,9.99999e-01
9.670588912e-01,7.91671e-01,9.99999e-01,9.99722e-01,7.91890e-01,9.99999e-01
9.718941857e-01,7.95532e-01,9.99999e-01,9.99979e-01,7.95548e-01,9.99999e-01
9.767536566e-01,7.99150e-01,9.99999e-01,9.99999e-01,7.99150e-01,9.99999e-01
9.816374249e-01,8.02697e-01,9.99999e-01,9.99999e-01,8.02697e-01,9.99999e-01
9.865456120e-01,8.06189e-01,9.99999e-01,9.99999e-01,8.06189e-01,9.99999e-01
9.914783401e-01,8.09627e-01,9.99999e-01,9.99999e-01,8.09627e-01,9.99999e-01
9.964357318e-01,8.13012e-01,9.99999e-01,9.99999e-01,8.13012e-01,9.99999e-01
1.001417910e+00,8.16343e-01,9.99999e-01,9.99999e-01,8.16343e-01,9.99999e-01
1.006425000e+00,8.19621e-01,9.99999e-01,9.99999e-01,8.19621e-01,9.99999e-01
1.011457125e+00,8.22848e-01,9.99999e-01,9.99999e-01,8.22848e-01,9.99999e-01
1.016514411e+00,8.26023e-01,9.99999e-01,9.99999e-01,8.26023e-01,9.99999e-01
1.021596983e+00,8.29117e-01,9.99999e-01,9.99962e-01,8.29148e-01,9.99999e-01
1.026704968e+00,8.29870e-01,9.99999e-01,9.97173e-01,8.32222e-01,9.99999e-01
1.031838492e+00,8.05349e-01,9.99999e-01,9.64205e-01,8.35246e-01,9.99999e-01
1.036997685e+00,1.65178e-01,9.99999e-01,1.97058e-01,8.38222e-01,9.99999e-01
1.042182673e+00,1.63136e-01,9.99999e-01,1.93944e-01,8.41149e-01,9.99999e-01
1.047393587e+00,1.72624e-01,9.99999e-01,2.04524e-01,8.44028e-01,9.99999e-01
1.052630555e+00,1.03052e-02,9.99999e-01,1.21688e-02,8.46859e-01,9.99999e-01
1.057893707e+00,2.30355e-02,9.99999e-01,2.71119e-02,8.49644e-01,9.99999e-01
1.063183176e+00,6.07210e-02,9.99999e-01,7.12367e-02,8.52383e-01,9.99999e-01
1.068499092e+00,1.40685e-01,9.99999e-01,1.64529e-01,8.55077e-01,9.99999e-01
1.073841587e+00,2.74322e-01,9.99999e-01,3.19825e-01,8.57725e-01,9.99999e-01
1.079210795e+00,4.18398e-01,9.99999e-01,4.86323e-01,8.60329e-01,9.99999e-01
1.084606849e+00,5.81072e-01,9.99999e-01,6.73402e-01,8.62889e-01,9.99999e-01
1.090029883e+00,7.05039e-01,9.99999e-01,8.14690e-01,8.65407e-01,9.99999e-01
1.095480033e+00,7.84530e-01,9.99999e-01,9.03959e-01,8.67881e-01,9.99999e-01
1.100957433e+00,8.29025e-01,9.99999e-01,9.52559e-01,8.70314e-01,9.99999e-01
1.106462220e+00,8.55339e-01,9.99999e-01,9.80100e-01,8.72705e-01,9.99999e-01
1.111994531e+00,8.68562e-01,9.99999e-01,9.92579e-01,8.75055e-01,9.99999e-01
1.117554504e+00,8.75770e-01,9.99999e-01,9.98181e-01,8.77365e-01,9.99999e-01
1.123142276e+00,8.79530e-01,9.99999e-01,9.99880e-01,8.79635e-01,9.99999e-01
1.128757988e+00,8.81866e-01,9.99999e-01,9.99999e-01,8.81866e-01,9.99999e-01
1.134401778e+00,8.84059e-01,9.99999e-01,9.99999e-01,8.84059e-01,9.99999e-01
1.140073787e+00,8.86213e-01,9.99999e-01,9.99999e-01,8.86213e-01,9.99999e-01
1.145774156e+00,8.88330e-01,9.99999e-01,9.99999e-01,8.88330e-01,9.99999e-01
1.151503026e+00,8.90411e-01,9.99999e-01,9.99999e-01,8.90411e-01,9.99999e-01
1.157260541e+00,8.92454e-01,9.99999e-01,9.99999e-01,8.92454e-01,9.99999e-01
1.163046844e+00,8.94462e-01,9.99999e-01,9.99999e-01,8.94462e-01,9.99999e-01
1.168862078e+00,8.96435e-01,9.99999e-01,9.99999e-01,8.96435e-01,9.99999e-01
1.174706389e+00,8.98373e-01,9.99999e-01,9.99999e-01,8.98373e-01,9.99999e-01
1.180579921e+00,9.00277e-01,9.99999e-01,9.99999e-01,9.00277e-01,9.99999e-01
1.186482820e+00,9.02143e-01,9.99999e-01,9.99994e-01,9.02147e-01,9.99999e-01
1.192415234e+00,8.94868e-01,9.99999e-01,9.89915e-01,9.03984e-01,9.99999e-01
1.198377311e+00,5.15748e-01,9.99999e-01,5.69391e-01,9.05788e-01,9.99999e-01
1.204369197e+00,4.81969e-09,9.99999e-01,5.31060e-09,9.07560e-01,9.99999e-01
1.210391043e+00,1.94696e-31,9.99999e-01,2.14117e-31,9.09300e-01,9.99999e-01
1.216442998e+00,1.96731e-27,9.99999e-01,2.15948e-27,9.11010e-01,9.99999e-01
1.222525213e+00,4.80998e-27,9.99999e-01,5.27012e-27,9.12688e-01,9.99999e-01
1.228637839e+00,6.40880e-21,9.99999e-01,7.00923e-21,9.14337e-01,9.99999e-01
1.234781029e+00,7.31612e-14,9.99999e-01,7.98741e-14,9.15956e-01,9.99999e-01
1.240954934e+00,2.11437e-09,9.99999e-01,2.30438e-09,9.17545e-01,9.99999e-01
1.247159708e+00,1.80814e-05,9.99999e-01,1.96728e-05,9.19106e-01,9.99999e-01
1.253395507e+00,1.77641e-03,9.99999e-01,1.92954e-03,9.20639e-01,9.99999e-01
1.259662485e+00,2.58689e-02,9.99999e-01,2.80530e-02,9.22144e-01,9.99999e-01
1.265960797e+00,1.15981e-01,9.99999e-01,1.25572e-01,9.23621e-01,9.99999e-01
1.272290601e+00,3.89689e-01,9.99999e-01,4.21252e-01,9.25072e-01,9.99999e-01
1.278652054e+00,3.37760e-01,9.99999e-01,3.64556e-01,9.26496e-01,9.99999e-01
1.285045314e+00,1.43880e-02,9.99999e-01,1.55061e-02,9.27894e-01,9.99999e-01
1.291470541e+00,2.16596e-04,9.99999e-01,2.33082e-04,9.29267e-01,9.99999e-01
1.297927893e+00,1.19500e-02,9.99999e-01,1.28409e-02,9.30615e-01,9.99999e-01
1.304417533e+00,1.93789e-01,9.99999e-01,2.07942e-01,9.31937e-01,9.99999e-01
1.310939621e+00,4.98700e-02,9.99999e-01,5.34377e-02,9.33236e-01,9.99999e-01
1.317494319e+00,2.77176e-11,9.99999e-01,2.96600e-11,9.34510e-01,9.99999e-01
1.324081790e+00,5.30436e-08,9.99999e-01,5.66849e-08,9.35761e-01,9.99999e-01
1.330702199e+00,9.97529e-05,9.99999e-01,1.06461e-04,9.36989e-01,9.99999e-01
1.337355710e+00,9.51589e-05,9.99999e-01,1.01428e-04,9.38195e-01,9.99999e-01
1.344042489e+00,2.84075e-05,9.99999e-01,3.02407e-05,9.39378e-01,9.99999e-01
1.350762701e+00,6.70016e-05,9.99999e-01,7.12373e-05,9.40539e-01,9.99999e-01
1.357516515e+00,1.91276e-03,9.99999e-01,2.03123e-03,9.41678e-01,9.99999e-01
1.364304097e+00,1.80248e-02,9.99999e-01,1.91184e-02,9.42797e-01,9.99999e-01
1.371125618e+00,1.18305e-01,9.99999e-01,1.25337e-01,9.43894e-01,9.99999e-01
1.377981246e+00,1.75604e-01,9.99999e-01,1.85830e-01,9.44971e-01,9.99999e-01
1.384871152e+00,3.55189e-01,9.99999e-01,3.75452e-01,9.46028e-01,9.99999e-01
1.391795508e+00,3.83090e-01,9.99999e-01,4.04501e-01,9.47066e-01,9.99999e-01
1.398754485e+00,5.42928e-01,9.99999e-01,5.72658e-01,9.48084e-01,9.99999e-01
1.405748258e+00,6.29194e-01,9.99999e-01,6.62949e-01,9.49083e-01,9.99999e-01
1.412776999e+00,7.32950e-01,9.99999e-01,7.71475e-01,9.50063e-01,9.99999e-01
1.419840884e+00,6.67349e-01,9.99999e-01,7.01716e-01,9.51025e-01,9.99999e-01
1.426940089e+00,7.32689e-02,9.99999e-01,7.69657e-02,9.51968e-01,9.99999e-01
1.434074789e+00,0.00000e+00,9.99999e-01,0.00000e+00,9.52894e-01,9.99999e-01
1.441245163e+00,0.00000e+00,9.99999e-01,0.00000e+00,9.53803e-01,9.99999e-01
1.448451389e+00,0.00000e+00,9.99999e-01,0.00000e+00,9.54694e-01,9.99999e-01
1.455693646e+00,1.47618e-248,9.99999e-01,1.54481e-248,9.55569e-01,9.99999e-01
1.462972114e+00,1.03334e-120,9.99999e-01,1.08041e-120,9.56427e-01,9.99999e-01
1.470286975e+00,5.39928e-51,9.99999e-01,5.64029e-51,9.57269e-01,9.99999e-01
