#,Wave/freq,Total,N2,CO2,Rayleigh,CIA
4.000000000e-01,9.58464e-09,9.99999e-01,9.99999e-01,9.58464e-09,9.99999e-01
4.020000000e-01,1.38078e-08,9.99999e-01,9.99999e-01,1.38078e-08,9.99999e-01
4.040100000e-01,1.97414e-08,9.99999e-01,9.99999e-01,1.97414e-08,9.99999e-01
4.060300500e-01,2.80261e-08,9.99999e-01,9.99999e-01,2.80261e-08,9.99999e-01
4.080602003e-01,3.95132e-08,9.99999e-01,9.99999e-01,3.95132e-08,9.99999e-01
4.101005013e-01,5.53318e-08,9.99999e-01,9.99999e-01,5.53318e-08,9.99999e-01
4.121510038e-01,7.69696e-08,9.99999e-01,9.99999e-01,7.69696e-08,9.99999e-01
4.142117588e-01,1.06373e-07,9.99999e-01,9.99999e-01,1.06373e-07,9.99999e-01
4.162828176e-01,1.46073e-07,9.99999e-01,9.99999e-01,1.46073e-07,9.99999e-01
4.183642317e-01,1.99336e-07,9.99999e-01,9.99999e-01,1.99336e-07,9.99999e-01
4.204560528e-01,2.70356e-07,9.99999e-01,9.99999e-01,2.70356e-07,9.99999e-01
4.225583331e-01,3.64478e-07,9.99999e-01,9.99999e-01,3.64478e-07,9.99999e-01
4.246711247e-01,4.88477e-07,9.99999e-01,9.99999e-01,4.88477e-07,9.99999e-01
4.267944804e-01,6.50886e-07,9.99999e-01,9.99999e-01,6.50886e-07,9.99999e-01
4.289284528e-01,8.62390e-07,9.99999e-01,9.99999e-01,8.62390e-07,9.99999e-01
4.310730950e-01,1.13629e-06,9.99999e-01,9.99999e-01,1.13629e-06,9.99999e-01
4.332284605e-01,1.48904e-06,9.99999e-01,9.99999e-01,1.48904e-06,9.99999e-01
4.353946028e-01,1.94092e-06,9.99999e-01,9.99999e-01,1.94092e-06,9.99999e-01
4.375715758e-01,2.51671e-06,9.99999e-01,9.99999e-01,2.51671e-06,9.99999e-01
4.397594337e-01,3.24661e-06,9.99999e-01,9.99999e-01,3.24661e-06,9.99999e-01
4.419582309e-01,4.16719e-06,9.99999e-01,9.99999e-01,4.16719e-06,9.99999e-01
4.441680220e-01,5.32249e-06,9.99999e-01,9.99999e-01,5.32249e-06,9.99999e-01
4.463888621e-01,6.76530e-06,9.99999e-01,9.99999e-01,6.76530e-06,9.99999e-01
4.486208064e-01,8.55858e-06,9.99999e-01,9.99999e-01,8.55858e-06,9.99999e-01
4.508639105e-01,1.07770e-05,9.99999e-01,9.99999e-01,1.07770e-05,9.99999e-01
4.531182300e-01,1.35089e-05,9.99999e-01,9.99999e-01,1.35089e-05,9.99999e-01
4.553838212e-01,1.68578e-05,9.99999e-01,9.99999e-01,1.68578e-05,9.99999e-01
4.576607403e-01,2.09452e-05,9.99999e-01,9.99999e-01,2.09452e-05,9.99999e-01
4.599490440e-01,2.59122e-05,9.99999e-01,9.99999e-01,2.59122e-05,9.99999e-01
4.622487892e-01,3.19227e-05,9.99999e-01,9.99999e-01,3.19227e-05,9.99999e-01
4.645600332e-01,3.91656e-05,9.99999e-01,9.99999e-01,3.91656e-05,9.99999e-01
4.668828333e-01,4.78581e-05,9.99999e-01,9.99999e-01,4.78581e-05,9.99999e-01
4.692172475e-01,5.82488e-05,9.99999e-01,9.99999e-01,5.82488e-05,9.99999e-01
4.715633337e-01,7.06209e-05,9.99999e-01,9.99999e-01,7.06209e-05,9.99999e-01
4.739211504e-01,8.52957e-05,9.99999e-01,9.99999e-01,8.52957e-05,9.99999e-01
4.762907561e-01,1.02636e-04,9.99999e-01,9.99999e-01,1.02636e-04,9.99999e-01
4.786722099e-01,1.23052e-04,9.99999e-01,9.99999e-01,1.23052e-04,9.99999e-01
4.810655710e-01,1.47000e-04,9.99999e-01,9.99999e-01,1.47000e-04,9.99999e-01
4.834708988e-01,1.74994e-04,9.99999e-01,9.99999e-01,1.74994e-04,9.99999e-01
4.858882533e-01,2.07603e-04,9.99999e-01,9.99999e-01,2.07603e-04,9.99999e-01
4.883176946e-01,2.45458e-04,9.99999e-01,9.99999e-01,2.45458e-04,9.99999e-01
4.907592831e-01,2.89257e-04,9.99999e-01,9.99999e-01,2.89257e-04,9.99999e-01
4.932130795e-01,3.39768e-04,9.99999e-01,9.99999e-01,3.39768e-04,9.99999e-01
4.956791449e-01,3.97832e-04,9.99999e-01,9.99999e-01,3.97832e-04,9.99999e-01
4.981575406e-01,4.64370e-04,9.99999e-01,9.99999e-01,4.64370e-04,9.99999e-01
5.006483283e-01,5.40383e-04,9.99999e-01,9.99999e-01,5.40383e-04,9.99999e-01
5.031515699e-01,6.26959e-04,9.99999e-01,9.99999e-01,6.26959e-04,9.99999e-01
5.056673278e-01,7.25273e-04,9.99999e-01,9.99999e-01,7.25273e-04,9.99999e-01
5.081956644e-01,8.36593e-04,9.99999e-01,9.99999e-01,8.36593e-04,9.99999e-01
5.107366428e-01,9.62282e-04,9.99999e-01,9.99999e-01,9.62282e-04,9.99999e-01
5.132903260e-01,1.10380e-03,9.99999e-01,9.99999e-01,1.10380e-03,9.99999e-01
5.158567776e-01,1.26270e-03,9.99999e-01,9.99999e-01,1.26270e-03,9.99999e-01
5.184360615e-01,1.44064e-03,9.99999e-01,9.99999e-01,1.44064e-03,9.99999e-01
5.210282418e-01,1.63939e-03,9.99999e-01,9.99999e-01,1.63939e-03,9.99999e-01
5.236333830e-01,1.86080e-03,9.99999e-01,9.99999e-01,1.86080e-03,9.99999e-01
5.262515499e-01,2.10683e-03,9.99999e-01,9.99999e-01,2.10683e-03,9.99999e-01
5.288828077e-01,2.37954e-03,9.99999e-01,9.99999e-01,2.37954e-03,9.99999e-01
5.315272217e-01,2.68111e-03,9.99999e-01,9.99999e-01,2.68111e-03,9.99999e-01
5.341848578e-01,3.01378e-03,9.99999e-01,9.99999e-01,3.01378e-03,9.99999e-01
5.368557821e-01,3.37991e-03,9.99999e-01,9.99999e-01,3.37991e-03,9.99999e-01
5.395400610e-01,3.78195e-03,9.99999e-01,9.99999e-01,3.78195e-03,9.99999e-01
5.422377613e-01,4.22242e-03,9.99999e-01,9.99999e-01,4.22242e-03,9.99999e-01
5.449489501e-01,4.70395e-03,9.99999e-01,9.99999e-01,4.70395e-03,9.99999e-01
5.476736949e-01,5.22923e-03,9.99999e-01,9.99999e-01,5.22923e-03,9.99999e-01
5.504120634e-01,5.80102e-03,9.99999e-01,9.99999e-01,5.80102e-03,9.99999e-01
5.531641237e-01,6.42215e-03,9.99999e-01,9.99999e-01,6.42215e-03,9.99999e-01
5.559299443e-01,7.09552e-03,9.99999e-01,9.99999e-01,7.09552e-03,9.99999e-01
5.587095940e-01,7.82407e-03,9.99999e-01,9.99999e-01,7.82407e-03,9.99999e-01
5.615031420e-01,8.61078e-03,9.99999e-01,9.99999e-01,8.61078e-03,9.99999e-01
5.643106577e-01,9.45868e-03,9.99999e-01,9.99999e-01,9.45868e-03,9.99999e-01
5.671322110e-01,1.03708e-02,9.99999e-01,9.99999e-01,1.03708e-02,9.99999e-01
5.699678720e-01,1.13502e-02,9.99999e-01,9.99999e-01,1.13502e-02,9.99999e-01
5.728177114e-01,1.24001e-02,9.99999e-01,9.99999e-01,1.24001e-02,9.99999e-01
5.756818000e-01,1.35233e-02,9.99999e-01,9.99999e-01,1.35233e-02,9.99999e-01
5.785602090e-01,1.47231e-02,9.99999e-01,9.99999e-01,1.47231e-02,9.99999e-01
5.814530100e-01,1.60024e-02,9.99999e-01,9.99999e-01,1.60024e-02,9.99999e-01
5.843602750e-01,1.73643e-02,9.99999e-01,9.99999e-01,1.73643e-02,9.99999e-01
5.872820764e-01,1.88117e-02,9.99999e-01,9.99999e-01,1.88117e-02,9.99999e-01
5.902184868e-01,2.03476e-02,9.99999e-01,9.99999e-01,2.03476e-02,9.99999e-01
5.931695792e-01,2.19748e-02,9.99999e-01,9.99999e-01,2.19748e-02,9.99999e-01
5.961354271e-01,2.36960e-02,9.99999e-01,9.99999e-01,2.36960e-02,9.99999e-01
5.991161043e-01,2.55140e-02,9.99999e-01,9.99999e-01,2.55140e-02,9.99999e-01
6.021116848e-01,2.74315e-02,9.99999e-01,9.99999e-01,2.74315e-02,9.99999e-01
6.051222432e-01,2.94508e-02,9.99999e-01,9.99999e-01,2.94508e-02,9.99999e-01
6.081478544e-01,3.15745e-02,9.99999e-01,9.99999e-01,3.15745e-02,9.99999e-01
6.111885937e-01,3.38048e-02,9.99999e-01,9.99999e-01,3.38048e-02,9.99999e-01
6.142445367e-01,3.61439e-02,9.99999e-01,9.99999e-01,3.61439e-02,9.99999e-01
6.173157594e-01,3.85938e-02,9.99999e-01,9.99999e-01,3.85938e-02,9.99999e-01
6.204023382e-01,4.11564e-02,9.99999e-01,9.99999e-01,4.11564e-02,9.99999e-01
6.235043498e-01,4.38334e-02,9.99999e-01,9.99999e-01,4.38334e-02,9.99999e-01
6.266218716e-01,4.66265e-02,9.99999e-01,9.99999e-01,4.66265e-02,9.99999e-01
6.297549810e-01,4.95371e-02,9.99999e-01,9.99999e-01,4.95371e-02,9.99999e-01
6.329037559e-01,5.25665e-02,9.99999e-01,9.99999e-01,5.25665e-02,9.99999e-01
6.360682746e-01,5.57158e-02,9.99999e-01,9.99999e-01,5.57158e-02,9.99999e-01
6.392486160e-01,5.89859e-02,9.99999e-01,9.99999e-01,5.89859e-02,9.99999e-01
6.424448591e-01,6.23777e-02,9.99999e-01,9.99999e-01,6.23777e-02,9.99999e-01
6.456570834e-01,6.58916e-02,9.99999e-01,9.99999e-01,6.58916e-02,9.99999e-01
6.488853688e-01,6.95283e-02,9.99999e-01,9.99999e-01,6.95283e-02,9.99999e-01
6.521297956e-01,7.32878e-02,9.99999e-01,9.99999e-01,7.32878e-02,9.99999e-01
6.553904446e-01,7.71703e-02,9.99999e-01,9.99999e-01,7.71703e-02,9.99999e-01
6.586673968e-01,8.11756e-02,9.99999e-01,9.99999e-01,8.11756e-02,9.99999e-01
6.619607338e-01,8.53035e-02,9.99999e-01,9.99999e-01,8.53035e-02,9.99999e-01
6.652705375e-01,8.95536e-02,9.99999e-01,9.99999e-01,8.95536e-02,9.99999e-01
6.685968902e-01,9.39252e-02,9.99999e-01,9.99999e-01,9.39252e-02,9.99999e-01
6.719398746e-01,9.84175e-02,9.99999e-01,9.99999e-01,9.84175e-02,9.99999e-01
6.752995740e-01,1.03029e-01,9.99999e-01,9.99999e-01,1.03029e-01,9.99999e-01
6.786760719e-01,1.07760e-01,9.99999e-01,9.99999e-01,1.07760e-01,9.99999e-01
6.820694522e-01,1.12608e-01,9.99999e-01,9.99999e-01,1.12608e-01,9.99999e-01
6.854797995e-01,1.17572e-01,9.99999e-01,9.99999e-01,1.17572e-01,9.99999e-01
6.889071985e-01,1.22650e-01,9.99999e-01,9.99999e-01,1.22650e-01,9.99999e-01
6.923517345e-01,1.27840e-01,9.99999e-01,9.99999e-01,1.27840e-01,9.99999e-01
6.958134932e-01,1.33142e-01,9.99999e-01,9.99999e-01,1.33142e-01,9.99999e-01
6.992925606e-01,1.38551e-01,9.99999e-01,9.99999e-01,1.38551e-01,9.99999e-01
7.027890234e-01,1.44067e-01,9.99999e-01,9.99999e-01,1.44067e-01,9.99999e-01
7.063029686e-01,1.49688e-01,9.99999e-01,9.99999e-01,1.49688e-01,9.99999e-01
7.098344834e-01,1.55410e-01,9.99999e-01,9.99999e-01,1.55410e-01,9.99999e-01
7.133836558e-01,1.61231e-01,9.99999e-01,9.99999e-01,1.61231e-01,9.99999e-01
7.169505741e-01,1.67149e-01,9.99999e-01,9.99999e-01,1.67149e-01,9.99999e-01
7.205353270e-01,1.73161e-01,9.99999e-01,9.99999e-01,1.73161e-01,9.99999e-01
7.241380036e-01,1.79263e-01,9.99999e-01,9.99999e-01,1.79263e-01,9.99999e-01
7.277586936e-01,1.85454e-01,9.99999e-01,9.99999e-01,1.85454e-01,9.99999e-01
7.313974871e-01,1.91730e-01,9.99999e-01,9.99999e-01,1.91730e-01,9.99999e-01
7.350544745e-01,1.98089e-01,9.99999e-01,9.99999e-01,1.98089e-01,9.99999e-01
7.387297469e-01,2.04526e-01,9.99999e-01,9.99999e-01,2.04526e-01,9.99999e-01
7.424233956e-01,2.11039e-01,9.99999e-01,9.99999e-01,2.11039e-01,9.99999e-01
7.461355126e-01,2.17625e-01,9.99999e-01,9.99999e-01,2.17625e-01,9.99999e-01
7.498661902e-01,2.24280e-01,9.99999e-01,9.99999e-01,2.24280e-01,9.99999e-01
7.536155211e-01,2.31001e-01,9.99999e-01,9.99999e-01,2.31001e-01,9.99999e-01
7.573835987e-01,2.37785e-01,9.99999e-01,9.99999e-01,2.37785e-01,9.99999e-01
7.611705167e-01,2.44628e-01,9.99999e-01,9.99999e-01,2.44628e-01,9.99999e-01
7.649763693e-01,2.51527e-01,9.99999e-01,9.99999e-01,2.51527e-01,9.99999e-01
7.688012511e-01,2.58478e-01,9.99999e-01,9.99999e-01,2.58478e-01,9.99999e-01
7.726452574e-01,2.65479e-01,9.99999e-01,9.99999e-01,2.65479e-01,9.99999e-01
7.765084837e-01,2.72526e-01,9.99999e-01,9.99999e-01,2.72526e-01,9.99999e-01
7.803910261e-01,2.64747e-01,9.99999e-01,9.46829e-01,2.79614e-01,9.99999e-01
7.842929812e-01,2.21110e-01,9.99999e-01,7.71110e-01,2.86742e-01,9.99999e-01
7.882144461e-01,2.23106e-01,9.99999e-01,7.59107e-01,2.93905e-01,9.99999e-01
7.921555184e-01,2.55550e-01,9.99999e-01,8.48720e-01,3.01100e-01,9.99999e-01
7.961162960e-01,2.75974e-01,9.99999e-01,8.95074e-01,3.08324e-01,9.99999e-01
8.000968774e-01,2.97182e-01,9.99999e-01,9.41719e-01,3.15574e-01,9.99999e-01
8.040973618e-01,3.12923e-01,9.99999e-01,9.69264e-01,3.22846e-01,9.99999e-01
8.081178486e-01,3.25453e-01,9.99999e-01,9.85813e-01,3.30137e-01,9.99999e-01
8.121584379e-01,3.35949e-01,9.99999e-01,9.95570e-01,3.37443e-01,9.99999e-01
8.162192301e-01,3.44425e-01,9.99999e-01,9.99019e-01,3.44763e-01,9.99999e-01
8.203003262e-01,3.52086e-01,9.99999e-01,9.99983e-01,3.52091e-01,9.99999e-01
8.244018279e-01,3.59426e-01,9.99999e-01,9.99999e-01,3.59426e-01,9.99999e-01
8.285238370e-01,3.66765e-01,9.99999e-01,9.99999e-01,3.66765e-01,9.99999e-01
8.326664562e-01,3.74104e-01,9.99999e-01,9.99999e-01,3.74104e-01,9.99999e-01
8.368297885e-01,3.81440e-01,9.99999e-01,9.99999e-01,3.81440e-01,9.99999e-01
8.410139374e-01,3.88771e-01,9.99999e-01,9.99999e-01,3.88771e-01,9.99999e-01
8.452190071e-01,3.96095e-01,9.99999e-01,9.99999e-01,3.96095e-01,9.99999e-01
8.494451021e-01,4.03407e-01,9.99999e-01,9.99999e-01,4.03407e-01,9.99999e-01
8.536923276e-01,4.10706e-01,9.99999e-01,9.99999e-01,4.10706e-01,9.99999e-01
8.579607893e-01,4.17989e-01,9.99999e-01,9.99999e-01,4.17989e-01,9.99999e-01
8.622505932e-01,4.25253e-01,9.99999e-01,9.99999e-01,4.25253e-01,9.99999e-01
8.665618462e-01,3.89849e-01,9.99999e-01,9.01391e-01,4.32497e-01,9.99999e-01
8.708946554e-01,2.30053e-01,9.99999e-01,5.23184e-01,4.39717e-01,9.99999e-01
8.752491287e-01,2.62831e-01,9.99999e-01,5.88105e-01,4.46911e-01,9.99999e-01
8.796253743e-01,3.37959e-01,9.99999e-01,7.44276e-01,4.54078e-01,9.99999e-01
8.840235012e-01,3.95321e-01,9.99999e-01,8.57130e-01,4.61214e-01,9.99999e-01
8.884436187e-01,4.40572e-01,9.99999e-01,9.40753e-01,4.68319e-01,9.99999e-01
8.928858368e-01,4.63786e-01,9.99999e-01,9.75593e-01,4.75389e-01,9.99999e-01
8.973502660e-01,4.79524e-01,9.99999e-01,9.93989e-01,4.82423e-01,9.99999e-01
9.018370173e-01,4.89094e-01,9.99999e-01,9.99334e-01,4.89419e-01,9.99999e-01
9.063462024e-01,4.88220e-01,9.99999e-01,9.83569e-01,4.96376e-01,9.99999e-01
9.108779334e-01,4.84080e-01,9.99999e-01,9.61828e-01,5.03291e-01,9.99999e-01
9.154323231e-01,5.05493e-01,9.99999e-01,9.90844e-01,5.10163e-01,9.99999e-01
9.200094847e-01,4.56293e-01,9.99999e-01,8.82594e-01,5.16990e-01,9.99999e-01
9.246095321e-01,4.33177e-01,9.99999e-01,8.27034e-01,5.23771e-01,9.99999e-01
9.292325798e-01,4.58103e-01,9.99999e-01,8.63522e-01,5.30505e-01,9.99999e-01
9.338787427e-01,4.65389e-01,9.99999e-01,8.66340e-01,5.37190e-01,9.99999e-01
9.385481364e-01,4.89256e-01,9.99999e-01,8.99657e-01,5.43824e-01,9.99999e-01
9.432408771e-01,5.15762e-01,9.99999e-01,9.37055e-01,5.50406e-01,9.99999e-01
9.479570815e-01,5.38700e-01,9.99999e-01,9.67254e-01,5.56936e-01,9.99999e-01
9.526968669e-01,5.54433e-01,9.99999e-01,9.84061e-01,5.63413e-01,9.99999e-01
9.574603512e-01,5.65930e-01,9.99999e-01,9.93148e-01,5.69834e-01,9.99999e-01
9.622476530e-01,5.74965e-01,9.99999e-01,9.97856e-01,5.76200e-01,9.99999e-01
9.670588912e-01,5.82134e-01,9.99999e-01,9.99356e-01,5.82508e-01,9.99999e-01
9.718941857e-01,5.88733e-01,9.99999e-01,9.99953e-01,5.88760e-01,9.99999e-01
9.767536566e-01,5.94953e-01,9.99999e-01,9.99999e-01,5.94953e-01,9.99999e-01
9.816374249e-01,6.01086e-01,9.99999e-01,9.99999e-01,6.01086e-01,9.99999e-01
9.865456120e-01,6.07160e-01,9.99999e-01,9.99999e-01,6.07160e-01,9.99999e-01
9.914783401e-01,6.13174e-01,9.99999e-01,9.99999e-01,6.13174e-01,9.99999e-01
9.964357318e-01,6.19127e-01,9.99999e-01,9.99999e-01,6.19127e-01,9.99999e-01
1.001417910e+00,6.25018e-01,9.99999e-01,9.99999e-01,6.25018e-01,9.99999e-01
1.006425000e+00,6.30847e-01,9.99999e-01,9.99999e-01,6.30847e-01,9.99999e-01
1.011457125e+00,6.36614e-01,9.99999e-01,9.99999e-01,6.36614e-01,9.99999e-01
1.016514411e+00,6.42318e-01,9.99999e-01,9.99999e-01,6.42318e-01,9.99999e-01
1.021596983e+00,6.47906e-01,9.99999e-01,9.99917e-01,6.47959e-01,9.99999e-01
1.026704968e+00,6.49322e-01,9.99999e-01,9.93551e-01,6.53536e-01,9.99999e-01
1.031838492e+00,6.18352e-01,9.99999e-01,9.38246e-01,6.59050e-01,9.99999e-01
1.036997685e+00,6.14313e-02,9.99999e-01,9.24473e-02,6.64501e-01,9.99999e-01
1.042182673e+00,2.00636e-02,9.99999e-01,2.99507e-02,6.69887e-01,9.99999e-01
1.047393587e+00,3.43034e-02,9.99999e-01,5.08040e-02,6.75209e-01,9.99999e-01
1.052630555e+00,1.15080e-04,9.99999e-01,1.69119e-04,6.80468e-01,9.99999e-01
1.057893707e+00,3.75248e-04,9.99999e-01,5.47279e-04,6.85662e-01,9.99999e-01
1.063183176e+00,2.57439e-03,9.99999e-01,3.72672e-03,6.90792e-01,9.99999e-01
1.068499092e+00,1.23598e-02,9.99999e-01,1.77620e-02,6.95858e-01,9.99999e-01
1.073841587e+00,5.37574e-02,9.99999e-01,7.67020e-02,7.00860e-01,9.99999e-01
1.079210795e+00,1.39035e-01,9.99999e-01,1.96989e-01,7.05798e-01,9.99999e-01
1.084606849e+00,2.87125e-01,9.99999e-01,4.04019e-01,7.10672e-01,9.99999e-01
1.090029883e+00,4.46295e-01,9.99999e-01,6.23767e-01,7.15482e-01,9.99999e-01
1.095480033e+00,5.70459e-01,9.99999e-01,7.92050e-01,7.20230e-01,9.99999e-01
1.100957433e+00,6.47768e-01,9.99999e-01,8.93578e-01,7.24914e-01,9.99999e-01
1.106462220e+00,6.96321e-01,9.99999e-01,9.54472e-01,7.29535e-01,9.99999e-01
1.111994531e+00,7.21519e-01,9.99999e-01,9.82870e-01,7.34093e-01,9.99999e-01
1.117554504e+00,7.35471e-01,9.99999e-01,9.95777e-01,7.38589e-01,9.99999e-01
1.123142276e+00,7.42816e-01,9.99999e-01,9.99720e-01,7.43023e-01,9.99999e-01
1.128757988e+00,7.47395e-01,9.99999e-01,9.99999e-01,7.47395e-01,9.99999e-01
1.134401778e+00,7.51706e-01,9.99999e-01,9.99999e-01,7.51706e-01,9.99999e-01
1.140073787e+00,7.55956e-01,9.99999e-01,9.99999e-01,7.55956e-01,9.99999e-01
1.145774156e+00,7.60145e-01,9.99999e-01,9.99999e-01,7.60145e-01,9.99999e-01
1.151503026e+00,7.64274e-01,9.99999e-01,9.99999e-01,7.64274e-01,9.99999e-01
1.157260541e+00,7.68343e-01,9.99999e-01,9.99999e-01,7.68343e-01,9.99999e-01
1.163046844e+00,7.72352e-01,9.99999e-01,9.99999e-01,7.72352e-01,9.99999e-01
1.168862078e+00,7.76303e-01,9.99999e-01,9.99999e-01,7.76303e-01,9.99999e-01
1.174706389e+00,7.80196e-01,9.99999e-01,9.99999e-01,7.80196e-01,9.99999e-01
1.180579921e+00,7.84030e-01,9.99999e-01,9.99999e-01,7.84030e-01,9.99999e-01
1.186482820e+00,7.87800e-01,9.99999e-01,9.99990e-01,7.87807e-01,9.99999e-01
1.192415234e+00,7.73739e-01,9.99999e-01,9.77525e-01,7.91527e-01,9.99999e-01
1.198377311e+00,4.33735e-01,9.99999e-01,5.45447e-01,7.95191e-01,9.99999e-01
1.204369197e+00,5.54773e-18,9.99999e-01,6.94508e-18,7.98799e-01,9.99999e-01
1.210391043e+00,7.69596e-70,9.99999e-01,9.59174e-70,8.02351e-01,9.99999e-01
1.216442998e+00,1.44382e-60,9.99999e-01,1.79167e-60,8.05849e-01,9.99999e-01
1.222525213e+00,1.13222e-59,9.99999e-01,1.39903e-59,8.09292e-01,9.99999e-01
1.228637839e+00,3.59430e-46,9.99999e-01,4.42276e-46,8.12682e-01,9.99999e-01
1.234781029e+00,3.81902e-29,9.99999e-01,4.68006e-29,8.16018e-01,9.99999e-01
1.240954934e+00,1.59563e-19,9.99999e-01,1.94754e-19,8.19302e-01,9.99999e-01
1.247159708e+00,5.61753e-10,9.99999e-01,6.82954e-10,8.22533e-01,9.99999e-01
1.253395507e+00,1.12127e-06,9.99999e-01,1.35794e-06,8.25714e-01,9.99999e-01
1.259662485e+00,3.59889e-04,9.99999e-01,4.34206e-04,8.28843e-01,9.99999e-01
1.265960797e+00,1.00429e-02,9.99999e-01,1.20719e-02,8.31922e-01,9.99999e-01
1.272290601e+00,1.02730e-01,9.99999e-01,1.23038e-01,8.34951e-01,9.99999e-01
1.278652054e+00,1.03488e-01,9.99999e-01,1.23504e-01,8.37932e-01,9.99999e-01
1.285045314e+00,8.69209e-04,9.99999e-01,1.03371e-03,8.40863e-01,9.99999e-01
1.291470541e+00,9.86124e-09,9.99999e-01,1.16874e-08,8.43747e-01,9.99999e-01
1.297927893e+00,2.66702e-04,9.99999e-01,3.15033e-04,8.46583e-01,9.99999e-01
1.304417533e+00,2.40239e-02,9.99999e-01,2.82843e-02,8.49373e-01,9.99999e-01
1.310939621e+00,5.83820e-03,9.99999e-01,6.85141e-03,8.52116e-01,9.99999e-01
1.317494319e+00,2.92788e-24,9.99999e-01,3.42516e-24,8.54814e-01,9.99999e-01
1.324081790e+00,2.92804e-16,9.99999e-01,3.41475e-16,8.57467e-01,9.99999e-01
1.330702199e+00,1.20166e-09,9.99999e-01,1.39715e-09,8.60075e-01,9.99999e-01
1.337355710e+00,4.27250e-09,9.99999e-01,4.95281e-09,8.62640e-01,9.99999e-01
1.344042489e+00,1.68334e-09,9.99999e-01,1.94569e-09,8.65161e-01,9.99999e-01
1.350762701e+00,6.50152e-10,9.99999e-01,7.49333e-10,8.67640e-01,9.99999e-01
1.357516515e+00,1.99074e-06,9.99999e-01,2.28800e-06,8.70077e-01,9.99999e-01
1.364304097e+00,1.21865e-04,9.99999e-01,1.39678e-04,8.72472e-01,9.99999e-01
1.371125618e+00,9.07675e-03,9.99999e-01,1.03755e-02,8.74826e-01,9.99999e-01
1.377981246e+00,1.86218e-02,9.99999e-01,2.12301e-02,8.77140e-01,9.99999e-01
1.384871152e+00,9.34110e-02,9.99999e-01,1.06220e-01,8.79414e-01,9.99999e-01
1.391795508e+00,1.10826e-01,9.99999e-01,1.25703e-01,8.81649e-01,9.99999e-01
1.398754485e+00,2.43497e-01,9.99999e-01,2.75497e-01,8.83845e-01,9.99999e-01
1.405748258e+00,3.44115e-01,9.99999e-01,3.88390e-01,8.86003e-01,9.99999e-01
1.412776999e+00,4.87543e-01,9.99999e-01,5.48958e-01,8.88124e-01,9.99999e-01
1.419840884e+00,4.42593e-01,9.99999e-01,4.97179e-01,8.90208e-01,9.99999e-01
1.426940089e+00,2.64237e-02,9.99999e-01,2.96144e-02,8.92255e-01,9.99999e-01
1.434074789e+00,0.00000e+00,9.99999e-01,0.00000e+00,8.94267e-01,9.99999e-01
1.441245163e+00,0.00000e+00,9.99999e-01,0.00000e+00,8.96243e-01,9.99999e-01
1.448451389e+00,0.00000e+00,9.99999e-01,0.00000e+00,8.98184e-01,9.99999e-01
1.455693646e+00,0.00000e+00,9.99999e-01,0.00000e+00,9.00091e-01,9.99999e-01
1.462972114e+00,1.43707e-276,9.99999e-01,1.59327e-276,9.01965e-01,9.99999e-01
1.470286975e+00,3.98952e-115,9.99999e-01,4.41414e-115,9.03805e-01,9.99999e-01
