#,Wave/freq,Total,N2,CO2,Rayleigh,CIA
4.000000000e-01,4.27337e-20,9.99999e-01,9.99999e-01,4.27337e-20,9.99999e-01
4.020000000e-01,1.03218e-19,9.99999e-01,9.99999e-01,1.03218e-19,9.99999e-01
4.040100000e-01,2.44783e-19,9.99999e-01,9.99999e-01,2.44783e-19,9.99999e-01
4.060300500e-01,5.70688e-19,9.99999e-01,9.99999e-01,5.70688e-19,9.99999e-01
4.080602003e-01,1.30844e-18,9.99999e-01,9.99999e-01,1.30844e-18,9.99999e-01
4.101005013e-01,2.95117e-18,9.99999e-01,9.99999e-01,2.95117e-18,9.99999e-01
4.121510038e-01,6.55020e-18,9.99999e-01,9.99999e-01,6.55020e-18,9.99999e-01
4.142117588e-01,1.43112e-17,9.99999e-01,9.99999e-01,1.43112e-17,9.99999e-01
4.162828176e-01,3.07889e-17,9.99999e-01,9.99999e-01,3.07889e-17,9.99999e-01
4.183642317e-01,6.52437e-17,9.99999e-01,9.99999e-01,6.52437e-17,9.99999e-01
4.204560528e-01,1.36220e-16,9.99999e-01,9.99999e-01,1.36220e-16,9.99999e-01
4.225583331e-01,2.80304e-16,9.99999e-01,9.99999e-01,2.80304e-16,9.99999e-01
4.246711247e-01,5.68627e-16,9.99999e-01,9.99999e-01,5.68627e-16,9.99999e-01
4.267944804e-01,1.13752e-15,9.99999e-01,9.99999e-01,1.13752e-15,9.99999e-01
4.289284528e-01,2.24460e-15,9.99999e-01,9.99999e-01,2.24460e-15,9.99999e-01
4.310730950e-01,4.37009e-15,9.99999e-01,9.99999e-01,4.37009e-15,9.99999e-01
4.332284605e-01,8.39704e-15,9.99999e-01,9.99999e-01,8.39704e-15,9.99999e-01
4.353946028e-01,1.59279e-14,9.99999e-01,9.99999e-01,1.59279e-14,9.99999e-01
4.375715758e-01,2.98333e-14,9.99999e-01,9.99999e-01,2.98333e-14,9.99999e-01
4.397594337e-01,5.51899e-14,9.99999e-01,9.99999e-01,5.51899e-14,9.99999e-01
4.419582309e-01,1.00865e-13,9.99999e-01,9.99999e-01,1.00865e-13,9.99999e-01
4.441680220e-01,1.82158e-13,9.99999e-01,9.99999e-01,1.82158e-13,9.99999e-01
4.463888621e-01,3.25152e-13,9.99999e-01,9.99999e-01,3.25152e-13,9.99999e-01
4.486208064e-01,5.73791e-13,9.99999e-01,9.99999e-01,5.73791e-13,9.99999e-01
4.508639105e-01,1.00126e-12,9.99999e-01,9.99999e-01,1.00126e-12,9.99999e-01
4.531182300e-01,1.72810e-12,9.99999e-01,9.99999e-01,1.72810e-12,9.99999e-01
4.553838212e-01,2.95056e-12,9.99999e-01,9.99999e-01,2.95056e-12,9.99999e-01
4.576607403e-01,4.98486e-12,9.99999e-01,9.99999e-01,4.98486e-12,9.99999e-01
4.599490440e-01,8.33493e-12,9.99999e-01,9.99999e-01,8.33493e-12,9.99999e-01
4.622487892e-01,1.37956e-11,9.99999e-01,9.99999e-01,1.37956e-11,9.99999e-01
4.645600332e-01,2.26078e-11,9.99999e-01,9.99999e-01,2.26078e-11,9.99999e-01
4.668828333e-01,3.66892e-11,9.99999e-01,9.99999e-01,3.66892e-11,9.99999e-01
4.692172475e-01,5.89746e-11,9.99999e-01,9.99999e-01,5.89746e-11,9.99999e-01
4.715633337e-01,9.39117e-11,9.99999e-01,9.99999e-01,9.39117e-11,9.99999e-01
4.739211504e-01,1.48178e-10,9.99999e-01,9.99999e-01,1.48178e-10,9.99999e-01
4.762907561e-01,2.31705e-10,9.99999e-01,9.99999e-01,2.31705e-10,9.99999e-01
4.786722099e-01,3.59129e-10,9.99999e-01,9.99999e-01,3.59129e-10,9.99999e-01
4.810655710e-01,5.51834e-10,9.99999e-01,9.99999e-01,5.51834e-10,9.99999e-01
4.834708988e-01,8.40776e-10,9.99999e-01,9.99999e-01,8.40776e-10,9.99999e-01
4.858882533e-01,1.27040e-09,9.99999e-01,9.99999e-01,1.27040e-09,9.99999e-01
4.883176946e-01,1.90397e-09,9.99999e-01,9.99999e-01,1.90397e-09,9.99999e-01
4.907592831e-01,2.83079e-09,9.99999e-01,9.99999e-01,2.83079e-09,9.99999e-01
4.932130795e-01,4.17594e-09,9.99999e-01,9.99999e-01,4.17594e-09,9.99999e-01
4.956791449e-01,6.11315e-09,9.99999e-01,9.99999e-01,6.11315e-09,9.99999e-01
4.981575406e-01,8.88191e-09,9.99999e-01,9.99999e-01,8.88191e-09,9.99999e-01
5.006483283e-01,1.28098e-08,9.99999e-01,9.99999e-01,1.28098e-08,9.99999e-01
5.031515699e-01,1.83417e-08,9.99999e-01,9.99999e-01,1.83417e-08,9.99999e-01
5.056673278e-01,2.60769e-08,9.99999e-01,9.99999e-01,2.60769e-08,9.99999e-01
5.081956644e-01,3.68174e-08,9.99999e-01,9.99999e-01,3.68174e-08,9.99999e-01
5.107366428e-01,5.16288e-08,9.99999e-01,9.99999e-01,5.16288e-08,9.99999e-01
5.132903260e-01,7.19168e-08,9.99999e-01,9.99999e-01,7.19168e-08,9.99999e-01
5.158567776e-01,9.95235e-08,9.99999e-01,9.99999e-01,9.95235e-08,9.99999e-01
5.184360615e-01,1.36847e-07,9.99999e-01,9.99999e-01,1.36847e-07,9.99999e-01
5.210282418e-01,1.86986e-07,9.99999e-01,9.99999e-01,1.86986e-07,9.99999e-01
5.236333830e-01,2.53927e-07,9.99999e-01,9.99999e-01,2.53927e-07,9.99999e-01
5.262515499e-01,3.42754e-07,9.99999e-01,9.99999e-01,3.42754e-07,9.99999e-01
5.288828077e-01,4.59920e-07,9.99999e-01,9.99999e-01,4.59920e-07,9.99999e-01
5.315272217e-01,6.13564e-07,9.99999e-01,9.99999e-01,6.13564e-07,9.99999e-01
5.341848578e-01,8.13889e-07,9.99999e-01,9.99999e-01,8.13889e-07,9.99999e-01
5.368557821e-01,1.07361e-06,9.99999e-01,9.99999e-01,1.07361e-06,9.99999e-01
5.395400610e-01,1.40848e-06,9.99999e-01,9.99999e-01,1.40848e-06,9.99999e-01
5.422377613e-01,1.83793e-06,9.99999e-01,9.99999e-01,1.83793e-06,9.99999e-01
5.449489501e-01,2.38574e-06,9.99999e-01,9.99999e-01,2.38574e-06,9.99999e-01
5.476736949e-01,3.08090e-06,9.99999e-01,9.99999e-01,3.08090e-06,9.99999e-01
5.504120634e-01,3.95859e-06,9.99999e-01,9.99999e-01,3.95859e-06,9.99999e-01
5.531641237e-01,5.06119e-06,9.99999e-01,9.99999e-01,5.06119e-06,9.99999e-01
5.559299443e-01,6.43957e-06,9.99999e-01,9.99999e-01,6.43957e-06,9.99999e-01
5.587095940e-01,8.15445e-06,9.99999e-01,9.99999e-01,8.15445e-06,9.99999e-01
5.615031420e-01,1.02780e-05,9.99999e-01,9.99999e-01,1.02780e-05,9.99999e-01
5.643106577e-01,1.28954e-05,9.99999e-01,9.99999e-01,1.28954e-05,9.99999e-01
5.671322110e-01,1.61070e-05,9.99999e-01,9.99999e-01,1.61070e-05,9.99999e-01
5.699678720e-01,2.00304e-05,9.99999e-01,9.99999e-01,2.00304e-05,9.99999e-01
5.728177114e-01,2.48023e-05,9.99999e-01,9.99999e-01,2.48023e-05,9.99999e-01
5.756818000e-01,3.05817e-05,9.99999e-01,9.99999e-01,3.05817e-05,9.99999e-01
5.785602090e-01,3.75522e-05,9.99999e-01,9.99999e-01,3.75522e-05,9.99999e-01
5.814530100e-01,4.59248e-05,9.99999e-01,9.99999e-01,4.59248e-05,9.99999e-01
5.843602750e-01,5.59413e-05,9.99999e-01,9.99999e-01,5.59413e-05,9.99999e-01
5.872820764e-01,6.78774e-05,9.99999e-01,9.99999e-01,6.78774e-05,9.99999e-01
5.902184868e-01,8.20463e-05,9.99999e-01,9.99999e-01,8.20463e-05,9.99999e-01
5.931695792e-01,9.88022e-05,9.99999e-01,9.99999e-01,9.88022e-05,9.99999e-01
5.961354271e-01,1.18544e-04,9.99999e-01,9.99999e-01,1.18544e-04,9.99999e-01
5.991161043e-01,1.41720e-04,9.99999e-01,9.99999e-01,1.41720e-04,9.99999e-01
6.021116848e-01,1.68830e-04,9.99999e-01,9.99999e-01,1.68830e-04,9.99999e-01
6.051222432e-01,2.00432e-04,9.99999e-01,9.99999e-01,2.00432e-04,9.99999e-01
6.081478544e-01,2.37144e-04,9.99999e-01,9.99999e-01,2.37144e-04,9.99999e-01
6.111885937e-01,2.79650e-04,9.99999e-01,9.99999e-01,2.79650e-04,9.99999e-01
6.142445367e-01,3.28702e-04,9.99999e-01,9.99999e-01,3.28702e-04,9.99999e-01
6.173157594e-01,3.85127e-04,9.99999e-01,9.99999e-01,3.85127e-04,9.99999e-01
6.204023382e-01,4.49829e-04,9.99999e-01,9.99999e-01,4.49829e-04,9.99999e-01
6.235043498e-01,5.23790e-04,9.99999e-01,9.99999e-01,5.23790e-04,9.99999e-01
6.266218716e-01,6.08082e-04,9.99999e-01,9.99999e-01,6.08082e-04,9.99999e-01
6.297549810e-01,7.03861e-04,9.99999e-01,9.99999e-01,7.03861e-04,9.99999e-01
6.329037559e-01,8.12376e-04,9.99999e-01,9.99999e-01,8.12376e-04,9.99999e-01
6.360682746e-01,9.34968e-04,9.99999e-01,9.99999e-01,9.34968e-04,9.99999e-01
6.392486160e-01,1.07308e-03,9.99999e-01,9.99999e-01,1.07308e-03,9.99999e-01
6.424448591e-01,1.22824e-03,9.99999e-01,9.99999e-01,1.22824e-03,9.99999e-01
6.456570834e-01,1.40210e-03,9.99999e-01,9.99999e-01,1.40210e-03,9.99999e-01
6.488853688e-01,1.59638e-03,9.99999e-01,9.99999e-01,1.59638e-03,9.99999e-01
6.521297956e-01,1.81293e-03,9.99999e-01,9.99999e-01,1.81293e-03,9.99999e-01
6.553904446e-01,2.05369e-03,9.99999e-01,9.99999e-01,2.05369e-03,9.99999e-01
6.586673968e-01,2.32070e-03,9.99999e-01,9.99999e-01,2.32070e-03,9.99999e-01
6.619607338e-01,2.61610e-03,9.99999e-01,9.99999e-01,2.61610e-03,9.99999e-01
6.652705375e-01,2.94213e-03,9.99999e-01,9.99999e-01,2.94213e-03,9.99999e-01
6.685968902e-01,3.30113e-03,9.99999e-01,9.99999e-01,3.30113e-03,9.99999e-01
6.719398746e-01,3.69551e-03,9.99999e-01,9.99999e-01,3.69551e-03,9.99999e-01
6.752995740e-01,4.12780e-03,9.99999e-01,9.99999e-01,4.12780e-03,9.99999e-01
6.786760719e-01,4.60060e-03,9.99999e-01,9.99999e-01,4.60060e-03,9.99999e-01
6.820694522e-01,5.11658e-03,9.99999e-01,9.99999e-01,5.11658e-03,9.99999e-01
6.854797995e-01,5.67849e-03,9.99999e-01,9.99999e-01,5.67849e-03,9.99999e-01
6.889071985e-01,6.28916e-03,9.99999e-01,9.99999e-01,6.28916e-03,9.99999e-01
6.923517345e-01,6.95145e-03,9.99999e-01,9.99999e-01,6.95145e-03,9.99999e-01
6.958134932e-01,7.66832e-03,9.99999e-01,9.99999e-01,7.66832e-03,9.99999e-01
6.992925606e-01,8.44272e-03,9.99999e-01,9.99999e-01,8.44272e-03,9.99999e-01
7.027890234e-01,9.27768e-03,9.99999e-01,9.99999e-01,9.27768e-03,9.99999e-01
7.063029686e-01,1.01762e-02,9.99999e-01,9.99999e-01,1.01762e-02,9.99999e-01
7.098344834e-01,1.11415e-02,9.99999e-01,9.99999e-01,1.11415e-02,9.99999e-01
7.133836558e-01,1.21764e-02,9.99999e-01,9.99999e-01,1.21764e-02,9.99999e-01
7.169505741e-01,1.32842e-02,9.99999e-01,9.99999e-01,1.32842e-02,9.99999e-01
7.205353270e-01,1.44679e-02,9.99999e-01,9.99999e-01,1.44679e-02,9.99999e-01
7.241380036e-01,1.57305e-02,9.99999e-01,9.99999e-01,1.57305e-02,9.99999e-01
7.277586936e-01,1.70750e-02,9.99999e-01,9.99999e-01,1.70750e-02,9.99999e-01
7.313974871e-01,1.85044e-02,9.99999e-01,9.99999e-01,1.85044e-02,9.99999e-01
7.350544745e-01,2.00217e-02,9.99999e-01,9.99999e-01,2.00217e-02,9.99999e-01
7.387297469e-01,2.16297e-02,9.99999e-01,9.99999e-01,2.16297e-02,9.99999e-01
7.424233956e-01,2.33312e-02,9.99999e-01,9.99999e-01,2.33312e-02,9.99999e-01
7.461355126e-01,2.51290e-02,9.99999e-01,9.99999e-01,2.51290e-02,9.99999e-01
7.498661902e-01,2.70256e-02,9.99999e-01,9.99999e-01,2.70256e-02,9.99999e-01
7.536155211e-01,2.90236e-02,9.99999e-01,9.99999e-01,2.90236e-02,9.99999e-01
7.573835987e-01,3.11255e-02,9.99999e-01,9.99999e-01,3.11255e-02,9.99999e-01
7.611705167e-01,3.33335e-02,9.99999e-01,9.99999e-01,3.33335e-02,9.99999e-01
7.649763693e-01,3.56498e-02,9.99999e-01,9.99999e-01,3.56498e-02,9.99999e-01
7.688012511e-01,3.80766e-02,9.99999e-01,9.99999e-01,3.80766e-02,9.99999e-01
7.726452574e-01,4.06157e-02,9.99999e-01,9.99999e-01,4.06157e-02,9.99999e-01
7.765084837e-01,4.32688e-02,9.99999e-01,9.99999e-01,4.32688e-02,9.99999e-01
7.803910261e-01,4.11044e-02,9.99999e-01,8.92840e-01,4.60378e-02,9.99999e-01
7.842929812e-01,2.71009e-02,9.99999e-01,5.53940e-01,4.89239e-02,9.99999e-01
7.882144461e-01,2.79738e-02,9.99999e-01,5.38698e-01,5.19285e-02,9.99999e-01
7.921555184e-01,3.73168e-02,9.99999e-01,6.77836e-01,5.50529e-02,9.99999e-01
7.961162960e-01,4.47202e-02,9.99999e-01,7.67098e-01,5.82979e-02,9.99999e-01
8.000968774e-01,5.33938e-02,9.99999e-01,8.65877e-01,6.16643e-02,9.99999e-01
8.040973618e-01,6.04522e-02,9.99999e-01,9.27849e-01,6.51529e-02,9.99999e-01
8.081178486e-01,6.64390e-02,9.99999e-01,9.66187e-01,6.87641e-02,9.99999e-01
8.121584379e-01,7.17308e-02,9.99999e-01,9.89415e-01,7.24981e-02,9.99999e-01
8.162192301e-01,7.61759e-02,9.99999e-01,9.97652e-01,7.63551e-02,9.99999e-01
8.203003262e-01,8.03321e-02,9.99999e-01,9.99963e-01,8.03350e-02,9.99999e-01
8.244018279e-01,8.44375e-02,9.99999e-01,9.99999e-01,8.44375e-02,9.99999e-01
8.285238370e-01,8.86623e-02,9.99999e-01,9.99999e-01,8.86623e-02,9.99999e-01
8.326664562e-01,9.30088e-02,9.99999e-01,9.99999e-01,9.30088e-02,9.99999e-01
8.368297885e-01,9.74761e-02,9.99999e-01,9.99999e-01,9.74761e-02,9.99999e-01
8.410139374e-01,1.02063e-01,9.99999e-01,9.99999e-01,1.02063e-01,9.99999e-01
8.452190071e-01,1.06769e-01,9.99999e-01,9.99999e-01,1.06769e-01,9.99999e-01
8.494451021e-01,1.11593e-01,9.99999e-01,9.99999e-01,1.11593e-01,9.99999e-01
8.536923276e-01,1.16533e-01,9.99999e-01,9.99999e-01,1.16533e-01,9.99999e-01
8.579607893e-01,1.21588e-01,9.99999e-01,9.99999e-01,1.21588e-01,9.99999e-01
8.622505932e-01,1.26755e-01,9.99999e-01,9.99999e-01,1.26755e-01,9.99999e-01
8.665618462e-01,1.12599e-01,9.99999e-01,8.52810e-01,1.32033e-01,9.99999e-01
8.708946554e-01,3.28084e-02,9.99999e-01,2.38744e-01,1.37421e-01,9.99999e-01
8.752491287e-01,4.24322e-02,9.99999e-01,2.96905e-01,1.42915e-01,9.99999e-01
8.796253743e-01,7.46391e-02,9.99999e-01,5.02573e-01,1.48514e-01,9.99999e-01
8.840235012e-01,1.06913e-01,9.99999e-01,6.93272e-01,1.54215e-01,9.99999e-01
8.884436187e-01,1.38278e-01,9.99999e-01,8.64151e-01,1.60016e-01,9.99999e-01
8.928858368e-01,1.56353e-01,9.99999e-01,9.42371e-01,1.65914e-01,9.99999e-01
8.973502660e-01,1.69442e-01,9.99999e-01,9.85661e-01,1.71906e-01,9.99999e-01
9.018370173e-01,1.77707e-01,9.99999e-01,9.98408e-01,1.77991e-01,9.99999e-01
9.063462024e-01,1.77035e-01,9.99999e-01,9.61293e-01,1.84164e-01,9.99999e-01
9.108779334e-01,1.73451e-01,9.99999e-01,9.10874e-01,1.90422e-01,9.99999e-01
9.154323231e-01,1.92487e-01,9.99999e-01,9.78261e-01,1.96764e-01,9.99999e-01
9.200094847e-01,1.56599e-01,9.99999e-01,7.70722e-01,2.03185e-01,9.99999e-01
9.246095321e-01,1.33353e-01,9.99999e-01,6.35973e-01,2.09682e-01,9.99999e-01
9.292325798e-01,1.53158e-01,9.99999e-01,7.08235e-01,2.16253e-01,9.99999e-01
9.338787427e-01,1.58678e-01,9.99999e-01,7.11897e-01,2.22894e-01,9.99999e-01
9.385481364e-01,1.78337e-01,9.99999e-01,7.76722e-01,2.29602e-01,9.99999e-01
9.432408771e-01,2.02213e-01,9.99999e-01,8.55483e-01,2.36373e-01,9.99999e-01
9.479570815e-01,2.24469e-01,9.99999e-01,9.22965e-01,2.43204e-01,9.99999e-01
9.526968669e-01,2.40619e-01,9.99999e-01,9.62123e-01,2.50092e-01,9.99999e-01
9.574603512e-01,2.52817e-01,9.99999e-01,9.83597e-01,2.57033e-01,9.99999e-01
9.622476530e-01,2.62665e-01,9.99999e-01,9.94852e-01,2.64024e-01,9.99999e-01
9.670588912e-01,2.70642e-01,9.99999e-01,9.98454e-01,2.71061e-01,9.99999e-01
9.718941857e-01,2.78111e-01,9.99999e-01,9.99890e-01,2.78141e-01,9.99999e-01
9.767536566e-01,2.85261e-01,9.99999e-01,9.99999e-01,2.85261e-01,9.99999e-01
9.816374249e-01,2.92417e-01,9.99999e-01,9.99999e-01,2.92417e-01,9.99999e-01
9.865456120e-01,2.99606e-01,9.99999e-01,9.99999e-01,2.99606e-01,9.99999e-01
9.914783401e-01,3.06824e-01,9.99999e-01,9.99999e-01,3.06824e-01,9.99999e-01
9.964357318e-01,3.14069e-01,9.99999e-01,9.99999e-01,3.14069e-01,9.99999e-01
1.001417910e+00,3.21336e-01,9.99999e-01,9.99999e-01,3.21336e-01,9.99999e-01
1.006425000e+00,3.28624e-01,9.99999e-01,9.99999e-01,3.28624e-01,9.99999e-01
1.011457125e+00,3.35927e-01,9.99999e-01,9.99999e-01,3.35927e-01,9.99999e-01
1.016514411e+00,3.43244e-01,9.99999e-01,9.99999e-01,3.43244e-01,9.99999e-01
1.021596983e+00,3.50498e-01,9.99999e-01,9.99790e-01,3.50571e-01,9.99999e-01
1.026704968e+00,3.52336e-01,9.99999e-01,9.84439e-01,3.57905e-01,9.99999e-01
1.031838492e+00,3.23665e-01,9.99999e-01,8.86163e-01,3.65243e-01,9.99999e-01
1.036997685e+00,1.32942e-02,9.99999e-01,3.56812e-02,3.72582e-01,9.99999e-01
1.042182673e+00,3.22133e-04,9.99999e-01,8.47897e-04,3.79919e-01,9.99999e-01
1.047393587e+00,9.52412e-04,9.99999e-01,2.45941e-03,3.87252e-01,9.99999e-01
1.052630555e+00,9.31761e-09,9.99999e-01,2.36142e-08,3.94577e-01,9.99999e-01
1.057893707e+00,3.47836e-08,9.99999e-01,8.65496e-08,4.01892e-01,9.99999e-01
1.063183176e+00,2.87791e-06,9.99999e-01,7.03313e-06,4.09194e-01,9.99999e-01
1.068499092e+00,4.61505e-05,9.99999e-01,1.10811e-04,4.16480e-01,9.99999e-01
1.073841587e+00,1.11760e-03,9.99999e-01,2.63742e-03,4.23748e-01,9.99999e-01
1.079210795e+00,1.06210e-02,9.99999e-01,2.46429e-02,4.30996e-01,9.99999e-01
1.084606849e+00,5.20597e-02,9.99999e-01,1.18798e-01,4.38222e-01,9.99999e-01
1.090029883e+00,1.45332e-01,9.99999e-01,3.26280e-01,4.45421e-01,9.99999e-01
1.095480033e+00,2.59703e-01,9.99999e-01,5.73810e-01,4.52594e-01,9.99999e-01
1.100957433e+00,3.51030e-01,9.99999e-01,7.63545e-01,4.59737e-01,9.99999e-01
1.106462220e+00,4.17429e-01,9.99999e-01,8.94142e-01,4.66848e-01,9.99999e-01
1.111994531e+00,4.54635e-01,9.99999e-01,9.59295e-01,4.73926e-01,9.99999e-01
1.117554504e+00,4.76109e-01,9.99999e-01,9.89897e-01,4.80968e-01,9.99999e-01
1.123142276e+00,4.87646e-01,9.99999e-01,9.99332e-01,4.87972e-01,9.99999e-01
1.128757988e+00,4.94937e-01,9.99999e-01,9.99999e-01,4.94937e-01,9.99999e-01
1.134401778e+00,5.01861e-01,9.99999e-01,9.99999e-01,5.01861e-01,9.99999e-01
1.140073787e+00,5.08742e-01,9.99999e-01,9.99999e-01,5.08742e-01,9.99999e-01
1.145774156e+00,5.15578e-01,9.99999e-01,9.99999e-01,5.15578e-01,9.99999e-01
1.151503026e+00,5.22369e-01,9.99999e-01,9.99999e-01,5.22369e-01,9.99999e-01
1.157260541e+00,5.29113e-01,9.99999e-01,9.99999e-01,5.29113e-01,9.99999e-01
1.163046844e+00,5.35808e-01,9.99999e-01,9.99999e-01,5.35808e-01,9.99999e-01
1.168862078e+00,5.42452e-01,9.99999e-01,9.99999e-01,5.42452e-01,9.99999e-01
1.174706389e+00,5.49046e-01,9.99999e-01,9.99999e-01,5.49046e-01,9.99999e-01
1.180579921e+00,5.55587e-01,9.99999e-01,9.99999e-01,5.55587e-01,9.99999e-01
1.186482820e+00,5.62059e-01,9.99999e-01,9.99972e-01,5.62074e-01,9.99999e-01
1.192415234e+00,5.39057e-01,9.99999e-01,9.48197e-01,5.68507e-01,9.99999e-01
1.198377311e+00,2.86026e-01,9.99999e-01,4.97537e-01,5.74884e-01,9.99999e-01
1.204369197e+00,3.02675e-40,9.99999e-01,5.20770e-40,5.81205e-01,9.99999e-01
1.210391043e+00,1.67930e-165,9.99999e-01,2.85853e-165,5.87468e-01,9.99999e-01
1.216442998e+00,4.21957e-143,9.99999e-01,7.10755e-143,5.93673e-01,9.99999e-01
1.222525213e+00,6.08166e-141,9.99999e-01,1.01391e-140,5.99819e-01,9.99999e-01
1.228637839e+00,1.48509e-108,9.99999e-01,2.45103e-108,6.05906e-01,9.99999e-01
1.234781029e+00,3.30316e-67,9.99999e-01,5.39792e-67,6.11932e-01,9.99999e-01
1.240954934e+00,2.28797e-44,9.99999e-01,3.70284e-44,6.17897e-01,9.99999e-01
1.247159708e+00,6.48926e-21,9.99999e-01,1.04028e-20,6.23801e-01,9.99999e-01
1.253395507e+00,2.91963e-14,9.99999e-01,4.63695e-14,6.29643e-01,9.99999e-01
1.259662485e+00,2.49141e-08,9.99999e-01,3.92087e-08,6.35423e-01,9.99999e-01
1.265960797e+00,6.35354e-05,9.99999e-01,9.90975e-05,6.41140e-01,9.99999e-01
1.272290601e+00,7.38928e-03,9.99999e-01,1.14245e-02,6.46794e-01,9.99999e-01
1.278652054e+00,7.46668e-03,9.99999e-01,1.14452e-02,6.52385e-01,9.99999e-01
1.285045314e+00,1.97026e-06,9.99999e-01,2.99471e-06,6.57912e-01,9.99999e-01
1.291470541e+00,4.94978e-19,9.99999e-01,7.46150e-19,6.63376e-01,9.99999e-01
1.297927893e+00,7.53908e-08,9.99999e-01,1.12730e-07,6.68775e-01,9.99999e-01
1.304417533e+00,1.74053e-04,9.99999e-01,2.58196e-04,6.74111e-01,9.99999e-01
1.310939621e+00,5.02380e-05,9.99999e-01,7.39465e-05,6.79382e-01,9.99999e-01
1.317494319e+00,9.35277e-56,9.99999e-01,1.36618e-55,6.84590e-01,9.99999e-01
1.324081790e+00,2.68279e-36,9.99999e-01,3.88960e-36,6.89733e-01,9.99999e-01
1.330702199e+00,1.33852e-21,9.99999e-01,1.92644e-21,6.94812e-01,9.99999e-01
1.337355710e+00,1.46130e-19,9.99999e-01,2.08808e-19,6.99828e-01,9.99999e-01
1.344042489e+00,9.02717e-20,9.99999e-01,1.28085e-19,7.04779e-01,9.99999e-01
1.350762701e+00,6.14407e-22,9.99999e-01,8.65768e-22,7.09666e-01,9.99999e-01
1.357516515e+00,4.70917e-13,9.99999e-01,6.59094e-13,7.14490e-01,9.99999e-01
1.364304097e+00,1.06055e-09,9.99999e-01,1.47452e-09,7.19250e-01,9.99999e-01
1.371125618e+00,2.37097e-05,9.99999e-01,3.27506e-05,7.23948e-01,9.99999e-01
1.377981246e+00,8.95185e-05,9.99999e-01,1.22867e-04,7.28582e-01,9.99999e-01
1.384871152e+00,3.73630e-03,9.99999e-01,5.09621e-03,7.33153e-01,9.99999e-01
1.391795508e+00,5.84738e-03,9.99999e-01,7.92690e-03,7.37662e-01,9.99999e-01
1.398754485e+00,3.36501e-02,9.99999e-01,4.53438e-02,7.42109e-01,9.99999e-01
1.405748258e+00,7.94702e-02,9.99999e-01,1.06458e-01,7.46494e-01,9.99999e-01
1.412776999e+00,1.79231e-01,9.99999e-01,2.38714e-01,7.50817e-01,9.99999e-01
1.419840884e+00,1.78954e-01,9.99998e-01,2.37000e-01,7.55079e-01,9.99999e-01
1.426940089e+00,5.22122e-03,9.99998e-01,6.87653e-03,7.59281e-01,9.99999e-01
1.434074789e+00,0.00000e+00,9.99998e-01,0.00000e+00,7.63422e-01,9.99999e-01
1.441245163e+00,0.00000e+00,9.99999e-01,0.00000e+00,7.67504e-01,9.99999e-01
1.448451389e+00,0.00000e+00,9.99998e-01,0.00000e+00,7.71526e-01,9.99999e-01
1.455693646e+00,0.00000e+00,9.99999e-01,0.00000e+00,7.75489e-01,9.99999e-01
1.462972114e+00,0.00000e+00,9.99999e-01,0.00000e+00,7.79393e-01,9.99999e-01
1.470286975e+00,7.55077e-275,9.99999e-01,9.64042e-275,7.83240e-01,9.99999e-01
