#,Wave/freq,Total,N2,CO2,Rayleigh,CIA
4.000000000e-01,5.26059e-24,9.99999e-01,9.99999e-01,5.26059e-24,9.99999e-01
4.020000000e-01,1.51822e-23,9.99999e-01,9.99999e-01,1.51822e-23,9.99999e-01
4.040100000e-01,4.28608e-23,9.99999e-01,9.99999e-01,4.28608e-23,9.99999e-01
4.060300500e-01,1.18545e-22,9.99999e-01,9.99999e-01,1.18545e-22,9.99999e-01
4.080602003e-01,3.21349e-22,9.99999e-01,9.99999e-01,3.21349e-22,9.99999e-01
4.101005013e-01,8.54118e-22,9.99999e-01,9.99999e-01,8.54118e-22,9.99999e-01
4.121510038e-01,2.22675e-21,9.99999e-01,9.99999e-01,2.22675e-21,9.99999e-01
4.142117588e-01,5.69649e-21,9.99999e-01,9.99999e-01,5.69649e-21,9.99999e-01
4.162828176e-01,1.43049e-20,9.99999e-01,9.99999e-01,1.43049e-20,9.99999e-01
4.183642317e-01,3.52746e-20,9.99999e-01,9.99999e-01,3.52746e-20,9.99999e-01
4.204560528e-01,8.54473e-20,9.99999e-01,9.99999e-01,8.54473e-20,9.99999e-01
4.225583331e-01,2.03397e-19,9.99999e-01,9.99999e-01,2.03397e-19,9.99999e-01
4.246711247e-01,4.75939e-19,9.99999e-01,9.99999e-01,4.75939e-19,9.99999e-01
4.267944804e-01,1.09513e-18,9.99999e-01,9.99999e-01,1.09513e-18,9.99999e-01
4.289284528e-01,2.47873e-18,9.99999e-01,9.99999e-01,2.47873e-18,9.99999e-01
4.310730950e-01,5.52061e-18,9.99999e-01,9.99999e-01,5.52061e-18,9.99999e-01
4.332284605e-01,1.21025e-17,9.99999e-01,9.99999e-01,1.21025e-17,9.99999e-01
4.353946028e-01,2.61235e-17,9.99999e-01,9.99999e-01,2.61235e-17,9.99999e-01
4.375715758e-01,5.55374e-17,9.99999e-01,9.99999e-01,5.55374e-17,9.99999e-01
4.397594337e-01,1.16324e-16,9.99999e-01,9.99999e-01,1.16324e-16,9.99999e-01
4.419582309e-01,2.40111e-16,9.99999e-01,9.99999e-01,2.40111e-16,9.99999e-01
4.441680220e-01,4.88583e-16,9.99999e-01,9.99999e-01,4.88583e-16,9.99999e-01
4.463888621e-01,9.80324e-16,9.99999e-01,9.99999e-01,9.80324e-16,9.99999e-01
4.486208064e-01,1.94012e-15,9.99999e-01,9.99999e-01,1.94012e-15,9.99999e-01
4.508639105e-01,3.78817e-15,9.99999e-01,9.99999e-01,3.78817e-15,9.99999e-01
4.531182300e-01,7.29947e-15,9.99999e-01,9.99999e-01,7.29947e-15,9.99999e-01
4.553838212e-01,1.38844e-14,9.99999e-01,9.99999e-01,1.38844e-14,9.99999e-01
4.576607403e-01,2.60763e-14,9.99999e-01,9.99999e-01,2.60763e-14,9.99999e-01
4.599490440e-01,4.83680e-14,9.99999e-01,9.99999e-01,4.83680e-14,9.99999e-01
4.622487892e-01,8.86281e-14,9.99999e-01,9.99999e-01,8.86281e-14,9.99999e-01
4.645600332e-01,1.60468e-13,9.99999e-01,9.99999e-01,1.60468e-13,9.99999e-01
4.668828333e-01,2.87154e-13,9.99999e-01,9.99999e-01,2.87154e-13,9.99999e-01
4.692172475e-01,5.07981e-13,9.99999e-01,9.99999e-01,5.07981e-13,9.99999e-01
4.715633337e-01,8.88562e-13,9.99999e-01,9.99999e-01,8.88562e-13,9.99999e-01
4.739211504e-01,1.53720e-12,9.99999e-01,9.99999e-01,1.53720e-12,9.99999e-01
4.762907561e-01,2.63071e-12,9.99999e-01,9.99999e-01,2.63071e-12,9.99999e-01
4.786722099e-01,4.45456e-12,9.99999e-01,9.99999e-01,4.45456e-12,9.99999e-01
4.810655710e-01,7.46481e-12,9.99999e-01,9.99999e-01,7.46481e-12,9.99999e-01
4.834708988e-01,1.23824e-11,9.99999e-01,9.99999e-01,1.23824e-11,9.99999e-01
4.858882533e-01,2.03352e-11,9.99999e-01,9.99999e-01,2.03352e-11,9.99999e-01
4.883176946e-01,3.30702e-11,9.99999e-01,9.99999e-01,3.30702e-11,9.99999e-01
4.907592831e-01,5.32665e-11,9.99999e-01,9.99999e-01,5.32665e-11,9.99999e-01
4.932130795e-01,8.49928e-11,9.99999e-01,9.99999e-01,8.49928e-11,9.99999e-01
4.956791449e-01,1.34370e-10,9.99999e-01,9.99999e-01,1.34370e-10,9.99999e-01
4.981575406e-01,2.10519e-10,9.99999e-01,9.99999e-01,2.10519e-10,9.99999e-01
5.006483283e-01,3.26912e-10,9.99999e-01,9.99999e-01,3.26912e-10,9.99999e-01
5.031515699e-01,5.03263e-10,9.99999e-01,9.99999e-01,5.03263e-10,9.99999e-01
5.056673278e-01,7.68170e-10,9.99999e-01,9.99999e-01,7.68170e-10,9.99999e-01
5.081956644e-01,1.16277e-09,9.99999e-01,9.99999e-01,1.16277e-09,9.99999e-01
5.107366428e-01,1.74570e-09,9.99999e-01,9.99999e-01,1.74570e-09,9.99999e-01
5.132903260e-01,2.59994e-09,9.99999e-01,9.99999e-01,2.59994e-09,9.99999e-01
5.158567776e-01,3.84184e-09,9.99999e-01,9.99999e-01,3.84184e-09,9.99999e-01
5.184360615e-01,5.63333e-09,9.99999e-01,9.99999e-01,5.63333e-09,9.99999e-01
5.210282418e-01,8.19801e-09,9.99999e-01,9.99999e-01,8.19801e-09,9.99999e-01
5.236333830e-01,1.18422e-08,9.99999e-01,9.99999e-01,1.18422e-08,9.99999e-01
5.262515499e-01,1.69825e-08,9.99999e-01,9.99999e-01,1.69825e-08,9.99999e-01
5.288828077e-01,2.41812e-08,9.99999e-01,9.99999e-01,2.41812e-08,9.99999e-01
5.315272217e-01,3.41919e-08,9.99999e-01,9.99999e-01,3.41919e-08,9.99999e-01
5.341848578e-01,4.80172e-08,9.99999e-01,9.99999e-01,4.80172e-08,9.99999e-01
5.368557821e-01,6.69819e-08,9.99999e-01,9.99999e-01,6.69819e-08,9.99999e-01
5.395400610e-01,9.28246e-08,9.99999e-01,9.99999e-01,9.28246e-08,9.99999e-01
5.422377613e-01,1.27811e-07,9.99999e-01,9.99999e-01,1.27811e-07,9.99999e-01
5.449489501e-01,1.74876e-07,9.99999e-01,9.99999e-01,1.74876e-07,9.99999e-01
5.476736949e-01,2.37796e-07,9.99999e-01,9.99999e-01,2.37796e-07,9.99999e-01
5.504120634e-01,3.21396e-07,9.99999e-01,9.99999e-01,3.21396e-07,9.99999e-01
5.531641237e-01,4.31810e-07,9.99999e-01,9.99999e-01,4.31810e-07,9.99999e-01
5.559299443e-01,5.76781e-07,9.99999e-01,9.99999e-01,5.76781e-07,9.99999e-01
5.587095940e-01,7.66032e-07,9.99999e-01,9.99999e-01,7.66032e-07,9.99999e-01
5.615031420e-01,1.01169e-06,9.99999e-01,9.99999e-01,1.01169e-06,9.99999e-01
5.643106577e-01,1.32881e-06,9.99999e-01,9.99999e-01,1.32881e-06,9.99999e-01
5.671322110e-01,1.73596e-06,9.99999e-01,9.99999e-01,1.73596e-06,9.99999e-01
5.699678720e-01,2.25591e-06,9.99999e-01,9.99999e-01,2.25591e-06,9.99999e-01
5.728177114e-01,2.91648e-06,9.99999e-01,9.99999e-01,2.91648e-06,9.99999e-01
5.756818000e-01,3.75138e-06,9.99999e-01,9.99999e-01,3.75138e-06,9.99999e-01
5.785602090e-01,4.80136e-06,9.99999e-01,9.99999e-01,4.80136e-06,9.99999e-01
5.814530100e-01,6.11534e-06,9.99999e-01,9.99999e-01,6.11534e-06,9.99999e-01
5.843602750e-01,7.75179e-06,9.99999e-01,9.99999e-01,7.75179e-06,9.99999e-01
5.872820764e-01,9.78022e-06,9.99999e-01,9.99999e-01,9.78022e-06,9.99999e-01
5.902184868e-01,1.22829e-05,9.99999e-01,9.99999e-01,1.22829e-05,9.99999e-01
5.931695792e-01,1.53568e-05,9.99999e-01,9.99999e-01,1.53568e-05,9.99999e-01
5.961354271e-01,1.91154e-05,9.99999e-01,9.99999e-01,1.91154e-05,9.99999e-01
5.991161043e-01,2.36912e-05,9.99999e-01,9.99999e-01,2.36912e-05,9.99999e-01
6.021116848e-01,2.92382e-05,9.99999e-01,9.99999e-01,2.92382e-05,9.99999e-01
6.051222432e-01,3.59343e-05,9.99999e-01,9.99999e-01,3.59343e-05,9.99999e-01
6.081478544e-01,4.39844e-05,9.99999e-01,9.99999e-01,4.39844e-05,9.99999e-01
6.111885937e-01,5.36234e-05,9.99999e-01,9.99999e-01,5.36234e-05,9.99999e-01
6.142445367e-01,6.51194e-05,9.99999e-01,9.99999e-01,6.51194e-05,9.99999e-01
6.173157594e-01,7.87771e-05,9.99999e-01,9.99999e-01,7.87771e-05,9.99999e-01
6.204023382e-01,9.49415e-05,9.99999e-01,9.99999e-01,9.49415e-05,9.99999e-01
6.235043498e-01,1.14002e-04,9.99999e-01,9.99999e-01,1.14002e-04,9.99999e-01
6.266218716e-01,1.36395e-04,9.99999e-01,9.99999e-01,1.36395e-04,9.99999e-01
6.297549810e-01,1.62609e-04,9.99999e-01,9.99999e-01,1.62609e-04,9.99999e-01
6.329037559e-01,1.93190e-04,9.99999e-01,9.99999e-01,1.93190e-04,9.99999e-01
6.360682746e-01,2.28741e-04,9.99999e-01,9.99999e-01,2.28741e-04,9.99999e-01
6.392486160e-01,2.69933e-04,9.99999e-01,9.99999e-01,2.69933e-04,9.99999e-01
6.424448591e-01,3.17503e-04,9.99999e-01,9.99999e-01,3.17503e-04,9.99999e-01
6.456570834e-01,3.72261e-04,9.99999e-01,9.99999e-01,3.72261e-04,9.99999e-01
6.488853688e-01,4.35093e-04,9.99999e-01,9.99999e-01,4.35093e-04,9.99999e-01
6.521297956e-01,5.06965e-04,9.99999e-01,9.99999e-01,5.06965e-04,9.99999e-01
6.553904446e-01,5.88929e-04,9.99999e-01,9.99999e-01,5.88929e-04,9.99999e-01
6.586673968e-01,6.82122e-04,9.99999e-01,9.99999e-01,6.82122e-04,9.99999e-01
6.619607338e-01,7.87773e-04,9.99999e-01,9.99999e-01,7.87773e-04,9.99999e-01
6.652705375e-01,9.07204e-04,9.99999e-01,9.99999e-01,9.07204e-04,9.99999e-01
6.685968902e-01,1.04183e-03,9.99999e-01,9.99999e-01,1.04183e-03,9.99999e-01
6.719398746e-01,1.19317e-03,9.99999e-01,9.99999e-01,1.19317e-03,9.99999e-01
6.752995740e-01,1.36284e-03,9.99999e-01,9.99999e-01,1.36284e-03,9.99999e-01
6.786760719e-01,1.55256e-03,9.99999e-01,9.99999e-01,1.55256e-03,9.99999e-01
6.820694522e-01,1.76413e-03,9.99999e-01,9.99999e-01,1.76413e-03,9.99999e-01
6.854797995e-01,1.99949e-03,9.99999e-01,9.99999e-01,1.99949e-03,9.99999e-01
6.889071985e-01,2.26065e-03,9.99999e-01,9.99999e-01,2.26065e-03,9.99999e-01
6.923517345e-01,2.54972e-03,9.99999e-01,9.99999e-01,2.54972e-03,9.99999e-01
6.958134932e-01,2.86894e-03,9.99999e-01,9.99999e-01,2.86894e-03,9.99999e-01
6.992925606e-01,3.22061e-03,9.99999e-01,9.99999e-01,3.22061e-03,9.99999e-01
7.027890234e-01,3.60713e-03,9.99999e-01,9.99999e-01,3.60713e-03,9.99999e-01
7.063029686e-01,4.03101e-03,9.99999e-01,9.99999e-01,4.03101e-03,9.99999e-01
7.098344834e-01,4.49483e-03,9.99999e-01,9.99999e-01,4.49483e-03,9.99999e-01
7.133836558e-01,5.00124e-03,9.99999e-01,9.99999e-01,5.00124e-03,9.99999e-01
7.169505741e-01,5.55299e-03,9.99999e-01,9.99999e-01,5.55299e-03,9.99999e-01
7.205353270e-01,6.15287e-03,9.99999e-01,9.99999e-01,6.15287e-03,9.99999e-01
7.241380036e-01,6.80376e-03,9.99999e-01,9.99999e-01,6.80376e-03,9.99999e-01
7.277586936e-01,7.50858e-03,9.99999e-01,9.99999e-01,7.50858e-03,9.99999e-01
7.313974871e-01,8.27029e-03,9.99999e-01,9.99999e-01,8.27029e-03,9.99999e-01
7.350544745e-01,9.09190e-03,9.99999e-01,9.99999e-01,9.09190e-03,9.99999e-01
7.387297469e-01,9.97646e-03,9.99999e-01,9.99999e-01,9.97646e-03,9.99999e-01
7.424233956e-01,1.09270e-02,9.99999e-01,9.99999e-01,1.09270e-02,9.99999e-01
7.461355126e-01,1.19466e-02,9.99999e-01,9.99999e-01,1.19466e-02,9.99999e-01
7.498661902e-01,1.30384e-02,9.99999e-01,9.99999e-01,1.30384e-02,9.99999e-01
7.536155211e-01,1.42054e-02,9.99999e-01,9.99999e-01,1.42054e-02,9.99999e-01
7.573835987e-01,1.54507e-02,9.99999e-01,9.99999e-01,1.54507e-02,9.99999e-01
7.611705167e-01,1.67772e-02,9.99999e-01,9.99999e-01,1.67772e-02,9.99999e-01
7.649763693e-01,1.81881e-02,9.99999e-01,9.99999e-01,1.81881e-02,9.99999e-01
7.688012511e-01,1.96861e-02,9.99999e-01,9.99999e-01,1.96861e-02,9.99999e-01
7.726452574e-01,2.12743e-02,9.99999e-01,9.99999e-01,2.12743e-02,9.99999e-01
7.765084837e-01,2.29553e-02,9.99999e-01,9.99999e-01,2.29553e-02,9.99999e-01
7.803910261e-01,2.17974e-02,9.99999e-01,8.81342e-01,2.47321e-02,9.99999e-01
7.842929812e-01,1.32047e-02,9.99999e-01,4.96285e-01,2.66071e-02,9.99999e-01
7.882144461e-01,1.38120e-02,9.99999e-01,4.83225e-01,2.85830e-02,9.99999e-01
7.921555184e-01,1.92809e-02,9.99999e-01,6.28817e-01,3.06622e-02,9.99999e-01
7.961162960e-01,2.38751e-02,9.99999e-01,7.26855e-01,3.28471e-02,9.99999e-01
8.000968774e-01,2.95495e-02,9.99999e-01,8.40910e-01,3.51398e-02,9.99999e-01
8.040973618e-01,3.42961e-02,9.99999e-01,9.13526e-01,3.75425e-02,9.99999e-01
8.081178486e-01,3.84314e-02,9.99999e-01,9.59412e-01,4.00572e-02,9.99999e-01
8.121584379e-01,4.21386e-02,9.99999e-01,9.87185e-01,4.26855e-02,9.99999e-01
8.162192301e-01,4.53000e-02,9.99999e-01,9.97153e-01,4.54293e-02,9.99999e-01
8.203003262e-01,4.82877e-02,9.99999e-01,9.99952e-01,4.82900e-02,9.99999e-01
8.244018279e-01,5.12689e-02,9.99999e-01,9.99999e-01,5.12689e-02,9.99999e-01
8.285238370e-01,5.43673e-02,9.99999e-01,9.99999e-01,5.43673e-02,9.99999e-01
8.326664562e-01,5.75861e-02,9.99999e-01,9.99999e-01,5.75861e-02,9.99999e-01
8.368297885e-01,6.09263e-02,9.99999e-01,9.99999e-01,6.09263e-02,9.99999e-01
8.410139374e-01,6.43884e-02,9.99999e-01,9.99999e-01,6.43884e-02,9.99999e-01
8.452190071e-01,6.79731e-02,9.99999e-01,9.99999e-01,6.79731e-02,9.99999e-01
8.494451021e-01,7.16805e-02,9.99999e-01,9.99999e-01,7.16805e-02,9.99999e-01
8.536923276e-01,7.55109e-02,9.99999e-01,9.99999e-01,7.55109e-02,9.99999e-01
8.579607893e-01,7.94643e-02,9.99999e-01,9.99999e-01,7.94643e-02,9.99999e-01
8.622505932e-01,8.35403e-02,9.99999e-01,9.99999e-01,8.35403e-02,9.99999e-01
8.665618462e-01,7.41953e-02,9.99999e-01,8.45638e-01,8.77387e-02,9.99999e-01
8.708946554e-01,1.72147e-02,9.99999e-01,1.86996e-01,9.20589e-02,9.99999e-01
8.752491287e-01,2.27831e-02,9.99999e-01,2.36093e-01,9.65002e-02,9.99999e-01
8.796253743e-01,4.44564e-02,9.99999e-01,4.39894e-01,1.01062e-01,9.99999e-01
8.840235012e-01,6.81247e-02,9.99999e-01,6.44253e-01,1.05742e-01,9.99999e-01
8.884436187e-01,9.26771e-02,9.99999e-01,8.38398e-01,1.10541e-01,9.99999e-01
8.928858368e-01,1.07478e-01,9.99999e-01,9.30908e-01,1.15455e-01,9.99999e-01
8.973502660e-01,1.18394e-01,9.99999e-01,9.82643e-01,1.20485e-01,9.99999e-01
9.018370173e-01,1.25386e-01,9.99999e-01,9.98067e-01,1.25628e-01,9.99999e-01
9.063462024e-01,1.24948e-01,9.99999e-01,9.54651e-01,1.30883e-01,9.99999e-01
9.108779334e-01,1.21765e-01,9.99999e-01,8.93709e-01,1.36247e-01,9.99999e-01
9.154323231e-01,1.37992e-01,9.99999e-01,9.73703e-01,1.41718e-01,9.99999e-01
9.200094847e-01,1.09622e-01,9.99999e-01,7.44232e-01,1.47295e-01,9.99999e-01
9.246095321e-01,8.88700e-02,9.99999e-01,5.80948e-01,1.52974e-01,9.99999e-01
9.292325798e-01,1.05442e-01,9.99999e-01,6.64187e-01,1.58754e-01,9.99999e-01
9.338787427e-01,1.09613e-01,9.99999e-01,6.65812e-01,1.64631e-01,9.99999e-01
9.385481364e-01,1.25972e-01,9.99999e-01,7.38394e-01,1.70603e-01,9.99999e-01
9.432408771e-01,1.46351e-01,9.99999e-01,8.28394e-01,1.76668e-01,9.99999e-01
9.479570815e-01,1.66002e-01,9.99999e-01,9.07996e-01,1.82822e-01,9.99999e-01
9.526968669e-01,1.80466e-01,9.99999e-01,9.54531e-01,1.89062e-01,9.99999e-01
9.574603512e-01,1.91527e-01,9.99999e-01,9.80248e-01,1.95386e-01,9.99999e-01
9.622476530e-01,2.00537e-01,9.99999e-01,9.93787e-01,2.01790e-01,9.99999e-01
9.670588912e-01,2.07882e-01,9.99999e-01,9.98130e-01,2.08272e-01,9.99999e-01
9.718941857e-01,2.14798e-01,9.99999e-01,9.99865e-01,2.14827e-01,9.99999e-01
9.767536566e-01,2.21453e-01,9.99999e-01,9.99999e-01,2.21453e-01,9.99999e-01
9.816374249e-01,2.28147e-01,9.99999e-01,9.99999e-01,2.28147e-01,9.99999e-01
9.865456120e-01,2.34904e-01,9.99999e-01,9.99999e-01,2.34904e-01,9.99999e-01
9.914783401e-01,2.41723e-01,9.99999e-01,9.99999e-01,2.41723e-01,9.99999e-01
9.964357318e-01,2.48598e-01,9.99999e-01,9.99999e-01,2.48598e-01,9.99999e-01
1.001417910e+00,2.55528e-01,9.99999e-01,9.99999e-01,2.55528e-01,9.99999e-01
1.006425000e+00,2.62508e-01,9.99999e-01,9.99999e-01,2.62508e-01,9.99999e-01
1.011457125e+00,2.69536e-01,9.99999e-01,9.99999e-01,2.69536e-01,9.99999e-01
1.016514411e+00,2.76607e-01,9.99999e-01,9.99999e-01,2.76607e-01,9.99999e-01
1.021596983e+00,2.83653e-01,9.99999e-01,9.99767e-01,2.83719e-01,9.99999e-01
1.026704968e+00,2.85534e-01,9.99999e-01,9.81665e-01,2.90867e-01,9.99999e-01
1.031838492e+00,2.60969e-01,9.99999e-01,8.75591e-01,2.98049e-01,9.99999e-01
1.036997685e+00,8.56930e-03,9.99999e-01,2.80720e-02,3.05262e-01,9.99999e-01
1.042182673e+00,1.01761e-04,9.99999e-01,3.25634e-04,3.12501e-01,9.99999e-01
1.047393587e+00,3.02853e-04,9.99999e-01,9.47116e-04,3.19764e-01,9.99999e-01
1.052630555e+00,4.31346e-10,9.99999e-01,1.31891e-09,3.27047e-01,9.99999e-01
1.057893707e+00,1.58409e-09,9.99999e-01,4.73785e-09,3.34347e-01,9.99999e-01
1.063183176e+00,3.45523e-07,9.99999e-01,1.01130e-06,3.41661e-01,9.99999e-01
1.068499092e+00,7.71415e-06,9.99999e-01,2.21044e-05,3.48986e-01,9.99999e-01
1.073841587e+00,3.06340e-04,9.99999e-01,8.59733e-04,3.56319e-01,9.99999e-01
1.079210795e+00,4.53344e-03,9.99999e-01,1.24663e-02,3.63657e-01,9.99999e-01
1.084606849e+00,2.90872e-02,9.99999e-01,7.84030e-02,3.70996e-01,9.99999e-01
1.090029883e+00,9.89467e-02,9.99999e-01,2.61533e-01,3.78334e-01,9.99999e-01
1.095480033e+00,1.97992e-01,9.99999e-01,5.13374e-01,3.85667e-01,9.99999e-01
1.100957433e+00,2.84080e-01,9.99999e-01,7.22861e-01,3.92994e-01,9.99999e-01
1.106462220e+00,3.49831e-01,9.99999e-01,8.73895e-01,4.00311e-01,9.99999e-01
1.111994531e+00,3.87702e-01,9.99999e-01,9.51143e-01,4.07616e-01,9.99999e-01
1.117554504e+00,4.09842e-01,9.99999e-01,9.87793e-01,4.14906e-01,9.99999e-01
1.123142276e+00,4.21837e-01,9.99999e-01,9.99189e-01,4.22179e-01,9.99999e-01
1.128757988e+00,4.29431e-01,9.99999e-01,9.99999e-01,4.29431e-01,9.99999e-01
1.134401778e+00,4.36662e-01,9.99999e-01,9.99999e-01,4.36662e-01,9.99999e-01
1.140073787e+00,4.43867e-01,9.99999e-01,9.99999e-01,4.43867e-01,9.99999e-01
1.145774156e+00,4.51046e-01,9.99999e-01,9.99999e-01,4.51046e-01,9.99999e-01
1.151503026e+00,4.58195e-01,9.99999e-01,9.99999e-01,4.58195e-01,9.99999e-01
1.157260541e+00,4.65314e-01,9.99999e-01,9.99999e-01,4.65314e-01,9.99999e-01
1.163046844e+00,4.72399e-01,9.99999e-01,9.99999e-01,4.72399e-01,9.99999e-01
1.168862078e+00,4.79448e-01,9.99999e-01,9.99999e-01,4.79448e-01,9.99999e-01
1.174706389e+00,4.86461e-01,9.99999e-01,9.99999e-01,4.86461e-01,9.99999e-01
1.180579921e+00,4.93435e-01,9.99999e-01,9.99999e-01,4.93435e-01,9.99999e-01
1.186482820e+00,5.00355e-01,9.99999e-01,9.99974e-01,5.00367e-01,9.99999e-01
1.192415234e+00,4.76892e-01,9.99999e-01,9.40137e-01,5.07258e-01,9.99999e-01
1.198377311e+00,2.49184e-01,9.99999e-01,4.84695e-01,5.14104e-01,9.99999e-01
1.204369197e+00,6.65603e-48,9.99999e-01,1.27778e-47,5.20905e-01,9.99999e-01
1.210391043e+00,2.06821e-198,9.99999e-01,3.91959e-198,5.27659e-01,9.99999e-01
1.216442998e+00,1.70813e-171,9.99999e-01,3.19655e-171,5.34365e-01,9.99999e-01
1.222525213e+00,6.69436e-169,9.99999e-01,1.23736e-168,5.41020e-01,9.99999e-01
1.228637839e+00,5.47847e-130,9.99999e-01,1.00040e-129,5.47625e-01,9.99999e-01
1.234781029e+00,2.66044e-80,9.99999e-01,4.80070e-80,5.54177e-01,9.99999e-01
1.240954934e+00,7.05554e-53,9.99999e-01,1.25840e-52,5.60676e-01,9.99999e-01
1.247159708e+00,1.12291e-24,9.99999e-01,1.98001e-24,5.67121e-01,9.99999e-01
1.253395507e+00,7.81230e-17,9.99999e-01,1.36219e-16,5.73511e-01,9.99999e-01
1.259662485e+00,2.85138e-10,9.99999e-01,4.91750e-10,5.79843e-01,9.99999e-01
1.265960797e+00,1.23354e-05,9.99999e-01,2.10459e-05,5.86119e-01,9.99999e-01
1.272290601e+00,2.10023e-03,9.99999e-01,3.54566e-03,5.92337e-01,9.99999e-01
1.278652054e+00,3.22842e-03,9.99999e-01,5.39422e-03,5.98496e-01,9.99999e-01
1.285045314e+00,2.69131e-07,9.99999e-01,4.45142e-07,6.04595e-01,9.99999e-01
1.291470541e+00,1.68997e-22,9.99999e-01,2.76756e-22,6.10634e-01,9.99999e-01
1.297927893e+00,5.03639e-09,9.99999e-01,8.16782e-09,6.16613e-01,9.99999e-01
1.304417533e+00,3.35030e-05,9.99999e-01,5.38175e-05,6.22530e-01,9.99999e-01
1.310939621e+00,1.07147e-05,9.99999e-01,1.70512e-05,6.28386e-01,9.99999e-01
1.317494319e+00,1.50536e-66,9.99999e-01,2.37371e-66,6.34179e-01,9.99999e-01
1.324081790e+00,3.64581e-43,9.99999e-01,5.69737e-43,6.39910e-01,9.99999e-01
1.330702199e+00,1.13584e-25,9.99999e-01,1.75941e-25,6.45577e-01,9.99999e-01
1.337355710e+00,3.96296e-23,9.99999e-01,6.08579e-23,6.51182e-01,9.99999e-01
1.344042489e+00,2.65072e-23,9.99999e-01,4.03627e-23,6.56723e-01,9.99999e-01
1.350762701e+00,4.84608e-26,9.99999e-01,7.31815e-26,6.62200e-01,9.99999e-01
1.357516515e+00,2.85098e-15,9.99999e-01,4.27040e-15,6.67613e-01,9.99999e-01
1.364304097e+00,2.18181e-11,9.99999e-01,3.24209e-11,6.72963e-01,9.99999e-01
1.371125618e+00,3.19388e-06,9.99999e-01,4.70901e-06,6.78248e-01,9.99999e-01
1.377981246e+00,1.52163e-05,9.99999e-01,2.22633e-05,6.83470e-01,9.99999e-01
1.384871152e+00,1.26417e-03,9.99999e-01,1.83578e-03,6.88627e-01,9.99999e-01
1.391795508e+00,2.19741e-03,9.99999e-01,3.16757e-03,6.93720e-01,9.99999e-01
1.398754485e+00,1.70216e-02,9.99999e-01,2.43601e-02,6.98749e-01,9.99999e-01
1.405748258e+00,4.81270e-02,9.99999e-01,6.83899e-02,7.03714e-01,9.99999e-01
1.412776999e+00,1.26818e-01,9.99999e-01,1.78966e-01,7.08615e-01,9.99999e-01
1.419840884e+00,1.34013e-01,9.99998e-01,1.87838e-01,7.13453e-01,9.99999e-01
1.426940089e+00,3.45690e-03,9.99998e-01,4.81310e-03,7.18227e-01,9.99999e-01
1.434074789e+00,0.00000e+00,9.99998e-01,0.00000e+00,7.22938e-01,9.99999e-01
1.441245163e+00,0.00000e+00,9.99999e-01,0.00000e+00,7.27585e-01,9.99999e-01
1.448451389e+00,0.00000e+00,9.99998e-01,0.00000e+00,7.32170e-01,9.99999e-01
1.455693646e+00,0.00000e+00,9.99999e-01,0.00000e+00,7.36693e-01,9.99999e-01
1.462972114e+00,0.00000e+00,9.99999e-01,0.00000e+00,7.41153e-01,9.99999e-01
1.470286975e+00,0.00000e+00,9.99999e-01,0.00000e+00,7.45551e-01,9.99999e-01
