#,Wave/freq,Total,N2,CO2,Rayleigh,CIA
4.000000000e-01,2.31812e-04,9.99999e-01,9.99999e-01,2.31812e-04,9.99999e-01
4.020000000e-01,2.73532e-04,9.99999e-01,9.99999e-01,2.73532e-04,9.99999e-01
4.040100000e-01,3.21651e-04,9.99999e-01,9.99999e-01,3.21651e-04,9.99999e-01
4.060300500e-01,3.77028e-04,9.99999e-01,9.99999e-01,3.77028e-04,9.99999e-01
4.080602003e-01,4.40553e-04,9.99999e-01,9.99999e-01,4.40553e-04,9.99999e-01
4.101005013e-01,5.13201e-04,9.99999e-01,9.99999e-01,5.13201e-04,9.99999e-01
4.121510038e-01,5.96029e-04,9.99999e-01,9.99999e-01,5.96029e-04,9.99999e-01
4.142117588e-01,6.90183e-04,9.99999e-01,9.99999e-01,6.90183e-04,9.99999e-01
4.162828176e-01,7.96898e-04,9.99999e-01,9.99999e-01,7.96898e-04,9.99999e-01
4.183642317e-01,9.17503e-04,9.99999e-01,9.99999e-01,9.17503e-04,9.99999e-01
4.204560528e-01,1.05342e-03,9.99999e-01,9.99999e-01,1.05342e-03,9.99999e-01
4.225583331e-01,1.20619e-03,9.99999e-01,9.99999e-01,1.20619e-03,9.99999e-01
4.246711247e-01,1.37741e-03,9.99999e-01,9.99999e-01,1.37741e-03,9.99999e-01
4.267944804e-01,1.56882e-03,9.99999e-01,9.99999e-01,1.56882e-03,9.99999e-01
4.289284528e-01,1.78225e-03,9.99999e-01,9.99999e-01,1.78225e-03,9.99999e-01
4.310730950e-01,2.01962e-03,9.99999e-01,9.99999e-01,2.01962e-03,9.99999e-01
4.332284605e-01,2.28295e-03,9.99999e-01,9.99999e-01,2.28295e-03,9.99999e-01
4.353946028e-01,2.57438e-03,9.99999e-01,9.99999e-01,2.57438e-03,9.99999e-01
4.375715758e-01,2.89613e-03,9.99999e-01,9.99999e-01,2.89613e-03,9.99999e-01
4.397594337e-01,3.25053e-03,9.99999e-01,9.99999e-01,3.25053e-03,9.99999e-01
4.419582309e-01,3.63998e-03,9.99999e-01,9.99999e-01,3.63998e-03,9.99999e-01
4.441680220e-01,4.06699e-03,9.99999e-01,9.99999e-01,4.06699e-03,9.99999e-01
4.463888621e-01,4.53415e-03,9.99999e-01,9.99999e-01,4.53415e-03,9.99999e-01
4.486208064e-01,5.04412e-03,9.99999e-01,9.99999e-01,5.04412e-03,9.99999e-01
4.508639105e-01,5.59966e-03,9.99999e-01,9.99999e-01,5.59966e-03,9.99999e-01
4.531182300e-01,6.20356e-03,9.99999e-01,9.99999e-01,6.20356e-03,9.99999e-01
4.553838212e-01,6.85870e-03,9.99999e-01,9.99999e-01,6.85870e-03,9.99999e-01
4.576607403e-01,7.56800e-03,9.99999e-01,9.99999e-01,7.56800e-03,9.99999e-01
4.599490440e-01,8.33444e-03,9.99999e-01,9.99999e-01,8.33444e-03,9.99999e-01
4.622487892e-01,9.16103e-03,9.99999e-01,9.99999e-01,9.16103e-03,9.99999e-01
4.645600332e-01,1.00508e-02,9.99999e-01,9.99999e-01,1.00508e-02,9.99999e-01
4.668828333e-01,1.10068e-02,9.99999e-01,9.99999e-01,1.10068e-02,9.99999e-01
4.692172475e-01,1.20322e-02,9.99999e-01,9.99999e-01,1.20322e-02,9.99999e-01
4.715633337e-01,1.31299e-02,9.99999e-01,9.99999e-01,1.31299e-02,9.99999e-01
4.739211504e-01,1.43031e-02,9.99999e-01,9.99999e-01,1.43031e-02,9.99999e-01
4.762907561e-01,1.55549e-02,9.99999e-01,9.99999e-01,1.55549e-02,9.99999e-01
4.786722099e-01,1.68881e-02,9.99999e-01,9.99999e-01,1.68881e-02,9.99999e-01
4.810655710e-01,1.83059e-02,9.99999e-01,9.99999e-01,1.83059e-02,9.99999e-01
4.834708988e-01,1.98111e-02,9.99999e-01,9.99999e-01,1.98111e-02,9.99999e-01
4.858882533e-01,2.14067e-02,9.99999e-01,9.99999e-01,2.14067e-02,9.99999e-01
4.883176946e-01,2.30954e-02,9.99999e-01,9.99999e-01,2.30954e-02,9.99999e-01
4.907592831e-01,2.48800e-02,9.99999e-01,9.99999e-01,2.48800e-02,9.99999e-01
4.932130795e-01,2.67630e-02,9.99999e-01,9.99999e-01,2.67630e-02,9.99999e-01
4.956791449e-01,2.87472e-02,9.99999e-01,9.99999e-01,2.87472e-02,9.99999e-01
4.981575406e-01,3.08349e-02,9.99999e-01,9.99999e-01,3.08349e-02,9.99999e-01
5.006483283e-01,3.30284e-02,9.99999e-01,9.99999e-01,3.30284e-02,9.99999e-01
5.031515699e-01,3.53299e-02,9.99999e-01,9.99999e-01,3.53299e-02,9.99999e-01
5.056673278e-01,3.77416e-02,9.99999e-01,9.99999e-01,3.77416e-02,9.99999e-01
5.081956644e-01,4.02654e-02,9.99999e-01,9.99999e-01,4.02654e-02,9.99999e-01
5.107366428e-01,4.29030e-02,9.99999e-01,9.99999e-01,4.29030e-02,9.99999e-01
5.132903260e-01,4.56562e-02,9.99999e-01,9.99999e-01,4.56562e-02,9.99999e-01
5.158567776e-01,4.85264e-02,9.99999e-01,9.99999e-01,4.85264e-02,9.99999e-01
5.184360615e-01,5.15149e-02,9.99999e-01,9.99999e-01,5.15149e-02,9.99999e-01
5.210282418e-01,5.46230e-02,9.99999e-01,9.99999e-01,5.46230e-02,9.99999e-01
5.236333830e-01,5.78516e-02,9.99999e-01,9.99999e-01,5.78516e-02,9.99999e-01
5.262515499e-01,6.12016e-02,9.99999e-01,9.99999e-01,6.12016e-02,9.99999e-01
5.288828077e-01,6.46737e-02,9.99999e-01,9.99999e-01,6.46737e-02,9.99999e-01
5.315272217e-01,6.82682e-02,9.99999e-01,9.99999e-01,6.82682e-02,9.99999e-01
5.341848578e-01,7.19856e-02,9.99999e-01,9.99999e-01,7.19856e-02,9.99999e-01
5.368557821e-01,7.58259e-02,9.99999e-01,9.99999e-01,7.58259e-02,9.99999e-01
5.395400610e-01,7.97892e-02,9.99999e-01,9.99999e-01,7.97892e-02,9.99999e-01
5.422377613e-01,8.38752e-02,9.99999e-01,9.99999e-01,8.38752e-02,9.99999e-01
5.449489501e-01,8.80835e-02,9.99999e-01,9.99999e-01,8.80835e-02,9.99999e-01
5.476736949e-01,9.24135e-02,9.99999e-01,9.99999e-01,9.24135e-02,9.99999e-01
5.504120634e-01,9.68645e-02,9.99999e-01,9.99999e-01,9.68645e-02,9.99999e-01
5.531641237e-01,1.01436e-01,9.99999e-01,9.99999e-01,1.01436e-01,9.99999e-01
5.559299443e-01,1.06126e-01,9.99999e-01,9.99999e-01,1.06126e-01,9.99999e-01
5.587095940e-01,1.10934e-01,9.99999e-01,9.99999e-01,1.10934e-01,9.99999e-01
5.615031420e-01,1.15858e-01,9.99999e-01,9.99999e-01,1.15858e-01,9.99999e-01
5.643106577e-01,1.20897e-01,9.99999e-01,9.99999e-01,1.20897e-01,9.99999e-01
5.671322110e-01,1.26049e-01,9.99999e-01,9.99999e-01,1.26049e-01,9.99999e-01
5.699678720e-01,1.31313e-01,9.99999e-01,9.99999e-01,1.31313e-01,9.99999e-01
5.728177114e-01,1.36685e-01,9.99999e-01,9.99999e-01,1.36685e-01,9.99999e-01
5.756818000e-01,1.42165e-01,9.99999e-01,9.99999e-01,1.42165e-01,9.99999e-01
5.785602090e-01,1.47750e-01,9.99999e-01,9.99999e-01,1.47750e-01,9.99999e-01
5.814530100e-01,1.53438e-01,9.99999e-01,9.99999e-01,1.53438e-01,9.99999e-01
5.843602750e-01,1.59225e-01,9.99999e-01,9.99999e-01,1.59225e-01,9.99999e-01
5.872820764e-01,1.65110e-01,9.99999e-01,9.99999e-01,1.65110e-01,9.99999e-01
5.902184868e-01,1.71090e-01,9.99999e-01,9.99999e-01,1.71090e-01,9.99999e-01
5.931695792e-01,1.77162e-01,9.99999e-01,9.99999e-01,1.77162e-01,9.99999e-01
5.961354271e-01,1.83323e-01,9.99999e-01,9.99999e-01,1.83323e-01,9.99999e-01
5.991161043e-01,1.89570e-01,9.99999e-01,9.99999e-01,1.89570e-01,9.99999e-01
6.021116848e-01,1.95901e-01,9.99999e-01,9.99999e-01,1.95901e-01,9.99999e-01
6.051222432e-01,2.02311e-01,9.99999e-01,9.99999e-01,2.02311e-01,9.99999e-01
6.081478544e-01,2.08799e-01,9.99999e-01,9.99999e-01,2.08799e-01,9.99999e-01
6.111885937e-01,2.15360e-01,9.99999e-01,9.99999e-01,2.15360e-01,9.99999e-01
6.142445367e-01,2.21992e-01,9.99999e-01,9.99999e-01,2.21992e-01,9.99999e-01
6.173157594e-01,2.28690e-01,9.99999e-01,9.99999e-01,2.28690e-01,9.99999e-01
6.204023382e-01,2.35453e-01,9.99999e-01,9.99999e-01,2.35453e-01,9.99999e-01
6.235043498e-01,2.42276e-01,9.99999e-01,9.99999e-01,2.42276e-01,9.99999e-01
6.266218716e-01,2.49157e-01,9.99999e-01,9.99999e-01,2.49157e-01,9.99999e-01
6.297549810e-01,2.56091e-01,9.99999e-01,9.99999e-01,2.56091e-01,9.99999e-01
6.329037559e-01,2.63075e-01,9.99999e-01,9.99999e-01,2.63075e-01,9.99999e-01
6.360682746e-01,2.70106e-01,9.99999e-01,9.99999e-01,2.70106e-01,9.99999e-01
6.392486160e-01,2.77180e-01,9.99999e-01,9.99999e-01,2.77180e-01,9.99999e-01
6.424448591e-01,2.84295e-01,9.99999e-01,9.99999e-01,2.84295e-01,9.99999e-01
6.456570834e-01,2.91447e-01,9.99999e-01,9.99999e-01,2.91447e-01,9.99999e-01
6.488853688e-01,2.98631e-01,9.99999e-01,9.99999e-01,2.98631e-01,9.99999e-01
6.521297956e-01,3.05846e-01,9.99999e-01,9.99999e-01,3.05846e-01,9.99999e-01
6.553904446e-01,3.13087e-01,9.99999e-01,9.99999e-01,3.13087e-01,9.99999e-01
6.586673968e-01,3.20352e-01,9.99999e-01,9.99999e-01,3.20352e-01,9.99999e-01
6.619607338e-01,3.27636e-01,9.99999e-01,9.99999e-01,3.27636e-01,9.99999e-01
6.652705375e-01,3.34938e-01,9.99999e-01,9.99999e-01,3.34938e-01,9.99999e-01
6.685968902e-01,3.42253e-01,9.99999e-01,9.99999e-01,3.42253e-01,9.99999e-01
6.719398746e-01,3.49579e-01,9.99999e-01,9.99999e-01,3.49579e-01,9.99999e-01
6.752995740e-01,3.56912e-01,9.99999e-01,9.99999e-01,3.56912e-01,9.99999e-01
6.786760719e-01,3.64250e-01,9.99999e-01,9.99999e-01,3.64250e-01,9.99999e-01
6.820694522e-01,3.71589e-01,9.99999e-01,9.99999e-01,3.71589e-01,9.99999e-01
6.854797995e-01,3.78927e-01,9.99999e-01,9.99999e-01,3.78927e-01,9.99999e-01
6.889071985e-01,3.86260e-01,9.99999e-01,9.99999e-01,3.86260e-01,9.99999e-01
6.923517345e-01,3.93586e-01,9.99999e-01,9.99999e-01,3.93586e-01,9.99999e-01
6.958134932e-01,4.00902e-01,9.99999e-01,9.99999e-01,4.00902e-01,9.99999e-01
6.992925606e-01,4.08206e-01,9.99999e-01,9.99999e-01,4.08206e-01,9.99999e-01
7.027890234e-01,4.15495e-01,9.99999e-01,9.99999e-01,4.15495e-01,9.99999e-01
7.063029686e-01,4.22766e-01,9.99999e-01,9.99999e-01,4.22766e-01,9.99999e-01
7.098344834e-01,4.30017e-01,9.99999e-01,9.99999e-01,4.30017e-01,9.99999e-01
7.133836558e-01,4.37245e-01,9.99999e-01,9.99999e-01,4.37245e-01,9.99999e-01
7.169505741e-01,4.44449e-01,9.99999e-01,9.99999e-01,4.44449e-01,9.99999e-01
7.205353270e-01,4.51625e-01,9.99999e-01,9.99999e-01,4.51625e-01,9.99999e-01
7.241380036e-01,4.58772e-01,9.99999e-01,9.99999e-01,4.58772e-01,9.99999e-01
7.277586936e-01,4.65888e-01,9.99999e-01,9.99999e-01,4.65888e-01,9.99999e-01
7.313974871e-01,4.72970e-01,9.99999e-01,9.99999e-01,4.72970e-01,9.99999e-01
7.350544745e-01,4.80017e-01,9.99999e-01,9.99999e-01,4.80017e-01,9.99999e-01
7.387297469e-01,4.87026e-01,9.99999e-01,9.99999e-01,4.87026e-01,9.99999e-01
7.424233956e-01,4.93997e-01,9.99999e-01,9.99999e-01,4.93997e-01,9.99999e-01
7.461355126e-01,5.00926e-01,9.99999e-01,9.99999e-01,5.00926e-01,9.99999e-01
7.498661902e-01,5.07813e-01,9.99999e-01,9.99999e-01,5.07813e-01,9.99999e-01
7.536155211e-01,5.14656e-01,9.99999e-01,9.99999e-01,5.14656e-01,9.99999e-01
7.573835987e-01,5.21453e-01,9.99999e-01,9.99999e-01,5.21453e-01,9.99999e-01
7.611705167e-01,5.28203e-01,9.99999e-01,9.99999e-01,5.28203e-01,9.99999e-01
7.649763693e-01,5.34904e-01,9.99999e-01,9.99999e-01,5.34904e-01,9.99999e-01
7.688012511e-01,5.41556e-01,9.99999e-01,9.99999e-01,5.41556e-01,9.99999e-01
7.726452574e-01,5.48157e-01,9.99999e-01,9.99999e-01,5.48157e-01,9.99999e-01
7.765084837e-01,5.54705e-01,9.99999e-01,9.99999e-01,5.54705e-01,9.99999e-01
7.803910261e-01,5.46261e-01,9.99999e-01,9.73380e-01,5.61200e-01,9.99999e-01
7.842929812e-01,5.02838e-01,9.99999e-01,8.85839e-01,5.67640e-01,9.99999e-01
7.882144461e-01,5.04337e-01,9.99999e-01,8.78598e-01,5.74025e-01,9.99999e-01
7.921555184e-01,5.38431e-01,9.99999e-01,9.27763e-01,5.80353e-01,9.99999e-01
7.961162960e-01,5.57801e-01,9.99999e-01,9.50865e-01,5.86624e-01,9.99999e-01
8.000968774e-01,5.76890e-01,9.99999e-01,9.73100e-01,5.92837e-01,9.99999e-01
8.040973618e-01,5.90570e-01,9.99999e-01,9.85941e-01,5.98991e-01,9.99999e-01
8.081178486e-01,6.01178e-01,9.99999e-01,9.93541e-01,6.05086e-01,9.99999e-01
8.121584379e-01,6.09892e-01,9.99999e-01,9.97990e-01,6.11120e-01,9.99999e-01
8.162192301e-01,6.16820e-01,9.99999e-01,9.99555e-01,6.17094e-01,9.99999e-01
8.203003262e-01,6.23001e-01,9.99999e-01,9.99992e-01,6.23006e-01,9.99999e-01
8.244018279e-01,6.28856e-01,9.99999e-01,9.99999e-01,6.28856e-01,9.99999e-01
8.285238370e-01,6.34645e-01,9.99999e-01,9.99999e-01,6.34645e-01,9.99999e-01
8.326664562e-01,6.40370e-01,9.99999e-01,9.99999e-01,6.40370e-01,9.99999e-01
8.368297885e-01,6.46033e-01,9.99999e-01,9.99999e-01,6.46033e-01,9.99999e-01
8.410139374e-01,6.51632e-01,9.99999e-01,9.99999e-01,6.51632e-01,9.99999e-01
8.452190071e-01,6.57168e-01,9.99999e-01,9.99999e-01,6.57168e-01,9.99999e-01
8.494451021e-01,6.62640e-01,9.99999e-01,9.99999e-01,6.62640e-01,9.99999e-01
8.536923276e-01,6.68048e-01,9.99999e-01,9.99999e-01,6.68048e-01,9.99999e-01
8.579607893e-01,6.73393e-01,9.99999e-01,9.99999e-01,6.73393e-01,9.99999e-01
8.622505932e-01,6.78673e-01,9.99999e-01,9.99999e-01,6.78673e-01,9.99999e-01
8.665618462e-01,6.40721e-01,9.99999e-01,9.36878e-01,6.83889e-01,9.99999e-01
8.708946554e-01,5.06081e-01,9.99999e-01,7.34471e-01,6.89041e-01,9.99999e-01
8.752491287e-01,5.41641e-01,9.99999e-01,7.80317e-01,6.94129e-01,9.99999e-01
8.796253743e-01,6.10370e-01,9.99999e-01,8.73013e-01,6.99153e-01,9.99999e-01
8.840235012e-01,6.56349e-01,9.99999e-01,9.32164e-01,7.04113e-01,9.99999e-01
8.884436187e-01,6.89618e-01,9.99999e-01,9.72650e-01,7.09009e-01,9.99999e-01
8.928858368e-01,7.05886e-01,9.99999e-01,9.88855e-01,7.13841e-01,9.99999e-01
8.973502660e-01,7.16649e-01,9.99999e-01,9.97271e-01,7.18610e-01,9.99999e-01
9.018370173e-01,7.23098e-01,9.99999e-01,9.99698e-01,7.23316e-01,9.99999e-01
9.063462024e-01,7.22455e-01,9.99999e-01,9.92439e-01,7.27958e-01,9.99999e-01
9.108779334e-01,7.19708e-01,9.99999e-01,9.82484e-01,7.32538e-01,9.99999e-01
9.154323231e-01,7.33988e-01,9.99999e-01,9.95837e-01,7.37055e-01,9.99999e-01
9.200094847e-01,6.97992e-01,9.99999e-01,9.41310e-01,7.41511e-01,9.99999e-01
9.246095321e-01,6.84098e-01,9.99999e-01,9.17139e-01,7.45904e-01,9.99999e-01
9.292325798e-01,7.01303e-01,9.99999e-01,9.34776e-01,7.50236e-01,9.99999e-01
9.338787427e-01,7.06634e-01,9.99999e-01,9.36551e-01,7.54506e-01,9.99999e-01
9.385481364e-01,7.23081e-01,9.99999e-01,9.53031e-01,7.58716e-01,9.99999e-01
9.432408771e-01,7.40696e-01,9.99999e-01,9.70939e-01,7.62865e-01,9.99999e-01
9.479570815e-01,7.55463e-01,9.99999e-01,9.85015e-01,7.66955e-01,9.99999e-01
9.526968669e-01,7.65387e-01,9.99999e-01,9.92738e-01,7.70985e-01,9.99999e-01
9.574603512e-01,7.72545e-01,9.99999e-01,9.96887e-01,7.74956e-01,9.99999e-01
9.622476530e-01,7.78112e-01,9.99999e-01,9.99027e-01,7.78868e-01,9.99999e-01
9.670588912e-01,7.82495e-01,9.99999e-01,9.99707e-01,7.82723e-01,9.99999e-01
9.718941857e-01,7.86503e-01,9.99999e-01,9.99978e-01,7.86519e-01,9.99999e-01
9.767536566e-01,7.90259e-01,9.99999e-01,9.99999e-01,7.90259e-01,9.99999e-01
9.816374249e-01,7.93942e-01,9.99999e-01,9.99999e-01,7.93942e-01,9.99999e-01
9.865456120e-01,7.97569e-01,9.99999e-01,9.99999e-01,7.97569e-01,9.99999e-01
9.914783401e-01,8.01140e-01,9.99999e-01,9.99999e-01,8.01140e-01,9.99999e-01
9.964357318e-01,8.04656e-01,9.99999e-01,9.99999e-01,8.04656e-01,9.99999e-01
1.001417910e+00,8.08118e-01,9.99999e-01,9.99999e-01,8.08118e-01,9.99999e-01
1.006425000e+00,8.11526e-01,9.99999e-01,9.99999e-01,8.11526e-01,9.99999e-01
1.011457125e+00,8.14881e-01,9.99999e-01,9.99999e-01,8.14881e-01,9.99999e-01
1.016514411e+00,8.18182e-01,9.99999e-01,9.99999e-01,8.18182e-01,9.99999e-01
1.021596983e+00,8.21401e-01,9.99999e-01,9.99962e-01,8.21432e-01,9.99999e-01
1.026704968e+00,8.22204e-01,9.99999e-01,9.97058e-01,8.24630e-01,9.99999e-01
1.031838492e+00,7.98110e-01,9.99999e-01,9.64160e-01,8.27776e-01,9.99999e-01
1.036997685e+00,1.57383e-01,9.99999e-01,1.89418e-01,8.30873e-01,9.99999e-01
1.042182673e+00,1.49568e-01,9.99999e-01,1.79355e-01,8.33919e-01,9.99999e-01
1.047393587e+00,1.62200e-01,9.99999e-01,1.93807e-01,8.36916e-01,9.99999e-01
1.052630555e+00,8.55260e-03,9.99999e-01,1.01833e-02,8.39864e-01,9.99999e-01
1.057893707e+00,1.94143e-02,9.99999e-01,2.30364e-02,8.42764e-01,9.99999e-01
1.063183176e+00,5.33343e-02,9.99999e-01,6.30714e-02,8.45617e-01,9.99999e-01
1.068499092e+00,1.27998e-01,9.99999e-01,1.50866e-01,8.48422e-01,9.99999e-01
1.073841587e+00,2.57286e-01,9.99999e-01,3.02269e-01,8.51181e-01,9.99999e-01
1.079210795e+00,4.00684e-01,9.99999e-01,4.69242e-01,8.53895e-01,9.99999e-01
1.084606849e+00,5.65308e-01,9.99999e-01,6.59972e-01,8.56563e-01,9.99999e-01
1.090029883e+00,6.92733e-01,9.99999e-01,8.06266e-01,8.59186e-01,9.99999e-01
1.095480033e+00,7.74970e-01,9.99999e-01,8.99281e-01,8.61766e-01,9.99999e-01
1.100957433e+00,8.21244e-01,9.99999e-01,9.50181e-01,8.64302e-01,9.99999e-01
1.106462220e+00,8.48661e-01,9.99999e-01,9.79078e-01,8.66795e-01,9.99999e-01
1.111994531e+00,8.62463e-01,9.99999e-01,9.92195e-01,8.69246e-01,9.99999e-01
1.117554504e+00,8.69986e-01,9.99999e-01,9.98083e-01,8.71656e-01,9.99999e-01
1.123142276e+00,8.73913e-01,9.99999e-01,9.99873e-01,8.74024e-01,9.99999e-01
1.128757988e+00,8.76351e-01,9.99999e-01,9.99999e-01,8.76351e-01,9.99999e-01
1.134401778e+00,8.78639e-01,9.99999e-01,9.99999e-01,8.78639e-01,9.99999e-01
1.140073787e+00,8.80887e-01,9.99999e-01,9.99999e-01,8.80887e-01,9.99999e-01
1.145774156e+00,8.83097e-01,9.99999e-01,9.99999e-01,8.83097e-01,9.99999e-01
1.151503026e+00,8.85268e-01,9.99999e-01,9.99999e-01,8.85268e-01,9.99999e-01
1.157260541e+00,8.87402e-01,9.99999e-01,9.99999e-01,8.87402e-01,9.99999e-01
1.163046844e+00,8.89498e-01,9.99999e-01,9.99999e-01,8.89498e-01,9.99999e-01
1.168862078e+00,8.91558e-01,9.99999e-01,9.99999e-01,8.91558e-01,9.99999e-01
1.174706389e+00,8.93581e-01,9.99999e-01,9.99999e-01,8.93581e-01,9.99999e-01
1.180579921e+00,8.95570e-01,9.99999e-01,9.99999e-01,8.95570e-01,9.99999e-01
1.186482820e+00,8.97519e-01,9.99999e-01,9.99995e-01,8.97523e-01,9.99999e-01
1.192415234e+00,8.90032e-01,9.99999e-01,9.89537e-01,8.99442e-01,9.99999e-01
1.198377311e+00,5.12297e-01,9.99999e-01,5.68381e-01,9.01326e-01,9.99999e-01
1.204369197e+00,2.21008e-09,9.99999e-01,2.44701e-09,9.03178e-01,9.99999e-01
1.210391043e+00,6.83690e-33,9.99999e-01,7.55461e-33,9.04996e-01,9.99999e-01
1.216442998e+00,1.09356e-28,9.99999e-01,1.20598e-28,9.06783e-01,9.99999e-01
1.222525213e+00,2.79174e-28,9.99999e-01,3.07278e-28,9.08537e-01,9.99999e-01
1.228637839e+00,6.97500e-22,9.99999e-01,7.66264e-22,9.10260e-01,9.99999e-01
1.234781029e+00,1.92781e-14,9.99999e-01,2.11393e-14,9.11952e-01,9.99999e-01
1.240954934e+00,8.48602e-10,9.99999e-01,9.28840e-10,9.13614e-01,9.99999e-01
1.247159708e+00,1.17734e-05,9.99999e-01,1.28636e-05,9.15246e-01,9.99999e-01
1.253395507e+00,1.32138e-03,9.99999e-01,1.44122e-03,9.16848e-01,9.99999e-01
1.259662485e+00,2.17487e-02,9.99999e-01,2.36805e-02,9.18422e-01,9.99999e-01
1.265960797e+00,1.04490e-01,9.99999e-01,1.13581e-01,9.19967e-01,9.99999e-01
1.272290601e+00,3.45841e-01,9.99999e-01,3.75308e-01,9.21484e-01,9.99999e-01
1.278652054e+00,3.23036e-01,9.99999e-01,3.49994e-01,9.22973e-01,9.99999e-01
1.285045314e+00,1.28639e-02,9.99999e-01,1.39154e-02,9.24436e-01,9.99999e-01
1.291470541e+00,1.46269e-04,9.99999e-01,1.57980e-04,9.25872e-01,9.99999e-01
1.297927893e+00,1.00543e-02,9.99999e-01,1.08427e-02,9.27281e-01,9.99999e-01
1.304417533e+00,1.78303e-01,9.99999e-01,1.91999e-01,9.28665e-01,9.99999e-01
1.310939621e+00,4.60942e-02,9.99999e-01,4.95623e-02,9.30024e-01,9.99999e-01
1.317494319e+00,8.74864e-12,9.99999e-01,9.39342e-12,9.31357e-01,9.99999e-01
1.324081790e+00,2.51431e-08,9.99999e-01,2.69582e-08,9.32666e-01,9.99999e-01
1.330702199e+00,6.44201e-05,9.99999e-01,6.89758e-05,9.33951e-01,9.99999e-01
1.337355710e+00,6.39126e-05,9.99999e-01,6.83401e-05,9.35213e-01,9.99999e-01
1.344042489e+00,1.92805e-05,9.99999e-01,2.05889e-05,9.36451e-01,9.99999e-01
1.350762701e+00,4.23436e-05,9.99999e-01,4.51585e-05,9.37666e-01,9.99999e-01
1.357516515e+00,1.43216e-03,9.99999e-01,1.52542e-03,9.38859e-01,9.99999e-01
1.364304097e+00,1.47900e-02,9.99999e-01,1.57335e-02,9.40030e-01,9.99999e-01
1.371125618e+00,1.06572e-01,9.99999e-01,1.13233e-01,9.41179e-01,9.99999e-01
1.377981246e+00,1.60986e-01,9.99999e-01,1.70843e-01,9.42306e-01,9.99999e-01
1.384871152e+00,3.37196e-01,9.99999e-01,3.57421e-01,9.43413e-01,9.99999e-01
1.391795508e+00,3.64981e-01,9.99999e-01,3.86428e-01,9.44499e-01,9.99999e-01
1.398754485e+00,5.26370e-01,9.99999e-01,5.56672e-01,9.45565e-01,9.99999e-01
1.405748258e+00,6.14559e-01,9.99999e-01,6.49220e-01,9.46611e-01,9.99999e-01
1.412776999e+00,7.21407e-01,9.99999e-01,7.61268e-01,9.47637e-01,9.99999e-01
1.419840884e+00,6.57331e-01,9.99999e-01,6.92915e-01,9.48645e-01,9.99999e-01
1.426940089e+00,7.04923e-02,9.99999e-01,7.42310e-02,9.49633e-01,9.99999e-01
1.434074789e+00,0.00000e+00,9.99999e-01,0.00000e+00,9.50603e-01,9.99999e-01
1.441245163e+00,0.00000e+00,9.99999e-01,0.00000e+00,9.51554e-01,9.99999e-01
1.448451389e+00,0.00000e+00,9.99999e-01,0.00000e+00,9.52488e-01,9.99999e-01
1.455693646e+00,7.84363e-261,9.99999e-01,8.22696e-261,9.53405e-01,9.99999e-01
1.462972114e+00,1.28993e-126,9.99999e-01,1.35169e-126,9.54304e-01,9.99999e-01
1.470286975e+00,2.00938e-53,9.99999e-01,2.10366e-53,9.55186e-01,9.99999e-01
