#,Wave/freq,Total,N2,CO2,Rayleigh,CIA
4.000000000e-01,6.43190e-19,9.99999e-01,9.99999e-01,6.43190e-19,9.99999e-01
4.020000000e-01,1.47246e-18,9.99999e-01,9.99999e-01,1.47246e-18,9.99999e-01
4.040100000e-01,3.31337e-18,9.99999e-01,9.99999e-01,3.31337e-18,9.99999e-01
4.060300500e-01,7.33732e-18,9.99999e-01,9.99999e-01,7.33732e-18,9.99999e-01
4.080602003e-01,1.59950e-17,9.99999e-01,9.99999e-01,1.59950e-17,9.99999e-01
4.101005013e-01,3.43359e-17,9.99999e-01,9.99999e-01,3.43359e-17,9.99999e-01
4.121510038e-01,7.26036e-17,9.99999e-01,9.99999e-01,7.26036e-17,9.99999e-01
4.142117588e-01,1.51267e-16,9.99999e-01,9.99999e-01,1.51267e-16,9.99999e-01
4.162828176e-01,3.10623e-16,9.99999e-01,9.99999e-01,3.10623e-16,9.99999e-01
4.183642317e-01,6.28855e-16,9.99999e-01,9.99999e-01,6.28855e-16,9.99999e-01
4.204560528e-01,1.25550e-15,9.99999e-01,9.99999e-01,1.25550e-15,9.99999e-01
4.225583331e-01,2.47259e-15,9.99999e-01,9.99999e-01,2.47259e-15,9.99999e-01
4.246711247e-01,4.80478e-15,9.99999e-01,9.99999e-01,4.80478e-15,9.99999e-01
4.267944804e-01,9.21501e-15,9.99999e-01,9.99999e-01,9.21501e-15,9.99999e-01
4.289284528e-01,1.74474e-14,9.99999e-01,9.99999e-01,1.74474e-14,9.99999e-01
4.310730950e-01,3.26206e-14,9.99999e-01,9.99999e-01,3.26206e-14,9.99999e-01
4.332284605e-01,6.02398e-14,9.99999e-01,9.99999e-01,6.02398e-14,9.99999e-01
4.353946028e-01,1.09904e-13,9.99999e-01,9.99999e-01,1.09904e-13,9.99999e-01
4.375715758e-01,1.98146e-13,9.99999e-01,9.99999e-01,1.98146e-13,9.99999e-01
4.397594337e-01,3.53103e-13,9.99999e-01,9.99999e-01,3.53103e-13,9.99999e-01
4.419582309e-01,6.22102e-13,9.99999e-01,9.99999e-01,6.22102e-13,9.99999e-01
4.441680220e-01,1.08383e-12,9.99999e-01,9.99999e-01,1.08383e-12,9.99999e-01
4.463888621e-01,1.86768e-12,9.99999e-01,9.99999e-01,1.86768e-12,9.99999e-01
4.486208064e-01,3.18400e-12,9.99999e-01,9.99999e-01,3.18400e-12,9.99999e-01
4.508639105e-01,5.37116e-12,9.99999e-01,9.99999e-01,5.37116e-12,9.99999e-01
4.531182300e-01,8.96761e-12,9.99999e-01,9.99999e-01,8.96761e-12,9.99999e-01
4.553838212e-01,1.48214e-11,9.99999e-01,9.99999e-01,1.48214e-11,9.99999e-01
4.576607403e-01,2.42544e-11,9.99999e-01,9.99999e-01,2.42544e-11,9.99999e-01
4.599490440e-01,3.93068e-11,9.99999e-01,9.99999e-01,3.93068e-11,9.99999e-01
4.622487892e-01,6.30961e-11,9.99999e-01,9.99999e-01,6.30961e-11,9.99999e-01
4.645600332e-01,1.00341e-10,9.99999e-01,9.99999e-01,1.00341e-10,9.99999e-01
4.668828333e-01,1.58115e-10,9.99999e-01,9.99999e-01,1.58115e-10,9.99999e-01
4.692172475e-01,2.46927e-10,9.99999e-01,9.99999e-01,2.46927e-10,9.99999e-01
4.715633337e-01,3.82242e-10,9.99999e-01,9.99999e-01,3.82242e-10,9.99999e-01
4.739211504e-01,5.86625e-10,9.99999e-01,9.99999e-01,5.86625e-10,9.99999e-01
4.762907561e-01,8.92706e-10,9.99999e-01,9.99999e-01,8.92706e-10,9.99999e-01
4.786722099e-01,1.34727e-09,9.99999e-01,9.99999e-01,1.34727e-09,9.99999e-01
4.810655710e-01,2.01683e-09,9.99999e-01,9.99999e-01,2.01683e-09,9.99999e-01
4.834708988e-01,2.99519e-09,9.99999e-01,9.99999e-01,2.99519e-09,9.99999e-01
4.858882533e-01,4.41352e-09,9.99999e-01,9.99999e-01,4.41352e-09,9.99999e-01
4.883176946e-01,6.45389e-09,9.99999e-01,9.99999e-01,6.45389e-09,9.99999e-01
4.907592831e-01,9.36695e-09,9.99999e-01,9.99999e-01,9.36695e-09,9.99999e-01
4.932130795e-01,1.34952e-08,9.99999e-01,9.99999e-01,1.34952e-08,9.99999e-01
4.956791449e-01,1.93031e-08,9.99999e-01,9.99999e-01,1.93031e-08,9.99999e-01
4.981575406e-01,2.74161e-08,9.99999e-01,9.99999e-01,2.74161e-08,9.99999e-01
5.006483283e-01,3.86699e-08,9.99999e-01,9.99999e-01,3.86699e-08,9.99999e-01
5.031515699e-01,5.41740e-08,9.99999e-01,9.99999e-01,5.41740e-08,9.99999e-01
5.056673278e-01,7.53905e-08,9.99999e-01,9.99999e-01,7.53905e-08,9.99999e-01
5.081956644e-01,1.04234e-07,9.99999e-01,9.99999e-01,1.04234e-07,9.99999e-01
5.107366428e-01,1.43192e-07,9.99999e-01,9.99999e-01,1.43192e-07,9.99999e-01
5.132903260e-01,1.95482e-07,9.99999e-01,9.99999e-01,1.95482e-07,9.99999e-01
5.158567776e-01,2.65231e-07,9.99999e-01,9.99999e-01,2.65231e-07,9.99999e-01
5.184360615e-01,3.57704e-07,9.99999e-01,9.99999e-01,3.57704e-07,9.99999e-01
5.210282418e-01,4.79576e-07,9.99999e-01,9.99999e-01,4.79576e-07,9.99999e-01
5.236333830e-01,6.39258e-07,9.99999e-01,9.99999e-01,6.39258e-07,9.99999e-01
5.262515499e-01,8.47285e-07,9.99999e-01,9.99999e-01,8.47285e-07,9.99999e-01
5.288828077e-01,1.11678e-06,9.99999e-01,9.99999e-01,1.11678e-06,9.99999e-01
5.315272217e-01,1.46397e-06,9.99999e-01,9.99999e-01,1.46397e-06,9.99999e-01
5.341848578e-01,1.90888e-06,9.99999e-01,9.99999e-01,1.90888e-06,9.99999e-01
5.368557821e-01,2.47598e-06,9.99999e-01,9.99999e-01,2.47598e-06,9.99999e-01
5.395400610e-01,3.19510e-06,9.99999e-01,9.99999e-01,3.19510e-06,9.99999e-01
5.422377613e-01,4.10237e-06,9.99999e-01,9.99999e-01,4.10237e-06,9.99999e-01
5.449489501e-01,5.24132e-06,9.99999e-01,9.99999e-01,5.24132e-06,9.99999e-01
5.476736949e-01,6.66415e-06,9.99999e-01,9.99999e-01,6.66415e-06,9.99999e-01
5.504120634e-01,8.43313e-06,9.99999e-01,9.99999e-01,8.43313e-06,9.99999e-01
5.531641237e-01,1.06222e-05,9.99999e-01,9.99999e-01,1.06222e-05,9.99999e-01
5.559299443e-01,1.33186e-05,9.99999e-01,9.99999e-01,1.33186e-05,9.99999e-01
5.587095940e-01,1.66250e-05,9.99999e-01,9.99999e-01,1.66250e-05,9.99999e-01
5.615031420e-01,2.06616e-05,9.99999e-01,9.99999e-01,2.06616e-05,9.99999e-01
5.643106577e-01,2.55682e-05,9.99999e-01,9.99999e-01,2.55682e-05,9.99999e-01
5.671322110e-01,3.15072e-05,9.99999e-01,9.99999e-01,3.15072e-05,9.99999e-01
5.699678720e-01,3.86658e-05,9.99999e-01,9.99999e-01,3.86658e-05,9.99999e-01
5.728177114e-01,4.72594e-05,9.99999e-01,9.99999e-01,4.72594e-05,9.99999e-01
5.756818000e-01,5.75345e-05,9.99999e-01,9.99999e-01,5.75345e-05,9.99999e-01
5.785602090e-01,6.97718e-05,9.99999e-01,9.99999e-01,6.97718e-05,9.99999e-01
5.814530100e-01,8.42903e-05,9.99999e-01,9.99999e-01,8.42903e-05,9.99999e-01
5.843602750e-01,1.01450e-04,9.99999e-01,9.99999e-01,1.01450e-04,9.99999e-01
5.872820764e-01,1.21658e-04,9.99999e-01,9.99999e-01,1.21658e-04,9.99999e-01
5.902184868e-01,1.45368e-04,9.99999e-01,9.99999e-01,1.45368e-04,9.99999e-01
5.931695792e-01,1.73089e-04,9.99999e-01,9.99999e-01,1.73089e-04,9.99999e-01
5.961354271e-01,2.05387e-04,9.99999e-01,9.99999e-01,2.05387e-04,9.99999e-01
5.991161043e-01,2.42889e-04,9.99999e-01,9.99999e-01,2.42889e-04,9.99999e-01
6.021116848e-01,2.86289e-04,9.99999e-01,9.99999e-01,2.86289e-04,9.99999e-01
6.051222432e-01,3.36351e-04,9.99999e-01,9.99999e-01,3.36351e-04,9.99999e-01
6.081478544e-01,3.93910e-04,9.99999e-01,9.99999e-01,3.93910e-04,9.99999e-01
6.111885937e-01,4.59882e-04,9.99999e-01,9.99999e-01,4.59882e-04,9.99999e-01
6.142445367e-01,5.35263e-04,9.99999e-01,9.99999e-01,5.35263e-04,9.99999e-01
6.173157594e-01,6.21135e-04,9.99999e-01,9.99999e-01,6.21135e-04,9.99999e-01
6.204023382e-01,7.18668e-04,9.99999e-01,9.99999e-01,7.18668e-04,9.99999e-01
6.235043498e-01,8.29125e-04,9.99999e-01,9.99999e-01,8.29125e-04,9.99999e-01
6.266218716e-01,9.53860e-04,9.99999e-01,9.99999e-01,9.53860e-04,9.99999e-01
6.297549810e-01,1.09433e-03,9.99999e-01,9.99999e-01,1.09433e-03,9.99999e-01
6.329037559e-01,1.25208e-03,9.99999e-01,9.99999e-01,1.25208e-03,9.99999e-01
6.360682746e-01,1.42876e-03,9.99999e-01,9.99999e-01,1.42876e-03,9.99999e-01
6.392486160e-01,1.62614e-03,9.99999e-01,9.99999e-01,1.62614e-03,9.99999e-01
6.424448591e-01,1.84605e-03,9.99999e-01,9.99999e-01,1.84605e-03,9.99999e-01
6.456570834e-01,2.09046e-03,9.99999e-01,9.99999e-01,2.09046e-03,9.99999e-01
6.488853688e-01,2.36142e-03,9.99999e-01,9.99999e-01,2.36142e-03,9.99999e-01
6.521297956e-01,2.66109e-03,9.99999e-01,9.99999e-01,2.66109e-03,9.99999e-01
6.553904446e-01,2.99172e-03,9.99999e-01,9.99999e-01,2.99172e-03,9.99999e-01
6.586673968e-01,3.35566e-03,9.99999e-01,9.99999e-01,3.35566e-03,9.99999e-01
6.619607338e-01,3.75535e-03,9.99999e-01,9.99999e-01,3.75535e-03,9.99999e-01
6.652705375e-01,4.19331e-03,9.99999e-01,9.99999e-01,4.19331e-03,9.99999e-01
6.685968902e-01,4.67216e-03,9.99999e-01,9.99999e-01,4.67216e-03,9.99999e-01
6.719398746e-01,5.19458e-03,9.99999e-01,9.99999e-01,5.19458e-03,9.99999e-01
6.752995740e-01,5.76333e-03,9.99999e-01,9.99999e-01,5.76333e-03,9.99999e-01
6.786760719e-01,6.38125e-03,9.99999e-01,9.99999e-01,6.38125e-03,9.99999e-01
6.820694522e-01,7.05122e-03,9.99999e-01,9.99999e-01,7.05122e-03,9.99999e-01
6.854797995e-01,7.77619e-03,9.99999e-01,9.99999e-01,7.77619e-03,9.99999e-01
6.889071985e-01,8.55912e-03,9.99999e-01,9.99999e-01,8.55912e-03,9.99999e-01
6.923517345e-01,9.40305e-03,9.99999e-01,9.99999e-01,9.40305e-03,9.99999e-01
6.958134932e-01,1.03110e-02,9.99999e-01,9.99999e-01,1.03110e-02,9.99999e-01
6.992925606e-01,1.12861e-02,9.99999e-01,9.99999e-01,1.12861e-02,9.99999e-01
7.027890234e-01,1.23314e-02,9.99999e-01,9.99999e-01,1.23314e-02,9.99999e-01
7.063029686e-01,1.34499e-02,9.99999e-01,9.99999e-01,1.34499e-02,9.99999e-01
7.098344834e-01,1.46447e-02,9.99999e-01,9.99999e-01,1.46447e-02,9.99999e-01
7.133836558e-01,1.59189e-02,9.99999e-01,9.99999e-01,1.59189e-02,9.99999e-01
7.169505741e-01,1.72755e-02,9.99999e-01,9.99999e-01,1.72755e-02,9.99999e-01
7.205353270e-01,1.87174e-02,9.99999e-01,9.99999e-01,1.87174e-02,9.99999e-01
7.241380036e-01,2.02475e-02,9.99999e-01,9.99999e-01,2.02475e-02,9.99999e-01
7.277586936e-01,2.18688e-02,9.99999e-01,9.99999e-01,2.18688e-02,9.99999e-01
7.313974871e-01,2.35840e-02,9.99999e-01,9.99999e-01,2.35840e-02,9.99999e-01
7.350544745e-01,2.53959e-02,9.99999e-01,9.99999e-01,2.53959e-02,9.99999e-01
7.387297469e-01,2.73069e-02,9.99999e-01,9.99999e-01,2.73069e-02,9.99999e-01
7.424233956e-01,2.93198e-02,9.99999e-01,9.99999e-01,2.93198e-02,9.99999e-01
7.461355126e-01,3.14368e-02,9.99999e-01,9.99999e-01,3.14368e-02,9.99999e-01
7.498661902e-01,3.36602e-02,9.99999e-01,9.99999e-01,3.36602e-02,9.99999e-01
7.536155211e-01,3.59923e-02,9.99999e-01,9.99999e-01,3.59923e-02,9.99999e-01
7.573835987e-01,3.84352e-02,9.99999e-01,9.99999e-01,3.84352e-02,9.99999e-01
7.611705167e-01,4.09905e-02,9.99999e-01,9.99999e-01,4.09905e-02,9.99999e-01
7.649763693e-01,4.36603e-02,9.99999e-01,9.99999e-01,4.36603e-02,9.99999e-01
7.688012511e-01,4.64460e-02,9.99999e-01,9.99999e-01,4.64460e-02,9.99999e-01
7.726452574e-01,4.93491e-02,9.99999e-01,9.99999e-01,4.93491e-02,9.99999e-01
7.765084837e-01,5.23709e-02,9.99999e-01,9.99999e-01,5.23709e-02,9.99999e-01
7.803910261e-01,4.98879e-02,9.99999e-01,8.98677e-01,5.55126e-02,9.99999e-01
7.842929812e-01,3.36225e-02,9.99999e-01,5.72053e-01,5.87750e-02,9.99999e-01
7.882144461e-01,3.46411e-02,9.99999e-01,5.57297e-01,6.21590e-02,9.99999e-01
7.921555184e-01,4.55504e-02,9.99999e-01,6.93675e-01,6.56652e-02,9.99999e-01
7.961162960e-01,5.39862e-02,9.99999e-01,7.79087e-01,6.92941e-02,9.99999e-01
8.000968774e-01,6.37879e-02,9.99999e-01,8.73259e-01,7.30458e-02,9.99999e-01
8.040973618e-01,7.16808e-02,9.99999e-01,9.31881e-01,7.69205e-02,9.99999e-01
8.081178486e-01,7.83417e-02,9.99999e-01,9.68160e-01,8.09181e-02,9.99999e-01
8.121584379e-01,8.41889e-02,9.99999e-01,9.90011e-01,8.50382e-02,9.99999e-01
8.162192301e-01,8.90829e-02,9.99999e-01,9.97785e-01,8.92806e-02,9.99999e-01
8.203003262e-01,9.36412e-02,9.99999e-01,9.99964e-01,9.36445e-02,9.99999e-01
8.244018279e-01,9.81291e-02,9.99999e-01,9.99999e-01,9.81291e-02,9.99999e-01
8.285238370e-01,1.02734e-01,9.99999e-01,9.99999e-01,1.02734e-01,9.99999e-01
8.326664562e-01,1.07457e-01,9.99999e-01,9.99999e-01,1.07457e-01,9.99999e-01
8.368297885e-01,1.12297e-01,9.99999e-01,9.99999e-01,1.12297e-01,9.99999e-01
8.410139374e-01,1.17254e-01,9.99999e-01,9.99999e-01,1.17254e-01,9.99999e-01
8.452190071e-01,1.22325e-01,9.99999e-01,9.99999e-01,1.22325e-01,9.99999e-01
8.494451021e-01,1.27508e-01,9.99999e-01,9.99999e-01,1.27508e-01,9.99999e-01
8.536923276e-01,1.32802e-01,9.99999e-01,9.99999e-01,1.32802e-01,9.99999e-01
8.579607893e-01,1.38205e-01,9.99999e-01,9.99999e-01,1.38205e-01,9.99999e-01
8.622505932e-01,1.43715e-01,9.99999e-01,9.99999e-01,1.43715e-01,9.99999e-01
8.665618462e-01,1.28107e-01,9.99999e-01,8.57887e-01,1.49328e-01,9.99999e-01
8.708946554e-01,3.99696e-02,9.99999e-01,2.57795e-01,1.55044e-01,9.99999e-01
8.752491287e-01,5.11104e-02,9.99999e-01,3.17734e-01,1.60859e-01,9.99999e-01
8.796253743e-01,8.71141e-02,9.99999e-01,5.22357e-01,1.66771e-01,9.99999e-01
8.840235012e-01,1.22345e-01,9.99999e-01,7.08110e-01,1.72777e-01,9.99999e-01
8.884436187e-01,1.55874e-01,9.99999e-01,8.71416e-01,1.78874e-01,9.99999e-01
8.928858368e-01,1.75001e-01,9.99999e-01,9.45645e-01,1.85059e-01,9.99999e-01
8.973502660e-01,1.88740e-01,9.99999e-01,9.86464e-01,1.91330e-01,9.99999e-01
9.018370173e-01,1.97386e-01,9.99999e-01,9.98497e-01,1.97683e-01,9.99999e-01
9.063462024e-01,1.96714e-01,9.99999e-01,9.63738e-01,2.04116e-01,9.99999e-01
9.108779334e-01,1.92912e-01,9.99999e-01,9.15905e-01,2.10624e-01,9.99999e-01
9.154323231e-01,2.12746e-01,9.99999e-01,9.79469e-01,2.17205e-01,9.99999e-01
9.200094847e-01,1.74830e-01,9.99999e-01,7.80991e-01,2.23856e-01,9.99999e-01
9.246095321e-01,1.50589e-01,9.99999e-01,6.53108e-01,2.30573e-01,9.99999e-01
9.292325798e-01,1.71607e-01,9.99999e-01,7.23004e-01,2.37353e-01,9.99999e-01
9.338787427e-01,1.77324e-01,9.99999e-01,7.26164e-01,2.44192e-01,9.99999e-01
9.385481364e-01,1.97956e-01,9.99999e-01,7.88393e-01,2.51088e-01,9.99999e-01
9.432408771e-01,2.22773e-01,9.99999e-01,8.63338e-01,2.58036e-01,9.99999e-01
9.479570815e-01,2.45787e-01,9.99999e-01,9.27380e-01,2.65034e-01,9.99999e-01
9.526968669e-01,2.62368e-01,9.99999e-01,9.64311e-01,2.72078e-01,9.99999e-01
9.574603512e-01,2.74852e-01,9.99999e-01,9.84554e-01,2.79164e-01,9.99999e-01
9.622476530e-01,2.84901e-01,9.99999e-01,9.95152e-01,2.86289e-01,9.99999e-01
9.670588912e-01,2.93023e-01,9.99999e-01,9.98543e-01,2.93450e-01,9.99999e-01
9.718941857e-01,3.00612e-01,9.99999e-01,9.99895e-01,3.00643e-01,9.99999e-01
9.767536566e-01,3.07866e-01,9.99999e-01,9.99999e-01,3.07866e-01,9.99999e-01
9.816374249e-01,3.15114e-01,9.99999e-01,9.99999e-01,3.15114e-01,9.99999e-01
9.865456120e-01,3.22384e-01,9.99999e-01,9.99999e-01,3.22384e-01,9.99999e-01
9.914783401e-01,3.29674e-01,9.99999e-01,9.99999e-01,3.29674e-01,9.99999e-01
9.964357318e-01,3.36980e-01,9.99999e-01,9.99999e-01,3.36980e-01,9.99999e-01
1.001417910e+00,3.44298e-01,9.99999e-01,9.99999e-01,3.44298e-01,9.99999e-01
1.006425000e+00,3.51626e-01,9.99999e-01,9.99999e-01,3.51626e-01,9.99999e-01
1.011457125e+00,3.58961e-01,9.99999e-01,9.99999e-01,3.58961e-01,9.99999e-01
1.016514411e+00,3.66300e-01,9.99999e-01,9.99999e-01,3.66300e-01,9.99999e-01
1.021596983e+00,3.73568e-01,9.99999e-01,9.99810e-01,3.73639e-01,9.99999e-01
1.026704968e+00,3.75439e-01,9.99999e-01,9.85468e-01,3.80975e-01,9.99999e-01
1.031838492e+00,3.46478e-01,9.99999e-01,8.92277e-01,3.88307e-01,9.99999e-01
1.036997685e+00,1.53949e-02,9.99999e-01,3.89124e-02,3.95631e-01,9.99999e-01
1.042182673e+00,4.63907e-04,9.99999e-01,1.15129e-03,4.02944e-01,9.99999e-01
1.047393587e+00,1.36348e-03,9.99999e-01,3.32358e-03,4.10244e-01,9.99999e-01
1.052630555e+00,2.36969e-08,9.99999e-01,5.67552e-08,4.17528e-01,9.99999e-01
1.057893707e+00,8.81316e-08,9.99999e-01,2.07469e-07,4.24793e-01,9.99999e-01
1.063183176e+00,5.52567e-06,9.99999e-01,1.27898e-05,4.32038e-01,9.99999e-01
1.068499092e+00,8.00898e-05,9.99999e-01,1.82329e-04,4.39260e-01,9.99999e-01
1.073841587e+00,1.64997e-03,9.99999e-01,3.69571e-03,4.46456e-01,9.99999e-01
1.079210795e+00,1.37256e-02,9.99999e-01,3.02577e-02,4.53624e-01,9.99999e-01
1.084606849e+00,6.18571e-02,9.99999e-01,1.34249e-01,4.60763e-01,9.99999e-01
1.090029883e+00,1.62952e-01,9.99999e-01,3.48285e-01,4.67869e-01,9.99999e-01
1.095480033e+00,2.81499e-01,9.99999e-01,5.92701e-01,4.74942e-01,9.99999e-01
1.100957433e+00,3.73902e-01,9.99999e-01,7.75766e-01,4.81978e-01,9.99999e-01
1.106462220e+00,4.40096e-01,9.99999e-01,9.00033e-01,4.88977e-01,9.99999e-01
1.111994531e+00,4.76914e-01,9.99999e-01,9.61644e-01,4.95936e-01,9.99999e-01
1.117554504e+00,4.98064e-01,9.99999e-01,9.90474e-01,5.02854e-01,9.99999e-01
1.123142276e+00,5.09408e-01,9.99999e-01,9.99369e-01,5.09729e-01,9.99999e-01
1.128757988e+00,5.16559e-01,9.99999e-01,9.99999e-01,5.16559e-01,9.99999e-01
1.134401778e+00,5.23343e-01,9.99999e-01,9.99999e-01,5.23343e-01,9.99999e-01
1.140073787e+00,5.30080e-01,9.99999e-01,9.99999e-01,5.30080e-01,9.99999e-01
1.145774156e+00,5.36767e-01,9.99999e-01,9.99999e-01,5.36767e-01,9.99999e-01
1.151503026e+00,5.43405e-01,9.99999e-01,9.99999e-01,5.43405e-01,9.99999e-01
1.157260541e+00,5.49991e-01,9.99999e-01,9.99999e-01,5.49991e-01,9.99999e-01
1.163046844e+00,5.56524e-01,9.99999e-01,9.99999e-01,5.56524e-01,9.99999e-01
1.168862078e+00,5.63004e-01,9.99999e-01,9.99999e-01,5.63004e-01,9.99999e-01
1.174706389e+00,5.69429e-01,9.99999e-01,9.99999e-01,5.69429e-01,9.99999e-01
1.180579921e+00,5.75798e-01,9.99999e-01,9.99999e-01,5.75798e-01,9.99999e-01
1.186482820e+00,5.82097e-01,9.99999e-01,9.99976e-01,5.82110e-01,9.99999e-01
1.192415234e+00,5.59801e-01,9.99999e-01,9.51451e-01,5.88365e-01,9.99999e-01
1.198377311e+00,2.98968e-01,9.99999e-01,5.02837e-01,5.94562e-01,9.99999e-01
1.204369197e+00,6.08024e-38,9.99999e-01,1.01219e-37,6.00699e-01,9.99999e-01
1.210391043e+00,1.35573e-155,9.99999e-01,2.23431e-155,6.06777e-01,9.99999e-01
1.216442998e+00,1.48266e-134,9.99999e-01,2.41951e-134,6.12795e-01,9.99999e-01
1.222525213e+00,1.58475e-132,9.99999e-01,2.56121e-132,6.18751e-01,9.99999e-01
1.228637839e+00,4.21430e-102,9.99999e-01,6.74669e-102,6.24646e-01,9.99999e-01
1.234781029e+00,2.88201e-63,9.99999e-01,4.57114e-63,6.30479e-01,9.99999e-01
1.240954934e+00,8.30859e-42,9.99999e-01,1.30587e-41,6.36250e-01,9.99999e-01
1.247159708e+00,8.78264e-20,9.99999e-01,1.36810e-19,6.41958e-01,9.99999e-01
1.253395507e+00,1.72186e-13,9.99999e-01,2.65883e-13,6.47603e-01,9.99999e-01
1.259662485e+00,6.39267e-08,9.99999e-01,9.78691e-08,6.53185e-01,9.99999e-01
1.265960797e+00,1.02393e-04,9.99999e-01,1.55447e-04,6.58703e-01,9.99999e-01
1.272290601e+00,7.40239e-03,9.99999e-01,1.11455e-02,6.64157e-01,9.99999e-01
1.278652054e+00,9.71848e-03,9.99999e-01,1.45150e-02,6.69547e-01,9.99999e-01
1.285045314e+00,3.62720e-06,9.99999e-01,5.37463e-06,6.74874e-01,9.99999e-01
1.291470541e+00,5.54531e-18,9.99999e-01,8.15323e-18,6.80136e-01,9.99999e-01
1.297927893e+00,1.70418e-07,9.99999e-01,2.48664e-07,6.85334e-01,9.99999e-01
1.304417533e+00,2.85207e-04,9.99999e-01,4.13063e-04,6.90468e-01,9.99999e-01
1.310939621e+00,8.15946e-05,9.99999e-01,1.17311e-04,6.95538e-01,9.99999e-01
1.317494319e+00,1.67974e-52,9.99999e-01,2.39776e-52,7.00544e-01,9.99999e-01
1.324081790e+00,3.13329e-34,9.99999e-01,4.44132e-34,7.05486e-01,9.99999e-01
1.330702199e+00,2.25901e-20,9.99999e-01,3.18007e-20,7.10365e-01,9.99999e-01
1.337355710e+00,1.72901e-18,9.99999e-01,2.41759e-18,7.15179e-01,9.99999e-01
1.344042489e+00,1.04450e-18,9.99999e-01,1.45084e-18,7.19931e-01,9.99999e-01
1.350762701e+00,1.05027e-20,9.99999e-01,1.44940e-20,7.24619e-01,9.99999e-01
1.357516515e+00,2.18671e-12,9.99999e-01,2.99859e-12,7.29244e-01,9.99999e-01
1.364304097e+00,3.40828e-09,9.99999e-01,4.64466e-09,7.33806e-01,9.99999e-01
1.371125618e+00,4.30919e-05,9.99999e-01,5.83659e-05,7.38306e-01,9.99999e-01
1.377981246e+00,1.52587e-04,9.99999e-01,2.05437e-04,7.42744e-01,9.99999e-01
1.384871152e+00,5.18189e-03,9.99999e-01,6.93582e-03,7.47120e-01,9.99999e-01
1.391795508e+00,7.82369e-03,9.99999e-01,1.04117e-02,7.51434e-01,9.99999e-01
1.398754485e+00,4.12058e-02,9.99999e-01,5.45274e-02,7.55688e-01,9.99999e-01
1.405748258e+00,9.21343e-02,9.99999e-01,1.21248e-01,7.59881e-01,9.99999e-01
1.412776999e+00,1.98334e-01,9.99999e-01,2.59595e-01,7.64014e-01,9.99999e-01
1.419840884e+00,1.96547e-01,9.99998e-01,2.55891e-01,7.68087e-01,9.99999e-01
1.426940089e+00,5.97831e-03,9.99998e-01,7.74292e-03,7.72100e-01,9.99999e-01
1.434074789e+00,0.00000e+00,9.99998e-01,0.00000e+00,7.76055e-01,9.99999e-01
1.441245163e+00,0.00000e+00,9.99999e-01,0.00000e+00,7.79951e-01,9.99999e-01
1.448451389e+00,0.00000e+00,9.99998e-01,0.00000e+00,7.83789e-01,9.99999e-01
1.455693646e+00,0.00000e+00,9.99999e-01,0.00000e+00,7.87570e-01,9.99999e-01
1.462972114e+00,0.00000e+00,9.99999e-01,0.00000e+00,7.91293e-01,9.99999e-01
1.470286975e+00,2.49810e-258,9.99999e-01,3.14242e-258,7.94961e-01,9.99999e-01
