#,Wave/freq,Total,N2,CO2,Rayleigh,CIA
4.000000000e-01,1.09575e-26,9.99999e-01,9.99999e-01,1.09575e-26,9.99999e-01
4.020000000e-01,3.57285e-26,9.99999e-01,9.99999e-01,3.57285e-26,9.99999e-01
4.040100000e-01,1.13673e-25,9.99999e-01,9.99999e-01,1.13673e-25,9.99999e-01
4.060300500e-01,3.53483e-25,9.99999e-01,9.99999e-01,3.53483e-25,9.99999e-01
4.080602003e-01,1.07485e-24,9.99999e-01,9.99999e-01,1.07485e-24,9.99999e-01
4.101005013e-01,3.19734e-24,9.99999e-01,9.99999e-01,3.19734e-24,9.99999e-01
4.121510038e-01,9.30845e-24,9.99999e-01,9.99999e-01,9.30845e-24,9.99999e-01
4.142117588e-01,2.65338e-23,9.99999e-01,9.99999e-01,2.65338e-23,9.99999e-01
4.162828176e-01,7.40858e-23,9.99999e-01,9.99999e-01,7.40858e-23,9.99999e-01
4.183642317e-01,2.02704e-22,9.99999e-01,9.99999e-01,2.02704e-22,9.99999e-01
4.204560528e-01,5.43696e-22,9.99999e-01,9.99999e-01,5.43696e-22,9.99999e-01
4.225583331e-01,1.43016e-21,9.99999e-01,9.99999e-01,1.43016e-21,9.99999e-01
4.246711247e-01,3.69078e-21,9.99999e-01,9.99999e-01,3.69078e-21,9.99999e-01
4.267944804e-01,9.34799e-21,9.99999e-01,9.99999e-01,9.34799e-21,9.99999e-01
4.289284528e-01,2.32459e-20,9.99999e-01,9.99999e-01,2.32459e-20,9.99999e-01
4.310730950e-01,5.67753e-20,9.99999e-01,9.99999e-01,5.67753e-20,9.99999e-01
4.332284605e-01,1.36242e-19,9.99999e-01,9.99999e-01,1.36242e-19,9.99999e-01
4.353946028e-01,3.21334e-19,9.99999e-01,9.99999e-01,3.21334e-19,9.99999e-01
4.375715758e-01,7.45143e-19,9.99999e-01,9.99999e-01,7.45143e-19,9.99999e-01
4.397594337e-01,1.69945e-18,9.99999e-01,9.99999e-01,1.69945e-18,9.99999e-01
4.419582309e-01,3.81332e-18,9.99999e-01,9.99999e-01,3.81332e-18,9.99999e-01
4.441680220e-01,8.42104e-18,9.99999e-01,9.99999e-01,8.42104e-18,9.99999e-01
4.463888621e-01,1.83076e-17,9.99999e-01,9.99999e-01,1.83076e-17,9.99999e-01
4.486208064e-01,3.91955e-17,9.99999e-01,9.99999e-01,3.91955e-17,9.99999e-01
4.508639105e-01,8.26630e-17,9.99999e-01,9.99999e-01,8.26630e-17,9.99999e-01
4.531182300e-01,1.71784e-16,9.99999e-01,9.99999e-01,1.71784e-16,9.99999e-01
4.553838212e-01,3.51870e-16,9.99999e-01,9.99999e-01,3.51870e-16,9.99999e-01
4.576607403e-01,7.10607e-16,9.99999e-01,9.99999e-01,7.10607e-16,9.99999e-01
4.599490440e-01,1.41530e-15,9.99999e-01,9.99999e-01,1.41530e-15,9.99999e-01
4.622487892e-01,2.78070e-15,9.99999e-01,9.99999e-01,2.78070e-15,9.99999e-01
4.645600332e-01,5.39099e-15,9.99999e-01,9.99999e-01,5.39099e-15,9.99999e-01
4.668828333e-01,1.03158e-14,9.99999e-01,9.99999e-01,1.03158e-14,9.99999e-01
4.692172475e-01,1.94882e-14,9.99999e-01,9.99999e-01,1.94882e-14,9.99999e-01
4.715633337e-01,3.63565e-14,9.99999e-01,9.99999e-01,3.63565e-14,9.99999e-01
4.739211504e-01,6.69953e-14,9.99999e-01,9.99999e-01,6.69953e-14,9.99999e-01
4.762907561e-01,1.21973e-13,9.99999e-01,9.99999e-01,1.21973e-13,9.99999e-01
4.786722099e-01,2.19453e-13,9.99999e-01,9.99999e-01,2.19453e-13,9.99999e-01
4.810655710e-01,3.90284e-13,9.99999e-01,9.99999e-01,3.90284e-13,9.99999e-01
4.834708988e-01,6.86249e-13,9.99999e-01,9.99999e-01,6.86249e-13,9.99999e-01
4.858882533e-01,1.19328e-12,9.99999e-01,9.99999e-01,1.19328e-12,9.99999e-01
4.883176946e-01,2.05237e-12,9.99999e-01,9.99999e-01,2.05237e-12,9.99999e-01
4.907592831e-01,3.49235e-12,9.99999e-01,9.99999e-01,3.49235e-12,9.99999e-01
4.932130795e-01,5.88056e-12,9.99999e-01,9.99999e-01,5.88056e-12,9.99999e-01
4.956791449e-01,9.80056e-12,9.99999e-01,9.99999e-01,9.80056e-12,9.99999e-01
4.981575406e-01,1.61697e-11,9.99999e-01,9.99999e-01,1.61697e-11,9.99999e-01
5.006483283e-01,2.64153e-11,9.99999e-01,9.99999e-01,2.64153e-11,9.99999e-01
5.031515699e-01,4.27366e-11,9.99999e-01,9.99999e-01,4.27366e-11,9.99999e-01
5.056673278e-01,6.84885e-11,9.99999e-01,9.99999e-01,6.84885e-11,9.99999e-01
5.081956644e-01,1.08740e-10,9.99999e-01,9.99999e-01,1.08740e-10,9.99999e-01
5.107366428e-01,1.71079e-10,9.99999e-01,9.99999e-01,1.71079e-10,9.99999e-01
5.132903260e-01,2.66756e-10,9.99999e-01,9.99999e-01,2.66756e-10,9.99999e-01
5.158567776e-01,4.12308e-10,9.99999e-01,9.99999e-01,4.12308e-10,9.99999e-01
5.184360615e-01,6.31822e-10,9.99999e-01,9.99999e-01,6.31822e-10,9.99999e-01
5.210282418e-01,9.60076e-10,9.99999e-01,9.99999e-01,9.60076e-10,9.99999e-01
5.236333830e-01,1.44686e-09,9.99999e-01,9.99999e-01,1.44686e-09,9.99999e-01
5.262515499e-01,2.16287e-09,9.99999e-01,9.99999e-01,2.16287e-09,9.99999e-01
5.288828077e-01,3.20764e-09,9.99999e-01,9.99999e-01,3.20764e-09,9.99999e-01
5.315272217e-01,4.72019e-09,9.99999e-01,9.99999e-01,4.72019e-09,9.99999e-01
5.341848578e-01,6.89318e-09,9.99999e-01,9.99999e-01,6.89318e-09,9.99999e-01
5.368557821e-01,9.99150e-09,9.99999e-01,9.99999e-01,9.99150e-09,9.99999e-01
5.395400610e-01,1.43767e-08,9.99999e-01,9.99999e-01,1.43767e-08,9.99999e-01
5.422377613e-01,2.05383e-08,9.99999e-01,9.99999e-01,2.05383e-08,9.99999e-01
5.449489501e-01,2.91346e-08,9.99999e-01,9.99999e-01,2.91346e-08,9.99999e-01
5.476736949e-01,4.10446e-08,9.99999e-01,9.99999e-01,4.10446e-08,9.99999e-01
5.504120634e-01,5.74331e-08,9.99999e-01,9.99999e-01,5.74331e-08,9.99999e-01
5.531641237e-01,7.98338e-08,9.99999e-01,9.99999e-01,7.98338e-08,9.99999e-01
5.559299443e-01,1.10252e-07,9.99999e-01,9.99999e-01,1.10252e-07,9.99999e-01
5.587095940e-01,1.51292e-07,9.99999e-01,9.99999e-01,1.51292e-07,9.99999e-01
5.615031420e-01,2.06316e-07,9.99999e-01,9.99999e-01,2.06316e-07,9.99999e-01
5.643106577e-01,2.79632e-07,9.99999e-01,9.99999e-01,2.79632e-07,9.99999e-01
5.671322110e-01,3.76732e-07,9.99999e-01,9.99999e-01,3.76732e-07,9.99999e-01
5.699678720e-01,5.04571e-07,9.99999e-01,9.99999e-01,5.04571e-07,9.99999e-01
5.728177114e-01,6.71900e-07,9.99999e-01,9.99999e-01,6.71900e-07,9.99999e-01
5.756818000e-01,8.89674e-07,9.99999e-01,9.99999e-01,8.89674e-07,9.99999e-01
5.785602090e-01,1.17152e-06,9.99999e-01,9.99999e-01,1.17152e-06,9.99999e-01
5.814530100e-01,1.53428e-06,9.99999e-01,9.99999e-01,1.53428e-06,9.99999e-01
5.843602750e-01,1.99870e-06,9.99999e-01,9.99999e-01,1.99870e-06,9.99999e-01
5.872820764e-01,2.59014e-06,9.99999e-01,9.99999e-01,2.59014e-06,9.99999e-01
5.902184868e-01,3.33944e-06,9.99999e-01,9.99999e-01,3.33944e-06,9.99999e-01
5.931695792e-01,4.28395e-06,9.99999e-01,9.99999e-01,4.28395e-06,9.99999e-01
5.961354271e-01,5.46863e-06,9.99999e-01,9.99999e-01,5.46863e-06,9.99999e-01
5.991161043e-01,6.94734e-06,9.99999e-01,9.99999e-01,6.94734e-06,9.99999e-01
6.021116848e-01,8.78427e-06,9.99999e-01,9.99999e-01,8.78427e-06,9.99999e-01
6.051222432e-01,1.10555e-05,9.99999e-01,9.99999e-01,1.10555e-05,9.99999e-01
6.081478544e-01,1.38510e-05,9.99999e-01,9.99999e-01,1.38510e-05,9.99999e-01
6.111885937e-01,1.72762e-05,9.99999e-01,9.99999e-01,1.72762e-05,9.99999e-01
6.142445367e-01,2.14546e-05,9.99999e-01,9.99999e-01,2.14546e-05,9.99999e-01
6.173157594e-01,2.65299e-05,9.99999e-01,9.99999e-01,2.65299e-05,9.99999e-01
6.204023382e-01,3.26684e-05,9.99999e-01,9.99999e-01,3.26684e-05,9.99999e-01
6.235043498e-01,4.00622e-05,9.99999e-01,9.99999e-01,4.00622e-05,9.99999e-01
6.266218716e-01,4.89319e-05,9.99999e-01,9.99999e-01,4.89319e-05,9.99999e-01
6.297549810e-01,5.95296e-05,9.99999e-01,9.99999e-01,5.95296e-05,9.99999e-01
6.329037559e-01,7.21427e-05,9.99999e-01,9.99999e-01,7.21427e-05,9.99999e-01
6.360682746e-01,8.70971e-05,9.99999e-01,9.99999e-01,8.70971e-05,9.99999e-01
6.392486160e-01,1.04761e-04,9.99999e-01,9.99999e-01,1.04761e-04,9.99999e-01
6.424448591e-01,1.25548e-04,9.99999e-01,9.99999e-01,1.25548e-04,9.99999e-01
6.456570834e-01,1.49923e-04,9.99999e-01,9.99999e-01,1.49923e-04,9.99999e-01
6.488853688e-01,1.78404e-04,9.99999e-01,9.99999e-01,1.78404e-04,9.99999e-01
6.521297956e-01,2.11567e-04,9.99999e-01,9.99999e-01,2.11567e-04,9.99999e-01
6.553904446e-01,2.50051e-04,9.99999e-01,9.99999e-01,2.50051e-04,9.99999e-01
6.586673968e-01,2.94562e-04,9.99999e-01,9.99999e-01,2.94562e-04,9.99999e-01
6.619607338e-01,3.45875e-04,9.99999e-01,9.99999e-01,3.45875e-04,9.99999e-01
6.652705375e-01,4.04841e-04,9.99999e-01,9.99999e-01,4.04841e-04,9.99999e-01
6.685968902e-01,4.72388e-04,9.99999e-01,9.99999e-01,4.72388e-04,9.99999e-01
6.719398746e-01,5.49528e-04,9.99999e-01,9.99999e-01,5.49528e-04,9.99999e-01
6.752995740e-01,6.37358e-04,9.99999e-01,9.99999e-01,6.37358e-04,9.99999e-01
6.786760719e-01,7.37063e-04,9.99999e-01,9.99999e-01,7.37063e-04,9.99999e-01
6.820694522e-01,8.49922e-04,9.99999e-01,9.99999e-01,8.49922e-04,9.99999e-01
6.854797995e-01,9.77308e-04,9.99999e-01,9.99999e-01,9.77308e-04,9.99999e-01
6.889071985e-01,1.12069e-03,9.99999e-01,9.99999e-01,1.12069e-03,9.99999e-01
6.923517345e-01,1.28164e-03,9.99999e-01,9.99999e-01,1.28164e-03,9.99999e-01
6.958134932e-01,1.46182e-03,9.99999e-01,9.99999e-01,1.46182e-03,9.99999e-01
6.992925606e-01,1.66301e-03,9.99999e-01,9.99999e-01,1.66301e-03,9.99999e-01
7.027890234e-01,1.88707e-03,9.99999e-01,9.99999e-01,1.88707e-03,9.99999e-01
7.063029686e-01,2.13599e-03,9.99999e-01,9.99999e-01,2.13599e-03,9.99999e-01
7.098344834e-01,2.41183e-03,9.99999e-01,9.99999e-01,2.41183e-03,9.99999e-01
7.133836558e-01,2.71676e-03,9.99999e-01,9.99999e-01,2.71676e-03,9.99999e-01
7.169505741e-01,3.05306e-03,9.99999e-01,9.99999e-01,3.05306e-03,9.99999e-01
7.205353270e-01,3.42308e-03,9.99999e-01,9.99999e-01,3.42308e-03,9.99999e-01
7.241380036e-01,3.82930e-03,9.99999e-01,9.99999e-01,3.82930e-03,9.99999e-01
7.277586936e-01,4.27424e-03,9.99999e-01,9.99999e-01,4.27424e-03,9.99999e-01
7.313974871e-01,4.76052e-03,9.99999e-01,9.99999e-01,4.76052e-03,9.99999e-01
7.350544745e-01,5.29087e-03,9.99999e-01,9.99999e-01,5.29087e-03,9.99999e-01
7.387297469e-01,5.86804e-03,9.99999e-01,9.99999e-01,5.86804e-03,9.99999e-01
7.424233956e-01,6.49487e-03,9.99999e-01,9.99999e-01,6.49487e-03,9.99999e-01
7.461355126e-01,7.17427e-03,9.99999e-01,9.99999e-01,7.17427e-03,9.99999e-01
7.498661902e-01,7.90918e-03,9.99999e-01,9.99999e-01,7.90918e-03,9.99999e-01
7.536155211e-01,8.70259e-03,9.99999e-01,9.99999e-01,8.70259e-03,9.99999e-01
7.573835987e-01,9.55753e-03,9.99999e-01,9.99999e-01,9.55753e-03,9.99999e-01
7.611705167e-01,1.04770e-02,9.99999e-01,9.99999e-01,1.04770e-02,9.99999e-01
7.649763693e-01,1.14642e-02,9.99999e-01,9.99999e-01,1.14642e-02,9.99999e-01
7.688012511e-01,1.25221e-02,9.99999e-01,9.99999e-01,1.25221e-02,9.99999e-01
7.726452574e-01,1.36538e-02,9.99999e-01,9.99999e-01,1.36538e-02,9.99999e-01
7.765084837e-01,1.48623e-02,9.99999e-01,9.99999e-01,1.48623e-02,9.99999e-01
7.803910261e-01,1.39836e-02,9.99999e-01,8.65816e-01,1.61507e-02,9.99999e-01
7.842929812e-01,8.12743e-03,9.99999e-01,4.63840e-01,1.75220e-02,9.99999e-01
7.882144461e-01,8.51033e-03,9.99999e-01,4.48403e-01,1.89792e-02,9.99999e-01
7.921555184e-01,1.22474e-02,9.99999e-01,5.96703e-01,2.05251e-02,9.99999e-01
7.961162960e-01,1.55762e-02,9.99999e-01,7.02811e-01,2.21627e-02,9.99999e-01
8.000968774e-01,1.97221e-02,9.99999e-01,8.25375e-01,2.38946e-02,9.99999e-01
8.040973618e-01,2.32852e-02,9.99999e-01,9.05204e-01,2.57237e-02,9.99999e-01
8.081178486e-01,2.64110e-02,9.99999e-01,9.55107e-01,2.76524e-02,9.99999e-01
8.121584379e-01,2.92675e-02,9.99999e-01,9.85989e-01,2.96833e-02,9.99999e-01
8.162192301e-01,3.17198e-02,9.99999e-01,9.96887e-01,3.18188e-02,9.99999e-01
8.203003262e-01,3.40597e-02,9.99999e-01,9.99955e-01,3.40612e-02,9.99999e-01
8.244018279e-01,3.64126e-02,9.99999e-01,9.99999e-01,3.64126e-02,9.99999e-01
8.285238370e-01,3.88750e-02,9.99999e-01,9.99999e-01,3.88750e-02,9.99999e-01
8.326664562e-01,4.14503e-02,9.99999e-01,9.99999e-01,4.14503e-02,9.99999e-01
8.368297885e-01,4.41403e-02,9.99999e-01,9.99999e-01,4.41403e-02,9.99999e-01
8.410139374e-01,4.69465e-02,9.99999e-01,9.99999e-01,4.69465e-02,9.99999e-01
8.452190071e-01,4.98703e-02,9.99999e-01,9.99999e-01,4.98703e-02,9.99999e-01
8.494451021e-01,5.29131e-02,9.99999e-01,9.99999e-01,5.29131e-02,9.99999e-01
8.536923276e-01,5.60758e-02,9.99999e-01,9.99999e-01,5.60758e-02,9.99999e-01
8.579607893e-01,5.93595e-02,9.99999e-01,9.99999e-01,5.93595e-02,9.99999e-01
8.622505932e-01,6.27649e-02,9.99999e-01,9.99999e-01,6.27649e-02,9.99999e-01
8.665618462e-01,5.51107e-02,9.99999e-01,8.31325e-01,6.62926e-02,9.99999e-01
8.708946554e-01,1.10957e-02,9.99999e-01,1.58639e-01,6.99430e-02,9.99999e-01
8.752491287e-01,1.50169e-02,9.99999e-01,2.03711e-01,7.37162e-02,9.99999e-01
8.796253743e-01,3.14566e-02,9.99999e-01,4.05303e-01,7.76125e-02,9.99999e-01
8.840235012e-01,5.02504e-02,9.99999e-01,6.15575e-01,8.16316e-02,9.99999e-01
8.884436187e-01,7.06672e-02,9.99999e-01,8.23883e-01,8.57732e-02,9.99999e-01
8.928858368e-01,8.31966e-02,9.99999e-01,9.24026e-01,9.00369e-02,9.99999e-01
8.973502660e-01,9.26312e-02,9.99999e-01,9.81033e-01,9.44221e-02,9.99999e-01
9.018370173e-01,9.87195e-02,9.99999e-01,9.97894e-01,9.89278e-02,9.99999e-01
9.063462024e-01,9.82124e-02,9.99999e-01,9.48424e-01,1.03553e-01,9.99999e-01
9.108779334e-01,9.56343e-02,9.99999e-01,8.83074e-01,1.08297e-01,9.99999e-01
9.154323231e-01,1.09916e-01,9.99999e-01,9.71350e-01,1.13158e-01,9.99999e-01
9.200094847e-01,8.52807e-02,9.99999e-01,7.21894e-01,1.18135e-01,9.99999e-01
9.246095321e-01,6.75343e-02,9.99999e-01,5.48055e-01,1.23225e-01,9.99999e-01
9.292325798e-01,8.12867e-02,9.99999e-01,6.32934e-01,1.28428e-01,9.99999e-01
9.338787427e-01,8.52420e-02,9.99999e-01,6.37362e-01,1.33742e-01,9.99999e-01
9.385481364e-01,9.94264e-02,9.99999e-01,7.14457e-01,1.39163e-01,9.99999e-01
9.432408771e-01,1.17523e-01,9.99999e-01,8.12228e-01,1.44691e-01,9.99999e-01
9.479570815e-01,1.35058e-01,9.99999e-01,8.98453e-01,1.50323e-01,9.99999e-01
9.526968669e-01,1.48227e-01,9.99999e-01,9.49830e-01,1.56056e-01,9.99999e-01
9.574603512e-01,1.58358e-01,9.99999e-01,9.78191e-01,1.61889e-01,9.99999e-01
9.622476530e-01,1.66667e-01,9.99999e-01,9.93146e-01,1.67817e-01,9.99999e-01
9.670588912e-01,1.73482e-01,9.99999e-01,9.97944e-01,1.73839e-01,9.99999e-01
9.718941857e-01,1.79926e-01,9.99999e-01,9.99856e-01,1.79952e-01,9.99999e-01
9.767536566e-01,1.86153e-01,9.99999e-01,9.99999e-01,1.86153e-01,9.99999e-01
9.816374249e-01,1.92438e-01,9.99999e-01,9.99999e-01,1.92438e-01,9.99999e-01
9.865456120e-01,1.98805e-01,9.99999e-01,9.99999e-01,1.98805e-01,9.99999e-01
9.914783401e-01,2.05251e-01,9.99999e-01,9.99999e-01,2.05251e-01,9.99999e-01
9.964357318e-01,2.11773e-01,9.99999e-01,9.99999e-01,2.11773e-01,9.99999e-01
1.001417910e+00,2.18366e-01,9.99999e-01,9.99999e-01,2.18366e-01,9.99999e-01
1.006425000e+00,2.25029e-01,9.99999e-01,9.99999e-01,2.25029e-01,9.99999e-01
1.011457125e+00,2.31757e-01,9.99999e-01,9.99999e-01,2.31757e-01,9.99999e-01
1.016514411e+00,2.38548e-01,9.99999e-01,9.99999e-01,2.38548e-01,9.99999e-01
1.021596983e+00,2.45321e-01,9.99999e-01,9.99686e-01,2.45397e-01,9.99999e-01
1.026704968e+00,2.46986e-01,9.99999e-01,9.78927e-01,2.52302e-01,9.99999e-01
1.031838492e+00,2.22893e-01,9.99999e-01,8.59727e-01,2.59260e-01,9.99999e-01
1.036997685e+00,6.17278e-03,9.99999e-01,2.31828e-02,2.66266e-01,9.99999e-01
1.042182673e+00,4.85950e-05,9.99999e-01,1.77797e-04,2.73317e-01,9.99999e-01
1.047393587e+00,1.35567e-04,9.99999e-01,4.83461e-04,2.80410e-01,9.99999e-01
1.052630555e+00,5.25722e-11,9.99999e-01,1.82833e-10,2.87542e-01,9.99999e-01
1.057893707e+00,1.98627e-10,9.99999e-01,6.73975e-10,2.94709e-01,9.99999e-01
1.063183176e+00,8.43711e-08,9.99999e-01,2.79460e-07,3.01908e-01,9.99999e-01
1.068499092e+00,2.34493e-06,9.99999e-01,7.58545e-06,3.09135e-01,9.99999e-01
1.073841587e+00,1.29726e-04,9.99999e-01,4.10021e-04,3.16387e-01,9.99999e-01
1.079210795e+00,2.57522e-03,9.99999e-01,7.95651e-03,3.23661e-01,9.99999e-01
1.084606849e+00,1.98806e-02,9.99999e-01,6.00707e-02,3.30954e-01,9.99999e-01
1.090029883e+00,7.66384e-02,9.99999e-01,2.26565e-01,3.38262e-01,9.99999e-01
1.095480033e+00,1.65283e-01,9.99999e-01,4.78272e-01,3.45582e-01,9.99999e-01
1.100957433e+00,2.46363e-01,9.99999e-01,6.98085e-01,3.52912e-01,9.99999e-01
1.106462220e+00,3.10353e-01,9.99999e-01,8.61497e-01,3.60248e-01,9.99999e-01
1.111994531e+00,3.47770e-01,9.99999e-01,9.46089e-01,3.67586e-01,9.99999e-01
1.117554504e+00,3.69901e-01,9.99999e-01,9.86598e-01,3.74925e-01,9.99999e-01
1.123142276e+00,3.81924e-01,9.99999e-01,9.99118e-01,3.82261e-01,9.99999e-01
1.128757988e+00,3.89591e-01,9.99999e-01,9.99999e-01,3.89592e-01,9.99999e-01
1.134401778e+00,3.96914e-01,9.99999e-01,9.99999e-01,3.96914e-01,9.99999e-01
1.140073787e+00,4.04225e-01,9.99999e-01,9.99999e-01,4.04225e-01,9.99999e-01
1.145774156e+00,4.11522e-01,9.99999e-01,9.99999e-01,4.11522e-01,9.99999e-01
1.151503026e+00,4.18803e-01,9.99999e-01,9.99999e-01,4.18803e-01,9.99999e-01
1.157260541e+00,4.26065e-01,9.99999e-01,9.99999e-01,4.26065e-01,9.99999e-01
1.163046844e+00,4.33306e-01,9.99999e-01,9.99999e-01,4.33306e-01,9.99999e-01
1.168862078e+00,4.40523e-01,9.99999e-01,9.99999e-01,4.40523e-01,9.99999e-01
1.174706389e+00,4.47715e-01,9.99999e-01,9.99999e-01,4.47715e-01,9.99999e-01
1.180579921e+00,4.54878e-01,9.99999e-01,9.99999e-01,4.54878e-01,9.99999e-01
1.186482820e+00,4.61990e-01,9.99999e-01,9.99954e-01,4.62011e-01,9.99999e-01
1.192415234e+00,4.37005e-01,9.99999e-01,9.31558e-01,4.69112e-01,9.99999e-01
1.198377311e+00,2.24233e-01,9.99999e-01,4.70900e-01,4.76178e-01,9.99999e-01
1.204369197e+00,3.57119e-53,9.99999e-01,7.39057e-53,4.83208e-01,9.99999e-01
1.210391043e+00,4.64594e-221,9.99999e-01,9.47764e-221,4.90200e-01,9.99999e-01
1.216442998e+00,4.92312e-191,9.99999e-01,9.90263e-191,4.97152e-01,9.99999e-01
1.222525213e+00,3.84205e-188,9.99999e-01,7.62216e-188,5.04062e-01,9.99999e-01
1.228637839e+00,9.75763e-145,9.99999e-01,1.90978e-144,5.10929e-01,9.99999e-01
1.234781029e+00,2.59120e-89,9.99999e-01,5.00471e-89,5.17752e-01,9.99999e-01
1.240954934e+00,1.00247e-58,9.99999e-01,1.91118e-58,5.24528e-01,9.99999e-01
1.247159708e+00,2.89292e-27,9.99999e-01,5.44543e-27,5.31256e-01,9.99999e-01
1.253395507e+00,1.42525e-18,9.99999e-01,2.64949e-18,5.37935e-01,9.99999e-01
1.259662485e+00,1.39048e-10,9.99999e-01,2.55338e-10,5.44563e-01,9.99999e-01
1.265960797e+00,4.48754e-06,9.99999e-01,8.14228e-06,5.51140e-01,9.99999e-01
1.272290601e+00,1.58567e-03,9.99999e-01,2.84342e-03,5.57664e-01,9.99999e-01
1.278652054e+00,1.77862e-03,9.99999e-01,3.15282e-03,5.64134e-01,9.99999e-01
1.285045314e+00,6.67203e-08,9.99999e-01,1.16940e-07,5.70549e-01,9.99999e-01
1.291470541e+00,7.13919e-25,9.99999e-01,1.23749e-24,5.76909e-01,9.99999e-01
1.297927893e+00,8.45291e-08,9.99999e-01,1.44937e-07,5.83211e-01,9.99999e-01
1.304417533e+00,1.11893e-05,9.99999e-01,1.89825e-05,5.89456e-01,9.99999e-01
1.310939621e+00,2.66561e-06,9.99999e-01,4.47518e-06,5.95642e-01,9.99999e-01
1.317494319e+00,2.82064e-75,9.99999e-01,4.68723e-75,6.01769e-01,9.99999e-01
1.324081790e+00,6.87619e-48,9.99999e-01,1.13126e-47,6.07837e-01,9.99999e-01
1.330702199e+00,1.82568e-28,9.99999e-01,2.97417e-28,6.13843e-01,9.99999e-01
1.337355710e+00,1.44536e-25,9.99999e-01,2.33201e-25,6.19789e-01,9.99999e-01
1.344042489e+00,9.83011e-26,9.99999e-01,1.57112e-25,6.25673e-01,9.99999e-01
1.350762701e+00,7.70666e-29,9.99999e-01,1.22038e-28,6.31495e-01,9.99999e-01
1.357516515e+00,8.79590e-17,9.99999e-01,1.38028e-16,6.37255e-01,9.99999e-01
1.364304097e+00,1.61213e-12,9.99999e-01,2.50739e-12,6.42952e-01,9.99999e-01
1.371125618e+00,8.40770e-07,9.99999e-01,1.29631e-06,6.48586e-01,9.99999e-01
1.377981246e+00,4.73504e-06,9.99999e-01,7.23838e-06,6.54157e-01,9.99999e-01
1.384871152e+00,6.06390e-04,9.99999e-01,9.19240e-04,6.59664e-01,9.99999e-01
1.391795508e+00,1.17629e-03,9.99999e-01,1.76857e-03,6.65107e-01,9.99999e-01
1.398754485e+00,1.07815e-02,9.99999e-01,1.60801e-02,6.70486e-01,9.99999e-01
1.405748258e+00,3.47335e-02,9.99999e-01,5.13960e-02,6.75801e-01,9.99999e-01
1.412776999e+00,1.01453e-01,9.99999e-01,1.48965e-01,6.81052e-01,9.99999e-01
1.419840884e+00,1.07510e-01,9.99998e-01,1.56665e-01,6.86239e-01,9.99999e-01
1.426940089e+00,2.61429e-03,9.99998e-01,3.78135e-03,6.91362e-01,9.99999e-01
1.434074789e+00,0.00000e+00,9.99998e-01,0.00000e+00,6.96421e-01,9.99999e-01
1.441245163e+00,0.00000e+00,9.99999e-01,0.00000e+00,7.01415e-01,9.99999e-01
1.448451389e+00,0.00000e+00,9.99998e-01,0.00000e+00,7.06346e-01,9.99999e-01
1.455693646e+00,0.00000e+00,9.99998e-01,0.00000e+00,7.11213e-01,9.99999e-01
1.462972114e+00,0.00000e+00,9.99999e-01,0.00000e+00,7.16017e-01,9.99999e-01
1.470286975e+00,0.00000e+00,9.99999e-01,0.00000e+00,7.20757e-01,9.99999e-01
