#,Wave/freq,Total,N2,CO2,Rayleigh,CIA
4.000000000e-01,9.34156e-05,9.99999e-01,9.99999e-01,9.34156e-05,9.99999e-01
4.020000000e-01,1.12226e-04,9.99999e-01,9.99999e-01,1.12226e-04,9.99999e-01
4.040100000e-01,1.34312e-04,9.99999e-01,9.99999e-01,1.34312e-04,9.99999e-01
4.060300500e-01,1.60174e-04,9.99999e-01,9.99999e-01,1.60174e-04,9.99999e-01
4.080602003e-01,1.90354e-04,9.99999e-01,9.99999e-01,1.90354e-04,9.99999e-01
4.101005013e-01,2.25450e-04,9.99999e-01,9.99999e-01,2.25450e-04,9.99999e-01
4.121510038e-01,2.66125e-04,9.99999e-01,9.99999e-01,2.66125e-04,9.99999e-01
4.142117588e-01,3.13112e-04,9.99999e-01,9.99999e-01,3.13112e-04,9.99999e-01
4.162828176e-01,3.67213e-04,9.99999e-01,9.99999e-01,3.67213e-04,9.99999e-01
4.183642317e-01,4.29308e-04,9.99999e-01,9.99999e-01,4.29308e-04,9.99999e-01
4.204560528e-01,5.00358e-04,9.99999e-01,9.99999e-01,5.00358e-04,9.99999e-01
4.225583331e-01,5.81404e-04,9.99999e-01,9.99999e-01,5.81404e-04,9.99999e-01
4.246711247e-01,6.73577e-04,9.99999e-01,9.99999e-01,6.73577e-04,9.99999e-01
4.267944804e-01,7.78099e-04,9.99999e-01,9.99999e-01,7.78099e-04,9.99999e-01
4.289284528e-01,8.96281e-04,9.99999e-01,9.99999e-01,8.96281e-04,9.99999e-01
4.310730950e-01,1.02954e-03,9.99999e-01,9.99999e-01,1.02954e-03,9.99999e-01
4.332284605e-01,1.17937e-03,9.99999e-01,9.99999e-01,1.17937e-03,9.99999e-01
4.353946028e-01,1.34738e-03,9.99999e-01,9.99999e-01,1.34738e-03,9.99999e-01
4.375715758e-01,1.53529e-03,9.99999e-01,9.99999e-01,1.53529e-03,9.99999e-01
4.397594337e-01,1.74490e-03,9.99999e-01,9.99999e-01,1.74490e-03,9.99999e-01
4.419582309e-01,1.97812e-03,9.99999e-01,9.99999e-01,1.97812e-03,9.99999e-01
4.441680220e-01,2.23696e-03,9.99999e-01,9.99999e-01,2.23696e-03,9.99999e-01
4.463888621e-01,2.52353e-03,9.99999e-01,9.99999e-01,2.52353e-03,9.99999e-01
4.486208064e-01,2.84005e-03,9.99999e-01,9.99999e-01,2.84005e-03,9.99999e-01
4.508639105e-01,3.18881e-03,9.99999e-01,9.99999e-01,3.18881e-03,9.99999e-01
4.531182300e-01,3.57222e-03,9.99999e-01,9.99999e-01,3.57222e-03,9.99999e-01
4.553838212e-01,3.99277e-03,9.99999e-01,9.99999e-01,3.99277e-03,9.99999e-01
4.576607403e-01,4.45302e-03,9.99999e-01,9.99999e-01,4.45302e-03,9.99999e-01
4.599490440e-01,4.95564e-03,9.99999e-01,9.99999e-01,4.95564e-03,9.99999e-01
4.622487892e-01,5.50335e-03,9.99999e-01,9.99999e-01,5.50335e-03,9.99999e-01
4.645600332e-01,6.09895e-03,9.99999e-01,9.99999e-01,6.09895e-03,9.99999e-01
4.668828333e-01,6.74531e-03,9.99999e-01,9.99999e-01,6.74531e-03,9.99999e-01
4.692172475e-01,7.44534e-03,9.99999e-01,9.99999e-01,7.44534e-03,9.99999e-01
4.715633337e-01,8.20200e-03,9.99999e-01,9.99999e-01,8.20200e-03,9.99999e-01
4.739211504e-01,9.01831e-03,9.99999e-01,9.99999e-01,9.01831e-03,9.99999e-01
4.762907561e-01,9.89730e-03,9.99999e-01,9.99999e-01,9.89730e-03,9.99999e-01
4.786722099e-01,1.08420e-02,9.99999e-01,9.99999e-01,1.08420e-02,9.99999e-01
4.810655710e-01,1.18555e-02,9.99999e-01,9.99999e-01,1.18555e-02,9.99999e-01
4.834708988e-01,1.29410e-02,9.99999e-01,9.99999e-01,1.29410e-02,9.99999e-01
4.858882533e-01,1.41013e-02,9.99999e-01,9.99999e-01,1.41013e-02,9.99999e-01
4.883176946e-01,1.53397e-02,9.99999e-01,9.99999e-01,1.53397e-02,9.99999e-01
4.907592831e-01,1.66591e-02,9.99999e-01,9.99999e-01,1.66591e-02,9.99999e-01
4.932130795e-01,1.80625e-02,9.99999e-01,9.99999e-01,1.80625e-02,9.99999e-01
4.956791449e-01,1.95529e-02,9.99999e-01,9.99999e-01,1.95529e-02,9.99999e-01
4.981575406e-01,2.11331e-02,9.99999e-01,9.99999e-01,2.11331e-02,9.99999e-01
5.006483283e-01,2.28060e-02,9.99999e-01,9.99999e-01,2.28060e-02,9.99999e-01
5.031515699e-01,2.45744e-02,9.99999e-01,9.99999e-01,2.45744e-02,9.99999e-01
5.056673278e-01,2.64408e-02,9.99999e-01,9.99999e-01,2.64408e-02,9.99999e-01
5.081956644e-01,2.84078e-02,9.99999e-01,9.99999e-01,2.84078e-02,9.99999e-01
5.107366428e-01,3.04780e-02,9.99999e-01,9.99999e-01,3.04780e-02,9.99999e-01
5.132903260e-01,3.26536e-02,9.99999e-01,9.99999e-01,3.26536e-02,9.99999e-01
5.158567776e-01,3.49370e-02,9.99999e-01,9.99999e-01,3.49370e-02,9.99999e-01
5.184360615e-01,3.73301e-02,9.99999e-01,9.99999e-01,3.73301e-02,9.99999e-01
5.210282418e-01,3.98349e-02,9.99999e-01,9.99999e-01,3.98349e-02,9.99999e-01
5.236333830e-01,4.24534e-02,9.99999e-01,9.99999e-01,4.24534e-02,9.99999e-01
5.262515499e-01,4.51871e-02,9.99999e-01,9.99999e-01,4.51871e-02,9.99999e-01
5.288828077e-01,4.80376e-02,9.99999e-01,9.99999e-01,4.80376e-02,9.99999e-01
5.315272217e-01,5.10062e-02,9.99999e-01,9.99999e-01,5.10062e-02,9.99999e-01
5.341848578e-01,5.40942e-02,9.99999e-01,9.99999e-01,5.40942e-02,9.99999e-01
5.368557821e-01,5.73026e-02,9.99999e-01,9.99999e-01,5.73026e-02,9.99999e-01
5.395400610e-01,6.06322e-02,9.99999e-01,9.99999e-01,6.06322e-02,9.99999e-01
5.422377613e-01,6.40838e-02,9.99999e-01,9.99999e-01,6.40838e-02,9.99999e-01
5.449489501e-01,6.76578e-02,9.99999e-01,9.99999e-01,6.76578e-02,9.99999e-01
5.476736949e-01,7.13546e-02,9.99999e-01,9.99999e-01,7.13546e-02,9.99999e-01
5.504120634e-01,7.51743e-02,9.99999e-01,9.99999e-01,7.51743e-02,9.99999e-01
5.531641237e-01,7.91170e-02,9.99999e-01,9.99999e-01,7.91170e-02,9.99999e-01
5.559299443e-01,8.31825e-02,9.99999e-01,9.99999e-01,8.31825e-02,9.99999e-01
5.587095940e-01,8.73703e-02,9.99999e-01,9.99999e-01,8.73703e-02,9.99999e-01
5.615031420e-01,9.16800e-02,9.99999e-01,9.99999e-01,9.16800e-02,9.99999e-01
5.643106577e-01,9.61108e-02,9.99999e-01,9.99999e-01,9.61108e-02,9.99999e-01
5.671322110e-01,1.00662e-01,9.99999e-01,9.99999e-01,1.00662e-01,9.99999e-01
5.699678720e-01,1.05332e-01,9.99999e-01,9.99999e-01,1.05332e-01,9.99999e-01
5.728177114e-01,1.10120e-01,9.99999e-01,9.99999e-01,1.10120e-01,9.99999e-01
5.756818000e-01,1.15025e-01,9.99999e-01,9.99999e-01,1.15025e-01,9.99999e-01
5.785602090e-01,1.20045e-01,9.99999e-01,9.99999e-01,1.20045e-01,9.99999e-01
5.814530100e-01,1.25179e-01,9.99999e-01,9.99999e-01,1.25179e-01,9.99999e-01
5.843602750e-01,1.30424e-01,9.99999e-01,9.99999e-01,1.30424e-01,9.99999e-01
5.872820764e-01,1.35778e-01,9.99999e-01,9.99999e-01,1.35778e-01,9.99999e-01
5.902184868e-01,1.41240e-01,9.99999e-01,9.99999e-01,1.41240e-01,9.99999e-01
5.931695792e-01,1.46808e-01,9.99999e-01,9.99999e-01,1.46808e-01,9.99999e-01
5.961354271e-01,1.52478e-01,9.99999e-01,9.99999e-01,1.52478e-01,9.99999e-01
5.991161043e-01,1.58249e-01,9.99999e-01,9.99999e-01,1.58249e-01,9.99999e-01
6.021116848e-01,1.64118e-01,9.99999e-01,9.99999e-01,1.64118e-01,9.99999e-01
6.051222432e-01,1.70082e-01,9.99999e-01,9.99999e-01,1.70082e-01,9.99999e-01
6.081478544e-01,1.76139e-01,9.99999e-01,9.99999e-01,1.76139e-01,9.99999e-01
6.111885937e-01,1.82285e-01,9.99999e-01,9.99999e-01,1.82285e-01,9.99999e-01
6.142445367e-01,1.88518e-01,9.99999e-01,9.99999e-01,1.88518e-01,9.99999e-01
6.173157594e-01,1.94835e-01,9.99999e-01,9.99999e-01,1.94835e-01,9.99999e-01
6.204023382e-01,2.01233e-01,9.99999e-01,9.99999e-01,2.01233e-01,9.99999e-01
6.235043498e-01,2.07707e-01,9.99999e-01,9.99999e-01,2.07707e-01,9.99999e-01
6.266218716e-01,2.14256e-01,9.99999e-01,9.99999e-01,2.14256e-01,9.99999e-01
6.297549810e-01,2.20877e-01,9.99999e-01,9.99999e-01,2.20877e-01,9.99999e-01
6.329037559e-01,2.27564e-01,9.99999e-01,9.99999e-01,2.27564e-01,9.99999e-01
6.360682746e-01,2.34317e-01,9.99999e-01,9.99999e-01,2.34317e-01,9.99999e-01
6.392486160e-01,2.41130e-01,9.99999e-01,9.99999e-01,2.41130e-01,9.99999e-01
6.424448591e-01,2.48001e-01,9.99999e-01,9.99999e-01,2.48001e-01,9.99999e-01
6.456570834e-01,2.54926e-01,9.99999e-01,9.99999e-01,2.54926e-01,9.99999e-01
6.488853688e-01,2.61902e-01,9.99999e-01,9.99999e-01,2.61902e-01,9.99999e-01
6.521297956e-01,2.68926e-01,9.99999e-01,9.99999e-01,2.68926e-01,9.99999e-01
6.553904446e-01,2.75993e-01,9.99999e-01,9.99999e-01,2.75993e-01,9.99999e-01
6.586673968e-01,2.83101e-01,9.99999e-01,9.99999e-01,2.83101e-01,9.99999e-01
6.619607338e-01,2.90247e-01,9.99999e-01,9.99999e-01,2.90247e-01,9.99999e-01
6.652705375e-01,2.97426e-01,9.99999e-01,9.99999e-01,2.97426e-01,9.99999e-01
6.685968902e-01,3.04636e-01,9.99999e-01,9.99999e-01,3.04636e-01,9.99999e-01
6.719398746e-01,3.11873e-01,9.99999e-01,9.99999e-01,3.11873e-01,9.99999e-01
6.752995740e-01,3.19134e-01,9.99999e-01,9.99999e-01,3.19134e-01,9.99999e-01
6.786760719e-01,3.26415e-01,9.99999e-01,9.99999e-01,3.26415e-01,9.99999e-01
6.820694522e-01,3.33714e-01,9.99999e-01,9.99999e-01,3.33714e-01,9.99999e-01
6.854797995e-01,3.41027e-01,9.99999e-01,9.99999e-01,3.41027e-01,9.99999e-01
6.889071985e-01,3.48352e-01,9.99999e-01,9.99999e-01,3.48352e-01,9.99999e-01
6.923517345e-01,3.55684e-01,9.99999e-01,9.99999e-01,3.55684e-01,9.99999e-01
6.958134932e-01,3.63021e-01,9.99999e-01,9.99999e-01,3.63021e-01,9.99999e-01
6.992925606e-01,3.70360e-01,9.99999e-01,9.99999e-01,3.70360e-01,9.99999e-01
7.027890234e-01,3.77698e-01,9.99999e-01,9.99999e-01,3.77698e-01,9.99999e-01
7.063029686e-01,3.85032e-01,9.99999e-01,9.99999e-01,3.85032e-01,9.99999e-01
7.098344834e-01,3.92360e-01,9.99999e-01,9.99999e-01,3.92360e-01,9.99999e-01
7.133836558e-01,3.99678e-01,9.99999e-01,9.99999e-01,3.99678e-01,9.99999e-01
7.169505741e-01,4.06984e-01,9.99999e-01,9.99999e-01,4.06984e-01,9.99999e-01
7.205353270e-01,4.14276e-01,9.99999e-01,9.99999e-01,4.14276e-01,9.99999e-01
7.241380036e-01,4.21550e-01,9.99999e-01,9.99999e-01,4.21550e-01,9.99999e-01
7.277586936e-01,4.28804e-01,9.99999e-01,9.99999e-01,4.28804e-01,9.99999e-01
7.313974871e-01,4.36037e-01,9.99999e-01,9.99999e-01,4.36037e-01,9.99999e-01
7.350544745e-01,4.43244e-01,9.99999e-01,9.99999e-01,4.43244e-01,9.99999e-01
7.387297469e-01,4.50425e-01,9.99999e-01,9.99999e-01,4.50425e-01,9.99999e-01
7.424233956e-01,4.57578e-01,9.99999e-01,9.99999e-01,4.57578e-01,9.99999e-01
7.461355126e-01,4.64699e-01,9.99999e-01,9.99999e-01,4.64699e-01,9.99999e-01
7.498661902e-01,4.71787e-01,9.99999e-01,9.99999e-01,4.71787e-01,9.99999e-01
7.536155211e-01,4.78839e-01,9.99999e-01,9.99999e-01,4.78839e-01,9.99999e-01
7.573835987e-01,4.85855e-01,9.99999e-01,9.99999e-01,4.85855e-01,9.99999e-01
7.611705167e-01,4.92832e-01,9.99999e-01,9.99999e-01,4.92832e-01,9.99999e-01
7.649763693e-01,4.99769e-01,9.99999e-01,9.99999e-01,4.99769e-01,9.99999e-01
7.688012511e-01,5.06663e-01,9.99999e-01,9.99999e-01,5.06663e-01,9.99999e-01
7.726452574e-01,5.13513e-01,9.99999e-01,9.99999e-01,5.13513e-01,9.99999e-01
7.765084837e-01,5.20318e-01,9.99999e-01,9.99999e-01,5.20318e-01,9.99999e-01
7.803910261e-01,5.10488e-01,9.99999e-01,9.68528e-01,5.27076e-01,9.99999e-01
7.842929812e-01,4.67449e-01,9.99999e-01,8.75724e-01,5.33786e-01,9.99999e-01
7.882144461e-01,4.68270e-01,9.99999e-01,8.66450e-01,5.40446e-01,9.99999e-01
7.921555184e-01,5.03310e-01,9.99999e-01,9.20034e-01,5.47055e-01,9.99999e-01
7.961162960e-01,5.23853e-01,9.99999e-01,9.46245e-01,5.53612e-01,9.99999e-01
8.000968774e-01,5.43555e-01,9.99999e-01,9.70432e-01,5.60116e-01,9.99999e-01
8.040973618e-01,5.57866e-01,9.99999e-01,9.84645e-01,5.66565e-01,9.99999e-01
8.081178486e-01,5.68887e-01,9.99999e-01,9.92892e-01,5.72959e-01,9.99999e-01
8.121584379e-01,5.78038e-01,9.99999e-01,9.97825e-01,5.79297e-01,9.99999e-01
8.162192301e-01,5.85297e-01,9.99999e-01,9.99518e-01,5.85578e-01,9.99999e-01
8.203003262e-01,5.91797e-01,9.99999e-01,9.99993e-01,5.91801e-01,9.99999e-01
8.244018279e-01,5.97965e-01,9.99999e-01,9.99999e-01,5.97965e-01,9.99999e-01
8.285238370e-01,6.04069e-01,9.99999e-01,9.99999e-01,6.04069e-01,9.99999e-01
8.326664562e-01,6.10114e-01,9.99999e-01,9.99999e-01,6.10114e-01,9.99999e-01
8.368297885e-01,6.16098e-01,9.99999e-01,9.99999e-01,6.16098e-01,9.99999e-01
8.410139374e-01,6.22020e-01,9.99999e-01,9.99999e-01,6.22020e-01,9.99999e-01
8.452190071e-01,6.27881e-01,9.99999e-01,9.99999e-01,6.27881e-01,9.99999e-01
8.494451021e-01,6.33680e-01,9.99999e-01,9.99999e-01,6.33680e-01,9.99999e-01
8.536923276e-01,6.39416e-01,9.99999e-01,9.99999e-01,6.39416e-01,9.99999e-01
8.579607893e-01,6.45089e-01,9.99999e-01,9.99999e-01,6.45089e-01,9.99999e-01
8.622505932e-01,6.50699e-01,9.99999e-01,9.99999e-01,6.50699e-01,9.99999e-01
8.665618462e-01,6.09176e-01,9.99999e-01,9.28274e-01,6.56245e-01,9.99999e-01
8.708946554e-01,4.70867e-01,9.99999e-01,7.11571e-01,6.61728e-01,9.99999e-01
8.752491287e-01,5.08219e-01,9.99999e-01,7.61779e-01,6.67147e-01,9.99999e-01
8.796253743e-01,5.79459e-01,9.99999e-01,8.61646e-01,6.72502e-01,9.99999e-01
8.840235012e-01,6.27485e-01,9.99999e-01,9.25775e-01,6.77793e-01,9.99999e-01
8.884436187e-01,6.62676e-01,9.99999e-01,9.70214e-01,6.83020e-01,9.99999e-01
8.928858368e-01,6.79792e-01,9.99999e-01,9.87807e-01,6.88183e-01,9.99999e-01
8.973502660e-01,6.91233e-01,9.99999e-01,9.97044e-01,6.93281e-01,9.99999e-01
9.018370173e-01,6.98089e-01,9.99999e-01,9.99674e-01,6.98316e-01,9.99999e-01
9.063462024e-01,6.97196e-01,9.99999e-01,9.91338e-01,7.03287e-01,9.99999e-01
9.108779334e-01,6.94571e-01,9.99999e-01,9.80763e-01,7.08193e-01,9.99999e-01
9.154323231e-01,7.09834e-01,9.99999e-01,9.95509e-01,7.13036e-01,9.99999e-01
9.200094847e-01,6.70517e-01,9.99999e-01,9.34107e-01,7.17816e-01,9.99999e-01
9.246095321e-01,6.56897e-01,9.99999e-01,9.09158e-01,7.22532e-01,9.99999e-01
9.292325798e-01,6.74218e-01,9.99999e-01,9.27161e-01,7.27185e-01,9.99999e-01
9.338787427e-01,6.80804e-01,9.99999e-01,9.30345e-01,7.31776e-01,9.99999e-01
9.385481364e-01,6.98257e-01,9.99999e-01,9.48327e-01,7.36303e-01,9.99999e-01
9.432408771e-01,7.17172e-01,9.99999e-01,9.68145e-01,7.40769e-01,9.99999e-01
9.479570815e-01,7.32874e-01,9.99999e-01,9.83495e-01,7.45172e-01,9.99999e-01
9.526968669e-01,7.43540e-01,9.99999e-01,9.92028e-01,7.49515e-01,9.99999e-01
9.574603512e-01,7.51223e-01,9.99999e-01,9.96587e-01,7.53795e-01,9.99999e-01
9.622476530e-01,7.57209e-01,9.99999e-01,9.98936e-01,7.58015e-01,9.99999e-01
9.670588912e-01,7.61933e-01,9.99999e-01,9.99681e-01,7.62175e-01,9.99999e-01
9.718941857e-01,7.66258e-01,9.99999e-01,9.99977e-01,7.66274e-01,9.99999e-01
9.767536566e-01,7.70314e-01,9.99999e-01,9.99999e-01,7.70314e-01,9.99999e-01
9.816374249e-01,7.74295e-01,9.99999e-01,9.99999e-01,7.74295e-01,9.99999e-01
9.865456120e-01,7.78217e-01,9.99999e-01,9.99999e-01,7.78217e-01,9.99999e-01
9.914783401e-01,7.82081e-01,9.99999e-01,9.99999e-01,7.82081e-01,9.99999e-01
9.964357318e-01,7.85888e-01,9.99999e-01,9.99999e-01,7.85888e-01,9.99999e-01
1.001417910e+00,7.89637e-01,9.99999e-01,9.99999e-01,7.89637e-01,9.99999e-01
1.006425000e+00,7.93329e-01,9.99999e-01,9.99999e-01,7.93329e-01,9.99999e-01
1.011457125e+00,7.96965e-01,9.99999e-01,9.99999e-01,7.96965e-01,9.99999e-01
1.016514411e+00,8.00546e-01,9.99999e-01,9.99999e-01,8.00546e-01,9.99999e-01
1.021596983e+00,8.04029e-01,9.99999e-01,9.99946e-01,8.04071e-01,9.99999e-01
1.026704968e+00,8.04799e-01,9.99999e-01,9.96602e-01,8.07542e-01,9.99999e-01
1.031838492e+00,7.75183e-01,9.99999e-01,9.55883e-01,8.10959e-01,9.99999e-01
1.036997685e+00,1.37787e-01,9.99999e-01,1.69205e-01,8.14323e-01,9.99999e-01
1.042182673e+00,1.24800e-01,9.99999e-01,1.52636e-01,8.17633e-01,9.99999e-01
1.047393587e+00,1.37015e-01,9.99999e-01,1.66909e-01,8.20891e-01,9.99999e-01
1.052630555e+00,5.56625e-03,9.99999e-01,6.75435e-03,8.24098e-01,9.99999e-01
1.057893707e+00,1.36273e-02,9.99999e-01,1.64729e-02,8.27253e-01,9.99999e-01
1.063183176e+00,4.04470e-02,9.99999e-01,4.87103e-02,8.30358e-01,9.99999e-01
1.068499092e+00,1.02974e-01,9.99999e-01,1.23557e-01,8.33412e-01,9.99999e-01
1.073841587e+00,2.24322e-01,9.99999e-01,2.68194e-01,8.36417e-01,9.99999e-01
1.079210795e+00,3.64814e-01,9.99999e-01,4.34626e-01,8.39374e-01,9.99999e-01
1.084606849e+00,5.33333e-01,9.99999e-01,6.33199e-01,8.42282e-01,9.99999e-01
1.090029883e+00,6.66542e-01,9.99999e-01,7.88673e-01,8.45142e-01,9.99999e-01
1.095480033e+00,7.54528e-01,9.99999e-01,8.89819e-01,8.47956e-01,9.99999e-01
1.100957433e+00,8.04188e-01,9.99999e-01,9.45299e-01,8.50723e-01,9.99999e-01
1.106462220e+00,8.33860e-01,9.99999e-01,9.77052e-01,8.53444e-01,9.99999e-01
1.111994531e+00,8.48785e-01,9.99999e-01,9.91432e-01,8.56119e-01,9.99999e-01
1.117554504e+00,8.56960e-01,9.99999e-01,9.97914e-01,8.58750e-01,9.99999e-01
1.123142276e+00,8.61220e-01,9.99999e-01,9.99863e-01,8.61337e-01,9.99999e-01
1.128757988e+00,8.63880e-01,9.99999e-01,9.99999e-01,8.63880e-01,9.99999e-01
1.134401778e+00,8.66381e-01,9.99999e-01,9.99999e-01,8.66381e-01,9.99999e-01
1.140073787e+00,8.68839e-01,9.99999e-01,9.99999e-01,8.68839e-01,9.99999e-01
1.145774156e+00,8.71255e-01,9.99999e-01,9.99999e-01,8.71255e-01,9.99999e-01
1.151503026e+00,8.73630e-01,9.99999e-01,9.99999e-01,8.73630e-01,9.99999e-01
1.157260541e+00,8.75965e-01,9.99999e-01,9.99999e-01,8.75965e-01,9.99999e-01
1.163046844e+00,8.78259e-01,9.99999e-01,9.99999e-01,8.78259e-01,9.99999e-01
1.168862078e+00,8.80514e-01,9.99999e-01,9.99999e-01,8.80514e-01,9.99999e-01
1.174706389e+00,8.82730e-01,9.99999e-01,9.99999e-01,8.82730e-01,9.99999e-01
1.180579921e+00,8.84907e-01,9.99999e-01,9.99999e-01,8.84907e-01,9.99999e-01
1.186482820e+00,8.87040e-01,9.99999e-01,9.99991e-01,8.87047e-01,9.99999e-01
1.192415234e+00,8.78331e-01,9.99999e-01,9.87832e-01,8.89150e-01,9.99999e-01
1.198377311e+00,5.02347e-01,9.99999e-01,5.63665e-01,8.91215e-01,9.99999e-01
1.204369197e+00,3.69245e-10,9.99999e-01,4.13374e-10,8.93245e-01,9.99999e-01
1.210391043e+00,3.13578e-36,9.99999e-01,3.50273e-36,8.95239e-01,9.99999e-01
1.216442998e+00,1.43985e-31,9.99999e-01,1.60482e-31,8.97198e-01,9.99999e-01
1.222525213e+00,4.06183e-31,9.99999e-01,4.51755e-31,8.99123e-01,9.99999e-01
1.228637839e+00,4.28289e-24,9.99999e-01,4.75341e-24,9.01013e-01,9.99999e-01
1.234781029e+00,9.03955e-16,9.99999e-01,1.00120e-15,9.02870e-01,9.99999e-01
1.240954934e+00,1.19725e-10,9.99999e-01,1.32337e-10,9.04694e-01,9.99999e-01
1.247159708e+00,4.56274e-06,9.99999e-01,5.03343e-06,9.06486e-01,9.99999e-01
1.253395507e+00,7.05512e-04,9.99999e-01,7.76785e-04,9.08245e-01,9.99999e-01
1.259662485e+00,1.50551e-02,9.99999e-01,1.65446e-02,9.09974e-01,9.99999e-01
1.265960797e+00,8.53126e-02,9.99999e-01,9.35782e-02,9.11671e-01,9.99999e-01
1.272290601e+00,3.36805e-01,9.99999e-01,3.68762e-01,9.13338e-01,9.99999e-01
1.278652054e+00,2.85371e-01,9.99999e-01,3.11889e-01,9.14974e-01,9.99999e-01
1.285045314e+00,6.89999e-03,9.99999e-01,7.52796e-03,9.16582e-01,9.99999e-01
1.291470541e+00,6.04974e-05,9.99999e-01,6.58898e-05,9.18160e-01,9.99999e-01
1.297927893e+00,1.34803e-02,9.99999e-01,1.46571e-02,9.19710e-01,9.99999e-01
1.304417533e+00,1.49468e-01,9.99999e-01,1.62248e-01,9.21232e-01,9.99999e-01
1.310939621e+00,2.46587e-02,9.99999e-01,2.67237e-02,9.22726e-01,9.99999e-01
1.317494319e+00,5.40010e-13,9.99999e-01,5.84304e-13,9.24193e-01,9.99999e-01
1.324081790e+00,4.25651e-07,9.99999e-01,4.59848e-07,9.25633e-01,9.99999e-01
1.330702199e+00,2.38199e-05,9.99999e-01,2.56943e-05,9.27047e-01,9.99999e-01
1.337355710e+00,2.72734e-05,9.99999e-01,2.93756e-05,9.28435e-01,9.99999e-01
1.344042489e+00,7.79936e-06,9.99999e-01,8.38823e-06,9.29798e-01,9.99999e-01
1.350762701e+00,1.57133e-05,9.99999e-01,1.68754e-05,9.31136e-01,9.99999e-01
1.357516515e+00,7.99084e-04,9.99999e-01,8.56972e-04,9.32449e-01,9.99999e-01
1.364304097e+00,9.66451e-03,9.99999e-01,1.03503e-02,9.33738e-01,9.99999e-01
1.371125618e+00,8.61737e-02,9.99999e-01,9.21640e-02,9.35003e-01,9.99999e-01
1.377981246e+00,1.32927e-01,9.99999e-01,1.41979e-01,9.36245e-01,9.99999e-01
1.384871152e+00,3.01305e-01,9.99999e-01,3.21404e-01,9.37464e-01,9.99999e-01
1.391795508e+00,3.29109e-01,9.99999e-01,3.50615e-01,9.38661e-01,9.99999e-01
1.398754485e+00,4.92268e-01,9.99999e-01,5.23780e-01,9.39835e-01,9.99999e-01
1.405748258e+00,5.84824e-01,9.99999e-01,6.21500e-01,9.40988e-01,9.99999e-01
1.412776999e+00,6.97825e-01,9.99999e-01,7.40696e-01,9.42119e-01,9.99999e-01
1.419840884e+00,6.25534e-01,9.99999e-01,6.63183e-01,9.43229e-01,9.99999e-01
1.426940089e+00,6.18031e-02,9.99999e-01,6.54473e-02,9.44319e-01,9.99999e-01
1.434074789e+00,0.00000e+00,9.99999e-01,0.00000e+00,9.45388e-01,9.99999e-01
1.441245163e+00,0.00000e+00,9.99999e-01,0.00000e+00,9.46437e-01,9.99999e-01
1.448451389e+00,0.00000e+00,9.99999e-01,0.00000e+00,9.47467e-01,9.99999e-01
1.455693646e+00,5.27972e-289,9.99999e-01,5.56651e-289,9.48477e-01,9.99999e-01
1.462972114e+00,3.64297e-140,9.99999e-01,3.83685e-140,9.49469e-01,9.99999e-01
1.470286975e+00,5.34516e-59,9.99999e-01,5.62387e-59,9.50442e-01,9.99999e-01
