#,Wave/freq,Total,N2,CO2,Rayleigh,CIA
4.000000000e-01,3.24776e-11,9.99999e-01,9.99999e-01,3.24776e-11,9.99999e-01
4.020000000e-01,5.23564e-11,9.99999e-01,9.99999e-01,5.23564e-11,9.99999e-01
4.040100000e-01,8.35690e-11,9.99999e-01,9.99999e-01,8.35690e-11,9.99999e-01
4.060300500e-01,1.32163e-10,9.99999e-01,9.99999e-01,1.32163e-10,9.99999e-01
4.080602003e-01,2.07130e-10,9.99999e-01,9.99999e-01,2.07130e-10,9.99999e-01
4.101005013e-01,3.21752e-10,9.99999e-01,9.99999e-01,3.21752e-10,9.99999e-01
4.121510038e-01,4.95474e-10,9.99999e-01,9.99999e-01,4.95474e-10,9.99999e-01
4.142117588e-01,7.56514e-10,9.99999e-01,9.99999e-01,7.56514e-10,9.99999e-01
4.162828176e-01,1.14547e-09,9.99999e-01,9.99999e-01,1.14547e-09,9.99999e-01
4.183642317e-01,1.72025e-09,9.99999e-01,9.99999e-01,1.72025e-09,9.99999e-01
4.204560528e-01,2.56277e-09,9.99999e-01,9.99999e-01,2.56277e-09,9.99999e-01
4.225583331e-01,3.78799e-09,9.99999e-01,9.99999e-01,3.78799e-09,9.99999e-01
4.246711247e-01,5.55592e-09,9.99999e-01,9.99999e-01,5.55592e-09,9.99999e-01
4.267944804e-01,8.08756e-09,9.99999e-01,9.99999e-01,8.08756e-09,9.99999e-01
4.289284528e-01,1.16858e-08,9.99999e-01,9.99999e-01,1.16858e-08,9.99999e-01
4.310730950e-01,1.67626e-08,9.99999e-01,9.99999e-01,1.67626e-08,9.99999e-01
4.332284605e-01,2.38743e-08,9.99999e-01,9.99999e-01,2.38743e-08,9.99999e-01
4.353946028e-01,3.37664e-08,9.99999e-01,9.99999e-01,3.37664e-08,9.99999e-01
4.375715758e-01,4.74314e-08,9.99999e-01,9.99999e-01,4.74314e-08,9.99999e-01
4.397594337e-01,6.61807e-08,9.99999e-01,9.99999e-01,6.61807e-08,9.99999e-01
4.419582309e-01,9.17360e-08,9.99999e-01,9.99999e-01,9.17360e-08,9.99999e-01
4.441680220e-01,1.26342e-07,9.99999e-01,9.99999e-01,1.26342e-07,9.99999e-01
4.463888621e-01,1.72905e-07,9.99999e-01,9.99999e-01,1.72905e-07,9.99999e-01
4.486208064e-01,2.35168e-07,9.99999e-01,9.99999e-01,2.35168e-07,9.99999e-01
4.508639105e-01,3.17914e-07,9.99999e-01,9.99999e-01,3.17914e-07,9.99999e-01
4.531182300e-01,4.27224e-07,9.99999e-01,9.99999e-01,4.27224e-07,9.99999e-01
4.553838212e-01,5.70776e-07,9.99999e-01,9.99999e-01,5.70776e-07,9.99999e-01
4.576607403e-01,7.58213e-07,9.99999e-01,9.99999e-01,7.58213e-07,9.99999e-01
4.599490440e-01,1.00157e-06,9.99999e-01,9.99999e-01,1.00157e-06,9.99999e-01
4.622487892e-01,1.31578e-06,9.99999e-01,9.99999e-01,1.31578e-06,9.99999e-01
4.645600332e-01,1.71926e-06,9.99999e-01,9.99999e-01,1.71926e-06,9.99999e-01
4.668828333e-01,2.23465e-06,9.99999e-01,9.99999e-01,2.23465e-06,9.99999e-01
4.692172475e-01,2.88952e-06,9.99999e-01,9.99999e-01,2.88952e-06,9.99999e-01
4.715633337e-01,3.71739e-06,9.99999e-01,9.99999e-01,3.71739e-06,9.99999e-01
4.739211504e-01,4.75872e-06,9.99999e-01,9.99999e-01,4.75872e-06,9.99999e-01
4.762907561e-01,6.06209e-06,9.99999e-01,9.99999e-01,6.06209e-06,9.99999e-01
4.786722099e-01,7.68562e-06,9.99999e-01,9.99999e-01,7.68562e-06,9.99999e-01
4.810655710e-01,9.69838e-06,9.99999e-01,9.99999e-01,9.69838e-06,9.99999e-01
4.834708988e-01,1.21822e-05,9.99999e-01,9.99999e-01,1.21822e-05,9.99999e-01
4.858882533e-01,1.52333e-05,9.99999e-01,9.99999e-01,1.52333e-05,9.99999e-01
4.883176946e-01,1.89647e-05,9.99999e-01,9.99999e-01,1.89647e-05,9.99999e-01
4.907592831e-01,2.35081e-05,9.99999e-01,9.99999e-01,2.35081e-05,9.99999e-01
4.932130795e-01,2.90167e-05,9.99999e-01,9.99999e-01,2.90167e-05,9.99999e-01
4.956791449e-01,3.56674e-05,9.99999e-01,9.99999e-01,3.56674e-05,9.99999e-01
4.981575406e-01,4.36641e-05,9.99999e-01,9.99999e-01,4.36641e-05,9.99999e-01
5.006483283e-01,5.32406e-05,9.99999e-01,9.99999e-01,5.32406e-05,9.99999e-01
5.031515699e-01,6.46637e-05,9.99999e-01,9.99999e-01,6.46637e-05,9.99999e-01
5.056673278e-01,7.82367e-05,9.99999e-01,9.99999e-01,7.82367e-05,9.99999e-01
5.081956644e-01,9.43030e-05,9.99999e-01,9.99999e-01,9.43030e-05,9.99999e-01
5.107366428e-01,1.13250e-04,9.99999e-01,9.99999e-01,1.13250e-04,9.99999e-01
5.132903260e-01,1.35513e-04,9.99999e-01,9.99999e-01,1.35513e-04,9.99999e-01
5.158567776e-01,1.61579e-04,9.99999e-01,9.99999e-01,1.61579e-04,9.99999e-01
5.184360615e-01,1.91990e-04,9.99999e-01,9.99999e-01,1.91990e-04,9.99999e-01
5.210282418e-01,2.27349e-04,9.99999e-01,9.99999e-01,2.27349e-04,9.99999e-01
5.236333830e-01,2.68322e-04,9.99999e-01,9.99999e-01,2.68322e-04,9.99999e-01
5.262515499e-01,3.15646e-04,9.99999e-01,9.99999e-01,3.15646e-04,9.99999e-01
5.288828077e-01,3.70126e-04,9.99999e-01,9.99999e-01,3.70126e-04,9.99999e-01
5.315272217e-01,4.32646e-04,9.99999e-01,9.99999e-01,4.32646e-04,9.99999e-01
5.341848578e-01,5.04171e-04,9.99999e-01,9.99999e-01,5.04171e-04,9.99999e-01
5.368557821e-01,5.85747e-04,9.99999e-01,9.99999e-01,5.85747e-04,9.99999e-01
5.395400610e-01,6.78509e-04,9.99999e-01,9.99999e-01,6.78509e-04,9.99999e-01
5.422377613e-01,7.83682e-04,9.99999e-01,9.99999e-01,7.83682e-04,9.99999e-01
5.449489501e-01,9.02586e-04,9.99999e-01,9.99999e-01,9.02586e-04,9.99999e-01
5.476736949e-01,1.03663e-03,9.99999e-01,9.99999e-01,1.03663e-03,9.99999e-01
5.504120634e-01,1.18734e-03,9.99999e-01,9.99999e-01,1.18734e-03,9.99999e-01
5.531641237e-01,1.35631e-03,9.99999e-01,9.99999e-01,1.35631e-03,9.99999e-01
5.559299443e-01,1.54526e-03,9.99999e-01,9.99999e-01,1.54526e-03,9.99999e-01
5.587095940e-01,1.75600e-03,9.99999e-01,9.99999e-01,1.75600e-03,9.99999e-01
5.615031420e-01,1.99046e-03,9.99999e-01,9.99999e-01,1.99046e-03,9.99999e-01
5.643106577e-01,2.25064e-03,9.99999e-01,9.99999e-01,2.25064e-03,9.99999e-01
5.671322110e-01,2.53866e-03,9.99999e-01,9.99999e-01,2.53866e-03,9.99999e-01
5.699678720e-01,2.85673e-03,9.99999e-01,9.99999e-01,2.85673e-03,9.99999e-01
5.728177114e-01,3.20717e-03,9.99999e-01,9.99999e-01,3.20717e-03,9.99999e-01
5.756818000e-01,3.59238e-03,9.99999e-01,9.99999e-01,3.59238e-03,9.99999e-01
5.785602090e-01,4.01485e-03,9.99999e-01,9.99999e-01,4.01485e-03,9.99999e-01
5.814530100e-01,4.47717e-03,9.99999e-01,9.99999e-01,4.47717e-03,9.99999e-01
5.843602750e-01,4.98198e-03,9.99999e-01,9.99999e-01,4.98198e-03,9.99999e-01
5.872820764e-01,5.53202e-03,9.99999e-01,9.99999e-01,5.53202e-03,9.99999e-01
5.902184868e-01,6.13010e-03,9.99999e-01,9.99999e-01,6.13010e-03,9.99999e-01
5.931695792e-01,6.77907e-03,9.99999e-01,9.99999e-01,6.77907e-03,9.99999e-01
5.961354271e-01,7.48187e-03,9.99999e-01,9.99999e-01,7.48187e-03,9.99999e-01
5.991161043e-01,8.24145e-03,9.99999e-01,9.99999e-01,8.24145e-03,9.99999e-01
6.021116848e-01,9.06083e-03,9.99999e-01,9.99999e-01,9.06083e-03,9.99999e-01
6.051222432e-01,9.94303e-03,9.99999e-01,9.99999e-01,9.94303e-03,9.99999e-01
6.081478544e-01,1.08911e-02,9.99999e-01,9.99999e-01,1.08911e-02,9.99999e-01
6.111885937e-01,1.19082e-02,9.99999e-01,9.99999e-01,1.19082e-02,9.99999e-01
6.142445367e-01,1.29973e-02,9.99999e-01,9.99999e-01,1.29973e-02,9.99999e-01
6.173157594e-01,1.41615e-02,9.99999e-01,9.99999e-01,1.41615e-02,9.99999e-01
6.204023382e-01,1.54038e-02,9.99999e-01,9.99999e-01,1.54038e-02,9.99999e-01
6.235043498e-01,1.67274e-02,9.99999e-01,9.99999e-01,1.67274e-02,9.99999e-01
6.266218716e-01,1.81351e-02,9.99999e-01,9.99999e-01,1.81351e-02,9.99999e-01
6.297549810e-01,1.96299e-02,9.99999e-01,9.99999e-01,1.96299e-02,9.99999e-01
6.329037559e-01,2.12147e-02,9.99999e-01,9.99999e-01,2.12147e-02,9.99999e-01
6.360682746e-01,2.28923e-02,9.99999e-01,9.99999e-01,2.28923e-02,9.99999e-01
6.392486160e-01,2.46655e-02,9.99999e-01,9.99999e-01,2.46655e-02,9.99999e-01
6.424448591e-01,2.65369e-02,9.99999e-01,9.99999e-01,2.65369e-02,9.99999e-01
6.456570834e-01,2.85091e-02,9.99999e-01,9.99999e-01,2.85091e-02,9.99999e-01
6.488853688e-01,3.05845e-02,9.99999e-01,9.99999e-01,3.05845e-02,9.99999e-01
6.521297956e-01,3.27654e-02,9.99999e-01,9.99999e-01,3.27654e-02,9.99999e-01
6.553904446e-01,3.50542e-02,9.99999e-01,9.99999e-01,3.50542e-02,9.99999e-01
6.586673968e-01,3.74529e-02,9.99999e-01,9.99999e-01,3.74529e-02,9.99999e-01
6.619607338e-01,3.99634e-02,9.99999e-01,9.99999e-01,3.99634e-02,9.99999e-01
6.652705375e-01,4.25876e-02,9.99999e-01,9.99999e-01,4.25876e-02,9.99999e-01
6.685968902e-01,4.53271e-02,9.99999e-01,9.99999e-01,4.53271e-02,9.99999e-01
6.719398746e-01,4.81835e-02,9.99999e-01,9.99999e-01,4.81835e-02,9.99999e-01
6.752995740e-01,5.11581e-02,9.99999e-01,9.99999e-01,5.11581e-02,9.99999e-01
6.786760719e-01,5.42521e-02,9.99999e-01,9.99999e-01,5.42521e-02,9.99999e-01
6.820694522e-01,5.74665e-02,9.99999e-01,9.99999e-01,5.74665e-02,9.99999e-01
6.854797995e-01,6.08022e-02,9.99999e-01,9.99999e-01,6.08022e-02,9.99999e-01
6.889071985e-01,6.42599e-02,9.99999e-01,9.99999e-01,6.42599e-02,9.99999e-01
6.923517345e-01,6.78401e-02,9.99999e-01,9.99999e-01,6.78401e-02,9.99999e-01
6.958134932e-01,7.15430e-02,9.99999e-01,9.99999e-01,7.15430e-02,9.99999e-01
6.992925606e-01,7.53689e-02,9.99999e-01,9.99999e-01,7.53689e-02,9.99999e-01
7.027890234e-01,7.93178e-02,9.99999e-01,9.99999e-01,7.93178e-02,9.99999e-01
7.063029686e-01,8.33894e-02,9.99999e-01,9.99999e-01,8.33894e-02,9.99999e-01
7.098344834e-01,8.75833e-02,9.99999e-01,9.99999e-01,8.75833e-02,9.99999e-01
7.133836558e-01,9.18991e-02,9.99999e-01,9.99999e-01,9.18991e-02,9.99999e-01
7.169505741e-01,9.63360e-02,9.99999e-01,9.99999e-01,9.63360e-02,9.99999e-01
7.205353270e-01,1.00893e-01,9.99999e-01,9.99999e-01,1.00893e-01,9.99999e-01
7.241380036e-01,1.05569e-01,9.99999e-01,9.99999e-01,1.05569e-01,9.99999e-01
7.277586936e-01,1.10363e-01,9.99999e-01,9.99999e-01,1.10363e-01,9.99999e-01
7.313974871e-01,1.15274e-01,9.99999e-01,9.99999e-01,1.15274e-01,9.99999e-01
7.350544745e-01,1.20300e-01,9.99999e-01,9.99999e-01,1.20300e-01,9.99999e-01
7.387297469e-01,1.25439e-01,9.99999e-01,9.99999e-01,1.25439e-01,9.99999e-01
7.424233956e-01,1.30689e-01,9.99999e-01,9.99999e-01,1.30689e-01,9.99999e-01
7.461355126e-01,1.36049e-01,9.99999e-01,9.99999e-01,1.36049e-01,9.99999e-01
7.498661902e-01,1.41517e-01,9.99999e-01,9.99999e-01,1.41517e-01,9.99999e-01
7.536155211e-01,1.47089e-01,9.99999e-01,9.99999e-01,1.47089e-01,9.99999e-01
7.573835987e-01,1.52765e-01,9.99999e-01,9.99999e-01,1.52765e-01,9.99999e-01
7.611705167e-01,1.58541e-01,9.99999e-01,9.99999e-01,1.58541e-01,9.99999e-01
7.649763693e-01,1.64415e-01,9.99999e-01,9.99999e-01,1.64415e-01,9.99999e-01
7.688012511e-01,1.70384e-01,9.99999e-01,9.99999e-01,1.70384e-01,9.99999e-01
7.726452574e-01,1.76445e-01,9.99999e-01,9.99999e-01,1.76445e-01,9.99999e-01
7.765084837e-01,1.82596e-01,9.99999e-01,9.99999e-01,1.82596e-01,9.99999e-01
7.803910261e-01,1.76011e-01,9.99999e-01,9.32100e-01,1.88833e-01,9.99999e-01
7.842929812e-01,1.39736e-01,9.99999e-01,7.16029e-01,1.95154e-01,9.99999e-01
7.882144461e-01,1.41415e-01,9.99999e-01,7.01620e-01,2.01555e-01,9.99999e-01
7.921555184e-01,1.67983e-01,9.99999e-01,8.07478e-01,2.08034e-01,9.99999e-01
7.961162960e-01,1.85761e-01,9.99999e-01,8.65670e-01,2.14586e-01,9.99999e-01
8.000968774e-01,2.04560e-01,9.99999e-01,9.24732e-01,2.21210e-01,9.99999e-01
8.040973618e-01,2.18835e-01,9.99999e-01,9.60219e-01,2.27901e-01,9.99999e-01
8.081178486e-01,2.30324e-01,9.99999e-01,9.81535e-01,2.34656e-01,9.99999e-01
8.121584379e-01,2.40086e-01,9.99999e-01,9.94258e-01,2.41473e-01,9.99999e-01
8.162192301e-01,2.48031e-01,9.99999e-01,9.98729e-01,2.48346e-01,9.99999e-01
8.203003262e-01,2.55269e-01,9.99999e-01,9.99980e-01,2.55274e-01,9.99999e-01
8.244018279e-01,2.62253e-01,9.99999e-01,9.99999e-01,2.62253e-01,9.99999e-01
8.285238370e-01,2.69279e-01,9.99999e-01,9.99999e-01,2.69279e-01,9.99999e-01
8.326664562e-01,2.76348e-01,9.99999e-01,9.99999e-01,2.76348e-01,9.99999e-01
8.368297885e-01,2.83458e-01,9.99999e-01,9.99999e-01,2.83458e-01,9.99999e-01
8.410139374e-01,2.90606e-01,9.99999e-01,9.99999e-01,2.90606e-01,9.99999e-01
8.452190071e-01,2.97786e-01,9.99999e-01,9.99999e-01,2.97786e-01,9.99999e-01
8.494451021e-01,3.04998e-01,9.99999e-01,9.99999e-01,3.04998e-01,9.99999e-01
8.536923276e-01,3.12236e-01,9.99999e-01,9.99999e-01,3.12236e-01,9.99999e-01
8.579607893e-01,3.19498e-01,9.99999e-01,9.99999e-01,3.19498e-01,9.99999e-01
8.622505932e-01,3.26781e-01,9.99999e-01,9.99999e-01,3.26781e-01,9.99999e-01
8.665618462e-01,2.95866e-01,9.99999e-01,8.85614e-01,3.34080e-01,9.99999e-01
8.708946554e-01,1.49035e-01,9.99999e-01,4.36549e-01,3.41394e-01,9.99999e-01
8.752491287e-01,1.76124e-01,9.99999e-01,5.05059e-01,3.48719e-01,9.99999e-01
8.796253743e-01,2.42996e-01,9.99999e-01,6.82474e-01,3.56051e-01,9.99999e-01
8.840235012e-01,2.97395e-01,9.99999e-01,8.18392e-01,3.63389e-01,9.99999e-01
8.884436187e-01,3.42455e-01,9.99999e-01,9.23735e-01,3.70728e-01,9.99999e-01
8.928858368e-01,3.66095e-01,9.99999e-01,9.68337e-01,3.78066e-01,9.99999e-01
8.973502660e-01,3.82399e-01,9.99999e-01,9.92213e-01,3.85400e-01,9.99999e-01
9.018370173e-01,3.92389e-01,9.99999e-01,9.99138e-01,3.92727e-01,9.99999e-01
9.063462024e-01,3.91407e-01,9.99999e-01,9.78408e-01,4.00045e-01,9.99999e-01
9.108779334e-01,3.87210e-01,9.99999e-01,9.50558e-01,4.07350e-01,9.99999e-01
9.154323231e-01,4.09731e-01,9.99999e-01,9.88158e-01,4.14641e-01,9.99999e-01
9.200094847e-01,3.59891e-01,9.99999e-01,8.52995e-01,4.21914e-01,9.99999e-01
9.246095321e-01,3.35170e-01,9.99999e-01,7.80977e-01,4.29167e-01,9.99999e-01
9.292325798e-01,3.60387e-01,9.99999e-01,8.25821e-01,4.36398e-01,9.99999e-01
9.338787427e-01,3.68114e-01,9.99999e-01,8.29823e-01,4.43605e-01,9.99999e-01
9.385481364e-01,3.92763e-01,9.99999e-01,8.71286e-01,4.50784e-01,9.99999e-01
9.432408771e-01,4.20766e-01,9.99999e-01,9.18833e-01,4.57935e-01,9.99999e-01
9.479570815e-01,4.45283e-01,9.99999e-01,9.57485e-01,4.65054e-01,9.99999e-01
9.526968669e-01,4.62359e-01,9.99999e-01,9.79281e-01,4.72141e-01,9.99999e-01
9.574603512e-01,4.74919e-01,9.99999e-01,9.91083e-01,4.79192e-01,9.99999e-01
9.622476530e-01,4.84849e-01,9.99999e-01,9.97210e-01,4.86206e-01,9.99999e-01
9.670588912e-01,4.92768e-01,9.99999e-01,9.99163e-01,4.93181e-01,9.99999e-01
9.718941857e-01,5.00086e-01,9.99999e-01,9.99940e-01,5.00115e-01,9.99999e-01
9.767536566e-01,5.07007e-01,9.99999e-01,9.99999e-01,5.07007e-01,9.99999e-01
9.816374249e-01,5.13855e-01,9.99999e-01,9.99999e-01,5.13855e-01,9.99999e-01
9.865456120e-01,5.20658e-01,9.99999e-01,9.99999e-01,5.20658e-01,9.99999e-01
9.914783401e-01,5.27413e-01,9.99999e-01,9.99999e-01,5.27413e-01,9.99999e-01
9.964357318e-01,5.34121e-01,9.99999e-01,9.99999e-01,5.34121e-01,9.99999e-01
1.001417910e+00,5.40778e-01,9.99999e-01,9.99999e-01,5.40778e-01,9.99999e-01
1.006425000e+00,5.47385e-01,9.99999e-01,9.99999e-01,5.47385e-01,9.99999e-01
1.011457125e+00,5.53939e-01,9.99999e-01,9.99999e-01,5.53939e-01,9.99999e-01
1.016514411e+00,5.60440e-01,9.99999e-01,9.99999e-01,5.60440e-01,9.99999e-01
1.021596983e+00,5.66822e-01,9.99999e-01,9.99884e-01,5.66887e-01,9.99999e-01
1.026704968e+00,5.68387e-01,9.99999e-01,9.91466e-01,5.73278e-01,9.99999e-01
1.031838492e+00,5.35011e-01,9.99999e-01,9.23047e-01,5.79613e-01,9.99999e-01
1.036997685e+00,4.14420e-02,9.99999e-01,7.07332e-02,5.85891e-01,9.99999e-01
1.042182673e+00,7.25024e-03,9.99999e-01,1.22447e-02,5.92111e-01,9.99999e-01
1.047393587e+00,1.50306e-02,9.99999e-01,2.51234e-02,5.98272e-01,9.99999e-01
1.052630555e+00,1.29642e-05,9.99999e-01,2.14507e-05,6.04374e-01,9.99999e-01
1.057893707e+00,4.67894e-05,9.99999e-01,7.66518e-05,6.10415e-01,9.99999e-01
1.063183176e+00,5.30670e-04,9.99999e-01,8.60924e-04,6.16396e-01,9.99999e-01
1.068499092e+00,3.47371e-03,9.99999e-01,5.58191e-03,6.22315e-01,9.99999e-01
1.073841587e+00,2.27740e-02,9.99999e-01,3.62542e-02,6.28173e-01,9.99999e-01
1.079210795e+00,7.81785e-02,9.99999e-01,1.23316e-01,6.33969e-01,9.99999e-01
1.084606849e+00,1.97419e-01,9.99999e-01,3.08612e-01,6.39701e-01,9.99999e-01
1.090029883e+00,3.49247e-01,9.99999e-01,5.41155e-01,6.45371e-01,9.99999e-01
1.095480033e+00,4.80642e-01,9.99999e-01,7.38337e-01,6.50978e-01,9.99999e-01
1.100957433e+00,5.66978e-01,9.99999e-01,8.63608e-01,6.56522e-01,9.99999e-01
1.106462220e+00,6.23009e-01,9.99999e-01,9.41099e-01,6.62001e-01,9.99999e-01
1.111994531e+00,6.52556e-01,9.99999e-01,9.77733e-01,6.67417e-01,9.99999e-01
1.117554504e+00,6.69080e-01,9.99999e-01,9.94517e-01,6.72769e-01,9.99999e-01
1.123142276e+00,6.77812e-01,9.99999e-01,9.99638e-01,6.78057e-01,9.99999e-01
1.128757988e+00,6.83280e-01,9.99999e-01,9.99999e-01,6.83280e-01,9.99999e-01
1.134401778e+00,6.88440e-01,9.99999e-01,9.99999e-01,6.88440e-01,9.99999e-01
1.140073787e+00,6.93535e-01,9.99999e-01,9.99999e-01,6.93535e-01,9.99999e-01
1.145774156e+00,6.98566e-01,9.99999e-01,9.99999e-01,6.98566e-01,9.99999e-01
1.151503026e+00,7.03534e-01,9.99999e-01,9.99999e-01,7.03534e-01,9.99999e-01
1.157260541e+00,7.08437e-01,9.99999e-01,9.99999e-01,7.08437e-01,9.99999e-01
1.163046844e+00,7.13277e-01,9.99999e-01,9.99999e-01,7.13277e-01,9.99999e-01
1.168862078e+00,7.18054e-01,9.99999e-01,9.99999e-01,7.18054e-01,9.99999e-01
1.174706389e+00,7.22767e-01,9.99999e-01,9.99999e-01,7.22767e-01,9.99999e-01
1.180579921e+00,7.27417e-01,9.99999e-01,9.99999e-01,7.27417e-01,9.99999e-01
1.186482820e+00,7.31993e-01,9.99999e-01,9.99984e-01,7.32004e-01,9.99999e-01
1.192415234e+00,7.14787e-01,9.99999e-01,9.70480e-01,7.36529e-01,9.99999e-01
1.198377311e+00,3.95447e-01,9.99999e-01,5.33673e-01,7.40991e-01,9.99999e-01
1.204369197e+00,7.88650e-23,9.99999e-01,1.05803e-22,7.45391e-01,9.99999e-01
1.210391043e+00,1.14755e-90,9.99999e-01,1.53062e-90,7.49730e-01,9.99999e-01
1.216442998e+00,1.55128e-78,9.99999e-01,2.05738e-78,7.54008e-01,9.99999e-01
1.222525213e+00,2.29347e-77,9.99999e-01,3.02479e-77,7.58225e-01,9.99999e-01
1.228637839e+00,8.84475e-60,9.99999e-01,1.16015e-59,7.62382e-01,9.99999e-01
1.234781029e+00,1.97279e-37,9.99999e-01,2.57383e-37,7.66478e-01,9.99999e-01
1.240954934e+00,5.97393e-25,9.99999e-01,7.75315e-25,7.70515e-01,9.99999e-01
1.247159708e+00,2.33137e-12,9.99999e-01,3.01019e-12,7.74493e-01,9.99999e-01
1.253395507e+00,2.39192e-08,9.99999e-01,3.07282e-08,7.78412e-01,9.99999e-01
1.259662485e+00,4.08843e-05,9.99999e-01,5.22634e-05,7.82273e-01,9.99999e-01
1.265960797e+00,3.11556e-03,9.99999e-01,3.96342e-03,7.86077e-01,9.99999e-01
1.272290601e+00,6.41301e-02,9.99999e-01,8.11954e-02,7.89823e-01,9.99999e-01
1.278652054e+00,5.63701e-02,9.99999e-01,7.10386e-02,7.93513e-01,9.99999e-01
1.285045314e+00,1.73704e-04,9.99999e-01,2.17908e-04,7.97146e-01,9.99999e-01
1.291470541e+00,5.12167e-11,9.99999e-01,6.39630e-11,8.00724e-01,9.99999e-01
1.297927893e+00,4.22506e-05,9.99999e-01,5.25344e-05,8.04247e-01,9.99999e-01
1.304417533e+00,8.03768e-03,9.99999e-01,9.95113e-03,8.07715e-01,9.99999e-01
1.310939621e+00,1.95214e-03,9.99999e-01,2.40669e-03,8.11129e-01,9.99999e-01
1.317494319e+00,3.66646e-31,9.99999e-01,4.50153e-31,8.14490e-01,9.99999e-01
1.324081790e+00,1.20163e-20,9.99999e-01,1.46934e-20,8.17798e-01,9.99999e-01
1.330702199e+00,2.84859e-12,9.99999e-01,3.46944e-12,8.21053e-01,9.99999e-01
1.337355710e+00,2.15133e-11,9.99999e-01,2.61002e-11,8.24257e-01,9.99999e-01
1.344042489e+00,9.72680e-12,9.99999e-01,1.17557e-11,8.27410e-01,9.99999e-01
1.350762701e+00,1.49570e-12,9.99999e-01,1.80093e-12,8.30512e-01,9.99999e-01
1.357516515e+00,6.50513e-08,9.99999e-01,7.80399e-08,8.33564e-01,9.99999e-01
1.364304097e+00,9.04048e-06,9.99999e-01,1.08066e-05,8.36567e-01,9.99999e-01
1.371125618e+00,2.42281e-03,9.99999e-01,2.88594e-03,8.39521e-01,9.99999e-01
1.377981246e+00,5.67641e-03,9.99999e-01,6.73816e-03,8.42426e-01,9.99999e-01
1.384871152e+00,4.59178e-02,9.99999e-01,5.43223e-02,8.45284e-01,9.99999e-01
1.391795508e+00,5.76143e-02,9.99999e-01,6.79336e-02,8.48095e-01,9.99999e-01
1.398754485e+00,1.58275e-01,9.99999e-01,1.86017e-01,8.50860e-01,9.99999e-01
1.405748258e+00,2.49647e-01,9.99999e-01,2.92471e-01,8.53579e-01,9.99999e-01
1.412776999e+00,3.92131e-01,9.99999e-01,4.57962e-01,8.56252e-01,9.99999e-01
1.419840884e+00,3.58747e-01,9.99999e-01,4.17690e-01,8.58881e-01,9.99999e-01
1.426940089e+00,1.67805e-02,9.99999e-01,1.94790e-02,8.61466e-01,9.99999e-01
1.434074789e+00,0.00000e+00,9.99999e-01,0.00000e+00,8.64007e-01,9.99999e-01
1.441245163e+00,0.00000e+00,9.99999e-01,0.00000e+00,8.66505e-01,9.99999e-01
1.448451389e+00,0.00000e+00,9.99998e-01,0.00000e+00,8.68961e-01,9.99999e-01
1.455693646e+00,0.00000e+00,9.99999e-01,0.00000e+00,8.71375e-01,9.99999e-01
1.462972114e+00,0.00000e+00,9.99999e-01,0.00000e+00,8.73748e-01,9.99999e-01
1.470286975e+00,6.68292e-150,9.99999e-01,7.62819e-150,8.76080e-01,9.99999e-01
