#,Wave/freq,Total,N2,CO2,Rayleigh,CIA
4.000000000e-01,2.85174e-03,9.99999e-01,9.99999e-01,2.85174e-03,9.99999e-01
4.020000000e-01,3.20206e-03,9.99999e-01,9.99999e-01,3.20206e-03,9.99999e-01
4.040100000e-01,3.58677e-03,9.99999e-01,9.99999e-01,3.58677e-03,9.99999e-01
4.060300500e-01,4.00871e-03,9.99999e-01,9.99999e-01,4.00871e-03,9.99999e-01
4.080602003e-01,4.47045e-03,9.99999e-01,9.99999e-01,4.47045e-03,9.99999e-01
4.101005013e-01,4.97465e-03,9.99999e-01,9.99999e-01,4.97465e-03,9.99999e-01
4.121510038e-01,5.52404e-03,9.99999e-01,9.99999e-01,5.52404e-03,9.99999e-01
4.142117588e-01,6.12143e-03,9.99999e-01,9.99999e-01,6.12143e-03,9.99999e-01
4.162828176e-01,6.76968e-03,9.99999e-01,9.99999e-01,6.76968e-03,9.99999e-01
4.183642317e-01,7.47170e-03,9.99999e-01,9.99999e-01,7.47170e-03,9.99999e-01
4.204560528e-01,8.23048e-03,9.99999e-01,9.99999e-01,8.23048e-03,9.99999e-01
4.225583331e-01,9.04900e-03,9.99999e-01,9.99999e-01,9.04900e-03,9.99999e-01
4.246711247e-01,9.93031e-03,9.99999e-01,9.99999e-01,9.93031e-03,9.99999e-01
4.267944804e-01,1.08775e-02,9.99999e-01,9.99999e-01,1.08775e-02,9.99999e-01
4.289284528e-01,1.18935e-02,9.99999e-01,9.99999e-01,1.18935e-02,9.99999e-01
4.310730950e-01,1.29816e-02,9.99999e-01,9.99999e-01,1.29816e-02,9.99999e-01
4.332284605e-01,1.41447e-02,9.99999e-01,9.99999e-01,1.41447e-02,9.99999e-01
4.353946028e-01,1.53860e-02,9.99999e-01,9.99999e-01,1.53860e-02,9.99999e-01
4.375715758e-01,1.67084e-02,9.99999e-01,9.99999e-01,1.67084e-02,9.99999e-01
4.397594337e-01,1.81149e-02,9.99999e-01,9.99999e-01,1.81149e-02,9.99999e-01
4.419582309e-01,1.96085e-02,9.99999e-01,9.99999e-01,1.96085e-02,9.99999e-01
4.441680220e-01,2.11920e-02,9.99999e-01,9.99999e-01,2.11920e-02,9.99999e-01
4.463888621e-01,2.28683e-02,9.99999e-01,9.99999e-01,2.28683e-02,9.99999e-01
4.486208064e-01,2.46401e-02,9.99999e-01,9.99999e-01,2.46401e-02,9.99999e-01
4.508639105e-01,2.65102e-02,9.99999e-01,9.99999e-01,2.65102e-02,9.99999e-01
4.531182300e-01,2.84809e-02,9.99999e-01,9.99999e-01,2.84809e-02,9.99999e-01
4.553838212e-01,3.05549e-02,9.99999e-01,9.99999e-01,3.05549e-02,9.99999e-01
4.576607403e-01,3.27343e-02,9.99999e-01,9.99999e-01,3.27343e-02,9.99999e-01
4.599490440e-01,3.50216e-02,9.99999e-01,9.99999e-01,3.50216e-02,9.99999e-01
4.622487892e-01,3.74187e-02,9.99999e-01,9.99999e-01,3.74187e-02,9.99999e-01
4.645600332e-01,3.99277e-02,9.99999e-01,9.99999e-01,3.99277e-02,9.99999e-01
4.668828333e-01,4.25503e-02,9.99999e-01,9.99999e-01,4.25503e-02,9.99999e-01
4.692172475e-01,4.52882e-02,9.99999e-01,9.99999e-01,4.52882e-02,9.99999e-01
4.715633337e-01,4.81429e-02,9.99999e-01,9.99999e-01,4.81429e-02,9.99999e-01
4.739211504e-01,5.11159e-02,9.99999e-01,9.99999e-01,5.11159e-02,9.99999e-01
4.762907561e-01,5.42082e-02,9.99999e-01,9.99999e-01,5.42082e-02,9.99999e-01
4.786722099e-01,5.74209e-02,9.99999e-01,9.99999e-01,5.74209e-02,9.99999e-01
4.810655710e-01,6.07550e-02,9.99999e-01,9.99999e-01,6.07550e-02,9.99999e-01
4.834708988e-01,6.42109e-02,9.99999e-01,9.99999e-01,6.42109e-02,9.99999e-01
4.858882533e-01,6.77894e-02,9.99999e-01,9.99999e-01,6.77894e-02,9.99999e-01
4.883176946e-01,7.14906e-02,9.99999e-01,9.99999e-01,7.14906e-02,9.99999e-01
4.907592831e-01,7.53148e-02,9.99999e-01,9.99999e-01,7.53148e-02,9.99999e-01
4.932130795e-01,7.92620e-02,9.99999e-01,9.99999e-01,7.92620e-02,9.99999e-01
4.956791449e-01,8.33319e-02,9.99999e-01,9.99999e-01,8.33319e-02,9.99999e-01
4.981575406e-01,8.75241e-02,9.99999e-01,9.99999e-01,8.75241e-02,9.99999e-01
5.006483283e-01,9.18382e-02,9.99999e-01,9.99999e-01,9.18382e-02,9.99999e-01
5.031515699e-01,9.62734e-02,9.99999e-01,9.99999e-01,9.62734e-02,9.99999e-01
5.056673278e-01,1.00829e-01,9.99999e-01,9.99999e-01,1.00829e-01,9.99999e-01
5.081956644e-01,1.05503e-01,9.99999e-01,9.99999e-01,1.05503e-01,9.99999e-01
5.107366428e-01,1.10296e-01,9.99999e-01,9.99999e-01,1.10296e-01,9.99999e-01
5.132903260e-01,1.15205e-01,9.99999e-01,9.99999e-01,1.15205e-01,9.99999e-01
5.158567776e-01,1.20229e-01,9.99999e-01,9.99999e-01,1.20229e-01,9.99999e-01
5.184360615e-01,1.25366e-01,9.99999e-01,9.99999e-01,1.25366e-01,9.99999e-01
5.210282418e-01,1.30615e-01,9.99999e-01,9.99999e-01,1.30615e-01,9.99999e-01
5.236333830e-01,1.35974e-01,9.99999e-01,9.99999e-01,1.35974e-01,9.99999e-01
5.262515499e-01,1.41440e-01,9.99999e-01,9.99999e-01,1.41440e-01,9.99999e-01
5.288828077e-01,1.47011e-01,9.99999e-01,9.99999e-01,1.47011e-01,9.99999e-01
5.315272217e-01,1.52685e-01,9.99999e-01,9.99999e-01,1.52685e-01,9.99999e-01
5.341848578e-01,1.58460e-01,9.99999e-01,9.99999e-01,1.58460e-01,9.99999e-01
5.368557821e-01,1.64332e-01,9.99999e-01,9.99999e-01,1.64332e-01,9.99999e-01
5.395400610e-01,1.70300e-01,9.99999e-01,9.99999e-01,1.70300e-01,9.99999e-01
5.422377613e-01,1.76360e-01,9.99999e-01,9.99999e-01,1.76360e-01,9.99999e-01
5.449489501e-01,1.82509e-01,9.99999e-01,9.99999e-01,1.82509e-01,9.99999e-01
5.476736949e-01,1.88745e-01,9.99999e-01,9.99999e-01,1.88745e-01,9.99999e-01
5.504120634e-01,1.95065e-01,9.99999e-01,9.99999e-01,1.95065e-01,9.99999e-01
5.531641237e-01,2.01465e-01,9.99999e-01,9.99999e-01,2.01465e-01,9.99999e-01
5.559299443e-01,2.07943e-01,9.99999e-01,9.99999e-01,2.07943e-01,9.99999e-01
5.587095940e-01,2.14495e-01,9.99999e-01,9.99999e-01,2.14495e-01,9.99999e-01
5.615031420e-01,2.21117e-01,9.99999e-01,9.99999e-01,2.21117e-01,9.99999e-01
5.643106577e-01,2.27807e-01,9.99999e-01,9.99999e-01,2.27807e-01,9.99999e-01
5.671322110e-01,2.34562e-01,9.99999e-01,9.99999e-01,2.34562e-01,9.99999e-01
5.699678720e-01,2.41377e-01,9.99999e-01,9.99999e-01,2.41377e-01,9.99999e-01
5.728177114e-01,2.48250e-01,9.99999e-01,9.99999e-01,2.48250e-01,9.99999e-01
5.756818000e-01,2.55177e-01,9.99999e-01,9.99999e-01,2.55177e-01,9.99999e-01
5.785602090e-01,2.62155e-01,9.99999e-01,9.99999e-01,2.62155e-01,9.99999e-01
5.814530100e-01,2.69180e-01,9.99999e-01,9.99999e-01,2.69180e-01,9.99999e-01
5.843602750e-01,2.76250e-01,9.99999e-01,9.99999e-01,2.76250e-01,9.99999e-01
5.872820764e-01,2.83359e-01,9.99999e-01,9.99999e-01,2.83359e-01,9.99999e-01
5.902184868e-01,2.90506e-01,9.99999e-01,9.99999e-01,2.90506e-01,9.99999e-01
5.931695792e-01,2.97686e-01,9.99999e-01,9.99999e-01,2.97686e-01,9.99999e-01
5.961354271e-01,3.04897e-01,9.99999e-01,9.99999e-01,3.04897e-01,9.99999e-01
5.991161043e-01,3.12135e-01,9.99999e-01,9.99999e-01,3.12135e-01,9.99999e-01
6.021116848e-01,3.19397e-01,9.99999e-01,9.99999e-01,3.19397e-01,9.99999e-01
6.051222432e-01,3.26679e-01,9.99999e-01,9.99999e-01,3.26679e-01,9.99999e-01
6.081478544e-01,3.33979e-01,9.99999e-01,9.99999e-01,3.33979e-01,9.99999e-01
6.111885937e-01,3.41292e-01,9.99999e-01,9.99999e-01,3.41292e-01,9.99999e-01
6.142445367e-01,3.48617e-01,9.99999e-01,9.99999e-01,3.48617e-01,9.99999e-01
6.173157594e-01,3.55949e-01,9.99999e-01,9.99999e-01,3.55949e-01,9.99999e-01
6.204023382e-01,3.63286e-01,9.99999e-01,9.99999e-01,3.63286e-01,9.99999e-01
6.235043498e-01,3.70626e-01,9.99999e-01,9.99999e-01,3.70626e-01,9.99999e-01
6.266218716e-01,3.77964e-01,9.99999e-01,9.99999e-01,3.77964e-01,9.99999e-01
6.297549810e-01,3.85298e-01,9.99999e-01,9.99999e-01,3.85298e-01,9.99999e-01
6.329037559e-01,3.92625e-01,9.99999e-01,9.99999e-01,3.92625e-01,9.99999e-01
6.360682746e-01,3.99943e-01,9.99999e-01,9.99999e-01,3.99943e-01,9.99999e-01
6.392486160e-01,4.07248e-01,9.99999e-01,9.99999e-01,4.07248e-01,9.99999e-01
6.424448591e-01,4.14539e-01,9.99999e-01,9.99999e-01,4.14539e-01,9.99999e-01
6.456570834e-01,4.21813e-01,9.99999e-01,9.99999e-01,4.21813e-01,9.99999e-01
6.488853688e-01,4.29066e-01,9.99999e-01,9.99999e-01,4.29066e-01,9.99999e-01
6.521297956e-01,4.36298e-01,9.99999e-01,9.99999e-01,4.36298e-01,9.99999e-01
6.553904446e-01,4.43505e-01,9.99999e-01,9.99999e-01,4.43505e-01,9.99999e-01
6.586673968e-01,4.50685e-01,9.99999e-01,9.99999e-01,4.50685e-01,9.99999e-01
6.619607338e-01,4.57836e-01,9.99999e-01,9.99999e-01,4.57836e-01,9.99999e-01
6.652705375e-01,4.64956e-01,9.99999e-01,9.99999e-01,4.64956e-01,9.99999e-01
6.685968902e-01,4.72042e-01,9.99999e-01,9.99999e-01,4.72042e-01,9.99999e-01
6.719398746e-01,4.79094e-01,9.99999e-01,9.99999e-01,4.79094e-01,9.99999e-01
6.752995740e-01,4.86108e-01,9.99999e-01,9.99999e-01,4.86108e-01,9.99999e-01
6.786760719e-01,4.93084e-01,9.99999e-01,9.99999e-01,4.93084e-01,9.99999e-01
6.820694522e-01,5.00019e-01,9.99999e-01,9.99999e-01,5.00019e-01,9.99999e-01
6.854797995e-01,5.06912e-01,9.99999e-01,9.99999e-01,5.06912e-01,9.99999e-01
6.889071985e-01,5.13760e-01,9.99999e-01,9.99999e-01,5.13760e-01,9.99999e-01
6.923517345e-01,5.20563e-01,9.99999e-01,9.99999e-01,5.20563e-01,9.99999e-01
6.958134932e-01,5.27320e-01,9.99999e-01,9.99999e-01,5.27320e-01,9.99999e-01
6.992925606e-01,5.34028e-01,9.99999e-01,9.99999e-01,5.34028e-01,9.99999e-01
7.027890234e-01,5.40686e-01,9.99999e-01,9.99999e-01,5.40686e-01,9.99999e-01
7.063029686e-01,5.47293e-01,9.99999e-01,9.99999e-01,5.47293e-01,9.99999e-01
7.098344834e-01,5.53848e-01,9.99999e-01,9.99999e-01,5.53848e-01,9.99999e-01
7.133836558e-01,5.60350e-01,9.99999e-01,9.99999e-01,5.60350e-01,9.99999e-01
7.169505741e-01,5.66798e-01,9.99999e-01,9.99999e-01,5.66798e-01,9.99999e-01
7.205353270e-01,5.73190e-01,9.99999e-01,9.99999e-01,5.73190e-01,9.99999e-01
7.241380036e-01,5.79526e-01,9.99999e-01,9.99999e-01,5.79526e-01,9.99999e-01
7.277586936e-01,5.85804e-01,9.99999e-01,9.99999e-01,5.85804e-01,9.99999e-01
7.313974871e-01,5.92025e-01,9.99999e-01,9.99999e-01,5.92025e-01,9.99999e-01
7.350544745e-01,5.98187e-01,9.99999e-01,9.99999e-01,5.98187e-01,9.99999e-01
7.387297469e-01,6.04289e-01,9.99999e-01,9.99999e-01,6.04289e-01,9.99999e-01
7.424233956e-01,6.10331e-01,9.99999e-01,9.99999e-01,6.10331e-01,9.99999e-01
7.461355126e-01,6.16313e-01,9.99999e-01,9.99999e-01,6.16313e-01,9.99999e-01
7.498661902e-01,6.22233e-01,9.99999e-01,9.99999e-01,6.22233e-01,9.99999e-01
7.536155211e-01,6.28092e-01,9.99999e-01,9.99999e-01,6.28092e-01,9.99999e-01
7.573835987e-01,6.33888e-01,9.99999e-01,9.99999e-01,6.33888e-01,9.99999e-01
7.611705167e-01,6.39622e-01,9.99999e-01,9.99999e-01,6.39622e-01,9.99999e-01
7.649763693e-01,6.45293e-01,9.99999e-01,9.99999e-01,6.45293e-01,9.99999e-01
7.688012511e-01,6.50901e-01,9.99999e-01,9.99999e-01,6.50901e-01,9.99999e-01
7.726452574e-01,6.56445e-01,9.99999e-01,9.99999e-01,6.56445e-01,9.99999e-01
7.765084837e-01,6.61925e-01,9.99999e-01,9.99999e-01,6.61925e-01,9.99999e-01
7.803910261e-01,6.54503e-01,9.99999e-01,9.80761e-01,6.67342e-01,9.99999e-01
7.842929812e-01,6.17583e-01,9.99999e-01,9.18072e-01,6.72695e-01,9.99999e-01
7.882144461e-01,6.18708e-01,9.99999e-01,9.12570e-01,6.77983e-01,9.99999e-01
7.921555184e-01,6.48188e-01,9.99999e-01,9.48741e-01,6.83208e-01,9.99999e-01
7.961162960e-01,6.64509e-01,9.99999e-01,9.65339e-01,6.88368e-01,9.99999e-01
8.000968774e-01,6.80352e-01,9.99999e-01,9.81090e-01,6.93465e-01,9.99999e-01
8.040973618e-01,6.91613e-01,9.99999e-01,9.90143e-01,6.98497e-01,9.99999e-01
8.081178486e-01,7.00283e-01,9.99999e-01,9.95475e-01,7.03465e-01,9.99999e-01
8.121584379e-01,7.07374e-01,9.99999e-01,9.98594e-01,7.08370e-01,9.99999e-01
8.162192301e-01,7.12989e-01,9.99999e-01,9.99689e-01,7.13210e-01,9.99999e-01
8.203003262e-01,7.17984e-01,9.99999e-01,9.99994e-01,7.17988e-01,9.99999e-01
8.244018279e-01,7.22702e-01,9.99999e-01,9.99999e-01,7.22702e-01,9.99999e-01
8.285238370e-01,7.27352e-01,9.99999e-01,9.99999e-01,7.27352e-01,9.99999e-01
8.326664562e-01,7.31940e-01,9.99999e-01,9.99999e-01,7.31940e-01,9.99999e-01
8.368297885e-01,7.36466e-01,9.99999e-01,9.99999e-01,7.36466e-01,9.99999e-01
8.410139374e-01,7.40929e-01,9.99999e-01,9.99999e-01,7.40929e-01,9.99999e-01
8.452190071e-01,7.45331e-01,9.99999e-01,9.99999e-01,7.45331e-01,9.99999e-01
8.494451021e-01,7.49670e-01,9.99999e-01,9.99999e-01,7.49670e-01,9.99999e-01
8.536923276e-01,7.53949e-01,9.99999e-01,9.99999e-01,7.53949e-01,9.99999e-01
8.579607893e-01,7.58167e-01,9.99999e-01,9.99999e-01,7.58167e-01,9.99999e-01
8.622505932e-01,7.62324e-01,9.99999e-01,9.99999e-01,7.62324e-01,9.99999e-01
8.665618462e-01,7.28331e-01,9.99999e-01,9.50300e-01,7.66422e-01,9.99999e-01
8.708946554e-01,6.18687e-01,9.99999e-01,8.03010e-01,7.70459e-01,9.99999e-01
8.752491287e-01,6.50021e-01,9.99999e-01,8.39345e-01,7.74438e-01,9.99999e-01
8.796253743e-01,7.07553e-01,9.99999e-01,9.09032e-01,7.78358e-01,9.99999e-01
8.840235012e-01,7.44654e-01,9.99999e-01,9.51974e-01,7.82220e-01,9.99999e-01
8.884436187e-01,7.70921e-01,9.99999e-01,9.80784e-01,7.86024e-01,9.99999e-01
8.928858368e-01,7.83603e-01,9.99999e-01,9.92189e-01,7.89771e-01,9.99999e-01
8.973502660e-01,7.91948e-01,9.99999e-01,9.98091e-01,7.93462e-01,9.99999e-01
9.018370173e-01,7.96928e-01,9.99999e-01,9.99789e-01,7.97096e-01,9.99999e-01
9.063462024e-01,7.96411e-01,9.99999e-01,9.94675e-01,8.00674e-01,9.99999e-01
9.108779334e-01,7.94311e-01,9.99999e-01,9.87705e-01,8.04198e-01,9.99999e-01
9.154323231e-01,8.05315e-01,9.99999e-01,9.97088e-01,8.07667e-01,9.99999e-01
9.200094847e-01,7.76847e-01,9.99999e-01,9.57791e-01,8.11082e-01,9.99999e-01
9.246095321e-01,7.66548e-01,9.99999e-01,9.41192e-01,8.14443e-01,9.99999e-01
9.292325798e-01,7.79870e-01,9.99999e-01,9.53675e-01,8.17752e-01,9.99999e-01
9.338787427e-01,7.84120e-01,9.99999e-01,9.55069e-01,8.21008e-01,9.99999e-01
9.385481364e-01,7.96899e-01,9.99999e-01,9.66860e-01,8.24213e-01,9.99999e-01
9.432408771e-01,8.10468e-01,9.99999e-01,9.79574e-01,8.27366e-01,9.99999e-01
9.479570815e-01,8.21739e-01,9.99999e-01,9.89487e-01,8.30469e-01,9.99999e-01
9.526968669e-01,8.29281e-01,9.99999e-01,9.94912e-01,8.33522e-01,9.99999e-01
9.574603512e-01,8.34703e-01,9.99999e-01,9.97821e-01,8.36525e-01,9.99999e-01
9.622476530e-01,8.38909e-01,9.99999e-01,9.99319e-01,8.39480e-01,9.99999e-01
9.670588912e-01,8.42214e-01,9.99999e-01,9.99795e-01,8.42386e-01,9.99999e-01
9.718941857e-01,8.45233e-01,9.99999e-01,9.99984e-01,8.45245e-01,9.99999e-01
9.767536566e-01,8.48057e-01,9.99999e-01,9.99999e-01,8.48057e-01,9.99999e-01
9.816374249e-01,8.50822e-01,9.99999e-01,9.99999e-01,8.50822e-01,9.99999e-01
9.865456120e-01,8.53541e-01,9.99999e-01,9.99999e-01,8.53541e-01,9.99999e-01
9.914783401e-01,8.56215e-01,9.99999e-01,9.99999e-01,8.56215e-01,9.99999e-01
9.964357318e-01,8.58845e-01,9.99999e-01,9.99999e-01,8.58845e-01,9.99999e-01
1.001417910e+00,8.61430e-01,9.99999e-01,9.99999e-01,8.61430e-01,9.99999e-01
1.006425000e+00,8.63972e-01,9.99999e-01,9.99999e-01,8.63972e-01,9.99999e-01
1.011457125e+00,8.66470e-01,9.99999e-01,9.99999e-01,8.66470e-01,9.99999e-01
1.016514411e+00,8.68927e-01,9.99999e-01,9.99999e-01,8.68927e-01,9.99999e-01
1.021596983e+00,8.71319e-01,9.99999e-01,9.99972e-01,8.71342e-01,9.99999e-01
1.026704968e+00,8.71909e-01,9.99999e-01,9.97931e-01,8.73715e-01,9.99999e-01
1.031838492e+00,8.51380e-01,9.99999e-01,9.71840e-01,8.76048e-01,9.99999e-01
1.036997685e+00,2.25934e-01,9.99999e-01,2.57228e-01,8.78341e-01,9.99999e-01
1.042182673e+00,2.57574e-01,9.99999e-01,2.92500e-01,8.80595e-01,9.99999e-01
1.047393587e+00,2.48969e-01,9.99999e-01,2.82019e-01,8.82809e-01,9.99999e-01
1.052630555e+00,2.89269e-02,9.99999e-01,3.26863e-02,8.84985e-01,9.99999e-01
1.057893707e+00,5.70167e-02,9.99999e-01,6.42714e-02,8.87124e-01,9.99999e-01
1.063183176e+00,1.21113e-01,9.99999e-01,1.36201e-01,8.89225e-01,9.99999e-01
1.068499092e+00,2.33817e-01,9.99999e-01,2.62335e-01,8.91289e-01,9.99999e-01
1.073841587e+00,3.83598e-01,9.99999e-01,4.29408e-01,8.93318e-01,9.99999e-01
1.079210795e+00,5.25189e-01,9.99999e-01,5.86599e-01,8.95311e-01,9.99999e-01
1.084606849e+00,6.70252e-01,9.99999e-01,7.46991e-01,8.97268e-01,9.99999e-01
1.090029883e+00,7.73195e-01,9.99999e-01,8.59876e-01,8.99192e-01,9.99999e-01
1.095480033e+00,8.36495e-01,9.99999e-01,9.28323e-01,9.01081e-01,9.99999e-01
1.100957433e+00,8.71203e-01,9.99999e-01,9.64854e-01,9.02937e-01,9.99999e-01
1.106462220e+00,8.91470e-01,9.99999e-01,9.85310e-01,9.04760e-01,9.99999e-01
1.111994531e+00,9.01594e-01,9.99999e-01,9.94532e-01,9.06550e-01,9.99999e-01
1.117554504e+00,9.07091e-01,9.99999e-01,9.98659e-01,9.08308e-01,9.99999e-01
1.123142276e+00,9.09955e-01,9.99999e-01,9.99911e-01,9.10036e-01,9.99999e-01
1.128757988e+00,9.11732e-01,9.99999e-01,9.99999e-01,9.11732e-01,9.99999e-01
1.134401778e+00,9.13397e-01,9.99999e-01,9.99999e-01,9.13397e-01,9.99999e-01
1.140073787e+00,9.15033e-01,9.99999e-01,9.99999e-01,9.15033e-01,9.99999e-01
1.145774156e+00,9.16639e-01,9.99999e-01,9.99999e-01,9.16639e-01,9.99999e-01
1.151503026e+00,9.18217e-01,9.99999e-01,9.99999e-01,9.18217e-01,9.99999e-01
1.157260541e+00,9.19765e-01,9.99999e-01,9.99999e-01,9.19765e-01,9.99999e-01
1.163046844e+00,9.21286e-01,9.99999e-01,9.99999e-01,9.21286e-01,9.99999e-01
1.168862078e+00,9.22779e-01,9.99999e-01,9.99999e-01,9.22779e-01,9.99999e-01
1.174706389e+00,9.24245e-01,9.99999e-01,9.99999e-01,9.24245e-01,9.99999e-01
1.180579921e+00,9.25685e-01,9.99999e-01,9.99999e-01,9.25685e-01,9.99999e-01
1.186482820e+00,9.27095e-01,9.99999e-01,9.99996e-01,9.27098e-01,9.99999e-01
1.192415234e+00,9.21615e-01,9.99999e-01,9.92600e-01,9.28485e-01,9.99999e-01
1.198377311e+00,5.39642e-01,9.99999e-01,5.80355e-01,9.29847e-01,9.99999e-01
1.204369197e+00,3.04681e-07,9.99999e-01,3.27198e-07,9.31183e-01,9.99999e-01
1.210391043e+00,1.05415e-23,9.99999e-01,1.13046e-23,9.32496e-01,9.99999e-01
1.216442998e+00,9.29406e-21,9.99999e-01,9.95310e-21,9.33784e-01,9.99999e-01
1.222525213e+00,1.82968e-20,9.99999e-01,1.95678e-20,9.35048e-01,9.99999e-01
1.228637839e+00,8.94050e-16,9.99999e-01,9.54885e-16,9.36290e-01,9.99999e-01
1.234781029e+00,8.92037e-11,9.99999e-01,9.51498e-11,9.37508e-01,9.99999e-01
1.240954934e+00,2.48376e-07,9.99999e-01,2.64595e-07,9.38704e-01,9.99999e-01
1.247159708e+00,2.02708e-04,9.99999e-01,2.15674e-04,9.39877e-01,9.99999e-01
1.253395507e+00,8.47754e-03,9.99999e-01,9.00879e-03,9.41029e-01,9.99999e-01
1.259662485e+00,6.46445e-02,9.99999e-01,6.86131e-02,9.42159e-01,9.99999e-01
1.265960797e+00,1.98912e-01,9.99999e-01,2.10875e-01,9.43269e-01,9.99999e-01
1.272290601e+00,4.72862e-01,9.99999e-01,5.00722e-01,9.44358e-01,9.99999e-01
1.278652054e+00,4.39529e-01,9.99999e-01,4.64900e-01,9.45426e-01,9.99999e-01
1.285045314e+00,2.99350e-02,9.99999e-01,3.16279e-02,9.46475e-01,9.99999e-01
1.291470541e+00,1.77117e-03,9.99999e-01,1.86930e-03,9.47504e-01,9.99999e-01
1.297927893e+00,2.99418e-02,9.99999e-01,3.15671e-02,9.48513e-01,9.99999e-01
1.304417533e+00,2.97178e-01,9.99999e-01,3.12982e-01,9.49504e-01,9.99999e-01
1.310939621e+00,8.28325e-02,9.99999e-01,8.71483e-02,9.50477e-01,9.99999e-01
1.317494319e+00,1.33361e-08,9.99999e-01,1.40168e-08,9.51431e-01,9.99999e-01
1.324081790e+00,2.78068e-06,9.99999e-01,2.91976e-06,9.52367e-01,9.99999e-01
1.330702199e+00,1.03314e-03,9.99999e-01,1.08376e-03,9.53285e-01,9.99999e-01
1.337355710e+00,7.82601e-04,9.99999e-01,8.20175e-04,9.54186e-01,9.99999e-01
1.344042489e+00,2.56619e-04,9.99999e-01,2.68691e-04,9.55071e-01,9.99999e-01
1.350762701e+00,7.59996e-04,9.99999e-01,7.95026e-04,9.55938e-01,9.99999e-01
1.357516515e+00,8.80668e-03,9.99999e-01,9.20440e-03,9.56790e-01,9.99999e-01
1.364304097e+00,5.09348e-02,9.99999e-01,5.31886e-02,9.57625e-01,9.99999e-01
1.371125618e+00,2.03407e-01,9.99999e-01,2.12226e-01,9.58444e-01,9.99999e-01
1.377981246e+00,2.77454e-01,9.99999e-01,2.89241e-01,9.59248e-01,9.99999e-01
1.384871152e+00,4.66139e-01,9.99999e-01,4.85543e-01,9.60037e-01,9.99999e-01
1.391795508e+00,4.92998e-01,9.99999e-01,5.13106e-01,9.60810e-01,9.99999e-01
1.398754485e+00,6.37981e-01,9.99999e-01,6.63479e-01,9.61569e-01,9.99999e-01
1.405748258e+00,7.10820e-01,9.99999e-01,7.38657e-01,9.62314e-01,9.99999e-01
1.412776999e+00,7.95567e-01,9.99999e-01,8.26095e-01,9.63044e-01,9.99999e-01
1.419840884e+00,7.35024e-01,9.99999e-01,7.62661e-01,9.63761e-01,9.99999e-01
1.426940089e+00,9.38263e-02,9.99999e-01,9.72833e-02,9.64464e-01,9.99999e-01
1.434074789e+00,0.00000e+00,9.99999e-01,0.00000e+00,9.65153e-01,9.99999e-01
1.441245163e+00,0.00000e+00,9.99999e-01,0.00000e+00,9.65830e-01,9.99999e-01
1.448451389e+00,0.00000e+00,9.99999e-01,0.00000e+00,9.66493e-01,9.99999e-01
1.455693646e+00,2.69154e-183,9.99999e-01,2.78297e-183,9.67144e-01,9.99999e-01
1.462972114e+00,2.52132e-89,9.99999e-01,2.60525e-89,9.67782e-01,9.99999e-01
1.470286975e+00,4.44638e-38,9.99999e-01,4.59142e-38,9.68409e-01,9.99999e-01
