#,Wave/freq,Total,N2,CO2,Rayleigh,CIA
4.000000000e-01,3.02575e-06,9.99999e-01,9.99999e-01,3.02575e-06,9.99999e-01
4.020000000e-01,3.89012e-06,9.99999e-01,9.99999e-01,3.89012e-06,9.99999e-01
4.040100000e-01,4.97536e-06,9.99999e-01,9.99999e-01,4.97536e-06,9.99999e-01
4.060300500e-01,6.33250e-06,9.99999e-01,9.99999e-01,6.33250e-06,9.99999e-01
4.080602003e-01,8.02153e-06,9.99999e-01,9.99999e-01,8.02153e-06,9.99999e-01
4.101005013e-01,1.01137e-05,9.99999e-01,9.99999e-01,1.01137e-05,9.99999e-01
4.121510038e-01,1.26933e-05,9.99999e-01,9.99999e-01,1.26933e-05,9.99999e-01
4.142117588e-01,1.58596e-05,9.99999e-01,9.99999e-01,1.58596e-05,9.99999e-01
4.162828176e-01,1.97287e-05,9.99999e-01,9.99999e-01,1.97287e-05,9.99999e-01
4.183642317e-01,2.44361e-05,9.99999e-01,9.99999e-01,2.44361e-05,9.99999e-01
4.204560528e-01,3.01391e-05,9.99999e-01,9.99999e-01,3.01391e-05,9.99999e-01
4.225583331e-01,3.70193e-05,9.99999e-01,9.99999e-01,3.70193e-05,9.99999e-01
4.246711247e-01,4.52859e-05,9.99999e-01,9.99999e-01,4.52859e-05,9.99999e-01
4.267944804e-01,5.51783e-05,9.99999e-01,9.99999e-01,5.51783e-05,9.99999e-01
4.289284528e-01,6.69698e-05,9.99999e-01,9.99999e-01,6.69698e-05,9.99999e-01
4.310730950e-01,8.09707e-05,9.99999e-01,9.99999e-01,8.09707e-05,9.99999e-01
4.332284605e-01,9.75324e-05,9.99999e-01,9.99999e-01,9.75324e-05,9.99999e-01
4.353946028e-01,1.17050e-04,9.99999e-01,9.99999e-01,1.17050e-04,9.99999e-01
4.375715758e-01,1.39969e-04,9.99999e-01,9.99999e-01,1.39969e-04,9.99999e-01
4.397594337e-01,1.66785e-04,9.99999e-01,9.99999e-01,1.66785e-04,9.99999e-01
4.419582309e-01,1.98052e-04,9.99999e-01,9.99999e-01,1.98052e-04,9.99999e-01
4.441680220e-01,2.34384e-04,9.99999e-01,9.99999e-01,2.34384e-04,9.99999e-01
4.463888621e-01,2.76459e-04,9.99999e-01,9.99999e-01,2.76459e-04,9.99999e-01
4.486208064e-01,3.25025e-04,9.99999e-01,9.99999e-01,3.25025e-04,9.99999e-01
4.508639105e-01,3.80904e-04,9.99999e-01,9.99999e-01,3.80904e-04,9.99999e-01
4.531182300e-01,4.44992e-04,9.99999e-01,9.99999e-01,4.44992e-04,9.99999e-01
4.553838212e-01,5.18270e-04,9.99999e-01,9.99999e-01,5.18270e-04,9.99999e-01
4.576607403e-01,6.01799e-04,9.99999e-01,9.99999e-01,6.01799e-04,9.99999e-01
4.599490440e-01,6.96731e-04,9.99999e-01,9.99999e-01,6.96731e-04,9.99999e-01
4.622487892e-01,8.04308e-04,9.99999e-01,9.99999e-01,8.04308e-04,9.99999e-01
4.645600332e-01,9.25866e-04,9.99999e-01,9.99999e-01,9.25866e-04,9.99999e-01
4.668828333e-01,1.06284e-03,9.99999e-01,9.99999e-01,1.06284e-03,9.99999e-01
4.692172475e-01,1.21675e-03,9.99999e-01,9.99999e-01,1.21675e-03,9.99999e-01
4.715633337e-01,1.38923e-03,9.99999e-01,9.99999e-01,1.38923e-03,9.99999e-01
4.739211504e-01,1.58202e-03,9.99999e-01,9.99999e-01,1.58202e-03,9.99999e-01
4.762907561e-01,1.79695e-03,9.99999e-01,9.99999e-01,1.79695e-03,9.99999e-01
4.786722099e-01,2.03594e-03,9.99999e-01,9.99999e-01,2.03594e-03,9.99999e-01
4.810655710e-01,2.30104e-03,9.99999e-01,9.99999e-01,2.30104e-03,9.99999e-01
4.834708988e-01,2.59437e-03,9.99999e-01,9.99999e-01,2.59437e-03,9.99999e-01
4.858882533e-01,2.91817e-03,9.99999e-01,9.99999e-01,2.91817e-03,9.99999e-01
4.883176946e-01,3.27478e-03,9.99999e-01,9.99999e-01,3.27478e-03,9.99999e-01
4.907592831e-01,3.66659e-03,9.99999e-01,9.99999e-01,3.66659e-03,9.99999e-01
4.932130795e-01,4.09614e-03,9.99999e-01,9.99999e-01,4.09614e-03,9.99999e-01
4.956791449e-01,4.56600e-03,9.99999e-01,9.99999e-01,4.56600e-03,9.99999e-01
4.981575406e-01,5.07886e-03,9.99999e-01,9.99999e-01,5.07886e-03,9.99999e-01
5.006483283e-01,5.63745e-03,9.99999e-01,9.99999e-01,5.63745e-03,9.99999e-01
5.031515699e-01,6.24460e-03,9.99999e-01,9.99999e-01,6.24460e-03,9.99999e-01
5.056673278e-01,6.90318e-03,9.99999e-01,9.99999e-01,6.90318e-03,9.99999e-01
5.081956644e-01,7.61611e-03,9.99999e-01,9.99999e-01,7.61611e-03,9.99999e-01
5.107366428e-01,8.38637e-03,9.99999e-01,9.99999e-01,8.38637e-03,9.99999e-01
5.132903260e-01,9.21698e-03,9.99999e-01,9.99999e-01,9.21698e-03,9.99999e-01
5.158567776e-01,1.01110e-02,9.99999e-01,9.99999e-01,1.01110e-02,9.99999e-01
5.184360615e-01,1.10714e-02,9.99999e-01,9.99999e-01,1.10714e-02,9.99999e-01
5.210282418e-01,1.21014e-02,9.99999e-01,9.99999e-01,1.21014e-02,9.99999e-01
5.236333830e-01,1.32039e-02,9.99999e-01,9.99999e-01,1.32039e-02,9.99999e-01
5.262515499e-01,1.43822e-02,9.99999e-01,9.99999e-01,1.43822e-02,9.99999e-01
5.288828077e-01,1.56391e-02,9.99999e-01,9.99999e-01,1.56391e-02,9.99999e-01
5.315272217e-01,1.69778e-02,9.99999e-01,9.99999e-01,1.69778e-02,9.99999e-01
5.341848578e-01,1.84012e-02,9.99999e-01,9.99999e-01,1.84012e-02,9.99999e-01
5.368557821e-01,1.99122e-02,9.99999e-01,9.99999e-01,1.99122e-02,9.99999e-01
5.395400610e-01,2.15137e-02,9.99999e-01,9.99999e-01,2.15137e-02,9.99999e-01
5.422377613e-01,2.32086e-02,9.99999e-01,9.99999e-01,2.32086e-02,9.99999e-01
5.449489501e-01,2.49995e-02,9.99999e-01,9.99999e-01,2.49995e-02,9.99999e-01
5.476736949e-01,2.68891e-02,9.99999e-01,9.99999e-01,2.68891e-02,9.99999e-01
5.504120634e-01,2.88799e-02,9.99999e-01,9.99999e-01,2.88799e-02,9.99999e-01
5.531641237e-01,3.09744e-02,9.99999e-01,9.99999e-01,3.09744e-02,9.99999e-01
5.559299443e-01,3.31748e-02,9.99999e-01,9.99999e-01,3.31748e-02,9.99999e-01
5.587095940e-01,3.54835e-02,9.99999e-01,9.99999e-01,3.54835e-02,9.99999e-01
5.615031420e-01,3.79024e-02,9.99999e-01,9.99999e-01,3.79024e-02,9.99999e-01
5.643106577e-01,4.04336e-02,9.99999e-01,9.99999e-01,4.04336e-02,9.99999e-01
5.671322110e-01,4.30787e-02,9.99999e-01,9.99999e-01,4.30787e-02,9.99999e-01
5.699678720e-01,4.58394e-02,9.99999e-01,9.99999e-01,4.58394e-02,9.99999e-01
5.728177114e-01,4.87173e-02,9.99999e-01,9.99999e-01,4.87173e-02,9.99999e-01
5.756818000e-01,5.17135e-02,9.99999e-01,9.99999e-01,5.17135e-02,9.99999e-01
5.785602090e-01,5.48294e-02,9.99999e-01,9.99999e-01,5.48294e-02,9.99999e-01
5.814530100e-01,5.80659e-02,9.99999e-01,9.99999e-01,5.80659e-02,9.99999e-01
5.843602750e-01,6.14238e-02,9.99999e-01,9.99999e-01,6.14238e-02,9.99999e-01
5.872820764e-01,6.49038e-02,9.99999e-01,9.99999e-01,6.49038e-02,9.99999e-01
5.902184868e-01,6.85064e-02,9.99999e-01,9.99999e-01,6.85064e-02,9.99999e-01
5.931695792e-01,7.22317e-02,9.99999e-01,9.99999e-01,7.22317e-02,9.99999e-01
5.961354271e-01,7.60801e-02,9.99999e-01,9.99999e-01,7.60801e-02,9.99999e-01
5.991161043e-01,8.00514e-02,9.99999e-01,9.99999e-01,8.00514e-02,9.99999e-01
6.021116848e-01,8.41453e-02,9.99999e-01,9.99999e-01,8.41453e-02,9.99999e-01
6.051222432e-01,8.83615e-02,9.99999e-01,9.99999e-01,8.83615e-02,9.99999e-01
6.081478544e-01,9.26994e-02,9.99999e-01,9.99999e-01,9.26994e-02,9.99999e-01
6.111885937e-01,9.71583e-02,9.99999e-01,9.99999e-01,9.71583e-02,9.99999e-01
6.142445367e-01,1.01737e-01,9.99999e-01,9.99999e-01,1.01737e-01,9.99999e-01
6.173157594e-01,1.06435e-01,9.99999e-01,9.99999e-01,1.06435e-01,9.99999e-01
6.204023382e-01,1.11250e-01,9.99999e-01,9.99999e-01,1.11250e-01,9.99999e-01
6.235043498e-01,1.16182e-01,9.99999e-01,9.99999e-01,1.16182e-01,9.99999e-01
6.266218716e-01,1.21229e-01,9.99999e-01,9.99999e-01,1.21229e-01,9.99999e-01
6.297549810e-01,1.26388e-01,9.99999e-01,9.99999e-01,1.26388e-01,9.99999e-01
6.329037559e-01,1.31659e-01,9.99999e-01,9.99999e-01,1.31659e-01,9.99999e-01
6.360682746e-01,1.37039e-01,9.99999e-01,9.99999e-01,1.37039e-01,9.99999e-01
6.392486160e-01,1.42526e-01,9.99999e-01,9.99999e-01,1.42526e-01,9.99999e-01
6.424448591e-01,1.48117e-01,9.99999e-01,9.99999e-01,1.48117e-01,9.99999e-01
6.456570834e-01,1.53811e-01,9.99999e-01,9.99999e-01,1.53811e-01,9.99999e-01
6.488853688e-01,1.59605e-01,9.99999e-01,9.99999e-01,1.59605e-01,9.99999e-01
6.521297956e-01,1.65496e-01,9.99999e-01,9.99999e-01,1.65496e-01,9.99999e-01
6.553904446e-01,1.71482e-01,9.99999e-01,9.99999e-01,1.71482e-01,9.99999e-01
6.586673968e-01,1.77560e-01,9.99999e-01,9.99999e-01,1.77560e-01,9.99999e-01
6.619607338e-01,1.83727e-01,9.99999e-01,9.99999e-01,1.83727e-01,9.99999e-01
6.652705375e-01,1.89980e-01,9.99999e-01,9.99999e-01,1.89980e-01,9.99999e-01
6.685968902e-01,1.96316e-01,9.99999e-01,9.99999e-01,1.96316e-01,9.99999e-01
6.719398746e-01,2.02731e-01,9.99999e-01,9.99999e-01,2.02731e-01,9.99999e-01
6.752995740e-01,2.09224e-01,9.99999e-01,9.99999e-01,2.09224e-01,9.99999e-01
6.786760719e-01,2.15789e-01,9.99999e-01,9.99999e-01,2.15789e-01,9.99999e-01
6.820694522e-01,2.22426e-01,9.99999e-01,9.99999e-01,2.22426e-01,9.99999e-01
6.854797995e-01,2.29129e-01,9.99999e-01,9.99999e-01,2.29129e-01,9.99999e-01
6.889071985e-01,2.35895e-01,9.99999e-01,9.99999e-01,2.35895e-01,9.99999e-01
6.923517345e-01,2.42722e-01,9.99999e-01,9.99999e-01,2.42722e-01,9.99999e-01
6.958134932e-01,2.49606e-01,9.99999e-01,9.99999e-01,2.49606e-01,9.99999e-01
6.992925606e-01,2.56544e-01,9.99999e-01,9.99999e-01,2.56544e-01,9.99999e-01
7.027890234e-01,2.63531e-01,9.99999e-01,9.99999e-01,2.63531e-01,9.99999e-01
7.063029686e-01,2.70565e-01,9.99999e-01,9.99999e-01,2.70565e-01,9.99999e-01
7.098344834e-01,2.77642e-01,9.99999e-01,9.99999e-01,2.77642e-01,9.99999e-01
7.133836558e-01,2.84759e-01,9.99999e-01,9.99999e-01,2.84759e-01,9.99999e-01
7.169505741e-01,2.91913e-01,9.99999e-01,9.99999e-01,2.91913e-01,9.99999e-01
7.205353270e-01,2.99100e-01,9.99999e-01,9.99999e-01,2.99100e-01,9.99999e-01
7.241380036e-01,3.06316e-01,9.99999e-01,9.99999e-01,3.06316e-01,9.99999e-01
7.277586936e-01,3.13559e-01,9.99999e-01,9.99999e-01,3.13559e-01,9.99999e-01
7.313974871e-01,3.20825e-01,9.99999e-01,9.99999e-01,3.20825e-01,9.99999e-01
7.350544745e-01,3.28111e-01,9.99999e-01,9.99999e-01,3.28111e-01,9.99999e-01
7.387297469e-01,3.35414e-01,9.99999e-01,9.99999e-01,3.35414e-01,9.99999e-01
7.424233956e-01,3.42730e-01,9.99999e-01,9.99999e-01,3.42730e-01,9.99999e-01
7.461355126e-01,3.50056e-01,9.99999e-01,9.99999e-01,3.50056e-01,9.99999e-01
7.498661902e-01,3.57389e-01,9.99999e-01,9.99999e-01,3.57389e-01,9.99999e-01
7.536155211e-01,3.64727e-01,9.99999e-01,9.99999e-01,3.64727e-01,9.99999e-01
7.573835987e-01,3.72066e-01,9.99999e-01,9.99999e-01,3.72066e-01,9.99999e-01
7.611705167e-01,3.79404e-01,9.99999e-01,9.99999e-01,3.79404e-01,9.99999e-01
7.649763693e-01,3.86737e-01,9.99999e-01,9.99999e-01,3.86737e-01,9.99999e-01
7.688012511e-01,3.94063e-01,9.99999e-01,9.99999e-01,3.94063e-01,9.99999e-01
7.726452574e-01,4.01378e-01,9.99999e-01,9.99999e-01,4.01378e-01,9.99999e-01
7.765084837e-01,4.08681e-01,9.99999e-01,9.99999e-01,4.08681e-01,9.99999e-01
7.803910261e-01,3.99399e-01,9.99999e-01,9.60166e-01,4.15969e-01,9.99999e-01
7.842929812e-01,3.53156e-01,9.99999e-01,8.34414e-01,4.23238e-01,9.99999e-01
7.882144461e-01,3.54698e-01,9.99999e-01,8.23943e-01,4.30488e-01,9.99999e-01
7.921555184e-01,3.90714e-01,9.99999e-01,8.92622e-01,4.37715e-01,9.99999e-01
7.961162960e-01,4.12317e-01,9.99999e-01,9.26729e-01,4.44916e-01,9.99999e-01
8.000968774e-01,4.33821e-01,9.99999e-01,9.59588e-01,4.52091e-01,9.99999e-01
8.040973618e-01,4.49529e-01,9.99999e-01,9.78862e-01,4.59236e-01,9.99999e-01
8.081178486e-01,4.61798e-01,9.99999e-01,9.90239e-01,4.66350e-01,9.99999e-01
8.121584379e-01,4.71999e-01,9.99999e-01,9.96977e-01,4.73430e-01,9.99999e-01
8.162192301e-01,4.80153e-01,9.99999e-01,9.99331e-01,4.80474e-01,9.99999e-01
8.203003262e-01,4.87476e-01,9.99999e-01,9.99989e-01,4.87481e-01,9.99999e-01
8.244018279e-01,4.94449e-01,9.99999e-01,9.99999e-01,4.94449e-01,9.99999e-01
8.285238370e-01,5.01376e-01,9.99999e-01,9.99999e-01,5.01376e-01,9.99999e-01
8.326664562e-01,5.08260e-01,9.99999e-01,9.99999e-01,5.08260e-01,9.99999e-01
8.368297885e-01,5.15100e-01,9.99999e-01,9.99999e-01,5.15100e-01,9.99999e-01
8.410139374e-01,5.21894e-01,9.99999e-01,9.99999e-01,5.21894e-01,9.99999e-01
8.452190071e-01,5.28641e-01,9.99999e-01,9.99999e-01,5.28641e-01,9.99999e-01
8.494451021e-01,5.35339e-01,9.99999e-01,9.99999e-01,5.35339e-01,9.99999e-01
8.536923276e-01,5.41987e-01,9.99999e-01,9.99999e-01,5.41987e-01,9.99999e-01
8.579607893e-01,5.48584e-01,9.99999e-01,9.99999e-01,5.48584e-01,9.99999e-01
8.622505932e-01,5.55129e-01,9.99999e-01,9.99999e-01,5.55129e-01,9.99999e-01
8.665618462e-01,5.14896e-01,9.99999e-01,9.16803e-01,5.61620e-01,9.99999e-01
8.708946554e-01,3.59365e-01,9.99999e-01,6.32621e-01,5.68057e-01,9.99999e-01
8.752491287e-01,3.96649e-01,9.99999e-01,6.90499e-01,5.74438e-01,9.99999e-01
8.796253743e-01,4.73530e-01,9.99999e-01,8.15359e-01,5.80763e-01,9.99999e-01
8.840235012e-01,5.27964e-01,9.99999e-01,8.99380e-01,5.87030e-01,9.99999e-01
8.884436187e-01,5.68951e-01,9.99999e-01,9.59058e-01,5.93239e-01,9.99999e-01
8.928858368e-01,5.89325e-01,9.99999e-01,9.83207e-01,5.99390e-01,9.99999e-01
8.973502660e-01,6.02997e-01,9.99999e-01,9.95898e-01,6.05480e-01,9.99999e-01
9.018370173e-01,6.11234e-01,9.99999e-01,9.99547e-01,6.11511e-01,9.99999e-01
9.063462024e-01,6.10338e-01,9.99999e-01,9.88432e-01,6.17480e-01,9.99999e-01
9.108779334e-01,6.06951e-01,9.99999e-01,9.73631e-01,6.23388e-01,9.99999e-01
9.154323231e-01,6.25304e-01,9.99999e-01,9.93752e-01,6.29235e-01,9.99999e-01
9.200094847e-01,5.80338e-01,9.99999e-01,9.13890e-01,6.35019e-01,9.99999e-01
9.246095321e-01,5.62221e-01,9.99999e-01,8.77454e-01,6.40740e-01,9.99999e-01
9.292325798e-01,5.83539e-01,9.99999e-01,9.02752e-01,6.46399e-01,9.99999e-01
9.338787427e-01,5.90555e-01,9.99999e-01,9.05767e-01,6.51994e-01,9.99999e-01
9.385481364e-01,6.11367e-01,9.99999e-01,9.29798e-01,6.57526e-01,9.99999e-01
9.432408771e-01,6.34093e-01,9.99999e-01,9.56407e-01,6.62994e-01,9.99999e-01
9.479570815e-01,6.53287e-01,9.99999e-01,9.77391e-01,6.68398e-01,9.99999e-01
9.526968669e-01,6.66353e-01,9.99999e-01,9.89038e-01,6.73738e-01,9.99999e-01
9.574603512e-01,6.75822e-01,9.99999e-01,9.95298e-01,6.79014e-01,9.99999e-01
9.622476530e-01,6.83222e-01,9.99999e-01,9.98531e-01,6.84226e-01,9.99999e-01
9.670588912e-01,6.89071e-01,9.99999e-01,9.99559e-01,6.89374e-01,9.99999e-01
9.718941857e-01,6.94436e-01,9.99999e-01,9.99968e-01,6.94458e-01,9.99999e-01
9.767536566e-01,6.99477e-01,9.99999e-01,9.99999e-01,6.99477e-01,9.99999e-01
9.816374249e-01,7.04433e-01,9.99999e-01,9.99999e-01,7.04433e-01,9.99999e-01
9.865456120e-01,7.09325e-01,9.99999e-01,9.99999e-01,7.09325e-01,9.99999e-01
9.914783401e-01,7.14153e-01,9.99999e-01,9.99999e-01,7.14153e-01,9.99999e-01
9.964357318e-01,7.18918e-01,9.99999e-01,9.99999e-01,7.18918e-01,9.99999e-01
1.001417910e+00,7.23620e-01,9.99999e-01,9.99999e-01,7.23620e-01,9.99999e-01
1.006425000e+00,7.28258e-01,9.99999e-01,9.99999e-01,7.28258e-01,9.99999e-01
1.011457125e+00,7.32834e-01,9.99999e-01,9.99999e-01,7.32834e-01,9.99999e-01
1.016514411e+00,7.37347e-01,9.99999e-01,9.99999e-01,7.37347e-01,9.99999e-01
1.021596983e+00,7.41753e-01,9.99999e-01,9.99937e-01,7.41798e-01,9.99999e-01
1.026704968e+00,7.42809e-01,9.99999e-01,9.95471e-01,7.46188e-01,9.99999e-01
1.031838492e+00,7.12608e-01,9.99999e-01,9.49491e-01,7.50515e-01,9.99999e-01
1.036997685e+00,9.70367e-02,9.99999e-01,1.28562e-01,7.54782e-01,9.99999e-01
1.042182673e+00,6.14289e-02,9.99999e-01,8.09353e-02,7.58988e-01,9.99999e-01
1.047393587e+00,8.05317e-02,9.99999e-01,1.05528e-01,7.63133e-01,9.99999e-01
1.052630555e+00,1.21890e-03,9.99999e-01,1.58872e-03,7.67219e-01,9.99999e-01
1.057893707e+00,3.41007e-03,9.99999e-01,4.42151e-03,7.71245e-01,9.99999e-01
1.063183176e+00,1.39748e-02,9.99999e-01,1.80271e-02,7.75212e-01,9.99999e-01
1.068499092e+00,4.61182e-02,9.99999e-01,5.91926e-02,7.79121e-01,9.99999e-01
1.073841587e+00,1.30782e-01,9.99999e-01,1.67032e-01,7.82972e-01,9.99999e-01
1.079210795e+00,2.53259e-01,9.99999e-01,3.21899e-01,7.86765e-01,9.99999e-01
1.084606849e+00,4.22657e-01,9.99999e-01,5.34670e-01,7.90500e-01,9.99999e-01
1.090029883e+00,5.73573e-01,9.99999e-01,7.22220e-01,7.94180e-01,9.99999e-01
1.095480033e+00,6.79575e-01,9.99999e-01,8.51808e-01,7.97803e-01,9.99999e-01
1.100957433e+00,7.41749e-01,9.99999e-01,9.25600e-01,8.01371e-01,9.99999e-01
1.106462220e+00,7.79557e-01,9.99999e-01,9.68534e-01,8.04883e-01,9.99999e-01
1.111994531e+00,7.98819e-01,9.99999e-01,9.88219e-01,8.08342e-01,9.99999e-01
1.117554504e+00,8.09403e-01,9.99999e-01,9.97112e-01,8.11746e-01,9.99999e-01
1.123142276e+00,8.14943e-01,9.99999e-01,9.99810e-01,8.15097e-01,9.99999e-01
1.128757988e+00,8.18395e-01,9.99999e-01,9.99999e-01,8.18395e-01,9.99999e-01
1.134401778e+00,8.21641e-01,9.99999e-01,9.99999e-01,8.21641e-01,9.99999e-01
1.140073787e+00,8.24836e-01,9.99999e-01,9.99999e-01,8.24836e-01,9.99999e-01
1.145774156e+00,8.27979e-01,9.99999e-01,9.99999e-01,8.27979e-01,9.99999e-01
1.151503026e+00,8.31072e-01,9.99999e-01,9.99999e-01,8.31072e-01,9.99999e-01
1.157260541e+00,8.34115e-01,9.99999e-01,9.99999e-01,8.34115e-01,9.99999e-01
1.163046844e+00,8.37109e-01,9.99999e-01,9.99999e-01,8.37109e-01,9.99999e-01
1.168862078e+00,8.40054e-01,9.99999e-01,9.99999e-01,8.40054e-01,9.99999e-01
1.174706389e+00,8.42951e-01,9.99999e-01,9.99999e-01,8.42951e-01,9.99999e-01
1.180579921e+00,8.45801e-01,9.99999e-01,9.99999e-01,8.45801e-01,9.99999e-01
1.186482820e+00,8.48596e-01,9.99999e-01,9.99991e-01,8.48603e-01,9.99999e-01
1.192415234e+00,8.37715e-01,9.99999e-01,9.83972e-01,8.51359e-01,9.99999e-01
1.198377311e+00,4.75150e-01,9.99999e-01,5.56336e-01,8.54070e-01,9.99999e-01
1.204369197e+00,4.42070e-13,9.99999e-01,5.15993e-13,8.56735e-01,9.99999e-01
1.210391043e+00,8.79596e-49,9.99999e-01,1.02355e-48,8.59356e-01,9.99999e-01
1.216442998e+00,2.12941e-42,9.99999e-01,2.47051e-42,8.61932e-01,9.99999e-01
1.222525213e+00,8.79391e-42,9.99999e-01,1.01726e-41,8.64466e-01,9.99999e-01
1.228637839e+00,2.29741e-32,9.99999e-01,2.64997e-32,8.66956e-01,9.99999e-01
1.234781029e+00,9.14289e-21,9.99999e-01,1.05163e-20,8.69404e-01,9.99999e-01
1.240954934e+00,5.47649e-14,9.99999e-01,6.28174e-14,8.71811e-01,9.99999e-01
1.247159708e+00,1.47770e-07,9.99999e-01,1.69039e-07,8.74176e-01,9.99999e-01
1.253395507e+00,6.08690e-05,9.99999e-01,6.94454e-05,8.76502e-01,9.99999e-01
1.259662485e+00,3.60191e-03,9.99999e-01,4.09873e-03,8.78787e-01,9.99999e-01
1.265960797e+00,3.70740e-02,9.99999e-01,4.20801e-02,8.81032e-01,9.99999e-01
1.272290601e+00,2.27138e-01,9.99999e-01,2.57165e-01,8.83239e-01,9.99999e-01
1.278652054e+00,1.93476e-01,9.99999e-01,2.18516e-01,8.85408e-01,9.99999e-01
1.285045314e+00,2.78598e-03,9.99999e-01,3.13900e-03,8.87539e-01,9.99999e-01
1.291470541e+00,2.22640e-06,9.99999e-01,2.50261e-06,8.89633e-01,9.99999e-01
1.297927893e+00,1.96962e-03,9.99999e-01,2.20886e-03,8.91691e-01,9.99999e-01
1.304417533e+00,7.51012e-02,9.99999e-01,8.40329e-02,8.93712e-01,9.99999e-01
1.310939621e+00,1.77885e-02,9.99999e-01,1.98599e-02,8.95698e-01,9.99999e-01
1.317494319e+00,3.35456e-17,9.99999e-01,3.73704e-17,8.97649e-01,9.99999e-01
1.324081790e+00,9.07388e-12,9.99999e-01,1.00869e-11,8.99565e-01,9.99999e-01
1.330702199e+00,5.75411e-07,9.99999e-01,6.38318e-07,9.01448e-01,9.99999e-01
1.337355710e+00,9.88428e-07,9.99999e-01,1.09424e-06,9.03297e-01,9.99999e-01
1.344042489e+00,3.18604e-07,9.99999e-01,3.52004e-07,9.05114e-01,9.99999e-01
1.350762701e+00,3.42197e-07,9.99999e-01,3.77327e-07,9.06898e-01,9.99999e-01
1.357516515e+00,7.76195e-05,9.99999e-01,8.54228e-05,9.08650e-01,9.99999e-01
1.364304097e+00,1.84044e-03,9.99999e-01,2.02164e-03,9.10371e-01,9.99999e-01
1.371125618e+00,3.64808e-02,9.99999e-01,3.99982e-02,9.12061e-01,9.99999e-01
1.377981246e+00,6.34673e-02,9.99999e-01,6.94601e-02,9.13721e-01,9.99999e-01
1.384871152e+00,1.93923e-01,9.99999e-01,2.11856e-01,9.15351e-01,9.99999e-01
1.391795508e+00,2.18540e-01,9.99999e-01,2.38334e-01,9.16951e-01,9.99999e-01
1.398754485e+00,3.78280e-01,9.99999e-01,4.11835e-01,9.18523e-01,9.99999e-01
1.405748258e+00,4.79260e-01,9.99999e-01,5.20897e-01,9.20066e-01,9.99999e-01
1.412776999e+00,6.10129e-01,9.99999e-01,6.62045e-01,9.21582e-01,9.99999e-01
1.419840884e+00,5.47186e-01,9.99999e-01,5.92790e-01,9.23069e-01,9.99999e-01
1.426940089e+00,4.40455e-02,9.99999e-01,4.76409e-02,9.24530e-01,9.99999e-01
1.434074789e+00,0.00000e+00,9.99999e-01,0.00000e+00,9.25964e-01,9.99999e-01
1.441245163e+00,0.00000e+00,9.99999e-01,0.00000e+00,9.27372e-01,9.99999e-01
1.448451389e+00,0.00000e+00,9.99999e-01,0.00000e+00,9.28754e-01,9.99999e-01
1.455693646e+00,0.00000e+00,9.99999e-01,0.00000e+00,9.30111e-01,9.99999e-01
1.462972114e+00,4.13973e-191,9.99999e-01,4.44443e-191,9.31443e-01,9.99999e-01
1.470286975e+00,5.82618e-80,9.99999e-01,6.24622e-80,9.32751e-01,9.99999e-01
