#,Wave/freq,Total,N2,CO2,Rayleigh,CIA
4.000000000e-01,1.94203e-06,9.99999e-01,9.99999e-01,1.94203e-06,9.99999e-01
4.020000000e-01,2.51879e-06,9.99999e-01,9.99999e-01,2.51879e-06,9.99999e-01
4.040100000e-01,3.24924e-06,9.99999e-01,9.99999e-01,3.24924e-06,9.99999e-01
4.060300500e-01,4.17049e-06,9.99999e-01,9.99999e-01,4.17049e-06,9.99999e-01
4.080602003e-01,5.32662e-06,9.99999e-01,9.99999e-01,5.32662e-06,9.99999e-01
4.101005013e-01,6.77045e-06,9.99999e-01,9.99999e-01,6.77045e-06,9.99999e-01
4.121510038e-01,8.56497e-06,9.99999e-01,9.99999e-01,8.56497e-06,9.99999e-01
4.142117588e-01,1.07849e-05,9.99999e-01,9.99999e-01,1.07849e-05,9.99999e-01
4.162828176e-01,1.35186e-05,9.99999e-01,9.99999e-01,1.35186e-05,9.99999e-01
4.183642317e-01,1.68697e-05,9.99999e-01,9.99999e-01,1.68697e-05,9.99999e-01
4.204560528e-01,2.09596e-05,9.99999e-01,9.99999e-01,2.09596e-05,9.99999e-01
4.225583331e-01,2.59297e-05,9.99999e-01,9.99999e-01,2.59297e-05,9.99999e-01
4.246711247e-01,3.19438e-05,9.99999e-01,9.99999e-01,3.19438e-05,9.99999e-01
4.267944804e-01,3.91910e-05,9.99999e-01,9.99999e-01,3.91910e-05,9.99999e-01
4.289284528e-01,4.78886e-05,9.99999e-01,9.99999e-01,4.78886e-05,9.99999e-01
4.310730950e-01,5.82852e-05,9.99999e-01,9.99999e-01,5.82852e-05,9.99999e-01
4.332284605e-01,7.06641e-05,9.99999e-01,9.99999e-01,7.06641e-05,9.99999e-01
4.353946028e-01,8.53468e-05,9.99999e-01,9.99999e-01,8.53468e-05,9.99999e-01
4.375715758e-01,1.02697e-04,9.99999e-01,9.99999e-01,1.02697e-04,9.99999e-01
4.397594337e-01,1.23123e-04,9.99999e-01,9.99999e-01,1.23123e-04,9.99999e-01
4.419582309e-01,1.47083e-04,9.99999e-01,9.99999e-01,1.47083e-04,9.99999e-01
4.441680220e-01,1.75091e-04,9.99999e-01,9.99999e-01,1.75091e-04,9.99999e-01
4.463888621e-01,2.07715e-04,9.99999e-01,9.99999e-01,2.07715e-04,9.99999e-01
4.486208064e-01,2.45588e-04,9.99999e-01,9.99999e-01,2.45588e-04,9.99999e-01
4.508639105e-01,2.89408e-04,9.99999e-01,9.99999e-01,2.89408e-04,9.99999e-01
4.531182300e-01,3.39941e-04,9.99999e-01,9.99999e-01,3.39941e-04,9.99999e-01
4.553838212e-01,3.98031e-04,9.99999e-01,9.99999e-01,3.98031e-04,9.99999e-01
4.576607403e-01,4.64598e-04,9.99999e-01,9.99999e-01,4.64598e-04,9.99999e-01
4.599490440e-01,5.40643e-04,9.99999e-01,9.99999e-01,5.40643e-04,9.99999e-01
4.622487892e-01,6.27255e-04,9.99999e-01,9.99999e-01,6.27255e-04,9.99999e-01
4.645600332e-01,7.25608e-04,9.99999e-01,9.99999e-01,7.25608e-04,9.99999e-01
4.668828333e-01,8.36973e-04,9.99999e-01,9.99999e-01,8.36973e-04,9.99999e-01
4.692172475e-01,9.62710e-04,9.99999e-01,9.99999e-01,9.62710e-04,9.99999e-01
4.715633337e-01,1.10428e-03,9.99999e-01,9.99999e-01,1.10428e-03,9.99999e-01
4.739211504e-01,1.26324e-03,9.99999e-01,9.99999e-01,1.26324e-03,9.99999e-01
4.762907561e-01,1.44125e-03,9.99999e-01,9.99999e-01,1.44125e-03,9.99999e-01
4.786722099e-01,1.64006e-03,9.99999e-01,9.99999e-01,1.64006e-03,9.99999e-01
4.810655710e-01,1.86154e-03,9.99999e-01,9.99999e-01,1.86154e-03,9.99999e-01
4.834708988e-01,2.10766e-03,9.99999e-01,9.99999e-01,2.10766e-03,9.99999e-01
4.858882533e-01,2.38046e-03,9.99999e-01,9.99999e-01,2.38046e-03,9.99999e-01
4.883176946e-01,2.68213e-03,9.99999e-01,9.99999e-01,2.68213e-03,9.99999e-01
4.907592831e-01,3.01490e-03,9.99999e-01,9.99999e-01,3.01490e-03,9.99999e-01
4.932130795e-01,3.38114e-03,9.99999e-01,9.99999e-01,3.38114e-03,9.99999e-01
4.956791449e-01,3.78330e-03,9.99999e-01,9.99999e-01,3.78330e-03,9.99999e-01
4.981575406e-01,4.22390e-03,9.99999e-01,9.99999e-01,4.22390e-03,9.99999e-01
5.006483283e-01,4.70557e-03,9.99999e-01,9.99999e-01,4.70557e-03,9.99999e-01
5.031515699e-01,5.23099e-03,9.99999e-01,9.99999e-01,5.23099e-03,9.99999e-01
5.056673278e-01,5.80293e-03,9.99999e-01,9.99999e-01,5.80293e-03,9.99999e-01
5.081956644e-01,6.42422e-03,9.99999e-01,9.99999e-01,6.42422e-03,9.99999e-01
5.107366428e-01,7.09777e-03,9.99999e-01,9.99999e-01,7.09777e-03,9.99999e-01
5.132903260e-01,7.82649e-03,9.99999e-01,9.99999e-01,7.82649e-03,9.99999e-01
5.158567776e-01,8.61340e-03,9.99999e-01,9.99999e-01,8.61340e-03,9.99999e-01
5.184360615e-01,9.46150e-03,9.99999e-01,9.99999e-01,9.46150e-03,9.99999e-01
5.210282418e-01,1.03738e-02,9.99999e-01,9.99999e-01,1.03738e-02,9.99999e-01
5.236333830e-01,1.13535e-02,9.99999e-01,9.99999e-01,1.13535e-02,9.99999e-01
5.262515499e-01,1.24035e-02,9.99999e-01,9.99999e-01,1.24035e-02,9.99999e-01
5.288828077e-01,1.35270e-02,9.99999e-01,9.99999e-01,1.35270e-02,9.99999e-01
5.315272217e-01,1.47271e-02,9.99999e-01,9.99999e-01,1.47271e-02,9.99999e-01
5.341848578e-01,1.60067e-02,9.99999e-01,9.99999e-01,1.60067e-02,9.99999e-01
5.368557821e-01,1.73688e-02,9.99999e-01,9.99999e-01,1.73688e-02,9.99999e-01
5.395400610e-01,1.88165e-02,9.99999e-01,9.99999e-01,1.88165e-02,9.99999e-01
5.422377613e-01,2.03527e-02,9.99999e-01,9.99999e-01,2.03527e-02,9.99999e-01
5.449489501e-01,2.19801e-02,9.99999e-01,9.99999e-01,2.19801e-02,9.99999e-01
5.476736949e-01,2.37017e-02,9.99999e-01,9.99999e-01,2.37017e-02,9.99999e-01
5.504120634e-01,2.55200e-02,9.99999e-01,9.99999e-01,2.55200e-02,9.99999e-01
5.531641237e-01,2.74378e-02,9.99999e-01,9.99999e-01,2.74378e-02,9.99999e-01
5.559299443e-01,2.94575e-02,9.99999e-01,9.99999e-01,2.94575e-02,9.99999e-01
5.587095940e-01,3.15815e-02,9.99999e-01,9.99999e-01,3.15815e-02,9.99999e-01
5.615031420e-01,3.38122e-02,9.99999e-01,9.99999e-01,3.38122e-02,9.99999e-01
5.643106577e-01,3.61516e-02,9.99999e-01,9.99999e-01,3.61516e-02,9.99999e-01
5.671322110e-01,3.86018e-02,9.99999e-01,9.99999e-01,3.86018e-02,9.99999e-01
5.699678720e-01,4.11648e-02,9.99999e-01,9.99999e-01,4.11648e-02,9.99999e-01
5.728177114e-01,4.38422e-02,9.99999e-01,9.99999e-01,4.38422e-02,9.99999e-01
5.756818000e-01,4.66357e-02,9.99999e-01,9.99999e-01,4.66357e-02,9.99999e-01
5.785602090e-01,4.95467e-02,9.99999e-01,9.99999e-01,4.95467e-02,9.99999e-01
5.814530100e-01,5.25764e-02,9.99999e-01,9.99999e-01,5.25764e-02,9.99999e-01
5.843602750e-01,5.57261e-02,9.99999e-01,9.99999e-01,5.57261e-02,9.99999e-01
5.872820764e-01,5.89966e-02,9.99999e-01,9.99999e-01,5.89966e-02,9.99999e-01
5.902184868e-01,6.23888e-02,9.99999e-01,9.99999e-01,6.23888e-02,9.99999e-01
5.931695792e-01,6.59031e-02,9.99999e-01,9.99999e-01,6.59031e-02,9.99999e-01
5.961354271e-01,6.95401e-02,9.99999e-01,9.99999e-01,6.95401e-02,9.99999e-01
5.991161043e-01,7.33000e-02,9.99999e-01,9.99999e-01,7.33000e-02,9.99999e-01
6.021116848e-01,7.71829e-02,9.99999e-01,9.99999e-01,7.71829e-02,9.99999e-01
6.051222432e-01,8.11887e-02,9.99999e-01,9.99999e-01,8.11887e-02,9.99999e-01
6.081478544e-01,8.53170e-02,9.99999e-01,9.99999e-01,8.53170e-02,9.99999e-01
6.111885937e-01,8.95674e-02,9.99999e-01,9.99999e-01,8.95674e-02,9.99999e-01
6.142445367e-01,9.39394e-02,9.99999e-01,9.99999e-01,9.39394e-02,9.99999e-01
6.173157594e-01,9.84321e-02,9.99999e-01,9.99999e-01,9.84321e-02,9.99999e-01
6.204023382e-01,1.03044e-01,9.99999e-01,9.99999e-01,1.03044e-01,9.99999e-01
6.235043498e-01,1.07775e-01,9.99999e-01,9.99999e-01,1.07775e-01,9.99999e-01
6.266218716e-01,1.12624e-01,9.99999e-01,9.99999e-01,1.12624e-01,9.99999e-01
6.297549810e-01,1.17588e-01,9.99999e-01,9.99999e-01,1.17588e-01,9.99999e-01
6.329037559e-01,1.22666e-01,9.99999e-01,9.99999e-01,1.22666e-01,9.99999e-01
6.360682746e-01,1.27857e-01,9.99999e-01,9.99999e-01,1.27857e-01,9.99999e-01
6.392486160e-01,1.33159e-01,9.99999e-01,9.99999e-01,1.33159e-01,9.99999e-01
6.424448591e-01,1.38569e-01,9.99999e-01,9.99999e-01,1.38569e-01,9.99999e-01
6.456570834e-01,1.44085e-01,9.99999e-01,9.99999e-01,1.44085e-01,9.99999e-01
6.488853688e-01,1.49706e-01,9.99999e-01,9.99999e-01,1.49706e-01,9.99999e-01
6.521297956e-01,1.55428e-01,9.99999e-01,9.99999e-01,1.55428e-01,9.99999e-01
6.553904446e-01,1.61250e-01,9.99999e-01,9.99999e-01,1.61250e-01,9.99999e-01
6.586673968e-01,1.67168e-01,9.99999e-01,9.99999e-01,1.67168e-01,9.99999e-01
6.619607338e-01,1.73180e-01,9.99999e-01,9.99999e-01,1.73180e-01,9.99999e-01
6.652705375e-01,1.79283e-01,9.99999e-01,9.99999e-01,1.79283e-01,9.99999e-01
6.685968902e-01,1.85474e-01,9.99999e-01,9.99999e-01,1.85474e-01,9.99999e-01
6.719398746e-01,1.91751e-01,9.99999e-01,9.99999e-01,1.91751e-01,9.99999e-01
6.752995740e-01,1.98109e-01,9.99999e-01,9.99999e-01,1.98109e-01,9.99999e-01
6.786760719e-01,2.04547e-01,9.99999e-01,9.99999e-01,2.04547e-01,9.99999e-01
6.820694522e-01,2.11060e-01,9.99999e-01,9.99999e-01,2.11060e-01,9.99999e-01
6.854797995e-01,2.17646e-01,9.99999e-01,9.99999e-01,2.17646e-01,9.99999e-01
6.889071985e-01,2.24301e-01,9.99999e-01,9.99999e-01,2.24301e-01,9.99999e-01
6.923517345e-01,2.31023e-01,9.99999e-01,9.99999e-01,2.31023e-01,9.99999e-01
6.958134932e-01,2.37807e-01,9.99999e-01,9.99999e-01,2.37807e-01,9.99999e-01
6.992925606e-01,2.44650e-01,9.99999e-01,9.99999e-01,2.44650e-01,9.99999e-01
7.027890234e-01,2.51549e-01,9.99999e-01,9.99999e-01,2.51549e-01,9.99999e-01
7.063029686e-01,2.58501e-01,9.99999e-01,9.99999e-01,2.58501e-01,9.99999e-01
7.098344834e-01,2.65502e-01,9.99999e-01,9.99999e-01,2.65502e-01,9.99999e-01
7.133836558e-01,2.72548e-01,9.99999e-01,9.99999e-01,2.72548e-01,9.99999e-01
7.169505741e-01,2.79637e-01,9.99999e-01,9.99999e-01,2.79637e-01,9.99999e-01
7.205353270e-01,2.86765e-01,9.99999e-01,9.99999e-01,2.86765e-01,9.99999e-01
7.241380036e-01,2.93928e-01,9.99999e-01,9.99999e-01,2.93928e-01,9.99999e-01
7.277586936e-01,3.01123e-01,9.99999e-01,9.99999e-01,3.01123e-01,9.99999e-01
7.313974871e-01,3.08348e-01,9.99999e-01,9.99999e-01,3.08348e-01,9.99999e-01
7.350544745e-01,3.15597e-01,9.99999e-01,9.99999e-01,3.15597e-01,9.99999e-01
7.387297469e-01,3.22869e-01,9.99999e-01,9.99999e-01,3.22869e-01,9.99999e-01
7.424233956e-01,3.30160e-01,9.99999e-01,9.99999e-01,3.30160e-01,9.99999e-01
7.461355126e-01,3.37467e-01,9.99999e-01,9.99999e-01,3.37467e-01,9.99999e-01
7.498661902e-01,3.44786e-01,9.99999e-01,9.99999e-01,3.44786e-01,9.99999e-01
7.536155211e-01,3.52115e-01,9.99999e-01,9.99999e-01,3.52115e-01,9.99999e-01
7.573835987e-01,3.59450e-01,9.99999e-01,9.99999e-01,3.59450e-01,9.99999e-01
7.611705167e-01,3.66788e-01,9.99999e-01,9.99999e-01,3.66788e-01,9.99999e-01
7.649763693e-01,3.74127e-01,9.99999e-01,9.99999e-01,3.74127e-01,9.99999e-01
7.688012511e-01,3.81464e-01,9.99999e-01,9.99999e-01,3.81464e-01,9.99999e-01
7.726452574e-01,3.88795e-01,9.99999e-01,9.99999e-01,3.88795e-01,9.99999e-01
7.765084837e-01,3.96118e-01,9.99999e-01,9.99999e-01,3.96118e-01,9.99999e-01
7.803910261e-01,3.86442e-01,9.99999e-01,9.57888e-01,4.03430e-01,9.99999e-01
7.842929812e-01,3.40859e-01,9.99999e-01,8.29887e-01,4.10729e-01,9.99999e-01
7.882144461e-01,3.42145e-01,9.99999e-01,8.18505e-01,4.18012e-01,9.99999e-01
7.921555184e-01,3.78073e-01,9.99999e-01,8.89004e-01,4.25276e-01,9.99999e-01
7.961162960e-01,3.99887e-01,9.99999e-01,9.24551e-01,4.32520e-01,9.99999e-01
8.000968774e-01,4.21407e-01,9.99999e-01,9.58309e-01,4.39740e-01,9.99999e-01
8.040973618e-01,4.37210e-01,9.99999e-01,9.78242e-01,4.46934e-01,9.99999e-01
8.081178486e-01,4.49526e-01,9.99999e-01,9.89924e-01,4.54101e-01,9.99999e-01
8.121584379e-01,4.59807e-01,9.99999e-01,9.96899e-01,4.61237e-01,9.99999e-01
8.162192301e-01,4.68020e-01,9.99999e-01,9.99314e-01,4.68341e-01,9.99999e-01
8.203003262e-01,4.75407e-01,9.99999e-01,9.99989e-01,4.75411e-01,9.99999e-01
8.244018279e-01,4.82446e-01,9.99999e-01,9.99999e-01,4.82446e-01,9.99999e-01
8.285238370e-01,4.89442e-01,9.99999e-01,9.99999e-01,4.89442e-01,9.99999e-01
8.326664562e-01,4.96398e-01,9.99999e-01,9.99999e-01,4.96398e-01,9.99999e-01
8.368297885e-01,5.03313e-01,9.99999e-01,9.99999e-01,5.03313e-01,9.99999e-01
8.410139374e-01,5.10185e-01,9.99999e-01,9.99999e-01,5.10185e-01,9.99999e-01
8.452190071e-01,5.17012e-01,9.99999e-01,9.99999e-01,5.17012e-01,9.99999e-01
8.494451021e-01,5.23793e-01,9.99999e-01,9.99999e-01,5.23793e-01,9.99999e-01
8.536923276e-01,5.30527e-01,9.99999e-01,9.99999e-01,5.30527e-01,9.99999e-01
8.579607893e-01,5.37211e-01,9.99999e-01,9.99999e-01,5.37211e-01,9.99999e-01
8.622505932e-01,5.43845e-01,9.99999e-01,9.99999e-01,5.43845e-01,9.99999e-01
8.665618462e-01,5.02711e-01,9.99999e-01,9.13310e-01,5.50428e-01,9.99999e-01
8.708946554e-01,3.47089e-01,9.99999e-01,6.23187e-01,5.56957e-01,9.99999e-01
8.752491287e-01,3.84631e-01,9.99999e-01,6.82655e-01,5.63433e-01,9.99999e-01
8.796253743e-01,4.61734e-01,9.99999e-01,8.10266e-01,5.69855e-01,9.99999e-01
8.840235012e-01,5.16531e-01,9.99999e-01,8.96413e-01,5.76220e-01,9.99999e-01
8.884436187e-01,5.58023e-01,9.99999e-01,9.57932e-01,5.82529e-01,9.99999e-01
8.928858368e-01,5.78599e-01,9.99999e-01,9.82708e-01,5.88780e-01,9.99999e-01
8.973502660e-01,5.92468e-01,9.99999e-01,9.95790e-01,5.94972e-01,9.99999e-01
9.018370173e-01,6.00827e-01,9.99999e-01,9.99536e-01,6.01106e-01,9.99999e-01
9.063462024e-01,5.99829e-01,9.99999e-01,9.87892e-01,6.07180e-01,9.99999e-01
9.108779334e-01,5.96518e-01,9.99999e-01,9.72805e-01,6.13193e-01,9.99999e-01
9.154323231e-01,6.15182e-01,9.99999e-01,9.93597e-01,6.19146e-01,9.99999e-01
9.200094847e-01,5.69138e-01,9.99999e-01,9.10566e-01,6.25037e-01,9.99999e-01
9.246095321e-01,5.51219e-01,9.99999e-01,8.73749e-01,6.30865e-01,9.99999e-01
9.292325798e-01,5.72440e-01,9.99999e-01,8.99169e-01,6.36632e-01,9.99999e-01
9.338787427e-01,5.79943e-01,9.99999e-01,9.02864e-01,6.42336e-01,9.99999e-01
9.385481364e-01,6.01044e-01,9.99999e-01,9.27570e-01,6.47977e-01,9.99999e-01
9.432408771e-01,6.24192e-01,9.99999e-01,9.55072e-01,6.53554e-01,9.99999e-01
9.479570815e-01,6.43685e-01,9.99999e-01,9.76658e-01,6.59068e-01,9.99999e-01
9.526968669e-01,6.57007e-01,9.99999e-01,9.88696e-01,6.64518e-01,9.99999e-01
9.574603512e-01,6.66658e-01,9.99999e-01,9.95154e-01,6.69904e-01,9.99999e-01
9.622476530e-01,6.74205e-01,9.99999e-01,9.98487e-01,6.75226e-01,9.99999e-01
9.670588912e-01,6.80176e-01,9.99999e-01,9.99547e-01,6.80484e-01,9.99999e-01
9.718941857e-01,6.85657e-01,9.99999e-01,9.99968e-01,6.85678e-01,9.99999e-01
9.767536566e-01,6.90808e-01,9.99999e-01,9.99999e-01,6.90808e-01,9.99999e-01
9.816374249e-01,6.95874e-01,9.99999e-01,9.99999e-01,6.95874e-01,9.99999e-01
9.865456120e-01,7.00875e-01,9.99999e-01,9.99999e-01,7.00875e-01,9.99999e-01
9.914783401e-01,7.05813e-01,9.99999e-01,9.99999e-01,7.05813e-01,9.99999e-01
9.964357318e-01,7.10687e-01,9.99999e-01,9.99999e-01,7.10687e-01,9.99999e-01
1.001417910e+00,7.15498e-01,9.99999e-01,9.99999e-01,7.15498e-01,9.99999e-01
1.006425000e+00,7.20245e-01,9.99999e-01,9.99999e-01,7.20245e-01,9.99999e-01
1.011457125e+00,7.24929e-01,9.99999e-01,9.99999e-01,7.24929e-01,9.99999e-01
1.016514411e+00,7.29549e-01,9.99999e-01,9.99999e-01,7.29549e-01,9.99999e-01
1.021596983e+00,7.34056e-01,9.99999e-01,9.99929e-01,7.34108e-01,9.99999e-01
1.026704968e+00,7.35091e-01,9.99999e-01,9.95244e-01,7.38603e-01,9.99999e-01
1.031838492e+00,7.02956e-01,9.99999e-01,9.46057e-01,7.43037e-01,9.99999e-01
1.036997685e+00,9.21646e-02,9.99999e-01,1.23312e-01,7.47409e-01,9.99999e-01
1.042182673e+00,5.64993e-02,9.99999e-01,7.51600e-02,7.51720e-01,9.99999e-01
1.047393587e+00,7.46199e-02,9.99999e-01,9.87074e-02,7.55969e-01,9.99999e-01
1.052630555e+00,1.00391e-03,9.99999e-01,1.32066e-03,7.60158e-01,9.99999e-01
1.057893707e+00,2.89442e-03,9.99999e-01,3.78709e-03,7.64287e-01,9.99999e-01
1.063183176e+00,1.22967e-02,9.99999e-01,1.60040e-02,7.68356e-01,9.99999e-01
1.068499092e+00,4.15819e-02,9.99999e-01,5.38371e-02,7.72365e-01,9.99999e-01
1.073841587e+00,1.22420e-01,9.99999e-01,1.57694e-01,7.76316e-01,9.99999e-01
1.079210795e+00,2.42152e-01,9.99999e-01,3.10368e-01,7.80208e-01,9.99999e-01
1.084606849e+00,4.10926e-01,9.99999e-01,5.24111e-01,7.84043e-01,9.99999e-01
1.090029883e+00,5.62946e-01,9.99999e-01,7.14562e-01,7.87819e-01,9.99999e-01
1.095480033e+00,6.70804e-01,9.99999e-01,8.47466e-01,7.91539e-01,9.99999e-01
1.100957433e+00,7.34206e-01,9.99999e-01,9.23293e-01,7.95203e-01,9.99999e-01
1.106462220e+00,7.72902e-01,9.99999e-01,9.67565e-01,7.98810e-01,9.99999e-01
1.111994531e+00,7.92616e-01,9.99999e-01,9.87851e-01,8.02363e-01,9.99999e-01
1.117554504e+00,8.03468e-01,9.99999e-01,9.97031e-01,8.05860e-01,9.99999e-01
1.123142276e+00,8.09146e-01,9.99999e-01,9.99805e-01,8.09303e-01,9.99999e-01
1.128757988e+00,8.12692e-01,9.99999e-01,9.99999e-01,8.12692e-01,9.99999e-01
1.134401778e+00,8.16029e-01,9.99999e-01,9.99999e-01,8.16029e-01,9.99999e-01
1.140073787e+00,8.19312e-01,9.99999e-01,9.99999e-01,8.19312e-01,9.99999e-01
1.145774156e+00,8.22544e-01,9.99999e-01,9.99999e-01,8.22544e-01,9.99999e-01
1.151503026e+00,8.25724e-01,9.99999e-01,9.99999e-01,8.25724e-01,9.99999e-01
1.157260541e+00,8.28853e-01,9.99999e-01,9.99999e-01,8.28853e-01,9.99999e-01
1.163046844e+00,8.31932e-01,9.99999e-01,9.99999e-01,8.31932e-01,9.99999e-01
1.168862078e+00,8.34961e-01,9.99999e-01,9.99999e-01,8.34961e-01,9.99999e-01
1.174706389e+00,8.37941e-01,9.99999e-01,9.99999e-01,8.37941e-01,9.99999e-01
1.180579921e+00,8.40873e-01,9.99999e-01,9.99999e-01,8.40873e-01,9.99999e-01
1.186482820e+00,8.43748e-01,9.99999e-01,9.99989e-01,8.43756e-01,9.99999e-01
1.192415234e+00,8.32322e-01,9.99999e-01,9.83143e-01,8.46592e-01,9.99999e-01
1.198377311e+00,4.71131e-01,9.99999e-01,5.54674e-01,8.49382e-01,9.99999e-01
1.204369197e+00,1.84648e-13,9.99999e-01,2.16691e-13,8.52125e-01,9.99999e-01
1.210391043e+00,2.06660e-50,9.99999e-01,2.41757e-50,8.54823e-01,9.99999e-01
1.216442998e+00,8.37054e-44,9.99999e-01,9.76183e-44,8.57475e-01,9.99999e-01
1.222525213e+00,3.63247e-43,9.99999e-01,4.22339e-43,8.60084e-01,9.99999e-01
1.228637839e+00,1.94876e-33,9.99999e-01,2.25904e-33,8.62648e-01,9.99999e-01
1.234781029e+00,2.05536e-21,9.99999e-01,2.37568e-21,8.65169e-01,9.99999e-01
1.240954934e+00,2.09140e-14,9.99999e-01,2.41042e-14,8.67648e-01,9.99999e-01
1.247159708e+00,9.57524e-08,9.99999e-01,1.10049e-07,8.70084e-01,9.99999e-01
1.253395507e+00,4.52160e-05,9.99999e-01,5.18246e-05,8.72479e-01,9.99999e-01
1.259662485e+00,3.03162e-03,9.99999e-01,3.46536e-03,8.74833e-01,9.99999e-01
1.265960797e+00,3.38592e-02,9.99999e-01,3.86014e-02,8.77147e-01,9.99999e-01
1.272290601e+00,2.16671e-01,9.99999e-01,2.46379e-01,8.79421e-01,9.99999e-01
1.278652054e+00,1.82865e-01,9.99999e-01,2.07411e-01,8.81656e-01,9.99999e-01
1.285045314e+00,2.44022e-03,9.99999e-01,2.76088e-03,8.83852e-01,9.99999e-01
1.291470541e+00,1.45971e-06,9.99999e-01,1.64750e-06,8.86010e-01,9.99999e-01
1.297927893e+00,3.83689e-03,9.99999e-01,4.32018e-03,8.88131e-01,9.99999e-01
1.304417533e+00,6.88996e-02,9.99999e-01,7.73965e-02,8.90215e-01,9.99999e-01
1.310939621e+00,1.11425e-02,9.99999e-01,1.24879e-02,8.92262e-01,9.99999e-01
1.317494319e+00,7.03731e-18,9.99999e-01,7.86930e-18,8.94273e-01,9.99999e-01
1.324081790e+00,4.10195e-12,9.99999e-01,4.57679e-12,8.96249e-01,9.99999e-01
1.330702199e+00,3.56496e-07,9.99999e-01,3.96904e-07,8.98190e-01,9.99999e-01
1.337355710e+00,6.55514e-07,9.99999e-01,7.28269e-07,9.00097e-01,9.99999e-01
1.344042489e+00,2.11008e-07,9.99999e-01,2.33940e-07,9.01971e-01,9.99999e-01
1.350762701e+00,2.13408e-07,9.99999e-01,2.36120e-07,9.03811e-01,9.99999e-01
1.357516515e+00,5.93609e-05,9.99999e-01,6.55474e-05,9.05618e-01,9.99999e-01
1.364304097e+00,1.50227e-03,9.99999e-01,1.65559e-03,9.07393e-01,9.99999e-01
1.371125618e+00,3.29818e-02,9.99999e-01,3.62782e-02,9.09136e-01,9.99999e-01
1.377981246e+00,5.78704e-02,9.99999e-01,6.35346e-02,9.10849e-01,9.99999e-01
1.384871152e+00,1.83641e-01,9.99999e-01,2.01243e-01,9.12530e-01,9.99999e-01
1.391795508e+00,2.07931e-01,9.99999e-01,2.27450e-01,9.14182e-01,9.99999e-01
1.398754485e+00,3.66112e-01,9.99999e-01,3.99771e-01,9.15803e-01,9.99999e-01
1.405748258e+00,4.67915e-01,9.99999e-01,5.10046e-01,9.17396e-01,9.99999e-01
1.412776999e+00,6.00373e-01,9.99999e-01,6.53318e-01,9.18959e-01,9.99999e-01
1.419840884e+00,5.35192e-01,9.99999e-01,5.81417e-01,9.20495e-01,9.99999e-01
1.426940089e+00,4.15837e-02,9.99999e-01,4.51015e-02,9.22002e-01,9.99999e-01
1.434074789e+00,0.00000e+00,9.99999e-01,0.00000e+00,9.23482e-01,9.99999e-01
1.441245163e+00,0.00000e+00,9.99999e-01,0.00000e+00,9.24935e-01,9.99999e-01
1.448451389e+00,0.00000e+00,9.99999e-01,0.00000e+00,9.26362e-01,9.99999e-01
1.455693646e+00,0.00000e+00,9.99999e-01,0.00000e+00,9.27763e-01,9.99999e-01
1.462972114e+00,1.01420e-197,9.99999e-01,1.09154e-197,9.29138e-01,9.99999e-01
1.470286975e+00,1.10967e-82,9.99999e-01,1.19256e-82,9.30488e-01,9.99999e-01
