#,Wave/freq,Total,N2,CO2,Rayleigh,CIA
4.000000000e-01,1.09413e-09,9.99999e-01,9.99999e-01,1.09413e-09,9.99999e-01
4.020000000e-01,1.64531e-09,9.99999e-01,9.99999e-01,1.64531e-09,9.99999e-01
4.040100000e-01,2.45329e-09,9.99999e-01,9.99999e-01,2.45329e-09,9.99999e-01
4.060300500e-01,3.62930e-09,9.99999e-01,9.99999e-01,3.62930e-09,9.99999e-01
4.080602003e-01,5.32768e-09,9.99999e-01,9.99999e-01,5.32768e-09,9.99999e-01
4.101005013e-01,7.76174e-09,9.99999e-01,9.99999e-01,7.76174e-09,9.99999e-01
4.121510038e-01,1.12241e-08,9.99999e-01,9.99999e-01,1.12241e-08,9.99999e-01
4.142117588e-01,1.61132e-08,9.99999e-01,9.99999e-01,1.61132e-08,9.99999e-01
4.162828176e-01,2.29673e-08,9.99999e-01,9.99999e-01,2.29673e-08,9.99999e-01
4.183642317e-01,3.25084e-08,9.99999e-01,9.99999e-01,3.25084e-08,9.99999e-01
4.204560528e-01,4.56986e-08,9.99999e-01,9.99999e-01,4.56986e-08,9.99999e-01
4.225583331e-01,6.38099e-08,9.99999e-01,9.99999e-01,6.38099e-08,9.99999e-01
4.246711247e-01,8.85134e-08,9.99999e-01,9.99999e-01,8.85134e-08,9.99999e-01
4.267944804e-01,1.21990e-07,9.99999e-01,9.99999e-01,1.21990e-07,9.99999e-01
4.289284528e-01,1.67065e-07,9.99999e-01,9.99999e-01,1.67065e-07,9.99999e-01
4.310730950e-01,2.27379e-07,9.99999e-01,9.99999e-01,2.27379e-07,9.99999e-01
4.332284605e-01,3.07589e-07,9.99999e-01,9.99999e-01,3.07589e-07,9.99999e-01
4.353946028e-01,4.13618e-07,9.99999e-01,9.99999e-01,4.13618e-07,9.99999e-01
4.375715758e-01,5.52952e-07,9.99999e-01,9.99999e-01,5.52952e-07,9.99999e-01
4.397594337e-01,7.34996e-07,9.99999e-01,9.99999e-01,7.34996e-07,9.99999e-01
4.419582309e-01,9.71496e-07,9.99999e-01,9.99999e-01,9.71496e-07,9.99999e-01
4.441680220e-01,1.27704e-06,9.99999e-01,9.99999e-01,1.27704e-06,9.99999e-01
4.463888621e-01,1.66963e-06,9.99999e-01,9.99999e-01,1.66963e-06,9.99999e-01
4.486208064e-01,2.17139e-06,9.99999e-01,9.99999e-01,2.17139e-06,9.99999e-01
4.508639105e-01,2.80933e-06,9.99999e-01,9.99999e-01,2.80933e-06,9.99999e-01
4.531182300e-01,3.61623e-06,9.99999e-01,9.99999e-01,3.61623e-06,9.99999e-01
4.553838212e-01,4.63174e-06,9.99999e-01,9.99999e-01,4.63174e-06,9.99999e-01
4.576607403e-01,5.90349e-06,9.99999e-01,9.99999e-01,5.90349e-06,9.99999e-01
4.599490440e-01,7.48845e-06,9.99999e-01,9.99999e-01,7.48845e-06,9.99999e-01
4.622487892e-01,9.45444e-06,9.99999e-01,9.99999e-01,9.45444e-06,9.99999e-01
4.645600332e-01,1.18817e-05,9.99999e-01,9.99999e-01,1.18817e-05,9.99999e-01
4.668828333e-01,1.48649e-05,9.99999e-01,9.99999e-01,1.48649e-05,9.99999e-01
4.692172475e-01,1.85150e-05,9.99999e-01,9.99999e-01,1.85150e-05,9.99999e-01
4.715633337e-01,2.29616e-05,9.99999e-01,9.99999e-01,2.29616e-05,9.99999e-01
4.739211504e-01,2.83553e-05,9.99999e-01,9.99999e-01,2.83553e-05,9.99999e-01
4.762907561e-01,3.48703e-05,9.99999e-01,9.99999e-01,3.48703e-05,9.99999e-01
4.786722099e-01,4.27074e-05,9.99999e-01,9.99999e-01,4.27074e-05,9.99999e-01
4.810655710e-01,5.20969e-05,9.99999e-01,9.99999e-01,5.20969e-05,9.99999e-01
4.834708988e-01,6.33017e-05,9.99999e-01,9.99999e-01,6.33017e-05,9.99999e-01
4.858882533e-01,7.66210e-05,9.99999e-01,9.99999e-01,7.66210e-05,9.99999e-01
4.883176946e-01,9.23937e-05,9.99999e-01,9.99999e-01,9.23937e-05,9.99999e-01
4.907592831e-01,1.11002e-04,9.99999e-01,9.99999e-01,1.11002e-04,9.99999e-01
4.932130795e-01,1.32876e-04,9.99999e-01,9.99999e-01,1.32876e-04,9.99999e-01
4.956791449e-01,1.58495e-04,9.99999e-01,9.99999e-01,1.58495e-04,9.99999e-01
4.981575406e-01,1.88398e-04,9.99999e-01,9.99999e-01,1.88398e-04,9.99999e-01
5.006483283e-01,2.23178e-04,9.99999e-01,9.99999e-01,2.23178e-04,9.99999e-01
5.031515699e-01,2.63497e-04,9.99999e-01,9.99999e-01,2.63497e-04,9.99999e-01
5.056673278e-01,3.10080e-04,9.99999e-01,9.99999e-01,3.10080e-04,9.99999e-01
5.081956644e-01,3.63727e-04,9.99999e-01,9.99999e-01,3.63727e-04,9.99999e-01
5.107366428e-01,4.25314e-04,9.99999e-01,9.99999e-01,4.25314e-04,9.99999e-01
5.132903260e-01,4.95793e-04,9.99999e-01,9.99999e-01,4.95793e-04,9.99999e-01
5.158567776e-01,5.76204e-04,9.99999e-01,9.99999e-01,5.76204e-04,9.99999e-01
5.184360615e-01,6.67672e-04,9.99999e-01,9.99999e-01,6.67672e-04,9.99999e-01
5.210282418e-01,7.71411e-04,9.99999e-01,9.99999e-01,7.71411e-04,9.99999e-01
5.236333830e-01,8.88730e-04,9.99999e-01,9.99999e-01,8.88730e-04,9.99999e-01
5.262515499e-01,1.02103e-03,9.99999e-01,9.99999e-01,1.02103e-03,9.99999e-01
5.288828077e-01,1.16982e-03,9.99999e-01,9.99999e-01,1.16982e-03,9.99999e-01
5.315272217e-01,1.33669e-03,9.99999e-01,9.99999e-01,1.33669e-03,9.99999e-01
5.341848578e-01,1.52334e-03,9.99999e-01,9.99999e-01,1.52334e-03,9.99999e-01
5.368557821e-01,1.73159e-03,9.99999e-01,9.99999e-01,1.73159e-03,9.99999e-01
5.395400610e-01,1.96333e-03,9.99999e-01,9.99999e-01,1.96333e-03,9.99999e-01
5.422377613e-01,2.22056e-03,9.99999e-01,9.99999e-01,2.22056e-03,9.99999e-01
5.449489501e-01,2.50540e-03,9.99999e-01,9.99999e-01,2.50540e-03,9.99999e-01
5.476736949e-01,2.82004e-03,9.99999e-01,9.99999e-01,2.82004e-03,9.99999e-01
5.504120634e-01,3.16679e-03,9.99999e-01,9.99999e-01,3.16679e-03,9.99999e-01
5.531641237e-01,3.54803e-03,9.99999e-01,9.99999e-01,3.54803e-03,9.99999e-01
5.559299443e-01,3.96626e-03,9.99999e-01,9.99999e-01,3.96626e-03,9.99999e-01
5.587095940e-01,4.42404e-03,9.99999e-01,9.99999e-01,4.42404e-03,9.99999e-01
5.615031420e-01,4.92403e-03,9.99999e-01,9.99999e-01,4.92403e-03,9.99999e-01
5.643106577e-01,5.46893e-03,9.99999e-01,9.99999e-01,5.46893e-03,9.99999e-01
5.671322110e-01,6.06156e-03,9.99999e-01,9.99999e-01,6.06156e-03,9.99999e-01
5.699678720e-01,6.70477e-03,9.99999e-01,9.99999e-01,6.70477e-03,9.99999e-01
5.728177114e-01,7.40148e-03,9.99999e-01,9.99999e-01,7.40148e-03,9.99999e-01
5.756818000e-01,8.15464e-03,9.99999e-01,9.99999e-01,8.15464e-03,9.99999e-01
5.785602090e-01,8.96726e-03,9.99999e-01,9.99999e-01,8.96726e-03,9.99999e-01
5.814530100e-01,9.84237e-03,9.99999e-01,9.99999e-01,9.84237e-03,9.99999e-01
5.843602750e-01,1.07830e-02,9.99999e-01,9.99999e-01,1.07830e-02,9.99999e-01
5.872820764e-01,1.17923e-02,9.99999e-01,9.99999e-01,1.17923e-02,9.99999e-01
5.902184868e-01,1.28733e-02,9.99999e-01,9.99999e-01,1.28733e-02,9.99999e-01
5.931695792e-01,1.40290e-02,9.99999e-01,9.99999e-01,1.40290e-02,9.99999e-01
5.961354271e-01,1.52626e-02,9.99999e-01,9.99999e-01,1.52626e-02,9.99999e-01
5.991161043e-01,1.65770e-02,9.99999e-01,9.99999e-01,1.65770e-02,9.99999e-01
6.021116848e-01,1.79753e-02,9.99999e-01,9.99999e-01,1.79753e-02,9.99999e-01
6.051222432e-01,1.94603e-02,9.99999e-01,9.99999e-01,1.94603e-02,9.99999e-01
6.081478544e-01,2.10351e-02,9.99999e-01,9.99999e-01,2.10351e-02,9.99999e-01
6.111885937e-01,2.27023e-02,9.99999e-01,9.99999e-01,2.27023e-02,9.99999e-01
6.142445367e-01,2.44648e-02,9.99999e-01,9.99999e-01,2.44648e-02,9.99999e-01
6.173157594e-01,2.63252e-02,9.99999e-01,9.99999e-01,2.63252e-02,9.99999e-01
6.204023382e-01,2.82861e-02,9.99999e-01,9.99999e-01,2.82861e-02,9.99999e-01
6.235043498e-01,3.03500e-02,9.99999e-01,9.99999e-01,3.03500e-02,9.99999e-01
6.266218716e-01,3.25192e-02,9.99999e-01,9.99999e-01,3.25192e-02,9.99999e-01
6.297549810e-01,3.47959e-02,9.99999e-01,9.99999e-01,3.47959e-02,9.99999e-01
6.329037559e-01,3.71824e-02,9.99999e-01,9.99999e-01,3.71824e-02,9.99999e-01
6.360682746e-01,3.96804e-02,9.99999e-01,9.99999e-01,3.96804e-02,9.99999e-01
6.392486160e-01,4.22920e-02,9.99999e-01,9.99999e-01,4.22920e-02,9.99999e-01
6.424448591e-01,4.50187e-02,9.99999e-01,9.99999e-01,4.50187e-02,9.99999e-01
6.456570834e-01,4.78621e-02,9.99999e-01,9.99999e-01,4.78621e-02,9.99999e-01
6.488853688e-01,5.08236e-02,9.99999e-01,9.99999e-01,5.08236e-02,9.99999e-01
6.521297956e-01,5.39043e-02,9.99999e-01,9.99999e-01,5.39043e-02,9.99999e-01
6.553904446e-01,5.71054e-02,9.99999e-01,9.99999e-01,5.71054e-02,9.99999e-01
6.586673968e-01,6.04277e-02,9.99999e-01,9.99999e-01,6.04277e-02,9.99999e-01
6.619607338e-01,6.38718e-02,9.99999e-01,9.99999e-01,6.38718e-02,9.99999e-01
6.652705375e-01,6.74384e-02,9.99999e-01,9.99999e-01,6.74384e-02,9.99999e-01
6.685968902e-01,7.11278e-02,9.99999e-01,9.99999e-01,7.11278e-02,9.99999e-01
6.719398746e-01,7.49401e-02,9.99999e-01,9.99999e-01,7.49401e-02,9.99999e-01
6.752995740e-01,7.88754e-02,9.99999e-01,9.99999e-01,7.88754e-02,9.99999e-01
6.786760719e-01,8.29335e-02,9.99999e-01,9.99999e-01,8.29335e-02,9.99999e-01
6.820694522e-01,8.71139e-02,9.99999e-01,9.99999e-01,8.71139e-02,9.99999e-01
6.854797995e-01,9.14163e-02,9.99999e-01,9.99999e-01,9.14163e-02,9.99999e-01
6.889071985e-01,9.58398e-02,9.99999e-01,9.99999e-01,9.58398e-02,9.99999e-01
6.923517345e-01,1.00384e-01,9.99999e-01,9.99999e-01,1.00384e-01,9.99999e-01
6.958134932e-01,1.05047e-01,9.99999e-01,9.99999e-01,1.05047e-01,9.99999e-01
6.992925606e-01,1.09828e-01,9.99999e-01,9.99999e-01,1.09828e-01,9.99999e-01
7.027890234e-01,1.14726e-01,9.99999e-01,9.99999e-01,1.14726e-01,9.99999e-01
7.063029686e-01,1.19739e-01,9.99999e-01,9.99999e-01,1.19739e-01,9.99999e-01
7.098344834e-01,1.24865e-01,9.99999e-01,9.99999e-01,1.24865e-01,9.99999e-01
7.133836558e-01,1.30104e-01,9.99999e-01,9.99999e-01,1.30104e-01,9.99999e-01
7.169505741e-01,1.35452e-01,9.99999e-01,9.99999e-01,1.35452e-01,9.99999e-01
7.205353270e-01,1.40907e-01,9.99999e-01,9.99999e-01,1.40907e-01,9.99999e-01
7.241380036e-01,1.46469e-01,9.99999e-01,9.99999e-01,1.46469e-01,9.99999e-01
7.277586936e-01,1.52133e-01,9.99999e-01,9.99999e-01,1.52133e-01,9.99999e-01
7.313974871e-01,1.57898e-01,9.99999e-01,9.99999e-01,1.57898e-01,9.99999e-01
7.350544745e-01,1.63761e-01,9.99999e-01,9.99999e-01,1.63761e-01,9.99999e-01
7.387297469e-01,1.69719e-01,9.99999e-01,9.99999e-01,1.69719e-01,9.99999e-01
7.424233956e-01,1.75771e-01,9.99999e-01,9.99999e-01,1.75771e-01,9.99999e-01
7.461355126e-01,1.81912e-01,9.99999e-01,9.99999e-01,1.81912e-01,9.99999e-01
7.498661902e-01,1.88140e-01,9.99999e-01,9.99999e-01,1.88140e-01,9.99999e-01
7.536155211e-01,1.94451e-01,9.99999e-01,9.99999e-01,1.94451e-01,9.99999e-01
7.573835987e-01,2.00844e-01,9.99999e-01,9.99999e-01,2.00844e-01,9.99999e-01
7.611705167e-01,2.07314e-01,9.99999e-01,9.99999e-01,2.07314e-01,9.99999e-01
7.649763693e-01,2.13859e-01,9.99999e-01,9.99999e-01,2.13859e-01,9.99999e-01
7.688012511e-01,2.20475e-01,9.99999e-01,9.99999e-01,2.20475e-01,9.99999e-01
7.726452574e-01,2.27159e-01,9.99999e-01,9.99999e-01,2.27159e-01,9.99999e-01
7.765084837e-01,2.33907e-01,9.99999e-01,9.99999e-01,2.33907e-01,9.99999e-01
7.803910261e-01,2.25665e-01,9.99999e-01,9.37469e-01,2.40717e-01,9.99999e-01
7.842929812e-01,1.85966e-01,9.99999e-01,7.51123e-01,2.47584e-01,9.99999e-01
7.882144461e-01,1.87301e-01,9.99999e-01,7.35939e-01,2.54506e-01,9.99999e-01
7.921555184e-01,2.17624e-01,9.99999e-01,8.32280e-01,2.61479e-01,9.99999e-01
7.961162960e-01,2.37529e-01,9.99999e-01,8.84653e-01,2.68500e-01,9.99999e-01
8.000968774e-01,2.57807e-01,9.99999e-01,9.35555e-01,2.75565e-01,9.99999e-01
8.040973618e-01,2.73116e-01,9.99999e-01,9.66197e-01,2.82671e-01,9.99999e-01
8.081178486e-01,2.85255e-01,9.99999e-01,9.84268e-01,2.89814e-01,9.99999e-01
8.121584379e-01,2.95557e-01,9.99999e-01,9.95168e-01,2.96991e-01,9.99999e-01
8.162192301e-01,3.03874e-01,9.99999e-01,9.98930e-01,3.04200e-01,9.99999e-01
8.203003262e-01,3.11431e-01,9.99999e-01,9.99985e-01,3.11435e-01,9.99999e-01
8.244018279e-01,3.18695e-01,9.99999e-01,9.99999e-01,3.18695e-01,9.99999e-01
8.285238370e-01,3.25975e-01,9.99999e-01,9.99999e-01,3.25975e-01,9.99999e-01
8.326664562e-01,3.33273e-01,9.99999e-01,9.99999e-01,3.33273e-01,9.99999e-01
8.368297885e-01,3.40585e-01,9.99999e-01,9.99999e-01,3.40585e-01,9.99999e-01
8.410139374e-01,3.47909e-01,9.99999e-01,9.99999e-01,3.47909e-01,9.99999e-01
8.452190071e-01,3.55241e-01,9.99999e-01,9.99999e-01,3.55241e-01,9.99999e-01
8.494451021e-01,3.62578e-01,9.99999e-01,9.99999e-01,3.62578e-01,9.99999e-01
8.536923276e-01,3.69917e-01,9.99999e-01,9.99999e-01,3.69917e-01,9.99999e-01
8.579607893e-01,3.77255e-01,9.99999e-01,9.99999e-01,3.77255e-01,9.99999e-01
8.622505932e-01,3.84590e-01,9.99999e-01,9.99999e-01,3.84590e-01,9.99999e-01
8.665618462e-01,3.48566e-01,9.99999e-01,8.89384e-01,3.91918e-01,9.99999e-01
8.708946554e-01,1.94647e-01,9.99999e-01,4.87547e-01,3.99237e-01,9.99999e-01
8.752491287e-01,2.26243e-01,9.99999e-01,5.56503e-01,4.06543e-01,9.99999e-01
8.796253743e-01,2.98714e-01,9.99999e-01,7.21817e-01,4.13836e-01,9.99999e-01
8.840235012e-01,3.55091e-01,9.99999e-01,8.43223e-01,4.21111e-01,9.99999e-01
8.884436187e-01,4.00562e-01,9.99999e-01,9.35091e-01,4.28367e-01,9.99999e-01
8.928858368e-01,4.23883e-01,9.99999e-01,9.73100e-01,4.35600e-01,9.99999e-01
8.973502660e-01,4.39904e-01,9.99999e-01,9.93438e-01,4.42810e-01,9.99999e-01
9.018370173e-01,4.49667e-01,9.99999e-01,9.99277e-01,4.49992e-01,9.99999e-01
9.063462024e-01,4.48488e-01,9.99999e-01,9.81059e-01,4.57146e-01,9.99999e-01
9.108779334e-01,4.44677e-01,9.99999e-01,9.57799e-01,4.64269e-01,9.99999e-01
9.154323231e-01,4.66667e-01,9.99999e-01,9.90044e-01,4.71359e-01,9.99999e-01
9.200094847e-01,4.15512e-01,9.99999e-01,8.68518e-01,4.78414e-01,9.99999e-01
9.246095321e-01,3.93204e-01,9.99999e-01,8.10006e-01,4.85433e-01,9.99999e-01
9.292325798e-01,4.17304e-01,9.99999e-01,8.47469e-01,4.92412e-01,9.99999e-01
9.338787427e-01,4.25843e-01,9.99999e-01,8.52793e-01,4.99351e-01,9.99999e-01
9.385481364e-01,4.50119e-01,9.99999e-01,8.89127e-01,5.06248e-01,9.99999e-01
9.432408771e-01,4.77493e-01,9.99999e-01,9.30602e-01,5.13101e-01,9.99999e-01
9.479570815e-01,5.01028e-01,9.99999e-01,9.63684e-01,5.19908e-01,9.99999e-01
9.526968669e-01,5.17385e-01,9.99999e-01,9.82371e-01,5.26669e-01,9.99999e-01
9.574603512e-01,5.29344e-01,9.99999e-01,9.92428e-01,5.33382e-01,9.99999e-01
9.622476530e-01,5.38768e-01,9.99999e-01,9.97635e-01,5.40045e-01,9.99999e-01
9.670588912e-01,5.46271e-01,9.99999e-01,9.99292e-01,5.46657e-01,9.99999e-01
9.718941857e-01,5.53191e-01,9.99999e-01,9.99950e-01,5.53217e-01,9.99999e-01
9.767536566e-01,5.59725e-01,9.99999e-01,9.99999e-01,5.59725e-01,9.99999e-01
9.816374249e-01,5.66177e-01,9.99999e-01,9.99999e-01,5.66177e-01,9.99999e-01
9.865456120e-01,5.72575e-01,9.99999e-01,9.99999e-01,5.72575e-01,9.99999e-01
9.914783401e-01,5.78916e-01,9.99999e-01,9.99999e-01,5.78916e-01,9.99999e-01
9.964357318e-01,5.85200e-01,9.99999e-01,9.99999e-01,5.85200e-01,9.99999e-01
1.001417910e+00,5.91427e-01,9.99999e-01,9.99999e-01,5.91427e-01,9.99999e-01
1.006425000e+00,5.97594e-01,9.99999e-01,9.99999e-01,5.97594e-01,9.99999e-01
1.011457125e+00,6.03702e-01,9.99999e-01,9.99999e-01,6.03702e-01,9.99999e-01
1.016514411e+00,6.09751e-01,9.99999e-01,9.99999e-01,6.09751e-01,9.99999e-01
1.021596983e+00,6.15667e-01,9.99999e-01,9.99883e-01,6.15738e-01,9.99999e-01
1.026704968e+00,6.17001e-01,9.99999e-01,9.92498e-01,6.21664e-01,9.99999e-01
1.031838492e+00,5.81119e-01,9.99999e-01,9.26042e-01,6.27529e-01,9.99999e-01
1.036997685e+00,5.08965e-02,9.99999e-01,8.03631e-02,6.33331e-01,9.99999e-01
1.042182673e+00,1.36847e-02,9.99999e-01,2.14135e-02,6.39071e-01,9.99999e-01
1.047393587e+00,2.44129e-02,9.99999e-01,3.78642e-02,6.44748e-01,9.99999e-01
1.052630555e+00,4.86452e-05,9.99999e-01,7.47971e-05,6.50362e-01,9.99999e-01
1.057893707e+00,1.72394e-04,9.99999e-01,2.62830e-04,6.55912e-01,9.99999e-01
1.063183176e+00,1.41823e-03,9.99999e-01,2.14429e-03,6.61399e-01,9.99999e-01
1.068499092e+00,7.57420e-03,9.99999e-01,1.13586e-02,6.66822e-01,9.99999e-01
1.073841587e+00,3.89895e-02,9.99999e-01,5.80044e-02,6.72181e-01,9.99999e-01
1.079210795e+00,1.12060e-01,9.99999e-01,1.65407e-01,6.77475e-01,9.99999e-01
1.084606849e+00,2.50162e-01,9.99999e-01,3.66427e-01,6.82706e-01,9.99999e-01
1.090029883e+00,4.07252e-01,9.99999e-01,5.92045e-01,6.87873e-01,9.99999e-01
1.095480033e+00,5.35202e-01,9.99999e-01,7.72324e-01,6.92975e-01,9.99999e-01
1.100957433e+00,6.16097e-01,9.99999e-01,8.82642e-01,6.98014e-01,9.99999e-01
1.106462220e+00,6.67652e-01,9.99999e-01,9.49734e-01,7.02988e-01,9.99999e-01
1.111994531e+00,6.94488e-01,9.99999e-01,9.81054e-01,7.07899e-01,9.99999e-01
1.117554504e+00,7.09445e-01,9.99999e-01,9.95367e-01,7.12746e-01,9.99999e-01
1.123142276e+00,7.17312e-01,9.99999e-01,9.99697e-01,7.17529e-01,9.99999e-01
1.128757988e+00,7.22249e-01,9.99999e-01,9.99999e-01,7.22249e-01,9.99999e-01
1.134401778e+00,7.26906e-01,9.99999e-01,9.99999e-01,7.26906e-01,9.99999e-01
1.140073787e+00,7.31500e-01,9.99999e-01,9.99999e-01,7.31500e-01,9.99999e-01
1.145774156e+00,7.36032e-01,9.99999e-01,9.99999e-01,7.36032e-01,9.99999e-01
1.151503026e+00,7.40501e-01,9.99999e-01,9.99999e-01,7.40501e-01,9.99999e-01
1.157260541e+00,7.44908e-01,9.99999e-01,9.99999e-01,7.44908e-01,9.99999e-01
1.163046844e+00,7.49254e-01,9.99999e-01,9.99999e-01,7.49254e-01,9.99999e-01
1.168862078e+00,7.53538e-01,9.99999e-01,9.99999e-01,7.53538e-01,9.99999e-01
1.174706389e+00,7.57762e-01,9.99999e-01,9.99999e-01,7.57762e-01,9.99999e-01
1.180579921e+00,7.61925e-01,9.99999e-01,9.99999e-01,7.61925e-01,9.99999e-01
1.186482820e+00,7.66015e-01,9.99999e-01,9.99981e-01,7.66028e-01,9.99999e-01
1.192415234e+00,7.49857e-01,9.99999e-01,9.73748e-01,7.70072e-01,9.99999e-01
1.198377311e+00,4.16938e-01,9.99999e-01,5.38640e-01,7.74056e-01,9.99999e-01
1.204369197e+00,7.74058e-20,9.99999e-01,9.94955e-20,7.77982e-01,9.99999e-01
1.210391043e+00,8.23333e-78,9.99999e-01,1.05306e-77,7.81850e-01,9.99999e-01
1.216442998e+00,1.91582e-67,9.99999e-01,2.43848e-67,7.85659e-01,9.99999e-01
1.222525213e+00,1.91542e-66,9.99999e-01,2.42639e-66,7.89412e-01,9.99999e-01
1.228637839e+00,2.19875e-51,9.99999e-01,2.77232e-51,7.93108e-01,9.99999e-01
1.234781029e+00,2.57230e-32,9.99999e-01,3.22850e-32,7.96747e-01,9.99999e-01
1.240954934e+00,1.39394e-21,9.99999e-01,1.74170e-21,8.00331e-01,9.99999e-01
1.247159708e+00,6.88103e-11,9.99999e-01,8.55998e-11,8.03860e-01,9.99999e-01
1.253395507e+00,2.65925e-07,9.99999e-01,3.29386e-07,8.07334e-01,9.99999e-01
1.259662485e+00,1.59294e-04,9.99999e-01,1.96477e-04,8.10754e-01,9.99999e-01
1.265960797e+00,6.65494e-03,9.99999e-01,8.17438e-03,8.14121e-01,9.99999e-01
1.272290601e+00,9.47460e-02,9.99999e-01,1.15906e-01,8.17435e-01,9.99999e-01
1.278652054e+00,8.03899e-02,9.99999e-01,9.79533e-02,8.20696e-01,9.99999e-01
1.285045314e+00,3.85514e-04,9.99999e-01,4.67911e-04,8.23905e-01,9.99999e-01
1.291470541e+00,1.30795e-09,9.99999e-01,1.58143e-09,8.27064e-01,9.99999e-01
1.297927893e+00,5.02409e-04,9.99999e-01,6.05186e-04,8.30172e-01,9.99999e-01
1.304417533e+00,1.59118e-02,9.99999e-01,1.90965e-02,8.33229e-01,9.99999e-01
1.310939621e+00,2.63332e-03,9.99999e-01,3.14900e-03,8.36237e-01,9.99999e-01
1.317494319e+00,3.22553e-27,9.99999e-01,3.84359e-27,8.39197e-01,9.99999e-01
1.324081790e+00,4.85309e-13,9.99999e-01,5.76302e-13,8.42108e-01,9.99999e-01
1.330702199e+00,1.18663e-10,9.99999e-01,1.40435e-10,8.44971e-01,9.99999e-01
1.337355710e+00,5.76967e-10,9.99999e-01,6.80556e-10,8.47787e-01,9.99999e-01
1.344042489e+00,2.33618e-10,9.99999e-01,2.74665e-10,8.50557e-01,9.99999e-01
1.350762701e+00,6.58094e-11,9.99999e-01,7.71251e-11,8.53281e-01,9.99999e-01
1.357516515e+00,5.59201e-07,9.99999e-01,6.53303e-07,8.55959e-01,9.99999e-01
1.364304097e+00,4.59570e-05,9.99999e-01,5.35259e-05,8.58593e-01,9.99999e-01
1.371125618e+00,5.57975e-03,9.99999e-01,6.47917e-03,8.61182e-01,9.99999e-01
1.377981246e+00,1.19175e-02,9.99999e-01,1.37977e-02,8.63728e-01,9.99999e-01
1.384871152e+00,7.15206e-02,9.99999e-01,8.25652e-02,8.66231e-01,9.99999e-01
1.391795508e+00,8.70720e-02,9.99999e-01,1.00233e-01,8.68692e-01,9.99999e-01
1.398754485e+00,2.07412e-01,9.99999e-01,2.38100e-01,8.71110e-01,9.99999e-01
1.405748258e+00,3.05965e-01,9.99999e-01,3.50280e-01,8.73488e-01,9.99999e-01
1.412776999e+00,4.50369e-01,9.99999e-01,5.14222e-01,8.75825e-01,9.99999e-01
1.419840884e+00,4.02571e-01,9.99999e-01,4.58445e-01,8.78121e-01,9.99999e-01
1.426940089e+00,2.12859e-02,9.99999e-01,2.41781e-02,8.80379e-01,9.99999e-01
1.434074789e+00,0.00000e+00,9.99999e-01,0.00000e+00,8.82597e-01,9.99999e-01
1.441245163e+00,0.00000e+00,9.99999e-01,0.00000e+00,8.84777e-01,9.99999e-01
1.448451389e+00,0.00000e+00,9.99999e-01,0.00000e+00,8.86919e-01,9.99999e-01
1.455693646e+00,0.00000e+00,9.99999e-01,0.00000e+00,8.89024e-01,9.99999e-01
1.462972114e+00,6.41598e-309,9.99999e-01,7.20013e-309,8.91092e-01,9.99999e-01
1.470286975e+00,1.94777e-128,9.99999e-01,2.18085e-128,8.93123e-01,9.99999e-01
