#,Wave/freq,Total,N2,CO2,Rayleigh,CIA
4.000000000e-01,2.63894e-09,9.99999e-01,9.99999e-01,2.63894e-09,9.99999e-01
4.020000000e-01,3.89989e-09,9.99999e-01,9.99999e-01,3.89989e-09,9.99999e-01
4.040100000e-01,5.71676e-09,9.99999e-01,9.99999e-01,5.71676e-09,9.99999e-01
4.060300500e-01,8.31700e-09,9.99999e-01,9.99999e-01,8.31700e-09,9.99999e-01
4.080602003e-01,1.20107e-08,9.99999e-01,9.99999e-01,1.20107e-08,9.99999e-01
4.101005013e-01,1.72193e-08,9.99999e-01,9.99999e-01,1.72193e-08,9.99999e-01
4.121510038e-01,2.45117e-08,9.99999e-01,9.99999e-01,2.45117e-08,9.99999e-01
4.142117588e-01,3.46499e-08,9.99999e-01,9.99999e-01,3.46499e-08,9.99999e-01
4.162828176e-01,4.86476e-08,9.99999e-01,9.99999e-01,4.86476e-08,9.99999e-01
4.183642317e-01,6.78438e-08,9.99999e-01,9.99999e-01,6.78438e-08,9.99999e-01
4.204560528e-01,9.39952e-08,9.99999e-01,9.99999e-01,9.39952e-08,9.99999e-01
4.225583331e-01,1.29391e-07,9.99999e-01,9.99999e-01,1.29391e-07,9.99999e-01
4.246711247e-01,1.76995e-07,9.99999e-01,9.99999e-01,1.76995e-07,9.99999e-01
4.267944804e-01,2.40619e-07,9.99999e-01,9.99999e-01,2.40619e-07,9.99999e-01
4.289284528e-01,3.25136e-07,9.99999e-01,9.99999e-01,3.25136e-07,9.99999e-01
4.310730950e-01,4.36735e-07,9.99999e-01,9.99999e-01,4.36735e-07,9.99999e-01
4.332284605e-01,5.83230e-07,9.99999e-01,9.99999e-01,5.83230e-07,9.99999e-01
4.353946028e-01,7.74426e-07,9.99999e-01,9.99999e-01,7.74426e-07,9.99999e-01
4.375715758e-01,1.02256e-06,9.99999e-01,9.99999e-01,1.02256e-06,9.99999e-01
4.397594337e-01,1.34280e-06,9.99999e-01,9.99999e-01,1.34280e-06,9.99999e-01
4.419582309e-01,1.75387e-06,9.99999e-01,9.99999e-01,1.75387e-06,9.99999e-01
4.441680220e-01,2.27873e-06,9.99999e-01,9.99999e-01,2.27873e-06,9.99999e-01
4.463888621e-01,2.94539e-06,9.99999e-01,9.99999e-01,2.94539e-06,9.99999e-01
4.486208064e-01,3.78783e-06,9.99999e-01,9.99999e-01,3.78783e-06,9.99999e-01
4.508639105e-01,4.84709e-06,9.99999e-01,9.99999e-01,4.84709e-06,9.99999e-01
4.531182300e-01,6.17242e-06,9.99999e-01,9.99999e-01,6.17242e-06,9.99999e-01
4.553838212e-01,7.82271e-06,9.99999e-01,9.99999e-01,7.82271e-06,9.99999e-01
4.576607403e-01,9.86793e-06,9.99999e-01,9.99999e-01,9.86793e-06,9.99999e-01
4.599490440e-01,1.23909e-05,9.99999e-01,9.99999e-01,1.23909e-05,9.99999e-01
4.622487892e-01,1.54891e-05,9.99999e-01,9.99999e-01,1.54891e-05,9.99999e-01
4.645600332e-01,1.92768e-05,9.99999e-01,9.99999e-01,1.92768e-05,9.99999e-01
4.668828333e-01,2.38873e-05,9.99999e-01,9.99999e-01,2.38873e-05,9.99999e-01
4.692172475e-01,2.94754e-05,9.99999e-01,9.99999e-01,2.94754e-05,9.99999e-01
4.715633337e-01,3.62200e-05,9.99999e-01,9.99999e-01,3.62200e-05,9.99999e-01
4.739211504e-01,4.43272e-05,9.99999e-01,9.99999e-01,4.43272e-05,9.99999e-01
4.762907561e-01,5.40331e-05,9.99999e-01,9.99999e-01,5.40331e-05,9.99999e-01
4.786722099e-01,6.56070e-05,9.99999e-01,9.99999e-01,6.56070e-05,9.99999e-01
4.810655710e-01,7.93553e-05,9.99999e-01,9.99999e-01,7.93553e-05,9.99999e-01
4.834708988e-01,9.56245e-05,9.99999e-01,9.99999e-01,9.56245e-05,9.99999e-01
4.858882533e-01,1.14806e-04,9.99999e-01,9.99999e-01,1.14806e-04,9.99999e-01
4.883176946e-01,1.37337e-04,9.99999e-01,9.99999e-01,1.37337e-04,9.99999e-01
4.907592831e-01,1.63711e-04,9.99999e-01,9.99999e-01,1.63711e-04,9.99999e-01
4.932130795e-01,1.94472e-04,9.99999e-01,9.99999e-01,1.94472e-04,9.99999e-01
4.956791449e-01,2.30230e-04,9.99999e-01,9.99999e-01,2.30230e-04,9.99999e-01
4.981575406e-01,2.71656e-04,9.99999e-01,9.99999e-01,2.71656e-04,9.99999e-01
5.006483283e-01,3.19489e-04,9.99999e-01,9.99999e-01,3.19489e-04,9.99999e-01
5.031515699e-01,3.74543e-04,9.99999e-01,9.99999e-01,3.74543e-04,9.99999e-01
5.056673278e-01,4.37707e-04,9.99999e-01,9.99999e-01,4.37707e-04,9.99999e-01
5.081956644e-01,5.09951e-04,9.99999e-01,9.99999e-01,5.09951e-04,9.99999e-01
5.107366428e-01,5.92328e-04,9.99999e-01,9.99999e-01,5.92328e-04,9.99999e-01
5.132903260e-01,6.85982e-04,9.99999e-01,9.99999e-01,6.85982e-04,9.99999e-01
5.158567776e-01,7.92142e-04,9.99999e-01,9.99999e-01,7.92142e-04,9.99999e-01
5.184360615e-01,9.12136e-04,9.99999e-01,9.99999e-01,9.12136e-04,9.99999e-01
5.210282418e-01,1.04738e-03,9.99999e-01,9.99999e-01,1.04738e-03,9.99999e-01
5.236333830e-01,1.19941e-03,9.99999e-01,9.99999e-01,1.19941e-03,9.99999e-01
5.262515499e-01,1.36982e-03,9.99999e-01,9.99999e-01,1.36982e-03,9.99999e-01
5.288828077e-01,1.56035e-03,9.99999e-01,9.99999e-01,1.56035e-03,9.99999e-01
5.315272217e-01,1.77281e-03,9.99999e-01,9.99999e-01,1.77281e-03,9.99999e-01
5.341848578e-01,2.00913e-03,9.99999e-01,9.99999e-01,2.00913e-03,9.99999e-01
5.368557821e-01,2.27133e-03,9.99999e-01,9.99999e-01,2.27133e-03,9.99999e-01
5.395400610e-01,2.56154e-03,9.99999e-01,9.99999e-01,2.56154e-03,9.99999e-01
5.422377613e-01,2.88197e-03,9.99999e-01,9.99999e-01,2.88197e-03,9.99999e-01
5.449489501e-01,3.23494e-03,9.99999e-01,9.99999e-01,3.23494e-03,9.99999e-01
5.476736949e-01,3.62287e-03,9.99999e-01,9.99999e-01,3.62287e-03,9.99999e-01
5.504120634e-01,4.04825e-03,9.99999e-01,9.99999e-01,4.04825e-03,9.99999e-01
5.531641237e-01,4.51367e-03,9.99999e-01,9.99999e-01,4.51367e-03,9.99999e-01
5.559299443e-01,5.02179e-03,9.99999e-01,9.99999e-01,5.02179e-03,9.99999e-01
5.587095940e-01,5.57535e-03,9.99999e-01,9.99999e-01,5.57535e-03,9.99999e-01
5.615031420e-01,6.17716e-03,9.99999e-01,9.99999e-01,6.17716e-03,9.99999e-01
5.643106577e-01,6.83009e-03,9.99999e-01,9.99999e-01,6.83009e-03,9.99999e-01
5.671322110e-01,7.53706e-03,9.99999e-01,9.99999e-01,7.53706e-03,9.99999e-01
5.699678720e-01,8.30104e-03,9.99999e-01,9.99999e-01,8.30104e-03,9.99999e-01
5.728177114e-01,9.12504e-03,9.99999e-01,9.99999e-01,9.12504e-03,9.99999e-01
5.756818000e-01,1.00121e-02,9.99999e-01,9.99999e-01,1.00121e-02,9.99999e-01
5.785602090e-01,1.09653e-02,9.99999e-01,9.99999e-01,1.09653e-02,9.99999e-01
5.814530100e-01,1.19877e-02,9.99999e-01,9.99999e-01,1.19877e-02,9.99999e-01
5.843602750e-01,1.30823e-02,9.99999e-01,9.99999e-01,1.30823e-02,9.99999e-01
5.872820764e-01,1.42523e-02,9.99999e-01,9.99999e-01,1.42523e-02,9.99999e-01
5.902184868e-01,1.55006e-02,9.99999e-01,9.99999e-01,1.55006e-02,9.99999e-01
5.931695792e-01,1.68304e-02,9.99999e-01,9.99999e-01,1.68304e-02,9.99999e-01
5.961354271e-01,1.82446e-02,9.99999e-01,9.99999e-01,1.82446e-02,9.99999e-01
5.991161043e-01,1.97461e-02,9.99999e-01,9.99999e-01,1.97461e-02,9.99999e-01
6.021116848e-01,2.13378e-02,9.99999e-01,9.99999e-01,2.13378e-02,9.99999e-01
6.051222432e-01,2.30225e-02,9.99999e-01,9.99999e-01,2.30225e-02,9.99999e-01
6.081478544e-01,2.48030e-02,9.99999e-01,9.99999e-01,2.48030e-02,9.99999e-01
6.111885937e-01,2.66819e-02,9.99999e-01,9.99999e-01,2.66819e-02,9.99999e-01
6.142445367e-01,2.86617e-02,9.99999e-01,9.99999e-01,2.86617e-02,9.99999e-01
6.173157594e-01,3.07450e-02,9.99999e-01,9.99999e-01,3.07450e-02,9.99999e-01
6.204023382e-01,3.29340e-02,9.99999e-01,9.99999e-01,3.29340e-02,9.99999e-01
6.235043498e-01,3.52310e-02,9.99999e-01,9.99999e-01,3.52310e-02,9.99999e-01
6.266218716e-01,3.76380e-02,9.99999e-01,9.99999e-01,3.76380e-02,9.99999e-01
6.297549810e-01,4.01570e-02,9.99999e-01,9.99999e-01,4.01570e-02,9.99999e-01
6.329037559e-01,4.27899e-02,9.99999e-01,9.99999e-01,4.27899e-02,9.99999e-01
6.360682746e-01,4.55381e-02,9.99999e-01,9.99999e-01,4.55381e-02,9.99999e-01
6.392486160e-01,4.84034e-02,9.99999e-01,9.99999e-01,4.84034e-02,9.99999e-01
6.424448591e-01,5.13869e-02,9.99999e-01,9.99999e-01,5.13869e-02,9.99999e-01
6.456570834e-01,5.44900e-02,9.99999e-01,9.99999e-01,5.44900e-02,9.99999e-01
6.488853688e-01,5.77135e-02,9.99999e-01,9.99999e-01,5.77135e-02,9.99999e-01
6.521297956e-01,6.10584e-02,9.99999e-01,9.99999e-01,6.10584e-02,9.99999e-01
6.553904446e-01,6.45253e-02,9.99999e-01,9.99999e-01,6.45253e-02,9.99999e-01
6.586673968e-01,6.81146e-02,9.99999e-01,9.99999e-01,6.81146e-02,9.99999e-01
6.619607338e-01,7.18269e-02,9.99999e-01,9.99999e-01,7.18269e-02,9.99999e-01
6.652705375e-01,7.56620e-02,9.99999e-01,9.99999e-01,7.56620e-02,9.99999e-01
6.685968902e-01,7.96202e-02,9.99999e-01,9.99999e-01,7.96202e-02,9.99999e-01
6.719398746e-01,8.37010e-02,9.99999e-01,9.99999e-01,8.37010e-02,9.99999e-01
6.752995740e-01,8.79041e-02,9.99999e-01,9.99999e-01,8.79041e-02,9.99999e-01
6.786760719e-01,9.22290e-02,9.99999e-01,9.99999e-01,9.22290e-02,9.99999e-01
6.820694522e-01,9.66750e-02,9.99999e-01,9.99999e-01,9.66750e-02,9.99999e-01
6.854797995e-01,1.01241e-01,9.99999e-01,9.99999e-01,1.01241e-01,9.99999e-01
6.889071985e-01,1.05926e-01,9.99999e-01,9.99999e-01,1.05926e-01,9.99999e-01
6.923517345e-01,1.10729e-01,9.99999e-01,9.99999e-01,1.10729e-01,9.99999e-01
6.958134932e-01,1.15649e-01,9.99999e-01,9.99999e-01,1.15649e-01,9.99999e-01
6.992925606e-01,1.20683e-01,9.99999e-01,9.99999e-01,1.20683e-01,9.99999e-01
7.027890234e-01,1.25830e-01,9.99999e-01,9.99999e-01,1.25830e-01,9.99999e-01
7.063029686e-01,1.31089e-01,9.99999e-01,9.99999e-01,1.31089e-01,9.99999e-01
7.098344834e-01,1.36457e-01,9.99999e-01,9.99999e-01,1.36457e-01,9.99999e-01
7.133836558e-01,1.41933e-01,9.99999e-01,9.99999e-01,1.41933e-01,9.99999e-01
7.169505741e-01,1.47513e-01,9.99999e-01,9.99999e-01,1.47513e-01,9.99999e-01
7.205353270e-01,1.53197e-01,9.99999e-01,9.99999e-01,1.53197e-01,9.99999e-01
7.241380036e-01,1.58980e-01,9.99999e-01,9.99999e-01,1.58980e-01,9.99999e-01
7.277586936e-01,1.64861e-01,9.99999e-01,9.99999e-01,1.64861e-01,9.99999e-01
7.313974871e-01,1.70837e-01,9.99999e-01,9.99999e-01,1.70837e-01,9.99999e-01
7.350544745e-01,1.76905e-01,9.99999e-01,9.99999e-01,1.76905e-01,9.99999e-01
7.387297469e-01,1.83062e-01,9.99999e-01,9.99999e-01,1.83062e-01,9.99999e-01
7.424233956e-01,1.89306e-01,9.99999e-01,9.99999e-01,1.89306e-01,9.99999e-01
7.461355126e-01,1.95633e-01,9.99999e-01,9.99999e-01,1.95633e-01,9.99999e-01
7.498661902e-01,2.02040e-01,9.99999e-01,9.99999e-01,2.02040e-01,9.99999e-01
7.536155211e-01,2.08525e-01,9.99999e-01,9.99999e-01,2.08525e-01,9.99999e-01
7.573835987e-01,2.15083e-01,9.99999e-01,9.99999e-01,2.15083e-01,9.99999e-01
7.611705167e-01,2.21712e-01,9.99999e-01,9.99999e-01,2.21712e-01,9.99999e-01
7.649763693e-01,2.28408e-01,9.99999e-01,9.99999e-01,2.28408e-01,9.99999e-01
7.688012511e-01,2.35168e-01,9.99999e-01,9.99999e-01,2.35168e-01,9.99999e-01
7.726452574e-01,2.41988e-01,9.99999e-01,9.99999e-01,2.41988e-01,9.99999e-01
7.765084837e-01,2.48866e-01,9.99999e-01,9.99999e-01,2.48866e-01,9.99999e-01
7.803910261e-01,2.41043e-01,9.99999e-01,9.42316e-01,2.55798e-01,9.99999e-01
7.842929812e-01,1.99355e-01,9.99999e-01,7.58637e-01,2.62780e-01,9.99999e-01
7.882144461e-01,2.01106e-01,9.99999e-01,7.45363e-01,2.69809e-01,9.99999e-01
7.921555184e-01,2.32312e-01,9.99999e-01,8.39027e-01,2.76882e-01,9.99999e-01
7.961162960e-01,2.52352e-01,9.99999e-01,8.88578e-01,2.83995e-01,9.99999e-01
8.000968774e-01,2.73079e-01,9.99999e-01,9.37947e-01,2.91145e-01,9.99999e-01
8.040973618e-01,2.88581e-01,9.99999e-01,9.67326e-01,2.98329e-01,9.99999e-01
8.081178486e-01,3.00918e-01,9.99999e-01,9.84867e-01,3.05542e-01,9.99999e-01
8.121584379e-01,3.11312e-01,9.99999e-01,9.95300e-01,3.12782e-01,9.99999e-01
8.162192301e-01,3.19713e-01,9.99999e-01,9.98960e-01,3.20046e-01,9.99999e-01
8.203003262e-01,3.27325e-01,9.99999e-01,9.99983e-01,3.27330e-01,9.99999e-01
8.244018279e-01,3.34631e-01,9.99999e-01,9.99999e-01,3.34631e-01,9.99999e-01
8.285238370e-01,3.41945e-01,9.99999e-01,9.99999e-01,3.41945e-01,9.99999e-01
8.326664562e-01,3.49271e-01,9.99999e-01,9.99999e-01,3.49271e-01,9.99999e-01
8.368297885e-01,3.56604e-01,9.99999e-01,9.99999e-01,3.56604e-01,9.99999e-01
8.410139374e-01,3.63941e-01,9.99999e-01,9.99999e-01,3.63941e-01,9.99999e-01
8.452190071e-01,3.71280e-01,9.99999e-01,9.99999e-01,3.71280e-01,9.99999e-01
8.494451021e-01,3.78618e-01,9.99999e-01,9.99999e-01,3.78618e-01,9.99999e-01
8.536923276e-01,3.85952e-01,9.99999e-01,9.99999e-01,3.85952e-01,9.99999e-01
8.579607893e-01,3.93278e-01,9.99999e-01,9.99999e-01,3.93278e-01,9.99999e-01
8.622505932e-01,4.00595e-01,9.99999e-01,9.99999e-01,4.00595e-01,9.99999e-01
8.665618462e-01,3.65417e-01,9.99999e-01,8.95850e-01,4.07900e-01,9.99999e-01
8.708946554e-01,2.08325e-01,9.99999e-01,5.01759e-01,4.15189e-01,9.99999e-01
8.752491287e-01,2.40179e-01,9.99999e-01,5.68524e-01,4.22461e-01,9.99999e-01
8.796253743e-01,3.13800e-01,9.99999e-01,7.30256e-01,4.29713e-01,9.99999e-01
8.840235012e-01,3.70733e-01,9.99999e-01,8.48472e-01,4.36942e-01,9.99999e-01
8.884436187e-01,4.16215e-01,9.99999e-01,9.37112e-01,4.44146e-01,9.99999e-01
8.928858368e-01,4.39596e-01,9.99999e-01,9.74014e-01,4.51324e-01,9.99999e-01
8.973502660e-01,4.55550e-01,9.99999e-01,9.93624e-01,4.58472e-01,9.99999e-01
9.018370173e-01,4.65261e-01,9.99999e-01,9.99295e-01,4.65589e-01,9.99999e-01
9.063462024e-01,4.64276e-01,9.99999e-01,9.82234e-01,4.72673e-01,9.99999e-01
9.108779334e-01,4.60218e-01,9.99999e-01,9.59343e-01,4.79721e-01,9.99999e-01
9.154323231e-01,4.82010e-01,9.99999e-01,9.90297e-01,4.86732e-01,9.99999e-01
9.200094847e-01,4.31953e-01,9.99999e-01,8.74921e-01,4.93704e-01,9.99999e-01
9.246095321e-01,4.08819e-01,9.99999e-01,8.16598e-01,5.00636e-01,9.99999e-01
9.292325798e-01,4.33608e-01,9.99999e-01,8.54358e-01,5.07524e-01,9.99999e-01
9.338787427e-01,4.41365e-01,9.99999e-01,8.58069e-01,5.14369e-01,9.99999e-01
9.385481364e-01,4.65538e-01,9.99999e-01,8.93257e-01,5.21168e-01,9.99999e-01
9.432408771e-01,4.92587e-01,9.99999e-01,9.33071e-01,5.27920e-01,9.99999e-01
9.479570815e-01,5.15955e-01,9.99999e-01,9.65079e-01,5.34624e-01,9.99999e-01
9.526968669e-01,5.32084e-01,9.99999e-01,9.83014e-01,5.41278e-01,9.99999e-01
9.574603512e-01,5.43880e-01,9.99999e-01,9.92699e-01,5.47880e-01,9.99999e-01
9.622476530e-01,5.53165e-01,9.99999e-01,9.97717e-01,5.54431e-01,9.99999e-01
9.670588912e-01,5.60544e-01,9.99999e-01,9.99315e-01,5.60928e-01,9.99999e-01
9.718941857e-01,5.67343e-01,9.99999e-01,9.99951e-01,5.67370e-01,9.99999e-01
9.767536566e-01,5.73757e-01,9.99999e-01,9.99999e-01,5.73757e-01,9.99999e-01
9.816374249e-01,5.80088e-01,9.99999e-01,9.99999e-01,5.80088e-01,9.99999e-01
9.865456120e-01,5.86362e-01,9.99999e-01,9.99999e-01,5.86362e-01,9.99999e-01
9.914783401e-01,5.92577e-01,9.99999e-01,9.99999e-01,5.92577e-01,9.99999e-01
9.964357318e-01,5.98734e-01,9.99999e-01,9.99999e-01,5.98734e-01,9.99999e-01
1.001417910e+00,6.04831e-01,9.99999e-01,9.99999e-01,6.04831e-01,9.99999e-01
1.006425000e+00,6.10868e-01,9.99999e-01,9.99999e-01,6.10868e-01,9.99999e-01
1.011457125e+00,6.16844e-01,9.99999e-01,9.99999e-01,6.16844e-01,9.99999e-01
1.016514411e+00,6.22759e-01,9.99999e-01,9.99999e-01,6.22759e-01,9.99999e-01
1.021596983e+00,6.28552e-01,9.99999e-01,9.99905e-01,6.28612e-01,9.99999e-01
1.026704968e+00,6.29965e-01,9.99999e-01,9.93005e-01,6.34402e-01,9.99999e-01
1.031838492e+00,5.97025e-01,9.99999e-01,9.32661e-01,6.40131e-01,9.99999e-01
1.036997685e+00,5.53789e-02,9.99999e-01,8.57529e-02,6.45796e-01,9.99999e-01
1.042182673e+00,1.58961e-02,9.99999e-01,2.44030e-02,6.51398e-01,9.99999e-01
1.047393587e+00,2.81807e-02,9.99999e-01,4.28971e-02,6.56936e-01,9.99999e-01
1.052630555e+00,6.90512e-05,9.99999e-01,1.04242e-04,6.62411e-01,9.99999e-01
1.057893707e+00,2.34478e-04,9.99999e-01,3.51108e-04,6.67822e-01,9.99999e-01
1.063183176e+00,1.79595e-03,9.99999e-01,2.66790e-03,6.73169e-01,9.99999e-01
1.068499092e+00,9.23645e-03,9.99999e-01,1.36140e-02,6.78452e-01,9.99999e-01
1.073841587e+00,4.42982e-02,9.99999e-01,6.47946e-02,6.83671e-01,9.99999e-01
1.079210795e+00,1.22068e-01,9.99999e-01,1.77211e-01,6.88826e-01,9.99999e-01
1.084606849e+00,2.64080e-01,9.99999e-01,3.80564e-01,6.93916e-01,9.99999e-01
1.090029883e+00,4.22366e-01,9.99999e-01,6.04292e-01,6.98943e-01,9.99999e-01
1.095480033e+00,5.48950e-01,9.99999e-01,7.79863e-01,7.03905e-01,9.99999e-01
1.100957433e+00,6.28618e-01,9.99999e-01,8.86870e-01,7.08804e-01,9.99999e-01
1.106462220e+00,6.79049e-01,9.99999e-01,9.51528e-01,7.13639e-01,9.99999e-01
1.111994531e+00,7.05296e-01,9.99999e-01,9.81743e-01,7.18411e-01,9.99999e-01
1.117554504e+00,7.19874e-01,9.99999e-01,9.95511e-01,7.23119e-01,9.99999e-01
1.123142276e+00,7.27550e-01,9.99999e-01,9.99704e-01,7.27764e-01,9.99999e-01
1.128757988e+00,7.32347e-01,9.99999e-01,9.99999e-01,7.32347e-01,9.99999e-01
1.134401778e+00,7.36867e-01,9.99999e-01,9.99999e-01,7.36867e-01,9.99999e-01
1.140073787e+00,7.41324e-01,9.99999e-01,9.99999e-01,7.41324e-01,9.99999e-01
1.145774156e+00,7.45720e-01,9.99999e-01,9.99999e-01,7.45720e-01,9.99999e-01
1.151503026e+00,7.50055e-01,9.99999e-01,9.99999e-01,7.50055e-01,9.99999e-01
1.157260541e+00,7.54328e-01,9.99999e-01,9.99999e-01,7.54328e-01,9.99999e-01
1.163046844e+00,7.58540e-01,9.99999e-01,9.99999e-01,7.58540e-01,9.99999e-01
1.168862078e+00,7.62692e-01,9.99999e-01,9.99999e-01,7.62692e-01,9.99999e-01
1.174706389e+00,7.66784e-01,9.99999e-01,9.99999e-01,7.66784e-01,9.99999e-01
1.180579921e+00,7.70817e-01,9.99999e-01,9.99999e-01,7.70817e-01,9.99999e-01
1.186482820e+00,7.74781e-01,9.99999e-01,9.99987e-01,7.74790e-01,9.99999e-01
1.192415234e+00,7.59703e-01,9.99999e-01,9.75597e-01,7.78705e-01,9.99999e-01
1.198377311e+00,4.24245e-01,9.99999e-01,5.42123e-01,7.82562e-01,9.99999e-01
1.204369197e+00,4.38641e-19,9.99999e-01,5.57811e-19,7.86361e-01,9.99999e-01
1.210391043e+00,1.42271e-74,9.99999e-01,1.80066e-74,7.90103e-01,9.99999e-01
1.216442998e+00,1.19001e-64,9.99999e-01,1.49915e-64,7.93788e-01,9.99999e-01
1.222525213e+00,1.07825e-63,9.99999e-01,1.35217e-63,7.97417e-01,9.99999e-01
1.228637839e+00,2.88028e-49,9.99999e-01,3.59589e-49,8.00991e-01,9.99999e-01
1.234781029e+00,4.99411e-31,9.99999e-01,6.20764e-31,8.04510e-01,9.99999e-01
1.240954934e+00,9.43235e-21,9.99999e-01,1.16741e-20,8.07974e-01,9.99999e-01
1.247159708e+00,1.61382e-10,9.99999e-01,1.98897e-10,8.11384e-01,9.99999e-01
1.253395507e+00,4.71197e-07,9.99999e-01,5.78339e-07,8.14741e-01,9.99999e-01
1.259662485e+00,2.19874e-04,9.99999e-01,2.68779e-04,8.18045e-01,9.99999e-01
1.265960797e+00,7.75452e-03,9.99999e-01,9.44179e-03,8.21296e-01,9.99999e-01
1.272290601e+00,1.03597e-01,9.99999e-01,1.25649e-01,8.24496e-01,9.99999e-01
1.278652054e+00,8.94281e-02,9.99999e-01,1.08051e-01,8.27645e-01,9.99999e-01
1.285045314e+00,4.86161e-04,9.99999e-01,5.85212e-04,8.30743e-01,9.99999e-01
1.291470541e+00,2.96965e-09,9.99999e-01,3.56162e-09,8.33792e-01,9.99999e-01
1.297927893e+00,1.76264e-04,9.99999e-01,2.10642e-04,8.36791e-01,9.99999e-01
1.304417533e+00,1.87881e-02,9.99999e-01,2.23736e-02,8.39741e-01,9.99999e-01
1.310939621e+00,4.45839e-03,9.99999e-01,5.29095e-03,8.42643e-01,9.99999e-01
1.317494319e+00,7.82143e-26,9.99999e-01,9.25068e-26,8.45498e-01,9.99999e-01
1.324081790e+00,2.94582e-17,9.99999e-01,3.47259e-17,8.48305e-01,9.99999e-01
1.330702199e+00,3.03160e-10,9.99999e-01,3.56212e-10,8.51066e-01,9.99999e-01
1.337355710e+00,1.29042e-09,9.99999e-01,1.51141e-09,8.53782e-01,9.99999e-01
1.344042489e+00,5.20938e-10,9.99999e-01,6.08251e-10,8.56452e-01,9.99999e-01
1.350762701e+00,1.64812e-10,9.99999e-01,1.91847e-10,8.59077e-01,9.99999e-01
1.357516515e+00,9.18774e-07,9.99999e-01,1.06628e-06,8.61658e-01,9.99999e-01
1.364304097e+00,6.77039e-05,9.99999e-01,7.83431e-05,8.64196e-01,9.99999e-01
1.371125618e+00,6.75104e-03,9.99999e-01,7.78943e-03,8.66691e-01,9.99999e-01
1.377981246e+00,1.42382e-02,9.99999e-01,1.63818e-02,8.69144e-01,9.99999e-01
1.384871152e+00,7.95760e-02,9.99999e-01,9.13034e-02,8.71555e-01,9.99999e-01
1.391795508e+00,9.57261e-02,9.99999e-01,1.09536e-01,8.73925e-01,9.99999e-01
1.398754485e+00,2.21094e-01,9.99999e-01,2.52317e-01,8.76254e-01,9.99999e-01
1.405748258e+00,3.20356e-01,9.99999e-01,3.64644e-01,8.78544e-01,9.99999e-01
1.412776999e+00,4.64526e-01,9.99999e-01,5.27394e-01,8.80794e-01,9.99999e-01
1.419840884e+00,4.19861e-01,9.99999e-01,4.75491e-01,8.83005e-01,9.99999e-01
1.426940089e+00,2.34300e-02,9.99999e-01,2.64692e-02,8.85178e-01,9.99999e-01
1.434074789e+00,0.00000e+00,9.99999e-01,0.00000e+00,8.87313e-01,9.99999e-01
1.441245163e+00,0.00000e+00,9.99999e-01,0.00000e+00,8.89411e-01,9.99999e-01
1.448451389e+00,0.00000e+00,9.99999e-01,0.00000e+00,8.91472e-01,9.99999e-01
1.455693646e+00,0.00000e+00,9.99999e-01,0.00000e+00,8.93497e-01,9.99999e-01
1.462972114e+00,8.76080e-296,9.99999e-01,9.78327e-296,8.95487e-01,9.99999e-01
1.470286975e+00,4.94608e-123,9.99999e-01,5.51131e-123,8.97441e-01,9.99999e-01
