#,Wave/freq,Total,N2,CO2,Rayleigh,CIA
4.000000000e-01,6.93138e-05,9.99999e-01,9.99999e-01,6.93138e-05,9.99999e-01
4.020000000e-01,8.37640e-05,9.99999e-01,9.99999e-01,8.37640e-05,9.99999e-01
4.040100000e-01,1.00829e-04,9.99999e-01,9.99999e-01,1.00829e-04,9.99999e-01
4.060300500e-01,1.20928e-04,9.99999e-01,9.99999e-01,1.20928e-04,9.99999e-01
4.080602003e-01,1.44513e-04,9.99999e-01,9.99999e-01,1.44513e-04,9.99999e-01
4.101005013e-01,1.72091e-04,9.99999e-01,9.99999e-01,1.72091e-04,9.99999e-01
4.121510038e-01,2.04226e-04,9.99999e-01,9.99999e-01,2.04226e-04,9.99999e-01
4.142117588e-01,2.41543e-04,9.99999e-01,9.99999e-01,2.41543e-04,9.99999e-01
4.162828176e-01,2.84734e-04,9.99999e-01,9.99999e-01,2.84734e-04,9.99999e-01
4.183642317e-01,3.34560e-04,9.99999e-01,9.99999e-01,3.34560e-04,9.99999e-01
4.204560528e-01,3.91853e-04,9.99999e-01,9.99999e-01,3.91853e-04,9.99999e-01
4.225583331e-01,4.57528e-04,9.99999e-01,9.99999e-01,4.57528e-04,9.99999e-01
4.246711247e-01,5.32578e-04,9.99999e-01,9.99999e-01,5.32578e-04,9.99999e-01
4.267944804e-01,6.18080e-04,9.99999e-01,9.99999e-01,6.18080e-04,9.99999e-01
4.289284528e-01,7.15204e-04,9.99999e-01,9.99999e-01,7.15204e-04,9.99999e-01
4.310730950e-01,8.25206e-04,9.99999e-01,9.99999e-01,8.25206e-04,9.99999e-01
4.332284605e-01,9.49441e-04,9.99999e-01,9.99999e-01,9.49441e-04,9.99999e-01
4.353946028e-01,1.08936e-03,9.99999e-01,9.99999e-01,1.08936e-03,9.99999e-01
4.375715758e-01,1.24650e-03,9.99999e-01,9.99999e-01,1.24650e-03,9.99999e-01
4.397594337e-01,1.42253e-03,9.99999e-01,9.99999e-01,1.42253e-03,9.99999e-01
4.419582309e-01,1.61918e-03,9.99999e-01,9.99999e-01,1.61918e-03,9.99999e-01
4.441680220e-01,1.83831e-03,9.99999e-01,9.99999e-01,1.83831e-03,9.99999e-01
4.463888621e-01,2.08187e-03,9.99999e-01,9.99999e-01,2.08187e-03,9.99999e-01
4.486208064e-01,2.35191e-03,9.99999e-01,9.99999e-01,2.35191e-03,9.99999e-01
4.508639105e-01,2.65058e-03,9.99999e-01,9.99999e-01,2.65058e-03,9.99999e-01
4.531182300e-01,2.98014e-03,9.99999e-01,9.99999e-01,2.98014e-03,9.99999e-01
4.553838212e-01,3.34292e-03,9.99999e-01,9.99999e-01,3.34292e-03,9.99999e-01
4.576607403e-01,3.74137e-03,9.99999e-01,9.99999e-01,3.74137e-03,9.99999e-01
4.599490440e-01,4.17801e-03,9.99999e-01,9.99999e-01,4.17801e-03,9.99999e-01
4.622487892e-01,4.65545e-03,9.99999e-01,9.99999e-01,4.65545e-03,9.99999e-01
4.645600332e-01,5.17637e-03,9.99999e-01,9.99999e-01,5.17637e-03,9.99999e-01
4.668828333e-01,5.74353e-03,9.99999e-01,9.99999e-01,5.74353e-03,9.99999e-01
4.692172475e-01,6.35976e-03,9.99999e-01,9.99999e-01,6.35976e-03,9.99999e-01
4.715633337e-01,7.02794e-03,9.99999e-01,9.99999e-01,7.02794e-03,9.99999e-01
4.739211504e-01,7.75101e-03,9.99999e-01,9.99999e-01,7.75101e-03,9.99999e-01
4.762907561e-01,8.53196e-03,9.99999e-01,9.99999e-01,8.53196e-03,9.99999e-01
4.786722099e-01,9.37380e-03,9.99999e-01,9.99999e-01,9.37380e-03,9.99999e-01
4.810655710e-01,1.02796e-02,9.99999e-01,9.99999e-01,1.02796e-02,9.99999e-01
4.834708988e-01,1.12524e-02,9.99999e-01,9.99999e-01,1.12524e-02,9.99999e-01
4.858882533e-01,1.22952e-02,9.99999e-01,9.99999e-01,1.22952e-02,9.99999e-01
4.883176946e-01,1.34112e-02,9.99999e-01,9.99999e-01,1.34112e-02,9.99999e-01
4.907592831e-01,1.46035e-02,9.99999e-01,9.99999e-01,1.46035e-02,9.99999e-01
4.932130795e-01,1.58750e-02,9.99999e-01,9.99999e-01,1.58750e-02,9.99999e-01
4.956791449e-01,1.72287e-02,9.99999e-01,9.99999e-01,1.72287e-02,9.99999e-01
4.981575406e-01,1.86677e-02,9.99999e-01,9.99999e-01,1.86677e-02,9.99999e-01
5.006483283e-01,2.01949e-02,9.99999e-01,9.99999e-01,2.01949e-02,9.99999e-01
5.031515699e-01,2.18131e-02,9.99999e-01,9.99999e-01,2.18131e-02,9.99999e-01
5.056673278e-01,2.35251e-02,9.99999e-01,9.99999e-01,2.35251e-02,9.99999e-01
5.081956644e-01,2.53337e-02,9.99999e-01,9.99999e-01,2.53337e-02,9.99999e-01
5.107366428e-01,2.72414e-02,9.99999e-01,9.99999e-01,2.72414e-02,9.99999e-01
5.132903260e-01,2.92508e-02,9.99999e-01,9.99999e-01,2.92508e-02,9.99999e-01
5.158567776e-01,3.13642e-02,9.99999e-01,9.99999e-01,3.13642e-02,9.99999e-01
5.184360615e-01,3.35841e-02,9.99999e-01,9.99999e-01,3.35841e-02,9.99999e-01
5.210282418e-01,3.59126e-02,9.99999e-01,9.99999e-01,3.59126e-02,9.99999e-01
5.236333830e-01,3.83516e-02,9.99999e-01,9.99999e-01,3.83516e-02,9.99999e-01
5.262515499e-01,4.09032e-02,9.99999e-01,9.99999e-01,4.09032e-02,9.99999e-01
5.288828077e-01,4.35691e-02,9.99999e-01,9.99999e-01,4.35691e-02,9.99999e-01
5.315272217e-01,4.63509e-02,9.99999e-01,9.99999e-01,4.63509e-02,9.99999e-01
5.341848578e-01,4.92501e-02,9.99999e-01,9.99999e-01,4.92501e-02,9.99999e-01
5.368557821e-01,5.22679e-02,9.99999e-01,9.99999e-01,5.22679e-02,9.99999e-01
5.395400610e-01,5.54055e-02,9.99999e-01,9.99999e-01,5.54055e-02,9.99999e-01
5.422377613e-01,5.86639e-02,9.99999e-01,9.99999e-01,5.86639e-02,9.99999e-01
5.449489501e-01,6.20439e-02,9.99999e-01,9.99999e-01,6.20439e-02,9.99999e-01
5.476736949e-01,6.55460e-02,9.99999e-01,9.99999e-01,6.55460e-02,9.99999e-01
5.504120634e-01,6.91707e-02,9.99999e-01,9.99999e-01,6.91707e-02,9.99999e-01
5.531641237e-01,7.29183e-02,9.99999e-01,9.99999e-01,7.29183e-02,9.99999e-01
5.559299443e-01,7.67889e-02,9.99999e-01,9.99999e-01,7.67889e-02,9.99999e-01
5.587095940e-01,8.07823e-02,9.99999e-01,9.99999e-01,8.07823e-02,9.99999e-01
5.615031420e-01,8.48984e-02,9.99999e-01,9.99999e-01,8.48984e-02,9.99999e-01
5.643106577e-01,8.91367e-02,9.99999e-01,9.99999e-01,8.91367e-02,9.99999e-01
5.671322110e-01,9.34965e-02,9.99999e-01,9.99999e-01,9.34965e-02,9.99999e-01
5.699678720e-01,9.79772e-02,9.99999e-01,9.99999e-01,9.79772e-02,9.99999e-01
5.728177114e-01,1.02578e-01,9.99999e-01,9.99999e-01,1.02578e-01,9.99999e-01
5.756818000e-01,1.07297e-01,9.99999e-01,9.99999e-01,1.07297e-01,9.99999e-01
5.785602090e-01,1.12133e-01,9.99999e-01,9.99999e-01,1.12133e-01,9.99999e-01
5.814530100e-01,1.17086e-01,9.99999e-01,9.99999e-01,1.17086e-01,9.99999e-01
5.843602750e-01,1.22153e-01,9.99999e-01,9.99999e-01,1.22153e-01,9.99999e-01
5.872820764e-01,1.27333e-01,9.99999e-01,9.99999e-01,1.27333e-01,9.99999e-01
5.902184868e-01,1.32623e-01,9.99999e-01,9.99999e-01,1.32623e-01,9.99999e-01
5.931695792e-01,1.38023e-01,9.99999e-01,9.99999e-01,1.38023e-01,9.99999e-01
5.961354271e-01,1.43529e-01,9.99999e-01,9.99999e-01,1.43529e-01,9.99999e-01
5.991161043e-01,1.49139e-01,9.99999e-01,9.99999e-01,1.49139e-01,9.99999e-01
6.021116848e-01,1.54851e-01,9.99999e-01,9.99999e-01,1.54851e-01,9.99999e-01
6.051222432e-01,1.60663e-01,9.99999e-01,9.99999e-01,1.60663e-01,9.99999e-01
6.081478544e-01,1.66572e-01,9.99999e-01,9.99999e-01,1.66572e-01,9.99999e-01
6.111885937e-01,1.72574e-01,9.99999e-01,9.99999e-01,1.72574e-01,9.99999e-01
6.142445367e-01,1.78668e-01,9.99999e-01,9.99999e-01,1.78668e-01,9.99999e-01
6.173157594e-01,1.84851e-01,9.99999e-01,9.99999e-01,1.84851e-01,9.99999e-01
6.204023382e-01,1.91119e-01,9.99999e-01,9.99999e-01,1.91119e-01,9.99999e-01
6.235043498e-01,1.97469e-01,9.99999e-01,9.99999e-01,1.97469e-01,9.99999e-01
6.266218716e-01,2.03899e-01,9.99999e-01,9.99999e-01,2.03899e-01,9.99999e-01
6.297549810e-01,2.10405e-01,9.99999e-01,9.99999e-01,2.10405e-01,9.99999e-01
6.329037559e-01,2.16984e-01,9.99999e-01,9.99999e-01,2.16984e-01,9.99999e-01
6.360682746e-01,2.23632e-01,9.99999e-01,9.99999e-01,2.23632e-01,9.99999e-01
6.392486160e-01,2.30347e-01,9.99999e-01,9.99999e-01,2.30347e-01,9.99999e-01
6.424448591e-01,2.37125e-01,9.99999e-01,9.99999e-01,2.37125e-01,9.99999e-01
6.456570834e-01,2.43963e-01,9.99999e-01,9.99999e-01,2.43963e-01,9.99999e-01
6.488853688e-01,2.50856e-01,9.99999e-01,9.99999e-01,2.50856e-01,9.99999e-01
6.521297956e-01,2.57803e-01,9.99999e-01,9.99999e-01,2.57803e-01,9.99999e-01
6.553904446e-01,2.64799e-01,9.99999e-01,9.99999e-01,2.64799e-01,9.99999e-01
6.586673968e-01,2.71841e-01,9.99999e-01,9.99999e-01,2.71841e-01,9.99999e-01
6.619607338e-01,2.78926e-01,9.99999e-01,9.99999e-01,2.78926e-01,9.99999e-01
6.652705375e-01,2.86050e-01,9.99999e-01,9.99999e-01,2.86050e-01,9.99999e-01
6.685968902e-01,2.93210e-01,9.99999e-01,9.99999e-01,2.93210e-01,9.99999e-01
6.719398746e-01,3.00402e-01,9.99999e-01,9.99999e-01,3.00402e-01,9.99999e-01
6.752995740e-01,3.07624e-01,9.99999e-01,9.99999e-01,3.07624e-01,9.99999e-01
6.786760719e-01,3.14871e-01,9.99999e-01,9.99999e-01,3.14871e-01,9.99999e-01
6.820694522e-01,3.22141e-01,9.99999e-01,9.99999e-01,3.22141e-01,9.99999e-01
6.854797995e-01,3.29430e-01,9.99999e-01,9.99999e-01,3.29430e-01,9.99999e-01
6.889071985e-01,3.36735e-01,9.99999e-01,9.99999e-01,3.36735e-01,9.99999e-01
6.923517345e-01,3.44053e-01,9.99999e-01,9.99999e-01,3.44053e-01,9.99999e-01
6.958134932e-01,3.51381e-01,9.99999e-01,9.99999e-01,3.51381e-01,9.99999e-01
6.992925606e-01,3.58716e-01,9.99999e-01,9.99999e-01,3.58716e-01,9.99999e-01
7.027890234e-01,3.66054e-01,9.99999e-01,9.99999e-01,3.66054e-01,9.99999e-01
7.063029686e-01,3.73393e-01,9.99999e-01,9.99999e-01,3.73393e-01,9.99999e-01
7.098344834e-01,3.80730e-01,9.99999e-01,9.99999e-01,3.80730e-01,9.99999e-01
7.133836558e-01,3.88062e-01,9.99999e-01,9.99999e-01,3.88062e-01,9.99999e-01
7.169505741e-01,3.95386e-01,9.99999e-01,9.99999e-01,3.95386e-01,9.99999e-01
7.205353270e-01,4.02699e-01,9.99999e-01,9.99999e-01,4.02699e-01,9.99999e-01
7.241380036e-01,4.10000e-01,9.99999e-01,9.99999e-01,4.10000e-01,9.99999e-01
7.277586936e-01,4.17284e-01,9.99999e-01,9.99999e-01,4.17284e-01,9.99999e-01
7.313974871e-01,4.24551e-01,9.99999e-01,9.99999e-01,4.24551e-01,9.99999e-01
7.350544745e-01,4.31796e-01,9.99999e-01,9.99999e-01,4.31796e-01,9.99999e-01
7.387297469e-01,4.39018e-01,9.99999e-01,9.99999e-01,4.39018e-01,9.99999e-01
7.424233956e-01,4.46215e-01,9.99999e-01,9.99999e-01,4.46215e-01,9.99999e-01
7.461355126e-01,4.53385e-01,9.99999e-01,9.99999e-01,4.53385e-01,9.99999e-01
7.498661902e-01,4.60524e-01,9.99999e-01,9.99999e-01,4.60524e-01,9.99999e-01
7.536155211e-01,4.67632e-01,9.99999e-01,9.99999e-01,4.67632e-01,9.99999e-01
7.573835987e-01,4.74706e-01,9.99999e-01,9.99999e-01,4.74706e-01,9.99999e-01
7.611705167e-01,4.81743e-01,9.99999e-01,9.99999e-01,4.81743e-01,9.99999e-01
7.649763693e-01,4.88743e-01,9.99999e-01,9.99999e-01,4.88743e-01,9.99999e-01
7.688012511e-01,4.95704e-01,9.99999e-01,9.99999e-01,4.95704e-01,9.99999e-01
7.726452574e-01,5.02623e-01,9.99999e-01,9.99999e-01,5.02623e-01,9.99999e-01
7.765084837e-01,5.09499e-01,9.99999e-01,9.99999e-01,5.09499e-01,9.99999e-01
7.803910261e-01,5.00170e-01,9.99999e-01,9.68699e-01,5.16331e-01,9.99999e-01
7.842929812e-01,4.55924e-01,9.99999e-01,8.71552e-01,5.23117e-01,9.99999e-01
7.882144461e-01,4.57132e-01,9.99999e-01,8.62748e-01,5.29855e-01,9.99999e-01
7.921555184e-01,4.92396e-01,9.99999e-01,9.17717e-01,5.36544e-01,9.99999e-01
7.961162960e-01,5.12931e-01,9.99999e-01,9.44305e-01,5.43184e-01,9.99999e-01
8.000968774e-01,5.32950e-01,9.99999e-01,9.69402e-01,5.49771e-01,9.99999e-01
8.040973618e-01,5.47437e-01,9.99999e-01,9.84056e-01,5.56306e-01,9.99999e-01
8.081178486e-01,5.58647e-01,9.99999e-01,9.92641e-01,5.62788e-01,9.99999e-01
8.121584379e-01,5.67922e-01,9.99999e-01,9.97728e-01,5.69215e-01,9.99999e-01
8.162192301e-01,5.75297e-01,9.99999e-01,9.99497e-01,5.75586e-01,9.99999e-01
8.203003262e-01,5.81896e-01,9.99999e-01,9.99992e-01,5.81900e-01,9.99999e-01
8.244018279e-01,5.88157e-01,9.99999e-01,9.99999e-01,5.88157e-01,9.99999e-01
8.285238370e-01,5.94355e-01,9.99999e-01,9.99999e-01,5.94355e-01,9.99999e-01
8.326664562e-01,6.00495e-01,9.99999e-01,9.99999e-01,6.00495e-01,9.99999e-01
8.368297885e-01,6.06575e-01,9.99999e-01,9.99999e-01,6.06575e-01,9.99999e-01
8.410139374e-01,6.12594e-01,9.99999e-01,9.99999e-01,6.12594e-01,9.99999e-01
8.452190071e-01,6.18553e-01,9.99999e-01,9.99999e-01,6.18553e-01,9.99999e-01
8.494451021e-01,6.24450e-01,9.99999e-01,9.99999e-01,6.24450e-01,9.99999e-01
8.536923276e-01,6.30285e-01,9.99999e-01,9.99999e-01,6.30285e-01,9.99999e-01
8.579607893e-01,6.36058e-01,9.99999e-01,9.99999e-01,6.36058e-01,9.99999e-01
8.622505932e-01,6.41768e-01,9.99999e-01,9.99999e-01,6.41768e-01,9.99999e-01
8.665618462e-01,6.01411e-01,9.99999e-01,9.28941e-01,6.47415e-01,9.99999e-01
8.708946554e-01,4.59848e-01,9.99999e-01,7.04208e-01,6.52999e-01,9.99999e-01
8.752491287e-01,4.96922e-01,9.99999e-01,7.54604e-01,6.58519e-01,9.99999e-01
8.796253743e-01,5.69030e-01,9.99999e-01,8.57003e-01,6.63976e-01,9.99999e-01
8.840235012e-01,6.17939e-01,9.99999e-01,9.23166e-01,6.69368e-01,9.99999e-01
8.884436187e-01,6.53806e-01,9.99999e-01,9.69036e-01,6.74697e-01,9.99999e-01
8.928858368e-01,6.71352e-01,9.99999e-01,9.87337e-01,6.79961e-01,9.99999e-01
8.973502660e-01,6.83050e-01,9.99999e-01,9.96917e-01,6.85161e-01,9.99999e-01
9.018370173e-01,6.90063e-01,9.99999e-01,9.99659e-01,6.90298e-01,9.99999e-01
9.063462024e-01,6.89254e-01,9.99999e-01,9.91203e-01,6.95370e-01,9.99999e-01
9.108779334e-01,6.86423e-01,9.99999e-01,9.80075e-01,7.00378e-01,9.99999e-01
9.154323231e-01,7.02010e-01,9.99999e-01,9.95304e-01,7.05322e-01,9.99999e-01
9.200094847e-01,6.62537e-01,9.99999e-01,9.32883e-01,7.10203e-01,9.99999e-01
9.246095321e-01,6.47897e-01,9.99999e-01,9.06124e-01,7.15019e-01,9.99999e-01
9.292325798e-01,6.66050e-01,9.99999e-01,9.25360e-01,7.19773e-01,9.99999e-01
9.338787427e-01,6.72313e-01,9.99999e-01,9.28015e-01,7.24463e-01,9.99999e-01
9.385481364e-01,6.90157e-01,9.99999e-01,9.46600e-01,7.29090e-01,9.99999e-01
9.432408771e-01,7.09447e-01,9.99999e-01,9.67003e-01,7.33654e-01,9.99999e-01
9.479570815e-01,7.25553e-01,9.99999e-01,9.82925e-01,7.38156e-01,9.99999e-01
9.526968669e-01,7.36461e-01,9.99999e-01,9.91737e-01,7.42596e-01,9.99999e-01
9.574603512e-01,7.44331e-01,9.99999e-01,9.96460e-01,7.46974e-01,9.99999e-01
9.622476530e-01,7.50461e-01,9.99999e-01,9.98895e-01,7.51291e-01,9.99999e-01
9.670588912e-01,7.55297e-01,9.99999e-01,9.99668e-01,7.55547e-01,9.99999e-01
9.718941857e-01,7.59724e-01,9.99999e-01,9.99976e-01,7.59742e-01,9.99999e-01
9.767536566e-01,7.63876e-01,9.99999e-01,9.99999e-01,7.63876e-01,9.99999e-01
9.816374249e-01,7.67951e-01,9.99999e-01,9.99999e-01,7.67951e-01,9.99999e-01
9.865456120e-01,7.71967e-01,9.99999e-01,9.99999e-01,7.71967e-01,9.99999e-01
9.914783401e-01,7.75923e-01,9.99999e-01,9.99999e-01,7.75923e-01,9.99999e-01
9.964357318e-01,7.79821e-01,9.99999e-01,9.99999e-01,7.79821e-01,9.99999e-01
1.001417910e+00,7.83661e-01,9.99999e-01,9.99999e-01,7.83661e-01,9.99999e-01
1.006425000e+00,7.87444e-01,9.99999e-01,9.99999e-01,7.87444e-01,9.99999e-01
1.011457125e+00,7.91170e-01,9.99999e-01,9.99999e-01,7.91170e-01,9.99999e-01
1.016514411e+00,7.94839e-01,9.99999e-01,9.99999e-01,7.94839e-01,9.99999e-01
1.021596983e+00,7.98413e-01,9.99999e-01,9.99951e-01,7.98452e-01,9.99999e-01
1.026704968e+00,7.99252e-01,9.99999e-01,9.96561e-01,8.02010e-01,9.99999e-01
1.031838492e+00,7.71285e-01,9.99999e-01,9.57507e-01,8.05512e-01,9.99999e-01
1.036997685e+00,1.34315e-01,9.99999e-01,1.66034e-01,8.08961e-01,9.99999e-01
1.042182673e+00,1.16670e-01,9.99999e-01,1.43620e-01,8.12356e-01,9.99999e-01
1.047393587e+00,1.31727e-01,9.99999e-01,1.61490e-01,8.15697e-01,9.99999e-01
1.052630555e+00,4.87152e-03,9.99999e-01,5.94823e-03,8.18986e-01,9.99999e-01
1.057893707e+00,1.19379e-02,9.99999e-01,1.45190e-02,8.22223e-01,9.99999e-01
1.063183176e+00,3.66234e-02,9.99999e-01,4.43700e-02,8.25408e-01,9.99999e-01
1.068499092e+00,9.60287e-02,9.99999e-01,1.15901e-01,8.28542e-01,9.99999e-01
1.073841587e+00,2.13402e-01,9.99999e-01,2.56608e-01,8.31626e-01,9.99999e-01
1.079210795e+00,3.52826e-01,9.99999e-01,4.22718e-01,8.34660e-01,9.99999e-01
1.084606849e+00,5.21922e-01,9.99999e-01,6.23082e-01,8.37645e-01,9.99999e-01
1.090029883e+00,6.57556e-01,9.99999e-01,7.82262e-01,8.40581e-01,9.99999e-01
1.095480033e+00,7.47407e-01,9.99999e-01,8.86109e-01,8.43470e-01,9.99999e-01
1.100957433e+00,7.98428e-01,9.99999e-01,9.43421e-01,8.46311e-01,9.99999e-01
1.106462220e+00,8.28912e-01,9.99999e-01,9.76217e-01,8.49105e-01,9.99999e-01
1.111994531e+00,8.44288e-01,9.99999e-01,9.91119e-01,8.51853e-01,9.99999e-01
1.117554504e+00,8.52700e-01,9.99999e-01,9.97828e-01,8.54555e-01,9.99999e-01
1.123142276e+00,8.57090e-01,9.99999e-01,9.99857e-01,8.57212e-01,9.99999e-01
1.128757988e+00,8.59825e-01,9.99999e-01,9.99999e-01,8.59825e-01,9.99999e-01
1.134401778e+00,8.62393e-01,9.99999e-01,9.99999e-01,8.62393e-01,9.99999e-01
1.140073787e+00,8.64919e-01,9.99999e-01,9.99999e-01,8.64919e-01,9.99999e-01
1.145774156e+00,8.67402e-01,9.99999e-01,9.99999e-01,8.67402e-01,9.99999e-01
1.151503026e+00,8.69842e-01,9.99999e-01,9.99999e-01,8.69842e-01,9.99999e-01
1.157260541e+00,8.72242e-01,9.99999e-01,9.99999e-01,8.72242e-01,9.99999e-01
1.163046844e+00,8.74600e-01,9.99999e-01,9.99999e-01,8.74600e-01,9.99999e-01
1.168862078e+00,8.76918e-01,9.99999e-01,9.99999e-01,8.76918e-01,9.99999e-01
1.174706389e+00,8.79195e-01,9.99999e-01,9.99999e-01,8.79195e-01,9.99999e-01
1.180579921e+00,8.81434e-01,9.99999e-01,9.99999e-01,8.81434e-01,9.99999e-01
1.186482820e+00,8.83628e-01,9.99999e-01,9.99992e-01,8.83634e-01,9.99999e-01
1.192415234e+00,8.74939e-01,9.99999e-01,9.87743e-01,8.85796e-01,9.99999e-01
1.198377311e+00,5.00506e-01,9.99999e-01,5.63683e-01,8.87920e-01,9.99999e-01
1.204369197e+00,2.06097e-10,9.99999e-01,2.31568e-10,8.90008e-01,9.99999e-01
1.210391043e+00,2.56211e-37,9.99999e-01,2.87213e-37,8.92059e-01,9.99999e-01
1.216442998e+00,1.65868e-32,9.99999e-01,1.85519e-32,8.94073e-01,9.99999e-01
1.222525213e+00,4.83573e-32,9.99999e-01,5.39669e-32,8.96053e-01,9.99999e-01
1.228637839e+00,8.20930e-25,9.99999e-01,9.14178e-25,8.97998e-01,9.99999e-01
1.234781029e+00,3.33567e-16,9.99999e-01,3.70668e-16,8.99908e-01,9.99999e-01
1.240954934e+00,5.92644e-11,9.99999e-01,6.57189e-11,9.01785e-01,9.99999e-01
1.247159708e+00,3.34824e-06,9.99999e-01,3.70533e-06,9.03628e-01,9.99999e-01
1.253395507e+00,5.61467e-04,9.99999e-01,6.20104e-04,9.05439e-01,9.99999e-01
1.259662485e+00,1.31722e-02,9.99999e-01,1.45193e-02,9.07217e-01,9.99999e-01
1.265960797e+00,7.84725e-02,9.99999e-01,8.63318e-02,9.08963e-01,9.99999e-01
1.272290601e+00,3.24577e-01,9.99999e-01,3.56412e-01,9.10679e-01,9.99999e-01
1.278652054e+00,2.77385e-01,9.99999e-01,3.04029e-01,9.12363e-01,9.99999e-01
1.285045314e+00,6.48026e-03,9.99999e-01,7.08985e-03,9.14018e-01,9.99999e-01
1.291470541e+00,4.51973e-05,9.99999e-01,4.93612e-05,9.15642e-01,9.99999e-01
1.297927893e+00,1.19233e-02,9.99999e-01,1.29991e-02,9.17238e-01,9.99999e-01
1.304417533e+00,1.40612e-01,9.99999e-01,1.53038e-01,9.18804e-01,9.99999e-01
1.310939621e+00,3.42268e-02,9.99999e-01,3.71892e-02,9.20342e-01,9.99999e-01
1.317494319e+00,2.64935e-13,9.99999e-01,2.87394e-13,9.21852e-01,9.99999e-01
1.324081790e+00,2.76028e-09,9.99999e-01,2.98946e-09,9.23335e-01,9.99999e-01
1.330702199e+00,1.72045e-05,9.99999e-01,1.86036e-05,9.24791e-01,9.99999e-01
1.337355710e+00,2.00799e-05,9.99999e-01,2.16794e-05,9.26220e-01,9.99999e-01
1.344042489e+00,5.92242e-06,9.99999e-01,6.38450e-06,9.27624e-01,9.99999e-01
1.350762701e+00,1.10651e-05,9.99999e-01,1.19107e-05,9.29001e-01,9.99999e-01
1.357516515e+00,6.34353e-04,9.99999e-01,6.81840e-04,9.30354e-01,9.99999e-01
1.364304097e+00,8.29705e-03,9.99999e-01,8.90545e-03,9.31681e-01,9.99999e-01
1.371125618e+00,7.93190e-02,9.99999e-01,8.50163e-02,9.32984e-01,9.99999e-01
1.377981246e+00,1.24373e-01,9.99999e-01,1.33123e-01,9.34264e-01,9.99999e-01
1.384871152e+00,2.89417e-01,9.99999e-01,3.09365e-01,9.35519e-01,9.99999e-01
1.391795508e+00,3.16912e-01,9.99999e-01,3.38310e-01,9.36752e-01,9.99999e-01
1.398754485e+00,4.80604e-01,9.99999e-01,5.12392e-01,9.37961e-01,9.99999e-01
1.405748258e+00,5.74055e-01,9.99999e-01,6.11250e-01,9.39149e-01,9.99999e-01
1.412776999e+00,6.89107e-01,9.99999e-01,7.32847e-01,9.40314e-01,9.99999e-01
1.419840884e+00,6.20746e-01,9.99999e-01,6.59345e-01,9.41458e-01,9.99999e-01
1.426940089e+00,6.07405e-02,9.99999e-01,6.44406e-02,9.42580e-01,9.99999e-01
1.434074789e+00,0.00000e+00,9.99999e-01,0.00000e+00,9.43682e-01,9.99999e-01
1.441245163e+00,0.00000e+00,9.99999e-01,0.00000e+00,9.44763e-01,9.99999e-01
1.448451389e+00,0.00000e+00,9.99999e-01,0.00000e+00,9.45824e-01,9.99999e-01
1.455693646e+00,3.48812e-298,9.99999e-01,3.68385e-298,9.46865e-01,9.99999e-01
1.462972114e+00,1.39973e-144,9.99999e-01,1.47668e-144,9.47887e-01,9.99999e-01
1.470286975e+00,8.14820e-61,9.99999e-01,8.58709e-61,9.48889e-01,9.99999e-01
