#,Wave/freq,Total,N2,CO2,Rayleigh,CIA
4.000000000e-01,4.45557e-03,9.99999e-01,9.99999e-01,4.45557e-03,9.99999e-01
4.020000000e-01,4.95896e-03,9.99999e-01,9.99999e-01,4.95896e-03,9.99999e-01
4.040100000e-01,5.50696e-03,9.99999e-01,9.99999e-01,5.50696e-03,9.99999e-01
4.060300500e-01,6.10288e-03,9.99999e-01,9.99999e-01,6.10288e-03,9.99999e-01
4.080602003e-01,6.74956e-03,9.99999e-01,9.99999e-01,6.74956e-03,9.99999e-01
4.101005013e-01,7.44994e-03,9.99999e-01,9.99999e-01,7.44994e-03,9.99999e-01
4.121510038e-01,8.20698e-03,9.99999e-01,9.99999e-01,8.20698e-03,9.99999e-01
4.142117588e-01,9.02367e-03,9.99999e-01,9.99999e-01,9.02367e-03,9.99999e-01
4.162828176e-01,9.90306e-03,9.99999e-01,9.99999e-01,9.90306e-03,9.99999e-01
4.183642317e-01,1.08482e-02,9.99999e-01,9.99999e-01,1.08482e-02,9.99999e-01
4.204560528e-01,1.18622e-02,9.99999e-01,9.99999e-01,1.18622e-02,9.99999e-01
4.225583331e-01,1.29481e-02,9.99999e-01,9.99999e-01,1.29481e-02,9.99999e-01
4.246711247e-01,1.41089e-02,9.99999e-01,9.99999e-01,1.41089e-02,9.99999e-01
4.267944804e-01,1.53478e-02,9.99999e-01,9.99999e-01,1.53478e-02,9.99999e-01
4.289284528e-01,1.66677e-02,9.99999e-01,9.99999e-01,1.66677e-02,9.99999e-01
4.310730950e-01,1.80716e-02,9.99999e-01,9.99999e-01,1.80716e-02,9.99999e-01
4.332284605e-01,1.95626e-02,9.99999e-01,9.99999e-01,1.95626e-02,9.99999e-01
4.353946028e-01,2.11434e-02,9.99999e-01,9.99999e-01,2.11434e-02,9.99999e-01
4.375715758e-01,2.28169e-02,9.99999e-01,9.99999e-01,2.28169e-02,9.99999e-01
4.397594337e-01,2.45859e-02,9.99999e-01,9.99999e-01,2.45859e-02,9.99999e-01
4.419582309e-01,2.64529e-02,9.99999e-01,9.99999e-01,2.64529e-02,9.99999e-01
4.441680220e-01,2.84206e-02,9.99999e-01,9.99999e-01,2.84206e-02,9.99999e-01
4.463888621e-01,3.04914e-02,9.99999e-01,9.99999e-01,3.04914e-02,9.99999e-01
4.486208064e-01,3.26677e-02,9.99999e-01,9.99999e-01,3.26677e-02,9.99999e-01
4.508639105e-01,3.49517e-02,9.99999e-01,9.99999e-01,3.49517e-02,9.99999e-01
4.531182300e-01,3.73456e-02,9.99999e-01,9.99999e-01,3.73456e-02,9.99999e-01
4.553838212e-01,3.98511e-02,9.99999e-01,9.99999e-01,3.98511e-02,9.99999e-01
4.576607403e-01,4.24703e-02,9.99999e-01,9.99999e-01,4.24703e-02,9.99999e-01
4.599490440e-01,4.52048e-02,9.99999e-01,9.99999e-01,4.52048e-02,9.99999e-01
4.622487892e-01,4.80560e-02,9.99999e-01,9.99999e-01,4.80560e-02,9.99999e-01
4.645600332e-01,5.10254e-02,9.99999e-01,9.99999e-01,5.10254e-02,9.99999e-01
4.668828333e-01,5.41141e-02,9.99999e-01,9.99999e-01,5.41141e-02,9.99999e-01
4.692172475e-01,5.73233e-02,9.99999e-01,9.99999e-01,5.73233e-02,9.99999e-01
4.715633337e-01,6.06537e-02,9.99999e-01,9.99999e-01,6.06537e-02,9.99999e-01
4.739211504e-01,6.41060e-02,9.99999e-01,9.99999e-01,6.41060e-02,9.99999e-01
4.762907561e-01,6.76808e-02,9.99999e-01,9.99999e-01,6.76808e-02,9.99999e-01
4.786722099e-01,7.13784e-02,9.99999e-01,9.99999e-01,7.13784e-02,9.99999e-01
4.810655710e-01,7.51989e-02,9.99999e-01,9.99999e-01,7.51989e-02,9.99999e-01
4.834708988e-01,7.91424e-02,9.99999e-01,9.99999e-01,7.91424e-02,9.99999e-01
4.858882533e-01,8.32086e-02,9.99999e-01,9.99999e-01,8.32086e-02,9.99999e-01
4.883176946e-01,8.73972e-02,9.99999e-01,9.99999e-01,8.73972e-02,9.99999e-01
4.907592831e-01,9.17077e-02,9.99999e-01,9.99999e-01,9.17077e-02,9.99999e-01
4.932130795e-01,9.61392e-02,9.99999e-01,9.99999e-01,9.61392e-02,9.99999e-01
4.956791449e-01,1.00691e-01,9.99999e-01,9.99999e-01,1.00691e-01,9.99999e-01
4.981575406e-01,1.05362e-01,9.99999e-01,9.99999e-01,1.05362e-01,9.99999e-01
5.006483283e-01,1.10151e-01,9.99999e-01,9.99999e-01,1.10151e-01,9.99999e-01
5.031515699e-01,1.15057e-01,9.99999e-01,9.99999e-01,1.15057e-01,9.99999e-01
5.056673278e-01,1.20077e-01,9.99999e-01,9.99999e-01,1.20077e-01,9.99999e-01
5.081956644e-01,1.25211e-01,9.99999e-01,9.99999e-01,1.25211e-01,9.99999e-01
5.107366428e-01,1.30457e-01,9.99999e-01,9.99999e-01,1.30457e-01,9.99999e-01
5.132903260e-01,1.35812e-01,9.99999e-01,9.99999e-01,1.35812e-01,9.99999e-01
5.158567776e-01,1.41275e-01,9.99999e-01,9.99999e-01,1.41275e-01,9.99999e-01
5.184360615e-01,1.46843e-01,9.99999e-01,9.99999e-01,1.46843e-01,9.99999e-01
5.210282418e-01,1.52514e-01,9.99999e-01,9.99999e-01,1.52514e-01,9.99999e-01
5.236333830e-01,1.58286e-01,9.99999e-01,9.99999e-01,1.58286e-01,9.99999e-01
5.262515499e-01,1.64156e-01,9.99999e-01,9.99999e-01,1.64156e-01,9.99999e-01
5.288828077e-01,1.70120e-01,9.99999e-01,9.99999e-01,1.70120e-01,9.99999e-01
5.315272217e-01,1.76178e-01,9.99999e-01,9.99999e-01,1.76178e-01,9.99999e-01
5.341848578e-01,1.82325e-01,9.99999e-01,9.99999e-01,1.82325e-01,9.99999e-01
5.368557821e-01,1.88558e-01,9.99999e-01,9.99999e-01,1.88558e-01,9.99999e-01
5.395400610e-01,1.94875e-01,9.99999e-01,9.99999e-01,1.94875e-01,9.99999e-01
5.422377613e-01,2.01273e-01,9.99999e-01,9.99999e-01,2.01273e-01,9.99999e-01
5.449489501e-01,2.07749e-01,9.99999e-01,9.99999e-01,2.07749e-01,9.99999e-01
5.476736949e-01,2.14298e-01,9.99999e-01,9.99999e-01,2.14298e-01,9.99999e-01
5.504120634e-01,2.20919e-01,9.99999e-01,9.99999e-01,2.20919e-01,9.99999e-01
5.531641237e-01,2.27607e-01,9.99999e-01,9.99999e-01,2.27607e-01,9.99999e-01
5.559299443e-01,2.34359e-01,9.99999e-01,9.99999e-01,2.34359e-01,9.99999e-01
5.587095940e-01,2.41173e-01,9.99999e-01,9.99999e-01,2.41173e-01,9.99999e-01
5.615031420e-01,2.48044e-01,9.99999e-01,9.99999e-01,2.48044e-01,9.99999e-01
5.643106577e-01,2.54970e-01,9.99999e-01,9.99999e-01,2.54970e-01,9.99999e-01
5.671322110e-01,2.61946e-01,9.99999e-01,9.99999e-01,2.61946e-01,9.99999e-01
5.699678720e-01,2.68970e-01,9.99999e-01,9.99999e-01,2.68970e-01,9.99999e-01
5.728177114e-01,2.76038e-01,9.99999e-01,9.99999e-01,2.76038e-01,9.99999e-01
5.756818000e-01,2.83146e-01,9.99999e-01,9.99999e-01,2.83146e-01,9.99999e-01
5.785602090e-01,2.90292e-01,9.99999e-01,9.99999e-01,2.90292e-01,9.99999e-01
5.814530100e-01,2.97472e-01,9.99999e-01,9.99999e-01,2.97472e-01,9.99999e-01
5.843602750e-01,3.04682e-01,9.99999e-01,9.99999e-01,3.04682e-01,9.99999e-01
5.872820764e-01,3.11919e-01,9.99999e-01,9.99999e-01,3.11919e-01,9.99999e-01
5.902184868e-01,3.19180e-01,9.99999e-01,9.99999e-01,3.19180e-01,9.99999e-01
5.931695792e-01,3.26461e-01,9.99999e-01,9.99999e-01,3.26461e-01,9.99999e-01
5.961354271e-01,3.33760e-01,9.99999e-01,9.99999e-01,3.33760e-01,9.99999e-01
5.991161043e-01,3.41074e-01,9.99999e-01,9.99999e-01,3.41074e-01,9.99999e-01
6.021116848e-01,3.48398e-01,9.99999e-01,9.99999e-01,3.48398e-01,9.99999e-01
6.051222432e-01,3.55730e-01,9.99999e-01,9.99999e-01,3.55730e-01,9.99999e-01
6.081478544e-01,3.63067e-01,9.99999e-01,9.99999e-01,3.63067e-01,9.99999e-01
6.111885937e-01,3.70406e-01,9.99999e-01,9.99999e-01,3.70406e-01,9.99999e-01
6.142445367e-01,3.77745e-01,9.99999e-01,9.99999e-01,3.77745e-01,9.99999e-01
6.173157594e-01,3.85079e-01,9.99999e-01,9.99999e-01,3.85079e-01,9.99999e-01
6.204023382e-01,3.92406e-01,9.99999e-01,9.99999e-01,3.92406e-01,9.99999e-01
6.235043498e-01,3.99724e-01,9.99999e-01,9.99999e-01,3.99724e-01,9.99999e-01
6.266218716e-01,4.07031e-01,9.99999e-01,9.99999e-01,4.07031e-01,9.99999e-01
6.297549810e-01,4.14322e-01,9.99999e-01,9.99999e-01,4.14322e-01,9.99999e-01
6.329037559e-01,4.21596e-01,9.99999e-01,9.99999e-01,4.21596e-01,9.99999e-01
6.360682746e-01,4.28850e-01,9.99999e-01,9.99999e-01,4.28850e-01,9.99999e-01
6.392486160e-01,4.36082e-01,9.99999e-01,9.99999e-01,4.36082e-01,9.99999e-01
6.424448591e-01,4.43290e-01,9.99999e-01,9.99999e-01,4.43290e-01,9.99999e-01
6.456570834e-01,4.50471e-01,9.99999e-01,9.99999e-01,4.50471e-01,9.99999e-01
6.488853688e-01,4.57623e-01,9.99999e-01,9.99999e-01,4.57623e-01,9.99999e-01
6.521297956e-01,4.64744e-01,9.99999e-01,9.99999e-01,4.64744e-01,9.99999e-01
6.553904446e-01,4.71831e-01,9.99999e-01,9.99999e-01,4.71831e-01,9.99999e-01
6.586673968e-01,4.78884e-01,9.99999e-01,9.99999e-01,4.78884e-01,9.99999e-01
6.619607338e-01,4.85899e-01,9.99999e-01,9.99999e-01,4.85899e-01,9.99999e-01
6.652705375e-01,4.92876e-01,9.99999e-01,9.99999e-01,4.92876e-01,9.99999e-01
6.685968902e-01,4.99812e-01,9.99999e-01,9.99999e-01,4.99812e-01,9.99999e-01
6.719398746e-01,5.06706e-01,9.99999e-01,9.99999e-01,5.06706e-01,9.99999e-01
6.752995740e-01,5.13556e-01,9.99999e-01,9.99999e-01,5.13556e-01,9.99999e-01
6.786760719e-01,5.20361e-01,9.99999e-01,9.99999e-01,5.20361e-01,9.99999e-01
6.820694522e-01,5.27119e-01,9.99999e-01,9.99999e-01,5.27119e-01,9.99999e-01
6.854797995e-01,5.33828e-01,9.99999e-01,9.99999e-01,5.33828e-01,9.99999e-01
6.889071985e-01,5.40488e-01,9.99999e-01,9.99999e-01,5.40488e-01,9.99999e-01
6.923517345e-01,5.47097e-01,9.99999e-01,9.99999e-01,5.47097e-01,9.99999e-01
6.958134932e-01,5.53653e-01,9.99999e-01,9.99999e-01,5.53653e-01,9.99999e-01
6.992925606e-01,5.60157e-01,9.99999e-01,9.99999e-01,5.60157e-01,9.99999e-01
7.027890234e-01,5.66606e-01,9.99999e-01,9.99999e-01,5.66606e-01,9.99999e-01
7.063029686e-01,5.73000e-01,9.99999e-01,9.99999e-01,5.73000e-01,9.99999e-01
7.098344834e-01,5.79337e-01,9.99999e-01,9.99999e-01,5.79337e-01,9.99999e-01
7.133836558e-01,5.85618e-01,9.99999e-01,9.99999e-01,5.85618e-01,9.99999e-01
7.169505741e-01,5.91840e-01,9.99999e-01,9.99999e-01,5.91840e-01,9.99999e-01
7.205353270e-01,5.98004e-01,9.99999e-01,9.99999e-01,5.98004e-01,9.99999e-01
7.241380036e-01,6.04108e-01,9.99999e-01,9.99999e-01,6.04108e-01,9.99999e-01
7.277586936e-01,6.10152e-01,9.99999e-01,9.99999e-01,6.10152e-01,9.99999e-01
7.313974871e-01,6.16135e-01,9.99999e-01,9.99999e-01,6.16135e-01,9.99999e-01
7.350544745e-01,6.22058e-01,9.99999e-01,9.99999e-01,6.22058e-01,9.99999e-01
7.387297469e-01,6.27918e-01,9.99999e-01,9.99999e-01,6.27918e-01,9.99999e-01
7.424233956e-01,6.33716e-01,9.99999e-01,9.99999e-01,6.33716e-01,9.99999e-01
7.461355126e-01,6.39452e-01,9.99999e-01,9.99999e-01,6.39452e-01,9.99999e-01
7.498661902e-01,6.45125e-01,9.99999e-01,9.99999e-01,6.45125e-01,9.99999e-01
7.536155211e-01,6.50734e-01,9.99999e-01,9.99999e-01,6.50734e-01,9.99999e-01
7.573835987e-01,6.56280e-01,9.99999e-01,9.99999e-01,6.56280e-01,9.99999e-01
7.611705167e-01,6.61763e-01,9.99999e-01,9.99999e-01,6.61763e-01,9.99999e-01
7.649763693e-01,6.67181e-01,9.99999e-01,9.99999e-01,6.67181e-01,9.99999e-01
7.688012511e-01,6.72536e-01,9.99999e-01,9.99999e-01,6.72536e-01,9.99999e-01
7.726452574e-01,6.77826e-01,9.99999e-01,9.99999e-01,6.77826e-01,9.99999e-01
7.765084837e-01,6.83053e-01,9.99999e-01,9.99999e-01,6.83053e-01,9.99999e-01
7.803910261e-01,6.75283e-01,9.99999e-01,9.81207e-01,6.88215e-01,9.99999e-01
7.842929812e-01,6.40940e-01,9.99999e-01,9.24458e-01,6.93313e-01,9.99999e-01
7.882144461e-01,6.41566e-01,9.99999e-01,9.18690e-01,6.98348e-01,9.99999e-01
7.921555184e-01,6.69856e-01,9.99999e-01,9.52422e-01,7.03318e-01,9.99999e-01
7.961162960e-01,6.85674e-01,9.99999e-01,9.68159e-01,7.08224e-01,9.99999e-01
8.000968774e-01,7.00658e-01,9.99999e-01,9.82597e-01,7.13067e-01,9.99999e-01
8.040973618e-01,7.11371e-01,9.99999e-01,9.90979e-01,7.17846e-01,9.99999e-01
8.081178486e-01,7.19555e-01,9.99999e-01,9.95838e-01,7.22562e-01,9.99999e-01
8.121584379e-01,7.26285e-01,9.99999e-01,9.98721e-01,7.27214e-01,9.99999e-01
8.162192301e-01,7.31598e-01,9.99999e-01,9.99717e-01,7.31804e-01,9.99999e-01
8.203003262e-01,7.36329e-01,9.99999e-01,9.99995e-01,7.36332e-01,9.99999e-01
8.244018279e-01,7.40797e-01,9.99999e-01,9.99999e-01,7.40797e-01,9.99999e-01
8.285238370e-01,7.45200e-01,9.99999e-01,9.99999e-01,7.45200e-01,9.99999e-01
8.326664562e-01,7.49542e-01,9.99999e-01,9.99999e-01,7.49542e-01,9.99999e-01
8.368297885e-01,7.53822e-01,9.99999e-01,9.99999e-01,7.53822e-01,9.99999e-01
8.410139374e-01,7.58042e-01,9.99999e-01,9.99999e-01,7.58042e-01,9.99999e-01
8.452190071e-01,7.62201e-01,9.99999e-01,9.99999e-01,7.62201e-01,9.99999e-01
8.494451021e-01,7.66300e-01,9.99999e-01,9.99999e-01,7.66300e-01,9.99999e-01
8.536923276e-01,7.70340e-01,9.99999e-01,9.99999e-01,7.70340e-01,9.99999e-01
8.579607893e-01,7.74320e-01,9.99999e-01,9.99999e-01,7.74320e-01,9.99999e-01
8.622505932e-01,7.78242e-01,9.99999e-01,9.99999e-01,7.78242e-01,9.99999e-01
8.665618462e-01,7.43816e-01,9.99999e-01,9.51041e-01,7.82106e-01,9.99999e-01
8.708946554e-01,6.41463e-01,9.99999e-01,8.16202e-01,7.85912e-01,9.99999e-01
8.752491287e-01,6.72097e-01,9.99999e-01,8.51121e-01,7.89660e-01,9.99999e-01
8.796253743e-01,7.26817e-01,9.99999e-01,9.16133e-01,7.93352e-01,9.99999e-01
8.840235012e-01,7.61766e-01,9.99999e-01,9.55805e-01,7.96988e-01,9.99999e-01
8.884436187e-01,7.86508e-01,9.99999e-01,9.82435e-01,8.00568e-01,9.99999e-01
8.928858368e-01,7.98338e-01,9.99999e-01,9.92841e-01,8.04094e-01,9.99999e-01
8.973502660e-01,8.06163e-01,9.99999e-01,9.98264e-01,8.07564e-01,9.99999e-01
9.018370173e-01,8.10826e-01,9.99999e-01,9.99808e-01,8.10981e-01,9.99999e-01
9.063462024e-01,8.10242e-01,9.99999e-01,9.94962e-01,8.14344e-01,9.99999e-01
9.108779334e-01,8.08414e-01,9.99999e-01,9.88699e-01,8.17654e-01,9.99999e-01
9.154323231e-01,8.18742e-01,9.99999e-01,9.97356e-01,8.20912e-01,9.99999e-01
9.200094847e-01,7.91360e-01,9.99999e-01,9.60250e-01,8.24118e-01,9.99999e-01
9.246095321e-01,7.82405e-01,9.99999e-01,9.45764e-01,8.27273e-01,9.99999e-01
9.292325798e-01,7.94447e-01,9.99999e-01,9.56729e-01,8.30377e-01,9.99999e-01
9.338787427e-01,7.98900e-01,9.99999e-01,9.58566e-01,8.33431e-01,9.99999e-01
9.385481364e-01,8.10874e-01,9.99999e-01,9.69438e-01,8.36436e-01,9.99999e-01
9.432408771e-01,8.23646e-01,9.99999e-01,9.81240e-01,8.39392e-01,9.99999e-01
9.479570815e-01,8.34148e-01,9.99999e-01,9.90321e-01,8.42300e-01,9.99999e-01
9.526968669e-01,8.41212e-01,9.99999e-01,9.95328e-01,8.45160e-01,9.99999e-01
9.574603512e-01,8.46279e-01,9.99999e-01,9.98001e-01,8.47973e-01,9.99999e-01
9.622476530e-01,8.50210e-01,9.99999e-01,9.99376e-01,8.50740e-01,9.99999e-01
9.670588912e-01,8.53302e-01,9.99999e-01,9.99813e-01,8.53461e-01,9.99999e-01
9.718941857e-01,8.56125e-01,9.99999e-01,9.99986e-01,8.56136e-01,9.99999e-01
9.767536566e-01,8.58767e-01,9.99999e-01,9.99999e-01,8.58767e-01,9.99999e-01
9.816374249e-01,8.61353e-01,9.99999e-01,9.99999e-01,8.61353e-01,9.99999e-01
9.865456120e-01,8.63896e-01,9.99999e-01,9.99999e-01,8.63896e-01,9.99999e-01
9.914783401e-01,8.66397e-01,9.99999e-01,9.99999e-01,8.66397e-01,9.99999e-01
9.964357318e-01,8.68854e-01,9.99999e-01,9.99999e-01,8.68854e-01,9.99999e-01
1.001417910e+00,8.71270e-01,9.99999e-01,9.99999e-01,8.71270e-01,9.99999e-01
1.006425000e+00,8.73645e-01,9.99999e-01,9.99999e-01,8.73645e-01,9.99999e-01
1.011457125e+00,8.75979e-01,9.99999e-01,9.99999e-01,8.75979e-01,9.99999e-01
1.016514411e+00,8.78273e-01,9.99999e-01,9.99999e-01,8.78273e-01,9.99999e-01
1.021596983e+00,8.80502e-01,9.99999e-01,9.99970e-01,8.80528e-01,9.99999e-01
1.026704968e+00,8.81009e-01,9.99999e-01,9.98034e-01,8.82744e-01,9.99999e-01
1.031838492e+00,8.58708e-01,9.99999e-01,9.70378e-01,8.84921e-01,9.99999e-01
1.036997685e+00,2.41718e-01,9.99999e-01,2.72493e-01,8.87060e-01,9.99999e-01
1.042182673e+00,2.85642e-01,9.99999e-01,3.21248e-01,8.89163e-01,9.99999e-01
1.047393587e+00,2.66728e-01,9.99999e-01,2.99281e-01,8.91228e-01,9.99999e-01
1.052630555e+00,3.62393e-02,9.99999e-01,4.05698e-02,8.93258e-01,9.99999e-01
1.057893707e+00,7.02531e-02,9.99999e-01,7.84729e-02,8.95252e-01,9.99999e-01
1.063183176e+00,1.41404e-01,9.99999e-01,1.57603e-01,8.97210e-01,9.99999e-01
1.068499092e+00,2.60317e-01,9.99999e-01,2.89519e-01,8.99135e-01,9.99999e-01
1.073841587e+00,4.13225e-01,9.99999e-01,4.58616e-01,9.01025e-01,9.99999e-01
1.079210795e+00,5.52002e-01,9.99999e-01,6.11377e-01,9.02882e-01,9.99999e-01
1.084606849e+00,6.91776e-01,9.99999e-01,7.64642e-01,9.04706e-01,9.99999e-01
1.090029883e+00,7.88825e-01,9.99999e-01,8.70190e-01,9.06497e-01,9.99999e-01
1.095480033e+00,8.48236e-01,9.99999e-01,9.33916e-01,9.08256e-01,9.99999e-01
1.100957433e+00,8.80530e-01,9.99999e-01,9.67632e-01,9.09984e-01,9.99999e-01
1.106462220e+00,8.99381e-01,9.99999e-01,9.86507e-01,9.11681e-01,9.99999e-01
1.111994531e+00,9.08763e-01,9.99999e-01,9.94979e-01,9.13348e-01,9.99999e-01
1.117554504e+00,9.13866e-01,9.99999e-01,9.98776e-01,9.14985e-01,9.99999e-01
1.123142276e+00,9.16519e-01,9.99999e-01,9.99919e-01,9.16592e-01,9.99999e-01
1.128757988e+00,9.18170e-01,9.99999e-01,9.99999e-01,9.18170e-01,9.99999e-01
1.134401778e+00,9.19720e-01,9.99999e-01,9.99999e-01,9.19720e-01,9.99999e-01
1.140073787e+00,9.21241e-01,9.99999e-01,9.99999e-01,9.21241e-01,9.99999e-01
1.145774156e+00,9.22735e-01,9.99999e-01,9.99999e-01,9.22735e-01,9.99999e-01
1.151503026e+00,9.24202e-01,9.99999e-01,9.99999e-01,9.24202e-01,9.99999e-01
1.157260541e+00,9.25642e-01,9.99999e-01,9.99999e-01,9.25642e-01,9.99999e-01
1.163046844e+00,9.27056e-01,9.99999e-01,9.99999e-01,9.27056e-01,9.99999e-01
1.168862078e+00,9.28444e-01,9.99999e-01,9.99999e-01,9.28444e-01,9.99999e-01
1.174706389e+00,9.29806e-01,9.99999e-01,9.99999e-01,9.29806e-01,9.99999e-01
1.180579921e+00,9.31144e-01,9.99999e-01,9.99999e-01,9.31144e-01,9.99999e-01
1.186482820e+00,9.32453e-01,9.99999e-01,9.99995e-01,9.32457e-01,9.99999e-01
1.192415234e+00,9.27140e-01,9.99999e-01,9.92924e-01,9.33746e-01,9.99999e-01
1.198377311e+00,5.44014e-01,9.99999e-01,5.81826e-01,9.35011e-01,9.99999e-01
1.204369197e+00,7.30046e-07,9.99999e-01,7.79753e-07,9.36253e-01,9.99999e-01
1.210391043e+00,4.48814e-22,9.99999e-01,4.78749e-22,9.37472e-01,9.99999e-01
1.216442998e+00,2.37320e-19,9.99999e-01,2.52826e-19,9.38668e-01,9.99999e-01
1.222525213e+00,4.48327e-19,9.99999e-01,4.77023e-19,9.39842e-01,9.99999e-01
1.228637839e+00,1.09114e-14,9.99999e-01,1.15956e-14,9.40995e-01,9.99999e-01
1.234781029e+00,4.02445e-10,9.99999e-01,4.27166e-10,9.42126e-01,9.99999e-01
1.240954934e+00,7.34451e-07,9.99999e-01,7.78649e-07,9.43236e-01,9.99999e-01
1.247159708e+00,3.55129e-04,9.99999e-01,3.76066e-04,9.44325e-01,9.99999e-01
1.253395507e+00,1.20558e-02,9.99999e-01,1.27521e-02,9.45395e-01,9.99999e-01
1.259662485e+00,7.94047e-02,9.99999e-01,8.38979e-02,9.46444e-01,9.99999e-01
1.265960797e+00,2.25608e-01,9.99999e-01,2.38115e-01,9.47473e-01,9.99999e-01
1.272290601e+00,5.25828e-01,9.99999e-01,5.54387e-01,9.48484e-01,9.99999e-01
1.278652054e+00,4.61540e-01,9.99999e-01,4.86099e-01,9.49475e-01,9.99999e-01
1.285045314e+00,2.52067e-02,9.99999e-01,2.65209e-02,9.50448e-01,9.99999e-01
1.291470541e+00,2.79490e-03,9.99999e-01,2.93766e-03,9.51402e-01,9.99999e-01
1.297927893e+00,5.79853e-02,9.99999e-01,6.08872e-02,9.52339e-01,9.99999e-01
1.304417533e+00,3.26949e-01,9.99999e-01,3.42981e-01,9.53258e-01,9.99999e-01
1.310939621e+00,6.12020e-02,9.99999e-01,6.41423e-02,9.54160e-01,9.99999e-01
1.317494319e+00,4.71487e-08,9.99999e-01,4.93680e-08,9.55045e-01,9.99999e-01
1.324081790e+00,6.70644e-06,9.99999e-01,7.01574e-06,9.55913e-01,9.99999e-01
1.330702199e+00,1.70522e-03,9.99999e-01,1.78228e-03,9.56764e-01,9.99999e-01
1.337355710e+00,1.26649e-03,9.99999e-01,1.32257e-03,9.57600e-01,9.99999e-01
1.344042489e+00,4.12870e-04,9.99999e-01,4.30781e-04,9.58420e-01,9.99999e-01
1.350762701e+00,1.30291e-03,9.99999e-01,1.35830e-03,9.59224e-01,9.99999e-01
1.357516515e+00,1.25715e-02,9.99999e-01,1.30952e-02,9.60013e-01,9.99999e-01
1.364304097e+00,6.40647e-02,9.99999e-01,6.66793e-02,9.60787e-01,9.99999e-01
1.371125618e+00,2.30455e-01,9.99999e-01,2.39671e-01,9.61547e-01,9.99999e-01
1.377981246e+00,3.06297e-01,9.99999e-01,3.18300e-01,9.62292e-01,9.99999e-01
1.384871152e+00,4.94816e-01,9.99999e-01,5.13815e-01,9.63023e-01,9.99999e-01
1.391795508e+00,5.21126e-01,9.99999e-01,5.40733e-01,9.63740e-01,9.99999e-01
1.398754485e+00,6.60853e-01,9.99999e-01,6.85217e-01,9.64443e-01,9.99999e-01
1.405748258e+00,7.30317e-01,9.99999e-01,7.56700e-01,9.65133e-01,9.99999e-01
1.412776999e+00,8.10198e-01,9.99999e-01,8.38879e-01,9.65810e-01,9.99999e-01
1.419840884e+00,7.46752e-01,9.99999e-01,7.72656e-01,9.66474e-01,9.99999e-01
1.426940089e+00,9.75284e-02,9.99999e-01,1.00844e-01,9.67125e-01,9.99999e-01
1.434074789e+00,1.90842e-312,9.99999e-01,1.97199e-312,9.67764e-01,9.99999e-01
1.441245163e+00,0.00000e+00,9.99999e-01,0.00000e+00,9.68390e-01,9.99999e-01
1.448451389e+00,0.00000e+00,9.99999e-01,0.00000e+00,9.69005e-01,9.99999e-01
1.455693646e+00,1.50642e-169,9.99999e-01,1.55363e-169,9.69607e-01,9.99999e-01
1.462972114e+00,1.03225e-82,9.99999e-01,1.06395e-82,9.70199e-01,9.99999e-01
1.470286975e+00,2.34641e-35,9.99999e-01,2.41703e-35,9.70779e-01,9.99999e-01
