#,Wave/freq,Total,N2,CO2,Rayleigh,CIA
4.000000000e-01,5.61366e-08,9.99999e-01,9.99999e-01,5.61366e-08,9.99999e-01
4.020000000e-01,7.80937e-08,9.99999e-01,9.99999e-01,7.80937e-08,9.99999e-01
4.040100000e-01,1.07896e-07,9.99999e-01,9.99999e-01,1.07896e-07,9.99999e-01
4.060300500e-01,1.48122e-07,9.99999e-01,9.99999e-01,1.48122e-07,9.99999e-01
4.080602003e-01,2.02077e-07,9.99999e-01,9.99999e-01,2.02077e-07,9.99999e-01
4.101005013e-01,2.73999e-07,9.99999e-01,9.99999e-01,2.73999e-07,9.99999e-01
4.121510038e-01,3.69292e-07,9.99999e-01,9.99999e-01,3.69292e-07,9.99999e-01
4.142117588e-01,4.94801e-07,9.99999e-01,9.99999e-01,4.94801e-07,9.99999e-01
4.162828176e-01,6.59145e-07,9.99999e-01,9.99999e-01,6.59145e-07,9.99999e-01
4.183642317e-01,8.73115e-07,9.99999e-01,9.99999e-01,8.73115e-07,9.99999e-01
4.204560528e-01,1.15014e-06,9.99999e-01,9.99999e-01,1.15014e-06,9.99999e-01
4.225583331e-01,1.50683e-06,9.99999e-01,9.99999e-01,1.50683e-06,9.99999e-01
4.246711247e-01,1.96365e-06,9.99999e-01,9.99999e-01,1.96365e-06,9.99999e-01
4.267944804e-01,2.54559e-06,9.99999e-01,9.99999e-01,2.54559e-06,9.99999e-01
4.289284528e-01,3.28313e-06,9.99999e-01,9.99999e-01,3.28313e-06,9.99999e-01
4.310730950e-01,4.21314e-06,9.99999e-01,9.99999e-01,4.21314e-06,9.99999e-01
4.332284605e-01,5.38001e-06,9.99999e-01,9.99999e-01,5.38001e-06,9.99999e-01
4.353946028e-01,6.83696e-06,9.99999e-01,9.99999e-01,6.83696e-06,9.99999e-01
4.375715758e-01,8.64743e-06,9.99999e-01,9.99999e-01,8.64743e-06,9.99999e-01
4.397594337e-01,1.08867e-05,9.99999e-01,9.99999e-01,1.08867e-05,9.99999e-01
4.419582309e-01,1.36436e-05,9.99999e-01,9.99999e-01,1.36436e-05,9.99999e-01
4.441680220e-01,1.70226e-05,9.99999e-01,9.99999e-01,1.70226e-05,9.99999e-01
4.463888621e-01,2.11459e-05,9.99999e-01,9.99999e-01,2.11459e-05,9.99999e-01
4.486208064e-01,2.61556e-05,9.99999e-01,9.99999e-01,2.61556e-05,9.99999e-01
4.508639105e-01,3.22165e-05,9.99999e-01,9.99999e-01,3.22165e-05,9.99999e-01
4.531182300e-01,3.95190e-05,9.99999e-01,9.99999e-01,3.95190e-05,9.99999e-01
4.553838212e-01,4.82814e-05,9.99999e-01,9.99999e-01,4.82814e-05,9.99999e-01
4.576607403e-01,5.87537e-05,9.99999e-01,9.99999e-01,5.87537e-05,9.99999e-01
4.599490440e-01,7.12209e-05,9.99999e-01,9.99999e-01,7.12209e-05,9.99999e-01
4.622487892e-01,8.60060e-05,9.99999e-01,9.99999e-01,8.60060e-05,9.99999e-01
4.645600332e-01,1.03474e-04,9.99999e-01,9.99999e-01,1.03474e-04,9.99999e-01
4.668828333e-01,1.24036e-04,9.99999e-01,9.99999e-01,1.24036e-04,9.99999e-01
4.692172475e-01,1.48153e-04,9.99999e-01,9.99999e-01,1.48153e-04,9.99999e-01
4.715633337e-01,1.76339e-04,9.99999e-01,9.99999e-01,1.76339e-04,9.99999e-01
4.739211504e-01,2.09167e-04,9.99999e-01,9.99999e-01,2.09167e-04,9.99999e-01
4.762907561e-01,2.47270e-04,9.99999e-01,9.99999e-01,2.47270e-04,9.99999e-01
4.786722099e-01,2.91351e-04,9.99999e-01,9.99999e-01,2.91351e-04,9.99999e-01
4.810655710e-01,3.42178e-04,9.99999e-01,9.99999e-01,3.42178e-04,9.99999e-01
4.834708988e-01,4.00599e-04,9.99999e-01,9.99999e-01,4.00599e-04,9.99999e-01
4.858882533e-01,4.67535e-04,9.99999e-01,9.99999e-01,4.67535e-04,9.99999e-01
4.883176946e-01,5.43994e-04,9.99999e-01,9.99999e-01,5.43994e-04,9.99999e-01
4.907592831e-01,6.31065e-04,9.99999e-01,9.99999e-01,6.31065e-04,9.99999e-01
4.932130795e-01,7.29929e-04,9.99999e-01,9.99999e-01,7.29929e-04,9.99999e-01
4.956791449e-01,8.41857e-04,9.99999e-01,9.99999e-01,8.41857e-04,9.99999e-01
4.981575406e-01,9.68217e-04,9.99999e-01,9.99999e-01,9.68217e-04,9.99999e-01
5.006483283e-01,1.11047e-03,9.99999e-01,9.99999e-01,1.11047e-03,9.99999e-01
5.031515699e-01,1.27018e-03,9.99999e-01,9.99999e-01,1.27018e-03,9.99999e-01
5.056673278e-01,1.44901e-03,9.99999e-01,9.99999e-01,1.44901e-03,9.99999e-01
5.081956644e-01,1.64872e-03,9.99999e-01,9.99999e-01,1.64872e-03,9.99999e-01
5.107366428e-01,1.87118e-03,9.99999e-01,9.99999e-01,1.87118e-03,9.99999e-01
5.132903260e-01,2.11835e-03,9.99999e-01,9.99999e-01,2.11835e-03,9.99999e-01
5.158567776e-01,2.39230e-03,9.99999e-01,9.99999e-01,2.39230e-03,9.99999e-01
5.184360615e-01,2.69520e-03,9.99999e-01,9.99999e-01,2.69520e-03,9.99999e-01
5.210282418e-01,3.02931e-03,9.99999e-01,9.99999e-01,3.02931e-03,9.99999e-01
5.236333830e-01,3.39698e-03,9.99999e-01,9.99999e-01,3.39698e-03,9.99999e-01
5.262515499e-01,3.80067e-03,9.99999e-01,9.99999e-01,3.80067e-03,9.99999e-01
5.288828077e-01,4.24291e-03,9.99999e-01,9.99999e-01,4.24291e-03,9.99999e-01
5.315272217e-01,4.72632e-03,9.99999e-01,9.99999e-01,4.72632e-03,9.99999e-01
5.341848578e-01,5.25360e-03,9.99999e-01,9.99999e-01,5.25360e-03,9.99999e-01
5.368557821e-01,5.82752e-03,9.99999e-01,9.99999e-01,5.82752e-03,9.99999e-01
5.395400610e-01,6.45091e-03,9.99999e-01,9.99999e-01,6.45091e-03,9.99999e-01
5.422377613e-01,7.12667e-03,9.99999e-01,9.99999e-01,7.12667e-03,9.99999e-01
5.449489501e-01,7.85773e-03,9.99999e-01,9.99999e-01,7.85773e-03,9.99999e-01
5.476736949e-01,8.64710e-03,9.99999e-01,9.99999e-01,8.64710e-03,9.99999e-01
5.504120634e-01,9.49778e-03,9.99999e-01,9.99999e-01,9.49778e-03,9.99999e-01
5.531641237e-01,1.04128e-02,9.99999e-01,9.99999e-01,1.04128e-02,9.99999e-01
5.559299443e-01,1.13953e-02,9.99999e-01,9.99999e-01,1.13953e-02,9.99999e-01
5.587095940e-01,1.24483e-02,9.99999e-01,9.99999e-01,1.24483e-02,9.99999e-01
5.615031420e-01,1.35749e-02,9.99999e-01,9.99999e-01,1.35749e-02,9.99999e-01
5.643106577e-01,1.47782e-02,9.99999e-01,9.99999e-01,1.47782e-02,9.99999e-01
5.671322110e-01,1.60611e-02,9.99999e-01,9.99999e-01,1.60611e-02,9.99999e-01
5.699678720e-01,1.74267e-02,9.99999e-01,9.99999e-01,1.74267e-02,9.99999e-01
5.728177114e-01,1.88780e-02,9.99999e-01,9.99999e-01,1.88780e-02,9.99999e-01
5.756818000e-01,2.04179e-02,9.99999e-01,9.99999e-01,2.04179e-02,9.99999e-01
5.785602090e-01,2.20491e-02,9.99999e-01,9.99999e-01,2.20491e-02,9.99999e-01
5.814530100e-01,2.37746e-02,9.99999e-01,9.99999e-01,2.37746e-02,9.99999e-01
5.843602750e-01,2.55970e-02,9.99999e-01,9.99999e-01,2.55970e-02,9.99999e-01
5.872820764e-01,2.75189e-02,9.99999e-01,9.99999e-01,2.75189e-02,9.99999e-01
5.902184868e-01,2.95429e-02,9.99999e-01,9.99999e-01,2.95429e-02,9.99999e-01
5.931695792e-01,3.16712e-02,9.99999e-01,9.99999e-01,3.16712e-02,9.99999e-01
5.961354271e-01,3.39063e-02,9.99999e-01,9.99999e-01,3.39063e-02,9.99999e-01
5.991161043e-01,3.62503e-02,9.99999e-01,9.99999e-01,3.62503e-02,9.99999e-01
6.021116848e-01,3.87051e-02,9.99999e-01,9.99999e-01,3.87051e-02,9.99999e-01
6.051222432e-01,4.12728e-02,9.99999e-01,9.99999e-01,4.12728e-02,9.99999e-01
6.081478544e-01,4.39549e-02,9.99999e-01,9.99999e-01,4.39549e-02,9.99999e-01
6.111885937e-01,4.67532e-02,9.99999e-01,9.99999e-01,4.67532e-02,9.99999e-01
6.142445367e-01,4.96691e-02,9.99999e-01,9.99999e-01,4.96691e-02,9.99999e-01
6.173157594e-01,5.27038e-02,9.99999e-01,9.99999e-01,5.27038e-02,9.99999e-01
6.204023382e-01,5.58584e-02,9.99999e-01,9.99999e-01,5.58584e-02,9.99999e-01
6.235043498e-01,5.91339e-02,9.99999e-01,9.99999e-01,5.91339e-02,9.99999e-01
6.266218716e-01,6.25311e-02,9.99999e-01,9.99999e-01,6.25311e-02,9.99999e-01
6.297549810e-01,6.60505e-02,9.99999e-01,9.99999e-01,6.60505e-02,9.99999e-01
6.329037559e-01,6.96925e-02,9.99999e-01,9.99999e-01,6.96925e-02,9.99999e-01
6.360682746e-01,7.34575e-02,9.99999e-01,9.99999e-01,7.34575e-02,9.99999e-01
6.392486160e-01,7.73454e-02,9.99999e-01,9.99999e-01,7.73454e-02,9.99999e-01
6.424448591e-01,8.13562e-02,9.99999e-01,9.99999e-01,8.13562e-02,9.99999e-01
6.456570834e-01,8.54896e-02,9.99999e-01,9.99999e-01,8.54896e-02,9.99999e-01
6.488853688e-01,8.97451e-02,9.99999e-01,9.99999e-01,8.97451e-02,9.99999e-01
6.521297956e-01,9.41220e-02,9.99999e-01,9.99999e-01,9.41220e-02,9.99999e-01
6.553904446e-01,9.86197e-02,9.99999e-01,9.99999e-01,9.86197e-02,9.99999e-01
6.586673968e-01,1.03237e-01,9.99999e-01,9.99999e-01,1.03237e-01,9.99999e-01
6.619607338e-01,1.07973e-01,9.99999e-01,9.99999e-01,1.07973e-01,9.99999e-01
6.652705375e-01,1.12826e-01,9.99999e-01,9.99999e-01,1.12826e-01,9.99999e-01
6.685968902e-01,1.17795e-01,9.99999e-01,9.99999e-01,1.17795e-01,9.99999e-01
6.719398746e-01,1.22878e-01,9.99999e-01,9.99999e-01,1.22878e-01,9.99999e-01
6.752995740e-01,1.28073e-01,9.99999e-01,9.99999e-01,1.28073e-01,9.99999e-01
6.786760719e-01,1.33379e-01,9.99999e-01,9.99999e-01,1.33379e-01,9.99999e-01
6.820694522e-01,1.38794e-01,9.99999e-01,9.99999e-01,1.38794e-01,9.99999e-01
6.854797995e-01,1.44315e-01,9.99999e-01,9.99999e-01,1.44315e-01,9.99999e-01
6.889071985e-01,1.49940e-01,9.99999e-01,9.99999e-01,1.49940e-01,9.99999e-01
6.923517345e-01,1.55666e-01,9.99999e-01,9.99999e-01,1.55666e-01,9.99999e-01
6.958134932e-01,1.61492e-01,9.99999e-01,9.99999e-01,1.61492e-01,9.99999e-01
6.992925606e-01,1.67414e-01,9.99999e-01,9.99999e-01,1.67414e-01,9.99999e-01
7.027890234e-01,1.73430e-01,9.99999e-01,9.99999e-01,1.73430e-01,9.99999e-01
7.063029686e-01,1.79536e-01,9.99999e-01,9.99999e-01,1.79536e-01,9.99999e-01
7.098344834e-01,1.85731e-01,9.99999e-01,9.99999e-01,1.85731e-01,9.99999e-01
7.133836558e-01,1.92011e-01,9.99999e-01,9.99999e-01,1.92011e-01,9.99999e-01
7.169505741e-01,1.98373e-01,9.99999e-01,9.99999e-01,1.98373e-01,9.99999e-01
7.205353270e-01,2.04814e-01,9.99999e-01,9.99999e-01,2.04814e-01,9.99999e-01
7.241380036e-01,2.11330e-01,9.99999e-01,9.99999e-01,2.11330e-01,9.99999e-01
7.277586936e-01,2.17919e-01,9.99999e-01,9.99999e-01,2.17919e-01,9.99999e-01
7.313974871e-01,2.24577e-01,9.99999e-01,9.99999e-01,2.24577e-01,9.99999e-01
7.350544745e-01,2.31301e-01,9.99999e-01,9.99999e-01,2.31301e-01,9.99999e-01
7.387297469e-01,2.38087e-01,9.99999e-01,9.99999e-01,2.38087e-01,9.99999e-01
7.424233956e-01,2.44933e-01,9.99999e-01,9.99999e-01,2.44933e-01,9.99999e-01
7.461355126e-01,2.51834e-01,9.99999e-01,9.99999e-01,2.51834e-01,9.99999e-01
7.498661902e-01,2.58788e-01,9.99999e-01,9.99999e-01,2.58788e-01,9.99999e-01
7.536155211e-01,2.65791e-01,9.99999e-01,9.99999e-01,2.65791e-01,9.99999e-01
7.573835987e-01,2.72839e-01,9.99999e-01,9.99999e-01,2.72839e-01,9.99999e-01
7.611705167e-01,2.79930e-01,9.99999e-01,9.99999e-01,2.79930e-01,9.99999e-01
7.649763693e-01,2.87059e-01,9.99999e-01,9.99999e-01,2.87059e-01,9.99999e-01
7.688012511e-01,2.94224e-01,9.99999e-01,9.99999e-01,2.94224e-01,9.99999e-01
7.726452574e-01,3.01420e-01,9.99999e-01,9.99999e-01,3.01420e-01,9.99999e-01
7.765084837e-01,3.08646e-01,9.99999e-01,9.99999e-01,3.08646e-01,9.99999e-01
7.803910261e-01,3.00384e-01,9.99999e-01,9.50894e-01,3.15896e-01,9.99999e-01
7.842929812e-01,2.55234e-01,9.99999e-01,7.89783e-01,3.23169e-01,9.99999e-01
7.882144461e-01,2.57174e-01,9.99999e-01,7.78228e-01,3.30461e-01,9.99999e-01
7.921555184e-01,2.91136e-01,9.99999e-01,8.61941e-01,3.37768e-01,9.99999e-01
7.961162960e-01,3.12180e-01,9.99999e-01,9.04639e-01,3.45088e-01,9.99999e-01
8.000968774e-01,3.33794e-01,9.99999e-01,9.47156e-01,3.52417e-01,9.99999e-01
8.040973618e-01,3.49747e-01,9.99999e-01,9.72189e-01,3.59752e-01,9.99999e-01
8.081178486e-01,3.62380e-01,9.99999e-01,9.87167e-01,3.67091e-01,9.99999e-01
8.121584379e-01,3.72932e-01,9.99999e-01,9.95999e-01,3.74429e-01,9.99999e-01
8.162192301e-01,3.81428e-01,9.99999e-01,9.99115e-01,3.81766e-01,9.99999e-01
8.203003262e-01,3.89091e-01,9.99999e-01,9.99985e-01,3.89097e-01,9.99999e-01
8.244018279e-01,3.96419e-01,9.99999e-01,9.99999e-01,3.96419e-01,9.99999e-01
8.285238370e-01,4.03731e-01,9.99999e-01,9.99999e-01,4.03731e-01,9.99999e-01
8.326664562e-01,4.11029e-01,9.99999e-01,9.99999e-01,4.11029e-01,9.99999e-01
8.368297885e-01,4.18312e-01,9.99999e-01,9.99999e-01,4.18312e-01,9.99999e-01
8.410139374e-01,4.25575e-01,9.99999e-01,9.99999e-01,4.25575e-01,9.99999e-01
8.452190071e-01,4.32818e-01,9.99999e-01,9.99999e-01,4.32818e-01,9.99999e-01
8.494451021e-01,4.40037e-01,9.99999e-01,9.99999e-01,4.40037e-01,9.99999e-01
8.536923276e-01,4.47230e-01,9.99999e-01,9.99999e-01,4.47230e-01,9.99999e-01
8.579607893e-01,4.54395e-01,9.99999e-01,9.99999e-01,4.54395e-01,9.99999e-01
8.622505932e-01,4.61530e-01,9.99999e-01,9.99999e-01,4.61530e-01,9.99999e-01
8.665618462e-01,4.24504e-01,9.99999e-01,9.05833e-01,4.68633e-01,9.99999e-01
8.708946554e-01,2.63605e-01,9.99999e-01,5.54138e-01,4.75702e-01,9.99999e-01
8.752491287e-01,2.98077e-01,9.99999e-01,6.17475e-01,4.82734e-01,9.99999e-01
8.796253743e-01,3.74764e-01,9.99999e-01,7.65246e-01,4.89729e-01,9.99999e-01
8.840235012e-01,4.32031e-01,9.99999e-01,8.69831e-01,4.96684e-01,9.99999e-01
8.884436187e-01,4.76559e-01,9.99999e-01,9.46310e-01,5.03597e-01,9.99999e-01
8.928858368e-01,4.99195e-01,9.99999e-01,9.77917e-01,5.10467e-01,9.99999e-01
8.973502660e-01,5.14485e-01,9.99999e-01,9.94571e-01,5.17292e-01,9.99999e-01
9.018370173e-01,5.23757e-01,9.99999e-01,9.99399e-01,5.24071e-01,9.99999e-01
9.063462024e-01,5.22878e-01,9.99999e-01,9.85069e-01,5.30803e-01,9.99999e-01
9.108779334e-01,5.18903e-01,9.99999e-01,9.65427e-01,5.37485e-01,9.99999e-01
9.154323231e-01,5.39618e-01,9.99999e-01,9.91731e-01,5.44117e-01,9.99999e-01
9.200094847e-01,4.91175e-01,9.99999e-01,8.91914e-01,5.50697e-01,9.99999e-01
9.246095321e-01,4.69267e-01,9.99999e-01,8.42149e-01,5.57225e-01,9.99999e-01
9.292325798e-01,4.93447e-01,9.99999e-01,8.75373e-01,5.63699e-01,9.99999e-01
9.338787427e-01,5.00683e-01,9.99999e-01,8.78209e-01,5.70118e-01,9.99999e-01
9.385481364e-01,5.23897e-01,9.99999e-01,9.08784e-01,5.76481e-01,9.99999e-01
9.432408771e-01,5.49534e-01,9.99999e-01,9.42940e-01,5.82787e-01,9.99999e-01
9.479570815e-01,5.71572e-01,9.99999e-01,9.70351e-01,5.89036e-01,9.99999e-01
9.526968669e-01,5.86645e-01,9.99999e-01,9.85582e-01,5.95226e-01,9.99999e-01
9.574603512e-01,5.97633e-01,9.99999e-01,9.93806e-01,6.01357e-01,9.99999e-01
9.622476530e-01,6.06252e-01,9.99999e-01,9.98063e-01,6.07429e-01,9.99999e-01
9.670588912e-01,6.13083e-01,9.99999e-01,9.99418e-01,6.13440e-01,9.99999e-01
9.718941857e-01,6.19364e-01,9.99999e-01,9.99958e-01,6.19389e-01,9.99999e-01
9.767536566e-01,6.25278e-01,9.99999e-01,9.99999e-01,6.25278e-01,9.99999e-01
9.816374249e-01,6.31104e-01,9.99999e-01,9.99999e-01,6.31104e-01,9.99999e-01
9.865456120e-01,6.36868e-01,9.99999e-01,9.99999e-01,6.36868e-01,9.99999e-01
9.914783401e-01,6.42569e-01,9.99999e-01,9.99999e-01,6.42569e-01,9.99999e-01
9.964357318e-01,6.48208e-01,9.99999e-01,9.99999e-01,6.48208e-01,9.99999e-01
1.001417910e+00,6.53782e-01,9.99999e-01,9.99999e-01,6.53782e-01,9.99999e-01
1.006425000e+00,6.59294e-01,9.99999e-01,9.99999e-01,6.59294e-01,9.99999e-01
1.011457125e+00,6.64741e-01,9.99999e-01,9.99999e-01,6.64741e-01,9.99999e-01
1.016514411e+00,6.70125e-01,9.99999e-01,9.99999e-01,6.70125e-01,9.99999e-01
1.021596983e+00,6.75393e-01,9.99999e-01,9.99924e-01,6.75444e-01,9.99999e-01
1.026704968e+00,6.76716e-01,9.99999e-01,9.94147e-01,6.80699e-01,9.99999e-01
1.031838492e+00,6.46062e-01,9.99999e-01,9.41930e-01,6.85891e-01,9.99999e-01
1.036997685e+00,6.99202e-02,9.99999e-01,1.01184e-01,6.91018e-01,9.99999e-01
1.042182673e+00,2.80351e-02,9.99999e-01,4.02756e-02,6.96081e-01,9.99999e-01
1.047393587e+00,4.44215e-02,9.99999e-01,6.33614e-02,7.01080e-01,9.99999e-01
1.052630555e+00,2.32855e-04,9.99999e-01,3.29815e-04,7.06015e-01,9.99999e-01
1.057893707e+00,7.30277e-04,9.99999e-01,1.02728e-03,7.10887e-01,9.99999e-01
1.063183176e+00,4.28298e-03,9.99999e-01,5.98436e-03,7.15694e-01,9.99999e-01
1.068499092e+00,1.84509e-02,9.99999e-01,2.56107e-02,7.20439e-01,9.99999e-01
1.073841587e+00,7.05005e-02,9.99999e-01,9.72259e-02,7.25120e-01,9.99999e-01
1.079210795e+00,1.66878e-01,9.99999e-01,2.28682e-01,7.29738e-01,9.99999e-01
1.084606849e+00,3.23158e-01,9.99999e-01,4.40093e-01,7.34294e-01,9.99999e-01
1.090029883e+00,4.81961e-01,9.99999e-01,6.52367e-01,7.38787e-01,9.99999e-01
1.095480033e+00,6.01910e-01,9.99999e-01,8.09869e-01,7.43218e-01,9.99999e-01
1.100957433e+00,6.75272e-01,9.99999e-01,9.03266e-01,7.47588e-01,9.99999e-01
1.106462220e+00,7.20884e-01,9.99999e-01,9.58755e-01,7.51896e-01,9.99999e-01
1.111994531e+00,7.44427e-01,9.99999e-01,9.84505e-01,7.56143e-01,9.99999e-01
1.117554504e+00,7.57429e-01,9.99999e-01,9.96185e-01,7.60329e-01,9.99999e-01
1.123142276e+00,7.64263e-01,9.99999e-01,9.99747e-01,7.64456e-01,9.99999e-01
1.128757988e+00,7.68522e-01,9.99999e-01,9.99999e-01,7.68522e-01,9.99999e-01
1.134401778e+00,7.72529e-01,9.99999e-01,9.99999e-01,7.72529e-01,9.99999e-01
1.140073787e+00,7.76477e-01,9.99999e-01,9.99999e-01,7.76477e-01,9.99999e-01
1.145774156e+00,7.80367e-01,9.99999e-01,9.99999e-01,7.80367e-01,9.99999e-01
1.151503026e+00,7.84199e-01,9.99999e-01,9.99999e-01,7.84199e-01,9.99999e-01
1.157260541e+00,7.87974e-01,9.99999e-01,9.99999e-01,7.87974e-01,9.99999e-01
1.163046844e+00,7.91691e-01,9.99999e-01,9.99999e-01,7.91691e-01,9.99999e-01
1.168862078e+00,7.95352e-01,9.99999e-01,9.99999e-01,7.95352e-01,9.99999e-01
1.174706389e+00,7.98958e-01,9.99999e-01,9.99999e-01,7.98958e-01,9.99999e-01
1.180579921e+00,8.02508e-01,9.99999e-01,9.99999e-01,8.02508e-01,9.99999e-01
1.186482820e+00,8.05996e-01,9.99999e-01,9.99990e-01,8.06003e-01,9.99999e-01
1.192415234e+00,7.92860e-01,9.99999e-01,9.79512e-01,8.09444e-01,9.99999e-01
1.198377311e+00,4.46051e-01,9.99999e-01,5.48761e-01,8.12831e-01,9.99999e-01
1.204369197e+00,1.77578e-16,9.99999e-01,2.17575e-16,8.16165e-01,9.99999e-01
1.210391043e+00,2.25910e-63,9.99999e-01,2.75686e-63,8.19446e-01,9.99999e-01
1.216442998e+00,5.49175e-55,9.99999e-01,6.67546e-55,8.22676e-01,9.99999e-01
1.222525213e+00,3.53693e-54,9.99999e-01,4.28275e-54,8.25854e-01,9.99999e-01
1.228637839e+00,6.15691e-42,9.99999e-01,7.42708e-42,8.28981e-01,9.99999e-01
1.234781029e+00,1.43030e-26,9.99999e-01,1.71899e-26,8.32058e-01,9.99999e-01
1.240954934e+00,7.89512e-18,9.99999e-01,9.45426e-18,8.35085e-01,9.99999e-01
1.247159708e+00,3.09109e-09,9.99999e-01,3.68837e-09,8.38063e-01,9.99999e-01
1.253395507e+00,3.77958e-06,9.99999e-01,4.49419e-06,8.40992e-01,9.99999e-01
1.259662485e+00,7.22062e-04,9.99999e-01,8.55651e-04,8.43874e-01,9.99999e-01
1.265960797e+00,1.48244e-02,9.99999e-01,1.75083e-02,8.46708e-01,9.99999e-01
1.272290601e+00,1.26631e-01,9.99999e-01,1.49065e-01,8.49496e-01,9.99999e-01
1.278652054e+00,1.25073e-01,9.99999e-01,1.46758e-01,8.52237e-01,9.99999e-01
1.285045314e+00,1.34634e-03,9.99999e-01,1.57479e-03,8.54933e-01,9.99999e-01
1.291470541e+00,5.14529e-08,9.99999e-01,5.99974e-08,8.57584e-01,9.99999e-01
1.297927893e+00,4.84230e-04,9.99999e-01,5.62933e-04,8.60190e-01,9.99999e-01
1.304417533e+00,3.39897e-02,9.99999e-01,3.93968e-02,8.62753e-01,9.99999e-01
1.310939621e+00,8.18738e-03,9.99999e-01,9.46219e-03,8.65272e-01,9.99999e-01
1.317494319e+00,4.20597e-22,9.99999e-01,4.84698e-22,8.67749e-01,9.99999e-01
1.324081790e+00,6.88841e-15,9.99999e-01,7.91604e-15,8.70184e-01,9.99999e-01
1.330702199e+00,7.93638e-09,9.99999e-01,9.09533e-09,8.72577e-01,9.99999e-01
1.337355710e+00,2.24893e-08,9.99999e-01,2.57041e-08,8.74930e-01,9.99999e-01
1.344042489e+00,8.37187e-09,9.99999e-01,9.54340e-09,8.77242e-01,9.99999e-01
1.350762701e+00,4.38868e-09,9.99999e-01,4.98989e-09,8.79514e-01,9.99999e-01
1.357516515e+00,5.98063e-06,9.99999e-01,6.78269e-06,8.81747e-01,9.99999e-01
1.364304097e+00,2.78184e-04,9.99999e-01,3.14708e-04,8.83942e-01,9.99999e-01
1.371125618e+00,1.38346e-02,9.99999e-01,1.56130e-02,8.86098e-01,9.99999e-01
1.377981246e+00,2.70828e-02,9.99999e-01,3.04912e-02,8.88217e-01,9.99999e-01
1.384871152e+00,1.16775e-01,9.99999e-01,1.31163e-01,8.90300e-01,9.99999e-01
1.391795508e+00,1.36358e-01,9.99999e-01,1.52808e-01,8.92345e-01,9.99999e-01
1.398754485e+00,2.78697e-01,9.99999e-01,3.11618e-01,8.94355e-01,9.99999e-01
1.405748258e+00,3.80807e-01,9.99999e-01,4.24851e-01,8.96330e-01,9.99999e-01
1.412776999e+00,5.22208e-01,9.99999e-01,5.81348e-01,8.98270e-01,9.99999e-01
1.419840884e+00,4.71949e-01,9.99999e-01,5.24286e-01,9.00175e-01,9.99999e-01
1.426940089e+00,3.06931e-02,9.99999e-01,3.40260e-02,9.02047e-01,9.99999e-01
1.434074789e+00,0.00000e+00,9.99999e-01,0.00000e+00,9.03886e-01,9.99999e-01
1.441245163e+00,0.00000e+00,9.99999e-01,0.00000e+00,9.05692e-01,9.99999e-01
1.448451389e+00,0.00000e+00,9.99999e-01,0.00000e+00,9.07465e-01,9.99999e-01
1.455693646e+00,0.00000e+00,9.99999e-01,0.00000e+00,9.09208e-01,9.99999e-01
1.462972114e+00,2.52962e-250,9.99999e-01,2.77700e-250,9.10919e-01,9.99999e-01
1.470286975e+00,2.51340e-104,9.99999e-01,2.75411e-104,9.12599e-01,9.99999e-01
