#,Wave/freq,Total,N2,CO2,Rayleigh,CIA
4.000000000e-01,6.65520e-09,9.99999e-01,9.99999e-01,6.65520e-09,9.99999e-01
4.020000000e-01,9.65694e-09,9.99999e-01,9.99999e-01,9.65694e-09,9.99999e-01
4.040100000e-01,1.39046e-08,9.99999e-01,9.99999e-01,1.39046e-08,9.99999e-01
4.060300500e-01,1.98770e-08,9.99999e-01,9.99999e-01,1.98770e-08,9.99999e-01
4.080602003e-01,2.82148e-08,9.99999e-01,9.99999e-01,2.82148e-08,9.99999e-01
4.101005013e-01,3.97740e-08,9.99999e-01,9.99999e-01,3.97740e-08,9.99999e-01
4.121510038e-01,5.56898e-08,9.99999e-01,9.99999e-01,5.56898e-08,9.99999e-01
4.142117588e-01,7.74577e-08,9.99999e-01,9.99999e-01,7.74577e-08,9.99999e-01
4.162828176e-01,1.07034e-07,9.99999e-01,9.99999e-01,1.07034e-07,9.99999e-01
4.183642317e-01,1.46963e-07,9.99999e-01,9.99999e-01,1.46963e-07,9.99999e-01
4.204560528e-01,2.00527e-07,9.99999e-01,9.99999e-01,2.00527e-07,9.99999e-01
4.225583331e-01,2.71938e-07,9.99999e-01,9.99999e-01,2.71938e-07,9.99999e-01
4.246711247e-01,3.66569e-07,9.99999e-01,9.99999e-01,3.66569e-07,9.99999e-01
4.267944804e-01,4.91224e-07,9.99999e-01,9.99999e-01,4.91224e-07,9.99999e-01
4.289284528e-01,6.54475e-07,9.99999e-01,9.99999e-01,6.54475e-07,9.99999e-01
4.310730950e-01,8.67050e-07,9.99999e-01,9.99999e-01,8.67050e-07,9.99999e-01
4.332284605e-01,1.14231e-06,9.99999e-01,9.99999e-01,1.14231e-06,9.99999e-01
4.353946028e-01,1.49677e-06,9.99999e-01,9.99999e-01,1.49677e-06,9.99999e-01
4.375715758e-01,1.95079e-06,9.99999e-01,9.99999e-01,1.95079e-06,9.99999e-01
4.397594337e-01,2.52926e-06,9.99999e-01,9.99999e-01,2.52926e-06,9.99999e-01
4.419582309e-01,3.26249e-06,9.99999e-01,9.99999e-01,3.26249e-06,9.99999e-01
4.441680220e-01,4.18716e-06,9.99999e-01,9.99999e-01,4.18716e-06,9.99999e-01
4.463888621e-01,5.34749e-06,9.99999e-01,9.99999e-01,5.34749e-06,9.99999e-01
4.486208064e-01,6.79645e-06,9.99999e-01,9.99999e-01,6.79645e-06,9.99999e-01
4.508639105e-01,8.59721e-06,9.99999e-01,9.99999e-01,8.59721e-06,9.99999e-01
4.531182300e-01,1.08247e-05,9.99999e-01,9.99999e-01,1.08247e-05,9.99999e-01
4.553838212e-01,1.35675e-05,9.99999e-01,9.99999e-01,1.35675e-05,9.99999e-01
4.576607403e-01,1.69295e-05,9.99999e-01,9.99999e-01,1.69295e-05,9.99999e-01
4.599490440e-01,2.10325e-05,9.99999e-01,9.99999e-01,2.10325e-05,9.99999e-01
4.622487892e-01,2.60181e-05,9.99999e-01,9.99999e-01,2.60181e-05,9.99999e-01
4.645600332e-01,3.20505e-05,9.99999e-01,9.99999e-01,3.20505e-05,9.99999e-01
4.668828333e-01,3.93193e-05,9.99999e-01,9.99999e-01,3.93193e-05,9.99999e-01
4.692172475e-01,4.80422e-05,9.99999e-01,9.99999e-01,4.80422e-05,9.99999e-01
4.715633337e-01,5.84684e-05,9.99999e-01,9.99999e-01,5.84684e-05,9.99999e-01
4.739211504e-01,7.08819e-05,9.99999e-01,9.99999e-01,7.08819e-05,9.99999e-01
4.762907561e-01,8.56047e-05,9.99999e-01,9.99999e-01,8.56047e-05,9.99999e-01
4.786722099e-01,1.03001e-04,9.99999e-01,9.99999e-01,1.03001e-04,9.99999e-01
4.810655710e-01,1.23480e-04,9.99999e-01,9.99999e-01,1.23480e-04,9.99999e-01
4.834708988e-01,1.47502e-04,9.99999e-01,9.99999e-01,1.47502e-04,9.99999e-01
4.858882533e-01,1.75579e-04,9.99999e-01,9.99999e-01,1.75579e-04,9.99999e-01
4.883176946e-01,2.08283e-04,9.99999e-01,9.99999e-01,2.08283e-04,9.99999e-01
4.907592831e-01,2.46246e-04,9.99999e-01,9.99999e-01,2.46246e-04,9.99999e-01
4.932130795e-01,2.90168e-04,9.99999e-01,9.99999e-01,2.90168e-04,9.99999e-01
4.956791449e-01,3.40817e-04,9.99999e-01,9.99999e-01,3.40817e-04,9.99999e-01
4.981575406e-01,3.99036e-04,9.99999e-01,9.99999e-01,3.99036e-04,9.99999e-01
5.006483283e-01,4.65747e-04,9.99999e-01,9.99999e-01,4.65747e-04,9.99999e-01
5.031515699e-01,5.41954e-04,9.99999e-01,9.99999e-01,5.41954e-04,9.99999e-01
5.056673278e-01,6.28746e-04,9.99999e-01,9.99999e-01,6.28746e-04,9.99999e-01
5.081956644e-01,7.27299e-04,9.99999e-01,9.99999e-01,7.27299e-04,9.99999e-01
5.107366428e-01,8.38884e-04,9.99999e-01,9.99999e-01,8.38884e-04,9.99999e-01
5.132903260e-01,9.64865e-04,9.99999e-01,9.99999e-01,9.64865e-04,9.99999e-01
5.158567776e-01,1.10670e-03,9.99999e-01,9.99999e-01,1.10670e-03,9.99999e-01
5.184360615e-01,1.26596e-03,9.99999e-01,9.99999e-01,1.26596e-03,9.99999e-01
5.210282418e-01,1.44429e-03,9.99999e-01,9.99999e-01,1.44429e-03,9.99999e-01
5.236333830e-01,1.64345e-03,9.99999e-01,9.99999e-01,1.64345e-03,9.99999e-01
5.262515499e-01,1.86532e-03,9.99999e-01,9.99999e-01,1.86532e-03,9.99999e-01
5.288828077e-01,2.11184e-03,9.99999e-01,9.99999e-01,2.11184e-03,9.99999e-01
5.315272217e-01,2.38510e-03,9.99999e-01,9.99999e-01,2.38510e-03,9.99999e-01
5.341848578e-01,2.68724e-03,9.99999e-01,9.99999e-01,2.68724e-03,9.99999e-01
5.368557821e-01,3.02054e-03,9.99999e-01,9.99999e-01,3.02054e-03,9.99999e-01
5.395400610e-01,3.38734e-03,9.99999e-01,9.99999e-01,3.38734e-03,9.99999e-01
5.422377613e-01,3.79010e-03,9.99999e-01,9.99999e-01,3.79010e-03,9.99999e-01
5.449489501e-01,4.23134e-03,9.99999e-01,9.99999e-01,4.23134e-03,9.99999e-01
5.476736949e-01,4.71369e-03,9.99999e-01,9.99999e-01,4.71369e-03,9.99999e-01
5.504120634e-01,5.23984e-03,9.99999e-01,9.99999e-01,5.23984e-03,9.99999e-01
5.531641237e-01,5.81256e-03,9.99999e-01,9.99999e-01,5.81256e-03,9.99999e-01
5.559299443e-01,6.43467e-03,9.99999e-01,9.99999e-01,6.43467e-03,9.99999e-01
5.587095940e-01,7.10908e-03,9.99999e-01,9.99999e-01,7.10908e-03,9.99999e-01
5.615031420e-01,7.83873e-03,9.99999e-01,9.99999e-01,7.83873e-03,9.99999e-01
5.643106577e-01,8.62660e-03,9.99999e-01,9.99999e-01,8.62660e-03,9.99999e-01
5.671322110e-01,9.47571e-03,9.99999e-01,9.99999e-01,9.47571e-03,9.99999e-01
5.699678720e-01,1.03891e-02,9.99999e-01,9.99999e-01,1.03891e-02,9.99999e-01
5.728177114e-01,1.13699e-02,9.99999e-01,9.99999e-01,1.13699e-02,9.99999e-01
5.756818000e-01,1.24211e-02,9.99999e-01,9.99999e-01,1.24211e-02,9.99999e-01
5.785602090e-01,1.35458e-02,9.99999e-01,9.99999e-01,1.35458e-02,9.99999e-01
5.814530100e-01,1.47471e-02,9.99999e-01,9.99999e-01,1.47471e-02,9.99999e-01
5.843602750e-01,1.60280e-02,9.99999e-01,9.99999e-01,1.60280e-02,9.99999e-01
5.872820764e-01,1.73915e-02,9.99999e-01,9.99999e-01,1.73915e-02,9.99999e-01
5.902184868e-01,1.88406e-02,9.99999e-01,9.99999e-01,1.88406e-02,9.99999e-01
5.931695792e-01,2.03782e-02,9.99999e-01,9.99999e-01,2.03782e-02,9.99999e-01
5.961354271e-01,2.20072e-02,9.99999e-01,9.99999e-01,2.20072e-02,9.99999e-01
5.991161043e-01,2.37303e-02,9.99999e-01,9.99999e-01,2.37303e-02,9.99999e-01
6.021116848e-01,2.55502e-02,9.99999e-01,9.99999e-01,2.55502e-02,9.99999e-01
6.051222432e-01,2.74696e-02,9.99999e-01,9.99999e-01,2.74696e-02,9.99999e-01
6.081478544e-01,2.94909e-02,9.99999e-01,9.99999e-01,2.94909e-02,9.99999e-01
6.111885937e-01,3.16167e-02,9.99999e-01,9.99999e-01,3.16167e-02,9.99999e-01
6.142445367e-01,3.38490e-02,9.99999e-01,9.99999e-01,3.38490e-02,9.99999e-01
6.173157594e-01,3.61902e-02,9.99999e-01,9.99999e-01,3.61902e-02,9.99999e-01
6.204023382e-01,3.86423e-02,9.99999e-01,9.99999e-01,3.86423e-02,9.99999e-01
6.235043498e-01,4.12071e-02,9.99999e-01,9.99999e-01,4.12071e-02,9.99999e-01
6.266218716e-01,4.38864e-02,9.99999e-01,9.99999e-01,4.38864e-02,9.99999e-01
6.297549810e-01,4.66817e-02,9.99999e-01,9.99999e-01,4.66817e-02,9.99999e-01
6.329037559e-01,4.95946e-02,9.99999e-01,9.99999e-01,4.95946e-02,9.99999e-01
6.360682746e-01,5.26263e-02,9.99999e-01,9.99999e-01,5.26263e-02,9.99999e-01
6.392486160e-01,5.57779e-02,9.99999e-01,9.99999e-01,5.57779e-02,9.99999e-01
6.424448591e-01,5.90504e-02,9.99999e-01,9.99999e-01,5.90504e-02,9.99999e-01
6.456570834e-01,6.24445e-02,9.99999e-01,9.99999e-01,6.24445e-02,9.99999e-01
6.488853688e-01,6.59608e-02,9.99999e-01,9.99999e-01,6.59608e-02,9.99999e-01
6.521297956e-01,6.95998e-02,9.99999e-01,9.99999e-01,6.95998e-02,9.99999e-01
6.553904446e-01,7.33617e-02,9.99999e-01,9.99999e-01,7.33617e-02,9.99999e-01
6.586673968e-01,7.72466e-02,9.99999e-01,9.99999e-01,7.72466e-02,9.99999e-01
6.619607338e-01,8.12543e-02,9.99999e-01,9.99999e-01,8.12543e-02,9.99999e-01
6.652705375e-01,8.53846e-02,9.99999e-01,9.99999e-01,8.53846e-02,9.99999e-01
6.685968902e-01,8.96371e-02,9.99999e-01,9.99999e-01,8.96371e-02,9.99999e-01
6.719398746e-01,9.40110e-02,9.99999e-01,9.99999e-01,9.40110e-02,9.99999e-01
6.752995740e-01,9.85056e-02,9.99999e-01,9.99999e-01,9.85056e-02,9.99999e-01
6.786760719e-01,1.03120e-01,9.99999e-01,9.99999e-01,1.03120e-01,9.99999e-01
6.820694522e-01,1.07853e-01,9.99999e-01,9.99999e-01,1.07853e-01,9.99999e-01
6.854797995e-01,1.12703e-01,9.99999e-01,9.99999e-01,1.12703e-01,9.99999e-01
6.889071985e-01,1.17669e-01,9.99999e-01,9.99999e-01,1.17669e-01,9.99999e-01
6.923517345e-01,1.22749e-01,9.99999e-01,9.99999e-01,1.22749e-01,9.99999e-01
6.958134932e-01,1.27942e-01,9.99999e-01,9.99999e-01,1.27942e-01,9.99999e-01
6.992925606e-01,1.33245e-01,9.99999e-01,9.99999e-01,1.33245e-01,9.99999e-01
7.027890234e-01,1.38657e-01,9.99999e-01,9.99999e-01,1.38657e-01,9.99999e-01
7.063029686e-01,1.44175e-01,9.99999e-01,9.99999e-01,1.44175e-01,9.99999e-01
7.098344834e-01,1.49797e-01,9.99999e-01,9.99999e-01,1.49797e-01,9.99999e-01
7.133836558e-01,1.55521e-01,9.99999e-01,9.99999e-01,1.55521e-01,9.99999e-01
7.169505741e-01,1.61345e-01,9.99999e-01,9.99999e-01,1.61345e-01,9.99999e-01
7.205353270e-01,1.67264e-01,9.99999e-01,9.99999e-01,1.67264e-01,9.99999e-01
7.241380036e-01,1.73278e-01,9.99999e-01,9.99999e-01,1.73278e-01,9.99999e-01
7.277586936e-01,1.79382e-01,9.99999e-01,9.99999e-01,1.79382e-01,9.99999e-01
7.313974871e-01,1.85575e-01,9.99999e-01,9.99999e-01,1.85575e-01,9.99999e-01
7.350544745e-01,1.91853e-01,9.99999e-01,9.99999e-01,1.91853e-01,9.99999e-01
7.387297469e-01,1.98213e-01,9.99999e-01,9.99999e-01,1.98213e-01,9.99999e-01
7.424233956e-01,2.04651e-01,9.99999e-01,9.99999e-01,2.04651e-01,9.99999e-01
7.461355126e-01,2.11166e-01,9.99999e-01,9.99999e-01,2.11166e-01,9.99999e-01
7.498661902e-01,2.17753e-01,9.99999e-01,9.99999e-01,2.17753e-01,9.99999e-01
7.536155211e-01,2.24409e-01,9.99999e-01,9.99999e-01,2.24409e-01,9.99999e-01
7.573835987e-01,2.31132e-01,9.99999e-01,9.99999e-01,2.31132e-01,9.99999e-01
7.611705167e-01,2.37917e-01,9.99999e-01,9.99999e-01,2.37917e-01,9.99999e-01
7.649763693e-01,2.44761e-01,9.99999e-01,9.99999e-01,2.44761e-01,9.99999e-01
7.688012511e-01,2.51661e-01,9.99999e-01,9.99999e-01,2.51661e-01,9.99999e-01
7.726452574e-01,2.58613e-01,9.99999e-01,9.99999e-01,2.58613e-01,9.99999e-01
7.765084837e-01,2.65615e-01,9.99999e-01,9.99999e-01,2.65615e-01,9.99999e-01
7.803910261e-01,2.57393e-01,9.99999e-01,9.44000e-01,2.72662e-01,9.99999e-01
7.842929812e-01,2.14932e-01,9.99999e-01,7.68296e-01,2.79752e-01,9.99999e-01
7.882144461e-01,2.16589e-01,9.99999e-01,7.54979e-01,2.86880e-01,9.99999e-01
7.921555184e-01,2.48697e-01,9.99999e-01,8.45781e-01,2.94044e-01,9.99999e-01
7.961162960e-01,2.69198e-01,9.99999e-01,8.93633e-01,3.01240e-01,9.99999e-01
8.000968774e-01,2.90207e-01,9.99999e-01,9.40810e-01,3.08465e-01,9.99999e-01
8.040973618e-01,3.05894e-01,9.99999e-01,9.68895e-01,3.15715e-01,9.99999e-01
8.081178486e-01,3.18331e-01,9.99999e-01,9.85584e-01,3.22987e-01,9.99999e-01
8.121584379e-01,3.28803e-01,9.99999e-01,9.95534e-01,3.30278e-01,9.99999e-01
8.162192301e-01,3.37252e-01,9.99999e-01,9.99012e-01,3.37585e-01,9.99999e-01
8.203003262e-01,3.44899e-01,9.99999e-01,9.99985e-01,3.44904e-01,9.99999e-01
8.244018279e-01,3.52233e-01,9.99999e-01,9.99999e-01,3.52233e-01,9.99999e-01
8.285238370e-01,3.59568e-01,9.99999e-01,9.99999e-01,3.59568e-01,9.99999e-01
8.326664562e-01,3.66907e-01,9.99999e-01,9.99999e-01,3.66907e-01,9.99999e-01
8.368297885e-01,3.74246e-01,9.99999e-01,9.99999e-01,3.74246e-01,9.99999e-01
8.410139374e-01,3.81582e-01,9.99999e-01,9.99999e-01,3.81582e-01,9.99999e-01
8.452190071e-01,3.88913e-01,9.99999e-01,9.99999e-01,3.88913e-01,9.99999e-01
8.494451021e-01,3.96236e-01,9.99999e-01,9.99999e-01,3.96236e-01,9.99999e-01
8.536923276e-01,4.03548e-01,9.99999e-01,9.99999e-01,4.03548e-01,9.99999e-01
8.579607893e-01,4.10847e-01,9.99999e-01,9.99999e-01,4.10847e-01,9.99999e-01
8.622505932e-01,4.18130e-01,9.99999e-01,9.99999e-01,4.18130e-01,9.99999e-01
8.665618462e-01,3.81727e-01,9.99999e-01,8.97350e-01,4.25394e-01,9.99999e-01
8.708946554e-01,2.23619e-01,9.99999e-01,5.16875e-01,4.32637e-01,9.99999e-01
8.752491287e-01,2.56572e-01,9.99999e-01,5.83308e-01,4.39856e-01,9.99999e-01
8.796253743e-01,3.31314e-01,9.99999e-01,7.41111e-01,4.47050e-01,9.99999e-01
8.840235012e-01,3.88415e-01,9.99999e-01,8.55132e-01,4.54216e-01,9.99999e-01
8.884436187e-01,4.33711e-01,9.99999e-01,9.40087e-01,4.61352e-01,9.99999e-01
8.928858368e-01,4.56864e-01,9.99999e-01,9.75255e-01,4.68456e-01,9.99999e-01
8.973502660e-01,4.72645e-01,9.99999e-01,9.93942e-01,4.75525e-01,9.99999e-01
9.018370173e-01,4.82236e-01,9.99999e-01,9.99330e-01,4.82559e-01,9.99999e-01
9.063462024e-01,4.81215e-01,9.99999e-01,9.82964e-01,4.89554e-01,9.99999e-01
9.108779334e-01,4.77270e-01,9.99999e-01,9.61248e-01,4.96510e-01,9.99999e-01
9.154323231e-01,4.98785e-01,9.99999e-01,9.90783e-01,5.03424e-01,9.99999e-01
9.200094847e-01,4.48748e-01,9.99999e-01,8.79387e-01,5.10296e-01,9.99999e-01
9.246095321e-01,4.26344e-01,9.99999e-01,8.24455e-01,5.17122e-01,9.99999e-01
9.292325798e-01,4.50714e-01,9.99999e-01,8.60302e-01,5.23902e-01,9.99999e-01
9.338787427e-01,4.58602e-01,9.99999e-01,8.64251e-01,5.30635e-01,9.99999e-01
9.385481364e-01,4.82525e-01,9.99999e-01,8.98024e-01,5.37318e-01,9.99999e-01
9.432408771e-01,5.09239e-01,9.99999e-01,9.36183e-01,5.43952e-01,9.99999e-01
9.479570815e-01,5.32208e-01,9.99999e-01,9.66712e-01,5.50533e-01,9.99999e-01
9.526968669e-01,5.48051e-01,9.99999e-01,9.83823e-01,5.57062e-01,9.99999e-01
9.574603512e-01,5.59621e-01,9.99999e-01,9.93050e-01,5.63537e-01,9.99999e-01
9.622476530e-01,5.68720e-01,9.99999e-01,9.97827e-01,5.69958e-01,9.99999e-01
9.670588912e-01,5.75947e-01,9.99999e-01,9.99348e-01,5.76322e-01,9.99999e-01
9.718941857e-01,5.82603e-01,9.99999e-01,9.99953e-01,5.82630e-01,9.99999e-01
9.767536566e-01,5.88880e-01,9.99999e-01,9.99999e-01,5.88880e-01,9.99999e-01
9.816374249e-01,5.95072e-01,9.99999e-01,9.99999e-01,5.95072e-01,9.99999e-01
9.865456120e-01,6.01205e-01,9.99999e-01,9.99999e-01,6.01205e-01,9.99999e-01
9.914783401e-01,6.07277e-01,9.99999e-01,9.99999e-01,6.07277e-01,9.99999e-01
9.964357318e-01,6.13290e-01,9.99999e-01,9.99999e-01,6.13290e-01,9.99999e-01
1.001417910e+00,6.19241e-01,9.99999e-01,9.99999e-01,6.19241e-01,9.99999e-01
1.006425000e+00,6.25131e-01,9.99999e-01,9.99999e-01,6.25131e-01,9.99999e-01
1.011457125e+00,6.30959e-01,9.99999e-01,9.99999e-01,6.30959e-01,9.99999e-01
1.016514411e+00,6.36725e-01,9.99999e-01,9.99999e-01,6.36725e-01,9.99999e-01
1.021596983e+00,6.42368e-01,9.99999e-01,9.99906e-01,6.42427e-01,9.99999e-01
1.026704968e+00,6.43719e-01,9.99999e-01,9.93290e-01,6.48067e-01,9.99999e-01
1.031838492e+00,6.10331e-01,9.99999e-01,9.33735e-01,6.53644e-01,9.99999e-01
1.036997685e+00,5.88259e-02,9.99999e-01,8.92442e-02,6.59156e-01,9.99999e-01
1.042182673e+00,1.89005e-02,9.99999e-01,2.84386e-02,6.64605e-01,9.99999e-01
1.047393587e+00,3.21277e-02,9.99999e-01,4.79524e-02,6.69991e-01,9.99999e-01
1.052630555e+00,9.89512e-05,9.99999e-01,1.46527e-04,6.75312e-01,9.99999e-01
1.057893707e+00,3.31987e-04,9.99999e-01,4.87807e-04,6.80569e-01,9.99999e-01
1.063183176e+00,2.33952e-03,9.99999e-01,3.41156e-03,6.85762e-01,9.99999e-01
1.068499092e+00,1.13712e-02,9.99999e-01,1.64587e-02,6.90890e-01,9.99999e-01
1.073841587e+00,5.10641e-02,9.99999e-01,7.33726e-02,6.95955e-01,9.99999e-01
1.079210795e+00,1.34301e-01,9.99999e-01,1.91597e-01,7.00956e-01,9.99999e-01
1.084606849e+00,2.81057e-01,9.99999e-01,3.98158e-01,7.05892e-01,9.99999e-01
1.090029883e+00,4.39787e-01,9.99999e-01,6.18751e-01,7.10765e-01,9.99999e-01
1.095480033e+00,5.64675e-01,9.99999e-01,7.89120e-01,7.15575e-01,9.99999e-01
1.100957433e+00,6.42492e-01,9.99999e-01,8.91952e-01,7.20321e-01,9.99999e-01
1.106462220e+00,6.91510e-01,9.99999e-01,9.53801e-01,7.25004e-01,9.99999e-01
1.111994531e+00,7.16939e-01,9.99999e-01,9.82613e-01,7.29624e-01,9.99999e-01
1.117554504e+00,7.31048e-01,9.99999e-01,9.95732e-01,7.34181e-01,9.99999e-01
1.123142276e+00,7.38469e-01,9.99999e-01,9.99719e-01,7.38675e-01,9.99999e-01
1.128757988e+00,7.43108e-01,9.99999e-01,9.99999e-01,7.43108e-01,9.99999e-01
1.134401778e+00,7.47479e-01,9.99999e-01,9.99999e-01,7.47479e-01,9.99999e-01
1.140073787e+00,7.51789e-01,9.99999e-01,9.99999e-01,7.51789e-01,9.99999e-01
1.145774156e+00,7.56037e-01,9.99999e-01,9.99999e-01,7.56037e-01,9.99999e-01
1.151503026e+00,7.60225e-01,9.99999e-01,9.99999e-01,7.60225e-01,9.99999e-01
1.157260541e+00,7.64353e-01,9.99999e-01,9.99999e-01,7.64353e-01,9.99999e-01
1.163046844e+00,7.68421e-01,9.99999e-01,9.99999e-01,7.68421e-01,9.99999e-01
1.168862078e+00,7.72429e-01,9.99999e-01,9.99999e-01,7.72429e-01,9.99999e-01
1.174706389e+00,7.76379e-01,9.99999e-01,9.99999e-01,7.76379e-01,9.99999e-01
1.180579921e+00,7.80271e-01,9.99999e-01,9.99999e-01,7.80271e-01,9.99999e-01
1.186482820e+00,7.84094e-01,9.99999e-01,9.99986e-01,7.84104e-01,9.99999e-01
1.192415234e+00,7.69387e-01,9.99999e-01,9.76528e-01,7.87880e-01,9.99999e-01
1.198377311e+00,4.30308e-01,9.99999e-01,5.43593e-01,7.91599e-01,9.99999e-01
1.204369197e+00,2.69073e-18,9.99999e-01,3.38345e-18,7.95261e-01,9.99999e-01
1.210391043e+00,3.44469e-71,9.99999e-01,4.31196e-71,7.98868e-01,9.99999e-01
1.216442998e+00,9.89342e-62,9.99999e-01,1.23295e-61,8.02419e-01,9.99999e-01
1.222525213e+00,8.08555e-61,9.99999e-01,1.00327e-60,8.05916e-01,9.99999e-01
1.228637839e+00,4.70160e-47,9.99999e-01,5.80904e-47,8.09358e-01,9.99999e-01
1.234781029e+00,1.10926e-29,9.99999e-01,1.36483e-29,8.12747e-01,9.99999e-01
1.240954934e+00,7.28973e-20,9.99999e-01,8.93258e-20,8.16082e-01,9.99999e-01
1.247159708e+00,3.93645e-10,9.99999e-01,4.80426e-10,8.19365e-01,9.99999e-01
1.253395507e+00,8.91154e-07,9.99999e-01,1.08334e-06,8.22595e-01,9.99999e-01
1.259662485e+00,3.16197e-04,9.99999e-01,3.82909e-04,8.25775e-01,9.99999e-01
1.265960797e+00,9.51261e-03,9.99999e-01,1.14761e-02,8.28903e-01,9.99999e-01
1.272290601e+00,1.14876e-01,9.99999e-01,1.38075e-01,8.31981e-01,9.99999e-01
1.278652054e+00,9.84482e-02,9.99999e-01,1.17901e-01,8.35010e-01,9.99999e-01
1.285045314e+00,6.03289e-04,9.99999e-01,7.19924e-04,8.37989e-01,9.99999e-01
1.291470541e+00,7.01585e-09,9.99999e-01,8.34306e-09,8.40920e-01,9.99999e-01
1.297927893e+00,2.40730e-04,9.99999e-01,2.85292e-04,8.43802e-01,9.99999e-01
1.304417533e+00,2.25462e-02,9.99999e-01,2.66303e-02,8.46638e-01,9.99999e-01
1.310939621e+00,5.27183e-03,9.99999e-01,6.20634e-03,8.49426e-01,9.99999e-01
1.317494319e+00,1.04191e-24,9.99999e-01,1.22266e-24,8.52169e-01,9.99999e-01
1.324081790e+00,1.53387e-16,9.99999e-01,1.79428e-16,8.54866e-01,9.99999e-01
1.330702199e+00,8.12233e-10,9.99999e-01,9.47190e-10,8.57518e-01,9.99999e-01
1.337355710e+00,3.07880e-09,9.99999e-01,3.57947e-09,8.60125e-01,9.99999e-01
1.344042489e+00,1.20387e-09,9.99999e-01,1.39548e-09,8.62689e-01,9.99999e-01
1.350762701e+00,4.48075e-10,9.99999e-01,5.17880e-10,8.65210e-01,9.99999e-01
1.357516515e+00,1.63132e-06,9.99999e-01,1.88007e-06,8.67688e-01,9.99999e-01
1.364304097e+00,1.04273e-04,9.99999e-01,1.19837e-04,8.70123e-01,9.99999e-01
1.371125618e+00,8.42321e-03,9.99999e-01,9.65391e-03,8.72518e-01,9.99999e-01
1.377981246e+00,1.73244e-02,9.99999e-01,1.98022e-02,8.74871e-01,9.99999e-01
1.384871152e+00,8.94539e-02,9.99999e-01,1.01978e-01,8.77184e-01,9.99999e-01
1.391795508e+00,1.06754e-01,9.99999e-01,1.21387e-01,8.79458e-01,9.99999e-01
1.398754485e+00,2.37363e-01,9.99999e-01,2.69213e-01,8.81692e-01,9.99999e-01
1.405748258e+00,3.37953e-01,9.99999e-01,3.82348e-01,8.83887e-01,9.99999e-01
1.412776999e+00,4.81716e-01,9.99999e-01,5.43669e-01,8.86045e-01,9.99999e-01
1.419840884e+00,4.33323e-01,9.99999e-01,4.87885e-01,8.88165e-01,9.99999e-01
1.426940089e+00,2.51347e-02,9.99999e-01,2.82333e-02,8.90248e-01,9.99999e-01
1.434074789e+00,0.00000e+00,9.99999e-01,0.00000e+00,8.92295e-01,9.99999e-01
1.441245163e+00,0.00000e+00,9.99999e-01,0.00000e+00,8.94305e-01,9.99999e-01
1.448451389e+00,0.00000e+00,9.99999e-01,0.00000e+00,8.96281e-01,9.99999e-01
1.455693646e+00,0.00000e+00,9.99999e-01,0.00000e+00,8.98221e-01,9.99999e-01
1.462972114e+00,4.76265e-282,9.99999e-01,5.29108e-282,9.00128e-01,9.99999e-01
1.470286975e+00,2.21849e-117,9.99999e-01,2.45952e-117,9.02001e-01,9.99999e-01
