#,Wave/freq,Total,N2,CO2,Rayleigh,CIA
4.000000000e-01,1.23033e-06,9.99999e-01,9.99999e-01,1.23033e-06,9.99999e-01
4.020000000e-01,1.61020e-06,9.99999e-01,9.99999e-01,1.61020e-06,9.99999e-01
4.040100000e-01,2.09560e-06,9.99999e-01,9.99999e-01,2.09560e-06,9.99999e-01
4.060300500e-01,2.71317e-06,9.99999e-01,9.99999e-01,2.71317e-06,9.99999e-01
4.080602003e-01,3.49486e-06,9.99999e-01,9.99999e-01,3.49486e-06,9.99999e-01
4.101005013e-01,4.47930e-06,9.99999e-01,9.99999e-01,4.47930e-06,9.99999e-01
4.121510038e-01,5.71298e-06,9.99999e-01,9.99999e-01,5.71298e-06,9.99999e-01
4.142117588e-01,7.25149e-06,9.99999e-01,9.99999e-01,7.25149e-06,9.99999e-01
4.162828176e-01,9.16108e-06,9.99999e-01,9.99999e-01,9.16108e-06,9.99999e-01
4.183642317e-01,1.15202e-05,9.99999e-01,9.99999e-01,1.15202e-05,9.99999e-01
4.204560528e-01,1.44215e-05,9.99999e-01,9.99999e-01,1.44215e-05,9.99999e-01
4.225583331e-01,1.79734e-05,9.99999e-01,9.99999e-01,1.79734e-05,9.99999e-01
4.246711247e-01,2.23030e-05,9.99999e-01,9.99999e-01,2.23030e-05,9.99999e-01
4.267944804e-01,2.75578e-05,9.99999e-01,9.99999e-01,2.75578e-05,9.99999e-01
4.289284528e-01,3.39087e-05,9.99999e-01,9.99999e-01,3.39087e-05,9.99999e-01
4.310730950e-01,4.15526e-05,9.99999e-01,9.99999e-01,4.15526e-05,9.99999e-01
4.332284605e-01,5.07157e-05,9.99999e-01,9.99999e-01,5.07157e-05,9.99999e-01
4.353946028e-01,6.16561e-05,9.99999e-01,9.99999e-01,6.16561e-05,9.99999e-01
4.375715758e-01,7.46680e-05,9.99999e-01,9.99999e-01,7.46680e-05,9.99999e-01
4.397594337e-01,9.00846e-05,9.99999e-01,9.99999e-01,9.00846e-05,9.99999e-01
4.419582309e-01,1.08282e-04,9.99999e-01,9.99999e-01,1.08282e-04,9.99999e-01
4.441680220e-01,1.29683e-04,9.99999e-01,9.99999e-01,1.29683e-04,9.99999e-01
4.463888621e-01,1.54762e-04,9.99999e-01,9.99999e-01,1.54762e-04,9.99999e-01
4.486208064e-01,1.84046e-04,9.99999e-01,9.99999e-01,1.84046e-04,9.99999e-01
4.508639105e-01,2.18124e-04,9.99999e-01,9.99999e-01,2.18124e-04,9.99999e-01
4.531182300e-01,2.57646e-04,9.99999e-01,9.99999e-01,2.57646e-04,9.99999e-01
4.553838212e-01,3.03330e-04,9.99999e-01,9.99999e-01,3.03330e-04,9.99999e-01
4.576607403e-01,3.55964e-04,9.99999e-01,9.99999e-01,3.55964e-04,9.99999e-01
4.599490440e-01,4.16413e-04,9.99999e-01,9.99999e-01,4.16413e-04,9.99999e-01
4.622487892e-01,4.85620e-04,9.99999e-01,9.99999e-01,4.85620e-04,9.99999e-01
4.645600332e-01,5.64613e-04,9.99999e-01,9.99999e-01,5.64613e-04,9.99999e-01
4.668828333e-01,6.54503e-04,9.99999e-01,9.99999e-01,6.54503e-04,9.99999e-01
4.692172475e-01,7.56494e-04,9.99999e-01,9.99999e-01,7.56494e-04,9.99999e-01
4.715633337e-01,8.71880e-04,9.99999e-01,9.99999e-01,8.71880e-04,9.99999e-01
4.739211504e-01,1.00205e-03,9.99999e-01,9.99999e-01,1.00205e-03,9.99999e-01
4.762907561e-01,1.14850e-03,9.99999e-01,9.99999e-01,1.14850e-03,9.99999e-01
4.786722099e-01,1.31280e-03,9.99999e-01,9.99999e-01,1.31280e-03,9.99999e-01
4.810655710e-01,1.49666e-03,9.99999e-01,9.99999e-01,1.49666e-03,9.99999e-01
4.834708988e-01,1.70185e-03,9.99999e-01,9.99999e-01,1.70185e-03,9.99999e-01
4.858882533e-01,1.93027e-03,9.99999e-01,9.99999e-01,1.93027e-03,9.99999e-01
4.883176946e-01,2.18390e-03,9.99999e-01,9.99999e-01,2.18390e-03,9.99999e-01
4.907592831e-01,2.46484e-03,9.99999e-01,9.99999e-01,2.46484e-03,9.99999e-01
4.932130795e-01,2.77529e-03,9.99999e-01,9.99999e-01,2.77529e-03,9.99999e-01
4.956791449e-01,3.11752e-03,9.99999e-01,9.99999e-01,3.11752e-03,9.99999e-01
4.981575406e-01,3.49392e-03,9.99999e-01,9.99999e-01,3.49392e-03,9.99999e-01
5.006483283e-01,3.90695e-03,9.99999e-01,9.99999e-01,3.90695e-03,9.99999e-01
5.031515699e-01,4.35919e-03,9.99999e-01,9.99999e-01,4.35919e-03,9.99999e-01
5.056673278e-01,4.85325e-03,9.99999e-01,9.99999e-01,4.85325e-03,9.99999e-01
5.081956644e-01,5.39187e-03,9.99999e-01,9.99999e-01,5.39187e-03,9.99999e-01
5.107366428e-01,5.97783e-03,9.99999e-01,9.99999e-01,5.97783e-03,9.99999e-01
5.132903260e-01,6.61397e-03,9.99999e-01,9.99999e-01,6.61397e-03,9.99999e-01
5.158567776e-01,7.30320e-03,9.99999e-01,9.99999e-01,7.30320e-03,9.99999e-01
5.184360615e-01,8.04849e-03,9.99999e-01,9.99999e-01,8.04849e-03,9.99999e-01
5.210282418e-01,8.85282e-03,9.99999e-01,9.99999e-01,8.85282e-03,9.99999e-01
5.236333830e-01,9.71923e-03,9.99999e-01,9.99999e-01,9.71923e-03,9.99999e-01
5.262515499e-01,1.06508e-02,9.99999e-01,9.99999e-01,1.06508e-02,9.99999e-01
5.288828077e-01,1.16505e-02,9.99999e-01,9.99999e-01,1.16505e-02,9.99999e-01
5.315272217e-01,1.27215e-02,9.99999e-01,9.99999e-01,1.27215e-02,9.99999e-01
5.341848578e-01,1.38669e-02,9.99999e-01,9.99999e-01,1.38669e-02,9.99999e-01
5.368557821e-01,1.50897e-02,9.99999e-01,9.99999e-01,1.50897e-02,9.99999e-01
5.395400610e-01,1.63929e-02,9.99999e-01,9.99999e-01,1.63929e-02,9.99999e-01
5.422377613e-01,1.77795e-02,9.99999e-01,9.99999e-01,1.77795e-02,9.99999e-01
5.449489501e-01,1.92526e-02,9.99999e-01,9.99999e-01,1.92526e-02,9.99999e-01
5.476736949e-01,2.08149e-02,9.99999e-01,9.99999e-01,2.08149e-02,9.99999e-01
5.504120634e-01,2.24694e-02,9.99999e-01,9.99999e-01,2.24694e-02,9.99999e-01
5.531641237e-01,2.42187e-02,9.99999e-01,9.99999e-01,2.42187e-02,9.99999e-01
5.559299443e-01,2.60656e-02,9.99999e-01,9.99999e-01,2.60656e-02,9.99999e-01
5.587095940e-01,2.80127e-02,9.99999e-01,9.99999e-01,2.80127e-02,9.99999e-01
5.615031420e-01,3.00624e-02,9.99999e-01,9.99999e-01,3.00624e-02,9.99999e-01
5.643106577e-01,3.22171e-02,9.99999e-01,9.99999e-01,3.22171e-02,9.99999e-01
5.671322110e-01,3.44790e-02,9.99999e-01,9.99999e-01,3.44790e-02,9.99999e-01
5.699678720e-01,3.68504e-02,9.99999e-01,9.99999e-01,3.68504e-02,9.99999e-01
5.728177114e-01,3.93331e-02,9.99999e-01,9.99999e-01,3.93331e-02,9.99999e-01
5.756818000e-01,4.19291e-02,9.99999e-01,9.99999e-01,4.19291e-02,9.99999e-01
5.785602090e-01,4.46400e-02,9.99999e-01,9.99999e-01,4.46400e-02,9.99999e-01
5.814530100e-01,4.74674e-02,9.99999e-01,9.99999e-01,4.74674e-02,9.99999e-01
5.843602750e-01,5.04127e-02,9.99999e-01,9.99999e-01,5.04127e-02,9.99999e-01
5.872820764e-01,5.34771e-02,9.99999e-01,9.99999e-01,5.34771e-02,9.99999e-01
5.902184868e-01,5.66617e-02,9.99999e-01,9.99999e-01,5.66617e-02,9.99999e-01
5.931695792e-01,5.99674e-02,9.99999e-01,9.99999e-01,5.99674e-02,9.99999e-01
5.961354271e-01,6.33949e-02,9.99999e-01,9.99999e-01,6.33949e-02,9.99999e-01
5.991161043e-01,6.69448e-02,9.99999e-01,9.99999e-01,6.69448e-02,9.99999e-01
6.021116848e-01,7.06174e-02,9.99999e-01,9.99999e-01,7.06174e-02,9.99999e-01
6.051222432e-01,7.44130e-02,9.99999e-01,9.99999e-01,7.44130e-02,9.99999e-01
6.081478544e-01,7.83315e-02,9.99999e-01,9.99999e-01,7.83315e-02,9.99999e-01
6.111885937e-01,8.23728e-02,9.99999e-01,9.99999e-01,8.23728e-02,9.99999e-01
6.142445367e-01,8.65366e-02,9.99999e-01,9.99999e-01,8.65366e-02,9.99999e-01
6.173157594e-01,9.08223e-02,9.99999e-01,9.99999e-01,9.08223e-02,9.99999e-01
6.204023382e-01,9.52294e-02,9.99999e-01,9.99999e-01,9.52294e-02,9.99999e-01
6.235043498e-01,9.97569e-02,9.99999e-01,9.99999e-01,9.97569e-02,9.99999e-01
6.266218716e-01,1.04404e-01,9.99999e-01,9.99999e-01,1.04404e-01,9.99999e-01
6.297549810e-01,1.09169e-01,9.99999e-01,9.99999e-01,1.09169e-01,9.99999e-01
6.329037559e-01,1.14051e-01,9.99999e-01,9.99999e-01,1.14051e-01,9.99999e-01
6.360682746e-01,1.19048e-01,9.99999e-01,9.99999e-01,1.19048e-01,9.99999e-01
6.392486160e-01,1.24160e-01,9.99999e-01,9.99999e-01,1.24160e-01,9.99999e-01
6.424448591e-01,1.29383e-01,9.99999e-01,9.99999e-01,1.29383e-01,9.99999e-01
6.456570834e-01,1.34716e-01,9.99999e-01,9.99999e-01,1.34716e-01,9.99999e-01
6.488853688e-01,1.40157e-01,9.99999e-01,9.99999e-01,1.40157e-01,9.99999e-01
6.521297956e-01,1.45704e-01,9.99999e-01,9.99999e-01,1.45704e-01,9.99999e-01
6.553904446e-01,1.51354e-01,9.99999e-01,9.99999e-01,1.51354e-01,9.99999e-01
6.586673968e-01,1.57106e-01,9.99999e-01,9.99999e-01,1.57106e-01,9.99999e-01
6.619607338e-01,1.62956e-01,9.99999e-01,9.99999e-01,1.62956e-01,9.99999e-01
6.652705375e-01,1.68901e-01,9.99999e-01,9.99999e-01,1.68901e-01,9.99999e-01
6.685968902e-01,1.74940e-01,9.99999e-01,9.99999e-01,1.74940e-01,9.99999e-01
6.719398746e-01,1.81069e-01,9.99999e-01,9.99999e-01,1.81069e-01,9.99999e-01
6.752995740e-01,1.87285e-01,9.99999e-01,9.99999e-01,1.87285e-01,9.99999e-01
6.786760719e-01,1.93586e-01,9.99999e-01,9.99999e-01,1.93586e-01,9.99999e-01
6.820694522e-01,1.99967e-01,9.99999e-01,9.99999e-01,1.99967e-01,9.99999e-01
6.854797995e-01,2.06427e-01,9.99999e-01,9.99999e-01,2.06427e-01,9.99999e-01
6.889071985e-01,2.12962e-01,9.99999e-01,9.99999e-01,2.12962e-01,9.99999e-01
6.923517345e-01,2.19568e-01,9.99999e-01,9.99999e-01,2.19568e-01,9.99999e-01
6.958134932e-01,2.26243e-01,9.99999e-01,9.99999e-01,2.26243e-01,9.99999e-01
6.992925606e-01,2.32983e-01,9.99999e-01,9.99999e-01,2.32983e-01,9.99999e-01
7.027890234e-01,2.39784e-01,9.99999e-01,9.99999e-01,2.39784e-01,9.99999e-01
7.063029686e-01,2.46644e-01,9.99999e-01,9.99999e-01,2.46644e-01,9.99999e-01
7.098344834e-01,2.53559e-01,9.99999e-01,9.99999e-01,2.53559e-01,9.99999e-01
7.133836558e-01,2.60525e-01,9.99999e-01,9.99999e-01,2.60525e-01,9.99999e-01
7.169505741e-01,2.67540e-01,9.99999e-01,9.99999e-01,2.67540e-01,9.99999e-01
7.205353270e-01,2.74599e-01,9.99999e-01,9.99999e-01,2.74599e-01,9.99999e-01
7.241380036e-01,2.81699e-01,9.99999e-01,9.99999e-01,2.81699e-01,9.99999e-01
7.277586936e-01,2.88838e-01,9.99999e-01,9.99999e-01,2.88838e-01,9.99999e-01
7.313974871e-01,2.96011e-01,9.99999e-01,9.99999e-01,2.96011e-01,9.99999e-01
7.350544745e-01,3.03215e-01,9.99999e-01,9.99999e-01,3.03215e-01,9.99999e-01
7.387297469e-01,3.10447e-01,9.99999e-01,9.99999e-01,3.10447e-01,9.99999e-01
7.424233956e-01,3.17703e-01,9.99999e-01,9.99999e-01,3.17703e-01,9.99999e-01
7.461355126e-01,3.24981e-01,9.99999e-01,9.99999e-01,3.24981e-01,9.99999e-01
7.498661902e-01,3.32277e-01,9.99999e-01,9.99999e-01,3.32277e-01,9.99999e-01
7.536155211e-01,3.39587e-01,9.99999e-01,9.99999e-01,3.39587e-01,9.99999e-01
7.573835987e-01,3.46910e-01,9.99999e-01,9.99999e-01,3.46910e-01,9.99999e-01
7.611705167e-01,3.54241e-01,9.99999e-01,9.99999e-01,3.54241e-01,9.99999e-01
7.649763693e-01,3.61577e-01,9.99999e-01,9.99999e-01,3.61577e-01,9.99999e-01
7.688012511e-01,3.68916e-01,9.99999e-01,9.99999e-01,3.68916e-01,9.99999e-01
7.726452574e-01,3.76254e-01,9.99999e-01,9.99999e-01,3.76254e-01,9.99999e-01
7.765084837e-01,3.83590e-01,9.99999e-01,9.99999e-01,3.83590e-01,9.99999e-01
7.803910261e-01,3.74940e-01,9.99999e-01,9.59124e-01,3.90919e-01,9.99999e-01
7.842929812e-01,3.27946e-01,9.99999e-01,8.23489e-01,3.98239e-01,9.99999e-01
7.882144461e-01,3.29889e-01,9.99999e-01,8.13439e-01,4.05548e-01,9.99999e-01
7.921555184e-01,3.65663e-01,9.99999e-01,8.85720e-01,4.12842e-01,9.99999e-01
7.961162960e-01,3.87104e-01,9.99999e-01,9.21412e-01,4.20120e-01,9.99999e-01
8.000968774e-01,4.08854e-01,9.99999e-01,9.56654e-01,4.27378e-01,9.99999e-01
8.040973618e-01,4.24719e-01,9.99999e-01,9.77230e-01,4.34615e-01,9.99999e-01
8.081178486e-01,4.37197e-01,9.99999e-01,9.89518e-01,4.41828e-01,9.99999e-01
8.121584379e-01,4.47546e-01,9.99999e-01,9.96729e-01,4.49015e-01,9.99999e-01
8.162192301e-01,4.55843e-01,9.99999e-01,9.99276e-01,4.56172e-01,9.99999e-01
8.203003262e-01,4.63294e-01,9.99999e-01,9.99987e-01,4.63300e-01,9.99999e-01
8.244018279e-01,4.70394e-01,9.99999e-01,9.99999e-01,4.70394e-01,9.99999e-01
8.285238370e-01,4.77454e-01,9.99999e-01,9.99999e-01,4.77454e-01,9.99999e-01
8.326664562e-01,4.84478e-01,9.99999e-01,9.99999e-01,4.84478e-01,9.99999e-01
8.368297885e-01,4.91462e-01,9.99999e-01,9.99999e-01,4.91462e-01,9.99999e-01
8.410139374e-01,4.98407e-01,9.99999e-01,9.99999e-01,4.98407e-01,9.99999e-01
8.452190071e-01,5.05310e-01,9.99999e-01,9.99999e-01,5.05310e-01,9.99999e-01
8.494451021e-01,5.12169e-01,9.99999e-01,9.99999e-01,5.12169e-01,9.99999e-01
8.536923276e-01,5.18983e-01,9.99999e-01,9.99999e-01,5.18983e-01,9.99999e-01
8.579607893e-01,5.25750e-01,9.99999e-01,9.99999e-01,5.25750e-01,9.99999e-01
8.622505932e-01,5.32469e-01,9.99999e-01,9.99999e-01,5.32469e-01,9.99999e-01
8.665618462e-01,4.93866e-01,9.99999e-01,9.16026e-01,5.39139e-01,9.99999e-01
8.708946554e-01,3.34997e-01,9.99999e-01,6.13819e-01,5.45759e-01,9.99999e-01
8.752491287e-01,3.71431e-01,9.99999e-01,6.72484e-01,5.52326e-01,9.99999e-01
8.796253743e-01,4.48810e-01,9.99999e-01,8.03108e-01,5.58840e-01,9.99999e-01
8.840235012e-01,5.04415e-01,9.99999e-01,8.92294e-01,5.65300e-01,9.99999e-01
8.884436187e-01,5.46500e-01,9.99999e-01,9.55911e-01,5.71706e-01,9.99999e-01
8.928858368e-01,5.67614e-01,9.99999e-01,9.81937e-01,5.78055e-01,9.99999e-01
8.973502660e-01,5.81753e-01,9.99999e-01,9.95561e-01,5.84347e-01,9.99999e-01
9.018370173e-01,5.90291e-01,9.99999e-01,9.99508e-01,5.90581e-01,9.99999e-01
9.063462024e-01,5.89491e-01,9.99999e-01,9.87824e-01,5.96757e-01,9.99999e-01
9.108779334e-01,5.85805e-01,9.99999e-01,9.71688e-01,6.02873e-01,9.99999e-01
9.154323231e-01,6.04809e-01,9.99999e-01,9.93233e-01,6.08929e-01,9.99999e-01
9.200094847e-01,5.59266e-01,9.99999e-01,9.09486e-01,6.14925e-01,9.99999e-01
9.246095321e-01,5.39570e-01,9.99999e-01,8.69068e-01,6.20860e-01,9.99999e-01
9.292325798e-01,5.62129e-01,9.99999e-01,8.96918e-01,6.26733e-01,9.99999e-01
9.338787427e-01,5.68829e-01,9.99999e-01,8.99271e-01,6.32544e-01,9.99999e-01
9.385481364e-01,5.90344e-01,9.99999e-01,9.24879e-01,6.38292e-01,9.99999e-01
9.432408771e-01,6.13819e-01,9.99999e-01,9.53168e-01,6.43978e-01,9.99999e-01
9.479570815e-01,6.33846e-01,9.99999e-01,9.75747e-01,6.49600e-01,9.99999e-01
9.526968669e-01,6.47440e-01,9.99999e-01,9.88218e-01,6.55159e-01,9.99999e-01
9.574603512e-01,6.57313e-01,9.99999e-01,9.94942e-01,6.60654e-01,9.99999e-01
9.622476530e-01,6.65033e-01,9.99999e-01,9.98418e-01,6.66086e-01,9.99999e-01
9.670588912e-01,6.71135e-01,9.99999e-01,9.99524e-01,6.71454e-01,9.99999e-01
9.718941857e-01,6.76734e-01,9.99999e-01,9.99965e-01,6.76757e-01,9.99999e-01
9.767536566e-01,6.81997e-01,9.99999e-01,9.99999e-01,6.81997e-01,9.99999e-01
9.816374249e-01,6.87172e-01,9.99999e-01,9.99999e-01,6.87172e-01,9.99999e-01
9.865456120e-01,6.92283e-01,9.99999e-01,9.99999e-01,6.92283e-01,9.99999e-01
9.914783401e-01,6.97330e-01,9.99999e-01,9.99999e-01,6.97330e-01,9.99999e-01
9.964357318e-01,7.02313e-01,9.99999e-01,9.99999e-01,7.02313e-01,9.99999e-01
1.001417910e+00,7.07233e-01,9.99999e-01,9.99999e-01,7.07233e-01,9.99999e-01
1.006425000e+00,7.12088e-01,9.99999e-01,9.99999e-01,7.12088e-01,9.99999e-01
1.011457125e+00,7.16880e-01,9.99999e-01,9.99999e-01,7.16880e-01,9.99999e-01
1.016514411e+00,7.21609e-01,9.99999e-01,9.99999e-01,7.21609e-01,9.99999e-01
1.021596983e+00,7.26231e-01,9.99999e-01,9.99939e-01,7.26275e-01,9.99999e-01
1.026704968e+00,7.27401e-01,9.99999e-01,9.95242e-01,7.30877e-01,9.99999e-01
1.031838492e+00,6.98756e-01,9.99999e-01,9.50148e-01,7.35417e-01,9.99999e-01
1.036997685e+00,9.05009e-02,9.99999e-01,1.22316e-01,7.39895e-01,9.99999e-01
1.042182673e+00,5.10179e-02,9.99999e-01,6.85438e-02,7.44311e-01,9.99999e-01
1.047393587e+00,7.08431e-02,9.99999e-01,9.46258e-02,7.48665e-01,9.99999e-01
1.052630555e+00,8.34845e-04,9.99999e-01,1.10875e-03,7.52958e-01,9.99999e-01
1.057893707e+00,2.37310e-03,9.99999e-01,3.13408e-03,7.57190e-01,9.99999e-01
1.063183176e+00,1.05980e-02,9.99999e-01,1.39198e-02,7.61361e-01,9.99999e-01
1.068499092e+00,3.74718e-02,9.99999e-01,4.89524e-02,7.65472e-01,9.99999e-01
1.073841587e+00,1.13368e-01,9.99999e-01,1.47322e-01,7.69524e-01,9.99999e-01
1.079210795e+00,2.29992e-01,9.99999e-01,2.97332e-01,7.73517e-01,9.99999e-01
1.084606849e+00,3.97110e-01,9.99999e-01,5.10784e-01,7.77450e-01,9.99999e-01
1.090029883e+00,5.51119e-01,9.99999e-01,7.05363e-01,7.81326e-01,9.99999e-01
1.095480033e+00,6.60897e-01,9.99999e-01,8.41753e-01,7.85143e-01,9.99999e-01
1.100957433e+00,7.26039e-01,9.99999e-01,9.20313e-01,7.88904e-01,9.99999e-01
1.106462220e+00,7.65823e-01,9.99999e-01,9.66206e-01,7.92607e-01,9.99999e-01
1.111994531e+00,7.86173e-01,9.99999e-01,9.87338e-01,7.96254e-01,9.99999e-01
1.117554504e+00,7.97353e-01,9.99999e-01,9.96883e-01,7.99846e-01,9.99999e-01
1.123142276e+00,8.03217e-01,9.99999e-01,9.99793e-01,8.03382e-01,9.99999e-01
1.128757988e+00,8.06864e-01,9.99999e-01,9.99999e-01,8.06864e-01,9.99999e-01
1.134401778e+00,8.10291e-01,9.99999e-01,9.99999e-01,8.10291e-01,9.99999e-01
1.140073787e+00,8.13665e-01,9.99999e-01,9.99999e-01,8.13665e-01,9.99999e-01
1.145774156e+00,8.16986e-01,9.99999e-01,9.99999e-01,8.16986e-01,9.99999e-01
1.151503026e+00,8.20254e-01,9.99999e-01,9.99999e-01,8.20254e-01,9.99999e-01
1.157260541e+00,8.23471e-01,9.99999e-01,9.99999e-01,8.23471e-01,9.99999e-01
1.163046844e+00,8.26636e-01,9.99999e-01,9.99999e-01,8.26636e-01,9.99999e-01
1.168862078e+00,8.29751e-01,9.99999e-01,9.99999e-01,8.29751e-01,9.99999e-01
1.174706389e+00,8.32815e-01,9.99999e-01,9.99999e-01,8.32815e-01,9.99999e-01
1.180579921e+00,8.35830e-01,9.99999e-01,9.99999e-01,8.35830e-01,9.99999e-01
1.186482820e+00,8.38790e-01,9.99999e-01,9.99992e-01,8.38796e-01,9.99999e-01
1.192415234e+00,8.27633e-01,9.99999e-01,9.83271e-01,8.41713e-01,9.99999e-01
1.198377311e+00,4.68939e-01,9.99999e-01,5.55230e-01,8.44583e-01,9.99999e-01
1.204369197e+00,7.59381e-14,9.99999e-01,8.96123e-14,8.47406e-01,9.99999e-01
1.210391043e+00,4.54505e-52,9.99999e-01,5.34597e-52,8.50182e-01,9.99999e-01
1.216442998e+00,3.10787e-45,9.99999e-01,3.64383e-45,8.52912e-01,9.99999e-01
1.222525213e+00,1.41854e-44,9.99999e-01,1.65796e-44,8.55596e-01,9.99999e-01
1.228637839e+00,1.59461e-34,9.99999e-01,1.85801e-34,8.58236e-01,9.99999e-01
1.234781029e+00,4.50035e-22,9.99999e-01,5.22790e-22,8.60832e-01,9.99999e-01
1.240954934e+00,7.23909e-15,9.99999e-01,8.38455e-15,8.63383e-01,9.99999e-01
1.247159708e+00,6.15088e-08,9.99999e-01,7.10351e-08,8.65892e-01,9.99999e-01
1.253395507e+00,3.19212e-05,9.99999e-01,3.67603e-05,8.68358e-01,9.99999e-01
1.259662485e+00,1.64032e-03,9.99999e-01,1.88373e-03,8.70783e-01,9.99999e-01
1.265960797e+00,2.96183e-02,9.99999e-01,3.39205e-02,8.73166e-01,9.99999e-01
1.272290601e+00,1.82625e-01,9.99999e-01,2.08593e-01,8.75508e-01,9.99999e-01
1.278652054e+00,1.76372e-01,9.99999e-01,2.00923e-01,8.77811e-01,9.99999e-01
1.285045314e+00,2.98525e-03,9.99999e-01,3.39204e-03,8.80073e-01,9.99999e-01
1.291470541e+00,9.44448e-07,9.99999e-01,1.07044e-06,8.82297e-01,9.99999e-01
1.297927893e+00,1.40117e-03,9.99999e-01,1.58417e-03,8.84482e-01,9.99999e-01
1.304417533e+00,6.24106e-02,9.99999e-01,7.03909e-02,8.86629e-01,9.99999e-01
1.310939621e+00,1.52200e-02,9.99999e-01,1.71254e-02,8.88739e-01,9.99999e-01
1.317494319e+00,2.60936e-18,9.99999e-01,2.92919e-18,8.90812e-01,9.99999e-01
1.324081790e+00,1.76339e-12,9.99999e-01,1.97501e-12,8.92849e-01,9.99999e-01
1.330702199e+00,2.18186e-07,9.99999e-01,2.43824e-07,8.94850e-01,9.99999e-01
1.337355710e+00,4.13898e-07,9.99999e-01,4.61519e-07,8.96815e-01,9.99999e-01
1.344042489e+00,1.40181e-07,9.99999e-01,1.55974e-07,8.98747e-01,9.99999e-01
1.350762701e+00,1.25298e-07,9.99999e-01,1.39120e-07,9.00644e-01,9.99999e-01
1.357516515e+00,4.22775e-05,9.99999e-01,4.68444e-05,9.02507e-01,9.99999e-01
1.364304097e+00,1.18779e-03,9.99999e-01,1.31344e-03,9.04338e-01,9.99999e-01
1.371125618e+00,2.90249e-02,9.99999e-01,3.20315e-02,9.06136e-01,9.99999e-01
1.377981246e+00,5.22001e-02,9.99999e-01,5.74953e-02,9.07902e-01,9.99999e-01
1.384871152e+00,1.72565e-01,9.99999e-01,1.89707e-01,9.09636e-01,9.99999e-01
1.391795508e+00,1.95871e-01,9.99999e-01,2.14926e-01,9.11339e-01,9.99999e-01
1.398754485e+00,3.52589e-01,9.99999e-01,3.86182e-01,9.13012e-01,9.99999e-01
1.405748258e+00,4.54298e-01,9.99999e-01,4.96688e-01,9.14655e-01,9.99999e-01
1.412776999e+00,5.88397e-01,9.99999e-01,6.42167e-01,9.16268e-01,9.99999e-01
1.419840884e+00,5.31511e-01,9.99999e-01,5.79081e-01,9.17852e-01,9.99999e-01
1.426940089e+00,4.10071e-02,9.99999e-01,4.46017e-02,9.19407e-01,9.99999e-01
1.434074789e+00,0.00000e+00,9.99999e-01,0.00000e+00,9.20934e-01,9.99999e-01
1.441245163e+00,0.00000e+00,9.99999e-01,0.00000e+00,9.22434e-01,9.99999e-01
1.448451389e+00,0.00000e+00,9.99999e-01,0.00000e+00,9.23906e-01,9.99999e-01
1.455693646e+00,0.00000e+00,9.99999e-01,0.00000e+00,9.25352e-01,9.99999e-01
1.462972114e+00,1.89744e-204,9.99999e-01,2.04737e-204,9.26771e-01,9.99999e-01
1.470286975e+00,1.89141e-85,9.99999e-01,2.03780e-85,9.28164e-01,9.99999e-01
