#,Wave/freq,Total,N2,CO2,Rayleigh,CIA
4.000000000e-01,2.47926e-06,9.99999e-01,9.99999e-01,2.47926e-06,9.99999e-01
4.020000000e-01,3.20006e-06,9.99999e-01,9.99999e-01,3.20006e-06,9.99999e-01
4.040100000e-01,4.10862e-06,9.99999e-01,9.99999e-01,4.10862e-06,9.99999e-01
4.060300500e-01,5.24914e-06,9.99999e-01,9.99999e-01,5.24914e-06,9.99999e-01
4.080602003e-01,6.67390e-06,9.99999e-01,9.99999e-01,6.67390e-06,9.99999e-01
4.101005013e-01,8.44522e-06,9.99999e-01,9.99999e-01,8.44522e-06,9.99999e-01
4.121510038e-01,1.06371e-05,9.99999e-01,9.99999e-01,1.06371e-05,9.99999e-01
4.142117588e-01,1.33369e-05,9.99999e-01,9.99999e-01,1.33369e-05,9.99999e-01
4.162828176e-01,1.66475e-05,9.99999e-01,9.99999e-01,1.66475e-05,9.99999e-01
4.183642317e-01,2.06889e-05,9.99999e-01,9.99999e-01,2.06889e-05,9.99999e-01
4.204560528e-01,2.56014e-05,9.99999e-01,9.99999e-01,2.56014e-05,9.99999e-01
4.225583331e-01,3.15473e-05,9.99999e-01,9.99999e-01,3.15473e-05,9.99999e-01
4.246711247e-01,3.87140e-05,9.99999e-01,9.99999e-01,3.87140e-05,9.99999e-01
4.267944804e-01,4.73172e-05,9.99999e-01,9.99999e-01,4.73172e-05,9.99999e-01
4.289284528e-01,5.76034e-05,9.99999e-01,9.99999e-01,5.76034e-05,9.99999e-01
4.310730950e-01,6.98538e-05,9.99999e-01,9.99999e-01,6.98538e-05,9.99999e-01
4.332284605e-01,8.43873e-05,9.99999e-01,9.99999e-01,8.43873e-05,9.99999e-01
4.353946028e-01,1.01565e-04,9.99999e-01,9.99999e-01,1.01565e-04,9.99999e-01
4.375715758e-01,1.21792e-04,9.99999e-01,9.99999e-01,1.21792e-04,9.99999e-01
4.397594337e-01,1.45525e-04,9.99999e-01,9.99999e-01,1.45525e-04,9.99999e-01
4.419582309e-01,1.73273e-04,9.99999e-01,9.99999e-01,1.73273e-04,9.99999e-01
4.441680220e-01,2.05601e-04,9.99999e-01,9.99999e-01,2.05601e-04,9.99999e-01
4.463888621e-01,2.43137e-04,9.99999e-01,9.99999e-01,2.43137e-04,9.99999e-01
4.486208064e-01,2.86576e-04,9.99999e-01,9.99999e-01,2.86576e-04,9.99999e-01
4.508639105e-01,3.36681e-04,9.99999e-01,9.99999e-01,3.36681e-04,9.99999e-01
4.531182300e-01,3.94289e-04,9.99999e-01,9.99999e-01,3.94289e-04,9.99999e-01
4.553838212e-01,4.60315e-04,9.99999e-01,9.99999e-01,4.60315e-04,9.99999e-01
4.576607403e-01,5.35758e-04,9.99999e-01,9.99999e-01,5.35758e-04,9.99999e-01
4.599490440e-01,6.21698e-04,9.99999e-01,9.99999e-01,6.21698e-04,9.99999e-01
4.622487892e-01,7.19307e-04,9.99999e-01,9.99999e-01,7.19307e-04,9.99999e-01
4.645600332e-01,8.29846e-04,9.99999e-01,9.99999e-01,8.29846e-04,9.99999e-01
4.668828333e-01,9.54674e-04,9.99999e-01,9.99999e-01,9.54674e-04,9.99999e-01
4.692172475e-01,1.09524e-03,9.99999e-01,9.99999e-01,1.09524e-03,9.99999e-01
4.715633337e-01,1.25311e-03,9.99999e-01,9.99999e-01,1.25311e-03,9.99999e-01
4.739211504e-01,1.42991e-03,9.99999e-01,9.99999e-01,1.42991e-03,9.99999e-01
4.762907561e-01,1.62742e-03,9.99999e-01,9.99999e-01,1.62742e-03,9.99999e-01
4.786722099e-01,1.84748e-03,9.99999e-01,9.99999e-01,1.84748e-03,9.99999e-01
4.810655710e-01,2.09204e-03,9.99999e-01,9.99999e-01,2.09204e-03,9.99999e-01
4.834708988e-01,2.36318e-03,9.99999e-01,9.99999e-01,2.36318e-03,9.99999e-01
4.858882533e-01,2.66303e-03,9.99999e-01,9.99999e-01,2.66303e-03,9.99999e-01
4.883176946e-01,2.99386e-03,9.99999e-01,9.99999e-01,2.99386e-03,9.99999e-01
4.907592831e-01,3.35801e-03,9.99999e-01,9.99999e-01,3.35801e-03,9.99999e-01
4.932130795e-01,3.75792e-03,9.99999e-01,9.99999e-01,3.75792e-03,9.99999e-01
4.956791449e-01,4.19613e-03,9.99999e-01,9.99999e-01,4.19613e-03,9.99999e-01
4.981575406e-01,4.67523e-03,9.99999e-01,9.99999e-01,4.67523e-03,9.99999e-01
5.006483283e-01,5.19793e-03,9.99999e-01,9.99999e-01,5.19793e-03,9.99999e-01
5.031515699e-01,5.76698e-03,9.99999e-01,9.99999e-01,5.76698e-03,9.99999e-01
5.056673278e-01,6.38521e-03,9.99999e-01,9.99999e-01,6.38521e-03,9.99999e-01
5.081956644e-01,7.05551e-03,9.99999e-01,9.99999e-01,7.05551e-03,9.99999e-01
5.107366428e-01,7.78082e-03,9.99999e-01,9.99999e-01,7.78082e-03,9.99999e-01
5.132903260e-01,8.56412e-03,9.99999e-01,9.99999e-01,8.56412e-03,9.99999e-01
5.158567776e-01,9.40844e-03,9.99999e-01,9.99999e-01,9.40844e-03,9.99999e-01
5.184360615e-01,1.03168e-02,9.99999e-01,9.99999e-01,1.03168e-02,9.99999e-01
5.210282418e-01,1.12923e-02,9.99999e-01,9.99999e-01,1.12923e-02,9.99999e-01
5.236333830e-01,1.23380e-02,9.99999e-01,9.99999e-01,1.23380e-02,9.99999e-01
5.262515499e-01,1.34570e-02,9.99999e-01,9.99999e-01,1.34570e-02,9.99999e-01
5.288828077e-01,1.46523e-02,9.99999e-01,9.99999e-01,1.46523e-02,9.99999e-01
5.315272217e-01,1.59270e-02,9.99999e-01,9.99999e-01,1.59270e-02,9.99999e-01
5.341848578e-01,1.72841e-02,9.99999e-01,9.99999e-01,1.72841e-02,9.99999e-01
5.368557821e-01,1.87265e-02,9.99999e-01,9.99999e-01,1.87265e-02,9.99999e-01
5.395400610e-01,2.02572e-02,9.99999e-01,9.99999e-01,2.02572e-02,9.99999e-01
5.422377613e-01,2.18791e-02,9.99999e-01,9.99999e-01,2.18791e-02,9.99999e-01
5.449489501e-01,2.35949e-02,9.99999e-01,9.99999e-01,2.35949e-02,9.99999e-01
5.476736949e-01,2.54073e-02,9.99999e-01,9.99999e-01,2.54073e-02,9.99999e-01
5.504120634e-01,2.73190e-02,9.99999e-01,9.99999e-01,2.73190e-02,9.99999e-01
5.531641237e-01,2.93325e-02,9.99999e-01,9.99999e-01,2.93325e-02,9.99999e-01
5.559299443e-01,3.14501e-02,9.99999e-01,9.99999e-01,3.14501e-02,9.99999e-01
5.587095940e-01,3.36742e-02,9.99999e-01,9.99999e-01,3.36742e-02,9.99999e-01
5.615031420e-01,3.60070e-02,9.99999e-01,9.99999e-01,3.60070e-02,9.99999e-01
5.643106577e-01,3.84505e-02,9.99999e-01,9.99999e-01,3.84505e-02,9.99999e-01
5.671322110e-01,4.10066e-02,9.99999e-01,9.99999e-01,4.10066e-02,9.99999e-01
5.699678720e-01,4.36771e-02,9.99999e-01,9.99999e-01,4.36771e-02,9.99999e-01
5.728177114e-01,4.64635e-02,9.99999e-01,9.99999e-01,4.64635e-02,9.99999e-01
5.756818000e-01,4.93673e-02,9.99999e-01,9.99999e-01,4.93673e-02,9.99999e-01
5.785602090e-01,5.23899e-02,9.99999e-01,9.99999e-01,5.23899e-02,9.99999e-01
5.814530100e-01,5.55323e-02,9.99999e-01,9.99999e-01,5.55323e-02,9.99999e-01
5.843602750e-01,5.87955e-02,9.99999e-01,9.99999e-01,5.87955e-02,9.99999e-01
5.872820764e-01,6.21802e-02,9.99999e-01,9.99999e-01,6.21802e-02,9.99999e-01
5.902184868e-01,6.56872e-02,9.99999e-01,9.99999e-01,6.56872e-02,9.99999e-01
5.931695792e-01,6.93168e-02,9.99999e-01,9.99999e-01,6.93168e-02,9.99999e-01
5.961354271e-01,7.30692e-02,9.99999e-01,9.99999e-01,7.30692e-02,9.99999e-01
5.991161043e-01,7.69447e-02,9.99999e-01,9.99999e-01,7.69447e-02,9.99999e-01
6.021116848e-01,8.09430e-02,9.99999e-01,9.99999e-01,8.09430e-02,9.99999e-01
6.051222432e-01,8.50640e-02,9.99999e-01,9.99999e-01,8.50640e-02,9.99999e-01
6.081478544e-01,8.93070e-02,9.99999e-01,9.99999e-01,8.93070e-02,9.99999e-01
6.111885937e-01,9.36717e-02,9.99999e-01,9.99999e-01,9.36717e-02,9.99999e-01
6.142445367e-01,9.81571e-02,9.99999e-01,9.99999e-01,9.81571e-02,9.99999e-01
6.173157594e-01,1.02762e-01,9.99999e-01,9.99999e-01,1.02762e-01,9.99999e-01
6.204023382e-01,1.07486e-01,9.99999e-01,9.99999e-01,1.07486e-01,9.99999e-01
6.235043498e-01,1.12327e-01,9.99999e-01,9.99999e-01,1.12327e-01,9.99999e-01
6.266218716e-01,1.17285e-01,9.99999e-01,9.99999e-01,1.17285e-01,9.99999e-01
6.297549810e-01,1.22356e-01,9.99999e-01,9.99999e-01,1.22356e-01,9.99999e-01
6.329037559e-01,1.27540e-01,9.99999e-01,9.99999e-01,1.27540e-01,9.99999e-01
6.360682746e-01,1.32835e-01,9.99999e-01,9.99999e-01,1.32835e-01,9.99999e-01
6.392486160e-01,1.38239e-01,9.99999e-01,9.99999e-01,1.38239e-01,9.99999e-01
6.424448591e-01,1.43749e-01,9.99999e-01,9.99999e-01,1.43749e-01,9.99999e-01
6.456570834e-01,1.49363e-01,9.99999e-01,9.99999e-01,1.49363e-01,9.99999e-01
6.488853688e-01,1.55080e-01,9.99999e-01,9.99999e-01,1.55080e-01,9.99999e-01
6.521297956e-01,1.60895e-01,9.99999e-01,9.99999e-01,1.60895e-01,9.99999e-01
6.553904446e-01,1.66808e-01,9.99999e-01,9.99999e-01,1.66808e-01,9.99999e-01
6.586673968e-01,1.72814e-01,9.99999e-01,9.99999e-01,1.72814e-01,9.99999e-01
6.619607338e-01,1.78912e-01,9.99999e-01,9.99999e-01,1.78912e-01,9.99999e-01
6.652705375e-01,1.85098e-01,9.99999e-01,9.99999e-01,1.85098e-01,9.99999e-01
6.685968902e-01,1.91369e-01,9.99999e-01,9.99999e-01,1.91369e-01,9.99999e-01
6.719398746e-01,1.97723e-01,9.99999e-01,9.99999e-01,1.97723e-01,9.99999e-01
6.752995740e-01,2.04155e-01,9.99999e-01,9.99999e-01,2.04155e-01,9.99999e-01
6.786760719e-01,2.10664e-01,9.99999e-01,9.99999e-01,2.10664e-01,9.99999e-01
6.820694522e-01,2.17246e-01,9.99999e-01,9.99999e-01,2.17246e-01,9.99999e-01
6.854797995e-01,2.23897e-01,9.99999e-01,9.99999e-01,2.23897e-01,9.99999e-01
6.889071985e-01,2.30614e-01,9.99999e-01,9.99999e-01,2.30614e-01,9.99999e-01
6.923517345e-01,2.37395e-01,9.99999e-01,9.99999e-01,2.37395e-01,9.99999e-01
6.958134932e-01,2.44235e-01,9.99999e-01,9.99999e-01,2.44235e-01,9.99999e-01
6.992925606e-01,2.51131e-01,9.99999e-01,9.99999e-01,2.51131e-01,9.99999e-01
7.027890234e-01,2.58079e-01,9.99999e-01,9.99999e-01,2.58079e-01,9.99999e-01
7.063029686e-01,2.65077e-01,9.99999e-01,9.99999e-01,2.65077e-01,9.99999e-01
7.098344834e-01,2.72121e-01,9.99999e-01,9.99999e-01,2.72121e-01,9.99999e-01
7.133836558e-01,2.79207e-01,9.99999e-01,9.99999e-01,2.79207e-01,9.99999e-01
7.169505741e-01,2.86333e-01,9.99999e-01,9.99999e-01,2.86333e-01,9.99999e-01
7.205353270e-01,2.93494e-01,9.99999e-01,9.99999e-01,2.93494e-01,9.99999e-01
7.241380036e-01,3.00688e-01,9.99999e-01,9.99999e-01,3.00688e-01,9.99999e-01
7.277586936e-01,3.07910e-01,9.99999e-01,9.99999e-01,3.07910e-01,9.99999e-01
7.313974871e-01,3.15158e-01,9.99999e-01,9.99999e-01,3.15158e-01,9.99999e-01
7.350544745e-01,3.22429e-01,9.99999e-01,9.99999e-01,3.22429e-01,9.99999e-01
7.387297469e-01,3.29719e-01,9.99999e-01,9.99999e-01,3.29719e-01,9.99999e-01
7.424233956e-01,3.37025e-01,9.99999e-01,9.99999e-01,3.37025e-01,9.99999e-01
7.461355126e-01,3.44343e-01,9.99999e-01,9.99999e-01,3.44343e-01,9.99999e-01
7.498661902e-01,3.51671e-01,9.99999e-01,9.99999e-01,3.51671e-01,9.99999e-01
7.536155211e-01,3.59006e-01,9.99999e-01,9.99999e-01,3.59006e-01,9.99999e-01
7.573835987e-01,3.66345e-01,9.99999e-01,9.99999e-01,3.66345e-01,9.99999e-01
7.611705167e-01,3.73684e-01,9.99999e-01,9.99999e-01,3.73684e-01,9.99999e-01
7.649763693e-01,3.81020e-01,9.99999e-01,9.99999e-01,3.81020e-01,9.99999e-01
7.688012511e-01,3.88352e-01,9.99999e-01,9.99999e-01,3.88352e-01,9.99999e-01
7.726452574e-01,3.95676e-01,9.99999e-01,9.99999e-01,3.95676e-01,9.99999e-01
7.765084837e-01,4.02989e-01,9.99999e-01,9.99999e-01,4.02989e-01,9.99999e-01
7.803910261e-01,3.92844e-01,9.99999e-01,9.57483e-01,4.10288e-01,9.99999e-01
7.842929812e-01,3.47918e-01,9.99999e-01,8.33190e-01,4.17572e-01,9.99999e-01
7.882144461e-01,3.48908e-01,9.99999e-01,8.21272e-01,4.24838e-01,9.99999e-01
7.921555184e-01,3.84902e-01,9.99999e-01,8.90805e-01,4.32083e-01,9.99999e-01
7.961162960e-01,4.06869e-01,9.99999e-01,9.26166e-01,4.39304e-01,9.99999e-01
8.000968774e-01,4.28267e-01,9.99999e-01,9.59164e-01,4.46500e-01,9.99999e-01
8.040973618e-01,4.44024e-01,9.99999e-01,9.78741e-01,4.53668e-01,9.99999e-01
8.081178486e-01,4.56261e-01,9.99999e-01,9.90135e-01,4.60806e-01,9.99999e-01
8.121584379e-01,4.66503e-01,9.99999e-01,9.96985e-01,4.67913e-01,9.99999e-01
8.162192301e-01,4.74668e-01,9.99999e-01,9.99332e-01,4.74985e-01,9.99999e-01
8.203003262e-01,4.82017e-01,9.99999e-01,9.99990e-01,4.82021e-01,9.99999e-01
8.244018279e-01,4.89020e-01,9.99999e-01,9.99999e-01,4.89020e-01,9.99999e-01
8.285238370e-01,4.95979e-01,9.99999e-01,9.99999e-01,4.95979e-01,9.99999e-01
8.326664562e-01,5.02896e-01,9.99999e-01,9.99999e-01,5.02896e-01,9.99999e-01
8.368297885e-01,5.09771e-01,9.99999e-01,9.99999e-01,5.09771e-01,9.99999e-01
8.410139374e-01,5.16601e-01,9.99999e-01,9.99999e-01,5.16601e-01,9.99999e-01
8.452190071e-01,5.23385e-01,9.99999e-01,9.99999e-01,5.23385e-01,9.99999e-01
8.494451021e-01,5.30121e-01,9.99999e-01,9.99999e-01,5.30121e-01,9.99999e-01
8.536923276e-01,5.36808e-01,9.99999e-01,9.99999e-01,5.36808e-01,9.99999e-01
8.579607893e-01,5.43445e-01,9.99999e-01,9.99999e-01,5.43445e-01,9.99999e-01
8.622505932e-01,5.50031e-01,9.99999e-01,9.99999e-01,5.50031e-01,9.99999e-01
8.665618462e-01,5.07741e-01,9.99999e-01,9.12278e-01,5.56564e-01,9.99999e-01
8.708946554e-01,3.53754e-01,9.99999e-01,6.28289e-01,5.63043e-01,9.99999e-01
8.752491287e-01,3.91788e-01,9.99999e-01,6.87988e-01,5.69468e-01,9.99999e-01
8.796253743e-01,4.68700e-01,9.99999e-01,8.13946e-01,5.75837e-01,9.99999e-01
8.840235012e-01,5.23094e-01,9.99999e-01,8.98557e-01,5.82149e-01,9.99999e-01
8.884436187e-01,5.64217e-01,9.99999e-01,9.58893e-01,5.88403e-01,9.99999e-01
8.928858368e-01,5.84558e-01,9.99999e-01,9.83110e-01,5.94600e-01,9.99999e-01
8.973502660e-01,5.98275e-01,9.99999e-01,9.95901e-01,6.00737e-01,9.99999e-01
9.018370173e-01,6.06541e-01,9.99999e-01,9.99549e-01,6.06814e-01,9.99999e-01
9.063462024e-01,6.05458e-01,9.99999e-01,9.87967e-01,6.12831e-01,9.99999e-01
9.108779334e-01,6.02317e-01,9.99999e-01,9.73382e-01,6.18788e-01,9.99999e-01
9.154323231e-01,6.20799e-01,9.99999e-01,9.93783e-01,6.24682e-01,9.99999e-01
9.200094847e-01,5.74597e-01,9.99999e-01,9.11314e-01,6.30515e-01,9.99999e-01
9.246095321e-01,5.57511e-01,9.99999e-01,8.76196e-01,6.36285e-01,9.99999e-01
9.292325798e-01,5.78116e-01,9.99999e-01,9.00501e-01,6.41993e-01,9.99999e-01
9.338787427e-01,5.85949e-01,9.99999e-01,9.04747e-01,6.47637e-01,9.99999e-01
9.385481364e-01,6.06825e-01,9.99999e-01,9.28977e-01,6.53219e-01,9.99999e-01
9.432408771e-01,6.29765e-01,9.99999e-01,9.56019e-01,6.58736e-01,9.99999e-01
9.479570815e-01,6.49003e-01,9.99999e-01,9.77132e-01,6.64190e-01,9.99999e-01
9.526968669e-01,6.62176e-01,9.99999e-01,9.88942e-01,6.69580e-01,9.99999e-01
9.574603512e-01,6.71709e-01,9.99999e-01,9.95262e-01,6.74906e-01,9.99999e-01
9.622476530e-01,6.79164e-01,9.99999e-01,9.98522e-01,6.80168e-01,9.99999e-01
9.670588912e-01,6.85064e-01,9.99999e-01,9.99558e-01,6.85366e-01,9.99999e-01
9.718941857e-01,6.90479e-01,9.99999e-01,9.99969e-01,6.90500e-01,9.99999e-01
9.767536566e-01,6.95569e-01,9.99999e-01,9.99999e-01,6.95569e-01,9.99999e-01
9.816374249e-01,7.00575e-01,9.99999e-01,9.99999e-01,7.00575e-01,9.99999e-01
9.865456120e-01,7.05517e-01,9.99999e-01,9.99999e-01,7.05517e-01,9.99999e-01
9.914783401e-01,7.10394e-01,9.99999e-01,9.99999e-01,7.10394e-01,9.99999e-01
9.964357318e-01,7.15209e-01,9.99999e-01,9.99999e-01,7.15209e-01,9.99999e-01
1.001417910e+00,7.19960e-01,9.99999e-01,9.99999e-01,7.19960e-01,9.99999e-01
1.006425000e+00,7.24647e-01,9.99999e-01,9.99999e-01,7.24647e-01,9.99999e-01
1.011457125e+00,7.29272e-01,9.99999e-01,9.99999e-01,7.29272e-01,9.99999e-01
1.016514411e+00,7.33834e-01,9.99999e-01,9.99999e-01,7.33834e-01,9.99999e-01
1.021596983e+00,7.38278e-01,9.99999e-01,9.99925e-01,7.38333e-01,9.99999e-01
1.026704968e+00,7.39251e-01,9.99999e-01,9.95261e-01,7.42771e-01,9.99999e-01
1.031838492e+00,7.05718e-01,9.99999e-01,9.44550e-01,7.47147e-01,9.99999e-01
1.036997685e+00,9.33024e-02,9.99999e-01,1.24161e-01,7.51461e-01,9.99999e-01
1.042182673e+00,5.96051e-02,9.99999e-01,7.88725e-02,7.55714e-01,9.99999e-01
1.047393587e+00,7.68736e-02,9.99999e-01,1.01162e-01,7.59907e-01,9.99999e-01
1.052630555e+00,1.10989e-03,9.99999e-01,1.45266e-03,7.64039e-01,9.99999e-01
1.057893707e+00,3.21300e-03,9.99999e-01,4.18298e-03,7.68111e-01,9.99999e-01
1.063183176e+00,1.33030e-02,9.99999e-01,1.72291e-02,7.72125e-01,9.99999e-01
1.068499092e+00,4.39763e-02,9.99999e-01,5.66647e-02,7.76079e-01,9.99999e-01
1.073841587e+00,1.27499e-01,9.99999e-01,1.63465e-01,7.79975e-01,9.99999e-01
1.079210795e+00,2.48844e-01,9.99999e-01,3.17479e-01,7.83812e-01,9.99999e-01
1.084606849e+00,4.18380e-01,9.99999e-01,5.31213e-01,7.87593e-01,9.99999e-01
1.090029883e+00,5.69296e-01,9.99999e-01,7.19428e-01,7.91316e-01,9.99999e-01
1.095480033e+00,6.76097e-01,9.99999e-01,8.50454e-01,7.94983e-01,9.99999e-01
1.100957433e+00,7.38566e-01,9.99999e-01,9.24832e-01,7.98594e-01,9.99999e-01
1.106462220e+00,7.76696e-01,9.99999e-01,9.68268e-01,8.02149e-01,9.99999e-01
1.111994531e+00,7.96077e-01,9.99999e-01,9.88116e-01,8.05650e-01,9.99999e-01
1.117554504e+00,8.06756e-01,9.99999e-01,9.97106e-01,8.09096e-01,9.99999e-01
1.123142276e+00,8.12336e-01,9.99999e-01,9.99811e-01,8.12489e-01,9.99999e-01
1.128757988e+00,8.15828e-01,9.99999e-01,9.99999e-01,8.15828e-01,9.99999e-01
1.134401778e+00,8.19115e-01,9.99999e-01,9.99999e-01,8.19115e-01,9.99999e-01
1.140073787e+00,8.22350e-01,9.99999e-01,9.99999e-01,8.22350e-01,9.99999e-01
1.145774156e+00,8.25533e-01,9.99999e-01,9.99999e-01,8.25533e-01,9.99999e-01
1.151503026e+00,8.28665e-01,9.99999e-01,9.99999e-01,8.28665e-01,9.99999e-01
1.157260541e+00,8.31747e-01,9.99999e-01,9.99999e-01,8.31747e-01,9.99999e-01
1.163046844e+00,8.34779e-01,9.99999e-01,9.99999e-01,8.34779e-01,9.99999e-01
1.168862078e+00,8.37762e-01,9.99999e-01,9.99999e-01,8.37762e-01,9.99999e-01
1.174706389e+00,8.40697e-01,9.99999e-01,9.99999e-01,8.40697e-01,9.99999e-01
1.180579921e+00,8.43583e-01,9.99999e-01,9.99999e-01,8.43583e-01,9.99999e-01
1.186482820e+00,8.46412e-01,9.99999e-01,9.99987e-01,8.46422e-01,9.99999e-01
1.192415234e+00,8.34891e-01,9.99999e-01,9.83132e-01,8.49214e-01,9.99999e-01
1.198377311e+00,4.72382e-01,9.99999e-01,5.54464e-01,8.51961e-01,9.99999e-01
1.204369197e+00,2.97438e-13,9.99999e-01,3.48019e-13,8.54661e-01,9.99999e-01
1.210391043e+00,1.60131e-49,9.99999e-01,1.86782e-49,8.57316e-01,9.99999e-01
1.216442998e+00,4.89799e-43,9.99999e-01,5.69581e-43,8.59927e-01,9.99999e-01
1.222525213e+00,2.06862e-42,9.99999e-01,2.39841e-42,8.62494e-01,9.99999e-01
1.228637839e+00,7.46875e-33,9.99999e-01,8.63421e-33,8.65018e-01,9.99999e-01
1.234781029e+00,4.64253e-21,9.99999e-01,5.35162e-21,8.67499e-01,9.99999e-01
1.240954934e+00,3.67501e-14,9.99999e-01,4.22444e-14,8.69938e-01,9.99999e-01
1.247159708e+00,1.21487e-07,9.99999e-01,1.39266e-07,8.72336e-01,9.99999e-01
1.253395507e+00,5.43281e-05,9.99999e-01,6.21110e-05,8.74692e-01,9.99999e-01
1.259662485e+00,3.37374e-03,9.99999e-01,3.84686e-03,8.77009e-01,9.99999e-01
1.265960797e+00,3.62282e-02,9.99999e-01,4.12018e-02,8.79285e-01,9.99999e-01
1.272290601e+00,2.23349e-01,9.99999e-01,2.53367e-01,8.81522e-01,9.99999e-01
1.278652054e+00,1.86832e-01,9.99999e-01,2.11415e-01,8.83721e-01,9.99999e-01
1.285045314e+00,2.55422e-03,9.99999e-01,2.88325e-03,8.85881e-01,9.99999e-01
1.291470541e+00,1.84185e-06,9.99999e-01,2.07414e-06,8.88004e-01,9.99999e-01
1.297927893e+00,4.19965e-03,9.99999e-01,4.71823e-03,8.90090e-01,9.99999e-01
1.304417533e+00,7.24057e-02,9.99999e-01,8.11595e-02,8.92139e-01,9.99999e-01
1.310939621e+00,1.15410e-02,9.99999e-01,1.29071e-02,8.94153e-01,9.99999e-01
1.317494319e+00,1.41492e-17,9.99999e-01,1.57892e-17,8.96131e-01,9.99999e-01
1.324081790e+00,5.32574e-09,9.99999e-01,5.93017e-09,8.98074e-01,9.99999e-01
1.330702199e+00,4.63069e-07,9.99999e-01,5.14530e-07,8.99983e-01,9.99999e-01
1.337355710e+00,1.23504e-06,9.99999e-01,1.36943e-06,9.01858e-01,9.99999e-01
1.344042489e+00,3.45681e-08,9.99999e-01,3.82517e-08,9.03700e-01,9.99999e-01
1.350762701e+00,2.82750e-07,9.99999e-01,3.12255e-07,9.05510e-01,9.99999e-01
1.357516515e+00,7.13248e-05,9.99999e-01,7.86133e-05,9.07287e-01,9.99999e-01
1.364304097e+00,1.70018e-03,9.99999e-01,1.87032e-03,9.09032e-01,9.99999e-01
1.371125618e+00,3.52685e-02,9.99999e-01,3.87248e-02,9.10746e-01,9.99999e-01
1.377981246e+00,6.11169e-02,9.99999e-01,6.69825e-02,9.12429e-01,9.99999e-01
1.384871152e+00,1.89764e-01,9.99999e-01,2.07600e-01,9.14083e-01,9.99999e-01
1.391795508e+00,2.14531e-01,9.99999e-01,2.34279e-01,9.15706e-01,9.99999e-01
1.398754485e+00,3.73438e-01,9.99999e-01,4.07105e-01,9.17300e-01,9.99999e-01
1.405748258e+00,4.75214e-01,9.99999e-01,5.17174e-01,9.18866e-01,9.99999e-01
1.412776999e+00,6.06748e-01,9.99999e-01,6.59220e-01,9.20403e-01,9.99999e-01
1.419840884e+00,5.37952e-01,9.99999e-01,5.83517e-01,9.21912e-01,9.99999e-01
1.426940089e+00,4.20032e-02,9.99999e-01,4.54879e-02,9.23393e-01,9.99999e-01
1.434074789e+00,0.00000e+00,9.99999e-01,0.00000e+00,9.24848e-01,9.99999e-01
1.441245163e+00,0.00000e+00,9.99999e-01,0.00000e+00,9.26277e-01,9.99999e-01
1.448451389e+00,0.00000e+00,9.99999e-01,0.00000e+00,9.27679e-01,9.99999e-01
1.455693646e+00,0.00000e+00,9.99999e-01,0.00000e+00,9.29055e-01,9.99999e-01
1.462972114e+00,4.13211e-194,9.99999e-01,4.44118e-194,9.30407e-01,9.99999e-01
1.470286975e+00,3.39377e-81,9.99999e-01,3.64243e-81,9.31733e-01,9.99999e-01
