#,Wave/freq,Total,N2,CO2,Rayleigh,CIA
4.000000000e-01,7.36465e-08,9.99999e-01,9.99999e-01,7.36465e-08,9.99999e-01
4.020000000e-01,1.01904e-07,9.99999e-01,9.99999e-01,1.01904e-07,9.99999e-01
4.040100000e-01,1.40055e-07,9.99999e-01,9.99999e-01,1.40055e-07,9.99999e-01
4.060300500e-01,1.91282e-07,9.99999e-01,9.99999e-01,1.91282e-07,9.99999e-01
4.080602003e-01,2.59644e-07,9.99999e-01,9.99999e-01,2.59644e-07,9.99999e-01
4.101005013e-01,3.50317e-07,9.99999e-01,9.99999e-01,3.50317e-07,9.99999e-01
4.121510038e-01,4.69866e-07,9.99999e-01,9.99999e-01,4.69866e-07,9.99999e-01
4.142117588e-01,6.26567e-07,9.99999e-01,9.99999e-01,6.26567e-07,9.99999e-01
4.162828176e-01,8.30794e-07,9.99999e-01,9.99999e-01,8.30794e-07,9.99999e-01
4.183642317e-01,1.09546e-06,9.99999e-01,9.99999e-01,1.09546e-06,9.99999e-01
4.204560528e-01,1.43658e-06,9.99999e-01,9.99999e-01,1.43658e-06,9.99999e-01
4.225583331e-01,1.87386e-06,9.99999e-01,9.99999e-01,1.87386e-06,9.99999e-01
4.246711247e-01,2.43145e-06,9.99999e-01,9.99999e-01,2.43145e-06,9.99999e-01
4.267944804e-01,3.13876e-06,9.99999e-01,9.99999e-01,3.13876e-06,9.99999e-01
4.289284528e-01,4.03145e-06,9.99999e-01,9.99999e-01,4.03145e-06,9.99999e-01
4.310730950e-01,5.15249e-06,9.99999e-01,9.99999e-01,5.15249e-06,9.99999e-01
4.332284605e-01,6.55341e-06,9.99999e-01,9.99999e-01,6.55341e-06,9.99999e-01
4.353946028e-01,8.29574e-06,9.99999e-01,9.99999e-01,8.29574e-06,9.99999e-01
4.375715758e-01,1.04525e-05,9.99999e-01,9.99999e-01,1.04525e-05,9.99999e-01
4.397594337e-01,1.31100e-05,9.99999e-01,9.99999e-01,1.31100e-05,9.99999e-01
4.419582309e-01,1.63698e-05,9.99999e-01,9.99999e-01,1.63698e-05,9.99999e-01
4.441680220e-01,2.03506e-05,9.99999e-01,9.99999e-01,2.03506e-05,9.99999e-01
4.463888621e-01,2.51909e-05,9.99999e-01,9.99999e-01,2.51909e-05,9.99999e-01
4.486208064e-01,3.10514e-05,9.99999e-01,9.99999e-01,3.10514e-05,9.99999e-01
4.508639105e-01,3.81174e-05,9.99999e-01,9.99999e-01,3.81174e-05,9.99999e-01
4.531182300e-01,4.66023e-05,9.99999e-01,9.99999e-01,4.66023e-05,9.99999e-01
4.553838212e-01,5.67502e-05,9.99999e-01,9.99999e-01,5.67502e-05,9.99999e-01
4.576607403e-01,6.88394e-05,9.99999e-01,9.99999e-01,6.88394e-05,9.99999e-01
4.599490440e-01,8.31859e-05,9.99999e-01,9.99999e-01,8.31859e-05,9.99999e-01
4.622487892e-01,1.00147e-04,9.99999e-01,9.99999e-01,1.00147e-04,9.99999e-01
4.645600332e-01,1.20126e-04,9.99999e-01,9.99999e-01,1.20126e-04,9.99999e-01
4.668828333e-01,1.43573e-04,9.99999e-01,9.99999e-01,1.43573e-04,9.99999e-01
4.692172475e-01,1.70994e-04,9.99999e-01,9.99999e-01,1.70994e-04,9.99999e-01
4.715633337e-01,2.02950e-04,9.99999e-01,9.99999e-01,2.02950e-04,9.99999e-01
4.739211504e-01,2.40064e-04,9.99999e-01,9.99999e-01,2.40064e-04,9.99999e-01
4.762907561e-01,2.83025e-04,9.99999e-01,9.99999e-01,2.83025e-04,9.99999e-01
4.786722099e-01,3.32590e-04,9.99999e-01,9.99999e-01,3.32590e-04,9.99999e-01
4.810655710e-01,3.89592e-04,9.99999e-01,9.99999e-01,3.89592e-04,9.99999e-01
4.834708988e-01,4.54940e-04,9.99999e-01,9.99999e-01,4.54940e-04,9.99999e-01
4.858882533e-01,5.29624e-04,9.99999e-01,9.99999e-01,5.29624e-04,9.99999e-01
4.883176946e-01,6.14720e-04,9.99999e-01,9.99999e-01,6.14720e-04,9.99999e-01
4.907592831e-01,7.11392e-04,9.99999e-01,9.99999e-01,7.11392e-04,9.99999e-01
4.932130795e-01,8.20895e-04,9.99999e-01,9.99999e-01,8.20895e-04,9.99999e-01
4.956791449e-01,9.44579e-04,9.99999e-01,9.99999e-01,9.44579e-04,9.99999e-01
4.981575406e-01,1.08389e-03,9.99999e-01,9.99999e-01,1.08389e-03,9.99999e-01
5.006483283e-01,1.24037e-03,9.99999e-01,9.99999e-01,1.24037e-03,9.99999e-01
5.031515699e-01,1.41567e-03,9.99999e-01,9.99999e-01,1.41567e-03,9.99999e-01
5.056673278e-01,1.61152e-03,9.99999e-01,9.99999e-01,1.61152e-03,9.99999e-01
5.081956644e-01,1.82979e-03,9.99999e-01,9.99999e-01,1.82979e-03,9.99999e-01
5.107366428e-01,2.07241e-03,9.99999e-01,9.99999e-01,2.07241e-03,9.99999e-01
5.132903260e-01,2.34143e-03,9.99999e-01,9.99999e-01,2.34143e-03,9.99999e-01
5.158567776e-01,2.63900e-03,9.99999e-01,9.99999e-01,2.63900e-03,9.99999e-01
5.184360615e-01,2.96738e-03,9.99999e-01,9.99999e-01,2.96738e-03,9.99999e-01
5.210282418e-01,3.32889e-03,9.99999e-01,9.99999e-01,3.32889e-03,9.99999e-01
5.236333830e-01,3.72598e-03,9.99999e-01,9.99999e-01,3.72598e-03,9.99999e-01
5.262515499e-01,4.16116e-03,9.99999e-01,9.99999e-01,4.16116e-03,9.99999e-01
5.288828077e-01,4.63704e-03,9.99999e-01,9.99999e-01,4.63704e-03,9.99999e-01
5.315272217e-01,5.15631e-03,9.99999e-01,9.99999e-01,5.15631e-03,9.99999e-01
5.341848578e-01,5.72171e-03,9.99999e-01,9.99999e-01,5.72171e-03,9.99999e-01
5.368557821e-01,6.33607e-03,9.99999e-01,9.99999e-01,6.33607e-03,9.99999e-01
5.395400610e-01,7.00228e-03,9.99999e-01,9.99999e-01,7.00228e-03,9.99999e-01
5.422377613e-01,7.72327e-03,9.99999e-01,9.99999e-01,7.72327e-03,9.99999e-01
5.449489501e-01,8.50203e-03,9.99999e-01,9.99999e-01,8.50203e-03,9.99999e-01
5.476736949e-01,9.34156e-03,9.99999e-01,9.99999e-01,9.34156e-03,9.99999e-01
5.504120634e-01,1.02449e-02,9.99999e-01,9.99999e-01,1.02449e-02,9.99999e-01
5.531641237e-01,1.12152e-02,9.99999e-01,9.99999e-01,1.12152e-02,9.99999e-01
5.559299443e-01,1.22554e-02,9.99999e-01,9.99999e-01,1.22554e-02,9.99999e-01
5.587095940e-01,1.33687e-02,9.99999e-01,9.99999e-01,1.33687e-02,9.99999e-01
5.615031420e-01,1.45580e-02,9.99999e-01,9.99999e-01,1.45580e-02,9.99999e-01
5.643106577e-01,1.58265e-02,9.99999e-01,9.99999e-01,1.58265e-02,9.99999e-01
5.671322110e-01,1.71772e-02,9.99999e-01,9.99999e-01,1.71772e-02,9.99999e-01
5.699678720e-01,1.86130e-02,9.99999e-01,9.99999e-01,1.86130e-02,9.99999e-01
5.728177114e-01,2.01368e-02,9.99999e-01,9.99999e-01,2.01368e-02,9.99999e-01
5.756818000e-01,2.17516e-02,9.99999e-01,9.99999e-01,2.17516e-02,9.99999e-01
5.785602090e-01,2.34601e-02,9.99999e-01,9.99999e-01,2.34601e-02,9.99999e-01
5.814530100e-01,2.52651e-02,9.99999e-01,9.99999e-01,2.52651e-02,9.99999e-01
5.843602750e-01,2.71691e-02,9.99999e-01,9.99999e-01,2.71691e-02,9.99999e-01
5.872820764e-01,2.91746e-02,9.99999e-01,9.99999e-01,2.91746e-02,9.99999e-01
5.902184868e-01,3.12842e-02,9.99999e-01,9.99999e-01,3.12842e-02,9.99999e-01
5.931695792e-01,3.35001e-02,9.99999e-01,9.99999e-01,3.35001e-02,9.99999e-01
5.961354271e-01,3.58245e-02,9.99999e-01,9.99999e-01,3.58245e-02,9.99999e-01
5.991161043e-01,3.82595e-02,9.99999e-01,9.99999e-01,3.82595e-02,9.99999e-01
6.021116848e-01,4.08069e-02,9.99999e-01,9.99999e-01,4.08069e-02,9.99999e-01
6.051222432e-01,4.34685e-02,9.99999e-01,9.99999e-01,4.34685e-02,9.99999e-01
6.081478544e-01,4.62460e-02,9.99999e-01,9.99999e-01,4.62460e-02,9.99999e-01
6.111885937e-01,4.91408e-02,9.99999e-01,9.99999e-01,4.91408e-02,9.99999e-01
6.142445367e-01,5.21542e-02,9.99999e-01,9.99999e-01,5.21542e-02,9.99999e-01
6.173157594e-01,5.52874e-02,9.99999e-01,9.99999e-01,5.52874e-02,9.99999e-01
6.204023382e-01,5.85413e-02,9.99999e-01,9.99999e-01,5.85413e-02,9.99999e-01
6.235043498e-01,6.19167e-02,9.99999e-01,9.99999e-01,6.19167e-02,9.99999e-01
6.266218716e-01,6.54143e-02,9.99999e-01,9.99999e-01,6.54143e-02,9.99999e-01
6.297549810e-01,6.90345e-02,9.99999e-01,9.99999e-01,6.90345e-02,9.99999e-01
6.329037559e-01,7.27776e-02,9.99999e-01,9.99999e-01,7.27776e-02,9.99999e-01
6.360682746e-01,7.66436e-02,9.99999e-01,9.99999e-01,7.66436e-02,9.99999e-01
6.392486160e-01,8.06325e-02,9.99999e-01,9.99999e-01,8.06325e-02,9.99999e-01
6.424448591e-01,8.47441e-02,9.99999e-01,9.99999e-01,8.47441e-02,9.99999e-01
6.456570834e-01,8.89779e-02,9.99999e-01,9.99999e-01,8.89779e-02,9.99999e-01
6.488853688e-01,9.33332e-02,9.99999e-01,9.99999e-01,9.33332e-02,9.99999e-01
6.521297956e-01,9.78094e-02,9.99999e-01,9.99999e-01,9.78094e-02,9.99999e-01
6.553904446e-01,1.02405e-01,9.99999e-01,9.99999e-01,1.02405e-01,9.99999e-01
6.586673968e-01,1.07120e-01,9.99999e-01,9.99999e-01,1.07120e-01,9.99999e-01
6.619607338e-01,1.11953e-01,9.99999e-01,9.99999e-01,1.11953e-01,9.99999e-01
6.652705375e-01,1.16901e-01,9.99999e-01,9.99999e-01,1.16901e-01,9.99999e-01
6.685968902e-01,1.21964e-01,9.99999e-01,9.99999e-01,1.21964e-01,9.99999e-01
6.719398746e-01,1.27139e-01,9.99999e-01,9.99999e-01,1.27139e-01,9.99999e-01
6.752995740e-01,1.32426e-01,9.99999e-01,9.99999e-01,1.32426e-01,9.99999e-01
6.786760719e-01,1.37821e-01,9.99999e-01,9.99999e-01,1.37821e-01,9.99999e-01
6.820694522e-01,1.43323e-01,9.99999e-01,9.99999e-01,1.43323e-01,9.99999e-01
6.854797995e-01,1.48930e-01,9.99999e-01,9.99999e-01,1.48930e-01,9.99999e-01
6.889071985e-01,1.54638e-01,9.99999e-01,9.99999e-01,1.54638e-01,9.99999e-01
6.923517345e-01,1.60446e-01,9.99999e-01,9.99999e-01,1.60446e-01,9.99999e-01
6.958134932e-01,1.66352e-01,9.99999e-01,9.99999e-01,1.66352e-01,9.99999e-01
6.992925606e-01,1.72351e-01,9.99999e-01,9.99999e-01,1.72351e-01,9.99999e-01
7.027890234e-01,1.78442e-01,9.99999e-01,9.99999e-01,1.78442e-01,9.99999e-01
7.063029686e-01,1.84621e-01,9.99999e-01,9.99999e-01,1.84621e-01,9.99999e-01
7.098344834e-01,1.90886e-01,9.99999e-01,9.99999e-01,1.90886e-01,9.99999e-01
7.133836558e-01,1.97233e-01,9.99999e-01,9.99999e-01,1.97233e-01,9.99999e-01
7.169505741e-01,2.03660e-01,9.99999e-01,9.99999e-01,2.03660e-01,9.99999e-01
7.205353270e-01,2.10163e-01,9.99999e-01,9.99999e-01,2.10163e-01,9.99999e-01
7.241380036e-01,2.16739e-01,9.99999e-01,9.99999e-01,2.16739e-01,9.99999e-01
7.277586936e-01,2.23385e-01,9.99999e-01,9.99999e-01,2.23385e-01,9.99999e-01
7.313974871e-01,2.30098e-01,9.99999e-01,9.99999e-01,2.30098e-01,9.99999e-01
7.350544745e-01,2.36873e-01,9.99999e-01,9.99999e-01,2.36873e-01,9.99999e-01
7.387297469e-01,2.43709e-01,9.99999e-01,9.99999e-01,2.43709e-01,9.99999e-01
7.424233956e-01,2.50601e-01,9.99999e-01,9.99999e-01,2.50601e-01,9.99999e-01
7.461355126e-01,2.57545e-01,9.99999e-01,9.99999e-01,2.57545e-01,9.99999e-01
7.498661902e-01,2.64540e-01,9.99999e-01,9.99999e-01,2.64540e-01,9.99999e-01
7.536155211e-01,2.71580e-01,9.99999e-01,9.99999e-01,2.71580e-01,9.99999e-01
7.573835987e-01,2.78663e-01,9.99999e-01,9.99999e-01,2.78663e-01,9.99999e-01
7.611705167e-01,2.85786e-01,9.99999e-01,9.99999e-01,2.85786e-01,9.99999e-01
7.649763693e-01,2.92945e-01,9.99999e-01,9.99999e-01,2.92945e-01,9.99999e-01
7.688012511e-01,3.00136e-01,9.99999e-01,9.99999e-01,3.00136e-01,9.99999e-01
7.726452574e-01,3.07356e-01,9.99999e-01,9.99999e-01,3.07356e-01,9.99999e-01
7.765084837e-01,3.14603e-01,9.99999e-01,9.99999e-01,3.14603e-01,9.99999e-01
7.803910261e-01,3.06524e-01,9.99999e-01,9.52318e-01,3.21872e-01,9.99999e-01
7.842929812e-01,2.60800e-01,9.99999e-01,7.92319e-01,3.29160e-01,9.99999e-01
7.882144461e-01,2.62891e-01,9.99999e-01,7.81331e-01,3.36465e-01,9.99999e-01
7.921555184e-01,2.97059e-01,9.99999e-01,8.64089e-01,3.43783e-01,9.99999e-01
7.961162960e-01,3.18078e-01,9.99999e-01,9.05921e-01,3.51110e-01,9.99999e-01
8.000968774e-01,3.39774e-01,9.99999e-01,9.47911e-01,3.58444e-01,9.99999e-01
8.040973618e-01,3.55741e-01,9.99999e-01,9.72547e-01,3.65783e-01,9.99999e-01
8.081178486e-01,3.68404e-01,9.99999e-01,9.87355e-01,3.73122e-01,9.99999e-01
8.121584379e-01,3.78955e-01,9.99999e-01,9.96045e-01,3.80459e-01,9.99999e-01
8.162192301e-01,3.87452e-01,9.99999e-01,9.99125e-01,3.87791e-01,9.99999e-01
8.203003262e-01,3.95110e-01,9.99999e-01,9.99985e-01,3.95115e-01,9.99999e-01
8.244018279e-01,4.02429e-01,9.99999e-01,9.99999e-01,4.02429e-01,9.99999e-01
8.285238370e-01,4.09730e-01,9.99999e-01,9.99999e-01,4.09730e-01,9.99999e-01
8.326664562e-01,4.17015e-01,9.99999e-01,9.99999e-01,4.17015e-01,9.99999e-01
8.368297885e-01,4.24282e-01,9.99999e-01,9.99999e-01,4.24282e-01,9.99999e-01
8.410139374e-01,4.31529e-01,9.99999e-01,9.99999e-01,4.31529e-01,9.99999e-01
8.452190071e-01,4.38752e-01,9.99999e-01,9.99999e-01,4.38752e-01,9.99999e-01
8.494451021e-01,4.45950e-01,9.99999e-01,9.99999e-01,4.45950e-01,9.99999e-01
8.536923276e-01,4.53120e-01,9.99999e-01,9.99999e-01,4.53120e-01,9.99999e-01
8.579607893e-01,4.60261e-01,9.99999e-01,9.99999e-01,4.60261e-01,9.99999e-01
8.622505932e-01,4.67370e-01,9.99999e-01,9.99999e-01,4.67370e-01,9.99999e-01
8.665618462e-01,4.30723e-01,9.99999e-01,9.07845e-01,4.74445e-01,9.99999e-01
8.708946554e-01,2.69226e-01,9.99999e-01,5.59159e-01,4.81484e-01,9.99999e-01
8.752491287e-01,3.03686e-01,9.99999e-01,6.21688e-01,4.88485e-01,9.99999e-01
8.796253743e-01,3.80551e-01,9.99999e-01,7.68096e-01,4.95447e-01,9.99999e-01
8.840235012e-01,4.37853e-01,9.99999e-01,8.71578e-01,5.02368e-01,9.99999e-01
8.884436187e-01,4.82240e-01,9.99999e-01,9.46967e-01,5.09246e-01,9.99999e-01
8.928858368e-01,5.04839e-01,9.99999e-01,9.78219e-01,5.16079e-01,9.99999e-01
8.973502660e-01,5.20061e-01,9.99999e-01,9.94632e-01,5.22867e-01,9.99999e-01
9.018370173e-01,5.29292e-01,9.99999e-01,9.99405e-01,5.29607e-01,9.99999e-01
9.063462024e-01,5.28479e-01,9.99999e-01,9.85420e-01,5.36298e-01,9.99999e-01
9.108779334e-01,5.24436e-01,9.99999e-01,9.65919e-01,5.42939e-01,9.99999e-01
9.154323231e-01,5.45033e-01,9.99999e-01,9.91818e-01,5.49529e-01,9.99999e-01
9.200094847e-01,4.97048e-01,9.99999e-01,8.93864e-01,5.56066e-01,9.99999e-01
9.246095321e-01,4.74959e-01,9.99999e-01,8.44296e-01,5.62549e-01,9.99999e-01
9.292325798e-01,4.99294e-01,9.99999e-01,8.77528e-01,5.68978e-01,9.99999e-01
9.338787427e-01,5.06264e-01,9.99999e-01,8.79920e-01,5.75351e-01,9.99999e-01
9.385481364e-01,5.29376e-01,9.99999e-01,9.10099e-01,5.81668e-01,9.99999e-01
9.432408771e-01,5.54826e-01,9.99999e-01,9.43698e-01,5.87927e-01,9.99999e-01
9.479570815e-01,5.76773e-01,9.99999e-01,9.70788e-01,5.94127e-01,9.99999e-01
9.526968669e-01,5.91738e-01,9.99999e-01,9.85787e-01,6.00269e-01,9.99999e-01
9.574603512e-01,6.02649e-01,9.99999e-01,9.93893e-01,6.06351e-01,9.99999e-01
9.622476530e-01,6.11203e-01,9.99999e-01,9.98089e-01,6.12373e-01,9.99999e-01
9.670588912e-01,6.17979e-01,9.99999e-01,9.99425e-01,6.18334e-01,9.99999e-01
9.718941857e-01,6.24207e-01,9.99999e-01,9.99958e-01,6.24233e-01,9.99999e-01
9.767536566e-01,6.30070e-01,9.99999e-01,9.99999e-01,6.30070e-01,9.99999e-01
9.816374249e-01,6.35846e-01,9.99999e-01,9.99999e-01,6.35846e-01,9.99999e-01
9.865456120e-01,6.41558e-01,9.99999e-01,9.99999e-01,6.41558e-01,9.99999e-01
9.914783401e-01,6.47207e-01,9.99999e-01,9.99999e-01,6.47207e-01,9.99999e-01
9.964357318e-01,6.52794e-01,9.99999e-01,9.99999e-01,6.52794e-01,9.99999e-01
1.001417910e+00,6.58316e-01,9.99999e-01,9.99999e-01,6.58316e-01,9.99999e-01
1.006425000e+00,6.63775e-01,9.99999e-01,9.99999e-01,6.63775e-01,9.99999e-01
1.011457125e+00,6.69170e-01,9.99999e-01,9.99999e-01,6.69170e-01,9.99999e-01
1.016514411e+00,6.74501e-01,9.99999e-01,9.99999e-01,6.74501e-01,9.99999e-01
1.021596983e+00,6.79719e-01,9.99999e-01,9.99928e-01,6.79768e-01,9.99999e-01
1.026704968e+00,6.81060e-01,9.99999e-01,9.94291e-01,6.84970e-01,9.99999e-01
1.031838492e+00,6.51386e-01,9.99999e-01,9.43888e-01,6.90109e-01,9.99999e-01
1.036997685e+00,7.18800e-02,9.99999e-01,1.03397e-01,6.95183e-01,9.99999e-01
1.042182673e+00,2.94297e-02,9.99999e-01,4.20308e-02,7.00194e-01,9.99999e-01
1.047393587e+00,4.64773e-02,9.99999e-01,6.59120e-02,7.05140e-01,9.99999e-01
1.052630555e+00,2.60627e-04,9.99999e-01,3.67068e-04,7.10023e-01,9.99999e-01
1.057893707e+00,8.04532e-04,9.99999e-01,1.12547e-03,7.14842e-01,9.99999e-01
1.063183176e+00,4.61825e-03,9.99999e-01,6.41781e-03,7.19598e-01,9.99999e-01
1.068499092e+00,1.96359e-02,9.99999e-01,2.71105e-02,7.24291e-01,9.99999e-01
1.073841587e+00,7.33704e-02,9.99999e-01,1.00656e-01,7.28920e-01,9.99999e-01
1.079210795e+00,1.71442e-01,9.99999e-01,2.33735e-01,7.33487e-01,9.99999e-01
1.084606849e+00,3.28701e-01,9.99999e-01,4.45399e-01,7.37991e-01,9.99999e-01
1.090029883e+00,4.87469e-01,9.99999e-01,6.56582e-01,7.42433e-01,9.99999e-01
1.095480033e+00,6.06689e-01,9.99999e-01,8.12369e-01,7.46814e-01,9.99999e-01
1.100957433e+00,6.79487e-01,9.99999e-01,9.04616e-01,7.51133e-01,9.99999e-01
1.106462220e+00,7.24671e-01,9.99999e-01,9.59332e-01,7.55390e-01,9.99999e-01
1.111994531e+00,7.47986e-01,9.99999e-01,9.84726e-01,7.59588e-01,9.99999e-01
1.117554504e+00,7.60848e-01,9.99999e-01,9.96232e-01,7.63725e-01,9.99999e-01
1.123142276e+00,7.67610e-01,9.99999e-01,9.99750e-01,7.67802e-01,9.99999e-01
1.128757988e+00,7.71819e-01,9.99999e-01,9.99999e-01,7.71819e-01,9.99999e-01
1.134401778e+00,7.75778e-01,9.99999e-01,9.99999e-01,7.75778e-01,9.99999e-01
1.140073787e+00,7.79678e-01,9.99999e-01,9.99999e-01,7.79678e-01,9.99999e-01
1.145774156e+00,7.83521e-01,9.99999e-01,9.99999e-01,7.83521e-01,9.99999e-01
1.151503026e+00,7.87305e-01,9.99999e-01,9.99999e-01,7.87305e-01,9.99999e-01
1.157260541e+00,7.91033e-01,9.99999e-01,9.99999e-01,7.91033e-01,9.99999e-01
1.163046844e+00,7.94704e-01,9.99999e-01,9.99999e-01,7.94704e-01,9.99999e-01
1.168862078e+00,7.98319e-01,9.99999e-01,9.99999e-01,7.98319e-01,9.99999e-01
1.174706389e+00,8.01879e-01,9.99999e-01,9.99999e-01,8.01879e-01,9.99999e-01
1.180579921e+00,8.05384e-01,9.99999e-01,9.99999e-01,8.05384e-01,9.99999e-01
1.186482820e+00,8.08828e-01,9.99999e-01,9.99992e-01,8.08834e-01,9.99999e-01
1.192415234e+00,7.96038e-01,9.99999e-01,9.80062e-01,8.12231e-01,9.99999e-01
1.198377311e+00,4.48332e-01,9.99999e-01,5.49712e-01,8.15575e-01,9.99999e-01
1.204369197e+00,3.03041e-16,9.99999e-01,3.70073e-16,8.18865e-01,9.99999e-01
1.210391043e+00,2.24630e-62,9.99999e-01,2.73237e-62,8.22104e-01,9.99999e-01
1.216442998e+00,3.98412e-54,9.99999e-01,4.82753e-54,8.25291e-01,9.99999e-01
1.222525213e+00,2.48931e-53,9.99999e-01,3.00486e-53,8.28427e-01,9.99999e-01
1.228637839e+00,2.77468e-41,9.99999e-01,3.33690e-41,8.31513e-01,9.99999e-01
1.234781029e+00,3.56714e-26,9.99999e-01,4.27433e-26,8.34549e-01,9.99999e-01
1.240954934e+00,1.42149e-17,9.99999e-01,1.69723e-17,8.37536e-01,9.99999e-01
1.247159708e+00,4.02121e-09,9.99999e-01,4.78445e-09,8.40474e-01,9.99999e-01
1.253395507e+00,4.51772e-06,9.99999e-01,5.35678e-06,8.43364e-01,9.99999e-01
1.259662485e+00,5.02377e-04,9.99999e-01,5.93680e-04,8.46207e-01,9.99999e-01
1.265960797e+00,1.55741e-02,9.99999e-01,1.83440e-02,8.49002e-01,9.99999e-01
1.272290601e+00,1.30341e-01,9.99999e-01,1.53026e-01,8.51752e-01,9.99999e-01
1.278652054e+00,1.29497e-01,9.99999e-01,1.51554e-01,8.54456e-01,9.99999e-01
1.285045314e+00,1.45654e-03,9.99999e-01,1.69935e-03,8.57115e-01,9.99999e-01
1.291470541e+00,6.63162e-08,9.99999e-01,7.71361e-08,8.59729e-01,9.99999e-01
1.297927893e+00,5.26374e-04,9.99999e-01,6.10430e-04,8.62299e-01,9.99999e-01
1.304417533e+00,3.57436e-02,9.99999e-01,4.13304e-02,8.64826e-01,9.99999e-01
1.310939621e+00,8.74627e-03,9.99999e-01,1.00843e-02,8.67311e-01,9.99999e-01
1.317494319e+00,9.06898e-22,9.99999e-01,1.04271e-21,8.69753e-01,9.99999e-01
1.324081790e+00,1.11598e-14,9.99999e-01,1.27957e-14,8.72154e-01,9.99999e-01
1.330702199e+00,1.06160e-08,9.99999e-01,1.21393e-08,8.74513e-01,9.99999e-01
1.337355710e+00,2.88406e-08,9.99999e-01,3.28918e-08,8.76833e-01,9.99999e-01
1.344042489e+00,1.07356e-08,9.99999e-01,1.22118e-08,8.79112e-01,9.99999e-01
1.350762701e+00,5.83455e-09,9.99999e-01,6.61999e-09,8.81352e-01,9.99999e-01
1.357516515e+00,7.01372e-06,9.99999e-01,7.93807e-06,8.83554e-01,9.99999e-01
1.364304097e+00,3.14119e-04,9.99999e-01,3.54649e-04,8.85717e-01,9.99999e-01
1.371125618e+00,1.46900e-02,9.99999e-01,1.65457e-02,8.87843e-01,9.99999e-01
1.377981246e+00,2.86353e-02,9.99999e-01,3.21770e-02,8.89931e-01,9.99999e-01
1.384871152e+00,1.20703e-01,9.99999e-01,1.35320e-01,8.91983e-01,9.99999e-01
1.391795508e+00,1.40495e-01,9.99999e-01,1.57153e-01,8.94000e-01,9.99999e-01
1.398754485e+00,2.84283e-01,9.99999e-01,3.17286e-01,8.95980e-01,9.99999e-01
1.405748258e+00,3.86370e-01,9.99999e-01,4.30291e-01,8.97926e-01,9.99999e-01
1.412776999e+00,5.27317e-01,9.99999e-01,5.86013e-01,8.99838e-01,9.99999e-01
1.419840884e+00,4.78287e-01,9.99999e-01,5.30419e-01,9.01716e-01,9.99999e-01
1.426940089e+00,3.16957e-02,9.99999e-01,3.50787e-02,9.03560e-01,9.99999e-01
1.434074789e+00,0.00000e+00,9.99999e-01,0.00000e+00,9.05372e-01,9.99999e-01
1.441245163e+00,0.00000e+00,9.99999e-01,0.00000e+00,9.07152e-01,9.99999e-01
1.448451389e+00,0.00000e+00,9.99999e-01,0.00000e+00,9.08899e-01,9.99999e-01
1.455693646e+00,0.00000e+00,9.99999e-01,0.00000e+00,9.10616e-01,9.99999e-01
1.462972114e+00,2.81962e-246,9.99999e-01,3.09066e-246,9.12302e-01,9.99999e-01
1.470286975e+00,1.16284e-102,9.99999e-01,1.27231e-102,9.13957e-01,9.99999e-01
