#,Wave/freq,Total,N2,CO2,Rayleigh,CIA
4.000000000e-01,2.35136e-04,9.99999e-01,9.99999e-01,2.35136e-04,9.99999e-01
4.020000000e-01,2.77375e-04,9.99999e-01,9.99999e-01,2.77375e-04,9.99999e-01
4.040100000e-01,3.26081e-04,9.99999e-01,9.99999e-01,3.26081e-04,9.99999e-01
4.060300500e-01,3.82116e-04,9.99999e-01,9.99999e-01,3.82116e-04,9.99999e-01
4.080602003e-01,4.46381e-04,9.99999e-01,9.99999e-01,4.46381e-04,9.99999e-01
4.101005013e-01,5.19855e-04,9.99999e-01,9.99999e-01,5.19855e-04,9.99999e-01
4.121510038e-01,6.03603e-04,9.99999e-01,9.99999e-01,6.03603e-04,9.99999e-01
4.142117588e-01,6.98779e-04,9.99999e-01,9.99999e-01,6.98779e-04,9.99999e-01
4.162828176e-01,8.06625e-04,9.99999e-01,9.99999e-01,8.06625e-04,9.99999e-01
4.183642317e-01,9.28480e-04,9.99999e-01,9.99999e-01,9.28480e-04,9.99999e-01
4.204560528e-01,1.06578e-03,9.99999e-01,9.99999e-01,1.06578e-03,9.99999e-01
4.225583331e-01,1.22005e-03,9.99999e-01,9.99999e-01,1.22005e-03,9.99999e-01
4.246711247e-01,1.39293e-03,9.99999e-01,9.99999e-01,1.39293e-03,9.99999e-01
4.267944804e-01,1.58615e-03,9.99999e-01,9.99999e-01,1.58615e-03,9.99999e-01
4.289284528e-01,1.80154e-03,9.99999e-01,9.99999e-01,1.80154e-03,9.99999e-01
4.310730950e-01,2.04104e-03,9.99999e-01,9.99999e-01,2.04104e-03,9.99999e-01
4.332284605e-01,2.30669e-03,9.99999e-01,9.99999e-01,2.30669e-03,9.99999e-01
4.353946028e-01,2.60061e-03,9.99999e-01,9.99999e-01,2.60061e-03,9.99999e-01
4.375715758e-01,2.92506e-03,9.99999e-01,9.99999e-01,2.92506e-03,9.99999e-01
4.397594337e-01,3.28235e-03,9.99999e-01,9.99999e-01,3.28235e-03,9.99999e-01
4.419582309e-01,3.67491e-03,9.99999e-01,9.99999e-01,3.67491e-03,9.99999e-01
4.441680220e-01,4.10524e-03,9.99999e-01,9.99999e-01,4.10524e-03,9.99999e-01
4.463888621e-01,4.57595e-03,9.99999e-01,9.99999e-01,4.57595e-03,9.99999e-01
4.486208064e-01,5.08970e-03,9.99999e-01,9.99999e-01,5.08970e-03,9.99999e-01
4.508639105e-01,5.64925e-03,9.99999e-01,9.99999e-01,5.64925e-03,9.99999e-01
4.531182300e-01,6.25741e-03,9.99999e-01,9.99999e-01,6.25741e-03,9.99999e-01
4.553838212e-01,6.91706e-03,9.99999e-01,9.99999e-01,6.91706e-03,9.99999e-01
4.576607403e-01,7.63112e-03,9.99999e-01,9.99999e-01,7.63112e-03,9.99999e-01
4.599490440e-01,8.40257e-03,9.99999e-01,9.99999e-01,8.40257e-03,9.99999e-01
4.622487892e-01,9.23443e-03,9.99999e-01,9.99999e-01,9.23443e-03,9.99999e-01
4.645600332e-01,1.01297e-02,9.99999e-01,9.99999e-01,1.01297e-02,9.99999e-01
4.668828333e-01,1.10916e-02,9.99999e-01,9.99999e-01,1.10916e-02,9.99999e-01
4.692172475e-01,1.21230e-02,9.99999e-01,9.99999e-01,1.21230e-02,9.99999e-01
4.715633337e-01,1.32270e-02,9.99999e-01,9.99999e-01,1.32270e-02,9.99999e-01
4.739211504e-01,1.44068e-02,9.99999e-01,9.99999e-01,1.44068e-02,9.99999e-01
4.762907561e-01,1.56654e-02,9.99999e-01,9.99999e-01,1.56654e-02,9.99999e-01
4.786722099e-01,1.70057e-02,9.99999e-01,9.99999e-01,1.70057e-02,9.99999e-01
4.810655710e-01,1.84309e-02,9.99999e-01,9.99999e-01,1.84309e-02,9.99999e-01
4.834708988e-01,1.99437e-02,9.99999e-01,9.99999e-01,1.99437e-02,9.99999e-01
4.858882533e-01,2.15471e-02,9.99999e-01,9.99999e-01,2.15471e-02,9.99999e-01
4.883176946e-01,2.32439e-02,9.99999e-01,9.99999e-01,2.32439e-02,9.99999e-01
4.907592831e-01,2.50367e-02,9.99999e-01,9.99999e-01,2.50367e-02,9.99999e-01
4.932130795e-01,2.69283e-02,9.99999e-01,9.99999e-01,2.69283e-02,9.99999e-01
4.956791449e-01,2.89212e-02,9.99999e-01,9.99999e-01,2.89212e-02,9.99999e-01
4.981575406e-01,3.10178e-02,9.99999e-01,9.99999e-01,3.10178e-02,9.99999e-01
5.006483283e-01,3.32205e-02,9.99999e-01,9.99999e-01,3.32205e-02,9.99999e-01
5.031515699e-01,3.55314e-02,9.99999e-01,9.99999e-01,3.55314e-02,9.99999e-01
5.056673278e-01,3.79525e-02,9.99999e-01,9.99999e-01,3.79525e-02,9.99999e-01
5.081956644e-01,4.04860e-02,9.99999e-01,9.99999e-01,4.04860e-02,9.99999e-01
5.107366428e-01,4.31334e-02,9.99999e-01,9.99999e-01,4.31334e-02,9.99999e-01
5.132903260e-01,4.58965e-02,9.99999e-01,9.99999e-01,4.58965e-02,9.99999e-01
5.158567776e-01,4.87767e-02,9.99999e-01,9.99999e-01,4.87767e-02,9.99999e-01
5.184360615e-01,5.17754e-02,9.99999e-01,9.99999e-01,5.17754e-02,9.99999e-01
5.210282418e-01,5.48937e-02,9.99999e-01,9.99999e-01,5.48937e-02,9.99999e-01
5.236333830e-01,5.81327e-02,9.99999e-01,9.99999e-01,5.81327e-02,9.99999e-01
5.262515499e-01,6.14931e-02,9.99999e-01,9.99999e-01,6.14931e-02,9.99999e-01
5.288828077e-01,6.49755e-02,9.99999e-01,9.99999e-01,6.49755e-02,9.99999e-01
5.315272217e-01,6.85805e-02,9.99999e-01,9.99999e-01,6.85805e-02,9.99999e-01
5.341848578e-01,7.23084e-02,9.99999e-01,9.99999e-01,7.23084e-02,9.99999e-01
5.368557821e-01,7.61593e-02,9.99999e-01,9.99999e-01,7.61593e-02,9.99999e-01
5.395400610e-01,8.01330e-02,9.99999e-01,9.99999e-01,8.01330e-02,9.99999e-01
5.422377613e-01,8.42294e-02,9.99999e-01,9.99999e-01,8.42294e-02,9.99999e-01
5.449489501e-01,8.84481e-02,9.99999e-01,9.99999e-01,8.84481e-02,9.99999e-01
5.476736949e-01,9.27885e-02,9.99999e-01,9.99999e-01,9.27885e-02,9.99999e-01
5.504120634e-01,9.72498e-02,9.99999e-01,9.99999e-01,9.72498e-02,9.99999e-01
5.531641237e-01,1.01831e-01,9.99999e-01,9.99999e-01,1.01831e-01,9.99999e-01
5.559299443e-01,1.06531e-01,9.99999e-01,9.99999e-01,1.06531e-01,9.99999e-01
5.587095940e-01,1.11349e-01,9.99999e-01,9.99999e-01,1.11349e-01,9.99999e-01
5.615031420e-01,1.16283e-01,9.99999e-01,9.99999e-01,1.16283e-01,9.99999e-01
5.643106577e-01,1.21332e-01,9.99999e-01,9.99999e-01,1.21332e-01,9.99999e-01
5.671322110e-01,1.26494e-01,9.99999e-01,9.99999e-01,1.26494e-01,9.99999e-01
5.699678720e-01,1.31767e-01,9.99999e-01,9.99999e-01,1.31767e-01,9.99999e-01
5.728177114e-01,1.37149e-01,9.99999e-01,9.99999e-01,1.37149e-01,9.99999e-01
5.756818000e-01,1.42638e-01,9.99999e-01,9.99999e-01,1.42638e-01,9.99999e-01
5.785602090e-01,1.48231e-01,9.99999e-01,9.99999e-01,1.48231e-01,9.99999e-01
5.814530100e-01,1.53927e-01,9.99999e-01,9.99999e-01,1.53927e-01,9.99999e-01
5.843602750e-01,1.59723e-01,9.99999e-01,9.99999e-01,1.59723e-01,9.99999e-01
5.872820764e-01,1.65617e-01,9.99999e-01,9.99999e-01,1.65617e-01,9.99999e-01
5.902184868e-01,1.71605e-01,9.99999e-01,9.99999e-01,1.71605e-01,9.99999e-01
5.931695792e-01,1.77684e-01,9.99999e-01,9.99999e-01,1.77684e-01,9.99999e-01
5.961354271e-01,1.83853e-01,9.99999e-01,9.99999e-01,1.83853e-01,9.99999e-01
5.991161043e-01,1.90107e-01,9.99999e-01,9.99999e-01,1.90107e-01,9.99999e-01
6.021116848e-01,1.96445e-01,9.99999e-01,9.99999e-01,1.96445e-01,9.99999e-01
6.051222432e-01,2.02862e-01,9.99999e-01,9.99999e-01,2.02862e-01,9.99999e-01
6.081478544e-01,2.09356e-01,9.99999e-01,9.99999e-01,2.09356e-01,9.99999e-01
6.111885937e-01,2.15923e-01,9.99999e-01,9.99999e-01,2.15923e-01,9.99999e-01
6.142445367e-01,2.22561e-01,9.99999e-01,9.99999e-01,2.22561e-01,9.99999e-01
6.173157594e-01,2.29265e-01,9.99999e-01,9.99999e-01,2.29265e-01,9.99999e-01
6.204023382e-01,2.36033e-01,9.99999e-01,9.99999e-01,2.36033e-01,9.99999e-01
6.235043498e-01,2.42861e-01,9.99999e-01,9.99999e-01,2.42861e-01,9.99999e-01
6.266218716e-01,2.49746e-01,9.99999e-01,9.99999e-01,2.49746e-01,9.99999e-01
6.297549810e-01,2.56684e-01,9.99999e-01,9.99999e-01,2.56684e-01,9.99999e-01
6.329037559e-01,2.63673e-01,9.99999e-01,9.99999e-01,2.63673e-01,9.99999e-01
6.360682746e-01,2.70708e-01,9.99999e-01,9.99999e-01,2.70708e-01,9.99999e-01
6.392486160e-01,2.77786e-01,9.99999e-01,9.99999e-01,2.77786e-01,9.99999e-01
6.424448591e-01,2.84904e-01,9.99999e-01,9.99999e-01,2.84904e-01,9.99999e-01
6.456570834e-01,2.92058e-01,9.99999e-01,9.99999e-01,2.92058e-01,9.99999e-01
6.488853688e-01,2.99246e-01,9.99999e-01,9.99999e-01,2.99246e-01,9.99999e-01
6.521297956e-01,3.06463e-01,9.99999e-01,9.99999e-01,3.06463e-01,9.99999e-01
6.553904446e-01,3.13706e-01,9.99999e-01,9.99999e-01,3.13706e-01,9.99999e-01
6.586673968e-01,3.20972e-01,9.99999e-01,9.99999e-01,3.20972e-01,9.99999e-01
6.619607338e-01,3.28259e-01,9.99999e-01,9.99999e-01,3.28259e-01,9.99999e-01
6.652705375e-01,3.35561e-01,9.99999e-01,9.99999e-01,3.35561e-01,9.99999e-01
6.685968902e-01,3.42878e-01,9.99999e-01,9.99999e-01,3.42878e-01,9.99999e-01
6.719398746e-01,3.50204e-01,9.99999e-01,9.99999e-01,3.50204e-01,9.99999e-01
6.752995740e-01,3.57538e-01,9.99999e-01,9.99999e-01,3.57538e-01,9.99999e-01
6.786760719e-01,3.64876e-01,9.99999e-01,9.99999e-01,3.64876e-01,9.99999e-01
6.820694522e-01,3.72215e-01,9.99999e-01,9.99999e-01,3.72215e-01,9.99999e-01
6.854797995e-01,3.79552e-01,9.99999e-01,9.99999e-01,3.79552e-01,9.99999e-01
6.889071985e-01,3.86885e-01,9.99999e-01,9.99999e-01,3.86885e-01,9.99999e-01
6.923517345e-01,3.94211e-01,9.99999e-01,9.99999e-01,3.94211e-01,9.99999e-01
6.958134932e-01,4.01526e-01,9.99999e-01,9.99999e-01,4.01526e-01,9.99999e-01
6.992925606e-01,4.08829e-01,9.99999e-01,9.99999e-01,4.08829e-01,9.99999e-01
7.027890234e-01,4.16116e-01,9.99999e-01,9.99999e-01,4.16116e-01,9.99999e-01
7.063029686e-01,4.23385e-01,9.99999e-01,9.99999e-01,4.23385e-01,9.99999e-01
7.098344834e-01,4.30634e-01,9.99999e-01,9.99999e-01,4.30634e-01,9.99999e-01
7.133836558e-01,4.37861e-01,9.99999e-01,9.99999e-01,4.37861e-01,9.99999e-01
7.169505741e-01,4.45062e-01,9.99999e-01,9.99999e-01,4.45062e-01,9.99999e-01
7.205353270e-01,4.52236e-01,9.99999e-01,9.99999e-01,4.52236e-01,9.99999e-01
7.241380036e-01,4.59380e-01,9.99999e-01,9.99999e-01,4.59380e-01,9.99999e-01
7.277586936e-01,4.66493e-01,9.99999e-01,9.99999e-01,4.66493e-01,9.99999e-01
7.313974871e-01,4.73572e-01,9.99999e-01,9.99999e-01,4.73572e-01,9.99999e-01
7.350544745e-01,4.80616e-01,9.99999e-01,9.99999e-01,4.80616e-01,9.99999e-01
7.387297469e-01,4.87622e-01,9.99999e-01,9.99999e-01,4.87622e-01,9.99999e-01
7.424233956e-01,4.94589e-01,9.99999e-01,9.99999e-01,4.94589e-01,9.99999e-01
7.461355126e-01,5.01515e-01,9.99999e-01,9.99999e-01,5.01515e-01,9.99999e-01
7.498661902e-01,5.08399e-01,9.99999e-01,9.99999e-01,5.08399e-01,9.99999e-01
7.536155211e-01,5.15238e-01,9.99999e-01,9.99999e-01,5.15238e-01,9.99999e-01
7.573835987e-01,5.22031e-01,9.99999e-01,9.99999e-01,5.22031e-01,9.99999e-01
7.611705167e-01,5.28777e-01,9.99999e-01,9.99999e-01,5.28777e-01,9.99999e-01
7.649763693e-01,5.35474e-01,9.99999e-01,9.99999e-01,5.35474e-01,9.99999e-01
7.688012511e-01,5.42121e-01,9.99999e-01,9.99999e-01,5.42121e-01,9.99999e-01
7.726452574e-01,5.48717e-01,9.99999e-01,9.99999e-01,5.48717e-01,9.99999e-01
7.765084837e-01,5.55261e-01,9.99999e-01,9.99999e-01,5.55261e-01,9.99999e-01
7.803910261e-01,5.45589e-01,9.99999e-01,9.71227e-01,5.61751e-01,9.99999e-01
7.842929812e-01,5.04065e-01,9.99999e-01,8.87146e-01,5.68187e-01,9.99999e-01
7.882144461e-01,5.04751e-01,9.99999e-01,8.78490e-01,5.74567e-01,9.99999e-01
7.921555184e-01,5.38848e-01,9.99999e-01,9.27623e-01,5.80890e-01,9.99999e-01
7.961162960e-01,5.58672e-01,9.99999e-01,9.51487e-01,5.87156e-01,9.99999e-01
8.000968774e-01,5.77547e-01,9.99999e-01,9.73342e-01,5.93364e-01,9.99999e-01
8.040973618e-01,5.91225e-01,9.99999e-01,9.86174e-01,5.99513e-01,9.99999e-01
8.081178486e-01,6.01727e-01,9.99999e-01,9.93600e-01,6.05603e-01,9.99999e-01
8.121584379e-01,6.10437e-01,9.99999e-01,9.98045e-01,6.11632e-01,9.99999e-01
8.162192301e-01,6.17334e-01,9.99999e-01,9.99567e-01,6.17600e-01,9.99999e-01
8.203003262e-01,6.23504e-01,9.99999e-01,9.99993e-01,6.23507e-01,9.99999e-01
8.244018279e-01,6.29353e-01,9.99999e-01,9.99999e-01,6.29353e-01,9.99999e-01
8.285238370e-01,6.35135e-01,9.99999e-01,9.99999e-01,6.35135e-01,9.99999e-01
8.326664562e-01,6.40856e-01,9.99999e-01,9.99999e-01,6.40856e-01,9.99999e-01
8.368297885e-01,6.46513e-01,9.99999e-01,9.99999e-01,6.46513e-01,9.99999e-01
8.410139374e-01,6.52107e-01,9.99999e-01,9.99999e-01,6.52107e-01,9.99999e-01
8.452190071e-01,6.57637e-01,9.99999e-01,9.99999e-01,6.57637e-01,9.99999e-01
8.494451021e-01,6.63104e-01,9.99999e-01,9.99999e-01,6.63104e-01,9.99999e-01
8.536923276e-01,6.68507e-01,9.99999e-01,9.99999e-01,6.68507e-01,9.99999e-01
8.579607893e-01,6.73846e-01,9.99999e-01,9.99999e-01,6.73846e-01,9.99999e-01
8.622505932e-01,6.79120e-01,9.99999e-01,9.99999e-01,6.79120e-01,9.99999e-01
8.665618462e-01,6.38200e-01,9.99999e-01,9.32589e-01,6.84331e-01,9.99999e-01
8.708946554e-01,5.06720e-01,9.99999e-01,7.34933e-01,6.89477e-01,9.99999e-01
8.752491287e-01,5.43287e-01,9.99999e-01,7.82203e-01,6.94560e-01,9.99999e-01
8.796253743e-01,6.11730e-01,9.99999e-01,8.74426e-01,6.99578e-01,9.99999e-01
8.840235012e-01,6.57273e-01,9.99999e-01,9.32920e-01,7.04533e-01,9.99999e-01
8.884436187e-01,6.90380e-01,9.99999e-01,9.73156e-01,7.09423e-01,9.99999e-01
8.928858368e-01,7.06411e-01,9.99999e-01,9.89024e-01,7.14250e-01,9.99999e-01
8.973502660e-01,7.17103e-01,9.99999e-01,9.97341e-01,7.19014e-01,9.99999e-01
9.018370173e-01,7.23503e-01,9.99999e-01,9.99707e-01,7.23714e-01,9.99999e-01
9.063462024e-01,7.22650e-01,9.99999e-01,9.92171e-01,7.28351e-01,9.99999e-01
9.108779334e-01,7.20223e-01,9.99999e-01,9.82668e-01,7.32926e-01,9.99999e-01
9.154323231e-01,7.34462e-01,9.99999e-01,9.95963e-01,7.37438e-01,9.99999e-01
9.200094847e-01,6.97390e-01,9.99999e-01,9.40020e-01,7.41888e-01,9.99999e-01
9.246095321e-01,6.84945e-01,9.99999e-01,9.17816e-01,7.46276e-01,9.99999e-01
9.292325798e-01,7.01079e-01,9.99999e-01,9.34021e-01,7.50602e-01,9.99999e-01
9.338787427e-01,7.07337e-01,9.99999e-01,9.37034e-01,7.54868e-01,9.99999e-01
9.385481364e-01,7.23659e-01,9.99999e-01,9.53346e-01,7.59072e-01,9.99999e-01
9.432408771e-01,7.41299e-01,9.99999e-01,9.71282e-01,7.63217e-01,9.99999e-01
9.479570815e-01,7.55892e-01,9.99999e-01,9.85130e-01,7.67301e-01,9.99999e-01
9.526968669e-01,7.65790e-01,9.99999e-01,9.92822e-01,7.71326e-01,9.99999e-01
9.574603512e-01,7.72911e-01,9.99999e-01,9.96928e-01,7.75292e-01,9.99999e-01
9.622476530e-01,7.78454e-01,9.99999e-01,9.99042e-01,7.79200e-01,9.99999e-01
9.670588912e-01,7.82825e-01,9.99999e-01,9.99713e-01,7.83049e-01,9.99999e-01
9.718941857e-01,7.86825e-01,9.99999e-01,9.99979e-01,7.86841e-01,9.99999e-01
9.767536566e-01,7.90575e-01,9.99999e-01,9.99999e-01,7.90575e-01,9.99999e-01
9.816374249e-01,7.94254e-01,9.99999e-01,9.99999e-01,7.94254e-01,9.99999e-01
9.865456120e-01,7.97876e-01,9.99999e-01,9.99999e-01,7.97876e-01,9.99999e-01
9.914783401e-01,8.01442e-01,9.99999e-01,9.99999e-01,8.01442e-01,9.99999e-01
9.964357318e-01,8.04954e-01,9.99999e-01,9.99999e-01,8.04954e-01,9.99999e-01
1.001417910e+00,8.08411e-01,9.99999e-01,9.99999e-01,8.08411e-01,9.99999e-01
1.006425000e+00,8.11814e-01,9.99999e-01,9.99999e-01,8.11814e-01,9.99999e-01
1.011457125e+00,8.15164e-01,9.99999e-01,9.99999e-01,8.15164e-01,9.99999e-01
1.016514411e+00,8.18462e-01,9.99999e-01,9.99999e-01,8.18462e-01,9.99999e-01
1.021596983e+00,8.21667e-01,9.99999e-01,9.99951e-01,8.21707e-01,9.99999e-01
1.026704968e+00,8.22368e-01,9.99999e-01,9.96929e-01,8.24900e-01,9.99999e-01
1.031838492e+00,7.93663e-01,9.99999e-01,9.58481e-01,8.28042e-01,9.99999e-01
1.036997685e+00,1.54565e-01,9.99999e-01,1.85968e-01,8.31134e-01,9.99999e-01
1.042182673e+00,1.51639e-01,9.99999e-01,1.81782e-01,8.34176e-01,9.99999e-01
1.047393587e+00,1.59320e-01,9.99999e-01,1.90308e-01,8.37169e-01,9.99999e-01
1.052630555e+00,8.55166e-03,9.99999e-01,1.01792e-02,8.40113e-01,9.99999e-01
1.057893707e+00,1.99728e-02,9.99999e-01,2.36922e-02,8.43009e-01,9.99999e-01
1.063183176e+00,5.42084e-02,9.99999e-01,6.40869e-02,8.45858e-01,9.99999e-01
1.068499092e+00,1.28206e-01,9.99999e-01,1.51069e-01,8.48659e-01,9.99999e-01
1.073841587e+00,2.59485e-01,9.99999e-01,3.04770e-01,8.51415e-01,9.99999e-01
1.079210795e+00,4.02627e-01,9.99999e-01,4.71392e-01,8.54124e-01,9.99999e-01
1.084606849e+00,5.67629e-01,9.99999e-01,6.62507e-01,8.56788e-01,9.99999e-01
1.090029883e+00,6.93956e-01,9.99999e-01,8.07481e-01,8.59408e-01,9.99999e-01
1.095480033e+00,7.75985e-01,9.99999e-01,9.00230e-01,8.61984e-01,9.99999e-01
1.100957433e+00,8.21825e-01,9.99999e-01,9.50617e-01,8.64516e-01,9.99999e-01
1.106462220e+00,8.49080e-01,9.99999e-01,9.79323e-01,8.67006e-01,9.99999e-01
1.111994531e+00,8.62747e-01,9.99999e-01,9.92286e-01,8.69453e-01,9.99999e-01
1.117554504e+00,8.70224e-01,9.99999e-01,9.98124e-01,8.71859e-01,9.99999e-01
1.123142276e+00,8.74117e-01,9.99999e-01,9.99877e-01,8.74224e-01,9.99999e-01
1.128757988e+00,8.76548e-01,9.99999e-01,9.99999e-01,8.76548e-01,9.99999e-01
1.134401778e+00,8.78832e-01,9.99999e-01,9.99999e-01,8.78832e-01,9.99999e-01
1.140073787e+00,8.81077e-01,9.99999e-01,9.99999e-01,8.81077e-01,9.99999e-01
1.145774156e+00,8.83284e-01,9.99999e-01,9.99999e-01,8.83284e-01,9.99999e-01
1.151503026e+00,8.85452e-01,9.99999e-01,9.99999e-01,8.85452e-01,9.99999e-01
1.157260541e+00,8.87582e-01,9.99999e-01,9.99999e-01,8.87582e-01,9.99999e-01
1.163046844e+00,8.89675e-01,9.99999e-01,9.99999e-01,8.89675e-01,9.99999e-01
1.168862078e+00,8.91732e-01,9.99999e-01,9.99999e-01,8.91732e-01,9.99999e-01
1.174706389e+00,8.93752e-01,9.99999e-01,9.99999e-01,8.93752e-01,9.99999e-01
1.180579921e+00,8.95738e-01,9.99999e-01,9.99999e-01,8.95738e-01,9.99999e-01
1.186482820e+00,8.97681e-01,9.99999e-01,9.99992e-01,8.97688e-01,9.99999e-01
1.192415234e+00,8.89686e-01,9.99999e-01,9.88975e-01,8.99604e-01,9.99999e-01
1.198377311e+00,5.10584e-01,9.99999e-01,5.66380e-01,9.01486e-01,9.99999e-01
1.204369197e+00,2.25962e-09,9.99999e-01,2.50142e-09,9.03334e-01,9.99999e-01
1.210391043e+00,7.51865e-33,9.99999e-01,8.30652e-33,9.05150e-01,9.99999e-01
1.216442998e+00,1.18710e-28,9.99999e-01,1.30891e-28,9.06934e-01,9.99999e-01
1.222525213e+00,3.02598e-28,9.99999e-01,3.33006e-28,9.08685e-01,9.99999e-01
1.228637839e+00,7.37402e-22,9.99999e-01,8.09970e-22,9.10405e-01,9.99999e-01
1.234781029e+00,2.00258e-14,9.99999e-01,2.19558e-14,9.12095e-01,9.99999e-01
1.240954934e+00,9.55826e-10,9.99999e-01,1.04604e-09,9.13754e-01,9.99999e-01
1.247159708e+00,1.20455e-05,9.99999e-01,1.31590e-05,9.15383e-01,9.99999e-01
1.253395507e+00,1.37618e-03,9.99999e-01,1.50077e-03,9.16983e-01,9.99999e-01
1.259662485e+00,2.22666e-02,9.99999e-01,2.42409e-02,9.18555e-01,9.99999e-01
1.265960797e+00,1.07209e-01,9.99999e-01,1.16520e-01,9.20097e-01,9.99999e-01
1.272290601e+00,3.74548e-01,9.99999e-01,4.06405e-01,9.21612e-01,9.99999e-01
1.278652054e+00,3.18501e-01,9.99999e-01,3.45034e-01,9.23099e-01,9.99999e-01
1.285045314e+00,9.03323e-03,9.99999e-01,9.77030e-03,9.24559e-01,9.99999e-01
1.291470541e+00,1.49146e-04,9.99999e-01,1.61066e-04,9.25993e-01,9.99999e-01
1.297927893e+00,1.87209e-02,9.99999e-01,2.01864e-02,9.27400e-01,9.99999e-01
1.304417533e+00,1.80044e-01,9.99999e-01,1.93849e-01,9.28782e-01,9.99999e-01
1.310939621e+00,3.01210e-02,9.99999e-01,3.23834e-02,9.30138e-01,9.99999e-01
1.317494319e+00,8.02647e-12,9.99999e-01,8.61698e-12,9.31470e-01,9.99999e-01
1.324081790e+00,1.30681e-06,9.99999e-01,1.40099e-06,9.32777e-01,9.99999e-01
1.330702199e+00,6.54031e-05,9.99999e-01,7.00202e-05,9.34060e-01,9.99999e-01
1.337355710e+00,1.00801e-04,9.99999e-01,1.07772e-04,9.35319e-01,9.99999e-01
1.344042489e+00,6.91316e-06,9.99999e-01,7.38147e-06,9.36555e-01,9.99999e-01
1.350762701e+00,4.45678e-05,9.99999e-01,4.75253e-05,9.37769e-01,9.99999e-01
1.357516515e+00,1.52172e-03,9.99999e-01,1.62064e-03,9.38960e-01,9.99999e-01
1.364304097e+00,1.51473e-02,9.99999e-01,1.61119e-02,9.40128e-01,9.99999e-01
1.371125618e+00,1.08828e-01,9.99999e-01,1.15618e-01,9.41276e-01,9.99999e-01
1.377981246e+00,1.62226e-01,9.99999e-01,1.72141e-01,9.42401e-01,9.99999e-01
1.384871152e+00,3.39233e-01,9.99999e-01,3.59545e-01,9.43506e-01,9.99999e-01
1.391795508e+00,3.67343e-01,9.99999e-01,3.88891e-01,9.44591e-01,9.99999e-01
1.398754485e+00,5.28244e-01,9.99999e-01,5.58601e-01,9.45655e-01,9.99999e-01
1.405748258e+00,6.16818e-01,9.99999e-01,6.51545e-01,9.46699e-01,9.99999e-01
1.412776999e+00,7.23304e-01,9.99999e-01,7.63200e-01,9.47724e-01,9.99999e-01
1.419840884e+00,6.50660e-01,9.99999e-01,6.85822e-01,9.48730e-01,9.99999e-01
1.426940089e+00,6.83876e-02,9.99999e-01,7.20083e-02,9.49716e-01,9.99999e-01
1.434074789e+00,0.00000e+00,9.99999e-01,0.00000e+00,9.50685e-01,9.99999e-01
1.441245163e+00,0.00000e+00,9.99999e-01,0.00000e+00,9.51635e-01,9.99999e-01
1.448451389e+00,0.00000e+00,9.99999e-01,0.00000e+00,9.52567e-01,9.99999e-01
1.455693646e+00,1.75082e-260,9.99999e-01,1.83624e-260,9.53482e-01,9.99999e-01
1.462972114e+00,1.89856e-126,9.99999e-01,1.98931e-126,9.54379e-01,9.99999e-01
1.470286975e+00,2.35652e-53,9.99999e-01,2.46688e-53,9.55260e-01,9.99999e-01
