#,Wave/freq,Total,N2,CO2,Rayleigh,CIA
4.000000000e-01,3.44559e-04,9.99999e-01,9.99999e-01,3.44559e-04,9.99999e-01
4.020000000e-01,4.03394e-04,9.99999e-01,9.99999e-01,4.03394e-04,9.99999e-01
4.040100000e-01,4.70733e-04,9.99999e-01,9.99999e-01,4.70733e-04,9.99999e-01
4.060300500e-01,5.47640e-04,9.99999e-01,9.99999e-01,5.47640e-04,9.99999e-01
4.080602003e-01,6.35211e-04,9.99999e-01,9.99999e-01,6.35211e-04,9.99999e-01
4.101005013e-01,7.34630e-04,9.99999e-01,9.99999e-01,7.34630e-04,9.99999e-01
4.121510038e-01,8.47172e-04,9.99999e-01,9.99999e-01,8.47172e-04,9.99999e-01
4.142117588e-01,9.74208e-04,9.99999e-01,9.99999e-01,9.74208e-04,9.99999e-01
4.162828176e-01,1.11721e-03,9.99999e-01,9.99999e-01,1.11721e-03,9.99999e-01
4.183642317e-01,1.27773e-03,9.99999e-01,9.99999e-01,1.27773e-03,9.99999e-01
4.204560528e-01,1.45745e-03,9.99999e-01,9.99999e-01,1.45745e-03,9.99999e-01
4.225583331e-01,1.65814e-03,9.99999e-01,9.99999e-01,1.65814e-03,9.99999e-01
4.246711247e-01,1.88166e-03,9.99999e-01,9.99999e-01,1.88166e-03,9.99999e-01
4.267944804e-01,2.12998e-03,9.99999e-01,9.99999e-01,2.12998e-03,9.99999e-01
4.289284528e-01,2.40517e-03,9.99999e-01,9.99999e-01,2.40517e-03,9.99999e-01
4.310730950e-01,2.70941e-03,9.99999e-01,9.99999e-01,2.70941e-03,9.99999e-01
4.332284605e-01,3.04496e-03,9.99999e-01,9.99999e-01,3.04496e-03,9.99999e-01
4.353946028e-01,3.41419e-03,9.99999e-01,9.99999e-01,3.41419e-03,9.99999e-01
4.375715758e-01,3.81954e-03,9.99999e-01,9.99999e-01,3.81954e-03,9.99999e-01
4.397594337e-01,4.26356e-03,9.99999e-01,9.99999e-01,4.26356e-03,9.99999e-01
4.419582309e-01,4.74887e-03,9.99999e-01,9.99999e-01,4.74887e-03,9.99999e-01
4.441680220e-01,5.27817e-03,9.99999e-01,9.99999e-01,5.27817e-03,9.99999e-01
4.463888621e-01,5.85423e-03,9.99999e-01,9.99999e-01,5.85423e-03,9.99999e-01
4.486208064e-01,6.47989e-03,9.99999e-01,9.99999e-01,6.47989e-03,9.99999e-01
4.508639105e-01,7.15805e-03,9.99999e-01,9.99999e-01,7.15805e-03,9.99999e-01
4.531182300e-01,7.89165e-03,9.99999e-01,9.99999e-01,7.89165e-03,9.99999e-01
4.553838212e-01,8.68369e-03,9.99999e-01,9.99999e-01,8.68369e-03,9.99999e-01
4.576607403e-01,9.53718e-03,9.99999e-01,9.99999e-01,9.53718e-03,9.99999e-01
4.599490440e-01,1.04552e-02,9.99999e-01,9.99999e-01,1.04552e-02,9.99999e-01
4.622487892e-01,1.14407e-02,9.99999e-01,9.99999e-01,1.14407e-02,9.99999e-01
4.645600332e-01,1.24970e-02,9.99999e-01,9.99999e-01,1.24970e-02,9.99999e-01
4.668828333e-01,1.36269e-02,9.99999e-01,9.99999e-01,1.36269e-02,9.99999e-01
4.692172475e-01,1.48336e-02,9.99999e-01,9.99999e-01,1.48336e-02,9.99999e-01
4.715633337e-01,1.61202e-02,9.99999e-01,9.99999e-01,1.61202e-02,9.99999e-01
4.739211504e-01,1.74896e-02,9.99999e-01,9.99999e-01,1.74896e-02,9.99999e-01
4.762907561e-01,1.89447e-02,9.99999e-01,9.99999e-01,1.89447e-02,9.99999e-01
4.786722099e-01,2.04886e-02,9.99999e-01,9.99999e-01,2.04886e-02,9.99999e-01
4.810655710e-01,2.21240e-02,9.99999e-01,9.99999e-01,2.21240e-02,9.99999e-01
4.834708988e-01,2.38538e-02,9.99999e-01,9.99999e-01,2.38538e-02,9.99999e-01
4.858882533e-01,2.56806e-02,9.99999e-01,9.99999e-01,2.56806e-02,9.99999e-01
4.883176946e-01,2.76070e-02,9.99999e-01,9.99999e-01,2.76070e-02,9.99999e-01
4.907592831e-01,2.96355e-02,9.99999e-01,9.99999e-01,2.96355e-02,9.99999e-01
4.932130795e-01,3.17686e-02,9.99999e-01,9.99999e-01,3.17686e-02,9.99999e-01
4.956791449e-01,3.40085e-02,9.99999e-01,9.99999e-01,3.40085e-02,9.99999e-01
4.981575406e-01,3.63573e-02,9.99999e-01,9.99999e-01,3.63573e-02,9.99999e-01
5.006483283e-01,3.88172e-02,9.99999e-01,9.99999e-01,3.88172e-02,9.99999e-01
5.031515699e-01,4.13899e-02,9.99999e-01,9.99999e-01,4.13899e-02,9.99999e-01
5.056673278e-01,4.40772e-02,9.99999e-01,9.99999e-01,4.40772e-02,9.99999e-01
5.081956644e-01,4.68807e-02,9.99999e-01,9.99999e-01,4.68807e-02,9.99999e-01
5.107366428e-01,4.98018e-02,9.99999e-01,9.99999e-01,4.98018e-02,9.99999e-01
5.132903260e-01,5.28418e-02,9.99999e-01,9.99999e-01,5.28418e-02,9.99999e-01
5.158567776e-01,5.60018e-02,9.99999e-01,9.99999e-01,5.60018e-02,9.99999e-01
5.184360615e-01,5.92827e-02,9.99999e-01,9.99999e-01,5.92827e-02,9.99999e-01
5.210282418e-01,6.26853e-02,9.99999e-01,9.99999e-01,6.26853e-02,9.99999e-01
5.236333830e-01,6.62102e-02,9.99999e-01,9.99999e-01,6.62102e-02,9.99999e-01
5.262515499e-01,6.98577e-02,9.99999e-01,9.99999e-01,6.98577e-02,9.99999e-01
5.288828077e-01,7.36282e-02,9.99999e-01,9.99999e-01,7.36282e-02,9.99999e-01
5.315272217e-01,7.75216e-02,9.99999e-01,9.99999e-01,7.75216e-02,9.99999e-01
5.341848578e-01,8.15379e-02,9.99999e-01,9.99999e-01,8.15379e-02,9.99999e-01
5.368557821e-01,8.56767e-02,9.99999e-01,9.99999e-01,8.56767e-02,9.99999e-01
5.395400610e-01,8.99376e-02,9.99999e-01,9.99999e-01,8.99376e-02,9.99999e-01
5.422377613e-01,9.43200e-02,9.99999e-01,9.99999e-01,9.43200e-02,9.99999e-01
5.449489501e-01,9.88229e-02,9.99999e-01,9.99999e-01,9.88229e-02,9.99999e-01
5.476736949e-01,1.03446e-01,9.99999e-01,9.99999e-01,1.03446e-01,9.99999e-01
5.504120634e-01,1.08187e-01,9.99999e-01,9.99999e-01,1.08187e-01,9.99999e-01
5.531641237e-01,1.13045e-01,9.99999e-01,9.99999e-01,1.13045e-01,9.99999e-01
5.559299443e-01,1.18019e-01,9.99999e-01,9.99999e-01,1.18019e-01,9.99999e-01
5.587095940e-01,1.23107e-01,9.99999e-01,9.99999e-01,1.23107e-01,9.99999e-01
5.615031420e-01,1.28308e-01,9.99999e-01,9.99999e-01,1.28308e-01,9.99999e-01
5.643106577e-01,1.33618e-01,9.99999e-01,9.99999e-01,1.33618e-01,9.99999e-01
5.671322110e-01,1.39038e-01,9.99999e-01,9.99999e-01,1.39038e-01,9.99999e-01
5.699678720e-01,1.44563e-01,9.99999e-01,9.99999e-01,1.44563e-01,9.99999e-01
5.728177114e-01,1.50193e-01,9.99999e-01,9.99999e-01,1.50193e-01,9.99999e-01
5.756818000e-01,1.55924e-01,9.99999e-01,9.99999e-01,1.55924e-01,9.99999e-01
5.785602090e-01,1.61754e-01,9.99999e-01,9.99999e-01,1.61754e-01,9.99999e-01
5.814530100e-01,1.67680e-01,9.99999e-01,9.99999e-01,1.67680e-01,9.99999e-01
5.843602750e-01,1.73700e-01,9.99999e-01,9.99999e-01,1.73700e-01,9.99999e-01
5.872820764e-01,1.79811e-01,9.99999e-01,9.99999e-01,1.79811e-01,9.99999e-01
5.902184868e-01,1.86009e-01,9.99999e-01,9.99999e-01,1.86009e-01,9.99999e-01
5.931695792e-01,1.92293e-01,9.99999e-01,9.99999e-01,1.92293e-01,9.99999e-01
5.961354271e-01,1.98658e-01,9.99999e-01,9.99999e-01,1.98658e-01,9.99999e-01
5.991161043e-01,2.05102e-01,9.99999e-01,9.99999e-01,2.05102e-01,9.99999e-01
6.021116848e-01,2.11622e-01,9.99999e-01,9.99999e-01,2.11622e-01,9.99999e-01
6.051222432e-01,2.18214e-01,9.99999e-01,9.99999e-01,2.18214e-01,9.99999e-01
6.081478544e-01,2.24875e-01,9.99999e-01,9.99999e-01,2.24875e-01,9.99999e-01
6.111885937e-01,2.31602e-01,9.99999e-01,9.99999e-01,2.31602e-01,9.99999e-01
6.142445367e-01,2.38391e-01,9.99999e-01,9.99999e-01,2.38391e-01,9.99999e-01
6.173157594e-01,2.45239e-01,9.99999e-01,9.99999e-01,2.45239e-01,9.99999e-01
6.204023382e-01,2.52143e-01,9.99999e-01,9.99999e-01,2.52143e-01,9.99999e-01
6.235043498e-01,2.59099e-01,9.99999e-01,9.99999e-01,2.59099e-01,9.99999e-01
6.266218716e-01,2.66104e-01,9.99999e-01,9.99999e-01,2.66104e-01,9.99999e-01
6.297549810e-01,2.73155e-01,9.99999e-01,9.99999e-01,2.73155e-01,9.99999e-01
6.329037559e-01,2.80247e-01,9.99999e-01,9.99999e-01,2.80247e-01,9.99999e-01
6.360682746e-01,2.87378e-01,9.99999e-01,9.99999e-01,2.87378e-01,9.99999e-01
6.392486160e-01,2.94544e-01,9.99999e-01,9.99999e-01,2.94544e-01,9.99999e-01
6.424448591e-01,3.01742e-01,9.99999e-01,9.99999e-01,3.01742e-01,9.99999e-01
6.456570834e-01,3.08968e-01,9.99999e-01,9.99999e-01,3.08968e-01,9.99999e-01
6.488853688e-01,3.16220e-01,9.99999e-01,9.99999e-01,3.16220e-01,9.99999e-01
6.521297956e-01,3.23494e-01,9.99999e-01,9.99999e-01,3.23494e-01,9.99999e-01
6.553904446e-01,3.30786e-01,9.99999e-01,9.99999e-01,3.30786e-01,9.99999e-01
6.586673968e-01,3.38094e-01,9.99999e-01,9.99999e-01,3.38094e-01,9.99999e-01
6.619607338e-01,3.45414e-01,9.99999e-01,9.99999e-01,3.45414e-01,9.99999e-01
6.652705375e-01,3.52744e-01,9.99999e-01,9.99999e-01,3.52744e-01,9.99999e-01
6.685968902e-01,3.60079e-01,9.99999e-01,9.99999e-01,3.60079e-01,9.99999e-01
6.719398746e-01,3.67418e-01,9.99999e-01,9.99999e-01,3.67418e-01,9.99999e-01
6.752995740e-01,3.74757e-01,9.99999e-01,9.99999e-01,3.74757e-01,9.99999e-01
6.786760719e-01,3.82093e-01,9.99999e-01,9.99999e-01,3.82093e-01,9.99999e-01
6.820694522e-01,3.89423e-01,9.99999e-01,9.99999e-01,3.89423e-01,9.99999e-01
6.854797995e-01,3.96746e-01,9.99999e-01,9.99999e-01,3.96746e-01,9.99999e-01
6.889071985e-01,4.04057e-01,9.99999e-01,9.99999e-01,4.04057e-01,9.99999e-01
6.923517345e-01,4.11354e-01,9.99999e-01,9.99999e-01,4.11354e-01,9.99999e-01
6.958134932e-01,4.18636e-01,9.99999e-01,9.99999e-01,4.18636e-01,9.99999e-01
6.992925606e-01,4.25898e-01,9.99999e-01,9.99999e-01,4.25898e-01,9.99999e-01
7.027890234e-01,4.33140e-01,9.99999e-01,9.99999e-01,4.33140e-01,9.99999e-01
7.063029686e-01,4.40358e-01,9.99999e-01,9.99999e-01,4.40358e-01,9.99999e-01
7.098344834e-01,4.47550e-01,9.99999e-01,9.99999e-01,4.47550e-01,9.99999e-01
7.133836558e-01,4.54714e-01,9.99999e-01,9.99999e-01,4.54714e-01,9.99999e-01
7.169505741e-01,4.61848e-01,9.99999e-01,9.99999e-01,4.61848e-01,9.99999e-01
7.205353270e-01,4.68949e-01,9.99999e-01,9.99999e-01,4.68949e-01,9.99999e-01
7.241380036e-01,4.76016e-01,9.99999e-01,9.99999e-01,4.76016e-01,9.99999e-01
7.277586936e-01,4.83047e-01,9.99999e-01,9.99999e-01,4.83047e-01,9.99999e-01
7.313974871e-01,4.90040e-01,9.99999e-01,9.99999e-01,4.90040e-01,9.99999e-01
7.350544745e-01,4.96993e-01,9.99999e-01,9.99999e-01,4.96993e-01,9.99999e-01
7.387297469e-01,5.03904e-01,9.99999e-01,9.99999e-01,5.03904e-01,9.99999e-01
7.424233956e-01,5.10772e-01,9.99999e-01,9.99999e-01,5.10772e-01,9.99999e-01
7.461355126e-01,5.17596e-01,9.99999e-01,9.99999e-01,5.17596e-01,9.99999e-01
7.498661902e-01,5.24372e-01,9.99999e-01,9.99999e-01,5.24372e-01,9.99999e-01
7.536155211e-01,5.31102e-01,9.99999e-01,9.99999e-01,5.31102e-01,9.99999e-01
7.573835987e-01,5.37782e-01,9.99999e-01,9.99999e-01,5.37782e-01,9.99999e-01
7.611705167e-01,5.44412e-01,9.99999e-01,9.99999e-01,5.44412e-01,9.99999e-01
7.649763693e-01,5.50990e-01,9.99999e-01,9.99999e-01,5.50990e-01,9.99999e-01
7.688012511e-01,5.57515e-01,9.99999e-01,9.99999e-01,5.57515e-01,9.99999e-01
7.726452574e-01,5.63986e-01,9.99999e-01,9.99999e-01,5.63986e-01,9.99999e-01
7.765084837e-01,5.70403e-01,9.99999e-01,9.99999e-01,5.70403e-01,9.99999e-01
7.803910261e-01,5.60948e-01,9.99999e-01,9.72578e-01,5.76763e-01,9.99999e-01
7.842929812e-01,5.19995e-01,9.99999e-01,8.91826e-01,5.83067e-01,9.99999e-01
7.882144461e-01,5.20702e-01,9.99999e-01,8.83574e-01,5.89313e-01,9.99999e-01
7.921555184e-01,5.54299e-01,9.99999e-01,9.30810e-01,5.95501e-01,9.99999e-01
7.961162960e-01,5.73722e-01,9.99999e-01,9.53613e-01,6.01629e-01,9.99999e-01
8.000968774e-01,5.92221e-01,9.99999e-01,9.74531e-01,6.07698e-01,9.99999e-01
8.040973618e-01,6.05599e-01,9.99999e-01,9.86789e-01,6.13706e-01,9.99999e-01
8.081178486e-01,6.15867e-01,9.99999e-01,9.93888e-01,6.19653e-01,9.99999e-01
8.121584379e-01,6.24370e-01,9.99999e-01,9.98130e-01,6.25539e-01,9.99999e-01
8.162192301e-01,6.31102e-01,9.99999e-01,9.99586e-01,6.31362e-01,9.99999e-01
8.203003262e-01,6.37120e-01,9.99999e-01,9.99993e-01,6.37124e-01,9.99999e-01
8.244018279e-01,6.42822e-01,9.99999e-01,9.99999e-01,6.42822e-01,9.99999e-01
8.285238370e-01,6.48457e-01,9.99999e-01,9.99999e-01,6.48457e-01,9.99999e-01
8.326664562e-01,6.54029e-01,9.99999e-01,9.99999e-01,6.54029e-01,9.99999e-01
8.368297885e-01,6.59538e-01,9.99999e-01,9.99999e-01,6.59538e-01,9.99999e-01
8.410139374e-01,6.64982e-01,9.99999e-01,9.99999e-01,6.64982e-01,9.99999e-01
8.452190071e-01,6.70363e-01,9.99999e-01,9.99999e-01,6.70363e-01,9.99999e-01
8.494451021e-01,6.75680e-01,9.99999e-01,9.99999e-01,6.75680e-01,9.99999e-01
8.536923276e-01,6.80932e-01,9.99999e-01,9.99999e-01,6.80932e-01,9.99999e-01
8.579607893e-01,6.86121e-01,9.99999e-01,9.99999e-01,6.86121e-01,9.99999e-01
8.622505932e-01,6.91245e-01,9.99999e-01,9.99999e-01,6.91245e-01,9.99999e-01
8.665618462e-01,6.50979e-01,9.99999e-01,9.34904e-01,6.96305e-01,9.99999e-01
8.708946554e-01,5.22389e-01,9.99999e-01,7.44884e-01,7.01301e-01,9.99999e-01
8.752491287e-01,5.58419e-01,9.99999e-01,7.90699e-01,7.06234e-01,9.99999e-01
8.796253743e-01,6.25535e-01,9.99999e-01,8.79669e-01,7.11102e-01,9.99999e-01
8.840235012e-01,6.69968e-01,9.99999e-01,9.35830e-01,7.15907e-01,9.99999e-01
8.884436187e-01,7.02159e-01,9.99999e-01,9.74342e-01,7.20649e-01,9.99999e-01
8.928858368e-01,7.17721e-01,9.99999e-01,9.89512e-01,7.25327e-01,9.99999e-01
8.973502660e-01,7.28089e-01,9.99999e-01,9.97459e-01,7.29943e-01,9.99999e-01
9.018370173e-01,7.34291e-01,9.99999e-01,9.99720e-01,7.34496e-01,9.99999e-01
9.063462024e-01,7.33476e-01,9.99999e-01,9.92543e-01,7.38986e-01,9.99999e-01
9.108779334e-01,7.31106e-01,9.99999e-01,9.83443e-01,7.43414e-01,9.99999e-01
9.154323231e-01,7.44894e-01,9.99999e-01,9.96138e-01,7.47781e-01,9.99999e-01
9.200094847e-01,7.08944e-01,9.99999e-01,9.42635e-01,7.52086e-01,9.99999e-01
9.246095321e-01,6.96863e-01,9.99999e-01,9.21373e-01,7.56331e-01,9.99999e-01
9.292325798e-01,7.12574e-01,9.99999e-01,9.36962e-01,7.60514e-01,9.99999e-01
9.338787427e-01,7.18594e-01,9.99999e-01,9.39783e-01,7.64638e-01,9.99999e-01
9.385481364e-01,7.34426e-01,9.99999e-01,9.55410e-01,7.68702e-01,9.99999e-01
9.432408771e-01,7.51504e-01,9.99999e-01,9.72560e-01,7.72706e-01,9.99999e-01
9.479570815e-01,7.65623e-01,9.99999e-01,9.85799e-01,7.76652e-01,9.99999e-01
9.526968669e-01,7.75189e-01,9.99999e-01,9.93144e-01,7.80539e-01,9.99999e-01
9.574603512e-01,7.82068e-01,9.99999e-01,9.97066e-01,7.84369e-01,9.99999e-01
9.622476530e-01,7.87420e-01,9.99999e-01,9.99085e-01,7.88141e-01,9.99999e-01
9.670588912e-01,7.91639e-01,9.99999e-01,9.99726e-01,7.91856e-01,9.99999e-01
9.718941857e-01,7.95499e-01,9.99999e-01,9.99980e-01,7.95514e-01,9.99999e-01
9.767536566e-01,7.99117e-01,9.99999e-01,9.99999e-01,7.99117e-01,9.99999e-01
9.816374249e-01,8.02665e-01,9.99999e-01,9.99999e-01,8.02665e-01,9.99999e-01
9.865456120e-01,8.06157e-01,9.99999e-01,9.99999e-01,8.06157e-01,9.99999e-01
9.914783401e-01,8.09596e-01,9.99999e-01,9.99999e-01,8.09596e-01,9.99999e-01
9.964357318e-01,8.12981e-01,9.99999e-01,9.99999e-01,8.12981e-01,9.99999e-01
1.001417910e+00,8.16312e-01,9.99999e-01,9.99999e-01,8.16312e-01,9.99999e-01
1.006425000e+00,8.19591e-01,9.99999e-01,9.99999e-01,8.19591e-01,9.99999e-01
1.011457125e+00,8.22818e-01,9.99999e-01,9.99999e-01,8.22818e-01,9.99999e-01
1.016514411e+00,8.25994e-01,9.99999e-01,9.99999e-01,8.25994e-01,9.99999e-01
1.021596983e+00,8.29081e-01,9.99999e-01,9.99954e-01,8.29119e-01,9.99999e-01
1.026704968e+00,8.29763e-01,9.99999e-01,9.97078e-01,8.32194e-01,9.99999e-01
1.031838492e+00,8.01906e-01,9.99999e-01,9.60114e-01,8.35219e-01,9.99999e-01
1.036997685e+00,1.62860e-01,9.99999e-01,1.94299e-01,8.38194e-01,9.99999e-01
1.042182673e+00,1.64324e-01,9.99999e-01,1.95363e-01,8.41122e-01,9.99999e-01
1.047393587e+00,1.70068e-01,9.99999e-01,2.01502e-01,8.44001e-01,9.99999e-01
1.052630555e+00,1.02508e-02,9.99999e-01,1.21048e-02,8.46833e-01,9.99999e-01
1.057893707e+00,2.33915e-02,9.99999e-01,2.75318e-02,8.49619e-01,9.99999e-01
1.063183176e+00,6.11996e-02,9.99999e-01,7.18002e-02,8.52358e-01,9.99999e-01
1.068499092e+00,1.40457e-01,9.99999e-01,1.64267e-01,8.55052e-01,9.99999e-01
1.073841587e+00,2.75485e-01,9.99999e-01,3.21190e-01,8.57701e-01,9.99999e-01
1.079210795e+00,4.19319e-01,9.99999e-01,4.87406e-01,8.60305e-01,9.99999e-01
1.084606849e+00,5.82293e-01,9.99999e-01,6.74835e-01,8.62866e-01,9.99999e-01
1.090029883e+00,7.05559e-01,9.99999e-01,8.15313e-01,8.65384e-01,9.99999e-01
1.095480033e+00,7.84976e-01,9.99999e-01,9.04497e-01,8.67858e-01,9.99999e-01
1.100957433e+00,8.29211e-01,9.99999e-01,9.52796e-01,8.70291e-01,9.99999e-01
1.106462220e+00,8.55444e-01,9.99999e-01,9.80245e-01,8.72683e-01,9.99999e-01
1.111994531e+00,8.68587e-01,9.99999e-01,9.92632e-01,8.75033e-01,9.99999e-01
1.117554504e+00,8.75771e-01,9.99999e-01,9.98207e-01,8.77344e-01,9.99999e-01
1.123142276e+00,8.79512e-01,9.99999e-01,9.99882e-01,8.79614e-01,9.99999e-01
1.128757988e+00,8.81846e-01,9.99999e-01,9.99999e-01,8.81846e-01,9.99999e-01
1.134401778e+00,8.84039e-01,9.99999e-01,9.99999e-01,8.84039e-01,9.99999e-01
1.140073787e+00,8.86194e-01,9.99999e-01,9.99999e-01,8.86194e-01,9.99999e-01
1.145774156e+00,8.88311e-01,9.99999e-01,9.99999e-01,8.88311e-01,9.99999e-01
1.151503026e+00,8.90392e-01,9.99999e-01,9.99999e-01,8.90392e-01,9.99999e-01
1.157260541e+00,8.92436e-01,9.99999e-01,9.99999e-01,8.92436e-01,9.99999e-01
1.163046844e+00,8.94444e-01,9.99999e-01,9.99999e-01,8.94444e-01,9.99999e-01
1.168862078e+00,8.96417e-01,9.99999e-01,9.99999e-01,8.96417e-01,9.99999e-01
1.174706389e+00,8.98355e-01,9.99999e-01,9.99999e-01,8.98355e-01,9.99999e-01
1.180579921e+00,9.00259e-01,9.99999e-01,9.99999e-01,9.00259e-01,9.99999e-01
1.186482820e+00,9.02123e-01,9.99999e-01,9.99992e-01,9.02130e-01,9.99999e-01
1.192415234e+00,8.94484e-01,9.99999e-01,9.89509e-01,9.03967e-01,9.99999e-01
1.198377311e+00,5.14330e-01,9.99999e-01,5.67836e-01,9.05771e-01,9.99999e-01
1.204369197e+00,4.78573e-09,9.99999e-01,5.27327e-09,9.07544e-01,9.99999e-01
1.210391043e+00,1.88896e-31,9.99999e-01,2.07741e-31,9.09284e-01,9.99999e-01
1.216442998e+00,1.91666e-27,9.99999e-01,2.10392e-27,9.10994e-01,9.99999e-01
1.222525213e+00,4.68686e-27,9.99999e-01,5.13531e-27,9.12673e-01,9.99999e-01
1.228637839e+00,6.24730e-21,9.99999e-01,6.83271e-21,9.14322e-01,9.99999e-01
1.234781029e+00,7.22980e-14,9.99999e-01,7.89329e-14,9.15941e-01,9.99999e-01
1.240954934e+00,2.24747e-09,9.99999e-01,2.44948e-09,9.17531e-01,9.99999e-01
1.247159708e+00,1.81712e-05,9.99999e-01,1.97708e-05,9.19092e-01,9.99999e-01
1.253395507e+00,1.81310e-03,9.99999e-01,1.96942e-03,9.20625e-01,9.99999e-01
1.259662485e+00,2.61727e-02,9.99999e-01,2.83829e-02,9.22130e-01,9.99999e-01
1.265960797e+00,1.17732e-01,9.99999e-01,1.27469e-01,9.23608e-01,9.99999e-01
1.272290601e+00,3.91219e-01,9.99999e-01,4.22912e-01,9.25059e-01,9.99999e-01
1.278652054e+00,3.33982e-01,9.99999e-01,3.60483e-01,9.26483e-01,9.99999e-01
1.285045314e+00,1.01929e-02,9.99999e-01,1.09851e-02,9.27882e-01,9.99999e-01
1.291470541e+00,2.17053e-04,9.99999e-01,2.33577e-04,9.29254e-01,9.99999e-01
1.297927893e+00,2.14429e-02,9.99999e-01,2.30419e-02,9.30602e-01,9.99999e-01
1.304417533e+00,1.94460e-01,9.99999e-01,2.08665e-01,9.31925e-01,9.99999e-01
1.310939621e+00,3.29160e-02,9.99999e-01,3.52712e-02,9.33224e-01,9.99999e-01
1.317494319e+00,2.46397e-11,9.99999e-01,2.63668e-11,9.34499e-01,9.99999e-01
1.324081790e+00,2.08434e-06,9.99999e-01,2.22746e-06,9.35750e-01,9.99999e-01
1.330702199e+00,9.95978e-05,9.99999e-01,1.06297e-04,9.36978e-01,9.99999e-01
1.337355710e+00,9.77261e-05,9.99999e-01,1.04165e-04,9.38184e-01,9.99999e-01
1.344042489e+00,2.77763e-05,9.99999e-01,2.95691e-05,9.39367e-01,9.99999e-01
1.350762701e+00,6.85794e-05,9.99999e-01,7.29158e-05,9.40528e-01,9.99999e-01
1.357516515e+00,1.98223e-03,9.99999e-01,2.10502e-03,9.41668e-01,9.99999e-01
1.364304097e+00,1.82280e-02,9.99999e-01,1.93342e-02,9.42787e-01,9.99999e-01
1.371125618e+00,1.19733e-01,9.99999e-01,1.26851e-01,9.43884e-01,9.99999e-01
1.377981246e+00,1.76112e-01,9.99999e-01,1.86369e-01,9.44962e-01,9.99999e-01
1.384871152e+00,3.56177e-01,9.99999e-01,3.76500e-01,9.46019e-01,9.99999e-01
1.391795508e+00,3.84295e-01,9.99999e-01,4.05778e-01,9.47056e-01,9.99999e-01
1.398754485e+00,5.43796e-01,9.99999e-01,5.73579e-01,9.48074e-01,9.99999e-01
1.405748258e+00,6.30404e-01,9.99999e-01,6.64230e-01,9.49074e-01,9.99999e-01
1.412776999e+00,7.33967e-01,9.99999e-01,7.72552e-01,9.50054e-01,9.99999e-01
1.419840884e+00,6.62188e-01,9.99999e-01,6.96295e-01,9.51016e-01,9.99999e-01
1.426940089e+00,7.15999e-02,9.99999e-01,7.52130e-02,9.51960e-01,9.99999e-01
1.434074789e+00,0.00000e+00,9.99999e-01,0.00000e+00,9.52886e-01,9.99999e-01
1.441245163e+00,0.00000e+00,9.99999e-01,0.00000e+00,9.53795e-01,9.99999e-01
1.448451389e+00,0.00000e+00,9.99999e-01,0.00000e+00,9.54686e-01,9.99999e-01
1.455693646e+00,1.14306e-248,9.99999e-01,1.19622e-248,9.55561e-01,9.99999e-01
1.462972114e+00,9.13670e-121,9.99999e-01,9.55301e-121,9.56420e-01,9.99999e-01
1.470286975e+00,5.13430e-51,9.99999e-01,5.36352e-51,9.57262e-01,9.99999e-01
