#,Wave/freq,Total,N2,CO2,Rayleigh,CIA
4.000000000e-01,1.85940e-02,9.99999e-01,9.99999e-01,1.85940e-02,9.99999e-01
4.020000000e-01,2.01183e-02,9.99999e-01,9.99999e-01,2.01183e-02,9.99999e-01
4.040100000e-01,2.17320e-02,9.99999e-01,9.99999e-01,2.17320e-02,9.99999e-01
4.060300500e-01,2.34394e-02,9.99999e-01,9.99999e-01,2.34394e-02,9.99999e-01
4.080602003e-01,2.52432e-02,9.99999e-01,9.99999e-01,2.52432e-02,9.99999e-01
4.101005013e-01,2.71460e-02,9.99999e-01,9.99999e-01,2.71460e-02,9.99999e-01
4.121510038e-01,2.91503e-02,9.99999e-01,9.99999e-01,2.91503e-02,9.99999e-01
4.142117588e-01,3.12587e-02,9.99999e-01,9.99999e-01,3.12587e-02,9.99999e-01
4.162828176e-01,3.34733e-02,9.99999e-01,9.99999e-01,3.34733e-02,9.99999e-01
4.183642317e-01,3.57964e-02,9.99999e-01,9.99999e-01,3.57964e-02,9.99999e-01
4.204560528e-01,3.82300e-02,9.99999e-01,9.99999e-01,3.82300e-02,9.99999e-01
4.225583331e-01,4.07761e-02,9.99999e-01,9.99999e-01,4.07761e-02,9.99999e-01
4.246711247e-01,4.34364e-02,9.99999e-01,9.99999e-01,4.34364e-02,9.99999e-01
4.267944804e-01,4.62125e-02,9.99999e-01,9.99999e-01,4.62125e-02,9.99999e-01
4.289284528e-01,4.91059e-02,9.99999e-01,9.99999e-01,4.91059e-02,9.99999e-01
4.310730950e-01,5.21179e-02,9.99999e-01,9.99999e-01,5.21179e-02,9.99999e-01
4.332284605e-01,5.52497e-02,9.99999e-01,9.99999e-01,5.52497e-02,9.99999e-01
4.353946028e-01,5.85022e-02,9.99999e-01,9.99999e-01,5.85022e-02,9.99999e-01
4.375715758e-01,6.18762e-02,9.99999e-01,9.99999e-01,6.18762e-02,9.99999e-01
4.397594337e-01,6.53723e-02,9.99999e-01,9.99999e-01,6.53723e-02,9.99999e-01
4.419582309e-01,6.89910e-02,9.99999e-01,9.99999e-01,6.89910e-02,9.99999e-01
4.441680220e-01,7.27326e-02,9.99999e-01,9.99999e-01,7.27326e-02,9.99999e-01
4.463888621e-01,7.65972e-02,9.99999e-01,9.99999e-01,7.65972e-02,9.99999e-01
4.486208064e-01,8.05847e-02,9.99999e-01,9.99999e-01,8.05847e-02,9.99999e-01
4.508639105e-01,8.46948e-02,9.99999e-01,9.99999e-01,8.46948e-02,9.99999e-01
4.531182300e-01,8.89271e-02,9.99999e-01,9.99999e-01,8.89271e-02,9.99999e-01
4.553838212e-01,9.32810e-02,9.99999e-01,9.99999e-01,9.32810e-02,9.99999e-01
4.576607403e-01,9.77558e-02,9.99999e-01,9.99999e-01,9.77558e-02,9.99999e-01
4.599490440e-01,1.02350e-01,9.99999e-01,9.99999e-01,1.02350e-01,9.99999e-01
4.622487892e-01,1.07064e-01,9.99999e-01,9.99999e-01,1.07064e-01,9.99999e-01
4.645600332e-01,1.11895e-01,9.99999e-01,9.99999e-01,1.11895e-01,9.99999e-01
4.668828333e-01,1.16842e-01,9.99999e-01,9.99999e-01,1.16842e-01,9.99999e-01
4.692172475e-01,1.21903e-01,9.99999e-01,9.99999e-01,1.21903e-01,9.99999e-01
4.715633337e-01,1.27078e-01,9.99999e-01,9.99999e-01,1.27078e-01,9.99999e-01
4.739211504e-01,1.32363e-01,9.99999e-01,9.99999e-01,1.32363e-01,9.99999e-01
4.762907561e-01,1.37757e-01,9.99999e-01,9.99999e-01,1.37757e-01,9.99999e-01
4.786722099e-01,1.43258e-01,9.99999e-01,9.99999e-01,1.43258e-01,9.99999e-01
4.810655710e-01,1.48863e-01,9.99999e-01,9.99999e-01,1.48863e-01,9.99999e-01
4.834708988e-01,1.54570e-01,9.99999e-01,9.99999e-01,1.54570e-01,9.99999e-01
4.858882533e-01,1.60377e-01,9.99999e-01,9.99999e-01,1.60377e-01,9.99999e-01
4.883176946e-01,1.66281e-01,9.99999e-01,9.99999e-01,1.66281e-01,9.99999e-01
4.907592831e-01,1.72279e-01,9.99999e-01,9.99999e-01,1.72279e-01,9.99999e-01
4.932130795e-01,1.78369e-01,9.99999e-01,9.99999e-01,1.78369e-01,9.99999e-01
4.956791449e-01,1.84547e-01,9.99999e-01,9.99999e-01,1.84547e-01,9.99999e-01
4.981575406e-01,1.90811e-01,9.99999e-01,9.99999e-01,1.90811e-01,9.99999e-01
5.006483283e-01,1.97158e-01,9.99999e-01,9.99999e-01,1.97158e-01,9.99999e-01
5.031515699e-01,2.03584e-01,9.99999e-01,9.99999e-01,2.03584e-01,9.99999e-01
5.056673278e-01,2.10086e-01,9.99999e-01,9.99999e-01,2.10086e-01,9.99999e-01
5.081956644e-01,2.16661e-01,9.99999e-01,9.99999e-01,2.16661e-01,9.99999e-01
5.107366428e-01,2.23307e-01,9.99999e-01,9.99999e-01,2.23307e-01,9.99999e-01
5.132903260e-01,2.30018e-01,9.99999e-01,9.99999e-01,2.30018e-01,9.99999e-01
5.158567776e-01,2.36793e-01,9.99999e-01,9.99999e-01,2.36793e-01,9.99999e-01
5.184360615e-01,2.43628e-01,9.99999e-01,9.99999e-01,2.43628e-01,9.99999e-01
5.210282418e-01,2.50519e-01,9.99999e-01,9.99999e-01,2.50519e-01,9.99999e-01
5.236333830e-01,2.57463e-01,9.99999e-01,9.99999e-01,2.57463e-01,9.99999e-01
5.262515499e-01,2.64457e-01,9.99999e-01,9.99999e-01,2.64457e-01,9.99999e-01
5.288828077e-01,2.71497e-01,9.99999e-01,9.99999e-01,2.71497e-01,9.99999e-01
5.315272217e-01,2.78579e-01,9.99999e-01,9.99999e-01,2.78579e-01,9.99999e-01
5.341848578e-01,2.85702e-01,9.99999e-01,9.99999e-01,2.85702e-01,9.99999e-01
5.368557821e-01,2.92860e-01,9.99999e-01,9.99999e-01,2.92860e-01,9.99999e-01
5.395400610e-01,3.00051e-01,9.99999e-01,9.99999e-01,3.00051e-01,9.99999e-01
5.422377613e-01,3.07271e-01,9.99999e-01,9.99999e-01,3.07271e-01,9.99999e-01
5.449489501e-01,3.14517e-01,9.99999e-01,9.99999e-01,3.14517e-01,9.99999e-01
5.476736949e-01,3.21786e-01,9.99999e-01,9.99999e-01,3.21786e-01,9.99999e-01
5.504120634e-01,3.29074e-01,9.99999e-01,9.99999e-01,3.29074e-01,9.99999e-01
5.531641237e-01,3.36378e-01,9.99999e-01,9.99999e-01,3.36378e-01,9.99999e-01
5.559299443e-01,3.43696e-01,9.99999e-01,9.99999e-01,3.43696e-01,9.99999e-01
5.587095940e-01,3.51023e-01,9.99999e-01,9.99999e-01,3.51023e-01,9.99999e-01
5.615031420e-01,3.58358e-01,9.99999e-01,9.99999e-01,3.58358e-01,9.99999e-01
5.643106577e-01,3.65696e-01,9.99999e-01,9.99999e-01,3.65696e-01,9.99999e-01
5.671322110e-01,3.73035e-01,9.99999e-01,9.99999e-01,3.73035e-01,9.99999e-01
5.699678720e-01,3.80372e-01,9.99999e-01,9.99999e-01,3.80372e-01,9.99999e-01
5.728177114e-01,3.87704e-01,9.99999e-01,9.99999e-01,3.87704e-01,9.99999e-01
5.756818000e-01,3.95029e-01,9.99999e-01,9.99999e-01,3.95029e-01,9.99999e-01
5.785602090e-01,4.02343e-01,9.99999e-01,9.99999e-01,4.02343e-01,9.99999e-01
5.814530100e-01,4.09644e-01,9.99999e-01,9.99999e-01,4.09644e-01,9.99999e-01
5.843602750e-01,4.16929e-01,9.99999e-01,9.99999e-01,4.16929e-01,9.99999e-01
5.872820764e-01,4.24197e-01,9.99999e-01,9.99999e-01,4.24197e-01,9.99999e-01
5.902184868e-01,4.31443e-01,9.99999e-01,9.99999e-01,4.31443e-01,9.99999e-01
5.931695792e-01,4.38667e-01,9.99999e-01,9.99999e-01,4.38667e-01,9.99999e-01
5.961354271e-01,4.45865e-01,9.99999e-01,9.99999e-01,4.45865e-01,9.99999e-01
5.991161043e-01,4.53036e-01,9.99999e-01,9.99999e-01,4.53036e-01,9.99999e-01
6.021116848e-01,4.60177e-01,9.99999e-01,9.99999e-01,4.60177e-01,9.99999e-01
6.051222432e-01,4.67286e-01,9.99999e-01,9.99999e-01,4.67286e-01,9.99999e-01
6.081478544e-01,4.74361e-01,9.99999e-01,9.99999e-01,4.74361e-01,9.99999e-01
6.111885937e-01,4.81401e-01,9.99999e-01,9.99999e-01,4.81401e-01,9.99999e-01
6.142445367e-01,4.88403e-01,9.99999e-01,9.99999e-01,4.88403e-01,9.99999e-01
6.173157594e-01,4.95365e-01,9.99999e-01,9.99999e-01,4.95365e-01,9.99999e-01
6.204023382e-01,5.02287e-01,9.99999e-01,9.99999e-01,5.02287e-01,9.99999e-01
6.235043498e-01,5.09165e-01,9.99999e-01,9.99999e-01,5.09165e-01,9.99999e-01
6.266218716e-01,5.15999e-01,9.99999e-01,9.99999e-01,5.15999e-01,9.99999e-01
6.297549810e-01,5.22787e-01,9.99999e-01,9.99999e-01,5.22787e-01,9.99999e-01
6.329037559e-01,5.29527e-01,9.99999e-01,9.99999e-01,5.29527e-01,9.99999e-01
6.360682746e-01,5.36219e-01,9.99999e-01,9.99999e-01,5.36219e-01,9.99999e-01
6.392486160e-01,5.42861e-01,9.99999e-01,9.99999e-01,5.42861e-01,9.99999e-01
6.424448591e-01,5.49451e-01,9.99999e-01,9.99999e-01,5.49451e-01,9.99999e-01
6.456570834e-01,5.55989e-01,9.99999e-01,9.99999e-01,5.55989e-01,9.99999e-01
6.488853688e-01,5.62473e-01,9.99999e-01,9.99999e-01,5.62473e-01,9.99999e-01
6.521297956e-01,5.68902e-01,9.99999e-01,9.99999e-01,5.68902e-01,9.99999e-01
6.553904446e-01,5.75276e-01,9.99999e-01,9.99999e-01,5.75276e-01,9.99999e-01
6.586673968e-01,5.81593e-01,9.99999e-01,9.99999e-01,5.81593e-01,9.99999e-01
6.619607338e-01,5.87853e-01,9.99999e-01,9.99999e-01,5.87853e-01,9.99999e-01
6.652705375e-01,5.94054e-01,9.99999e-01,9.99999e-01,5.94054e-01,9.99999e-01
6.685968902e-01,6.00197e-01,9.99999e-01,9.99999e-01,6.00197e-01,9.99999e-01
6.719398746e-01,6.06280e-01,9.99999e-01,9.99999e-01,6.06280e-01,9.99999e-01
6.752995740e-01,6.12302e-01,9.99999e-01,9.99999e-01,6.12302e-01,9.99999e-01
6.786760719e-01,6.18264e-01,9.99999e-01,9.99999e-01,6.18264e-01,9.99999e-01
6.820694522e-01,6.24164e-01,9.99999e-01,9.99999e-01,6.24164e-01,9.99999e-01
6.854797995e-01,6.30002e-01,9.99999e-01,9.99999e-01,6.30002e-01,9.99999e-01
6.889071985e-01,6.35778e-01,9.99999e-01,9.99999e-01,6.35778e-01,9.99999e-01
6.923517345e-01,6.41491e-01,9.99999e-01,9.99999e-01,6.41491e-01,9.99999e-01
6.958134932e-01,6.47141e-01,9.99999e-01,9.99999e-01,6.47141e-01,9.99999e-01
6.992925606e-01,6.52728e-01,9.99999e-01,9.99999e-01,6.52728e-01,9.99999e-01
7.027890234e-01,6.58251e-01,9.99999e-01,9.99999e-01,6.58251e-01,9.99999e-01
7.063029686e-01,6.63711e-01,9.99999e-01,9.99999e-01,6.63711e-01,9.99999e-01
7.098344834e-01,6.69107e-01,9.99999e-01,9.99999e-01,6.69107e-01,9.99999e-01
7.133836558e-01,6.74438e-01,9.99999e-01,9.99999e-01,6.74438e-01,9.99999e-01
7.169505741e-01,6.79706e-01,9.99999e-01,9.99999e-01,6.79706e-01,9.99999e-01
7.205353270e-01,6.84909e-01,9.99999e-01,9.99999e-01,6.84909e-01,9.99999e-01
7.241380036e-01,6.90049e-01,9.99999e-01,9.99999e-01,6.90049e-01,9.99999e-01
7.277586936e-01,6.95124e-01,9.99999e-01,9.99999e-01,6.95124e-01,9.99999e-01
7.313974871e-01,7.00135e-01,9.99999e-01,9.99999e-01,7.00135e-01,9.99999e-01
7.350544745e-01,7.05082e-01,9.99999e-01,9.99999e-01,7.05082e-01,9.99999e-01
7.387297469e-01,7.09966e-01,9.99999e-01,9.99999e-01,7.09966e-01,9.99999e-01
7.424233956e-01,7.14786e-01,9.99999e-01,9.99999e-01,7.14786e-01,9.99999e-01
7.461355126e-01,7.19542e-01,9.99999e-01,9.99999e-01,7.19542e-01,9.99999e-01
7.498661902e-01,7.24235e-01,9.99999e-01,9.99999e-01,7.24235e-01,9.99999e-01
7.536155211e-01,7.28866e-01,9.99999e-01,9.99999e-01,7.28866e-01,9.99999e-01
7.573835987e-01,7.33433e-01,9.99999e-01,9.99999e-01,7.33433e-01,9.99999e-01
7.611705167e-01,7.37938e-01,9.99999e-01,9.99999e-01,7.37938e-01,9.99999e-01
7.649763693e-01,7.42381e-01,9.99999e-01,9.99999e-01,7.42381e-01,9.99999e-01
7.688012511e-01,7.46762e-01,9.99999e-01,9.99999e-01,7.46762e-01,9.99999e-01
7.726452574e-01,7.51082e-01,9.99999e-01,9.99999e-01,7.51082e-01,9.99999e-01
7.765084837e-01,7.55341e-01,9.99999e-01,9.99999e-01,7.55341e-01,9.99999e-01
7.803910261e-01,7.48571e-01,9.99999e-01,9.85559e-01,7.59538e-01,9.99999e-01
7.842929812e-01,7.20737e-01,9.99999e-01,9.43772e-01,7.63676e-01,9.99999e-01
7.882144461e-01,7.21004e-01,9.99999e-01,9.39107e-01,7.67754e-01,9.99999e-01
7.921555184e-01,7.44504e-01,9.99999e-01,9.64667e-01,7.71772e-01,9.99999e-01
7.961162960e-01,7.57537e-01,9.99999e-01,9.76544e-01,7.75732e-01,9.99999e-01
8.000968774e-01,7.69645e-01,9.99999e-01,9.87188e-01,7.79633e-01,9.99999e-01
8.040973618e-01,7.78291e-01,9.99999e-01,9.93381e-01,7.83475e-01,9.99999e-01
8.081178486e-01,7.84854e-01,9.99999e-01,9.96942e-01,7.87261e-01,9.99999e-01
8.121584379e-01,7.90252e-01,9.99999e-01,9.99067e-01,7.90989e-01,9.99999e-01
8.162192301e-01,7.94497e-01,9.99999e-01,9.99793e-01,7.94661e-01,9.99999e-01
8.203003262e-01,7.98275e-01,9.99999e-01,9.99996e-01,7.98277e-01,9.99999e-01
8.244018279e-01,8.01837e-01,9.99999e-01,9.99999e-01,8.01837e-01,9.99999e-01
8.285238370e-01,8.05343e-01,9.99999e-01,9.99999e-01,8.05343e-01,9.99999e-01
8.326664562e-01,8.08794e-01,9.99999e-01,9.99999e-01,8.08794e-01,9.99999e-01
8.368297885e-01,8.12191e-01,9.99999e-01,9.99999e-01,8.12191e-01,9.99999e-01
8.410139374e-01,8.15535e-01,9.99999e-01,9.99999e-01,8.15535e-01,9.99999e-01
8.452190071e-01,8.18827e-01,9.99999e-01,9.99999e-01,8.18827e-01,9.99999e-01
8.494451021e-01,8.22066e-01,9.99999e-01,9.99999e-01,8.22066e-01,9.99999e-01
8.536923276e-01,8.25254e-01,9.99999e-01,9.99999e-01,8.25254e-01,9.99999e-01
8.579607893e-01,8.28390e-01,9.99999e-01,9.99999e-01,8.28390e-01,9.99999e-01
8.622505932e-01,8.31477e-01,9.99999e-01,9.99999e-01,8.31477e-01,9.99999e-01
8.665618462e-01,8.01421e-01,9.99999e-01,9.60344e-01,8.34513e-01,9.99999e-01
8.708946554e-01,7.20251e-01,9.99999e-01,8.60000e-01,8.37501e-01,9.99999e-01
8.752491287e-01,7.46190e-01,9.99999e-01,8.87856e-01,8.40439e-01,9.99999e-01
8.796253743e-01,7.90736e-01,9.99999e-01,9.37634e-01,8.43330e-01,9.99999e-01
8.840235012e-01,8.18556e-01,9.99999e-01,9.67361e-01,8.46173e-01,9.99999e-01
8.884436187e-01,8.38018e-01,9.99999e-01,9.87099e-01,8.48970e-01,9.99999e-01
8.928858368e-01,8.47249e-01,9.99999e-01,9.94750e-01,8.51720e-01,9.99999e-01
8.973502660e-01,8.53341e-01,9.99999e-01,9.98731e-01,8.54424e-01,9.99999e-01
9.018370173e-01,8.56964e-01,9.99999e-01,9.99860e-01,8.57083e-01,9.99999e-01
9.063462024e-01,8.56465e-01,9.99999e-01,9.96238e-01,8.59698e-01,9.99999e-01
9.108779334e-01,8.55106e-01,9.99999e-01,9.91691e-01,8.62269e-01,9.99999e-01
9.154323231e-01,8.63132e-01,9.99999e-01,9.98074e-01,8.64797e-01,9.99999e-01
9.200094847e-01,8.41326e-01,9.99999e-01,9.70072e-01,8.67282e-01,9.99999e-01
9.246095321e-01,8.34806e-01,9.99999e-01,9.59851e-01,8.69724e-01,9.99999e-01
9.292325798e-01,8.44001e-01,9.99999e-01,9.67751e-01,8.72126e-01,9.99999e-01
9.338787427e-01,8.47694e-01,9.99999e-01,9.69362e-01,8.74486e-01,9.99999e-01
9.385481364e-01,8.57024e-01,9.99999e-01,9.77438e-01,8.76805e-01,9.99999e-01
9.432408771e-01,8.66951e-01,9.99999e-01,9.86196e-01,8.79085e-01,9.99999e-01
9.479570815e-01,8.75051e-01,9.99999e-01,9.92879e-01,8.81326e-01,9.99999e-01
9.526968669e-01,8.80498e-01,9.99999e-01,9.96569e-01,8.83528e-01,9.99999e-01
9.574603512e-01,8.84394e-01,9.99999e-01,9.98534e-01,8.85692e-01,9.99999e-01
9.622476530e-01,8.87413e-01,9.99999e-01,9.99543e-01,8.87818e-01,9.99999e-01
9.670588912e-01,8.89785e-01,9.99999e-01,9.99863e-01,8.89907e-01,9.99999e-01
9.718941857e-01,8.91951e-01,9.99999e-01,9.99990e-01,8.91959e-01,9.99999e-01
9.767536566e-01,8.93976e-01,9.99999e-01,9.99999e-01,8.93976e-01,9.99999e-01
9.816374249e-01,8.95957e-01,9.99999e-01,9.99999e-01,8.95957e-01,9.99999e-01
9.865456120e-01,8.97904e-01,9.99999e-01,9.99999e-01,8.97904e-01,9.99999e-01
9.914783401e-01,8.99816e-01,9.99999e-01,9.99999e-01,8.99816e-01,9.99999e-01
9.964357318e-01,9.01694e-01,9.99999e-01,9.99999e-01,9.01694e-01,9.99999e-01
1.001417910e+00,9.03539e-01,9.99999e-01,9.99999e-01,9.03539e-01,9.99999e-01
1.006425000e+00,9.05351e-01,9.99999e-01,9.99999e-01,9.05351e-01,9.99999e-01
1.011457125e+00,9.07131e-01,9.99999e-01,9.99999e-01,9.07131e-01,9.99999e-01
1.016514411e+00,9.08879e-01,9.99999e-01,9.99999e-01,9.08879e-01,9.99999e-01
1.021596983e+00,9.10575e-01,9.99999e-01,9.99976e-01,9.10596e-01,9.99999e-01
1.026704968e+00,9.10941e-01,9.99999e-01,9.98530e-01,9.12282e-01,9.99999e-01
1.031838492e+00,8.90915e-01,9.99999e-01,9.74808e-01,9.13938e-01,9.99999e-01
1.036997685e+00,3.15587e-01,9.99999e-01,3.44691e-01,9.15564e-01,9.99999e-01
1.042182673e+00,3.93929e-01,9.99999e-01,4.29509e-01,9.17160e-01,9.99999e-01
1.047393587e+00,3.46905e-01,9.99999e-01,3.77593e-01,9.18728e-01,9.99999e-01
1.052630555e+00,7.71114e-02,9.99999e-01,8.37922e-02,9.20268e-01,9.99999e-01
1.057893707e+00,1.35209e-01,9.99999e-01,1.46683e-01,9.21779e-01,9.99999e-01
1.063183176e+00,2.30926e-01,9.99999e-01,2.50118e-01,9.23264e-01,9.99999e-01
1.068499092e+00,3.68970e-01,9.99999e-01,3.99006e-01,9.24721e-01,9.99999e-01
1.073841587e+00,5.20620e-01,9.99999e-01,5.62132e-01,9.26151e-01,9.99999e-01
1.079210795e+00,6.45123e-01,9.99999e-01,6.95508e-01,9.27556e-01,9.99999e-01
1.084606849e+00,7.62577e-01,9.99999e-01,8.20915e-01,9.28935e-01,9.99999e-01
1.090029883e+00,8.39860e-01,9.99999e-01,9.02794e-01,9.30288e-01,9.99999e-01
1.095480033e+00,8.85993e-01,9.99999e-01,9.51027e-01,9.31617e-01,9.99999e-01
1.100957433e+00,9.10644e-01,9.99999e-01,9.76120e-01,9.32921e-01,9.99999e-01
1.106462220e+00,9.24938e-01,9.99999e-01,9.90083e-01,9.34202e-01,9.99999e-01
1.111994531e+00,9.32011e-01,9.99999e-01,9.96313e-01,9.35459e-01,9.99999e-01
1.117554504e+00,9.35854e-01,9.99999e-01,9.99105e-01,9.36692e-01,9.99999e-01
1.123142276e+00,9.37848e-01,9.99999e-01,9.99941e-01,9.37903e-01,9.99999e-01
1.128757988e+00,9.39091e-01,9.99999e-01,9.99999e-01,9.39091e-01,9.99999e-01
1.134401778e+00,9.40258e-01,9.99999e-01,9.99999e-01,9.40258e-01,9.99999e-01
1.140073787e+00,9.41402e-01,9.99999e-01,9.99999e-01,9.41402e-01,9.99999e-01
1.145774156e+00,9.42526e-01,9.99999e-01,9.99999e-01,9.42526e-01,9.99999e-01
1.151503026e+00,9.43629e-01,9.99999e-01,9.99999e-01,9.43629e-01,9.99999e-01
1.157260541e+00,9.44711e-01,9.99999e-01,9.99999e-01,9.44711e-01,9.99999e-01
1.163046844e+00,9.45773e-01,9.99999e-01,9.99999e-01,9.45773e-01,9.99999e-01
1.168862078e+00,9.46815e-01,9.99999e-01,9.99999e-01,9.46815e-01,9.99999e-01
1.174706389e+00,9.47837e-01,9.99999e-01,9.99999e-01,9.47837e-01,9.99999e-01
1.180579921e+00,9.48841e-01,9.99999e-01,9.99999e-01,9.48841e-01,9.99999e-01
1.186482820e+00,9.49822e-01,9.99999e-01,9.99995e-01,9.49826e-01,9.99999e-01
1.192415234e+00,9.45727e-01,9.99999e-01,9.94672e-01,9.50792e-01,9.99999e-01
1.198377311e+00,5.67797e-01,9.99999e-01,5.96587e-01,9.51740e-01,9.99999e-01
1.204369197e+00,1.21721e-05,9.99999e-01,1.27768e-05,9.52670e-01,9.99999e-01
1.210391043e+00,7.62473e-17,9.99999e-01,7.99587e-17,9.53583e-01,9.99999e-01
1.216442998e+00,8.01603e-15,9.99999e-01,8.39833e-15,9.54479e-01,9.99999e-01
1.222525213e+00,1.37271e-14,9.99999e-01,1.43685e-14,9.55357e-01,9.99999e-01
1.228637839e+00,3.54054e-11,9.99999e-01,3.70264e-11,9.56220e-01,9.99999e-01
1.234781029e+00,5.44065e-08,9.99999e-01,5.68471e-08,9.57066e-01,9.99999e-01
1.240954934e+00,2.07123e-05,9.99999e-01,2.16227e-05,9.57895e-01,9.99999e-01
1.247159708e+00,2.31246e-03,9.99999e-01,2.41205e-03,9.58710e-01,9.99999e-01
1.253395507e+00,3.64486e-02,9.99999e-01,3.79867e-02,9.59509e-01,9.99999e-01
1.259662485e+00,1.51318e-01,9.99999e-01,1.57574e-01,9.60292e-01,9.99999e-01
1.265960797e+00,3.30612e-01,9.99999e-01,3.44007e-01,9.61061e-01,9.99999e-01
1.272290601e+00,6.22404e-01,9.99999e-01,6.47113e-01,9.61815e-01,9.99999e-01
1.278652054e+00,5.55016e-01,9.99999e-01,5.76606e-01,9.62555e-01,9.99999e-01
1.285045314e+00,4.78866e-02,9.99999e-01,4.97119e-02,9.63281e-01,9.99999e-01
1.291470541e+00,1.21807e-02,9.99999e-01,1.26357e-02,9.63993e-01,9.99999e-01
1.297927893e+00,1.10106e-01,9.99999e-01,1.14136e-01,9.64692e-01,9.99999e-01
1.304417533e+00,4.38222e-01,9.99999e-01,4.53938e-01,9.65377e-01,9.99999e-01
1.310939621e+00,8.80015e-02,9.99999e-01,9.10941e-02,9.66049e-01,9.99999e-01
1.317494319e+00,3.34215e-06,9.99999e-01,3.45725e-06,9.66708e-01,9.99999e-01
1.324081790e+00,3.87897e-04,9.99999e-01,4.00987e-04,9.67355e-01,9.99999e-01
1.330702199e+00,8.55874e-03,9.99999e-01,8.84177e-03,9.67989e-01,9.99999e-01
1.337355710e+00,8.33402e-03,9.99999e-01,8.60408e-03,9.68612e-01,9.99999e-01
1.344042489e+00,1.85682e-03,9.99999e-01,1.91578e-03,9.69222e-01,9.99999e-01
1.350762701e+00,7.12711e-03,9.99999e-01,7.34889e-03,9.69821e-01,9.99999e-01
1.357516515e+00,3.78313e-02,9.99999e-01,3.89849e-02,9.70408e-01,9.99999e-01
1.364304097e+00,1.31169e-01,9.99999e-01,1.35088e-01,9.70984e-01,9.99999e-01
1.371125618e+00,3.36995e-01,9.99999e-01,3.46864e-01,9.71549e-01,9.99999e-01
1.377981246e+00,4.18285e-01,9.99999e-01,4.30288e-01,9.72103e-01,9.99999e-01
1.384871152e+00,5.95729e-01,9.99999e-01,6.12482e-01,9.72646e-01,9.99999e-01
1.391795508e+00,6.18961e-01,9.99999e-01,6.36019e-01,9.73179e-01,9.99999e-01
1.398754485e+00,7.37434e-01,9.99999e-01,7.57351e-01,9.73702e-01,9.99999e-01
1.405748258e+00,7.93665e-01,9.99999e-01,8.14671e-01,9.74214e-01,9.99999e-01
1.412776999e+00,8.56720e-01,9.99999e-01,8.78941e-01,9.74717e-01,9.99999e-01
1.419840884e+00,7.99661e-01,9.99999e-01,8.19987e-01,9.75210e-01,9.99999e-01
1.426940089e+00,1.15613e-01,9.99999e-01,1.18493e-01,9.75694e-01,9.99999e-01
1.434074789e+00,1.30311e-230,9.99999e-01,1.33492e-230,9.76168e-01,9.99999e-01
1.441245163e+00,0.00000e+00,9.99999e-01,0.00000e+00,9.76634e-01,9.99999e-01
1.448451389e+00,1.61006e-279,9.99999e-01,1.64781e-279,9.77090e-01,9.99999e-01
1.455693646e+00,2.05944e-125,9.99999e-01,2.10677e-125,9.77537e-01,9.99999e-01
1.462972114e+00,1.74567e-61,9.99999e-01,1.78498e-61,9.77976e-01,9.99999e-01
1.470286975e+00,1.30998e-26,9.99999e-01,1.33889e-26,9.78406e-01,9.99999e-01
