#,Wave/freq,Total,N2,CO2,Rayleigh,CIA
4.000000000e-01,4.62928e-03,9.99999e-01,9.99999e-01,4.62928e-03,9.99999e-01
4.020000000e-01,5.14842e-03,9.99999e-01,9.99999e-01,5.14842e-03,9.99999e-01
4.040100000e-01,5.71313e-03,9.99999e-01,9.99999e-01,5.71313e-03,9.99999e-01
4.060300500e-01,6.32676e-03,9.99999e-01,9.99999e-01,6.32676e-03,9.99999e-01
4.080602003e-01,6.99219e-03,9.99999e-01,9.99999e-01,6.99219e-03,9.99999e-01
4.101005013e-01,7.71236e-03,9.99999e-01,9.99999e-01,7.71236e-03,9.99999e-01
4.121510038e-01,8.49025e-03,9.99999e-01,9.99999e-01,8.49025e-03,9.99999e-01
4.142117588e-01,9.32888e-03,9.99999e-01,9.99999e-01,9.32888e-03,9.99999e-01
4.162828176e-01,1.02313e-02,9.99999e-01,9.99999e-01,1.02313e-02,9.99999e-01
4.183642317e-01,1.12005e-02,9.99999e-01,9.99999e-01,1.12005e-02,9.99999e-01
4.204560528e-01,1.22397e-02,9.99999e-01,9.99999e-01,1.22397e-02,9.99999e-01
4.225583331e-01,1.33519e-02,9.99999e-01,9.99999e-01,1.33519e-02,9.99999e-01
4.246711247e-01,1.45401e-02,9.99999e-01,9.99999e-01,1.45401e-02,9.99999e-01
4.267944804e-01,1.58075e-02,9.99999e-01,9.99999e-01,1.58075e-02,9.99999e-01
4.289284528e-01,1.71569e-02,9.99999e-01,9.99999e-01,1.71569e-02,9.99999e-01
4.310730950e-01,1.85914e-02,9.99999e-01,9.99999e-01,1.85914e-02,9.99999e-01
4.332284605e-01,2.01140e-02,9.99999e-01,9.99999e-01,2.01140e-02,9.99999e-01
4.353946028e-01,2.17274e-02,9.99999e-01,9.99999e-01,2.17274e-02,9.99999e-01
4.375715758e-01,2.34346e-02,9.99999e-01,9.99999e-01,2.34346e-02,9.99999e-01
4.397594337e-01,2.52381e-02,9.99999e-01,9.99999e-01,2.52381e-02,9.99999e-01
4.419582309e-01,2.71406e-02,9.99999e-01,9.99999e-01,2.71406e-02,9.99999e-01
4.441680220e-01,2.91447e-02,9.99999e-01,9.99999e-01,2.91447e-02,9.99999e-01
4.463888621e-01,3.12527e-02,9.99999e-01,9.99999e-01,3.12527e-02,9.99999e-01
4.486208064e-01,3.34671e-02,9.99999e-01,9.99999e-01,3.34671e-02,9.99999e-01
4.508639105e-01,3.57899e-02,9.99999e-01,9.99999e-01,3.57899e-02,9.99999e-01
4.531182300e-01,3.82232e-02,9.99999e-01,9.99999e-01,3.82232e-02,9.99999e-01
4.553838212e-01,4.07689e-02,9.99999e-01,9.99999e-01,4.07689e-02,9.99999e-01
4.576607403e-01,4.34289e-02,9.99999e-01,9.99999e-01,4.34289e-02,9.99999e-01
4.599490440e-01,4.62047e-02,9.99999e-01,9.99999e-01,4.62047e-02,9.99999e-01
4.622487892e-01,4.90978e-02,9.99999e-01,9.99999e-01,4.90978e-02,9.99999e-01
4.645600332e-01,5.21095e-02,9.99999e-01,9.99999e-01,5.21095e-02,9.99999e-01
4.668828333e-01,5.52409e-02,9.99999e-01,9.99999e-01,5.52409e-02,9.99999e-01
4.692172475e-01,5.84930e-02,9.99999e-01,9.99999e-01,5.84930e-02,9.99999e-01
4.715633337e-01,6.18667e-02,9.99999e-01,9.99999e-01,6.18667e-02,9.99999e-01
4.739211504e-01,6.53625e-02,9.99999e-01,9.99999e-01,6.53625e-02,9.99999e-01
4.762907561e-01,6.89809e-02,9.99999e-01,9.99999e-01,6.89809e-02,9.99999e-01
4.786722099e-01,7.27222e-02,9.99999e-01,9.99999e-01,7.27222e-02,9.99999e-01
4.810655710e-01,7.65864e-02,9.99999e-01,9.99999e-01,7.65864e-02,9.99999e-01
4.834708988e-01,8.05735e-02,9.99999e-01,9.99999e-01,8.05735e-02,9.99999e-01
4.858882533e-01,8.46833e-02,9.99999e-01,9.99999e-01,8.46833e-02,9.99999e-01
4.883176946e-01,8.89153e-02,9.99999e-01,9.99999e-01,8.89153e-02,9.99999e-01
4.907592831e-01,9.32689e-02,9.99999e-01,9.99999e-01,9.32689e-02,9.99999e-01
4.932130795e-01,9.77433e-02,9.99999e-01,9.99999e-01,9.77433e-02,9.99999e-01
4.956791449e-01,1.02338e-01,9.99999e-01,9.99999e-01,1.02338e-01,9.99999e-01
4.981575406e-01,1.07051e-01,9.99999e-01,9.99999e-01,1.07051e-01,9.99999e-01
5.006483283e-01,1.11881e-01,9.99999e-01,9.99999e-01,1.11881e-01,9.99999e-01
5.031515699e-01,1.16828e-01,9.99999e-01,9.99999e-01,1.16828e-01,9.99999e-01
5.056673278e-01,1.21889e-01,9.99999e-01,9.99999e-01,1.21889e-01,9.99999e-01
5.081956644e-01,1.27063e-01,9.99999e-01,9.99999e-01,1.27063e-01,9.99999e-01
5.107366428e-01,1.32348e-01,9.99999e-01,9.99999e-01,1.32348e-01,9.99999e-01
5.132903260e-01,1.37742e-01,9.99999e-01,9.99999e-01,1.37742e-01,9.99999e-01
5.158567776e-01,1.43242e-01,9.99999e-01,9.99999e-01,1.43242e-01,9.99999e-01
5.184360615e-01,1.48847e-01,9.99999e-01,9.99999e-01,1.48847e-01,9.99999e-01
5.210282418e-01,1.54554e-01,9.99999e-01,9.99999e-01,1.54554e-01,9.99999e-01
5.236333830e-01,1.60361e-01,9.99999e-01,9.99999e-01,1.60361e-01,9.99999e-01
5.262515499e-01,1.66265e-01,9.99999e-01,9.99999e-01,1.66265e-01,9.99999e-01
5.288828077e-01,1.72263e-01,9.99999e-01,9.99999e-01,1.72263e-01,9.99999e-01
5.315272217e-01,1.78352e-01,9.99999e-01,9.99999e-01,1.78352e-01,9.99999e-01
5.341848578e-01,1.84530e-01,9.99999e-01,9.99999e-01,1.84530e-01,9.99999e-01
5.368557821e-01,1.90794e-01,9.99999e-01,9.99999e-01,1.90794e-01,9.99999e-01
5.395400610e-01,1.97140e-01,9.99999e-01,9.99999e-01,1.97140e-01,9.99999e-01
5.422377613e-01,2.03566e-01,9.99999e-01,9.99999e-01,2.03566e-01,9.99999e-01
5.449489501e-01,2.10068e-01,9.99999e-01,9.99999e-01,2.10068e-01,9.99999e-01
5.476736949e-01,2.16643e-01,9.99999e-01,9.99999e-01,2.16643e-01,9.99999e-01
5.504120634e-01,2.23288e-01,9.99999e-01,9.99999e-01,2.23288e-01,9.99999e-01
5.531641237e-01,2.30000e-01,9.99999e-01,9.99999e-01,2.30000e-01,9.99999e-01
5.559299443e-01,2.36774e-01,9.99999e-01,9.99999e-01,2.36774e-01,9.99999e-01
5.587095940e-01,2.43609e-01,9.99999e-01,9.99999e-01,2.43609e-01,9.99999e-01
5.615031420e-01,2.50500e-01,9.99999e-01,9.99999e-01,2.50500e-01,9.99999e-01
5.643106577e-01,2.57444e-01,9.99999e-01,9.99999e-01,2.57444e-01,9.99999e-01
5.671322110e-01,2.64437e-01,9.99999e-01,9.99999e-01,2.64437e-01,9.99999e-01
5.699678720e-01,2.71477e-01,9.99999e-01,9.99999e-01,2.71477e-01,9.99999e-01
5.728177114e-01,2.78560e-01,9.99999e-01,9.99999e-01,2.78560e-01,9.99999e-01
5.756818000e-01,2.85682e-01,9.99999e-01,9.99999e-01,2.85682e-01,9.99999e-01
5.785602090e-01,2.92840e-01,9.99999e-01,9.99999e-01,2.92840e-01,9.99999e-01
5.814530100e-01,3.00031e-01,9.99999e-01,9.99999e-01,3.00031e-01,9.99999e-01
5.843602750e-01,3.07251e-01,9.99999e-01,9.99999e-01,3.07251e-01,9.99999e-01
5.872820764e-01,3.14497e-01,9.99999e-01,9.99999e-01,3.14497e-01,9.99999e-01
5.902184868e-01,3.21766e-01,9.99999e-01,9.99999e-01,3.21766e-01,9.99999e-01
5.931695792e-01,3.29054e-01,9.99999e-01,9.99999e-01,3.29054e-01,9.99999e-01
5.961354271e-01,3.36358e-01,9.99999e-01,9.99999e-01,3.36358e-01,9.99999e-01
5.991161043e-01,3.43676e-01,9.99999e-01,9.99999e-01,3.43676e-01,9.99999e-01
6.021116848e-01,3.51003e-01,9.99999e-01,9.99999e-01,3.51003e-01,9.99999e-01
6.051222432e-01,3.58338e-01,9.99999e-01,9.99999e-01,3.58338e-01,9.99999e-01
6.081478544e-01,3.65676e-01,9.99999e-01,9.99999e-01,3.65676e-01,9.99999e-01
6.111885937e-01,3.73015e-01,9.99999e-01,9.99999e-01,3.73015e-01,9.99999e-01
6.142445367e-01,3.80352e-01,9.99999e-01,9.99999e-01,3.80352e-01,9.99999e-01
6.173157594e-01,3.87684e-01,9.99999e-01,9.99999e-01,3.87684e-01,9.99999e-01
6.204023382e-01,3.95009e-01,9.99999e-01,9.99999e-01,3.95009e-01,9.99999e-01
6.235043498e-01,4.02323e-01,9.99999e-01,9.99999e-01,4.02323e-01,9.99999e-01
6.266218716e-01,4.09624e-01,9.99999e-01,9.99999e-01,4.09624e-01,9.99999e-01
6.297549810e-01,4.16909e-01,9.99999e-01,9.99999e-01,4.16909e-01,9.99999e-01
6.329037559e-01,4.24177e-01,9.99999e-01,9.99999e-01,4.24177e-01,9.99999e-01
6.360682746e-01,4.31423e-01,9.99999e-01,9.99999e-01,4.31423e-01,9.99999e-01
6.392486160e-01,4.38647e-01,9.99999e-01,9.99999e-01,4.38647e-01,9.99999e-01
6.424448591e-01,4.45845e-01,9.99999e-01,9.99999e-01,4.45845e-01,9.99999e-01
6.456570834e-01,4.53016e-01,9.99999e-01,9.99999e-01,4.53016e-01,9.99999e-01
6.488853688e-01,4.60157e-01,9.99999e-01,9.99999e-01,4.60157e-01,9.99999e-01
6.521297956e-01,4.67267e-01,9.99999e-01,9.99999e-01,4.67267e-01,9.99999e-01
6.553904446e-01,4.74342e-01,9.99999e-01,9.99999e-01,4.74342e-01,9.99999e-01
6.586673968e-01,4.81382e-01,9.99999e-01,9.99999e-01,4.81382e-01,9.99999e-01
6.619607338e-01,4.88384e-01,9.99999e-01,9.99999e-01,4.88384e-01,9.99999e-01
6.652705375e-01,4.95346e-01,9.99999e-01,9.99999e-01,4.95346e-01,9.99999e-01
6.685968902e-01,5.02268e-01,9.99999e-01,9.99999e-01,5.02268e-01,9.99999e-01
6.719398746e-01,5.09146e-01,9.99999e-01,9.99999e-01,5.09146e-01,9.99999e-01
6.752995740e-01,5.15980e-01,9.99999e-01,9.99999e-01,5.15980e-01,9.99999e-01
6.786760719e-01,5.22768e-01,9.99999e-01,9.99999e-01,5.22768e-01,9.99999e-01
6.820694522e-01,5.29509e-01,9.99999e-01,9.99999e-01,5.29509e-01,9.99999e-01
6.854797995e-01,5.36201e-01,9.99999e-01,9.99999e-01,5.36201e-01,9.99999e-01
6.889071985e-01,5.42843e-01,9.99999e-01,9.99999e-01,5.42843e-01,9.99999e-01
6.923517345e-01,5.49433e-01,9.99999e-01,9.99999e-01,5.49433e-01,9.99999e-01
6.958134932e-01,5.55971e-01,9.99999e-01,9.99999e-01,5.55971e-01,9.99999e-01
6.992925606e-01,5.62455e-01,9.99999e-01,9.99999e-01,5.62455e-01,9.99999e-01
7.027890234e-01,5.68885e-01,9.99999e-01,9.99999e-01,5.68885e-01,9.99999e-01
7.063029686e-01,5.75259e-01,9.99999e-01,9.99999e-01,5.75259e-01,9.99999e-01
7.098344834e-01,5.81576e-01,9.99999e-01,9.99999e-01,5.81576e-01,9.99999e-01
7.133836558e-01,5.87836e-01,9.99999e-01,9.99999e-01,5.87836e-01,9.99999e-01
7.169505741e-01,5.94037e-01,9.99999e-01,9.99999e-01,5.94037e-01,9.99999e-01
7.205353270e-01,6.00180e-01,9.99999e-01,9.99999e-01,6.00180e-01,9.99999e-01
7.241380036e-01,6.06263e-01,9.99999e-01,9.99999e-01,6.06263e-01,9.99999e-01
7.277586936e-01,6.12286e-01,9.99999e-01,9.99999e-01,6.12286e-01,9.99999e-01
7.313974871e-01,6.18247e-01,9.99999e-01,9.99999e-01,6.18247e-01,9.99999e-01
7.350544745e-01,6.24148e-01,9.99999e-01,9.99999e-01,6.24148e-01,9.99999e-01
7.387297469e-01,6.29986e-01,9.99999e-01,9.99999e-01,6.29986e-01,9.99999e-01
7.424233956e-01,6.35762e-01,9.99999e-01,9.99999e-01,6.35762e-01,9.99999e-01
7.461355126e-01,6.41475e-01,9.99999e-01,9.99999e-01,6.41475e-01,9.99999e-01
7.498661902e-01,6.47126e-01,9.99999e-01,9.99999e-01,6.47126e-01,9.99999e-01
7.536155211e-01,6.52713e-01,9.99999e-01,9.99999e-01,6.52713e-01,9.99999e-01
7.573835987e-01,6.58236e-01,9.99999e-01,9.99999e-01,6.58236e-01,9.99999e-01
7.611705167e-01,6.63696e-01,9.99999e-01,9.99999e-01,6.63696e-01,9.99999e-01
7.649763693e-01,6.69092e-01,9.99999e-01,9.99999e-01,6.69092e-01,9.99999e-01
7.688012511e-01,6.74424e-01,9.99999e-01,9.99999e-01,6.74424e-01,9.99999e-01
7.726452574e-01,6.79691e-01,9.99999e-01,9.99999e-01,6.79691e-01,9.99999e-01
7.765084837e-01,6.84895e-01,9.99999e-01,9.99999e-01,6.84895e-01,9.99999e-01
7.803910261e-01,6.77892e-01,9.99999e-01,9.82403e-01,6.90035e-01,9.99999e-01
7.842929812e-01,6.42556e-01,9.99999e-01,9.24394e-01,6.95110e-01,9.99999e-01
7.882144461e-01,6.43675e-01,9.99999e-01,9.19375e-01,7.00121e-01,9.99999e-01
7.921555184e-01,6.71844e-01,9.99999e-01,9.52876e-01,7.05069e-01,9.99999e-01
7.961162960e-01,6.87319e-01,9.99999e-01,9.68119e-01,7.09953e-01,9.99999e-01
8.000968774e-01,7.02354e-01,9.99999e-01,9.82624e-01,7.14773e-01,9.99999e-01
8.040973618e-01,7.13011e-01,9.99999e-01,9.90940e-01,7.19529e-01,9.99999e-01
8.081178486e-01,7.21214e-01,9.99999e-01,9.95845e-01,7.24223e-01,9.99999e-01
8.121584379e-01,7.27911e-01,9.99999e-01,9.98707e-01,7.28853e-01,9.99999e-01
8.162192301e-01,7.33211e-01,9.99999e-01,9.99714e-01,7.33421e-01,9.99999e-01
8.203003262e-01,7.37923e-01,9.99999e-01,9.99994e-01,7.37926e-01,9.99999e-01
8.244018279e-01,7.42369e-01,9.99999e-01,9.99999e-01,7.42369e-01,9.99999e-01
8.285238370e-01,7.46750e-01,9.99999e-01,9.99999e-01,7.46750e-01,9.99999e-01
8.326664562e-01,7.51070e-01,9.99999e-01,9.99999e-01,7.51070e-01,9.99999e-01
8.368297885e-01,7.55329e-01,9.99999e-01,9.99999e-01,7.55329e-01,9.99999e-01
8.410139374e-01,7.59527e-01,9.99999e-01,9.99999e-01,7.59527e-01,9.99999e-01
8.452190071e-01,7.63665e-01,9.99999e-01,9.99999e-01,7.63665e-01,9.99999e-01
8.494451021e-01,7.67743e-01,9.99999e-01,9.99999e-01,7.67743e-01,9.99999e-01
8.536923276e-01,7.71761e-01,9.99999e-01,9.99999e-01,7.71761e-01,9.99999e-01
8.579607893e-01,7.75721e-01,9.99999e-01,9.99999e-01,7.75721e-01,9.99999e-01
8.622505932e-01,7.79622e-01,9.99999e-01,9.99999e-01,7.79622e-01,9.99999e-01
8.665618462e-01,7.47139e-01,9.99999e-01,9.53634e-01,7.83465e-01,9.99999e-01
8.708946554e-01,6.43321e-01,9.99999e-01,8.17173e-01,7.87251e-01,9.99999e-01
8.752491287e-01,6.73305e-01,9.99999e-01,8.51229e-01,7.90979e-01,9.99999e-01
8.796253743e-01,7.27970e-01,9.99999e-01,9.16087e-01,7.94651e-01,9.99999e-01
8.840235012e-01,7.62988e-01,9.99999e-01,9.55804e-01,7.98267e-01,9.99999e-01
8.884436187e-01,7.87656e-01,9.99999e-01,9.82325e-01,8.01828e-01,9.99999e-01
8.928858368e-01,7.99554e-01,9.99999e-01,9.92823e-01,8.05333e-01,9.99999e-01
8.973502660e-01,8.07365e-01,9.99999e-01,9.98244e-01,8.08785e-01,9.99999e-01
9.018370173e-01,8.12025e-01,9.99999e-01,9.99805e-01,8.12182e-01,9.99999e-01
9.063462024e-01,8.11555e-01,9.99999e-01,9.95130e-01,8.15526e-01,9.99999e-01
9.108779334e-01,8.09570e-01,9.99999e-01,9.88705e-01,8.18818e-01,9.99999e-01
9.154323231e-01,8.19855e-01,9.99999e-01,9.97320e-01,8.22057e-01,9.99999e-01
9.200094847e-01,7.93205e-01,9.99999e-01,9.61174e-01,8.25245e-01,9.99999e-01
9.246095321e-01,7.83543e-01,9.99999e-01,9.45871e-01,8.28382e-01,9.99999e-01
9.292325798e-01,7.96091e-01,9.99999e-01,9.57450e-01,8.31468e-01,9.99999e-01
9.338787427e-01,8.00012e-01,9.99999e-01,9.58665e-01,8.34505e-01,9.99999e-01
9.385481364e-01,8.11980e-01,9.99999e-01,9.69536e-01,8.37492e-01,9.99999e-01
9.432408771e-01,8.24651e-01,9.99999e-01,9.81223e-01,8.40431e-01,9.99999e-01
9.479570815e-01,8.35181e-01,9.99999e-01,9.90346e-01,8.43322e-01,9.99999e-01
9.526968669e-01,8.42212e-01,9.99999e-01,9.95327e-01,8.46165e-01,9.99999e-01
9.574603512e-01,8.47264e-01,9.99999e-01,9.97998e-01,8.48962e-01,9.99999e-01
9.622476530e-01,8.51180e-01,9.99999e-01,9.99374e-01,8.51712e-01,9.99999e-01
9.670588912e-01,8.54257e-01,9.99999e-01,9.99812e-01,8.54417e-01,9.99999e-01
9.718941857e-01,8.57065e-01,9.99999e-01,9.99986e-01,8.57076e-01,9.99999e-01
9.767536566e-01,8.59691e-01,9.99999e-01,9.99999e-01,8.59691e-01,9.99999e-01
9.816374249e-01,8.62262e-01,9.99999e-01,9.99999e-01,8.62262e-01,9.99999e-01
9.865456120e-01,8.64790e-01,9.99999e-01,9.99999e-01,8.64790e-01,9.99999e-01
9.914783401e-01,8.67275e-01,9.99999e-01,9.99999e-01,8.67275e-01,9.99999e-01
9.964357318e-01,8.69718e-01,9.99999e-01,9.99999e-01,8.69718e-01,9.99999e-01
1.001417910e+00,8.72119e-01,9.99999e-01,9.99999e-01,8.72119e-01,9.99999e-01
1.006425000e+00,8.74479e-01,9.99999e-01,9.99999e-01,8.74479e-01,9.99999e-01
1.011457125e+00,8.76799e-01,9.99999e-01,9.99999e-01,8.76799e-01,9.99999e-01
1.016514411e+00,8.79079e-01,9.99999e-01,9.99999e-01,8.79079e-01,9.99999e-01
1.021596983e+00,8.81299e-01,9.99999e-01,9.99975e-01,8.81320e-01,9.99999e-01
1.026704968e+00,8.81853e-01,9.99999e-01,9.98110e-01,8.83522e-01,9.99999e-01
1.031838492e+00,8.62629e-01,9.99999e-01,9.73966e-01,8.85686e-01,9.99999e-01
1.036997685e+00,2.45303e-01,9.99999e-01,2.76301e-01,8.87812e-01,9.99999e-01
1.042182673e+00,2.86496e-01,9.99999e-01,3.21941e-01,8.89901e-01,9.99999e-01
1.047393587e+00,2.72059e-01,9.99999e-01,3.05015e-01,8.91954e-01,9.99999e-01
1.052630555e+00,3.70180e-02,9.99999e-01,4.14085e-02,8.93971e-01,9.99999e-01
1.057893707e+00,7.06062e-02,9.99999e-01,7.88057e-02,8.95952e-01,9.99999e-01
1.063183176e+00,1.42405e-01,9.99999e-01,1.58598e-01,8.97898e-01,9.99999e-01
1.068499092e+00,2.63017e-01,9.99999e-01,2.92302e-01,8.99810e-01,9.99999e-01
1.073841587e+00,4.14385e-01,9.99999e-01,4.59565e-01,9.01689e-01,9.99999e-01
1.079210795e+00,5.53413e-01,9.99999e-01,6.12498e-01,9.03534e-01,9.99999e-01
1.084606849e+00,6.92542e-01,9.99999e-01,7.64947e-01,9.05346e-01,9.99999e-01
1.090029883e+00,7.89722e-01,9.99999e-01,8.70575e-01,9.07126e-01,9.99999e-01
1.095480033e+00,8.48874e-01,9.99999e-01,9.33983e-01,9.08874e-01,9.99999e-01
1.100957433e+00,8.81166e-01,9.99999e-01,9.67684e-01,9.10591e-01,9.99999e-01
1.106462220e+00,8.99965e-01,9.99999e-01,9.86503e-01,9.12277e-01,9.99999e-01
1.111994531e+00,9.09344e-01,9.99999e-01,9.94978e-01,9.13933e-01,9.99999e-01
1.117554504e+00,9.14431e-01,9.99999e-01,9.98767e-01,9.15559e-01,9.99999e-01
1.123142276e+00,9.17082e-01,9.99999e-01,9.99918e-01,9.17156e-01,9.99999e-01
1.128757988e+00,9.18724e-01,9.99999e-01,9.99999e-01,9.18724e-01,9.99999e-01
1.134401778e+00,9.20264e-01,9.99999e-01,9.99999e-01,9.20264e-01,9.99999e-01
1.140073787e+00,9.21775e-01,9.99999e-01,9.99999e-01,9.21775e-01,9.99999e-01
1.145774156e+00,9.23260e-01,9.99999e-01,9.99999e-01,9.23260e-01,9.99999e-01
1.151503026e+00,9.24717e-01,9.99999e-01,9.99999e-01,9.24717e-01,9.99999e-01
1.157260541e+00,9.26147e-01,9.99999e-01,9.99999e-01,9.26147e-01,9.99999e-01
1.163046844e+00,9.27552e-01,9.99999e-01,9.99999e-01,9.27552e-01,9.99999e-01
1.168862078e+00,9.28931e-01,9.99999e-01,9.99999e-01,9.28931e-01,9.99999e-01
1.174706389e+00,9.30285e-01,9.99999e-01,9.99999e-01,9.30285e-01,9.99999e-01
1.180579921e+00,9.31613e-01,9.99999e-01,9.99999e-01,9.31613e-01,9.99999e-01
1.186482820e+00,9.32915e-01,9.99999e-01,9.99996e-01,9.32918e-01,9.99999e-01
1.192415234e+00,9.27887e-01,9.99999e-01,9.93243e-01,9.34198e-01,9.99999e-01
1.198377311e+00,5.46678e-01,9.99999e-01,5.84397e-01,9.35455e-01,9.99999e-01
1.204369197e+00,7.89774e-07,9.99999e-01,8.43154e-07,9.36689e-01,9.99999e-01
1.210391043e+00,6.27036e-22,9.99999e-01,6.68552e-22,9.37900e-01,9.99999e-01
1.216442998e+00,3.16719e-19,9.99999e-01,3.37262e-19,9.39088e-01,9.99999e-01
1.222525213e+00,5.97163e-19,9.99999e-01,6.35107e-19,9.40255e-01,9.99999e-01
1.228637839e+00,1.37311e-14,9.99999e-01,1.45858e-14,9.41399e-01,9.99999e-01
1.234781029e+00,4.59707e-10,9.99999e-01,4.87740e-10,9.42523e-01,9.99999e-01
1.240954934e+00,7.44178e-07,9.99999e-01,7.88636e-07,9.43626e-01,9.99999e-01
1.247159708e+00,3.68036e-04,9.99999e-01,3.89576e-04,9.44708e-01,9.99999e-01
1.253395507e+00,1.22119e-02,9.99999e-01,1.29122e-02,9.45770e-01,9.99999e-01
1.259662485e+00,8.00292e-02,9.99999e-01,8.45248e-02,9.46812e-01,9.99999e-01
1.265960797e+00,2.25591e-01,9.99999e-01,2.38007e-01,9.47835e-01,9.99999e-01
1.272290601e+00,5.02203e-01,9.99999e-01,5.29282e-01,9.48838e-01,9.99999e-01
1.278652054e+00,4.68199e-01,9.99999e-01,4.92933e-01,9.49823e-01,9.99999e-01
1.285045314e+00,3.63497e-02,9.99999e-01,3.82310e-02,9.50789e-01,9.99999e-01
1.291470541e+00,2.89042e-03,9.99999e-01,3.03699e-03,9.51737e-01,9.99999e-01
1.297927893e+00,3.75037e-02,9.99999e-01,3.93670e-02,9.52668e-01,9.99999e-01
1.304417533e+00,3.27745e-01,9.99999e-01,3.43699e-01,9.53581e-01,9.99999e-01
1.310939621e+00,9.39523e-02,9.99999e-01,9.84332e-02,9.54476e-01,9.99999e-01
1.317494319e+00,5.56683e-08,9.99999e-01,5.82697e-08,9.55355e-01,9.99999e-01
1.324081790e+00,6.96777e-06,9.99999e-01,7.28680e-06,9.56217e-01,9.99999e-01
1.330702199e+00,1.77548e-03,9.99999e-01,1.85514e-03,9.57063e-01,9.99999e-01
1.337355710e+00,1.28279e-03,9.99999e-01,1.33918e-03,9.57893e-01,9.99999e-01
1.344042489e+00,4.42206e-04,9.99999e-01,4.61252e-04,9.58707e-01,9.99999e-01
1.350762701e+00,1.33704e-03,9.99999e-01,1.39347e-03,9.59506e-01,9.99999e-01
1.357516515e+00,1.26175e-02,9.99999e-01,1.31393e-02,9.60290e-01,9.99999e-01
1.364304097e+00,6.47358e-02,9.99999e-01,6.73588e-02,9.61059e-01,9.99999e-01
1.371125618e+00,2.30599e-01,9.99999e-01,2.39754e-01,9.61813e-01,9.99999e-01
1.377981246e+00,3.08197e-01,9.99999e-01,3.20186e-01,9.62553e-01,9.99999e-01
1.384871152e+00,4.96124e-01,9.99999e-01,5.15036e-01,9.63279e-01,9.99999e-01
1.391795508e+00,5.22361e-01,9.99999e-01,5.41872e-01,9.63991e-01,9.99999e-01
1.398754485e+00,6.61990e-01,9.99999e-01,6.86220e-01,9.64690e-01,9.99999e-01
1.405748258e+00,7.30959e-01,9.99999e-01,7.57175e-01,9.65375e-01,9.99999e-01
1.412776999e+00,8.10623e-01,9.99999e-01,8.39113e-01,9.66047e-01,9.99999e-01
1.419840884e+00,7.52547e-01,9.99999e-01,7.78464e-01,9.66706e-01,9.99999e-01
1.426940089e+00,9.95919e-02,9.99999e-01,1.02953e-01,9.67353e-01,9.99999e-01
1.434074789e+00,3.57306e-310,9.99999e-01,3.69122e-310,9.67988e-01,9.99999e-01
1.441245163e+00,0.00000e+00,9.99999e-01,0.00000e+00,9.68610e-01,9.99999e-01
1.448451389e+00,0.00000e+00,9.99999e-01,0.00000e+00,9.69220e-01,9.99999e-01
1.455693646e+00,2.53168e-168,9.99999e-01,2.61047e-168,9.69819e-01,9.99999e-01
1.462972114e+00,4.00981e-82,9.99999e-01,4.13209e-82,9.70406e-01,9.99999e-01
1.470286975e+00,4.08849e-35,9.99999e-01,4.21067e-35,9.70982e-01,9.99999e-01
