#,Wave/freq,Total,N2,CO2,Rayleigh,CIA
4.000000000e-01,3.95136e-07,9.99999e-01,9.99999e-01,3.95136e-07,9.99999e-01
4.020000000e-01,5.28877e-07,9.99999e-01,9.99999e-01,5.28877e-07,9.99999e-01
4.040100000e-01,7.03613e-07,9.99999e-01,9.99999e-01,7.03613e-07,9.99999e-01
4.060300500e-01,9.30817e-07,9.99999e-01,9.99999e-01,9.30817e-07,9.99999e-01
4.080602003e-01,1.22460e-06,9.99999e-01,9.99999e-01,1.22460e-06,9.99999e-01
4.101005013e-01,1.60240e-06,9.99999e-01,9.99999e-01,1.60240e-06,9.99999e-01
4.121510038e-01,2.08565e-06,9.99999e-01,9.99999e-01,2.08565e-06,9.99999e-01
4.142117588e-01,2.70054e-06,9.99999e-01,9.99999e-01,2.70054e-06,9.99999e-01
4.162828176e-01,3.47891e-06,9.99999e-01,9.99999e-01,3.47891e-06,9.99999e-01
4.183642317e-01,4.45926e-06,9.99999e-01,9.99999e-01,4.45926e-06,9.99999e-01
4.204560528e-01,5.68792e-06,9.99999e-01,9.99999e-01,5.68792e-06,9.99999e-01
4.225583331e-01,7.22031e-06,9.99999e-01,9.99999e-01,7.22031e-06,9.99999e-01
4.246711247e-01,9.12246e-06,9.99999e-01,9.99999e-01,9.12246e-06,9.99999e-01
4.267944804e-01,1.14726e-05,9.99999e-01,9.99999e-01,1.14726e-05,9.99999e-01
4.289284528e-01,1.43630e-05,9.99999e-01,9.99999e-01,1.43630e-05,9.99999e-01
4.310730950e-01,1.79020e-05,9.99999e-01,9.99999e-01,1.79020e-05,9.99999e-01
4.332284605e-01,2.22162e-05,9.99999e-01,9.99999e-01,2.22162e-05,9.99999e-01
4.353946028e-01,2.74527e-05,9.99999e-01,9.99999e-01,2.74527e-05,9.99999e-01
4.375715758e-01,3.37819e-05,9.99999e-01,9.99999e-01,3.37819e-05,9.99999e-01
4.397594337e-01,4.14003e-05,9.99999e-01,9.99999e-01,4.14003e-05,9.99999e-01
4.419582309e-01,5.05334e-05,9.99999e-01,9.99999e-01,5.05334e-05,9.99999e-01
4.441680220e-01,6.14389e-05,9.99999e-01,9.99999e-01,6.14389e-05,9.99999e-01
4.463888621e-01,7.44101e-05,9.99999e-01,9.99999e-01,7.44101e-05,9.99999e-01
4.486208064e-01,8.97796e-05,9.99999e-01,9.99999e-01,8.97796e-05,9.99999e-01
4.508639105e-01,1.07923e-04,9.99999e-01,9.99999e-01,1.07923e-04,9.99999e-01
4.531182300e-01,1.29261e-04,9.99999e-01,9.99999e-01,1.29261e-04,9.99999e-01
4.553838212e-01,1.54268e-04,9.99999e-01,9.99999e-01,1.54268e-04,9.99999e-01
4.576607403e-01,1.83471e-04,9.99999e-01,9.99999e-01,1.83471e-04,9.99999e-01
4.599490440e-01,2.17456e-04,9.99999e-01,9.99999e-01,2.17456e-04,9.99999e-01
4.622487892e-01,2.56872e-04,9.99999e-01,9.99999e-01,2.56872e-04,9.99999e-01
4.645600332e-01,3.02436e-04,9.99999e-01,9.99999e-01,3.02436e-04,9.99999e-01
4.668828333e-01,3.54936e-04,9.99999e-01,9.99999e-01,3.54936e-04,9.99999e-01
4.692172475e-01,4.15234e-04,9.99999e-01,9.99999e-01,4.15234e-04,9.99999e-01
4.715633337e-01,4.84273e-04,9.99999e-01,9.99999e-01,4.84273e-04,9.99999e-01
4.739211504e-01,5.63077e-04,9.99999e-01,9.99999e-01,5.63077e-04,9.99999e-01
4.762907561e-01,6.52758e-04,9.99999e-01,9.99999e-01,6.52758e-04,9.99999e-01
4.786722099e-01,7.54517e-04,9.99999e-01,9.99999e-01,7.54517e-04,9.99999e-01
4.810655710e-01,8.69646e-04,9.99999e-01,9.99999e-01,8.69646e-04,9.99999e-01
4.834708988e-01,9.99535e-04,9.99999e-01,9.99999e-01,9.99535e-04,9.99999e-01
4.858882533e-01,1.14567e-03,9.99999e-01,9.99999e-01,1.14567e-03,9.99999e-01
4.883176946e-01,1.30964e-03,9.99999e-01,9.99999e-01,1.30964e-03,9.99999e-01
4.907592831e-01,1.49312e-03,9.99999e-01,9.99999e-01,1.49312e-03,9.99999e-01
4.932130795e-01,1.69790e-03,9.99999e-01,9.99999e-01,1.69790e-03,9.99999e-01
4.956791449e-01,1.92588e-03,9.99999e-01,9.99999e-01,1.92588e-03,9.99999e-01
4.981575406e-01,2.17903e-03,9.99999e-01,9.99999e-01,2.17903e-03,9.99999e-01
5.006483283e-01,2.45946e-03,9.99999e-01,9.99999e-01,2.45946e-03,9.99999e-01
5.031515699e-01,2.76935e-03,9.99999e-01,9.99999e-01,2.76935e-03,9.99999e-01
5.056673278e-01,3.11097e-03,9.99999e-01,9.99999e-01,3.11097e-03,9.99999e-01
5.081956644e-01,3.48673e-03,9.99999e-01,9.99999e-01,3.48673e-03,9.99999e-01
5.107366428e-01,3.89907e-03,9.99999e-01,9.99999e-01,3.89907e-03,9.99999e-01
5.132903260e-01,4.35057e-03,9.99999e-01,9.99999e-01,4.35057e-03,9.99999e-01
5.158567776e-01,4.84385e-03,9.99999e-01,9.99999e-01,4.84385e-03,9.99999e-01
5.184360615e-01,5.38163e-03,9.99999e-01,9.99999e-01,5.38163e-03,9.99999e-01
5.210282418e-01,5.96669e-03,9.99999e-01,9.99999e-01,5.96669e-03,9.99999e-01
5.236333830e-01,6.60189e-03,9.99999e-01,9.99999e-01,6.60189e-03,9.99999e-01
5.262515499e-01,7.29013e-03,9.99999e-01,9.99999e-01,7.29013e-03,9.99999e-01
5.288828077e-01,8.03437e-03,9.99999e-01,9.99999e-01,8.03437e-03,9.99999e-01
5.315272217e-01,8.83759e-03,9.99999e-01,9.99999e-01,8.83759e-03,9.99999e-01
5.341848578e-01,9.70284e-03,9.99999e-01,9.99999e-01,9.70284e-03,9.99999e-01
5.368557821e-01,1.06332e-02,9.99999e-01,9.99999e-01,1.06332e-02,9.99999e-01
5.395400610e-01,1.16316e-02,9.99999e-01,9.99999e-01,1.16316e-02,9.99999e-01
5.422377613e-01,1.27013e-02,9.99999e-01,9.99999e-01,1.27013e-02,9.99999e-01
5.449489501e-01,1.38453e-02,9.99999e-01,9.99999e-01,1.38453e-02,9.99999e-01
5.476736949e-01,1.50667e-02,9.99999e-01,9.99999e-01,1.50667e-02,9.99999e-01
5.504120634e-01,1.63684e-02,9.99999e-01,9.99999e-01,1.63684e-02,9.99999e-01
5.531641237e-01,1.77535e-02,9.99999e-01,9.99999e-01,1.77535e-02,9.99999e-01
5.559299443e-01,1.92249e-02,9.99999e-01,9.99999e-01,1.92249e-02,9.99999e-01
5.587095940e-01,2.07856e-02,9.99999e-01,9.99999e-01,2.07856e-02,9.99999e-01
5.615031420e-01,2.24383e-02,9.99999e-01,9.99999e-01,2.24383e-02,9.99999e-01
5.643106577e-01,2.41859e-02,9.99999e-01,9.99999e-01,2.41859e-02,9.99999e-01
5.671322110e-01,2.60310e-02,9.99999e-01,9.99999e-01,2.60310e-02,9.99999e-01
5.699678720e-01,2.79762e-02,9.99999e-01,9.99999e-01,2.79762e-02,9.99999e-01
5.728177114e-01,3.00240e-02,9.99999e-01,9.99999e-01,3.00240e-02,9.99999e-01
5.756818000e-01,3.21768e-02,9.99999e-01,9.99999e-01,3.21768e-02,9.99999e-01
5.785602090e-01,3.44368e-02,9.99999e-01,9.99999e-01,3.44368e-02,9.99999e-01
5.814530100e-01,3.68061e-02,9.99999e-01,9.99999e-01,3.68061e-02,9.99999e-01
5.843602750e-01,3.92868e-02,9.99999e-01,9.99999e-01,3.92868e-02,9.99999e-01
5.872820764e-01,4.18807e-02,9.99999e-01,9.99999e-01,4.18807e-02,9.99999e-01
5.902184868e-01,4.45895e-02,9.99999e-01,9.99999e-01,4.45895e-02,9.99999e-01
5.931695792e-01,4.74147e-02,9.99999e-01,9.99999e-01,4.74147e-02,9.99999e-01
5.961354271e-01,5.03579e-02,9.99999e-01,9.99999e-01,5.03579e-02,9.99999e-01
5.991161043e-01,5.34201e-02,9.99999e-01,9.99999e-01,5.34201e-02,9.99999e-01
6.021116848e-01,5.66025e-02,9.99999e-01,9.99999e-01,5.66025e-02,9.99999e-01
6.051222432e-01,5.99060e-02,9.99999e-01,9.99999e-01,5.99060e-02,9.99999e-01
6.081478544e-01,6.33313e-02,9.99999e-01,9.99999e-01,6.33313e-02,9.99999e-01
6.111885937e-01,6.68789e-02,9.99999e-01,9.99999e-01,6.68789e-02,9.99999e-01
6.142445367e-01,7.05493e-02,9.99999e-01,9.99999e-01,7.05493e-02,9.99999e-01
6.173157594e-01,7.43426e-02,9.99999e-01,9.99999e-01,7.43426e-02,9.99999e-01
6.204023382e-01,7.82589e-02,9.99999e-01,9.99999e-01,7.82589e-02,9.99999e-01
6.235043498e-01,8.22980e-02,9.99999e-01,9.99999e-01,8.22980e-02,9.99999e-01
6.266218716e-01,8.64595e-02,9.99999e-01,9.99999e-01,8.64595e-02,9.99999e-01
6.297549810e-01,9.07430e-02,9.99999e-01,9.99999e-01,9.07430e-02,9.99999e-01
6.329037559e-01,9.51479e-02,9.99999e-01,9.99999e-01,9.51479e-02,9.99999e-01
6.360682746e-01,9.96732e-02,9.99999e-01,9.99999e-01,9.96732e-02,9.99999e-01
6.392486160e-01,1.04318e-01,9.99999e-01,9.99999e-01,1.04318e-01,9.99999e-01
6.424448591e-01,1.09081e-01,9.99999e-01,9.99999e-01,1.09081e-01,9.99999e-01
6.456570834e-01,1.13961e-01,9.99999e-01,9.99999e-01,1.13961e-01,9.99999e-01
6.488853688e-01,1.18956e-01,9.99999e-01,9.99999e-01,1.18956e-01,9.99999e-01
6.521297956e-01,1.24065e-01,9.99999e-01,9.99999e-01,1.24065e-01,9.99999e-01
6.553904446e-01,1.29286e-01,9.99999e-01,9.99999e-01,1.29286e-01,9.99999e-01
6.586673968e-01,1.34618e-01,9.99999e-01,9.99999e-01,1.34618e-01,9.99999e-01
6.619607338e-01,1.40057e-01,9.99999e-01,9.99999e-01,1.40057e-01,9.99999e-01
6.652705375e-01,1.45602e-01,9.99999e-01,9.99999e-01,1.45602e-01,9.99999e-01
6.685968902e-01,1.51250e-01,9.99999e-01,9.99999e-01,1.51250e-01,9.99999e-01
6.719398746e-01,1.57000e-01,9.99999e-01,9.99999e-01,1.57000e-01,9.99999e-01
6.752995740e-01,1.62848e-01,9.99999e-01,9.99999e-01,1.62848e-01,9.99999e-01
6.786760719e-01,1.68792e-01,9.99999e-01,9.99999e-01,1.68792e-01,9.99999e-01
6.820694522e-01,1.74829e-01,9.99999e-01,9.99999e-01,1.74829e-01,9.99999e-01
6.854797995e-01,1.80956e-01,9.99999e-01,9.99999e-01,1.80956e-01,9.99999e-01
6.889071985e-01,1.87171e-01,9.99999e-01,9.99999e-01,1.87171e-01,9.99999e-01
6.923517345e-01,1.93470e-01,9.99999e-01,9.99999e-01,1.93470e-01,9.99999e-01
6.958134932e-01,1.99850e-01,9.99999e-01,9.99999e-01,1.99850e-01,9.99999e-01
6.992925606e-01,2.06309e-01,9.99999e-01,9.99999e-01,2.06309e-01,9.99999e-01
7.027890234e-01,2.12842e-01,9.99999e-01,9.99999e-01,2.12842e-01,9.99999e-01
7.063029686e-01,2.19447e-01,9.99999e-01,9.99999e-01,2.19447e-01,9.99999e-01
7.098344834e-01,2.26121e-01,9.99999e-01,9.99999e-01,2.26121e-01,9.99999e-01
7.133836558e-01,2.32859e-01,9.99999e-01,9.99999e-01,2.32859e-01,9.99999e-01
7.169505741e-01,2.39660e-01,9.99999e-01,9.99999e-01,2.39660e-01,9.99999e-01
7.205353270e-01,2.46519e-01,9.99999e-01,9.99999e-01,2.46519e-01,9.99999e-01
7.241380036e-01,2.53432e-01,9.99999e-01,9.99999e-01,2.53432e-01,9.99999e-01
7.277586936e-01,2.60398e-01,9.99999e-01,9.99999e-01,2.60398e-01,9.99999e-01
7.313974871e-01,2.67411e-01,9.99999e-01,9.99999e-01,2.67411e-01,9.99999e-01
7.350544745e-01,2.74470e-01,9.99999e-01,9.99999e-01,2.74470e-01,9.99999e-01
7.387297469e-01,2.81570e-01,9.99999e-01,9.99999e-01,2.81570e-01,9.99999e-01
7.424233956e-01,2.88707e-01,9.99999e-01,9.99999e-01,2.88707e-01,9.99999e-01
7.461355126e-01,2.95880e-01,9.99999e-01,9.99999e-01,2.95880e-01,9.99999e-01
7.498661902e-01,3.03083e-01,9.99999e-01,9.99999e-01,3.03083e-01,9.99999e-01
7.536155211e-01,3.10315e-01,9.99999e-01,9.99999e-01,3.10315e-01,9.99999e-01
7.573835987e-01,3.17571e-01,9.99999e-01,9.99999e-01,3.17571e-01,9.99999e-01
7.611705167e-01,3.24848e-01,9.99999e-01,9.99999e-01,3.24848e-01,9.99999e-01
7.649763693e-01,3.32143e-01,9.99999e-01,9.99999e-01,3.32143e-01,9.99999e-01
7.688012511e-01,3.39454e-01,9.99999e-01,9.99999e-01,3.39454e-01,9.99999e-01
7.726452574e-01,3.46776e-01,9.99999e-01,9.99999e-01,3.46776e-01,9.99999e-01
7.765084837e-01,3.54107e-01,9.99999e-01,9.99999e-01,3.54107e-01,9.99999e-01
7.803910261e-01,3.44599e-01,9.99999e-01,9.53396e-01,3.61443e-01,9.99999e-01
7.842929812e-01,2.99514e-01,9.99999e-01,8.12170e-01,3.68782e-01,9.99999e-01
7.882144461e-01,3.00847e-01,9.99999e-01,7.99868e-01,3.76120e-01,9.99999e-01
7.921555184e-01,3.36126e-01,9.99999e-01,8.76569e-01,3.83456e-01,9.99999e-01
7.961162960e-01,3.57911e-01,9.99999e-01,9.15876e-01,3.90785e-01,9.99999e-01
8.000968774e-01,3.79557e-01,9.99999e-01,9.53407e-01,3.98106e-01,9.99999e-01
8.040973618e-01,3.95546e-01,9.99999e-01,9.75656e-01,4.05414e-01,9.99999e-01
8.081178486e-01,4.08052e-01,9.99999e-01,9.88715e-01,4.12709e-01,9.99999e-01
8.121584379e-01,4.18529e-01,9.99999e-01,9.96528e-01,4.19987e-01,9.99999e-01
8.162192301e-01,4.26918e-01,9.99999e-01,9.99232e-01,4.27246e-01,9.99999e-01
8.203003262e-01,4.34479e-01,9.99999e-01,9.99988e-01,4.34483e-01,9.99999e-01
8.244018279e-01,4.41697e-01,9.99999e-01,9.99999e-01,4.41697e-01,9.99999e-01
8.285238370e-01,4.48884e-01,9.99999e-01,9.99999e-01,4.48884e-01,9.99999e-01
8.326664562e-01,4.56042e-01,9.99999e-01,9.99999e-01,4.56042e-01,9.99999e-01
8.368297885e-01,4.63170e-01,9.99999e-01,9.99999e-01,4.63170e-01,9.99999e-01
8.410139374e-01,4.70265e-01,9.99999e-01,9.99999e-01,4.70265e-01,9.99999e-01
8.452190071e-01,4.77326e-01,9.99999e-01,9.99999e-01,4.77326e-01,9.99999e-01
8.494451021e-01,4.84350e-01,9.99999e-01,9.99999e-01,4.84350e-01,9.99999e-01
8.536923276e-01,4.91335e-01,9.99999e-01,9.99999e-01,4.91335e-01,9.99999e-01
8.579607893e-01,4.98281e-01,9.99999e-01,9.99999e-01,4.98281e-01,9.99999e-01
8.622505932e-01,5.05184e-01,9.99999e-01,9.99999e-01,5.05184e-01,9.99999e-01
8.665618462e-01,4.64713e-01,9.99999e-01,9.07563e-01,5.12044e-01,9.99999e-01
8.708946554e-01,3.06555e-01,9.99999e-01,5.90825e-01,5.18859e-01,9.99999e-01
8.752491287e-01,3.43332e-01,9.99999e-01,6.53184e-01,5.25627e-01,9.99999e-01
8.796253743e-01,4.20754e-01,9.99999e-01,7.90374e-01,5.32347e-01,9.99999e-01
8.840235012e-01,4.76899e-01,9.99999e-01,8.84754e-01,5.39018e-01,9.99999e-01
8.884436187e-01,5.19995e-01,9.99999e-01,9.53001e-01,5.45638e-01,9.99999e-01
8.928858368e-01,5.41520e-01,9.99999e-01,9.80647e-01,5.52207e-01,9.99999e-01
8.973502660e-01,5.56089e-01,9.99999e-01,9.95286e-01,5.58722e-01,9.99999e-01
9.018370173e-01,5.64890e-01,9.99999e-01,9.99480e-01,5.65183e-01,9.99999e-01
9.063462024e-01,5.63839e-01,9.99999e-01,9.86439e-01,5.71589e-01,9.99999e-01
9.108779334e-01,5.60360e-01,9.99999e-01,9.69582e-01,5.77939e-01,9.99999e-01
9.154323231e-01,5.80046e-01,9.99999e-01,9.92834e-01,5.84232e-01,9.99999e-01
9.200094847e-01,5.32113e-01,9.99999e-01,9.01171e-01,5.90468e-01,9.99999e-01
9.246095321e-01,5.12945e-01,9.99999e-01,8.59716e-01,5.96644e-01,9.99999e-01
9.292325798e-01,5.35167e-01,9.99999e-01,8.87858e-01,6.02762e-01,9.99999e-01
9.338787427e-01,5.43011e-01,9.99999e-01,8.91907e-01,6.08819e-01,9.99999e-01
9.385481364e-01,5.65154e-01,9.99999e-01,9.19224e-01,6.14816e-01,9.99999e-01
9.432408771e-01,5.89589e-01,9.99999e-01,9.49797e-01,6.20752e-01,9.99999e-01
9.479570815e-01,6.10258e-01,9.99999e-01,9.73878e-01,6.26626e-01,9.99999e-01
9.526968669e-01,6.24434e-01,9.99999e-01,9.87343e-01,6.32438e-01,9.99999e-01
9.574603512e-01,6.34724e-01,9.99999e-01,9.94571e-01,6.38188e-01,9.99999e-01
9.622476530e-01,6.42783e-01,9.99999e-01,9.98305e-01,6.43874e-01,9.99999e-01
9.670588912e-01,6.49169e-01,9.99999e-01,9.99492e-01,6.49498e-01,9.99999e-01
9.718941857e-01,6.55035e-01,9.99999e-01,9.99964e-01,6.55058e-01,9.99999e-01
9.767536566e-01,6.60555e-01,9.99999e-01,9.99999e-01,6.60555e-01,9.99999e-01
9.816374249e-01,6.65987e-01,9.99999e-01,9.99999e-01,6.65987e-01,9.99999e-01
9.865456120e-01,6.71356e-01,9.99999e-01,9.99999e-01,6.71356e-01,9.99999e-01
9.914783401e-01,6.76661e-01,9.99999e-01,9.99999e-01,6.76661e-01,9.99999e-01
9.964357318e-01,6.81901e-01,9.99999e-01,9.99999e-01,6.81901e-01,9.99999e-01
1.001417910e+00,6.87078e-01,9.99999e-01,9.99999e-01,6.87078e-01,9.99999e-01
1.006425000e+00,6.92190e-01,9.99999e-01,9.99999e-01,6.92190e-01,9.99999e-01
1.011457125e+00,6.97239e-01,9.99999e-01,9.99999e-01,6.97239e-01,9.99999e-01
1.016514411e+00,7.02223e-01,9.99999e-01,9.99999e-01,7.02223e-01,9.99999e-01
1.021596983e+00,7.07087e-01,9.99999e-01,9.99920e-01,7.07144e-01,9.99999e-01
1.026704968e+00,7.08202e-01,9.99999e-01,9.94664e-01,7.12000e-01,9.99999e-01
1.031838492e+00,6.74937e-01,9.99999e-01,9.41605e-01,7.16793e-01,9.99999e-01
1.036997685e+00,7.99464e-02,9.99999e-01,1.10802e-01,7.21523e-01,9.99999e-01
1.042182673e+00,4.13137e-02,9.99999e-01,5.68910e-02,7.26190e-01,9.99999e-01
1.047393587e+00,5.84745e-02,9.99999e-01,8.00149e-02,7.30794e-01,9.99999e-01
1.052630555e+00,5.13013e-04,9.99999e-01,6.97658e-04,7.35335e-01,9.99999e-01
1.057893707e+00,1.56615e-03,9.99999e-01,2.11694e-03,7.39814e-01,9.99999e-01
1.063183176e+00,7.66607e-03,9.99999e-01,1.03007e-02,7.44231e-01,9.99999e-01
1.068499092e+00,2.87929e-02,9.99999e-01,3.84630e-02,7.48586e-01,9.99999e-01
1.073841587e+00,9.57540e-02,9.99999e-01,1.27183e-01,7.52880e-01,9.99999e-01
1.079210795e+00,2.05114e-01,9.99999e-01,2.70916e-01,7.57113e-01,9.99999e-01
1.084606849e+00,3.69521e-01,9.99999e-01,4.85390e-01,7.61286e-01,9.99999e-01
1.090029883e+00,5.25359e-01,9.99999e-01,6.86386e-01,7.65398e-01,9.99999e-01
1.095480033e+00,6.39268e-01,9.99999e-01,8.30811e-01,7.69451e-01,9.99999e-01
1.100957433e+00,7.07286e-01,9.99999e-01,9.14462e-01,7.73444e-01,9.99999e-01
1.106462220e+00,7.49184e-01,9.99999e-01,9.63730e-01,7.77379e-01,9.99999e-01
1.111994531e+00,7.70629e-01,9.99999e-01,9.86397e-01,7.81255e-01,9.99999e-01
1.117554504e+00,7.82465e-01,9.99999e-01,9.96675e-01,7.85074e-01,9.99999e-01
1.123142276e+00,7.88664e-01,9.99999e-01,9.99782e-01,7.88835e-01,9.99999e-01
1.128757988e+00,7.92540e-01,9.99999e-01,9.99999e-01,7.92540e-01,9.99999e-01
1.134401778e+00,7.96188e-01,9.99999e-01,9.99999e-01,7.96188e-01,9.99999e-01
1.140073787e+00,7.99781e-01,9.99999e-01,9.99999e-01,7.99781e-01,9.99999e-01
1.145774156e+00,8.03318e-01,9.99999e-01,9.99999e-01,8.03318e-01,9.99999e-01
1.151503026e+00,8.06801e-01,9.99999e-01,9.99999e-01,8.06801e-01,9.99999e-01
1.157260541e+00,8.10229e-01,9.99999e-01,9.99999e-01,8.10229e-01,9.99999e-01
1.163046844e+00,8.13604e-01,9.99999e-01,9.99999e-01,8.13604e-01,9.99999e-01
1.168862078e+00,8.16926e-01,9.99999e-01,9.99999e-01,8.16926e-01,9.99999e-01
1.174706389e+00,8.20195e-01,9.99999e-01,9.99999e-01,8.20195e-01,9.99999e-01
1.180579921e+00,8.23413e-01,9.99999e-01,9.99999e-01,8.23413e-01,9.99999e-01
1.186482820e+00,8.26569e-01,9.99999e-01,9.99987e-01,8.26579e-01,9.99999e-01
1.192415234e+00,8.14048e-01,9.99999e-01,9.81141e-01,8.29694e-01,9.99999e-01
1.198377311e+00,4.58998e-01,9.99999e-01,5.51177e-01,8.32760e-01,9.99999e-01
1.204369197e+00,8.11299e-15,9.99999e-01,9.70714e-15,8.35775e-01,9.99999e-01
1.210391043e+00,3.05138e-56,9.99999e-01,3.63804e-56,8.38742e-01,9.99999e-01
1.216442998e+00,7.79809e-49,9.99999e-01,9.26511e-49,8.41661e-01,9.99999e-01
1.222525213e+00,4.04157e-48,9.99999e-01,4.78558e-48,8.44531e-01,9.99999e-01
1.228637839e+00,2.89575e-37,9.99999e-01,3.41740e-37,8.47355e-01,9.99999e-01
1.234781029e+00,9.83504e-24,9.99999e-01,1.15688e-23,8.50132e-01,9.99999e-01
1.240954934e+00,6.13965e-16,9.99999e-01,7.19887e-16,8.52862e-01,9.99999e-01
1.247159708e+00,2.03579e-08,9.99999e-01,2.37952e-08,8.55548e-01,9.99999e-01
1.253395507e+00,1.49641e-05,9.99999e-01,1.74368e-05,8.58188e-01,9.99999e-01
1.259662485e+00,1.59794e-03,9.99999e-01,1.85638e-03,8.60785e-01,9.99999e-01
1.265960797e+00,2.36059e-02,9.99999e-01,2.73426e-02,8.63337e-01,9.99999e-01
1.272290601e+00,1.81298e-01,9.99999e-01,2.09388e-01,8.65847e-01,9.99999e-01
1.278652054e+00,1.52854e-01,9.99999e-01,1.76035e-01,8.68314e-01,9.99999e-01
1.285045314e+00,1.62221e-03,9.99999e-01,1.86303e-03,8.70739e-01,9.99999e-01
1.291470541e+00,3.22693e-07,9.99999e-01,3.69585e-07,8.73123e-01,9.99999e-01
1.297927893e+00,2.40884e-03,9.99999e-01,2.75150e-03,8.75466e-01,9.99999e-01
1.304417533e+00,5.02841e-02,9.99999e-01,5.72862e-02,8.77769e-01,9.99999e-01
1.310939621e+00,8.12028e-03,9.99999e-01,9.22724e-03,8.80032e-01,9.99999e-01
1.317494319e+00,7.08675e-20,9.99999e-01,8.03253e-20,8.82256e-01,9.99999e-01
1.324081790e+00,2.31839e-13,9.99999e-01,2.62130e-13,8.84442e-01,9.99999e-01
1.330702199e+00,6.42189e-08,9.99999e-01,7.24335e-08,8.86590e-01,9.99999e-01
1.337355710e+00,1.44938e-07,9.99999e-01,1.63090e-07,8.88701e-01,9.99999e-01
1.344042489e+00,4.91549e-08,9.99999e-01,5.51822e-08,8.90774e-01,9.99999e-01
1.350762701e+00,3.75825e-08,9.99999e-01,4.20945e-08,8.92812e-01,9.99999e-01
1.357516515e+00,2.13732e-05,9.99999e-01,2.38856e-05,8.94813e-01,9.99999e-01
1.364304097e+00,7.08187e-04,9.99999e-01,7.89699e-04,8.96780e-01,9.99999e-01
1.371125618e+00,2.24528e-02,9.99999e-01,2.49833e-02,8.98712e-01,9.99999e-01
1.377981246e+00,4.12365e-02,9.99999e-01,4.57873e-02,9.00609e-01,9.99999e-01
1.384871152e+00,1.50081e-01,9.99999e-01,1.66300e-01,9.02474e-01,9.99999e-01
1.391795508e+00,1.72504e-01,9.99999e-01,1.90759e-01,9.04305e-01,9.99999e-01
1.398754485e+00,3.24333e-01,9.99999e-01,3.57943e-01,9.06103e-01,9.99999e-01
1.405748258e+00,4.27271e-01,9.99999e-01,4.70629e-01,9.07870e-01,9.99999e-01
1.412776999e+00,5.64629e-01,9.99999e-01,6.20740e-01,9.09605e-01,9.99999e-01
1.419840884e+00,5.02743e-01,9.99999e-01,5.51671e-01,9.11308e-01,9.99999e-01
1.426940089e+00,3.56132e-02,9.99999e-01,3.90075e-02,9.12982e-01,9.99999e-01
1.434074789e+00,0.00000e+00,9.99999e-01,0.00000e+00,9.14625e-01,9.99999e-01
1.441245163e+00,0.00000e+00,9.99999e-01,0.00000e+00,9.16239e-01,9.99999e-01
1.448451389e+00,0.00000e+00,9.99999e-01,0.00000e+00,9.17823e-01,9.99999e-01
1.455693646e+00,0.00000e+00,9.99999e-01,0.00000e+00,9.19379e-01,9.99999e-01
1.462972114e+00,2.20154e-221,9.99999e-01,2.39061e-221,9.20907e-01,9.99999e-01
1.470286975e+00,2.03366e-92,9.99999e-01,2.20473e-92,9.22407e-01,9.99999e-01
