#,Wave/freq,Total,N2,CO2,Rayleigh,CIA
4.000000000e-01,8.92146e-14,9.99999e-01,9.99999e-01,8.92146e-14,9.99999e-01
4.020000000e-01,1.61609e-13,9.99999e-01,9.99999e-01,1.61609e-13,9.99999e-01
4.040100000e-01,2.89154e-13,9.99999e-01,9.99999e-01,2.89154e-13,9.99999e-01
4.060300500e-01,5.11450e-13,9.99999e-01,9.99999e-01,5.11450e-13,9.99999e-01
4.080602003e-01,8.94509e-13,9.99999e-01,9.99999e-01,8.94509e-13,9.99999e-01
4.101005013e-01,1.54729e-12,9.99999e-01,9.99999e-01,1.54729e-12,9.99999e-01
4.121510038e-01,2.64762e-12,9.99999e-01,9.99999e-01,2.64762e-12,9.99999e-01
4.142117588e-01,4.48263e-12,9.99999e-01,9.99999e-01,4.48263e-12,9.99999e-01
4.162828176e-01,7.51093e-12,9.99999e-01,9.99999e-01,7.51093e-12,9.99999e-01
4.183642317e-01,1.24574e-11,9.99999e-01,9.99999e-01,1.24574e-11,9.99999e-01
4.204560528e-01,2.04559e-11,9.99999e-01,9.99999e-01,2.04559e-11,9.99999e-01
4.225583331e-01,3.32626e-11,9.99999e-01,9.99999e-01,3.32626e-11,9.99999e-01
4.246711247e-01,5.35703e-11,9.99999e-01,9.99999e-01,5.35703e-11,9.99999e-01
4.267944804e-01,8.54679e-11,9.99999e-01,9.99999e-01,8.54679e-11,9.99999e-01
4.289284528e-01,1.35106e-10,9.99999e-01,9.99999e-01,1.35106e-10,9.99999e-01
4.310730950e-01,2.11650e-10,9.99999e-01,9.99999e-01,2.11650e-10,9.99999e-01
4.332284605e-01,3.28633e-10,9.99999e-01,9.99999e-01,3.28633e-10,9.99999e-01
4.353946028e-01,5.05859e-10,9.99999e-01,9.99999e-01,5.05859e-10,9.99999e-01
4.375715758e-01,7.72055e-10,9.99999e-01,9.99999e-01,7.72055e-10,9.99999e-01
4.397594337e-01,1.16853e-09,9.99999e-01,9.99999e-01,1.16853e-09,9.99999e-01
4.419582309e-01,1.75419e-09,9.99999e-01,9.99999e-01,1.75419e-09,9.99999e-01
4.441680220e-01,2.61233e-09,9.99999e-01,9.99999e-01,2.61233e-09,9.99999e-01
4.463888621e-01,3.85978e-09,9.99999e-01,9.99999e-01,3.85978e-09,9.99999e-01
4.486208064e-01,5.65911e-09,9.99999e-01,9.99999e-01,5.65911e-09,9.99999e-01
4.508639105e-01,8.23478e-09,9.99999e-01,9.99999e-01,8.23478e-09,9.99999e-01
4.531182300e-01,1.18943e-08,9.99999e-01,9.99999e-01,1.18943e-08,9.99999e-01
4.553838212e-01,1.70557e-08,9.99999e-01,9.99999e-01,1.70557e-08,9.99999e-01
4.576607403e-01,2.42834e-08,9.99999e-01,9.99999e-01,2.42834e-08,9.99999e-01
4.599490440e-01,3.43335e-08,9.99999e-01,9.99999e-01,3.43335e-08,9.99999e-01
4.622487892e-01,4.82122e-08,9.99999e-01,9.99999e-01,4.82122e-08,9.99999e-01
4.645600332e-01,6.72485e-08,9.99999e-01,9.99999e-01,6.72485e-08,9.99999e-01
4.668828333e-01,9.31866e-08,9.99999e-01,9.99999e-01,9.31866e-08,9.99999e-01
4.692172475e-01,1.28300e-07,9.99999e-01,9.99999e-01,1.28300e-07,9.99999e-01
4.715633337e-01,1.75532e-07,9.99999e-01,9.99999e-01,1.75532e-07,9.99999e-01
4.739211504e-01,2.38669e-07,9.99999e-01,9.99999e-01,2.38669e-07,9.99999e-01
4.762907561e-01,3.22553e-07,9.99999e-01,9.99999e-01,3.22553e-07,9.99999e-01
4.786722099e-01,4.33334e-07,9.99999e-01,9.99999e-01,4.33334e-07,9.99999e-01
4.810655710e-01,5.78777e-07,9.99999e-01,9.99999e-01,5.78777e-07,9.99999e-01
4.834708988e-01,7.68629e-07,9.99999e-01,9.99999e-01,7.68629e-07,9.99999e-01
4.858882533e-01,1.01505e-06,9.99999e-01,9.99999e-01,1.01505e-06,9.99999e-01
4.883176946e-01,1.33314e-06,9.99999e-01,9.99999e-01,1.33314e-06,9.99999e-01
4.907592831e-01,1.74150e-06,9.99999e-01,9.99999e-01,1.74150e-06,9.99999e-01
4.932130795e-01,2.26298e-06,9.99999e-01,9.99999e-01,2.26298e-06,9.99999e-01
4.956791449e-01,2.92543e-06,9.99999e-01,9.99999e-01,2.92543e-06,9.99999e-01
4.981575406e-01,3.76267e-06,9.99999e-01,9.99999e-01,3.76267e-06,9.99999e-01
5.006483283e-01,4.81552e-06,9.99999e-01,9.99999e-01,4.81552e-06,9.99999e-01
5.031515699e-01,6.13301e-06,9.99999e-01,9.99999e-01,6.13301e-06,9.99999e-01
5.056673278e-01,7.77375e-06,9.99999e-01,9.99999e-01,7.77375e-06,9.99999e-01
5.081956644e-01,9.80738e-06,9.99999e-01,9.99999e-01,9.80738e-06,9.99999e-01
5.107366428e-01,1.23164e-05,9.99999e-01,9.99999e-01,1.23164e-05,9.99999e-01
5.132903260e-01,1.53978e-05,9.99999e-01,9.99999e-01,1.53978e-05,9.99999e-01
5.158567776e-01,1.91654e-05,9.99999e-01,9.99999e-01,1.91654e-05,9.99999e-01
5.184360615e-01,2.37519e-05,9.99999e-01,9.99999e-01,2.37519e-05,9.99999e-01
5.210282418e-01,2.93117e-05,9.99999e-01,9.99999e-01,2.93117e-05,9.99999e-01
5.236333830e-01,3.60228e-05,9.99999e-01,9.99999e-01,3.60228e-05,9.99999e-01
5.262515499e-01,4.40906e-05,9.99999e-01,9.99999e-01,4.40906e-05,9.99999e-01
5.288828077e-01,5.37503e-05,9.99999e-01,9.99999e-01,5.37503e-05,9.99999e-01
5.315272217e-01,6.52705e-05,9.99999e-01,9.99999e-01,6.52705e-05,9.99999e-01
5.341848578e-01,7.89562e-05,9.99999e-01,9.99999e-01,7.89562e-05,9.99999e-01
5.368557821e-01,9.51531e-05,9.99999e-01,9.99999e-01,9.51531e-05,9.99999e-01
5.395400610e-01,1.14251e-04,9.99999e-01,9.99999e-01,1.14251e-04,9.99999e-01
5.422377613e-01,1.36687e-04,9.99999e-01,9.99999e-01,1.36687e-04,9.99999e-01
5.449489501e-01,1.62950e-04,9.99999e-01,9.99999e-01,1.62950e-04,9.99999e-01
5.476736949e-01,1.93587e-04,9.99999e-01,9.99999e-01,1.93587e-04,9.99999e-01
5.504120634e-01,2.29203e-04,9.99999e-01,9.99999e-01,2.29203e-04,9.99999e-01
5.531641237e-01,2.70467e-04,9.99999e-01,9.99999e-01,2.70467e-04,9.99999e-01
5.559299443e-01,3.18119e-04,9.99999e-01,9.99999e-01,3.18119e-04,9.99999e-01
5.587095940e-01,3.72968e-04,9.99999e-01,9.99999e-01,3.72968e-04,9.99999e-01
5.615031420e-01,4.35903e-04,9.99999e-01,9.99999e-01,4.35903e-04,9.99999e-01
5.643106577e-01,5.07890e-04,9.99999e-01,9.99999e-01,5.07890e-04,9.99999e-01
5.671322110e-01,5.89983e-04,9.99999e-01,9.99999e-01,5.89983e-04,9.99999e-01
5.699678720e-01,6.83318e-04,9.99999e-01,9.99999e-01,6.83318e-04,9.99999e-01
5.728177114e-01,7.89128e-04,9.99999e-01,9.99999e-01,7.89128e-04,9.99999e-01
5.756818000e-01,9.08733e-04,9.99999e-01,9.99999e-01,9.08733e-04,9.99999e-01
5.785602090e-01,1.04355e-03,9.99999e-01,9.99999e-01,1.04355e-03,9.99999e-01
5.814530100e-01,1.19511e-03,9.99999e-01,9.99999e-01,1.19511e-03,9.99999e-01
5.843602750e-01,1.36501e-03,9.99999e-01,9.99999e-01,1.36501e-03,9.99999e-01
5.872820764e-01,1.55497e-03,9.99999e-01,9.99999e-01,1.55497e-03,9.99999e-01
5.902184868e-01,1.76682e-03,9.99999e-01,9.99999e-01,1.76682e-03,9.99999e-01
5.931695792e-01,2.00248e-03,9.99999e-01,9.99999e-01,2.00248e-03,9.99999e-01
5.961354271e-01,2.26396e-03,9.99999e-01,9.99999e-01,2.26396e-03,9.99999e-01
5.991161043e-01,2.55339e-03,9.99999e-01,9.99999e-01,2.55339e-03,9.99999e-01
6.021116848e-01,2.87298e-03,9.99999e-01,9.99999e-01,2.87298e-03,9.99999e-01
6.051222432e-01,3.22505e-03,9.99999e-01,9.99999e-01,3.22505e-03,9.99999e-01
6.081478544e-01,3.61201e-03,9.99999e-01,9.99999e-01,3.61201e-03,9.99999e-01
6.111885937e-01,4.03636e-03,9.99999e-01,9.99999e-01,4.03636e-03,9.99999e-01
6.142445367e-01,4.50067e-03,9.99999e-01,9.99999e-01,4.50067e-03,9.99999e-01
6.173157594e-01,5.00762e-03,9.99999e-01,9.99999e-01,5.00762e-03,9.99999e-01
6.204023382e-01,5.55993e-03,9.99999e-01,9.99999e-01,5.55993e-03,9.99999e-01
6.235043498e-01,6.16041e-03,9.99999e-01,9.99999e-01,6.16041e-03,9.99999e-01
6.266218716e-01,6.81193e-03,9.99999e-01,9.99999e-01,6.81193e-03,9.99999e-01
6.297549810e-01,7.51741e-03,9.99999e-01,9.99999e-01,7.51741e-03,9.99999e-01
6.329037559e-01,8.27983e-03,9.99999e-01,9.99999e-01,8.27983e-03,9.99999e-01
6.360682746e-01,9.10218e-03,9.99999e-01,9.99999e-01,9.10218e-03,9.99999e-01
6.392486160e-01,9.98752e-03,9.99999e-01,9.99999e-01,9.98752e-03,9.99999e-01
6.424448591e-01,1.09389e-02,9.99999e-01,9.99999e-01,1.09389e-02,9.99999e-01
6.456570834e-01,1.19594e-02,9.99999e-01,9.99999e-01,1.19594e-02,9.99999e-01
6.488853688e-01,1.30520e-02,9.99999e-01,9.99999e-01,1.30520e-02,9.99999e-01
6.521297956e-01,1.42200e-02,9.99999e-01,9.99999e-01,1.42200e-02,9.99999e-01
6.553904446e-01,1.54662e-02,9.99999e-01,9.99999e-01,1.54662e-02,9.99999e-01
6.586673968e-01,1.67937e-02,9.99999e-01,9.99999e-01,1.67937e-02,9.99999e-01
6.619607338e-01,1.82056e-02,9.99999e-01,9.99999e-01,1.82056e-02,9.99999e-01
6.652705375e-01,1.97047e-02,9.99999e-01,9.99999e-01,1.97047e-02,9.99999e-01
6.685968902e-01,2.12940e-02,9.99999e-01,9.99999e-01,2.12940e-02,9.99999e-01
6.719398746e-01,2.29762e-02,9.99999e-01,9.99999e-01,2.29762e-02,9.99999e-01
6.752995740e-01,2.47541e-02,9.99999e-01,9.99999e-01,2.47541e-02,9.99999e-01
6.786760719e-01,2.66303e-02,9.99999e-01,9.99999e-01,2.66303e-02,9.99999e-01
6.820694522e-01,2.86074e-02,9.99999e-01,9.99999e-01,2.86074e-02,9.99999e-01
6.854797995e-01,3.06879e-02,9.99999e-01,9.99999e-01,3.06879e-02,9.99999e-01
6.889071985e-01,3.28741e-02,9.99999e-01,9.99999e-01,3.28741e-02,9.99999e-01
6.923517345e-01,3.51681e-02,9.99999e-01,9.99999e-01,3.51681e-02,9.99999e-01
6.958134932e-01,3.75722e-02,9.99999e-01,9.99999e-01,3.75722e-02,9.99999e-01
6.992925606e-01,4.00882e-02,9.99999e-01,9.99999e-01,4.00882e-02,9.99999e-01
7.027890234e-01,4.27179e-02,9.99999e-01,9.99999e-01,4.27179e-02,9.99999e-01
7.063029686e-01,4.54631e-02,9.99999e-01,9.99999e-01,4.54631e-02,9.99999e-01
7.098344834e-01,4.83252e-02,9.99999e-01,9.99999e-01,4.83252e-02,9.99999e-01
7.133836558e-01,5.13055e-02,9.99999e-01,9.99999e-01,5.13055e-02,9.99999e-01
7.169505741e-01,5.44054e-02,9.99999e-01,9.99999e-01,5.44054e-02,9.99999e-01
7.205353270e-01,5.76257e-02,9.99999e-01,9.99999e-01,5.76257e-02,9.99999e-01
7.241380036e-01,6.09673e-02,9.99999e-01,9.99999e-01,6.09673e-02,9.99999e-01
7.277586936e-01,6.44309e-02,9.99999e-01,9.99999e-01,6.44309e-02,9.99999e-01
7.313974871e-01,6.80170e-02,9.99999e-01,9.99999e-01,6.80170e-02,9.99999e-01
7.350544745e-01,7.17259e-02,9.99999e-01,9.99999e-01,7.17259e-02,9.99999e-01
7.387297469e-01,7.55578e-02,9.99999e-01,9.99999e-01,7.55578e-02,9.99999e-01
7.424233956e-01,7.95126e-02,9.99999e-01,9.99999e-01,7.95126e-02,9.99999e-01
7.461355126e-01,8.35902e-02,9.99999e-01,9.99999e-01,8.35902e-02,9.99999e-01
7.498661902e-01,8.77901e-02,9.99999e-01,9.99999e-01,8.77901e-02,9.99999e-01
7.536155211e-01,9.21117e-02,9.99999e-01,9.99999e-01,9.21117e-02,9.99999e-01
7.573835987e-01,9.65544e-02,9.99999e-01,9.99999e-01,9.65544e-02,9.99999e-01
7.611705167e-01,1.01117e-01,9.99999e-01,9.99999e-01,1.01117e-01,9.99999e-01
7.649763693e-01,1.05799e-01,9.99999e-01,9.99999e-01,1.05799e-01,9.99999e-01
7.688012511e-01,1.10599e-01,9.99999e-01,9.99999e-01,1.10599e-01,9.99999e-01
7.726452574e-01,1.15515e-01,9.99999e-01,9.99999e-01,1.15515e-01,9.99999e-01
7.765084837e-01,1.20547e-01,9.99999e-01,9.99999e-01,1.20547e-01,9.99999e-01
7.803910261e-01,1.15689e-01,9.99999e-01,9.20423e-01,1.25691e-01,9.99999e-01
7.842929812e-01,8.68562e-02,9.99999e-01,6.63292e-01,1.30947e-01,9.99999e-01
7.882144461e-01,8.84031e-02,9.99999e-01,6.48533e-01,1.36312e-01,9.99999e-01
7.921555184e-01,1.08810e-01,9.99999e-01,7.67429e-01,1.41785e-01,9.99999e-01
7.961162960e-01,1.23149e-01,9.99999e-01,8.35684e-01,1.47363e-01,9.99999e-01
8.000968774e-01,1.38843e-01,9.99999e-01,9.07213e-01,1.53043e-01,9.99999e-01
8.040973618e-01,1.50986e-01,9.99999e-01,9.50649e-01,1.58824e-01,9.99999e-01
8.081178486e-01,1.60924e-01,9.99999e-01,9.77056e-01,1.64702e-01,9.99999e-01
8.121584379e-01,1.69453e-01,9.99999e-01,9.92833e-01,1.70676e-01,9.99999e-01
8.162192301e-01,1.76461e-01,9.99999e-01,9.98412e-01,1.76741e-01,9.99999e-01
8.203003262e-01,1.82892e-01,9.99999e-01,9.99974e-01,1.82896e-01,9.99999e-01
8.244018279e-01,1.89138e-01,9.99999e-01,9.99999e-01,1.89138e-01,9.99999e-01
8.285238370e-01,1.95463e-01,9.99999e-01,9.99999e-01,1.95463e-01,9.99999e-01
8.326664562e-01,2.01868e-01,9.99999e-01,9.99999e-01,2.01868e-01,9.99999e-01
8.368297885e-01,2.08350e-01,9.99999e-01,9.99999e-01,2.08350e-01,9.99999e-01
8.410139374e-01,2.14906e-01,9.99999e-01,9.99999e-01,2.14906e-01,9.99999e-01
8.452190071e-01,2.21533e-01,9.99999e-01,9.99999e-01,2.21533e-01,9.99999e-01
8.494451021e-01,2.28228e-01,9.99999e-01,9.99999e-01,2.28228e-01,9.99999e-01
8.536923276e-01,2.34986e-01,9.99999e-01,9.99999e-01,2.34986e-01,9.99999e-01
8.579607893e-01,2.41805e-01,9.99999e-01,9.99999e-01,2.41805e-01,9.99999e-01
8.622505932e-01,2.48682e-01,9.99999e-01,9.99999e-01,2.48682e-01,9.99999e-01
8.665618462e-01,2.23778e-01,9.99999e-01,8.75460e-01,2.55612e-01,9.99999e-01
8.708946554e-01,9.56788e-02,9.99999e-01,3.64361e-01,2.62593e-01,9.99999e-01
8.752491287e-01,1.16400e-01,9.99999e-01,4.31718e-01,2.69621e-01,9.99999e-01
8.796253743e-01,1.72514e-01,9.99999e-01,6.23484e-01,2.76693e-01,9.99999e-01
8.840235012e-01,2.21257e-01,9.99999e-01,7.79609e-01,2.83805e-01,9.99999e-01
8.884436187e-01,2.63567e-01,9.99999e-01,9.05873e-01,2.90953e-01,9.99999e-01
8.928858368e-01,2.86420e-01,9.99999e-01,9.60700e-01,2.98136e-01,9.99999e-01
8.973502660e-01,3.02382e-01,9.99999e-01,9.90283e-01,3.05349e-01,9.99999e-01
9.018370173e-01,3.12252e-01,9.99999e-01,9.98923e-01,3.12588e-01,9.99999e-01
9.063462024e-01,3.11379e-01,9.99999e-01,9.73510e-01,3.19851e-01,9.99999e-01
9.108779334e-01,3.07127e-01,9.99999e-01,9.38838e-01,3.27135e-01,9.99999e-01
9.154323231e-01,3.29497e-01,9.99999e-01,9.85233e-01,3.34435e-01,9.99999e-01
9.200094847e-01,2.82577e-01,9.99999e-01,8.26854e-01,3.41750e-01,9.99999e-01
9.246095321e-01,2.56778e-01,9.99999e-01,7.35595e-01,3.49075e-01,9.99999e-01
9.292325798e-01,2.81502e-01,9.99999e-01,7.89831e-01,3.56407e-01,9.99999e-01
9.338787427e-01,2.88627e-01,9.99999e-01,7.93487e-01,3.63745e-01,9.99999e-01
9.385481364e-01,3.12692e-01,9.99999e-01,8.42645e-01,3.71084e-01,9.99999e-01
9.432408771e-01,3.40548e-01,9.99999e-01,8.99916e-01,3.78422e-01,9.99999e-01
9.479570815e-01,3.65444e-01,9.99999e-01,9.47346e-01,3.85756e-01,9.99999e-01
9.526968669e-01,3.82965e-01,9.99999e-01,9.74259e-01,3.93082e-01,9.99999e-01
9.574603512e-01,3.95955e-01,9.99999e-01,9.88899e-01,4.00400e-01,9.99999e-01
9.622476530e-01,4.06287e-01,9.99999e-01,9.96522e-01,4.07704e-01,9.99999e-01
9.670588912e-01,4.14561e-01,9.99999e-01,9.98956e-01,4.14994e-01,9.99999e-01
9.718941857e-01,4.22235e-01,9.99999e-01,9.99925e-01,4.22266e-01,9.99999e-01
9.767536566e-01,4.29519e-01,9.99999e-01,9.99999e-01,4.29519e-01,9.99999e-01
9.816374249e-01,4.36749e-01,9.99999e-01,9.99999e-01,4.36749e-01,9.99999e-01
9.865456120e-01,4.43954e-01,9.99999e-01,9.99999e-01,4.43954e-01,9.99999e-01
9.914783401e-01,4.51132e-01,9.99999e-01,9.99999e-01,4.51132e-01,9.99999e-01
9.964357318e-01,4.58281e-01,9.99999e-01,9.99999e-01,4.58281e-01,9.99999e-01
1.001417910e+00,4.65399e-01,9.99999e-01,9.99999e-01,4.65399e-01,9.99999e-01
1.006425000e+00,4.72484e-01,9.99999e-01,9.99999e-01,4.72484e-01,9.99999e-01
1.011457125e+00,4.79533e-01,9.99999e-01,9.99999e-01,4.79533e-01,9.99999e-01
1.016514411e+00,4.86545e-01,9.99999e-01,9.99999e-01,4.86545e-01,9.99999e-01
1.021596983e+00,4.93450e-01,9.99999e-01,9.99861e-01,4.93518e-01,9.99999e-01
1.026704968e+00,4.95191e-01,9.99999e-01,9.89488e-01,5.00451e-01,9.99999e-01
1.031838492e+00,4.63051e-01,9.99999e-01,9.12702e-01,5.07341e-01,9.99999e-01
1.036997685e+00,2.93007e-02,9.99999e-01,5.69845e-02,5.14187e-01,9.99999e-01
1.042182673e+00,2.69832e-03,9.99999e-01,5.17923e-03,5.20987e-01,9.99999e-01
1.047393587e+00,6.65227e-03,9.99999e-01,1.26052e-02,5.27740e-01,9.99999e-01
1.052630555e+00,1.50865e-06,9.99999e-01,2.82283e-06,5.34445e-01,9.99999e-01
1.057893707e+00,5.60143e-06,9.99999e-01,1.03519e-05,5.41100e-01,9.99999e-01
1.063183176e+00,1.09505e-04,9.99999e-01,1.99934e-04,5.47704e-01,9.99999e-01
1.068499092e+00,9.62332e-04,9.99999e-01,1.73626e-03,5.54256e-01,9.99999e-01
1.073841587e+00,9.40740e-03,9.99999e-01,1.67763e-02,5.60754e-01,9.99999e-01
1.079210795e+00,4.33857e-02,9.99999e-01,7.64911e-02,5.67199e-01,9.99999e-01
1.084606849e+00,1.33773e-01,9.99999e-01,2.33222e-01,5.73587e-01,9.99999e-01
1.090029883e+00,2.70717e-01,9.99999e-01,4.66818e-01,5.79919e-01,9.99999e-01
1.095480033e+00,4.02108e-01,9.99999e-01,6.85963e-01,5.86195e-01,9.99999e-01
1.100957433e+00,4.93611e-01,9.99999e-01,8.33222e-01,5.92412e-01,9.99999e-01
1.106462220e+00,5.54985e-01,9.99999e-01,9.27185e-01,5.98570e-01,9.99999e-01
1.111994531e+00,5.87942e-01,9.99999e-01,9.72336e-01,6.04668e-01,9.99999e-01
1.117554504e+00,6.06532e-01,9.99999e-01,9.93163e-01,6.10707e-01,9.99999e-01
1.123142276e+00,6.16407e-01,9.99999e-01,9.99548e-01,6.16685e-01,9.99999e-01
1.128757988e+00,6.22601e-01,9.99999e-01,9.99999e-01,6.22601e-01,9.99999e-01
1.134401778e+00,6.28456e-01,9.99999e-01,9.99999e-01,6.28456e-01,9.99999e-01
1.140073787e+00,6.34248e-01,9.99999e-01,9.99999e-01,6.34248e-01,9.99999e-01
1.145774156e+00,6.39978e-01,9.99999e-01,9.99999e-01,6.39978e-01,9.99999e-01
1.151503026e+00,6.45645e-01,9.99999e-01,9.99999e-01,6.45645e-01,9.99999e-01
1.157260541e+00,6.51249e-01,9.99999e-01,9.99999e-01,6.51249e-01,9.99999e-01
1.163046844e+00,6.56789e-01,9.99999e-01,9.99999e-01,6.56789e-01,9.99999e-01
1.168862078e+00,6.62266e-01,9.99999e-01,9.99999e-01,6.62266e-01,9.99999e-01
1.174706389e+00,6.67678e-01,9.99999e-01,9.99999e-01,6.67678e-01,9.99999e-01
1.180579921e+00,6.73027e-01,9.99999e-01,9.99999e-01,6.73027e-01,9.99999e-01
1.186482820e+00,6.78300e-01,9.99999e-01,9.99982e-01,6.78312e-01,9.99999e-01
1.192415234e+00,6.58987e-01,9.99999e-01,9.64090e-01,6.83532e-01,9.99999e-01
1.198377311e+00,3.60385e-01,9.99999e-01,5.23292e-01,6.88689e-01,9.99999e-01
1.204369197e+00,7.47209e-28,9.99999e-01,1.07701e-27,6.93781e-01,9.99999e-01
1.210391043e+00,3.00148e-112,9.99999e-01,4.29513e-112,6.98809e-01,9.99999e-01
1.216442998e+00,3.71087e-97,9.99999e-01,5.27281e-97,7.03773e-01,9.99999e-01
1.222525213e+00,1.05868e-95,9.99999e-01,1.49388e-95,7.08674e-01,9.99999e-01
1.228637839e+00,7.38706e-74,9.99999e-01,1.03531e-73,7.13511e-01,9.99999e-01
1.234781029e+00,5.09678e-46,9.99999e-01,7.09576e-46,7.18284e-01,9.99999e-01
1.240954934e+00,1.43969e-30,9.99999e-01,1.99129e-30,7.22994e-01,9.99999e-01
1.247159708e+00,7.94097e-15,9.99999e-01,1.09133e-14,7.27641e-01,9.99999e-01
1.253395507e+00,4.51506e-10,9.99999e-01,6.16621e-10,7.32225e-01,9.99999e-01
1.259662485e+00,4.51171e-06,9.99999e-01,6.12383e-06,7.36747e-01,9.99999e-01
1.265960797e+00,9.55160e-04,9.99999e-01,1.28866e-03,7.41206e-01,9.99999e-01
1.272290601e+00,3.39397e-02,9.99999e-01,4.55198e-02,7.45604e-01,9.99999e-01
1.278652054e+00,3.10223e-02,9.99999e-01,4.13663e-02,7.49940e-01,9.99999e-01
1.285045314e+00,5.40447e-05,9.99999e-01,7.16569e-05,7.54214e-01,9.99999e-01
1.291470541e+00,2.35336e-13,9.99999e-01,3.10294e-13,7.58428e-01,9.99999e-01
1.297927893e+00,6.50682e-06,9.99999e-01,8.53261e-06,7.62582e-01,9.99999e-01
1.304417533e+00,2.60534e-03,9.99999e-01,3.39823e-03,7.66676e-01,9.99999e-01
1.310939621e+00,6.70682e-04,9.99999e-01,8.70212e-04,7.70710e-01,9.99999e-01
1.317494319e+00,2.84681e-38,9.99999e-01,3.67479e-38,7.74685e-01,9.99999e-01
1.324081790e+00,3.57949e-25,9.99999e-01,4.59733e-25,7.78601e-01,9.99999e-01
1.330702199e+00,5.62802e-15,9.99999e-01,7.19272e-15,7.82459e-01,9.99999e-01
1.337355710e+00,9.15084e-14,9.99999e-01,1.16384e-13,7.86260e-01,9.99999e-01
1.344042489e+00,4.68971e-14,9.99999e-01,5.93631e-14,7.90004e-01,9.99999e-01
1.350762701e+00,2.81951e-15,9.99999e-01,3.55240e-15,7.93690e-01,9.99999e-01
1.357516515e+00,2.00545e-09,9.99999e-01,2.51523e-09,7.97321e-01,9.99999e-01
1.364304097e+00,6.30593e-07,9.99999e-01,7.87359e-07,8.00896e-01,9.99999e-01
1.371125618e+00,6.23024e-04,9.99999e-01,7.74504e-04,8.04416e-01,9.99999e-01
1.377981246e+00,1.67440e-03,9.99999e-01,2.07258e-03,8.07882e-01,9.99999e-01
1.384871152e+00,2.20801e-02,9.99999e-01,2.72159e-02,8.11293e-01,9.99999e-01
1.391795508e+00,2.93281e-02,9.99999e-01,3.60008e-02,8.14652e-01,9.99999e-01
1.398754485e+00,1.01040e-01,9.99999e-01,1.23528e-01,8.17957e-01,9.99999e-01
1.405748258e+00,1.78746e-01,9.99999e-01,2.17661e-01,8.21210e-01,9.99999e-01
1.412776999e+00,3.12246e-01,9.99999e-01,3.78750e-01,8.24411e-01,9.99999e-01
1.419840884e+00,2.93087e-01,9.99999e-01,3.54158e-01,8.27561e-01,9.99999e-01
1.426940089e+00,1.14327e-02,9.99999e-01,1.37634e-02,8.30661e-01,9.99999e-01
1.434074789e+00,0.00000e+00,9.99999e-01,0.00000e+00,8.33711e-01,9.99999e-01
1.441245163e+00,0.00000e+00,9.99999e-01,0.00000e+00,8.36711e-01,9.99999e-01
1.448451389e+00,0.00000e+00,9.99998e-01,0.00000e+00,8.39663e-01,9.99999e-01
1.455693646e+00,0.00000e+00,9.99999e-01,0.00000e+00,8.42566e-01,9.99999e-01
1.462972114e+00,0.00000e+00,9.99999e-01,0.00000e+00,8.45422e-01,9.99999e-01
1.470286975e+00,6.09135e-186,9.99999e-01,7.18124e-186,8.48231e-01,9.99999e-01
