#,Wave/freq,Total,N2,CO2,Rayleigh,CIA
4.000000000e-01,6.89810e-04,9.99999e-01,9.99999e-01,6.89810e-04,9.99999e-01
4.020000000e-01,7.96595e-04,9.99999e-01,9.99999e-01,7.96595e-04,9.99999e-01
4.040100000e-01,9.17161e-04,9.99999e-01,9.99999e-01,9.17161e-04,9.99999e-01
4.060300500e-01,1.05304e-03,9.99999e-01,9.99999e-01,1.05304e-03,9.99999e-01
4.080602003e-01,1.20575e-03,9.99999e-01,9.99999e-01,1.20575e-03,9.99999e-01
4.101005013e-01,1.37693e-03,9.99999e-01,9.99999e-01,1.37693e-03,9.99999e-01
4.121510038e-01,1.56828e-03,9.99999e-01,9.99999e-01,1.56828e-03,9.99999e-01
4.142117588e-01,1.78165e-03,9.99999e-01,9.99999e-01,1.78165e-03,9.99999e-01
4.162828176e-01,2.01895e-03,9.99999e-01,9.99999e-01,2.01895e-03,9.99999e-01
4.183642317e-01,2.28221e-03,9.99999e-01,9.99999e-01,2.28221e-03,9.99999e-01
4.204560528e-01,2.57356e-03,9.99999e-01,9.99999e-01,2.57356e-03,9.99999e-01
4.225583331e-01,2.89523e-03,9.99999e-01,9.99999e-01,2.89523e-03,9.99999e-01
4.246711247e-01,3.24953e-03,9.99999e-01,9.99999e-01,3.24953e-03,9.99999e-01
4.267944804e-01,3.63889e-03,9.99999e-01,9.99999e-01,3.63889e-03,9.99999e-01
4.289284528e-01,4.06580e-03,9.99999e-01,9.99999e-01,4.06580e-03,9.99999e-01
4.310730950e-01,4.53285e-03,9.99999e-01,9.99999e-01,4.53285e-03,9.99999e-01
4.332284605e-01,5.04270e-03,9.99999e-01,9.99999e-01,5.04270e-03,9.99999e-01
4.353946028e-01,5.59811e-03,9.99999e-01,9.99999e-01,5.59811e-03,9.99999e-01
4.375715758e-01,6.20188e-03,9.99999e-01,9.99999e-01,6.20188e-03,9.99999e-01
4.397594337e-01,6.85688e-03,9.99999e-01,9.99999e-01,6.85688e-03,9.99999e-01
4.419582309e-01,7.56603e-03,9.99999e-01,9.99999e-01,7.56603e-03,9.99999e-01
4.441680220e-01,8.33232e-03,9.99999e-01,9.99999e-01,8.33232e-03,9.99999e-01
4.463888621e-01,9.15874e-03,9.99999e-01,9.99999e-01,9.15874e-03,9.99999e-01
4.486208064e-01,1.00483e-02,9.99999e-01,9.99999e-01,1.00483e-02,9.99999e-01
4.508639105e-01,1.10042e-02,9.99999e-01,9.99999e-01,1.10042e-02,9.99999e-01
4.531182300e-01,1.20294e-02,9.99999e-01,9.99999e-01,1.20294e-02,9.99999e-01
4.553838212e-01,1.31269e-02,9.99999e-01,9.99999e-01,1.31269e-02,9.99999e-01
4.576607403e-01,1.42999e-02,9.99999e-01,9.99999e-01,1.42999e-02,9.99999e-01
4.599490440e-01,1.55514e-02,9.99999e-01,9.99999e-01,1.55514e-02,9.99999e-01
4.622487892e-01,1.68845e-02,9.99999e-01,9.99999e-01,1.68845e-02,9.99999e-01
4.645600332e-01,1.83020e-02,9.99999e-01,9.99999e-01,1.83020e-02,9.99999e-01
4.668828333e-01,1.98070e-02,9.99999e-01,9.99999e-01,1.98070e-02,9.99999e-01
4.692172475e-01,2.14023e-02,9.99999e-01,9.99999e-01,2.14023e-02,9.99999e-01
4.715633337e-01,2.30907e-02,9.99999e-01,9.99999e-01,2.30907e-02,9.99999e-01
4.739211504e-01,2.48751e-02,9.99999e-01,9.99999e-01,2.48751e-02,9.99999e-01
4.762907561e-01,2.67579e-02,9.99999e-01,9.99999e-01,2.67579e-02,9.99999e-01
4.786722099e-01,2.87418e-02,9.99999e-01,9.99999e-01,2.87418e-02,9.99999e-01
4.810655710e-01,3.08292e-02,9.99999e-01,9.99999e-01,3.08292e-02,9.99999e-01
4.834708988e-01,3.30224e-02,9.99999e-01,9.99999e-01,3.30224e-02,9.99999e-01
4.858882533e-01,3.53237e-02,9.99999e-01,9.99999e-01,3.53237e-02,9.99999e-01
4.883176946e-01,3.77350e-02,9.99999e-01,9.99999e-01,3.77350e-02,9.99999e-01
4.907592831e-01,4.02585e-02,9.99999e-01,9.99999e-01,4.02585e-02,9.99999e-01
4.932130795e-01,4.28958e-02,9.99999e-01,9.99999e-01,4.28958e-02,9.99999e-01
4.956791449e-01,4.56487e-02,9.99999e-01,9.99999e-01,4.56487e-02,9.99999e-01
4.981575406e-01,4.85186e-02,9.99999e-01,9.99999e-01,4.85186e-02,9.99999e-01
5.006483283e-01,5.15068e-02,9.99999e-01,9.99999e-01,5.15068e-02,9.99999e-01
5.031515699e-01,5.46146e-02,9.99999e-01,9.99999e-01,5.46146e-02,9.99999e-01
5.056673278e-01,5.78429e-02,9.99999e-01,9.99999e-01,5.78429e-02,9.99999e-01
5.081956644e-01,6.11925e-02,9.99999e-01,9.99999e-01,6.11925e-02,9.99999e-01
5.107366428e-01,6.46642e-02,9.99999e-01,9.99999e-01,6.46642e-02,9.99999e-01
5.132903260e-01,6.82584e-02,9.99999e-01,9.99999e-01,6.82584e-02,9.99999e-01
5.158567776e-01,7.19755e-02,9.99999e-01,9.99999e-01,7.19755e-02,9.99999e-01
5.184360615e-01,7.58155e-02,9.99999e-01,9.99999e-01,7.58155e-02,9.99999e-01
5.210282418e-01,7.97785e-02,9.99999e-01,9.99999e-01,7.97785e-02,9.99999e-01
5.236333830e-01,8.38641e-02,9.99999e-01,9.99999e-01,8.38641e-02,9.99999e-01
5.262515499e-01,8.80721e-02,9.99999e-01,9.99999e-01,8.80721e-02,9.99999e-01
5.288828077e-01,9.24017e-02,9.99999e-01,9.99999e-01,9.24017e-02,9.99999e-01
5.315272217e-01,9.68524e-02,9.99999e-01,9.99999e-01,9.68524e-02,9.99999e-01
5.341848578e-01,1.01423e-01,9.99999e-01,9.99999e-01,1.01423e-01,9.99999e-01
5.368557821e-01,1.06113e-01,9.99999e-01,9.99999e-01,1.06113e-01,9.99999e-01
5.395400610e-01,1.10921e-01,9.99999e-01,9.99999e-01,1.10921e-01,9.99999e-01
5.422377613e-01,1.15845e-01,9.99999e-01,9.99999e-01,1.15845e-01,9.99999e-01
5.449489501e-01,1.20883e-01,9.99999e-01,9.99999e-01,1.20883e-01,9.99999e-01
5.476736949e-01,1.26035e-01,9.99999e-01,9.99999e-01,1.26035e-01,9.99999e-01
5.504120634e-01,1.31298e-01,9.99999e-01,9.99999e-01,1.31298e-01,9.99999e-01
5.531641237e-01,1.36671e-01,9.99999e-01,9.99999e-01,1.36671e-01,9.99999e-01
5.559299443e-01,1.42150e-01,9.99999e-01,9.99999e-01,1.42150e-01,9.99999e-01
5.587095940e-01,1.47735e-01,9.99999e-01,9.99999e-01,1.47735e-01,9.99999e-01
5.615031420e-01,1.53422e-01,9.99999e-01,9.99999e-01,1.53422e-01,9.99999e-01
5.643106577e-01,1.59210e-01,9.99999e-01,9.99999e-01,1.59210e-01,9.99999e-01
5.671322110e-01,1.65094e-01,9.99999e-01,9.99999e-01,1.65094e-01,9.99999e-01
5.699678720e-01,1.71074e-01,9.99999e-01,9.99999e-01,1.71074e-01,9.99999e-01
5.728177114e-01,1.77146e-01,9.99999e-01,9.99999e-01,1.77146e-01,9.99999e-01
5.756818000e-01,1.83306e-01,9.99999e-01,9.99999e-01,1.83306e-01,9.99999e-01
5.785602090e-01,1.89554e-01,9.99999e-01,9.99999e-01,1.89554e-01,9.99999e-01
5.814530100e-01,1.95884e-01,9.99999e-01,9.99999e-01,1.95884e-01,9.99999e-01
5.843602750e-01,2.02294e-01,9.99999e-01,9.99999e-01,2.02294e-01,9.99999e-01
5.872820764e-01,2.08781e-01,9.99999e-01,9.99999e-01,2.08781e-01,9.99999e-01
5.902184868e-01,2.15342e-01,9.99999e-01,9.99999e-01,2.15342e-01,9.99999e-01
5.931695792e-01,2.21974e-01,9.99999e-01,9.99999e-01,2.21974e-01,9.99999e-01
5.961354271e-01,2.28673e-01,9.99999e-01,9.99999e-01,2.28673e-01,9.99999e-01
5.991161043e-01,2.35435e-01,9.99999e-01,9.99999e-01,2.35435e-01,9.99999e-01
6.021116848e-01,2.42258e-01,9.99999e-01,9.99999e-01,2.42258e-01,9.99999e-01
6.051222432e-01,2.49138e-01,9.99999e-01,9.99999e-01,2.49138e-01,9.99999e-01
6.081478544e-01,2.56072e-01,9.99999e-01,9.99999e-01,2.56072e-01,9.99999e-01
6.111885937e-01,2.63056e-01,9.99999e-01,9.99999e-01,2.63056e-01,9.99999e-01
6.142445367e-01,2.70087e-01,9.99999e-01,9.99999e-01,2.70087e-01,9.99999e-01
6.173157594e-01,2.77162e-01,9.99999e-01,9.99999e-01,2.77162e-01,9.99999e-01
6.204023382e-01,2.84276e-01,9.99999e-01,9.99999e-01,2.84276e-01,9.99999e-01
6.235043498e-01,2.91427e-01,9.99999e-01,9.99999e-01,2.91427e-01,9.99999e-01
6.266218716e-01,2.98612e-01,9.99999e-01,9.99999e-01,2.98612e-01,9.99999e-01
6.297549810e-01,3.05827e-01,9.99999e-01,9.99999e-01,3.05827e-01,9.99999e-01
6.329037559e-01,3.13068e-01,9.99999e-01,9.99999e-01,3.13068e-01,9.99999e-01
6.360682746e-01,3.20332e-01,9.99999e-01,9.99999e-01,3.20332e-01,9.99999e-01
6.392486160e-01,3.27617e-01,9.99999e-01,9.99999e-01,3.27617e-01,9.99999e-01
6.424448591e-01,3.34918e-01,9.99999e-01,9.99999e-01,3.34918e-01,9.99999e-01
6.456570834e-01,3.42234e-01,9.99999e-01,9.99999e-01,3.42234e-01,9.99999e-01
6.488853688e-01,3.49559e-01,9.99999e-01,9.99999e-01,3.49559e-01,9.99999e-01
6.521297956e-01,3.56893e-01,9.99999e-01,9.99999e-01,3.56893e-01,9.99999e-01
6.553904446e-01,3.64230e-01,9.99999e-01,9.99999e-01,3.64230e-01,9.99999e-01
6.586673968e-01,3.71569e-01,9.99999e-01,9.99999e-01,3.71569e-01,9.99999e-01
6.619607338e-01,3.78907e-01,9.99999e-01,9.99999e-01,3.78907e-01,9.99999e-01
6.652705375e-01,3.86240e-01,9.99999e-01,9.99999e-01,3.86240e-01,9.99999e-01
6.685968902e-01,3.93567e-01,9.99999e-01,9.99999e-01,3.93567e-01,9.99999e-01
6.719398746e-01,4.00883e-01,9.99999e-01,9.99999e-01,4.00883e-01,9.99999e-01
6.752995740e-01,4.08187e-01,9.99999e-01,9.99999e-01,4.08187e-01,9.99999e-01
6.786760719e-01,4.15476e-01,9.99999e-01,9.99999e-01,4.15476e-01,9.99999e-01
6.820694522e-01,4.22747e-01,9.99999e-01,9.99999e-01,4.22747e-01,9.99999e-01
6.854797995e-01,4.29998e-01,9.99999e-01,9.99999e-01,4.29998e-01,9.99999e-01
6.889071985e-01,4.37226e-01,9.99999e-01,9.99999e-01,4.37226e-01,9.99999e-01
6.923517345e-01,4.44429e-01,9.99999e-01,9.99999e-01,4.44429e-01,9.99999e-01
6.958134932e-01,4.51606e-01,9.99999e-01,9.99999e-01,4.51606e-01,9.99999e-01
6.992925606e-01,4.58753e-01,9.99999e-01,9.99999e-01,4.58753e-01,9.99999e-01
7.027890234e-01,4.65869e-01,9.99999e-01,9.99999e-01,4.65869e-01,9.99999e-01
7.063029686e-01,4.72951e-01,9.99999e-01,9.99999e-01,4.72951e-01,9.99999e-01
7.098344834e-01,4.79998e-01,9.99999e-01,9.99999e-01,4.79998e-01,9.99999e-01
7.133836558e-01,4.87008e-01,9.99999e-01,9.99999e-01,4.87008e-01,9.99999e-01
7.169505741e-01,4.93978e-01,9.99999e-01,9.99999e-01,4.93978e-01,9.99999e-01
7.205353270e-01,5.00908e-01,9.99999e-01,9.99999e-01,5.00908e-01,9.99999e-01
7.241380036e-01,5.07795e-01,9.99999e-01,9.99999e-01,5.07795e-01,9.99999e-01
7.277586936e-01,5.14638e-01,9.99999e-01,9.99999e-01,5.14638e-01,9.99999e-01
7.313974871e-01,5.21435e-01,9.99999e-01,9.99999e-01,5.21435e-01,9.99999e-01
7.350544745e-01,5.28185e-01,9.99999e-01,9.99999e-01,5.28185e-01,9.99999e-01
7.387297469e-01,5.34887e-01,9.99999e-01,9.99999e-01,5.34887e-01,9.99999e-01
7.424233956e-01,5.41538e-01,9.99999e-01,9.99999e-01,5.41538e-01,9.99999e-01
7.461355126e-01,5.48139e-01,9.99999e-01,9.99999e-01,5.48139e-01,9.99999e-01
7.498661902e-01,5.54687e-01,9.99999e-01,9.99999e-01,5.54687e-01,9.99999e-01
7.536155211e-01,5.61182e-01,9.99999e-01,9.99999e-01,5.61182e-01,9.99999e-01
7.573835987e-01,5.67623e-01,9.99999e-01,9.99999e-01,5.67623e-01,9.99999e-01
7.611705167e-01,5.74008e-01,9.99999e-01,9.99999e-01,5.74008e-01,9.99999e-01
7.649763693e-01,5.80336e-01,9.99999e-01,9.99999e-01,5.80336e-01,9.99999e-01
7.688012511e-01,5.86607e-01,9.99999e-01,9.99999e-01,5.86607e-01,9.99999e-01
7.726452574e-01,5.92821e-01,9.99999e-01,9.99999e-01,5.92821e-01,9.99999e-01
7.765084837e-01,5.98975e-01,9.99999e-01,9.99999e-01,5.98975e-01,9.99999e-01
7.803910261e-01,5.90787e-01,9.99999e-01,9.76395e-01,6.05070e-01,9.99999e-01
7.842929812e-01,5.49823e-01,9.99999e-01,8.99720e-01,6.11104e-01,9.99999e-01
7.882144461e-01,5.51116e-01,9.99999e-01,8.93105e-01,6.17078e-01,9.99999e-01
7.921555184e-01,5.83613e-01,9.99999e-01,9.36792e-01,6.22990e-01,9.99999e-01
7.961162960e-01,6.01902e-01,9.99999e-01,9.57160e-01,6.28841e-01,9.99999e-01
8.000968774e-01,6.19764e-01,9.99999e-01,9.76576e-01,6.34629e-01,9.99999e-01
8.040973618e-01,6.32530e-01,9.99999e-01,9.87779e-01,6.40355e-01,9.99999e-01
8.081178486e-01,6.42390e-01,9.99999e-01,9.94384e-01,6.46018e-01,9.99999e-01
8.121584379e-01,6.50481e-01,9.99999e-01,9.98255e-01,6.51617e-01,9.99999e-01
8.162192301e-01,6.56900e-01,9.99999e-01,9.99614e-01,6.57153e-01,9.99999e-01
8.203003262e-01,6.62621e-01,9.99999e-01,9.99993e-01,6.62625e-01,9.99999e-01
8.244018279e-01,6.68034e-01,9.99999e-01,9.99999e-01,6.68034e-01,9.99999e-01
8.285238370e-01,6.73378e-01,9.99999e-01,9.99999e-01,6.73378e-01,9.99999e-01
8.326664562e-01,6.78659e-01,9.99999e-01,9.99999e-01,6.78659e-01,9.99999e-01
8.368297885e-01,6.83875e-01,9.99999e-01,9.99999e-01,6.83875e-01,9.99999e-01
8.410139374e-01,6.89027e-01,9.99999e-01,9.99999e-01,6.89027e-01,9.99999e-01
8.452190071e-01,6.94115e-01,9.99999e-01,9.99999e-01,6.94115e-01,9.99999e-01
8.494451021e-01,6.99139e-01,9.99999e-01,9.99999e-01,6.99139e-01,9.99999e-01
8.536923276e-01,7.04099e-01,9.99999e-01,9.99999e-01,7.04099e-01,9.99999e-01
8.579607893e-01,7.08996e-01,9.99999e-01,9.99999e-01,7.08996e-01,9.99999e-01
8.622505932e-01,7.13828e-01,9.99999e-01,9.99999e-01,7.13828e-01,9.99999e-01
8.665618462e-01,6.76961e-01,9.99999e-01,9.42058e-01,7.18597e-01,9.99999e-01
8.708946554e-01,5.52088e-01,9.99999e-01,7.63286e-01,7.23303e-01,9.99999e-01
8.752491287e-01,5.86307e-01,9.99999e-01,8.05426e-01,7.27946e-01,9.99999e-01
8.796253743e-01,6.50875e-01,9.99999e-01,8.88535e-01,7.32526e-01,9.99999e-01
8.840235012e-01,6.93378e-01,9.99999e-01,9.40755e-01,7.37043e-01,9.99999e-01
8.884436187e-01,7.23857e-01,9.99999e-01,9.76207e-01,7.41499e-01,9.99999e-01
8.928858368e-01,7.38666e-01,9.99999e-01,9.90311e-01,7.45892e-01,9.99999e-01
8.973502660e-01,7.48448e-01,9.99999e-01,9.97632e-01,7.50224e-01,9.99999e-01
9.018370173e-01,7.54298e-01,9.99999e-01,9.99738e-01,7.54495e-01,9.99999e-01
9.063462024e-01,7.53690e-01,9.99999e-01,9.93390e-01,7.58705e-01,9.99999e-01
9.108779334e-01,7.51228e-01,9.99999e-01,9.84759e-01,7.62854e-01,9.99999e-01
9.154323231e-01,7.64174e-01,9.99999e-01,9.96388e-01,7.66944e-01,9.99999e-01
9.200094847e-01,7.31100e-01,9.99999e-01,9.48279e-01,7.70974e-01,9.99999e-01
9.246095321e-01,7.18796e-01,9.99999e-01,9.27543e-01,7.74946e-01,9.99999e-01
9.292325798e-01,7.34361e-01,9.99999e-01,9.42867e-01,7.78858e-01,9.99999e-01
9.338787427e-01,7.39326e-01,9.99999e-01,9.44568e-01,7.82713e-01,9.99999e-01
9.385481364e-01,7.54286e-01,9.99999e-01,9.59029e-01,7.86509e-01,9.99999e-01
9.432408771e-01,7.70260e-01,9.99999e-01,9.74704e-01,7.90249e-01,9.99999e-01
9.479570815e-01,7.83581e-01,9.99999e-01,9.86961e-01,7.93932e-01,9.99999e-01
9.526968669e-01,7.92525e-01,9.99999e-01,9.93686e-01,7.97559e-01,9.99999e-01
9.574603512e-01,7.98965e-01,9.99999e-01,9.97295e-01,8.01131e-01,9.99999e-01
9.622476530e-01,8.03968e-01,9.99999e-01,9.99155e-01,8.04647e-01,9.99999e-01
9.670588912e-01,8.07904e-01,9.99999e-01,9.99746e-01,8.08109e-01,9.99999e-01
9.718941857e-01,8.11502e-01,9.99999e-01,9.99981e-01,8.11517e-01,9.99999e-01
9.767536566e-01,8.14872e-01,9.99999e-01,9.99999e-01,8.14872e-01,9.99999e-01
9.816374249e-01,8.18174e-01,9.99999e-01,9.99999e-01,8.18174e-01,9.99999e-01
9.865456120e-01,8.21423e-01,9.99999e-01,9.99999e-01,8.21423e-01,9.99999e-01
9.914783401e-01,8.24621e-01,9.99999e-01,9.99999e-01,8.24621e-01,9.99999e-01
9.964357318e-01,8.27768e-01,9.99999e-01,9.99999e-01,8.27768e-01,9.99999e-01
1.001417910e+00,8.30864e-01,9.99999e-01,9.99999e-01,8.30864e-01,9.99999e-01
1.006425000e+00,8.33911e-01,9.99999e-01,9.99999e-01,8.33911e-01,9.99999e-01
1.011457125e+00,8.36908e-01,9.99999e-01,9.99999e-01,8.36908e-01,9.99999e-01
1.016514411e+00,8.39856e-01,9.99999e-01,9.99999e-01,8.39856e-01,9.99999e-01
1.021596983e+00,8.42728e-01,9.99999e-01,9.99966e-01,8.42756e-01,9.99999e-01
1.026704968e+00,8.43436e-01,9.99999e-01,9.97429e-01,8.45609e-01,9.99999e-01
1.031838492e+00,8.20396e-01,9.99999e-01,9.66974e-01,8.48415e-01,9.99999e-01
1.036997685e+00,1.81994e-01,9.99999e-01,2.13815e-01,8.51174e-01,9.99999e-01
1.042182673e+00,1.89086e-01,9.99999e-01,2.21442e-01,8.53888e-01,9.99999e-01
1.047393587e+00,1.94411e-01,9.99999e-01,2.26968e-01,8.56556e-01,9.99999e-01
1.052630555e+00,1.43634e-02,9.99999e-01,1.67176e-02,8.59180e-01,9.99999e-01
1.057893707e+00,3.08205e-02,9.99999e-01,3.57646e-02,8.61759e-01,9.99999e-01
1.063183176e+00,7.58834e-02,9.99999e-01,8.77979e-02,8.64295e-01,9.99999e-01
1.068499092e+00,1.66076e-01,9.99999e-01,1.91599e-01,8.66789e-01,9.99999e-01
1.073841587e+00,3.05979e-01,9.99999e-01,3.52008e-01,8.69240e-01,9.99999e-01
1.079210795e+00,4.50596e-01,9.99999e-01,5.16945e-01,8.71649e-01,9.99999e-01
1.084606849e+00,6.08790e-01,9.99999e-01,6.96542e-01,8.74018e-01,9.99999e-01
1.090029883e+00,7.26645e-01,9.99999e-01,8.29176e-01,8.76345e-01,9.99999e-01
1.095480033e+00,8.01164e-01,9.99999e-01,9.11829e-01,8.78633e-01,9.99999e-01
1.100957433e+00,8.42610e-01,9.99999e-01,9.56552e-01,8.80881e-01,9.99999e-01
1.106462220e+00,8.67014e-01,9.99999e-01,9.81794e-01,8.83091e-01,9.99999e-01
1.111994531e+00,8.79257e-01,9.99999e-01,9.93215e-01,8.85262e-01,9.99999e-01
1.117554504e+00,8.85920e-01,9.99999e-01,9.98336e-01,8.87396e-01,9.99999e-01
1.123142276e+00,8.89395e-01,9.99999e-01,9.99890e-01,8.89492e-01,9.99999e-01
1.128757988e+00,8.91552e-01,9.99999e-01,9.99999e-01,8.91552e-01,9.99999e-01
1.134401778e+00,8.93576e-01,9.99999e-01,9.99999e-01,8.93576e-01,9.99999e-01
1.140073787e+00,8.95564e-01,9.99999e-01,9.99999e-01,8.95564e-01,9.99999e-01
1.145774156e+00,8.97518e-01,9.99999e-01,9.99999e-01,8.97518e-01,9.99999e-01
1.151503026e+00,8.99436e-01,9.99999e-01,9.99999e-01,8.99436e-01,9.99999e-01
1.157260541e+00,9.01321e-01,9.99999e-01,9.99999e-01,9.01321e-01,9.99999e-01
1.163046844e+00,9.03173e-01,9.99999e-01,9.99999e-01,9.03173e-01,9.99999e-01
1.168862078e+00,9.04992e-01,9.99999e-01,9.99999e-01,9.04992e-01,9.99999e-01
1.174706389e+00,9.06778e-01,9.99999e-01,9.99999e-01,9.06778e-01,9.99999e-01
1.180579921e+00,9.08532e-01,9.99999e-01,9.99999e-01,9.08532e-01,9.99999e-01
1.186482820e+00,9.10252e-01,9.99999e-01,9.99995e-01,9.10255e-01,9.99999e-01
1.192415234e+00,9.03581e-01,9.99999e-01,9.90824e-01,9.11948e-01,9.99999e-01
1.198377311e+00,5.22959e-01,9.99999e-01,5.72409e-01,9.13609e-01,9.99999e-01
1.204369197e+00,1.87771e-08,9.99999e-01,2.05159e-08,9.15241e-01,9.99999e-01
1.210391043e+00,6.70454e-29,9.99999e-01,7.31262e-29,9.16844e-01,9.99999e-01
1.216442998e+00,3.04098e-25,9.99999e-01,3.31111e-25,9.18417e-01,9.99999e-01
1.222525213e+00,6.90458e-25,9.99999e-01,7.50528e-25,9.19963e-01,9.99999e-01
1.228637839e+00,3.09608e-19,9.99999e-01,3.35990e-19,9.21480e-01,9.99999e-01
1.234781029e+00,7.49954e-13,9.99999e-01,8.12544e-13,9.22969e-01,9.99999e-01
1.240954934e+00,9.96845e-09,9.99999e-01,1.07833e-08,9.24432e-01,9.99999e-01
1.247159708e+00,3.87420e-05,9.99999e-01,4.18439e-05,9.25868e-01,9.99999e-01
1.253395507e+00,2.94481e-03,9.99999e-01,3.17576e-03,9.27277e-01,9.99999e-01
1.259662485e+00,3.47928e-02,9.99999e-01,3.74655e-02,9.28661e-01,9.99999e-01
1.265960797e+00,1.37949e-01,9.99999e-01,1.48328e-01,9.30020e-01,9.99999e-01
1.272290601e+00,3.96209e-01,9.99999e-01,4.25412e-01,9.31354e-01,9.99999e-01
1.278652054e+00,3.68090e-01,9.99999e-01,3.94665e-01,9.32663e-01,9.99999e-01
1.285045314e+00,1.81064e-02,9.99999e-01,1.93869e-02,9.33948e-01,9.99999e-01
1.291470541e+00,4.28816e-04,9.99999e-01,4.58523e-04,9.35209e-01,9.99999e-01
1.297927893e+00,1.59240e-02,9.99999e-01,1.70047e-02,9.36448e-01,9.99999e-01
1.304417533e+00,2.22704e-01,9.99999e-01,2.37510e-01,9.37663e-01,9.99999e-01
1.310939621e+00,5.88443e-02,9.99999e-01,6.26766e-02,9.38856e-01,9.99999e-01
1.317494319e+00,2.08496e-10,9.99999e-01,2.21798e-10,9.40026e-01,9.99999e-01
1.324081790e+00,1.92145e-07,9.99999e-01,2.04154e-07,9.41176e-01,9.99999e-01
1.330702199e+00,2.13919e-04,9.99999e-01,2.27017e-04,9.42303e-01,9.99999e-01
1.337355710e+00,1.88008e-04,9.99999e-01,1.99286e-04,9.43410e-01,9.99999e-01
1.344042489e+00,5.72340e-05,9.99999e-01,6.05973e-05,9.44496e-01,9.99999e-01
1.350762701e+00,1.47311e-04,9.99999e-01,1.55792e-04,9.45562e-01,9.99999e-01
1.357516515e+00,3.12266e-03,9.99999e-01,3.29879e-03,9.46608e-01,9.99999e-01
1.364304097e+00,2.52766e-02,9.99999e-01,2.66733e-02,9.47635e-01,9.99999e-01
1.371125618e+00,1.40985e-01,9.99999e-01,1.48617e-01,9.48642e-01,9.99999e-01
1.377981246e+00,2.03926e-01,9.99999e-01,2.14743e-01,9.49630e-01,9.99999e-01
1.384871152e+00,3.88170e-01,9.99999e-01,4.08341e-01,9.50600e-01,9.99999e-01
1.391795508e+00,4.15967e-01,9.99999e-01,4.37145e-01,9.51552e-01,9.99999e-01
1.398754485e+00,5.72328e-01,9.99999e-01,6.00878e-01,9.52486e-01,9.99999e-01
1.405748258e+00,6.54748e-01,9.99999e-01,6.86749e-01,9.53402e-01,9.99999e-01
1.412776999e+00,7.52829e-01,9.99999e-01,7.88879e-01,9.54301e-01,9.99999e-01
1.419840884e+00,6.88797e-01,9.99999e-01,7.21114e-01,9.55183e-01,9.99999e-01
1.426940089e+00,7.94890e-02,9.99999e-01,8.31431e-02,9.56049e-01,9.99999e-01
1.434074789e+00,0.00000e+00,9.99999e-01,0.00000e+00,9.56898e-01,9.99999e-01
1.441245163e+00,0.00000e+00,9.99999e-01,0.00000e+00,9.57731e-01,9.99999e-01
1.448451389e+00,0.00000e+00,9.99999e-01,0.00000e+00,9.58548e-01,9.99999e-01
1.455693646e+00,3.78358e-227,9.99999e-01,3.94389e-227,9.59350e-01,9.99999e-01
1.462972114e+00,2.04536e-110,9.99999e-01,2.13027e-110,9.60137e-01,9.99999e-01
1.470286975e+00,9.31456e-47,9.99999e-01,9.69348e-47,9.60909e-01,9.99999e-01
