#,Wave/freq,Total,N2,CO2,Rayleigh,CIA
4.000000000e-01,1.17262e-03,9.99999e-01,9.99999e-01,1.17262e-03,9.99999e-01
4.020000000e-01,1.34000e-03,9.99999e-01,9.99999e-01,1.34000e-03,9.99999e-01
4.040100000e-01,1.52705e-03,9.99999e-01,9.99999e-01,1.52705e-03,9.99999e-01
4.060300500e-01,1.73571e-03,9.99999e-01,9.99999e-01,1.73571e-03,9.99999e-01
4.080602003e-01,1.96791e-03,9.99999e-01,9.99999e-01,1.96791e-03,9.99999e-01
4.101005013e-01,2.22564e-03,9.99999e-01,9.99999e-01,2.22564e-03,9.99999e-01
4.121510038e-01,2.51102e-03,9.99999e-01,9.99999e-01,2.51102e-03,9.99999e-01
4.142117588e-01,2.82624e-03,9.99999e-01,9.99999e-01,2.82624e-03,9.99999e-01
4.162828176e-01,3.17361e-03,9.99999e-01,9.99999e-01,3.17361e-03,9.99999e-01
4.183642317e-01,3.55553e-03,9.99999e-01,9.99999e-01,3.55553e-03,9.99999e-01
4.204560528e-01,3.97448e-03,9.99999e-01,9.99999e-01,3.97448e-03,9.99999e-01
4.225583331e-01,4.43303e-03,9.99999e-01,9.99999e-01,4.43303e-03,9.99999e-01
4.246711247e-01,4.93383e-03,9.99999e-01,9.99999e-01,4.93383e-03,9.99999e-01
4.267944804e-01,5.47961e-03,9.99999e-01,9.99999e-01,5.47961e-03,9.99999e-01
4.289284528e-01,6.07316e-03,9.99999e-01,9.99999e-01,6.07316e-03,9.99999e-01
4.310730950e-01,6.71734e-03,9.99999e-01,9.99999e-01,6.71734e-03,9.99999e-01
4.332284605e-01,7.41508e-03,9.99999e-01,9.99999e-01,7.41508e-03,9.99999e-01
4.353946028e-01,8.16933e-03,9.99999e-01,9.99999e-01,8.16933e-03,9.99999e-01
4.375715758e-01,8.98309e-03,9.99999e-01,9.99999e-01,8.98309e-03,9.99999e-01
4.397594337e-01,9.85941e-03,9.99999e-01,9.99999e-01,9.85941e-03,9.99999e-01
4.419582309e-01,1.08013e-02,9.99999e-01,9.99999e-01,1.08013e-02,9.99999e-01
4.441680220e-01,1.18119e-02,9.99999e-01,9.99999e-01,1.18119e-02,9.99999e-01
4.463888621e-01,1.28943e-02,9.99999e-01,9.99999e-01,1.28943e-02,9.99999e-01
4.486208064e-01,1.40515e-02,9.99999e-01,9.99999e-01,1.40515e-02,9.99999e-01
4.508639105e-01,1.52865e-02,9.99999e-01,9.99999e-01,1.52865e-02,9.99999e-01
4.531182300e-01,1.66025e-02,9.99999e-01,9.99999e-01,1.66025e-02,9.99999e-01
4.553838212e-01,1.80023e-02,9.99999e-01,9.99999e-01,1.80023e-02,9.99999e-01
4.576607403e-01,1.94890e-02,9.99999e-01,9.99999e-01,1.94890e-02,9.99999e-01
4.599490440e-01,2.10655e-02,9.99999e-01,9.99999e-01,2.10655e-02,9.99999e-01
4.622487892e-01,2.27345e-02,9.99999e-01,9.99999e-01,2.27345e-02,9.99999e-01
4.645600332e-01,2.44988e-02,9.99999e-01,9.99999e-01,2.44988e-02,9.99999e-01
4.668828333e-01,2.63611e-02,9.99999e-01,9.99999e-01,2.63611e-02,9.99999e-01
4.692172475e-01,2.83239e-02,9.99999e-01,9.99999e-01,2.83239e-02,9.99999e-01
4.715633337e-01,3.03897e-02,9.99999e-01,9.99999e-01,3.03897e-02,9.99999e-01
4.739211504e-01,3.25609e-02,9.99999e-01,9.99999e-01,3.25609e-02,9.99999e-01
4.762907561e-01,3.48397e-02,9.99999e-01,9.99999e-01,3.48397e-02,9.99999e-01
4.786722099e-01,3.72282e-02,9.99999e-01,9.99999e-01,3.72282e-02,9.99999e-01
4.810655710e-01,3.97284e-02,9.99999e-01,9.99999e-01,3.97284e-02,9.99999e-01
4.834708988e-01,4.23421e-02,9.99999e-01,9.99999e-01,4.23421e-02,9.99999e-01
4.858882533e-01,4.50710e-02,9.99999e-01,9.99999e-01,4.50710e-02,9.99999e-01
4.883176946e-01,4.79166e-02,9.99999e-01,9.99999e-01,4.79166e-02,9.99999e-01
4.907592831e-01,5.08803e-02,9.99999e-01,9.99999e-01,5.08803e-02,9.99999e-01
4.932130795e-01,5.39633e-02,9.99999e-01,9.99999e-01,5.39633e-02,9.99999e-01
4.956791449e-01,5.71666e-02,9.99999e-01,9.99999e-01,5.71666e-02,9.99999e-01
4.981575406e-01,6.04912e-02,9.99999e-01,9.99999e-01,6.04912e-02,9.99999e-01
5.006483283e-01,6.39376e-02,9.99999e-01,9.99999e-01,6.39376e-02,9.99999e-01
5.031515699e-01,6.75065e-02,9.99999e-01,9.99999e-01,6.75065e-02,9.99999e-01
5.056673278e-01,7.11982e-02,9.99999e-01,9.99999e-01,7.11982e-02,9.99999e-01
5.081956644e-01,7.50128e-02,9.99999e-01,9.99999e-01,7.50128e-02,9.99999e-01
5.107366428e-01,7.89504e-02,9.99999e-01,9.99999e-01,7.89504e-02,9.99999e-01
5.132903260e-01,8.30108e-02,9.99999e-01,9.99999e-01,8.30108e-02,9.99999e-01
5.158567776e-01,8.71935e-02,9.99999e-01,9.99999e-01,8.71935e-02,9.99999e-01
5.184360615e-01,9.14981e-02,9.99999e-01,9.99999e-01,9.14981e-02,9.99999e-01
5.210282418e-01,9.59239e-02,9.99999e-01,9.99999e-01,9.59239e-02,9.99999e-01
5.236333830e-01,1.00470e-01,9.99999e-01,9.99999e-01,1.00470e-01,9.99999e-01
5.262515499e-01,1.05135e-01,9.99999e-01,9.99999e-01,1.05135e-01,9.99999e-01
5.288828077e-01,1.09919e-01,9.99999e-01,9.99999e-01,1.09919e-01,9.99999e-01
5.315272217e-01,1.14819e-01,9.99999e-01,9.99999e-01,1.14819e-01,9.99999e-01
5.341848578e-01,1.19834e-01,9.99999e-01,9.99999e-01,1.19834e-01,9.99999e-01
5.368557821e-01,1.24963e-01,9.99999e-01,9.99999e-01,1.24963e-01,9.99999e-01
5.395400610e-01,1.30203e-01,9.99999e-01,9.99999e-01,1.30203e-01,9.99999e-01
5.422377613e-01,1.35553e-01,9.99999e-01,9.99999e-01,1.35553e-01,9.99999e-01
5.449489501e-01,1.41011e-01,9.99999e-01,9.99999e-01,1.41011e-01,9.99999e-01
5.476736949e-01,1.46574e-01,9.99999e-01,9.99999e-01,1.46574e-01,9.99999e-01
5.504120634e-01,1.52240e-01,9.99999e-01,9.99999e-01,1.52240e-01,9.99999e-01
5.531641237e-01,1.58007e-01,9.99999e-01,9.99999e-01,1.58007e-01,9.99999e-01
5.559299443e-01,1.63872e-01,9.99999e-01,9.99999e-01,1.63872e-01,9.99999e-01
5.587095940e-01,1.69832e-01,9.99999e-01,9.99999e-01,1.69832e-01,9.99999e-01
5.615031420e-01,1.75885e-01,9.99999e-01,9.99999e-01,1.75885e-01,9.99999e-01
5.643106577e-01,1.82028e-01,9.99999e-01,9.99999e-01,1.82028e-01,9.99999e-01
5.671322110e-01,1.88257e-01,9.99999e-01,9.99999e-01,1.88257e-01,9.99999e-01
5.699678720e-01,1.94571e-01,9.99999e-01,9.99999e-01,1.94571e-01,9.99999e-01
5.728177114e-01,2.00965e-01,9.99999e-01,9.99999e-01,2.00965e-01,9.99999e-01
5.756818000e-01,2.07436e-01,9.99999e-01,9.99999e-01,2.07436e-01,9.99999e-01
5.785602090e-01,2.13982e-01,9.99999e-01,9.99999e-01,2.13982e-01,9.99999e-01
5.814530100e-01,2.20599e-01,9.99999e-01,9.99999e-01,2.20599e-01,9.99999e-01
5.843602750e-01,2.27285e-01,9.99999e-01,9.99999e-01,2.27285e-01,9.99999e-01
5.872820764e-01,2.34034e-01,9.99999e-01,9.99999e-01,2.34034e-01,9.99999e-01
5.902184868e-01,2.40845e-01,9.99999e-01,9.99999e-01,2.40845e-01,9.99999e-01
5.931695792e-01,2.47714e-01,9.99999e-01,9.99999e-01,2.47714e-01,9.99999e-01
5.961354271e-01,2.54637e-01,9.99999e-01,9.99999e-01,2.54637e-01,9.99999e-01
5.991161043e-01,2.61611e-01,9.99999e-01,9.99999e-01,2.61611e-01,9.99999e-01
6.021116848e-01,2.68632e-01,9.99999e-01,9.99999e-01,2.68632e-01,9.99999e-01
6.051222432e-01,2.75698e-01,9.99999e-01,9.99999e-01,2.75698e-01,9.99999e-01
6.081478544e-01,2.82805e-01,9.99999e-01,9.99999e-01,2.82805e-01,9.99999e-01
6.111885937e-01,2.89948e-01,9.99999e-01,9.99999e-01,2.89948e-01,9.99999e-01
6.142445367e-01,2.97126e-01,9.99999e-01,9.99999e-01,2.97126e-01,9.99999e-01
6.173157594e-01,3.04335e-01,9.99999e-01,9.99999e-01,3.04335e-01,9.99999e-01
6.204023382e-01,3.11571e-01,9.99999e-01,9.99999e-01,3.11571e-01,9.99999e-01
6.235043498e-01,3.18831e-01,9.99999e-01,9.99999e-01,3.18831e-01,9.99999e-01
6.266218716e-01,3.26112e-01,9.99999e-01,9.99999e-01,3.26112e-01,9.99999e-01
6.297549810e-01,3.33410e-01,9.99999e-01,9.99999e-01,3.33410e-01,9.99999e-01
6.329037559e-01,3.40723e-01,9.99999e-01,9.99999e-01,3.40723e-01,9.99999e-01
6.360682746e-01,3.48047e-01,9.99999e-01,9.99999e-01,3.48047e-01,9.99999e-01
6.392486160e-01,3.55378e-01,9.99999e-01,9.99999e-01,3.55378e-01,9.99999e-01
6.424448591e-01,3.62715e-01,9.99999e-01,9.99999e-01,3.62715e-01,9.99999e-01
6.456570834e-01,3.70055e-01,9.99999e-01,9.99999e-01,3.70055e-01,9.99999e-01
6.488853688e-01,3.77393e-01,9.99999e-01,9.99999e-01,3.77393e-01,9.99999e-01
6.521297956e-01,3.84727e-01,9.99999e-01,9.99999e-01,3.84727e-01,9.99999e-01
6.553904446e-01,3.92055e-01,9.99999e-01,9.99999e-01,3.92055e-01,9.99999e-01
6.586673968e-01,3.99374e-01,9.99999e-01,9.99999e-01,3.99374e-01,9.99999e-01
6.619607338e-01,4.06680e-01,9.99999e-01,9.99999e-01,4.06680e-01,9.99999e-01
6.652705375e-01,4.13972e-01,9.99999e-01,9.99999e-01,4.13972e-01,9.99999e-01
6.685968902e-01,4.21247e-01,9.99999e-01,9.99999e-01,4.21247e-01,9.99999e-01
6.719398746e-01,4.28503e-01,9.99999e-01,9.99999e-01,4.28503e-01,9.99999e-01
6.752995740e-01,4.35736e-01,9.99999e-01,9.99999e-01,4.35736e-01,9.99999e-01
6.786760719e-01,4.42945e-01,9.99999e-01,9.99999e-01,4.42945e-01,9.99999e-01
6.820694522e-01,4.50127e-01,9.99999e-01,9.99999e-01,4.50127e-01,9.99999e-01
6.854797995e-01,4.57280e-01,9.99999e-01,9.99999e-01,4.57280e-01,9.99999e-01
6.889071985e-01,4.64403e-01,9.99999e-01,9.99999e-01,4.64403e-01,9.99999e-01
6.923517345e-01,4.71492e-01,9.99999e-01,9.99999e-01,4.71492e-01,9.99999e-01
6.958134932e-01,4.78546e-01,9.99999e-01,9.99999e-01,4.78546e-01,9.99999e-01
6.992925606e-01,4.85564e-01,9.99999e-01,9.99999e-01,4.85564e-01,9.99999e-01
7.027890234e-01,4.92543e-01,9.99999e-01,9.99999e-01,4.92543e-01,9.99999e-01
7.063029686e-01,4.99481e-01,9.99999e-01,9.99999e-01,4.99481e-01,9.99999e-01
7.098344834e-01,5.06377e-01,9.99999e-01,9.99999e-01,5.06377e-01,9.99999e-01
7.133836558e-01,5.13229e-01,9.99999e-01,9.99999e-01,5.13229e-01,9.99999e-01
7.169505741e-01,5.20036e-01,9.99999e-01,9.99999e-01,5.20036e-01,9.99999e-01
7.205353270e-01,5.26796e-01,9.99999e-01,9.99999e-01,5.26796e-01,9.99999e-01
7.241380036e-01,5.33507e-01,9.99999e-01,9.99999e-01,5.33507e-01,9.99999e-01
7.277586936e-01,5.40170e-01,9.99999e-01,9.99999e-01,5.40170e-01,9.99999e-01
7.313974871e-01,5.46781e-01,9.99999e-01,9.99999e-01,5.46781e-01,9.99999e-01
7.350544745e-01,5.53340e-01,9.99999e-01,9.99999e-01,5.53340e-01,9.99999e-01
7.387297469e-01,5.59846e-01,9.99999e-01,9.99999e-01,5.59846e-01,9.99999e-01
7.424233956e-01,5.66298e-01,9.99999e-01,9.99999e-01,5.66298e-01,9.99999e-01
7.461355126e-01,5.72694e-01,9.99999e-01,9.99999e-01,5.72694e-01,9.99999e-01
7.498661902e-01,5.79035e-01,9.99999e-01,9.99999e-01,5.79035e-01,9.99999e-01
7.536155211e-01,5.85318e-01,9.99999e-01,9.99999e-01,5.85318e-01,9.99999e-01
7.573835987e-01,5.91543e-01,9.99999e-01,9.99999e-01,5.91543e-01,9.99999e-01
7.611705167e-01,5.97709e-01,9.99999e-01,9.99999e-01,5.97709e-01,9.99999e-01
7.649763693e-01,6.03816e-01,9.99999e-01,9.99999e-01,6.03816e-01,9.99999e-01
7.688012511e-01,6.09863e-01,9.99999e-01,9.99999e-01,6.09863e-01,9.99999e-01
7.726452574e-01,6.15850e-01,9.99999e-01,9.99999e-01,6.15850e-01,9.99999e-01
7.765084837e-01,6.21775e-01,9.99999e-01,9.99999e-01,6.21775e-01,9.99999e-01
7.803910261e-01,6.12994e-01,9.99999e-01,9.76667e-01,6.27638e-01,9.99999e-01
7.842929812e-01,5.74671e-01,9.99999e-01,9.07223e-01,6.33440e-01,9.99999e-01
7.882144461e-01,5.75342e-01,9.99999e-01,9.00126e-01,6.39178e-01,9.99999e-01
7.921555184e-01,6.06859e-01,9.99999e-01,9.41079e-01,6.44854e-01,9.99999e-01
7.961162960e-01,6.24799e-01,9.99999e-01,9.60538e-01,6.50467e-01,9.99999e-01
8.000968774e-01,6.41833e-01,9.99999e-01,9.78380e-01,6.56016e-01,9.99999e-01
8.040973618e-01,6.54086e-01,9.99999e-01,9.88790e-01,6.61501e-01,9.99999e-01
8.081178486e-01,6.63469e-01,9.99999e-01,9.94820e-01,6.66923e-01,9.99999e-01
8.121584379e-01,6.71214e-01,9.99999e-01,9.98413e-01,6.72281e-01,9.99999e-01
8.162192301e-01,6.77337e-01,9.99999e-01,9.99649e-01,6.77574e-01,9.99999e-01
8.203003262e-01,6.82800e-01,9.99999e-01,9.99994e-01,6.82804e-01,9.99999e-01
8.244018279e-01,6.87969e-01,9.99999e-01,9.99999e-01,6.87969e-01,9.99999e-01
8.285238370e-01,6.93070e-01,9.99999e-01,9.99999e-01,6.93070e-01,9.99999e-01
8.326664562e-01,6.98108e-01,9.99999e-01,9.99999e-01,6.98108e-01,9.99999e-01
8.368297885e-01,7.03081e-01,9.99999e-01,9.99999e-01,7.03081e-01,9.99999e-01
8.410139374e-01,7.07990e-01,9.99999e-01,9.99999e-01,7.07990e-01,9.99999e-01
8.452190071e-01,7.12836e-01,9.99999e-01,9.99999e-01,7.12836e-01,9.99999e-01
8.494451021e-01,7.17618e-01,9.99999e-01,9.99999e-01,7.17618e-01,9.99999e-01
8.536923276e-01,7.22337e-01,9.99999e-01,9.99999e-01,7.22337e-01,9.99999e-01
8.579607893e-01,7.26993e-01,9.99999e-01,9.99999e-01,7.26993e-01,9.99999e-01
8.622505932e-01,7.31586e-01,9.99999e-01,9.99999e-01,7.31586e-01,9.99999e-01
8.665618462e-01,6.93571e-01,9.99999e-01,9.42202e-01,7.36116e-01,9.99999e-01
8.708946554e-01,5.76150e-01,9.99999e-01,7.77967e-01,7.40584e-01,9.99999e-01
8.752491287e-01,6.10087e-01,9.99999e-01,8.18919e-01,7.44990e-01,9.99999e-01
8.796253743e-01,6.72070e-01,9.99999e-01,8.96888e-01,7.49335e-01,9.99999e-01
8.840235012e-01,7.12413e-01,9.99999e-01,9.45322e-01,7.53618e-01,9.99999e-01
8.884436187e-01,7.41324e-01,9.99999e-01,9.78204e-01,7.57841e-01,9.99999e-01
8.928858368e-01,7.55223e-01,9.99999e-01,9.91101e-01,7.62003e-01,9.99999e-01
8.973502660e-01,7.64454e-01,9.99999e-01,9.97843e-01,7.66105e-01,9.99999e-01
9.018370173e-01,7.69965e-01,9.99999e-01,9.99762e-01,7.70147e-01,9.99999e-01
9.063462024e-01,7.69255e-01,9.99999e-01,9.93701e-01,7.74131e-01,9.99999e-01
9.108779334e-01,7.67126e-01,9.99999e-01,9.85952e-01,7.78055e-01,9.99999e-01
9.154323231e-01,7.79357e-01,9.99999e-01,9.96720e-01,7.81922e-01,9.99999e-01
9.200094847e-01,7.47199e-01,9.99999e-01,9.50960e-01,7.85730e-01,9.99999e-01
9.246095321e-01,7.36549e-01,9.99999e-01,9.32952e-01,7.89482e-01,9.99999e-01
9.292325798e-01,7.50629e-01,9.99999e-01,9.46357e-01,7.93177e-01,9.99999e-01
9.338787427e-01,7.55948e-01,9.99999e-01,9.48711e-01,7.96815e-01,9.99999e-01
9.385481364e-01,7.70057e-01,9.99999e-01,9.62091e-01,8.00398e-01,9.99999e-01
9.432408771e-01,7.85196e-01,9.99999e-01,9.76701e-01,8.03926e-01,9.99999e-01
9.479570815e-01,7.97678e-01,9.99999e-01,9.87959e-01,8.07399e-01,9.99999e-01
9.526968669e-01,8.06106e-01,9.99999e-01,9.94188e-01,8.10818e-01,9.99999e-01
9.574603512e-01,8.12160e-01,9.99999e-01,9.97513e-01,8.14184e-01,9.99999e-01
9.622476530e-01,8.16863e-01,9.99999e-01,9.99224e-01,8.17496e-01,9.99999e-01
9.670588912e-01,8.20567e-01,9.99999e-01,9.99767e-01,8.20757e-01,9.99999e-01
9.718941857e-01,8.23952e-01,9.99999e-01,9.99983e-01,8.23965e-01,9.99999e-01
9.767536566e-01,8.27123e-01,9.99999e-01,9.99999e-01,8.27123e-01,9.99999e-01
9.816374249e-01,8.30229e-01,9.99999e-01,9.99999e-01,8.30229e-01,9.99999e-01
9.865456120e-01,8.33286e-01,9.99999e-01,9.99999e-01,8.33286e-01,9.99999e-01
9.914783401e-01,8.36293e-01,9.99999e-01,9.99999e-01,8.36293e-01,9.99999e-01
9.964357318e-01,8.39252e-01,9.99999e-01,9.99999e-01,8.39252e-01,9.99999e-01
1.001417910e+00,8.42162e-01,9.99999e-01,9.99999e-01,8.42162e-01,9.99999e-01
1.006425000e+00,8.45024e-01,9.99999e-01,9.99999e-01,8.45024e-01,9.99999e-01
1.011457125e+00,8.47839e-01,9.99999e-01,9.99999e-01,8.47839e-01,9.99999e-01
1.016514411e+00,8.50608e-01,9.99999e-01,9.99999e-01,8.50608e-01,9.99999e-01
1.021596983e+00,8.53299e-01,9.99999e-01,9.99962e-01,8.53331e-01,9.99999e-01
1.026704968e+00,8.53901e-01,9.99999e-01,9.97537e-01,8.56009e-01,9.99999e-01
1.031838492e+00,8.28460e-01,9.99999e-01,9.64848e-01,8.58642e-01,9.99999e-01
1.036997685e+00,1.94400e-01,9.99999e-01,2.25723e-01,8.61230e-01,9.99999e-01
1.042182673e+00,2.13519e-01,9.99999e-01,2.47193e-01,8.63775e-01,9.99999e-01
1.047393587e+00,2.10000e-01,9.99999e-01,2.42416e-01,8.66278e-01,9.99999e-01
1.052630555e+00,1.85347e-02,9.99999e-01,2.13352e-02,8.68737e-01,9.99999e-01
1.057893707e+00,3.92596e-02,9.99999e-01,4.50661e-02,8.71155e-01,9.99999e-01
1.063183176e+00,9.09062e-02,9.99999e-01,1.04067e-01,8.73532e-01,9.99999e-01
1.068499092e+00,1.88436e-01,9.99999e-01,2.15142e-01,8.75868e-01,9.99999e-01
1.073841587e+00,3.34236e-01,9.99999e-01,3.80607e-01,8.78164e-01,9.99999e-01
1.079210795e+00,4.78066e-01,9.99999e-01,5.42996e-01,8.80421e-01,9.99999e-01
1.084606849e+00,6.32253e-01,9.99999e-01,7.16321e-01,8.82638e-01,9.99999e-01
1.090029883e+00,7.44215e-01,9.99999e-01,8.41093e-01,8.84817e-01,9.99999e-01
1.095480033e+00,8.14620e-01,9.99999e-01,9.18441e-01,8.86959e-01,9.99999e-01
1.100957433e+00,8.53378e-01,9.99999e-01,9.59861e-01,8.89063e-01,9.99999e-01
1.106462220e+00,8.76190e-01,9.99999e-01,9.83234e-01,8.91130e-01,9.99999e-01
1.111994531e+00,8.87583e-01,9.99999e-01,9.93753e-01,8.93161e-01,9.99999e-01
1.117554504e+00,8.93796e-01,9.99999e-01,9.98479e-01,8.95157e-01,9.99999e-01
1.123142276e+00,8.97028e-01,9.99999e-01,9.99900e-01,8.97117e-01,9.99999e-01
1.128757988e+00,8.99043e-01,9.99999e-01,9.99999e-01,8.99043e-01,9.99999e-01
1.134401778e+00,9.00935e-01,9.99999e-01,9.99999e-01,9.00935e-01,9.99999e-01
1.140073787e+00,9.02793e-01,9.99999e-01,9.99999e-01,9.02793e-01,9.99999e-01
1.145774156e+00,9.04619e-01,9.99999e-01,9.99999e-01,9.04619e-01,9.99999e-01
1.151503026e+00,9.06412e-01,9.99999e-01,9.99999e-01,9.06412e-01,9.99999e-01
1.157260541e+00,9.08173e-01,9.99999e-01,9.99999e-01,9.08173e-01,9.99999e-01
1.163046844e+00,9.09902e-01,9.99999e-01,9.99999e-01,9.09902e-01,9.99999e-01
1.168862078e+00,9.11601e-01,9.99999e-01,9.99999e-01,9.11601e-01,9.99999e-01
1.174706389e+00,9.13269e-01,9.99999e-01,9.99999e-01,9.13269e-01,9.99999e-01
1.180579921e+00,9.14907e-01,9.99999e-01,9.99999e-01,9.14907e-01,9.99999e-01
1.186482820e+00,9.16510e-01,9.99999e-01,9.99993e-01,9.16515e-01,9.99999e-01
1.192415234e+00,9.09964e-01,9.99999e-01,9.91143e-01,9.18095e-01,9.99999e-01
1.198377311e+00,5.27108e-01,9.99999e-01,5.73163e-01,9.19646e-01,9.99999e-01
1.204369197e+00,5.30091e-08,9.99999e-01,5.75454e-08,9.21169e-01,9.99999e-01
1.210391043e+00,5.78662e-27,9.99999e-01,6.27163e-27,9.22664e-01,9.99999e-01
1.216442998e+00,1.42498e-23,9.99999e-01,1.54196e-23,9.24132e-01,9.99999e-01
1.222525213e+00,3.06040e-23,9.99999e-01,3.30648e-23,9.25574e-01,9.99999e-01
1.228637839e+00,5.96389e-18,9.99999e-01,6.43361e-18,9.26989e-01,9.99999e-01
1.234781029e+00,4.43961e-12,9.99999e-01,4.78211e-12,9.28378e-01,9.99999e-01
1.240954934e+00,3.54739e-08,9.99999e-01,3.81545e-08,9.29742e-01,9.99999e-01
1.247159708e+00,7.14896e-05,9.99999e-01,7.67813e-05,9.31080e-01,9.99999e-01
1.253395507e+00,4.44618e-03,9.99999e-01,4.76856e-03,9.32395e-01,9.99999e-01
1.259662485e+00,4.42812e-02,9.99999e-01,4.74263e-02,9.33685e-01,9.99999e-01
1.265960797e+00,1.60082e-01,9.99999e-01,1.71220e-01,9.34951e-01,9.99999e-01
1.272290601e+00,4.50436e-01,9.99999e-01,4.81134e-01,9.36194e-01,9.99999e-01
1.278652054e+00,3.89013e-01,9.99999e-01,4.14985e-01,9.37414e-01,9.99999e-01
1.285045314e+00,1.52626e-02,9.99999e-01,1.62608e-02,9.38611e-01,9.99999e-01
1.291470541e+00,7.29957e-04,9.99999e-01,7.76726e-04,9.39787e-01,9.99999e-01
1.297927893e+00,3.39175e-02,9.99999e-01,3.60463e-02,9.40940e-01,9.99999e-01
1.304417533e+00,2.49178e-01,9.99999e-01,2.64500e-01,9.42072e-01,9.99999e-01
1.310939621e+00,4.38899e-02,9.99999e-01,4.65337e-02,9.43183e-01,9.99999e-01
1.317494319e+00,9.05481e-10,9.99999e-01,9.58917e-10,9.44274e-01,9.99999e-01
1.324081790e+00,9.46716e-06,9.99999e-01,1.00145e-05,9.45344e-01,9.99999e-01
1.330702199e+00,3.85366e-04,9.99999e-01,4.07194e-04,9.46394e-01,9.99999e-01
1.337355710e+00,3.28181e-04,9.99999e-01,3.46393e-04,9.47424e-01,9.99999e-01
1.344042489e+00,9.66295e-05,9.99999e-01,1.01883e-04,9.48436e-01,9.99999e-01
1.350762701e+00,2.77382e-04,9.99999e-01,2.92157e-04,9.49428e-01,9.99999e-01
1.357516515e+00,4.73041e-03,9.99999e-01,4.97727e-03,9.50402e-01,9.99999e-01
1.364304097e+00,3.31691e-02,9.99999e-01,3.48650e-02,9.51357e-01,9.99999e-01
1.371125618e+00,1.63399e-01,9.99999e-01,1.71585e-01,9.52295e-01,9.99999e-01
1.377981246e+00,2.29404e-01,9.99999e-01,2.40663e-01,9.53214e-01,9.99999e-01
1.384871152e+00,4.16754e-01,9.99999e-01,4.36795e-01,9.54117e-01,9.99999e-01
1.391795508e+00,4.44477e-01,9.99999e-01,4.65419e-01,9.55003e-01,9.99999e-01
1.398754485e+00,5.96950e-01,9.99999e-01,6.24508e-01,9.55871e-01,9.99999e-01
1.405748258e+00,6.76320e-01,9.99999e-01,7.06912e-01,9.56724e-01,9.99999e-01
1.412776999e+00,7.69471e-01,9.99999e-01,8.03574e-01,9.57560e-01,9.99999e-01
1.419840884e+00,7.00541e-01,9.99999e-01,7.30963e-01,9.58381e-01,9.99999e-01
1.426940089e+00,8.28256e-02,9.99999e-01,8.63498e-02,9.59186e-01,9.99999e-01
1.434074789e+00,0.00000e+00,9.99999e-01,0.00000e+00,9.59976e-01,9.99999e-01
1.441245163e+00,0.00000e+00,9.99999e-01,0.00000e+00,9.60751e-01,9.99999e-01
1.448451389e+00,0.00000e+00,9.99999e-01,0.00000e+00,9.61511e-01,9.99999e-01
1.455693646e+00,8.23675e-211,9.99999e-01,8.55982e-211,9.62256e-01,9.99999e-01
1.462972114e+00,1.47420e-102,9.99999e-01,1.53086e-102,9.62988e-01,9.99999e-01
1.470286975e+00,1.59580e-43,9.99999e-01,1.65589e-43,9.63706e-01,9.99999e-01
