#,Wave/freq,Total,N2,CO2,Rayleigh,CIA
4.000000000e-01,4.06453e-25,9.99999e-01,9.99999e-01,4.06453e-25,9.99999e-01
4.020000000e-01,1.23393e-24,9.99999e-01,9.99999e-01,1.23393e-24,9.99999e-01
4.040100000e-01,3.66056e-24,9.99999e-01,9.99999e-01,3.66056e-24,9.99999e-01
4.060300500e-01,1.06286e-23,9.99999e-01,9.99999e-01,1.06286e-23,9.99999e-01
4.080602003e-01,3.02175e-23,9.99999e-01,9.99999e-01,3.02175e-23,9.99999e-01
4.101005013e-01,8.41550e-23,9.99999e-01,9.99999e-01,8.41550e-23,9.99999e-01
4.121510038e-01,2.29675e-22,9.99999e-01,9.99999e-01,2.29675e-22,9.99999e-01
4.142117588e-01,6.14520e-22,9.99999e-01,9.99999e-01,6.14520e-22,9.99999e-01
4.162828176e-01,1.61256e-21,9.99999e-01,9.99999e-01,1.61256e-21,9.99999e-01
4.183642317e-01,4.15162e-21,9.99999e-01,9.99999e-01,4.15162e-21,9.99999e-01
4.204560528e-01,1.04908e-20,9.99999e-01,9.99999e-01,1.04908e-20,9.99999e-01
4.225583331e-01,2.60284e-20,9.99999e-01,9.99999e-01,2.60284e-20,9.99999e-01
4.246711247e-01,6.34294e-20,9.99999e-01,9.99999e-01,6.34294e-20,9.99999e-01
4.267944804e-01,1.51877e-19,9.99999e-01,9.99999e-01,1.51877e-19,9.99999e-01
4.289284528e-01,3.57442e-19,9.99999e-01,9.99999e-01,3.57442e-19,9.99999e-01
4.310730950e-01,8.27132e-19,9.99999e-01,9.99999e-01,8.27132e-19,9.99999e-01
4.332284605e-01,1.88255e-18,9.99999e-01,9.99999e-01,1.88255e-18,9.99999e-01
4.353946028e-01,4.21566e-18,9.99999e-01,9.99999e-01,4.21566e-18,9.99999e-01
4.375715758e-01,9.29110e-18,9.99999e-01,9.99999e-01,9.29110e-18,9.99999e-01
4.397594337e-01,2.01600e-17,9.99999e-01,9.99999e-01,2.01600e-17,9.99999e-01
4.419582309e-01,4.30792e-17,9.99999e-01,9.99999e-01,4.30792e-17,9.99999e-01
4.441680220e-01,9.06842e-17,9.99999e-01,9.99999e-01,9.06842e-17,9.99999e-01
4.463888621e-01,1.88109e-16,9.99999e-01,9.99999e-01,1.88109e-16,9.99999e-01
4.486208064e-01,3.84618e-16,9.99999e-01,9.99999e-01,3.84618e-16,9.99999e-01
4.508639105e-01,7.75378e-16,9.99999e-01,9.99999e-01,7.75378e-16,9.99999e-01
4.531182300e-01,1.54164e-15,9.99999e-01,9.99999e-01,1.54164e-15,9.99999e-01
4.553838212e-01,3.02383e-15,9.99999e-01,9.99999e-01,3.02383e-15,9.99999e-01
4.576607403e-01,5.85264e-15,9.99999e-01,9.99999e-01,5.85264e-15,9.99999e-01
4.599490440e-01,1.11810e-14,9.99999e-01,9.99999e-01,1.11810e-14,9.99999e-01
4.622487892e-01,2.10891e-14,9.99999e-01,9.99999e-01,2.10891e-14,9.99999e-01
4.645600332e-01,3.92819e-14,9.99999e-01,9.99999e-01,3.92819e-14,9.99999e-01
4.668828333e-01,7.22754e-14,9.99999e-01,9.99999e-01,7.22754e-14,9.99999e-01
4.692172475e-01,1.31389e-13,9.99999e-01,9.99999e-01,1.31389e-13,9.99999e-01
4.715633337e-01,2.36047e-13,9.99999e-01,9.99999e-01,2.36047e-13,9.99999e-01
4.739211504e-01,4.19192e-13,9.99999e-01,9.99999e-01,4.19192e-13,9.99999e-01
4.762907561e-01,7.36039e-13,9.99999e-01,9.99999e-01,7.36039e-13,9.99999e-01
4.786722099e-01,1.27809e-12,9.99999e-01,9.99999e-01,1.27809e-12,9.99999e-01
4.810655710e-01,2.19525e-12,9.99999e-01,9.99999e-01,2.19525e-12,9.99999e-01
4.834708988e-01,3.73052e-12,9.99999e-01,9.99999e-01,3.73052e-12,9.99999e-01
4.858882533e-01,6.27343e-12,9.99999e-01,9.99999e-01,6.27343e-12,9.99999e-01
4.883176946e-01,1.04420e-11,9.99999e-01,9.99999e-01,1.04420e-11,9.99999e-01
4.907592831e-01,1.72063e-11,9.99999e-01,9.99999e-01,1.72063e-11,9.99999e-01
4.932130795e-01,2.80744e-11,9.99999e-01,9.99999e-01,2.80744e-11,9.99999e-01
4.956791449e-01,4.53662e-11,9.99999e-01,9.99999e-01,4.53662e-11,9.99999e-01
4.981575406e-01,7.26169e-11,9.99999e-01,9.99999e-01,7.26169e-11,9.99999e-01
5.006483283e-01,1.15161e-10,9.99999e-01,9.99999e-01,1.15161e-10,9.99999e-01
5.031515699e-01,1.80976e-10,9.99999e-01,9.99999e-01,1.80976e-10,9.99999e-01
5.056673278e-01,2.81875e-10,9.99999e-01,9.99999e-01,2.81875e-10,9.99999e-01
5.081956644e-01,4.35203e-10,9.99999e-01,9.99999e-01,4.35203e-10,9.99999e-01
5.107366428e-01,6.66195e-10,9.99999e-01,9.99999e-01,6.66195e-10,9.99999e-01
5.132903260e-01,1.01125e-09,9.99999e-01,9.99999e-01,1.01125e-09,9.99999e-01
5.158567776e-01,1.52242e-09,9.99999e-01,9.99999e-01,1.52242e-09,9.99999e-01
5.184360615e-01,2.27353e-09,9.99999e-01,9.99999e-01,2.27353e-09,9.99999e-01
5.210282418e-01,3.36843e-09,9.99999e-01,9.99999e-01,3.36843e-09,9.99999e-01
5.236333830e-01,4.95201e-09,9.99999e-01,9.99999e-01,4.95201e-09,9.99999e-01
5.262515499e-01,7.22488e-09,9.99999e-01,9.99999e-01,7.22488e-09,9.99999e-01
5.288828077e-01,1.04626e-08,9.99999e-01,9.99999e-01,1.04626e-08,9.99999e-01
5.315272217e-01,1.50408e-08,9.99999e-01,9.99999e-01,1.50408e-08,9.99999e-01
5.341848578e-01,2.14679e-08,9.99999e-01,9.99999e-01,2.14679e-08,9.99999e-01
5.368557821e-01,3.04267e-08,9.99999e-01,9.99999e-01,3.04267e-08,9.99999e-01
5.395400610e-01,4.28281e-08,9.99999e-01,9.99999e-01,4.28281e-08,9.99999e-01
5.422377613e-01,5.98785e-08,9.99999e-01,9.99999e-01,5.98785e-08,9.99999e-01
5.449489501e-01,8.31644e-08,9.99999e-01,9.99999e-01,8.31644e-08,9.99999e-01
5.476736949e-01,1.14759e-07,9.99999e-01,9.99999e-01,1.14759e-07,9.99999e-01
5.504120634e-01,1.57352e-07,9.99999e-01,9.99999e-01,1.57352e-07,9.99999e-01
5.531641237e-01,2.14413e-07,9.99999e-01,9.99999e-01,2.14413e-07,9.99999e-01
5.559299443e-01,2.90386e-07,9.99999e-01,9.99999e-01,2.90386e-07,9.99999e-01
5.587095940e-01,3.90929e-07,9.99999e-01,9.99999e-01,3.90929e-07,9.99999e-01
5.615031420e-01,5.23203e-07,9.99999e-01,9.99999e-01,5.23203e-07,9.99999e-01
5.643106577e-01,6.96213e-07,9.99999e-01,9.99999e-01,6.96213e-07,9.99999e-01
5.671322110e-01,9.21219e-07,9.99999e-01,9.99999e-01,9.21219e-07,9.99999e-01
5.699678720e-01,1.21222e-06,9.99999e-01,9.99999e-01,1.21222e-06,9.99999e-01
5.728177114e-01,1.58652e-06,9.99999e-01,9.99999e-01,1.58652e-06,9.99999e-01
5.756818000e-01,2.06539e-06,9.99999e-01,9.99999e-01,2.06539e-06,9.99999e-01
5.785602090e-01,2.67482e-06,9.99999e-01,9.99999e-01,2.67482e-06,9.99999e-01
5.814530100e-01,3.44643e-06,9.99999e-01,9.99999e-01,3.44643e-06,9.99999e-01
5.843602750e-01,4.41844e-06,9.99999e-01,9.99999e-01,4.41844e-06,9.99999e-01
5.872820764e-01,5.63688e-06,9.99999e-01,9.99999e-01,5.63688e-06,9.99999e-01
5.902184868e-01,7.15679e-06,9.99999e-01,9.99999e-01,7.15679e-06,9.99999e-01
5.931695792e-01,9.04379e-06,9.99999e-01,9.99999e-01,9.04379e-06,9.99999e-01
5.961354271e-01,1.13756e-05,9.99999e-01,9.99999e-01,1.13756e-05,9.99999e-01
5.991161043e-01,1.42440e-05,9.99999e-01,9.99999e-01,1.42440e-05,9.99999e-01
6.021116848e-01,1.77566e-05,9.99999e-01,9.99999e-01,1.77566e-05,9.99999e-01
6.051222432e-01,2.20392e-05,9.99999e-01,9.99999e-01,2.20392e-05,9.99999e-01
6.081478544e-01,2.72383e-05,9.99999e-01,9.99999e-01,2.72383e-05,9.99999e-01
6.111885937e-01,3.35233e-05,9.99999e-01,9.99999e-01,3.35233e-05,9.99999e-01
6.142445367e-01,4.10896e-05,9.99999e-01,9.99999e-01,4.10896e-05,9.99999e-01
6.173157594e-01,5.01616e-05,9.99999e-01,9.99999e-01,5.01616e-05,9.99999e-01
6.204023382e-01,6.09958e-05,9.99999e-01,9.99999e-01,6.09958e-05,9.99999e-01
6.235043498e-01,7.38840e-05,9.99999e-01,9.99999e-01,7.38840e-05,9.99999e-01
6.266218716e-01,8.91573e-05,9.99999e-01,9.99999e-01,8.91573e-05,9.99999e-01
6.297549810e-01,1.07189e-04,9.99999e-01,9.99999e-01,1.07189e-04,9.99999e-01
6.329037559e-01,1.28400e-04,9.99999e-01,9.99999e-01,1.28400e-04,9.99999e-01
6.360682746e-01,1.53261e-04,9.99999e-01,9.99999e-01,1.53261e-04,9.99999e-01
6.392486160e-01,1.82297e-04,9.99999e-01,9.99999e-01,1.82297e-04,9.99999e-01
6.424448591e-01,2.16091e-04,9.99999e-01,9.99999e-01,2.16091e-04,9.99999e-01
6.456570834e-01,2.55292e-04,9.99999e-01,9.99999e-01,2.55292e-04,9.99999e-01
6.488853688e-01,3.00613e-04,9.99999e-01,9.99999e-01,3.00613e-04,9.99999e-01
6.521297956e-01,3.52838e-04,9.99999e-01,9.99999e-01,3.52838e-04,9.99999e-01
6.553904446e-01,4.12828e-04,9.99999e-01,9.99999e-01,4.12828e-04,9.99999e-01
6.586673968e-01,4.81522e-04,9.99999e-01,9.99999e-01,4.81522e-04,9.99999e-01
6.619607338e-01,5.59942e-04,9.99999e-01,9.99999e-01,5.59942e-04,9.99999e-01
6.652705375e-01,6.49195e-04,9.99999e-01,9.99999e-01,6.49195e-04,9.99999e-01
6.685968902e-01,7.50479e-04,9.99999e-01,9.99999e-01,7.50479e-04,9.99999e-01
6.719398746e-01,8.65084e-04,9.99999e-01,9.99999e-01,8.65084e-04,9.99999e-01
6.752995740e-01,9.94395e-04,9.99999e-01,9.99999e-01,9.94395e-04,9.99999e-01
6.786760719e-01,1.13989e-03,9.99999e-01,9.99999e-01,1.13989e-03,9.99999e-01
6.820694522e-01,1.30316e-03,9.99999e-01,9.99999e-01,1.30316e-03,9.99999e-01
6.854797995e-01,1.48588e-03,9.99999e-01,9.99999e-01,1.48588e-03,9.99999e-01
6.889071985e-01,1.68984e-03,9.99999e-01,9.99999e-01,1.68984e-03,9.99999e-01
6.923517345e-01,1.91691e-03,9.99999e-01,9.99999e-01,1.91691e-03,9.99999e-01
6.958134932e-01,2.16909e-03,9.99999e-01,9.99999e-01,2.16909e-03,9.99999e-01
6.992925606e-01,2.44846e-03,9.99999e-01,9.99999e-01,2.44846e-03,9.99999e-01
7.027890234e-01,2.75720e-03,9.99999e-01,9.99999e-01,2.75720e-03,9.99999e-01
7.063029686e-01,3.09760e-03,9.99999e-01,9.99999e-01,3.09760e-03,9.99999e-01
7.098344834e-01,3.47203e-03,9.99999e-01,9.99999e-01,3.47203e-03,9.99999e-01
7.133836558e-01,3.88296e-03,9.99999e-01,9.99999e-01,3.88296e-03,9.99999e-01
7.169505741e-01,4.33295e-03,9.99999e-01,9.99999e-01,4.33295e-03,9.99999e-01
7.205353270e-01,4.82462e-03,9.99999e-01,9.99999e-01,4.82462e-03,9.99999e-01
7.241380036e-01,5.36068e-03,9.99999e-01,9.99999e-01,5.36068e-03,9.99999e-01
7.277586936e-01,5.94393e-03,9.99999e-01,9.99999e-01,5.94393e-03,9.99999e-01
7.313974871e-01,6.57720e-03,9.99999e-01,9.99999e-01,6.57720e-03,9.99999e-01
7.350544745e-01,7.26340e-03,9.99999e-01,9.99999e-01,7.26340e-03,9.99999e-01
7.387297469e-01,8.00549e-03,9.99999e-01,9.99999e-01,8.00549e-03,9.99999e-01
7.424233956e-01,8.80646e-03,9.99999e-01,9.99999e-01,8.80646e-03,9.99999e-01
7.461355126e-01,9.66933e-03,9.99999e-01,9.99999e-01,9.66933e-03,9.99999e-01
7.498661902e-01,1.05972e-02,9.99999e-01,9.99999e-01,1.05972e-02,9.99999e-01
7.536155211e-01,1.15930e-02,9.99999e-01,9.99999e-01,1.15930e-02,9.99999e-01
7.573835987e-01,1.26600e-02,9.99999e-01,9.99999e-01,1.26600e-02,9.99999e-01
7.611705167e-01,1.38012e-02,9.99999e-01,9.99999e-01,1.38012e-02,9.99999e-01
7.649763693e-01,1.50196e-02,9.99999e-01,9.99999e-01,1.50196e-02,9.99999e-01
7.688012511e-01,1.63182e-02,9.99999e-01,9.99999e-01,1.63182e-02,9.99999e-01
7.726452574e-01,1.77001e-02,9.99999e-01,9.99999e-01,1.77001e-02,9.99999e-01
7.765084837e-01,1.91683e-02,9.99999e-01,9.99999e-01,1.91683e-02,9.99999e-01
7.803910261e-01,1.81251e-02,9.99999e-01,8.74525e-01,2.07256e-02,9.99999e-01
7.842929812e-01,1.07981e-02,9.99999e-01,4.82601e-01,2.23748e-02,9.99999e-01
7.882144461e-01,1.12961e-02,9.99999e-01,4.68351e-01,2.41188e-02,9.99999e-01
7.921555184e-01,1.59712e-02,9.99999e-01,6.15215e-01,2.59602e-02,9.99999e-01
7.961162960e-01,2.00001e-02,9.99999e-01,7.16806e-01,2.79017e-02,9.99999e-01
8.000968774e-01,2.49883e-02,9.99999e-01,8.34455e-01,2.99456e-02,9.99999e-01
8.040973618e-01,2.92091e-02,9.99999e-01,9.10099e-01,3.20944e-02,9.99999e-01
8.081178486e-01,3.28948e-02,9.99999e-01,9.57627e-01,3.43503e-02,9.99999e-01
8.121584379e-01,3.62270e-02,9.99999e-01,9.86693e-01,3.67155e-02,9.99999e-01
8.162192301e-01,3.90762e-02,9.99999e-01,9.97044e-01,3.91920e-02,9.99999e-01
8.203003262e-01,4.17797e-02,9.99999e-01,9.99954e-01,4.17816e-02,9.99999e-01
8.244018279e-01,4.44861e-02,9.99999e-01,9.99999e-01,4.44861e-02,9.99999e-01
8.285238370e-01,4.73070e-02,9.99999e-01,9.99999e-01,4.73070e-02,9.99999e-01
8.326664562e-01,5.02457e-02,9.99999e-01,9.99999e-01,5.02457e-02,9.99999e-01
8.368297885e-01,5.33034e-02,9.99999e-01,9.99999e-01,5.33034e-02,9.99999e-01
8.410139374e-01,5.64813e-02,9.99999e-01,9.99999e-01,5.64813e-02,9.99999e-01
8.452190071e-01,5.97803e-02,9.99999e-01,9.99999e-01,5.97803e-02,9.99999e-01
8.494451021e-01,6.32010e-02,9.99999e-01,9.99999e-01,6.32010e-02,9.99999e-01
8.536923276e-01,6.67440e-02,9.99999e-01,9.99999e-01,6.67440e-02,9.99999e-01
8.579607893e-01,7.04098e-02,9.99999e-01,9.99999e-01,7.04098e-02,9.99999e-01
8.622505932e-01,7.41985e-02,9.99999e-01,9.99999e-01,7.41985e-02,9.99999e-01
8.665618462e-01,6.55554e-02,9.99999e-01,8.39267e-01,7.81102e-02,9.99999e-01
8.708946554e-01,1.43368e-02,9.99999e-01,1.74530e-01,8.21447e-02,9.99999e-01
8.752491287e-01,1.91663e-02,9.99999e-01,2.22085e-01,8.63017e-02,9.99999e-01
8.796253743e-01,3.85160e-02,9.99999e-01,4.25212e-01,9.05807e-02,9.99999e-01
8.840235012e-01,6.00444e-02,9.99999e-01,6.32172e-01,9.49810e-02,9.99999e-01
8.884436187e-01,8.28259e-02,9.99999e-01,8.32406e-01,9.95018e-02,9.99999e-01
8.928858368e-01,9.66477e-02,9.99999e-01,9.28037e-01,1.04142e-01,9.99999e-01
8.973502660e-01,1.06939e-01,9.99999e-01,9.81985e-01,1.08901e-01,9.99999e-01
9.018370173e-01,1.13548e-01,9.99999e-01,9.97996e-01,1.13776e-01,9.99999e-01
9.063462024e-01,1.13066e-01,9.99999e-01,9.51993e-01,1.18767e-01,9.99999e-01
9.108779334e-01,1.10161e-01,9.99999e-01,8.89310e-01,1.23872e-01,9.99999e-01
9.154323231e-01,1.25571e-01,9.99999e-01,9.72742e-01,1.29089e-01,9.99999e-01
9.200094847e-01,9.87448e-02,9.99999e-01,7.34618e-01,1.34416e-01,9.99999e-01
9.246095321e-01,7.93119e-02,9.99999e-01,5.67115e-01,1.39852e-01,9.99999e-01
9.292325798e-01,9.46341e-02,9.99999e-01,6.50886e-01,1.45393e-01,9.99999e-01
9.338787427e-01,9.87576e-02,9.99999e-01,6.53862e-01,1.51037e-01,9.99999e-01
9.385481364e-01,1.14199e-01,9.99999e-01,7.28386e-01,1.56783e-01,9.99999e-01
9.432408771e-01,1.33638e-01,9.99999e-01,8.21744e-01,1.62628e-01,9.99999e-01
9.479570815e-01,1.52391e-01,9.99999e-01,9.04032e-01,1.68568e-01,9.99999e-01
9.526968669e-01,1.66323e-01,9.99999e-01,9.52583e-01,1.74602e-01,9.99999e-01
9.574603512e-01,1.77002e-01,9.99999e-01,9.79397e-01,1.80726e-01,9.99999e-01
9.622476530e-01,1.85726e-01,9.99999e-01,9.93522e-01,1.86937e-01,9.99999e-01
9.670588912e-01,1.92857e-01,9.99999e-01,9.98054e-01,1.93233e-01,9.99999e-01
9.718941857e-01,1.99583e-01,9.99999e-01,9.99861e-01,1.99610e-01,9.99999e-01
9.767536566e-01,2.06066e-01,9.99999e-01,9.99999e-01,2.06066e-01,9.99999e-01
9.816374249e-01,2.12596e-01,9.99999e-01,9.99999e-01,2.12596e-01,9.99999e-01
9.865456120e-01,2.19199e-01,9.99999e-01,9.99999e-01,2.19199e-01,9.99999e-01
9.914783401e-01,2.25870e-01,9.99999e-01,9.99999e-01,2.25870e-01,9.99999e-01
9.964357318e-01,2.32606e-01,9.99999e-01,9.99999e-01,2.32606e-01,9.99999e-01
1.001417910e+00,2.39404e-01,9.99999e-01,9.99999e-01,2.39404e-01,9.99999e-01
1.006425000e+00,2.46261e-01,9.99999e-01,9.99999e-01,2.46261e-01,9.99999e-01
1.011457125e+00,2.53173e-01,9.99999e-01,9.99999e-01,2.53173e-01,9.99999e-01
1.016514411e+00,2.60136e-01,9.99999e-01,9.99999e-01,2.60136e-01,9.99999e-01
1.021596983e+00,2.67078e-01,9.99999e-01,9.99736e-01,2.67148e-01,9.99999e-01
1.026704968e+00,2.68861e-01,9.99999e-01,9.80509e-01,2.74205e-01,9.99999e-01
1.031838492e+00,2.44319e-01,9.99999e-01,8.68524e-01,2.81303e-01,9.99999e-01
1.036997685e+00,7.45543e-03,9.99999e-01,2.58474e-02,2.88440e-01,9.99999e-01
1.042182673e+00,7.46177e-05,9.99999e-01,2.52418e-04,2.95611e-01,9.99999e-01
1.047393587e+00,2.16190e-04,9.99999e-01,7.13939e-04,3.02813e-01,9.99999e-01
1.052630555e+00,1.79500e-10,9.99999e-01,5.78950e-10,3.10044e-01,9.99999e-01
1.057893707e+00,6.67769e-10,9.99999e-01,2.10454e-09,3.17299e-01,9.99999e-01
1.063183176e+00,1.91725e-07,9.99999e-01,5.90693e-07,3.24576e-01,9.99999e-01
1.068499092e+00,4.68468e-06,9.99999e-01,1.41160e-05,3.31870e-01,9.99999e-01
1.073841587e+00,2.14177e-04,9.99999e-01,6.31454e-04,3.39180e-01,9.99999e-01
1.079210795e+00,3.58211e-03,9.99999e-01,1.03379e-02,3.46502e-01,9.99999e-01
1.084606849e+00,2.48335e-02,9.99999e-01,7.01842e-02,3.53832e-01,9.99999e-01
1.090029883e+00,8.89809e-02,9.99999e-01,2.46369e-01,3.61169e-01,9.99999e-01
1.095480033e+00,1.83695e-01,9.99999e-01,4.98482e-01,3.68507e-01,9.99999e-01
1.100957433e+00,2.67784e-01,9.99999e-01,7.12483e-01,3.75846e-01,9.99999e-01
1.106462220e+00,3.32880e-01,9.99999e-01,8.68726e-01,3.83182e-01,9.99999e-01
1.111994531e+00,3.70611e-01,9.99999e-01,9.49040e-01,3.90511e-01,9.99999e-01
1.117554504e+00,3.92780e-01,9.99999e-01,9.87299e-01,3.97832e-01,9.99999e-01
1.123142276e+00,4.04801e-01,9.99999e-01,9.99160e-01,4.05141e-01,9.99999e-01
1.128757988e+00,4.12437e-01,9.99999e-01,9.99999e-01,4.12437e-01,9.99999e-01
1.134401778e+00,4.19715e-01,9.99999e-01,9.99999e-01,4.19715e-01,9.99999e-01
1.140073787e+00,4.26975e-01,9.99999e-01,9.99999e-01,4.26975e-01,9.99999e-01
1.145774156e+00,4.34213e-01,9.99999e-01,9.99999e-01,4.34213e-01,9.99999e-01
1.151503026e+00,4.41427e-01,9.99999e-01,9.99999e-01,4.41427e-01,9.99999e-01
1.157260541e+00,4.48615e-01,9.99999e-01,9.99999e-01,4.48615e-01,9.99999e-01
1.163046844e+00,4.55775e-01,9.99999e-01,9.99999e-01,4.55775e-01,9.99999e-01
1.168862078e+00,4.62904e-01,9.99999e-01,9.99999e-01,4.62904e-01,9.99999e-01
1.174706389e+00,4.70001e-01,9.99999e-01,9.99999e-01,4.70001e-01,9.99999e-01
1.180579921e+00,4.77062e-01,9.99999e-01,9.99999e-01,4.77062e-01,9.99999e-01
1.186482820e+00,4.84071e-01,9.99999e-01,9.99965e-01,4.84088e-01,9.99999e-01
1.192415234e+00,4.59852e-01,9.99999e-01,9.36419e-01,4.91075e-01,9.99999e-01
1.198377311e+00,2.38458e-01,9.99999e-01,4.78811e-01,4.98022e-01,9.99999e-01
1.204369197e+00,4.23609e-50,9.99999e-01,8.38951e-50,5.04927e-01,9.99999e-01
1.210391043e+00,7.77880e-208,9.99999e-01,1.51992e-207,5.11788e-01,9.99999e-01
1.216442998e+00,1.25664e-179,9.99999e-01,2.42311e-179,5.18605e-01,9.99999e-01
1.222525213e+00,6.57870e-177,9.99999e-01,1.25219e-176,5.25375e-01,9.99999e-01
1.228637839e+00,3.98996e-136,9.99999e-01,7.49856e-136,5.32097e-01,9.99999e-01
1.234781029e+00,4.71719e-84,9.99999e-01,8.75547e-84,5.38769e-01,9.99999e-01
1.240954934e+00,2.59144e-55,9.99999e-01,4.75153e-55,5.45392e-01,9.99999e-01
1.247159708e+00,9.36771e-26,9.99999e-01,1.69717e-25,5.51962e-01,9.99999e-01
1.253395507e+00,1.47488e-17,9.99999e-01,2.64088e-17,5.58479e-01,9.99999e-01
1.259662485e+00,4.67447e-10,9.99999e-01,8.27424e-10,5.64942e-01,9.99999e-01
1.265960797e+00,8.12434e-06,9.99999e-01,1.42195e-05,5.71351e-01,9.99999e-01
1.272290601e+00,2.26102e-03,9.99999e-01,3.91380e-03,5.77703e-01,9.99999e-01
1.278652054e+00,2.51142e-03,9.99999e-01,4.30038e-03,5.83998e-01,9.99999e-01
1.285045314e+00,1.51595e-07,9.99999e-01,2.56837e-07,5.90236e-01,9.99999e-01
1.291470541e+00,1.73985e-23,9.99999e-01,2.91718e-23,5.96414e-01,9.99999e-01
1.297927893e+00,2.35075e-09,9.99999e-01,3.90144e-09,6.02534e-01,9.99999e-01
1.304417533e+00,2.12486e-05,9.99999e-01,3.49141e-05,6.08594e-01,9.99999e-01
1.310939621e+00,6.72784e-06,9.99999e-01,1.09468e-05,6.14593e-01,9.99999e-01
1.317494319e+00,1.23865e-69,9.99999e-01,1.99611e-69,6.20531e-01,9.99999e-01
1.324081790e+00,3.94013e-45,9.99999e-01,6.29003e-45,6.26407e-01,9.99999e-01
1.330702199e+00,7.78015e-27,9.99999e-01,1.23060e-26,6.32222e-01,9.99999e-01
1.337355710e+00,3.83540e-24,9.99999e-01,6.01184e-24,6.37974e-01,9.99999e-01
1.344042489e+00,2.58166e-24,9.99999e-01,4.01089e-24,6.43663e-01,9.99999e-01
1.350762701e+00,3.32419e-27,9.99999e-01,5.11973e-27,6.49289e-01,9.99999e-01
1.357516515e+00,6.69948e-16,9.99999e-01,1.02305e-15,6.54851e-01,9.99999e-01
1.364304097e+00,7.37523e-12,9.99999e-01,1.11686e-11,6.60350e-01,9.99999e-01
1.371125618e+00,1.83335e-06,9.99999e-01,2.75366e-06,6.65785e-01,9.99999e-01
1.377981246e+00,9.35591e-06,9.99999e-01,1.39400e-05,6.71157e-01,9.99999e-01
1.384871152e+00,9.31016e-04,9.99999e-01,1.37630e-03,6.76464e-01,9.99999e-01
1.391795508e+00,1.69409e-03,9.99999e-01,2.48507e-03,6.81707e-01,9.99999e-01
1.398754485e+00,1.40827e-02,9.99999e-01,2.05023e-02,6.86886e-01,9.99999e-01
1.405748258e+00,4.20251e-02,9.99999e-01,6.07298e-02,6.92000e-01,9.99999e-01
1.412776999e+00,1.15595e-01,9.99999e-01,1.65834e-01,6.97051e-01,9.99999e-01
1.419840884e+00,1.22107e-01,9.99998e-01,1.73932e-01,7.02038e-01,9.99999e-01
1.426940089e+00,3.07078e-03,9.99998e-01,4.34364e-03,7.06961e-01,9.99999e-01
1.434074789e+00,0.00000e+00,9.99998e-01,0.00000e+00,7.11820e-01,9.99999e-01
1.441245163e+00,0.00000e+00,9.99999e-01,0.00000e+00,7.16615e-01,9.99999e-01
1.448451389e+00,0.00000e+00,9.99998e-01,0.00000e+00,7.21348e-01,9.99999e-01
1.455693646e+00,0.00000e+00,9.99999e-01,0.00000e+00,7.26017e-01,9.99999e-01
1.462972114e+00,0.00000e+00,9.99999e-01,0.00000e+00,7.30623e-01,9.99999e-01
1.470286975e+00,0.00000e+00,9.99999e-01,0.00000e+00,7.35166e-01,9.99999e-01
