#,Wave/freq,Total,N2,CO2,Rayleigh,CIA
4.000000000e-01,2.62158e-16,9.99999e-01,9.99999e-01,2.62158e-16,9.99999e-01
4.020000000e-01,5.32913e-16,9.99999e-01,9.99999e-01,5.32913e-16,9.99999e-01
4.040100000e-01,1.06744e-15,9.99999e-01,9.99999e-01,1.06744e-15,9.99999e-01
4.060300500e-01,2.10897e-15,9.99999e-01,9.99999e-01,2.10897e-15,9.99999e-01
4.080602003e-01,4.11108e-15,9.99999e-01,9.99999e-01,4.11108e-15,9.99999e-01
4.101005013e-01,7.90891e-15,9.99999e-01,9.99999e-01,7.90891e-15,9.99999e-01
4.121510038e-01,1.50198e-14,9.99999e-01,9.99999e-01,1.50198e-14,9.99999e-01
4.142117588e-01,2.81649e-14,9.99999e-01,9.99999e-01,2.81649e-14,9.99999e-01
4.162828176e-01,5.21628e-14,9.99999e-01,9.99999e-01,5.21628e-14,9.99999e-01
4.183642317e-01,9.54389e-14,9.99999e-01,9.99999e-01,9.54389e-14,9.99999e-01
4.204560528e-01,1.72547e-13,9.99999e-01,9.99999e-01,1.72547e-13,9.99999e-01
4.225583331e-01,3.08327e-13,9.99999e-01,9.99999e-01,3.08327e-13,9.99999e-01
4.246711247e-01,5.44671e-13,9.99999e-01,9.99999e-01,5.44671e-13,9.99999e-01
4.267944804e-01,9.51427e-13,9.99999e-01,9.99999e-01,9.51427e-13,9.99999e-01
4.289284528e-01,1.64374e-12,9.99999e-01,9.99999e-01,1.64374e-12,9.99999e-01
4.310730950e-01,2.80931e-12,9.99999e-01,9.99999e-01,2.80931e-12,9.99999e-01
4.332284605e-01,4.75081e-12,9.99999e-01,9.99999e-01,4.75081e-12,9.99999e-01
4.353946028e-01,7.95115e-12,9.99999e-01,9.99999e-01,7.95115e-12,9.99999e-01
4.375715758e-01,1.31727e-11,9.99999e-01,9.99999e-01,1.31727e-11,9.99999e-01
4.397594337e-01,2.16066e-11,9.99999e-01,9.99999e-01,2.16066e-11,9.99999e-01
4.419582309e-01,3.50958e-11,9.99999e-01,9.99999e-01,3.50958e-11,9.99999e-01
4.441680220e-01,5.64628e-11,9.99999e-01,9.99999e-01,5.64628e-11,9.99999e-01
4.463888621e-01,8.99893e-11,9.99999e-01,9.99999e-01,8.99893e-11,9.99999e-01
4.486208064e-01,1.42109e-10,9.99999e-01,9.99999e-01,1.42109e-10,9.99999e-01
4.508639105e-01,2.22398e-10,9.99999e-01,9.99999e-01,2.22398e-10,9.99999e-01
4.531182300e-01,3.44984e-10,9.99999e-01,9.99999e-01,3.44984e-10,9.99999e-01
4.553838212e-01,5.30518e-10,9.99999e-01,9.99999e-01,5.30518e-10,9.99999e-01
4.576607403e-01,8.08929e-10,9.99999e-01,9.99999e-01,8.08929e-10,9.99999e-01
4.599490440e-01,1.22321e-09,9.99999e-01,9.99999e-01,1.22321e-09,9.99999e-01
4.622487892e-01,1.83462e-09,9.99999e-01,9.99999e-01,1.83462e-09,9.99999e-01
4.645600332e-01,2.72968e-09,9.99999e-01,9.99999e-01,2.72968e-09,9.99999e-01
4.668828333e-01,4.02968e-09,9.99999e-01,9.99999e-01,4.02968e-09,9.99999e-01
4.692172475e-01,5.90319e-09,9.99999e-01,9.99999e-01,5.90319e-09,9.99999e-01
4.715633337e-01,8.58279e-09,9.99999e-01,9.99999e-01,8.58279e-09,9.99999e-01
4.739211504e-01,1.23868e-08,9.99999e-01,9.99999e-01,1.23868e-08,9.99999e-01
4.762907561e-01,1.77477e-08,9.99999e-01,9.99999e-01,1.77477e-08,9.99999e-01
4.786722099e-01,2.52488e-08,9.99999e-01,9.99999e-01,2.52488e-08,9.99999e-01
4.810655710e-01,3.56711e-08,9.99999e-01,9.99999e-01,3.56711e-08,9.99999e-01
4.834708988e-01,5.00526e-08,9.99999e-01,9.99999e-01,5.00526e-08,9.99999e-01
4.858882533e-01,6.97639e-08,9.99999e-01,9.99999e-01,6.97639e-08,9.99999e-01
4.883176946e-01,9.66021e-08,9.99999e-01,9.99999e-01,9.66021e-08,9.99999e-01
4.907592831e-01,1.32908e-07,9.99999e-01,9.99999e-01,1.32908e-07,9.99999e-01
4.932130795e-01,1.81709e-07,9.99999e-01,9.99999e-01,1.81709e-07,9.99999e-01
4.956791449e-01,2.46900e-07,9.99999e-01,9.99999e-01,2.46900e-07,9.99999e-01
4.981575406e-01,3.33454e-07,9.99999e-01,9.99999e-01,3.33454e-07,9.99999e-01
5.006483283e-01,4.47684e-07,9.99999e-01,9.99999e-01,4.47684e-07,9.99999e-01
5.031515699e-01,5.97559e-07,9.99999e-01,9.99999e-01,5.97559e-07,9.99999e-01
5.056673278e-01,7.93072e-07,9.99999e-01,9.99999e-01,7.93072e-07,9.99999e-01
5.081956644e-01,1.04669e-06,9.99999e-01,9.99999e-01,1.04669e-06,9.99999e-01
5.107366428e-01,1.37385e-06,9.99999e-01,9.99999e-01,1.37385e-06,9.99999e-01
5.132903260e-01,1.79362e-06,9.99999e-01,9.99999e-01,1.79362e-06,9.99999e-01
5.158567776e-01,2.32934e-06,9.99999e-01,9.99999e-01,2.32934e-06,9.99999e-01
5.184360615e-01,3.00950e-06,9.99999e-01,9.99999e-01,3.00950e-06,9.99999e-01
5.210282418e-01,3.86863e-06,9.99999e-01,9.99999e-01,3.86863e-06,9.99999e-01
5.236333830e-01,4.94842e-06,9.99999e-01,9.99999e-01,4.94842e-06,9.99999e-01
5.262515499e-01,6.29889e-06,9.99999e-01,9.99999e-01,6.29889e-06,9.99999e-01
5.288828077e-01,7.97979e-06,9.99999e-01,9.99999e-01,7.97979e-06,9.99999e-01
5.315272217e-01,1.00621e-05,9.99999e-01,9.99999e-01,1.00621e-05,9.99999e-01
5.341848578e-01,1.26299e-05,9.99999e-01,9.99999e-01,1.26299e-05,9.99999e-01
5.368557821e-01,1.57819e-05,9.99999e-01,9.99999e-01,1.57819e-05,9.99999e-01
5.395400610e-01,1.96339e-05,9.99999e-01,9.99999e-01,1.96339e-05,9.99999e-01
5.422377613e-01,2.43210e-05,9.99999e-01,9.99999e-01,2.43210e-05,9.99999e-01
5.449489501e-01,2.99999e-05,9.99999e-01,9.99999e-01,2.99999e-05,9.99999e-01
5.476736949e-01,3.68517e-05,9.99999e-01,9.99999e-01,3.68517e-05,9.99999e-01
5.504120634e-01,4.50849e-05,9.99999e-01,9.99999e-01,4.50849e-05,9.99999e-01
5.531641237e-01,5.49383e-05,9.99999e-01,9.99999e-01,5.49383e-05,9.99999e-01
5.559299443e-01,6.66842e-05,9.99999e-01,9.99999e-01,6.66842e-05,9.99999e-01
5.587095940e-01,8.06323e-05,9.99999e-01,9.99999e-01,8.06323e-05,9.99999e-01
5.615031420e-01,9.71327e-05,9.99999e-01,9.99999e-01,9.71327e-05,9.99999e-01
5.643106577e-01,1.16580e-04,9.99999e-01,9.99999e-01,1.16580e-04,9.99999e-01
5.671322110e-01,1.39418e-04,9.99999e-01,9.99999e-01,1.39418e-04,9.99999e-01
5.699678720e-01,1.66142e-04,9.99999e-01,9.99999e-01,1.66142e-04,9.99999e-01
5.728177114e-01,1.97303e-04,9.99999e-01,9.99999e-01,1.97303e-04,9.99999e-01
5.756818000e-01,2.33514e-04,9.99999e-01,9.99999e-01,2.33514e-04,9.99999e-01
5.785602090e-01,2.75453e-04,9.99999e-01,9.99999e-01,2.75453e-04,9.99999e-01
5.814530100e-01,3.23867e-04,9.99999e-01,9.99999e-01,3.23867e-04,9.99999e-01
5.843602750e-01,3.79573e-04,9.99999e-01,9.99999e-01,3.79573e-04,9.99999e-01
5.872820764e-01,4.43468e-04,9.99999e-01,9.99999e-01,4.43468e-04,9.99999e-01
5.902184868e-01,5.16529e-04,9.99999e-01,9.99999e-01,5.16529e-04,9.99999e-01
5.931695792e-01,5.99818e-04,9.99999e-01,9.99999e-01,5.99818e-04,9.99999e-01
5.961354271e-01,6.94483e-04,9.99999e-01,9.99999e-01,6.94483e-04,9.99999e-01
5.991161043e-01,8.01764e-04,9.99999e-01,9.99999e-01,8.01764e-04,9.99999e-01
6.021116848e-01,9.22995e-04,9.99999e-01,9.99999e-01,9.22995e-04,9.99999e-01
6.051222432e-01,1.05961e-03,9.99999e-01,9.99999e-01,1.05961e-03,9.99999e-01
6.081478544e-01,1.21312e-03,9.99999e-01,9.99999e-01,1.21312e-03,9.99999e-01
6.111885937e-01,1.38518e-03,9.99999e-01,9.99999e-01,1.38518e-03,9.99999e-01
6.142445367e-01,1.57749e-03,9.99999e-01,9.99999e-01,1.57749e-03,9.99999e-01
6.173157594e-01,1.79190e-03,9.99999e-01,9.99999e-01,1.79190e-03,9.99999e-01
6.204023382e-01,2.03034e-03,9.99999e-01,9.99999e-01,2.03034e-03,9.99999e-01
6.235043498e-01,2.29483e-03,9.99999e-01,9.99999e-01,2.29483e-03,9.99999e-01
6.266218716e-01,2.58751e-03,9.99999e-01,9.99999e-01,2.58751e-03,9.99999e-01
6.297549810e-01,2.91061e-03,9.99999e-01,9.99999e-01,2.91061e-03,9.99999e-01
6.329037559e-01,3.26646e-03,9.99999e-01,9.99999e-01,3.26646e-03,9.99999e-01
6.360682746e-01,3.65746e-03,9.99999e-01,9.99999e-01,3.65746e-03,9.99999e-01
6.392486160e-01,4.08614e-03,9.99999e-01,9.99999e-01,4.08614e-03,9.99999e-01
6.424448591e-01,4.55508e-03,9.99999e-01,9.99999e-01,4.55508e-03,9.99999e-01
6.456570834e-01,5.06695e-03,9.99999e-01,9.99999e-01,5.06695e-03,9.99999e-01
6.488853688e-01,5.62449e-03,9.99999e-01,9.99999e-01,5.62449e-03,9.99999e-01
6.521297956e-01,6.23052e-03,9.99999e-01,9.99999e-01,6.23052e-03,9.99999e-01
6.553904446e-01,6.88792e-03,9.99999e-01,9.99999e-01,6.88792e-03,9.99999e-01
6.586673968e-01,7.59961e-03,9.99999e-01,9.99999e-01,7.59961e-03,9.99999e-01
6.619607338e-01,8.36856e-03,9.99999e-01,9.99999e-01,8.36856e-03,9.99999e-01
6.652705375e-01,9.19779e-03,9.99999e-01,9.99999e-01,9.19779e-03,9.99999e-01
6.685968902e-01,1.00903e-02,9.99999e-01,9.99999e-01,1.00903e-02,9.99999e-01
6.719398746e-01,1.10493e-02,9.99999e-01,9.99999e-01,1.10493e-02,9.99999e-01
6.752995740e-01,1.20777e-02,9.99999e-01,9.99999e-01,1.20777e-02,9.99999e-01
6.786760719e-01,1.31786e-02,9.99999e-01,9.99999e-01,1.31786e-02,9.99999e-01
6.820694522e-01,1.43551e-02,9.99999e-01,9.99999e-01,1.43551e-02,9.99999e-01
6.854797995e-01,1.56102e-02,9.99999e-01,9.99999e-01,1.56102e-02,9.99999e-01
6.889071985e-01,1.69470e-02,9.99999e-01,9.99999e-01,1.69470e-02,9.99999e-01
6.923517345e-01,1.83685e-02,9.99999e-01,9.99999e-01,1.83685e-02,9.99999e-01
6.958134932e-01,1.98775e-02,9.99999e-01,9.99999e-01,1.98775e-02,9.99999e-01
6.992925606e-01,2.14770e-02,9.99999e-01,9.99999e-01,2.14770e-02,9.99999e-01
7.027890234e-01,2.31698e-02,9.99999e-01,9.99999e-01,2.31698e-02,9.99999e-01
7.063029686e-01,2.49585e-02,9.99999e-01,9.99999e-01,2.49585e-02,9.99999e-01
7.098344834e-01,2.68459e-02,9.99999e-01,9.99999e-01,2.68459e-02,9.99999e-01
7.133836558e-01,2.88344e-02,9.99999e-01,9.99999e-01,2.88344e-02,9.99999e-01
7.169505741e-01,3.09266e-02,9.99999e-01,9.99999e-01,3.09266e-02,9.99999e-01
7.205353270e-01,3.31246e-02,9.99999e-01,9.99999e-01,3.31246e-02,9.99999e-01
7.241380036e-01,3.54309e-02,9.99999e-01,9.99999e-01,3.54309e-02,9.99999e-01
7.277586936e-01,3.78473e-02,9.99999e-01,9.99999e-01,3.78473e-02,9.99999e-01
7.313974871e-01,4.03759e-02,9.99999e-01,9.99999e-01,4.03759e-02,9.99999e-01
7.350544745e-01,4.30185e-02,9.99999e-01,9.99999e-01,4.30185e-02,9.99999e-01
7.387297469e-01,4.57766e-02,9.99999e-01,9.99999e-01,4.57766e-02,9.99999e-01
7.424233956e-01,4.86518e-02,9.99999e-01,9.99999e-01,4.86518e-02,9.99999e-01
7.461355126e-01,5.16455e-02,9.99999e-01,9.99999e-01,5.16455e-02,9.99999e-01
7.498661902e-01,5.47587e-02,9.99999e-01,9.99999e-01,5.47587e-02,9.99999e-01
7.536155211e-01,5.79925e-02,9.99999e-01,9.99999e-01,5.79925e-02,9.99999e-01
7.573835987e-01,6.13477e-02,9.99999e-01,9.99999e-01,6.13477e-02,9.99999e-01
7.611705167e-01,6.48250e-02,9.99999e-01,9.99999e-01,6.48250e-02,9.99999e-01
7.649763693e-01,6.84248e-02,9.99999e-01,9.99999e-01,6.84248e-02,9.99999e-01
7.688012511e-01,7.21474e-02,9.99999e-01,9.99999e-01,7.21474e-02,9.99999e-01
7.726452574e-01,7.59930e-02,9.99999e-01,9.99999e-01,7.59930e-02,9.99999e-01
7.765084837e-01,7.99615e-02,9.99999e-01,9.99999e-01,7.99615e-02,9.99999e-01
7.803910261e-01,7.64802e-02,9.99999e-01,9.09906e-01,8.40528e-02,9.99999e-01
7.842929812e-01,5.43685e-02,9.99999e-01,6.15960e-01,8.82663e-02,9.99999e-01
7.882144461e-01,5.56864e-02,9.99999e-01,6.01354e-01,9.26015e-02,9.99999e-01
7.921555184e-01,7.08620e-02,9.99999e-01,7.30102e-01,9.70576e-02,9.99999e-01
7.961162960e-01,8.20300e-02,9.99999e-01,8.07112e-01,1.01634e-01,9.99999e-01
8.000968774e-01,9.46579e-02,9.99999e-01,8.90235e-01,1.06329e-01,9.99999e-01
8.040973618e-01,1.04614e-01,9.99999e-01,9.41267e-01,1.11142e-01,9.99999e-01
8.081178486e-01,1.12896e-01,9.99999e-01,9.72644e-01,1.16071e-01,9.99999e-01
8.121584379e-01,1.20076e-01,9.99999e-01,9.91422e-01,1.21115e-01,9.99999e-01
8.162192301e-01,1.26032e-01,9.99999e-01,9.98099e-01,1.26272e-01,9.99999e-01
8.203003262e-01,1.31536e-01,9.99999e-01,9.99969e-01,1.31540e-01,9.99999e-01
8.244018279e-01,1.36918e-01,9.99999e-01,9.99999e-01,1.36918e-01,9.99999e-01
8.285238370e-01,1.42402e-01,9.99999e-01,9.99999e-01,1.42402e-01,9.99999e-01
8.326664562e-01,1.47991e-01,9.99999e-01,9.99999e-01,1.47991e-01,9.99999e-01
8.368297885e-01,1.53683e-01,9.99999e-01,9.99999e-01,1.53683e-01,9.99999e-01
8.410139374e-01,1.59475e-01,9.99999e-01,9.99999e-01,1.59475e-01,9.99999e-01
8.452190071e-01,1.65364e-01,9.99999e-01,9.99999e-01,1.65364e-01,9.99999e-01
8.494451021e-01,1.71348e-01,9.99999e-01,9.99999e-01,1.71348e-01,9.99999e-01
8.536923276e-01,1.77424e-01,9.99999e-01,9.99999e-01,1.77424e-01,9.99999e-01
8.579607893e-01,1.83589e-01,9.99999e-01,9.99999e-01,1.83589e-01,9.99999e-01
8.622505932e-01,1.89840e-01,9.99999e-01,9.99999e-01,1.89840e-01,9.99999e-01
8.665618462e-01,1.70087e-01,9.99999e-01,8.67021e-01,1.96173e-01,9.99999e-01
8.708946554e-01,6.20974e-02,9.99999e-01,3.06521e-01,2.02587e-01,9.99999e-01
8.752491287e-01,7.74877e-02,9.99999e-01,3.70616e-01,2.09078e-01,9.99999e-01
8.796253743e-01,1.23092e-01,9.99999e-01,5.70813e-01,2.15642e-01,9.99999e-01
8.840235012e-01,1.65203e-01,9.99999e-01,7.43230e-01,2.22277e-01,9.99999e-01
8.884436187e-01,2.03456e-01,9.99999e-01,8.88538e-01,2.28979e-01,9.99999e-01
8.928858368e-01,2.24711e-01,9.99999e-01,9.53199e-01,2.35744e-01,9.99999e-01
8.973502660e-01,2.39749e-01,9.99999e-01,9.88372e-01,2.42570e-01,9.99999e-01
9.018370173e-01,2.49131e-01,9.99999e-01,9.98710e-01,2.49452e-01,9.99999e-01
9.063462024e-01,2.48381e-01,9.99999e-01,9.68769e-01,2.56388e-01,9.99999e-01
9.108779334e-01,2.44255e-01,9.99999e-01,9.27405e-01,2.63375e-01,9.99999e-01
9.154323231e-01,2.65634e-01,9.99999e-01,9.82343e-01,2.70408e-01,9.99999e-01
9.200094847e-01,2.22981e-01,9.99999e-01,8.03580e-01,2.77484e-01,9.99999e-01
9.246095321e-01,1.97371e-01,9.99999e-01,6.93503e-01,2.84600e-01,9.99999e-01
9.292325798e-01,2.20633e-01,9.99999e-01,7.56232e-01,2.91753e-01,9.99999e-01
9.338787427e-01,2.27007e-01,9.99999e-01,7.59373e-01,2.98939e-01,9.99999e-01
9.385481364e-01,2.49621e-01,9.99999e-01,8.15341e-01,3.06155e-01,9.99999e-01
9.432408771e-01,2.76282e-01,9.99999e-01,8.81570e-01,3.13397e-01,9.99999e-01
9.479570815e-01,3.00596e-01,9.99999e-01,9.37420e-01,3.20663e-01,9.99999e-01
9.526968669e-01,3.17886e-01,9.99999e-01,9.69316e-01,3.27948e-01,9.99999e-01
9.574603512e-01,3.30806e-01,9.99999e-01,9.86743e-01,3.35251e-01,9.99999e-01
9.622476530e-01,3.41142e-01,9.99999e-01,9.95842e-01,3.42566e-01,9.99999e-01
9.670588912e-01,3.49456e-01,9.99999e-01,9.98750e-01,3.49893e-01,9.99999e-01
9.718941857e-01,3.57194e-01,9.99999e-01,9.99910e-01,3.57226e-01,9.99999e-01
9.767536566e-01,3.64564e-01,9.99999e-01,9.99999e-01,3.64564e-01,9.99999e-01
9.816374249e-01,3.71903e-01,9.99999e-01,9.99999e-01,3.71903e-01,9.99999e-01
9.865456120e-01,3.79240e-01,9.99999e-01,9.99999e-01,3.79240e-01,9.99999e-01
9.914783401e-01,3.86574e-01,9.99999e-01,9.99999e-01,3.86574e-01,9.99999e-01
9.964357318e-01,3.93899e-01,9.99999e-01,9.99999e-01,3.93899e-01,9.99999e-01
1.001417910e+00,4.01215e-01,9.99999e-01,9.99999e-01,4.01215e-01,9.99999e-01
1.006425000e+00,4.08519e-01,9.99999e-01,9.99999e-01,4.08519e-01,9.99999e-01
1.011457125e+00,4.15806e-01,9.99999e-01,9.99999e-01,4.15806e-01,9.99999e-01
1.016514411e+00,4.23077e-01,9.99999e-01,9.99999e-01,4.23077e-01,9.99999e-01
1.021596983e+00,4.30258e-01,9.99999e-01,9.99839e-01,4.30327e-01,9.99999e-01
1.026704968e+00,4.32108e-01,9.99999e-01,9.87553e-01,4.37554e-01,9.99999e-01
1.031838492e+00,4.01677e-01,9.99999e-01,9.03139e-01,4.44756e-01,9.99999e-01
1.036997685e+00,2.12641e-02,9.99999e-01,4.70517e-02,4.51931e-01,9.99999e-01
1.042182673e+00,1.09390e-03,9.99999e-01,2.38281e-03,4.59077e-01,9.99999e-01
1.047393587e+00,3.03089e-03,9.99999e-01,6.50138e-03,4.66191e-01,9.99999e-01
1.052630555e+00,1.91563e-07,9.99999e-01,4.04763e-07,4.73272e-01,9.99999e-01
1.057893707e+00,7.12835e-07,9.99999e-01,1.48409e-06,4.80317e-01,9.99999e-01
1.063183176e+00,2.44523e-05,9.99999e-01,5.01764e-05,4.87325e-01,9.99999e-01
1.068499092e+00,2.78658e-04,9.99999e-01,5.63748e-04,4.94294e-01,9.99999e-01
1.073841587e+00,3.96646e-03,9.99999e-01,7.91358e-03,5.01222e-01,9.99999e-01
1.079210795e+00,2.44828e-02,9.99999e-01,4.81843e-02,5.08107e-01,9.99999e-01
1.084606849e+00,9.12781e-02,9.99999e-01,1.77257e-01,5.14948e-01,9.99999e-01
1.090029883e+00,2.10639e-01,9.99999e-01,4.03722e-01,5.21743e-01,9.99999e-01
1.095480033e+00,3.37182e-01,9.99999e-01,6.38008e-01,5.28491e-01,9.99999e-01
1.100957433e+00,4.30427e-01,9.99999e-01,8.04250e-01,5.35190e-01,9.99999e-01
1.106462220e+00,4.95039e-01,9.99999e-01,9.13625e-01,5.41840e-01,9.99999e-01
1.111994531e+00,5.30353e-01,9.99999e-01,9.67023e-01,5.48438e-01,9.99999e-01
1.117554504e+00,5.50446e-01,9.99999e-01,9.91822e-01,5.54984e-01,9.99999e-01
1.123142276e+00,5.61173e-01,9.99999e-01,9.99458e-01,5.61476e-01,9.99999e-01
1.128757988e+00,5.67914e-01,9.99999e-01,9.99999e-01,5.67914e-01,9.99999e-01
1.134401778e+00,5.74297e-01,9.99999e-01,9.99999e-01,5.74297e-01,9.99999e-01
1.140073787e+00,5.80623e-01,9.99999e-01,9.99999e-01,5.80623e-01,9.99999e-01
1.145774156e+00,5.86891e-01,9.99999e-01,9.99999e-01,5.86891e-01,9.99999e-01
1.151503026e+00,5.93102e-01,9.99999e-01,9.99999e-01,5.93102e-01,9.99999e-01
1.157260541e+00,5.99253e-01,9.99999e-01,9.99999e-01,5.99253e-01,9.99999e-01
1.163046844e+00,6.05345e-01,9.99999e-01,9.99999e-01,6.05345e-01,9.99999e-01
1.168862078e+00,6.11377e-01,9.99999e-01,9.99999e-01,6.11377e-01,9.99999e-01
1.174706389e+00,6.17348e-01,9.99999e-01,9.99999e-01,6.17348e-01,9.99999e-01
1.180579921e+00,6.23258e-01,9.99999e-01,9.99999e-01,6.23258e-01,9.99999e-01
1.186482820e+00,6.29094e-01,9.99999e-01,9.99981e-01,6.29105e-01,9.99999e-01
1.192415234e+00,6.08224e-01,9.99999e-01,9.57996e-01,6.34891e-01,9.99999e-01
1.198377311e+00,3.28901e-01,9.99999e-01,5.13415e-01,6.40614e-01,9.99999e-01
1.204369197e+00,8.03390e-33,9.99999e-01,1.24311e-32,6.46274e-01,9.99999e-01
1.210391043e+00,1.36321e-133,9.99999e-01,2.09122e-133,6.51870e-01,9.99999e-01
1.216442998e+00,1.42716e-115,9.99999e-01,2.17091e-115,6.57403e-01,9.99999e-01
1.222525213e+00,7.80591e-114,9.99999e-01,1.17759e-113,6.62873e-01,9.99999e-01
1.228637839e+00,9.08879e-88,9.99999e-01,1.36003e-87,6.68278e-01,9.99999e-01
1.234781029e+00,1.63870e-54,9.99999e-01,2.43268e-54,6.73620e-01,9.99999e-01
1.240954934e+00,4.14383e-36,9.99999e-01,6.10377e-36,6.78897e-01,9.99999e-01
1.247159708e+00,2.87890e-17,9.99999e-01,4.20823e-17,6.84111e-01,9.99999e-01
1.253395507e+00,9.19240e-12,9.99999e-01,1.33366e-11,6.89260e-01,9.99999e-01
1.259662485e+00,5.39757e-07,9.99999e-01,7.77361e-07,6.94345e-01,9.99999e-01
1.265960797e+00,3.10155e-04,9.99999e-01,4.43479e-04,6.99366e-01,9.99999e-01
1.272290601e+00,1.42553e-02,9.99999e-01,2.02397e-02,7.04323e-01,9.99999e-01
1.278652054e+00,1.74601e-02,9.99999e-01,2.46188e-02,7.09217e-01,9.99999e-01
1.285045314e+00,1.41777e-05,9.99999e-01,1.98554e-05,7.14046e-01,9.99999e-01
1.291470541e+00,1.21262e-15,9.99999e-01,1.68698e-15,7.18813e-01,9.99999e-01
1.297927893e+00,1.06512e-06,9.99999e-01,1.47214e-06,7.23516e-01,9.99999e-01
1.304417533e+00,8.68639e-04,9.99999e-01,1.19293e-03,7.28155e-01,9.99999e-01
1.310939621e+00,2.37453e-04,9.99999e-01,3.24064e-04,7.32733e-01,9.99999e-01
1.317494319e+00,2.78316e-45,9.99999e-01,3.77507e-45,7.37247e-01,9.99999e-01
1.324081790e+00,1.23201e-29,9.99999e-01,1.66106e-29,7.41700e-01,9.99999e-01
1.330702199e+00,1.22497e-17,9.99999e-01,1.64185e-17,7.46090e-01,9.99999e-01
1.337355710e+00,4.26257e-16,9.99999e-01,5.68024e-16,7.50420e-01,9.99999e-01
1.344042489e+00,2.40106e-16,9.99999e-01,3.18153e-16,7.54688e-01,9.99999e-01
1.350762701e+00,5.89006e-18,9.99999e-01,7.76136e-18,7.58895e-01,9.99999e-01
1.357516515e+00,6.82037e-11,9.99999e-01,8.93839e-11,7.63042e-01,9.99999e-01
1.364304097e+00,4.72190e-08,9.99999e-01,6.15528e-08,7.67129e-01,9.99999e-01
1.371125618e+00,1.65573e-04,9.99999e-01,2.14708e-04,7.71156e-01,9.99999e-01
1.377981246e+00,5.09219e-04,9.99999e-01,6.56950e-04,7.75125e-01,9.99999e-01
1.384871152e+00,1.07752e-02,9.99999e-01,1.38314e-02,7.79035e-01,9.99999e-01
1.391795508e+00,1.51874e-02,9.99999e-01,1.93992e-02,7.82886e-01,9.99999e-01
1.398754485e+00,6.48804e-02,9.99999e-01,8.24735e-02,7.86681e-01,9.99999e-01
1.405748258e+00,1.28707e-01,9.99999e-01,1.62835e-01,7.90418e-01,9.99999e-01
1.412776999e+00,2.49406e-01,9.99999e-01,3.14074e-01,7.94098e-01,9.99999e-01
1.419840884e+00,2.40891e-01,9.99999e-01,3.01973e-01,7.97723e-01,9.99999e-01
1.426940089e+00,8.18952e-03,9.99998e-01,1.02204e-02,8.01292e-01,9.99999e-01
1.434074789e+00,0.00000e+00,9.99999e-01,0.00000e+00,8.04806e-01,9.99999e-01
1.441245163e+00,0.00000e+00,9.99999e-01,0.00000e+00,8.08265e-01,9.99999e-01
1.448451389e+00,0.00000e+00,9.99998e-01,0.00000e+00,8.11671e-01,9.99999e-01
1.455693646e+00,0.00000e+00,9.99999e-01,0.00000e+00,8.15023e-01,9.99999e-01
1.462972114e+00,0.00000e+00,9.99999e-01,0.00000e+00,8.18322e-01,9.99999e-01
1.470286975e+00,1.37323e-221,9.99999e-01,1.67147e-221,8.21570e-01,9.99999e-01
