#,Wave/freq,Total,N2,CO2,Rayleigh,CIA
4.000000000e-01,3.23691e-05,9.99999e-01,9.99999e-01,3.23691e-05,9.99999e-01
4.020000000e-01,3.97109e-05,9.99999e-01,9.99999e-01,3.97109e-05,9.99999e-01
4.040100000e-01,4.85112e-05,9.99999e-01,9.99999e-01,4.85112e-05,9.99999e-01
4.060300500e-01,5.90279e-05,9.99999e-01,9.99999e-01,5.90279e-05,9.99999e-01
4.080602003e-01,7.15467e-05,9.99999e-01,9.99999e-01,7.15467e-05,9.99999e-01
4.101005013e-01,8.63916e-05,9.99999e-01,9.99999e-01,8.63916e-05,9.99999e-01
4.121510038e-01,1.03929e-04,9.99999e-01,9.99999e-01,1.03929e-04,9.99999e-01
4.142117588e-01,1.24571e-04,9.99999e-01,9.99999e-01,1.24571e-04,9.99999e-01
4.162828176e-01,1.48779e-04,9.99999e-01,9.99999e-01,1.48779e-04,9.99999e-01
4.183642317e-01,1.77069e-04,9.99999e-01,9.99999e-01,1.77069e-04,9.99999e-01
4.204560528e-01,2.10015e-04,9.99999e-01,9.99999e-01,2.10015e-04,9.99999e-01
4.225583331e-01,2.48254e-04,9.99999e-01,9.99999e-01,2.48254e-04,9.99999e-01
4.246711247e-01,2.92486e-04,9.99999e-01,9.99999e-01,2.92486e-04,9.99999e-01
4.267944804e-01,3.43486e-04,9.99999e-01,9.99999e-01,3.43486e-04,9.99999e-01
4.289284528e-01,4.02099e-04,9.99999e-01,9.99999e-01,4.02099e-04,9.99999e-01
4.310730950e-01,4.69252e-04,9.99999e-01,9.99999e-01,4.69252e-04,9.99999e-01
4.332284605e-01,5.45951e-04,9.99999e-01,9.99999e-01,5.45951e-04,9.99999e-01
4.353946028e-01,6.33291e-04,9.99999e-01,9.99999e-01,6.33291e-04,9.99999e-01
4.375715758e-01,7.32452e-04,9.99999e-01,9.99999e-01,7.32452e-04,9.99999e-01
4.397594337e-01,8.44710e-04,9.99999e-01,9.99999e-01,8.44710e-04,9.99999e-01
4.419582309e-01,9.71433e-04,9.99999e-01,9.99999e-01,9.71433e-04,9.99999e-01
4.441680220e-01,1.11409e-03,9.99999e-01,9.99999e-01,1.11409e-03,9.99999e-01
4.463888621e-01,1.27423e-03,9.99999e-01,9.99999e-01,1.27423e-03,9.99999e-01
4.486208064e-01,1.45354e-03,9.99999e-01,9.99999e-01,1.45354e-03,9.99999e-01
4.508639105e-01,1.65378e-03,9.99999e-01,9.99999e-01,1.65378e-03,9.99999e-01
4.531182300e-01,1.87680e-03,9.99999e-01,9.99999e-01,1.87680e-03,9.99999e-01
4.553838212e-01,2.12459e-03,9.99999e-01,9.99999e-01,2.12459e-03,9.99999e-01
4.576607403e-01,2.39921e-03,9.99999e-01,9.99999e-01,2.39921e-03,9.99999e-01
4.599490440e-01,2.70283e-03,9.99999e-01,9.99999e-01,2.70283e-03,9.99999e-01
4.622487892e-01,3.03771e-03,9.99999e-01,9.99999e-01,3.03771e-03,9.99999e-01
4.645600332e-01,3.40622e-03,9.99999e-01,9.99999e-01,3.40622e-03,9.99999e-01
4.668828333e-01,3.81080e-03,9.99999e-01,9.99999e-01,3.81080e-03,9.99999e-01
4.692172475e-01,4.25400e-03,9.99999e-01,9.99999e-01,4.25400e-03,9.99999e-01
4.715633337e-01,4.73843e-03,9.99999e-01,9.99999e-01,4.73843e-03,9.99999e-01
4.739211504e-01,5.26679e-03,9.99999e-01,9.99999e-01,5.26679e-03,9.99999e-01
4.762907561e-01,5.84186e-03,9.99999e-01,9.99999e-01,5.84186e-03,9.99999e-01
4.786722099e-01,6.46648e-03,9.99999e-01,9.99999e-01,6.46648e-03,9.99999e-01
4.810655710e-01,7.14352e-03,9.99999e-01,9.99999e-01,7.14352e-03,9.99999e-01
4.834708988e-01,7.87595e-03,9.99999e-01,9.99999e-01,7.87595e-03,9.99999e-01
4.858882533e-01,8.66675e-03,9.99999e-01,9.99999e-01,8.66675e-03,9.99999e-01
4.883176946e-01,9.51894e-03,9.99999e-01,9.99999e-01,9.51894e-03,9.99999e-01
4.907592831e-01,1.04356e-02,9.99999e-01,9.99999e-01,1.04356e-02,9.99999e-01
4.932130795e-01,1.14197e-02,9.99999e-01,9.99999e-01,1.14197e-02,9.99999e-01
4.956791449e-01,1.24745e-02,9.99999e-01,9.99999e-01,1.24745e-02,9.99999e-01
4.981575406e-01,1.36029e-02,9.99999e-01,9.99999e-01,1.36029e-02,9.99999e-01
5.006483283e-01,1.48080e-02,9.99999e-01,9.99999e-01,1.48080e-02,9.99999e-01
5.031515699e-01,1.60928e-02,9.99999e-01,9.99999e-01,1.60928e-02,9.99999e-01
5.056673278e-01,1.74605e-02,9.99999e-01,9.99999e-01,1.74605e-02,9.99999e-01
5.081956644e-01,1.89138e-02,9.99999e-01,9.99999e-01,1.89138e-02,9.99999e-01
5.107366428e-01,2.04559e-02,9.99999e-01,9.99999e-01,2.04559e-02,9.99999e-01
5.132903260e-01,2.20894e-02,9.99999e-01,9.99999e-01,2.20894e-02,9.99999e-01
5.158567776e-01,2.38171e-02,9.99999e-01,9.99999e-01,2.38171e-02,9.99999e-01
5.184360615e-01,2.56419e-02,9.99999e-01,9.99999e-01,2.56419e-02,9.99999e-01
5.210282418e-01,2.75662e-02,9.99999e-01,9.99999e-01,2.75662e-02,9.99999e-01
5.236333830e-01,2.95926e-02,9.99999e-01,9.99999e-01,2.95926e-02,9.99999e-01
5.262515499e-01,3.17235e-02,9.99999e-01,9.99999e-01,3.17235e-02,9.99999e-01
5.288828077e-01,3.39612e-02,9.99999e-01,9.99999e-01,3.39612e-02,9.99999e-01
5.315272217e-01,3.63078e-02,9.99999e-01,9.99999e-01,3.63078e-02,9.99999e-01
5.341848578e-01,3.87653e-02,9.99999e-01,9.99999e-01,3.87653e-02,9.99999e-01
5.368557821e-01,4.13357e-02,9.99999e-01,9.99999e-01,4.13357e-02,9.99999e-01
5.395400610e-01,4.40206e-02,9.99999e-01,9.99999e-01,4.40206e-02,9.99999e-01
5.422377613e-01,4.68217e-02,9.99999e-01,9.99999e-01,4.68217e-02,9.99999e-01
5.449489501e-01,4.97404e-02,9.99999e-01,9.99999e-01,4.97404e-02,9.99999e-01
5.476736949e-01,5.27779e-02,9.99999e-01,9.99999e-01,5.27779e-02,9.99999e-01
5.504120634e-01,5.59354e-02,9.99999e-01,9.99999e-01,5.59354e-02,9.99999e-01
5.531641237e-01,5.92139e-02,9.99999e-01,9.99999e-01,5.92139e-02,9.99999e-01
5.559299443e-01,6.26139e-02,9.99999e-01,9.99999e-01,6.26139e-02,9.99999e-01
5.587095940e-01,6.61363e-02,9.99999e-01,9.99999e-01,6.61363e-02,9.99999e-01
5.615031420e-01,6.97813e-02,9.99999e-01,9.99999e-01,6.97813e-02,9.99999e-01
5.643106577e-01,7.35492e-02,9.99999e-01,9.99999e-01,7.35492e-02,9.99999e-01
5.671322110e-01,7.74401e-02,9.99999e-01,9.99999e-01,7.74401e-02,9.99999e-01
5.699678720e-01,8.14538e-02,9.99999e-01,9.99999e-01,8.14538e-02,9.99999e-01
5.728177114e-01,8.55901e-02,9.99999e-01,9.99999e-01,8.55901e-02,9.99999e-01
5.756818000e-01,8.98485e-02,9.99999e-01,9.99999e-01,8.98485e-02,9.99999e-01
5.785602090e-01,9.42284e-02,9.99999e-01,9.99999e-01,9.42284e-02,9.99999e-01
5.814530100e-01,9.87289e-02,9.99999e-01,9.99999e-01,9.87289e-02,9.99999e-01
5.843602750e-01,1.03349e-01,9.99999e-01,9.99999e-01,1.03349e-01,9.99999e-01
5.872820764e-01,1.08088e-01,9.99999e-01,9.99999e-01,1.08088e-01,9.99999e-01
5.902184868e-01,1.12944e-01,9.99999e-01,9.99999e-01,1.12944e-01,9.99999e-01
5.931695792e-01,1.17915e-01,9.99999e-01,9.99999e-01,1.17915e-01,9.99999e-01
5.961354271e-01,1.23001e-01,9.99999e-01,9.99999e-01,1.23001e-01,9.99999e-01
5.991161043e-01,1.28199e-01,9.99999e-01,9.99999e-01,1.28199e-01,9.99999e-01
6.021116848e-01,1.33508e-01,9.99999e-01,9.99999e-01,1.33508e-01,9.99999e-01
6.051222432e-01,1.38925e-01,9.99999e-01,9.99999e-01,1.38925e-01,9.99999e-01
6.081478544e-01,1.44448e-01,9.99999e-01,9.99999e-01,1.44448e-01,9.99999e-01
6.111885937e-01,1.50076e-01,9.99999e-01,9.99999e-01,1.50076e-01,9.99999e-01
6.142445367e-01,1.55805e-01,9.99999e-01,9.99999e-01,1.55805e-01,9.99999e-01
6.173157594e-01,1.61632e-01,9.99999e-01,9.99999e-01,1.61632e-01,9.99999e-01
6.204023382e-01,1.67557e-01,9.99999e-01,9.99999e-01,1.67557e-01,9.99999e-01
6.235043498e-01,1.73575e-01,9.99999e-01,9.99999e-01,1.73575e-01,9.99999e-01
6.266218716e-01,1.79684e-01,9.99999e-01,9.99999e-01,1.79684e-01,9.99999e-01
6.297549810e-01,1.85881e-01,9.99999e-01,9.99999e-01,1.85881e-01,9.99999e-01
6.329037559e-01,1.92162e-01,9.99999e-01,9.99999e-01,1.92162e-01,9.99999e-01
6.360682746e-01,1.98526e-01,9.99999e-01,9.99999e-01,1.98526e-01,9.99999e-01
6.392486160e-01,2.04969e-01,9.99999e-01,9.99999e-01,2.04969e-01,9.99999e-01
6.424448591e-01,2.11487e-01,9.99999e-01,9.99999e-01,2.11487e-01,9.99999e-01
6.456570834e-01,2.18077e-01,9.99999e-01,9.99999e-01,2.18077e-01,9.99999e-01
6.488853688e-01,2.24737e-01,9.99999e-01,9.99999e-01,2.24737e-01,9.99999e-01
6.521297956e-01,2.31463e-01,9.99999e-01,9.99999e-01,2.31463e-01,9.99999e-01
6.553904446e-01,2.38251e-01,9.99999e-01,9.99999e-01,2.38251e-01,9.99999e-01
6.586673968e-01,2.45098e-01,9.99999e-01,9.99999e-01,2.45098e-01,9.99999e-01
6.619607338e-01,2.52000e-01,9.99999e-01,9.99999e-01,2.52000e-01,9.99999e-01
6.652705375e-01,2.58955e-01,9.99999e-01,9.99999e-01,2.58955e-01,9.99999e-01
6.685968902e-01,2.65959e-01,9.99999e-01,9.99999e-01,2.65959e-01,9.99999e-01
6.719398746e-01,2.73009e-01,9.99999e-01,9.99999e-01,2.73009e-01,9.99999e-01
6.752995740e-01,2.80100e-01,9.99999e-01,9.99999e-01,2.80100e-01,9.99999e-01
6.786760719e-01,2.87230e-01,9.99999e-01,9.99999e-01,2.87230e-01,9.99999e-01
6.820694522e-01,2.94396e-01,9.99999e-01,9.99999e-01,2.94396e-01,9.99999e-01
6.854797995e-01,3.01593e-01,9.99999e-01,9.99999e-01,3.01593e-01,9.99999e-01
6.889071985e-01,3.08819e-01,9.99999e-01,9.99999e-01,3.08819e-01,9.99999e-01
6.923517345e-01,3.16070e-01,9.99999e-01,9.99999e-01,3.16070e-01,9.99999e-01
6.958134932e-01,3.23344e-01,9.99999e-01,9.99999e-01,3.23344e-01,9.99999e-01
6.992925606e-01,3.30636e-01,9.99999e-01,9.99999e-01,3.30636e-01,9.99999e-01
7.027890234e-01,3.37943e-01,9.99999e-01,9.99999e-01,3.37943e-01,9.99999e-01
7.063029686e-01,3.45263e-01,9.99999e-01,9.99999e-01,3.45263e-01,9.99999e-01
7.098344834e-01,3.52592e-01,9.99999e-01,9.99999e-01,3.52592e-01,9.99999e-01
7.133836558e-01,3.59928e-01,9.99999e-01,9.99999e-01,3.59928e-01,9.99999e-01
7.169505741e-01,3.67266e-01,9.99999e-01,9.99999e-01,3.67266e-01,9.99999e-01
7.205353270e-01,3.74605e-01,9.99999e-01,9.99999e-01,3.74605e-01,9.99999e-01
7.241380036e-01,3.81941e-01,9.99999e-01,9.99999e-01,3.81941e-01,9.99999e-01
7.277586936e-01,3.89272e-01,9.99999e-01,9.99999e-01,3.89272e-01,9.99999e-01
7.313974871e-01,3.96595e-01,9.99999e-01,9.99999e-01,3.96595e-01,9.99999e-01
7.350544745e-01,4.03906e-01,9.99999e-01,9.99999e-01,4.03906e-01,9.99999e-01
7.387297469e-01,4.11204e-01,9.99999e-01,9.99999e-01,4.11204e-01,9.99999e-01
7.424233956e-01,4.18486e-01,9.99999e-01,9.99999e-01,4.18486e-01,9.99999e-01
7.461355126e-01,4.25749e-01,9.99999e-01,9.99999e-01,4.25749e-01,9.99999e-01
7.498661902e-01,4.32991e-01,9.99999e-01,9.99999e-01,4.32991e-01,9.99999e-01
7.536155211e-01,4.40209e-01,9.99999e-01,9.99999e-01,4.40209e-01,9.99999e-01
7.573835987e-01,4.47402e-01,9.99999e-01,9.99999e-01,4.47402e-01,9.99999e-01
7.611705167e-01,4.54566e-01,9.99999e-01,9.99999e-01,4.54566e-01,9.99999e-01
7.649763693e-01,4.61701e-01,9.99999e-01,9.99999e-01,4.61701e-01,9.99999e-01
7.688012511e-01,4.68803e-01,9.99999e-01,9.99999e-01,4.68803e-01,9.99999e-01
7.726452574e-01,4.75871e-01,9.99999e-01,9.99999e-01,4.75871e-01,9.99999e-01
7.765084837e-01,4.82902e-01,9.99999e-01,9.99999e-01,4.82902e-01,9.99999e-01
7.803910261e-01,4.74191e-01,9.99999e-01,9.67940e-01,4.89896e-01,9.99999e-01
7.842929812e-01,4.28093e-01,9.99999e-01,8.61613e-01,4.96850e-01,9.99999e-01
7.882144461e-01,4.29837e-01,9.99999e-01,8.53253e-01,5.03762e-01,9.99999e-01
7.921555184e-01,4.65544e-01,9.99999e-01,9.11703e-01,5.10631e-01,9.99999e-01
7.961162960e-01,4.86231e-01,9.99999e-01,9.39656e-01,5.17455e-01,9.99999e-01
8.000968774e-01,5.06868e-01,9.99999e-01,9.66874e-01,5.24233e-01,9.99999e-01
8.040973618e-01,5.21751e-01,9.99999e-01,9.82648e-01,5.30963e-01,9.99999e-01
8.081178486e-01,5.33358e-01,9.99999e-01,9.92025e-01,5.37645e-01,9.99999e-01
8.121584379e-01,5.42923e-01,9.99999e-01,9.97514e-01,5.44275e-01,9.99999e-01
8.162192301e-01,5.50552e-01,9.99999e-01,9.99450e-01,5.50854e-01,9.99999e-01
8.203003262e-01,5.57376e-01,9.99999e-01,9.99990e-01,5.57381e-01,9.99999e-01
8.244018279e-01,5.63853e-01,9.99999e-01,9.99999e-01,5.63853e-01,9.99999e-01
8.285238370e-01,5.70271e-01,9.99999e-01,9.99999e-01,5.70271e-01,9.99999e-01
8.326664562e-01,5.76633e-01,9.99999e-01,9.99999e-01,5.76633e-01,9.99999e-01
8.368297885e-01,5.82938e-01,9.99999e-01,9.99999e-01,5.82938e-01,9.99999e-01
8.410139374e-01,5.89185e-01,9.99999e-01,9.99999e-01,5.89185e-01,9.99999e-01
8.452190071e-01,5.95374e-01,9.99999e-01,9.99999e-01,5.95374e-01,9.99999e-01
8.494451021e-01,6.01503e-01,9.99999e-01,9.99999e-01,6.01503e-01,9.99999e-01
8.536923276e-01,6.07573e-01,9.99999e-01,9.99999e-01,6.07573e-01,9.99999e-01
8.579607893e-01,6.13583e-01,9.99999e-01,9.99999e-01,6.13583e-01,9.99999e-01
8.622505932e-01,6.19531e-01,9.99999e-01,9.99999e-01,6.19531e-01,9.99999e-01
8.665618462e-01,5.80573e-01,9.99999e-01,9.28295e-01,6.25418e-01,9.99999e-01
8.708946554e-01,4.32970e-01,9.99999e-01,6.85899e-01,6.31243e-01,9.99999e-01
8.752491287e-01,4.69767e-01,9.99999e-01,7.37460e-01,6.37006e-01,9.99999e-01
8.796253743e-01,5.43655e-01,9.99999e-01,8.45884e-01,6.42705e-01,9.99999e-01
8.840235012e-01,5.94483e-01,9.99999e-01,9.16927e-01,6.48342e-01,9.99999e-01
8.884436187e-01,6.31880e-01,9.99999e-01,9.66301e-01,6.53915e-01,9.99999e-01
8.928858368e-01,6.50354e-01,9.99999e-01,9.86244e-01,6.59425e-01,9.99999e-01
8.973502660e-01,6.62627e-01,9.99999e-01,9.96625e-01,6.64871e-01,9.99999e-01
9.018370173e-01,6.70003e-01,9.99999e-01,9.99626e-01,6.70253e-01,9.99999e-01
9.063462024e-01,6.69295e-01,9.99999e-01,9.90709e-01,6.75571e-01,9.99999e-01
9.108779334e-01,6.66122e-01,9.99999e-01,9.78404e-01,6.80825e-01,9.99999e-01
9.154323231e-01,6.82483e-01,9.99999e-01,9.94852e-01,6.86014e-01,9.99999e-01
9.200094847e-01,6.42079e-01,9.99999e-01,9.29013e-01,6.91140e-01,9.99999e-01
9.246095321e-01,6.25690e-01,9.99999e-01,8.98718e-01,6.96202e-01,9.99999e-01
9.292325798e-01,6.45342e-01,9.99999e-01,9.20339e-01,7.01199e-01,9.99999e-01
9.338787427e-01,6.51276e-01,9.99999e-01,9.22313e-01,7.06133e-01,9.99999e-01
9.385481364e-01,6.70000e-01,9.99999e-01,9.42330e-01,7.11003e-01,9.99999e-01
9.432408771e-01,6.90187e-01,9.99999e-01,9.64204e-01,7.15809e-01,9.99999e-01
9.479570815e-01,7.07235e-01,9.99999e-01,9.81517e-01,7.20552e-01,9.99999e-01
9.526968669e-01,7.18729e-01,9.99999e-01,9.91033e-01,7.25231e-01,9.99999e-01
9.574603512e-01,7.27042e-01,9.99999e-01,9.96154e-01,7.29848e-01,9.99999e-01
9.622476530e-01,7.33520e-01,9.99999e-01,9.98798e-01,7.34402e-01,9.99999e-01
9.670588912e-01,7.38628e-01,9.99999e-01,9.99638e-01,7.38894e-01,9.99999e-01
9.718941857e-01,7.43305e-01,9.99999e-01,9.99973e-01,7.43324e-01,9.99999e-01
9.767536566e-01,7.47692e-01,9.99999e-01,9.99999e-01,7.47692e-01,9.99999e-01
9.816374249e-01,7.51998e-01,9.99999e-01,9.99999e-01,7.51998e-01,9.99999e-01
9.865456120e-01,7.56244e-01,9.99999e-01,9.99999e-01,7.56244e-01,9.99999e-01
9.914783401e-01,7.60429e-01,9.99999e-01,9.99999e-01,7.60429e-01,9.99999e-01
9.964357318e-01,7.64554e-01,9.99999e-01,9.99999e-01,7.64554e-01,9.99999e-01
1.001417910e+00,7.68619e-01,9.99999e-01,9.99999e-01,7.68619e-01,9.99999e-01
1.006425000e+00,7.72624e-01,9.99999e-01,9.99999e-01,7.72624e-01,9.99999e-01
1.011457125e+00,7.76571e-01,9.99999e-01,9.99999e-01,7.76571e-01,9.99999e-01
1.016514411e+00,7.80460e-01,9.99999e-01,9.99999e-01,7.80460e-01,9.99999e-01
1.021596983e+00,7.84255e-01,9.99999e-01,9.99953e-01,7.84290e-01,9.99999e-01
1.026704968e+00,7.85211e-01,9.99999e-01,9.96380e-01,7.88063e-01,9.99999e-01
1.031838492e+00,7.59185e-01,9.99999e-01,9.58833e-01,7.91780e-01,9.99999e-01
1.036997685e+00,1.24833e-01,9.99999e-01,1.56935e-01,7.95439e-01,9.99999e-01
1.042182673e+00,9.89192e-02,9.99999e-01,1.23797e-01,7.99043e-01,9.99999e-01
1.047393587e+00,1.17958e-01,9.99999e-01,1.46971e-01,8.02592e-01,9.99999e-01
1.052630555e+00,3.46752e-03,9.99999e-01,4.30167e-03,8.06086e-01,9.99999e-01
1.057893707e+00,8.64393e-03,9.99999e-01,1.06778e-02,8.09525e-01,9.99999e-01
1.063183176e+00,2.86692e-02,9.99999e-01,3.52672e-02,8.12911e-01,9.99999e-01
1.068499092e+00,8.03307e-02,9.99999e-01,9.84149e-02,8.16244e-01,9.99999e-01
1.073841587e+00,1.88669e-01,9.99999e-01,2.30217e-01,8.19524e-01,9.99999e-01
1.079210795e+00,3.24712e-01,9.99999e-01,3.94665e-01,8.22752e-01,9.99999e-01
1.084606849e+00,4.94811e-01,9.99999e-01,5.99096e-01,8.25929e-01,9.99999e-01
1.090029883e+00,6.35587e-01,9.99999e-01,7.66640e-01,8.29055e-01,9.99999e-01
1.095480033e+00,7.29906e-01,9.99999e-01,8.77152e-01,8.32131e-01,9.99999e-01
1.100957433e+00,7.84064e-01,9.99999e-01,9.38822e-01,8.35157e-01,9.99999e-01
1.106462220e+00,8.16519e-01,9.99999e-01,9.74211e-01,8.38134e-01,9.99999e-01
1.111994531e+00,8.32958e-01,9.99999e-01,9.90364e-01,8.41062e-01,9.99999e-01
1.117554504e+00,8.41943e-01,9.99999e-01,9.97630e-01,8.43942e-01,9.99999e-01
1.123142276e+00,8.46643e-01,9.99999e-01,9.99843e-01,8.46775e-01,9.99999e-01
1.128757988e+00,8.49562e-01,9.99999e-01,9.99999e-01,8.49562e-01,9.99999e-01
1.134401778e+00,8.52302e-01,9.99999e-01,9.99999e-01,8.52302e-01,9.99999e-01
1.140073787e+00,8.54997e-01,9.99999e-01,9.99999e-01,8.54997e-01,9.99999e-01
1.145774156e+00,8.57647e-01,9.99999e-01,9.99999e-01,8.57647e-01,9.99999e-01
1.151503026e+00,8.60252e-01,9.99999e-01,9.99999e-01,8.60252e-01,9.99999e-01
1.157260541e+00,8.62814e-01,9.99999e-01,9.99999e-01,8.62814e-01,9.99999e-01
1.163046844e+00,8.65332e-01,9.99999e-01,9.99999e-01,8.65332e-01,9.99999e-01
1.168862078e+00,8.67808e-01,9.99999e-01,9.99999e-01,8.67808e-01,9.99999e-01
1.174706389e+00,8.70242e-01,9.99999e-01,9.99999e-01,8.70242e-01,9.99999e-01
1.180579921e+00,8.72634e-01,9.99999e-01,9.99999e-01,8.72634e-01,9.99999e-01
1.186482820e+00,8.74981e-01,9.99999e-01,9.99994e-01,8.74985e-01,9.99999e-01
1.192415234e+00,8.66058e-01,9.99999e-01,9.87189e-01,8.77297e-01,9.99999e-01
1.198377311e+00,4.94939e-01,9.99999e-01,5.62706e-01,8.79568e-01,9.99999e-01
1.204369197e+00,4.64492e-11,9.99999e-01,5.26753e-11,8.81800e-01,9.99999e-01
1.210391043e+00,4.25144e-40,9.99999e-01,4.80935e-40,8.83994e-01,9.99999e-01
1.216442998e+00,6.62394e-35,9.99999e-01,7.47496e-35,8.86150e-01,9.99999e-01
1.222525213e+00,2.10069e-34,9.99999e-01,2.36493e-34,8.88268e-01,9.99999e-01
1.228637839e+00,1.20434e-26,9.99999e-01,1.35266e-26,8.90349e-01,9.99999e-01
1.234781029e+00,2.61099e-17,9.99999e-01,2.92582e-17,8.92394e-01,9.99999e-01
1.240954934e+00,1.03418e-11,9.99999e-01,1.15628e-11,8.94403e-01,9.99999e-01
1.247159708e+00,1.54348e-06,9.99999e-01,1.72191e-06,8.96377e-01,9.99999e-01
1.253395507e+00,3.19681e-04,9.99999e-01,3.55867e-04,8.98316e-01,9.99999e-01
1.259662485e+00,6.73343e-03,9.99999e-01,7.47975e-03,9.00220e-01,9.99999e-01
1.265960797e+00,6.41939e-02,9.99999e-01,7.11612e-02,9.02091e-01,9.99999e-01
1.272290601e+00,2.71363e-01,9.99999e-01,3.00204e-01,9.03929e-01,9.99999e-01
1.278652054e+00,2.56261e-01,9.99999e-01,2.82932e-01,9.05734e-01,9.99999e-01
1.285045314e+00,7.23799e-03,9.99999e-01,7.97567e-03,9.07508e-01,9.99999e-01
1.291470541e+00,2.15505e-05,9.99999e-01,2.37015e-05,9.09249e-01,9.99999e-01
1.297927893e+00,4.62656e-03,9.99999e-01,5.07878e-03,9.10959e-01,9.99999e-01
1.304417533e+00,1.19836e-01,9.99999e-01,1.31307e-01,9.12639e-01,9.99999e-01
1.310939621e+00,3.00409e-02,9.99999e-01,3.28571e-02,9.14288e-01,9.99999e-01
1.317494319e+00,2.97672e-14,9.99999e-01,3.25002e-14,9.15908e-01,9.99999e-01
1.324081790e+00,6.69404e-10,9.99999e-01,7.29596e-10,9.17498e-01,9.99999e-01
1.330702199e+00,7.50474e-06,9.99999e-01,8.16566e-06,9.19060e-01,9.99999e-01
1.337355710e+00,9.42376e-06,9.99999e-01,1.02366e-05,9.20594e-01,9.99999e-01
1.344042489e+00,2.91337e-06,9.99999e-01,3.15949e-06,9.22099e-01,9.99999e-01
1.350762701e+00,4.62210e-06,9.99999e-01,5.00455e-06,9.23578e-01,9.99999e-01
1.357516515e+00,3.67172e-04,9.99999e-01,3.96930e-04,9.25029e-01,9.99999e-01
1.364304097e+00,5.67979e-03,9.99999e-01,6.13067e-03,9.26454e-01,9.99999e-01
1.371125618e+00,6.48866e-02,9.99999e-01,6.99320e-02,9.27853e-01,9.99999e-01
1.377981246e+00,1.05246e-01,9.99999e-01,1.13262e-01,9.29226e-01,9.99999e-01
1.384871152e+00,2.61864e-01,9.99999e-01,2.81400e-01,9.30575e-01,9.99999e-01
1.391795508e+00,2.88563e-01,9.99999e-01,3.09651e-01,9.31898e-01,9.99999e-01
1.398754485e+00,4.52693e-01,9.99999e-01,4.85098e-01,9.33197e-01,9.99999e-01
1.405748258e+00,5.48397e-01,9.99999e-01,5.86851e-01,9.34473e-01,9.99999e-01
1.412776999e+00,6.68116e-01,9.99999e-01,7.14009e-01,9.35724e-01,9.99999e-01
1.419840884e+00,6.05532e-01,9.99999e-01,6.46277e-01,9.36953e-01,9.99999e-01
1.426940089e+00,5.70720e-02,9.99999e-01,6.08340e-02,9.38159e-01,9.99999e-01
1.434074789e+00,0.00000e+00,9.99999e-01,0.00000e+00,9.39343e-01,9.99999e-01
1.441245163e+00,0.00000e+00,9.99999e-01,0.00000e+00,9.40504e-01,9.99999e-01
1.448451389e+00,0.00000e+00,9.99999e-01,0.00000e+00,9.41645e-01,9.99999e-01
1.455693646e+00,1.21046e-321,9.99999e-01,1.28457e-321,9.42764e-01,9.99999e-01
1.462972114e+00,7.30489e-156,9.99999e-01,7.73936e-156,9.43862e-01,9.99999e-01
1.470286975e+00,1.85611e-65,9.99999e-01,1.96426e-65,9.44940e-01,9.99999e-01
