#,Wave/freq,Total,N2,CO2,Rayleigh,CIA
4.000000000e-01,1.55799e-08,9.99999e-01,9.99999e-01,1.55799e-08,9.99999e-01
4.020000000e-01,2.22301e-08,9.99999e-01,9.99999e-01,2.22301e-08,9.99999e-01
4.040100000e-01,3.14854e-08,9.99999e-01,9.99999e-01,3.14854e-08,9.99999e-01
4.060300500e-01,4.42884e-08,9.99999e-01,9.99999e-01,4.42884e-08,9.99999e-01
4.080602003e-01,6.18791e-08,9.99999e-01,9.99999e-01,6.18791e-08,9.99999e-01
4.101005013e-01,8.58872e-08,9.99999e-01,9.99999e-01,8.58872e-08,9.99999e-01
4.121510038e-01,1.18441e-07,9.99999e-01,9.99999e-01,1.18441e-07,9.99999e-01
4.142117588e-01,1.62299e-07,9.99999e-01,9.99999e-01,1.62299e-07,9.99999e-01
4.162828176e-01,2.21019e-07,9.99999e-01,9.99999e-01,2.21019e-07,9.99999e-01
4.183642317e-01,2.99153e-07,9.99999e-01,9.99999e-01,2.99153e-07,9.99999e-01
4.204560528e-01,4.02495e-07,9.99999e-01,9.99999e-01,4.02495e-07,9.99999e-01
4.225583331e-01,5.38372e-07,9.99999e-01,9.99999e-01,5.38372e-07,9.99999e-01
4.246711247e-01,7.15994e-07,9.99999e-01,9.99999e-01,7.15994e-07,9.99999e-01
4.267944804e-01,9.46869e-07,9.99999e-01,9.99999e-01,9.46869e-07,9.99999e-01
4.289284528e-01,1.24530e-06,9.99999e-01,9.99999e-01,1.24530e-06,9.99999e-01
4.310730950e-01,1.62894e-06,9.99999e-01,9.99999e-01,1.62894e-06,9.99999e-01
4.332284605e-01,2.11951e-06,9.99999e-01,9.99999e-01,2.11951e-06,9.99999e-01
4.353946028e-01,2.74351e-06,9.99999e-01,9.99999e-01,2.74351e-06,9.99999e-01
4.375715758e-01,3.53316e-06,9.99999e-01,9.99999e-01,3.53316e-06,9.99999e-01
4.397594337e-01,4.52742e-06,9.99999e-01,9.99999e-01,4.52742e-06,9.99999e-01
4.419582309e-01,5.77313e-06,9.99999e-01,9.99999e-01,5.77313e-06,9.99999e-01
4.441680220e-01,7.32632e-06,9.99999e-01,9.99999e-01,7.32632e-06,9.99999e-01
4.463888621e-01,9.25374e-06,9.99999e-01,9.99999e-01,9.25374e-06,9.99999e-01
4.486208064e-01,1.16344e-05,9.99999e-01,9.99999e-01,1.16344e-05,9.99999e-01
4.508639105e-01,1.45616e-05,9.99999e-01,9.99999e-01,1.45616e-05,9.99999e-01
4.531182300e-01,1.81446e-05,9.99999e-01,9.99999e-01,1.81446e-05,9.99999e-01
4.553838212e-01,2.25112e-05,9.99999e-01,9.99999e-01,2.25112e-05,9.99999e-01
4.576607403e-01,2.78100e-05,9.99999e-01,9.99999e-01,2.78100e-05,9.99999e-01
4.599490440e-01,3.42128e-05,9.99999e-01,9.99999e-01,3.42128e-05,9.99999e-01
4.622487892e-01,4.19179e-05,9.99999e-01,9.99999e-01,4.19179e-05,9.99999e-01
4.645600332e-01,5.11526e-05,9.99999e-01,9.99999e-01,5.11526e-05,9.99999e-01
4.668828333e-01,6.21768e-05,9.99999e-01,9.99999e-01,6.21768e-05,9.99999e-01
4.692172475e-01,7.52861e-05,9.99999e-01,9.99999e-01,7.52861e-05,9.99999e-01
4.715633337e-01,9.08155e-05,9.99999e-01,9.99999e-01,9.08155e-05,9.99999e-01
4.739211504e-01,1.09143e-04,9.99999e-01,9.99999e-01,1.09143e-04,9.99999e-01
4.762907561e-01,1.30694e-04,9.99999e-01,9.99999e-01,1.30694e-04,9.99999e-01
4.786722099e-01,1.55944e-04,9.99999e-01,9.99999e-01,1.55944e-04,9.99999e-01
4.810655710e-01,1.85425e-04,9.99999e-01,9.99999e-01,1.85425e-04,9.99999e-01
4.834708988e-01,2.19725e-04,9.99999e-01,9.99999e-01,2.19725e-04,9.99999e-01
4.858882533e-01,2.59500e-04,9.99999e-01,9.99999e-01,2.59500e-04,9.99999e-01
4.883176946e-01,3.05469e-04,9.99999e-01,9.99999e-01,3.05469e-04,9.99999e-01
4.907592831e-01,3.58424e-04,9.99999e-01,9.99999e-01,3.58424e-04,9.99999e-01
4.932130795e-01,4.19234e-04,9.99999e-01,9.99999e-01,4.19234e-04,9.99999e-01
4.956791449e-01,4.88846e-04,9.99999e-01,9.99999e-01,4.88846e-04,9.99999e-01
4.981575406e-01,5.68288e-04,9.99999e-01,9.99999e-01,5.68288e-04,9.99999e-01
5.006483283e-01,6.58679e-04,9.99999e-01,9.99999e-01,6.58679e-04,9.99999e-01
5.031515699e-01,7.61225e-04,9.99999e-01,9.99999e-01,7.61225e-04,9.99999e-01
5.056673278e-01,8.77225e-04,9.99999e-01,9.99999e-01,8.77225e-04,9.99999e-01
5.081956644e-01,1.00807e-03,9.99999e-01,9.99999e-01,1.00807e-03,9.99999e-01
5.107366428e-01,1.15526e-03,9.99999e-01,9.99999e-01,1.15526e-03,9.99999e-01
5.132903260e-01,1.32038e-03,9.99999e-01,9.99999e-01,1.32038e-03,9.99999e-01
5.158567776e-01,1.50513e-03,9.99999e-01,9.99999e-01,1.50513e-03,9.99999e-01
5.184360615e-01,1.71129e-03,9.99999e-01,9.99999e-01,1.71129e-03,9.99999e-01
5.210282418e-01,1.94076e-03,9.99999e-01,9.99999e-01,1.94076e-03,9.99999e-01
5.236333830e-01,2.19554e-03,9.99999e-01,9.99999e-01,2.19554e-03,9.99999e-01
5.262515499e-01,2.47772e-03,9.99999e-01,9.99999e-01,2.47772e-03,9.99999e-01
5.288828077e-01,2.78950e-03,9.99999e-01,9.99999e-01,2.78950e-03,9.99999e-01
5.315272217e-01,3.13317e-03,9.99999e-01,9.99999e-01,3.13317e-03,9.99999e-01
5.341848578e-01,3.51110e-03,9.99999e-01,9.99999e-01,3.51110e-03,9.99999e-01
5.368557821e-01,3.92579e-03,9.99999e-01,9.99999e-01,3.92579e-03,9.99999e-01
5.395400610e-01,4.37979e-03,9.99999e-01,9.99999e-01,4.37979e-03,9.99999e-01
5.422377613e-01,4.87574e-03,9.99999e-01,9.99999e-01,4.87574e-03,9.99999e-01
5.449489501e-01,5.41636e-03,9.99999e-01,9.99999e-01,5.41636e-03,9.99999e-01
5.476736949e-01,6.00444e-03,9.99999e-01,9.99999e-01,6.00444e-03,9.99999e-01
5.504120634e-01,6.64283e-03,9.99999e-01,9.99999e-01,6.64283e-03,9.99999e-01
5.531641237e-01,7.33444e-03,9.99999e-01,9.99999e-01,7.33444e-03,9.99999e-01
5.559299443e-01,8.08223e-03,9.99999e-01,9.99999e-01,8.08223e-03,9.99999e-01
5.587095940e-01,8.88920e-03,9.99999e-01,9.99999e-01,8.88920e-03,9.99999e-01
5.615031420e-01,9.75838e-03,9.99999e-01,9.99999e-01,9.75838e-03,9.99999e-01
5.643106577e-01,1.06928e-02,9.99999e-01,9.99999e-01,1.06928e-02,9.99999e-01
5.671322110e-01,1.16956e-02,9.99999e-01,9.99999e-01,1.16956e-02,9.99999e-01
5.699678720e-01,1.27698e-02,9.99999e-01,9.99999e-01,1.27698e-02,9.99999e-01
5.728177114e-01,1.39185e-02,9.99999e-01,9.99999e-01,1.39185e-02,9.99999e-01
5.756818000e-01,1.51447e-02,9.99999e-01,9.99999e-01,1.51447e-02,9.99999e-01
5.785602090e-01,1.64515e-02,9.99999e-01,9.99999e-01,1.64515e-02,9.99999e-01
5.814530100e-01,1.78418e-02,9.99999e-01,9.99999e-01,1.78418e-02,9.99999e-01
5.843602750e-01,1.93187e-02,9.99999e-01,9.99999e-01,1.93187e-02,9.99999e-01
5.872820764e-01,2.08850e-02,9.99999e-01,9.99999e-01,2.08850e-02,9.99999e-01
5.902184868e-01,2.25435e-02,9.99999e-01,9.99999e-01,2.25435e-02,9.99999e-01
5.931695792e-01,2.42970e-02,9.99999e-01,9.99999e-01,2.42970e-02,9.99999e-01
5.961354271e-01,2.61482e-02,9.99999e-01,9.99999e-01,2.61482e-02,9.99999e-01
5.991161043e-01,2.80997e-02,9.99999e-01,9.99999e-01,2.80997e-02,9.99999e-01
6.021116848e-01,3.01539e-02,9.99999e-01,9.99999e-01,3.01539e-02,9.99999e-01
6.051222432e-01,3.23132e-02,9.99999e-01,9.99999e-01,3.23132e-02,9.99999e-01
6.081478544e-01,3.45799e-02,9.99999e-01,9.99999e-01,3.45799e-02,9.99999e-01
6.111885937e-01,3.69561e-02,9.99999e-01,9.99999e-01,3.69561e-02,9.99999e-01
6.142445367e-01,3.94437e-02,9.99999e-01,9.99999e-01,3.94437e-02,9.99999e-01
6.173157594e-01,4.20446e-02,9.99999e-01,9.99999e-01,4.20446e-02,9.99999e-01
6.204023382e-01,4.47605e-02,9.99999e-01,9.99999e-01,4.47605e-02,9.99999e-01
6.235043498e-01,4.75930e-02,9.99999e-01,9.99999e-01,4.75930e-02,9.99999e-01
6.266218716e-01,5.05435e-02,9.99999e-01,9.99999e-01,5.05435e-02,9.99999e-01
6.297549810e-01,5.36131e-02,9.99999e-01,9.99999e-01,5.36131e-02,9.99999e-01
6.329037559e-01,5.68030e-02,9.99999e-01,9.99999e-01,5.68030e-02,9.99999e-01
6.360682746e-01,6.01140e-02,9.99999e-01,9.99999e-01,6.01140e-02,9.99999e-01
6.392486160e-01,6.35468e-02,9.99999e-01,9.99999e-01,6.35468e-02,9.99999e-01
6.424448591e-01,6.71020e-02,9.99999e-01,9.99999e-01,6.71020e-02,9.99999e-01
6.456570834e-01,7.07800e-02,9.99999e-01,9.99999e-01,7.07800e-02,9.99999e-01
6.488853688e-01,7.45809e-02,9.99999e-01,9.99999e-01,7.45809e-02,9.99999e-01
6.521297956e-01,7.85047e-02,9.99999e-01,9.99999e-01,7.85047e-02,9.99999e-01
6.553904446e-01,8.25514e-02,9.99999e-01,9.99999e-01,8.25514e-02,9.99999e-01
6.586673968e-01,8.67205e-02,9.99999e-01,9.99999e-01,8.67205e-02,9.99999e-01
6.619607338e-01,9.10116e-02,9.99999e-01,9.99999e-01,9.10116e-02,9.99999e-01
6.652705375e-01,9.54238e-02,9.99999e-01,9.99999e-01,9.54238e-02,9.99999e-01
6.685968902e-01,9.99565e-02,9.99999e-01,9.99999e-01,9.99565e-02,9.99999e-01
6.719398746e-01,1.04609e-01,9.99999e-01,9.99999e-01,1.04609e-01,9.99999e-01
6.752995740e-01,1.09379e-01,9.99999e-01,9.99999e-01,1.09379e-01,9.99999e-01
6.786760719e-01,1.14266e-01,9.99999e-01,9.99999e-01,1.14266e-01,9.99999e-01
6.820694522e-01,1.19268e-01,9.99999e-01,9.99999e-01,1.19268e-01,9.99999e-01
6.854797995e-01,1.24384e-01,9.99999e-01,9.99999e-01,1.24384e-01,9.99999e-01
6.889071985e-01,1.29612e-01,9.99999e-01,9.99999e-01,1.29612e-01,9.99999e-01
6.923517345e-01,1.34950e-01,9.99999e-01,9.99999e-01,1.34950e-01,9.99999e-01
6.958134932e-01,1.40396e-01,9.99999e-01,9.99999e-01,1.40396e-01,9.99999e-01
6.992925606e-01,1.45948e-01,9.99999e-01,9.99999e-01,1.45948e-01,9.99999e-01
7.027890234e-01,1.51603e-01,9.99999e-01,9.99999e-01,1.51603e-01,9.99999e-01
7.063029686e-01,1.57358e-01,9.99999e-01,9.99999e-01,1.57358e-01,9.99999e-01
7.098344834e-01,1.63212e-01,9.99999e-01,9.99999e-01,1.63212e-01,9.99999e-01
7.133836558e-01,1.69162e-01,9.99999e-01,9.99999e-01,1.69162e-01,9.99999e-01
7.169505741e-01,1.75205e-01,9.99999e-01,9.99999e-01,1.75205e-01,9.99999e-01
7.205353270e-01,1.81338e-01,9.99999e-01,9.99999e-01,1.81338e-01,9.99999e-01
7.241380036e-01,1.87558e-01,9.99999e-01,9.99999e-01,1.87558e-01,9.99999e-01
7.277586936e-01,1.93862e-01,9.99999e-01,9.99999e-01,1.93862e-01,9.99999e-01
7.313974871e-01,2.00247e-01,9.99999e-01,9.99999e-01,2.00247e-01,9.99999e-01
7.350544745e-01,2.06710e-01,9.99999e-01,9.99999e-01,2.06710e-01,9.99999e-01
7.387297469e-01,2.13248e-01,9.99999e-01,9.99999e-01,2.13248e-01,9.99999e-01
7.424233956e-01,2.19857e-01,9.99999e-01,9.99999e-01,2.19857e-01,9.99999e-01
7.461355126e-01,2.26535e-01,9.99999e-01,9.99999e-01,2.26535e-01,9.99999e-01
7.498661902e-01,2.33278e-01,9.99999e-01,9.99999e-01,2.33278e-01,9.99999e-01
7.536155211e-01,2.40082e-01,9.99999e-01,9.99999e-01,2.40082e-01,9.99999e-01
7.573835987e-01,2.46944e-01,9.99999e-01,9.99999e-01,2.46944e-01,9.99999e-01
7.611705167e-01,2.53861e-01,9.99999e-01,9.99999e-01,2.53861e-01,9.99999e-01
7.649763693e-01,2.60830e-01,9.99999e-01,9.99999e-01,2.60830e-01,9.99999e-01
7.688012511e-01,2.67846e-01,9.99999e-01,9.99999e-01,2.67846e-01,9.99999e-01
7.726452574e-01,2.74907e-01,9.99999e-01,9.99999e-01,2.74907e-01,9.99999e-01
7.765084837e-01,2.82009e-01,9.99999e-01,9.99999e-01,2.82009e-01,9.99999e-01
7.803910261e-01,2.74076e-01,9.99999e-01,9.47868e-01,2.89149e-01,9.99999e-01
7.842929812e-01,2.30011e-01,9.99999e-01,7.76215e-01,2.96324e-01,9.99999e-01
7.882144461e-01,2.31983e-01,9.99999e-01,7.64286e-01,3.03529e-01,9.99999e-01
7.921555184e-01,2.64869e-01,9.99999e-01,8.52321e-01,3.10762e-01,9.99999e-01
7.961162960e-01,2.85489e-01,9.99999e-01,8.97707e-01,3.18019e-01,9.99999e-01
8.000968774e-01,3.06827e-01,9.99999e-01,9.43216e-01,3.25298e-01,9.99999e-01
8.040973618e-01,3.22642e-01,9.99999e-01,9.70074e-01,3.32595e-01,9.99999e-01
8.081178486e-01,3.35211e-01,9.99999e-01,9.86186e-01,3.39906e-01,9.99999e-01
8.121584379e-01,3.45732e-01,9.99999e-01,9.95689e-01,3.47228e-01,9.99999e-01
8.162192301e-01,3.54222e-01,9.99999e-01,9.99046e-01,3.54560e-01,9.99999e-01
8.203003262e-01,3.61891e-01,9.99999e-01,9.99984e-01,3.61896e-01,9.99999e-01
8.244018279e-01,3.69235e-01,9.99999e-01,9.99999e-01,3.69235e-01,9.99999e-01
8.285238370e-01,3.76574e-01,9.99999e-01,9.99999e-01,3.76574e-01,9.99999e-01
8.326664562e-01,3.83909e-01,9.99999e-01,9.99999e-01,3.83909e-01,9.99999e-01
8.368297885e-01,3.91237e-01,9.99999e-01,9.99999e-01,3.91237e-01,9.99999e-01
8.410139374e-01,3.98557e-01,9.99999e-01,9.99999e-01,3.98557e-01,9.99999e-01
8.452190071e-01,4.05865e-01,9.99999e-01,9.99999e-01,4.05865e-01,9.99999e-01
8.494451021e-01,4.13159e-01,9.99999e-01,9.99999e-01,4.13159e-01,9.99999e-01
8.536923276e-01,4.20436e-01,9.99999e-01,9.99999e-01,4.20436e-01,9.99999e-01
8.579607893e-01,4.27694e-01,9.99999e-01,9.99999e-01,4.27694e-01,9.99999e-01
8.622505932e-01,4.34930e-01,9.99999e-01,9.99999e-01,4.34930e-01,9.99999e-01
8.665618462e-01,3.99020e-01,9.99999e-01,9.02471e-01,4.42141e-01,9.99999e-01
8.708946554e-01,2.38805e-01,9.99999e-01,5.31473e-01,4.49327e-01,9.99999e-01
8.752491287e-01,2.72085e-01,9.99999e-01,5.96046e-01,4.56483e-01,9.99999e-01
8.796253743e-01,3.47708e-01,9.99999e-01,7.50003e-01,4.63609e-01,9.99999e-01
8.840235012e-01,4.05094e-01,9.99999e-01,8.60615e-01,4.70702e-01,9.99999e-01
8.884436187e-01,4.50190e-01,9.99999e-01,9.42291e-01,4.77761e-01,9.99999e-01
8.928858368e-01,4.73262e-01,9.99999e-01,9.76234e-01,4.84782e-01,9.99999e-01
8.973502660e-01,4.88890e-01,9.99999e-01,9.94151e-01,4.91765e-01,9.99999e-01
9.018370173e-01,4.98386e-01,9.99999e-01,9.99352e-01,4.98708e-01,9.99999e-01
9.063462024e-01,4.97505e-01,9.99999e-01,9.83971e-01,5.05609e-01,9.99999e-01
9.108779334e-01,4.93414e-01,9.99999e-01,9.62821e-01,5.12466e-01,9.99999e-01
9.154323231e-01,5.14653e-01,9.99999e-01,9.91092e-01,5.19278e-01,9.99999e-01
9.200094847e-01,4.65593e-01,9.99999e-01,8.85083e-01,5.26043e-01,9.99999e-01
9.246095321e-01,4.42818e-01,9.99999e-01,8.31176e-01,5.32761e-01,9.99999e-01
9.292325798e-01,4.67540e-01,9.99999e-01,8.66731e-01,5.39428e-01,9.99999e-01
9.338787427e-01,4.74838e-01,9.99999e-01,8.69594e-01,5.46045e-01,9.99999e-01
9.385481364e-01,4.98545e-01,9.99999e-01,9.02162e-01,5.52610e-01,9.99999e-01
9.432408771e-01,5.24837e-01,9.99999e-01,9.38680e-01,5.59122e-01,9.99999e-01
9.479570815e-01,5.47543e-01,9.99999e-01,9.68107e-01,5.65580e-01,9.99999e-01
9.526968669e-01,5.63107e-01,9.99999e-01,9.84481e-01,5.71983e-01,9.99999e-01
9.574603512e-01,5.74473e-01,9.99999e-01,9.93330e-01,5.78330e-01,9.99999e-01
9.622476530e-01,5.83400e-01,9.99999e-01,9.97913e-01,5.84619e-01,9.99999e-01
9.670588912e-01,5.90481e-01,9.99999e-01,9.99373e-01,5.90851e-01,9.99999e-01
9.718941857e-01,5.96997e-01,9.99999e-01,9.99954e-01,5.97024e-01,9.99999e-01
9.767536566e-01,6.03138e-01,9.99999e-01,9.99999e-01,6.03138e-01,9.99999e-01
9.816374249e-01,6.09191e-01,9.99999e-01,9.99999e-01,6.09191e-01,9.99999e-01
9.865456120e-01,6.15184e-01,9.99999e-01,9.99999e-01,6.15184e-01,9.99999e-01
9.914783401e-01,6.21116e-01,9.99999e-01,9.99999e-01,6.21116e-01,9.99999e-01
9.964357318e-01,6.26987e-01,9.99999e-01,9.99999e-01,6.26987e-01,9.99999e-01
1.001417910e+00,6.32795e-01,9.99999e-01,9.99999e-01,6.32795e-01,9.99999e-01
1.006425000e+00,6.38541e-01,9.99999e-01,9.99999e-01,6.38541e-01,9.99999e-01
1.011457125e+00,6.44223e-01,9.99999e-01,9.99999e-01,6.44223e-01,9.99999e-01
1.016514411e+00,6.49843e-01,9.99999e-01,9.99999e-01,6.49843e-01,9.99999e-01
1.021596983e+00,6.55347e-01,9.99999e-01,9.99919e-01,6.55399e-01,9.99999e-01
1.026704968e+00,6.56736e-01,9.99999e-01,9.93710e-01,6.60892e-01,9.99999e-01
1.031838492e+00,6.25769e-01,9.99999e-01,9.39140e-01,6.66321e-01,9.99999e-01
1.036997685e+00,6.35663e-02,9.99999e-01,9.46368e-02,6.71686e-01,9.99999e-01
1.042182673e+00,2.19847e-02,9.99999e-01,3.24744e-02,6.76986e-01,9.99999e-01
1.047393587e+00,3.67986e-02,9.99999e-01,5.39393e-02,6.82223e-01,9.99999e-01
1.052630555e+00,1.39408e-04,9.99999e-01,2.02805e-04,6.87396e-01,9.99999e-01
1.057893707e+00,4.50398e-04,9.99999e-01,6.50389e-04,6.92504e-01,9.99999e-01
1.063183176e+00,2.95913e-03,9.99999e-01,4.24218e-03,6.97548e-01,9.99999e-01
1.068499092e+00,1.37927e-02,9.99999e-01,1.96329e-02,7.02529e-01,9.99999e-01
1.073841587e+00,5.79146e-02,9.99999e-01,8.18643e-02,7.07445e-01,9.99999e-01
1.079210795e+00,1.46178e-01,9.99999e-01,2.05220e-01,7.12298e-01,9.99999e-01
1.084606849e+00,2.96620e-01,9.99999e-01,4.13645e-01,7.17087e-01,9.99999e-01
1.090029883e+00,4.55831e-01,9.99999e-01,6.31508e-01,7.21813e-01,9.99999e-01
1.095480033e+00,5.78944e-01,9.99999e-01,7.96921e-01,7.26476e-01,9.99999e-01
1.100957433e+00,6.55219e-01,9.99999e-01,8.96238e-01,7.31076e-01,9.99999e-01
1.106462220e+00,7.02991e-01,9.99999e-01,9.55652e-01,7.35613e-01,9.99999e-01
1.111994531e+00,7.27745e-01,9.99999e-01,9.83321e-01,7.40088e-01,9.99999e-01
1.117554504e+00,7.41443e-01,9.99999e-01,9.95890e-01,7.44502e-01,9.99999e-01
1.123142276e+00,7.48650e-01,9.99999e-01,9.99728e-01,7.48853e-01,9.99999e-01
1.128757988e+00,7.53143e-01,9.99999e-01,9.99999e-01,7.53143e-01,9.99999e-01
1.134401778e+00,7.57372e-01,9.99999e-01,9.99999e-01,7.57372e-01,9.99999e-01
1.140073787e+00,7.61541e-01,9.99999e-01,9.99999e-01,7.61541e-01,9.99999e-01
1.145774156e+00,7.65650e-01,9.99999e-01,9.99999e-01,7.65650e-01,9.99999e-01
1.151503026e+00,7.69699e-01,9.99999e-01,9.99999e-01,7.69699e-01,9.99999e-01
1.157260541e+00,7.73689e-01,9.99999e-01,9.99999e-01,7.73689e-01,9.99999e-01
1.163046844e+00,7.77620e-01,9.99999e-01,9.99999e-01,7.77620e-01,9.99999e-01
1.168862078e+00,7.81493e-01,9.99999e-01,9.99999e-01,7.81493e-01,9.99999e-01
1.174706389e+00,7.85308e-01,9.99999e-01,9.99999e-01,7.85308e-01,9.99999e-01
1.180579921e+00,7.89066e-01,9.99999e-01,9.99999e-01,7.89066e-01,9.99999e-01
1.186482820e+00,7.92760e-01,9.99999e-01,9.99990e-01,7.92767e-01,9.99999e-01
1.192415234e+00,7.78930e-01,9.99999e-01,9.78048e-01,7.96412e-01,9.99999e-01
1.198377311e+00,4.37052e-01,9.99999e-01,5.46315e-01,8.00001e-01,9.99999e-01
1.204369197e+00,1.43596e-17,9.99999e-01,1.78705e-17,8.03535e-01,9.99999e-01
1.210391043e+00,4.58885e-68,9.99999e-01,5.68621e-68,8.07014e-01,9.99999e-01
1.216442998e+00,4.91145e-59,9.99999e-01,6.06023e-59,8.10439e-01,9.99999e-01
1.222525213e+00,3.64950e-58,9.99999e-01,4.48445e-58,8.13811e-01,9.99999e-01
1.228637839e+00,5.21619e-45,9.99999e-01,6.38355e-45,8.17129e-01,9.99999e-01
1.234781029e+00,1.94230e-28,9.99999e-01,2.36751e-28,8.20395e-01,9.99999e-01
1.240954934e+00,4.65712e-19,9.99999e-01,5.65452e-19,8.23610e-01,9.99999e-01
1.247159708e+00,8.96754e-10,9.99999e-01,1.08464e-09,8.26773e-01,9.99999e-01
1.253395507e+00,1.56514e-06,9.99999e-01,1.88597e-06,8.29885e-01,9.99999e-01
1.259662485e+00,4.35545e-04,9.99999e-01,5.22895e-04,8.32947e-01,9.99999e-01
1.265960797e+00,1.11762e-02,9.99999e-01,1.33693e-02,8.35960e-01,9.99999e-01
1.272290601e+00,1.08814e-01,9.99999e-01,1.29706e-01,8.38924e-01,9.99999e-01
1.278652054e+00,1.08937e-01,9.99999e-01,1.29403e-01,8.41839e-01,9.99999e-01
1.285045314e+00,9.78728e-04,9.99999e-01,1.15866e-03,8.44707e-01,9.99999e-01
1.291470541e+00,1.55106e-08,9.99999e-01,1.83010e-08,8.47528e-01,9.99999e-01
1.297927893e+00,3.14039e-04,9.99999e-01,3.69326e-04,8.50301e-01,9.99999e-01
1.304417533e+00,2.64269e-02,9.99999e-01,3.09800e-02,8.53029e-01,9.99999e-01
1.310939621e+00,6.39632e-03,9.99999e-01,7.47485e-03,8.55712e-01,9.99999e-01
1.317494319e+00,1.14366e-23,9.99999e-01,1.33240e-23,8.58350e-01,9.99999e-01
1.324081790e+00,6.96211e-16,9.99999e-01,8.08660e-16,8.60943e-01,9.99999e-01
1.330702199e+00,2.01631e-09,9.99999e-01,2.33505e-09,8.63493e-01,9.99999e-01
1.337355710e+00,6.74020e-09,9.99999e-01,7.78314e-09,8.66000e-01,9.99999e-01
1.344042489e+00,2.61372e-09,9.99999e-01,3.00959e-09,8.68465e-01,9.99999e-01
1.350762701e+00,1.09821e-09,9.99999e-01,1.26102e-09,8.70887e-01,9.99999e-01
1.357516515e+00,2.69034e-06,9.99999e-01,3.08077e-06,8.73269e-01,9.99999e-01
1.364304097e+00,1.52834e-04,9.99999e-01,1.74546e-04,8.75609e-01,9.99999e-01
1.371125618e+00,1.01903e-02,9.99999e-01,1.16075e-02,8.77910e-01,9.99999e-01
1.377981246e+00,2.06394e-02,9.99999e-01,2.34493e-02,8.80171e-01,9.99999e-01
1.384871152e+00,9.93189e-02,9.99999e-01,1.12556e-01,8.82392e-01,9.99999e-01
1.391795508e+00,1.17329e-01,9.99999e-01,1.32639e-01,8.84576e-01,9.99999e-01
1.398754485e+00,2.52710e-01,9.99999e-01,2.84993e-01,8.86721e-01,9.99999e-01
1.405748258e+00,3.53845e-01,9.99999e-01,3.98102e-01,8.88830e-01,9.99999e-01
1.412776999e+00,4.96854e-01,9.99999e-01,5.57698e-01,8.90901e-01,9.99999e-01
1.419840884e+00,4.50295e-01,9.99999e-01,5.04285e-01,8.92936e-01,9.99999e-01
1.426940089e+00,2.74944e-02,9.99999e-01,3.07222e-02,8.94936e-01,9.99999e-01
1.434074789e+00,0.00000e+00,9.99999e-01,0.00000e+00,8.96900e-01,9.99999e-01
1.441245163e+00,0.00000e+00,9.99999e-01,0.00000e+00,8.98830e-01,9.99999e-01
1.448451389e+00,0.00000e+00,9.99999e-01,0.00000e+00,9.00726e-01,9.99999e-01
1.455693646e+00,0.00000e+00,9.99999e-01,0.00000e+00,9.02588e-01,9.99999e-01
1.462972114e+00,2.28419e-269,9.99999e-01,2.52560e-269,9.04417e-01,9.99999e-01
1.470286975e+00,3.66385e-112,9.99999e-01,4.04303e-112,9.06213e-01,9.99999e-01
