#,Wave/freq,Total,N2,CO2,Rayleigh,CIA
4.000000000e-01,1.57649e-09,9.99999e-01,9.99999e-01,1.57649e-09,9.99999e-01
4.020000000e-01,2.35363e-09,9.99999e-01,9.99999e-01,2.35363e-09,9.99999e-01
4.040100000e-01,3.48472e-09,9.99999e-01,9.99999e-01,3.48472e-09,9.99999e-01
4.060300500e-01,5.11954e-09,9.99999e-01,9.99999e-01,5.11954e-09,9.99999e-01
4.080602003e-01,7.46439e-09,9.99999e-01,9.99999e-01,7.46439e-09,9.99999e-01
4.101005013e-01,1.08025e-08,9.99999e-01,9.99999e-01,1.08025e-08,9.99999e-01
4.121510038e-01,1.55196e-08,9.99999e-01,9.99999e-01,1.55196e-08,9.99999e-01
4.142117588e-01,2.21376e-08,9.99999e-01,9.99999e-01,2.21376e-08,9.99999e-01
4.162828176e-01,3.13569e-08,9.99999e-01,9.99999e-01,3.13569e-08,9.99999e-01
4.183642317e-01,4.41112e-08,9.99999e-01,9.99999e-01,4.41112e-08,9.99999e-01
4.204560528e-01,6.16364e-08,9.99999e-01,9.99999e-01,6.16364e-08,9.99999e-01
4.225583331e-01,8.55570e-08,9.99999e-01,9.99999e-01,8.55570e-08,9.99999e-01
4.246711247e-01,1.17994e-07,9.99999e-01,9.99999e-01,1.17994e-07,9.99999e-01
4.267944804e-01,1.61700e-07,9.99999e-01,9.99999e-01,1.61700e-07,9.99999e-01
4.289284528e-01,2.20218e-07,9.99999e-01,9.99999e-01,2.20218e-07,9.99999e-01
4.310730950e-01,2.98091e-07,9.99999e-01,9.99999e-01,2.98091e-07,9.99999e-01
4.332284605e-01,4.01094e-07,9.99999e-01,9.99999e-01,4.01094e-07,9.99999e-01
4.353946028e-01,5.36535e-07,9.99999e-01,9.99999e-01,5.36535e-07,9.99999e-01
4.375715758e-01,7.13599e-07,9.99999e-01,9.99999e-01,7.13599e-07,9.99999e-01
4.397594337e-01,9.43765e-07,9.99999e-01,9.99999e-01,9.43765e-07,9.99999e-01
4.419582309e-01,1.24130e-06,9.99999e-01,9.99999e-01,1.24130e-06,9.99999e-01
4.441680220e-01,1.62381e-06,9.99999e-01,9.99999e-01,1.62381e-06,9.99999e-01
4.463888621e-01,2.11296e-06,9.99999e-01,9.99999e-01,2.11296e-06,9.99999e-01
4.486208064e-01,2.73520e-06,9.99999e-01,9.99999e-01,2.73520e-06,9.99999e-01
4.508639105e-01,3.52268e-06,9.99999e-01,9.99999e-01,3.52268e-06,9.99999e-01
4.531182300e-01,4.51425e-06,9.99999e-01,9.99999e-01,4.51425e-06,9.99999e-01
4.553838212e-01,5.75666e-06,9.99999e-01,9.99999e-01,5.75666e-06,9.99999e-01
4.576607403e-01,7.30584e-06,9.99999e-01,9.99999e-01,7.30584e-06,9.99999e-01
4.599490440e-01,9.22838e-06,9.99999e-01,9.99999e-01,9.22838e-06,9.99999e-01
4.622487892e-01,1.16032e-05,9.99999e-01,9.99999e-01,1.16032e-05,9.99999e-01
4.645600332e-01,1.45232e-05,9.99999e-01,9.99999e-01,1.45232e-05,9.99999e-01
4.668828333e-01,1.80978e-05,9.99999e-01,9.99999e-01,1.80978e-05,9.99999e-01
4.692172475e-01,2.24542e-05,9.99999e-01,9.99999e-01,2.24542e-05,9.99999e-01
4.715633337e-01,2.77410e-05,9.99999e-01,9.99999e-01,2.77410e-05,9.99999e-01
4.739211504e-01,3.41296e-05,9.99999e-01,9.99999e-01,3.41296e-05,9.99999e-01
4.762907561e-01,4.18180e-05,9.99999e-01,9.99999e-01,4.18180e-05,9.99999e-01
4.786722099e-01,5.10331e-05,9.99999e-01,9.99999e-01,5.10331e-05,9.99999e-01
4.810655710e-01,6.20344e-05,9.99999e-01,9.99999e-01,6.20344e-05,9.99999e-01
4.834708988e-01,7.51171e-05,9.99999e-01,9.99999e-01,7.51171e-05,9.99999e-01
4.858882533e-01,9.06156e-05,9.99999e-01,9.99999e-01,9.06156e-05,9.99999e-01
4.883176946e-01,1.08908e-04,9.99999e-01,9.99999e-01,1.08908e-04,9.99999e-01
4.907592831e-01,1.30418e-04,9.99999e-01,9.99999e-01,1.30418e-04,9.99999e-01
4.932130795e-01,1.55621e-04,9.99999e-01,9.99999e-01,1.55621e-04,9.99999e-01
4.956791449e-01,1.85048e-04,9.99999e-01,9.99999e-01,1.85048e-04,9.99999e-01
4.981575406e-01,2.19288e-04,9.99999e-01,9.99999e-01,2.19288e-04,9.99999e-01
5.006483283e-01,2.58993e-04,9.99999e-01,9.99999e-01,2.58993e-04,9.99999e-01
5.031515699e-01,3.04884e-04,9.99999e-01,9.99999e-01,3.04884e-04,9.99999e-01
5.056673278e-01,3.57752e-04,9.99999e-01,9.99999e-01,3.57752e-04,9.99999e-01
5.081956644e-01,4.18463e-04,9.99999e-01,9.99999e-01,4.18463e-04,9.99999e-01
5.107366428e-01,4.87964e-04,9.99999e-01,9.99999e-01,4.87964e-04,9.99999e-01
5.132903260e-01,5.67284e-04,9.99999e-01,9.99999e-01,5.67284e-04,9.99999e-01
5.158567776e-01,6.57538e-04,9.99999e-01,9.99999e-01,6.57538e-04,9.99999e-01
5.184360615e-01,7.59932e-04,9.99999e-01,9.99999e-01,7.59932e-04,9.99999e-01
5.210282418e-01,8.75764e-04,9.99999e-01,9.99999e-01,8.75764e-04,9.99999e-01
5.236333830e-01,1.00643e-03,9.99999e-01,9.99999e-01,1.00643e-03,9.99999e-01
5.262515499e-01,1.15341e-03,9.99999e-01,9.99999e-01,1.15341e-03,9.99999e-01
5.288828077e-01,1.31831e-03,9.99999e-01,9.99999e-01,1.31831e-03,9.99999e-01
5.315272217e-01,1.50281e-03,9.99999e-01,9.99999e-01,1.50281e-03,9.99999e-01
5.341848578e-01,1.70871e-03,9.99999e-01,9.99999e-01,1.70871e-03,9.99999e-01
5.368557821e-01,1.93789e-03,9.99999e-01,9.99999e-01,1.93789e-03,9.99999e-01
5.395400610e-01,2.19236e-03,9.99999e-01,9.99999e-01,2.19236e-03,9.99999e-01
5.422377613e-01,2.47420e-03,9.99999e-01,9.99999e-01,2.47420e-03,9.99999e-01
5.449489501e-01,2.78562e-03,9.99999e-01,9.99999e-01,2.78562e-03,9.99999e-01
5.476736949e-01,3.12889e-03,9.99999e-01,9.99999e-01,3.12889e-03,9.99999e-01
5.504120634e-01,3.50641e-03,9.99999e-01,9.99999e-01,3.50641e-03,9.99999e-01
5.531641237e-01,3.92065e-03,9.99999e-01,9.99999e-01,3.92065e-03,9.99999e-01
5.559299443e-01,4.37416e-03,9.99999e-01,9.99999e-01,4.37416e-03,9.99999e-01
5.587095940e-01,4.86960e-03,9.99999e-01,9.99999e-01,4.86960e-03,9.99999e-01
5.615031420e-01,5.40967e-03,9.99999e-01,9.99999e-01,5.40967e-03,9.99999e-01
5.643106577e-01,5.99717e-03,9.99999e-01,9.99999e-01,5.99717e-03,9.99999e-01
5.671322110e-01,6.63494e-03,9.99999e-01,9.99999e-01,6.63494e-03,9.99999e-01
5.699678720e-01,7.32591e-03,9.99999e-01,9.99999e-01,7.32591e-03,9.99999e-01
5.728177114e-01,8.07301e-03,9.99999e-01,9.99999e-01,8.07301e-03,9.99999e-01
5.756818000e-01,8.87926e-03,9.99999e-01,9.99999e-01,8.87926e-03,9.99999e-01
5.785602090e-01,9.74768e-03,9.99999e-01,9.99999e-01,9.74768e-03,9.99999e-01
5.814530100e-01,1.06813e-02,9.99999e-01,9.99999e-01,1.06813e-02,9.99999e-01
5.843602750e-01,1.16833e-02,9.99999e-01,9.99999e-01,1.16833e-02,9.99999e-01
5.872820764e-01,1.27566e-02,9.99999e-01,9.99999e-01,1.27566e-02,9.99999e-01
5.902184868e-01,1.39044e-02,9.99999e-01,9.99999e-01,1.39044e-02,9.99999e-01
5.931695792e-01,1.51297e-02,9.99999e-01,9.99999e-01,1.51297e-02,9.99999e-01
5.961354271e-01,1.64355e-02,9.99999e-01,9.99999e-01,1.64355e-02,9.99999e-01
5.991161043e-01,1.78248e-02,9.99999e-01,9.99999e-01,1.78248e-02,9.99999e-01
6.021116848e-01,1.93006e-02,9.99999e-01,9.99999e-01,1.93006e-02,9.99999e-01
6.051222432e-01,2.08658e-02,9.99999e-01,9.99999e-01,2.08658e-02,9.99999e-01
6.081478544e-01,2.25232e-02,9.99999e-01,9.99999e-01,2.25232e-02,9.99999e-01
6.111885937e-01,2.42756e-02,9.99999e-01,9.99999e-01,2.42756e-02,9.99999e-01
6.142445367e-01,2.61257e-02,9.99999e-01,9.99999e-01,2.61257e-02,9.99999e-01
6.173157594e-01,2.80759e-02,9.99999e-01,9.99999e-01,2.80759e-02,9.99999e-01
6.204023382e-01,3.01289e-02,9.99999e-01,9.99999e-01,3.01289e-02,9.99999e-01
6.235043498e-01,3.22870e-02,9.99999e-01,9.99999e-01,3.22870e-02,9.99999e-01
6.266218716e-01,3.45524e-02,9.99999e-01,9.99999e-01,3.45524e-02,9.99999e-01
6.297549810e-01,3.69272e-02,9.99999e-01,9.99999e-01,3.69272e-02,9.99999e-01
6.329037559e-01,3.94135e-02,9.99999e-01,9.99999e-01,3.94135e-02,9.99999e-01
6.360682746e-01,4.20131e-02,9.99999e-01,9.99999e-01,4.20131e-02,9.99999e-01
6.392486160e-01,4.47276e-02,9.99999e-01,9.99999e-01,4.47276e-02,9.99999e-01
6.424448591e-01,4.75587e-02,9.99999e-01,9.99999e-01,4.75587e-02,9.99999e-01
6.456570834e-01,5.05078e-02,9.99999e-01,9.99999e-01,5.05078e-02,9.99999e-01
6.488853688e-01,5.35760e-02,9.99999e-01,9.99999e-01,5.35760e-02,9.99999e-01
6.521297956e-01,5.67644e-02,9.99999e-01,9.99999e-01,5.67644e-02,9.99999e-01
6.553904446e-01,6.00740e-02,9.99999e-01,9.99999e-01,6.00740e-02,9.99999e-01
6.586673968e-01,6.35053e-02,9.99999e-01,9.99999e-01,6.35053e-02,9.99999e-01
6.619607338e-01,6.70591e-02,9.99999e-01,9.99999e-01,6.70591e-02,9.99999e-01
6.652705375e-01,7.07356e-02,9.99999e-01,9.99999e-01,7.07356e-02,9.99999e-01
6.685968902e-01,7.45351e-02,9.99999e-01,9.99999e-01,7.45351e-02,9.99999e-01
6.719398746e-01,7.84575e-02,9.99999e-01,9.99999e-01,7.84575e-02,9.99999e-01
6.752995740e-01,8.25027e-02,9.99999e-01,9.99999e-01,8.25027e-02,9.99999e-01
6.786760719e-01,8.66703e-02,9.99999e-01,9.99999e-01,8.66703e-02,9.99999e-01
6.820694522e-01,9.09599e-02,9.99999e-01,9.99999e-01,9.09599e-02,9.99999e-01
6.854797995e-01,9.53708e-02,9.99999e-01,9.99999e-01,9.53708e-02,9.99999e-01
6.889071985e-01,9.99021e-02,9.99999e-01,9.99999e-01,9.99021e-02,9.99999e-01
6.923517345e-01,1.04553e-01,9.99999e-01,9.99999e-01,1.04553e-01,9.99999e-01
6.958134932e-01,1.09322e-01,9.99999e-01,9.99999e-01,1.09322e-01,9.99999e-01
6.992925606e-01,1.14207e-01,9.99999e-01,9.99999e-01,1.14207e-01,9.99999e-01
7.027890234e-01,1.19208e-01,9.99999e-01,9.99999e-01,1.19208e-01,9.99999e-01
7.063029686e-01,1.24323e-01,9.99999e-01,9.99999e-01,1.24323e-01,9.99999e-01
7.098344834e-01,1.29550e-01,9.99999e-01,9.99999e-01,1.29550e-01,9.99999e-01
7.133836558e-01,1.34886e-01,9.99999e-01,9.99999e-01,1.34886e-01,9.99999e-01
7.169505741e-01,1.40331e-01,9.99999e-01,9.99999e-01,1.40331e-01,9.99999e-01
7.205353270e-01,1.45881e-01,9.99999e-01,9.99999e-01,1.45881e-01,9.99999e-01
7.241380036e-01,1.51535e-01,9.99999e-01,9.99999e-01,1.51535e-01,9.99999e-01
7.277586936e-01,1.57289e-01,9.99999e-01,9.99999e-01,1.57289e-01,9.99999e-01
7.313974871e-01,1.63142e-01,9.99999e-01,9.99999e-01,1.63142e-01,9.99999e-01
7.350544745e-01,1.69091e-01,9.99999e-01,9.99999e-01,1.69091e-01,9.99999e-01
7.387297469e-01,1.75133e-01,9.99999e-01,9.99999e-01,1.75133e-01,9.99999e-01
7.424233956e-01,1.81264e-01,9.99999e-01,9.99999e-01,1.81264e-01,9.99999e-01
7.461355126e-01,1.87483e-01,9.99999e-01,9.99999e-01,1.87483e-01,9.99999e-01
7.498661902e-01,1.93786e-01,9.99999e-01,9.99999e-01,1.93786e-01,9.99999e-01
7.536155211e-01,2.00171e-01,9.99999e-01,9.99999e-01,2.00171e-01,9.99999e-01
7.573835987e-01,2.06633e-01,9.99999e-01,9.99999e-01,2.06633e-01,9.99999e-01
7.611705167e-01,2.13170e-01,9.99999e-01,9.99999e-01,2.13170e-01,9.99999e-01
7.649763693e-01,2.19778e-01,9.99999e-01,9.99999e-01,2.19778e-01,9.99999e-01
7.688012511e-01,2.26455e-01,9.99999e-01,9.99999e-01,2.26455e-01,9.99999e-01
7.726452574e-01,2.33197e-01,9.99999e-01,9.99999e-01,2.33197e-01,9.99999e-01
7.765084837e-01,2.40001e-01,9.99999e-01,9.99999e-01,2.40001e-01,9.99999e-01
7.803910261e-01,2.32318e-01,9.99999e-01,9.41081e-01,2.46862e-01,9.99999e-01
7.842929812e-01,1.91215e-01,9.99999e-01,7.53472e-01,2.53779e-01,9.99999e-01
7.882144461e-01,1.92964e-01,9.99999e-01,7.40042e-01,2.60747e-01,9.99999e-01
7.921555184e-01,2.23651e-01,9.99999e-01,8.35257e-01,2.67762e-01,9.99999e-01
7.961162960e-01,2.43455e-01,9.99999e-01,8.85862e-01,2.74823e-01,9.99999e-01
8.000968774e-01,2.63991e-01,9.99999e-01,9.36389e-01,2.81925e-01,9.99999e-01
8.040973618e-01,2.79378e-01,9.99999e-01,9.66491e-01,2.89064e-01,9.99999e-01
8.081178486e-01,2.91640e-01,9.99999e-01,9.84476e-01,2.96238e-01,9.99999e-01
8.121584379e-01,3.01980e-01,9.99999e-01,9.95178e-01,3.03443e-01,9.99999e-01
8.162192301e-01,3.10345e-01,9.99999e-01,9.98933e-01,3.10676e-01,9.99999e-01
8.203003262e-01,3.17928e-01,9.99999e-01,9.99983e-01,3.17933e-01,9.99999e-01
8.244018279e-01,3.25212e-01,9.99999e-01,9.99999e-01,3.25212e-01,9.99999e-01
8.285238370e-01,3.32508e-01,9.99999e-01,9.99999e-01,3.32508e-01,9.99999e-01
8.326664562e-01,3.39819e-01,9.99999e-01,9.99999e-01,3.39819e-01,9.99999e-01
8.368297885e-01,3.47141e-01,9.99999e-01,9.99999e-01,3.47141e-01,9.99999e-01
8.410139374e-01,3.54473e-01,9.99999e-01,9.99999e-01,3.54473e-01,9.99999e-01
8.452190071e-01,3.61809e-01,9.99999e-01,9.99999e-01,3.61809e-01,9.99999e-01
8.494451021e-01,3.69148e-01,9.99999e-01,9.99999e-01,3.69148e-01,9.99999e-01
8.536923276e-01,3.76487e-01,9.99999e-01,9.99999e-01,3.76487e-01,9.99999e-01
8.579607893e-01,3.83822e-01,9.99999e-01,9.99999e-01,3.83822e-01,9.99999e-01
8.622505932e-01,3.91151e-01,9.99999e-01,9.99999e-01,3.91151e-01,9.99999e-01
8.665618462e-01,3.56455e-01,9.99999e-01,8.94557e-01,3.98470e-01,9.99999e-01
8.708946554e-01,2.00269e-01,9.99999e-01,4.93542e-01,4.05779e-01,9.99999e-01
8.752491287e-01,2.31585e-01,9.99999e-01,5.60639e-01,4.13073e-01,9.99999e-01
8.796253743e-01,3.04528e-01,9.99999e-01,7.24462e-01,4.20350e-01,9.99999e-01
8.840235012e-01,3.61280e-01,9.99999e-01,8.44886e-01,4.27608e-01,9.99999e-01
8.884436187e-01,4.06812e-01,9.99999e-01,9.35534e-01,4.34844e-01,9.99999e-01
8.928858368e-01,4.30274e-01,9.99999e-01,9.73348e-01,4.42056e-01,9.99999e-01
8.973502660e-01,4.46303e-01,9.99999e-01,9.93459e-01,4.49241e-01,9.99999e-01
9.018370173e-01,4.56069e-01,9.99999e-01,9.99276e-01,4.56398e-01,9.99999e-01
9.063462024e-01,4.55081e-01,9.99999e-01,9.81783e-01,4.63525e-01,9.99999e-01
9.108779334e-01,4.50998e-01,9.99999e-01,9.58309e-01,4.70618e-01,9.99999e-01
9.154323231e-01,4.72923e-01,9.99999e-01,9.90047e-01,4.77677e-01,9.99999e-01
9.200094847e-01,4.22784e-01,9.99999e-01,8.72260e-01,4.84699e-01,9.99999e-01
9.246095321e-01,3.99412e-01,9.99999e-01,8.12335e-01,4.91683e-01,9.99999e-01
9.292325798e-01,4.24306e-01,9.99999e-01,8.50949e-01,4.98626e-01,9.99999e-01
9.338787427e-01,4.32076e-01,9.99999e-01,8.54702e-01,5.05527e-01,9.99999e-01
9.385481364e-01,4.56357e-01,9.99999e-01,8.90652e-01,5.12385e-01,9.99999e-01
9.432408771e-01,4.83577e-01,9.99999e-01,9.31391e-01,5.19198e-01,9.99999e-01
9.479570815e-01,5.07127e-01,9.99999e-01,9.64186e-01,5.25963e-01,9.99999e-01
9.526968669e-01,5.23400e-01,9.99999e-01,9.82576e-01,5.32681e-01,9.99999e-01
9.574603512e-01,5.35310e-01,9.99999e-01,9.92509e-01,5.39349e-01,9.99999e-01
9.622476530e-01,5.44689e-01,9.99999e-01,9.97657e-01,5.45967e-01,9.99999e-01
9.670588912e-01,5.52145e-01,9.99999e-01,9.99297e-01,5.52533e-01,9.99999e-01
9.718941857e-01,5.59018e-01,9.99999e-01,9.99949e-01,5.59045e-01,9.99999e-01
9.767536566e-01,5.65504e-01,9.99999e-01,9.99999e-01,5.65504e-01,9.99999e-01
9.816374249e-01,5.71907e-01,9.99999e-01,9.99999e-01,5.71907e-01,9.99999e-01
9.865456120e-01,5.78255e-01,9.99999e-01,9.99999e-01,5.78255e-01,9.99999e-01
9.914783401e-01,5.84545e-01,9.99999e-01,9.99999e-01,5.84545e-01,9.99999e-01
9.964357318e-01,5.90777e-01,9.99999e-01,9.99999e-01,5.90777e-01,9.99999e-01
1.001417910e+00,5.96951e-01,9.99999e-01,9.99999e-01,5.96951e-01,9.99999e-01
1.006425000e+00,6.03065e-01,9.99999e-01,9.99999e-01,6.03065e-01,9.99999e-01
1.011457125e+00,6.09120e-01,9.99999e-01,9.99999e-01,6.09120e-01,9.99999e-01
1.016514411e+00,6.15114e-01,9.99999e-01,9.99999e-01,6.15114e-01,9.99999e-01
1.021596983e+00,6.20986e-01,9.99999e-01,9.99902e-01,6.21046e-01,9.99999e-01
1.026704968e+00,6.22419e-01,9.99999e-01,9.92824e-01,6.26917e-01,9.99999e-01
1.031838492e+00,5.89383e-01,9.99999e-01,9.31496e-01,6.32726e-01,9.99999e-01
1.036997685e+00,5.34416e-02,9.99999e-01,8.37022e-02,6.38473e-01,9.99999e-01
1.042182673e+00,1.44669e-02,9.99999e-01,2.24587e-02,6.44156e-01,9.99999e-01
1.047393587e+00,2.61572e-02,9.99999e-01,4.02557e-02,6.49777e-01,9.99999e-01
1.052630555e+00,5.65481e-05,9.99999e-01,8.62889e-05,6.55334e-01,9.99999e-01
1.057893707e+00,1.93795e-04,9.99999e-01,2.93260e-04,6.60827e-01,9.99999e-01
1.063183176e+00,1.55363e-03,9.99999e-01,2.33188e-03,6.66257e-01,9.99999e-01
1.068499092e+00,8.22899e-03,9.99999e-01,1.22524e-02,6.71622e-01,9.99999e-01
1.073841587e+00,4.09625e-02,9.99999e-01,6.05127e-02,6.76924e-01,9.99999e-01
1.079210795e+00,1.15819e-01,9.99999e-01,1.69782e-01,6.82161e-01,9.99999e-01
1.084606849e+00,2.55211e-01,9.99999e-01,3.71305e-01,6.87335e-01,9.99999e-01
1.090029883e+00,4.13054e-01,9.99999e-01,5.96515e-01,6.92444e-01,9.99999e-01
1.095480033e+00,5.40466e-01,9.99999e-01,7.74874e-01,6.97489e-01,9.99999e-01
1.100957433e+00,6.21063e-01,9.99999e-01,8.84112e-01,7.02470e-01,9.99999e-01
1.106462220e+00,6.72231e-01,9.99999e-01,9.50301e-01,7.07387e-01,9.99999e-01
1.111994531e+00,6.98903e-01,9.99999e-01,9.81273e-01,7.12241e-01,9.99999e-01
1.117554504e+00,7.13729e-01,9.99999e-01,9.95395e-01,7.17031e-01,9.99999e-01
1.123142276e+00,7.21539e-01,9.99999e-01,9.99696e-01,7.21758e-01,9.99999e-01
1.128757988e+00,7.26421e-01,9.99999e-01,9.99999e-01,7.26421e-01,9.99999e-01
1.134401778e+00,7.31022e-01,9.99999e-01,9.99999e-01,7.31022e-01,9.99999e-01
1.140073787e+00,7.35560e-01,9.99999e-01,9.99999e-01,7.35560e-01,9.99999e-01
1.145774156e+00,7.40036e-01,9.99999e-01,9.99999e-01,7.40036e-01,9.99999e-01
1.151503026e+00,7.44449e-01,9.99999e-01,9.99999e-01,7.44449e-01,9.99999e-01
1.157260541e+00,7.48802e-01,9.99999e-01,9.99999e-01,7.48802e-01,9.99999e-01
1.163046844e+00,7.53093e-01,9.99999e-01,9.99999e-01,7.53093e-01,9.99999e-01
1.168862078e+00,7.57323e-01,9.99999e-01,9.99999e-01,7.57323e-01,9.99999e-01
1.174706389e+00,7.61492e-01,9.99999e-01,9.99999e-01,7.61492e-01,9.99999e-01
1.180579921e+00,7.65602e-01,9.99999e-01,9.99999e-01,7.65602e-01,9.99999e-01
1.186482820e+00,7.69642e-01,9.99999e-01,9.99986e-01,7.69651e-01,9.99999e-01
1.192415234e+00,7.54296e-01,9.99999e-01,9.74992e-01,7.73642e-01,9.99999e-01
1.198377311e+00,4.20761e-01,9.99999e-01,5.41120e-01,7.77574e-01,9.99999e-01
1.204369197e+00,1.59802e-19,9.99999e-01,2.04495e-19,7.81447e-01,9.99999e-01
1.210391043e+00,1.85547e-76,9.99999e-01,2.36286e-76,7.85263e-01,9.99999e-01
1.216442998e+00,2.81557e-66,9.99999e-01,3.56842e-66,7.89022e-01,9.99999e-01
1.222525213e+00,2.70151e-65,9.99999e-01,3.40788e-65,7.92723e-01,9.99999e-01
1.228637839e+00,1.68790e-50,9.99999e-01,2.11949e-50,7.96369e-01,9.99999e-01
1.234781029e+00,8.88384e-32,9.99999e-01,1.11054e-31,7.99958e-01,9.99999e-01
1.240954934e+00,3.03639e-21,9.99999e-01,3.77898e-21,8.03493e-01,9.99999e-01
1.247159708e+00,9.82482e-11,9.99999e-01,1.21749e-10,8.06973e-01,9.99999e-01
1.253395507e+00,3.31872e-07,9.99999e-01,4.09516e-07,8.10399e-01,9.99999e-01
1.259662485e+00,1.80171e-04,9.99999e-01,2.21402e-04,8.13771e-01,9.99999e-01
1.265960797e+00,6.95432e-03,9.99999e-01,8.51108e-03,8.17090e-01,9.99999e-01
1.272290601e+00,9.79050e-02,9.99999e-01,1.19344e-01,8.20357e-01,9.99999e-01
1.278652054e+00,8.46648e-02,9.99999e-01,1.02802e-01,8.23572e-01,9.99999e-01
1.285045314e+00,4.30163e-04,9.99999e-01,5.20314e-04,8.26735e-01,9.99999e-01
1.291470541e+00,1.84137e-09,9.99999e-01,2.21892e-09,8.29848e-01,9.99999e-01
1.297927893e+00,1.48787e-04,9.99999e-01,1.78635e-04,8.32911e-01,9.99999e-01
1.304417533e+00,1.70003e-02,9.99999e-01,2.03371e-02,8.35925e-01,9.99999e-01
1.310939621e+00,4.04253e-03,9.99999e-01,4.81891e-03,8.38889e-01,9.99999e-01
1.317494319e+00,1.85082e-26,9.99999e-01,2.19863e-26,8.41805e-01,9.99999e-01
1.324081790e+00,1.17845e-17,9.99999e-01,1.39515e-17,8.44673e-01,9.99999e-01
1.330702199e+00,1.75277e-10,9.99999e-01,2.06818e-10,8.47494e-01,9.99999e-01
1.337355710e+00,7.97726e-10,9.99999e-01,9.38204e-10,8.50269e-01,9.99999e-01
1.344042489e+00,3.26735e-10,9.99999e-01,3.83043e-10,8.52997e-01,9.99999e-01
1.350762701e+00,9.48532e-11,9.99999e-01,1.10851e-10,8.55680e-01,9.99999e-01
1.357516515e+00,6.71438e-07,9.99999e-01,7.82270e-07,8.58319e-01,9.99999e-01
1.364304097e+00,5.33954e-05,9.99999e-01,6.20218e-05,8.60913e-01,9.99999e-01
1.371125618e+00,5.98241e-03,9.99999e-01,6.92838e-03,8.63463e-01,9.99999e-01
1.377981246e+00,1.27779e-02,9.99999e-01,1.47556e-02,8.65971e-01,9.99999e-01
1.384871152e+00,7.45968e-02,9.99999e-01,8.58978e-02,8.68436e-01,9.99999e-01
1.391795508e+00,9.01742e-02,9.99999e-01,1.03546e-01,8.70859e-01,9.99999e-01
1.398754485e+00,2.12601e-01,9.99999e-01,2.43461e-01,8.73241e-01,9.99999e-01
1.405748258e+00,3.11114e-01,9.99999e-01,3.55323e-01,8.75582e-01,9.99999e-01
1.412776999e+00,4.55391e-01,9.99999e-01,5.18737e-01,8.77883e-01,9.99999e-01
1.419840884e+00,4.12095e-01,9.99999e-01,4.68213e-01,8.80144e-01,9.99999e-01
1.426940089e+00,2.24813e-02,9.99999e-01,2.54784e-02,8.82366e-01,9.99999e-01
1.434074789e+00,0.00000e+00,9.99999e-01,0.00000e+00,8.84550e-01,9.99999e-01
1.441245163e+00,0.00000e+00,9.99999e-01,0.00000e+00,8.86696e-01,9.99999e-01
1.448451389e+00,0.00000e+00,9.99999e-01,0.00000e+00,8.88805e-01,9.99999e-01
1.455693646e+00,0.00000e+00,9.99999e-01,0.00000e+00,8.90877e-01,9.99999e-01
1.462972114e+00,1.97966e-303,9.99999e-01,2.21708e-303,8.92912e-01,9.99999e-01
1.470286975e+00,3.53361e-126,9.99999e-01,3.94855e-126,8.94912e-01,9.99999e-01
