#,Wave/freq,Total,N2,CO2,Rayleigh,CIA
4.000000000e-01,2.59296e-02,9.99999e-01,9.99999e-01,2.59296e-02,9.99999e-01
4.020000000e-01,2.78714e-02,9.99999e-01,9.99999e-01,2.78714e-02,9.99999e-01
4.040100000e-01,2.99137e-02,9.99999e-01,9.99999e-01,2.99137e-02,9.99999e-01
4.060300500e-01,3.20609e-02,9.99999e-01,9.99999e-01,3.20609e-02,9.99999e-01
4.080602003e-01,3.43152e-02,9.99999e-01,9.99999e-01,3.43152e-02,9.99999e-01
4.101005013e-01,3.66787e-02,9.99999e-01,9.99999e-01,3.66787e-02,9.99999e-01
4.121510038e-01,3.91535e-02,9.99999e-01,9.99999e-01,3.91535e-02,9.99999e-01
4.142117588e-01,4.17414e-02,9.99999e-01,9.99999e-01,4.17414e-02,9.99999e-01
4.162828176e-01,4.44441e-02,9.99999e-01,9.99999e-01,4.44441e-02,9.99999e-01
4.183642317e-01,4.72632e-02,9.99999e-01,9.99999e-01,4.72632e-02,9.99999e-01
4.204560528e-01,5.02001e-02,9.99999e-01,9.99999e-01,5.02001e-02,9.99999e-01
4.225583331e-01,5.32561e-02,9.99999e-01,9.99999e-01,5.32561e-02,9.99999e-01
4.246711247e-01,5.64321e-02,9.99999e-01,9.99999e-01,5.64321e-02,9.99999e-01
4.267944804e-01,5.97292e-02,9.99999e-01,9.99999e-01,5.97292e-02,9.99999e-01
4.289284528e-01,6.31481e-02,9.99999e-01,9.99999e-01,6.31481e-02,9.99999e-01
4.310730950e-01,6.66893e-02,9.99999e-01,9.99999e-01,6.66893e-02,9.99999e-01
4.332284605e-01,7.03532e-02,9.99999e-01,9.99999e-01,7.03532e-02,9.99999e-01
4.353946028e-01,7.41400e-02,9.99999e-01,9.99999e-01,7.41400e-02,9.99999e-01
4.375715758e-01,7.80499e-02,9.99999e-01,9.99999e-01,7.80499e-02,9.99999e-01
4.397594337e-01,8.20825e-02,9.99999e-01,9.99999e-01,8.20825e-02,9.99999e-01
4.419582309e-01,8.62376e-02,9.99999e-01,9.99999e-01,8.62376e-02,9.99999e-01
4.441680220e-01,9.05147e-02,9.99999e-01,9.99999e-01,9.05147e-02,9.99999e-01
4.463888621e-01,9.49132e-02,9.99999e-01,9.99999e-01,9.49132e-02,9.99999e-01
4.486208064e-01,9.94322e-02,9.99999e-01,9.99999e-01,9.94322e-02,9.99999e-01
4.508639105e-01,1.04071e-01,9.99999e-01,9.99999e-01,1.04071e-01,9.99999e-01
4.531182300e-01,1.08827e-01,9.99999e-01,9.99999e-01,1.08827e-01,9.99999e-01
4.553838212e-01,1.13701e-01,9.99999e-01,9.99999e-01,1.13701e-01,9.99999e-01
4.576607403e-01,1.18691e-01,9.99999e-01,9.99999e-01,1.18691e-01,9.99999e-01
4.599490440e-01,1.23794e-01,9.99999e-01,9.99999e-01,1.23794e-01,9.99999e-01
4.622487892e-01,1.29009e-01,9.99999e-01,9.99999e-01,1.29009e-01,9.99999e-01
4.645600332e-01,1.34335e-01,9.99999e-01,9.99999e-01,1.34335e-01,9.99999e-01
4.668828333e-01,1.39768e-01,9.99999e-01,9.99999e-01,1.39768e-01,9.99999e-01
4.692172475e-01,1.45308e-01,9.99999e-01,9.99999e-01,1.45308e-01,9.99999e-01
4.715633337e-01,1.50951e-01,9.99999e-01,9.99999e-01,1.50951e-01,9.99999e-01
4.739211504e-01,1.56695e-01,9.99999e-01,9.99999e-01,1.56695e-01,9.99999e-01
4.762907561e-01,1.62538e-01,9.99999e-01,9.99999e-01,1.62538e-01,9.99999e-01
4.786722099e-01,1.68477e-01,9.99999e-01,9.99999e-01,1.68477e-01,9.99999e-01
4.810655710e-01,1.74509e-01,9.99999e-01,9.99999e-01,1.74509e-01,9.99999e-01
4.834708988e-01,1.80632e-01,9.99999e-01,9.99999e-01,1.80632e-01,9.99999e-01
4.858882533e-01,1.86842e-01,9.99999e-01,9.99999e-01,1.86842e-01,9.99999e-01
4.883176946e-01,1.93137e-01,9.99999e-01,9.99999e-01,1.93137e-01,9.99999e-01
4.907592831e-01,1.99513e-01,9.99999e-01,9.99999e-01,1.99513e-01,9.99999e-01
4.932130795e-01,2.05967e-01,9.99999e-01,9.99999e-01,2.05967e-01,9.99999e-01
4.956791449e-01,2.12497e-01,9.99999e-01,9.99999e-01,2.12497e-01,9.99999e-01
4.981575406e-01,2.19098e-01,9.99999e-01,9.99999e-01,2.19098e-01,9.99999e-01
5.006483283e-01,2.25768e-01,9.99999e-01,9.99999e-01,2.25768e-01,9.99999e-01
5.031515699e-01,2.32503e-01,9.99999e-01,9.99999e-01,2.32503e-01,9.99999e-01
5.056673278e-01,2.39301e-01,9.99999e-01,9.99999e-01,2.39301e-01,9.99999e-01
5.081956644e-01,2.46156e-01,9.99999e-01,9.99999e-01,2.46156e-01,9.99999e-01
5.107366428e-01,2.53067e-01,9.99999e-01,9.99999e-01,2.53067e-01,9.99999e-01
5.132903260e-01,2.60030e-01,9.99999e-01,9.99999e-01,2.60030e-01,9.99999e-01
5.158567776e-01,2.67041e-01,9.99999e-01,9.99999e-01,2.67041e-01,9.99999e-01
5.184360615e-01,2.74098e-01,9.99999e-01,9.99999e-01,2.74098e-01,9.99999e-01
5.210282418e-01,2.81195e-01,9.99999e-01,9.99999e-01,2.81195e-01,9.99999e-01
5.236333830e-01,2.88331e-01,9.99999e-01,9.99999e-01,2.88331e-01,9.99999e-01
5.262515499e-01,2.95502e-01,9.99999e-01,9.99999e-01,2.95502e-01,9.99999e-01
5.288828077e-01,3.02704e-01,9.99999e-01,9.99999e-01,3.02704e-01,9.99999e-01
5.315272217e-01,3.09934e-01,9.99999e-01,9.99999e-01,3.09934e-01,9.99999e-01
5.341848578e-01,3.17188e-01,9.99999e-01,9.99999e-01,3.17188e-01,9.99999e-01
5.368557821e-01,3.24465e-01,9.99999e-01,9.99999e-01,3.24465e-01,9.99999e-01
5.395400610e-01,3.31759e-01,9.99999e-01,9.99999e-01,3.31759e-01,9.99999e-01
5.422377613e-01,3.39069e-01,9.99999e-01,9.99999e-01,3.39069e-01,9.99999e-01
5.449489501e-01,3.46391e-01,9.99999e-01,9.99999e-01,3.46391e-01,9.99999e-01
5.476736949e-01,3.53721e-01,9.99999e-01,9.99999e-01,3.53721e-01,9.99999e-01
5.504120634e-01,3.61057e-01,9.99999e-01,9.99999e-01,3.61057e-01,9.99999e-01
5.531641237e-01,3.68396e-01,9.99999e-01,9.99999e-01,3.68396e-01,9.99999e-01
5.559299443e-01,3.75735e-01,9.99999e-01,9.99999e-01,3.75735e-01,9.99999e-01
5.587095940e-01,3.83070e-01,9.99999e-01,9.99999e-01,3.83070e-01,9.99999e-01
5.615031420e-01,3.90400e-01,9.99999e-01,9.99999e-01,3.90400e-01,9.99999e-01
5.643106577e-01,3.97721e-01,9.99999e-01,9.99999e-01,3.97721e-01,9.99999e-01
5.671322110e-01,4.05030e-01,9.99999e-01,9.99999e-01,4.05030e-01,9.99999e-01
5.699678720e-01,4.12326e-01,9.99999e-01,9.99999e-01,4.12326e-01,9.99999e-01
5.728177114e-01,4.19605e-01,9.99999e-01,9.99999e-01,4.19605e-01,9.99999e-01
5.756818000e-01,4.26865e-01,9.99999e-01,9.99999e-01,4.26865e-01,9.99999e-01
5.785602090e-01,4.34103e-01,9.99999e-01,9.99999e-01,4.34103e-01,9.99999e-01
5.814530100e-01,4.41318e-01,9.99999e-01,9.99999e-01,4.41318e-01,9.99999e-01
5.843602750e-01,4.48506e-01,9.99999e-01,9.99999e-01,4.48506e-01,9.99999e-01
5.872820764e-01,4.55666e-01,9.99999e-01,9.99999e-01,4.55666e-01,9.99999e-01
5.902184868e-01,4.62796e-01,9.99999e-01,9.99999e-01,4.62796e-01,9.99999e-01
5.931695792e-01,4.69893e-01,9.99999e-01,9.99999e-01,4.69893e-01,9.99999e-01
5.961354271e-01,4.76955e-01,9.99999e-01,9.99999e-01,4.76955e-01,9.99999e-01
5.991161043e-01,4.83981e-01,9.99999e-01,9.99999e-01,4.83981e-01,9.99999e-01
6.021116848e-01,4.90969e-01,9.99999e-01,9.99999e-01,4.90969e-01,9.99999e-01
6.051222432e-01,4.97916e-01,9.99999e-01,9.99999e-01,4.97916e-01,9.99999e-01
6.081478544e-01,5.04822e-01,9.99999e-01,9.99999e-01,5.04822e-01,9.99999e-01
6.111885937e-01,5.11684e-01,9.99999e-01,9.99999e-01,5.11684e-01,9.99999e-01
6.142445367e-01,5.18502e-01,9.99999e-01,9.99999e-01,5.18502e-01,9.99999e-01
6.173157594e-01,5.25272e-01,9.99999e-01,9.99999e-01,5.25272e-01,9.99999e-01
6.204023382e-01,5.31995e-01,9.99999e-01,9.99999e-01,5.31995e-01,9.99999e-01
6.235043498e-01,5.38668e-01,9.99999e-01,9.99999e-01,5.38668e-01,9.99999e-01
6.266218716e-01,5.45291e-01,9.99999e-01,9.99999e-01,5.45291e-01,9.99999e-01
6.297549810e-01,5.51862e-01,9.99999e-01,9.99999e-01,5.51862e-01,9.99999e-01
6.329037559e-01,5.58381e-01,9.99999e-01,9.99999e-01,5.58381e-01,9.99999e-01
6.360682746e-01,5.64845e-01,9.99999e-01,9.99999e-01,5.64845e-01,9.99999e-01
6.392486160e-01,5.71254e-01,9.99999e-01,9.99999e-01,5.71254e-01,9.99999e-01
6.424448591e-01,5.77607e-01,9.99999e-01,9.99999e-01,5.77607e-01,9.99999e-01
6.456570834e-01,5.83903e-01,9.99999e-01,9.99999e-01,5.83903e-01,9.99999e-01
6.488853688e-01,5.90141e-01,9.99999e-01,9.99999e-01,5.90141e-01,9.99999e-01
6.521297956e-01,5.96321e-01,9.99999e-01,9.99999e-01,5.96321e-01,9.99999e-01
6.553904446e-01,6.02442e-01,9.99999e-01,9.99999e-01,6.02442e-01,9.99999e-01
6.586673968e-01,6.08502e-01,9.99999e-01,9.99999e-01,6.08502e-01,9.99999e-01
6.619607338e-01,6.14502e-01,9.99999e-01,9.99999e-01,6.14502e-01,9.99999e-01
6.652705375e-01,6.20441e-01,9.99999e-01,9.99999e-01,6.20441e-01,9.99999e-01
6.685968902e-01,6.26319e-01,9.99999e-01,9.99999e-01,6.26319e-01,9.99999e-01
6.719398746e-01,6.32134e-01,9.99999e-01,9.99999e-01,6.32134e-01,9.99999e-01
6.752995740e-01,6.37887e-01,9.99999e-01,9.99999e-01,6.37887e-01,9.99999e-01
6.786760719e-01,6.43577e-01,9.99999e-01,9.99999e-01,6.43577e-01,9.99999e-01
6.820694522e-01,6.49204e-01,9.99999e-01,9.99999e-01,6.49204e-01,9.99999e-01
6.854797995e-01,6.54767e-01,9.99999e-01,9.99999e-01,6.54767e-01,9.99999e-01
6.889071985e-01,6.60267e-01,9.99999e-01,9.99999e-01,6.60267e-01,9.99999e-01
6.923517345e-01,6.65703e-01,9.99999e-01,9.99999e-01,6.65703e-01,9.99999e-01
6.958134932e-01,6.71075e-01,9.99999e-01,9.99999e-01,6.71075e-01,9.99999e-01
6.992925606e-01,6.76383e-01,9.99999e-01,9.99999e-01,6.76383e-01,9.99999e-01
7.027890234e-01,6.81627e-01,9.99999e-01,9.99999e-01,6.81627e-01,9.99999e-01
7.063029686e-01,6.86807e-01,9.99999e-01,9.99999e-01,6.86807e-01,9.99999e-01
7.098344834e-01,6.91923e-01,9.99999e-01,9.99999e-01,6.91923e-01,9.99999e-01
7.133836558e-01,6.96975e-01,9.99999e-01,9.99999e-01,6.96975e-01,9.99999e-01
7.169505741e-01,7.01963e-01,9.99999e-01,9.99999e-01,7.01963e-01,9.99999e-01
7.205353270e-01,7.06886e-01,9.99999e-01,9.99999e-01,7.06886e-01,9.99999e-01
7.241380036e-01,7.11746e-01,9.99999e-01,9.99999e-01,7.11746e-01,9.99999e-01
7.277586936e-01,7.16543e-01,9.99999e-01,9.99999e-01,7.16543e-01,9.99999e-01
7.313974871e-01,7.21276e-01,9.99999e-01,9.99999e-01,7.21276e-01,9.99999e-01
7.350544745e-01,7.25946e-01,9.99999e-01,9.99999e-01,7.25946e-01,9.99999e-01
7.387297469e-01,7.30553e-01,9.99999e-01,9.99999e-01,7.30553e-01,9.99999e-01
7.424233956e-01,7.35098e-01,9.99999e-01,9.99999e-01,7.35098e-01,9.99999e-01
7.461355126e-01,7.39580e-01,9.99999e-01,9.99999e-01,7.39580e-01,9.99999e-01
7.498661902e-01,7.44000e-01,9.99999e-01,9.99999e-01,7.44000e-01,9.99999e-01
7.536155211e-01,7.48358e-01,9.99999e-01,9.99999e-01,7.48358e-01,9.99999e-01
7.573835987e-01,7.52656e-01,9.99999e-01,9.99999e-01,7.52656e-01,9.99999e-01
7.611705167e-01,7.56892e-01,9.99999e-01,9.99999e-01,7.56892e-01,9.99999e-01
7.649763693e-01,7.61068e-01,9.99999e-01,9.99999e-01,7.61068e-01,9.99999e-01
7.688012511e-01,7.65183e-01,9.99999e-01,9.99999e-01,7.65183e-01,9.99999e-01
7.726452574e-01,7.69239e-01,9.99999e-01,9.99999e-01,7.69239e-01,9.99999e-01
7.765084837e-01,7.73236e-01,9.99999e-01,9.99999e-01,7.73236e-01,9.99999e-01
7.803910261e-01,7.67204e-01,9.99999e-01,9.87172e-01,7.77174e-01,9.99999e-01
7.842929812e-01,7.40475e-01,9.99999e-01,9.48046e-01,7.81053e-01,9.99999e-01
7.882144461e-01,7.40950e-01,9.99999e-01,9.44035e-01,7.84875e-01,9.99999e-01
7.921555184e-01,7.63096e-01,9.99999e-01,9.67610e-01,7.88639e-01,9.99999e-01
7.961162960e-01,7.75209e-01,9.99999e-01,9.78370e-01,7.92347e-01,9.99999e-01
8.000968774e-01,7.86616e-01,9.99999e-01,9.88213e-01,7.95998e-01,9.99999e-01
8.040973618e-01,7.94712e-01,9.99999e-01,9.93894e-01,7.99593e-01,9.99999e-01
8.081178486e-01,8.00875e-01,9.99999e-01,9.97188e-01,8.03133e-01,9.99999e-01
8.121584379e-01,8.05921e-01,9.99999e-01,9.99134e-01,8.06619e-01,9.99999e-01
8.162192301e-01,8.09895e-01,9.99999e-01,9.99808e-01,8.10050e-01,9.99999e-01
8.203003262e-01,8.13425e-01,9.99999e-01,9.99996e-01,8.13428e-01,9.99999e-01
8.244018279e-01,8.16752e-01,9.99999e-01,9.99999e-01,8.16752e-01,9.99999e-01
8.285238370e-01,8.20024e-01,9.99999e-01,9.99999e-01,8.20024e-01,9.99999e-01
8.326664562e-01,8.23245e-01,9.99999e-01,9.99999e-01,8.23245e-01,9.99999e-01
8.368297885e-01,8.26414e-01,9.99999e-01,9.99999e-01,8.26414e-01,9.99999e-01
8.410139374e-01,8.29532e-01,9.99999e-01,9.99999e-01,8.29532e-01,9.99999e-01
8.452190071e-01,8.32600e-01,9.99999e-01,9.99999e-01,8.32600e-01,9.99999e-01
8.494451021e-01,8.35618e-01,9.99999e-01,9.99999e-01,8.35618e-01,9.99999e-01
8.536923276e-01,8.38587e-01,9.99999e-01,9.99999e-01,8.38587e-01,9.99999e-01
8.579607893e-01,8.41508e-01,9.99999e-01,9.99999e-01,8.41508e-01,9.99999e-01
8.622505932e-01,8.44381e-01,9.99999e-01,9.99999e-01,8.44381e-01,9.99999e-01
8.665618462e-01,8.16766e-01,9.99999e-01,9.64068e-01,8.47207e-01,9.99999e-01
8.708946554e-01,7.39943e-01,9.99999e-01,8.70534e-01,8.49987e-01,9.99999e-01
8.752491287e-01,7.64224e-01,9.99999e-01,8.96219e-01,8.52720e-01,9.99999e-01
8.796253743e-01,8.06145e-01,9.99999e-01,9.42410e-01,8.55408e-01,9.99999e-01
8.840235012e-01,8.32229e-01,9.99999e-01,9.69906e-01,8.58051e-01,9.99999e-01
8.884436187e-01,8.50392e-01,9.99999e-01,9.88081e-01,8.60649e-01,9.99999e-01
8.928858368e-01,8.59024e-01,9.99999e-01,9.95156e-01,8.63204e-01,9.99999e-01
8.973502660e-01,8.64700e-01,9.99999e-01,9.98825e-01,8.65716e-01,9.99999e-01
9.018370173e-01,8.68073e-01,9.99999e-01,9.99870e-01,8.68185e-01,9.99999e-01
9.063462024e-01,8.67658e-01,9.99999e-01,9.96605e-01,8.70613e-01,9.99999e-01
9.108779334e-01,8.66322e-01,9.99999e-01,9.92352e-01,8.72999e-01,9.99999e-01
9.154323231e-01,8.73777e-01,9.99999e-01,9.98210e-01,8.75344e-01,9.99999e-01
9.200094847e-01,8.53738e-01,9.99999e-01,9.72755e-01,8.77649e-01,9.99999e-01
9.246095321e-01,8.47376e-01,9.99999e-01,9.63021e-01,8.79914e-01,9.99999e-01
9.292325798e-01,8.56172e-01,9.99999e-01,9.70562e-01,8.82140e-01,9.99999e-01
9.338787427e-01,8.59387e-01,9.99999e-01,9.71796e-01,8.84328e-01,9.99999e-01
9.385481364e-01,8.68087e-01,9.99999e-01,9.79253e-01,8.86478e-01,9.99999e-01
9.432408771e-01,8.77297e-01,9.99999e-01,9.87289e-01,8.88590e-01,9.99999e-01
9.479570815e-01,8.84837e-01,9.99999e-01,9.93454e-01,8.90666e-01,9.99999e-01
9.526968669e-01,8.89887e-01,9.99999e-01,9.96841e-01,8.92705e-01,9.99999e-01
9.574603512e-01,8.93501e-01,9.99999e-01,9.98649e-01,8.94709e-01,9.99999e-01
9.622476530e-01,8.96300e-01,9.99999e-01,9.99578e-01,8.96677e-01,9.99999e-01
9.670588912e-01,8.98498e-01,9.99999e-01,9.99873e-01,8.98611e-01,9.99999e-01
9.718941857e-01,9.00503e-01,9.99999e-01,9.99990e-01,9.00511e-01,9.99999e-01
9.767536566e-01,9.02376e-01,9.99999e-01,9.99999e-01,9.02376e-01,9.99999e-01
9.816374249e-01,9.04209e-01,9.99999e-01,9.99999e-01,9.04209e-01,9.99999e-01
9.865456120e-01,9.06009e-01,9.99999e-01,9.99999e-01,9.06009e-01,9.99999e-01
9.914783401e-01,9.07778e-01,9.99999e-01,9.99999e-01,9.07778e-01,9.99999e-01
9.964357318e-01,9.09514e-01,9.99999e-01,9.99999e-01,9.09514e-01,9.99999e-01
1.001417910e+00,9.11220e-01,9.99999e-01,9.99999e-01,9.11220e-01,9.99999e-01
1.006425000e+00,9.12895e-01,9.99999e-01,9.99999e-01,9.12895e-01,9.99999e-01
1.011457125e+00,9.14539e-01,9.99999e-01,9.99999e-01,9.14539e-01,9.99999e-01
1.016514411e+00,9.16155e-01,9.99999e-01,9.99999e-01,9.16155e-01,9.99999e-01
1.021596983e+00,9.17723e-01,9.99999e-01,9.99980e-01,9.17741e-01,9.99999e-01
1.026704968e+00,9.18084e-01,9.99999e-01,9.98678e-01,9.19298e-01,9.99999e-01
1.031838492e+00,9.00514e-01,9.99999e-01,9.77939e-01,9.20827e-01,9.99999e-01
1.036997685e+00,3.39447e-01,9.99999e-01,3.68032e-01,9.22329e-01,9.99999e-01
1.042182673e+00,4.23758e-01,9.99999e-01,4.58710e-01,9.23803e-01,9.99999e-01
1.047393587e+00,3.72960e-01,9.99999e-01,4.03091e-01,9.25250e-01,9.99999e-01
1.052630555e+00,9.26032e-02,9.99999e-01,9.99309e-02,9.26671e-01,9.99999e-01
1.057893707e+00,1.57129e-01,9.99999e-01,1.69308e-01,9.28066e-01,9.99999e-01
1.063183176e+00,2.58661e-01,9.99999e-01,2.78299e-01,9.29436e-01,9.99999e-01
1.068499092e+00,4.00629e-01,9.99999e-01,4.30422e-01,9.30780e-01,9.99999e-01
1.073841587e+00,5.48478e-01,9.99999e-01,5.88432e-01,9.32100e-01,9.99999e-01
1.079210795e+00,6.68480e-01,9.99999e-01,7.16180e-01,9.33395e-01,9.99999e-01
1.084606849e+00,7.79466e-01,9.99999e-01,8.33950e-01,9.34667e-01,9.99999e-01
1.090029883e+00,8.51975e-01,9.99999e-01,9.10311e-01,9.35915e-01,9.99999e-01
1.095480033e+00,8.94827e-01,9.99999e-01,9.54848e-01,9.37140e-01,9.99999e-01
1.100957433e+00,9.17720e-01,9.99999e-01,9.78022e-01,9.38343e-01,9.99999e-01
1.106462220e+00,9.30941e-01,9.99999e-01,9.90865e-01,9.39523e-01,9.99999e-01
1.111994531e+00,9.37489e-01,9.99999e-01,9.96605e-01,9.40681e-01,9.99999e-01
1.117554504e+00,9.41039e-01,9.99999e-01,9.99172e-01,9.41818e-01,9.99999e-01
1.123142276e+00,9.42883e-01,9.99999e-01,9.99945e-01,9.42934e-01,9.99999e-01
1.128757988e+00,9.44029e-01,9.99999e-01,9.99999e-01,9.44029e-01,9.99999e-01
1.134401778e+00,9.45104e-01,9.99999e-01,9.99999e-01,9.45104e-01,9.99999e-01
1.140073787e+00,9.46158e-01,9.99999e-01,9.99999e-01,9.46158e-01,9.99999e-01
1.145774156e+00,9.47193e-01,9.99999e-01,9.99999e-01,9.47193e-01,9.99999e-01
1.151503026e+00,9.48209e-01,9.99999e-01,9.99999e-01,9.48209e-01,9.99999e-01
1.157260541e+00,9.49205e-01,9.99999e-01,9.99999e-01,9.49205e-01,9.99999e-01
1.163046844e+00,9.50183e-01,9.99999e-01,9.99999e-01,9.50183e-01,9.99999e-01
1.168862078e+00,9.51143e-01,9.99999e-01,9.99999e-01,9.51143e-01,9.99999e-01
1.174706389e+00,9.52084e-01,9.99999e-01,9.99999e-01,9.52084e-01,9.99999e-01
1.180579921e+00,9.53008e-01,9.99999e-01,9.99999e-01,9.53008e-01,9.99999e-01
1.186482820e+00,9.53912e-01,9.99999e-01,9.99996e-01,9.53915e-01,9.99999e-01
1.192415234e+00,9.50250e-01,9.99999e-01,9.95230e-01,9.54804e-01,9.99999e-01
1.198377311e+00,5.77252e-01,9.99999e-01,6.04024e-01,9.55677e-01,9.99999e-01
1.204369197e+00,2.36211e-05,9.99999e-01,2.46945e-05,9.56533e-01,9.99999e-01
1.210391043e+00,1.26554e-15,9.99999e-01,1.32188e-15,9.57373e-01,9.99999e-01
1.216442998e+00,9.24654e-14,9.99999e-01,9.64993e-14,9.58197e-01,9.99999e-01
1.222525213e+00,1.56982e-13,9.99999e-01,1.63693e-13,9.59005e-01,9.99999e-01
1.228637839e+00,2.37056e-10,9.99999e-01,2.46985e-10,9.59799e-01,9.99999e-01
1.234781029e+00,1.75593e-07,9.99999e-01,1.82799e-07,9.60577e-01,9.99999e-01
1.240954934e+00,4.39135e-05,9.99999e-01,4.56794e-05,9.61340e-01,9.99999e-01
1.247159708e+00,3.62467e-03,9.99999e-01,3.76749e-03,9.62089e-01,9.99999e-01
1.253395507e+00,4.69893e-02,9.99999e-01,4.88036e-02,9.62824e-01,9.99999e-01
1.259662485e+00,1.75388e-01,9.99999e-01,1.82023e-01,9.63545e-01,9.99999e-01
1.265960797e+00,3.60142e-01,9.99999e-01,3.73493e-01,9.64252e-01,9.99999e-01
1.272290601e+00,6.46465e-01,9.99999e-01,6.69949e-01,9.64945e-01,9.99999e-01
1.278652054e+00,5.83087e-01,9.99999e-01,6.03843e-01,9.65626e-01,9.99999e-01
1.285045314e+00,5.81676e-02,9.99999e-01,6.01966e-02,9.66293e-01,9.99999e-01
1.291470541e+00,1.72122e-02,9.99999e-01,1.78005e-02,9.66948e-01,9.99999e-01
1.297927893e+00,1.27332e-01,9.99999e-01,1.31597e-01,9.67590e-01,9.99999e-01
1.304417533e+00,4.69018e-01,9.99999e-01,4.84412e-01,9.68220e-01,9.99999e-01
1.310939621e+00,1.43967e-01,9.99999e-01,1.48597e-01,9.68837e-01,9.99999e-01
1.317494319e+00,9.35901e-06,9.99999e-01,9.65399e-06,9.69444e-01,9.99999e-01
1.324081790e+00,2.05200e-04,9.99999e-01,2.11538e-04,9.70038e-01,9.99999e-01
1.330702199e+00,1.25302e-02,9.99999e-01,1.29095e-02,9.70621e-01,9.99999e-01
1.337355710e+00,8.27331e-03,9.99999e-01,8.51870e-03,9.71193e-01,9.99999e-01
1.344042489e+00,3.52617e-03,9.99999e-01,3.62866e-03,9.71754e-01,9.99999e-01
1.350762701e+00,1.05362e-02,9.99999e-01,1.08363e-02,9.72304e-01,9.99999e-01
1.357516515e+00,4.84245e-02,9.99999e-01,4.97762e-02,9.72843e-01,9.99999e-01
1.364304097e+00,1.54442e-01,9.99999e-01,1.58667e-01,9.73373e-01,9.99999e-01
1.371125618e+00,3.66580e-01,9.99999e-01,3.76407e-01,9.73892e-01,9.99999e-01
1.377981246e+00,4.49320e-01,9.99999e-01,4.61124e-01,9.74401e-01,9.99999e-01
1.384871152e+00,6.21311e-01,9.99999e-01,6.37306e-01,9.74900e-01,9.99999e-01
1.391795508e+00,6.43579e-01,9.99999e-01,6.59817e-01,9.75389e-01,9.99999e-01
1.398754485e+00,7.56033e-01,9.99999e-01,7.74726e-01,9.75870e-01,9.99999e-01
1.405748258e+00,8.08622e-01,9.99999e-01,8.28216e-01,9.76341e-01,9.99999e-01
1.412776999e+00,8.67482e-01,9.99999e-01,8.88082e-01,9.76802e-01,9.99999e-01
1.419840884e+00,8.15484e-01,9.99999e-01,8.34463e-01,9.77255e-01,9.99999e-01
1.426940089e+00,1.21519e-01,9.99999e-01,1.24291e-01,9.77700e-01,9.99999e-01
1.434074789e+00,1.60159e-211,9.99999e-01,1.63739e-211,9.78135e-01,9.99999e-01
1.441245163e+00,1.23081e-311,9.99999e-01,1.25778e-311,9.78562e-01,9.99999e-01
1.448451389e+00,2.42582e-256,9.99999e-01,2.47790e-256,9.78981e-01,9.99999e-01
1.455693646e+00,4.06792e-115,9.99999e-01,4.15351e-115,9.79392e-01,9.99999e-01
1.462972114e+00,1.56386e-56,9.99999e-01,1.59611e-56,9.79795e-01,9.99999e-01
1.470286975e+00,1.42782e-24,9.99999e-01,1.45668e-24,9.80190e-01,9.99999e-01
