#,Wave/freq,Total,N2,CO2,Rayleigh,CIA
4.000000000e-01,2.66378e-04,9.99999e-01,9.99999e-01,2.66378e-04,9.99999e-01
4.020000000e-01,3.13456e-04,9.99999e-01,9.99999e-01,3.13456e-04,9.99999e-01
4.040100000e-01,3.67609e-04,9.99999e-01,9.99999e-01,3.67609e-04,9.99999e-01
4.060300500e-01,4.29762e-04,9.99999e-01,9.99999e-01,4.29762e-04,9.99999e-01
4.080602003e-01,5.00876e-04,9.99999e-01,9.99999e-01,5.00876e-04,9.99999e-01
4.101005013e-01,5.81994e-04,9.99999e-01,9.99999e-01,5.81994e-04,9.99999e-01
4.121510038e-01,6.74248e-04,9.99999e-01,9.99999e-01,6.74248e-04,9.99999e-01
4.142117588e-01,7.78858e-04,9.99999e-01,9.99999e-01,7.78858e-04,9.99999e-01
4.162828176e-01,8.97139e-04,9.99999e-01,9.99999e-01,8.97139e-04,9.99999e-01
4.183642317e-01,1.03050e-03,9.99999e-01,9.99999e-01,1.03050e-03,9.99999e-01
4.204560528e-01,1.18045e-03,9.99999e-01,9.99999e-01,1.18045e-03,9.99999e-01
4.225583331e-01,1.34860e-03,9.99999e-01,9.99999e-01,1.34860e-03,9.99999e-01
4.246711247e-01,1.53665e-03,9.99999e-01,9.99999e-01,1.53665e-03,9.99999e-01
4.267944804e-01,1.74641e-03,9.99999e-01,9.99999e-01,1.74641e-03,9.99999e-01
4.289284528e-01,1.97980e-03,9.99999e-01,9.99999e-01,1.97980e-03,9.99999e-01
4.310730950e-01,2.23882e-03,9.99999e-01,9.99999e-01,2.23882e-03,9.99999e-01
4.332284605e-01,2.52559e-03,9.99999e-01,9.99999e-01,2.52559e-03,9.99999e-01
4.353946028e-01,2.84232e-03,9.99999e-01,9.99999e-01,2.84232e-03,9.99999e-01
4.375715758e-01,3.19131e-03,9.99999e-01,9.99999e-01,3.19131e-03,9.99999e-01
4.397594337e-01,3.57496e-03,9.99999e-01,9.99999e-01,3.57496e-03,9.99999e-01
4.419582309e-01,3.99577e-03,9.99999e-01,9.99999e-01,3.99577e-03,9.99999e-01
4.441680220e-01,4.45631e-03,9.99999e-01,9.99999e-01,4.45631e-03,9.99999e-01
4.463888621e-01,4.95922e-03,9.99999e-01,9.99999e-01,4.95922e-03,9.99999e-01
4.486208064e-01,5.50725e-03,9.99999e-01,9.99999e-01,5.50725e-03,9.99999e-01
4.508639105e-01,6.10319e-03,9.99999e-01,9.99999e-01,6.10319e-03,9.99999e-01
4.531182300e-01,6.74991e-03,9.99999e-01,9.99999e-01,6.74991e-03,9.99999e-01
4.553838212e-01,7.45031e-03,9.99999e-01,9.99999e-01,7.45031e-03,9.99999e-01
4.576607403e-01,8.20737e-03,9.99999e-01,9.99999e-01,8.20737e-03,9.99999e-01
4.599490440e-01,9.02410e-03,9.99999e-01,9.99999e-01,9.02410e-03,9.99999e-01
4.622487892e-01,9.90352e-03,9.99999e-01,9.99999e-01,9.90352e-03,9.99999e-01
4.645600332e-01,1.08487e-02,9.99999e-01,9.99999e-01,1.08487e-02,9.99999e-01
4.668828333e-01,1.18627e-02,9.99999e-01,9.99999e-01,1.18627e-02,9.99999e-01
4.692172475e-01,1.29486e-02,9.99999e-01,9.99999e-01,1.29486e-02,9.99999e-01
4.715633337e-01,1.41095e-02,9.99999e-01,9.99999e-01,1.41095e-02,9.99999e-01
4.739211504e-01,1.53484e-02,9.99999e-01,9.99999e-01,1.53484e-02,9.99999e-01
4.762907561e-01,1.66684e-02,9.99999e-01,9.99999e-01,1.66684e-02,9.99999e-01
4.786722099e-01,1.80724e-02,9.99999e-01,9.99999e-01,1.80724e-02,9.99999e-01
4.810655710e-01,1.95634e-02,9.99999e-01,9.99999e-01,1.95634e-02,9.99999e-01
4.834708988e-01,2.11442e-02,9.99999e-01,9.99999e-01,2.11442e-02,9.99999e-01
4.858882533e-01,2.28178e-02,9.99999e-01,9.99999e-01,2.28178e-02,9.99999e-01
4.883176946e-01,2.45868e-02,9.99999e-01,9.99999e-01,2.45868e-02,9.99999e-01
4.907592831e-01,2.64539e-02,9.99999e-01,9.99999e-01,2.64539e-02,9.99999e-01
4.932130795e-01,2.84216e-02,9.99999e-01,9.99999e-01,2.84216e-02,9.99999e-01
4.956791449e-01,3.04925e-02,9.99999e-01,9.99999e-01,3.04925e-02,9.99999e-01
4.981575406e-01,3.26689e-02,9.99999e-01,9.99999e-01,3.26689e-02,9.99999e-01
5.006483283e-01,3.49529e-02,9.99999e-01,9.99999e-01,3.49529e-02,9.99999e-01
5.031515699e-01,3.73468e-02,9.99999e-01,9.99999e-01,3.73468e-02,9.99999e-01
5.056673278e-01,3.98524e-02,9.99999e-01,9.99999e-01,3.98524e-02,9.99999e-01
5.081956644e-01,4.24717e-02,9.99999e-01,9.99999e-01,4.24717e-02,9.99999e-01
5.107366428e-01,4.52062e-02,9.99999e-01,9.99999e-01,4.52062e-02,9.99999e-01
5.132903260e-01,4.80575e-02,9.99999e-01,9.99999e-01,4.80575e-02,9.99999e-01
5.158567776e-01,5.10269e-02,9.99999e-01,9.99999e-01,5.10269e-02,9.99999e-01
5.184360615e-01,5.41157e-02,9.99999e-01,9.99999e-01,5.41157e-02,9.99999e-01
5.210282418e-01,5.73249e-02,9.99999e-01,9.99999e-01,5.73249e-02,9.99999e-01
5.236333830e-01,6.06554e-02,9.99999e-01,9.99999e-01,6.06554e-02,9.99999e-01
5.262515499e-01,6.41078e-02,9.99999e-01,9.99999e-01,6.41078e-02,9.99999e-01
5.288828077e-01,6.76826e-02,9.99999e-01,9.99999e-01,6.76826e-02,9.99999e-01
5.315272217e-01,7.13803e-02,9.99999e-01,9.99999e-01,7.13803e-02,9.99999e-01
5.341848578e-01,7.52009e-02,9.99999e-01,9.99999e-01,7.52009e-02,9.99999e-01
5.368557821e-01,7.91444e-02,9.99999e-01,9.99999e-01,7.91444e-02,9.99999e-01
5.395400610e-01,8.32107e-02,9.99999e-01,9.99999e-01,8.32107e-02,9.99999e-01
5.422377613e-01,8.73994e-02,9.99999e-01,9.99999e-01,8.73994e-02,9.99999e-01
5.449489501e-01,9.17099e-02,9.99999e-01,9.99999e-01,9.17099e-02,9.99999e-01
5.476736949e-01,9.61415e-02,9.99999e-01,9.99999e-01,9.61415e-02,9.99999e-01
5.504120634e-01,1.00693e-01,9.99999e-01,9.99999e-01,1.00693e-01,9.99999e-01
5.531641237e-01,1.05364e-01,9.99999e-01,9.99999e-01,1.05364e-01,9.99999e-01
5.559299443e-01,1.10154e-01,9.99999e-01,9.99999e-01,1.10154e-01,9.99999e-01
5.587095940e-01,1.15059e-01,9.99999e-01,9.99999e-01,1.15059e-01,9.99999e-01
5.615031420e-01,1.20080e-01,9.99999e-01,9.99999e-01,1.20080e-01,9.99999e-01
5.643106577e-01,1.25214e-01,9.99999e-01,9.99999e-01,1.25214e-01,9.99999e-01
5.671322110e-01,1.30460e-01,9.99999e-01,9.99999e-01,1.30460e-01,9.99999e-01
5.699678720e-01,1.35815e-01,9.99999e-01,9.99999e-01,1.35815e-01,9.99999e-01
5.728177114e-01,1.41278e-01,9.99999e-01,9.99999e-01,1.41278e-01,9.99999e-01
5.756818000e-01,1.46846e-01,9.99999e-01,9.99999e-01,1.46846e-01,9.99999e-01
5.785602090e-01,1.52517e-01,9.99999e-01,9.99999e-01,1.52517e-01,9.99999e-01
5.814530100e-01,1.58289e-01,9.99999e-01,9.99999e-01,1.58289e-01,9.99999e-01
5.843602750e-01,1.64159e-01,9.99999e-01,9.99999e-01,1.64159e-01,9.99999e-01
5.872820764e-01,1.70123e-01,9.99999e-01,9.99999e-01,1.70123e-01,9.99999e-01
5.902184868e-01,1.76181e-01,9.99999e-01,9.99999e-01,1.76181e-01,9.99999e-01
5.931695792e-01,1.82328e-01,9.99999e-01,9.99999e-01,1.82328e-01,9.99999e-01
5.961354271e-01,1.88561e-01,9.99999e-01,9.99999e-01,1.88561e-01,9.99999e-01
5.991161043e-01,1.94879e-01,9.99999e-01,9.99999e-01,1.94879e-01,9.99999e-01
6.021116848e-01,2.01276e-01,9.99999e-01,9.99999e-01,2.01276e-01,9.99999e-01
6.051222432e-01,2.07752e-01,9.99999e-01,9.99999e-01,2.07752e-01,9.99999e-01
6.081478544e-01,2.14301e-01,9.99999e-01,9.99999e-01,2.14301e-01,9.99999e-01
6.111885937e-01,2.20922e-01,9.99999e-01,9.99999e-01,2.20922e-01,9.99999e-01
6.142445367e-01,2.27610e-01,9.99999e-01,9.99999e-01,2.27610e-01,9.99999e-01
6.173157594e-01,2.34363e-01,9.99999e-01,9.99999e-01,2.34363e-01,9.99999e-01
6.204023382e-01,2.41177e-01,9.99999e-01,9.99999e-01,2.41177e-01,9.99999e-01
6.235043498e-01,2.48048e-01,9.99999e-01,9.99999e-01,2.48048e-01,9.99999e-01
6.266218716e-01,2.54973e-01,9.99999e-01,9.99999e-01,2.54973e-01,9.99999e-01
6.297549810e-01,2.61950e-01,9.99999e-01,9.99999e-01,2.61950e-01,9.99999e-01
6.329037559e-01,2.68974e-01,9.99999e-01,9.99999e-01,2.68974e-01,9.99999e-01
6.360682746e-01,2.76041e-01,9.99999e-01,9.99999e-01,2.76041e-01,9.99999e-01
6.392486160e-01,2.83150e-01,9.99999e-01,9.99999e-01,2.83150e-01,9.99999e-01
6.424448591e-01,2.90296e-01,9.99999e-01,9.99999e-01,2.90296e-01,9.99999e-01
6.456570834e-01,2.97475e-01,9.99999e-01,9.99999e-01,2.97475e-01,9.99999e-01
6.488853688e-01,3.04685e-01,9.99999e-01,9.99999e-01,3.04685e-01,9.99999e-01
6.521297956e-01,3.11922e-01,9.99999e-01,9.99999e-01,3.11922e-01,9.99999e-01
6.553904446e-01,3.19183e-01,9.99999e-01,9.99999e-01,3.19183e-01,9.99999e-01
6.586673968e-01,3.26465e-01,9.99999e-01,9.99999e-01,3.26465e-01,9.99999e-01
6.619607338e-01,3.33764e-01,9.99999e-01,9.99999e-01,3.33764e-01,9.99999e-01
6.652705375e-01,3.41077e-01,9.99999e-01,9.99999e-01,3.41077e-01,9.99999e-01
6.685968902e-01,3.48402e-01,9.99999e-01,9.99999e-01,3.48402e-01,9.99999e-01
6.719398746e-01,3.55734e-01,9.99999e-01,9.99999e-01,3.55734e-01,9.99999e-01
6.752995740e-01,3.63071e-01,9.99999e-01,9.99999e-01,3.63071e-01,9.99999e-01
6.786760719e-01,3.70410e-01,9.99999e-01,9.99999e-01,3.70410e-01,9.99999e-01
6.820694522e-01,3.77748e-01,9.99999e-01,9.99999e-01,3.77748e-01,9.99999e-01
6.854797995e-01,3.85083e-01,9.99999e-01,9.99999e-01,3.85083e-01,9.99999e-01
6.889071985e-01,3.92410e-01,9.99999e-01,9.99999e-01,3.92410e-01,9.99999e-01
6.923517345e-01,3.99728e-01,9.99999e-01,9.99999e-01,3.99728e-01,9.99999e-01
6.958134932e-01,4.07034e-01,9.99999e-01,9.99999e-01,4.07034e-01,9.99999e-01
6.992925606e-01,4.14325e-01,9.99999e-01,9.99999e-01,4.14325e-01,9.99999e-01
7.027890234e-01,4.21600e-01,9.99999e-01,9.99999e-01,4.21600e-01,9.99999e-01
7.063029686e-01,4.28854e-01,9.99999e-01,9.99999e-01,4.28854e-01,9.99999e-01
7.098344834e-01,4.36086e-01,9.99999e-01,9.99999e-01,4.36086e-01,9.99999e-01
7.133836558e-01,4.43294e-01,9.99999e-01,9.99999e-01,4.43294e-01,9.99999e-01
7.169505741e-01,4.50474e-01,9.99999e-01,9.99999e-01,4.50474e-01,9.99999e-01
7.205353270e-01,4.57626e-01,9.99999e-01,9.99999e-01,4.57626e-01,9.99999e-01
7.241380036e-01,4.64747e-01,9.99999e-01,9.99999e-01,4.64747e-01,9.99999e-01
7.277586936e-01,4.71835e-01,9.99999e-01,9.99999e-01,4.71835e-01,9.99999e-01
7.313974871e-01,4.78887e-01,9.99999e-01,9.99999e-01,4.78887e-01,9.99999e-01
7.350544745e-01,4.85903e-01,9.99999e-01,9.99999e-01,4.85903e-01,9.99999e-01
7.387297469e-01,4.92880e-01,9.99999e-01,9.99999e-01,4.92880e-01,9.99999e-01
7.424233956e-01,4.99816e-01,9.99999e-01,9.99999e-01,4.99816e-01,9.99999e-01
7.461355126e-01,5.06710e-01,9.99999e-01,9.99999e-01,5.06710e-01,9.99999e-01
7.498661902e-01,5.13560e-01,9.99999e-01,9.99999e-01,5.13560e-01,9.99999e-01
7.536155211e-01,5.20364e-01,9.99999e-01,9.99999e-01,5.20364e-01,9.99999e-01
7.573835987e-01,5.27122e-01,9.99999e-01,9.99999e-01,5.27122e-01,9.99999e-01
7.611705167e-01,5.33831e-01,9.99999e-01,9.99999e-01,5.33831e-01,9.99999e-01
7.649763693e-01,5.40491e-01,9.99999e-01,9.99999e-01,5.40491e-01,9.99999e-01
7.688012511e-01,5.47100e-01,9.99999e-01,9.99999e-01,5.47100e-01,9.99999e-01
7.726452574e-01,5.53657e-01,9.99999e-01,9.99999e-01,5.53657e-01,9.99999e-01
7.765084837e-01,5.60160e-01,9.99999e-01,9.99999e-01,5.60160e-01,9.99999e-01
7.803910261e-01,5.51756e-01,9.99999e-01,9.73784e-01,5.66609e-01,9.99999e-01
7.842929812e-01,5.08586e-01,9.99999e-01,8.87578e-01,5.73003e-01,9.99999e-01
7.882144461e-01,5.10069e-01,9.99999e-01,8.80430e-01,5.79340e-01,9.99999e-01
7.921555184e-01,5.43990e-01,9.99999e-01,9.28911e-01,5.85621e-01,9.99999e-01
7.961162960e-01,5.63234e-01,9.99999e-01,9.51659e-01,5.91843e-01,9.99999e-01
8.000968774e-01,5.82184e-01,9.99999e-01,9.73540e-01,5.98007e-01,9.99999e-01
8.040973618e-01,5.95758e-01,9.99999e-01,9.86172e-01,6.04111e-01,9.99999e-01
8.081178486e-01,6.06280e-01,9.99999e-01,9.93648e-01,6.10155e-01,9.99999e-01
8.121584379e-01,6.14921e-01,9.99999e-01,9.98023e-01,6.16138e-01,9.99999e-01
8.162192301e-01,6.21789e-01,9.99999e-01,9.99562e-01,6.22060e-01,9.99999e-01
8.203003262e-01,6.27917e-01,9.99999e-01,9.99992e-01,6.27921e-01,9.99999e-01
8.244018279e-01,6.33719e-01,9.99999e-01,9.99999e-01,6.33719e-01,9.99999e-01
8.285238370e-01,6.39455e-01,9.99999e-01,9.99999e-01,6.39455e-01,9.99999e-01
8.326664562e-01,6.45127e-01,9.99999e-01,9.99999e-01,6.45127e-01,9.99999e-01
8.368297885e-01,6.50737e-01,9.99999e-01,9.99999e-01,6.50737e-01,9.99999e-01
8.410139374e-01,6.56283e-01,9.99999e-01,9.99999e-01,6.56283e-01,9.99999e-01
8.452190071e-01,6.61765e-01,9.99999e-01,9.99999e-01,6.61765e-01,9.99999e-01
8.494451021e-01,6.67184e-01,9.99999e-01,9.99999e-01,6.67184e-01,9.99999e-01
8.536923276e-01,6.72539e-01,9.99999e-01,9.99999e-01,6.72539e-01,9.99999e-01
8.579607893e-01,6.77829e-01,9.99999e-01,9.99999e-01,6.77829e-01,9.99999e-01
8.622505932e-01,6.83056e-01,9.99999e-01,9.99999e-01,6.83056e-01,9.99999e-01
8.665618462e-01,6.45246e-01,9.99999e-01,9.37560e-01,6.88218e-01,9.99999e-01
8.708946554e-01,5.11712e-01,9.99999e-01,7.38063e-01,6.93316e-01,9.99999e-01
8.752491287e-01,5.47121e-01,9.99999e-01,7.83447e-01,6.98350e-01,9.99999e-01
8.796253743e-01,6.15378e-01,9.99999e-01,8.74961e-01,7.03320e-01,9.99999e-01
8.840235012e-01,6.60952e-01,9.99999e-01,9.33248e-01,7.08227e-01,9.99999e-01
8.884436187e-01,6.93886e-01,9.99999e-01,9.73097e-01,7.13069e-01,9.99999e-01
8.928858368e-01,7.09981e-01,9.99999e-01,9.89039e-01,7.17848e-01,9.99999e-01
8.973502660e-01,7.20626e-01,9.99999e-01,9.97316e-01,7.22564e-01,9.99999e-01
9.018370173e-01,7.27001e-01,9.99999e-01,9.99703e-01,7.27217e-01,9.99999e-01
9.063462024e-01,7.26365e-01,9.99999e-01,9.92563e-01,7.31807e-01,9.99999e-01
9.108779334e-01,7.23649e-01,9.99999e-01,9.82772e-01,7.36334e-01,9.99999e-01
9.154323231e-01,7.37767e-01,9.99999e-01,9.95906e-01,7.40799e-01,9.99999e-01
9.200094847e-01,7.02134e-01,9.99999e-01,9.42204e-01,7.45202e-01,9.99999e-01
9.246095321e-01,6.88421e-01,9.99999e-01,9.18452e-01,7.49544e-01,9.99999e-01
9.292325798e-01,7.05439e-01,9.99999e-01,9.35812e-01,7.53824e-01,9.99999e-01
9.338787427e-01,7.10716e-01,9.99999e-01,9.37564e-01,7.58044e-01,9.99999e-01
9.385481364e-01,7.26983e-01,9.99999e-01,9.53791e-01,7.62203e-01,9.99999e-01
9.432408771e-01,7.44397e-01,9.99999e-01,9.71414e-01,7.66302e-01,9.99999e-01
9.479570815e-01,7.58989e-01,9.99999e-01,9.85262e-01,7.70342e-01,9.99999e-01
9.526968669e-01,7.68793e-01,9.99999e-01,9.92858e-01,7.74322e-01,9.99999e-01
9.574603512e-01,7.75863e-01,9.99999e-01,9.96939e-01,7.78244e-01,9.99999e-01
9.622476530e-01,7.81360e-01,9.99999e-01,9.99043e-01,7.82108e-01,9.99999e-01
9.670588912e-01,7.85688e-01,9.99999e-01,9.99712e-01,7.85914e-01,9.99999e-01
9.718941857e-01,7.89646e-01,9.99999e-01,9.99979e-01,7.89662e-01,9.99999e-01
9.767536566e-01,7.93354e-01,9.99999e-01,9.99999e-01,7.93354e-01,9.99999e-01
9.816374249e-01,7.96990e-01,9.99999e-01,9.99999e-01,7.96990e-01,9.99999e-01
9.865456120e-01,8.00570e-01,9.99999e-01,9.99999e-01,8.00570e-01,9.99999e-01
9.914783401e-01,8.04095e-01,9.99999e-01,9.99999e-01,8.04095e-01,9.99999e-01
9.964357318e-01,8.07566e-01,9.99999e-01,9.99999e-01,8.07566e-01,9.99999e-01
1.001417910e+00,8.10982e-01,9.99999e-01,9.99999e-01,8.10982e-01,9.99999e-01
1.006425000e+00,8.14345e-01,9.99999e-01,9.99999e-01,8.14345e-01,9.99999e-01
1.011457125e+00,8.17656e-01,9.99999e-01,9.99999e-01,8.17656e-01,9.99999e-01
1.016514411e+00,8.20913e-01,9.99999e-01,9.99999e-01,8.20913e-01,9.99999e-01
1.021596983e+00,8.24089e-01,9.99999e-01,9.99962e-01,8.24119e-01,9.99999e-01
1.026704968e+00,8.24881e-01,9.99999e-01,9.97106e-01,8.27274e-01,9.99999e-01
1.031838492e+00,8.00967e-01,9.99999e-01,9.64579e-01,8.30379e-01,9.99999e-01
1.036997685e+00,1.60232e-01,9.99999e-01,1.92255e-01,8.33433e-01,9.99999e-01
1.042182673e+00,1.54055e-01,9.99999e-01,1.84180e-01,8.36438e-01,9.99999e-01
1.047393587e+00,1.65987e-01,9.99999e-01,1.97746e-01,8.39394e-01,9.99999e-01
1.052630555e+00,9.13022e-03,9.99999e-01,1.08396e-02,8.42302e-01,9.99999e-01
1.057893707e+00,2.05756e-02,9.99999e-01,2.43452e-02,8.45162e-01,9.99999e-01
1.063183176e+00,5.57601e-02,9.99999e-01,6.57567e-02,8.47975e-01,9.99999e-01
1.068499092e+00,1.32309e-01,9.99999e-01,1.55522e-01,8.50741e-01,9.99999e-01
1.073841587e+00,2.63003e-01,9.99999e-01,3.08160e-01,8.53462e-01,9.99999e-01
1.079210795e+00,4.06699e-01,9.99999e-01,4.75039e-01,8.56137e-01,9.99999e-01
1.084606849e+00,5.70651e-01,9.99999e-01,6.64499e-01,8.58768e-01,9.99999e-01
1.090029883e+00,6.96957e-01,9.99999e-01,8.09140e-01,8.61355e-01,9.99999e-01
1.095480033e+00,7.78254e-01,9.99999e-01,9.00863e-01,8.63898e-01,9.99999e-01
1.100957433e+00,8.23934e-01,9.99999e-01,9.50987e-01,8.66398e-01,9.99999e-01
1.106462220e+00,8.50977e-01,9.99999e-01,9.79422e-01,8.68856e-01,9.99999e-01
1.111994531e+00,8.64585e-01,9.99999e-01,9.92324e-01,8.71271e-01,9.99999e-01
1.117554504e+00,8.72000e-01,9.99999e-01,9.98115e-01,8.73646e-01,9.99999e-01
1.123142276e+00,8.75872e-01,9.99999e-01,9.99875e-01,8.75980e-01,9.99999e-01
1.128757988e+00,8.78274e-01,9.99999e-01,9.99999e-01,8.78274e-01,9.99999e-01
1.134401778e+00,8.80529e-01,9.99999e-01,9.99999e-01,8.80529e-01,9.99999e-01
1.140073787e+00,8.82745e-01,9.99999e-01,9.99999e-01,8.82745e-01,9.99999e-01
1.145774156e+00,8.84922e-01,9.99999e-01,9.99999e-01,8.84922e-01,9.99999e-01
1.151503026e+00,8.87061e-01,9.99999e-01,9.99999e-01,8.87061e-01,9.99999e-01
1.157260541e+00,8.89164e-01,9.99999e-01,9.99999e-01,8.89164e-01,9.99999e-01
1.163046844e+00,8.91229e-01,9.99999e-01,9.99999e-01,8.91229e-01,9.99999e-01
1.168862078e+00,8.93259e-01,9.99999e-01,9.99999e-01,8.93259e-01,9.99999e-01
1.174706389e+00,8.95253e-01,9.99999e-01,9.99999e-01,8.95253e-01,9.99999e-01
1.180579921e+00,8.97211e-01,9.99999e-01,9.99999e-01,8.97211e-01,9.99999e-01
1.186482820e+00,8.99132e-01,9.99999e-01,9.99995e-01,8.99136e-01,9.99999e-01
1.192415234e+00,8.91753e-01,9.99999e-01,9.89708e-01,9.01026e-01,9.99999e-01
1.198377311e+00,5.13621e-01,9.99999e-01,5.68867e-01,9.02883e-01,9.99999e-01
1.204369197e+00,2.90364e-09,9.99999e-01,3.20948e-09,9.04707e-01,9.99999e-01
1.210391043e+00,2.20777e-32,9.99999e-01,2.43549e-32,9.06498e-01,9.99999e-01
1.216442998e+00,3.00695e-28,9.99999e-01,3.31068e-28,9.08257e-01,9.99999e-01
1.222525213e+00,7.56095e-28,9.99999e-01,8.30887e-28,9.09985e-01,9.99999e-01
1.228637839e+00,1.51634e-21,9.99999e-01,1.66323e-21,9.11682e-01,9.99999e-01
1.234781029e+00,3.07454e-14,9.99999e-01,3.36622e-14,9.13349e-01,9.99999e-01
1.240954934e+00,1.15952e-09,9.99999e-01,1.26725e-09,9.14986e-01,9.99999e-01
1.247159708e+00,1.36592e-05,9.99999e-01,1.49021e-05,9.16593e-01,9.99999e-01
1.253395507e+00,1.46216e-03,9.99999e-01,1.59247e-03,9.18171e-01,9.99999e-01
1.259662485e+00,2.30784e-02,9.99999e-01,2.50929e-02,9.19720e-01,9.99999e-01
1.265960797e+00,1.08200e-01,9.99999e-01,1.17450e-01,9.21242e-01,9.99999e-01
1.272290601e+00,3.51836e-01,9.99999e-01,3.81296e-01,9.22736e-01,9.99999e-01
1.278652054e+00,3.28488e-01,9.99999e-01,3.55429e-01,9.24203e-01,9.99999e-01
1.285045314e+00,1.34295e-02,9.99999e-01,1.45083e-02,9.25643e-01,9.99999e-01
1.291470541e+00,1.67638e-04,9.99999e-01,1.80828e-04,9.27056e-01,9.99999e-01
1.297927893e+00,1.06418e-02,9.99999e-01,1.14620e-02,9.28444e-01,9.99999e-01
1.304417533e+00,1.83388e-01,9.99999e-01,1.97232e-01,9.29807e-01,9.99999e-01
1.310939621e+00,4.75637e-02,9.99999e-01,5.10809e-02,9.31145e-01,9.99999e-01
1.317494319e+00,1.30951e-11,9.99999e-01,1.40436e-11,9.32458e-01,9.99999e-01
1.324081790e+00,3.25361e-08,9.99999e-01,3.48447e-08,9.33747e-01,9.99999e-01
1.330702199e+00,7.50420e-05,9.99999e-01,8.02577e-05,9.35012e-01,9.99999e-01
1.337355710e+00,7.32468e-05,9.99999e-01,7.82338e-05,9.36254e-01,9.99999e-01
1.344042489e+00,2.21103e-05,9.99999e-01,2.35849e-05,9.37472e-01,9.99999e-01
1.350762701e+00,4.95792e-05,9.99999e-01,5.28186e-05,9.38669e-01,9.99999e-01
1.357516515e+00,1.57945e-03,9.99999e-01,1.68054e-03,9.39843e-01,9.99999e-01
1.364304097e+00,1.58298e-02,9.99999e-01,1.68224e-02,9.40996e-01,9.99999e-01
1.371125618e+00,1.10403e-01,9.99999e-01,1.17185e-01,9.42127e-01,9.99999e-01
1.377981246e+00,1.65900e-01,9.99999e-01,1.75883e-01,9.43237e-01,9.99999e-01
1.384871152e+00,3.43278e-01,9.99999e-01,3.63516e-01,9.44326e-01,9.99999e-01
1.391795508e+00,3.71092e-01,9.99999e-01,3.92525e-01,9.45395e-01,9.99999e-01
1.398754485e+00,5.32001e-01,9.99999e-01,5.62105e-01,9.46444e-01,9.99999e-01
1.405748258e+00,6.19522e-01,9.99999e-01,6.53866e-01,9.47474e-01,9.99999e-01
1.412776999e+00,7.25323e-01,9.99999e-01,7.64717e-01,9.48484e-01,9.99999e-01
1.419840884e+00,6.61295e-01,9.99999e-01,6.96484e-01,9.49475e-01,9.99999e-01
1.426940089e+00,7.15919e-02,9.99999e-01,7.53243e-02,9.50448e-01,9.99999e-01
1.434074789e+00,0.00000e+00,9.99999e-01,0.00000e+00,9.51403e-01,9.99999e-01
1.441245163e+00,0.00000e+00,9.99999e-01,0.00000e+00,9.52340e-01,9.99999e-01
1.448451389e+00,0.00000e+00,9.99999e-01,0.00000e+00,9.53259e-01,9.99999e-01
1.455693646e+00,1.55314e-256,9.99999e-01,1.62775e-256,9.54160e-01,9.99999e-01
1.462972114e+00,1.50397e-124,9.99999e-01,1.57476e-124,9.55045e-01,9.99999e-01
1.470286975e+00,1.42387e-52,9.99999e-01,1.48954e-52,9.55913e-01,9.99999e-01
