#,Wave/freq,Total,N2,CO2,Rayleigh,CIA
4.000000000e-01,4.47892e-05,9.99999e-01,9.99999e-01,4.47892e-05,9.99999e-01
4.020000000e-01,5.45964e-05,9.99999e-01,9.99999e-01,5.45964e-05,9.99999e-01
4.040100000e-01,6.62774e-05,9.99999e-01,9.99999e-01,6.62774e-05,9.99999e-01
4.060300500e-01,8.01501e-05,9.99999e-01,9.99999e-01,8.01501e-05,9.99999e-01
4.080602003e-01,9.65633e-05,9.99999e-01,9.99999e-01,9.65633e-05,9.99999e-01
4.101005013e-01,1.15910e-04,9.99999e-01,9.99999e-01,1.15910e-04,9.99999e-01
4.121510038e-01,1.38633e-04,9.99999e-01,9.99999e-01,1.38633e-04,9.99999e-01
4.142117588e-01,1.65224e-04,9.99999e-01,9.99999e-01,1.65224e-04,9.99999e-01
4.162828176e-01,1.96235e-04,9.99999e-01,9.99999e-01,1.96235e-04,9.99999e-01
4.183642317e-01,2.32275e-04,9.99999e-01,9.99999e-01,2.32275e-04,9.99999e-01
4.204560528e-01,2.74020e-04,9.99999e-01,9.99999e-01,2.74020e-04,9.99999e-01
4.225583331e-01,3.22215e-04,9.99999e-01,9.99999e-01,3.22215e-04,9.99999e-01
4.246711247e-01,3.77675e-04,9.99999e-01,9.99999e-01,3.77675e-04,9.99999e-01
4.267944804e-01,4.41295e-04,9.99999e-01,9.99999e-01,4.41295e-04,9.99999e-01
4.289284528e-01,5.14048e-04,9.99999e-01,9.99999e-01,5.14048e-04,9.99999e-01
4.310730950e-01,5.96993e-04,9.99999e-01,9.99999e-01,5.96993e-04,9.99999e-01
4.332284605e-01,6.91277e-04,9.99999e-01,9.99999e-01,6.91277e-04,9.99999e-01
4.353946028e-01,7.98136e-04,9.99999e-01,9.99999e-01,7.98136e-04,9.99999e-01
4.375715758e-01,9.18900e-04,9.99999e-01,9.99999e-01,9.18900e-04,9.99999e-01
4.397594337e-01,1.05500e-03,9.99999e-01,9.99999e-01,1.05500e-03,9.99999e-01
4.419582309e-01,1.20795e-03,9.99999e-01,9.99999e-01,1.20795e-03,9.99999e-01
4.441680220e-01,1.37939e-03,9.99999e-01,9.99999e-01,1.37939e-03,9.99999e-01
4.463888621e-01,1.57103e-03,9.99999e-01,9.99999e-01,1.57103e-03,9.99999e-01
4.486208064e-01,1.78471e-03,9.99999e-01,9.99999e-01,1.78471e-03,9.99999e-01
4.508639105e-01,2.02234e-03,9.99999e-01,9.99999e-01,2.02234e-03,9.99999e-01
4.531182300e-01,2.28597e-03,9.99999e-01,9.99999e-01,2.28597e-03,9.99999e-01
4.553838212e-01,2.57772e-03,9.99999e-01,9.99999e-01,2.57772e-03,9.99999e-01
4.576607403e-01,2.89982e-03,9.99999e-01,9.99999e-01,2.89982e-03,9.99999e-01
4.599490440e-01,3.25458e-03,9.99999e-01,9.99999e-01,3.25458e-03,9.99999e-01
4.622487892e-01,3.64443e-03,9.99999e-01,9.99999e-01,3.64443e-03,9.99999e-01
4.645600332e-01,4.07186e-03,9.99999e-01,9.99999e-01,4.07186e-03,9.99999e-01
4.668828333e-01,4.53948e-03,9.99999e-01,9.99999e-01,4.53948e-03,9.99999e-01
4.692172475e-01,5.04993e-03,9.99999e-01,9.99999e-01,5.04993e-03,9.99999e-01
4.715633337e-01,5.60598e-03,9.99999e-01,9.99999e-01,5.60598e-03,9.99999e-01
4.739211504e-01,6.21042e-03,9.99999e-01,9.99999e-01,6.21042e-03,9.99999e-01
4.762907561e-01,6.86614e-03,9.99999e-01,9.99999e-01,6.86614e-03,9.99999e-01
4.786722099e-01,7.57605e-03,9.99999e-01,9.99999e-01,7.57605e-03,9.99999e-01
4.810655710e-01,8.34313e-03,9.99999e-01,9.99999e-01,8.34313e-03,9.99999e-01
4.834708988e-01,9.17039e-03,9.99999e-01,9.99999e-01,9.17039e-03,9.99999e-01
4.858882533e-01,1.00609e-02,9.99999e-01,9.99999e-01,1.00609e-02,9.99999e-01
4.883176946e-01,1.10176e-02,9.99999e-01,9.99999e-01,1.10176e-02,9.99999e-01
4.907592831e-01,1.20438e-02,9.99999e-01,9.99999e-01,1.20438e-02,9.99999e-01
4.932130795e-01,1.31423e-02,9.99999e-01,9.99999e-01,1.31423e-02,9.99999e-01
4.956791449e-01,1.43164e-02,9.99999e-01,9.99999e-01,1.43164e-02,9.99999e-01
4.981575406e-01,1.55690e-02,9.99999e-01,9.99999e-01,1.55690e-02,9.99999e-01
5.006483283e-01,1.69031e-02,9.99999e-01,9.99999e-01,1.69031e-02,9.99999e-01
5.031515699e-01,1.83218e-02,9.99999e-01,9.99999e-01,1.83218e-02,9.99999e-01
5.056673278e-01,1.98280e-02,9.99999e-01,9.99999e-01,1.98280e-02,9.99999e-01
5.081956644e-01,2.14246e-02,9.99999e-01,9.99999e-01,2.14246e-02,9.99999e-01
5.107366428e-01,2.31143e-02,9.99999e-01,9.99999e-01,2.31143e-02,9.99999e-01
5.132903260e-01,2.49000e-02,9.99999e-01,9.99999e-01,2.49000e-02,9.99999e-01
5.158567776e-01,2.67841e-02,9.99999e-01,9.99999e-01,2.67841e-02,9.99999e-01
5.184360615e-01,2.87694e-02,9.99999e-01,9.99999e-01,2.87694e-02,9.99999e-01
5.210282418e-01,3.08582e-02,9.99999e-01,9.99999e-01,3.08582e-02,9.99999e-01
5.236333830e-01,3.30529e-02,9.99999e-01,9.99999e-01,3.30529e-02,9.99999e-01
5.262515499e-01,3.53557e-02,9.99999e-01,9.99999e-01,3.53557e-02,9.99999e-01
5.288828077e-01,3.77686e-02,9.99999e-01,9.99999e-01,3.77686e-02,9.99999e-01
5.315272217e-01,4.02936e-02,9.99999e-01,9.99999e-01,4.02936e-02,9.99999e-01
5.341848578e-01,4.29324e-02,9.99999e-01,9.99999e-01,4.29324e-02,9.99999e-01
5.368557821e-01,4.56869e-02,9.99999e-01,9.99999e-01,4.56869e-02,9.99999e-01
5.395400610e-01,4.85583e-02,9.99999e-01,9.99999e-01,4.85583e-02,9.99999e-01
5.422377613e-01,5.15482e-02,9.99999e-01,9.99999e-01,5.15482e-02,9.99999e-01
5.449489501e-01,5.46576e-02,9.99999e-01,9.99999e-01,5.46576e-02,9.99999e-01
5.476736949e-01,5.78875e-02,9.99999e-01,9.99999e-01,5.78875e-02,9.99999e-01
5.504120634e-01,6.12388e-02,9.99999e-01,9.99999e-01,6.12388e-02,9.99999e-01
5.531641237e-01,6.47122e-02,9.99999e-01,9.99999e-01,6.47122e-02,9.99999e-01
5.559299443e-01,6.83081e-02,9.99999e-01,9.99999e-01,6.83081e-02,9.99999e-01
5.587095940e-01,7.20268e-02,9.99999e-01,9.99999e-01,7.20268e-02,9.99999e-01
5.615031420e-01,7.58685e-02,9.99999e-01,9.99999e-01,7.58685e-02,9.99999e-01
5.643106577e-01,7.98331e-02,9.99999e-01,9.99999e-01,7.98331e-02,9.99999e-01
5.671322110e-01,8.39204e-02,9.99999e-01,9.99999e-01,8.39204e-02,9.99999e-01
5.699678720e-01,8.81300e-02,9.99999e-01,9.99999e-01,8.81300e-02,9.99999e-01
5.728177114e-01,9.24614e-02,9.99999e-01,9.99999e-01,9.24614e-02,9.99999e-01
5.756818000e-01,9.69137e-02,9.99999e-01,9.99999e-01,9.69137e-02,9.99999e-01
5.785602090e-01,1.01486e-01,9.99999e-01,9.99999e-01,1.01486e-01,9.99999e-01
5.814530100e-01,1.06177e-01,9.99999e-01,9.99999e-01,1.06177e-01,9.99999e-01
5.843602750e-01,1.10987e-01,9.99999e-01,9.99999e-01,1.10987e-01,9.99999e-01
5.872820764e-01,1.15912e-01,9.99999e-01,9.99999e-01,1.15912e-01,9.99999e-01
5.902184868e-01,1.20952e-01,9.99999e-01,9.99999e-01,1.20952e-01,9.99999e-01
5.931695792e-01,1.26106e-01,9.99999e-01,9.99999e-01,1.26106e-01,9.99999e-01
5.961354271e-01,1.31371e-01,9.99999e-01,9.99999e-01,1.31371e-01,9.99999e-01
5.991161043e-01,1.36745e-01,9.99999e-01,9.99999e-01,1.36745e-01,9.99999e-01
6.021116848e-01,1.42226e-01,9.99999e-01,9.99999e-01,1.42226e-01,9.99999e-01
6.051222432e-01,1.47812e-01,9.99999e-01,9.99999e-01,1.47812e-01,9.99999e-01
6.081478544e-01,1.53500e-01,9.99999e-01,9.99999e-01,1.53500e-01,9.99999e-01
6.111885937e-01,1.59289e-01,9.99999e-01,9.99999e-01,1.59289e-01,9.99999e-01
6.142445367e-01,1.65175e-01,9.99999e-01,9.99999e-01,1.65175e-01,9.99999e-01
6.173157594e-01,1.71156e-01,9.99999e-01,9.99999e-01,1.71156e-01,9.99999e-01
6.204023382e-01,1.77229e-01,9.99999e-01,9.99999e-01,1.77229e-01,9.99999e-01
6.235043498e-01,1.83391e-01,9.99999e-01,9.99999e-01,1.83391e-01,9.99999e-01
6.266218716e-01,1.89639e-01,9.99999e-01,9.99999e-01,1.89639e-01,9.99999e-01
6.297549810e-01,1.95970e-01,9.99999e-01,9.99999e-01,1.95970e-01,9.99999e-01
6.329037559e-01,2.02382e-01,9.99999e-01,9.99999e-01,2.02382e-01,9.99999e-01
6.360682746e-01,2.08870e-01,9.99999e-01,9.99999e-01,2.08870e-01,9.99999e-01
6.392486160e-01,2.15432e-01,9.99999e-01,9.99999e-01,2.15432e-01,9.99999e-01
6.424448591e-01,2.22064e-01,9.99999e-01,9.99999e-01,2.22064e-01,9.99999e-01
6.456570834e-01,2.28764e-01,9.99999e-01,9.99999e-01,2.28764e-01,9.99999e-01
6.488853688e-01,2.35527e-01,9.99999e-01,9.99999e-01,2.35527e-01,9.99999e-01
6.521297956e-01,2.42351e-01,9.99999e-01,9.99999e-01,2.42351e-01,9.99999e-01
6.553904446e-01,2.49232e-01,9.99999e-01,9.99999e-01,2.49232e-01,9.99999e-01
6.586673968e-01,2.56166e-01,9.99999e-01,9.99999e-01,2.56166e-01,9.99999e-01
6.619607338e-01,2.63151e-01,9.99999e-01,9.99999e-01,2.63151e-01,9.99999e-01
6.652705375e-01,2.70183e-01,9.99999e-01,9.99999e-01,2.70183e-01,9.99999e-01
6.685968902e-01,2.77258e-01,9.99999e-01,9.99999e-01,2.77258e-01,9.99999e-01
6.719398746e-01,2.84373e-01,9.99999e-01,9.99999e-01,2.84373e-01,9.99999e-01
6.752995740e-01,2.91525e-01,9.99999e-01,9.99999e-01,2.91525e-01,9.99999e-01
6.786760719e-01,2.98710e-01,9.99999e-01,9.99999e-01,2.98710e-01,9.99999e-01
6.820694522e-01,3.05925e-01,9.99999e-01,9.99999e-01,3.05925e-01,9.99999e-01
6.854797995e-01,3.13166e-01,9.99999e-01,9.99999e-01,3.13166e-01,9.99999e-01
6.889071985e-01,3.20431e-01,9.99999e-01,9.99999e-01,3.20431e-01,9.99999e-01
6.923517345e-01,3.27716e-01,9.99999e-01,9.99999e-01,3.27716e-01,9.99999e-01
6.958134932e-01,3.35018e-01,9.99999e-01,9.99999e-01,3.35018e-01,9.99999e-01
6.992925606e-01,3.42333e-01,9.99999e-01,9.99999e-01,3.42333e-01,9.99999e-01
7.027890234e-01,3.49659e-01,9.99999e-01,9.99999e-01,3.49659e-01,9.99999e-01
7.063029686e-01,3.56992e-01,9.99999e-01,9.99999e-01,3.56992e-01,9.99999e-01
7.098344834e-01,3.64330e-01,9.99999e-01,9.99999e-01,3.64330e-01,9.99999e-01
7.133836558e-01,3.71669e-01,9.99999e-01,9.99999e-01,3.71669e-01,9.99999e-01
7.169505741e-01,3.79007e-01,9.99999e-01,9.99999e-01,3.79007e-01,9.99999e-01
7.205353270e-01,3.86340e-01,9.99999e-01,9.99999e-01,3.86340e-01,9.99999e-01
7.241380036e-01,3.93666e-01,9.99999e-01,9.99999e-01,3.93666e-01,9.99999e-01
7.277586936e-01,4.00982e-01,9.99999e-01,9.99999e-01,4.00982e-01,9.99999e-01
7.313974871e-01,4.08286e-01,9.99999e-01,9.99999e-01,4.08286e-01,9.99999e-01
7.350544745e-01,4.15574e-01,9.99999e-01,9.99999e-01,4.15574e-01,9.99999e-01
7.387297469e-01,4.22845e-01,9.99999e-01,9.99999e-01,4.22845e-01,9.99999e-01
7.424233956e-01,4.30096e-01,9.99999e-01,9.99999e-01,4.30096e-01,9.99999e-01
7.461355126e-01,4.37324e-01,9.99999e-01,9.99999e-01,4.37324e-01,9.99999e-01
7.498661902e-01,4.44527e-01,9.99999e-01,9.99999e-01,4.44527e-01,9.99999e-01
7.536155211e-01,4.51703e-01,9.99999e-01,9.99999e-01,4.51703e-01,9.99999e-01
7.573835987e-01,4.58850e-01,9.99999e-01,9.99999e-01,4.58850e-01,9.99999e-01
7.611705167e-01,4.65965e-01,9.99999e-01,9.99999e-01,4.65965e-01,9.99999e-01
7.649763693e-01,4.73047e-01,9.99999e-01,9.99999e-01,4.73047e-01,9.99999e-01
7.688012511e-01,4.80093e-01,9.99999e-01,9.99999e-01,4.80093e-01,9.99999e-01
7.726452574e-01,4.87102e-01,9.99999e-01,9.99999e-01,4.87102e-01,9.99999e-01
7.765084837e-01,4.94072e-01,9.99999e-01,9.99999e-01,4.94072e-01,9.99999e-01
7.803910261e-01,4.85602e-01,9.99999e-01,9.69261e-01,5.01001e-01,9.99999e-01
7.842929812e-01,4.39486e-01,9.99999e-01,8.65320e-01,5.07888e-01,9.99999e-01
7.882144461e-01,4.41339e-01,9.99999e-01,8.57418e-01,5.14730e-01,9.99999e-01
7.921555184e-01,4.76876e-01,9.99999e-01,9.14383e-01,5.21527e-01,9.99999e-01
7.961162960e-01,4.97314e-01,9.99999e-01,9.41389e-01,5.28276e-01,9.99999e-01
8.000968774e-01,5.17781e-01,9.99999e-01,9.67854e-01,5.34977e-01,9.99999e-01
8.040973618e-01,5.32498e-01,9.99999e-01,9.83143e-01,5.41628e-01,9.99999e-01
8.081178486e-01,5.43988e-01,9.99999e-01,9.92265e-01,5.48228e-01,9.99999e-01
8.121584379e-01,5.53435e-01,9.99999e-01,9.97582e-01,5.54776e-01,9.99999e-01
8.162192301e-01,5.60970e-01,9.99999e-01,9.99465e-01,5.61270e-01,9.99999e-01
8.203003262e-01,5.67705e-01,9.99999e-01,9.99990e-01,5.67710e-01,9.99999e-01
8.244018279e-01,5.74094e-01,9.99999e-01,9.99999e-01,5.74094e-01,9.99999e-01
8.285238370e-01,5.80422e-01,9.99999e-01,9.99999e-01,5.80422e-01,9.99999e-01
8.326664562e-01,5.86692e-01,9.99999e-01,9.99999e-01,5.86692e-01,9.99999e-01
8.368297885e-01,5.92904e-01,9.99999e-01,9.99999e-01,5.92904e-01,9.99999e-01
8.410139374e-01,5.99058e-01,9.99999e-01,9.99999e-01,5.99058e-01,9.99999e-01
8.452190071e-01,6.05152e-01,9.99999e-01,9.99999e-01,6.05152e-01,9.99999e-01
8.494451021e-01,6.11186e-01,9.99999e-01,9.99999e-01,6.11186e-01,9.99999e-01
8.536923276e-01,6.17158e-01,9.99999e-01,9.99999e-01,6.17158e-01,9.99999e-01
8.579607893e-01,6.23070e-01,9.99999e-01,9.99999e-01,6.23070e-01,9.99999e-01
8.622505932e-01,6.28920e-01,9.99999e-01,9.99999e-01,6.28920e-01,9.99999e-01
8.665618462e-01,5.90571e-01,9.99999e-01,9.30462e-01,6.34707e-01,9.99999e-01
8.708946554e-01,4.44226e-01,9.99999e-01,6.93635e-01,6.40432e-01,9.99999e-01
8.752491287e-01,4.80715e-01,9.99999e-01,7.44032e-01,6.46094e-01,9.99999e-01
8.796253743e-01,5.53965e-01,9.99999e-01,8.50040e-01,6.51693e-01,9.99999e-01
8.840235012e-01,6.04193e-01,9.99999e-01,9.19304e-01,6.57228e-01,9.99999e-01
8.884436187e-01,6.40988e-01,9.99999e-01,9.67236e-01,6.62699e-01,9.99999e-01
8.928858368e-01,6.59185e-01,9.99999e-01,9.86646e-01,6.68107e-01,9.99999e-01
8.973502660e-01,6.71240e-01,9.99999e-01,9.96717e-01,6.73451e-01,9.99999e-01
9.018370173e-01,6.78484e-01,9.99999e-01,9.99636e-01,6.78730e-01,9.99999e-01
9.063462024e-01,6.77830e-01,9.99999e-01,9.91058e-01,6.83945e-01,9.99999e-01
9.108779334e-01,6.74656e-01,9.99999e-01,9.79043e-01,6.89097e-01,9.99999e-01
9.154323231e-01,6.90706e-01,9.99999e-01,9.94989e-01,6.94184e-01,9.99999e-01
9.200094847e-01,6.51148e-01,9.99999e-01,9.31265e-01,6.99207e-01,9.99999e-01
9.246095321e-01,6.34889e-01,9.99999e-01,9.01617e-01,7.04166e-01,9.99999e-01
9.292325798e-01,6.54377e-01,9.99999e-01,9.22876e-01,7.09062e-01,9.99999e-01
9.338787427e-01,6.60047e-01,9.99999e-01,9.24572e-01,7.13893e-01,9.99999e-01
9.385481364e-01,6.78442e-01,9.99999e-01,9.44035e-01,7.18662e-01,9.99999e-01
9.432408771e-01,6.98215e-01,9.99999e-01,9.65229e-01,7.23367e-01,9.99999e-01
9.479570815e-01,7.14958e-01,9.99999e-01,9.82073e-01,7.28009e-01,9.99999e-01
9.526968669e-01,7.26214e-01,9.99999e-01,9.91299e-01,7.32588e-01,9.99999e-01
9.574603512e-01,7.34354e-01,9.99999e-01,9.96268e-01,7.37104e-01,9.99999e-01
9.622476530e-01,7.40694e-01,9.99999e-01,9.98833e-01,7.41559e-01,9.99999e-01
9.670588912e-01,7.45690e-01,9.99999e-01,9.99649e-01,7.45951e-01,9.99999e-01
9.718941857e-01,7.50263e-01,9.99999e-01,9.99974e-01,7.50282e-01,9.99999e-01
9.767536566e-01,7.54552e-01,9.99999e-01,9.99999e-01,7.54552e-01,9.99999e-01
9.816374249e-01,7.58762e-01,9.99999e-01,9.99999e-01,7.58762e-01,9.99999e-01
9.865456120e-01,7.62910e-01,9.99999e-01,9.99999e-01,7.62910e-01,9.99999e-01
9.914783401e-01,7.66999e-01,9.99999e-01,9.99999e-01,7.66999e-01,9.99999e-01
9.964357318e-01,7.71029e-01,9.99999e-01,9.99999e-01,7.71029e-01,9.99999e-01
1.001417910e+00,7.74999e-01,9.99999e-01,9.99999e-01,7.74999e-01,9.99999e-01
1.006425000e+00,7.78911e-01,9.99999e-01,9.99999e-01,7.78911e-01,9.99999e-01
1.011457125e+00,7.82764e-01,9.99999e-01,9.99999e-01,7.82764e-01,9.99999e-01
1.016514411e+00,7.86561e-01,9.99999e-01,9.99999e-01,7.86561e-01,9.99999e-01
1.021596983e+00,7.90266e-01,9.99999e-01,9.99956e-01,7.90299e-01,9.99999e-01
1.026704968e+00,7.91218e-01,9.99999e-01,9.96518e-01,7.93982e-01,9.99999e-01
1.031838492e+00,7.66252e-01,9.99999e-01,9.60687e-01,7.97608e-01,9.99999e-01
1.036997685e+00,1.29887e-01,9.99999e-01,1.62120e-01,8.01179e-01,9.99999e-01
1.042182673e+00,1.05593e-01,9.99999e-01,1.31221e-01,8.04694e-01,9.99999e-01
1.047393587e+00,1.24684e-01,9.99999e-01,1.54281e-01,8.08156e-01,9.99999e-01
1.052630555e+00,4.01969e-03,9.99999e-01,4.95302e-03,8.11563e-01,9.99999e-01
1.057893707e+00,9.81739e-03,9.99999e-01,1.20471e-02,8.14917e-01,9.99999e-01
1.063183176e+00,3.16509e-02,9.99999e-01,3.86827e-02,8.18218e-01,9.99999e-01
1.068499092e+00,8.67427e-02,9.99999e-01,1.05595e-01,8.21467e-01,9.99999e-01
1.073841587e+00,1.98304e-01,9.99999e-01,2.40466e-01,8.24664e-01,9.99999e-01
1.079210795e+00,3.35910e-01,9.99999e-01,4.05781e-01,8.27810e-01,9.99999e-01
1.084606849e+00,5.05475e-01,9.99999e-01,6.08341e-01,8.30906e-01,9.99999e-01
1.090029883e+00,6.44521e-01,9.99999e-01,7.72851e-01,8.33952e-01,9.99999e-01
1.095480033e+00,7.37024e-01,9.99999e-01,8.80608e-01,8.36948e-01,9.99999e-01
1.100957433e+00,7.90013e-01,9.99999e-01,9.40607e-01,8.39896e-01,9.99999e-01
1.106462220e+00,8.21700e-01,9.99999e-01,9.74968e-01,8.42796e-01,9.99999e-01
1.111994531e+00,8.37741e-01,9.99999e-01,9.90650e-01,8.45648e-01,9.99999e-01
1.117554504e+00,8.46500e-01,9.99999e-01,9.97697e-01,8.48453e-01,9.99999e-01
1.123142276e+00,8.51082e-01,9.99999e-01,9.99847e-01,8.51211e-01,9.99999e-01
1.128757988e+00,8.53924e-01,9.99999e-01,9.99999e-01,8.53924e-01,9.99999e-01
1.134401778e+00,8.56592e-01,9.99999e-01,9.99999e-01,8.56592e-01,9.99999e-01
1.140073787e+00,8.59215e-01,9.99999e-01,9.99999e-01,8.59215e-01,9.99999e-01
1.145774156e+00,8.61794e-01,9.99999e-01,9.99999e-01,8.61794e-01,9.99999e-01
1.151503026e+00,8.64330e-01,9.99999e-01,9.99999e-01,8.64330e-01,9.99999e-01
1.157260541e+00,8.66822e-01,9.99999e-01,9.99999e-01,8.66822e-01,9.99999e-01
1.163046844e+00,8.69273e-01,9.99999e-01,9.99999e-01,8.69273e-01,9.99999e-01
1.168862078e+00,8.71682e-01,9.99999e-01,9.99999e-01,8.71682e-01,9.99999e-01
1.174706389e+00,8.74049e-01,9.99999e-01,9.99999e-01,8.74049e-01,9.99999e-01
1.180579921e+00,8.76377e-01,9.99999e-01,9.99999e-01,8.76377e-01,9.99999e-01
1.186482820e+00,8.78660e-01,9.99999e-01,9.99995e-01,8.78664e-01,9.99999e-01
1.192415234e+00,8.70079e-01,9.99999e-01,9.87702e-01,8.80912e-01,9.99999e-01
1.198377311e+00,4.97952e-01,9.99999e-01,5.63855e-01,8.83121e-01,9.99999e-01
1.204369197e+00,8.79228e-11,9.99999e-01,9.93150e-11,8.85292e-01,9.99999e-01
1.210391043e+00,6.59578e-39,9.99999e-01,7.43248e-39,8.87425e-01,9.99999e-01
1.216442998e+00,7.05439e-34,9.99999e-01,7.93055e-34,8.89521e-01,9.99999e-01
1.222525213e+00,2.15806e-33,9.99999e-01,2.42048e-33,8.91580e-01,9.99999e-01
1.228637839e+00,7.36159e-26,9.99999e-01,8.23808e-26,8.93603e-01,9.99999e-01
1.234781029e+00,7.77392e-17,9.99999e-01,8.68021e-17,8.95591e-01,9.99999e-01
1.240954934e+00,2.10509e-11,9.99999e-01,2.34538e-11,8.97544e-01,9.99999e-01
1.247159708e+00,1.71335e-07,9.99999e-01,1.90486e-07,8.99462e-01,9.99999e-01
1.253395507e+00,4.00838e-04,9.99999e-01,4.44709e-04,9.01347e-01,9.99999e-01
1.259662485e+00,7.73063e-03,9.99999e-01,8.55917e-03,9.03198e-01,9.99999e-01
1.265960797e+00,6.90374e-02,9.99999e-01,7.62830e-02,9.05016e-01,9.99999e-01
1.272290601e+00,2.81864e-01,9.99999e-01,3.10833e-01,9.06802e-01,9.99999e-01
1.278652054e+00,2.67105e-01,9.99999e-01,2.93988e-01,9.08556e-01,9.99999e-01
1.285045314e+00,8.01419e-03,9.99999e-01,8.80410e-03,9.10279e-01,9.99999e-01
1.291470541e+00,2.94545e-05,9.99999e-01,3.22976e-05,9.11970e-01,9.99999e-01
1.297927893e+00,5.19570e-03,9.99999e-01,5.68686e-03,9.13632e-01,9.99999e-01
1.304417533e+00,1.27662e-01,9.99999e-01,1.39481e-01,9.15263e-01,9.99999e-01
1.310939621e+00,3.25296e-02,9.99999e-01,3.54791e-02,9.16865e-01,9.99999e-01
1.317494319e+00,7.59023e-14,9.99999e-01,8.26427e-14,9.18439e-01,9.99999e-01
1.324081790e+00,1.20602e-09,9.99999e-01,1.31092e-09,9.19983e-01,9.99999e-01
1.330702199e+00,1.06841e-05,9.99999e-01,1.15942e-05,9.21500e-01,9.99999e-01
1.337355710e+00,1.28130e-05,9.99999e-01,1.38821e-05,9.22989e-01,9.99999e-01
1.344042489e+00,3.97639e-06,9.99999e-01,4.30134e-06,9.24452e-01,9.99999e-01
1.350762701e+00,6.59834e-06,9.99999e-01,7.12650e-06,9.25887e-01,9.99999e-01
1.357516515e+00,4.54297e-04,9.99999e-01,4.89915e-04,9.27296e-01,9.99999e-01
1.364304097e+00,6.62284e-03,9.99999e-01,7.13145e-03,9.28680e-01,9.99999e-01
1.371125618e+00,7.01388e-02,9.99999e-01,7.54149e-02,9.30038e-01,9.99999e-01
1.377981246e+00,1.12766e-01,9.99999e-01,1.21075e-01,9.31372e-01,9.99999e-01
1.384871152e+00,2.72767e-01,9.99999e-01,2.92455e-01,9.32680e-01,9.99999e-01
1.391795508e+00,2.99646e-01,9.99999e-01,3.20832e-01,9.33965e-01,9.99999e-01
1.398754485e+00,4.63867e-01,9.99999e-01,4.95994e-01,9.35226e-01,9.99999e-01
1.405748258e+00,5.58475e-01,9.99999e-01,5.96365e-01,9.36464e-01,9.99999e-01
1.412776999e+00,6.76343e-01,9.99999e-01,7.21294e-01,9.37679e-01,9.99999e-01
1.419840884e+00,6.14970e-01,9.99999e-01,6.55009e-01,9.38872e-01,9.99999e-01
1.426940089e+00,5.93935e-02,9.99999e-01,6.31816e-02,9.40042e-01,9.99999e-01
1.434074789e+00,0.00000e+00,9.99999e-01,0.00000e+00,9.41191e-01,9.99999e-01
1.441245163e+00,0.00000e+00,9.99999e-01,0.00000e+00,9.42318e-01,9.99999e-01
1.448451389e+00,0.00000e+00,9.99999e-01,0.00000e+00,9.43425e-01,9.99999e-01
1.455693646e+00,1.35105e-311,9.99999e-01,1.43042e-311,9.44511e-01,9.99999e-01
1.462972114e+00,4.96020e-151,9.99999e-01,5.24568e-151,9.45576e-01,9.99999e-01
1.470286975e+00,1.80630e-63,9.99999e-01,1.90815e-63,9.46622e-01,9.99999e-01
