#,Wave/freq,Total,N2,CO2,Rayleigh,CIA
4.000000000e-01,6.48410e-15,9.99999e-01,9.99999e-01,6.48410e-15,9.99999e-01
4.020000000e-01,1.23703e-14,9.99999e-01,9.99999e-01,1.23703e-14,9.99999e-01
4.040100000e-01,2.32858e-14,9.99999e-01,9.99999e-01,2.32858e-14,9.99999e-01
4.060300500e-01,4.32887e-14,9.99999e-01,9.99999e-01,4.32887e-14,9.99999e-01
4.080602003e-01,7.94950e-14,9.99999e-01,9.99999e-01,7.94950e-14,9.99999e-01
4.101005013e-01,1.44242e-13,9.99999e-01,9.99999e-01,1.44242e-13,9.99999e-01
4.121510038e-01,2.58661e-13,9.99999e-01,9.99999e-01,2.58661e-13,9.99999e-01
4.142117588e-01,4.58522e-13,9.99999e-01,9.99999e-01,4.58522e-13,9.99999e-01
4.162828176e-01,8.03672e-13,9.99999e-01,9.99999e-01,8.03672e-13,9.99999e-01
4.183642317e-01,1.39310e-12,9.99999e-01,9.99999e-01,1.39310e-12,9.99999e-01
4.204560528e-01,2.38874e-12,9.99999e-01,9.99999e-01,2.38874e-12,9.99999e-01
4.225583331e-01,4.05256e-12,9.99999e-01,9.99999e-01,4.05256e-12,9.99999e-01
4.246711247e-01,6.80385e-12,9.99999e-01,9.99999e-01,6.80385e-12,9.99999e-01
4.267944804e-01,1.13067e-11,9.99999e-01,9.99999e-01,1.13067e-11,9.99999e-01
4.289284528e-01,1.86020e-11,9.99999e-01,9.99999e-01,1.86020e-11,9.99999e-01
4.310730950e-01,3.03048e-11,9.99999e-01,9.99999e-01,3.03048e-11,9.99999e-01
4.332284605e-01,4.88965e-11,9.99999e-01,9.99999e-01,4.88965e-11,9.99999e-01
4.353946028e-01,7.81520e-11,9.99999e-01,9.99999e-01,7.81520e-11,9.99999e-01
4.375715758e-01,1.23760e-10,9.99999e-01,9.99999e-01,1.23760e-10,9.99999e-01
4.397594337e-01,1.94212e-10,9.99999e-01,9.99999e-01,1.94212e-10,9.99999e-01
4.419582309e-01,3.02069e-10,9.99999e-01,9.99999e-01,3.02069e-10,9.99999e-01
4.441680220e-01,4.65745e-10,9.99999e-01,9.99999e-01,4.65745e-10,9.99999e-01
4.463888621e-01,7.11992e-10,9.99999e-01,9.99999e-01,7.11992e-10,9.99999e-01
4.486208064e-01,1.07935e-09,9.99999e-01,9.99999e-01,1.07935e-09,9.99999e-01
4.508639105e-01,1.62285e-09,9.99999e-01,9.99999e-01,1.62285e-09,9.99999e-01
4.531182300e-01,2.42046e-09,9.99999e-01,9.99999e-01,2.42046e-09,9.99999e-01
4.553838212e-01,3.58168e-09,9.99999e-01,9.99999e-01,3.58168e-09,9.99999e-01
4.576607403e-01,5.25914e-09,9.99999e-01,9.99999e-01,5.25914e-09,9.99999e-01
4.599490440e-01,7.66385e-09,9.99999e-01,9.99999e-01,7.66385e-09,9.99999e-01
4.622487892e-01,1.10853e-08,9.99999e-01,9.99999e-01,1.10853e-08,9.99999e-01
4.645600332e-01,1.59179e-08,9.99999e-01,9.99999e-01,1.59179e-08,9.99999e-01
4.668828333e-01,2.26943e-08,9.99999e-01,9.99999e-01,2.26943e-08,9.99999e-01
4.692172475e-01,3.21297e-08,9.99999e-01,9.99999e-01,3.21297e-08,9.99999e-01
4.715633337e-01,4.51767e-08,9.99999e-01,9.99999e-01,4.51767e-08,9.99999e-01
4.739211504e-01,6.30954e-08,9.99999e-01,9.99999e-01,6.30954e-08,9.99999e-01
4.762907561e-01,8.75418e-08,9.99999e-01,9.99999e-01,8.75418e-08,9.99999e-01
4.786722099e-01,1.20677e-07,9.99999e-01,9.99999e-01,1.20677e-07,9.99999e-01
4.810655710e-01,1.65302e-07,9.99999e-01,9.99999e-01,1.65302e-07,9.99999e-01
4.834708988e-01,2.25027e-07,9.99999e-01,9.99999e-01,2.25027e-07,9.99999e-01
4.858882533e-01,3.04470e-07,9.99999e-01,9.99999e-01,3.04470e-07,9.99999e-01
4.883176946e-01,4.09507e-07,9.99999e-01,9.99999e-01,4.09507e-07,9.99999e-01
4.907592831e-01,5.47564e-07,9.99999e-01,9.99999e-01,5.47564e-07,9.99999e-01
4.932130795e-01,7.27975e-07,9.99999e-01,9.99999e-01,7.27975e-07,9.99999e-01
4.956791449e-01,9.62398e-07,9.99999e-01,9.99999e-01,9.62398e-07,9.99999e-01
4.981575406e-01,1.26531e-06,9.99999e-01,9.99999e-01,1.26531e-06,9.99999e-01
5.006483283e-01,1.65461e-06,9.99999e-01,9.99999e-01,1.65461e-06,9.99999e-01
5.031515699e-01,2.15223e-06,9.99999e-01,9.99999e-01,2.15223e-06,9.99999e-01
5.056673278e-01,2.78502e-06,9.99999e-01,9.99999e-01,2.78502e-06,9.99999e-01
5.081956644e-01,3.58556e-06,9.99999e-01,9.99999e-01,3.58556e-06,9.99999e-01
5.107366428e-01,4.59323e-06,9.99999e-01,9.99999e-01,4.59323e-06,9.99999e-01
5.132903260e-01,5.85538e-06,9.99999e-01,9.99999e-01,5.85538e-06,9.99999e-01
5.158567776e-01,7.42863e-06,9.99999e-01,9.99999e-01,7.42863e-06,9.99999e-01
5.184360615e-01,9.38039e-06,9.99999e-01,9.99999e-01,9.38039e-06,9.99999e-01
5.210282418e-01,1.17905e-05,9.99999e-01,9.99999e-01,1.17905e-05,9.99999e-01
5.236333830e-01,1.47530e-05,9.99999e-01,9.99999e-01,1.47530e-05,9.99999e-01
5.262515499e-01,1.83784e-05,9.99999e-01,9.99999e-01,1.83784e-05,9.99999e-01
5.288828077e-01,2.27955e-05,9.99999e-01,9.99999e-01,2.27955e-05,9.99999e-01
5.315272217e-01,2.81542e-05,9.99999e-01,9.99999e-01,2.81542e-05,9.99999e-01
5.341848578e-01,3.46279e-05,9.99999e-01,9.99999e-01,3.46279e-05,9.99999e-01
5.368557821e-01,4.24164e-05,9.99999e-01,9.99999e-01,4.24164e-05,9.99999e-01
5.395400610e-01,5.17488e-05,9.99999e-01,9.99999e-01,5.17488e-05,9.99999e-01
5.422377613e-01,6.28871e-05,9.99999e-01,9.99999e-01,6.28871e-05,9.99999e-01
5.449489501e-01,7.61291e-05,9.99999e-01,9.99999e-01,7.61291e-05,9.99999e-01
5.476736949e-01,9.18121e-05,9.99999e-01,9.99999e-01,9.18121e-05,9.99999e-01
5.504120634e-01,1.10317e-04,9.99999e-01,9.99999e-01,1.10317e-04,9.99999e-01
5.531641237e-01,1.32072e-04,9.99999e-01,9.99999e-01,1.32072e-04,9.99999e-01
5.559299443e-01,1.57556e-04,9.99999e-01,9.99999e-01,1.57556e-04,9.99999e-01
5.587095940e-01,1.87303e-04,9.99999e-01,9.99999e-01,1.87303e-04,9.99999e-01
5.615031420e-01,2.21907e-04,9.99999e-01,9.99999e-01,2.21907e-04,9.99999e-01
5.643106577e-01,2.62025e-04,9.99999e-01,9.99999e-01,2.62025e-04,9.99999e-01
5.671322110e-01,3.08382e-04,9.99999e-01,9.99999e-01,3.08382e-04,9.99999e-01
5.699678720e-01,3.61775e-04,9.99999e-01,9.99999e-01,3.61775e-04,9.99999e-01
5.728177114e-01,4.23076e-04,9.99999e-01,9.99999e-01,4.23076e-04,9.99999e-01
5.756818000e-01,4.93236e-04,9.99999e-01,9.99999e-01,4.93236e-04,9.99999e-01
5.785602090e-01,5.73291e-04,9.99999e-01,9.99999e-01,5.73291e-04,9.99999e-01
5.814530100e-01,6.64362e-04,9.99999e-01,9.99999e-01,6.64362e-04,9.99999e-01
5.843602750e-01,7.67663e-04,9.99999e-01,9.99999e-01,7.67663e-04,9.99999e-01
5.872820764e-01,8.84496e-04,9.99999e-01,9.99999e-01,8.84496e-04,9.99999e-01
5.902184868e-01,1.01626e-03,9.99999e-01,9.99999e-01,1.01626e-03,9.99999e-01
5.931695792e-01,1.16446e-03,9.99999e-01,9.99999e-01,1.16446e-03,9.99999e-01
5.961354271e-01,1.33069e-03,9.99999e-01,9.99999e-01,1.33069e-03,9.99999e-01
5.991161043e-01,1.51664e-03,9.99999e-01,9.99999e-01,1.51664e-03,9.99999e-01
6.021116848e-01,1.72412e-03,9.99999e-01,9.99999e-01,1.72412e-03,9.99999e-01
6.051222432e-01,1.95503e-03,9.99999e-01,9.99999e-01,1.95503e-03,9.99999e-01
6.081478544e-01,2.21136e-03,9.99999e-01,9.99999e-01,2.21136e-03,9.99999e-01
6.111885937e-01,2.49522e-03,9.99999e-01,9.99999e-01,2.49522e-03,9.99999e-01
6.142445367e-01,2.80881e-03,9.99999e-01,9.99999e-01,2.80881e-03,9.99999e-01
6.173157594e-01,3.15442e-03,9.99999e-01,9.99999e-01,3.15442e-03,9.99999e-01
6.204023382e-01,3.53446e-03,9.99999e-01,9.99999e-01,3.53446e-03,9.99999e-01
6.235043498e-01,3.95138e-03,9.99999e-01,9.99999e-01,3.95138e-03,9.99999e-01
6.266218716e-01,4.40777e-03,9.99999e-01,9.99999e-01,4.40777e-03,9.99999e-01
6.297549810e-01,4.90627e-03,9.99999e-01,9.99999e-01,4.90627e-03,9.99999e-01
6.329037559e-01,5.44961e-03,9.99999e-01,9.99999e-01,5.44961e-03,9.99999e-01
6.360682746e-01,6.04057e-03,9.99999e-01,9.99999e-01,6.04057e-03,9.99999e-01
6.392486160e-01,6.68200e-03,9.99999e-01,9.99999e-01,6.68200e-03,9.99999e-01
6.424448591e-01,7.37684e-03,9.99999e-01,9.99999e-01,7.37684e-03,9.99999e-01
6.456570834e-01,8.12803e-03,9.99999e-01,9.99999e-01,8.12803e-03,9.99999e-01
6.488853688e-01,8.93857e-03,9.99999e-01,9.99999e-01,8.93857e-03,9.99999e-01
6.521297956e-01,9.81150e-03,9.99999e-01,9.99999e-01,9.81150e-03,9.99999e-01
6.553904446e-01,1.07499e-02,9.99999e-01,9.99999e-01,1.07499e-02,9.99999e-01
6.586673968e-01,1.17568e-02,9.99999e-01,9.99999e-01,1.17568e-02,9.99999e-01
6.619607338e-01,1.28353e-02,9.99999e-01,9.99999e-01,1.28353e-02,9.99999e-01
6.652705375e-01,1.39884e-02,9.99999e-01,9.99999e-01,1.39884e-02,9.99999e-01
6.685968902e-01,1.52193e-02,9.99999e-01,9.99999e-01,1.52193e-02,9.99999e-01
6.719398746e-01,1.65309e-02,9.99999e-01,9.99999e-01,1.65309e-02,9.99999e-01
6.752995740e-01,1.79263e-02,9.99999e-01,9.99999e-01,1.79263e-02,9.99999e-01
6.786760719e-01,1.94083e-02,9.99999e-01,9.99999e-01,1.94083e-02,9.99999e-01
6.820694522e-01,2.09799e-02,9.99999e-01,9.99999e-01,2.09799e-02,9.99999e-01
6.854797995e-01,2.26440e-02,9.99999e-01,9.99999e-01,2.26440e-02,9.99999e-01
6.889071985e-01,2.44032e-02,9.99999e-01,9.99999e-01,2.44032e-02,9.99999e-01
6.923517345e-01,2.62602e-02,9.99999e-01,9.99999e-01,2.62602e-02,9.99999e-01
6.958134932e-01,2.82177e-02,9.99999e-01,9.99999e-01,2.82177e-02,9.99999e-01
6.992925606e-01,3.02780e-02,9.99999e-01,9.99999e-01,3.02780e-02,9.99999e-01
7.027890234e-01,3.24436e-02,9.99999e-01,9.99999e-01,3.24436e-02,9.99999e-01
7.063029686e-01,3.47166e-02,9.99999e-01,9.99999e-01,3.47166e-02,9.99999e-01
7.098344834e-01,3.70993e-02,9.99999e-01,9.99999e-01,3.70993e-02,9.99999e-01
7.133836558e-01,3.95935e-02,9.99999e-01,9.99999e-01,3.95935e-02,9.99999e-01
7.169505741e-01,4.22012e-02,9.99999e-01,9.99999e-01,4.22012e-02,9.99999e-01
7.205353270e-01,4.49239e-02,9.99999e-01,9.99999e-01,4.49239e-02,9.99999e-01
7.241380036e-01,4.77633e-02,9.99999e-01,9.99999e-01,4.77633e-02,9.99999e-01
7.277586936e-01,5.07207e-02,9.99999e-01,9.99999e-01,5.07207e-02,9.99999e-01
7.313974871e-01,5.37974e-02,9.99999e-01,9.99999e-01,5.37974e-02,9.99999e-01
7.350544745e-01,5.69944e-02,9.99999e-01,9.99999e-01,5.69944e-02,9.99999e-01
7.387297469e-01,6.03125e-02,9.99999e-01,9.99999e-01,6.03125e-02,9.99999e-01
7.424233956e-01,6.37525e-02,9.99999e-01,9.99999e-01,6.37525e-02,9.99999e-01
7.461355126e-01,6.73149e-02,9.99999e-01,9.99999e-01,6.73149e-02,9.99999e-01
7.498661902e-01,7.10001e-02,9.99999e-01,9.99999e-01,7.10001e-02,9.99999e-01
7.536155211e-01,7.48083e-02,9.99999e-01,9.99999e-01,7.48083e-02,9.99999e-01
7.573835987e-01,7.87394e-02,9.99999e-01,9.99999e-01,7.87394e-02,9.99999e-01
7.611705167e-01,8.27932e-02,9.99999e-01,9.99999e-01,8.27932e-02,9.99999e-01
7.649763693e-01,8.69695e-02,9.99999e-01,9.99999e-01,8.69695e-02,9.99999e-01
7.688012511e-01,9.12677e-02,9.99999e-01,9.99999e-01,9.12677e-02,9.99999e-01
7.726452574e-01,9.56871e-02,9.99999e-01,9.99999e-01,9.56871e-02,9.99999e-01
7.765084837e-01,1.00227e-01,9.99999e-01,9.99999e-01,1.00227e-01,9.99999e-01
7.803910261e-01,9.54448e-02,9.99999e-01,9.09986e-01,1.04886e-01,9.99999e-01
7.842929812e-01,7.06053e-02,9.99999e-01,6.43837e-01,1.09663e-01,9.99999e-01
7.882144461e-01,7.17118e-02,9.99999e-01,6.25992e-01,1.14557e-01,9.99999e-01
7.921555184e-01,8.96444e-02,9.99999e-01,7.49747e-01,1.19566e-01,9.99999e-01
7.961162960e-01,1.02769e-01,9.99999e-01,8.24201e-01,1.24689e-01,9.99999e-01
8.000968774e-01,1.16952e-01,9.99999e-01,9.00160e-01,1.29923e-01,9.99999e-01
8.040973618e-01,1.28115e-01,9.99999e-01,9.47119e-01,1.35268e-01,9.99999e-01
8.081178486e-01,1.37235e-01,9.99999e-01,9.75232e-01,1.40720e-01,9.99999e-01
8.121584379e-01,1.45163e-01,9.99999e-01,9.92380e-01,1.46277e-01,9.99999e-01
8.162192301e-01,1.51682e-01,9.99999e-01,9.98310e-01,1.51938e-01,9.99999e-01
8.203003262e-01,1.57696e-01,9.99999e-01,9.99976e-01,1.57700e-01,9.99999e-01
8.244018279e-01,1.63560e-01,9.99999e-01,9.99999e-01,1.63560e-01,9.99999e-01
8.285238370e-01,1.69515e-01,9.99999e-01,9.99999e-01,1.69515e-01,9.99999e-01
8.326664562e-01,1.75563e-01,9.99999e-01,9.99999e-01,1.75563e-01,9.99999e-01
8.368297885e-01,1.81701e-01,9.99999e-01,9.99999e-01,1.81701e-01,9.99999e-01
8.410139374e-01,1.87926e-01,9.99999e-01,9.99999e-01,1.87926e-01,9.99999e-01
8.452190071e-01,1.94235e-01,9.99999e-01,9.99999e-01,1.94235e-01,9.99999e-01
8.494451021e-01,2.00625e-01,9.99999e-01,9.99999e-01,2.00625e-01,9.99999e-01
8.536923276e-01,2.07092e-01,9.99999e-01,9.99999e-01,2.07092e-01,9.99999e-01
8.579607893e-01,2.13635e-01,9.99999e-01,9.99999e-01,2.13635e-01,9.99999e-01
8.622505932e-01,2.20248e-01,9.99999e-01,9.99999e-01,2.20248e-01,9.99999e-01
8.665618462e-01,1.96033e-01,9.99999e-01,8.63849e-01,2.26930e-01,9.99999e-01
8.708946554e-01,7.85804e-02,9.99999e-01,3.36279e-01,2.33676e-01,9.99999e-01
8.752491287e-01,9.73963e-02,9.99999e-01,4.05001e-01,2.40484e-01,9.99999e-01
8.796253743e-01,1.48867e-01,9.99999e-01,6.01849e-01,2.47349e-01,9.99999e-01
8.840235012e-01,1.94476e-01,9.99999e-01,7.64843e-01,2.54270e-01,9.99999e-01
8.884436187e-01,2.34993e-01,9.99999e-01,8.99524e-01,2.61241e-01,9.99999e-01
8.928858368e-01,2.56948e-01,9.99999e-01,9.57830e-01,2.68260e-01,9.99999e-01
8.973502660e-01,2.72475e-01,9.99999e-01,9.89653e-01,2.75324e-01,9.99999e-01
9.018370173e-01,2.82106e-01,9.99999e-01,9.98859e-01,2.82428e-01,9.99999e-01
9.063462024e-01,2.81006e-01,9.99999e-01,9.70422e-01,2.89570e-01,9.99999e-01
9.108779334e-01,2.77217e-01,9.99999e-01,9.34187e-01,2.96747e-01,9.99999e-01
9.154323231e-01,2.99195e-01,9.99999e-01,9.84342e-01,3.03954e-01,9.99999e-01
9.200094847e-01,2.52720e-01,9.99999e-01,8.12112e-01,3.11188e-01,9.99999e-01
9.246095321e-01,2.28550e-01,9.99999e-01,7.17700e-01,3.18447e-01,9.99999e-01
9.292325798e-01,2.51572e-01,9.99999e-01,7.72340e-01,3.25727e-01,9.99999e-01
9.338787427e-01,2.59373e-01,9.99999e-01,7.78840e-01,3.33024e-01,9.99999e-01
9.385481364e-01,2.82797e-01,9.99999e-01,8.30934e-01,3.40336e-01,9.99999e-01
9.432408771e-01,3.10308e-01,9.99999e-01,8.92561e-01,3.47659e-01,9.99999e-01
9.479570815e-01,3.34818e-01,9.99999e-01,9.43173e-01,3.54991e-01,9.99999e-01
9.526968669e-01,3.52285e-01,9.99999e-01,9.72281e-01,3.62328e-01,9.99999e-01
9.574603512e-01,3.65251e-01,9.99999e-01,9.88053e-01,3.69667e-01,9.99999e-01
9.622476530e-01,3.75597e-01,9.99999e-01,9.96263e-01,3.77005e-01,9.99999e-01
9.670588912e-01,3.83910e-01,9.99999e-01,9.98881e-01,3.84340e-01,9.99999e-01
9.718941857e-01,3.91638e-01,9.99999e-01,9.99922e-01,3.91668e-01,9.99999e-01
9.767536566e-01,3.98987e-01,9.99999e-01,9.99999e-01,3.98987e-01,9.99999e-01
9.816374249e-01,4.06295e-01,9.99999e-01,9.99999e-01,4.06295e-01,9.99999e-01
9.865456120e-01,4.13588e-01,9.99999e-01,9.99999e-01,4.13588e-01,9.99999e-01
9.914783401e-01,4.20864e-01,9.99999e-01,9.99999e-01,4.20864e-01,9.99999e-01
9.964357318e-01,4.28120e-01,9.99999e-01,9.99999e-01,4.28120e-01,9.99999e-01
1.001417910e+00,4.35354e-01,9.99999e-01,9.99999e-01,4.35354e-01,9.99999e-01
1.006425000e+00,4.42565e-01,9.99999e-01,9.99999e-01,4.42565e-01,9.99999e-01
1.011457125e+00,4.49748e-01,9.99999e-01,9.99999e-01,4.49748e-01,9.99999e-01
1.016514411e+00,4.56903e-01,9.99999e-01,9.99999e-01,4.56903e-01,9.99999e-01
1.021596983e+00,4.63941e-01,9.99999e-01,9.99813e-01,4.64027e-01,9.99999e-01
1.026704968e+00,4.65539e-01,9.99999e-01,9.88155e-01,4.71118e-01,9.99999e-01
1.031838492e+00,4.30624e-01,9.99999e-01,9.00557e-01,4.78175e-01,9.99999e-01
1.036997685e+00,2.43729e-02,9.99999e-01,5.02332e-02,4.85194e-01,9.99999e-01
1.042182673e+00,1.80956e-03,9.99999e-01,3.67666e-03,4.92175e-01,9.99999e-01
1.047393587e+00,4.53676e-03,9.99999e-01,9.08959e-03,4.99115e-01,9.99999e-01
1.052630555e+00,5.85663e-07,9.99999e-01,1.15741e-06,5.06014e-01,9.99999e-01
1.057893707e+00,2.26485e-06,9.99999e-01,4.41604e-06,5.12868e-01,9.99999e-01
1.063183176e+00,5.62149e-05,9.99999e-01,1.08173e-04,5.19677e-01,9.99999e-01
1.068499092e+00,5.48485e-04,9.99999e-01,1.04188e-03,5.26440e-01,9.99999e-01
1.073841587e+00,6.44282e-03,9.99999e-01,1.20843e-02,5.33154e-01,9.99999e-01
1.079210795e+00,3.37757e-02,9.99999e-01,6.25685e-02,5.39819e-01,9.99999e-01
1.084606849e+00,1.13654e-01,9.99999e-01,2.07993e-01,5.46433e-01,9.99999e-01
1.090029883e+00,2.42727e-01,9.99999e-01,4.38931e-01,5.52995e-01,9.99999e-01
1.095480033e+00,3.72544e-01,9.99999e-01,6.65846e-01,5.59504e-01,9.99999e-01
1.100957433e+00,4.64723e-01,9.99999e-01,8.21126e-01,5.65958e-01,9.99999e-01
1.106462220e+00,5.27570e-01,9.99999e-01,9.21748e-01,5.72358e-01,9.99999e-01
1.111994531e+00,5.61462e-01,9.99999e-01,9.70210e-01,5.78701e-01,9.99999e-01
1.117554504e+00,5.80711e-01,9.99999e-01,9.92690e-01,5.84987e-01,9.99999e-01
1.123142276e+00,5.90934e-01,9.99999e-01,9.99522e-01,5.91216e-01,9.99999e-01
1.128757988e+00,5.97385e-01,9.99999e-01,9.99999e-01,5.97385e-01,9.99999e-01
1.134401778e+00,6.03495e-01,9.99999e-01,9.99999e-01,6.03495e-01,9.99999e-01
1.140073787e+00,6.09546e-01,9.99999e-01,9.99999e-01,6.09546e-01,9.99999e-01
1.145774156e+00,6.15535e-01,9.99999e-01,9.99999e-01,6.15535e-01,9.99999e-01
1.151503026e+00,6.21463e-01,9.99999e-01,9.99999e-01,6.21463e-01,9.99999e-01
1.157260541e+00,6.27330e-01,9.99999e-01,9.99999e-01,6.27330e-01,9.99999e-01
1.163046844e+00,6.33135e-01,9.99999e-01,9.99999e-01,6.33135e-01,9.99999e-01
1.168862078e+00,6.38877e-01,9.99999e-01,9.99999e-01,6.38877e-01,9.99999e-01
1.174706389e+00,6.44556e-01,9.99999e-01,9.99999e-01,6.44556e-01,9.99999e-01
1.180579921e+00,6.50172e-01,9.99999e-01,9.99999e-01,6.50172e-01,9.99999e-01
1.186482820e+00,6.55705e-01,9.99999e-01,9.99970e-01,6.55724e-01,9.99999e-01
1.192415234e+00,6.34421e-01,9.99999e-01,9.59479e-01,6.61213e-01,9.99999e-01
1.198377311e+00,3.43401e-01,9.99999e-01,5.15123e-01,6.66638e-01,9.99999e-01
1.204369197e+00,4.26903e-30,9.99999e-01,6.35272e-30,6.71999e-01,9.99999e-01
1.210391043e+00,6.93913e-122,9.99999e-01,1.02453e-121,6.77296e-01,9.99999e-01
1.216442998e+00,1.80035e-105,9.99999e-01,2.63777e-105,6.82529e-01,9.99999e-01
1.222525213e+00,6.89023e-104,9.99999e-01,1.00193e-103,6.87698e-01,9.99999e-01
1.228637839e+00,3.86160e-80,9.99999e-01,5.57387e-80,6.92802e-01,9.99999e-01
1.234781029e+00,7.46366e-50,9.99999e-01,1.06953e-49,6.97843e-01,9.99999e-01
1.240954934e+00,4.69172e-33,9.99999e-01,6.67556e-33,7.02820e-01,9.99999e-01
1.247159708e+00,6.28090e-16,9.99999e-01,8.87467e-16,7.07733e-01,9.99999e-01
1.253395507e+00,8.14396e-11,9.99999e-01,1.14288e-10,7.12582e-01,9.99999e-01
1.259662485e+00,1.77455e-06,9.99999e-01,2.47369e-06,7.17367e-01,9.99999e-01
1.265960797e+00,6.13466e-04,9.99999e-01,8.49569e-04,7.22089e-01,9.99999e-01
1.272290601e+00,2.60339e-02,9.99999e-01,3.58224e-02,7.26748e-01,9.99999e-01
1.278652054e+00,2.33839e-02,9.99999e-01,3.19738e-02,7.31345e-01,9.99999e-01
1.285045314e+00,2.50563e-05,9.99999e-01,3.40495e-05,7.35878e-01,9.99999e-01
1.291470541e+00,2.16751e-14,9.99999e-01,2.92768e-14,7.40350e-01,9.99999e-01
1.297927893e+00,2.99815e-05,9.99999e-01,4.02566e-05,7.44759e-01,9.99999e-01
1.304417533e+00,1.60501e-03,9.99999e-01,2.14256e-03,7.49107e-01,9.99999e-01
1.310939621e+00,2.98056e-04,9.99999e-01,3.95618e-04,7.53394e-01,9.99999e-01
1.317494319e+00,4.43516e-42,9.99999e-01,5.85407e-42,7.57619e-01,9.99999e-01
1.324081790e+00,2.46534e-19,9.99999e-01,3.23627e-19,7.61785e-01,9.99999e-01
1.330702199e+00,3.54206e-16,9.99999e-01,4.62476e-16,7.65890e-01,9.99999e-01
1.337355710e+00,1.13614e-14,9.99999e-01,1.47563e-14,7.69935e-01,9.99999e-01
1.344042489e+00,1.20345e-17,9.99999e-01,1.55499e-17,7.73922e-01,9.99999e-01
1.350762701e+00,1.81126e-16,9.99999e-01,2.32855e-16,7.77849e-01,9.99999e-01
1.357516515e+00,4.54097e-10,9.99999e-01,5.80896e-10,7.81719e-01,9.99999e-01
1.364304097e+00,2.01940e-07,9.99999e-01,2.57074e-07,7.85531e-01,9.99999e-01
1.371125618e+00,3.51972e-04,9.99999e-01,4.45937e-04,7.89285e-01,9.99999e-01
1.377981246e+00,9.94332e-04,9.99999e-01,1.25391e-03,7.92983e-01,9.99999e-01
1.384871152e+00,1.60571e-02,9.99999e-01,2.01564e-02,7.96624e-01,9.99999e-01
1.391795508e+00,2.21756e-02,9.99999e-01,2.77122e-02,8.00210e-01,9.99999e-01
1.398754485e+00,8.33104e-02,9.99999e-01,1.03653e-01,8.03741e-01,9.99999e-01
1.405748258e+00,1.55571e-01,9.99999e-01,1.92725e-01,8.07217e-01,9.99999e-01
1.412776999e+00,2.84201e-01,9.99999e-01,3.50589e-01,8.10639e-01,9.99999e-01
1.419840884e+00,2.63525e-01,9.99999e-01,3.23737e-01,8.14007e-01,9.99999e-01
1.426940089e+00,9.53436e-03,9.99998e-01,1.16653e-02,8.17323e-01,9.99999e-01
1.434074789e+00,0.00000e+00,9.99999e-01,0.00000e+00,8.20586e-01,9.99999e-01
1.441245163e+00,0.00000e+00,9.99999e-01,0.00000e+00,8.23797e-01,9.99999e-01
1.448451389e+00,0.00000e+00,9.99998e-01,0.00000e+00,8.26957e-01,9.99999e-01
1.455693646e+00,0.00000e+00,9.99999e-01,0.00000e+00,8.30066e-01,9.99999e-01
1.462972114e+00,0.00000e+00,9.99999e-01,0.00000e+00,8.33126e-01,9.99999e-01
1.470286975e+00,4.90938e-202,9.99999e-01,5.87151e-202,8.36136e-01,9.99999e-01
