#,Wave/freq,Total,N2,CO2,Rayleigh,CIA
4.000000000e-01,1.20250e-03,9.99999e-01,9.99999e-01,1.20250e-03,9.99999e-01
4.020000000e-01,1.37348e-03,9.99999e-01,9.99999e-01,1.37348e-03,9.99999e-01
4.040100000e-01,1.56443e-03,9.99999e-01,9.99999e-01,1.56443e-03,9.99999e-01
4.060300500e-01,1.77736e-03,9.99999e-01,9.99999e-01,1.77736e-03,9.99999e-01
4.080602003e-01,2.01418e-03,9.99999e-01,9.99999e-01,2.01418e-03,9.99999e-01
4.101005013e-01,2.27693e-03,9.99999e-01,9.99999e-01,2.27693e-03,9.99999e-01
4.121510038e-01,2.56772e-03,9.99999e-01,9.99999e-01,2.56772e-03,9.99999e-01
4.142117588e-01,2.88879e-03,9.99999e-01,9.99999e-01,2.88879e-03,9.99999e-01
4.162828176e-01,3.24245e-03,9.99999e-01,9.99999e-01,3.24245e-03,9.99999e-01
4.183642317e-01,3.63111e-03,9.99999e-01,9.99999e-01,3.63111e-03,9.99999e-01
4.204560528e-01,4.05728e-03,9.99999e-01,9.99999e-01,4.05728e-03,9.99999e-01
4.225583331e-01,4.52353e-03,9.99999e-01,9.99999e-01,4.52353e-03,9.99999e-01
4.246711247e-01,5.03255e-03,9.99999e-01,9.99999e-01,5.03255e-03,9.99999e-01
4.267944804e-01,5.58706e-03,9.99999e-01,9.99999e-01,5.58706e-03,9.99999e-01
4.289284528e-01,6.18988e-03,9.99999e-01,9.99999e-01,6.18988e-03,9.99999e-01
4.310730950e-01,6.84387e-03,9.99999e-01,9.99999e-01,6.84387e-03,9.99999e-01
4.332284605e-01,7.55196e-03,9.99999e-01,9.99999e-01,7.55196e-03,9.99999e-01
4.353946028e-01,8.31713e-03,9.99999e-01,9.99999e-01,8.31713e-03,9.99999e-01
4.375715758e-01,9.14238e-03,9.99999e-01,9.99999e-01,9.14238e-03,9.99999e-01
4.397594337e-01,1.00307e-02,9.99999e-01,9.99999e-01,1.00307e-02,9.99999e-01
4.419582309e-01,1.09853e-02,9.99999e-01,9.99999e-01,1.09853e-02,9.99999e-01
4.441680220e-01,1.20091e-02,9.99999e-01,9.99999e-01,1.20091e-02,9.99999e-01
4.463888621e-01,1.31052e-02,9.99999e-01,9.99999e-01,1.31052e-02,9.99999e-01
4.486208064e-01,1.42768e-02,9.99999e-01,9.99999e-01,1.42768e-02,9.99999e-01
4.508639105e-01,1.55268e-02,9.99999e-01,9.99999e-01,1.55268e-02,9.99999e-01
4.531182300e-01,1.68582e-02,9.99999e-01,9.99999e-01,1.68582e-02,9.99999e-01
4.553838212e-01,1.82741e-02,9.99999e-01,9.99999e-01,1.82741e-02,9.99999e-01
4.576607403e-01,1.97774e-02,9.99999e-01,9.99999e-01,1.97774e-02,9.99999e-01
4.599490440e-01,2.13710e-02,9.99999e-01,9.99999e-01,2.13710e-02,9.99999e-01
4.622487892e-01,2.30576e-02,9.99999e-01,9.99999e-01,2.30576e-02,9.99999e-01
4.645600332e-01,2.48401e-02,9.99999e-01,9.99999e-01,2.48401e-02,9.99999e-01
4.668828333e-01,2.67210e-02,9.99999e-01,9.99999e-01,2.67210e-02,9.99999e-01
4.692172475e-01,2.87029e-02,9.99999e-01,9.99999e-01,2.87029e-02,9.99999e-01
4.715633337e-01,3.07883e-02,9.99999e-01,9.99999e-01,3.07883e-02,9.99999e-01
4.739211504e-01,3.29795e-02,9.99999e-01,9.99999e-01,3.29795e-02,9.99999e-01
4.762907561e-01,3.52787e-02,9.99999e-01,9.99999e-01,3.52787e-02,9.99999e-01
4.786722099e-01,3.76880e-02,9.99999e-01,9.99999e-01,3.76880e-02,9.99999e-01
4.810655710e-01,4.02093e-02,9.99999e-01,9.99999e-01,4.02093e-02,9.99999e-01
4.834708988e-01,4.28444e-02,9.99999e-01,9.99999e-01,4.28444e-02,9.99999e-01
4.858882533e-01,4.55950e-02,9.99999e-01,9.99999e-01,4.55950e-02,9.99999e-01
4.883176946e-01,4.84627e-02,9.99999e-01,9.99999e-01,4.84627e-02,9.99999e-01
4.907592831e-01,5.14486e-02,9.99999e-01,9.99999e-01,5.14486e-02,9.99999e-01
4.932130795e-01,5.45541e-02,9.99999e-01,9.99999e-01,5.45541e-02,9.99999e-01
4.956791449e-01,5.77801e-02,9.99999e-01,9.99999e-01,5.77801e-02,9.99999e-01
4.981575406e-01,6.11274e-02,9.99999e-01,9.99999e-01,6.11274e-02,9.99999e-01
5.006483283e-01,6.45968e-02,9.99999e-01,9.99999e-01,6.45968e-02,9.99999e-01
5.031515699e-01,6.81887e-02,9.99999e-01,9.99999e-01,6.81887e-02,9.99999e-01
5.056673278e-01,7.19034e-02,9.99999e-01,9.99999e-01,7.19034e-02,9.99999e-01
5.081956644e-01,7.57410e-02,9.99999e-01,9.99999e-01,7.57410e-02,9.99999e-01
5.107366428e-01,7.97016e-02,9.99999e-01,9.99999e-01,7.97016e-02,9.99999e-01
5.132903260e-01,8.37849e-02,9.99999e-01,9.99999e-01,8.37849e-02,9.99999e-01
5.158567776e-01,8.79906e-02,9.99999e-01,9.99999e-01,8.79906e-02,9.99999e-01
5.184360615e-01,9.23179e-02,9.99999e-01,9.99999e-01,9.23179e-02,9.99999e-01
5.210282418e-01,9.67663e-02,9.99999e-01,9.99999e-01,9.67663e-02,9.99999e-01
5.236333830e-01,1.01335e-01,9.99999e-01,9.99999e-01,1.01335e-01,9.99999e-01
5.262515499e-01,1.06022e-01,9.99999e-01,9.99999e-01,1.06022e-01,9.99999e-01
5.288828077e-01,1.10828e-01,9.99999e-01,9.99999e-01,1.10828e-01,9.99999e-01
5.315272217e-01,1.15749e-01,9.99999e-01,9.99999e-01,1.15749e-01,9.99999e-01
5.341848578e-01,1.20786e-01,9.99999e-01,9.99999e-01,1.20786e-01,9.99999e-01
5.368557821e-01,1.25936e-01,9.99999e-01,9.99999e-01,1.25936e-01,9.99999e-01
5.395400610e-01,1.31197e-01,9.99999e-01,9.99999e-01,1.31197e-01,9.99999e-01
5.422377613e-01,1.36567e-01,9.99999e-01,9.99999e-01,1.36567e-01,9.99999e-01
5.449489501e-01,1.42045e-01,9.99999e-01,9.99999e-01,1.42045e-01,9.99999e-01
5.476736949e-01,1.47627e-01,9.99999e-01,9.99999e-01,1.47627e-01,9.99999e-01
5.504120634e-01,1.53313e-01,9.99999e-01,9.99999e-01,1.53313e-01,9.99999e-01
5.531641237e-01,1.59098e-01,9.99999e-01,9.99999e-01,1.59098e-01,9.99999e-01
5.559299443e-01,1.64981e-01,9.99999e-01,9.99999e-01,1.64981e-01,9.99999e-01
5.587095940e-01,1.70959e-01,9.99999e-01,9.99999e-01,1.70959e-01,9.99999e-01
5.615031420e-01,1.77029e-01,9.99999e-01,9.99999e-01,1.77029e-01,9.99999e-01
5.643106577e-01,1.83188e-01,9.99999e-01,9.99999e-01,1.83188e-01,9.99999e-01
5.671322110e-01,1.89433e-01,9.99999e-01,9.99999e-01,1.89433e-01,9.99999e-01
5.699678720e-01,1.95762e-01,9.99999e-01,9.99999e-01,1.95762e-01,9.99999e-01
5.728177114e-01,2.02171e-01,9.99999e-01,9.99999e-01,2.02171e-01,9.99999e-01
5.756818000e-01,2.08657e-01,9.99999e-01,9.99999e-01,2.08657e-01,9.99999e-01
5.785602090e-01,2.15216e-01,9.99999e-01,9.99999e-01,2.15216e-01,9.99999e-01
5.814530100e-01,2.21847e-01,9.99999e-01,9.99999e-01,2.21847e-01,9.99999e-01
5.843602750e-01,2.28544e-01,9.99999e-01,9.99999e-01,2.28544e-01,9.99999e-01
5.872820764e-01,2.35305e-01,9.99999e-01,9.99999e-01,2.35305e-01,9.99999e-01
5.902184868e-01,2.42127e-01,9.99999e-01,9.99999e-01,2.42127e-01,9.99999e-01
5.931695792e-01,2.49006e-01,9.99999e-01,9.99999e-01,2.49006e-01,9.99999e-01
5.961354271e-01,2.55939e-01,9.99999e-01,9.99999e-01,2.55939e-01,9.99999e-01
5.991161043e-01,2.62922e-01,9.99999e-01,9.99999e-01,2.62922e-01,9.99999e-01
6.021116848e-01,2.69952e-01,9.99999e-01,9.99999e-01,2.69952e-01,9.99999e-01
6.051222432e-01,2.77026e-01,9.99999e-01,9.99999e-01,2.77026e-01,9.99999e-01
6.081478544e-01,2.84140e-01,9.99999e-01,9.99999e-01,2.84140e-01,9.99999e-01
6.111885937e-01,2.91290e-01,9.99999e-01,9.99999e-01,2.91290e-01,9.99999e-01
6.142445367e-01,2.98474e-01,9.99999e-01,9.99999e-01,2.98474e-01,9.99999e-01
6.173157594e-01,3.05688e-01,9.99999e-01,9.99999e-01,3.05688e-01,9.99999e-01
6.204023382e-01,3.12929e-01,9.99999e-01,9.99999e-01,3.12929e-01,9.99999e-01
6.235043498e-01,3.20193e-01,9.99999e-01,9.99999e-01,3.20193e-01,9.99999e-01
6.266218716e-01,3.27478e-01,9.99999e-01,9.99999e-01,3.27478e-01,9.99999e-01
6.297549810e-01,3.34779e-01,9.99999e-01,9.99999e-01,3.34779e-01,9.99999e-01
6.329037559e-01,3.42094e-01,9.99999e-01,9.99999e-01,3.42094e-01,9.99999e-01
6.360682746e-01,3.49419e-01,9.99999e-01,9.99999e-01,3.49419e-01,9.99999e-01
6.392486160e-01,3.56752e-01,9.99999e-01,9.99999e-01,3.56752e-01,9.99999e-01
6.424448591e-01,3.64090e-01,9.99999e-01,9.99999e-01,3.64090e-01,9.99999e-01
6.456570834e-01,3.71429e-01,9.99999e-01,9.99999e-01,3.71429e-01,9.99999e-01
6.488853688e-01,3.78767e-01,9.99999e-01,9.99999e-01,3.78767e-01,9.99999e-01
6.521297956e-01,3.86100e-01,9.99999e-01,9.99999e-01,3.86100e-01,9.99999e-01
6.553904446e-01,3.93427e-01,9.99999e-01,9.99999e-01,3.93427e-01,9.99999e-01
6.586673968e-01,4.00743e-01,9.99999e-01,9.99999e-01,4.00743e-01,9.99999e-01
6.619607338e-01,4.08047e-01,9.99999e-01,9.99999e-01,4.08047e-01,9.99999e-01
6.652705375e-01,4.15336e-01,9.99999e-01,9.99999e-01,4.15336e-01,9.99999e-01
6.685968902e-01,4.22608e-01,9.99999e-01,9.99999e-01,4.22608e-01,9.99999e-01
6.719398746e-01,4.29859e-01,9.99999e-01,9.99999e-01,4.29859e-01,9.99999e-01
6.752995740e-01,4.37088e-01,9.99999e-01,9.99999e-01,4.37088e-01,9.99999e-01
6.786760719e-01,4.44292e-01,9.99999e-01,9.99999e-01,4.44292e-01,9.99999e-01
6.820694522e-01,4.51469e-01,9.99999e-01,9.99999e-01,4.51469e-01,9.99999e-01
6.854797995e-01,4.58617e-01,9.99999e-01,9.99999e-01,4.58617e-01,9.99999e-01
6.889071985e-01,4.65733e-01,9.99999e-01,9.99999e-01,4.65733e-01,9.99999e-01
6.923517345e-01,4.72816e-01,9.99999e-01,9.99999e-01,4.72816e-01,9.99999e-01
6.958134932e-01,4.79864e-01,9.99999e-01,9.99999e-01,4.79864e-01,9.99999e-01
6.992925606e-01,4.86874e-01,9.99999e-01,9.99999e-01,4.86874e-01,9.99999e-01
7.027890234e-01,4.93845e-01,9.99999e-01,9.99999e-01,4.93845e-01,9.99999e-01
7.063029686e-01,5.00776e-01,9.99999e-01,9.99999e-01,5.00776e-01,9.99999e-01
7.098344834e-01,5.07664e-01,9.99999e-01,9.99999e-01,5.07664e-01,9.99999e-01
7.133836558e-01,5.14507e-01,9.99999e-01,9.99999e-01,5.14507e-01,9.99999e-01
7.169505741e-01,5.21306e-01,9.99999e-01,9.99999e-01,5.21306e-01,9.99999e-01
7.205353270e-01,5.28057e-01,9.99999e-01,9.99999e-01,5.28057e-01,9.99999e-01
7.241380036e-01,5.34759e-01,9.99999e-01,9.99999e-01,5.34759e-01,9.99999e-01
7.277586936e-01,5.41412e-01,9.99999e-01,9.99999e-01,5.41412e-01,9.99999e-01
7.313974871e-01,5.48013e-01,9.99999e-01,9.99999e-01,5.48013e-01,9.99999e-01
7.350544745e-01,5.54563e-01,9.99999e-01,9.99999e-01,5.54563e-01,9.99999e-01
7.387297469e-01,5.61059e-01,9.99999e-01,9.99999e-01,5.61059e-01,9.99999e-01
7.424233956e-01,5.67500e-01,9.99999e-01,9.99999e-01,5.67500e-01,9.99999e-01
7.461355126e-01,5.73886e-01,9.99999e-01,9.99999e-01,5.73886e-01,9.99999e-01
7.498661902e-01,5.80216e-01,9.99999e-01,9.99999e-01,5.80216e-01,9.99999e-01
7.536155211e-01,5.86488e-01,9.99999e-01,9.99999e-01,5.86488e-01,9.99999e-01
7.573835987e-01,5.92702e-01,9.99999e-01,9.99999e-01,5.92702e-01,9.99999e-01
7.611705167e-01,5.98858e-01,9.99999e-01,9.99999e-01,5.98858e-01,9.99999e-01
7.649763693e-01,6.04954e-01,9.99999e-01,9.99999e-01,6.04954e-01,9.99999e-01
7.688012511e-01,6.10989e-01,9.99999e-01,9.99999e-01,6.10989e-01,9.99999e-01
7.726452574e-01,6.16964e-01,9.99999e-01,9.99999e-01,6.16964e-01,9.99999e-01
7.765084837e-01,6.22878e-01,9.99999e-01,9.99999e-01,6.22878e-01,9.99999e-01
7.803910261e-01,6.15015e-01,9.99999e-01,9.78186e-01,6.28730e-01,9.99999e-01
7.842929812e-01,5.75377e-01,9.99999e-01,9.06792e-01,6.34519e-01,9.99999e-01
7.882144461e-01,5.76648e-01,9.99999e-01,9.00666e-01,6.40246e-01,9.99999e-01
7.921555184e-01,6.08100e-01,9.99999e-01,9.41462e-01,6.45910e-01,9.99999e-01
7.961162960e-01,6.25666e-01,9.99999e-01,9.60330e-01,6.51511e-01,9.99999e-01
8.000968774e-01,6.42811e-01,9.99999e-01,9.78332e-01,6.57048e-01,9.99999e-01
8.040973618e-01,6.55032e-01,9.99999e-01,9.88694e-01,6.62522e-01,9.99999e-01
8.081178486e-01,6.64465e-01,9.99999e-01,9.94809e-01,6.67931e-01,9.99999e-01
8.121584379e-01,6.72191e-01,9.99999e-01,9.98386e-01,6.73277e-01,9.99999e-01
8.162192301e-01,6.78317e-01,9.99999e-01,9.99643e-01,6.78559e-01,9.99999e-01
8.203003262e-01,6.83772e-01,9.99999e-01,9.99993e-01,6.83776e-01,9.99999e-01
8.244018279e-01,6.88929e-01,9.99999e-01,9.99999e-01,6.88929e-01,9.99999e-01
8.285238370e-01,6.94019e-01,9.99999e-01,9.99999e-01,6.94019e-01,9.99999e-01
8.326664562e-01,6.99044e-01,9.99999e-01,9.99999e-01,6.99044e-01,9.99999e-01
8.368297885e-01,7.04005e-01,9.99999e-01,9.99999e-01,7.04005e-01,9.99999e-01
8.410139374e-01,7.08903e-01,9.99999e-01,9.99999e-01,7.08903e-01,9.99999e-01
8.452190071e-01,7.13737e-01,9.99999e-01,9.99999e-01,7.13737e-01,9.99999e-01
8.494451021e-01,7.18507e-01,9.99999e-01,9.99999e-01,7.18507e-01,9.99999e-01
8.536923276e-01,7.23214e-01,9.99999e-01,9.99999e-01,7.23214e-01,9.99999e-01
8.579607893e-01,7.27858e-01,9.99999e-01,9.99999e-01,7.27858e-01,9.99999e-01
8.622505932e-01,7.32439e-01,9.99999e-01,9.99999e-01,7.32439e-01,9.99999e-01
8.665618462e-01,6.96692e-01,9.99999e-01,9.45362e-01,7.36958e-01,9.99999e-01
8.708946554e-01,5.77208e-01,9.99999e-01,7.78522e-01,7.41414e-01,9.99999e-01
8.752491287e-01,6.10393e-01,9.99999e-01,8.18430e-01,7.45809e-01,9.99999e-01
8.796253743e-01,6.72458e-01,9.99999e-01,8.96440e-01,7.50142e-01,9.99999e-01
8.840235012e-01,7.12999e-01,9.99999e-01,9.45103e-01,7.54414e-01,9.99999e-01
8.884436187e-01,7.41917e-01,9.99999e-01,9.77975e-01,7.58625e-01,9.99999e-01
8.928858368e-01,7.55942e-01,9.99999e-01,9.91040e-01,7.62776e-01,9.99999e-01
8.973502660e-01,7.65187e-01,9.99999e-01,9.97809e-01,7.66867e-01,9.99999e-01
9.018370173e-01,7.70712e-01,9.99999e-01,9.99757e-01,7.70898e-01,9.99999e-01
9.063462024e-01,7.70148e-01,9.99999e-01,9.93905e-01,7.74870e-01,9.99999e-01
9.108779334e-01,7.67807e-01,9.99999e-01,9.85904e-01,7.78784e-01,9.99999e-01
9.154323231e-01,7.80024e-01,9.99999e-01,9.96657e-01,7.82639e-01,9.99999e-01
9.200094847e-01,7.48713e-01,9.99999e-01,9.52030e-01,7.86437e-01,9.99999e-01
9.246095321e-01,7.37108e-01,9.99999e-01,9.32837e-01,7.90178e-01,9.99999e-01
9.292325798e-01,7.51883e-01,9.99999e-01,9.47119e-01,7.93862e-01,9.99999e-01
9.338787427e-01,7.56537e-01,9.99999e-01,9.48646e-01,7.97490e-01,9.99999e-01
9.385481364e-01,7.70684e-01,9.99999e-01,9.62076e-01,8.01063e-01,9.99999e-01
9.432408771e-01,7.85748e-01,9.99999e-01,9.76593e-01,8.04580e-01,9.99999e-01
9.479570815e-01,7.98304e-01,9.99999e-01,9.87945e-01,8.08043e-01,9.99999e-01
9.526968669e-01,8.06717e-01,9.99999e-01,9.94163e-01,8.11452e-01,9.99999e-01
9.574603512e-01,8.12771e-01,9.99999e-01,9.97499e-01,8.14808e-01,9.99999e-01
9.622476530e-01,8.17472e-01,9.99999e-01,9.99219e-01,8.18111e-01,9.99999e-01
9.670588912e-01,8.21169e-01,9.99999e-01,9.99765e-01,8.21362e-01,9.99999e-01
9.718941857e-01,8.24547e-01,9.99999e-01,9.99982e-01,8.24561e-01,9.99999e-01
9.767536566e-01,8.27708e-01,9.99999e-01,9.99999e-01,8.27708e-01,9.99999e-01
9.816374249e-01,8.30806e-01,9.99999e-01,9.99999e-01,8.30806e-01,9.99999e-01
9.865456120e-01,8.33853e-01,9.99999e-01,9.99999e-01,8.33853e-01,9.99999e-01
9.914783401e-01,8.36851e-01,9.99999e-01,9.99999e-01,8.36851e-01,9.99999e-01
9.964357318e-01,8.39800e-01,9.99999e-01,9.99999e-01,8.39800e-01,9.99999e-01
1.001417910e+00,8.42702e-01,9.99999e-01,9.99999e-01,8.42702e-01,9.99999e-01
1.006425000e+00,8.45555e-01,9.99999e-01,9.99999e-01,8.45555e-01,9.99999e-01
1.011457125e+00,8.48362e-01,9.99999e-01,9.99999e-01,8.48362e-01,9.99999e-01
1.016514411e+00,8.51122e-01,9.99999e-01,9.99999e-01,8.51122e-01,9.99999e-01
1.021596983e+00,8.53810e-01,9.99999e-01,9.99969e-01,8.53836e-01,9.99999e-01
1.026704968e+00,8.54477e-01,9.99999e-01,9.97631e-01,8.56505e-01,9.99999e-01
1.031838492e+00,8.32610e-01,9.99999e-01,9.69131e-01,8.59130e-01,9.99999e-01
1.036997685e+00,1.97525e-01,9.99999e-01,2.29224e-01,8.61710e-01,9.99999e-01
1.042182673e+00,2.13143e-01,9.99999e-01,2.46623e-01,8.64247e-01,9.99999e-01
1.047393587e+00,2.14127e-01,9.99999e-01,2.47048e-01,8.66742e-01,9.99999e-01
1.052630555e+00,1.88306e-02,9.99999e-01,2.16644e-02,8.69193e-01,9.99999e-01
1.057893707e+00,3.90749e-02,9.99999e-01,4.48310e-02,8.71604e-01,9.99999e-01
1.063183176e+00,9.09466e-02,9.99999e-01,1.04061e-01,8.73973e-01,9.99999e-01
1.068499092e+00,1.89823e-01,9.99999e-01,2.16618e-01,8.76301e-01,9.99999e-01
1.073841587e+00,3.34135e-01,9.99999e-01,3.80308e-01,8.78590e-01,9.99999e-01
1.079210795e+00,4.78327e-01,9.99999e-01,5.43035e-01,8.80839e-01,9.99999e-01
1.084606849e+00,6.32051e-01,9.99999e-01,7.15759e-01,8.83049e-01,9.99999e-01
1.090029883e+00,7.44487e-01,9.99999e-01,8.41017e-01,8.85221e-01,9.99999e-01
1.095480033e+00,8.14785e-01,9.99999e-01,9.18216e-01,8.87356e-01,9.99999e-01
1.100957433e+00,8.53677e-01,9.99999e-01,9.59777e-01,8.89453e-01,9.99999e-01
1.106462220e+00,8.76501e-01,9.99999e-01,9.83160e-01,8.91513e-01,9.99999e-01
1.111994531e+00,8.87933e-01,9.99999e-01,9.93727e-01,8.93538e-01,9.99999e-01
1.117554504e+00,8.94149e-01,9.99999e-01,9.98461e-01,8.95527e-01,9.99999e-01
1.123142276e+00,8.97390e-01,9.99999e-01,9.99898e-01,8.97481e-01,9.99999e-01
1.128757988e+00,8.99400e-01,9.99999e-01,9.99999e-01,8.99400e-01,9.99999e-01
1.134401778e+00,9.01286e-01,9.99999e-01,9.99999e-01,9.01286e-01,9.99999e-01
1.140073787e+00,9.03138e-01,9.99999e-01,9.99999e-01,9.03138e-01,9.99999e-01
1.145774156e+00,9.04957e-01,9.99999e-01,9.99999e-01,9.04957e-01,9.99999e-01
1.151503026e+00,9.06744e-01,9.99999e-01,9.99999e-01,9.06744e-01,9.99999e-01
1.157260541e+00,9.08499e-01,9.99999e-01,9.99999e-01,9.08499e-01,9.99999e-01
1.163046844e+00,9.10223e-01,9.99999e-01,9.99999e-01,9.10223e-01,9.99999e-01
1.168862078e+00,9.11916e-01,9.99999e-01,9.99999e-01,9.11916e-01,9.99999e-01
1.174706389e+00,9.13578e-01,9.99999e-01,9.99999e-01,9.13578e-01,9.99999e-01
1.180579921e+00,9.15210e-01,9.99999e-01,9.99999e-01,9.15210e-01,9.99999e-01
1.186482820e+00,9.16810e-01,9.99999e-01,9.99995e-01,9.16814e-01,9.99999e-01
1.192415234e+00,9.10623e-01,9.99999e-01,9.91544e-01,9.18388e-01,9.99999e-01
1.198377311e+00,5.29178e-01,9.99999e-01,5.75234e-01,9.19933e-01,9.99999e-01
1.204369197e+00,5.59163e-08,9.99999e-01,6.06828e-08,9.21451e-01,9.99999e-01
1.210391043e+00,7.27305e-27,9.99999e-01,7.88029e-27,9.22941e-01,9.99999e-01
1.216442998e+00,1.73566e-23,9.99999e-01,1.87759e-23,9.24404e-01,9.99999e-01
1.222525213e+00,3.71961e-23,9.99999e-01,4.01755e-23,9.25841e-01,9.99999e-01
1.228637839e+00,6.98796e-18,9.99999e-01,7.53620e-18,9.27251e-01,9.99999e-01
1.234781029e+00,4.86117e-12,9.99999e-01,5.23474e-12,9.28635e-01,9.99999e-01
1.240954934e+00,3.47755e-08,9.99999e-01,3.73932e-08,9.29994e-01,9.99999e-01
1.247159708e+00,7.28353e-05,9.99999e-01,7.82058e-05,9.31328e-01,9.99999e-01
1.253395507e+00,4.43633e-03,9.99999e-01,4.75675e-03,9.32638e-01,9.99999e-01
1.259662485e+00,4.42397e-02,9.99999e-01,4.73697e-02,9.33924e-01,9.99999e-01
1.265960797e+00,1.58875e-01,9.99999e-01,1.69886e-01,9.35185e-01,9.99999e-01
1.272290601e+00,4.24364e-01,9.99999e-01,4.53175e-01,9.36424e-01,9.99999e-01
1.278652054e+00,3.94685e-01,9.99999e-01,4.20934e-01,9.37640e-01,9.99999e-01
1.285045314e+00,2.19457e-02,9.99999e-01,2.33755e-02,9.38833e-01,9.99999e-01
1.291470541e+00,7.44633e-04,9.99999e-01,7.92159e-04,9.40004e-01,9.99999e-01
1.297927893e+00,2.02164e-02,9.99999e-01,2.14804e-02,9.41154e-01,9.99999e-01
1.304417533e+00,2.49098e-01,9.99999e-01,2.64356e-01,9.42282e-01,9.99999e-01
1.310939621e+00,6.73232e-02,9.99999e-01,7.13631e-02,9.43389e-01,9.99999e-01
1.317494319e+00,1.05818e-09,9.99999e-01,1.12039e-09,9.44476e-01,9.99999e-01
1.324081790e+00,5.43109e-07,9.99999e-01,5.74389e-07,9.45542e-01,9.99999e-01
1.330702199e+00,3.95496e-04,9.99999e-01,4.17811e-04,9.46588e-01,9.99999e-01
1.337355710e+00,3.26487e-04,9.99999e-01,3.44535e-04,9.47615e-01,9.99999e-01
1.344042489e+00,1.01855e-04,9.99999e-01,1.07371e-04,9.48623e-01,9.99999e-01
1.350762701e+00,2.78633e-04,9.99999e-01,2.93418e-04,9.49612e-01,9.99999e-01
1.357516515e+00,4.65724e-03,9.99999e-01,4.89935e-03,9.50582e-01,9.99999e-01
1.364304097e+00,3.32039e-02,9.99999e-01,3.48951e-02,9.51534e-01,9.99999e-01
1.371125618e+00,1.62501e-01,9.99999e-01,1.70610e-01,9.52468e-01,9.99999e-01
1.377981246e+00,2.29983e-01,9.99999e-01,2.41228e-01,9.53385e-01,9.99999e-01
1.384871152e+00,4.16892e-01,9.99999e-01,4.36863e-01,9.54284e-01,9.99999e-01
1.391795508e+00,4.44462e-01,9.99999e-01,4.65323e-01,9.55167e-01,9.99999e-01
1.398754485e+00,5.97114e-01,9.99999e-01,6.24575e-01,9.56032e-01,9.99999e-01
1.405748258e+00,6.76063e-01,9.99999e-01,7.06527e-01,9.56882e-01,9.99999e-01
1.412776999e+00,7.69210e-01,9.99999e-01,8.03172e-01,9.57715e-01,9.99999e-01
1.419840884e+00,7.06668e-01,9.99999e-01,7.37239e-01,9.58533e-01,9.99999e-01
1.426940089e+00,8.48852e-02,9.99999e-01,8.84833e-02,9.59335e-01,9.99999e-01
1.434074789e+00,0.00000e+00,9.99999e-01,0.00000e+00,9.60122e-01,9.99999e-01
1.441245163e+00,0.00000e+00,9.99999e-01,0.00000e+00,9.60894e-01,9.99999e-01
1.448451389e+00,0.00000e+00,9.99999e-01,0.00000e+00,9.61651e-01,9.99999e-01
1.455693646e+00,5.67242e-210,9.99999e-01,5.89406e-210,9.62395e-01,9.99999e-01
1.462972114e+00,3.72912e-102,9.99999e-01,3.87190e-102,9.63123e-01,9.99999e-01
1.470286975e+00,2.33554e-43,9.99999e-01,2.42316e-43,9.63838e-01,9.99999e-01
