#,Wave/freq,Total,N2,CO2,Rayleigh,CIA
4.000000000e-01,3.54176e-05,9.99999e-01,9.99999e-01,3.54176e-05,9.99999e-01
4.020000000e-01,4.33734e-05,9.99999e-01,9.99999e-01,4.33734e-05,9.99999e-01
4.040100000e-01,5.28932e-05,9.99999e-01,9.99999e-01,5.28932e-05,9.99999e-01
4.060300500e-01,6.42500e-05,9.99999e-01,9.99999e-01,6.42500e-05,9.99999e-01
4.080602003e-01,7.77460e-05,9.99999e-01,9.99999e-01,7.77460e-05,9.99999e-01
4.101005013e-01,9.37232e-05,9.99999e-01,9.99999e-01,9.37232e-05,9.99999e-01
4.121510038e-01,1.12568e-04,9.99999e-01,9.99999e-01,1.12568e-04,9.99999e-01
4.142117588e-01,1.34712e-04,9.99999e-01,9.99999e-01,1.34712e-04,9.99999e-01
4.162828176e-01,1.60643e-04,9.99999e-01,9.99999e-01,1.60643e-04,9.99999e-01
4.183642317e-01,1.90900e-04,9.99999e-01,9.99999e-01,1.90900e-04,9.99999e-01
4.204560528e-01,2.26083e-04,9.99999e-01,9.99999e-01,2.26083e-04,9.99999e-01
4.225583331e-01,2.66858e-04,9.99999e-01,9.99999e-01,2.66858e-04,9.99999e-01
4.246711247e-01,3.13957e-04,9.99999e-01,9.99999e-01,3.13957e-04,9.99999e-01
4.267944804e-01,3.68185e-04,9.99999e-01,9.99999e-01,3.68185e-04,9.99999e-01
4.289284528e-01,4.30422e-04,9.99999e-01,9.99999e-01,4.30422e-04,9.99999e-01
4.310730950e-01,5.01630e-04,9.99999e-01,9.99999e-01,5.01630e-04,9.99999e-01
4.332284605e-01,5.82853e-04,9.99999e-01,9.99999e-01,5.82853e-04,9.99999e-01
4.353946028e-01,6.75223e-04,9.99999e-01,9.99999e-01,6.75223e-04,9.99999e-01
4.375715758e-01,7.79962e-04,9.99999e-01,9.99999e-01,7.79962e-04,9.99999e-01
4.397594337e-01,8.98385e-04,9.99999e-01,9.99999e-01,8.98385e-04,9.99999e-01
4.419582309e-01,1.03190e-03,9.99999e-01,9.99999e-01,1.03190e-03,9.99999e-01
4.441680220e-01,1.18203e-03,9.99999e-01,9.99999e-01,1.18203e-03,9.99999e-01
4.463888621e-01,1.35036e-03,9.99999e-01,9.99999e-01,1.35036e-03,9.99999e-01
4.486208064e-01,1.53862e-03,9.99999e-01,9.99999e-01,1.53862e-03,9.99999e-01
4.508639105e-01,1.74861e-03,9.99999e-01,9.99999e-01,1.74861e-03,9.99999e-01
4.531182300e-01,1.98224e-03,9.99999e-01,9.99999e-01,1.98224e-03,9.99999e-01
4.553838212e-01,2.24152e-03,9.99999e-01,9.99999e-01,2.24152e-03,9.99999e-01
4.576607403e-01,2.52858e-03,9.99999e-01,9.99999e-01,2.52858e-03,9.99999e-01
4.599490440e-01,2.84562e-03,9.99999e-01,9.99999e-01,2.84562e-03,9.99999e-01
4.622487892e-01,3.19494e-03,9.99999e-01,9.99999e-01,3.19494e-03,9.99999e-01
4.645600332e-01,3.57895e-03,9.99999e-01,9.99999e-01,3.57895e-03,9.99999e-01
4.668828333e-01,4.00014e-03,9.99999e-01,9.99999e-01,4.00014e-03,9.99999e-01
4.692172475e-01,4.46108e-03,9.99999e-01,9.99999e-01,4.46108e-03,9.99999e-01
4.715633337e-01,4.96443e-03,9.99999e-01,9.99999e-01,4.96443e-03,9.99999e-01
4.739211504e-01,5.51292e-03,9.99999e-01,9.99999e-01,5.51292e-03,9.99999e-01
4.762907561e-01,6.10935e-03,9.99999e-01,9.99999e-01,6.10935e-03,9.99999e-01
4.786722099e-01,6.75658e-03,9.99999e-01,9.99999e-01,6.75658e-03,9.99999e-01
4.810655710e-01,7.45754e-03,9.99999e-01,9.99999e-01,7.45754e-03,9.99999e-01
4.834708988e-01,8.21518e-03,9.99999e-01,9.99999e-01,8.21518e-03,9.99999e-01
4.858882533e-01,9.03251e-03,9.99999e-01,9.99999e-01,9.03251e-03,9.99999e-01
4.883176946e-01,9.91257e-03,9.99999e-01,9.99999e-01,9.91257e-03,9.99999e-01
4.907592831e-01,1.08584e-02,9.99999e-01,9.99999e-01,1.08584e-02,9.99999e-01
4.932130795e-01,1.18731e-02,9.99999e-01,9.99999e-01,1.18731e-02,9.99999e-01
4.956791449e-01,1.29598e-02,9.99999e-01,9.99999e-01,1.29598e-02,9.99999e-01
4.981575406e-01,1.41214e-02,9.99999e-01,9.99999e-01,1.41214e-02,9.99999e-01
5.006483283e-01,1.53611e-02,9.99999e-01,9.99999e-01,1.53611e-02,9.99999e-01
5.031515699e-01,1.66819e-02,9.99999e-01,9.99999e-01,1.66819e-02,9.99999e-01
5.056673278e-01,1.80867e-02,9.99999e-01,9.99999e-01,1.80867e-02,9.99999e-01
5.081956644e-01,1.95786e-02,9.99999e-01,9.99999e-01,1.95786e-02,9.99999e-01
5.107366428e-01,2.11604e-02,9.99999e-01,9.99999e-01,2.11604e-02,9.99999e-01
5.132903260e-01,2.28349e-02,9.99999e-01,9.99999e-01,2.28349e-02,9.99999e-01
5.158567776e-01,2.46048e-02,9.99999e-01,9.99999e-01,2.46048e-02,9.99999e-01
5.184360615e-01,2.64729e-02,9.99999e-01,9.99999e-01,2.64729e-02,9.99999e-01
5.210282418e-01,2.84417e-02,9.99999e-01,9.99999e-01,2.84417e-02,9.99999e-01
5.236333830e-01,3.05136e-02,9.99999e-01,9.99999e-01,3.05136e-02,9.99999e-01
5.262515499e-01,3.26910e-02,9.99999e-01,9.99999e-01,3.26910e-02,9.99999e-01
5.288828077e-01,3.49761e-02,9.99999e-01,9.99999e-01,3.49761e-02,9.99999e-01
5.315272217e-01,3.73711e-02,9.99999e-01,9.99999e-01,3.73711e-02,9.99999e-01
5.341848578e-01,3.98779e-02,9.99999e-01,9.99999e-01,3.98779e-02,9.99999e-01
5.368557821e-01,4.24982e-02,9.99999e-01,9.99999e-01,4.24982e-02,9.99999e-01
5.395400610e-01,4.52339e-02,9.99999e-01,9.99999e-01,4.52339e-02,9.99999e-01
5.422377613e-01,4.80864e-02,9.99999e-01,9.99999e-01,4.80864e-02,9.99999e-01
5.449489501e-01,5.10570e-02,9.99999e-01,9.99999e-01,5.10570e-02,9.99999e-01
5.476736949e-01,5.41470e-02,9.99999e-01,9.99999e-01,5.41470e-02,9.99999e-01
5.504120634e-01,5.73574e-02,9.99999e-01,9.99999e-01,5.73574e-02,9.99999e-01
5.531641237e-01,6.06890e-02,9.99999e-01,9.99999e-01,6.06890e-02,9.99999e-01
5.559299443e-01,6.41426e-02,9.99999e-01,9.99999e-01,6.41426e-02,9.99999e-01
5.587095940e-01,6.77187e-02,9.99999e-01,9.99999e-01,6.77187e-02,9.99999e-01
5.615031420e-01,7.14176e-02,9.99999e-01,9.99999e-01,7.14176e-02,9.99999e-01
5.643106577e-01,7.52394e-02,9.99999e-01,9.99999e-01,7.52394e-02,9.99999e-01
5.671322110e-01,7.91841e-02,9.99999e-01,9.99999e-01,7.91841e-02,9.99999e-01
5.699678720e-01,8.32516e-02,9.99999e-01,9.99999e-01,8.32516e-02,9.99999e-01
5.728177114e-01,8.74415e-02,9.99999e-01,9.99999e-01,8.74415e-02,9.99999e-01
5.756818000e-01,9.17532e-02,9.99999e-01,9.99999e-01,9.17532e-02,9.99999e-01
5.785602090e-01,9.61861e-02,9.99999e-01,9.99999e-01,9.61861e-02,9.99999e-01
5.814530100e-01,1.00739e-01,9.99999e-01,9.99999e-01,1.00739e-01,9.99999e-01
5.843602750e-01,1.05411e-01,9.99999e-01,9.99999e-01,1.05411e-01,9.99999e-01
5.872820764e-01,1.10202e-01,9.99999e-01,9.99999e-01,1.10202e-01,9.99999e-01
5.902184868e-01,1.15108e-01,9.99999e-01,9.99999e-01,1.15108e-01,9.99999e-01
5.931695792e-01,1.20130e-01,9.99999e-01,9.99999e-01,1.20130e-01,9.99999e-01
5.961354271e-01,1.25266e-01,9.99999e-01,9.99999e-01,1.25266e-01,9.99999e-01
5.991161043e-01,1.30512e-01,9.99999e-01,9.99999e-01,1.30512e-01,9.99999e-01
6.021116848e-01,1.35869e-01,9.99999e-01,9.99999e-01,1.35869e-01,9.99999e-01
6.051222432e-01,1.41333e-01,9.99999e-01,9.99999e-01,1.41333e-01,9.99999e-01
6.081478544e-01,1.46902e-01,9.99999e-01,9.99999e-01,1.46902e-01,9.99999e-01
6.111885937e-01,1.52574e-01,9.99999e-01,9.99999e-01,1.52574e-01,9.99999e-01
6.142445367e-01,1.58347e-01,9.99999e-01,9.99999e-01,1.58347e-01,9.99999e-01
6.173157594e-01,1.64217e-01,9.99999e-01,9.99999e-01,1.64217e-01,9.99999e-01
6.204023382e-01,1.70183e-01,9.99999e-01,9.99999e-01,1.70183e-01,9.99999e-01
6.235043498e-01,1.76241e-01,9.99999e-01,9.99999e-01,1.76241e-01,9.99999e-01
6.266218716e-01,1.82389e-01,9.99999e-01,9.99999e-01,1.82389e-01,9.99999e-01
6.297549810e-01,1.88624e-01,9.99999e-01,9.99999e-01,1.88624e-01,9.99999e-01
6.329037559e-01,1.94942e-01,9.99999e-01,9.99999e-01,1.94942e-01,9.99999e-01
6.360682746e-01,2.01340e-01,9.99999e-01,9.99999e-01,2.01340e-01,9.99999e-01
6.392486160e-01,2.07816e-01,9.99999e-01,9.99999e-01,2.07816e-01,9.99999e-01
6.424448591e-01,2.14367e-01,9.99999e-01,9.99999e-01,2.14367e-01,9.99999e-01
6.456570834e-01,2.20988e-01,9.99999e-01,9.99999e-01,2.20988e-01,9.99999e-01
6.488853688e-01,2.27677e-01,9.99999e-01,9.99999e-01,2.27677e-01,9.99999e-01
6.521297956e-01,2.34430e-01,9.99999e-01,9.99999e-01,2.34430e-01,9.99999e-01
6.553904446e-01,2.41244e-01,9.99999e-01,9.99999e-01,2.41244e-01,9.99999e-01
6.586673968e-01,2.48116e-01,9.99999e-01,9.99999e-01,2.48116e-01,9.99999e-01
6.619607338e-01,2.55042e-01,9.99999e-01,9.99999e-01,2.55042e-01,9.99999e-01
6.652705375e-01,2.62019e-01,9.99999e-01,9.99999e-01,2.62019e-01,9.99999e-01
6.685968902e-01,2.69044e-01,9.99999e-01,9.99999e-01,2.69044e-01,9.99999e-01
6.719398746e-01,2.76112e-01,9.99999e-01,9.99999e-01,2.76112e-01,9.99999e-01
6.752995740e-01,2.83221e-01,9.99999e-01,9.99999e-01,2.83221e-01,9.99999e-01
6.786760719e-01,2.90367e-01,9.99999e-01,9.99999e-01,2.90367e-01,9.99999e-01
6.820694522e-01,2.97547e-01,9.99999e-01,9.99999e-01,2.97547e-01,9.99999e-01
6.854797995e-01,3.04757e-01,9.99999e-01,9.99999e-01,3.04757e-01,9.99999e-01
6.889071985e-01,3.11994e-01,9.99999e-01,9.99999e-01,3.11994e-01,9.99999e-01
6.923517345e-01,3.19256e-01,9.99999e-01,9.99999e-01,3.19256e-01,9.99999e-01
6.958134932e-01,3.26537e-01,9.99999e-01,9.99999e-01,3.26537e-01,9.99999e-01
6.992925606e-01,3.33837e-01,9.99999e-01,9.99999e-01,3.33837e-01,9.99999e-01
7.027890234e-01,3.41150e-01,9.99999e-01,9.99999e-01,3.41150e-01,9.99999e-01
7.063029686e-01,3.48474e-01,9.99999e-01,9.99999e-01,3.48474e-01,9.99999e-01
7.098344834e-01,3.55807e-01,9.99999e-01,9.99999e-01,3.55807e-01,9.99999e-01
7.133836558e-01,3.63144e-01,9.99999e-01,9.99999e-01,3.63144e-01,9.99999e-01
7.169505741e-01,3.70483e-01,9.99999e-01,9.99999e-01,3.70483e-01,9.99999e-01
7.205353270e-01,3.77821e-01,9.99999e-01,9.99999e-01,3.77821e-01,9.99999e-01
7.241380036e-01,3.85155e-01,9.99999e-01,9.99999e-01,3.85155e-01,9.99999e-01
7.277586936e-01,3.92483e-01,9.99999e-01,9.99999e-01,3.92483e-01,9.99999e-01
7.313974871e-01,3.99801e-01,9.99999e-01,9.99999e-01,3.99801e-01,9.99999e-01
7.350544745e-01,4.07107e-01,9.99999e-01,9.99999e-01,4.07107e-01,9.99999e-01
7.387297469e-01,4.14398e-01,9.99999e-01,9.99999e-01,4.14398e-01,9.99999e-01
7.424233956e-01,4.21672e-01,9.99999e-01,9.99999e-01,4.21672e-01,9.99999e-01
7.461355126e-01,4.28926e-01,9.99999e-01,9.99999e-01,4.28926e-01,9.99999e-01
7.498661902e-01,4.36158e-01,9.99999e-01,9.99999e-01,4.36158e-01,9.99999e-01
7.536155211e-01,4.43365e-01,9.99999e-01,9.99999e-01,4.43365e-01,9.99999e-01
7.573835987e-01,4.50545e-01,9.99999e-01,9.99999e-01,4.50545e-01,9.99999e-01
7.611705167e-01,4.57697e-01,9.99999e-01,9.99999e-01,4.57697e-01,9.99999e-01
7.649763693e-01,4.64818e-01,9.99999e-01,9.99999e-01,4.64818e-01,9.99999e-01
7.688012511e-01,4.71905e-01,9.99999e-01,9.99999e-01,4.71905e-01,9.99999e-01
7.726452574e-01,4.78957e-01,9.99999e-01,9.99999e-01,4.78957e-01,9.99999e-01
7.765084837e-01,4.85972e-01,9.99999e-01,9.99999e-01,4.85972e-01,9.99999e-01
7.803910261e-01,4.76975e-01,9.99999e-01,9.67595e-01,4.92949e-01,9.99999e-01
7.842929812e-01,4.31403e-01,9.99999e-01,8.63004e-01,4.99885e-01,9.99999e-01
7.882144461e-01,4.32946e-01,9.99999e-01,8.54310e-01,5.06778e-01,9.99999e-01
7.921555184e-01,4.68613e-01,9.99999e-01,9.12358e-01,5.13628e-01,9.99999e-01
7.961162960e-01,4.89368e-01,9.99999e-01,9.40310e-01,5.20432e-01,9.99999e-01
8.000968774e-01,5.09906e-01,9.99999e-01,9.67216e-01,5.27189e-01,9.99999e-01
8.040973618e-01,5.24747e-01,9.99999e-01,9.82860e-01,5.33898e-01,9.99999e-01
8.081178486e-01,5.36292e-01,9.99999e-01,9.92108e-01,5.40557e-01,9.99999e-01
8.121584379e-01,5.45825e-01,9.99999e-01,9.97549e-01,5.47165e-01,9.99999e-01
8.162192301e-01,5.53422e-01,9.99999e-01,9.99458e-01,5.53721e-01,9.99999e-01
8.203003262e-01,5.60220e-01,9.99999e-01,9.99991e-01,5.60224e-01,9.99999e-01
8.244018279e-01,5.66673e-01,9.99999e-01,9.99999e-01,5.66673e-01,9.99999e-01
8.285238370e-01,5.73066e-01,9.99999e-01,9.99999e-01,5.73066e-01,9.99999e-01
8.326664562e-01,5.79403e-01,9.99999e-01,9.99999e-01,5.79403e-01,9.99999e-01
8.368297885e-01,5.85683e-01,9.99999e-01,9.99999e-01,5.85683e-01,9.99999e-01
8.410139374e-01,5.91905e-01,9.99999e-01,9.99999e-01,5.91905e-01,9.99999e-01
8.452190071e-01,5.98068e-01,9.99999e-01,9.99999e-01,5.98068e-01,9.99999e-01
8.494451021e-01,6.04171e-01,9.99999e-01,9.99999e-01,6.04171e-01,9.99999e-01
8.536923276e-01,6.10215e-01,9.99999e-01,9.99999e-01,6.10215e-01,9.99999e-01
8.579607893e-01,6.16197e-01,9.99999e-01,9.99999e-01,6.16197e-01,9.99999e-01
8.622505932e-01,6.22119e-01,9.99999e-01,9.99999e-01,6.22119e-01,9.99999e-01
8.665618462e-01,5.82492e-01,9.99999e-01,9.27566e-01,6.27979e-01,9.99999e-01
8.708946554e-01,4.36054e-01,9.99999e-01,6.88024e-01,6.33776e-01,9.99999e-01
8.752491287e-01,4.73082e-01,9.99999e-01,7.39754e-01,6.39511e-01,9.99999e-01
8.796253743e-01,5.46749e-01,9.99999e-01,8.47431e-01,6.45183e-01,9.99999e-01
8.840235012e-01,5.97287e-01,9.99999e-01,9.17784e-01,6.50792e-01,9.99999e-01
8.884436187e-01,6.34497e-01,9.99999e-01,9.66723e-01,6.56338e-01,9.99999e-01
8.928858368e-01,6.52820e-01,9.99999e-01,9.86400e-01,6.61820e-01,9.99999e-01
8.973502660e-01,6.65019e-01,9.99999e-01,9.96674e-01,6.67237e-01,9.99999e-01
9.018370173e-01,6.72345e-01,9.99999e-01,9.99632e-01,6.72591e-01,9.99999e-01
9.063462024e-01,6.71583e-01,9.99999e-01,9.90708e-01,6.77881e-01,9.99999e-01
9.108779334e-01,6.68512e-01,9.99999e-01,9.78633e-01,6.83107e-01,9.99999e-01
9.154323231e-01,6.84779e-01,9.99999e-01,9.94929e-01,6.88269e-01,9.99999e-01
9.200094847e-01,6.44277e-01,9.99999e-01,9.29201e-01,6.93366e-01,9.99999e-01
9.246095321e-01,6.28351e-01,9.99999e-01,8.99700e-01,6.98400e-01,9.99999e-01
9.292325798e-01,6.47633e-01,9.99999e-01,9.20757e-01,7.03369e-01,9.99999e-01
9.338787427e-01,6.53778e-01,9.99999e-01,9.23056e-01,7.08275e-01,9.99999e-01
9.385481364e-01,6.72387e-01,9.99999e-01,9.42884e-01,7.13117e-01,9.99999e-01
9.432408771e-01,6.92490e-01,9.99999e-01,9.64610e-01,7.17895e-01,9.99999e-01
9.479570815e-01,7.09389e-01,9.99999e-01,9.81703e-01,7.22611e-01,9.99999e-01
9.526968669e-01,7.20813e-01,9.99999e-01,9.91131e-01,7.27263e-01,9.99999e-01
9.574603512e-01,7.29070e-01,9.99999e-01,9.96198e-01,7.31852e-01,9.99999e-01
9.622476530e-01,7.35504e-01,9.99999e-01,9.98812e-01,7.36379e-01,9.99999e-01
9.670588912e-01,7.40579e-01,9.99999e-01,9.99643e-01,7.40843e-01,9.99999e-01
9.718941857e-01,7.45227e-01,9.99999e-01,9.99974e-01,7.45246e-01,9.99999e-01
9.767536566e-01,7.49587e-01,9.99999e-01,9.99999e-01,7.49587e-01,9.99999e-01
9.816374249e-01,7.53867e-01,9.99999e-01,9.99999e-01,7.53867e-01,9.99999e-01
9.865456120e-01,7.58085e-01,9.99999e-01,9.99999e-01,7.58085e-01,9.99999e-01
9.914783401e-01,7.62244e-01,9.99999e-01,9.99999e-01,7.62244e-01,9.99999e-01
9.964357318e-01,7.66343e-01,9.99999e-01,9.99999e-01,7.66343e-01,9.99999e-01
1.001417910e+00,7.70382e-01,9.99999e-01,9.99999e-01,7.70382e-01,9.99999e-01
1.006425000e+00,7.74361e-01,9.99999e-01,9.99999e-01,7.74361e-01,9.99999e-01
1.011457125e+00,7.78283e-01,9.99999e-01,9.99999e-01,7.78283e-01,9.99999e-01
1.016514411e+00,7.82146e-01,9.99999e-01,9.99999e-01,7.82146e-01,9.99999e-01
1.021596983e+00,7.85914e-01,9.99999e-01,9.99952e-01,7.85951e-01,9.99999e-01
1.026704968e+00,7.86837e-01,9.99999e-01,9.96375e-01,7.89699e-01,9.99999e-01
1.031838492e+00,7.59782e-01,9.99999e-01,9.57639e-01,7.93391e-01,9.99999e-01
1.036997685e+00,1.25390e-01,9.99999e-01,1.57322e-01,7.97026e-01,9.99999e-01
1.042182673e+00,1.01072e-01,9.99999e-01,1.26245e-01,8.00605e-01,9.99999e-01
1.047393587e+00,1.19070e-01,9.99999e-01,1.48073e-01,8.04130e-01,9.99999e-01
1.052630555e+00,3.60301e-03,9.99999e-01,4.46138e-03,8.07600e-01,9.99999e-01
1.057893707e+00,9.01623e-03,9.99999e-01,1.11172e-02,8.11016e-01,9.99999e-01
1.063183176e+00,2.95715e-02,9.99999e-01,3.63117e-02,8.14378e-01,9.99999e-01
1.068499092e+00,8.20125e-02,9.99999e-01,1.00298e-01,8.17688e-01,9.99999e-01
1.073841587e+00,1.91656e-01,9.99999e-01,2.33457e-01,8.20945e-01,9.99999e-01
1.079210795e+00,3.28115e-01,9.99999e-01,3.98125e-01,8.24151e-01,9.99999e-01
1.084606849e+00,4.98248e-01,9.99999e-01,6.02254e-01,8.27305e-01,9.99999e-01
1.090029883e+00,6.38289e-01,9.99999e-01,7.68643e-01,8.30409e-01,9.99999e-01
1.095480033e+00,7.32078e-01,9.99999e-01,8.78356e-01,8.33463e-01,9.99999e-01
1.100957433e+00,7.85812e-01,9.99999e-01,9.39441e-01,8.36467e-01,9.99999e-01
1.106462220e+00,8.18009e-01,9.99999e-01,9.74489e-01,8.39423e-01,9.99999e-01
1.111994531e+00,8.34302e-01,9.99999e-01,9.90468e-01,8.42330e-01,9.99999e-01
1.117554504e+00,8.43214e-01,9.99999e-01,9.97661e-01,8.45190e-01,9.99999e-01
1.123142276e+00,8.47872e-01,9.99999e-01,9.99845e-01,8.48002e-01,9.99999e-01
1.128757988e+00,8.50768e-01,9.99999e-01,9.99999e-01,8.50769e-01,9.99999e-01
1.134401778e+00,8.53489e-01,9.99999e-01,9.99999e-01,8.53489e-01,9.99999e-01
1.140073787e+00,8.56164e-01,9.99999e-01,9.99999e-01,8.56164e-01,9.99999e-01
1.145774156e+00,8.58794e-01,9.99999e-01,9.99999e-01,8.58794e-01,9.99999e-01
1.151503026e+00,8.61380e-01,9.99999e-01,9.99999e-01,8.61380e-01,9.99999e-01
1.157260541e+00,8.63923e-01,9.99999e-01,9.99999e-01,8.63923e-01,9.99999e-01
1.163046844e+00,8.66422e-01,9.99999e-01,9.99999e-01,8.66422e-01,9.99999e-01
1.168862078e+00,8.68880e-01,9.99999e-01,9.99999e-01,8.68880e-01,9.99999e-01
1.174706389e+00,8.71295e-01,9.99999e-01,9.99999e-01,8.71295e-01,9.99999e-01
1.180579921e+00,8.73670e-01,9.99999e-01,9.99999e-01,8.73670e-01,9.99999e-01
1.186482820e+00,8.75998e-01,9.99999e-01,9.99993e-01,8.76003e-01,9.99999e-01
1.192415234e+00,8.66995e-01,9.99999e-01,9.87131e-01,8.78297e-01,9.99999e-01
1.198377311e+00,4.95324e-01,9.99999e-01,5.62515e-01,8.80551e-01,9.99999e-01
1.204369197e+00,5.53152e-11,9.99999e-01,6.26612e-11,8.82766e-01,9.99999e-01
1.210391043e+00,9.00703e-40,9.99999e-01,1.01781e-39,8.84943e-01,9.99999e-01
1.216442998e+00,1.26594e-34,9.99999e-01,1.42708e-34,8.87083e-01,9.99999e-01
1.222525213e+00,3.97532e-34,9.99999e-01,4.47074e-34,8.89184e-01,9.99999e-01
1.228637839e+00,1.97333e-26,9.99999e-01,2.21412e-26,8.91250e-01,9.99999e-01
1.234781029e+00,3.52004e-17,9.99999e-01,3.94058e-17,8.93279e-01,9.99999e-01
1.240954934e+00,1.28774e-11,9.99999e-01,1.43837e-11,8.95272e-01,9.99999e-01
1.247159708e+00,1.69048e-06,9.99999e-01,1.88411e-06,8.97231e-01,9.99999e-01
1.253395507e+00,3.43555e-04,9.99999e-01,3.82086e-04,8.99155e-01,9.99999e-01
1.259662485e+00,9.88177e-03,9.99999e-01,1.09670e-02,9.01045e-01,9.99999e-01
1.265960797e+00,6.60496e-02,9.99999e-01,7.31526e-02,9.02901e-01,9.99999e-01
1.272290601e+00,2.99918e-01,9.99999e-01,3.31502e-01,9.04724e-01,9.99999e-01
1.278652054e+00,2.57747e-01,9.99999e-01,2.84326e-01,9.06516e-01,9.99999e-01
1.285045314e+00,7.32430e-03,9.99999e-01,8.06396e-03,9.08275e-01,9.99999e-01
1.291470541e+00,2.35528e-05,9.99999e-01,2.58821e-05,9.10002e-01,9.99999e-01
1.297927893e+00,4.84098e-03,9.99999e-01,5.30984e-03,9.11699e-01,9.99999e-01
1.304417533e+00,1.22442e-01,9.99999e-01,1.34056e-01,9.13365e-01,9.99999e-01
1.310939621e+00,3.02015e-02,9.99999e-01,3.30070e-02,9.15002e-01,9.99999e-01
1.317494319e+00,3.84504e-14,9.99999e-01,4.19485e-14,9.16608e-01,9.99999e-01
1.324081790e+00,7.95527e-10,9.99999e-01,8.66411e-10,9.18186e-01,9.99999e-01
1.330702199e+00,8.27629e-06,9.99999e-01,8.99855e-06,9.19736e-01,9.99999e-01
1.337355710e+00,1.03646e-05,9.99999e-01,1.12505e-05,9.21257e-01,9.99999e-01
1.344042489e+00,3.15561e-06,9.99999e-01,3.41978e-06,9.22751e-01,9.99999e-01
1.350762701e+00,5.15691e-06,9.99999e-01,5.57975e-06,9.24217e-01,9.99999e-01
1.357516515e+00,3.94668e-04,9.99999e-01,4.26365e-04,9.25657e-01,9.99999e-01
1.364304097e+00,5.95917e-03,9.99999e-01,6.42795e-03,9.27070e-01,9.99999e-01
1.371125618e+00,6.66531e-02,9.99999e-01,7.17890e-02,9.28458e-01,9.99999e-01
1.377981246e+00,1.07443e-01,9.99999e-01,1.15552e-01,9.29820e-01,9.99999e-01
1.384871152e+00,2.65202e-01,9.99999e-01,2.84808e-01,9.31158e-01,9.99999e-01
1.391795508e+00,2.92066e-01,9.99999e-01,3.13217e-01,9.32471e-01,9.99999e-01
1.398754485e+00,4.56152e-01,9.99999e-01,4.88511e-01,9.33759e-01,9.99999e-01
1.405748258e+00,5.51671e-01,9.99999e-01,5.90007e-01,9.35024e-01,9.99999e-01
1.412776999e+00,6.70841e-01,9.99999e-01,7.16506e-01,9.36266e-01,9.99999e-01
1.419840884e+00,6.06008e-01,9.99999e-01,6.46419e-01,9.37484e-01,9.99999e-01
1.426940089e+00,5.71644e-02,9.99999e-01,6.08986e-02,9.38681e-01,9.99999e-01
1.434074789e+00,0.00000e+00,9.99999e-01,0.00000e+00,9.39855e-01,9.99999e-01
1.441245163e+00,0.00000e+00,9.99999e-01,0.00000e+00,9.41007e-01,9.99999e-01
1.448451389e+00,0.00000e+00,9.99999e-01,0.00000e+00,9.42138e-01,9.99999e-01
1.455693646e+00,6.82581e-319,9.99999e-01,7.23648e-319,9.43248e-01,9.99999e-01
1.462972114e+00,1.53574e-154,9.99999e-01,1.62626e-154,9.44337e-01,9.99999e-01
1.470286975e+00,6.49906e-65,9.99999e-01,6.87436e-65,9.45406e-01,9.99999e-01
