#,Wave/freq,Total,N2,CO2,Rayleigh,CIA
4.000000000e-01,8.07574e-25,9.99999e-01,9.99999e-01,8.07574e-25,9.99999e-01
4.020000000e-01,2.41860e-24,9.99999e-01,9.99999e-01,2.41860e-24,9.99999e-01
4.040100000e-01,7.08023e-24,9.99999e-01,9.99999e-01,7.08023e-24,9.99999e-01
4.060300500e-01,2.02916e-23,9.99999e-01,9.99999e-01,2.02916e-23,9.99999e-01
4.080602003e-01,5.69578e-23,9.99999e-01,9.99999e-01,5.69578e-23,9.99999e-01
4.101005013e-01,1.56652e-22,9.99999e-01,9.99999e-01,1.56652e-22,9.99999e-01
4.121510038e-01,4.22319e-22,9.99999e-01,9.99999e-01,4.22319e-22,9.99999e-01
4.142117588e-01,1.11644e-21,9.99999e-01,9.99999e-01,1.11644e-21,9.99999e-01
4.162828176e-01,2.89530e-21,9.99999e-01,9.99999e-01,2.89530e-21,9.99999e-01
4.183642317e-01,7.36845e-21,9.99999e-01,9.99999e-01,7.36845e-21,9.99999e-01
4.204560528e-01,1.84097e-20,9.99999e-01,9.99999e-01,1.84097e-20,9.99999e-01
4.225583331e-01,4.51710e-20,9.99999e-01,9.99999e-01,4.51710e-20,9.99999e-01
4.246711247e-01,1.08887e-19,9.99999e-01,9.99999e-01,1.08887e-19,9.99999e-01
4.267944804e-01,2.57953e-19,9.99999e-01,9.99999e-01,2.57953e-19,9.99999e-01
4.289284528e-01,6.00771e-19,9.99999e-01,9.99999e-01,6.00771e-19,9.99999e-01
4.310730950e-01,1.37602e-18,9.99999e-01,9.99999e-01,1.37602e-18,9.99999e-01
4.332284605e-01,3.10050e-18,9.99999e-01,9.99999e-01,3.10050e-18,9.99999e-01
4.353946028e-01,6.87494e-18,9.99999e-01,9.99999e-01,6.87494e-18,9.99999e-01
4.375715758e-01,1.50064e-17,9.99999e-01,9.99999e-01,1.50064e-17,9.99999e-01
4.397594337e-01,3.22541e-17,9.99999e-01,9.99999e-01,3.22541e-17,9.99999e-01
4.419582309e-01,6.82860e-17,9.99999e-01,9.99999e-01,6.82860e-17,9.99999e-01
4.441680220e-01,1.42444e-16,9.99999e-01,9.99999e-01,1.42444e-16,9.99999e-01
4.463888621e-01,2.92852e-16,9.99999e-01,9.99999e-01,2.92852e-16,9.99999e-01
4.486208064e-01,5.93568e-16,9.99999e-01,9.99999e-01,5.93568e-16,9.99999e-01
4.508639105e-01,1.18640e-15,9.99999e-01,9.99999e-01,1.18640e-15,9.99999e-01
4.531182300e-01,2.33912e-15,9.99999e-01,9.99999e-01,2.33912e-15,9.99999e-01
4.553838212e-01,4.55041e-15,9.99999e-01,9.99999e-01,4.55041e-15,9.99999e-01
4.576607403e-01,8.73655e-15,9.99999e-01,9.99999e-01,8.73655e-15,9.99999e-01
4.599490440e-01,1.65590e-14,9.99999e-01,9.99999e-01,1.65590e-14,9.99999e-01
4.622487892e-01,3.09914e-14,9.99999e-01,9.99999e-01,3.09914e-14,9.99999e-01
4.645600332e-01,5.72892e-14,9.99999e-01,9.99999e-01,5.72892e-14,9.99999e-01
4.668828333e-01,1.04625e-13,9.99999e-01,9.99999e-01,1.04625e-13,9.99999e-01
4.692172475e-01,1.88811e-13,9.99999e-01,9.99999e-01,1.88811e-13,9.99999e-01
4.715633337e-01,3.36789e-13,9.99999e-01,9.99999e-01,3.36789e-13,9.99999e-01
4.739211504e-01,5.93914e-13,9.99999e-01,9.99999e-01,5.93914e-13,9.99999e-01
4.762907561e-01,1.03567e-12,9.99999e-01,9.99999e-01,1.03567e-12,9.99999e-01
4.786722099e-01,1.78629e-12,9.99999e-01,9.99999e-01,1.78629e-12,9.99999e-01
4.810655710e-01,3.04793e-12,9.99999e-01,9.99999e-01,3.04793e-12,9.99999e-01
4.834708988e-01,5.14606e-12,9.99999e-01,9.99999e-01,5.14606e-12,9.99999e-01
4.858882533e-01,8.59906e-12,9.99999e-01,9.99999e-01,8.59906e-12,9.99999e-01
4.883176946e-01,1.42240e-11,9.99999e-01,9.99999e-01,1.42240e-11,9.99999e-01
4.907592831e-01,2.32958e-11,9.99999e-01,9.99999e-01,2.32958e-11,9.99999e-01
4.932130795e-01,3.77833e-11,9.99999e-01,9.99999e-01,3.77833e-11,9.99999e-01
4.956791449e-01,6.06980e-11,9.99999e-01,9.99999e-01,6.06980e-11,9.99999e-01
4.981575406e-01,9.66011e-11,9.99999e-01,9.99999e-01,9.66011e-11,9.99999e-01
5.006483283e-01,1.52336e-10,9.99999e-01,9.99999e-01,1.52336e-10,9.99999e-01
5.031515699e-01,2.38077e-10,9.99999e-01,9.99999e-01,2.38077e-10,9.99999e-01
5.056673278e-01,3.68809e-10,9.99999e-01,9.99999e-01,3.68809e-10,9.99999e-01
5.081956644e-01,5.66409e-10,9.99999e-01,9.99999e-01,5.66409e-10,9.99999e-01
5.107366428e-01,8.62539e-10,9.99999e-01,9.99999e-01,8.62539e-10,9.99999e-01
5.132903260e-01,1.30263e-09,9.99999e-01,9.99999e-01,1.30263e-09,9.99999e-01
5.158567776e-01,1.95130e-09,9.99999e-01,9.99999e-01,1.95130e-09,9.99999e-01
5.184360615e-01,2.89976e-09,9.99999e-01,9.99999e-01,2.89976e-09,9.99999e-01
5.210282418e-01,4.27564e-09,9.99999e-01,9.99999e-01,4.27564e-09,9.99999e-01
5.236333830e-01,6.25618e-09,9.99999e-01,9.99999e-01,6.25618e-09,9.99999e-01
5.262515499e-01,9.08558e-09,9.99999e-01,9.99999e-01,9.08558e-09,9.99999e-01
5.288828077e-01,1.30977e-08,9.99999e-01,9.99999e-01,1.30977e-08,9.99999e-01
5.315272217e-01,1.87456e-08,9.99999e-01,9.99999e-01,1.87456e-08,9.99999e-01
5.341848578e-01,2.66397e-08,9.99999e-01,9.99999e-01,2.66397e-08,9.99999e-01
5.368557821e-01,3.75962e-08,9.99999e-01,9.99999e-01,3.75962e-08,9.99999e-01
5.395400610e-01,5.26991e-08,9.99999e-01,9.99999e-01,5.26991e-08,9.99999e-01
5.422377613e-01,7.33780e-08,9.99999e-01,9.99999e-01,7.33780e-08,9.99999e-01
5.449489501e-01,1.01505e-07,9.99999e-01,9.99999e-01,1.01505e-07,9.99999e-01
5.476736949e-01,1.39517e-07,9.99999e-01,9.99999e-01,1.39517e-07,9.99999e-01
5.504120634e-01,1.90563e-07,9.99999e-01,9.99999e-01,1.90563e-07,9.99999e-01
5.531641237e-01,2.58687e-07,9.99999e-01,9.99999e-01,2.58687e-07,9.99999e-01
5.559299443e-01,3.49050e-07,9.99999e-01,9.99999e-01,3.49050e-07,9.99999e-01
5.587095940e-01,4.68201e-07,9.99999e-01,9.99999e-01,4.68201e-07,9.99999e-01
5.615031420e-01,6.24391e-07,9.99999e-01,9.99999e-01,6.24391e-07,9.99999e-01
5.643106577e-01,8.27965e-07,9.99999e-01,9.99999e-01,8.27965e-07,9.99999e-01
5.671322110e-01,1.09181e-06,9.99999e-01,9.99999e-01,1.09181e-06,9.99999e-01
5.699678720e-01,1.43188e-06,9.99999e-01,9.99999e-01,1.43188e-06,9.99999e-01
5.728177114e-01,1.86785e-06,9.99999e-01,9.99999e-01,1.86785e-06,9.99999e-01
5.756818000e-01,2.42381e-06,9.99999e-01,9.99999e-01,2.42381e-06,9.99999e-01
5.785602090e-01,3.12909e-06,9.99999e-01,9.99999e-01,3.12909e-06,9.99999e-01
5.814530100e-01,4.01927e-06,9.99999e-01,9.99999e-01,4.01927e-06,9.99999e-01
5.843602750e-01,5.13723e-06,9.99999e-01,9.99999e-01,5.13723e-06,9.99999e-01
5.872820764e-01,6.53439e-06,9.99999e-01,9.99999e-01,6.53439e-06,9.99999e-01
5.902184868e-01,8.27213e-06,9.99999e-01,9.99999e-01,8.27213e-06,9.99999e-01
5.931695792e-01,1.04233e-05,9.99999e-01,9.99999e-01,1.04233e-05,9.99999e-01
5.961354271e-01,1.30742e-05,9.99999e-01,9.99999e-01,1.30742e-05,9.99999e-01
5.991161043e-01,1.63259e-05,9.99999e-01,9.99999e-01,1.63259e-05,9.99999e-01
6.021116848e-01,2.02971e-05,9.99999e-01,9.99999e-01,2.02971e-05,9.99999e-01
6.051222432e-01,2.51260e-05,9.99999e-01,9.99999e-01,2.51260e-05,9.99999e-01
6.081478544e-01,3.09730e-05,9.99999e-01,9.99999e-01,3.09730e-05,9.99999e-01
6.111885937e-01,3.80231e-05,9.99999e-01,9.99999e-01,3.80231e-05,9.99999e-01
6.142445367e-01,4.64892e-05,9.99999e-01,9.99999e-01,4.64892e-05,9.99999e-01
6.173157594e-01,5.66152e-05,9.99999e-01,9.99999e-01,5.66152e-05,9.99999e-01
6.204023382e-01,6.86788e-05,9.99999e-01,9.99999e-01,6.86788e-05,9.99999e-01
6.235043498e-01,8.29958e-05,9.99999e-01,9.99999e-01,8.29958e-05,9.99999e-01
6.266218716e-01,9.99228e-05,9.99999e-01,9.99999e-01,9.99228e-05,9.99999e-01
6.297549810e-01,1.19862e-04,9.99999e-01,9.99999e-01,1.19862e-04,9.99999e-01
6.329037559e-01,1.43264e-04,9.99999e-01,9.99999e-01,1.43264e-04,9.99999e-01
6.360682746e-01,1.70633e-04,9.99999e-01,9.99999e-01,1.70633e-04,9.99999e-01
6.392486160e-01,2.02530e-04,9.99999e-01,9.99999e-01,2.02530e-04,9.99999e-01
6.424448591e-01,2.39577e-04,9.99999e-01,9.99999e-01,2.39577e-04,9.99999e-01
6.456570834e-01,2.82462e-04,9.99999e-01,9.99999e-01,2.82462e-04,9.99999e-01
6.488853688e-01,3.31942e-04,9.99999e-01,9.99999e-01,3.31942e-04,9.99999e-01
6.521297956e-01,3.88848e-04,9.99999e-01,9.99999e-01,3.88848e-04,9.99999e-01
6.553904446e-01,4.54088e-04,9.99999e-01,9.99999e-01,4.54088e-04,9.99999e-01
6.586673968e-01,5.28652e-04,9.99999e-01,9.99999e-01,5.28652e-04,9.99999e-01
6.619607338e-01,6.13614e-04,9.99999e-01,9.99999e-01,6.13614e-04,9.99999e-01
6.652705375e-01,7.10137e-04,9.99999e-01,9.99999e-01,7.10137e-04,9.99999e-01
6.685968902e-01,8.19476e-04,9.99999e-01,9.99999e-01,8.19476e-04,9.99999e-01
6.719398746e-01,9.42978e-04,9.99999e-01,9.99999e-01,9.42978e-04,9.99999e-01
6.752995740e-01,1.08209e-03,9.99999e-01,9.99999e-01,1.08209e-03,9.99999e-01
6.786760719e-01,1.23835e-03,9.99999e-01,9.99999e-01,1.23835e-03,9.99999e-01
6.820694522e-01,1.41341e-03,9.99999e-01,9.99999e-01,1.41341e-03,9.99999e-01
6.854797995e-01,1.60900e-03,9.99999e-01,9.99999e-01,1.60900e-03,9.99999e-01
6.889071985e-01,1.82698e-03,9.99999e-01,9.99999e-01,1.82698e-03,9.99999e-01
6.923517345e-01,2.06929e-03,9.99999e-01,9.99999e-01,2.06929e-03,9.99999e-01
6.958134932e-01,2.33798e-03,9.99999e-01,9.99999e-01,2.33798e-03,9.99999e-01
6.992925606e-01,2.63519e-03,9.99999e-01,9.99999e-01,2.63519e-03,9.99999e-01
7.027890234e-01,2.96318e-03,9.99999e-01,9.99999e-01,2.96318e-03,9.99999e-01
7.063029686e-01,3.32427e-03,9.99999e-01,9.99999e-01,3.32427e-03,9.99999e-01
7.098344834e-01,3.72091e-03,9.99999e-01,9.99999e-01,3.72091e-03,9.99999e-01
7.133836558e-01,4.15561e-03,9.99999e-01,9.99999e-01,4.15561e-03,9.99999e-01
7.169505741e-01,4.63098e-03,9.99999e-01,9.99999e-01,4.63098e-03,9.99999e-01
7.205353270e-01,5.14969e-03,9.99999e-01,9.99999e-01,5.14969e-03,9.99999e-01
7.241380036e-01,5.71451e-03,9.99999e-01,9.99999e-01,5.71451e-03,9.99999e-01
7.277586936e-01,6.32826e-03,9.99999e-01,9.99999e-01,6.32826e-03,9.99999e-01
7.313974871e-01,6.99382e-03,9.99999e-01,9.99999e-01,6.99382e-03,9.99999e-01
7.350544745e-01,7.71413e-03,9.99999e-01,9.99999e-01,7.71413e-03,9.99999e-01
7.387297469e-01,8.49216e-03,9.99999e-01,9.99999e-01,8.49216e-03,9.99999e-01
7.424233956e-01,9.33093e-03,9.99999e-01,9.99999e-01,9.33093e-03,9.99999e-01
7.461355126e-01,1.02335e-02,9.99999e-01,9.99999e-01,1.02335e-02,9.99999e-01
7.498661902e-01,1.12029e-02,9.99999e-01,9.99999e-01,1.12029e-02,9.99999e-01
7.536155211e-01,1.22423e-02,9.99999e-01,9.99999e-01,1.22423e-02,9.99999e-01
7.573835987e-01,1.33546e-02,9.99999e-01,9.99999e-01,1.33546e-02,9.99999e-01
7.611705167e-01,1.45430e-02,9.99999e-01,9.99999e-01,1.45430e-02,9.99999e-01
7.649763693e-01,1.58105e-02,9.99999e-01,9.99999e-01,1.58105e-02,9.99999e-01
7.688012511e-01,1.71602e-02,9.99999e-01,9.99999e-01,1.71602e-02,9.99999e-01
7.726452574e-01,1.85949e-02,9.99999e-01,9.99999e-01,1.85949e-02,9.99999e-01
7.765084837e-01,2.01177e-02,9.99999e-01,9.99999e-01,2.01177e-02,9.99999e-01
7.803910261e-01,1.90028e-02,9.99999e-01,8.74440e-01,2.17314e-02,9.99999e-01
7.842929812e-01,1.14126e-02,9.99999e-01,4.86911e-01,2.34387e-02,9.99999e-01
7.882144461e-01,1.19156e-02,9.99999e-01,4.72046e-01,2.52424e-02,9.99999e-01
7.921555184e-01,1.67926e-02,9.99999e-01,6.18619e-01,2.71452e-02,9.99999e-01
7.961162960e-01,2.09872e-02,9.99999e-01,7.19984e-01,2.91495e-02,9.99999e-01
8.000968774e-01,2.61447e-02,9.99999e-01,8.36420e-01,3.12578e-02,9.99999e-01
8.040973618e-01,3.05039e-02,9.99999e-01,9.11314e-01,3.34724e-02,9.99999e-01
8.081178486e-01,3.42981e-02,9.99999e-01,9.58168e-01,3.57955e-02,9.99999e-01
8.121584379e-01,3.77281e-02,9.99999e-01,9.86896e-01,3.82291e-02,9.99999e-01
8.162192301e-01,4.06565e-02,9.99999e-01,9.97090e-01,4.07751e-02,9.99999e-01
8.203003262e-01,4.34334e-02,9.99999e-01,9.99956e-01,4.34353e-02,9.99999e-01
8.244018279e-01,4.62114e-02,9.99999e-01,9.99999e-01,4.62114e-02,9.99999e-01
8.285238370e-01,4.91048e-02,9.99999e-01,9.99999e-01,4.91048e-02,9.99999e-01
8.326664562e-01,5.21167e-02,9.99999e-01,9.99999e-01,5.21167e-02,9.99999e-01
8.368297885e-01,5.52484e-02,9.99999e-01,9.99999e-01,5.52484e-02,9.99999e-01
8.410139374e-01,5.85009e-02,9.99999e-01,9.99999e-01,5.85009e-02,9.99999e-01
8.452190071e-01,6.18748e-02,9.99999e-01,9.99999e-01,6.18748e-02,9.99999e-01
8.494451021e-01,6.53709e-02,9.99999e-01,9.99999e-01,6.53709e-02,9.99999e-01
8.536923276e-01,6.89896e-02,9.99999e-01,9.99999e-01,6.89896e-02,9.99999e-01
8.579607893e-01,7.27311e-02,9.99999e-01,9.99999e-01,7.27311e-02,9.99999e-01
8.622505932e-01,7.65957e-02,9.99999e-01,9.99999e-01,7.65957e-02,9.99999e-01
8.665618462e-01,6.75807e-02,9.99999e-01,8.38646e-01,8.05831e-02,9.99999e-01
8.708946554e-01,1.50436e-02,9.99999e-01,1.77624e-01,8.46932e-02,9.99999e-01
8.752491287e-01,2.01088e-02,9.99999e-01,2.26131e-01,8.89254e-02,9.99999e-01
8.796253743e-01,4.00962e-02,9.99999e-01,4.29851e-01,9.32793e-02,9.99999e-01
8.840235012e-01,6.21675e-02,9.99999e-01,6.35958e-01,9.77540e-02,9.99999e-01
8.884436187e-01,8.54176e-02,9.99999e-01,8.34574e-01,1.02349e-01,9.99999e-01
8.928858368e-01,9.94588e-02,9.99999e-01,9.28983e-01,1.07062e-01,9.99999e-01
8.973502660e-01,1.09908e-01,9.99999e-01,9.82258e-01,1.11893e-01,9.99999e-01
9.018370173e-01,1.16610e-01,9.99999e-01,9.98028e-01,1.16840e-01,9.99999e-01
9.063462024e-01,1.16088e-01,9.99999e-01,9.52312e-01,1.21901e-01,9.99999e-01
9.108779334e-01,1.13186e-01,9.99999e-01,8.90695e-01,1.27076e-01,9.99999e-01
9.154323231e-01,1.28809e-01,9.99999e-01,9.73164e-01,1.32361e-01,9.99999e-01
9.200094847e-01,1.01355e-01,9.99999e-01,7.35763e-01,1.37755e-01,9.99999e-01
9.246095321e-01,8.18311e-02,9.99999e-01,5.71225e-01,1.43255e-01,9.99999e-01
9.292325798e-01,9.73126e-02,9.99999e-01,6.53716e-01,1.48861e-01,9.99999e-01
9.338787427e-01,1.01599e-01,9.99999e-01,6.57311e-01,1.54568e-01,9.99999e-01
9.385481364e-01,1.17282e-01,9.99999e-01,7.31296e-01,1.60375e-01,9.99999e-01
9.432408771e-01,1.37002e-01,9.99999e-01,8.23930e-01,1.66279e-01,9.99999e-01
9.479570815e-01,1.55947e-01,9.99999e-01,9.05211e-01,1.72277e-01,9.99999e-01
9.526968669e-01,1.70020e-01,9.99999e-01,9.53203e-01,1.78367e-01,9.99999e-01
9.574603512e-01,1.80794e-01,9.99999e-01,9.79674e-01,1.84545e-01,9.99999e-01
9.622476530e-01,1.89590e-01,9.99999e-01,9.93612e-01,1.90809e-01,9.99999e-01
9.670588912e-01,1.96777e-01,9.99999e-01,9.98082e-01,1.97155e-01,9.99999e-01
9.718941857e-01,2.03554e-01,9.99999e-01,9.99864e-01,2.03581e-01,9.99999e-01
9.767536566e-01,2.10083e-01,9.99999e-01,9.99999e-01,2.10083e-01,9.99999e-01
9.816374249e-01,2.16659e-01,9.99999e-01,9.99999e-01,2.16659e-01,9.99999e-01
9.865456120e-01,2.23304e-01,9.99999e-01,9.99999e-01,2.23304e-01,9.99999e-01
9.914783401e-01,2.30016e-01,9.99999e-01,9.99999e-01,2.30016e-01,9.99999e-01
9.964357318e-01,2.36790e-01,9.99999e-01,9.99999e-01,2.36790e-01,9.99999e-01
1.001417910e+00,2.43625e-01,9.99999e-01,9.99999e-01,2.43625e-01,9.99999e-01
1.006425000e+00,2.50516e-01,9.99999e-01,9.99999e-01,2.50516e-01,9.99999e-01
1.011457125e+00,2.57460e-01,9.99999e-01,9.99999e-01,2.57460e-01,9.99999e-01
1.016514411e+00,2.64454e-01,9.99999e-01,9.99999e-01,2.64454e-01,9.99999e-01
1.021596983e+00,2.71421e-01,9.99999e-01,9.99731e-01,2.71494e-01,9.99999e-01
1.026704968e+00,2.73180e-01,9.99999e-01,9.80627e-01,2.78577e-01,9.99999e-01
1.031838492e+00,2.48050e-01,9.99999e-01,8.68222e-01,2.85699e-01,9.99999e-01
1.036997685e+00,7.67186e-03,9.99999e-01,2.61966e-02,2.92857e-01,9.99999e-01
1.042182673e+00,8.11046e-05,9.99999e-01,2.70305e-04,3.00048e-01,9.99999e-01
1.047393587e+00,2.34675e-04,9.99999e-01,7.63748e-04,3.07268e-01,9.99999e-01
1.052630555e+00,2.26110e-10,9.99999e-01,7.18919e-10,3.14514e-01,9.99999e-01
1.057893707e+00,8.44480e-10,9.99999e-01,2.62438e-09,3.21783e-01,9.99999e-01
1.063183176e+00,2.24376e-07,9.99999e-01,6.81845e-07,3.29071e-01,9.99999e-01
1.068499092e+00,5.34549e-06,9.99999e-01,1.58914e-05,3.36376e-01,9.99999e-01
1.073841587e+00,2.36384e-04,9.99999e-01,6.87775e-04,3.43693e-01,9.99999e-01
1.079210795e+00,3.82209e-03,9.99999e-01,1.08885e-02,3.51021e-01,9.99999e-01
1.084606849e+00,2.59884e-02,9.99999e-01,7.25214e-02,3.58355e-01,9.99999e-01
1.090029883e+00,9.16719e-02,9.99999e-01,2.50680e-01,3.65693e-01,9.99999e-01
1.095480033e+00,1.87614e-01,9.99999e-01,5.02943e-01,3.73032e-01,9.99999e-01
1.100957433e+00,2.72198e-01,9.99999e-01,7.15616e-01,3.80369e-01,9.99999e-01
1.106462220e+00,3.37438e-01,9.99999e-01,8.70355e-01,3.87701e-01,9.99999e-01
1.111994531e+00,3.75158e-01,9.99999e-01,9.49704e-01,3.95026e-01,9.99999e-01
1.117554504e+00,3.97304e-01,9.99999e-01,9.87483e-01,4.02340e-01,9.99999e-01
1.123142276e+00,4.09303e-01,9.99999e-01,9.99173e-01,4.09641e-01,9.99999e-01
1.128757988e+00,4.16926e-01,9.99999e-01,9.99999e-01,4.16926e-01,9.99999e-01
1.134401778e+00,4.24194e-01,9.99999e-01,9.99999e-01,4.24194e-01,9.99999e-01
1.140073787e+00,4.31440e-01,9.99999e-01,9.99999e-01,4.31440e-01,9.99999e-01
1.145774156e+00,4.38664e-01,9.99999e-01,9.99999e-01,4.38664e-01,9.99999e-01
1.151503026e+00,4.45862e-01,9.99999e-01,9.99999e-01,4.45862e-01,9.99999e-01
1.157260541e+00,4.53033e-01,9.99999e-01,9.99999e-01,4.53033e-01,9.99999e-01
1.163046844e+00,4.60174e-01,9.99999e-01,9.99999e-01,4.60174e-01,9.99999e-01
1.168862078e+00,4.67283e-01,9.99999e-01,9.99999e-01,4.67283e-01,9.99999e-01
1.174706389e+00,4.74359e-01,9.99999e-01,9.99999e-01,4.74359e-01,9.99999e-01
1.180579921e+00,4.81398e-01,9.99999e-01,9.99999e-01,4.81398e-01,9.99999e-01
1.186482820e+00,4.88382e-01,9.99999e-01,9.99963e-01,4.88400e-01,9.99999e-01
1.192415234e+00,4.63999e-01,9.99999e-01,9.36685e-01,4.95363e-01,9.99999e-01
1.198377311e+00,2.40677e-01,9.99999e-01,4.79164e-01,5.02284e-01,9.99999e-01
1.204369197e+00,1.60009e-49,9.99999e-01,3.14259e-49,5.09162e-01,9.99999e-01
1.210391043e+00,2.38813e-205,9.99999e-01,4.62819e-205,5.15996e-01,9.99999e-01
1.216442998e+00,1.75371e-177,9.99999e-01,3.35456e-177,5.22784e-01,9.99999e-01
1.222525213e+00,8.52504e-175,9.99999e-01,1.60994e-174,5.29525e-01,9.99999e-01
1.228637839e+00,1.66209e-134,9.99999e-01,3.09966e-134,5.36217e-01,9.99999e-01
1.234781029e+00,4.59815e-83,9.99999e-01,8.47024e-83,5.42858e-01,9.99999e-01
1.240954934e+00,1.13740e-54,9.99999e-01,2.07007e-54,5.49449e-01,9.99999e-01
1.247159708e+00,1.79995e-25,9.99999e-01,3.23739e-25,5.55986e-01,9.99999e-01
1.253395507e+00,2.31345e-17,9.99999e-01,4.11301e-17,5.62470e-01,9.99999e-01
1.259662485e+00,5.90503e-10,9.99999e-01,1.03797e-09,5.68900e-01,9.99999e-01
1.265960797e+00,9.26248e-06,9.99999e-01,1.61010e-05,5.75274e-01,9.99999e-01
1.272290601e+00,2.43003e-03,9.99999e-01,4.17824e-03,5.81591e-01,9.99999e-01
1.278652054e+00,2.66586e-03,9.99999e-01,4.53493e-03,5.87851e-01,9.99999e-01
1.285045314e+00,1.69937e-07,9.99999e-01,2.86064e-07,5.94052e-01,9.99999e-01
1.291470541e+00,3.17041e-23,9.99999e-01,5.28230e-23,6.00194e-01,9.99999e-01
1.297927893e+00,2.88476e-09,9.99999e-01,4.75814e-09,6.06277e-01,9.99999e-01
1.304417533e+00,2.41056e-05,9.99999e-01,3.93690e-05,6.12300e-01,9.99999e-01
1.310939621e+00,7.50808e-06,9.99999e-01,1.21439e-05,6.18261e-01,9.99999e-01
1.317494319e+00,8.15314e-69,9.99999e-01,1.30625e-68,6.24161e-01,9.99999e-01
1.324081790e+00,1.30092e-44,9.99999e-01,2.06495e-44,6.30000e-01,9.99999e-01
1.330702199e+00,1.57589e-26,9.99999e-01,2.47869e-26,6.35775e-01,9.99999e-01
1.337355710e+00,7.14344e-24,9.99999e-01,1.11357e-23,6.41489e-01,9.99999e-01
1.344042489e+00,4.77399e-24,9.99999e-01,7.37707e-24,6.47139e-01,9.99999e-01
1.350762701e+00,6.81165e-27,9.99999e-01,1.04357e-26,6.52726e-01,9.99999e-01
1.357516515e+00,9.85669e-16,9.99999e-01,1.49741e-15,6.58249e-01,9.99999e-01
1.364304097e+00,9.90578e-12,9.99999e-01,1.49249e-11,6.63709e-01,9.99999e-01
1.371125618e+00,2.13863e-06,9.99999e-01,3.19626e-06,6.69104e-01,9.99999e-01
1.377981246e+00,1.07115e-05,9.99999e-01,1.58821e-05,6.74436e-01,9.99999e-01
1.384871152e+00,1.01036e-03,9.99999e-01,1.48646e-03,6.79704e-01,9.99999e-01
1.391795508e+00,1.82852e-03,9.99999e-01,2.66973e-03,6.84907e-01,9.99999e-01
1.398754485e+00,1.48421e-02,9.99999e-01,2.15089e-02,6.90047e-01,9.99999e-01
1.405748258e+00,4.37142e-02,9.99999e-01,6.28871e-02,6.95122e-01,9.99999e-01
1.412776999e+00,1.18814e-01,9.99999e-01,1.69702e-01,7.00133e-01,9.99999e-01
1.419840884e+00,1.24483e-01,9.99998e-01,1.76552e-01,7.05080e-01,9.99999e-01
1.426940089e+00,3.16042e-03,9.99998e-01,4.45151e-03,7.09964e-01,9.99999e-01
1.434074789e+00,0.00000e+00,9.99998e-01,0.00000e+00,7.14784e-01,9.99999e-01
1.441245163e+00,0.00000e+00,9.99999e-01,0.00000e+00,7.19540e-01,9.99999e-01
1.448451389e+00,0.00000e+00,9.99998e-01,0.00000e+00,7.24234e-01,9.99999e-01
1.455693646e+00,0.00000e+00,9.99999e-01,0.00000e+00,7.28864e-01,9.99999e-01
1.462972114e+00,0.00000e+00,9.99999e-01,0.00000e+00,7.33431e-01,9.99999e-01
1.470286975e+00,0.00000e+00,9.99999e-01,0.00000e+00,7.37936e-01,9.99999e-01
