#,Wave/freq,Total,N2,CO2,Rayleigh,CIA
4.000000000e-01,9.60962e-07,9.99999e-01,9.99999e-01,9.60962e-07,9.99999e-01
4.020000000e-01,1.26383e-06,9.99999e-01,9.99999e-01,1.26383e-06,9.99999e-01
4.040100000e-01,1.65270e-06,9.99999e-01,9.99999e-01,1.65270e-06,9.99999e-01
4.060300500e-01,2.14980e-06,9.99999e-01,9.99999e-01,2.14980e-06,9.99999e-01
4.080602003e-01,2.78194e-06,9.99999e-01,9.99999e-01,2.78194e-06,9.99999e-01
4.101005013e-01,3.58167e-06,9.99999e-01,9.99999e-01,3.58167e-06,9.99999e-01
4.121510038e-01,4.58834e-06,9.99999e-01,9.99999e-01,4.58834e-06,9.99999e-01
4.142117588e-01,5.84926e-06,9.99999e-01,9.99999e-01,5.84926e-06,9.99999e-01
4.162828176e-01,7.42102e-06,9.99999e-01,9.99999e-01,7.42102e-06,9.99999e-01
4.183642317e-01,9.37098e-06,9.99999e-01,9.99999e-01,9.37098e-06,9.99999e-01
4.204560528e-01,1.17789e-05,9.99999e-01,9.99999e-01,1.17789e-05,9.99999e-01
4.225583331e-01,1.47388e-05,9.99999e-01,9.99999e-01,1.47388e-05,9.99999e-01
4.246711247e-01,1.83610e-05,9.99999e-01,9.99999e-01,1.83610e-05,9.99999e-01
4.267944804e-01,2.27744e-05,9.99999e-01,9.99999e-01,2.27744e-05,9.99999e-01
4.289284528e-01,2.81287e-05,9.99999e-01,9.99999e-01,2.81287e-05,9.99999e-01
4.310730950e-01,3.45971e-05,9.99999e-01,9.99999e-01,3.45971e-05,9.99999e-01
4.332284605e-01,4.23794e-05,9.99999e-01,9.99999e-01,4.23794e-05,9.99999e-01
4.353946028e-01,5.17046e-05,9.99999e-01,9.99999e-01,5.17046e-05,9.99999e-01
4.375715758e-01,6.28344e-05,9.99999e-01,9.99999e-01,6.28344e-05,9.99999e-01
4.397594337e-01,7.60665e-05,9.99999e-01,9.99999e-01,7.60665e-05,9.99999e-01
4.419582309e-01,9.17382e-05,9.99999e-01,9.99999e-01,9.17382e-05,9.99999e-01
4.441680220e-01,1.10230e-04,9.99999e-01,9.99999e-01,1.10230e-04,9.99999e-01
4.463888621e-01,1.31970e-04,9.99999e-01,9.99999e-01,1.31970e-04,9.99999e-01
4.486208064e-01,1.57436e-04,9.99999e-01,9.99999e-01,1.57436e-04,9.99999e-01
4.508639105e-01,1.87163e-04,9.99999e-01,9.99999e-01,1.87163e-04,9.99999e-01
4.531182300e-01,2.21745e-04,9.99999e-01,9.99999e-01,2.21745e-04,9.99999e-01
4.553838212e-01,2.61838e-04,9.99999e-01,9.99999e-01,2.61838e-04,9.99999e-01
4.576607403e-01,3.08166e-04,9.99999e-01,9.99999e-01,3.08166e-04,9.99999e-01
4.599490440e-01,3.61527e-04,9.99999e-01,9.99999e-01,3.61527e-04,9.99999e-01
4.622487892e-01,4.22791e-04,9.99999e-01,9.99999e-01,4.22791e-04,9.99999e-01
4.645600332e-01,4.92910e-04,9.99999e-01,9.99999e-01,4.92910e-04,9.99999e-01
4.668828333e-01,5.72920e-04,9.99999e-01,9.99999e-01,5.72920e-04,9.99999e-01
4.692172475e-01,6.63941e-04,9.99999e-01,9.99999e-01,6.63941e-04,9.99999e-01
4.715633337e-01,7.67185e-04,9.99999e-01,9.99999e-01,7.67185e-04,9.99999e-01
4.739211504e-01,8.83957e-04,9.99999e-01,9.99999e-01,8.83957e-04,9.99999e-01
4.762907561e-01,1.01566e-03,9.99999e-01,9.99999e-01,1.01566e-03,9.99999e-01
4.786722099e-01,1.16378e-03,9.99999e-01,9.99999e-01,1.16378e-03,9.99999e-01
4.810655710e-01,1.32993e-03,9.99999e-01,9.99999e-01,1.32993e-03,9.99999e-01
4.834708988e-01,1.51579e-03,9.99999e-01,9.99999e-01,1.51579e-03,9.99999e-01
4.858882533e-01,1.72317e-03,9.99999e-01,9.99999e-01,1.72317e-03,9.99999e-01
4.883176946e-01,1.95397e-03,9.99999e-01,9.99999e-01,1.95397e-03,9.99999e-01
4.907592831e-01,2.21019e-03,9.99999e-01,9.99999e-01,2.21019e-03,9.99999e-01
4.932130795e-01,2.49392e-03,9.99999e-01,9.99999e-01,2.49392e-03,9.99999e-01
4.956791449e-01,2.80738e-03,9.99999e-01,9.99999e-01,2.80738e-03,9.99999e-01
4.981575406e-01,3.15285e-03,9.99999e-01,9.99999e-01,3.15285e-03,9.99999e-01
5.006483283e-01,3.53273e-03,9.99999e-01,9.99999e-01,3.53273e-03,9.99999e-01
5.031515699e-01,3.94949e-03,9.99999e-01,9.99999e-01,3.94949e-03,9.99999e-01
5.056673278e-01,4.40570e-03,9.99999e-01,9.99999e-01,4.40570e-03,9.99999e-01
5.081956644e-01,4.90401e-03,9.99999e-01,9.99999e-01,4.90401e-03,9.99999e-01
5.107366428e-01,5.44715e-03,9.99999e-01,9.99999e-01,5.44715e-03,9.99999e-01
5.132903260e-01,6.03789e-03,9.99999e-01,9.99999e-01,6.03789e-03,9.99999e-01
5.158567776e-01,6.67910e-03,9.99999e-01,9.99999e-01,6.67910e-03,9.99999e-01
5.184360615e-01,7.37370e-03,9.99999e-01,9.99999e-01,7.37370e-03,9.99999e-01
5.210282418e-01,8.12464e-03,9.99999e-01,9.99999e-01,8.12464e-03,9.99999e-01
5.236333830e-01,8.93492e-03,9.99999e-01,9.99999e-01,8.93492e-03,9.99999e-01
5.262515499e-01,9.80757e-03,9.99999e-01,9.99999e-01,9.80757e-03,9.99999e-01
5.288828077e-01,1.07457e-02,9.99999e-01,9.99999e-01,1.07457e-02,9.99999e-01
5.315272217e-01,1.17523e-02,9.99999e-01,9.99999e-01,1.17523e-02,9.99999e-01
5.341848578e-01,1.28304e-02,9.99999e-01,9.99999e-01,1.28304e-02,9.99999e-01
5.368557821e-01,1.39832e-02,9.99999e-01,9.99999e-01,1.39832e-02,9.99999e-01
5.395400610e-01,1.52138e-02,9.99999e-01,9.99999e-01,1.52138e-02,9.99999e-01
5.422377613e-01,1.65250e-02,9.99999e-01,9.99999e-01,1.65250e-02,9.99999e-01
5.449489501e-01,1.79200e-02,9.99999e-01,9.99999e-01,1.79200e-02,9.99999e-01
5.476736949e-01,1.94017e-02,9.99999e-01,9.99999e-01,1.94017e-02,9.99999e-01
5.504120634e-01,2.09729e-02,9.99999e-01,9.99999e-01,2.09729e-02,9.99999e-01
5.531641237e-01,2.26365e-02,9.99999e-01,9.99999e-01,2.26365e-02,9.99999e-01
5.559299443e-01,2.43953e-02,9.99999e-01,9.99999e-01,2.43953e-02,9.99999e-01
5.587095940e-01,2.62519e-02,9.99999e-01,9.99999e-01,2.62519e-02,9.99999e-01
5.615031420e-01,2.82089e-02,9.99999e-01,9.99999e-01,2.82089e-02,9.99999e-01
5.643106577e-01,3.02688e-02,9.99999e-01,9.99999e-01,3.02688e-02,9.99999e-01
5.671322110e-01,3.24339e-02,9.99999e-01,9.99999e-01,3.24339e-02,9.99999e-01
5.699678720e-01,3.47065e-02,9.99999e-01,9.99999e-01,3.47065e-02,9.99999e-01
5.728177114e-01,3.70887e-02,9.99999e-01,9.99999e-01,3.70887e-02,9.99999e-01
5.756818000e-01,3.95824e-02,9.99999e-01,9.99999e-01,3.95824e-02,9.99999e-01
5.785602090e-01,4.21896e-02,9.99999e-01,9.99999e-01,4.21896e-02,9.99999e-01
5.814530100e-01,4.49118e-02,9.99999e-01,9.99999e-01,4.49118e-02,9.99999e-01
5.843602750e-01,4.77507e-02,9.99999e-01,9.99999e-01,4.77507e-02,9.99999e-01
5.872820764e-01,5.07076e-02,9.99999e-01,9.99999e-01,5.07076e-02,9.99999e-01
5.902184868e-01,5.37838e-02,9.99999e-01,9.99999e-01,5.37838e-02,9.99999e-01
5.931695792e-01,5.69802e-02,9.99999e-01,9.99999e-01,5.69802e-02,9.99999e-01
5.961354271e-01,6.02978e-02,9.99999e-01,9.99999e-01,6.02978e-02,9.99999e-01
5.991161043e-01,6.37373e-02,9.99999e-01,9.99999e-01,6.37373e-02,9.99999e-01
6.021116848e-01,6.72992e-02,9.99999e-01,9.99999e-01,6.72992e-02,9.99999e-01
6.051222432e-01,7.09839e-02,9.99999e-01,9.99999e-01,7.09839e-02,9.99999e-01
6.081478544e-01,7.47915e-02,9.99999e-01,9.99999e-01,7.47915e-02,9.99999e-01
6.111885937e-01,7.87220e-02,9.99999e-01,9.99999e-01,7.87220e-02,9.99999e-01
6.142445367e-01,8.27754e-02,9.99999e-01,9.99999e-01,8.27754e-02,9.99999e-01
6.173157594e-01,8.69511e-02,9.99999e-01,9.99999e-01,8.69511e-02,9.99999e-01
6.204023382e-01,9.12488e-02,9.99999e-01,9.99999e-01,9.12488e-02,9.99999e-01
6.235043498e-01,9.56677e-02,9.99999e-01,9.99999e-01,9.56677e-02,9.99999e-01
6.266218716e-01,1.00207e-01,9.99999e-01,9.99999e-01,1.00207e-01,9.99999e-01
6.297549810e-01,1.04865e-01,9.99999e-01,9.99999e-01,1.04865e-01,9.99999e-01
6.329037559e-01,1.09642e-01,9.99999e-01,9.99999e-01,1.09642e-01,9.99999e-01
6.360682746e-01,1.14536e-01,9.99999e-01,9.99999e-01,1.14536e-01,9.99999e-01
6.392486160e-01,1.19544e-01,9.99999e-01,9.99999e-01,1.19544e-01,9.99999e-01
6.424448591e-01,1.24666e-01,9.99999e-01,9.99999e-01,1.24666e-01,9.99999e-01
6.456570834e-01,1.29900e-01,9.99999e-01,9.99999e-01,1.29900e-01,9.99999e-01
6.488853688e-01,1.35244e-01,9.99999e-01,9.99999e-01,1.35244e-01,9.99999e-01
6.521297956e-01,1.40696e-01,9.99999e-01,9.99999e-01,1.40696e-01,9.99999e-01
6.553904446e-01,1.46253e-01,9.99999e-01,9.99999e-01,1.46253e-01,9.99999e-01
6.586673968e-01,1.51913e-01,9.99999e-01,9.99999e-01,1.51913e-01,9.99999e-01
6.619607338e-01,1.57675e-01,9.99999e-01,9.99999e-01,1.57675e-01,9.99999e-01
6.652705375e-01,1.63534e-01,9.99999e-01,9.99999e-01,1.63534e-01,9.99999e-01
6.685968902e-01,1.69489e-01,9.99999e-01,9.99999e-01,1.69489e-01,9.99999e-01
6.719398746e-01,1.75537e-01,9.99999e-01,9.99999e-01,1.75537e-01,9.99999e-01
6.752995740e-01,1.81674e-01,9.99999e-01,9.99999e-01,1.81674e-01,9.99999e-01
6.786760719e-01,1.87899e-01,9.99999e-01,9.99999e-01,1.87899e-01,9.99999e-01
6.820694522e-01,1.94207e-01,9.99999e-01,9.99999e-01,1.94207e-01,9.99999e-01
6.854797995e-01,2.00597e-01,9.99999e-01,9.99999e-01,2.00597e-01,9.99999e-01
6.889071985e-01,2.07064e-01,9.99999e-01,9.99999e-01,2.07064e-01,9.99999e-01
6.923517345e-01,2.13606e-01,9.99999e-01,9.99999e-01,2.13606e-01,9.99999e-01
6.958134932e-01,2.20219e-01,9.99999e-01,9.99999e-01,2.20219e-01,9.99999e-01
6.992925606e-01,2.26901e-01,9.99999e-01,9.99999e-01,2.26901e-01,9.99999e-01
7.027890234e-01,2.33647e-01,9.99999e-01,9.99999e-01,2.33647e-01,9.99999e-01
7.063029686e-01,2.40454e-01,9.99999e-01,9.99999e-01,2.40454e-01,9.99999e-01
7.098344834e-01,2.47319e-01,9.99999e-01,9.99999e-01,2.47319e-01,9.99999e-01
7.133836558e-01,2.54239e-01,9.99999e-01,9.99999e-01,2.54239e-01,9.99999e-01
7.169505741e-01,2.61211e-01,9.99999e-01,9.99999e-01,2.61211e-01,9.99999e-01
7.205353270e-01,2.68230e-01,9.99999e-01,9.99999e-01,2.68230e-01,9.99999e-01
7.241380036e-01,2.75293e-01,9.99999e-01,9.99999e-01,2.75293e-01,9.99999e-01
7.277586936e-01,2.82397e-01,9.99999e-01,9.99999e-01,2.82397e-01,9.99999e-01
7.313974871e-01,2.89539e-01,9.99999e-01,9.99999e-01,2.89539e-01,9.99999e-01
7.350544745e-01,2.96715e-01,9.99999e-01,9.99999e-01,2.96715e-01,9.99999e-01
7.387297469e-01,3.03922e-01,9.99999e-01,9.99999e-01,3.03922e-01,9.99999e-01
7.424233956e-01,3.11157e-01,9.99999e-01,9.99999e-01,3.11157e-01,9.99999e-01
7.461355126e-01,3.18415e-01,9.99999e-01,9.99999e-01,3.18415e-01,9.99999e-01
7.498661902e-01,3.25695e-01,9.99999e-01,9.99999e-01,3.25695e-01,9.99999e-01
7.536155211e-01,3.32992e-01,9.99999e-01,9.99999e-01,3.32992e-01,9.99999e-01
7.573835987e-01,3.40304e-01,9.99999e-01,9.99999e-01,3.40304e-01,9.99999e-01
7.611705167e-01,3.47628e-01,9.99999e-01,9.99999e-01,3.47628e-01,9.99999e-01
7.649763693e-01,3.54959e-01,9.99999e-01,9.99999e-01,3.54959e-01,9.99999e-01
7.688012511e-01,3.62296e-01,9.99999e-01,9.99999e-01,3.62296e-01,9.99999e-01
7.726452574e-01,3.69635e-01,9.99999e-01,9.99999e-01,3.69635e-01,9.99999e-01
7.765084837e-01,3.76973e-01,9.99999e-01,9.99999e-01,3.76973e-01,9.99999e-01
7.803910261e-01,3.68268e-01,9.99999e-01,9.58261e-01,3.84308e-01,9.99999e-01
7.842929812e-01,3.21460e-01,9.99999e-01,8.20813e-01,3.91636e-01,9.99999e-01
7.882144461e-01,3.23359e-01,9.99999e-01,8.10512e-01,3.98956e-01,9.99999e-01
7.921555184e-01,3.59042e-01,9.99999e-01,8.83766e-01,4.06263e-01,9.99999e-01
7.961162960e-01,3.80515e-01,9.99999e-01,9.20104e-01,4.13556e-01,9.99999e-01
8.000968774e-01,4.02278e-01,9.99999e-01,9.55909e-01,4.20832e-01,9.99999e-01
8.040973618e-01,4.18177e-01,9.99999e-01,9.76846e-01,4.28088e-01,9.99999e-01
8.081178486e-01,4.30680e-01,9.99999e-01,9.89334e-01,4.35323e-01,9.99999e-01
8.121584379e-01,4.41063e-01,9.99999e-01,9.96675e-01,4.42533e-01,9.99999e-01
8.162192301e-01,4.49387e-01,9.99999e-01,9.99264e-01,4.49717e-01,9.99999e-01
8.203003262e-01,4.56867e-01,9.99999e-01,9.99987e-01,4.56872e-01,9.99999e-01
8.244018279e-01,4.63996e-01,9.99999e-01,9.99999e-01,4.63996e-01,9.99999e-01
8.285238370e-01,4.71088e-01,9.99999e-01,9.99999e-01,4.71088e-01,9.99999e-01
8.326664562e-01,4.78144e-01,9.99999e-01,9.99999e-01,4.78144e-01,9.99999e-01
8.368297885e-01,4.85164e-01,9.99999e-01,9.99999e-01,4.85164e-01,9.99999e-01
8.410139374e-01,4.92145e-01,9.99999e-01,9.99999e-01,4.92145e-01,9.99999e-01
8.452190071e-01,4.99085e-01,9.99999e-01,9.99999e-01,4.99085e-01,9.99999e-01
8.494451021e-01,5.05984e-01,9.99999e-01,9.99999e-01,5.05984e-01,9.99999e-01
8.536923276e-01,5.12838e-01,9.99999e-01,9.99999e-01,5.12838e-01,9.99999e-01
8.579607893e-01,5.19648e-01,9.99999e-01,9.99999e-01,5.19648e-01,9.99999e-01
8.622505932e-01,5.26411e-01,9.99999e-01,9.99999e-01,5.26411e-01,9.99999e-01
8.665618462e-01,4.87717e-01,9.99999e-01,9.14825e-01,5.33125e-01,9.99999e-01
8.708946554e-01,3.28597e-01,9.99999e-01,6.08749e-01,5.39790e-01,9.99999e-01
8.752491287e-01,3.64993e-01,9.99999e-01,6.67990e-01,5.46404e-01,9.99999e-01
8.796253743e-01,4.42430e-01,9.99999e-01,8.00101e-01,5.52967e-01,9.99999e-01
8.840235012e-01,4.98227e-01,9.99999e-01,8.90525e-01,5.59476e-01,9.99999e-01
8.884436187e-01,5.40568e-01,9.99999e-01,9.55183e-01,5.65931e-01,9.99999e-01
8.928858368e-01,5.61815e-01,9.99999e-01,9.81627e-01,5.72330e-01,9.99999e-01
8.973502660e-01,5.76063e-01,9.99999e-01,9.95488e-01,5.78674e-01,9.99999e-01
9.018370173e-01,5.84669e-01,9.99999e-01,9.99501e-01,5.84960e-01,9.99999e-01
9.063462024e-01,5.83845e-01,9.99999e-01,9.87577e-01,5.91189e-01,9.99999e-01
9.108779334e-01,5.80155e-01,9.99999e-01,9.71200e-01,5.97358e-01,9.99999e-01
9.154323231e-01,5.99320e-01,9.99999e-01,9.93123e-01,6.03469e-01,9.99999e-01
9.200094847e-01,5.53398e-01,9.99999e-01,9.07924e-01,6.09519e-01,9.99999e-01
9.246095321e-01,5.33602e-01,9.99999e-01,8.66927e-01,6.15509e-01,9.99999e-01
9.292325798e-01,5.56246e-01,9.99999e-01,8.95094e-01,6.21438e-01,9.99999e-01
9.338787427e-01,5.63065e-01,9.99999e-01,8.97594e-01,6.27305e-01,9.99999e-01
9.385481364e-01,5.84742e-01,9.99999e-01,9.23602e-01,6.33110e-01,9.99999e-01
9.432408771e-01,6.08429e-01,9.99999e-01,9.52378e-01,6.38852e-01,9.99999e-01
9.479570815e-01,6.28627e-01,9.99999e-01,9.75323e-01,6.44531e-01,9.99999e-01
9.526968669e-01,6.42355e-01,9.99999e-01,9.88013e-01,6.50147e-01,9.99999e-01
9.574603512e-01,6.52327e-01,9.99999e-01,9.94854e-01,6.55700e-01,9.99999e-01
9.622476530e-01,6.60126e-01,9.99999e-01,9.98391e-01,6.61189e-01,9.99999e-01
9.670588912e-01,6.66293e-01,9.99999e-01,9.99516e-01,6.66615e-01,9.99999e-01
9.718941857e-01,6.71953e-01,9.99999e-01,9.99965e-01,6.71976e-01,9.99999e-01
9.767536566e-01,6.77273e-01,9.99999e-01,9.99999e-01,6.77273e-01,9.99999e-01
9.816374249e-01,6.82506e-01,9.99999e-01,9.99999e-01,6.82506e-01,9.99999e-01
9.865456120e-01,6.87675e-01,9.99999e-01,9.99999e-01,6.87675e-01,9.99999e-01
9.914783401e-01,6.92780e-01,9.99999e-01,9.99999e-01,6.92780e-01,9.99999e-01
9.964357318e-01,6.97821e-01,9.99999e-01,9.99999e-01,6.97821e-01,9.99999e-01
1.001417910e+00,7.02798e-01,9.99999e-01,9.99999e-01,7.02798e-01,9.99999e-01
1.006425000e+00,7.07711e-01,9.99999e-01,9.99999e-01,7.07711e-01,9.99999e-01
1.011457125e+00,7.12561e-01,9.99999e-01,9.99999e-01,7.12561e-01,9.99999e-01
1.016514411e+00,7.17346e-01,9.99999e-01,9.99999e-01,7.17346e-01,9.99999e-01
1.021596983e+00,7.22024e-01,9.99999e-01,9.99937e-01,7.22069e-01,9.99999e-01
1.026704968e+00,7.23199e-01,9.99999e-01,9.95143e-01,7.26728e-01,9.99999e-01
1.031838492e+00,6.94108e-01,9.99999e-01,9.49109e-01,7.31325e-01,9.99999e-01
1.036997685e+00,8.83722e-02,9.99999e-01,1.20094e-01,7.35859e-01,9.99999e-01
1.042182673e+00,4.86318e-02,9.99999e-01,6.56893e-02,7.40330e-01,9.99999e-01
1.047393587e+00,6.81168e-02,9.99999e-01,9.14637e-02,7.44740e-01,9.99999e-01
1.052630555e+00,7.51526e-04,9.99999e-01,1.00325e-03,7.49088e-01,9.99999e-01
1.057893707e+00,2.16049e-03,9.99999e-01,2.86775e-03,7.53375e-01,9.99999e-01
1.063183176e+00,9.85547e-03,9.99999e-01,1.30088e-02,7.57601e-01,9.99999e-01
1.068499092e+00,3.53882e-02,9.99999e-01,4.64554e-02,7.61767e-01,9.99999e-01
1.073841587e+00,1.09173e-01,9.99999e-01,1.42547e-01,7.65872e-01,9.99999e-01
1.079210795e+00,2.24192e-01,9.99999e-01,2.91189e-01,7.69918e-01,9.99999e-01
1.084606849e+00,3.90710e-01,9.99999e-01,5.04855e-01,7.73905e-01,9.99999e-01
1.090029883e+00,5.45288e-01,9.99999e-01,7.01034e-01,7.77833e-01,9.99999e-01
1.095480033e+00,6.56019e-01,9.99999e-01,8.39218e-01,7.81702e-01,9.99999e-01
1.100957433e+00,7.21866e-01,9.99999e-01,9.18971e-01,7.85514e-01,9.99999e-01
1.106462220e+00,7.62140e-01,9.99999e-01,9.65627e-01,7.89269e-01,9.99999e-01
1.111994531e+00,7.82752e-01,9.99999e-01,9.87118e-01,7.92967e-01,9.99999e-01
1.117554504e+00,7.94084e-01,9.99999e-01,9.96830e-01,7.96609e-01,9.99999e-01
1.123142276e+00,8.00027e-01,9.99999e-01,9.99790e-01,8.00195e-01,9.99999e-01
1.128757988e+00,8.03725e-01,9.99999e-01,9.99999e-01,8.03726e-01,9.99999e-01
1.134401778e+00,8.07202e-01,9.99999e-01,9.99999e-01,8.07202e-01,9.99999e-01
1.140073787e+00,8.10624e-01,9.99999e-01,9.99999e-01,8.10624e-01,9.99999e-01
1.145774156e+00,8.13993e-01,9.99999e-01,9.99999e-01,8.13993e-01,9.99999e-01
1.151503026e+00,8.17308e-01,9.99999e-01,9.99999e-01,8.17308e-01,9.99999e-01
1.157260541e+00,8.20572e-01,9.99999e-01,9.99999e-01,8.20572e-01,9.99999e-01
1.163046844e+00,8.23783e-01,9.99999e-01,9.99999e-01,8.23783e-01,9.99999e-01
1.168862078e+00,8.26943e-01,9.99999e-01,9.99999e-01,8.26943e-01,9.99999e-01
1.174706389e+00,8.30053e-01,9.99999e-01,9.99999e-01,8.30053e-01,9.99999e-01
1.180579921e+00,8.33113e-01,9.99999e-01,9.99999e-01,8.33113e-01,9.99999e-01
1.186482820e+00,8.36117e-01,9.99999e-01,9.99992e-01,8.36123e-01,9.99999e-01
1.192415234e+00,8.24746e-01,9.99999e-01,9.82912e-01,8.39084e-01,9.99999e-01
1.198377311e+00,4.66961e-01,9.99999e-01,5.54587e-01,8.41997e-01,9.99999e-01
1.204369197e+00,4.67474e-14,9.99999e-01,5.53314e-14,8.44862e-01,9.99999e-01
1.210391043e+00,5.65119e-53,9.99999e-01,6.66665e-53,8.47680e-01,9.99999e-01
1.216442998e+00,5.14413e-46,9.99999e-01,6.04870e-46,8.50451e-01,9.99999e-01
1.222525213e+00,2.41352e-45,9.99999e-01,2.82886e-45,8.53177e-01,9.99999e-01
1.228637839e+00,4.05455e-35,9.99999e-01,4.73742e-35,8.55857e-01,9.99999e-01
1.234781029e+00,1.96335e-22,9.99999e-01,2.28697e-22,8.58492e-01,9.99999e-01
1.240954934e+00,4.20651e-15,9.99999e-01,4.88513e-15,8.61083e-01,9.99999e-01
1.247159708e+00,4.83678e-08,9.99999e-01,5.60052e-08,8.63631e-01,9.99999e-01
1.253395507e+00,2.69439e-05,9.99999e-01,3.11081e-05,8.66136e-01,9.99999e-01
1.259662485e+00,2.24304e-03,9.99999e-01,2.58236e-03,8.68598e-01,9.99999e-01
1.265960797e+00,2.80565e-02,9.99999e-01,3.22111e-02,8.71018e-01,9.99999e-01
1.272290601e+00,1.77460e-01,9.99999e-01,2.03184e-01,8.73397e-01,9.99999e-01
1.278652054e+00,1.71283e-01,9.99999e-01,1.95588e-01,8.75736e-01,9.99999e-01
1.285045314e+00,2.78866e-03,9.99999e-01,3.17602e-03,8.78034e-01,9.99999e-01
1.291470541e+00,7.47520e-07,9.99999e-01,8.49172e-07,8.80293e-01,9.99999e-01
1.297927893e+00,1.28820e-03,9.99999e-01,1.45969e-03,8.82512e-01,9.99999e-01
1.304417533e+00,5.94836e-02,9.99999e-01,6.72363e-02,8.84694e-01,9.99999e-01
1.310939621e+00,1.44179e-02,9.99999e-01,1.62576e-02,8.86837e-01,9.99999e-01
1.317494319e+00,1.29240e-18,9.99999e-01,1.45386e-18,8.88943e-01,9.99999e-01
1.324081790e+00,1.13115e-12,9.99999e-01,1.26951e-12,8.91013e-01,9.99999e-01
1.330702199e+00,1.67225e-07,9.99999e-01,1.87252e-07,8.93046e-01,9.99999e-01
1.337355710e+00,3.28186e-07,9.99999e-01,3.66670e-07,8.95044e-01,9.99999e-01
1.344042489e+00,1.11678e-07,9.99999e-01,1.24501e-07,8.97006e-01,9.99999e-01
1.350762701e+00,9.59249e-08,9.99999e-01,1.06709e-07,8.98934e-01,9.99999e-01
1.357516515e+00,3.61736e-05,9.99999e-01,4.01559e-05,9.00828e-01,9.99999e-01
1.364304097e+00,1.05824e-03,9.99999e-01,1.17232e-03,9.02688e-01,9.99999e-01
1.371125618e+00,2.73756e-02,9.99999e-01,3.02655e-02,9.04515e-01,9.99999e-01
1.377981246e+00,4.95428e-02,9.99999e-01,5.46642e-02,9.06310e-01,9.99999e-01
1.384871152e+00,1.67297e-01,9.99999e-01,1.84233e-01,9.08073e-01,9.99999e-01
1.391795508e+00,1.90346e-01,9.99999e-01,2.09216e-01,9.09804e-01,9.99999e-01
1.398754485e+00,3.46088e-01,9.99999e-01,3.79688e-01,9.11505e-01,9.99999e-01
1.405748258e+00,4.48029e-01,9.99999e-01,4.90628e-01,9.13174e-01,9.99999e-01
1.412776999e+00,5.82911e-01,9.99999e-01,6.37190e-01,9.14814e-01,9.99999e-01
1.419840884e+00,5.25937e-01,9.99999e-01,5.73900e-01,9.16424e-01,9.99999e-01
1.426940089e+00,3.99404e-02,9.99999e-01,4.35078e-02,9.18005e-01,9.99999e-01
1.434074789e+00,0.00000e+00,9.99999e-01,0.00000e+00,9.19558e-01,9.99999e-01
1.441245163e+00,0.00000e+00,9.99999e-01,0.00000e+00,9.21083e-01,9.99999e-01
1.448451389e+00,0.00000e+00,9.99999e-01,0.00000e+00,9.22579e-01,9.99999e-01
1.455693646e+00,0.00000e+00,9.99999e-01,0.00000e+00,9.24049e-01,9.99999e-01
1.462972114e+00,4.02161e-208,9.99999e-01,4.34537e-208,9.25492e-01,9.99999e-01
1.470286975e+00,5.82290e-87,9.99999e-01,6.28207e-87,9.26908e-01,9.99999e-01
