#,Wave/freq,Total,N2,CO2,Rayleigh,CIA
4.000000000e-01,1.17072e-14,9.99999e-01,9.99999e-01,1.17072e-14,9.99999e-01
4.020000000e-01,2.20762e-14,9.99999e-01,9.99999e-01,2.20762e-14,9.99999e-01
4.040100000e-01,4.10833e-14,9.99999e-01,9.99999e-01,4.10833e-14,9.99999e-01
4.060300500e-01,7.55229e-14,9.99999e-01,9.99999e-01,7.55229e-14,9.99999e-01
4.080602003e-01,1.37173e-13,9.99999e-01,9.99999e-01,1.37173e-13,9.99999e-01
4.101005013e-01,2.46229e-13,9.99999e-01,9.99999e-01,2.46229e-13,9.99999e-01
4.121510038e-01,4.36910e-13,9.99999e-01,9.99999e-01,4.36910e-13,9.99999e-01
4.142117588e-01,7.66522e-13,9.99999e-01,9.99999e-01,7.66522e-13,9.99999e-01
4.162828176e-01,1.32995e-12,9.99999e-01,9.99999e-01,1.32995e-12,9.99999e-01
4.183642317e-01,2.28254e-12,9.99999e-01,9.99999e-01,2.28254e-12,9.99999e-01
4.204560528e-01,3.87587e-12,9.99999e-01,9.99999e-01,3.87587e-12,9.99999e-01
4.225583331e-01,6.51294e-12,9.99999e-01,9.99999e-01,6.51294e-12,9.99999e-01
4.246711247e-01,1.08326e-11,9.99999e-01,9.99999e-01,1.08326e-11,9.99999e-01
4.267944804e-01,1.78371e-11,9.99999e-01,9.99999e-01,1.78371e-11,9.99999e-01
4.289284528e-01,2.90829e-11,9.99999e-01,9.99999e-01,2.90829e-11,9.99999e-01
4.310730950e-01,4.69630e-11,9.99999e-01,9.99999e-01,4.69630e-11,9.99999e-01
4.332284605e-01,7.51216e-11,9.99999e-01,9.99999e-01,7.51216e-11,9.99999e-01
4.353946028e-01,1.19054e-10,9.99999e-01,9.99999e-01,1.19054e-10,9.99999e-01
4.375715758e-01,1.86970e-10,9.99999e-01,9.99999e-01,1.86970e-10,9.99999e-01
4.397594337e-01,2.91024e-10,9.99999e-01,9.99999e-01,2.91024e-10,9.99999e-01
4.419582309e-01,4.49045e-10,9.99999e-01,9.99999e-01,4.49045e-10,9.99999e-01
4.441680220e-01,6.86958e-10,9.99999e-01,9.99999e-01,6.86958e-10,9.99999e-01
4.463888621e-01,1.04213e-09,9.99999e-01,9.99999e-01,1.04213e-09,9.99999e-01
4.486208064e-01,1.56798e-09,9.99999e-01,9.99999e-01,1.56798e-09,9.99999e-01
4.508639105e-01,2.34021e-09,9.99999e-01,9.99999e-01,2.34021e-09,9.99999e-01
4.531182300e-01,3.46525e-09,9.99999e-01,9.99999e-01,3.46525e-09,9.99999e-01
4.553838212e-01,5.09150e-09,9.99999e-01,9.99999e-01,5.09150e-09,9.99999e-01
4.576607403e-01,7.42430e-09,9.99999e-01,9.99999e-01,7.42430e-09,9.99999e-01
4.599490440e-01,1.07456e-08,9.99999e-01,9.99999e-01,1.07456e-08,9.99999e-01
4.622487892e-01,1.54395e-08,9.99999e-01,9.99999e-01,1.54395e-08,9.99999e-01
4.645600332e-01,2.20256e-08,9.99999e-01,9.99999e-01,2.20256e-08,9.99999e-01
4.668828333e-01,3.12013e-08,9.99999e-01,9.99999e-01,3.12013e-08,9.99999e-01
4.692172475e-01,4.38967e-08,9.99999e-01,9.99999e-01,4.38967e-08,9.99999e-01
4.715633337e-01,6.13426e-08,9.99999e-01,9.99999e-01,6.13426e-08,9.99999e-01
4.739211504e-01,8.51573e-08,9.99999e-01,9.99999e-01,8.51573e-08,9.99999e-01
4.762907561e-01,1.17454e-07,9.99999e-01,9.99999e-01,1.17454e-07,9.99999e-01
4.786722099e-01,1.60974e-07,9.99999e-01,9.99999e-01,1.60974e-07,9.99999e-01
4.810655710e-01,2.19249e-07,9.99999e-01,9.99999e-01,2.19249e-07,9.99999e-01
4.834708988e-01,2.96805e-07,9.99999e-01,9.99999e-01,2.96805e-07,9.99999e-01
4.858882533e-01,3.99398e-07,9.99999e-01,9.99999e-01,3.99398e-07,9.99999e-01
4.883176946e-01,5.34311e-07,9.99999e-01,9.99999e-01,5.34311e-07,9.99999e-01
4.907592831e-01,7.10699e-07,9.99999e-01,9.99999e-01,7.10699e-07,9.99999e-01
4.932130795e-01,9.40005e-07,9.99999e-01,9.99999e-01,9.40005e-07,9.99999e-01
4.956791449e-01,1.23645e-06,9.99999e-01,9.99999e-01,1.23645e-06,9.99999e-01
4.981575406e-01,1.61760e-06,9.99999e-01,9.99999e-01,1.61760e-06,9.99999e-01
5.006483283e-01,2.10503e-06,9.99999e-01,9.99999e-01,2.10503e-06,9.99999e-01
5.031515699e-01,2.72514e-06,9.99999e-01,9.99999e-01,2.72514e-06,9.99999e-01
5.056673278e-01,3.50997e-06,9.99999e-01,9.99999e-01,3.50997e-06,9.99999e-01
5.081956644e-01,4.49829e-06,9.99999e-01,9.99999e-01,4.49829e-06,9.99999e-01
5.107366428e-01,5.73671e-06,9.99999e-01,9.99999e-01,5.73671e-06,9.99999e-01
5.132903260e-01,7.28102e-06,9.99999e-01,9.99999e-01,7.28102e-06,9.99999e-01
5.158567776e-01,9.19765e-06,9.99999e-01,9.99999e-01,9.19765e-06,9.99999e-01
5.184360615e-01,1.15653e-05,9.99999e-01,9.99999e-01,1.15653e-05,9.99999e-01
5.210282418e-01,1.44768e-05,9.99999e-01,9.99999e-01,1.44768e-05,9.99999e-01
5.236333830e-01,1.80410e-05,9.99999e-01,9.99999e-01,1.80410e-05,9.99999e-01
5.262515499e-01,2.23852e-05,9.99999e-01,9.99999e-01,2.23852e-05,9.99999e-01
5.288828077e-01,2.76573e-05,9.99999e-01,9.99999e-01,2.76573e-05,9.99999e-01
5.315272217e-01,3.40288e-05,9.99999e-01,9.99999e-01,3.40288e-05,9.99999e-01
5.341848578e-01,4.16968e-05,9.99999e-01,9.99999e-01,4.16968e-05,9.99999e-01
5.368557821e-01,5.08882e-05,9.99999e-01,9.99999e-01,5.08882e-05,9.99999e-01
5.395400610e-01,6.18617e-05,9.99999e-01,9.99999e-01,6.18617e-05,9.99999e-01
5.422377613e-01,7.49121e-05,9.99999e-01,9.99999e-01,7.49121e-05,9.99999e-01
5.449489501e-01,9.03732e-05,9.99999e-01,9.99999e-01,9.03732e-05,9.99999e-01
5.476736949e-01,1.08622e-04,9.99999e-01,9.99999e-01,1.08622e-04,9.99999e-01
5.504120634e-01,1.30082e-04,9.99999e-01,9.99999e-01,1.30082e-04,9.99999e-01
5.531641237e-01,1.55229e-04,9.99999e-01,9.99999e-01,1.55229e-04,9.99999e-01
5.559299443e-01,1.84591e-04,9.99999e-01,9.99999e-01,1.84591e-04,9.99999e-01
5.587095940e-01,2.18757e-04,9.99999e-01,9.99999e-01,2.18757e-04,9.99999e-01
5.615031420e-01,2.58378e-04,9.99999e-01,9.99999e-01,2.58378e-04,9.99999e-01
5.643106577e-01,3.04175e-04,9.99999e-01,9.99999e-01,3.04175e-04,9.99999e-01
5.671322110e-01,3.56936e-04,9.99999e-01,9.99999e-01,3.56936e-04,9.99999e-01
5.699678720e-01,4.17527e-04,9.99999e-01,9.99999e-01,4.17527e-04,9.99999e-01
5.728177114e-01,4.86894e-04,9.99999e-01,9.99999e-01,4.86894e-04,9.99999e-01
5.756818000e-01,5.66065e-04,9.99999e-01,9.99999e-01,5.66065e-04,9.99999e-01
5.785602090e-01,6.56153e-04,9.99999e-01,9.99999e-01,6.56153e-04,9.99999e-01
5.814530100e-01,7.58363e-04,9.99999e-01,9.99999e-01,7.58363e-04,9.99999e-01
5.843602750e-01,8.73992e-04,9.99999e-01,9.99999e-01,8.73992e-04,9.99999e-01
5.872820764e-01,1.00443e-03,9.99999e-01,9.99999e-01,1.00443e-03,9.99999e-01
5.902184868e-01,1.15117e-03,9.99999e-01,9.99999e-01,1.15117e-03,9.99999e-01
5.931695792e-01,1.31580e-03,9.99999e-01,9.99999e-01,1.31580e-03,9.99999e-01
5.961354271e-01,1.50000e-03,9.99999e-01,9.99999e-01,1.50000e-03,9.99999e-01
5.991161043e-01,1.70558e-03,9.99999e-01,9.99999e-01,1.70558e-03,9.99999e-01
6.021116848e-01,1.93441e-03,9.99999e-01,9.99999e-01,1.93441e-03,9.99999e-01
6.051222432e-01,2.18850e-03,9.99999e-01,9.99999e-01,2.18850e-03,9.99999e-01
6.081478544e-01,2.46993e-03,9.99999e-01,9.99999e-01,2.46993e-03,9.99999e-01
6.111885937e-01,2.78090e-03,9.99999e-01,9.99999e-01,2.78090e-03,9.99999e-01
6.142445367e-01,3.12370e-03,9.99999e-01,9.99999e-01,3.12370e-03,9.99999e-01
6.173157594e-01,3.50071e-03,9.99999e-01,9.99999e-01,3.50071e-03,9.99999e-01
6.204023382e-01,3.91440e-03,9.99999e-01,9.99999e-01,3.91440e-03,9.99999e-01
6.235043498e-01,4.36733e-03,9.99999e-01,9.99999e-01,4.36733e-03,9.99999e-01
6.266218716e-01,4.86214e-03,9.99999e-01,9.99999e-01,4.86214e-03,9.99999e-01
6.297549810e-01,5.40155e-03,9.99999e-01,9.99999e-01,5.40155e-03,9.99999e-01
6.329037559e-01,5.98834e-03,9.99999e-01,9.99999e-01,5.98834e-03,9.99999e-01
6.360682746e-01,6.62538e-03,9.99999e-01,9.99999e-01,6.62538e-03,9.99999e-01
6.392486160e-01,7.31555e-03,9.99999e-01,9.99999e-01,7.31555e-03,9.99999e-01
6.424448591e-01,8.06183e-03,9.99999e-01,9.99999e-01,8.06183e-03,9.99999e-01
6.456570834e-01,8.86720e-03,9.99999e-01,9.99999e-01,8.86720e-03,9.99999e-01
6.488853688e-01,9.73470e-03,9.99999e-01,9.99999e-01,9.73470e-03,9.99999e-01
6.521297956e-01,1.06674e-02,9.99999e-01,9.99999e-01,1.06674e-02,9.99999e-01
6.553904446e-01,1.16683e-02,9.99999e-01,9.99999e-01,1.16683e-02,9.99999e-01
6.586673968e-01,1.27406e-02,9.99999e-01,9.99999e-01,1.27406e-02,9.99999e-01
6.619607338e-01,1.38873e-02,9.99999e-01,9.99999e-01,1.38873e-02,9.99999e-01
6.652705375e-01,1.51114e-02,9.99999e-01,9.99999e-01,1.51114e-02,9.99999e-01
6.685968902e-01,1.64161e-02,9.99999e-01,9.99999e-01,1.64161e-02,9.99999e-01
6.719398746e-01,1.78042e-02,9.99999e-01,9.99999e-01,1.78042e-02,9.99999e-01
6.752995740e-01,1.92787e-02,9.99999e-01,9.99999e-01,1.92787e-02,9.99999e-01
6.786760719e-01,2.08426e-02,9.99999e-01,9.99999e-01,2.08426e-02,9.99999e-01
6.820694522e-01,2.24987e-02,9.99999e-01,9.99999e-01,2.24987e-02,9.99999e-01
6.854797995e-01,2.42497e-02,9.99999e-01,9.99999e-01,2.42497e-02,9.99999e-01
6.889071985e-01,2.60983e-02,9.99999e-01,9.99999e-01,2.60983e-02,9.99999e-01
6.923517345e-01,2.80471e-02,9.99999e-01,9.99999e-01,2.80471e-02,9.99999e-01
6.958134932e-01,3.00986e-02,9.99999e-01,9.99999e-01,3.00986e-02,9.99999e-01
6.992925606e-01,3.22551e-02,9.99999e-01,9.99999e-01,3.22551e-02,9.99999e-01
7.027890234e-01,3.45189e-02,9.99999e-01,9.99999e-01,3.45189e-02,9.99999e-01
7.063029686e-01,3.68922e-02,9.99999e-01,9.99999e-01,3.68922e-02,9.99999e-01
7.098344834e-01,3.93768e-02,9.99999e-01,9.99999e-01,3.93768e-02,9.99999e-01
7.133836558e-01,4.19748e-02,9.99999e-01,9.99999e-01,4.19748e-02,9.99999e-01
7.169505741e-01,4.46877e-02,9.99999e-01,9.99999e-01,4.46877e-02,9.99999e-01
7.205353270e-01,4.75171e-02,9.99999e-01,9.99999e-01,4.75171e-02,9.99999e-01
7.241380036e-01,5.04644e-02,9.99999e-01,9.99999e-01,5.04644e-02,9.99999e-01
7.277586936e-01,5.35309e-02,9.99999e-01,9.99999e-01,5.35309e-02,9.99999e-01
7.313974871e-01,5.67176e-02,9.99999e-01,9.99999e-01,5.67176e-02,9.99999e-01
7.350544745e-01,6.00254e-02,9.99999e-01,9.99999e-01,6.00254e-02,9.99999e-01
7.387297469e-01,6.34550e-02,9.99999e-01,9.99999e-01,6.34550e-02,9.99999e-01
7.424233956e-01,6.70070e-02,9.99999e-01,9.99999e-01,6.70070e-02,9.99999e-01
7.461355126e-01,7.06817e-02,9.99999e-01,9.99999e-01,7.06817e-02,9.99999e-01
7.498661902e-01,7.44794e-02,9.99999e-01,9.99999e-01,7.44794e-02,9.99999e-01
7.536155211e-01,7.84000e-02,9.99999e-01,9.99999e-01,7.84000e-02,9.99999e-01
7.573835987e-01,8.24434e-02,9.99999e-01,9.99999e-01,8.24434e-02,9.99999e-01
7.611705167e-01,8.66093e-02,9.99999e-01,9.99999e-01,8.66093e-02,9.99999e-01
7.649763693e-01,9.08972e-02,9.99999e-01,9.99999e-01,9.08972e-02,9.99999e-01
7.688012511e-01,9.53063e-02,9.99999e-01,9.99999e-01,9.53063e-02,9.99999e-01
7.726452574e-01,9.98359e-02,9.99999e-01,9.99999e-01,9.98359e-02,9.99999e-01
7.765084837e-01,1.04485e-01,9.99999e-01,9.99999e-01,1.04485e-01,9.99999e-01
7.803910261e-01,1.00223e-01,9.99999e-01,9.17358e-01,1.09252e-01,9.99999e-01
7.842929812e-01,7.37305e-02,9.99999e-01,6.45988e-01,1.14136e-01,9.99999e-01
7.882144461e-01,7.52497e-02,9.99999e-01,6.31631e-01,1.19135e-01,9.99999e-01
7.921555184e-01,9.37158e-02,9.99999e-01,7.54260e-01,1.24249e-01,9.99999e-01
7.961162960e-01,1.06871e-01,9.99999e-01,8.25424e-01,1.29474e-01,9.99999e-01
8.000968774e-01,1.21486e-01,9.99999e-01,9.01173e-01,1.34809e-01,9.99999e-01
8.040973618e-01,1.32857e-01,9.99999e-01,9.47274e-01,1.40252e-01,9.99999e-01
8.081178486e-01,1.42228e-01,9.99999e-01,9.75495e-01,1.45800e-01,9.99999e-01
8.121584379e-01,1.50290e-01,9.99999e-01,9.92320e-01,1.51453e-01,9.99999e-01
8.162192301e-01,1.56938e-01,9.99999e-01,9.98298e-01,1.57206e-01,9.99999e-01
8.203003262e-01,1.63053e-01,9.99999e-01,9.99972e-01,1.63057e-01,9.99999e-01
8.244018279e-01,1.69004e-01,9.99999e-01,9.99999e-01,1.69004e-01,9.99999e-01
8.285238370e-01,1.75045e-01,9.99999e-01,9.99999e-01,1.75045e-01,9.99999e-01
8.326664562e-01,1.81175e-01,9.99999e-01,9.99999e-01,1.81175e-01,9.99999e-01
8.368297885e-01,1.87393e-01,9.99999e-01,9.99999e-01,1.87393e-01,9.99999e-01
8.410139374e-01,1.93695e-01,9.99999e-01,9.99999e-01,1.93695e-01,9.99999e-01
8.452190071e-01,2.00078e-01,9.99999e-01,9.99999e-01,2.00078e-01,9.99999e-01
8.494451021e-01,2.06539e-01,9.99999e-01,9.99999e-01,2.06539e-01,9.99999e-01
8.536923276e-01,2.13075e-01,9.99999e-01,9.99999e-01,2.13075e-01,9.99999e-01
8.579607893e-01,2.19683e-01,9.99999e-01,9.99999e-01,2.19683e-01,9.99999e-01
8.622505932e-01,2.26359e-01,9.99999e-01,9.99999e-01,2.26359e-01,9.99999e-01
8.665618462e-01,2.03570e-01,9.99999e-01,8.73317e-01,2.33099e-01,9.99999e-01
8.708946554e-01,8.22704e-02,9.99999e-01,3.42933e-01,2.39902e-01,9.99999e-01
8.752491287e-01,1.00925e-01,9.99999e-01,4.08996e-01,2.46763e-01,9.99999e-01
8.796253743e-01,1.53267e-01,9.99999e-01,6.04176e-01,2.53679e-01,9.99999e-01
8.840235012e-01,1.99783e-01,9.99999e-01,7.66492e-01,2.60646e-01,9.99999e-01
8.884436187e-01,2.40787e-01,9.99999e-01,8.99597e-01,2.67661e-01,9.99999e-01
8.928858368e-01,2.63189e-01,9.99999e-01,9.58021e-01,2.74721e-01,9.99999e-01
8.973502660e-01,2.78888e-01,9.99999e-01,9.89587e-01,2.81822e-01,9.99999e-01
9.018370173e-01,2.88628e-01,9.99999e-01,9.98845e-01,2.88961e-01,9.99999e-01
9.063462024e-01,2.87834e-01,9.99999e-01,9.71969e-01,2.96135e-01,9.99999e-01
9.108779334e-01,2.83554e-01,9.99999e-01,9.34773e-01,3.03339e-01,9.99999e-01
9.154323231e-01,3.05657e-01,9.99999e-01,9.84175e-01,3.10572e-01,9.99999e-01
9.200094847e-01,2.60289e-01,9.99999e-01,8.18959e-01,3.17828e-01,9.99999e-01
9.246095321e-01,2.34225e-01,9.99999e-01,7.20455e-01,3.25106e-01,9.99999e-01
9.292325798e-01,2.58671e-01,9.99999e-01,7.78187e-01,3.32403e-01,9.99999e-01
9.338787427e-01,2.65416e-01,9.99999e-01,7.81294e-01,3.39713e-01,9.99999e-01
9.385481364e-01,2.89055e-01,9.99999e-01,8.32926e-01,3.47036e-01,9.99999e-01
9.432408771e-01,3.16568e-01,9.99999e-01,8.93334e-01,3.54367e-01,9.99999e-01
9.479570815e-01,3.41389e-01,9.99999e-01,9.43835e-01,3.61703e-01,9.99999e-01
9.526968669e-01,3.58895e-01,9.99999e-01,9.72503e-01,3.69042e-01,9.99999e-01
9.574603512e-01,3.71914e-01,9.99999e-01,9.88132e-01,3.76381e-01,9.99999e-01
9.622476530e-01,3.82289e-01,9.99999e-01,9.96279e-01,3.83716e-01,9.99999e-01
9.670588912e-01,3.90608e-01,9.99999e-01,9.98882e-01,3.91045e-01,9.99999e-01
9.718941857e-01,3.98333e-01,9.99999e-01,9.99919e-01,3.98365e-01,9.99999e-01
9.767536566e-01,4.05673e-01,9.99999e-01,9.99999e-01,4.05673e-01,9.99999e-01
9.816374249e-01,4.12968e-01,9.99999e-01,9.99999e-01,4.12968e-01,9.99999e-01
9.865456120e-01,4.20245e-01,9.99999e-01,9.99999e-01,4.20245e-01,9.99999e-01
9.914783401e-01,4.27503e-01,9.99999e-01,9.99999e-01,4.27503e-01,9.99999e-01
9.964357318e-01,4.34740e-01,9.99999e-01,9.99999e-01,4.34740e-01,9.99999e-01
1.001417910e+00,4.41952e-01,9.99999e-01,9.99999e-01,4.41952e-01,9.99999e-01
1.006425000e+00,4.49138e-01,9.99999e-01,9.99999e-01,4.49138e-01,9.99999e-01
1.011457125e+00,4.56295e-01,9.99999e-01,9.99999e-01,4.56295e-01,9.99999e-01
1.016514411e+00,4.63422e-01,9.99999e-01,9.99999e-01,4.63422e-01,9.99999e-01
1.021596983e+00,4.70449e-01,9.99999e-01,9.99857e-01,4.70516e-01,9.99999e-01
1.026704968e+00,4.72259e-01,9.99999e-01,9.88867e-01,4.77576e-01,9.99999e-01
1.031838492e+00,4.41127e-01,9.99999e-01,9.10293e-01,4.84598e-01,9.99999e-01
1.036997685e+00,2.62788e-02,9.99999e-01,5.34575e-02,4.91582e-01,9.99999e-01
1.042182673e+00,1.95009e-03,9.99999e-01,3.91172e-03,4.98526e-01,9.99999e-01
1.047393587e+00,5.06576e-03,9.99999e-01,1.00227e-02,5.05428e-01,9.99999e-01
1.052630555e+00,7.32134e-07,9.99999e-01,1.42915e-06,5.12286e-01,9.99999e-01
1.057893707e+00,2.71201e-06,9.99999e-01,5.22445e-06,5.19100e-01,9.99999e-01
1.063183176e+00,6.44100e-05,9.99999e-01,1.22484e-04,5.25866e-01,9.99999e-01
1.068499092e+00,6.22884e-04,9.99999e-01,1.16955e-03,5.32585e-01,9.99999e-01
1.073841587e+00,6.94492e-03,9.99999e-01,1.28788e-02,5.39254e-01,9.99999e-01
1.079210795e+00,3.54707e-02,9.99999e-01,6.49798e-02,5.45872e-01,9.99999e-01
1.084606849e+00,1.16923e-01,9.99999e-01,2.11648e-01,5.52438e-01,9.99999e-01
1.090029883e+00,2.47910e-01,9.99999e-01,4.43525e-01,5.58952e-01,9.99999e-01
1.095480033e+00,3.78033e-01,9.99999e-01,6.68598e-01,5.65411e-01,9.99999e-01
1.100957433e+00,4.70525e-01,9.99999e-01,8.22861e-01,5.71815e-01,9.99999e-01
1.106462220e+00,5.33271e-01,9.99999e-01,9.22352e-01,5.78163e-01,9.99999e-01
1.111994531e+00,5.67184e-01,9.99999e-01,9.70449e-01,5.84455e-01,9.99999e-01
1.117554504e+00,5.86364e-01,9.99999e-01,9.92680e-01,5.90688e-01,9.99999e-01
1.123142276e+00,5.96573e-01,9.99999e-01,9.99515e-01,5.96862e-01,9.99999e-01
1.128757988e+00,6.02978e-01,9.99999e-01,9.99999e-01,6.02978e-01,9.99999e-01
1.134401778e+00,6.09033e-01,9.99999e-01,9.99999e-01,6.09033e-01,9.99999e-01
1.140073787e+00,6.15028e-01,9.99999e-01,9.99999e-01,6.15028e-01,9.99999e-01
1.145774156e+00,6.20961e-01,9.99999e-01,9.99999e-01,6.20961e-01,9.99999e-01
1.151503026e+00,6.26833e-01,9.99999e-01,9.99999e-01,6.26833e-01,9.99999e-01
1.157260541e+00,6.32643e-01,9.99999e-01,9.99999e-01,6.32643e-01,9.99999e-01
1.163046844e+00,6.38390e-01,9.99999e-01,9.99999e-01,6.38390e-01,9.99999e-01
1.168862078e+00,6.44075e-01,9.99999e-01,9.99999e-01,6.44075e-01,9.99999e-01
1.174706389e+00,6.49696e-01,9.99999e-01,9.99999e-01,6.49696e-01,9.99999e-01
1.180579921e+00,6.55254e-01,9.99999e-01,9.99999e-01,6.55254e-01,9.99999e-01
1.186482820e+00,6.60738e-01,9.99999e-01,9.99983e-01,6.60748e-01,9.99999e-01
1.192415234e+00,6.40988e-01,9.99999e-01,9.62185e-01,6.66179e-01,9.99999e-01
1.198377311e+00,3.49356e-01,9.99999e-01,5.20226e-01,6.71545e-01,9.99999e-01
1.204369197e+00,1.39038e-29,9.99999e-01,2.05419e-29,6.76848e-01,9.99999e-01
1.210391043e+00,1.11046e-119,9.99999e-01,1.62803e-119,6.82086e-01,9.99999e-01
1.216442998e+00,1.43548e-103,9.99999e-01,2.08869e-103,6.87260e-01,9.99999e-01
1.222525213e+00,5.13798e-102,9.99999e-01,7.42084e-102,6.92371e-01,9.99999e-01
1.228637839e+00,1.05672e-78,9.99999e-01,1.51519e-78,6.97417e-01,9.99999e-01
1.234781029e+00,5.62213e-49,9.99999e-01,8.00418e-49,7.02399e-01,9.99999e-01
1.240954934e+00,1.67876e-32,9.99999e-01,2.37342e-32,7.07317e-01,9.99999e-01
1.247159708e+00,1.12179e-15,9.99999e-01,1.57517e-15,7.12171e-01,9.99999e-01
1.253395507e+00,1.15218e-10,9.99999e-01,1.60703e-10,7.16962e-01,9.99999e-01
1.259662485e+00,2.13241e-06,9.99999e-01,2.95475e-06,7.21690e-01,9.99999e-01
1.265960797e+00,6.36715e-04,9.99999e-01,8.76589e-04,7.26354e-01,9.99999e-01
1.272290601e+00,2.17045e-02,9.99999e-01,2.96932e-02,7.30956e-01,9.99999e-01
1.278652054e+00,2.54440e-02,9.99999e-01,3.45944e-02,7.35495e-01,9.99999e-01
1.285045314e+00,3.39700e-05,9.99999e-01,4.59072e-05,7.39972e-01,9.99999e-01
1.291470541e+00,3.73652e-14,9.99999e-01,5.01960e-14,7.44386e-01,9.99999e-01
1.297927893e+00,3.43909e-06,9.99999e-01,4.59317e-06,7.48739e-01,9.99999e-01
1.304417533e+00,1.76975e-03,9.99999e-01,2.35017e-03,7.53031e-01,9.99999e-01
1.310939621e+00,4.69928e-04,9.99999e-01,6.20561e-04,7.57262e-01,9.99999e-01
1.317494319e+00,1.02885e-40,9.99999e-01,1.35120e-40,7.61432e-01,9.99999e-01
1.324081790e+00,9.96115e-27,9.99999e-01,1.30119e-26,7.65543e-01,9.99999e-01
1.330702199e+00,6.63593e-16,9.99999e-01,8.62264e-16,7.69593e-01,9.99999e-01
1.337355710e+00,1.40152e-14,9.99999e-01,1.81171e-14,7.73585e-01,9.99999e-01
1.344042489e+00,7.47254e-15,9.99999e-01,9.61076e-15,7.77517e-01,9.99999e-01
1.350762701e+00,3.25903e-16,9.99999e-01,4.17079e-16,7.81392e-01,9.99999e-01
1.357516515e+00,6.11147e-10,9.99999e-01,7.78324e-10,7.85208e-01,9.99999e-01
1.364304097e+00,2.53404e-07,9.99999e-01,3.21184e-07,7.88968e-01,9.99999e-01
1.371125618e+00,3.90591e-04,9.99999e-01,4.92753e-04,7.92670e-01,9.99999e-01
1.377981246e+00,1.10155e-03,9.99999e-01,1.38331e-03,7.96317e-01,9.99999e-01
1.384871152e+00,1.71721e-02,9.99999e-01,2.14676e-02,7.99907e-01,9.99999e-01
1.391795508e+00,2.32398e-02,9.99999e-01,2.89252e-02,8.03442e-01,9.99999e-01
1.398754485e+00,8.65042e-02,9.99999e-01,1.07202e-01,8.06923e-01,9.99999e-01
1.405748258e+00,1.59206e-01,9.99999e-01,1.96465e-01,8.10350e-01,9.99999e-01
1.412776999e+00,2.88455e-01,9.99999e-01,3.54488e-01,8.13723e-01,9.99999e-01
1.419840884e+00,2.74284e-01,9.99999e-01,3.35703e-01,8.17043e-01,9.99999e-01
1.426940089e+00,1.01695e-02,9.99998e-01,1.23971e-02,8.20310e-01,9.99999e-01
1.434074789e+00,0.00000e+00,9.99999e-01,0.00000e+00,8.23526e-01,9.99999e-01
1.441245163e+00,0.00000e+00,9.99999e-01,0.00000e+00,8.26690e-01,9.99999e-01
1.448451389e+00,0.00000e+00,9.99998e-01,0.00000e+00,8.29804e-01,9.99999e-01
1.455693646e+00,0.00000e+00,9.99999e-01,0.00000e+00,8.32867e-01,9.99999e-01
1.462972114e+00,0.00000e+00,9.99999e-01,0.00000e+00,8.35881e-01,9.99999e-01
1.470286975e+00,2.34609e-198,9.99999e-01,2.79680e-198,8.38846e-01,9.99999e-01
