#,Wave/freq,Total,N2,CO2,Rayleigh,CIA
4.000000000e-01,1.29771e-05,9.99999e-01,9.99999e-01,1.29771e-05,9.99999e-01
4.020000000e-01,1.62107e-05,9.99999e-01,9.99999e-01,1.62107e-05,9.99999e-01
4.040100000e-01,2.01568e-05,9.99999e-01,9.99999e-01,2.01568e-05,9.99999e-01
4.060300500e-01,2.49557e-05,9.99999e-01,9.99999e-01,2.49557e-05,9.99999e-01
4.080602003e-01,3.07672e-05,9.99999e-01,9.99999e-01,3.07672e-05,9.99999e-01
4.101005013e-01,3.77754e-05,9.99999e-01,9.99999e-01,3.77754e-05,9.99999e-01
4.121510038e-01,4.61923e-05,9.99999e-01,9.99999e-01,4.61923e-05,9.99999e-01
4.142117588e-01,5.62607e-05,9.99999e-01,9.99999e-01,5.62607e-05,9.99999e-01
4.162828176e-01,6.82574e-05,9.99999e-01,9.99999e-01,6.82574e-05,9.99999e-01
4.183642317e-01,8.24965e-05,9.99999e-01,9.99999e-01,8.24965e-05,9.99999e-01
4.204560528e-01,9.93335e-05,9.99999e-01,9.99999e-01,9.93335e-05,9.99999e-01
4.225583331e-01,1.19169e-04,9.99999e-01,9.99999e-01,1.19169e-04,9.99999e-01
4.246711247e-01,1.42452e-04,9.99999e-01,9.99999e-01,1.42452e-04,9.99999e-01
4.267944804e-01,1.69685e-04,9.99999e-01,9.99999e-01,1.69685e-04,9.99999e-01
4.289284528e-01,2.01427e-04,9.99999e-01,9.99999e-01,2.01427e-04,9.99999e-01
4.310730950e-01,2.38298e-04,9.99999e-01,9.99999e-01,2.38298e-04,9.99999e-01
4.332284605e-01,2.80983e-04,9.99999e-01,9.99999e-01,2.80983e-04,9.99999e-01
4.353946028e-01,3.30239e-04,9.99999e-01,9.99999e-01,3.30239e-04,9.99999e-01
4.375715758e-01,3.86892e-04,9.99999e-01,9.99999e-01,3.86892e-04,9.99999e-01
4.397594337e-01,4.51849e-04,9.99999e-01,9.99999e-01,4.51849e-04,9.99999e-01
4.419582309e-01,5.26097e-04,9.99999e-01,9.99999e-01,5.26097e-04,9.99999e-01
4.441680220e-01,6.10707e-04,9.99999e-01,9.99999e-01,6.10707e-04,9.99999e-01
4.463888621e-01,7.06839e-04,9.99999e-01,9.99999e-01,7.06839e-04,9.99999e-01
4.486208064e-01,8.15744e-04,9.99999e-01,9.99999e-01,8.15744e-04,9.99999e-01
4.508639105e-01,9.38769e-04,9.99999e-01,9.99999e-01,9.38769e-04,9.99999e-01
4.531182300e-01,1.07735e-03,9.99999e-01,9.99999e-01,1.07735e-03,9.99999e-01
4.553838212e-01,1.23304e-03,9.99999e-01,9.99999e-01,1.23304e-03,9.99999e-01
4.576607403e-01,1.40746e-03,9.99999e-01,9.99999e-01,1.40746e-03,9.99999e-01
4.599490440e-01,1.60237e-03,9.99999e-01,9.99999e-01,1.60237e-03,9.99999e-01
4.622487892e-01,1.81960e-03,9.99999e-01,9.99999e-01,1.81960e-03,9.99999e-01
4.645600332e-01,2.06109e-03,9.99999e-01,9.99999e-01,2.06109e-03,9.99999e-01
4.668828333e-01,2.32890e-03,9.99999e-01,9.99999e-01,2.32890e-03,9.99999e-01
4.692172475e-01,2.62516e-03,9.99999e-01,9.99999e-01,2.62516e-03,9.99999e-01
4.715633337e-01,2.95212e-03,9.99999e-01,9.99999e-01,2.95212e-03,9.99999e-01
4.739211504e-01,3.31211e-03,9.99999e-01,9.99999e-01,3.31211e-03,9.99999e-01
4.762907561e-01,3.70757e-03,9.99999e-01,9.99999e-01,3.70757e-03,9.99999e-01
4.786722099e-01,4.14100e-03,9.99999e-01,9.99999e-01,4.14100e-03,9.99999e-01
4.810655710e-01,4.61502e-03,9.99999e-01,9.99999e-01,4.61502e-03,9.99999e-01
4.834708988e-01,5.13230e-03,9.99999e-01,9.99999e-01,5.13230e-03,9.99999e-01
4.858882533e-01,5.69559e-03,9.99999e-01,9.99999e-01,5.69559e-03,9.99999e-01
4.883176946e-01,6.30772e-03,9.99999e-01,9.99999e-01,6.30772e-03,9.99999e-01
4.907592831e-01,6.97157e-03,9.99999e-01,9.99999e-01,6.97157e-03,9.99999e-01
4.932130795e-01,7.69007e-03,9.99999e-01,9.99999e-01,7.69007e-03,9.99999e-01
4.956791449e-01,8.46620e-03,9.99999e-01,9.99999e-01,8.46620e-03,9.99999e-01
4.981575406e-01,9.30297e-03,9.99999e-01,9.99999e-01,9.30297e-03,9.99999e-01
5.006483283e-01,1.02034e-02,9.99999e-01,9.99999e-01,1.02034e-02,9.99999e-01
5.031515699e-01,1.11707e-02,9.99999e-01,9.99999e-01,1.11707e-02,9.99999e-01
5.056673278e-01,1.22077e-02,9.99999e-01,9.99999e-01,1.22077e-02,9.99999e-01
5.081956644e-01,1.33176e-02,9.99999e-01,9.99999e-01,1.33176e-02,9.99999e-01
5.107366428e-01,1.45036e-02,9.99999e-01,9.99999e-01,1.45036e-02,9.99999e-01
5.132903260e-01,1.57685e-02,9.99999e-01,9.99999e-01,1.57685e-02,9.99999e-01
5.158567776e-01,1.71154e-02,9.99999e-01,9.99999e-01,1.71154e-02,9.99999e-01
5.184360615e-01,1.85474e-02,9.99999e-01,9.99999e-01,1.85474e-02,9.99999e-01
5.210282418e-01,2.00673e-02,9.99999e-01,9.99999e-01,2.00673e-02,9.99999e-01
5.236333830e-01,2.16780e-02,9.99999e-01,9.99999e-01,2.16780e-02,9.99999e-01
5.262515499e-01,2.33823e-02,9.99999e-01,9.99999e-01,2.33823e-02,9.99999e-01
5.288828077e-01,2.51829e-02,9.99999e-01,9.99999e-01,2.51829e-02,9.99999e-01
5.315272217e-01,2.70824e-02,9.99999e-01,9.99999e-01,2.70824e-02,9.99999e-01
5.341848578e-01,2.90834e-02,9.99999e-01,9.99999e-01,2.90834e-02,9.99999e-01
5.368557821e-01,3.11883e-02,9.99999e-01,9.99999e-01,3.11883e-02,9.99999e-01
5.395400610e-01,3.33995e-02,9.99999e-01,9.99999e-01,3.33995e-02,9.99999e-01
5.422377613e-01,3.57190e-02,9.99999e-01,9.99999e-01,3.57190e-02,9.99999e-01
5.449489501e-01,3.81490e-02,9.99999e-01,9.99999e-01,3.81490e-02,9.99999e-01
5.476736949e-01,4.06914e-02,9.99999e-01,9.99999e-01,4.06914e-02,9.99999e-01
5.504120634e-01,4.33479e-02,9.99999e-01,9.99999e-01,4.33479e-02,9.99999e-01
5.531641237e-01,4.61202e-02,9.99999e-01,9.99999e-01,4.61202e-02,9.99999e-01
5.559299443e-01,4.90098e-02,9.99999e-01,9.99999e-01,4.90098e-02,9.99999e-01
5.587095940e-01,5.20179e-02,9.99999e-01,9.99999e-01,5.20179e-02,9.99999e-01
5.615031420e-01,5.51458e-02,9.99999e-01,9.99999e-01,5.51458e-02,9.99999e-01
5.643106577e-01,5.83943e-02,9.99999e-01,9.99999e-01,5.83943e-02,9.99999e-01
5.671322110e-01,6.17643e-02,9.99999e-01,9.99999e-01,6.17643e-02,9.99999e-01
5.699678720e-01,6.52565e-02,9.99999e-01,9.99999e-01,6.52565e-02,9.99999e-01
5.728177114e-01,6.88712e-02,9.99999e-01,9.99999e-01,6.88712e-02,9.99999e-01
5.756818000e-01,7.26088e-02,9.99999e-01,9.99999e-01,7.26088e-02,9.99999e-01
5.785602090e-01,7.64694e-02,9.99999e-01,9.99999e-01,7.64694e-02,9.99999e-01
5.814530100e-01,8.04529e-02,9.99999e-01,9.99999e-01,8.04529e-02,9.99999e-01
5.843602750e-01,8.45590e-02,9.99999e-01,9.99999e-01,8.45590e-02,9.99999e-01
5.872820764e-01,8.87874e-02,9.99999e-01,9.99999e-01,8.87874e-02,9.99999e-01
5.902184868e-01,9.31373e-02,9.99999e-01,9.99999e-01,9.31373e-02,9.99999e-01
5.931695792e-01,9.76082e-02,9.99999e-01,9.99999e-01,9.76082e-02,9.99999e-01
5.961354271e-01,1.02199e-01,9.99999e-01,9.99999e-01,1.02199e-01,9.99999e-01
5.991161043e-01,1.06908e-01,9.99999e-01,9.99999e-01,1.06908e-01,9.99999e-01
6.021116848e-01,1.11736e-01,9.99999e-01,9.99999e-01,1.11736e-01,9.99999e-01
6.051222432e-01,1.16679e-01,9.99999e-01,9.99999e-01,1.16679e-01,9.99999e-01
6.081478544e-01,1.21737e-01,9.99999e-01,9.99999e-01,1.21737e-01,9.99999e-01
6.111885937e-01,1.26907e-01,9.99999e-01,9.99999e-01,1.26907e-01,9.99999e-01
6.142445367e-01,1.32189e-01,9.99999e-01,9.99999e-01,1.32189e-01,9.99999e-01
6.173157594e-01,1.37579e-01,9.99999e-01,9.99999e-01,1.37579e-01,9.99999e-01
6.204023382e-01,1.43077e-01,9.99999e-01,9.99999e-01,1.43077e-01,9.99999e-01
6.235043498e-01,1.48679e-01,9.99999e-01,9.99999e-01,1.48679e-01,9.99999e-01
6.266218716e-01,1.54383e-01,9.99999e-01,9.99999e-01,1.54383e-01,9.99999e-01
6.297549810e-01,1.60187e-01,9.99999e-01,9.99999e-01,1.60187e-01,9.99999e-01
6.329037559e-01,1.66087e-01,9.99999e-01,9.99999e-01,1.66087e-01,9.99999e-01
6.360682746e-01,1.72083e-01,9.99999e-01,9.99999e-01,1.72083e-01,9.99999e-01
6.392486160e-01,1.78169e-01,9.99999e-01,9.99999e-01,1.78169e-01,9.99999e-01
6.424448591e-01,1.84345e-01,9.99999e-01,9.99999e-01,1.84345e-01,9.99999e-01
6.456570834e-01,1.90606e-01,9.99999e-01,9.99999e-01,1.90606e-01,9.99999e-01
6.488853688e-01,1.96950e-01,9.99999e-01,9.99999e-01,1.96950e-01,9.99999e-01
6.521297956e-01,2.03373e-01,9.99999e-01,9.99999e-01,2.03373e-01,9.99999e-01
6.553904446e-01,2.09873e-01,9.99999e-01,9.99999e-01,2.09873e-01,9.99999e-01
6.586673968e-01,2.16446e-01,9.99999e-01,9.99999e-01,2.16446e-01,9.99999e-01
6.619607338e-01,2.23089e-01,9.99999e-01,9.99999e-01,2.23089e-01,9.99999e-01
6.652705375e-01,2.29799e-01,9.99999e-01,9.99999e-01,2.29799e-01,9.99999e-01
6.685968902e-01,2.36571e-01,9.99999e-01,9.99999e-01,2.36571e-01,9.99999e-01
6.719398746e-01,2.43404e-01,9.99999e-01,9.99999e-01,2.43404e-01,9.99999e-01
6.752995740e-01,2.50294e-01,9.99999e-01,9.99999e-01,2.50294e-01,9.99999e-01
6.786760719e-01,2.57236e-01,9.99999e-01,9.99999e-01,2.57236e-01,9.99999e-01
6.820694522e-01,2.64228e-01,9.99999e-01,9.99999e-01,2.64228e-01,9.99999e-01
6.854797995e-01,2.71267e-01,9.99999e-01,9.99999e-01,2.71267e-01,9.99999e-01
6.889071985e-01,2.78348e-01,9.99999e-01,9.99999e-01,2.78348e-01,9.99999e-01
6.923517345e-01,2.85469e-01,9.99999e-01,9.99999e-01,2.85469e-01,9.99999e-01
6.958134932e-01,2.92626e-01,9.99999e-01,9.99999e-01,2.92626e-01,9.99999e-01
6.992925606e-01,2.99816e-01,9.99999e-01,9.99999e-01,2.99816e-01,9.99999e-01
7.027890234e-01,3.07035e-01,9.99999e-01,9.99999e-01,3.07035e-01,9.99999e-01
7.063029686e-01,3.14280e-01,9.99999e-01,9.99999e-01,3.14280e-01,9.99999e-01
7.098344834e-01,3.21549e-01,9.99999e-01,9.99999e-01,3.21549e-01,9.99999e-01
7.133836558e-01,3.28836e-01,9.99999e-01,9.99999e-01,3.28836e-01,9.99999e-01
7.169505741e-01,3.36140e-01,9.99999e-01,9.99999e-01,3.36140e-01,9.99999e-01
7.205353270e-01,3.43457e-01,9.99999e-01,9.99999e-01,3.43457e-01,9.99999e-01
7.241380036e-01,3.50785e-01,9.99999e-01,9.99999e-01,3.50785e-01,9.99999e-01
7.277586936e-01,3.58119e-01,9.99999e-01,9.99999e-01,3.58119e-01,9.99999e-01
7.313974871e-01,3.65457e-01,9.99999e-01,9.99999e-01,3.65457e-01,9.99999e-01
7.350544745e-01,3.72796e-01,9.99999e-01,9.99999e-01,3.72796e-01,9.99999e-01
7.387297469e-01,3.80133e-01,9.99999e-01,9.99999e-01,3.80133e-01,9.99999e-01
7.424233956e-01,3.87466e-01,9.99999e-01,9.99999e-01,3.87466e-01,9.99999e-01
7.461355126e-01,3.94790e-01,9.99999e-01,9.99999e-01,3.94790e-01,9.99999e-01
7.498661902e-01,4.02105e-01,9.99999e-01,9.99999e-01,4.02105e-01,9.99999e-01
7.536155211e-01,4.09406e-01,9.99999e-01,9.99999e-01,4.09406e-01,9.99999e-01
7.573835987e-01,4.16692e-01,9.99999e-01,9.99999e-01,4.16692e-01,9.99999e-01
7.611705167e-01,4.23960e-01,9.99999e-01,9.99999e-01,4.23960e-01,9.99999e-01
7.649763693e-01,4.31207e-01,9.99999e-01,9.99999e-01,4.31207e-01,9.99999e-01
7.688012511e-01,4.38432e-01,9.99999e-01,9.99999e-01,4.38432e-01,9.99999e-01
7.726452574e-01,4.45631e-01,9.99999e-01,9.99999e-01,4.45631e-01,9.99999e-01
7.765084837e-01,4.52803e-01,9.99999e-01,9.99999e-01,4.52803e-01,9.99999e-01
7.803910261e-01,4.43487e-01,9.99999e-01,9.64217e-01,4.59945e-01,9.99999e-01
7.842929812e-01,3.97616e-01,9.99999e-01,8.51326e-01,4.67055e-01,9.99999e-01
7.882144461e-01,3.99068e-01,9.99999e-01,8.41681e-01,4.74132e-01,9.99999e-01
7.921555184e-01,4.35079e-01,9.99999e-01,9.04206e-01,4.81172e-01,9.99999e-01
7.961162960e-01,4.56356e-01,9.99999e-01,9.34818e-01,4.88175e-01,9.99999e-01
8.000968774e-01,4.77376e-01,9.99999e-01,9.64124e-01,4.95139e-01,9.99999e-01
8.040973618e-01,4.92653e-01,9.99999e-01,9.81258e-01,5.02062e-01,9.99999e-01
8.081178486e-01,5.04541e-01,9.99999e-01,9.91351e-01,5.08942e-01,9.99999e-01
8.121584379e-01,5.14397e-01,9.99999e-01,9.97323e-01,5.15777e-01,9.99999e-01
8.162192301e-01,5.22258e-01,9.99999e-01,9.99408e-01,5.22567e-01,9.99999e-01
8.203003262e-01,5.29304e-01,9.99999e-01,9.99990e-01,5.29309e-01,9.99999e-01
8.244018279e-01,5.36002e-01,9.99999e-01,9.99999e-01,5.36002e-01,9.99999e-01
8.285238370e-01,5.42645e-01,9.99999e-01,9.99999e-01,5.42645e-01,9.99999e-01
8.326664562e-01,5.49237e-01,9.99999e-01,9.99999e-01,5.49237e-01,9.99999e-01
8.368297885e-01,5.55777e-01,9.99999e-01,9.99999e-01,5.55777e-01,9.99999e-01
8.410139374e-01,5.62263e-01,9.99999e-01,9.99999e-01,5.62263e-01,9.99999e-01
8.452190071e-01,5.68694e-01,9.99999e-01,9.99999e-01,5.68694e-01,9.99999e-01
8.494451021e-01,5.75069e-01,9.99999e-01,9.99999e-01,5.75069e-01,9.99999e-01
8.536923276e-01,5.81388e-01,9.99999e-01,9.99999e-01,5.81388e-01,9.99999e-01
8.579607893e-01,5.87650e-01,9.99999e-01,9.99999e-01,5.87650e-01,9.99999e-01
8.622505932e-01,5.93853e-01,9.99999e-01,9.99999e-01,5.93853e-01,9.99999e-01
8.665618462e-01,5.53438e-01,9.99999e-01,9.22400e-01,5.99998e-01,9.99999e-01
8.708946554e-01,4.02871e-01,9.99999e-01,6.64712e-01,6.06082e-01,9.99999e-01
8.752491287e-01,4.40327e-01,9.99999e-01,7.19362e-01,6.12107e-01,9.99999e-01
8.796253743e-01,5.15678e-01,9.99999e-01,8.34335e-01,6.18070e-01,9.99999e-01
8.840235012e-01,5.68008e-01,9.99999e-01,9.10308e-01,6.23972e-01,9.99999e-01
8.884436187e-01,6.06920e-01,9.99999e-01,9.63651e-01,6.29813e-01,9.99999e-01
8.928858368e-01,6.26130e-01,9.99999e-01,9.85115e-01,6.35591e-01,9.99999e-01
8.973502660e-01,6.38977e-01,9.99999e-01,9.96367e-01,6.41306e-01,9.99999e-01
9.018370173e-01,6.46699e-01,9.99999e-01,9.99598e-01,6.46958e-01,9.99999e-01
9.063462024e-01,6.45851e-01,9.99999e-01,9.89737e-01,6.52547e-01,9.99999e-01
9.108779334e-01,6.42681e-01,9.99999e-01,9.76610e-01,6.58072e-01,9.99999e-01
9.154323231e-01,6.59862e-01,9.99999e-01,9.94465e-01,6.63534e-01,9.99999e-01
9.200094847e-01,6.17204e-01,9.99999e-01,9.22670e-01,6.68932e-01,9.99999e-01
9.246095321e-01,6.00516e-01,9.99999e-01,8.90622e-01,6.74266e-01,9.99999e-01
9.292325798e-01,6.20573e-01,9.99999e-01,9.13231e-01,6.79535e-01,9.99999e-01
9.338787427e-01,6.27226e-01,9.99999e-01,9.16005e-01,6.84741e-01,9.99999e-01
9.385481364e-01,6.46801e-01,9.99999e-01,9.37552e-01,6.89882e-01,9.99999e-01
9.432408771e-01,6.68064e-01,9.99999e-01,9.61298e-01,6.94960e-01,9.99999e-01
9.479570815e-01,6.85942e-01,9.99999e-01,9.79953e-01,6.99973e-01,9.99999e-01
9.526968669e-01,6.98076e-01,9.99999e-01,9.90287e-01,7.04922e-01,9.99999e-01
9.574603512e-01,7.06853e-01,9.99999e-01,9.95836e-01,7.09808e-01,9.99999e-01
9.622476530e-01,7.13701e-01,9.99999e-01,9.98699e-01,7.14630e-01,9.99999e-01
9.670588912e-01,7.19108e-01,9.99999e-01,9.99610e-01,7.19388e-01,9.99999e-01
9.718941857e-01,7.24064e-01,9.99999e-01,9.99972e-01,7.24084e-01,9.99999e-01
9.767536566e-01,7.28716e-01,9.99999e-01,9.99999e-01,7.28716e-01,9.99999e-01
9.816374249e-01,7.33285e-01,9.99999e-01,9.99999e-01,7.33285e-01,9.99999e-01
9.865456120e-01,7.37792e-01,9.99999e-01,9.99999e-01,7.37792e-01,9.99999e-01
9.914783401e-01,7.42237e-01,9.99999e-01,9.99999e-01,7.42237e-01,9.99999e-01
9.964357318e-01,7.46621e-01,9.99999e-01,9.99999e-01,7.46621e-01,9.99999e-01
1.001417910e+00,7.50942e-01,9.99999e-01,9.99999e-01,7.50942e-01,9.99999e-01
1.006425000e+00,7.55203e-01,9.99999e-01,9.99999e-01,7.55203e-01,9.99999e-01
1.011457125e+00,7.59403e-01,9.99999e-01,9.99999e-01,7.59403e-01,9.99999e-01
1.016514411e+00,7.63542e-01,9.99999e-01,9.99999e-01,7.63542e-01,9.99999e-01
1.021596983e+00,7.67580e-01,9.99999e-01,9.99944e-01,7.67622e-01,9.99999e-01
1.026704968e+00,7.68546e-01,9.99999e-01,9.95987e-01,7.71642e-01,9.99999e-01
1.031838492e+00,7.39527e-01,9.99999e-01,9.53485e-01,7.75604e-01,9.99999e-01
1.036997685e+00,1.12048e-01,9.99999e-01,1.43743e-01,7.79506e-01,9.99999e-01
1.042182673e+00,8.24482e-02,9.99999e-01,1.05250e-01,7.83351e-01,9.99999e-01
1.047393587e+00,1.01081e-01,9.99999e-01,1.28415e-01,7.87138e-01,9.99999e-01
1.052630555e+00,2.29842e-03,9.99999e-01,2.90619e-03,7.90869e-01,9.99999e-01
1.057893707e+00,6.05838e-03,9.99999e-01,7.62499e-03,7.94542e-01,9.99999e-01
1.063183176e+00,2.17527e-02,9.99999e-01,2.72535e-02,7.98160e-01,9.99999e-01
1.068499092e+00,6.47644e-02,9.99999e-01,8.07815e-02,8.01722e-01,9.99999e-01
1.073841587e+00,1.64038e-01,9.99999e-01,2.03716e-01,8.05230e-01,9.99999e-01
1.079210795e+00,2.95242e-01,9.99999e-01,3.65090e-01,8.08682e-01,9.99999e-01
1.084606849e+00,4.66056e-01,9.99999e-01,5.73903e-01,8.12081e-01,9.99999e-01
1.090029883e+00,6.11125e-01,9.99999e-01,7.49453e-01,8.15427e-01,9.99999e-01
1.095480033e+00,7.10260e-01,9.99999e-01,8.67524e-01,8.18720e-01,9.99999e-01
1.100957433e+00,7.67562e-01,9.99999e-01,9.33817e-01,8.21961e-01,9.99999e-01
1.106462220e+00,8.02116e-01,9.99999e-01,9.72084e-01,8.25151e-01,9.99999e-01
1.111994531e+00,8.19643e-01,9.99999e-01,9.89561e-01,8.28289e-01,9.99999e-01
1.117554504e+00,8.29252e-01,9.99999e-01,9.97442e-01,8.31377e-01,9.99999e-01
1.123142276e+00,8.34275e-01,9.99999e-01,9.99831e-01,8.34415e-01,9.99999e-01
1.128757988e+00,8.37404e-01,9.99999e-01,9.99999e-01,8.37404e-01,9.99999e-01
1.134401778e+00,8.40344e-01,9.99999e-01,9.99999e-01,8.40344e-01,9.99999e-01
1.140073787e+00,8.43237e-01,9.99999e-01,9.99999e-01,8.43237e-01,9.99999e-01
1.145774156e+00,8.46081e-01,9.99999e-01,9.99999e-01,8.46081e-01,9.99999e-01
1.151503026e+00,8.48879e-01,9.99999e-01,9.99999e-01,8.48879e-01,9.99999e-01
1.157260541e+00,8.51631e-01,9.99999e-01,9.99999e-01,8.51631e-01,9.99999e-01
1.163046844e+00,8.54337e-01,9.99999e-01,9.99999e-01,8.54337e-01,9.99999e-01
1.168862078e+00,8.56997e-01,9.99999e-01,9.99999e-01,8.56997e-01,9.99999e-01
1.174706389e+00,8.59614e-01,9.99999e-01,9.99999e-01,8.59614e-01,9.99999e-01
1.180579921e+00,8.62186e-01,9.99999e-01,9.99999e-01,8.62186e-01,9.99999e-01
1.186482820e+00,8.64709e-01,9.99999e-01,9.99992e-01,8.64715e-01,9.99999e-01
1.192415234e+00,8.54851e-01,9.99999e-01,9.85757e-01,8.67201e-01,9.99999e-01
1.198377311e+00,4.86702e-01,9.99999e-01,5.59655e-01,8.69645e-01,9.99999e-01
1.204369197e+00,7.70109e-12,9.99999e-01,8.83103e-12,8.72048e-01,9.99999e-01
1.210391043e+00,1.88719e-43,9.99999e-01,2.15824e-43,8.74409e-01,9.99999e-01
1.216442998e+00,8.47926e-38,9.99999e-01,9.67145e-38,8.76730e-01,9.99999e-01
1.222525213e+00,2.97722e-37,9.99999e-01,3.38701e-37,8.79012e-01,9.99999e-01
1.228637839e+00,7.40489e-29,9.99999e-01,8.40267e-29,8.81254e-01,9.99999e-01
1.234781029e+00,1.20957e-18,9.99999e-01,1.36913e-18,8.83457e-01,9.99999e-01
1.240954934e+00,1.39490e-12,9.99999e-01,1.57505e-12,8.85622e-01,9.99999e-01
1.247159708e+00,6.19690e-07,9.99999e-01,6.98046e-07,8.87749e-01,9.99999e-01
1.253395507e+00,1.69590e-04,9.99999e-01,1.90585e-04,8.89839e-01,9.99999e-01
1.259662485e+00,6.54250e-03,9.99999e-01,7.33552e-03,8.91893e-01,9.99999e-01
1.265960797e+00,5.22128e-02,9.99999e-01,5.84094e-02,8.93911e-01,9.99999e-01
1.272290601e+00,2.67872e-01,9.99999e-01,2.98999e-01,8.95893e-01,9.99999e-01
1.278652054e+00,2.28576e-01,9.99999e-01,2.54583e-01,8.97841e-01,9.99999e-01
1.285045314e+00,4.10153e-03,9.99999e-01,4.55850e-03,8.99754e-01,9.99999e-01
1.291470541e+00,8.96362e-06,9.99999e-01,9.94152e-06,9.01633e-01,9.99999e-01
1.297927893e+00,3.35082e-03,9.99999e-01,3.70879e-03,9.03479e-01,9.99999e-01
1.304417533e+00,1.00393e-01,9.99999e-01,1.10895e-01,9.05292e-01,9.99999e-01
1.310939621e+00,2.40873e-02,9.99999e-01,2.65550e-02,9.07073e-01,9.99999e-01
1.317494319e+00,2.14925e-15,9.99999e-01,2.36487e-15,9.08822e-01,9.99999e-01
1.324081790e+00,1.27913e-10,9.99999e-01,1.40480e-10,9.10540e-01,9.99999e-01
1.330702199e+00,2.78119e-06,9.99999e-01,3.04879e-06,9.12227e-01,9.99999e-01
1.337355710e+00,3.97482e-06,9.99999e-01,4.34937e-06,9.13884e-01,9.99999e-01
1.344042489e+00,1.22653e-06,9.99999e-01,1.33972e-06,9.15511e-01,9.99999e-01
1.350762701e+00,1.70388e-06,9.99999e-01,1.85788e-06,9.17109e-01,9.99999e-01
1.357516515e+00,2.02923e-04,9.99999e-01,2.20886e-04,9.18678e-01,9.99999e-01
1.364304097e+00,3.69106e-03,9.99999e-01,4.01107e-03,9.20218e-01,9.99999e-01
1.371125618e+00,5.21636e-02,9.99999e-01,5.65931e-02,9.21731e-01,9.99999e-01
1.377981246e+00,8.66965e-02,9.99999e-01,9.39070e-02,9.23216e-01,9.99999e-01
1.384871152e+00,2.33467e-01,9.99999e-01,2.52486e-01,9.24674e-01,9.99999e-01
1.391795508e+00,2.59595e-01,9.99999e-01,2.80308e-01,9.26105e-01,9.99999e-01
1.398754485e+00,4.22742e-01,9.99999e-01,4.55781e-01,9.27511e-01,9.99999e-01
1.405748258e+00,5.21065e-01,9.99999e-01,5.60953e-01,9.28890e-01,9.99999e-01
1.412776999e+00,6.45548e-01,9.99999e-01,6.93955e-01,9.30245e-01,9.99999e-01
1.419840884e+00,5.80087e-01,9.99999e-01,6.22695e-01,9.31574e-01,9.99999e-01
1.426940089e+00,5.10755e-02,9.99999e-01,5.47504e-02,9.32879e-01,9.99999e-01
1.434074789e+00,0.00000e+00,9.99999e-01,0.00000e+00,9.34160e-01,9.99999e-01
1.441245163e+00,0.00000e+00,9.99999e-01,0.00000e+00,9.35418e-01,9.99999e-01
1.448451389e+00,0.00000e+00,9.99999e-01,0.00000e+00,9.36652e-01,9.99999e-01
1.455693646e+00,0.00000e+00,9.99999e-01,0.00000e+00,9.37864e-01,9.99999e-01
1.462972114e+00,1.80324e-169,9.99999e-01,1.92027e-169,9.39053e-01,9.99999e-01
1.470286975e+00,4.67084e-71,9.99999e-01,4.96781e-71,9.40220e-01,9.99999e-01
