#,Wave/freq,Total,N2,CO2,Rayleigh,CIA
4.000000000e-01,9.69712e-07,9.99999e-01,9.99999e-01,9.69712e-07,9.99999e-01
4.020000000e-01,1.27510e-06,9.99999e-01,9.99999e-01,1.27510e-06,9.99999e-01
4.040100000e-01,1.66715e-06,9.99999e-01,9.99999e-01,1.66715e-06,9.99999e-01
4.060300500e-01,2.16823e-06,9.99999e-01,9.99999e-01,2.16823e-06,9.99999e-01
4.080602003e-01,2.80532e-06,9.99999e-01,9.99999e-01,2.80532e-06,9.99999e-01
4.101005013e-01,3.61117e-06,9.99999e-01,9.99999e-01,3.61117e-06,9.99999e-01
4.121510038e-01,4.62539e-06,9.99999e-01,9.99999e-01,4.62539e-06,9.99999e-01
4.142117588e-01,5.89555e-06,9.99999e-01,9.99999e-01,5.89555e-06,9.99999e-01
4.162828176e-01,7.47859e-06,9.99999e-01,9.99999e-01,7.47859e-06,9.99999e-01
4.183642317e-01,9.44223e-06,9.99999e-01,9.99999e-01,9.44223e-06,9.99999e-01
4.204560528e-01,1.18667e-05,9.99999e-01,9.99999e-01,1.18667e-05,9.99999e-01
4.225583331e-01,1.48465e-05,9.99999e-01,9.99999e-01,1.48465e-05,9.99999e-01
4.246711247e-01,1.84925e-05,9.99999e-01,9.99999e-01,1.84925e-05,9.99999e-01
4.267944804e-01,2.29342e-05,9.99999e-01,9.99999e-01,2.29342e-05,9.99999e-01
4.289284528e-01,2.83222e-05,9.99999e-01,9.99999e-01,2.83222e-05,9.99999e-01
4.310730950e-01,3.48304e-05,9.99999e-01,9.99999e-01,3.48304e-05,9.99999e-01
4.332284605e-01,4.26595e-05,9.99999e-01,9.99999e-01,4.26595e-05,9.99999e-01
4.353946028e-01,5.20395e-05,9.99999e-01,9.99999e-01,5.20395e-05,9.99999e-01
4.375715758e-01,6.32334e-05,9.99999e-01,9.99999e-01,6.32334e-05,9.99999e-01
4.397594337e-01,7.65400e-05,9.99999e-01,9.99999e-01,7.65400e-05,9.99999e-01
4.419582309e-01,9.22979e-05,9.99999e-01,9.99999e-01,9.22979e-05,9.99999e-01
4.441680220e-01,1.10889e-04,9.99999e-01,9.99999e-01,1.10889e-04,9.99999e-01
4.463888621e-01,1.32743e-04,9.99999e-01,9.99999e-01,1.32743e-04,9.99999e-01
4.486208064e-01,1.58341e-04,9.99999e-01,9.99999e-01,1.58341e-04,9.99999e-01
4.508639105e-01,1.88217e-04,9.99999e-01,9.99999e-01,1.88217e-04,9.99999e-01
4.531182300e-01,2.22969e-04,9.99999e-01,9.99999e-01,2.22969e-04,9.99999e-01
4.553838212e-01,2.63254e-04,9.99999e-01,9.99999e-01,2.63254e-04,9.99999e-01
4.576607403e-01,3.09801e-04,9.99999e-01,9.99999e-01,3.09801e-04,9.99999e-01
4.599490440e-01,3.63406e-04,9.99999e-01,9.99999e-01,3.63406e-04,9.99999e-01
4.622487892e-01,4.24945e-04,9.99999e-01,9.99999e-01,4.24945e-04,9.99999e-01
4.645600332e-01,4.95372e-04,9.99999e-01,9.99999e-01,4.95372e-04,9.99999e-01
4.668828333e-01,5.75725e-04,9.99999e-01,9.99999e-01,5.75725e-04,9.99999e-01
4.692172475e-01,6.67127e-04,9.99999e-01,9.99999e-01,6.67127e-04,9.99999e-01
4.715633337e-01,7.70794e-04,9.99999e-01,9.99999e-01,7.70794e-04,9.99999e-01
4.739211504e-01,8.88033e-04,9.99999e-01,9.99999e-01,8.88033e-04,9.99999e-01
4.762907561e-01,1.02025e-03,9.99999e-01,9.99999e-01,1.02025e-03,9.99999e-01
4.786722099e-01,1.16894e-03,9.99999e-01,9.99999e-01,1.16894e-03,9.99999e-01
4.810655710e-01,1.33570e-03,9.99999e-01,9.99999e-01,1.33570e-03,9.99999e-01
4.834708988e-01,1.52224e-03,9.99999e-01,9.99999e-01,1.52224e-03,9.99999e-01
4.858882533e-01,1.73036e-03,9.99999e-01,9.99999e-01,1.73036e-03,9.99999e-01
4.883176946e-01,1.96196e-03,9.99999e-01,9.99999e-01,1.96196e-03,9.99999e-01
4.907592831e-01,2.21904e-03,9.99999e-01,9.99999e-01,2.21904e-03,9.99999e-01
4.932130795e-01,2.50372e-03,9.99999e-01,9.99999e-01,2.50372e-03,9.99999e-01
4.956791449e-01,2.81819e-03,9.99999e-01,9.99999e-01,2.81819e-03,9.99999e-01
4.981575406e-01,3.16475e-03,9.99999e-01,9.99999e-01,3.16475e-03,9.99999e-01
5.006483283e-01,3.54580e-03,9.99999e-01,9.99999e-01,3.54580e-03,9.99999e-01
5.031515699e-01,3.96381e-03,9.99999e-01,9.99999e-01,3.96381e-03,9.99999e-01
5.056673278e-01,4.42137e-03,9.99999e-01,9.99999e-01,4.42137e-03,9.99999e-01
5.081956644e-01,4.92110e-03,9.99999e-01,9.99999e-01,4.92110e-03,9.99999e-01
5.107366428e-01,5.46575e-03,9.99999e-01,9.99999e-01,5.46575e-03,9.99999e-01
5.132903260e-01,6.05811e-03,9.99999e-01,9.99999e-01,6.05811e-03,9.99999e-01
5.158567776e-01,6.70103e-03,9.99999e-01,9.99999e-01,6.70103e-03,9.99999e-01
5.184360615e-01,7.39742e-03,9.99999e-01,9.99999e-01,7.39742e-03,9.99999e-01
5.210282418e-01,8.15026e-03,9.99999e-01,9.99999e-01,8.15026e-03,9.99999e-01
5.236333830e-01,8.96254e-03,9.99999e-01,9.99999e-01,8.96254e-03,9.99999e-01
5.262515499e-01,9.83729e-03,9.99999e-01,9.99999e-01,9.83729e-03,9.99999e-01
5.288828077e-01,1.07776e-02,9.99999e-01,9.99999e-01,1.07776e-02,9.99999e-01
5.315272217e-01,1.17865e-02,9.99999e-01,9.99999e-01,1.17865e-02,9.99999e-01
5.341848578e-01,1.28670e-02,9.99999e-01,9.99999e-01,1.28670e-02,9.99999e-01
5.368557821e-01,1.40224e-02,9.99999e-01,9.99999e-01,1.40224e-02,9.99999e-01
5.395400610e-01,1.52555e-02,9.99999e-01,9.99999e-01,1.52555e-02,9.99999e-01
5.422377613e-01,1.65694e-02,9.99999e-01,9.99999e-01,1.65694e-02,9.99999e-01
5.449489501e-01,1.79672e-02,9.99999e-01,9.99999e-01,1.79672e-02,9.99999e-01
5.476736949e-01,1.94518e-02,9.99999e-01,9.99999e-01,1.94518e-02,9.99999e-01
5.504120634e-01,2.10260e-02,9.99999e-01,9.99999e-01,2.10260e-02,9.99999e-01
5.531641237e-01,2.26927e-02,9.99999e-01,9.99999e-01,2.26927e-02,9.99999e-01
5.559299443e-01,2.44547e-02,9.99999e-01,9.99999e-01,2.44547e-02,9.99999e-01
5.587095940e-01,2.63145e-02,9.99999e-01,9.99999e-01,2.63145e-02,9.99999e-01
5.615031420e-01,2.82749e-02,9.99999e-01,9.99999e-01,2.82749e-02,9.99999e-01
5.643106577e-01,3.03382e-02,9.99999e-01,9.99999e-01,3.03382e-02,9.99999e-01
5.671322110e-01,3.25068e-02,9.99999e-01,9.99999e-01,3.25068e-02,9.99999e-01
5.699678720e-01,3.47829e-02,9.99999e-01,9.99999e-01,3.47829e-02,9.99999e-01
5.728177114e-01,3.71687e-02,9.99999e-01,9.99999e-01,3.71687e-02,9.99999e-01
5.756818000e-01,3.96661e-02,9.99999e-01,9.99999e-01,3.96661e-02,9.99999e-01
5.785602090e-01,4.22770e-02,9.99999e-01,9.99999e-01,4.22770e-02,9.99999e-01
5.814530100e-01,4.50031e-02,9.99999e-01,9.99999e-01,4.50031e-02,9.99999e-01
5.843602750e-01,4.78458e-02,9.99999e-01,9.99999e-01,4.78458e-02,9.99999e-01
5.872820764e-01,5.08067e-02,9.99999e-01,9.99999e-01,5.08067e-02,9.99999e-01
5.902184868e-01,5.38867e-02,9.99999e-01,9.99999e-01,5.38867e-02,9.99999e-01
5.931695792e-01,5.70871e-02,9.99999e-01,9.99999e-01,5.70871e-02,9.99999e-01
5.961354271e-01,6.04087e-02,9.99999e-01,9.99999e-01,6.04087e-02,9.99999e-01
5.991161043e-01,6.38522e-02,9.99999e-01,9.99999e-01,6.38522e-02,9.99999e-01
6.021116848e-01,6.74181e-02,9.99999e-01,9.99999e-01,6.74181e-02,9.99999e-01
6.051222432e-01,7.11068e-02,9.99999e-01,9.99999e-01,7.11068e-02,9.99999e-01
6.081478544e-01,7.49185e-02,9.99999e-01,9.99999e-01,7.49185e-02,9.99999e-01
6.111885937e-01,7.88530e-02,9.99999e-01,9.99999e-01,7.88530e-02,9.99999e-01
6.142445367e-01,8.29104e-02,9.99999e-01,9.99999e-01,8.29104e-02,9.99999e-01
6.173157594e-01,8.70902e-02,9.99999e-01,9.99999e-01,8.70902e-02,9.99999e-01
6.204023382e-01,9.13918e-02,9.99999e-01,9.99999e-01,9.13918e-02,9.99999e-01
6.235043498e-01,9.58147e-02,9.99999e-01,9.99999e-01,9.58147e-02,9.99999e-01
6.266218716e-01,1.00358e-01,9.99999e-01,9.99999e-01,1.00358e-01,9.99999e-01
6.297549810e-01,1.05020e-01,9.99999e-01,9.99999e-01,1.05020e-01,9.99999e-01
6.329037559e-01,1.09801e-01,9.99999e-01,9.99999e-01,1.09801e-01,9.99999e-01
6.360682746e-01,1.14698e-01,9.99999e-01,9.99999e-01,1.14698e-01,9.99999e-01
6.392486160e-01,1.19710e-01,9.99999e-01,9.99999e-01,1.19710e-01,9.99999e-01
6.424448591e-01,1.24836e-01,9.99999e-01,9.99999e-01,1.24836e-01,9.99999e-01
6.456570834e-01,1.30074e-01,9.99999e-01,9.99999e-01,1.30074e-01,9.99999e-01
6.488853688e-01,1.35421e-01,9.99999e-01,9.99999e-01,1.35421e-01,9.99999e-01
6.521297956e-01,1.40877e-01,9.99999e-01,9.99999e-01,1.40877e-01,9.99999e-01
6.553904446e-01,1.46437e-01,9.99999e-01,9.99999e-01,1.46437e-01,9.99999e-01
6.586673968e-01,1.52101e-01,9.99999e-01,9.99999e-01,1.52101e-01,9.99999e-01
6.619607338e-01,1.57865e-01,9.99999e-01,9.99999e-01,1.57865e-01,9.99999e-01
6.652705375e-01,1.63728e-01,9.99999e-01,9.99999e-01,1.63728e-01,9.99999e-01
6.685968902e-01,1.69686e-01,9.99999e-01,9.99999e-01,1.69686e-01,9.99999e-01
6.719398746e-01,1.75736e-01,9.99999e-01,9.99999e-01,1.75736e-01,9.99999e-01
6.752995740e-01,1.81877e-01,9.99999e-01,9.99999e-01,1.81877e-01,9.99999e-01
6.786760719e-01,1.88104e-01,9.99999e-01,9.99999e-01,1.88104e-01,9.99999e-01
6.820694522e-01,1.94416e-01,9.99999e-01,9.99999e-01,1.94416e-01,9.99999e-01
6.854797995e-01,2.00808e-01,9.99999e-01,9.99999e-01,2.00808e-01,9.99999e-01
6.889071985e-01,2.07278e-01,9.99999e-01,9.99999e-01,2.07278e-01,9.99999e-01
6.923517345e-01,2.13822e-01,9.99999e-01,9.99999e-01,2.13822e-01,9.99999e-01
6.958134932e-01,2.20437e-01,9.99999e-01,9.99999e-01,2.20437e-01,9.99999e-01
6.992925606e-01,2.27121e-01,9.99999e-01,9.99999e-01,2.27121e-01,9.99999e-01
7.027890234e-01,2.33869e-01,9.99999e-01,9.99999e-01,2.33869e-01,9.99999e-01
7.063029686e-01,2.40678e-01,9.99999e-01,9.99999e-01,2.40678e-01,9.99999e-01
7.098344834e-01,2.47546e-01,9.99999e-01,9.99999e-01,2.47546e-01,9.99999e-01
7.133836558e-01,2.54467e-01,9.99999e-01,9.99999e-01,2.54467e-01,9.99999e-01
7.169505741e-01,2.61440e-01,9.99999e-01,9.99999e-01,2.61440e-01,9.99999e-01
7.205353270e-01,2.68461e-01,9.99999e-01,9.99999e-01,2.68461e-01,9.99999e-01
7.241380036e-01,2.75525e-01,9.99999e-01,9.99999e-01,2.75525e-01,9.99999e-01
7.277586936e-01,2.82631e-01,9.99999e-01,9.99999e-01,2.82631e-01,9.99999e-01
7.313974871e-01,2.89774e-01,9.99999e-01,9.99999e-01,2.89774e-01,9.99999e-01
7.350544745e-01,2.96951e-01,9.99999e-01,9.99999e-01,2.96951e-01,9.99999e-01
7.387297469e-01,3.04159e-01,9.99999e-01,9.99999e-01,3.04159e-01,9.99999e-01
7.424233956e-01,3.11394e-01,9.99999e-01,9.99999e-01,3.11394e-01,9.99999e-01
7.461355126e-01,3.18654e-01,9.99999e-01,9.99999e-01,3.18654e-01,9.99999e-01
7.498661902e-01,3.25934e-01,9.99999e-01,9.99999e-01,3.25934e-01,9.99999e-01
7.536155211e-01,3.33232e-01,9.99999e-01,9.99999e-01,3.33232e-01,9.99999e-01
7.573835987e-01,3.40544e-01,9.99999e-01,9.99999e-01,3.40544e-01,9.99999e-01
7.611705167e-01,3.47868e-01,9.99999e-01,9.99999e-01,3.47868e-01,9.99999e-01
7.649763693e-01,3.55200e-01,9.99999e-01,9.99999e-01,3.55200e-01,9.99999e-01
7.688012511e-01,3.62537e-01,9.99999e-01,9.99999e-01,3.62537e-01,9.99999e-01
7.726452574e-01,3.69876e-01,9.99999e-01,9.99999e-01,3.69876e-01,9.99999e-01
7.765084837e-01,3.77214e-01,9.99999e-01,9.99999e-01,3.77214e-01,9.99999e-01
7.803910261e-01,3.68591e-01,9.99999e-01,9.58503e-01,3.84549e-01,9.99999e-01
7.842929812e-01,3.21655e-01,9.99999e-01,8.20805e-01,3.91877e-01,9.99999e-01
7.882144461e-01,3.23607e-01,9.99999e-01,8.10647e-01,3.99196e-01,9.99999e-01
7.921555184e-01,3.59293e-01,9.99999e-01,8.83864e-01,4.06503e-01,9.99999e-01
7.961162960e-01,3.80733e-01,9.99999e-01,9.20100e-01,4.13795e-01,9.99999e-01
8.000968774e-01,4.02508e-01,9.99999e-01,9.55915e-01,4.21070e-01,9.99999e-01
8.040973618e-01,4.18405e-01,9.99999e-01,9.76837e-01,4.28326e-01,9.99999e-01
8.081178486e-01,4.30916e-01,9.99999e-01,9.89336e-01,4.35560e-01,9.99999e-01
8.121584379e-01,4.41296e-01,9.99999e-01,9.96672e-01,4.42769e-01,9.99999e-01
8.162192301e-01,4.49621e-01,9.99999e-01,9.99264e-01,4.49952e-01,9.99999e-01
8.203003262e-01,4.57101e-01,9.99999e-01,9.99987e-01,4.57106e-01,9.99999e-01
8.244018279e-01,4.64230e-01,9.99999e-01,9.99999e-01,4.64230e-01,9.99999e-01
8.285238370e-01,4.71320e-01,9.99999e-01,9.99999e-01,4.71320e-01,9.99999e-01
8.326664562e-01,4.78375e-01,9.99999e-01,9.99999e-01,4.78375e-01,9.99999e-01
8.368297885e-01,4.85393e-01,9.99999e-01,9.99999e-01,4.85393e-01,9.99999e-01
8.410139374e-01,4.92373e-01,9.99999e-01,9.99999e-01,4.92373e-01,9.99999e-01
8.452190071e-01,4.99312e-01,9.99999e-01,9.99999e-01,4.99312e-01,9.99999e-01
8.494451021e-01,5.06209e-01,9.99999e-01,9.99999e-01,5.06209e-01,9.99999e-01
8.536923276e-01,5.13063e-01,9.99999e-01,9.99999e-01,5.13063e-01,9.99999e-01
8.579607893e-01,5.19870e-01,9.99999e-01,9.99999e-01,5.19870e-01,9.99999e-01
8.622505932e-01,5.26632e-01,9.99999e-01,9.99999e-01,5.26632e-01,9.99999e-01
8.665618462e-01,4.88132e-01,9.99999e-01,9.15228e-01,5.33344e-01,9.99999e-01
8.708946554e-01,3.28837e-01,9.99999e-01,6.08947e-01,5.40008e-01,9.99999e-01
8.752491287e-01,3.65157e-01,9.99999e-01,6.68026e-01,5.46620e-01,9.99999e-01
8.796253743e-01,4.42599e-01,9.99999e-01,8.00097e-01,5.53181e-01,9.99999e-01
8.840235012e-01,4.98421e-01,9.99999e-01,8.90532e-01,5.59688e-01,9.99999e-01
8.884436187e-01,5.40756e-01,9.99999e-01,9.55160e-01,5.66141e-01,9.99999e-01
8.928858368e-01,5.62019e-01,9.99999e-01,9.81625e-01,5.72539e-01,9.99999e-01
8.973502660e-01,5.76267e-01,9.99999e-01,9.95483e-01,5.78881e-01,9.99999e-01
9.018370173e-01,5.84873e-01,9.99999e-01,9.99500e-01,5.85165e-01,9.99999e-01
9.063462024e-01,5.84068e-01,9.99999e-01,9.87616e-01,5.91392e-01,9.99999e-01
9.108779334e-01,5.80352e-01,9.99999e-01,9.71201e-01,5.97560e-01,9.99999e-01
9.154323231e-01,5.99513e-01,9.99999e-01,9.93115e-01,6.03668e-01,9.99999e-01
9.200094847e-01,5.53692e-01,9.99999e-01,9.08112e-01,6.09717e-01,9.99999e-01
9.246095321e-01,5.33787e-01,9.99999e-01,8.66952e-01,6.15705e-01,9.99999e-01
9.292325798e-01,5.56513e-01,9.99999e-01,8.95245e-01,6.21631e-01,9.99999e-01
9.338787427e-01,5.63254e-01,9.99999e-01,8.97621e-01,6.27496e-01,9.99999e-01
9.385481364e-01,5.84930e-01,9.99999e-01,9.23624e-01,6.33299e-01,9.99999e-01
9.432408771e-01,6.08602e-01,9.99999e-01,9.52370e-01,6.39039e-01,9.99999e-01
9.479570815e-01,6.28811e-01,9.99999e-01,9.75329e-01,6.44716e-01,9.99999e-01
9.526968669e-01,6.42536e-01,9.99999e-01,9.88013e-01,6.50331e-01,9.99999e-01
9.574603512e-01,6.52507e-01,9.99999e-01,9.94854e-01,6.55881e-01,9.99999e-01
9.622476530e-01,6.60305e-01,9.99999e-01,9.98391e-01,6.61368e-01,9.99999e-01
9.670588912e-01,6.66470e-01,9.99999e-01,9.99516e-01,6.66792e-01,9.99999e-01
9.718941857e-01,6.72128e-01,9.99999e-01,9.99964e-01,6.72151e-01,9.99999e-01
9.767536566e-01,6.77446e-01,9.99999e-01,9.99999e-01,6.77446e-01,9.99999e-01
9.816374249e-01,6.82677e-01,9.99999e-01,9.99999e-01,6.82677e-01,9.99999e-01
9.865456120e-01,6.87844e-01,9.99999e-01,9.99999e-01,6.87844e-01,9.99999e-01
9.914783401e-01,6.92947e-01,9.99999e-01,9.99999e-01,6.92947e-01,9.99999e-01
9.964357318e-01,6.97986e-01,9.99999e-01,9.99999e-01,6.97986e-01,9.99999e-01
1.001417910e+00,7.02960e-01,9.99999e-01,9.99999e-01,7.02960e-01,9.99999e-01
1.006425000e+00,7.07871e-01,9.99999e-01,9.99999e-01,7.07871e-01,9.99999e-01
1.011457125e+00,7.12719e-01,9.99999e-01,9.99999e-01,7.12719e-01,9.99999e-01
1.016514411e+00,7.17502e-01,9.99999e-01,9.99999e-01,7.17502e-01,9.99999e-01
1.021596983e+00,7.22179e-01,9.99999e-01,9.99938e-01,7.22223e-01,9.99999e-01
1.026704968e+00,7.23363e-01,9.99999e-01,9.95160e-01,7.26880e-01,9.99999e-01
1.031838492e+00,6.94569e-01,9.99999e-01,9.49545e-01,7.31475e-01,9.99999e-01
1.036997685e+00,8.86187e-02,9.99999e-01,1.20405e-01,7.36006e-01,9.99999e-01
1.042182673e+00,4.86705e-02,9.99999e-01,6.57287e-02,7.40476e-01,9.99999e-01
1.047393587e+00,6.83190e-02,9.99999e-01,9.17176e-02,7.44884e-01,9.99999e-01
1.052630555e+00,7.55051e-04,9.99999e-01,1.00777e-03,7.49230e-01,9.99999e-01
1.057893707e+00,2.16410e-03,9.99999e-01,2.87200e-03,7.53515e-01,9.99999e-01
1.063183176e+00,9.87211e-03,9.99999e-01,1.30284e-02,7.57739e-01,9.99999e-01
1.068499092e+00,3.54678e-02,9.99999e-01,4.65516e-02,7.61902e-01,9.99999e-01
1.073841587e+00,1.09268e-01,9.99999e-01,1.42647e-01,7.66006e-01,9.99999e-01
1.079210795e+00,2.24335e-01,9.99999e-01,2.91325e-01,7.70050e-01,9.99999e-01
1.084606849e+00,3.90824e-01,9.99999e-01,5.04918e-01,7.74034e-01,9.99999e-01
1.090029883e+00,5.45439e-01,9.99999e-01,7.01113e-01,7.77960e-01,9.99999e-01
1.095480033e+00,6.56142e-01,9.99999e-01,8.39240e-01,7.81828e-01,9.99999e-01
1.100957433e+00,7.21989e-01,9.99999e-01,9.18983e-01,7.85638e-01,9.99999e-01
1.106462220e+00,7.62258e-01,9.99999e-01,9.65627e-01,7.89391e-01,9.99999e-01
1.111994531e+00,7.82872e-01,9.99999e-01,9.87118e-01,7.93087e-01,9.99999e-01
1.117554504e+00,7.94201e-01,9.99999e-01,9.96828e-01,7.96727e-01,9.99999e-01
1.123142276e+00,8.00144e-01,9.99999e-01,9.99790e-01,8.00311e-01,9.99999e-01
1.128757988e+00,8.03840e-01,9.99999e-01,9.99999e-01,8.03840e-01,9.99999e-01
1.134401778e+00,8.07315e-01,9.99999e-01,9.99999e-01,8.07315e-01,9.99999e-01
1.140073787e+00,8.10735e-01,9.99999e-01,9.99999e-01,8.10735e-01,9.99999e-01
1.145774156e+00,8.14102e-01,9.99999e-01,9.99999e-01,8.14102e-01,9.99999e-01
1.151503026e+00,8.17416e-01,9.99999e-01,9.99999e-01,8.17416e-01,9.99999e-01
1.157260541e+00,8.20678e-01,9.99999e-01,9.99999e-01,8.20678e-01,9.99999e-01
1.163046844e+00,8.23888e-01,9.99999e-01,9.99999e-01,8.23888e-01,9.99999e-01
1.168862078e+00,8.27046e-01,9.99999e-01,9.99999e-01,8.27046e-01,9.99999e-01
1.174706389e+00,8.30154e-01,9.99999e-01,9.99999e-01,8.30154e-01,9.99999e-01
1.180579921e+00,8.33212e-01,9.99999e-01,9.99999e-01,8.33212e-01,9.99999e-01
1.186482820e+00,8.36215e-01,9.99999e-01,9.99992e-01,8.36221e-01,9.99999e-01
1.192415234e+00,8.24905e-01,9.99999e-01,9.82988e-01,8.39180e-01,9.99999e-01
1.198377311e+00,4.67135e-01,9.99999e-01,5.54732e-01,8.42091e-01,9.99999e-01
1.204369197e+00,4.76302e-14,9.99999e-01,5.63701e-14,8.44955e-01,9.99999e-01
1.210391043e+00,6.12201e-53,9.99999e-01,7.22128e-53,8.47771e-01,9.99999e-01
1.216442998e+00,5.51216e-46,9.99999e-01,6.48075e-46,8.50541e-01,9.99999e-01
1.222525213e+00,2.58336e-45,9.99999e-01,3.02762e-45,8.53265e-01,9.99999e-01
1.228637839e+00,4.27475e-35,9.99999e-01,4.99419e-35,8.55944e-01,9.99999e-01
1.234781029e+00,2.02694e-22,9.99999e-01,2.36081e-22,8.58578e-01,9.99999e-01
1.240954934e+00,4.27509e-15,9.99999e-01,4.96429e-15,8.61168e-01,9.99999e-01
1.247159708e+00,4.88131e-08,9.99999e-01,5.65153e-08,8.63714e-01,9.99999e-01
1.253395507e+00,2.70463e-05,9.99999e-01,3.12234e-05,8.66217e-01,9.99999e-01
1.259662485e+00,1.48311e-03,9.99999e-01,1.70732e-03,8.68678e-01,9.99999e-01
1.265960797e+00,2.80397e-02,9.99999e-01,3.21889e-02,8.71097e-01,9.99999e-01
1.272290601e+00,1.77488e-01,9.99999e-01,2.03198e-01,8.73475e-01,9.99999e-01
1.278652054e+00,1.71738e-01,9.99999e-01,1.96089e-01,8.75812e-01,9.99999e-01
1.285045314e+00,2.80545e-03,9.99999e-01,3.19487e-03,8.78109e-01,9.99999e-01
1.291470541e+00,7.53713e-07,9.99999e-01,8.56135e-07,8.80366e-01,9.99999e-01
1.297927893e+00,1.28842e-03,9.99999e-01,1.45982e-03,8.82585e-01,9.99999e-01
1.304417533e+00,5.95358e-02,9.99999e-01,6.72900e-02,8.84765e-01,9.99999e-01
1.310939621e+00,1.45055e-02,9.99999e-01,1.63551e-02,8.86907e-01,9.99999e-01
1.317494319e+00,1.32758e-18,9.99999e-01,1.49332e-18,8.89012e-01,9.99999e-01
1.324081790e+00,1.14818e-12,9.99999e-01,1.28853e-12,8.91080e-01,9.99999e-01
1.330702199e+00,1.68905e-07,9.99999e-01,1.89119e-07,8.93112e-01,9.99999e-01
1.337355710e+00,3.30290e-07,9.99999e-01,3.68994e-07,8.95109e-01,9.99999e-01
1.344042489e+00,1.12719e-07,9.99999e-01,1.25652e-07,8.97070e-01,9.99999e-01
1.350762701e+00,9.66097e-08,9.99999e-01,1.07464e-07,8.98997e-01,9.99999e-01
1.357516515e+00,3.62631e-05,9.99999e-01,4.02525e-05,9.00889e-01,9.99999e-01
1.364304097e+00,1.06112e-03,9.99999e-01,1.17544e-03,9.02749e-01,9.99999e-01
1.371125618e+00,2.73959e-02,9.99999e-01,3.02859e-02,9.04575e-01,9.99999e-01
1.377981246e+00,4.96146e-02,9.99999e-01,5.47399e-02,9.06369e-01,9.99999e-01
1.384871152e+00,1.67427e-01,9.99999e-01,1.84364e-01,9.08130e-01,9.99999e-01
1.391795508e+00,1.90449e-01,9.99999e-01,2.09316e-01,9.09860e-01,9.99999e-01
1.398754485e+00,3.46243e-01,9.99999e-01,3.79835e-01,9.11560e-01,9.99999e-01
1.405748258e+00,4.48136e-01,9.99999e-01,4.90716e-01,9.13229e-01,9.99999e-01
1.412776999e+00,5.82992e-01,9.99999e-01,6.37241e-01,9.14867e-01,9.99999e-01
1.419840884e+00,5.26642e-01,9.99999e-01,5.74637e-01,9.16477e-01,9.99999e-01
1.426940089e+00,4.00785e-02,9.99999e-01,4.36558e-02,9.18057e-01,9.99999e-01
1.434074789e+00,0.00000e+00,9.99999e-01,0.00000e+00,9.19609e-01,9.99999e-01
1.441245163e+00,0.00000e+00,9.99999e-01,0.00000e+00,9.21132e-01,9.99999e-01
1.448451389e+00,0.00000e+00,9.99999e-01,0.00000e+00,9.22628e-01,9.99999e-01
1.455693646e+00,0.00000e+00,9.99999e-01,0.00000e+00,9.24097e-01,9.99999e-01
1.462972114e+00,5.57355e-208,9.99999e-01,6.02195e-208,9.25539e-01,9.99999e-01
1.470286975e+00,6.66008e-87,9.99999e-01,7.18490e-87,9.26954e-01,9.99999e-01
