#,Wave/freq,Total,N2,CO2,Rayleigh,CIA
4.000000000e-01,4.50459e-04,9.99999e-01,9.99999e-01,4.50459e-04,9.99999e-01
4.020000000e-01,5.24591e-04,9.99999e-01,9.99999e-01,5.24591e-04,9.99999e-01
4.040100000e-01,6.08993e-04,9.99999e-01,9.99999e-01,6.08993e-04,9.99999e-01
4.060300500e-01,7.04894e-04,9.99999e-01,9.99999e-01,7.04894e-04,9.99999e-01
4.080602003e-01,8.13545e-04,9.99999e-01,9.99999e-01,8.13545e-04,9.99999e-01
4.101005013e-01,9.36287e-04,9.99999e-01,9.99999e-01,9.36287e-04,9.99999e-01
4.121510038e-01,1.07456e-03,9.99999e-01,9.99999e-01,1.07456e-03,9.99999e-01
4.142117588e-01,1.22991e-03,9.99999e-01,9.99999e-01,1.22991e-03,9.99999e-01
4.162828176e-01,1.40396e-03,9.99999e-01,9.99999e-01,1.40396e-03,9.99999e-01
4.183642317e-01,1.59846e-03,9.99999e-01,9.99999e-01,1.59846e-03,9.99999e-01
4.204560528e-01,1.81524e-03,9.99999e-01,9.99999e-01,1.81524e-03,9.99999e-01
4.225583331e-01,2.05626e-03,9.99999e-01,9.99999e-01,2.05626e-03,9.99999e-01
4.246711247e-01,2.32354e-03,9.99999e-01,9.99999e-01,2.32354e-03,9.99999e-01
4.267944804e-01,2.61924e-03,9.99999e-01,9.99999e-01,2.61924e-03,9.99999e-01
4.289284528e-01,2.94560e-03,9.99999e-01,9.99999e-01,2.94560e-03,9.99999e-01
4.310730950e-01,3.30494e-03,9.99999e-01,9.99999e-01,3.30494e-03,9.99999e-01
4.332284605e-01,3.69970e-03,9.99999e-01,9.99999e-01,3.69970e-03,9.99999e-01
4.353946028e-01,4.13238e-03,9.99999e-01,9.99999e-01,4.13238e-03,9.99999e-01
4.375715758e-01,4.60560e-03,9.99999e-01,9.99999e-01,4.60560e-03,9.99999e-01
4.397594337e-01,5.12203e-03,9.99999e-01,9.99999e-01,5.12203e-03,9.99999e-01
4.419582309e-01,5.68443e-03,9.99999e-01,9.99999e-01,5.68443e-03,9.99999e-01
4.441680220e-01,6.29560e-03,9.99999e-01,9.99999e-01,6.29560e-03,9.99999e-01
4.463888621e-01,6.95844e-03,9.99999e-01,9.99999e-01,6.95844e-03,9.99999e-01
4.486208064e-01,7.67587e-03,9.99999e-01,9.99999e-01,7.67587e-03,9.99999e-01
4.508639105e-01,8.45087e-03,9.99999e-01,9.99999e-01,8.45087e-03,9.99999e-01
4.531182300e-01,9.28646e-03,9.99999e-01,9.99999e-01,9.28646e-03,9.99999e-01
4.553838212e-01,1.01857e-02,9.99999e-01,9.99999e-01,1.01857e-02,9.99999e-01
4.576607403e-01,1.11516e-02,9.99999e-01,9.99999e-01,1.11516e-02,9.99999e-01
4.599490440e-01,1.21873e-02,9.99999e-01,9.99999e-01,1.21873e-02,9.99999e-01
4.622487892e-01,1.32958e-02,9.99999e-01,9.99999e-01,1.32958e-02,9.99999e-01
4.645600332e-01,1.44803e-02,9.99999e-01,9.99999e-01,1.44803e-02,9.99999e-01
4.668828333e-01,1.57437e-02,9.99999e-01,9.99999e-01,1.57437e-02,9.99999e-01
4.692172475e-01,1.70890e-02,9.99999e-01,9.99999e-01,1.70890e-02,9.99999e-01
4.715633337e-01,1.85193e-02,9.99999e-01,9.99999e-01,1.85193e-02,9.99999e-01
4.739211504e-01,2.00375e-02,9.99999e-01,9.99999e-01,2.00375e-02,9.99999e-01
4.762907561e-01,2.16465e-02,9.99999e-01,9.99999e-01,2.16465e-02,9.99999e-01
4.786722099e-01,2.33489e-02,9.99999e-01,9.99999e-01,2.33489e-02,9.99999e-01
4.810655710e-01,2.51477e-02,9.99999e-01,9.99999e-01,2.51477e-02,9.99999e-01
4.834708988e-01,2.70453e-02,9.99999e-01,9.99999e-01,2.70453e-02,9.99999e-01
4.858882533e-01,2.90444e-02,9.99999e-01,9.99999e-01,2.90444e-02,9.99999e-01
4.883176946e-01,3.11473e-02,9.99999e-01,9.99999e-01,3.11473e-02,9.99999e-01
4.907592831e-01,3.33564e-02,9.99999e-01,9.99999e-01,3.33564e-02,9.99999e-01
4.932130795e-01,3.56739e-02,9.99999e-01,9.99999e-01,3.56739e-02,9.99999e-01
4.956791449e-01,3.81017e-02,9.99999e-01,9.99999e-01,3.81017e-02,9.99999e-01
4.981575406e-01,4.06420e-02,9.99999e-01,9.99999e-01,4.06420e-02,9.99999e-01
5.006483283e-01,4.32963e-02,9.99999e-01,9.99999e-01,4.32963e-02,9.99999e-01
5.031515699e-01,4.60664e-02,9.99999e-01,9.99999e-01,4.60664e-02,9.99999e-01
5.056673278e-01,4.89537e-02,9.99999e-01,9.99999e-01,4.89537e-02,9.99999e-01
5.081956644e-01,5.19596e-02,9.99999e-01,9.99999e-01,5.19596e-02,9.99999e-01
5.107366428e-01,5.50851e-02,9.99999e-01,9.99999e-01,5.50851e-02,9.99999e-01
5.132903260e-01,5.83314e-02,9.99999e-01,9.99999e-01,5.83314e-02,9.99999e-01
5.158567776e-01,6.16991e-02,9.99999e-01,9.99999e-01,6.16991e-02,9.99999e-01
5.184360615e-01,6.51889e-02,9.99999e-01,9.99999e-01,6.51889e-02,9.99999e-01
5.210282418e-01,6.88013e-02,9.99999e-01,9.99999e-01,6.88013e-02,9.99999e-01
5.236333830e-01,7.25366e-02,9.99999e-01,9.99999e-01,7.25366e-02,9.99999e-01
5.262515499e-01,7.63948e-02,9.99999e-01,9.99999e-01,7.63948e-02,9.99999e-01
5.288828077e-01,8.03759e-02,9.99999e-01,9.99999e-01,8.03759e-02,9.99999e-01
5.315272217e-01,8.44797e-02,9.99999e-01,9.99999e-01,8.44797e-02,9.99999e-01
5.341848578e-01,8.87057e-02,9.99999e-01,9.99999e-01,8.87057e-02,9.99999e-01
5.368557821e-01,9.30534e-02,9.99999e-01,9.99999e-01,9.30534e-02,9.99999e-01
5.395400610e-01,9.75220e-02,9.99999e-01,9.99999e-01,9.75220e-02,9.99999e-01
5.422377613e-01,1.02110e-01,9.99999e-01,9.99999e-01,1.02110e-01,9.99999e-01
5.449489501e-01,1.06818e-01,9.99999e-01,9.99999e-01,1.06818e-01,9.99999e-01
5.476736949e-01,1.11643e-01,9.99999e-01,9.99999e-01,1.11643e-01,9.99999e-01
5.504120634e-01,1.16584e-01,9.99999e-01,9.99999e-01,1.16584e-01,9.99999e-01
5.531641237e-01,1.21639e-01,9.99999e-01,9.99999e-01,1.21639e-01,9.99999e-01
5.559299443e-01,1.26808e-01,9.99999e-01,9.99999e-01,1.26808e-01,9.99999e-01
5.587095940e-01,1.32087e-01,9.99999e-01,9.99999e-01,1.32087e-01,9.99999e-01
5.615031420e-01,1.37476e-01,9.99999e-01,9.99999e-01,1.37476e-01,9.99999e-01
5.643106577e-01,1.42971e-01,9.99999e-01,9.99999e-01,1.42971e-01,9.99999e-01
5.671322110e-01,1.48571e-01,9.99999e-01,9.99999e-01,1.48571e-01,9.99999e-01
5.699678720e-01,1.54273e-01,9.99999e-01,9.99999e-01,1.54273e-01,9.99999e-01
5.728177114e-01,1.60075e-01,9.99999e-01,9.99999e-01,1.60075e-01,9.99999e-01
5.756818000e-01,1.65974e-01,9.99999e-01,9.99999e-01,1.65974e-01,9.99999e-01
5.785602090e-01,1.71968e-01,9.99999e-01,9.99999e-01,1.71968e-01,9.99999e-01
5.814530100e-01,1.78053e-01,9.99999e-01,9.99999e-01,1.78053e-01,9.99999e-01
5.843602750e-01,1.84226e-01,9.99999e-01,9.99999e-01,1.84226e-01,9.99999e-01
5.872820764e-01,1.90486e-01,9.99999e-01,9.99999e-01,1.90486e-01,9.99999e-01
5.902184868e-01,1.96828e-01,9.99999e-01,9.99999e-01,1.96828e-01,9.99999e-01
5.931695792e-01,2.03250e-01,9.99999e-01,9.99999e-01,2.03250e-01,9.99999e-01
5.961354271e-01,2.09749e-01,9.99999e-01,9.99999e-01,2.09749e-01,9.99999e-01
5.991161043e-01,2.16320e-01,9.99999e-01,9.99999e-01,2.16320e-01,9.99999e-01
6.021116848e-01,2.22962e-01,9.99999e-01,9.99999e-01,2.22962e-01,9.99999e-01
6.051222432e-01,2.29670e-01,9.99999e-01,9.99999e-01,2.29670e-01,9.99999e-01
6.081478544e-01,2.36442e-01,9.99999e-01,9.99999e-01,2.36442e-01,9.99999e-01
6.111885937e-01,2.43274e-01,9.99999e-01,9.99999e-01,2.43274e-01,9.99999e-01
6.142445367e-01,2.50162e-01,9.99999e-01,9.99999e-01,2.50162e-01,9.99999e-01
6.173157594e-01,2.57103e-01,9.99999e-01,9.99999e-01,2.57103e-01,9.99999e-01
6.204023382e-01,2.64095e-01,9.99999e-01,9.99999e-01,2.64095e-01,9.99999e-01
6.235043498e-01,2.71132e-01,9.99999e-01,9.99999e-01,2.71132e-01,9.99999e-01
6.266218716e-01,2.78213e-01,9.99999e-01,9.99999e-01,2.78213e-01,9.99999e-01
6.297549810e-01,2.85333e-01,9.99999e-01,9.99999e-01,2.85333e-01,9.99999e-01
6.329037559e-01,2.92490e-01,9.99999e-01,9.99999e-01,2.92490e-01,9.99999e-01
6.360682746e-01,2.99679e-01,9.99999e-01,9.99999e-01,2.99679e-01,9.99999e-01
6.392486160e-01,3.06898e-01,9.99999e-01,9.99999e-01,3.06898e-01,9.99999e-01
6.424448591e-01,3.14142e-01,9.99999e-01,9.99999e-01,3.14142e-01,9.99999e-01
6.456570834e-01,3.21410e-01,9.99999e-01,9.99999e-01,3.21410e-01,9.99999e-01
6.488853688e-01,3.28697e-01,9.99999e-01,9.99999e-01,3.28697e-01,9.99999e-01
6.521297956e-01,3.36001e-01,9.99999e-01,9.99999e-01,3.36001e-01,9.99999e-01
6.553904446e-01,3.43318e-01,9.99999e-01,9.99999e-01,3.43318e-01,9.99999e-01
6.586673968e-01,3.50645e-01,9.99999e-01,9.99999e-01,3.50645e-01,9.99999e-01
6.619607338e-01,3.57979e-01,9.99999e-01,9.99999e-01,3.57979e-01,9.99999e-01
6.652705375e-01,3.65317e-01,9.99999e-01,9.99999e-01,3.65317e-01,9.99999e-01
6.685968902e-01,3.72656e-01,9.99999e-01,9.99999e-01,3.72656e-01,9.99999e-01
6.719398746e-01,3.79994e-01,9.99999e-01,9.99999e-01,3.79994e-01,9.99999e-01
6.752995740e-01,3.87326e-01,9.99999e-01,9.99999e-01,3.87326e-01,9.99999e-01
6.786760719e-01,3.94651e-01,9.99999e-01,9.99999e-01,3.94651e-01,9.99999e-01
6.820694522e-01,4.01966e-01,9.99999e-01,9.99999e-01,4.01966e-01,9.99999e-01
6.854797995e-01,4.09267e-01,9.99999e-01,9.99999e-01,4.09267e-01,9.99999e-01
6.889071985e-01,4.16554e-01,9.99999e-01,9.99999e-01,4.16554e-01,9.99999e-01
6.923517345e-01,4.23822e-01,9.99999e-01,9.99999e-01,4.23822e-01,9.99999e-01
6.958134932e-01,4.31070e-01,9.99999e-01,9.99999e-01,4.31070e-01,9.99999e-01
6.992925606e-01,4.38295e-01,9.99999e-01,9.99999e-01,4.38295e-01,9.99999e-01
7.027890234e-01,4.45494e-01,9.99999e-01,9.99999e-01,4.45494e-01,9.99999e-01
7.063029686e-01,4.52666e-01,9.99999e-01,9.99999e-01,4.52666e-01,9.99999e-01
7.098344834e-01,4.59809e-01,9.99999e-01,9.99999e-01,4.59809e-01,9.99999e-01
7.133836558e-01,4.66920e-01,9.99999e-01,9.99999e-01,4.66920e-01,9.99999e-01
7.169505741e-01,4.73997e-01,9.99999e-01,9.99999e-01,4.73997e-01,9.99999e-01
7.205353270e-01,4.81039e-01,9.99999e-01,9.99999e-01,4.81039e-01,9.99999e-01
7.241380036e-01,4.88043e-01,9.99999e-01,9.99999e-01,4.88043e-01,9.99999e-01
7.277586936e-01,4.95007e-01,9.99999e-01,9.99999e-01,4.95007e-01,9.99999e-01
7.313974871e-01,5.01931e-01,9.99999e-01,9.99999e-01,5.01931e-01,9.99999e-01
7.350544745e-01,5.08811e-01,9.99999e-01,9.99999e-01,5.08811e-01,9.99999e-01
7.387297469e-01,5.15647e-01,9.99999e-01,9.99999e-01,5.15647e-01,9.99999e-01
7.424233956e-01,5.22438e-01,9.99999e-01,9.99999e-01,5.22438e-01,9.99999e-01
7.461355126e-01,5.29181e-01,9.99999e-01,9.99999e-01,5.29181e-01,9.99999e-01
7.498661902e-01,5.35875e-01,9.99999e-01,9.99999e-01,5.35875e-01,9.99999e-01
7.536155211e-01,5.42519e-01,9.99999e-01,9.99999e-01,5.42519e-01,9.99999e-01
7.573835987e-01,5.49112e-01,9.99999e-01,9.99999e-01,5.49112e-01,9.99999e-01
7.611705167e-01,5.55653e-01,9.99999e-01,9.99999e-01,5.55653e-01,9.99999e-01
7.649763693e-01,5.62140e-01,9.99999e-01,9.99999e-01,5.62140e-01,9.99999e-01
7.688012511e-01,5.68572e-01,9.99999e-01,9.99999e-01,5.68572e-01,9.99999e-01
7.726452574e-01,5.74949e-01,9.99999e-01,9.99999e-01,5.74949e-01,9.99999e-01
7.765084837e-01,5.81269e-01,9.99999e-01,9.99999e-01,5.81269e-01,9.99999e-01
7.803910261e-01,5.72000e-01,9.99999e-01,9.73563e-01,5.87531e-01,9.99999e-01
7.842929812e-01,5.31461e-01,9.99999e-01,8.95113e-01,5.93736e-01,9.99999e-01
7.882144461e-01,5.32198e-01,9.99999e-01,8.87171e-01,5.99881e-01,9.99999e-01
7.921555184e-01,5.65403e-01,9.99999e-01,9.33057e-01,6.05967e-01,9.99999e-01
7.961162960e-01,5.84515e-01,9.99999e-01,9.55100e-01,6.11993e-01,9.99999e-01
8.000968774e-01,6.02734e-01,9.99999e-01,9.75363e-01,6.17957e-01,9.99999e-01
8.040973618e-01,6.15887e-01,9.99999e-01,9.87218e-01,6.23861e-01,9.99999e-01
8.081178486e-01,6.25981e-01,9.99999e-01,9.94090e-01,6.29702e-01,9.99999e-01
8.121584379e-01,6.34331e-01,9.99999e-01,9.98190e-01,6.35481e-01,9.99999e-01
8.162192301e-01,6.40941e-01,9.99999e-01,9.99599e-01,6.41198e-01,9.99999e-01
8.203003262e-01,6.46848e-01,9.99999e-01,9.99994e-01,6.46851e-01,9.99999e-01
8.244018279e-01,6.52441e-01,9.99999e-01,9.99999e-01,6.52441e-01,9.99999e-01
8.285238370e-01,6.57968e-01,9.99999e-01,9.99999e-01,6.57968e-01,9.99999e-01
8.326664562e-01,6.63431e-01,9.99999e-01,9.99999e-01,6.63431e-01,9.99999e-01
8.368297885e-01,6.68830e-01,9.99999e-01,9.99999e-01,6.68830e-01,9.99999e-01
8.410139374e-01,6.74165e-01,9.99999e-01,9.99999e-01,6.74165e-01,9.99999e-01
8.452190071e-01,6.79436e-01,9.99999e-01,9.99999e-01,6.79436e-01,9.99999e-01
8.494451021e-01,6.84642e-01,9.99999e-01,9.99999e-01,6.84642e-01,9.99999e-01
8.536923276e-01,6.89785e-01,9.99999e-01,9.99999e-01,6.89785e-01,9.99999e-01
8.579607893e-01,6.94864e-01,9.99999e-01,9.99999e-01,6.94864e-01,9.99999e-01
8.622505932e-01,6.99878e-01,9.99999e-01,9.99999e-01,6.99878e-01,9.99999e-01
8.665618462e-01,6.60170e-01,9.99999e-01,9.36638e-01,7.04829e-01,9.99999e-01
8.708946554e-01,5.33682e-01,9.99999e-01,7.51965e-01,7.09715e-01,9.99999e-01
8.752491287e-01,5.69274e-01,9.99999e-01,7.96701e-01,7.14539e-01,9.99999e-01
8.796253743e-01,6.35393e-01,9.99999e-01,8.83350e-01,7.19298e-01,9.99999e-01
8.840235012e-01,6.79012e-01,9.99999e-01,9.37868e-01,7.23995e-01,9.99999e-01
8.884436187e-01,7.10537e-01,9.99999e-01,9.75170e-01,7.28628e-01,9.99999e-01
8.928858368e-01,7.25759e-01,9.99999e-01,9.89852e-01,7.33199e-01,9.99999e-01
8.973502660e-01,7.35893e-01,9.99999e-01,9.97540e-01,7.37707e-01,9.99999e-01
9.018370173e-01,7.41953e-01,9.99999e-01,9.99729e-01,7.42153e-01,9.99999e-01
9.063462024e-01,7.41170e-01,9.99999e-01,9.92809e-01,7.46538e-01,9.99999e-01
9.108779334e-01,7.38836e-01,9.99999e-01,9.83984e-01,7.50861e-01,9.99999e-01
9.154323231e-01,7.52299e-01,9.99999e-01,9.96260e-01,7.55122e-01,9.99999e-01
9.200094847e-01,7.17183e-01,9.99999e-01,9.44502e-01,7.59323e-01,9.99999e-01
9.246095321e-01,7.05341e-01,9.99999e-01,9.23869e-01,7.63464e-01,9.99999e-01
9.292325798e-01,7.20759e-01,9.99999e-01,9.39044e-01,7.67545e-01,9.99999e-01
9.338787427e-01,7.26593e-01,9.99999e-01,9.41711e-01,7.71566e-01,9.99999e-01
9.385481364e-01,7.42071e-01,9.99999e-01,9.56857e-01,7.75529e-01,9.99999e-01
9.432408771e-01,7.58742e-01,9.99999e-01,9.73453e-01,7.79433e-01,9.99999e-01
9.479570815e-01,7.72523e-01,9.99999e-01,9.86267e-01,7.83279e-01,9.99999e-01
9.526968669e-01,7.81849e-01,9.99999e-01,9.93369e-01,7.87067e-01,9.99999e-01
9.574603512e-01,7.88555e-01,9.99999e-01,9.97162e-01,7.90798e-01,9.99999e-01
9.622476530e-01,7.93771e-01,9.99999e-01,9.99115e-01,7.94473e-01,9.99999e-01
9.670588912e-01,7.97881e-01,9.99999e-01,9.99735e-01,7.98092e-01,9.99999e-01
9.718941857e-01,8.01640e-01,9.99999e-01,9.99981e-01,8.01655e-01,9.99999e-01
9.767536566e-01,8.05163e-01,9.99999e-01,9.99999e-01,8.05163e-01,9.99999e-01
9.816374249e-01,8.08617e-01,9.99999e-01,9.99999e-01,8.08617e-01,9.99999e-01
9.865456120e-01,8.12017e-01,9.99999e-01,9.99999e-01,8.12017e-01,9.99999e-01
9.914783401e-01,8.15364e-01,9.99999e-01,9.99999e-01,8.15364e-01,9.99999e-01
9.964357318e-01,8.18658e-01,9.99999e-01,9.99999e-01,8.18658e-01,9.99999e-01
1.001417910e+00,8.21900e-01,9.99999e-01,9.99999e-01,8.21900e-01,9.99999e-01
1.006425000e+00,8.25090e-01,9.99999e-01,9.99999e-01,8.25090e-01,9.99999e-01
1.011457125e+00,8.28230e-01,9.99999e-01,9.99999e-01,8.28230e-01,9.99999e-01
1.016514411e+00,8.31319e-01,9.99999e-01,9.99999e-01,8.31319e-01,9.99999e-01
1.021596983e+00,8.34322e-01,9.99999e-01,9.99956e-01,8.34358e-01,9.99999e-01
1.026704968e+00,8.34991e-01,9.99999e-01,9.97184e-01,8.37348e-01,9.99999e-01
1.031838492e+00,8.07833e-01,9.99999e-01,9.61374e-01,8.40289e-01,9.99999e-01
1.036997685e+00,1.69165e-01,9.99999e-01,2.00627e-01,8.43182e-01,9.99999e-01
1.042182673e+00,1.73866e-01,9.99999e-01,2.05508e-01,8.46028e-01,9.99999e-01
1.047393587e+00,1.78161e-01,9.99999e-01,2.09891e-01,8.48826e-01,9.99999e-01
1.052630555e+00,1.16533e-02,9.99999e-01,1.36844e-02,8.51579e-01,9.99999e-01
1.057893707e+00,2.61420e-02,9.99999e-01,3.06010e-02,8.54286e-01,9.99999e-01
1.063183176e+00,6.66524e-02,9.99999e-01,7.77788e-02,8.56947e-01,9.99999e-01
1.068499092e+00,1.49767e-01,9.99999e-01,1.74235e-01,8.59564e-01,9.99999e-01
1.073841587e+00,2.87275e-01,9.99999e-01,3.33213e-01,8.62138e-01,9.99999e-01
1.079210795e+00,4.31432e-01,9.99999e-01,4.98956e-01,8.64667e-01,9.99999e-01
1.084606849e+00,5.92782e-01,9.99999e-01,6.83594e-01,8.67154e-01,9.99999e-01
1.090029883e+00,7.13803e-01,9.99999e-01,8.20841e-01,8.69599e-01,9.99999e-01
1.095480033e+00,7.91337e-01,9.99999e-01,9.07493e-01,8.72003e-01,9.99999e-01
1.100957433e+00,8.34427e-01,9.99999e-01,9.54322e-01,8.74365e-01,9.99999e-01
1.106462220e+00,8.59933e-01,9.99999e-01,9.80888e-01,8.76687e-01,9.99999e-01
1.111994531e+00,8.72706e-01,9.99999e-01,9.92874e-01,8.78969e-01,9.99999e-01
1.117554504e+00,8.79683e-01,9.99999e-01,9.98265e-01,8.81211e-01,9.99999e-01
1.123142276e+00,8.83315e-01,9.99999e-01,9.99886e-01,8.83415e-01,9.99999e-01
1.128757988e+00,8.85581e-01,9.99999e-01,9.99999e-01,8.85581e-01,9.99999e-01
1.134401778e+00,8.87709e-01,9.99999e-01,9.99999e-01,8.87709e-01,9.99999e-01
1.140073787e+00,8.89800e-01,9.99999e-01,9.99999e-01,8.89800e-01,9.99999e-01
1.145774156e+00,8.91854e-01,9.99999e-01,9.99999e-01,8.91854e-01,9.99999e-01
1.151503026e+00,8.93873e-01,9.99999e-01,9.99999e-01,8.93873e-01,9.99999e-01
1.157260541e+00,8.95856e-01,9.99999e-01,9.99999e-01,8.95856e-01,9.99999e-01
1.163046844e+00,8.97804e-01,9.99999e-01,9.99999e-01,8.97804e-01,9.99999e-01
1.168862078e+00,8.99718e-01,9.99999e-01,9.99999e-01,8.99718e-01,9.99999e-01
1.174706389e+00,9.01598e-01,9.99999e-01,9.99999e-01,9.01598e-01,9.99999e-01
1.180579921e+00,9.03444e-01,9.99999e-01,9.99999e-01,9.03444e-01,9.99999e-01
1.186482820e+00,9.05252e-01,9.99999e-01,9.99993e-01,9.05258e-01,9.99999e-01
1.192415234e+00,8.97873e-01,9.99999e-01,9.89893e-01,9.07040e-01,9.99999e-01
1.198377311e+00,5.17071e-01,9.99999e-01,5.68966e-01,9.08789e-01,9.99999e-01
1.204369197e+00,8.10179e-09,9.99999e-01,8.89809e-09,9.10508e-01,9.99999e-01
1.210391043e+00,1.81294e-30,9.99999e-01,1.98745e-30,9.12196e-01,9.99999e-01
1.216442998e+00,1.34902e-26,9.99999e-01,1.47619e-26,9.13853e-01,9.99999e-01
1.222525213e+00,3.20481e-26,9.99999e-01,3.50069e-26,9.15481e-01,9.99999e-01
1.228637839e+00,2.80093e-20,9.99999e-01,3.05419e-20,9.17079e-01,9.99999e-01
1.234781029e+00,1.77968e-13,9.99999e-01,1.93728e-13,9.18648e-01,9.99999e-01
1.240954934e+00,4.08964e-09,9.99999e-01,4.44435e-09,9.20189e-01,9.99999e-01
1.247159708e+00,2.43384e-05,9.99999e-01,2.64059e-05,9.21702e-01,9.99999e-01
1.253395507e+00,2.20056e-03,9.99999e-01,2.38365e-03,9.23188e-01,9.99999e-01
1.259662485e+00,2.93204e-02,9.99999e-01,3.17098e-02,9.24646e-01,9.99999e-01
1.265960797e+00,1.25731e-01,9.99999e-01,1.35768e-01,9.26078e-01,9.99999e-01
1.272290601e+00,4.03338e-01,9.99999e-01,4.34873e-01,9.27484e-01,9.99999e-01
1.278652054e+00,3.45448e-01,9.99999e-01,3.71903e-01,9.28864e-01,9.99999e-01
1.285045314e+00,1.11244e-02,9.99999e-01,1.19589e-02,9.30219e-01,9.99999e-01
1.291470541e+00,2.82595e-04,9.99999e-01,3.03360e-04,9.31549e-01,9.99999e-01
1.297927893e+00,2.36030e-02,9.99999e-01,2.53018e-02,9.32855e-01,9.99999e-01
1.304417533e+00,2.05262e-01,9.99999e-01,2.19734e-01,9.34136e-01,9.99999e-01
1.310939621e+00,3.50834e-02,9.99999e-01,3.75065e-02,9.35394e-01,9.99999e-01
1.317494319e+00,5.41829e-11,9.99999e-01,5.78488e-11,9.36629e-01,9.99999e-01
1.324081790e+00,2.89520e-06,9.99999e-01,3.08708e-06,9.37841e-01,9.99999e-01
1.330702199e+00,1.33868e-04,9.99999e-01,1.42559e-04,9.39031e-01,9.99999e-01
1.337355710e+00,1.26942e-04,9.99999e-01,1.35016e-04,9.40198e-01,9.99999e-01
1.344042489e+00,3.63423e-05,9.99999e-01,3.86068e-05,9.41344e-01,9.99999e-01
1.350762701e+00,9.28216e-05,9.99999e-01,9.84877e-05,9.42469e-01,9.99999e-01
1.357516515e+00,2.38676e-03,9.99999e-01,2.52949e-03,9.43572e-01,9.99999e-01
1.364304097e+00,2.07557e-02,9.99999e-01,2.19717e-02,9.44655e-01,9.99999e-01
1.371125618e+00,1.28017e-01,9.99999e-01,1.35365e-01,9.45718e-01,9.99999e-01
1.377981246e+00,1.86550e-01,9.99999e-01,1.97040e-01,9.46761e-01,9.99999e-01
1.384871152e+00,3.68555e-01,9.99999e-01,3.88858e-01,9.47785e-01,9.99999e-01
1.391795508e+00,3.96631e-01,9.99999e-01,4.18039e-01,9.48790e-01,9.99999e-01
1.398754485e+00,5.54954e-01,9.99999e-01,5.84299e-01,9.49775e-01,9.99999e-01
1.405748258e+00,6.40089e-01,9.99999e-01,6.73251e-01,9.50742e-01,9.99999e-01
1.412776999e+00,7.41519e-01,9.99999e-01,7.79158e-01,9.51691e-01,9.99999e-01
1.419840884e+00,6.70588e-01,9.99999e-01,7.03938e-01,9.52623e-01,9.99999e-01
1.426940089e+00,7.40010e-02,9.99999e-01,7.76068e-02,9.53536e-01,9.99999e-01
1.434074789e+00,0.00000e+00,9.99999e-01,0.00000e+00,9.54433e-01,9.99999e-01
1.441245163e+00,0.00000e+00,9.99999e-01,0.00000e+00,9.55313e-01,9.99999e-01
1.448451389e+00,0.00000e+00,9.99999e-01,0.00000e+00,9.56176e-01,9.99999e-01
1.455693646e+00,2.21910e-240,9.99999e-01,2.31875e-240,9.57022e-01,9.99999e-01
1.462972114e+00,8.85039e-117,9.99999e-01,9.23981e-117,9.57853e-01,9.99999e-01
1.470286975e+00,2.24252e-49,9.99999e-01,2.33920e-49,9.58668e-01,9.99999e-01
