#,Wave/freq,Total,N2,CO2,Rayleigh,CIA
4.000000000e-01,1.66524e-04,9.99999e-01,9.99999e-01,1.66524e-04,9.99999e-01
4.020000000e-01,1.97782e-04,9.99999e-01,9.99999e-01,1.97782e-04,9.99999e-01
4.040100000e-01,2.34071e-04,9.99999e-01,9.99999e-01,2.34071e-04,9.99999e-01
4.060300500e-01,2.76097e-04,9.99999e-01,9.99999e-01,2.76097e-04,9.99999e-01
4.080602003e-01,3.24608e-04,9.99999e-01,9.99999e-01,3.24608e-04,9.99999e-01
4.101005013e-01,3.80424e-04,9.99999e-01,9.99999e-01,3.80424e-04,9.99999e-01
4.121510038e-01,4.44443e-04,9.99999e-01,9.99999e-01,4.44443e-04,9.99999e-01
4.142117588e-01,5.17643e-04,9.99999e-01,9.99999e-01,5.17643e-04,9.99999e-01
4.162828176e-01,6.01086e-04,9.99999e-01,9.99999e-01,6.01086e-04,9.99999e-01
4.183642317e-01,6.95922e-04,9.99999e-01,9.99999e-01,6.95922e-04,9.99999e-01
4.204560528e-01,8.03392e-04,9.99999e-01,9.99999e-01,8.03392e-04,9.99999e-01
4.225583331e-01,9.24832e-04,9.99999e-01,9.99999e-01,9.24832e-04,9.99999e-01
4.246711247e-01,1.06167e-03,9.99999e-01,9.99999e-01,1.06167e-03,9.99999e-01
4.267944804e-01,1.21544e-03,9.99999e-01,9.99999e-01,1.21544e-03,9.99999e-01
4.289284528e-01,1.38777e-03,9.99999e-01,9.99999e-01,1.38777e-03,9.99999e-01
4.310730950e-01,1.58039e-03,9.99999e-01,9.99999e-01,1.58039e-03,9.99999e-01
4.332284605e-01,1.79513e-03,9.99999e-01,9.99999e-01,1.79513e-03,9.99999e-01
4.353946028e-01,2.03392e-03,9.99999e-01,9.99999e-01,2.03392e-03,9.99999e-01
4.375715758e-01,2.29880e-03,9.99999e-01,9.99999e-01,2.29880e-03,9.99999e-01
4.397594337e-01,2.59190e-03,9.99999e-01,9.99999e-01,2.59190e-03,9.99999e-01
4.419582309e-01,2.91545e-03,9.99999e-01,9.99999e-01,2.91545e-03,9.99999e-01
4.441680220e-01,3.27178e-03,9.99999e-01,9.99999e-01,3.27178e-03,9.99999e-01
4.463888621e-01,3.66331e-03,9.99999e-01,9.99999e-01,3.66331e-03,9.99999e-01
4.486208064e-01,4.09254e-03,9.99999e-01,9.99999e-01,4.09254e-03,9.99999e-01
4.508639105e-01,4.56207e-03,9.99999e-01,9.99999e-01,4.56207e-03,9.99999e-01
4.531182300e-01,5.07457e-03,9.99999e-01,9.99999e-01,5.07457e-03,9.99999e-01
4.553838212e-01,5.63279e-03,9.99999e-01,9.99999e-01,5.63279e-03,9.99999e-01
4.576607403e-01,6.23953e-03,9.99999e-01,9.99999e-01,6.23953e-03,9.99999e-01
4.599490440e-01,6.89768e-03,9.99999e-01,9.99999e-01,6.89768e-03,9.99999e-01
4.622487892e-01,7.61017e-03,9.99999e-01,9.99999e-01,7.61017e-03,9.99999e-01
4.645600332e-01,8.37996e-03,9.99999e-01,9.99999e-01,8.37996e-03,9.99999e-01
4.668828333e-01,9.21007e-03,9.99999e-01,9.99999e-01,9.21007e-03,9.99999e-01
4.692172475e-01,1.01035e-02,9.99999e-01,9.99999e-01,1.01035e-02,9.99999e-01
4.715633337e-01,1.10634e-02,9.99999e-01,9.99999e-01,1.10634e-02,9.99999e-01
4.739211504e-01,1.20928e-02,9.99999e-01,9.99999e-01,1.20928e-02,9.99999e-01
4.762907561e-01,1.31948e-02,9.99999e-01,9.99999e-01,1.31948e-02,9.99999e-01
4.786722099e-01,1.43724e-02,9.99999e-01,9.99999e-01,1.43724e-02,9.99999e-01
4.810655710e-01,1.56287e-02,9.99999e-01,9.99999e-01,1.56287e-02,9.99999e-01
4.834708988e-01,1.69667e-02,9.99999e-01,9.99999e-01,1.69667e-02,9.99999e-01
4.858882533e-01,1.83894e-02,9.99999e-01,9.99999e-01,1.83894e-02,9.99999e-01
4.883176946e-01,1.98997e-02,9.99999e-01,9.99999e-01,1.98997e-02,9.99999e-01
4.907592831e-01,2.15005e-02,9.99999e-01,9.99999e-01,2.15005e-02,9.99999e-01
4.932130795e-01,2.31946e-02,9.99999e-01,9.99999e-01,2.31946e-02,9.99999e-01
4.956791449e-01,2.49847e-02,9.99999e-01,9.99999e-01,2.49847e-02,9.99999e-01
4.981575406e-01,2.68735e-02,9.99999e-01,9.99999e-01,2.68735e-02,9.99999e-01
5.006483283e-01,2.88635e-02,9.99999e-01,9.99999e-01,2.88635e-02,9.99999e-01
5.031515699e-01,3.09572e-02,9.99999e-01,9.99999e-01,3.09572e-02,9.99999e-01
5.056673278e-01,3.31568e-02,9.99999e-01,9.99999e-01,3.31568e-02,9.99999e-01
5.081956644e-01,3.54646e-02,9.99999e-01,9.99999e-01,3.54646e-02,9.99999e-01
5.107366428e-01,3.78826e-02,9.99999e-01,9.99999e-01,3.78826e-02,9.99999e-01
5.132903260e-01,4.04128e-02,9.99999e-01,9.99999e-01,4.04128e-02,9.99999e-01
5.158567776e-01,4.30570e-02,9.99999e-01,9.99999e-01,4.30570e-02,9.99999e-01
5.184360615e-01,4.58168e-02,9.99999e-01,9.99999e-01,4.58168e-02,9.99999e-01
5.210282418e-01,4.86937e-02,9.99999e-01,9.99999e-01,4.86937e-02,9.99999e-01
5.236333830e-01,5.16891e-02,9.99999e-01,9.99999e-01,5.16891e-02,9.99999e-01
5.262515499e-01,5.48040e-02,9.99999e-01,9.99999e-01,5.48040e-02,9.99999e-01
5.288828077e-01,5.80395e-02,9.99999e-01,9.99999e-01,5.80395e-02,9.99999e-01
5.315272217e-01,6.13964e-02,9.99999e-01,9.99999e-01,6.13964e-02,9.99999e-01
5.341848578e-01,6.48755e-02,9.99999e-01,9.99999e-01,6.48755e-02,9.99999e-01
5.368557821e-01,6.84770e-02,9.99999e-01,9.99999e-01,6.84770e-02,9.99999e-01
5.395400610e-01,7.22014e-02,9.99999e-01,9.99999e-01,7.22014e-02,9.99999e-01
5.422377613e-01,7.60488e-02,9.99999e-01,9.99999e-01,7.60488e-02,9.99999e-01
5.449489501e-01,8.00190e-02,9.99999e-01,9.99999e-01,8.00190e-02,9.99999e-01
5.476736949e-01,8.41120e-02,9.99999e-01,9.99999e-01,8.41120e-02,9.99999e-01
5.504120634e-01,8.83273e-02,9.99999e-01,9.99999e-01,8.83273e-02,9.99999e-01
5.531641237e-01,9.26642e-02,9.99999e-01,9.99999e-01,9.26642e-02,9.99999e-01
5.559299443e-01,9.71221e-02,9.99999e-01,9.99999e-01,9.71221e-02,9.99999e-01
5.587095940e-01,1.01700e-01,9.99999e-01,9.99999e-01,1.01700e-01,9.99999e-01
5.615031420e-01,1.06397e-01,9.99999e-01,9.99999e-01,1.06397e-01,9.99999e-01
5.643106577e-01,1.11211e-01,9.99999e-01,9.99999e-01,1.11211e-01,9.99999e-01
5.671322110e-01,1.16142e-01,9.99999e-01,9.99999e-01,1.16142e-01,9.99999e-01
5.699678720e-01,1.21188e-01,9.99999e-01,9.99999e-01,1.21188e-01,9.99999e-01
5.728177114e-01,1.26346e-01,9.99999e-01,9.99999e-01,1.26346e-01,9.99999e-01
5.756818000e-01,1.31616e-01,9.99999e-01,9.99999e-01,1.31616e-01,9.99999e-01
5.785602090e-01,1.36995e-01,9.99999e-01,9.99999e-01,1.36995e-01,9.99999e-01
5.814530100e-01,1.42481e-01,9.99999e-01,9.99999e-01,1.42481e-01,9.99999e-01
5.843602750e-01,1.48072e-01,9.99999e-01,9.99999e-01,1.48072e-01,9.99999e-01
5.872820764e-01,1.53765e-01,9.99999e-01,9.99999e-01,1.53765e-01,9.99999e-01
5.902184868e-01,1.59558e-01,9.99999e-01,9.99999e-01,1.59558e-01,9.99999e-01
5.931695792e-01,1.65449e-01,9.99999e-01,9.99999e-01,1.65449e-01,9.99999e-01
5.961354271e-01,1.71434e-01,9.99999e-01,9.99999e-01,1.71434e-01,9.99999e-01
5.991161043e-01,1.77511e-01,9.99999e-01,9.99999e-01,1.77511e-01,9.99999e-01
6.021116848e-01,1.83677e-01,9.99999e-01,9.99999e-01,1.83677e-01,9.99999e-01
6.051222432e-01,1.89929e-01,9.99999e-01,9.99999e-01,1.89929e-01,9.99999e-01
6.081478544e-01,1.96264e-01,9.99999e-01,9.99999e-01,1.96264e-01,9.99999e-01
6.111885937e-01,2.02679e-01,9.99999e-01,9.99999e-01,2.02679e-01,9.99999e-01
6.142445367e-01,2.09171e-01,9.99999e-01,9.99999e-01,2.09171e-01,9.99999e-01
6.173157594e-01,2.15737e-01,9.99999e-01,9.99999e-01,2.15737e-01,9.99999e-01
6.204023382e-01,2.22372e-01,9.99999e-01,9.99999e-01,2.22372e-01,9.99999e-01
6.235043498e-01,2.29075e-01,9.99999e-01,9.99999e-01,2.29075e-01,9.99999e-01
6.266218716e-01,2.35841e-01,9.99999e-01,9.99999e-01,2.35841e-01,9.99999e-01
6.297549810e-01,2.42667e-01,9.99999e-01,9.99999e-01,2.42667e-01,9.99999e-01
6.329037559e-01,2.49551e-01,9.99999e-01,9.99999e-01,2.49551e-01,9.99999e-01
6.360682746e-01,2.56488e-01,9.99999e-01,9.99999e-01,2.56488e-01,9.99999e-01
6.392486160e-01,2.63475e-01,9.99999e-01,9.99999e-01,2.63475e-01,9.99999e-01
6.424448591e-01,2.70508e-01,9.99999e-01,9.99999e-01,2.70508e-01,9.99999e-01
6.456570834e-01,2.77585e-01,9.99999e-01,9.99999e-01,2.77585e-01,9.99999e-01
6.488853688e-01,2.84702e-01,9.99999e-01,9.99999e-01,2.84702e-01,9.99999e-01
6.521297956e-01,2.91856e-01,9.99999e-01,9.99999e-01,2.91856e-01,9.99999e-01
6.553904446e-01,2.99042e-01,9.99999e-01,9.99999e-01,2.99042e-01,9.99999e-01
6.586673968e-01,3.06258e-01,9.99999e-01,9.99999e-01,3.06258e-01,9.99999e-01
6.619607338e-01,3.13501e-01,9.99999e-01,9.99999e-01,3.13501e-01,9.99999e-01
6.652705375e-01,3.20767e-01,9.99999e-01,9.99999e-01,3.20767e-01,9.99999e-01
6.685968902e-01,3.28053e-01,9.99999e-01,9.99999e-01,3.28053e-01,9.99999e-01
6.719398746e-01,3.35355e-01,9.99999e-01,9.99999e-01,3.35355e-01,9.99999e-01
6.752995740e-01,3.42671e-01,9.99999e-01,9.99999e-01,3.42671e-01,9.99999e-01
6.786760719e-01,3.49997e-01,9.99999e-01,9.99999e-01,3.49997e-01,9.99999e-01
6.820694522e-01,3.57331e-01,9.99999e-01,9.99999e-01,3.57331e-01,9.99999e-01
6.854797995e-01,3.64669e-01,9.99999e-01,9.99999e-01,3.64669e-01,9.99999e-01
6.889071985e-01,3.72008e-01,9.99999e-01,9.99999e-01,3.72008e-01,9.99999e-01
6.923517345e-01,3.79345e-01,9.99999e-01,9.99999e-01,3.79345e-01,9.99999e-01
6.958134932e-01,3.86678e-01,9.99999e-01,9.99999e-01,3.86678e-01,9.99999e-01
6.992925606e-01,3.94004e-01,9.99999e-01,9.99999e-01,3.94004e-01,9.99999e-01
7.027890234e-01,4.01320e-01,9.99999e-01,9.99999e-01,4.01320e-01,9.99999e-01
7.063029686e-01,4.08623e-01,9.99999e-01,9.99999e-01,4.08623e-01,9.99999e-01
7.098344834e-01,4.15910e-01,9.99999e-01,9.99999e-01,4.15910e-01,9.99999e-01
7.133836558e-01,4.23180e-01,9.99999e-01,9.99999e-01,4.23180e-01,9.99999e-01
7.169505741e-01,4.30430e-01,9.99999e-01,9.99999e-01,4.30430e-01,9.99999e-01
7.205353270e-01,4.37657e-01,9.99999e-01,9.99999e-01,4.37657e-01,9.99999e-01
7.241380036e-01,4.44859e-01,9.99999e-01,9.99999e-01,4.44859e-01,9.99999e-01
7.277586936e-01,4.52034e-01,9.99999e-01,9.99999e-01,4.52034e-01,9.99999e-01
7.313974871e-01,4.59179e-01,9.99999e-01,9.99999e-01,4.59179e-01,9.99999e-01
7.350544745e-01,4.66293e-01,9.99999e-01,9.99999e-01,4.66293e-01,9.99999e-01
7.387297469e-01,4.73373e-01,9.99999e-01,9.99999e-01,4.73373e-01,9.99999e-01
7.424233956e-01,4.80418e-01,9.99999e-01,9.99999e-01,4.80418e-01,9.99999e-01
7.461355126e-01,4.87425e-01,9.99999e-01,9.99999e-01,4.87425e-01,9.99999e-01
7.498661902e-01,4.94393e-01,9.99999e-01,9.99999e-01,4.94393e-01,9.99999e-01
7.536155211e-01,5.01320e-01,9.99999e-01,9.99999e-01,5.01320e-01,9.99999e-01
7.573835987e-01,5.08205e-01,9.99999e-01,9.99999e-01,5.08205e-01,9.99999e-01
7.611705167e-01,5.15045e-01,9.99999e-01,9.99999e-01,5.15045e-01,9.99999e-01
7.649763693e-01,5.21839e-01,9.99999e-01,9.99999e-01,5.21839e-01,9.99999e-01
7.688012511e-01,5.28587e-01,9.99999e-01,9.99999e-01,5.28587e-01,9.99999e-01
7.726452574e-01,5.35285e-01,9.99999e-01,9.99999e-01,5.35285e-01,9.99999e-01
7.765084837e-01,5.41934e-01,9.99999e-01,9.99999e-01,5.41934e-01,9.99999e-01
7.803910261e-01,5.32158e-01,9.99999e-01,9.70149e-01,5.48532e-01,9.99999e-01
7.842929812e-01,4.90069e-01,9.99999e-01,8.82884e-01,5.55077e-01,9.99999e-01
7.882144461e-01,4.90785e-01,9.99999e-01,8.73952e-01,5.61568e-01,9.99999e-01
7.921555184e-01,5.25276e-01,9.99999e-01,9.24771e-01,5.68006e-01,9.99999e-01
7.961162960e-01,5.45404e-01,9.99999e-01,9.49540e-01,5.74387e-01,9.99999e-01
8.000968774e-01,5.64603e-01,9.99999e-01,9.72258e-01,5.80712e-01,9.99999e-01
8.040973618e-01,5.78532e-01,9.99999e-01,9.85607e-01,5.86980e-01,9.99999e-01
8.081178486e-01,5.89238e-01,9.99999e-01,9.93336e-01,5.93190e-01,9.99999e-01
8.121584379e-01,5.98121e-01,9.99999e-01,9.97964e-01,5.99341e-01,9.99999e-01
8.162192301e-01,6.05159e-01,9.99999e-01,9.99549e-01,6.05432e-01,9.99999e-01
8.203003262e-01,6.11459e-01,9.99999e-01,9.99993e-01,6.11463e-01,9.99999e-01
8.244018279e-01,6.17433e-01,9.99999e-01,9.99999e-01,6.17433e-01,9.99999e-01
8.285238370e-01,6.23341e-01,9.99999e-01,9.99999e-01,6.23341e-01,9.99999e-01
8.326664562e-01,6.29188e-01,9.99999e-01,9.99999e-01,6.29188e-01,9.99999e-01
8.368297885e-01,6.34973e-01,9.99999e-01,9.99999e-01,6.34973e-01,9.99999e-01
8.410139374e-01,6.40695e-01,9.99999e-01,9.99999e-01,6.40695e-01,9.99999e-01
8.452190071e-01,6.46354e-01,9.99999e-01,9.99999e-01,6.46354e-01,9.99999e-01
8.494451021e-01,6.51950e-01,9.99999e-01,9.99999e-01,6.51950e-01,9.99999e-01
8.536923276e-01,6.57482e-01,9.99999e-01,9.99999e-01,6.57482e-01,9.99999e-01
8.579607893e-01,6.62950e-01,9.99999e-01,9.99999e-01,6.62950e-01,9.99999e-01
8.622505932e-01,6.68355e-01,9.99999e-01,9.99999e-01,6.68355e-01,9.99999e-01
8.665618462e-01,6.27088e-01,9.99999e-01,9.30817e-01,6.73696e-01,9.99999e-01
8.708946554e-01,4.92995e-01,9.99999e-01,7.26089e-01,6.78972e-01,9.99999e-01
8.752491287e-01,5.29926e-01,9.99999e-01,7.74535e-01,6.84185e-01,9.99999e-01
8.796253743e-01,5.99483e-01,9.99999e-01,8.69655e-01,6.89333e-01,9.99999e-01
8.840235012e-01,6.45990e-01,9.99999e-01,9.30261e-01,6.94417e-01,9.99999e-01
8.884436187e-01,6.79899e-01,9.99999e-01,9.72065e-01,6.99437e-01,9.99999e-01
8.928858368e-01,6.96345e-01,9.99999e-01,9.88573e-01,7.04394e-01,9.99999e-01
8.973502660e-01,7.07323e-01,9.99999e-01,9.97232e-01,7.09286e-01,9.99999e-01
9.018370173e-01,7.13898e-01,9.99999e-01,9.99695e-01,7.14115e-01,9.99999e-01
9.063462024e-01,7.13023e-01,9.99999e-01,9.91852e-01,7.18880e-01,9.99999e-01
9.108779334e-01,7.10529e-01,9.99999e-01,9.81960e-01,7.23582e-01,9.99999e-01
9.154323231e-01,7.25161e-01,9.99999e-01,9.95797e-01,7.28221e-01,9.99999e-01
9.200094847e-01,6.87187e-01,9.99999e-01,9.37758e-01,7.32797e-01,9.99999e-01
9.246095321e-01,6.74335e-01,9.99999e-01,9.14585e-01,7.37311e-01,9.99999e-01
9.292325798e-01,6.90897e-01,9.99999e-01,9.31425e-01,7.41763e-01,9.99999e-01
9.338787427e-01,6.97309e-01,9.99999e-01,9.34538e-01,7.46153e-01,9.99999e-01
9.385481364e-01,7.14063e-01,9.99999e-01,9.51473e-01,7.50481e-01,9.99999e-01
9.432408771e-01,7.32193e-01,9.99999e-01,9.70115e-01,7.54748e-01,9.99999e-01
9.479570815e-01,7.47207e-01,9.99999e-01,9.84521e-01,7.58954e-01,9.99999e-01
9.526968669e-01,7.57399e-01,9.99999e-01,9.92527e-01,7.63100e-01,9.99999e-01
9.574603512e-01,7.64734e-01,9.99999e-01,9.96802e-01,7.67187e-01,9.99999e-01
9.622476530e-01,7.70445e-01,9.99999e-01,9.99003e-01,7.71213e-01,9.99999e-01
9.670588912e-01,7.74950e-01,9.99999e-01,9.99701e-01,7.75181e-01,9.99999e-01
9.718941857e-01,7.79074e-01,9.99999e-01,9.99979e-01,7.79090e-01,9.99999e-01
9.767536566e-01,7.82941e-01,9.99999e-01,9.99999e-01,7.82941e-01,9.99999e-01
9.816374249e-01,7.86734e-01,9.99999e-01,9.99999e-01,7.86734e-01,9.99999e-01
9.865456120e-01,7.90471e-01,9.99999e-01,9.99999e-01,7.90471e-01,9.99999e-01
9.914783401e-01,7.94150e-01,9.99999e-01,9.99999e-01,7.94150e-01,9.99999e-01
9.964357318e-01,7.97774e-01,9.99999e-01,9.99999e-01,7.97774e-01,9.99999e-01
1.001417910e+00,8.01342e-01,9.99999e-01,9.99999e-01,8.01342e-01,9.99999e-01
1.006425000e+00,8.04855e-01,9.99999e-01,9.99999e-01,8.04855e-01,9.99999e-01
1.011457125e+00,8.08314e-01,9.99999e-01,9.99999e-01,8.08314e-01,9.99999e-01
1.016514411e+00,8.11719e-01,9.99999e-01,9.99999e-01,8.11719e-01,9.99999e-01
1.021596983e+00,8.15030e-01,9.99999e-01,9.99949e-01,8.15070e-01,9.99999e-01
1.026704968e+00,8.15754e-01,9.99999e-01,9.96803e-01,8.18369e-01,9.99999e-01
1.031838492e+00,7.86576e-01,9.99999e-01,9.57352e-01,8.21616e-01,9.99999e-01
1.036997685e+00,1.47824e-01,9.99999e-01,1.79222e-01,8.24810e-01,9.99999e-01
1.042182673e+00,1.40991e-01,9.99999e-01,1.70288e-01,8.27954e-01,9.99999e-01
1.047393587e+00,1.50454e-01,9.99999e-01,1.81042e-01,8.31048e-01,9.99999e-01
1.052630555e+00,7.27409e-03,9.99999e-01,8.72097e-03,8.34091e-01,9.99999e-01
1.057893707e+00,1.73110e-02,9.99999e-01,2.06800e-02,8.37085e-01,9.99999e-01
1.063183176e+00,4.85805e-02,9.99999e-01,5.78318e-02,8.40031e-01,9.99999e-01
1.068499092e+00,1.18099e-01,9.99999e-01,1.40105e-01,8.42928e-01,9.99999e-01
1.073841587e+00,2.45765e-01,9.99999e-01,2.90579e-01,8.45778e-01,9.99999e-01
1.079210795e+00,3.88073e-01,9.99999e-01,4.57319e-01,8.48581e-01,9.99999e-01
1.084606849e+00,5.54604e-01,9.99999e-01,6.51450e-01,8.51337e-01,9.99999e-01
1.090029883e+00,6.83599e-01,9.99999e-01,8.00421e-01,8.54048e-01,9.99999e-01
1.095480033e+00,7.67913e-01,9.99999e-01,8.96346e-01,8.56714e-01,9.99999e-01
1.100957433e+00,8.15196e-01,9.99999e-01,9.48635e-01,8.59335e-01,9.99999e-01
1.106462220e+00,8.43364e-01,9.99999e-01,9.78480e-01,8.61912e-01,9.99999e-01
1.111994531e+00,8.57504e-01,9.99999e-01,9.91969e-01,8.64445e-01,9.99999e-01
1.117554504e+00,8.65243e-01,9.99999e-01,9.98046e-01,8.66936e-01,9.99999e-01
1.123142276e+00,8.69274e-01,9.99999e-01,9.99872e-01,8.69385e-01,9.99999e-01
1.128757988e+00,8.71792e-01,9.99999e-01,9.99999e-01,8.71792e-01,9.99999e-01
1.134401778e+00,8.74158e-01,9.99999e-01,9.99999e-01,8.74158e-01,9.99999e-01
1.140073787e+00,8.76483e-01,9.99999e-01,9.99999e-01,8.76483e-01,9.99999e-01
1.145774156e+00,8.78768e-01,9.99999e-01,9.99999e-01,8.78768e-01,9.99999e-01
1.151503026e+00,8.81015e-01,9.99999e-01,9.99999e-01,8.81015e-01,9.99999e-01
1.157260541e+00,8.83222e-01,9.99999e-01,9.99999e-01,8.83222e-01,9.99999e-01
1.163046844e+00,8.85391e-01,9.99999e-01,9.99999e-01,8.85391e-01,9.99999e-01
1.168862078e+00,8.87522e-01,9.99999e-01,9.99999e-01,8.87522e-01,9.99999e-01
1.174706389e+00,8.89616e-01,9.99999e-01,9.99999e-01,8.89616e-01,9.99999e-01
1.180579921e+00,8.91674e-01,9.99999e-01,9.99999e-01,8.91674e-01,9.99999e-01
1.186482820e+00,8.93689e-01,9.99999e-01,9.99991e-01,8.93696e-01,9.99999e-01
1.192415234e+00,8.85409e-01,9.99999e-01,9.88530e-01,8.95682e-01,9.99999e-01
1.198377311e+00,5.07402e-01,9.99999e-01,5.65266e-01,8.97633e-01,9.99999e-01
1.204369197e+00,1.14779e-09,9.99999e-01,1.27596e-09,8.99550e-01,9.99999e-01
1.210391043e+00,4.09672e-34,9.99999e-01,4.54467e-34,9.01433e-01,9.99999e-01
1.216442998e+00,9.64076e-30,9.99999e-01,1.06730e-29,9.03282e-01,9.99999e-01
1.222525213e+00,2.55210e-29,9.99999e-01,2.81969e-29,9.05099e-01,9.99999e-01
1.228637839e+00,1.07413e-22,9.99999e-01,1.18442e-22,9.06884e-01,9.99999e-01
1.234781029e+00,6.28728e-15,9.99999e-01,6.91946e-15,9.08636e-01,9.99999e-01
1.240954934e+00,4.40103e-10,9.99999e-01,4.83440e-10,9.10357e-01,9.99999e-01
1.247159708e+00,8.34968e-06,9.99999e-01,9.15486e-06,9.12048e-01,9.99999e-01
1.253395507e+00,1.07206e-03,9.99999e-01,1.17331e-03,9.13708e-01,9.99999e-01
1.259662485e+00,1.92356e-02,9.99999e-01,2.10147e-02,9.15338e-01,9.99999e-01
1.265960797e+00,9.84508e-02,9.99999e-01,1.07369e-01,9.16939e-01,9.99999e-01
1.272290601e+00,3.60006e-01,9.99999e-01,3.91945e-01,9.18511e-01,9.99999e-01
1.278652054e+00,3.05501e-01,9.99999e-01,3.32047e-01,9.20054e-01,9.99999e-01
1.285045314e+00,8.14421e-03,9.99999e-01,8.83732e-03,9.21569e-01,9.99999e-01
1.291470541e+00,1.06371e-04,9.99999e-01,1.15237e-04,9.23057e-01,9.99999e-01
1.297927893e+00,1.65519e-02,9.99999e-01,1.79032e-02,9.24518e-01,9.99999e-01
1.304417533e+00,1.67941e-01,9.99999e-01,1.81371e-01,9.25953e-01,9.99999e-01
1.310939621e+00,2.79012e-02,9.99999e-01,3.00867e-02,9.27361e-01,9.99999e-01
1.317494319e+00,2.92250e-12,9.99999e-01,3.14672e-12,9.28743e-01,9.99999e-01
1.324081790e+00,8.58470e-07,9.99999e-01,9.22986e-07,9.30100e-01,9.99999e-01
1.330702199e+00,4.47981e-05,9.99999e-01,4.80959e-05,9.31432e-01,9.99999e-01
1.337355710e+00,7.18878e-05,9.99999e-01,7.70716e-05,9.32740e-01,9.99999e-01
1.344042489e+00,4.57343e-06,9.99999e-01,4.89648e-06,9.34024e-01,9.99999e-01
1.350762701e+00,3.01807e-05,9.99999e-01,3.22690e-05,9.35284e-01,9.99999e-01
1.357516515e+00,1.19643e-03,9.99999e-01,1.27752e-03,9.36521e-01,9.99999e-01
1.364304097e+00,1.28073e-02,9.99999e-01,1.36576e-02,9.37735e-01,9.99999e-01
1.371125618e+00,9.97603e-02,9.99999e-01,1.06249e-01,9.38926e-01,9.99999e-01
1.377981246e+00,1.50598e-01,9.99999e-01,1.60194e-01,9.40096e-01,9.99999e-01
1.384871152e+00,3.24555e-01,9.99999e-01,3.44815e-01,9.41244e-01,9.99999e-01
1.391795508e+00,3.52594e-01,9.99999e-01,3.74156e-01,9.42370e-01,9.99999e-01
1.398754485e+00,5.14525e-01,9.99999e-01,5.45350e-01,9.43475e-01,9.99999e-01
1.405748258e+00,6.04703e-01,9.99999e-01,6.40195e-01,9.44560e-01,9.99999e-01
1.412776999e+00,7.13716e-01,9.99999e-01,7.54755e-01,9.45625e-01,9.99999e-01
1.419840884e+00,6.40903e-01,9.99999e-01,6.77007e-01,9.46670e-01,9.99999e-01
1.426940089e+00,6.57676e-02,9.99999e-01,6.93973e-02,9.47695e-01,9.99999e-01
1.434074789e+00,0.00000e+00,9.99999e-01,0.00000e+00,9.48701e-01,9.99999e-01
1.441245163e+00,0.00000e+00,9.99999e-01,0.00000e+00,9.49689e-01,9.99999e-01
1.448451389e+00,0.00000e+00,9.99999e-01,0.00000e+00,9.50658e-01,9.99999e-01
1.455693646e+00,3.79312e-271,9.99999e-01,3.98600e-271,9.51608e-01,9.99999e-01
1.462972114e+00,1.41046e-131,9.99999e-01,1.48073e-131,9.52541e-01,9.99999e-01
1.470286975e+00,1.82695e-55,9.99999e-01,1.91614e-55,9.53456e-01,9.99999e-01
