#,Wave/freq,Total,N2,CO2,Rayleigh,CIA
4.000000000e-01,2.86861e-11,9.99999e-01,9.99999e-01,2.86861e-11,9.99999e-01
4.020000000e-01,4.63578e-11,9.99999e-01,9.99999e-01,4.63578e-11,9.99999e-01
4.040100000e-01,7.41724e-11,9.99999e-01,9.99999e-01,7.41724e-11,9.99999e-01
4.060300500e-01,1.17579e-10,9.99999e-01,9.99999e-01,1.17579e-10,9.99999e-01
4.080602003e-01,1.84700e-10,9.99999e-01,9.99999e-01,1.84700e-10,9.99999e-01
4.101005013e-01,2.87559e-10,9.99999e-01,9.99999e-01,2.87559e-10,9.99999e-01
4.121510038e-01,4.43804e-10,9.99999e-01,9.99999e-01,4.43804e-10,9.99999e-01
4.142117588e-01,6.79098e-10,9.99999e-01,9.99999e-01,6.79098e-10,9.99999e-01
4.162828176e-01,1.03044e-09,9.99999e-01,9.99999e-01,1.03044e-09,9.99999e-01
4.183642317e-01,1.55074e-09,9.99999e-01,9.99999e-01,1.55074e-09,9.99999e-01
4.204560528e-01,2.31498e-09,9.99999e-01,9.99999e-01,2.31498e-09,9.99999e-01
4.225583331e-01,3.42862e-09,9.99999e-01,9.99999e-01,3.42862e-09,9.99999e-01
4.246711247e-01,5.03874e-09,9.99999e-01,9.99999e-01,5.03874e-09,9.99999e-01
4.267944804e-01,7.34889e-09,9.99999e-01,9.99999e-01,7.34889e-09,9.99999e-01
4.289284528e-01,1.06386e-08,9.99999e-01,9.99999e-01,1.06386e-08,9.99999e-01
4.310730950e-01,1.52888e-08,9.99999e-01,9.99999e-01,1.52888e-08,9.99999e-01
4.332284605e-01,2.18148e-08,9.99999e-01,9.99999e-01,2.18148e-08,9.99999e-01
4.353946028e-01,3.09086e-08,9.99999e-01,9.99999e-01,3.09086e-08,9.99999e-01
4.375715758e-01,4.34929e-08,9.99999e-01,9.99999e-01,4.34929e-08,9.99999e-01
4.397594337e-01,6.07895e-08,9.99999e-01,9.99999e-01,6.07895e-08,9.99999e-01
4.419582309e-01,8.44045e-08,9.99999e-01,9.99999e-01,8.44045e-08,9.99999e-01
4.441680220e-01,1.16436e-07,9.99999e-01,9.99999e-01,1.16436e-07,9.99999e-01
4.463888621e-01,1.59606e-07,9.99999e-01,9.99999e-01,1.59606e-07,9.99999e-01
4.486208064e-01,2.17423e-07,9.99999e-01,9.99999e-01,2.17423e-07,9.99999e-01
4.508639105e-01,2.94382e-07,9.99999e-01,9.99999e-01,2.94382e-07,9.99999e-01
4.531182300e-01,3.96201e-07,9.99999e-01,9.99999e-01,3.96201e-07,9.99999e-01
4.553838212e-01,5.30118e-07,9.99999e-01,9.99999e-01,5.30118e-07,9.99999e-01
4.576607403e-01,7.05232e-07,9.99999e-01,9.99999e-01,7.05232e-07,9.99999e-01
4.599490440e-01,9.32916e-07,9.99999e-01,9.99999e-01,9.32916e-07,9.99999e-01
4.622487892e-01,1.22731e-06,9.99999e-01,9.99999e-01,1.22731e-06,9.99999e-01
4.645600332e-01,1.60587e-06,9.99999e-01,9.99999e-01,1.60587e-06,9.99999e-01
4.668828333e-01,2.09008e-06,9.99999e-01,9.99999e-01,2.09008e-06,9.99999e-01
4.692172475e-01,2.70616e-06,9.99999e-01,9.99999e-01,2.70616e-06,9.99999e-01
4.715633337e-01,3.48601e-06,9.99999e-01,9.99999e-01,3.48601e-06,9.99999e-01
4.739211504e-01,4.46818e-06,9.99999e-01,9.99999e-01,4.46818e-06,9.99999e-01
4.762907561e-01,5.69907e-06,9.99999e-01,9.99999e-01,5.69907e-06,9.99999e-01
4.786722099e-01,7.23419e-06,9.99999e-01,9.99999e-01,7.23419e-06,9.99999e-01
4.810655710e-01,9.13965e-06,9.99999e-01,9.99999e-01,9.13965e-06,9.99999e-01
4.834708988e-01,1.14938e-05,9.99999e-01,9.99999e-01,1.14938e-05,9.99999e-01
4.858882533e-01,1.43890e-05,9.99999e-01,9.99999e-01,1.43890e-05,9.99999e-01
4.883176946e-01,1.79338e-05,9.99999e-01,9.99999e-01,1.79338e-05,9.99999e-01
4.907592831e-01,2.22548e-05,9.99999e-01,9.99999e-01,2.22548e-05,9.99999e-01
4.932130795e-01,2.74995e-05,9.99999e-01,9.99999e-01,2.74995e-05,9.99999e-01
4.956791449e-01,3.38383e-05,9.99999e-01,9.99999e-01,3.38383e-05,9.99999e-01
4.981575406e-01,4.14681e-05,9.99999e-01,9.99999e-01,4.14681e-05,9.99999e-01
5.006483283e-01,5.06145e-05,9.99999e-01,9.99999e-01,5.06145e-05,9.99999e-01
5.031515699e-01,6.15356e-05,9.99999e-01,9.99999e-01,6.15356e-05,9.99999e-01
5.056673278e-01,7.45249e-05,9.99999e-01,9.99999e-01,7.45249e-05,9.99999e-01
5.081956644e-01,8.99153e-05,9.99999e-01,9.99999e-01,8.99153e-05,9.99999e-01
5.107366428e-01,1.08083e-04,9.99999e-01,9.99999e-01,1.08083e-04,9.99999e-01
5.132903260e-01,1.29449e-04,9.99999e-01,9.99999e-01,1.29449e-04,9.99999e-01
5.158567776e-01,1.54488e-04,9.99999e-01,9.99999e-01,1.54488e-04,9.99999e-01
5.184360615e-01,1.83727e-04,9.99999e-01,9.99999e-01,1.83727e-04,9.99999e-01
5.210282418e-01,2.17753e-04,9.99999e-01,9.99999e-01,2.17753e-04,9.99999e-01
5.236333830e-01,2.57217e-04,9.99999e-01,9.99999e-01,2.57217e-04,9.99999e-01
5.262515499e-01,3.02834e-04,9.99999e-01,9.99999e-01,3.02834e-04,9.99999e-01
5.288828077e-01,3.55394e-04,9.99999e-01,9.99999e-01,3.55394e-04,9.99999e-01
5.315272217e-01,4.15759e-04,9.99999e-01,9.99999e-01,4.15759e-04,9.99999e-01
5.341848578e-01,4.84873e-04,9.99999e-01,9.99999e-01,4.84873e-04,9.99999e-01
5.368557821e-01,5.63761e-04,9.99999e-01,9.99999e-01,5.63761e-04,9.99999e-01
5.395400610e-01,6.53535e-04,9.99999e-01,9.99999e-01,6.53535e-04,9.99999e-01
5.422377613e-01,7.55397e-04,9.99999e-01,9.99999e-01,7.55397e-04,9.99999e-01
5.449489501e-01,8.70641e-04,9.99999e-01,9.99999e-01,8.70641e-04,9.99999e-01
5.476736949e-01,1.00066e-03,9.99999e-01,9.99999e-01,1.00066e-03,9.99999e-01
5.504120634e-01,1.14693e-03,9.99999e-01,9.99999e-01,1.14693e-03,9.99999e-01
5.531641237e-01,1.31105e-03,9.99999e-01,9.99999e-01,1.31105e-03,9.99999e-01
5.559299443e-01,1.49469e-03,9.99999e-01,9.99999e-01,1.49469e-03,9.99999e-01
5.587095940e-01,1.69966e-03,9.99999e-01,9.99999e-01,1.69966e-03,9.99999e-01
5.615031420e-01,1.92783e-03,9.99999e-01,9.99999e-01,1.92783e-03,9.99999e-01
5.643106577e-01,2.18120e-03,9.99999e-01,9.99999e-01,2.18120e-03,9.99999e-01
5.671322110e-01,2.46186e-03,9.99999e-01,9.99999e-01,2.46186e-03,9.99999e-01
5.699678720e-01,2.77199e-03,9.99999e-01,9.99999e-01,2.77199e-03,9.99999e-01
5.728177114e-01,3.11389e-03,9.99999e-01,9.99999e-01,3.11389e-03,9.99999e-01
5.756818000e-01,3.48993e-03,9.99999e-01,9.99999e-01,3.48993e-03,9.99999e-01
5.785602090e-01,3.90258e-03,9.99999e-01,9.99999e-01,3.90258e-03,9.99999e-01
5.814530100e-01,4.35441e-03,9.99999e-01,9.99999e-01,4.35441e-03,9.99999e-01
5.843602750e-01,4.84804e-03,9.99999e-01,9.99999e-01,4.84804e-03,9.99999e-01
5.872820764e-01,5.38619e-03,9.99999e-01,9.99999e-01,5.38619e-03,9.99999e-01
5.902184868e-01,5.97165e-03,9.99999e-01,9.99999e-01,5.97165e-03,9.99999e-01
5.931695792e-01,6.60727e-03,9.99999e-01,9.99999e-01,6.60727e-03,9.99999e-01
5.961354271e-01,7.29595e-03,9.99999e-01,9.99999e-01,7.29595e-03,9.99999e-01
5.991161043e-01,8.04066e-03,9.99999e-01,9.99999e-01,8.04066e-03,9.99999e-01
6.021116848e-01,8.84437e-03,9.99999e-01,9.99999e-01,8.84437e-03,9.99999e-01
6.051222432e-01,9.71014e-03,9.99999e-01,9.99999e-01,9.71014e-03,9.99999e-01
6.081478544e-01,1.06410e-02,9.99999e-01,9.99999e-01,1.06410e-02,9.99999e-01
6.111885937e-01,1.16400e-02,9.99999e-01,9.99999e-01,1.16400e-02,9.99999e-01
6.142445367e-01,1.27103e-02,9.99999e-01,9.99999e-01,1.27103e-02,9.99999e-01
6.173157594e-01,1.38549e-02,9.99999e-01,9.99999e-01,1.38549e-02,9.99999e-01
6.204023382e-01,1.50769e-02,9.99999e-01,9.99999e-01,1.50769e-02,9.99999e-01
6.235043498e-01,1.63793e-02,9.99999e-01,9.99999e-01,1.63793e-02,9.99999e-01
6.266218716e-01,1.77651e-02,9.99999e-01,9.99999e-01,1.77651e-02,9.99999e-01
6.297549810e-01,1.92372e-02,9.99999e-01,9.99999e-01,1.92372e-02,9.99999e-01
6.329037559e-01,2.07987e-02,9.99999e-01,9.99999e-01,2.07987e-02,9.99999e-01
6.360682746e-01,2.24522e-02,9.99999e-01,9.99999e-01,2.24522e-02,9.99999e-01
6.392486160e-01,2.42005e-02,9.99999e-01,9.99999e-01,2.42005e-02,9.99999e-01
6.424448591e-01,2.60464e-02,9.99999e-01,9.99999e-01,2.60464e-02,9.99999e-01
6.456570834e-01,2.79925e-02,9.99999e-01,9.99999e-01,2.79925e-02,9.99999e-01
6.488853688e-01,3.00411e-02,9.99999e-01,9.99999e-01,3.00411e-02,9.99999e-01
6.521297956e-01,3.21947e-02,9.99999e-01,9.99999e-01,3.21947e-02,9.99999e-01
6.553904446e-01,3.44556e-02,9.99999e-01,9.99999e-01,3.44556e-02,9.99999e-01
6.586673968e-01,3.68258e-02,9.99999e-01,9.99999e-01,3.68258e-02,9.99999e-01
6.619607338e-01,3.93074e-02,9.99999e-01,9.99999e-01,3.93074e-02,9.99999e-01
6.652705375e-01,4.19022e-02,9.99999e-01,9.99999e-01,4.19022e-02,9.99999e-01
6.685968902e-01,4.46120e-02,9.99999e-01,9.99999e-01,4.46120e-02,9.99999e-01
6.719398746e-01,4.74382e-02,9.99999e-01,9.99999e-01,4.74382e-02,9.99999e-01
6.752995740e-01,5.03823e-02,9.99999e-01,9.99999e-01,5.03823e-02,9.99999e-01
6.786760719e-01,5.34455e-02,9.99999e-01,9.99999e-01,5.34455e-02,9.99999e-01
6.820694522e-01,5.66289e-02,9.99999e-01,9.99999e-01,5.66289e-02,9.99999e-01
6.854797995e-01,5.99333e-02,9.99999e-01,9.99999e-01,5.99333e-02,9.99999e-01
6.889071985e-01,6.33596e-02,9.99999e-01,9.99999e-01,6.33596e-02,9.99999e-01
6.923517345e-01,6.69083e-02,9.99999e-01,9.99999e-01,6.69083e-02,9.99999e-01
6.958134932e-01,7.05796e-02,9.99999e-01,9.99999e-01,7.05796e-02,9.99999e-01
6.992925606e-01,7.43739e-02,9.99999e-01,9.99999e-01,7.43739e-02,9.99999e-01
7.027890234e-01,7.82912e-02,9.99999e-01,9.99999e-01,7.82912e-02,9.99999e-01
7.063029686e-01,8.23313e-02,9.99999e-01,9.99999e-01,8.23313e-02,9.99999e-01
7.098344834e-01,8.64939e-02,9.99999e-01,9.99999e-01,8.64939e-02,9.99999e-01
7.133836558e-01,9.07784e-02,9.99999e-01,9.99999e-01,9.07784e-02,9.99999e-01
7.169505741e-01,9.51842e-02,9.99999e-01,9.99999e-01,9.51842e-02,9.99999e-01
7.205353270e-01,9.97105e-02,9.99999e-01,9.99999e-01,9.97105e-02,9.99999e-01
7.241380036e-01,1.04356e-01,9.99999e-01,9.99999e-01,1.04356e-01,9.99999e-01
7.277586936e-01,1.09120e-01,9.99999e-01,9.99999e-01,1.09120e-01,9.99999e-01
7.313974871e-01,1.14001e-01,9.99999e-01,9.99999e-01,1.14001e-01,9.99999e-01
7.350544745e-01,1.18997e-01,9.99999e-01,9.99999e-01,1.18997e-01,9.99999e-01
7.387297469e-01,1.24107e-01,9.99999e-01,9.99999e-01,1.24107e-01,9.99999e-01
7.424233956e-01,1.29329e-01,9.99999e-01,9.99999e-01,1.29329e-01,9.99999e-01
7.461355126e-01,1.34661e-01,9.99999e-01,9.99999e-01,1.34661e-01,9.99999e-01
7.498661902e-01,1.40102e-01,9.99999e-01,9.99999e-01,1.40102e-01,9.99999e-01
7.536155211e-01,1.45647e-01,9.99999e-01,9.99999e-01,1.45647e-01,9.99999e-01
7.573835987e-01,1.51297e-01,9.99999e-01,9.99999e-01,1.51297e-01,9.99999e-01
7.611705167e-01,1.57047e-01,9.99999e-01,9.99999e-01,1.57047e-01,9.99999e-01
7.649763693e-01,1.62896e-01,9.99999e-01,9.99999e-01,1.62896e-01,9.99999e-01
7.688012511e-01,1.68841e-01,9.99999e-01,9.99999e-01,1.68841e-01,9.99999e-01
7.726452574e-01,1.74878e-01,9.99999e-01,9.99999e-01,1.74878e-01,9.99999e-01
7.765084837e-01,1.81006e-01,9.99999e-01,9.99999e-01,1.81006e-01,9.99999e-01
7.803910261e-01,1.74457e-01,9.99999e-01,9.31820e-01,1.87222e-01,9.99999e-01
7.842929812e-01,1.38344e-01,9.99999e-01,7.14878e-01,1.93521e-01,9.99999e-01
7.882144461e-01,1.40019e-01,9.99999e-01,7.00438e-01,1.99902e-01,9.99999e-01
7.921555184e-01,1.66452e-01,9.99999e-01,8.06602e-01,2.06361e-01,9.99999e-01
7.961162960e-01,1.84160e-01,9.99999e-01,8.65025e-01,2.12895e-01,9.99999e-01
8.000968774e-01,2.02897e-01,9.99999e-01,9.24356e-01,2.19501e-01,9.99999e-01
8.040973618e-01,2.17132e-01,9.99999e-01,9.60015e-01,2.26175e-01,9.99999e-01
8.081178486e-01,2.28591e-01,9.99999e-01,9.81439e-01,2.32914e-01,9.99999e-01
8.121584379e-01,2.38332e-01,9.99999e-01,9.94228e-01,2.39715e-01,9.99999e-01
8.162192301e-01,2.46260e-01,9.99999e-01,9.98722e-01,2.46575e-01,9.99999e-01
8.203003262e-01,2.53484e-01,9.99999e-01,9.99980e-01,2.53489e-01,9.99999e-01
8.244018279e-01,2.60455e-01,9.99999e-01,9.99999e-01,2.60455e-01,9.99999e-01
8.285238370e-01,2.67469e-01,9.99999e-01,9.99999e-01,2.67469e-01,9.99999e-01
8.326664562e-01,2.74527e-01,9.99999e-01,9.99999e-01,2.74527e-01,9.99999e-01
8.368297885e-01,2.81627e-01,9.99999e-01,9.99999e-01,2.81627e-01,9.99999e-01
8.410139374e-01,2.88765e-01,9.99999e-01,9.99999e-01,2.88765e-01,9.99999e-01
8.452190071e-01,2.95938e-01,9.99999e-01,9.99999e-01,2.95938e-01,9.99999e-01
8.494451021e-01,3.03142e-01,9.99999e-01,9.99999e-01,3.03142e-01,9.99999e-01
8.536923276e-01,3.10373e-01,9.99999e-01,9.99999e-01,3.10373e-01,9.99999e-01
8.579607893e-01,3.17630e-01,9.99999e-01,9.99999e-01,3.17630e-01,9.99999e-01
8.622505932e-01,3.24907e-01,9.99999e-01,9.99999e-01,3.24907e-01,9.99999e-01
8.665618462e-01,2.94115e-01,9.99999e-01,8.85345e-01,3.32203e-01,9.99999e-01
8.708946554e-01,1.47643e-01,9.99999e-01,4.34865e-01,3.39513e-01,9.99999e-01
8.752491287e-01,1.74590e-01,9.99999e-01,5.03379e-01,3.46836e-01,9.99999e-01
8.796253743e-01,2.41245e-01,9.99999e-01,6.81161e-01,3.54166e-01,9.99999e-01
8.840235012e-01,2.95545e-01,9.99999e-01,8.17545e-01,3.61503e-01,9.99999e-01
8.884436187e-01,3.40571e-01,9.99999e-01,9.23352e-01,3.68842e-01,9.99999e-01
8.928858368e-01,3.64208e-01,9.99999e-01,9.68173e-01,3.76180e-01,9.99999e-01
8.973502660e-01,3.80514e-01,9.99999e-01,9.92172e-01,3.83515e-01,9.99999e-01
9.018370173e-01,3.90506e-01,9.99999e-01,9.99134e-01,3.90845e-01,9.99999e-01
9.063462024e-01,3.89525e-01,9.99999e-01,9.78300e-01,3.98165e-01,9.99999e-01
9.108779334e-01,3.85327e-01,9.99999e-01,9.50312e-01,4.05474e-01,9.99999e-01
9.154323231e-01,4.07856e-01,9.99999e-01,9.88097e-01,4.12768e-01,9.99999e-01
9.200094847e-01,3.58049e-01,9.99999e-01,8.52403e-01,4.20046e-01,9.99999e-01
9.246095321e-01,3.33297e-01,9.99999e-01,7.79997e-01,4.27305e-01,9.99999e-01
9.292325798e-01,3.58509e-01,9.99999e-01,8.25027e-01,4.34542e-01,9.99999e-01
9.338787427e-01,3.66234e-01,9.99999e-01,8.29041e-01,4.41755e-01,9.99999e-01
9.385481364e-01,3.90881e-01,9.99999e-01,8.70670e-01,4.48942e-01,9.99999e-01
9.432408771e-01,4.18896e-01,9.99999e-01,9.18429e-01,4.56100e-01,9.99999e-01
9.479570815e-01,4.43434e-01,9.99999e-01,9.57268e-01,4.63228e-01,9.99999e-01
9.526968669e-01,4.60528e-01,9.99999e-01,9.79174e-01,4.70323e-01,9.99999e-01
9.574603512e-01,4.73104e-01,9.99999e-01,9.91036e-01,4.77383e-01,9.99999e-01
9.622476530e-01,4.83048e-01,9.99999e-01,9.97195e-01,4.84407e-01,9.99999e-01
9.670588912e-01,4.90979e-01,9.99999e-01,9.99158e-01,4.91392e-01,9.99999e-01
9.718941857e-01,4.98307e-01,9.99999e-01,9.99940e-01,4.98337e-01,9.99999e-01
9.767536566e-01,5.05240e-01,9.99999e-01,9.99999e-01,5.05240e-01,9.99999e-01
9.816374249e-01,5.12100e-01,9.99999e-01,9.99999e-01,5.12100e-01,9.99999e-01
9.865456120e-01,5.18914e-01,9.99999e-01,9.99999e-01,5.18914e-01,9.99999e-01
9.914783401e-01,5.25682e-01,9.99999e-01,9.99999e-01,5.25682e-01,9.99999e-01
9.964357318e-01,5.32402e-01,9.99999e-01,9.99999e-01,5.32402e-01,9.99999e-01
1.001417910e+00,5.39072e-01,9.99999e-01,9.99999e-01,5.39072e-01,9.99999e-01
1.006425000e+00,5.45692e-01,9.99999e-01,9.99999e-01,5.45692e-01,9.99999e-01
1.011457125e+00,5.52260e-01,9.99999e-01,9.99999e-01,5.52260e-01,9.99999e-01
1.016514411e+00,5.58775e-01,9.99999e-01,9.99999e-01,5.58775e-01,9.99999e-01
1.021596983e+00,5.65170e-01,9.99999e-01,9.99883e-01,5.65235e-01,9.99999e-01
1.026704968e+00,5.66738e-01,9.99999e-01,9.91422e-01,5.71641e-01,9.99999e-01
1.031838492e+00,5.33359e-01,9.99999e-01,9.22780e-01,5.77991e-01,9.99999e-01
1.036997685e+00,4.11156e-02,9.99999e-01,7.03692e-02,5.84283e-01,9.99999e-01
1.042182673e+00,7.09422e-03,9.99999e-01,1.20135e-02,5.90518e-01,9.99999e-01
1.047393587e+00,1.47657e-02,9.99999e-01,2.47458e-02,5.96694e-01,9.99999e-01
1.052630555e+00,1.23715e-05,9.99999e-01,2.05230e-05,6.02811e-01,9.99999e-01
1.057893707e+00,4.47016e-05,9.99999e-01,7.34174e-05,6.08868e-01,9.99999e-01
1.063183176e+00,5.12781e-04,9.99999e-01,8.33973e-04,6.14865e-01,9.99999e-01
1.068499092e+00,3.37883e-03,9.99999e-01,5.44269e-03,6.20800e-01,9.99999e-01
1.073841587e+00,2.23475e-02,9.99999e-01,3.56605e-02,6.26674e-01,9.99999e-01
1.079210795e+00,7.71957e-02,9.99999e-01,1.22051e-01,6.32485e-01,9.99999e-01
1.084606849e+00,1.95786e-01,9.99999e-01,3.06762e-01,6.38234e-01,9.99999e-01
1.090029883e+00,3.47356e-01,9.99999e-01,5.39439e-01,6.43920e-01,9.99999e-01
1.095480033e+00,4.78825e-01,9.99999e-01,7.37171e-01,6.49543e-01,9.99999e-01
1.100957433e+00,5.65317e-01,9.99999e-01,8.62943e-01,6.55103e-01,9.99999e-01
1.106462220e+00,6.21491e-01,9.99999e-01,9.40798e-01,6.60599e-01,9.99999e-01
1.111994531e+00,6.51124e-01,9.99999e-01,9.77617e-01,6.66031e-01,9.99999e-01
1.117554504e+00,6.67699e-01,9.99999e-01,9.94488e-01,6.71400e-01,9.99999e-01
1.123142276e+00,6.76458e-01,9.99999e-01,9.99636e-01,6.76704e-01,9.99999e-01
1.128757988e+00,6.81944e-01,9.99999e-01,9.99999e-01,6.81944e-01,9.99999e-01
1.134401778e+00,6.87120e-01,9.99999e-01,9.99999e-01,6.87120e-01,9.99999e-01
1.140073787e+00,6.92232e-01,9.99999e-01,9.99999e-01,6.92232e-01,9.99999e-01
1.145774156e+00,6.97280e-01,9.99999e-01,9.99999e-01,6.97280e-01,9.99999e-01
1.151503026e+00,7.02263e-01,9.99999e-01,9.99999e-01,7.02263e-01,9.99999e-01
1.157260541e+00,7.07183e-01,9.99999e-01,9.99999e-01,7.07183e-01,9.99999e-01
1.163046844e+00,7.12040e-01,9.99999e-01,9.99999e-01,7.12040e-01,9.99999e-01
1.168862078e+00,7.16832e-01,9.99999e-01,9.99999e-01,7.16832e-01,9.99999e-01
1.174706389e+00,7.21562e-01,9.99999e-01,9.99999e-01,7.21562e-01,9.99999e-01
1.180579921e+00,7.26228e-01,9.99999e-01,9.99999e-01,7.26228e-01,9.99999e-01
1.186482820e+00,7.30820e-01,9.99999e-01,9.99984e-01,7.30831e-01,9.99999e-01
1.192415234e+00,7.13558e-01,9.99999e-01,9.70335e-01,7.35372e-01,9.99999e-01
1.198377311e+00,3.94663e-01,9.99999e-01,5.33435e-01,7.39850e-01,9.99999e-01
1.204369197e+00,6.14577e-23,9.99999e-01,8.25748e-23,7.44266e-01,9.99999e-01
1.210391043e+00,3.96134e-91,9.99999e-01,5.29151e-91,7.48621e-01,9.99999e-01
1.216442998e+00,6.18892e-79,9.99999e-01,8.21994e-79,7.52915e-01,9.99999e-01
1.222525213e+00,9.28646e-78,9.99999e-01,1.22651e-77,7.57147e-01,9.99999e-01
1.228637839e+00,4.41780e-60,9.99999e-01,5.80281e-60,7.61319e-01,9.99999e-01
1.234781029e+00,1.29101e-37,9.99999e-01,1.68664e-37,7.65431e-01,9.99999e-01
1.240954934e+00,4.52308e-25,9.99999e-01,5.87807e-25,7.69483e-01,9.99999e-01
1.247159708e+00,2.06275e-12,9.99999e-01,2.66685e-12,7.73476e-01,9.99999e-01
1.253395507e+00,2.19550e-08,9.99999e-01,2.82411e-08,7.77411e-01,9.99999e-01
1.259662485e+00,3.89747e-05,9.99999e-01,4.98853e-05,7.81287e-01,9.99999e-01
1.265960797e+00,3.03659e-03,9.99999e-01,3.86775e-03,7.85105e-01,9.99999e-01
1.272290601e+00,6.32547e-02,9.99999e-01,8.01843e-02,7.88866e-01,9.99999e-01
1.278652054e+00,5.56341e-02,9.99999e-01,7.01945e-02,7.92570e-01,9.99999e-01
1.285045314e+00,1.68703e-04,9.99999e-01,2.11880e-04,7.96218e-01,9.99999e-01
1.291470541e+00,4.56489e-11,9.99999e-01,5.70746e-11,7.99810e-01,9.99999e-01
1.297927893e+00,4.05787e-05,9.99999e-01,5.05120e-05,8.03347e-01,9.99999e-01
1.304417533e+00,7.84542e-03,9.99999e-01,9.72377e-03,8.06829e-01,9.99999e-01
1.310939621e+00,1.90694e-03,9.99999e-01,2.35349e-03,8.10257e-01,9.99999e-01
1.317494319e+00,2.58934e-31,9.99999e-01,3.18245e-31,8.13631e-01,9.99999e-01
1.324081790e+00,9.60860e-21,9.99999e-01,1.17615e-20,8.16952e-01,9.99999e-01
1.330702199e+00,2.49074e-12,9.99999e-01,3.03666e-12,8.20221e-01,9.99999e-01
1.337355710e+00,1.91385e-11,9.99999e-01,2.32421e-11,8.23439e-01,9.99999e-01
1.344042489e+00,8.67736e-12,9.99999e-01,1.04976e-11,8.26604e-01,9.99999e-01
1.350762701e+00,1.30791e-12,9.99999e-01,1.57633e-12,8.29719e-01,9.99999e-01
1.357516515e+00,6.03283e-08,9.99999e-01,7.24416e-08,8.32784e-01,9.99999e-01
1.364304097e+00,8.53510e-06,9.99999e-01,1.02119e-05,8.35800e-01,9.99999e-01
1.371125618e+00,2.35285e-03,9.99999e-01,2.80513e-03,8.38766e-01,9.99999e-01
1.377981246e+00,5.52974e-03,9.99999e-01,6.56984e-03,8.41684e-01,9.99999e-01
1.384871152e+00,4.52033e-02,9.99999e-01,5.35232e-02,8.44554e-01,9.99999e-01
1.391795508e+00,5.67874e-02,9.99999e-01,6.70154e-02,8.47377e-01,9.99999e-01
1.398754485e+00,1.56765e-01,9.99999e-01,1.84395e-01,8.50154e-01,9.99999e-01
1.405748258e+00,2.47867e-01,9.99999e-01,2.90622e-01,8.52884e-01,9.99999e-01
1.412776999e+00,3.90225e-01,9.99999e-01,4.56100e-01,8.55569e-01,9.99999e-01
1.419840884e+00,3.57143e-01,9.99999e-01,4.16149e-01,8.58210e-01,9.99999e-01
1.426940089e+00,1.66300e-02,9.99999e-01,1.93191e-02,8.60805e-01,9.99999e-01
1.434074789e+00,0.00000e+00,9.99999e-01,0.00000e+00,8.63358e-01,9.99999e-01
1.441245163e+00,0.00000e+00,9.99999e-01,0.00000e+00,8.65867e-01,9.99999e-01
1.448451389e+00,0.00000e+00,9.99998e-01,0.00000e+00,8.68334e-01,9.99999e-01
1.455693646e+00,0.00000e+00,9.99999e-01,0.00000e+00,8.70759e-01,9.99999e-01
1.462972114e+00,0.00000e+00,9.99999e-01,0.00000e+00,8.73142e-01,9.99999e-01
1.470286975e+00,1.11478e-150,9.99999e-01,1.27333e-150,8.75485e-01,9.99999e-01
