#,Wave/freq,Total,N2,CO2,Rayleigh,CIA
4.000000000e-01,3.26300e-04,9.99999e-01,9.99999e-01,3.26300e-04,9.99999e-01
4.020000000e-01,3.82430e-04,9.99999e-01,9.99999e-01,3.82430e-04,9.99999e-01
4.040100000e-01,4.46740e-04,9.99999e-01,9.99999e-01,4.46740e-04,9.99999e-01
4.060300500e-01,5.20265e-04,9.99999e-01,9.99999e-01,5.20265e-04,9.99999e-01
4.080602003e-01,6.04070e-04,9.99999e-01,9.99999e-01,6.04070e-04,9.99999e-01
4.101005013e-01,6.99308e-04,9.99999e-01,9.99999e-01,6.99308e-04,9.99999e-01
4.121510038e-01,8.07224e-04,9.99999e-01,9.99999e-01,8.07224e-04,9.99999e-01
4.142117588e-01,9.29156e-04,9.99999e-01,9.99999e-01,9.29156e-04,9.99999e-01
4.162828176e-01,1.06654e-03,9.99999e-01,9.99999e-01,1.06654e-03,9.99999e-01
4.183642317e-01,1.22090e-03,9.99999e-01,9.99999e-01,1.22090e-03,9.99999e-01
4.204560528e-01,1.39388e-03,9.99999e-01,9.99999e-01,1.39388e-03,9.99999e-01
4.225583331e-01,1.58721e-03,9.99999e-01,9.99999e-01,1.58721e-03,9.99999e-01
4.246711247e-01,1.80273e-03,9.99999e-01,9.99999e-01,1.80273e-03,9.99999e-01
4.267944804e-01,2.04236e-03,9.99999e-01,9.99999e-01,2.04236e-03,9.99999e-01
4.289284528e-01,2.30815e-03,9.99999e-01,9.99999e-01,2.30815e-03,9.99999e-01
4.310730950e-01,2.60223e-03,9.99999e-01,9.99999e-01,2.60223e-03,9.99999e-01
4.332284605e-01,2.92684e-03,9.99999e-01,9.99999e-01,2.92684e-03,9.99999e-01
4.353946028e-01,3.28431e-03,9.99999e-01,9.99999e-01,3.28431e-03,9.99999e-01
4.375715758e-01,3.67705e-03,9.99999e-01,9.99999e-01,3.67705e-03,9.99999e-01
4.397594337e-01,4.10759e-03,9.99999e-01,9.99999e-01,4.10759e-03,9.99999e-01
4.419582309e-01,4.57852e-03,9.99999e-01,9.99999e-01,4.57852e-03,9.99999e-01
4.441680220e-01,5.09250e-03,9.99999e-01,9.99999e-01,5.09250e-03,9.99999e-01
4.463888621e-01,5.65230e-03,9.99999e-01,9.99999e-01,5.65230e-03,9.99999e-01
4.486208064e-01,6.26072e-03,9.99999e-01,9.99999e-01,6.26072e-03,9.99999e-01
4.508639105e-01,6.92064e-03,9.99999e-01,9.99999e-01,6.92064e-03,9.99999e-01
4.531182300e-01,7.63500e-03,9.99999e-01,9.99999e-01,7.63500e-03,9.99999e-01
4.553838212e-01,8.40676e-03,9.99999e-01,9.99999e-01,8.40676e-03,9.99999e-01
4.576607403e-01,9.23894e-03,9.99999e-01,9.99999e-01,9.23894e-03,9.99999e-01
4.599490440e-01,1.01346e-02,9.99999e-01,9.99999e-01,1.01346e-02,9.99999e-01
4.622487892e-01,1.10968e-02,9.99999e-01,9.99999e-01,1.10968e-02,9.99999e-01
4.645600332e-01,1.21285e-02,9.99999e-01,9.99999e-01,1.21285e-02,9.99999e-01
4.668828333e-01,1.32330e-02,9.99999e-01,9.99999e-01,1.32330e-02,9.99999e-01
4.692172475e-01,1.44132e-02,9.99999e-01,9.99999e-01,1.44132e-02,9.99999e-01
4.715633337e-01,1.56722e-02,9.99999e-01,9.99999e-01,1.56722e-02,9.99999e-01
4.739211504e-01,1.70130e-02,9.99999e-01,9.99999e-01,1.70130e-02,9.99999e-01
4.762907561e-01,1.84385e-02,9.99999e-01,9.99999e-01,1.84385e-02,9.99999e-01
4.786722099e-01,1.99518e-02,9.99999e-01,9.99999e-01,1.99518e-02,9.99999e-01
4.810655710e-01,2.15557e-02,9.99999e-01,9.99999e-01,2.15557e-02,9.99999e-01
4.834708988e-01,2.32530e-02,9.99999e-01,9.99999e-01,2.32530e-02,9.99999e-01
4.858882533e-01,2.50464e-02,9.99999e-01,9.99999e-01,2.50464e-02,9.99999e-01
4.883176946e-01,2.69385e-02,9.99999e-01,9.99999e-01,2.69385e-02,9.99999e-01
4.907592831e-01,2.89319e-02,9.99999e-01,9.99999e-01,2.89319e-02,9.99999e-01
4.932130795e-01,3.10291e-02,9.99999e-01,9.99999e-01,3.10291e-02,9.99999e-01
4.956791449e-01,3.32323e-02,9.99999e-01,9.99999e-01,3.32323e-02,9.99999e-01
4.981575406e-01,3.55437e-02,9.99999e-01,9.99999e-01,3.55437e-02,9.99999e-01
5.006483283e-01,3.79655e-02,9.99999e-01,9.99999e-01,3.79655e-02,9.99999e-01
5.031515699e-01,4.04995e-02,9.99999e-01,9.99999e-01,4.04995e-02,9.99999e-01
5.056673278e-01,4.31475e-02,9.99999e-01,9.99999e-01,4.31475e-02,9.99999e-01
5.081956644e-01,4.59112e-02,9.99999e-01,9.99999e-01,4.59112e-02,9.99999e-01
5.107366428e-01,4.87921e-02,9.99999e-01,9.99999e-01,4.87921e-02,9.99999e-01
5.132903260e-01,5.17914e-02,9.99999e-01,9.99999e-01,5.17914e-02,9.99999e-01
5.158567776e-01,5.49104e-02,9.99999e-01,9.99999e-01,5.49104e-02,9.99999e-01
5.184360615e-01,5.81499e-02,9.99999e-01,9.99999e-01,5.81499e-02,9.99999e-01
5.210282418e-01,6.15109e-02,9.99999e-01,9.99999e-01,6.15109e-02,9.99999e-01
5.236333830e-01,6.49940e-02,9.99999e-01,9.99999e-01,6.49940e-02,9.99999e-01
5.262515499e-01,6.85997e-02,9.99999e-01,9.99999e-01,6.85997e-02,9.99999e-01
5.288828077e-01,7.23282e-02,9.99999e-01,9.99999e-01,7.23282e-02,9.99999e-01
5.315272217e-01,7.61797e-02,9.99999e-01,9.99999e-01,7.61797e-02,9.99999e-01
5.341848578e-01,8.01541e-02,9.99999e-01,9.99999e-01,8.01541e-02,9.99999e-01
5.368557821e-01,8.42512e-02,9.99999e-01,9.99999e-01,8.42512e-02,9.99999e-01
5.395400610e-01,8.84705e-02,9.99999e-01,9.99999e-01,8.84705e-02,9.99999e-01
5.422377613e-01,9.28115e-02,9.99999e-01,9.99999e-01,9.28115e-02,9.99999e-01
5.449489501e-01,9.72734e-02,9.99999e-01,9.99999e-01,9.72734e-02,9.99999e-01
5.476736949e-01,1.01855e-01,9.99999e-01,9.99999e-01,1.01855e-01,9.99999e-01
5.504120634e-01,1.06556e-01,9.99999e-01,9.99999e-01,1.06556e-01,9.99999e-01
5.531641237e-01,1.11375e-01,9.99999e-01,9.99999e-01,1.11375e-01,9.99999e-01
5.559299443e-01,1.16309e-01,9.99999e-01,9.99999e-01,1.16309e-01,9.99999e-01
5.587095940e-01,1.21359e-01,9.99999e-01,9.99999e-01,1.21359e-01,9.99999e-01
5.615031420e-01,1.26521e-01,9.99999e-01,9.99999e-01,1.26521e-01,9.99999e-01
5.643106577e-01,1.31795e-01,9.99999e-01,9.99999e-01,1.31795e-01,9.99999e-01
5.671322110e-01,1.37177e-01,9.99999e-01,9.99999e-01,1.37177e-01,9.99999e-01
5.699678720e-01,1.42667e-01,9.99999e-01,9.99999e-01,1.42667e-01,9.99999e-01
5.728177114e-01,1.48261e-01,9.99999e-01,9.99999e-01,1.48261e-01,9.99999e-01
5.756818000e-01,1.53958e-01,9.99999e-01,9.99999e-01,1.53958e-01,9.99999e-01
5.785602090e-01,1.59754e-01,9.99999e-01,9.99999e-01,1.59754e-01,9.99999e-01
5.814530100e-01,1.65648e-01,9.99999e-01,9.99999e-01,1.65648e-01,9.99999e-01
5.843602750e-01,1.71636e-01,9.99999e-01,9.99999e-01,1.71636e-01,9.99999e-01
5.872820764e-01,1.77716e-01,9.99999e-01,9.99999e-01,1.77716e-01,9.99999e-01
5.902184868e-01,1.83885e-01,9.99999e-01,9.99999e-01,1.83885e-01,9.99999e-01
5.931695792e-01,1.90140e-01,9.99999e-01,9.99999e-01,1.90140e-01,9.99999e-01
5.961354271e-01,1.96478e-01,9.99999e-01,9.99999e-01,1.96478e-01,9.99999e-01
5.991161043e-01,2.02896e-01,9.99999e-01,9.99999e-01,2.02896e-01,9.99999e-01
6.021116848e-01,2.09390e-01,9.99999e-01,9.99999e-01,2.09390e-01,9.99999e-01
6.051222432e-01,2.15958e-01,9.99999e-01,9.99999e-01,2.15958e-01,9.99999e-01
6.081478544e-01,2.22595e-01,9.99999e-01,9.99999e-01,2.22595e-01,9.99999e-01
6.111885937e-01,2.29300e-01,9.99999e-01,9.99999e-01,2.29300e-01,9.99999e-01
6.142445367e-01,2.36068e-01,9.99999e-01,9.99999e-01,2.36068e-01,9.99999e-01
6.173157594e-01,2.42897e-01,9.99999e-01,9.99999e-01,2.42897e-01,9.99999e-01
6.204023382e-01,2.49782e-01,9.99999e-01,9.99999e-01,2.49782e-01,9.99999e-01
6.235043498e-01,2.56721e-01,9.99999e-01,9.99999e-01,2.56721e-01,9.99999e-01
6.266218716e-01,2.63709e-01,9.99999e-01,9.99999e-01,2.63709e-01,9.99999e-01
6.297549810e-01,2.70745e-01,9.99999e-01,9.99999e-01,2.70745e-01,9.99999e-01
6.329037559e-01,2.77823e-01,9.99999e-01,9.99999e-01,2.77823e-01,9.99999e-01
6.360682746e-01,2.84941e-01,9.99999e-01,9.99999e-01,2.84941e-01,9.99999e-01
6.392486160e-01,2.92096e-01,9.99999e-01,9.99999e-01,2.92096e-01,9.99999e-01
6.424448591e-01,2.99283e-01,9.99999e-01,9.99999e-01,2.99283e-01,9.99999e-01
6.456570834e-01,3.06500e-01,9.99999e-01,9.99999e-01,3.06500e-01,9.99999e-01
6.488853688e-01,3.13744e-01,9.99999e-01,9.99999e-01,3.13744e-01,9.99999e-01
6.521297956e-01,3.21010e-01,9.99999e-01,9.99999e-01,3.21010e-01,9.99999e-01
6.553904446e-01,3.28297e-01,9.99999e-01,9.99999e-01,3.28297e-01,9.99999e-01
6.586673968e-01,3.35600e-01,9.99999e-01,9.99999e-01,3.35600e-01,9.99999e-01
6.619607338e-01,3.42916e-01,9.99999e-01,9.99999e-01,3.42916e-01,9.99999e-01
6.652705375e-01,3.50243e-01,9.99999e-01,9.99999e-01,3.50243e-01,9.99999e-01
6.685968902e-01,3.57576e-01,9.99999e-01,9.99999e-01,3.57576e-01,9.99999e-01
6.719398746e-01,3.64914e-01,9.99999e-01,9.99999e-01,3.64914e-01,9.99999e-01
6.752995740e-01,3.72253e-01,9.99999e-01,9.99999e-01,3.72253e-01,9.99999e-01
6.786760719e-01,3.79591e-01,9.99999e-01,9.99999e-01,3.79591e-01,9.99999e-01
6.820694522e-01,3.86924e-01,9.99999e-01,9.99999e-01,3.86924e-01,9.99999e-01
6.854797995e-01,3.94249e-01,9.99999e-01,9.99999e-01,3.94249e-01,9.99999e-01
6.889071985e-01,4.01564e-01,9.99999e-01,9.99999e-01,4.01564e-01,9.99999e-01
6.923517345e-01,4.08867e-01,9.99999e-01,9.99999e-01,4.08867e-01,9.99999e-01
6.958134932e-01,4.16154e-01,9.99999e-01,9.99999e-01,4.16154e-01,9.99999e-01
6.992925606e-01,4.23423e-01,9.99999e-01,9.99999e-01,4.23423e-01,9.99999e-01
7.027890234e-01,4.30672e-01,9.99999e-01,9.99999e-01,4.30672e-01,9.99999e-01
7.063029686e-01,4.37898e-01,9.99999e-01,9.99999e-01,4.37898e-01,9.99999e-01
7.098344834e-01,4.45100e-01,9.99999e-01,9.99999e-01,4.45100e-01,9.99999e-01
7.133836558e-01,4.52273e-01,9.99999e-01,9.99999e-01,4.52273e-01,9.99999e-01
7.169505741e-01,4.59418e-01,9.99999e-01,9.99999e-01,4.59418e-01,9.99999e-01
7.205353270e-01,4.66530e-01,9.99999e-01,9.99999e-01,4.66530e-01,9.99999e-01
7.241380036e-01,4.73609e-01,9.99999e-01,9.99999e-01,4.73609e-01,9.99999e-01
7.277586936e-01,4.80653e-01,9.99999e-01,9.99999e-01,4.80653e-01,9.99999e-01
7.313974871e-01,4.87659e-01,9.99999e-01,9.99999e-01,4.87659e-01,9.99999e-01
7.350544745e-01,4.94626e-01,9.99999e-01,9.99999e-01,4.94626e-01,9.99999e-01
7.387297469e-01,5.01551e-01,9.99999e-01,9.99999e-01,5.01551e-01,9.99999e-01
7.424233956e-01,5.08434e-01,9.99999e-01,9.99999e-01,5.08434e-01,9.99999e-01
7.461355126e-01,5.15273e-01,9.99999e-01,9.99999e-01,5.15273e-01,9.99999e-01
7.498661902e-01,5.22066e-01,9.99999e-01,9.99999e-01,5.22066e-01,9.99999e-01
7.536155211e-01,5.28812e-01,9.99999e-01,9.99999e-01,5.28812e-01,9.99999e-01
7.573835987e-01,5.35509e-01,9.99999e-01,9.99999e-01,5.35509e-01,9.99999e-01
7.611705167e-01,5.42156e-01,9.99999e-01,9.99999e-01,5.42156e-01,9.99999e-01
7.649763693e-01,5.48752e-01,9.99999e-01,9.99999e-01,5.48752e-01,9.99999e-01
7.688012511e-01,5.55295e-01,9.99999e-01,9.99999e-01,5.55295e-01,9.99999e-01
7.726452574e-01,5.61785e-01,9.99999e-01,9.99999e-01,5.61785e-01,9.99999e-01
7.765084837e-01,5.68220e-01,9.99999e-01,9.99999e-01,5.68220e-01,9.99999e-01
7.803910261e-01,5.59238e-01,9.99999e-01,9.73264e-01,5.74600e-01,9.99999e-01
7.842929812e-01,5.17433e-01,9.99999e-01,8.90707e-01,5.80923e-01,9.99999e-01
7.882144461e-01,5.18468e-01,9.99999e-01,8.82965e-01,5.87189e-01,9.99999e-01
7.921555184e-01,5.52131e-01,9.99999e-01,9.30457e-01,5.93397e-01,9.99999e-01
7.961162960e-01,5.71426e-01,9.99999e-01,9.53097e-01,5.99545e-01,9.99999e-01
8.000968774e-01,5.90062e-01,9.99999e-01,9.74286e-01,6.05635e-01,9.99999e-01
8.040973618e-01,6.03482e-01,9.99999e-01,9.86623e-01,6.11663e-01,9.99999e-01
8.081178486e-01,6.13820e-01,9.99999e-01,9.93829e-01,6.17631e-01,9.99999e-01
8.121584379e-01,6.22352e-01,9.99999e-01,9.98097e-01,6.23538e-01,9.99999e-01
8.162192301e-01,6.29119e-01,9.99999e-01,9.99579e-01,6.29383e-01,9.99999e-01
8.203003262e-01,6.35162e-01,9.99999e-01,9.99993e-01,6.35165e-01,9.99999e-01
8.244018279e-01,6.40885e-01,9.99999e-01,9.99999e-01,6.40885e-01,9.99999e-01
8.285238370e-01,6.46542e-01,9.99999e-01,9.99999e-01,6.46542e-01,9.99999e-01
8.326664562e-01,6.52136e-01,9.99999e-01,9.99999e-01,6.52136e-01,9.99999e-01
8.368297885e-01,6.57666e-01,9.99999e-01,9.99999e-01,6.57666e-01,9.99999e-01
8.410139374e-01,6.63132e-01,9.99999e-01,9.99999e-01,6.63132e-01,9.99999e-01
8.452190071e-01,6.68535e-01,9.99999e-01,9.99999e-01,6.68535e-01,9.99999e-01
8.494451021e-01,6.73873e-01,9.99999e-01,9.99999e-01,6.73873e-01,9.99999e-01
8.536923276e-01,6.79148e-01,9.99999e-01,9.99999e-01,6.79148e-01,9.99999e-01
8.579607893e-01,6.84358e-01,9.99999e-01,9.99999e-01,6.84358e-01,9.99999e-01
8.622505932e-01,6.89504e-01,9.99999e-01,9.99999e-01,6.89504e-01,9.99999e-01
8.665618462e-01,6.50372e-01,9.99999e-01,9.36344e-01,6.94586e-01,9.99999e-01
8.708946554e-01,5.20096e-01,9.99999e-01,7.43413e-01,6.99604e-01,9.99999e-01
8.752491287e-01,5.55792e-01,9.99999e-01,7.88851e-01,7.04558e-01,9.99999e-01
8.796253743e-01,6.23213e-01,9.99999e-01,8.78446e-01,7.09449e-01,9.99999e-01
8.840235012e-01,6.67957e-01,9.99999e-01,9.35152e-01,7.14275e-01,9.99999e-01
8.884436187e-01,7.00333e-01,9.99999e-01,9.73985e-01,7.19039e-01,9.99999e-01
8.928858368e-01,7.16052e-01,9.99999e-01,9.89379e-01,7.23739e-01,9.99999e-01
8.973502660e-01,7.26495e-01,9.99999e-01,9.97417e-01,7.28375e-01,9.99999e-01
9.018370173e-01,7.32741e-01,9.99999e-01,9.99715e-01,7.32950e-01,9.99999e-01
9.063462024e-01,7.32006e-01,9.99999e-01,9.92602e-01,7.37461e-01,9.99999e-01
9.108779334e-01,7.29500e-01,9.99999e-01,9.83271e-01,7.41911e-01,9.99999e-01
9.154323231e-01,7.43362e-01,9.99999e-01,9.96065e-01,7.46298e-01,9.99999e-01
9.200094847e-01,7.07705e-01,9.99999e-01,9.42821e-01,7.50625e-01,9.99999e-01
9.246095321e-01,6.94989e-01,9.99999e-01,9.20649e-01,7.54890e-01,9.99999e-01
9.292325798e-01,7.11183e-01,9.99999e-01,9.36883e-01,7.59094e-01,9.99999e-01
9.338787427e-01,7.16863e-01,9.99999e-01,9.39238e-01,7.63238e-01,9.99999e-01
9.385481364e-01,7.32811e-01,9.99999e-01,9.55023e-01,7.67322e-01,9.99999e-01
9.432408771e-01,7.49959e-01,9.99999e-01,9.72271e-01,7.71347e-01,9.99999e-01
9.479570815e-01,7.64202e-01,9.99999e-01,9.85668e-01,7.75313e-01,9.99999e-01
9.526968669e-01,7.73820e-01,9.99999e-01,9.93070e-01,7.79220e-01,9.99999e-01
9.574603512e-01,7.80746e-01,9.99999e-01,9.97032e-01,7.83069e-01,9.99999e-01
9.622476530e-01,7.86132e-01,9.99999e-01,9.99074e-01,7.86860e-01,9.99999e-01
9.670588912e-01,7.90376e-01,9.99999e-01,9.99722e-01,7.90595e-01,9.99999e-01
9.718941857e-01,7.94257e-01,9.99999e-01,9.99980e-01,7.94273e-01,9.99999e-01
9.767536566e-01,7.97894e-01,9.99999e-01,9.99999e-01,7.97894e-01,9.99999e-01
9.816374249e-01,8.01461e-01,9.99999e-01,9.99999e-01,8.01461e-01,9.99999e-01
9.865456120e-01,8.04972e-01,9.99999e-01,9.99999e-01,8.04972e-01,9.99999e-01
9.914783401e-01,8.08429e-01,9.99999e-01,9.99999e-01,8.08429e-01,9.99999e-01
9.964357318e-01,8.11832e-01,9.99999e-01,9.99999e-01,8.11832e-01,9.99999e-01
1.001417910e+00,8.15182e-01,9.99999e-01,9.99999e-01,8.15182e-01,9.99999e-01
1.006425000e+00,8.18479e-01,9.99999e-01,9.99999e-01,8.18479e-01,9.99999e-01
1.011457125e+00,8.21723e-01,9.99999e-01,9.99999e-01,8.21723e-01,9.99999e-01
1.016514411e+00,8.24917e-01,9.99999e-01,9.99999e-01,8.24917e-01,9.99999e-01
1.021596983e+00,8.28025e-01,9.99999e-01,9.99958e-01,8.28059e-01,9.99999e-01
1.026704968e+00,8.28750e-01,9.99999e-01,9.97111e-01,8.31150e-01,9.99999e-01
1.031838492e+00,8.02600e-01,9.99999e-01,9.62127e-01,8.34192e-01,9.99999e-01
1.036997685e+00,1.62936e-01,9.99999e-01,1.94623e-01,8.37185e-01,9.99999e-01
1.042182673e+00,1.61761e-01,9.99999e-01,1.92543e-01,8.40129e-01,9.99999e-01
1.047393587e+00,1.69885e-01,9.99999e-01,2.01518e-01,8.43024e-01,9.99999e-01
1.052630555e+00,1.00148e-02,9.99999e-01,1.18396e-02,8.45873e-01,9.99999e-01
1.057893707e+00,2.26646e-02,9.99999e-01,2.67059e-02,8.48674e-01,9.99999e-01
1.063183176e+00,5.98644e-02,9.99999e-01,7.03105e-02,8.51429e-01,9.99999e-01
1.068499092e+00,1.38739e-01,9.99999e-01,1.62432e-01,8.54138e-01,9.99999e-01
1.073841587e+00,2.72430e-01,9.99999e-01,3.17961e-01,8.56802e-01,9.99999e-01
1.079210795e+00,4.16331e-01,9.99999e-01,4.84431e-01,8.59422e-01,9.99999e-01
1.084606849e+00,5.79449e-01,9.99999e-01,6.72216e-01,8.61997e-01,9.99999e-01
1.090029883e+00,7.03575e-01,9.99999e-01,8.13823e-01,8.64530e-01,9.99999e-01
1.095480033e+00,7.83415e-01,9.99999e-01,9.03572e-01,8.67019e-01,9.99999e-01
1.100957433e+00,8.28036e-01,9.99999e-01,9.52348e-01,8.69466e-01,9.99999e-01
1.106462220e+00,8.54460e-01,9.99999e-01,9.80029e-01,8.71872e-01,9.99999e-01
1.111994531e+00,8.67726e-01,9.99999e-01,9.92552e-01,8.74236e-01,9.99999e-01
1.117554504e+00,8.74966e-01,9.99999e-01,9.98180e-01,8.76560e-01,9.99999e-01
1.123142276e+00,8.78740e-01,9.99999e-01,9.99880e-01,8.78844e-01,9.99999e-01
1.128757988e+00,8.81089e-01,9.99999e-01,9.99999e-01,8.81089e-01,9.99999e-01
1.134401778e+00,8.83295e-01,9.99999e-01,9.99999e-01,8.83295e-01,9.99999e-01
1.140073787e+00,8.85463e-01,9.99999e-01,9.99999e-01,8.85463e-01,9.99999e-01
1.145774156e+00,8.87593e-01,9.99999e-01,9.99999e-01,8.87593e-01,9.99999e-01
1.151503026e+00,8.89686e-01,9.99999e-01,9.99999e-01,8.89686e-01,9.99999e-01
1.157260541e+00,8.91742e-01,9.99999e-01,9.99999e-01,8.91742e-01,9.99999e-01
1.163046844e+00,8.93763e-01,9.99999e-01,9.99999e-01,8.93763e-01,9.99999e-01
1.168862078e+00,8.95748e-01,9.99999e-01,9.99999e-01,8.95748e-01,9.99999e-01
1.174706389e+00,8.97698e-01,9.99999e-01,9.99999e-01,8.97698e-01,9.99999e-01
1.180579921e+00,8.99614e-01,9.99999e-01,9.99999e-01,8.99614e-01,9.99999e-01
1.186482820e+00,9.01490e-01,9.99999e-01,9.99993e-01,9.01495e-01,9.99999e-01
1.192415234e+00,8.94011e-01,9.99999e-01,9.89667e-01,9.03344e-01,9.99999e-01
1.198377311e+00,5.14568e-01,9.99999e-01,5.68482e-01,9.05159e-01,9.99999e-01
1.204369197e+00,4.31061e-09,9.99999e-01,4.75290e-09,9.06943e-01,9.99999e-01
1.210391043e+00,1.20535e-31,9.99999e-01,1.32647e-31,9.08694e-01,9.99999e-01
1.216442998e+00,1.30074e-27,9.99999e-01,1.42874e-27,9.10414e-01,9.99999e-01
1.222525213e+00,3.19955e-27,9.99999e-01,3.50788e-27,9.12104e-01,9.99999e-01
1.228637839e+00,4.65206e-21,9.99999e-01,5.09110e-21,9.13763e-01,9.99999e-01
1.234781029e+00,6.04478e-14,9.99999e-01,6.60349e-14,9.15392e-01,9.99999e-01
1.240954934e+00,1.92128e-09,9.99999e-01,2.09519e-09,9.16992e-01,9.99999e-01
1.247159708e+00,1.70675e-05,9.99999e-01,1.85806e-05,9.18563e-01,9.99999e-01
1.253395507e+00,1.72213e-03,9.99999e-01,1.87166e-03,9.20105e-01,9.99999e-01
1.259662485e+00,2.53993e-02,9.99999e-01,2.75593e-02,9.21620e-01,9.99999e-01
1.265960797e+00,1.15186e-01,9.99999e-01,1.24780e-01,9.23107e-01,9.99999e-01
1.272290601e+00,3.87896e-01,9.99999e-01,4.19543e-01,9.24567e-01,9.99999e-01
1.278652054e+00,3.33792e-01,9.99999e-01,3.60466e-01,9.26000e-01,9.99999e-01
1.285045314e+00,1.02308e-02,9.99999e-01,1.10316e-02,9.27407e-01,9.99999e-01
1.291470541e+00,2.05370e-04,9.99999e-01,2.21116e-04,9.28789e-01,9.99999e-01
1.297927893e+00,2.06611e-02,9.99999e-01,2.22127e-02,9.30145e-01,9.99999e-01
1.304417533e+00,1.92173e-01,9.99999e-01,2.06310e-01,9.31477e-01,9.99999e-01
1.310939621e+00,4.82828e-02,9.99999e-01,5.17620e-02,9.32784e-01,9.99999e-01
1.317494319e+00,2.34874e-11,9.99999e-01,2.51453e-11,9.34066e-01,9.99999e-01
1.324081790e+00,4.84658e-08,9.99999e-01,5.18169e-08,9.35326e-01,9.99999e-01
1.330702199e+00,9.38588e-05,9.99999e-01,1.00216e-04,9.36562e-01,9.99999e-01
1.337355710e+00,9.11897e-05,9.99999e-01,9.72404e-05,9.37775e-01,9.99999e-01
1.344042489e+00,2.66143e-05,9.99999e-01,2.83443e-05,9.38966e-01,9.99999e-01
1.350762701e+00,6.36025e-05,9.99999e-01,6.76525e-05,9.40135e-01,9.99999e-01
1.357516515e+00,1.86661e-03,9.99999e-01,1.98305e-03,9.41282e-01,9.99999e-01
1.364304097e+00,1.76345e-02,9.99999e-01,1.87121e-02,9.42407e-01,9.99999e-01
1.371125618e+00,1.17290e-01,9.99999e-01,1.24312e-01,9.43512e-01,9.99999e-01
1.377981246e+00,1.73746e-01,9.99999e-01,1.83936e-01,9.44596e-01,9.99999e-01
1.384871152e+00,3.53098e-01,9.99999e-01,3.73388e-01,9.45660e-01,9.99999e-01
1.391795508e+00,3.81119e-01,9.99999e-01,4.02574e-01,9.46705e-01,9.99999e-01
1.398754485e+00,5.41019e-01,9.99999e-01,5.70858e-01,9.47729e-01,9.99999e-01
1.405748258e+00,6.27728e-01,9.99999e-01,6.61647e-01,9.48735e-01,9.99999e-01
1.412776999e+00,7.31838e-01,9.99999e-01,7.70581e-01,9.49722e-01,9.99999e-01
1.419840884e+00,6.63362e-01,9.99999e-01,6.97769e-01,9.50690e-01,9.99999e-01
1.426940089e+00,7.20758e-02,9.99999e-01,7.57384e-02,9.51640e-01,9.99999e-01
1.434074789e+00,0.00000e+00,9.99999e-01,0.00000e+00,9.52572e-01,9.99999e-01
1.441245163e+00,0.00000e+00,9.99999e-01,0.00000e+00,9.53487e-01,9.99999e-01
1.448451389e+00,0.00000e+00,9.99999e-01,0.00000e+00,9.54384e-01,9.99999e-01
1.455693646e+00,2.58103e-250,9.99999e-01,2.70190e-250,9.55265e-01,9.99999e-01
1.462972114e+00,1.47585e-121,9.99999e-01,1.54357e-121,9.56129e-01,9.99999e-01
1.470286975e+00,2.42434e-51,9.99999e-01,2.53334e-51,9.56976e-01,9.99999e-01
