#,Wave/freq,Total,N2,CO2,Rayleigh,CIA
4.000000000e-01,2.96934e-03,9.99999e-01,9.99999e-01,2.96934e-03,9.99999e-01
4.020000000e-01,3.33145e-03,9.99999e-01,9.99999e-01,3.33145e-03,9.99999e-01
4.040100000e-01,3.72879e-03,9.99999e-01,9.99999e-01,3.72879e-03,9.99999e-01
4.060300500e-01,4.16423e-03,9.99999e-01,9.99999e-01,4.16423e-03,9.99999e-01
4.080602003e-01,4.64040e-03,9.99999e-01,9.99999e-01,4.64040e-03,9.99999e-01
4.101005013e-01,5.15996e-03,9.99999e-01,9.99999e-01,5.15996e-03,9.99999e-01
4.121510038e-01,5.72568e-03,9.99999e-01,9.99999e-01,5.72568e-03,9.99999e-01
4.142117588e-01,6.34039e-03,9.99999e-01,9.99999e-01,6.34039e-03,9.99999e-01
4.162828176e-01,7.00696e-03,9.99999e-01,9.99999e-01,7.00696e-03,9.99999e-01
4.183642317e-01,7.72833e-03,9.99999e-01,9.99999e-01,7.72833e-03,9.99999e-01
4.204560528e-01,8.50749e-03,9.99999e-01,9.99999e-01,8.50749e-03,9.99999e-01
4.225583331e-01,9.34744e-03,9.99999e-01,9.99999e-01,9.34744e-03,9.99999e-01
4.246711247e-01,1.02512e-02,9.99999e-01,9.99999e-01,1.02512e-02,9.99999e-01
4.267944804e-01,1.12220e-02,9.99999e-01,9.99999e-01,1.12220e-02,9.99999e-01
4.289284528e-01,1.22627e-02,9.99999e-01,9.99999e-01,1.22627e-02,9.99999e-01
4.310730950e-01,1.33764e-02,9.99999e-01,9.99999e-01,1.33764e-02,9.99999e-01
4.332284605e-01,1.45663e-02,9.99999e-01,9.99999e-01,1.45663e-02,9.99999e-01
4.353946028e-01,1.58353e-02,9.99999e-01,9.99999e-01,1.58353e-02,9.99999e-01
4.375715758e-01,1.71866e-02,9.99999e-01,9.99999e-01,1.71866e-02,9.99999e-01
4.397594337e-01,1.86230e-02,9.99999e-01,9.99999e-01,1.86230e-02,9.99999e-01
4.419582309e-01,2.01474e-02,9.99999e-01,9.99999e-01,2.01474e-02,9.99999e-01
4.441680220e-01,2.17628e-02,9.99999e-01,9.99999e-01,2.17628e-02,9.99999e-01
4.463888621e-01,2.34720e-02,9.99999e-01,9.99999e-01,2.34720e-02,9.99999e-01
4.486208064e-01,2.52776e-02,9.99999e-01,9.99999e-01,2.52776e-02,9.99999e-01
4.508639105e-01,2.71822e-02,9.99999e-01,9.99999e-01,2.71822e-02,9.99999e-01
4.531182300e-01,2.91885e-02,9.99999e-01,9.99999e-01,2.91885e-02,9.99999e-01
4.553838212e-01,3.12988e-02,9.99999e-01,9.99999e-01,3.12988e-02,9.99999e-01
4.576607403e-01,3.35154e-02,9.99999e-01,9.99999e-01,3.35154e-02,9.99999e-01
4.599490440e-01,3.58406e-02,9.99999e-01,9.99999e-01,3.58406e-02,9.99999e-01
4.622487892e-01,3.82763e-02,9.99999e-01,9.99999e-01,3.82763e-02,9.99999e-01
4.645600332e-01,4.08244e-02,9.99999e-01,9.99999e-01,4.08244e-02,9.99999e-01
4.668828333e-01,4.34869e-02,9.99999e-01,9.99999e-01,4.34869e-02,9.99999e-01
4.692172475e-01,4.62651e-02,9.99999e-01,9.99999e-01,4.62651e-02,9.99999e-01
4.715633337e-01,4.91607e-02,9.99999e-01,9.99999e-01,4.91607e-02,9.99999e-01
4.739211504e-01,5.21750e-02,9.99999e-01,9.99999e-01,5.21750e-02,9.99999e-01
4.762907561e-01,5.53090e-02,9.99999e-01,9.99999e-01,5.53090e-02,9.99999e-01
4.786722099e-01,5.85637e-02,9.99999e-01,9.99999e-01,5.85637e-02,9.99999e-01
4.810655710e-01,6.19399e-02,9.99999e-01,9.99999e-01,6.19399e-02,9.99999e-01
4.834708988e-01,6.54383e-02,9.99999e-01,9.99999e-01,6.54383e-02,9.99999e-01
4.858882533e-01,6.90594e-02,9.99999e-01,9.99999e-01,6.90594e-02,9.99999e-01
4.883176946e-01,7.28033e-02,9.99999e-01,9.99999e-01,7.28033e-02,9.99999e-01
4.907592831e-01,7.66701e-02,9.99999e-01,9.99999e-01,7.66701e-02,9.99999e-01
4.932130795e-01,8.06599e-02,9.99999e-01,9.99999e-01,8.06599e-02,9.99999e-01
4.956791449e-01,8.47723e-02,9.99999e-01,9.99999e-01,8.47723e-02,9.99999e-01
4.981575406e-01,8.90068e-02,9.99999e-01,9.99999e-01,8.90068e-02,9.99999e-01
5.006483283e-01,9.33630e-02,9.99999e-01,9.99999e-01,9.33630e-02,9.99999e-01
5.031515699e-01,9.78400e-02,9.99999e-01,9.99999e-01,9.78400e-02,9.99999e-01
5.056673278e-01,1.02437e-01,9.99999e-01,9.99999e-01,1.02437e-01,9.99999e-01
5.081956644e-01,1.07152e-01,9.99999e-01,9.99999e-01,1.07152e-01,9.99999e-01
5.107366428e-01,1.11986e-01,9.99999e-01,9.99999e-01,1.11986e-01,9.99999e-01
5.132903260e-01,1.16935e-01,9.99999e-01,9.99999e-01,1.16935e-01,9.99999e-01
5.158567776e-01,1.21998e-01,9.99999e-01,9.99999e-01,1.21998e-01,9.99999e-01
5.184360615e-01,1.27175e-01,9.99999e-01,9.99999e-01,1.27175e-01,9.99999e-01
5.210282418e-01,1.32462e-01,9.99999e-01,9.99999e-01,1.32462e-01,9.99999e-01
5.236333830e-01,1.37858e-01,9.99999e-01,9.99999e-01,1.37858e-01,9.99999e-01
5.262515499e-01,1.43361e-01,9.99999e-01,9.99999e-01,1.43361e-01,9.99999e-01
5.288828077e-01,1.48968e-01,9.99999e-01,9.99999e-01,1.48968e-01,9.99999e-01
5.315272217e-01,1.54677e-01,9.99999e-01,9.99999e-01,1.54677e-01,9.99999e-01
5.341848578e-01,1.60486e-01,9.99999e-01,9.99999e-01,1.60486e-01,9.99999e-01
5.368557821e-01,1.66392e-01,9.99999e-01,9.99999e-01,1.66392e-01,9.99999e-01
5.395400610e-01,1.72392e-01,9.99999e-01,9.99999e-01,1.72392e-01,9.99999e-01
5.422377613e-01,1.78483e-01,9.99999e-01,9.99999e-01,1.78483e-01,9.99999e-01
5.449489501e-01,1.84663e-01,9.99999e-01,9.99999e-01,1.84663e-01,9.99999e-01
5.476736949e-01,1.90928e-01,9.99999e-01,9.99999e-01,1.90928e-01,9.99999e-01
5.504120634e-01,1.97276e-01,9.99999e-01,9.99999e-01,1.97276e-01,9.99999e-01
5.531641237e-01,2.03704e-01,9.99999e-01,9.99999e-01,2.03704e-01,9.99999e-01
5.559299443e-01,2.10207e-01,9.99999e-01,9.99999e-01,2.10207e-01,9.99999e-01
5.587095940e-01,2.16784e-01,9.99999e-01,9.99999e-01,2.16784e-01,9.99999e-01
5.615031420e-01,2.23431e-01,9.99999e-01,9.99999e-01,2.23431e-01,9.99999e-01
5.643106577e-01,2.30143e-01,9.99999e-01,9.99999e-01,2.30143e-01,9.99999e-01
5.671322110e-01,2.36919e-01,9.99999e-01,9.99999e-01,2.36919e-01,9.99999e-01
5.699678720e-01,2.43755e-01,9.99999e-01,9.99999e-01,2.43755e-01,9.99999e-01
5.728177114e-01,2.50647e-01,9.99999e-01,9.99999e-01,2.50647e-01,9.99999e-01
5.756818000e-01,2.57592e-01,9.99999e-01,9.99999e-01,2.57592e-01,9.99999e-01
5.785602090e-01,2.64587e-01,9.99999e-01,9.99999e-01,2.64587e-01,9.99999e-01
5.814530100e-01,2.71628e-01,9.99999e-01,9.99999e-01,2.71628e-01,9.99999e-01
5.843602750e-01,2.78711e-01,9.99999e-01,9.99999e-01,2.78711e-01,9.99999e-01
5.872820764e-01,2.85834e-01,9.99999e-01,9.99999e-01,2.85834e-01,9.99999e-01
5.902184868e-01,2.92993e-01,9.99999e-01,9.99999e-01,2.92993e-01,9.99999e-01
5.931695792e-01,3.00184e-01,9.99999e-01,9.99999e-01,3.00184e-01,9.99999e-01
5.961354271e-01,3.07405e-01,9.99999e-01,9.99999e-01,3.07405e-01,9.99999e-01
5.991161043e-01,3.14652e-01,9.99999e-01,9.99999e-01,3.14652e-01,9.99999e-01
6.021116848e-01,3.21921e-01,9.99999e-01,9.99999e-01,3.21921e-01,9.99999e-01
6.051222432e-01,3.29209e-01,9.99999e-01,9.99999e-01,3.29209e-01,9.99999e-01
6.081478544e-01,3.36514e-01,9.99999e-01,9.99999e-01,3.36514e-01,9.99999e-01
6.111885937e-01,3.43832e-01,9.99999e-01,9.99999e-01,3.43832e-01,9.99999e-01
6.142445367e-01,3.51160e-01,9.99999e-01,9.99999e-01,3.51160e-01,9.99999e-01
6.173157594e-01,3.58494e-01,9.99999e-01,9.99999e-01,3.58494e-01,9.99999e-01
6.204023382e-01,3.65832e-01,9.99999e-01,9.99999e-01,3.65832e-01,9.99999e-01
6.235043498e-01,3.73171e-01,9.99999e-01,9.99999e-01,3.73171e-01,9.99999e-01
6.266218716e-01,3.80508e-01,9.99999e-01,9.99999e-01,3.80508e-01,9.99999e-01
6.297549810e-01,3.87840e-01,9.99999e-01,9.99999e-01,3.87840e-01,9.99999e-01
6.329037559e-01,3.95165e-01,9.99999e-01,9.99999e-01,3.95165e-01,9.99999e-01
6.360682746e-01,4.02478e-01,9.99999e-01,9.99999e-01,4.02478e-01,9.99999e-01
6.392486160e-01,4.09779e-01,9.99999e-01,9.99999e-01,4.09779e-01,9.99999e-01
6.424448591e-01,4.17064e-01,9.99999e-01,9.99999e-01,4.17064e-01,9.99999e-01
6.456570834e-01,4.24331e-01,9.99999e-01,9.99999e-01,4.24331e-01,9.99999e-01
6.488853688e-01,4.31577e-01,9.99999e-01,9.99999e-01,4.31577e-01,9.99999e-01
6.521297956e-01,4.38801e-01,9.99999e-01,9.99999e-01,4.38801e-01,9.99999e-01
6.553904446e-01,4.45998e-01,9.99999e-01,9.99999e-01,4.45998e-01,9.99999e-01
6.586673968e-01,4.53169e-01,9.99999e-01,9.99999e-01,4.53169e-01,9.99999e-01
6.619607338e-01,4.60309e-01,9.99999e-01,9.99999e-01,4.60309e-01,9.99999e-01
6.652705375e-01,4.67418e-01,9.99999e-01,9.99999e-01,4.67418e-01,9.99999e-01
6.685968902e-01,4.74492e-01,9.99999e-01,9.99999e-01,4.74492e-01,9.99999e-01
6.719398746e-01,4.81531e-01,9.99999e-01,9.99999e-01,4.81531e-01,9.99999e-01
6.752995740e-01,4.88533e-01,9.99999e-01,9.99999e-01,4.88533e-01,9.99999e-01
6.786760719e-01,4.95494e-01,9.99999e-01,9.99999e-01,4.95494e-01,9.99999e-01
6.820694522e-01,5.02415e-01,9.99999e-01,9.99999e-01,5.02415e-01,9.99999e-01
6.854797995e-01,5.09292e-01,9.99999e-01,9.99999e-01,5.09292e-01,9.99999e-01
6.889071985e-01,5.16125e-01,9.99999e-01,9.99999e-01,5.16125e-01,9.99999e-01
6.923517345e-01,5.22912e-01,9.99999e-01,9.99999e-01,5.22912e-01,9.99999e-01
6.958134932e-01,5.29652e-01,9.99999e-01,9.99999e-01,5.29652e-01,9.99999e-01
6.992925606e-01,5.36343e-01,9.99999e-01,9.99999e-01,5.36343e-01,9.99999e-01
7.027890234e-01,5.42984e-01,9.99999e-01,9.99999e-01,5.42984e-01,9.99999e-01
7.063029686e-01,5.49573e-01,9.99999e-01,9.99999e-01,5.49573e-01,9.99999e-01
7.098344834e-01,5.56110e-01,9.99999e-01,9.99999e-01,5.56110e-01,9.99999e-01
7.133836558e-01,5.62593e-01,9.99999e-01,9.99999e-01,5.62593e-01,9.99999e-01
7.169505741e-01,5.69021e-01,9.99999e-01,9.99999e-01,5.69021e-01,9.99999e-01
7.205353270e-01,5.75394e-01,9.99999e-01,9.99999e-01,5.75394e-01,9.99999e-01
7.241380036e-01,5.81710e-01,9.99999e-01,9.99999e-01,5.81710e-01,9.99999e-01
7.277586936e-01,5.87969e-01,9.99999e-01,9.99999e-01,5.87969e-01,9.99999e-01
7.313974871e-01,5.94169e-01,9.99999e-01,9.99999e-01,5.94169e-01,9.99999e-01
7.350544745e-01,6.00310e-01,9.99999e-01,9.99999e-01,6.00310e-01,9.99999e-01
7.387297469e-01,6.06392e-01,9.99999e-01,9.99999e-01,6.06392e-01,9.99999e-01
7.424233956e-01,6.12413e-01,9.99999e-01,9.99999e-01,6.12413e-01,9.99999e-01
7.461355126e-01,6.18374e-01,9.99999e-01,9.99999e-01,6.18374e-01,9.99999e-01
7.498661902e-01,6.24273e-01,9.99999e-01,9.99999e-01,6.24273e-01,9.99999e-01
7.536155211e-01,6.30110e-01,9.99999e-01,9.99999e-01,6.30110e-01,9.99999e-01
7.573835987e-01,6.35884e-01,9.99999e-01,9.99999e-01,6.35884e-01,9.99999e-01
7.611705167e-01,6.41596e-01,9.99999e-01,9.99999e-01,6.41596e-01,9.99999e-01
7.649763693e-01,6.47245e-01,9.99999e-01,9.99999e-01,6.47245e-01,9.99999e-01
7.688012511e-01,6.52831e-01,9.99999e-01,9.99999e-01,6.52831e-01,9.99999e-01
7.726452574e-01,6.58353e-01,9.99999e-01,9.99999e-01,6.58353e-01,9.99999e-01
7.765084837e-01,6.63812e-01,9.99999e-01,9.99999e-01,6.63812e-01,9.99999e-01
7.803910261e-01,6.56553e-01,9.99999e-01,9.81091e-01,6.69206e-01,9.99999e-01
7.842929812e-01,6.19558e-01,9.99999e-01,9.18494e-01,6.74537e-01,9.99999e-01
7.882144461e-01,6.20770e-01,9.99999e-01,9.13161e-01,6.79803e-01,9.99999e-01
7.921555184e-01,6.50145e-01,9.99999e-01,9.49109e-01,6.85005e-01,9.99999e-01
7.961162960e-01,6.66351e-01,9.99999e-01,9.65524e-01,6.90143e-01,9.99999e-01
8.000968774e-01,6.82147e-01,9.99999e-01,9.81199e-01,6.95217e-01,9.99999e-01
8.040973618e-01,6.93359e-01,9.99999e-01,9.90190e-01,7.00228e-01,9.99999e-01
8.081178486e-01,7.02002e-01,9.99999e-01,9.95502e-01,7.05174e-01,9.99999e-01
8.121584379e-01,7.09062e-01,9.99999e-01,9.98599e-01,7.10056e-01,9.99999e-01
8.162192301e-01,7.14654e-01,9.99999e-01,9.99690e-01,7.14875e-01,9.99999e-01
8.203003262e-01,7.19626e-01,9.99999e-01,9.99994e-01,7.19630e-01,9.99999e-01
8.244018279e-01,7.24322e-01,9.99999e-01,9.99999e-01,7.24322e-01,9.99999e-01
8.285238370e-01,7.28951e-01,9.99999e-01,9.99999e-01,7.28951e-01,9.99999e-01
8.326664562e-01,7.33517e-01,9.99999e-01,9.99999e-01,7.33517e-01,9.99999e-01
8.368297885e-01,7.38021e-01,9.99999e-01,9.99999e-01,7.38021e-01,9.99999e-01
8.410139374e-01,7.42463e-01,9.99999e-01,9.99999e-01,7.42463e-01,9.99999e-01
8.452190071e-01,7.46843e-01,9.99999e-01,9.99999e-01,7.46843e-01,9.99999e-01
8.494451021e-01,7.51162e-01,9.99999e-01,9.99999e-01,7.51162e-01,9.99999e-01
8.536923276e-01,7.55419e-01,9.99999e-01,9.99999e-01,7.55419e-01,9.99999e-01
8.579607893e-01,7.59616e-01,9.99999e-01,9.99999e-01,7.59616e-01,9.99999e-01
8.622505932e-01,7.63752e-01,9.99999e-01,9.99999e-01,7.63752e-01,9.99999e-01
8.665618462e-01,7.30195e-01,9.99999e-01,9.50985e-01,7.67829e-01,9.99999e-01
8.708946554e-01,6.20688e-01,9.99999e-01,8.04160e-01,7.71846e-01,9.99999e-01
8.752491287e-01,6.51815e-01,9.99999e-01,8.40178e-01,7.75805e-01,9.99999e-01
8.796253743e-01,7.09148e-01,9.99999e-01,9.09507e-01,7.79704e-01,9.99999e-01
8.840235012e-01,7.46125e-01,9.99999e-01,9.52240e-01,7.83546e-01,9.99999e-01
8.884436187e-01,7.72270e-01,9.99999e-01,9.80870e-01,7.87331e-01,9.99999e-01
8.928858368e-01,7.84912e-01,9.99999e-01,9.92230e-01,7.91058e-01,9.99999e-01
8.973502660e-01,7.93218e-01,9.99999e-01,9.98098e-01,7.94729e-01,9.99999e-01
9.018370173e-01,7.98176e-01,9.99999e-01,9.99789e-01,7.98344e-01,9.99999e-01
9.063462024e-01,7.97684e-01,9.99999e-01,9.94737e-01,8.01903e-01,9.99999e-01
9.108779334e-01,7.95562e-01,9.99999e-01,9.87775e-01,8.05407e-01,9.99999e-01
9.154323231e-01,8.06510e-01,9.99999e-01,9.97097e-01,8.08858e-01,9.99999e-01
9.200094847e-01,7.78292e-01,9.99999e-01,9.58187e-01,8.12254e-01,9.99999e-01
9.246095321e-01,7.67912e-01,9.99999e-01,9.41532e-01,8.15597e-01,9.99999e-01
9.292325798e-01,7.81274e-01,9.99999e-01,9.54066e-01,8.18887e-01,9.99999e-01
9.338787427e-01,7.85407e-01,9.99999e-01,9.55336e-01,8.22126e-01,9.99999e-01
9.385481364e-01,7.98128e-01,9.99999e-01,9.67061e-01,8.25312e-01,9.99999e-01
9.432408771e-01,8.11615e-01,9.99999e-01,9.79680e-01,8.28448e-01,9.99999e-01
9.479570815e-01,8.22845e-01,9.99999e-01,9.89551e-01,8.31534e-01,9.99999e-01
9.526968669e-01,8.30347e-01,9.99999e-01,9.94940e-01,8.34569e-01,9.99999e-01
9.574603512e-01,8.35741e-01,9.99999e-01,9.97833e-01,8.37556e-01,9.99999e-01
9.622476530e-01,8.39925e-01,9.99999e-01,9.99323e-01,8.40493e-01,9.99999e-01
9.670588912e-01,8.43212e-01,9.99999e-01,9.99796e-01,8.43383e-01,9.99999e-01
9.718941857e-01,8.46213e-01,9.99999e-01,9.99984e-01,8.46226e-01,9.99999e-01
9.767536566e-01,8.49021e-01,9.99999e-01,9.99999e-01,8.49021e-01,9.99999e-01
9.816374249e-01,8.51770e-01,9.99999e-01,9.99999e-01,8.51770e-01,9.99999e-01
9.865456120e-01,8.54474e-01,9.99999e-01,9.99999e-01,8.54474e-01,9.99999e-01
9.914783401e-01,8.57132e-01,9.99999e-01,9.99999e-01,8.57132e-01,9.99999e-01
9.964357318e-01,8.59746e-01,9.99999e-01,9.99999e-01,8.59746e-01,9.99999e-01
1.001417910e+00,8.62316e-01,9.99999e-01,9.99999e-01,8.62316e-01,9.99999e-01
1.006425000e+00,8.64843e-01,9.99999e-01,9.99999e-01,8.64843e-01,9.99999e-01
1.011457125e+00,8.67327e-01,9.99999e-01,9.99999e-01,8.67327e-01,9.99999e-01
1.016514411e+00,8.69769e-01,9.99999e-01,9.99999e-01,8.69769e-01,9.99999e-01
1.021596983e+00,8.72147e-01,9.99999e-01,9.99973e-01,8.72170e-01,9.99999e-01
1.026704968e+00,8.72744e-01,9.99999e-01,9.97957e-01,8.74529e-01,9.99999e-01
1.031838492e+00,8.52812e-01,9.99999e-01,9.72588e-01,8.76848e-01,9.99999e-01
1.036997685e+00,2.27791e-01,9.99999e-01,2.59110e-01,8.79127e-01,9.99999e-01
1.042182673e+00,2.59604e-01,9.99999e-01,2.94546e-01,8.81367e-01,9.99999e-01
1.047393587e+00,2.51360e-01,9.99999e-01,2.84482e-01,8.83568e-01,9.99999e-01
1.052630555e+00,2.95339e-02,9.99999e-01,3.33441e-02,8.85731e-01,9.99999e-01
1.057893707e+00,5.79087e-02,9.99999e-01,6.52230e-02,8.87857e-01,9.99999e-01
1.063183176e+00,1.22626e-01,9.99999e-01,1.37790e-01,8.89945e-01,9.99999e-01
1.068499092e+00,2.36163e-01,9.99999e-01,2.64757e-01,8.91997e-01,9.99999e-01
1.073841587e+00,3.85841e-01,9.99999e-01,4.31583e-01,8.94013e-01,9.99999e-01
1.079210795e+00,5.27336e-01,9.99999e-01,5.88548e-01,8.95994e-01,9.99999e-01
1.084606849e+00,6.71900e-01,9.99999e-01,7.48268e-01,8.97939e-01,9.99999e-01
1.090029883e+00,7.74484e-01,9.99999e-01,8.60680e-01,8.99851e-01,9.99999e-01
1.095480033e+00,8.37459e-01,9.99999e-01,9.28725e-01,9.01728e-01,9.99999e-01
1.100957433e+00,8.71999e-01,9.99999e-01,9.65056e-01,9.03573e-01,9.99999e-01
1.106462220e+00,8.92159e-01,9.99999e-01,9.85392e-01,9.05384e-01,9.99999e-01
1.111994531e+00,9.02232e-01,9.99999e-01,9.94562e-01,9.07164e-01,9.99999e-01
1.117554504e+00,9.07698e-01,9.99999e-01,9.98665e-01,9.08911e-01,9.99999e-01
1.123142276e+00,9.10547e-01,9.99999e-01,9.99911e-01,9.10627e-01,9.99999e-01
1.128757988e+00,9.12313e-01,9.99999e-01,9.99999e-01,9.12313e-01,9.99999e-01
1.134401778e+00,9.13968e-01,9.99999e-01,9.99999e-01,9.13968e-01,9.99999e-01
1.140073787e+00,9.15594e-01,9.99999e-01,9.99999e-01,9.15594e-01,9.99999e-01
1.145774156e+00,9.17190e-01,9.99999e-01,9.99999e-01,9.17190e-01,9.99999e-01
1.151503026e+00,9.18757e-01,9.99999e-01,9.99999e-01,9.18757e-01,9.99999e-01
1.157260541e+00,9.20296e-01,9.99999e-01,9.99999e-01,9.20296e-01,9.99999e-01
1.163046844e+00,9.21807e-01,9.99999e-01,9.99999e-01,9.21807e-01,9.99999e-01
1.168862078e+00,9.23291e-01,9.99999e-01,9.99999e-01,9.23291e-01,9.99999e-01
1.174706389e+00,9.24748e-01,9.99999e-01,9.99999e-01,9.24748e-01,9.99999e-01
1.180579921e+00,9.26178e-01,9.99999e-01,9.99999e-01,9.26178e-01,9.99999e-01
1.186482820e+00,9.27579e-01,9.99999e-01,9.99996e-01,9.27582e-01,9.99999e-01
1.192415234e+00,9.22186e-01,9.99999e-01,9.92707e-01,9.28960e-01,9.99999e-01
1.198377311e+00,5.40535e-01,9.99999e-01,5.81025e-01,9.30313e-01,9.99999e-01
1.204369197e+00,3.30043e-07,9.99999e-01,3.54260e-07,9.31641e-01,9.99999e-01
1.210391043e+00,1.48526e-23,9.99999e-01,1.59201e-23,9.32945e-01,9.99999e-01
1.216442998e+00,1.24955e-20,9.99999e-01,1.33752e-20,9.34225e-01,9.99999e-01
1.222525213e+00,2.45114e-20,9.99999e-01,2.62019e-20,9.35482e-01,9.99999e-01
1.228637839e+00,1.12529e-15,9.99999e-01,1.20131e-15,9.36715e-01,9.99999e-01
1.234781029e+00,1.02319e-10,9.99999e-01,1.09091e-10,9.37925e-01,9.99999e-01
1.240954934e+00,2.68456e-07,9.99999e-01,2.85861e-07,9.39113e-01,9.99999e-01
1.247159708e+00,2.12489e-04,9.99999e-01,2.25984e-04,9.40279e-01,9.99999e-01
1.253395507e+00,8.71284e-03,9.99999e-01,9.25495e-03,9.41424e-01,9.99999e-01
1.259662485e+00,5.28618e-02,9.99999e-01,5.60840e-02,9.42547e-01,9.99999e-01
1.265960797e+00,2.00619e-01,9.99999e-01,2.12599e-01,9.43649e-01,9.99999e-01
1.272290601e+00,4.74841e-01,9.99999e-01,5.02620e-01,9.44731e-01,9.99999e-01
1.278652054e+00,4.42722e-01,9.99999e-01,4.68096e-01,9.45792e-01,9.99999e-01
1.285045314e+00,3.06309e-02,9.99999e-01,3.23508e-02,9.46834e-01,9.99999e-01
1.291470541e+00,1.84260e-03,9.99999e-01,1.94397e-03,9.47856e-01,9.99999e-01
1.297927893e+00,3.03405e-02,9.99999e-01,3.19758e-02,9.48859e-01,9.99999e-01
1.304417533e+00,2.99190e-01,9.99999e-01,3.14988e-01,9.49844e-01,9.99999e-01
1.310939621e+00,8.42480e-02,9.99999e-01,8.86065e-02,9.50810e-01,9.99999e-01
1.317494319e+00,1.50339e-08,9.99999e-01,1.57959e-08,9.51757e-01,9.99999e-01
1.324081790e+00,2.98363e-06,9.99999e-01,3.13180e-06,9.52687e-01,9.99999e-01
1.330702199e+00,1.08033e-03,9.99999e-01,1.13290e-03,9.53600e-01,9.99999e-01
1.337355710e+00,8.11612e-04,9.99999e-01,8.50304e-04,9.54495e-01,9.99999e-01
1.344042489e+00,2.69550e-04,9.99999e-01,2.82140e-04,9.55374e-01,9.99999e-01
1.350762701e+00,7.93811e-04,9.99999e-01,8.30141e-04,9.56235e-01,9.99999e-01
1.357516515e+00,9.03499e-03,9.99999e-01,9.44014e-03,9.57081e-01,9.99999e-01
1.364304097e+00,5.18807e-02,9.99999e-01,5.41602e-02,9.57911e-01,9.99999e-01
1.371125618e+00,2.05197e-01,9.99999e-01,2.14031e-01,9.58725e-01,9.99999e-01
1.377981246e+00,2.79786e-01,9.99999e-01,2.91588e-01,9.59523e-01,9.99999e-01
1.384871152e+00,4.68361e-01,9.99999e-01,4.87720e-01,9.60307e-01,9.99999e-01
1.391795508e+00,4.95177e-01,9.99999e-01,5.15232e-01,9.61075e-01,9.99999e-01
1.398754485e+00,6.39805e-01,9.99999e-01,6.65195e-01,9.61829e-01,9.99999e-01
1.405748258e+00,7.12309e-01,9.99999e-01,7.40008e-01,9.62569e-01,9.99999e-01
1.412776999e+00,7.96672e-01,9.99999e-01,8.27027e-01,9.63294e-01,9.99999e-01
1.419840884e+00,7.37250e-01,9.99999e-01,7.64776e-01,9.64006e-01,9.99999e-01
1.426940089e+00,9.45571e-02,9.99999e-01,9.80166e-02,9.64704e-01,9.99999e-01
1.434074789e+00,0.00000e+00,9.99999e-01,0.00000e+00,9.65389e-01,9.99999e-01
1.441245163e+00,0.00000e+00,9.99999e-01,0.00000e+00,9.66061e-01,9.99999e-01
1.448451389e+00,0.00000e+00,9.99999e-01,0.00000e+00,9.66720e-01,9.99999e-01
1.455693646e+00,4.85649e-182,9.99999e-01,5.02032e-182,9.67367e-01,9.99999e-01
1.462972114e+00,1.01346e-88,9.99999e-01,1.04696e-88,9.68001e-01,9.99999e-01
1.470286975e+00,7.88005e-38,9.99999e-01,8.13530e-38,9.68623e-01,9.99999e-01
