#,Wave/freq,Total,N2,CO2,Rayleigh,CIA
4.000000000e-01,1.16900e-04,9.99999e-01,9.99999e-01,1.16900e-04,9.99999e-01
4.020000000e-01,1.39817e-04,9.99999e-01,9.99999e-01,1.39817e-04,9.99999e-01
4.040100000e-01,1.66608e-04,9.99999e-01,9.99999e-01,1.66608e-04,9.99999e-01
4.060300500e-01,1.97846e-04,9.99999e-01,9.99999e-01,1.97846e-04,9.99999e-01
4.080602003e-01,2.34144e-04,9.99999e-01,9.99999e-01,2.34144e-04,9.99999e-01
4.101005013e-01,2.76182e-04,9.99999e-01,9.99999e-01,2.76182e-04,9.99999e-01
4.121510038e-01,3.24706e-04,9.99999e-01,9.99999e-01,3.24706e-04,9.99999e-01
4.142117588e-01,3.80537e-04,9.99999e-01,9.99999e-01,3.80537e-04,9.99999e-01
4.162828176e-01,4.44573e-04,9.99999e-01,9.99999e-01,4.44573e-04,9.99999e-01
4.183642317e-01,5.17791e-04,9.99999e-01,9.99999e-01,5.17791e-04,9.99999e-01
4.204560528e-01,6.01254e-04,9.99999e-01,9.99999e-01,6.01254e-04,9.99999e-01
4.225583331e-01,6.96113e-04,9.99999e-01,9.99999e-01,6.96113e-04,9.99999e-01
4.246711247e-01,8.03608e-04,9.99999e-01,9.99999e-01,8.03608e-04,9.99999e-01
4.267944804e-01,9.25076e-04,9.99999e-01,9.99999e-01,9.25076e-04,9.99999e-01
4.289284528e-01,1.06195e-03,9.99999e-01,9.99999e-01,1.06195e-03,9.99999e-01
4.310730950e-01,1.21575e-03,9.99999e-01,9.99999e-01,1.21575e-03,9.99999e-01
4.332284605e-01,1.38812e-03,9.99999e-01,9.99999e-01,1.38812e-03,9.99999e-01
4.353946028e-01,1.58078e-03,9.99999e-01,9.99999e-01,1.58078e-03,9.99999e-01
4.375715758e-01,1.79556e-03,9.99999e-01,9.99999e-01,1.79556e-03,9.99999e-01
4.397594337e-01,2.03440e-03,9.99999e-01,9.99999e-01,2.03440e-03,9.99999e-01
4.419582309e-01,2.29933e-03,9.99999e-01,9.99999e-01,2.29933e-03,9.99999e-01
4.441680220e-01,2.59248e-03,9.99999e-01,9.99999e-01,2.59248e-03,9.99999e-01
4.463888621e-01,2.91609e-03,9.99999e-01,9.99999e-01,2.91609e-03,9.99999e-01
4.486208064e-01,3.27249e-03,9.99999e-01,9.99999e-01,3.27249e-03,9.99999e-01
4.508639105e-01,3.66408e-03,9.99999e-01,9.99999e-01,3.66408e-03,9.99999e-01
4.531182300e-01,4.09339e-03,9.99999e-01,9.99999e-01,4.09339e-03,9.99999e-01
4.553838212e-01,4.56300e-03,9.99999e-01,9.99999e-01,4.56300e-03,9.99999e-01
4.576607403e-01,5.07558e-03,9.99999e-01,9.99999e-01,5.07558e-03,9.99999e-01
4.599490440e-01,5.63389e-03,9.99999e-01,9.99999e-01,5.63389e-03,9.99999e-01
4.622487892e-01,6.24073e-03,9.99999e-01,9.99999e-01,6.24073e-03,9.99999e-01
4.645600332e-01,6.89898e-03,9.99999e-01,9.99999e-01,6.89898e-03,9.99999e-01
4.668828333e-01,7.61157e-03,9.99999e-01,9.99999e-01,7.61157e-03,9.99999e-01
4.692172475e-01,8.38147e-03,9.99999e-01,9.99999e-01,8.38147e-03,9.99999e-01
4.715633337e-01,9.21170e-03,9.99999e-01,9.99999e-01,9.21170e-03,9.99999e-01
4.739211504e-01,1.01053e-02,9.99999e-01,9.99999e-01,1.01053e-02,9.99999e-01
4.762907561e-01,1.10653e-02,9.99999e-01,9.99999e-01,1.10653e-02,9.99999e-01
4.786722099e-01,1.20949e-02,9.99999e-01,9.99999e-01,1.20949e-02,9.99999e-01
4.810655710e-01,1.31970e-02,9.99999e-01,9.99999e-01,1.31970e-02,9.99999e-01
4.834708988e-01,1.43747e-02,9.99999e-01,9.99999e-01,1.43747e-02,9.99999e-01
4.858882533e-01,1.56312e-02,9.99999e-01,9.99999e-01,1.56312e-02,9.99999e-01
4.883176946e-01,1.69693e-02,9.99999e-01,9.99999e-01,1.69693e-02,9.99999e-01
4.907592831e-01,1.83922e-02,9.99999e-01,9.99999e-01,1.83922e-02,9.99999e-01
4.932130795e-01,1.99026e-02,9.99999e-01,9.99999e-01,1.99026e-02,9.99999e-01
4.956791449e-01,2.15036e-02,9.99999e-01,9.99999e-01,2.15036e-02,9.99999e-01
4.981575406e-01,2.31979e-02,9.99999e-01,9.99999e-01,2.31979e-02,9.99999e-01
5.006483283e-01,2.49882e-02,9.99999e-01,9.99999e-01,2.49882e-02,9.99999e-01
5.031515699e-01,2.68772e-02,9.99999e-01,9.99999e-01,2.68772e-02,9.99999e-01
5.056673278e-01,2.88674e-02,9.99999e-01,9.99999e-01,2.88674e-02,9.99999e-01
5.081956644e-01,3.09612e-02,9.99999e-01,9.99999e-01,3.09612e-02,9.99999e-01
5.107366428e-01,3.31610e-02,9.99999e-01,9.99999e-01,3.31610e-02,9.99999e-01
5.132903260e-01,3.54690e-02,9.99999e-01,9.99999e-01,3.54690e-02,9.99999e-01
5.158567776e-01,3.78873e-02,9.99999e-01,9.99999e-01,3.78873e-02,9.99999e-01
5.184360615e-01,4.04177e-02,9.99999e-01,9.99999e-01,4.04177e-02,9.99999e-01
5.210282418e-01,4.30621e-02,9.99999e-01,9.99999e-01,4.30621e-02,9.99999e-01
5.236333830e-01,4.58221e-02,9.99999e-01,9.99999e-01,4.58221e-02,9.99999e-01
5.262515499e-01,4.86993e-02,9.99999e-01,9.99999e-01,4.86993e-02,9.99999e-01
5.288828077e-01,5.16948e-02,9.99999e-01,9.99999e-01,5.16948e-02,9.99999e-01
5.315272217e-01,5.48100e-02,9.99999e-01,9.99999e-01,5.48100e-02,9.99999e-01
5.341848578e-01,5.80457e-02,9.99999e-01,9.99999e-01,5.80457e-02,9.99999e-01
5.368557821e-01,6.14029e-02,9.99999e-01,9.99999e-01,6.14029e-02,9.99999e-01
5.395400610e-01,6.48821e-02,9.99999e-01,9.99999e-01,6.48821e-02,9.99999e-01
5.422377613e-01,6.84839e-02,9.99999e-01,9.99999e-01,6.84839e-02,9.99999e-01
5.449489501e-01,7.22086e-02,9.99999e-01,9.99999e-01,7.22086e-02,9.99999e-01
5.476736949e-01,7.60562e-02,9.99999e-01,9.99999e-01,7.60562e-02,9.99999e-01
5.504120634e-01,8.00267e-02,9.99999e-01,9.99999e-01,8.00267e-02,9.99999e-01
5.531641237e-01,8.41199e-02,9.99999e-01,9.99999e-01,8.41199e-02,9.99999e-01
5.559299443e-01,8.83353e-02,9.99999e-01,9.99999e-01,8.83353e-02,9.99999e-01
5.587095940e-01,9.26725e-02,9.99999e-01,9.99999e-01,9.26725e-02,9.99999e-01
5.615031420e-01,9.71306e-02,9.99999e-01,9.99999e-01,9.71306e-02,9.99999e-01
5.643106577e-01,1.01709e-01,9.99999e-01,9.99999e-01,1.01709e-01,9.99999e-01
5.671322110e-01,1.06406e-01,9.99999e-01,9.99999e-01,1.06406e-01,9.99999e-01
5.699678720e-01,1.11221e-01,9.99999e-01,9.99999e-01,1.11221e-01,9.99999e-01
5.728177114e-01,1.16152e-01,9.99999e-01,9.99999e-01,1.16152e-01,9.99999e-01
5.756818000e-01,1.21197e-01,9.99999e-01,9.99999e-01,1.21197e-01,9.99999e-01
5.785602090e-01,1.26356e-01,9.99999e-01,9.99999e-01,1.26356e-01,9.99999e-01
5.814530100e-01,1.31626e-01,9.99999e-01,9.99999e-01,1.31626e-01,9.99999e-01
5.843602750e-01,1.37005e-01,9.99999e-01,9.99999e-01,1.37005e-01,9.99999e-01
5.872820764e-01,1.42492e-01,9.99999e-01,9.99999e-01,1.42492e-01,9.99999e-01
5.902184868e-01,1.48083e-01,9.99999e-01,9.99999e-01,1.48083e-01,9.99999e-01
5.931695792e-01,1.53776e-01,9.99999e-01,9.99999e-01,1.53776e-01,9.99999e-01
5.961354271e-01,1.59569e-01,9.99999e-01,9.99999e-01,1.59569e-01,9.99999e-01
5.991161043e-01,1.65460e-01,9.99999e-01,9.99999e-01,1.65460e-01,9.99999e-01
6.021116848e-01,1.71445e-01,9.99999e-01,9.99999e-01,1.71445e-01,9.99999e-01
6.051222432e-01,1.77523e-01,9.99999e-01,9.99999e-01,1.77523e-01,9.99999e-01
6.081478544e-01,1.83689e-01,9.99999e-01,9.99999e-01,1.83689e-01,9.99999e-01
6.111885937e-01,1.89941e-01,9.99999e-01,9.99999e-01,1.89941e-01,9.99999e-01
6.142445367e-01,1.96276e-01,9.99999e-01,9.99999e-01,1.96276e-01,9.99999e-01
6.173157594e-01,2.02692e-01,9.99999e-01,9.99999e-01,2.02692e-01,9.99999e-01
6.204023382e-01,2.09184e-01,9.99999e-01,9.99999e-01,2.09184e-01,9.99999e-01
6.235043498e-01,2.15749e-01,9.99999e-01,9.99999e-01,2.15749e-01,9.99999e-01
6.266218716e-01,2.22385e-01,9.99999e-01,9.99999e-01,2.22385e-01,9.99999e-01
6.297549810e-01,2.29087e-01,9.99999e-01,9.99999e-01,2.29087e-01,9.99999e-01
6.329037559e-01,2.35854e-01,9.99999e-01,9.99999e-01,2.35854e-01,9.99999e-01
6.360682746e-01,2.42680e-01,9.99999e-01,9.99999e-01,2.42680e-01,9.99999e-01
6.392486160e-01,2.49564e-01,9.99999e-01,9.99999e-01,2.49564e-01,9.99999e-01
6.424448591e-01,2.56501e-01,9.99999e-01,9.99999e-01,2.56501e-01,9.99999e-01
6.456570834e-01,2.63488e-01,9.99999e-01,9.99999e-01,2.63488e-01,9.99999e-01
6.488853688e-01,2.70522e-01,9.99999e-01,9.99999e-01,2.70522e-01,9.99999e-01
6.521297956e-01,2.77599e-01,9.99999e-01,9.99999e-01,2.77599e-01,9.99999e-01
6.553904446e-01,2.84716e-01,9.99999e-01,9.99999e-01,2.84716e-01,9.99999e-01
6.586673968e-01,2.91869e-01,9.99999e-01,9.99999e-01,2.91869e-01,9.99999e-01
6.619607338e-01,2.99056e-01,9.99999e-01,9.99999e-01,2.99056e-01,9.99999e-01
6.652705375e-01,3.06272e-01,9.99999e-01,9.99999e-01,3.06272e-01,9.99999e-01
6.685968902e-01,3.13515e-01,9.99999e-01,9.99999e-01,3.13515e-01,9.99999e-01
6.719398746e-01,3.20781e-01,9.99999e-01,9.99999e-01,3.20781e-01,9.99999e-01
6.752995740e-01,3.28066e-01,9.99999e-01,9.99999e-01,3.28066e-01,9.99999e-01
6.786760719e-01,3.35369e-01,9.99999e-01,9.99999e-01,3.35369e-01,9.99999e-01
6.820694522e-01,3.42685e-01,9.99999e-01,9.99999e-01,3.42685e-01,9.99999e-01
6.854797995e-01,3.50011e-01,9.99999e-01,9.99999e-01,3.50011e-01,9.99999e-01
6.889071985e-01,3.57345e-01,9.99999e-01,9.99999e-01,3.57345e-01,9.99999e-01
6.923517345e-01,3.64682e-01,9.99999e-01,9.99999e-01,3.64682e-01,9.99999e-01
6.958134932e-01,3.72022e-01,9.99999e-01,9.99999e-01,3.72022e-01,9.99999e-01
6.992925606e-01,3.79359e-01,9.99999e-01,9.99999e-01,3.79359e-01,9.99999e-01
7.027890234e-01,3.86692e-01,9.99999e-01,9.99999e-01,3.86692e-01,9.99999e-01
7.063029686e-01,3.94018e-01,9.99999e-01,9.99999e-01,3.94018e-01,9.99999e-01
7.098344834e-01,4.01333e-01,9.99999e-01,9.99999e-01,4.01333e-01,9.99999e-01
7.133836558e-01,4.08636e-01,9.99999e-01,9.99999e-01,4.08636e-01,9.99999e-01
7.169505741e-01,4.15924e-01,9.99999e-01,9.99999e-01,4.15924e-01,9.99999e-01
7.205353270e-01,4.23194e-01,9.99999e-01,9.99999e-01,4.23194e-01,9.99999e-01
7.241380036e-01,4.30444e-01,9.99999e-01,9.99999e-01,4.30444e-01,9.99999e-01
7.277586936e-01,4.37671e-01,9.99999e-01,9.99999e-01,4.37671e-01,9.99999e-01
7.313974871e-01,4.44872e-01,9.99999e-01,9.99999e-01,4.44872e-01,9.99999e-01
7.350544745e-01,4.52047e-01,9.99999e-01,9.99999e-01,4.52047e-01,9.99999e-01
7.387297469e-01,4.59192e-01,9.99999e-01,9.99999e-01,4.59192e-01,9.99999e-01
7.424233956e-01,4.66306e-01,9.99999e-01,9.99999e-01,4.66306e-01,9.99999e-01
7.461355126e-01,4.73386e-01,9.99999e-01,9.99999e-01,4.73386e-01,9.99999e-01
7.498661902e-01,4.80431e-01,9.99999e-01,9.99999e-01,4.80431e-01,9.99999e-01
7.536155211e-01,4.87438e-01,9.99999e-01,9.99999e-01,4.87438e-01,9.99999e-01
7.573835987e-01,4.94406e-01,9.99999e-01,9.99999e-01,4.94406e-01,9.99999e-01
7.611705167e-01,5.01333e-01,9.99999e-01,9.99999e-01,5.01333e-01,9.99999e-01
7.649763693e-01,5.08218e-01,9.99999e-01,9.99999e-01,5.08218e-01,9.99999e-01
7.688012511e-01,5.15058e-01,9.99999e-01,9.99999e-01,5.15058e-01,9.99999e-01
7.726452574e-01,5.21852e-01,9.99999e-01,9.99999e-01,5.21852e-01,9.99999e-01
7.765084837e-01,5.28599e-01,9.99999e-01,9.99999e-01,5.28599e-01,9.99999e-01
7.803910261e-01,5.18949e-01,9.99999e-01,9.69458e-01,5.35298e-01,9.99999e-01
7.842929812e-01,4.76014e-01,9.99999e-01,8.78340e-01,5.41947e-01,9.99999e-01
7.882144461e-01,4.76899e-01,9.99999e-01,8.69389e-01,5.48544e-01,9.99999e-01
7.921555184e-01,5.11739e-01,9.99999e-01,9.21903e-01,5.55089e-01,9.99999e-01
7.961162960e-01,5.32069e-01,9.99999e-01,9.47448e-01,5.61581e-01,9.99999e-01
8.000968774e-01,5.51610e-01,9.99999e-01,9.71114e-01,5.68018e-01,9.99999e-01
8.040973618e-01,5.65779e-01,9.99999e-01,9.84992e-01,5.74399e-01,9.99999e-01
8.081178486e-01,5.76693e-01,9.99999e-01,9.93058e-01,5.80724e-01,9.99999e-01
8.121584379e-01,5.85743e-01,9.99999e-01,9.97871e-01,5.86992e-01,9.99999e-01
8.162192301e-01,5.92923e-01,9.99999e-01,9.99529e-01,5.93201e-01,9.99999e-01
8.203003262e-01,5.99348e-01,9.99999e-01,9.99993e-01,5.99352e-01,9.99999e-01
8.244018279e-01,6.05443e-01,9.99999e-01,9.99999e-01,6.05443e-01,9.99999e-01
8.285238370e-01,6.11474e-01,9.99999e-01,9.99999e-01,6.11474e-01,9.99999e-01
8.326664562e-01,6.17444e-01,9.99999e-01,9.99999e-01,6.17444e-01,9.99999e-01
8.368297885e-01,6.23352e-01,9.99999e-01,9.99999e-01,6.23352e-01,9.99999e-01
8.410139374e-01,6.29199e-01,9.99999e-01,9.99999e-01,6.29199e-01,9.99999e-01
8.452190071e-01,6.34984e-01,9.99999e-01,9.99999e-01,6.34984e-01,9.99999e-01
8.494451021e-01,6.40706e-01,9.99999e-01,9.99999e-01,6.40706e-01,9.99999e-01
8.536923276e-01,6.46365e-01,9.99999e-01,9.99999e-01,6.46365e-01,9.99999e-01
8.579607893e-01,6.51960e-01,9.99999e-01,9.99999e-01,6.51960e-01,9.99999e-01
8.622505932e-01,6.57492e-01,9.99999e-01,9.99999e-01,6.57492e-01,9.99999e-01
8.665618462e-01,6.16445e-01,9.99999e-01,9.29835e-01,6.62961e-01,9.99999e-01
8.708946554e-01,4.79324e-01,9.99999e-01,7.17159e-01,6.68365e-01,9.99999e-01
8.752491287e-01,5.16389e-01,9.99999e-01,7.66490e-01,6.73706e-01,9.99999e-01
8.796253743e-01,5.87037e-01,9.99999e-01,8.64583e-01,6.78982e-01,9.99999e-01
8.840235012e-01,6.34537e-01,9.99999e-01,9.27422e-01,6.84194e-01,9.99999e-01
8.884436187e-01,6.69270e-01,9.99999e-01,9.70881e-01,6.89343e-01,9.99999e-01
8.928858368e-01,6.86151e-01,9.99999e-01,9.88081e-01,6.94427e-01,9.99999e-01
8.973502660e-01,6.97425e-01,9.99999e-01,9.97108e-01,6.99447e-01,9.99999e-01
9.018370173e-01,7.04179e-01,9.99999e-01,9.99681e-01,7.04403e-01,9.99999e-01
9.063462024e-01,7.03321e-01,9.99999e-01,9.91576e-01,7.09295e-01,9.99999e-01
9.108779334e-01,7.00703e-01,9.99999e-01,9.81206e-01,7.14124e-01,9.99999e-01
9.154323231e-01,7.15729e-01,9.99999e-01,9.95603e-01,7.18889e-01,9.99999e-01
9.200094847e-01,6.77071e-01,9.99999e-01,9.35708e-01,7.23591e-01,9.99999e-01
9.246095321e-01,6.63553e-01,9.99999e-01,9.11185e-01,7.28230e-01,9.99999e-01
9.292325798e-01,6.80724e-01,9.99999e-01,9.28926e-01,7.32806e-01,9.99999e-01
9.338787427e-01,6.87121e-01,9.99999e-01,9.31917e-01,7.37320e-01,9.99999e-01
9.385481364e-01,7.04323e-01,9.99999e-01,9.49514e-01,7.41771e-01,9.99999e-01
9.432408771e-01,7.22936e-01,9.99999e-01,9.68874e-01,7.46161e-01,9.99999e-01
9.479570815e-01,7.38392e-01,9.99999e-01,9.83881e-01,7.50489e-01,9.99999e-01
9.526968669e-01,7.48878e-01,9.99999e-01,9.92212e-01,7.54756e-01,9.99999e-01
9.574603512e-01,7.56432e-01,9.99999e-01,9.96665e-01,7.58962e-01,9.99999e-01
9.622476530e-01,7.62315e-01,9.99999e-01,9.98960e-01,7.63108e-01,9.99999e-01
9.670588912e-01,7.66956e-01,9.99999e-01,9.99688e-01,7.67194e-01,9.99999e-01
9.718941857e-01,7.71204e-01,9.99999e-01,9.99978e-01,7.71221e-01,9.99999e-01
9.767536566e-01,7.75188e-01,9.99999e-01,9.99999e-01,7.75188e-01,9.99999e-01
9.816374249e-01,7.79097e-01,9.99999e-01,9.99999e-01,7.79097e-01,9.99999e-01
9.865456120e-01,7.82948e-01,9.99999e-01,9.99999e-01,7.82948e-01,9.99999e-01
9.914783401e-01,7.86741e-01,9.99999e-01,9.99999e-01,7.86741e-01,9.99999e-01
9.964357318e-01,7.90478e-01,9.99999e-01,9.99999e-01,7.90478e-01,9.99999e-01
1.001417910e+00,7.94157e-01,9.99999e-01,9.99999e-01,7.94157e-01,9.99999e-01
1.006425000e+00,7.97781e-01,9.99999e-01,9.99999e-01,7.97781e-01,9.99999e-01
1.011457125e+00,8.01349e-01,9.99999e-01,9.99999e-01,8.01349e-01,9.99999e-01
1.016514411e+00,8.04862e-01,9.99999e-01,9.99999e-01,8.04862e-01,9.99999e-01
1.021596983e+00,8.08280e-01,9.99999e-01,9.99949e-01,8.08321e-01,9.99999e-01
1.026704968e+00,8.09046e-01,9.99999e-01,9.96699e-01,8.11725e-01,9.99999e-01
1.031838492e+00,7.80166e-01,9.99999e-01,9.57168e-01,8.15077e-01,9.99999e-01
1.036997685e+00,1.41943e-01,9.99999e-01,1.73445e-01,8.18375e-01,9.99999e-01
1.042182673e+00,1.30646e-01,9.99999e-01,1.59010e-01,8.21622e-01,9.99999e-01
1.047393587e+00,1.42436e-01,9.99999e-01,1.72687e-01,8.24816e-01,9.99999e-01
1.052630555e+00,6.17859e-03,9.99999e-01,7.46241e-03,8.27960e-01,9.99999e-01
1.057893707e+00,1.49043e-02,9.99999e-01,1.79342e-02,8.31053e-01,9.99999e-01
1.063183176e+00,4.33491e-02,9.99999e-01,5.19712e-02,8.34097e-01,9.99999e-01
1.068499092e+00,1.08614e-01,9.99999e-01,1.29752e-01,8.37091e-01,9.99999e-01
1.073841587e+00,2.32199e-01,9.99999e-01,2.76415e-01,8.40036e-01,9.99999e-01
1.079210795e+00,3.73486e-01,9.99999e-01,4.43078e-01,8.42934e-01,9.99999e-01
1.084606849e+00,5.41241e-01,9.99999e-01,6.39928e-01,8.45783e-01,9.99999e-01
1.090029883e+00,6.73000e-01,9.99999e-01,7.93083e-01,8.48586e-01,9.99999e-01
1.095480033e+00,7.59599e-01,9.99999e-01,8.92235e-01,8.51343e-01,9.99999e-01
1.100957433e+00,8.08401e-01,9.99999e-01,9.46545e-01,8.54053e-01,9.99999e-01
1.106462220e+00,8.37509e-01,9.99999e-01,9.77576e-01,8.56719e-01,9.99999e-01
1.111994531e+00,8.52148e-01,9.99999e-01,9.91630e-01,8.59340e-01,9.99999e-01
1.117554504e+00,8.60159e-01,9.99999e-01,9.97960e-01,8.61917e-01,9.99999e-01
1.123142276e+00,8.64335e-01,9.99999e-01,9.99866e-01,8.64450e-01,9.99999e-01
1.128757988e+00,8.66941e-01,9.99999e-01,9.99999e-01,8.66941e-01,9.99999e-01
1.134401778e+00,8.69389e-01,9.99999e-01,9.99999e-01,8.69389e-01,9.99999e-01
1.140073787e+00,8.71796e-01,9.99999e-01,9.99999e-01,8.71796e-01,9.99999e-01
1.145774156e+00,8.74162e-01,9.99999e-01,9.99999e-01,8.74162e-01,9.99999e-01
1.151503026e+00,8.76487e-01,9.99999e-01,9.99999e-01,8.76487e-01,9.99999e-01
1.157260541e+00,8.78773e-01,9.99999e-01,9.99999e-01,8.78773e-01,9.99999e-01
1.163046844e+00,8.81019e-01,9.99999e-01,9.99999e-01,8.81019e-01,9.99999e-01
1.168862078e+00,8.83226e-01,9.99999e-01,9.99999e-01,8.83226e-01,9.99999e-01
1.174706389e+00,8.85395e-01,9.99999e-01,9.99999e-01,8.85395e-01,9.99999e-01
1.180579921e+00,8.87526e-01,9.99999e-01,9.99999e-01,8.87526e-01,9.99999e-01
1.186482820e+00,8.89614e-01,9.99999e-01,9.99992e-01,8.89620e-01,9.99999e-01
1.192415234e+00,8.81145e-01,9.99999e-01,9.88186e-01,8.91678e-01,9.99999e-01
1.198377311e+00,5.04516e-01,9.99999e-01,5.64525e-01,8.93700e-01,9.99999e-01
1.204369197e+00,5.73686e-10,9.99999e-01,6.40498e-10,8.95686e-01,9.99999e-01
1.210391043e+00,2.08235e-35,9.99999e-01,2.31981e-35,8.97637e-01,9.99999e-01
1.216442998e+00,7.37416e-31,9.99999e-01,8.19757e-31,8.99554e-01,9.99999e-01
1.222525213e+00,2.02947e-30,9.99999e-01,2.25138e-30,9.01436e-01,9.99999e-01
1.228637839e+00,1.49842e-23,9.99999e-01,1.65885e-23,9.03286e-01,9.99999e-01
1.234781029e+00,1.92041e-15,9.99999e-01,2.12176e-15,9.05103e-01,9.99999e-01
1.240954934e+00,1.96390e-10,9.99999e-01,2.16554e-10,9.06887e-01,9.99999e-01
1.247159708e+00,5.75545e-06,9.99999e-01,6.33414e-06,9.08639e-01,9.99999e-01
1.253395507e+00,8.26252e-04,9.99999e-01,9.07609e-04,9.10361e-01,9.99999e-01
1.259662485e+00,1.65150e-02,9.99999e-01,1.81075e-02,9.12051e-01,9.99999e-01
1.265960797e+00,8.99098e-02,9.99999e-01,9.84007e-02,9.13711e-01,9.99999e-01
1.272290601e+00,3.45339e-01,9.99999e-01,3.77278e-01,9.15341e-01,9.99999e-01
1.278652054e+00,2.93587e-01,9.99999e-01,3.20181e-01,9.16942e-01,9.99999e-01
1.285045314e+00,7.40417e-03,9.99999e-01,8.06103e-03,9.18513e-01,9.99999e-01
1.291470541e+00,7.52433e-05,9.99999e-01,8.17811e-05,9.20057e-01,9.99999e-01
1.297927893e+00,1.45052e-02,9.99999e-01,1.57396e-02,9.21572e-01,9.99999e-01
1.304417533e+00,1.56328e-01,9.99999e-01,1.69358e-01,9.23060e-01,9.99999e-01
1.310939621e+00,2.60028e-02,9.99999e-01,2.81257e-02,9.24521e-01,9.99999e-01
1.317494319e+00,1.04194e-12,9.99999e-01,1.12526e-12,9.25955e-01,9.99999e-01
1.324081790e+00,5.58762e-07,9.99999e-01,6.02527e-07,9.27363e-01,9.99999e-01
1.330702199e+00,3.04711e-05,9.99999e-01,3.28088e-05,9.28746e-01,9.99999e-01
1.337355710e+00,3.37892e-05,9.99999e-01,3.63284e-05,9.30103e-01,9.99999e-01
1.344042489e+00,9.69411e-06,9.99999e-01,1.04077e-05,9.31435e-01,9.99999e-01
1.350762701e+00,2.01421e-05,9.99999e-01,2.15945e-05,9.32743e-01,9.99999e-01
1.357516515e+00,9.26667e-04,9.99999e-01,9.92120e-04,9.34026e-01,9.99999e-01
1.364304097e+00,1.07543e-02,9.99999e-01,1.14984e-02,9.35286e-01,9.99999e-01
1.371125618e+00,9.09852e-02,9.99999e-01,9.71520e-02,9.36523e-01,9.99999e-01
1.377981246e+00,1.39430e-01,9.99999e-01,1.48688e-01,9.37737e-01,9.99999e-01
1.384871152e+00,3.09953e-01,9.99999e-01,3.30114e-01,9.38929e-01,9.99999e-01
1.391795508e+00,3.37806e-01,9.99999e-01,3.59331e-01,9.40098e-01,9.99999e-01
1.398754485e+00,5.00625e-01,9.99999e-01,5.31875e-01,9.41246e-01,9.99999e-01
1.405748258e+00,5.92219e-01,9.99999e-01,6.28434e-01,9.42372e-01,9.99999e-01
1.412776999e+00,7.03734e-01,9.99999e-01,7.45893e-01,9.43478e-01,9.99999e-01
1.419840884e+00,6.32286e-01,9.99999e-01,6.69395e-01,9.44562e-01,9.99999e-01
1.426940089e+00,6.35873e-02,9.99999e-01,6.72435e-02,9.45627e-01,9.99999e-01
1.434074789e+00,0.00000e+00,9.99999e-01,0.00000e+00,9.46672e-01,9.99999e-01
1.441245163e+00,0.00000e+00,9.99999e-01,0.00000e+00,9.47697e-01,9.99999e-01
1.448451389e+00,0.00000e+00,9.99999e-01,0.00000e+00,9.48703e-01,9.99999e-01
1.455693646e+00,4.57362e-282,9.99999e-01,4.81590e-282,9.49691e-01,9.99999e-01
1.462972114e+00,7.90572e-137,9.99999e-01,8.31603e-137,9.50659e-01,9.99999e-01
1.470286975e+00,1.26135e-57,9.99999e-01,1.32549e-57,9.51610e-01,9.99999e-01
