#,Wave/freq,Total,N2,CO2,Rayleigh,CIA
4.000000000e-01,7.09494e-03,9.99999e-01,9.99999e-01,7.09494e-03,9.99999e-01
4.020000000e-01,7.82425e-03,9.99999e-01,9.99999e-01,7.82425e-03,9.99999e-01
4.040100000e-01,8.61098e-03,9.99999e-01,9.99999e-01,8.61098e-03,9.99999e-01
4.060300500e-01,9.45889e-03,9.99999e-01,9.99999e-01,9.45889e-03,9.99999e-01
4.080602003e-01,1.03710e-02,9.99999e-01,9.99999e-01,1.03710e-02,9.99999e-01
4.101005013e-01,1.13505e-02,9.99999e-01,9.99999e-01,1.13505e-02,9.99999e-01
4.121510038e-01,1.24003e-02,9.99999e-01,9.99999e-01,1.24003e-02,9.99999e-01
4.142117588e-01,1.35236e-02,9.99999e-01,9.99999e-01,1.35236e-02,9.99999e-01
4.162828176e-01,1.47234e-02,9.99999e-01,9.99999e-01,1.47234e-02,9.99999e-01
4.183642317e-01,1.60027e-02,9.99999e-01,9.99999e-01,1.60027e-02,9.99999e-01
4.204560528e-01,1.73646e-02,9.99999e-01,9.99999e-01,1.73646e-02,9.99999e-01
4.225583331e-01,1.88121e-02,9.99999e-01,9.99999e-01,1.88121e-02,9.99999e-01
4.246711247e-01,2.03480e-02,9.99999e-01,9.99999e-01,2.03480e-02,9.99999e-01
4.267944804e-01,2.19752e-02,9.99999e-01,9.99999e-01,2.19752e-02,9.99999e-01
4.289284528e-01,2.36964e-02,9.99999e-01,9.99999e-01,2.36964e-02,9.99999e-01
4.310730950e-01,2.55145e-02,9.99999e-01,9.99999e-01,2.55145e-02,9.99999e-01
4.332284605e-01,2.74320e-02,9.99999e-01,9.99999e-01,2.74320e-02,9.99999e-01
4.353946028e-01,2.94513e-02,9.99999e-01,9.99999e-01,2.94513e-02,9.99999e-01
4.375715758e-01,3.15751e-02,9.99999e-01,9.99999e-01,3.15751e-02,9.99999e-01
4.397594337e-01,3.38054e-02,9.99999e-01,9.99999e-01,3.38054e-02,9.99999e-01
4.419582309e-01,3.61445e-02,9.99999e-01,9.99999e-01,3.61445e-02,9.99999e-01
4.441680220e-01,3.85944e-02,9.99999e-01,9.99999e-01,3.85944e-02,9.99999e-01
4.463888621e-01,4.11570e-02,9.99999e-01,9.99999e-01,4.11570e-02,9.99999e-01
4.486208064e-01,4.38341e-02,9.99999e-01,9.99999e-01,4.38341e-02,9.99999e-01
4.508639105e-01,4.66272e-02,9.99999e-01,9.99999e-01,4.66272e-02,9.99999e-01
4.531182300e-01,4.95379e-02,9.99999e-01,9.99999e-01,4.95379e-02,9.99999e-01
4.553838212e-01,5.25673e-02,9.99999e-01,9.99999e-01,5.25673e-02,9.99999e-01
4.576607403e-01,5.57166e-02,9.99999e-01,9.99999e-01,5.57166e-02,9.99999e-01
4.599490440e-01,5.89867e-02,9.99999e-01,9.99999e-01,5.89867e-02,9.99999e-01
4.622487892e-01,6.23785e-02,9.99999e-01,9.99999e-01,6.23785e-02,9.99999e-01
4.645600332e-01,6.58925e-02,9.99999e-01,9.99999e-01,6.58925e-02,9.99999e-01
4.668828333e-01,6.95292e-02,9.99999e-01,9.99999e-01,6.95292e-02,9.99999e-01
4.692172475e-01,7.32887e-02,9.99999e-01,9.99999e-01,7.32887e-02,9.99999e-01
4.715633337e-01,7.71712e-02,9.99999e-01,9.99999e-01,7.71712e-02,9.99999e-01
4.739211504e-01,8.11766e-02,9.99999e-01,9.99999e-01,8.11766e-02,9.99999e-01
4.762907561e-01,8.53046e-02,9.99999e-01,9.99999e-01,8.53046e-02,9.99999e-01
4.786722099e-01,8.95547e-02,9.99999e-01,9.99999e-01,8.95547e-02,9.99999e-01
4.810655710e-01,9.39263e-02,9.99999e-01,9.99999e-01,9.39263e-02,9.99999e-01
4.834708988e-01,9.84186e-02,9.99999e-01,9.99999e-01,9.84186e-02,9.99999e-01
4.858882533e-01,1.03031e-01,9.99999e-01,9.99999e-01,1.03031e-01,9.99999e-01
4.883176946e-01,1.07761e-01,9.99999e-01,9.99999e-01,1.07761e-01,9.99999e-01
4.907592831e-01,1.12609e-01,9.99999e-01,9.99999e-01,1.12609e-01,9.99999e-01
4.932130795e-01,1.17573e-01,9.99999e-01,9.99999e-01,1.17573e-01,9.99999e-01
4.956791449e-01,1.22651e-01,9.99999e-01,9.99999e-01,1.22651e-01,9.99999e-01
4.981575406e-01,1.27842e-01,9.99999e-01,9.99999e-01,1.27842e-01,9.99999e-01
5.006483283e-01,1.33143e-01,9.99999e-01,9.99999e-01,1.33143e-01,9.99999e-01
5.031515699e-01,1.38553e-01,9.99999e-01,9.99999e-01,1.38553e-01,9.99999e-01
5.056673278e-01,1.44069e-01,9.99999e-01,9.99999e-01,1.44069e-01,9.99999e-01
5.081956644e-01,1.49689e-01,9.99999e-01,9.99999e-01,1.49689e-01,9.99999e-01
5.107366428e-01,1.55411e-01,9.99999e-01,9.99999e-01,1.55411e-01,9.99999e-01
5.132903260e-01,1.61232e-01,9.99999e-01,9.99999e-01,1.61232e-01,9.99999e-01
5.158567776e-01,1.67150e-01,9.99999e-01,9.99999e-01,1.67150e-01,9.99999e-01
5.184360615e-01,1.73162e-01,9.99999e-01,9.99999e-01,1.73162e-01,9.99999e-01
5.210282418e-01,1.79265e-01,9.99999e-01,9.99999e-01,1.79265e-01,9.99999e-01
5.236333830e-01,1.85456e-01,9.99999e-01,9.99999e-01,1.85456e-01,9.99999e-01
5.262515499e-01,1.91732e-01,9.99999e-01,9.99999e-01,1.91732e-01,9.99999e-01
5.288828077e-01,1.98090e-01,9.99999e-01,9.99999e-01,1.98090e-01,9.99999e-01
5.315272217e-01,2.04528e-01,9.99999e-01,9.99999e-01,2.04528e-01,9.99999e-01
5.341848578e-01,2.11041e-01,9.99999e-01,9.99999e-01,2.11041e-01,9.99999e-01
5.368557821e-01,2.17626e-01,9.99999e-01,9.99999e-01,2.17626e-01,9.99999e-01
5.395400610e-01,2.24281e-01,9.99999e-01,9.99999e-01,2.24281e-01,9.99999e-01
5.422377613e-01,2.31003e-01,9.99999e-01,9.99999e-01,2.31003e-01,9.99999e-01
5.449489501e-01,2.37786e-01,9.99999e-01,9.99999e-01,2.37786e-01,9.99999e-01
5.476736949e-01,2.44630e-01,9.99999e-01,9.99999e-01,2.44630e-01,9.99999e-01
5.504120634e-01,2.51529e-01,9.99999e-01,9.99999e-01,2.51529e-01,9.99999e-01
5.531641237e-01,2.58480e-01,9.99999e-01,9.99999e-01,2.58480e-01,9.99999e-01
5.559299443e-01,2.65481e-01,9.99999e-01,9.99999e-01,2.65481e-01,9.99999e-01
5.587095940e-01,2.72527e-01,9.99999e-01,9.99999e-01,2.72527e-01,9.99999e-01
5.615031420e-01,2.79616e-01,9.99999e-01,9.99999e-01,2.79616e-01,9.99999e-01
5.643106577e-01,2.86744e-01,9.99999e-01,9.99999e-01,2.86744e-01,9.99999e-01
5.671322110e-01,2.93907e-01,9.99999e-01,9.99999e-01,2.93907e-01,9.99999e-01
5.699678720e-01,3.01102e-01,9.99999e-01,9.99999e-01,3.01102e-01,9.99999e-01
5.728177114e-01,3.08326e-01,9.99999e-01,9.99999e-01,3.08326e-01,9.99999e-01
5.756818000e-01,3.15576e-01,9.99999e-01,9.99999e-01,3.15576e-01,9.99999e-01
5.785602090e-01,3.22848e-01,9.99999e-01,9.99999e-01,3.22848e-01,9.99999e-01
5.814530100e-01,3.30139e-01,9.99999e-01,9.99999e-01,3.30139e-01,9.99999e-01
5.843602750e-01,3.37445e-01,9.99999e-01,9.99999e-01,3.37445e-01,9.99999e-01
5.872820764e-01,3.44764e-01,9.99999e-01,9.99999e-01,3.44764e-01,9.99999e-01
5.902184868e-01,3.52093e-01,9.99999e-01,9.99999e-01,3.52093e-01,9.99999e-01
5.931695792e-01,3.59428e-01,9.99999e-01,9.99999e-01,3.59428e-01,9.99999e-01
5.961354271e-01,3.66767e-01,9.99999e-01,9.99999e-01,3.66767e-01,9.99999e-01
5.991161043e-01,3.74106e-01,9.99999e-01,9.99999e-01,3.74106e-01,9.99999e-01
6.021116848e-01,3.81442e-01,9.99999e-01,9.99999e-01,3.81442e-01,9.99999e-01
6.051222432e-01,3.88773e-01,9.99999e-01,9.99999e-01,3.88773e-01,9.99999e-01
6.081478544e-01,3.96096e-01,9.99999e-01,9.99999e-01,3.96096e-01,9.99999e-01
6.111885937e-01,4.03409e-01,9.99999e-01,9.99999e-01,4.03409e-01,9.99999e-01
6.142445367e-01,4.10708e-01,9.99999e-01,9.99999e-01,4.10708e-01,9.99999e-01
6.173157594e-01,4.17991e-01,9.99999e-01,9.99999e-01,4.17991e-01,9.99999e-01
6.204023382e-01,4.25255e-01,9.99999e-01,9.99999e-01,4.25255e-01,9.99999e-01
6.235043498e-01,4.32498e-01,9.99999e-01,9.99999e-01,4.32498e-01,9.99999e-01
6.266218716e-01,4.39718e-01,9.99999e-01,9.99999e-01,4.39718e-01,9.99999e-01
6.297549810e-01,4.46913e-01,9.99999e-01,9.99999e-01,4.46913e-01,9.99999e-01
6.329037559e-01,4.54079e-01,9.99999e-01,9.99999e-01,4.54079e-01,9.99999e-01
6.360682746e-01,4.61216e-01,9.99999e-01,9.99999e-01,4.61216e-01,9.99999e-01
6.392486160e-01,4.68320e-01,9.99999e-01,9.99999e-01,4.68320e-01,9.99999e-01
6.424448591e-01,4.75391e-01,9.99999e-01,9.99999e-01,4.75391e-01,9.99999e-01
6.456570834e-01,4.82425e-01,9.99999e-01,9.99999e-01,4.82425e-01,9.99999e-01
6.488853688e-01,4.89421e-01,9.99999e-01,9.99999e-01,4.89421e-01,9.99999e-01
6.521297956e-01,4.96378e-01,9.99999e-01,9.99999e-01,4.96378e-01,9.99999e-01
6.553904446e-01,5.03293e-01,9.99999e-01,9.99999e-01,5.03293e-01,9.99999e-01
6.586673968e-01,5.10165e-01,9.99999e-01,9.99999e-01,5.10165e-01,9.99999e-01
6.619607338e-01,5.16992e-01,9.99999e-01,9.99999e-01,5.16992e-01,9.99999e-01
6.652705375e-01,5.23773e-01,9.99999e-01,9.99999e-01,5.23773e-01,9.99999e-01
6.685968902e-01,5.30507e-01,9.99999e-01,9.99999e-01,5.30507e-01,9.99999e-01
6.719398746e-01,5.37191e-01,9.99999e-01,9.99999e-01,5.37191e-01,9.99999e-01
6.752995740e-01,5.43825e-01,9.99999e-01,9.99999e-01,5.43825e-01,9.99999e-01
6.786760719e-01,5.50408e-01,9.99999e-01,9.99999e-01,5.50408e-01,9.99999e-01
6.820694522e-01,5.56938e-01,9.99999e-01,9.99999e-01,5.56938e-01,9.99999e-01
6.854797995e-01,5.63414e-01,9.99999e-01,9.99999e-01,5.63414e-01,9.99999e-01
6.889071985e-01,5.69836e-01,9.99999e-01,9.99999e-01,5.69836e-01,9.99999e-01
6.923517345e-01,5.76201e-01,9.99999e-01,9.99999e-01,5.76201e-01,9.99999e-01
6.958134932e-01,5.82510e-01,9.99999e-01,9.99999e-01,5.82510e-01,9.99999e-01
6.992925606e-01,5.88761e-01,9.99999e-01,9.99999e-01,5.88761e-01,9.99999e-01
7.027890234e-01,5.94954e-01,9.99999e-01,9.99999e-01,5.94954e-01,9.99999e-01
7.063029686e-01,6.01088e-01,9.99999e-01,9.99999e-01,6.01088e-01,9.99999e-01
7.098344834e-01,6.07162e-01,9.99999e-01,9.99999e-01,6.07162e-01,9.99999e-01
7.133836558e-01,6.13175e-01,9.99999e-01,9.99999e-01,6.13175e-01,9.99999e-01
7.169505741e-01,6.19128e-01,9.99999e-01,9.99999e-01,6.19128e-01,9.99999e-01
7.205353270e-01,6.25019e-01,9.99999e-01,9.99999e-01,6.25019e-01,9.99999e-01
7.241380036e-01,6.30848e-01,9.99999e-01,9.99999e-01,6.30848e-01,9.99999e-01
7.277586936e-01,6.36615e-01,9.99999e-01,9.99999e-01,6.36615e-01,9.99999e-01
7.313974871e-01,6.42319e-01,9.99999e-01,9.99999e-01,6.42319e-01,9.99999e-01
7.350544745e-01,6.47960e-01,9.99999e-01,9.99999e-01,6.47960e-01,9.99999e-01
7.387297469e-01,6.53538e-01,9.99999e-01,9.99999e-01,6.53538e-01,9.99999e-01
7.424233956e-01,6.59052e-01,9.99999e-01,9.99999e-01,6.59052e-01,9.99999e-01
7.461355126e-01,6.64502e-01,9.99999e-01,9.99999e-01,6.64502e-01,9.99999e-01
7.498661902e-01,6.69888e-01,9.99999e-01,9.99999e-01,6.69888e-01,9.99999e-01
7.536155211e-01,6.75211e-01,9.99999e-01,9.99999e-01,6.75211e-01,9.99999e-01
7.573835987e-01,6.80469e-01,9.99999e-01,9.99999e-01,6.80469e-01,9.99999e-01
7.611705167e-01,6.85663e-01,9.99999e-01,9.99999e-01,6.85663e-01,9.99999e-01
7.649763693e-01,6.90793e-01,9.99999e-01,9.99999e-01,6.90793e-01,9.99999e-01
7.688012511e-01,6.95859e-01,9.99999e-01,9.99999e-01,6.95859e-01,9.99999e-01
7.726452574e-01,7.00861e-01,9.99999e-01,9.99999e-01,7.00861e-01,9.99999e-01
7.765084837e-01,7.05799e-01,9.99999e-01,9.99999e-01,7.05799e-01,9.99999e-01
7.803910261e-01,6.99203e-01,9.99999e-01,9.83859e-01,7.10673e-01,9.99999e-01
7.842929812e-01,6.65415e-01,9.99999e-01,9.30021e-01,7.15484e-01,9.99999e-01
7.882144461e-01,6.66527e-01,9.99999e-01,9.25435e-01,7.20231e-01,9.99999e-01
7.921555184e-01,6.93409e-01,9.99999e-01,9.56538e-01,7.24915e-01,9.99999e-01
7.961162960e-01,7.08073e-01,9.99999e-01,9.70579e-01,7.29536e-01,9.99999e-01
8.000968774e-01,7.22334e-01,9.99999e-01,9.83979e-01,7.34094e-01,9.99999e-01
8.040973618e-01,7.32418e-01,9.99999e-01,9.91643e-01,7.38590e-01,9.99999e-01
8.081178486e-01,7.40180e-01,9.99999e-01,9.96171e-01,7.43024e-01,9.99999e-01
8.121584379e-01,7.46505e-01,9.99999e-01,9.98807e-01,7.47396e-01,9.99999e-01
8.162192301e-01,7.51509e-01,9.99999e-01,9.99736e-01,7.51707e-01,9.99999e-01
8.203003262e-01,7.55953e-01,9.99999e-01,9.99995e-01,7.55957e-01,9.99999e-01
8.244018279e-01,7.60146e-01,9.99999e-01,9.99999e-01,7.60146e-01,9.99999e-01
8.285238370e-01,7.64275e-01,9.99999e-01,9.99999e-01,7.64275e-01,9.99999e-01
8.326664562e-01,7.68344e-01,9.99999e-01,9.99999e-01,7.68344e-01,9.99999e-01
8.368297885e-01,7.72353e-01,9.99999e-01,9.99999e-01,7.72353e-01,9.99999e-01
8.410139374e-01,7.76304e-01,9.99999e-01,9.99999e-01,7.76304e-01,9.99999e-01
8.452190071e-01,7.80197e-01,9.99999e-01,9.99999e-01,7.80197e-01,9.99999e-01
8.494451021e-01,7.84031e-01,9.99999e-01,9.99999e-01,7.84031e-01,9.99999e-01
8.536923276e-01,7.87808e-01,9.99999e-01,9.99999e-01,7.87808e-01,9.99999e-01
8.579607893e-01,7.91528e-01,9.99999e-01,9.99999e-01,7.91528e-01,9.99999e-01
8.622505932e-01,7.95192e-01,9.99999e-01,9.99999e-01,7.95192e-01,9.99999e-01
8.665618462e-01,7.64208e-01,9.99999e-01,9.56695e-01,7.98800e-01,9.99999e-01
8.708946554e-01,6.65895e-01,9.99999e-01,8.29928e-01,8.02352e-01,9.99999e-01
8.752491287e-01,6.94546e-01,9.99999e-01,8.61880e-01,8.05850e-01,9.99999e-01
8.796253743e-01,7.46463e-01,9.99999e-01,9.22363e-01,8.09293e-01,9.99999e-01
8.840235012e-01,7.79525e-01,9.99999e-01,9.59200e-01,8.12682e-01,9.99999e-01
8.884436187e-01,8.02708e-01,9.99999e-01,9.83687e-01,8.16019e-01,9.99999e-01
8.928858368e-01,8.13882e-01,9.99999e-01,9.93383e-01,8.19302e-01,9.99999e-01
8.973502660e-01,8.21202e-01,9.99999e-01,9.98379e-01,8.22534e-01,9.99999e-01
9.018370173e-01,8.25567e-01,9.99999e-01,9.99820e-01,8.25714e-01,9.99999e-01
9.063462024e-01,8.25141e-01,9.99999e-01,9.95531e-01,8.28844e-01,9.99999e-01
9.108779334e-01,8.23261e-01,9.99999e-01,9.89587e-01,8.31923e-01,9.99999e-01
9.154323231e-01,8.32887e-01,9.99999e-01,9.97526e-01,8.34952e-01,9.99999e-01
9.200094847e-01,8.07916e-01,9.99999e-01,9.64177e-01,8.37932e-01,9.99999e-01
9.246095321e-01,7.98836e-01,9.99999e-01,9.50017e-01,8.40864e-01,9.99999e-01
9.292325798e-01,8.10668e-01,9.99999e-01,9.60793e-01,8.43748e-01,9.99999e-01
9.338787427e-01,8.14287e-01,9.99999e-01,9.61850e-01,8.46584e-01,9.99999e-01
9.385481364e-01,8.25509e-01,9.99999e-01,9.71902e-01,8.49374e-01,9.99999e-01
9.432408771e-01,8.37358e-01,9.99999e-01,9.82678e-01,8.52117e-01,9.99999e-01
9.479570815e-01,8.47211e-01,9.99999e-01,9.91103e-01,8.54815e-01,9.99999e-01
9.526968669e-01,8.53775e-01,9.99999e-01,9.95693e-01,8.57468e-01,9.99999e-01
9.574603512e-01,8.58490e-01,9.99999e-01,9.98155e-01,8.60076e-01,9.99999e-01
9.622476530e-01,8.62144e-01,9.99999e-01,9.99423e-01,8.62641e-01,9.99999e-01
9.670588912e-01,8.65012e-01,9.99999e-01,9.99826e-01,8.65162e-01,9.99999e-01
9.718941857e-01,8.67630e-01,9.99999e-01,9.99987e-01,8.67641e-01,9.99999e-01
9.767536566e-01,8.70077e-01,9.99999e-01,9.99999e-01,8.70077e-01,9.99999e-01
9.816374249e-01,8.72472e-01,9.99999e-01,9.99999e-01,8.72472e-01,9.99999e-01
9.865456120e-01,8.74827e-01,9.99999e-01,9.99999e-01,8.74827e-01,9.99999e-01
9.914783401e-01,8.77140e-01,9.99999e-01,9.99999e-01,8.77140e-01,9.99999e-01
9.964357318e-01,8.79415e-01,9.99999e-01,9.99999e-01,8.79415e-01,9.99999e-01
1.001417910e+00,8.81649e-01,9.99999e-01,9.99999e-01,8.81649e-01,9.99999e-01
1.006425000e+00,8.83846e-01,9.99999e-01,9.99999e-01,8.83846e-01,9.99999e-01
1.011457125e+00,8.86004e-01,9.99999e-01,9.99999e-01,8.86004e-01,9.99999e-01
1.016514411e+00,8.88125e-01,9.99999e-01,9.99999e-01,8.88125e-01,9.99999e-01
1.021596983e+00,8.90189e-01,9.99999e-01,9.99977e-01,8.90208e-01,9.99999e-01
1.026704968e+00,8.90711e-01,9.99999e-01,9.98267e-01,8.92256e-01,9.99999e-01
1.031838492e+00,8.72706e-01,9.99999e-01,9.75889e-01,8.94267e-01,9.99999e-01
1.036997685e+00,2.64695e-01,9.99999e-01,2.95338e-01,8.96243e-01,9.99999e-01
1.042182673e+00,3.14884e-01,9.99999e-01,3.50578e-01,8.98185e-01,9.99999e-01
1.047393587e+00,2.94630e-01,9.99999e-01,3.27333e-01,9.00092e-01,9.99999e-01
1.052630555e+00,4.61719e-02,9.99999e-01,5.11903e-02,9.01965e-01,9.99999e-01
1.057893707e+00,8.54580e-02,9.99999e-01,9.45534e-02,9.03805e-01,9.99999e-01
1.063183176e+00,1.64487e-01,9.99999e-01,1.81631e-01,9.05613e-01,9.99999e-01
1.068499092e+00,2.91863e-01,9.99999e-01,3.21652e-01,9.07388e-01,9.99999e-01
1.073841587e+00,4.43649e-01,9.99999e-01,4.87992e-01,9.09131e-01,9.99999e-01
1.079210795e+00,5.79605e-01,9.99999e-01,6.36338e-01,9.10844e-01,9.99999e-01
1.084606849e+00,7.12827e-01,9.99999e-01,7.81157e-01,9.12525e-01,9.99999e-01
1.090029883e+00,8.04589e-01,9.99999e-01,8.80124e-01,9.14177e-01,9.99999e-01
1.095480033e+00,8.59941e-01,9.99999e-01,9.39006e-01,9.15798e-01,9.99999e-01
1.100957433e+00,8.90042e-01,9.99999e-01,9.70188e-01,9.17391e-01,9.99999e-01
1.106462220e+00,9.07519e-01,9.99999e-01,9.87555e-01,9.18955e-01,9.99999e-01
1.111994531e+00,9.16230e-01,9.99999e-01,9.95371e-01,9.20490e-01,9.99999e-01
1.117554504e+00,9.20950e-01,9.99999e-01,9.98863e-01,9.21998e-01,9.99999e-01
1.123142276e+00,9.23409e-01,9.99999e-01,9.99924e-01,9.23478e-01,9.99999e-01
1.128757988e+00,9.24931e-01,9.99999e-01,9.99999e-01,9.24931e-01,9.99999e-01
1.134401778e+00,9.26358e-01,9.99999e-01,9.99999e-01,9.26358e-01,9.99999e-01
1.140073787e+00,9.27759e-01,9.99999e-01,9.99999e-01,9.27759e-01,9.99999e-01
1.145774156e+00,9.29134e-01,9.99999e-01,9.99999e-01,9.29134e-01,9.99999e-01
1.151503026e+00,9.30484e-01,9.99999e-01,9.99999e-01,9.30484e-01,9.99999e-01
1.157260541e+00,9.31809e-01,9.99999e-01,9.99999e-01,9.31809e-01,9.99999e-01
1.163046844e+00,9.33110e-01,9.99999e-01,9.99999e-01,9.33110e-01,9.99999e-01
1.168862078e+00,9.34387e-01,9.99999e-01,9.99999e-01,9.34387e-01,9.99999e-01
1.174706389e+00,9.35640e-01,9.99999e-01,9.99999e-01,9.35640e-01,9.99999e-01
1.180579921e+00,9.36870e-01,9.99999e-01,9.99999e-01,9.36870e-01,9.99999e-01
1.186482820e+00,9.38076e-01,9.99999e-01,9.99997e-01,9.38078e-01,9.99999e-01
1.192415234e+00,9.33449e-01,9.99999e-01,9.93809e-01,9.39263e-01,9.99999e-01
1.198377311e+00,5.53662e-01,9.99999e-01,5.88735e-01,9.40426e-01,9.99999e-01
1.204369197e+00,1.83040e-06,9.99999e-01,1.94399e-06,9.41568e-01,9.99999e-01
1.210391043e+00,2.29724e-20,9.99999e-01,2.43690e-20,9.42688e-01,9.99999e-01
1.216442998e+00,7.11786e-18,9.99999e-01,7.54179e-18,9.43788e-01,9.99999e-01
1.222525213e+00,1.29715e-17,9.99999e-01,1.37283e-17,9.44867e-01,9.99999e-01
1.228637839e+00,1.53329e-13,9.99999e-01,1.62093e-13,9.45926e-01,9.99999e-01
1.234781029e+00,1.96372e-09,9.99999e-01,2.07370e-09,9.46965e-01,9.99999e-01
1.240954934e+00,1.96640e-06,9.99999e-01,2.07429e-06,9.47985e-01,9.99999e-01
1.247159708e+00,6.31852e-04,9.99999e-01,6.65818e-04,9.48986e-01,9.99999e-01
1.253395507e+00,1.68958e-02,9.99999e-01,1.77856e-02,9.49968e-01,9.99999e-01
1.259662485e+00,8.00745e-02,9.99999e-01,8.42063e-02,9.50931e-01,9.99999e-01
1.265960797e+00,2.52213e-01,9.99999e-01,2.64963e-01,9.51877e-01,9.99999e-01
1.272290601e+00,5.29673e-01,9.99999e-01,5.55909e-01,9.52804e-01,9.99999e-01
1.278652054e+00,4.95354e-01,9.99999e-01,5.19394e-01,9.53715e-01,9.99999e-01
1.285045314e+00,4.35637e-02,9.99999e-01,4.56352e-02,9.54608e-01,9.99999e-01
1.291470541e+00,4.46476e-03,9.99999e-01,4.67277e-03,9.55484e-01,9.99999e-01
1.297927893e+00,4.60330e-02,9.99999e-01,4.81343e-02,9.56344e-01,9.99999e-01
1.304417533e+00,3.57405e-01,9.99999e-01,3.73390e-01,9.57188e-01,9.99999e-01
1.310939621e+00,1.05276e-01,9.99999e-01,1.09889e-01,9.58015e-01,9.99999e-01
1.317494319e+00,1.96990e-07,9.99999e-01,2.05448e-07,9.58827e-01,9.99999e-01
1.324081790e+00,1.57358e-05,9.99999e-01,1.63979e-05,9.59624e-01,9.99999e-01
1.330702199e+00,2.86747e-03,9.99999e-01,2.98569e-03,9.60405e-01,9.99999e-01
1.337355710e+00,1.99449e-03,9.99999e-01,2.07506e-03,9.61172e-01,9.99999e-01
1.344042489e+00,7.25785e-04,9.99999e-01,7.54513e-04,9.61924e-01,9.99999e-01
1.350762701e+00,2.20706e-03,9.99999e-01,2.29266e-03,9.62662e-01,9.99999e-01
1.357516515e+00,1.73899e-02,9.99999e-01,1.80508e-02,9.63386e-01,9.99999e-01
1.364304097e+00,8.00278e-02,9.99999e-01,8.30080e-02,9.64096e-01,9.99999e-01
1.371125618e+00,2.57714e-01,9.99999e-01,2.67118e-01,9.64792e-01,9.99999e-01
1.377981246e+00,3.38141e-01,9.99999e-01,3.50232e-01,9.65476e-01,9.99999e-01
1.384871152e+00,5.24186e-01,9.99999e-01,5.42553e-01,9.66146e-01,9.99999e-01
1.391795508e+00,5.49724e-01,9.99999e-01,5.68599e-01,9.66803e-01,9.99999e-01
1.398754485e+00,6.83915e-01,9.99999e-01,7.06926e-01,9.67448e-01,9.99999e-01
1.405748258e+00,7.49200e-01,9.99999e-01,7.73901e-01,9.68081e-01,9.99999e-01
1.412776999e+00,8.24140e-01,9.99999e-01,8.50767e-01,9.68701e-01,9.99999e-01
1.419840884e+00,7.68585e-01,9.99999e-01,7.92919e-01,9.69310e-01,9.99999e-01
1.426940089e+00,1.05014e-01,9.99999e-01,1.08272e-01,9.69907e-01,9.99999e-01
1.434074789e+00,1.05469e-285,9.99999e-01,1.08676e-285,9.70492e-01,9.99999e-01
1.441245163e+00,0.00000e+00,9.99999e-01,0.00000e+00,9.71067e-01,9.99999e-01
1.448451389e+00,0.00000e+00,9.99999e-01,0.00000e+00,9.71630e-01,9.99999e-01
1.455693646e+00,3.99021e-155,9.99999e-01,4.10437e-155,9.72183e-01,9.99999e-01
1.462972114e+00,8.92578e-76,9.99999e-01,9.17605e-76,9.72724e-01,9.99999e-01
1.470286975e+00,1.67435e-32,9.99999e-01,1.72036e-32,9.73256e-01,9.99999e-01
