#,Wave/freq,Total,N2,O2,CO2,H2O,Rayleigh,CIA
4.000000000e-01,3.22992e-03,9.99999e-01,9.99999e-01,9.99999e-01,9.99988e-01,3.22995e-03,9.99999e-01
4.020000000e-01,3.61779e-03,9.99999e-01,9.99999e-01,9.99999e-01,9.99992e-01,3.61781e-03,9.99999e-01
4.040100000e-01,4.04270e-03,9.99999e-01,9.99999e-01,9.99999e-01,9.99996e-01,4.04271e-03,9.99999e-01
4.060300500e-01,4.50762e-03,9.99999e-01,9.99999e-01,9.99999e-01,9.99998e-01,4.50762e-03,9.99999e-01
4.080602003e-01,5.01519e-03,9.99999e-01,9.99999e-01,9.99999e-01,9.99999e-01,5.01519e-03,9.99999e-01
4.101005013e-01,5.56817e-03,9.99999e-01,9.99999e-01,9.99999e-01,9.99999e-01,5.56817e-03,9.99999e-01
4.121510038e-01,6.16936e-03,9.99999e-01,9.99999e-01,9.99999e-01,9.99999e-01,6.16936e-03,9.99999e-01
4.142117588e-01,6.82161e-03,9.99999e-01,9.99999e-01,9.99999e-01,9.99996e-01,6.82163e-03,9.99999e-01
4.162828176e-01,7.52781e-03,9.99999e-01,9.99999e-01,9.99999e-01,9.99985e-01,7.52791e-03,9.99999e-01
4.183642317e-01,8.29110e-03,9.99999e-01,9.99999e-01,9.99999e-01,9.99991e-01,8.29116e-03,9.99999e-01
4.204560528e-01,9.11435e-03,9.99999e-01,9.99999e-01,9.99999e-01,9.99994e-01,9.11440e-03,9.99999e-01
4.225583331e-01,1.00006e-02,9.99999e-01,9.99999e-01,9.99999e-01,9.99997e-01,1.00007e-02,9.99999e-01
4.246711247e-01,1.09530e-02,9.99999e-01,9.99999e-01,9.99999e-01,9.99998e-01,1.09530e-02,9.99999e-01
4.267944804e-01,1.19745e-02,9.99999e-01,9.99999e-01,9.99999e-01,9.99997e-01,1.19745e-02,9.99999e-01
4.289284528e-01,1.30682e-02,9.99999e-01,9.99999e-01,9.99999e-01,9.99997e-01,1.30682e-02,9.99999e-01
4.310730950e-01,1.42372e-02,9.99999e-01,9.99999e-01,9.99999e-01,9.99998e-01,1.42372e-02,9.99999e-01
4.332284605e-01,1.54846e-02,9.99999e-01,9.99999e-01,9.99999e-01,9.99999e-01,1.54846e-02,9.99999e-01
4.353946028e-01,1.68133e-02,9.99999e-01,9.99999e-01,9.99999e-01,9.99999e-01,1.68133e-02,9.99999e-01
4.375715758e-01,1.82264e-02,9.99999e-01,9.99999e-01,9.99999e-01,9.99998e-01,1.82264e-02,9.99999e-01
4.397594337e-01,1.97266e-02,9.99999e-01,9.99999e-01,9.99999e-01,9.99987e-01,1.97268e-02,9.99999e-01
4.419582309e-01,2.13161e-02,9.99999e-01,9.99999e-01,9.99999e-01,9.99938e-01,2.13174e-02,9.99999e-01
4.441680220e-01,2.29998e-02,9.99999e-01,9.99999e-01,9.99999e-01,9.99952e-01,2.30009e-02,9.99999e-01
4.463888621e-01,2.47790e-02,9.99999e-01,9.99999e-01,9.99999e-01,9.99949e-01,2.47802e-02,9.99999e-01
4.486208064e-01,2.66570e-02,9.99999e-01,9.99999e-01,9.99999e-01,9.99968e-01,2.66579e-02,9.99999e-01
4.508639105e-01,2.86360e-02,9.99999e-01,9.99999e-01,9.99999e-01,9.99985e-01,2.86365e-02,9.99999e-01
4.531182300e-01,3.07182e-02,9.99999e-01,9.99999e-01,9.99999e-01,9.99993e-01,3.07184e-02,9.99999e-01
4.553838212e-01,3.29060e-02,9.99999e-01,9.99999e-01,9.99999e-01,9.99995e-01,3.29061e-02,9.99999e-01
4.576607403e-01,3.52017e-02,9.99999e-01,9.99999e-01,9.99999e-01,9.99997e-01,3.52017e-02,9.99999e-01
4.599490440e-01,3.76073e-02,9.99999e-01,9.99999e-01,9.99999e-01,9.99998e-01,3.76074e-02,9.99999e-01
4.622487892e-01,4.01250e-02,9.99999e-01,9.99999e-01,9.99999e-01,9.99999e-01,4.01250e-02,9.99999e-01
4.645600332e-01,4.27563e-02,9.99999e-01,9.99999e-01,9.99999e-01,9.99998e-01,4.27564e-02,9.99999e-01
4.668828333e-01,4.55025e-02,9.99999e-01,9.99999e-01,9.99999e-01,9.99984e-01,4.55032e-02,9.99999e-01
4.692172475e-01,4.83655e-02,9.99999e-01,9.99999e-01,9.99999e-01,9.99968e-01,4.83670e-02,9.99999e-01
4.715633337e-01,5.13480e-02,9.99999e-01,9.99999e-01,9.99999e-01,9.99979e-01,5.13490e-02,9.99999e-01
4.739211504e-01,5.44495e-02,9.99999e-01,9.99999e-01,9.99999e-01,9.99980e-01,5.44506e-02,9.99999e-01
4.762907561e-01,5.76720e-02,9.99999e-01,9.99999e-01,9.99999e-01,9.99989e-01,5.76726e-02,9.99999e-01
4.786722099e-01,6.10157e-02,9.99999e-01,9.99999e-01,9.99999e-01,9.99995e-01,6.10160e-02,9.99999e-01
4.810655710e-01,6.44813e-02,9.99999e-01,9.99999e-01,9.99999e-01,9.99998e-01,6.44813e-02,9.99999e-01
4.834708988e-01,6.80684e-02,9.99999e-01,9.99999e-01,9.99999e-01,9.99987e-01,6.80692e-02,9.99999e-01
4.858882533e-01,7.17783e-02,9.99999e-01,9.99999e-01,9.99999e-01,9.99977e-01,7.17799e-02,9.99999e-01
4.883176946e-01,7.56121e-02,9.99999e-01,9.99999e-01,9.99999e-01,9.99981e-01,7.56135e-02,9.99999e-01
4.907592831e-01,7.95688e-02,9.99999e-01,9.99999e-01,9.99999e-01,9.99982e-01,7.95701e-02,9.99999e-01
4.932130795e-01,8.36484e-02,9.99999e-01,9.99999e-01,9.99999e-01,9.99987e-01,8.36494e-02,9.99999e-01
4.956791449e-01,8.78505e-02,9.99999e-01,9.99999e-01,9.99999e-01,9.99993e-01,8.78510e-02,9.99999e-01
4.981575406e-01,9.21716e-02,9.99999e-01,9.99999e-01,9.99999e-01,9.99968e-01,9.21744e-02,9.99999e-01
5.006483283e-01,9.66110e-02,9.99999e-01,9.99999e-01,9.99999e-01,9.99918e-01,9.66189e-02,9.99998e-01
5.031515699e-01,1.01141e-01,9.99999e-01,9.99999e-01,9.99999e-01,9.99588e-01,1.01183e-01,9.99995e-01
5.056673278e-01,1.05844e-01,9.99999e-01,9.99999e-01,9.99999e-01,9.99783e-01,1.05867e-01,9.99994e-01
5.081956644e-01,1.10638e-01,9.99999e-01,9.99999e-01,9.99999e-01,9.99726e-01,1.10669e-01,9.99996e-01
5.107366428e-01,1.15565e-01,9.99999e-01,9.99999e-01,9.99999e-01,9.99815e-01,1.15587e-01,9.99998e-01
5.132903260e-01,1.20607e-01,9.99999e-01,9.99999e-01,9.99999e-01,9.99894e-01,1.20619e-01,9.99999e-01
5.158567776e-01,1.25760e-01,9.99999e-01,9.99999e-01,9.99999e-01,9.99955e-01,1.25765e-01,9.99999e-01
5.184360615e-01,1.31021e-01,9.99999e-01,9.99999e-01,9.99999e-01,9.99981e-01,1.31023e-01,9.99999e-01
5.210282418e-01,1.36389e-01,9.99999e-01,9.99999e-01,9.99999e-01,9.99992e-01,1.36390e-01,9.99999e-01
5.236333830e-01,1.41860e-01,9.99999e-01,9.99999e-01,9.99999e-01,9.99972e-01,1.41864e-01,9.99999e-01
5.262515499e-01,1.47441e-01,9.99999e-01,9.99999e-01,9.99999e-01,9.99982e-01,1.47443e-01,9.99999e-01
5.288828077e-01,1.53123e-01,9.99999e-01,9.99999e-01,9.99999e-01,9.99984e-01,1.53125e-01,9.99999e-01
5.315272217e-01,1.58905e-01,9.99999e-01,9.99999e-01,9.99999e-01,9.99986e-01,1.58907e-01,9.99999e-01
5.341848578e-01,1.64786e-01,9.99999e-01,9.99999e-01,9.99999e-01,9.99990e-01,1.64787e-01,9.99999e-01
5.368557821e-01,1.70757e-01,9.99999e-01,9.99999e-01,9.99999e-01,9.99968e-01,1.70762e-01,9.99999e-01
5.395400610e-01,1.76809e-01,9.99999e-01,9.99999e-01,9.99999e-01,9.99886e-01,1.76829e-01,9.99998e-01
5.422377613e-01,1.82958e-01,9.99999e-01,9.99999e-01,9.99999e-01,9.99854e-01,1.82985e-01,9.99996e-01
5.449489501e-01,1.89202e-01,9.99999e-01,9.99999e-01,9.99999e-01,9.99864e-01,1.89228e-01,9.99996e-01
5.476736949e-01,1.95530e-01,9.99999e-01,9.99999e-01,9.99999e-01,9.99880e-01,1.95554e-01,9.99998e-01
5.504120634e-01,2.01942e-01,9.99999e-01,9.99999e-01,9.99999e-01,9.99912e-01,2.01960e-01,9.99999e-01
5.531641237e-01,2.08434e-01,9.99999e-01,9.99999e-01,9.99999e-01,9.99955e-01,2.08443e-01,9.99999e-01
5.559299443e-01,2.14996e-01,9.99999e-01,9.99999e-01,9.99999e-01,9.99978e-01,2.15001e-01,9.99999e-01
5.587095940e-01,2.21626e-01,9.99999e-01,9.99999e-01,9.99999e-01,9.99986e-01,2.21629e-01,9.99999e-01
5.615031420e-01,2.28320e-01,9.99999e-01,9.99999e-01,9.99999e-01,9.99984e-01,2.28324e-01,9.99999e-01
5.643106577e-01,2.35079e-01,9.99999e-01,9.99999e-01,9.99999e-01,9.99982e-01,2.35083e-01,9.99999e-01
5.671322110e-01,2.41853e-01,9.99999e-01,9.99999e-01,9.99999e-01,9.99795e-01,2.41903e-01,9.99997e-01
5.699678720e-01,2.48725e-01,9.99999e-01,9.99999e-01,9.99999e-01,9.99784e-01,2.48780e-01,9.99993e-01
5.728177114e-01,2.55653e-01,9.99999e-01,9.99999e-01,9.99999e-01,9.99774e-01,2.55711e-01,9.99994e-01
5.756818000e-01,2.62638e-01,9.99999e-01,9.99999e-01,9.99999e-01,9.99793e-01,2.62693e-01,9.99996e-01
5.785602090e-01,2.69673e-01,9.99999e-01,9.99999e-01,9.99999e-01,9.99819e-01,2.69722e-01,9.99998e-01
5.814530100e-01,2.76744e-01,9.99999e-01,9.99999e-01,9.99999e-01,9.99818e-01,2.76794e-01,9.99999e-01
5.843602750e-01,2.83845e-01,9.99999e-01,9.99999e-01,9.99999e-01,9.99783e-01,2.83907e-01,9.99998e-01
5.872820764e-01,2.90511e-01,9.99999e-01,9.99999e-01,9.99999e-01,9.98140e-01,2.91056e-01,9.99986e-01
5.902184868e-01,2.97558e-01,9.99999e-01,9.99999e-01,9.99999e-01,9.97752e-01,2.98239e-01,9.99964e-01
5.931695792e-01,3.04956e-01,9.99999e-01,9.99999e-01,9.99999e-01,9.98410e-01,3.05452e-01,9.99965e-01
5.961354271e-01,3.12141e-01,9.99999e-01,9.99999e-01,9.99999e-01,9.98258e-01,3.12692e-01,9.99979e-01
5.991161043e-01,3.19547e-01,9.99999e-01,9.99999e-01,9.99999e-01,9.98730e-01,3.19955e-01,9.99993e-01
6.021116848e-01,3.27003e-01,9.99999e-01,9.99999e-01,9.99999e-01,9.99279e-01,3.27239e-01,9.99998e-01
6.051222432e-01,3.34418e-01,9.99999e-01,9.99999e-01,9.99999e-01,9.99635e-01,3.34540e-01,9.99999e-01
6.081478544e-01,3.41801e-01,9.99999e-01,9.99999e-01,9.99999e-01,9.99842e-01,3.41854e-01,9.99999e-01
6.111885937e-01,3.49156e-01,9.99999e-01,9.99999e-01,9.99999e-01,9.99933e-01,3.49180e-01,9.99999e-01
6.142445367e-01,3.56502e-01,9.99999e-01,9.99999e-01,9.99999e-01,9.99969e-01,3.56512e-01,9.99999e-01
6.173157594e-01,3.63844e-01,9.99999e-01,9.99999e-01,9.99999e-01,9.99983e-01,3.63850e-01,9.99999e-01
6.204023382e-01,3.71184e-01,9.99999e-01,9.99999e-01,9.99999e-01,9.99985e-01,3.71189e-01,9.99999e-01
6.235043498e-01,3.78504e-01,9.99999e-01,9.99999e-01,9.99999e-01,9.99938e-01,3.78527e-01,9.99999e-01
6.266218716e-01,3.85735e-01,9.99999e-01,9.99999e-01,9.99999e-01,9.99676e-01,3.85861e-01,9.99997e-01
6.297549810e-01,3.93139e-01,9.99999e-01,9.99999e-01,9.99999e-01,9.99880e-01,3.93187e-01,9.99994e-01
6.329037559e-01,4.00409e-01,9.99999e-01,9.99999e-01,9.99999e-01,9.99765e-01,4.00504e-01,9.99995e-01
6.360682746e-01,4.07726e-01,9.99999e-01,9.99999e-01,9.99999e-01,9.99799e-01,4.07809e-01,9.99997e-01
6.392486160e-01,4.14991e-01,9.99999e-01,9.99999e-01,9.99999e-01,9.99740e-01,4.15098e-01,9.99998e-01
6.424448591e-01,4.22223e-01,9.99999e-01,9.99999e-01,9.99999e-01,9.99652e-01,4.22370e-01,9.99997e-01
6.456570834e-01,4.28927e-01,9.99999e-01,9.99999e-01,9.99999e-01,9.98388e-01,4.29622e-01,9.99990e-01
6.488853688e-01,4.36327e-01,9.99999e-01,9.99999e-01,9.99999e-01,9.98822e-01,4.36852e-01,9.99974e-01
6.521297956e-01,4.43515e-01,9.99999e-01,9.99999e-01,9.99999e-01,9.98800e-01,4.44057e-01,9.99978e-01
6.553904446e-01,4.50689e-01,9.99999e-01,9.99999e-01,9.99999e-01,9.98804e-01,4.51235e-01,9.99984e-01
6.586673968e-01,4.57913e-01,9.99999e-01,9.99999e-01,9.99999e-01,9.98977e-01,4.58383e-01,9.99994e-01
6.619607338e-01,4.65235e-01,9.99999e-01,9.99999e-01,9.99999e-01,9.99430e-01,4.65501e-01,9.99998e-01
6.652705375e-01,4.72423e-01,9.99999e-01,9.99999e-01,9.99999e-01,9.99657e-01,4.72585e-01,9.99998e-01
6.685968902e-01,4.79558e-01,9.99999e-01,9.99999e-01,9.99999e-01,9.99840e-01,4.79634e-01,9.99999e-01
6.719398746e-01,4.86610e-01,9.99999e-01,9.99999e-01,9.99999e-01,9.99926e-01,4.86645e-01,9.99999e-01
6.752995740e-01,4.93598e-01,9.99999e-01,9.99999e-01,9.99999e-01,9.99959e-01,4.93618e-01,9.99999e-01
6.786760719e-01,5.00521e-01,9.99999e-01,9.99999e-01,9.99999e-01,9.99941e-01,5.00550e-01,9.99999e-01
6.820694522e-01,5.07389e-01,9.99999e-01,9.99999e-01,9.99999e-01,9.99900e-01,5.07439e-01,9.99998e-01
6.854797995e-01,5.14218e-01,9.99999e-01,9.99999e-01,9.99999e-01,9.99872e-01,5.14284e-01,9.99998e-01
6.889071985e-01,5.20921e-01,9.99999e-01,9.99999e-01,9.99999e-01,9.99690e-01,5.21084e-01,9.99996e-01
6.923517345e-01,5.25165e-01,9.99999e-01,9.99999e-01,9.99999e-01,9.94962e-01,5.27836e-01,9.99975e-01
6.958134932e-01,5.33117e-01,9.99999e-01,9.99999e-01,9.99999e-01,9.97390e-01,5.34541e-01,9.99946e-01
6.992925606e-01,5.39822e-01,9.99999e-01,9.99999e-01,9.99999e-01,9.97510e-01,5.41195e-01,9.99951e-01
7.027890234e-01,5.46098e-01,9.99999e-01,9.99999e-01,9.99999e-01,9.96931e-01,5.47798e-01,9.99962e-01
7.063029686e-01,5.52909e-01,9.99999e-01,9.99999e-01,9.99999e-01,9.97420e-01,5.54349e-01,9.99981e-01
7.098344834e-01,5.59453e-01,9.99999e-01,9.99999e-01,9.99999e-01,9.97525e-01,5.60847e-01,9.99988e-01
7.133836558e-01,5.65401e-01,9.99999e-01,9.99999e-01,9.99999e-01,9.96690e-01,5.67290e-01,9.99978e-01
7.169505741e-01,5.58439e-01,9.99999e-01,9.99999e-01,9.99999e-01,9.73599e-01,5.73678e-01,9.99830e-01
7.205353270e-01,5.72337e-01,9.99999e-01,9.99999e-01,9.99999e-01,9.87065e-01,5.80010e-01,9.99701e-01
7.241380036e-01,5.76491e-01,9.99999e-01,9.99999e-01,9.99999e-01,9.83549e-01,5.86284e-01,9.99742e-01
7.277586936e-01,5.83577e-01,9.99999e-01,9.99999e-01,9.99999e-01,9.85146e-01,5.92500e-01,9.99789e-01
7.313974871e-01,5.89171e-01,9.99999e-01,9.99999e-01,9.99999e-01,9.84251e-01,5.98657e-01,9.99900e-01
7.350544745e-01,5.99517e-01,9.99999e-01,9.99999e-01,9.99999e-01,9.91372e-01,6.04755e-01,9.99965e-01
7.387297469e-01,6.06905e-01,9.99999e-01,9.99999e-01,9.99999e-01,9.93650e-01,6.10793e-01,9.99983e-01
7.424233956e-01,6.14851e-01,9.99999e-01,9.99999e-01,9.99999e-01,9.96891e-01,6.16770e-01,9.99996e-01
7.461355126e-01,6.21512e-01,9.99999e-01,9.99999e-01,9.99999e-01,9.98115e-01,6.22685e-01,9.99998e-01
7.498661902e-01,6.27988e-01,9.99999e-01,9.99999e-01,9.99999e-01,9.99122e-01,6.28539e-01,9.99999e-01
7.536155211e-01,6.34058e-01,9.99999e-01,9.99999e-01,9.99999e-01,9.99569e-01,6.34331e-01,9.99999e-01
7.573835987e-01,6.39918e-01,9.99999e-01,9.99999e-01,9.99999e-01,9.99778e-01,6.40060e-01,9.99999e-01
7.611705167e-01,6.45637e-01,9.99999e-01,9.99999e-01,9.99999e-01,9.99861e-01,6.45726e-01,9.99999e-01
7.649763693e-01,6.51272e-01,9.99999e-01,9.99999e-01,9.99999e-01,9.99913e-01,6.51329e-01,9.99999e-01
7.688012511e-01,6.56828e-01,9.99999e-01,9.99999e-01,9.99999e-01,9.99939e-01,6.56868e-01,9.99999e-01
7.726452574e-01,6.62311e-01,9.99999e-01,9.99999e-01,9.99999e-01,9.99950e-01,6.62344e-01,9.99999e-01
7.765084837e-01,6.67708e-01,9.99999e-01,9.99999e-01,9.99999e-01,9.99929e-01,6.67755e-01,9.99999e-01
7.803910261e-01,6.59798e-01,9.99999e-01,9.99999e-01,9.80526e-01,9.99695e-01,6.73103e-01,9.99999e-01
7.842929812e-01,6.23497e-01,9.99999e-01,9.99999e-01,9.20040e-01,9.98936e-01,6.78387e-01,9.99997e-01
7.882144461e-01,6.23625e-01,9.99999e-01,9.99999e-01,9.14224e-01,9.97814e-01,6.83606e-01,9.99984e-01
7.921555184e-01,6.53345e-01,9.99999e-01,9.99999e-01,9.49724e-01,9.98802e-01,6.88762e-01,9.99973e-01
7.961162960e-01,6.68980e-01,9.99999e-01,9.99999e-01,9.66215e-01,9.97878e-01,6.93853e-01,9.99974e-01
8.000968774e-01,6.84289e-01,9.99999e-01,9.99999e-01,9.81543e-01,9.97553e-01,6.98881e-01,9.99973e-01
8.040973618e-01,6.95377e-01,9.99999e-01,9.99999e-01,9.90412e-01,9.97551e-01,7.03844e-01,9.99978e-01
8.081178486e-01,7.01706e-01,9.99999e-01,9.99999e-01,9.95584e-01,9.94475e-01,7.08744e-01,9.99979e-01
8.121584379e-01,6.96254e-01,9.99999e-01,9.99999e-01,9.98637e-01,9.77119e-01,7.13579e-01,9.99922e-01
8.162192301e-01,6.98495e-01,9.99999e-01,9.99999e-01,9.99698e-01,9.72929e-01,7.18352e-01,9.99709e-01
8.203003262e-01,7.12913e-01,9.99999e-01,9.99999e-01,9.99995e-01,9.86303e-01,7.23061e-01,9.99660e-01
8.244018279e-01,7.13665e-01,9.99999e-01,9.99999e-01,9.99999e-01,9.80968e-01,7.27707e-01,9.99729e-01
8.285238370e-01,7.20248e-01,9.99999e-01,9.99999e-01,9.99999e-01,9.83764e-01,7.32290e-01,9.99787e-01
8.326664562e-01,7.24660e-01,9.99999e-01,9.99999e-01,9.99999e-01,9.83595e-01,7.36811e-01,9.99911e-01
8.368297885e-01,7.32568e-01,9.99999e-01,9.99999e-01,9.99999e-01,9.88281e-01,7.41269e-01,9.99979e-01
8.410139374e-01,7.40458e-01,9.99999e-01,9.99999e-01,9.99999e-01,9.93027e-01,7.45666e-01,9.99987e-01
8.452190071e-01,7.47430e-01,9.99999e-01,9.99999e-01,9.99999e-01,9.96578e-01,7.50001e-01,9.99992e-01
8.494451021e-01,7.52772e-01,9.99999e-01,9.99999e-01,9.99999e-01,9.98012e-01,7.54275e-01,9.99993e-01
8.536923276e-01,7.57595e-01,9.99999e-01,9.99999e-01,9.99999e-01,9.98825e-01,7.58488e-01,9.99996e-01
8.579607893e-01,7.62089e-01,9.99999e-01,9.99999e-01,9.99999e-01,9.99275e-01,7.62641e-01,9.99998e-01
8.622505932e-01,7.66381e-01,9.99999e-01,9.99999e-01,9.99999e-01,9.99540e-01,7.66734e-01,9.99999e-01
8.665618462e-01,7.31821e-01,9.99999e-01,9.99999e-01,9.49733e-01,9.99715e-01,7.70767e-01,9.99999e-01
8.708946554e-01,6.24796e-01,9.99999e-01,9.99999e-01,8.06714e-01,9.99673e-01,7.74741e-01,9.99999e-01
8.752491287e-01,6.56042e-01,9.99999e-01,9.99999e-01,8.42891e-01,9.99563e-01,7.78657e-01,9.99999e-01
8.796253743e-01,7.12616e-01,9.99999e-01,9.99999e-01,9.11216e-01,9.99395e-01,7.82514e-01,9.99998e-01
8.840235012e-01,7.48953e-01,9.99999e-01,9.99999e-01,9.53141e-01,9.99309e-01,7.86314e-01,9.99995e-01
8.884436187e-01,7.73335e-01,9.99999e-01,9.99999e-01,9.81314e-01,9.97471e-01,7.90057e-01,9.99987e-01
8.928858368e-01,7.66913e-01,9.99999e-01,9.99999e-01,9.92391e-01,9.73637e-01,7.93743e-01,9.99930e-01
8.973502660e-01,7.58919e-01,9.99999e-01,9.99999e-01,9.98150e-01,9.53853e-01,7.97373e-01,9.99646e-01
9.018370173e-01,7.81301e-01,9.99999e-01,9.99999e-01,9.99795e-01,9.76207e-01,8.00947e-01,9.99445e-01
9.063462024e-01,7.83085e-01,9.99999e-01,9.99999e-01,9.94710e-01,9.78985e-01,8.04466e-01,9.99512e-01
9.108779334e-01,7.71928e-01,9.99999e-01,9.99999e-01,9.88007e-01,9.67444e-01,8.07931e-01,9.99493e-01
9.154323231e-01,7.78941e-01,9.99999e-01,9.99999e-01,9.97180e-01,9.63149e-01,8.11342e-01,9.99581e-01
9.200094847e-01,7.58552e-01,9.99999e-01,9.99999e-01,9.58255e-01,9.71015e-01,8.14699e-01,9.99765e-01
9.246095321e-01,7.36115e-01,9.99999e-01,9.99999e-01,9.42555e-01,9.54396e-01,8.18004e-01,9.99729e-01
9.292325798e-01,5.73670e-01,9.99999e-01,9.99999e-01,9.54383e-01,7.30469e-01,8.21256e-01,9.98947e-01
9.338787427e-01,5.24659e-01,9.99999e-01,9.99999e-01,9.56105e-01,6.66516e-01,8.24457e-01,9.95658e-01
9.385481364e-01,6.77571e-01,9.99999e-01,9.99999e-01,9.67618e-01,8.49551e-01,8.27606e-01,9.94838e-01
9.432408771e-01,6.44525e-01,9.99999e-01,9.99999e-01,9.80091e-01,7.94650e-01,8.30705e-01,9.95545e-01
9.479570815e-01,5.97076e-01,9.99999e-01,9.99999e-01,9.89734e-01,7.25935e-01,8.33754e-01,9.96372e-01
9.526968669e-01,6.55798e-01,9.99999e-01,9.99999e-01,9.95039e-01,7.89180e-01,8.36754e-01,9.97785e-01
9.574603512e-01,6.75553e-01,9.99999e-01,9.99999e-01,9.97877e-01,8.07066e-01,8.39705e-01,9.98874e-01
9.622476530e-01,7.07300e-01,9.99999e-01,9.99999e-01,9.99337e-01,8.40609e-01,8.42607e-01,9.99221e-01
9.670588912e-01,7.64527e-01,9.99999e-01,9.99999e-01,9.99801e-01,9.04926e-01,8.45462e-01,9.99467e-01
9.718941857e-01,7.96819e-01,9.99999e-01,9.99999e-01,9.99985e-01,9.39726e-01,8.48271e-01,9.99607e-01
9.767536566e-01,8.08002e-01,9.99999e-01,9.99999e-01,9.99999e-01,9.49720e-01,8.51032e-01,9.99700e-01
9.816374249e-01,8.21694e-01,9.99999e-01,9.99999e-01,9.99999e-01,9.62554e-01,8.53748e-01,9.99895e-01
9.865456120e-01,8.36240e-01,9.99999e-01,9.99999e-01,9.99999e-01,9.76459e-01,8.56419e-01,9.99977e-01
9.914783401e-01,8.46490e-01,9.99999e-01,9.99999e-01,9.99999e-01,9.85391e-01,8.59045e-01,9.99993e-01
9.964357318e-01,8.54749e-01,9.99999e-01,9.99999e-01,9.99999e-01,9.92020e-01,8.61627e-01,9.99996e-01
1.001417910e+00,8.60023e-01,9.99999e-01,9.99999e-01,9.99999e-01,9.95211e-01,8.64165e-01,9.99994e-01
1.006425000e+00,8.64286e-01,9.99999e-01,9.99999e-01,9.99999e-01,9.97267e-01,8.66661e-01,9.99991e-01
1.011457125e+00,8.67634e-01,9.99999e-01,9.99999e-01,9.99999e-01,9.98304e-01,8.69114e-01,9.99992e-01
1.016514411e+00,8.70518e-01,9.99999e-01,9.99999e-01,9.99999e-01,9.98848e-01,8.71525e-01,9.99994e-01
1.021596983e+00,8.73065e-01,9.99999e-01,9.99999e-01,9.99970e-01,9.99081e-01,8.73896e-01,9.99994e-01
1.026704968e+00,8.73793e-01,9.99999e-01,9.99999e-01,9.97939e-01,9.99283e-01,8.76226e-01,9.99996e-01
1.031838492e+00,8.51967e-01,9.99999e-01,9.99999e-01,9.70274e-01,9.99479e-01,8.78516e-01,9.99998e-01
1.036997685e+00,2.29445e-01,9.99999e-01,9.99999e-01,2.60573e-01,9.99690e-01,8.80766e-01,9.99999e-01
1.042182673e+00,2.65500e-01,9.99999e-01,9.99999e-01,3.00790e-01,9.99630e-01,8.82978e-01,9.99999e-01
1.047393587e+00,2.52640e-01,9.99999e-01,9.99999e-01,2.85546e-01,9.99510e-01,8.85151e-01,9.99999e-01
1.052630555e+00,3.07572e-02,9.99999e-01,9.99999e-01,3.46825e-02,9.99328e-01,8.87286e-01,9.99999e-01
1.057893707e+00,6.06128e-02,9.99999e-01,9.99999e-01,6.82102e-02,9.98879e-01,8.89385e-01,9.99999e-01
1.063183176e+00,1.26505e-01,9.99999e-01,9.99999e-01,1.42118e-01,9.98156e-01,8.91446e-01,9.99998e-01
1.068499092e+00,2.40174e-01,9.99999e-01,9.99999e-01,2.69559e-01,9.96914e-01,8.93472e-01,9.99997e-01
1.073841587e+00,3.90767e-01,9.99999e-01,9.99999e-01,4.37816e-01,9.96386e-01,8.95462e-01,9.99994e-01
