#,Wave/freq,Total,N2,O2,CO2,H2O,Rayleigh,CIA
4.000000000e-01,5.40104e-04,9.99999e-01,9.99999e-01,9.99999e-01,9.99985e-01,5.40112e-04,9.99999e-01
4.020000000e-01,6.26739e-04,9.99999e-01,9.99999e-01,9.99999e-01,9.99990e-01,6.26745e-04,9.99999e-01
4.040100000e-01,7.25027e-04,9.99999e-01,9.99999e-01,9.99999e-01,9.99995e-01,7.25030e-04,9.99999e-01
4.060300500e-01,8.36318e-04,9.99999e-01,9.99999e-01,9.99999e-01,9.99998e-01,8.36319e-04,9.99999e-01
4.080602003e-01,9.61972e-04,9.99999e-01,9.99999e-01,9.99999e-01,9.99999e-01,9.61972e-04,9.99999e-01
4.101005013e-01,1.10345e-03,9.99999e-01,9.99999e-01,9.99999e-01,9.99999e-01,1.10345e-03,9.99999e-01
4.121510038e-01,1.26231e-03,9.99999e-01,9.99999e-01,9.99999e-01,9.99998e-01,1.26231e-03,9.99999e-01
4.142117588e-01,1.44020e-03,9.99999e-01,9.99999e-01,9.99999e-01,9.99995e-01,1.44021e-03,9.99999e-01
4.162828176e-01,1.63887e-03,9.99999e-01,9.99999e-01,9.99999e-01,9.99981e-01,1.63890e-03,9.99999e-01
4.183642317e-01,1.86023e-03,9.99999e-01,9.99999e-01,9.99999e-01,9.99988e-01,1.86025e-03,9.99999e-01
4.204560528e-01,2.10621e-03,9.99999e-01,9.99999e-01,9.99999e-01,9.99992e-01,2.10623e-03,9.99999e-01
4.225583331e-01,2.37887e-03,9.99999e-01,9.99999e-01,9.99999e-01,9.99997e-01,2.37888e-03,9.99999e-01
4.246711247e-01,2.68037e-03,9.99999e-01,9.99999e-01,9.99999e-01,9.99997e-01,2.68037e-03,9.99999e-01
4.267944804e-01,3.01296e-03,9.99999e-01,9.99999e-01,9.99999e-01,9.99996e-01,3.01297e-03,9.99999e-01
4.289284528e-01,3.37902e-03,9.99999e-01,9.99999e-01,9.99999e-01,9.99997e-01,3.37902e-03,9.99999e-01
4.310730950e-01,3.78097e-03,9.99999e-01,9.99999e-01,9.99999e-01,9.99998e-01,3.78097e-03,9.99999e-01
4.332284605e-01,4.22135e-03,9.99999e-01,9.99999e-01,9.99999e-01,9.99999e-01,4.22136e-03,9.99999e-01
4.353946028e-01,4.70278e-03,9.99999e-01,9.99999e-01,9.99999e-01,9.99999e-01,4.70278e-03,9.99999e-01
4.375715758e-01,5.22795e-03,9.99999e-01,9.99999e-01,9.99999e-01,9.99997e-01,5.22796e-03,9.99999e-01
4.397594337e-01,5.79954e-03,9.99999e-01,9.99999e-01,9.99999e-01,9.99983e-01,5.79963e-03,9.99999e-01
4.419582309e-01,6.42013e-03,9.99999e-01,9.99999e-01,9.99999e-01,9.99918e-01,6.42065e-03,9.99999e-01
4.441680220e-01,7.09345e-03,9.99999e-01,9.99999e-01,9.99999e-01,9.99937e-01,7.09389e-03,9.99999e-01
4.463888621e-01,7.82180e-03,9.99999e-01,9.99999e-01,9.99999e-01,9.99934e-01,7.82231e-03,9.99999e-01
4.486208064e-01,8.60854e-03,9.99999e-01,9.99999e-01,9.99999e-01,9.99959e-01,8.60888e-03,9.99999e-01
4.508639105e-01,9.45646e-03,9.99999e-01,9.99999e-01,9.99999e-01,9.99980e-01,9.45664e-03,9.99999e-01
4.531182300e-01,1.03685e-02,9.99999e-01,9.99999e-01,9.99999e-01,9.99992e-01,1.03686e-02,9.99999e-01
4.553838212e-01,1.13478e-02,9.99999e-01,9.99999e-01,9.99999e-01,9.99994e-01,1.13479e-02,9.99999e-01
4.576607403e-01,1.23975e-02,9.99999e-01,9.99999e-01,9.99999e-01,9.99997e-01,1.23975e-02,9.99999e-01
4.599490440e-01,1.35206e-02,9.99999e-01,9.99999e-01,9.99999e-01,9.99997e-01,1.35206e-02,9.99999e-01
4.622487892e-01,1.47202e-02,9.99999e-01,9.99999e-01,9.99999e-01,9.99999e-01,1.47202e-02,9.99999e-01
4.645600332e-01,1.59993e-02,9.99999e-01,9.99999e-01,9.99999e-01,9.99998e-01,1.59994e-02,9.99999e-01
4.668828333e-01,1.73607e-02,9.99999e-01,9.99999e-01,9.99999e-01,9.99980e-01,1.73610e-02,9.99999e-01
4.692172475e-01,1.88075e-02,9.99999e-01,9.99999e-01,9.99999e-01,9.99958e-01,1.88083e-02,9.99999e-01
4.715633337e-01,2.03434e-02,9.99999e-01,9.99999e-01,9.99999e-01,9.99972e-01,2.03439e-02,9.99999e-01
4.739211504e-01,2.19703e-02,9.99999e-01,9.99999e-01,9.99999e-01,9.99974e-01,2.19709e-02,9.99999e-01
4.762907561e-01,2.36916e-02,9.99999e-01,9.99999e-01,9.99999e-01,9.99986e-01,2.36919e-02,9.99999e-01
4.786722099e-01,2.55096e-02,9.99999e-01,9.99999e-01,9.99999e-01,9.99994e-01,2.55097e-02,9.99999e-01
4.810655710e-01,2.74269e-02,9.99999e-01,9.99999e-01,9.99999e-01,9.99997e-01,2.74269e-02,9.99999e-01
4.834708988e-01,2.94456e-02,9.99999e-01,9.99999e-01,9.99999e-01,9.99983e-01,2.94460e-02,9.99999e-01
4.858882533e-01,3.15686e-02,9.99999e-01,9.99999e-01,9.99999e-01,9.99970e-01,3.15695e-02,9.99999e-01
4.883176946e-01,3.37987e-02,9.99999e-01,9.99999e-01,9.99999e-01,9.99975e-01,3.37995e-02,9.99999e-01
4.907592831e-01,3.61376e-02,9.99999e-01,9.99999e-01,9.99999e-01,9.99977e-01,3.61383e-02,9.99999e-01
4.932130795e-01,3.85874e-02,9.99999e-01,9.99999e-01,9.99999e-01,9.99984e-01,3.85880e-02,9.99999e-01
4.956791449e-01,4.11500e-02,9.99999e-01,9.99999e-01,9.99999e-01,9.99991e-01,4.11503e-02,9.99999e-01
4.981575406e-01,4.38253e-02,9.99999e-01,9.99999e-01,9.99999e-01,9.99958e-01,4.38271e-02,9.99999e-01
5.006483283e-01,4.66149e-02,9.99999e-01,9.99999e-01,9.99999e-01,9.99892e-01,4.66199e-02,9.99998e-01
5.031515699e-01,4.95033e-02,9.99999e-01,9.99999e-01,9.99999e-01,9.99460e-01,4.95302e-02,9.99993e-01
5.056673278e-01,5.25441e-02,9.99999e-01,9.99999e-01,9.99999e-01,9.99715e-01,5.25593e-02,9.99993e-01
5.081956644e-01,5.56882e-02,9.99999e-01,9.99999e-01,9.99999e-01,9.99641e-01,5.57084e-02,9.99995e-01
5.107366428e-01,5.89639e-02,9.99999e-01,9.99999e-01,9.99999e-01,9.99757e-01,5.89782e-02,9.99998e-01
5.132903260e-01,6.23611e-02,9.99999e-01,9.99999e-01,9.99999e-01,9.99861e-01,6.23697e-02,9.99999e-01
5.158567776e-01,6.58795e-02,9.99999e-01,9.99999e-01,9.99999e-01,9.99941e-01,6.58833e-02,9.99999e-01
5.184360615e-01,6.95181e-02,9.99999e-01,9.99999e-01,9.99999e-01,9.99976e-01,6.95197e-02,9.99999e-01
5.210282418e-01,7.32783e-02,9.99999e-01,9.99999e-01,9.99999e-01,9.99990e-01,7.32789e-02,9.99999e-01
5.236333830e-01,7.71584e-02,9.99999e-01,9.99999e-01,9.99999e-01,9.99964e-01,7.71611e-02,9.99999e-01
5.262515499e-01,8.11644e-02,9.99999e-01,9.99999e-01,9.99999e-01,9.99977e-01,8.11662e-02,9.99999e-01
5.288828077e-01,8.52921e-02,9.99999e-01,9.99999e-01,9.99999e-01,9.99979e-01,8.52938e-02,9.99999e-01
5.315272217e-01,8.95420e-02,9.99999e-01,9.99999e-01,9.99999e-01,9.99981e-01,8.95436e-02,9.99999e-01
5.341848578e-01,9.39138e-02,9.99999e-01,9.99999e-01,9.99999e-01,9.99987e-01,9.39149e-02,9.99999e-01
5.368557821e-01,9.84029e-02,9.99999e-01,9.99999e-01,9.99999e-01,9.99958e-01,9.84069e-02,9.99999e-01
5.395400610e-01,1.03003e-01,9.99999e-01,9.99999e-01,9.99999e-01,9.99850e-01,1.03019e-01,9.99998e-01
5.422377613e-01,1.07728e-01,9.99999e-01,9.99999e-01,9.99999e-01,9.99809e-01,1.07749e-01,9.99996e-01
5.449489501e-01,1.12576e-01,9.99999e-01,9.99999e-01,9.99999e-01,9.99821e-01,1.12597e-01,9.99995e-01
5.476736949e-01,1.17542e-01,9.99999e-01,9.99999e-01,9.99999e-01,9.99843e-01,1.17560e-01,9.99997e-01
5.504120634e-01,1.22624e-01,9.99999e-01,9.99999e-01,9.99999e-01,9.99885e-01,1.22638e-01,9.99999e-01
5.531641237e-01,1.27821e-01,9.99999e-01,9.99999e-01,9.99999e-01,9.99942e-01,1.27828e-01,9.99999e-01
5.559299443e-01,1.33125e-01,9.99999e-01,9.99999e-01,9.99999e-01,9.99971e-01,1.33129e-01,9.99999e-01
5.587095940e-01,1.38536e-01,9.99999e-01,9.99999e-01,9.99999e-01,9.99982e-01,1.38539e-01,9.99999e-01
5.615031420e-01,1.44052e-01,9.99999e-01,9.99999e-01,9.99999e-01,9.99980e-01,1.44055e-01,9.99999e-01
5.643106577e-01,1.49671e-01,9.99999e-01,9.99999e-01,9.99999e-01,9.99977e-01,1.49675e-01,9.99999e-01
5.671322110e-01,1.55354e-01,9.99999e-01,9.99999e-01,9.99999e-01,9.99729e-01,1.55396e-01,9.99997e-01
5.699678720e-01,1.61171e-01,9.99999e-01,9.99999e-01,9.99999e-01,9.99718e-01,1.61217e-01,9.99992e-01
5.728177114e-01,1.67085e-01,9.99999e-01,9.99999e-01,9.99999e-01,9.99704e-01,1.67135e-01,9.99993e-01
5.756818000e-01,1.73099e-01,9.99999e-01,9.99999e-01,9.99999e-01,9.99729e-01,1.73147e-01,9.99996e-01
5.785602090e-01,1.79207e-01,9.99999e-01,9.99999e-01,9.99999e-01,9.99764e-01,1.79249e-01,9.99998e-01
5.814530100e-01,1.85396e-01,9.99999e-01,9.99999e-01,9.99999e-01,9.99762e-01,1.85440e-01,9.99998e-01
5.843602750e-01,1.91661e-01,9.99999e-01,9.99999e-01,9.99999e-01,9.99715e-01,1.91716e-01,9.99997e-01
5.872820764e-01,1.97586e-01,9.99999e-01,9.99999e-01,9.99999e-01,9.97553e-01,1.98074e-01,9.99982e-01
5.902184868e-01,2.03899e-01,9.99999e-01,9.99999e-01,9.99999e-01,9.97055e-01,2.04511e-01,9.99952e-01
5.931695792e-01,2.10574e-01,9.99999e-01,9.99999e-01,9.99999e-01,9.97914e-01,2.11024e-01,9.99954e-01
5.961354271e-01,2.17107e-01,9.99999e-01,9.99999e-01,9.99999e-01,9.97717e-01,2.17609e-01,9.99973e-01
5.991161043e-01,2.23890e-01,9.99999e-01,9.99999e-01,9.99999e-01,9.98336e-01,2.24264e-01,9.99991e-01
6.021116848e-01,2.30767e-01,9.99999e-01,9.99999e-01,9.99999e-01,9.99056e-01,2.30985e-01,9.99998e-01
6.051222432e-01,2.37656e-01,9.99999e-01,9.99999e-01,9.99999e-01,9.99522e-01,2.37769e-01,9.99999e-01
6.081478544e-01,2.44562e-01,9.99999e-01,9.99999e-01,9.99999e-01,9.99793e-01,2.44612e-01,9.99999e-01
6.111885937e-01,2.51489e-01,9.99999e-01,9.99999e-01,9.99999e-01,9.99912e-01,2.51511e-01,9.99999e-01
6.142445367e-01,2.58452e-01,9.99999e-01,9.99999e-01,9.99999e-01,9.99960e-01,2.58462e-01,9.99999e-01
6.173157594e-01,2.65457e-01,9.99999e-01,9.99999e-01,9.99999e-01,9.99978e-01,2.65463e-01,9.99999e-01
6.204023382e-01,2.72504e-01,9.99999e-01,9.99999e-01,9.99999e-01,9.99981e-01,2.72509e-01,9.99999e-01
6.235043498e-01,2.79575e-01,9.99999e-01,9.99999e-01,9.99999e-01,9.99918e-01,2.79598e-01,9.99999e-01
6.266218716e-01,2.86603e-01,9.99999e-01,9.99999e-01,9.99999e-01,9.99575e-01,2.86725e-01,9.99996e-01
6.297549810e-01,2.93841e-01,9.99999e-01,9.99999e-01,9.99999e-01,9.99843e-01,2.93888e-01,9.99993e-01
6.329037559e-01,3.00990e-01,9.99999e-01,9.99999e-01,9.99999e-01,9.99692e-01,3.01084e-01,9.99994e-01
6.360682746e-01,3.08226e-01,9.99999e-01,9.99999e-01,9.99999e-01,9.99737e-01,3.08308e-01,9.99996e-01
6.392486160e-01,3.15450e-01,9.99999e-01,9.99999e-01,9.99999e-01,9.99660e-01,3.15557e-01,9.99998e-01
6.424448591e-01,3.22681e-01,9.99999e-01,9.99999e-01,9.99999e-01,9.99542e-01,3.22829e-01,9.99997e-01
6.456570834e-01,3.29416e-01,9.99999e-01,9.99999e-01,9.99999e-01,9.97879e-01,3.30120e-01,9.99986e-01
6.488853688e-01,3.36895e-01,9.99999e-01,9.99999e-01,9.99999e-01,9.98458e-01,3.37426e-01,9.99966e-01
6.521297956e-01,3.44195e-01,9.99999e-01,9.99999e-01,9.99999e-01,9.98428e-01,3.44746e-01,9.99972e-01
6.553904446e-01,3.51515e-01,9.99999e-01,9.99999e-01,9.99999e-01,9.98431e-01,3.52074e-01,9.99979e-01
6.586673968e-01,3.58926e-01,9.99999e-01,9.99999e-01,9.99999e-01,9.98660e-01,3.59409e-01,9.99992e-01
6.619607338e-01,3.66474e-01,9.99999e-01,9.99999e-01,9.99999e-01,9.99253e-01,3.66748e-01,9.99998e-01
6.652705375e-01,3.73919e-01,9.99999e-01,9.99999e-01,9.99999e-01,9.99551e-01,3.74087e-01,9.99998e-01
6.685968902e-01,3.81351e-01,9.99999e-01,9.99999e-01,9.99999e-01,9.99809e-01,3.81423e-01,9.99999e-01
6.719398746e-01,3.88717e-01,9.99999e-01,9.99999e-01,9.99999e-01,9.99903e-01,3.88754e-01,9.99999e-01
6.752995740e-01,3.96057e-01,9.99999e-01,9.99999e-01,9.99999e-01,9.99948e-01,3.96078e-01,9.99999e-01
6.786760719e-01,4.03359e-01,9.99999e-01,9.99999e-01,9.99999e-01,9.99923e-01,4.03390e-01,9.99999e-01
6.820694522e-01,4.10635e-01,9.99999e-01,9.99999e-01,9.99999e-01,9.99870e-01,4.10689e-01,9.99998e-01
6.854797995e-01,4.17901e-01,9.99999e-01,9.99999e-01,9.99999e-01,9.99832e-01,4.17972e-01,9.99998e-01
6.889071985e-01,4.25061e-01,9.99999e-01,9.99999e-01,9.99999e-01,9.99590e-01,4.25236e-01,9.99995e-01
6.923517345e-01,4.29603e-01,9.99999e-01,9.99999e-01,9.99999e-01,9.93377e-01,4.32480e-01,9.99967e-01
6.958134932e-01,4.38174e-01,9.99999e-01,9.99999e-01,9.99999e-01,9.96599e-01,4.39700e-01,9.99929e-01
6.992925606e-01,4.45403e-01,9.99999e-01,9.99999e-01,9.99999e-01,9.96726e-01,4.46894e-01,9.99936e-01
7.027890234e-01,4.52214e-01,9.99999e-01,9.99999e-01,9.99999e-01,9.95980e-01,4.54061e-01,9.99951e-01
7.063029686e-01,4.59627e-01,9.99999e-01,9.99999e-01,9.99999e-01,9.96618e-01,4.61198e-01,9.99975e-01
7.098344834e-01,4.66776e-01,9.99999e-01,9.99999e-01,9.99999e-01,9.96755e-01,4.68302e-01,9.99985e-01
7.133836558e-01,4.73287e-01,9.99999e-01,9.99999e-01,9.99999e-01,9.95639e-01,4.75372e-01,9.99971e-01
7.169505741e-01,4.65645e-01,9.99999e-01,9.99999e-01,9.99999e-01,9.65466e-01,4.82407e-01,9.99777e-01
7.205353270e-01,4.80984e-01,9.99999e-01,9.99999e-01,9.99999e-01,9.83179e-01,4.89403e-01,9.99608e-01
7.241380036e-01,4.85506e-01,9.99999e-01,9.99999e-01,9.99999e-01,9.78462e-01,4.96360e-01,9.99661e-01
7.277586936e-01,4.93354e-01,9.99999e-01,9.99999e-01,9.99999e-01,9.80556e-01,5.03275e-01,9.99723e-01
7.313974871e-01,4.99595e-01,9.99999e-01,9.99999e-01,9.99999e-01,9.79442e-01,5.10147e-01,9.99870e-01
7.350544745e-01,5.11118e-01,9.99999e-01,9.99999e-01,9.99999e-01,9.88714e-01,5.16975e-01,9.99954e-01
7.387297469e-01,5.19394e-01,9.99999e-01,9.99999e-01,9.99999e-01,9.91692e-01,5.23756e-01,9.99978e-01
7.424233956e-01,5.28332e-01,9.99999e-01,9.99999e-01,9.99999e-01,9.95935e-01,5.30489e-01,9.99995e-01
7.461355126e-01,5.35849e-01,9.99999e-01,9.99999e-01,9.99999e-01,9.97533e-01,5.37174e-01,9.99998e-01
7.498661902e-01,5.43185e-01,9.99999e-01,9.99999e-01,9.99999e-01,9.98853e-01,5.43808e-01,9.99999e-01
7.536155211e-01,5.50081e-01,9.99999e-01,9.99999e-01,9.99999e-01,9.99436e-01,5.50391e-01,9.99999e-01
7.573835987e-01,5.56760e-01,9.99999e-01,9.99999e-01,9.99999e-01,9.99709e-01,5.56921e-01,9.99999e-01
7.611705167e-01,5.63296e-01,9.99999e-01,9.99999e-01,9.99999e-01,9.99819e-01,5.63398e-01,9.99999e-01
7.649763693e-01,5.69755e-01,9.99999e-01,9.99999e-01,9.99999e-01,9.99886e-01,5.69819e-01,9.99999e-01
7.688012511e-01,5.76140e-01,9.99999e-01,9.99999e-01,9.99999e-01,9.99920e-01,5.76185e-01,9.99999e-01
7.726452574e-01,5.82456e-01,9.99999e-01,9.99999e-01,9.99999e-01,9.99934e-01,5.82494e-01,9.99999e-01
7.765084837e-01,5.88691e-01,9.99999e-01,9.99999e-01,9.99999e-01,9.99906e-01,5.88745e-01,9.99999e-01
7.803910261e-01,5.79527e-01,9.99999e-01,9.99999e-01,9.74476e-01,9.99598e-01,5.94938e-01,9.99999e-01
7.842929812e-01,5.38569e-01,9.99999e-01,9.99999e-01,8.97226e-01,9.98600e-01,6.01072e-01,9.99996e-01
7.882144461e-01,5.38636e-01,9.99999e-01,9.99999e-01,8.89653e-01,9.97134e-01,6.07146e-01,9.99979e-01
7.921555184e-01,5.72165e-01,9.99999e-01,9.99999e-01,9.34611e-01,9.98433e-01,6.13160e-01,9.99965e-01
7.961162960e-01,5.90244e-01,9.99999e-01,9.99999e-01,9.56050e-01,9.97210e-01,6.19113e-01,9.99967e-01
8.000968774e-01,6.07973e-01,9.99999e-01,9.99999e-01,9.75907e-01,9.96791e-01,6.25004e-01,9.99964e-01
8.040973618e-01,6.20926e-01,9.99999e-01,9.99999e-01,9.87487e-01,9.96787e-01,6.30833e-01,9.99973e-01
8.081178486e-01,6.28312e-01,9.99999e-01,9.99999e-01,9.94222e-01,9.92734e-01,6.36600e-01,9.99972e-01
8.121584379e-01,6.21896e-01,9.99999e-01,9.99999e-01,9.98224e-01,9.70033e-01,6.42305e-01,9.99898e-01
8.162192301e-01,6.24614e-01,9.99999e-01,9.99999e-01,9.99607e-01,9.64730e-01,6.47946e-01,9.99619e-01
8.203003262e-01,6.41472e-01,9.99999e-01,9.99999e-01,9.99994e-01,9.82001e-01,6.53523e-01,9.99554e-01
8.244018279e-01,6.42540e-01,9.99999e-01,9.99999e-01,9.99999e-01,9.75312e-01,6.59038e-01,9.99645e-01
8.285238370e-01,6.50183e-01,9.99999e-01,9.99999e-01,9.99999e-01,9.78743e-01,6.64488e-01,9.99721e-01
8.326664562e-01,6.55441e-01,9.99999e-01,9.99999e-01,9.99999e-01,9.78565e-01,6.69874e-01,9.99884e-01
8.368297885e-01,6.64838e-01,9.99999e-01,9.99999e-01,9.99999e-01,9.84683e-01,6.75197e-01,9.99973e-01
8.410139374e-01,6.74240e-01,9.99999e-01,9.99999e-01,9.99999e-01,9.90880e-01,6.80455e-01,9.99984e-01
8.452190071e-01,6.82575e-01,9.99999e-01,9.99999e-01,9.99999e-01,9.95524e-01,6.85650e-01,9.99990e-01
8.494451021e-01,6.88976e-01,9.99999e-01,9.99999e-01,9.99999e-01,9.97395e-01,6.90780e-01,9.99992e-01
8.536923276e-01,6.94773e-01,9.99999e-01,9.99999e-01,9.99999e-01,9.98462e-01,6.95846e-01,9.99995e-01
8.579607893e-01,7.00183e-01,9.99999e-01,9.99999e-01,9.99999e-01,9.99051e-01,7.00848e-01,9.99998e-01
8.622505932e-01,7.05362e-01,9.99999e-01,9.99999e-01,9.99999e-01,9.99398e-01,7.05786e-01,9.99999e-01
8.665618462e-01,6.66597e-01,9.99999e-01,9.99999e-01,9.38333e-01,9.99626e-01,7.10661e-01,9.99999e-01
8.708946554e-01,5.41239e-01,9.99999e-01,9.99999e-01,7.56793e-01,9.99571e-01,7.15471e-01,9.99999e-01
8.752491287e-01,5.76303e-01,9.99999e-01,9.99999e-01,8.00625e-01,9.99427e-01,7.20219e-01,9.99998e-01
8.796253743e-01,6.41564e-01,9.99999e-01,9.99999e-01,8.85724e-01,9.99205e-01,7.24903e-01,9.99997e-01
8.840235012e-01,6.84538e-01,9.99999e-01,9.99999e-01,9.39181e-01,9.99093e-01,7.29524e-01,9.99994e-01
8.884436187e-01,7.13842e-01,9.99999e-01,9.99999e-01,9.75684e-01,9.96653e-01,7.34083e-01,9.99983e-01
8.928858368e-01,7.05975e-01,9.99999e-01,9.99999e-01,9.90066e-01,9.65473e-01,7.38579e-01,9.99909e-01
8.973502660e-01,6.96468e-01,9.99999e-01,9.99999e-01,9.97589e-01,9.40022e-01,7.43013e-01,9.99536e-01
9.018370173e-01,7.23552e-01,9.99999e-01,9.99999e-01,9.99734e-01,9.69067e-01,7.47385e-01,9.99272e-01
9.063462024e-01,7.25549e-01,9.99999e-01,9.99999e-01,9.93020e-01,9.72469e-01,7.51696e-01,9.99360e-01
9.108779334e-01,7.12127e-01,9.99999e-01,9.99999e-01,9.84335e-01,9.57528e-01,7.55946e-01,9.99335e-01
9.154323231e-01,7.20629e-01,9.99999e-01,9.99999e-01,9.96329e-01,9.51987e-01,7.60135e-01,9.99450e-01
9.200094847e-01,6.96459e-01,9.99999e-01,9.99999e-01,9.45927e-01,9.62240e-01,7.64264e-01,9.99692e-01
9.246095321e-01,6.69171e-01,9.99999e-01,9.99999e-01,9.25504e-01,9.40383e-01,7.68333e-01,9.99645e-01
9.292325798e-01,4.83966e-01,9.99999e-01,9.99999e-01,9.40553e-01,6.64020e-01,7.72343e-01,9.98291e-01
9.338787427e-01,4.32063e-01,9.99999e-01,9.99999e-01,9.42979e-01,5.91045e-01,7.76294e-01,9.93839e-01
9.385481364e-01,6.01858e-01,9.99999e-01,9.99999e-01,9.57814e-01,8.09387e-01,7.80187e-01,9.93233e-01
9.432408771e-01,5.64227e-01,9.99999e-01,9.99999e-01,9.74030e-01,7.42366e-01,7.84021e-01,9.94159e-01
9.479570815e-01,5.12204e-01,9.99999e-01,9.99999e-01,9.86575e-01,6.61783e-01,7.87799e-01,9.95244e-01
9.526968669e-01,5.77729e-01,9.99999e-01,9.99999e-01,9.93514e-01,7.36477e-01,7.91519e-01,9.97096e-01
9.574603512e-01,5.98859e-01,9.99999e-01,9.99999e-01,9.97224e-01,7.56218e-01,7.95183e-01,9.98523e-01
9.622476530e-01,6.35742e-01,9.99999e-01,9.99999e-01,9.99134e-01,7.97354e-01,7.98791e-01,9.98978e-01
9.670588912e-01,7.03506e-01,9.99999e-01,9.99999e-01,9.99740e-01,8.77645e-01,8.02343e-01,9.99301e-01
9.718941857e-01,7.42424e-01,9.99999e-01,9.99999e-01,9.99981e-01,9.21792e-01,8.05841e-01,9.99485e-01
9.767536566e-01,7.56090e-01,9.99999e-01,9.99999e-01,9.99999e-01,9.34636e-01,8.09284e-01,9.99606e-01
9.816374249e-01,7.72956e-01,9.99999e-01,9.99999e-01,9.99999e-01,9.51256e-01,8.12674e-01,9.99863e-01
9.865456120e-01,7.90925e-01,9.99999e-01,9.99999e-01,9.99999e-01,9.69285e-01,8.16010e-01,9.99971e-01
9.914783401e-01,8.03643e-01,9.99999e-01,9.99999e-01,9.99999e-01,9.80904e-01,8.19294e-01,9.99991e-01
9.964357318e-01,8.13935e-01,9.99999e-01,9.99999e-01,9.99999e-01,9.89560e-01,8.22526e-01,9.99994e-01
1.001417910e+00,8.20526e-01,9.99999e-01,9.99999e-01,9.99999e-01,9.93732e-01,8.25706e-01,9.99992e-01
1.006425000e+00,8.25860e-01,9.99999e-01,9.99999e-01,9.99999e-01,9.96418e-01,8.28836e-01,9.99989e-01
1.011457125e+00,8.30061e-01,9.99999e-01,9.99999e-01,9.99999e-01,9.97779e-01,8.31915e-01,9.99990e-01
1.016514411e+00,8.33679e-01,9.99999e-01,9.99999e-01,9.99999e-01,9.98490e-01,8.34944e-01,9.99992e-01
1.021596983e+00,8.36878e-01,9.99999e-01,9.99999e-01,9.99959e-01,9.98796e-01,8.37925e-01,9.99993e-01
1.026704968e+00,8.37773e-01,9.99999e-01,9.99999e-01,9.97271e-01,9.99061e-01,8.40857e-01,9.99995e-01
1.031838492e+00,8.11882e-01,9.99999e-01,9.99999e-01,9.62880e-01,9.99318e-01,8.43740e-01,9.99998e-01
1.036997685e+00,1.73979e-01,9.99999e-01,9.99999e-01,2.05577e-01,9.99594e-01,8.46577e-01,9.99999e-01
1.042182673e+00,1.80374e-01,9.99999e-01,9.99999e-01,2.12457e-01,9.99515e-01,8.49367e-01,9.99999e-01
1.047393587e+00,1.84227e-01,9.99999e-01,9.99999e-01,2.16325e-01,9.99358e-01,8.52110e-01,9.99999e-01
1.052630555e+00,1.27176e-02,9.99999e-01,9.99999e-01,1.48877e-02,9.99118e-01,8.54808e-01,9.99999e-01
1.057893707e+00,2.80958e-02,9.99999e-01,9.99999e-01,3.28014e-02,9.98527e-01,8.57461e-01,9.99998e-01
1.063183176e+00,7.04139e-02,9.99999e-01,9.99999e-01,8.20212e-02,9.97579e-01,8.60069e-01,9.99998e-01
1.068499092e+00,1.55910e-01,9.99999e-01,9.99999e-01,1.81380e-01,9.95952e-01,8.62634e-01,9.99996e-01
1.073841587e+00,2.94102e-01,9.99999e-01,9.99999e-01,3.41373e-01,9.95256e-01,8.65155e-01,9.99993e-01
