#,Wave/freq,Total,N2,O2,CO2,H2O,Rayleigh,CIA
4.000000000e-01,2.11917e-04,9.99999e-01,9.99999e-01,9.99999e-01,9.99983e-01,2.11920e-04,9.99999e-01
4.020000000e-01,2.50500e-04,9.99999e-01,9.99999e-01,9.99999e-01,9.99989e-01,2.50503e-04,9.99999e-01
4.040100000e-01,2.95082e-04,9.99999e-01,9.99999e-01,9.99999e-01,9.99995e-01,2.95083e-04,9.99999e-01
4.060300500e-01,3.46475e-04,9.99999e-01,9.99999e-01,9.99999e-01,9.99998e-01,3.46475e-04,9.99999e-01
4.080602003e-01,4.05529e-04,9.99999e-01,9.99999e-01,9.99999e-01,9.99999e-01,4.05529e-04,9.99999e-01
4.101005013e-01,4.73175e-04,9.99999e-01,9.99999e-01,9.99999e-01,9.99999e-01,4.73175e-04,9.99999e-01
4.121510038e-01,5.50425e-04,9.99999e-01,9.99999e-01,9.99999e-01,9.99998e-01,5.50426e-04,9.99999e-01
4.142117588e-01,6.38375e-04,9.99999e-01,9.99999e-01,9.99999e-01,9.99994e-01,6.38378e-04,9.99999e-01
4.162828176e-01,7.38205e-04,9.99999e-01,9.99999e-01,9.99999e-01,9.99979e-01,7.38220e-04,9.99999e-01
4.183642317e-01,8.51219e-04,9.99999e-01,9.99999e-01,9.99999e-01,9.99987e-01,8.51229e-04,9.99999e-01
4.204560528e-01,9.78774e-04,9.99999e-01,9.99999e-01,9.99999e-01,9.99992e-01,9.78782e-04,9.99999e-01
4.225583331e-01,1.12234e-03,9.99999e-01,9.99999e-01,9.99999e-01,9.99996e-01,1.12235e-03,9.99999e-01
4.246711247e-01,1.28349e-03,9.99999e-01,9.99999e-01,9.99999e-01,9.99997e-01,1.28350e-03,9.99999e-01
4.267944804e-01,1.46389e-03,9.99999e-01,9.99999e-01,9.99999e-01,9.99996e-01,1.46390e-03,9.99999e-01
4.289284528e-01,1.66532e-03,9.99999e-01,9.99999e-01,9.99999e-01,9.99997e-01,1.66533e-03,9.99999e-01
4.310730950e-01,1.88965e-03,9.99999e-01,9.99999e-01,9.99999e-01,9.99998e-01,1.88965e-03,9.99999e-01
4.332284605e-01,2.13885e-03,9.99999e-01,9.99999e-01,9.99999e-01,9.99999e-01,2.13885e-03,9.99999e-01
4.353946028e-01,2.41499e-03,9.99999e-01,9.99999e-01,9.99999e-01,9.99999e-01,2.41499e-03,9.99999e-01
4.375715758e-01,2.72025e-03,9.99999e-01,9.99999e-01,9.99999e-01,9.99997e-01,2.72025e-03,9.99999e-01
4.397594337e-01,3.05685e-03,9.99999e-01,9.99999e-01,9.99999e-01,9.99981e-01,3.05690e-03,9.99999e-01
4.419582309e-01,3.42700e-03,9.99999e-01,9.99999e-01,9.99999e-01,9.99908e-01,3.42731e-03,9.99999e-01
4.441680220e-01,3.83367e-03,9.99999e-01,9.99999e-01,9.99999e-01,9.99929e-01,3.83393e-03,9.99999e-01
4.463888621e-01,4.27900e-03,9.99999e-01,9.99999e-01,9.99999e-01,9.99926e-01,4.27931e-03,9.99999e-01
4.486208064e-01,4.76585e-03,9.99999e-01,9.99999e-01,9.99999e-01,9.99954e-01,4.76606e-03,9.99999e-01
4.508639105e-01,5.29679e-03,9.99999e-01,9.99999e-01,9.99999e-01,9.99978e-01,5.29690e-03,9.99999e-01
4.531182300e-01,5.87455e-03,9.99999e-01,9.99999e-01,9.99999e-01,9.99991e-01,5.87460e-03,9.99999e-01
4.553838212e-01,6.50195e-03,9.99999e-01,9.99999e-01,9.99999e-01,9.99993e-01,6.50199e-03,9.99999e-01
4.576607403e-01,7.18196e-03,9.99999e-01,9.99999e-01,9.99999e-01,9.99996e-01,7.18198e-03,9.99999e-01
4.599490440e-01,7.91749e-03,9.99999e-01,9.99999e-01,9.99999e-01,9.99997e-01,7.91751e-03,9.99999e-01
4.622487892e-01,8.71157e-03,9.99999e-01,9.99999e-01,9.99999e-01,9.99999e-01,8.71157e-03,9.99999e-01
4.645600332e-01,9.56718e-03,9.99999e-01,9.99999e-01,9.99999e-01,9.99998e-01,9.56720e-03,9.99999e-01
4.668828333e-01,1.04872e-02,9.99999e-01,9.99999e-01,9.99999e-01,9.99977e-01,1.04874e-02,9.99999e-01
4.692172475e-01,1.14748e-02,9.99999e-01,9.99999e-01,9.99999e-01,9.99953e-01,1.14753e-02,9.99999e-01
4.715633337e-01,1.25336e-02,9.99999e-01,9.99999e-01,9.99999e-01,9.99969e-01,1.25340e-02,9.99999e-01
4.739211504e-01,1.36661e-02,9.99999e-01,9.99999e-01,9.99999e-01,9.99970e-01,1.36665e-02,9.99999e-01
4.762907561e-01,1.48757e-02,9.99999e-01,9.99999e-01,9.99999e-01,9.99984e-01,1.48759e-02,9.99999e-01
4.786722099e-01,1.61651e-02,9.99999e-01,9.99999e-01,9.99999e-01,9.99993e-01,1.61652e-02,9.99999e-01
4.810655710e-01,1.75374e-02,9.99999e-01,9.99999e-01,9.99999e-01,9.99997e-01,1.75374e-02,9.99999e-01
4.834708988e-01,1.89952e-02,9.99999e-01,9.99999e-01,9.99999e-01,9.99981e-01,1.89956e-02,9.99999e-01
4.858882533e-01,2.05418e-02,9.99999e-01,9.99999e-01,9.99999e-01,9.99967e-01,2.05425e-02,9.99999e-01
4.883176946e-01,2.21805e-02,9.99999e-01,9.99999e-01,9.99999e-01,9.99972e-01,2.21811e-02,9.99999e-01
4.907592831e-01,2.39135e-02,9.99999e-01,9.99999e-01,9.99999e-01,9.99975e-01,2.39141e-02,9.99999e-01
4.932130795e-01,2.57437e-02,9.99999e-01,9.99999e-01,9.99999e-01,9.99982e-01,2.57442e-02,9.99999e-01
4.956791449e-01,2.76737e-02,9.99999e-01,9.99999e-01,9.99999e-01,9.99990e-01,2.76740e-02,9.99999e-01
4.981575406e-01,2.97047e-02,9.99999e-01,9.99999e-01,9.99999e-01,9.99953e-01,2.97060e-02,9.99999e-01
5.006483283e-01,3.18388e-02,9.99999e-01,9.99999e-01,9.99999e-01,9.99879e-01,3.18427e-02,9.99998e-01
5.031515699e-01,3.40654e-02,9.99999e-01,9.99999e-01,9.99999e-01,9.99393e-01,3.40862e-02,9.99993e-01
5.056673278e-01,3.64269e-02,9.99999e-01,9.99999e-01,9.99999e-01,9.99680e-01,3.64388e-02,9.99992e-01
5.081956644e-01,3.88866e-02,9.99999e-01,9.99999e-01,9.99999e-01,9.99597e-01,3.89024e-02,9.99995e-01
5.107366428e-01,4.14677e-02,9.99999e-01,9.99999e-01,9.99999e-01,9.99728e-01,4.14790e-02,9.99998e-01
5.132903260e-01,4.41634e-02,9.99999e-01,9.99999e-01,9.99999e-01,9.99844e-01,4.41702e-02,9.99999e-01
5.158567776e-01,4.69746e-02,9.99999e-01,9.99999e-01,9.99999e-01,9.99934e-01,4.69777e-02,9.99999e-01
5.184360615e-01,4.99015e-02,9.99999e-01,9.99999e-01,9.99999e-01,9.99973e-01,4.99028e-02,9.99999e-01
5.210282418e-01,5.29464e-02,9.99999e-01,9.99999e-01,9.99999e-01,9.99989e-01,5.29469e-02,9.99999e-01
5.236333830e-01,5.61087e-02,9.99999e-01,9.99999e-01,9.99999e-01,9.99960e-01,5.61110e-02,9.99999e-01
5.262515499e-01,5.93945e-02,9.99999e-01,9.99999e-01,9.99999e-01,9.99974e-01,5.93960e-02,9.99999e-01
5.288828077e-01,6.28013e-02,9.99999e-01,9.99999e-01,9.99999e-01,9.99976e-01,6.28027e-02,9.99999e-01
5.315272217e-01,6.63304e-02,9.99999e-01,9.99999e-01,9.99999e-01,9.99979e-01,6.63317e-02,9.99999e-01
5.341848578e-01,6.99825e-02,9.99999e-01,9.99999e-01,9.99999e-01,9.99986e-01,6.99834e-02,9.99999e-01
5.368557821e-01,7.37546e-02,9.99999e-01,9.99999e-01,9.99999e-01,9.99953e-01,7.37581e-02,9.99999e-01
5.395400610e-01,7.76425e-02,9.99999e-01,9.99999e-01,9.99999e-01,9.99832e-01,7.76556e-02,9.99997e-01
5.422377613e-01,8.16583e-02,9.99999e-01,9.99999e-01,9.99999e-01,9.99785e-01,8.16761e-02,9.99995e-01
5.449489501e-01,8.58015e-02,9.99999e-01,9.99999e-01,9.99999e-01,9.99799e-01,8.58190e-02,9.99995e-01
5.476736949e-01,9.00681e-02,9.99999e-01,9.99999e-01,9.99999e-01,9.99823e-01,9.00841e-02,9.99997e-01
5.504120634e-01,9.44584e-02,9.99999e-01,9.99999e-01,9.99999e-01,9.99871e-01,9.44705e-02,9.99998e-01
5.531641237e-01,9.89712e-02,9.99999e-01,9.99999e-01,9.99999e-01,9.99935e-01,9.89776e-02,9.99999e-01
5.559299443e-01,1.03601e-01,9.99999e-01,9.99999e-01,9.99999e-01,9.99968e-01,1.03604e-01,9.99999e-01
5.587095940e-01,1.08347e-01,9.99999e-01,9.99999e-01,9.99999e-01,9.99980e-01,1.08349e-01,9.99999e-01
5.615031420e-01,1.13209e-01,9.99999e-01,9.99999e-01,9.99999e-01,9.99977e-01,1.13212e-01,9.99999e-01
5.643106577e-01,1.18186e-01,9.99999e-01,9.99999e-01,9.99999e-01,9.99974e-01,1.18189e-01,9.99999e-01
5.671322110e-01,1.23244e-01,9.99999e-01,9.99999e-01,9.99999e-01,9.99695e-01,1.23281e-01,9.99996e-01
5.699678720e-01,1.28444e-01,9.99999e-01,9.99999e-01,9.99999e-01,9.99683e-01,1.28486e-01,9.99991e-01
5.728177114e-01,1.33755e-01,9.99999e-01,9.99999e-01,9.99999e-01,9.99667e-01,1.33800e-01,9.99992e-01
5.756818000e-01,1.39180e-01,9.99999e-01,9.99999e-01,9.99999e-01,9.99695e-01,1.39223e-01,9.99995e-01
5.785602090e-01,1.44714e-01,9.99999e-01,9.99999e-01,9.99999e-01,9.99734e-01,1.44752e-01,9.99998e-01
5.814530100e-01,1.50345e-01,9.99999e-01,9.99999e-01,9.99999e-01,9.99733e-01,1.50385e-01,9.99998e-01
5.843602750e-01,1.56069e-01,9.99999e-01,9.99999e-01,9.99999e-01,9.99679e-01,1.56120e-01,9.99997e-01
5.872820764e-01,1.61504e-01,9.99999e-01,9.99999e-01,9.99999e-01,9.97246e-01,1.61953e-01,9.99980e-01
5.902184868e-01,1.67318e-01,9.99999e-01,9.99999e-01,9.99999e-01,9.96690e-01,1.67882e-01,9.99947e-01
5.931695792e-01,1.73489e-01,9.99999e-01,9.99999e-01,9.99999e-01,9.97655e-01,1.73905e-01,9.99949e-01
5.961354271e-01,1.79552e-01,9.99999e-01,9.99999e-01,9.99999e-01,9.97435e-01,1.80019e-01,9.99970e-01
5.991161043e-01,1.85871e-01,9.99999e-01,9.99999e-01,9.99999e-01,9.98131e-01,1.86221e-01,9.99990e-01
6.021116848e-01,1.92303e-01,9.99999e-01,9.99999e-01,9.99999e-01,9.98940e-01,1.92507e-01,9.99998e-01
6.051222432e-01,1.98769e-01,9.99999e-01,9.99999e-01,9.99999e-01,9.99463e-01,1.98875e-01,9.99999e-01
6.081478544e-01,2.05275e-01,9.99999e-01,9.99999e-01,9.99999e-01,9.99768e-01,2.05322e-01,9.99999e-01
6.111885937e-01,2.11824e-01,9.99999e-01,9.99999e-01,9.99999e-01,9.99901e-01,2.11844e-01,9.99999e-01
6.142445367e-01,2.18429e-01,9.99999e-01,9.99999e-01,9.99999e-01,9.99955e-01,2.18439e-01,9.99999e-01
6.173157594e-01,2.25097e-01,9.99999e-01,9.99999e-01,9.99999e-01,9.99975e-01,2.25102e-01,9.99999e-01
6.204023382e-01,2.31826e-01,9.99999e-01,9.99999e-01,9.99999e-01,9.99979e-01,2.31831e-01,9.99999e-01
6.235043498e-01,2.38600e-01,9.99999e-01,9.99999e-01,9.99999e-01,9.99908e-01,2.38622e-01,9.99999e-01
6.266218716e-01,2.45354e-01,9.99999e-01,9.99999e-01,9.99999e-01,9.99522e-01,2.45472e-01,9.99996e-01
6.297549810e-01,2.52332e-01,9.99999e-01,9.99999e-01,9.99999e-01,9.99824e-01,2.52378e-01,9.99992e-01
6.329037559e-01,2.59245e-01,9.99999e-01,9.99999e-01,9.99999e-01,9.99654e-01,2.59336e-01,9.99994e-01
6.360682746e-01,2.66263e-01,9.99999e-01,9.99999e-01,9.99999e-01,9.99704e-01,2.66342e-01,9.99996e-01
6.392486160e-01,2.73289e-01,9.99999e-01,9.99999e-01,9.99999e-01,9.99618e-01,2.73394e-01,9.99998e-01
6.424448591e-01,2.80343e-01,9.99999e-01,9.99999e-01,9.99999e-01,9.99485e-01,2.80488e-01,9.99996e-01
6.456570834e-01,2.86929e-01,9.99999e-01,9.99999e-01,9.99999e-01,9.97612e-01,2.87620e-01,9.99985e-01
6.488853688e-01,2.94266e-01,9.99999e-01,9.99999e-01,9.99999e-01,9.98268e-01,2.94787e-01,9.99962e-01
6.521297956e-01,3.01444e-01,9.99999e-01,9.99999e-01,9.99999e-01,9.98234e-01,3.01986e-01,9.99969e-01
6.553904446e-01,3.08661e-01,9.99999e-01,9.99999e-01,9.99999e-01,9.98236e-01,3.09214e-01,9.99976e-01
6.586673968e-01,3.15988e-01,9.99999e-01,9.99999e-01,9.99999e-01,9.98494e-01,3.16466e-01,9.99991e-01
6.619607338e-01,3.23469e-01,9.99999e-01,9.99999e-01,9.99999e-01,9.99161e-01,3.23741e-01,9.99997e-01
6.652705375e-01,3.30867e-01,9.99999e-01,9.99999e-01,9.99999e-01,9.99496e-01,3.31033e-01,9.99998e-01
6.685968902e-01,3.38269e-01,9.99999e-01,9.99999e-01,9.99999e-01,9.99785e-01,3.38342e-01,9.99999e-01
6.719398746e-01,3.45625e-01,9.99999e-01,9.99999e-01,9.99999e-01,9.99891e-01,3.45662e-01,9.99999e-01
6.752995740e-01,3.52972e-01,9.99999e-01,9.99999e-01,9.99999e-01,9.99942e-01,3.52992e-01,9.99999e-01
6.786760719e-01,3.60297e-01,9.99999e-01,9.99999e-01,9.99999e-01,9.99913e-01,3.60328e-01,9.99999e-01
6.820694522e-01,3.67612e-01,9.99999e-01,9.99999e-01,9.99999e-01,9.99853e-01,3.67666e-01,9.99998e-01
6.854797995e-01,3.74934e-01,9.99999e-01,9.99999e-01,9.99999e-01,9.99811e-01,3.75005e-01,9.99997e-01
6.889071985e-01,3.82163e-01,9.99999e-01,9.99999e-01,9.99999e-01,9.99538e-01,3.82341e-01,9.99995e-01
6.923517345e-01,3.86754e-01,9.99999e-01,9.99999e-01,9.99999e-01,9.92548e-01,3.89671e-01,9.99963e-01
6.958134932e-01,3.95449e-01,9.99999e-01,9.99999e-01,9.99999e-01,9.96188e-01,3.96993e-01,9.99920e-01
6.992925606e-01,4.02786e-01,9.99999e-01,9.99999e-01,9.99999e-01,9.96315e-01,4.04304e-01,9.99928e-01
7.027890234e-01,4.09720e-01,9.99999e-01,9.99999e-01,9.99999e-01,9.95483e-01,4.11601e-01,9.99945e-01
7.063029686e-01,4.17279e-01,9.99999e-01,9.99999e-01,9.99999e-01,9.96199e-01,4.18882e-01,9.99972e-01
7.098344834e-01,4.24584e-01,9.99999e-01,9.99999e-01,9.99999e-01,9.96353e-01,4.26144e-01,9.99983e-01
7.133836558e-01,4.31243e-01,9.99999e-01,9.99999e-01,9.99999e-01,9.95088e-01,4.33385e-01,9.99967e-01
7.169505741e-01,4.23419e-01,9.99999e-01,9.99999e-01,9.99999e-01,9.61240e-01,4.40602e-01,9.99750e-01
7.205353270e-01,4.39165e-01,9.99999e-01,9.99999e-01,9.99999e-01,9.81164e-01,4.47793e-01,9.99559e-01
7.241380036e-01,4.43783e-01,9.99999e-01,9.99999e-01,9.99999e-01,9.75811e-01,4.54956e-01,9.99619e-01
7.277586936e-01,4.51859e-01,9.99999e-01,9.99999e-01,9.99999e-01,9.78165e-01,4.62089e-01,9.99689e-01
7.313974871e-01,4.58304e-01,9.99999e-01,9.99999e-01,9.99999e-01,9.76941e-01,4.69189e-01,9.99854e-01
7.350544745e-01,4.70197e-01,9.99999e-01,9.99999e-01,9.99999e-01,9.87329e-01,4.76255e-01,9.99949e-01
7.387297469e-01,4.78765e-01,9.99999e-01,9.99999e-01,9.99999e-01,9.90671e-01,4.83285e-01,9.99976e-01
7.424233956e-01,4.88037e-01,9.99999e-01,9.99999e-01,9.99999e-01,9.95436e-01,4.90276e-01,9.99995e-01
7.461355126e-01,4.95850e-01,9.99999e-01,9.99999e-01,9.99999e-01,9.97229e-01,4.97228e-01,9.99998e-01
7.498661902e-01,5.03489e-01,9.99999e-01,9.99999e-01,9.99999e-01,9.98712e-01,5.04137e-01,9.99999e-01
7.536155211e-01,5.10681e-01,9.99999e-01,9.99999e-01,9.99999e-01,9.99366e-01,5.11004e-01,9.99999e-01
7.573835987e-01,5.17657e-01,9.99999e-01,9.99999e-01,9.99999e-01,9.99673e-01,5.17826e-01,9.99999e-01
7.611705167e-01,5.24495e-01,9.99999e-01,9.99999e-01,9.99999e-01,9.99797e-01,5.24601e-01,9.99999e-01
7.649763693e-01,5.31261e-01,9.99999e-01,9.99999e-01,9.99999e-01,9.99872e-01,5.31329e-01,9.99999e-01
7.688012511e-01,5.37960e-01,9.99999e-01,9.99999e-01,9.99999e-01,9.99910e-01,5.38007e-01,9.99999e-01
7.726452574e-01,5.44595e-01,9.99999e-01,9.99999e-01,9.99999e-01,9.99926e-01,5.44635e-01,9.99999e-01
7.765084837e-01,5.51154e-01,9.99999e-01,9.99999e-01,9.99999e-01,9.99895e-01,5.51211e-01,9.99999e-01
7.803910261e-01,5.41524e-01,9.99999e-01,9.99999e-01,9.71361e-01,9.99548e-01,5.57735e-01,9.99999e-01
7.842929812e-01,4.98918e-01,9.99999e-01,9.99999e-01,8.85629e-01,9.98423e-01,5.64204e-01,9.99996e-01
7.882144461e-01,4.98965e-01,9.99999e-01,9.99999e-01,8.77181e-01,9.96778e-01,5.70619e-01,9.99977e-01
7.921555184e-01,5.33809e-01,9.99999e-01,9.99999e-01,9.26815e-01,9.98240e-01,5.76978e-01,9.99961e-01
7.961162960e-01,5.52827e-01,9.99999e-01,9.99999e-01,9.50789e-01,9.96860e-01,5.83279e-01,9.99962e-01
8.000968774e-01,5.71507e-01,9.99999e-01,9.99999e-01,9.72976e-01,9.96392e-01,5.89524e-01,9.99960e-01
8.040973618e-01,5.85213e-01,9.99999e-01,9.99999e-01,9.85964e-01,9.96387e-01,5.95709e-01,9.99969e-01
8.081178486e-01,5.93030e-01,9.99999e-01,9.99999e-01,9.93511e-01,9.91823e-01,6.01836e-01,9.99969e-01
8.121584379e-01,5.86216e-01,9.99999e-01,9.99999e-01,9.98009e-01,9.66343e-01,6.07902e-01,9.99885e-01
8.162192301e-01,5.89140e-01,9.99999e-01,9.99999e-01,9.99559e-01,9.60481e-01,6.13908e-01,9.99571e-01
8.203003262e-01,6.06999e-01,9.99999e-01,9.99999e-01,9.99993e-01,9.79758e-01,6.19854e-01,9.99498e-01
8.244018279e-01,6.08219e-01,9.99999e-01,9.99999e-01,9.99999e-01,9.72390e-01,6.25737e-01,9.99600e-01
8.285238370e-01,6.16289e-01,9.99999e-01,9.99999e-01,9.99999e-01,9.76127e-01,6.31559e-01,9.99686e-01
8.326664562e-01,6.21909e-01,9.99999e-01,9.99999e-01,9.99999e-01,9.75948e-01,6.37318e-01,9.99870e-01
8.368297885e-01,6.31942e-01,9.99999e-01,9.99999e-01,9.99999e-01,9.82809e-01,6.43014e-01,9.99969e-01
8.410139374e-01,6.41995e-01,9.99999e-01,9.99999e-01,9.99999e-01,9.89760e-01,6.48647e-01,9.99982e-01
8.452190071e-01,6.50923e-01,9.99999e-01,9.99999e-01,9.99999e-01,9.94974e-01,6.54217e-01,9.99989e-01
8.494451021e-01,6.57787e-01,9.99999e-01,9.99999e-01,9.99999e-01,9.97073e-01,6.59723e-01,9.99991e-01
8.536923276e-01,6.64014e-01,9.99999e-01,9.99999e-01,9.99999e-01,9.98273e-01,6.65166e-01,9.99994e-01
8.579607893e-01,6.69829e-01,9.99999e-01,9.99999e-01,9.99999e-01,9.98933e-01,6.70544e-01,9.99998e-01
8.622505932e-01,6.75402e-01,9.99999e-01,9.99999e-01,9.99999e-01,9.99323e-01,6.75859e-01,9.99999e-01
8.665618462e-01,6.35189e-01,9.99999e-01,9.99999e-01,9.32957e-01,9.99580e-01,6.81109e-01,9.99999e-01
8.708946554e-01,5.02304e-01,9.99999e-01,9.99999e-01,7.32248e-01,9.99518e-01,6.86295e-01,9.99999e-01
8.752491287e-01,5.38668e-01,9.99999e-01,9.99999e-01,7.79567e-01,9.99356e-01,6.91417e-01,9.99998e-01
8.796253743e-01,6.07315e-01,9.99999e-01,9.99999e-01,8.72746e-01,9.99106e-01,6.96475e-01,9.99997e-01
8.840235012e-01,6.53095e-01,9.99999e-01,9.99999e-01,9.31982e-01,9.98980e-01,7.01470e-01,9.99993e-01
8.884436187e-01,6.84565e-01,9.99999e-01,9.99999e-01,9.72751e-01,9.96223e-01,7.06400e-01,9.99981e-01
8.928858368e-01,6.76052e-01,9.99999e-01,9.99999e-01,9.88854e-01,9.61225e-01,7.11266e-01,9.99898e-01
8.973502660e-01,6.65889e-01,9.99999e-01,9.99999e-01,9.97296e-01,9.32887e-01,7.16069e-01,9.99479e-01
9.018370173e-01,6.95097e-01,9.99999e-01,9.99999e-01,9.99702e-01,9.65398e-01,7.20808e-01,9.99181e-01
9.063462024e-01,6.97156e-01,9.99999e-01,9.99999e-01,9.92133e-01,9.69076e-01,7.25485e-01,9.99281e-01
9.108779334e-01,6.82726e-01,9.99999e-01,9.99999e-01,9.82423e-01,9.52389e-01,7.30098e-01,9.99252e-01
9.154323231e-01,6.91895e-01,9.99999e-01,9.99999e-01,9.95887e-01,9.46209e-01,7.34649e-01,9.99382e-01
9.200094847e-01,6.66135e-01,9.99999e-01,9.99999e-01,9.39624e-01,9.57694e-01,7.39137e-01,9.99654e-01
9.246095321e-01,6.36654e-01,9.99999e-01,9.99999e-01,9.16730e-01,9.33135e-01,7.43563e-01,9.99601e-01
9.292325798e-01,4.43164e-01,9.99999e-01,9.99999e-01,9.33412e-01,6.32063e-01,7.47928e-01,9.98079e-01
9.338787427e-01,3.90862e-01,9.99999e-01,9.99999e-01,9.36203e-01,5.55601e-01,7.52231e-01,9.93076e-01
9.385481364e-01,5.65947e-01,9.99999e-01,9.99999e-01,9.52734e-01,7.89447e-01,7.56473e-01,9.92395e-01
9.432408771e-01,5.26656e-01,9.99999e-01,9.99999e-01,9.70879e-01,7.16869e-01,7.60655e-01,9.93435e-01
9.479570815e-01,4.73251e-01,9.99999e-01,9.99999e-01,9.84928e-01,6.31202e-01,7.64777e-01,9.94654e-01
9.526968669e-01,5.40985e-01,9.99999e-01,9.99999e-01,9.92719e-01,7.10735e-01,7.68838e-01,9.96735e-01
9.574603512e-01,5.62446e-01,9.99999e-01,9.99999e-01,9.96883e-01,7.31128e-01,7.72841e-01,9.98340e-01
9.622476530e-01,6.01364e-01,9.99999e-01,9.99999e-01,9.99027e-01,7.75777e-01,7.76785e-01,9.98851e-01
9.670588912e-01,6.73609e-01,9.99999e-01,9.99999e-01,9.99708e-01,8.63778e-01,7.80670e-01,9.99214e-01
9.718941857e-01,7.15478e-01,9.99999e-01,9.99999e-01,9.99979e-01,9.12564e-01,7.84497e-01,9.99421e-01
9.767536566e-01,7.30286e-01,9.99999e-01,9.99999e-01,9.99999e-01,9.26853e-01,7.88267e-01,9.99557e-01
9.816374249e-01,7.48632e-01,9.99999e-01,9.99999e-01,9.99999e-01,9.45409e-01,7.91980e-01,9.99846e-01
9.865456120e-01,7.68211e-01,9.99999e-01,9.99999e-01,9.99999e-01,9.65559e-01,7.95637e-01,9.99967e-01
9.914783401e-01,7.82102e-01,9.99999e-01,9.99999e-01,9.99999e-01,9.78568e-01,7.99238e-01,9.99990e-01
9.964357318e-01,7.93369e-01,9.99999e-01,9.99999e-01,9.99999e-01,9.88276e-01,8.02784e-01,9.99994e-01
1.001417910e+00,8.00594e-01,9.99999e-01,9.99999e-01,9.99999e-01,9.92961e-01,8.06275e-01,9.99991e-01
1.006425000e+00,8.06444e-01,9.99999e-01,9.99999e-01,9.99999e-01,9.95975e-01,8.09711e-01,9.99988e-01
1.011457125e+00,8.11058e-01,9.99999e-01,9.99999e-01,9.99999e-01,9.97505e-01,8.13094e-01,9.99989e-01
1.016514411e+00,8.15034e-01,9.99999e-01,9.99999e-01,9.99999e-01,9.98304e-01,8.16424e-01,9.99992e-01
1.021596983e+00,8.18550e-01,9.99999e-01,9.99999e-01,9.99953e-01,9.98647e-01,8.19701e-01,9.99992e-01
1.026704968e+00,8.19524e-01,9.99999e-01,9.99999e-01,9.96920e-01,9.98944e-01,8.22927e-01,9.99994e-01
1.031838492e+00,7.91857e-01,9.99999e-01,9.99999e-01,9.59261e-01,9.99234e-01,8.26101e-01,9.99998e-01
1.036997685e+00,1.53075e-01,9.99999e-01,9.99999e-01,1.84668e-01,9.99544e-01,8.29224e-01,9.99999e-01
1.042182673e+00,1.47952e-01,9.99999e-01,9.99999e-01,1.77851e-01,9.99454e-01,8.32297e-01,9.99999e-01
1.047393587e+00,1.57138e-01,9.99999e-01,9.99999e-01,1.88237e-01,9.99278e-01,8.35320e-01,9.99999e-01
1.052630555e+00,8.14955e-03,9.99999e-01,9.99999e-01,9.72883e-03,9.99008e-01,8.38294e-01,9.99999e-01
1.057893707e+00,1.90204e-02,9.99999e-01,9.99999e-01,2.26371e-02,9.98343e-01,8.41220e-01,9.99998e-01
1.063183176e+00,5.22128e-02,9.99999e-01,9.99999e-01,6.19822e-02,9.97277e-01,8.44098e-01,9.99998e-01
1.068499092e+00,1.24626e-01,9.99999e-01,9.99999e-01,1.47732e-01,9.95449e-01,8.46929e-01,9.99996e-01
1.073841587e+00,2.53744e-01,9.99999e-01,9.99999e-01,3.00024e-01,9.94665e-01,8.49712e-01,9.99992e-01
