#,Wave/freq,Total,N2,O2,CO2,H2O,Rayleigh,CIA
4.000000000e-01,4.08536e-06,9.99999e-01,9.99999e-01,9.99999e-01,9.99975e-01,4.08545e-06,9.99999e-01
4.020000000e-01,5.22135e-06,9.99999e-01,9.99999e-01,9.99999e-01,9.99984e-01,5.22143e-06,9.99999e-01
4.040100000e-01,6.63932e-06,9.99999e-01,9.99999e-01,9.99999e-01,9.99993e-01,6.63936e-06,9.99999e-01
4.060300500e-01,8.40236e-06,9.99999e-01,9.99999e-01,9.99999e-01,9.99998e-01,8.40237e-06,9.99999e-01
4.080602003e-01,1.05842e-05,9.99999e-01,9.99999e-01,9.99999e-01,9.99999e-01,1.05842e-05,9.99999e-01
4.101005013e-01,1.32719e-05,9.99999e-01,9.99999e-01,9.99999e-01,9.99999e-01,1.32719e-05,9.99999e-01
4.121510038e-01,1.65679e-05,9.99999e-01,9.99999e-01,9.99999e-01,9.99998e-01,1.65679e-05,9.99999e-01
4.142117588e-01,2.05919e-05,9.99999e-01,9.99999e-01,9.99999e-01,9.99992e-01,2.05920e-05,9.99999e-01
4.162828176e-01,2.54831e-05,9.99999e-01,9.99999e-01,9.99999e-01,9.99969e-01,2.54838e-05,9.99999e-01
4.183642317e-01,3.14047e-05,9.99999e-01,9.99999e-01,9.99999e-01,9.99981e-01,3.14052e-05,9.99999e-01
4.204560528e-01,3.85428e-05,9.99999e-01,9.99999e-01,9.99999e-01,9.99988e-01,3.85432e-05,9.99999e-01
4.225583331e-01,4.71123e-05,9.99999e-01,9.99999e-01,9.99999e-01,9.99995e-01,4.71125e-05,9.99999e-01
4.246711247e-01,5.73589e-05,9.99999e-01,9.99999e-01,9.99999e-01,9.99996e-01,5.73591e-05,9.99999e-01
4.267944804e-01,6.95630e-05,9.99999e-01,9.99999e-01,9.99999e-01,9.99994e-01,6.95633e-05,9.99999e-01
4.289284528e-01,8.40431e-05,9.99999e-01,9.99999e-01,9.99999e-01,9.99995e-01,8.40434e-05,9.99999e-01
4.310730950e-01,1.01159e-04,9.99999e-01,9.99999e-01,9.99999e-01,9.99997e-01,1.01159e-04,9.99999e-01
4.332284605e-01,1.21315e-04,9.99999e-01,9.99999e-01,9.99999e-01,9.99999e-01,1.21315e-04,9.99999e-01
4.353946028e-01,1.44967e-04,9.99999e-01,9.99999e-01,9.99999e-01,9.99999e-01,1.44967e-04,9.99999e-01
4.375715758e-01,1.72620e-04,9.99999e-01,9.99999e-01,9.99999e-01,9.99996e-01,1.72621e-04,9.99999e-01
4.397594337e-01,2.04837e-04,9.99999e-01,9.99999e-01,9.99999e-01,9.99973e-01,2.04842e-04,9.99999e-01
4.419582309e-01,2.42226e-04,9.99999e-01,9.99999e-01,9.99999e-01,9.99866e-01,2.42258e-04,9.99999e-01
4.441680220e-01,2.85531e-04,9.99999e-01,9.99999e-01,9.99999e-01,9.99897e-01,2.85560e-04,9.99999e-01
4.463888621e-01,3.35475e-04,9.99999e-01,9.99999e-01,9.99999e-01,9.99892e-01,3.35511e-04,9.99999e-01
4.486208064e-01,3.92919e-04,9.99999e-01,9.99999e-01,9.99999e-01,9.99933e-01,3.92945e-04,9.99999e-01
4.508639105e-01,4.58764e-04,9.99999e-01,9.99999e-01,9.99999e-01,9.99968e-01,4.58778e-04,9.99999e-01
4.531182300e-01,5.33997e-04,9.99999e-01,9.99999e-01,9.99999e-01,9.99987e-01,5.34003e-04,9.99999e-01
4.553838212e-01,6.19697e-04,9.99999e-01,9.99999e-01,9.99999e-01,9.99991e-01,6.19702e-04,9.99999e-01
4.576607403e-01,7.17041e-04,9.99999e-01,9.99999e-01,9.99999e-01,9.99995e-01,7.17044e-04,9.99999e-01
4.599490440e-01,8.27285e-04,9.99999e-01,9.99999e-01,9.99999e-01,9.99996e-01,8.27287e-04,9.99999e-01
4.622487892e-01,9.51788e-04,9.99999e-01,9.99999e-01,9.99999e-01,9.99999e-01,9.51788e-04,9.99999e-01
4.645600332e-01,1.09200e-03,9.99999e-01,9.99999e-01,9.99999e-01,9.99997e-01,1.09200e-03,9.99999e-01
4.668828333e-01,1.24943e-03,9.99999e-01,9.99999e-01,9.99999e-01,9.99967e-01,1.24946e-03,9.99999e-01
4.692172475e-01,1.42574e-03,9.99999e-01,9.99999e-01,9.99999e-01,9.99932e-01,1.42584e-03,9.99999e-01
4.715633337e-01,1.62280e-03,9.99999e-01,9.99999e-01,9.99999e-01,9.99955e-01,1.62287e-03,9.99999e-01
4.739211504e-01,1.84234e-03,9.99999e-01,9.99999e-01,9.99999e-01,9.99957e-01,1.84242e-03,9.99999e-01
4.762907561e-01,2.08639e-03,9.99999e-01,9.99999e-01,9.99999e-01,9.99977e-01,2.08643e-03,9.99999e-01
4.786722099e-01,2.35694e-03,9.99999e-01,9.99999e-01,9.99999e-01,9.99990e-01,2.35696e-03,9.99999e-01
4.810655710e-01,2.65616e-03,9.99999e-01,9.99999e-01,9.99999e-01,9.99996e-01,2.65617e-03,9.99999e-01
4.834708988e-01,2.98621e-03,9.99999e-01,9.99999e-01,9.99999e-01,9.99973e-01,2.98629e-03,9.99999e-01
4.858882533e-01,3.34953e-03,9.99999e-01,9.99999e-01,9.99999e-01,9.99952e-01,3.34969e-03,9.99999e-01
4.883176946e-01,3.74865e-03,9.99999e-01,9.99999e-01,9.99999e-01,9.99959e-01,3.74880e-03,9.99999e-01
4.907592831e-01,4.18599e-03,9.99999e-01,9.99999e-01,9.99999e-01,9.99963e-01,4.18614e-03,9.99999e-01
4.932130795e-01,4.66421e-03,9.99999e-01,9.99999e-01,9.99999e-01,9.99974e-01,4.66432e-03,9.99999e-01
4.956791449e-01,5.18597e-03,9.99999e-01,9.99999e-01,9.99999e-01,9.99986e-01,5.18604e-03,9.99999e-01
4.981575406e-01,5.75366e-03,9.99999e-01,9.99999e-01,9.99999e-01,9.99931e-01,5.75405e-03,9.99999e-01
5.006483283e-01,6.37005e-03,9.99999e-01,9.99999e-01,9.99999e-01,9.99823e-01,6.37118e-03,9.99998e-01
5.031515699e-01,7.03398e-03,9.99999e-01,9.99999e-01,9.99999e-01,9.99110e-01,7.04031e-03,9.99990e-01
5.056673278e-01,7.76067e-03,9.99999e-01,9.99999e-01,9.99999e-01,9.99531e-01,7.76439e-03,9.99988e-01
5.081956644e-01,8.54129e-03,9.99999e-01,9.99999e-01,9.99999e-01,9.99409e-01,8.54639e-03,9.99993e-01
5.107366428e-01,9.38559e-03,9.99999e-01,9.99999e-01,9.99999e-01,9.99601e-01,9.38934e-03,9.99998e-01
5.132903260e-01,1.02939e-02,9.99999e-01,9.99999e-01,9.99999e-01,9.99772e-01,1.02963e-02,9.99999e-01
5.158567776e-01,1.12692e-02,9.99999e-01,9.99999e-01,9.99999e-01,9.99903e-01,1.12703e-02,9.99999e-01
5.184360615e-01,1.23140e-02,9.99999e-01,9.99999e-01,9.99999e-01,9.99961e-01,1.23144e-02,9.99999e-01
5.210282418e-01,1.34316e-02,9.99999e-01,9.99999e-01,9.99999e-01,9.99985e-01,1.34318e-02,9.99999e-01
5.236333830e-01,1.46245e-02,9.99999e-01,9.99999e-01,9.99999e-01,9.99941e-01,1.46254e-02,9.99999e-01
5.262515499e-01,1.58977e-02,9.99999e-01,9.99999e-01,9.99999e-01,9.99963e-01,1.58983e-02,9.99998e-01
5.288828077e-01,1.72530e-02,9.99999e-01,9.99999e-01,9.99999e-01,9.99966e-01,1.72536e-02,9.99999e-01
5.315272217e-01,1.86936e-02,9.99999e-01,9.99999e-01,9.99999e-01,9.99970e-01,1.86941e-02,9.99999e-01
5.341848578e-01,2.02225e-02,9.99999e-01,9.99999e-01,9.99999e-01,9.99980e-01,2.02229e-02,9.99999e-01
5.368557821e-01,2.18412e-02,9.99999e-01,9.99999e-01,9.99999e-01,9.99931e-01,2.18427e-02,9.99999e-01
5.395400610e-01,2.35506e-02,9.99999e-01,9.99999e-01,9.99999e-01,9.99754e-01,2.35564e-02,9.99997e-01
5.422377613e-01,2.53586e-02,9.99999e-01,9.99999e-01,9.99999e-01,9.99686e-01,2.53667e-02,9.99993e-01
5.449489501e-01,2.72681e-02,9.99999e-01,9.99999e-01,9.99999e-01,9.99706e-01,2.72762e-02,9.99993e-01
5.476736949e-01,2.92798e-02,9.99999e-01,9.99999e-01,9.99999e-01,9.99741e-01,2.92874e-02,9.99996e-01
5.504120634e-01,3.13969e-02,9.99999e-01,9.99999e-01,9.99999e-01,9.99812e-01,3.14028e-02,9.99998e-01
5.531641237e-01,3.36214e-02,9.99999e-01,9.99999e-01,9.99999e-01,9.99905e-01,3.36246e-02,9.99999e-01
5.559299443e-01,3.59533e-02,9.99999e-01,9.99999e-01,9.99999e-01,9.99954e-01,3.59550e-02,9.99999e-01
5.587095940e-01,3.83949e-02,9.99999e-01,9.99999e-01,9.99999e-01,9.99970e-01,3.83960e-02,9.99999e-01
5.615031420e-01,4.09483e-02,9.99999e-01,9.99999e-01,9.99999e-01,9.99967e-01,4.09496e-02,9.99999e-01
5.643106577e-01,4.36160e-02,9.99999e-01,9.99999e-01,9.99999e-01,9.99963e-01,4.36176e-02,9.99999e-01
5.671322110e-01,4.63806e-02,9.99999e-01,9.99999e-01,9.99999e-01,9.99554e-01,4.64014e-02,9.99995e-01
5.699678720e-01,4.92793e-02,9.99999e-01,9.99999e-01,9.99999e-01,9.99535e-01,4.93027e-02,9.99987e-01
5.728177114e-01,5.22967e-02,9.99999e-01,9.99999e-01,9.99999e-01,9.99512e-01,5.23227e-02,9.99989e-01
5.756818000e-01,5.54374e-02,9.99999e-01,9.99999e-01,9.99999e-01,9.99553e-01,5.54624e-02,9.99993e-01
5.785602090e-01,5.87001e-02,9.99999e-01,9.99999e-01,9.99999e-01,9.99611e-01,5.87230e-02,9.99997e-01
5.814530100e-01,6.20808e-02,9.99999e-01,9.99999e-01,9.99999e-01,9.99608e-01,6.21051e-02,9.99998e-01
5.843602750e-01,6.55785e-02,9.99999e-01,9.99999e-01,9.99999e-01,9.99531e-01,6.56094e-02,9.99996e-01
5.872820764e-01,6.89552e-02,9.99999e-01,9.99999e-01,9.99999e-01,9.95968e-01,6.92363e-02,9.99971e-01
5.902184868e-01,7.26265e-02,9.99999e-01,9.99999e-01,9.99999e-01,9.95149e-01,7.29861e-02,9.99922e-01
5.931695792e-01,7.65891e-02,9.99999e-01,9.99999e-01,9.99999e-01,9.96563e-01,7.68588e-02,9.99925e-01
5.961354271e-01,8.05471e-02,9.99999e-01,9.99999e-01,9.99999e-01,9.96240e-01,8.08545e-02,9.99957e-01
5.991161043e-01,8.47388e-02,9.99999e-01,9.99999e-01,9.99999e-01,9.97259e-01,8.49727e-02,9.99986e-01
6.021116848e-01,8.90744e-02,9.99999e-01,9.99999e-01,9.99999e-01,9.98445e-01,8.92132e-02,9.99998e-01
6.051222432e-01,9.35016e-02,9.99999e-01,9.99999e-01,9.99999e-01,9.99213e-01,9.35752e-02,9.99999e-01
6.081478544e-01,9.80247e-02,9.99999e-01,9.99999e-01,9.99999e-01,9.99660e-01,9.80579e-02,9.99999e-01
6.111885937e-01,1.02646e-01,9.99999e-01,9.99999e-01,9.99999e-01,9.99856e-01,1.02661e-01,9.99999e-01
6.142445367e-01,1.07375e-01,9.99999e-01,9.99999e-01,9.99999e-01,9.99935e-01,1.07382e-01,9.99999e-01
6.173157594e-01,1.12217e-01,9.99999e-01,9.99999e-01,9.99999e-01,9.99964e-01,1.12220e-01,9.99999e-01
6.204023382e-01,1.17172e-01,9.99999e-01,9.99999e-01,9.99999e-01,9.99969e-01,1.17175e-01,9.99999e-01
6.235043498e-01,1.22228e-01,9.99999e-01,9.99999e-01,9.99999e-01,9.99865e-01,1.22244e-01,9.99999e-01
6.266218716e-01,1.27336e-01,9.99999e-01,9.99999e-01,9.99999e-01,9.99299e-01,1.27426e-01,9.99994e-01
6.297549810e-01,1.32683e-01,9.99999e-01,9.99999e-01,9.99999e-01,9.99742e-01,1.32718e-01,9.99989e-01
6.329037559e-01,1.38049e-01,9.99999e-01,9.99999e-01,9.99999e-01,9.99493e-01,1.38120e-01,9.99991e-01
6.360682746e-01,1.43565e-01,9.99999e-01,9.99999e-01,9.99999e-01,9.99567e-01,1.43627e-01,9.99994e-01
6.392486160e-01,1.49156e-01,9.99999e-01,9.99999e-01,9.99999e-01,9.99440e-01,1.49240e-01,9.99997e-01
6.424448591e-01,1.54836e-01,9.99999e-01,9.99999e-01,9.99999e-01,9.99246e-01,1.54954e-01,9.99995e-01
6.456570834e-01,1.60202e-01,9.99999e-01,9.99999e-01,9.99999e-01,9.96504e-01,1.60767e-01,9.99978e-01
6.488853688e-01,1.66245e-01,9.99999e-01,9.99999e-01,9.99999e-01,9.97460e-01,1.66678e-01,9.99945e-01
6.521297956e-01,1.72227e-01,9.99999e-01,9.99999e-01,9.99999e-01,9.97411e-01,1.72682e-01,9.99955e-01
6.553904446e-01,1.78310e-01,9.99999e-01,9.99999e-01,9.99999e-01,9.97414e-01,1.78778e-01,9.99966e-01
6.586673968e-01,1.84551e-01,9.99999e-01,9.99999e-01,9.99999e-01,9.97792e-01,1.84962e-01,9.99988e-01
6.619607338e-01,1.90996e-01,9.99999e-01,9.99999e-01,9.99999e-01,9.98769e-01,1.91231e-01,9.99997e-01
6.652705375e-01,1.97437e-01,9.99999e-01,9.99999e-01,9.99999e-01,9.99261e-01,1.97583e-01,9.99998e-01
6.685968902e-01,2.03950e-01,9.99999e-01,9.99999e-01,9.99999e-01,9.99686e-01,2.04014e-01,9.99999e-01
6.719398746e-01,2.10488e-01,9.99999e-01,9.99999e-01,9.99999e-01,9.99840e-01,2.10521e-01,9.99999e-01
6.752995740e-01,2.17083e-01,9.99999e-01,9.99999e-01,9.99999e-01,9.99915e-01,2.17102e-01,9.99999e-01
6.786760719e-01,2.23723e-01,9.99999e-01,9.99999e-01,9.99999e-01,9.99874e-01,2.23751e-01,9.99999e-01
6.820694522e-01,2.30418e-01,9.99999e-01,9.99999e-01,9.99999e-01,9.99786e-01,2.30467e-01,9.99998e-01
6.854797995e-01,2.37180e-01,9.99999e-01,9.99999e-01,9.99999e-01,9.99723e-01,2.37246e-01,9.99997e-01
6.889071985e-01,2.43919e-01,9.99999e-01,9.99999e-01,9.99999e-01,9.99324e-01,2.44085e-01,9.99993e-01
6.923517345e-01,2.48232e-01,9.99999e-01,9.99999e-01,9.99999e-01,9.89103e-01,2.50979e-01,9.99947e-01
6.958134932e-01,2.56455e-01,9.99999e-01,9.99999e-01,9.99999e-01,9.94407e-01,2.57927e-01,9.99884e-01
6.992925606e-01,2.63468e-01,9.99999e-01,9.99999e-01,9.99999e-01,9.94605e-01,2.64924e-01,9.99895e-01
7.027890234e-01,2.70146e-01,9.99999e-01,9.99999e-01,9.99999e-01,9.93382e-01,2.71967e-01,9.99920e-01
7.063029686e-01,2.77487e-01,9.99999e-01,9.99999e-01,9.99999e-01,9.94430e-01,2.79052e-01,9.99960e-01
7.098344834e-01,2.84641e-01,9.99999e-01,9.99999e-01,9.99999e-01,9.94656e-01,2.86177e-01,9.99976e-01
7.133836558e-01,2.91217e-01,9.99999e-01,9.99999e-01,9.99999e-01,9.92818e-01,2.93337e-01,9.99953e-01
7.169505741e-01,2.83550e-01,9.99999e-01,9.99999e-01,9.99999e-01,9.43842e-01,3.00530e-01,9.99634e-01
7.205353270e-01,2.99095e-01,9.99999e-01,9.99999e-01,9.99999e-01,9.72496e-01,3.07752e-01,9.99354e-01
7.241380036e-01,3.03740e-01,9.99999e-01,9.99999e-01,9.99999e-01,9.64788e-01,3.15000e-01,9.99442e-01
7.277586936e-01,3.11878e-01,9.99999e-01,9.99999e-01,9.99999e-01,9.68194e-01,3.22270e-01,9.99544e-01
7.313974871e-01,3.18410e-01,9.99999e-01,9.99999e-01,9.99999e-01,9.66374e-01,3.29560e-01,9.99786e-01
7.350544745e-01,3.30600e-01,9.99999e-01,9.99999e-01,9.99999e-01,9.81474e-01,3.36865e-01,9.99925e-01
7.387297469e-01,3.39472e-01,9.99999e-01,9.99999e-01,9.99999e-01,9.86345e-01,3.44183e-01,9.99965e-01
7.424233956e-01,3.49158e-01,9.99999e-01,9.99999e-01,9.99999e-01,9.93309e-01,3.51511e-01,9.99993e-01
7.461355126e-01,3.57388e-01,9.99999e-01,9.99999e-01,9.99999e-01,9.95936e-01,3.58846e-01,9.99998e-01
7.498661902e-01,3.65493e-01,9.99999e-01,9.99999e-01,9.99999e-01,9.98110e-01,3.66185e-01,9.99999e-01
7.536155211e-01,3.73177e-01,9.99999e-01,9.99999e-01,9.99999e-01,9.99070e-01,3.73524e-01,9.99999e-01
7.573835987e-01,3.80678e-01,9.99999e-01,9.99999e-01,9.99999e-01,9.99521e-01,3.80860e-01,9.99999e-01
7.611705167e-01,3.88077e-01,9.99999e-01,9.99999e-01,9.99999e-01,9.99702e-01,3.88192e-01,9.99999e-01
7.649763693e-01,3.95442e-01,9.99999e-01,9.99999e-01,9.99999e-01,9.99813e-01,3.95516e-01,9.99999e-01
7.688012511e-01,4.02777e-01,9.99999e-01,9.99999e-01,9.99999e-01,9.99869e-01,4.02829e-01,9.99999e-01
7.726452574e-01,4.10085e-01,9.99999e-01,9.99999e-01,9.99999e-01,9.99892e-01,4.10129e-01,9.99999e-01
7.765084837e-01,4.17350e-01,9.99999e-01,9.99999e-01,9.99999e-01,9.99846e-01,4.17414e-01,9.99999e-01
7.803910261e-01,4.07379e-01,9.99999e-01,9.99999e-01,9.59871e-01,9.99338e-01,4.24680e-01,9.99998e-01
7.842929812e-01,3.61346e-01,9.99999e-01,9.99999e-01,8.38426e-01,9.97691e-01,4.31925e-01,9.99995e-01
7.882144461e-01,3.61704e-01,9.99999e-01,9.99999e-01,8.27406e-01,9.95278e-01,4.39147e-01,9.99967e-01
7.921555184e-01,3.98393e-01,9.99999e-01,9.99999e-01,8.94866e-01,9.97418e-01,4.46343e-01,9.99943e-01
7.961162960e-01,4.19227e-01,9.99999e-01,9.99999e-01,9.28675e-01,9.95402e-01,4.53512e-01,9.99945e-01
8.000968774e-01,4.40157e-01,9.99999e-01,9.99999e-01,9.60624e-01,9.94714e-01,4.60651e-01,9.99942e-01
8.040973618e-01,4.55716e-01,9.99999e-01,9.99999e-01,9.79469e-01,9.94707e-01,4.67758e-01,9.99956e-01
8.081178486e-01,4.64685e-01,9.99999e-01,9.99999e-01,9.90494e-01,9.88047e-01,4.74831e-01,9.99955e-01
8.121584379e-01,4.56924e-01,9.99999e-01,9.99999e-01,9.97077e-01,9.51139e-01,4.81868e-01,9.99832e-01
8.162192301e-01,4.60256e-01,9.99999e-01,9.99999e-01,9.99353e-01,9.42660e-01,4.88868e-01,9.99372e-01
8.203003262e-01,4.80923e-01,9.99999e-01,9.99999e-01,9.99990e-01,9.70660e-01,4.95827e-01,9.99265e-01
8.244018279e-01,4.82338e-01,9.99999e-01,9.99999e-01,9.99999e-01,9.59968e-01,5.02746e-01,9.99415e-01
8.285238370e-01,4.91677e-01,9.99999e-01,9.99999e-01,9.99999e-01,9.65232e-01,5.09621e-01,9.99540e-01
8.326664562e-01,4.98264e-01,9.99999e-01,9.99999e-01,9.99999e-01,9.64964e-01,5.16452e-01,9.99809e-01
8.368297885e-01,5.10077e-01,9.99999e-01,9.99999e-01,9.99999e-01,9.74890e-01,5.23237e-01,9.99956e-01
8.410139374e-01,5.22020e-01,9.99999e-01,9.99999e-01,9.99999e-01,9.85014e-01,5.29974e-01,9.99974e-01
8.452190071e-01,5.32702e-01,9.99999e-01,9.99999e-01,9.99999e-01,9.92633e-01,5.36663e-01,9.99984e-01
8.494451021e-01,5.40964e-01,9.99999e-01,9.99999e-01,9.99999e-01,9.95709e-01,5.43301e-01,9.99987e-01
8.536923276e-01,5.48491e-01,9.99999e-01,9.99999e-01,9.99999e-01,9.97467e-01,5.49888e-01,9.99992e-01
8.579607893e-01,5.55551e-01,9.99999e-01,9.99999e-01,9.99999e-01,9.98436e-01,5.56422e-01,9.99997e-01
8.622505932e-01,5.62344e-01,9.99999e-01,9.99999e-01,9.99999e-01,9.99008e-01,5.62903e-01,9.99999e-01
8.665618462e-01,5.21138e-01,9.99999e-01,9.99999e-01,9.15894e-01,9.99384e-01,5.69328e-01,9.99999e-01
8.708946554e-01,3.67648e-01,9.99999e-01,9.99999e-01,6.39045e-01,9.99294e-01,5.75698e-01,9.99999e-01
8.752491287e-01,4.05328e-01,9.99999e-01,9.99999e-01,6.97060e-01,9.99056e-01,5.82012e-01,9.99998e-01
8.796253743e-01,4.81679e-01,9.99999e-01,9.99999e-01,8.19848e-01,9.98690e-01,5.88268e-01,9.99996e-01
8.840235012e-01,5.35398e-01,9.99999e-01,9.99999e-01,9.01970e-01,9.98505e-01,5.94465e-01,9.99990e-01
8.884436187e-01,5.73588e-01,9.99999e-01,9.99999e-01,9.60279e-01,9.94485e-01,6.00604e-01,9.99973e-01
8.928858368e-01,5.63281e-01,9.99999e-01,9.99999e-01,9.83685e-01,9.43841e-01,6.06682e-01,9.99850e-01
8.973502660e-01,5.50963e-01,9.99999e-01,9.99999e-01,9.96031e-01,9.03422e-01,6.12701e-01,9.99236e-01
9.018370173e-01,5.86620e-01,9.99999e-01,9.99999e-01,9.99562e-01,9.49751e-01,6.18658e-01,9.98800e-01
9.063462024e-01,5.89330e-01,9.99999e-01,9.99999e-01,9.88551e-01,9.55136e-01,6.24554e-01,9.98945e-01
9.108779334e-01,5.71512e-01,9.99999e-01,9.99999e-01,9.74328e-01,9.31164e-01,6.30388e-01,9.98904e-01
9.154323231e-01,5.82737e-01,9.99999e-01,9.99999e-01,9.93964e-01,9.22281e-01,6.36160e-01,9.99094e-01
9.200094847e-01,5.53118e-01,9.99999e-01,9.99999e-01,9.14948e-01,9.38719e-01,6.41869e-01,9.99492e-01
9.246095321e-01,5.16817e-01,9.99999e-01,9.99999e-01,8.80430e-01,9.04667e-01,6.47515e-01,9.99415e-01
9.292325798e-01,3.08276e-01,9.99999e-01,9.99999e-01,9.04457e-01,5.17055e-01,6.53098e-01,9.97184e-01
9.338787427e-01,2.57542e-01,9.99999e-01,9.99999e-01,9.08065e-01,4.30105e-01,6.58617e-01,9.89861e-01
9.385481364e-01,4.37208e-01,9.99999e-01,9.99999e-01,9.31516e-01,7.11398e-01,6.64072e-01,9.88866e-01
9.432408771e-01,3.96229e-01,9.99999e-01,9.99999e-01,9.57569e-01,6.22376e-01,6.69463e-01,9.90387e-01
9.479570815e-01,3.41999e-01,9.99999e-01,9.99999e-01,9.77968e-01,5.21600e-01,6.74791e-01,9.92169e-01
9.526968669e-01,4.11090e-01,9.99999e-01,9.99999e-01,9.89335e-01,6.13296e-01,6.80054e-01,9.95216e-01
9.574603512e-01,4.32407e-01,9.99999e-01,9.99999e-01,9.95429e-01,6.35236e-01,6.85253e-01,9.97567e-01
9.622476530e-01,4.75743e-01,9.99999e-01,9.99999e-01,9.98573e-01,6.91174e-01,6.90388e-01,9.98316e-01
9.670588912e-01,5.60950e-01,9.99999e-01,9.99999e-01,9.99572e-01,8.07842e-01,6.95459e-01,9.98848e-01
9.718941857e-01,6.12151e-01,9.99999e-01,9.99999e-01,9.99969e-01,8.74684e-01,7.00466e-01,9.99152e-01
9.767536566e-01,6.30771e-01,9.99999e-01,9.99999e-01,9.99999e-01,8.94770e-01,7.05409e-01,9.99351e-01
9.816374249e-01,6.54047e-01,9.99999e-01,9.99999e-01,9.99999e-01,9.21023e-01,7.10289e-01,9.99775e-01
9.865456120e-01,6.79251e-01,9.99999e-01,9.99999e-01,9.99999e-01,9.49906e-01,7.15104e-01,9.99952e-01
9.914783401e-01,6.97332e-01,9.99999e-01,9.99999e-01,9.99999e-01,9.68721e-01,7.19857e-01,9.99986e-01
9.964357318e-01,7.12114e-01,9.99999e-01,9.99999e-01,9.99999e-01,9.82849e-01,7.24546e-01,9.99991e-01
1.001417910e+00,7.21646e-01,9.99999e-01,9.99999e-01,9.99999e-01,9.89689e-01,7.29172e-01,9.99987e-01
1.006425000e+00,7.29396e-01,9.99999e-01,9.99999e-01,9.99999e-01,9.94101e-01,7.33735e-01,9.99983e-01
1.011457125e+00,7.35525e-01,9.99999e-01,9.99999e-01,9.99999e-01,9.96342e-01,7.38236e-01,9.99984e-01
1.016514411e+00,7.40820e-01,9.99999e-01,9.99999e-01,9.99999e-01,9.97513e-01,7.42675e-01,9.99988e-01
1.021596983e+00,7.45513e-01,9.99999e-01,9.99999e-01,9.99932e-01,9.98016e-01,7.47052e-01,9.99988e-01
1.026704968e+00,7.46830e-01,9.99999e-01,9.99999e-01,9.95504e-01,9.98452e-01,7.51367e-01,9.99992e-01
1.031838492e+00,7.15463e-01,9.99999e-01,9.99999e-01,9.47881e-01,9.98876e-01,7.55622e-01,9.99997e-01
1.036997685e+00,9.87321e-02,9.99999e-01,9.99999e-01,1.30010e-01,9.99331e-01,7.59816e-01,9.99999e-01
1.042182673e+00,6.55395e-02,9.99999e-01,9.99999e-01,8.58501e-02,9.99201e-01,7.63949e-01,9.99999e-01
1.047393587e+00,8.35772e-02,9.99999e-01,9.99999e-01,1.08922e-01,9.98942e-01,7.68023e-01,9.99999e-01
1.052630555e+00,1.38005e-03,9.99999e-01,9.99999e-01,1.78940e-03,9.98547e-01,7.72038e-01,9.99999e-01
1.057893707e+00,3.86856e-03,9.99999e-01,9.99999e-01,4.99320e-03,9.97572e-01,7.75993e-01,9.99998e-01
1.063183176e+00,1.53467e-02,9.99999e-01,9.99999e-01,1.97327e-02,9.96010e-01,7.79890e-01,9.99997e-01
1.068499092e+00,4.91486e-02,9.99999e-01,9.99999e-01,6.30563e-02,9.93334e-01,7.83729e-01,9.99995e-01
1.073841587e+00,1.36526e-01,9.99999e-01,9.99999e-01,1.74508e-01,9.92191e-01,7.87511e-01,9.99989e-01
