#,Wave/freq,Total,N2,O2,CO2,H2O,Rayleigh,CIA
4.000000000e-01,2.97548e-03,9.99999e-01,9.99999e-01,9.99999e-01,9.99988e-01,2.97551e-03,9.99999e-01
4.020000000e-01,3.33821e-03,9.99999e-01,9.99999e-01,9.99999e-01,9.99992e-01,3.33823e-03,9.99999e-01
4.040100000e-01,3.73621e-03,9.99999e-01,9.99999e-01,9.99999e-01,9.99996e-01,3.73623e-03,9.99999e-01
4.060300500e-01,4.17237e-03,9.99999e-01,9.99999e-01,9.99999e-01,9.99998e-01,4.17238e-03,9.99999e-01
4.080602003e-01,4.64929e-03,9.99999e-01,9.99999e-01,9.99999e-01,9.99999e-01,4.64929e-03,9.99999e-01
4.101005013e-01,5.16966e-03,9.99999e-01,9.99999e-01,9.99999e-01,9.99999e-01,5.16966e-03,9.99999e-01
4.121510038e-01,5.73623e-03,9.99999e-01,9.99999e-01,9.99999e-01,9.99999e-01,5.73623e-03,9.99999e-01
4.142117588e-01,6.35182e-03,9.99999e-01,9.99999e-01,9.99999e-01,9.99996e-01,6.35184e-03,9.99999e-01
4.162828176e-01,7.01926e-03,9.99999e-01,9.99999e-01,9.99999e-01,9.99985e-01,7.01936e-03,9.99999e-01
4.183642317e-01,7.74167e-03,9.99999e-01,9.99999e-01,9.99999e-01,9.99991e-01,7.74174e-03,9.99999e-01
4.204560528e-01,8.52191e-03,9.99999e-01,9.99999e-01,9.99999e-01,9.99994e-01,8.52195e-03,9.99999e-01
4.225583331e-01,9.36300e-03,9.99999e-01,9.99999e-01,9.99999e-01,9.99997e-01,9.36302e-03,9.99999e-01
4.246711247e-01,1.02680e-02,9.99999e-01,9.99999e-01,9.99999e-01,9.99998e-01,1.02680e-02,9.99999e-01
4.267944804e-01,1.12399e-02,9.99999e-01,9.99999e-01,9.99999e-01,9.99997e-01,1.12399e-02,9.99999e-01
4.289284528e-01,1.22819e-02,9.99999e-01,9.99999e-01,9.99999e-01,9.99997e-01,1.22819e-02,9.99999e-01
4.310730950e-01,1.33970e-02,9.99999e-01,9.99999e-01,9.99999e-01,9.99998e-01,1.33970e-02,9.99999e-01
4.332284605e-01,1.45883e-02,9.99999e-01,9.99999e-01,9.99999e-01,9.99999e-01,1.45883e-02,9.99999e-01
4.353946028e-01,1.58588e-02,9.99999e-01,9.99999e-01,9.99999e-01,9.99999e-01,1.58588e-02,9.99999e-01
4.375715758e-01,1.72115e-02,9.99999e-01,9.99999e-01,9.99999e-01,9.99998e-01,1.72115e-02,9.99999e-01
4.397594337e-01,1.86492e-02,9.99999e-01,9.99999e-01,9.99999e-01,9.99987e-01,1.86494e-02,9.99999e-01
4.419582309e-01,2.01742e-02,9.99999e-01,9.99999e-01,9.99999e-01,9.99938e-01,2.01755e-02,9.99999e-01
4.441680220e-01,2.17915e-02,9.99999e-01,9.99999e-01,9.99999e-01,9.99951e-01,2.17925e-02,9.99999e-01
4.463888621e-01,2.35022e-02,9.99999e-01,9.99999e-01,9.99999e-01,9.99949e-01,2.35034e-02,9.99999e-01
4.486208064e-01,2.53099e-02,9.99999e-01,9.99999e-01,9.99999e-01,9.99968e-01,2.53107e-02,9.99999e-01
4.508639105e-01,2.72168e-02,9.99999e-01,9.99999e-01,9.99999e-01,9.99984e-01,2.72172e-02,9.99999e-01
4.531182300e-01,2.92251e-02,9.99999e-01,9.99999e-01,9.99999e-01,9.99993e-01,2.92253e-02,9.99999e-01
4.553838212e-01,3.13374e-02,9.99999e-01,9.99999e-01,9.99999e-01,9.99995e-01,3.13375e-02,9.99999e-01
4.576607403e-01,3.35560e-02,9.99999e-01,9.99999e-01,9.99999e-01,9.99997e-01,3.35560e-02,9.99999e-01
4.599490440e-01,3.58831e-02,9.99999e-01,9.99999e-01,9.99999e-01,9.99998e-01,3.58831e-02,9.99999e-01
4.622487892e-01,3.83208e-02,9.99999e-01,9.99999e-01,9.99999e-01,9.99999e-01,3.83208e-02,9.99999e-01
4.645600332e-01,4.08710e-02,9.99999e-01,9.99999e-01,9.99999e-01,9.99998e-01,4.08710e-02,9.99999e-01
4.668828333e-01,4.35348e-02,9.99999e-01,9.99999e-01,9.99999e-01,9.99984e-01,4.35355e-02,9.99999e-01
4.692172475e-01,4.63144e-02,9.99999e-01,9.99999e-01,9.99999e-01,9.99968e-01,4.63158e-02,9.99999e-01
4.715633337e-01,4.92125e-02,9.99999e-01,9.99999e-01,9.99999e-01,9.99978e-01,4.92136e-02,9.99999e-01
4.739211504e-01,5.22289e-02,9.99999e-01,9.99999e-01,9.99999e-01,9.99979e-01,5.22299e-02,9.99999e-01
4.762907561e-01,5.53655e-02,9.99999e-01,9.99999e-01,9.99999e-01,9.99989e-01,5.53661e-02,9.99999e-01
4.786722099e-01,5.86227e-02,9.99999e-01,9.99999e-01,9.99999e-01,9.99995e-01,5.86229e-02,9.99999e-01
4.810655710e-01,6.20013e-02,9.99999e-01,9.99999e-01,9.99999e-01,9.99998e-01,6.20014e-02,9.99999e-01
4.834708988e-01,6.55012e-02,9.99999e-01,9.99999e-01,9.99999e-01,9.99987e-01,6.55020e-02,9.99999e-01
4.858882533e-01,6.91236e-02,9.99999e-01,9.99999e-01,9.99999e-01,9.99977e-01,6.91252e-02,9.99999e-01
4.883176946e-01,7.28699e-02,9.99999e-01,9.99999e-01,9.99999e-01,9.99980e-01,7.28713e-02,9.99999e-01
4.907592831e-01,7.67390e-02,9.99999e-01,9.99999e-01,9.99999e-01,9.99982e-01,7.67403e-02,9.99999e-01
4.932130795e-01,8.07313e-02,9.99999e-01,9.99999e-01,9.99999e-01,9.99987e-01,8.07323e-02,9.99999e-01
4.956791449e-01,8.48463e-02,9.99999e-01,9.99999e-01,9.99999e-01,9.99993e-01,8.48468e-02,9.99999e-01
4.981575406e-01,8.90808e-02,9.99999e-01,9.99999e-01,9.99999e-01,9.99967e-01,8.90836e-02,9.99999e-01
5.006483283e-01,9.34343e-02,9.99999e-01,9.99999e-01,9.99999e-01,9.99917e-01,9.34419e-02,9.99998e-01
5.031515699e-01,9.78799e-02,9.99999e-01,9.99999e-01,9.99999e-01,9.99583e-01,9.79211e-02,9.99995e-01
5.056673278e-01,1.02497e-01,9.99999e-01,9.99999e-01,9.99999e-01,9.99779e-01,1.02520e-01,9.99994e-01
5.081956644e-01,1.07208e-01,9.99999e-01,9.99999e-01,9.99999e-01,9.99722e-01,1.07238e-01,9.99996e-01
5.107366428e-01,1.12052e-01,9.99999e-01,9.99999e-01,9.99999e-01,9.99812e-01,1.12073e-01,9.99998e-01
5.132903260e-01,1.17012e-01,9.99999e-01,9.99999e-01,9.99999e-01,9.99892e-01,1.17024e-01,9.99999e-01
5.158567776e-01,1.22084e-01,9.99999e-01,9.99999e-01,9.99999e-01,9.99954e-01,1.22090e-01,9.99999e-01
5.184360615e-01,1.27266e-01,9.99999e-01,9.99999e-01,9.99999e-01,9.99981e-01,1.27268e-01,9.99999e-01
5.210282418e-01,1.32556e-01,9.99999e-01,9.99999e-01,9.99999e-01,9.99992e-01,1.32557e-01,9.99999e-01
5.236333830e-01,1.37952e-01,9.99999e-01,9.99999e-01,9.99999e-01,9.99972e-01,1.37955e-01,9.99999e-01
5.262515499e-01,1.43458e-01,9.99999e-01,9.99999e-01,9.99999e-01,9.99982e-01,1.43460e-01,9.99999e-01
5.288828077e-01,1.49067e-01,9.99999e-01,9.99999e-01,9.99999e-01,9.99983e-01,1.49069e-01,9.99999e-01
5.315272217e-01,1.54778e-01,9.99999e-01,9.99999e-01,9.99999e-01,9.99985e-01,1.54780e-01,9.99999e-01
5.341848578e-01,1.60589e-01,9.99999e-01,9.99999e-01,9.99999e-01,9.99990e-01,1.60591e-01,9.99999e-01
5.368557821e-01,1.66493e-01,9.99999e-01,9.99999e-01,9.99999e-01,9.99968e-01,1.66498e-01,9.99999e-01
5.395400610e-01,1.72480e-01,9.99999e-01,9.99999e-01,9.99999e-01,9.99886e-01,1.72500e-01,9.99998e-01
5.422377613e-01,1.78566e-01,9.99999e-01,9.99999e-01,9.99999e-01,9.99852e-01,1.78593e-01,9.99996e-01
5.449489501e-01,1.84748e-01,9.99999e-01,9.99999e-01,9.99999e-01,9.99862e-01,1.84774e-01,9.99996e-01
5.476736949e-01,1.91018e-01,9.99999e-01,9.99999e-01,9.99999e-01,9.99878e-01,1.91041e-01,9.99998e-01
5.504120634e-01,1.97373e-01,9.99999e-01,9.99999e-01,9.99999e-01,9.99911e-01,1.97391e-01,9.99999e-01
5.531641237e-01,2.03810e-01,9.99999e-01,9.99999e-01,9.99999e-01,9.99955e-01,2.03819e-01,9.99999e-01
5.559299443e-01,2.10320e-01,9.99999e-01,9.99999e-01,9.99999e-01,9.99978e-01,2.10324e-01,9.99999e-01
5.587095940e-01,2.16899e-01,9.99999e-01,9.99999e-01,9.99999e-01,9.99986e-01,2.16902e-01,9.99999e-01
5.615031420e-01,2.23547e-01,9.99999e-01,9.99999e-01,9.99999e-01,9.99984e-01,2.23550e-01,9.99999e-01
5.643106577e-01,2.30260e-01,9.99999e-01,9.99999e-01,9.99999e-01,9.99982e-01,2.30264e-01,9.99999e-01
5.671322110e-01,2.36992e-01,9.99999e-01,9.99999e-01,9.99999e-01,9.99795e-01,2.37041e-01,9.99997e-01
5.699678720e-01,2.43823e-01,9.99999e-01,9.99999e-01,9.99999e-01,9.99779e-01,2.43878e-01,9.99993e-01
5.728177114e-01,2.50713e-01,9.99999e-01,9.99999e-01,9.99999e-01,9.99771e-01,2.50771e-01,9.99994e-01
5.756818000e-01,2.57662e-01,9.99999e-01,9.99999e-01,9.99999e-01,9.99790e-01,2.57717e-01,9.99996e-01
5.785602090e-01,2.64664e-01,9.99999e-01,9.99999e-01,9.99999e-01,9.99817e-01,2.64712e-01,9.99998e-01
5.814530100e-01,2.71704e-01,9.99999e-01,9.99999e-01,9.99999e-01,9.99816e-01,2.71754e-01,9.99999e-01
5.843602750e-01,2.78777e-01,9.99999e-01,9.99999e-01,9.99999e-01,9.99782e-01,2.78838e-01,9.99998e-01
5.872820764e-01,2.85421e-01,9.99999e-01,9.99999e-01,9.99999e-01,9.98122e-01,2.85962e-01,9.99986e-01
5.902184868e-01,2.92442e-01,9.99999e-01,9.99999e-01,9.99999e-01,9.97717e-01,2.93121e-01,9.99963e-01
5.931695792e-01,2.99819e-01,9.99999e-01,9.99999e-01,9.99999e-01,9.98388e-01,3.00313e-01,9.99964e-01
5.961354271e-01,3.06985e-01,9.99999e-01,9.99999e-01,9.99999e-01,9.98232e-01,3.07534e-01,9.99979e-01
5.991161043e-01,3.14374e-01,9.99999e-01,9.99999e-01,9.99999e-01,9.98710e-01,3.14781e-01,9.99993e-01
6.021116848e-01,3.21815e-01,9.99999e-01,9.99999e-01,9.99999e-01,9.99267e-01,3.22051e-01,9.99998e-01
6.051222432e-01,3.29218e-01,9.99999e-01,9.99999e-01,9.99999e-01,9.99629e-01,3.29340e-01,9.99999e-01
6.081478544e-01,3.36591e-01,9.99999e-01,9.99999e-01,9.99999e-01,9.99839e-01,3.36645e-01,9.99999e-01
6.111885937e-01,3.43940e-01,9.99999e-01,9.99999e-01,9.99999e-01,9.99931e-01,3.43963e-01,9.99999e-01
6.142445367e-01,3.51280e-01,9.99999e-01,9.99999e-01,9.99999e-01,9.99969e-01,3.51291e-01,9.99999e-01
6.173157594e-01,3.58619e-01,9.99999e-01,9.99999e-01,9.99999e-01,9.99982e-01,3.58625e-01,9.99999e-01
6.204023382e-01,3.65958e-01,9.99999e-01,9.99999e-01,9.99999e-01,9.99985e-01,3.65963e-01,9.99999e-01
6.235043498e-01,3.73279e-01,9.99999e-01,9.99999e-01,9.99999e-01,9.99938e-01,3.73302e-01,9.99999e-01
6.266218716e-01,3.80514e-01,9.99999e-01,9.99999e-01,9.99999e-01,9.99671e-01,3.80639e-01,9.99997e-01
6.297549810e-01,3.87923e-01,9.99999e-01,9.99999e-01,9.99999e-01,9.99879e-01,3.87971e-01,9.99994e-01
6.329037559e-01,3.95200e-01,9.99999e-01,9.99999e-01,9.99999e-01,9.99761e-01,3.95295e-01,9.99995e-01
6.360682746e-01,4.02527e-01,9.99999e-01,9.99999e-01,9.99999e-01,9.99797e-01,4.02609e-01,9.99997e-01
6.392486160e-01,4.09802e-01,9.99999e-01,9.99999e-01,9.99999e-01,9.99737e-01,4.09910e-01,9.99998e-01
6.424448591e-01,4.17048e-01,9.99999e-01,9.99999e-01,9.99999e-01,9.99649e-01,4.17194e-01,9.99997e-01
6.456570834e-01,4.23767e-01,9.99999e-01,9.99999e-01,9.99999e-01,9.98374e-01,4.24461e-01,9.99990e-01
6.488853688e-01,4.31180e-01,9.99999e-01,9.99999e-01,9.99999e-01,9.98804e-01,4.31707e-01,9.99974e-01
6.521297956e-01,4.38385e-01,9.99999e-01,9.99999e-01,9.99999e-01,9.98780e-01,4.38929e-01,9.99978e-01
6.553904446e-01,4.45582e-01,9.99999e-01,9.99999e-01,9.99999e-01,9.98794e-01,4.46127e-01,9.99983e-01
6.586673968e-01,4.52823e-01,9.99999e-01,9.99999e-01,9.99999e-01,9.98960e-01,4.53296e-01,9.99994e-01
6.619607338e-01,4.60159e-01,9.99999e-01,9.99999e-01,9.99999e-01,9.99399e-01,4.60436e-01,9.99998e-01
6.652705375e-01,4.67382e-01,9.99999e-01,9.99999e-01,9.99999e-01,9.99651e-01,4.67544e-01,9.99998e-01
6.685968902e-01,4.74542e-01,9.99999e-01,9.99999e-01,9.99999e-01,9.99838e-01,4.74619e-01,9.99999e-01
6.719398746e-01,4.81621e-01,9.99999e-01,9.99999e-01,9.99999e-01,9.99924e-01,4.81657e-01,9.99999e-01
6.752995740e-01,4.88637e-01,9.99999e-01,9.99999e-01,9.99999e-01,9.99959e-01,4.88657e-01,9.99999e-01
6.786760719e-01,4.95589e-01,9.99999e-01,9.99999e-01,9.99999e-01,9.99941e-01,4.95618e-01,9.99999e-01
6.820694522e-01,5.02488e-01,9.99999e-01,9.99999e-01,9.99999e-01,9.99899e-01,5.02538e-01,9.99998e-01
6.854797995e-01,5.09349e-01,9.99999e-01,9.99999e-01,9.99999e-01,9.99870e-01,5.09415e-01,9.99998e-01
6.889071985e-01,5.16086e-01,9.99999e-01,9.99999e-01,9.99999e-01,9.99689e-01,5.16247e-01,9.99996e-01
6.923517345e-01,5.20360e-01,9.99999e-01,9.99999e-01,9.99999e-01,9.94912e-01,5.23033e-01,9.99975e-01
6.958134932e-01,5.28328e-01,9.99999e-01,9.99999e-01,9.99999e-01,9.97329e-01,5.29772e-01,9.99944e-01
6.992925606e-01,5.35087e-01,9.99999e-01,9.99999e-01,9.99999e-01,9.97484e-01,5.36462e-01,9.99951e-01
7.027890234e-01,5.41390e-01,9.99999e-01,9.99999e-01,9.99999e-01,9.96884e-01,5.43102e-01,9.99962e-01
7.063029686e-01,5.48241e-01,9.99999e-01,9.99999e-01,9.99999e-01,9.97382e-01,5.49690e-01,9.99980e-01
7.098344834e-01,5.54823e-01,9.99999e-01,9.99999e-01,9.99999e-01,9.97488e-01,5.56226e-01,9.99988e-01
7.133836558e-01,5.60822e-01,9.99999e-01,9.99999e-01,9.99999e-01,9.96668e-01,5.62708e-01,9.99977e-01
7.169505741e-01,5.53858e-01,9.99999e-01,9.99999e-01,9.99999e-01,9.73321e-01,5.69136e-01,9.99828e-01
7.205353270e-01,5.67726e-01,9.99999e-01,9.99999e-01,9.99999e-01,9.86777e-01,5.75507e-01,9.99697e-01
7.241380036e-01,5.71984e-01,9.99999e-01,9.99999e-01,9.99999e-01,9.83347e-01,5.81822e-01,9.99738e-01
7.277586936e-01,5.79109e-01,9.99999e-01,9.99999e-01,9.99999e-01,9.84954e-01,5.88080e-01,9.99786e-01
7.313974871e-01,5.84702e-01,9.99999e-01,9.99999e-01,9.99999e-01,9.83982e-01,5.94279e-01,9.99899e-01
7.350544745e-01,5.95136e-01,9.99999e-01,9.99999e-01,9.99999e-01,9.91234e-01,6.00420e-01,9.99964e-01
7.387297469e-01,6.02576e-01,9.99999e-01,9.99999e-01,9.99999e-01,9.93545e-01,6.06500e-01,9.99983e-01
7.424233956e-01,6.10581e-01,9.99999e-01,9.99999e-01,9.99999e-01,9.96836e-01,6.12520e-01,9.99996e-01
7.461355126e-01,6.17294e-01,9.99999e-01,9.99999e-01,9.99999e-01,9.98083e-01,6.18480e-01,9.99998e-01
7.498661902e-01,6.23820e-01,9.99999e-01,9.99999e-01,9.99999e-01,9.99106e-01,6.24377e-01,9.99999e-01
7.536155211e-01,6.29938e-01,9.99999e-01,9.99999e-01,9.99999e-01,9.99561e-01,6.30213e-01,9.99999e-01
7.573835987e-01,6.35844e-01,9.99999e-01,9.99999e-01,9.99999e-01,9.99774e-01,6.35987e-01,9.99999e-01
7.611705167e-01,6.41608e-01,9.99999e-01,9.99999e-01,9.99999e-01,9.99859e-01,6.41698e-01,9.99999e-01
7.649763693e-01,6.47289e-01,9.99999e-01,9.99999e-01,9.99999e-01,9.99911e-01,6.47346e-01,9.99999e-01
7.688012511e-01,6.52890e-01,9.99999e-01,9.99999e-01,9.99999e-01,9.99938e-01,6.52930e-01,9.99999e-01
7.726452574e-01,6.58418e-01,9.99999e-01,9.99999e-01,9.99999e-01,9.99949e-01,6.58451e-01,9.99999e-01
7.765084837e-01,6.63861e-01,9.99999e-01,9.99999e-01,9.99999e-01,9.99928e-01,6.63909e-01,9.99999e-01
7.803910261e-01,6.56245e-01,9.99999e-01,9.99999e-01,9.80787e-01,9.99692e-01,6.69302e-01,9.99999e-01
7.842929812e-01,6.19129e-01,9.99999e-01,9.99999e-01,9.18687e-01,9.98927e-01,6.74631e-01,9.99997e-01
7.882144461e-01,6.19494e-01,9.99999e-01,9.99999e-01,9.13149e-01,9.97783e-01,6.79896e-01,9.99985e-01
7.921555184e-01,6.49421e-01,9.99999e-01,9.99999e-01,9.49089e-01,9.98781e-01,6.85098e-01,9.99973e-01
7.961162960e-01,6.65061e-01,9.99999e-01,9.99999e-01,9.65611e-01,9.97856e-01,6.90235e-01,9.99974e-01
8.000968774e-01,6.80553e-01,9.99999e-01,9.99999e-01,9.81235e-01,9.97519e-01,6.95308e-01,9.99972e-01
8.040973618e-01,6.91739e-01,9.99999e-01,9.99999e-01,9.90225e-01,9.97519e-01,7.00316e-01,9.99978e-01
8.081178486e-01,6.98172e-01,9.99999e-01,9.99999e-01,9.95510e-01,9.94426e-01,7.05261e-01,9.99979e-01
8.121584379e-01,6.92714e-01,9.99999e-01,9.99999e-01,9.98606e-01,9.76886e-01,7.10143e-01,9.99921e-01
8.162192301e-01,6.94871e-01,9.99999e-01,9.99999e-01,9.99691e-01,9.72482e-01,7.14960e-01,9.99705e-01
8.203003262e-01,7.09558e-01,9.99999e-01,9.99999e-01,9.99994e-01,9.86231e-01,7.19714e-01,9.99655e-01
8.244018279e-01,7.10128e-01,9.99999e-01,9.99999e-01,9.99999e-01,9.80558e-01,7.24405e-01,9.99725e-01
8.285238370e-01,7.16894e-01,9.99999e-01,9.99999e-01,9.99999e-01,9.83559e-01,7.29033e-01,9.99784e-01
8.326664562e-01,7.21317e-01,9.99999e-01,9.99999e-01,9.99999e-01,9.83345e-01,7.33598e-01,9.99910e-01
8.368297885e-01,7.29295e-01,9.99999e-01,9.99999e-01,9.99999e-01,9.88089e-01,7.38101e-01,9.99979e-01
8.410139374e-01,7.37269e-01,9.99999e-01,9.99999e-01,9.99999e-01,9.92910e-01,7.42542e-01,9.99987e-01
8.452190071e-01,7.44315e-01,9.99999e-01,9.99999e-01,9.99999e-01,9.96518e-01,7.46921e-01,9.99992e-01
8.494451021e-01,7.49719e-01,9.99999e-01,9.99999e-01,9.99999e-01,9.97982e-01,7.51238e-01,9.99993e-01
8.536923276e-01,7.54589e-01,9.99999e-01,9.99999e-01,9.99999e-01,9.98804e-01,7.55495e-01,9.99996e-01
8.579607893e-01,7.59131e-01,9.99999e-01,9.99999e-01,9.99999e-01,9.99264e-01,7.59690e-01,9.99998e-01
8.622505932e-01,7.63469e-01,9.99999e-01,9.99999e-01,9.99999e-01,9.99532e-01,7.63826e-01,9.99999e-01
8.665618462e-01,7.29563e-01,9.99999e-01,9.99999e-01,9.50340e-01,9.99711e-01,7.67901e-01,9.99999e-01
8.708946554e-01,6.20618e-01,9.99999e-01,9.99999e-01,8.04254e-01,9.99669e-01,7.71918e-01,9.99999e-01
8.752491287e-01,6.51817e-01,9.99999e-01,9.99999e-01,8.40470e-01,9.99557e-01,7.75875e-01,9.99999e-01
8.796253743e-01,7.08946e-01,9.99999e-01,9.99999e-01,9.09715e-01,9.99388e-01,7.79774e-01,9.99998e-01
8.840235012e-01,7.45750e-01,9.99999e-01,9.99999e-01,9.52342e-01,9.99301e-01,7.83614e-01,9.99995e-01
8.884436187e-01,7.70439e-01,9.99999e-01,9.99999e-01,9.80944e-01,9.97467e-01,7.87398e-01,9.99987e-01
8.928858368e-01,7.64094e-01,9.99999e-01,9.99999e-01,9.92251e-01,9.73407e-01,7.91124e-01,9.99929e-01
8.973502660e-01,7.55895e-01,9.99999e-01,9.99999e-01,9.98108e-01,9.53180e-01,7.94794e-01,9.99641e-01
9.018370173e-01,7.78445e-01,9.99999e-01,9.99999e-01,9.99790e-01,9.75744e-01,7.98408e-01,9.99437e-01
9.063462024e-01,7.80481e-01,9.99999e-01,9.99999e-01,9.94700e-01,9.78786e-01,8.01966e-01,9.99505e-01
9.108779334e-01,7.69084e-01,9.99999e-01,9.99999e-01,9.87801e-01,9.67032e-01,8.05470e-01,9.99486e-01
9.154323231e-01,7.76145e-01,9.99999e-01,9.99999e-01,9.97114e-01,9.62635e-01,8.08919e-01,9.99575e-01
9.200094847e-01,7.55807e-01,9.99999e-01,9.99999e-01,9.58016e-01,9.70562e-01,8.12314e-01,9.99762e-01
9.246095321e-01,7.33210e-01,9.99999e-01,9.99999e-01,9.41631e-01,9.54297e-01,8.15656e-01,9.99725e-01
9.292325798e-01,5.70003e-01,9.99999e-01,9.99999e-01,9.53959e-01,7.28158e-01,8.18946e-01,9.98932e-01
9.338787427e-01,5.19495e-01,9.99999e-01,9.99999e-01,9.55403e-01,6.62240e-01,8.22183e-01,9.95596e-01
9.385481364e-01,6.73492e-01,9.99999e-01,9.99999e-01,9.67108e-01,8.47203e-01,8.25369e-01,9.94765e-01
9.432408771e-01,6.40993e-01,9.99999e-01,9.99999e-01,9.79737e-01,7.92718e-01,8.28504e-01,9.95482e-01
9.479570815e-01,5.93596e-01,9.99999e-01,9.99999e-01,9.89567e-01,7.23741e-01,8.31588e-01,9.96321e-01
9.526968669e-01,6.51580e-01,9.99999e-01,9.99999e-01,9.94952e-01,7.86191e-01,8.34623e-01,9.97754e-01
9.574603512e-01,6.71716e-01,9.99999e-01,9.99999e-01,9.97838e-01,8.04532e-01,8.37609e-01,9.98858e-01
9.622476530e-01,7.03525e-01,9.99999e-01,9.99999e-01,9.99325e-01,8.38193e-01,8.40545e-01,9.99210e-01
9.670588912e-01,7.61498e-01,9.99999e-01,9.99999e-01,9.99797e-01,9.03518e-01,8.43434e-01,9.99459e-01
9.718941857e-01,7.94213e-01,9.99999e-01,9.99999e-01,9.99985e-01,9.38865e-01,8.46276e-01,9.99602e-01
9.767536566e-01,8.05533e-01,9.99999e-01,9.99999e-01,9.99999e-01,9.49011e-01,8.49071e-01,9.99695e-01
9.816374249e-01,8.19332e-01,9.99999e-01,9.99999e-01,9.99999e-01,9.61962e-01,8.51819e-01,9.99894e-01
9.865456120e-01,8.34063e-01,9.99999e-01,9.99999e-01,9.99999e-01,9.76079e-01,8.54522e-01,9.99977e-01
9.914783401e-01,8.44454e-01,9.99999e-01,9.99999e-01,9.99999e-01,9.85160e-01,8.57179e-01,9.99993e-01
9.964357318e-01,8.52819e-01,9.99999e-01,9.99999e-01,9.99999e-01,9.91892e-01,8.59793e-01,9.99995e-01
1.001417910e+00,8.58162e-01,9.99999e-01,9.99999e-01,9.99999e-01,9.95133e-01,8.62362e-01,9.99994e-01
1.006425000e+00,8.62483e-01,9.99999e-01,9.99999e-01,9.99999e-01,9.97226e-01,8.64888e-01,9.99991e-01
1.011457125e+00,8.65870e-01,9.99999e-01,9.99999e-01,9.99999e-01,9.98275e-01,8.67371e-01,9.99992e-01
1.016514411e+00,8.68791e-01,9.99999e-01,9.99999e-01,9.99999e-01,9.98829e-01,8.69813e-01,9.99994e-01
1.021596983e+00,8.71372e-01,9.99999e-01,9.99999e-01,9.99972e-01,9.99067e-01,8.72212e-01,9.99994e-01
1.026704968e+00,8.72134e-01,9.99999e-01,9.99999e-01,9.97941e-01,9.99273e-01,8.74571e-01,9.99996e-01
1.031838492e+00,8.51577e-01,9.99999e-01,9.99999e-01,9.71637e-01,9.99471e-01,8.76889e-01,9.99998e-01
1.036997685e+00,2.27271e-01,9.99999e-01,9.99999e-01,2.58574e-01,9.99685e-01,8.79168e-01,9.99999e-01
1.042182673e+00,2.60050e-01,9.99999e-01,9.99999e-01,2.95142e-01,9.99626e-01,8.81407e-01,9.99999e-01
1.047393587e+00,2.50451e-01,9.99999e-01,9.99999e-01,2.83569e-01,9.99504e-01,8.83607e-01,9.99999e-01
1.052630555e+00,2.95335e-02,9.99999e-01,9.99999e-01,3.33599e-02,9.99319e-01,8.85770e-01,9.99999e-01
1.057893707e+00,5.81164e-02,9.99999e-01,9.99999e-01,6.55111e-02,9.98865e-01,8.87894e-01,9.99999e-01
1.063183176e+00,1.22733e-01,9.99999e-01,9.99999e-01,1.38111e-01,9.98132e-01,8.89982e-01,9.99998e-01
1.068499092e+00,2.35551e-01,9.99999e-01,9.99999e-01,2.64806e-01,9.96872e-01,8.92033e-01,9.99997e-01
1.073841587e+00,3.85068e-01,9.99999e-01,9.99999e-01,4.32127e-01,9.96342e-01,8.94049e-01,9.99994e-01
