#,Wave/freq,Total,N2,O2,CO2,H2O,Rayleigh,CIA
4.000000000e-01,8.14499e-09,9.99999e-01,9.99999e-01,9.99999e-01,9.99963e-01,8.14528e-09,9.99999e-01
4.020000000e-01,1.17717e-08,9.99999e-01,9.99999e-01,9.99999e-01,9.99977e-01,1.17719e-08,9.99999e-01
4.040100000e-01,1.68836e-08,9.99999e-01,9.99999e-01,9.99999e-01,9.99990e-01,1.68837e-08,9.99999e-01
4.060300500e-01,2.40433e-08,9.99999e-01,9.99999e-01,9.99999e-01,9.99997e-01,2.40434e-08,9.99999e-01
4.080602003e-01,3.40008e-08,9.99999e-01,9.99999e-01,9.99999e-01,9.99998e-01,3.40008e-08,9.99999e-01
4.101005013e-01,4.77542e-08,9.99999e-01,9.99999e-01,9.99999e-01,9.99999e-01,4.77542e-08,9.99999e-01
4.121510038e-01,6.66221e-08,9.99999e-01,9.99999e-01,9.99999e-01,9.99998e-01,6.66222e-08,9.99999e-01
4.142117588e-01,9.23349e-08,9.99999e-01,9.99999e-01,9.99999e-01,9.99989e-01,9.23358e-08,9.99999e-01
4.162828176e-01,1.27146e-07,9.99999e-01,9.99999e-01,9.99999e-01,9.99955e-01,1.27152e-07,9.99999e-01
4.183642317e-01,1.73987e-07,9.99999e-01,9.99999e-01,9.99999e-01,9.99973e-01,1.73992e-07,9.99999e-01
4.204560528e-01,2.36612e-07,9.99999e-01,9.99999e-01,9.99999e-01,9.99983e-01,2.36616e-07,9.99999e-01
4.225583331e-01,3.19831e-07,9.99999e-01,9.99999e-01,9.99999e-01,9.99993e-01,3.19833e-07,9.99999e-01
4.246711247e-01,4.29750e-07,9.99999e-01,9.99999e-01,9.99999e-01,9.99994e-01,4.29752e-07,9.99999e-01
4.267944804e-01,5.74082e-07,9.99999e-01,9.99999e-01,9.99999e-01,9.99992e-01,5.74086e-07,9.99999e-01
4.289284528e-01,7.62519e-07,9.99999e-01,9.99999e-01,9.99999e-01,9.99994e-01,7.62523e-07,9.99999e-01
4.310730950e-01,1.00715e-06,9.99999e-01,9.99999e-01,9.99999e-01,9.99997e-01,1.00715e-06,9.99999e-01
4.332284605e-01,1.32296e-06,9.99999e-01,9.99999e-01,9.99999e-01,9.99998e-01,1.32296e-06,9.99999e-01
4.353946028e-01,1.72847e-06,9.99999e-01,9.99999e-01,9.99999e-01,9.99999e-01,1.72847e-06,9.99999e-01
4.375715758e-01,2.24636e-06,9.99999e-01,9.99999e-01,9.99999e-01,9.99995e-01,2.24637e-06,9.99999e-01
4.397594337e-01,2.90427e-06,9.99999e-01,9.99999e-01,9.99999e-01,9.99960e-01,2.90438e-06,9.99999e-01
4.419582309e-01,3.73539e-06,9.99999e-01,9.99999e-01,9.99999e-01,9.99800e-01,3.73613e-06,9.99999e-01
4.441680220e-01,4.78149e-06,9.99999e-01,9.99999e-01,9.99999e-01,9.99845e-01,4.78223e-06,9.99999e-01
4.463888621e-01,6.09048e-06,9.99999e-01,9.99999e-01,9.99999e-01,9.99838e-01,6.09145e-06,9.99999e-01
4.486208064e-01,7.72134e-06,9.99999e-01,9.99999e-01,9.99999e-01,9.99899e-01,7.72210e-06,9.99999e-01
4.508639105e-01,9.74306e-06,9.99999e-01,9.99999e-01,9.99999e-01,9.99952e-01,9.74351e-06,9.99999e-01
4.531182300e-01,1.22375e-05,9.99999e-01,9.99999e-01,9.99999e-01,9.99981e-01,1.22377e-05,9.99999e-01
4.553838212e-01,1.53012e-05,9.99999e-01,9.99999e-01,9.99999e-01,9.99986e-01,1.53014e-05,9.99999e-01
4.576607403e-01,1.90477e-05,9.99999e-01,9.99999e-01,9.99999e-01,9.99993e-01,1.90478e-05,9.99999e-01
4.599490440e-01,2.36090e-05,9.99999e-01,9.99999e-01,9.99999e-01,9.99995e-01,2.36091e-05,9.99999e-01
4.622487892e-01,2.91388e-05,9.99999e-01,9.99999e-01,9.99999e-01,9.99998e-01,2.91388e-05,9.99999e-01
4.645600332e-01,3.58145e-05,9.99999e-01,9.99999e-01,9.99999e-01,9.99996e-01,3.58146e-05,9.99999e-01
4.668828333e-01,4.38387e-05,9.99999e-01,9.99999e-01,9.99999e-01,9.99952e-01,4.38408e-05,9.99999e-01
4.692172475e-01,5.34464e-05,9.99999e-01,9.99999e-01,9.99999e-01,9.99898e-01,5.34518e-05,9.99999e-01
4.715633337e-01,6.49108e-05,9.99999e-01,9.99999e-01,9.99999e-01,9.99933e-01,6.49151e-05,9.99999e-01
4.739211504e-01,7.85299e-05,9.99999e-01,9.99999e-01,9.99999e-01,9.99936e-01,7.85348e-05,9.99999e-01
4.762907561e-01,9.46522e-05,9.99999e-01,9.99999e-01,9.99999e-01,9.99966e-01,9.46553e-05,9.99999e-01
4.786722099e-01,1.13663e-04,9.99999e-01,9.99999e-01,9.99999e-01,9.99986e-01,1.13665e-04,9.99999e-01
4.810655710e-01,1.35999e-04,9.99999e-01,9.99999e-01,9.99999e-01,9.99995e-01,1.35999e-04,9.99999e-01
4.834708988e-01,1.62141e-04,9.99999e-01,9.99999e-01,9.99999e-01,9.99960e-01,1.62147e-04,9.99999e-01
4.858882533e-01,1.92638e-04,9.99999e-01,9.99999e-01,9.99999e-01,9.99928e-01,1.92652e-04,9.99999e-01
4.883176946e-01,2.28103e-04,9.99999e-01,9.99999e-01,9.99999e-01,9.99939e-01,2.28117e-04,9.99999e-01
4.907592831e-01,2.69197e-04,9.99999e-01,9.99999e-01,9.99999e-01,9.99945e-01,2.69211e-04,9.99999e-01
4.932130795e-01,3.16658e-04,9.99999e-01,9.99999e-01,9.99999e-01,9.99961e-01,3.16671e-04,9.99999e-01
4.956791449e-01,3.71296e-04,9.99999e-01,9.99999e-01,9.99999e-01,9.99979e-01,3.71304e-04,9.99999e-01
4.981575406e-01,4.33952e-04,9.99999e-01,9.99999e-01,9.99999e-01,9.99897e-01,4.33996e-04,9.99999e-01
5.006483283e-01,5.05578e-04,9.99999e-01,9.99999e-01,9.99999e-01,9.99735e-01,5.05713e-04,9.99997e-01
5.031515699e-01,5.86711e-04,9.99999e-01,9.99999e-01,9.99999e-01,9.98666e-01,5.87503e-04,9.99985e-01
5.056673278e-01,6.80014e-04,9.99999e-01,9.99999e-01,9.99999e-01,9.99297e-01,6.80503e-04,9.99983e-01
5.081956644e-01,7.85236e-04,9.99999e-01,9.99999e-01,9.99999e-01,9.99113e-01,7.85940e-04,9.99989e-01
5.107366428e-01,9.04592e-04,9.99999e-01,9.99999e-01,9.99999e-01,9.99401e-01,9.05134e-04,9.99997e-01
5.132903260e-01,1.03915e-03,9.99999e-01,9.99999e-01,9.99999e-01,9.99658e-01,1.03950e-03,9.99999e-01
5.158567776e-01,1.19039e-03,9.99999e-01,9.99999e-01,9.99999e-01,9.99855e-01,1.19056e-03,9.99999e-01
5.184360615e-01,1.35984e-03,9.99999e-01,9.99999e-01,9.99999e-01,9.99941e-01,1.35991e-03,9.99999e-01
5.210282418e-01,1.54925e-03,9.99999e-01,9.99999e-01,9.99999e-01,9.99977e-01,1.54929e-03,9.99999e-01
5.236333830e-01,1.76034e-03,9.99999e-01,9.99999e-01,9.99999e-01,9.99912e-01,1.76049e-03,9.99998e-01
5.262515499e-01,1.99533e-03,9.99999e-01,9.99999e-01,9.99999e-01,9.99945e-01,1.99544e-03,9.99998e-01
5.288828077e-01,2.25605e-03,9.99999e-01,9.99999e-01,9.99999e-01,9.99949e-01,2.25616e-03,9.99998e-01
5.315272217e-01,2.54465e-03,9.99999e-01,9.99999e-01,9.99999e-01,9.99955e-01,2.54477e-03,9.99999e-01
5.341848578e-01,2.86339e-03,9.99999e-01,9.99999e-01,9.99999e-01,9.99970e-01,2.86347e-03,9.99999e-01
5.368557821e-01,3.21426e-03,9.99999e-01,9.99999e-01,9.99999e-01,9.99898e-01,3.21459e-03,9.99999e-01
5.395400610e-01,3.59919e-03,9.99999e-01,9.99999e-01,9.99999e-01,9.99632e-01,3.60052e-03,9.99996e-01
5.422377613e-01,4.02185e-03,9.99999e-01,9.99999e-01,9.99999e-01,9.99528e-01,4.02377e-03,9.99990e-01
5.449489501e-01,4.48491e-03,9.99999e-01,9.99999e-01,9.99999e-01,9.99560e-01,4.48692e-03,9.99990e-01
5.476736949e-01,4.99066e-03,9.99999e-01,9.99999e-01,9.99999e-01,9.99611e-01,4.99261e-03,9.99995e-01
5.504120634e-01,5.54203e-03,9.99999e-01,9.99999e-01,9.99999e-01,9.99718e-01,5.54360e-03,9.99998e-01
5.531641237e-01,6.14180e-03,9.99999e-01,9.99999e-01,9.99999e-01,9.99857e-01,6.14267e-03,9.99999e-01
5.559299443e-01,6.79224e-03,9.99999e-01,9.99999e-01,9.99999e-01,9.99931e-01,6.79270e-03,9.99999e-01
5.587095940e-01,7.49629e-03,9.99999e-01,9.99999e-01,9.99999e-01,9.99956e-01,7.49661e-03,9.99999e-01
5.615031420e-01,8.25698e-03,9.99999e-01,9.99999e-01,9.99999e-01,9.99951e-01,8.25737e-03,9.99999e-01
5.643106577e-01,9.07748e-03,9.99999e-01,9.99999e-01,9.99999e-01,9.99945e-01,9.07798e-03,9.99999e-01
5.671322110e-01,9.95481e-03,9.99999e-01,9.99999e-01,9.99999e-01,9.99334e-01,9.96149e-03,9.99993e-01
5.699678720e-01,1.09031e-02,9.99999e-01,9.99999e-01,9.99999e-01,9.99301e-01,1.09109e-02,9.99981e-01
5.728177114e-01,1.19205e-02,9.99999e-01,9.99999e-01,9.99999e-01,9.99269e-01,1.19294e-02,9.99984e-01
5.756818000e-01,1.30112e-02,9.99999e-01,9.99999e-01,9.99999e-01,9.99330e-01,1.30200e-02,9.99990e-01
5.785602090e-01,1.41774e-02,9.99999e-01,9.99999e-01,9.99999e-01,9.99416e-01,1.41857e-02,9.99997e-01
5.814530100e-01,1.54206e-02,9.99999e-01,9.99999e-01,9.99999e-01,9.99413e-01,1.54297e-02,9.99998e-01
5.843602750e-01,1.67431e-02,9.99999e-01,9.99999e-01,9.99999e-01,9.99298e-01,1.67549e-02,9.99995e-01
5.872820764e-01,1.80540e-02,9.99999e-01,9.99999e-01,9.99999e-01,9.93968e-01,1.81643e-02,9.99957e-01
5.902184868e-01,1.95157e-02,9.99999e-01,9.99999e-01,9.99999e-01,9.92725e-01,1.96609e-02,9.99884e-01
5.931695792e-01,2.11358e-02,9.99999e-01,9.99999e-01,9.99999e-01,9.94850e-01,2.12476e-02,9.99888e-01
5.961354271e-01,2.27964e-02,9.99999e-01,9.99999e-01,9.99999e-01,9.94361e-01,2.29271e-02,9.99935e-01
5.991161043e-01,2.46002e-02,9.99999e-01,9.99999e-01,9.99999e-01,9.95887e-01,2.47023e-02,9.99979e-01
6.021116848e-01,2.65136e-02,9.99999e-01,9.99999e-01,9.99999e-01,9.97665e-01,2.65757e-02,9.99997e-01
6.051222432e-01,2.85162e-02,9.99999e-01,9.99999e-01,9.99999e-01,9.98818e-01,2.85499e-02,9.99999e-01
6.081478544e-01,3.06118e-02,9.99999e-01,9.99999e-01,9.99999e-01,9.99489e-01,3.06274e-02,9.99999e-01
6.111885937e-01,3.28035e-02,9.99999e-01,9.99999e-01,9.99999e-01,9.99784e-01,3.28105e-02,9.99999e-01
6.142445367e-01,3.50981e-02,9.99999e-01,9.99999e-01,9.99999e-01,9.99903e-01,3.51015e-02,9.99999e-01
6.173157594e-01,3.75004e-02,9.99999e-01,9.99999e-01,9.99999e-01,9.99946e-01,3.75024e-02,9.99999e-01
6.204023382e-01,4.00134e-02,9.99999e-01,9.99999e-01,9.99999e-01,9.99954e-01,4.00152e-02,9.99999e-01
6.235043498e-01,4.26331e-02,9.99999e-01,9.99999e-01,9.99999e-01,9.99799e-01,4.26417e-02,9.99999e-01
6.266218716e-01,4.53356e-02,9.99999e-01,9.99999e-01,9.99999e-01,9.98949e-01,4.53835e-02,9.99992e-01
6.297549810e-01,4.82230e-02,9.99999e-01,9.99999e-01,9.99999e-01,9.99614e-01,4.82423e-02,9.99984e-01
6.329037559e-01,5.11798e-02,9.99999e-01,9.99999e-01,9.99999e-01,9.99239e-01,5.12193e-02,9.99987e-01
6.360682746e-01,5.42801e-02,9.99999e-01,9.99999e-01,9.99999e-01,9.99350e-01,5.43157e-02,9.99992e-01
6.392486160e-01,5.74841e-02,9.99999e-01,9.99999e-01,9.99999e-01,9.99159e-01,5.75326e-02,9.99996e-01
6.424448591e-01,6.08017e-02,9.99999e-01,9.99999e-01,9.99999e-01,9.98871e-01,6.08707e-02,9.99993e-01
6.456570834e-01,6.39924e-02,9.99999e-01,9.99999e-01,9.99999e-01,9.94769e-01,6.43309e-02,9.99967e-01
6.488853688e-01,6.76492e-02,9.99999e-01,9.99999e-01,9.99999e-01,9.96188e-01,6.79135e-02,9.99918e-01
6.521297956e-01,7.13360e-02,9.99999e-01,9.99999e-01,9.99999e-01,9.96115e-01,7.16189e-02,9.99932e-01
6.553904446e-01,7.51512e-02,9.99999e-01,9.99999e-01,9.99999e-01,9.96124e-01,7.54473e-02,9.99949e-01
6.586673968e-01,7.91344e-02,9.99999e-01,9.99999e-01,9.99999e-01,9.96687e-01,7.93987e-02,9.99982e-01
6.619607338e-01,8.33183e-02,9.99999e-01,9.99999e-01,9.99999e-01,9.98153e-01,8.34727e-02,9.99995e-01
6.652705375e-01,8.75718e-02,9.99999e-01,9.99999e-01,9.99999e-01,9.98891e-01,8.76692e-02,9.99997e-01
6.685968902e-01,9.19440e-02,9.99999e-01,9.99999e-01,9.99999e-01,9.99528e-01,9.19874e-02,9.99999e-01
6.719398746e-01,9.64037e-02,9.99999e-01,9.99999e-01,9.99999e-01,9.99761e-01,9.64267e-02,9.99999e-01
6.752995740e-01,1.00973e-01,9.99999e-01,9.99999e-01,9.99999e-01,9.99870e-01,1.00986e-01,9.99999e-01
6.786760719e-01,1.05645e-01,9.99999e-01,9.99999e-01,9.99999e-01,9.99812e-01,1.05665e-01,9.99999e-01
6.820694522e-01,1.10426e-01,9.99999e-01,9.99999e-01,9.99999e-01,9.99679e-01,1.10461e-01,9.99997e-01
6.854797995e-01,1.15326e-01,9.99999e-01,9.99999e-01,9.99999e-01,9.99586e-01,1.15374e-01,9.99995e-01
6.889071985e-01,1.20280e-01,9.99999e-01,9.99999e-01,9.99999e-01,9.98991e-01,1.20402e-01,9.99990e-01
6.923517345e-01,1.23491e-01,9.99999e-01,9.99999e-01,9.99999e-01,9.83728e-01,1.25543e-01,9.99921e-01
6.958134932e-01,1.29674e-01,9.99999e-01,9.99999e-01,9.99999e-01,9.91594e-01,1.30796e-01,9.99826e-01
6.992925606e-01,1.35039e-01,9.99999e-01,9.99999e-01,9.99999e-01,9.91930e-01,1.36158e-01,9.99843e-01
7.027890234e-01,1.40207e-01,9.99999e-01,9.99999e-01,9.99999e-01,9.90082e-01,1.41628e-01,9.99880e-01
7.063029686e-01,1.45965e-01,9.99999e-01,9.99999e-01,9.99999e-01,9.91652e-01,1.47203e-01,9.99940e-01
7.098344834e-01,1.51651e-01,9.99999e-01,9.99999e-01,9.99999e-01,9.91989e-01,1.52880e-01,9.99964e-01
7.133836558e-01,1.56946e-01,9.99999e-01,9.99999e-01,9.99999e-01,9.89277e-01,1.58658e-01,9.99929e-01
7.169505741e-01,1.50849e-01,9.99999e-01,9.99999e-01,9.99999e-01,9.17327e-01,1.64534e-01,9.99451e-01
7.205353270e-01,1.63352e-01,9.99999e-01,9.99999e-01,9.99999e-01,9.58978e-01,1.70505e-01,9.99032e-01
7.241380036e-01,1.67207e-01,9.99999e-01,9.99999e-01,9.99999e-01,9.47774e-01,1.76568e-01,9.99164e-01
7.277586936e-01,1.73973e-01,9.99999e-01,9.99999e-01,9.99999e-01,9.52777e-01,1.82720e-01,9.99316e-01
7.313974871e-01,1.79449e-01,9.99999e-01,9.99999e-01,9.99999e-01,9.49971e-01,1.88960e-01,9.99679e-01
7.350544745e-01,1.89857e-01,9.99999e-01,9.99999e-01,9.99999e-01,9.72329e-01,1.95282e-01,9.99888e-01
7.387297469e-01,1.97554e-01,9.99999e-01,9.99999e-01,9.99999e-01,9.79565e-01,2.01685e-01,9.99948e-01
7.424233956e-01,2.06074e-01,9.99999e-01,9.99999e-01,9.99999e-01,9.89961e-01,2.08165e-01,9.99990e-01
7.461355126e-01,2.13410e-01,9.99999e-01,9.99999e-01,9.99999e-01,9.93901e-01,2.14719e-01,9.99997e-01
7.498661902e-01,2.20716e-01,9.99999e-01,9.99999e-01,9.99999e-01,9.97160e-01,2.21344e-01,9.99998e-01
7.536155211e-01,2.27718e-01,9.99999e-01,9.99999e-01,9.99999e-01,9.98604e-01,2.28037e-01,9.99999e-01
7.573835987e-01,2.34625e-01,9.99999e-01,9.99999e-01,9.99999e-01,9.99281e-01,2.34793e-01,9.99999e-01
7.611705167e-01,2.41503e-01,9.99999e-01,9.99999e-01,9.99999e-01,9.99553e-01,2.41611e-01,9.99999e-01
7.649763693e-01,2.48416e-01,9.99999e-01,9.99999e-01,9.99999e-01,9.99719e-01,2.48486e-01,9.99999e-01
7.688012511e-01,2.55365e-01,9.99999e-01,9.99999e-01,9.99999e-01,9.99804e-01,2.55414e-01,9.99999e-01
7.726452574e-01,2.62352e-01,9.99999e-01,9.99999e-01,9.99999e-01,9.99839e-01,2.62394e-01,9.99999e-01
7.765084837e-01,2.69359e-01,9.99999e-01,9.99999e-01,9.99999e-01,9.99770e-01,2.69421e-01,9.99999e-01
7.803910261e-01,2.60708e-01,9.99999e-01,9.99999e-01,9.43803e-01,9.99009e-01,2.76491e-01,9.99998e-01
7.842929812e-01,2.17875e-01,9.99999e-01,9.99999e-01,7.70701e-01,9.96545e-01,2.83602e-01,9.99993e-01
7.882144461e-01,2.18639e-01,9.99999e-01,9.99999e-01,7.57029e-01,9.92922e-01,2.90750e-01,9.99950e-01
7.921555184e-01,2.51447e-01,9.99999e-01,9.99999e-01,8.47201e-01,9.96123e-01,2.97932e-01,9.99915e-01
7.961162960e-01,2.71199e-01,9.99999e-01,9.99999e-01,8.94892e-01,9.93120e-01,3.05143e-01,9.99919e-01
8.000968774e-01,2.91763e-01,9.99999e-01,9.99999e-01,9.41494e-01,9.92077e-01,3.12382e-01,9.99913e-01
8.040973618e-01,3.07364e-01,9.99999e-01,9.99999e-01,9.69300e-01,9.92070e-01,3.19645e-01,9.99934e-01
8.081178486e-01,3.16516e-01,9.99999e-01,9.99999e-01,9.85755e-01,9.82163e-01,3.26928e-01,9.99933e-01
8.121584379e-01,3.08696e-01,9.99999e-01,9.99999e-01,9.95601e-01,9.27853e-01,3.34228e-01,9.99749e-01
8.162192301e-01,3.12045e-01,9.99999e-01,9.99999e-01,9.99026e-01,9.15359e-01,3.41542e-01,9.99058e-01
8.203003262e-01,3.33419e-01,9.99999e-01,9.99999e-01,9.99985e-01,9.56786e-01,3.48867e-01,9.98897e-01
8.244018279e-01,3.34866e-01,9.99999e-01,9.99999e-01,9.99999e-01,9.40933e-01,3.56199e-01,9.99122e-01
8.285238370e-01,3.44539e-01,9.99999e-01,9.99999e-01,9.99999e-01,9.48395e-01,3.63537e-01,9.99310e-01
8.326664562e-01,3.51479e-01,9.99999e-01,9.99999e-01,9.99999e-01,9.47970e-01,3.70876e-01,9.99714e-01
8.368297885e-01,3.64025e-01,9.99999e-01,9.99999e-01,9.99999e-01,9.62547e-01,3.78214e-01,9.99934e-01
8.410139374e-01,3.76890e-01,9.99999e-01,9.99999e-01,9.99999e-01,9.77580e-01,3.85548e-01,9.99961e-01
8.452190071e-01,3.88525e-01,9.99999e-01,9.99999e-01,9.99999e-01,9.88951e-01,3.92875e-01,9.99976e-01
8.494451021e-01,3.97610e-01,9.99999e-01,9.99999e-01,9.99999e-01,9.93565e-01,4.00192e-01,9.99981e-01
8.536923276e-01,4.05943e-01,9.99999e-01,9.99999e-01,9.99999e-01,9.96196e-01,4.07497e-01,9.99988e-01
8.579607893e-01,4.13813e-01,9.99999e-01,9.99999e-01,9.99999e-01,9.97653e-01,4.14787e-01,9.99996e-01
8.622505932e-01,4.21431e-01,9.99999e-01,9.99999e-01,9.99999e-01,9.98510e-01,4.22060e-01,9.99999e-01
8.665618462e-01,3.84660e-01,9.99999e-01,9.99999e-01,8.96772e-01,9.99076e-01,4.29313e-01,9.99999e-01
8.708946554e-01,2.26864e-01,9.99999e-01,9.99999e-01,5.20201e-01,9.98941e-01,4.36544e-01,9.99998e-01
8.752491287e-01,2.60089e-01,9.99999e-01,9.99999e-01,5.86909e-01,9.98585e-01,4.43750e-01,9.99998e-01
8.796253743e-01,3.34781e-01,9.99999e-01,9.99999e-01,7.43816e-01,9.98037e-01,4.50929e-01,9.99995e-01
8.840235012e-01,3.91614e-01,9.99999e-01,9.99999e-01,8.56785e-01,9.97759e-01,4.58079e-01,9.99985e-01
8.884436187e-01,4.34142e-01,9.99999e-01,9.99999e-01,9.40874e-01,9.91788e-01,4.65198e-01,9.99960e-01
8.928858368e-01,4.22748e-01,9.99999e-01,9.99999e-01,9.75578e-01,9.17382e-01,4.72283e-01,9.99776e-01
8.973502660e-01,4.09028e-01,9.99999e-01,9.99999e-01,9.94031e-01,8.59253e-01,4.79334e-01,9.98854e-01
9.018370173e-01,4.49148e-01,9.99999e-01,9.99999e-01,9.99341e-01,9.25755e-01,4.86347e-01,9.98200e-01
9.063462024e-01,4.52562e-01,9.99999e-01,9.99999e-01,9.83041e-01,9.33818e-01,4.93321e-01,9.98418e-01
9.108779334e-01,4.32139e-01,9.99999e-01,9.99999e-01,9.61710e-01,8.98971e-01,5.00255e-01,9.98356e-01
9.154323231e-01,4.44818e-01,9.99999e-01,9.99999e-01,9.90925e-01,8.86041e-01,5.07146e-01,9.98641e-01
9.200094847e-01,4.14508e-01,9.99999e-01,9.99999e-01,8.79990e-01,9.09780e-01,5.13993e-01,9.99239e-01
9.246095321e-01,3.73072e-01,9.99999e-01,9.99999e-01,8.26323e-01,8.62949e-01,5.20794e-01,9.99123e-01
9.292325798e-01,1.77565e-01,9.99999e-01,9.99999e-01,8.61383e-01,3.82957e-01,5.27549e-01,9.96587e-01
9.338787427e-01,1.36498e-01,9.99999e-01,9.99999e-01,8.65712e-01,2.92782e-01,5.34255e-01,9.85970e-01
9.385481364e-01,2.93535e-01,9.99999e-01,9.99999e-01,8.99137e-01,6.07867e-01,5.40912e-01,9.83335e-01
9.432408771e-01,2.56825e-01,9.99999e-01,9.99999e-01,9.36952e-01,5.05116e-01,5.47517e-01,9.85606e-01
9.479570815e-01,2.08533e-01,9.99999e-01,9.99999e-01,9.67096e-01,3.92692e-01,5.54071e-01,9.88270e-01
9.526968669e-01,2.69331e-01,9.99999e-01,9.99999e-01,9.84022e-01,4.90748e-01,5.60571e-01,9.92828e-01
9.574603512e-01,2.87649e-01,9.99999e-01,9.99999e-01,9.93137e-01,5.12294e-01,5.67016e-01,9.96350e-01
9.622476530e-01,3.30126e-01,9.99999e-01,9.99999e-01,9.97855e-01,5.78301e-01,5.73407e-01,9.97475e-01
9.670588912e-01,4.21216e-01,9.99999e-01,9.99999e-01,9.99357e-01,7.28243e-01,5.79740e-01,9.98272e-01
9.718941857e-01,4.79036e-01,9.99999e-01,9.99999e-01,9.99954e-01,8.18516e-01,5.86017e-01,9.98727e-01
9.767536566e-01,5.00979e-01,9.99999e-01,9.99999e-01,9.99999e-01,8.46734e-01,5.92236e-01,9.99027e-01
9.816374249e-01,5.28781e-01,9.99999e-01,9.99999e-01,9.99999e-01,8.83960e-01,5.98396e-01,9.99663e-01
9.865456120e-01,5.59591e-01,9.99999e-01,9.99999e-01,9.99999e-01,9.25778e-01,6.04496e-01,9.99929e-01
9.914783401e-01,5.82080e-01,9.99999e-01,9.99999e-01,9.99999e-01,9.53409e-01,6.10536e-01,9.99980e-01
9.964357318e-01,6.00701e-01,9.99999e-01,9.99999e-01,9.99999e-01,9.74358e-01,6.16516e-01,9.99988e-01
1.001417910e+00,6.12810e-01,9.99999e-01,9.99999e-01,9.99999e-01,9.84554e-01,6.22434e-01,9.99982e-01
1.006425000e+00,6.22720e-01,9.99999e-01,9.99999e-01,9.99999e-01,9.91157e-01,6.28290e-01,9.99974e-01
1.011457125e+00,6.30590e-01,9.99999e-01,9.99999e-01,9.99999e-01,9.94510e-01,6.34085e-01,9.99976e-01
1.016514411e+00,6.37418e-01,9.99999e-01,9.99999e-01,9.99999e-01,9.96267e-01,6.39816e-01,9.99983e-01
1.021596983e+00,6.43492e-01,9.99999e-01,9.99999e-01,9.99902e-01,9.97023e-01,6.45485e-01,9.99983e-01
1.026704968e+00,6.45233e-01,9.99999e-01,9.99999e-01,9.93312e-01,9.97677e-01,6.51091e-01,9.99989e-01
1.031838492e+00,6.11617e-01,9.99999e-01,9.99999e-01,9.32952e-01,9.98313e-01,6.56633e-01,9.99996e-01
1.036997685e+00,5.92710e-02,9.99999e-01,9.99999e-01,8.95872e-02,9.98996e-01,6.62111e-01,9.99999e-01
1.042182673e+00,1.96628e-02,9.99999e-01,9.99999e-01,2.94856e-02,9.98802e-01,6.67526e-01,9.99999e-01
1.047393587e+00,3.29034e-02,9.99999e-01,9.99999e-01,4.89664e-02,9.98413e-01,6.72876e-01,9.99999e-01
1.052630555e+00,1.06731e-04,9.99999e-01,9.99999e-01,1.57616e-04,9.97821e-01,6.78162e-01,9.99998e-01
1.057893707e+00,3.59021e-04,9.99999e-01,9.99999e-01,5.26493e-04,9.96362e-01,6.83385e-01,9.99998e-01
1.063183176e+00,2.47638e-03,9.99999e-01,9.99999e-01,3.61045e-03,9.94023e-01,6.88543e-01,9.99996e-01
1.068499092e+00,1.18080e-02,9.99999e-01,9.99999e-01,1.71544e-02,9.90017e-01,6.93637e-01,9.99992e-01
1.073841587e+00,5.22603e-02,9.99999e-01,9.99999e-01,7.55012e-02,9.88318e-01,6.98667e-01,9.99984e-01
