#,Wave/freq,Total,N2,O2,CO2,H2O,Rayleigh,CIA
4.000000000e-01,2.64010e-23,9.99999e-01,9.99999e-01,9.99999e-01,9.99899e-01,2.64036e-23,9.99999e-01
4.020000000e-01,7.38019e-23,9.99999e-01,9.99999e-01,9.99999e-01,9.99937e-01,7.38065e-23,9.99999e-01
4.040100000e-01,2.01950e-22,9.99999e-01,9.99999e-01,9.99999e-01,9.99973e-01,2.01955e-22,9.99999e-01
4.060300500e-01,5.41722e-22,9.99999e-01,9.99999e-01,9.99999e-01,9.99993e-01,5.41726e-22,9.99999e-01
4.080602003e-01,1.42508e-21,9.99999e-01,9.99999e-01,9.99999e-01,9.99997e-01,1.42508e-21,9.99999e-01
4.101005013e-01,3.67793e-21,9.99999e-01,9.99999e-01,9.99999e-01,9.99999e-01,3.67793e-21,9.99999e-01
4.121510038e-01,9.31604e-21,9.99999e-01,9.99999e-01,9.99999e-01,9.99995e-01,9.31608e-21,9.99999e-01
4.142117588e-01,2.31675e-20,9.99999e-01,9.99999e-01,9.99999e-01,9.99971e-01,2.31681e-20,9.99999e-01
4.162828176e-01,5.65821e-20,9.99999e-01,9.99999e-01,9.99999e-01,9.99875e-01,5.65891e-20,9.99999e-01
4.183642317e-01,1.35794e-19,9.99999e-01,9.99999e-01,9.99999e-01,9.99925e-01,1.35804e-19,9.99999e-01
4.204560528e-01,3.20307e-19,9.99999e-01,9.99999e-01,9.99999e-01,9.99954e-01,3.20321e-19,9.99999e-01
4.225583331e-01,7.42829e-19,9.99999e-01,9.99999e-01,9.99999e-01,9.99982e-01,7.42841e-19,9.99999e-01
4.246711247e-01,1.69428e-18,9.99999e-01,9.99999e-01,9.99999e-01,9.99986e-01,1.69430e-18,9.99999e-01
4.267944804e-01,3.80193e-18,9.99999e-01,9.99999e-01,9.99999e-01,9.99979e-01,3.80200e-18,9.99999e-01
4.289284528e-01,8.39641e-18,9.99999e-01,9.99999e-01,9.99999e-01,9.99984e-01,8.39653e-18,9.99999e-01
4.310730950e-01,1.82553e-17,9.99999e-01,9.99999e-01,9.99999e-01,9.99993e-01,1.82554e-17,9.99999e-01
4.332284605e-01,3.90859e-17,9.99999e-01,9.99999e-01,9.99999e-01,9.99997e-01,3.90859e-17,9.99999e-01
4.353946028e-01,8.24363e-17,9.99999e-01,9.99999e-01,9.99999e-01,9.99998e-01,8.24363e-17,9.99999e-01
4.375715758e-01,1.71321e-16,9.99999e-01,9.99999e-01,9.99999e-01,9.99987e-01,1.71323e-16,9.99999e-01
4.397594337e-01,3.50904e-16,9.99999e-01,9.99999e-01,9.99999e-01,9.99890e-01,3.50943e-16,9.99999e-01
4.419582309e-01,7.08376e-16,9.99999e-01,9.99999e-01,9.99999e-01,9.99442e-01,7.08771e-16,9.99999e-01
4.441680220e-01,1.41111e-15,9.99999e-01,9.99999e-01,9.99999e-01,9.99570e-01,1.41171e-15,9.99999e-01
4.463888621e-01,2.77256e-15,9.99999e-01,9.99999e-01,9.99999e-01,9.99550e-01,2.77380e-15,9.99999e-01
4.486208064e-01,5.37638e-15,9.99999e-01,9.99999e-01,9.99999e-01,9.99721e-01,5.37788e-15,9.99999e-01
4.508639105e-01,1.02899e-14,9.99999e-01,9.99999e-01,9.99999e-01,9.99869e-01,1.02912e-14,9.99999e-01
4.531182300e-01,1.94416e-14,9.99999e-01,9.99999e-01,9.99999e-01,9.99948e-01,1.94426e-14,9.99999e-01
4.553838212e-01,3.62720e-14,9.99999e-01,9.99999e-01,9.99999e-01,9.99964e-01,3.62732e-14,9.99999e-01
4.576607403e-01,6.68437e-14,9.99999e-01,9.99999e-01,9.99999e-01,9.99983e-01,6.68448e-14,9.99999e-01
4.599490440e-01,1.21703e-13,9.99999e-01,9.99999e-01,9.99999e-01,9.99988e-01,1.21704e-13,9.99999e-01
4.622487892e-01,2.18979e-13,9.99999e-01,9.99999e-01,9.99999e-01,9.99997e-01,2.18979e-13,9.99999e-01
4.645600332e-01,3.89455e-13,9.99999e-01,9.99999e-01,9.99999e-01,9.99991e-01,3.89458e-13,9.99999e-01
4.668828333e-01,6.84735e-13,9.99999e-01,9.99999e-01,9.99999e-01,9.99867e-01,6.84826e-13,9.99999e-01
4.692172475e-01,1.19052e-12,9.99999e-01,9.99999e-01,9.99999e-01,9.99718e-01,1.19085e-12,9.99999e-01
4.715633337e-01,2.04790e-12,9.99999e-01,9.99999e-01,9.99999e-01,9.99815e-01,2.04828e-12,9.99999e-01
4.739211504e-01,3.48491e-12,9.99999e-01,9.99999e-01,9.99999e-01,9.99823e-01,3.48552e-12,9.99999e-01
4.762907561e-01,5.86877e-12,9.99999e-01,9.99999e-01,9.99999e-01,9.99908e-01,5.86930e-12,9.99999e-01
4.786722099e-01,9.78179e-12,9.99999e-01,9.99999e-01,9.99999e-01,9.99962e-01,9.78216e-12,9.99999e-01
4.810655710e-01,1.61397e-11,9.99999e-01,9.99999e-01,9.99999e-01,9.99988e-01,1.61399e-11,9.99999e-01
4.834708988e-01,2.63648e-11,9.99999e-01,9.99999e-01,9.99999e-01,9.99890e-01,2.63677e-11,9.99999e-01
4.858882533e-01,4.26526e-11,9.99999e-01,9.99999e-01,9.99999e-01,9.99800e-01,4.26611e-11,9.99999e-01
4.883176946e-01,6.83584e-11,9.99999e-01,9.99999e-01,9.99999e-01,9.99832e-01,6.83698e-11,9.99999e-01
4.907592831e-01,1.08539e-10,9.99999e-01,9.99999e-01,9.99999e-01,9.99849e-01,1.08555e-10,9.99999e-01
4.932130795e-01,1.70775e-10,9.99999e-01,9.99999e-01,9.99999e-01,9.99892e-01,1.70794e-10,9.99999e-01
4.956791449e-01,2.66305e-10,9.99999e-01,9.99999e-01,9.99999e-01,9.99943e-01,2.66320e-10,9.99999e-01
4.981575406e-01,4.11531e-10,9.99999e-01,9.99999e-01,9.99999e-01,9.99715e-01,4.11648e-10,9.99999e-01
5.006483283e-01,6.30362e-10,9.99999e-01,9.99999e-01,9.99999e-01,9.99261e-01,6.30830e-10,9.99994e-01
5.031515699e-01,9.54999e-10,9.99999e-01,9.99999e-01,9.99999e-01,9.96282e-01,9.58599e-10,9.99960e-01
5.056673278e-01,1.44179e-09,9.99999e-01,9.99999e-01,9.99999e-01,9.98040e-01,1.44468e-09,9.99954e-01
5.081956644e-01,2.15428e-09,9.99999e-01,9.99999e-01,9.99999e-01,9.97529e-01,2.15968e-09,9.99972e-01
5.107366428e-01,3.19764e-09,9.99999e-01,9.99999e-01,9.99999e-01,9.98331e-01,3.20299e-09,9.99994e-01
5.132903260e-01,4.70899e-09,9.99999e-01,9.99999e-01,9.99999e-01,9.99047e-01,4.71349e-09,9.99998e-01
5.158567776e-01,6.88081e-09,9.99999e-01,9.99999e-01,9.99999e-01,9.99597e-01,6.88358e-09,9.99999e-01
5.184360615e-01,9.97626e-09,9.99999e-01,9.99999e-01,9.99999e-01,9.99838e-01,9.97787e-09,9.99999e-01
5.210282418e-01,1.43566e-08,9.99999e-01,9.99999e-01,9.99999e-01,9.99939e-01,1.43574e-08,9.99999e-01
5.236333830e-01,2.05063e-08,9.99999e-01,9.99999e-01,9.99999e-01,9.99757e-01,2.05113e-08,9.99997e-01
5.262515499e-01,2.90927e-08,9.99999e-01,9.99999e-01,9.99999e-01,9.99848e-01,2.90972e-08,9.99997e-01
5.288828077e-01,4.09871e-08,9.99999e-01,9.99999e-01,9.99999e-01,9.99860e-01,4.09929e-08,9.99997e-01
5.315272217e-01,5.73552e-08,9.99999e-01,9.99999e-01,9.99999e-01,9.99877e-01,5.73622e-08,9.99999e-01
5.341848578e-01,7.97308e-08,9.99999e-01,9.99999e-01,9.99999e-01,9.99919e-01,7.97372e-08,9.99999e-01
5.368557821e-01,1.10090e-07,9.99999e-01,9.99999e-01,9.99999e-01,9.99716e-01,1.10121e-07,9.99998e-01
5.395400610e-01,1.50960e-07,9.99999e-01,9.99999e-01,9.99999e-01,9.98974e-01,1.51116e-07,9.99989e-01
5.422377613e-01,2.05805e-07,9.99999e-01,9.99999e-01,9.99999e-01,9.98686e-01,2.06080e-07,9.99975e-01
5.449489501e-01,2.78970e-07,9.99999e-01,9.99999e-01,9.99999e-01,9.98772e-01,2.79319e-07,9.99974e-01
5.476736949e-01,3.75908e-07,9.99999e-01,9.99999e-01,9.99999e-01,9.98918e-01,3.76319e-07,9.99987e-01
5.504120634e-01,5.03631e-07,9.99999e-01,9.99999e-01,9.99999e-01,9.99214e-01,5.04029e-07,9.99996e-01
5.531641237e-01,6.70928e-07,9.99999e-01,9.99999e-01,9.99999e-01,9.99604e-01,6.71193e-07,9.99999e-01
5.559299443e-01,8.88586e-07,9.99999e-01,9.99999e-01,9.99999e-01,9.99809e-01,8.88756e-07,9.99999e-01
5.587095940e-01,1.17019e-06,9.99999e-01,9.99999e-01,9.99999e-01,9.99879e-01,1.17033e-06,9.99999e-01
5.615031420e-01,1.53256e-06,9.99999e-01,9.99999e-01,9.99999e-01,9.99866e-01,1.53276e-06,9.99999e-01
5.643106577e-01,1.99645e-06,9.99999e-01,9.99999e-01,9.99999e-01,9.99847e-01,1.99676e-06,9.99998e-01
5.671322110e-01,2.58282e-06,9.99999e-01,9.99999e-01,9.99999e-01,9.98141e-01,2.58767e-06,9.99983e-01
5.699678720e-01,3.32967e-06,9.99999e-01,9.99999e-01,9.99999e-01,9.98056e-01,3.33632e-06,9.99949e-01
5.728177114e-01,4.27113e-06,9.99999e-01,9.99999e-01,9.99999e-01,9.97961e-01,4.28003e-06,9.99957e-01
5.756818000e-01,5.45339e-06,9.99999e-01,9.99999e-01,9.99999e-01,9.98132e-01,5.46372e-06,9.99975e-01
5.785602090e-01,6.92989e-06,9.99999e-01,9.99999e-01,9.99999e-01,9.98373e-01,6.94123e-06,9.99992e-01
5.814530100e-01,8.76231e-06,9.99999e-01,9.99999e-01,9.99999e-01,9.98364e-01,8.77669e-06,9.99996e-01
5.843602750e-01,1.10244e-05,9.99999e-01,9.99999e-01,9.99999e-01,9.98041e-01,1.10462e-05,9.99988e-01
5.872820764e-01,1.36066e-05,9.99999e-01,9.99999e-01,9.99999e-01,9.83283e-01,1.38395e-05,9.99881e-01
5.902184868e-01,1.69089e-05,9.99999e-01,9.99999e-01,9.99999e-01,9.79846e-01,1.72622e-05,9.99678e-01
5.931695792e-01,2.11248e-05,9.99999e-01,9.99999e-01,9.99999e-01,9.85716e-01,2.14376e-05,9.99690e-01
5.961354271e-01,2.60899e-05,9.99999e-01,9.99999e-01,9.99999e-01,9.84358e-01,2.65092e-05,9.99821e-01
5.991161043e-01,3.22686e-05,9.99999e-01,9.99999e-01,9.99999e-01,9.88572e-01,3.26434e-05,9.99944e-01
6.021116848e-01,3.97719e-05,9.99999e-01,9.99999e-01,9.99999e-01,9.93505e-01,4.00322e-05,9.99993e-01
6.051222432e-01,4.87350e-05,9.99999e-01,9.99999e-01,9.99999e-01,9.96709e-01,4.88959e-05,9.99999e-01
6.081478544e-01,5.94022e-05,9.99999e-01,9.99999e-01,9.99999e-01,9.98578e-01,5.94867e-05,9.99999e-01
6.111885937e-01,7.20485e-05,9.99999e-01,9.99999e-01,9.99999e-01,9.99399e-01,7.20917e-05,9.99999e-01
6.142445367e-01,8.70134e-05,9.99999e-01,9.99999e-01,9.99999e-01,9.99731e-01,8.70367e-05,9.99999e-01
6.173157594e-01,1.04674e-04,9.99999e-01,9.99999e-01,9.99999e-01,9.99851e-01,1.04690e-04,9.99999e-01
6.204023382e-01,1.25449e-04,9.99999e-01,9.99999e-01,9.99999e-01,9.99873e-01,1.25464e-04,9.99999e-01
6.235043498e-01,1.49741e-04,9.99999e-01,9.99999e-01,9.99999e-01,9.99440e-01,1.49825e-04,9.99998e-01
6.266218716e-01,1.77764e-04,9.99999e-01,9.99999e-01,9.99999e-01,9.97072e-01,1.78290e-04,9.99978e-01
6.297549810e-01,2.11198e-04,9.99999e-01,9.99999e-01,9.99999e-01,9.98925e-01,2.11434e-04,9.99958e-01
6.329037559e-01,2.49360e-04,9.99999e-01,9.99999e-01,9.99999e-01,9.97880e-01,2.49898e-04,9.99966e-01
6.360682746e-01,2.93846e-04,9.99999e-01,9.99999e-01,9.99999e-01,9.98189e-01,2.94385e-04,9.99980e-01
6.392486160e-01,3.44859e-04,9.99999e-01,9.99999e-01,9.99999e-01,9.97657e-01,3.45671e-04,9.99990e-01
6.424448591e-01,4.03326e-04,9.99999e-01,9.99999e-01,9.99999e-01,9.96850e-01,4.04607e-04,9.99984e-01
6.456570834e-01,4.65220e-04,9.99999e-01,9.99999e-01,9.99999e-01,9.85471e-01,4.72120e-04,9.99911e-01
6.488853688e-01,5.43289e-04,9.99999e-01,9.99999e-01,9.99999e-01,9.89418e-01,5.49222e-04,9.99773e-01
6.521297956e-01,6.30027e-04,9.99999e-01,9.99999e-01,9.99999e-01,9.89222e-01,6.37010e-04,9.99813e-01
6.553904446e-01,7.28629e-04,9.99999e-01,9.99999e-01,9.99999e-01,9.89222e-01,7.36669e-04,9.99860e-01
6.586673968e-01,8.41617e-04,9.99999e-01,9.99999e-01,9.99999e-01,9.90793e-01,8.49477e-04,9.99953e-01
6.619607338e-01,9.71774e-04,9.99999e-01,9.99999e-01,9.99999e-01,9.94858e-01,9.76806e-04,9.99989e-01
6.652705375e-01,1.11666e-03,9.99999e-01,9.99999e-01,9.99999e-01,9.96911e-01,1.12013e-03,9.99994e-01
6.685968902e-01,1.27932e-03,9.99999e-01,9.99999e-01,9.99999e-01,9.98686e-01,1.28101e-03,9.99998e-01
6.719398746e-01,1.46014e-03,9.99999e-01,9.99999e-01,9.99999e-01,9.99335e-01,1.46111e-03,9.99999e-01
6.752995740e-01,1.66162e-03,9.99999e-01,9.99999e-01,9.99999e-01,9.99638e-01,1.66222e-03,9.99999e-01
6.786760719e-01,1.88521e-03,9.99999e-01,9.99999e-01,9.99999e-01,9.99476e-01,1.88620e-03,9.99998e-01
6.820694522e-01,2.13310e-03,9.99999e-01,9.99999e-01,9.99999e-01,9.99105e-01,2.13502e-03,9.99994e-01
6.854797995e-01,2.40794e-03,9.99999e-01,9.99999e-01,9.99999e-01,9.98846e-01,2.41075e-03,9.99989e-01
6.889071985e-01,2.70786e-03,9.99999e-01,9.99999e-01,9.99999e-01,9.97185e-01,2.71557e-03,9.99974e-01
6.923517345e-01,2.91488e-03,9.99999e-01,9.99999e-01,9.99999e-01,9.55360e-01,3.05175e-03,9.99781e-01
6.958134932e-01,3.34083e-03,9.99999e-01,9.99999e-01,9.99999e-01,9.76853e-01,3.42164e-03,9.99516e-01
6.992925606e-01,3.74059e-03,9.99999e-01,9.99999e-01,9.99999e-01,9.77662e-01,3.82772e-03,9.99564e-01
7.027890234e-01,4.15414e-03,9.99999e-01,9.99999e-01,9.99999e-01,9.72618e-01,4.27251e-03,9.99667e-01
7.063029686e-01,4.64793e-03,9.99999e-01,9.99999e-01,9.99999e-01,9.76896e-01,4.75864e-03,9.99834e-01
7.098344834e-01,5.17098e-03,9.99999e-01,9.99999e-01,9.99999e-01,9.77815e-01,5.28881e-03,9.99901e-01
7.133836558e-01,5.69118e-03,9.99999e-01,9.99999e-01,9.99999e-01,9.70418e-01,5.86580e-03,9.99805e-01
7.169505741e-01,5.12034e-03,9.99999e-01,9.99999e-01,9.99999e-01,7.89868e-01,6.49245e-03,9.98470e-01
7.205353270e-01,6.37525e-03,9.99999e-01,9.99999e-01,9.99999e-01,8.91355e-01,7.17165e-03,9.97302e-01
7.241380036e-01,6.80345e-03,9.99999e-01,9.99999e-01,9.99999e-01,8.62513e-01,7.90634e-03,9.97670e-01
7.277586936e-01,7.59930e-03,9.99999e-01,9.99999e-01,9.99999e-01,8.75195e-01,8.69953e-03,9.98095e-01
7.313974871e-01,8.28221e-03,9.99999e-01,9.99999e-01,9.99999e-01,8.67636e-01,9.55423e-03,9.99107e-01
7.350544745e-01,9.68577e-03,9.99999e-01,9.99999e-01,9.99999e-01,9.25074e-01,1.04735e-02,9.99689e-01
7.387297469e-01,1.08191e-02,9.99999e-01,9.99999e-01,9.99999e-01,9.44176e-01,1.14604e-02,9.99857e-01
7.424233956e-01,1.21708e-02,9.99999e-01,9.99999e-01,9.99999e-01,9.72289e-01,1.25180e-02,9.99974e-01
7.461355126e-01,1.34186e-02,9.99999e-01,9.99999e-01,9.99999e-01,9.83095e-01,1.36494e-02,9.99995e-01
7.498661902e-01,1.47404e-02,9.99999e-01,9.99999e-01,9.99999e-01,9.92107e-01,1.48577e-02,9.99997e-01
7.536155211e-01,1.60830e-02,9.99999e-01,9.99999e-01,9.99999e-01,9.96114e-01,1.61458e-02,9.99998e-01
7.573835987e-01,1.74817e-02,9.99999e-01,9.99999e-01,9.99999e-01,9.97998e-01,1.75168e-02,9.99999e-01
7.611705167e-01,1.89500e-02,9.99999e-01,9.99999e-01,9.99999e-01,9.98755e-01,1.89736e-02,9.99999e-01
7.649763693e-01,2.05032e-02,9.99999e-01,9.99999e-01,9.99999e-01,9.99219e-01,2.05192e-02,9.99999e-01
7.688012511e-01,2.21444e-02,9.99999e-01,9.99999e-01,9.99999e-01,9.99455e-01,2.21564e-02,9.99999e-01
7.726452574e-01,2.38773e-02,9.99999e-01,9.99999e-01,9.99999e-01,9.99551e-01,2.38880e-02,9.99999e-01
7.765084837e-01,2.57003e-02,9.99999e-01,9.99999e-01,9.99999e-01,9.99360e-01,2.57167e-02,9.99998e-01
7.803910261e-01,2.41956e-02,9.99999e-01,9.99999e-01,8.77385e-01,9.97237e-01,2.76451e-02,9.99996e-01
7.842929812e-01,1.49615e-02,9.99999e-01,9.99999e-01,5.08262e-01,9.90388e-01,2.96756e-02,9.99981e-01
7.882144461e-01,1.53799e-02,9.99999e-01,9.99999e-01,4.91875e-01,9.80387e-01,3.18107e-02,9.99863e-01
7.921555184e-01,2.14644e-02,9.99999e-01,9.99999e-01,6.36673e-01,9.89237e-01,3.40527e-02,9.99763e-01
7.961162960e-01,2.62797e-02,9.99999e-01,9.99999e-01,7.35523e-01,9.80930e-01,3.64036e-02,9.99775e-01
8.000968774e-01,3.21645e-02,9.99999e-01,9.99999e-01,8.46106e-01,9.78051e-01,3.88656e-02,9.99760e-01
8.040973618e-01,3.71675e-02,9.99999e-01,9.99999e-01,9.17004e-01,9.78036e-01,4.14405e-02,9.99817e-01
8.081178486e-01,4.03373e-02,9.99999e-01,9.99999e-01,9.60835e-01,9.51167e-01,4.41301e-02,9.99815e-01
8.121584379e-01,3.77158e-02,9.99999e-01,9.99999e-01,9.87810e-01,8.13584e-01,4.69358e-02,9.99301e-01
8.162192301e-01,3.89213e-02,9.99999e-01,9.99999e-01,9.97294e-01,7.84619e-01,4.98592e-02,9.97375e-01
8.203003262e-01,4.68330e-02,9.99999e-01,9.99999e-01,9.99961e-01,8.88034e-01,5.29015e-02,9.96928e-01
8.244018279e-01,4.75938e-02,9.99999e-01,9.99999e-01,9.99999e-01,8.51002e-01,5.60638e-02,9.97554e-01
8.285238370e-01,5.11624e-02,9.99999e-01,9.99999e-01,9.99999e-01,8.63745e-01,5.93471e-02,9.98078e-01
8.326664562e-01,5.41138e-02,9.99999e-01,9.99999e-01,9.99999e-01,8.63029e-01,6.27520e-02,9.99204e-01
8.368297885e-01,5.96052e-02,9.99999e-01,9.99999e-01,9.99999e-01,8.99466e-01,6.62793e-02,9.99817e-01
8.410139374e-01,6.56486e-02,9.99999e-01,9.99999e-01,9.99999e-01,9.38886e-01,6.99292e-02,9.99893e-01
8.452190071e-01,7.14518e-02,9.99999e-01,9.99999e-01,9.99999e-01,9.69529e-01,7.37020e-02,9.99936e-01
8.494451021e-01,7.62094e-02,9.99999e-01,9.99999e-01,9.99999e-01,9.82157e-01,7.75978e-02,9.99948e-01
8.536923276e-01,8.07515e-02,9.99999e-01,9.99999e-01,9.99999e-01,9.89432e-01,8.16164e-02,9.99968e-01
8.579607893e-01,8.51969e-02,9.99999e-01,9.99999e-01,9.99999e-01,9.93468e-01,8.57576e-02,9.99992e-01
8.622505932e-01,8.96474e-02,9.99999e-01,9.99999e-01,9.99999e-01,9.95851e-01,9.00209e-02,9.99998e-01
8.665618462e-01,7.90697e-02,9.99999e-01,9.99999e-01,8.39549e-01,9.97426e-01,9.44055e-02,9.99998e-01
8.708946554e-01,1.92078e-02,9.99999e-01,9.99999e-01,1.94700e-01,9.97050e-01,9.89108e-02,9.99997e-01
8.752491287e-01,2.55103e-02,9.99999e-01,9.99999e-01,2.47277e-01,9.96057e-01,1.03536e-01,9.99995e-01
8.796253743e-01,4.88111e-02,9.99999e-01,9.99999e-01,4.52990e-01,9.94533e-01,1.08279e-01,9.99987e-01
8.840235012e-01,7.36420e-02,9.99999e-01,9.99999e-01,6.54726e-01,9.93761e-01,1.13140e-01,9.99961e-01
8.884436187e-01,9.76135e-02,9.99999e-01,9.99999e-01,8.44791e-01,9.77341e-01,1.18116e-01,9.99891e-01
8.928858368e-01,9.10615e-02,9.99999e-01,9.99999e-01,9.33576e-01,7.89897e-01,1.23206e-01,9.99376e-01
8.973502660e-01,8.35189e-02,9.99999e-01,9.99999e-01,9.83490e-01,6.62437e-01,1.28409e-01,9.96808e-01
9.018370173e-01,1.07763e-01,9.99999e-01,9.99999e-01,9.98169e-01,8.11214e-01,1.33722e-01,9.94987e-01
9.063462024e-01,1.10406e-01,9.99999e-01,9.99999e-01,9.54628e-01,8.29400e-01,1.39143e-01,9.95595e-01
9.108779334e-01,9.72200e-02,9.99999e-01,9.99999e-01,8.97393e-01,7.48004e-01,1.44671e-01,9.95423e-01
9.154323231e-01,1.05067e-01,9.99999e-01,9.99999e-01,9.75035e-01,7.17954e-01,1.50302e-01,9.96215e-01
9.200094847e-01,9.36457e-02,9.99999e-01,9.99999e-01,7.44325e-01,7.72789e-01,1.56035e-01,9.97879e-01
9.246095321e-01,6.68010e-02,9.99999e-01,9.99999e-01,5.91808e-01,6.78932e-01,1.61867e-01,9.97557e-01
9.292325798e-01,1.24426e-02,9.99999e-01,9.99999e-01,6.69646e-01,1.00881e-01,1.67795e-01,9.88264e-01
9.338787427e-01,6.04510e-03,9.99999e-01,9.99999e-01,6.74699e-01,4.89157e-02,1.73817e-01,9.58225e-01
9.385481364e-01,3.92745e-02,9.99999e-01,9.99999e-01,7.45907e-01,2.91541e-01,1.79929e-01,9.54199e-01
9.432408771e-01,2.98827e-02,9.99999e-01,9.99999e-01,8.34459e-01,1.94405e-01,1.86129e-01,9.60360e-01
9.479570815e-01,1.71978e-02,9.99999e-01,9.99999e-01,9.11055e-01,9.98369e-02,1.92415e-01,9.67617e-01
9.526968669e-01,3.12444e-02,9.99999e-01,9.99999e-01,9.56206e-01,1.65969e-01,1.98782e-01,9.80122e-01
9.574603512e-01,3.58295e-02,9.99999e-01,9.99999e-01,9.81007e-01,1.78985e-01,2.05227e-01,9.89852e-01
9.622476530e-01,4.99763e-02,9.99999e-01,9.99999e-01,9.94038e-01,2.38788e-01,2.11748e-01,9.92972e-01
9.670588912e-01,9.37435e-02,9.99999e-01,9.99999e-01,9.98212e-01,4.32029e-01,2.18342e-01,9.95188e-01
9.718941857e-01,1.29576e-01,9.99999e-01,9.99999e-01,9.99875e-01,5.77980e-01,2.25004e-01,9.96455e-01
9.767536566e-01,1.46425e-01,9.99999e-01,9.99999e-01,9.99999e-01,6.33589e-01,2.31732e-01,9.97290e-01
9.816374249e-01,1.69511e-01,9.99999e-01,9.99999e-01,9.99999e-01,7.11339e-01,2.38522e-01,9.99061e-01
9.865456120e-01,1.98086e-01,9.99999e-01,9.99999e-01,9.99999e-01,8.07447e-01,2.45372e-01,9.99804e-01
9.914783401e-01,2.20901e-01,9.99999e-01,9.99999e-01,9.99999e-01,8.75678e-01,2.52277e-01,9.99945e-01
9.964357318e-01,2.41142e-01,9.99999e-01,9.99999e-01,9.99999e-01,9.30238e-01,2.59234e-01,9.99967e-01
1.001417910e+00,2.54926e-01,9.99999e-01,9.99999e-01,9.99999e-01,9.57552e-01,2.66240e-01,9.99951e-01
1.006425000e+00,2.66587e-01,9.99999e-01,9.99999e-01,9.99999e-01,9.75535e-01,2.73291e-01,9.99930e-01
1.011457125e+00,2.76096e-01,9.99999e-01,9.99999e-01,9.99999e-01,9.84770e-01,2.80384e-01,9.99935e-01
1.016514411e+00,2.84520e-01,9.99999e-01,9.99999e-01,9.99999e-01,9.89626e-01,2.87515e-01,9.99954e-01
1.021596983e+00,2.92150e-01,9.99999e-01,9.99999e-01,9.99724e-01,9.91721e-01,2.94682e-01,9.99955e-01
1.026704968e+00,2.94408e-01,9.99999e-01,9.99999e-01,9.81579e-01,9.93536e-01,3.01881e-01,9.99971e-01
1.031838492e+00,2.67960e-01,9.99999e-01,9.99999e-01,8.70692e-01,9.95304e-01,3.09108e-01,9.99991e-01
1.036997685e+00,8.99424e-03,9.99999e-01,9.99999e-01,2.84900e-02,9.97205e-01,3.16360e-01,9.99998e-01
1.042182673e+00,1.24626e-04,9.99999e-01,9.99999e-01,3.86008e-04,9.96660e-01,3.23634e-01,9.99998e-01
1.047393587e+00,3.61290e-04,9.99999e-01,9.99999e-01,1.09565e-03,9.95579e-01,3.30927e-01,9.99998e-01
1.052630555e+00,7.39102e-10,9.99999e-01,9.99999e-01,2.19334e-09,9.93933e-01,3.38235e-01,9.99997e-01
1.057893707e+00,2.78425e-09,9.99999e-01,9.99999e-01,8.09592e-09,9.89883e-01,3.45555e-01,9.99996e-01
1.063183176e+00,5.00077e-07,9.99999e-01,9.99999e-01,1.42970e-06,9.83422e-01,3.52885e-01,9.99990e-01
1.068499092e+00,1.04120e-05,9.99999e-01,9.99999e-01,2.93540e-05,9.72428e-01,3.60220e-01,9.99980e-01
1.073841587e+00,3.81882e-04,9.99999e-01,9.99999e-01,1.06125e-03,9.67828e-01,3.67559e-01,9.99958e-01
