#,Wave/freq,Total,N2,O2,CO2,H2O,Rayleigh,CIA
4.000000000e-01,8.15872e-11,9.99999e-01,9.99999e-01,9.99999e-01,9.99954e-01,8.15908e-11,9.99999e-01
4.020000000e-01,1.29153e-10,9.99999e-01,9.99999e-01,9.99999e-01,9.99971e-01,1.29157e-10,9.99999e-01
4.040100000e-01,2.02508e-10,9.99999e-01,9.99999e-01,9.99999e-01,9.99987e-01,2.02510e-10,9.99999e-01
4.060300500e-01,3.14715e-10,9.99999e-01,9.99999e-01,9.99999e-01,9.99996e-01,3.14716e-10,9.99999e-01
4.080602003e-01,4.84850e-10,9.99999e-01,9.99999e-01,9.99999e-01,9.99998e-01,4.84851e-10,9.99999e-01
4.101005013e-01,7.40612e-10,9.99999e-01,9.99999e-01,9.99999e-01,9.99999e-01,7.40612e-10,9.99999e-01
4.121510038e-01,1.12186e-09,9.99999e-01,9.99999e-01,9.99999e-01,9.99997e-01,1.12186e-09,9.99999e-01
4.142117588e-01,1.68546e-09,9.99999e-01,9.99999e-01,9.99999e-01,9.99987e-01,1.68548e-09,9.99999e-01
4.162828176e-01,2.51185e-09,9.99999e-01,9.99999e-01,9.99999e-01,9.99944e-01,2.51199e-09,9.99999e-01
4.183642317e-01,3.71428e-09,9.99999e-01,9.99999e-01,9.99999e-01,9.99966e-01,3.71441e-09,9.99999e-01
4.204560528e-01,5.45000e-09,9.99999e-01,9.99999e-01,9.99999e-01,9.99979e-01,5.45011e-09,9.99999e-01
4.225583331e-01,7.93649e-09,9.99999e-01,9.99999e-01,9.99999e-01,9.99991e-01,7.93654e-09,9.99999e-01
4.246711247e-01,1.14718e-08,9.99999e-01,9.99999e-01,9.99999e-01,9.99993e-01,1.14719e-08,9.99999e-01
4.267944804e-01,1.64616e-08,9.99999e-01,9.99999e-01,9.99999e-01,9.99990e-01,1.64617e-08,9.99999e-01
4.289284528e-01,2.34540e-08,9.99999e-01,9.99999e-01,9.99999e-01,9.99992e-01,2.34541e-08,9.99999e-01
4.310730950e-01,3.31837e-08,9.99999e-01,9.99999e-01,9.99999e-01,9.99996e-01,3.31838e-08,9.99999e-01
4.332284605e-01,4.66291e-08,9.99999e-01,9.99999e-01,9.99999e-01,9.99998e-01,4.66291e-08,9.99999e-01
4.353946028e-01,6.50832e-08,9.99999e-01,9.99999e-01,9.99999e-01,9.99999e-01,6.50832e-08,9.99999e-01
4.375715758e-01,9.02440e-08,9.99999e-01,9.99999e-01,9.99999e-01,9.99994e-01,9.02445e-08,9.99999e-01
4.397594337e-01,1.24322e-07,9.99999e-01,9.99999e-01,9.99999e-01,9.99951e-01,1.24328e-07,9.99999e-01
4.419582309e-01,1.70161e-07,9.99999e-01,9.99999e-01,9.99999e-01,9.99753e-01,1.70203e-07,9.99999e-01
4.441680220e-01,2.31521e-07,9.99999e-01,9.99999e-01,9.99999e-01,9.99806e-01,2.31565e-07,9.99999e-01
4.463888621e-01,3.13076e-07,9.99999e-01,9.99999e-01,9.99999e-01,9.99799e-01,3.13139e-07,9.99999e-01
4.486208064e-01,4.20880e-07,9.99999e-01,9.99999e-01,9.99999e-01,9.99874e-01,4.20933e-07,9.99999e-01
4.508639105e-01,5.62503e-07,9.99999e-01,9.99999e-01,9.99999e-01,9.99941e-01,5.62536e-07,9.99999e-01
4.531182300e-01,7.47464e-07,9.99999e-01,9.99999e-01,9.99999e-01,9.99976e-01,7.47481e-07,9.99999e-01
4.553838212e-01,9.87655e-07,9.99999e-01,9.99999e-01,9.99999e-01,9.99983e-01,9.87670e-07,9.99999e-01
4.576607403e-01,1.29787e-06,9.99999e-01,9.99999e-01,9.99999e-01,9.99992e-01,1.29788e-06,9.99999e-01
4.599490440e-01,1.69633e-06,9.99999e-01,9.99999e-01,9.99999e-01,9.99994e-01,1.69633e-06,9.99999e-01
4.622487892e-01,2.20543e-06,9.99999e-01,9.99999e-01,9.99999e-01,9.99998e-01,2.20543e-06,9.99999e-01
4.645600332e-01,2.85247e-06,9.99999e-01,9.99999e-01,9.99999e-01,9.99996e-01,2.85248e-06,9.99999e-01
4.668828333e-01,3.67046e-06,9.99999e-01,9.99999e-01,9.99999e-01,9.99940e-01,3.67068e-06,9.99999e-01
4.692172475e-01,4.69949e-06,9.99999e-01,9.99999e-01,9.99999e-01,9.99873e-01,4.70008e-06,9.99999e-01
4.715633337e-01,5.98838e-06,9.99999e-01,9.99999e-01,9.99999e-01,9.99917e-01,5.98887e-06,9.99999e-01
4.739211504e-01,7.59401e-06,9.99999e-01,9.99999e-01,9.99999e-01,9.99920e-01,7.59460e-06,9.99999e-01
4.762907561e-01,9.58540e-06,9.99999e-01,9.99999e-01,9.99999e-01,9.99958e-01,9.58579e-06,9.99999e-01
4.786722099e-01,1.20433e-05,9.99999e-01,9.99999e-01,9.99999e-01,9.99982e-01,1.20435e-05,9.99999e-01
4.810655710e-01,1.50632e-05,9.99999e-01,9.99999e-01,9.99999e-01,9.99994e-01,1.50633e-05,9.99999e-01
4.834708988e-01,1.87563e-05,9.99999e-01,9.99999e-01,9.99999e-01,9.99951e-01,1.87572e-05,9.99999e-01
4.858882533e-01,2.32539e-05,9.99999e-01,9.99999e-01,9.99999e-01,9.99910e-01,2.32560e-05,9.99999e-01
4.883176946e-01,2.87095e-05,9.99999e-01,9.99999e-01,9.99999e-01,9.99925e-01,2.87116e-05,9.99999e-01
4.907592831e-01,3.52974e-05,9.99999e-01,9.99999e-01,9.99999e-01,9.99932e-01,3.52998e-05,9.99999e-01
4.932130795e-01,4.32209e-05,9.99999e-01,9.99999e-01,9.99999e-01,9.99951e-01,4.32230e-05,9.99999e-01
4.956791449e-01,5.27120e-05,9.99999e-01,9.99999e-01,9.99999e-01,9.99974e-01,5.27133e-05,9.99999e-01
4.981575406e-01,6.40277e-05,9.99999e-01,9.99999e-01,9.99999e-01,9.99873e-01,6.40358e-05,9.99999e-01
5.006483283e-01,7.74664e-05,9.99999e-01,9.99999e-01,9.99999e-01,9.99672e-01,7.74919e-05,9.99997e-01
5.031515699e-01,9.32662e-05,9.99999e-01,9.99999e-01,9.99999e-01,9.98339e-01,9.34230e-05,9.99982e-01
5.056673278e-01,1.12113e-04,9.99999e-01,9.99999e-01,9.99999e-01,9.99122e-01,1.12214e-04,9.99979e-01
5.081956644e-01,1.34147e-04,9.99999e-01,9.99999e-01,9.99999e-01,9.98893e-01,1.34298e-04,9.99986e-01
5.107366428e-01,1.60038e-04,9.99999e-01,9.99999e-01,9.99999e-01,9.99252e-01,1.60158e-04,9.99997e-01
5.132903260e-01,1.90254e-04,9.99999e-01,9.99999e-01,9.99999e-01,9.99572e-01,1.90335e-04,9.99999e-01
5.158567776e-01,2.25387e-04,9.99999e-01,9.99999e-01,9.99999e-01,9.99819e-01,2.25428e-04,9.99999e-01
5.184360615e-01,2.66080e-04,9.99999e-01,9.99999e-01,9.99999e-01,9.99927e-01,2.66100e-04,9.99999e-01
5.210282418e-01,3.13074e-04,9.99999e-01,9.99999e-01,9.99999e-01,9.99972e-01,3.13082e-04,9.99999e-01
5.236333830e-01,3.67139e-04,9.99999e-01,9.99999e-01,9.99999e-01,9.99891e-01,3.67179e-04,9.99998e-01
5.262515499e-01,4.29240e-04,9.99999e-01,9.99999e-01,9.99999e-01,9.99931e-01,4.29269e-04,9.99998e-01
5.288828077e-01,5.00282e-04,9.99999e-01,9.99999e-01,9.99999e-01,9.99937e-01,5.00313e-04,9.99998e-01
5.315272217e-01,5.81321e-04,9.99999e-01,9.99999e-01,9.99999e-01,9.99944e-01,5.81353e-04,9.99999e-01
5.341848578e-01,6.73496e-04,9.99999e-01,9.99999e-01,9.99999e-01,9.99963e-01,6.73520e-04,9.99999e-01
5.368557821e-01,7.77935e-04,9.99999e-01,9.99999e-01,9.99999e-01,9.99873e-01,7.78034e-04,9.99999e-01
5.395400610e-01,8.95797e-04,9.99999e-01,9.99999e-01,9.99999e-01,9.99545e-01,8.96208e-04,9.99995e-01
5.422377613e-01,1.02884e-03,9.99999e-01,9.99999e-01,9.99999e-01,9.99411e-01,1.02945e-03,9.99988e-01
5.449489501e-01,1.17862e-03,9.99999e-01,9.99999e-01,9.99999e-01,9.99452e-01,1.17927e-03,9.99988e-01
5.476736949e-01,1.34662e-03,9.99999e-01,9.99999e-01,9.99999e-01,9.99515e-01,1.34728e-03,9.99994e-01
5.504120634e-01,1.53463e-03,9.99999e-01,9.99999e-01,9.99999e-01,9.99647e-01,1.53517e-03,9.99998e-01
5.531641237e-01,1.74446e-03,9.99999e-01,9.99999e-01,9.99999e-01,9.99822e-01,1.74477e-03,9.99999e-01
5.559299443e-01,1.97781e-03,9.99999e-01,9.99999e-01,9.99999e-01,9.99914e-01,1.97797e-03,9.99999e-01
5.587095940e-01,2.23668e-03,9.99999e-01,9.99999e-01,9.99999e-01,9.99946e-01,2.23680e-03,9.99999e-01
5.615031420e-01,2.52321e-03,9.99999e-01,9.99999e-01,9.99999e-01,9.99939e-01,2.52336e-03,9.99999e-01
5.643106577e-01,2.83966e-03,9.99999e-01,9.99999e-01,9.99999e-01,9.99932e-01,2.83985e-03,9.99998e-01
5.671322110e-01,3.18596e-03,9.99999e-01,9.99999e-01,9.99999e-01,9.99179e-01,3.18860e-03,9.99992e-01
5.699678720e-01,3.56878e-03,9.99999e-01,9.99999e-01,9.99999e-01,9.99125e-01,3.57198e-03,9.99977e-01
5.728177114e-01,3.98880e-03,9.99999e-01,9.99999e-01,9.99999e-01,9.99090e-01,3.99251e-03,9.99980e-01
5.756818000e-01,4.44897e-03,9.99999e-01,9.99999e-01,9.99999e-01,9.99164e-01,4.45274e-03,9.99988e-01
5.785602090e-01,4.95171e-03,9.99999e-01,9.99999e-01,9.99999e-01,9.99271e-01,4.95533e-03,9.99996e-01
5.814530100e-01,5.49898e-03,9.99999e-01,9.99999e-01,9.99999e-01,9.99268e-01,5.50301e-03,9.99997e-01
5.843602750e-01,6.09325e-03,9.99999e-01,9.99999e-01,9.99999e-01,9.99129e-01,6.09859e-03,9.99994e-01
5.872820764e-01,6.69409e-03,9.99999e-01,9.99999e-01,9.99999e-01,9.92517e-01,6.74491e-03,9.99946e-01
5.902184868e-01,7.37630e-03,9.99999e-01,9.99999e-01,9.99999e-01,9.90926e-01,7.44491e-03,9.99855e-01
5.931695792e-01,8.14783e-03,9.99999e-01,9.99999e-01,9.99999e-01,9.93587e-01,8.20154e-03,9.99861e-01
5.961354271e-01,8.95370e-03,9.99999e-01,9.99999e-01,9.99999e-01,9.92968e-01,9.01781e-03,9.99920e-01
5.991161043e-01,9.84572e-03,9.99999e-01,9.99999e-01,9.99999e-01,9.94866e-01,9.89676e-03,9.99974e-01
6.021116848e-01,1.08098e-02,9.99999e-01,9.99999e-01,9.99999e-01,9.97084e-01,1.08414e-02,9.99996e-01
6.051222432e-01,1.18374e-02,9.99999e-01,9.99999e-01,9.99999e-01,9.98523e-01,1.18549e-02,9.99999e-01
6.081478544e-01,1.29321e-02,9.99999e-01,9.99999e-01,9.99999e-01,9.99362e-01,1.29403e-02,9.99999e-01
6.111885937e-01,1.40968e-02,9.99999e-01,9.99999e-01,9.99999e-01,9.99730e-01,1.41006e-02,9.99999e-01
6.142445367e-01,1.53371e-02,9.99999e-01,9.99999e-01,9.99999e-01,9.99879e-01,1.53389e-02,9.99999e-01
6.173157594e-01,1.66572e-02,9.99999e-01,9.99999e-01,9.99999e-01,9.99933e-01,1.66583e-02,9.99999e-01
6.204023382e-01,1.80606e-02,9.99999e-01,9.99999e-01,9.99999e-01,9.99943e-01,1.80616e-02,9.99999e-01
6.235043498e-01,1.95471e-02,9.99999e-01,9.99999e-01,9.99999e-01,9.99752e-01,1.95520e-02,9.99998e-01
6.266218716e-01,2.11043e-02,9.99999e-01,9.99999e-01,9.99999e-01,9.98690e-01,2.11322e-02,9.99990e-01
6.297549810e-01,2.27937e-02,9.99999e-01,9.99999e-01,9.99999e-01,9.99519e-01,2.28050e-02,9.99981e-01
6.329037559e-01,2.45496e-02,9.99999e-01,9.99999e-01,9.99999e-01,9.99050e-01,2.45733e-02,9.99984e-01
6.360682746e-01,2.64181e-02,9.99999e-01,9.99999e-01,9.99999e-01,9.99191e-01,2.64397e-02,9.99990e-01
6.392486160e-01,2.83768e-02,9.99999e-01,9.99999e-01,9.99999e-01,9.98952e-01,2.84067e-02,9.99995e-01
6.424448591e-01,3.04339e-02,9.99999e-01,9.99999e-01,9.99999e-01,9.98600e-01,3.04768e-02,9.99993e-01
6.456570834e-01,3.24394e-02,9.99999e-01,9.99999e-01,9.99999e-01,9.93513e-01,3.26523e-02,9.99963e-01
6.488853688e-01,3.47659e-02,9.99999e-01,9.99999e-01,9.99999e-01,9.95242e-01,3.49356e-02,9.99898e-01
6.521297956e-01,3.71446e-02,9.99999e-01,9.99999e-01,9.99999e-01,9.95151e-01,3.73286e-02,9.99916e-01
6.553904446e-01,3.96388e-02,9.99999e-01,9.99999e-01,9.99999e-01,9.95174e-01,3.98334e-02,9.99937e-01
6.586673968e-01,4.22754e-02,9.99999e-01,9.99999e-01,9.99999e-01,9.95864e-01,4.24518e-02,9.99978e-01
6.619607338e-01,4.50772e-02,9.99999e-01,9.99999e-01,9.99999e-01,9.97607e-01,4.51855e-02,9.99995e-01
6.652705375e-01,4.79693e-02,9.99999e-01,9.99999e-01,9.99999e-01,9.98614e-01,4.80359e-02,9.99997e-01
6.685968902e-01,5.09716e-02,9.99999e-01,9.99999e-01,9.99999e-01,9.99355e-01,5.10045e-02,9.99999e-01
6.719398746e-01,5.40763e-02,9.99999e-01,9.99999e-01,9.99999e-01,9.99701e-01,5.40924e-02,9.99999e-01
6.752995740e-01,5.72914e-02,9.99999e-01,9.99999e-01,9.99999e-01,9.99838e-01,5.73007e-02,9.99999e-01
6.786760719e-01,6.06161e-02,9.99999e-01,9.99999e-01,9.99999e-01,9.99766e-01,6.06302e-02,9.99999e-01
6.820694522e-01,6.40560e-02,9.99999e-01,9.99999e-01,9.99999e-01,9.99600e-01,6.40817e-02,9.99997e-01
6.854797995e-01,6.76205e-02,9.99999e-01,9.99999e-01,9.99999e-01,9.99484e-01,6.76557e-02,9.99995e-01
6.889071985e-01,7.12628e-02,9.99999e-01,9.99999e-01,9.99999e-01,9.98755e-01,7.13524e-02,9.99988e-01
6.923517345e-01,7.36492e-02,9.99999e-01,9.99999e-01,9.99999e-01,9.79836e-01,7.51721e-02,9.99902e-01
6.958134932e-01,7.82632e-02,9.99999e-01,9.99999e-01,9.99999e-01,9.89450e-01,7.91147e-02,9.99783e-01
6.992925606e-01,8.23311e-02,9.99999e-01,9.99999e-01,9.99999e-01,9.89985e-01,8.31801e-02,9.99804e-01
7.027890234e-01,8.62751e-02,9.99999e-01,9.99999e-01,9.99999e-01,9.87638e-01,8.73678e-02,9.99850e-01
7.063029686e-01,9.07171e-02,9.99999e-01,9.99999e-01,9.99999e-01,9.89596e-01,9.16775e-02,9.99925e-01
7.098344834e-01,9.51445e-02,9.99999e-01,9.99999e-01,9.99999e-01,9.90015e-01,9.61082e-02,9.99955e-01
7.133836558e-01,9.93158e-02,9.99999e-01,9.99999e-01,9.99999e-01,9.86739e-01,1.00659e-01,9.99912e-01
7.169505741e-01,9.45814e-02,9.99999e-01,9.99999e-01,9.99999e-01,8.98572e-01,1.05329e-01,9.99315e-01
7.205353270e-01,1.04359e-01,9.99999e-01,9.99999e-01,9.99999e-01,9.48848e-01,1.10118e-01,9.98793e-01
7.241380036e-01,1.07492e-01,9.99999e-01,9.99999e-01,9.99999e-01,9.35508e-01,1.15022e-01,9.98957e-01
7.277586936e-01,1.12938e-01,9.99999e-01,9.99999e-01,9.99999e-01,9.41620e-01,1.20042e-01,9.99148e-01
7.313974871e-01,1.17356e-01,9.99999e-01,9.99999e-01,9.99999e-01,9.37908e-01,1.25176e-01,9.99600e-01
7.350544745e-01,1.25914e-01,9.99999e-01,9.99999e-01,9.99999e-01,9.65580e-01,1.30420e-01,9.99860e-01
7.387297469e-01,1.32310e-01,9.99999e-01,9.99999e-01,9.99999e-01,9.74539e-01,1.35775e-01,9.99935e-01
7.424233956e-01,1.39464e-01,9.99999e-01,9.99999e-01,9.99999e-01,9.87458e-01,1.41237e-01,9.99987e-01
7.461355126e-01,1.45686e-01,9.99999e-01,9.99999e-01,9.99999e-01,9.92382e-01,1.46805e-01,9.99997e-01
7.498661902e-01,1.51933e-01,9.99999e-01,9.99999e-01,9.99999e-01,9.96446e-01,1.52475e-01,9.99998e-01
7.536155211e-01,1.57970e-01,9.99999e-01,9.99999e-01,9.99999e-01,9.98255e-01,1.58246e-01,9.99999e-01
7.573835987e-01,1.63967e-01,9.99999e-01,9.99999e-01,9.99999e-01,9.99101e-01,1.64115e-01,9.99999e-01
7.611705167e-01,1.69984e-01,9.99999e-01,9.99999e-01,9.99999e-01,9.99441e-01,1.70079e-01,9.99999e-01
7.649763693e-01,1.76074e-01,9.99999e-01,9.99999e-01,9.99999e-01,9.99649e-01,1.76135e-01,9.99999e-01
7.688012511e-01,1.82237e-01,9.99999e-01,9.99999e-01,9.99999e-01,9.99756e-01,1.82282e-01,9.99999e-01
7.726452574e-01,1.88477e-01,9.99999e-01,9.99999e-01,9.99999e-01,9.99799e-01,1.88515e-01,9.99999e-01
7.765084837e-01,1.94776e-01,9.99999e-01,9.99999e-01,9.99999e-01,9.99715e-01,1.94831e-01,9.99999e-01
7.803910261e-01,1.87767e-01,9.99999e-01,9.99999e-01,9.34181e-01,9.98771e-01,2.01229e-01,9.99998e-01
7.842929812e-01,1.49934e-01,9.99999e-01,9.99999e-01,7.24688e-01,9.95715e-01,2.07704e-01,9.99991e-01
7.882144461e-01,1.50975e-01,9.99999e-01,9.99999e-01,7.10480e-01,9.91182e-01,2.14253e-01,9.99945e-01
7.921555184e-01,1.78936e-01,9.99999e-01,9.99999e-01,8.13971e-01,9.95154e-01,2.20873e-01,9.99894e-01
7.961162960e-01,1.96395e-01,9.99999e-01,9.99999e-01,8.70417e-01,9.91460e-01,2.27560e-01,9.99899e-01
8.000968774e-01,2.15167e-01,9.99999e-01,9.99999e-01,9.27484e-01,9.90132e-01,2.34313e-01,9.99892e-01
8.040973618e-01,2.29594e-01,9.99999e-01,9.99999e-01,9.61703e-01,9.90132e-01,2.41126e-01,9.99914e-01
8.081178486e-01,2.38209e-01,9.99999e-01,9.99999e-01,9.82232e-01,9.77919e-01,2.47997e-01,9.99920e-01
8.121584379e-01,2.30984e-01,9.99999e-01,9.99999e-01,9.94476e-01,9.11304e-01,2.54922e-01,9.99687e-01
8.162192301e-01,2.34002e-01,9.99999e-01,9.99999e-01,9.98777e-01,8.95584e-01,2.61898e-01,9.98826e-01
8.203003262e-01,2.54340e-01,9.99999e-01,9.99999e-01,9.99981e-01,9.47092e-01,2.68921e-01,9.98625e-01
8.244018279e-01,2.55545e-01,9.99999e-01,9.99999e-01,9.99999e-01,9.26938e-01,2.75989e-01,9.98905e-01
8.285238370e-01,2.64817e-01,9.99999e-01,9.99999e-01,9.99999e-01,9.36233e-01,2.83097e-01,9.99140e-01
8.326664562e-01,2.71449e-01,9.99999e-01,9.99999e-01,9.99999e-01,9.35581e-01,2.90243e-01,9.99644e-01
8.368297885e-01,2.83555e-01,9.99999e-01,9.99999e-01,9.99999e-01,9.53452e-01,2.97422e-01,9.99918e-01
8.410139374e-01,2.96109e-01,9.99999e-01,9.99999e-01,9.99999e-01,9.72068e-01,3.04632e-01,9.99952e-01
8.452190071e-01,3.07557e-01,9.99999e-01,9.99999e-01,9.99999e-01,9.86202e-01,3.11869e-01,9.99971e-01
8.494451021e-01,3.16562e-01,9.99999e-01,9.99999e-01,9.99999e-01,9.91975e-01,3.19130e-01,9.99976e-01
8.536923276e-01,3.24855e-01,9.99999e-01,9.99999e-01,9.99999e-01,9.95246e-01,3.26411e-01,9.99985e-01
8.579607893e-01,3.32732e-01,9.99999e-01,9.99999e-01,9.99999e-01,9.97071e-01,3.33710e-01,9.99996e-01
8.622505932e-01,3.40388e-01,9.99999e-01,9.99999e-01,9.99999e-01,9.98138e-01,3.41023e-01,9.99998e-01
8.665618462e-01,3.08865e-01,9.99999e-01,9.99999e-01,8.87620e-01,9.98848e-01,3.48347e-01,9.99999e-01
8.708946554e-01,1.59621e-01,9.99999e-01,9.99999e-01,4.49330e-01,9.98681e-01,3.55680e-01,9.99998e-01
8.752491287e-01,1.87607e-01,9.99999e-01,9.99999e-01,5.17661e-01,9.98236e-01,3.63017e-01,9.99997e-01
8.796253743e-01,2.55762e-01,9.99999e-01,9.99999e-01,6.92176e-01,9.97559e-01,3.70356e-01,9.99994e-01
8.840235012e-01,3.10599e-01,9.99999e-01,9.99999e-01,8.24594e-01,9.97212e-01,3.77694e-01,9.99982e-01
8.884436187e-01,3.53190e-01,9.99999e-01,9.99999e-01,9.26520e-01,9.89898e-01,3.85028e-01,9.99951e-01
8.928858368e-01,3.41998e-01,9.99999e-01,9.99999e-01,9.69523e-01,8.98780e-01,3.92356e-01,9.99720e-01
8.973502660e-01,3.28145e-01,9.99999e-01,9.99999e-01,9.92509e-01,8.28140e-01,3.99674e-01,9.98572e-01
9.018370173e-01,3.68501e-01,9.99999e-01,9.99999e-01,9.99171e-01,9.08191e-01,4.06980e-01,9.97756e-01
9.063462024e-01,3.72473e-01,9.99999e-01,9.99999e-01,9.79206e-01,9.18719e-01,4.14271e-01,9.98028e-01
9.108779334e-01,3.51476e-01,9.99999e-01,9.99999e-01,9.52391e-01,8.76150e-01,4.21546e-01,9.97951e-01
9.154323231e-01,3.64263e-01,9.99999e-01,9.99999e-01,9.88606e-01,8.60295e-01,4.28800e-01,9.98306e-01
9.200094847e-01,3.36023e-01,9.99999e-01,9.99999e-01,8.57445e-01,8.88970e-01,4.36032e-01,9.99051e-01
9.246095321e-01,2.93768e-01,9.99999e-01,9.99999e-01,7.88298e-01,8.35057e-01,4.43240e-01,9.98907e-01
9.292325798e-01,1.19932e-01,9.99999e-01,9.99999e-01,8.31696e-01,3.11108e-01,4.50421e-01,9.95746e-01
9.338787427e-01,8.62337e-02,9.99999e-01,9.99999e-01,8.35649e-01,2.22483e-01,4.57573e-01,9.82536e-01
9.385481364e-01,2.19504e-01,9.99999e-01,9.99999e-01,8.75839e-01,5.42977e-01,4.64694e-01,9.79263e-01
9.432408771e-01,1.88339e-01,9.99999e-01,9.99999e-01,9.21797e-01,4.37407e-01,4.71782e-01,9.82084e-01
9.479570815e-01,1.46108e-01,9.99999e-01,9.99999e-01,9.59071e-01,3.21577e-01,4.78835e-01,9.85394e-01
9.526968669e-01,1.97989e-01,9.99999e-01,9.99999e-01,9.80062e-01,4.18268e-01,4.85851e-01,9.91066e-01
9.574603512e-01,2.13621e-01,9.99999e-01,9.99999e-01,9.91421e-01,4.38714e-01,4.92828e-01,9.95451e-01
9.622476530e-01,2.52305e-01,9.99999e-01,9.99999e-01,9.97316e-01,5.07640e-01,4.99765e-01,9.96852e-01
9.670588912e-01,3.41043e-01,9.99999e-01,9.99999e-01,9.99195e-01,6.75059e-01,5.06659e-01,9.97846e-01
9.718941857e-01,3.99603e-01,9.99999e-01,9.99999e-01,9.99942e-01,7.79453e-01,5.13509e-01,9.98414e-01
9.767536566e-01,4.22505e-01,9.99999e-01,9.99999e-01,9.99999e-01,8.13003e-01,5.20314e-01,9.98787e-01
9.816374249e-01,4.51721e-01,9.99999e-01,9.99999e-01,9.99999e-01,8.57398e-01,5.27072e-01,9.99580e-01
9.865456120e-01,4.84747e-01,9.99999e-01,9.99999e-01,9.99999e-01,9.08215e-01,5.33782e-01,9.99912e-01
9.914783401e-01,5.09177e-01,9.99999e-01,9.99999e-01,9.99999e-01,9.42171e-01,5.40442e-01,9.99975e-01
9.964357318e-01,5.29583e-01,9.99999e-01,9.99999e-01,9.99999e-01,9.68081e-01,5.47051e-01,9.99985e-01
1.001417910e+00,5.42936e-01,9.99999e-01,9.99999e-01,9.99999e-01,9.80742e-01,5.53608e-01,9.99977e-01
1.006425000e+00,5.53922e-01,9.99999e-01,9.99999e-01,9.99999e-01,9.88978e-01,5.60112e-01,9.99968e-01
1.011457125e+00,5.62662e-01,9.99999e-01,9.99999e-01,9.99999e-01,9.93145e-01,5.66562e-01,9.99970e-01
1.016514411e+00,5.70276e-01,9.99999e-01,9.99999e-01,9.99999e-01,9.95341e-01,5.72956e-01,9.99979e-01
1.021596983e+00,5.77068e-01,9.99999e-01,9.99999e-01,9.99888e-01,9.96286e-01,5.79294e-01,9.99979e-01
1.026704968e+00,5.79081e-01,9.99999e-01,9.99999e-01,9.91788e-01,9.97103e-01,5.85574e-01,9.99985e-01
1.031838492e+00,5.46311e-01,9.99999e-01,9.99999e-01,9.25002e-01,9.97893e-01,5.91797e-01,9.99995e-01
1.036997685e+00,4.38919e-02,9.99999e-01,9.99999e-01,7.34726e-02,9.98748e-01,5.97961e-01,9.99998e-01
1.042182673e+00,8.50551e-03,9.99999e-01,9.99999e-01,1.40974e-02,9.98508e-01,6.04066e-01,9.99999e-01
1.047393587e+00,1.70942e-02,9.99999e-01,9.99999e-01,2.80654e-02,9.98022e-01,6.10110e-01,9.99999e-01
1.052630555e+00,1.82686e-05,9.99999e-01,9.99999e-01,2.97053e-05,9.97287e-01,6.16094e-01,9.99998e-01
1.057893707e+00,6.52434e-05,9.99999e-01,9.99999e-01,1.05157e-04,9.95475e-01,6.22017e-01,9.99997e-01
1.063183176e+00,6.79685e-04,9.99999e-01,9.99999e-01,1.08751e-03,9.92564e-01,6.27878e-01,9.99995e-01
1.068499092e+00,4.21858e-03,9.99999e-01,9.99999e-01,6.71827e-03,9.87577e-01,6.33676e-01,9.99991e-01
1.073841587e+00,2.58742e-02,9.99999e-01,9.99999e-01,4.09216e-02,9.85485e-01,6.39412e-01,9.99981e-01
