#,Wave/freq,Total,N2,O2,CO2,H2O,Rayleigh,CIA
4.000000000e-01,1.75982e-07,9.99999e-01,9.99999e-01,9.99999e-01,9.99969e-01,1.75987e-07,9.99999e-01
4.020000000e-01,2.39349e-07,9.99999e-01,9.99999e-01,9.99999e-01,9.99980e-01,2.39354e-07,9.99999e-01
4.040100000e-01,3.23457e-07,9.99999e-01,9.99999e-01,9.99999e-01,9.99991e-01,3.23460e-07,9.99999e-01
4.060300500e-01,4.34527e-07,9.99999e-01,9.99999e-01,9.99999e-01,9.99997e-01,4.34528e-07,9.99999e-01
4.080602003e-01,5.80339e-07,9.99999e-01,9.99999e-01,9.99999e-01,9.99998e-01,5.80340e-07,9.99999e-01
4.101005013e-01,7.70664e-07,9.99999e-01,9.99999e-01,9.99999e-01,9.99999e-01,7.70664e-07,9.99999e-01
4.121510038e-01,1.01769e-06,9.99999e-01,9.99999e-01,9.99999e-01,9.99998e-01,1.01769e-06,9.99999e-01
4.142117588e-01,1.33652e-06,9.99999e-01,9.99999e-01,9.99999e-01,9.99991e-01,1.33653e-06,9.99999e-01
4.162828176e-01,1.74578e-06,9.99999e-01,9.99999e-01,9.99999e-01,9.99962e-01,1.74584e-06,9.99999e-01
4.183642317e-01,2.26846e-06,9.99999e-01,9.99999e-01,9.99999e-01,9.99977e-01,2.26851e-06,9.99999e-01
4.204560528e-01,2.93239e-06,9.99999e-01,9.99999e-01,9.99999e-01,9.99985e-01,2.93243e-06,9.99999e-01
4.225583331e-01,3.77148e-06,9.99999e-01,9.99999e-01,9.99999e-01,9.99994e-01,3.77150e-06,9.99999e-01
4.246711247e-01,4.82658e-06,9.99999e-01,9.99999e-01,9.99999e-01,9.99995e-01,4.82660e-06,9.99999e-01
4.267944804e-01,6.14681e-06,9.99999e-01,9.99999e-01,9.99999e-01,9.99993e-01,6.14685e-06,9.99999e-01
4.289284528e-01,7.79090e-06,9.99999e-01,9.99999e-01,9.99999e-01,9.99994e-01,7.79094e-06,9.99999e-01
4.310730950e-01,9.82862e-06,9.99999e-01,9.99999e-01,9.99999e-01,9.99997e-01,9.82864e-06,9.99999e-01
4.332284605e-01,1.23425e-05,9.99999e-01,9.99999e-01,9.99999e-01,9.99998e-01,1.23425e-05,9.99999e-01
4.353946028e-01,1.54298e-05,9.99999e-01,9.99999e-01,9.99999e-01,9.99999e-01,1.54298e-05,9.99999e-01
4.375715758e-01,1.92044e-05,9.99999e-01,9.99999e-01,9.99999e-01,9.99995e-01,1.92045e-05,9.99999e-01
4.397594337e-01,2.37987e-05,9.99999e-01,9.99999e-01,9.99999e-01,9.99967e-01,2.37995e-05,9.99999e-01
4.419582309e-01,2.93644e-05,9.99999e-01,9.99999e-01,9.99999e-01,9.99837e-01,2.93692e-05,9.99999e-01
4.441680220e-01,3.60874e-05,9.99999e-01,9.99999e-01,9.99999e-01,9.99869e-01,3.60921e-05,9.99999e-01
4.463888621e-01,4.41678e-05,9.99999e-01,9.99999e-01,9.99999e-01,9.99865e-01,4.41737e-05,9.99999e-01
4.486208064e-01,5.38451e-05,9.99999e-01,9.99999e-01,9.99999e-01,9.99915e-01,5.38496e-05,9.99999e-01
4.508639105e-01,6.53861e-05,9.99999e-01,9.99999e-01,9.99999e-01,9.99960e-01,6.53887e-05,9.99999e-01
4.531182300e-01,7.90952e-05,9.99999e-01,9.99999e-01,9.99999e-01,9.99983e-01,7.90964e-05,9.99999e-01
4.553838212e-01,9.53177e-05,9.99999e-01,9.99999e-01,9.99999e-01,9.99989e-01,9.53187e-05,9.99999e-01
4.576607403e-01,1.14445e-04,9.99999e-01,9.99999e-01,9.99999e-01,9.99994e-01,1.14446e-04,9.99999e-01
4.599490440e-01,1.36915e-04,9.99999e-01,9.99999e-01,9.99999e-01,9.99996e-01,1.36915e-04,9.99999e-01
4.622487892e-01,1.63217e-04,9.99999e-01,9.99999e-01,9.99999e-01,9.99998e-01,1.63217e-04,9.99999e-01
4.645600332e-01,1.93898e-04,9.99999e-01,9.99999e-01,9.99999e-01,9.99997e-01,1.93898e-04,9.99999e-01
4.668828333e-01,2.29555e-04,9.99999e-01,9.99999e-01,9.99999e-01,9.99960e-01,2.29564e-04,9.99999e-01
4.692172475e-01,2.70862e-04,9.99999e-01,9.99999e-01,9.99999e-01,9.99915e-01,2.70885e-04,9.99999e-01
4.715633337e-01,3.18583e-04,9.99999e-01,9.99999e-01,9.99999e-01,9.99944e-01,3.18600e-04,9.99999e-01
4.739211504e-01,3.73502e-04,9.99999e-01,9.99999e-01,9.99999e-01,9.99946e-01,3.73521e-04,9.99999e-01
4.762907561e-01,4.36525e-04,9.99999e-01,9.99999e-01,9.99999e-01,9.99972e-01,4.36537e-04,9.99999e-01
4.786722099e-01,5.08609e-04,9.99999e-01,9.99999e-01,9.99999e-01,9.99988e-01,5.08614e-04,9.99999e-01
4.810655710e-01,5.90805e-04,9.99999e-01,9.99999e-01,9.99999e-01,9.99996e-01,5.90807e-04,9.99999e-01
4.834708988e-01,6.84233e-04,9.99999e-01,9.99999e-01,9.99999e-01,9.99968e-01,6.84254e-04,9.99999e-01
4.858882533e-01,7.90140e-04,9.99999e-01,9.99999e-01,9.99999e-01,9.99939e-01,7.90187e-04,9.99999e-01
4.883176946e-01,9.09883e-04,9.99999e-01,9.99999e-01,9.99999e-01,9.99949e-01,9.09929e-04,9.99999e-01
4.907592831e-01,1.04485e-03,9.99999e-01,9.99999e-01,9.99999e-01,9.99954e-01,1.04490e-03,9.99999e-01
4.932130795e-01,1.19658e-03,9.99999e-01,9.99999e-01,9.99999e-01,9.99967e-01,1.19662e-03,9.99999e-01
4.956791449e-01,1.36668e-03,9.99999e-01,9.99999e-01,9.99999e-01,9.99982e-01,1.36670e-03,9.99999e-01
4.981575406e-01,1.55673e-03,9.99999e-01,9.99999e-01,9.99999e-01,9.99915e-01,1.55686e-03,9.99999e-01
5.006483283e-01,1.76854e-03,9.99999e-01,9.99999e-01,9.99999e-01,9.99782e-01,1.76893e-03,9.99998e-01
5.031515699e-01,2.00257e-03,9.99999e-01,9.99999e-01,9.99999e-01,9.98890e-01,2.00482e-03,9.99987e-01
5.056673278e-01,2.26519e-03,9.99999e-01,9.99999e-01,9.99999e-01,9.99411e-01,2.26655e-03,9.99986e-01
5.081956644e-01,2.55433e-03,9.99999e-01,9.99999e-01,9.99999e-01,9.99257e-01,2.55625e-03,9.99990e-01
5.107366428e-01,2.87469e-03,9.99999e-01,9.99999e-01,9.99999e-01,9.99497e-01,2.87614e-03,9.99997e-01
5.132903260e-01,3.22760e-03,9.99999e-01,9.99999e-01,9.99999e-01,9.99712e-01,3.22853e-03,9.99999e-01
5.158567776e-01,3.61539e-03,9.99999e-01,9.99999e-01,9.99999e-01,9.99878e-01,3.61583e-03,9.99999e-01
5.184360615e-01,4.04034e-03,9.99999e-01,9.99999e-01,9.99999e-01,9.99950e-01,4.04054e-03,9.99999e-01
5.210282418e-01,4.50516e-03,9.99999e-01,9.99999e-01,9.99999e-01,9.99981e-01,4.50524e-03,9.99999e-01
5.236333830e-01,5.01223e-03,9.99999e-01,9.99999e-01,9.99999e-01,9.99927e-01,5.01260e-03,9.99998e-01
5.262515499e-01,5.56509e-03,9.99999e-01,9.99999e-01,9.99999e-01,9.99954e-01,5.56535e-03,9.99998e-01
5.288828077e-01,6.16604e-03,9.99999e-01,9.99999e-01,9.99999e-01,9.99958e-01,6.16630e-03,9.99999e-01
5.315272217e-01,6.81806e-03,9.99999e-01,9.99999e-01,9.99999e-01,9.99962e-01,6.81832e-03,9.99999e-01
5.341848578e-01,7.52414e-03,9.99999e-01,9.99999e-01,9.99999e-01,9.99975e-01,7.52432e-03,9.99999e-01
5.368557821e-01,8.28659e-03,9.99999e-01,9.99999e-01,9.99999e-01,9.99915e-01,8.28729e-03,9.99999e-01
5.395400610e-01,9.10746e-03,9.99999e-01,9.99999e-01,9.99999e-01,9.99699e-01,9.11022e-03,9.99996e-01
5.422377613e-01,9.99214e-03,9.99999e-01,9.99999e-01,9.99999e-01,9.99604e-01,9.99616e-03,9.99992e-01
5.449489501e-01,1.09441e-02,9.99999e-01,9.99999e-01,9.99999e-01,9.99635e-01,1.09482e-02,9.99992e-01
5.476736949e-01,1.19654e-02,9.99999e-01,9.99999e-01,9.99999e-01,9.99673e-01,1.19693e-02,9.99995e-01
5.504120634e-01,1.30596e-02,9.99999e-01,9.99999e-01,9.99999e-01,9.99763e-01,1.30627e-02,9.99998e-01
5.531641237e-01,1.42296e-02,9.99999e-01,9.99999e-01,9.99999e-01,9.99880e-01,1.42313e-02,9.99999e-01
5.559299443e-01,1.54774e-02,9.99999e-01,9.99999e-01,9.99999e-01,9.99942e-01,1.54783e-02,9.99999e-01
5.587095940e-01,1.68060e-02,9.99999e-01,9.99999e-01,9.99999e-01,9.99963e-01,1.68066e-02,9.99999e-01
5.615031420e-01,1.82186e-02,9.99999e-01,9.99999e-01,9.99999e-01,9.99959e-01,1.82193e-02,9.99999e-01
5.643106577e-01,1.97184e-02,9.99999e-01,9.99999e-01,9.99999e-01,9.99955e-01,1.97193e-02,9.99999e-01
5.671322110e-01,2.12978e-02,9.99999e-01,9.99999e-01,9.99999e-01,9.99462e-01,2.13094e-02,9.99995e-01
5.699678720e-01,2.29785e-02,9.99999e-01,9.99999e-01,9.99999e-01,9.99408e-01,2.29925e-02,9.99984e-01
5.728177114e-01,2.47559e-02,9.99999e-01,9.99999e-01,9.99999e-01,9.99392e-01,2.47713e-02,9.99987e-01
5.756818000e-01,2.66333e-02,9.99999e-01,9.99999e-01,9.99999e-01,9.99440e-01,2.66484e-02,9.99991e-01
5.785602090e-01,2.86125e-02,9.99999e-01,9.99999e-01,9.99999e-01,9.99511e-01,2.86265e-02,9.99997e-01
5.814530100e-01,3.06929e-02,9.99999e-01,9.99999e-01,9.99999e-01,9.99510e-01,3.07080e-02,9.99998e-01
5.843602750e-01,3.28761e-02,9.99999e-01,9.99999e-01,9.99999e-01,9.99422e-01,3.28951e-02,9.99996e-01
5.872820764e-01,3.50138e-02,9.99999e-01,9.99999e-01,9.99999e-01,9.95019e-01,3.51902e-02,9.99964e-01
5.902184868e-01,3.73625e-02,9.99999e-01,9.99999e-01,9.99999e-01,9.93901e-01,3.75953e-02,9.99903e-01
5.931695792e-01,3.99364e-02,9.99999e-01,9.99999e-01,9.99999e-01,9.95704e-01,4.01124e-02,9.99905e-01
5.961354271e-01,4.25391e-02,9.99999e-01,9.99999e-01,9.99999e-01,9.95279e-01,4.27432e-02,9.99942e-01
5.991161043e-01,4.53319e-02,9.99999e-01,9.99999e-01,9.99999e-01,9.96551e-01,4.54895e-02,9.99983e-01
6.021116848e-01,4.82578e-02,9.99999e-01,9.99999e-01,9.99999e-01,9.98038e-01,4.83527e-02,9.99997e-01
6.051222432e-01,5.12832e-02,9.99999e-01,9.99999e-01,9.99999e-01,9.99006e-01,5.13342e-02,9.99999e-01
6.081478544e-01,5.44118e-02,9.99999e-01,9.99999e-01,9.99999e-01,9.99571e-01,5.44351e-02,9.99999e-01
6.111885937e-01,5.76461e-02,9.99999e-01,9.99999e-01,9.99999e-01,9.99818e-01,5.76566e-02,9.99999e-01
6.142445367e-01,6.09944e-02,9.99999e-01,9.99999e-01,9.99999e-01,9.99918e-01,6.09993e-02,9.99999e-01
6.173157594e-01,6.44612e-02,9.99999e-01,9.99999e-01,9.99999e-01,9.99954e-01,6.44641e-02,9.99999e-01
6.204023382e-01,6.80488e-02,9.99999e-01,9.99999e-01,9.99999e-01,9.99962e-01,6.80513e-02,9.99999e-01
6.235043498e-01,7.17498e-02,9.99999e-01,9.99999e-01,9.99999e-01,9.99837e-01,7.17614e-02,9.99999e-01
6.266218716e-01,7.55278e-02,9.99999e-01,9.99999e-01,9.99999e-01,9.99123e-01,7.55945e-02,9.99993e-01
6.297549810e-01,7.95239e-02,9.99999e-01,9.99999e-01,9.99999e-01,9.99678e-01,7.95505e-02,9.99987e-01
6.329037559e-01,8.35751e-02,9.99999e-01,9.99999e-01,9.99999e-01,9.99362e-01,8.36291e-02,9.99989e-01
6.360682746e-01,8.77823e-02,9.99999e-01,9.99999e-01,9.99999e-01,9.99460e-01,8.78302e-02,9.99993e-01
6.392486160e-01,9.20882e-02,9.99999e-01,9.99999e-01,9.99999e-01,9.99298e-01,9.21530e-02,9.99996e-01
6.424448591e-01,9.65154e-02,9.99999e-01,9.99999e-01,9.99999e-01,9.99160e-01,9.65968e-02,9.99995e-01
6.456570834e-01,1.00726e-01,9.99999e-01,9.99999e-01,9.99999e-01,9.95725e-01,1.01161e-01,9.99975e-01
6.488853688e-01,1.05439e-01,9.99999e-01,9.99999e-01,9.99999e-01,9.96241e-01,1.05844e-01,9.99932e-01
6.521297956e-01,1.10278e-01,9.99999e-01,9.99999e-01,9.99999e-01,9.96742e-01,1.10645e-01,9.99942e-01
6.553904446e-01,1.15186e-01,9.99999e-01,9.99999e-01,9.99999e-01,9.96785e-01,1.15562e-01,9.99957e-01
6.586673968e-01,1.20257e-01,9.99999e-01,9.99999e-01,9.99999e-01,9.97217e-01,1.20595e-01,9.99985e-01
6.619607338e-01,1.25538e-01,9.99999e-01,9.99999e-01,9.99999e-01,9.98391e-01,1.25740e-01,9.99996e-01
6.652705375e-01,1.30874e-01,9.99999e-01,9.99999e-01,9.99999e-01,9.99065e-01,1.30997e-01,9.99997e-01
6.685968902e-01,1.36304e-01,9.99999e-01,9.99999e-01,9.99999e-01,9.99566e-01,1.36363e-01,9.99999e-01
6.719398746e-01,1.41808e-01,9.99999e-01,9.99999e-01,9.99999e-01,9.99798e-01,1.41837e-01,9.99999e-01
6.752995740e-01,1.47400e-01,9.99999e-01,9.99999e-01,9.99999e-01,9.99891e-01,1.47416e-01,9.99999e-01
6.786760719e-01,1.53073e-01,9.99999e-01,9.99999e-01,9.99999e-01,9.99844e-01,1.53097e-01,9.99999e-01
6.820694522e-01,1.58836e-01,9.99999e-01,9.99999e-01,9.99999e-01,9.99732e-01,1.58879e-01,9.99998e-01
6.854797995e-01,1.64701e-01,9.99999e-01,9.99999e-01,9.99999e-01,9.99655e-01,1.64758e-01,9.99996e-01
6.889071985e-01,1.70592e-01,9.99999e-01,9.99999e-01,9.99999e-01,9.99182e-01,1.70732e-01,9.99992e-01
6.923517345e-01,1.74407e-01,9.99999e-01,9.99999e-01,9.99999e-01,9.86537e-01,1.76799e-01,9.99934e-01
6.958134932e-01,1.81614e-01,9.99999e-01,9.99999e-01,9.99999e-01,9.92817e-01,1.82955e-01,9.99852e-01
6.992925606e-01,1.87910e-01,9.99999e-01,9.99999e-01,9.99999e-01,9.93326e-01,1.89197e-01,9.99869e-01
7.027890234e-01,1.93878e-01,9.99999e-01,9.99999e-01,9.99999e-01,9.91688e-01,1.95523e-01,9.99900e-01
7.063029686e-01,2.00508e-01,9.99999e-01,9.99999e-01,9.99999e-01,9.93015e-01,2.01928e-01,9.99950e-01
7.098344834e-01,2.07009e-01,9.99999e-01,9.99999e-01,9.99999e-01,9.93297e-01,2.08411e-01,9.99970e-01
7.133836558e-01,2.13067e-01,9.99999e-01,9.99999e-01,9.99999e-01,9.91213e-01,2.14968e-01,9.99941e-01
7.169505741e-01,2.06210e-01,9.99999e-01,9.99999e-01,9.99999e-01,9.30994e-01,2.21596e-01,9.99541e-01
7.205353270e-01,2.20093e-01,9.99999e-01,9.99999e-01,9.99999e-01,9.64866e-01,2.28291e-01,9.99191e-01
7.241380036e-01,2.24633e-01,9.99999e-01,9.99999e-01,9.99999e-01,9.56353e-01,2.35050e-01,9.99296e-01
7.277586936e-01,2.32177e-01,9.99999e-01,9.99999e-01,9.99999e-01,9.60488e-01,2.41870e-01,9.99415e-01
7.313974871e-01,2.38164e-01,9.99999e-01,9.99999e-01,9.99999e-01,9.57710e-01,2.48747e-01,9.99732e-01
7.350544745e-01,2.49704e-01,9.99999e-01,9.99999e-01,9.99999e-01,9.76727e-01,2.55677e-01,9.99906e-01
7.387297469e-01,2.58132e-01,9.99999e-01,9.99999e-01,9.99999e-01,9.82807e-01,2.62659e-01,9.99956e-01
7.424233956e-01,2.67401e-01,9.99999e-01,9.99999e-01,9.99999e-01,9.91528e-01,2.69687e-01,9.99991e-01
7.461355126e-01,2.75339e-01,9.99999e-01,9.99999e-01,9.99999e-01,9.94869e-01,2.76759e-01,9.99998e-01
7.498661902e-01,2.83191e-01,9.99999e-01,9.99999e-01,9.99999e-01,9.97601e-01,2.83872e-01,9.99998e-01
7.536155211e-01,2.90680e-01,9.99999e-01,9.99999e-01,9.99999e-01,9.98826e-01,2.91021e-01,9.99999e-01
7.573835987e-01,2.98023e-01,9.99999e-01,9.99999e-01,9.99999e-01,9.99395e-01,2.98204e-01,9.99999e-01
7.611705167e-01,3.05302e-01,9.99999e-01,9.99999e-01,9.99999e-01,9.99624e-01,3.05417e-01,9.99999e-01
7.649763693e-01,3.12583e-01,9.99999e-01,9.99999e-01,9.99999e-01,9.99764e-01,3.12656e-01,9.99999e-01
7.688012511e-01,3.19867e-01,9.99999e-01,9.99999e-01,9.99999e-01,9.99836e-01,3.19920e-01,9.99999e-01
7.726452574e-01,3.27159e-01,9.99999e-01,9.99999e-01,9.99999e-01,9.99865e-01,3.27203e-01,9.99999e-01
7.765084837e-01,3.34441e-01,9.99999e-01,9.99999e-01,9.99999e-01,9.99810e-01,3.34504e-01,9.99999e-01
7.803910261e-01,3.26128e-01,9.99999e-01,9.99999e-01,9.54841e-01,9.99184e-01,3.41818e-01,9.99998e-01
7.842929812e-01,2.79118e-01,9.99999e-01,9.99999e-01,8.01563e-01,9.97155e-01,3.49144e-01,9.99994e-01
7.882144461e-01,2.80433e-01,9.99999e-01,9.99999e-01,7.91127e-01,9.94086e-01,3.56477e-01,9.99963e-01
7.921555184e-01,3.15777e-01,9.99999e-01,9.99999e-01,8.70772e-01,9.96734e-01,3.63814e-01,9.99929e-01
7.961162960e-01,3.36043e-01,9.99999e-01,9.99999e-01,9.10573e-01,9.94309e-01,3.71153e-01,9.99932e-01
8.000968774e-01,3.57383e-01,9.99999e-01,9.99999e-01,9.50560e-01,9.93384e-01,3.78491e-01,9.99928e-01
8.040973618e-01,3.73275e-01,9.99999e-01,9.99999e-01,9.73942e-01,9.93393e-01,3.85825e-01,9.99942e-01
8.081178486e-01,3.82713e-01,9.99999e-01,9.99999e-01,9.88012e-01,9.85280e-01,3.93151e-01,9.99946e-01
8.121584379e-01,3.74933e-01,9.99999e-01,9.99999e-01,9.96246e-01,9.39907e-01,4.00468e-01,9.99790e-01
8.162192301e-01,3.77916e-01,9.99999e-01,9.99999e-01,9.99169e-01,9.28257e-01,4.07773e-01,9.99213e-01
8.203003262e-01,3.99924e-01,9.99999e-01,9.99999e-01,9.99985e-01,9.64426e-01,4.15063e-01,9.99079e-01
8.244018279e-01,4.00614e-01,9.99999e-01,9.99999e-01,9.99999e-01,9.49264e-01,4.22335e-01,9.99267e-01
8.285238370e-01,4.10817e-01,9.99999e-01,9.99999e-01,9.99999e-01,9.56857e-01,4.29587e-01,9.99424e-01
8.326664562e-01,4.17584e-01,9.99999e-01,9.99999e-01,9.99999e-01,9.56198e-01,4.36817e-01,9.99761e-01
8.368297885e-01,4.29985e-01,9.99999e-01,9.99999e-01,9.99999e-01,9.68440e-01,4.44022e-01,9.99945e-01
8.410139374e-01,4.42667e-01,9.99999e-01,9.99999e-01,9.99999e-01,9.81120e-01,4.51200e-01,9.99967e-01
8.452190071e-01,4.54072e-01,9.99999e-01,9.99999e-01,9.99999e-01,9.90688e-01,4.58349e-01,9.99980e-01
8.494451021e-01,4.62951e-01,9.99999e-01,9.99999e-01,9.99999e-01,9.94611e-01,4.65466e-01,9.99984e-01
8.536923276e-01,4.71032e-01,9.99999e-01,9.99999e-01,9.99999e-01,9.96797e-01,4.72550e-01,9.99989e-01
8.579607893e-01,4.78655e-01,9.99999e-01,9.99999e-01,9.99999e-01,9.98034e-01,4.79599e-01,9.99996e-01
8.622505932e-01,4.86002e-01,9.99999e-01,9.99999e-01,9.99999e-01,9.98747e-01,4.86611e-01,9.99999e-01
8.665618462e-01,4.49332e-01,9.99999e-01,9.99999e-01,9.11015e-01,9.99228e-01,4.93584e-01,9.99999e-01
8.708946554e-01,2.87780e-01,9.99999e-01,9.99999e-01,5.75448e-01,9.99118e-01,5.00516e-01,9.99999e-01
8.752491287e-01,3.22673e-01,9.99999e-01,9.99999e-01,6.36649e-01,9.98819e-01,5.07405e-01,9.99998e-01
8.796253743e-01,3.99711e-01,9.99999e-01,9.99999e-01,7.78484e-01,9.98372e-01,5.14251e-01,9.99995e-01
8.840235012e-01,4.56544e-01,9.99999e-01,9.99999e-01,8.77807e-01,9.98138e-01,5.21051e-01,9.99988e-01
8.884436187e-01,4.97912e-01,9.99999e-01,9.99999e-01,9.49604e-01,9.93372e-01,5.27804e-01,9.99967e-01
8.928858368e-01,4.87548e-01,9.99999e-01,9.99999e-01,9.79338e-01,9.31318e-01,5.34508e-01,9.99812e-01
8.973502660e-01,4.73698e-01,9.99999e-01,9.99999e-01,9.94903e-01,8.80527e-01,5.41163e-01,9.99043e-01
9.018370173e-01,5.11993e-01,9.99999e-01,9.99999e-01,9.99435e-01,9.36603e-01,5.47766e-01,9.98497e-01
9.063462024e-01,5.16243e-01,9.99999e-01,9.99999e-01,9.86234e-01,9.44961e-01,5.54317e-01,9.98679e-01
9.108779334e-01,4.96164e-01,9.99999e-01,9.99999e-01,9.67664e-01,9.15004e-01,5.60815e-01,9.98628e-01
9.154323231e-01,5.08222e-01,9.99999e-01,9.99999e-01,9.92228e-01,9.03749e-01,5.67259e-01,9.98865e-01
9.200094847e-01,4.78725e-01,9.99999e-01,9.99999e-01,8.98880e-01,9.23624e-01,5.73647e-01,9.99364e-01
9.246095321e-01,4.39297e-01,9.99999e-01,9.99999e-01,8.51762e-01,8.86487e-01,5.79979e-01,9.99268e-01
9.292325798e-01,2.34778e-01,9.99999e-01,9.99999e-01,8.83653e-01,4.46874e-01,5.86253e-01,9.97150e-01
9.338787427e-01,1.84885e-01,9.99999e-01,9.99999e-01,8.85782e-01,3.50519e-01,5.92470e-01,9.88274e-01
9.385481364e-01,3.55640e-01,9.99999e-01,9.99999e-01,9.14590e-01,6.54054e-01,5.98627e-01,9.86069e-01
9.432408771e-01,3.18999e-01,9.99999e-01,9.99999e-01,9.46521e-01,5.61823e-01,6.04726e-01,9.87970e-01
9.479570815e-01,2.67262e-01,9.99999e-01,9.99999e-01,9.72298e-01,4.53608e-01,6.10763e-01,9.90198e-01
9.526968669e-01,3.30794e-01,9.99999e-01,9.99999e-01,9.86522e-01,5.46086e-01,6.16741e-01,9.94010e-01
9.574603512e-01,3.51169e-01,9.99999e-01,9.99999e-01,9.94209e-01,5.68694e-01,6.22657e-01,9.96952e-01
9.622476530e-01,3.94026e-01,9.99999e-01,9.99999e-01,9.98188e-01,6.29287e-01,6.28511e-01,9.97891e-01
9.670588912e-01,4.84653e-01,9.99999e-01,9.99999e-01,9.99455e-01,7.65562e-01,6.34303e-01,9.98557e-01
9.718941857e-01,5.40608e-01,9.99999e-01,9.99999e-01,9.99960e-01,8.45585e-01,6.40032e-01,9.98937e-01
9.767536566e-01,5.61323e-01,9.99999e-01,9.99999e-01,9.99999e-01,8.70032e-01,6.45698e-01,9.99188e-01
9.816374249e-01,5.87056e-01,9.99999e-01,9.99999e-01,9.99999e-01,9.01611e-01,6.51301e-01,9.99718e-01
9.865456120e-01,6.15611e-01,9.99999e-01,9.99999e-01,9.99999e-01,9.37284e-01,6.56841e-01,9.99941e-01
9.914783401e-01,6.36327e-01,9.99999e-01,9.99999e-01,9.99999e-01,9.60774e-01,6.62317e-01,9.99983e-01
9.964357318e-01,6.53326e-01,9.99999e-01,9.99999e-01,9.99999e-01,9.78438e-01,6.67729e-01,9.99990e-01
1.001417910e+00,6.64330e-01,9.99999e-01,9.99999e-01,9.99999e-01,9.87018e-01,6.73077e-01,9.99985e-01
1.006425000e+00,6.73326e-01,9.99999e-01,9.99999e-01,9.99999e-01,9.92597e-01,6.78361e-01,9.99978e-01
1.011457125e+00,6.80414e-01,9.99999e-01,9.99999e-01,9.99999e-01,9.95385e-01,6.83581e-01,9.99980e-01
1.016514411e+00,6.86573e-01,9.99999e-01,9.99999e-01,9.99999e-01,9.96871e-01,6.88737e-01,9.99985e-01
1.021596983e+00,6.92045e-01,9.99999e-01,9.99999e-01,9.99933e-01,9.97508e-01,6.93828e-01,9.99985e-01
1.026704968e+00,6.93740e-01,9.99999e-01,9.99999e-01,9.94615e-01,9.98057e-01,6.98856e-01,9.99990e-01
1.031838492e+00,6.65347e-01,9.99999e-01,9.99999e-01,9.46632e-01,9.98584e-01,7.03820e-01,9.99997e-01
1.036997685e+00,7.72045e-02,9.99999e-01,9.99999e-01,1.09006e-01,9.99161e-01,7.08720e-01,9.99999e-01
1.042182673e+00,3.47197e-02,9.99999e-01,9.99999e-01,4.86986e-02,9.99003e-01,7.13556e-01,9.99999e-01
1.047393587e+00,5.29946e-02,9.99999e-01,9.99999e-01,7.38597e-02,9.98676e-01,7.18329e-01,9.99999e-01
1.052630555e+00,3.71914e-04,9.99999e-01,9.99999e-01,5.15028e-04,9.98186e-01,7.23038e-01,9.99999e-01
1.057893707e+00,1.11513e-03,9.99999e-01,9.99999e-01,1.53528e-03,9.96980e-01,7.27684e-01,9.99998e-01
1.063183176e+00,5.92546e-03,9.99999e-01,9.99999e-01,8.11878e-03,9.95027e-01,7.32268e-01,9.99996e-01
1.068499092e+00,2.38094e-02,9.99999e-01,9.99999e-01,3.25295e-02,9.91673e-01,7.36789e-01,9.99993e-01
1.073841587e+00,8.31629e-02,9.99999e-01,9.99999e-01,1.13085e-01,9.90283e-01,7.41248e-01,9.99987e-01
