#,Wave/freq,Total,N2,O2,CO2,H2O,Rayleigh,CIA
4.000000000e-01,3.09611e-08,9.99999e-01,9.99999e-01,9.99999e-01,9.99966e-01,3.09621e-08,9.99999e-01
4.020000000e-01,4.35812e-08,9.99999e-01,9.99999e-01,9.99999e-01,9.99978e-01,4.35821e-08,9.99999e-01
4.040100000e-01,6.09110e-08,9.99999e-01,9.99999e-01,9.99999e-01,9.99990e-01,6.09115e-08,9.99999e-01
4.060300500e-01,8.45705e-08,9.99999e-01,9.99999e-01,9.99999e-01,9.99997e-01,8.45706e-08,9.99999e-01
4.080602003e-01,1.16661e-07,9.99999e-01,9.99999e-01,9.99999e-01,9.99998e-01,1.16661e-07,9.99999e-01
4.101005013e-01,1.59908e-07,9.99999e-01,9.99999e-01,9.99999e-01,9.99999e-01,1.59908e-07,9.99999e-01
4.121510038e-01,2.17826e-07,9.99999e-01,9.99999e-01,9.99999e-01,9.99998e-01,2.17826e-07,9.99999e-01
4.142117588e-01,2.94914e-07,9.99999e-01,9.99999e-01,9.99999e-01,9.99990e-01,2.94917e-07,9.99999e-01
4.162828176e-01,3.96891e-07,9.99999e-01,9.99999e-01,9.99999e-01,9.99958e-01,3.96907e-07,9.99999e-01
4.183642317e-01,5.31031e-07,9.99999e-01,9.99999e-01,9.99999e-01,9.99975e-01,5.31044e-07,9.99999e-01
4.204560528e-01,7.06429e-07,9.99999e-01,9.99999e-01,9.99999e-01,9.99984e-01,7.06439e-07,9.99999e-01
4.225583331e-01,9.34477e-07,9.99999e-01,9.99999e-01,9.99999e-01,9.99993e-01,9.34482e-07,9.99999e-01
4.246711247e-01,1.22932e-06,9.99999e-01,9.99999e-01,9.99999e-01,9.99995e-01,1.22933e-06,9.99999e-01
4.267944804e-01,1.60845e-06,9.99999e-01,9.99999e-01,9.99999e-01,9.99992e-01,1.60846e-06,9.99999e-01
4.289284528e-01,2.09337e-06,9.99999e-01,9.99999e-01,9.99999e-01,9.99994e-01,2.09338e-06,9.99999e-01
4.310730950e-01,2.71035e-06,9.99999e-01,9.99999e-01,9.99999e-01,9.99997e-01,2.71035e-06,9.99999e-01
4.332284605e-01,3.49130e-06,9.99999e-01,9.99999e-01,9.99999e-01,9.99998e-01,3.49130e-06,9.99999e-01
4.353946028e-01,4.47483e-06,9.99999e-01,9.99999e-01,9.99999e-01,9.99999e-01,4.47483e-06,9.99999e-01
4.375715758e-01,5.70736e-06,9.99999e-01,9.99999e-01,9.99999e-01,9.99995e-01,5.70739e-06,9.99999e-01
4.397594337e-01,7.24427e-06,9.99999e-01,9.99999e-01,9.99999e-01,9.99963e-01,7.24454e-06,9.99999e-01
4.419582309e-01,9.15078e-06,9.99999e-01,9.99999e-01,9.99999e-01,9.99815e-01,9.15246e-06,9.99999e-01
4.441680220e-01,1.15080e-05,9.99999e-01,9.99999e-01,9.99999e-01,9.99856e-01,1.15096e-05,9.99999e-01
4.463888621e-01,1.44063e-05,9.99999e-01,9.99999e-01,9.99999e-01,9.99850e-01,1.44084e-05,9.99999e-01
4.486208064e-01,1.79558e-05,9.99999e-01,9.99999e-01,9.99999e-01,9.99906e-01,1.79575e-05,9.99999e-01
4.508639105e-01,2.22827e-05,9.99999e-01,9.99999e-01,9.99999e-01,9.99956e-01,2.22836e-05,9.99999e-01
4.531182300e-01,2.75339e-05,9.99999e-01,9.99999e-01,9.99999e-01,9.99982e-01,2.75344e-05,9.99999e-01
4.553838212e-01,3.38800e-05,9.99999e-01,9.99999e-01,9.99999e-01,9.99987e-01,3.38804e-05,9.99999e-01
4.576607403e-01,4.15184e-05,9.99999e-01,9.99999e-01,9.99999e-01,9.99994e-01,4.15187e-05,9.99999e-01
4.599490440e-01,5.06748e-05,9.99999e-01,9.99999e-01,9.99999e-01,9.99995e-01,5.06750e-05,9.99999e-01
4.622487892e-01,6.16076e-05,9.99999e-01,9.99999e-01,9.99999e-01,9.99998e-01,6.16077e-05,9.99999e-01
4.645600332e-01,7.46103e-05,9.99999e-01,9.99999e-01,9.99999e-01,9.99996e-01,7.46105e-05,9.99999e-01
4.668828333e-01,9.00126e-05,9.99999e-01,9.99999e-01,9.99999e-01,9.99955e-01,9.00166e-05,9.99999e-01
4.692172475e-01,1.08192e-04,9.99999e-01,9.99999e-01,9.99999e-01,9.99905e-01,1.08202e-04,9.99999e-01
4.715633337e-01,1.29581e-04,9.99999e-01,9.99999e-01,9.99999e-01,9.99938e-01,1.29589e-04,9.99999e-01
4.739211504e-01,1.54643e-04,9.99999e-01,9.99999e-01,9.99999e-01,9.99941e-01,1.54652e-04,9.99999e-01
4.762907561e-01,1.83912e-04,9.99999e-01,9.99999e-01,9.99999e-01,9.99969e-01,1.83918e-04,9.99999e-01
4.786722099e-01,2.17973e-04,9.99999e-01,9.99999e-01,9.99999e-01,9.99987e-01,2.17975e-04,9.99999e-01
4.810655710e-01,2.57473e-04,9.99999e-01,9.99999e-01,9.99999e-01,9.99995e-01,2.57474e-04,9.99999e-01
4.834708988e-01,3.03120e-04,9.99999e-01,9.99999e-01,9.99999e-01,9.99963e-01,3.03131e-04,9.99999e-01
4.858882533e-01,3.55711e-04,9.99999e-01,9.99999e-01,9.99999e-01,9.99933e-01,3.55735e-04,9.99999e-01
4.883176946e-01,4.16127e-04,9.99999e-01,9.99999e-01,9.99999e-01,9.99944e-01,4.16150e-04,9.99999e-01
4.907592831e-01,4.85296e-04,9.99999e-01,9.99999e-01,9.99999e-01,9.99949e-01,4.85320e-04,9.99999e-01
4.932130795e-01,5.64250e-04,9.99999e-01,9.99999e-01,9.99999e-01,9.99963e-01,5.64270e-04,9.99999e-01
4.956791449e-01,6.54102e-04,9.99999e-01,9.99999e-01,9.99999e-01,9.99980e-01,6.54114e-04,9.99999e-01
4.981575406e-01,7.55982e-04,9.99999e-01,9.99999e-01,9.99999e-01,9.99905e-01,7.56053e-04,9.99999e-01
5.006483283e-01,8.71168e-04,9.99999e-01,9.99999e-01,9.99999e-01,9.99755e-01,8.71382e-04,9.99997e-01
5.031515699e-01,1.00024e-03,9.99999e-01,9.99999e-01,9.99999e-01,9.98762e-01,1.00149e-03,9.99986e-01
5.056673278e-01,1.14710e-03,9.99999e-01,9.99999e-01,9.99999e-01,9.99347e-01,1.14787e-03,9.99984e-01
5.081956644e-01,1.31100e-03,9.99999e-01,9.99999e-01,9.99999e-01,9.99176e-01,1.31210e-03,9.99989e-01
5.107366428e-01,1.49503e-03,9.99999e-01,9.99999e-01,9.99999e-01,9.99443e-01,1.49587e-03,9.99997e-01
5.132903260e-01,1.70043e-03,9.99999e-01,9.99999e-01,9.99999e-01,9.99682e-01,1.70097e-03,9.99999e-01
5.158567776e-01,1.92903e-03,9.99999e-01,9.99999e-01,9.99999e-01,9.99865e-01,1.92929e-03,9.99999e-01
5.184360615e-01,2.18270e-03,9.99999e-01,9.99999e-01,9.99999e-01,9.99945e-01,2.18282e-03,9.99999e-01
5.210282418e-01,2.46359e-03,9.99999e-01,9.99999e-01,9.99999e-01,9.99979e-01,2.46364e-03,9.99999e-01
5.236333830e-01,2.77374e-03,9.99999e-01,9.99999e-01,9.99999e-01,9.99918e-01,2.77396e-03,9.99998e-01
5.262515499e-01,3.11590e-03,9.99999e-01,9.99999e-01,9.99999e-01,9.99949e-01,3.11606e-03,9.99998e-01
5.288828077e-01,3.49215e-03,9.99999e-01,9.99999e-01,9.99999e-01,9.99953e-01,3.49231e-03,9.99998e-01
5.315272217e-01,3.90504e-03,9.99999e-01,9.99999e-01,9.99999e-01,9.99958e-01,3.90520e-03,9.99999e-01
5.341848578e-01,4.35715e-03,9.99999e-01,9.99999e-01,9.99999e-01,9.99972e-01,4.35726e-03,9.99999e-01
5.368557821e-01,4.85070e-03,9.99999e-01,9.99999e-01,9.99999e-01,9.99905e-01,4.85116e-03,9.99999e-01
5.395400610e-01,5.38774e-03,9.99999e-01,9.99999e-01,9.99999e-01,9.99660e-01,5.38959e-03,9.99996e-01
5.422377613e-01,5.97268e-03,9.99999e-01,9.99999e-01,9.99999e-01,9.99562e-01,5.97534e-03,9.99991e-01
5.449489501e-01,6.60853e-03,9.99999e-01,9.99999e-01,9.99999e-01,9.99592e-01,6.61128e-03,9.99991e-01
5.476736949e-01,7.29763e-03,9.99999e-01,9.99999e-01,9.99999e-01,9.99639e-01,7.30029e-03,9.99995e-01
5.504120634e-01,8.04323e-03,9.99999e-01,9.99999e-01,9.99999e-01,9.99738e-01,8.04534e-03,9.99998e-01
5.531641237e-01,8.84826e-03,9.99999e-01,9.99999e-01,9.99999e-01,9.99867e-01,8.84942e-03,9.99999e-01
5.559299443e-01,9.71496e-03,9.99999e-01,9.99999e-01,9.99999e-01,9.99936e-01,9.71558e-03,9.99999e-01
5.587095940e-01,1.06464e-02,9.99999e-01,9.99999e-01,9.99999e-01,9.99959e-01,1.06468e-02,9.99999e-01
5.615031420e-01,1.16458e-02,9.99999e-01,9.99999e-01,9.99999e-01,9.99955e-01,1.16463e-02,9.99999e-01
5.643106577e-01,1.27164e-02,9.99999e-01,9.99999e-01,9.99999e-01,9.99949e-01,1.27170e-02,9.99999e-01
5.671322110e-01,1.38535e-02,9.99999e-01,9.99999e-01,9.99999e-01,9.99385e-01,1.38621e-02,9.99994e-01
5.699678720e-01,1.50745e-02,9.99999e-01,9.99999e-01,9.99999e-01,9.99350e-01,1.50846e-02,9.99982e-01
5.728177114e-01,1.63761e-02,9.99999e-01,9.99999e-01,9.99999e-01,9.99322e-01,1.63874e-02,9.99985e-01
5.756818000e-01,1.77625e-02,9.99999e-01,9.99999e-01,9.99999e-01,9.99378e-01,1.77737e-02,9.99991e-01
5.785602090e-01,1.92359e-02,9.99999e-01,9.99999e-01,9.99999e-01,9.99457e-01,1.92464e-02,9.99996e-01
5.814530100e-01,2.07970e-02,9.99999e-01,9.99999e-01,9.99999e-01,9.99455e-01,2.08084e-02,9.99998e-01
5.843602750e-01,2.24478e-02,9.99999e-01,9.99999e-01,9.99999e-01,9.99350e-01,2.24625e-02,9.99995e-01
5.872820764e-01,2.40752e-02,9.99999e-01,9.99999e-01,9.99999e-01,9.94411e-01,2.42114e-02,9.99960e-01
5.902184868e-01,2.58790e-02,9.99999e-01,9.99999e-01,9.99999e-01,9.93240e-01,2.60579e-02,9.99892e-01
5.931695792e-01,2.78678e-02,9.99999e-01,9.99999e-01,9.99999e-01,9.95219e-01,2.80046e-02,9.99896e-01
5.961354271e-01,2.98947e-02,9.99999e-01,9.99999e-01,9.99999e-01,9.94762e-01,3.00538e-02,9.99940e-01
5.991161043e-01,3.20844e-02,9.99999e-01,9.99999e-01,9.99999e-01,9.96178e-01,3.22081e-02,9.99981e-01
6.021116848e-01,3.43948e-02,9.99999e-01,9.99999e-01,9.99999e-01,9.97830e-01,3.44696e-02,9.99997e-01
6.051222432e-01,3.68001e-02,9.99999e-01,9.99999e-01,9.99999e-01,9.98901e-01,3.68405e-02,9.99999e-01
6.081478544e-01,3.93042e-02,9.99999e-01,9.99999e-01,9.99999e-01,9.99525e-01,3.93228e-02,9.99999e-01
6.111885937e-01,4.19099e-02,9.99999e-01,9.99999e-01,9.99999e-01,9.99799e-01,4.19183e-02,9.99999e-01
6.142445367e-01,4.46247e-02,9.99999e-01,9.99999e-01,9.99999e-01,9.99910e-01,4.46287e-02,9.99999e-01
6.173157594e-01,4.74533e-02,9.99999e-01,9.99999e-01,9.99999e-01,9.99950e-01,4.74556e-02,9.99999e-01
6.204023382e-01,5.03984e-02,9.99999e-01,9.99999e-01,9.99999e-01,9.99957e-01,5.04005e-02,9.99999e-01
6.235043498e-01,5.34545e-02,9.99999e-01,9.99999e-01,9.99999e-01,9.99815e-01,5.34644e-02,9.99999e-01
6.266218716e-01,5.65929e-02,9.99999e-01,9.99999e-01,9.99999e-01,9.99025e-01,5.66485e-02,9.99992e-01
6.297549810e-01,5.99315e-02,9.99999e-01,9.99999e-01,9.99999e-01,9.99642e-01,5.99537e-02,9.99985e-01
6.329037559e-01,6.33353e-02,9.99999e-01,9.99999e-01,9.99999e-01,9.99293e-01,6.33807e-02,9.99988e-01
6.360682746e-01,6.68894e-02,9.99999e-01,9.99999e-01,9.99999e-01,9.99397e-01,6.69301e-02,9.99993e-01
6.392486160e-01,7.05470e-02,9.99999e-01,9.99999e-01,9.99999e-01,9.99220e-01,7.06022e-02,9.99996e-01
6.424448591e-01,7.43192e-02,9.99999e-01,9.99999e-01,9.99999e-01,9.98955e-01,7.43973e-02,9.99994e-01
6.456570834e-01,7.79339e-02,9.99999e-01,9.99999e-01,9.99999e-01,9.95156e-01,7.83153e-02,9.99972e-01
6.488853688e-01,8.20583e-02,9.99999e-01,9.99999e-01,9.99999e-01,9.96458e-01,8.23561e-02,9.99924e-01
6.521297956e-01,8.62018e-02,9.99999e-01,9.99999e-01,9.99999e-01,9.96389e-01,8.65194e-02,9.99937e-01
6.553904446e-01,9.04740e-02,9.99999e-01,9.99999e-01,9.99999e-01,9.96403e-01,9.08047e-02,9.99953e-01
6.586673968e-01,9.49167e-02,9.99999e-01,9.99999e-01,9.99999e-01,9.96921e-01,9.52112e-02,9.99984e-01
6.619607338e-01,9.95667e-02,9.99999e-01,9.99999e-01,9.99999e-01,9.98283e-01,9.97382e-02,9.99996e-01
6.652705375e-01,1.04277e-01,9.99999e-01,9.99999e-01,9.99999e-01,9.98969e-01,1.04385e-01,9.99997e-01
6.685968902e-01,1.09097e-01,9.99999e-01,9.99999e-01,9.99999e-01,9.99521e-01,1.09149e-01,9.99999e-01
6.719398746e-01,1.14006e-01,9.99999e-01,9.99999e-01,9.99999e-01,9.99777e-01,1.14031e-01,9.99999e-01
6.752995740e-01,1.19014e-01,9.99999e-01,9.99999e-01,9.99999e-01,9.99879e-01,1.19028e-01,9.99999e-01
6.786760719e-01,1.24117e-01,9.99999e-01,9.99999e-01,9.99999e-01,9.99825e-01,1.24139e-01,9.99999e-01
6.820694522e-01,1.29323e-01,9.99999e-01,9.99999e-01,9.99999e-01,9.99702e-01,1.29361e-01,9.99997e-01
6.854797995e-01,1.34642e-01,9.99999e-01,9.99999e-01,9.99999e-01,9.99616e-01,1.34694e-01,9.99996e-01
6.889071985e-01,1.40003e-01,9.99999e-01,9.99999e-01,9.99999e-01,9.99068e-01,1.40135e-01,9.99991e-01
6.923517345e-01,1.43474e-01,9.99999e-01,9.99999e-01,9.99999e-01,9.84916e-01,1.45681e-01,9.99926e-01
6.958134932e-01,1.50120e-01,9.99999e-01,9.99999e-01,9.99999e-01,9.92158e-01,1.51331e-01,9.99838e-01
6.992925606e-01,1.55885e-01,9.99999e-01,9.99999e-01,9.99999e-01,9.92521e-01,1.57082e-01,9.99854e-01
7.027890234e-01,1.61412e-01,9.99999e-01,9.99999e-01,9.99999e-01,9.90784e-01,1.62932e-01,9.99888e-01
7.063029686e-01,1.67558e-01,9.99999e-01,9.99999e-01,9.99999e-01,9.92246e-01,1.68877e-01,9.99944e-01
7.098344834e-01,1.73608e-01,9.99999e-01,9.99999e-01,9.99999e-01,9.92559e-01,1.74915e-01,9.99966e-01
7.133836558e-01,1.79236e-01,9.99999e-01,9.99999e-01,9.99999e-01,9.90077e-01,1.81044e-01,9.99934e-01
7.169505741e-01,1.72770e-01,9.99999e-01,9.99999e-01,9.99999e-01,9.23089e-01,1.87260e-01,9.99490e-01
7.205353270e-01,1.85977e-01,9.99999e-01,9.99999e-01,9.99999e-01,9.61686e-01,1.93560e-01,9.99101e-01
7.241380036e-01,1.90086e-01,9.99999e-01,9.99999e-01,9.99999e-01,9.51446e-01,1.99941e-01,9.99224e-01
7.277586936e-01,1.97213e-01,9.99999e-01,9.99999e-01,9.99999e-01,9.56091e-01,2.06401e-01,9.99365e-01
7.313974871e-01,2.02950e-01,9.99999e-01,9.99999e-01,9.99999e-01,9.53391e-01,2.12935e-01,9.99702e-01
7.350544745e-01,2.13868e-01,9.99999e-01,9.99999e-01,9.99999e-01,9.74259e-01,2.19541e-01,9.99896e-01
7.387297469e-01,2.21906e-01,9.99999e-01,9.99999e-01,9.99999e-01,9.80993e-01,2.26216e-01,9.99952e-01
7.424233956e-01,2.30778e-01,9.99999e-01,9.99999e-01,9.99999e-01,9.90660e-01,2.32955e-01,9.99990e-01
7.461355126e-01,2.38397e-01,9.99999e-01,9.99999e-01,9.99999e-01,9.94329e-01,2.39757e-01,9.99997e-01
7.498661902e-01,2.45965e-01,9.99999e-01,9.99999e-01,9.99999e-01,9.97357e-01,2.46616e-01,9.99998e-01
7.536155211e-01,2.53202e-01,9.99999e-01,9.99999e-01,9.99999e-01,9.98702e-01,2.53531e-01,9.99999e-01
7.573835987e-01,2.60323e-01,9.99999e-01,9.99999e-01,9.99999e-01,9.99331e-01,2.60497e-01,9.99999e-01
7.611705167e-01,2.67400e-01,9.99999e-01,9.99999e-01,9.99999e-01,9.99584e-01,2.67511e-01,9.99999e-01
7.649763693e-01,2.74499e-01,9.99999e-01,9.99999e-01,9.99999e-01,9.99739e-01,2.74570e-01,9.99999e-01
7.688012511e-01,2.81619e-01,9.99999e-01,9.99999e-01,9.99999e-01,9.99818e-01,2.81670e-01,9.99999e-01
7.726452574e-01,2.88766e-01,9.99999e-01,9.99999e-01,9.99999e-01,9.99850e-01,2.88809e-01,9.99999e-01
7.765084837e-01,2.95919e-01,9.99999e-01,9.99999e-01,9.99999e-01,9.99787e-01,2.95982e-01,9.99999e-01
7.803910261e-01,2.87123e-01,9.99999e-01,9.99999e-01,9.47847e-01,9.99082e-01,3.03186e-01,9.99998e-01
7.842929812e-01,2.42719e-01,9.99999e-01,9.99999e-01,7.84240e-01,9.96801e-01,3.10417e-01,9.99993e-01
7.882144461e-01,2.43560e-01,9.99999e-01,9.99999e-01,7.71495e-01,9.93428e-01,3.17674e-01,9.99954e-01
7.921555184e-01,2.77581e-01,9.99999e-01,9.99999e-01,8.57267e-01,9.96395e-01,3.24951e-01,9.99921e-01
7.961162960e-01,2.97729e-01,9.99999e-01,9.99999e-01,9.01840e-01,9.93624e-01,3.32247e-01,9.99924e-01
8.000968774e-01,3.18675e-01,9.99999e-01,9.99999e-01,9.45495e-01,9.92644e-01,3.39558e-01,9.99920e-01
8.040973618e-01,3.34465e-01,9.99999e-01,9.99999e-01,9.71394e-01,9.92641e-01,3.46880e-01,9.99936e-01
8.081178486e-01,3.43734e-01,9.99999e-01,9.99999e-01,9.86752e-01,9.83470e-01,3.54211e-01,9.99940e-01
8.121584379e-01,3.35862e-01,9.99999e-01,9.99999e-01,9.95898e-01,9.32939e-01,3.61547e-01,9.99767e-01
8.162192301e-01,3.39162e-01,9.99999e-01,9.99999e-01,9.99092e-01,9.21036e-01,3.68886e-01,9.99125e-01
8.203003262e-01,3.60773e-01,9.99999e-01,9.99999e-01,9.99986e-01,9.59922e-01,3.76225e-01,9.98976e-01
8.244018279e-01,3.62067e-01,9.99999e-01,9.99999e-01,9.99999e-01,9.44734e-01,3.83560e-01,9.99185e-01
8.285238370e-01,3.71898e-01,9.99999e-01,9.99999e-01,9.99999e-01,9.52023e-01,3.90889e-01,9.99359e-01
8.326664562e-01,3.78820e-01,9.99999e-01,9.99999e-01,9.99999e-01,9.51560e-01,3.98209e-01,9.99735e-01
8.368297885e-01,3.91359e-01,9.99999e-01,9.99999e-01,9.99999e-01,9.65140e-01,4.05518e-01,9.99939e-01
8.410139374e-01,4.04189e-01,9.99999e-01,9.99999e-01,9.99999e-01,9.79143e-01,4.12813e-01,9.99964e-01
8.452190071e-01,4.15764e-01,9.99999e-01,9.99999e-01,9.99999e-01,9.89721e-01,4.20090e-01,9.99978e-01
8.494451021e-01,4.24787e-01,9.99999e-01,9.99999e-01,9.99999e-01,9.94022e-01,4.27349e-01,9.99982e-01
8.536923276e-01,4.33045e-01,9.99999e-01,9.99999e-01,9.99999e-01,9.96463e-01,4.34586e-01,9.99989e-01
8.579607893e-01,4.40835e-01,9.99999e-01,9.99999e-01,9.99999e-01,9.97819e-01,4.41799e-01,9.99997e-01
8.622505932e-01,4.48364e-01,9.99999e-01,9.99999e-01,9.99999e-01,9.98614e-01,4.48985e-01,9.99999e-01
8.665618462e-01,4.10923e-01,9.99999e-01,9.99999e-01,9.01597e-01,9.99142e-01,4.56143e-01,9.99999e-01
8.708946554e-01,2.51479e-01,9.99999e-01,9.99999e-01,5.43339e-01,9.99018e-01,4.63271e-01,9.99998e-01
8.752491287e-01,2.85778e-01,9.99999e-01,9.99999e-01,6.08329e-01,9.98686e-01,4.70366e-01,9.99998e-01
8.796253743e-01,3.61747e-01,9.99999e-01,9.99999e-01,7.59022e-01,9.98180e-01,4.77426e-01,9.99995e-01
8.840235012e-01,4.18692e-01,9.99999e-01,9.99999e-01,8.66031e-01,9.97922e-01,4.84449e-01,9.99986e-01
8.884436187e-01,4.60840e-01,9.99999e-01,9.99999e-01,9.44826e-01,9.92423e-01,4.91434e-01,9.99963e-01
8.928858368e-01,4.49690e-01,9.99999e-01,9.99999e-01,9.77250e-01,9.23203e-01,4.98379e-01,9.99792e-01
8.973502660e-01,4.35993e-01,9.99999e-01,9.99999e-01,9.94435e-01,8.68464e-01,5.05282e-01,9.98936e-01
9.018370173e-01,4.75541e-01,9.99999e-01,9.99999e-01,9.99385e-01,9.30632e-01,5.12141e-01,9.98328e-01
9.063462024e-01,4.79079e-01,9.99999e-01,9.99999e-01,9.84322e-01,9.38496e-01,5.18955e-01,9.98531e-01
9.108779334e-01,4.58864e-01,9.99999e-01,9.99999e-01,9.64346e-01,9.05833e-01,5.25723e-01,9.98474e-01
9.154323231e-01,4.71347e-01,9.99999e-01,9.99999e-01,9.91531e-01,8.93682e-01,5.32442e-01,9.98738e-01
9.200094847e-01,4.41044e-01,9.99999e-01,9.99999e-01,8.87649e-01,9.15827e-01,5.39112e-01,9.99293e-01
9.246095321e-01,4.00285e-01,9.99999e-01,9.99999e-01,8.37447e-01,8.72402e-01,5.45732e-01,9.99186e-01
9.292325798e-01,1.99982e-01,9.99999e-01,9.99999e-01,8.70697e-01,4.08616e-01,5.52299e-01,9.96832e-01
9.338787427e-01,1.55914e-01,9.99999e-01,9.99999e-01,8.74475e-01,3.16958e-01,5.58814e-01,9.86969e-01
9.385481364e-01,3.19220e-01,9.99999e-01,9.99999e-01,9.05897e-01,6.27812e-01,5.65274e-01,9.84521e-01
9.432408771e-01,2.81833e-01,9.99999e-01,9.99999e-01,9.41230e-01,5.28268e-01,5.71680e-01,9.86632e-01
9.479570815e-01,2.31881e-01,9.99999e-01,9.99999e-01,9.69386e-01,4.17362e-01,5.78029e-01,9.89106e-01
9.526968669e-01,2.94563e-01,9.99999e-01,9.99999e-01,9.85132e-01,5.14183e-01,5.84321e-01,9.93341e-01
9.574603512e-01,3.13698e-01,9.99999e-01,9.99999e-01,9.93615e-01,5.36070e-01,5.90556e-01,9.96611e-01
9.622476530e-01,3.56681e-01,9.99999e-01,9.99999e-01,9.98004e-01,6.00213e-01,5.96732e-01,9.97655e-01
9.670588912e-01,4.47759e-01,9.99999e-01,9.99999e-01,9.99402e-01,7.44341e-01,6.02848e-01,9.98396e-01
9.718941857e-01,5.04893e-01,9.99999e-01,9.99999e-01,9.99957e-01,8.30193e-01,6.08905e-01,9.98818e-01
9.767536566e-01,5.26363e-01,9.99999e-01,9.99999e-01,9.99999e-01,8.56786e-01,6.14901e-01,9.99097e-01
9.816374249e-01,5.53411e-01,9.99999e-01,9.99999e-01,9.99999e-01,8.91675e-01,6.20836e-01,9.99687e-01
9.865456120e-01,5.83320e-01,9.99999e-01,9.99999e-01,9.99999e-01,9.30827e-01,6.26709e-01,9.99934e-01
9.914783401e-01,6.05081e-01,9.99999e-01,9.99999e-01,9.99999e-01,9.56636e-01,6.32520e-01,9.99981e-01
9.964357318e-01,6.23040e-01,9.99999e-01,9.99999e-01,9.99999e-01,9.76150e-01,6.38269e-01,9.99988e-01
1.001417910e+00,6.34696e-01,9.99999e-01,9.99999e-01,9.99999e-01,9.85638e-01,6.43955e-01,9.99983e-01
1.006425000e+00,6.44227e-01,9.99999e-01,9.99999e-01,9.99999e-01,9.91786e-01,6.49577e-01,9.99976e-01
1.011457125e+00,6.51780e-01,9.99999e-01,9.99999e-01,9.99999e-01,9.94897e-01,6.55137e-01,9.99978e-01
1.016514411e+00,6.58332e-01,9.99999e-01,9.99999e-01,9.99999e-01,9.96532e-01,6.60632e-01,9.99984e-01
1.021596983e+00,6.64157e-01,9.99999e-01,9.99999e-01,9.99914e-01,9.97235e-01,6.66064e-01,9.99984e-01
1.026704968e+00,6.65849e-01,9.99999e-01,9.99999e-01,9.93833e-01,9.97843e-01,6.71432e-01,9.99989e-01
1.031838492e+00,6.33403e-01,9.99999e-01,9.99999e-01,9.37380e-01,9.98432e-01,6.76736e-01,9.99996e-01
1.036997685e+00,6.58392e-02,9.99999e-01,9.99999e-01,9.66113e-02,9.99068e-01,6.81975e-01,9.99999e-01
1.042182673e+00,2.51879e-02,9.99999e-01,9.99999e-01,3.66898e-02,9.98888e-01,6.87151e-01,9.99999e-01
1.047393587e+00,4.02172e-02,9.99999e-01,9.99999e-01,5.81692e-02,9.98527e-01,6.92262e-01,9.99999e-01
1.052630555e+00,1.81960e-04,9.99999e-01,9.99999e-01,2.61308e-04,9.97978e-01,6.97310e-01,9.99998e-01
1.057893707e+00,5.89213e-04,9.99999e-01,9.99999e-01,8.40693e-04,9.96626e-01,7.02293e-01,9.99998e-01
1.063183176e+00,3.61917e-03,9.99999e-01,9.99999e-01,5.13611e-03,9.94455e-01,7.07213e-01,9.99996e-01
1.068499092e+00,1.59879e-02,9.99999e-01,9.99999e-01,2.26155e-02,9.90732e-01,7.12069e-01,9.99993e-01
1.073841587e+00,6.40244e-02,9.99999e-01,9.99999e-01,9.00961e-02,9.89160e-01,7.16861e-01,9.99985e-01
