#,Wave/freq,Total,N2,O2,CO2,H2O,Rayleigh,CIA
4.000000000e-01,2.10020e-05,9.99999e-01,9.99999e-01,9.99999e-01,9.99978e-01,2.10024e-05,9.99999e-01
4.020000000e-01,2.59870e-05,9.99999e-01,9.99999e-01,9.99999e-01,9.99986e-01,2.59874e-05,9.99999e-01
4.040100000e-01,3.20132e-05,9.99999e-01,9.99999e-01,9.99999e-01,9.99994e-01,3.20134e-05,9.99999e-01
4.060300500e-01,3.92746e-05,9.99999e-01,9.99999e-01,9.99999e-01,9.99998e-01,3.92747e-05,9.99999e-01
4.080602003e-01,4.79888e-05,9.99999e-01,9.99999e-01,9.99999e-01,9.99999e-01,4.79888e-05,9.99999e-01
4.101005013e-01,5.84047e-05,9.99999e-01,9.99999e-01,9.99999e-01,9.99999e-01,5.84047e-05,9.99999e-01
4.121510038e-01,7.08061e-05,9.99999e-01,9.99999e-01,9.99999e-01,9.99998e-01,7.08062e-05,9.99999e-01
4.142117588e-01,8.55146e-05,9.99999e-01,9.99999e-01,9.99999e-01,9.99993e-01,8.55151e-05,9.99999e-01
4.162828176e-01,1.02893e-04,9.99999e-01,9.99999e-01,9.99999e-01,9.99973e-01,1.02895e-04,9.99999e-01
4.183642317e-01,1.23354e-04,9.99999e-01,9.99999e-01,9.99999e-01,9.99984e-01,1.23356e-04,9.99999e-01
4.204560528e-01,1.47355e-04,9.99999e-01,9.99999e-01,9.99999e-01,9.99990e-01,1.47356e-04,9.99999e-01
4.225583331e-01,1.75409e-04,9.99999e-01,9.99999e-01,9.99999e-01,9.99995e-01,1.75410e-04,9.99999e-01
4.246711247e-01,2.08085e-04,9.99999e-01,9.99999e-01,9.99999e-01,9.99996e-01,2.08086e-04,9.99999e-01
4.267944804e-01,2.46017e-04,9.99999e-01,9.99999e-01,9.99999e-01,9.99995e-01,2.46018e-04,9.99999e-01
4.289284528e-01,2.89903e-04,9.99999e-01,9.99999e-01,9.99999e-01,9.99996e-01,2.89904e-04,9.99999e-01
4.310730950e-01,3.40512e-04,9.99999e-01,9.99999e-01,9.99999e-01,9.99998e-01,3.40513e-04,9.99999e-01
4.332284605e-01,3.98687e-04,9.99999e-01,9.99999e-01,9.99999e-01,9.99999e-01,3.98687e-04,9.99999e-01
4.353946028e-01,4.65348e-04,9.99999e-01,9.99999e-01,9.99999e-01,9.99999e-01,4.65348e-04,9.99999e-01
4.375715758e-01,5.41498e-04,9.99999e-01,9.99999e-01,9.99999e-01,9.99996e-01,5.41499e-04,9.99999e-01
4.397594337e-01,6.28214e-04,9.99999e-01,9.99999e-01,9.99999e-01,9.99977e-01,6.28228e-04,9.99999e-01
4.419582309e-01,7.26629e-04,9.99999e-01,9.99999e-01,9.99999e-01,9.99885e-01,7.26712e-04,9.99999e-01
4.441680220e-01,8.38145e-04,9.99999e-01,9.99999e-01,9.99999e-01,9.99909e-01,8.38220e-04,9.99999e-01
4.463888621e-01,9.64027e-04,9.99999e-01,9.99999e-01,9.99999e-01,9.99906e-01,9.64116e-04,9.99999e-01
4.486208064e-01,1.10580e-03,9.99999e-01,9.99999e-01,9.99999e-01,9.99941e-01,1.10586e-03,9.99999e-01
4.508639105e-01,1.26498e-03,9.99999e-01,9.99999e-01,9.99999e-01,9.99972e-01,1.26501e-03,9.99999e-01
4.531182300e-01,1.44321e-03,9.99999e-01,9.99999e-01,9.99999e-01,9.99988e-01,1.44323e-03,9.99999e-01
4.553838212e-01,1.64226e-03,9.99999e-01,9.99999e-01,9.99999e-01,9.99992e-01,1.64227e-03,9.99999e-01
4.576607403e-01,1.86400e-03,9.99999e-01,9.99999e-01,9.99999e-01,9.99996e-01,1.86401e-03,9.99999e-01
4.599490440e-01,2.11039e-03,9.99999e-01,9.99999e-01,9.99999e-01,9.99997e-01,2.11039e-03,9.99999e-01
4.622487892e-01,2.38349e-03,9.99999e-01,9.99999e-01,9.99999e-01,9.99999e-01,2.38349e-03,9.99999e-01
4.645600332e-01,2.68546e-03,9.99999e-01,9.99999e-01,9.99999e-01,9.99997e-01,2.68547e-03,9.99999e-01
4.668828333e-01,3.01850e-03,9.99999e-01,9.99999e-01,9.99999e-01,9.99972e-01,3.01858e-03,9.99999e-01
4.692172475e-01,3.38499e-03,9.99999e-01,9.99999e-01,9.99999e-01,9.99941e-01,3.38519e-03,9.99999e-01
4.715633337e-01,3.78759e-03,9.99999e-01,9.99999e-01,9.99999e-01,9.99961e-01,3.78774e-03,9.99999e-01
4.739211504e-01,4.22860e-03,9.99999e-01,9.99999e-01,9.99999e-01,9.99962e-01,4.22876e-03,9.99999e-01
4.762907561e-01,4.71078e-03,9.99999e-01,9.99999e-01,9.99999e-01,9.99980e-01,4.71087e-03,9.99999e-01
4.786722099e-01,5.23673e-03,9.99999e-01,9.99999e-01,9.99999e-01,9.99991e-01,5.23677e-03,9.99999e-01
4.810655710e-01,5.80920e-03,9.99999e-01,9.99999e-01,9.99999e-01,9.99997e-01,5.80921e-03,9.99999e-01
4.834708988e-01,6.43090e-03,9.99999e-01,9.99999e-01,9.99999e-01,9.99977e-01,6.43104e-03,9.99999e-01
4.858882533e-01,7.10486e-03,9.99999e-01,9.99999e-01,9.99999e-01,9.99958e-01,7.10515e-03,9.99999e-01
4.883176946e-01,7.83421e-03,9.99999e-01,9.99999e-01,9.99999e-01,9.99965e-01,7.83448e-03,9.99999e-01
4.907592831e-01,8.62174e-03,9.99999e-01,9.99999e-01,9.99999e-01,9.99968e-01,8.62201e-03,9.99999e-01
4.932130795e-01,9.47056e-03,9.99999e-01,9.99999e-01,9.99999e-01,9.99977e-01,9.47077e-03,9.99999e-01
4.956791449e-01,1.03837e-02,9.99999e-01,9.99999e-01,9.99999e-01,9.99987e-01,1.03838e-02,9.99999e-01
4.981575406e-01,1.13635e-02,9.99999e-01,9.99999e-01,9.99999e-01,9.99940e-01,1.13642e-02,9.99999e-01
5.006483283e-01,1.24131e-02,9.99999e-01,9.99999e-01,9.99999e-01,9.99848e-01,1.24150e-02,9.99998e-01
5.031515699e-01,1.35288e-02,9.99999e-01,9.99999e-01,9.99999e-01,9.99229e-01,1.35393e-02,9.99991e-01
5.056673278e-01,1.47340e-02,9.99999e-01,9.99999e-01,9.99999e-01,9.99592e-01,1.47401e-02,9.99990e-01
5.081956644e-01,1.60123e-02,9.99999e-01,9.99999e-01,9.99999e-01,9.99486e-01,1.60206e-02,9.99993e-01
5.107366428e-01,1.73776e-02,9.99999e-01,9.99999e-01,9.99999e-01,9.99652e-01,1.73836e-02,9.99998e-01
5.132903260e-01,1.88285e-02,9.99999e-01,9.99999e-01,9.99999e-01,9.99801e-01,1.88322e-02,9.99999e-01
5.158567776e-01,2.03676e-02,9.99999e-01,9.99999e-01,9.99999e-01,9.99915e-01,2.03693e-02,9.99999e-01
5.184360615e-01,2.19970e-02,9.99999e-01,9.99999e-01,9.99999e-01,9.99965e-01,2.19978e-02,9.99999e-01
5.210282418e-01,2.37200e-02,9.99999e-01,9.99999e-01,9.99999e-01,9.99987e-01,2.37203e-02,9.99999e-01
5.236333830e-01,2.55384e-02,9.99999e-01,9.99999e-01,9.99999e-01,9.99949e-01,2.55397e-02,9.99999e-01
5.262515499e-01,2.74577e-02,9.99999e-01,9.99999e-01,9.99999e-01,9.99968e-01,2.74585e-02,9.99999e-01
5.288828077e-01,2.94785e-02,9.99999e-01,9.99999e-01,9.99999e-01,9.99970e-01,2.94793e-02,9.99999e-01
5.315272217e-01,3.16037e-02,9.99999e-01,9.99999e-01,9.99999e-01,9.99974e-01,3.16045e-02,9.99999e-01
5.341848578e-01,3.38357e-02,9.99999e-01,9.99999e-01,9.99999e-01,9.99982e-01,3.38362e-02,9.99999e-01
5.368557821e-01,3.61747e-02,9.99999e-01,9.99999e-01,9.99999e-01,9.99941e-01,3.61768e-02,9.99999e-01
5.395400610e-01,3.86201e-02,9.99999e-01,9.99999e-01,9.99999e-01,9.99789e-01,3.86282e-02,9.99997e-01
5.422377613e-01,4.11809e-02,9.99999e-01,9.99999e-01,9.99999e-01,9.99726e-01,4.11924e-02,9.99994e-01
5.449489501e-01,4.38597e-02,9.99999e-01,9.99999e-01,9.99999e-01,9.99746e-01,4.38710e-02,9.99994e-01
5.476736949e-01,4.66551e-02,9.99999e-01,9.99999e-01,9.99999e-01,9.99774e-01,4.66657e-02,9.99997e-01
5.504120634e-01,4.95698e-02,9.99999e-01,9.99999e-01,9.99999e-01,9.99836e-01,4.95780e-02,9.99998e-01
5.531641237e-01,5.26047e-02,9.99999e-01,9.99999e-01,9.99999e-01,9.99917e-01,5.26090e-02,9.99999e-01
5.559299443e-01,5.57577e-02,9.99999e-01,9.99999e-01,9.99999e-01,9.99959e-01,5.57599e-02,9.99999e-01
5.587095940e-01,5.90303e-02,9.99999e-01,9.99999e-01,9.99999e-01,9.99974e-01,5.90317e-02,9.99999e-01
5.615031420e-01,6.24234e-02,9.99999e-01,9.99999e-01,9.99999e-01,9.99971e-01,6.24251e-02,9.99999e-01
5.643106577e-01,6.59387e-02,9.99999e-01,9.99999e-01,9.99999e-01,9.99968e-01,6.59408e-02,9.99999e-01
5.671322110e-01,6.95526e-02,9.99999e-01,9.99999e-01,9.99999e-01,9.99621e-01,6.95791e-02,9.99996e-01
5.699678720e-01,7.33097e-02,9.99999e-01,9.99999e-01,9.99999e-01,9.99592e-01,7.33403e-02,9.99989e-01
5.728177114e-01,7.71913e-02,9.99999e-01,9.99999e-01,9.99999e-01,9.99578e-01,7.72245e-02,9.99990e-01
5.756818000e-01,8.11996e-02,9.99999e-01,9.99999e-01,9.99999e-01,9.99612e-01,8.12315e-02,9.99994e-01
5.785602090e-01,8.53322e-02,9.99999e-01,9.99999e-01,9.99999e-01,9.99661e-01,8.53611e-02,9.99997e-01
5.814530100e-01,8.95825e-02,9.99999e-01,9.99999e-01,9.99999e-01,9.99660e-01,8.96129e-02,9.99998e-01
5.843602750e-01,9.39481e-02,9.99999e-01,9.99999e-01,9.99999e-01,9.99596e-01,9.39861e-02,9.99997e-01
5.872820764e-01,9.81358e-02,9.99999e-01,9.99999e-01,9.99999e-01,9.96527e-01,9.84801e-02,9.99975e-01
5.902184868e-01,1.02652e-01,9.99999e-01,9.99999e-01,9.99999e-01,9.95778e-01,1.03094e-01,9.99932e-01
5.931695792e-01,1.07498e-01,9.99999e-01,9.99999e-01,9.99999e-01,9.97020e-01,1.07826e-01,9.99935e-01
5.961354271e-01,1.12303e-01,9.99999e-01,9.99999e-01,9.99999e-01,9.96730e-01,1.12675e-01,9.99962e-01
5.991161043e-01,1.17359e-01,9.99999e-01,9.99999e-01,9.99999e-01,9.97614e-01,1.17641e-01,9.99988e-01
6.021116848e-01,1.22554e-01,9.99999e-01,9.99999e-01,9.99999e-01,9.98644e-01,1.22720e-01,9.99998e-01
6.051222432e-01,1.27825e-01,9.99999e-01,9.99999e-01,9.99999e-01,9.99313e-01,1.27912e-01,9.99999e-01
6.081478544e-01,1.33176e-01,9.99999e-01,9.99999e-01,9.99999e-01,9.99703e-01,1.33215e-01,9.99999e-01
6.111885937e-01,1.38609e-01,9.99999e-01,9.99999e-01,9.99999e-01,9.99874e-01,1.38626e-01,9.99999e-01
6.142445367e-01,1.44136e-01,9.99999e-01,9.99999e-01,9.99999e-01,9.99943e-01,1.44144e-01,9.99999e-01
6.173157594e-01,1.49761e-01,9.99999e-01,9.99999e-01,9.99999e-01,9.99968e-01,1.49766e-01,9.99999e-01
6.204023382e-01,1.55485e-01,9.99999e-01,9.99999e-01,9.99999e-01,9.99973e-01,1.55489e-01,9.99999e-01
6.235043498e-01,1.61293e-01,9.99999e-01,9.99999e-01,9.99999e-01,9.99885e-01,1.61312e-01,9.99999e-01
6.266218716e-01,1.67129e-01,9.99999e-01,9.99999e-01,9.99999e-01,9.99392e-01,1.67231e-01,9.99995e-01
6.297549810e-01,1.73204e-01,9.99999e-01,9.99999e-01,9.99999e-01,9.99777e-01,1.73244e-01,9.99990e-01
6.329037559e-01,1.79268e-01,9.99999e-01,9.99999e-01,9.99999e-01,9.99559e-01,1.79348e-01,9.99992e-01
6.360682746e-01,1.85470e-01,9.99999e-01,9.99999e-01,9.99999e-01,9.99625e-01,1.85540e-01,9.99995e-01
6.392486160e-01,1.91724e-01,9.99999e-01,9.99999e-01,9.99999e-01,9.99513e-01,1.91817e-01,9.99997e-01
6.424448591e-01,1.98048e-01,9.99999e-01,9.99999e-01,9.99999e-01,9.99352e-01,1.98177e-01,9.99996e-01
6.456570834e-01,2.03996e-01,9.99999e-01,9.99999e-01,9.99999e-01,9.96993e-01,2.04615e-01,9.99982e-01
6.488853688e-01,2.10652e-01,9.99999e-01,9.99999e-01,9.99999e-01,9.97787e-01,2.11129e-01,9.99952e-01
6.521297956e-01,2.17216e-01,9.99999e-01,9.99999e-01,9.99999e-01,9.97744e-01,2.17716e-01,9.99960e-01
6.553904446e-01,2.23865e-01,9.99999e-01,9.99999e-01,9.99999e-01,9.97769e-01,2.24372e-01,9.99970e-01
6.586673968e-01,2.30647e-01,9.99999e-01,9.99999e-01,9.99999e-01,9.98077e-01,2.31094e-01,9.99989e-01
6.619607338e-01,2.37614e-01,9.99999e-01,9.99999e-01,9.99999e-01,9.98888e-01,2.37878e-01,9.99997e-01
6.652705375e-01,2.44565e-01,9.99999e-01,9.99999e-01,9.99999e-01,9.99355e-01,2.44722e-01,9.99998e-01
6.685968902e-01,2.51547e-01,9.99999e-01,9.99999e-01,9.99999e-01,9.99700e-01,2.51622e-01,9.99999e-01
6.719398746e-01,2.58539e-01,9.99999e-01,9.99999e-01,9.99999e-01,9.99860e-01,2.58574e-01,9.99999e-01
6.752995740e-01,2.65556e-01,9.99999e-01,9.99999e-01,9.99999e-01,9.99924e-01,2.65576e-01,9.99999e-01
6.786760719e-01,2.72593e-01,9.99999e-01,9.99999e-01,9.99999e-01,9.99891e-01,2.72623e-01,9.99999e-01
6.820694522e-01,2.79660e-01,9.99999e-01,9.99999e-01,9.99999e-01,9.99814e-01,2.79712e-01,9.99998e-01
6.854797995e-01,2.86771e-01,9.99999e-01,9.99999e-01,9.99999e-01,9.99761e-01,2.86840e-01,9.99997e-01
6.889071985e-01,2.93833e-01,9.99999e-01,9.99999e-01,9.99999e-01,9.99425e-01,2.94004e-01,9.99994e-01
6.923517345e-01,2.98357e-01,9.99999e-01,9.99999e-01,9.99999e-01,9.90606e-01,3.01199e-01,9.99954e-01
6.958134932e-01,3.06871e-01,9.99999e-01,9.99999e-01,9.99999e-01,9.95064e-01,3.08424e-01,9.99897e-01
6.992925606e-01,3.14178e-01,9.99999e-01,9.99999e-01,9.99999e-01,9.95349e-01,3.15674e-01,9.99909e-01
7.027890234e-01,3.21065e-01,9.99999e-01,9.99999e-01,9.99999e-01,9.94241e-01,3.22946e-01,9.99930e-01
7.063029686e-01,3.28628e-01,9.99999e-01,9.99999e-01,9.99999e-01,9.95159e-01,3.30237e-01,9.99965e-01
7.098344834e-01,3.35970e-01,9.99999e-01,9.99999e-01,9.99999e-01,9.95355e-01,3.37544e-01,9.99979e-01
7.133836558e-01,3.42727e-01,9.99999e-01,9.99999e-01,9.99999e-01,9.93844e-01,3.44863e-01,9.99959e-01
7.169505741e-01,3.34941e-01,9.99999e-01,9.99999e-01,9.99999e-01,9.51320e-01,3.52192e-01,9.99682e-01
7.205353270e-01,3.50599e-01,9.99999e-01,9.99999e-01,9.99999e-01,9.75712e-01,3.59527e-01,9.99440e-01
7.241380036e-01,3.55484e-01,9.99999e-01,9.99999e-01,9.99999e-01,9.69444e-01,3.66866e-01,9.99516e-01
7.277586936e-01,3.63724e-01,9.99999e-01,9.99999e-01,9.99999e-01,9.72375e-01,3.74205e-01,9.99604e-01
7.313974871e-01,3.70248e-01,9.99999e-01,9.99999e-01,9.99999e-01,9.70581e-01,3.81541e-01,9.99814e-01
7.350544745e-01,3.82565e-01,9.99999e-01,9.99999e-01,9.99999e-01,9.83844e-01,3.88872e-01,9.99935e-01
7.387297469e-01,3.91464e-01,9.99999e-01,9.99999e-01,9.99999e-01,9.88087e-01,3.96195e-01,9.99970e-01
7.424233956e-01,4.01145e-01,9.99999e-01,9.99999e-01,9.99999e-01,9.94151e-01,4.03507e-01,9.99993e-01
7.461355126e-01,4.09350e-01,9.99999e-01,9.99999e-01,9.99999e-01,9.96454e-01,4.10806e-01,9.99998e-01
7.498661902e-01,4.17397e-01,9.99999e-01,9.99999e-01,9.99999e-01,9.98346e-01,4.18089e-01,9.99999e-01
7.536155211e-01,4.25008e-01,9.99999e-01,9.99999e-01,9.99999e-01,9.99189e-01,4.25353e-01,9.99999e-01
7.573835987e-01,4.32416e-01,9.99999e-01,9.99999e-01,9.99999e-01,9.99582e-01,4.32596e-01,9.99999e-01
7.611705167e-01,4.39702e-01,9.99999e-01,9.99999e-01,9.99999e-01,9.99740e-01,4.39816e-01,9.99999e-01
7.649763693e-01,4.46937e-01,9.99999e-01,9.99999e-01,9.99999e-01,9.99837e-01,4.47010e-01,9.99999e-01
7.688012511e-01,4.54125e-01,9.99999e-01,9.99999e-01,9.99999e-01,9.99886e-01,4.54176e-01,9.99999e-01
7.726452574e-01,4.61269e-01,9.99999e-01,9.99999e-01,9.99999e-01,9.99906e-01,4.61312e-01,9.99999e-01
7.765084837e-01,4.68354e-01,9.99999e-01,9.99999e-01,9.99999e-01,9.99867e-01,4.68416e-01,9.99999e-01
7.803910261e-01,4.59167e-01,9.99999e-01,9.99999e-01,9.66210e-01,9.99431e-01,4.75486e-01,9.99998e-01
7.842929812e-01,4.12596e-01,9.99999e-01,9.99999e-01,8.56705e-01,9.98015e-01,4.82519e-01,9.99995e-01
7.882144461e-01,4.13346e-01,9.99999e-01,9.99999e-01,8.47755e-01,9.95900e-01,4.89515e-01,9.99974e-01
7.921555184e-01,4.49857e-01,9.99999e-01,9.99999e-01,9.08151e-01,9.97745e-01,4.96471e-01,9.99951e-01
7.961162960e-01,4.69976e-01,9.99999e-01,9.99999e-01,9.37352e-01,9.96036e-01,5.03386e-01,9.99953e-01
8.000968774e-01,4.90411e-01,9.99999e-01,9.99999e-01,9.65569e-01,9.95412e-01,5.10257e-01,9.99950e-01
8.040973618e-01,5.05426e-01,9.99999e-01,9.99999e-01,9.81986e-01,9.95413e-01,5.17084e-01,9.99960e-01
8.081178486e-01,5.14164e-01,9.99999e-01,9.99999e-01,9.91706e-01,9.89711e-01,5.23864e-01,9.99962e-01
8.121584379e-01,5.06791e-01,9.99999e-01,9.99999e-01,9.97422e-01,9.57713e-01,5.30597e-01,9.99854e-01
8.162192301e-01,5.09735e-01,9.99999e-01,9.99999e-01,9.99430e-01,9.49776e-01,5.37281e-01,9.99455e-01
8.203003262e-01,5.29879e-01,9.99999e-01,9.99999e-01,9.99990e-01,9.74822e-01,5.43915e-01,9.99362e-01
8.244018279e-01,5.30740e-01,9.99999e-01,9.99999e-01,9.99999e-01,9.64600e-01,5.50497e-01,9.99492e-01
8.285238370e-01,5.40000e-01,9.99999e-01,9.99999e-01,9.99999e-01,9.69820e-01,5.57026e-01,9.99601e-01
8.326664562e-01,5.46191e-01,9.99999e-01,9.99999e-01,9.99999e-01,9.69440e-01,5.63501e-01,9.99834e-01
8.368297885e-01,5.57406e-01,9.99999e-01,9.99999e-01,9.99999e-01,9.78075e-01,5.69922e-01,9.99961e-01
8.410139374e-01,5.68736e-01,9.99999e-01,9.99999e-01,9.99999e-01,9.86919e-01,5.76287e-01,9.99977e-01
8.452190071e-01,5.78838e-01,9.99999e-01,9.99999e-01,9.99999e-01,9.93564e-01,5.82595e-01,9.99986e-01
8.494451021e-01,5.86642e-01,9.99999e-01,9.99999e-01,9.99999e-01,9.96268e-01,5.88845e-01,9.99988e-01
8.536923276e-01,5.93718e-01,9.99999e-01,9.99999e-01,9.99999e-01,9.97788e-01,5.95037e-01,9.99993e-01
8.579607893e-01,6.00352e-01,9.99999e-01,9.99999e-01,9.99999e-01,9.98639e-01,6.01170e-01,9.99997e-01
8.622505932e-01,6.06718e-01,9.99999e-01,9.99999e-01,9.99999e-01,9.99134e-01,6.07243e-01,9.99999e-01
8.665618462e-01,5.67302e-01,9.99999e-01,9.99999e-01,9.25540e-01,9.99465e-01,6.13256e-01,9.99999e-01
8.708946554e-01,4.18195e-01,9.99999e-01,9.99999e-01,6.75769e-01,9.99388e-01,6.19208e-01,9.99999e-01
8.752491287e-01,4.55214e-01,9.99999e-01,9.99999e-01,7.28805e-01,9.99181e-01,6.25098e-01,9.99998e-01
8.796253743e-01,5.29631e-01,9.99999e-01,9.99999e-01,8.40373e-01,9.98868e-01,6.30927e-01,9.99996e-01
8.840235012e-01,5.81050e-01,9.99999e-01,9.99999e-01,9.13777e-01,9.98707e-01,6.36692e-01,9.99991e-01
8.884436187e-01,6.17053e-01,9.99999e-01,9.99999e-01,9.65041e-01,9.95321e-01,6.42396e-01,9.99977e-01
8.928858368e-01,6.07773e-01,9.99999e-01,9.99999e-01,9.85707e-01,9.51471e-01,6.48036e-01,9.99870e-01
8.973502660e-01,5.95868e-01,9.99999e-01,9.99999e-01,9.96502e-01,9.15392e-01,6.53612e-01,9.99337e-01
9.018370173e-01,6.29067e-01,9.99999e-01,9.99999e-01,9.99613e-01,9.55747e-01,6.59126e-01,9.98958e-01
9.063462024e-01,6.32192e-01,9.99999e-01,9.99999e-01,9.90254e-01,9.61213e-01,6.64575e-01,9.99085e-01
9.108779334e-01,6.15241e-01,9.99999e-01,9.99999e-01,9.77552e-01,9.40037e-01,6.69961e-01,9.99049e-01
9.154323231e-01,6.25669e-01,9.99999e-01,9.99999e-01,9.94667e-01,9.32120e-01,6.75282e-01,9.99214e-01
9.200094847e-01,5.97895e-01,9.99999e-01,9.99999e-01,9.26029e-01,9.46375e-01,6.80539e-01,9.99559e-01
9.246095321e-01,5.64189e-01,9.99999e-01,9.99999e-01,8.94868e-01,9.18028e-01,6.85733e-01,9.99492e-01
9.292325798e-01,3.59712e-01,9.99999e-01,9.99999e-01,9.16983e-01,5.63698e-01,6.90862e-01,9.98025e-01
9.338787427e-01,3.04980e-01,9.99999e-01,9.99999e-01,9.19314e-01,4.76259e-01,6.95927e-01,9.91863e-01
9.385481364e-01,4.85404e-01,9.99999e-01,9.99999e-01,9.40063e-01,7.41149e-01,7.00928e-01,9.90330e-01
9.432408771e-01,4.46398e-01,9.99999e-01,9.99999e-01,9.62828e-01,6.60950e-01,7.05865e-01,9.91652e-01
9.479570815e-01,3.92108e-01,9.99999e-01,9.99999e-01,9.80776e-01,5.65751e-01,7.10738e-01,9.93200e-01
9.526968669e-01,4.59722e-01,9.99999e-01,9.99999e-01,9.90679e-01,6.50673e-01,7.15548e-01,9.95847e-01
9.574603512e-01,4.81780e-01,9.99999e-01,9.99999e-01,9.96003e-01,6.72787e-01,7.20294e-01,9.97888e-01
9.622476530e-01,5.23374e-01,9.99999e-01,9.99999e-01,9.98751e-01,7.23822e-01,7.24978e-01,9.98539e-01
9.670588912e-01,6.04808e-01,9.99999e-01,9.99999e-01,9.99625e-01,8.30085e-01,7.29598e-01,9.99000e-01
9.718941857e-01,6.52965e-01,9.99999e-01,9.99999e-01,9.99972e-01,8.90085e-01,7.34155e-01,9.99264e-01
9.767536566e-01,6.70231e-01,9.99999e-01,9.99999e-01,9.99999e-01,9.07882e-01,7.38650e-01,9.99437e-01
9.816374249e-01,6.91545e-01,9.99999e-01,9.99999e-01,9.99999e-01,9.30822e-01,7.43083e-01,9.99804e-01
9.865456120e-01,7.14688e-01,9.99999e-01,9.99999e-01,9.99999e-01,9.56201e-01,7.47455e-01,9.99958e-01
9.914783401e-01,7.31240e-01,9.99999e-01,9.99999e-01,9.99999e-01,9.72708e-01,7.51765e-01,9.99988e-01
9.964357318e-01,7.44703e-01,9.99999e-01,9.99999e-01,9.99999e-01,9.85045e-01,7.56014e-01,9.99992e-01
1.001417910e+00,7.53361e-01,9.99999e-01,9.99999e-01,9.99999e-01,9.91011e-01,7.60202e-01,9.99989e-01
1.006425000e+00,7.60400e-01,9.99999e-01,9.99999e-01,9.99999e-01,9.94871e-01,7.64330e-01,9.99985e-01
1.011457125e+00,7.65938e-01,9.99999e-01,9.99999e-01,9.99999e-01,9.96810e-01,7.68398e-01,9.99986e-01
1.016514411e+00,7.70728e-01,9.99999e-01,9.99999e-01,9.99999e-01,9.97835e-01,7.72407e-01,9.99990e-01
1.021596983e+00,7.74973e-01,9.99999e-01,9.99999e-01,9.99949e-01,9.98275e-01,7.76357e-01,9.99990e-01
1.026704968e+00,7.76234e-01,9.99999e-01,9.99999e-01,9.96197e-01,9.98655e-01,7.80249e-01,9.99993e-01
1.031838492e+00,7.49177e-01,9.99999e-01,9.99999e-01,9.56390e-01,9.99021e-01,7.84083e-01,9.99997e-01
1.036997685e+00,1.18513e-01,9.99999e-01,9.99999e-01,1.50493e-01,9.99419e-01,7.87859e-01,9.99999e-01
1.042182673e+00,9.06569e-02,9.99999e-01,9.99999e-01,1.14597e-01,9.99308e-01,7.91578e-01,9.99999e-01
1.047393587e+00,1.09553e-01,9.99999e-01,9.99999e-01,1.37872e-01,9.99082e-01,7.95241e-01,9.99999e-01
1.052630555e+00,2.84975e-03,9.99999e-01,9.99999e-01,3.57060e-03,9.98741e-01,7.98848e-01,9.99999e-01
1.057893707e+00,7.29013e-03,9.99999e-01,9.99999e-01,9.09819e-03,9.97901e-01,8.02400e-01,9.99998e-01
1.063183176e+00,2.50818e-02,9.99999e-01,9.99999e-01,3.11996e-02,9.96546e-01,8.05896e-01,9.99997e-01
1.068499092e+00,7.21878e-02,9.99999e-01,9.99999e-01,8.96278e-02,9.94218e-01,8.09339e-01,9.99995e-01
1.073841587e+00,1.75553e-01,9.99999e-01,9.99999e-01,2.17253e-01,9.93241e-01,8.12728e-01,9.99990e-01
