#,Wave/freq,Total,N2,O2,CO2,H2O,Rayleigh,CIA
4.000000000e-01,1.30669e-04,9.99999e-01,9.99999e-01,9.99999e-01,9.99982e-01,1.30671e-04,9.99999e-01
4.020000000e-01,1.55945e-04,9.99999e-01,9.99999e-01,9.99999e-01,9.99988e-01,1.55947e-04,9.99999e-01
4.040100000e-01,1.85427e-04,9.99999e-01,9.99999e-01,9.99999e-01,9.99994e-01,1.85428e-04,9.99999e-01
4.060300500e-01,2.19729e-04,9.99999e-01,9.99999e-01,9.99999e-01,9.99998e-01,2.19729e-04,9.99999e-01
4.080602003e-01,2.59504e-04,9.99999e-01,9.99999e-01,9.99999e-01,9.99999e-01,2.59504e-04,9.99999e-01
4.101005013e-01,3.05474e-04,9.99999e-01,9.99999e-01,9.99999e-01,9.99999e-01,3.05474e-04,9.99999e-01
4.121510038e-01,3.58430e-04,9.99999e-01,9.99999e-01,9.99999e-01,9.99998e-01,3.58430e-04,9.99999e-01
4.142117588e-01,4.19239e-04,9.99999e-01,9.99999e-01,9.99999e-01,9.99994e-01,4.19241e-04,9.99999e-01
4.162828176e-01,4.88842e-04,9.99999e-01,9.99999e-01,9.99999e-01,9.99978e-01,4.88853e-04,9.99999e-01
4.183642317e-01,5.68289e-04,9.99999e-01,9.99999e-01,9.99999e-01,9.99986e-01,5.68297e-04,9.99999e-01
4.204560528e-01,6.58684e-04,9.99999e-01,9.99999e-01,9.99999e-01,9.99991e-01,6.58689e-04,9.99999e-01
4.225583331e-01,7.61234e-04,9.99999e-01,9.99999e-01,9.99999e-01,9.99996e-01,7.61236e-04,9.99999e-01
4.246711247e-01,8.77235e-04,9.99999e-01,9.99999e-01,9.99999e-01,9.99997e-01,8.77237e-04,9.99999e-01
4.267944804e-01,1.00808e-03,9.99999e-01,9.99999e-01,9.99999e-01,9.99996e-01,1.00809e-03,9.99999e-01
4.289284528e-01,1.15527e-03,9.99999e-01,9.99999e-01,9.99999e-01,9.99996e-01,1.15528e-03,9.99999e-01
4.310730950e-01,1.32040e-03,9.99999e-01,9.99999e-01,9.99999e-01,9.99998e-01,1.32040e-03,9.99999e-01
4.332284605e-01,1.50515e-03,9.99999e-01,9.99999e-01,9.99999e-01,9.99999e-01,1.50515e-03,9.99999e-01
4.353946028e-01,1.71131e-03,9.99999e-01,9.99999e-01,9.99999e-01,9.99999e-01,1.71131e-03,9.99999e-01
4.375715758e-01,1.94078e-03,9.99999e-01,9.99999e-01,9.99999e-01,9.99997e-01,1.94078e-03,9.99999e-01
4.397594337e-01,2.19552e-03,9.99999e-01,9.99999e-01,9.99999e-01,9.99981e-01,2.19556e-03,9.99999e-01
4.419582309e-01,2.47752e-03,9.99999e-01,9.99999e-01,9.99999e-01,9.99906e-01,2.47775e-03,9.99999e-01
4.441680220e-01,2.78932e-03,9.99999e-01,9.99999e-01,9.99999e-01,9.99924e-01,2.78953e-03,9.99999e-01
4.463888621e-01,3.13296e-03,9.99999e-01,9.99999e-01,9.99999e-01,9.99922e-01,3.13320e-03,9.99999e-01
4.486208064e-01,3.51097e-03,9.99999e-01,9.99999e-01,9.99999e-01,9.99951e-01,3.51114e-03,9.99999e-01
4.508639105e-01,3.92575e-03,9.99999e-01,9.99999e-01,9.99999e-01,9.99976e-01,3.92584e-03,9.99999e-01
4.531182300e-01,4.37980e-03,9.99999e-01,9.99999e-01,9.99999e-01,9.99990e-01,4.37984e-03,9.99999e-01
4.553838212e-01,4.87576e-03,9.99999e-01,9.99999e-01,9.99999e-01,9.99993e-01,4.87579e-03,9.99999e-01
4.576607403e-01,5.41640e-03,9.99999e-01,9.99999e-01,9.99999e-01,9.99996e-01,5.41641e-03,9.99999e-01
4.599490440e-01,6.00448e-03,9.99999e-01,9.99999e-01,9.99999e-01,9.99997e-01,6.00450e-03,9.99999e-01
4.622487892e-01,6.64289e-03,9.99999e-01,9.99999e-01,9.99999e-01,9.99999e-01,6.64289e-03,9.99999e-01
4.645600332e-01,7.33450e-03,9.99999e-01,9.99999e-01,9.99999e-01,9.99998e-01,7.33451e-03,9.99999e-01
4.668828333e-01,8.08212e-03,9.99999e-01,9.99999e-01,9.99999e-01,9.99976e-01,8.08230e-03,9.99999e-01
4.692172475e-01,8.88885e-03,9.99999e-01,9.99999e-01,9.99999e-01,9.99951e-01,8.88928e-03,9.99999e-01
4.715633337e-01,9.75816e-03,9.99999e-01,9.99999e-01,9.99999e-01,9.99967e-01,9.75846e-03,9.99999e-01
4.739211504e-01,1.06926e-02,9.99999e-01,9.99999e-01,9.99999e-01,9.99969e-01,1.06929e-02,9.99999e-01
4.762907561e-01,1.16955e-02,9.99999e-01,9.99999e-01,9.99999e-01,9.99983e-01,1.16957e-02,9.99999e-01
4.786722099e-01,1.27698e-02,9.99999e-01,9.99999e-01,9.99999e-01,9.99993e-01,1.27699e-02,9.99999e-01
4.810655710e-01,1.39186e-02,9.99999e-01,9.99999e-01,9.99999e-01,9.99997e-01,1.39186e-02,9.99999e-01
4.834708988e-01,1.51445e-02,9.99999e-01,9.99999e-01,9.99999e-01,9.99981e-01,1.51448e-02,9.99999e-01
4.858882533e-01,1.64510e-02,9.99999e-01,9.99999e-01,9.99999e-01,9.99965e-01,1.64516e-02,9.99999e-01
4.883176946e-01,1.78414e-02,9.99999e-01,9.99999e-01,9.99999e-01,9.99970e-01,1.78420e-02,9.99999e-01
4.907592831e-01,1.93183e-02,9.99999e-01,9.99999e-01,9.99999e-01,9.99973e-01,1.93188e-02,9.99999e-01
4.932130795e-01,2.08847e-02,9.99999e-01,9.99999e-01,9.99999e-01,9.99981e-01,2.08851e-02,9.99999e-01
4.956791449e-01,2.25434e-02,9.99999e-01,9.99999e-01,9.99999e-01,9.99989e-01,2.25436e-02,9.99999e-01
4.981575406e-01,2.42960e-02,9.99999e-01,9.99999e-01,9.99999e-01,9.99951e-01,2.42972e-02,9.99999e-01
5.006483283e-01,2.61451e-02,9.99999e-01,9.99999e-01,9.99999e-01,9.99874e-01,2.61484e-02,9.99998e-01
5.031515699e-01,2.80818e-02,9.99999e-01,9.99999e-01,9.99999e-01,9.99361e-01,2.80999e-02,9.99992e-01
5.056673278e-01,3.01437e-02,9.99999e-01,9.99999e-01,9.99999e-01,9.99661e-01,3.01541e-02,9.99991e-01
5.081956644e-01,3.22995e-02,9.99999e-01,9.99999e-01,9.99999e-01,9.99572e-01,3.23134e-02,9.99994e-01
5.107366428e-01,3.45701e-02,9.99999e-01,9.99999e-01,9.99999e-01,9.99711e-01,3.45801e-02,9.99998e-01
5.132903260e-01,3.69502e-02,9.99999e-01,9.99999e-01,9.99999e-01,9.99834e-01,3.69563e-02,9.99999e-01
5.158567776e-01,3.94412e-02,9.99999e-01,9.99999e-01,9.99999e-01,9.99929e-01,3.94439e-02,9.99999e-01
5.184360615e-01,4.20437e-02,9.99999e-01,9.99999e-01,9.99999e-01,9.99971e-01,4.20449e-02,9.99999e-01
5.210282418e-01,4.47604e-02,9.99999e-01,9.99999e-01,9.99999e-01,9.99989e-01,4.47608e-02,9.99999e-01
5.236333830e-01,4.75913e-02,9.99999e-01,9.99999e-01,9.99999e-01,9.99957e-01,4.75933e-02,9.99999e-01
5.262515499e-01,5.05425e-02,9.99999e-01,9.99999e-01,9.99999e-01,9.99973e-01,5.05438e-02,9.99999e-01
5.288828077e-01,5.36121e-02,9.99999e-01,9.99999e-01,9.99999e-01,9.99975e-01,5.36134e-02,9.99999e-01
5.315272217e-01,5.68021e-02,9.99999e-01,9.99999e-01,9.99999e-01,9.99978e-01,5.68033e-02,9.99999e-01
5.341848578e-01,6.01135e-02,9.99999e-01,9.99999e-01,9.99999e-01,9.99985e-01,6.01143e-02,9.99999e-01
5.368557821e-01,6.35441e-02,9.99999e-01,9.99999e-01,9.99999e-01,9.99951e-01,6.35471e-02,9.99999e-01
5.395400610e-01,6.70907e-02,9.99999e-01,9.99999e-01,9.99999e-01,9.99826e-01,6.71024e-02,9.99998e-01
5.422377613e-01,7.07640e-02,9.99999e-01,9.99999e-01,9.99999e-01,9.99772e-01,7.07803e-02,9.99995e-01
5.449489501e-01,7.45653e-02,9.99999e-01,9.99999e-01,9.99999e-01,9.99789e-01,7.45813e-02,9.99995e-01
5.476736949e-01,7.84903e-02,9.99999e-01,9.99999e-01,9.99999e-01,9.99812e-01,7.85051e-02,9.99997e-01
5.504120634e-01,8.25405e-02,9.99999e-01,9.99999e-01,9.99999e-01,9.99863e-01,8.25518e-02,9.99998e-01
5.531641237e-01,8.67150e-02,9.99999e-01,9.99999e-01,9.99999e-01,9.99931e-01,8.67209e-02,9.99999e-01
5.559299443e-01,9.10090e-02,9.99999e-01,9.99999e-01,9.99999e-01,9.99966e-01,9.10120e-02,9.99999e-01
5.587095940e-01,9.54223e-02,9.99999e-01,9.99999e-01,9.99999e-01,9.99978e-01,9.54243e-02,9.99999e-01
5.615031420e-01,9.99547e-02,9.99999e-01,9.99999e-01,9.99999e-01,9.99976e-01,9.99570e-02,9.99999e-01
5.643106577e-01,1.04606e-01,9.99999e-01,9.99999e-01,9.99999e-01,9.99973e-01,1.04609e-01,9.99999e-01
5.671322110e-01,1.09345e-01,9.99999e-01,9.99999e-01,9.99999e-01,9.99689e-01,1.09379e-01,9.99996e-01
5.699678720e-01,1.14227e-01,9.99999e-01,9.99999e-01,9.99999e-01,9.99659e-01,1.14266e-01,9.99990e-01
5.728177114e-01,1.19226e-01,9.99999e-01,9.99999e-01,9.99999e-01,9.99650e-01,1.19269e-01,9.99992e-01
5.756818000e-01,1.24344e-01,9.99999e-01,9.99999e-01,9.99999e-01,9.99678e-01,1.24385e-01,9.99995e-01
5.785602090e-01,1.29576e-01,9.99999e-01,9.99999e-01,9.99999e-01,9.99718e-01,1.29613e-01,9.99998e-01
5.814530100e-01,1.34913e-01,9.99999e-01,9.99999e-01,9.99999e-01,9.99718e-01,1.34951e-01,9.99998e-01
5.843602750e-01,1.40350e-01,9.99999e-01,9.99999e-01,9.99999e-01,9.99667e-01,1.40397e-01,9.99997e-01
5.872820764e-01,1.45526e-01,9.99999e-01,9.99999e-01,9.99999e-01,9.97129e-01,1.45948e-01,9.99979e-01
5.902184868e-01,1.51063e-01,9.99999e-01,9.99999e-01,9.99999e-01,9.96488e-01,1.51603e-01,9.99944e-01
5.931695792e-01,1.56961e-01,9.99999e-01,9.99999e-01,9.99999e-01,9.97526e-01,1.57359e-01,9.99945e-01
5.961354271e-01,1.62764e-01,9.99999e-01,9.99999e-01,9.99999e-01,9.97282e-01,1.63213e-01,9.99966e-01
5.991161043e-01,1.68825e-01,9.99999e-01,9.99999e-01,9.99999e-01,9.98015e-01,1.69163e-01,9.99990e-01
6.021116848e-01,1.75008e-01,9.99999e-01,9.99999e-01,9.99999e-01,9.98872e-01,1.75205e-01,9.99998e-01
6.051222432e-01,1.81235e-01,9.99999e-01,9.99999e-01,9.99999e-01,9.99428e-01,1.81338e-01,9.99999e-01
6.081478544e-01,1.87512e-01,9.99999e-01,9.99999e-01,9.99999e-01,9.99753e-01,1.87558e-01,9.99999e-01
6.111885937e-01,1.93842e-01,9.99999e-01,9.99999e-01,9.99999e-01,9.99895e-01,1.93862e-01,9.99999e-01
6.142445367e-01,2.00238e-01,9.99999e-01,9.99999e-01,9.99999e-01,9.99953e-01,2.00247e-01,9.99999e-01
6.173157594e-01,2.06705e-01,9.99999e-01,9.99999e-01,9.99999e-01,9.99973e-01,2.06711e-01,9.99999e-01
6.204023382e-01,2.13244e-01,9.99999e-01,9.99999e-01,9.99999e-01,9.99977e-01,2.13249e-01,9.99999e-01
6.235043498e-01,2.19837e-01,9.99999e-01,9.99999e-01,9.99999e-01,9.99906e-01,2.19858e-01,9.99999e-01
6.266218716e-01,2.26421e-01,9.99999e-01,9.99999e-01,9.99999e-01,9.99495e-01,2.26536e-01,9.99995e-01
6.297549810e-01,2.33233e-01,9.99999e-01,9.99999e-01,9.99999e-01,9.99814e-01,2.33278e-01,9.99992e-01
6.329037559e-01,2.39993e-01,9.99999e-01,9.99999e-01,9.99999e-01,9.99633e-01,2.40082e-01,9.99993e-01
6.360682746e-01,2.46867e-01,9.99999e-01,9.99999e-01,9.99999e-01,9.99689e-01,2.46945e-01,9.99996e-01
6.392486160e-01,2.53759e-01,9.99999e-01,9.99999e-01,9.99999e-01,9.99596e-01,2.53862e-01,9.99998e-01
6.424448591e-01,2.60704e-01,9.99999e-01,9.99999e-01,9.99999e-01,9.99516e-01,2.60830e-01,9.99997e-01
6.456570834e-01,2.67183e-01,9.99999e-01,9.99999e-01,9.99999e-01,9.97534e-01,2.67847e-01,9.99985e-01
6.488853688e-01,2.74303e-01,9.99999e-01,9.99999e-01,9.99999e-01,9.97839e-01,2.74908e-01,9.99960e-01
6.521297956e-01,2.81472e-01,9.99999e-01,9.99999e-01,9.99999e-01,9.98124e-01,2.82010e-01,9.99966e-01
6.553904446e-01,2.88608e-01,9.99999e-01,9.99999e-01,9.99999e-01,9.98149e-01,2.89150e-01,9.99975e-01
6.586673968e-01,2.95848e-01,9.99999e-01,9.99999e-01,9.99999e-01,9.98399e-01,2.96324e-01,9.99991e-01
6.619607338e-01,3.03249e-01,9.99999e-01,9.99999e-01,9.99999e-01,9.99075e-01,3.03530e-01,9.99997e-01
6.652705375e-01,3.10596e-01,9.99999e-01,9.99999e-01,9.99999e-01,9.99462e-01,3.10763e-01,9.99998e-01
6.685968902e-01,3.17941e-01,9.99999e-01,9.99999e-01,9.99999e-01,9.99750e-01,3.18020e-01,9.99999e-01
6.719398746e-01,3.25261e-01,9.99999e-01,9.99999e-01,9.99999e-01,9.99883e-01,3.25299e-01,9.99999e-01
6.752995740e-01,3.32575e-01,9.99999e-01,9.99999e-01,9.99999e-01,9.99937e-01,3.32595e-01,9.99999e-01
6.786760719e-01,3.39876e-01,9.99999e-01,9.99999e-01,9.99999e-01,9.99910e-01,3.39906e-01,9.99999e-01
6.820694522e-01,3.47176e-01,9.99999e-01,9.99999e-01,9.99999e-01,9.99846e-01,3.47229e-01,9.99998e-01
6.854797995e-01,3.54490e-01,9.99999e-01,9.99999e-01,9.99999e-01,9.99801e-01,3.54560e-01,9.99997e-01
6.889071985e-01,3.61725e-01,9.99999e-01,9.99999e-01,9.99999e-01,9.99528e-01,3.61897e-01,9.99995e-01
6.923517345e-01,3.66351e-01,9.99999e-01,9.99999e-01,9.99999e-01,9.92224e-01,3.69236e-01,9.99961e-01
6.958134932e-01,3.74986e-01,9.99999e-01,9.99999e-01,9.99999e-01,9.95865e-01,3.76574e-01,9.99914e-01
6.992925606e-01,3.82404e-01,9.99999e-01,9.99999e-01,9.99999e-01,9.96152e-01,3.83909e-01,9.99924e-01
7.027890234e-01,3.89343e-01,9.99999e-01,9.99999e-01,9.99999e-01,9.95211e-01,3.91238e-01,9.99942e-01
7.063029686e-01,3.96944e-01,9.99999e-01,9.99999e-01,9.99999e-01,9.95977e-01,3.98558e-01,9.99971e-01
7.098344834e-01,4.04293e-01,9.99999e-01,9.99999e-01,9.99999e-01,9.96140e-01,4.05866e-01,9.99982e-01
7.133836558e-01,4.11050e-01,9.99999e-01,9.99999e-01,9.99999e-01,9.94926e-01,4.13160e-01,9.99966e-01
7.169505741e-01,4.03310e-01,9.99999e-01,9.99999e-01,9.99999e-01,9.59515e-01,4.20437e-01,9.99736e-01
7.205353270e-01,4.18780e-01,9.99999e-01,9.99999e-01,9.99999e-01,9.79612e-01,4.27694e-01,9.99535e-01
7.241380036e-01,4.23708e-01,9.99999e-01,9.99999e-01,9.99999e-01,9.74591e-01,4.34930e-01,9.99595e-01
7.277586936e-01,4.31837e-01,9.99999e-01,9.99999e-01,9.99999e-01,9.77021e-01,4.42142e-01,9.99663e-01
7.313974871e-01,4.38222e-01,9.99999e-01,9.99999e-01,9.99999e-01,9.75433e-01,4.49327e-01,9.99845e-01
7.350544745e-01,4.50317e-01,9.99999e-01,9.99999e-01,9.99999e-01,9.86541e-01,4.56484e-01,9.99946e-01
7.387297469e-01,4.58998e-01,9.99999e-01,9.99999e-01,9.99999e-01,9.90076e-01,4.63610e-01,9.99975e-01
7.424233956e-01,4.68405e-01,9.99999e-01,9.99999e-01,9.99999e-01,9.95122e-01,4.70703e-01,9.99994e-01
7.461355126e-01,4.76351e-01,9.99999e-01,9.99999e-01,9.99999e-01,9.97047e-01,4.77761e-01,9.99998e-01
7.498661902e-01,4.84115e-01,9.99999e-01,9.99999e-01,9.99999e-01,9.98620e-01,4.84783e-01,9.99999e-01
7.536155211e-01,4.91435e-01,9.99999e-01,9.99999e-01,9.99999e-01,9.99325e-01,4.91766e-01,9.99999e-01
7.573835987e-01,4.98536e-01,9.99999e-01,9.99999e-01,9.99999e-01,9.99652e-01,4.98709e-01,9.99999e-01
7.611705167e-01,5.05501e-01,9.99999e-01,9.99999e-01,9.99999e-01,9.99783e-01,5.05610e-01,9.99999e-01
7.649763693e-01,5.12398e-01,9.99999e-01,9.99999e-01,9.99999e-01,9.99864e-01,5.12467e-01,9.99999e-01
7.688012511e-01,5.19230e-01,9.99999e-01,9.99999e-01,9.99999e-01,9.99905e-01,5.19279e-01,9.99999e-01
7.726452574e-01,5.26003e-01,9.99999e-01,9.99999e-01,9.99999e-01,9.99922e-01,5.26044e-01,9.99999e-01
7.765084837e-01,5.32703e-01,9.99999e-01,9.99999e-01,9.99999e-01,9.99890e-01,5.32761e-01,9.99999e-01
7.803910261e-01,5.24180e-01,9.99999e-01,9.99999e-01,9.72176e-01,9.99530e-01,5.39429e-01,9.99999e-01
7.842929812e-01,4.78936e-01,9.99999e-01,9.99999e-01,8.78480e-01,9.98361e-01,5.46046e-01,9.99996e-01
7.882144461e-01,4.79819e-01,9.99999e-01,9.99999e-01,8.71160e-01,9.96594e-01,5.52611e-01,9.99978e-01
7.921555184e-01,5.15158e-01,9.99999e-01,9.99999e-01,9.23103e-01,9.98121e-01,5.59123e-01,9.99959e-01
7.961162960e-01,5.34119e-01,9.99999e-01,9.99999e-01,9.47491e-01,9.96720e-01,5.65581e-01,9.99960e-01
8.000968774e-01,5.53402e-01,9.99999e-01,9.99999e-01,9.71244e-01,9.96190e-01,5.71984e-01,9.99958e-01
8.040973618e-01,5.67438e-01,9.99999e-01,9.99999e-01,9.84938e-01,9.96194e-01,5.78330e-01,9.99966e-01
8.081178486e-01,5.75631e-01,9.99999e-01,9.99999e-01,9.93090e-01,9.91493e-01,5.84620e-01,9.99968e-01
8.121584379e-01,5.68807e-01,9.99999e-01,9.99999e-01,9.97842e-01,9.64869e-01,5.90851e-01,9.99879e-01
8.162192301e-01,5.71410e-01,9.99999e-01,9.99999e-01,9.99522e-01,9.57978e-01,5.97024e-01,9.99547e-01
8.203003262e-01,5.90265e-01,9.99999e-01,9.99999e-01,9.99991e-01,9.79181e-01,6.03138e-01,9.99470e-01
8.244018279e-01,5.90800e-01,9.99999e-01,9.99999e-01,9.99999e-01,9.70217e-01,6.09192e-01,9.99578e-01
8.285238370e-01,5.99547e-01,9.99999e-01,9.99999e-01,9.99999e-01,9.74902e-01,6.15185e-01,9.99668e-01
8.326664562e-01,6.05207e-01,9.99999e-01,9.99999e-01,9.99999e-01,9.74516e-01,6.21117e-01,9.99862e-01
8.368297885e-01,6.15506e-01,9.99999e-01,9.99999e-01,9.99999e-01,9.81718e-01,6.26987e-01,9.99968e-01
8.410139374e-01,6.25886e-01,9.99999e-01,9.99999e-01,9.99999e-01,9.89098e-01,6.32796e-01,9.99981e-01
8.452190071e-01,6.35110e-01,9.99999e-01,9.99999e-01,9.99999e-01,9.94636e-01,6.38541e-01,9.99988e-01
8.494451021e-01,6.42220e-01,9.99999e-01,9.99999e-01,9.99999e-01,9.96898e-01,6.44224e-01,9.99990e-01
8.536923276e-01,6.48643e-01,9.99999e-01,9.99999e-01,9.99999e-01,9.98157e-01,6.49844e-01,9.99993e-01
8.579607893e-01,6.54658e-01,9.99999e-01,9.99999e-01,9.99999e-01,9.98869e-01,6.55400e-01,9.99997e-01
8.622505932e-01,6.60417e-01,9.99999e-01,9.99999e-01,9.99999e-01,9.99279e-01,6.60893e-01,9.99999e-01
8.665618462e-01,6.22764e-01,9.99999e-01,9.99999e-01,9.35029e-01,9.99555e-01,6.66321e-01,9.99999e-01
8.708946554e-01,4.83302e-01,9.99999e-01,9.99999e-01,7.19889e-01,9.99492e-01,6.71686e-01,9.99999e-01
8.752491287e-01,5.19079e-01,9.99999e-01,9.99999e-01,7.67255e-01,9.99320e-01,6.76987e-01,9.99998e-01
8.796253743e-01,5.89436e-01,9.99999e-01,9.99999e-01,8.64783e-01,9.99062e-01,6.82224e-01,9.99997e-01
8.840235012e-01,6.36946e-01,9.99999e-01,9.99999e-01,9.27594e-01,9.98928e-01,6.87396e-01,9.99992e-01
8.884436187e-01,6.69647e-01,9.99999e-01,9.99999e-01,9.70701e-01,9.96166e-01,6.92504e-01,9.99980e-01
8.928858368e-01,6.61440e-01,9.99999e-01,9.99999e-01,9.88069e-01,9.59704e-01,6.97549e-01,9.99892e-01
8.973502660e-01,6.50466e-01,9.99999e-01,9.99999e-01,9.97070e-01,9.29076e-01,7.02529e-01,9.99449e-01
9.018370173e-01,6.80373e-01,9.99999e-01,9.99999e-01,9.99675e-01,9.62867e-01,7.07446e-01,9.99135e-01
9.063462024e-01,6.83467e-01,9.99999e-01,9.99999e-01,9.91991e-01,9.67796e-01,7.12299e-01,9.99240e-01
9.108779334e-01,6.68043e-01,9.99999e-01,9.99999e-01,9.81265e-01,9.49952e-01,7.17088e-01,9.99210e-01
9.154323231e-01,6.77419e-01,9.99999e-01,9.99999e-01,9.95528e-01,9.43248e-01,7.21814e-01,9.99347e-01
9.200094847e-01,6.51917e-01,9.99999e-01,9.99999e-01,9.37916e-01,9.55142e-01,7.26477e-01,9.99634e-01
9.246095321e-01,6.21716e-01,9.99999e-01,9.99999e-01,9.11632e-01,9.31924e-01,7.31076e-01,9.99578e-01
9.292325798e-01,4.26402e-01,9.99999e-01,9.99999e-01,9.30704e-01,6.19752e-01,7.35614e-01,9.98360e-01
9.338787427e-01,3.69719e-01,9.99999e-01,9.99999e-01,9.32313e-01,5.35908e-01,7.40089e-01,9.93240e-01
9.385481364e-01,5.46834e-01,9.99999e-01,9.99999e-01,9.49856e-01,7.77503e-01,7.44502e-01,9.91965e-01
9.432408771e-01,5.09829e-01,9.99999e-01,9.99999e-01,9.68901e-01,7.06504e-01,7.48853e-01,9.93064e-01
9.479570815e-01,4.56681e-01,9.99999e-01,9.99999e-01,9.83977e-01,6.19271e-01,7.53144e-01,9.94351e-01
9.526968669e-01,5.21842e-01,9.99999e-01,9.99999e-01,9.92228e-01,6.96385e-01,7.57373e-01,9.96550e-01
9.574603512e-01,5.44175e-01,9.99999e-01,9.99999e-01,9.96667e-01,7.18081e-01,7.61542e-01,9.98246e-01
9.622476530e-01,5.83154e-01,9.99999e-01,9.99999e-01,9.98958e-01,7.63323e-01,7.65650e-01,9.98786e-01
9.670588912e-01,6.58222e-01,9.99999e-01,9.99999e-01,9.99686e-01,8.56132e-01,7.69699e-01,9.99170e-01
9.718941857e-01,7.01842e-01,9.99999e-01,9.99999e-01,9.99976e-01,9.07710e-01,7.73689e-01,9.99388e-01
9.767536566e-01,7.17259e-01,9.99999e-01,9.99999e-01,9.99999e-01,9.22807e-01,7.77620e-01,9.99532e-01
9.816374249e-01,7.36114e-01,9.99999e-01,9.99999e-01,9.99999e-01,9.42084e-01,7.81493e-01,9.99837e-01
9.865456120e-01,7.56552e-01,9.99999e-01,9.99999e-01,9.99999e-01,9.63414e-01,7.85308e-01,9.99965e-01
9.914783401e-01,7.71107e-01,9.99999e-01,9.99999e-01,9.99999e-01,9.77248e-01,7.89066e-01,9.99990e-01
9.964357318e-01,7.82888e-01,9.99999e-01,9.99999e-01,9.99999e-01,9.87543e-01,7.92767e-01,9.99994e-01
1.001417910e+00,7.90445e-01,9.99999e-01,9.99999e-01,9.99999e-01,9.92515e-01,7.96412e-01,9.99991e-01
1.006425000e+00,7.96582e-01,9.99999e-01,9.99999e-01,9.99999e-01,9.95737e-01,8.00001e-01,9.99987e-01
1.011457125e+00,8.01393e-01,9.99999e-01,9.99999e-01,9.99999e-01,9.97344e-01,8.03535e-01,9.99988e-01
1.016514411e+00,8.05556e-01,9.99999e-01,9.99999e-01,9.99999e-01,9.98199e-01,8.07014e-01,9.99991e-01
1.021596983e+00,8.09241e-01,9.99999e-01,9.99999e-01,9.99961e-01,9.98566e-01,8.10439e-01,9.99991e-01
1.026704968e+00,8.10367e-01,9.99999e-01,9.99999e-01,9.96884e-01,9.98882e-01,8.13811e-01,9.99994e-01
1.031838492e+00,7.86708e-01,9.99999e-01,9.99999e-01,9.63535e-01,9.99185e-01,8.17129e-01,9.99998e-01
1.036997685e+00,1.47010e-01,9.99999e-01,9.99999e-01,1.79264e-01,9.99517e-01,8.20396e-01,9.99999e-01
1.042182673e+00,1.32121e-01,9.99999e-01,9.99999e-01,1.60500e-01,9.99426e-01,8.23610e-01,9.99999e-01
1.047393587e+00,1.48090e-01,9.99999e-01,9.99999e-01,1.79240e-01,9.99238e-01,8.26773e-01,9.99999e-01
1.052630555e+00,6.55203e-03,9.99999e-01,9.99999e-01,7.90127e-03,9.98956e-01,8.29885e-01,9.99999e-01
1.057893707e+00,1.52146e-02,9.99999e-01,9.99999e-01,1.82881e-02,9.98261e-01,8.32948e-01,9.99998e-01
1.063183176e+00,4.42480e-02,9.99999e-01,9.99999e-01,5.30428e-02,9.97136e-01,8.35960e-01,9.99998e-01
1.068499092e+00,1.11276e-01,9.99999e-01,9.99999e-01,1.33191e-01,9.95201e-01,8.38924e-01,9.99996e-01
1.073841587e+00,2.33605e-01,9.99999e-01,9.99999e-01,2.78846e-01,9.94395e-01,8.41840e-01,9.99992e-01
