#,Wave/freq,Total,N2,O2,CO2,H2O,Rayleigh,CIA
4.000000000e-01,7.72846e-19,9.99999e-01,9.99999e-01,9.99999e-01,9.99919e-01,7.72908e-19,9.99999e-01
4.020000000e-01,1.76289e-18,9.99999e-01,9.99999e-01,9.99999e-01,9.99949e-01,1.76298e-18,9.99999e-01
4.040100000e-01,3.95293e-18,9.99999e-01,9.99999e-01,9.99999e-01,9.99978e-01,3.95301e-18,9.99999e-01
4.060300500e-01,8.72328e-18,9.99999e-01,9.99999e-01,9.99999e-01,9.99994e-01,8.72333e-18,9.99999e-01
4.080602003e-01,1.89516e-17,9.99999e-01,9.99999e-01,9.99999e-01,9.99997e-01,1.89516e-17,9.99999e-01
4.101005013e-01,4.05465e-17,9.99999e-01,9.99999e-01,9.99999e-01,9.99999e-01,4.05465e-17,9.99999e-01
4.121510038e-01,8.54547e-17,9.99999e-01,9.99999e-01,9.99999e-01,9.99996e-01,8.54550e-17,9.99999e-01
4.142117588e-01,1.77466e-16,9.99999e-01,9.99999e-01,9.99999e-01,9.99977e-01,1.77470e-16,9.99999e-01
4.162828176e-01,3.63246e-16,9.99999e-01,9.99999e-01,9.99999e-01,9.99900e-01,3.63282e-16,9.99999e-01
4.183642317e-01,7.33149e-16,9.99999e-01,9.99999e-01,9.99999e-01,9.99940e-01,7.33192e-16,9.99999e-01
4.204560528e-01,1.45932e-15,9.99999e-01,9.99999e-01,9.99999e-01,9.99963e-01,1.45938e-15,9.99999e-01
4.225583331e-01,2.86553e-15,9.99999e-01,9.99999e-01,9.99999e-01,9.99986e-01,2.86557e-15,9.99999e-01
4.246711247e-01,5.55217e-15,9.99999e-01,9.99999e-01,9.99999e-01,9.99988e-01,5.55223e-15,9.99999e-01
4.267944804e-01,1.06180e-14,9.99999e-01,9.99999e-01,9.99999e-01,9.99983e-01,1.06182e-14,9.99999e-01
4.289284528e-01,2.00477e-14,9.99999e-01,9.99999e-01,9.99999e-01,9.99987e-01,2.00479e-14,9.99999e-01
4.310730950e-01,3.73797e-14,9.99999e-01,9.99999e-01,9.99999e-01,9.99994e-01,3.73799e-14,9.99999e-01
4.332284605e-01,6.88432e-14,9.99999e-01,9.99999e-01,9.99999e-01,9.99998e-01,6.88433e-14,9.99999e-01
4.353946028e-01,1.25270e-13,9.99999e-01,9.99999e-01,9.99999e-01,9.99998e-01,1.25270e-13,9.99999e-01
4.375715758e-01,2.25264e-13,9.99999e-01,9.99999e-01,9.99999e-01,9.99989e-01,2.25266e-13,9.99999e-01
4.397594337e-01,4.00381e-13,9.99999e-01,9.99999e-01,9.99999e-01,9.99912e-01,4.00416e-13,9.99999e-01
4.419582309e-01,7.03395e-13,9.99999e-01,9.99999e-01,9.99999e-01,9.99554e-01,7.03708e-13,9.99999e-01
4.441680220e-01,1.22261e-12,9.99999e-01,9.99999e-01,9.99999e-01,9.99654e-01,1.22303e-12,9.99999e-01
4.463888621e-01,2.10176e-12,9.99999e-01,9.99999e-01,9.99999e-01,9.99639e-01,2.10252e-12,9.99999e-01
4.486208064e-01,3.57517e-12,9.99999e-01,9.99999e-01,9.99999e-01,9.99776e-01,3.57597e-12,9.99999e-01
4.508639105e-01,6.01794e-12,9.99999e-01,9.99999e-01,9.99999e-01,9.99895e-01,6.01857e-12,9.99999e-01
4.531182300e-01,1.00255e-11,9.99999e-01,9.99999e-01,9.99999e-01,9.99958e-01,1.00260e-11,9.99999e-01
4.553838212e-01,1.65336e-11,9.99999e-01,9.99999e-01,9.99999e-01,9.99971e-01,1.65341e-11,9.99999e-01
4.576607403e-01,2.69985e-11,9.99999e-01,9.99999e-01,9.99999e-01,9.99986e-01,2.69988e-11,9.99999e-01
4.599490440e-01,4.36614e-11,9.99999e-01,9.99999e-01,9.99999e-01,9.99990e-01,4.36618e-11,9.99999e-01
4.622487892e-01,6.99415e-11,9.99999e-01,9.99999e-01,9.99999e-01,9.99997e-01,6.99416e-11,9.99999e-01
4.645600332e-01,1.11000e-10,9.99999e-01,9.99999e-01,9.99999e-01,9.99993e-01,1.11001e-10,9.99999e-01
4.668828333e-01,1.74546e-10,9.99999e-01,9.99999e-01,9.99999e-01,9.99893e-01,1.74565e-10,9.99999e-01
4.692172475e-01,2.72022e-10,9.99999e-01,9.99999e-01,9.99999e-01,9.99773e-01,2.72083e-10,9.99999e-01
4.715633337e-01,4.20316e-10,9.99999e-01,9.99999e-01,9.99999e-01,9.99851e-01,4.20378e-10,9.99999e-01
4.739211504e-01,6.43851e-10,9.99999e-01,9.99999e-01,9.99999e-01,9.99858e-01,6.43942e-10,9.99999e-01
4.762907561e-01,9.78054e-10,9.99999e-01,9.99999e-01,9.99999e-01,9.99926e-01,9.78126e-10,9.99999e-01
4.786722099e-01,1.47348e-09,9.99999e-01,9.99999e-01,9.99999e-01,9.99969e-01,1.47352e-09,9.99999e-01
4.810655710e-01,2.20191e-09,9.99999e-01,9.99999e-01,9.99999e-01,9.99990e-01,2.20193e-09,9.99999e-01
4.834708988e-01,3.26413e-09,9.99999e-01,9.99999e-01,9.99999e-01,9.99912e-01,3.26441e-09,9.99999e-01
4.858882533e-01,4.80130e-09,9.99999e-01,9.99999e-01,9.99999e-01,9.99839e-01,4.80206e-09,9.99999e-01
4.883176946e-01,7.00942e-09,9.99999e-01,9.99999e-01,9.99999e-01,9.99865e-01,7.01036e-09,9.99999e-01
4.907592831e-01,1.01568e-08,9.99999e-01,9.99999e-01,9.99999e-01,9.99878e-01,1.01580e-08,9.99999e-01
4.932130795e-01,1.46102e-08,9.99999e-01,9.99999e-01,9.99999e-01,9.99913e-01,1.46114e-08,9.99999e-01
4.956791449e-01,2.08660e-08,9.99999e-01,9.99999e-01,9.99999e-01,9.99954e-01,2.08670e-08,9.99999e-01
4.981575406e-01,2.95849e-08,9.99999e-01,9.99999e-01,9.99999e-01,9.99772e-01,2.95916e-08,9.99999e-01
5.006483283e-01,4.16509e-08,9.99999e-01,9.99999e-01,9.99999e-01,9.99409e-01,4.16756e-08,9.99995e-01
5.031515699e-01,5.81230e-08,9.99999e-01,9.99999e-01,9.99999e-01,9.97018e-01,5.82985e-08,9.99968e-01
5.056673278e-01,8.08826e-08,9.99999e-01,9.99999e-01,9.99999e-01,9.98427e-01,8.10128e-08,9.99963e-01
5.081956644e-01,1.11624e-07,9.99999e-01,9.99999e-01,9.99999e-01,9.98016e-01,1.11848e-07,9.99977e-01
5.107366428e-01,1.53232e-07,9.99999e-01,9.99999e-01,9.99999e-01,9.98660e-01,1.53438e-07,9.99995e-01
5.132903260e-01,2.09024e-07,9.99999e-01,9.99999e-01,9.99999e-01,9.99234e-01,2.09184e-07,9.99999e-01
5.158567776e-01,2.83351e-07,9.99999e-01,9.99999e-01,9.99999e-01,9.99676e-01,2.83443e-07,9.99999e-01
5.184360615e-01,3.81715e-07,9.99999e-01,9.99999e-01,9.99999e-01,9.99870e-01,3.81764e-07,9.99999e-01
5.210282418e-01,5.11151e-07,9.99999e-01,9.99999e-01,9.99999e-01,9.99951e-01,5.11176e-07,9.99999e-01
5.236333830e-01,6.80388e-07,9.99999e-01,9.99999e-01,9.99999e-01,9.99805e-01,6.80522e-07,9.99998e-01
5.262515499e-01,9.00751e-07,9.99999e-01,9.99999e-01,9.99999e-01,9.99877e-01,9.00863e-07,9.99997e-01
5.288828077e-01,1.18582e-06,9.99999e-01,9.99999e-01,9.99999e-01,9.99887e-01,1.18596e-06,9.99998e-01
5.315272217e-01,1.55267e-06,9.99999e-01,9.99999e-01,9.99999e-01,9.99901e-01,1.55282e-06,9.99999e-01
5.341848578e-01,2.02224e-06,9.99999e-01,9.99999e-01,9.99999e-01,9.99935e-01,2.02237e-06,9.99999e-01
5.368557821e-01,2.61960e-06,9.99999e-01,9.99999e-01,9.99999e-01,9.99772e-01,2.62020e-06,9.99998e-01
5.395400610e-01,3.37463e-06,9.99999e-01,9.99999e-01,9.99999e-01,9.99180e-01,3.37742e-06,9.99992e-01
5.422377613e-01,4.32706e-06,9.99999e-01,9.99999e-01,9.99999e-01,9.98945e-01,4.33171e-06,9.99980e-01
5.449489501e-01,5.52285e-06,9.99999e-01,9.99999e-01,9.99999e-01,9.99016e-01,5.52839e-06,9.99979e-01
5.476736949e-01,7.01559e-06,9.99999e-01,9.99999e-01,9.99999e-01,9.99131e-01,7.02175e-06,9.99989e-01
5.504120634e-01,8.87087e-06,9.99999e-01,9.99999e-01,9.99999e-01,9.99369e-01,8.87649e-06,9.99996e-01
5.531641237e-01,1.11658e-05,9.99999e-01,9.99999e-01,9.99999e-01,9.99682e-01,1.11693e-05,9.99999e-01
5.559299443e-01,1.39886e-05,9.99999e-01,9.99999e-01,9.99999e-01,9.99846e-01,1.39907e-05,9.99999e-01
5.587095940e-01,1.74453e-05,9.99999e-01,9.99999e-01,9.99999e-01,9.99903e-01,1.74470e-05,9.99999e-01
5.615031420e-01,2.16602e-05,9.99999e-01,9.99999e-01,9.99999e-01,9.99892e-01,2.16625e-05,9.99999e-01
5.643106577e-01,2.67785e-05,9.99999e-01,9.99999e-01,9.99999e-01,9.99877e-01,2.67818e-05,9.99998e-01
5.671322110e-01,3.29232e-05,9.99999e-01,9.99999e-01,9.99999e-01,9.98517e-01,3.29725e-05,9.99986e-01
5.699678720e-01,4.03629e-05,9.99999e-01,9.99999e-01,9.99999e-01,9.98435e-01,4.04277e-05,9.99959e-01
5.728177114e-01,4.92872e-05,9.99999e-01,9.99999e-01,9.99999e-01,9.98365e-01,4.93695e-05,9.99966e-01
5.756818000e-01,5.99603e-05,9.99999e-01,9.99999e-01,9.99999e-01,9.98501e-01,6.00514e-05,9.99980e-01
5.785602090e-01,7.26672e-05,9.99999e-01,9.99999e-01,9.99999e-01,9.98694e-01,7.27625e-05,9.99993e-01
5.814530100e-01,8.77151e-05,9.99999e-01,9.99999e-01,9.99999e-01,9.98687e-01,8.78305e-05,9.99996e-01
5.843602750e-01,1.05459e-04,9.99999e-01,9.99999e-01,9.99999e-01,9.98432e-01,1.05625e-04,9.99990e-01
5.872820764e-01,1.24854e-04,9.99999e-01,9.99999e-01,9.99999e-01,9.86588e-01,1.26564e-04,9.99904e-01
5.902184868e-01,1.48623e-04,9.99999e-01,9.99999e-01,9.99999e-01,9.83787e-01,1.51112e-04,9.99741e-01
5.931695792e-01,1.77683e-04,9.99999e-01,9.99999e-01,9.99999e-01,9.88523e-01,1.79790e-04,9.99751e-01
5.961354271e-01,2.10468e-04,9.99999e-01,9.99999e-01,9.99999e-01,9.87424e-01,2.13179e-04,9.99856e-01
5.991161043e-01,2.49594e-04,9.99999e-01,9.99999e-01,9.99999e-01,9.90814e-01,2.51919e-04,9.99955e-01
6.021116848e-01,2.95168e-04,9.99999e-01,9.99999e-01,9.99999e-01,9.94779e-01,2.96718e-04,9.99994e-01
6.051222432e-01,3.47436e-04,9.99999e-01,9.99999e-01,9.99999e-01,9.97355e-01,3.48357e-04,9.99999e-01
6.081478544e-01,4.07223e-04,9.99999e-01,9.99999e-01,9.99999e-01,9.98858e-01,4.07688e-04,9.99999e-01
6.111885937e-01,4.75415e-04,9.99999e-01,9.99999e-01,9.99999e-01,9.99517e-01,4.75644e-04,9.99999e-01
6.142445367e-01,5.53121e-04,9.99999e-01,9.99999e-01,9.99999e-01,9.99783e-01,5.53241e-04,9.99999e-01
6.173157594e-01,6.41502e-04,9.99999e-01,9.99999e-01,9.99999e-01,9.99880e-01,6.41578e-04,9.99999e-01
6.204023382e-01,7.41772e-04,9.99999e-01,9.99999e-01,9.99999e-01,9.99898e-01,7.41847e-04,9.99999e-01
6.235043498e-01,8.54947e-04,9.99999e-01,9.99999e-01,9.99999e-01,9.99553e-01,8.55329e-04,9.99998e-01
6.266218716e-01,9.81077e-04,9.99999e-01,9.99999e-01,9.99999e-01,9.97651e-01,9.83403e-04,9.99983e-01
6.297549810e-01,1.12653e-03,9.99999e-01,9.99999e-01,9.99999e-01,9.99137e-01,1.12754e-03,9.99966e-01
6.329037559e-01,1.28709e-03,9.99999e-01,9.99999e-01,9.99999e-01,9.98298e-01,1.28932e-03,9.99973e-01
6.360682746e-01,1.46825e-03,9.99999e-01,9.99999e-01,9.99999e-01,9.98548e-01,1.47041e-03,9.99983e-01
6.392486160e-01,1.66943e-03,9.99999e-01,9.99999e-01,9.99999e-01,9.98120e-01,1.67258e-03,9.99992e-01
6.424448591e-01,1.89292e-03,9.99999e-01,9.99999e-01,9.99999e-01,9.97479e-01,1.89772e-03,9.99988e-01
6.456570834e-01,2.12266e-03,9.99999e-01,9.99999e-01,9.99999e-01,9.88355e-01,2.14780e-03,9.99934e-01
6.488853688e-01,2.40384e-03,9.99999e-01,9.99999e-01,9.99999e-01,9.91491e-01,2.42490e-03,9.99818e-01
6.521297956e-01,2.70712e-03,9.99999e-01,9.99999e-01,9.99999e-01,9.91331e-01,2.73120e-03,9.99850e-01
6.553904446e-01,3.04208e-03,9.99999e-01,9.99999e-01,9.99999e-01,9.91349e-01,3.06896e-03,9.99888e-01
6.586673968e-01,3.41497e-03,9.99999e-01,9.99999e-01,9.99999e-01,9.92599e-01,3.44056e-03,9.99962e-01
6.619607338e-01,3.83253e-03,9.99999e-01,9.99999e-01,9.99999e-01,9.95868e-01,3.84846e-03,9.99991e-01
6.652705375e-01,4.28453e-03,9.99999e-01,9.99999e-01,9.99999e-01,9.97518e-01,4.29520e-03,9.99995e-01
6.685968902e-01,4.77790e-03,9.99999e-01,9.99999e-01,9.99999e-01,9.98847e-01,4.78341e-03,9.99998e-01
6.719398746e-01,5.31297e-03,9.99999e-01,9.99999e-01,9.99999e-01,9.99465e-01,5.31580e-03,9.99999e-01
6.752995740e-01,5.89344e-03,9.99999e-01,9.99999e-01,9.99999e-01,9.99709e-01,5.89515e-03,9.99999e-01
6.786760719e-01,6.52155e-03,9.99999e-01,9.99999e-01,9.99999e-01,9.99580e-01,6.52428e-03,9.99998e-01
6.820694522e-01,7.20092e-03,9.99999e-01,9.99999e-01,9.99999e-01,9.99282e-01,7.20611e-03,9.99995e-01
6.854797995e-01,7.93618e-03,9.99999e-01,9.99999e-01,9.99999e-01,9.99074e-01,7.94359e-03,9.99991e-01
6.889071985e-01,8.71990e-03,9.99999e-01,9.99999e-01,9.99999e-01,9.97753e-01,8.73970e-03,9.99979e-01
6.923517345e-01,9.25102e-03,9.99999e-01,9.99999e-01,9.99999e-01,9.64069e-01,9.59748e-03,9.99824e-01
6.958134932e-01,1.03191e-02,9.99999e-01,9.99999e-01,9.99999e-01,9.81283e-01,1.05200e-02,9.99611e-01
6.992925606e-01,1.12999e-02,9.99999e-01,9.99999e-01,9.99999e-01,9.82068e-01,1.15103e-02,9.99650e-01
7.027890234e-01,1.22909e-02,9.99999e-01,9.99999e-01,9.99999e-01,9.77952e-01,1.25714e-02,9.99732e-01
7.063029686e-01,1.34499e-02,9.99999e-01,9.99999e-01,9.99999e-01,9.81414e-01,1.37065e-02,9.99866e-01
7.098344834e-01,1.46512e-02,9.99999e-01,9.99999e-01,9.99999e-01,9.82157e-01,1.49185e-02,9.99921e-01
7.133836558e-01,1.58233e-02,9.99999e-01,9.99999e-01,9.99999e-01,9.76259e-01,1.62106e-02,9.99843e-01
7.169505741e-01,1.45228e-02,9.99999e-01,9.99999e-01,9.99999e-01,8.26846e-01,1.75857e-02,9.98772e-01
7.205353270e-01,1.73169e-02,9.99999e-01,9.99999e-01,9.99999e-01,9.11150e-01,1.90468e-02,9.97835e-01
7.241380036e-01,1.82522e-02,9.99999e-01,9.99999e-01,9.99999e-01,8.87823e-01,2.05968e-02,9.98130e-01
7.277586936e-01,1.99455e-02,9.99999e-01,9.99999e-01,9.99999e-01,8.98262e-01,2.22386e-02,9.98471e-01
7.313974871e-01,2.13689e-02,9.99999e-01,9.99999e-01,9.99999e-01,8.91942e-01,2.39748e-02,9.99283e-01
7.350544745e-01,2.42354e-02,9.99999e-01,9.99999e-01,9.99999e-01,9.39288e-01,2.58083e-02,9.99750e-01
7.387297469e-01,2.64868e-02,9.99999e-01,9.99999e-01,9.99999e-01,9.54879e-01,2.77416e-02,9.99885e-01
7.424233956e-01,2.91113e-02,9.99999e-01,9.99999e-01,9.99999e-01,9.77659e-01,2.97771e-02,9.99977e-01
7.461355126e-01,3.14830e-02,9.99999e-01,9.99999e-01,9.99999e-01,9.86393e-01,3.19174e-02,9.99995e-01
7.498661902e-01,3.39476e-02,9.99999e-01,9.99999e-01,9.99999e-01,9.93647e-01,3.41646e-02,9.99998e-01
7.536155211e-01,3.64069e-02,9.99999e-01,9.99999e-01,9.99999e-01,9.96876e-01,3.65209e-02,9.99998e-01
7.573835987e-01,3.89257e-02,9.99999e-01,9.99999e-01,9.99999e-01,9.98391e-01,3.89884e-02,9.99999e-01
7.611705167e-01,4.15273e-02,9.99999e-01,9.99999e-01,9.99999e-01,9.99000e-01,4.15688e-02,9.99999e-01
7.649763693e-01,4.42363e-02,9.99999e-01,9.99999e-01,9.99999e-01,9.99372e-01,4.42640e-02,9.99999e-01
7.688012511e-01,4.70549e-02,9.99999e-01,9.99999e-01,9.99999e-01,9.99562e-01,4.70755e-02,9.99999e-01
7.726452574e-01,4.99866e-02,9.99999e-01,9.99999e-01,9.99999e-01,9.99640e-01,5.00046e-02,9.99999e-01
7.765084837e-01,5.30256e-02,9.99999e-01,9.99999e-01,9.99999e-01,9.99487e-01,5.30527e-02,9.99998e-01
7.803910261e-01,5.02684e-02,9.99999e-01,9.99999e-01,8.95917e-01,9.97788e-01,5.62209e-02,9.99997e-01
7.842929812e-01,3.39669e-02,9.99999e-01,9.99999e-01,5.74577e-01,9.92300e-01,5.95101e-02,9.99985e-01
7.882144461e-01,3.46302e-02,9.99999e-01,9.99999e-01,5.58195e-01,9.84233e-01,6.29210e-02,9.99890e-01
7.921555184e-01,4.57714e-02,9.99999e-01,9.99999e-01,6.94429e-01,9.91340e-01,6.64542e-02,9.99810e-01
7.961162960e-01,5.39222e-02,9.99999e-01,9.99999e-01,7.80796e-01,9.84698e-01,7.01101e-02,9.99819e-01
8.000968774e-01,6.34517e-02,9.99999e-01,9.99999e-01,8.74167e-01,9.82355e-01,7.38889e-02,9.99808e-01
8.040973618e-01,7.12680e-02,9.99999e-01,9.99999e-01,9.32621e-01,9.82349e-01,7.77906e-02,9.99853e-01
8.081178486e-01,7.61200e-02,9.99999e-01,9.99999e-01,9.68401e-01,9.60679e-01,8.18153e-02,9.99851e-01
8.121584379e-01,7.20939e-02,9.99999e-01,9.99999e-01,9.90162e-01,8.47160e-01,8.59624e-02,9.99439e-01
8.162192301e-01,7.38778e-02,9.99999e-01,9.99999e-01,9.97818e-01,8.22153e-01,9.02316e-02,9.97893e-01
8.203003262e-01,8.57509e-02,9.99999e-01,9.99999e-01,9.99968e-01,9.08502e-01,9.46222e-02,9.97534e-01
8.244018279e-01,8.67195e-02,9.99999e-01,9.99999e-01,9.99999e-01,8.76496e-01,9.91333e-02,9.98037e-01
8.285238370e-01,9.20950e-02,9.99999e-01,9.99999e-01,9.99999e-01,8.88912e-01,1.03764e-01,9.98458e-01
8.326664562e-01,9.63098e-02,9.99999e-01,9.99999e-01,9.99999e-01,8.88106e-01,1.08513e-01,9.99361e-01
8.368297885e-01,1.04102e-01,9.99999e-01,9.99999e-01,9.99999e-01,9.18307e-01,1.13379e-01,9.99853e-01
8.410139374e-01,1.12500e-01,9.99999e-01,9.99999e-01,9.99999e-01,9.50564e-01,1.18361e-01,9.99914e-01
8.452190071e-01,1.20418e-01,9.99999e-01,9.99999e-01,9.99999e-01,9.75430e-01,1.23457e-01,9.99948e-01
8.494451021e-01,1.26814e-01,9.99999e-01,9.99999e-01,9.99999e-01,9.85651e-01,1.28665e-01,9.99958e-01
8.536923276e-01,1.32841e-01,9.99999e-01,9.99999e-01,9.99999e-01,9.91499e-01,1.33983e-01,9.99974e-01
8.579607893e-01,1.38678e-01,9.99999e-01,9.99999e-01,9.99999e-01,9.94752e-01,1.39410e-01,9.99993e-01
8.622505932e-01,1.44459e-01,9.99999e-01,9.99999e-01,9.99999e-01,9.96665e-01,1.44943e-01,9.99998e-01
8.665618462e-01,1.28373e-01,9.99999e-01,9.99999e-01,8.54171e-01,9.97934e-01,1.50579e-01,9.99998e-01
8.708946554e-01,4.03742e-02,9.99999e-01,9.99999e-01,2.58836e-01,9.97633e-01,1.56317e-01,9.99998e-01
8.752491287e-01,5.17610e-02,9.99999e-01,9.99999e-01,3.20142e-01,9.96836e-01,1.62153e-01,9.99996e-01
8.796253743e-01,8.79364e-02,9.99999e-01,9.99999e-01,5.25248e-01,9.95617e-01,1.68086e-01,9.99989e-01
8.840235012e-01,1.23066e-01,9.99999e-01,9.99999e-01,7.10200e-01,9.94996e-01,1.74112e-01,9.99969e-01
8.884436187e-01,1.54547e-01,9.99999e-01,9.99999e-01,8.72830e-01,9.81864e-01,1.80229e-01,9.99912e-01
8.928858368e-01,1.46080e-01,9.99999e-01,9.99999e-01,9.46168e-01,8.27005e-01,1.86434e-01,9.99499e-01
8.973502660e-01,1.36051e-01,9.99999e-01,9.99999e-01,9.86670e-01,7.16594e-01,1.92723e-01,9.97438e-01
9.018370173e-01,1.67126e-01,9.99999e-01,9.99999e-01,9.98523e-01,8.43931e-01,1.99094e-01,9.95975e-01
9.063462024e-01,1.70435e-01,9.99999e-01,9.99999e-01,9.63321e-01,8.60094e-01,2.05543e-01,9.96464e-01
9.108779334e-01,1.53773e-01,9.99999e-01,9.99999e-01,9.16558e-01,7.91025e-01,2.12068e-01,9.96326e-01
9.154323231e-01,1.63752e-01,9.99999e-01,9.99999e-01,9.79798e-01,7.65432e-01,2.18665e-01,9.96962e-01
9.200094847e-01,1.46930e-01,9.99999e-01,9.99999e-01,7.79406e-01,8.11909e-01,2.25330e-01,9.98298e-01
9.246095321e-01,1.13102e-01,9.99999e-01,9.99999e-01,6.55050e-01,7.30248e-01,2.32061e-01,9.98039e-01
9.292325798e-01,2.69443e-02,9.99999e-01,9.99999e-01,7.22827e-01,1.45494e-01,2.38855e-01,9.92378e-01
9.338787427e-01,1.51706e-02,9.99999e-01,9.99999e-01,7.27643e-01,8.15556e-02,2.45707e-01,9.68867e-01
9.385481364e-01,7.16449e-02,9.99999e-01,9.99999e-01,7.89615e-01,3.59584e-01,2.52614e-01,9.63082e-01
9.432408771e-01,5.67553e-02,9.99999e-01,9.99999e-01,8.64510e-01,2.55780e-01,2.59574e-01,9.68069e-01
9.479570815e-01,3.64290e-02,9.99999e-01,9.99999e-01,9.27879e-01,1.49608e-01,2.66582e-01,9.73934e-01
9.526968669e-01,5.97862e-02,9.99999e-01,9.99999e-01,9.64619e-01,2.28443e-01,2.73635e-01,9.84019e-01
9.574603512e-01,6.70204e-02,9.99999e-01,9.99999e-01,9.84698e-01,2.43678e-01,2.80730e-01,9.91850e-01
9.622476530e-01,8.83074e-02,9.99999e-01,9.99999e-01,9.95202e-01,3.09707e-01,2.87864e-01,9.94357e-01
9.670588912e-01,1.48071e-01,9.99999e-01,9.99999e-01,9.98561e-01,5.04424e-01,2.95032e-01,9.96137e-01
9.718941857e-01,1.93611e-01,9.99999e-01,9.99999e-01,9.99898e-01,6.42480e-01,3.02232e-01,9.97155e-01
9.767536566e-01,2.13705e-01,9.99999e-01,9.99999e-01,9.99999e-01,6.92076e-01,3.09460e-01,9.97825e-01
9.816374249e-01,2.40545e-01,9.99999e-01,9.99999e-01,9.99999e-01,7.60074e-01,3.16714e-01,9.99246e-01
9.865456120e-01,2.72732e-01,9.99999e-01,9.99999e-01,9.99999e-01,8.41925e-01,3.23989e-01,9.99842e-01
9.914783401e-01,2.97748e-01,9.99999e-01,9.99999e-01,9.99999e-01,8.98813e-01,3.31282e-01,9.99956e-01
9.964357318e-01,3.19469e-01,9.99999e-01,9.99999e-01,9.99999e-01,9.43549e-01,3.38591e-01,9.99974e-01
1.001417910e+00,3.34053e-01,9.99999e-01,9.99999e-01,9.99999e-01,9.65754e-01,3.45912e-01,9.99960e-01
1.006425000e+00,3.46269e-01,9.99999e-01,9.99999e-01,9.99999e-01,9.80314e-01,3.53242e-01,9.99944e-01
1.011457125e+00,3.56142e-01,9.99999e-01,9.99999e-01,9.99999e-01,9.87747e-01,3.60578e-01,9.99948e-01
1.016514411e+00,3.64836e-01,9.99999e-01,9.99999e-01,9.99999e-01,9.91661e-01,3.67916e-01,9.99963e-01
1.021596983e+00,3.72669e-01,9.99999e-01,9.99999e-01,9.99790e-01,9.93349e-01,3.75255e-01,9.99963e-01
1.026704968e+00,3.74994e-01,9.99999e-01,9.99999e-01,9.85257e-01,9.94808e-01,3.82591e-01,9.99975e-01
1.031838492e+00,3.45193e-01,9.99999e-01,9.99999e-01,8.88439e-01,9.96227e-01,3.89921e-01,9.99992e-01
1.036997685e+00,1.52537e-02,9.99999e-01,9.99999e-01,3.84637e-02,9.97756e-01,3.97243e-01,9.99998e-01
1.042182673e+00,4.77747e-04,9.99999e-01,9.99999e-01,1.18326e-03,9.97322e-01,4.04553e-01,9.99999e-01
1.047393587e+00,1.37483e-03,9.99999e-01,9.99999e-01,3.34789e-03,9.96452e-01,4.11850e-01,9.99998e-01
1.052630555e+00,2.50875e-08,9.99999e-01,9.99999e-01,6.00372e-08,9.95132e-01,4.19130e-01,9.99998e-01
1.057893707e+00,9.47626e-08,9.99999e-01,9.99999e-01,2.23135e-07,9.91884e-01,4.26391e-01,9.99996e-01
1.063183176e+00,5.77014e-06,9.99999e-01,9.99999e-01,1.34051e-05,9.86686e-01,4.33631e-01,9.99992e-01
1.068499092e+00,8.20650e-05,9.99999e-01,9.99999e-01,1.88716e-04,9.77818e-01,4.40847e-01,9.99984e-01
1.073841587e+00,1.67512e-03,9.99999e-01,9.99999e-01,3.80659e-03,9.74107e-01,4.48038e-01,9.99966e-01
