#,Wave/freq,Total,N2,O2,CO2,H2O,Rayleigh,CIA
4.000000000e-01,1.64733e-05,9.99999e-01,9.99999e-01,9.99999e-01,9.99978e-01,1.64737e-05,9.99999e-01
4.020000000e-01,2.04814e-05,9.99999e-01,9.99999e-01,9.99999e-01,9.99986e-01,2.04817e-05,9.99999e-01
4.040100000e-01,2.53499e-05,9.99999e-01,9.99999e-01,9.99999e-01,9.99993e-01,2.53500e-05,9.99999e-01
4.060300500e-01,3.12436e-05,9.99999e-01,9.99999e-01,9.99999e-01,9.99998e-01,3.12436e-05,9.99999e-01
4.080602003e-01,3.83487e-05,9.99999e-01,9.99999e-01,9.99999e-01,9.99999e-01,3.83487e-05,9.99999e-01
4.101005013e-01,4.68794e-05,9.99999e-01,9.99999e-01,9.99999e-01,9.99999e-01,4.68795e-05,9.99999e-01
4.121510038e-01,5.70809e-05,9.99999e-01,9.99999e-01,9.99999e-01,9.99998e-01,5.70810e-05,9.99999e-01
4.142117588e-01,6.92323e-05,9.99999e-01,9.99999e-01,9.99999e-01,9.99993e-01,6.92327e-05,9.99999e-01
4.162828176e-01,8.36496e-05,9.99999e-01,9.99999e-01,9.99999e-01,9.99973e-01,8.36518e-05,9.99999e-01
4.183642317e-01,1.00695e-04,9.99999e-01,9.99999e-01,9.99999e-01,9.99983e-01,1.00697e-04,9.99999e-01
4.204560528e-01,1.20771e-04,9.99999e-01,9.99999e-01,9.99999e-01,9.99989e-01,1.20772e-04,9.99999e-01
4.225583331e-01,1.44330e-04,9.99999e-01,9.99999e-01,9.99999e-01,9.99995e-01,1.44330e-04,9.99999e-01
4.246711247e-01,1.71877e-04,9.99999e-01,9.99999e-01,9.99999e-01,9.99996e-01,1.71878e-04,9.99999e-01
4.267944804e-01,2.03977e-04,9.99999e-01,9.99999e-01,9.99999e-01,9.99995e-01,2.03978e-04,9.99999e-01
4.289284528e-01,2.41255e-04,9.99999e-01,9.99999e-01,9.99999e-01,9.99996e-01,2.41256e-04,9.99999e-01
4.310730950e-01,2.84402e-04,9.99999e-01,9.99999e-01,9.99999e-01,9.99998e-01,2.84403e-04,9.99999e-01
4.332284605e-01,3.34177e-04,9.99999e-01,9.99999e-01,9.99999e-01,9.99999e-01,3.34177e-04,9.99999e-01
4.353946028e-01,3.91415e-04,9.99999e-01,9.99999e-01,9.99999e-01,9.99999e-01,3.91415e-04,9.99999e-01
4.375715758e-01,4.57025e-04,9.99999e-01,9.99999e-01,9.99999e-01,9.99996e-01,4.57026e-04,9.99999e-01
4.397594337e-01,5.31992e-04,9.99999e-01,9.99999e-01,9.99999e-01,9.99976e-01,5.32005e-04,9.99999e-01
4.419582309e-01,6.17355e-04,9.99999e-01,9.99999e-01,9.99999e-01,9.99880e-01,6.17429e-04,9.99999e-01
4.441680220e-01,7.14400e-04,9.99999e-01,9.99999e-01,9.99999e-01,9.99908e-01,7.14464e-04,9.99999e-01
4.463888621e-01,8.24292e-04,9.99999e-01,9.99999e-01,9.99999e-01,9.99904e-01,8.24370e-04,9.99999e-01
4.486208064e-01,9.48442e-04,9.99999e-01,9.99999e-01,9.99999e-01,9.99940e-01,9.48498e-04,9.99999e-01
4.508639105e-01,1.08827e-03,9.99999e-01,9.99999e-01,9.99999e-01,9.99971e-01,1.08830e-03,9.99999e-01
4.531182300e-01,1.24530e-03,9.99999e-01,9.99999e-01,9.99999e-01,9.99988e-01,1.24531e-03,9.99999e-01
4.553838212e-01,1.42119e-03,9.99999e-01,9.99999e-01,9.99999e-01,9.99992e-01,1.42120e-03,9.99999e-01
4.576607403e-01,1.61769e-03,9.99999e-01,9.99999e-01,9.99999e-01,9.99996e-01,1.61769e-03,9.99999e-01
4.599490440e-01,1.83665e-03,9.99999e-01,9.99999e-01,9.99999e-01,9.99997e-01,1.83666e-03,9.99999e-01
4.622487892e-01,2.08003e-03,9.99999e-01,9.99999e-01,9.99999e-01,9.99999e-01,2.08003e-03,9.99999e-01
4.645600332e-01,2.34987e-03,9.99999e-01,9.99999e-01,9.99999e-01,9.99997e-01,2.34987e-03,9.99999e-01
4.668828333e-01,2.64826e-03,9.99999e-01,9.99999e-01,9.99999e-01,9.99971e-01,2.64834e-03,9.99999e-01
4.692172475e-01,2.97749e-03,9.99999e-01,9.99999e-01,9.99999e-01,9.99939e-01,2.97766e-03,9.99999e-01
4.715633337e-01,3.34007e-03,9.99999e-01,9.99999e-01,9.99999e-01,9.99960e-01,3.34020e-03,9.99999e-01
4.739211504e-01,3.73825e-03,9.99999e-01,9.99999e-01,9.99999e-01,9.99962e-01,3.73839e-03,9.99999e-01
4.762907561e-01,4.17467e-03,9.99999e-01,9.99999e-01,9.99999e-01,9.99980e-01,4.17475e-03,9.99999e-01
4.786722099e-01,4.65184e-03,9.99999e-01,9.99999e-01,9.99999e-01,9.99991e-01,4.65188e-03,9.99999e-01
4.810655710e-01,5.17247e-03,9.99999e-01,9.99999e-01,9.99999e-01,9.99997e-01,5.17248e-03,9.99999e-01
4.834708988e-01,5.73916e-03,9.99999e-01,9.99999e-01,9.99999e-01,9.99976e-01,5.73930e-03,9.99999e-01
4.858882533e-01,6.35490e-03,9.99999e-01,9.99999e-01,9.99999e-01,9.99957e-01,6.35517e-03,9.99999e-01
4.883176946e-01,7.02272e-03,9.99999e-01,9.99999e-01,9.99999e-01,9.99964e-01,7.02297e-03,9.99999e-01
4.907592831e-01,7.74539e-03,9.99999e-01,9.99999e-01,9.99999e-01,9.99967e-01,7.74564e-03,9.99999e-01
4.932130795e-01,8.52597e-03,9.99999e-01,9.99999e-01,9.99999e-01,9.99976e-01,8.52616e-03,9.99999e-01
4.956791449e-01,9.36744e-03,9.99999e-01,9.99999e-01,9.99999e-01,9.99987e-01,9.36755e-03,9.99999e-01
4.981575406e-01,1.02722e-02,9.99999e-01,9.99999e-01,9.99999e-01,9.99939e-01,1.02729e-02,9.99999e-01
5.006483283e-01,1.12434e-02,9.99999e-01,9.99999e-01,9.99999e-01,9.99842e-01,1.12452e-02,9.99998e-01
5.031515699e-01,1.22777e-02,9.99999e-01,9.99999e-01,9.99999e-01,9.99209e-01,1.22875e-02,9.99991e-01
5.056673278e-01,1.33973e-02,9.99999e-01,9.99999e-01,9.99999e-01,9.99584e-01,1.34030e-02,9.99990e-01
5.081956644e-01,1.45869e-02,9.99999e-01,9.99999e-01,9.99999e-01,9.99475e-01,1.45947e-02,9.99993e-01
5.107366428e-01,1.58600e-02,9.99999e-01,9.99999e-01,9.99999e-01,9.99646e-01,1.58656e-02,9.99998e-01
5.132903260e-01,1.72153e-02,9.99999e-01,9.99999e-01,9.99999e-01,9.99797e-01,1.72187e-02,9.99999e-01
5.158567776e-01,1.86555e-02,9.99999e-01,9.99999e-01,9.99999e-01,9.99914e-01,1.86571e-02,9.99999e-01
5.184360615e-01,2.01830e-02,9.99999e-01,9.99999e-01,9.99999e-01,9.99965e-01,2.01836e-02,9.99999e-01
5.210282418e-01,2.18009e-02,9.99999e-01,9.99999e-01,9.99999e-01,9.99986e-01,2.18012e-02,9.99999e-01
5.236333830e-01,2.35113e-02,9.99999e-01,9.99999e-01,9.99999e-01,9.99948e-01,2.35125e-02,9.99999e-01
5.262515499e-01,2.53195e-02,9.99999e-01,9.99999e-01,9.99999e-01,9.99967e-01,2.53204e-02,9.99999e-01
5.288828077e-01,2.72265e-02,9.99999e-01,9.99999e-01,9.99999e-01,9.99969e-01,2.72274e-02,9.99999e-01
5.315272217e-01,2.92352e-02,9.99999e-01,9.99999e-01,9.99999e-01,9.99973e-01,2.92360e-02,9.99999e-01
5.341848578e-01,3.13482e-02,9.99999e-01,9.99999e-01,9.99999e-01,9.99982e-01,3.13487e-02,9.99999e-01
5.368557821e-01,3.35658e-02,9.99999e-01,9.99999e-01,9.99999e-01,9.99939e-01,3.35678e-02,9.99999e-01
5.395400610e-01,3.58876e-02,9.99999e-01,9.99999e-01,9.99999e-01,9.99781e-01,3.58955e-02,9.99997e-01
5.422377613e-01,3.83229e-02,9.99999e-01,9.99999e-01,9.99999e-01,9.99721e-01,3.83338e-02,9.99994e-01
5.449489501e-01,4.08737e-02,9.99999e-01,9.99999e-01,9.99999e-01,9.99739e-01,4.08846e-02,9.99994e-01
5.476736949e-01,4.35395e-02,9.99999e-01,9.99999e-01,9.99999e-01,9.99770e-01,4.35496e-02,9.99996e-01
5.504120634e-01,4.63229e-02,9.99999e-01,9.99999e-01,9.99999e-01,9.99833e-01,4.63306e-02,9.99998e-01
5.531641237e-01,4.92248e-02,9.99999e-01,9.99999e-01,9.99999e-01,9.99915e-01,4.92289e-02,9.99999e-01
5.559299443e-01,5.22438e-02,9.99999e-01,9.99999e-01,9.99999e-01,9.99959e-01,5.22459e-02,9.99999e-01
5.587095940e-01,5.53812e-02,9.99999e-01,9.99999e-01,9.99999e-01,9.99974e-01,5.53827e-02,9.99999e-01
5.615031420e-01,5.86385e-02,9.99999e-01,9.99999e-01,9.99999e-01,9.99971e-01,5.86402e-02,9.99999e-01
5.643106577e-01,6.20172e-02,9.99999e-01,9.99999e-01,9.99999e-01,9.99967e-01,6.20192e-02,9.99999e-01
5.671322110e-01,6.54943e-02,9.99999e-01,9.99999e-01,9.99999e-01,9.99602e-01,6.55205e-02,9.99996e-01
5.699678720e-01,6.91152e-02,9.99999e-01,9.99999e-01,9.99999e-01,9.99588e-01,6.91443e-02,9.99988e-01
5.728177114e-01,7.28589e-02,9.99999e-01,9.99999e-01,9.99999e-01,9.99567e-01,7.28910e-02,9.99990e-01
5.756818000e-01,7.67300e-02,9.99999e-01,9.99999e-01,9.99999e-01,9.99603e-01,7.67607e-02,9.99994e-01
5.785602090e-01,8.07254e-02,9.99999e-01,9.99999e-01,9.99999e-01,9.99655e-01,8.07533e-02,9.99998e-01
5.814530100e-01,8.48390e-02,9.99999e-01,9.99999e-01,9.99999e-01,9.99652e-01,8.48685e-02,9.99998e-01
5.843602750e-01,8.90686e-02,9.99999e-01,9.99999e-01,9.99999e-01,9.99583e-01,8.91059e-02,9.99997e-01
5.872820764e-01,9.31276e-02,9.99999e-01,9.99999e-01,9.99999e-01,9.96415e-01,9.34649e-02,9.99974e-01
5.902184868e-01,9.75164e-02,9.99999e-01,9.99999e-01,9.99999e-01,9.95694e-01,9.79447e-02,9.99931e-01
5.931695792e-01,1.02225e-01,9.99999e-01,9.99999e-01,9.99999e-01,9.96948e-01,1.02544e-01,9.99933e-01
5.961354271e-01,1.06901e-01,9.99999e-01,9.99999e-01,9.99999e-01,9.96662e-01,1.07263e-01,9.99961e-01
5.991161043e-01,1.11825e-01,9.99999e-01,9.99999e-01,9.99999e-01,9.97568e-01,1.12098e-01,9.99987e-01
6.021116848e-01,1.16889e-01,9.99999e-01,9.99999e-01,9.99999e-01,9.98621e-01,1.17050e-01,9.99998e-01
6.051222432e-01,1.22031e-01,9.99999e-01,9.99999e-01,9.99999e-01,9.99302e-01,1.22116e-01,9.99999e-01
6.081478544e-01,1.27257e-01,9.99999e-01,9.99999e-01,9.99999e-01,9.99698e-01,1.27295e-01,9.99999e-01
6.111885937e-01,1.32568e-01,9.99999e-01,9.99999e-01,9.99999e-01,9.99872e-01,1.32585e-01,9.99999e-01
6.142445367e-01,1.37976e-01,9.99999e-01,9.99999e-01,9.99999e-01,9.99942e-01,1.37984e-01,9.99999e-01
6.173157594e-01,1.43484e-01,9.99999e-01,9.99999e-01,9.99999e-01,9.99968e-01,1.43489e-01,9.99999e-01
6.204023382e-01,1.49094e-01,9.99999e-01,9.99999e-01,9.99999e-01,9.99972e-01,1.49098e-01,9.99999e-01
6.235043498e-01,1.54792e-01,9.99999e-01,9.99999e-01,9.99999e-01,9.99880e-01,1.54810e-01,9.99999e-01
6.266218716e-01,1.60521e-01,9.99999e-01,9.99999e-01,9.99999e-01,9.99378e-01,1.60621e-01,9.99995e-01
6.297549810e-01,1.66490e-01,9.99999e-01,9.99999e-01,9.99999e-01,9.99771e-01,1.66529e-01,9.99990e-01
6.329037559e-01,1.72452e-01,9.99999e-01,9.99999e-01,9.99999e-01,9.99550e-01,1.72531e-01,9.99992e-01
6.360682746e-01,1.78555e-01,9.99999e-01,9.99999e-01,9.99999e-01,9.99615e-01,1.78625e-01,9.99995e-01
6.392486160e-01,1.84714e-01,9.99999e-01,9.99999e-01,9.99999e-01,9.99502e-01,1.84806e-01,9.99997e-01
6.424448591e-01,1.90945e-01,9.99999e-01,9.99999e-01,9.99999e-01,9.99329e-01,1.91074e-01,9.99996e-01
6.456570834e-01,1.96806e-01,9.99999e-01,9.99999e-01,9.99999e-01,9.96891e-01,1.97424e-01,9.99980e-01
6.488853688e-01,2.03384e-01,9.99999e-01,9.99999e-01,9.99999e-01,9.97746e-01,2.03853e-01,9.99951e-01
6.521297956e-01,2.09867e-01,9.99999e-01,9.99999e-01,9.99999e-01,9.97703e-01,2.10358e-01,9.99960e-01
6.553904446e-01,2.16432e-01,9.99999e-01,9.99999e-01,9.99999e-01,9.97704e-01,2.16937e-01,9.99970e-01
6.586673968e-01,2.23145e-01,9.99999e-01,9.99999e-01,9.99999e-01,9.98041e-01,2.23585e-01,9.99989e-01
6.619607338e-01,2.30047e-01,9.99999e-01,9.99999e-01,9.99999e-01,9.98908e-01,2.30299e-01,9.99997e-01
6.652705375e-01,2.36921e-01,9.99999e-01,9.99999e-01,9.99999e-01,9.99344e-01,2.37076e-01,9.99998e-01
6.685968902e-01,2.43846e-01,9.99999e-01,9.99999e-01,9.99999e-01,9.99721e-01,2.43913e-01,9.99999e-01
6.719398746e-01,2.50772e-01,9.99999e-01,9.99999e-01,9.99999e-01,9.99858e-01,2.50807e-01,9.99999e-01
6.752995740e-01,2.57734e-01,9.99999e-01,9.99999e-01,9.99999e-01,9.99925e-01,2.57753e-01,9.99999e-01
6.786760719e-01,2.64719e-01,9.99999e-01,9.99999e-01,9.99999e-01,9.99888e-01,2.64749e-01,9.99999e-01
6.820694522e-01,2.71739e-01,9.99999e-01,9.99999e-01,9.99999e-01,9.99809e-01,2.71791e-01,9.99998e-01
6.854797995e-01,2.78806e-01,9.99999e-01,9.99999e-01,9.99999e-01,9.99754e-01,2.78875e-01,9.99997e-01
6.889071985e-01,2.85826e-01,9.99999e-01,9.99999e-01,9.99999e-01,9.99398e-01,2.85999e-01,9.99994e-01
6.923517345e-01,2.90304e-01,9.99999e-01,9.99999e-01,9.99999e-01,9.90307e-01,2.93158e-01,9.99953e-01
6.958134932e-01,2.98832e-01,9.99999e-01,9.99999e-01,9.99999e-01,9.95046e-01,3.00351e-01,9.99897e-01
6.992925606e-01,3.06069e-01,9.99999e-01,9.99999e-01,9.99999e-01,9.95204e-01,3.07572e-01,9.99907e-01
7.027890234e-01,3.12948e-01,9.99999e-01,9.99999e-01,9.99999e-01,9.94125e-01,3.14819e-01,9.99929e-01
7.063029686e-01,3.20485e-01,9.99999e-01,9.99999e-01,9.99999e-01,9.95055e-01,3.22089e-01,9.99964e-01
7.098344834e-01,3.27808e-01,9.99999e-01,9.99999e-01,9.99999e-01,9.95255e-01,3.29378e-01,9.99978e-01
7.133836558e-01,3.34517e-01,9.99999e-01,9.99999e-01,9.99999e-01,9.93606e-01,3.36683e-01,9.99958e-01
7.169505741e-01,3.26660e-01,9.99999e-01,9.99999e-01,9.99999e-01,9.49897e-01,3.44001e-01,9.99675e-01
7.205353270e-01,3.42559e-01,9.99999e-01,9.99999e-01,9.99999e-01,9.75595e-01,3.51329e-01,9.99427e-01
7.241380036e-01,3.47247e-01,9.99999e-01,9.99999e-01,9.99999e-01,9.68647e-01,3.58663e-01,9.99505e-01
7.277586936e-01,3.55497e-01,9.99999e-01,9.99999e-01,9.99999e-01,9.71691e-01,3.66001e-01,9.99595e-01
7.313974871e-01,3.62114e-01,9.99999e-01,9.99999e-01,9.99999e-01,9.70111e-01,3.73341e-01,9.99810e-01
7.350544745e-01,3.74389e-01,9.99999e-01,9.99999e-01,9.99999e-01,9.83544e-01,3.80677e-01,9.99933e-01
7.387297469e-01,3.83294e-01,9.99999e-01,9.99999e-01,9.99999e-01,9.87877e-01,3.88009e-01,9.99969e-01
7.424233956e-01,3.92985e-01,9.99999e-01,9.99999e-01,9.99999e-01,9.94065e-01,3.95333e-01,9.99994e-01
7.461355126e-01,4.01195e-01,9.99999e-01,9.99999e-01,9.99999e-01,9.96395e-01,4.02647e-01,9.99998e-01
7.498661902e-01,4.09261e-01,9.99999e-01,9.99999e-01,9.99999e-01,9.98324e-01,4.09947e-01,9.99999e-01
7.536155211e-01,4.16888e-01,9.99999e-01,9.99999e-01,9.99999e-01,9.99175e-01,4.17232e-01,9.99999e-01
7.573835987e-01,4.24319e-01,9.99999e-01,9.99999e-01,9.99999e-01,9.99575e-01,4.24499e-01,9.99999e-01
7.611705167e-01,4.31631e-01,9.99999e-01,9.99999e-01,9.99999e-01,9.99736e-01,4.31744e-01,9.99999e-01
7.649763693e-01,4.38894e-01,9.99999e-01,9.99999e-01,9.99999e-01,9.99834e-01,4.38967e-01,9.99999e-01
7.688012511e-01,4.46113e-01,9.99999e-01,9.99999e-01,9.99999e-01,9.99884e-01,4.46164e-01,9.99999e-01
7.726452574e-01,4.53291e-01,9.99999e-01,9.99999e-01,9.99999e-01,9.99904e-01,4.53334e-01,9.99999e-01
7.765084837e-01,4.60411e-01,9.99999e-01,9.99999e-01,9.99999e-01,9.99863e-01,4.60473e-01,9.99999e-01
7.803910261e-01,4.50303e-01,9.99999e-01,9.99999e-01,9.63594e-01,9.99411e-01,4.67581e-01,9.99998e-01
7.842929812e-01,4.04942e-01,9.99999e-01,9.99999e-01,8.54799e-01,9.97947e-01,4.74655e-01,9.99995e-01
7.882144461e-01,4.05128e-01,9.99999e-01,9.99999e-01,8.44467e-01,9.95807e-01,4.81693e-01,9.99970e-01
7.921555184e-01,4.41731e-01,9.99999e-01,9.99999e-01,9.05970e-01,9.97710e-01,4.88694e-01,9.99949e-01
7.961162960e-01,4.62267e-01,9.99999e-01,9.99999e-01,9.36476e-01,9.95912e-01,4.95654e-01,9.99951e-01
8.000968774e-01,4.82684e-01,9.99999e-01,9.99999e-01,9.64987e-01,9.95306e-01,5.02574e-01,9.99948e-01
8.040973618e-01,4.97802e-01,9.99999e-01,9.99999e-01,9.81778e-01,9.95298e-01,5.09450e-01,9.99960e-01
8.081178486e-01,5.06471e-01,9.99999e-01,9.99999e-01,9.91563e-01,9.89365e-01,5.16282e-01,9.99960e-01
8.121584379e-01,4.98925e-01,9.99999e-01,9.99999e-01,9.97412e-01,9.56433e-01,5.23068e-01,9.99851e-01
8.162192301e-01,5.02193e-01,9.99999e-01,9.99999e-01,9.99427e-01,9.48938e-01,5.29807e-01,9.99442e-01
8.203003262e-01,5.22094e-01,9.99999e-01,9.99999e-01,9.99991e-01,9.73794e-01,5.36497e-01,9.99347e-01
8.244018279e-01,5.23520e-01,9.99999e-01,9.99999e-01,9.99999e-01,9.64383e-01,5.43136e-01,9.99480e-01
8.285238370e-01,5.32494e-01,9.99999e-01,9.99999e-01,9.99999e-01,9.69050e-01,5.49724e-01,9.99592e-01
8.326664562e-01,5.38832e-01,9.99999e-01,9.99999e-01,9.99999e-01,9.68833e-01,5.56260e-01,9.99830e-01
8.368297885e-01,5.50166e-01,9.99999e-01,9.99999e-01,9.99999e-01,9.77690e-01,5.62742e-01,9.99961e-01
8.410139374e-01,5.61584e-01,9.99999e-01,9.99999e-01,9.99999e-01,9.86695e-01,5.69169e-01,9.99976e-01
8.452190071e-01,5.71772e-01,9.99999e-01,9.99999e-01,9.99999e-01,9.93464e-01,5.75540e-01,9.99986e-01
8.494451021e-01,5.79633e-01,9.99999e-01,9.99999e-01,9.99999e-01,9.96191e-01,5.81855e-01,9.99988e-01
8.536923276e-01,5.86787e-01,9.99999e-01,9.99999e-01,9.99999e-01,9.97753e-01,5.88112e-01,9.99992e-01
8.579607893e-01,5.93486e-01,9.99999e-01,9.99999e-01,9.99999e-01,9.98612e-01,5.94311e-01,9.99997e-01
8.622505932e-01,5.99923e-01,9.99999e-01,9.99999e-01,9.99999e-01,9.99120e-01,6.00451e-01,9.99999e-01
8.665618462e-01,5.58293e-01,9.99999e-01,9.99999e-01,9.20950e-01,9.99453e-01,6.06532e-01,9.99999e-01
8.708946554e-01,4.10255e-01,9.99999e-01,9.99999e-01,6.70152e-01,9.99373e-01,6.12551e-01,9.99999e-01
8.752491287e-01,4.48113e-01,9.99999e-01,9.99999e-01,7.25093e-01,9.99162e-01,6.18510e-01,9.99998e-01
8.796253743e-01,5.22792e-01,9.99999e-01,9.99999e-01,8.38207e-01,9.98836e-01,6.24408e-01,9.99996e-01
8.840235012e-01,5.74349e-01,9.99999e-01,9.99999e-01,9.12511e-01,9.98672e-01,6.30244e-01,9.99991e-01
8.884436187e-01,6.10569e-01,9.99999e-01,9.99999e-01,9.64707e-01,9.95081e-01,6.36017e-01,9.99976e-01
8.928858368e-01,6.00734e-01,9.99999e-01,9.99999e-01,9.85524e-01,9.49869e-01,6.41727e-01,9.99867e-01
8.973502660e-01,5.89079e-01,9.99999e-01,9.99999e-01,9.96484e-01,9.13710e-01,6.47375e-01,9.99322e-01
9.018370173e-01,6.22883e-01,9.99999e-01,9.99999e-01,9.99612e-01,9.55312e-01,6.52959e-01,9.98934e-01
9.063462024e-01,6.25291e-01,9.99999e-01,9.99999e-01,9.89781e-01,9.59980e-01,6.58480e-01,9.99064e-01
9.108779334e-01,6.08527e-01,9.99999e-01,9.99999e-01,9.77194e-01,9.38570e-01,6.63937e-01,9.99027e-01
9.154323231e-01,6.19156e-01,9.99999e-01,9.99999e-01,9.94655e-01,9.30646e-01,6.69330e-01,9.99196e-01
9.200094847e-01,5.90423e-01,9.99999e-01,9.99999e-01,9.23290e-01,9.45384e-01,6.74659e-01,9.99549e-01
9.246095321e-01,5.56121e-01,9.99999e-01,9.99999e-01,8.93123e-01,9.14300e-01,6.79924e-01,9.99481e-01
9.292325798e-01,3.49836e-01,9.99999e-01,9.99999e-01,9.14452e-01,5.54260e-01,6.85124e-01,9.97500e-01
9.338787427e-01,2.98139e-01,9.99999e-01,9.99999e-01,9.17923e-01,4.70426e-01,6.90261e-01,9.90994e-01
9.385481364e-01,4.78816e-01,9.99999e-01,9.99999e-01,9.38972e-01,7.37917e-01,6.95334e-01,9.90110e-01
9.432408771e-01,4.37598e-01,9.99999e-01,9.99999e-01,9.62275e-01,6.53474e-01,7.00342e-01,9.91462e-01
9.479570815e-01,3.82970e-01,9.99999e-01,9.99999e-01,9.80429e-01,5.57080e-01,7.05287e-01,9.93046e-01
9.526968669e-01,4.52734e-01,9.99999e-01,9.99999e-01,9.90536e-01,6.45782e-01,7.10168e-01,9.95752e-01
9.574603512e-01,4.74322e-01,9.99999e-01,9.99999e-01,9.95946e-01,6.67355e-01,7.14985e-01,9.97839e-01
9.622476530e-01,5.16770e-01,9.99999e-01,9.99999e-01,9.98735e-01,7.19925e-01,7.19739e-01,9.98505e-01
9.670588912e-01,5.98376e-01,9.99999e-01,9.99999e-01,9.99621e-01,8.27136e-01,7.24429e-01,9.98977e-01
9.718941857e-01,6.46804e-01,9.99999e-01,9.99999e-01,9.99973e-01,8.87867e-01,7.29057e-01,9.99247e-01
9.767536566e-01,6.64251e-01,9.99999e-01,9.99999e-01,9.99999e-01,9.05960e-01,7.33622e-01,9.99424e-01
9.816374249e-01,6.86014e-01,9.99999e-01,9.99999e-01,9.99999e-01,9.29586e-01,7.38124e-01,9.99800e-01
9.865456120e-01,7.09435e-01,9.99999e-01,9.99999e-01,9.99999e-01,9.55423e-01,7.42565e-01,9.99958e-01
9.914783401e-01,7.26168e-01,9.99999e-01,9.99999e-01,9.99999e-01,9.72197e-01,7.46943e-01,9.99988e-01
9.964357318e-01,7.39813e-01,9.99999e-01,9.99999e-01,9.99999e-01,9.84768e-01,7.51260e-01,9.99992e-01
1.001417910e+00,7.48596e-01,9.99999e-01,9.99999e-01,9.99999e-01,9.90849e-01,7.55516e-01,9.99989e-01
1.006425000e+00,7.55723e-01,9.99999e-01,9.99999e-01,9.99999e-01,9.94763e-01,7.59712e-01,9.99984e-01
1.011457125e+00,7.61358e-01,9.99999e-01,9.99999e-01,9.99999e-01,9.96754e-01,7.63847e-01,9.99985e-01
1.016514411e+00,7.66221e-01,9.99999e-01,9.99999e-01,9.99999e-01,9.97793e-01,7.67922e-01,9.99989e-01
1.021596983e+00,7.70526e-01,9.99999e-01,9.99999e-01,9.99938e-01,9.98240e-01,7.71938e-01,9.99990e-01
1.026704968e+00,7.71719e-01,9.99999e-01,9.99999e-01,9.95989e-01,9.98626e-01,7.75895e-01,9.99993e-01
1.031838492e+00,7.41041e-01,9.99999e-01,9.99999e-01,9.51220e-01,9.99003e-01,7.79794e-01,9.99997e-01
1.036997685e+00,1.13401e-01,9.99999e-01,9.99999e-01,1.44779e-01,9.99406e-01,7.83634e-01,9.99999e-01
1.042182673e+00,8.70447e-02,9.99999e-01,9.99999e-01,1.10614e-01,9.99290e-01,7.87417e-01,9.99999e-01
1.047393587e+00,1.03791e-01,9.99999e-01,9.99999e-01,1.31299e-01,9.99060e-01,7.91143e-01,9.99999e-01
1.052630555e+00,2.53987e-03,9.99999e-01,9.99999e-01,3.19856e-03,9.98709e-01,7.94813e-01,9.99999e-01
1.057893707e+00,6.73473e-03,9.99999e-01,9.99999e-01,8.44720e-03,9.97843e-01,7.98426e-01,9.99998e-01
1.063183176e+00,2.35062e-02,9.99999e-01,9.99999e-01,2.93840e-02,9.96456e-01,8.01984e-01,9.99997e-01
1.068499092e+00,6.80893e-02,9.99999e-01,9.99999e-01,8.49519e-02,9.94079e-01,8.05488e-01,9.99995e-01
1.073841587e+00,1.69852e-01,9.99999e-01,9.99999e-01,2.11217e-01,9.93060e-01,8.08936e-01,9.99990e-01
