#,Wave/freq,Total,N2,O2,CO2,H2O,Rayleigh,CIA
4.000000000e-01,2.32922e-08,9.99999e-01,9.99999e-01,9.99999e-01,9.99965e-01,2.32930e-08,9.99999e-01
4.020000000e-01,3.29718e-08,9.99999e-01,9.99999e-01,9.99999e-01,9.99978e-01,3.29724e-08,9.99999e-01
4.040100000e-01,4.63375e-08,9.99999e-01,9.99999e-01,9.99999e-01,9.99990e-01,4.63379e-08,9.99999e-01
4.060300500e-01,6.46847e-08,9.99999e-01,9.99999e-01,9.99999e-01,9.99997e-01,6.46848e-08,9.99999e-01
4.080602003e-01,8.97029e-08,9.99999e-01,9.99999e-01,9.99999e-01,9.99998e-01,8.97029e-08,9.99999e-01
4.101005013e-01,1.23596e-07,9.99999e-01,9.99999e-01,9.99999e-01,9.99999e-01,1.23596e-07,9.99999e-01
4.121510038e-01,1.69222e-07,9.99999e-01,9.99999e-01,9.99999e-01,9.99998e-01,1.69222e-07,9.99999e-01
4.142117588e-01,2.30254e-07,9.99999e-01,9.99999e-01,9.99999e-01,9.99990e-01,2.30256e-07,9.99999e-01
4.162828176e-01,3.11391e-07,9.99999e-01,9.99999e-01,9.99999e-01,9.99957e-01,3.11404e-07,9.99999e-01
4.183642317e-01,4.18635e-07,9.99999e-01,9.99999e-01,9.99999e-01,9.99974e-01,4.18646e-07,9.99999e-01
4.204560528e-01,5.59531e-07,9.99999e-01,9.99999e-01,9.99999e-01,9.99984e-01,5.59540e-07,9.99999e-01
4.225583331e-01,7.43574e-07,9.99999e-01,9.99999e-01,9.99999e-01,9.99993e-01,7.43578e-07,9.99999e-01
4.246711247e-01,9.82610e-07,9.99999e-01,9.99999e-01,9.99999e-01,9.99995e-01,9.82615e-07,9.99999e-01
4.267944804e-01,1.29136e-06,9.99999e-01,9.99999e-01,9.99999e-01,9.99992e-01,1.29136e-06,9.99999e-01
4.289284528e-01,1.68798e-06,9.99999e-01,9.99999e-01,9.99999e-01,9.99994e-01,1.68799e-06,9.99999e-01
4.310730950e-01,2.19479e-06,9.99999e-01,9.99999e-01,9.99999e-01,9.99997e-01,2.19479e-06,9.99999e-01
4.332284605e-01,2.83900e-06,9.99999e-01,9.99999e-01,9.99999e-01,9.99998e-01,2.83900e-06,9.99999e-01
4.353946028e-01,3.65367e-06,9.99999e-01,9.99999e-01,9.99999e-01,9.99999e-01,3.65367e-06,9.99999e-01
4.375715758e-01,4.67872e-06,9.99999e-01,9.99999e-01,9.99999e-01,9.99995e-01,4.67874e-06,9.99999e-01
4.397594337e-01,5.96199e-06,9.99999e-01,9.99999e-01,9.99999e-01,9.99963e-01,5.96220e-06,9.99999e-01
4.419582309e-01,7.56007e-06,9.99999e-01,9.99999e-01,9.99999e-01,9.99816e-01,7.56145e-06,9.99999e-01
4.441680220e-01,9.54337e-06,9.99999e-01,9.99999e-01,9.99999e-01,9.99852e-01,9.54477e-06,9.99999e-01
4.463888621e-01,1.19912e-05,9.99999e-01,9.99999e-01,9.99999e-01,9.99847e-01,1.19930e-05,9.99999e-01
4.486208064e-01,1.49999e-05,9.99999e-01,9.99999e-01,9.99999e-01,9.99904e-01,1.50014e-05,9.99999e-01
4.508639105e-01,1.86808e-05,9.99999e-01,9.99999e-01,9.99999e-01,9.99955e-01,1.86816e-05,9.99999e-01
4.531182300e-01,2.31637e-05,9.99999e-01,9.99999e-01,9.99999e-01,9.99981e-01,2.31641e-05,9.99999e-01
4.553838212e-01,2.86001e-05,9.99999e-01,9.99999e-01,9.99999e-01,9.99987e-01,2.86004e-05,9.99999e-01
4.576607403e-01,3.51656e-05,9.99999e-01,9.99999e-01,9.99999e-01,9.99994e-01,3.51657e-05,9.99999e-01
4.599490440e-01,4.30619e-05,9.99999e-01,9.99999e-01,9.99999e-01,9.99995e-01,4.30621e-05,9.99999e-01
4.622487892e-01,5.25209e-05,9.99999e-01,9.99999e-01,9.99999e-01,9.99998e-01,5.25209e-05,9.99999e-01
4.645600332e-01,6.38066e-05,9.99999e-01,9.99999e-01,9.99999e-01,9.99996e-01,6.38067e-05,9.99999e-01
4.668828333e-01,7.72168e-05,9.99999e-01,9.99999e-01,9.99999e-01,9.99955e-01,7.72202e-05,9.99999e-01
4.692172475e-01,9.30930e-05,9.99999e-01,9.99999e-01,9.99999e-01,9.99904e-01,9.31018e-05,9.99999e-01
4.715633337e-01,1.11829e-04,9.99999e-01,9.99999e-01,9.99999e-01,9.99937e-01,1.11836e-04,9.99999e-01
4.739211504e-01,1.33846e-04,9.99999e-01,9.99999e-01,9.99999e-01,9.99939e-01,1.33854e-04,9.99999e-01
4.762907561e-01,1.59635e-04,9.99999e-01,9.99999e-01,9.99999e-01,9.99968e-01,1.59639e-04,9.99999e-01
4.786722099e-01,1.89728e-04,9.99999e-01,9.99999e-01,9.99999e-01,9.99986e-01,1.89731e-04,9.99999e-01
4.810655710e-01,2.24725e-04,9.99999e-01,9.99999e-01,9.99999e-01,9.99995e-01,2.24726e-04,9.99999e-01
4.834708988e-01,2.65279e-04,9.99999e-01,9.99999e-01,9.99999e-01,9.99964e-01,2.65288e-04,9.99999e-01
4.858882533e-01,3.12125e-04,9.99999e-01,9.99999e-01,9.99999e-01,9.99931e-01,3.12146e-04,9.99999e-01
4.883176946e-01,3.66082e-04,9.99999e-01,9.99999e-01,9.99999e-01,9.99943e-01,3.66103e-04,9.99999e-01
4.907592831e-01,4.28014e-04,9.99999e-01,9.99999e-01,9.99999e-01,9.99948e-01,4.28036e-04,9.99999e-01
4.932130795e-01,4.98886e-04,9.99999e-01,9.99999e-01,9.99999e-01,9.99963e-01,4.98904e-04,9.99999e-01
4.956791449e-01,5.79737e-04,9.99999e-01,9.99999e-01,9.99999e-01,9.99980e-01,5.79748e-04,9.99999e-01
4.981575406e-01,6.71633e-04,9.99999e-01,9.99999e-01,9.99999e-01,9.99904e-01,6.71697e-04,9.99999e-01
5.006483283e-01,7.75778e-04,9.99999e-01,9.99999e-01,9.99999e-01,9.99754e-01,7.75969e-04,9.99997e-01
5.031515699e-01,8.92745e-04,9.99999e-01,9.99999e-01,9.99999e-01,9.98745e-01,8.93877e-04,9.99986e-01
5.056673278e-01,1.02613e-03,9.99999e-01,9.99999e-01,9.99999e-01,9.99335e-01,1.02683e-03,9.99984e-01
5.081956644e-01,1.17533e-03,9.99999e-01,9.99999e-01,9.99999e-01,9.99161e-01,1.17633e-03,9.99989e-01
5.107366428e-01,1.34321e-03,9.99999e-01,9.99999e-01,9.99999e-01,9.99432e-01,1.34398e-03,9.99997e-01
5.132903260e-01,1.53099e-03,9.99999e-01,9.99999e-01,9.99999e-01,9.99675e-01,1.53149e-03,9.99999e-01
5.158567776e-01,1.74042e-03,9.99999e-01,9.99999e-01,9.99999e-01,9.99862e-01,1.74066e-03,9.99999e-01
5.184360615e-01,1.97330e-03,9.99999e-01,9.99999e-01,9.99999e-01,9.99944e-01,1.97341e-03,9.99999e-01
5.210282418e-01,2.23169e-03,9.99999e-01,9.99999e-01,9.99999e-01,9.99979e-01,2.23174e-03,9.99999e-01
5.236333830e-01,2.51755e-03,9.99999e-01,9.99999e-01,9.99999e-01,9.99917e-01,2.51776e-03,9.99998e-01
5.262515499e-01,2.83353e-03,9.99999e-01,9.99999e-01,9.99999e-01,9.99948e-01,2.83368e-03,9.99998e-01
5.288828077e-01,3.18165e-03,9.99999e-01,9.99999e-01,9.99999e-01,9.99952e-01,3.18180e-03,9.99998e-01
5.315272217e-01,3.56438e-03,9.99999e-01,9.99999e-01,9.99999e-01,9.99957e-01,3.56452e-03,9.99999e-01
5.341848578e-01,3.98423e-03,9.99999e-01,9.99999e-01,9.99999e-01,9.99972e-01,3.98433e-03,9.99999e-01
5.368557821e-01,4.44338e-03,9.99999e-01,9.99999e-01,9.99999e-01,9.99904e-01,4.44380e-03,9.99999e-01
5.395400610e-01,4.94388e-03,9.99999e-01,9.99999e-01,9.99999e-01,9.99659e-01,4.94558e-03,9.99996e-01
5.422377613e-01,5.48990e-03,9.99999e-01,9.99999e-01,9.99999e-01,9.99553e-01,5.49240e-03,9.99991e-01
5.449489501e-01,6.08450e-03,9.99999e-01,9.99999e-01,9.99999e-01,9.99587e-01,6.08706e-03,9.99991e-01
5.476736949e-01,6.72991e-03,9.99999e-01,9.99999e-01,9.99999e-01,9.99631e-01,6.73241e-03,9.99995e-01
5.504120634e-01,7.42939e-03,9.99999e-01,9.99999e-01,9.99999e-01,9.99732e-01,7.43139e-03,9.99998e-01
5.531641237e-01,8.18583e-03,9.99999e-01,9.99999e-01,9.99999e-01,9.99865e-01,8.18694e-03,9.99999e-01
5.559299443e-01,9.00149e-03,9.99999e-01,9.99999e-01,9.99999e-01,9.99934e-01,9.00207e-03,9.99999e-01
5.587095940e-01,9.87942e-03,9.99999e-01,9.99999e-01,9.99999e-01,9.99959e-01,9.87982e-03,9.99999e-01
5.615031420e-01,1.08228e-02,9.99999e-01,9.99999e-01,9.99999e-01,9.99954e-01,1.08233e-02,9.99999e-01
5.643106577e-01,1.18348e-02,9.99999e-01,9.99999e-01,9.99999e-01,9.99949e-01,1.18354e-02,9.99999e-01
5.671322110e-01,1.29115e-02,9.99999e-01,9.99999e-01,9.99999e-01,9.99391e-01,1.29194e-02,9.99994e-01
5.699678720e-01,1.40687e-02,9.99999e-01,9.99999e-01,9.99999e-01,9.99332e-01,1.40783e-02,9.99982e-01
5.728177114e-01,1.53044e-02,9.99999e-01,9.99999e-01,9.99999e-01,9.99313e-01,1.53152e-02,9.99985e-01
5.756818000e-01,1.66223e-02,9.99999e-01,9.99999e-01,9.99999e-01,9.99367e-01,1.66330e-02,9.99990e-01
5.785602090e-01,1.80248e-02,9.99999e-01,9.99999e-01,9.99999e-01,9.99447e-01,1.80348e-02,9.99996e-01
5.814530100e-01,1.95126e-02,9.99999e-01,9.99999e-01,9.99999e-01,9.99446e-01,1.95235e-02,9.99998e-01
5.843602750e-01,2.10881e-02,9.99999e-01,9.99999e-01,9.99999e-01,9.99346e-01,2.11019e-02,9.99995e-01
5.872820764e-01,2.26440e-02,9.99999e-01,9.99999e-01,9.99999e-01,9.94372e-01,2.27730e-02,9.99959e-01
5.902184868e-01,2.43679e-02,9.99999e-01,9.99999e-01,9.99999e-01,9.93112e-01,2.45395e-02,9.99890e-01
5.931695792e-01,2.62731e-02,9.99999e-01,9.99999e-01,9.99999e-01,9.95147e-01,2.64040e-02,9.99893e-01
5.961354271e-01,2.82161e-02,9.99999e-01,9.99999e-01,9.99999e-01,9.94668e-01,2.83691e-02,9.99935e-01
5.991161043e-01,3.03182e-02,9.99999e-01,9.99999e-01,9.99999e-01,9.96104e-01,3.04373e-02,9.99980e-01
6.021116848e-01,3.25386e-02,9.99999e-01,9.99999e-01,9.99999e-01,9.97784e-01,3.26109e-02,9.99997e-01
6.051222432e-01,3.48530e-02,9.99999e-01,9.99999e-01,9.99999e-01,9.98878e-01,3.48921e-02,9.99999e-01
6.081478544e-01,3.72651e-02,9.99999e-01,9.99999e-01,9.99999e-01,9.99516e-01,3.72831e-02,9.99999e-01
6.111885937e-01,3.97777e-02,9.99999e-01,9.99999e-01,9.99999e-01,9.99794e-01,3.97858e-02,9.99999e-01
6.142445367e-01,4.23982e-02,9.99999e-01,9.99999e-01,9.99999e-01,9.99908e-01,4.24021e-02,9.99999e-01
6.173157594e-01,4.51313e-02,9.99999e-01,9.99999e-01,9.99999e-01,9.99949e-01,4.51336e-02,9.99999e-01
6.204023382e-01,4.79798e-02,9.99999e-01,9.99999e-01,9.99999e-01,9.99957e-01,4.79818e-02,9.99999e-01
6.235043498e-01,5.09388e-02,9.99999e-01,9.99999e-01,9.99999e-01,9.99816e-01,5.09482e-02,9.99999e-01
6.266218716e-01,5.39800e-02,9.99999e-01,9.99999e-01,9.99999e-01,9.99010e-01,5.40339e-02,9.99992e-01
6.297549810e-01,5.72184e-02,9.99999e-01,9.99999e-01,9.99999e-01,9.99636e-01,5.72399e-02,9.99985e-01
6.329037559e-01,6.05230e-02,9.99999e-01,9.99999e-01,9.99999e-01,9.99279e-01,6.05672e-02,9.99988e-01
6.360682746e-01,6.39770e-02,9.99999e-01,9.99999e-01,9.99999e-01,9.99389e-01,6.40164e-02,9.99992e-01
6.392486160e-01,6.75343e-02,9.99999e-01,9.99999e-01,9.99999e-01,9.99207e-01,6.75881e-02,9.99996e-01
6.424448591e-01,7.12146e-02,9.99999e-01,9.99999e-01,9.99999e-01,9.99050e-01,7.12825e-02,9.99994e-01
6.456570834e-01,7.47349e-02,9.99999e-01,9.99999e-01,9.99999e-01,9.95166e-01,7.50999e-02,9.99972e-01
6.488853688e-01,7.86990e-02,9.99999e-01,9.99999e-01,9.99999e-01,9.95757e-01,7.90403e-02,9.99923e-01
6.521297956e-01,8.27923e-02,9.99999e-01,9.99999e-01,9.99999e-01,9.96320e-01,8.31034e-02,9.99935e-01
6.553904446e-01,8.69677e-02,9.99999e-01,9.99999e-01,9.99999e-01,9.96368e-01,8.72888e-02,9.99951e-01
6.586673968e-01,9.13070e-02,9.99999e-01,9.99999e-01,9.99999e-01,9.96857e-01,9.15962e-02,9.99983e-01
6.619607338e-01,9.58500e-02,9.99999e-01,9.99999e-01,9.99999e-01,9.98183e-01,9.60247e-02,9.99996e-01
6.652705375e-01,1.00467e-01,9.99999e-01,9.99999e-01,9.99999e-01,9.98944e-01,1.00573e-01,9.99997e-01
6.685968902e-01,1.05190e-01,9.99999e-01,9.99999e-01,9.99999e-01,9.99509e-01,1.05241e-01,9.99999e-01
6.719398746e-01,1.10002e-01,9.99999e-01,9.99999e-01,9.99999e-01,9.99772e-01,1.10027e-01,9.99999e-01
6.752995740e-01,1.14916e-01,9.99999e-01,9.99999e-01,9.99999e-01,9.99877e-01,1.14930e-01,9.99999e-01
6.786760719e-01,1.19927e-01,9.99999e-01,9.99999e-01,9.99999e-01,9.99824e-01,1.19948e-01,9.99999e-01
6.820694522e-01,1.25041e-01,9.99999e-01,9.99999e-01,9.99999e-01,9.99698e-01,1.25079e-01,9.99997e-01
6.854797995e-01,1.30271e-01,9.99999e-01,9.99999e-01,9.99999e-01,9.99611e-01,1.30322e-01,9.99996e-01
6.889071985e-01,1.35548e-01,9.99999e-01,9.99999e-01,9.99999e-01,9.99075e-01,1.35674e-01,9.99991e-01
6.923517345e-01,1.38979e-01,9.99999e-01,9.99999e-01,9.99999e-01,9.84797e-01,1.41135e-01,9.99925e-01
6.958134932e-01,1.45487e-01,9.99999e-01,9.99999e-01,9.99999e-01,9.91894e-01,1.46700e-01,9.99833e-01
6.992925606e-01,1.51198e-01,9.99999e-01,9.99999e-01,9.99999e-01,9.92460e-01,1.52369e-01,9.99853e-01
7.027890234e-01,1.56636e-01,9.99999e-01,9.99999e-01,9.99999e-01,9.90614e-01,1.58138e-01,9.99887e-01
7.063029686e-01,1.62702e-01,9.99999e-01,9.99999e-01,9.99999e-01,9.92112e-01,1.64005e-01,9.99943e-01
7.098344834e-01,1.68675e-01,9.99999e-01,9.99999e-01,9.99999e-01,9.92430e-01,1.69967e-01,9.99966e-01
7.133836558e-01,1.74263e-01,9.99999e-01,9.99999e-01,9.99999e-01,9.90071e-01,1.76022e-01,9.99933e-01
7.169505741e-01,1.67952e-01,9.99999e-01,9.99999e-01,9.99999e-01,9.22447e-01,1.82167e-01,9.99482e-01
7.205353270e-01,1.80784e-01,9.99999e-01,9.99999e-01,9.99999e-01,9.60459e-01,1.88398e-01,9.99086e-01
7.241380036e-01,1.84996e-01,9.99999e-01,9.99999e-01,9.99999e-01,9.50849e-01,1.94713e-01,9.99205e-01
7.277586936e-01,1.92032e-01,9.99999e-01,9.99999e-01,9.99999e-01,9.55497e-01,2.01109e-01,9.99339e-01
7.313974871e-01,1.97638e-01,9.99999e-01,9.99999e-01,9.99999e-01,9.52381e-01,2.07582e-01,9.99697e-01
7.350544745e-01,2.08488e-01,9.99999e-01,9.99999e-01,9.99999e-01,9.73754e-01,2.14130e-01,9.99894e-01
7.387297469e-01,2.16456e-01,9.99999e-01,9.99999e-01,9.99999e-01,9.80600e-01,2.20749e-01,9.99951e-01
7.424233956e-01,2.25258e-01,9.99999e-01,9.99999e-01,9.99999e-01,9.90436e-01,2.27435e-01,9.99990e-01
7.461355126e-01,2.32829e-01,9.99999e-01,9.99999e-01,9.99999e-01,9.94206e-01,2.34186e-01,9.99997e-01
7.498661902e-01,2.40346e-01,9.99999e-01,9.99999e-01,9.99999e-01,9.97291e-01,2.40999e-01,9.99998e-01
7.536155211e-01,2.47540e-01,9.99999e-01,9.99999e-01,9.99999e-01,9.98674e-01,2.47868e-01,9.99999e-01
7.573835987e-01,2.54619e-01,9.99999e-01,9.99999e-01,9.99999e-01,9.99316e-01,2.54793e-01,9.99999e-01
7.611705167e-01,2.61657e-01,9.99999e-01,9.99999e-01,9.99999e-01,9.99575e-01,2.61768e-01,9.99999e-01
7.649763693e-01,2.68719e-01,9.99999e-01,9.99999e-01,9.99999e-01,9.99734e-01,2.68790e-01,9.99999e-01
7.688012511e-01,2.75806e-01,9.99999e-01,9.99999e-01,9.99999e-01,9.99815e-01,2.75857e-01,9.99999e-01
7.726452574e-01,2.82922e-01,9.99999e-01,9.99999e-01,9.99999e-01,9.99847e-01,2.82965e-01,9.99999e-01
7.765084837e-01,2.90047e-01,9.99999e-01,9.99999e-01,9.99999e-01,9.99785e-01,2.90109e-01,9.99999e-01
7.803910261e-01,2.82106e-01,9.99999e-01,9.99999e-01,9.49766e-01,9.99077e-01,2.97288e-01,9.99998e-01
7.842929812e-01,2.36793e-01,9.99999e-01,9.99999e-01,7.79975e-01,9.96784e-01,3.04497e-01,9.99993e-01
7.882144461e-01,2.38133e-01,9.99999e-01,9.99999e-01,7.68750e-01,9.93320e-01,3.11734e-01,9.99958e-01
7.921555184e-01,2.71892e-01,9.99999e-01,9.99999e-01,8.55444e-01,9.96312e-01,3.18994e-01,9.99920e-01
7.961162960e-01,2.91650e-01,9.99999e-01,9.99999e-01,8.99638e-01,9.93569e-01,3.26275e-01,9.99923e-01
8.000968774e-01,3.12643e-01,9.99999e-01,9.99999e-01,9.44349e-01,9.92527e-01,3.33574e-01,9.99918e-01
8.040973618e-01,3.28392e-01,9.99999e-01,9.99999e-01,9.70625e-01,9.92537e-01,3.40887e-01,9.99935e-01
8.081178486e-01,3.37783e-01,9.99999e-01,9.99999e-01,9.86469e-01,9.83378e-01,3.48211e-01,9.99939e-01
8.121584379e-01,3.30047e-01,9.99999e-01,9.99999e-01,9.95762e-01,9.32394e-01,3.55543e-01,9.99763e-01
8.162192301e-01,3.33039e-01,9.99999e-01,9.99999e-01,9.99062e-01,9.19416e-01,3.62880e-01,9.99111e-01
8.203003262e-01,3.55021e-01,9.99999e-01,9.99999e-01,9.99983e-01,9.59959e-01,3.70219e-01,9.98959e-01
8.244018279e-01,3.55774e-01,9.99999e-01,9.99999e-01,9.99999e-01,9.43083e-01,3.77557e-01,9.99172e-01
8.285238370e-01,3.65952e-01,9.99999e-01,9.99999e-01,9.99999e-01,9.51408e-01,3.84892e-01,9.99349e-01
8.326664562e-01,3.72778e-01,9.99999e-01,9.99999e-01,9.99999e-01,9.50687e-01,3.92220e-01,9.99730e-01
8.368297885e-01,3.85303e-01,9.99999e-01,9.99999e-01,9.99999e-01,9.64429e-01,3.99538e-01,9.99938e-01
8.410139374e-01,3.98165e-01,9.99999e-01,9.99999e-01,9.99999e-01,9.78700e-01,4.06844e-01,9.99963e-01
8.452190071e-01,4.09774e-01,9.99999e-01,9.99999e-01,9.99999e-01,9.89487e-01,4.14136e-01,9.99978e-01
8.494451021e-01,4.18839e-01,9.99999e-01,9.99999e-01,9.99999e-01,9.93913e-01,4.21411e-01,9.99982e-01
8.536923276e-01,4.27110e-01,9.99999e-01,9.99999e-01,9.99999e-01,9.96382e-01,4.28665e-01,9.99988e-01
8.579607893e-01,4.34929e-01,9.99999e-01,9.99999e-01,9.99999e-01,9.97779e-01,4.35898e-01,9.99996e-01
8.622505932e-01,4.42479e-01,9.99999e-01,9.99999e-01,9.99999e-01,9.98585e-01,4.43106e-01,9.99999e-01
8.665618462e-01,4.07196e-01,9.99999e-01,9.99999e-01,9.05052e-01,9.99128e-01,4.50288e-01,9.99999e-01
8.708946554e-01,2.46126e-01,9.99999e-01,9.99999e-01,5.38557e-01,9.99004e-01,4.57441e-01,9.99998e-01
8.752491287e-01,2.79382e-01,9.99999e-01,9.99999e-01,6.02155e-01,9.98666e-01,4.64562e-01,9.99998e-01
8.796253743e-01,3.55107e-01,9.99999e-01,9.99999e-01,7.54227e-01,9.98160e-01,4.71651e-01,9.99995e-01
8.840235012e-01,4.12379e-01,9.99999e-01,9.99999e-01,8.63230e-01,9.97896e-01,4.78704e-01,9.99986e-01
8.884436187e-01,4.54783e-01,9.99999e-01,9.99999e-01,9.43300e-01,9.92504e-01,4.85721e-01,9.99962e-01
8.928858368e-01,4.44120e-01,9.99999e-01,9.99999e-01,9.76695e-01,9.22798e-01,4.92699e-01,9.99788e-01
8.973502660e-01,4.29964e-01,9.99999e-01,9.99999e-01,9.94248e-01,8.66303e-01,4.99636e-01,9.98919e-01
9.018370173e-01,4.69392e-01,9.99999e-01,9.99999e-01,9.99362e-01,9.28817e-01,5.06531e-01,9.98301e-01
9.063462024e-01,4.73791e-01,9.99999e-01,9.99999e-01,9.84466e-01,9.38089e-01,5.13382e-01,9.98508e-01
9.108779334e-01,4.53059e-01,9.99999e-01,9.99999e-01,9.63562e-01,9.04621e-01,5.20188e-01,9.98449e-01
9.154323231e-01,4.65492e-01,9.99999e-01,9.99999e-01,9.91232e-01,8.92057e-01,5.26947e-01,9.98718e-01
9.200094847e-01,4.35999e-01,9.99999e-01,9.99999e-01,8.87800e-01,9.14267e-01,5.33658e-01,9.99282e-01
9.246095321e-01,3.95167e-01,9.99999e-01,9.99999e-01,8.34359e-01,8.73088e-01,5.40319e-01,9.99173e-01
9.292325798e-01,1.96451e-01,9.99999e-01,9.99999e-01,8.69816e-01,4.05804e-01,5.46929e-01,9.96780e-01
9.338787427e-01,1.50477e-01,9.99999e-01,9.99999e-01,8.72133e-01,3.09513e-01,5.53487e-01,9.86759e-01
9.385481364e-01,3.12558e-01,9.99999e-01,9.99999e-01,9.04119e-01,6.21664e-01,5.59992e-01,9.84272e-01
9.432408771e-01,2.77335e-01,9.99999e-01,9.99999e-01,9.39824e-01,5.25493e-01,5.66442e-01,9.86416e-01
9.479570815e-01,2.27704e-01,9.99999e-01,9.99999e-01,9.68763e-01,4.13896e-01,5.72837e-01,9.88931e-01
9.526968669e-01,2.88508e-01,9.99999e-01,9.99999e-01,9.84790e-01,5.08275e-01,5.79176e-01,9.93233e-01
9.574603512e-01,3.07687e-01,9.99999e-01,9.99999e-01,9.93462e-01,5.30474e-01,5.85458e-01,9.96557e-01
9.622476530e-01,3.49923e-01,9.99999e-01,9.99999e-01,9.97954e-01,5.93915e-01,5.91682e-01,9.97617e-01
9.670588912e-01,4.41570e-01,9.99999e-01,9.99999e-01,9.99384e-01,7.40223e-01,5.97847e-01,9.98370e-01
9.718941857e-01,4.99179e-01,9.99999e-01,9.99999e-01,9.99955e-01,8.27544e-01,6.03953e-01,9.98799e-01
9.767536566e-01,5.20810e-01,9.99999e-01,9.99999e-01,9.99999e-01,8.54572e-01,6.09999e-01,9.99082e-01
9.816374249e-01,5.47828e-01,9.99999e-01,9.99999e-01,9.99999e-01,8.89636e-01,6.15983e-01,9.99682e-01
9.865456120e-01,5.78002e-01,9.99999e-01,9.99999e-01,9.99999e-01,9.29462e-01,6.21907e-01,9.99933e-01
9.914783401e-01,6.00012e-01,9.99999e-01,9.99999e-01,9.99999e-01,9.55801e-01,6.27769e-01,9.99981e-01
9.964357318e-01,6.18152e-01,9.99999e-01,9.99999e-01,9.99999e-01,9.75676e-01,6.33569e-01,9.99988e-01
1.001417910e+00,6.29928e-01,9.99999e-01,9.99999e-01,9.99999e-01,9.85346e-01,6.39306e-01,9.99983e-01
1.006425000e+00,6.39574e-01,9.99999e-01,9.99999e-01,9.99999e-01,9.91640e-01,6.44981e-01,9.99976e-01
1.011457125e+00,6.47187e-01,9.99999e-01,9.99999e-01,9.99999e-01,9.94788e-01,6.50592e-01,9.99977e-01
1.016514411e+00,6.53811e-01,9.99999e-01,9.99999e-01,9.99999e-01,9.96465e-01,6.56140e-01,9.99984e-01
1.021596983e+00,6.59702e-01,9.99999e-01,9.99999e-01,9.99924e-01,9.97184e-01,6.61624e-01,9.99984e-01
1.026704968e+00,6.61525e-01,9.99999e-01,9.99999e-01,9.93912e-01,9.97805e-01,6.67044e-01,9.99989e-01
1.031838492e+00,6.32188e-01,9.99999e-01,9.99999e-01,9.41649e-01,9.98400e-01,6.72400e-01,9.99996e-01
1.036997685e+00,6.59635e-02,9.99999e-01,9.99999e-01,9.74065e-02,9.99052e-01,6.77692e-01,9.99999e-01
1.042182673e+00,2.35983e-02,9.99999e-01,9.99999e-01,3.45876e-02,9.98874e-01,6.82920e-01,9.99999e-01
1.047393587e+00,3.92214e-02,9.99999e-01,9.99999e-01,5.70745e-02,9.98504e-01,6.88084e-01,9.99999e-01
1.052630555e+00,1.63972e-04,9.99999e-01,9.99999e-01,2.36882e-04,9.97951e-01,6.93184e-01,9.99998e-01
1.057893707e+00,5.19160e-04,9.99999e-01,9.99999e-01,7.45063e-04,9.96587e-01,6.98220e-01,9.99998e-01
1.063183176e+00,3.29609e-03,9.99999e-01,9.99999e-01,4.70451e-03,9.94382e-01,7.03192e-01,9.99996e-01
1.068499092e+00,1.50067e-02,9.99999e-01,9.99999e-01,2.13483e-02,9.90595e-01,7.08100e-01,9.99993e-01
1.073841587e+00,6.09246e-02,9.99999e-01,9.99999e-01,8.62103e-02,9.89027e-01,7.12944e-01,9.99985e-01
