#,Wave/freq,Total,N2,O2,CO2,H2O,Rayleigh,CIA
4.000000000e-01,6.10195e-16,9.99999e-01,9.99999e-01,9.99999e-01,9.99932e-01,6.10236e-16,9.99999e-01
4.020000000e-01,1.21985e-15,9.99999e-01,9.99999e-01,9.99999e-01,9.99957e-01,1.21990e-15,9.99999e-01
4.040100000e-01,2.40381e-15,9.99999e-01,9.99999e-01,9.99999e-01,9.99981e-01,2.40385e-15,9.99999e-01
4.060300500e-01,4.67379e-15,9.99999e-01,9.99999e-01,9.99999e-01,9.99995e-01,4.67381e-15,9.99999e-01
4.080602003e-01,8.96871e-15,9.99999e-01,9.99999e-01,9.99999e-01,9.99998e-01,8.96872e-15,9.99999e-01
4.101005013e-01,1.69902e-14,9.99999e-01,9.99999e-01,9.99999e-01,9.99999e-01,1.69902e-14,9.99999e-01
4.121510038e-01,3.17823e-14,9.99999e-01,9.99999e-01,9.99999e-01,9.99997e-01,3.17824e-14,9.99999e-01
4.142117588e-01,5.87210e-14,9.99999e-01,9.99999e-01,9.99999e-01,9.99980e-01,5.87221e-14,9.99999e-01
4.162828176e-01,1.07180e-13,9.99999e-01,9.99999e-01,9.99999e-01,9.99916e-01,1.07189e-13,9.99999e-01
4.183642317e-01,1.93337e-13,9.99999e-01,9.99999e-01,9.99999e-01,9.99949e-01,1.93347e-13,9.99999e-01
4.204560528e-01,3.44707e-13,9.99999e-01,9.99999e-01,9.99999e-01,9.99969e-01,3.44718e-13,9.99999e-01
4.225583331e-01,6.07610e-13,9.99999e-01,9.99999e-01,9.99999e-01,9.99988e-01,6.07617e-13,9.99999e-01
4.246711247e-01,1.05908e-12,9.99999e-01,9.99999e-01,9.99999e-01,9.99990e-01,1.05909e-12,9.99999e-01
4.267944804e-01,1.82585e-12,9.99999e-01,9.99999e-01,9.99999e-01,9.99986e-01,1.82587e-12,9.99999e-01
4.289284528e-01,3.11409e-12,9.99999e-01,9.99999e-01,9.99999e-01,9.99989e-01,3.11412e-12,9.99999e-01
4.310730950e-01,5.25556e-12,9.99999e-01,9.99999e-01,9.99999e-01,9.99995e-01,5.25558e-12,9.99999e-01
4.332284605e-01,8.77841e-12,9.99999e-01,9.99999e-01,9.99999e-01,9.99998e-01,8.77842e-12,9.99999e-01
4.353946028e-01,1.45148e-11,9.99999e-01,9.99999e-01,9.99999e-01,9.99999e-01,1.45148e-11,9.99999e-01
4.375715758e-01,2.37623e-11,9.99999e-01,9.99999e-01,9.99999e-01,9.99991e-01,2.37625e-11,9.99999e-01
4.397594337e-01,3.85224e-11,9.99999e-01,9.99999e-01,9.99999e-01,9.99925e-01,3.85252e-11,9.99999e-01
4.419582309e-01,6.18427e-11,9.99999e-01,9.99999e-01,9.99999e-01,9.99623e-01,6.18660e-11,9.99999e-01
4.441680220e-01,9.83945e-11,9.99999e-01,9.99999e-01,9.99999e-01,9.99710e-01,9.84229e-11,9.99999e-01
4.463888621e-01,1.55105e-10,9.99999e-01,9.99999e-01,9.99999e-01,9.99697e-01,1.55152e-10,9.99999e-01
4.486208064e-01,2.42344e-10,9.99999e-01,9.99999e-01,9.99999e-01,9.99812e-01,2.42390e-10,9.99999e-01
4.508639105e-01,3.75324e-10,9.99999e-01,9.99999e-01,9.99999e-01,9.99911e-01,3.75357e-10,9.99999e-01
4.531182300e-01,5.76245e-10,9.99999e-01,9.99999e-01,9.99999e-01,9.99964e-01,5.76265e-10,9.99999e-01
4.553838212e-01,8.77228e-10,9.99999e-01,9.99999e-01,9.99999e-01,9.99975e-01,8.77249e-10,9.99999e-01
4.576607403e-01,1.32438e-09,9.99999e-01,9.99999e-01,9.99999e-01,9.99988e-01,1.32440e-09,9.99999e-01
4.599490440e-01,1.98325e-09,9.99999e-01,9.99999e-01,9.99999e-01,9.99991e-01,1.98326e-09,9.99999e-01
4.622487892e-01,2.94631e-09,9.99999e-01,9.99999e-01,9.99999e-01,9.99998e-01,2.94631e-09,9.99999e-01
4.645600332e-01,4.34290e-09,9.99999e-01,9.99999e-01,9.99999e-01,9.99994e-01,4.34292e-09,9.99999e-01
4.668828333e-01,6.35210e-09,9.99999e-01,9.99999e-01,9.99999e-01,9.99910e-01,6.35267e-09,9.99999e-01
4.692172475e-01,9.22117e-09,9.99999e-01,9.99999e-01,9.99999e-01,9.99810e-01,9.22291e-09,9.99999e-01
4.715633337e-01,1.32901e-08,9.99999e-01,9.99999e-01,9.99999e-01,9.99875e-01,1.32917e-08,9.99999e-01
4.739211504e-01,1.90156e-08,9.99999e-01,9.99999e-01,9.99999e-01,9.99881e-01,1.90178e-08,9.99999e-01
4.762907561e-01,2.70172e-08,9.99999e-01,9.99999e-01,9.99999e-01,9.99938e-01,2.70188e-08,9.99999e-01
4.786722099e-01,3.81196e-08,9.99999e-01,9.99999e-01,9.99999e-01,9.99974e-01,3.81206e-08,9.99999e-01
4.810655710e-01,5.34191e-08,9.99999e-01,9.99999e-01,9.99999e-01,9.99991e-01,5.34195e-08,9.99999e-01
4.834708988e-01,7.43557e-08,9.99999e-01,9.99999e-01,9.99999e-01,9.99925e-01,7.43612e-08,9.99999e-01
4.858882533e-01,1.02824e-07,9.99999e-01,9.99999e-01,9.99999e-01,9.99865e-01,1.02838e-07,9.99999e-01
4.883176946e-01,1.41297e-07,9.99999e-01,9.99999e-01,9.99999e-01,9.99886e-01,1.41313e-07,9.99999e-01
4.907592831e-01,1.92947e-07,9.99999e-01,9.99999e-01,9.99999e-01,9.99898e-01,1.92967e-07,9.99999e-01
4.932130795e-01,2.61867e-07,9.99999e-01,9.99999e-01,9.99999e-01,9.99927e-01,2.61885e-07,9.99999e-01
4.956791449e-01,3.53267e-07,9.99999e-01,9.99999e-01,9.99999e-01,9.99961e-01,3.53281e-07,9.99999e-01
4.981575406e-01,4.73672e-07,9.99999e-01,9.99999e-01,9.99999e-01,9.99808e-01,4.73762e-07,9.99999e-01
5.006483283e-01,6.31344e-07,9.99999e-01,9.99999e-01,9.99999e-01,9.99501e-01,6.31661e-07,9.99996e-01
5.031515699e-01,8.35291e-07,9.99999e-01,9.99999e-01,9.99999e-01,9.97492e-01,8.37413e-07,9.99973e-01
5.056673278e-01,1.10253e-06,9.99999e-01,9.99999e-01,9.99999e-01,9.98679e-01,1.10402e-06,9.99969e-01
5.081956644e-01,1.44514e-06,9.99999e-01,9.99999e-01,9.99999e-01,9.98334e-01,1.44758e-06,9.99981e-01
5.107366428e-01,1.88580e-06,9.99999e-01,9.99999e-01,9.99999e-01,9.98875e-01,1.88792e-06,9.99996e-01
5.132903260e-01,2.44776e-06,9.99999e-01,9.99999e-01,9.99999e-01,9.99358e-01,2.44933e-06,9.99999e-01
5.158567776e-01,3.16053e-06,9.99999e-01,9.99999e-01,9.99999e-01,9.99728e-01,3.16139e-06,9.99999e-01
5.184360615e-01,4.05949e-06,9.99999e-01,9.99999e-01,9.99999e-01,9.99891e-01,4.05993e-06,9.99999e-01
5.210282418e-01,5.18796e-06,9.99999e-01,9.99999e-01,9.99999e-01,9.99958e-01,5.18817e-06,9.99999e-01
5.236333830e-01,6.59681e-06,9.99999e-01,9.99999e-01,9.99999e-01,9.99836e-01,6.59790e-06,9.99998e-01
5.262515499e-01,8.35007e-06,9.99999e-01,9.99999e-01,9.99999e-01,9.99897e-01,8.35094e-06,9.99997e-01
5.288828077e-01,1.05197e-05,9.99999e-01,9.99999e-01,9.99999e-01,9.99905e-01,1.05207e-05,9.99998e-01
5.315272217e-01,1.31927e-05,9.99999e-01,9.99999e-01,9.99999e-01,9.99917e-01,1.31938e-05,9.99999e-01
5.341848578e-01,1.64714e-05,9.99999e-01,9.99999e-01,9.99999e-01,9.99945e-01,1.64723e-05,9.99999e-01
5.368557821e-01,2.04717e-05,9.99999e-01,9.99999e-01,9.99999e-01,9.99808e-01,2.04756e-05,9.99999e-01
5.395400610e-01,2.53249e-05,9.99999e-01,9.99999e-01,9.99999e-01,9.99307e-01,2.53426e-05,9.99993e-01
5.422377613e-01,3.12065e-05,9.99999e-01,9.99999e-01,9.99999e-01,9.99114e-01,3.12346e-05,9.99983e-01
5.449489501e-01,3.83055e-05,9.99999e-01,9.99999e-01,9.99999e-01,9.99172e-01,3.83379e-05,9.99982e-01
5.476736949e-01,4.68320e-05,9.99999e-01,9.99999e-01,9.99999e-01,9.99271e-01,4.68665e-05,9.99991e-01
5.504120634e-01,5.70352e-05,9.99999e-01,9.99999e-01,9.99999e-01,9.99470e-01,5.70655e-05,9.99997e-01
5.531641237e-01,6.91959e-05,9.99999e-01,9.99999e-01,9.99999e-01,9.99733e-01,6.92143e-05,9.99999e-01
5.559299443e-01,8.36193e-05,9.99999e-01,9.99999e-01,9.99999e-01,9.99871e-01,8.36301e-05,9.99999e-01
5.587095940e-01,1.00663e-04,9.99999e-01,9.99999e-01,9.99999e-01,9.99918e-01,1.00671e-04,9.99999e-01
5.615031420e-01,1.20731e-04,9.99999e-01,9.99999e-01,9.99999e-01,9.99909e-01,1.20742e-04,9.99999e-01
5.643106577e-01,1.44280e-04,9.99999e-01,9.99999e-01,9.99999e-01,9.99896e-01,1.44295e-04,9.99998e-01
5.671322110e-01,1.71619e-04,9.99999e-01,9.99999e-01,9.99999e-01,9.98743e-01,1.71837e-04,9.99988e-01
5.699678720e-01,2.03656e-04,9.99999e-01,9.99999e-01,9.99999e-01,9.98691e-01,2.03930e-04,9.99965e-01
5.728177114e-01,2.40862e-04,9.99999e-01,9.99999e-01,9.99999e-01,9.98625e-01,2.41201e-04,9.99971e-01
5.756818000e-01,2.83976e-04,9.99999e-01,9.99999e-01,9.99999e-01,9.98740e-01,2.84338e-04,9.99983e-01
5.785602090e-01,3.33736e-04,9.99999e-01,9.99999e-01,9.99999e-01,9.98903e-01,3.34103e-04,9.99994e-01
5.814530100e-01,3.90897e-04,9.99999e-01,9.99999e-01,9.99999e-01,9.98897e-01,3.91330e-04,9.99997e-01
5.843602750e-01,4.56322e-04,9.99999e-01,9.99999e-01,9.99999e-01,9.98678e-01,4.56929e-04,9.99992e-01
5.872820764e-01,5.25831e-04,9.99999e-01,9.99999e-01,9.99999e-01,9.88679e-01,5.31894e-04,9.99919e-01
5.902184868e-01,6.08759e-04,9.99999e-01,9.99999e-01,9.99999e-01,9.86373e-01,6.17302e-04,9.99782e-01
5.931695792e-01,7.07275e-04,9.99999e-01,9.99999e-01,9.99999e-01,9.90342e-01,7.14321e-04,9.99791e-01
5.961354271e-01,8.15398e-04,9.99999e-01,9.99999e-01,9.99999e-01,9.89429e-01,8.24208e-04,9.99879e-01
5.991161043e-01,9.40965e-04,9.99999e-01,9.99999e-01,9.99999e-01,9.92285e-01,9.48315e-04,9.99962e-01
6.021116848e-01,1.08332e-03,9.99999e-01,9.99999e-01,9.99999e-01,9.95619e-01,1.08809e-03,9.99995e-01
6.051222432e-01,1.24232e-03,9.99999e-01,9.99999e-01,9.99999e-01,9.97782e-01,1.24508e-03,9.99999e-01
6.081478544e-01,1.41958e-03,9.99999e-01,9.99999e-01,9.99999e-01,9.99042e-01,1.42094e-03,9.99999e-01
6.111885937e-01,1.61675e-03,9.99999e-01,9.99999e-01,9.99999e-01,9.99595e-01,1.61741e-03,9.99999e-01
6.142445367e-01,1.83600e-03,9.99999e-01,9.99999e-01,9.99999e-01,9.99818e-01,1.83634e-03,9.99999e-01
6.173157594e-01,2.07947e-03,9.99999e-01,9.99999e-01,9.99999e-01,9.99899e-01,2.07968e-03,9.99999e-01
6.204023382e-01,2.34928e-03,9.99999e-01,9.99999e-01,9.99999e-01,9.99914e-01,2.34948e-03,9.99999e-01
6.235043498e-01,2.64690e-03,9.99999e-01,9.99999e-01,9.99999e-01,9.99622e-01,2.64790e-03,9.99998e-01
6.266218716e-01,2.97127e-03,9.99999e-01,9.99999e-01,9.99999e-01,9.98025e-01,2.97719e-03,9.99985e-01
6.297549810e-01,3.33717e-03,9.99999e-01,9.99999e-01,9.99999e-01,9.99275e-01,3.33968e-03,9.99971e-01
6.329037559e-01,3.73239e-03,9.99999e-01,9.99999e-01,9.99999e-01,9.98571e-01,3.73781e-03,9.99977e-01
6.360682746e-01,4.16896e-03,9.99999e-01,9.99999e-01,9.99999e-01,9.98779e-01,4.17411e-03,9.99986e-01
6.392486160e-01,4.64382e-03,9.99999e-01,9.99999e-01,9.99999e-01,9.98420e-01,4.65119e-03,9.99993e-01
6.424448591e-01,5.16068e-03,9.99999e-01,9.99999e-01,9.99999e-01,9.97874e-01,5.17172e-03,9.99989e-01
6.456570834e-01,5.68173e-03,9.99999e-01,9.99999e-01,9.99999e-01,9.90170e-01,5.73848e-03,9.99940e-01
6.488853688e-01,6.30791e-03,9.99999e-01,9.99999e-01,9.99999e-01,9.92854e-01,6.35427e-03,9.99847e-01
6.521297956e-01,6.97001e-03,9.99999e-01,9.99999e-01,9.99999e-01,9.92719e-01,7.02200e-03,9.99874e-01
6.553904446e-01,7.68751e-03,9.99999e-01,9.99999e-01,9.99999e-01,9.92721e-01,7.74459e-03,9.99906e-01
6.586673968e-01,8.47179e-03,9.99999e-01,9.99999e-01,9.99999e-01,9.93785e-01,8.52503e-03,9.99968e-01
6.619607338e-01,9.33381e-03,9.99999e-01,9.99999e-01,9.99999e-01,9.96532e-01,9.36634e-03,9.99992e-01
6.652705375e-01,1.02501e-02,9.99999e-01,9.99999e-01,9.99999e-01,9.97917e-01,1.02716e-02,9.99996e-01
6.685968902e-01,1.12338e-02,9.99999e-01,9.99999e-01,9.99999e-01,9.99115e-01,1.12438e-02,9.99998e-01
6.719398746e-01,1.22805e-02,9.99999e-01,9.99999e-01,9.99999e-01,9.99551e-01,1.22860e-02,9.99999e-01
6.752995740e-01,1.33982e-02,9.99999e-01,9.99999e-01,9.99999e-01,9.99763e-01,1.34014e-02,9.99999e-01
6.786760719e-01,1.45878e-02,9.99999e-01,9.99999e-01,9.99999e-01,9.99645e-01,1.45930e-02,9.99999e-01
6.820694522e-01,1.58541e-02,9.99999e-01,9.99999e-01,9.99999e-01,9.99396e-01,1.58638e-02,9.99996e-01
6.854797995e-01,1.72033e-02,9.99999e-01,9.99999e-01,9.99999e-01,9.99221e-01,1.72168e-02,9.99992e-01
6.889071985e-01,1.86193e-02,9.99999e-01,9.99999e-01,9.99999e-01,9.98097e-01,1.86551e-02,9.99982e-01
6.923517345e-01,1.95654e-02,9.99999e-01,9.99999e-01,9.99999e-01,9.69614e-01,2.01815e-02,9.99852e-01
6.958134932e-01,2.14505e-02,9.99999e-01,9.99999e-01,9.99999e-01,9.84337e-01,2.17989e-02,9.99673e-01
6.992925606e-01,2.31475e-02,9.99999e-01,9.99999e-01,9.99999e-01,9.84865e-01,2.35101e-02,9.99706e-01
7.027890234e-01,2.48427e-02,9.99999e-01,9.99999e-01,9.99999e-01,9.81452e-01,2.53178e-02,9.99775e-01
7.063029686e-01,2.67960e-02,9.99999e-01,9.99999e-01,9.99999e-01,9.84366e-01,2.72246e-02,9.99888e-01
7.098344834e-01,2.87926e-02,9.99999e-01,9.99999e-01,9.99999e-01,9.84993e-01,2.92331e-02,9.99933e-01
7.133836558e-01,3.07118e-02,9.99999e-01,9.99999e-01,9.99999e-01,9.79904e-01,3.13457e-02,9.99868e-01
7.169505741e-01,2.85490e-02,9.99999e-01,9.99999e-01,9.99999e-01,8.51444e-01,3.35647e-02,9.98968e-01
7.205353270e-01,3.31404e-02,9.99999e-01,9.99999e-01,9.99999e-01,9.25013e-01,3.58922e-02,9.98181e-01
7.241380036e-01,3.46166e-02,9.99999e-01,9.99999e-01,9.99999e-01,9.04532e-01,3.83303e-02,9.98429e-01
7.277586936e-01,3.72978e-02,9.99999e-01,9.99999e-01,9.99999e-01,9.13525e-01,4.08809e-02,9.98715e-01
7.313974871e-01,3.95352e-02,9.99999e-01,9.99999e-01,9.99999e-01,9.08443e-01,4.35458e-02,9.99398e-01
7.350544745e-01,4.39435e-02,9.99999e-01,9.99999e-01,9.99999e-01,9.48756e-01,4.63266e-02,9.99790e-01
7.387297469e-01,4.73496e-02,9.99999e-01,9.99999e-01,9.99999e-01,9.61996e-01,4.92248e-02,9.99903e-01
7.424233956e-01,5.12609e-02,9.99999e-01,9.99999e-01,9.99999e-01,9.81242e-01,5.22416e-02,9.99982e-01
7.461355126e-01,5.47455e-02,9.99999e-01,9.99999e-01,9.99999e-01,9.88577e-01,5.53782e-02,9.99996e-01
7.498661902e-01,5.83235e-02,9.99999e-01,9.99999e-01,9.99999e-01,9.94677e-01,5.86356e-02,9.99998e-01
7.536155211e-01,6.18520e-02,9.99999e-01,9.99999e-01,9.99999e-01,9.97380e-01,6.20145e-02,9.99998e-01
7.573835987e-01,6.54272e-02,9.99999e-01,9.99999e-01,9.99999e-01,9.98651e-01,6.55155e-02,9.99999e-01
7.611705167e-01,6.90813e-02,9.99999e-01,9.99999e-01,9.99999e-01,9.99161e-01,6.91392e-02,9.99999e-01
7.649763693e-01,7.28474e-02,9.99999e-01,9.99999e-01,9.99999e-01,9.99473e-01,7.28858e-02,9.99999e-01
7.688012511e-01,7.67271e-02,9.99999e-01,9.99999e-01,9.99999e-01,9.99633e-01,7.67553e-02,9.99999e-01
7.726452574e-01,8.07233e-02,9.99999e-01,9.99999e-01,9.99999e-01,9.99697e-01,8.07477e-02,9.99999e-01
7.765084837e-01,8.48261e-02,9.99999e-01,9.99999e-01,9.99999e-01,9.99568e-01,8.48627e-02,9.99998e-01
7.803910261e-01,8.06548e-02,9.99999e-01,9.99999e-01,9.06766e-01,9.98134e-01,8.91000e-02,9.99997e-01
7.842929812e-01,5.80318e-02,9.99999e-01,9.99999e-01,6.24489e-01,9.93502e-01,9.34588e-02,9.99987e-01
7.882144461e-01,5.87674e-02,9.99999e-01,9.99999e-01,6.07308e-01,9.86735e-01,9.79384e-02,9.99908e-01
7.921555184e-01,7.48307e-02,9.99999e-01,9.99999e-01,7.34871e-01,9.92735e-01,1.02538e-01,9.99840e-01
7.961162960e-01,8.60329e-02,9.99999e-01,9.99999e-01,8.12446e-01,9.87088e-01,1.07256e-01,9.99848e-01
8.000968774e-01,9.86338e-02,9.99999e-01,9.99999e-01,8.93221e-01,9.85152e-01,1.12092e-01,9.99838e-01
8.040973618e-01,1.08756e-01,9.99999e-01,9.99999e-01,9.43242e-01,9.85136e-01,1.17043e-01,9.99876e-01
8.081178486e-01,1.14912e-01,9.99999e-01,9.99999e-01,9.73425e-01,9.66719e-01,1.22109e-01,9.99875e-01
8.121584379e-01,1.09714e-01,9.99999e-01,9.99999e-01,9.91778e-01,8.69263e-01,1.27288e-01,9.99528e-01
8.162192301e-01,1.12046e-01,9.99999e-01,9.99999e-01,9.98178e-01,8.48085e-01,1.32578e-01,9.98230e-01
8.203003262e-01,1.26887e-01,9.99999e-01,9.99999e-01,9.99974e-01,9.21557e-01,1.37976e-01,9.97928e-01
8.244018279e-01,1.28160e-01,9.99999e-01,9.99999e-01,9.99999e-01,8.94695e-01,1.43481e-01,9.98350e-01
8.285238370e-01,1.34832e-01,9.99999e-01,9.99999e-01,9.99999e-01,9.05535e-01,1.49091e-01,9.98704e-01
8.326664562e-01,1.40017e-01,9.99999e-01,9.99999e-01,9.99999e-01,9.04973e-01,1.54802e-01,9.99463e-01
8.368297885e-01,1.49504e-01,9.99999e-01,9.99999e-01,9.99999e-01,9.30949e-01,1.60613e-01,9.99877e-01
8.410139374e-01,1.59574e-01,9.99999e-01,9.99999e-01,9.99999e-01,9.58352e-01,1.66521e-01,9.99927e-01
8.452190071e-01,1.68955e-01,9.99999e-01,9.99999e-01,9.99999e-01,9.79362e-01,1.72523e-01,9.99956e-01
8.494451021e-01,1.76456e-01,9.99999e-01,9.99999e-01,9.99999e-01,9.87939e-01,1.78616e-01,9.99965e-01
8.536923276e-01,1.83476e-01,9.99999e-01,9.99999e-01,9.99999e-01,9.92868e-01,1.84798e-01,9.99978e-01
8.579607893e-01,1.90222e-01,9.99999e-01,9.99999e-01,9.99999e-01,9.95593e-01,1.91065e-01,9.99994e-01
8.622505932e-01,1.96863e-01,9.99999e-01,9.99999e-01,9.99999e-01,9.97203e-01,1.97415e-01,9.99998e-01
8.665618462e-01,1.75425e-01,9.99999e-01,9.99999e-01,8.61980e-01,9.98264e-01,2.03844e-01,9.99999e-01
8.708946554e-01,6.58660e-02,9.99999e-01,9.99999e-01,3.13696e-01,9.98010e-01,2.10349e-01,9.99998e-01
8.752491287e-01,8.23284e-02,9.99999e-01,9.99999e-01,3.80460e-01,9.97340e-01,2.16927e-01,9.99996e-01
8.796253743e-01,1.29320e-01,9.99999e-01,9.99999e-01,5.80386e-01,9.96310e-01,2.23575e-01,9.99991e-01
8.840235012e-01,1.72003e-01,9.99999e-01,9.99999e-01,7.49925e-01,9.95788e-01,2.30290e-01,9.99973e-01
8.884436187e-01,2.08376e-01,9.99999e-01,9.99999e-01,8.92375e-01,9.84579e-01,2.37067e-01,9.99926e-01
8.928858368e-01,1.98442e-01,9.99999e-01,9.99999e-01,9.54711e-01,8.51432e-01,2.43904e-01,9.99579e-01
8.973502660e-01,1.86919e-01,9.99999e-01,9.99999e-01,9.88851e-01,7.54784e-01,2.50797e-01,9.97847e-01
9.018370173e-01,2.22451e-01,9.99999e-01,9.99999e-01,9.98767e-01,8.66965e-01,2.57743e-01,9.96618e-01
9.063462024e-01,2.25758e-01,9.99999e-01,9.99999e-01,9.68652e-01,8.80217e-01,2.64739e-01,9.97028e-01
9.108779334e-01,2.07155e-01,9.99999e-01,9.99999e-01,9.29482e-01,8.20330e-01,2.71781e-01,9.96912e-01
9.154323231e-01,2.18513e-01,9.99999e-01,9.99999e-01,9.83103e-01,7.98189e-01,2.78865e-01,9.97447e-01
9.200094847e-01,1.97162e-01,9.99999e-01,9.99999e-01,8.03511e-01,8.38902e-01,2.85989e-01,9.98570e-01
9.246095321e-01,1.59160e-01,9.99999e-01,9.99999e-01,7.00563e-01,7.64086e-01,2.93149e-01,9.98352e-01
9.292325798e-01,4.50695e-02,9.99999e-01,9.99999e-01,7.59217e-01,1.87339e-01,3.00341e-01,9.92074e-01
9.338787427e-01,2.80873e-02,9.99999e-01,9.99999e-01,7.64959e-01,1.16177e-01,3.07562e-01,9.71646e-01
9.385481364e-01,1.06927e-01,9.99999e-01,9.99999e-01,8.19831e-01,4.15935e-01,3.14809e-01,9.68892e-01
9.432408771e-01,8.65102e-02,9.99999e-01,9.99999e-01,8.85057e-01,3.06905e-01,3.22079e-01,9.73105e-01
9.479570815e-01,5.95946e-02,9.99999e-01,9.99999e-01,9.39119e-01,1.95406e-01,3.29368e-01,9.78055e-01
9.526968669e-01,9.16876e-02,9.99999e-01,9.99999e-01,9.70246e-01,2.82869e-01,3.36673e-01,9.86557e-01
9.574603512e-01,1.01367e-01,9.99999e-01,9.99999e-01,9.87162e-01,2.99879e-01,3.43991e-01,9.93148e-01
9.622476530e-01,1.28784e-01,9.99999e-01,9.99999e-01,9.95980e-01,3.69556e-01,3.51318e-01,9.95257e-01
9.670588912e-01,1.99885e-01,9.99999e-01,9.99999e-01,9.98796e-01,5.59707e-01,3.58653e-01,9.96754e-01
9.718941857e-01,2.51435e-01,9.99999e-01,9.99999e-01,9.99916e-01,6.88688e-01,3.65991e-01,9.97609e-01
9.767536566e-01,2.73262e-01,9.99999e-01,9.99999e-01,9.99999e-01,7.33297e-01,3.73330e-01,9.98172e-01
9.816374249e-01,3.02071e-01,9.99999e-01,9.99999e-01,9.99999e-01,7.94031e-01,3.80667e-01,9.99366e-01
9.865456120e-01,3.35751e-01,9.99999e-01,9.99999e-01,9.99999e-01,8.65452e-01,3.87999e-01,9.99867e-01
9.914783401e-01,3.61446e-01,9.99999e-01,9.99999e-01,9.99999e-01,9.14337e-01,3.95323e-01,9.99962e-01
9.964357318e-01,3.83464e-01,9.99999e-01,9.99999e-01,9.99999e-01,9.52402e-01,4.02637e-01,9.99978e-01
1.001417910e+00,3.98113e-01,9.99999e-01,9.99999e-01,9.99999e-01,9.71187e-01,4.09937e-01,9.99966e-01
1.006425000e+00,4.10296e-01,9.99999e-01,9.99999e-01,9.99999e-01,9.83444e-01,4.17222e-01,9.99953e-01
1.011457125e+00,4.20104e-01,9.99999e-01,9.99999e-01,9.99999e-01,9.89712e-01,4.24488e-01,9.99956e-01
1.016514411e+00,4.28698e-01,9.99999e-01,9.99999e-01,9.99999e-01,9.92997e-01,4.31734e-01,9.99969e-01
1.021596983e+00,4.36410e-01,9.99999e-01,9.99999e-01,9.99811e-01,9.94413e-01,4.38957e-01,9.99969e-01
1.026704968e+00,4.38633e-01,9.99999e-01,9.99999e-01,9.87447e-01,9.95639e-01,4.46154e-01,9.99980e-01
1.031838492e+00,4.05908e-01,9.99999e-01,9.99999e-01,8.98086e-01,9.96833e-01,4.53324e-01,9.99993e-01
1.036997685e+00,2.15741e-02,9.99999e-01,9.99999e-01,4.69196e-02,9.98115e-01,4.60463e-01,9.99998e-01
1.042182673e+00,1.25426e-03,9.99999e-01,9.99999e-01,2.68710e-03,9.97747e-01,4.67571e-01,9.99999e-01
1.047393587e+00,3.31353e-03,9.99999e-01,9.99999e-01,6.99833e-03,9.97017e-01,4.74645e-01,9.99998e-01
1.052630555e+00,2.54946e-07,9.99999e-01,9.99999e-01,5.30643e-07,9.95905e-01,4.81683e-01,9.99998e-01
1.057893707e+00,9.76504e-07,9.99999e-01,9.99999e-01,2.00526e-06,9.93165e-01,4.88684e-01,9.99997e-01
1.063183176e+00,3.04386e-05,9.99999e-01,9.99999e-01,6.18079e-05,9.88787e-01,4.95645e-01,9.99993e-01
1.068499092e+00,3.28781e-04,9.99999e-01,9.99999e-01,6.62279e-04,9.81317e-01,5.02564e-01,9.99986e-01
1.073841587e+00,4.46474e-03,9.99999e-01,9.99999e-01,8.90289e-03,9.78160e-01,5.09441e-01,9.99971e-01
