#,Wave/freq,Total,N2,O2,CO2,H2O,Rayleigh,CIA
4.000000000e-01,4.31349e-16,9.99999e-01,9.99999e-01,9.99999e-01,9.99931e-01,4.31379e-16,9.99999e-01
4.020000000e-01,8.68274e-16,9.99999e-01,9.99999e-01,9.99999e-01,9.99957e-01,8.68311e-16,9.99999e-01
4.040100000e-01,1.72253e-15,9.99999e-01,9.99999e-01,9.99999e-01,9.99981e-01,1.72256e-15,9.99999e-01
4.060300500e-01,3.37128e-15,9.99999e-01,9.99999e-01,9.99999e-01,9.99995e-01,3.37129e-15,9.99999e-01
4.080602003e-01,6.51114e-15,9.99999e-01,9.99999e-01,9.99999e-01,9.99998e-01,6.51115e-15,9.99999e-01
4.101005013e-01,1.24129e-14,9.99999e-01,9.99999e-01,9.99999e-01,9.99999e-01,1.24129e-14,9.99999e-01
4.121510038e-01,2.33643e-14,9.99999e-01,9.99999e-01,9.99999e-01,9.99997e-01,2.33644e-14,9.99999e-01
4.142117588e-01,4.34311e-14,9.99999e-01,9.99999e-01,9.99999e-01,9.99980e-01,4.34319e-14,9.99999e-01
4.162828176e-01,7.97459e-14,9.99999e-01,9.99999e-01,9.99999e-01,9.99915e-01,7.97526e-14,9.99999e-01
4.183642317e-01,1.44693e-13,9.99999e-01,9.99999e-01,9.99999e-01,9.99949e-01,1.44700e-13,9.99999e-01
4.204560528e-01,2.59458e-13,9.99999e-01,9.99999e-01,9.99999e-01,9.99968e-01,2.59466e-13,9.99999e-01
4.225583331e-01,4.59916e-13,9.99999e-01,9.99999e-01,9.99999e-01,9.99987e-01,4.59921e-13,9.99999e-01
4.246711247e-01,8.06069e-13,9.99999e-01,9.99999e-01,9.99999e-01,9.99990e-01,8.06076e-13,9.99999e-01
4.267944804e-01,1.39717e-12,9.99999e-01,9.99999e-01,9.99999e-01,9.99985e-01,1.39719e-12,9.99999e-01
4.289284528e-01,2.39558e-12,9.99999e-01,9.99999e-01,9.99999e-01,9.99989e-01,2.39561e-12,9.99999e-01
4.310730950e-01,4.06396e-12,9.99999e-01,9.99999e-01,9.99999e-01,9.99995e-01,4.06398e-12,9.99999e-01
4.332284605e-01,6.82263e-12,9.99999e-01,9.99999e-01,9.99999e-01,9.99998e-01,6.82264e-12,9.99999e-01
4.353946028e-01,1.13373e-11,9.99999e-01,9.99999e-01,9.99999e-01,9.99999e-01,1.13373e-11,9.99999e-01
4.375715758e-01,1.86512e-11,9.99999e-01,9.99999e-01,9.99999e-01,9.99991e-01,1.86513e-11,9.99999e-01
4.397594337e-01,3.03814e-11,9.99999e-01,9.99999e-01,9.99999e-01,9.99926e-01,3.03837e-11,9.99999e-01
4.419582309e-01,4.90030e-11,9.99999e-01,9.99999e-01,9.99999e-01,9.99627e-01,4.90212e-11,9.99999e-01
4.441680220e-01,7.83243e-11,9.99999e-01,9.99999e-01,9.99999e-01,9.99704e-01,7.83474e-11,9.99999e-01
4.463888621e-01,1.24025e-10,9.99999e-01,9.99999e-01,9.99999e-01,9.99694e-01,1.24063e-10,9.99999e-01
4.486208064e-01,1.94641e-10,9.99999e-01,9.99999e-01,9.99999e-01,9.99809e-01,1.94678e-10,9.99999e-01
4.508639105e-01,3.02753e-10,9.99999e-01,9.99999e-01,9.99999e-01,9.99910e-01,3.02780e-10,9.99999e-01
4.531182300e-01,4.66803e-10,9.99999e-01,9.99999e-01,9.99999e-01,9.99964e-01,4.66820e-10,9.99999e-01
4.553838212e-01,7.13586e-10,9.99999e-01,9.99999e-01,9.99999e-01,9.99975e-01,7.13603e-10,9.99999e-01
4.576607403e-01,1.08173e-09,9.99999e-01,9.99999e-01,9.99999e-01,9.99988e-01,1.08174e-09,9.99999e-01
4.599490440e-01,1.62637e-09,9.99999e-01,9.99999e-01,9.99999e-01,9.99991e-01,1.62638e-09,9.99999e-01
4.622487892e-01,2.42561e-09,9.99999e-01,9.99999e-01,9.99999e-01,9.99998e-01,2.42562e-09,9.99999e-01
4.645600332e-01,3.58914e-09,9.99999e-01,9.99999e-01,9.99999e-01,9.99994e-01,3.58916e-09,9.99999e-01
4.668828333e-01,5.26943e-09,9.99999e-01,9.99999e-01,9.99999e-01,9.99910e-01,5.26991e-09,9.99999e-01
4.692172475e-01,7.67776e-09,9.99999e-01,9.99999e-01,9.99999e-01,9.99807e-01,7.67923e-09,9.99999e-01
4.715633337e-01,1.11058e-08,9.99999e-01,9.99999e-01,9.99999e-01,9.99874e-01,1.11072e-08,9.99999e-01
4.739211504e-01,1.59467e-08,9.99999e-01,9.99999e-01,9.99999e-01,9.99879e-01,1.59486e-08,9.99999e-01
4.762907561e-01,2.27358e-08,9.99999e-01,9.99999e-01,9.99999e-01,9.99937e-01,2.27372e-08,9.99999e-01
4.786722099e-01,3.21884e-08,9.99999e-01,9.99999e-01,9.99999e-01,9.99974e-01,3.21892e-08,9.99999e-01
4.810655710e-01,4.52584e-08,9.99999e-01,9.99999e-01,9.99999e-01,9.99991e-01,4.52587e-08,9.99999e-01
4.834708988e-01,6.32032e-08,9.99999e-01,9.99999e-01,9.99999e-01,9.99927e-01,6.32077e-08,9.99999e-01
4.858882533e-01,8.76827e-08,9.99999e-01,9.99999e-01,9.99999e-01,9.99863e-01,8.76946e-08,9.99999e-01
4.883176946e-01,1.20870e-07,9.99999e-01,9.99999e-01,9.99999e-01,9.99886e-01,1.20883e-07,9.99999e-01
4.907592831e-01,1.65563e-07,9.99999e-01,9.99999e-01,9.99999e-01,9.99896e-01,1.65580e-07,9.99999e-01
4.932130795e-01,2.25381e-07,9.99999e-01,9.99999e-01,9.99999e-01,9.99926e-01,2.25397e-07,9.99999e-01
4.956791449e-01,3.04949e-07,9.99999e-01,9.99999e-01,9.99999e-01,9.99960e-01,3.04961e-07,9.99999e-01
4.981575406e-01,4.10075e-07,9.99999e-01,9.99999e-01,9.99999e-01,9.99807e-01,4.10153e-07,9.99999e-01
5.006483283e-01,5.48138e-07,9.99999e-01,9.99999e-01,9.99999e-01,9.99504e-01,5.48411e-07,9.99996e-01
5.031515699e-01,7.27220e-07,9.99999e-01,9.99999e-01,9.99999e-01,9.97475e-01,7.29079e-07,9.99972e-01
5.056673278e-01,9.62512e-07,9.99999e-01,9.99999e-01,9.99999e-01,9.98663e-01,9.63829e-07,9.99969e-01
5.081956644e-01,1.26500e-06,9.99999e-01,9.99999e-01,9.99999e-01,9.98313e-01,1.26716e-06,9.99979e-01
5.107366428e-01,1.65508e-06,9.99999e-01,9.99999e-01,9.99999e-01,9.98860e-01,1.65697e-06,9.99995e-01
5.132903260e-01,2.15384e-06,9.99999e-01,9.99999e-01,9.99999e-01,9.99347e-01,2.15525e-06,9.99999e-01
5.158567776e-01,2.78808e-06,9.99999e-01,9.99999e-01,9.99999e-01,9.99723e-01,2.78885e-06,9.99999e-01
5.184360615e-01,3.58999e-06,9.99999e-01,9.99999e-01,9.99999e-01,9.99889e-01,3.59039e-06,9.99999e-01
5.210282418e-01,4.59910e-06,9.99999e-01,9.99999e-01,9.99999e-01,9.99958e-01,4.59929e-06,9.99999e-01
5.236333830e-01,5.86198e-06,9.99999e-01,9.99999e-01,9.99999e-01,9.99834e-01,5.86295e-06,9.99998e-01
5.262515499e-01,7.43726e-06,9.99999e-01,9.99999e-01,9.99999e-01,9.99896e-01,7.43804e-06,9.99997e-01
5.288828077e-01,9.39115e-06,9.99999e-01,9.99999e-01,9.99999e-01,9.99905e-01,9.39204e-06,9.99998e-01
5.315272217e-01,1.18039e-05,9.99999e-01,9.99999e-01,9.99999e-01,9.99916e-01,1.18049e-05,9.99999e-01
5.341848578e-01,1.47698e-05,9.99999e-01,9.99999e-01,9.99999e-01,9.99945e-01,1.47706e-05,9.99999e-01
5.368557821e-01,1.83964e-05,9.99999e-01,9.99999e-01,9.99999e-01,9.99808e-01,1.83999e-05,9.99999e-01
5.395400610e-01,2.28059e-05,9.99999e-01,9.99999e-01,9.99999e-01,9.99312e-01,2.28217e-05,9.99993e-01
5.422377613e-01,2.81601e-05,9.99999e-01,9.99999e-01,9.99999e-01,9.99102e-01,2.81859e-05,9.99983e-01
5.449489501e-01,3.46367e-05,9.99999e-01,9.99999e-01,9.99999e-01,9.99169e-01,3.46661e-05,9.99982e-01
5.476736949e-01,4.24305e-05,9.99999e-01,9.99999e-01,9.99999e-01,9.99260e-01,4.24622e-05,9.99991e-01
5.504120634e-01,5.17758e-05,9.99999e-01,9.99999e-01,9.99999e-01,9.99463e-01,5.18037e-05,9.99997e-01
5.531641237e-01,6.29354e-05,9.99999e-01,9.99999e-01,9.99999e-01,9.99729e-01,6.29524e-05,9.99999e-01
5.559299443e-01,7.61966e-05,9.99999e-01,9.99999e-01,9.99999e-01,9.99869e-01,7.62066e-05,9.99999e-01
5.587095940e-01,9.18963e-05,9.99999e-01,9.99999e-01,9.99999e-01,9.99918e-01,9.19038e-05,9.99999e-01
5.615031420e-01,1.10415e-04,9.99999e-01,9.99999e-01,9.99999e-01,9.99908e-01,1.10425e-04,9.99999e-01
5.643106577e-01,1.32185e-04,9.99999e-01,9.99999e-01,9.99999e-01,9.99897e-01,1.32199e-04,9.99998e-01
5.671322110e-01,1.57507e-04,9.99999e-01,9.99999e-01,9.99999e-01,9.98765e-01,1.57704e-04,9.99988e-01
5.699678720e-01,1.87218e-04,9.99999e-01,9.99999e-01,9.99999e-01,9.98661e-01,1.87475e-04,9.99965e-01
5.728177114e-01,2.21794e-04,9.99999e-01,9.99999e-01,9.99999e-01,9.98616e-01,2.22107e-04,9.99971e-01
5.756818000e-01,2.61919e-04,9.99999e-01,9.99999e-01,9.99999e-01,9.98728e-01,2.62257e-04,9.99982e-01
5.785602090e-01,3.08306e-04,9.99999e-01,9.99999e-01,9.99999e-01,9.98890e-01,3.08650e-04,9.99994e-01
5.814530100e-01,3.61679e-04,9.99999e-01,9.99999e-01,9.99999e-01,9.98886e-01,3.62083e-04,9.99997e-01
5.843602750e-01,4.22867e-04,9.99999e-01,9.99999e-01,9.99999e-01,9.98681e-01,4.23428e-04,9.99992e-01
5.872820764e-01,4.88014e-04,9.99999e-01,9.99999e-01,9.99999e-01,9.88683e-01,4.93639e-04,9.99919e-01
5.902184868e-01,5.65709e-04,9.99999e-01,9.99999e-01,9.99999e-01,9.86201e-01,5.73750e-04,9.99780e-01
5.931695792e-01,6.58270e-04,9.99999e-01,9.99999e-01,9.99999e-01,9.90262e-01,6.64884e-04,9.99786e-01
5.961354271e-01,7.59942e-04,9.99999e-01,9.99999e-01,9.99999e-01,9.89307e-01,7.68253e-04,9.99870e-01
5.991161043e-01,8.78213e-04,9.99999e-01,9.99999e-01,9.99999e-01,9.92183e-01,8.85164e-04,9.99962e-01
6.021116848e-01,1.01249e-03,9.99999e-01,9.99999e-01,9.99999e-01,9.95554e-01,1.01702e-03,9.99994e-01
6.051222432e-01,1.16268e-03,9.99999e-01,9.99999e-01,9.99999e-01,9.97747e-01,1.16531e-03,9.99999e-01
6.081478544e-01,1.33034e-03,9.99999e-01,9.99999e-01,9.99999e-01,9.99028e-01,1.33163e-03,9.99999e-01
6.111885937e-01,1.51707e-03,9.99999e-01,9.99999e-01,9.99999e-01,9.99587e-01,1.51770e-03,9.99999e-01
6.142445367e-01,1.72498e-03,9.99999e-01,9.99999e-01,9.99999e-01,9.99815e-01,1.72530e-03,9.99999e-01
6.173157594e-01,1.95614e-03,9.99999e-01,9.99999e-01,9.99999e-01,9.99898e-01,1.95633e-03,9.99999e-01
6.204023382e-01,2.21262e-03,9.99999e-01,9.99999e-01,9.99999e-01,9.99914e-01,2.21281e-03,9.99999e-01
6.235043498e-01,2.49589e-03,9.99999e-01,9.99999e-01,9.99999e-01,9.99627e-01,2.49682e-03,9.99998e-01
6.266218716e-01,2.80494e-03,9.99999e-01,9.99999e-01,9.99999e-01,9.98008e-01,2.81058e-03,9.99985e-01
6.297549810e-01,3.15398e-03,9.99999e-01,9.99999e-01,9.99999e-01,9.99269e-01,3.15637e-03,9.99971e-01
6.329037559e-01,3.53140e-03,9.99999e-01,9.99999e-01,9.99999e-01,9.98552e-01,3.53660e-03,9.99977e-01
6.360682746e-01,3.94882e-03,9.99999e-01,9.99999e-01,9.99999e-01,9.98771e-01,3.95373e-03,9.99986e-01
6.392486160e-01,4.40328e-03,9.99999e-01,9.99999e-01,9.99999e-01,9.98405e-01,4.41034e-03,9.99993e-01
6.424448591e-01,4.89862e-03,9.99999e-01,9.99999e-01,9.99999e-01,9.97879e-01,4.90907e-03,9.99990e-01
6.456570834e-01,5.39885e-03,9.99999e-01,9.99999e-01,9.99999e-01,9.90186e-01,5.45266e-03,9.99944e-01
6.488853688e-01,5.99173e-03,9.99999e-01,9.99999e-01,9.99999e-01,9.91523e-01,6.04388e-03,9.99845e-01
6.521297956e-01,6.63539e-03,9.99999e-01,9.99999e-01,9.99999e-01,9.92618e-01,6.68560e-03,9.99870e-01
6.553904446e-01,7.32614e-03,9.99999e-01,9.99999e-01,9.99999e-01,9.92700e-01,7.38072e-03,9.99902e-01
6.586673968e-01,8.08073e-03,9.99999e-01,9.99999e-01,9.99999e-01,9.93698e-01,8.13222e-03,9.99967e-01
6.619607338e-01,8.91042e-03,9.99999e-01,9.99999e-01,9.99999e-01,9.96352e-01,8.94309e-03,9.99992e-01
6.652705375e-01,9.79557e-03,9.99999e-01,9.99999e-01,9.99999e-01,9.97883e-01,9.81637e-03,9.99996e-01
6.685968902e-01,1.07445e-02,9.99999e-01,9.99999e-01,9.99999e-01,9.99016e-01,1.07551e-02,9.99998e-01
6.719398746e-01,1.17570e-02,9.99999e-01,9.99999e-01,9.99999e-01,9.99543e-01,1.17624e-02,9.99999e-01
6.752995740e-01,1.28381e-02,9.99999e-01,9.99999e-01,9.99999e-01,9.99753e-01,1.28413e-02,9.99999e-01
6.786760719e-01,1.39899e-02,9.99999e-01,9.99999e-01,9.99999e-01,9.99645e-01,1.39948e-02,9.99999e-01
6.820694522e-01,1.52168e-02,9.99999e-01,9.99999e-01,9.99999e-01,9.99392e-01,1.52261e-02,9.99996e-01
6.854797995e-01,1.65251e-02,9.99999e-01,9.99999e-01,9.99999e-01,9.99217e-01,1.65382e-02,9.99992e-01
6.889071985e-01,1.79001e-02,9.99999e-01,9.99999e-01,9.99999e-01,9.98125e-01,1.79340e-02,9.99982e-01
6.923517345e-01,1.88236e-02,9.99999e-01,9.99999e-01,9.99999e-01,9.69607e-01,1.94165e-02,9.99851e-01
6.958134932e-01,2.06433e-02,9.99999e-01,9.99999e-01,9.99999e-01,9.83875e-01,2.09886e-02,9.99664e-01
6.992925606e-01,2.23035e-02,9.99999e-01,9.99999e-01,9.99999e-01,9.84854e-01,2.26532e-02,9.99704e-01
7.027890234e-01,2.39492e-02,9.99999e-01,9.99999e-01,9.99999e-01,9.81229e-01,2.44129e-02,9.99773e-01
7.063029686e-01,2.58524e-02,9.99999e-01,9.99999e-01,9.99999e-01,9.84197e-01,2.62705e-02,9.99886e-01
7.098344834e-01,2.77984e-02,9.99999e-01,9.99999e-01,9.99999e-01,9.84830e-01,2.82285e-02,9.99932e-01
7.133836558e-01,2.96807e-02,9.99999e-01,9.99999e-01,9.99999e-01,9.80035e-01,3.02893e-02,9.99867e-01
7.169505741e-01,2.75986e-02,9.99999e-01,9.99999e-01,9.99999e-01,8.51236e-01,3.24555e-02,9.98958e-01
7.205353270e-01,3.19973e-02,9.99999e-01,9.99999e-01,9.99999e-01,9.23032e-01,3.47291e-02,9.98163e-01
7.241380036e-01,3.34975e-02,9.99999e-01,9.99999e-01,9.99999e-01,9.04029e-01,3.71124e-02,9.98413e-01
7.277586936e-01,3.61124e-02,9.99999e-01,9.99999e-01,9.99999e-01,9.12947e-01,3.96072e-02,9.98703e-01
7.313974871e-01,3.82673e-02,9.99999e-01,9.99999e-01,9.99999e-01,9.07025e-01,4.22155e-02,9.99392e-01
7.350544745e-01,4.25963e-02,9.99999e-01,9.99999e-01,9.99999e-01,9.48072e-01,4.49389e-02,9.99788e-01
7.387297469e-01,4.59324e-02,9.99999e-01,9.99999e-01,9.99999e-01,9.61444e-01,4.77789e-02,9.99902e-01
7.424233956e-01,4.97673e-02,9.99999e-01,9.99999e-01,9.99999e-01,9.80906e-01,5.07370e-02,9.99980e-01
7.461355126e-01,5.31898e-02,9.99999e-01,9.99999e-01,9.99999e-01,9.88397e-01,5.38143e-02,9.99996e-01
7.498661902e-01,5.67024e-02,9.99999e-01,9.99999e-01,9.99999e-01,9.94572e-01,5.70119e-02,9.99998e-01
7.536155211e-01,6.01702e-02,9.99999e-01,9.99999e-01,9.99999e-01,9.97339e-01,6.03307e-02,9.99998e-01
7.573835987e-01,6.36839e-02,9.99999e-01,9.99999e-01,9.99999e-01,9.98629e-01,6.37714e-02,9.99999e-01
7.611705167e-01,6.72771e-02,9.99999e-01,9.99999e-01,9.99999e-01,9.99148e-01,6.73344e-02,9.99999e-01
7.649763693e-01,7.09824e-02,9.99999e-01,9.99999e-01,9.99999e-01,9.99466e-01,7.10203e-02,9.99999e-01
7.688012511e-01,7.48013e-02,9.99999e-01,9.99999e-01,9.99999e-01,9.99628e-01,7.48291e-02,9.99999e-01
7.726452574e-01,7.87368e-02,9.99999e-01,9.99999e-01,9.99999e-01,9.99694e-01,7.87608e-02,9.99999e-01
7.765084837e-01,8.27796e-02,9.99999e-01,9.99999e-01,9.99999e-01,9.99568e-01,8.28154e-02,9.99998e-01
7.803910261e-01,7.91005e-02,9.99999e-01,9.99999e-01,9.10838e-01,9.98138e-01,8.69923e-02,9.99997e-01
7.842929812e-01,5.62622e-02,9.99999e-01,9.99999e-01,6.19805e-01,9.93516e-01,9.12912e-02,9.99987e-01
7.882144461e-01,5.72268e-02,9.99999e-01,9.99999e-01,6.05211e-01,9.86606e-01,9.57112e-02,9.99917e-01
7.921555184e-01,7.29894e-02,9.99999e-01,9.99999e-01,7.33220e-01,9.92611e-01,1.00252e-01,9.99840e-01
7.961162960e-01,8.38482e-02,9.99999e-01,9.99999e-01,8.09501e-01,9.87075e-01,1.04911e-01,9.99846e-01
8.000968774e-01,9.63388e-02,9.99999e-01,9.99999e-01,8.91668e-01,9.85016e-01,1.09689e-01,9.99837e-01
8.040973618e-01,1.06325e-01,9.99999e-01,9.99999e-01,9.42059e-01,9.85029e-01,1.14584e-01,9.99870e-01
8.081178486e-01,1.12505e-01,9.99999e-01,9.99999e-01,9.73020e-01,9.66775e-01,1.19593e-01,9.99878e-01
8.121584379e-01,1.07459e-01,9.99999e-01,9.99999e-01,9.91541e-01,8.69145e-01,1.24717e-01,9.99524e-01
8.162192301e-01,1.09543e-01,9.99999e-01,9.99999e-01,9.98125e-01,8.45950e-01,1.29952e-01,9.98213e-01
8.203003262e-01,1.24502e-01,9.99999e-01,9.99999e-01,9.99969e-01,9.22160e-01,1.35297e-01,9.97907e-01
8.244018279e-01,1.25362e-01,9.99999e-01,9.99999e-01,9.99999e-01,8.92156e-01,1.40749e-01,9.98334e-01
8.285238370e-01,1.32232e-01,9.99999e-01,9.99999e-01,9.99999e-01,9.04978e-01,1.46308e-01,9.98691e-01
8.326664562e-01,1.37288e-01,9.99999e-01,9.99999e-01,9.99999e-01,9.03881e-01,1.51969e-01,9.99458e-01
8.368297885e-01,1.46667e-01,9.99999e-01,9.99999e-01,9.99999e-01,9.29968e-01,1.57731e-01,9.99875e-01
8.410139374e-01,1.56664e-01,9.99999e-01,9.99999e-01,9.99999e-01,9.57723e-01,1.63591e-01,9.99927e-01
8.452190071e-01,1.65982e-01,9.99999e-01,9.99999e-01,9.99999e-01,9.79011e-01,1.69547e-01,9.99956e-01
8.494451021e-01,1.73447e-01,9.99999e-01,9.99999e-01,9.99999e-01,9.87796e-01,1.75596e-01,9.99964e-01
8.536923276e-01,1.80413e-01,9.99999e-01,9.99999e-01,9.99999e-01,9.92750e-01,1.81734e-01,9.99976e-01
8.579607893e-01,1.87120e-01,9.99999e-01,9.99999e-01,9.99999e-01,9.95538e-01,1.87960e-01,9.99993e-01
8.622505932e-01,1.93717e-01,9.99999e-01,9.99999e-01,9.99999e-01,9.97159e-01,1.94269e-01,9.99998e-01
8.665618462e-01,1.73844e-01,9.99999e-01,9.99999e-01,8.67783e-01,9.98246e-01,2.00659e-01,9.99998e-01
8.708946554e-01,6.43040e-02,9.99999e-01,9.99999e-01,3.11024e-01,9.97995e-01,2.07127e-01,9.99998e-01
8.752491287e-01,8.00193e-02,9.99999e-01,9.99999e-01,3.75433e-01,9.97317e-01,2.13670e-01,9.99996e-01
8.796253743e-01,1.26252e-01,9.99999e-01,9.99999e-01,5.75090e-01,9.96294e-01,2.20284e-01,9.99991e-01
8.840235012e-01,1.68687e-01,9.99999e-01,9.99999e-01,7.46254e-01,9.95766e-01,2.26966e-01,9.99973e-01
8.884436187e-01,2.04936e-01,9.99999e-01,9.99999e-01,8.89994e-01,9.84864e-01,2.33713e-01,9.99926e-01
8.928858368e-01,1.95575e-01,9.99999e-01,9.99999e-01,9.53835e-01,8.51710e-01,2.40520e-01,9.99575e-01
8.973502660e-01,1.83732e-01,9.99999e-01,9.99999e-01,9.88533e-01,7.52386e-01,2.47386e-01,9.97826e-01
9.018370173e-01,2.18783e-01,9.99999e-01,9.99999e-01,9.98728e-01,8.64251e-01,2.54307e-01,9.96585e-01
9.063462024e-01,2.22938e-01,9.99999e-01,9.99999e-01,9.69183e-01,8.80284e-01,2.61279e-01,9.96999e-01
9.108779334e-01,2.03994e-01,9.99999e-01,9.99999e-01,9.28370e-01,8.19246e-01,2.68298e-01,9.96882e-01
9.154323231e-01,2.15195e-01,9.99999e-01,9.99999e-01,9.82586e-01,7.96465e-01,2.75362e-01,9.97422e-01
9.200094847e-01,1.94840e-01,9.99999e-01,9.99999e-01,8.05525e-01,8.36984e-01,2.82466e-01,9.98556e-01
9.246095321e-01,1.56891e-01,9.99999e-01,9.99999e-01,6.96982e-01,7.66449e-01,2.89609e-01,9.98336e-01
9.292325798e-01,4.45347e-02,9.99999e-01,9.99999e-01,7.59062e-01,1.87276e-01,2.96785e-01,9.93530e-01
9.338787427e-01,2.68739e-02,9.99999e-01,9.99999e-01,7.62212e-01,1.12491e-01,3.03992e-01,9.73527e-01
9.385481364e-01,1.04099e-01,9.99999e-01,9.99999e-01,8.17631e-01,4.10479e-01,3.11227e-01,9.68594e-01
9.432408771e-01,8.52664e-02,9.99999e-01,9.99999e-01,8.83113e-01,3.06634e-01,3.18486e-01,9.72846e-01
9.479570815e-01,5.83878e-02,9.99999e-01,9.99999e-01,9.38263e-01,1.93793e-01,3.25766e-01,9.77844e-01
9.526968669e-01,8.95440e-02,9.99999e-01,9.99999e-01,9.69736e-01,2.79382e-01,3.33063e-01,9.86427e-01
9.574603512e-01,9.90391e-02,9.99999e-01,9.99999e-01,9.86926e-01,2.96177e-01,3.40375e-01,9.93082e-01
9.622476530e-01,1.25601e-01,9.99999e-01,9.99999e-01,9.95900e-01,3.64210e-01,3.47699e-01,9.95211e-01
9.670588912e-01,1.96435e-01,9.99999e-01,9.99999e-01,9.98768e-01,5.55691e-01,3.55030e-01,9.96722e-01
9.718941857e-01,2.47957e-01,9.99999e-01,9.99999e-01,9.99911e-01,6.85971e-01,3.62367e-01,9.97586e-01
9.767536566e-01,2.69752e-01,9.99999e-01,9.99999e-01,9.99999e-01,7.30987e-01,3.69706e-01,9.98154e-01
9.816374249e-01,2.98246e-01,9.99999e-01,9.99999e-01,9.99999e-01,7.91515e-01,3.77045e-01,9.99360e-01
9.865456120e-01,3.31929e-01,9.99999e-01,9.99999e-01,9.99999e-01,8.63659e-01,3.84379e-01,9.99866e-01
9.914783401e-01,3.57705e-01,9.99999e-01,9.99999e-01,9.99999e-01,9.13227e-01,3.91708e-01,9.99962e-01
9.964357318e-01,3.79767e-01,9.99999e-01,9.99999e-01,9.99999e-01,9.51751e-01,3.99027e-01,9.99977e-01
1.001417910e+00,3.94447e-01,9.99999e-01,9.99999e-01,9.99999e-01,9.70777e-01,4.06334e-01,9.99966e-01
1.006425000e+00,4.06682e-01,9.99999e-01,9.99999e-01,9.99999e-01,9.83255e-01,4.13627e-01,9.99952e-01
1.011457125e+00,4.16489e-01,9.99999e-01,9.99999e-01,9.99999e-01,9.89557e-01,4.20903e-01,9.99955e-01
1.016514411e+00,4.25109e-01,9.99999e-01,9.99999e-01,9.99999e-01,9.92906e-01,4.28159e-01,9.99968e-01
1.021596983e+00,4.32851e-01,9.99999e-01,9.99999e-01,9.99841e-01,9.94346e-01,4.35393e-01,9.99968e-01
1.026704968e+00,4.35241e-01,9.99999e-01,9.99999e-01,9.87723e-01,9.95589e-01,4.42603e-01,9.99978e-01
1.031838492e+00,4.05384e-01,9.99999e-01,9.99999e-01,9.04031e-01,9.96788e-01,4.49787e-01,9.99993e-01
1.036997685e+00,2.18206e-02,9.99999e-01,9.99999e-01,4.78223e-02,9.98094e-01,4.56942e-01,9.99998e-01
1.042182673e+00,1.17637e-03,9.99999e-01,9.99999e-01,2.53929e-03,9.97733e-01,4.64066e-01,9.99999e-01
1.047393587e+00,3.23288e-03,9.99999e-01,9.99999e-01,6.87873e-03,9.96991e-01,4.71157e-01,9.99998e-01
1.052630555e+00,2.27660e-07,9.99999e-01,9.99999e-01,4.77301e-07,9.95877e-01,4.78213e-01,9.99998e-01
1.057893707e+00,8.46335e-07,9.99999e-01,9.99999e-01,1.75029e-06,9.93133e-01,4.85232e-01,9.99997e-01
1.063183176e+00,2.75607e-05,9.99999e-01,9.99999e-01,5.63557e-05,9.88718e-01,4.92212e-01,9.99993e-01
1.068499092e+00,3.05734e-04,9.99999e-01,9.99999e-01,6.20100e-04,9.81165e-01,4.99153e-01,9.99986e-01
1.073841587e+00,4.20207e-03,9.99999e-01,9.99999e-01,8.43541e-03,9.78041e-01,5.06051e-01,9.99971e-01
