#,Wave/freq,Total,N2,O2,CO2,H2O,Rayleigh,CIA
4.000000000e-01,2.08051e-07,9.99999e-01,9.99999e-01,9.99999e-01,9.99969e-01,2.08057e-07,9.99999e-01
4.020000000e-01,2.82029e-07,9.99999e-01,9.99999e-01,9.99999e-01,9.99981e-01,2.82034e-07,9.99999e-01
4.040100000e-01,3.79902e-07,9.99999e-01,9.99999e-01,9.99999e-01,9.99991e-01,3.79905e-07,9.99999e-01
4.060300500e-01,5.08734e-07,9.99999e-01,9.99999e-01,9.99999e-01,9.99997e-01,5.08735e-07,9.99999e-01
4.080602003e-01,6.77336e-07,9.99999e-01,9.99999e-01,9.99999e-01,9.99998e-01,6.77336e-07,9.99999e-01
4.101005013e-01,8.96729e-07,9.99999e-01,9.99999e-01,9.99999e-01,9.99999e-01,8.96729e-07,9.99999e-01
4.121510038e-01,1.18062e-06,9.99999e-01,9.99999e-01,9.99999e-01,9.99998e-01,1.18062e-06,9.99999e-01
4.142117588e-01,1.54596e-06,9.99999e-01,9.99999e-01,9.99999e-01,9.99991e-01,1.54597e-06,9.99999e-01
4.162828176e-01,2.01355e-06,9.99999e-01,9.99999e-01,9.99999e-01,9.99962e-01,2.01363e-06,9.99999e-01
4.183642317e-01,2.60904e-06,9.99999e-01,9.99999e-01,9.99999e-01,9.99977e-01,2.60909e-06,9.99999e-01
4.204560528e-01,3.36335e-06,9.99999e-01,9.99999e-01,9.99999e-01,9.99986e-01,3.36340e-06,9.99999e-01
4.225583331e-01,4.31405e-06,9.99999e-01,9.99999e-01,9.99999e-01,9.99994e-01,4.31407e-06,9.99999e-01
4.246711247e-01,5.50630e-06,9.99999e-01,9.99999e-01,9.99999e-01,9.99995e-01,5.50633e-06,9.99999e-01
4.267944804e-01,6.99424e-06,9.99999e-01,9.99999e-01,9.99999e-01,9.99993e-01,6.99428e-06,9.99999e-01
4.289284528e-01,8.84240e-06,9.99999e-01,9.99999e-01,9.99999e-01,9.99994e-01,8.84244e-06,9.99999e-01
4.310730950e-01,1.11273e-05,9.99999e-01,9.99999e-01,9.99999e-01,9.99997e-01,1.11273e-05,9.99999e-01
4.332284605e-01,1.39391e-05,9.99999e-01,9.99999e-01,9.99999e-01,9.99999e-01,1.39391e-05,9.99999e-01
4.353946028e-01,1.73840e-05,9.99999e-01,9.99999e-01,9.99999e-01,9.99999e-01,1.73840e-05,9.99999e-01
4.375715758e-01,2.15857e-05,9.99999e-01,9.99999e-01,9.99999e-01,9.99995e-01,2.15858e-05,9.99999e-01
4.397594337e-01,2.66880e-05,9.99999e-01,9.99999e-01,9.99999e-01,9.99967e-01,2.66888e-05,9.99999e-01
4.419582309e-01,3.28549e-05,9.99999e-01,9.99999e-01,9.99999e-01,9.99836e-01,3.28603e-05,9.99999e-01
4.441680220e-01,4.02877e-05,9.99999e-01,9.99999e-01,9.99999e-01,9.99871e-01,4.02928e-05,9.99999e-01
4.463888621e-01,4.92014e-05,9.99999e-01,9.99999e-01,9.99999e-01,9.99866e-01,4.92080e-05,9.99999e-01
4.486208064e-01,5.98539e-05,9.99999e-01,9.99999e-01,9.99999e-01,9.99916e-01,5.98589e-05,9.99999e-01
4.508639105e-01,7.25310e-05,9.99999e-01,9.99999e-01,9.99999e-01,9.99960e-01,7.25338e-05,9.99999e-01
4.531182300e-01,8.75586e-05,9.99999e-01,9.99999e-01,9.99999e-01,9.99984e-01,8.75599e-05,9.99999e-01
4.553838212e-01,1.05305e-04,9.99999e-01,9.99999e-01,9.99999e-01,9.99989e-01,1.05306e-04,9.99999e-01
4.576607403e-01,1.26188e-04,9.99999e-01,9.99999e-01,9.99999e-01,9.99994e-01,1.26189e-04,9.99999e-01
4.599490440e-01,1.50673e-04,9.99999e-01,9.99999e-01,9.99999e-01,9.99996e-01,1.50673e-04,9.99999e-01
4.622487892e-01,1.79279e-04,9.99999e-01,9.99999e-01,9.99999e-01,9.99998e-01,1.79279e-04,9.99999e-01
4.645600332e-01,2.12584e-04,9.99999e-01,9.99999e-01,9.99999e-01,9.99997e-01,2.12584e-04,9.99999e-01
4.668828333e-01,2.51220e-04,9.99999e-01,9.99999e-01,9.99999e-01,9.99960e-01,2.51230e-04,9.99999e-01
4.692172475e-01,2.95898e-04,9.99999e-01,9.99999e-01,9.99999e-01,9.99916e-01,2.95923e-04,9.99999e-01
4.715633337e-01,3.47423e-04,9.99999e-01,9.99999e-01,9.99999e-01,9.99945e-01,3.47442e-04,9.99999e-01
4.739211504e-01,4.06617e-04,9.99999e-01,9.99999e-01,9.99999e-01,9.99947e-01,4.06638e-04,9.99999e-01
4.762907561e-01,4.74431e-04,9.99999e-01,9.99999e-01,9.99999e-01,9.99972e-01,4.74443e-04,9.99999e-01
4.786722099e-01,5.51865e-04,9.99999e-01,9.99999e-01,9.99999e-01,9.99988e-01,5.51872e-04,9.99999e-01
4.810655710e-01,6.40020e-04,9.99999e-01,9.99999e-01,9.99999e-01,9.99996e-01,6.40022e-04,9.99999e-01
4.834708988e-01,7.40059e-04,9.99999e-01,9.99999e-01,9.99999e-01,9.99967e-01,7.40083e-04,9.99999e-01
4.858882533e-01,8.53285e-04,9.99999e-01,9.99999e-01,9.99999e-01,9.99940e-01,8.53336e-04,9.99999e-01
4.883176946e-01,9.81107e-04,9.99999e-01,9.99999e-01,9.99999e-01,9.99950e-01,9.81155e-04,9.99999e-01
4.907592831e-01,1.12497e-03,9.99999e-01,9.99999e-01,9.99999e-01,9.99954e-01,1.12502e-03,9.99999e-01
4.932130795e-01,1.28645e-03,9.99999e-01,9.99999e-01,9.99999e-01,9.99967e-01,1.28649e-03,9.99999e-01
4.956791449e-01,1.46722e-03,9.99999e-01,9.99999e-01,9.99999e-01,9.99982e-01,1.46724e-03,9.99999e-01
4.981575406e-01,1.66891e-03,9.99999e-01,9.99999e-01,9.99999e-01,9.99915e-01,1.66905e-03,9.99999e-01
5.006483283e-01,1.89338e-03,9.99999e-01,9.99999e-01,9.99999e-01,9.99782e-01,1.89380e-03,9.99998e-01
5.031515699e-01,2.14107e-03,9.99999e-01,9.99999e-01,9.99999e-01,9.98899e-01,2.14345e-03,9.99987e-01
5.056673278e-01,2.41864e-03,9.99999e-01,9.99999e-01,9.99999e-01,9.99418e-01,2.42008e-03,9.99986e-01
5.081956644e-01,2.72385e-03,9.99999e-01,9.99999e-01,9.99999e-01,9.99266e-01,2.72587e-03,9.99990e-01
5.107366428e-01,3.06158e-03,9.99999e-01,9.99999e-01,9.99999e-01,9.99504e-01,3.06310e-03,9.99997e-01
5.132903260e-01,3.43315e-03,9.99999e-01,9.99999e-01,9.99999e-01,9.99716e-01,3.43412e-03,9.99999e-01
5.158567776e-01,3.84094e-03,9.99999e-01,9.99999e-01,9.99999e-01,9.99879e-01,3.84140e-03,9.99999e-01
5.184360615e-01,4.28727e-03,9.99999e-01,9.99999e-01,9.99999e-01,9.99951e-01,4.28747e-03,9.99999e-01
5.210282418e-01,4.77489e-03,9.99999e-01,9.99999e-01,9.99999e-01,9.99981e-01,4.77498e-03,9.99999e-01
5.236333830e-01,5.30623e-03,9.99999e-01,9.99999e-01,9.99999e-01,9.99927e-01,5.30661e-03,9.99998e-01
5.262515499e-01,5.88489e-03,9.99999e-01,9.99999e-01,9.99999e-01,9.99954e-01,5.88516e-03,9.99998e-01
5.288828077e-01,6.51317e-03,9.99999e-01,9.99999e-01,9.99999e-01,9.99958e-01,6.51344e-03,9.99999e-01
5.315272217e-01,7.19412e-03,9.99999e-01,9.99999e-01,9.99999e-01,9.99963e-01,7.19438e-03,9.99999e-01
5.341848578e-01,7.93072e-03,9.99999e-01,9.99999e-01,9.99999e-01,9.99975e-01,7.93091e-03,9.99999e-01
5.368557821e-01,8.72530e-03,9.99999e-01,9.99999e-01,9.99999e-01,9.99916e-01,8.72603e-03,9.99999e-01
5.395400610e-01,9.57986e-03,9.99999e-01,9.99999e-01,9.99999e-01,9.99698e-01,9.58276e-03,9.99997e-01
5.422377613e-01,1.05000e-02,9.99999e-01,9.99999e-01,9.99999e-01,9.99609e-01,1.05042e-02,9.99992e-01
5.449489501e-01,1.14890e-02,9.99999e-01,9.99999e-01,9.99999e-01,9.99637e-01,1.14933e-02,9.99992e-01
5.476736949e-01,1.25491e-02,9.99999e-01,9.99999e-01,9.99999e-01,9.99678e-01,1.25532e-02,9.99995e-01
5.504120634e-01,1.36838e-02,9.99999e-01,9.99999e-01,9.99999e-01,9.99766e-01,1.36870e-02,9.99998e-01
5.531641237e-01,1.48960e-02,9.99999e-01,9.99999e-01,9.99999e-01,9.99882e-01,1.48978e-02,9.99999e-01
5.559299443e-01,1.61876e-02,9.99999e-01,9.99999e-01,9.99999e-01,9.99942e-01,1.61885e-02,9.99999e-01
5.587095940e-01,1.75616e-02,9.99999e-01,9.99999e-01,9.99999e-01,9.99964e-01,1.75622e-02,9.99999e-01
5.615031420e-01,1.90211e-02,9.99999e-01,9.99999e-01,9.99999e-01,9.99960e-01,1.90219e-02,9.99999e-01
5.643106577e-01,2.05695e-02,9.99999e-01,9.99999e-01,9.99999e-01,9.99954e-01,2.05704e-02,9.99999e-01
5.671322110e-01,2.21985e-02,9.99999e-01,9.99999e-01,9.99999e-01,9.99457e-01,2.22106e-02,9.99994e-01
5.699678720e-01,2.39310e-02,9.99999e-01,9.99999e-01,9.99999e-01,9.99419e-01,2.39453e-02,9.99984e-01
5.728177114e-01,2.57613e-02,9.99999e-01,9.99999e-01,9.99999e-01,9.99397e-01,2.57771e-02,9.99987e-01
5.756818000e-01,2.76932e-02,9.99999e-01,9.99999e-01,9.99999e-01,9.99446e-01,2.77087e-02,9.99991e-01
5.785602090e-01,2.97282e-02,9.99999e-01,9.99999e-01,9.99999e-01,9.99517e-01,2.97426e-02,9.99997e-01
5.814530100e-01,3.18656e-02,9.99999e-01,9.99999e-01,9.99999e-01,9.99515e-01,3.18811e-02,9.99998e-01
5.843602750e-01,3.41068e-02,9.99999e-01,9.99999e-01,9.99999e-01,9.99423e-01,3.41265e-02,9.99996e-01
5.872820764e-01,3.62988e-02,9.99999e-01,9.99999e-01,9.99999e-01,9.95039e-01,3.64810e-02,9.99964e-01
5.902184868e-01,3.87084e-02,9.99999e-01,9.99999e-01,9.99999e-01,9.93978e-01,3.89466e-02,9.99904e-01
5.931695792e-01,4.13448e-02,9.99999e-01,9.99999e-01,9.99999e-01,9.95746e-01,4.15252e-02,9.99907e-01
5.961354271e-01,4.40099e-02,9.99999e-01,9.99999e-01,9.99999e-01,9.95335e-01,4.42184e-02,9.99946e-01
5.991161043e-01,4.68671e-02,9.99999e-01,9.99999e-01,9.99999e-01,9.96595e-01,4.70279e-02,9.99983e-01
6.021116848e-01,4.98585e-02,9.99999e-01,9.99999e-01,9.99999e-01,9.98066e-01,4.99551e-02,9.99997e-01
6.051222432e-01,5.29494e-02,9.99999e-01,9.99999e-01,9.99999e-01,9.99021e-01,5.30013e-02,9.99999e-01
6.081478544e-01,5.61438e-02,9.99999e-01,9.99999e-01,9.99999e-01,9.99577e-01,5.61675e-02,9.99999e-01
6.111885937e-01,5.94440e-02,9.99999e-01,9.99999e-01,9.99999e-01,9.99820e-01,5.94546e-02,9.99999e-01
6.142445367e-01,6.28585e-02,9.99999e-01,9.99999e-01,9.99999e-01,9.99919e-01,6.28635e-02,9.99999e-01
6.173157594e-01,6.63918e-02,9.99999e-01,9.99999e-01,9.99999e-01,9.99955e-01,6.63947e-02,9.99999e-01
6.204023382e-01,7.00459e-02,9.99999e-01,9.99999e-01,9.99999e-01,9.99962e-01,7.00485e-02,9.99999e-01
6.235043498e-01,7.38132e-02,9.99999e-01,9.99999e-01,9.99999e-01,9.99836e-01,7.38253e-02,9.99999e-01
6.266218716e-01,7.76572e-02,9.99999e-01,9.99999e-01,9.99999e-01,9.99132e-01,7.77250e-02,9.99993e-01
6.297549810e-01,8.17206e-02,9.99999e-01,9.99999e-01,9.99999e-01,9.99681e-01,8.17476e-02,9.99987e-01
6.329037559e-01,8.58379e-02,9.99999e-01,9.99999e-01,9.99999e-01,9.99370e-01,8.58927e-02,9.99989e-01
6.360682746e-01,9.01112e-02,9.99999e-01,9.99999e-01,9.99999e-01,9.99464e-01,9.01599e-02,9.99993e-01
6.392486160e-01,9.44827e-02,9.99999e-01,9.99999e-01,9.99999e-01,9.99306e-01,9.45485e-02,9.99996e-01
6.424448591e-01,9.89655e-02,9.99999e-01,9.99999e-01,9.99999e-01,9.99073e-01,9.90576e-02,9.99995e-01
6.456570834e-01,1.03238e-01,9.99999e-01,9.99999e-01,9.99999e-01,9.95702e-01,1.03686e-01,9.99975e-01
6.488853688e-01,1.08084e-01,9.99999e-01,9.99999e-01,9.99999e-01,9.96844e-01,1.08433e-01,9.99932e-01
6.521297956e-01,1.12927e-01,9.99999e-01,9.99999e-01,9.99999e-01,9.96782e-01,1.13298e-01,9.99944e-01
6.553904446e-01,1.17895e-01,9.99999e-01,9.99999e-01,9.99999e-01,9.96801e-01,1.18278e-01,9.99958e-01
6.586673968e-01,1.23032e-01,9.99999e-01,9.99999e-01,9.99999e-01,9.97257e-01,1.23372e-01,9.99985e-01
6.619607338e-01,1.28374e-01,9.99999e-01,9.99999e-01,9.99999e-01,9.98413e-01,1.28578e-01,9.99996e-01
6.652705375e-01,1.33771e-01,9.99999e-01,9.99999e-01,9.99999e-01,9.99081e-01,1.33894e-01,9.99998e-01
6.685968902e-01,1.39260e-01,9.99999e-01,9.99999e-01,9.99999e-01,9.99572e-01,1.39319e-01,9.99999e-01
6.719398746e-01,1.44821e-01,9.99999e-01,9.99999e-01,9.99999e-01,9.99801e-01,1.44850e-01,9.99999e-01
6.752995740e-01,1.50469e-01,9.99999e-01,9.99999e-01,9.99999e-01,9.99892e-01,1.50485e-01,9.99999e-01
6.786760719e-01,1.56197e-01,9.99999e-01,9.99999e-01,9.99999e-01,9.99845e-01,1.56221e-01,9.99999e-01
6.820694522e-01,1.62013e-01,9.99999e-01,9.99999e-01,9.99999e-01,9.99735e-01,1.62056e-01,9.99998e-01
6.854797995e-01,1.67929e-01,9.99999e-01,9.99999e-01,9.99999e-01,9.99658e-01,1.67987e-01,9.99996e-01
6.889071985e-01,1.73867e-01,9.99999e-01,9.99999e-01,9.99999e-01,9.99177e-01,1.74012e-01,9.99992e-01
6.923517345e-01,1.77702e-01,9.99999e-01,9.99999e-01,9.99999e-01,9.86599e-01,1.80127e-01,9.99934e-01
6.958134932e-01,1.84995e-01,9.99999e-01,9.99999e-01,9.99999e-01,9.92980e-01,1.86330e-01,9.99853e-01
6.992925606e-01,1.91314e-01,9.99999e-01,9.99999e-01,9.99999e-01,9.93358e-01,1.92618e-01,9.99871e-01
7.027890234e-01,1.97335e-01,9.99999e-01,9.99999e-01,9.99999e-01,9.91789e-01,1.98988e-01,9.99901e-01
7.063029686e-01,2.04007e-01,9.99999e-01,9.99999e-01,9.99999e-01,9.93095e-01,2.05436e-01,9.99950e-01
7.098344834e-01,2.10549e-01,9.99999e-01,9.99999e-01,9.99999e-01,9.93374e-01,2.11959e-01,9.99970e-01
7.133836558e-01,2.16620e-01,9.99999e-01,9.99999e-01,9.99999e-01,9.91203e-01,2.18555e-01,9.99941e-01
7.169505741e-01,2.09658e-01,9.99999e-01,9.99999e-01,9.99999e-01,9.31325e-01,2.25219e-01,9.99546e-01
7.205353270e-01,2.23802e-01,9.99999e-01,9.99999e-01,9.99999e-01,9.65645e-01,2.31949e-01,9.99200e-01
7.241380036e-01,2.28245e-01,9.99999e-01,9.99999e-01,9.99999e-01,9.56694e-01,2.38742e-01,9.99309e-01
7.277586936e-01,2.35841e-01,9.99999e-01,9.99999e-01,9.99999e-01,9.60832e-01,2.45593e-01,9.99435e-01
7.313974871e-01,2.41913e-01,9.99999e-01,9.99999e-01,9.99999e-01,9.58327e-01,2.52500e-01,9.99735e-01
7.350544745e-01,2.53476e-01,9.99999e-01,9.99999e-01,9.99999e-01,9.77032e-01,2.59458e-01,9.99907e-01
7.387297469e-01,2.61937e-01,9.99999e-01,9.99999e-01,9.99999e-01,9.83045e-01,2.66465e-01,9.99957e-01
7.424233956e-01,2.71237e-01,9.99999e-01,9.99999e-01,9.99999e-01,9.91667e-01,2.73518e-01,9.99991e-01
7.461355126e-01,2.79194e-01,9.99999e-01,9.99999e-01,9.99999e-01,9.94944e-01,2.80612e-01,9.99998e-01
7.498661902e-01,2.87067e-01,9.99999e-01,9.99999e-01,9.99999e-01,9.97642e-01,2.87745e-01,9.99998e-01
7.536155211e-01,2.94572e-01,9.99999e-01,9.99999e-01,9.99999e-01,9.98843e-01,2.94913e-01,9.99999e-01
7.573835987e-01,3.01933e-01,9.99999e-01,9.99999e-01,9.99999e-01,9.99404e-01,3.02113e-01,9.99999e-01
7.611705167e-01,3.09226e-01,9.99999e-01,9.99999e-01,9.99999e-01,9.99629e-01,3.09341e-01,9.99999e-01
7.649763693e-01,3.16520e-01,9.99999e-01,9.99999e-01,9.99999e-01,9.99767e-01,3.16593e-01,9.99999e-01
7.688012511e-01,3.23816e-01,9.99999e-01,9.99999e-01,9.99999e-01,9.99838e-01,3.23868e-01,9.99999e-01
7.726452574e-01,3.31117e-01,9.99999e-01,9.99999e-01,9.99999e-01,9.99866e-01,3.31161e-01,9.99999e-01
7.765084837e-01,3.38406e-01,9.99999e-01,9.99999e-01,9.99999e-01,9.99811e-01,3.38470e-01,9.99999e-01
7.803910261e-01,3.29448e-01,9.99999e-01,9.99999e-01,9.53480e-01,9.99186e-01,3.45791e-01,9.99998e-01
7.842929812e-01,2.83252e-01,9.99999e-01,9.99999e-01,8.04271e-01,9.97162e-01,3.53120e-01,9.99994e-01
7.882144461e-01,2.84174e-01,9.99999e-01,9.99999e-01,7.92784e-01,9.94150e-01,3.60456e-01,9.99963e-01
7.921555184e-01,3.19639e-01,9.99999e-01,9.99999e-01,8.71838e-01,9.96785e-01,3.67795e-01,9.99930e-01
7.961162960e-01,3.40163e-01,9.99999e-01,9.99999e-01,9.11933e-01,9.94338e-01,3.75134e-01,9.99933e-01
8.000968774e-01,3.61432e-01,9.99999e-01,9.99999e-01,9.51264e-01,9.93453e-01,3.82470e-01,9.99928e-01
8.040973618e-01,3.77329e-01,9.99999e-01,9.99999e-01,9.74421e-01,9.93453e-01,3.89800e-01,9.99943e-01
8.081178486e-01,3.86661e-01,9.99999e-01,9.99999e-01,9.88185e-01,9.85320e-01,3.97122e-01,9.99946e-01
8.121584379e-01,3.78791e-01,9.99999e-01,9.99999e-01,9.96330e-01,9.40192e-01,4.04432e-01,9.99792e-01
8.162192301e-01,3.82002e-01,9.99999e-01,9.99999e-01,9.99188e-01,9.29253e-01,4.11729e-01,9.99222e-01
8.203003262e-01,4.03701e-01,9.99999e-01,9.99999e-01,9.99987e-01,9.64351e-01,4.19010e-01,9.99089e-01
8.244018279e-01,4.04795e-01,9.99999e-01,9.99999e-01,9.99999e-01,9.50305e-01,4.26271e-01,9.99275e-01
8.285238370e-01,4.14726e-01,9.99999e-01,9.99999e-01,9.99999e-01,9.57210e-01,4.33511e-01,9.99430e-01
8.326664562e-01,4.21556e-01,9.99999e-01,9.99999e-01,9.99999e-01,9.56722e-01,4.40728e-01,9.99764e-01
8.368297885e-01,4.33953e-01,9.99999e-01,9.99999e-01,9.99999e-01,9.68872e-01,4.47919e-01,9.99945e-01
8.410139374e-01,4.46598e-01,9.99999e-01,9.99999e-01,9.99999e-01,9.81389e-01,4.55081e-01,9.99968e-01
8.452190071e-01,4.57967e-01,9.99999e-01,9.99999e-01,9.99999e-01,9.90830e-01,4.62213e-01,9.99980e-01
8.494451021e-01,4.66808e-01,9.99999e-01,9.99999e-01,9.99999e-01,9.94676e-01,4.69313e-01,9.99984e-01
8.536923276e-01,4.74872e-01,9.99999e-01,9.99999e-01,9.99999e-01,9.96846e-01,4.76378e-01,9.99990e-01
8.579607893e-01,4.82468e-01,9.99999e-01,9.99999e-01,9.99999e-01,9.98058e-01,4.83407e-01,9.99997e-01
8.622505932e-01,4.89793e-01,9.99999e-01,9.99999e-01,9.99999e-01,9.98765e-01,4.90398e-01,9.99999e-01
8.665618462e-01,4.51532e-01,9.99999e-01,9.99999e-01,9.08536e-01,9.99236e-01,4.97349e-01,9.99999e-01
8.708946554e-01,2.91469e-01,9.99999e-01,9.99999e-01,5.78496e-01,9.99126e-01,5.04258e-01,9.99999e-01
8.752491287e-01,3.27084e-01,9.99999e-01,9.99999e-01,6.40649e-01,9.98831e-01,5.11124e-01,9.99998e-01
8.796253743e-01,4.04156e-01,9.99999e-01,9.99999e-01,7.81519e-01,9.98383e-01,5.17945e-01,9.99995e-01
8.840235012e-01,4.60671e-01,9.99999e-01,9.99999e-01,8.79537e-01,9.98153e-01,5.24720e-01,9.99988e-01
8.884436187e-01,5.01826e-01,9.99999e-01,9.99999e-01,9.50571e-01,9.93304e-01,5.31446e-01,9.99967e-01
8.928858368e-01,4.91110e-01,9.99999e-01,9.99999e-01,9.79679e-01,9.31497e-01,5.38124e-01,9.99814e-01
8.973502660e-01,4.77607e-01,9.99999e-01,9.99999e-01,9.95021e-01,8.81835e-01,5.44751e-01,9.99053e-01
9.018370173e-01,5.15959e-01,9.99999e-01,9.99999e-01,9.99449e-01,9.37736e-01,5.51326e-01,9.98513e-01
9.063462024e-01,5.19582e-01,9.99999e-01,9.99999e-01,9.86113e-01,9.45158e-01,5.57849e-01,9.98693e-01
9.108779334e-01,4.99894e-01,9.99999e-01,9.99999e-01,9.68144e-01,9.15708e-01,5.64317e-01,9.98642e-01
9.154323231e-01,5.11980e-01,9.99999e-01,9.99999e-01,9.92417e-01,9.04718e-01,5.70731e-01,9.98877e-01
9.200094847e-01,4.81942e-01,9.99999e-01,9.99999e-01,8.98698e-01,9.24573e-01,5.77089e-01,9.99371e-01
9.246095321e-01,4.42549e-01,9.99999e-01,9.99999e-01,8.53674e-01,8.85833e-01,5.83389e-01,9.99275e-01
9.292325798e-01,2.37145e-01,9.99999e-01,9.99999e-01,8.84093e-01,4.48519e-01,5.89633e-01,9.97180e-01
9.338787427e-01,1.88950e-01,9.99999e-01,9.99999e-01,8.87216e-01,3.55745e-01,5.95817e-01,9.88397e-01
9.385481364e-01,3.60201e-01,9.99999e-01,9.99999e-01,9.15678e-01,6.58047e-01,6.01943e-01,9.86216e-01
9.432408771e-01,3.22004e-01,9.99999e-01,9.99999e-01,9.47412e-01,5.63472e-01,6.08008e-01,9.88097e-01
9.479570815e-01,2.70015e-01,9.99999e-01,9.99999e-01,9.72677e-01,4.55628e-01,6.14013e-01,9.90301e-01
9.526968669e-01,3.34979e-01,9.99999e-01,9.99999e-01,9.86731e-01,5.50002e-01,6.19957e-01,9.94073e-01
9.574603512e-01,3.55235e-01,9.99999e-01,9.99999e-01,9.94303e-01,5.72288e-01,6.25840e-01,9.96984e-01
9.622476530e-01,3.98573e-01,9.99999e-01,9.99999e-01,9.98219e-01,6.33344e-01,6.31660e-01,9.97913e-01
9.670588912e-01,4.88679e-01,9.99999e-01,9.99999e-01,9.99465e-01,7.68129e-01,6.37418e-01,9.98572e-01
9.718941857e-01,5.44249e-01,9.99999e-01,9.99999e-01,9.99961e-01,8.47191e-01,6.43113e-01,9.98949e-01
9.767536566e-01,5.64841e-01,9.99999e-01,9.99999e-01,9.99999e-01,8.71365e-01,6.48745e-01,9.99196e-01
9.816374249e-01,5.90587e-01,9.99999e-01,9.99999e-01,9.99999e-01,9.02855e-01,6.54314e-01,9.99721e-01
9.865456120e-01,6.18951e-01,9.99999e-01,9.99999e-01,9.99999e-01,9.38115e-01,6.59819e-01,9.99941e-01
9.914783401e-01,6.39490e-01,9.99999e-01,9.99999e-01,9.99999e-01,9.61277e-01,6.65260e-01,9.99983e-01
9.964357318e-01,6.56364e-01,9.99999e-01,9.99999e-01,9.99999e-01,9.78724e-01,6.70638e-01,9.99990e-01
1.001417910e+00,6.67286e-01,9.99999e-01,9.99999e-01,9.99999e-01,9.87194e-01,6.75951e-01,9.99985e-01
1.006425000e+00,6.76204e-01,9.99999e-01,9.99999e-01,9.99999e-01,9.92684e-01,6.81200e-01,9.99979e-01
1.011457125e+00,6.83251e-01,9.99999e-01,9.99999e-01,9.99999e-01,9.95451e-01,6.86386e-01,9.99980e-01
1.016514411e+00,6.89362e-01,9.99999e-01,9.99999e-01,9.99999e-01,9.96911e-01,6.91507e-01,9.99986e-01
1.021596983e+00,6.94790e-01,9.99999e-01,9.99999e-01,9.99927e-01,9.97538e-01,6.96564e-01,9.99986e-01
1.026704968e+00,6.96395e-01,9.99999e-01,9.99999e-01,9.94556e-01,9.98079e-01,7.01556e-01,9.99990e-01
1.031838492e+00,6.65706e-01,9.99999e-01,9.99999e-01,9.43549e-01,9.98603e-01,7.06486e-01,9.99997e-01
1.036997685e+00,7.70157e-02,9.99999e-01,9.99999e-01,1.08336e-01,9.99170e-01,7.11351e-01,9.99999e-01
1.042182673e+00,3.61540e-02,9.99999e-01,9.99999e-01,5.05262e-02,9.99012e-01,7.16153e-01,9.99999e-01
1.047393587e+00,5.36852e-02,9.99999e-01,9.99999e-01,7.45554e-02,9.98689e-01,7.20891e-01,9.99999e-01
1.052630555e+00,3.95697e-04,9.99999e-01,9.99999e-01,5.46047e-04,9.98202e-01,7.25566e-01,9.99999e-01
1.057893707e+00,1.20590e-03,9.99999e-01,9.99999e-01,1.65458e-03,9.97002e-01,7.30178e-01,9.99998e-01
1.063183176e+00,6.27480e-03,9.99999e-01,9.99999e-01,8.56848e-03,9.95069e-01,7.34728e-01,9.99996e-01
1.068499092e+00,2.47161e-02,9.99999e-01,9.99999e-01,3.36557e-02,9.91752e-01,7.39215e-01,9.99993e-01
1.073841587e+00,8.57016e-02,9.99999e-01,9.99999e-01,1.16158e-01,9.90359e-01,7.43640e-01,9.99987e-01
