#,Wave/freq,Total,N2,O2,CO2,H2O,Rayleigh,CIA
4.000000000e-01,1.14095e-08,9.99999e-01,9.99999e-01,9.99999e-01,9.99964e-01,1.14099e-08,9.99999e-01
4.020000000e-01,1.63804e-08,9.99999e-01,9.99999e-01,9.99999e-01,9.99977e-01,1.63808e-08,9.99999e-01
4.040100000e-01,2.33408e-08,9.99999e-01,9.99999e-01,9.99999e-01,9.99990e-01,2.33411e-08,9.99999e-01
4.060300500e-01,3.30269e-08,9.99999e-01,9.99999e-01,9.99999e-01,9.99997e-01,3.30270e-08,9.99999e-01
4.080602003e-01,4.64130e-08,9.99999e-01,9.99999e-01,9.99999e-01,9.99998e-01,4.64130e-08,9.99999e-01
4.101005013e-01,6.47876e-08,9.99999e-01,9.99999e-01,9.99999e-01,9.99999e-01,6.47876e-08,9.99999e-01
4.121510038e-01,8.98426e-08,9.99999e-01,9.99999e-01,9.99999e-01,9.99998e-01,8.98427e-08,9.99999e-01
4.142117588e-01,1.23784e-07,9.99999e-01,9.99999e-01,9.99999e-01,9.99989e-01,1.23785e-07,9.99999e-01
4.162828176e-01,1.69468e-07,9.99999e-01,9.99999e-01,9.99999e-01,9.99955e-01,1.69475e-07,9.99999e-01
4.183642317e-01,2.30588e-07,9.99999e-01,9.99999e-01,9.99999e-01,9.99973e-01,2.30594e-07,9.99999e-01
4.204560528e-01,3.11847e-07,9.99999e-01,9.99999e-01,9.99999e-01,9.99983e-01,3.11852e-07,9.99999e-01
4.225583331e-01,4.19234e-07,9.99999e-01,9.99999e-01,9.99999e-01,9.99993e-01,4.19236e-07,9.99999e-01
4.246711247e-01,5.60311e-07,9.99999e-01,9.99999e-01,9.99999e-01,9.99994e-01,5.60313e-07,9.99999e-01
4.267944804e-01,7.44581e-07,9.99999e-01,9.99999e-01,9.99999e-01,9.99992e-01,7.44586e-07,9.99999e-01
4.289284528e-01,9.83915e-07,9.99999e-01,9.99999e-01,9.99999e-01,9.99994e-01,9.83920e-07,9.99999e-01
4.310730950e-01,1.29304e-06,9.99999e-01,9.99999e-01,9.99999e-01,9.99997e-01,1.29305e-06,9.99999e-01
4.332284605e-01,1.69014e-06,9.99999e-01,9.99999e-01,9.99999e-01,9.99998e-01,1.69014e-06,9.99999e-01
4.353946028e-01,2.19754e-06,9.99999e-01,9.99999e-01,9.99999e-01,9.99999e-01,2.19754e-06,9.99999e-01
4.375715758e-01,2.84247e-06,9.99999e-01,9.99999e-01,9.99999e-01,9.99995e-01,2.84248e-06,9.99999e-01
4.397594337e-01,3.65792e-06,9.99999e-01,9.99999e-01,9.99999e-01,9.99961e-01,3.65806e-06,9.99999e-01
4.419582309e-01,4.68334e-06,9.99999e-01,9.99999e-01,9.99999e-01,9.99806e-01,4.68425e-06,9.99999e-01
4.441680220e-01,5.96818e-06,9.99999e-01,9.99999e-01,9.99999e-01,9.99847e-01,5.96909e-06,9.99999e-01
4.463888621e-01,7.56882e-06,9.99999e-01,9.99999e-01,9.99999e-01,9.99841e-01,7.57001e-06,9.99999e-01
4.486208064e-01,9.55442e-06,9.99999e-01,9.99999e-01,9.99999e-01,9.99901e-01,9.55536e-06,9.99999e-01
4.508639105e-01,1.20055e-05,9.99999e-01,9.99999e-01,9.99999e-01,9.99953e-01,1.20060e-05,9.99999e-01
4.531182300e-01,1.50171e-05,9.99999e-01,9.99999e-01,9.99999e-01,9.99981e-01,1.50174e-05,9.99999e-01
4.553838212e-01,1.87009e-05,9.99999e-01,9.99999e-01,9.99999e-01,9.99987e-01,1.87011e-05,9.99999e-01
4.576607403e-01,2.31877e-05,9.99999e-01,9.99999e-01,9.99999e-01,9.99993e-01,2.31878e-05,9.99999e-01
4.599490440e-01,2.86290e-05,9.99999e-01,9.99999e-01,9.99999e-01,9.99995e-01,2.86291e-05,9.99999e-01
4.622487892e-01,3.52003e-05,9.99999e-01,9.99999e-01,9.99999e-01,9.99998e-01,3.52004e-05,9.99999e-01
4.645600332e-01,4.31035e-05,9.99999e-01,9.99999e-01,9.99999e-01,9.99996e-01,4.31036e-05,9.99999e-01
4.668828333e-01,5.25682e-05,9.99999e-01,9.99999e-01,9.99999e-01,9.99953e-01,5.25706e-05,9.99999e-01
4.692172475e-01,6.38596e-05,9.99999e-01,9.99999e-01,9.99999e-01,9.99900e-01,6.38659e-05,9.99999e-01
4.715633337e-01,7.72854e-05,9.99999e-01,9.99999e-01,9.99999e-01,9.99934e-01,7.72904e-05,9.99999e-01
4.739211504e-01,9.31790e-05,9.99999e-01,9.99999e-01,9.99999e-01,9.99937e-01,9.31848e-05,9.99999e-01
4.762907561e-01,1.11930e-04,9.99999e-01,9.99999e-01,9.99999e-01,9.99967e-01,1.11934e-04,9.99999e-01
4.786722099e-01,1.33967e-04,9.99999e-01,9.99999e-01,9.99999e-01,9.99986e-01,1.33969e-04,9.99999e-01
4.810655710e-01,1.59773e-04,9.99999e-01,9.99999e-01,9.99999e-01,9.99995e-01,1.59773e-04,9.99999e-01
4.834708988e-01,1.89880e-04,9.99999e-01,9.99999e-01,9.99999e-01,9.99962e-01,1.89887e-04,9.99999e-01
4.858882533e-01,2.24892e-04,9.99999e-01,9.99999e-01,9.99999e-01,9.99929e-01,2.24907e-04,9.99999e-01
4.883176946e-01,2.65482e-04,9.99999e-01,9.99999e-01,9.99999e-01,9.99941e-01,2.65498e-04,9.99999e-01
4.907592831e-01,3.12371e-04,9.99999e-01,9.99999e-01,9.99999e-01,9.99946e-01,3.12388e-04,9.99999e-01
4.932130795e-01,3.66367e-04,9.99999e-01,9.99999e-01,9.99999e-01,9.99961e-01,3.66381e-04,9.99999e-01
4.956791449e-01,4.28346e-04,9.99999e-01,9.99999e-01,9.99999e-01,9.99979e-01,4.28355e-04,9.99999e-01
4.981575406e-01,4.99219e-04,9.99999e-01,9.99999e-01,9.99999e-01,9.99900e-01,4.99268e-04,9.99999e-01
5.006483283e-01,5.80013e-04,9.99999e-01,9.99999e-01,9.99999e-01,9.99742e-01,5.80163e-04,9.99997e-01
5.031515699e-01,6.71281e-04,9.99999e-01,9.99999e-01,9.99999e-01,9.98693e-01,6.72168e-04,9.99985e-01
5.056673278e-01,7.75954e-04,9.99999e-01,9.99999e-01,9.99999e-01,9.99308e-01,7.76503e-04,9.99983e-01
5.081956644e-01,8.93691e-04,9.99999e-01,9.99999e-01,9.99999e-01,9.99128e-01,8.94479e-04,9.99989e-01
5.107366428e-01,1.02690e-03,9.99999e-01,9.99999e-01,9.99999e-01,9.99410e-01,1.02751e-03,9.99997e-01
5.132903260e-01,1.17669e-03,9.99999e-01,9.99999e-01,9.99999e-01,9.99662e-01,1.17709e-03,9.99999e-01
5.158567776e-01,1.34464e-03,9.99999e-01,9.99999e-01,9.99999e-01,9.99857e-01,1.34483e-03,9.99999e-01
5.184360615e-01,1.53235e-03,9.99999e-01,9.99999e-01,9.99999e-01,9.99942e-01,1.53244e-03,9.99999e-01
5.210282418e-01,1.74169e-03,9.99999e-01,9.99999e-01,9.99999e-01,9.99978e-01,1.74172e-03,9.99999e-01
5.236333830e-01,1.97442e-03,9.99999e-01,9.99999e-01,9.99999e-01,9.99914e-01,1.97459e-03,9.99998e-01
5.262515499e-01,2.23293e-03,9.99999e-01,9.99999e-01,9.99999e-01,9.99946e-01,2.23305e-03,9.99998e-01
5.288828077e-01,2.51908e-03,9.99999e-01,9.99999e-01,9.99999e-01,9.99950e-01,2.51921e-03,9.99998e-01
5.315272217e-01,2.83515e-03,9.99999e-01,9.99999e-01,9.99999e-01,9.99956e-01,2.83528e-03,9.99999e-01
5.341848578e-01,3.18347e-03,9.99999e-01,9.99999e-01,9.99999e-01,9.99971e-01,3.18356e-03,9.99999e-01
5.368557821e-01,3.56610e-03,9.99999e-01,9.99999e-01,9.99999e-01,9.99900e-01,3.56645e-03,9.99999e-01
5.395400610e-01,3.98501e-03,9.99999e-01,9.99999e-01,9.99999e-01,9.99643e-01,3.98645e-03,9.99996e-01
5.422377613e-01,4.44401e-03,9.99999e-01,9.99999e-01,9.99999e-01,9.99535e-01,4.44611e-03,9.99991e-01
5.449489501e-01,4.94593e-03,9.99999e-01,9.99999e-01,9.99999e-01,9.99569e-01,4.94810e-03,9.99990e-01
5.476736949e-01,5.49302e-03,9.99999e-01,9.99999e-01,9.99999e-01,9.99617e-01,5.49514e-03,9.99995e-01
5.504120634e-01,6.08834e-03,9.99999e-01,9.99999e-01,9.99999e-01,9.99722e-01,6.09004e-03,9.99998e-01
5.531641237e-01,6.73470e-03,9.99999e-01,9.99999e-01,9.99999e-01,9.99860e-01,6.73564e-03,9.99999e-01
5.559299443e-01,7.43438e-03,9.99999e-01,9.99999e-01,9.99999e-01,9.99932e-01,7.43488e-03,9.99999e-01
5.587095940e-01,8.19037e-03,9.99999e-01,9.99999e-01,9.99999e-01,9.99957e-01,8.19071e-03,9.99999e-01
5.615031420e-01,9.00572e-03,9.99999e-01,9.99999e-01,9.99999e-01,9.99952e-01,9.00614e-03,9.99999e-01
5.643106577e-01,9.88368e-03,9.99999e-01,9.99999e-01,9.99999e-01,9.99946e-01,9.88420e-03,9.99999e-01
5.671322110e-01,1.08210e-02,9.99999e-01,9.99999e-01,9.99999e-01,9.99358e-01,1.08280e-02,9.99993e-01
5.699678720e-01,1.18321e-02,9.99999e-01,9.99999e-01,9.99999e-01,9.99308e-01,1.18405e-02,9.99981e-01
5.728177114e-01,1.29154e-02,9.99999e-01,9.99999e-01,9.99999e-01,9.99284e-01,1.29248e-02,9.99984e-01
5.756818000e-01,1.40747e-02,9.99999e-01,9.99999e-01,9.99999e-01,9.99342e-01,1.40841e-02,9.99990e-01
5.785602090e-01,1.53125e-02,9.99999e-01,9.99999e-01,9.99999e-01,9.99425e-01,1.53213e-02,9.99996e-01
5.814530100e-01,1.66299e-02,9.99999e-01,9.99999e-01,9.99999e-01,9.99424e-01,1.66395e-02,9.99998e-01
5.843602750e-01,1.80293e-02,9.99999e-01,9.99999e-01,9.99999e-01,9.99316e-01,1.80417e-02,9.99995e-01
5.872820764e-01,1.94151e-02,9.99999e-01,9.99999e-01,9.99999e-01,9.94118e-01,1.95308e-02,9.99957e-01
5.902184868e-01,2.09563e-02,9.99999e-01,9.99999e-01,9.99999e-01,9.92842e-01,2.11097e-02,9.99886e-01
5.931695792e-01,2.26638e-02,9.99999e-01,9.99999e-01,9.99999e-01,9.94948e-01,2.27813e-02,9.99890e-01
5.961354271e-01,2.44107e-02,9.99999e-01,9.99999e-01,9.99999e-01,9.94456e-01,2.45483e-02,9.99936e-01
5.991161043e-01,2.63058e-02,9.99999e-01,9.99999e-01,9.99999e-01,9.95952e-01,2.64132e-02,9.99980e-01
6.021116848e-01,2.83135e-02,9.99999e-01,9.99999e-01,9.99999e-01,9.97700e-01,2.83788e-02,9.99997e-01
6.051222432e-01,3.04121e-02,9.99999e-01,9.99999e-01,9.99999e-01,9.98835e-01,3.04475e-02,9.99999e-01
6.081478544e-01,3.26052e-02,9.99999e-01,9.99999e-01,9.99999e-01,9.99497e-01,3.26216e-02,9.99999e-01
6.111885937e-01,3.48959e-02,9.99999e-01,9.99999e-01,9.99999e-01,9.99786e-01,3.49034e-02,9.99999e-01
6.142445367e-01,3.72913e-02,9.99999e-01,9.99999e-01,9.99999e-01,9.99904e-01,3.72949e-02,9.99999e-01
6.173157594e-01,3.97961e-02,9.99999e-01,9.99999e-01,9.99999e-01,9.99947e-01,3.97981e-02,9.99999e-01
6.204023382e-01,4.24131e-02,9.99999e-01,9.99999e-01,9.99999e-01,9.99955e-01,4.24149e-02,9.99999e-01
6.235043498e-01,4.51383e-02,9.99999e-01,9.99999e-01,9.99999e-01,9.99806e-01,4.51470e-02,9.99999e-01
6.266218716e-01,4.79460e-02,9.99999e-01,9.99999e-01,9.99999e-01,9.98969e-01,4.79958e-02,9.99992e-01
6.297549810e-01,5.09427e-02,9.99999e-01,9.99999e-01,9.99999e-01,9.99621e-01,5.09627e-02,9.99985e-01
6.329037559e-01,5.40080e-02,9.99999e-01,9.99999e-01,9.99999e-01,9.99251e-01,5.40490e-02,9.99987e-01
6.360682746e-01,5.72189e-02,9.99999e-01,9.99999e-01,9.99999e-01,9.99364e-01,5.72556e-02,9.99992e-01
6.392486160e-01,6.05334e-02,9.99999e-01,9.99999e-01,9.99999e-01,9.99175e-01,6.05835e-02,9.99996e-01
6.424448591e-01,6.39627e-02,9.99999e-01,9.99999e-01,9.99999e-01,9.98901e-01,6.40333e-02,9.99994e-01
6.456570834e-01,6.72592e-02,9.99999e-01,9.99999e-01,9.99999e-01,9.94904e-01,6.76055e-02,9.99971e-01
6.488853688e-01,7.10274e-02,9.99999e-01,9.99999e-01,9.99999e-01,9.96247e-01,7.13006e-02,9.99920e-01
6.521297956e-01,7.48263e-02,9.99999e-01,9.99999e-01,9.99999e-01,9.96174e-01,7.51186e-02,9.99932e-01
6.553904446e-01,7.87566e-02,9.99999e-01,9.99999e-01,9.99999e-01,9.96217e-01,7.90595e-02,9.99949e-01
6.586673968e-01,8.28508e-02,9.99999e-01,9.99999e-01,9.99999e-01,9.96738e-01,8.31232e-02,9.99983e-01
6.619607338e-01,8.71443e-02,9.99999e-01,9.99999e-01,9.99999e-01,9.98113e-01,8.73093e-02,9.99996e-01
6.652705375e-01,9.15169e-02,9.99999e-01,9.99999e-01,9.99999e-01,9.98906e-01,9.16172e-02,9.99997e-01
6.685968902e-01,9.59975e-02,9.99999e-01,9.99999e-01,9.99999e-01,9.99491e-01,9.60463e-02,9.99999e-01
6.719398746e-01,1.00572e-01,9.99999e-01,9.99999e-01,9.99999e-01,9.99764e-01,1.00596e-01,9.99999e-01
6.752995740e-01,1.05251e-01,9.99999e-01,9.99999e-01,9.99999e-01,9.99872e-01,1.05264e-01,9.99999e-01
6.786760719e-01,1.10031e-01,9.99999e-01,9.99999e-01,9.99999e-01,9.99816e-01,1.10051e-01,9.99999e-01
6.820694522e-01,1.14918e-01,9.99999e-01,9.99999e-01,9.99999e-01,9.99685e-01,1.14954e-01,9.99997e-01
6.854797995e-01,1.19923e-01,9.99999e-01,9.99999e-01,9.99999e-01,9.99594e-01,1.19972e-01,9.99996e-01
6.889071985e-01,1.24981e-01,9.99999e-01,9.99999e-01,9.99999e-01,9.99026e-01,1.25104e-01,9.99990e-01
6.923517345e-01,1.28268e-01,9.99999e-01,9.99999e-01,9.99999e-01,9.84122e-01,1.30347e-01,9.99922e-01
6.958134932e-01,1.34542e-01,9.99999e-01,9.99999e-01,9.99999e-01,9.91635e-01,1.35700e-01,9.99826e-01
6.992925606e-01,1.40028e-01,9.99999e-01,9.99999e-01,9.99999e-01,9.92124e-01,1.41161e-01,9.99847e-01
7.027890234e-01,1.45279e-01,9.99999e-01,9.99999e-01,9.99999e-01,9.90246e-01,1.46727e-01,9.99882e-01
7.063029686e-01,1.51137e-01,9.99999e-01,9.99999e-01,9.99999e-01,9.91796e-01,1.52396e-01,9.99941e-01
7.098344834e-01,1.56915e-01,9.99999e-01,9.99999e-01,9.99999e-01,9.92127e-01,1.58166e-01,9.99965e-01
7.133836558e-01,1.62314e-01,9.99999e-01,9.99999e-01,9.99999e-01,9.89586e-01,1.64033e-01,9.99931e-01
7.169505741e-01,1.56170e-01,9.99999e-01,9.99999e-01,9.99999e-01,9.19163e-01,1.69996e-01,9.99461e-01
7.205353270e-01,1.68712e-01,9.99999e-01,9.99999e-01,9.99999e-01,9.59221e-01,1.76051e-01,9.99049e-01
7.241380036e-01,1.72731e-01,9.99999e-01,9.99999e-01,9.99999e-01,9.48828e-01,1.82196e-01,9.99179e-01
7.277586936e-01,1.79582e-01,9.99999e-01,9.99999e-01,9.99999e-01,9.53690e-01,1.88428e-01,9.99329e-01
7.313974871e-01,1.85073e-01,9.99999e-01,9.99999e-01,9.99999e-01,9.50641e-01,1.94744e-01,9.99685e-01
7.350544745e-01,1.95638e-01,9.99999e-01,9.99999e-01,9.99999e-01,9.72751e-01,2.01140e-01,9.99890e-01
7.387297469e-01,2.03423e-01,9.99999e-01,9.99999e-01,9.99999e-01,9.79865e-01,2.07614e-01,9.99949e-01
7.424233956e-01,2.12037e-01,9.99999e-01,9.99999e-01,9.99999e-01,9.90088e-01,2.14162e-01,9.99989e-01
7.461355126e-01,2.19453e-01,9.99999e-01,9.99999e-01,9.99999e-01,9.93987e-01,2.20781e-01,9.99997e-01
7.498661902e-01,2.26829e-01,9.99999e-01,9.99999e-01,9.99999e-01,9.97193e-01,2.27468e-01,9.99998e-01
7.536155211e-01,2.33897e-01,9.99999e-01,9.99999e-01,9.99999e-01,9.98624e-01,2.34219e-01,9.99999e-01
7.573835987e-01,2.40861e-01,9.99999e-01,9.99999e-01,9.99999e-01,9.99291e-01,2.41031e-01,9.99999e-01
7.611705167e-01,2.47793e-01,9.99999e-01,9.99999e-01,9.99999e-01,9.99559e-01,2.47902e-01,9.99999e-01
7.649763693e-01,2.54756e-01,9.99999e-01,9.99999e-01,9.99999e-01,9.99723e-01,2.54826e-01,9.99999e-01
7.688012511e-01,2.61751e-01,9.99999e-01,9.99999e-01,9.99999e-01,9.99807e-01,2.61801e-01,9.99999e-01
7.726452574e-01,2.68782e-01,9.99999e-01,9.99999e-01,9.99999e-01,9.99841e-01,2.68824e-01,9.99999e-01
7.765084837e-01,2.75830e-01,9.99999e-01,9.99999e-01,9.99999e-01,9.99776e-01,2.75891e-01,9.99999e-01
7.803910261e-01,2.67672e-01,9.99999e-01,9.99999e-01,9.46707e-01,9.99035e-01,2.82999e-01,9.99998e-01
7.842929812e-01,2.23636e-01,9.99999e-01,9.99999e-01,7.73180e-01,9.96636e-01,2.90144e-01,9.99993e-01
7.882144461e-01,2.24750e-01,9.99999e-01,9.99999e-01,7.60897e-01,9.93050e-01,2.97323e-01,9.99956e-01
7.921555184e-01,2.57864e-01,9.99999e-01,9.99999e-01,8.49950e-01,9.96175e-01,3.04532e-01,9.99917e-01
7.961162960e-01,2.77521e-01,9.99999e-01,9.99999e-01,8.96142e-01,9.93284e-01,3.11769e-01,9.99920e-01
8.000968774e-01,2.98273e-01,9.99999e-01,9.99999e-01,9.42308e-01,9.92223e-01,3.19029e-01,9.99915e-01
8.040973618e-01,3.13923e-01,9.99999e-01,9.99999e-01,9.69612e-01,9.92227e-01,3.26311e-01,9.99932e-01
8.081178486e-01,3.23202e-01,9.99999e-01,9.99999e-01,9.85959e-01,9.82618e-01,3.33609e-01,9.99937e-01
8.121584379e-01,3.15449e-01,9.99999e-01,9.99999e-01,9.95626e-01,9.29504e-01,3.40922e-01,9.99753e-01
8.162192301e-01,3.18581e-01,9.99999e-01,9.99999e-01,9.99032e-01,9.16518e-01,3.48246e-01,9.99075e-01
8.203003262e-01,3.40292e-01,9.99999e-01,9.99999e-01,9.99984e-01,9.58058e-01,3.55578e-01,9.98917e-01
8.244018279e-01,3.41324e-01,9.99999e-01,9.99999e-01,9.99999e-01,9.41316e-01,3.62916e-01,9.99138e-01
8.285238370e-01,3.51289e-01,9.99999e-01,9.99999e-01,9.99999e-01,9.49419e-01,3.70255e-01,9.99323e-01
8.326664562e-01,3.58161e-01,9.99999e-01,9.99999e-01,9.99999e-01,9.48802e-01,3.77593e-01,9.99719e-01
8.368297885e-01,3.70697e-01,9.99999e-01,9.99999e-01,9.99999e-01,9.63092e-01,3.84927e-01,9.99935e-01
8.410139374e-01,3.83572e-01,9.99999e-01,9.99999e-01,9.99999e-01,9.77900e-01,3.92255e-01,9.99962e-01
8.452190071e-01,3.95208e-01,9.99999e-01,9.99999e-01,9.99999e-01,9.89097e-01,3.99573e-01,9.99977e-01
8.494451021e-01,4.04298e-01,9.99999e-01,9.99999e-01,9.99999e-01,9.93672e-01,4.06879e-01,9.99981e-01
8.536923276e-01,4.12612e-01,9.99999e-01,9.99999e-01,9.99999e-01,9.96248e-01,4.14171e-01,9.99987e-01
8.579607893e-01,4.20471e-01,9.99999e-01,9.99999e-01,9.99999e-01,9.97691e-01,4.21445e-01,9.99996e-01
8.622505932e-01,4.28071e-01,9.99999e-01,9.99999e-01,9.99999e-01,9.98531e-01,4.28700e-01,9.99999e-01
8.665618462e-01,3.92436e-01,9.99999e-01,9.99999e-01,9.00996e-01,9.99092e-01,4.35933e-01,9.99999e-01
8.708946554e-01,2.32907e-01,9.99999e-01,9.99999e-01,5.26098e-01,9.98962e-01,4.43141e-01,9.99998e-01
8.752491287e-01,2.65881e-01,9.99999e-01,9.99999e-01,5.91206e-01,9.98611e-01,4.50322e-01,9.99998e-01
8.796253743e-01,3.40921e-01,9.99999e-01,9.99999e-01,7.46588e-01,9.98080e-01,4.57475e-01,9.99995e-01
8.840235012e-01,3.98009e-01,9.99999e-01,9.99999e-01,8.58523e-01,9.97807e-01,4.64596e-01,9.99986e-01
8.884436187e-01,4.40584e-01,9.99999e-01,9.99999e-01,9.41425e-01,9.92089e-01,4.71685e-01,9.99961e-01
8.928858368e-01,4.29593e-01,9.99999e-01,9.99999e-01,9.75857e-01,9.19415e-01,4.78738e-01,9.99780e-01
8.973502660e-01,4.15583e-01,9.99999e-01,9.99999e-01,9.94065e-01,8.61439e-01,4.85755e-01,9.98875e-01
9.018370173e-01,4.55405e-01,9.99999e-01,9.99999e-01,9.99343e-01,9.26457e-01,4.92732e-01,9.98232e-01
9.063462024e-01,4.59433e-01,9.99999e-01,9.99999e-01,9.83639e-01,9.35398e-01,4.99669e-01,9.98447e-01
9.108779334e-01,4.38752e-01,9.99999e-01,9.99999e-01,9.62225e-01,9.00872e-01,5.06564e-01,9.98386e-01
9.154323231e-01,4.51323e-01,9.99999e-01,9.99999e-01,9.90963e-01,8.87969e-01,5.13415e-01,9.98666e-01
9.200094847e-01,4.21562e-01,9.99999e-01,9.99999e-01,8.83167e-01,9.11120e-01,5.20221e-01,9.99253e-01
9.246095321e-01,3.80306e-01,9.99999e-01,9.99999e-01,8.28644e-01,8.67135e-01,5.26979e-01,9.99139e-01
9.292325798e-01,1.83910e-01,9.99999e-01,9.99999e-01,8.64474e-01,3.91111e-01,5.33690e-01,9.96649e-01
9.338787427e-01,1.40551e-01,9.99999e-01,9.99999e-01,8.67589e-01,2.97475e-01,5.40350e-01,9.86223e-01
9.385481364e-01,2.99151e-01,9.99999e-01,9.99999e-01,9.00616e-01,6.11584e-01,5.46960e-01,9.83636e-01
9.432408771e-01,2.63612e-01,9.99999e-01,9.99999e-01,9.37728e-01,5.12381e-01,5.53518e-01,9.85867e-01
9.479570815e-01,2.14814e-01,9.99999e-01,9.99999e-01,9.67583e-01,3.99987e-01,5.60023e-01,9.88482e-01
9.526968669e-01,2.75190e-01,9.99999e-01,9.99999e-01,9.84230e-01,4.96047e-01,5.66473e-01,9.92959e-01
9.574603512e-01,2.93834e-01,9.99999e-01,9.99999e-01,9.93222e-01,5.17897e-01,5.72868e-01,9.96417e-01
9.622476530e-01,3.36017e-01,9.99999e-01,9.99999e-01,9.97880e-01,5.82688e-01,5.79207e-01,9.97520e-01
9.670588912e-01,4.27500e-01,9.99999e-01,9.99999e-01,9.99363e-01,7.31826e-01,5.85488e-01,9.98303e-01
9.718941857e-01,4.85374e-01,9.99999e-01,9.99999e-01,9.99954e-01,8.21346e-01,5.91712e-01,9.98750e-01
9.767536566e-01,5.07243e-01,9.99999e-01,9.99999e-01,9.99999e-01,8.49216e-01,5.97877e-01,9.99045e-01
9.816374249e-01,5.34730e-01,9.99999e-01,9.99999e-01,9.99999e-01,8.85633e-01,6.03982e-01,9.99669e-01
9.865456120e-01,5.65367e-01,9.99999e-01,9.99999e-01,9.99999e-01,9.26853e-01,6.10027e-01,9.99930e-01
9.914783401e-01,5.87739e-01,9.99999e-01,9.99999e-01,9.99999e-01,9.54121e-01,6.16012e-01,9.99980e-01
9.964357318e-01,6.06223e-01,9.99999e-01,9.99999e-01,9.99999e-01,9.74746e-01,6.21936e-01,9.99988e-01
1.001417910e+00,6.18235e-01,9.99999e-01,9.99999e-01,9.99999e-01,9.84785e-01,6.27797e-01,9.99982e-01
1.006425000e+00,6.28075e-01,9.99999e-01,9.99999e-01,9.99999e-01,9.91307e-01,6.33597e-01,9.99975e-01
1.011457125e+00,6.35861e-01,9.99999e-01,9.99999e-01,9.99999e-01,9.94590e-01,6.39334e-01,9.99976e-01
1.016514411e+00,6.42629e-01,9.99999e-01,9.99999e-01,9.99999e-01,9.96327e-01,6.45008e-01,9.99983e-01
1.021596983e+00,6.48651e-01,9.99999e-01,9.99999e-01,9.99916e-01,9.97073e-01,6.50619e-01,9.99983e-01
1.026704968e+00,6.50459e-01,9.99999e-01,9.99999e-01,9.93575e-01,9.97717e-01,6.56166e-01,9.99988e-01
1.031838492e+00,6.19413e-01,9.99999e-01,9.99999e-01,9.37662e-01,9.98339e-01,6.61650e-01,9.99996e-01
1.036997685e+00,6.18684e-02,9.99999e-01,9.99999e-01,9.28169e-02,9.99014e-01,6.67070e-01,9.99999e-01
1.042182673e+00,2.07546e-02,9.99999e-01,9.99999e-01,3.08955e-02,9.98826e-01,6.72426e-01,9.99999e-01
1.047393587e+00,3.50186e-02,9.99999e-01,9.99999e-01,5.17408e-02,9.98443e-01,6.77718e-01,9.99999e-01
1.052630555e+00,1.22850e-04,9.99999e-01,9.99999e-01,1.80145e-04,9.97865e-01,6.82945e-01,9.99998e-01
1.057893707e+00,4.01176e-04,9.99999e-01,9.99999e-01,5.84245e-04,9.96440e-01,6.88109e-01,9.99998e-01
1.063183176e+00,2.70136e-03,9.99999e-01,9.99999e-01,3.91168e-03,9.94145e-01,6.93209e-01,9.99996e-01
1.068499092e+00,1.27550e-02,9.99999e-01,9.99999e-01,1.84057e-02,9.90208e-01,6.98244e-01,9.99992e-01
1.073841587e+00,5.47712e-02,9.99999e-01,9.99999e-01,7.86017e-02,9.88562e-01,7.03216e-01,9.99985e-01
