#,Wave/freq,Total,N2,O2,CO2,H2O,Rayleigh,CIA
4.000000000e-01,1.22391e-06,9.99999e-01,9.99999e-01,9.99999e-01,9.99973e-01,1.22394e-06,9.99999e-01
4.020000000e-01,1.60197e-06,9.99999e-01,9.99999e-01,9.99999e-01,9.99983e-01,1.60199e-06,9.99999e-01
4.040100000e-01,2.08512e-06,9.99999e-01,9.99999e-01,9.99999e-01,9.99992e-01,2.08513e-06,9.99999e-01
4.060300500e-01,2.69988e-06,9.99999e-01,9.99999e-01,9.99999e-01,9.99997e-01,2.69988e-06,9.99999e-01
4.080602003e-01,3.47807e-06,9.99999e-01,9.99999e-01,9.99999e-01,9.99998e-01,3.47808e-06,9.99999e-01
4.101005013e-01,4.45822e-06,9.99999e-01,9.99999e-01,9.99999e-01,9.99999e-01,4.45822e-06,9.99999e-01
4.121510038e-01,5.68661e-06,9.99999e-01,9.99999e-01,9.99999e-01,9.99998e-01,5.68661e-06,9.99999e-01
4.142117588e-01,7.21863e-06,9.99999e-01,9.99999e-01,9.99999e-01,9.99992e-01,7.21869e-06,9.99999e-01
4.162828176e-01,9.12016e-06,9.99999e-01,9.99999e-01,9.99999e-01,9.99967e-01,9.12045e-06,9.99999e-01
4.183642317e-01,1.14699e-05,9.99999e-01,9.99999e-01,9.99999e-01,9.99980e-01,1.14701e-05,9.99999e-01
4.204560528e-01,1.43598e-05,9.99999e-01,9.99999e-01,9.99999e-01,9.99987e-01,1.43600e-05,9.99999e-01
4.225583331e-01,1.78982e-05,9.99999e-01,9.99999e-01,9.99999e-01,9.99995e-01,1.78983e-05,9.99999e-01
4.246711247e-01,2.22116e-05,9.99999e-01,9.99999e-01,9.99999e-01,9.99995e-01,2.22117e-05,9.99999e-01
4.267944804e-01,2.74470e-05,9.99999e-01,9.99999e-01,9.99999e-01,9.99994e-01,2.74472e-05,9.99999e-01
4.289284528e-01,3.37751e-05,9.99999e-01,9.99999e-01,9.99999e-01,9.99995e-01,3.37753e-05,9.99999e-01
4.310730950e-01,4.13923e-05,9.99999e-01,9.99999e-01,9.99999e-01,9.99997e-01,4.13923e-05,9.99999e-01
4.332284605e-01,5.05238e-05,9.99999e-01,9.99999e-01,9.99999e-01,9.99999e-01,5.05239e-05,9.99999e-01
4.353946028e-01,6.14275e-05,9.99999e-01,9.99999e-01,9.99999e-01,9.99999e-01,6.14275e-05,9.99999e-01
4.375715758e-01,7.43964e-05,9.99999e-01,9.99999e-01,9.99999e-01,9.99996e-01,7.43967e-05,9.99999e-01
4.397594337e-01,8.97611e-05,9.99999e-01,9.99999e-01,9.99999e-01,9.99970e-01,8.97636e-05,9.99999e-01
4.419582309e-01,1.07888e-04,9.99999e-01,9.99999e-01,9.99999e-01,9.99853e-01,1.07904e-04,9.99999e-01
4.441680220e-01,1.29225e-04,9.99999e-01,9.99999e-01,9.99999e-01,9.99887e-01,1.29239e-04,9.99999e-01
4.463888621e-01,1.54224e-04,9.99999e-01,9.99999e-01,9.99999e-01,9.99882e-01,1.54242e-04,9.99999e-01
4.486208064e-01,1.83428e-04,9.99999e-01,9.99999e-01,9.99999e-01,9.99926e-01,1.83441e-04,9.99999e-01
4.508639105e-01,2.17414e-04,9.99999e-01,9.99999e-01,9.99999e-01,9.99965e-01,2.17421e-04,9.99999e-01
4.531182300e-01,2.56828e-04,9.99999e-01,9.99999e-01,9.99999e-01,9.99986e-01,2.56832e-04,9.99999e-01
4.553838212e-01,3.02387e-04,9.99999e-01,9.99999e-01,9.99999e-01,9.99990e-01,3.02390e-04,9.99999e-01
4.576607403e-01,3.54881e-04,9.99999e-01,9.99999e-01,9.99999e-01,9.99995e-01,3.54882e-04,9.99999e-01
4.599490440e-01,4.15172e-04,9.99999e-01,9.99999e-01,9.99999e-01,9.99996e-01,4.15173e-04,9.99999e-01
4.622487892e-01,4.84202e-04,9.99999e-01,9.99999e-01,9.99999e-01,9.99998e-01,4.84203e-04,9.99999e-01
4.645600332e-01,5.62996e-04,9.99999e-01,9.99999e-01,9.99999e-01,9.99997e-01,5.62997e-04,9.99999e-01
4.668828333e-01,6.52644e-04,9.99999e-01,9.99999e-01,9.99999e-01,9.99964e-01,6.52667e-04,9.99999e-01
4.692172475e-01,7.54358e-04,9.99999e-01,9.99999e-01,9.99999e-01,9.99925e-01,7.54413e-04,9.99999e-01
4.715633337e-01,8.69488e-04,9.99999e-01,9.99999e-01,9.99999e-01,9.99951e-01,8.69530e-04,9.99999e-01
4.739211504e-01,9.99358e-04,9.99999e-01,9.99999e-01,9.99999e-01,9.99953e-01,9.99404e-04,9.99999e-01
4.762907561e-01,1.14550e-03,9.99999e-01,9.99999e-01,9.99999e-01,9.99975e-01,1.14552e-03,9.99999e-01
4.786722099e-01,1.30946e-03,9.99999e-01,9.99999e-01,9.99999e-01,9.99989e-01,1.30947e-03,9.99999e-01
4.810655710e-01,1.49293e-03,9.99999e-01,9.99999e-01,9.99999e-01,9.99996e-01,1.49293e-03,9.99999e-01
4.834708988e-01,1.69765e-03,9.99999e-01,9.99999e-01,9.99999e-01,9.99970e-01,1.69770e-03,9.99999e-01
4.858882533e-01,1.92555e-03,9.99999e-01,9.99999e-01,9.99999e-01,9.99947e-01,1.92565e-03,9.99999e-01
4.883176946e-01,2.17868e-03,9.99999e-01,9.99999e-01,9.99999e-01,9.99955e-01,2.17878e-03,9.99999e-01
4.907592831e-01,2.45908e-03,9.99999e-01,9.99999e-01,9.99999e-01,9.99960e-01,2.45918e-03,9.99999e-01
4.932130795e-01,2.76896e-03,9.99999e-01,9.99999e-01,9.99999e-01,9.99971e-01,2.76904e-03,9.99999e-01
4.956791449e-01,3.11059e-03,9.99999e-01,9.99999e-01,9.99999e-01,9.99984e-01,3.11063e-03,9.99999e-01
4.981575406e-01,3.48609e-03,9.99999e-01,9.99999e-01,9.99999e-01,9.99925e-01,3.48635e-03,9.99999e-01
5.006483283e-01,3.89790e-03,9.99999e-01,9.99999e-01,9.99999e-01,9.99805e-01,3.89866e-03,9.99998e-01
5.031515699e-01,4.34583e-03,9.99999e-01,9.99999e-01,9.99999e-01,9.99024e-01,4.35012e-03,9.99989e-01
5.056673278e-01,4.84081e-03,9.99999e-01,9.99999e-01,9.99999e-01,9.99486e-01,4.84336e-03,9.99987e-01
5.081956644e-01,5.37757e-03,9.99999e-01,9.99999e-01,9.99999e-01,9.99352e-01,5.38109e-03,9.99992e-01
5.107366428e-01,5.96350e-03,9.99999e-01,9.99999e-01,9.99999e-01,9.99562e-01,5.96611e-03,9.99998e-01
5.132903260e-01,6.59962e-03,9.99999e-01,9.99999e-01,9.99999e-01,9.99750e-01,6.60126e-03,9.99999e-01
5.158567776e-01,7.28868e-03,9.99999e-01,9.99999e-01,9.99999e-01,9.99894e-01,7.28945e-03,9.99999e-01
5.184360615e-01,8.03329e-03,9.99999e-01,9.99999e-01,9.99999e-01,9.99957e-01,8.03363e-03,9.99999e-01
5.210282418e-01,8.83666e-03,9.99999e-01,9.99999e-01,9.99999e-01,9.99983e-01,8.83680e-03,9.99999e-01
5.236333830e-01,9.70137e-03,9.99999e-01,9.99999e-01,9.99999e-01,9.99936e-01,9.70199e-03,9.99999e-01
5.262515499e-01,1.06318e-02,9.99999e-01,9.99999e-01,9.99999e-01,9.99959e-01,1.06323e-02,9.99998e-01
5.288828077e-01,1.16302e-02,9.99999e-01,9.99999e-01,9.99999e-01,9.99962e-01,1.16307e-02,9.99999e-01
5.315272217e-01,1.26999e-02,9.99999e-01,9.99999e-01,9.99999e-01,9.99967e-01,1.27003e-02,9.99999e-01
5.341848578e-01,1.38439e-02,9.99999e-01,9.99999e-01,9.99999e-01,9.99978e-01,1.38442e-02,9.99999e-01
5.368557821e-01,1.50643e-02,9.99999e-01,9.99999e-01,9.99999e-01,9.99925e-01,1.50655e-02,9.99999e-01
5.395400610e-01,1.63627e-02,9.99999e-01,9.99999e-01,9.99999e-01,9.99730e-01,1.63671e-02,9.99996e-01
5.422377613e-01,1.77459e-02,9.99999e-01,9.99999e-01,9.99999e-01,9.99655e-01,1.77521e-02,9.99993e-01
5.449489501e-01,1.92172e-02,9.99999e-01,9.99999e-01,9.99999e-01,9.99677e-01,1.92235e-02,9.99993e-01
5.476736949e-01,2.07781e-02,9.99999e-01,9.99999e-01,9.99999e-01,9.99716e-01,2.07841e-02,9.99996e-01
5.504120634e-01,2.24321e-02,9.99999e-01,9.99999e-01,9.99999e-01,9.99794e-01,2.24367e-02,9.99998e-01
5.531641237e-01,2.41817e-02,9.99999e-01,9.99999e-01,9.99999e-01,9.99896e-01,2.41842e-02,9.99999e-01
5.559299443e-01,2.60279e-02,9.99999e-01,9.99999e-01,9.99999e-01,9.99949e-01,2.60292e-02,9.99999e-01
5.587095940e-01,2.79735e-02,9.99999e-01,9.99999e-01,9.99999e-01,9.99968e-01,2.79743e-02,9.99999e-01
5.615031420e-01,3.00210e-02,9.99999e-01,9.99999e-01,9.99999e-01,9.99964e-01,3.00220e-02,9.99999e-01
5.643106577e-01,3.21734e-02,9.99999e-01,9.99999e-01,9.99999e-01,9.99959e-01,3.21747e-02,9.99999e-01
5.671322110e-01,3.44176e-02,9.99999e-01,9.99999e-01,9.99999e-01,9.99511e-01,3.44346e-02,9.99995e-01
5.699678720e-01,3.67846e-02,9.99999e-01,9.99999e-01,9.99999e-01,9.99490e-01,3.68038e-02,9.99986e-01
5.728177114e-01,3.92630e-02,9.99999e-01,9.99999e-01,9.99999e-01,9.99465e-01,3.92844e-02,9.99988e-01
5.756818000e-01,4.18574e-02,9.99999e-01,9.99999e-01,9.99999e-01,9.99510e-01,4.18781e-02,9.99993e-01
5.785602090e-01,4.45678e-02,9.99999e-01,9.99999e-01,9.99999e-01,9.99573e-01,4.45868e-02,9.99997e-01
5.814530100e-01,4.73916e-02,9.99999e-01,9.99999e-01,9.99999e-01,9.99570e-01,4.74120e-02,9.99998e-01
5.843602750e-01,5.03290e-02,9.99999e-01,9.99999e-01,9.99999e-01,9.99485e-01,5.03550e-02,9.99996e-01
5.872820764e-01,5.31793e-02,9.99999e-01,9.99999e-01,9.99999e-01,9.95578e-01,5.34171e-02,9.99968e-01
5.902184868e-01,5.62936e-02,9.99999e-01,9.99999e-01,9.99999e-01,9.94679e-01,5.65994e-02,9.99915e-01
5.931695792e-01,5.96722e-02,9.99999e-01,9.99999e-01,9.99999e-01,9.96231e-01,5.99028e-02,9.99918e-01
5.961354271e-01,6.30639e-02,9.99999e-01,9.99999e-01,9.99999e-01,9.95875e-01,6.33279e-02,9.99952e-01
5.991161043e-01,6.66735e-02,9.99999e-01,9.99999e-01,9.99999e-01,9.96993e-01,6.68755e-02,9.99985e-01
6.021116848e-01,7.04254e-02,9.99999e-01,9.99999e-01,9.99999e-01,9.98294e-01,7.05457e-02,9.99997e-01
6.051222432e-01,7.42748e-02,9.99999e-01,9.99999e-01,9.99999e-01,9.99137e-01,7.43389e-02,9.99999e-01
6.081478544e-01,7.82260e-02,9.99999e-01,9.99999e-01,9.99999e-01,9.99627e-01,7.82551e-02,9.99999e-01
6.111885937e-01,8.22811e-02,9.99999e-01,9.99999e-01,9.99999e-01,9.99842e-01,8.22940e-02,9.99999e-01
6.142445367e-01,8.64494e-02,9.99999e-01,9.99999e-01,9.99999e-01,9.99929e-01,8.64555e-02,9.99999e-01
6.173157594e-01,9.07354e-02,9.99999e-01,9.99999e-01,9.99999e-01,9.99960e-01,9.07389e-02,9.99999e-01
6.204023382e-01,9.51405e-02,9.99999e-01,9.99999e-01,9.99999e-01,9.99966e-01,9.51436e-02,9.99999e-01
6.235043498e-01,9.96541e-02,9.99999e-01,9.99999e-01,9.99999e-01,9.99852e-01,9.96688e-02,9.99999e-01
6.266218716e-01,1.04233e-01,9.99999e-01,9.99999e-01,9.99999e-01,9.99231e-01,1.04313e-01,9.99994e-01
6.297549810e-01,1.09044e-01,9.99999e-01,9.99999e-01,9.99999e-01,9.99717e-01,1.09076e-01,9.99988e-01
6.329037559e-01,1.13892e-01,9.99999e-01,9.99999e-01,9.99999e-01,9.99444e-01,1.13956e-01,9.99990e-01
6.360682746e-01,1.18894e-01,9.99999e-01,9.99999e-01,9.99999e-01,9.99525e-01,1.18951e-01,9.99994e-01
6.392486160e-01,1.23984e-01,9.99999e-01,9.99999e-01,9.99999e-01,9.99385e-01,1.24060e-01,9.99997e-01
6.424448591e-01,1.29174e-01,9.99999e-01,9.99999e-01,9.99999e-01,9.99172e-01,1.29281e-01,9.99995e-01
6.456570834e-01,1.34093e-01,9.99999e-01,9.99999e-01,9.99999e-01,9.96165e-01,1.34613e-01,9.99976e-01
6.488853688e-01,1.39653e-01,9.99999e-01,9.99999e-01,9.99999e-01,9.97214e-01,1.40052e-01,9.99940e-01
6.521297956e-01,1.45176e-01,9.99999e-01,9.99999e-01,9.99999e-01,9.97160e-01,1.45597e-01,9.99950e-01
6.553904446e-01,1.50811e-01,9.99999e-01,9.99999e-01,9.99999e-01,9.97164e-01,1.51245e-01,9.99963e-01
6.586673968e-01,1.56612e-01,9.99999e-01,9.99999e-01,9.99999e-01,9.97578e-01,1.56994e-01,9.99987e-01
6.619607338e-01,1.62622e-01,9.99999e-01,9.99999e-01,9.99999e-01,9.98650e-01,1.62842e-01,9.99996e-01
6.652705375e-01,1.68649e-01,9.99999e-01,9.99999e-01,9.99999e-01,9.99189e-01,1.68786e-01,9.99998e-01
6.685968902e-01,1.74763e-01,9.99999e-01,9.99999e-01,9.99999e-01,9.99655e-01,1.74823e-01,9.99999e-01
6.719398746e-01,1.80919e-01,9.99999e-01,9.99999e-01,9.99999e-01,9.99825e-01,1.80950e-01,9.99999e-01
6.752995740e-01,1.87148e-01,9.99999e-01,9.99999e-01,9.99999e-01,9.99907e-01,1.87165e-01,9.99999e-01
6.786760719e-01,1.93437e-01,9.99999e-01,9.99999e-01,9.99999e-01,9.99861e-01,1.93464e-01,9.99999e-01
6.820694522e-01,1.99797e-01,9.99999e-01,9.99999e-01,9.99999e-01,9.99765e-01,1.99844e-01,9.99998e-01
6.854797995e-01,2.06240e-01,9.99999e-01,9.99999e-01,9.99999e-01,9.99697e-01,2.06302e-01,9.99996e-01
6.889071985e-01,2.12677e-01,9.99999e-01,9.99999e-01,9.99999e-01,9.99259e-01,2.12836e-01,9.99992e-01
6.923517345e-01,2.16807e-01,9.99999e-01,9.99999e-01,9.99999e-01,9.88053e-01,2.19441e-01,9.99942e-01
6.958134932e-01,2.24699e-01,9.99999e-01,9.99999e-01,9.99999e-01,9.93867e-01,2.26114e-01,9.99872e-01
6.992925606e-01,2.31449e-01,9.99999e-01,9.99999e-01,9.99999e-01,9.94084e-01,2.32853e-01,9.99885e-01
7.027890234e-01,2.37893e-01,9.99999e-01,9.99999e-01,9.99999e-01,9.92742e-01,2.39653e-01,9.99912e-01
7.063029686e-01,2.44996e-01,9.99999e-01,9.99999e-01,9.99999e-01,9.93891e-01,2.46512e-01,9.99956e-01
7.098344834e-01,2.51934e-01,9.99999e-01,9.99999e-01,9.99999e-01,9.94138e-01,2.53426e-01,9.99973e-01
7.133836558e-01,2.58327e-01,9.99999e-01,9.99999e-01,9.99999e-01,9.92124e-01,2.60391e-01,9.99948e-01
7.169505741e-01,2.50887e-01,9.99999e-01,9.99999e-01,9.99999e-01,9.38604e-01,2.67405e-01,9.99598e-01
7.205353270e-01,2.66009e-01,9.99999e-01,9.99999e-01,9.99999e-01,9.69882e-01,2.74463e-01,9.99292e-01
7.241380036e-01,2.70544e-01,9.99999e-01,9.99999e-01,9.99999e-01,9.61453e-01,2.81563e-01,9.99388e-01
7.277586936e-01,2.78508e-01,9.99999e-01,9.99999e-01,9.99999e-01,9.65176e-01,2.88700e-01,9.99500e-01
7.313974871e-01,2.84912e-01,9.99999e-01,9.99999e-01,9.99999e-01,9.63179e-01,2.95873e-01,9.99765e-01
7.350544745e-01,2.96899e-01,9.99999e-01,9.99999e-01,9.99999e-01,9.79697e-01,3.03076e-01,9.99918e-01
7.387297469e-01,3.05651e-01,9.99999e-01,9.99999e-01,9.99999e-01,9.85030e-01,3.10308e-01,9.99962e-01
7.424233956e-01,3.15232e-01,9.99999e-01,9.99999e-01,9.99999e-01,9.92662e-01,3.17564e-01,9.99993e-01
7.461355126e-01,3.23393e-01,9.99999e-01,9.99999e-01,9.99999e-01,9.95542e-01,3.24841e-01,9.99998e-01
7.498661902e-01,3.31448e-01,9.99999e-01,9.99999e-01,9.99999e-01,9.97927e-01,3.32137e-01,9.99999e-01
7.536155211e-01,3.39101e-01,9.99999e-01,9.99999e-01,9.99999e-01,9.98980e-01,3.39447e-01,9.99999e-01
7.573835987e-01,3.46587e-01,9.99999e-01,9.99999e-01,9.99999e-01,9.99475e-01,3.46769e-01,9.99999e-01
7.611705167e-01,3.53984e-01,9.99999e-01,9.99999e-01,9.99999e-01,9.99673e-01,3.54100e-01,9.99999e-01
7.649763693e-01,3.61362e-01,9.99999e-01,9.99999e-01,9.99999e-01,9.99795e-01,3.61436e-01,9.99999e-01
7.688012511e-01,3.68722e-01,9.99999e-01,9.99999e-01,9.99999e-01,9.99857e-01,3.68775e-01,9.99999e-01
7.726452574e-01,3.76069e-01,9.99999e-01,9.99999e-01,9.99999e-01,9.99882e-01,3.76114e-01,9.99999e-01
7.765084837e-01,3.83385e-01,9.99999e-01,9.99999e-01,9.99999e-01,9.99831e-01,3.83449e-01,9.99999e-01
7.803910261e-01,3.73517e-01,9.99999e-01,9.99999e-01,9.56495e-01,9.99274e-01,3.90778e-01,9.99998e-01
7.842929812e-01,3.27543e-01,9.99999e-01,9.99999e-01,8.24736e-01,9.97468e-01,3.98099e-01,9.99994e-01
7.882144461e-01,3.27974e-01,9.99999e-01,9.99999e-01,8.13029e-01,9.94821e-01,4.05407e-01,9.99963e-01
7.921555184e-01,3.64368e-01,9.99999e-01,9.99999e-01,8.85369e-01,9.97168e-01,4.12702e-01,9.99937e-01
7.961162960e-01,3.85289e-01,9.99999e-01,9.99999e-01,9.22046e-01,9.94957e-01,4.19980e-01,9.99940e-01
8.000968774e-01,4.06435e-01,9.99999e-01,9.99999e-01,9.56892e-01,9.94202e-01,4.27239e-01,9.99936e-01
8.040973618e-01,4.22221e-01,9.99999e-01,9.99999e-01,9.77499e-01,9.94194e-01,4.34477e-01,9.99951e-01
8.081178486e-01,4.31348e-01,9.99999e-01,9.99999e-01,9.89575e-01,9.86896e-01,4.41690e-01,9.99951e-01
8.121584379e-01,4.23462e-01,9.99999e-01,9.99999e-01,9.96793e-01,9.46548e-01,4.48877e-01,9.99816e-01
8.162192301e-01,4.26856e-01,9.99999e-01,9.99999e-01,9.99290e-01,9.37307e-01,4.56035e-01,9.99311e-01
8.203003262e-01,4.47935e-01,9.99999e-01,9.99999e-01,9.99989e-01,9.67908e-01,4.63163e-01,9.99193e-01
8.244018279e-01,4.49398e-01,9.99999e-01,9.99999e-01,9.99999e-01,9.56252e-01,4.70259e-01,9.99358e-01
8.285238370e-01,4.58919e-01,9.99999e-01,9.99999e-01,9.99999e-01,9.61934e-01,4.77319e-01,9.99495e-01
8.326664562e-01,4.65669e-01,9.99999e-01,9.99999e-01,9.99999e-01,9.61644e-01,4.84343e-01,9.99791e-01
8.368297885e-01,4.77790e-01,9.99999e-01,9.99999e-01,9.99999e-01,9.72489e-01,4.91329e-01,9.99951e-01
8.410139374e-01,4.90075e-01,9.99999e-01,9.99999e-01,9.99999e-01,9.83572e-01,4.98274e-01,9.99971e-01
8.452190071e-01,5.01088e-01,9.99999e-01,9.99999e-01,9.99999e-01,9.91921e-01,5.05178e-01,9.99982e-01
8.494451021e-01,5.09621e-01,9.99999e-01,9.99999e-01,9.99999e-01,9.95293e-01,5.12037e-01,9.99986e-01
8.536923276e-01,5.17407e-01,9.99999e-01,9.99999e-01,9.99999e-01,9.97221e-01,5.18852e-01,9.99991e-01
8.579607893e-01,5.24718e-01,9.99999e-01,9.99999e-01,9.99999e-01,9.98284e-01,5.25621e-01,9.99997e-01
8.622505932e-01,5.31762e-01,9.99999e-01,9.99999e-01,9.99999e-01,9.98911e-01,5.32341e-01,9.99999e-01
8.665618462e-01,4.90967e-01,9.99999e-01,9.99999e-01,9.11451e-01,9.99324e-01,5.39012e-01,9.99999e-01
8.708946554e-01,3.34544e-01,9.99999e-01,9.99999e-01,6.13585e-01,9.99225e-01,5.45632e-01,9.99999e-01
8.752491287e-01,3.71813e-01,9.99999e-01,9.99999e-01,6.74001e-01,9.98965e-01,5.52200e-01,9.99998e-01
8.796253743e-01,4.48853e-01,9.99999e-01,9.99999e-01,8.04480e-01,9.98563e-01,5.58716e-01,9.99996e-01
8.840235012e-01,5.03908e-01,9.99999e-01,9.99999e-01,8.93038e-01,9.98360e-01,5.65177e-01,9.99989e-01
8.884436187e-01,5.43448e-01,9.99999e-01,9.99999e-01,9.56515e-01,9.93952e-01,5.71583e-01,9.99971e-01
8.928858368e-01,5.32769e-01,9.99999e-01,9.99999e-01,9.82116e-01,9.38602e-01,5.77933e-01,9.99836e-01
8.973502660e-01,5.20031e-01,9.99999e-01,9.99999e-01,9.95647e-01,8.94657e-01,5.84226e-01,9.99162e-01
9.018370173e-01,5.57034e-01,9.99999e-01,9.99999e-01,9.99520e-01,9.45064e-01,5.90462e-01,9.98683e-01
9.063462024e-01,5.59879e-01,9.99999e-01,9.99999e-01,9.87460e-01,9.50928e-01,5.96639e-01,9.98843e-01
9.108779334e-01,5.41343e-01,9.99999e-01,9.99999e-01,9.71876e-01,9.24801e-01,6.02756e-01,9.98798e-01
9.154323231e-01,5.53000e-01,9.99999e-01,9.99999e-01,9.93380e-01,9.15120e-01,6.08814e-01,9.99006e-01
9.200094847e-01,5.22802e-01,9.99999e-01,9.99999e-01,9.07762e-01,9.33028e-01,6.14810e-01,9.99443e-01
9.246095321e-01,4.85032e-01,9.99999e-01,9.99999e-01,8.69676e-01,8.96207e-01,6.20746e-01,9.99359e-01
9.292325798e-01,2.76418e-01,9.99999e-01,9.99999e-01,8.95840e-01,4.86990e-01,6.26620e-01,9.96911e-01
9.338787427e-01,2.27280e-01,9.99999e-01,9.99999e-01,8.99685e-01,3.98599e-01,6.32433e-01,9.88881e-01
9.385481364e-01,4.04457e-01,9.99999e-01,9.99999e-01,9.25150e-01,6.89681e-01,6.38182e-01,9.87791e-01
9.432408771e-01,3.63779e-01,9.99999e-01,9.99999e-01,9.53550e-01,5.96891e-01,6.43869e-01,9.89458e-01
9.479570815e-01,3.10251e-01,9.99999e-01,9.99999e-01,9.75855e-01,4.92931e-01,6.49493e-01,9.91411e-01
9.526968669e-01,3.78446e-01,9.99999e-01,9.99999e-01,9.88306e-01,5.86921e-01,6.55053e-01,9.94752e-01
9.574603512e-01,3.99326e-01,9.99999e-01,9.99999e-01,9.94986e-01,6.08952e-01,6.60549e-01,9.97330e-01
9.622476530e-01,4.43094e-01,9.99999e-01,9.99999e-01,9.98435e-01,6.67520e-01,6.65982e-01,9.98153e-01
9.670588912e-01,5.30573e-01,9.99999e-01,9.99999e-01,9.99531e-01,7.91651e-01,6.71351e-01,9.98736e-01
9.718941857e-01,5.83714e-01,9.99999e-01,9.99999e-01,9.99967e-01,8.63473e-01,6.76656e-01,9.99069e-01
9.767536566e-01,6.03205e-01,9.99999e-01,9.99999e-01,9.99999e-01,8.85227e-01,6.81897e-01,9.99288e-01
9.816374249e-01,6.27641e-01,9.99999e-01,9.99999e-01,9.99999e-01,9.13723e-01,6.87073e-01,9.99753e-01
9.865456120e-01,6.54211e-01,9.99999e-01,9.99999e-01,9.99999e-01,9.45186e-01,6.92186e-01,9.99948e-01
9.914783401e-01,6.73336e-01,9.99999e-01,9.99999e-01,9.99999e-01,9.65737e-01,6.97234e-01,9.99985e-01
9.964357318e-01,6.89012e-01,9.99999e-01,9.99999e-01,9.99999e-01,9.81200e-01,7.02218e-01,9.99991e-01
1.001417910e+00,6.99136e-01,9.99999e-01,9.99999e-01,9.99999e-01,9.88694e-01,7.07139e-01,9.99986e-01
1.006425000e+00,7.07377e-01,9.99999e-01,9.99999e-01,9.99999e-01,9.93530e-01,7.11996e-01,9.99981e-01
1.011457125e+00,7.13902e-01,9.99999e-01,9.99999e-01,9.99999e-01,9.95987e-01,7.16789e-01,9.99982e-01
1.016514411e+00,7.19542e-01,9.99999e-01,9.99999e-01,9.99999e-01,9.97271e-01,7.21519e-01,9.99987e-01
1.021596983e+00,7.24545e-01,9.99999e-01,9.99999e-01,9.99926e-01,9.97824e-01,7.26186e-01,9.99987e-01
1.026704968e+00,7.25950e-01,9.99999e-01,9.99999e-01,9.95071e-01,9.98302e-01,7.30789e-01,9.99992e-01
1.031838492e+00,6.93762e-01,9.99999e-01,9.99999e-01,9.44591e-01,9.98767e-01,7.35331e-01,9.99997e-01
1.036997685e+00,8.82137e-02,9.99999e-01,9.99999e-01,1.19307e-01,9.99266e-01,7.39810e-01,9.99999e-01
1.042182673e+00,5.15439e-02,9.99999e-01,9.99999e-01,6.93108e-02,9.99123e-01,7.44227e-01,9.99999e-01
1.047393587e+00,6.93867e-02,9.99999e-01,9.99999e-01,9.27848e-02,9.98839e-01,7.48582e-01,9.99999e-01
1.052630555e+00,8.23697e-04,9.99999e-01,9.99999e-01,1.09530e-03,9.98406e-01,7.52876e-01,9.99999e-01
1.057893707e+00,2.41749e-03,9.99999e-01,9.99999e-01,3.19849e-03,9.97337e-01,7.57109e-01,9.99998e-01
1.063183176e+00,1.06859e-02,9.99999e-01,9.99999e-01,1.40788e-02,9.95624e-01,7.61282e-01,9.99997e-01
1.068499092e+00,3.71447e-02,9.99999e-01,9.99999e-01,4.88189e-02,9.92690e-01,7.65394e-01,9.99994e-01
1.073841587e+00,1.13203e-01,9.99999e-01,9.99999e-01,1.48175e-01,9.91437e-01,7.69447e-01,9.99988e-01
