#,Wave/freq,Total,N2,O2,CO2,H2O,Rayleigh,CIA
4.000000000e-01,7.14598e-18,9.99999e-01,9.99999e-01,9.99999e-01,9.99923e-01,7.14652e-18,9.99999e-01
4.020000000e-01,1.55991e-17,9.99999e-01,9.99999e-01,9.99999e-01,9.99952e-01,1.55998e-17,9.99999e-01
4.040100000e-01,3.35033e-17,9.99999e-01,9.99999e-01,9.99999e-01,9.99979e-01,3.35040e-17,9.99999e-01
4.060300500e-01,7.08786e-17,9.99999e-01,9.99999e-01,9.99999e-01,9.99994e-01,7.08789e-17,9.99999e-01
4.080602003e-01,1.47744e-16,9.99999e-01,9.99999e-01,9.99999e-01,9.99998e-01,1.47744e-16,9.99999e-01
4.101005013e-01,3.03529e-16,9.99999e-01,9.99999e-01,9.99999e-01,9.99999e-01,3.03529e-16,9.99999e-01
4.121510038e-01,6.14772e-16,9.99999e-01,9.99999e-01,9.99999e-01,9.99996e-01,6.14774e-16,9.99999e-01
4.142117588e-01,1.22791e-15,9.99999e-01,9.99999e-01,9.99999e-01,9.99978e-01,1.22794e-15,9.99999e-01
4.162828176e-01,2.41914e-15,9.99999e-01,9.99999e-01,9.99999e-01,9.99905e-01,2.41937e-15,9.99999e-01
4.183642317e-01,4.70312e-15,9.99999e-01,9.99999e-01,9.99999e-01,9.99943e-01,4.70338e-15,9.99999e-01
4.204560528e-01,9.02403e-15,9.99999e-01,9.99999e-01,9.99999e-01,9.99965e-01,9.02434e-15,9.99999e-01
4.225583331e-01,1.70933e-14,9.99999e-01,9.99999e-01,9.99999e-01,9.99986e-01,1.70935e-14,9.99999e-01
4.246711247e-01,3.19714e-14,9.99999e-01,9.99999e-01,9.99999e-01,9.99989e-01,3.19718e-14,9.99999e-01
4.267944804e-01,5.90642e-14,9.99999e-01,9.99999e-01,9.99999e-01,9.99984e-01,5.90651e-14,9.99999e-01
4.289284528e-01,1.07801e-13,9.99999e-01,9.99999e-01,9.99999e-01,9.99987e-01,1.07803e-13,9.99999e-01
4.310730950e-01,1.94431e-13,9.99999e-01,9.99999e-01,9.99999e-01,9.99994e-01,1.94432e-13,9.99999e-01
4.332284605e-01,3.46613e-13,9.99999e-01,9.99999e-01,9.99999e-01,9.99998e-01,3.46614e-13,9.99999e-01
4.353946028e-01,6.10892e-13,9.99999e-01,9.99999e-01,9.99999e-01,9.99998e-01,6.10892e-13,9.99999e-01
4.375715758e-01,1.06468e-12,9.99999e-01,9.99999e-01,9.99999e-01,9.99990e-01,1.06469e-12,9.99999e-01
4.397594337e-01,1.83518e-12,9.99999e-01,9.99999e-01,9.99999e-01,9.99917e-01,1.83533e-12,9.99999e-01
4.419582309e-01,3.12862e-12,9.99999e-01,9.99999e-01,9.99999e-01,9.99581e-01,3.12993e-12,9.99999e-01
4.441680220e-01,5.28000e-12,9.99999e-01,9.99999e-01,9.99999e-01,9.99671e-01,5.28173e-12,9.99999e-01
4.463888621e-01,8.81823e-12,9.99999e-01,9.99999e-01,9.99999e-01,9.99658e-01,8.82124e-12,9.99999e-01
4.486208064e-01,1.45811e-11,9.99999e-01,9.99999e-01,9.99999e-01,9.99787e-01,1.45842e-11,9.99999e-01
4.508639105e-01,2.38715e-11,9.99999e-01,9.99999e-01,9.99999e-01,9.99900e-01,2.38739e-11,9.99999e-01
4.531182300e-01,3.87007e-11,9.99999e-01,9.99999e-01,9.99999e-01,9.99960e-01,3.87022e-11,9.99999e-01
4.553838212e-01,6.21429e-11,9.99999e-01,9.99999e-01,9.99999e-01,9.99972e-01,6.21446e-11,9.99999e-01
4.576607403e-01,9.88561e-11,9.99999e-01,9.99999e-01,9.99999e-01,9.99987e-01,9.88573e-11,9.99999e-01
4.599490440e-01,1.55822e-10,9.99999e-01,9.99999e-01,9.99999e-01,9.99990e-01,1.55823e-10,9.99999e-01
4.622487892e-01,2.43417e-10,9.99999e-01,9.99999e-01,9.99999e-01,9.99998e-01,2.43418e-10,9.99999e-01
4.645600332e-01,3.76915e-10,9.99999e-01,9.99999e-01,9.99999e-01,9.99993e-01,3.76917e-10,9.99999e-01
4.668828333e-01,5.78555e-10,9.99999e-01,9.99999e-01,9.99999e-01,9.99899e-01,5.78613e-10,9.99999e-01
4.692172475e-01,8.80564e-10,9.99999e-01,9.99999e-01,9.99999e-01,9.99785e-01,8.80752e-10,9.99999e-01
4.715633337e-01,1.32940e-09,9.99999e-01,9.99999e-01,9.99999e-01,9.99859e-01,1.32958e-09,9.99999e-01
4.739211504e-01,1.99061e-09,9.99999e-01,9.99999e-01,9.99999e-01,9.99865e-01,1.99087e-09,9.99999e-01
4.762907561e-01,2.95719e-09,9.99999e-01,9.99999e-01,9.99999e-01,9.99930e-01,2.95739e-09,9.99999e-01
4.786722099e-01,4.35881e-09,9.99999e-01,9.99999e-01,9.99999e-01,9.99971e-01,4.35893e-09,9.99999e-01
4.810655710e-01,6.37557e-09,9.99999e-01,9.99999e-01,9.99999e-01,9.99991e-01,6.37563e-09,9.99999e-01
4.834708988e-01,9.25483e-09,9.99999e-01,9.99999e-01,9.99999e-01,9.99918e-01,9.25559e-09,9.99999e-01
4.858882533e-01,1.33359e-08,9.99999e-01,9.99999e-01,9.99999e-01,9.99848e-01,1.33379e-08,9.99999e-01
4.883176946e-01,1.90801e-08,9.99999e-01,9.99999e-01,9.99999e-01,9.99873e-01,1.90825e-08,9.99999e-01
4.907592831e-01,2.71059e-08,9.99999e-01,9.99999e-01,9.99999e-01,9.99885e-01,2.71090e-08,9.99999e-01
4.932130795e-01,3.82422e-08,9.99999e-01,9.99999e-01,9.99999e-01,9.99918e-01,3.82453e-08,9.99999e-01
4.956791449e-01,5.35885e-08,9.99999e-01,9.99999e-01,9.99999e-01,9.99956e-01,5.35908e-08,9.99999e-01
4.981575406e-01,7.45788e-08,9.99999e-01,9.99999e-01,9.99999e-01,9.99784e-01,7.45948e-08,9.99999e-01
5.006483283e-01,1.03097e-07,9.99999e-01,9.99999e-01,9.99999e-01,9.99444e-01,1.03155e-07,9.99995e-01
5.031515699e-01,1.41336e-07,9.99999e-01,9.99999e-01,9.99999e-01,9.97180e-01,1.41740e-07,9.99969e-01
5.056673278e-01,1.93243e-07,9.99999e-01,9.99999e-01,9.99999e-01,9.98509e-01,1.93538e-07,9.99965e-01
5.081956644e-01,2.62146e-07,9.99999e-01,9.99999e-01,9.99999e-01,9.98120e-01,2.62645e-07,9.99977e-01
5.107366428e-01,3.53834e-07,9.99999e-01,9.99999e-01,9.99999e-01,9.98730e-01,3.54285e-07,9.99995e-01
5.132903260e-01,4.74738e-07,9.99999e-01,9.99999e-01,9.99999e-01,9.99273e-01,4.75083e-07,9.99999e-01
5.158567776e-01,6.33192e-07,9.99999e-01,9.99999e-01,9.99999e-01,9.99692e-01,6.33386e-07,9.99999e-01
5.184360615e-01,8.39552e-07,9.99999e-01,9.99999e-01,9.99999e-01,9.99876e-01,8.39655e-07,9.99999e-01
5.210282418e-01,1.10687e-06,9.99999e-01,9.99999e-01,9.99999e-01,9.99953e-01,1.10692e-06,9.99999e-01
5.236333830e-01,1.45104e-06,9.99999e-01,9.99999e-01,9.99999e-01,9.99815e-01,1.45130e-06,9.99998e-01
5.262515499e-01,1.89246e-06,9.99999e-01,9.99999e-01,9.99999e-01,9.99884e-01,1.89268e-06,9.99997e-01
5.288828077e-01,2.45513e-06,9.99999e-01,9.99999e-01,9.99999e-01,9.99894e-01,2.45539e-06,9.99998e-01
5.315272217e-01,3.16876e-06,9.99999e-01,9.99999e-01,9.99999e-01,9.99906e-01,3.16905e-06,9.99999e-01
5.341848578e-01,4.06933e-06,9.99999e-01,9.99999e-01,9.99999e-01,9.99938e-01,4.06958e-06,9.99999e-01
5.368557821e-01,5.19914e-06,9.99999e-01,9.99999e-01,9.99999e-01,9.99785e-01,5.20025e-06,9.99999e-01
5.395400610e-01,6.60782e-06,9.99999e-01,9.99999e-01,9.99999e-01,9.99228e-01,6.61296e-06,9.99993e-01
5.422377613e-01,8.36110e-06,9.99999e-01,9.99999e-01,9.99999e-01,9.98999e-01,8.36962e-06,9.99981e-01
5.449489501e-01,1.05338e-05,9.99999e-01,9.99999e-01,9.99999e-01,9.99071e-01,1.05437e-05,9.99980e-01
5.476736949e-01,1.32112e-05,9.99999e-01,9.99999e-01,9.99999e-01,9.99175e-01,1.32222e-05,9.99990e-01
5.504120634e-01,1.64971e-05,9.99999e-01,9.99999e-01,9.99999e-01,9.99401e-01,1.65071e-05,9.99996e-01
5.531641237e-01,2.05117e-05,9.99999e-01,9.99999e-01,9.99999e-01,9.99698e-01,2.05179e-05,9.99999e-01
5.559299443e-01,2.53902e-05,9.99999e-01,9.99999e-01,9.99999e-01,9.99854e-01,2.53939e-05,9.99999e-01
5.587095940e-01,3.12938e-05,9.99999e-01,9.99999e-01,9.99999e-01,9.99908e-01,3.12966e-05,9.99999e-01
5.615031420e-01,3.84086e-05,9.99999e-01,9.99999e-01,9.99999e-01,9.99898e-01,3.84125e-05,9.99999e-01
5.643106577e-01,4.69505e-05,9.99999e-01,9.99999e-01,9.99999e-01,9.99885e-01,4.69559e-05,9.99998e-01
5.671322110e-01,5.70921e-05,9.99999e-01,9.99999e-01,9.99999e-01,9.98610e-01,5.71722e-05,9.99987e-01
5.699678720e-01,6.92354e-05,9.99999e-01,9.99999e-01,9.99999e-01,9.98512e-01,6.93411e-05,9.99961e-01
5.728177114e-01,8.36482e-05,9.99999e-01,9.99999e-01,9.99999e-01,9.98454e-01,8.37803e-05,9.99967e-01
5.756818000e-01,1.00704e-04,9.99999e-01,9.99999e-01,9.99999e-01,9.98581e-01,1.00849e-04,9.99980e-01
5.785602090e-01,1.20800e-04,9.99999e-01,9.99999e-01,9.99999e-01,9.98762e-01,1.20950e-04,9.99993e-01
5.814530100e-01,1.44359e-04,9.99999e-01,9.99999e-01,9.99999e-01,9.98757e-01,1.44539e-04,9.99996e-01
5.843602750e-01,1.71866e-04,9.99999e-01,9.99999e-01,9.99999e-01,9.98522e-01,1.72122e-04,9.99991e-01
5.872820764e-01,2.01659e-04,9.99999e-01,9.99999e-01,9.99999e-01,9.87344e-01,2.04262e-04,9.99909e-01
5.902184868e-01,2.37814e-04,9.99999e-01,9.99999e-01,9.99999e-01,9.84629e-01,2.41585e-04,9.99755e-01
5.931695792e-01,2.81623e-04,9.99999e-01,9.99999e-01,9.99999e-01,9.89137e-01,2.84782e-04,9.99764e-01
5.961354271e-01,3.30583e-04,9.99999e-01,9.99999e-01,9.99999e-01,9.88084e-01,3.34615e-04,9.99864e-01
5.991161043e-01,3.88488e-04,9.99999e-01,9.99999e-01,9.99999e-01,9.91291e-01,3.91917e-04,9.99957e-01
6.021116848e-01,4.55333e-04,9.99999e-01,9.99999e-01,9.99999e-01,9.95048e-01,4.57601e-04,9.99994e-01
6.051222432e-01,5.31324e-04,9.99999e-01,9.99999e-01,9.99999e-01,9.97491e-01,5.32661e-04,9.99999e-01
6.081478544e-01,6.17506e-04,9.99999e-01,9.99999e-01,9.99999e-01,9.98917e-01,6.18175e-04,9.99999e-01
6.111885937e-01,7.14983e-04,9.99999e-01,9.99999e-01,9.99999e-01,9.99541e-01,7.15311e-04,9.99999e-01
6.142445367e-01,8.25159e-04,9.99999e-01,9.99999e-01,9.99999e-01,9.99795e-01,8.25327e-04,9.99999e-01
6.173157594e-01,9.49471e-04,9.99999e-01,9.99999e-01,9.99999e-01,9.99886e-01,9.49578e-04,9.99999e-01
6.204023382e-01,1.08941e-03,9.99999e-01,9.99999e-01,9.99999e-01,9.99904e-01,1.08951e-03,9.99999e-01
6.235043498e-01,1.24615e-03,9.99999e-01,9.99999e-01,9.99999e-01,9.99581e-01,1.24668e-03,9.99998e-01
6.266218716e-01,1.41954e-03,9.99999e-01,9.99999e-01,9.99999e-01,9.97777e-01,1.42272e-03,9.99983e-01
6.297549810e-01,1.61802e-03,9.99999e-01,9.99999e-01,9.99999e-01,9.99184e-01,1.61939e-03,9.99968e-01
6.329037559e-01,1.83554e-03,9.99999e-01,9.99999e-01,9.99999e-01,9.98387e-01,1.83855e-03,9.99974e-01
6.360682746e-01,2.07925e-03,9.99999e-01,9.99999e-01,9.99999e-01,9.98627e-01,2.08213e-03,9.99984e-01
6.392486160e-01,2.34800e-03,9.99999e-01,9.99999e-01,9.99999e-01,9.98220e-01,2.35220e-03,9.99992e-01
6.424448591e-01,2.64458e-03,9.99999e-01,9.99999e-01,9.99999e-01,9.97625e-01,2.65091e-03,9.99989e-01
6.456570834e-01,2.94759e-03,9.99999e-01,9.99999e-01,9.99999e-01,9.89018e-01,2.98050e-03,9.99938e-01
6.488853688e-01,3.31578e-03,9.99999e-01,9.99999e-01,9.99999e-01,9.91931e-01,3.34332e-03,9.99828e-01
6.521297956e-01,3.71052e-03,9.99999e-01,9.99999e-01,9.99999e-01,9.91778e-01,3.74181e-03,9.99858e-01
6.553904446e-01,4.14386e-03,9.99999e-01,9.99999e-01,9.99999e-01,9.91816e-01,4.17849e-03,9.99894e-01
6.586673968e-01,4.62313e-03,9.99999e-01,9.99999e-01,9.99999e-01,9.92983e-01,4.65597e-03,9.99964e-01
6.619607338e-01,5.15586e-03,9.99999e-01,9.99999e-01,9.99999e-01,9.95936e-01,5.17693e-03,9.99991e-01
6.652705375e-01,5.73060e-03,9.99999e-01,9.99999e-01,9.99999e-01,9.97645e-01,5.74414e-03,9.99995e-01
6.685968902e-01,6.35346e-03,9.99999e-01,9.99999e-01,9.99999e-01,9.98905e-01,6.36042e-03,9.99998e-01
6.719398746e-01,7.02510e-03,9.99999e-01,9.99999e-01,9.99999e-01,9.99492e-01,7.02866e-03,9.99999e-01
6.752995740e-01,7.74966e-03,9.99999e-01,9.99999e-01,9.99999e-01,9.99725e-01,7.75179e-03,9.99999e-01
6.786760719e-01,8.52942e-03,9.99999e-01,9.99999e-01,9.99999e-01,9.99603e-01,8.53280e-03,9.99998e-01
6.820694522e-01,9.36832e-03,9.99999e-01,9.99999e-01,9.99999e-01,9.99321e-01,9.37471e-03,9.99995e-01
6.854797995e-01,1.02715e-02,9.99999e-01,9.99999e-01,9.99999e-01,9.99125e-01,1.02806e-02,9.99991e-01
6.889071985e-01,1.12295e-02,9.99999e-01,9.99999e-01,9.99999e-01,9.97891e-01,1.12534e-02,9.99980e-01
6.923517345e-01,1.18771e-02,9.99999e-01,9.99999e-01,9.99999e-01,9.66062e-01,1.22963e-02,9.99833e-01
6.958134932e-01,1.31680e-02,9.99999e-01,9.99999e-01,9.99999e-01,9.82143e-01,1.34124e-02,9.99625e-01
6.992925606e-01,1.43528e-02,9.99999e-01,9.99999e-01,9.99999e-01,9.83070e-01,1.46047e-02,9.99670e-01
7.027890234e-01,1.55405e-02,9.99999e-01,9.99999e-01,9.99999e-01,9.79096e-01,1.58763e-02,9.99747e-01
7.063029686e-01,1.69246e-02,9.99999e-01,9.99999e-01,9.99999e-01,9.82390e-01,1.72302e-02,9.99873e-01
7.098344834e-01,1.83523e-02,9.99999e-01,9.99999e-01,9.99999e-01,9.83093e-01,1.86693e-02,9.99925e-01
7.133836558e-01,1.97420e-02,9.99999e-01,9.99999e-01,9.99999e-01,9.77636e-01,2.01965e-02,9.99851e-01
7.169505741e-01,1.82052e-02,9.99999e-01,9.99999e-01,9.99999e-01,8.35504e-01,2.18148e-02,9.98837e-01
7.205353270e-01,2.14856e-02,9.99999e-01,9.99999e-01,9.99999e-01,9.15106e-01,2.35269e-02,9.97950e-01
7.241380036e-01,2.25985e-02,9.99999e-01,9.99999e-01,9.99999e-01,8.93546e-01,2.53356e-02,9.98230e-01
7.277586936e-01,2.45769e-02,9.99999e-01,9.99999e-01,9.99999e-01,9.03430e-01,2.72434e-02,9.98552e-01
7.313974871e-01,2.62256e-02,9.99999e-01,9.99999e-01,9.99999e-01,8.97119e-01,2.92529e-02,9.99321e-01
7.350544745e-01,2.95507e-02,9.99999e-01,9.99999e-01,9.99999e-01,9.42333e-01,3.13665e-02,9.99763e-01
7.387297469e-01,3.21439e-02,9.99999e-01,9.99999e-01,9.99999e-01,9.57151e-01,3.35865e-02,9.99891e-01
7.424233956e-01,3.51521e-02,9.99999e-01,9.99999e-01,9.99999e-01,9.78776e-01,3.59150e-02,9.99978e-01
7.461355126e-01,3.78588e-02,9.99999e-01,9.99999e-01,9.99999e-01,9.87086e-01,3.83542e-02,9.99995e-01
7.498661902e-01,4.06590e-02,9.99999e-01,9.99999e-01,9.99999e-01,9.93963e-01,4.09059e-02,9.99998e-01
7.536155211e-01,4.34428e-02,9.99999e-01,9.99999e-01,9.99999e-01,9.97036e-01,4.35719e-02,9.99998e-01
7.573835987e-01,4.62831e-02,9.99999e-01,9.99999e-01,9.99999e-01,9.98473e-01,4.63539e-02,9.99999e-01
7.611705167e-01,4.92064e-02,9.99999e-01,9.99999e-01,9.99999e-01,9.99051e-01,4.92531e-02,9.99999e-01
7.649763693e-01,5.22400e-02,9.99999e-01,9.99999e-01,9.99999e-01,9.99405e-01,5.22711e-02,9.99999e-01
7.688012511e-01,5.53859e-02,9.99999e-01,9.99999e-01,9.99999e-01,9.99585e-01,5.54088e-02,9.99999e-01
7.726452574e-01,5.86474e-02,9.99999e-01,9.99999e-01,9.99999e-01,9.99659e-01,5.86674e-02,9.99999e-01
7.765084837e-01,6.20174e-02,9.99999e-01,9.99999e-01,9.99999e-01,9.99516e-01,6.20474e-02,9.99998e-01
7.803910261e-01,5.89979e-02,9.99999e-01,9.99999e-01,9.01762e-01,9.97915e-01,6.55497e-02,9.99997e-01
7.842929812e-01,4.05359e-02,9.99999e-01,9.99999e-01,5.89693e-01,9.92741e-01,6.91745e-02,9.99986e-01
7.882144461e-01,4.13178e-02,9.99999e-01,9.99999e-01,5.74251e-01,9.85067e-01,7.29222e-02,9.99907e-01
7.921555184e-01,5.39368e-02,9.99999e-01,9.99999e-01,7.07868e-01,9.91778e-01,7.67929e-02,9.99821e-01
7.961162960e-01,6.29618e-02,9.99999e-01,9.99999e-01,7.90544e-01,9.85553e-01,8.07865e-02,9.99829e-01
8.000968774e-01,7.34812e-02,9.99999e-01,9.99999e-01,8.80186e-01,9.83291e-01,8.49028e-02,9.99818e-01
8.040973618e-01,8.20248e-02,9.99999e-01,9.99999e-01,9.35819e-01,9.83297e-01,8.91411e-02,9.99855e-01
8.081178486e-01,8.73343e-02,9.99999e-01,9.99999e-01,9.69997e-01,9.62877e-01,9.35011e-02,9.99864e-01
8.121584379e-01,8.29718e-02,9.99999e-01,9.99999e-01,9.90621e-01,8.54990e-01,9.79819e-02,9.99469e-01
8.162192301e-01,8.48398e-02,9.99999e-01,9.99999e-01,9.97920e-01,8.30305e-01,1.02582e-01,9.98006e-01
8.203003262e-01,9.77864e-02,9.99999e-01,9.99999e-01,9.99967e-01,9.13472e-01,1.07302e-01,9.97665e-01
8.244018279e-01,9.86867e-02,9.99999e-01,9.99999e-01,9.99999e-01,8.81680e-01,1.12138e-01,9.98141e-01
8.285238370e-01,1.04594e-01,9.99999e-01,9.99999e-01,9.99999e-01,8.94577e-01,1.17091e-01,9.98540e-01
8.326664562e-01,1.09093e-01,9.99999e-01,9.99999e-01,9.99999e-01,8.93580e-01,1.22158e-01,9.99395e-01
8.368297885e-01,1.17432e-01,9.99999e-01,9.99999e-01,9.99999e-01,9.22334e-01,1.27338e-01,9.99861e-01
8.410139374e-01,1.26390e-01,9.99999e-01,9.99999e-01,9.99999e-01,9.53036e-01,1.32629e-01,9.99918e-01
8.452190071e-01,1.34801e-01,9.99999e-01,9.99999e-01,9.99999e-01,9.76662e-01,1.38028e-01,9.99951e-01
8.494451021e-01,1.41577e-01,9.99999e-01,9.99999e-01,9.99999e-01,9.86400e-01,1.43534e-01,9.99960e-01
8.536923276e-01,1.47938e-01,9.99999e-01,9.99999e-01,9.99999e-01,9.91931e-01,1.49145e-01,9.99976e-01
8.579607893e-01,1.54086e-01,9.99999e-01,9.99999e-01,9.99999e-01,9.95027e-01,1.54857e-01,9.99993e-01
8.622505932e-01,1.60161e-01,9.99999e-01,9.99999e-01,9.99999e-01,9.96836e-01,1.60669e-01,9.99998e-01
8.665618462e-01,1.42949e-01,9.99999e-01,9.99999e-01,8.59716e-01,9.98043e-01,1.66578e-01,9.99998e-01
8.708946554e-01,4.75355e-02,9.99999e-01,9.99999e-01,2.75998e-01,9.97761e-01,1.72581e-01,9.99998e-01
8.752491287e-01,6.02745e-02,9.99999e-01,9.99999e-01,3.38276e-01,9.97005e-01,1.78675e-01,9.99996e-01
8.796253743e-01,9.97796e-02,9.99999e-01,9.99999e-01,5.41806e-01,9.95859e-01,1.84857e-01,9.99990e-01
8.840235012e-01,1.37443e-01,9.99999e-01,9.99999e-01,7.22380e-01,9.95270e-01,1.91126e-01,9.99970e-01
8.884436187e-01,1.70640e-01,9.99999e-01,9.99999e-01,8.78609e-01,9.82987e-01,1.97476e-01,9.99917e-01
8.928858368e-01,1.61896e-01,9.99999e-01,9.99999e-01,9.48781e-01,8.35842e-01,2.03906e-01,9.99526e-01
8.973502660e-01,1.51187e-01,9.99999e-01,9.99999e-01,9.87290e-01,7.28884e-01,2.10412e-01,9.97574e-01
9.018370173e-01,1.83671e-01,9.99999e-01,9.99999e-01,9.98590e-01,8.50755e-01,2.16991e-01,9.96189e-01
9.063462024e-01,1.87369e-01,9.99999e-01,9.99999e-01,9.65501e-01,8.67306e-01,2.23639e-01,9.96652e-01
9.108779334e-01,1.69837e-01,9.99999e-01,9.99999e-01,9.20620e-01,8.00890e-01,2.30354e-01,9.96521e-01
9.154323231e-01,1.80249e-01,9.99999e-01,9.99999e-01,9.80718e-01,7.76184e-01,2.37132e-01,9.97123e-01
9.200094847e-01,1.62302e-01,9.99999e-01,9.99999e-01,7.88849e-01,8.20536e-01,2.43970e-01,9.98389e-01
9.246095321e-01,1.26938e-01,9.99999e-01,9.99999e-01,6.69298e-01,7.43326e-01,2.50864e-01,9.98144e-01
9.292325798e-01,3.21586e-02,9.99999e-01,9.99999e-01,7.35592e-01,1.59044e-01,2.57810e-01,9.92783e-01
9.338787427e-01,1.84846e-02,9.99999e-01,9.99999e-01,7.39468e-01,9.10132e-02,2.64806e-01,9.70501e-01
9.385481364e-01,8.15771e-02,9.99999e-01,9.99999e-01,7.99246e-01,3.76176e-01,2.71849e-01,9.65015e-01
9.432408771e-01,6.55220e-02,9.99999e-01,9.99999e-01,8.70870e-01,2.72819e-01,2.78933e-01,9.69744e-01
9.479570815e-01,4.30003e-02,9.99999e-01,9.99999e-01,9.31469e-01,1.63871e-01,2.86057e-01,9.75305e-01
9.526968669e-01,6.88659e-02,9.99999e-01,9.99999e-01,9.66376e-01,2.45044e-01,2.93217e-01,9.84864e-01
9.574603512e-01,7.68210e-02,9.99999e-01,9.99999e-01,9.85461e-01,2.60768e-01,3.00410e-01,9.92282e-01
9.622476530e-01,9.98217e-02,9.99999e-01,9.99999e-01,9.95440e-01,3.27443e-01,3.07631e-01,9.94657e-01
9.670588912e-01,1.63460e-01,9.99999e-01,9.99999e-01,9.98631e-01,5.21622e-01,3.14878e-01,9.96342e-01
9.718941857e-01,2.11186e-01,9.99999e-01,9.99999e-01,9.99902e-01,6.57374e-01,3.22148e-01,9.97306e-01
9.767536566e-01,2.31930e-01,9.99999e-01,9.99999e-01,9.99999e-01,7.05470e-01,3.29437e-01,9.97940e-01
9.816374249e-01,2.59394e-01,9.99999e-01,9.99999e-01,9.99999e-01,7.70851e-01,3.36743e-01,9.99286e-01
9.865456120e-01,2.92203e-01,9.99999e-01,9.99999e-01,9.99999e-01,8.49403e-01,3.44061e-01,9.99851e-01
9.914783401e-01,3.17572e-01,9.99999e-01,9.99999e-01,9.99999e-01,9.03800e-01,3.51389e-01,9.99958e-01
9.964357318e-01,3.39484e-01,9.99999e-01,9.99999e-01,9.99999e-01,9.46390e-01,3.58723e-01,9.99975e-01
1.001417910e+00,3.54150e-01,9.99999e-01,9.99999e-01,9.99999e-01,9.67494e-01,3.66062e-01,9.99962e-01
1.006425000e+00,3.66415e-01,9.99999e-01,9.99999e-01,9.99999e-01,9.81342e-01,3.73401e-01,9.99947e-01
1.011457125e+00,3.76293e-01,9.99999e-01,9.99999e-01,9.99999e-01,9.88374e-01,3.80738e-01,9.99950e-01
1.016514411e+00,3.84989e-01,9.99999e-01,9.99999e-01,9.99999e-01,9.92094e-01,3.88069e-01,9.99965e-01
1.021596983e+00,3.92816e-01,9.99999e-01,9.99999e-01,9.99814e-01,9.93697e-01,3.95393e-01,9.99965e-01
1.026704968e+00,3.95193e-01,9.99999e-01,9.99999e-01,9.86190e-01,9.95081e-01,4.02707e-01,9.99976e-01
1.031838492e+00,3.65581e-01,9.99999e-01,9.99999e-01,8.94663e-01,9.96422e-01,4.10007e-01,9.99993e-01
1.036997685e+00,1.73307e-02,9.99999e-01,9.99999e-01,4.15979e-02,9.97874e-01,4.17292e-01,9.99998e-01
1.042182673e+00,6.49724e-04,9.99999e-01,9.99999e-01,1.53324e-03,9.97468e-01,4.24558e-01,9.99999e-01
1.047393587e+00,1.85814e-03,9.99999e-01,9.99999e-01,4.31512e-03,9.96642e-01,4.31804e-01,9.99998e-01
1.052630555e+00,5.42833e-08,9.99999e-01,9.99999e-01,1.24000e-07,9.95396e-01,4.39026e-01,9.99998e-01
1.057893707e+00,2.03392e-07,9.99999e-01,9.99999e-01,4.57553e-07,9.92328e-01,4.46223e-01,9.99996e-01
1.063183176e+00,9.92161e-06,9.99999e-01,9.99999e-01,2.20379e-05,9.87406e-01,4.53392e-01,9.99992e-01
1.068499092e+00,1.29764e-04,9.99999e-01,9.99999e-01,2.85520e-04,9.78998e-01,4.60532e-01,9.99985e-01
1.073841587e+00,2.30809e-03,9.99999e-01,9.99999e-01,5.02119e-03,9.75504e-01,4.67639e-01,9.99968e-01
