#,Wave/freq,Total,N2,O2,CO2,H2O,Rayleigh,CIA
4.000000000e-01,2.84843e-03,9.99999e-01,9.99999e-01,9.99999e-01,9.99988e-01,2.84846e-03,9.99999e-01
4.020000000e-01,3.19844e-03,9.99999e-01,9.99999e-01,9.99999e-01,9.99992e-01,3.19846e-03,9.99999e-01
4.040100000e-01,3.58281e-03,9.99999e-01,9.99999e-01,9.99999e-01,9.99996e-01,3.58282e-03,9.99999e-01
4.060300500e-01,4.00437e-03,9.99999e-01,9.99999e-01,9.99999e-01,9.99998e-01,4.00438e-03,9.99999e-01
4.080602003e-01,4.46571e-03,9.99999e-01,9.99999e-01,9.99999e-01,9.99999e-01,4.46571e-03,9.99999e-01
4.101005013e-01,4.96948e-03,9.99999e-01,9.99999e-01,9.99999e-01,9.99999e-01,4.96948e-03,9.99999e-01
4.121510038e-01,5.51842e-03,9.99999e-01,9.99999e-01,9.99999e-01,9.99999e-01,5.51842e-03,9.99999e-01
4.142117588e-01,6.11531e-03,9.99999e-01,9.99999e-01,9.99999e-01,9.99996e-01,6.11533e-03,9.99999e-01
4.162828176e-01,6.76297e-03,9.99999e-01,9.99999e-01,9.99999e-01,9.99985e-01,6.76306e-03,9.99999e-01
4.183642317e-01,7.46448e-03,9.99999e-01,9.99999e-01,9.99999e-01,9.99991e-01,7.46454e-03,9.99999e-01
4.204560528e-01,8.22270e-03,9.99999e-01,9.99999e-01,9.99999e-01,9.99994e-01,8.22274e-03,9.99999e-01
4.225583331e-01,9.04065e-03,9.99999e-01,9.99999e-01,9.99999e-01,9.99997e-01,9.04066e-03,9.99999e-01
4.246711247e-01,9.92133e-03,9.99999e-01,9.99999e-01,9.99999e-01,9.99998e-01,9.92134e-03,9.99999e-01
4.267944804e-01,1.08678e-02,9.99999e-01,9.99999e-01,9.99999e-01,9.99997e-01,1.08678e-02,9.99999e-01
4.289284528e-01,1.18832e-02,9.99999e-01,9.99999e-01,9.99999e-01,9.99997e-01,1.18832e-02,9.99999e-01
4.310730950e-01,1.29706e-02,9.99999e-01,9.99999e-01,9.99999e-01,9.99998e-01,1.29706e-02,9.99999e-01
4.332284605e-01,1.41329e-02,9.99999e-01,9.99999e-01,9.99999e-01,9.99999e-01,1.41329e-02,9.99999e-01
4.353946028e-01,1.53734e-02,9.99999e-01,9.99999e-01,9.99999e-01,9.99999e-01,1.53734e-02,9.99999e-01
4.375715758e-01,1.66950e-02,9.99999e-01,9.99999e-01,9.99999e-01,9.99998e-01,1.66950e-02,9.99999e-01
4.397594337e-01,1.81004e-02,9.99999e-01,9.99999e-01,9.99999e-01,9.99987e-01,1.81007e-02,9.99999e-01
4.419582309e-01,1.95922e-02,9.99999e-01,9.99999e-01,9.99999e-01,9.99938e-01,1.95934e-02,9.99999e-01
4.441680220e-01,2.11750e-02,9.99999e-01,9.99999e-01,9.99999e-01,9.99950e-01,2.11760e-02,9.99999e-01
4.463888621e-01,2.28502e-02,9.99999e-01,9.99999e-01,9.99999e-01,9.99948e-01,2.28514e-02,9.99999e-01
4.486208064e-01,2.46215e-02,9.99999e-01,9.99999e-01,9.99999e-01,9.99967e-01,2.46223e-02,9.99999e-01
4.508639105e-01,2.64909e-02,9.99999e-01,9.99999e-01,9.99999e-01,9.99984e-01,2.64913e-02,9.99999e-01
4.531182300e-01,2.84609e-02,9.99999e-01,9.99999e-01,9.99999e-01,9.99993e-01,2.84611e-02,9.99999e-01
4.553838212e-01,3.05339e-02,9.99999e-01,9.99999e-01,9.99999e-01,9.99995e-01,3.05340e-02,9.99999e-01
4.576607403e-01,3.27124e-02,9.99999e-01,9.99999e-01,9.99999e-01,9.99997e-01,3.27124e-02,9.99999e-01
4.599490440e-01,3.49986e-02,9.99999e-01,9.99999e-01,9.99999e-01,9.99998e-01,3.49986e-02,9.99999e-01
4.622487892e-01,3.73947e-02,9.99999e-01,9.99999e-01,9.99999e-01,9.99999e-01,3.73947e-02,9.99999e-01
4.645600332e-01,3.99025e-02,9.99999e-01,9.99999e-01,9.99999e-01,9.99998e-01,3.99025e-02,9.99999e-01
4.668828333e-01,4.25233e-02,9.99999e-01,9.99999e-01,9.99999e-01,9.99984e-01,4.25240e-02,9.99999e-01
4.692172475e-01,4.52593e-02,9.99999e-01,9.99999e-01,9.99999e-01,9.99967e-01,4.52607e-02,9.99999e-01
4.715633337e-01,4.81133e-02,9.99999e-01,9.99999e-01,9.99999e-01,9.99978e-01,4.81143e-02,9.99999e-01
4.739211504e-01,5.10851e-02,9.99999e-01,9.99999e-01,9.99999e-01,9.99979e-01,5.10861e-02,9.99999e-01
4.762907561e-01,5.41767e-02,9.99999e-01,9.99999e-01,9.99999e-01,9.99989e-01,5.41773e-02,9.99999e-01
4.786722099e-01,5.73886e-02,9.99999e-01,9.99999e-01,9.99999e-01,9.99995e-01,5.73888e-02,9.99999e-01
4.810655710e-01,6.07216e-02,9.99999e-01,9.99999e-01,9.99999e-01,9.99998e-01,6.07216e-02,9.99999e-01
4.834708988e-01,6.41757e-02,9.99999e-01,9.99999e-01,9.99999e-01,9.99987e-01,6.41764e-02,9.99999e-01
4.858882533e-01,6.77521e-02,9.99999e-01,9.99999e-01,9.99999e-01,9.99976e-01,6.77537e-02,9.99999e-01
4.883176946e-01,7.14524e-02,9.99999e-01,9.99999e-01,9.99999e-01,9.99980e-01,7.14537e-02,9.99999e-01
4.907592831e-01,7.52754e-02,9.99999e-01,9.99999e-01,9.99999e-01,9.99982e-01,7.52767e-02,9.99999e-01
4.932130795e-01,7.92217e-02,9.99999e-01,9.99999e-01,9.99999e-01,9.99987e-01,7.92226e-02,9.99999e-01
4.956791449e-01,8.32908e-02,9.99999e-01,9.99999e-01,9.99999e-01,9.99993e-01,8.32913e-02,9.99999e-01
4.981575406e-01,8.74796e-02,9.99999e-01,9.99999e-01,9.99999e-01,9.99967e-01,8.74824e-02,9.99999e-01
5.006483283e-01,9.17877e-02,9.99999e-01,9.99999e-01,9.99999e-01,9.99917e-01,9.17953e-02,9.99998e-01
5.031515699e-01,9.61886e-02,9.99999e-01,9.99999e-01,9.99999e-01,9.99581e-01,9.62293e-02,9.99995e-01
5.056673278e-01,1.00761e-01,9.99999e-01,9.99999e-01,9.99999e-01,9.99777e-01,1.00783e-01,9.99994e-01
5.081956644e-01,1.05427e-01,9.99999e-01,9.99999e-01,9.99999e-01,9.99719e-01,1.05457e-01,9.99996e-01
5.107366428e-01,1.10227e-01,9.99999e-01,9.99999e-01,9.99999e-01,9.99810e-01,1.10248e-01,9.99998e-01
5.132903260e-01,1.15144e-01,9.99999e-01,9.99999e-01,9.99999e-01,9.99891e-01,1.15156e-01,9.99999e-01
5.158567776e-01,1.20174e-01,9.99999e-01,9.99999e-01,9.99999e-01,9.99953e-01,1.20179e-01,9.99999e-01
5.184360615e-01,1.25313e-01,9.99999e-01,9.99999e-01,9.99999e-01,9.99981e-01,1.25315e-01,9.99999e-01
5.210282418e-01,1.30562e-01,9.99999e-01,9.99999e-01,9.99999e-01,9.99992e-01,1.30563e-01,9.99999e-01
5.236333830e-01,1.35917e-01,9.99999e-01,9.99999e-01,9.99999e-01,9.99972e-01,1.35921e-01,9.99999e-01
5.262515499e-01,1.41383e-01,9.99999e-01,9.99999e-01,9.99999e-01,9.99982e-01,1.41386e-01,9.99999e-01
5.288828077e-01,1.46954e-01,9.99999e-01,9.99999e-01,9.99999e-01,9.99983e-01,1.46956e-01,9.99999e-01
5.315272217e-01,1.52627e-01,9.99999e-01,9.99999e-01,9.99999e-01,9.99985e-01,1.52629e-01,9.99999e-01
5.341848578e-01,1.58401e-01,9.99999e-01,9.99999e-01,9.99999e-01,9.99990e-01,1.58403e-01,9.99999e-01
5.368557821e-01,1.64269e-01,9.99999e-01,9.99999e-01,9.99999e-01,9.99967e-01,1.64274e-01,9.99999e-01
5.395400610e-01,1.70221e-01,9.99999e-01,9.99999e-01,9.99999e-01,9.99886e-01,1.70241e-01,9.99998e-01
5.422377613e-01,1.76273e-01,9.99999e-01,9.99999e-01,9.99999e-01,9.99850e-01,1.76300e-01,9.99996e-01
5.449489501e-01,1.82423e-01,9.99999e-01,9.99999e-01,9.99999e-01,9.99862e-01,1.82449e-01,9.99996e-01
5.476736949e-01,1.88660e-01,9.99999e-01,9.99999e-01,9.99999e-01,9.99876e-01,1.88684e-01,9.99998e-01
5.504120634e-01,1.94985e-01,9.99999e-01,9.99999e-01,9.99999e-01,9.99910e-01,1.95003e-01,9.99999e-01
5.531641237e-01,2.01393e-01,9.99999e-01,9.99999e-01,9.99999e-01,9.99954e-01,2.01402e-01,9.99999e-01
5.559299443e-01,2.07875e-01,9.99999e-01,9.99999e-01,9.99999e-01,9.99977e-01,2.07879e-01,9.99999e-01
5.587095940e-01,2.14427e-01,9.99999e-01,9.99999e-01,9.99999e-01,9.99986e-01,2.14430e-01,9.99999e-01
5.615031420e-01,2.21049e-01,9.99999e-01,9.99999e-01,9.99999e-01,9.99984e-01,2.21052e-01,9.99999e-01
5.643106577e-01,2.27738e-01,9.99999e-01,9.99999e-01,9.99999e-01,9.99982e-01,2.27742e-01,9.99999e-01
5.671322110e-01,2.34447e-01,9.99999e-01,9.99999e-01,9.99999e-01,9.99796e-01,2.34495e-01,9.99997e-01
5.699678720e-01,2.41255e-01,9.99999e-01,9.99999e-01,9.99999e-01,9.99776e-01,2.41310e-01,9.99993e-01
5.728177114e-01,2.48125e-01,9.99999e-01,9.99999e-01,9.99999e-01,9.99770e-01,2.48183e-01,9.99994e-01
5.756818000e-01,2.55055e-01,9.99999e-01,9.99999e-01,9.99999e-01,9.99788e-01,2.55109e-01,9.99996e-01
5.785602090e-01,2.62038e-01,9.99999e-01,9.99999e-01,9.99999e-01,9.99815e-01,2.62087e-01,9.99998e-01
5.814530100e-01,2.69062e-01,9.99999e-01,9.99999e-01,9.99999e-01,9.99815e-01,2.69111e-01,9.99999e-01
5.843602750e-01,2.76119e-01,9.99999e-01,9.99999e-01,9.99999e-01,9.99781e-01,2.76180e-01,9.99998e-01
5.872820764e-01,2.82752e-01,9.99999e-01,9.99999e-01,9.99999e-01,9.98116e-01,2.83289e-01,9.99986e-01
5.902184868e-01,2.89756e-01,9.99999e-01,9.99999e-01,9.99999e-01,9.97697e-01,2.90436e-01,9.99963e-01
5.931695792e-01,2.97123e-01,9.99999e-01,9.99999e-01,9.99999e-01,9.98377e-01,2.97616e-01,9.99964e-01
5.961354271e-01,3.04277e-01,9.99999e-01,9.99999e-01,9.99999e-01,9.98217e-01,3.04826e-01,9.99978e-01
5.991161043e-01,3.11656e-01,9.99999e-01,9.99999e-01,9.99999e-01,9.98698e-01,3.12064e-01,9.99993e-01
6.021116848e-01,3.19089e-01,9.99999e-01,9.99999e-01,9.99999e-01,9.99260e-01,3.19326e-01,9.99998e-01
6.051222432e-01,3.26485e-01,9.99999e-01,9.99999e-01,9.99999e-01,9.99625e-01,3.26608e-01,9.99999e-01
6.081478544e-01,3.33853e-01,9.99999e-01,9.99999e-01,9.99999e-01,9.99838e-01,3.33907e-01,9.99999e-01
6.111885937e-01,3.41197e-01,9.99999e-01,9.99999e-01,9.99999e-01,9.99931e-01,3.41220e-01,9.99999e-01
6.142445367e-01,3.48534e-01,9.99999e-01,9.99999e-01,9.99999e-01,9.99969e-01,3.48545e-01,9.99999e-01
6.173157594e-01,3.55871e-01,9.99999e-01,9.99999e-01,9.99999e-01,9.99982e-01,3.55877e-01,9.99999e-01
6.204023382e-01,3.63209e-01,9.99999e-01,9.99999e-01,9.99999e-01,9.99985e-01,3.63214e-01,9.99999e-01
6.235043498e-01,3.70531e-01,9.99999e-01,9.99999e-01,9.99999e-01,9.99938e-01,3.70554e-01,9.99999e-01
6.266218716e-01,3.77766e-01,9.99999e-01,9.99999e-01,9.99999e-01,9.99669e-01,3.77892e-01,9.99997e-01
6.297549810e-01,3.85177e-01,9.99999e-01,9.99999e-01,9.99999e-01,9.99878e-01,3.85226e-01,9.99994e-01
6.329037559e-01,3.92457e-01,9.99999e-01,9.99999e-01,9.99999e-01,9.99759e-01,3.92553e-01,9.99995e-01
6.360682746e-01,3.99789e-01,9.99999e-01,9.99999e-01,9.99999e-01,9.99796e-01,3.99871e-01,9.99997e-01
6.392486160e-01,4.07069e-01,9.99999e-01,9.99999e-01,9.99999e-01,9.99735e-01,4.07177e-01,9.99998e-01
6.424448591e-01,4.14336e-01,9.99999e-01,9.99999e-01,9.99999e-01,9.99682e-01,4.14468e-01,9.99997e-01
6.456570834e-01,4.21056e-01,9.99999e-01,9.99999e-01,9.99999e-01,9.98383e-01,4.21741e-01,9.99990e-01
6.488853688e-01,4.28377e-01,9.99999e-01,9.99999e-01,9.99999e-01,9.98582e-01,4.28995e-01,9.99974e-01
6.521297956e-01,4.35681e-01,9.99999e-01,9.99999e-01,9.99999e-01,9.98770e-01,4.36227e-01,9.99978e-01
6.553904446e-01,4.42889e-01,9.99999e-01,9.99999e-01,9.99999e-01,9.98786e-01,4.43434e-01,9.99983e-01
6.586673968e-01,4.50139e-01,9.99999e-01,9.99999e-01,9.99999e-01,9.98950e-01,4.50614e-01,9.99994e-01
6.619607338e-01,4.57488e-01,9.99999e-01,9.99999e-01,9.99999e-01,9.99393e-01,4.57766e-01,9.99998e-01
6.652705375e-01,4.64722e-01,9.99999e-01,9.99999e-01,9.99999e-01,9.99647e-01,4.64886e-01,9.99998e-01
6.685968902e-01,4.71896e-01,9.99999e-01,9.99999e-01,9.99999e-01,9.99836e-01,4.71973e-01,9.99999e-01
6.719398746e-01,4.78989e-01,9.99999e-01,9.99999e-01,9.99999e-01,9.99923e-01,4.79025e-01,9.99999e-01
6.752995740e-01,4.86020e-01,9.99999e-01,9.99999e-01,9.99999e-01,9.99958e-01,4.86040e-01,9.99999e-01
6.786760719e-01,4.92987e-01,9.99999e-01,9.99999e-01,9.99999e-01,9.99940e-01,4.93016e-01,9.99999e-01
6.820694522e-01,4.99900e-01,9.99999e-01,9.99999e-01,9.99999e-01,9.99898e-01,4.99951e-01,9.99998e-01
6.854797995e-01,5.06778e-01,9.99999e-01,9.99999e-01,9.99999e-01,9.99869e-01,5.06844e-01,9.99998e-01
6.889071985e-01,5.13533e-01,9.99999e-01,9.99999e-01,9.99999e-01,9.99690e-01,5.13693e-01,9.99996e-01
6.923517345e-01,5.17827e-01,9.99999e-01,9.99999e-01,9.99999e-01,9.94895e-01,5.20497e-01,9.99974e-01
6.958134932e-01,5.25794e-01,9.99999e-01,9.99999e-01,9.99999e-01,9.97286e-01,5.27254e-01,9.99943e-01
6.992925606e-01,5.32589e-01,9.99999e-01,9.99999e-01,9.99999e-01,9.97476e-01,5.33962e-01,9.99950e-01
7.027890234e-01,5.38902e-01,9.99999e-01,9.99999e-01,9.99999e-01,9.96858e-01,5.40621e-01,9.99962e-01
7.063029686e-01,5.45775e-01,9.99999e-01,9.99999e-01,9.99999e-01,9.97361e-01,5.47229e-01,9.99980e-01
7.098344834e-01,5.52376e-01,9.99999e-01,9.99999e-01,9.99999e-01,9.97468e-01,5.53784e-01,9.99988e-01
7.133836558e-01,5.58409e-01,9.99999e-01,9.99999e-01,9.99999e-01,9.96671e-01,5.60287e-01,9.99977e-01
7.169505741e-01,5.51465e-01,9.99999e-01,9.99999e-01,9.99999e-01,9.73225e-01,5.66735e-01,9.99826e-01
7.205353270e-01,5.65259e-01,9.99999e-01,9.99999e-01,9.99999e-01,9.86570e-01,5.73127e-01,9.99695e-01
7.241380036e-01,5.69609e-01,9.99999e-01,9.99999e-01,9.99999e-01,9.83253e-01,5.79464e-01,9.99734e-01
7.277586936e-01,5.76749e-01,9.99999e-01,9.99999e-01,9.99999e-01,9.84861e-01,5.85743e-01,9.99779e-01
7.313974871e-01,5.82326e-01,9.99999e-01,9.99999e-01,9.99999e-01,9.83817e-01,5.91964e-01,9.99898e-01
7.350544745e-01,5.92815e-01,9.99999e-01,9.99999e-01,9.99999e-01,9.91154e-01,5.98127e-01,9.99964e-01
7.387297469e-01,6.00283e-01,9.99999e-01,9.99999e-01,9.99999e-01,9.93483e-01,6.04230e-01,9.99983e-01
7.424233956e-01,6.08318e-01,9.99999e-01,9.99999e-01,9.99999e-01,9.96800e-01,6.10272e-01,9.99996e-01
7.461355126e-01,6.15061e-01,9.99999e-01,9.99999e-01,9.99999e-01,9.98063e-01,6.16255e-01,9.99998e-01
7.498661902e-01,6.21613e-01,9.99999e-01,9.99999e-01,9.99999e-01,9.99095e-01,6.22176e-01,9.99999e-01
7.536155211e-01,6.27757e-01,9.99999e-01,9.99999e-01,9.99999e-01,9.99557e-01,6.28035e-01,9.99999e-01
7.573835987e-01,6.33687e-01,9.99999e-01,9.99999e-01,9.99999e-01,9.99771e-01,6.33832e-01,9.99999e-01
7.611705167e-01,6.39476e-01,9.99999e-01,9.99999e-01,9.99999e-01,9.99858e-01,6.39566e-01,9.99999e-01
7.649763693e-01,6.45181e-01,9.99999e-01,9.99999e-01,9.99999e-01,9.99911e-01,6.45238e-01,9.99999e-01
7.688012511e-01,6.50806e-01,9.99999e-01,9.99999e-01,9.99999e-01,9.99937e-01,6.50846e-01,9.99999e-01
7.726452574e-01,6.56358e-01,9.99999e-01,9.99999e-01,9.99999e-01,9.99948e-01,6.56391e-01,9.99999e-01
7.765084837e-01,6.61825e-01,9.99999e-01,9.99999e-01,9.99999e-01,9.99928e-01,6.61872e-01,9.99999e-01
7.803910261e-01,6.54528e-01,9.99999e-01,9.99999e-01,9.81172e-01,9.99691e-01,6.67289e-01,9.99999e-01
7.842929812e-01,6.16732e-01,9.99999e-01,9.99999e-01,9.17838e-01,9.98925e-01,6.72643e-01,9.99997e-01
7.882144461e-01,6.17330e-01,9.99999e-01,9.99999e-01,9.12610e-01,9.97766e-01,6.77932e-01,9.99985e-01
7.921555184e-01,6.47363e-01,9.99999e-01,9.99999e-01,9.48783e-01,9.98768e-01,6.83157e-01,9.99973e-01
7.961162960e-01,6.62951e-01,9.99999e-01,9.99999e-01,9.65234e-01,9.97848e-01,6.88318e-01,9.99974e-01
8.000968774e-01,6.78558e-01,9.99999e-01,9.99999e-01,9.81047e-01,9.97501e-01,6.93415e-01,9.99972e-01
8.040973618e-01,6.89795e-01,9.99999e-01,9.99999e-01,9.90100e-01,9.97503e-01,6.98448e-01,9.99978e-01
8.081178486e-01,6.96306e-01,9.99999e-01,9.99999e-01,9.95465e-01,9.94414e-01,7.03417e-01,9.99979e-01
8.121584379e-01,6.90864e-01,9.99999e-01,9.99999e-01,9.98585e-01,9.76804e-01,7.08322e-01,9.99920e-01
8.162192301e-01,6.92926e-01,9.99999e-01,9.99999e-01,9.99687e-01,9.72212e-01,7.13163e-01,9.99703e-01
8.203003262e-01,7.07822e-01,9.99999e-01,9.99999e-01,9.99994e-01,9.86251e-01,7.17941e-01,9.99652e-01
8.244018279e-01,7.08206e-01,9.99999e-01,9.99999e-01,9.99999e-01,9.80274e-01,7.22656e-01,9.99723e-01
8.285238370e-01,7.15125e-01,9.99999e-01,9.99999e-01,9.99999e-01,9.83463e-01,7.27307e-01,9.99782e-01
8.326664562e-01,7.19539e-01,9.99999e-01,9.99999e-01,9.99999e-01,9.83204e-01,7.31896e-01,9.99909e-01
8.368297885e-01,7.27552e-01,9.99999e-01,9.99999e-01,9.99999e-01,9.87974e-01,7.36422e-01,9.99979e-01
8.410139374e-01,7.35573e-01,9.99999e-01,9.99999e-01,9.99999e-01,9.92840e-01,7.40886e-01,9.99987e-01
8.452190071e-01,7.42660e-01,9.99999e-01,9.99999e-01,9.99999e-01,9.96481e-01,7.45288e-01,9.99992e-01
8.494451021e-01,7.48099e-01,9.99999e-01,9.99999e-01,9.99999e-01,9.97965e-01,7.49628e-01,9.99993e-01
8.536923276e-01,7.52994e-01,9.99999e-01,9.99999e-01,9.99999e-01,9.98792e-01,7.53907e-01,9.99995e-01
8.579607893e-01,7.57563e-01,9.99999e-01,9.99999e-01,9.99999e-01,9.99258e-01,7.58126e-01,9.99998e-01
8.622505932e-01,7.61924e-01,9.99999e-01,9.99999e-01,9.99999e-01,9.99527e-01,7.62284e-01,9.99999e-01
8.665618462e-01,7.28762e-01,9.99999e-01,9.99999e-01,9.51181e-01,9.99708e-01,7.66382e-01,9.99999e-01
8.708946554e-01,6.18401e-01,9.99999e-01,9.99999e-01,8.02941e-01,9.99667e-01,7.70420e-01,9.99999e-01
8.752491287e-01,6.49437e-01,9.99999e-01,9.99999e-01,8.39000e-01,9.99554e-01,7.74399e-01,9.99999e-01
8.796253743e-01,7.06894e-01,9.99999e-01,9.99999e-01,9.08779e-01,9.99385e-01,7.78320e-01,9.99998e-01
8.840235012e-01,7.44004e-01,9.99999e-01,9.99999e-01,9.51856e-01,9.99297e-01,7.82183e-01,9.99995e-01
8.884436187e-01,7.68870e-01,9.99999e-01,9.99999e-01,9.80687e-01,9.97484e-01,7.85987e-01,9.99987e-01
8.928858368e-01,7.62641e-01,9.99999e-01,9.99999e-01,9.92162e-01,9.73352e-01,7.89735e-01,9.99929e-01
8.973502660e-01,7.54275e-01,9.99999e-01,9.99999e-01,9.98078e-01,9.52808e-01,7.93426e-01,9.99639e-01
9.018370173e-01,7.76882e-01,9.99999e-01,9.99999e-01,9.99787e-01,9.75438e-01,7.97061e-01,9.99433e-01
9.063462024e-01,7.79164e-01,9.99999e-01,9.99999e-01,9.94729e-01,9.78729e-01,8.00640e-01,9.99501e-01
9.108779334e-01,7.67579e-01,9.99999e-01,9.99999e-01,9.87674e-01,9.66834e-01,8.04164e-01,9.99482e-01
9.154323231e-01,7.74652e-01,9.99999e-01,9.99999e-01,9.97065e-01,9.62363e-01,8.07633e-01,9.99572e-01
9.200094847e-01,7.54442e-01,9.99999e-01,9.99999e-01,9.58025e-01,9.70300e-01,8.11049e-01,9.99760e-01
9.246095321e-01,7.31819e-01,9.99999e-01,9.99999e-01,9.41077e-01,9.54506e-01,8.14411e-01,9.99723e-01
9.292325798e-01,5.68426e-01,9.99999e-01,9.99999e-01,9.53832e-01,7.27339e-01,8.17720e-01,9.98924e-01
9.338787427e-01,5.16452e-01,9.99999e-01,9.99999e-01,9.54992e-01,6.59593e-01,8.20976e-01,9.95564e-01
9.385481364e-01,6.71160e-01,9.99999e-01,9.99999e-01,9.66807e-01,8.45761e-01,8.24182e-01,9.94726e-01
9.432408771e-01,6.39291e-01,9.99999e-01,9.99999e-01,9.79501e-01,7.91941e-01,8.27335e-01,9.95448e-01
9.479570815e-01,5.92103e-01,9.99999e-01,9.99999e-01,9.89468e-01,7.23012e-01,8.30439e-01,9.96294e-01
9.526968669e-01,6.49152e-01,9.99999e-01,9.99999e-01,9.94898e-01,7.84374e-01,8.33492e-01,9.97737e-01
9.574603512e-01,6.69638e-01,9.99999e-01,9.99999e-01,9.97814e-01,8.03135e-01,8.36496e-01,9.98850e-01
9.622476530e-01,7.01390e-01,9.99999e-01,9.99999e-01,9.99317e-01,8.36750e-01,8.39451e-01,9.99204e-01
9.670588912e-01,7.59840e-01,9.99999e-01,9.99999e-01,9.99794e-01,9.02710e-01,8.42358e-01,9.99455e-01
9.718941857e-01,7.92820e-01,9.99999e-01,9.99999e-01,9.99984e-01,9.38395e-01,8.45217e-01,9.99599e-01
9.767536566e-01,8.04219e-01,9.99999e-01,9.99999e-01,9.99999e-01,9.48628e-01,8.48029e-01,9.99693e-01
9.816374249e-01,8.18052e-01,9.99999e-01,9.99999e-01,9.99999e-01,9.61616e-01,8.50795e-01,9.99893e-01
9.865456120e-01,8.32888e-01,9.99999e-01,9.99999e-01,9.99999e-01,9.75854e-01,8.53515e-01,9.99977e-01
9.914783401e-01,8.43364e-01,9.99999e-01,9.99999e-01,9.99999e-01,9.85026e-01,8.56189e-01,9.99993e-01
9.964357318e-01,8.51789e-01,9.99999e-01,9.99999e-01,9.99999e-01,9.91817e-01,8.58819e-01,9.99995e-01
1.001417910e+00,8.57169e-01,9.99999e-01,9.99999e-01,9.99999e-01,9.95087e-01,8.61405e-01,9.99994e-01
1.006425000e+00,8.61525e-01,9.99999e-01,9.99999e-01,9.99999e-01,9.97203e-01,8.63947e-01,9.99991e-01
1.011457125e+00,8.64932e-01,9.99999e-01,9.99999e-01,9.99999e-01,9.98258e-01,8.66446e-01,9.99992e-01
1.016514411e+00,8.67873e-01,9.99999e-01,9.99999e-01,9.99999e-01,9.98819e-01,8.68903e-01,9.99994e-01
1.021596983e+00,8.70473e-01,9.99999e-01,9.99999e-01,9.99974e-01,9.99059e-01,8.71318e-01,9.99994e-01
1.026704968e+00,8.71265e-01,9.99999e-01,9.99999e-01,9.97955e-01,9.99267e-01,8.73692e-01,9.99996e-01
1.031838492e+00,8.51969e-01,9.99999e-01,9.99999e-01,9.73047e-01,9.99466e-01,8.76026e-01,9.99998e-01
1.036997685e+00,2.26548e-01,9.99999e-01,9.99999e-01,2.58001e-01,9.99683e-01,8.78319e-01,9.99999e-01
1.042182673e+00,2.56876e-01,9.99999e-01,9.99999e-01,2.91817e-01,9.99624e-01,8.80573e-01,9.99999e-01
1.047393587e+00,2.49988e-01,9.99999e-01,9.99999e-01,2.83308e-01,9.99500e-01,8.82788e-01,9.99999e-01
1.052630555e+00,2.89177e-02,9.99999e-01,9.99999e-01,3.26941e-02,9.99315e-01,8.84964e-01,9.99999e-01
1.057893707e+00,5.66737e-02,9.99999e-01,9.99999e-01,6.39420e-02,9.98859e-01,8.87103e-01,9.99999e-01
1.063183176e+00,1.20624e-01,9.99999e-01,9.99999e-01,1.35856e-01,9.98121e-01,8.89204e-01,9.99998e-01
1.068499092e+00,2.33185e-01,9.99999e-01,9.99999e-01,2.62375e-01,9.96851e-01,8.91269e-01,9.99997e-01
1.073841587e+00,3.81777e-01,9.99999e-01,9.99999e-01,4.28799e-01,9.96322e-01,8.93298e-01,9.99994e-01
