#,Wave/freq,Total,N2,O2,CO2,H2O,Rayleigh,CIA
4.000000000e-01,2.81185e-19,9.99999e-01,9.99999e-01,9.99999e-01,9.99917e-01,2.81208e-19,9.99999e-01
4.020000000e-01,6.54360e-19,9.99999e-01,9.99999e-01,9.99999e-01,9.99948e-01,6.54393e-19,9.99999e-01
4.040100000e-01,1.49628e-18,9.99999e-01,9.99999e-01,9.99999e-01,9.99977e-01,1.49631e-18,9.99999e-01
4.060300500e-01,3.36594e-18,9.99999e-01,9.99999e-01,9.99999e-01,9.99994e-01,3.36596e-18,9.99999e-01
4.080602003e-01,7.45145e-18,9.99999e-01,9.99999e-01,9.99999e-01,9.99997e-01,7.45146e-18,9.99999e-01
4.101005013e-01,1.62389e-17,9.99999e-01,9.99999e-01,9.99999e-01,9.99999e-01,1.62389e-17,9.99999e-01
4.121510038e-01,3.48489e-17,9.99999e-01,9.99999e-01,9.99999e-01,9.99996e-01,3.48490e-17,9.99999e-01
4.142117588e-01,7.36653e-17,9.99999e-01,9.99999e-01,9.99999e-01,9.99977e-01,7.36669e-17,9.99999e-01
4.162828176e-01,1.53423e-16,9.99999e-01,9.99999e-01,9.99999e-01,9.99897e-01,1.53438e-16,9.99999e-01
4.183642317e-01,3.14974e-16,9.99999e-01,9.99999e-01,9.99999e-01,9.99938e-01,3.14993e-16,9.99999e-01
4.204560528e-01,6.37502e-16,9.99999e-01,9.99999e-01,9.99999e-01,9.99962e-01,6.37526e-16,9.99999e-01
4.225583331e-01,1.27245e-15,9.99999e-01,9.99999e-01,9.99999e-01,9.99985e-01,1.27247e-15,9.99999e-01
4.246711247e-01,2.50531e-15,9.99999e-01,9.99999e-01,9.99999e-01,9.99988e-01,2.50534e-15,9.99999e-01
4.267944804e-01,4.86708e-15,9.99999e-01,9.99999e-01,9.99999e-01,9.99983e-01,4.86716e-15,9.99999e-01
4.289284528e-01,9.33215e-15,9.99999e-01,9.99999e-01,9.99999e-01,9.99986e-01,9.33227e-15,9.99999e-01
4.310730950e-01,1.76650e-14,9.99999e-01,9.99999e-01,9.99999e-01,9.99994e-01,1.76650e-14,9.99999e-01
4.332284605e-01,3.30193e-14,9.99999e-01,9.99999e-01,9.99999e-01,9.99998e-01,3.30193e-14,9.99999e-01
4.353946028e-01,6.09615e-14,9.99999e-01,9.99999e-01,9.99999e-01,9.99998e-01,6.09616e-14,9.99999e-01
4.375715758e-01,1.11194e-13,9.99999e-01,9.99999e-01,9.99999e-01,9.99989e-01,1.11195e-13,9.99999e-01
4.397594337e-01,2.00409e-13,9.99999e-01,9.99999e-01,9.99999e-01,9.99911e-01,2.00427e-13,9.99999e-01
4.419582309e-01,3.56926e-13,9.99999e-01,9.99999e-01,9.99999e-01,9.99550e-01,3.57087e-13,9.99999e-01
4.441680220e-01,6.28757e-13,9.99999e-01,9.99999e-01,9.99999e-01,9.99643e-01,6.28981e-13,9.99999e-01
4.463888621e-01,1.09518e-12,9.99999e-01,9.99999e-01,9.99999e-01,9.99630e-01,1.09558e-12,9.99999e-01
4.486208064e-01,1.88708e-12,9.99999e-01,9.99999e-01,9.99999e-01,9.99769e-01,1.88752e-12,9.99999e-01
4.508639105e-01,3.21680e-12,9.99999e-01,9.99999e-01,9.99999e-01,9.99891e-01,3.21715e-12,9.99999e-01
4.531182300e-01,5.42574e-12,9.99999e-01,9.99999e-01,9.99999e-01,9.99956e-01,5.42597e-12,9.99999e-01
4.553838212e-01,9.05705e-12,9.99999e-01,9.99999e-01,9.99999e-01,9.99970e-01,9.05731e-12,9.99999e-01
4.576607403e-01,1.49665e-11,9.99999e-01,9.99999e-01,9.99999e-01,9.99986e-01,1.49667e-11,9.99999e-01
4.599490440e-01,2.44872e-11,9.99999e-01,9.99999e-01,9.99999e-01,9.99990e-01,2.44875e-11,9.99999e-01
4.622487892e-01,3.96769e-11,9.99999e-01,9.99999e-01,9.99999e-01,9.99997e-01,3.96770e-11,9.99999e-01
4.645600332e-01,6.36781e-11,9.99999e-01,9.99999e-01,9.99999e-01,9.99993e-01,6.36785e-11,9.99999e-01
4.668828333e-01,1.01238e-10,9.99999e-01,9.99999e-01,9.99999e-01,9.99891e-01,1.01249e-10,9.99999e-01
4.692172475e-01,1.59480e-10,9.99999e-01,9.99999e-01,9.99999e-01,9.99768e-01,1.59517e-10,9.99999e-01
4.715633337e-01,2.49035e-10,9.99999e-01,9.99999e-01,9.99999e-01,9.99848e-01,2.49073e-10,9.99999e-01
4.739211504e-01,3.85443e-10,9.99999e-01,9.99999e-01,9.99999e-01,9.99854e-01,3.85499e-10,9.99999e-01
4.762907561e-01,5.91479e-10,9.99999e-01,9.99999e-01,9.99999e-01,9.99924e-01,5.91524e-10,9.99999e-01
4.786722099e-01,8.99985e-10,9.99999e-01,9.99999e-01,9.99999e-01,9.99968e-01,9.00013e-10,9.99999e-01
4.810655710e-01,1.35807e-09,9.99999e-01,9.99999e-01,9.99999e-01,9.99990e-01,1.35808e-09,9.99999e-01
4.834708988e-01,2.03251e-09,9.99999e-01,9.99999e-01,9.99999e-01,9.99912e-01,2.03269e-09,9.99999e-01
4.858882533e-01,3.01778e-09,9.99999e-01,9.99999e-01,9.99999e-01,9.99835e-01,3.01827e-09,9.99999e-01
4.883176946e-01,4.44626e-09,9.99999e-01,9.99999e-01,9.99999e-01,9.99862e-01,4.44687e-09,9.99999e-01
4.907592831e-01,6.50088e-09,9.99999e-01,9.99999e-01,9.99999e-01,9.99875e-01,6.50169e-09,9.99999e-01
4.932130795e-01,9.43411e-09,9.99999e-01,9.99999e-01,9.99999e-01,9.99911e-01,9.43494e-09,9.99999e-01
4.956791449e-01,1.35906e-08,9.99999e-01,9.99999e-01,9.99999e-01,9.99952e-01,1.35912e-08,9.99999e-01
4.981575406e-01,1.94332e-08,9.99999e-01,9.99999e-01,9.99999e-01,9.99767e-01,1.94377e-08,9.99999e-01
5.006483283e-01,2.75869e-08,9.99999e-01,9.99999e-01,9.99999e-01,9.99401e-01,2.76035e-08,9.99995e-01
5.031515699e-01,3.88092e-08,9.99999e-01,9.99999e-01,9.99999e-01,9.96953e-01,3.89290e-08,9.99967e-01
5.056673278e-01,5.44399e-08,9.99999e-01,9.99999e-01,9.99999e-01,9.98386e-01,5.45298e-08,9.99962e-01
5.081956644e-01,7.57197e-08,9.99999e-01,9.99999e-01,9.99999e-01,9.97964e-01,7.58758e-08,9.99975e-01
5.107366428e-01,1.04747e-07,9.99999e-01,9.99999e-01,9.99999e-01,9.98624e-01,1.04891e-07,9.99995e-01
5.132903260e-01,1.43964e-07,9.99999e-01,9.99999e-01,9.99999e-01,9.99212e-01,1.44078e-07,9.99998e-01
5.158567776e-01,1.96602e-07,9.99999e-01,9.99999e-01,9.99999e-01,9.99666e-01,1.96667e-07,9.99999e-01
5.184360615e-01,2.66771e-07,9.99999e-01,9.99999e-01,9.99999e-01,9.99866e-01,2.66807e-07,9.99999e-01
5.210282418e-01,3.59769e-07,9.99999e-01,9.99999e-01,9.99999e-01,9.99949e-01,3.59787e-07,9.99999e-01
5.236333830e-01,4.82217e-07,9.99999e-01,9.99999e-01,9.99999e-01,9.99800e-01,4.82314e-07,9.99998e-01
5.262515499e-01,6.42754e-07,9.99999e-01,9.99999e-01,9.99999e-01,9.99874e-01,6.42835e-07,9.99997e-01
5.288828077e-01,8.51834e-07,9.99999e-01,9.99999e-01,9.99999e-01,9.99885e-01,8.51932e-07,9.99998e-01
5.315272217e-01,1.12267e-06,9.99999e-01,9.99999e-01,9.99999e-01,9.99898e-01,1.12278e-06,9.99999e-01
5.341848578e-01,1.47159e-06,9.99999e-01,9.99999e-01,9.99999e-01,9.99934e-01,1.47169e-06,9.99999e-01
5.368557821e-01,1.91830e-06,9.99999e-01,9.99999e-01,9.99999e-01,9.99768e-01,1.91874e-06,9.99998e-01
5.395400610e-01,2.48644e-06,9.99999e-01,9.99999e-01,9.99999e-01,9.99169e-01,2.48852e-06,9.99992e-01
5.422377613e-01,3.20742e-06,9.99999e-01,9.99999e-01,9.99999e-01,9.98916e-01,3.21096e-06,9.99979e-01
5.449489501e-01,4.11811e-06,9.99999e-01,9.99999e-01,9.99999e-01,9.98997e-01,4.12233e-06,9.99979e-01
5.476736949e-01,5.26156e-06,9.99999e-01,9.99999e-01,9.99999e-01,9.99106e-01,5.26631e-06,9.99989e-01
5.504120634e-01,6.69094e-06,9.99999e-01,9.99999e-01,9.99999e-01,9.99351e-01,6.69530e-06,9.99996e-01
5.531641237e-01,8.46900e-06,9.99999e-01,9.99999e-01,9.99999e-01,9.99673e-01,8.47176e-06,9.99999e-01
5.559299443e-01,1.06682e-05,9.99999e-01,9.99999e-01,9.99999e-01,9.99842e-01,1.06699e-05,9.99999e-01
5.587095940e-01,1.33759e-05,9.99999e-01,9.99999e-01,9.99999e-01,9.99901e-01,1.33772e-05,9.99999e-01
5.615031420e-01,1.66949e-05,9.99999e-01,9.99999e-01,9.99999e-01,9.99890e-01,1.66967e-05,9.99999e-01
5.643106577e-01,2.07464e-05,9.99999e-01,9.99999e-01,9.99999e-01,9.99876e-01,2.07490e-05,9.99998e-01
5.671322110e-01,2.56356e-05,9.99999e-01,9.99999e-01,9.99999e-01,9.98510e-01,2.56742e-05,9.99986e-01
5.699678720e-01,3.15828e-05,9.99999e-01,9.99999e-01,9.99999e-01,9.98384e-01,3.16352e-05,9.99958e-01
5.728177114e-01,3.87537e-05,9.99999e-01,9.99999e-01,9.99999e-01,9.98330e-01,3.88198e-05,9.99965e-01
5.756818000e-01,4.73702e-05,9.99999e-01,9.99999e-01,9.99999e-01,9.98465e-01,4.74439e-05,9.99978e-01
5.785602090e-01,5.76769e-05,9.99999e-01,9.99999e-01,9.99999e-01,9.98660e-01,5.77547e-05,9.99993e-01
5.814530100e-01,6.99393e-05,9.99999e-01,9.99999e-01,9.99999e-01,9.98656e-01,7.00335e-05,9.99996e-01
5.843602750e-01,8.44649e-05,9.99999e-01,9.99999e-01,9.99999e-01,9.98408e-01,8.46002e-05,9.99990e-01
5.872820764e-01,1.00418e-04,9.99999e-01,9.99999e-01,9.99999e-01,9.86361e-01,1.01816e-04,9.99902e-01
5.902184868e-01,1.20025e-04,9.99999e-01,9.99999e-01,9.99999e-01,9.83366e-01,1.22088e-04,9.99735e-01
5.931695792e-01,1.44122e-04,9.99999e-01,9.99999e-01,9.99999e-01,9.88259e-01,1.45871e-04,9.99742e-01
5.961354271e-01,1.71411e-04,9.99999e-01,9.99999e-01,9.99999e-01,9.87108e-01,1.73676e-04,9.99844e-01
5.991161043e-01,2.04118e-04,9.99999e-01,9.99999e-01,9.99999e-01,9.90571e-01,2.06070e-04,9.99954e-01
6.021116848e-01,2.42373e-04,9.99999e-01,9.99999e-01,9.99999e-01,9.94635e-01,2.43681e-04,9.99994e-01
6.051222432e-01,2.86424e-04,9.99999e-01,9.99999e-01,9.99999e-01,9.97281e-01,2.87205e-04,9.99999e-01
6.081478544e-01,3.37009e-04,9.99999e-01,9.99999e-01,9.99999e-01,9.98827e-01,3.37405e-04,9.99999e-01
6.111885937e-01,3.94923e-04,9.99999e-01,9.99999e-01,9.99999e-01,9.99502e-01,3.95120e-04,9.99999e-01
6.142445367e-01,4.61164e-04,9.99999e-01,9.99999e-01,9.99999e-01,9.99777e-01,4.61266e-04,9.99999e-01
6.173157594e-01,5.36777e-04,9.99999e-01,9.99999e-01,9.99999e-01,9.99877e-01,5.36843e-04,9.99999e-01
6.204023382e-01,6.22868e-04,9.99999e-01,9.99999e-01,9.99999e-01,9.99896e-01,6.22932e-04,9.99999e-01
6.235043498e-01,7.20382e-04,9.99999e-01,9.99999e-01,9.99999e-01,9.99550e-01,7.20706e-04,9.99998e-01
6.266218716e-01,8.29417e-04,9.99999e-01,9.99999e-01,9.99999e-01,9.97596e-01,8.31429e-04,9.99982e-01
6.297549810e-01,9.55584e-04,9.99999e-01,9.99999e-01,9.99999e-01,9.99117e-01,9.56459e-04,9.99965e-01
6.329037559e-01,1.09530e-03,9.99999e-01,9.99999e-01,9.99999e-01,9.98253e-01,1.09725e-03,9.99972e-01
6.360682746e-01,1.25348e-03,9.99999e-01,9.99999e-01,9.99999e-01,9.98517e-01,1.25536e-03,9.99983e-01
6.392486160e-01,1.42966e-03,9.99999e-01,9.99999e-01,9.99999e-01,9.98075e-01,1.43243e-03,9.99992e-01
6.424448591e-01,1.62604e-03,9.99999e-01,9.99999e-01,9.99999e-01,9.97440e-01,1.63023e-03,9.99988e-01
6.456570834e-01,1.82858e-03,9.99999e-01,9.99999e-01,9.99999e-01,9.88167e-01,1.85060e-03,9.99933e-01
6.488853688e-01,2.07371e-03,9.99999e-01,9.99999e-01,9.99999e-01,9.89777e-01,2.09551e-03,9.99814e-01
6.521297956e-01,2.34558e-03,9.99999e-01,9.99999e-01,9.99999e-01,9.91098e-01,2.36702e-03,9.99844e-01
6.553904446e-01,2.64348e-03,9.99999e-01,9.99999e-01,9.99999e-01,9.91194e-01,2.66727e-03,9.99882e-01
6.586673968e-01,2.97563e-03,9.99999e-01,9.99999e-01,9.99999e-01,9.92399e-01,2.99854e-03,9.99961e-01
6.619607338e-01,3.34832e-03,9.99999e-01,9.99999e-01,9.99999e-01,9.95598e-01,3.36315e-03,9.99991e-01
6.652705375e-01,3.75394e-03,9.99999e-01,9.99999e-01,9.99999e-01,9.97445e-01,3.76356e-03,9.99995e-01
6.685968902e-01,4.19731e-03,9.99999e-01,9.99999e-01,9.99999e-01,9.98813e-01,4.20230e-03,9.99998e-01
6.719398746e-01,4.67940e-03,9.99999e-01,9.99999e-01,9.99999e-01,9.99449e-01,4.68198e-03,9.99999e-01
6.752995740e-01,5.20373e-03,9.99999e-01,9.99999e-01,9.99999e-01,9.99702e-01,5.20528e-03,9.99999e-01
6.786760719e-01,5.77250e-03,9.99999e-01,9.99999e-01,9.99999e-01,9.99572e-01,5.77497e-03,9.99998e-01
6.820694522e-01,6.38918e-03,9.99999e-01,9.99999e-01,9.99999e-01,9.99266e-01,6.39389e-03,9.99995e-01
6.854797995e-01,7.05818e-03,9.99999e-01,9.99999e-01,9.99999e-01,9.99054e-01,7.06491e-03,9.99991e-01
6.889071985e-01,7.77319e-03,9.99999e-01,9.99999e-01,9.99999e-01,9.97737e-01,7.79098e-03,9.99979e-01
6.923517345e-01,8.26020e-03,9.99999e-01,9.99999e-01,9.99999e-01,9.63451e-01,8.57508e-03,9.99820e-01
6.958134932e-01,9.23359e-03,9.99999e-01,9.99999e-01,9.99999e-01,9.80582e-01,9.42024e-03,9.99595e-01
6.992925606e-01,1.01374e-02,9.99999e-01,9.99999e-01,9.99999e-01,9.81749e-01,1.03295e-02,9.99643e-01
7.027890234e-01,1.10473e-02,9.99999e-01,9.99999e-01,9.99999e-01,9.77390e-01,1.13059e-02,9.99726e-01
7.063029686e-01,1.21157e-02,9.99999e-01,9.99999e-01,9.99999e-01,9.80956e-01,1.23526e-02,9.99863e-01
7.098344834e-01,1.32252e-02,9.99999e-01,9.99999e-01,9.99999e-01,9.81716e-01,1.34726e-02,9.99919e-01
7.133836558e-01,1.43141e-02,9.99999e-01,9.99999e-01,9.99999e-01,9.75963e-01,1.46689e-02,9.99839e-01
7.169505741e-01,1.31227e-02,9.99999e-01,9.99999e-01,9.99999e-01,8.24047e-01,1.59447e-02,9.98742e-01
7.205353270e-01,1.56784e-02,9.99999e-01,9.99999e-01,9.99999e-01,9.08122e-01,1.73029e-02,9.97783e-01
7.241380036e-01,1.65703e-02,9.99999e-01,9.99999e-01,9.99999e-01,8.85608e-01,1.87465e-02,9.98085e-01
7.277586936e-01,1.81440e-02,9.99999e-01,9.99999e-01,9.99999e-01,8.96145e-01,2.02785e-02,9.98434e-01
7.313974871e-01,1.94573e-02,9.99999e-01,9.99999e-01,9.99999e-01,8.89047e-01,2.19016e-02,9.99266e-01
7.350544745e-01,2.21420e-02,9.99999e-01,9.99999e-01,9.99999e-01,9.37719e-01,2.36186e-02,9.99744e-01
7.387297469e-01,2.42512e-02,9.99999e-01,9.99999e-01,9.99999e-01,9.53667e-01,2.54324e-02,9.99882e-01
7.424233956e-01,2.67159e-02,9.99999e-01,9.99999e-01,9.99999e-01,9.77000e-01,2.73454e-02,9.99977e-01
7.461355126e-01,2.89495e-02,9.99999e-01,9.99999e-01,9.99999e-01,9.86012e-01,2.93603e-02,9.99995e-01
7.498661902e-01,3.12732e-02,9.99999e-01,9.99999e-01,9.99999e-01,9.93451e-01,3.14793e-02,9.99998e-01
7.536155211e-01,3.35967e-02,9.99999e-01,9.99999e-01,9.99999e-01,9.96789e-01,3.37049e-02,9.99998e-01
7.573835987e-01,3.59796e-02,9.99999e-01,9.99999e-01,9.99999e-01,9.98345e-01,3.60392e-02,9.99999e-01
7.611705167e-01,3.84446e-02,9.99999e-01,9.99999e-01,9.99999e-01,9.98971e-01,3.84842e-02,9.99999e-01
7.649763693e-01,4.10154e-02,9.99999e-01,9.99999e-01,9.99999e-01,9.99356e-01,4.10418e-02,9.99999e-01
7.688012511e-01,4.36942e-02,9.99999e-01,9.99999e-01,9.99999e-01,9.99551e-01,4.37138e-02,9.99999e-01
7.726452574e-01,4.64847e-02,9.99999e-01,9.99999e-01,9.99999e-01,9.99631e-01,4.65018e-02,9.99999e-01
7.765084837e-01,4.93815e-02,9.99999e-01,9.99999e-01,9.99999e-01,9.99478e-01,4.94072e-02,9.99998e-01
7.803910261e-01,4.69734e-02,9.99999e-01,9.99999e-01,8.97731e-01,9.97753e-01,5.24314e-02,9.99997e-01
7.842929812e-01,3.12510e-02,9.99999e-01,9.99999e-01,5.66106e-01,9.92179e-01,5.55754e-02,9.99985e-01
7.882144461e-01,3.19948e-02,9.99999e-01,9.99999e-01,5.51648e-01,9.83854e-01,5.88402e-02,9.99900e-01
7.921555184e-01,4.25089e-02,9.99999e-01,9.99999e-01,6.88904e-01,9.91088e-01,6.22266e-02,9.99807e-01
7.961162960e-01,5.01826e-02,9.99999e-01,9.99999e-01,7.75193e-01,9.84421e-01,6.57352e-02,9.99815e-01
8.000968774e-01,5.93206e-02,9.99999e-01,9.99999e-01,8.70899e-01,9.81938e-01,6.93665e-02,9.99803e-01
8.040973618e-01,6.68122e-02,9.99999e-01,9.99999e-01,9.30528e-01,9.81956e-01,7.31206e-02,9.99843e-01
8.081178486e-01,7.15286e-02,9.99999e-01,9.99999e-01,9.67533e-01,9.60064e-01,7.69977e-02,9.99853e-01
8.121584379e-01,6.77070e-02,9.99999e-01,9.99999e-01,9.89801e-01,8.44674e-01,8.09977e-02,9.99425e-01
8.162192301e-01,6.93080e-02,9.99999e-01,9.99999e-01,9.97737e-01,8.17714e-01,8.51203e-02,9.97843e-01
8.203003262e-01,8.08923e-02,9.99999e-01,9.99999e-01,9.99963e-01,9.07501e-01,8.93650e-02,9.97475e-01
8.244018279e-01,8.16264e-02,9.99999e-01,9.99999e-01,9.99999e-01,8.72608e-01,9.37313e-02,9.97990e-01
8.285238370e-01,8.69495e-02,9.99999e-01,9.99999e-01,9.99999e-01,8.86667e-01,9.82183e-02,9.98421e-01
8.326664562e-01,9.09845e-02,9.99999e-01,9.99999e-01,9.99999e-01,8.85425e-01,1.02825e-01,9.99346e-01
8.368297885e-01,9.85194e-02,9.99999e-01,9.99999e-01,9.99999e-01,9.16165e-01,1.07551e-01,9.99850e-01
8.410139374e-01,1.06677e-01,9.99999e-01,9.99999e-01,9.99999e-01,9.49219e-01,1.12393e-01,9.99912e-01
8.452190071e-01,1.14380e-01,9.99999e-01,9.99999e-01,9.99999e-01,9.74724e-01,1.17352e-01,9.99947e-01
8.494451021e-01,1.20619e-01,9.99999e-01,9.99999e-01,9.99999e-01,9.85287e-01,1.22425e-01,9.99957e-01
8.536923276e-01,1.26491e-01,9.99999e-01,9.99999e-01,9.99999e-01,9.91255e-01,1.27611e-01,9.99971e-01
8.579607893e-01,1.32191e-01,9.99999e-01,9.99999e-01,9.99999e-01,9.94617e-01,1.32907e-01,9.99992e-01
8.622505932e-01,1.37838e-01,9.99999e-01,9.99999e-01,9.99999e-01,9.96572e-01,1.38312e-01,9.99998e-01
8.665618462e-01,1.23071e-01,9.99999e-01,9.99999e-01,8.57391e-01,9.97883e-01,1.43824e-01,9.99998e-01
8.708946554e-01,3.75594e-02,9.99999e-01,9.99999e-01,2.51883e-01,9.97580e-01,1.49440e-01,9.99998e-01
8.752491287e-01,4.81092e-02,9.99999e-01,9.99999e-01,3.10991e-01,9.96762e-01,1.55157e-01,9.99996e-01
8.796253743e-01,8.27048e-02,9.99999e-01,9.99999e-01,5.15862e-01,9.95529e-01,1.60974e-01,9.99989e-01
8.840235012e-01,1.16802e-01,9.99999e-01,9.99999e-01,7.03295e-01,9.94891e-01,1.66888e-01,9.99968e-01
8.884436187e-01,1.47589e-01,9.99999e-01,9.99999e-01,8.68955e-01,9.81781e-01,1.72896e-01,9.99910e-01
8.928858368e-01,1.39614e-01,9.99999e-01,9.99999e-01,9.44575e-01,8.24582e-01,1.78994e-01,9.99487e-01
8.973502660e-01,1.29594e-01,9.99999e-01,9.99999e-01,9.86180e-01,7.10738e-01,1.85182e-01,9.97377e-01
9.018370173e-01,1.59822e-01,9.99999e-01,9.99999e-01,9.98465e-01,8.39377e-01,1.91454e-01,9.95879e-01
9.063462024e-01,1.63594e-01,9.99999e-01,9.99999e-01,9.63155e-01,8.57954e-01,1.97809e-01,9.96379e-01
9.108779334e-01,1.47003e-01,9.99999e-01,9.99999e-01,9.14279e-01,7.87046e-01,2.04243e-01,9.96238e-01
9.154323231e-01,1.56717e-01,9.99999e-01,9.99999e-01,9.79035e-01,7.60620e-01,2.10752e-01,9.96889e-01
9.200094847e-01,1.40937e-01,9.99999e-01,9.99999e-01,7.78423e-01,8.07548e-01,2.17335e-01,9.98257e-01
9.246095321e-01,1.07659e-01,9.99999e-01,9.99999e-01,6.47625e-01,7.28128e-01,2.23987e-01,9.97992e-01
9.292325798e-01,2.52181e-02,9.99999e-01,9.99999e-01,7.18795e-01,1.41652e-01,2.30705e-01,9.92196e-01
9.338787427e-01,1.36703e-02,9.99999e-01,9.99999e-01,7.21651e-01,7.65054e-02,2.37486e-01,9.68132e-01
9.385481364e-01,6.71802e-02,9.99999e-01,9.99999e-01,7.84705e-01,3.50502e-01,2.44327e-01,9.62214e-01
9.432408771e-01,5.35936e-02,9.99999e-01,9.99999e-01,8.60754e-01,2.50693e-01,2.51224e-01,9.67315e-01
9.479570815e-01,3.39513e-02,9.99999e-01,9.99999e-01,9.25984e-01,1.44320e-01,2.58173e-01,9.73317e-01
9.526968669e-01,5.60227e-02,9.99999e-01,9.99999e-01,9.63604e-01,2.21133e-01,2.65172e-01,9.83639e-01
9.574603512e-01,6.29052e-02,9.99999e-01,9.99999e-01,9.84243e-01,2.35991e-01,2.72216e-01,9.91655e-01
9.622476530e-01,8.30957e-02,9.99999e-01,9.99999e-01,9.95053e-01,3.00432e-01,2.79303e-01,9.94222e-01
9.670588912e-01,1.41327e-01,9.99999e-01,9.99999e-01,9.98513e-01,4.95974e-01,2.86429e-01,9.96045e-01
9.718941857e-01,1.86059e-01,9.99999e-01,9.99999e-01,9.99893e-01,6.35637e-01,2.93591e-01,9.97086e-01
9.767536566e-01,2.05878e-01,9.99999e-01,9.99999e-01,9.99999e-01,6.85997e-01,3.00785e-01,9.97772e-01
9.816374249e-01,2.32229e-01,9.99999e-01,9.99999e-01,9.99999e-01,7.54551e-01,3.08008e-01,9.99228e-01
9.865456120e-01,2.64145e-01,9.99999e-01,9.99999e-01,9.99999e-01,8.38009e-01,3.15256e-01,9.99838e-01
9.914783401e-01,2.89057e-01,9.99999e-01,9.99999e-01,9.99999e-01,8.96265e-01,3.22527e-01,9.99954e-01
9.964357318e-01,3.10705e-01,9.99999e-01,9.99999e-01,9.99999e-01,9.42074e-01,3.29817e-01,9.99973e-01
1.001417910e+00,3.25257e-01,9.99999e-01,9.99999e-01,9.99999e-01,9.64838e-01,3.37123e-01,9.99959e-01
1.006425000e+00,3.37473e-01,9.99999e-01,9.99999e-01,9.99999e-01,9.79822e-01,3.44442e-01,9.99942e-01
1.011457125e+00,3.47323e-01,9.99999e-01,9.99999e-01,9.99999e-01,9.87408e-01,3.51770e-01,9.99946e-01
1.016514411e+00,3.56019e-01,9.99999e-01,9.99999e-01,9.99999e-01,9.91443e-01,3.59105e-01,9.99962e-01
1.021596983e+00,3.63862e-01,9.99999e-01,9.99999e-01,9.99808e-01,9.93179e-01,3.66443e-01,9.99962e-01
1.026704968e+00,3.66303e-01,9.99999e-01,9.99999e-01,9.85230e-01,9.94678e-01,3.73782e-01,9.99974e-01
1.031838492e+00,3.38518e-01,9.99999e-01,9.99999e-01,8.91476e-01,9.96124e-01,3.81119e-01,9.99992e-01
1.036997685e+00,1.47628e-02,9.99999e-01,9.99999e-01,3.80701e-02,9.97699e-01,3.88451e-01,9.99998e-01
1.042182673e+00,4.13337e-04,9.99999e-01,9.99999e-01,1.04648e-03,9.97264e-01,3.95774e-01,9.99999e-01
1.047393587e+00,1.22318e-03,9.99999e-01,9.99999e-01,3.04357e-03,9.96369e-01,4.03087e-01,9.99998e-01
1.052630555e+00,1.78058e-08,9.99999e-01,9.99999e-01,4.35222e-08,9.95025e-01,4.10387e-01,9.99998e-01
1.057893707e+00,6.59488e-08,9.99999e-01,9.99999e-01,1.58538e-07,9.91717e-01,4.17670e-01,9.99996e-01
1.063183176e+00,4.48894e-06,9.99999e-01,9.99999e-01,1.06434e-05,9.86399e-01,4.24936e-01,9.99992e-01
1.068499092e+00,6.67723e-05,9.99999e-01,9.99999e-01,1.56656e-04,9.77313e-01,4.32180e-01,9.99984e-01
1.073841587e+00,1.43661e-03,9.99999e-01,9.99999e-01,3.32959e-03,9.73569e-01,4.39401e-01,9.99965e-01
