#,Wave/freq,Total,N2,O2,CO2,H2O,Rayleigh,CIA
4.000000000e-01,4.06634e-15,9.99999e-01,9.99999e-01,9.99999e-01,9.99935e-01,4.06660e-15,9.99999e-01
4.020000000e-01,7.82988e-15,9.99999e-01,9.99999e-01,9.99999e-01,9.99960e-01,7.83019e-15,9.99999e-01
4.040100000e-01,1.48730e-14,9.99999e-01,9.99999e-01,9.99999e-01,9.99982e-01,1.48732e-14,9.99999e-01
4.060300500e-01,2.78954e-14,9.99999e-01,9.99999e-01,9.99999e-01,9.99995e-01,2.78955e-14,9.99999e-01
4.080602003e-01,5.16735e-14,9.99999e-01,9.99999e-01,9.99999e-01,9.99998e-01,5.16736e-14,9.99999e-01
4.101005013e-01,9.45615e-14,9.99999e-01,9.99999e-01,9.99999e-01,9.99999e-01,9.45615e-14,9.99999e-01
4.121510038e-01,1.70992e-13,9.99999e-01,9.99999e-01,9.99999e-01,9.99997e-01,1.70992e-13,9.99999e-01
4.142117588e-01,3.05597e-13,9.99999e-01,9.99999e-01,9.99999e-01,9.99981e-01,3.05602e-13,9.99999e-01
4.162828176e-01,5.39910e-13,9.99999e-01,9.99999e-01,9.99999e-01,9.99920e-01,5.39953e-13,9.99999e-01
4.183642317e-01,9.43305e-13,9.99999e-01,9.99999e-01,9.99999e-01,9.99952e-01,9.43349e-13,9.99999e-01
4.204560528e-01,1.63001e-12,9.99999e-01,9.99999e-01,9.99999e-01,9.99970e-01,1.63006e-12,9.99999e-01
4.225583331e-01,2.78635e-12,9.99999e-01,9.99999e-01,9.99999e-01,9.99988e-01,2.78638e-12,9.99999e-01
4.246711247e-01,4.71277e-12,9.99999e-01,9.99999e-01,9.99999e-01,9.99990e-01,4.71281e-12,9.99999e-01
4.267944804e-01,7.88869e-12,9.99999e-01,9.99999e-01,9.99999e-01,9.99986e-01,7.88879e-12,9.99999e-01
4.289284528e-01,1.30713e-11,9.99999e-01,9.99999e-01,9.99999e-01,9.99989e-01,1.30714e-11,9.99999e-01
4.310730950e-01,2.14437e-11,9.99999e-01,9.99999e-01,9.99999e-01,9.99995e-01,2.14438e-11,9.99999e-01
4.332284605e-01,3.48365e-11,9.99999e-01,9.99999e-01,9.99999e-01,9.99998e-01,3.48365e-11,9.99999e-01
4.353946028e-01,5.60538e-11,9.99999e-01,9.99999e-01,9.99999e-01,9.99999e-01,5.60539e-11,9.99999e-01
4.375715758e-01,8.93496e-11,9.99999e-01,9.99999e-01,9.99999e-01,9.99991e-01,8.93503e-11,9.99999e-01
4.397594337e-01,1.41110e-10,9.99999e-01,9.99999e-01,9.99999e-01,9.99929e-01,1.41119e-10,9.99999e-01
4.419582309e-01,2.20802e-10,9.99999e-01,9.99999e-01,9.99999e-01,9.99643e-01,2.20880e-10,9.99999e-01
4.441680220e-01,3.42582e-10,9.99999e-01,9.99999e-01,9.99999e-01,9.99726e-01,3.42676e-10,9.99999e-01
4.463888621e-01,5.26889e-10,9.99999e-01,9.99999e-01,9.99999e-01,9.99713e-01,5.27039e-10,9.99999e-01
4.486208064e-01,8.03587e-10,9.99999e-01,9.99999e-01,9.99999e-01,9.99822e-01,8.03729e-10,9.99999e-01
4.508639105e-01,1.21540e-09,9.99999e-01,9.99999e-01,9.99999e-01,9.99916e-01,1.21550e-09,9.99999e-01
4.531182300e-01,1.82323e-09,9.99999e-01,9.99999e-01,9.99999e-01,9.99966e-01,1.82328e-09,9.99999e-01
4.553838212e-01,2.71309e-09,9.99999e-01,9.99999e-01,9.99999e-01,9.99977e-01,2.71315e-09,9.99999e-01
4.576607403e-01,4.00571e-09,9.99999e-01,9.99999e-01,9.99999e-01,9.99989e-01,4.00575e-09,9.99999e-01
4.599490440e-01,5.86880e-09,9.99999e-01,9.99999e-01,9.99999e-01,9.99992e-01,5.86884e-09,9.99999e-01
4.622487892e-01,8.53381e-09,9.99999e-01,9.99999e-01,9.99999e-01,9.99998e-01,8.53382e-09,9.99999e-01
4.645600332e-01,1.23175e-08,9.99999e-01,9.99999e-01,9.99999e-01,9.99994e-01,1.23175e-08,9.99999e-01
4.668828333e-01,1.76489e-08,9.99999e-01,9.99999e-01,9.99999e-01,9.99915e-01,1.76504e-08,9.99999e-01
4.692172475e-01,2.51086e-08,9.99999e-01,9.99999e-01,9.99999e-01,9.99820e-01,2.51131e-08,9.99999e-01
4.715633337e-01,3.54790e-08,9.99999e-01,9.99999e-01,9.99999e-01,9.99882e-01,3.54831e-08,9.99999e-01
4.739211504e-01,4.97885e-08,9.99999e-01,9.99999e-01,9.99999e-01,9.99887e-01,4.97940e-08,9.99999e-01
4.762907561e-01,6.94066e-08,9.99999e-01,9.99999e-01,9.99999e-01,9.99941e-01,6.94107e-08,9.99999e-01
4.786722099e-01,9.61204e-08,9.99999e-01,9.99999e-01,9.99999e-01,9.99975e-01,9.61227e-08,9.99999e-01
4.810655710e-01,1.32260e-07,9.99999e-01,9.99999e-01,9.99999e-01,9.99992e-01,1.32261e-07,9.99999e-01
4.834708988e-01,1.80830e-07,9.99999e-01,9.99999e-01,9.99999e-01,9.99929e-01,1.80843e-07,9.99999e-01
4.858882533e-01,2.45715e-07,9.99999e-01,9.99999e-01,9.99999e-01,9.99872e-01,2.45746e-07,9.99999e-01
4.883176946e-01,3.31890e-07,9.99999e-01,9.99999e-01,9.99999e-01,9.99893e-01,3.31925e-07,9.99999e-01
4.907592831e-01,4.45630e-07,9.99999e-01,9.99999e-01,9.99999e-01,9.99903e-01,4.45673e-07,9.99999e-01
4.932130795e-01,5.94886e-07,9.99999e-01,9.99999e-01,9.99999e-01,9.99931e-01,5.94927e-07,9.99999e-01
4.956791449e-01,7.89619e-07,9.99999e-01,9.99999e-01,9.99999e-01,9.99963e-01,7.89648e-07,9.99999e-01
4.981575406e-01,1.04207e-06,9.99999e-01,9.99999e-01,9.99999e-01,9.99818e-01,1.04226e-06,9.99999e-01
5.006483283e-01,1.36750e-06,9.99999e-01,9.99999e-01,9.99999e-01,9.99528e-01,1.36815e-06,9.99996e-01
5.031515699e-01,1.78204e-06,9.99999e-01,9.99999e-01,9.99999e-01,9.97627e-01,1.78632e-06,9.99974e-01
5.056673278e-01,2.31709e-06,9.99999e-01,9.99999e-01,9.99999e-01,9.98750e-01,2.32005e-06,9.99971e-01
5.081956644e-01,2.99296e-06,9.99999e-01,9.99999e-01,9.99999e-01,9.98424e-01,2.99773e-06,9.99982e-01
5.107366428e-01,3.84970e-06,9.99999e-01,9.99999e-01,9.99999e-01,9.98936e-01,3.85381e-06,9.99996e-01
5.132903260e-01,4.92684e-06,9.99999e-01,9.99999e-01,9.99999e-01,9.99392e-01,4.92983e-06,9.99999e-01
5.158567776e-01,6.27409e-06,9.99999e-01,9.99999e-01,9.99999e-01,9.99743e-01,6.27570e-06,9.99999e-01
5.184360615e-01,7.95017e-06,9.99999e-01,9.99999e-01,9.99999e-01,9.99896e-01,7.95099e-06,9.99999e-01
5.210282418e-01,1.00261e-05,9.99999e-01,9.99999e-01,9.99999e-01,9.99961e-01,1.00265e-05,9.99999e-01
5.236333830e-01,1.25841e-05,9.99999e-01,9.99999e-01,9.99999e-01,9.99845e-01,1.25861e-05,9.99998e-01
5.262515499e-01,1.57267e-05,9.99999e-01,9.99999e-01,9.99999e-01,9.99902e-01,1.57282e-05,9.99997e-01
5.288828077e-01,1.95667e-05,9.99999e-01,9.99999e-01,9.99999e-01,9.99910e-01,1.95685e-05,9.99998e-01
5.315272217e-01,2.42397e-05,9.99999e-01,9.99999e-01,9.99999e-01,9.99921e-01,2.42415e-05,9.99999e-01
5.341848578e-01,2.99023e-05,9.99999e-01,9.99999e-01,9.99999e-01,9.99948e-01,2.99038e-05,9.99999e-01
5.368557821e-01,3.67294e-05,9.99999e-01,9.99999e-01,9.99999e-01,9.99818e-01,3.67360e-05,9.99999e-01
5.395400610e-01,4.49165e-05,9.99999e-01,9.99999e-01,9.99999e-01,9.99344e-01,4.49462e-05,9.99993e-01
5.422377613e-01,5.47259e-05,9.99999e-01,9.99999e-01,9.99999e-01,9.99162e-01,5.47725e-05,9.99984e-01
5.449489501e-01,6.64339e-05,9.99999e-01,9.99999e-01,9.99999e-01,9.99216e-01,6.64870e-05,9.99983e-01
5.476736949e-01,8.03425e-05,9.99999e-01,9.99999e-01,9.99999e-01,9.99310e-01,8.03985e-05,9.99991e-01
5.504120634e-01,9.68080e-05,9.99999e-01,9.99999e-01,9.99999e-01,9.99499e-01,9.68566e-05,9.99997e-01
5.531641237e-01,1.16226e-04,9.99999e-01,9.99999e-01,9.99999e-01,9.99748e-01,1.16255e-04,9.99999e-01
5.559299443e-01,1.39020e-04,9.99999e-01,9.99999e-01,9.99999e-01,9.99878e-01,1.39037e-04,9.99999e-01
5.587095940e-01,1.65684e-04,9.99999e-01,9.99999e-01,9.99999e-01,9.99923e-01,1.65697e-04,9.99999e-01
5.615031420e-01,1.96768e-04,9.99999e-01,9.99999e-01,9.99999e-01,9.99914e-01,1.96785e-04,9.99999e-01
5.643106577e-01,2.32891e-04,9.99999e-01,9.99999e-01,9.99999e-01,9.99902e-01,2.32913e-04,9.99998e-01
5.671322110e-01,2.74430e-04,9.99999e-01,9.99999e-01,9.99999e-01,9.98811e-01,2.74759e-04,9.99989e-01
5.699678720e-01,3.22656e-04,9.99999e-01,9.99999e-01,9.99999e-01,9.98761e-01,3.23066e-04,9.99967e-01
5.728177114e-01,3.78151e-04,9.99999e-01,9.99999e-01,9.99999e-01,9.98699e-01,3.78653e-04,9.99972e-01
5.756818000e-01,4.41881e-04,9.99999e-01,9.99999e-01,9.99999e-01,9.98808e-01,4.42415e-04,9.99984e-01
5.785602090e-01,5.14790e-04,9.99999e-01,9.99999e-01,9.99999e-01,9.98963e-01,5.15327e-04,9.99995e-01
5.814530100e-01,5.97824e-04,9.99999e-01,9.99999e-01,9.99999e-01,9.98956e-01,5.98449e-04,9.99997e-01
5.843602750e-01,6.92058e-04,9.99999e-01,9.99999e-01,9.99999e-01,9.98749e-01,6.92929e-04,9.99992e-01
5.872820764e-01,7.91377e-04,9.99999e-01,9.99999e-01,9.99999e-01,9.89288e-01,8.00006e-04,9.99924e-01
5.902184868e-01,9.08949e-04,9.99999e-01,9.99999e-01,9.99999e-01,9.87106e-01,9.21010e-04,9.99794e-01
5.931695792e-01,1.04750e-03,9.99999e-01,9.99999e-01,9.99999e-01,9.90862e-01,1.05737e-03,9.99802e-01
5.961354271e-01,1.19837e-03,9.99999e-01,9.99999e-01,9.99999e-01,9.89998e-01,1.21062e-03,9.99886e-01
5.991161043e-01,1.37223e-03,9.99999e-01,9.99999e-01,9.99999e-01,9.92701e-01,1.38237e-03,9.99964e-01
6.021116848e-01,1.56783e-03,9.99999e-01,9.99999e-01,9.99999e-01,9.95856e-01,1.57436e-03,9.99995e-01
6.051222432e-01,1.78466e-03,9.99999e-01,9.99999e-01,9.99999e-01,9.97902e-01,1.78842e-03,9.99999e-01
6.081478544e-01,2.02463e-03,9.99999e-01,9.99999e-01,9.99999e-01,9.99093e-01,2.02646e-03,9.99999e-01
6.111885937e-01,2.28966e-03,9.99999e-01,9.99999e-01,9.99999e-01,9.99617e-01,2.29054e-03,9.99999e-01
6.142445367e-01,2.58233e-03,9.99999e-01,9.99999e-01,9.99999e-01,9.99828e-01,2.58277e-03,9.99999e-01
6.173157594e-01,2.90511e-03,9.99999e-01,9.99999e-01,9.99999e-01,9.99905e-01,2.90538e-03,9.99999e-01
6.204023382e-01,3.26044e-03,9.99999e-01,9.99999e-01,9.99999e-01,9.99919e-01,3.26070e-03,9.99999e-01
6.235043498e-01,3.64984e-03,9.99999e-01,9.99999e-01,9.99999e-01,9.99642e-01,3.65115e-03,9.99998e-01
6.266218716e-01,4.07155e-03,9.99999e-01,9.99999e-01,9.99999e-01,9.98132e-01,4.07922e-03,9.99986e-01
6.297549810e-01,4.54428e-03,9.99999e-01,9.99999e-01,9.99999e-01,9.99314e-01,4.54752e-03,9.99973e-01
6.329037559e-01,5.05176e-03,9.99999e-01,9.99999e-01,9.99999e-01,9.98648e-01,5.05870e-03,9.99978e-01
6.360682746e-01,5.60897e-03,9.99999e-01,9.99999e-01,9.99999e-01,9.98845e-01,5.61552e-03,9.99987e-01
6.392486160e-01,6.21146e-03,9.99999e-01,9.99999e-01,9.99999e-01,9.98506e-01,6.22078e-03,9.99993e-01
6.424448591e-01,6.86347e-03,9.99999e-01,9.99999e-01,9.99999e-01,9.97988e-01,6.87737e-03,9.99989e-01
6.456570834e-01,7.51720e-03,9.99999e-01,9.99999e-01,9.99999e-01,9.90699e-01,7.58819e-03,9.99943e-01
6.488853688e-01,8.29856e-03,9.99999e-01,9.99999e-01,9.99999e-01,9.93239e-01,8.35624e-03,9.99855e-01
6.521297956e-01,9.12018e-03,9.99999e-01,9.99999e-01,9.99999e-01,9.93112e-01,9.18452e-03,9.99880e-01
6.553904446e-01,1.00058e-02,9.99999e-01,9.99999e-01,9.99999e-01,9.93114e-01,1.00761e-02,9.99911e-01
6.586673968e-01,1.09688e-02,9.99999e-01,9.99999e-01,9.99999e-01,9.94120e-01,1.10339e-02,9.99969e-01
6.619607338e-01,1.20216e-02,9.99999e-01,9.99999e-01,9.99999e-01,9.96719e-01,1.20612e-02,9.99993e-01
6.652705375e-01,1.31350e-02,9.99999e-01,9.99999e-01,9.99999e-01,9.98030e-01,1.31610e-02,9.99996e-01
6.685968902e-01,1.43243e-02,9.99999e-01,9.99999e-01,9.99999e-01,9.99162e-01,1.43363e-02,9.99998e-01
6.719398746e-01,1.55836e-02,9.99999e-01,9.99999e-01,9.99999e-01,9.99575e-01,1.55902e-02,9.99999e-01
6.752995740e-01,1.69220e-02,9.99999e-01,9.99999e-01,9.99999e-01,9.99775e-01,1.69258e-02,9.99999e-01
6.786760719e-01,1.83397e-02,9.99999e-01,9.99999e-01,9.99999e-01,9.99664e-01,1.83459e-02,9.99999e-01
6.820694522e-01,1.98422e-02,9.99999e-01,9.99999e-01,9.99999e-01,9.99429e-01,1.98536e-02,9.99996e-01
6.854797995e-01,2.14357e-02,9.99999e-01,9.99999e-01,9.99999e-01,9.99263e-01,2.14516e-02,9.99993e-01
6.889071985e-01,2.31009e-02,9.99999e-01,9.99999e-01,9.99999e-01,9.98199e-01,2.31429e-02,9.99983e-01
6.923517345e-01,2.42096e-02,9.99999e-01,9.99999e-01,9.99999e-01,9.71230e-01,2.49301e-02,9.99860e-01
6.958134932e-01,2.64103e-02,9.99999e-01,9.99999e-01,9.99999e-01,9.85176e-01,2.68160e-02,9.99691e-01
6.992925606e-01,2.83826e-02,9.99999e-01,9.99999e-01,9.99999e-01,9.85678e-01,2.88029e-02,9.99721e-01
7.027890234e-01,3.03448e-02,9.99999e-01,9.99999e-01,9.99999e-01,9.82446e-01,3.08935e-02,9.99787e-01
7.063029686e-01,3.25969e-02,9.99999e-01,9.99999e-01,9.99999e-01,9.85205e-01,3.30899e-02,9.99894e-01
7.098344834e-01,3.48897e-02,9.99999e-01,9.99999e-01,9.99999e-01,9.85799e-01,3.53944e-02,9.99937e-01
7.133836558e-01,3.70854e-02,9.99999e-01,9.99999e-01,9.99999e-01,9.80977e-01,3.78092e-02,9.99875e-01
7.169505741e-01,3.46041e-02,9.99999e-01,9.99999e-01,9.99999e-01,8.58732e-01,4.03360e-02,9.99024e-01
7.205353270e-01,3.98513e-02,9.99999e-01,9.99999e-01,9.99999e-01,9.28871e-01,4.29768e-02,9.98279e-01
7.241380036e-01,4.15281e-02,9.99999e-01,9.99999e-01,9.99999e-01,9.09403e-01,4.57332e-02,9.98513e-01
7.277586936e-01,4.45645e-02,9.99999e-01,9.99999e-01,9.99999e-01,9.17955e-01,4.86066e-02,9.98784e-01
7.313974871e-01,4.70898e-02,9.99999e-01,9.99999e-01,9.99999e-01,9.13140e-01,5.15984e-02,9.99430e-01
7.350544745e-01,5.20431e-02,9.99999e-01,9.99999e-01,9.99999e-01,9.51446e-01,5.47097e-02,9.99801e-01
7.387297469e-01,5.58513e-02,9.99999e-01,9.99999e-01,9.99999e-01,9.64009e-01,5.79417e-02,9.99908e-01
7.424233956e-01,6.02058e-02,9.99999e-01,9.99999e-01,9.99999e-01,9.82246e-01,6.12950e-02,9.99983e-01
7.461355126e-01,6.40701e-02,9.99999e-01,9.99999e-01,9.99999e-01,9.89191e-01,6.47703e-02,9.99996e-01
7.498661902e-01,6.80239e-02,9.99999e-01,9.99999e-01,9.99999e-01,9.94964e-01,6.83683e-02,9.99998e-01
7.536155211e-01,7.19103e-02,9.99999e-01,9.99999e-01,9.99999e-01,9.97521e-01,7.20890e-02,9.99998e-01
7.573835987e-01,7.58358e-02,9.99999e-01,9.99999e-01,9.99999e-01,9.98723e-01,7.59327e-02,9.99999e-01
7.611705167e-01,7.98360e-02,9.99999e-01,9.99999e-01,9.99999e-01,9.99206e-01,7.98993e-02,9.99999e-01
7.649763693e-01,8.39469e-02,9.99999e-01,9.99999e-01,9.99999e-01,9.99502e-01,8.39887e-02,9.99999e-01
7.688012511e-01,8.81697e-02,9.99999e-01,9.99999e-01,9.99999e-01,9.99652e-01,8.82003e-02,9.99999e-01
7.726452574e-01,9.25072e-02,9.99999e-01,9.99999e-01,9.99999e-01,9.99714e-01,9.25336e-02,9.99999e-01
7.765084837e-01,9.69483e-02,9.99999e-01,9.99999e-01,9.99999e-01,9.99591e-01,9.69879e-02,9.99999e-01
7.803910261e-01,9.23261e-02,9.99999e-01,9.99999e-01,9.10536e-01,9.98235e-01,1.01562e-01,9.99997e-01
7.842929812e-01,6.75789e-02,9.99999e-01,9.99999e-01,6.39466e-01,9.93852e-01,1.06256e-01,9.99988e-01
7.882144461e-01,6.83414e-02,9.99999e-01,9.99999e-01,6.22395e-01,9.87449e-01,1.11067e-01,9.99913e-01
7.921555184e-01,8.60680e-02,9.99999e-01,9.99999e-01,7.46908e-01,9.93127e-01,1.15994e-01,9.99849e-01
7.961162960e-01,9.82398e-02,9.99999e-01,9.99999e-01,8.21543e-01,9.87783e-01,1.21036e-01,9.99856e-01
8.000968774e-01,1.11806e-01,9.99999e-01,9.99999e-01,8.98652e-01,9.85950e-01,1.26192e-01,9.99847e-01
8.040973618e-01,1.22634e-01,9.99999e-01,9.99999e-01,9.46213e-01,9.85935e-01,1.31458e-01,9.99883e-01
8.081178486e-01,1.29190e-01,9.99999e-01,9.99999e-01,9.74839e-01,9.68483e-01,1.36834e-01,9.99881e-01
8.121584379e-01,1.23644e-01,9.99999e-01,9.99999e-01,9.92219e-01,8.75790e-01,1.42317e-01,9.99554e-01
8.162192301e-01,1.26124e-01,9.99999e-01,9.99999e-01,9.98276e-01,8.55562e-01,1.47904e-01,9.98325e-01
8.203003262e-01,1.41868e-01,9.99999e-01,9.99999e-01,9.99975e-01,9.25481e-01,1.53595e-01,9.98039e-01
8.244018279e-01,1.43196e-01,9.99999e-01,9.99999e-01,9.99999e-01,8.99829e-01,1.59385e-01,9.98439e-01
8.285238370e-01,1.50275e-01,9.99999e-01,9.99999e-01,9.99999e-01,9.10368e-01,1.65273e-01,9.98774e-01
8.326664562e-01,1.55732e-01,9.99999e-01,9.99999e-01,9.99999e-01,9.09820e-01,1.71255e-01,9.99492e-01
8.368297885e-01,1.65703e-01,9.99999e-01,9.99999e-01,9.99999e-01,9.34541e-01,1.77329e-01,9.99883e-01
8.410139374e-01,1.76243e-01,9.99999e-01,9.99999e-01,9.99999e-01,9.60553e-01,1.83493e-01,9.99931e-01
8.452190071e-01,1.86028e-01,9.99999e-01,9.99999e-01,9.99999e-01,9.80465e-01,1.89742e-01,9.99959e-01
8.494451021e-01,1.93831e-01,9.99999e-01,9.99999e-01,9.99999e-01,9.88587e-01,1.96075e-01,9.99967e-01
8.536923276e-01,2.01118e-01,9.99999e-01,9.99999e-01,9.99999e-01,9.93252e-01,2.02488e-01,9.99979e-01
8.579607893e-01,2.08105e-01,9.99999e-01,9.99999e-01,9.99999e-01,9.95831e-01,2.08977e-01,9.99994e-01
8.622505932e-01,2.14970e-01,9.99999e-01,9.99999e-01,9.99999e-01,9.97354e-01,2.15540e-01,9.99998e-01
8.665618462e-01,1.91908e-01,9.99999e-01,9.99999e-01,8.65100e-01,9.98358e-01,2.22174e-01,9.99999e-01
8.708946554e-01,7.58099e-02,9.99999e-01,9.99999e-01,3.31800e-01,9.98117e-01,2.28875e-01,9.99998e-01
8.752491287e-01,9.39401e-02,9.99999e-01,9.99999e-01,3.99597e-01,9.97484e-01,2.35639e-01,9.99996e-01
8.796253743e-01,1.44279e-01,9.99999e-01,9.99999e-01,5.96974e-01,9.96509e-01,2.42464e-01,9.99991e-01
8.840235012e-01,1.89140e-01,9.99999e-01,9.99999e-01,7.61461e-01,9.96016e-01,2.49346e-01,9.99975e-01
8.884436187e-01,2.26822e-01,9.99999e-01,9.99999e-01,8.97835e-01,9.85401e-01,2.56281e-01,9.99930e-01
8.928858368e-01,2.16541e-01,9.99999e-01,9.99999e-01,9.57093e-01,8.58713e-01,2.63266e-01,9.99602e-01
8.973502660e-01,2.04594e-01,9.99999e-01,9.99999e-01,9.89448e-01,7.66055e-01,2.70299e-01,9.97963e-01
9.018370173e-01,2.41259e-01,9.99999e-01,9.99999e-01,9.98834e-01,8.73511e-01,2.77375e-01,9.96800e-01
9.063462024e-01,2.44617e-01,9.99999e-01,9.99999e-01,9.70273e-01,8.86189e-01,2.84490e-01,9.97188e-01
9.108779334e-01,2.25497e-01,9.99999e-01,9.99999e-01,9.33150e-01,8.28968e-01,2.91643e-01,9.97078e-01
9.154323231e-01,2.37199e-01,9.99999e-01,9.99999e-01,9.84005e-01,8.07803e-01,2.98828e-01,9.97584e-01
9.200094847e-01,2.14570e-01,9.99999e-01,9.99999e-01,8.11243e-01,8.46732e-01,3.06044e-01,9.98647e-01
9.246095321e-01,1.75509e-01,9.99999e-01,9.99999e-01,7.13995e-01,7.74571e-01,3.13285e-01,9.98441e-01
9.292325798e-01,5.24519e-02,9.99999e-01,9.99999e-01,7.70166e-01,2.02239e-01,3.20551e-01,9.92499e-01
9.338787427e-01,3.35284e-02,9.99999e-01,9.99999e-01,7.75886e-01,1.28614e-01,3.27836e-01,9.73155e-01
9.385481364e-01,1.19883e-01,9.99999e-01,9.99999e-01,8.28581e-01,4.33703e-01,3.35138e-01,9.70545e-01
9.432408771e-01,9.77571e-02,9.99999e-01,9.99999e-01,8.90895e-01,3.24007e-01,3.42453e-01,9.74537e-01
9.479570815e-01,6.86633e-02,9.99999e-01,9.99999e-01,9.42305e-01,2.11183e-01,3.49779e-01,9.79226e-01
9.526968669e-01,1.03629e-01,9.99999e-01,9.99999e-01,9.71825e-01,3.00843e-01,3.57113e-01,9.87277e-01
9.574603512e-01,1.14117e-01,9.99999e-01,9.99999e-01,9.87850e-01,3.18370e-01,3.64451e-01,9.93517e-01
9.622476530e-01,1.43388e-01,9.99999e-01,9.99999e-01,9.96197e-01,3.88648e-01,3.71790e-01,9.95512e-01
9.670588912e-01,2.17720e-01,9.99999e-01,9.99999e-01,9.98860e-01,5.76597e-01,3.79127e-01,9.96928e-01
9.718941857e-01,2.70837e-01,9.99999e-01,9.99999e-01,9.99920e-01,7.02447e-01,3.86460e-01,9.97738e-01
9.767536566e-01,2.93057e-01,9.99999e-01,9.99999e-01,9.99999e-01,7.45491e-01,3.93786e-01,9.98270e-01
9.816374249e-01,3.22252e-01,9.99999e-01,9.99999e-01,9.99999e-01,8.03896e-01,4.01102e-01,9.99401e-01
9.865456120e-01,3.56167e-01,9.99999e-01,9.99999e-01,9.99999e-01,8.72198e-01,4.08406e-01,9.99874e-01
9.914783401e-01,3.81911e-01,9.99999e-01,9.99999e-01,9.99999e-01,9.18761e-01,4.15694e-01,9.99964e-01
9.964357318e-01,4.03885e-01,9.99999e-01,9.99999e-01,9.99999e-01,9.54908e-01,4.22965e-01,9.99979e-01
1.001417910e+00,4.18466e-01,9.99999e-01,9.99999e-01,9.99999e-01,9.72720e-01,4.30215e-01,9.99968e-01
1.006425000e+00,4.30570e-01,9.99999e-01,9.99999e-01,9.99999e-01,9.84331e-01,4.37443e-01,9.99955e-01
1.011457125e+00,4.40299e-01,9.99999e-01,9.99999e-01,9.99999e-01,9.90265e-01,4.44645e-01,9.99958e-01
1.016514411e+00,4.48815e-01,9.99999e-01,9.99999e-01,9.99999e-01,9.93374e-01,4.51821e-01,9.99970e-01
1.021596983e+00,4.56448e-01,9.99999e-01,9.99999e-01,9.99821e-01,9.94714e-01,4.58967e-01,9.99971e-01
1.026704968e+00,4.58642e-01,9.99999e-01,9.99999e-01,9.88114e-01,9.95874e-01,4.66082e-01,9.99981e-01
1.031838492e+00,4.25385e-01,9.99999e-01,9.99999e-01,9.01575e-01,9.97004e-01,4.73163e-01,9.99994e-01
1.036997685e+00,2.39517e-02,9.99999e-01,9.99999e-01,4.99450e-02,9.98217e-01,4.80209e-01,9.99998e-01
1.042182673e+00,1.67378e-03,9.99999e-01,9.99999e-01,3.44100e-03,9.97868e-01,4.87217e-01,9.99999e-01
1.047393587e+00,4.27812e-03,9.99999e-01,9.99999e-01,8.67723e-03,9.97178e-01,4.94187e-01,9.99998e-01
1.052630555e+00,4.96712e-07,9.99999e-01,9.99999e-01,9.93638e-07,9.96126e-01,5.01115e-01,9.99998e-01
1.057893707e+00,1.90109e-06,9.99999e-01,9.99999e-01,3.75490e-06,9.93533e-01,5.08001e-01,9.99997e-01
1.063183176e+00,4.93507e-05,9.99999e-01,9.99999e-01,9.64470e-05,9.89390e-01,5.14842e-01,9.99993e-01
1.068499092e+00,4.90902e-04,9.99999e-01,9.99999e-01,9.52263e-04,9.82317e-01,5.21638e-01,9.99987e-01
1.073841587e+00,5.90543e-03,9.99999e-01,9.99999e-01,1.13458e-02,9.79325e-01,5.28387e-01,9.99973e-01
