#,Wave/freq,Total,N2,O2,CO2,H2O,Rayleigh,CIA
4.000000000e-01,4.11963e-02,9.99999e-01,9.99999e-01,9.99999e-01,9.99993e-01,4.11966e-02,9.99999e-01
4.020000000e-01,4.38780e-02,9.99999e-01,9.99999e-01,9.99999e-01,9.99995e-01,4.38781e-02,9.99999e-01
4.040100000e-01,4.66731e-02,9.99999e-01,9.99999e-01,9.99999e-01,9.99997e-01,4.66731e-02,9.99999e-01
4.060300500e-01,4.95857e-02,9.99999e-01,9.99999e-01,9.99999e-01,9.99999e-01,4.95857e-02,9.99999e-01
4.080602003e-01,5.26170e-02,9.99999e-01,9.99999e-01,9.99999e-01,9.99999e-01,5.26170e-02,9.99999e-01
4.101005013e-01,5.57683e-02,9.99999e-01,9.99999e-01,9.99999e-01,9.99999e-01,5.57683e-02,9.99999e-01
4.121510038e-01,5.90404e-02,9.99999e-01,9.99999e-01,9.99999e-01,9.99999e-01,5.90404e-02,9.99999e-01
4.142117588e-01,6.24340e-02,9.99999e-01,9.99999e-01,9.99999e-01,9.99997e-01,6.24341e-02,9.99999e-01
4.162828176e-01,6.59496e-02,9.99999e-01,9.99999e-01,9.99999e-01,9.99991e-01,6.59501e-02,9.99999e-01
4.183642317e-01,6.95884e-02,9.99999e-01,9.99999e-01,9.99999e-01,9.99994e-01,6.95887e-02,9.99999e-01
4.204560528e-01,7.33500e-02,9.99999e-01,9.99999e-01,9.99999e-01,9.99996e-01,7.33502e-02,9.99999e-01
4.225583331e-01,7.72346e-02,9.99999e-01,9.99999e-01,9.99999e-01,9.99998e-01,7.72347e-02,9.99999e-01
4.246711247e-01,8.12420e-02,9.99999e-01,9.99999e-01,9.99999e-01,9.99998e-01,8.12421e-02,9.99999e-01
4.267944804e-01,8.53719e-02,9.99999e-01,9.99999e-01,9.99999e-01,9.99998e-01,8.53720e-02,9.99999e-01
4.289284528e-01,8.96240e-02,9.99999e-01,9.99999e-01,9.99999e-01,9.99998e-01,8.96241e-02,9.99999e-01
4.310730950e-01,9.39976e-02,9.99999e-01,9.99999e-01,9.99999e-01,9.99999e-01,9.39976e-02,9.99999e-01
4.332284605e-01,9.84919e-02,9.99999e-01,9.99999e-01,9.99999e-01,9.99999e-01,9.84919e-02,9.99999e-01
4.353946028e-01,1.03106e-01,9.99999e-01,9.99999e-01,9.99999e-01,9.99999e-01,1.03106e-01,9.99999e-01
4.375715758e-01,1.07838e-01,9.99999e-01,9.99999e-01,9.99999e-01,9.99998e-01,1.07838e-01,9.99999e-01
4.397594337e-01,1.12687e-01,9.99999e-01,9.99999e-01,9.99999e-01,9.99992e-01,1.12688e-01,9.99999e-01
4.419582309e-01,1.17650e-01,9.99999e-01,9.99999e-01,9.99999e-01,9.99964e-01,1.17654e-01,9.99999e-01
4.441680220e-01,1.22731e-01,9.99999e-01,9.99999e-01,9.99999e-01,9.99973e-01,1.22734e-01,9.99999e-01
4.463888621e-01,1.27923e-01,9.99999e-01,9.99999e-01,9.99999e-01,9.99971e-01,1.27926e-01,9.99999e-01
4.486208064e-01,1.33227e-01,9.99999e-01,9.99999e-01,9.99999e-01,9.99982e-01,1.33229e-01,9.99999e-01
4.508639105e-01,1.38639e-01,9.99999e-01,9.99999e-01,9.99999e-01,9.99991e-01,1.38641e-01,9.99999e-01
4.531182300e-01,1.44158e-01,9.99999e-01,9.99999e-01,9.99999e-01,9.99996e-01,1.44158e-01,9.99999e-01
4.553838212e-01,1.49780e-01,9.99999e-01,9.99999e-01,9.99999e-01,9.99997e-01,1.49780e-01,9.99999e-01
4.576607403e-01,1.55504e-01,9.99999e-01,9.99999e-01,9.99999e-01,9.99998e-01,1.55504e-01,9.99999e-01
4.599490440e-01,1.61327e-01,9.99999e-01,9.99999e-01,9.99999e-01,9.99998e-01,1.61327e-01,9.99999e-01
4.622487892e-01,1.67246e-01,9.99999e-01,9.99999e-01,9.99999e-01,9.99999e-01,1.67246e-01,9.99999e-01
4.645600332e-01,1.73260e-01,9.99999e-01,9.99999e-01,9.99999e-01,9.99999e-01,1.73260e-01,9.99999e-01
4.668828333e-01,1.79362e-01,9.99999e-01,9.99999e-01,9.99999e-01,9.99991e-01,1.79364e-01,9.99999e-01
4.692172475e-01,1.85553e-01,9.99999e-01,9.99999e-01,9.99999e-01,9.99982e-01,1.85556e-01,9.99999e-01
4.715633337e-01,1.91832e-01,9.99999e-01,9.99999e-01,9.99999e-01,9.99988e-01,1.91834e-01,9.99999e-01
4.739211504e-01,1.98191e-01,9.99999e-01,9.99999e-01,9.99999e-01,9.99988e-01,1.98193e-01,9.99999e-01
4.762907561e-01,2.04631e-01,9.99999e-01,9.99999e-01,9.99999e-01,9.99993e-01,2.04632e-01,9.99999e-01
4.786722099e-01,2.11146e-01,9.99999e-01,9.99999e-01,9.99999e-01,9.99997e-01,2.11146e-01,9.99999e-01
4.810655710e-01,2.17733e-01,9.99999e-01,9.99999e-01,9.99999e-01,9.99998e-01,2.17733e-01,9.99999e-01
4.834708988e-01,2.24388e-01,9.99999e-01,9.99999e-01,9.99999e-01,9.99992e-01,2.24389e-01,9.99999e-01
4.858882533e-01,2.31109e-01,9.99999e-01,9.99999e-01,9.99999e-01,9.99987e-01,2.31111e-01,9.99999e-01
4.883176946e-01,2.37894e-01,9.99999e-01,9.99999e-01,9.99999e-01,9.99989e-01,2.37896e-01,9.99999e-01
4.907592831e-01,2.44738e-01,9.99999e-01,9.99999e-01,9.99999e-01,9.99990e-01,2.44740e-01,9.99999e-01
4.932130795e-01,2.51638e-01,9.99999e-01,9.99999e-01,9.99999e-01,9.99992e-01,2.51640e-01,9.99999e-01
4.956791449e-01,2.58592e-01,9.99999e-01,9.99999e-01,9.99999e-01,9.99996e-01,2.58592e-01,9.99999e-01
4.981575406e-01,2.65589e-01,9.99999e-01,9.99999e-01,9.99999e-01,9.99982e-01,2.65594e-01,9.99999e-01
5.006483283e-01,2.72629e-01,9.99999e-01,9.99999e-01,9.99999e-01,9.99953e-01,2.72641e-01,9.99999e-01
5.031515699e-01,2.79666e-01,9.99999e-01,9.99999e-01,9.99999e-01,9.99770e-01,2.79730e-01,9.99997e-01
5.056673278e-01,2.86823e-01,9.99999e-01,9.99999e-01,9.99999e-01,9.99879e-01,2.86859e-01,9.99996e-01
5.081956644e-01,2.93977e-01,9.99999e-01,9.99999e-01,9.99999e-01,9.99847e-01,2.94022e-01,9.99997e-01
5.107366428e-01,3.01187e-01,9.99999e-01,9.99999e-01,9.99999e-01,9.99897e-01,3.01218e-01,9.99999e-01
5.132903260e-01,3.08425e-01,9.99999e-01,9.99999e-01,9.99999e-01,9.99941e-01,3.08443e-01,9.99999e-01
5.158567776e-01,3.15685e-01,9.99999e-01,9.99999e-01,9.99999e-01,9.99974e-01,3.15693e-01,9.99999e-01
5.184360615e-01,3.22962e-01,9.99999e-01,9.99999e-01,9.99999e-01,9.99989e-01,3.22965e-01,9.99999e-01
5.210282418e-01,3.30255e-01,9.99999e-01,9.99999e-01,9.99999e-01,9.99995e-01,3.30256e-01,9.99999e-01
5.236333830e-01,3.37558e-01,9.99999e-01,9.99999e-01,9.99999e-01,9.99984e-01,3.37563e-01,9.99999e-01
5.262515499e-01,3.44879e-01,9.99999e-01,9.99999e-01,9.99999e-01,9.99990e-01,3.44882e-01,9.99999e-01
5.288828077e-01,3.52208e-01,9.99999e-01,9.99999e-01,9.99999e-01,9.99990e-01,3.52211e-01,9.99999e-01
5.315272217e-01,3.59543e-01,9.99999e-01,9.99999e-01,9.99999e-01,9.99992e-01,3.59546e-01,9.99999e-01
5.341848578e-01,3.66883e-01,9.99999e-01,9.99999e-01,9.99999e-01,9.99994e-01,3.66885e-01,9.99999e-01
5.368557821e-01,3.74217e-01,9.99999e-01,9.99999e-01,9.99999e-01,9.99982e-01,3.74224e-01,9.99999e-01
5.395400610e-01,3.81536e-01,9.99999e-01,9.99999e-01,9.99999e-01,9.99935e-01,3.81560e-01,9.99998e-01
5.422377613e-01,3.88859e-01,9.99999e-01,9.99999e-01,9.99999e-01,9.99919e-01,3.88891e-01,9.99998e-01
5.449489501e-01,3.96184e-01,9.99999e-01,9.99999e-01,9.99999e-01,9.99923e-01,3.96214e-01,9.99997e-01
5.476736949e-01,4.03499e-01,9.99999e-01,9.99999e-01,9.99999e-01,9.99933e-01,4.03526e-01,9.99998e-01
5.504120634e-01,4.10805e-01,9.99999e-01,9.99999e-01,9.99999e-01,9.99951e-01,4.10825e-01,9.99999e-01
5.531641237e-01,4.18098e-01,9.99999e-01,9.99999e-01,9.99999e-01,9.99975e-01,4.18108e-01,9.99999e-01
5.559299443e-01,4.25367e-01,9.99999e-01,9.99999e-01,9.99999e-01,9.99987e-01,4.25372e-01,9.99999e-01
5.587095940e-01,4.32612e-01,9.99999e-01,9.99999e-01,9.99999e-01,9.99992e-01,4.32615e-01,9.99999e-01
5.615031420e-01,4.39831e-01,9.99999e-01,9.99999e-01,9.99999e-01,9.99991e-01,4.39834e-01,9.99999e-01
5.643106577e-01,4.47024e-01,9.99999e-01,9.99999e-01,9.99999e-01,9.99990e-01,4.47028e-01,9.99999e-01
5.671322110e-01,4.54142e-01,9.99999e-01,9.99999e-01,9.99999e-01,9.99883e-01,4.54194e-01,9.99998e-01
5.699678720e-01,4.61274e-01,9.99999e-01,9.99999e-01,9.99999e-01,9.99880e-01,4.61331e-01,9.99996e-01
5.728177114e-01,4.68374e-01,9.99999e-01,9.99999e-01,9.99999e-01,9.99874e-01,4.68434e-01,9.99996e-01
5.756818000e-01,4.75449e-01,9.99999e-01,9.99999e-01,9.99999e-01,9.99884e-01,4.75504e-01,9.99998e-01
5.785602090e-01,4.82489e-01,9.99999e-01,9.99999e-01,9.99999e-01,9.99899e-01,4.82538e-01,9.99999e-01
5.814530100e-01,4.89484e-01,9.99999e-01,9.99999e-01,9.99999e-01,9.99899e-01,4.89533e-01,9.99999e-01
5.843602750e-01,4.96429e-01,9.99999e-01,9.99999e-01,9.99999e-01,9.99878e-01,4.96489e-01,9.99998e-01
5.872820764e-01,5.02875e-01,9.99999e-01,9.99999e-01,9.99999e-01,9.98956e-01,5.03404e-01,9.99992e-01
5.902184868e-01,5.09628e-01,9.99999e-01,9.99999e-01,9.99999e-01,9.98751e-01,5.10275e-01,9.99979e-01
5.931695792e-01,5.16634e-01,9.99999e-01,9.99999e-01,9.99999e-01,9.99114e-01,5.17102e-01,9.99980e-01
5.961354271e-01,5.23369e-01,9.99999e-01,9.99999e-01,9.99999e-01,9.99032e-01,5.23882e-01,9.99988e-01
5.991161043e-01,5.30239e-01,9.99999e-01,9.99999e-01,9.99999e-01,9.99295e-01,5.30615e-01,9.99996e-01
6.021116848e-01,5.37084e-01,9.99999e-01,9.99999e-01,9.99999e-01,9.99600e-01,5.37298e-01,9.99999e-01
6.051222432e-01,5.43822e-01,9.99999e-01,9.99999e-01,9.99999e-01,9.99797e-01,5.43932e-01,9.99999e-01
6.081478544e-01,5.50466e-01,9.99999e-01,9.99999e-01,9.99999e-01,9.99912e-01,5.50514e-01,9.99999e-01
6.111885937e-01,5.57022e-01,9.99999e-01,9.99999e-01,9.99999e-01,9.99962e-01,5.57043e-01,9.99999e-01
6.142445367e-01,5.63509e-01,9.99999e-01,9.99999e-01,9.99999e-01,9.99983e-01,5.63518e-01,9.99999e-01
6.173157594e-01,5.69933e-01,9.99999e-01,9.99999e-01,9.99999e-01,9.99990e-01,5.69939e-01,9.99999e-01
6.204023382e-01,5.76299e-01,9.99999e-01,9.99999e-01,9.99999e-01,9.99991e-01,5.76303e-01,9.99999e-01
6.235043498e-01,5.82591e-01,9.99999e-01,9.99999e-01,9.99999e-01,9.99964e-01,5.82611e-01,9.99999e-01
6.266218716e-01,5.88755e-01,9.99999e-01,9.99999e-01,9.99999e-01,9.99819e-01,5.88861e-01,9.99998e-01
6.297549810e-01,5.95013e-01,9.99999e-01,9.99999e-01,9.99999e-01,9.99933e-01,5.95053e-01,9.99996e-01
6.329037559e-01,6.01107e-01,9.99999e-01,9.99999e-01,9.99999e-01,9.99869e-01,6.01186e-01,9.99997e-01
6.360682746e-01,6.07191e-01,9.99999e-01,9.99999e-01,9.99999e-01,9.99888e-01,6.07259e-01,9.99998e-01
6.392486160e-01,6.13183e-01,9.99999e-01,9.99999e-01,9.99999e-01,9.99855e-01,6.13272e-01,9.99998e-01
6.424448591e-01,6.19102e-01,9.99999e-01,9.99999e-01,9.99999e-01,9.99804e-01,6.19223e-01,9.99998e-01
6.456570834e-01,6.24545e-01,9.99999e-01,9.99999e-01,9.99999e-01,9.99095e-01,6.25113e-01,9.99994e-01
6.488853688e-01,6.30521e-01,9.99999e-01,9.99999e-01,9.99999e-01,9.99346e-01,6.30942e-01,9.99985e-01
6.521297956e-01,6.36277e-01,9.99999e-01,9.99999e-01,9.99999e-01,9.99334e-01,6.36707e-01,9.99988e-01
6.553904446e-01,6.41977e-01,9.99999e-01,9.99999e-01,9.99999e-01,9.99333e-01,6.42410e-01,9.99990e-01
6.586673968e-01,6.47681e-01,9.99999e-01,9.99999e-01,9.99999e-01,9.99432e-01,6.48050e-01,9.99996e-01
6.619607338e-01,6.53420e-01,9.99999e-01,9.99999e-01,9.99999e-01,9.99683e-01,6.53627e-01,9.99998e-01
6.652705375e-01,6.59015e-01,9.99999e-01,9.99999e-01,9.99999e-01,9.99810e-01,6.59140e-01,9.99999e-01
6.685968902e-01,6.64536e-01,9.99999e-01,9.99999e-01,9.99999e-01,9.99919e-01,6.64589e-01,9.99999e-01
6.719398746e-01,6.69947e-01,9.99999e-01,9.99999e-01,9.99999e-01,9.99958e-01,6.69974e-01,9.99999e-01
6.752995740e-01,6.75281e-01,9.99999e-01,9.99999e-01,9.99999e-01,9.99977e-01,6.75296e-01,9.99999e-01
6.786760719e-01,6.80531e-01,9.99999e-01,9.99999e-01,9.99999e-01,9.99967e-01,6.80553e-01,9.99999e-01
6.820694522e-01,6.85708e-01,9.99999e-01,9.99999e-01,9.99999e-01,9.99944e-01,6.85746e-01,9.99999e-01
6.854797995e-01,6.90826e-01,9.99999e-01,9.99999e-01,9.99999e-01,9.99928e-01,6.90875e-01,9.99998e-01
6.889071985e-01,6.95779e-01,9.99999e-01,9.99999e-01,9.99999e-01,9.99769e-01,6.95940e-01,9.99997e-01
6.923517345e-01,6.98943e-01,9.99999e-01,9.99999e-01,9.99999e-01,9.97162e-01,7.00941e-01,9.99986e-01
6.958134932e-01,7.04847e-01,9.99999e-01,9.99999e-01,9.99999e-01,9.98569e-01,7.05878e-01,9.99969e-01
6.992925606e-01,7.09740e-01,9.99999e-01,9.99999e-01,9.99999e-01,9.98604e-01,7.10751e-01,9.99972e-01
7.027890234e-01,7.14326e-01,9.99999e-01,9.99999e-01,9.99999e-01,9.98295e-01,7.15561e-01,9.99979e-01
7.063029686e-01,7.19266e-01,9.99999e-01,9.99999e-01,9.99999e-01,9.98565e-01,7.20307e-01,9.99989e-01
7.098344834e-01,7.23988e-01,9.99999e-01,9.99999e-01,9.99999e-01,9.98623e-01,7.24990e-01,9.99993e-01
7.133836558e-01,7.28240e-01,9.99999e-01,9.99999e-01,9.99999e-01,9.98133e-01,7.29610e-01,9.99987e-01
7.169505741e-01,7.23176e-01,9.99999e-01,9.99999e-01,9.99999e-01,9.85120e-01,7.34167e-01,9.99905e-01
7.205353270e-01,7.33283e-01,9.99999e-01,9.99999e-01,9.99999e-01,9.92882e-01,7.38662e-01,9.99833e-01
7.241380036e-01,7.36138e-01,9.99999e-01,9.99999e-01,9.99999e-01,9.90778e-01,7.43095e-01,9.99856e-01
7.277586936e-01,7.41165e-01,9.99999e-01,9.99999e-01,9.99999e-01,9.91685e-01,7.47466e-01,9.99882e-01
7.313974871e-01,7.45157e-01,9.99999e-01,9.99999e-01,9.99999e-01,9.91248e-01,7.51776e-01,9.99944e-01
7.350544745e-01,7.52386e-01,9.99999e-01,9.99999e-01,9.99999e-01,9.95205e-01,7.56025e-01,9.99980e-01
7.387297469e-01,7.57528e-01,9.99999e-01,9.99999e-01,9.99999e-01,9.96476e-01,7.60213e-01,9.99990e-01
7.424233956e-01,7.63026e-01,9.99999e-01,9.99999e-01,9.99999e-01,9.98280e-01,7.64341e-01,9.99997e-01
7.461355126e-01,7.67607e-01,9.99999e-01,9.99999e-01,9.99999e-01,9.98955e-01,7.68409e-01,9.99999e-01
7.498661902e-01,7.72044e-01,9.99999e-01,9.99999e-01,9.99999e-01,9.99515e-01,7.72418e-01,9.99999e-01
7.536155211e-01,7.76182e-01,9.99999e-01,9.99999e-01,9.99999e-01,9.99761e-01,7.76367e-01,9.99999e-01
7.573835987e-01,7.80163e-01,9.99999e-01,9.99999e-01,9.99999e-01,9.99876e-01,7.80259e-01,9.99999e-01
7.611705167e-01,7.84033e-01,9.99999e-01,9.99999e-01,9.99999e-01,9.99923e-01,7.84092e-01,9.99999e-01
7.649763693e-01,7.87831e-01,9.99999e-01,9.99999e-01,9.99999e-01,9.99951e-01,7.87869e-01,9.99999e-01
7.688012511e-01,7.91561e-01,9.99999e-01,9.99999e-01,9.99999e-01,9.99966e-01,7.91588e-01,9.99999e-01
7.726452574e-01,7.95229e-01,9.99999e-01,9.99999e-01,9.99999e-01,9.99972e-01,7.95251e-01,9.99999e-01
7.765084837e-01,7.98826e-01,9.99999e-01,9.99999e-01,9.99999e-01,9.99960e-01,7.98857e-01,9.99999e-01
7.803910261e-01,7.92916e-01,9.99999e-01,9.99999e-01,9.88336e-01,9.99828e-01,8.02409e-01,9.99999e-01
7.842929812e-01,7.68885e-01,9.99999e-01,9.99999e-01,9.54625e-01,9.99402e-01,8.05906e-01,9.99998e-01
7.882144461e-01,7.68608e-01,9.99999e-01,9.99999e-01,9.50811e-01,9.98783e-01,8.09348e-01,9.99991e-01
7.921555184e-01,7.89125e-01,9.99999e-01,9.99999e-01,9.71600e-01,9.99337e-01,8.12737e-01,9.99985e-01
7.961162960e-01,7.99753e-01,9.99999e-01,9.99999e-01,9.81179e-01,9.98811e-01,8.16072e-01,9.99985e-01
8.000968774e-01,8.09826e-01,9.99999e-01,9.99999e-01,9.89731e-01,9.98637e-01,8.19355e-01,9.99984e-01
8.040973618e-01,8.17101e-01,9.99999e-01,9.99999e-01,9.94699e-01,9.98634e-01,8.22586e-01,9.99988e-01
8.081178486e-01,8.21179e-01,9.99999e-01,9.99999e-01,9.97551e-01,9.96895e-01,8.25765e-01,9.99988e-01
8.121584379e-01,8.17567e-01,9.99999e-01,9.99999e-01,9.99253e-01,9.87111e-01,8.28894e-01,9.99956e-01
8.162192301e-01,8.19142e-01,9.99999e-01,9.99999e-01,9.99834e-01,9.84898e-01,8.31972e-01,9.99838e-01
8.203003262e-01,8.28338e-01,9.99999e-01,9.99999e-01,9.99997e-01,9.92209e-01,8.35000e-01,9.99810e-01
8.244018279e-01,8.29024e-01,9.99999e-01,9.99999e-01,9.99999e-01,9.89460e-01,8.37980e-01,9.99849e-01
8.285238370e-01,8.33166e-01,9.99999e-01,9.99999e-01,9.99999e-01,9.90906e-01,8.40911e-01,9.99881e-01
8.326664562e-01,8.36034e-01,9.99999e-01,9.99999e-01,9.99999e-01,9.90851e-01,8.43794e-01,9.99950e-01
8.368297885e-01,8.41107e-01,9.99999e-01,9.99999e-01,9.99999e-01,9.93488e-01,8.46629e-01,9.99988e-01
8.410139374e-01,8.46127e-01,9.99999e-01,9.99999e-01,9.99999e-01,9.96131e-01,8.49418e-01,9.99992e-01
8.452190071e-01,8.50544e-01,9.99999e-01,9.99999e-01,9.99999e-01,9.98106e-01,8.52161e-01,9.99995e-01
8.494451021e-01,8.53912e-01,9.99999e-01,9.99999e-01,9.99999e-01,9.98895e-01,8.54858e-01,9.99996e-01
8.536923276e-01,8.56951e-01,9.99999e-01,9.99999e-01,9.99999e-01,9.99349e-01,8.57510e-01,9.99997e-01
8.579607893e-01,8.59772e-01,9.99999e-01,9.99999e-01,9.99999e-01,9.99597e-01,8.60118e-01,9.99999e-01
8.622505932e-01,8.62462e-01,9.99999e-01,9.99999e-01,9.99999e-01,9.99745e-01,8.62681e-01,9.99999e-01
8.665618462e-01,8.36398e-01,9.99999e-01,9.99999e-01,9.66857e-01,9.99841e-01,8.65202e-01,9.99999e-01
8.708946554e-01,7.68377e-01,9.99999e-01,9.99999e-01,8.85712e-01,9.99818e-01,8.67680e-01,9.99999e-01
8.752491287e-01,7.90685e-01,9.99999e-01,9.99999e-01,9.08930e-01,9.99756e-01,8.70116e-01,9.99999e-01
8.796253743e-01,8.28352e-01,9.99999e-01,9.99999e-01,9.49707e-01,9.99662e-01,8.72511e-01,9.99998e-01
8.840235012e-01,8.51597e-01,9.99999e-01,9.99999e-01,9.73780e-01,9.99614e-01,8.74864e-01,9.99997e-01
8.884436187e-01,8.66854e-01,9.99999e-01,9.99999e-01,9.89660e-01,9.98557e-01,8.77177e-01,9.99992e-01
8.928858368e-01,8.62678e-01,9.99999e-01,9.99999e-01,9.95796e-01,9.85095e-01,8.79451e-01,9.99961e-01
8.973502660e-01,8.57764e-01,9.99999e-01,9.99999e-01,9.98984e-01,9.74041e-01,8.81685e-01,9.99803e-01
9.018370173e-01,8.71849e-01,9.99999e-01,9.99999e-01,9.99888e-01,9.86799e-01,8.83881e-01,9.99691e-01
9.063462024e-01,8.72683e-01,9.99999e-01,9.99999e-01,9.96986e-01,9.88142e-01,8.86038e-01,9.99728e-01
9.108779334e-01,8.65868e-01,9.99999e-01,9.99999e-01,9.93343e-01,9.81685e-01,8.88159e-01,9.99717e-01
9.154323231e-01,8.70278e-01,9.99999e-01,9.99999e-01,9.98457e-01,9.79301e-01,8.90242e-01,9.99766e-01
9.200094847e-01,8.56750e-01,9.99999e-01,9.99999e-01,9.75848e-01,9.83787e-01,8.92288e-01,9.99869e-01
9.246095321e-01,8.42648e-01,9.99999e-01,9.99999e-01,9.67723e-01,9.73616e-01,8.94299e-01,9.99849e-01
9.292325798e-01,7.30834e-01,9.99999e-01,9.99999e-01,9.74074e-01,8.36859e-01,8.96275e-01,9.99275e-01
9.338787427e-01,6.96043e-01,9.99999e-01,9.99999e-01,9.75387e-01,7.95780e-01,8.98216e-01,9.97383e-01
9.385481364e-01,8.04632e-01,9.99999e-01,9.99999e-01,9.81896e-01,9.12694e-01,9.00122e-01,9.97125e-01
9.432408771e-01,7.80535e-01,9.99999e-01,9.99999e-01,9.88935e-01,8.77010e-01,9.01995e-01,9.97519e-01
9.479570815e-01,7.45117e-01,9.99999e-01,9.99999e-01,9.94296e-01,8.30700e-01,9.03835e-01,9.97980e-01
9.526968669e-01,7.88946e-01,9.99999e-01,9.99999e-01,9.97253e-01,8.74543e-01,9.05641e-01,9.98767e-01
9.574603512e-01,8.03307e-01,9.99999e-01,9.99999e-01,9.98826e-01,8.86840e-01,9.07416e-01,9.99373e-01
9.622476530e-01,8.24710e-01,9.99999e-01,9.99999e-01,9.99634e-01,9.07831e-01,9.09159e-01,9.99566e-01
9.670588912e-01,8.61210e-01,9.99999e-01,9.99999e-01,9.99890e-01,9.45848e-01,9.10871e-01,9.99715e-01
9.718941857e-01,8.81321e-01,9.99999e-01,9.99999e-01,9.99992e-01,9.65992e-01,9.12552e-01,9.99782e-01
9.767536566e-01,8.88177e-01,9.99999e-01,9.99999e-01,9.99999e-01,9.71692e-01,9.14203e-01,9.99832e-01
9.816374249e-01,8.96587e-01,9.99999e-01,9.99999e-01,9.99999e-01,9.79050e-01,9.15824e-01,9.99941e-01
9.865456120e-01,9.05368e-01,9.99999e-01,9.99999e-01,9.99999e-01,9.86878e-01,9.17416e-01,9.99987e-01
9.914783401e-01,9.11507e-01,9.99999e-01,9.99999e-01,9.99999e-01,9.91871e-01,9.18980e-01,9.99996e-01
9.964357318e-01,9.16433e-01,9.99999e-01,9.99999e-01,9.99999e-01,9.95567e-01,9.20515e-01,9.99997e-01
1.001417910e+00,9.19571e-01,9.99999e-01,9.99999e-01,9.99999e-01,9.97344e-01,9.22022e-01,9.99996e-01
1.006425000e+00,9.22095e-01,9.99999e-01,9.99999e-01,9.99999e-01,9.98481e-01,9.23501e-01,9.99995e-01
1.011457125e+00,9.24082e-01,9.99999e-01,9.99999e-01,9.99999e-01,9.99060e-01,9.24954e-01,9.99995e-01
1.016514411e+00,9.25786e-01,9.99999e-01,9.99999e-01,9.99999e-01,9.99360e-01,9.26381e-01,9.99996e-01
1.021596983e+00,9.27289e-01,9.99999e-01,9.99999e-01,9.99981e-01,9.99489e-01,9.27781e-01,9.99996e-01
1.026704968e+00,9.27692e-01,9.99999e-01,9.99999e-01,9.98823e-01,9.99601e-01,9.29156e-01,9.99997e-01
1.031838492e+00,9.10252e-01,9.99999e-01,9.99999e-01,9.78511e-01,9.99711e-01,9.30505e-01,9.99998e-01
1.036997685e+00,3.75190e-01,9.99999e-01,9.99999e-01,4.02698e-01,9.99827e-01,9.31830e-01,9.99999e-01
1.042182673e+00,4.71910e-01,9.99999e-01,9.99999e-01,5.05827e-01,9.99793e-01,9.33130e-01,9.99999e-01
1.047393587e+00,4.06877e-01,9.99999e-01,9.99999e-01,4.35547e-01,9.99727e-01,9.34407e-01,9.99999e-01
1.052630555e+00,1.20173e-01,9.99999e-01,9.99999e-01,1.28476e-01,9.99625e-01,9.35660e-01,9.99999e-01
1.057893707e+00,1.96578e-01,9.99999e-01,9.99999e-01,2.09931e-01,9.99373e-01,9.36890e-01,9.99999e-01
1.063183176e+00,3.04951e-01,9.99999e-01,9.99999e-01,3.25364e-01,9.98970e-01,9.38097e-01,9.99998e-01
1.068499092e+00,4.48237e-01,9.99999e-01,9.99999e-01,4.77985e-01,9.98280e-01,9.39282e-01,9.99998e-01
1.073841587e+00,5.90978e-01,9.99999e-01,9.99999e-01,6.29600e-01,9.97981e-01,9.40445e-01,9.99996e-01
