#,Wave/freq,Total,N2,O2,CO2,H2O,Rayleigh,CIA
4.000000000e-01,1.20314e-03,9.99999e-01,9.99999e-01,9.99999e-01,9.99986e-01,1.20316e-03,9.99999e-01
4.020000000e-01,1.37420e-03,9.99999e-01,9.99999e-01,9.99999e-01,9.99991e-01,1.37421e-03,9.99999e-01
4.040100000e-01,1.56524e-03,9.99999e-01,9.99999e-01,9.99999e-01,9.99996e-01,1.56525e-03,9.99999e-01
4.060300500e-01,1.77827e-03,9.99999e-01,9.99999e-01,9.99999e-01,9.99998e-01,1.77827e-03,9.99999e-01
4.080602003e-01,2.01519e-03,9.99999e-01,9.99999e-01,9.99999e-01,9.99999e-01,2.01519e-03,9.99999e-01
4.101005013e-01,2.27805e-03,9.99999e-01,9.99999e-01,9.99999e-01,9.99999e-01,2.27805e-03,9.99999e-01
4.121510038e-01,2.56896e-03,9.99999e-01,9.99999e-01,9.99999e-01,9.99999e-01,2.56896e-03,9.99999e-01
4.142117588e-01,2.89015e-03,9.99999e-01,9.99999e-01,9.99999e-01,9.99995e-01,2.89016e-03,9.99999e-01
4.162828176e-01,3.24390e-03,9.99999e-01,9.99999e-01,9.99999e-01,9.99983e-01,3.24395e-03,9.99999e-01
4.183642317e-01,3.63273e-03,9.99999e-01,9.99999e-01,9.99999e-01,9.99989e-01,3.63276e-03,9.99999e-01
4.204560528e-01,4.05906e-03,9.99999e-01,9.99999e-01,9.99999e-01,9.99993e-01,4.05909e-03,9.99999e-01
4.225583331e-01,4.52550e-03,9.99999e-01,9.99999e-01,9.99999e-01,9.99997e-01,4.52551e-03,9.99999e-01
4.246711247e-01,5.03470e-03,9.99999e-01,9.99999e-01,9.99999e-01,9.99997e-01,5.03471e-03,9.99999e-01
4.267944804e-01,5.58940e-03,9.99999e-01,9.99999e-01,9.99999e-01,9.99996e-01,5.58941e-03,9.99999e-01
4.289284528e-01,6.19242e-03,9.99999e-01,9.99999e-01,9.99999e-01,9.99997e-01,6.19243e-03,9.99999e-01
4.310730950e-01,6.84663e-03,9.99999e-01,9.99999e-01,9.99999e-01,9.99998e-01,6.84664e-03,9.99999e-01
4.332284605e-01,7.55495e-03,9.99999e-01,9.99999e-01,9.99999e-01,9.99999e-01,7.55496e-03,9.99999e-01
4.353946028e-01,8.32036e-03,9.99999e-01,9.99999e-01,9.99999e-01,9.99999e-01,8.32036e-03,9.99999e-01
4.375715758e-01,9.14584e-03,9.99999e-01,9.99999e-01,9.99999e-01,9.99997e-01,9.14586e-03,9.99999e-01
4.397594337e-01,1.00344e-02,9.99999e-01,9.99999e-01,9.99999e-01,9.99985e-01,1.00345e-02,9.99999e-01
4.419582309e-01,1.09885e-02,9.99999e-01,9.99999e-01,9.99999e-01,9.99928e-01,1.09893e-02,9.99999e-01
4.441680220e-01,1.20127e-02,9.99999e-01,9.99999e-01,9.99999e-01,9.99943e-01,1.20134e-02,9.99999e-01
4.463888621e-01,1.31091e-02,9.99999e-01,9.99999e-01,9.99999e-01,9.99941e-01,1.31099e-02,9.99999e-01
4.486208064e-01,1.42812e-02,9.99999e-01,9.99999e-01,9.99999e-01,9.99963e-01,1.42817e-02,9.99999e-01
4.508639105e-01,1.55317e-02,9.99999e-01,9.99999e-01,9.99999e-01,9.99982e-01,1.55320e-02,9.99999e-01
4.531182300e-01,1.68637e-02,9.99999e-01,9.99999e-01,9.99999e-01,9.99992e-01,1.68638e-02,9.99999e-01
4.553838212e-01,1.82800e-02,9.99999e-01,9.99999e-01,9.99999e-01,9.99994e-01,1.82800e-02,9.99999e-01
4.576607403e-01,1.97837e-02,9.99999e-01,9.99999e-01,9.99999e-01,9.99997e-01,1.97837e-02,9.99999e-01
4.599490440e-01,2.13776e-02,9.99999e-01,9.99999e-01,9.99999e-01,9.99998e-01,2.13776e-02,9.99999e-01
4.622487892e-01,2.30647e-02,9.99999e-01,9.99999e-01,9.99999e-01,9.99999e-01,2.30647e-02,9.99999e-01
4.645600332e-01,2.48475e-02,9.99999e-01,9.99999e-01,9.99999e-01,9.99998e-01,2.48475e-02,9.99999e-01
4.668828333e-01,2.67284e-02,9.99999e-01,9.99999e-01,9.99999e-01,9.99982e-01,2.67288e-02,9.99999e-01
4.692172475e-01,2.87101e-02,9.99999e-01,9.99999e-01,9.99999e-01,9.99963e-01,2.87112e-02,9.99999e-01
4.715633337e-01,3.07963e-02,9.99999e-01,9.99999e-01,9.99999e-01,9.99975e-01,3.07970e-02,9.99999e-01
4.739211504e-01,3.29879e-02,9.99999e-01,9.99999e-01,9.99999e-01,9.99976e-01,3.29886e-02,9.99999e-01
4.762907561e-01,3.52878e-02,9.99999e-01,9.99999e-01,9.99999e-01,9.99987e-01,3.52882e-02,9.99999e-01
4.786722099e-01,3.76978e-02,9.99999e-01,9.99999e-01,9.99999e-01,9.99994e-01,3.76980e-02,9.99999e-01
4.810655710e-01,4.02197e-02,9.99999e-01,9.99999e-01,9.99999e-01,9.99998e-01,4.02197e-02,9.99999e-01
4.834708988e-01,4.28548e-02,9.99999e-01,9.99999e-01,9.99999e-01,9.99985e-01,4.28553e-02,9.99999e-01
4.858882533e-01,4.56053e-02,9.99999e-01,9.99999e-01,9.99999e-01,9.99973e-01,4.56064e-02,9.99999e-01
4.883176946e-01,4.84735e-02,9.99999e-01,9.99999e-01,9.99999e-01,9.99978e-01,4.84746e-02,9.99999e-01
4.907592831e-01,5.14600e-02,9.99999e-01,9.99999e-01,9.99999e-01,9.99979e-01,5.14610e-02,9.99999e-01
4.932130795e-01,5.45662e-02,9.99999e-01,9.99999e-01,9.99999e-01,9.99985e-01,5.45669e-02,9.99999e-01
4.956791449e-01,5.77930e-02,9.99999e-01,9.99999e-01,9.99999e-01,9.99992e-01,5.77934e-02,9.99999e-01
4.981575406e-01,6.11390e-02,9.99999e-01,9.99999e-01,9.99999e-01,9.99963e-01,6.11413e-02,9.99999e-01
5.006483283e-01,6.46050e-02,9.99999e-01,9.99999e-01,9.99999e-01,9.99905e-01,6.46111e-02,9.99998e-01
5.031515699e-01,6.81704e-02,9.99999e-01,9.99999e-01,9.99999e-01,9.99519e-01,6.82035e-02,9.99994e-01
5.056673278e-01,7.19000e-02,9.99999e-01,9.99999e-01,9.99999e-01,9.99745e-01,7.19187e-02,9.99993e-01
5.081956644e-01,7.57323e-02,9.99999e-01,9.99999e-01,9.99999e-01,9.99678e-01,7.57569e-02,9.99995e-01
5.107366428e-01,7.97006e-02,9.99999e-01,9.99999e-01,9.99999e-01,9.99782e-01,7.97180e-02,9.99998e-01
5.132903260e-01,8.37914e-02,9.99999e-01,9.99999e-01,9.99999e-01,9.99875e-01,8.38018e-02,9.99999e-01
5.158567776e-01,8.80033e-02,9.99999e-01,9.99999e-01,9.99999e-01,9.99947e-01,8.80079e-02,9.99999e-01
5.184360615e-01,9.23338e-02,9.99999e-01,9.99999e-01,9.99999e-01,9.99978e-01,9.23358e-02,9.99999e-01
5.210282418e-01,9.67839e-02,9.99999e-01,9.99999e-01,9.99999e-01,9.99991e-01,9.67846e-02,9.99999e-01
5.236333830e-01,1.01350e-01,9.99999e-01,9.99999e-01,9.99999e-01,9.99968e-01,1.01354e-01,9.99999e-01
5.262515499e-01,1.06040e-01,9.99999e-01,9.99999e-01,9.99999e-01,9.99979e-01,1.06042e-01,9.99999e-01
5.288828077e-01,1.10845e-01,9.99999e-01,9.99999e-01,9.99999e-01,9.99981e-01,1.10847e-01,9.99999e-01
5.315272217e-01,1.15768e-01,9.99999e-01,9.99999e-01,9.99999e-01,9.99983e-01,1.15770e-01,9.99999e-01
5.341848578e-01,1.20805e-01,9.99999e-01,9.99999e-01,9.99999e-01,9.99989e-01,1.20807e-01,9.99999e-01
5.368557821e-01,1.25952e-01,9.99999e-01,9.99999e-01,9.99999e-01,9.99963e-01,1.25957e-01,9.99999e-01
5.395400610e-01,1.31201e-01,9.99999e-01,9.99999e-01,9.99999e-01,9.99868e-01,1.31218e-01,9.99998e-01
5.422377613e-01,1.36566e-01,9.99999e-01,9.99999e-01,9.99999e-01,9.99828e-01,1.36589e-01,9.99996e-01
5.449489501e-01,1.42044e-01,9.99999e-01,9.99999e-01,9.99999e-01,9.99841e-01,1.42067e-01,9.99996e-01
5.476736949e-01,1.47629e-01,9.99999e-01,9.99999e-01,9.99999e-01,9.99858e-01,1.47650e-01,9.99997e-01
5.504120634e-01,1.53320e-01,9.99999e-01,9.99999e-01,9.99999e-01,9.99897e-01,1.53336e-01,9.99999e-01
5.531641237e-01,1.59114e-01,9.99999e-01,9.99999e-01,9.99999e-01,9.99948e-01,1.59122e-01,9.99999e-01
5.559299443e-01,1.65001e-01,9.99999e-01,9.99999e-01,9.99999e-01,9.99974e-01,1.65005e-01,9.99999e-01
5.587095940e-01,1.70981e-01,9.99999e-01,9.99999e-01,9.99999e-01,9.99984e-01,1.70983e-01,9.99999e-01
5.615031420e-01,1.77051e-01,9.99999e-01,9.99999e-01,9.99999e-01,9.99982e-01,1.77054e-01,9.99999e-01
5.643106577e-01,1.83210e-01,9.99999e-01,9.99999e-01,9.99999e-01,9.99980e-01,1.83213e-01,9.99999e-01
5.671322110e-01,1.89414e-01,9.99999e-01,9.99999e-01,9.99999e-01,9.99764e-01,1.89459e-01,9.99997e-01
5.699678720e-01,1.95737e-01,9.99999e-01,9.99999e-01,9.99999e-01,9.99745e-01,1.95788e-01,9.99993e-01
5.728177114e-01,2.02143e-01,9.99999e-01,9.99999e-01,9.99999e-01,9.99736e-01,2.02197e-01,9.99994e-01
5.756818000e-01,2.08632e-01,9.99999e-01,9.99999e-01,9.99999e-01,9.99757e-01,2.08683e-01,9.99996e-01
5.785602090e-01,2.15198e-01,9.99999e-01,9.99999e-01,9.99999e-01,9.99788e-01,2.15243e-01,9.99998e-01
5.814530100e-01,2.21827e-01,9.99999e-01,9.99999e-01,9.99999e-01,9.99787e-01,2.21874e-01,9.99999e-01
5.843602750e-01,2.28514e-01,9.99999e-01,9.99999e-01,9.99999e-01,9.99748e-01,2.28571e-01,9.99998e-01
5.872820764e-01,2.34820e-01,9.99999e-01,9.99999e-01,9.99999e-01,9.97834e-01,2.35333e-01,9.99984e-01
5.902184868e-01,2.41506e-01,9.99999e-01,9.99999e-01,9.99999e-01,9.97361e-01,2.42155e-01,9.99957e-01
5.931695792e-01,2.48561e-01,9.99999e-01,9.99999e-01,9.99999e-01,9.98138e-01,2.49034e-01,9.99959e-01
5.961354271e-01,2.55438e-01,9.99999e-01,9.99999e-01,9.99999e-01,9.97957e-01,2.55967e-01,9.99975e-01
5.991161043e-01,2.62557e-01,9.99999e-01,9.99999e-01,9.99999e-01,9.98509e-01,2.62951e-01,9.99992e-01
6.021116848e-01,2.69752e-01,9.99999e-01,9.99999e-01,9.99999e-01,9.99152e-01,2.69981e-01,9.99998e-01
6.051222432e-01,2.76936e-01,9.99999e-01,9.99999e-01,9.99999e-01,9.99571e-01,2.77055e-01,9.99999e-01
6.081478544e-01,2.84116e-01,9.99999e-01,9.99999e-01,9.99999e-01,9.99814e-01,2.84169e-01,9.99999e-01
6.111885937e-01,2.91297e-01,9.99999e-01,9.99999e-01,9.99999e-01,9.99921e-01,2.91320e-01,9.99999e-01
6.142445367e-01,2.98493e-01,9.99999e-01,9.99999e-01,9.99999e-01,9.99964e-01,2.98504e-01,9.99999e-01
6.173157594e-01,3.05712e-01,9.99999e-01,9.99999e-01,9.99999e-01,9.99980e-01,3.05718e-01,9.99999e-01
6.204023382e-01,3.12954e-01,9.99999e-01,9.99999e-01,9.99999e-01,9.99983e-01,3.12959e-01,9.99999e-01
6.235043498e-01,3.20200e-01,9.99999e-01,9.99999e-01,9.99999e-01,9.99928e-01,3.20223e-01,9.99999e-01
6.266218716e-01,3.27382e-01,9.99999e-01,9.99999e-01,9.99999e-01,9.99620e-01,3.27507e-01,9.99996e-01
6.297549810e-01,3.34760e-01,9.99999e-01,9.99999e-01,9.99999e-01,9.99860e-01,3.34808e-01,9.99994e-01
6.329037559e-01,3.42028e-01,9.99999e-01,9.99999e-01,9.99999e-01,9.99724e-01,3.42123e-01,9.99995e-01
6.360682746e-01,3.49367e-01,9.99999e-01,9.99999e-01,9.99999e-01,9.99766e-01,3.49449e-01,9.99996e-01
6.392486160e-01,3.56674e-01,9.99999e-01,9.99999e-01,9.99999e-01,9.99696e-01,3.56782e-01,9.99998e-01
6.424448591e-01,3.63972e-01,9.99999e-01,9.99999e-01,9.99999e-01,9.99596e-01,3.64120e-01,9.99997e-01
6.456570834e-01,3.70759e-01,9.99999e-01,9.99999e-01,9.99999e-01,9.98125e-01,3.71459e-01,9.99989e-01
6.488853688e-01,3.78173e-01,9.99999e-01,9.99999e-01,9.99999e-01,9.98381e-01,3.78797e-01,9.99970e-01
6.521297956e-01,3.85576e-01,9.99999e-01,9.99999e-01,9.99999e-01,9.98590e-01,3.86130e-01,9.99975e-01
6.553904446e-01,3.92902e-01,9.99999e-01,9.99999e-01,9.99999e-01,9.98607e-01,3.93456e-01,9.99981e-01
6.586673968e-01,4.00289e-01,9.99999e-01,9.99999e-01,9.99999e-01,9.98798e-01,4.00773e-01,9.99993e-01
6.619607338e-01,4.07793e-01,9.99999e-01,9.99999e-01,9.99999e-01,9.99305e-01,4.08077e-01,9.99998e-01
6.652705375e-01,4.15199e-01,9.99999e-01,9.99999e-01,9.99999e-01,9.99596e-01,4.15366e-01,9.99998e-01
6.685968902e-01,4.22558e-01,9.99999e-01,9.99999e-01,9.99999e-01,9.99812e-01,4.22637e-01,9.99999e-01
6.719398746e-01,4.29851e-01,9.99999e-01,9.99999e-01,9.99999e-01,9.99912e-01,4.29889e-01,9.99999e-01
6.752995740e-01,4.37097e-01,9.99999e-01,9.99999e-01,9.99999e-01,9.99952e-01,4.37117e-01,9.99999e-01
6.786760719e-01,4.44291e-01,9.99999e-01,9.99999e-01,9.99999e-01,9.99932e-01,4.44321e-01,9.99999e-01
6.820694522e-01,4.51446e-01,9.99999e-01,9.99999e-01,9.99999e-01,9.99884e-01,4.51498e-01,9.99998e-01
6.854797995e-01,4.58577e-01,9.99999e-01,9.99999e-01,9.99999e-01,9.99850e-01,4.58646e-01,9.99998e-01
6.889071985e-01,4.65594e-01,9.99999e-01,9.99999e-01,9.99999e-01,9.99642e-01,4.65762e-01,9.99996e-01
6.923517345e-01,4.70058e-01,9.99999e-01,9.99999e-01,9.99999e-01,9.94133e-01,4.72845e-01,9.99971e-01
6.958134932e-01,4.78376e-01,9.99999e-01,9.99999e-01,9.99999e-01,9.96903e-01,4.79892e-01,9.99935e-01
6.992925606e-01,4.85463e-01,9.99999e-01,9.99999e-01,9.99999e-01,9.97098e-01,4.86902e-01,9.99943e-01
7.027890234e-01,4.92074e-01,9.99999e-01,9.99999e-01,9.99999e-01,9.96399e-01,4.93874e-01,9.99956e-01
7.063029686e-01,4.99278e-01,9.99999e-01,9.99999e-01,9.99999e-01,9.96975e-01,5.00804e-01,9.99978e-01
7.098344834e-01,5.06212e-01,9.99999e-01,9.99999e-01,9.99999e-01,9.97097e-01,5.07691e-01,9.99986e-01
7.133836558e-01,5.12549e-01,9.99999e-01,9.99999e-01,9.99999e-01,9.96163e-01,5.14535e-01,9.99974e-01
7.169505741e-01,5.05226e-01,9.99999e-01,9.99999e-01,9.99999e-01,9.69295e-01,5.21333e-01,9.99801e-01
7.205353270e-01,5.19819e-01,9.99999e-01,9.99999e-01,9.99999e-01,9.84691e-01,5.28084e-01,9.99650e-01
7.241380036e-01,5.24361e-01,9.99999e-01,9.99999e-01,9.99999e-01,9.80801e-01,5.34786e-01,9.99697e-01
7.277586936e-01,5.31913e-01,9.99999e-01,9.99999e-01,9.99999e-01,9.82647e-01,5.41439e-01,9.99752e-01
7.313974871e-01,5.37837e-01,9.99999e-01,9.99999e-01,9.99999e-01,9.81495e-01,5.48040e-01,9.99884e-01
7.350544745e-01,5.48951e-01,9.99999e-01,9.99999e-01,9.99999e-01,9.89871e-01,5.54589e-01,9.99959e-01
7.387297469e-01,5.56889e-01,9.99999e-01,9.99999e-01,9.99999e-01,9.92538e-01,5.61085e-01,9.99981e-01
7.424233956e-01,5.65447e-01,9.99999e-01,9.99999e-01,9.99999e-01,9.96339e-01,5.67526e-01,9.99995e-01
7.461355126e-01,5.72640e-01,9.99999e-01,9.99999e-01,9.99999e-01,9.97783e-01,5.73912e-01,9.99998e-01
7.498661902e-01,5.79641e-01,9.99999e-01,9.99999e-01,9.99999e-01,9.98965e-01,5.80241e-01,9.99999e-01
7.536155211e-01,5.86217e-01,9.99999e-01,9.99999e-01,9.99999e-01,9.99493e-01,5.86514e-01,9.99999e-01
7.573835987e-01,5.92573e-01,9.99999e-01,9.99999e-01,9.99999e-01,9.99738e-01,5.92728e-01,9.99999e-01
7.611705167e-01,5.98786e-01,9.99999e-01,9.99999e-01,9.99999e-01,9.99837e-01,5.98883e-01,9.99999e-01
7.649763693e-01,6.04917e-01,9.99999e-01,9.99999e-01,9.99999e-01,9.99898e-01,6.04978e-01,9.99999e-01
7.688012511e-01,6.10971e-01,9.99999e-01,9.99999e-01,9.99999e-01,9.99928e-01,6.11014e-01,9.99999e-01
7.726452574e-01,6.16953e-01,9.99999e-01,9.99999e-01,9.99999e-01,9.99941e-01,6.16988e-01,9.99999e-01
7.765084837e-01,6.22851e-01,9.99999e-01,9.99999e-01,9.99999e-01,9.99917e-01,6.22902e-01,9.99999e-01
7.803910261e-01,6.14863e-01,9.99999e-01,9.99999e-01,9.78247e-01,9.99645e-01,6.28753e-01,9.99999e-01
7.842929812e-01,5.74695e-01,9.99999e-01,9.99999e-01,9.06769e-01,9.98763e-01,6.34543e-01,9.99997e-01
7.882144461e-01,5.75232e-01,9.99999e-01,9.99999e-01,9.00682e-01,9.97438e-01,6.40269e-01,9.99983e-01
7.921555184e-01,6.07267e-01,9.99999e-01,9.99999e-01,9.41474e-01,9.98590e-01,6.45933e-01,9.99969e-01
7.961162960e-01,6.24125e-01,9.99999e-01,9.99999e-01,9.60319e-01,9.97527e-01,6.51533e-01,9.99970e-01
8.000968774e-01,6.40972e-01,9.99999e-01,9.99999e-01,9.78328e-01,9.97133e-01,6.57070e-01,9.99968e-01
8.040973618e-01,6.53161e-01,9.99999e-01,9.99999e-01,9.88689e-01,9.97135e-01,6.62544e-01,9.99974e-01
8.081178486e-01,6.60206e-01,9.99999e-01,9.99999e-01,9.94808e-01,9.93575e-01,6.67953e-01,9.99976e-01
8.121584379e-01,6.54270e-01,9.99999e-01,9.99999e-01,9.98385e-01,9.73387e-01,6.73299e-01,9.99909e-01
8.162192301e-01,6.56582e-01,9.99999e-01,9.99999e-01,9.99642e-01,9.68252e-01,6.78580e-01,9.99659e-01
8.203003262e-01,6.72708e-01,9.99999e-01,9.99999e-01,9.99993e-01,9.84180e-01,6.83797e-01,9.99601e-01
8.244018279e-01,6.73261e-01,9.99999e-01,9.99999e-01,9.99999e-01,9.77536e-01,6.88950e-01,9.99682e-01
8.285238370e-01,6.80713e-01,9.99999e-01,9.99999e-01,9.99999e-01,9.81042e-01,6.94039e-01,9.99750e-01
8.326664562e-01,6.85556e-01,9.99999e-01,9.99999e-01,9.99999e-01,9.80777e-01,6.99064e-01,9.99896e-01
8.368297885e-01,6.94321e-01,9.99999e-01,9.99999e-01,9.99999e-01,9.86238e-01,7.04025e-01,9.99976e-01
8.410139374e-01,7.03103e-01,9.99999e-01,9.99999e-01,9.99999e-01,9.91804e-01,7.08922e-01,9.99985e-01
8.452190071e-01,7.10876e-01,9.99999e-01,9.99999e-01,9.99999e-01,9.95972e-01,7.13756e-01,9.99991e-01
8.494451021e-01,7.16846e-01,9.99999e-01,9.99999e-01,9.99999e-01,9.97668e-01,7.18526e-01,9.99992e-01
8.536923276e-01,7.22230e-01,9.99999e-01,9.99999e-01,9.99999e-01,9.98617e-01,7.23233e-01,9.99995e-01
8.579607893e-01,7.27257e-01,9.99999e-01,9.99999e-01,9.99999e-01,9.99150e-01,7.27877e-01,9.99998e-01
8.622505932e-01,7.32062e-01,9.99999e-01,9.99999e-01,9.99999e-01,9.99459e-01,7.32458e-01,9.99999e-01
8.665618462e-01,6.96576e-01,9.99999e-01,9.99999e-01,9.45486e-01,9.99666e-01,7.36976e-01,9.99999e-01
8.708946554e-01,5.77017e-01,9.99999e-01,9.99999e-01,7.78536e-01,9.99618e-01,7.41432e-01,9.99999e-01
8.752491287e-01,6.10080e-01,9.99999e-01,9.99999e-01,8.18401e-01,9.99489e-01,7.45827e-01,9.99998e-01
8.796253743e-01,6.71989e-01,9.99999e-01,9.99999e-01,8.96415e-01,9.99294e-01,7.50159e-01,9.99997e-01
8.840235012e-01,7.12434e-01,9.99999e-01,9.99999e-01,9.45091e-01,9.99193e-01,7.54431e-01,9.99994e-01
8.884436187e-01,7.39769e-01,9.99999e-01,9.99999e-01,9.77964e-01,9.97089e-01,7.58642e-01,9.99985e-01
8.928858368e-01,7.32812e-01,9.99999e-01,9.99999e-01,9.91037e-01,9.69414e-01,7.62793e-01,9.99918e-01
8.973502660e-01,7.23694e-01,9.99999e-01,9.99999e-01,9.97807e-01,9.46119e-01,7.66883e-01,9.99586e-01
9.018370173e-01,7.48654e-01,9.99999e-01,9.99999e-01,9.99757e-01,9.71986e-01,7.70914e-01,9.99349e-01
9.063462024e-01,7.51031e-01,9.99999e-01,9.99999e-01,9.93913e-01,9.75587e-01,7.74886e-01,9.99428e-01
9.108779334e-01,7.38323e-01,9.99999e-01,9.99999e-01,9.85902e-01,9.62045e-01,7.78800e-01,9.99406e-01
9.154323231e-01,7.46141e-01,9.99999e-01,9.99999e-01,9.96654e-01,9.56970e-01,7.82655e-01,9.99509e-01
9.200094847e-01,7.24014e-01,9.99999e-01,9.99999e-01,9.52069e-01,9.66061e-01,7.86453e-01,9.99725e-01
9.246095321e-01,6.98950e-01,9.99999e-01,9.99999e-01,9.32828e-01,9.47734e-01,7.90193e-01,9.99683e-01
9.292325798e-01,5.23710e-01,9.99999e-01,9.99999e-01,9.47147e-01,6.94597e-01,7.93877e-01,9.98766e-01
9.338787427e-01,4.70356e-01,9.99999e-01,9.99999e-01,9.48641e-01,6.22409e-01,7.97505e-01,9.94913e-01
9.385481364e-01,6.33832e-01,9.99999e-01,9.99999e-01,9.62072e-01,8.26162e-01,8.01077e-01,9.93953e-01
9.432408771e-01,5.99520e-01,9.99999e-01,9.99999e-01,9.76585e-01,7.66301e-01,8.04595e-01,9.94781e-01
9.479570815e-01,5.49734e-01,9.99999e-01,9.99999e-01,9.87944e-01,6.91238e-01,8.08057e-01,9.95750e-01
9.526968669e-01,6.10656e-01,9.99999e-01,9.99999e-01,9.94161e-01,7.58641e-01,8.11466e-01,9.97405e-01
9.574603512e-01,6.31814e-01,9.99999e-01,9.99999e-01,9.97499e-01,7.78285e-01,8.14822e-01,9.98681e-01
9.622476530e-01,6.66203e-01,9.99999e-01,9.99999e-01,9.99218e-01,8.15661e-01,8.18124e-01,9.99087e-01
9.670588912e-01,7.29968e-01,9.99999e-01,9.99999e-01,9.99765e-01,8.89470e-01,8.21375e-01,9.99375e-01
9.718941857e-01,7.66257e-01,9.99999e-01,9.99999e-01,9.99982e-01,9.29718e-01,8.24573e-01,9.99540e-01
9.767536566e-01,7.78889e-01,9.99999e-01,9.99999e-01,9.99999e-01,9.41334e-01,8.27721e-01,9.99648e-01
9.816374249e-01,7.94295e-01,9.99999e-01,9.99999e-01,9.99999e-01,9.56155e-01,8.30818e-01,9.99878e-01
9.865456120e-01,8.10823e-01,9.99999e-01,9.99999e-01,9.99999e-01,9.72390e-01,8.33865e-01,9.99974e-01
9.914783401e-01,8.22515e-01,9.99999e-01,9.99999e-01,9.99999e-01,9.82860e-01,8.36863e-01,9.99992e-01
9.964357318e-01,8.31940e-01,9.99999e-01,9.99999e-01,9.99999e-01,9.90630e-01,8.39812e-01,9.99995e-01
1.001417910e+00,8.37968e-01,9.99999e-01,9.99999e-01,9.99999e-01,9.94374e-01,8.42713e-01,9.99993e-01
1.006425000e+00,8.42849e-01,9.99999e-01,9.99999e-01,9.99999e-01,9.96794e-01,8.45567e-01,9.99990e-01
1.011457125e+00,8.46675e-01,9.99999e-01,9.99999e-01,9.99999e-01,9.98006e-01,8.48373e-01,9.99991e-01
1.016514411e+00,8.49977e-01,9.99999e-01,9.99999e-01,9.99999e-01,9.98647e-01,8.51133e-01,9.99993e-01
1.021596983e+00,8.52897e-01,9.99999e-01,9.99999e-01,9.99969e-01,9.98922e-01,8.53847e-01,9.99993e-01
1.026704968e+00,8.53771e-01,9.99999e-01,9.99999e-01,9.97635e-01,9.99159e-01,8.56516e-01,9.99995e-01
1.031838492e+00,8.32260e-01,9.99999e-01,9.99999e-01,9.69292e-01,9.99388e-01,8.59140e-01,9.99998e-01
1.036997685e+00,1.97578e-01,9.99999e-01,9.99999e-01,2.29351e-01,9.99637e-01,8.61721e-01,9.99999e-01
1.042182673e+00,2.13023e-01,9.99999e-01,9.99999e-01,2.46579e-01,9.99568e-01,8.64258e-01,9.99999e-01
1.047393587e+00,2.14171e-01,9.99999e-01,9.99999e-01,2.47223e-01,9.99427e-01,8.66752e-01,9.99999e-01
1.052630555e+00,1.88274e-02,9.99999e-01,9.99999e-01,2.16737e-02,9.99214e-01,8.69203e-01,9.99999e-01
1.057893707e+00,3.90218e-02,9.99999e-01,9.99999e-01,4.48132e-02,9.98690e-01,8.71613e-01,9.99999e-01
1.063183176e+00,9.07842e-02,9.99999e-01,9.99999e-01,1.04048e-01,9.97844e-01,8.73982e-01,9.99998e-01
1.068499092e+00,1.89252e-01,9.99999e-01,9.99999e-01,2.16659e-01,9.96387e-01,8.76311e-01,9.99997e-01
1.073841587e+00,3.32852e-01,9.99999e-01,9.99999e-01,3.80274e-01,9.95777e-01,8.78599e-01,9.99994e-01
