#,Wave/freq,Total,N2,O2,CO2,H2O,Rayleigh,CIA
4.000000000e-01,1.52830e-05,9.99999e-01,9.99999e-01,9.99999e-01,9.99978e-01,1.52834e-05,9.99999e-01
4.020000000e-01,1.90299e-05,9.99999e-01,9.99999e-01,9.99999e-01,9.99986e-01,1.90301e-05,9.99999e-01
4.040100000e-01,2.35875e-05,9.99999e-01,9.99999e-01,9.99999e-01,9.99993e-01,2.35876e-05,9.99999e-01
4.060300500e-01,2.91128e-05,9.99999e-01,9.99999e-01,9.99999e-01,9.99998e-01,2.91129e-05,9.99999e-01
4.080602003e-01,3.57833e-05,9.99999e-01,9.99999e-01,9.99999e-01,9.99999e-01,3.57833e-05,9.99999e-01
4.101005013e-01,4.38033e-05,9.99999e-01,9.99999e-01,9.99999e-01,9.99999e-01,4.38033e-05,9.99999e-01
4.121510038e-01,5.34069e-05,9.99999e-01,9.99999e-01,9.99999e-01,9.99998e-01,5.34069e-05,9.99999e-01
4.142117588e-01,6.48613e-05,9.99999e-01,9.99999e-01,9.99999e-01,9.99993e-01,6.48617e-05,9.99999e-01
4.162828176e-01,7.84694e-05,9.99999e-01,9.99999e-01,9.99999e-01,9.99973e-01,7.84715e-05,9.99999e-01
4.183642317e-01,9.45790e-05,9.99999e-01,9.99999e-01,9.99999e-01,9.99983e-01,9.45805e-05,9.99999e-01
4.204560528e-01,1.13576e-04,9.99999e-01,9.99999e-01,9.99999e-01,9.99989e-01,1.13577e-04,9.99999e-01
4.225583331e-01,1.35896e-04,9.99999e-01,9.99999e-01,9.99999e-01,9.99995e-01,1.35896e-04,9.99999e-01
4.246711247e-01,1.62026e-04,9.99999e-01,9.99999e-01,9.99999e-01,9.99996e-01,1.62026e-04,9.99999e-01
4.267944804e-01,1.92510e-04,9.99999e-01,9.99999e-01,9.99999e-01,9.99995e-01,1.92511e-04,9.99999e-01
4.289284528e-01,2.27953e-04,9.99999e-01,9.99999e-01,9.99999e-01,9.99996e-01,2.27954e-04,9.99999e-01
4.310730950e-01,2.69022e-04,9.99999e-01,9.99999e-01,9.99999e-01,9.99998e-01,2.69023e-04,9.99999e-01
4.332284605e-01,3.16453e-04,9.99999e-01,9.99999e-01,9.99999e-01,9.99999e-01,3.16453e-04,9.99999e-01
4.353946028e-01,3.71054e-04,9.99999e-01,9.99999e-01,9.99999e-01,9.99999e-01,3.71054e-04,9.99999e-01
4.375715758e-01,4.33708e-04,9.99999e-01,9.99999e-01,9.99999e-01,9.99996e-01,4.33709e-04,9.99999e-01
4.397594337e-01,5.05373e-04,9.99999e-01,9.99999e-01,9.99999e-01,9.99976e-01,5.05385e-04,9.99999e-01
4.419582309e-01,5.87061e-04,9.99999e-01,9.99999e-01,9.99999e-01,9.99882e-01,5.87130e-04,9.99999e-01
4.441680220e-01,6.80017e-04,9.99999e-01,9.99999e-01,9.99999e-01,9.99907e-01,6.80079e-04,9.99999e-01
4.463888621e-01,7.85385e-04,9.99999e-01,9.99999e-01,9.99999e-01,9.99903e-01,7.85461e-04,9.99999e-01
4.486208064e-01,9.04539e-04,9.99999e-01,9.99999e-01,9.99999e-01,9.99939e-01,9.04593e-04,9.99999e-01
4.508639105e-01,1.03886e-03,9.99999e-01,9.99999e-01,9.99999e-01,9.99971e-01,1.03889e-03,9.99999e-01
4.531182300e-01,1.18986e-03,9.99999e-01,9.99999e-01,9.99999e-01,9.99988e-01,1.18987e-03,9.99999e-01
4.553838212e-01,1.35914e-03,9.99999e-01,9.99999e-01,9.99999e-01,9.99992e-01,1.35915e-03,9.99999e-01
4.576607403e-01,1.54843e-03,9.99999e-01,9.99999e-01,9.99999e-01,9.99996e-01,1.54843e-03,9.99999e-01
4.599490440e-01,1.75953e-03,9.99999e-01,9.99999e-01,9.99999e-01,9.99997e-01,1.75954e-03,9.99999e-01
4.622487892e-01,1.99438e-03,9.99999e-01,9.99999e-01,9.99999e-01,9.99999e-01,1.99438e-03,9.99999e-01
4.645600332e-01,2.25499e-03,9.99999e-01,9.99999e-01,9.99999e-01,9.99997e-01,2.25499e-03,9.99999e-01
4.668828333e-01,2.54340e-03,9.99999e-01,9.99999e-01,9.99999e-01,9.99971e-01,2.54347e-03,9.99999e-01
4.692172475e-01,2.86187e-03,9.99999e-01,9.99999e-01,9.99999e-01,9.99939e-01,2.86204e-03,9.99999e-01
4.715633337e-01,3.21289e-03,9.99999e-01,9.99999e-01,9.99999e-01,9.99960e-01,3.21301e-03,9.99999e-01
4.739211504e-01,3.59866e-03,9.99999e-01,9.99999e-01,9.99999e-01,9.99961e-01,3.59880e-03,9.99999e-01
4.762907561e-01,4.02180e-03,9.99999e-01,9.99999e-01,9.99999e-01,9.99979e-01,4.02188e-03,9.99999e-01
4.786722099e-01,4.48481e-03,9.99999e-01,9.99999e-01,9.99999e-01,9.99991e-01,4.48485e-03,9.99999e-01
4.810655710e-01,4.99034e-03,9.99999e-01,9.99999e-01,9.99999e-01,9.99997e-01,4.99035e-03,9.99999e-01
4.834708988e-01,5.54101e-03,9.99999e-01,9.99999e-01,9.99999e-01,9.99976e-01,5.54114e-03,9.99999e-01
4.858882533e-01,6.13974e-03,9.99999e-01,9.99999e-01,9.99999e-01,9.99956e-01,6.14000e-03,9.99999e-01
4.883176946e-01,6.78957e-03,9.99999e-01,9.99999e-01,9.99999e-01,9.99964e-01,6.78981e-03,9.99999e-01
4.907592831e-01,7.49324e-03,9.99999e-01,9.99999e-01,9.99999e-01,9.99967e-01,7.49349e-03,9.99999e-01
4.932130795e-01,8.25380e-03,9.99999e-01,9.99999e-01,9.99999e-01,9.99976e-01,8.25399e-03,9.99999e-01
4.956791449e-01,9.07423e-03,9.99999e-01,9.99999e-01,9.99999e-01,9.99987e-01,9.07434e-03,9.99999e-01
4.981575406e-01,9.95697e-03,9.99999e-01,9.99999e-01,9.99999e-01,9.99939e-01,9.95757e-03,9.99999e-01
5.006483283e-01,1.09050e-02,9.99999e-01,9.99999e-01,9.99999e-01,9.99843e-01,1.09067e-02,9.99998e-01
5.031515699e-01,1.19154e-02,9.99999e-01,9.99999e-01,9.99999e-01,9.99207e-01,1.19249e-02,9.99991e-01
5.056673278e-01,1.30096e-02,9.99999e-01,9.99999e-01,9.99999e-01,9.99580e-01,1.30152e-02,9.99989e-01
5.081956644e-01,1.41730e-02,9.99999e-01,9.99999e-01,9.99999e-01,9.99471e-01,1.41806e-02,9.99993e-01
5.107366428e-01,1.54187e-02,9.99999e-01,9.99999e-01,9.99999e-01,9.99642e-01,1.54242e-02,9.99998e-01
5.132903260e-01,1.67456e-02,9.99999e-01,9.99999e-01,9.99999e-01,9.99795e-01,1.67491e-02,9.99999e-01
5.158567776e-01,1.81566e-02,9.99999e-01,9.99999e-01,9.99999e-01,9.99913e-01,1.81581e-02,9.99999e-01
5.184360615e-01,1.96537e-02,9.99999e-01,9.99999e-01,9.99999e-01,9.99964e-01,1.96543e-02,9.99999e-01
5.210282418e-01,2.12403e-02,9.99999e-01,9.99999e-01,9.99999e-01,9.99986e-01,2.12406e-02,9.99999e-01
5.236333830e-01,2.29185e-02,9.99999e-01,9.99999e-01,9.99999e-01,9.99947e-01,2.29197e-02,9.99999e-01
5.262515499e-01,2.46936e-02,9.99999e-01,9.99999e-01,9.99999e-01,9.99967e-01,2.46945e-02,9.99998e-01
5.288828077e-01,2.65666e-02,9.99999e-01,9.99999e-01,9.99999e-01,9.99969e-01,2.65674e-02,9.99999e-01
5.315272217e-01,2.85405e-02,9.99999e-01,9.99999e-01,9.99999e-01,9.99973e-01,2.85412e-02,9.99999e-01
5.341848578e-01,3.06178e-02,9.99999e-01,9.99999e-01,9.99999e-01,9.99982e-01,3.06183e-02,9.99999e-01
5.368557821e-01,3.27990e-02,9.99999e-01,9.99999e-01,9.99999e-01,9.99939e-01,3.28010e-02,9.99999e-01
5.395400610e-01,3.50838e-02,9.99999e-01,9.99999e-01,9.99999e-01,9.99783e-01,3.50915e-02,9.99997e-01
5.422377613e-01,3.74812e-02,9.99999e-01,9.99999e-01,9.99999e-01,9.99718e-01,3.74919e-02,9.99994e-01
5.449489501e-01,3.99936e-02,9.99999e-01,9.99999e-01,9.99999e-01,9.99739e-01,4.00042e-02,9.99994e-01
5.476736949e-01,4.26202e-02,9.99999e-01,9.99999e-01,9.99999e-01,9.99767e-01,4.26302e-02,9.99996e-01
5.504120634e-01,4.53639e-02,9.99999e-01,9.99999e-01,9.99999e-01,9.99831e-01,4.53716e-02,9.99998e-01
5.531641237e-01,4.82257e-02,9.99999e-01,9.99999e-01,9.99999e-01,9.99914e-01,4.82298e-02,9.99999e-01
5.559299443e-01,5.12042e-02,9.99999e-01,9.99999e-01,9.99999e-01,9.99958e-01,5.12063e-02,9.99999e-01
5.587095940e-01,5.43008e-02,9.99999e-01,9.99999e-01,9.99999e-01,9.99973e-01,5.43022e-02,9.99999e-01
5.615031420e-01,5.75169e-02,9.99999e-01,9.99999e-01,9.99999e-01,9.99971e-01,5.75186e-02,9.99999e-01
5.643106577e-01,6.08542e-02,9.99999e-01,9.99999e-01,9.99999e-01,9.99967e-01,6.08562e-02,9.99999e-01
5.671322110e-01,6.42906e-02,9.99999e-01,9.99999e-01,9.99999e-01,9.99610e-01,6.43158e-02,9.99996e-01
5.699678720e-01,6.78688e-02,9.99999e-01,9.99999e-01,9.99999e-01,9.99580e-01,6.78979e-02,9.99988e-01
5.728177114e-01,7.15711e-02,9.99999e-01,9.99999e-01,9.99999e-01,9.99565e-01,7.16028e-02,9.99990e-01
5.756818000e-01,7.54002e-02,9.99999e-01,9.99999e-01,9.99999e-01,9.99600e-01,7.54307e-02,9.99994e-01
5.785602090e-01,7.93538e-02,9.99999e-01,9.99999e-01,9.99999e-01,9.99651e-01,7.93815e-02,9.99997e-01
5.814530100e-01,8.34259e-02,9.99999e-01,9.99999e-01,9.99999e-01,9.99650e-01,8.34550e-02,9.99998e-01
5.843602750e-01,8.76144e-02,9.99999e-01,9.99999e-01,9.99999e-01,9.99585e-01,8.76509e-02,9.99997e-01
5.872820764e-01,9.16378e-02,9.99999e-01,9.99999e-01,9.99999e-01,9.96427e-01,9.19686e-02,9.99974e-01
5.902184868e-01,9.59818e-02,9.99999e-01,9.99999e-01,9.99999e-01,9.95653e-01,9.64074e-02,9.99930e-01
5.931695792e-01,1.00650e-01,9.99999e-01,9.99999e-01,9.99999e-01,9.96932e-01,1.00966e-01,9.99933e-01
5.961354271e-01,1.05285e-01,9.99999e-01,9.99999e-01,9.99999e-01,9.96634e-01,1.05644e-01,9.99961e-01
5.991161043e-01,1.10168e-01,9.99999e-01,9.99999e-01,9.99999e-01,9.97543e-01,1.10440e-01,9.99987e-01
6.021116848e-01,1.15192e-01,9.99999e-01,9.99999e-01,9.99999e-01,9.98604e-01,1.15353e-01,9.99998e-01
6.051222432e-01,1.20295e-01,9.99999e-01,9.99999e-01,9.99999e-01,9.99293e-01,1.20380e-01,9.99999e-01
6.081478544e-01,1.25483e-01,9.99999e-01,9.99999e-01,9.99999e-01,9.99695e-01,1.25521e-01,9.99999e-01
6.111885937e-01,1.30757e-01,9.99999e-01,9.99999e-01,9.99999e-01,9.99870e-01,1.30774e-01,9.99999e-01
6.142445367e-01,1.36127e-01,9.99999e-01,9.99999e-01,9.99999e-01,9.99942e-01,1.36135e-01,9.99999e-01
6.173157594e-01,1.41600e-01,9.99999e-01,9.99999e-01,9.99999e-01,9.99967e-01,1.41604e-01,9.99999e-01
6.204023382e-01,1.47175e-01,9.99999e-01,9.99999e-01,9.99999e-01,9.99972e-01,1.47179e-01,9.99999e-01
6.235043498e-01,1.52838e-01,9.99999e-01,9.99999e-01,9.99999e-01,9.99882e-01,1.52856e-01,9.99999e-01
6.266218716e-01,1.58534e-01,9.99999e-01,9.99999e-01,9.99999e-01,9.99374e-01,1.58633e-01,9.99995e-01
6.297549810e-01,1.64470e-01,9.99999e-01,9.99999e-01,9.99999e-01,9.99770e-01,1.64509e-01,9.99990e-01
6.329037559e-01,1.70401e-01,9.99999e-01,9.99999e-01,9.99999e-01,9.99546e-01,1.70479e-01,9.99992e-01
6.360682746e-01,1.76473e-01,9.99999e-01,9.99999e-01,9.99999e-01,9.99614e-01,1.76542e-01,9.99995e-01
6.392486160e-01,1.82602e-01,9.99999e-01,9.99999e-01,9.99999e-01,9.99499e-01,1.82694e-01,9.99997e-01
6.424448591e-01,1.88806e-01,9.99999e-01,9.99999e-01,9.99999e-01,9.99333e-01,1.88933e-01,9.99996e-01
6.456570834e-01,1.94647e-01,9.99999e-01,9.99999e-01,9.99999e-01,9.96906e-01,1.95255e-01,9.99982e-01
6.488853688e-01,2.01188e-01,9.99999e-01,9.99999e-01,9.99999e-01,9.97722e-01,2.01657e-01,9.99951e-01
6.521297956e-01,2.07646e-01,9.99999e-01,9.99999e-01,9.99999e-01,9.97677e-01,2.08137e-01,9.99959e-01
6.553904446e-01,2.14192e-01,9.99999e-01,9.99999e-01,9.99999e-01,9.97704e-01,2.14691e-01,9.99969e-01
6.586673968e-01,2.20876e-01,9.99999e-01,9.99999e-01,9.99999e-01,9.98020e-01,2.21316e-01,9.99989e-01
6.619607338e-01,2.27747e-01,9.99999e-01,9.99999e-01,9.99999e-01,9.98855e-01,2.28008e-01,9.99997e-01
6.652705375e-01,2.34608e-01,9.99999e-01,9.99999e-01,9.99999e-01,9.99336e-01,2.34764e-01,9.99998e-01
6.685968902e-01,2.41507e-01,9.99999e-01,9.99999e-01,9.99999e-01,9.99691e-01,2.41581e-01,9.99999e-01
6.719398746e-01,2.48421e-01,9.99999e-01,9.99999e-01,9.99999e-01,9.99856e-01,2.48456e-01,9.99999e-01
6.752995740e-01,2.55365e-01,9.99999e-01,9.99999e-01,9.99999e-01,9.99922e-01,2.55385e-01,9.99999e-01
6.786760719e-01,2.62335e-01,9.99999e-01,9.99999e-01,9.99999e-01,9.99888e-01,2.62364e-01,9.99999e-01
6.820694522e-01,2.69339e-01,9.99999e-01,9.99999e-01,9.99999e-01,9.99809e-01,2.69391e-01,9.99998e-01
6.854797995e-01,2.76392e-01,9.99999e-01,9.99999e-01,9.99999e-01,9.99754e-01,2.76461e-01,9.99997e-01
6.889071985e-01,2.83403e-01,9.99999e-01,9.99999e-01,9.99999e-01,9.99409e-01,2.83572e-01,9.99994e-01
6.923517345e-01,2.87896e-01,9.99999e-01,9.99999e-01,9.99999e-01,9.90335e-01,2.90719e-01,9.99952e-01
6.958134932e-01,2.96355e-01,9.99999e-01,9.99999e-01,9.99999e-01,9.94915e-01,2.97901e-01,9.99894e-01
6.992925606e-01,3.03625e-01,9.99999e-01,9.99999e-01,9.99999e-01,9.95215e-01,3.05113e-01,9.99907e-01
7.027890234e-01,3.10478e-01,9.99999e-01,9.99999e-01,9.99999e-01,9.94072e-01,3.12351e-01,9.99928e-01
7.063029686e-01,3.18010e-01,9.99999e-01,9.99999e-01,9.99999e-01,9.95017e-01,3.19614e-01,9.99964e-01
7.098344834e-01,3.25327e-01,9.99999e-01,9.99999e-01,9.99999e-01,9.95218e-01,3.26896e-01,9.99978e-01
7.133836558e-01,3.32067e-01,9.99999e-01,9.99999e-01,9.99999e-01,9.93668e-01,3.34196e-01,9.99958e-01
7.169505741e-01,3.24311e-01,9.99999e-01,9.99999e-01,9.99999e-01,9.49948e-01,3.41510e-01,9.99673e-01
7.205353270e-01,3.39915e-01,9.99999e-01,9.99999e-01,9.99999e-01,9.74988e-01,3.48835e-01,9.99423e-01
7.241380036e-01,3.44801e-01,9.99999e-01,9.99999e-01,9.99999e-01,9.68567e-01,3.56168e-01,9.99502e-01
7.277586936e-01,3.53031e-01,9.99999e-01,9.99999e-01,9.99999e-01,9.71579e-01,3.63505e-01,9.99592e-01
7.313974871e-01,3.59547e-01,9.99999e-01,9.99999e-01,9.99999e-01,9.69720e-01,3.70844e-01,9.99809e-01
7.350544745e-01,3.71869e-01,9.99999e-01,9.99999e-01,9.99999e-01,9.83369e-01,3.78182e-01,9.99933e-01
7.387297469e-01,3.80777e-01,9.99999e-01,9.99999e-01,9.99999e-01,9.87735e-01,3.85516e-01,9.99969e-01
7.424233956e-01,3.90475e-01,9.99999e-01,9.99999e-01,9.99999e-01,9.93977e-01,3.92843e-01,9.99993e-01
7.461355126e-01,3.98700e-01,9.99999e-01,9.99999e-01,9.99999e-01,9.96349e-01,4.00161e-01,9.99998e-01
7.498661902e-01,4.06772e-01,9.99999e-01,9.99999e-01,9.99999e-01,9.98296e-01,4.07466e-01,9.99999e-01
7.536155211e-01,4.14410e-01,9.99999e-01,9.99999e-01,9.99999e-01,9.99165e-01,4.14756e-01,9.99999e-01
7.573835987e-01,4.21848e-01,9.99999e-01,9.99999e-01,9.99999e-01,9.99570e-01,4.22029e-01,9.99999e-01
7.611705167e-01,4.29168e-01,9.99999e-01,9.99999e-01,9.99999e-01,9.99732e-01,4.29282e-01,9.99999e-01
7.649763693e-01,4.36440e-01,9.99999e-01,9.99999e-01,9.99999e-01,9.99832e-01,4.36513e-01,9.99999e-01
7.688012511e-01,4.43667e-01,9.99999e-01,9.99999e-01,9.99999e-01,9.99883e-01,4.43719e-01,9.99999e-01
7.726452574e-01,4.50855e-01,9.99999e-01,9.99999e-01,9.99999e-01,9.99903e-01,4.50898e-01,9.99999e-01
7.765084837e-01,4.57986e-01,9.99999e-01,9.99999e-01,9.99999e-01,9.99864e-01,4.58048e-01,9.99999e-01
7.803910261e-01,4.48825e-01,9.99999e-01,9.99999e-01,9.65414e-01,9.99414e-01,4.65167e-01,9.99998e-01
7.842929812e-01,4.01995e-01,9.99999e-01,9.99999e-01,8.52884e-01,9.97958e-01,4.72253e-01,9.99995e-01
7.882144461e-01,4.02794e-01,9.99999e-01,9.99999e-01,8.43809e-01,9.95779e-01,4.79303e-01,9.99973e-01
7.921555184e-01,4.39393e-01,9.99999e-01,9.99999e-01,9.05607e-01,9.97678e-01,4.86317e-01,9.99949e-01
7.961162960e-01,4.59612e-01,9.99999e-01,9.99999e-01,9.35547e-01,9.95921e-01,4.93291e-01,9.99951e-01
8.000968774e-01,4.80203e-01,9.99999e-01,9.99999e-01,9.64563e-01,9.95277e-01,5.00225e-01,9.99948e-01
8.040973618e-01,4.95345e-01,9.99999e-01,9.99999e-01,9.81450e-01,9.95278e-01,5.07116e-01,9.99959e-01
8.081178486e-01,5.04170e-01,9.99999e-01,9.99999e-01,9.91460e-01,9.89415e-01,5.13964e-01,9.99961e-01
8.121584379e-01,4.96738e-01,9.99999e-01,9.99999e-01,9.97344e-01,9.56515e-01,5.20765e-01,9.99850e-01
8.162192301e-01,4.99696e-01,9.99999e-01,9.99999e-01,9.99412e-01,9.48329e-01,5.27520e-01,9.99439e-01
8.203003262e-01,5.20057e-01,9.99999e-01,9.99999e-01,9.99990e-01,9.74122e-01,5.34227e-01,9.99343e-01
8.244018279e-01,5.20906e-01,9.99999e-01,9.99999e-01,9.99999e-01,9.63568e-01,5.40884e-01,9.99477e-01
8.285238370e-01,5.30273e-01,9.99999e-01,9.99999e-01,9.99999e-01,9.68951e-01,5.47489e-01,9.99589e-01
8.326664562e-01,5.36529e-01,9.99999e-01,9.99999e-01,9.99999e-01,9.68553e-01,5.54043e-01,9.99829e-01
8.368297885e-01,5.47872e-01,9.99999e-01,9.99999e-01,9.99999e-01,9.77432e-01,5.60543e-01,9.99960e-01
8.410139374e-01,5.59341e-01,9.99999e-01,9.99999e-01,9.99999e-01,9.86532e-01,5.66989e-01,9.99976e-01
8.452190071e-01,5.69572e-01,9.99999e-01,9.99999e-01,9.99999e-01,9.93373e-01,5.73379e-01,9.99985e-01
8.494451021e-01,5.77480e-01,9.99999e-01,9.99999e-01,9.99999e-01,9.96158e-01,5.79714e-01,9.99988e-01
8.536923276e-01,5.84652e-01,9.99999e-01,9.99999e-01,9.99999e-01,9.97723e-01,5.85990e-01,9.99992e-01
8.579607893e-01,5.91379e-01,9.99999e-01,9.99999e-01,9.99999e-01,9.98599e-01,5.92209e-01,9.99997e-01
8.622505932e-01,5.97836e-01,9.99999e-01,9.99999e-01,9.99999e-01,9.99109e-01,5.98369e-01,9.99999e-01
8.665618462e-01,5.58486e-01,9.99999e-01,9.99999e-01,9.24414e-01,9.99449e-01,6.04470e-01,9.99999e-01
8.708946554e-01,4.07849e-01,9.99999e-01,9.99999e-01,6.68451e-01,9.99370e-01,6.10511e-01,9.99999e-01
8.752491287e-01,4.44873e-01,9.99999e-01,9.99999e-01,7.22211e-01,9.99157e-01,6.16490e-01,9.99998e-01
8.796253743e-01,5.19801e-01,9.99999e-01,9.99999e-01,8.36088e-01,9.98835e-01,6.22409e-01,9.99996e-01
8.840235012e-01,5.71807e-01,9.99999e-01,9.99999e-01,9.11335e-01,9.98669e-01,6.28266e-01,9.99991e-01
8.884436187e-01,6.08316e-01,9.99999e-01,9.99999e-01,9.64010e-01,9.95189e-01,6.34060e-01,9.99976e-01
8.928858368e-01,5.98928e-01,9.99999e-01,9.99999e-01,9.85283e-01,9.50111e-01,6.39792e-01,9.99866e-01
8.973502660e-01,5.86844e-01,9.99999e-01,9.99999e-01,9.96396e-01,9.13025e-01,6.45461e-01,9.99317e-01
9.018370173e-01,6.20513e-01,9.99999e-01,9.99999e-01,9.99601e-01,9.54461e-01,6.51067e-01,9.98927e-01
9.063462024e-01,6.23727e-01,9.99999e-01,9.99999e-01,9.89983e-01,9.60119e-01,6.56609e-01,9.99058e-01
9.108779334e-01,6.06501e-01,9.99999e-01,9.99999e-01,9.76892e-01,9.38346e-01,6.62088e-01,9.99021e-01
9.154323231e-01,6.17078e-01,9.99999e-01,9.99999e-01,9.94505e-01,9.30202e-01,6.67503e-01,9.99190e-01
9.200094847e-01,5.89070e-01,9.99999e-01,9.99999e-01,9.24140e-01,9.44842e-01,6.72853e-01,9.99546e-01
9.246095321e-01,5.54854e-01,9.99999e-01,9.99999e-01,8.91933e-01,9.15865e-01,6.78140e-01,9.99477e-01
9.292325798e-01,3.49505e-01,9.99999e-01,9.99999e-01,9.14712e-01,5.54863e-01,6.83363e-01,9.97967e-01
9.338787427e-01,2.94872e-01,9.99999e-01,9.99999e-01,9.17039e-01,4.66476e-01,6.88521e-01,9.91624e-01
9.385481364e-01,4.75382e-01,9.99999e-01,9.99999e-01,9.38346e-01,7.34903e-01,6.93616e-01,9.90046e-01
9.432408771e-01,4.36395e-01,9.99999e-01,9.99999e-01,9.61738e-01,6.53643e-01,6.98646e-01,9.91406e-01
9.479570815e-01,3.82105e-01,9.99999e-01,9.99999e-01,9.80210e-01,5.57305e-01,7.03612e-01,9.93000e-01
9.526968669e-01,4.49664e-01,9.99999e-01,9.99999e-01,9.90402e-01,6.42985e-01,7.08515e-01,9.95724e-01
9.574603512e-01,4.71689e-01,9.99999e-01,9.99999e-01,9.95884e-01,6.65215e-01,7.13354e-01,9.97825e-01
9.622476530e-01,5.13547e-01,9.99999e-01,9.99999e-01,9.98713e-01,7.17060e-01,7.18129e-01,9.98495e-01
9.670588912e-01,5.95946e-01,9.99999e-01,9.99999e-01,9.99613e-01,8.25600e-01,7.22841e-01,9.98971e-01
9.718941857e-01,6.44814e-01,9.99999e-01,9.99999e-01,9.99972e-01,8.87047e-01,7.27490e-01,9.99242e-01
9.767536566e-01,6.62373e-01,9.99999e-01,9.99999e-01,9.99999e-01,9.05310e-01,7.32076e-01,9.99420e-01
9.816374249e-01,6.84054e-01,9.99999e-01,9.99999e-01,9.99999e-01,9.28849e-01,7.36600e-01,9.99799e-01
9.865456120e-01,7.07634e-01,9.99999e-01,9.99999e-01,9.99999e-01,9.54931e-01,7.41061e-01,9.99957e-01
9.914783401e-01,7.24513e-01,9.99999e-01,9.99999e-01,9.99999e-01,9.71910e-01,7.45461e-01,9.99987e-01
9.964357318e-01,7.38251e-01,9.99999e-01,9.99999e-01,9.99999e-01,9.84604e-01,7.49799e-01,9.99992e-01
1.001417910e+00,7.47089e-01,9.99999e-01,9.99999e-01,9.99999e-01,9.90745e-01,7.54076e-01,9.99989e-01
1.006425000e+00,7.54277e-01,9.99999e-01,9.99999e-01,9.99999e-01,9.94720e-01,7.58292e-01,9.99984e-01
1.011457125e+00,7.59933e-01,9.99999e-01,9.99999e-01,9.99999e-01,9.96716e-01,7.62447e-01,9.99985e-01
1.016514411e+00,7.64827e-01,9.99999e-01,9.99999e-01,9.99999e-01,9.97771e-01,7.66543e-01,9.99989e-01
1.021596983e+00,7.69165e-01,9.99999e-01,9.99999e-01,9.99948e-01,9.98224e-01,7.70579e-01,9.99989e-01
1.026704968e+00,7.70457e-01,9.99999e-01,9.99999e-01,9.96091e-01,9.98615e-01,7.74556e-01,9.99993e-01
1.031838492e+00,7.43290e-01,9.99999e-01,9.99999e-01,9.55738e-01,9.98992e-01,7.78474e-01,9.99997e-01
1.036997685e+00,1.14701e-01,9.99999e-01,9.99999e-01,1.46684e-01,9.99401e-01,7.82334e-01,9.99999e-01
1.042182673e+00,8.48958e-02,9.99999e-01,9.99999e-01,1.08059e-01,9.99288e-01,7.86137e-01,9.99999e-01
1.047393587e+00,1.04249e-01,9.99999e-01,9.99999e-01,1.32091e-01,9.99055e-01,7.89882e-01,9.99999e-01
1.052630555e+00,2.47529e-03,9.99999e-01,9.99999e-01,3.12213e-03,9.98704e-01,7.93571e-01,9.99999e-01
1.057893707e+00,6.41333e-03,9.99999e-01,9.99999e-01,8.05636e-03,9.97840e-01,7.97203e-01,9.99998e-01
1.063183176e+00,2.27300e-02,9.99999e-01,9.99999e-01,2.84565e-02,9.96445e-01,8.00780e-01,9.99997e-01
1.068499092e+00,6.69961e-02,9.99999e-01,9.99999e-01,8.37131e-02,9.94049e-01,8.04302e-01,9.99995e-01
1.073841587e+00,1.66978e-01,9.99999e-01,9.99999e-01,2.07940e-01,9.93044e-01,8.07769e-01,9.99990e-01
