#,Wave/freq,Total,N2,O2,CO2,H2O,Rayleigh,CIA
4.000000000e-01,1.35085e-14,9.99999e-01,9.99999e-01,9.99999e-01,9.99938e-01,1.35094e-14,9.99999e-01
4.020000000e-01,2.54014e-14,9.99999e-01,9.99999e-01,9.99999e-01,9.99961e-01,2.54024e-14,9.99999e-01
4.040100000e-01,4.71417e-14,9.99999e-01,9.99999e-01,9.99999e-01,9.99983e-01,4.71425e-14,9.99999e-01
4.060300500e-01,8.64259e-14,9.99999e-01,9.99999e-01,9.99999e-01,9.99995e-01,8.64262e-14,9.99999e-01
4.080602003e-01,1.56559e-13,9.99999e-01,9.99999e-01,9.99999e-01,9.99998e-01,1.56559e-13,9.99999e-01
4.101005013e-01,2.80295e-13,9.99999e-01,9.99999e-01,9.99999e-01,9.99999e-01,2.80295e-13,9.99999e-01
4.121510038e-01,4.96084e-13,9.99999e-01,9.99999e-01,9.99999e-01,9.99997e-01,4.96086e-13,9.99999e-01
4.142117588e-01,8.68146e-13,9.99999e-01,9.99999e-01,9.99999e-01,9.99982e-01,8.68160e-13,9.99999e-01
4.162828176e-01,1.50248e-12,9.99999e-01,9.99999e-01,9.99999e-01,9.99923e-01,1.50260e-12,9.99999e-01
4.183642317e-01,2.57252e-12,9.99999e-01,9.99999e-01,9.99999e-01,9.99954e-01,2.57264e-12,9.99999e-01
4.204560528e-01,4.35803e-12,9.99999e-01,9.99999e-01,9.99999e-01,9.99971e-01,4.35816e-12,9.99999e-01
4.225583331e-01,7.30634e-12,9.99999e-01,9.99999e-01,9.99999e-01,9.99989e-01,7.30642e-12,9.99999e-01
4.246711247e-01,1.21247e-11,9.99999e-01,9.99999e-01,9.99999e-01,9.99991e-01,1.21248e-11,9.99999e-01
4.267944804e-01,1.99202e-11,9.99999e-01,9.99999e-01,9.99999e-01,9.99987e-01,1.99204e-11,9.99999e-01
4.289284528e-01,3.24086e-11,9.99999e-01,9.99999e-01,9.99999e-01,9.99990e-01,3.24089e-11,9.99999e-01
4.310730950e-01,5.22219e-11,9.99999e-01,9.99999e-01,9.99999e-01,9.99995e-01,5.22221e-11,9.99999e-01
4.332284605e-01,8.33588e-11,9.99999e-01,9.99999e-01,9.99999e-01,9.99998e-01,8.33589e-11,9.99999e-01
4.353946028e-01,1.31837e-10,9.99999e-01,9.99999e-01,9.99999e-01,9.99999e-01,1.31837e-10,9.99999e-01
4.375715758e-01,2.06628e-10,9.99999e-01,9.99999e-01,9.99999e-01,9.99992e-01,2.06629e-10,9.99999e-01
4.397594337e-01,3.20968e-10,9.99999e-01,9.99999e-01,9.99999e-01,9.99933e-01,3.20990e-10,9.99999e-01
4.419582309e-01,4.94157e-10,9.99999e-01,9.99999e-01,9.99999e-01,9.99663e-01,4.94324e-10,9.99999e-01
4.441680220e-01,7.54592e-10,9.99999e-01,9.99999e-01,9.99999e-01,9.99733e-01,7.54793e-10,9.99999e-01
4.463888621e-01,1.14260e-09,9.99999e-01,9.99999e-01,9.99999e-01,9.99723e-01,1.14291e-09,9.99999e-01
4.486208064e-01,1.71619e-09,9.99999e-01,9.99999e-01,9.99999e-01,9.99827e-01,1.71648e-09,9.99999e-01
4.508639105e-01,2.55707e-09,9.99999e-01,9.99999e-01,9.99999e-01,9.99919e-01,2.55727e-09,9.99999e-01
4.531182300e-01,3.77991e-09,9.99999e-01,9.99999e-01,9.99999e-01,9.99967e-01,3.78003e-09,9.99999e-01
4.553838212e-01,5.54435e-09,9.99999e-01,9.99999e-01,9.99999e-01,9.99978e-01,5.54447e-09,9.99999e-01
4.576607403e-01,8.07114e-09,9.99999e-01,9.99999e-01,9.99999e-01,9.99989e-01,8.07122e-09,9.99999e-01
4.599490440e-01,1.16626e-08,9.99999e-01,9.99999e-01,9.99999e-01,9.99992e-01,1.16627e-08,9.99999e-01
4.622487892e-01,1.67301e-08,9.99999e-01,9.99999e-01,9.99999e-01,9.99998e-01,1.67301e-08,9.99999e-01
4.645600332e-01,2.38287e-08,9.99999e-01,9.99999e-01,9.99999e-01,9.99994e-01,2.38288e-08,9.99999e-01
4.668828333e-01,3.37007e-08,9.99999e-01,9.99999e-01,9.99999e-01,9.99918e-01,3.37034e-08,9.99999e-01
4.692172475e-01,4.73365e-08,9.99999e-01,9.99999e-01,9.99999e-01,9.99826e-01,4.73447e-08,9.99999e-01
4.715633337e-01,6.60547e-08,9.99999e-01,9.99999e-01,9.99999e-01,9.99886e-01,6.60621e-08,9.99999e-01
4.739211504e-01,9.15649e-08,9.99999e-01,9.99999e-01,9.99999e-01,9.99891e-01,9.15749e-08,9.99999e-01
4.762907561e-01,1.26117e-07,9.99999e-01,9.99999e-01,9.99999e-01,9.99943e-01,1.26124e-07,9.99999e-01
4.786722099e-01,1.72610e-07,9.99999e-01,9.99999e-01,9.99999e-01,9.99976e-01,1.72614e-07,9.99999e-01
4.810655710e-01,2.34777e-07,9.99999e-01,9.99999e-01,9.99999e-01,9.99992e-01,2.34779e-07,9.99999e-01
4.834708988e-01,3.17378e-07,9.99999e-01,9.99999e-01,9.99999e-01,9.99934e-01,3.17399e-07,9.99999e-01
4.858882533e-01,4.26493e-07,9.99999e-01,9.99999e-01,9.99999e-01,9.99876e-01,4.26545e-07,9.99999e-01
4.883176946e-01,5.69829e-07,9.99999e-01,9.99999e-01,9.99999e-01,9.99897e-01,5.69887e-07,9.99999e-01
4.907592831e-01,7.56985e-07,9.99999e-01,9.99999e-01,9.99999e-01,9.99906e-01,7.57055e-07,9.99999e-01
4.932130795e-01,1.00000e-06,9.99999e-01,9.99999e-01,9.99999e-01,9.99933e-01,1.00007e-06,9.99999e-01
4.956791449e-01,1.31380e-06,9.99999e-01,9.99999e-01,9.99999e-01,9.99964e-01,1.31384e-06,9.99999e-01
4.981575406e-01,1.71649e-06,9.99999e-01,9.99999e-01,9.99999e-01,9.99826e-01,1.71679e-06,9.99999e-01
5.006483283e-01,2.23049e-06,9.99999e-01,9.99999e-01,9.99999e-01,9.99552e-01,2.23150e-06,9.99996e-01
5.031515699e-01,2.87888e-06,9.99999e-01,9.99999e-01,9.99999e-01,9.97720e-01,2.88553e-06,9.99975e-01
5.056673278e-01,3.70778e-06,9.99999e-01,9.99999e-01,9.99999e-01,9.98793e-01,3.71235e-06,9.99972e-01
5.081956644e-01,4.74508e-06,9.99999e-01,9.99999e-01,9.99999e-01,9.98478e-01,4.75239e-06,9.99981e-01
5.107366428e-01,6.04795e-06,9.99999e-01,9.99999e-01,9.99999e-01,9.98971e-01,6.05420e-06,9.99996e-01
5.132903260e-01,7.67129e-06,9.99999e-01,9.99999e-01,9.99999e-01,9.99411e-01,7.67580e-06,9.99999e-01
5.158567776e-01,9.68383e-06,9.99999e-01,9.99999e-01,9.99999e-01,9.99750e-01,9.68624e-06,9.99999e-01
5.184360615e-01,1.21660e-05,9.99999e-01,9.99999e-01,9.99999e-01,9.99900e-01,1.21672e-05,9.99999e-01
5.210282418e-01,1.52144e-05,9.99999e-01,9.99999e-01,9.99999e-01,9.99962e-01,1.52150e-05,9.99999e-01
5.236333830e-01,1.89395e-05,9.99999e-01,9.99999e-01,9.99999e-01,9.99850e-01,1.89423e-05,9.99998e-01
5.262515499e-01,2.34787e-05,9.99999e-01,9.99999e-01,9.99999e-01,9.99906e-01,2.34809e-05,9.99998e-01
5.288828077e-01,2.89813e-05,9.99999e-01,9.99999e-01,9.99999e-01,9.99914e-01,2.89838e-05,9.99998e-01
5.315272217e-01,3.56251e-05,9.99999e-01,9.99999e-01,9.99999e-01,9.99924e-01,3.56278e-05,9.99999e-01
5.341848578e-01,4.36145e-05,9.99999e-01,9.99999e-01,9.99999e-01,9.99950e-01,4.36166e-05,9.99999e-01
5.368557821e-01,5.31746e-05,9.99999e-01,9.99999e-01,9.99999e-01,9.99826e-01,5.31838e-05,9.99999e-01
5.395400610e-01,6.45556e-05,9.99999e-01,9.99999e-01,9.99999e-01,9.99378e-01,6.45961e-05,9.99994e-01
5.422377613e-01,7.80920e-05,9.99999e-01,9.99999e-01,9.99999e-01,9.99189e-01,7.81565e-05,9.99984e-01
5.449489501e-01,9.41362e-05,9.99999e-01,9.99999e-01,9.99999e-01,9.99249e-01,9.42083e-05,9.99984e-01
5.476736949e-01,1.13062e-04,9.99999e-01,9.99999e-01,9.99999e-01,9.99332e-01,1.13139e-04,9.99992e-01
5.504120634e-01,1.35316e-04,9.99999e-01,9.99999e-01,9.99999e-01,9.99515e-01,1.35382e-04,9.99997e-01
5.531641237e-01,1.61386e-04,9.99999e-01,9.99999e-01,9.99999e-01,9.99755e-01,1.61426e-04,9.99999e-01
5.559299443e-01,1.91789e-04,9.99999e-01,9.99999e-01,9.99999e-01,9.99881e-01,1.91812e-04,9.99999e-01
5.587095940e-01,2.27125e-04,9.99999e-01,9.99999e-01,9.99999e-01,9.99926e-01,2.27142e-04,9.99999e-01
5.615031420e-01,2.68061e-04,9.99999e-01,9.99999e-01,9.99999e-01,9.99917e-01,2.68083e-04,9.99999e-01
5.643106577e-01,3.15340e-04,9.99999e-01,9.99999e-01,9.99999e-01,9.99907e-01,3.15370e-04,9.99998e-01
5.671322110e-01,3.69392e-04,9.99999e-01,9.99999e-01,9.99999e-01,9.98884e-01,3.69809e-04,9.99989e-01
5.699678720e-01,4.31748e-04,9.99999e-01,9.99999e-01,9.99999e-01,9.98792e-01,4.32283e-04,9.99968e-01
5.728177114e-01,5.03114e-04,9.99999e-01,9.99999e-01,9.99999e-01,9.98750e-01,5.03755e-04,9.99973e-01
5.756818000e-01,5.84593e-04,9.99999e-01,9.99999e-01,9.99999e-01,9.98852e-01,5.85274e-04,9.99983e-01
5.785602090e-01,6.77290e-04,9.99999e-01,9.99999e-01,9.99999e-01,9.98998e-01,6.77972e-04,9.99994e-01
5.814530100e-01,7.82287e-04,9.99999e-01,9.99999e-01,9.99999e-01,9.98995e-01,7.83075e-04,9.99997e-01
5.843602750e-01,9.00820e-04,9.99999e-01,9.99999e-01,9.99999e-01,9.98808e-01,9.01900e-04,9.99992e-01
5.872820764e-01,1.02519e-03,9.99999e-01,9.99999e-01,9.99999e-01,9.89772e-01,1.03586e-03,9.99927e-01
5.902184868e-01,1.17145e-03,9.99999e-01,9.99999e-01,9.99999e-01,9.87536e-01,1.18647e-03,9.99802e-01
5.931695792e-01,1.34316e-03,9.99999e-01,9.99999e-01,9.99999e-01,9.91203e-01,1.35534e-03,9.99807e-01
5.961354271e-01,1.52909e-03,9.99999e-01,9.99999e-01,9.99999e-01,9.90343e-01,1.54417e-03,9.99883e-01
5.991161043e-01,1.74235e-03,9.99999e-01,9.99999e-01,9.99999e-01,9.92942e-01,1.75480e-03,9.99965e-01
6.021116848e-01,1.98113e-03,9.99999e-01,9.99999e-01,9.99999e-01,9.95986e-01,1.98912e-03,9.99995e-01
6.051222432e-01,2.24458e-03,9.99999e-01,9.99999e-01,9.99999e-01,9.97967e-01,2.24915e-03,9.99999e-01
6.081478544e-01,2.53479e-03,9.99999e-01,9.99999e-01,9.99999e-01,9.99123e-01,2.53701e-03,9.99999e-01
6.111885937e-01,2.85386e-03,9.99999e-01,9.99999e-01,9.99999e-01,9.99628e-01,2.85492e-03,9.99999e-01
6.142445367e-01,3.20464e-03,9.99999e-01,9.99999e-01,9.99999e-01,9.99833e-01,3.20517e-03,9.99999e-01
6.173157594e-01,3.58986e-03,9.99999e-01,9.99999e-01,9.99999e-01,9.99908e-01,3.59019e-03,9.99999e-01
6.204023382e-01,4.01214e-03,9.99999e-01,9.99999e-01,9.99999e-01,9.99922e-01,4.01245e-03,9.99999e-01
6.235043498e-01,4.47303e-03,9.99999e-01,9.99999e-01,9.99999e-01,9.99663e-01,4.47454e-03,9.99998e-01
6.266218716e-01,4.97010e-03,9.99999e-01,9.99999e-01,9.99999e-01,9.98201e-01,4.97911e-03,9.99986e-01
6.297549810e-01,5.52512e-03,9.99999e-01,9.99999e-01,9.99999e-01,9.99340e-01,5.52890e-03,9.99974e-01
6.329037559e-01,6.11859e-03,9.99999e-01,9.99999e-01,9.99999e-01,9.98693e-01,6.12671e-03,9.99979e-01
6.360682746e-01,6.76781e-03,9.99999e-01,9.99999e-01,9.99999e-01,9.98890e-01,6.77540e-03,9.99987e-01
6.392486160e-01,7.46710e-03,9.99999e-01,9.99999e-01,9.99999e-01,9.98560e-01,7.47790e-03,9.99994e-01
6.424448591e-01,8.22132e-03,9.99999e-01,9.99999e-01,9.99999e-01,9.98084e-01,8.23716e-03,9.99991e-01
6.456570834e-01,8.97545e-03,9.99999e-01,9.99999e-01,9.99999e-01,9.91132e-01,9.05620e-03,9.99950e-01
6.488853688e-01,9.87169e-03,9.99999e-01,9.99999e-01,9.99999e-01,9.93458e-01,9.93806e-03,9.99860e-01
6.521297956e-01,1.08120e-02,9.99999e-01,9.99999e-01,9.99999e-01,9.93333e-01,1.08858e-02,9.99883e-01
6.553904446e-01,1.18230e-02,9.99999e-01,9.99999e-01,9.99999e-01,9.93407e-01,1.19025e-02,9.99912e-01
6.586673968e-01,1.29169e-02,9.99999e-01,9.99999e-01,9.99999e-01,9.94311e-01,1.29911e-02,9.99971e-01
6.619607338e-01,1.41082e-02,9.99999e-01,9.99999e-01,9.99999e-01,9.96707e-01,1.41549e-02,9.99993e-01
6.652705375e-01,1.53674e-02,9.99999e-01,9.99999e-01,9.99999e-01,9.98089e-01,1.53968e-02,9.99996e-01
6.685968902e-01,1.67051e-02,9.99999e-01,9.99999e-01,9.99999e-01,9.99112e-01,1.67199e-02,9.99998e-01
6.719398746e-01,1.81197e-02,9.99999e-01,9.99999e-01,9.99999e-01,9.99588e-01,1.81272e-02,9.99999e-01
6.752995740e-01,1.96171e-02,9.99999e-01,9.99999e-01,9.99999e-01,9.99777e-01,1.96215e-02,9.99999e-01
6.786760719e-01,2.11990e-02,9.99999e-01,9.99999e-01,9.99999e-01,9.99680e-01,2.12058e-02,9.99999e-01
6.820694522e-01,2.28703e-02,9.99999e-01,9.99999e-01,9.99999e-01,9.99451e-01,2.28829e-02,9.99996e-01
6.854797995e-01,2.46380e-02,9.99999e-01,9.99999e-01,9.99999e-01,9.99293e-01,2.46556e-02,9.99993e-01
6.889071985e-01,2.64811e-02,9.99999e-01,9.99999e-01,9.99999e-01,9.98305e-01,2.65264e-02,9.99984e-01
6.923517345e-01,2.77108e-02,9.99999e-01,9.99999e-01,9.99999e-01,9.72503e-01,2.84981e-02,9.99865e-01
6.958134932e-01,3.01186e-02,9.99999e-01,9.99999e-01,9.99999e-01,9.85439e-01,3.05729e-02,9.99697e-01
6.992925606e-01,3.22963e-02,9.99999e-01,9.99999e-01,9.99999e-01,9.86309e-01,3.27533e-02,9.99733e-01
7.027890234e-01,3.44401e-02,9.99999e-01,9.99999e-01,9.99999e-01,9.83039e-01,3.50415e-02,9.99795e-01
7.063029686e-01,3.69013e-02,9.99999e-01,9.99999e-01,9.99999e-01,9.85724e-01,3.74395e-02,9.99897e-01
7.098344834e-01,3.93997e-02,9.99999e-01,9.99999e-01,9.99999e-01,9.86296e-01,3.99494e-02,9.99939e-01
7.133836558e-01,4.17992e-02,9.99999e-01,9.99999e-01,9.99999e-01,9.81941e-01,4.25730e-02,9.99880e-01
7.169505741e-01,3.91288e-02,9.99999e-01,9.99999e-01,9.99999e-01,8.64355e-01,4.53119e-02,9.99059e-01
7.205353270e-01,4.47313e-02,9.99999e-01,9.99999e-01,9.99999e-01,9.30200e-01,4.81676e-02,9.98342e-01
7.241380036e-01,4.66165e-02,9.99999e-01,9.99999e-01,9.99999e-01,9.12824e-01,5.11416e-02,9.98568e-01
7.277586936e-01,4.98900e-02,9.99999e-01,9.99999e-01,9.99999e-01,9.20963e-01,5.42349e-02,9.98829e-01
7.313974871e-01,5.25733e-02,9.99999e-01,9.99999e-01,9.99999e-01,9.15635e-01,5.74487e-02,9.99451e-01
7.350544745e-01,5.79153e-02,9.99999e-01,9.99999e-01,9.99999e-01,9.52990e-01,6.07838e-02,9.99809e-01
7.387297469e-01,6.19954e-02,9.99999e-01,9.99999e-01,9.99999e-01,9.65130e-01,6.42408e-02,9.99912e-01
7.424233956e-01,6.66495e-02,9.99999e-01,9.99999e-01,9.99999e-01,9.82754e-01,6.78203e-02,9.99982e-01
7.461355126e-01,7.07731e-02,9.99999e-01,9.99999e-01,9.99999e-01,9.89523e-01,7.15225e-02,9.99996e-01
7.498661902e-01,7.49787e-02,9.99999e-01,9.99999e-01,9.99999e-01,9.95101e-01,7.53478e-02,9.99998e-01
7.536155211e-01,7.91056e-02,9.99999e-01,9.99999e-01,9.99999e-01,9.97598e-01,7.92960e-02,9.99998e-01
7.573835987e-01,8.32638e-02,9.99999e-01,9.99999e-01,9.99999e-01,9.98762e-01,8.33669e-02,9.99999e-01
7.611705167e-01,8.74929e-02,9.99999e-01,9.99999e-01,9.99999e-01,9.99231e-01,8.75602e-02,9.99999e-01
7.649763693e-01,9.18311e-02,9.99999e-01,9.99999e-01,9.99999e-01,9.99518e-01,9.18753e-02,9.99999e-01
7.688012511e-01,9.62793e-02,9.99999e-01,9.99999e-01,9.99999e-01,9.99664e-01,9.63115e-02,9.99999e-01
7.726452574e-01,1.00840e-01,9.99999e-01,9.99999e-01,9.99999e-01,9.99724e-01,1.00868e-01,9.99999e-01
7.765084837e-01,1.05502e-01,9.99999e-01,9.99999e-01,9.99999e-01,9.99610e-01,1.05543e-01,9.99999e-01
7.803910261e-01,1.01049e-01,9.99999e-01,9.99999e-01,9.17243e-01,9.98318e-01,1.10337e-01,9.99997e-01
7.842929812e-01,7.42173e-02,9.99999e-01,9.99999e-01,6.47331e-01,9.94142e-01,1.15247e-01,9.99988e-01
7.882144461e-01,7.52678e-02,9.99999e-01,9.99999e-01,6.32765e-01,9.87901e-01,1.20272e-01,9.99925e-01
7.921555184e-01,9.40986e-02,9.99999e-01,9.99999e-01,7.55150e-01,9.93329e-01,1.25410e-01,9.99855e-01
7.961162960e-01,1.06716e-01,9.99999e-01,9.99999e-01,8.26242e-01,9.88319e-01,1.30660e-01,9.99861e-01
8.000968774e-01,1.20978e-01,9.99999e-01,9.99999e-01,9.01647e-01,9.86463e-01,1.36020e-01,9.99852e-01
8.040973618e-01,1.32249e-01,9.99999e-01,9.99999e-01,9.47563e-01,9.86474e-01,1.41487e-01,9.99883e-01
8.081178486e-01,1.39162e-01,9.99999e-01,9.99999e-01,9.75619e-01,9.69932e-01,1.47059e-01,9.99890e-01
8.121584379e-01,1.33488e-01,9.99999e-01,9.99999e-01,9.92367e-01,8.80890e-01,1.52734e-01,9.99570e-01
8.162192301e-01,1.35824e-01,9.99999e-01,9.99999e-01,9.98309e-01,8.59641e-01,1.58509e-01,9.98387e-01
8.203003262e-01,1.52444e-01,9.99999e-01,9.99999e-01,9.99972e-01,9.29145e-01,1.64382e-01,9.98111e-01
8.244018279e-01,1.53374e-01,9.99999e-01,9.99999e-01,9.99999e-01,9.01695e-01,1.70351e-01,9.98496e-01
8.285238370e-01,1.61000e-01,9.99999e-01,9.99999e-01,9.99999e-01,9.13717e-01,1.76412e-01,9.98819e-01
8.326664562e-01,1.66547e-01,9.99999e-01,9.99999e-01,9.99999e-01,9.12720e-01,1.82562e-01,9.99511e-01
8.368297885e-01,1.76799e-01,9.99999e-01,9.99999e-01,9.99999e-01,9.36547e-01,1.88799e-01,9.99887e-01
8.410139374e-01,1.87645e-01,9.99999e-01,9.99999e-01,9.99999e-01,9.61758e-01,1.95119e-01,9.99934e-01
8.452190071e-01,1.97692e-01,9.99999e-01,9.99999e-01,9.99999e-01,9.81039e-01,2.01520e-01,9.99960e-01
8.494451021e-01,2.05700e-01,9.99999e-01,9.99999e-01,9.99999e-01,9.88978e-01,2.07998e-01,9.99968e-01
8.536923276e-01,2.13142e-01,9.99999e-01,9.99999e-01,9.99999e-01,9.93455e-01,2.14551e-01,9.99978e-01
8.579607893e-01,2.20282e-01,9.99999e-01,9.99999e-01,9.99999e-01,9.95972e-01,2.21174e-01,9.99993e-01
8.622505932e-01,2.27280e-01,9.99999e-01,9.99999e-01,9.99999e-01,9.97436e-01,2.27865e-01,9.99998e-01
8.665618462e-01,2.04524e-01,9.99999e-01,9.99999e-01,8.73022e-01,9.98417e-01,2.34620e-01,9.99999e-01
8.708946554e-01,8.30017e-02,9.99999e-01,9.99999e-01,3.44356e-01,9.98190e-01,2.41435e-01,9.99998e-01
8.752491287e-01,1.01749e-01,9.99999e-01,9.99999e-01,4.10694e-01,9.97578e-01,2.48309e-01,9.99996e-01
8.796253743e-01,1.54120e-01,9.99999e-01,9.99999e-01,6.05706e-01,9.96654e-01,2.55236e-01,9.99992e-01
8.840235012e-01,2.00519e-01,9.99999e-01,9.99999e-01,7.67537e-01,9.96176e-01,2.62215e-01,9.99976e-01
8.884436187e-01,2.39112e-01,9.99999e-01,9.99999e-01,9.00146e-01,9.86301e-01,2.69240e-01,9.99933e-01
8.928858368e-01,2.29133e-01,9.99999e-01,9.99999e-01,9.58244e-01,8.64785e-01,2.76310e-01,9.99616e-01
8.973502660e-01,2.16512e-01,9.99999e-01,9.99999e-01,9.89652e-01,7.72961e-01,2.83420e-01,9.98038e-01
9.018370173e-01,2.53585e-01,9.99999e-01,9.99999e-01,9.98852e-01,8.76342e-01,2.90567e-01,9.96917e-01
9.063462024e-01,2.57831e-01,9.99999e-01,9.99999e-01,9.72021e-01,8.90988e-01,2.97747e-01,9.97291e-01
9.108779334e-01,2.37966e-01,9.99999e-01,9.99999e-01,9.35089e-01,8.34905e-01,3.04958e-01,9.97185e-01
9.154323231e-01,2.49784e-01,9.99999e-01,9.99999e-01,9.84275e-01,8.13975e-01,3.12197e-01,9.97673e-01
9.200094847e-01,2.27126e-01,9.99999e-01,9.99999e-01,8.19280e-01,8.51298e-01,3.19459e-01,9.98696e-01
9.246095321e-01,1.87335e-01,9.99999e-01,9.99999e-01,7.21595e-01,7.85235e-01,3.26741e-01,9.98498e-01
9.292325798e-01,5.86084e-02,9.99999e-01,9.99999e-01,7.78882e-01,2.15023e-01,3.34041e-01,9.94159e-01
9.338787427e-01,3.71660e-02,9.99999e-01,9.99999e-01,7.82201e-01,1.35685e-01,3.41354e-01,9.76075e-01
9.385481364e-01,1.28253e-01,9.99999e-01,9.99999e-01,8.33660e-01,4.43259e-01,3.48679e-01,9.71610e-01
9.432408771e-01,1.06399e-01,9.99999e-01,9.99999e-01,8.93876e-01,3.38100e-01,3.56011e-01,9.75459e-01
9.479570815e-01,7.55294e-02,9.99999e-01,9.99999e-01,9.44107e-01,2.23158e-01,3.63349e-01,9.79981e-01
9.526968669e-01,1.11870e-01,9.99999e-01,9.99999e-01,9.72644e-01,3.12533e-01,3.70688e-01,9.87741e-01
9.574603512e-01,1.22875e-01,9.99999e-01,9.99999e-01,9.88195e-01,3.30341e-01,3.78026e-01,9.93754e-01
9.622476530e-01,1.52797e-01,9.99999e-01,9.99999e-01,9.96300e-01,3.99471e-01,3.85360e-01,9.95676e-01
9.670588912e-01,2.29502e-01,9.99999e-01,9.99999e-01,9.98888e-01,5.86736e-01,3.92687e-01,9.97041e-01
9.718941857e-01,2.83822e-01,9.99999e-01,9.99999e-01,9.99920e-01,7.11141e-01,4.00005e-01,9.97820e-01
9.767536566e-01,3.06298e-01,9.99999e-01,9.99999e-01,9.99999e-01,7.53256e-01,4.07310e-01,9.98334e-01
9.816374249e-01,3.35463e-01,9.99999e-01,9.99999e-01,9.99999e-01,8.09588e-01,4.14601e-01,9.99422e-01
9.865456120e-01,3.69530e-01,9.99999e-01,9.99999e-01,9.99999e-01,8.76029e-01,4.21874e-01,9.99879e-01
9.914783401e-01,3.95355e-01,9.99999e-01,9.99999e-01,9.99999e-01,9.21329e-01,4.29128e-01,9.99966e-01
9.964357318e-01,4.17303e-01,9.99999e-01,9.99999e-01,9.99999e-01,9.56346e-01,4.36359e-01,9.99980e-01
1.001417910e+00,4.31838e-01,9.99999e-01,9.99999e-01,9.99999e-01,9.73588e-01,4.43566e-01,9.99969e-01
1.006425000e+00,4.43909e-01,9.99999e-01,9.99999e-01,9.99999e-01,9.84874e-01,4.50745e-01,9.99957e-01
1.011457125e+00,4.53561e-01,9.99999e-01,9.99999e-01,9.99999e-01,9.90571e-01,4.57896e-01,9.99960e-01
1.016514411e+00,4.62025e-01,9.99999e-01,9.99999e-01,9.99999e-01,9.93595e-01,4.65016e-01,9.99971e-01
1.021596983e+00,4.69613e-01,9.99999e-01,9.99999e-01,9.99855e-01,9.94895e-01,4.72102e-01,9.99971e-01
1.026704968e+00,4.71940e-01,9.99999e-01,9.99999e-01,9.88886e-01,9.96018e-01,4.79153e-01,9.99980e-01
1.031838492e+00,4.41232e-01,9.99999e-01,9.99999e-01,9.10078e-01,9.97101e-01,4.86168e-01,9.99994e-01
1.036997685e+00,2.63897e-02,9.99999e-01,9.99999e-01,5.35829e-02,9.98279e-01,4.93143e-01,9.99998e-01
1.042182673e+00,1.99415e-03,9.99999e-01,9.99999e-01,3.99397e-03,9.97953e-01,5.00078e-01,9.99999e-01
1.047393587e+00,5.14574e-03,9.99999e-01,9.99999e-01,1.01730e-02,9.97284e-01,5.06970e-01,9.99999e-01
1.052630555e+00,7.68626e-07,9.99999e-01,9.99999e-01,1.49945e-06,9.96277e-01,5.13818e-01,9.99998e-01
1.057893707e+00,2.85216e-06,9.99999e-01,9.99999e-01,5.49612e-06,9.93798e-01,5.20621e-01,9.99997e-01
1.063183176e+00,6.65583e-05,9.99999e-01,9.99999e-01,1.26958e-04,9.89808e-01,5.27377e-01,9.99994e-01
1.068499092e+00,6.35193e-04,9.99999e-01,9.99999e-01,1.20307e-03,9.82979e-01,5.34084e-01,9.99987e-01
1.073841587e+00,6.99989e-03,9.99999e-01,9.99999e-01,1.31342e-02,9.80148e-01,5.40742e-01,9.99974e-01
