#,Wave/freq,Total,N2,O2,CO2,H2O,Rayleigh,CIA
4.000000000e-01,2.08893e-04,9.99999e-01,9.99999e-01,9.99999e-01,9.99983e-01,2.08896e-04,9.99999e-01
4.020000000e-01,2.46997e-04,9.99999e-01,9.99999e-01,9.99999e-01,9.99989e-01,2.46999e-04,9.99999e-01
4.040100000e-01,2.91036e-04,9.99999e-01,9.99999e-01,9.99999e-01,9.99995e-01,2.91037e-04,9.99999e-01
4.060300500e-01,3.41817e-04,9.99999e-01,9.99999e-01,9.99999e-01,9.99998e-01,3.41817e-04,9.99999e-01
4.080602003e-01,4.00184e-04,9.99999e-01,9.99999e-01,9.99999e-01,9.99999e-01,4.00185e-04,9.99999e-01
4.101005013e-01,4.67062e-04,9.99999e-01,9.99999e-01,9.99999e-01,9.99999e-01,4.67062e-04,9.99999e-01
4.121510038e-01,5.43453e-04,9.99999e-01,9.99999e-01,9.99999e-01,9.99998e-01,5.43453e-04,9.99999e-01
4.142117588e-01,6.30447e-04,9.99999e-01,9.99999e-01,9.99999e-01,9.99995e-01,6.30450e-04,9.99999e-01
4.162828176e-01,7.29217e-04,9.99999e-01,9.99999e-01,9.99999e-01,9.99979e-01,7.29232e-04,9.99999e-01
4.183642317e-01,8.41059e-04,9.99999e-01,9.99999e-01,9.99999e-01,9.99987e-01,8.41069e-04,9.99999e-01
4.204560528e-01,9.67322e-04,9.99999e-01,9.99999e-01,9.99999e-01,9.99992e-01,9.67329e-04,9.99999e-01
4.225583331e-01,1.10947e-03,9.99999e-01,9.99999e-01,9.99999e-01,9.99996e-01,1.10947e-03,9.99999e-01
4.246711247e-01,1.26906e-03,9.99999e-01,9.99999e-01,9.99999e-01,9.99997e-01,1.26906e-03,9.99999e-01
4.267944804e-01,1.44775e-03,9.99999e-01,9.99999e-01,9.99999e-01,9.99996e-01,1.44776e-03,9.99999e-01
4.289284528e-01,1.64732e-03,9.99999e-01,9.99999e-01,9.99999e-01,9.99997e-01,1.64733e-03,9.99999e-01
4.310730950e-01,1.86962e-03,9.99999e-01,9.99999e-01,9.99999e-01,9.99998e-01,1.86963e-03,9.99999e-01
4.332284605e-01,2.11663e-03,9.99999e-01,9.99999e-01,9.99999e-01,9.99999e-01,2.11663e-03,9.99999e-01
4.353946028e-01,2.39039e-03,9.99999e-01,9.99999e-01,9.99999e-01,9.99999e-01,2.39039e-03,9.99999e-01
4.375715758e-01,2.69309e-03,9.99999e-01,9.99999e-01,9.99999e-01,9.99997e-01,2.69309e-03,9.99999e-01
4.397594337e-01,3.02693e-03,9.99999e-01,9.99999e-01,9.99999e-01,9.99981e-01,3.02698e-03,9.99999e-01
4.419582309e-01,3.39412e-03,9.99999e-01,9.99999e-01,9.99999e-01,9.99909e-01,3.39443e-03,9.99999e-01
4.441680220e-01,3.79760e-03,9.99999e-01,9.99999e-01,9.99999e-01,9.99929e-01,3.79787e-03,9.99999e-01
4.463888621e-01,4.23954e-03,9.99999e-01,9.99999e-01,9.99999e-01,9.99926e-01,4.23985e-03,9.99999e-01
4.486208064e-01,4.72276e-03,9.99999e-01,9.99999e-01,9.99999e-01,9.99954e-01,4.72298e-03,9.99999e-01
4.508639105e-01,5.24985e-03,9.99999e-01,9.99999e-01,9.99999e-01,9.99978e-01,5.24996e-03,9.99999e-01
4.531182300e-01,5.82351e-03,9.99999e-01,9.99999e-01,9.99999e-01,9.99991e-01,5.82356e-03,9.99999e-01
4.553838212e-01,6.44657e-03,9.99999e-01,9.99999e-01,9.99999e-01,9.99993e-01,6.44661e-03,9.99999e-01
4.576607403e-01,7.12199e-03,9.99999e-01,9.99999e-01,9.99999e-01,9.99996e-01,7.12201e-03,9.99999e-01
4.599490440e-01,7.85268e-03,9.99999e-01,9.99999e-01,9.99999e-01,9.99997e-01,7.85270e-03,9.99999e-01
4.622487892e-01,8.64166e-03,9.99999e-01,9.99999e-01,9.99999e-01,9.99999e-01,8.64167e-03,9.99999e-01
4.645600332e-01,9.49192e-03,9.99999e-01,9.99999e-01,9.99999e-01,9.99998e-01,9.49194e-03,9.99999e-01
4.668828333e-01,1.04063e-02,9.99999e-01,9.99999e-01,9.99999e-01,9.99977e-01,1.04066e-02,9.99999e-01
4.692172475e-01,1.13881e-02,9.99999e-01,9.99999e-01,9.99999e-01,9.99953e-01,1.13886e-02,9.99999e-01
4.715633337e-01,1.24408e-02,9.99999e-01,9.99999e-01,9.99999e-01,9.99969e-01,1.24411e-02,9.99999e-01
4.739211504e-01,1.35668e-02,9.99999e-01,9.99999e-01,9.99999e-01,9.99970e-01,1.35672e-02,9.99999e-01
4.762907561e-01,1.47697e-02,9.99999e-01,9.99999e-01,9.99999e-01,9.99984e-01,1.47699e-02,9.99999e-01
4.786722099e-01,1.60522e-02,9.99999e-01,9.99999e-01,9.99999e-01,9.99993e-01,1.60523e-02,9.99999e-01
4.810655710e-01,1.74174e-02,9.99999e-01,9.99999e-01,9.99999e-01,9.99997e-01,1.74174e-02,9.99999e-01
4.834708988e-01,1.88678e-02,9.99999e-01,9.99999e-01,9.99999e-01,9.99981e-01,1.88681e-02,9.99999e-01
4.858882533e-01,2.04067e-02,9.99999e-01,9.99999e-01,9.99999e-01,9.99967e-01,2.04074e-02,9.99999e-01
4.883176946e-01,2.20374e-02,9.99999e-01,9.99999e-01,9.99999e-01,9.99972e-01,2.20380e-02,9.99999e-01
4.907592831e-01,2.37623e-02,9.99999e-01,9.99999e-01,9.99999e-01,9.99974e-01,2.37629e-02,9.99999e-01
4.932130795e-01,2.55842e-02,9.99999e-01,9.99999e-01,9.99999e-01,9.99982e-01,2.55846e-02,9.99999e-01
4.956791449e-01,2.75056e-02,9.99999e-01,9.99999e-01,9.99999e-01,9.99990e-01,2.75059e-02,9.99999e-01
4.981575406e-01,2.95278e-02,9.99999e-01,9.99999e-01,9.99999e-01,9.99953e-01,2.95291e-02,9.99999e-01
5.006483283e-01,3.16530e-02,9.99999e-01,9.99999e-01,9.99999e-01,9.99879e-01,3.16568e-02,9.99998e-01
5.031515699e-01,3.38704e-02,9.99999e-01,9.99999e-01,9.99999e-01,9.99392e-01,3.38912e-02,9.99993e-01
5.056673278e-01,3.62225e-02,9.99999e-01,9.99999e-01,9.99999e-01,9.99679e-01,3.62344e-02,9.99992e-01
5.081956644e-01,3.86727e-02,9.99999e-01,9.99999e-01,9.99999e-01,9.99596e-01,3.86885e-02,9.99995e-01
5.107366428e-01,4.12441e-02,9.99999e-01,9.99999e-01,9.99999e-01,9.99727e-01,4.12554e-02,9.99998e-01
5.132903260e-01,4.39299e-02,9.99999e-01,9.99999e-01,9.99999e-01,9.99844e-01,4.39368e-02,9.99999e-01
5.158567776e-01,4.67312e-02,9.99999e-01,9.99999e-01,9.99999e-01,9.99933e-01,4.67343e-02,9.99999e-01
5.184360615e-01,4.96481e-02,9.99999e-01,9.99999e-01,9.99999e-01,9.99973e-01,4.96494e-02,9.99999e-01
5.210282418e-01,5.26827e-02,9.99999e-01,9.99999e-01,9.99999e-01,9.99989e-01,5.26833e-02,9.99999e-01
5.236333830e-01,5.58349e-02,9.99999e-01,9.99999e-01,9.99999e-01,9.99960e-01,5.58371e-02,9.99999e-01
5.262515499e-01,5.91103e-02,9.99999e-01,9.99999e-01,9.99999e-01,9.99974e-01,5.91118e-02,9.99999e-01
5.288828077e-01,6.25067e-02,9.99999e-01,9.99999e-01,9.99999e-01,9.99976e-01,6.25081e-02,9.99999e-01
5.315272217e-01,6.60254e-02,9.99999e-01,9.99999e-01,9.99999e-01,9.99979e-01,6.60267e-02,9.99999e-01
5.341848578e-01,6.96671e-02,9.99999e-01,9.99999e-01,9.99999e-01,9.99986e-01,6.96680e-02,9.99999e-01
5.368557821e-01,7.34288e-02,9.99999e-01,9.99999e-01,9.99999e-01,9.99953e-01,7.34321e-02,9.99999e-01
5.395400610e-01,7.73063e-02,9.99999e-01,9.99999e-01,9.99999e-01,9.99832e-01,7.73193e-02,9.99998e-01
5.422377613e-01,8.13115e-02,9.99999e-01,9.99999e-01,9.99999e-01,9.99785e-01,8.13293e-02,9.99995e-01
5.449489501e-01,8.54444e-02,9.99999e-01,9.99999e-01,9.99999e-01,9.99799e-01,8.54618e-02,9.99995e-01
5.476736949e-01,8.97005e-02,9.99999e-01,9.99999e-01,9.99999e-01,9.99823e-01,8.97165e-02,9.99997e-01
5.504120634e-01,9.40805e-02,9.99999e-01,9.99999e-01,9.99999e-01,9.99871e-01,9.40926e-02,9.99998e-01
5.531641237e-01,9.85831e-02,9.99999e-01,9.99999e-01,9.99999e-01,9.99935e-01,9.85895e-02,9.99999e-01
5.559299443e-01,1.03203e-01,9.99999e-01,9.99999e-01,9.99999e-01,9.99968e-01,1.03206e-01,9.99999e-01
5.587095940e-01,1.07939e-01,9.99999e-01,9.99999e-01,9.99999e-01,9.99979e-01,1.07941e-01,9.99999e-01
5.615031420e-01,1.12791e-01,9.99999e-01,9.99999e-01,9.99999e-01,9.99977e-01,1.12793e-01,9.99999e-01
5.643106577e-01,1.17759e-01,9.99999e-01,9.99999e-01,9.99999e-01,9.99974e-01,1.17761e-01,9.99999e-01
5.671322110e-01,1.22806e-01,9.99999e-01,9.99999e-01,9.99999e-01,9.99698e-01,1.22844e-01,9.99996e-01
5.699678720e-01,1.27997e-01,9.99999e-01,9.99999e-01,9.99999e-01,9.99681e-01,1.28039e-01,9.99991e-01
5.728177114e-01,1.33299e-01,9.99999e-01,9.99999e-01,9.99999e-01,9.99667e-01,1.33344e-01,9.99992e-01
5.756818000e-01,1.38715e-01,9.99999e-01,9.99999e-01,9.99999e-01,9.99694e-01,1.38758e-01,9.99995e-01
5.785602090e-01,1.44239e-01,9.99999e-01,9.99999e-01,9.99999e-01,9.99734e-01,1.44278e-01,9.99998e-01
5.814530100e-01,1.49862e-01,9.99999e-01,9.99999e-01,9.99999e-01,9.99732e-01,1.49902e-01,9.99998e-01
5.843602750e-01,1.55578e-01,9.99999e-01,9.99999e-01,9.99999e-01,9.99680e-01,1.55628e-01,9.99997e-01
5.872820764e-01,1.61006e-01,9.99999e-01,9.99999e-01,9.99999e-01,9.97252e-01,1.61453e-01,9.99980e-01
5.902184868e-01,1.66810e-01,9.99999e-01,9.99999e-01,9.99999e-01,9.96681e-01,1.67374e-01,9.99947e-01
5.931695792e-01,1.72974e-01,9.99999e-01,9.99999e-01,9.99999e-01,9.97652e-01,1.73389e-01,9.99949e-01
5.961354271e-01,1.79029e-01,9.99999e-01,9.99999e-01,9.99999e-01,9.97428e-01,1.79496e-01,9.99970e-01
5.991161043e-01,1.85340e-01,9.99999e-01,9.99999e-01,9.99999e-01,9.98125e-01,1.85690e-01,9.99990e-01
6.021116848e-01,1.91765e-01,9.99999e-01,9.99999e-01,9.99999e-01,9.98936e-01,1.91969e-01,9.99998e-01
6.051222432e-01,1.98224e-01,9.99999e-01,9.99999e-01,9.99999e-01,9.99461e-01,1.98330e-01,9.99999e-01
6.081478544e-01,2.04723e-01,9.99999e-01,9.99999e-01,9.99999e-01,9.99767e-01,2.04771e-01,9.99999e-01
6.111885937e-01,2.11266e-01,9.99999e-01,9.99999e-01,9.99999e-01,9.99901e-01,2.11286e-01,9.99999e-01
6.142445367e-01,2.17865e-01,9.99999e-01,9.99999e-01,9.99999e-01,9.99955e-01,2.17875e-01,9.99999e-01
6.173157594e-01,2.24527e-01,9.99999e-01,9.99999e-01,9.99999e-01,9.99975e-01,2.24532e-01,9.99999e-01
6.204023382e-01,2.31251e-01,9.99999e-01,9.99999e-01,9.99999e-01,9.99979e-01,2.31256e-01,9.99999e-01
6.235043498e-01,2.38020e-01,9.99999e-01,9.99999e-01,9.99999e-01,9.99908e-01,2.38042e-01,9.99999e-01
6.266218716e-01,2.44770e-01,9.99999e-01,9.99999e-01,9.99999e-01,9.99521e-01,2.44887e-01,9.99996e-01
6.297549810e-01,2.51743e-01,9.99999e-01,9.99999e-01,9.99999e-01,9.99824e-01,2.51788e-01,9.99992e-01
6.329037559e-01,2.58651e-01,9.99999e-01,9.99999e-01,9.99999e-01,9.99653e-01,2.58742e-01,9.99994e-01
6.360682746e-01,2.65665e-01,9.99999e-01,9.99999e-01,9.99999e-01,9.99704e-01,2.65744e-01,9.99996e-01
6.392486160e-01,2.72688e-01,9.99999e-01,9.99999e-01,9.99999e-01,9.99617e-01,2.72792e-01,9.99998e-01
6.424448591e-01,2.79739e-01,9.99999e-01,9.99999e-01,9.99999e-01,9.99486e-01,2.79883e-01,9.99997e-01
6.456570834e-01,2.86325e-01,9.99999e-01,9.99999e-01,9.99999e-01,9.97619e-01,2.87012e-01,9.99986e-01
6.488853688e-01,2.93654e-01,9.99999e-01,9.99999e-01,9.99999e-01,9.98262e-01,2.94176e-01,9.99962e-01
6.521297956e-01,3.00830e-01,9.99999e-01,9.99999e-01,9.99999e-01,9.98228e-01,3.01373e-01,9.99969e-01
6.553904446e-01,3.08046e-01,9.99999e-01,9.99999e-01,9.99999e-01,9.98235e-01,3.08598e-01,9.99976e-01
6.586673968e-01,3.15369e-01,9.99999e-01,9.99999e-01,9.99999e-01,9.98489e-01,3.15848e-01,9.99991e-01
6.619607338e-01,3.22849e-01,9.99999e-01,9.99999e-01,9.99999e-01,9.99158e-01,3.23121e-01,9.99997e-01
6.652705375e-01,3.30245e-01,9.99999e-01,9.99999e-01,9.99999e-01,9.99494e-01,3.30412e-01,9.99998e-01
6.685968902e-01,3.37640e-01,9.99999e-01,9.99999e-01,9.99999e-01,9.99765e-01,3.37719e-01,9.99999e-01
6.719398746e-01,3.45002e-01,9.99999e-01,9.99999e-01,9.99999e-01,9.99891e-01,3.45039e-01,9.99999e-01
6.752995740e-01,3.52347e-01,9.99999e-01,9.99999e-01,9.99999e-01,9.99940e-01,3.52368e-01,9.99999e-01
6.786760719e-01,3.59673e-01,9.99999e-01,9.99999e-01,9.99999e-01,9.99914e-01,3.59703e-01,9.99999e-01
6.820694522e-01,3.66988e-01,9.99999e-01,9.99999e-01,9.99999e-01,9.99853e-01,3.67042e-01,9.99998e-01
6.854797995e-01,3.74310e-01,9.99999e-01,9.99999e-01,9.99999e-01,9.99811e-01,3.74381e-01,9.99997e-01
6.889071985e-01,3.81541e-01,9.99999e-01,9.99999e-01,9.99999e-01,9.99542e-01,3.81717e-01,9.99995e-01
6.923517345e-01,3.86142e-01,9.99999e-01,9.99999e-01,9.99999e-01,9.92565e-01,3.89048e-01,9.99963e-01
6.958134932e-01,3.94815e-01,9.99999e-01,9.99999e-01,9.99999e-01,9.96151e-01,3.96371e-01,9.99920e-01
6.992925606e-01,4.02170e-01,9.99999e-01,9.99999e-01,9.99999e-01,9.96322e-01,4.03683e-01,9.99928e-01
7.027890234e-01,4.09098e-01,9.99999e-01,9.99999e-01,9.99999e-01,9.95471e-01,4.10981e-01,9.99945e-01
7.063029686e-01,4.16660e-01,9.99999e-01,9.99999e-01,9.99999e-01,9.96191e-01,4.18263e-01,9.99972e-01
7.098344834e-01,4.23966e-01,9.99999e-01,9.99999e-01,9.99999e-01,9.96346e-01,4.25527e-01,9.99983e-01
7.133836558e-01,4.30641e-01,9.99999e-01,9.99999e-01,9.99999e-01,9.95112e-01,4.32770e-01,9.99967e-01
7.169505741e-01,4.22854e-01,9.99999e-01,9.99999e-01,9.99999e-01,9.61295e-01,4.39989e-01,9.99749e-01
7.205353270e-01,4.38488e-01,9.99999e-01,9.99999e-01,9.99999e-01,9.80989e-01,4.47182e-01,9.99559e-01
7.241380036e-01,4.43190e-01,9.99999e-01,9.99999e-01,9.99999e-01,9.75812e-01,4.54348e-01,9.99619e-01
7.277586936e-01,4.51261e-01,9.99999e-01,9.99999e-01,9.99999e-01,9.78153e-01,4.61483e-01,9.99688e-01
7.313974871e-01,4.57668e-01,9.99999e-01,9.99999e-01,9.99999e-01,9.76842e-01,4.68586e-01,9.99853e-01
7.350544745e-01,4.69585e-01,9.99999e-01,9.99999e-01,9.99999e-01,9.87287e-01,4.75655e-01,9.99948e-01
7.387297469e-01,4.78158e-01,9.99999e-01,9.99999e-01,9.99999e-01,9.90637e-01,4.82688e-01,9.99976e-01
7.424233956e-01,4.87435e-01,9.99999e-01,9.99999e-01,9.99999e-01,9.95413e-01,4.89683e-01,9.99995e-01
7.461355126e-01,4.95256e-01,9.99999e-01,9.99999e-01,9.99999e-01,9.97217e-01,4.96638e-01,9.99998e-01
7.498661902e-01,5.02899e-01,9.99999e-01,9.99999e-01,9.99999e-01,9.98704e-01,5.03551e-01,9.99999e-01
7.536155211e-01,5.10097e-01,9.99999e-01,9.99999e-01,9.99999e-01,9.99363e-01,5.10422e-01,9.99999e-01
7.573835987e-01,5.17078e-01,9.99999e-01,9.99999e-01,9.99999e-01,9.99672e-01,5.17247e-01,9.99999e-01
7.611705167e-01,5.23920e-01,9.99999e-01,9.99999e-01,9.99999e-01,9.99796e-01,5.24027e-01,9.99999e-01
7.649763693e-01,5.30691e-01,9.99999e-01,9.99999e-01,9.99999e-01,9.99872e-01,5.30758e-01,9.99999e-01
7.688012511e-01,5.37393e-01,9.99999e-01,9.99999e-01,9.99999e-01,9.99910e-01,5.37441e-01,9.99999e-01
7.726452574e-01,5.44034e-01,9.99999e-01,9.99999e-01,9.99999e-01,9.99926e-01,5.44073e-01,9.99999e-01
7.765084837e-01,5.50597e-01,9.99999e-01,9.99999e-01,9.99999e-01,9.99895e-01,5.50654e-01,9.99999e-01
7.803910261e-01,5.41336e-01,9.99999e-01,9.99999e-01,9.71985e-01,9.99549e-01,5.57182e-01,9.99999e-01
7.842929812e-01,4.98143e-01,9.99999e-01,9.99999e-01,8.85107e-01,9.98428e-01,5.63656e-01,9.99996e-01
7.882144461e-01,4.98431e-01,9.99999e-01,9.99999e-01,8.77082e-01,9.96772e-01,5.70075e-01,9.99977e-01
7.921555184e-01,5.33283e-01,9.99999e-01,9.99999e-01,9.26775e-01,9.98232e-01,5.76439e-01,9.99961e-01
7.961162960e-01,5.52183e-01,9.99999e-01,9.99999e-01,9.50545e-01,9.96866e-01,5.82746e-01,9.99962e-01
8.000968774e-01,5.70930e-01,9.99999e-01,9.99999e-01,9.72873e-01,9.96387e-01,5.88995e-01,9.99960e-01
8.040973618e-01,5.84646e-01,9.99999e-01,9.99999e-01,9.85878e-01,9.96385e-01,5.95185e-01,9.99969e-01
8.081178486e-01,5.92517e-01,9.99999e-01,9.99999e-01,9.93485e-01,9.91846e-01,6.01317e-01,9.99969e-01
8.121584379e-01,5.85747e-01,9.99999e-01,9.99999e-01,9.97990e-01,9.66405e-01,6.07389e-01,9.99885e-01
8.162192301e-01,5.88557e-01,9.99999e-01,9.99999e-01,9.99555e-01,9.60329e-01,6.13400e-01,9.99571e-01
8.203003262e-01,6.06586e-01,9.99999e-01,9.99999e-01,9.99993e-01,9.79887e-01,6.19350e-01,9.99497e-01
8.244018279e-01,6.07590e-01,9.99999e-01,9.99999e-01,9.99999e-01,9.72159e-01,6.25239e-01,9.99600e-01
8.285238370e-01,6.15804e-01,9.99999e-01,9.99999e-01,9.99999e-01,9.76121e-01,6.31066e-01,9.99686e-01
8.326664562e-01,6.21393e-01,9.99999e-01,9.99999e-01,9.99999e-01,9.75885e-01,6.36830e-01,9.99869e-01
8.368297885e-01,6.31427e-01,9.99999e-01,9.99999e-01,9.99999e-01,9.82745e-01,6.42532e-01,9.99969e-01
8.410139374e-01,6.41497e-01,9.99999e-01,9.99999e-01,9.99999e-01,9.89720e-01,6.48170e-01,9.99982e-01
8.452190071e-01,6.50438e-01,9.99999e-01,9.99999e-01,9.99999e-01,9.94950e-01,6.53746e-01,9.99989e-01
8.494451021e-01,6.57318e-01,9.99999e-01,9.99999e-01,9.99999e-01,9.97065e-01,6.59257e-01,9.99991e-01
8.536923276e-01,6.63549e-01,9.99999e-01,9.99999e-01,9.99999e-01,9.98265e-01,6.64705e-01,9.99994e-01
8.579607893e-01,6.69372e-01,9.99999e-01,9.99999e-01,9.99999e-01,9.98930e-01,6.70089e-01,9.99998e-01
8.622505932e-01,6.74951e-01,9.99999e-01,9.99999e-01,9.99999e-01,9.99321e-01,6.75409e-01,9.99999e-01
8.665618462e-01,6.35633e-01,9.99999e-01,9.99999e-01,9.34219e-01,9.99579e-01,6.80665e-01,9.99999e-01
8.708946554e-01,5.01709e-01,9.99999e-01,9.99999e-01,7.31848e-01,9.99518e-01,6.85857e-01,9.99999e-01
8.752491287e-01,5.37779e-01,9.99999e-01,9.99999e-01,7.78768e-01,9.99355e-01,6.90984e-01,9.99998e-01
8.796253743e-01,6.06550e-01,9.99999e-01,9.99999e-01,8.72181e-01,9.99107e-01,6.96048e-01,9.99997e-01
8.840235012e-01,6.52483e-01,9.99999e-01,9.99999e-01,9.31669e-01,9.98980e-01,7.01047e-01,9.99993e-01
8.884436187e-01,6.84044e-01,9.99999e-01,9.99999e-01,9.72547e-01,9.96263e-01,7.05983e-01,9.99981e-01
8.928858368e-01,6.75698e-01,9.99999e-01,9.99999e-01,9.88787e-01,9.61343e-01,7.10855e-01,9.99897e-01
8.973502660e-01,6.65388e-01,9.99999e-01,9.99999e-01,9.97271e-01,9.32737e-01,7.15663e-01,9.99478e-01
9.018370173e-01,6.94530e-01,9.99999e-01,9.99999e-01,9.99699e-01,9.65151e-01,7.20408e-01,9.99180e-01
9.063462024e-01,6.96881e-01,9.99999e-01,9.99999e-01,9.92205e-01,9.69153e-01,7.25089e-01,9.99279e-01
9.108779334e-01,6.82293e-01,9.99999e-01,9.99999e-01,9.82346e-01,9.52368e-01,7.29708e-01,9.99251e-01
9.154323231e-01,6.91440e-01,9.99999e-01,9.99999e-01,9.95843e-01,9.46124e-01,7.34264e-01,9.99381e-01
9.200094847e-01,6.65946e-01,9.99999e-01,9.99999e-01,9.39960e-01,9.57566e-01,7.38758e-01,9.99653e-01
9.246095321e-01,6.36545e-01,9.99999e-01,9.99999e-01,9.16430e-01,9.33761e-01,7.43189e-01,9.99600e-01
9.292325798e-01,4.43521e-01,9.99999e-01,9.99999e-01,9.33567e-01,6.32590e-01,7.47559e-01,9.98445e-01
9.338787427e-01,3.90019e-01,9.99999e-01,9.99999e-01,9.35982e-01,5.54480e-01,7.51867e-01,9.93592e-01
9.385481364e-01,5.64976e-01,9.99999e-01,9.99999e-01,9.52584e-01,7.88584e-01,7.56115e-01,9.92383e-01
9.432408771e-01,5.26539e-01,9.99999e-01,9.99999e-01,9.70745e-01,7.17145e-01,7.60302e-01,9.93425e-01
9.479570815e-01,4.73333e-01,9.99999e-01,9.99999e-01,9.84876e-01,6.31642e-01,7.64428e-01,9.94645e-01
9.526968669e-01,5.40116e-01,9.99999e-01,9.99999e-01,9.92684e-01,7.09933e-01,7.68495e-01,9.96730e-01
9.574603512e-01,5.61799e-01,9.99999e-01,9.99999e-01,9.96867e-01,7.30620e-01,7.72503e-01,9.98337e-01
9.622476530e-01,6.00498e-01,9.99999e-01,9.99999e-01,9.99022e-01,7.74999e-01,7.76451e-01,9.98850e-01
9.670588912e-01,6.73033e-01,9.99999e-01,9.99999e-01,9.99706e-01,8.63405e-01,7.80342e-01,9.99213e-01
9.718941857e-01,7.15044e-01,9.99999e-01,9.99999e-01,9.99979e-01,9.12389e-01,7.84174e-01,9.99420e-01
9.767536566e-01,7.29885e-01,9.99999e-01,9.99999e-01,9.99999e-01,9.26719e-01,7.87949e-01,9.99557e-01
9.816374249e-01,7.48193e-01,9.99999e-01,9.99999e-01,9.99999e-01,9.45229e-01,7.91667e-01,9.99846e-01
9.865456120e-01,7.67817e-01,9.99999e-01,9.99999e-01,9.99999e-01,9.65439e-01,7.95328e-01,9.99967e-01
9.914783401e-01,7.81750e-01,9.99999e-01,9.99999e-01,9.99999e-01,9.78499e-01,7.98934e-01,9.99990e-01
9.964357318e-01,7.93041e-01,9.99999e-01,9.99999e-01,9.99999e-01,9.88237e-01,8.02484e-01,9.99994e-01
1.001417910e+00,8.00281e-01,9.99999e-01,9.99999e-01,9.99999e-01,9.92936e-01,8.05980e-01,9.99991e-01
1.006425000e+00,8.06147e-01,9.99999e-01,9.99999e-01,9.99999e-01,9.95965e-01,8.09421e-01,9.99988e-01
1.011457125e+00,8.10766e-01,9.99999e-01,9.99999e-01,9.99999e-01,9.97496e-01,8.12809e-01,9.99989e-01
1.016514411e+00,8.14749e-01,9.99999e-01,9.99999e-01,9.99999e-01,9.98299e-01,8.16143e-01,9.99992e-01
1.021596983e+00,8.18273e-01,9.99999e-01,9.99999e-01,9.99956e-01,9.98644e-01,8.19425e-01,9.99992e-01
1.026704968e+00,8.19281e-01,9.99999e-01,9.99999e-01,9.96956e-01,9.98942e-01,8.22654e-01,9.99994e-01
1.031838492e+00,7.92948e-01,9.99999e-01,9.99999e-01,9.60898e-01,9.99231e-01,8.25833e-01,9.99998e-01
1.036997685e+00,1.53736e-01,9.99999e-01,9.99999e-01,1.85525e-01,9.99543e-01,8.28960e-01,9.99999e-01
1.042182673e+00,1.47025e-01,9.99999e-01,9.99999e-01,1.76792e-01,9.99454e-01,8.32037e-01,9.99999e-01
1.047393587e+00,1.57729e-01,9.99999e-01,9.99999e-01,1.89004e-01,9.99277e-01,8.35065e-01,9.99999e-01
1.052630555e+00,8.11183e-03,9.99999e-01,9.99999e-01,9.68670e-03,9.99008e-01,8.38043e-01,9.99999e-01
1.057893707e+00,1.87789e-02,9.99999e-01,9.99999e-01,2.23562e-02,9.98344e-01,8.40973e-01,9.99998e-01
1.063183176e+00,5.17868e-02,9.99999e-01,9.99999e-01,6.14941e-02,9.97277e-01,8.43855e-01,9.99998e-01
1.068499092e+00,1.24265e-01,9.99999e-01,9.99999e-01,1.47346e-01,9.95444e-01,8.46690e-01,9.99996e-01
1.073841587e+00,2.52674e-01,9.99999e-01,9.99999e-01,2.98839e-01,9.94666e-01,8.49477e-01,9.99992e-01
