#,Wave/freq,Total,N2,O2,CO2,H2O,Rayleigh,CIA
4.000000000e-01,1.47067e-17,9.99999e-01,9.99999e-01,9.99999e-01,9.99925e-01,1.47077e-17,9.99999e-01
4.020000000e-01,3.16484e-17,9.99999e-01,9.99999e-01,9.99999e-01,9.99953e-01,3.16498e-17,9.99999e-01
4.040100000e-01,6.70303e-17,9.99999e-01,9.99999e-01,9.99999e-01,9.99979e-01,6.70316e-17,9.99999e-01
4.060300500e-01,1.39878e-16,9.99999e-01,9.99999e-01,9.99999e-01,9.99994e-01,1.39878e-16,9.99999e-01
4.080602003e-01,2.87681e-16,9.99999e-01,9.99999e-01,9.99999e-01,9.99998e-01,2.87681e-16,9.99999e-01
4.101005013e-01,5.83293e-16,9.99999e-01,9.99999e-01,9.99999e-01,9.99999e-01,5.83293e-16,9.99999e-01
4.121510038e-01,1.16626e-15,9.99999e-01,9.99999e-01,9.99999e-01,9.99996e-01,1.16627e-15,9.99999e-01
4.142117588e-01,2.30015e-15,9.99999e-01,9.99999e-01,9.99999e-01,9.99979e-01,2.30020e-15,9.99999e-01
4.162828176e-01,4.47576e-15,9.99999e-01,9.99999e-01,9.99999e-01,9.99907e-01,4.47618e-15,9.99999e-01
4.183642317e-01,8.59634e-15,9.99999e-01,9.99999e-01,9.99999e-01,9.99944e-01,8.59681e-15,9.99999e-01
4.204560528e-01,1.62988e-14,9.99999e-01,9.99999e-01,9.99999e-01,9.99965e-01,1.62993e-14,9.99999e-01
4.225583331e-01,3.05146e-14,9.99999e-01,9.99999e-01,9.99999e-01,9.99986e-01,3.05150e-14,9.99999e-01
4.246711247e-01,5.64252e-14,9.99999e-01,9.99999e-01,9.99999e-01,9.99989e-01,5.64257e-14,9.99999e-01
4.267944804e-01,1.03077e-13,9.99999e-01,9.99999e-01,9.99999e-01,9.99984e-01,1.03079e-13,9.99999e-01
4.289284528e-01,1.86074e-13,9.99999e-01,9.99999e-01,9.99999e-01,9.99988e-01,1.86076e-13,9.99999e-01
4.310730950e-01,3.32004e-13,9.99999e-01,9.99999e-01,9.99999e-01,9.99994e-01,3.32006e-13,9.99999e-01
4.332284605e-01,5.85643e-13,9.99999e-01,9.99999e-01,9.99999e-01,9.99998e-01,5.85644e-13,9.99999e-01
4.353946028e-01,1.02153e-12,9.99999e-01,9.99999e-01,9.99999e-01,9.99998e-01,1.02154e-12,9.99999e-01
4.375715758e-01,1.76237e-12,9.99999e-01,9.99999e-01,9.99999e-01,9.99990e-01,1.76238e-12,9.99999e-01
4.397594337e-01,3.00770e-12,9.99999e-01,9.99999e-01,9.99999e-01,9.99918e-01,3.00794e-12,9.99999e-01
4.419582309e-01,5.07777e-12,9.99999e-01,9.99999e-01,9.99999e-01,9.99587e-01,5.07986e-12,9.99999e-01
4.441680220e-01,8.48789e-12,9.99999e-01,9.99999e-01,9.99999e-01,9.99678e-01,8.49061e-12,9.99999e-01
4.463888621e-01,1.40435e-11,9.99999e-01,9.99999e-01,9.99999e-01,9.99665e-01,1.40482e-11,9.99999e-01
4.486208064e-01,2.30086e-11,9.99999e-01,9.99999e-01,9.99999e-01,9.99791e-01,2.30134e-11,9.99999e-01
4.508639105e-01,3.73307e-11,9.99999e-01,9.99999e-01,9.99999e-01,9.99902e-01,3.73344e-11,9.99999e-01
4.531182300e-01,5.99886e-11,9.99999e-01,9.99999e-01,9.99999e-01,9.99961e-01,5.99909e-11,9.99999e-01
4.553838212e-01,9.54953e-11,9.99999e-01,9.99999e-01,9.99999e-01,9.99973e-01,9.54978e-11,9.99999e-01
4.576607403e-01,1.50629e-10,9.99999e-01,9.99999e-01,9.99999e-01,9.99987e-01,1.50631e-10,9.99999e-01
4.599490440e-01,2.35462e-10,9.99999e-01,9.99999e-01,9.99999e-01,9.99991e-01,2.35464e-10,9.99999e-01
4.622487892e-01,3.64839e-10,9.99999e-01,9.99999e-01,9.99999e-01,9.99998e-01,3.64840e-10,9.99999e-01
4.645600332e-01,5.60430e-10,9.99999e-01,9.99999e-01,9.99999e-01,9.99993e-01,5.60434e-10,9.99999e-01
4.668828333e-01,8.53535e-10,9.99999e-01,9.99999e-01,9.99999e-01,9.99901e-01,8.53618e-10,9.99999e-01
4.692172475e-01,1.28915e-09,9.99999e-01,9.99999e-01,9.99999e-01,9.99789e-01,1.28942e-09,9.99999e-01
4.715633337e-01,1.93164e-09,9.99999e-01,9.99999e-01,9.99999e-01,9.99862e-01,1.93190e-09,9.99999e-01
4.739211504e-01,2.87112e-09,9.99999e-01,9.99999e-01,9.99999e-01,9.99868e-01,2.87150e-09,9.99999e-01
4.762907561e-01,4.23451e-09,9.99999e-01,9.99999e-01,9.99999e-01,9.99931e-01,4.23479e-09,9.99999e-01
4.786722099e-01,6.19742e-09,9.99999e-01,9.99999e-01,9.99999e-01,9.99971e-01,6.19759e-09,9.99999e-01
4.810655710e-01,9.00209e-09,9.99999e-01,9.99999e-01,9.99999e-01,9.99991e-01,9.00217e-09,9.99999e-01
4.834708988e-01,1.29788e-08,9.99999e-01,9.99999e-01,9.99999e-01,9.99919e-01,1.29798e-08,9.99999e-01
4.858882533e-01,1.85775e-08,9.99999e-01,9.99999e-01,9.99999e-01,9.99851e-01,1.85802e-08,9.99999e-01
4.883176946e-01,2.64060e-08,9.99999e-01,9.99999e-01,9.99999e-01,9.99875e-01,2.64093e-08,9.99999e-01
4.907592831e-01,3.72732e-08,9.99999e-01,9.99999e-01,9.99999e-01,9.99887e-01,3.72774e-08,9.99999e-01
4.932130795e-01,5.22569e-08,9.99999e-01,9.99999e-01,9.99999e-01,9.99919e-01,5.22610e-08,9.99999e-01
4.956791449e-01,7.27769e-08,9.99999e-01,9.99999e-01,9.99999e-01,9.99957e-01,7.27800e-08,9.99999e-01
4.981575406e-01,1.00673e-07,9.99999e-01,9.99999e-01,9.99999e-01,9.99788e-01,1.00694e-07,9.99999e-01
5.006483283e-01,1.38348e-07,9.99999e-01,9.99999e-01,9.99999e-01,9.99453e-01,1.38424e-07,9.99995e-01
5.031515699e-01,1.88571e-07,9.99999e-01,9.99999e-01,9.99999e-01,9.97231e-01,1.89100e-07,9.99970e-01
5.056673278e-01,2.56356e-07,9.99999e-01,9.99999e-01,9.99999e-01,9.98537e-01,2.56740e-07,9.99966e-01
5.081956644e-01,3.45829e-07,9.99999e-01,9.99999e-01,9.99999e-01,9.98155e-01,3.46475e-07,9.99978e-01
5.107366428e-01,4.64233e-07,9.99999e-01,9.99999e-01,9.99999e-01,9.98753e-01,4.64814e-07,9.99995e-01
5.132903260e-01,6.19522e-07,9.99999e-01,9.99999e-01,9.99999e-01,9.99287e-01,6.19964e-07,9.99999e-01
5.158567776e-01,8.21962e-07,9.99999e-01,9.99999e-01,9.99999e-01,9.99698e-01,8.22209e-07,9.99999e-01
5.184360615e-01,1.08424e-06,9.99999e-01,9.99999e-01,9.99999e-01,9.99879e-01,1.08437e-06,9.99999e-01
5.210282418e-01,1.42225e-06,9.99999e-01,9.99999e-01,9.99999e-01,9.99954e-01,1.42232e-06,9.99999e-01
5.236333830e-01,1.85528e-06,9.99999e-01,9.99999e-01,9.99999e-01,9.99819e-01,1.85562e-06,9.99998e-01
5.262515499e-01,2.40797e-06,9.99999e-01,9.99999e-01,9.99999e-01,9.99886e-01,2.40825e-06,9.99997e-01
5.288828077e-01,3.10907e-06,9.99999e-01,9.99999e-01,9.99999e-01,9.99895e-01,3.10940e-06,9.99998e-01
5.315272217e-01,3.99411e-06,9.99999e-01,9.99999e-01,9.99999e-01,9.99908e-01,3.99447e-06,9.99999e-01
5.341848578e-01,5.10585e-06,9.99999e-01,9.99999e-01,9.99999e-01,9.99939e-01,5.10616e-06,9.99999e-01
5.368557821e-01,6.49428e-06,9.99999e-01,9.99999e-01,9.99999e-01,9.99789e-01,6.49565e-06,9.99999e-01
5.395400610e-01,8.21776e-06,9.99999e-01,9.99999e-01,9.99999e-01,9.99241e-01,8.22405e-06,9.99993e-01
5.422377613e-01,1.03536e-05,9.99999e-01,9.99999e-01,9.99999e-01,9.99018e-01,1.03640e-05,9.99981e-01
5.449489501e-01,1.29890e-05,9.99999e-01,9.99999e-01,9.99999e-01,9.99087e-01,1.30011e-05,9.99981e-01
5.476736949e-01,1.62232e-05,9.99999e-01,9.99999e-01,9.99999e-01,9.99191e-01,1.62365e-05,9.99990e-01
5.504120634e-01,2.01763e-05,9.99999e-01,9.99999e-01,9.99999e-01,9.99413e-01,2.01882e-05,9.99997e-01
5.531641237e-01,2.49864e-05,9.99999e-01,9.99999e-01,9.99999e-01,9.99704e-01,2.49938e-05,9.99999e-01
5.559299443e-01,3.08088e-05,9.99999e-01,9.99999e-01,9.99999e-01,9.99857e-01,3.08132e-05,9.99999e-01
5.587095940e-01,3.78274e-05,9.99999e-01,9.99999e-01,9.99999e-01,9.99910e-01,3.78308e-05,9.99999e-01
5.615031420e-01,4.62542e-05,9.99999e-01,9.99999e-01,9.99999e-01,9.99900e-01,4.62588e-05,9.99999e-01
5.643106577e-01,5.63337e-05,9.99999e-01,9.99999e-01,9.99999e-01,9.99886e-01,5.63401e-05,9.99998e-01
5.671322110e-01,6.82573e-05,9.99999e-01,9.99999e-01,9.99999e-01,9.98630e-01,6.83517e-05,9.99987e-01
5.699678720e-01,8.24847e-05,9.99999e-01,9.99999e-01,9.99999e-01,9.98542e-01,8.26082e-05,9.99962e-01
5.728177114e-01,9.93114e-05,9.99999e-01,9.99999e-01,9.99999e-01,9.98482e-01,9.94654e-05,9.99968e-01
5.756818000e-01,1.19156e-04,9.99999e-01,9.99999e-01,9.99999e-01,9.98607e-01,1.19324e-04,9.99980e-01
5.785602090e-01,1.42460e-04,9.99999e-01,9.99999e-01,9.99999e-01,9.98785e-01,1.42634e-04,9.99993e-01
5.814530100e-01,1.69690e-04,9.99999e-01,9.99999e-01,9.99999e-01,9.98780e-01,1.69897e-04,9.99996e-01
5.843602750e-01,2.01379e-04,9.99999e-01,9.99999e-01,9.99999e-01,9.98546e-01,2.01674e-04,9.99991e-01
5.872820764e-01,2.35595e-04,9.99999e-01,9.99999e-01,9.99999e-01,9.87556e-01,2.38584e-04,9.99911e-01
5.902184868e-01,2.77004e-04,9.99999e-01,9.99999e-01,9.99999e-01,9.84913e-01,2.81314e-04,9.99759e-01
5.931695792e-01,3.27018e-04,9.99999e-01,9.99999e-01,9.99999e-01,9.89332e-01,3.30620e-04,9.99768e-01
5.961354271e-01,3.82749e-04,9.99999e-01,9.99999e-01,9.99999e-01,9.88302e-01,3.87330e-04,9.99866e-01
5.991161043e-01,4.48466e-04,9.99999e-01,9.99999e-01,9.99999e-01,9.91453e-01,4.52350e-04,9.99958e-01
6.021116848e-01,5.24108e-04,9.99999e-01,9.99999e-01,9.99999e-01,9.95141e-01,5.26669e-04,9.99994e-01
6.051222432e-01,6.09853e-04,9.99999e-01,9.99999e-01,9.99999e-01,9.97539e-01,6.11358e-04,9.99999e-01
6.081478544e-01,7.06826e-04,9.99999e-01,9.99999e-01,9.99999e-01,9.98937e-01,7.07577e-04,9.99999e-01
6.111885937e-01,8.16213e-04,9.99999e-01,9.99999e-01,9.99999e-01,9.99550e-01,8.16580e-04,9.99999e-01
6.142445367e-01,9.39523e-04,9.99999e-01,9.99999e-01,9.99999e-01,9.99798e-01,9.39711e-04,9.99999e-01
6.173157594e-01,1.07829e-03,9.99999e-01,9.99999e-01,9.99999e-01,9.99888e-01,1.07841e-03,9.99999e-01
6.204023382e-01,1.23411e-03,9.99999e-01,9.99999e-01,9.99999e-01,9.99905e-01,1.23423e-03,9.99999e-01
6.235043498e-01,1.40821e-03,9.99999e-01,9.99999e-01,9.99999e-01,9.99587e-01,1.40879e-03,9.99998e-01
6.266218716e-01,1.60033e-03,9.99999e-01,9.99999e-01,9.99999e-01,9.97817e-01,1.60385e-03,9.99984e-01
6.297549810e-01,1.81974e-03,9.99999e-01,9.99999e-01,9.99999e-01,9.99198e-01,1.82125e-03,9.99968e-01
6.329037559e-01,2.05961e-03,9.99999e-01,9.99999e-01,9.99999e-01,9.98417e-01,2.06293e-03,9.99974e-01
6.360682746e-01,2.32776e-03,9.99999e-01,9.99999e-01,9.99999e-01,9.98652e-01,2.33093e-03,9.99984e-01
6.392486160e-01,2.62280e-03,9.99999e-01,9.99999e-01,9.99999e-01,9.98253e-01,2.62741e-03,9.99993e-01
6.424448591e-01,2.94767e-03,9.99999e-01,9.99999e-01,9.99999e-01,9.97664e-01,2.95460e-03,9.99989e-01
6.456570834e-01,3.27884e-03,9.99999e-01,9.99999e-01,9.99999e-01,9.89200e-01,3.31484e-03,9.99939e-01
6.488853688e-01,3.68056e-03,9.99999e-01,9.99999e-01,9.99999e-01,9.92082e-01,3.71056e-03,9.99831e-01
6.521297956e-01,4.11027e-03,9.99999e-01,9.99999e-01,9.99999e-01,9.91932e-01,4.14428e-03,9.99860e-01
6.553904446e-01,4.58100e-03,9.99999e-01,9.99999e-01,9.99999e-01,9.91962e-01,4.61860e-03,9.99896e-01
6.586673968e-01,5.10066e-03,9.99999e-01,9.99999e-01,9.99999e-01,9.93114e-01,5.13620e-03,9.99964e-01
6.619607338e-01,5.67707e-03,9.99999e-01,9.99999e-01,9.99999e-01,9.96013e-01,5.69983e-03,9.99992e-01
6.652705375e-01,6.29773e-03,9.99999e-01,9.99999e-01,9.99999e-01,9.97691e-01,6.31233e-03,9.99995e-01
6.685968902e-01,6.96907e-03,9.99999e-01,9.99999e-01,9.99999e-01,9.98926e-01,6.97656e-03,9.99998e-01
6.719398746e-01,7.69163e-03,9.99999e-01,9.99999e-01,9.99999e-01,9.99502e-01,7.69546e-03,9.99999e-01
6.752995740e-01,8.46973e-03,9.99999e-01,9.99999e-01,9.99999e-01,9.99730e-01,8.47201e-03,9.99999e-01
6.786760719e-01,9.30561e-03,9.99999e-01,9.99999e-01,9.99999e-01,9.99610e-01,9.30923e-03,9.99998e-01
6.820694522e-01,1.02033e-02,9.99999e-01,9.99999e-01,9.99999e-01,9.99333e-01,1.02102e-02,9.99996e-01
6.854797995e-01,1.11682e-02,9.99999e-01,9.99999e-01,9.99999e-01,9.99140e-01,1.11779e-02,9.99992e-01
6.889071985e-01,1.21899e-02,9.99999e-01,9.99999e-01,9.99999e-01,9.97922e-01,1.22154e-02,9.99980e-01
6.923517345e-01,1.28791e-02,9.99999e-01,9.99999e-01,9.99999e-01,9.66626e-01,1.33259e-02,9.99836e-01
6.958134932e-01,1.42535e-02,9.99999e-01,9.99999e-01,9.99999e-01,9.82510e-01,1.45124e-02,9.99639e-01
6.992925606e-01,1.55103e-02,9.99999e-01,9.99999e-01,9.99999e-01,9.83356e-01,1.57779e-02,9.99674e-01
7.027890234e-01,1.67699e-02,9.99999e-01,9.99999e-01,9.99999e-01,9.79479e-01,1.71255e-02,9.99751e-01
7.063029686e-01,1.82350e-02,9.99999e-01,9.99999e-01,9.99999e-01,9.82711e-01,1.85581e-02,9.99876e-01
7.098344834e-01,1.97439e-02,9.99999e-01,9.99999e-01,9.99999e-01,9.83402e-01,2.00786e-02,9.99926e-01
7.133836558e-01,2.12095e-02,9.99999e-01,9.99999e-01,9.99999e-01,9.77990e-01,2.16899e-02,9.99854e-01
7.169505741e-01,1.95830e-02,9.99999e-01,9.99999e-01,9.99999e-01,8.38019e-01,2.33949e-02,9.98859e-01
7.205353270e-01,2.30522e-02,9.99999e-01,9.99999e-01,9.99999e-01,9.16749e-01,2.51962e-02,9.97988e-01
7.241380036e-01,2.42174e-02,9.99999e-01,9.99999e-01,9.99999e-01,8.95301e-01,2.70965e-02,9.98262e-01
7.277586936e-01,2.62980e-02,9.99999e-01,9.99999e-01,9.99999e-01,9.05049e-01,2.90982e-02,9.98579e-01
7.313974871e-01,2.80327e-02,9.99999e-01,9.99999e-01,9.99999e-01,8.98967e-01,3.12039e-02,9.99334e-01
7.350544745e-01,3.15166e-02,9.99999e-01,9.99999e-01,9.99999e-01,9.43380e-01,3.34158e-02,9.99768e-01
7.387297469e-01,3.42296e-02,9.99999e-01,9.99999e-01,9.99999e-01,9.57943e-01,3.57362e-02,9.99893e-01
7.424233956e-01,3.73717e-02,9.99999e-01,9.99999e-01,9.99999e-01,9.79182e-01,3.81670e-02,9.99979e-01
7.461355126e-01,4.01943e-02,9.99999e-01,9.99999e-01,9.99999e-01,9.87331e-01,4.07102e-02,9.99995e-01
7.498661902e-01,4.31108e-02,9.99999e-01,9.99999e-01,9.99999e-01,9.94081e-01,4.33675e-02,9.99998e-01
7.536155211e-01,4.60065e-02,9.99999e-01,9.99999e-01,9.99999e-01,9.97093e-01,4.61407e-02,9.99998e-01
7.573835987e-01,4.89577e-02,9.99999e-01,9.99999e-01,9.99999e-01,9.98502e-01,4.90311e-02,9.99999e-01
7.611705167e-01,5.19917e-02,9.99999e-01,9.99999e-01,9.99999e-01,9.99069e-01,5.20401e-02,9.99999e-01
7.649763693e-01,5.51366e-02,9.99999e-01,9.99999e-01,9.99999e-01,9.99416e-01,5.51688e-02,9.99999e-01
7.688012511e-01,5.83945e-02,9.99999e-01,9.99999e-01,9.99999e-01,9.99593e-01,5.84182e-02,9.99999e-01
7.726452574e-01,6.17685e-02,9.99999e-01,9.99999e-01,9.99999e-01,9.99665e-01,6.17891e-02,9.99999e-01
7.765084837e-01,6.52511e-02,9.99999e-01,9.99999e-01,9.99999e-01,9.99525e-01,6.52821e-02,9.99998e-01
7.803910261e-01,6.20562e-02,9.99999e-01,9.99999e-01,9.02386e-01,9.97949e-01,6.88978e-02,9.99997e-01
7.842929812e-01,4.29688e-02,9.99999e-01,9.99999e-01,5.95240e-01,9.92861e-01,7.26362e-02,9.99986e-01
7.882144461e-01,4.37441e-02,9.99999e-01,9.99999e-01,5.79427e-01,9.85338e-01,7.64977e-02,9.99909e-01
7.921555184e-01,5.68783e-02,9.99999e-01,9.99999e-01,7.12155e-01,9.91935e-01,8.04821e-02,9.99825e-01
7.961162960e-01,6.62380e-02,9.99999e-01,9.99999e-01,7.94108e-01,9.85798e-01,8.45891e-02,9.99832e-01
8.000968774e-01,7.70794e-02,9.99999e-01,9.99999e-01,8.82317e-01,9.83593e-01,8.88183e-02,9.99821e-01
8.040973618e-01,8.58698e-02,9.99999e-01,9.99999e-01,9.37050e-01,9.83594e-01,9.31692e-02,9.99858e-01
8.081178486e-01,9.13110e-02,9.99999e-01,9.99999e-01,9.70559e-01,9.63484e-01,9.76409e-02,9.99867e-01
8.121584379e-01,8.68163e-02,9.99999e-01,9.99999e-01,9.90814e-01,8.57246e-01,1.02232e-01,9.99478e-01
8.162192301e-01,8.87599e-02,9.99999e-01,9.99999e-01,9.97964e-01,8.33188e-01,1.06943e-01,9.98042e-01
8.203003262e-01,1.02004e-01,9.99999e-01,9.99999e-01,9.99969e-01,9.14729e-01,1.11771e-01,9.97708e-01
8.244018279e-01,1.02968e-01,9.99999e-01,9.99999e-01,9.99999e-01,8.83830e-01,1.16715e-01,9.98175e-01
8.285238370e-01,1.08993e-01,9.99999e-01,9.99999e-01,9.99999e-01,8.96332e-01,1.21774e-01,9.98566e-01
8.326664562e-01,1.13602e-01,9.99999e-01,9.99999e-01,9.99999e-01,8.95425e-01,1.26945e-01,9.99406e-01
8.368297885e-01,1.22127e-01,9.99999e-01,9.99999e-01,9.99999e-01,9.23739e-01,1.32227e-01,9.99864e-01
8.410139374e-01,1.31265e-01,9.99999e-01,9.99999e-01,9.99999e-01,9.53906e-01,1.37619e-01,9.99920e-01
8.452190071e-01,1.39834e-01,9.99999e-01,9.99999e-01,9.99999e-01,9.77106e-01,1.43117e-01,9.99952e-01
8.494451021e-01,1.46729e-01,9.99999e-01,9.99999e-01,9.99999e-01,9.86651e-01,1.48719e-01,9.99961e-01
8.536923276e-01,1.53199e-01,9.99999e-01,9.99999e-01,9.99999e-01,9.92085e-01,1.54424e-01,9.99976e-01
8.579607893e-01,1.59446e-01,9.99999e-01,9.99999e-01,9.99999e-01,9.95119e-01,1.60229e-01,9.99993e-01
8.622505932e-01,1.65615e-01,9.99999e-01,9.99999e-01,9.99999e-01,9.96896e-01,1.66130e-01,9.99998e-01
8.665618462e-01,1.47739e-01,9.99999e-01,9.99999e-01,8.59853e-01,9.98079e-01,1.72126e-01,9.99998e-01
8.708946554e-01,5.01052e-02,9.99999e-01,9.99999e-01,2.81713e-01,9.97801e-01,1.78214e-01,9.99998e-01
8.752491287e-01,6.34081e-02,9.99999e-01,9.99999e-01,3.44817e-01,9.97060e-01,1.84390e-01,9.99996e-01
8.796253743e-01,1.04082e-01,9.99999e-01,9.99999e-01,5.47962e-01,9.95931e-01,1.90651e-01,9.99990e-01
8.840235012e-01,1.42548e-01,9.99999e-01,9.99999e-01,7.26830e-01,9.95353e-01,1.96996e-01,9.99971e-01
8.884436187e-01,1.76269e-01,9.99999e-01,9.99999e-01,8.80870e-01,9.83232e-01,2.03420e-01,9.99918e-01
8.928858368e-01,1.67322e-01,9.99999e-01,9.99999e-01,9.49753e-01,8.38287e-01,2.09920e-01,9.99534e-01
8.973502660e-01,1.56485e-01,9.99999e-01,9.99999e-01,9.87552e-01,7.33026e-01,2.16494e-01,9.97619e-01
9.018370173e-01,1.89482e-01,9.99999e-01,9.99999e-01,9.98620e-01,8.53413e-01,2.23137e-01,9.96259e-01
9.063462024e-01,1.93104e-01,9.99999e-01,9.99999e-01,9.65979e-01,8.69333e-01,2.29847e-01,9.96713e-01
9.108779334e-01,1.75397e-01,9.99999e-01,9.99999e-01,9.22068e-01,8.03985e-01,2.36621e-01,9.96585e-01
9.154323231e-01,1.85969e-01,9.99999e-01,9.99999e-01,9.81117e-01,7.79706e-01,2.43454e-01,9.97176e-01
9.200094847e-01,1.67472e-01,9.99999e-01,9.99999e-01,7.91031e-01,8.23502e-01,2.50343e-01,9.98418e-01
9.246095321e-01,1.31671e-01,9.99999e-01,9.99999e-01,6.74311e-01,7.46536e-01,2.57286e-01,9.98178e-01
9.292325798e-01,3.39431e-02,9.99999e-01,9.99999e-01,7.39300e-01,1.63166e-01,2.64279e-01,9.92914e-01
9.338787427e-01,1.97951e-02,9.99999e-01,9.99999e-01,7.43563e-01,9.47151e-02,2.71318e-01,9.71034e-01
9.385481364e-01,8.52386e-02,9.99999e-01,9.99999e-01,8.02572e-01,3.82358e-01,2.78399e-01,9.65645e-01
9.432408771e-01,6.85097e-02,9.99999e-01,9.99999e-01,8.73201e-01,2.77925e-01,2.85521e-01,9.70290e-01
9.479570815e-01,4.53246e-02,9.99999e-01,9.99999e-01,9.32719e-01,1.68562e-01,2.92678e-01,9.75752e-01
9.526968669e-01,7.21313e-02,9.99999e-01,9.99999e-01,9.67013e-01,2.50787e-01,2.99868e-01,9.85139e-01
9.574603512e-01,8.03491e-02,9.99999e-01,9.99999e-01,9.85742e-01,2.66724e-01,3.07087e-01,9.92423e-01
9.622476530e-01,1.04044e-01,9.99999e-01,9.99999e-01,9.95529e-01,3.33962e-01,3.14333e-01,9.94754e-01
9.670588912e-01,1.68888e-01,9.99999e-01,9.99999e-01,9.98658e-01,5.27629e-01,3.21601e-01,9.96409e-01
9.718941857e-01,2.17251e-01,9.99999e-01,9.99999e-01,9.99904e-01,6.62360e-01,3.28889e-01,9.97355e-01
9.767536566e-01,2.38185e-01,9.99999e-01,9.99999e-01,9.99999e-01,7.09911e-01,3.36193e-01,9.97978e-01
9.816374249e-01,2.65894e-01,9.99999e-01,9.99999e-01,9.99999e-01,7.74592e-01,3.43510e-01,9.99299e-01
9.865456120e-01,2.98874e-01,9.99999e-01,9.99999e-01,9.99999e-01,8.52010e-01,3.50838e-01,9.99853e-01
9.914783401e-01,3.24317e-01,9.99999e-01,9.99999e-01,9.99999e-01,9.05515e-01,3.58172e-01,9.99959e-01
9.964357318e-01,3.46266e-01,9.99999e-01,9.99999e-01,9.99999e-01,9.47372e-01,3.65510e-01,9.99975e-01
1.001417910e+00,3.60942e-01,9.99999e-01,9.99999e-01,9.99999e-01,9.68099e-01,3.72849e-01,9.99963e-01
1.006425000e+00,3.73204e-01,9.99999e-01,9.99999e-01,9.99999e-01,9.81684e-01,3.80186e-01,9.99948e-01
1.011457125e+00,3.83080e-01,9.99999e-01,9.99999e-01,9.99999e-01,9.88594e-01,3.87518e-01,9.99951e-01
1.016514411e+00,3.91767e-01,9.99999e-01,9.99999e-01,9.99999e-01,9.92242e-01,3.94843e-01,9.99965e-01
1.021596983e+00,3.99583e-01,9.99999e-01,9.99999e-01,9.99813e-01,9.93814e-01,4.02158e-01,9.99965e-01
1.026704968e+00,4.01932e-01,9.99999e-01,9.99999e-01,9.86379e-01,9.95172e-01,4.09459e-01,9.99976e-01
1.031838492e+00,3.71738e-01,9.99999e-01,9.99999e-01,8.94966e-01,9.96489e-01,4.16745e-01,9.99993e-01
1.036997685e+00,1.79373e-02,9.99999e-01,9.99999e-01,4.23702e-02,9.97913e-01,4.24012e-01,9.99998e-01
1.042182673e+00,7.21316e-04,9.99999e-01,9.99999e-01,1.67569e-03,9.97513e-01,4.31260e-01,9.99999e-01
1.047393587e+00,2.03890e-03,9.99999e-01,9.99999e-01,4.66252e-03,9.96703e-01,4.38484e-01,9.99998e-01
1.052630555e+00,6.97065e-08,9.99999e-01,9.99999e-01,1.56846e-07,9.95478e-01,4.45683e-01,9.99998e-01
1.057893707e+00,2.62344e-07,9.99999e-01,9.99999e-01,5.81500e-07,9.92463e-01,4.52854e-01,9.99996e-01
1.063183176e+00,1.18821e-05,9.99999e-01,9.99999e-01,2.60111e-05,9.87629e-01,4.59996e-01,9.99993e-01
1.068499092e+00,1.50756e-04,9.99999e-01,9.99999e-01,3.26993e-04,9.79373e-01,4.67106e-01,9.99985e-01
1.073841587e+00,2.56904e-03,9.99999e-01,9.99999e-01,5.51048e-03,9.75931e-01,4.74182e-01,9.99968e-01
