#,Wave/freq,Total,N2,O2,CO2,H2O,Rayleigh,CIA
4.000000000e-01,1.39081e-04,9.99999e-01,9.99999e-01,9.99999e-01,9.99982e-01,1.39083e-04,9.99999e-01
4.020000000e-01,1.65779e-04,9.99999e-01,9.99999e-01,9.99999e-01,9.99988e-01,1.65781e-04,9.99999e-01
4.040100000e-01,1.96882e-04,9.99999e-01,9.99999e-01,9.99999e-01,9.99994e-01,1.96883e-04,9.99999e-01
4.060300500e-01,2.33027e-04,9.99999e-01,9.99999e-01,9.99999e-01,9.99998e-01,2.33027e-04,9.99999e-01
4.080602003e-01,2.74890e-04,9.99999e-01,9.99999e-01,9.99999e-01,9.99999e-01,2.74890e-04,9.99999e-01
4.101005013e-01,3.23217e-04,9.99999e-01,9.99999e-01,9.99999e-01,9.99999e-01,3.23217e-04,9.99999e-01
4.121510038e-01,3.78826e-04,9.99999e-01,9.99999e-01,9.99999e-01,9.99998e-01,3.78827e-04,9.99999e-01
4.142117588e-01,4.42612e-04,9.99999e-01,9.99999e-01,9.99999e-01,9.99994e-01,4.42614e-04,9.99999e-01
4.162828176e-01,5.15543e-04,9.99999e-01,9.99999e-01,9.99999e-01,9.99978e-01,5.15554e-04,9.99999e-01
4.183642317e-01,5.98700e-04,9.99999e-01,9.99999e-01,9.99999e-01,9.99986e-01,5.98708e-04,9.99999e-01
4.204560528e-01,6.93217e-04,9.99999e-01,9.99999e-01,9.99999e-01,9.99991e-01,6.93223e-04,9.99999e-01
4.225583331e-01,8.00336e-04,9.99999e-01,9.99999e-01,9.99999e-01,9.99996e-01,8.00338e-04,9.99999e-01
4.246711247e-01,9.21383e-04,9.99999e-01,9.99999e-01,9.99999e-01,9.99997e-01,9.21386e-04,9.99999e-01
4.267944804e-01,1.05779e-03,9.99999e-01,9.99999e-01,9.99999e-01,9.99996e-01,1.05779e-03,9.99999e-01
4.289284528e-01,1.21109e-03,9.99999e-01,9.99999e-01,9.99999e-01,9.99996e-01,1.21109e-03,9.99999e-01
4.310730950e-01,1.38290e-03,9.99999e-01,9.99999e-01,9.99999e-01,9.99998e-01,1.38290e-03,9.99999e-01
4.332284605e-01,1.57495e-03,9.99999e-01,9.99999e-01,9.99999e-01,9.99999e-01,1.57495e-03,9.99999e-01
4.353946028e-01,1.78907e-03,9.99999e-01,9.99999e-01,9.99999e-01,9.99999e-01,1.78907e-03,9.99999e-01
4.375715758e-01,2.02719e-03,9.99999e-01,9.99999e-01,9.99999e-01,9.99997e-01,2.02720e-03,9.99999e-01
4.397594337e-01,2.29131e-03,9.99999e-01,9.99999e-01,9.99999e-01,9.99981e-01,2.29135e-03,9.99999e-01
4.419582309e-01,2.58342e-03,9.99999e-01,9.99999e-01,9.99999e-01,9.99906e-01,2.58366e-03,9.99999e-01
4.441680220e-01,2.90615e-03,9.99999e-01,9.99999e-01,9.99999e-01,9.99925e-01,2.90637e-03,9.99999e-01
4.463888621e-01,3.26154e-03,9.99999e-01,9.99999e-01,9.99999e-01,9.99922e-01,3.26179e-03,9.99999e-01
4.486208064e-01,3.65217e-03,9.99999e-01,9.99999e-01,9.99999e-01,9.99951e-01,3.65234e-03,9.99999e-01
4.508639105e-01,4.08044e-03,9.99999e-01,9.99999e-01,9.99999e-01,9.99977e-01,4.08053e-03,9.99999e-01
4.531182300e-01,4.54891e-03,9.99999e-01,9.99999e-01,9.99999e-01,9.99990e-01,4.54895e-03,9.99999e-01
4.553838212e-01,5.06023e-03,9.99999e-01,9.99999e-01,9.99999e-01,9.99993e-01,5.06026e-03,9.99999e-01
4.576607403e-01,5.61720e-03,9.99999e-01,9.99999e-01,9.99999e-01,9.99996e-01,5.61722e-03,9.99999e-01
4.599490440e-01,6.22261e-03,9.99999e-01,9.99999e-01,9.99999e-01,9.99997e-01,6.22263e-03,9.99999e-01
4.622487892e-01,6.87936e-03,9.99999e-01,9.99999e-01,9.99999e-01,9.99999e-01,6.87936e-03,9.99999e-01
4.645600332e-01,7.59034e-03,9.99999e-01,9.99999e-01,9.99999e-01,9.99998e-01,7.59035e-03,9.99999e-01
4.668828333e-01,8.35838e-03,9.99999e-01,9.99999e-01,9.99999e-01,9.99977e-01,8.35857e-03,9.99999e-01
4.692172475e-01,9.18659e-03,9.99999e-01,9.99999e-01,9.99999e-01,9.99951e-01,9.18703e-03,9.99999e-01
4.715633337e-01,1.00784e-02,9.99999e-01,9.99999e-01,9.99999e-01,9.99968e-01,1.00788e-02,9.99999e-01
4.739211504e-01,1.10365e-02,9.99999e-01,9.99999e-01,9.99999e-01,9.99969e-01,1.10368e-02,9.99999e-01
4.762907561e-01,1.20642e-02,9.99999e-01,9.99999e-01,9.99999e-01,9.99983e-01,1.20643e-02,9.99999e-01
4.786722099e-01,1.31642e-02,9.99999e-01,9.99999e-01,9.99999e-01,9.99993e-01,1.31643e-02,9.99999e-01
4.810655710e-01,1.43398e-02,9.99999e-01,9.99999e-01,9.99999e-01,9.99997e-01,1.43399e-02,9.99999e-01
4.834708988e-01,1.55937e-02,9.99999e-01,9.99999e-01,9.99999e-01,9.99981e-01,1.55940e-02,9.99999e-01
4.858882533e-01,1.69292e-02,9.99999e-01,9.99999e-01,9.99999e-01,9.99965e-01,1.69298e-02,9.99999e-01
4.883176946e-01,1.83496e-02,9.99999e-01,9.99999e-01,9.99999e-01,9.99971e-01,1.83502e-02,9.99999e-01
4.907592831e-01,1.98576e-02,9.99999e-01,9.99999e-01,9.99999e-01,9.99973e-01,1.98581e-02,9.99999e-01
4.932130795e-01,2.14560e-02,9.99999e-01,9.99999e-01,9.99999e-01,9.99981e-01,2.14564e-02,9.99999e-01
4.956791449e-01,2.31478e-02,9.99999e-01,9.99999e-01,9.99999e-01,9.99989e-01,2.31480e-02,9.99999e-01
4.981575406e-01,2.49343e-02,9.99999e-01,9.99999e-01,9.99999e-01,9.99951e-01,2.49355e-02,9.99999e-01
5.006483283e-01,2.68183e-02,9.99999e-01,9.99999e-01,9.99999e-01,9.99875e-01,2.68216e-02,9.99998e-01
5.031515699e-01,2.87904e-02,9.99999e-01,9.99999e-01,9.99999e-01,9.99365e-01,2.88089e-02,9.99992e-01
5.056673278e-01,3.08891e-02,9.99999e-01,9.99999e-01,9.99999e-01,9.99663e-01,3.08997e-02,9.99991e-01
5.081956644e-01,3.30823e-02,9.99999e-01,9.99999e-01,9.99999e-01,9.99576e-01,3.30965e-02,9.99994e-01
5.107366428e-01,3.53912e-02,9.99999e-01,9.99999e-01,9.99999e-01,9.99713e-01,3.54013e-02,9.99998e-01
5.132903260e-01,3.78102e-02,9.99999e-01,9.99999e-01,9.99999e-01,9.99835e-01,3.78164e-02,9.99999e-01
5.158567776e-01,4.03408e-02,9.99999e-01,9.99999e-01,9.99999e-01,9.99930e-01,4.03436e-02,9.99999e-01
5.184360615e-01,4.29835e-02,9.99999e-01,9.99999e-01,9.99999e-01,9.99971e-01,4.29847e-02,9.99999e-01
5.210282418e-01,4.57409e-02,9.99999e-01,9.99999e-01,9.99999e-01,9.99989e-01,4.57414e-02,9.99999e-01
5.236333830e-01,4.86131e-02,9.99999e-01,9.99999e-01,9.99999e-01,9.99958e-01,4.86151e-02,9.99999e-01
5.262515499e-01,5.16059e-02,9.99999e-01,9.99999e-01,9.99999e-01,9.99973e-01,5.16073e-02,9.99999e-01
5.288828077e-01,5.47177e-02,9.99999e-01,9.99999e-01,9.99999e-01,9.99975e-01,5.47190e-02,9.99999e-01
5.315272217e-01,5.79501e-02,9.99999e-01,9.99999e-01,9.99999e-01,9.99978e-01,5.79513e-02,9.99999e-01
5.341848578e-01,6.13041e-02,9.99999e-01,9.99999e-01,9.99999e-01,9.99985e-01,6.13049e-02,9.99999e-01
5.368557821e-01,6.47776e-02,9.99999e-01,9.99999e-01,9.99999e-01,9.99951e-01,6.47807e-02,9.99999e-01
5.395400610e-01,6.83671e-02,9.99999e-01,9.99999e-01,9.99999e-01,9.99827e-01,6.83789e-02,9.99998e-01
5.422377613e-01,7.20835e-02,9.99999e-01,9.99999e-01,9.99999e-01,9.99774e-01,7.21000e-02,9.99995e-01
5.449489501e-01,7.59280e-02,9.99999e-01,9.99999e-01,9.99999e-01,9.99791e-01,7.59441e-02,9.99995e-01
5.476736949e-01,7.98961e-02,9.99999e-01,9.99999e-01,9.99999e-01,9.99813e-01,7.99111e-02,9.99997e-01
5.504120634e-01,8.39894e-02,9.99999e-01,9.99999e-01,9.99999e-01,9.99864e-01,8.40008e-02,9.99998e-01
5.531641237e-01,8.82068e-02,9.99999e-01,9.99999e-01,9.99999e-01,9.99931e-01,8.82128e-02,9.99999e-01
5.559299443e-01,9.25434e-02,9.99999e-01,9.99999e-01,9.99999e-01,9.99966e-01,9.25465e-02,9.99999e-01
5.587095940e-01,9.69991e-02,9.99999e-01,9.99999e-01,9.99999e-01,9.99979e-01,9.70011e-02,9.99999e-01
5.615031420e-01,1.01574e-01,9.99999e-01,9.99999e-01,9.99999e-01,9.99976e-01,1.01576e-01,9.99999e-01
5.643106577e-01,1.06267e-01,9.99999e-01,9.99999e-01,9.99999e-01,9.99973e-01,1.06270e-01,9.99999e-01
5.671322110e-01,1.11046e-01,9.99999e-01,9.99999e-01,9.99999e-01,9.99690e-01,1.11081e-01,9.99996e-01
5.699678720e-01,1.15969e-01,9.99999e-01,9.99999e-01,9.99999e-01,9.99663e-01,1.16009e-01,9.99990e-01
5.728177114e-01,1.21008e-01,9.99999e-01,9.99999e-01,9.99999e-01,9.99652e-01,1.21051e-01,9.99992e-01
5.756818000e-01,1.26166e-01,9.99999e-01,9.99999e-01,9.99999e-01,9.99680e-01,1.26207e-01,9.99995e-01
5.785602090e-01,1.31437e-01,9.99999e-01,9.99999e-01,9.99999e-01,9.99720e-01,1.31474e-01,9.99998e-01
5.814530100e-01,1.36811e-01,9.99999e-01,9.99999e-01,9.99999e-01,9.99720e-01,1.36850e-01,9.99998e-01
5.843602750e-01,1.42285e-01,9.99999e-01,9.99999e-01,9.99999e-01,9.99668e-01,1.42333e-01,9.99997e-01
5.872820764e-01,1.47495e-01,9.99999e-01,9.99999e-01,9.99999e-01,9.97143e-01,1.47921e-01,9.99979e-01
5.902184868e-01,1.53068e-01,9.99999e-01,9.99999e-01,9.99999e-01,9.96515e-01,1.53611e-01,9.99944e-01
5.931695792e-01,1.59002e-01,9.99999e-01,9.99999e-01,9.99999e-01,9.97543e-01,1.59402e-01,9.99946e-01
5.961354271e-01,1.64839e-01,9.99999e-01,9.99999e-01,9.99999e-01,9.97302e-01,1.65290e-01,9.99967e-01
5.991161043e-01,1.70934e-01,9.99999e-01,9.99999e-01,9.99999e-01,9.98030e-01,1.71273e-01,9.99990e-01
6.021116848e-01,1.77149e-01,9.99999e-01,9.99999e-01,9.99999e-01,9.98880e-01,1.77347e-01,9.99998e-01
6.051222432e-01,1.83407e-01,9.99999e-01,9.99999e-01,9.99999e-01,9.99433e-01,1.83511e-01,9.99999e-01
6.081478544e-01,1.89714e-01,9.99999e-01,9.99999e-01,9.99999e-01,9.99755e-01,1.89761e-01,9.99999e-01
6.111885937e-01,1.96073e-01,9.99999e-01,9.99999e-01,9.99999e-01,9.99896e-01,1.96094e-01,9.99999e-01
6.142445367e-01,2.02497e-01,9.99999e-01,9.99999e-01,9.99999e-01,9.99953e-01,2.02507e-01,9.99999e-01
6.173157594e-01,2.08991e-01,9.99999e-01,9.99999e-01,9.99999e-01,9.99974e-01,2.08996e-01,9.99999e-01
6.204023382e-01,2.15555e-01,9.99999e-01,9.99999e-01,9.99999e-01,9.99978e-01,2.15560e-01,9.99999e-01
6.235043498e-01,2.22173e-01,9.99999e-01,9.99999e-01,9.99999e-01,9.99906e-01,2.22193e-01,9.99999e-01
6.266218716e-01,2.28779e-01,9.99999e-01,9.99999e-01,9.99999e-01,9.99499e-01,2.28894e-01,9.99995e-01
6.297549810e-01,2.35614e-01,9.99999e-01,9.99999e-01,9.99999e-01,9.99816e-01,2.35659e-01,9.99992e-01
6.329037559e-01,2.42394e-01,9.99999e-01,9.99999e-01,9.99999e-01,9.99636e-01,2.42484e-01,9.99993e-01
6.360682746e-01,2.49288e-01,9.99999e-01,9.99999e-01,9.99999e-01,9.99691e-01,2.49366e-01,9.99996e-01
6.392486160e-01,2.56198e-01,9.99999e-01,9.99999e-01,9.99999e-01,9.99599e-01,2.56301e-01,9.99998e-01
6.424448591e-01,2.63146e-01,9.99999e-01,9.99999e-01,9.99999e-01,9.99467e-01,2.63287e-01,9.99997e-01
6.456570834e-01,2.69648e-01,9.99999e-01,9.99999e-01,9.99999e-01,9.97527e-01,2.70319e-01,9.99985e-01
6.488853688e-01,2.76791e-01,9.99999e-01,9.99999e-01,9.99999e-01,9.97859e-01,2.77395e-01,9.99960e-01
6.521297956e-01,2.83972e-01,9.99999e-01,9.99999e-01,9.99999e-01,9.98138e-01,2.84511e-01,9.99967e-01
6.553904446e-01,2.91121e-01,9.99999e-01,9.99999e-01,9.99999e-01,9.98161e-01,2.91664e-01,9.99975e-01
6.586673968e-01,2.98372e-01,9.99999e-01,9.99999e-01,9.99999e-01,9.98412e-01,2.98849e-01,9.99991e-01
6.619607338e-01,3.05783e-01,9.99999e-01,9.99999e-01,9.99999e-01,9.99082e-01,3.06065e-01,9.99997e-01
6.652705375e-01,3.13140e-01,9.99999e-01,9.99999e-01,9.99999e-01,9.99467e-01,3.13307e-01,9.99998e-01
6.685968902e-01,3.20493e-01,9.99999e-01,9.99999e-01,9.99999e-01,9.99752e-01,3.20572e-01,9.99999e-01
6.719398746e-01,3.27820e-01,9.99999e-01,9.99999e-01,9.99999e-01,9.99884e-01,3.27857e-01,9.99999e-01
6.752995740e-01,3.35138e-01,9.99999e-01,9.99999e-01,9.99999e-01,9.99937e-01,3.35159e-01,9.99999e-01
6.786760719e-01,3.42444e-01,9.99999e-01,9.99999e-01,9.99999e-01,9.99910e-01,3.42475e-01,9.99999e-01
6.820694522e-01,3.49747e-01,9.99999e-01,9.99999e-01,9.99999e-01,9.99847e-01,3.49801e-01,9.99998e-01
6.854797995e-01,3.57063e-01,9.99999e-01,9.99999e-01,9.99999e-01,9.99803e-01,3.57134e-01,9.99997e-01
6.889071985e-01,3.64299e-01,9.99999e-01,9.99999e-01,9.99999e-01,9.99529e-01,3.64472e-01,9.99995e-01
6.923517345e-01,3.68922e-01,9.99999e-01,9.99999e-01,9.99999e-01,9.92266e-01,3.71811e-01,9.99962e-01
6.958134932e-01,3.77565e-01,9.99999e-01,9.99999e-01,9.99999e-01,9.95906e-01,3.79149e-01,9.99915e-01
6.992925606e-01,3.84975e-01,9.99999e-01,9.99999e-01,9.99999e-01,9.96173e-01,3.86482e-01,9.99925e-01
7.027890234e-01,3.91914e-01,9.99999e-01,9.99999e-01,9.99999e-01,9.95246e-01,3.93808e-01,9.99942e-01
7.063029686e-01,3.99511e-01,9.99999e-01,9.99999e-01,9.99999e-01,9.96006e-01,4.01124e-01,9.99971e-01
7.098344834e-01,4.06856e-01,9.99999e-01,9.99999e-01,9.99999e-01,9.96168e-01,4.08427e-01,9.99982e-01
7.133836558e-01,4.13601e-01,9.99999e-01,9.99999e-01,9.99999e-01,9.94945e-01,4.15715e-01,9.99966e-01
7.169505741e-01,4.05845e-01,9.99999e-01,9.99999e-01,9.99999e-01,9.59727e-01,4.22986e-01,9.99738e-01
7.205353270e-01,4.21358e-01,9.99999e-01,9.99999e-01,9.99999e-01,9.79817e-01,4.30236e-01,9.99538e-01
7.241380036e-01,4.26247e-01,9.99999e-01,9.99999e-01,9.99999e-01,9.74748e-01,4.37464e-01,9.99601e-01
7.277586936e-01,4.34372e-01,9.99999e-01,9.99999e-01,9.99999e-01,9.77168e-01,4.44666e-01,9.99673e-01
7.313974871e-01,4.40763e-01,9.99999e-01,9.99999e-01,9.99999e-01,9.75629e-01,4.51842e-01,9.99846e-01
7.350544745e-01,4.52834e-01,9.99999e-01,9.99999e-01,9.99999e-01,9.86643e-01,4.58988e-01,9.99946e-01
7.387297469e-01,4.61502e-01,9.99999e-01,9.99999e-01,9.99999e-01,9.90153e-01,4.66103e-01,9.99975e-01
7.424233956e-01,4.70893e-01,9.99999e-01,9.99999e-01,9.99999e-01,9.95163e-01,4.73184e-01,9.99994e-01
7.461355126e-01,4.78823e-01,9.99999e-01,9.99999e-01,9.99999e-01,9.97071e-01,4.80229e-01,9.99998e-01
7.498661902e-01,4.86572e-01,9.99999e-01,9.99999e-01,9.99999e-01,9.98632e-01,4.87238e-01,9.99999e-01
7.536155211e-01,4.93876e-01,9.99999e-01,9.99999e-01,9.99999e-01,9.99330e-01,4.94207e-01,9.99999e-01
7.573835987e-01,5.00963e-01,9.99999e-01,9.99999e-01,9.99999e-01,9.99655e-01,5.01135e-01,9.99999e-01
7.611705167e-01,5.07912e-01,9.99999e-01,9.99999e-01,9.99999e-01,9.99785e-01,5.08021e-01,9.99999e-01
7.649763693e-01,5.14793e-01,9.99999e-01,9.99999e-01,9.99999e-01,9.99865e-01,5.14862e-01,9.99999e-01
7.688012511e-01,5.21609e-01,9.99999e-01,9.99999e-01,9.99999e-01,9.99906e-01,5.21658e-01,9.99999e-01
7.726452574e-01,5.28366e-01,9.99999e-01,9.99999e-01,9.99999e-01,9.99922e-01,5.28407e-01,9.99999e-01
7.765084837e-01,5.35049e-01,9.99999e-01,9.99999e-01,9.99999e-01,9.99891e-01,5.35107e-01,9.99999e-01
7.803910261e-01,5.26377e-01,9.99999e-01,9.99999e-01,9.72053e-01,9.99532e-01,5.41757e-01,9.99999e-01
7.842929812e-01,4.81474e-01,9.99999e-01,9.99999e-01,8.79408e-01,9.98368e-01,5.48356e-01,9.99996e-01
7.882144461e-01,4.82246e-01,9.99999e-01,9.99999e-01,8.71931e-01,9.96618e-01,5.54902e-01,9.99978e-01
7.921555184e-01,5.17525e-01,9.99999e-01,9.99999e-01,9.23578e-01,9.98137e-01,5.61395e-01,9.99959e-01
7.961162960e-01,5.36498e-01,9.99999e-01,9.99999e-01,9.47918e-01,9.96737e-01,5.67834e-01,9.99961e-01
8.000968774e-01,5.55707e-01,9.99999e-01,9.99999e-01,9.71470e-01,9.96216e-01,5.74217e-01,9.99958e-01
8.040973618e-01,5.69702e-01,9.99999e-01,9.99999e-01,9.85074e-01,9.96219e-01,5.80544e-01,9.99967e-01
8.081178486e-01,5.77846e-01,9.99999e-01,9.99999e-01,9.93145e-01,9.91534e-01,5.86813e-01,9.99969e-01
8.121584379e-01,5.71022e-01,9.99999e-01,9.99999e-01,9.97864e-01,9.65056e-01,5.93024e-01,9.99880e-01
8.162192301e-01,5.73670e-01,9.99999e-01,9.99999e-01,9.99527e-01,9.58304e-01,5.99177e-01,9.99550e-01
8.203003262e-01,5.92395e-01,9.99999e-01,9.99999e-01,9.99991e-01,9.79250e-01,6.05269e-01,9.99474e-01
8.244018279e-01,5.93021e-01,9.99999e-01,9.99999e-01,9.99999e-01,9.70500e-01,6.11302e-01,9.99581e-01
8.285238370e-01,6.01681e-01,9.99999e-01,9.99999e-01,9.99999e-01,9.75059e-01,6.17274e-01,9.99671e-01
8.326664562e-01,6.07336e-01,9.99999e-01,9.99999e-01,9.99999e-01,9.74702e-01,6.23184e-01,9.99863e-01
8.368297885e-01,6.17603e-01,9.99999e-01,9.99999e-01,9.99999e-01,9.81860e-01,6.29032e-01,9.99968e-01
8.410139374e-01,6.27942e-01,9.99999e-01,9.99999e-01,9.99999e-01,9.89185e-01,6.34819e-01,9.99981e-01
8.452190071e-01,6.37128e-01,9.99999e-01,9.99999e-01,9.99999e-01,9.94680e-01,6.40542e-01,9.99988e-01
8.494451021e-01,6.44208e-01,9.99999e-01,9.99999e-01,9.99999e-01,9.96920e-01,6.46203e-01,9.99990e-01
8.536923276e-01,6.50606e-01,9.99999e-01,9.99999e-01,9.99999e-01,9.98173e-01,6.51801e-01,9.99993e-01
8.579607893e-01,6.56596e-01,9.99999e-01,9.99999e-01,9.99999e-01,9.98877e-01,6.57334e-01,9.99997e-01
8.622505932e-01,6.62331e-01,9.99999e-01,9.99999e-01,9.99999e-01,9.99285e-01,6.62805e-01,9.99999e-01
8.665618462e-01,6.24331e-01,9.99999e-01,9.99999e-01,9.34728e-01,9.99559e-01,6.68211e-01,9.99999e-01
8.708946554e-01,4.85703e-01,9.99999e-01,9.99999e-01,7.21457e-01,9.99496e-01,6.73553e-01,9.99999e-01
8.752491287e-01,5.21571e-01,9.99999e-01,9.99999e-01,7.68841e-01,9.99325e-01,6.78832e-01,9.99998e-01
8.796253743e-01,5.91721e-01,9.99999e-01,9.99999e-01,8.65819e-01,9.99068e-01,6.84046e-01,9.99997e-01
8.840235012e-01,6.39005e-01,9.99999e-01,9.99999e-01,9.28156e-01,9.98935e-01,6.89196e-01,9.99993e-01
8.884436187e-01,6.71557e-01,9.99999e-01,9.99999e-01,9.70975e-01,9.96170e-01,6.94282e-01,9.99981e-01
8.928858368e-01,6.63303e-01,9.99999e-01,9.99999e-01,9.88170e-01,9.59894e-01,6.99304e-01,9.99892e-01
8.973502660e-01,6.52437e-01,9.99999e-01,9.99999e-01,9.97100e-01,9.29567e-01,7.04262e-01,9.99453e-01
9.018370173e-01,6.82256e-01,9.99999e-01,9.99999e-01,9.99679e-01,9.63194e-01,7.09156e-01,9.99141e-01
9.063462024e-01,6.85211e-01,9.99999e-01,9.99999e-01,9.92003e-01,9.67957e-01,7.13986e-01,9.99245e-01
9.108779334e-01,6.69919e-01,9.99999e-01,9.99999e-01,9.81416e-01,9.50265e-01,7.18753e-01,9.99216e-01
9.154323231e-01,6.79271e-01,9.99999e-01,9.99999e-01,9.95575e-01,9.43630e-01,7.23457e-01,9.99351e-01
9.200094847e-01,6.53736e-01,9.99999e-01,9.99999e-01,9.38137e-01,9.55472e-01,7.28098e-01,9.99637e-01
9.246095321e-01,6.23615e-01,9.99999e-01,9.99999e-01,9.12294e-01,9.32060e-01,7.32676e-01,9.99581e-01
9.292325798e-01,4.28528e-01,9.99999e-01,9.99999e-01,9.31044e-01,6.21300e-01,7.37191e-01,9.98371e-01
9.338787427e-01,3.72480e-01,9.99999e-01,9.99999e-01,9.32814e-01,5.38515e-01,7.41644e-01,9.93286e-01
9.385481364e-01,5.49267e-01,9.99999e-01,9.99999e-01,9.50230e-01,7.79039e-01,7.46036e-01,9.92020e-01
9.432408771e-01,5.11966e-01,9.99999e-01,9.99999e-01,9.69169e-01,7.07816e-01,7.50366e-01,9.93112e-01
9.479570815e-01,4.58764e-01,9.99999e-01,9.99999e-01,9.84101e-01,6.20767e-01,7.54634e-01,9.94390e-01
9.526968669e-01,5.24281e-01,9.99999e-01,9.99999e-01,9.92292e-01,6.98230e-01,7.58842e-01,9.96574e-01
9.574603512e-01,5.46500e-01,9.99999e-01,9.99999e-01,9.96695e-01,7.19753e-01,7.62990e-01,9.98258e-01
9.622476530e-01,5.85476e-01,9.99999e-01,9.99999e-01,9.98967e-01,7.64924e-01,7.67078e-01,9.98795e-01
9.670588912e-01,6.60190e-01,9.99999e-01,9.99999e-01,9.99689e-01,8.57119e-01,7.71106e-01,9.99175e-01
9.718941857e-01,7.03588e-01,9.99999e-01,9.99999e-01,9.99977e-01,9.08336e-01,7.75075e-01,9.99393e-01
9.767536566e-01,7.18927e-01,9.99999e-01,9.99999e-01,9.99999e-01,9.23328e-01,7.78986e-01,9.99536e-01
9.816374249e-01,7.37719e-01,9.99999e-01,9.99999e-01,9.99999e-01,9.42514e-01,7.82839e-01,9.99839e-01
9.865456120e-01,7.58048e-01,9.99999e-01,9.99999e-01,9.99999e-01,9.63692e-01,7.86633e-01,9.99966e-01
9.914783401e-01,7.72517e-01,9.99999e-01,9.99999e-01,9.99999e-01,9.77419e-01,7.90371e-01,9.99990e-01
9.964357318e-01,7.84233e-01,9.99999e-01,9.99999e-01,9.99999e-01,9.87638e-01,7.94053e-01,9.99994e-01
1.001417910e+00,7.91748e-01,9.99999e-01,9.99999e-01,9.99999e-01,9.92573e-01,7.97678e-01,9.99991e-01
1.006425000e+00,7.97847e-01,9.99999e-01,9.99999e-01,9.99999e-01,9.95767e-01,8.01247e-01,9.99987e-01
1.011457125e+00,8.02634e-01,9.99999e-01,9.99999e-01,9.99999e-01,9.97365e-01,8.04762e-01,9.99988e-01
1.016514411e+00,8.06772e-01,9.99999e-01,9.99999e-01,9.99999e-01,9.98213e-01,8.08222e-01,9.99991e-01
1.021596983e+00,8.10436e-01,9.99999e-01,9.99999e-01,9.99960e-01,9.98576e-01,8.11628e-01,9.99991e-01
1.026704968e+00,8.11542e-01,9.99999e-01,9.99999e-01,9.96888e-01,9.98890e-01,8.14981e-01,9.99994e-01
1.031838492e+00,7.87382e-01,9.99999e-01,9.99999e-01,9.62996e-01,9.99192e-01,8.18281e-01,9.99998e-01
1.036997685e+00,1.47747e-01,9.99999e-01,9.99999e-01,1.79913e-01,9.99520e-01,8.21529e-01,9.99999e-01
1.042182673e+00,1.34071e-01,9.99999e-01,9.99999e-01,1.62647e-01,9.99430e-01,8.24726e-01,9.99999e-01
1.047393587e+00,1.49208e-01,9.99999e-01,9.99999e-01,1.80352e-01,9.99243e-01,8.27871e-01,9.99999e-01
1.052630555e+00,6.73759e-03,9.99999e-01,9.99999e-01,8.11444e-03,9.98963e-01,8.30965e-01,9.99999e-01
1.057893707e+00,1.56604e-02,9.99999e-01,9.99999e-01,1.87999e-02,9.98271e-01,8.34010e-01,9.99998e-01
1.063183176e+00,4.52020e-02,9.99999e-01,9.99999e-01,5.41182e-02,9.97154e-01,8.37006e-01,9.99998e-01
1.068499092e+00,1.12911e-01,9.99999e-01,9.99999e-01,1.34979e-01,9.95232e-01,8.39953e-01,9.99996e-01
1.073841587e+00,2.36115e-01,9.99999e-01,9.99999e-01,2.81497e-01,9.94430e-01,8.42851e-01,9.99992e-01
