#,Wave/freq,Total,N2,O2,CO2,H2O,Rayleigh,CIA
4.000000000e-01,2.92785e-14,9.99999e-01,9.99999e-01,9.99999e-01,9.99939e-01,2.92802e-14,9.99999e-01
4.020000000e-01,5.42190e-14,9.99999e-01,9.99999e-01,9.99999e-01,9.99962e-01,5.42210e-14,9.99999e-01
4.040100000e-01,9.91275e-14,9.99999e-01,9.99999e-01,9.99999e-01,9.99983e-01,9.91290e-14,9.99999e-01
4.060300500e-01,1.79084e-13,9.99999e-01,9.99999e-01,9.99999e-01,9.99995e-01,1.79085e-13,9.99999e-01
4.080602003e-01,3.19773e-13,9.99999e-01,9.99999e-01,9.99999e-01,9.99998e-01,3.19773e-13,9.99999e-01
4.101005013e-01,5.64485e-13,9.99999e-01,9.99999e-01,9.99999e-01,9.99999e-01,5.64485e-13,9.99999e-01
4.121510038e-01,9.85341e-13,9.99999e-01,9.99999e-01,9.99999e-01,9.99997e-01,9.85343e-13,9.99999e-01
4.142117588e-01,1.70113e-12,9.99999e-01,9.99999e-01,9.99999e-01,9.99983e-01,1.70115e-12,9.99999e-01
4.162828176e-01,2.90525e-12,9.99999e-01,9.99999e-01,9.99999e-01,9.99925e-01,2.90547e-12,9.99999e-01
4.183642317e-01,4.90994e-12,9.99999e-01,9.99999e-01,9.99999e-01,9.99955e-01,4.91016e-12,9.99999e-01
4.204560528e-01,8.21226e-12,9.99999e-01,9.99999e-01,9.99999e-01,9.99972e-01,8.21249e-12,9.99999e-01
4.225583331e-01,1.35968e-11,9.99999e-01,9.99999e-01,9.99999e-01,9.99989e-01,1.35969e-11,9.99999e-01
4.246711247e-01,2.22884e-11,9.99999e-01,9.99999e-01,9.99999e-01,9.99991e-01,2.22886e-11,9.99999e-01
4.267944804e-01,3.61809e-11,9.99999e-01,9.99999e-01,9.99999e-01,9.99987e-01,3.61813e-11,9.99999e-01
4.289284528e-01,5.81736e-11,9.99999e-01,9.99999e-01,9.99999e-01,9.99990e-01,5.81742e-11,9.99999e-01
4.310730950e-01,9.26617e-11,9.99999e-01,9.99999e-01,9.99999e-01,9.99995e-01,9.26621e-11,9.99999e-01
4.332284605e-01,1.46245e-10,9.99999e-01,9.99999e-01,9.99999e-01,9.99998e-01,1.46245e-10,9.99999e-01
4.353946028e-01,2.28741e-10,9.99999e-01,9.99999e-01,9.99999e-01,9.99999e-01,2.28741e-10,9.99999e-01
4.375715758e-01,3.54624e-10,9.99999e-01,9.99999e-01,9.99999e-01,9.99992e-01,3.54627e-10,9.99999e-01
4.397594337e-01,5.45015e-10,9.99999e-01,9.99999e-01,9.99999e-01,9.99934e-01,5.45051e-10,9.99999e-01
4.419582309e-01,8.30369e-10,9.99999e-01,9.99999e-01,9.99999e-01,9.99667e-01,8.30645e-10,9.99999e-01
4.441680220e-01,1.25507e-09,9.99999e-01,9.99999e-01,9.99999e-01,9.99741e-01,1.25539e-09,9.99999e-01
4.463888621e-01,1.88141e-09,9.99999e-01,9.99999e-01,9.99999e-01,9.99730e-01,1.88192e-09,9.99999e-01
4.486208064e-01,2.79818e-09,9.99999e-01,9.99999e-01,9.99999e-01,9.99832e-01,2.79865e-09,9.99999e-01
4.508639105e-01,4.12913e-09,9.99999e-01,9.99999e-01,9.99999e-01,9.99921e-01,4.12945e-09,9.99999e-01
4.531182300e-01,6.04625e-09,9.99999e-01,9.99999e-01,9.99999e-01,9.99968e-01,6.04644e-09,9.99999e-01
4.553838212e-01,8.78671e-09,9.99999e-01,9.99999e-01,9.99999e-01,9.99978e-01,8.78689e-09,9.99999e-01
4.576607403e-01,1.26754e-08,9.99999e-01,9.99999e-01,9.99999e-01,9.99989e-01,1.26755e-08,9.99999e-01
4.599490440e-01,1.81530e-08,9.99999e-01,9.99999e-01,9.99999e-01,9.99992e-01,1.81531e-08,9.99999e-01
4.622487892e-01,2.58140e-08,9.99999e-01,9.99999e-01,9.99999e-01,9.99998e-01,2.58140e-08,9.99999e-01
4.645600332e-01,3.64534e-08,9.99999e-01,9.99999e-01,9.99999e-01,9.99994e-01,3.64536e-08,9.99999e-01
4.668828333e-01,5.11246e-08,9.99999e-01,9.99999e-01,9.99999e-01,9.99920e-01,5.11286e-08,9.99999e-01
4.692172475e-01,7.12218e-08,9.99999e-01,9.99999e-01,9.99999e-01,9.99830e-01,7.12338e-08,9.99999e-01
4.715633337e-01,9.85860e-08,9.99999e-01,9.99999e-01,9.99999e-01,9.99889e-01,9.85969e-08,9.99999e-01
4.739211504e-01,1.35583e-07,9.99999e-01,9.99999e-01,9.99999e-01,9.99894e-01,1.35598e-07,9.99999e-01
4.762907561e-01,1.85303e-07,9.99999e-01,9.99999e-01,9.99999e-01,9.99944e-01,1.85313e-07,9.99999e-01
4.786722099e-01,2.51694e-07,9.99999e-01,9.99999e-01,9.99999e-01,9.99977e-01,2.51700e-07,9.99999e-01
4.810655710e-01,3.39804e-07,9.99999e-01,9.99999e-01,9.99999e-01,9.99992e-01,3.39806e-07,9.99999e-01
4.834708988e-01,4.56013e-07,9.99999e-01,9.99999e-01,9.99999e-01,9.99934e-01,4.56043e-07,9.99999e-01
4.858882533e-01,6.08421e-07,9.99999e-01,9.99999e-01,9.99999e-01,9.99880e-01,6.08493e-07,9.99999e-01
4.883176946e-01,8.07214e-07,9.99999e-01,9.99999e-01,9.99999e-01,9.99899e-01,8.07295e-07,9.99999e-01
4.907592831e-01,1.06499e-06,9.99999e-01,9.99999e-01,9.99999e-01,9.99909e-01,1.06508e-06,9.99999e-01
4.932130795e-01,1.39743e-06,9.99999e-01,9.99999e-01,9.99999e-01,9.99935e-01,1.39752e-06,9.99999e-01
4.956791449e-01,1.82384e-06,9.99999e-01,9.99999e-01,9.99999e-01,9.99965e-01,1.82390e-06,9.99999e-01
4.981575406e-01,2.36748e-06,9.99999e-01,9.99999e-01,9.99999e-01,9.99829e-01,2.36788e-06,9.99999e-01
5.006483283e-01,3.05695e-06,9.99999e-01,9.99999e-01,9.99999e-01,9.99559e-01,3.05831e-06,9.99996e-01
5.031515699e-01,3.92128e-06,9.99999e-01,9.99999e-01,9.99999e-01,9.97772e-01,3.93012e-06,9.99976e-01
5.056673278e-01,5.01947e-06,9.99999e-01,9.99999e-01,9.99999e-01,9.98824e-01,5.02551e-06,9.99972e-01
5.081956644e-01,6.38547e-06,9.99999e-01,9.99999e-01,9.99999e-01,9.98516e-01,6.39506e-06,9.99982e-01
5.107366428e-01,8.09107e-06,9.99999e-01,9.99999e-01,9.99999e-01,9.98998e-01,8.09920e-06,9.99996e-01
5.132903260e-01,1.02039e-05,9.99999e-01,9.99999e-01,9.99999e-01,9.99427e-01,1.02097e-05,9.99999e-01
5.158567776e-01,1.28083e-05,9.99999e-01,9.99999e-01,9.99999e-01,9.99757e-01,1.28114e-05,9.99999e-01
5.184360615e-01,1.60027e-05,9.99999e-01,9.99999e-01,9.99999e-01,9.99902e-01,1.60042e-05,9.99999e-01
5.210282418e-01,1.99043e-05,9.99999e-01,9.99999e-01,9.99999e-01,9.99963e-01,1.99050e-05,9.99999e-01
5.236333830e-01,2.46466e-05,9.99999e-01,9.99999e-01,9.99999e-01,9.99854e-01,2.46502e-05,9.99998e-01
5.262515499e-01,3.03951e-05,9.99999e-01,9.99999e-01,9.99999e-01,9.99908e-01,3.03979e-05,9.99998e-01
5.288828077e-01,3.73277e-05,9.99999e-01,9.99999e-01,9.99999e-01,9.99916e-01,3.73309e-05,9.99998e-01
5.315272217e-01,4.56561e-05,9.99999e-01,9.99999e-01,9.99999e-01,9.99926e-01,4.56594e-05,9.99999e-01
5.341848578e-01,5.56218e-05,9.99999e-01,9.99999e-01,9.99999e-01,9.99951e-01,5.56244e-05,9.99999e-01
5.368557821e-01,6.74891e-05,9.99999e-01,9.99999e-01,9.99999e-01,9.99830e-01,6.75005e-05,9.99999e-01
5.395400610e-01,8.15495e-05,9.99999e-01,9.99999e-01,9.99999e-01,9.99388e-01,8.15997e-05,9.99994e-01
5.422377613e-01,9.81961e-05,9.99999e-01,9.99999e-01,9.99999e-01,9.99211e-01,9.82750e-05,9.99985e-01
5.449489501e-01,1.17836e-04,9.99999e-01,9.99999e-01,9.99999e-01,9.99265e-01,1.17924e-04,9.99984e-01
5.476736949e-01,1.40900e-04,9.99999e-01,9.99999e-01,9.99999e-01,9.99350e-01,1.40993e-04,9.99992e-01
5.504120634e-01,1.67902e-04,9.99999e-01,9.99999e-01,9.99999e-01,9.99528e-01,1.67981e-04,9.99997e-01
5.531641237e-01,1.99397e-04,9.99999e-01,9.99999e-01,9.99999e-01,9.99762e-01,1.99444e-04,9.99999e-01
5.559299443e-01,2.35971e-04,9.99999e-01,9.99999e-01,9.99999e-01,9.99885e-01,2.35998e-04,9.99999e-01
5.587095940e-01,2.78305e-04,9.99999e-01,9.99999e-01,9.99999e-01,9.99927e-01,2.78325e-04,9.99999e-01
5.615031420e-01,3.27150e-04,9.99999e-01,9.99999e-01,9.99999e-01,9.99919e-01,3.27176e-04,9.99999e-01
5.643106577e-01,3.83340e-04,9.99999e-01,9.99999e-01,9.99999e-01,9.99908e-01,3.83375e-04,9.99998e-01
5.671322110e-01,4.47323e-04,9.99999e-01,9.99999e-01,9.99999e-01,9.98895e-01,4.47822e-04,9.99989e-01
5.699678720e-01,5.20874e-04,9.99999e-01,9.99999e-01,9.99999e-01,9.98828e-01,5.21500e-04,9.99969e-01
5.728177114e-01,6.04722e-04,9.99999e-01,9.99999e-01,9.99999e-01,9.98779e-01,6.05475e-04,9.99974e-01
5.756818000e-01,7.00108e-04,9.99999e-01,9.99999e-01,9.99999e-01,9.98879e-01,7.00903e-04,9.99984e-01
5.785602090e-01,8.08236e-04,9.99999e-01,9.99999e-01,9.99999e-01,9.99023e-01,8.09029e-04,9.99994e-01
5.814530100e-01,9.30278e-04,9.99999e-01,9.99999e-01,9.99999e-01,9.99019e-01,9.31193e-04,9.99997e-01
5.843602750e-01,1.06757e-03,9.99999e-01,9.99999e-01,9.99999e-01,9.98830e-01,1.06883e-03,9.99992e-01
5.872820764e-01,1.21112e-03,9.99999e-01,9.99999e-01,9.99999e-01,9.89967e-01,1.22347e-03,9.99928e-01
5.902184868e-01,1.37953e-03,9.99999e-01,9.99999e-01,9.99999e-01,9.87853e-01,1.39676e-03,9.99806e-01
5.931695792e-01,1.57647e-03,9.99999e-01,9.99999e-01,9.99999e-01,9.91409e-01,1.59042e-03,9.99814e-01
5.961354271e-01,1.78910e-03,9.99999e-01,9.99999e-01,9.99999e-01,9.90583e-01,1.80630e-03,9.99892e-01
5.991161043e-01,2.03219e-03,9.99999e-01,9.99999e-01,9.99999e-01,9.93123e-01,2.04633e-03,9.99966e-01
6.021116848e-01,2.30350e-03,9.99999e-01,9.99999e-01,9.99999e-01,9.96093e-01,2.31254e-03,9.99995e-01
6.051222432e-01,2.60193e-03,9.99999e-01,9.99999e-01,9.99999e-01,9.98021e-01,2.60709e-03,9.99999e-01
6.081478544e-01,2.92970e-03,9.99999e-01,9.99999e-01,9.99999e-01,9.99146e-01,2.93220e-03,9.99999e-01
6.111885937e-01,3.28901e-03,9.99999e-01,9.99999e-01,9.99999e-01,9.99638e-01,3.29020e-03,9.99999e-01
6.142445367e-01,3.68293e-03,9.99999e-01,9.99999e-01,9.99999e-01,9.99838e-01,3.68352e-03,9.99999e-01
6.173157594e-01,4.11431e-03,9.99999e-01,9.99999e-01,9.99999e-01,9.99910e-01,4.11468e-03,9.99999e-01
6.204023382e-01,4.58591e-03,9.99999e-01,9.99999e-01,9.99999e-01,9.99924e-01,4.58626e-03,9.99999e-01
6.235043498e-01,5.09925e-03,9.99999e-01,9.99999e-01,9.99999e-01,9.99667e-01,5.10094e-03,9.99998e-01
6.266218716e-01,5.65148e-03,9.99999e-01,9.99999e-01,9.99999e-01,9.98244e-01,5.66148e-03,9.99987e-01
6.297549810e-01,6.26650e-03,9.99999e-01,9.99999e-01,9.99999e-01,9.99355e-01,6.27069e-03,9.99974e-01
6.329037559e-01,6.92249e-03,9.99999e-01,9.99999e-01,9.99999e-01,9.98727e-01,6.93144e-03,9.99979e-01
6.360682746e-01,7.63830e-03,9.99999e-01,9.99999e-01,9.99999e-01,9.98915e-01,7.64668e-03,9.99987e-01
6.392486160e-01,8.40750e-03,9.99999e-01,9.99999e-01,9.99999e-01,9.98595e-01,8.41937e-03,9.99994e-01
6.424448591e-01,9.23505e-03,9.99999e-01,9.99999e-01,9.99999e-01,9.98119e-01,9.25253e-03,9.99991e-01
6.456570834e-01,1.00604e-02,9.99999e-01,9.99999e-01,9.99999e-01,9.91296e-01,1.01492e-02,9.99951e-01
6.488853688e-01,1.10402e-02,9.99999e-01,9.99999e-01,9.99999e-01,9.93629e-01,1.11124e-02,9.99864e-01
6.521297956e-01,1.20652e-02,9.99999e-01,9.99999e-01,9.99999e-01,9.93507e-01,1.21453e-02,9.99887e-01
6.553904446e-01,1.31641e-02,9.99999e-01,9.99999e-01,9.99999e-01,9.93530e-01,1.32510e-02,9.99916e-01
6.586673968e-01,1.43520e-02,9.99999e-01,9.99999e-01,9.99999e-01,9.94460e-01,1.44324e-02,9.99971e-01
6.619607338e-01,1.56440e-02,9.99999e-01,9.99999e-01,9.99999e-01,9.96909e-01,1.56926e-02,9.99993e-01
6.652705375e-01,1.70030e-02,9.99999e-01,9.99999e-01,9.99999e-01,9.98143e-01,1.70347e-02,9.99996e-01
6.685968902e-01,1.84457e-02,9.99999e-01,9.99999e-01,9.99999e-01,9.99137e-01,1.84616e-02,9.99999e-01
6.719398746e-01,1.99684e-02,9.99999e-01,9.99999e-01,9.99999e-01,9.99600e-01,1.99763e-02,9.99999e-01
6.752995740e-01,2.15770e-02,9.99999e-01,9.99999e-01,9.99999e-01,9.99782e-01,2.15817e-02,9.99999e-01
6.786760719e-01,2.32731e-02,9.99999e-01,9.99999e-01,9.99999e-01,9.99686e-01,2.32804e-02,9.99999e-01
6.820694522e-01,2.50618e-02,9.99999e-01,9.99999e-01,9.99999e-01,9.99464e-01,2.50753e-02,9.99996e-01
6.854797995e-01,2.69503e-02,9.99999e-01,9.99999e-01,9.99999e-01,9.99308e-01,2.69690e-02,9.99993e-01
6.889071985e-01,2.89152e-02,9.99999e-01,9.99999e-01,9.99999e-01,9.98325e-01,2.89641e-02,9.99984e-01
6.923517345e-01,3.02213e-02,9.99999e-01,9.99999e-01,9.99999e-01,9.73033e-01,3.10629e-02,9.99868e-01
6.958134932e-01,3.27901e-02,9.99999e-01,9.99999e-01,9.99999e-01,9.85925e-01,3.32678e-02,9.99709e-01
6.992925606e-01,3.50943e-02,9.99999e-01,9.99999e-01,9.99999e-01,9.86579e-01,3.55809e-02,9.99738e-01
7.027890234e-01,3.73686e-02,9.99999e-01,9.99999e-01,9.99999e-01,9.83464e-01,3.80045e-02,9.99800e-01
7.063029686e-01,3.99717e-02,9.99999e-01,9.99999e-01,9.99999e-01,9.86074e-01,4.05402e-02,9.99900e-01
7.098344834e-01,4.26103e-02,9.99999e-01,9.99999e-01,9.99999e-01,9.86632e-01,4.31901e-02,9.99940e-01
7.133836558e-01,4.51336e-02,9.99999e-01,9.99999e-01,9.99999e-01,9.82225e-01,4.59556e-02,9.99882e-01
7.169505741e-01,4.22968e-02,9.99999e-01,9.99999e-01,9.99999e-01,8.66851e-01,4.88383e-02,9.99082e-01
7.205353270e-01,4.82559e-02,9.99999e-01,9.99999e-01,9.99999e-01,9.32379e-01,5.18395e-02,9.98381e-01
7.241380036e-01,5.01997e-02,9.99999e-01,9.99999e-01,9.99999e-01,9.14657e-01,5.49603e-02,9.98602e-01
7.277586936e-01,5.36406e-02,9.99999e-01,9.99999e-01,9.99999e-01,9.22683e-01,5.82018e-02,9.98857e-01
7.313974871e-01,5.64756e-02,9.99999e-01,9.99999e-01,9.99999e-01,9.17827e-01,6.15648e-02,9.99464e-01
7.350544745e-01,6.20577e-02,9.99999e-01,9.99999e-01,9.99999e-01,9.54179e-01,6.50498e-02,9.99813e-01
7.387297469e-01,6.63200e-02,9.99999e-01,9.99999e-01,9.99999e-01,9.66037e-01,6.86574e-02,9.99914e-01
7.424233956e-01,7.11730e-02,9.99999e-01,9.99999e-01,9.99999e-01,9.83233e-01,7.23878e-02,9.99983e-01
7.461355126e-01,7.54637e-02,9.99999e-01,9.99999e-01,9.99999e-01,9.89804e-01,7.62412e-02,9.99996e-01
7.498661902e-01,7.98358e-02,9.99999e-01,9.99999e-01,9.99999e-01,9.95241e-01,8.02176e-02,9.99998e-01
7.536155211e-01,8.41195e-02,9.99999e-01,9.99999e-01,9.99999e-01,9.97662e-01,8.43165e-02,9.99998e-01
7.573835987e-01,8.84313e-02,9.99999e-01,9.99999e-01,9.99999e-01,9.98796e-01,8.85378e-02,9.99999e-01
7.611705167e-01,9.28113e-02,9.99999e-01,9.99999e-01,9.99999e-01,9.99251e-01,9.28807e-02,9.99999e-01
7.649763693e-01,9.72989e-02,9.99999e-01,9.99999e-01,9.99999e-01,9.99530e-01,9.73445e-02,9.99999e-01
7.688012511e-01,1.01895e-01,9.99999e-01,9.99999e-01,9.99999e-01,9.99673e-01,1.01928e-01,9.99999e-01
7.726452574e-01,1.06602e-01,9.99999e-01,9.99999e-01,9.99999e-01,9.99731e-01,1.06631e-01,9.99999e-01
7.765084837e-01,1.11409e-01,9.99999e-01,9.99999e-01,9.99999e-01,9.99617e-01,1.11451e-01,9.99999e-01
7.803910261e-01,1.06517e-01,9.99999e-01,9.99999e-01,9.16586e-01,9.98349e-01,1.16388e-01,9.99997e-01
7.842929812e-01,7.90973e-02,9.99999e-01,9.99999e-01,6.54668e-01,9.94248e-01,1.21439e-01,9.99988e-01
7.882144461e-01,8.00183e-02,9.99999e-01,9.99999e-01,6.38908e-01,9.88192e-01,1.26603e-01,9.99918e-01
7.921555184e-01,9.95938e-02,9.99999e-01,9.99999e-01,7.59923e-01,9.93513e-01,1.31878e-01,9.99858e-01
7.961162960e-01,1.12725e-01,9.99999e-01,9.99999e-01,8.30610e-01,9.88552e-01,1.37263e-01,9.99865e-01
8.000968774e-01,1.27360e-01,9.99999e-01,9.99999e-01,9.04140e-01,9.86785e-01,1.42754e-01,9.99856e-01
8.040973618e-01,1.38929e-01,9.99999e-01,9.99999e-01,9.49078e-01,9.86783e-01,1.48350e-01,9.99885e-01
8.081178486e-01,1.45953e-01,9.99999e-01,9.99999e-01,9.76261e-01,9.70474e-01,1.54048e-01,9.99893e-01
8.121584379e-01,1.40086e-01,9.99999e-01,9.99999e-01,9.92617e-01,8.83086e-01,1.59846e-01,9.99580e-01
8.162192301e-01,1.42606e-01,9.99999e-01,9.99999e-01,9.98365e-01,8.63104e-01,1.65741e-01,9.98425e-01
8.203003262e-01,1.59440e-01,9.99999e-01,9.99999e-01,9.99975e-01,9.30156e-01,1.71731e-01,9.98156e-01
8.244018279e-01,1.60608e-01,9.99999e-01,9.99999e-01,9.99999e-01,9.04571e-01,1.77812e-01,9.98532e-01
8.285238370e-01,1.68253e-01,9.99999e-01,9.99999e-01,9.99999e-01,9.15559e-01,1.83983e-01,9.98847e-01
8.326664562e-01,1.73950e-01,9.99999e-01,9.99999e-01,9.99999e-01,9.14813e-01,1.90239e-01,9.99522e-01
8.368297885e-01,1.84404e-01,9.99999e-01,9.99999e-01,9.99999e-01,9.38168e-01,1.96578e-01,9.99890e-01
8.410139374e-01,1.95425e-01,9.99999e-01,9.99999e-01,9.99999e-01,9.62761e-01,2.02997e-01,9.99935e-01
8.452190071e-01,2.05621e-01,9.99999e-01,9.99999e-01,9.99999e-01,9.81556e-01,2.09493e-01,9.99961e-01
8.494451021e-01,2.13733e-01,9.99999e-01,9.99999e-01,9.99999e-01,9.89253e-01,2.16061e-01,9.99968e-01
8.536923276e-01,2.21279e-01,9.99999e-01,9.99999e-01,9.99999e-01,9.93634e-01,2.22700e-01,9.99980e-01
8.579607893e-01,2.28505e-01,9.99999e-01,9.99999e-01,9.99999e-01,9.96074e-01,2.29406e-01,9.99995e-01
8.622505932e-01,2.35586e-01,9.99999e-01,9.99999e-01,9.99999e-01,9.97505e-01,2.36175e-01,9.99998e-01
8.665618462e-01,2.11428e-01,9.99999e-01,9.99999e-01,8.71317e-01,9.98455e-01,2.43005e-01,9.99999e-01
8.708946554e-01,8.78642e-02,9.99999e-01,9.99999e-01,3.52182e-01,9.98231e-01,2.49891e-01,9.99998e-01
8.752491287e-01,1.07604e-01,9.99999e-01,9.99999e-01,4.19896e-01,9.97635e-01,2.56830e-01,9.99997e-01
8.796253743e-01,1.61461e-01,9.99999e-01,9.99999e-01,6.13873e-01,9.96725e-01,2.63820e-01,9.99992e-01
8.840235012e-01,2.08628e-01,9.99999e-01,9.99999e-01,7.73043e-01,9.96260e-01,2.70856e-01,9.99976e-01
8.884436187e-01,2.47646e-01,9.99999e-01,9.99999e-01,9.02986e-01,9.86441e-01,2.77935e-01,9.99934e-01
8.928858368e-01,2.37278e-01,9.99999e-01,9.99999e-01,9.59401e-01,8.67043e-01,2.85053e-01,9.99625e-01
8.973502660e-01,2.24716e-01,9.99999e-01,9.99999e-01,9.89991e-01,7.77843e-01,2.92208e-01,9.98084e-01
9.018370173e-01,2.62339e-01,9.99999e-01,9.99999e-01,9.98892e-01,8.79761e-01,2.99396e-01,9.96990e-01
9.063462024e-01,2.66154e-01,9.99999e-01,9.99999e-01,9.72302e-01,8.92920e-01,3.06614e-01,9.97356e-01
9.108779334e-01,2.46336e-01,9.99999e-01,9.99999e-01,9.36801e-01,8.38272e-01,3.13858e-01,9.97252e-01
9.154323231e-01,2.58324e-01,9.99999e-01,9.99999e-01,9.84802e-01,8.17962e-01,3.21125e-01,9.97728e-01
9.200094847e-01,2.34751e-01,9.99999e-01,9.99999e-01,8.20993e-01,8.54776e-01,3.28411e-01,9.98727e-01
9.246095321e-01,1.94661e-01,9.99999e-01,9.99999e-01,7.27780e-01,7.87647e-01,3.35715e-01,9.98534e-01
9.292325798e-01,6.19882e-02,9.99999e-01,9.99999e-01,7.82573e-01,2.20624e-01,3.43031e-01,9.94298e-01
9.338787427e-01,4.02438e-02,9.99999e-01,9.99999e-01,7.87118e-01,1.42451e-01,3.50358e-01,9.76640e-01
9.385481364e-01,1.34782e-01,9.99999e-01,9.99999e-01,8.37565e-01,4.52160e-01,3.57692e-01,9.72278e-01
9.432408771e-01,1.11483e-01,9.99999e-01,9.99999e-01,8.96698e-01,3.44366e-01,3.65030e-01,9.76038e-01
9.479570815e-01,7.98295e-02,9.99999e-01,9.99999e-01,9.45533e-01,2.29736e-01,3.72369e-01,9.80454e-01
9.526968669e-01,1.17706e-01,9.99999e-01,9.99999e-01,9.73388e-01,3.20761e-01,3.79706e-01,9.88032e-01
9.574603512e-01,1.29085e-01,9.99999e-01,9.99999e-01,9.88524e-01,3.38818e-01,3.87039e-01,9.93902e-01
9.622476530e-01,1.60061e-01,9.99999e-01,9.99999e-01,9.96406e-01,4.08834e-01,3.94364e-01,9.95779e-01
9.670588912e-01,2.37857e-01,9.99999e-01,9.99999e-01,9.98922e-01,5.94423e-01,4.01679e-01,9.97111e-01
9.718941857e-01,2.92605e-01,9.99999e-01,9.99999e-01,9.99923e-01,7.17017e-01,4.08982e-01,9.97872e-01
9.767536566e-01,3.15182e-01,9.99999e-01,9.99999e-01,9.99999e-01,7.58394e-01,4.16268e-01,9.98373e-01
9.816374249e-01,3.44572e-01,9.99999e-01,9.99999e-01,9.99999e-01,8.14015e-01,4.23537e-01,9.99436e-01
9.865456120e-01,3.78645e-01,9.99999e-01,9.99999e-01,9.99999e-01,8.79065e-01,4.30786e-01,9.99882e-01
9.914783401e-01,4.04393e-01,9.99999e-01,9.99999e-01,9.99999e-01,9.23277e-01,4.38012e-01,9.99967e-01
9.964357318e-01,4.26264e-01,9.99999e-01,9.99999e-01,9.99999e-01,9.57456e-01,4.45213e-01,9.99980e-01
1.001417910e+00,4.40734e-01,9.99999e-01,9.99999e-01,9.99999e-01,9.74271e-01,4.52386e-01,9.99970e-01
1.006425000e+00,4.52732e-01,9.99999e-01,9.99999e-01,9.99999e-01,9.85246e-01,4.59530e-01,9.99958e-01
1.011457125e+00,4.62341e-01,9.99999e-01,9.99999e-01,9.99999e-01,9.90821e-01,4.66642e-01,9.99961e-01
1.016514411e+00,4.70751e-01,9.99999e-01,9.99999e-01,9.99999e-01,9.93758e-01,4.73720e-01,9.99972e-01
1.021596983e+00,4.78286e-01,9.99999e-01,9.99999e-01,9.99847e-01,9.95023e-01,4.80763e-01,9.99972e-01
1.026704968e+00,4.80517e-01,9.99999e-01,9.99999e-01,9.88976e-01,9.96117e-01,4.87769e-01,9.99981e-01
1.031838492e+00,4.48083e-01,9.99999e-01,9.99999e-01,9.08133e-01,9.97177e-01,4.94735e-01,9.99994e-01
1.036997685e+00,2.71498e-02,9.99999e-01,9.99999e-01,5.41887e-02,9.98322e-01,5.01660e-01,9.99998e-01
1.042182673e+00,2.26584e-03,9.99999e-01,9.99999e-01,4.46245e-03,9.97999e-01,5.08542e-01,9.99999e-01
1.047393587e+00,5.65286e-03,9.99999e-01,9.99999e-01,1.09927e-02,9.97347e-01,5.15380e-01,9.99999e-01
1.052630555e+00,1.00602e-06,9.99999e-01,9.99999e-01,1.93107e-06,9.96361e-01,5.22172e-01,9.99998e-01
1.057893707e+00,3.78572e-06,9.99999e-01,9.99999e-01,7.18037e-06,9.93931e-01,5.28917e-01,9.99997e-01
1.063183176e+00,8.17448e-05,9.99999e-01,9.99999e-01,1.53513e-04,9.90035e-01,5.35614e-01,9.99994e-01
1.068499092e+00,7.48574e-04,9.99999e-01,9.99999e-01,1.39618e-03,9.83372e-01,5.42260e-01,9.99988e-01
1.073841587e+00,7.88253e-03,9.99999e-01,9.99999e-01,1.45683e-02,9.80580e-01,5.48855e-01,9.99974e-01
