#,Wave/freq,Total,N2,O2,CO2,H2O,Rayleigh,CIA
4.000000000e-01,1.27378e-15,9.99999e-01,9.99999e-01,9.99999e-01,9.99933e-01,1.27386e-15,9.99999e-01
4.020000000e-01,2.50964e-15,9.99999e-01,9.99999e-01,9.99999e-01,9.99958e-01,2.50974e-15,9.99999e-01
4.040100000e-01,4.87545e-15,9.99999e-01,9.99999e-01,9.99999e-01,9.99982e-01,4.87554e-15,9.99999e-01
4.060300500e-01,9.34798e-15,9.99999e-01,9.99999e-01,9.99999e-01,9.99995e-01,9.34802e-15,9.99999e-01
4.080602003e-01,1.76942e-14,9.99999e-01,9.99999e-01,9.99999e-01,9.99998e-01,1.76943e-14,9.99999e-01
4.101005013e-01,3.30729e-14,9.99999e-01,9.99999e-01,9.99999e-01,9.99999e-01,3.30729e-14,9.99999e-01
4.121510038e-01,6.10583e-14,9.99999e-01,9.99999e-01,9.99999e-01,9.99997e-01,6.10584e-14,9.99999e-01
4.142117588e-01,1.11366e-13,9.99999e-01,9.99999e-01,9.99999e-01,9.99981e-01,1.11368e-13,9.99999e-01
4.162828176e-01,2.00717e-13,9.99999e-01,9.99999e-01,9.99999e-01,9.99917e-01,2.00733e-13,9.99999e-01
4.183642317e-01,3.57604e-13,9.99999e-01,9.99999e-01,9.99999e-01,9.99951e-01,3.57621e-13,9.99999e-01
4.204560528e-01,6.29885e-13,9.99999e-01,9.99999e-01,9.99999e-01,9.99969e-01,6.29903e-13,9.99999e-01
4.225583331e-01,1.09714e-12,9.99999e-01,9.99999e-01,9.99999e-01,9.99988e-01,1.09716e-12,9.99999e-01
4.246711247e-01,1.89016e-12,9.99999e-01,9.99999e-01,9.99999e-01,9.99990e-01,1.89018e-12,9.99999e-01
4.267944804e-01,3.22155e-12,9.99999e-01,9.99999e-01,9.99999e-01,9.99986e-01,3.22160e-12,9.99999e-01
4.289284528e-01,5.43326e-12,9.99999e-01,9.99999e-01,9.99999e-01,9.99989e-01,5.43332e-12,9.99999e-01
4.310730950e-01,9.06930e-12,9.99999e-01,9.99999e-01,9.99999e-01,9.99995e-01,9.06933e-12,9.99999e-01
4.332284605e-01,1.49862e-11,9.99999e-01,9.99999e-01,9.99999e-01,9.99998e-01,1.49862e-11,9.99999e-01
4.353946028e-01,2.45187e-11,9.99999e-01,9.99999e-01,9.99999e-01,9.99999e-01,2.45187e-11,9.99999e-01
4.375715758e-01,3.97263e-11,9.99999e-01,9.99999e-01,9.99999e-01,9.99991e-01,3.97266e-11,9.99999e-01
4.397594337e-01,6.37520e-11,9.99999e-01,9.99999e-01,9.99999e-01,9.99926e-01,6.37566e-11,9.99999e-01
4.419582309e-01,1.01333e-10,9.99999e-01,9.99999e-01,9.99999e-01,9.99629e-01,1.01370e-10,9.99999e-01
4.441680220e-01,1.59660e-10,9.99999e-01,9.99999e-01,9.99999e-01,9.99717e-01,1.59705e-10,9.99999e-01
4.463888621e-01,2.49287e-10,9.99999e-01,9.99999e-01,9.99999e-01,9.99703e-01,2.49361e-10,9.99999e-01
4.486208064e-01,3.85865e-10,9.99999e-01,9.99999e-01,9.99999e-01,9.99816e-01,3.85935e-10,9.99999e-01
4.508639105e-01,5.92130e-10,9.99999e-01,9.99999e-01,9.99999e-01,9.99913e-01,5.92180e-10,9.99999e-01
4.531182300e-01,9.00961e-10,9.99999e-01,9.99999e-01,9.99999e-01,9.99965e-01,9.00992e-10,9.99999e-01
4.553838212e-01,1.35949e-09,9.99999e-01,9.99999e-01,9.99999e-01,9.99976e-01,1.35953e-09,9.99999e-01
4.576607403e-01,2.03479e-09,9.99999e-01,9.99999e-01,9.99999e-01,9.99988e-01,2.03482e-09,9.99999e-01
4.599490440e-01,3.02134e-09,9.99999e-01,9.99999e-01,9.99999e-01,9.99992e-01,3.02137e-09,9.99999e-01
4.622487892e-01,4.45133e-09,9.99999e-01,9.99999e-01,9.99999e-01,9.99998e-01,4.45134e-09,9.99999e-01
4.645600332e-01,6.50805e-09,9.99999e-01,9.99999e-01,9.99999e-01,9.99994e-01,6.50809e-09,9.99999e-01
4.668828333e-01,9.44322e-09,9.99999e-01,9.99999e-01,9.99999e-01,9.99911e-01,9.44404e-09,9.99999e-01
4.692172475e-01,1.36015e-08,9.99999e-01,9.99999e-01,9.99999e-01,9.99814e-01,1.36041e-08,9.99999e-01
4.715633337e-01,1.94534e-08,9.99999e-01,9.99999e-01,9.99999e-01,9.99878e-01,1.94557e-08,9.99999e-01
4.739211504e-01,2.76254e-08,9.99999e-01,9.99999e-01,9.99999e-01,9.99883e-01,2.76286e-08,9.99999e-01
4.762907561e-01,3.89614e-08,9.99999e-01,9.99999e-01,9.99999e-01,9.99939e-01,3.89637e-08,9.99999e-01
4.786722099e-01,5.45761e-08,9.99999e-01,9.99999e-01,9.99999e-01,9.99975e-01,5.45774e-08,9.99999e-01
4.810655710e-01,7.59402e-08,9.99999e-01,9.99999e-01,9.99999e-01,9.99992e-01,7.59408e-08,9.99999e-01
4.834708988e-01,1.04972e-07,9.99999e-01,9.99999e-01,9.99999e-01,9.99926e-01,1.04979e-07,9.99999e-01
4.858882533e-01,1.44177e-07,9.99999e-01,9.99999e-01,9.99999e-01,9.99868e-01,1.44196e-07,9.99999e-01
4.883176946e-01,1.96804e-07,9.99999e-01,9.99999e-01,9.99999e-01,9.99889e-01,1.96826e-07,9.99999e-01
4.907592831e-01,2.66991e-07,9.99999e-01,9.99999e-01,9.99999e-01,9.99900e-01,2.67018e-07,9.99999e-01
4.932130795e-01,3.60041e-07,9.99999e-01,9.99999e-01,9.99999e-01,9.99929e-01,3.60066e-07,9.99999e-01
4.956791449e-01,4.82662e-07,9.99999e-01,9.99999e-01,9.99999e-01,9.99962e-01,4.82680e-07,9.99999e-01
4.981575406e-01,6.43193e-07,9.99999e-01,9.99999e-01,9.99999e-01,9.99812e-01,6.43314e-07,9.99999e-01
5.006483283e-01,8.52134e-07,9.99999e-01,9.99999e-01,9.99999e-01,9.99510e-01,8.52554e-07,9.99996e-01
5.031515699e-01,1.12079e-06,9.99999e-01,9.99999e-01,9.99999e-01,9.97543e-01,1.12358e-06,9.99973e-01
5.056673278e-01,1.47077e-06,9.99999e-01,9.99999e-01,9.99999e-01,9.98707e-01,1.47272e-06,9.99970e-01
5.081956644e-01,1.91690e-06,9.99999e-01,9.99999e-01,9.99999e-01,9.98370e-01,1.92006e-06,9.99981e-01
5.107366428e-01,2.48745e-06,9.99999e-01,9.99999e-01,9.99999e-01,9.98900e-01,2.49019e-06,9.99996e-01
5.132903260e-01,3.21106e-06,9.99999e-01,9.99999e-01,9.99999e-01,9.99372e-01,3.21308e-06,9.99999e-01
5.158567776e-01,4.12390e-06,9.99999e-01,9.99999e-01,9.99999e-01,9.99734e-01,4.12499e-06,9.99999e-01
5.184360615e-01,5.26909e-06,9.99999e-01,9.99999e-01,9.99999e-01,9.99893e-01,5.26965e-06,9.99999e-01
5.210282418e-01,6.69919e-06,9.99999e-01,9.99999e-01,9.99999e-01,9.99959e-01,6.69946e-06,9.99999e-01
5.236333830e-01,8.47556e-06,9.99999e-01,9.99999e-01,9.99999e-01,9.99839e-01,8.47693e-06,9.99998e-01
5.262515499e-01,1.06752e-05,9.99999e-01,9.99999e-01,9.99999e-01,9.99899e-01,1.06762e-05,9.99997e-01
5.288828077e-01,1.33838e-05,9.99999e-01,9.99999e-01,9.99999e-01,9.99907e-01,1.33850e-05,9.99998e-01
5.315272217e-01,1.67050e-05,9.99999e-01,9.99999e-01,9.99999e-01,9.99919e-01,1.67063e-05,9.99999e-01
5.341848578e-01,2.07595e-05,9.99999e-01,9.99999e-01,9.99999e-01,9.99946e-01,2.07606e-05,9.99999e-01
5.368557821e-01,2.56836e-05,9.99999e-01,9.99999e-01,9.99999e-01,9.99812e-01,2.56884e-05,9.99999e-01
5.395400610e-01,3.16306e-05,9.99999e-01,9.99999e-01,9.99999e-01,9.99319e-01,3.16523e-05,9.99993e-01
5.422377613e-01,3.88062e-05,9.99999e-01,9.99999e-01,9.99999e-01,9.99134e-01,3.88404e-05,9.99983e-01
5.449489501e-01,4.74293e-05,9.99999e-01,9.99999e-01,9.99999e-01,9.99188e-01,4.74686e-05,9.99983e-01
5.476736949e-01,5.77425e-05,9.99999e-01,9.99999e-01,9.99999e-01,9.99287e-01,5.77841e-05,9.99991e-01
5.504120634e-01,7.00321e-05,9.99999e-01,9.99999e-01,9.99999e-01,9.99482e-01,7.00685e-05,9.99997e-01
5.531641237e-01,8.46196e-05,9.99999e-01,9.99999e-01,9.99999e-01,9.99739e-01,8.46417e-05,9.99999e-01
5.559299443e-01,1.01852e-04,9.99999e-01,9.99999e-01,9.99999e-01,9.99874e-01,1.01865e-04,9.99999e-01
5.587095940e-01,1.22135e-04,9.99999e-01,9.99999e-01,9.99999e-01,9.99920e-01,1.22145e-04,9.99999e-01
5.615031420e-01,1.45926e-04,9.99999e-01,9.99999e-01,9.99999e-01,9.99911e-01,1.45938e-04,9.99999e-01
5.643106577e-01,1.73737e-04,9.99999e-01,9.99999e-01,9.99999e-01,9.99898e-01,1.73755e-04,9.99998e-01
5.671322110e-01,2.05905e-04,9.99999e-01,9.99999e-01,9.99999e-01,9.98764e-01,2.06161e-04,9.99988e-01
5.699678720e-01,2.43468e-04,9.99999e-01,9.99999e-01,9.99999e-01,9.98721e-01,2.43787e-04,9.99966e-01
5.728177114e-01,2.86932e-04,9.99999e-01,9.99999e-01,9.99999e-01,9.98653e-01,2.87327e-04,9.99972e-01
5.756818000e-01,3.37124e-04,9.99999e-01,9.99999e-01,9.99999e-01,9.98767e-01,3.37545e-04,9.99983e-01
5.785602090e-01,3.94856e-04,9.99999e-01,9.99999e-01,9.99999e-01,9.98927e-01,3.95281e-04,9.99994e-01
5.814530100e-01,4.60952e-04,9.99999e-01,9.99999e-01,9.99999e-01,9.98920e-01,4.61451e-04,9.99997e-01
5.843602750e-01,5.36354e-04,9.99999e-01,9.99999e-01,9.99999e-01,9.98703e-01,5.37054e-04,9.99992e-01
5.872820764e-01,6.16204e-04,9.99999e-01,9.99999e-01,9.99999e-01,9.88895e-01,6.23172e-04,9.99921e-01
5.902184868e-01,7.11214e-04,9.99999e-01,9.99999e-01,9.99999e-01,9.86664e-01,7.20978e-04,9.99787e-01
5.931695792e-01,8.23703e-04,9.99999e-01,9.99999e-01,9.99999e-01,9.90541e-01,8.31737e-04,9.99795e-01
5.961354271e-01,9.46796e-04,9.99999e-01,9.99999e-01,9.99999e-01,9.89653e-01,9.56806e-04,9.99882e-01
5.991161043e-01,1.08932e-03,9.99999e-01,9.99999e-01,9.99999e-01,9.92451e-01,1.09764e-03,9.99963e-01
6.021116848e-01,1.25041e-03,9.99999e-01,9.99999e-01,9.99999e-01,9.95715e-01,1.25579e-03,9.99995e-01
6.051222432e-01,1.42981e-03,9.99999e-01,9.99999e-01,9.99999e-01,9.97830e-01,1.43292e-03,9.99999e-01
6.081478544e-01,1.62925e-03,9.99999e-01,9.99999e-01,9.99999e-01,9.99062e-01,1.63077e-03,9.99999e-01
6.111885937e-01,1.85048e-03,9.99999e-01,9.99999e-01,9.99999e-01,9.99604e-01,1.85121e-03,9.99999e-01
6.142445367e-01,2.09582e-03,9.99999e-01,9.99999e-01,9.99999e-01,9.99822e-01,2.09619e-03,9.99999e-01
6.173157594e-01,2.36753e-03,9.99999e-01,9.99999e-01,9.99999e-01,9.99901e-01,2.36777e-03,9.99999e-01
6.204023382e-01,2.66788e-03,9.99999e-01,9.99999e-01,9.99999e-01,9.99916e-01,2.66810e-03,9.99999e-01
6.235043498e-01,2.99833e-03,9.99999e-01,9.99999e-01,9.99999e-01,9.99628e-01,2.99944e-03,9.99998e-01
6.266218716e-01,3.35760e-03,9.99999e-01,9.99999e-01,9.99999e-01,9.98066e-01,3.36415e-03,9.99985e-01
6.297549810e-01,3.76189e-03,9.99999e-01,9.99999e-01,9.99999e-01,9.99290e-01,3.76466e-03,9.99972e-01
6.329037559e-01,4.19754e-03,9.99999e-01,9.99999e-01,9.99999e-01,9.98602e-01,4.20350e-03,9.99977e-01
6.360682746e-01,4.67763e-03,9.99999e-01,9.99999e-01,9.99999e-01,9.98804e-01,4.68329e-03,9.99986e-01
6.392486160e-01,5.19863e-03,9.99999e-01,9.99999e-01,9.99999e-01,9.98453e-01,5.20671e-03,9.99993e-01
6.424448591e-01,5.76442e-03,9.99999e-01,9.99999e-01,9.99999e-01,9.97914e-01,5.77653e-03,9.99989e-01
6.456570834e-01,6.33352e-03,9.99999e-01,9.99999e-01,9.99999e-01,9.90354e-01,6.39557e-03,9.99941e-01
6.488853688e-01,7.01629e-03,9.99999e-01,9.99999e-01,9.99999e-01,9.93009e-01,7.06673e-03,9.99850e-01
6.521297956e-01,7.73650e-03,9.99999e-01,9.99999e-01,9.99999e-01,9.92877e-01,7.79295e-03,9.99876e-01
6.553904446e-01,8.51529e-03,9.99999e-01,9.99999e-01,9.99999e-01,9.92870e-01,8.57721e-03,9.99908e-01
6.586673968e-01,9.36496e-03,9.99999e-01,9.99999e-01,9.99999e-01,9.93919e-01,9.42253e-03,9.99968e-01
6.619607338e-01,1.02969e-02,9.99999e-01,9.99999e-01,9.99999e-01,9.96607e-01,1.03320e-02,9.99992e-01
6.652705375e-01,1.12855e-02,9.99999e-01,9.99999e-01,9.99999e-01,9.97962e-01,1.13086e-02,9.99996e-01
6.685968902e-01,1.23447e-02,9.99999e-01,9.99999e-01,9.99999e-01,9.99134e-01,1.23554e-02,9.99998e-01
6.719398746e-01,1.34697e-02,9.99999e-01,9.99999e-01,9.99999e-01,9.99561e-01,1.34756e-02,9.99999e-01
6.752995740e-01,1.46688e-02,9.99999e-01,9.99999e-01,9.99999e-01,9.99768e-01,1.46722e-02,9.99999e-01
6.786760719e-01,1.59426e-02,9.99999e-01,9.99999e-01,9.99999e-01,9.99652e-01,1.59482e-02,9.99999e-01
6.820694522e-01,1.72962e-02,9.99999e-01,9.99999e-01,9.99999e-01,9.99403e-01,1.73066e-02,9.99996e-01
6.854797995e-01,1.87360e-02,9.99999e-01,9.99999e-01,9.99999e-01,9.99237e-01,1.87504e-02,9.99992e-01
6.889071985e-01,2.02443e-02,9.99999e-01,9.99999e-01,9.99999e-01,9.98129e-01,2.02826e-02,9.99983e-01
6.923517345e-01,2.12498e-02,9.99999e-01,9.99999e-01,9.99999e-01,9.70188e-01,2.19059e-02,9.99855e-01
6.958134932e-01,2.32548e-02,9.99999e-01,9.99999e-01,9.99999e-01,9.84718e-01,2.36233e-02,9.99680e-01
6.992925606e-01,2.50525e-02,9.99999e-01,9.99999e-01,9.99999e-01,9.85157e-01,2.54373e-02,9.99712e-01
7.027890234e-01,2.68482e-02,9.99999e-01,9.99999e-01,9.99999e-01,9.81846e-01,2.73506e-02,9.99780e-01
7.063029686e-01,2.89131e-02,9.99999e-01,9.99999e-01,9.99999e-01,9.84694e-01,2.93657e-02,9.99890e-01
7.098344834e-01,3.10205e-02,9.99999e-01,9.99999e-01,9.99999e-01,9.85308e-01,3.14850e-02,9.99934e-01
7.133836558e-01,3.30412e-02,9.99999e-01,9.99999e-01,9.99999e-01,9.80260e-01,3.37109e-02,9.99871e-01
7.169505741e-01,3.07543e-02,9.99999e-01,9.99999e-01,9.99999e-01,8.54071e-01,3.60454e-02,9.98989e-01
7.205353270e-01,3.56076e-02,9.99999e-01,9.99999e-01,9.99999e-01,9.26745e-01,3.84907e-02,9.98218e-01
7.241380036e-01,3.71473e-02,9.99999e-01,9.99999e-01,9.99999e-01,9.06350e-01,4.10486e-02,9.98461e-01
7.277586936e-01,3.99633e-02,9.99999e-01,9.99999e-01,9.99999e-01,9.15203e-01,4.37210e-02,9.98742e-01
7.313974871e-01,4.23155e-02,9.99999e-01,9.99999e-01,9.99999e-01,9.10364e-01,4.65093e-02,9.99410e-01
7.350544745e-01,4.69264e-02,9.99999e-01,9.99999e-01,9.99999e-01,9.49833e-01,4.94150e-02,9.99794e-01
7.387297469e-01,5.04845e-02,9.99999e-01,9.99999e-01,9.99999e-01,9.62809e-01,5.24395e-02,9.99905e-01
7.424233956e-01,5.45634e-02,9.99999e-01,9.99999e-01,9.99999e-01,9.81657e-01,5.55838e-02,9.99983e-01
7.461355126e-01,5.81913e-02,9.99999e-01,9.99999e-01,9.99999e-01,9.88826e-01,5.88489e-02,9.99996e-01
7.498661902e-01,6.19119e-02,9.99999e-01,9.99999e-01,9.99999e-01,9.94797e-01,6.22357e-02,9.99998e-01
7.536155211e-01,6.55761e-02,9.99999e-01,9.99999e-01,9.99999e-01,9.97437e-01,6.57446e-02,9.99998e-01
7.573835987e-01,6.92846e-02,9.99999e-01,9.99999e-01,9.99999e-01,9.98680e-01,6.93761e-02,9.99999e-01
7.611705167e-01,7.30706e-02,9.99999e-01,9.99999e-01,9.99999e-01,9.99179e-01,7.31306e-02,9.99999e-01
7.649763693e-01,7.69684e-02,9.99999e-01,9.99999e-01,9.99999e-01,9.99485e-01,7.70080e-02,9.99999e-01
7.688012511e-01,8.09793e-02,9.99999e-01,9.99999e-01,9.99999e-01,9.99640e-01,8.10083e-02,9.99999e-01
7.726452574e-01,8.51061e-02,9.99999e-01,9.99999e-01,9.99999e-01,9.99704e-01,8.51312e-02,9.99999e-01
7.765084837e-01,8.93385e-02,9.99999e-01,9.99999e-01,9.99999e-01,9.99576e-01,8.93763e-02,9.99999e-01
7.803910261e-01,8.49140e-02,9.99999e-01,9.99999e-01,9.07340e-01,9.98169e-01,9.37429e-02,9.99997e-01
7.842929812e-01,6.15984e-02,9.99999e-01,9.99999e-01,6.30614e-01,9.93623e-01,9.82302e-02,9.99987e-01
7.882144461e-01,6.22986e-02,9.99999e-01,9.99999e-01,6.12989e-01,9.87013e-01,1.02837e-01,9.99910e-01
7.921555184e-01,7.89947e-02,9.99999e-01,9.99999e-01,7.39412e-01,9.92897e-01,1.07563e-01,9.99843e-01
7.961162960e-01,9.06002e-02,9.99999e-01,9.99999e-01,8.16184e-01,9.87337e-01,1.12406e-01,9.99851e-01
8.000968774e-01,1.03560e-01,9.99999e-01,9.99999e-01,8.95411e-01,9.85461e-01,1.17365e-01,9.99842e-01
8.040973618e-01,1.13955e-01,9.99999e-01,9.99999e-01,9.44490e-01,9.85439e-01,1.22439e-01,9.99879e-01
8.081178486e-01,1.20249e-01,9.99999e-01,9.99999e-01,9.73995e-01,9.67336e-01,1.27625e-01,9.99877e-01
8.121584379e-01,1.14900e-01,9.99999e-01,9.99999e-01,9.91978e-01,8.71595e-01,1.32921e-01,9.99538e-01
8.162192301e-01,1.17333e-01,9.99999e-01,9.99999e-01,9.98222e-01,8.51130e-01,1.38326e-01,9.98267e-01
8.203003262e-01,1.32467e-01,9.99999e-01,9.99999e-01,9.99975e-01,9.22832e-01,1.43838e-01,9.97971e-01
8.244018279e-01,1.33840e-01,9.99999e-01,9.99999e-01,9.99999e-01,8.96970e-01,1.49454e-01,9.98384e-01
8.285238370e-01,1.40617e-01,9.99999e-01,9.99999e-01,9.99999e-01,9.07350e-01,1.55172e-01,9.98731e-01
8.326664562e-01,1.45923e-01,9.99999e-01,9.99999e-01,9.99999e-01,9.06889e-01,1.60989e-01,9.99474e-01
8.368297885e-01,1.55602e-01,9.99999e-01,9.99999e-01,9.99999e-01,9.32398e-01,1.66903e-01,9.99879e-01
8.410139374e-01,1.65853e-01,9.99999e-01,9.99999e-01,9.99999e-01,9.59244e-01,1.72911e-01,9.99929e-01
8.452190071e-01,1.75390e-01,9.99999e-01,9.99999e-01,9.99999e-01,9.79815e-01,1.79010e-01,9.99957e-01
8.494451021e-01,1.83005e-01,9.99999e-01,9.99999e-01,9.99999e-01,9.88194e-01,1.85198e-01,9.99965e-01
8.536923276e-01,1.90131e-01,9.99999e-01,9.99999e-01,9.99999e-01,9.93025e-01,1.91470e-01,9.99979e-01
8.579607893e-01,1.96971e-01,9.99999e-01,9.99999e-01,9.99999e-01,9.95687e-01,1.97825e-01,9.99994e-01
8.622505932e-01,2.03701e-01,9.99999e-01,9.99999e-01,9.99999e-01,9.97264e-01,2.04259e-01,9.99998e-01
8.665618462e-01,1.81391e-01,9.99999e-01,9.99999e-01,8.61980e-01,9.98301e-01,2.10770e-01,9.99999e-01
8.708946554e-01,6.95358e-02,9.99999e-01,9.99999e-01,3.20492e-01,9.98050e-01,2.17352e-01,9.99998e-01
8.752491287e-01,8.67145e-02,9.99999e-01,9.99999e-01,3.88050e-01,9.97395e-01,2.24005e-01,9.99996e-01
8.796253743e-01,1.35017e-01,9.99999e-01,9.99999e-01,5.87143e-01,9.96383e-01,2.30723e-01,9.99991e-01
8.840235012e-01,1.78522e-01,9.99999e-01,9.99999e-01,7.54646e-01,9.95873e-01,2.37504e-01,9.99974e-01
8.884436187e-01,2.15377e-01,9.99999e-01,9.99999e-01,8.94683e-01,9.84815e-01,2.44345e-01,9.99928e-01
8.928858368e-01,2.05224e-01,9.99999e-01,9.99999e-01,9.55711e-01,8.53955e-01,2.51242e-01,9.99588e-01
8.973502660e-01,1.93611e-01,9.99999e-01,9.99999e-01,9.89115e-01,7.59203e-01,2.58191e-01,9.97892e-01
9.018370173e-01,2.29662e-01,9.99999e-01,9.99999e-01,9.98798e-01,8.69851e-01,2.65190e-01,9.96688e-01
9.063462024e-01,2.32808e-01,9.99999e-01,9.99999e-01,9.69130e-01,8.82325e-01,2.72235e-01,9.97090e-01
9.108779334e-01,2.14083e-01,9.99999e-01,9.99999e-01,9.30985e-01,8.23587e-01,2.79322e-01,9.96976e-01
9.154323231e-01,2.25594e-01,9.99999e-01,9.99999e-01,9.83518e-01,8.01898e-01,2.86448e-01,9.97500e-01
9.200094847e-01,2.03596e-01,9.99999e-01,9.99999e-01,8.05850e-01,8.42017e-01,2.93610e-01,9.98599e-01
9.246095321e-01,1.65190e-01,9.99999e-01,9.99999e-01,7.05954e-01,7.67274e-01,3.00804e-01,9.98387e-01
9.292325798e-01,4.76640e-02,9.99999e-01,9.99999e-01,7.63106e-01,1.92458e-01,3.08027e-01,9.92237e-01
9.338787427e-01,3.01466e-02,9.99999e-01,9.99999e-01,7.69315e-01,1.21098e-01,3.15275e-01,9.72226e-01
9.385481364e-01,1.11904e-01,9.99999e-01,9.99999e-01,8.23313e-01,4.23200e-01,3.22546e-01,9.69528e-01
9.432408771e-01,9.05723e-02,9.99999e-01,9.99999e-01,8.87442e-01,3.12904e-01,3.29836e-01,9.73655e-01
9.479570815e-01,6.28895e-02,9.99999e-01,9.99999e-01,9.40396e-01,2.01138e-01,3.37142e-01,9.78506e-01
9.526968669e-01,9.61624e-02,9.99999e-01,9.99999e-01,9.70894e-01,2.89750e-01,3.44461e-01,9.86834e-01
9.574603512e-01,1.06156e-01,9.99999e-01,9.99999e-01,9.87447e-01,3.06976e-01,3.51789e-01,9.93290e-01
9.622476530e-01,1.34389e-01,9.99999e-01,9.99999e-01,9.96071e-01,3.77195e-01,3.59124e-01,9.95355e-01
9.670588912e-01,2.06681e-01,9.99999e-01,9.99999e-01,9.98823e-01,5.66354e-01,3.66463e-01,9.96821e-01
9.718941857e-01,2.58802e-01,9.99999e-01,9.99999e-01,9.99918e-01,6.94019e-01,3.73802e-01,9.97658e-01
9.767536566e-01,2.80782e-01,9.99999e-01,9.99999e-01,9.99999e-01,7.38013e-01,3.81138e-01,9.98210e-01
9.816374249e-01,3.09795e-01,9.99999e-01,9.99999e-01,9.99999e-01,7.97969e-01,3.88470e-01,9.99380e-01
9.865456120e-01,3.43566e-01,9.99999e-01,9.99999e-01,9.99999e-01,8.68156e-01,3.95793e-01,9.99870e-01
9.914783401e-01,3.69273e-01,9.99999e-01,9.99999e-01,9.99999e-01,9.16101e-01,4.03106e-01,9.99963e-01
9.964357318e-01,3.91274e-01,9.99999e-01,9.99999e-01,9.99999e-01,9.53402e-01,4.10406e-01,9.99978e-01
1.001417910e+00,4.05900e-01,9.99999e-01,9.99999e-01,9.99999e-01,9.71806e-01,4.17689e-01,9.99967e-01
1.006425000e+00,4.18048e-01,9.99999e-01,9.99999e-01,9.99999e-01,9.83791e-01,4.24955e-01,9.99953e-01
1.011457125e+00,4.27831e-01,9.99999e-01,9.99999e-01,9.99999e-01,9.89935e-01,4.32199e-01,9.99957e-01
1.016514411e+00,4.36396e-01,9.99999e-01,9.99999e-01,9.99999e-01,9.93147e-01,4.39420e-01,9.99969e-01
1.021596983e+00,4.44076e-01,9.99999e-01,9.99999e-01,9.99808e-01,9.94532e-01,4.46615e-01,9.99970e-01
1.026704968e+00,4.46257e-01,9.99999e-01,9.99999e-01,9.87630e-01,9.95731e-01,4.53783e-01,9.99981e-01
1.031838492e+00,4.12847e-01,9.99999e-01,9.99999e-01,8.98324e-01,9.96902e-01,4.60921e-01,9.99993e-01
1.036997685e+00,2.23317e-02,9.99999e-01,9.99999e-01,4.77811e-02,9.98155e-01,4.68027e-01,9.99998e-01
1.042182673e+00,1.40427e-03,9.99999e-01,9.99999e-01,2.96071e-03,9.97792e-01,4.75099e-01,9.99999e-01
1.047393587e+00,3.64177e-03,9.99999e-01,9.99999e-01,7.57177e-03,9.97079e-01,4.82134e-01,9.99998e-01
1.052630555e+00,3.29197e-07,9.99999e-01,9.99999e-01,6.74721e-07,9.95988e-01,4.89132e-01,9.99998e-01
1.057893707e+00,1.26768e-06,9.99999e-01,9.99999e-01,2.56420e-06,9.93301e-01,4.96090e-01,9.99997e-01
1.063183176e+00,3.67446e-05,9.99999e-01,9.99999e-01,7.35132e-05,9.89013e-01,5.03007e-01,9.99993e-01
1.068499092e+00,3.83703e-04,9.99999e-01,9.99999e-01,7.61692e-04,9.81699e-01,5.09881e-01,9.99987e-01
1.073841587e+00,4.98275e-03,9.99999e-01,9.99999e-01,9.79371e-03,9.78594e-01,5.16710e-01,9.99972e-01
