#,Wave/freq,Total,N2,O2,CO2,H2O,Rayleigh,CIA
4.000000000e-01,1.53340e-09,9.99999e-01,9.99999e-01,9.99999e-01,9.99960e-01,1.53346e-09,9.99999e-01
4.020000000e-01,2.29059e-09,9.99999e-01,9.99999e-01,9.99999e-01,9.99975e-01,2.29065e-09,9.99999e-01
4.040100000e-01,3.39325e-09,9.99999e-01,9.99999e-01,9.99999e-01,9.99989e-01,3.39329e-09,9.99999e-01
4.060300500e-01,4.98782e-09,9.99999e-01,9.99999e-01,9.99999e-01,9.99997e-01,4.98783e-09,9.99999e-01
4.080602003e-01,7.27610e-09,9.99999e-01,9.99999e-01,9.99999e-01,9.99998e-01,7.27610e-09,9.99999e-01
4.101005013e-01,1.05353e-08,9.99999e-01,9.99999e-01,9.99999e-01,9.99999e-01,1.05353e-08,9.99999e-01
4.121510038e-01,1.51432e-08,9.99999e-01,9.99999e-01,9.99999e-01,9.99998e-01,1.51432e-08,9.99999e-01
4.142117588e-01,2.16110e-08,9.99999e-01,9.99999e-01,9.99999e-01,9.99988e-01,2.16112e-08,9.99999e-01
4.162828176e-01,3.06244e-08,9.99999e-01,9.99999e-01,9.99999e-01,9.99951e-01,3.06258e-08,9.99999e-01
4.183642317e-01,4.31017e-08,9.99999e-01,9.99999e-01,9.99999e-01,9.99970e-01,4.31029e-08,9.99999e-01
4.204560528e-01,6.02540e-08,9.99999e-01,9.99999e-01,9.99999e-01,9.99981e-01,6.02550e-08,9.99999e-01
4.225583331e-01,8.36765e-08,9.99999e-01,9.99999e-01,9.99999e-01,9.99992e-01,8.36770e-08,9.99999e-01
4.246711247e-01,1.15452e-07,9.99999e-01,9.99999e-01,9.99999e-01,9.99994e-01,1.15452e-07,9.99999e-01
4.267944804e-01,1.58283e-07,9.99999e-01,9.99999e-01,9.99999e-01,9.99991e-01,1.58284e-07,9.99999e-01
4.289284528e-01,2.15656e-07,9.99999e-01,9.99999e-01,9.99999e-01,9.99993e-01,2.15658e-07,9.99999e-01
4.310730950e-01,2.92037e-07,9.99999e-01,9.99999e-01,9.99999e-01,9.99996e-01,2.92038e-07,9.99999e-01
4.332284605e-01,3.93109e-07,9.99999e-01,9.99999e-01,9.99999e-01,9.99998e-01,3.93109e-07,9.99999e-01
4.353946028e-01,5.26063e-07,9.99999e-01,9.99999e-01,9.99999e-01,9.99999e-01,5.26063e-07,9.99999e-01
4.375715758e-01,6.99940e-07,9.99999e-01,9.99999e-01,9.99999e-01,9.99994e-01,6.99943e-07,9.99999e-01
4.397594337e-01,9.26019e-07,9.99999e-01,9.99999e-01,9.99999e-01,9.99957e-01,9.26058e-07,9.99999e-01
4.419582309e-01,1.21820e-06,9.99999e-01,9.99999e-01,9.99999e-01,9.99785e-01,1.21846e-06,9.99999e-01
4.441680220e-01,1.59426e-06,9.99999e-01,9.99999e-01,9.99999e-01,9.99830e-01,1.59453e-06,9.99999e-01
4.463888621e-01,2.07524e-06,9.99999e-01,9.99999e-01,9.99999e-01,9.99824e-01,2.07560e-06,9.99999e-01
4.486208064e-01,2.68749e-06,9.99999e-01,9.99999e-01,9.99999e-01,9.99890e-01,2.68779e-06,9.99999e-01
4.508639105e-01,3.46263e-06,9.99999e-01,9.99999e-01,9.99999e-01,9.99948e-01,3.46280e-06,9.99999e-01
4.531182300e-01,4.43894e-06,9.99999e-01,9.99999e-01,9.99999e-01,9.99979e-01,4.43903e-06,9.99999e-01
4.553838212e-01,5.66254e-06,9.99999e-01,9.99999e-01,9.99999e-01,9.99985e-01,5.66261e-06,9.99999e-01
4.576607403e-01,7.18878e-06,9.99999e-01,9.99999e-01,9.99999e-01,9.99993e-01,7.18882e-06,9.99999e-01
4.599490440e-01,9.08343e-06,9.99999e-01,9.99999e-01,9.99999e-01,9.99995e-01,9.08347e-06,9.99999e-01
4.622487892e-01,1.14245e-05,9.99999e-01,9.99999e-01,9.99999e-01,9.99998e-01,1.14245e-05,9.99999e-01
4.645600332e-01,1.43040e-05,9.99999e-01,9.99999e-01,9.99999e-01,9.99996e-01,1.43040e-05,9.99999e-01
4.668828333e-01,1.78290e-05,9.99999e-01,9.99999e-01,9.99999e-01,9.99948e-01,1.78300e-05,9.99999e-01
4.692172475e-01,2.21261e-05,9.99999e-01,9.99999e-01,9.99999e-01,9.99889e-01,2.21285e-05,9.99999e-01
4.715633337e-01,2.73445e-05,9.99999e-01,9.99999e-01,9.99999e-01,9.99927e-01,2.73464e-05,9.99999e-01
4.739211504e-01,3.36514e-05,9.99999e-01,9.99999e-01,9.99999e-01,9.99930e-01,3.36537e-05,9.99999e-01
4.762907561e-01,4.12448e-05,9.99999e-01,9.99999e-01,9.99999e-01,9.99963e-01,4.12463e-05,9.99999e-01
4.786722099e-01,5.03484e-05,9.99999e-01,9.99999e-01,9.99999e-01,9.99984e-01,5.03492e-05,9.99999e-01
4.810655710e-01,6.12191e-05,9.99999e-01,9.99999e-01,9.99999e-01,9.99995e-01,6.12193e-05,9.99999e-01
4.834708988e-01,7.41464e-05,9.99999e-01,9.99999e-01,9.99999e-01,9.99958e-01,7.41494e-05,9.99999e-01
4.858882533e-01,8.94643e-05,9.99999e-01,9.99999e-01,9.99999e-01,9.99921e-01,8.94712e-05,9.99999e-01
4.883176946e-01,1.07552e-04,9.99999e-01,9.99999e-01,9.99999e-01,9.99934e-01,1.07559e-04,9.99999e-01
4.907592831e-01,1.28827e-04,9.99999e-01,9.99999e-01,9.99999e-01,9.99940e-01,1.28835e-04,9.99999e-01
4.932130795e-01,1.53763e-04,9.99999e-01,9.99999e-01,9.99999e-01,9.99957e-01,1.53769e-04,9.99999e-01
4.956791449e-01,1.82885e-04,9.99999e-01,9.99999e-01,9.99999e-01,9.99977e-01,1.82889e-04,9.99999e-01
4.981575406e-01,2.16756e-04,9.99999e-01,9.99999e-01,9.99999e-01,9.99889e-01,2.16780e-04,9.99999e-01
5.006483283e-01,2.56016e-04,9.99999e-01,9.99999e-01,9.99999e-01,9.99715e-01,2.56089e-04,9.99997e-01
5.031515699e-01,3.01091e-04,9.99999e-01,9.99999e-01,9.99999e-01,9.98550e-01,3.01533e-04,9.99984e-01
5.056673278e-01,3.53619e-04,9.99999e-01,9.99999e-01,9.99999e-01,9.99232e-01,3.53897e-04,9.99982e-01
5.081956644e-01,4.13637e-04,9.99999e-01,9.99999e-01,9.99999e-01,9.99032e-01,4.14042e-04,9.99988e-01
5.107366428e-01,4.82594e-04,9.99999e-01,9.99999e-01,9.99999e-01,9.99346e-01,4.82910e-04,9.99997e-01
5.132903260e-01,5.61314e-04,9.99999e-01,9.99999e-01,9.99999e-01,9.99625e-01,5.61524e-04,9.99999e-01
5.158567776e-01,6.50890e-04,9.99999e-01,9.99999e-01,9.99999e-01,9.99841e-01,6.50993e-04,9.99999e-01
5.184360615e-01,7.52469e-04,9.99999e-01,9.99999e-01,9.99999e-01,9.99936e-01,7.52517e-04,9.99999e-01
5.210282418e-01,8.67366e-04,9.99999e-01,9.99999e-01,9.99999e-01,9.99975e-01,8.67387e-04,9.99999e-01
5.236333830e-01,9.96895e-04,9.99999e-01,9.99999e-01,9.99999e-01,9.99905e-01,9.96990e-04,9.99998e-01
5.262515499e-01,1.14274e-03,9.99999e-01,9.99999e-01,9.99999e-01,9.99940e-01,1.14281e-03,9.99998e-01
5.288828077e-01,1.30636e-03,9.99999e-01,9.99999e-01,9.99999e-01,9.99945e-01,1.30643e-03,9.99998e-01
5.315272217e-01,1.48946e-03,9.99999e-01,9.99999e-01,9.99999e-01,9.99951e-01,1.48953e-03,9.99999e-01
5.341848578e-01,1.69386e-03,9.99999e-01,9.99999e-01,9.99999e-01,9.99968e-01,1.69391e-03,9.99999e-01
5.368557821e-01,1.92123e-03,9.99999e-01,9.99999e-01,9.99999e-01,9.99889e-01,1.92144e-03,9.99999e-01
5.395400610e-01,2.17324e-03,9.99999e-01,9.99999e-01,9.99999e-01,9.99604e-01,2.17411e-03,9.99996e-01
5.422377613e-01,2.45273e-03,9.99999e-01,9.99999e-01,9.99999e-01,9.99484e-01,2.45401e-03,9.99990e-01
5.449489501e-01,2.76199e-03,9.99999e-01,9.99999e-01,9.99999e-01,9.99523e-01,2.76333e-03,9.99989e-01
5.476736949e-01,3.10302e-03,9.99999e-01,9.99999e-01,9.99999e-01,9.99575e-01,3.10435e-03,9.99994e-01
5.504120634e-01,3.47838e-03,9.99999e-01,9.99999e-01,9.99999e-01,9.99691e-01,3.47945e-03,9.99998e-01
5.531641237e-01,3.89049e-03,9.99999e-01,9.99999e-01,9.99999e-01,9.99844e-01,3.89110e-03,9.99999e-01
5.559299443e-01,4.34152e-03,9.99999e-01,9.99999e-01,9.99999e-01,9.99924e-01,4.34184e-03,9.99999e-01
5.587095940e-01,4.83410e-03,9.99999e-01,9.99999e-01,9.99999e-01,9.99952e-01,4.83432e-03,9.99999e-01
5.615031420e-01,5.37098e-03,9.99999e-01,9.99999e-01,9.99999e-01,9.99947e-01,5.37126e-03,9.99999e-01
5.643106577e-01,5.95507e-03,9.99999e-01,9.99999e-01,9.99999e-01,9.99941e-01,5.95542e-03,9.99998e-01
5.671322110e-01,6.58495e-03,9.99999e-01,9.99999e-01,9.99999e-01,9.99290e-01,6.58967e-03,9.99993e-01
5.699678720e-01,7.27117e-03,9.99999e-01,9.99999e-01,9.99999e-01,9.99232e-01,7.27690e-03,9.99979e-01
5.728177114e-01,8.01358e-03,9.99999e-01,9.99999e-01,9.99999e-01,9.99205e-01,8.02007e-03,9.99983e-01
5.756818000e-01,8.81566e-03,9.99999e-01,9.99999e-01,9.99999e-01,9.99270e-01,8.82218e-03,9.99989e-01
5.785602090e-01,9.68006e-03,9.99999e-01,9.99999e-01,9.99999e-01,9.99362e-01,9.68625e-03,9.99996e-01
5.814530100e-01,1.06086e-02,9.99999e-01,9.99999e-01,9.99999e-01,9.99361e-01,1.06153e-02,9.99998e-01
5.843602750e-01,1.16037e-02,9.99999e-01,9.99999e-01,9.99999e-01,9.99242e-01,1.16125e-02,9.99995e-01
5.872820764e-01,1.25976e-02,9.99999e-01,9.99999e-01,9.99999e-01,9.93481e-01,1.26809e-02,9.99953e-01
5.902184868e-01,1.37120e-02,9.99999e-01,9.99999e-01,9.99999e-01,9.92059e-01,1.38235e-02,9.99873e-01
5.931695792e-01,1.49572e-02,9.99999e-01,9.99999e-01,9.99999e-01,9.94396e-01,1.50433e-02,9.99877e-01
5.961354271e-01,1.62418e-02,9.99999e-01,9.99999e-01,9.99999e-01,9.93849e-01,1.63435e-02,9.99925e-01
5.991161043e-01,1.76471e-02,9.99999e-01,9.99999e-01,9.99999e-01,9.95508e-01,1.77271e-02,9.99978e-01
6.021116848e-01,1.91478e-02,9.99999e-01,9.99999e-01,9.99999e-01,9.97447e-01,1.91969e-02,9.99996e-01
6.051222432e-01,2.07291e-02,9.99999e-01,9.99999e-01,9.99999e-01,9.98707e-01,2.07559e-02,9.99999e-01
6.081478544e-01,2.23944e-02,9.99999e-01,9.99999e-01,9.99999e-01,9.99442e-01,2.24069e-02,9.99999e-01
6.111885937e-01,2.41470e-02,9.99999e-01,9.99999e-01,9.99999e-01,9.99763e-01,2.41527e-02,9.99999e-01
6.142445367e-01,2.59933e-02,9.99999e-01,9.99999e-01,9.99999e-01,9.99894e-01,2.59960e-02,9.99999e-01
6.173157594e-01,2.79377e-02,9.99999e-01,9.99999e-01,9.99999e-01,9.99941e-01,2.79393e-02,9.99999e-01
6.204023382e-01,2.99837e-02,9.99999e-01,9.99999e-01,9.99999e-01,9.99950e-01,2.99852e-02,9.99999e-01
6.235043498e-01,3.21291e-02,9.99999e-01,9.99999e-01,9.99999e-01,9.99785e-01,3.21360e-02,9.99998e-01
6.266218716e-01,3.43544e-02,9.99999e-01,9.99999e-01,9.99999e-01,9.98856e-01,3.43940e-02,9.99991e-01
6.297549810e-01,3.67453e-02,9.99999e-01,9.99999e-01,9.99999e-01,9.99580e-01,3.67613e-02,9.99983e-01
6.329037559e-01,3.92068e-02,9.99999e-01,9.99999e-01,9.99999e-01,9.99169e-01,3.92399e-02,9.99986e-01
6.360682746e-01,4.18018e-02,9.99999e-01,9.99999e-01,9.99999e-01,9.99294e-01,4.18316e-02,9.99991e-01
6.392486160e-01,4.44974e-02,9.99999e-01,9.99999e-01,9.99999e-01,9.99084e-01,4.45383e-02,9.99996e-01
6.424448591e-01,4.73035e-02,9.99999e-01,9.99999e-01,9.99999e-01,9.98781e-01,4.73614e-02,9.99994e-01
6.456570834e-01,5.00167e-02,9.99999e-01,9.99999e-01,9.99999e-01,9.94352e-01,5.03023e-02,9.99968e-01
6.488853688e-01,5.31355e-02,9.99999e-01,9.99999e-01,9.99999e-01,9.95835e-01,5.33624e-02,9.99911e-01
6.521297956e-01,5.62984e-02,9.99999e-01,9.99999e-01,9.99999e-01,9.95755e-01,5.65425e-02,9.99925e-01
6.553904446e-01,5.95894e-02,9.99999e-01,9.99999e-01,9.99999e-01,9.95804e-01,5.98438e-02,9.99944e-01
6.586673968e-01,6.30366e-02,9.99999e-01,9.99999e-01,9.99999e-01,9.96379e-01,6.32668e-02,9.99981e-01
6.619607338e-01,6.66720e-02,9.99999e-01,9.99999e-01,9.99999e-01,9.97905e-01,6.68122e-02,9.99995e-01
6.652705375e-01,7.03946e-02,9.99999e-01,9.99999e-01,9.99999e-01,9.98785e-01,7.04803e-02,9.99997e-01
6.685968902e-01,7.42294e-02,9.99999e-01,9.99999e-01,9.99999e-01,9.99435e-01,7.42713e-02,9.99999e-01
6.719398746e-01,7.81649e-02,9.99999e-01,9.99999e-01,9.99999e-01,9.99738e-01,7.81853e-02,9.99999e-01
6.752995740e-01,8.22105e-02,9.99999e-01,9.99999e-01,9.99999e-01,9.99858e-01,8.22221e-02,9.99999e-01
6.786760719e-01,8.63638e-02,9.99999e-01,9.99999e-01,9.99999e-01,9.99796e-01,8.63814e-02,9.99999e-01
6.820694522e-01,9.06309e-02,9.99999e-01,9.99999e-01,9.99999e-01,9.99651e-01,9.06627e-02,9.99997e-01
6.854797995e-01,9.50222e-02,9.99999e-01,9.99999e-01,9.99999e-01,9.99550e-01,9.50653e-02,9.99995e-01
6.889071985e-01,9.94801e-02,9.99999e-01,9.99999e-01,9.99999e-01,9.98922e-01,9.95884e-02,9.99989e-01
6.923517345e-01,1.02389e-01,9.99999e-01,9.99999e-01,9.99999e-01,9.82414e-01,1.04231e-01,9.99914e-01
6.958134932e-01,1.07958e-01,9.99999e-01,9.99999e-01,9.99999e-01,9.90707e-01,1.08992e-01,9.99807e-01
6.992925606e-01,1.12857e-01,9.99999e-01,9.99999e-01,9.99999e-01,9.91271e-01,1.13869e-01,9.99830e-01
7.027890234e-01,1.17561e-01,9.99999e-01,9.99999e-01,9.99999e-01,9.89180e-01,1.18863e-01,9.99869e-01
7.063029686e-01,1.22834e-01,9.99999e-01,9.99999e-01,9.99999e-01,9.90900e-01,1.23970e-01,9.99934e-01
7.098344834e-01,1.28056e-01,9.99999e-01,9.99999e-01,9.99999e-01,9.91267e-01,1.29189e-01,9.99961e-01
7.133836558e-01,1.32957e-01,9.99999e-01,9.99999e-01,9.99999e-01,9.88471e-01,1.34518e-01,9.99923e-01
7.169505741e-01,1.27406e-01,9.99999e-01,9.99999e-01,9.99999e-01,9.10875e-01,1.39955e-01,9.99402e-01
7.205353270e-01,1.38778e-01,9.99999e-01,9.99999e-01,9.99999e-01,9.54820e-01,1.45498e-01,9.98945e-01
7.241380036e-01,1.42466e-01,9.99999e-01,9.99999e-01,9.99999e-01,9.43438e-01,1.51145e-01,9.99089e-01
7.277586936e-01,1.48748e-01,9.99999e-01,9.99999e-01,9.99999e-01,9.48793e-01,1.56893e-01,9.99255e-01
7.313974871e-01,1.53795e-01,9.99999e-01,9.99999e-01,9.99999e-01,9.45371e-01,1.62739e-01,9.99650e-01
7.350544745e-01,1.63568e-01,9.99999e-01,9.99999e-01,9.99999e-01,9.69806e-01,1.68681e-01,9.99878e-01
7.387297469e-01,1.70806e-01,9.99999e-01,9.99999e-01,9.99999e-01,9.77674e-01,1.74716e-01,9.99944e-01
7.424233956e-01,1.78851e-01,9.99999e-01,9.99999e-01,9.99999e-01,9.88999e-01,1.80842e-01,9.99988e-01
7.461355126e-01,1.85807e-01,9.99999e-01,9.99999e-01,9.99999e-01,9.93326e-01,1.87055e-01,9.99997e-01
7.498661902e-01,1.92750e-01,9.99999e-01,9.99999e-01,9.99999e-01,9.96883e-01,1.93353e-01,9.99998e-01
7.536155211e-01,1.99426e-01,9.99999e-01,9.99999e-01,9.99999e-01,9.98472e-01,1.99731e-01,9.99999e-01
7.573835987e-01,2.06026e-01,9.99999e-01,9.99999e-01,9.99999e-01,9.99213e-01,2.06188e-01,9.99999e-01
7.611705167e-01,2.12617e-01,9.99999e-01,9.99999e-01,9.99999e-01,9.99511e-01,2.12721e-01,9.99999e-01
7.649763693e-01,2.19257e-01,9.99999e-01,9.99999e-01,9.99999e-01,9.99693e-01,2.19324e-01,9.99999e-01
7.688012511e-01,2.25949e-01,9.99999e-01,9.99999e-01,9.99999e-01,9.99786e-01,2.25997e-01,9.99999e-01
7.726452574e-01,2.32693e-01,9.99999e-01,9.99999e-01,9.99999e-01,9.99824e-01,2.32734e-01,9.99999e-01
7.765084837e-01,2.39474e-01,9.99999e-01,9.99999e-01,9.99999e-01,9.99751e-01,2.39533e-01,9.99999e-01
7.803910261e-01,2.31914e-01,9.99999e-01,9.99999e-01,9.42195e-01,9.98930e-01,2.46391e-01,9.99998e-01
7.842929812e-01,1.89995e-01,9.99999e-01,9.99999e-01,7.52640e-01,9.96271e-01,2.53304e-01,9.99992e-01
7.882144461e-01,1.91186e-01,9.99999e-01,9.99999e-01,7.39916e-01,9.92291e-01,2.60268e-01,9.99952e-01
7.921555184e-01,2.22305e-01,9.99999e-01,9.99999e-01,8.35197e-01,9.95753e-01,2.67281e-01,9.99908e-01
7.961162960e-01,2.41106e-01,9.99999e-01,9.99999e-01,8.85411e-01,9.92556e-01,2.74339e-01,9.99911e-01
8.000968774e-01,2.61191e-01,9.99999e-01,9.99999e-01,9.36176e-01,9.91374e-01,2.81438e-01,9.99906e-01
8.040973618e-01,2.76437e-01,9.99999e-01,9.99999e-01,9.66306e-01,9.91380e-01,2.88575e-01,9.99925e-01
8.081178486e-01,2.85533e-01,9.99999e-01,9.99999e-01,9.84424e-01,9.80755e-01,2.95747e-01,9.99930e-01
8.121584379e-01,2.77972e-01,9.99999e-01,9.99999e-01,9.95139e-01,9.22199e-01,3.02950e-01,9.99726e-01
8.162192301e-01,2.81014e-01,9.99999e-01,9.99999e-01,9.98924e-01,9.07839e-01,3.10181e-01,9.98974e-01
8.203003262e-01,3.02388e-01,9.99999e-01,9.99999e-01,9.99982e-01,9.53751e-01,3.17436e-01,9.98798e-01
8.244018279e-01,3.03383e-01,9.99999e-01,9.99999e-01,9.99999e-01,9.35205e-01,3.24713e-01,9.99043e-01
8.285238370e-01,3.13207e-01,9.99999e-01,9.99999e-01,9.99999e-01,9.44077e-01,3.32008e-01,9.99248e-01
8.326664562e-01,3.20006e-01,9.99999e-01,9.99999e-01,9.99999e-01,9.43376e-01,3.39318e-01,9.99689e-01
8.368297885e-01,3.32447e-01,9.99999e-01,9.99999e-01,9.99999e-01,9.59121e-01,3.46640e-01,9.99928e-01
8.410139374e-01,3.45284e-01,9.99999e-01,9.99999e-01,9.99999e-01,9.75497e-01,3.53971e-01,9.99958e-01
8.452190071e-01,3.56927e-01,9.99999e-01,9.99999e-01,9.99999e-01,9.87901e-01,3.61307e-01,9.99974e-01
8.494451021e-01,3.66051e-01,9.99999e-01,9.99999e-01,9.99999e-01,9.92979e-01,3.68646e-01,9.99979e-01
8.536923276e-01,3.74414e-01,9.99999e-01,9.99999e-01,9.99999e-01,9.95834e-01,3.75985e-01,9.99986e-01
8.579607893e-01,3.82337e-01,9.99999e-01,9.99999e-01,9.99999e-01,9.97438e-01,3.83320e-01,9.99995e-01
8.622505932e-01,3.90013e-01,9.99999e-01,9.99999e-01,9.99999e-01,9.98369e-01,3.90650e-01,9.99998e-01
8.665618462e-01,3.56364e-01,9.99999e-01,9.99999e-01,8.96308e-01,9.98993e-01,3.97970e-01,9.99999e-01
8.708946554e-01,1.99678e-01,9.99999e-01,9.99999e-01,4.93227e-01,9.98849e-01,4.05279e-01,9.99998e-01
8.752491287e-01,2.30548e-01,9.99999e-01,9.99999e-01,5.59621e-01,9.98459e-01,4.12574e-01,9.99997e-01
8.796253743e-01,3.03160e-01,9.99999e-01,9.99999e-01,7.23523e-01,9.97871e-01,4.19853e-01,9.99994e-01
8.840235012e-01,3.59769e-01,9.99999e-01,9.99999e-01,8.44337e-01,9.97567e-01,4.27112e-01,9.99984e-01
8.884436187e-01,4.02682e-01,9.99999e-01,9.99999e-01,9.35164e-01,9.91252e-01,4.34350e-01,9.99957e-01
8.928858368e-01,3.91649e-01,9.99999e-01,9.99999e-01,9.73227e-01,9.11177e-01,4.41563e-01,9.99756e-01
8.973502660e-01,3.77509e-01,9.99999e-01,9.99999e-01,9.93406e-01,8.47672e-01,4.48751e-01,9.98752e-01
9.018370173e-01,4.17769e-01,9.99999e-01,9.99999e-01,9.99270e-01,9.18773e-01,4.55910e-01,9.98039e-01
9.063462024e-01,4.21995e-01,9.99999e-01,9.99999e-01,9.81938e-01,9.28729e-01,4.63038e-01,9.98277e-01
9.108779334e-01,4.00941e-01,9.99999e-01,9.99999e-01,9.58158e-01,8.90791e-01,4.70134e-01,9.98209e-01
9.154323231e-01,4.13667e-01,9.99999e-01,9.99999e-01,9.89961e-01,8.76605e-01,4.77196e-01,9.98520e-01
9.200094847e-01,3.84514e-01,9.99999e-01,9.99999e-01,8.72903e-01,9.01969e-01,4.84220e-01,9.99171e-01
9.246095321e-01,3.42561e-01,9.99999e-01,9.99999e-01,8.11814e-01,8.54540e-01,4.91206e-01,9.99045e-01
9.292325798e-01,1.54656e-01,9.99999e-01,9.99999e-01,8.51238e-01,3.56558e-01,4.98153e-01,9.96282e-01
9.338787427e-01,1.14869e-01,9.99999e-01,9.99999e-01,8.54327e-01,2.63535e-01,5.05057e-01,9.84724e-01
9.385481364e-01,2.63421e-01,9.99999e-01,9.99999e-01,8.90370e-01,5.81979e-01,5.11917e-01,9.81858e-01
9.432408771e-01,2.29962e-01,9.99999e-01,9.99999e-01,9.31095e-01,4.80594e-01,5.18733e-01,9.84329e-01
9.479570815e-01,1.83702e-01,9.99999e-01,9.99999e-01,9.64080e-01,3.66129e-01,5.25502e-01,9.87227e-01
9.526968669e-01,2.40510e-01,9.99999e-01,9.99999e-01,9.82506e-01,4.62420e-01,5.32223e-01,9.92189e-01
9.574603512e-01,2.57951e-01,9.99999e-01,9.99999e-01,9.92477e-01,4.83792e-01,5.38895e-01,9.96024e-01
9.622476530e-01,2.98792e-01,9.99999e-01,9.99999e-01,9.97646e-01,5.50390e-01,5.45516e-01,9.97249e-01
9.670588912e-01,3.89856e-01,9.99999e-01,9.99999e-01,9.99293e-01,7.07937e-01,5.52085e-01,9.98117e-01
9.718941857e-01,4.48472e-01,9.99999e-01,9.99999e-01,9.99949e-01,8.03997e-01,5.58602e-01,9.98614e-01
9.767536566e-01,4.70921e-01,9.99999e-01,9.99999e-01,9.99999e-01,8.34276e-01,5.65064e-01,9.98940e-01
9.816374249e-01,4.99250e-01,9.99999e-01,9.99999e-01,9.99999e-01,8.73942e-01,5.71471e-01,9.99632e-01
9.865456120e-01,5.31069e-01,9.99999e-01,9.99999e-01,9.99999e-01,9.19157e-01,5.77822e-01,9.99923e-01
9.914783401e-01,5.54437e-01,9.99999e-01,9.99999e-01,9.99999e-01,9.49209e-01,5.84116e-01,9.99978e-01
9.964357318e-01,5.73821e-01,9.99999e-01,9.99999e-01,9.99999e-01,9.72008e-01,5.90353e-01,9.99987e-01
1.001417910e+00,5.86453e-01,9.99999e-01,9.99999e-01,9.99999e-01,9.83124e-01,5.96531e-01,9.99980e-01
1.006425000e+00,5.96822e-01,9.99999e-01,9.99999e-01,9.99999e-01,9.90357e-01,6.02649e-01,9.99972e-01
1.011457125e+00,6.05038e-01,9.99999e-01,9.99999e-01,9.99999e-01,9.93995e-01,6.08708e-01,9.99974e-01
1.016514411e+00,6.12190e-01,9.99999e-01,9.99999e-01,9.99999e-01,9.95924e-01,6.14706e-01,9.99981e-01
1.021596983e+00,6.18560e-01,9.99999e-01,9.99999e-01,9.99908e-01,9.96752e-01,6.20643e-01,9.99981e-01
1.026704968e+00,6.20489e-01,9.99999e-01,9.99999e-01,9.92897e-01,9.97467e-01,6.26518e-01,9.99987e-01
1.031838492e+00,5.89340e-01,9.99999e-01,9.99999e-01,9.33665e-01,9.98156e-01,6.32331e-01,9.99996e-01
1.036997685e+00,5.38338e-02,9.99999e-01,9.99999e-01,8.44388e-02,9.98906e-01,6.38082e-01,9.99998e-01
1.042182673e+00,1.43094e-02,9.99999e-01,9.99999e-01,2.22513e-02,9.98698e-01,6.43770e-01,9.99999e-01
1.047393587e+00,2.61996e-02,9.99999e-01,9.99999e-01,4.04044e-02,9.98272e-01,6.49394e-01,9.99999e-01
1.052630555e+00,5.60903e-05,9.99999e-01,9.99999e-01,8.57762e-05,9.97632e-01,6.54956e-01,9.99998e-01
1.057893707e+00,1.89880e-04,9.99999e-01,9.99999e-01,2.88157e-04,9.96053e-01,6.60454e-01,9.99998e-01
1.063183176e+00,1.52791e-03,9.99999e-01,9.99999e-01,2.30402e-03,9.93508e-01,6.65887e-01,9.99996e-01
1.068499092e+00,8.11570e-03,9.99999e-01,9.99999e-01,1.21899e-02,9.89142e-01,6.71257e-01,9.99992e-01
1.073841587e+00,4.02818e-02,9.99999e-01,9.99999e-01,6.01359e-02,9.87322e-01,6.76563e-01,9.99983e-01
