#,Wave/freq,Total,N2,O2,CO2,H2O,Rayleigh,CIA
4.000000000e-01,1.24953e-19,9.99999e-01,9.99999e-01,9.99999e-01,9.99915e-01,1.24963e-19,9.99999e-01
4.020000000e-01,2.95483e-19,9.99999e-01,9.99999e-01,9.99999e-01,9.99947e-01,2.95498e-19,9.99999e-01
4.040100000e-01,6.86353e-19,9.99999e-01,9.99999e-01,9.99999e-01,9.99977e-01,6.86368e-19,9.99999e-01
4.060300500e-01,1.56793e-18,9.99999e-01,9.99999e-01,9.99999e-01,9.99994e-01,1.56794e-18,9.99999e-01
4.080602003e-01,3.52384e-18,9.99999e-01,9.99999e-01,9.99999e-01,9.99997e-01,3.52384e-18,9.99999e-01
4.101005013e-01,7.79392e-18,9.99999e-01,9.99999e-01,9.99999e-01,9.99999e-01,7.79392e-18,9.99999e-01
4.121510038e-01,1.69701e-17,9.99999e-01,9.99999e-01,9.99999e-01,9.99996e-01,1.69702e-17,9.99999e-01
4.142117588e-01,3.63858e-17,9.99999e-01,9.99999e-01,9.99999e-01,9.99976e-01,3.63866e-17,9.99999e-01
4.162828176e-01,7.68438e-17,9.99999e-01,9.99999e-01,9.99999e-01,9.99895e-01,7.68517e-17,9.99999e-01
4.183642317e-01,1.59928e-16,9.99999e-01,9.99999e-01,9.99999e-01,9.99937e-01,1.59938e-16,9.99999e-01
4.204560528e-01,3.28055e-16,9.99999e-01,9.99999e-01,9.99999e-01,9.99961e-01,3.28067e-16,9.99999e-01
4.225583331e-01,6.63445e-16,9.99999e-01,9.99999e-01,9.99999e-01,9.99985e-01,6.63455e-16,9.99999e-01
4.246711247e-01,1.32316e-15,9.99999e-01,9.99999e-01,9.99999e-01,9.99988e-01,1.32318e-15,9.99999e-01
4.267944804e-01,2.60313e-15,9.99999e-01,9.99999e-01,9.99999e-01,9.99982e-01,2.60317e-15,9.99999e-01
4.289284528e-01,5.05333e-15,9.99999e-01,9.99999e-01,9.99999e-01,9.99986e-01,5.05339e-15,9.99999e-01
4.310730950e-01,9.68211e-15,9.99999e-01,9.99999e-01,9.99999e-01,9.99994e-01,9.68217e-15,9.99999e-01
4.332284605e-01,1.83140e-14,9.99999e-01,9.99999e-01,9.99999e-01,9.99998e-01,1.83140e-14,9.99999e-01
4.353946028e-01,3.42080e-14,9.99999e-01,9.99999e-01,9.99999e-01,9.99998e-01,3.42081e-14,9.99999e-01
4.375715758e-01,6.31115e-14,9.99999e-01,9.99999e-01,9.99999e-01,9.99989e-01,6.31121e-14,9.99999e-01
4.397594337e-01,1.15028e-13,9.99999e-01,9.99999e-01,9.99999e-01,9.99909e-01,1.15038e-13,9.99999e-01
4.419582309e-01,2.07121e-13,9.99999e-01,9.99999e-01,9.99999e-01,9.99540e-01,2.07216e-13,9.99999e-01
4.441680220e-01,3.68806e-13,9.99999e-01,9.99999e-01,9.99999e-01,9.99637e-01,3.68940e-13,9.99999e-01
4.463888621e-01,6.49196e-13,9.99999e-01,9.99999e-01,9.99999e-01,9.99623e-01,6.49440e-13,9.99999e-01
4.486208064e-01,1.13024e-12,9.99999e-01,9.99999e-01,9.99999e-01,9.99765e-01,1.13050e-12,9.99999e-01
4.508639105e-01,1.94626e-12,9.99999e-01,9.99999e-01,9.99999e-01,9.99890e-01,1.94648e-12,9.99999e-01
4.531182300e-01,3.31548e-12,9.99999e-01,9.99999e-01,9.99999e-01,9.99956e-01,3.31563e-12,9.99999e-01
4.553838212e-01,5.58856e-12,9.99999e-01,9.99999e-01,9.99999e-01,9.99970e-01,5.58872e-12,9.99999e-01
4.576607403e-01,9.32342e-12,9.99999e-01,9.99999e-01,9.99999e-01,9.99986e-01,9.32355e-12,9.99999e-01
4.599490440e-01,1.53977e-11,9.99999e-01,9.99999e-01,9.99999e-01,9.99989e-01,1.53978e-11,9.99999e-01
4.622487892e-01,2.51787e-11,9.99999e-01,9.99999e-01,9.99999e-01,9.99997e-01,2.51787e-11,9.99999e-01
4.645600332e-01,4.07743e-11,9.99999e-01,9.99999e-01,9.99999e-01,9.99993e-01,4.07746e-11,9.99999e-01
4.668828333e-01,6.53977e-11,9.99999e-01,9.99999e-01,9.99999e-01,9.99889e-01,6.54049e-11,9.99999e-01
4.692172475e-01,1.03914e-10,9.99999e-01,9.99999e-01,9.99999e-01,9.99763e-01,1.03939e-10,9.99999e-01
4.715633337e-01,1.63645e-10,9.99999e-01,9.99999e-01,9.99999e-01,9.99845e-01,1.63671e-10,9.99999e-01
4.739211504e-01,2.55390e-10,9.99999e-01,9.99999e-01,9.99999e-01,9.99851e-01,2.55428e-10,9.99999e-01
4.762907561e-01,3.95108e-10,9.99999e-01,9.99999e-01,9.99999e-01,9.99922e-01,3.95138e-10,9.99999e-01
4.786722099e-01,6.06000e-10,9.99999e-01,9.99999e-01,9.99999e-01,9.99968e-01,6.06019e-10,9.99999e-01
4.810655710e-01,9.21618e-10,9.99999e-01,9.99999e-01,9.99999e-01,9.99990e-01,9.21627e-10,9.99999e-01
4.834708988e-01,1.38992e-09,9.99999e-01,9.99999e-01,9.99999e-01,9.99910e-01,1.39004e-09,9.99999e-01
4.858882533e-01,2.07923e-09,9.99999e-01,9.99999e-01,9.99999e-01,9.99832e-01,2.07958e-09,9.99999e-01
4.883176946e-01,3.08607e-09,9.99999e-01,9.99999e-01,9.99999e-01,9.99860e-01,3.08650e-09,9.99999e-01
4.907592831e-01,4.54481e-09,9.99999e-01,9.99999e-01,9.99999e-01,9.99873e-01,4.54538e-09,9.99999e-01
4.932130795e-01,6.64225e-09,9.99999e-01,9.99999e-01,9.99999e-01,9.99909e-01,6.64284e-09,9.99999e-01
4.956791449e-01,9.63523e-09,9.99999e-01,9.99999e-01,9.99999e-01,9.99952e-01,9.63569e-09,9.99999e-01
4.981575406e-01,1.38713e-08,9.99999e-01,9.99999e-01,9.99999e-01,9.99763e-01,1.38746e-08,9.99999e-01
5.006483283e-01,1.98228e-08,9.99999e-01,9.99999e-01,9.99999e-01,9.99388e-01,1.98350e-08,9.99995e-01
5.031515699e-01,2.80680e-08,9.99999e-01,9.99999e-01,9.99999e-01,9.96893e-01,2.81564e-08,9.99966e-01
5.056673278e-01,3.96265e-08,9.99999e-01,9.99999e-01,9.99999e-01,9.98356e-01,3.96932e-08,9.99962e-01
5.081956644e-01,5.54623e-08,9.99999e-01,9.99999e-01,9.99999e-01,9.97927e-01,5.55789e-08,9.99975e-01
5.107366428e-01,7.71979e-08,9.99999e-01,9.99999e-01,9.99999e-01,9.98599e-01,7.73064e-08,9.99995e-01
5.132903260e-01,1.06744e-07,9.99999e-01,9.99999e-01,9.99999e-01,9.99198e-01,1.06829e-07,9.99998e-01
5.158567776e-01,1.46637e-07,9.99999e-01,9.99999e-01,9.99999e-01,9.99661e-01,1.46687e-07,9.99999e-01
5.184360615e-01,2.00131e-07,9.99999e-01,9.99999e-01,9.99999e-01,9.99864e-01,2.00158e-07,9.99999e-01
5.210282418e-01,2.71434e-07,9.99999e-01,9.99999e-01,9.99999e-01,9.99949e-01,2.71448e-07,9.99999e-01
5.236333830e-01,3.65847e-07,9.99999e-01,9.99999e-01,9.99999e-01,9.99796e-01,3.65921e-07,9.99998e-01
5.262515499e-01,4.90310e-07,9.99999e-01,9.99999e-01,9.99999e-01,9.99872e-01,4.90373e-07,9.99997e-01
5.288828077e-01,6.53286e-07,9.99999e-01,9.99999e-01,9.99999e-01,9.99883e-01,6.53363e-07,9.99998e-01
5.315272217e-01,8.65518e-07,9.99999e-01,9.99999e-01,9.99999e-01,9.99897e-01,8.65607e-07,9.99999e-01
5.341848578e-01,1.14037e-06,9.99999e-01,9.99999e-01,9.99999e-01,9.99932e-01,1.14044e-06,9.99999e-01
5.368557821e-01,1.49403e-06,9.99999e-01,9.99999e-01,9.99999e-01,9.99764e-01,1.49438e-06,9.99998e-01
5.395400610e-01,1.94607e-06,9.99999e-01,9.99999e-01,9.99999e-01,9.99151e-01,1.94773e-06,9.99992e-01
5.422377613e-01,2.52254e-06,9.99999e-01,9.99999e-01,9.99999e-01,9.98896e-01,2.52537e-06,9.99979e-01
5.449489501e-01,3.25417e-06,9.99999e-01,9.99999e-01,9.99999e-01,9.98977e-01,3.25757e-06,9.99978e-01
5.476736949e-01,4.17713e-06,9.99999e-01,9.99999e-01,9.99999e-01,9.99090e-01,4.18098e-06,9.99989e-01
5.504120634e-01,5.33621e-06,9.99999e-01,9.99999e-01,9.99999e-01,9.99340e-01,5.33975e-06,9.99996e-01
5.531641237e-01,6.78455e-06,9.99999e-01,9.99999e-01,9.99999e-01,9.99667e-01,6.78680e-06,9.99999e-01
5.559299443e-01,8.58387e-06,9.99999e-01,9.99999e-01,9.99999e-01,9.99839e-01,8.58524e-06,9.99999e-01
5.587095940e-01,1.08089e-05,9.99999e-01,9.99999e-01,9.99999e-01,9.99899e-01,1.08099e-05,9.99999e-01
5.615031420e-01,1.35478e-05,9.99999e-01,9.99999e-01,9.99999e-01,9.99887e-01,1.35493e-05,9.99999e-01
5.643106577e-01,1.69052e-05,9.99999e-01,9.99999e-01,9.99999e-01,9.99873e-01,1.69073e-05,9.99998e-01
5.671322110e-01,2.09731e-05,9.99999e-01,9.99999e-01,9.99999e-01,9.98474e-01,2.10054e-05,9.99985e-01
5.699678720e-01,2.59415e-05,9.99999e-01,9.99999e-01,9.99999e-01,9.98357e-01,2.59853e-05,9.99957e-01
5.728177114e-01,3.19553e-05,9.99999e-01,9.99999e-01,9.99999e-01,9.98297e-01,3.20109e-05,9.99964e-01
5.756818000e-01,3.92094e-05,9.99999e-01,9.99999e-01,9.99999e-01,9.98435e-01,3.92717e-05,9.99978e-01
5.785602090e-01,4.79194e-05,9.99999e-01,9.99999e-01,9.99999e-01,9.98635e-01,4.79852e-05,9.99993e-01
5.814530100e-01,5.83203e-05,9.99999e-01,9.99999e-01,9.99999e-01,9.98630e-01,5.84004e-05,9.99996e-01
5.843602750e-01,7.06854e-05,9.99999e-01,9.99999e-01,9.99999e-01,9.98374e-01,7.08011e-05,9.99990e-01
5.872820764e-01,8.43104e-05,9.99999e-01,9.99999e-01,9.99999e-01,9.86079e-01,8.55090e-05,9.99900e-01
5.902184868e-01,1.01118e-04,9.99999e-01,9.99999e-01,9.99999e-01,9.83061e-01,1.02888e-04,9.99730e-01
5.931695792e-01,1.21840e-04,9.99999e-01,9.99999e-01,9.99999e-01,9.88035e-01,1.23347e-04,9.99740e-01
5.961354271e-01,1.45390e-04,9.99999e-01,9.99999e-01,9.99999e-01,9.86868e-01,1.47347e-04,9.99850e-01
5.991161043e-01,1.73706e-04,9.99999e-01,9.99999e-01,9.99999e-01,9.90399e-01,1.75398e-04,9.99953e-01
6.021116848e-01,2.06935e-04,9.99999e-01,9.99999e-01,9.99999e-01,9.94538e-01,2.08073e-04,9.99993e-01
6.051222432e-01,2.45322e-04,9.99999e-01,9.99999e-01,9.99999e-01,9.97232e-01,2.46002e-04,9.99999e-01
6.081478544e-01,2.89540e-04,9.99999e-01,9.99999e-01,9.99999e-01,9.98806e-01,2.89886e-04,9.99999e-01
6.111885937e-01,3.40320e-04,9.99999e-01,9.99999e-01,9.99999e-01,9.99494e-01,3.40492e-04,9.99999e-01
6.142445367e-01,3.98573e-04,9.99999e-01,9.99999e-01,9.99999e-01,9.99773e-01,3.98663e-04,9.99999e-01
6.173157594e-01,4.65263e-04,9.99999e-01,9.99999e-01,9.99999e-01,9.99875e-01,4.65321e-04,9.99999e-01
6.204023382e-01,5.41411e-04,9.99999e-01,9.99999e-01,9.99999e-01,9.99894e-01,5.41468e-04,9.99999e-01
6.235043498e-01,6.27903e-04,9.99999e-01,9.99999e-01,9.99999e-01,9.99539e-01,6.28193e-04,9.99998e-01
6.266218716e-01,7.24880e-04,9.99999e-01,9.99999e-01,9.99999e-01,9.97549e-01,7.26672e-04,9.99982e-01
6.297549810e-01,8.37393e-04,9.99999e-01,9.99999e-01,9.99999e-01,9.99100e-01,8.38175e-04,9.99965e-01
6.329037559e-01,9.62325e-04,9.99999e-01,9.99999e-01,9.99999e-01,9.98221e-01,9.64066e-04,9.99971e-01
6.360682746e-01,1.10411e-03,9.99999e-01,9.99999e-01,9.99999e-01,9.98488e-01,1.10580e-03,9.99983e-01
6.392486160e-01,1.26246e-03,9.99999e-01,9.99999e-01,9.99999e-01,9.98039e-01,1.26495e-03,9.99992e-01
6.424448591e-01,1.43937e-03,9.99999e-01,9.99999e-01,9.99999e-01,9.97386e-01,1.44316e-03,9.99987e-01
6.456570834e-01,1.62225e-03,9.99999e-01,9.99999e-01,9.99999e-01,9.87919e-01,1.64219e-03,9.99932e-01
6.488853688e-01,1.84699e-03,9.99999e-01,9.99999e-01,9.99999e-01,9.91104e-01,1.86392e-03,9.99810e-01
6.521297956e-01,2.09084e-03,9.99999e-01,9.99999e-01,9.99999e-01,9.90936e-01,2.11029e-03,9.99841e-01
6.553904446e-01,2.36171e-03,9.99999e-01,9.99999e-01,9.99999e-01,9.91024e-01,2.38338e-03,9.99880e-01
6.586673968e-01,2.66447e-03,9.99999e-01,9.99999e-01,9.99999e-01,9.92263e-01,2.68535e-03,9.99960e-01
6.619607338e-01,3.00490e-03,9.99999e-01,9.99999e-01,9.99999e-01,9.95519e-01,3.01845e-03,9.99991e-01
6.652705375e-01,3.37624e-03,9.99999e-01,9.99999e-01,9.99999e-01,9.97401e-01,3.38504e-03,9.99995e-01
6.685968902e-01,3.78300e-03,9.99999e-01,9.99999e-01,9.99999e-01,9.98792e-01,3.78758e-03,9.99998e-01
6.719398746e-01,4.22622e-03,9.99999e-01,9.99999e-01,9.99999e-01,9.99439e-01,4.22858e-03,9.99999e-01
6.752995740e-01,4.70925e-03,9.99999e-01,9.99999e-01,9.99999e-01,9.99696e-01,4.71068e-03,9.99999e-01
6.786760719e-01,5.23427e-03,9.99999e-01,9.99999e-01,9.99999e-01,9.99563e-01,5.23656e-03,9.99998e-01
6.820694522e-01,5.80462e-03,9.99999e-01,9.99999e-01,9.99999e-01,9.99252e-01,5.80899e-03,9.99995e-01
6.854797995e-01,6.42455e-03,9.99999e-01,9.99999e-01,9.99999e-01,9.99036e-01,6.43080e-03,9.99991e-01
6.889071985e-01,7.08829e-03,9.99999e-01,9.99999e-01,9.99999e-01,9.97684e-01,7.10489e-03,9.99978e-01
6.923517345e-01,7.54070e-03,9.99999e-01,9.99999e-01,9.99999e-01,9.62712e-01,7.83419e-03,9.99816e-01
6.958134932e-01,8.44827e-03,9.99999e-01,9.99999e-01,9.99999e-01,9.80287e-01,8.62170e-03,9.99587e-01
6.992925606e-01,9.29071e-03,9.99999e-01,9.99999e-01,9.99999e-01,9.81377e-01,9.47044e-03,9.99636e-01
7.027890234e-01,1.01416e-02,9.99999e-01,9.99999e-01,9.99999e-01,9.76975e-01,1.03835e-02,9.99721e-01
7.063029686e-01,1.11418e-02,9.99999e-01,9.99999e-01,9.99999e-01,9.80602e-01,1.13638e-02,9.99861e-01
7.098344834e-01,1.21824e-02,9.99999e-01,9.99999e-01,9.99999e-01,9.81376e-01,1.24146e-02,9.99917e-01
7.133836558e-01,1.32042e-02,9.99999e-01,9.99999e-01,9.99999e-01,9.75439e-01,1.35388e-02,9.99836e-01
7.169505741e-01,1.20838e-02,9.99999e-01,9.99999e-01,9.99999e-01,8.20863e-01,1.47397e-02,9.98719e-01
7.205353270e-01,1.44937e-02,9.99999e-01,9.99999e-01,9.99999e-01,9.06770e-01,1.60201e-02,9.97741e-01
7.241380036e-01,1.53283e-02,9.99999e-01,9.99999e-01,9.99999e-01,8.83517e-01,1.73831e-02,9.98049e-01
7.277586936e-01,1.68136e-02,9.99999e-01,9.99999e-01,9.99999e-01,8.94263e-01,1.88317e-02,9.98405e-01
7.313974871e-01,1.80578e-02,9.99999e-01,9.99999e-01,9.99999e-01,8.87206e-01,2.03687e-02,9.99252e-01
7.350544745e-01,2.05977e-02,9.99999e-01,9.99999e-01,9.99999e-01,9.36624e-01,2.19971e-02,9.99739e-01
7.387297469e-01,2.25987e-02,9.99999e-01,9.99999e-01,9.99999e-01,9.52852e-01,2.37197e-02,9.99880e-01
7.424233956e-01,2.49410e-02,9.99999e-01,9.99999e-01,9.99999e-01,9.76606e-01,2.55390e-02,9.99976e-01
7.461355126e-01,2.70668e-02,9.99999e-01,9.99999e-01,9.99999e-01,9.85764e-01,2.74578e-02,9.99995e-01
7.498661902e-01,2.92822e-02,9.99999e-01,9.99999e-01,9.99999e-01,9.93339e-01,2.94785e-02,9.99998e-01
7.536155211e-01,3.15003e-02,9.99999e-01,9.99999e-01,9.99999e-01,9.96731e-01,3.16036e-02,9.99998e-01
7.573835987e-01,3.37784e-02,9.99999e-01,9.99999e-01,9.99999e-01,9.98316e-01,3.38354e-02,9.99999e-01
7.611705167e-01,3.61381e-02,9.99999e-01,9.99999e-01,9.99999e-01,9.98953e-01,3.61759e-02,9.99999e-01
7.649763693e-01,3.86020e-02,9.99999e-01,9.99999e-01,9.99999e-01,9.99344e-01,3.86273e-02,9.99999e-01
7.688012511e-01,4.11726e-02,9.99999e-01,9.99999e-01,9.99999e-01,9.99543e-01,4.11914e-02,9.99999e-01
7.726452574e-01,4.38535e-02,9.99999e-01,9.99999e-01,9.99999e-01,9.99624e-01,4.38700e-02,9.99999e-01
7.765084837e-01,4.66398e-02,9.99999e-01,9.99999e-01,9.99999e-01,9.99468e-01,4.66647e-02,9.99998e-01
7.803910261e-01,4.42987e-02,9.99999e-01,9.99999e-01,8.95395e-01,9.97705e-01,4.95768e-02,9.99997e-01
7.842929812e-01,2.93072e-02,9.99999e-01,9.99999e-01,5.60916e-01,9.92014e-01,5.26078e-02,9.99984e-01
7.882144461e-01,3.00014e-02,9.99999e-01,9.99999e-01,5.46000e-01,9.83550e-01,5.57587e-02,9.99898e-01
7.921555184e-01,4.00385e-02,9.99999e-01,9.99999e-01,6.84093e-01,9.90931e-01,5.90305e-02,9.99803e-01
7.961162960e-01,4.74289e-02,9.99999e-01,9.99999e-01,7.71761e-01,9.84104e-01,6.24238e-02,9.99811e-01
8.000968774e-01,5.62324e-02,9.99999e-01,9.99999e-01,8.68767e-01,9.81597e-01,6.59394e-02,9.99799e-01
8.040973618e-01,6.34763e-02,9.99999e-01,9.99999e-01,9.29410e-01,9.81609e-01,6.95777e-02,9.99840e-01
8.081178486e-01,6.80315e-02,9.99999e-01,9.99999e-01,9.66963e-01,9.59241e-01,7.33389e-02,9.99850e-01
8.121584379e-01,6.43212e-02,9.99999e-01,9.99999e-01,9.89643e-01,8.41791e-01,7.72230e-02,9.99414e-01
8.162192301e-01,6.59026e-02,9.99999e-01,9.99999e-01,9.97702e-01,8.14832e-01,8.12300e-02,9.97802e-01
8.203003262e-01,7.71044e-02,9.99999e-01,9.99999e-01,9.99963e-01,9.05640e-01,8.53596e-02,9.97427e-01
8.244018279e-01,7.78772e-02,9.99999e-01,9.99999e-01,9.99999e-01,8.70838e-01,8.96113e-02,9.97952e-01
8.285238370e-01,8.30049e-02,9.99999e-01,9.99999e-01,9.99999e-01,8.84599e-01,9.39844e-02,9.98391e-01
8.326664562e-01,8.69437e-02,9.99999e-01,9.99999e-01,9.99999e-01,8.83459e-01,9.84783e-02,9.99334e-01
8.368297885e-01,9.42865e-02,9.99999e-01,9.99999e-01,9.99999e-01,9.14724e-01,1.03092e-01,9.99847e-01
8.410139374e-01,1.02244e-01,9.99999e-01,9.99999e-01,9.99999e-01,9.48334e-01,1.07824e-01,9.99910e-01
8.452190071e-01,1.09770e-01,9.99999e-01,9.99999e-01,9.99999e-01,9.74285e-01,1.12674e-01,9.99946e-01
8.494451021e-01,1.15871e-01,9.99999e-01,9.99999e-01,9.99999e-01,9.85016e-01,1.17639e-01,9.99956e-01
8.536923276e-01,1.21623e-01,9.99999e-01,9.99999e-01,9.99999e-01,9.91101e-01,1.22718e-01,9.99973e-01
8.579607893e-01,1.27209e-01,9.99999e-01,9.99999e-01,9.99999e-01,9.94517e-01,1.27911e-01,9.99993e-01
8.622505932e-01,1.32748e-01,9.99999e-01,9.99999e-01,9.99999e-01,9.96510e-01,1.33213e-01,9.99998e-01
8.665618462e-01,1.18305e-01,9.99999e-01,9.99999e-01,8.55133e-01,9.97843e-01,1.38624e-01,9.99998e-01
8.708946554e-01,3.53955e-02,9.99999e-01,9.99999e-01,2.46104e-01,9.97533e-01,1.44142e-01,9.99998e-01
8.752491287e-01,4.55262e-02,9.99999e-01,9.99999e-01,3.04910e-01,9.96700e-01,1.49764e-01,9.99996e-01
8.796253743e-01,7.90036e-02,9.99999e-01,9.99999e-01,5.10204e-01,9.95439e-01,1.55487e-01,9.99989e-01
8.840235012e-01,1.12205e-01,9.99999e-01,9.99999e-01,6.99044e-01,9.94790e-01,1.61309e-01,9.99967e-01
8.884436187e-01,1.42365e-01,9.99999e-01,9.99999e-01,8.66959e-01,9.81346e-01,1.67229e-01,9.99909e-01
8.928858368e-01,1.34468e-01,9.99999e-01,9.99999e-01,9.43649e-01,8.21310e-01,1.73242e-01,9.99477e-01
8.973502660e-01,1.24712e-01,9.99999e-01,9.99999e-01,9.85968e-01,7.06380e-01,1.79346e-01,9.97327e-01
9.018370173e-01,1.54432e-01,9.99999e-01,9.99999e-01,9.98442e-01,8.37013e-01,1.85538e-01,9.95801e-01
9.063462024e-01,1.58022e-01,9.99999e-01,9.99999e-01,9.62311e-01,8.55281e-01,1.91815e-01,9.96310e-01
9.108779334e-01,1.41774e-01,9.99999e-01,9.99999e-01,9.12834e-01,7.83482e-01,1.98174e-01,9.96166e-01
9.154323231e-01,1.51332e-01,9.99999e-01,9.99999e-01,9.78720e-01,7.56770e-01,2.04613e-01,9.96830e-01
9.200094847e-01,1.35911e-01,9.99999e-01,9.99999e-01,7.74932e-01,8.04480e-01,2.11127e-01,9.98224e-01
9.246095321e-01,1.03212e-01,9.99999e-01,9.99999e-01,6.42635e-01,7.23245e-01,2.17713e-01,9.97954e-01
9.292325798e-01,2.36459e-02,9.99999e-01,9.99999e-01,7.14148e-01,1.37141e-01,2.24369e-01,9.92048e-01
9.338787427e-01,1.27472e-02,9.99999e-01,9.99999e-01,7.17468e-01,7.36560e-02,2.31091e-01,9.67538e-01
9.385481364e-01,6.41115e-02,9.99999e-01,9.99999e-01,7.81292e-01,3.44967e-01,2.37876e-01,9.61511e-01
9.432408771e-01,5.08620e-02,9.99999e-01,9.99999e-01,8.58540e-01,2.44840e-01,2.44720e-01,9.66706e-01
9.479570815e-01,3.19600e-02,9.99999e-01,9.99999e-01,9.24700e-01,1.39604e-01,2.51619e-01,9.72818e-01
9.526968669e-01,5.32235e-02,9.99999e-01,9.99999e-01,9.62979e-01,2.15611e-01,2.58572e-01,9.83331e-01
9.574603512e-01,5.98719e-02,9.99999e-01,9.99999e-01,9.83971e-01,2.30307e-01,2.65573e-01,9.91498e-01
9.622476530e-01,7.95022e-02,9.99999e-01,9.99999e-01,9.94969e-01,2.94534e-01,2.72620e-01,9.94113e-01
9.670588912e-01,1.36349e-01,9.99999e-01,9.99999e-01,9.98488e-01,4.90046e-01,2.79709e-01,9.95970e-01
9.718941857e-01,1.80264e-01,9.99999e-01,9.99999e-01,9.99892e-01,6.30375e-01,2.86837e-01,9.97031e-01
9.767536566e-01,1.99830e-01,9.99999e-01,9.99999e-01,9.99999e-01,6.81238e-01,2.94001e-01,9.97730e-01
9.816374249e-01,2.25941e-01,9.99999e-01,9.99999e-01,9.99999e-01,7.50732e-01,3.01197e-01,9.99213e-01
9.865456120e-01,2.57597e-01,9.99999e-01,9.99999e-01,9.99999e-01,8.35346e-01,3.08421e-01,9.99835e-01
9.914783401e-01,2.82348e-01,9.99999e-01,9.99999e-01,9.99999e-01,8.94477e-01,3.15671e-01,9.99954e-01
9.964357318e-01,3.03899e-01,9.99999e-01,9.99999e-01,9.99999e-01,9.41054e-01,3.22943e-01,9.99972e-01
1.001417910e+00,3.18403e-01,9.99999e-01,9.99999e-01,9.99999e-01,9.64213e-01,3.30234e-01,9.99959e-01
1.006425000e+00,3.30586e-01,9.99999e-01,9.99999e-01,9.99999e-01,9.79450e-01,3.37541e-01,9.99941e-01
1.011457125e+00,3.40423e-01,9.99999e-01,9.99999e-01,9.99999e-01,9.87184e-01,3.44860e-01,9.99945e-01
1.016514411e+00,3.49107e-01,9.99999e-01,9.99999e-01,9.99999e-01,9.91286e-01,3.52189e-01,9.99961e-01
1.021596983e+00,3.56943e-01,9.99999e-01,9.99999e-01,9.99799e-01,9.93052e-01,3.59524e-01,9.99961e-01
1.026704968e+00,3.59355e-01,9.99999e-01,9.99999e-01,9.84871e-01,9.94579e-01,3.66863e-01,9.99974e-01
1.031838492e+00,3.31395e-01,9.99999e-01,9.99999e-01,8.88904e-01,9.96054e-01,3.74202e-01,9.99992e-01
1.036997685e+00,1.40816e-02,9.99999e-01,9.99999e-01,3.69724e-02,9.97656e-01,3.81538e-01,9.99998e-01
1.042182673e+00,3.70931e-04,9.99999e-01,9.99999e-01,9.55827e-04,9.97211e-01,3.88869e-01,9.99999e-01
1.047393587e+00,1.09576e-03,9.99999e-01,9.99999e-01,2.77410e-03,9.96300e-01,3.96192e-01,9.99998e-01
1.052630555e+00,1.34542e-08,9.99999e-01,9.99999e-01,3.34484e-08,9.94928e-01,4.03505e-01,9.99998e-01
1.057893707e+00,5.00424e-08,9.99999e-01,9.99999e-01,1.22319e-07,9.91553e-01,4.10803e-01,9.99996e-01
1.063183176e+00,3.69531e-06,9.99999e-01,9.99999e-01,8.90625e-06,9.86134e-01,4.18086e-01,9.99992e-01
1.068499092e+00,5.66035e-05,9.99999e-01,9.99999e-01,1.34952e-04,9.76882e-01,4.25350e-01,9.99983e-01
1.073841587e+00,1.27965e-03,9.99999e-01,9.99999e-01,3.01334e-03,9.73055e-01,4.32593e-01,9.99965e-01
