#,Wave/freq,Total,N2,O2,CO2,H2O,Rayleigh,CIA
4.000000000e-01,7.85802e-08,9.99999e-01,9.99999e-01,9.99999e-01,9.99968e-01,7.85826e-08,9.99999e-01
4.020000000e-01,1.08591e-07,9.99999e-01,9.99999e-01,9.99999e-01,9.99980e-01,1.08593e-07,9.99999e-01
4.040100000e-01,1.49060e-07,9.99999e-01,9.99999e-01,9.99999e-01,9.99991e-01,1.49061e-07,9.99999e-01
4.060300500e-01,2.03332e-07,9.99999e-01,9.99999e-01,9.99999e-01,9.99997e-01,2.03332e-07,9.99999e-01
4.080602003e-01,2.75668e-07,9.99999e-01,9.99999e-01,9.99999e-01,9.99998e-01,2.75668e-07,9.99999e-01
4.101005013e-01,3.71496e-07,9.99999e-01,9.99999e-01,9.99999e-01,9.99999e-01,3.71496e-07,9.99999e-01
4.121510038e-01,4.97695e-07,9.99999e-01,9.99999e-01,9.99999e-01,9.99998e-01,4.97696e-07,9.99999e-01
4.142117588e-01,6.62919e-07,9.99999e-01,9.99999e-01,9.99999e-01,9.99990e-01,6.62925e-07,9.99999e-01
4.162828176e-01,8.77989e-07,9.99999e-01,9.99999e-01,9.99999e-01,9.99960e-01,8.78023e-07,9.99999e-01
4.183642317e-01,1.15645e-06,9.99999e-01,9.99999e-01,9.99999e-01,9.99976e-01,1.15648e-06,9.99999e-01
4.204560528e-01,1.51495e-06,9.99999e-01,9.99999e-01,9.99999e-01,9.99985e-01,1.51497e-06,9.99999e-01
4.225583331e-01,1.97403e-06,9.99999e-01,9.99999e-01,9.99999e-01,9.99994e-01,1.97404e-06,9.99999e-01
4.246711247e-01,2.55879e-06,9.99999e-01,9.99999e-01,9.99999e-01,9.99995e-01,2.55880e-06,9.99999e-01
4.267944804e-01,3.29981e-06,9.99999e-01,9.99999e-01,9.99999e-01,9.99993e-01,3.29983e-06,9.99999e-01
4.289284528e-01,4.23412e-06,9.99999e-01,9.99999e-01,9.99999e-01,9.99994e-01,4.23414e-06,9.99999e-01
4.310730950e-01,5.40628e-06,9.99999e-01,9.99999e-01,9.99999e-01,9.99997e-01,5.40630e-06,9.99999e-01
4.332284605e-01,6.86970e-06,9.99999e-01,9.99999e-01,9.99999e-01,9.99998e-01,6.86970e-06,9.99999e-01
4.353946028e-01,8.68803e-06,9.99999e-01,9.99999e-01,9.99999e-01,9.99999e-01,8.68803e-06,9.99999e-01
4.375715758e-01,1.09368e-05,9.99999e-01,9.99999e-01,9.99999e-01,9.99995e-01,1.09368e-05,9.99999e-01
4.397594337e-01,1.37047e-05,9.99999e-01,9.99999e-01,9.99999e-01,9.99964e-01,1.37052e-05,9.99999e-01
4.419582309e-01,1.70949e-05,9.99999e-01,9.99999e-01,9.99999e-01,9.99823e-01,1.70979e-05,9.99999e-01
4.441680220e-01,2.12347e-05,9.99999e-01,9.99999e-01,9.99999e-01,9.99864e-01,2.12375e-05,9.99999e-01
4.463888621e-01,2.62630e-05,9.99999e-01,9.99999e-01,9.99999e-01,9.99858e-01,2.62667e-05,9.99999e-01
4.486208064e-01,3.23479e-05,9.99999e-01,9.99999e-01,9.99999e-01,9.99912e-01,3.23507e-05,9.99999e-01
4.508639105e-01,3.96786e-05,9.99999e-01,9.99999e-01,9.99999e-01,9.99958e-01,3.96803e-05,9.99999e-01
4.531182300e-01,4.84737e-05,9.99999e-01,9.99999e-01,9.99999e-01,9.99983e-01,4.84745e-05,9.99999e-01
4.553838212e-01,5.89835e-05,9.99999e-01,9.99999e-01,9.99999e-01,9.99988e-01,5.89841e-05,9.99999e-01
4.576607403e-01,7.14943e-05,9.99999e-01,9.99999e-01,9.99999e-01,9.99994e-01,7.14947e-05,9.99999e-01
4.599490440e-01,8.63298e-05,9.99999e-01,9.99999e-01,9.99999e-01,9.99995e-01,8.63301e-05,9.99999e-01
4.622487892e-01,1.03856e-04,9.99999e-01,9.99999e-01,9.99999e-01,9.99998e-01,1.03856e-04,9.99999e-01
4.645600332e-01,1.24485e-04,9.99999e-01,9.99999e-01,9.99999e-01,9.99997e-01,1.24485e-04,9.99999e-01
4.668828333e-01,1.48673e-04,9.99999e-01,9.99999e-01,9.99999e-01,9.99957e-01,1.48679e-04,9.99999e-01
4.692172475e-01,1.76937e-04,9.99999e-01,9.99999e-01,9.99999e-01,9.99911e-01,1.76953e-04,9.99999e-01
4.715633337e-01,2.09868e-04,9.99999e-01,9.99999e-01,9.99999e-01,9.99941e-01,2.09880e-04,9.99999e-01
4.739211504e-01,2.48083e-04,9.99999e-01,9.99999e-01,9.99999e-01,9.99944e-01,2.48097e-04,9.99999e-01
4.762907561e-01,2.92297e-04,9.99999e-01,9.99999e-01,9.99999e-01,9.99970e-01,2.92305e-04,9.99999e-01
4.786722099e-01,3.43273e-04,9.99999e-01,9.99999e-01,9.99999e-01,9.99987e-01,3.43277e-04,9.99999e-01
4.810655710e-01,4.01858e-04,9.99999e-01,9.99999e-01,9.99999e-01,9.99995e-01,4.01860e-04,9.99999e-01
4.834708988e-01,4.68962e-04,9.99999e-01,9.99999e-01,9.99999e-01,9.99964e-01,4.68978e-04,9.99999e-01
4.858882533e-01,5.45605e-04,9.99999e-01,9.99999e-01,9.99999e-01,9.99937e-01,5.45639e-04,9.99999e-01
4.883176946e-01,6.32902e-04,9.99999e-01,9.99999e-01,9.99999e-01,9.99946e-01,6.32936e-04,9.99999e-01
4.907592831e-01,7.32015e-04,9.99999e-01,9.99999e-01,9.99999e-01,9.99952e-01,7.32050e-04,9.99999e-01
4.932130795e-01,8.44227e-04,9.99999e-01,9.99999e-01,9.99999e-01,9.99965e-01,8.44255e-04,9.99999e-01
4.956791449e-01,9.70903e-04,9.99999e-01,9.99999e-01,9.99999e-01,9.99981e-01,9.70920e-04,9.99999e-01
4.981575406e-01,1.11341e-03,9.99999e-01,9.99999e-01,9.99999e-01,9.99910e-01,1.11351e-03,9.99999e-01
5.006483283e-01,1.27329e-03,9.99999e-01,9.99999e-01,9.99999e-01,9.99766e-01,1.27359e-03,9.99997e-01
5.031515699e-01,1.45110e-03,9.99999e-01,9.99999e-01,9.99999e-01,9.98827e-01,1.45282e-03,9.99987e-01
5.056673278e-01,1.65193e-03,9.99999e-01,9.99999e-01,9.99999e-01,9.99382e-01,1.65297e-03,9.99985e-01
5.081956644e-01,1.87443e-03,9.99999e-01,9.99999e-01,9.99999e-01,9.99221e-01,1.87591e-03,9.99990e-01
5.107366428e-01,2.12248e-03,9.99999e-01,9.99999e-01,9.99999e-01,9.99474e-01,2.12360e-03,9.99998e-01
5.132903260e-01,2.39739e-03,9.99999e-01,9.99999e-01,9.99999e-01,9.99700e-01,2.39811e-03,9.99999e-01
5.158567776e-01,2.70127e-03,9.99999e-01,9.99999e-01,9.99999e-01,9.99873e-01,2.70161e-03,9.99999e-01
5.184360615e-01,3.03622e-03,9.99999e-01,9.99999e-01,9.99999e-01,9.99948e-01,3.03637e-03,9.99999e-01
5.210282418e-01,3.40468e-03,9.99999e-01,9.99999e-01,9.99999e-01,9.99980e-01,3.40475e-03,9.99999e-01
5.236333830e-01,3.80889e-03,9.99999e-01,9.99999e-01,9.99999e-01,9.99923e-01,3.80919e-03,9.99998e-01
5.262515499e-01,4.25202e-03,9.99999e-01,9.99999e-01,9.99999e-01,9.99951e-01,4.25223e-03,9.99998e-01
5.288828077e-01,4.73629e-03,9.99999e-01,9.99999e-01,9.99999e-01,9.99955e-01,4.73650e-03,9.99999e-01
5.315272217e-01,5.26449e-03,9.99999e-01,9.99999e-01,9.99999e-01,9.99961e-01,5.26469e-03,9.99999e-01
5.341848578e-01,5.83943e-03,9.99999e-01,9.99999e-01,9.99999e-01,9.99974e-01,5.83958e-03,9.99999e-01
5.368557821e-01,6.46342e-03,9.99999e-01,9.99999e-01,9.99999e-01,9.99910e-01,6.46399e-03,9.99999e-01
5.395400610e-01,7.13850e-03,9.99999e-01,9.99999e-01,9.99999e-01,9.99675e-01,7.14083e-03,9.99996e-01
5.422377613e-01,7.86973e-03,9.99999e-01,9.99999e-01,9.99999e-01,9.99586e-01,7.87305e-03,9.99991e-01
5.449489501e-01,8.66020e-03,9.99999e-01,9.99999e-01,9.99999e-01,9.99612e-01,8.66361e-03,9.99991e-01
5.476736949e-01,9.51230e-03,9.99999e-01,9.99999e-01,9.99999e-01,9.99659e-01,9.51557e-03,9.99995e-01
5.504120634e-01,1.04294e-02,9.99999e-01,9.99999e-01,9.99999e-01,9.99752e-01,1.04320e-02,9.99998e-01
5.531641237e-01,1.14144e-02,9.99999e-01,9.99999e-01,9.99999e-01,9.99875e-01,1.14158e-02,9.99999e-01
5.559299443e-01,1.24696e-02,9.99999e-01,9.99999e-01,9.99999e-01,9.99939e-01,1.24703e-02,9.99999e-01
5.587095940e-01,1.35979e-02,9.99999e-01,9.99999e-01,9.99999e-01,9.99961e-01,1.35984e-02,9.99999e-01
5.615031420e-01,1.48026e-02,9.99999e-01,9.99999e-01,9.99999e-01,9.99957e-01,1.48032e-02,9.99999e-01
5.643106577e-01,1.60870e-02,9.99999e-01,9.99999e-01,9.99999e-01,9.99951e-01,1.60878e-02,9.99999e-01
5.671322110e-01,1.74448e-02,9.99999e-01,9.99999e-01,9.99999e-01,9.99412e-01,1.74551e-02,9.99994e-01
5.699678720e-01,1.88963e-02,9.99999e-01,9.99999e-01,9.99999e-01,9.99388e-01,1.89081e-02,9.99983e-01
5.728177114e-01,2.04364e-02,9.99999e-01,9.99999e-01,9.99999e-01,9.99357e-01,2.04498e-02,9.99986e-01
5.756818000e-01,2.20698e-02,9.99999e-01,9.99999e-01,9.99999e-01,9.99411e-01,2.20830e-02,9.99991e-01
5.785602090e-01,2.37981e-02,9.99999e-01,9.99999e-01,9.99999e-01,9.99487e-01,2.38104e-02,9.99997e-01
5.814530100e-01,2.56215e-02,9.99999e-01,9.99999e-01,9.99999e-01,9.99484e-01,2.56347e-02,9.99998e-01
5.843602750e-01,2.75416e-02,9.99999e-01,9.99999e-01,9.99999e-01,9.99381e-01,2.75587e-02,9.99996e-01
5.872820764e-01,2.94265e-02,9.99999e-01,9.99999e-01,9.99999e-01,9.94687e-01,2.95847e-02,9.99962e-01
5.902184868e-01,3.15094e-02,9.99999e-01,9.99999e-01,9.99999e-01,9.93611e-01,3.17152e-02,9.99898e-01
5.931695792e-01,3.37955e-02,9.99999e-01,9.99999e-01,9.99999e-01,9.95473e-01,3.39525e-02,9.99902e-01
5.961354271e-01,3.61168e-02,9.99999e-01,9.99999e-01,9.99999e-01,9.95047e-01,3.62986e-02,9.99943e-01
5.991161043e-01,3.86151e-02,9.99999e-01,9.99999e-01,9.99999e-01,9.96389e-01,3.87557e-02,9.99982e-01
6.021116848e-01,4.12410e-02,9.99999e-01,9.99999e-01,9.99999e-01,9.97951e-01,4.13257e-02,9.99997e-01
6.051222432e-01,4.39646e-02,9.99999e-01,9.99999e-01,9.99999e-01,9.98963e-01,4.40101e-02,9.99999e-01
6.081478544e-01,4.67899e-02,9.99999e-01,9.99999e-01,9.99999e-01,9.99552e-01,4.68108e-02,9.99999e-01
6.111885937e-01,4.97196e-02,9.99999e-01,9.99999e-01,9.99999e-01,9.99810e-01,4.97290e-02,9.99999e-01
6.142445367e-01,5.27617e-02,9.99999e-01,9.99999e-01,9.99999e-01,9.99915e-01,5.27661e-02,9.99999e-01
6.173157594e-01,5.59206e-02,9.99999e-01,9.99999e-01,9.99999e-01,9.99952e-01,5.59232e-02,9.99999e-01
6.204023382e-01,5.91988e-02,9.99999e-01,9.99999e-01,9.99999e-01,9.99959e-01,5.92011e-02,9.99999e-01
6.235043498e-01,6.25897e-02,9.99999e-01,9.99999e-01,9.99999e-01,9.99823e-01,6.26007e-02,9.99999e-01
6.266218716e-01,6.60612e-02,9.99999e-01,9.99999e-01,9.99999e-01,9.99077e-01,6.61226e-02,9.99993e-01
6.297549810e-01,6.97426e-02,9.99999e-01,9.99999e-01,9.99999e-01,9.99661e-01,6.97672e-02,9.99986e-01
6.329037559e-01,7.34848e-02,9.99999e-01,9.99999e-01,9.99999e-01,9.99332e-01,7.35346e-02,9.99989e-01
6.360682746e-01,7.73804e-02,9.99999e-01,9.99999e-01,9.99999e-01,9.99429e-01,7.74250e-02,9.99993e-01
6.392486160e-01,8.13780e-02,9.99999e-01,9.99999e-01,9.99999e-01,9.99261e-01,8.14383e-02,9.99996e-01
6.424448591e-01,8.54887e-02,9.99999e-01,9.99999e-01,9.99999e-01,9.99005e-01,8.55741e-02,9.99994e-01
6.456570834e-01,8.94157e-02,9.99999e-01,9.99999e-01,9.99999e-01,9.95391e-01,8.98321e-02,9.99971e-01
6.488853688e-01,9.38896e-02,9.99999e-01,9.99999e-01,9.99999e-01,9.96654e-01,9.42114e-02,9.99928e-01
6.521297956e-01,9.83692e-02,9.99999e-01,9.99999e-01,9.99999e-01,9.96590e-01,9.87115e-02,9.99940e-01
6.553904446e-01,1.02975e-01,9.99999e-01,9.99999e-01,9.99999e-01,9.96592e-01,1.03331e-01,9.99955e-01
6.586673968e-01,1.07754e-01,9.99999e-01,9.99999e-01,9.99999e-01,9.97091e-01,1.08069e-01,9.99984e-01
6.619607338e-01,1.12742e-01,9.99999e-01,9.99999e-01,9.99999e-01,9.98379e-01,1.12925e-01,9.99996e-01
6.652705375e-01,1.17781e-01,9.99999e-01,9.99999e-01,9.99999e-01,9.99026e-01,1.17896e-01,9.99997e-01
6.685968902e-01,1.22931e-01,9.99999e-01,9.99999e-01,9.99999e-01,9.99586e-01,1.22981e-01,9.99999e-01
6.719398746e-01,1.28152e-01,9.99999e-01,9.99999e-01,9.99999e-01,9.99790e-01,1.28179e-01,9.99999e-01
6.752995740e-01,1.33473e-01,9.99999e-01,9.99999e-01,9.99999e-01,9.99889e-01,1.33487e-01,9.99999e-01
6.786760719e-01,1.38881e-01,9.99999e-01,9.99999e-01,9.99999e-01,9.99834e-01,1.38904e-01,9.99999e-01
6.820694522e-01,1.44386e-01,9.99999e-01,9.99999e-01,9.99999e-01,9.99718e-01,1.44427e-01,9.99998e-01
6.854797995e-01,1.49999e-01,9.99999e-01,9.99999e-01,9.99999e-01,9.99636e-01,1.50054e-01,9.99996e-01
6.889071985e-01,1.55643e-01,9.99999e-01,9.99999e-01,9.99999e-01,9.99109e-01,1.55782e-01,9.99991e-01
6.923517345e-01,1.59282e-01,9.99999e-01,9.99999e-01,9.99999e-01,9.85658e-01,1.61610e-01,9.99930e-01
6.958134932e-01,1.66276e-01,9.99999e-01,9.99999e-01,9.99999e-01,9.92643e-01,1.67534e-01,9.99847e-01
6.992925606e-01,1.72295e-01,9.99999e-01,9.99999e-01,9.99999e-01,9.92893e-01,1.73552e-01,9.99862e-01
7.027890234e-01,1.78076e-01,9.99999e-01,9.99999e-01,9.99999e-01,9.91287e-01,1.79660e-01,9.99894e-01
7.063029686e-01,1.84484e-01,9.99999e-01,9.99999e-01,9.99999e-01,9.92665e-01,1.85857e-01,9.99947e-01
7.098344834e-01,1.90780e-01,9.99999e-01,9.99999e-01,9.99999e-01,9.92961e-01,1.92138e-01,9.99968e-01
7.133836558e-01,1.96612e-01,9.99999e-01,9.99999e-01,9.99999e-01,9.90539e-01,1.98502e-01,9.99938e-01
7.169505741e-01,1.89848e-01,9.99999e-01,9.99999e-01,9.99999e-01,9.26785e-01,2.04944e-01,9.99517e-01
7.205353270e-01,2.03674e-01,9.99999e-01,9.99999e-01,9.99999e-01,9.63992e-01,2.11462e-01,9.99149e-01
7.241380036e-01,2.07847e-01,9.99999e-01,9.99999e-01,9.99999e-01,9.53899e-01,2.18052e-01,9.99265e-01
7.277586936e-01,2.15221e-01,9.99999e-01,9.99999e-01,9.99999e-01,9.58340e-01,2.24712e-01,9.99399e-01
7.313974871e-01,2.21183e-01,9.99999e-01,9.99999e-01,9.99999e-01,9.55962e-01,2.31437e-01,9.99718e-01
7.350544745e-01,2.32405e-01,9.99999e-01,9.99999e-01,9.99999e-01,9.75667e-01,2.38225e-01,9.99901e-01
7.387297469e-01,2.40661e-01,9.99999e-01,9.99999e-01,9.99999e-01,9.82046e-01,2.45071e-01,9.99954e-01
7.424233956e-01,2.49753e-01,9.99999e-01,9.99999e-01,9.99999e-01,9.91193e-01,2.51974e-01,9.99991e-01
7.461355126e-01,2.57543e-01,9.99999e-01,9.99999e-01,9.99999e-01,9.94648e-01,2.58929e-01,9.99998e-01
7.498661902e-01,2.65271e-01,9.99999e-01,9.99999e-01,9.99999e-01,9.97511e-01,2.65933e-01,9.99998e-01
7.536155211e-01,2.72648e-01,9.99999e-01,9.99999e-01,9.99999e-01,9.98775e-01,2.72982e-01,9.99999e-01
7.573835987e-01,2.79897e-01,9.99999e-01,9.99999e-01,9.99999e-01,9.99369e-01,2.80073e-01,9.99999e-01
7.611705167e-01,2.87091e-01,9.99999e-01,9.99999e-01,9.99999e-01,9.99608e-01,2.87203e-01,9.99999e-01
7.649763693e-01,2.94296e-01,9.99999e-01,9.99999e-01,9.99999e-01,9.99753e-01,2.94368e-01,9.99999e-01
7.688012511e-01,3.01514e-01,9.99999e-01,9.99999e-01,9.99999e-01,9.99828e-01,3.01566e-01,9.99999e-01
7.726452574e-01,3.08748e-01,9.99999e-01,9.99999e-01,9.99999e-01,9.99858e-01,3.08792e-01,9.99999e-01
7.765084837e-01,3.15979e-01,9.99999e-01,9.99999e-01,9.99999e-01,9.99798e-01,3.16043e-01,9.99999e-01
7.803910261e-01,3.06557e-01,9.99999e-01,9.99999e-01,9.48953e-01,9.99127e-01,3.23316e-01,9.99998e-01
7.842929812e-01,2.62001e-01,9.99999e-01,9.99999e-01,7.94736e-01,9.96956e-01,3.30608e-01,9.99993e-01
7.882144461e-01,2.62550e-01,9.99999e-01,9.99999e-01,7.81582e-01,9.93780e-01,3.37915e-01,9.99956e-01
7.921555184e-01,2.97340e-01,9.99999e-01,9.99999e-01,8.64165e-01,9.96600e-01,3.45235e-01,9.99925e-01
7.961162960e-01,3.17904e-01,9.99999e-01,9.99999e-01,9.07174e-01,9.93942e-01,3.52564e-01,9.99928e-01
8.000968774e-01,3.38961e-01,9.99999e-01,9.99999e-01,9.48466e-01,9.93037e-01,3.59900e-01,9.99924e-01
8.040973618e-01,3.54835e-01,9.99999e-01,9.99999e-01,9.73043e-01,9.93027e-01,3.67238e-01,9.99942e-01
8.081178486e-01,3.64066e-01,9.99999e-01,9.99999e-01,9.87491e-01,9.84272e-01,3.74577e-01,9.99941e-01
8.121584379e-01,3.56102e-01,9.99999e-01,9.99999e-01,9.96152e-01,9.36166e-01,3.81914e-01,9.99779e-01
8.162192301e-01,3.59560e-01,9.99999e-01,9.99999e-01,9.99148e-01,9.25268e-01,3.89244e-01,9.99172e-01
8.203003262e-01,3.80993e-01,9.99999e-01,9.99999e-01,9.99987e-01,9.61667e-01,3.96567e-01,9.99031e-01
8.244018279e-01,3.82555e-01,9.99999e-01,9.99999e-01,9.99999e-01,9.47932e-01,4.03878e-01,9.99229e-01
8.285238370e-01,3.92216e-01,9.99999e-01,9.99999e-01,9.99999e-01,9.54464e-01,4.11176e-01,9.99394e-01
8.326664562e-01,3.99168e-01,9.99999e-01,9.99999e-01,9.99999e-01,9.54140e-01,4.18458e-01,9.99749e-01
8.368297885e-01,4.11672e-01,9.99999e-01,9.99999e-01,9.99999e-01,9.67054e-01,4.25721e-01,9.99942e-01
8.410139374e-01,4.24421e-01,9.99999e-01,9.99999e-01,9.99999e-01,9.80302e-01,4.32963e-01,9.99966e-01
8.452190071e-01,4.35905e-01,9.99999e-01,9.99999e-01,9.99999e-01,9.90304e-01,4.40182e-01,9.99979e-01
8.494451021e-01,4.44839e-01,9.99999e-01,9.99999e-01,9.99999e-01,9.94348e-01,4.47374e-01,9.99983e-01
8.536923276e-01,4.53018e-01,9.99999e-01,9.99999e-01,9.99999e-01,9.96663e-01,4.54539e-01,9.99989e-01
8.579607893e-01,4.60721e-01,9.99999e-01,9.99999e-01,9.99999e-01,9.97939e-01,4.61674e-01,9.99997e-01
8.622505932e-01,4.68163e-01,9.99999e-01,9.99999e-01,9.99999e-01,9.98692e-01,4.68776e-01,9.99999e-01
8.665618462e-01,4.28975e-01,9.99999e-01,9.99999e-01,9.02199e-01,9.99188e-01,4.75844e-01,9.99999e-01
8.708946554e-01,2.70208e-01,9.99999e-01,9.99999e-01,5.60076e-01,9.99069e-01,4.82876e-01,9.99998e-01
8.752491287e-01,3.05713e-01,9.99999e-01,9.99999e-01,6.24815e-01,9.98756e-01,4.89869e-01,9.99998e-01
8.796253743e-01,3.82316e-01,9.99999e-01,9.99999e-01,7.70796e-01,9.98274e-01,4.96823e-01,9.99995e-01
8.840235012e-01,4.38966e-01,9.99999e-01,9.99999e-01,8.73112e-01,9.98030e-01,5.03736e-01,9.99987e-01
8.884436187e-01,4.80589e-01,9.99999e-01,9.99999e-01,9.48035e-01,9.92731e-01,5.10605e-01,9.99965e-01
8.928858368e-01,4.69304e-01,9.99999e-01,9.99999e-01,9.78563e-01,9.26770e-01,5.17429e-01,9.99803e-01
8.973502660e-01,4.55942e-01,9.99999e-01,9.99999e-01,9.94776e-01,8.75078e-01,5.24207e-01,9.98993e-01
9.018370173e-01,4.95141e-01,9.99999e-01,9.99999e-01,9.99424e-01,9.34566e-01,5.30938e-01,9.98418e-01
9.063462024e-01,4.98179e-01,9.99999e-01,9.99999e-01,9.84969e-01,9.41409e-01,5.37619e-01,9.98610e-01
9.108779334e-01,4.78465e-01,9.99999e-01,9.99999e-01,9.66326e-01,9.10497e-01,5.44250e-01,9.98556e-01
9.154323231e-01,4.90834e-01,9.99999e-01,9.99999e-01,9.92062e-01,8.99051e-01,5.50829e-01,9.98806e-01
9.200094847e-01,4.60076e-01,9.99999e-01,9.99999e-01,8.91916e-01,9.20241e-01,5.57356e-01,9.99331e-01
9.246095321e-01,4.19838e-01,9.99999e-01,9.99999e-01,8.45740e-01,8.77264e-01,5.63829e-01,9.99230e-01
9.292325798e-01,2.16186e-01,9.99999e-01,9.99999e-01,8.76570e-01,4.25829e-01,5.70247e-01,9.96289e-01
9.338787427e-01,1.71614e-01,9.99999e-01,9.99999e-01,8.80959e-01,3.36331e-01,5.76608e-01,9.86654e-01
9.385481364e-01,3.39251e-01,9.99999e-01,9.99999e-01,9.10848e-01,6.43502e-01,5.82914e-01,9.85347e-01
9.432408771e-01,3.00074e-01,9.99999e-01,9.99999e-01,9.44481e-01,5.43742e-01,5.89161e-01,9.87346e-01
9.479570815e-01,2.49090e-01,9.99999e-01,9.99999e-01,9.71067e-01,4.34367e-01,5.95350e-01,9.89689e-01
9.526968669e-01,3.13942e-01,9.99999e-01,9.99999e-01,9.85973e-01,5.31828e-01,6.01480e-01,9.93698e-01
9.574603512e-01,3.33492e-01,9.99999e-01,9.99999e-01,9.93981e-01,5.53685e-01,6.07550e-01,9.96793e-01
9.622476530e-01,3.77143e-01,9.99999e-01,9.99999e-01,9.98120e-01,6.17102e-01,6.13560e-01,9.97781e-01
9.670588912e-01,4.67542e-01,9.99999e-01,9.99999e-01,9.99437e-01,7.56236e-01,6.19509e-01,9.98482e-01
9.718941857e-01,5.23814e-01,9.99999e-01,9.99999e-01,9.99960e-01,8.38538e-01,6.25396e-01,9.98882e-01
9.767536566e-01,5.44856e-01,9.99999e-01,9.99999e-01,9.99999e-01,8.63914e-01,6.31221e-01,9.99145e-01
9.816374249e-01,5.71428e-01,9.99999e-01,9.99999e-01,9.99999e-01,8.97349e-01,6.36984e-01,9.99703e-01
9.865456120e-01,6.00581e-01,9.99999e-01,9.99999e-01,9.99999e-01,9.34546e-01,6.42684e-01,9.99937e-01
9.914783401e-01,6.21721e-01,9.99999e-01,9.99999e-01,9.99999e-01,9.58987e-01,6.48320e-01,9.99982e-01
9.964357318e-01,6.39149e-01,9.99999e-01,9.99999e-01,9.99999e-01,9.77460e-01,6.53894e-01,9.99989e-01
1.001417910e+00,6.50449e-01,9.99999e-01,9.99999e-01,9.99999e-01,9.86434e-01,6.59404e-01,9.99984e-01
1.006425000e+00,6.59672e-01,9.99999e-01,9.99999e-01,9.99999e-01,9.92232e-01,6.64850e-01,9.99977e-01
1.011457125e+00,6.66990e-01,9.99999e-01,9.99999e-01,9.99999e-01,9.95182e-01,6.70232e-01,9.99979e-01
1.016514411e+00,6.73328e-01,9.99999e-01,9.99999e-01,9.99999e-01,9.96723e-01,6.75551e-01,9.99985e-01
1.021596983e+00,6.78956e-01,9.99999e-01,9.99999e-01,9.99910e-01,9.97386e-01,6.80805e-01,9.99985e-01
1.026704968e+00,6.80538e-01,9.99999e-01,9.99999e-01,9.94076e-01,9.97960e-01,6.85995e-01,9.99990e-01
1.031838492e+00,6.46836e-01,9.99999e-01,9.99999e-01,9.37255e-01,9.98519e-01,6.91121e-01,9.99996e-01
1.036997685e+00,6.99113e-02,9.99999e-01,9.99999e-01,1.00489e-01,9.99119e-01,6.96182e-01,9.99999e-01
1.042182673e+00,3.02376e-02,9.99999e-01,9.99999e-01,4.31624e-02,9.98946e-01,7.01180e-01,9.99999e-01
1.047393587e+00,4.57889e-02,9.99999e-01,9.99999e-01,6.49246e-02,9.98605e-01,7.06114e-01,9.99999e-01
1.052630555e+00,2.63685e-04,9.99999e-01,9.99999e-01,3.71365e-04,9.98084e-01,7.10984e-01,9.99998e-01
1.057893707e+00,8.45670e-04,9.99999e-01,9.99999e-01,1.18377e-03,9.96800e-01,7.15791e-01,9.99998e-01
1.063183176e+00,4.76673e-03,9.99999e-01,9.99999e-01,6.63858e-03,9.94744e-01,7.20534e-01,9.99996e-01
1.068499092e+00,1.97555e-02,9.99999e-01,9.99999e-01,2.74298e-02,9.91222e-01,7.25214e-01,9.99993e-01
1.073841587e+00,7.41036e-02,9.99999e-01,9.99999e-01,1.02388e-01,9.89720e-01,7.29831e-01,9.99986e-01
