#,Wave/freq,Total,N2,O2,CO2,H2O,Rayleigh,CIA
4.000000000e-01,1.09159e-03,9.99999e-01,9.99999e-01,9.99999e-01,9.99986e-01,1.09160e-03,9.99999e-01
4.020000000e-01,1.24919e-03,9.99999e-01,9.99999e-01,9.99999e-01,9.99991e-01,1.24920e-03,9.99999e-01
4.040100000e-01,1.42554e-03,9.99999e-01,9.99999e-01,9.99999e-01,9.99996e-01,1.42554e-03,9.99999e-01
4.060300500e-01,1.62254e-03,9.99999e-01,9.99999e-01,9.99999e-01,9.99998e-01,1.62254e-03,9.99999e-01
4.080602003e-01,1.84205e-03,9.99999e-01,9.99999e-01,9.99999e-01,9.99999e-01,1.84205e-03,9.99999e-01
4.101005013e-01,2.08602e-03,9.99999e-01,9.99999e-01,9.99999e-01,9.99999e-01,2.08602e-03,9.99999e-01
4.121510038e-01,2.35650e-03,9.99999e-01,9.99999e-01,9.99999e-01,9.99999e-01,2.35650e-03,9.99999e-01
4.142117588e-01,2.65565e-03,9.99999e-01,9.99999e-01,9.99999e-01,9.99995e-01,2.65566e-03,9.99999e-01
4.162828176e-01,2.98569e-03,9.99999e-01,9.99999e-01,9.99999e-01,9.99983e-01,2.98574e-03,9.99999e-01
4.183642317e-01,3.34905e-03,9.99999e-01,9.99999e-01,9.99999e-01,9.99989e-01,3.34908e-03,9.99999e-01
4.204560528e-01,3.74810e-03,9.99999e-01,9.99999e-01,9.99999e-01,9.99993e-01,3.74813e-03,9.99999e-01
4.225583331e-01,4.18540e-03,9.99999e-01,9.99999e-01,9.99999e-01,9.99997e-01,4.18540e-03,9.99999e-01
4.246711247e-01,4.66351e-03,9.99999e-01,9.99999e-01,9.99999e-01,9.99997e-01,4.66352e-03,9.99999e-01
4.267944804e-01,5.18515e-03,9.99999e-01,9.99999e-01,9.99999e-01,9.99996e-01,5.18517e-03,9.99999e-01
4.289284528e-01,5.75309e-03,9.99999e-01,9.99999e-01,9.99999e-01,9.99997e-01,5.75310e-03,9.99999e-01
4.310730950e-01,6.37014e-03,9.99999e-01,9.99999e-01,9.99999e-01,9.99998e-01,6.37014e-03,9.99999e-01
4.332284605e-01,7.03919e-03,9.99999e-01,9.99999e-01,9.99999e-01,9.99999e-01,7.03919e-03,9.99999e-01
4.353946028e-01,7.76318e-03,9.99999e-01,9.99999e-01,9.99999e-01,9.99999e-01,7.76318e-03,9.99999e-01
4.375715758e-01,8.54507e-03,9.99999e-01,9.99999e-01,9.99999e-01,9.99997e-01,8.54509e-03,9.99999e-01
4.397594337e-01,9.38780e-03,9.99999e-01,9.99999e-01,9.99999e-01,9.99985e-01,9.38794e-03,9.99999e-01
4.419582309e-01,1.02940e-02,9.99999e-01,9.99999e-01,9.99999e-01,9.99927e-01,1.02948e-02,9.99999e-01
4.441680220e-01,1.12680e-02,9.99999e-01,9.99999e-01,9.99999e-01,9.99942e-01,1.12687e-02,9.99999e-01
4.463888621e-01,1.23120e-02,9.99999e-01,9.99999e-01,9.99999e-01,9.99940e-01,1.23127e-02,9.99999e-01
4.486208064e-01,1.34294e-02,9.99999e-01,9.99999e-01,9.99999e-01,9.99962e-01,1.34299e-02,9.99999e-01
4.508639105e-01,1.46232e-02,9.99999e-01,9.99999e-01,9.99999e-01,9.99982e-01,1.46234e-02,9.99999e-01
4.531182300e-01,1.58961e-02,9.99999e-01,9.99999e-01,9.99999e-01,9.99992e-01,1.58962e-02,9.99999e-01
4.553838212e-01,1.72512e-02,9.99999e-01,9.99999e-01,9.99999e-01,9.99994e-01,1.72513e-02,9.99999e-01
4.576607403e-01,1.86917e-02,9.99999e-01,9.99999e-01,9.99999e-01,9.99997e-01,1.86917e-02,9.99999e-01
4.599490440e-01,2.02203e-02,9.99999e-01,9.99999e-01,9.99999e-01,9.99998e-01,2.02203e-02,9.99999e-01
4.622487892e-01,2.18400e-02,9.99999e-01,9.99999e-01,9.99999e-01,9.99999e-01,2.18400e-02,9.99999e-01
4.645600332e-01,2.35536e-02,9.99999e-01,9.99999e-01,9.99999e-01,9.99998e-01,2.35536e-02,9.99999e-01
4.668828333e-01,2.53633e-02,9.99999e-01,9.99999e-01,9.99999e-01,9.99982e-01,2.53637e-02,9.99999e-01
4.692172475e-01,2.72721e-02,9.99999e-01,9.99999e-01,9.99999e-01,9.99962e-01,2.72731e-02,9.99999e-01
4.715633337e-01,2.92834e-02,9.99999e-01,9.99999e-01,9.99999e-01,9.99975e-01,2.92841e-02,9.99999e-01
4.739211504e-01,3.13986e-02,9.99999e-01,9.99999e-01,9.99999e-01,9.99976e-01,3.13993e-02,9.99999e-01
4.762907561e-01,3.36205e-02,9.99999e-01,9.99999e-01,9.99999e-01,9.99987e-01,3.36209e-02,9.99999e-01
4.786722099e-01,3.59509e-02,9.99999e-01,9.99999e-01,9.99999e-01,9.99994e-01,3.59511e-02,9.99999e-01
4.810655710e-01,3.83919e-02,9.99999e-01,9.99999e-01,9.99999e-01,9.99998e-01,3.83920e-02,9.99999e-01
4.834708988e-01,4.09449e-02,9.99999e-01,9.99999e-01,9.99999e-01,9.99985e-01,4.09454e-02,9.99999e-01
4.858882533e-01,4.36120e-02,9.99999e-01,9.99999e-01,9.99999e-01,9.99973e-01,4.36132e-02,9.99999e-01
4.883176946e-01,4.63959e-02,9.99999e-01,9.99999e-01,9.99999e-01,9.99977e-01,4.63969e-02,9.99999e-01
4.907592831e-01,4.92970e-02,9.99999e-01,9.99999e-01,9.99999e-01,9.99979e-01,4.92979e-02,9.99999e-01
4.932130795e-01,5.23170e-02,9.99999e-01,9.99999e-01,9.99999e-01,9.99985e-01,5.23177e-02,9.99999e-01
4.956791449e-01,5.54569e-02,9.99999e-01,9.99999e-01,9.99999e-01,9.99992e-01,5.54573e-02,9.99999e-01
4.981575406e-01,5.87155e-02,9.99999e-01,9.99999e-01,9.99999e-01,9.99962e-01,5.87176e-02,9.99999e-01
5.006483283e-01,6.20936e-02,9.99999e-01,9.99999e-01,9.99999e-01,9.99904e-01,6.20995e-02,9.99998e-01
5.031515699e-01,6.55713e-02,9.99999e-01,9.99999e-01,9.99999e-01,9.99512e-01,6.56036e-02,9.99994e-01
5.056673278e-01,6.92121e-02,9.99999e-01,9.99999e-01,9.99999e-01,9.99741e-01,6.92303e-02,9.99993e-01
5.081956644e-01,7.29559e-02,9.99999e-01,9.99999e-01,9.99999e-01,9.99674e-01,7.29799e-02,9.99995e-01
5.107366428e-01,7.68356e-02,9.99999e-01,9.99999e-01,9.99999e-01,9.99779e-01,7.68525e-02,9.99998e-01
5.132903260e-01,8.08378e-02,9.99999e-01,9.99999e-01,9.99999e-01,9.99873e-01,8.08479e-02,9.99999e-01
5.158567776e-01,8.49615e-02,9.99999e-01,9.99999e-01,9.99999e-01,9.99946e-01,8.49660e-02,9.99999e-01
5.184360615e-01,8.92044e-02,9.99999e-01,9.99999e-01,9.99999e-01,9.99978e-01,8.92063e-02,9.99999e-01
5.210282418e-01,9.35673e-02,9.99999e-01,9.99999e-01,9.99999e-01,9.99991e-01,9.35680e-02,9.99999e-01
5.236333830e-01,9.80475e-02,9.99999e-01,9.99999e-01,9.99999e-01,9.99967e-01,9.80506e-02,9.99999e-01
5.262515499e-01,1.02651e-01,9.99999e-01,9.99999e-01,9.99999e-01,9.99979e-01,1.02653e-01,9.99999e-01
5.288828077e-01,1.07372e-01,9.99999e-01,9.99999e-01,9.99999e-01,9.99981e-01,1.07374e-01,9.99999e-01
5.315272217e-01,1.12211e-01,9.99999e-01,9.99999e-01,9.99999e-01,9.99983e-01,1.12213e-01,9.99999e-01
5.341848578e-01,1.17166e-01,9.99999e-01,9.99999e-01,9.99999e-01,9.99989e-01,1.17167e-01,9.99999e-01
5.368557821e-01,1.22231e-01,9.99999e-01,9.99999e-01,9.99999e-01,9.99962e-01,1.22236e-01,9.99999e-01
5.395400610e-01,1.27401e-01,9.99999e-01,9.99999e-01,9.99999e-01,9.99867e-01,1.27418e-01,9.99998e-01
5.422377613e-01,1.32686e-01,9.99999e-01,9.99999e-01,9.99999e-01,9.99826e-01,1.32710e-01,9.99996e-01
5.449489501e-01,1.38088e-01,9.99999e-01,9.99999e-01,9.99999e-01,9.99839e-01,1.38111e-01,9.99996e-01
5.476736949e-01,1.43598e-01,9.99999e-01,9.99999e-01,9.99999e-01,9.99856e-01,1.43619e-01,9.99997e-01
5.504120634e-01,1.49215e-01,9.99999e-01,9.99999e-01,9.99999e-01,9.99896e-01,1.49231e-01,9.99999e-01
5.531641237e-01,1.54936e-01,9.99999e-01,9.99999e-01,9.99999e-01,9.99947e-01,1.54944e-01,9.99999e-01
5.559299443e-01,1.60754e-01,9.99999e-01,9.99999e-01,9.99999e-01,9.99974e-01,1.60758e-01,9.99999e-01
5.587095940e-01,1.66665e-01,9.99999e-01,9.99999e-01,9.99999e-01,9.99983e-01,1.66668e-01,9.99999e-01
5.615031420e-01,1.72669e-01,9.99999e-01,9.99999e-01,9.99999e-01,9.99982e-01,1.72672e-01,9.99999e-01
5.643106577e-01,1.78764e-01,9.99999e-01,9.99999e-01,9.99999e-01,9.99979e-01,1.78768e-01,9.99999e-01
5.671322110e-01,1.84907e-01,9.99999e-01,9.99999e-01,9.99999e-01,9.99762e-01,1.84952e-01,9.99997e-01
5.699678720e-01,1.91170e-01,9.99999e-01,9.99999e-01,9.99999e-01,9.99741e-01,1.91221e-01,9.99992e-01
5.728177114e-01,1.97519e-01,9.99999e-01,9.99999e-01,9.99999e-01,9.99732e-01,1.97573e-01,9.99994e-01
5.756818000e-01,2.03953e-01,9.99999e-01,9.99999e-01,9.99999e-01,9.99754e-01,2.04004e-01,9.99996e-01
5.785602090e-01,2.10466e-01,9.99999e-01,9.99999e-01,9.99999e-01,9.99785e-01,2.10511e-01,9.99998e-01
5.814530100e-01,2.17044e-01,9.99999e-01,9.99999e-01,9.99999e-01,9.99784e-01,2.17091e-01,9.99999e-01
5.843602750e-01,2.23683e-01,9.99999e-01,9.99999e-01,9.99999e-01,9.99745e-01,2.23741e-01,9.99998e-01
5.872820764e-01,2.29947e-01,9.99999e-01,9.99999e-01,9.99999e-01,9.97805e-01,2.30456e-01,9.99984e-01
5.902184868e-01,2.36590e-01,9.99999e-01,9.99999e-01,9.99999e-01,9.97322e-01,2.37235e-01,9.99957e-01
5.931695792e-01,2.43603e-01,9.99999e-01,9.99999e-01,9.99999e-01,9.98112e-01,2.44074e-01,9.99958e-01
5.961354271e-01,2.50442e-01,9.99999e-01,9.99999e-01,9.99999e-01,9.97927e-01,2.50968e-01,9.99974e-01
5.991161043e-01,2.57524e-01,9.99999e-01,9.99999e-01,9.99999e-01,9.98487e-01,2.57916e-01,9.99992e-01
6.021116848e-01,2.64685e-01,9.99999e-01,9.99999e-01,9.99999e-01,9.99140e-01,2.64913e-01,9.99998e-01
6.051222432e-01,2.71837e-01,9.99999e-01,9.99999e-01,9.99999e-01,9.99564e-01,2.71955e-01,9.99999e-01
6.081478544e-01,2.78989e-01,9.99999e-01,9.99999e-01,9.99999e-01,9.99812e-01,2.79041e-01,9.99999e-01
6.111885937e-01,2.86143e-01,9.99999e-01,9.99999e-01,9.99999e-01,9.99920e-01,2.86166e-01,9.99999e-01
6.142445367e-01,2.93316e-01,9.99999e-01,9.99999e-01,9.99999e-01,9.99964e-01,2.93326e-01,9.99999e-01
6.173157594e-01,3.00513e-01,9.99999e-01,9.99999e-01,9.99999e-01,9.99979e-01,3.00519e-01,9.99999e-01
6.204023382e-01,3.07736e-01,9.99999e-01,9.99999e-01,9.99999e-01,9.99983e-01,3.07741e-01,9.99999e-01
6.235043498e-01,3.14966e-01,9.99999e-01,9.99999e-01,9.99999e-01,9.99927e-01,3.14988e-01,9.99999e-01
6.266218716e-01,3.22134e-01,9.99999e-01,9.99999e-01,9.99999e-01,9.99615e-01,3.22259e-01,9.99996e-01
6.297549810e-01,3.29500e-01,9.99999e-01,9.99999e-01,9.99999e-01,9.99858e-01,3.29548e-01,9.99994e-01
6.329037559e-01,3.36758e-01,9.99999e-01,9.99999e-01,9.99999e-01,9.99720e-01,3.36853e-01,9.99995e-01
6.360682746e-01,3.44089e-01,9.99999e-01,9.99999e-01,9.99999e-01,9.99762e-01,3.44172e-01,9.99996e-01
6.392486160e-01,3.51391e-01,9.99999e-01,9.99999e-01,9.99999e-01,9.99692e-01,3.51500e-01,9.99998e-01
6.424448591e-01,3.58687e-01,9.99999e-01,9.99999e-01,9.99999e-01,9.99590e-01,3.58834e-01,9.99997e-01
6.456570834e-01,3.65473e-01,9.99999e-01,9.99999e-01,9.99999e-01,9.98100e-01,3.66173e-01,9.99988e-01
6.488853688e-01,3.72887e-01,9.99999e-01,9.99999e-01,9.99999e-01,9.98355e-01,3.73512e-01,9.99969e-01
6.521297956e-01,3.80295e-01,9.99999e-01,9.99999e-01,9.99999e-01,9.98569e-01,3.80849e-01,9.99974e-01
6.553904446e-01,3.87625e-01,9.99999e-01,9.99999e-01,9.99999e-01,9.98587e-01,3.88180e-01,9.99980e-01
6.586673968e-01,3.95020e-01,9.99999e-01,9.99999e-01,9.99999e-01,9.98780e-01,3.95504e-01,9.99993e-01
6.619607338e-01,4.02533e-01,9.99999e-01,9.99999e-01,9.99999e-01,9.99294e-01,4.02818e-01,9.99998e-01
6.652705375e-01,4.09950e-01,9.99999e-01,9.99999e-01,9.99999e-01,9.99590e-01,4.10118e-01,9.99998e-01
6.685968902e-01,4.17323e-01,9.99999e-01,9.99999e-01,9.99999e-01,9.99809e-01,4.17402e-01,9.99999e-01
6.719398746e-01,4.24631e-01,9.99999e-01,9.99999e-01,9.99999e-01,9.99911e-01,4.24668e-01,9.99999e-01
6.752995740e-01,4.31893e-01,9.99999e-01,9.99999e-01,9.99999e-01,9.99952e-01,4.31913e-01,9.99999e-01
6.786760719e-01,4.39105e-01,9.99999e-01,9.99999e-01,9.99999e-01,9.99931e-01,4.39135e-01,9.99999e-01
6.820694522e-01,4.46279e-01,9.99999e-01,9.99999e-01,9.99999e-01,9.99882e-01,4.46332e-01,9.99998e-01
6.854797995e-01,4.53432e-01,9.99999e-01,9.99999e-01,9.99999e-01,9.99848e-01,4.53501e-01,9.99998e-01
6.889071985e-01,4.60472e-01,9.99999e-01,9.99999e-01,9.99999e-01,9.99638e-01,4.60640e-01,9.99996e-01
6.923517345e-01,4.64952e-01,9.99999e-01,9.99999e-01,9.99999e-01,9.94053e-01,4.67747e-01,9.99970e-01
6.958134932e-01,4.73296e-01,9.99999e-01,9.99999e-01,9.99999e-01,9.96853e-01,4.74820e-01,9.99934e-01
6.992925606e-01,4.80413e-01,9.99999e-01,9.99999e-01,9.99999e-01,9.97059e-01,4.81857e-01,9.99942e-01
7.027890234e-01,4.87050e-01,9.99999e-01,9.99999e-01,9.99999e-01,9.96346e-01,4.88856e-01,9.99955e-01
7.063029686e-01,4.94284e-01,9.99999e-01,9.99999e-01,9.99999e-01,9.96931e-01,4.95816e-01,9.99977e-01
7.098344834e-01,5.01248e-01,9.99999e-01,9.99999e-01,9.99999e-01,9.97055e-01,5.02735e-01,9.99986e-01
7.133836558e-01,5.07618e-01,9.99999e-01,9.99999e-01,9.99999e-01,9.96115e-01,5.09610e-01,9.99973e-01
7.169505741e-01,5.00271e-01,9.99999e-01,9.99999e-01,9.99999e-01,9.68882e-01,5.16441e-01,9.99798e-01
7.205353270e-01,5.14907e-01,9.99999e-01,9.99999e-01,9.99999e-01,9.84447e-01,5.23226e-01,9.99645e-01
7.241380036e-01,5.19488e-01,9.99999e-01,9.99999e-01,9.99999e-01,9.80533e-01,5.29964e-01,9.99693e-01
7.277586936e-01,5.27078e-01,9.99999e-01,9.99999e-01,9.99999e-01,9.82403e-01,5.36652e-01,9.99749e-01
7.313974871e-01,5.33025e-01,9.99999e-01,9.99999e-01,9.99999e-01,9.81220e-01,5.43290e-01,9.99882e-01
7.350544745e-01,5.44204e-01,9.99999e-01,9.99999e-01,9.99999e-01,9.89722e-01,5.49877e-01,9.99958e-01
7.387297469e-01,5.52189e-01,9.99999e-01,9.99999e-01,9.99999e-01,9.92428e-01,5.56412e-01,9.99980e-01
7.424233956e-01,5.60798e-01,9.99999e-01,9.99999e-01,9.99999e-01,9.96283e-01,5.62892e-01,9.99995e-01
7.461355126e-01,5.68037e-01,9.99999e-01,9.99999e-01,9.99999e-01,9.97749e-01,5.69318e-01,9.99998e-01
7.498661902e-01,5.75084e-01,9.99999e-01,9.99999e-01,9.99999e-01,9.98949e-01,5.75688e-01,9.99999e-01
7.536155211e-01,5.81703e-01,9.99999e-01,9.99999e-01,9.99999e-01,9.99485e-01,5.82002e-01,9.99999e-01
7.573835987e-01,5.88102e-01,9.99999e-01,9.99999e-01,9.99999e-01,9.99734e-01,5.88258e-01,9.99999e-01
7.611705167e-01,5.94358e-01,9.99999e-01,9.99999e-01,9.99999e-01,9.99835e-01,5.94455e-01,9.99999e-01
7.649763693e-01,6.00532e-01,9.99999e-01,9.99999e-01,9.99999e-01,9.99896e-01,6.00594e-01,9.99999e-01
7.688012511e-01,6.06629e-01,9.99999e-01,9.99999e-01,9.99999e-01,9.99927e-01,6.06673e-01,9.99999e-01
7.726452574e-01,6.12655e-01,9.99999e-01,9.99999e-01,9.99999e-01,9.99940e-01,6.12691e-01,9.99999e-01
7.765084837e-01,6.18597e-01,9.99999e-01,9.99999e-01,9.99999e-01,9.99916e-01,6.18649e-01,9.99999e-01
7.803910261e-01,6.10637e-01,9.99999e-01,9.99999e-01,9.78074e-01,9.99640e-01,6.24545e-01,9.99999e-01
7.842929812e-01,5.70084e-01,9.99999e-01,9.99999e-01,9.05450e-01,9.98746e-01,6.30379e-01,9.99997e-01
7.882144461e-01,5.70680e-01,9.99999e-01,9.99999e-01,8.99370e-01,9.97401e-01,6.36151e-01,9.99983e-01
7.921555184e-01,6.02911e-01,9.99999e-01,9.99999e-01,9.40672e-01,9.98568e-01,6.41860e-01,9.99968e-01
7.961162960e-01,6.19865e-01,9.99999e-01,9.99999e-01,9.59729e-01,9.97493e-01,6.47506e-01,9.99970e-01
8.000968774e-01,6.36853e-01,9.99999e-01,9.99999e-01,9.78007e-01,9.97092e-01,6.53089e-01,9.99968e-01
8.040973618e-01,6.49139e-01,9.99999e-01,9.99999e-01,9.88514e-01,9.97094e-01,6.58608e-01,9.99974e-01
8.081178486e-01,6.56254e-01,9.99999e-01,9.99999e-01,9.94731e-01,9.93490e-01,6.64063e-01,9.99976e-01
8.121584379e-01,6.50278e-01,9.99999e-01,9.99999e-01,9.98359e-01,9.73029e-01,6.69455e-01,9.99907e-01
8.162192301e-01,6.52587e-01,9.99999e-01,9.99999e-01,9.99637e-01,9.67786e-01,6.74782e-01,9.99654e-01
8.203003262e-01,6.68880e-01,9.99999e-01,9.99999e-01,9.99993e-01,9.83982e-01,6.80046e-01,9.99595e-01
8.244018279e-01,6.69397e-01,9.99999e-01,9.99999e-01,9.99999e-01,9.77186e-01,6.85245e-01,9.99678e-01
8.285238370e-01,6.76939e-01,9.99999e-01,9.99999e-01,9.99999e-01,9.80777e-01,6.90380e-01,9.99747e-01
8.326664562e-01,6.81818e-01,9.99999e-01,9.99999e-01,9.99999e-01,9.80498e-01,6.95451e-01,9.99895e-01
8.368297885e-01,6.90660e-01,9.99999e-01,9.99999e-01,9.99999e-01,9.86034e-01,7.00458e-01,9.99975e-01
8.410139374e-01,6.99525e-01,9.99999e-01,9.99999e-01,9.99999e-01,9.91682e-01,7.05402e-01,9.99985e-01
8.452190071e-01,7.07372e-01,9.99999e-01,9.99999e-01,9.99999e-01,9.95911e-01,7.10281e-01,9.99991e-01
8.494451021e-01,7.13400e-01,9.99999e-01,9.99999e-01,9.99999e-01,9.97634e-01,7.15097e-01,9.99992e-01
8.536923276e-01,7.18836e-01,9.99999e-01,9.99999e-01,9.99999e-01,9.98596e-01,7.19849e-01,9.99995e-01
8.579607893e-01,7.23913e-01,9.99999e-01,9.99999e-01,9.99999e-01,9.99137e-01,7.24538e-01,9.99998e-01
8.622505932e-01,7.28764e-01,9.99999e-01,9.99999e-01,9.99999e-01,9.99451e-01,7.29164e-01,9.99999e-01
8.665618462e-01,6.93283e-01,9.99999e-01,9.99999e-01,9.45187e-01,9.99661e-01,7.33728e-01,9.99999e-01
8.708946554e-01,5.72525e-01,9.99999e-01,9.99999e-01,7.75831e-01,9.99612e-01,7.38229e-01,9.99999e-01
8.752491287e-01,6.05709e-01,9.99999e-01,9.99999e-01,8.15999e-01,9.99481e-01,7.42668e-01,9.99998e-01
8.796253743e-01,6.68094e-01,9.99999e-01,9.99999e-01,8.94944e-01,9.99284e-01,7.47045e-01,9.99997e-01
8.840235012e-01,7.08925e-01,9.99999e-01,9.99999e-01,9.44290e-01,9.99182e-01,7.51360e-01,9.99994e-01
8.884436187e-01,7.36536e-01,9.99999e-01,9.99999e-01,9.77623e-01,9.97056e-01,7.55615e-01,9.99985e-01
8.928858368e-01,7.29543e-01,9.99999e-01,9.99999e-01,9.90901e-01,9.69012e-01,7.59809e-01,9.99917e-01
8.973502660e-01,7.20311e-01,9.99999e-01,9.99999e-01,9.97771e-01,9.45358e-01,7.63943e-01,9.99580e-01
9.018370173e-01,7.45503e-01,9.99999e-01,9.99999e-01,9.99753e-01,9.71559e-01,7.68017e-01,9.99340e-01
9.063462024e-01,7.47958e-01,9.99999e-01,9.99999e-01,9.93841e-01,9.75262e-01,7.72031e-01,9.99420e-01
9.108779334e-01,7.35094e-01,9.99999e-01,9.99999e-01,9.85691e-01,9.61520e-01,7.75987e-01,9.99397e-01
9.154323231e-01,7.42984e-01,9.99999e-01,9.99999e-01,9.96599e-01,9.56364e-01,7.79884e-01,9.99502e-01
9.200094847e-01,7.20721e-01,9.99999e-01,9.99999e-01,9.51495e-01,9.65571e-01,7.83723e-01,9.99721e-01
9.246095321e-01,6.95422e-01,9.99999e-01,9.99999e-01,9.31863e-01,9.47135e-01,7.87505e-01,9.99678e-01
9.292325798e-01,5.19114e-01,9.99999e-01,9.99999e-01,9.46457e-01,6.91256e-01,7.91229e-01,9.98749e-01
9.338787427e-01,4.65284e-01,9.99999e-01,9.99999e-01,9.47902e-01,6.18177e-01,7.94898e-01,9.94840e-01
9.385481364e-01,6.29657e-01,9.99999e-01,9.99999e-01,9.61522e-01,8.23866e-01,7.98510e-01,9.93866e-01
9.432408771e-01,5.95309e-01,9.99999e-01,9.99999e-01,9.76231e-01,7.63635e-01,8.02067e-01,9.94705e-01
9.479570815e-01,5.45362e-01,9.99999e-01,9.99999e-01,9.87766e-01,6.88019e-01,8.05569e-01,9.95689e-01
9.526968669e-01,6.06366e-01,9.99999e-01,9.99999e-01,9.94073e-01,7.55679e-01,8.09016e-01,9.97368e-01
9.574603512e-01,6.27660e-01,9.99999e-01,9.99999e-01,9.97461e-01,7.75505e-01,8.12410e-01,9.98662e-01
9.622476530e-01,6.62264e-01,9.99999e-01,9.99999e-01,9.99206e-01,8.13217e-01,8.15751e-01,9.99074e-01
9.670588912e-01,7.26641e-01,9.99999e-01,9.99999e-01,9.99761e-01,8.87952e-01,8.19039e-01,9.99366e-01
9.718941857e-01,7.63308e-01,9.99999e-01,9.99999e-01,9.99982e-01,9.28736e-01,8.22275e-01,9.99533e-01
9.767536566e-01,7.76078e-01,9.99999e-01,9.99999e-01,9.99999e-01,9.40511e-01,8.25459e-01,9.99643e-01
9.816374249e-01,7.91640e-01,9.99999e-01,9.99999e-01,9.99999e-01,9.55520e-01,8.28592e-01,9.99876e-01
9.865456120e-01,8.08357e-01,9.99999e-01,9.99999e-01,9.99999e-01,9.71985e-01,8.31676e-01,9.99973e-01
9.914783401e-01,8.20187e-01,9.99999e-01,9.99999e-01,9.99999e-01,9.82609e-01,8.34709e-01,9.99992e-01
9.964357318e-01,8.29725e-01,9.99999e-01,9.99999e-01,9.99999e-01,9.90491e-01,8.37693e-01,9.99995e-01
1.001417910e+00,8.35825e-01,9.99999e-01,9.99999e-01,9.99999e-01,9.94291e-01,8.40629e-01,9.99993e-01
1.006425000e+00,8.40766e-01,9.99999e-01,9.99999e-01,9.99999e-01,9.96747e-01,8.43516e-01,9.99990e-01
1.011457125e+00,8.44637e-01,9.99999e-01,9.99999e-01,9.99999e-01,9.97976e-01,8.46356e-01,9.99991e-01
1.016514411e+00,8.47979e-01,9.99999e-01,9.99999e-01,9.99999e-01,9.98627e-01,8.49150e-01,9.99993e-01
1.021596983e+00,8.50935e-01,9.99999e-01,9.99999e-01,9.99969e-01,9.98906e-01,8.51897e-01,9.99993e-01
1.026704968e+00,8.51825e-01,9.99999e-01,9.99999e-01,9.97607e-01,9.99147e-01,8.54598e-01,9.99995e-01
1.031838492e+00,8.30431e-01,9.99999e-01,9.99999e-01,9.69297e-01,9.99379e-01,8.57255e-01,9.99998e-01
1.036997685e+00,1.94930e-01,9.99999e-01,9.99999e-01,2.26767e-01,9.99631e-01,8.59867e-01,9.99999e-01
1.042182673e+00,2.08436e-01,9.99999e-01,9.99999e-01,2.41781e-01,9.99562e-01,8.62435e-01,9.99999e-01
1.047393587e+00,2.10864e-01,9.99999e-01,9.99999e-01,2.43912e-01,9.99418e-01,8.64959e-01,9.99999e-01
1.052630555e+00,1.79561e-02,9.99999e-01,9.99999e-01,2.07128e-02,9.99203e-01,8.67442e-01,9.99999e-01
1.057893707e+00,3.73666e-02,9.99999e-01,9.99999e-01,4.29982e-02,9.98672e-01,8.69882e-01,9.99999e-01
1.063183176e+00,8.78715e-02,9.99999e-01,9.99999e-01,1.00909e-01,9.97813e-01,8.72280e-01,9.99998e-01
1.068499092e+00,1.84884e-01,9.99999e-01,9.99999e-01,2.12072e-01,9.96336e-01,8.74638e-01,9.99997e-01
1.073841587e+00,3.27601e-01,9.99999e-01,9.99999e-01,3.74994e-01,9.95718e-01,8.76955e-01,9.99994e-01
