#,Wave/freq,Total,N2,O2,CO2,H2O,Rayleigh,CIA
4.000000000e-01,5.78068e-04,9.99999e-01,9.99999e-01,9.99999e-01,9.99985e-01,5.78076e-04,9.99999e-01
4.020000000e-01,6.69893e-04,9.99999e-01,9.99999e-01,9.99999e-01,9.99990e-01,6.69899e-04,9.99999e-01
4.040100000e-01,7.73930e-04,9.99999e-01,9.99999e-01,9.99999e-01,9.99995e-01,7.73933e-04,9.99999e-01
4.060300500e-01,8.91577e-04,9.99999e-01,9.99999e-01,9.99999e-01,9.99998e-01,8.91578e-04,9.99999e-01
4.080602003e-01,1.02424e-03,9.99999e-01,9.99999e-01,9.99999e-01,9.99999e-01,1.02424e-03,9.99999e-01
4.101005013e-01,1.17342e-03,9.99999e-01,9.99999e-01,9.99999e-01,9.99999e-01,1.17342e-03,9.99999e-01
4.121510038e-01,1.34072e-03,9.99999e-01,9.99999e-01,9.99999e-01,9.99998e-01,1.34072e-03,9.99999e-01
4.142117588e-01,1.52784e-03,9.99999e-01,9.99999e-01,9.99999e-01,9.99995e-01,1.52785e-03,9.99999e-01
4.162828176e-01,1.73658e-03,9.99999e-01,9.99999e-01,9.99999e-01,9.99981e-01,1.73661e-03,9.99999e-01
4.183642317e-01,1.96889e-03,9.99999e-01,9.99999e-01,9.99999e-01,9.99988e-01,1.96891e-03,9.99999e-01
4.204560528e-01,2.22673e-03,9.99999e-01,9.99999e-01,9.99999e-01,9.99993e-01,2.22675e-03,9.99999e-01
4.225583331e-01,2.51223e-03,9.99999e-01,9.99999e-01,9.99999e-01,9.99997e-01,2.51224e-03,9.99999e-01
4.246711247e-01,2.82758e-03,9.99999e-01,9.99999e-01,9.99999e-01,9.99997e-01,2.82759e-03,9.99999e-01
4.267944804e-01,3.17509e-03,9.99999e-01,9.99999e-01,9.99999e-01,9.99996e-01,3.17510e-03,9.99999e-01
4.289284528e-01,3.55715e-03,9.99999e-01,9.99999e-01,9.99999e-01,9.99997e-01,3.55716e-03,9.99999e-01
4.310730950e-01,3.97626e-03,9.99999e-01,9.99999e-01,9.99999e-01,9.99998e-01,3.97626e-03,9.99999e-01
4.332284605e-01,4.43498e-03,9.99999e-01,9.99999e-01,9.99999e-01,9.99999e-01,4.43498e-03,9.99999e-01
4.353946028e-01,4.93595e-03,9.99999e-01,9.99999e-01,9.99999e-01,9.99999e-01,4.93595e-03,9.99999e-01
4.375715758e-01,5.48191e-03,9.99999e-01,9.99999e-01,9.99999e-01,9.99997e-01,5.48192e-03,9.99999e-01
4.397594337e-01,6.07558e-03,9.99999e-01,9.99999e-01,9.99999e-01,9.99983e-01,6.07567e-03,9.99999e-01
4.419582309e-01,6.71954e-03,9.99999e-01,9.99999e-01,9.99999e-01,9.99919e-01,6.72007e-03,9.99999e-01
4.441680220e-01,7.41757e-03,9.99999e-01,9.99999e-01,9.99999e-01,9.99937e-01,7.41803e-03,9.99999e-01
4.463888621e-01,8.17199e-03,9.99999e-01,9.99999e-01,9.99999e-01,9.99935e-01,8.17252e-03,9.99999e-01
4.486208064e-01,8.98617e-03,9.99999e-01,9.99999e-01,9.99999e-01,9.99959e-01,8.98653e-03,9.99999e-01
4.508639105e-01,9.86292e-03,9.99999e-01,9.99999e-01,9.99999e-01,9.99980e-01,9.86310e-03,9.99999e-01
4.531182300e-01,1.08052e-02,9.99999e-01,9.99999e-01,9.99999e-01,9.99992e-01,1.08053e-02,9.99999e-01
4.553838212e-01,1.18161e-02,9.99999e-01,9.99999e-01,9.99999e-01,9.99994e-01,1.18162e-02,9.99999e-01
4.576607403e-01,1.28988e-02,9.99999e-01,9.99999e-01,9.99999e-01,9.99997e-01,1.28988e-02,9.99999e-01
4.599490440e-01,1.40563e-02,9.99999e-01,9.99999e-01,9.99999e-01,9.99997e-01,1.40563e-02,9.99999e-01
4.622487892e-01,1.52917e-02,9.99999e-01,9.99999e-01,9.99999e-01,9.99999e-01,1.52917e-02,9.99999e-01
4.645600332e-01,1.66080e-02,9.99999e-01,9.99999e-01,9.99999e-01,9.99998e-01,1.66080e-02,9.99999e-01
4.668828333e-01,1.80079e-02,9.99999e-01,9.99999e-01,9.99999e-01,9.99980e-01,1.80082e-02,9.99999e-01
4.692172475e-01,1.94945e-02,9.99999e-01,9.99999e-01,9.99999e-01,9.99959e-01,1.94953e-02,9.99999e-01
4.715633337e-01,2.10715e-02,9.99999e-01,9.99999e-01,9.99999e-01,9.99973e-01,2.10721e-02,9.99999e-01
4.739211504e-01,2.27409e-02,9.99999e-01,9.99999e-01,9.99999e-01,9.99974e-01,2.27415e-02,9.99999e-01
4.762907561e-01,2.45058e-02,9.99999e-01,9.99999e-01,9.99999e-01,9.99986e-01,2.45062e-02,9.99999e-01
4.786722099e-01,2.63687e-02,9.99999e-01,9.99999e-01,9.99999e-01,9.99994e-01,2.63688e-02,9.99999e-01
4.810655710e-01,2.83320e-02,9.99999e-01,9.99999e-01,9.99999e-01,9.99997e-01,2.83321e-02,9.99999e-01
4.834708988e-01,3.03979e-02,9.99999e-01,9.99999e-01,9.99999e-01,9.99983e-01,3.03983e-02,9.99999e-01
4.858882533e-01,3.25690e-02,9.99999e-01,9.99999e-01,9.99999e-01,9.99970e-01,3.25700e-02,9.99999e-01
4.883176946e-01,3.48484e-02,9.99999e-01,9.99999e-01,9.99999e-01,9.99975e-01,3.48492e-02,9.99999e-01
4.907592831e-01,3.72373e-02,9.99999e-01,9.99999e-01,9.99999e-01,9.99977e-01,3.72382e-02,9.99999e-01
4.932130795e-01,3.97382e-02,9.99999e-01,9.99999e-01,9.99999e-01,9.99984e-01,3.97388e-02,9.99999e-01
4.956791449e-01,4.23526e-02,9.99999e-01,9.99999e-01,9.99999e-01,9.99991e-01,4.23529e-02,9.99999e-01
4.981575406e-01,4.50805e-02,9.99999e-01,9.99999e-01,9.99999e-01,9.99958e-01,4.50823e-02,9.99999e-01
5.006483283e-01,4.79233e-02,9.99999e-01,9.99999e-01,9.99999e-01,9.99893e-01,4.79284e-02,9.99998e-01
5.031515699e-01,5.08651e-02,9.99999e-01,9.99999e-01,9.99999e-01,9.99465e-01,5.08926e-02,9.99993e-01
5.056673278e-01,5.39605e-02,9.99999e-01,9.99999e-01,9.99999e-01,9.99718e-01,5.39760e-02,9.99993e-01
5.081956644e-01,5.71594e-02,9.99999e-01,9.99999e-01,9.99999e-01,9.99644e-01,5.71799e-02,9.99995e-01
5.107366428e-01,6.04904e-02,9.99999e-01,9.99999e-01,9.99999e-01,9.99759e-01,6.05049e-02,9.99998e-01
5.132903260e-01,6.39431e-02,9.99999e-01,9.99999e-01,9.99999e-01,9.99862e-01,6.39519e-02,9.99999e-01
5.158567776e-01,6.75174e-02,9.99999e-01,9.99999e-01,9.99999e-01,9.99941e-01,6.75213e-02,9.99999e-01
5.184360615e-01,7.12118e-02,9.99999e-01,9.99999e-01,9.99999e-01,9.99976e-01,7.12135e-02,9.99999e-01
5.210282418e-01,7.50280e-02,9.99999e-01,9.99999e-01,9.99999e-01,9.99990e-01,7.50286e-02,9.99999e-01
5.236333830e-01,7.89639e-02,9.99999e-01,9.99999e-01,9.99999e-01,9.99964e-01,7.89667e-02,9.99999e-01
5.262515499e-01,8.30257e-02,9.99999e-01,9.99999e-01,9.99999e-01,9.99977e-01,8.30275e-02,9.99999e-01
5.288828077e-01,8.72090e-02,9.99999e-01,9.99999e-01,9.99999e-01,9.99979e-01,8.72108e-02,9.99999e-01
5.315272217e-01,9.15143e-02,9.99999e-01,9.99999e-01,9.99999e-01,9.99982e-01,9.15159e-02,9.99999e-01
5.341848578e-01,9.59411e-02,9.99999e-01,9.99999e-01,9.99999e-01,9.99988e-01,9.59422e-02,9.99999e-01
5.368557821e-01,1.00485e-01,9.99999e-01,9.99999e-01,9.99999e-01,9.99958e-01,1.00489e-01,9.99999e-01
5.395400610e-01,1.05139e-01,9.99999e-01,9.99999e-01,9.99999e-01,9.99852e-01,1.05155e-01,9.99998e-01
5.422377613e-01,1.09917e-01,9.99999e-01,9.99999e-01,9.99999e-01,9.99810e-01,1.09938e-01,9.99996e-01
5.449489501e-01,1.14818e-01,9.99999e-01,9.99999e-01,9.99999e-01,9.99823e-01,1.14839e-01,9.99995e-01
5.476736949e-01,1.19836e-01,9.99999e-01,9.99999e-01,9.99999e-01,9.99844e-01,1.19855e-01,9.99997e-01
5.504120634e-01,1.24970e-01,9.99999e-01,9.99999e-01,9.99999e-01,9.99886e-01,1.24984e-01,9.99999e-01
5.531641237e-01,1.30217e-01,9.99999e-01,9.99999e-01,9.99999e-01,9.99942e-01,1.30225e-01,9.99999e-01
5.559299443e-01,1.35571e-01,9.99999e-01,9.99999e-01,9.99999e-01,9.99972e-01,1.35575e-01,9.99999e-01
5.587095940e-01,1.41031e-01,9.99999e-01,9.99999e-01,9.99999e-01,9.99982e-01,1.41033e-01,9.99999e-01
5.615031420e-01,1.46594e-01,9.99999e-01,9.99999e-01,9.99999e-01,9.99980e-01,1.46597e-01,9.99999e-01
5.643106577e-01,1.52260e-01,9.99999e-01,9.99999e-01,9.99999e-01,9.99977e-01,1.52263e-01,9.99999e-01
5.671322110e-01,1.57988e-01,9.99999e-01,9.99999e-01,9.99999e-01,9.99734e-01,1.58031e-01,9.99997e-01
5.699678720e-01,1.63849e-01,9.99999e-01,9.99999e-01,9.99999e-01,9.99719e-01,1.63896e-01,9.99992e-01
5.728177114e-01,1.69806e-01,9.99999e-01,9.99999e-01,9.99999e-01,9.99707e-01,1.69857e-01,9.99993e-01
5.756818000e-01,1.75862e-01,9.99999e-01,9.99999e-01,9.99999e-01,9.99731e-01,1.75910e-01,9.99996e-01
5.785602090e-01,1.82010e-01,9.99999e-01,9.99999e-01,9.99999e-01,9.99765e-01,1.82053e-01,9.99998e-01
5.814530100e-01,1.88238e-01,9.99999e-01,9.99999e-01,9.99999e-01,9.99764e-01,1.88283e-01,9.99999e-01
5.843602750e-01,1.94541e-01,9.99999e-01,9.99999e-01,9.99999e-01,9.99719e-01,1.94596e-01,9.99997e-01
5.872820764e-01,2.00501e-01,9.99999e-01,9.99999e-01,9.99999e-01,9.97582e-01,2.00991e-01,9.99982e-01
5.902184868e-01,2.06847e-01,9.99999e-01,9.99999e-01,9.99999e-01,9.97079e-01,2.07463e-01,9.99953e-01
5.931695792e-01,2.13558e-01,9.99999e-01,9.99999e-01,9.99999e-01,9.97934e-01,2.14009e-01,9.99955e-01
5.961354271e-01,2.20122e-01,9.99999e-01,9.99999e-01,9.99999e-01,9.97737e-01,2.20627e-01,9.99973e-01
5.991161043e-01,2.26935e-01,9.99999e-01,9.99999e-01,9.99999e-01,9.98350e-01,2.27312e-01,9.99991e-01
6.021116848e-01,2.33843e-01,9.99999e-01,9.99999e-01,9.99999e-01,9.99063e-01,2.34062e-01,9.99998e-01
6.051222432e-01,2.40759e-01,9.99999e-01,9.99999e-01,9.99999e-01,9.99526e-01,2.40873e-01,9.99999e-01
6.081478544e-01,2.47691e-01,9.99999e-01,9.99999e-01,9.99999e-01,9.99795e-01,2.47742e-01,9.99999e-01
6.111885937e-01,2.54643e-01,9.99999e-01,9.99999e-01,9.99999e-01,9.99913e-01,2.54665e-01,9.99999e-01
6.142445367e-01,2.61629e-01,9.99999e-01,9.99999e-01,9.99999e-01,9.99960e-01,2.61639e-01,9.99999e-01
6.173157594e-01,2.68655e-01,9.99999e-01,9.99999e-01,9.99999e-01,9.99978e-01,2.68661e-01,9.99999e-01
6.204023382e-01,2.75722e-01,9.99999e-01,9.99999e-01,9.99999e-01,9.99981e-01,2.75727e-01,9.99999e-01
6.235043498e-01,2.82811e-01,9.99999e-01,9.99999e-01,9.99999e-01,9.99919e-01,2.82834e-01,9.99999e-01
6.266218716e-01,2.89855e-01,9.99999e-01,9.99999e-01,9.99999e-01,9.99579e-01,2.89978e-01,9.99996e-01
6.297549810e-01,2.97108e-01,9.99999e-01,9.99999e-01,9.99999e-01,9.99845e-01,2.97156e-01,9.99993e-01
6.329037559e-01,3.04270e-01,9.99999e-01,9.99999e-01,9.99999e-01,9.99695e-01,3.04364e-01,9.99994e-01
6.360682746e-01,3.11519e-01,9.99999e-01,9.99999e-01,9.99999e-01,9.99739e-01,3.11601e-01,9.99996e-01
6.392486160e-01,3.18753e-01,9.99999e-01,9.99999e-01,9.99999e-01,9.99663e-01,3.18861e-01,9.99998e-01
6.424448591e-01,3.25994e-01,9.99999e-01,9.99999e-01,9.99999e-01,9.99548e-01,3.26141e-01,9.99997e-01
6.456570834e-01,3.32738e-01,9.99999e-01,9.99999e-01,9.99999e-01,9.97905e-01,3.33440e-01,9.99987e-01
6.488853688e-01,3.40221e-01,9.99999e-01,9.99999e-01,9.99999e-01,9.98470e-01,3.40752e-01,9.99967e-01
6.521297956e-01,3.47525e-01,9.99999e-01,9.99999e-01,9.99999e-01,9.98441e-01,3.48076e-01,9.99972e-01
6.553904446e-01,3.54849e-01,9.99999e-01,9.99999e-01,9.99999e-01,9.98446e-01,3.55408e-01,9.99979e-01
6.586673968e-01,3.62261e-01,9.99999e-01,9.99999e-01,9.99999e-01,9.98671e-01,3.62745e-01,9.99992e-01
6.619607338e-01,3.69810e-01,9.99999e-01,9.99999e-01,9.99999e-01,9.99259e-01,3.70084e-01,9.99998e-01
6.652705375e-01,3.77255e-01,9.99999e-01,9.99999e-01,9.99999e-01,9.99555e-01,3.77423e-01,9.99998e-01
6.685968902e-01,3.84678e-01,9.99999e-01,9.99999e-01,9.99999e-01,9.99793e-01,3.84757e-01,9.99999e-01
6.719398746e-01,3.92047e-01,9.99999e-01,9.99999e-01,9.99999e-01,9.99904e-01,3.92085e-01,9.99999e-01
6.752995740e-01,3.99383e-01,9.99999e-01,9.99999e-01,9.99999e-01,9.99947e-01,3.99403e-01,9.99999e-01
6.786760719e-01,4.06680e-01,9.99999e-01,9.99999e-01,9.99999e-01,9.99924e-01,4.06710e-01,9.99999e-01
6.820694522e-01,4.13949e-01,9.99999e-01,9.99999e-01,9.99999e-01,9.99871e-01,4.14002e-01,9.99998e-01
6.854797995e-01,4.21207e-01,9.99999e-01,9.99999e-01,9.99999e-01,9.99834e-01,4.21277e-01,9.99998e-01
6.889071985e-01,4.28358e-01,9.99999e-01,9.99999e-01,9.99999e-01,9.99597e-01,4.28532e-01,9.99995e-01
6.923517345e-01,4.32900e-01,9.99999e-01,9.99999e-01,9.99999e-01,9.93454e-01,4.35765e-01,9.99968e-01
6.958134932e-01,4.41443e-01,9.99999e-01,9.99999e-01,9.99999e-01,9.96612e-01,4.42974e-01,9.99930e-01
6.992925606e-01,4.48671e-01,9.99999e-01,9.99999e-01,9.99999e-01,9.96763e-01,4.50156e-01,9.99937e-01
7.027890234e-01,4.55465e-01,9.99999e-01,9.99999e-01,9.99999e-01,9.96014e-01,4.57309e-01,9.99951e-01
7.063029686e-01,4.62864e-01,9.99999e-01,9.99999e-01,9.99999e-01,9.96648e-01,4.64432e-01,9.99975e-01
7.098344834e-01,4.69998e-01,9.99999e-01,9.99999e-01,9.99999e-01,9.96784e-01,4.71521e-01,9.99985e-01
7.133836558e-01,4.76503e-01,9.99999e-01,9.99999e-01,9.99999e-01,9.95697e-01,4.78575e-01,9.99971e-01
7.169505741e-01,4.68903e-01,9.99999e-01,9.99999e-01,9.99999e-01,9.65842e-01,4.85592e-01,9.99779e-01
7.205353270e-01,4.84131e-01,9.99999e-01,9.99999e-01,9.99999e-01,9.83245e-01,4.92571e-01,9.99612e-01
7.241380036e-01,4.88695e-01,9.99999e-01,9.99999e-01,9.99999e-01,9.78678e-01,4.99509e-01,9.99665e-01
7.277586936e-01,4.96518e-01,9.99999e-01,9.99999e-01,9.99999e-01,9.80744e-01,5.06405e-01,9.99726e-01
7.313974871e-01,5.02717e-01,9.99999e-01,9.99999e-01,9.99999e-01,9.79590e-01,5.13257e-01,9.99871e-01
7.350544745e-01,5.14218e-01,9.99999e-01,9.99999e-01,9.99999e-01,9.88804e-01,5.20063e-01,9.99955e-01
7.387297469e-01,5.22470e-01,9.99999e-01,9.99999e-01,9.99999e-01,9.91756e-01,5.26823e-01,9.99979e-01
7.424233956e-01,5.31379e-01,9.99999e-01,9.99999e-01,9.99999e-01,9.95963e-01,5.33535e-01,9.99995e-01
7.461355126e-01,5.38874e-01,9.99999e-01,9.99999e-01,9.99999e-01,9.97551e-01,5.40197e-01,9.99998e-01
7.498661902e-01,5.46185e-01,9.99999e-01,9.99999e-01,9.99999e-01,9.98860e-01,5.46808e-01,9.99999e-01
7.536155211e-01,5.53057e-01,9.99999e-01,9.99999e-01,9.99999e-01,9.99440e-01,5.53367e-01,9.99999e-01
7.573835987e-01,5.59711e-01,9.99999e-01,9.99999e-01,9.99999e-01,9.99711e-01,5.59872e-01,9.99999e-01
7.611705167e-01,5.66223e-01,9.99999e-01,9.99999e-01,9.99999e-01,9.99820e-01,5.66324e-01,9.99999e-01
7.649763693e-01,5.72656e-01,9.99999e-01,9.99999e-01,9.99999e-01,9.99887e-01,5.72720e-01,9.99999e-01
7.688012511e-01,5.79015e-01,9.99999e-01,9.99999e-01,9.99999e-01,9.99921e-01,5.79060e-01,9.99999e-01
7.726452574e-01,5.85306e-01,9.99999e-01,9.99999e-01,9.99999e-01,9.99935e-01,5.85343e-01,9.99999e-01
7.765084837e-01,5.91514e-01,9.99999e-01,9.99999e-01,9.99999e-01,9.99907e-01,5.91568e-01,9.99999e-01
7.803910261e-01,5.82616e-01,9.99999e-01,9.99999e-01,9.75084e-01,9.99603e-01,5.97734e-01,9.99999e-01
7.842929812e-01,5.41452e-01,9.99999e-01,9.99999e-01,8.97879e-01,9.98617e-01,6.03841e-01,9.99996e-01
7.882144461e-01,5.41670e-01,9.99999e-01,9.99999e-01,8.90620e-01,9.97159e-01,6.09888e-01,9.99980e-01
7.921555184e-01,5.75081e-01,9.99999e-01,9.99999e-01,9.35225e-01,9.98444e-01,6.15874e-01,9.99965e-01
7.961162960e-01,5.93004e-01,9.99999e-01,9.99999e-01,9.56341e-01,9.97242e-01,6.21799e-01,9.99967e-01
8.000968774e-01,6.10689e-01,9.99999e-01,9.99999e-01,9.76087e-01,9.96820e-01,6.27662e-01,9.99965e-01
8.040973618e-01,6.23582e-01,9.99999e-01,9.99999e-01,9.87563e-01,9.96818e-01,6.33463e-01,9.99973e-01
8.081178486e-01,6.30962e-01,9.99999e-01,9.99999e-01,9.94265e-01,9.92821e-01,6.39201e-01,9.99973e-01
8.121584379e-01,6.24607e-01,9.99999e-01,9.99999e-01,9.98231e-01,9.70367e-01,6.44877e-01,9.99899e-01
8.162192301e-01,6.27239e-01,9.99999e-01,9.99999e-01,9.99609e-01,9.64992e-01,6.50489e-01,9.99622e-01
8.203003262e-01,6.44111e-01,9.99999e-01,9.99999e-01,9.99993e-01,9.82257e-01,6.56038e-01,9.99558e-01
8.244018279e-01,6.45037e-01,9.99999e-01,9.99999e-01,9.99999e-01,9.75420e-01,6.61523e-01,9.99648e-01
8.285238370e-01,6.52728e-01,9.99999e-01,9.99999e-01,9.99999e-01,9.78953e-01,6.66945e-01,9.99723e-01
8.326664562e-01,6.57936e-01,9.99999e-01,9.99999e-01,9.99999e-01,9.78742e-01,6.72302e-01,9.99885e-01
8.368297885e-01,6.67279e-01,9.99999e-01,9.99999e-01,9.99999e-01,9.84800e-01,6.77596e-01,9.99973e-01
8.410139374e-01,6.76634e-01,9.99999e-01,9.99999e-01,9.99999e-01,9.90948e-01,6.82825e-01,9.99984e-01
8.452190071e-01,6.84926e-01,9.99999e-01,9.99999e-01,9.99999e-01,9.95555e-01,6.87990e-01,9.99990e-01
8.494451021e-01,6.91296e-01,9.99999e-01,9.99999e-01,9.99999e-01,9.97417e-01,6.93091e-01,9.99992e-01
8.536923276e-01,6.97060e-01,9.99999e-01,9.99999e-01,9.99999e-01,9.98473e-01,6.98128e-01,9.99995e-01
8.579607893e-01,7.02439e-01,9.99999e-01,9.99999e-01,9.99999e-01,9.99059e-01,7.03101e-01,9.99998e-01
8.622505932e-01,7.07587e-01,9.99999e-01,9.99999e-01,9.99999e-01,9.99402e-01,7.08010e-01,9.99999e-01
8.665618462e-01,6.69504e-01,9.99999e-01,9.99999e-01,9.39521e-01,9.99629e-01,7.12856e-01,9.99999e-01
8.708946554e-01,5.44166e-01,9.99999e-01,9.99999e-01,7.58586e-01,9.99576e-01,7.17637e-01,9.99999e-01
8.752491287e-01,5.78935e-01,9.99999e-01,9.99999e-01,8.01897e-01,9.99433e-01,7.22356e-01,9.99998e-01
8.796253743e-01,6.43975e-01,9.99999e-01,9.99999e-01,8.86466e-01,9.99214e-01,7.27012e-01,9.99997e-01
8.840235012e-01,6.86796e-01,9.99999e-01,9.99999e-01,9.39591e-01,9.99102e-01,7.31604e-01,9.99994e-01
8.884436187e-01,7.15962e-01,9.99999e-01,9.99999e-01,9.75799e-01,9.96710e-01,7.36134e-01,9.99984e-01
8.928858368e-01,7.08254e-01,9.99999e-01,9.99999e-01,9.90126e-01,9.65885e-01,7.40602e-01,9.99910e-01
8.973502660e-01,6.98717e-01,9.99999e-01,9.99999e-01,9.97599e-01,9.40520e-01,7.45008e-01,9.99541e-01
9.018370173e-01,7.25595e-01,9.99999e-01,9.99999e-01,9.99735e-01,9.69244e-01,7.49352e-01,9.99278e-01
9.063462024e-01,7.27743e-01,9.99999e-01,9.99999e-01,9.93132e-01,9.72788e-01,7.53636e-01,9.99366e-01
9.108779334e-01,7.14317e-01,9.99999e-01,9.99999e-01,9.84447e-01,9.57935e-01,7.57858e-01,9.99341e-01
9.154323231e-01,7.22748e-01,9.99999e-01,9.99999e-01,9.96341e-01,9.52410e-01,7.62020e-01,9.99455e-01
9.200094847e-01,6.98872e-01,9.99999e-01,9.99999e-01,9.46630e-01,9.62538e-01,7.66121e-01,9.99695e-01
9.246095321e-01,6.71819e-01,9.99999e-01,9.99999e-01,9.26052e-01,9.41325e-01,7.70164e-01,9.99648e-01
9.292325798e-01,4.87732e-01,9.99999e-01,9.99999e-01,9.41225e-01,6.67007e-01,7.74147e-01,9.98632e-01
9.338787427e-01,4.35154e-01,9.99999e-01,9.99999e-01,9.43405e-01,5.93366e-01,7.78071e-01,9.94359e-01
9.385481364e-01,6.04303e-01,9.99999e-01,9.99999e-01,9.58143e-01,8.10546e-01,7.81937e-01,9.93295e-01
9.432408771e-01,5.67335e-01,9.99999e-01,9.99999e-01,9.74210e-01,7.44653e-01,7.85746e-01,9.94212e-01
9.479570815e-01,5.15589e-01,9.99999e-01,9.99999e-01,9.86679e-01,6.64634e-01,7.89497e-01,9.95287e-01
9.526968669e-01,5.80289e-01,9.99999e-01,9.99999e-01,9.93559e-01,7.38130e-01,7.93191e-01,9.97122e-01
9.574603512e-01,6.01534e-01,9.99999e-01,9.99999e-01,9.97242e-01,7.58003e-01,7.96830e-01,9.98537e-01
9.622476530e-01,6.38107e-01,9.99999e-01,9.99999e-01,9.99139e-01,7.98686e-01,8.00412e-01,9.98988e-01
9.670588912e-01,7.05654e-01,9.99999e-01,9.99999e-01,9.99742e-01,8.78570e-01,8.03940e-01,9.99307e-01
9.718941857e-01,7.44404e-01,9.99999e-01,9.99999e-01,9.99981e-01,9.22446e-01,8.07413e-01,9.99490e-01
9.767536566e-01,7.57992e-01,9.99999e-01,9.99999e-01,9.99999e-01,9.35196e-01,8.10832e-01,9.99610e-01
9.816374249e-01,7.74712e-01,9.99999e-01,9.99999e-01,9.99999e-01,9.51631e-01,8.14197e-01,9.99864e-01
9.865456120e-01,7.92571e-01,9.99999e-01,9.99999e-01,9.99999e-01,9.69521e-01,8.17510e-01,9.99971e-01
9.914783401e-01,8.05216e-01,9.99999e-01,9.99999e-01,9.99999e-01,9.81056e-01,8.20770e-01,9.99991e-01
9.964357318e-01,8.15440e-01,9.99999e-01,9.99999e-01,9.99999e-01,9.89642e-01,8.23978e-01,9.99994e-01
1.001417910e+00,8.21987e-01,9.99999e-01,9.99999e-01,9.99999e-01,9.93781e-01,8.27135e-01,9.99992e-01
1.006425000e+00,8.27286e-01,9.99999e-01,9.99999e-01,9.99999e-01,9.96449e-01,8.30242e-01,9.99989e-01
1.011457125e+00,8.31455e-01,9.99999e-01,9.99999e-01,9.99999e-01,9.97796e-01,8.33298e-01,9.99990e-01
1.016514411e+00,8.35049e-01,9.99999e-01,9.99999e-01,9.99999e-01,9.98503e-01,8.36305e-01,9.99993e-01
1.021596983e+00,8.38226e-01,9.99999e-01,9.99999e-01,9.99962e-01,9.98806e-01,8.39264e-01,9.99992e-01
1.026704968e+00,8.39133e-01,9.99999e-01,9.99999e-01,9.97320e-01,9.99069e-01,8.42173e-01,9.99995e-01
1.031838492e+00,8.14224e-01,9.99999e-01,9.99999e-01,9.64173e-01,9.99323e-01,8.45036e-01,9.99998e-01
1.036997685e+00,1.76270e-01,9.99999e-01,9.99999e-01,2.07970e-01,9.99597e-01,8.47851e-01,9.99999e-01
1.042182673e+00,1.82663e-01,9.99999e-01,9.99999e-01,2.14835e-01,9.99520e-01,8.50619e-01,9.99999e-01
1.047393587e+00,1.87099e-01,9.99999e-01,9.99999e-01,2.19379e-01,9.99364e-01,8.53342e-01,9.99999e-01
1.052630555e+00,1.31545e-02,9.99999e-01,9.99999e-01,1.53773e-02,9.99127e-01,8.56020e-01,9.99999e-01
1.057893707e+00,2.87951e-02,9.99999e-01,9.99999e-01,3.35709e-02,9.98542e-01,8.58652e-01,9.99999e-01
1.063183176e+00,7.18220e-02,9.99999e-01,9.99999e-01,8.35464e-02,9.97603e-01,8.61241e-01,9.99998e-01
1.068499092e+00,1.58524e-01,9.99999e-01,9.99999e-01,1.84170e-01,9.95990e-01,8.63786e-01,9.99996e-01
1.073841587e+00,2.96937e-01,9.99999e-01,9.99999e-01,3.44198e-01,9.95304e-01,8.66288e-01,9.99993e-01
