#,Wave/freq,Total,N2,O2,CO2,H2O,Rayleigh,CIA
4.000000000e-01,3.79537e-03,9.99999e-01,9.99999e-01,9.99999e-01,9.99988e-01,3.79541e-03,9.99999e-01
4.020000000e-01,4.23760e-03,9.99999e-01,9.99999e-01,9.99999e-01,9.99992e-01,4.23762e-03,9.99999e-01
4.040100000e-01,4.72054e-03,9.99999e-01,9.99999e-01,9.99999e-01,9.99996e-01,4.72055e-03,9.99999e-01
4.060300500e-01,5.24731e-03,9.99999e-01,9.99999e-01,9.99999e-01,9.99998e-01,5.24731e-03,9.99999e-01
4.080602003e-01,5.82068e-03,9.99999e-01,9.99999e-01,9.99999e-01,9.99999e-01,5.82068e-03,9.99999e-01
4.101005013e-01,6.44349e-03,9.99999e-01,9.99999e-01,9.99999e-01,9.99999e-01,6.44349e-03,9.99999e-01
4.121510038e-01,7.11863e-03,9.99999e-01,9.99999e-01,9.99999e-01,9.99999e-01,7.11863e-03,9.99999e-01
4.142117588e-01,7.84902e-03,9.99999e-01,9.99999e-01,9.99999e-01,9.99996e-01,7.84905e-03,9.99999e-01
4.162828176e-01,8.63761e-03,9.99999e-01,9.99999e-01,9.99999e-01,9.99986e-01,8.63773e-03,9.99999e-01
4.183642317e-01,9.48762e-03,9.99999e-01,9.99999e-01,9.99999e-01,9.99991e-01,9.48770e-03,9.99999e-01
4.204560528e-01,1.04019e-02,9.99999e-01,9.99999e-01,9.99999e-01,9.99994e-01,1.04020e-02,9.99999e-01
4.225583331e-01,1.13837e-02,9.99999e-01,9.99999e-01,9.99999e-01,9.99997e-01,1.13837e-02,9.99999e-01
4.246711247e-01,1.24359e-02,9.99999e-01,9.99999e-01,9.99999e-01,9.99998e-01,1.24359e-02,9.99999e-01
4.267944804e-01,1.35616e-02,9.99999e-01,9.99999e-01,9.99999e-01,9.99997e-01,1.35616e-02,9.99999e-01
4.289284528e-01,1.47639e-02,9.99999e-01,9.99999e-01,9.99999e-01,9.99997e-01,1.47640e-02,9.99999e-01
4.310730950e-01,1.60460e-02,9.99999e-01,9.99999e-01,9.99999e-01,9.99998e-01,1.60460e-02,9.99999e-01
4.332284605e-01,1.74106e-02,9.99999e-01,9.99999e-01,9.99999e-01,9.99999e-01,1.74106e-02,9.99999e-01
4.353946028e-01,1.88609e-02,9.99999e-01,9.99999e-01,9.99999e-01,9.99999e-01,1.88609e-02,9.99999e-01
4.375715758e-01,2.03997e-02,9.99999e-01,9.99999e-01,9.99999e-01,9.99998e-01,2.03997e-02,9.99999e-01
4.397594337e-01,2.20297e-02,9.99999e-01,9.99999e-01,9.99999e-01,9.99987e-01,2.20300e-02,9.99999e-01
4.419582309e-01,2.37529e-02,9.99999e-01,9.99999e-01,9.99999e-01,9.99939e-01,2.37544e-02,9.99999e-01
4.441680220e-01,2.55745e-02,9.99999e-01,9.99999e-01,9.99999e-01,9.99953e-01,2.55756e-02,9.99999e-01
4.463888621e-01,2.74951e-02,9.99999e-01,9.99999e-01,9.99999e-01,9.99951e-01,2.74964e-02,9.99999e-01
4.486208064e-01,2.95183e-02,9.99999e-01,9.99999e-01,9.99999e-01,9.99969e-01,2.95192e-02,9.99999e-01
4.508639105e-01,3.16459e-02,9.99999e-01,9.99999e-01,9.99999e-01,9.99985e-01,3.16463e-02,9.99999e-01
4.531182300e-01,3.38800e-02,9.99999e-01,9.99999e-01,9.99999e-01,9.99994e-01,3.38802e-02,9.99999e-01
4.553838212e-01,3.62227e-02,9.99999e-01,9.99999e-01,9.99999e-01,9.99995e-01,3.62229e-02,9.99999e-01
4.576607403e-01,3.86764e-02,9.99999e-01,9.99999e-01,9.99999e-01,9.99997e-01,3.86764e-02,9.99999e-01
4.599490440e-01,4.12427e-02,9.99999e-01,9.99999e-01,9.99999e-01,9.99998e-01,4.12428e-02,9.99999e-01
4.622487892e-01,4.39236e-02,9.99999e-01,9.99999e-01,9.99999e-01,9.99999e-01,4.39236e-02,9.99999e-01
4.645600332e-01,4.67205e-02,9.99999e-01,9.99999e-01,9.99999e-01,9.99998e-01,4.67206e-02,9.99999e-01
4.668828333e-01,4.96344e-02,9.99999e-01,9.99999e-01,9.99999e-01,9.99985e-01,4.96351e-02,9.99999e-01
4.692172475e-01,5.26668e-02,9.99999e-01,9.99999e-01,9.99999e-01,9.99969e-01,5.26684e-02,9.99999e-01
4.715633337e-01,5.58205e-02,9.99999e-01,9.99999e-01,9.99999e-01,9.99979e-01,5.58216e-02,9.99999e-01
4.739211504e-01,5.90946e-02,9.99999e-01,9.99999e-01,9.99999e-01,9.99980e-01,5.90958e-02,9.99999e-01
4.762907561e-01,6.24909e-02,9.99999e-01,9.99999e-01,9.99999e-01,9.99989e-01,6.24915e-02,9.99999e-01
4.786722099e-01,6.60093e-02,9.99999e-01,9.99999e-01,9.99999e-01,9.99995e-01,6.60095e-02,9.99999e-01
4.810655710e-01,6.96501e-02,9.99999e-01,9.99999e-01,9.99999e-01,9.99998e-01,6.96502e-02,9.99999e-01
4.834708988e-01,7.34129e-02,9.99999e-01,9.99999e-01,9.99999e-01,9.99987e-01,7.34138e-02,9.99999e-01
4.858882533e-01,7.72986e-02,9.99999e-01,9.99999e-01,9.99999e-01,9.99978e-01,7.73003e-02,9.99999e-01
4.883176946e-01,8.13082e-02,9.99999e-01,9.99999e-01,9.99999e-01,9.99981e-01,8.13097e-02,9.99999e-01
4.907592831e-01,8.54403e-02,9.99999e-01,9.99999e-01,9.99999e-01,9.99983e-01,8.54417e-02,9.99999e-01
4.932130795e-01,8.96947e-02,9.99999e-01,9.99999e-01,9.99999e-01,9.99988e-01,8.96957e-02,9.99999e-01
4.956791449e-01,9.40707e-02,9.99999e-01,9.99999e-01,9.99999e-01,9.99993e-01,9.40713e-02,9.99999e-01
4.981575406e-01,9.85645e-02,9.99999e-01,9.99999e-01,9.99999e-01,9.99969e-01,9.85675e-02,9.99999e-01
5.006483283e-01,1.03175e-01,9.99999e-01,9.99999e-01,9.99999e-01,9.99919e-01,1.03183e-01,9.99998e-01
5.031515699e-01,1.07874e-01,9.99999e-01,9.99999e-01,9.99999e-01,9.99599e-01,1.07918e-01,9.99995e-01
5.056673278e-01,1.12746e-01,9.99999e-01,9.99999e-01,9.99999e-01,9.99789e-01,1.12770e-01,9.99994e-01
5.081956644e-01,1.17706e-01,9.99999e-01,9.99999e-01,9.99999e-01,9.99734e-01,1.17737e-01,9.99996e-01
5.107366428e-01,1.22797e-01,9.99999e-01,9.99999e-01,9.99999e-01,9.99820e-01,1.22819e-01,9.99999e-01
5.132903260e-01,1.28000e-01,9.99999e-01,9.99999e-01,9.99999e-01,9.99897e-01,1.28013e-01,9.99999e-01
5.158567776e-01,1.33312e-01,9.99999e-01,9.99999e-01,9.99999e-01,9.99956e-01,1.33318e-01,9.99999e-01
5.184360615e-01,1.38729e-01,9.99999e-01,9.99999e-01,9.99999e-01,9.99982e-01,1.38731e-01,9.99999e-01
5.210282418e-01,1.44250e-01,9.99999e-01,9.99999e-01,9.99999e-01,9.99993e-01,1.44251e-01,9.99999e-01
5.236333830e-01,1.49871e-01,9.99999e-01,9.99999e-01,9.99999e-01,9.99973e-01,1.49875e-01,9.99999e-01
5.262515499e-01,1.55597e-01,9.99999e-01,9.99999e-01,9.99999e-01,9.99983e-01,1.55600e-01,9.99999e-01
5.288828077e-01,1.61422e-01,9.99999e-01,9.99999e-01,9.99999e-01,9.99984e-01,1.61425e-01,9.99999e-01
5.315272217e-01,1.67343e-01,9.99999e-01,9.99999e-01,9.99999e-01,9.99986e-01,1.67346e-01,9.99999e-01
5.341848578e-01,1.73359e-01,9.99999e-01,9.99999e-01,9.99999e-01,9.99990e-01,1.73360e-01,9.99999e-01
5.368557821e-01,1.79461e-01,9.99999e-01,9.99999e-01,9.99999e-01,9.99969e-01,1.79466e-01,9.99999e-01
5.395400610e-01,1.85639e-01,9.99999e-01,9.99999e-01,9.99999e-01,9.99888e-01,1.85660e-01,9.99998e-01
5.422377613e-01,1.91911e-01,9.99999e-01,9.99999e-01,9.99999e-01,9.99858e-01,1.91939e-01,9.99996e-01
5.449489501e-01,1.98273e-01,9.99999e-01,9.99999e-01,9.99999e-01,9.99867e-01,1.98300e-01,9.99996e-01
5.476736949e-01,2.04715e-01,9.99999e-01,9.99999e-01,9.99999e-01,9.99883e-01,2.04739e-01,9.99998e-01
5.504120634e-01,2.11237e-01,9.99999e-01,9.99999e-01,9.99999e-01,9.99915e-01,2.11255e-01,9.99999e-01
5.531641237e-01,2.17834e-01,9.99999e-01,9.99999e-01,9.99999e-01,9.99957e-01,2.17843e-01,9.99999e-01
5.559299443e-01,2.24496e-01,9.99999e-01,9.99999e-01,9.99999e-01,9.99979e-01,2.24500e-01,9.99999e-01
5.587095940e-01,2.31221e-01,9.99999e-01,9.99999e-01,9.99999e-01,9.99986e-01,2.31224e-01,9.99999e-01
5.615031420e-01,2.38006e-01,9.99999e-01,9.99999e-01,9.99999e-01,9.99985e-01,2.38009e-01,9.99999e-01
5.643106577e-01,2.44850e-01,9.99999e-01,9.99999e-01,9.99999e-01,9.99983e-01,2.44854e-01,9.99999e-01
5.671322110e-01,2.51704e-01,9.99999e-01,9.99999e-01,9.99999e-01,9.99798e-01,2.51755e-01,9.99997e-01
5.699678720e-01,2.58653e-01,9.99999e-01,9.99999e-01,9.99999e-01,9.99791e-01,2.58708e-01,9.99994e-01
5.728177114e-01,2.65651e-01,9.99999e-01,9.99999e-01,9.99999e-01,9.99780e-01,2.65711e-01,9.99995e-01
5.756818000e-01,2.72703e-01,9.99999e-01,9.99999e-01,9.99999e-01,9.99799e-01,2.72758e-01,9.99996e-01
5.785602090e-01,2.79800e-01,9.99999e-01,9.99999e-01,9.99999e-01,9.99825e-01,2.79849e-01,9.99998e-01
5.814530100e-01,2.86927e-01,9.99999e-01,9.99999e-01,9.99999e-01,9.99823e-01,2.86977e-01,9.99999e-01
5.843602750e-01,2.94079e-01,9.99999e-01,9.99999e-01,9.99999e-01,9.99788e-01,2.94142e-01,9.99998e-01
5.872820764e-01,3.00786e-01,9.99999e-01,9.99999e-01,9.99999e-01,9.98181e-01,3.01338e-01,9.99986e-01
5.902184868e-01,3.07880e-01,9.99999e-01,9.99999e-01,9.99999e-01,9.97818e-01,3.08563e-01,9.99965e-01
5.931695792e-01,3.15315e-01,9.99999e-01,9.99999e-01,9.99999e-01,9.98453e-01,3.15813e-01,9.99966e-01
5.961354271e-01,3.22534e-01,9.99999e-01,9.99999e-01,9.99999e-01,9.98309e-01,3.23086e-01,9.99980e-01
5.991161043e-01,3.29969e-01,9.99999e-01,9.99999e-01,9.99999e-01,9.98768e-01,3.30377e-01,9.99993e-01
6.021116848e-01,3.37449e-01,9.99999e-01,9.99999e-01,9.99999e-01,9.99301e-01,3.37684e-01,9.99998e-01
6.051222432e-01,3.44882e-01,9.99999e-01,9.99999e-01,9.99999e-01,9.99646e-01,3.45004e-01,9.99999e-01
6.081478544e-01,3.52279e-01,9.99999e-01,9.99999e-01,9.99999e-01,9.99847e-01,3.52333e-01,9.99999e-01
6.111885937e-01,3.59645e-01,9.99999e-01,9.99999e-01,9.99999e-01,9.99935e-01,3.59668e-01,9.99999e-01
6.142445367e-01,3.66996e-01,9.99999e-01,9.99999e-01,9.99999e-01,9.99970e-01,3.67007e-01,9.99999e-01
6.173157594e-01,3.74340e-01,9.99999e-01,9.99999e-01,9.99999e-01,9.99983e-01,3.74346e-01,9.99999e-01
6.204023382e-01,3.81677e-01,9.99999e-01,9.99999e-01,9.99999e-01,9.99985e-01,3.81682e-01,9.99999e-01
6.235043498e-01,3.88989e-01,9.99999e-01,9.99999e-01,9.99999e-01,9.99939e-01,3.89013e-01,9.99999e-01
6.266218716e-01,3.96210e-01,9.99999e-01,9.99999e-01,9.99999e-01,9.99685e-01,3.96336e-01,9.99997e-01
6.297549810e-01,4.03599e-01,9.99999e-01,9.99999e-01,9.99999e-01,9.99884e-01,4.03648e-01,9.99995e-01
6.329037559e-01,4.10851e-01,9.99999e-01,9.99999e-01,9.99999e-01,9.99772e-01,4.10946e-01,9.99995e-01
6.360682746e-01,4.18146e-01,9.99999e-01,9.99999e-01,9.99999e-01,9.99805e-01,4.18228e-01,9.99997e-01
6.392486160e-01,4.25385e-01,9.99999e-01,9.99999e-01,9.99999e-01,9.99748e-01,4.25492e-01,9.99998e-01
6.424448591e-01,4.32587e-01,9.99999e-01,9.99999e-01,9.99999e-01,9.99660e-01,4.32735e-01,9.99997e-01
6.456570834e-01,4.39256e-01,9.99999e-01,9.99999e-01,9.99999e-01,9.98423e-01,4.39954e-01,9.99990e-01
6.488853688e-01,4.46627e-01,9.99999e-01,9.99999e-01,9.99999e-01,9.98858e-01,4.47148e-01,9.99975e-01
6.521297956e-01,4.53776e-01,9.99999e-01,9.99999e-01,9.99999e-01,9.98836e-01,4.54313e-01,9.99979e-01
6.553904446e-01,4.60905e-01,9.99999e-01,9.99999e-01,9.99999e-01,9.98836e-01,4.61449e-01,9.99984e-01
6.586673968e-01,4.68085e-01,9.99999e-01,9.99999e-01,9.99999e-01,9.99008e-01,4.68552e-01,9.99994e-01
6.619607338e-01,4.75358e-01,9.99999e-01,9.99999e-01,9.99999e-01,9.99447e-01,4.75621e-01,9.99998e-01
6.652705375e-01,4.82494e-01,9.99999e-01,9.99999e-01,9.99999e-01,9.99668e-01,4.82654e-01,9.99998e-01
6.685968902e-01,4.89580e-01,9.99999e-01,9.99999e-01,9.99999e-01,9.99858e-01,4.89649e-01,9.99999e-01
6.719398746e-01,4.96569e-01,9.99999e-01,9.99999e-01,9.99999e-01,9.99928e-01,4.96604e-01,9.99999e-01
6.752995740e-01,5.03499e-01,9.99999e-01,9.99999e-01,9.99999e-01,9.99961e-01,5.03518e-01,9.99999e-01
6.786760719e-01,5.10360e-01,9.99999e-01,9.99999e-01,9.99999e-01,9.99943e-01,5.10389e-01,9.99999e-01
6.820694522e-01,5.17164e-01,9.99999e-01,9.99999e-01,9.99999e-01,9.99902e-01,5.17215e-01,9.99999e-01
6.854797995e-01,5.23929e-01,9.99999e-01,9.99999e-01,9.99999e-01,9.99875e-01,5.23994e-01,9.99998e-01
6.889071985e-01,5.30563e-01,9.99999e-01,9.99999e-01,9.99999e-01,9.99694e-01,5.30726e-01,9.99996e-01
6.923517345e-01,5.34750e-01,9.99999e-01,9.99999e-01,9.99999e-01,9.95075e-01,5.37409e-01,9.99976e-01
6.958134932e-01,5.42650e-01,9.99999e-01,9.99999e-01,9.99999e-01,9.97492e-01,5.44042e-01,9.99947e-01
6.992925606e-01,5.49257e-01,9.99999e-01,9.99999e-01,9.99999e-01,9.97566e-01,5.50623e-01,9.99952e-01
7.027890234e-01,5.55472e-01,9.99999e-01,9.99999e-01,9.99999e-01,9.97022e-01,5.57151e-01,9.99963e-01
7.063029686e-01,5.62203e-01,9.99999e-01,9.99999e-01,9.99999e-01,9.97494e-01,5.63625e-01,9.99981e-01
7.098344834e-01,5.68669e-01,9.99999e-01,9.99999e-01,9.99999e-01,9.97596e-01,5.70045e-01,9.99989e-01
7.133836558e-01,5.74525e-01,9.99999e-01,9.99999e-01,9.99999e-01,9.96752e-01,5.76408e-01,9.99978e-01
7.169505741e-01,5.67597e-01,9.99999e-01,9.99999e-01,9.99999e-01,9.74215e-01,5.82715e-01,9.99835e-01
7.205353270e-01,5.81473e-01,9.99999e-01,9.99999e-01,9.99999e-01,9.87564e-01,5.88965e-01,9.99709e-01
7.241380036e-01,5.85468e-01,9.99999e-01,9.99999e-01,9.99999e-01,9.83968e-01,5.95156e-01,9.99749e-01
7.277586936e-01,5.92470e-01,9.99999e-01,9.99999e-01,9.99999e-01,9.85536e-01,6.01288e-01,9.99795e-01
7.313974871e-01,5.98039e-01,9.99999e-01,9.99999e-01,9.99999e-01,9.84748e-01,6.07360e-01,9.99903e-01
7.350544745e-01,6.08219e-01,9.99999e-01,9.99999e-01,9.99999e-01,9.91633e-01,6.13371e-01,9.99966e-01
7.387297469e-01,6.15501e-01,9.99999e-01,9.99999e-01,9.99999e-01,9.93846e-01,6.19322e-01,9.99984e-01
7.424233956e-01,6.23330e-01,9.99999e-01,9.99999e-01,9.99999e-01,9.96993e-01,6.25211e-01,9.99996e-01
7.461355126e-01,6.29886e-01,9.99999e-01,9.99999e-01,9.99999e-01,9.98174e-01,6.31038e-01,9.99999e-01
7.498661902e-01,6.36263e-01,9.99999e-01,9.99999e-01,9.99999e-01,9.99152e-01,6.36803e-01,9.99999e-01
7.536155211e-01,6.42237e-01,9.99999e-01,9.99999e-01,9.99999e-01,9.99582e-01,6.42505e-01,9.99999e-01
7.573835987e-01,6.48004e-01,9.99999e-01,9.99999e-01,9.99999e-01,9.99785e-01,6.48143e-01,9.99999e-01
7.611705167e-01,6.53632e-01,9.99999e-01,9.99999e-01,9.99999e-01,9.99866e-01,6.53719e-01,9.99999e-01
7.649763693e-01,6.59176e-01,9.99999e-01,9.99999e-01,9.99999e-01,9.99915e-01,6.59231e-01,9.99999e-01
7.688012511e-01,6.64640e-01,9.99999e-01,9.99999e-01,9.99999e-01,9.99941e-01,6.64679e-01,9.99999e-01
7.726452574e-01,6.70031e-01,9.99999e-01,9.99999e-01,9.99999e-01,9.99951e-01,6.70063e-01,9.99999e-01
7.765084837e-01,6.75337e-01,9.99999e-01,9.99999e-01,9.99999e-01,9.99930e-01,6.75384e-01,9.99999e-01
7.803910261e-01,6.67086e-01,9.99999e-01,9.99999e-01,9.80373e-01,9.99701e-01,6.80640e-01,9.99999e-01
7.842929812e-01,6.32046e-01,9.99999e-01,9.99999e-01,9.22510e-01,9.98959e-01,6.85832e-01,9.99997e-01
7.882144461e-01,6.31867e-01,9.99999e-01,9.99999e-01,9.16393e-01,9.97875e-01,6.90960e-01,9.99984e-01
7.921555184e-01,6.61158e-01,9.99999e-01,9.99999e-01,9.51019e-01,9.98841e-01,6.96023e-01,9.99974e-01
7.961162960e-01,6.76691e-01,9.99999e-01,9.99999e-01,9.67308e-01,9.97926e-01,7.01023e-01,9.99975e-01
8.000968774e-01,6.91669e-01,9.99999e-01,9.99999e-01,9.82113e-01,9.97621e-01,7.05959e-01,9.99973e-01
8.040973618e-01,7.02559e-01,9.99999e-01,9.99999e-01,9.90739e-01,9.97616e-01,7.10831e-01,9.99979e-01
8.081178486e-01,7.08716e-01,9.99999e-01,9.99999e-01,9.95722e-01,9.94594e-01,7.15640e-01,9.99979e-01
8.121584379e-01,7.03309e-01,9.99999e-01,9.99999e-01,9.98691e-01,9.77641e-01,7.20385e-01,9.99924e-01
8.162192301e-01,7.05643e-01,9.99999e-01,9.99999e-01,9.99710e-01,9.73762e-01,7.25067e-01,9.99717e-01
8.203003262e-01,7.19613e-01,9.99999e-01,9.99999e-01,9.99995e-01,9.86523e-01,7.29686e-01,9.99669e-01
8.244018279e-01,7.20597e-01,9.99999e-01,9.99999e-01,9.99999e-01,9.81672e-01,7.34242e-01,9.99736e-01
8.285238370e-01,7.26902e-01,9.99999e-01,9.99999e-01,9.99999e-01,9.84183e-01,7.38736e-01,9.99793e-01
8.326664562e-01,7.31270e-01,9.99999e-01,9.99999e-01,9.99999e-01,9.84073e-01,7.43168e-01,9.99914e-01
8.368297885e-01,7.39033e-01,9.99999e-01,9.99999e-01,9.99999e-01,9.88641e-01,7.47538e-01,9.99980e-01
8.410139374e-01,7.46760e-01,9.99999e-01,9.99999e-01,9.99999e-01,9.93244e-01,7.51847e-01,9.99988e-01
8.452190071e-01,7.53586e-01,9.99999e-01,9.99999e-01,9.99999e-01,9.96688e-01,7.56095e-01,9.99992e-01
8.494451021e-01,7.58811e-01,9.99999e-01,9.99999e-01,9.99999e-01,9.98070e-01,7.60282e-01,9.99994e-01
8.536923276e-01,7.63537e-01,9.99999e-01,9.99999e-01,9.99999e-01,9.98862e-01,7.64409e-01,9.99996e-01
8.579607893e-01,7.67936e-01,9.99999e-01,9.99999e-01,9.99999e-01,9.99297e-01,7.68476e-01,9.99998e-01
8.622505932e-01,7.72140e-01,9.99999e-01,9.99999e-01,9.99999e-01,9.99554e-01,7.72484e-01,9.99999e-01
8.665618462e-01,7.36873e-01,9.99999e-01,9.99999e-01,9.49304e-01,9.99723e-01,7.76433e-01,9.99999e-01
8.708946554e-01,6.33049e-01,9.99999e-01,9.99999e-01,8.11516e-01,9.99682e-01,7.80323e-01,9.99999e-01
8.752491287e-01,6.64208e-01,9.99999e-01,9.99999e-01,8.47388e-01,9.99575e-01,7.84156e-01,9.99999e-01
8.796253743e-01,7.19712e-01,9.99999e-01,9.99999e-01,9.13950e-01,9.99410e-01,7.87931e-01,9.99998e-01
8.840235012e-01,7.55219e-01,9.99999e-01,9.99999e-01,9.54621e-01,9.99327e-01,7.91649e-01,9.99995e-01
8.884436187e-01,7.79023e-01,9.99999e-01,9.99999e-01,9.81976e-01,9.97497e-01,7.95311e-01,9.99987e-01
8.928858368e-01,7.72553e-01,9.99999e-01,9.99999e-01,9.92651e-01,9.74191e-01,7.98917e-01,9.99932e-01
8.973502660e-01,7.64871e-01,9.99999e-01,9.99999e-01,9.98221e-01,9.55155e-01,8.02467e-01,9.99656e-01
9.018370173e-01,7.86886e-01,9.99999e-01,9.99999e-01,9.99804e-01,9.77043e-01,8.05963e-01,9.99460e-01
9.063462024e-01,7.88321e-01,9.99999e-01,9.99999e-01,9.94776e-01,9.79443e-01,8.09405e-01,9.99526e-01
9.108779334e-01,7.77555e-01,9.99999e-01,9.99999e-01,9.88387e-01,9.68286e-01,8.12792e-01,9.99507e-01
9.154323231e-01,7.84455e-01,9.99999e-01,9.99999e-01,9.97295e-01,9.64160e-01,8.16127e-01,9.99592e-01
9.200094847e-01,7.64128e-01,9.99999e-01,9.99999e-01,9.58945e-01,9.71871e-01,8.19409e-01,9.99771e-01
9.246095321e-01,7.42018e-01,9.99999e-01,9.99999e-01,9.44284e-01,9.54893e-01,8.22639e-01,9.99737e-01
9.292325798e-01,5.81355e-01,9.99999e-01,9.99999e-01,9.55367e-01,7.35637e-01,8.25818e-01,9.98733e-01
9.338787427e-01,5.34411e-01,9.99999e-01,9.99999e-01,9.57424e-01,6.74574e-01,8.28945e-01,9.95431e-01
9.385481364e-01,6.85439e-01,9.99999e-01,9.99999e-01,9.68582e-01,8.53938e-01,8.32023e-01,9.94982e-01
9.432408771e-01,6.51818e-01,9.99999e-01,9.99999e-01,9.80726e-01,7.98873e-01,8.35050e-01,9.95669e-01
9.479570815e-01,6.04509e-01,9.99999e-01,9.99999e-01,9.90047e-01,7.30926e-01,8.38029e-01,9.96474e-01
9.526968669e-01,6.63895e-01,9.99999e-01,9.99999e-01,9.95199e-01,7.94764e-01,8.40959e-01,9.97847e-01
9.574603512e-01,6.83095e-01,9.99999e-01,9.99999e-01,9.97947e-01,8.11997e-01,8.43841e-01,9.98905e-01
9.622476530e-01,7.14578e-01,9.99999e-01,9.99999e-01,9.99360e-01,8.45142e-01,8.46676e-01,9.99243e-01
9.670588912e-01,7.70441e-01,9.99999e-01,9.99999e-01,9.99808e-01,9.07610e-01,8.49464e-01,9.99482e-01
9.718941857e-01,8.01950e-01,9.99999e-01,9.99999e-01,9.99986e-01,9.41398e-01,8.52206e-01,9.99618e-01
9.767536566e-01,8.12870e-01,9.99999e-01,9.99999e-01,9.99999e-01,9.51110e-01,8.54902e-01,9.99708e-01
9.816374249e-01,8.26319e-01,9.99999e-01,9.99999e-01,9.99999e-01,9.63673e-01,8.57554e-01,9.99898e-01
9.865456120e-01,8.40508e-01,9.99999e-01,9.99999e-01,9.99999e-01,9.77172e-01,8.60161e-01,9.99978e-01
9.914783401e-01,8.50495e-01,9.99999e-01,9.99999e-01,9.99999e-01,9.85830e-01,8.62724e-01,9.99993e-01
9.964357318e-01,8.58546e-01,9.99999e-01,9.99999e-01,9.99999e-01,9.92262e-01,8.65244e-01,9.99996e-01
1.001417910e+00,8.63690e-01,9.99999e-01,9.99999e-01,9.99999e-01,9.95359e-01,8.67721e-01,9.99994e-01
1.006425000e+00,8.67841e-01,9.99999e-01,9.99999e-01,9.99999e-01,9.97346e-01,8.70156e-01,9.99992e-01
1.011457125e+00,8.71111e-01,9.99999e-01,9.99999e-01,9.99999e-01,9.98356e-01,8.72550e-01,9.99992e-01
1.016514411e+00,8.73921e-01,9.99999e-01,9.99999e-01,9.99999e-01,9.98882e-01,8.74903e-01,9.99994e-01
1.021596983e+00,8.76402e-01,9.99999e-01,9.99999e-01,9.99968e-01,9.99108e-01,8.77215e-01,9.99994e-01
1.026704968e+00,8.77081e-01,9.99999e-01,9.99999e-01,9.97958e-01,9.99304e-01,8.79488e-01,9.99996e-01
1.031838492e+00,8.53826e-01,9.99999e-01,9.99999e-01,9.68839e-01,9.99495e-01,8.81722e-01,9.99998e-01
1.036997685e+00,2.34518e-01,9.99999e-01,9.99999e-01,2.65383e-01,9.99699e-01,8.83917e-01,9.99999e-01
1.042182673e+00,2.76038e-01,9.99999e-01,9.99999e-01,3.11634e-01,9.99640e-01,8.86074e-01,9.99999e-01
1.047393587e+00,2.58065e-01,9.99999e-01,9.99999e-01,2.90676e-01,9.99524e-01,8.88193e-01,9.99999e-01
1.052630555e+00,3.33500e-02,9.99999e-01,9.99999e-01,3.74795e-02,9.99346e-01,8.90276e-01,9.99999e-01
1.057893707e+00,6.55874e-02,9.99999e-01,9.99999e-01,7.35641e-02,9.98907e-01,8.92322e-01,9.99999e-01
1.063183176e+00,1.34026e-01,9.99999e-01,9.99999e-01,1.50078e-01,9.98203e-01,8.94332e-01,9.99998e-01
1.068499092e+00,2.49625e-01,9.99999e-01,9.99999e-01,2.79261e-01,9.96997e-01,8.96307e-01,9.99997e-01
1.073841587e+00,4.01879e-01,9.99999e-01,9.99999e-01,4.48838e-01,9.96478e-01,8.98248e-01,9.99995e-01
