#,Wave/freq,Total,N2,O2,CO2,H2O,Rayleigh,CIA
4.000000000e-01,8.39531e-07,9.99999e-01,9.99999e-01,9.99999e-01,9.99972e-01,8.39554e-07,9.99999e-01
4.020000000e-01,1.10708e-06,9.99999e-01,9.99999e-01,9.99999e-01,9.99982e-01,1.10709e-06,9.99999e-01
4.040100000e-01,1.45152e-06,9.99999e-01,9.99999e-01,9.99999e-01,9.99992e-01,1.45153e-06,9.99999e-01
4.060300500e-01,1.89297e-06,9.99999e-01,9.99999e-01,9.99999e-01,9.99997e-01,1.89297e-06,9.99999e-01
4.080602003e-01,2.45576e-06,9.99999e-01,9.99999e-01,9.99999e-01,9.99998e-01,2.45576e-06,9.99999e-01
4.101005013e-01,3.16952e-06,9.99999e-01,9.99999e-01,9.99999e-01,9.99999e-01,3.16952e-06,9.99999e-01
4.121510038e-01,4.07016e-06,9.99999e-01,9.99999e-01,9.99999e-01,9.99998e-01,4.07017e-06,9.99999e-01
4.142117588e-01,5.20095e-06,9.99999e-01,9.99999e-01,9.99999e-01,9.99991e-01,5.20099e-06,9.99999e-01
4.162828176e-01,6.61366e-06,9.99999e-01,9.99999e-01,9.99999e-01,9.99966e-01,6.61388e-06,9.99999e-01
4.183642317e-01,8.37059e-06,9.99999e-01,9.99999e-01,9.99999e-01,9.99979e-01,8.37076e-06,9.99999e-01
4.204560528e-01,1.05450e-05,9.99999e-01,9.99999e-01,9.99999e-01,9.99987e-01,1.05452e-05,9.99999e-01
4.225583331e-01,1.32238e-05,9.99999e-01,9.99999e-01,9.99999e-01,9.99995e-01,1.32239e-05,9.99999e-01
4.246711247e-01,1.65091e-05,9.99999e-01,9.99999e-01,9.99999e-01,9.99995e-01,1.65092e-05,9.99999e-01
4.267944804e-01,2.05203e-05,9.99999e-01,9.99999e-01,9.99999e-01,9.99994e-01,2.05204e-05,9.99999e-01
4.289284528e-01,2.53969e-05,9.99999e-01,9.99999e-01,9.99999e-01,9.99995e-01,2.53970e-05,9.99999e-01
4.310730950e-01,3.13003e-05,9.99999e-01,9.99999e-01,9.99999e-01,9.99997e-01,3.13004e-05,9.99999e-01
4.332284605e-01,3.84170e-05,9.99999e-01,9.99999e-01,9.99999e-01,9.99999e-01,3.84170e-05,9.99999e-01
4.353946028e-01,4.69613e-05,9.99999e-01,9.99999e-01,9.99999e-01,9.99999e-01,4.69613e-05,9.99999e-01
4.375715758e-01,5.71785e-05,9.99999e-01,9.99999e-01,9.99999e-01,9.99996e-01,5.71787e-05,9.99999e-01
4.397594337e-01,6.93468e-05,9.99999e-01,9.99999e-01,9.99999e-01,9.99969e-01,6.93489e-05,9.99999e-01
4.419582309e-01,8.37768e-05,9.99999e-01,9.99999e-01,9.99999e-01,9.99848e-01,8.37894e-05,9.99999e-01
4.441680220e-01,1.00848e-04,9.99999e-01,9.99999e-01,9.99999e-01,9.99884e-01,1.00859e-04,9.99999e-01
4.463888621e-01,1.20948e-04,9.99999e-01,9.99999e-01,9.99999e-01,9.99878e-01,1.20963e-04,9.99999e-01
4.486208064e-01,1.44543e-04,9.99999e-01,9.99999e-01,9.99999e-01,9.99924e-01,1.44554e-04,9.99999e-01
4.508639105e-01,1.72133e-04,9.99999e-01,9.99999e-01,9.99999e-01,9.99964e-01,1.72139e-04,9.99999e-01
4.531182300e-01,2.04279e-04,9.99999e-01,9.99999e-01,9.99999e-01,9.99985e-01,2.04282e-04,9.99999e-01
4.553838212e-01,2.41606e-04,9.99999e-01,9.99999e-01,9.99999e-01,9.99990e-01,2.41608e-04,9.99999e-01
4.576607403e-01,2.84808e-04,9.99999e-01,9.99999e-01,9.99999e-01,9.99995e-01,2.84809e-04,9.99999e-01
4.599490440e-01,3.34645e-04,9.99999e-01,9.99999e-01,9.99999e-01,9.99996e-01,3.34646e-04,9.99999e-01
4.622487892e-01,3.91952e-04,9.99999e-01,9.99999e-01,9.99999e-01,9.99998e-01,3.91953e-04,9.99999e-01
4.645600332e-01,4.57641e-04,9.99999e-01,9.99999e-01,9.99999e-01,9.99997e-01,4.57642e-04,9.99999e-01
4.668828333e-01,5.32688e-04,9.99999e-01,9.99999e-01,9.99999e-01,9.99963e-01,5.32707e-04,9.99999e-01
4.692172475e-01,6.18181e-04,9.99999e-01,9.99999e-01,9.99999e-01,9.99923e-01,6.18228e-04,9.99999e-01
4.715633337e-01,7.15335e-04,9.99999e-01,9.99999e-01,9.99999e-01,9.99949e-01,7.15371e-04,9.99999e-01
4.739211504e-01,8.25356e-04,9.99999e-01,9.99999e-01,9.99999e-01,9.99952e-01,8.25395e-04,9.99999e-01
4.762907561e-01,9.49631e-04,9.99999e-01,9.99999e-01,9.99999e-01,9.99975e-01,9.49654e-04,9.99999e-01
4.786722099e-01,1.08959e-03,9.99999e-01,9.99999e-01,9.99999e-01,9.99989e-01,1.08960e-03,9.99999e-01
4.810655710e-01,1.24677e-03,9.99999e-01,9.99999e-01,9.99999e-01,9.99996e-01,1.24677e-03,9.99999e-01
4.834708988e-01,1.42279e-03,9.99999e-01,9.99999e-01,9.99999e-01,9.99969e-01,1.42283e-03,9.99999e-01
4.858882533e-01,1.61943e-03,9.99999e-01,9.99999e-01,9.99999e-01,9.99946e-01,1.61952e-03,9.99999e-01
4.883176946e-01,1.83860e-03,9.99999e-01,9.99999e-01,9.99999e-01,9.99954e-01,1.83868e-03,9.99999e-01
4.907592831e-01,2.08220e-03,9.99999e-01,9.99999e-01,9.99999e-01,9.99959e-01,2.08228e-03,9.99999e-01
4.932130795e-01,2.35230e-03,9.99999e-01,9.99999e-01,9.99999e-01,9.99970e-01,2.35237e-03,9.99999e-01
4.956791449e-01,2.65105e-03,9.99999e-01,9.99999e-01,9.99999e-01,9.99984e-01,2.65109e-03,9.99999e-01
4.981575406e-01,2.98047e-03,9.99999e-01,9.99999e-01,9.99999e-01,9.99923e-01,2.98070e-03,9.99999e-01
5.006483283e-01,3.34287e-03,9.99999e-01,9.99999e-01,9.99999e-01,9.99800e-01,3.34354e-03,9.99998e-01
5.031515699e-01,3.73826e-03,9.99999e-01,9.99999e-01,9.99999e-01,9.98996e-01,3.74205e-03,9.99988e-01
5.056673278e-01,4.17650e-03,9.99999e-01,9.99999e-01,9.99999e-01,9.99472e-01,4.17875e-03,9.99987e-01
5.081956644e-01,4.65313e-03,9.99999e-01,9.99999e-01,9.99999e-01,9.99334e-01,4.65626e-03,9.99992e-01
5.107366428e-01,5.17492e-03,9.99999e-01,9.99999e-01,9.99999e-01,9.99550e-01,5.17725e-03,9.99998e-01
5.132903260e-01,5.74301e-03,9.99999e-01,9.99999e-01,9.99999e-01,9.99743e-01,5.74448e-03,9.99999e-01
5.158567776e-01,6.36011e-03,9.99999e-01,9.99999e-01,9.99999e-01,9.99891e-01,6.36080e-03,9.99999e-01
5.184360615e-01,7.02876e-03,9.99999e-01,9.99999e-01,9.99999e-01,9.99956e-01,7.02906e-03,9.99999e-01
5.210282418e-01,7.75210e-03,9.99999e-01,9.99999e-01,9.99999e-01,9.99983e-01,7.75223e-03,9.99999e-01
5.236333830e-01,8.53271e-03,9.99999e-01,9.99999e-01,9.99999e-01,9.99934e-01,8.53327e-03,9.99999e-01
5.262515499e-01,9.37483e-03,9.99999e-01,9.99999e-01,9.99999e-01,9.99958e-01,9.37521e-03,9.99998e-01
5.288828077e-01,1.02807e-02,9.99999e-01,9.99999e-01,9.99999e-01,9.99961e-01,1.02811e-02,9.99999e-01
5.315272217e-01,1.12536e-02,9.99999e-01,9.99999e-01,9.99999e-01,9.99966e-01,1.12540e-02,9.99999e-01
5.341848578e-01,1.22967e-02,9.99999e-01,9.99999e-01,9.99999e-01,9.99977e-01,1.22970e-02,9.99999e-01
5.368557821e-01,1.34121e-02,9.99999e-01,9.99999e-01,9.99999e-01,9.99923e-01,1.34131e-02,9.99999e-01
5.395400610e-01,1.46014e-02,9.99999e-01,9.99999e-01,9.99999e-01,9.99722e-01,1.46055e-02,9.99996e-01
5.422377613e-01,1.58714e-02,9.99999e-01,9.99999e-01,9.99999e-01,9.99646e-01,1.58771e-02,9.99993e-01
5.449489501e-01,1.72252e-02,9.99999e-01,9.99999e-01,9.99999e-01,9.99668e-01,1.72310e-02,9.99992e-01
5.476736949e-01,1.86646e-02,9.99999e-01,9.99999e-01,9.99999e-01,9.99708e-01,1.86701e-02,9.99996e-01
5.504120634e-01,2.01932e-02,9.99999e-01,9.99999e-01,9.99999e-01,9.99788e-01,2.01974e-02,9.99998e-01
5.531641237e-01,2.18135e-02,9.99999e-01,9.99999e-01,9.99999e-01,9.99893e-01,2.18158e-02,9.99999e-01
5.559299443e-01,2.35268e-02,9.99999e-01,9.99999e-01,9.99999e-01,9.99948e-01,2.35280e-02,9.99999e-01
5.587095940e-01,2.53359e-02,9.99999e-01,9.99999e-01,9.99999e-01,9.99967e-01,2.53367e-02,9.99999e-01
5.615031420e-01,2.72436e-02,9.99999e-01,9.99999e-01,9.99999e-01,9.99963e-01,2.72445e-02,9.99999e-01
5.643106577e-01,2.92529e-02,9.99999e-01,9.99999e-01,9.99999e-01,9.99958e-01,2.92541e-02,9.99999e-01
5.671322110e-01,3.13518e-02,9.99999e-01,9.99999e-01,9.99999e-01,9.99495e-01,3.13677e-02,9.99995e-01
5.699678720e-01,3.35698e-02,9.99999e-01,9.99999e-01,9.99999e-01,9.99477e-01,3.35878e-02,9.99986e-01
5.728177114e-01,3.58963e-02,9.99999e-01,9.99999e-01,9.99999e-01,9.99450e-01,3.59164e-02,9.99988e-01
5.756818000e-01,3.83361e-02,9.99999e-01,9.99999e-01,9.99999e-01,9.99496e-01,3.83557e-02,9.99993e-01
5.785602090e-01,4.08895e-02,9.99999e-01,9.99999e-01,9.99999e-01,9.99562e-01,4.09074e-02,9.99997e-01
5.814530100e-01,4.35543e-02,9.99999e-01,9.99999e-01,9.99999e-01,9.99559e-01,4.35735e-02,9.99998e-01
5.843602750e-01,4.63309e-02,9.99999e-01,9.99999e-01,9.99999e-01,9.99470e-01,4.63555e-02,9.99996e-01
5.872820764e-01,4.90291e-02,9.99999e-01,9.99999e-01,9.99999e-01,9.95447e-01,4.92549e-02,9.99967e-01
5.902184868e-01,5.19828e-02,9.99999e-01,9.99999e-01,9.99999e-01,9.94535e-01,5.22729e-02,9.99912e-01
5.931695792e-01,5.51915e-02,9.99999e-01,9.99999e-01,9.99999e-01,9.96125e-01,5.54107e-02,9.99916e-01
5.961354271e-01,5.84180e-02,9.99999e-01,9.99999e-01,9.99999e-01,9.95763e-01,5.86693e-02,9.99951e-01
5.991161043e-01,6.18570e-02,9.99999e-01,9.99999e-01,9.99999e-01,9.96912e-01,6.20494e-02,9.99984e-01
6.021116848e-01,6.54369e-02,9.99999e-01,9.99999e-01,9.99999e-01,9.98249e-01,6.55517e-02,9.99997e-01
6.051222432e-01,6.91154e-02,9.99999e-01,9.99999e-01,9.99999e-01,9.99114e-01,6.91767e-02,9.99999e-01
6.081478544e-01,7.28966e-02,9.99999e-01,9.99999e-01,9.99999e-01,9.99617e-01,7.29245e-02,9.99999e-01
6.111885937e-01,7.67829e-02,9.99999e-01,9.99999e-01,9.99999e-01,9.99838e-01,7.67952e-02,9.99999e-01
6.142445367e-01,8.07831e-02,9.99999e-01,9.99999e-01,9.99999e-01,9.99927e-01,8.07889e-02,9.99999e-01
6.173157594e-01,8.49018e-02,9.99999e-01,9.99999e-01,9.99999e-01,9.99959e-01,8.49052e-02,9.99999e-01
6.204023382e-01,8.91406e-02,9.99999e-01,9.99999e-01,9.99999e-01,9.99965e-01,8.91436e-02,9.99999e-01
6.235043498e-01,9.34895e-02,9.99999e-01,9.99999e-01,9.99999e-01,9.99848e-01,9.35037e-02,9.99999e-01
6.266218716e-01,9.79066e-02,9.99999e-01,9.99999e-01,9.99999e-01,9.99210e-01,9.79845e-02,9.99993e-01
6.297549810e-01,1.02554e-01,9.99999e-01,9.99999e-01,9.99999e-01,9.99710e-01,1.02585e-01,9.99988e-01
6.329037559e-01,1.07242e-01,9.99999e-01,9.99999e-01,9.99999e-01,9.99429e-01,1.07305e-01,9.99990e-01
6.360682746e-01,1.12086e-01,9.99999e-01,9.99999e-01,9.99999e-01,9.99511e-01,1.12141e-01,9.99994e-01
6.392486160e-01,1.17020e-01,9.99999e-01,9.99999e-01,9.99999e-01,9.99368e-01,1.17094e-01,9.99997e-01
6.424448591e-01,1.22057e-01,9.99999e-01,9.99999e-01,9.99999e-01,9.99148e-01,1.22161e-01,9.99995e-01
6.456570834e-01,1.26835e-01,9.99999e-01,9.99999e-01,9.99999e-01,9.96051e-01,1.27341e-01,9.99975e-01
6.488853688e-01,1.32245e-01,9.99999e-01,9.99999e-01,9.99999e-01,9.97139e-01,1.32632e-01,9.99938e-01
6.521297956e-01,1.37622e-01,9.99999e-01,9.99999e-01,9.99999e-01,9.97084e-01,1.38031e-01,9.99949e-01
6.553904446e-01,1.43114e-01,9.99999e-01,9.99999e-01,9.99999e-01,9.97084e-01,1.43538e-01,9.99962e-01
6.586673968e-01,1.48775e-01,9.99999e-01,9.99999e-01,9.99999e-01,9.97513e-01,1.49148e-01,9.99987e-01
6.619607338e-01,1.54646e-01,9.99999e-01,9.99999e-01,9.99999e-01,9.98614e-01,1.54861e-01,9.99996e-01
6.652705375e-01,1.60539e-01,9.99999e-01,9.99999e-01,9.99999e-01,9.99168e-01,1.60672e-01,9.99998e-01
6.685968902e-01,1.66522e-01,9.99999e-01,9.99999e-01,9.99999e-01,9.99646e-01,1.66581e-01,9.99999e-01
6.719398746e-01,1.72553e-01,9.99999e-01,9.99999e-01,9.99999e-01,9.99820e-01,1.72584e-01,9.99999e-01
6.752995740e-01,1.78662e-01,9.99999e-01,9.99999e-01,9.99999e-01,9.99905e-01,1.78678e-01,9.99999e-01
6.786760719e-01,1.84835e-01,9.99999e-01,9.99999e-01,9.99999e-01,9.99858e-01,1.84861e-01,9.99999e-01
6.820694522e-01,1.91082e-01,9.99999e-01,9.99999e-01,9.99999e-01,9.99756e-01,1.91129e-01,9.99998e-01
6.854797995e-01,1.97418e-01,9.99999e-01,9.99999e-01,9.99999e-01,9.99688e-01,1.97480e-01,9.99996e-01
6.889071985e-01,2.03753e-01,9.99999e-01,9.99999e-01,9.99999e-01,9.99235e-01,2.03910e-01,9.99992e-01
6.923517345e-01,2.07816e-01,9.99999e-01,9.99999e-01,9.99999e-01,9.87703e-01,2.10416e-01,9.99940e-01
6.958134932e-01,2.15604e-01,9.99999e-01,9.99999e-01,9.99999e-01,9.93720e-01,2.16995e-01,9.99869e-01
6.992925606e-01,2.22255e-01,9.99999e-01,9.99999e-01,9.99999e-01,9.93910e-01,2.23643e-01,9.99882e-01
7.027890234e-01,2.28621e-01,9.99999e-01,9.99999e-01,9.99999e-01,9.92545e-01,2.30358e-01,9.99910e-01
7.063029686e-01,2.35638e-01,9.99999e-01,9.99999e-01,9.99999e-01,9.93724e-01,2.37136e-01,9.99954e-01
7.098344834e-01,2.42498e-01,9.99999e-01,9.99999e-01,9.99999e-01,9.93978e-01,2.43974e-01,9.99973e-01
7.133836558e-01,2.48818e-01,9.99999e-01,9.99999e-01,9.99999e-01,9.91882e-01,2.50868e-01,9.99947e-01
7.169505741e-01,2.41444e-01,9.99999e-01,9.99999e-01,9.99999e-01,9.36888e-01,2.57814e-01,9.99587e-01
7.205353270e-01,2.56460e-01,9.99999e-01,9.99999e-01,9.99999e-01,9.69170e-01,2.64810e-01,9.99272e-01
7.241380036e-01,2.60919e-01,9.99999e-01,9.99999e-01,9.99999e-01,9.60381e-01,2.71853e-01,9.99371e-01
7.277586936e-01,2.68818e-01,9.99999e-01,9.99999e-01,9.99999e-01,9.64216e-01,2.78937e-01,9.99486e-01
7.313974871e-01,2.75190e-01,9.99999e-01,9.99999e-01,9.99999e-01,9.62227e-01,2.86062e-01,9.99759e-01
7.350544745e-01,2.87086e-01,9.99999e-01,9.99999e-01,9.99999e-01,9.79157e-01,2.93221e-01,9.99915e-01
7.387297469e-01,2.95786e-01,9.99999e-01,9.99999e-01,9.99999e-01,9.84633e-01,3.00414e-01,9.99961e-01
7.424233956e-01,3.05317e-01,9.99999e-01,9.99999e-01,9.99999e-01,9.92471e-01,3.07635e-01,9.99992e-01
7.461355126e-01,3.13442e-01,9.99999e-01,9.99999e-01,9.99999e-01,9.95424e-01,3.14883e-01,9.99998e-01
7.498661902e-01,3.21468e-01,9.99999e-01,9.99999e-01,9.99999e-01,9.97873e-01,3.22153e-01,9.99999e-01
7.536155211e-01,3.29097e-01,9.99999e-01,9.99999e-01,9.99999e-01,9.98953e-01,3.29442e-01,9.99999e-01
7.573835987e-01,3.36566e-01,9.99999e-01,9.99999e-01,9.99999e-01,9.99461e-01,3.36747e-01,9.99999e-01
7.611705167e-01,3.43950e-01,9.99999e-01,9.99999e-01,9.99999e-01,9.99665e-01,3.44065e-01,9.99999e-01
7.649763693e-01,3.51319e-01,9.99999e-01,9.99999e-01,9.99999e-01,9.99789e-01,3.51393e-01,9.99999e-01
7.688012511e-01,3.58675e-01,9.99999e-01,9.99999e-01,9.99999e-01,9.99853e-01,3.58728e-01,9.99999e-01
7.726452574e-01,3.66022e-01,9.99999e-01,9.99999e-01,9.99999e-01,9.99879e-01,3.66066e-01,9.99999e-01
7.765084837e-01,3.73340e-01,9.99999e-01,9.99999e-01,9.99999e-01,9.99827e-01,3.73405e-01,9.99999e-01
7.803910261e-01,3.63346e-01,9.99999e-01,9.99999e-01,9.54995e-01,9.99252e-01,3.80742e-01,9.99998e-01
7.842929812e-01,3.17726e-01,9.99999e-01,9.99999e-01,8.20740e-01,9.97392e-01,3.88074e-01,9.99994e-01
7.882144461e-01,3.18071e-01,9.99999e-01,9.99999e-01,8.08545e-01,9.94678e-01,3.95398e-01,9.99963e-01
7.921555184e-01,3.54318e-01,9.99999e-01,9.99999e-01,8.82372e-01,9.97094e-01,4.02711e-01,9.99936e-01
7.961162960e-01,3.75294e-01,9.99999e-01,9.99999e-01,9.20100e-01,9.94809e-01,4.10011e-01,9.99939e-01
8.000968774e-01,3.96447e-01,9.99999e-01,9.99999e-01,9.55772e-01,9.94041e-01,4.17296e-01,9.99935e-01
8.040973618e-01,4.12278e-01,9.99999e-01,9.99999e-01,9.76928e-01,9.94031e-01,4.24562e-01,9.99950e-01
8.081178486e-01,4.21414e-01,9.99999e-01,9.99999e-01,9.89299e-01,9.86509e-01,4.31808e-01,9.99949e-01
8.121584379e-01,4.13477e-01,9.99999e-01,9.99999e-01,9.96717e-01,9.45033e-01,4.39030e-01,9.99811e-01
8.162192301e-01,4.16947e-01,9.99999e-01,9.99999e-01,9.99273e-01,9.35705e-01,4.46227e-01,9.99292e-01
8.203003262e-01,4.38038e-01,9.99999e-01,9.99999e-01,9.99989e-01,9.66935e-01,4.53396e-01,9.99171e-01
8.244018279e-01,4.39627e-01,9.99999e-01,9.99999e-01,9.99999e-01,9.55228e-01,4.60536e-01,9.99340e-01
8.285238370e-01,4.49117e-01,9.99999e-01,9.99999e-01,9.99999e-01,9.60880e-01,4.67643e-01,9.99481e-01
8.326664562e-01,4.55928e-01,9.99999e-01,9.99999e-01,9.99999e-01,9.60625e-01,4.74717e-01,9.99785e-01
8.368297885e-01,4.68130e-01,9.99999e-01,9.99999e-01,9.99999e-01,9.71765e-01,4.81755e-01,9.99950e-01
8.410139374e-01,4.80501e-01,9.99999e-01,9.99999e-01,9.99999e-01,9.83139e-01,4.88755e-01,9.99970e-01
8.452190071e-01,4.91598e-01,9.99999e-01,9.99999e-01,9.99999e-01,9.91710e-01,4.95715e-01,9.99982e-01
8.494451021e-01,5.00198e-01,9.99999e-01,9.99999e-01,9.99999e-01,9.95165e-01,5.02634e-01,9.99985e-01
8.536923276e-01,5.08054e-01,9.99999e-01,9.99999e-01,9.99999e-01,9.97148e-01,5.09511e-01,9.99991e-01
8.579607893e-01,5.15432e-01,9.99999e-01,9.99999e-01,9.99999e-01,9.98237e-01,5.16342e-01,9.99997e-01
8.622505932e-01,5.22543e-01,9.99999e-01,9.99999e-01,9.99999e-01,9.98882e-01,5.23128e-01,9.99999e-01
8.665618462e-01,4.81502e-01,9.99999e-01,9.99999e-01,9.09324e-01,9.99306e-01,5.29866e-01,9.99999e-01
8.708946554e-01,3.24827e-01,9.99999e-01,9.99999e-01,6.05853e-01,9.99204e-01,5.36555e-01,9.99999e-01
8.752491287e-01,3.62076e-01,9.99999e-01,9.99999e-01,6.67251e-01,9.98936e-01,5.43194e-01,9.99998e-01
8.796253743e-01,4.39194e-01,9.99999e-01,9.99999e-01,7.99990e-01,9.98522e-01,5.49782e-01,9.99996e-01
8.840235012e-01,4.94527e-01,9.99999e-01,9.99999e-01,8.90410e-01,9.98313e-01,5.56317e-01,9.99989e-01
8.884436187e-01,5.34385e-01,9.99999e-01,9.99999e-01,9.55434e-01,9.93751e-01,5.62798e-01,9.99970e-01
8.928858368e-01,5.23518e-01,9.99999e-01,9.99999e-01,9.81661e-01,9.36841e-01,5.69225e-01,9.99831e-01
8.973502660e-01,5.10744e-01,9.99999e-01,9.99999e-01,9.95541e-01,8.91965e-01,5.75596e-01,9.99139e-01
9.018370173e-01,5.48182e-01,9.99999e-01,9.99999e-01,9.99509e-01,9.43758e-01,5.81910e-01,9.98647e-01
9.063462024e-01,5.50888e-01,9.99999e-01,9.99999e-01,9.87056e-01,9.49523e-01,5.88167e-01,9.98811e-01
9.108779334e-01,5.32235e-01,9.99999e-01,9.99999e-01,9.71144e-01,9.22781e-01,5.94365e-01,9.98765e-01
9.154323231e-01,5.44030e-01,9.99999e-01,9.99999e-01,9.93226e-01,9.12891e-01,6.00505e-01,9.98979e-01
9.200094847e-01,5.13536e-01,9.99999e-01,9.99999e-01,9.05244e-01,9.31299e-01,6.06585e-01,9.99428e-01
9.246095321e-01,4.75313e-01,9.99999e-01,9.99999e-01,8.66455e-01,8.93090e-01,6.12604e-01,9.99341e-01
9.292325798e-01,2.66863e-01,9.99999e-01,9.99999e-01,8.92992e-01,4.77481e-01,6.18562e-01,9.96825e-01
9.338787427e-01,2.18797e-01,9.99999e-01,9.99999e-01,8.97161e-01,3.89614e-01,6.24459e-01,9.88575e-01
9.385481364e-01,3.94985e-01,9.99999e-01,9.99999e-01,9.23221e-01,6.83435e-01,6.30294e-01,9.87455e-01
9.432408771e-01,3.54018e-01,9.99999e-01,9.99999e-01,9.52355e-01,5.88817e-01,6.36067e-01,9.89167e-01
9.479570815e-01,3.00751e-01,9.99999e-01,9.99999e-01,9.75215e-01,4.83973e-01,6.41777e-01,9.91175e-01
9.526968669e-01,3.68922e-01,9.99999e-01,9.99999e-01,9.88001e-01,5.79124e-01,6.47424e-01,9.94607e-01
9.574603512e-01,3.89586e-01,9.99999e-01,9.99999e-01,9.94856e-01,6.01070e-01,6.53008e-01,9.97257e-01
9.622476530e-01,4.33552e-01,9.99999e-01,9.99999e-01,9.98394e-01,6.60595e-01,6.58528e-01,9.98102e-01
9.670588912e-01,5.21496e-01,9.99999e-01,9.99999e-01,9.99519e-01,7.86776e-01,6.63984e-01,9.98701e-01
9.718941857e-01,5.75113e-01,9.99999e-01,9.99999e-01,9.99966e-01,8.60024e-01,6.69377e-01,9.99044e-01
9.767536566e-01,5.94842e-01,9.99999e-01,9.99999e-01,9.99999e-01,8.82276e-01,6.74705e-01,9.99269e-01
9.816374249e-01,6.19648e-01,9.99999e-01,9.99999e-01,9.99999e-01,9.11517e-01,6.79970e-01,9.99746e-01
9.865456120e-01,6.46603e-01,9.99999e-01,9.99999e-01,9.99999e-01,9.43761e-01,6.85170e-01,9.99946e-01
9.914783401e-01,6.66020e-01,9.99999e-01,9.99999e-01,9.99999e-01,9.64831e-01,6.90306e-01,9.99984e-01
9.964357318e-01,6.81951e-01,9.99999e-01,9.99999e-01,9.99999e-01,9.80699e-01,6.95378e-01,9.99990e-01
1.001417910e+00,6.92249e-01,9.99999e-01,9.99999e-01,9.99999e-01,9.88394e-01,7.00386e-01,9.99986e-01
1.006425000e+00,7.00630e-01,9.99999e-01,9.99999e-01,9.99999e-01,9.93354e-01,7.05330e-01,9.99980e-01
1.011457125e+00,7.07273e-01,9.99999e-01,9.99999e-01,9.99999e-01,9.95881e-01,7.10210e-01,9.99982e-01
1.016514411e+00,7.13015e-01,9.99999e-01,9.99999e-01,9.99999e-01,9.97198e-01,7.15027e-01,9.99987e-01
1.021596983e+00,7.18108e-01,9.99999e-01,9.99999e-01,9.99921e-01,9.97765e-01,7.19780e-01,9.99987e-01
1.026704968e+00,7.19519e-01,9.99999e-01,9.99999e-01,9.94904e-01,9.98256e-01,7.24470e-01,9.99992e-01
1.031838492e+00,6.86473e-01,9.99999e-01,9.99999e-01,9.42686e-01,9.98734e-01,7.29097e-01,9.99997e-01
1.036997685e+00,8.49191e-02,9.99999e-01,9.99999e-01,1.15815e-01,9.99246e-01,7.33662e-01,9.99999e-01
1.042182673e+00,4.79481e-02,9.99999e-01,9.99999e-01,6.50064e-02,9.99098e-01,7.38164e-01,9.99999e-01
1.047393587e+00,6.52915e-02,9.99999e-01,9.99999e-01,8.80139e-02,9.98807e-01,7.42603e-01,9.99999e-01
1.052630555e+00,7.01250e-04,9.99999e-01,9.99999e-01,9.39865e-04,9.98361e-01,7.46981e-01,9.99999e-01
1.057893707e+00,2.09747e-03,9.99999e-01,9.99999e-01,2.79666e-03,9.97261e-01,7.51298e-01,9.99998e-01
1.063183176e+00,9.57346e-03,9.99999e-01,9.99999e-01,1.27097e-02,9.95500e-01,7.55554e-01,9.99997e-01
1.068499092e+00,3.40356e-02,9.99999e-01,9.99999e-01,4.50713e-02,9.92486e-01,7.59748e-01,9.99994e-01
1.073841587e+00,1.06906e-01,9.99999e-01,9.99999e-01,1.40978e-01,9.91194e-01,7.63883e-01,9.99988e-01
