#,Wave/freq,Total,N2,O2,CO2,H2O,Rayleigh,CIA
4.000000000e-01,6.65444e-18,9.99999e-01,9.99999e-01,9.99999e-01,9.99923e-01,6.65495e-18,9.99999e-01
4.020000000e-01,1.45466e-17,9.99999e-01,9.99999e-01,9.99999e-01,9.99952e-01,1.45473e-17,9.99999e-01
4.040100000e-01,3.12861e-17,9.99999e-01,9.99999e-01,9.99999e-01,9.99979e-01,3.12867e-17,9.99999e-01
4.060300500e-01,6.62774e-17,9.99999e-01,9.99999e-01,9.99999e-01,9.99994e-01,6.62777e-17,9.99999e-01
4.080602003e-01,1.38336e-16,9.99999e-01,9.99999e-01,9.99999e-01,9.99998e-01,1.38336e-16,9.99999e-01
4.101005013e-01,2.84571e-16,9.99999e-01,9.99999e-01,9.99999e-01,9.99999e-01,2.84571e-16,9.99999e-01
4.121510038e-01,5.77110e-16,9.99999e-01,9.99999e-01,9.99999e-01,9.99996e-01,5.77111e-16,9.99999e-01
4.142117588e-01,1.15413e-15,9.99999e-01,9.99999e-01,9.99999e-01,9.99978e-01,1.15415e-15,9.99999e-01
4.162828176e-01,2.27656e-15,9.99999e-01,9.99999e-01,9.99999e-01,9.99905e-01,2.27677e-15,9.99999e-01
4.183642317e-01,4.43123e-15,9.99999e-01,9.99999e-01,9.99999e-01,9.99943e-01,4.43148e-15,9.99999e-01
4.204560528e-01,8.51236e-15,9.99999e-01,9.99999e-01,9.99999e-01,9.99965e-01,8.51266e-15,9.99999e-01
4.225583331e-01,1.61427e-14,9.99999e-01,9.99999e-01,9.99999e-01,9.99986e-01,1.61429e-14,9.99999e-01
4.246711247e-01,3.02276e-14,9.99999e-01,9.99999e-01,9.99999e-01,9.99989e-01,3.02279e-14,9.99999e-01
4.267944804e-01,5.59045e-14,9.99999e-01,9.99999e-01,9.99999e-01,9.99984e-01,5.59053e-14,9.99999e-01
4.289284528e-01,1.02145e-13,9.99999e-01,9.99999e-01,9.99999e-01,9.99987e-01,1.02147e-13,9.99999e-01
4.310730950e-01,1.84426e-13,9.99999e-01,9.99999e-01,9.99999e-01,9.99994e-01,1.84427e-13,9.99999e-01
4.332284605e-01,3.29120e-13,9.99999e-01,9.99999e-01,9.99999e-01,9.99998e-01,3.29121e-13,9.99999e-01
4.353946028e-01,5.80655e-13,9.99999e-01,9.99999e-01,9.99999e-01,9.99998e-01,5.80656e-13,9.99999e-01
4.375715758e-01,1.01300e-12,9.99999e-01,9.99999e-01,9.99999e-01,9.99990e-01,1.01300e-12,9.99999e-01
4.397594337e-01,1.74781e-12,9.99999e-01,9.99999e-01,9.99999e-01,9.99917e-01,1.74796e-12,9.99999e-01
4.419582309e-01,2.98255e-12,9.99999e-01,9.99999e-01,9.99999e-01,9.99582e-01,2.98380e-12,9.99999e-01
4.441680220e-01,5.03824e-12,9.99999e-01,9.99999e-01,9.99999e-01,9.99670e-01,5.03989e-12,9.99999e-01
4.463888621e-01,8.42225e-12,9.99999e-01,9.99999e-01,9.99999e-01,9.99658e-01,8.42513e-12,9.99999e-01
4.486208064e-01,1.39390e-11,9.99999e-01,9.99999e-01,9.99999e-01,9.99786e-01,1.39420e-11,9.99999e-01
4.508639105e-01,2.28406e-11,9.99999e-01,9.99999e-01,9.99999e-01,9.99900e-01,2.28429e-11,9.99999e-01
4.531182300e-01,3.70616e-11,9.99999e-01,9.99999e-01,9.99999e-01,9.99960e-01,3.70631e-11,9.99999e-01
4.553838212e-01,5.95620e-11,9.99999e-01,9.99999e-01,9.99999e-01,9.99972e-01,5.95636e-11,9.99999e-01
4.576607403e-01,9.48298e-11,9.99999e-01,9.99999e-01,9.99999e-01,9.99987e-01,9.48310e-11,9.99999e-01
4.599490440e-01,1.49598e-10,9.99999e-01,9.99999e-01,9.99999e-01,9.99990e-01,1.49600e-10,9.99999e-01
4.622487892e-01,2.33883e-10,9.99999e-01,9.99999e-01,9.99999e-01,9.99998e-01,2.33884e-10,9.99999e-01
4.645600332e-01,3.62438e-10,9.99999e-01,9.99999e-01,9.99999e-01,9.99993e-01,3.62440e-10,9.99999e-01
4.668828333e-01,5.56764e-10,9.99999e-01,9.99999e-01,9.99999e-01,9.99899e-01,5.56819e-10,9.99999e-01
4.692172475e-01,8.48040e-10,9.99999e-01,9.99999e-01,9.99999e-01,9.99785e-01,8.48222e-10,9.99999e-01
4.715633337e-01,1.28125e-09,9.99999e-01,9.99999e-01,9.99999e-01,9.99859e-01,1.28143e-09,9.99999e-01
4.739211504e-01,1.91991e-09,9.99999e-01,9.99999e-01,9.99999e-01,9.99865e-01,1.92017e-09,9.99999e-01
4.762907561e-01,2.85420e-09,9.99999e-01,9.99999e-01,9.99999e-01,9.99929e-01,2.85440e-09,9.99999e-01
4.786722099e-01,4.20995e-09,9.99999e-01,9.99999e-01,9.99999e-01,9.99971e-01,4.21007e-09,9.99999e-01
4.810655710e-01,6.16207e-09,9.99999e-01,9.99999e-01,9.99999e-01,9.99990e-01,6.16212e-09,9.99999e-01
4.834708988e-01,8.95093e-09,9.99999e-01,9.99999e-01,9.99999e-01,9.99918e-01,8.95166e-09,9.99999e-01
4.858882533e-01,1.29065e-08,9.99999e-01,9.99999e-01,9.99999e-01,9.99847e-01,1.29084e-08,9.99999e-01
4.883176946e-01,1.84777e-08,9.99999e-01,9.99999e-01,9.99999e-01,9.99873e-01,1.84800e-08,9.99999e-01
4.907592831e-01,2.62667e-08,9.99999e-01,9.99999e-01,9.99999e-01,9.99884e-01,2.62697e-08,9.99999e-01
4.932130795e-01,3.70812e-08,9.99999e-01,9.99999e-01,9.99999e-01,9.99918e-01,3.70842e-08,9.99999e-01
4.956791449e-01,5.19933e-08,9.99999e-01,9.99999e-01,9.99999e-01,9.99956e-01,5.19956e-08,9.99999e-01
4.981575406e-01,7.24020e-08,9.99999e-01,9.99999e-01,9.99999e-01,9.99784e-01,7.24176e-08,9.99999e-01
5.006483283e-01,1.00147e-07,9.99999e-01,9.99999e-01,9.99999e-01,9.99444e-01,1.00203e-07,9.99995e-01
5.031515699e-01,1.37369e-07,9.99999e-01,9.99999e-01,9.99999e-01,9.97177e-01,1.37762e-07,9.99969e-01
5.056673278e-01,1.87925e-07,9.99999e-01,9.99999e-01,9.99999e-01,9.98506e-01,1.88213e-07,9.99965e-01
5.081956644e-01,2.55072e-07,9.99999e-01,9.99999e-01,9.99999e-01,9.98116e-01,2.55559e-07,9.99977e-01
5.107366428e-01,3.44473e-07,9.99999e-01,9.99999e-01,9.99999e-01,9.98726e-01,3.44913e-07,9.99995e-01
5.132903260e-01,4.62423e-07,9.99999e-01,9.99999e-01,9.99999e-01,9.99271e-01,4.62760e-07,9.99999e-01
5.158567776e-01,6.17088e-07,9.99999e-01,9.99999e-01,9.99999e-01,9.99691e-01,6.17278e-07,9.99999e-01
5.184360615e-01,8.18617e-07,9.99999e-01,9.99999e-01,9.99999e-01,9.99876e-01,8.18718e-07,9.99999e-01
5.210282418e-01,1.07980e-06,9.99999e-01,9.99999e-01,9.99999e-01,9.99953e-01,1.07985e-06,9.99999e-01
5.236333830e-01,1.41625e-06,9.99999e-01,9.99999e-01,9.99999e-01,9.99815e-01,1.41651e-06,9.99998e-01
5.262515499e-01,1.84798e-06,9.99999e-01,9.99999e-01,9.99999e-01,9.99884e-01,1.84820e-06,9.99997e-01
5.288828077e-01,2.39855e-06,9.99999e-01,9.99999e-01,9.99999e-01,9.99894e-01,2.39880e-06,9.99998e-01
5.315272217e-01,3.09716e-06,9.99999e-01,9.99999e-01,9.99999e-01,9.99906e-01,3.09744e-06,9.99999e-01
5.341848578e-01,3.97918e-06,9.99999e-01,9.99999e-01,9.99999e-01,9.99938e-01,3.97942e-06,9.99999e-01
5.368557821e-01,5.08620e-06,9.99999e-01,9.99999e-01,9.99999e-01,9.99785e-01,5.08729e-06,9.99999e-01
5.395400610e-01,6.46710e-06,9.99999e-01,9.99999e-01,9.99999e-01,9.99229e-01,6.47212e-06,9.99993e-01
5.422377613e-01,8.18650e-06,9.99999e-01,9.99999e-01,9.99999e-01,9.98997e-01,8.19486e-06,9.99981e-01
5.449489501e-01,1.03181e-05,9.99999e-01,9.99999e-01,9.99999e-01,9.99070e-01,1.03279e-05,9.99980e-01
5.476736949e-01,1.29460e-05,9.99999e-01,9.99999e-01,9.99999e-01,9.99173e-01,1.29568e-05,9.99990e-01
5.504120634e-01,1.61725e-05,9.99999e-01,9.99999e-01,9.99999e-01,9.99400e-01,1.61822e-05,9.99996e-01
5.531641237e-01,2.01159e-05,9.99999e-01,9.99999e-01,9.99999e-01,9.99697e-01,2.01220e-05,9.99999e-01
5.559299443e-01,2.49099e-05,9.99999e-01,9.99999e-01,9.99999e-01,9.99853e-01,2.49135e-05,9.99999e-01
5.587095940e-01,3.07134e-05,9.99999e-01,9.99999e-01,9.99999e-01,9.99908e-01,3.07162e-05,9.99999e-01
5.615031420e-01,3.77102e-05,9.99999e-01,9.99999e-01,9.99999e-01,9.99898e-01,3.77140e-05,9.99999e-01
5.643106577e-01,4.61134e-05,9.99999e-01,9.99999e-01,9.99999e-01,9.99885e-01,4.61187e-05,9.99998e-01
5.671322110e-01,5.60944e-05,9.99999e-01,9.99999e-01,9.99999e-01,9.98615e-01,5.61729e-05,9.99987e-01
5.699678720e-01,6.80485e-05,9.99999e-01,9.99999e-01,9.99999e-01,9.98506e-01,6.81529e-05,9.99961e-01
5.728177114e-01,8.22427e-05,9.99999e-01,9.99999e-01,9.99999e-01,9.98453e-01,8.23727e-05,9.99967e-01
5.756818000e-01,9.90445e-05,9.99999e-01,9.99999e-01,9.99999e-01,9.98578e-01,9.91874e-05,9.99980e-01
5.785602090e-01,1.18849e-04,9.99999e-01,9.99999e-01,9.99999e-01,9.98759e-01,1.18997e-04,9.99993e-01
5.814530100e-01,1.42073e-04,9.99999e-01,9.99999e-01,9.99999e-01,9.98755e-01,1.42251e-04,9.99996e-01
5.843602750e-01,1.69198e-04,9.99999e-01,9.99999e-01,9.99999e-01,9.98523e-01,1.69450e-04,9.99991e-01
5.872820764e-01,1.98590e-04,9.99999e-01,9.99999e-01,9.99999e-01,9.87344e-01,2.01153e-04,9.99909e-01
5.902184868e-01,2.34257e-04,9.99999e-01,9.99999e-01,9.99999e-01,9.84594e-01,2.37980e-04,9.99754e-01
5.931695792e-01,2.77499e-04,9.99999e-01,9.99999e-01,9.99999e-01,9.89121e-01,2.80617e-04,9.99764e-01
5.961354271e-01,3.25834e-04,9.99999e-01,9.99999e-01,9.99999e-01,9.88059e-01,3.29816e-04,9.99864e-01
5.991161043e-01,3.83018e-04,9.99999e-01,9.99999e-01,9.99999e-01,9.91270e-01,3.86407e-04,9.99957e-01
6.021116848e-01,4.49051e-04,9.99999e-01,9.99999e-01,9.99999e-01,9.95034e-01,4.51294e-04,9.99994e-01
6.051222432e-01,5.24141e-04,9.99999e-01,9.99999e-01,9.99999e-01,9.97484e-01,5.25463e-04,9.99999e-01
6.081478544e-01,6.09323e-04,9.99999e-01,9.99999e-01,9.99999e-01,9.98914e-01,6.09985e-04,9.99999e-01
6.111885937e-01,7.05696e-04,9.99999e-01,9.99999e-01,9.99999e-01,9.99539e-01,7.06020e-04,9.99999e-01
6.142445367e-01,8.14651e-04,9.99999e-01,9.99999e-01,9.99999e-01,9.99794e-01,8.14818e-04,9.99999e-01
6.173157594e-01,9.37618e-04,9.99999e-01,9.99999e-01,9.99999e-01,9.99886e-01,9.37724e-04,9.99999e-01
6.204023382e-01,1.07608e-03,9.99999e-01,9.99999e-01,9.99999e-01,9.99904e-01,1.07618e-03,9.99999e-01
6.235043498e-01,1.23120e-03,9.99999e-01,9.99999e-01,9.99999e-01,9.99582e-01,1.23172e-03,9.99998e-01
6.266218716e-01,1.40284e-03,9.99999e-01,9.99999e-01,9.99999e-01,9.97773e-01,1.40599e-03,9.99983e-01
6.297549810e-01,1.59936e-03,9.99999e-01,9.99999e-01,9.99999e-01,9.99183e-01,1.60072e-03,9.99968e-01
6.329037559e-01,1.81478e-03,9.99999e-01,9.99999e-01,9.99999e-01,9.98383e-01,1.81776e-03,9.99974e-01
6.360682746e-01,2.05620e-03,9.99999e-01,9.99999e-01,9.99999e-01,9.98626e-01,2.05906e-03,9.99984e-01
6.392486160e-01,2.32248e-03,9.99999e-01,9.99999e-01,9.99999e-01,9.98217e-01,2.32664e-03,9.99992e-01
6.424448591e-01,2.61642e-03,9.99999e-01,9.99999e-01,9.99999e-01,9.97626e-01,2.62267e-03,9.99989e-01
6.456570834e-01,2.91681e-03,9.99999e-01,9.99999e-01,9.99999e-01,9.89020e-01,2.94937e-03,9.99938e-01
6.488853688e-01,3.28177e-03,9.99999e-01,9.99999e-01,9.99999e-01,9.91911e-01,3.30909e-03,9.99827e-01
6.521297956e-01,3.67320e-03,9.99999e-01,9.99999e-01,9.99999e-01,9.91757e-01,3.70425e-03,9.99855e-01
6.553904446e-01,4.10318e-03,9.99999e-01,9.99999e-01,9.99999e-01,9.91841e-01,4.13738e-03,9.99891e-01
6.586673968e-01,4.57846e-03,9.99999e-01,9.99999e-01,9.99999e-01,9.92964e-01,4.61106e-03,9.99964e-01
6.619607338e-01,5.10705e-03,9.99999e-01,9.99999e-01,9.99999e-01,9.95926e-01,5.12798e-03,9.99991e-01
6.652705375e-01,5.67743e-03,9.99999e-01,9.99999e-01,9.99999e-01,9.97637e-01,5.69089e-03,9.99995e-01
6.685968902e-01,6.29570e-03,9.99999e-01,9.99999e-01,9.99999e-01,9.98901e-01,6.30262e-03,9.99998e-01
6.719398746e-01,6.96250e-03,9.99999e-01,9.99999e-01,9.99999e-01,9.99490e-01,6.96604e-03,9.99999e-01
6.752995740e-01,7.68198e-03,9.99999e-01,9.99999e-01,9.99999e-01,9.99724e-01,7.68409e-03,9.99999e-01
6.786760719e-01,8.45639e-03,9.99999e-01,9.99999e-01,9.99999e-01,9.99603e-01,8.45974e-03,9.99998e-01
6.820694522e-01,9.28968e-03,9.99999e-01,9.99999e-01,9.99999e-01,9.99320e-01,9.29602e-03,9.99995e-01
6.854797995e-01,1.01870e-02,9.99999e-01,9.99999e-01,9.99999e-01,9.99124e-01,1.01960e-02,9.99991e-01
6.889071985e-01,1.11390e-02,9.99999e-01,9.99999e-01,9.99999e-01,9.97897e-01,1.11626e-02,9.99980e-01
6.923517345e-01,1.17831e-02,9.99999e-01,9.99999e-01,9.99999e-01,9.66059e-01,1.21991e-02,9.99833e-01
6.958134932e-01,1.30647e-02,9.99999e-01,9.99999e-01,9.99999e-01,9.82048e-01,1.33085e-02,9.99624e-01
6.992925606e-01,1.42437e-02,9.99999e-01,9.99999e-01,9.99999e-01,9.83068e-01,1.44938e-02,9.99669e-01
7.027890234e-01,1.54240e-02,9.99999e-01,9.99999e-01,9.99999e-01,9.79050e-01,1.57580e-02,9.99746e-01
7.063029686e-01,1.68004e-02,9.99999e-01,9.99999e-01,9.99999e-01,9.82355e-01,1.71043e-02,9.99873e-01
7.098344834e-01,1.82203e-02,9.99999e-01,9.99999e-01,9.99999e-01,9.83060e-01,1.85356e-02,9.99925e-01
7.133836558e-01,1.96039e-02,9.99999e-01,9.99999e-01,9.99999e-01,9.77664e-01,2.00548e-02,9.99851e-01
7.169505741e-01,1.80790e-02,9.99999e-01,9.99999e-01,9.99999e-01,8.35462e-01,2.16647e-02,9.98835e-01
7.205353270e-01,2.13312e-02,9.99999e-01,9.99999e-01,9.99999e-01,9.14706e-01,2.33682e-02,9.97946e-01
7.241380036e-01,2.24464e-02,9.99999e-01,9.99999e-01,9.99999e-01,8.93443e-01,2.51681e-02,9.98226e-01
7.277586936e-01,2.44144e-02,9.99999e-01,9.99999e-01,9.99999e-01,9.03313e-01,2.70668e-02,9.98550e-01
7.313974871e-01,2.60506e-02,9.99999e-01,9.99999e-01,9.99999e-01,8.96834e-01,2.90670e-02,9.99320e-01
7.350544745e-01,2.93623e-02,9.99999e-01,9.99999e-01,9.99999e-01,9.42194e-01,3.11711e-02,9.99763e-01
7.387297469e-01,3.19438e-02,9.99999e-01,9.99999e-01,9.99999e-01,9.57039e-01,3.33814e-02,9.99891e-01
7.424233956e-01,3.49391e-02,9.99999e-01,9.99999e-01,9.99999e-01,9.78706e-01,3.57000e-02,9.99978e-01
7.461355126e-01,3.76352e-02,9.99999e-01,9.99999e-01,9.99999e-01,9.87049e-01,3.81291e-02,9.99995e-01
7.498661902e-01,4.04242e-02,9.99999e-01,9.99999e-01,9.99999e-01,9.93942e-01,4.06706e-02,9.99998e-01
7.536155211e-01,4.31974e-02,9.99999e-01,9.99999e-01,9.99999e-01,9.97028e-01,4.33262e-02,9.99998e-01
7.573835987e-01,4.60270e-02,9.99999e-01,9.99999e-01,9.99999e-01,9.98468e-01,4.60976e-02,9.99999e-01
7.611705167e-01,4.89396e-02,9.99999e-01,9.99999e-01,9.99999e-01,9.99048e-01,4.89862e-02,9.99999e-01
7.649763693e-01,5.19624e-02,9.99999e-01,9.99999e-01,9.99999e-01,9.99403e-01,5.19934e-02,9.99999e-01
7.688012511e-01,5.50974e-02,9.99999e-01,9.99999e-01,9.99999e-01,9.99584e-01,5.51203e-02,9.99999e-01
7.726452574e-01,5.83479e-02,9.99999e-01,9.99999e-01,9.99999e-01,9.99658e-01,5.83678e-02,9.99999e-01
7.765084837e-01,6.17070e-02,9.99999e-01,9.99999e-01,9.99999e-01,9.99516e-01,6.17369e-02,9.99998e-01
7.803910261e-01,5.87598e-02,9.99999e-01,9.99999e-01,9.02551e-01,9.97915e-01,6.52280e-02,9.99997e-01
7.842929812e-01,4.02802e-02,9.99999e-01,9.99999e-01,5.88802e-01,9.92744e-01,6.88418e-02,9.99986e-01
7.882144461e-01,4.10934e-02,9.99999e-01,9.99999e-01,5.73851e-01,9.85041e-01,7.25784e-02,9.99907e-01
7.921555184e-01,5.36613e-02,9.99999e-01,9.99999e-01,7.07539e-01,9.91753e-01,7.64380e-02,9.99821e-01
7.961162960e-01,6.26305e-02,9.99999e-01,9.99999e-01,7.89962e-01,9.85549e-01,8.04205e-02,9.99828e-01
8.000968774e-01,7.31262e-02,9.99999e-01,9.99999e-01,8.79866e-01,9.83263e-01,8.45256e-02,9.99817e-01
8.040973618e-01,8.16445e-02,9.99999e-01,9.99999e-01,9.35575e-01,9.83275e-01,8.87530e-02,9.99855e-01
8.081178486e-01,8.69553e-02,9.99999e-01,9.99999e-01,9.69914e-01,9.62891e-01,9.31020e-02,9.99864e-01
8.121584379e-01,8.26184e-02,9.99999e-01,9.99999e-01,9.90573e-01,8.54965e-01,9.75719e-02,9.99468e-01
8.162192301e-01,8.44470e-02,9.99999e-01,9.99999e-01,9.97910e-01,8.29875e-01,1.02162e-01,9.98002e-01
8.203003262e-01,9.74045e-02,9.99999e-01,9.99999e-01,9.99966e-01,9.13583e-01,1.06870e-01,9.97661e-01
8.244018279e-01,9.82410e-02,9.99999e-01,9.99999e-01,9.99999e-01,8.81174e-01,1.11696e-01,9.98138e-01
8.285238370e-01,1.04177e-01,9.99999e-01,9.99999e-01,9.99999e-01,8.94464e-01,1.16639e-01,9.98537e-01
8.326664562e-01,1.08652e-01,9.99999e-01,9.99999e-01,9.99999e-01,8.93359e-01,1.21696e-01,9.99394e-01
8.368297885e-01,1.16971e-01,9.99999e-01,9.99999e-01,9.99999e-01,9.22136e-01,1.26865e-01,9.99861e-01
8.410139374e-01,1.25913e-01,9.99999e-01,9.99999e-01,9.99999e-01,9.52908e-01,1.32146e-01,9.99918e-01
8.452190071e-01,1.34310e-01,9.99999e-01,9.99999e-01,9.99999e-01,9.76591e-01,1.37536e-01,9.99951e-01
8.494451021e-01,1.41078e-01,9.99999e-01,9.99999e-01,9.99999e-01,9.86371e-01,1.43032e-01,9.99960e-01
8.536923276e-01,1.47427e-01,9.99999e-01,9.99999e-01,9.99999e-01,9.91906e-01,1.48633e-01,9.99973e-01
8.579607893e-01,1.53567e-01,9.99999e-01,9.99999e-01,9.99999e-01,9.95016e-01,1.54337e-01,9.99992e-01
8.622505932e-01,1.59632e-01,9.99999e-01,9.99999e-01,9.99999e-01,9.96827e-01,1.60140e-01,9.99998e-01
8.665618462e-01,1.42666e-01,9.99999e-01,9.99999e-01,8.60801e-01,9.98040e-01,1.66040e-01,9.99998e-01
8.708946554e-01,4.73043e-02,9.99999e-01,9.99999e-01,2.75528e-01,9.97758e-01,1.72034e-01,9.99998e-01
8.752491287e-01,5.99273e-02,9.99999e-01,9.99999e-01,3.37375e-01,9.97001e-01,1.78120e-01,9.99996e-01
8.796253743e-01,9.92911e-02,9.99999e-01,9.99999e-01,5.40800e-01,9.95855e-01,1.84295e-01,9.99990e-01
8.840235012e-01,1.36897e-01,9.99999e-01,9.99999e-01,7.21665e-01,9.95265e-01,1.90556e-01,9.99970e-01
8.884436187e-01,1.70060e-01,9.99999e-01,9.99999e-01,8.78144e-01,9.83041e-01,1.96899e-01,9.99917e-01
8.928858368e-01,1.61414e-01,9.99999e-01,9.99999e-01,9.48609e-01,8.35898e-01,2.03321e-01,9.99525e-01
8.973502660e-01,1.50655e-01,9.99999e-01,9.99999e-01,9.87224e-01,7.28411e-01,2.09821e-01,9.97570e-01
9.018370173e-01,1.83046e-01,9.99999e-01,9.99999e-01,9.98582e-01,8.50214e-01,2.16393e-01,9.96183e-01
9.063462024e-01,1.86887e-01,9.99999e-01,9.99999e-01,9.65612e-01,8.67323e-01,2.23036e-01,9.96646e-01
9.108779334e-01,1.69302e-01,9.99999e-01,9.99999e-01,9.20395e-01,8.00672e-01,2.29745e-01,9.96515e-01
9.154323231e-01,1.79684e-01,9.99999e-01,9.99999e-01,9.80615e-01,7.75841e-01,2.36517e-01,9.97118e-01
9.200094847e-01,1.61906e-01,9.99999e-01,9.99999e-01,7.89242e-01,8.20153e-01,2.43349e-01,9.98386e-01
9.246095321e-01,1.26554e-01,9.99999e-01,9.99999e-01,6.68600e-01,7.43728e-01,2.50238e-01,9.98140e-01
9.292325798e-01,3.20691e-02,9.99999e-01,9.99999e-01,7.35552e-01,1.59031e-01,2.57180e-01,9.92770e-01
9.338787427e-01,1.83052e-02,9.99999e-01,9.99999e-01,7.38933e-01,9.03914e-02,2.64172e-01,9.70450e-01
9.385481364e-01,8.11394e-02,9.99999e-01,9.99999e-01,7.98804e-01,3.75201e-01,2.71210e-01,9.64954e-01
9.432408771e-01,6.53242e-02,9.99999e-01,9.99999e-01,8.70465e-01,2.72766e-01,2.78291e-01,9.69691e-01
9.479570815e-01,4.28171e-02,9.99999e-01,9.99999e-01,9.31294e-01,1.63581e-01,2.85412e-01,9.75262e-01
9.526968669e-01,6.85378e-02,9.99999e-01,9.99999e-01,9.66272e-01,2.44440e-01,2.92569e-01,9.84837e-01
9.574603512e-01,7.64588e-02,9.99999e-01,9.99999e-01,9.85413e-01,2.60116e-01,2.99758e-01,9.92269e-01
9.622476530e-01,9.93156e-02,9.99999e-01,9.99999e-01,9.95424e-01,3.26484e-01,3.06977e-01,9.94647e-01
9.670588912e-01,1.62880e-01,9.99999e-01,9.99999e-01,9.98625e-01,5.20863e-01,3.14222e-01,9.96336e-01
9.718941857e-01,2.10584e-01,9.99999e-01,9.99999e-01,9.99901e-01,6.56844e-01,3.21490e-01,9.97301e-01
9.767536566e-01,2.31316e-01,9.99999e-01,9.99999e-01,9.99999e-01,7.05015e-01,3.28778e-01,9.97937e-01
9.816374249e-01,2.58717e-01,9.99999e-01,9.99999e-01,9.99999e-01,7.70353e-01,3.36082e-01,9.99285e-01
9.865456120e-01,2.91517e-01,9.99999e-01,9.99999e-01,9.99999e-01,8.49043e-01,3.43399e-01,9.99850e-01
9.914783401e-01,3.16895e-01,9.99999e-01,9.99999e-01,9.99999e-01,9.03576e-01,3.50726e-01,9.99958e-01
9.964357318e-01,3.38809e-01,9.99999e-01,9.99999e-01,9.99999e-01,9.46258e-01,3.58060e-01,9.99975e-01
1.001417910e+00,3.53477e-01,9.99999e-01,9.99999e-01,9.99999e-01,9.67411e-01,3.65398e-01,9.99962e-01
1.006425000e+00,3.65749e-01,9.99999e-01,9.99999e-01,9.99999e-01,9.81303e-01,3.72737e-01,9.99947e-01
1.011457125e+00,3.75625e-01,9.99999e-01,9.99999e-01,9.99999e-01,9.88342e-01,3.80074e-01,9.99950e-01
1.016514411e+00,3.84324e-01,9.99999e-01,9.99999e-01,9.99999e-01,9.92076e-01,3.87407e-01,9.99965e-01
1.021596983e+00,3.92155e-01,9.99999e-01,9.99999e-01,9.99819e-01,9.93683e-01,3.94732e-01,9.99964e-01
1.026704968e+00,3.94562e-01,9.99999e-01,9.99999e-01,9.86244e-01,9.95071e-01,4.02046e-01,9.99976e-01
1.031838492e+00,3.65476e-01,9.99999e-01,9.99999e-01,8.95859e-01,9.96412e-01,4.09348e-01,9.99993e-01
1.036997685e+00,1.73580e-02,9.99999e-01,9.99999e-01,4.17292e-02,9.97870e-01,4.16634e-01,9.99998e-01
1.042182673e+00,6.41949e-04,9.99999e-01,9.99999e-01,1.51724e-03,9.97465e-01,4.23902e-01,9.99999e-01
1.047393587e+00,1.84812e-03,9.99999e-01,9.99999e-01,4.29836e-03,9.96636e-01,4.31150e-01,9.99998e-01
1.052630555e+00,5.30288e-08,9.99999e-01,9.99999e-01,1.21315e-07,9.95390e-01,4.38374e-01,9.99998e-01
1.057893707e+00,1.97658e-07,9.99999e-01,9.99999e-01,4.45300e-07,9.92321e-01,4.45573e-01,9.99996e-01
1.063183176e+00,9.73114e-06,9.99999e-01,9.99999e-01,2.16458e-05,9.87391e-01,4.52745e-01,9.99992e-01
1.068499092e+00,1.27867e-04,9.99999e-01,9.99999e-01,2.81743e-04,9.78966e-01,4.59888e-01,9.99985e-01
1.073841587e+00,2.27999e-03,9.99999e-01,9.99999e-01,4.96690e-03,9.75479e-01,4.66998e-01,9.99968e-01
