#,Wave/freq,Total,N2,O2,CO2,H2O,Rayleigh,CIA
4.000000000e-01,2.28847e-17,9.99999e-01,9.99999e-01,9.99999e-01,9.99925e-01,2.28864e-17,9.99999e-01
4.020000000e-01,4.88195e-17,9.99999e-01,9.99999e-01,9.99999e-01,9.99953e-01,4.88217e-17,9.99999e-01
4.040100000e-01,1.02517e-16,9.99999e-01,9.99999e-01,9.99999e-01,9.99980e-01,1.02519e-16,9.99999e-01
4.060300500e-01,2.12143e-16,9.99999e-01,9.99999e-01,9.99999e-01,9.99994e-01,2.12144e-16,9.99999e-01
4.080602003e-01,4.32730e-16,9.99999e-01,9.99999e-01,9.99999e-01,9.99998e-01,4.32731e-16,9.99999e-01
4.101005013e-01,8.70343e-16,9.99999e-01,9.99999e-01,9.99999e-01,9.99999e-01,8.70343e-16,9.99999e-01
4.121510038e-01,1.72650e-15,9.99999e-01,9.99999e-01,9.99999e-01,9.99996e-01,1.72651e-15,9.99999e-01
4.142117588e-01,3.37880e-15,9.99999e-01,9.99999e-01,9.99999e-01,9.99979e-01,3.37887e-15,9.99999e-01
4.162828176e-01,6.52491e-15,9.99999e-01,9.99999e-01,9.99999e-01,9.99908e-01,6.52550e-15,9.99999e-01
4.183642317e-01,1.24390e-14,9.99999e-01,9.99999e-01,9.99999e-01,9.99945e-01,1.24397e-14,9.99999e-01
4.204560528e-01,2.34130e-14,9.99999e-01,9.99999e-01,9.99999e-01,9.99966e-01,2.34138e-14,9.99999e-01
4.225583331e-01,4.35215e-14,9.99999e-01,9.99999e-01,9.99999e-01,9.99986e-01,4.35220e-14,9.99999e-01
4.246711247e-01,7.99141e-14,9.99999e-01,9.99999e-01,9.99999e-01,9.99989e-01,7.99149e-14,9.99999e-01
4.267944804e-01,1.44986e-13,9.99999e-01,9.99999e-01,9.99999e-01,9.99984e-01,1.44988e-13,9.99999e-01
4.289284528e-01,2.59970e-13,9.99999e-01,9.99999e-01,9.99999e-01,9.99988e-01,2.59973e-13,9.99999e-01
4.310730950e-01,4.60801e-13,9.99999e-01,9.99999e-01,9.99999e-01,9.99994e-01,4.60803e-13,9.99999e-01
4.332284605e-01,8.07590e-13,9.99999e-01,9.99999e-01,9.99999e-01,9.99998e-01,8.07591e-13,9.99999e-01
4.353946028e-01,1.39976e-12,9.99999e-01,9.99999e-01,9.99999e-01,9.99998e-01,1.39976e-12,9.99999e-01
4.375715758e-01,2.39991e-12,9.99999e-01,9.99999e-01,9.99999e-01,9.99990e-01,2.39993e-12,9.99999e-01
4.397594337e-01,4.07084e-12,9.99999e-01,9.99999e-01,9.99999e-01,9.99920e-01,4.07117e-12,9.99999e-01
4.419582309e-01,6.83174e-12,9.99999e-01,9.99999e-01,9.99999e-01,9.99598e-01,6.83447e-12,9.99999e-01
4.441680220e-01,1.13529e-11,9.99999e-01,9.99999e-01,9.99999e-01,9.99679e-01,1.13566e-11,9.99999e-01
4.463888621e-01,1.86762e-11,9.99999e-01,9.99999e-01,9.99999e-01,9.99668e-01,1.86824e-11,9.99999e-01
4.486208064e-01,3.04270e-11,9.99999e-01,9.99999e-01,9.99999e-01,9.99792e-01,3.04333e-11,9.99999e-01
4.508639105e-01,4.90950e-11,9.99999e-01,9.99999e-01,9.99999e-01,9.99902e-01,4.90997e-11,9.99999e-01
4.531182300e-01,7.84674e-11,9.99999e-01,9.99999e-01,9.99999e-01,9.99961e-01,7.84704e-11,9.99999e-01
4.553838212e-01,1.24251e-10,9.99999e-01,9.99999e-01,9.99999e-01,9.99973e-01,1.24254e-10,9.99999e-01
4.576607403e-01,1.94970e-10,9.99999e-01,9.99999e-01,9.99999e-01,9.99987e-01,1.94972e-10,9.99999e-01
4.599490440e-01,3.03225e-10,9.99999e-01,9.99999e-01,9.99999e-01,9.99991e-01,3.03228e-10,9.99999e-01
4.622487892e-01,4.67495e-10,9.99999e-01,9.99999e-01,9.99999e-01,9.99998e-01,4.67496e-10,9.99999e-01
4.645600332e-01,7.14612e-10,9.99999e-01,9.99999e-01,9.99999e-01,9.99993e-01,7.14616e-10,9.99999e-01
4.668828333e-01,1.08314e-09,9.99999e-01,9.99999e-01,9.99999e-01,9.99903e-01,1.08325e-09,9.99999e-01
4.692172475e-01,1.62826e-09,9.99999e-01,9.99999e-01,9.99999e-01,9.99791e-01,1.62860e-09,9.99999e-01
4.715633337e-01,2.42853e-09,9.99999e-01,9.99999e-01,9.99999e-01,9.99864e-01,2.42886e-09,9.99999e-01
4.739211504e-01,3.59340e-09,9.99999e-01,9.99999e-01,9.99999e-01,9.99869e-01,3.59387e-09,9.99999e-01
4.762907561e-01,5.27632e-09,9.99999e-01,9.99999e-01,9.99999e-01,9.99931e-01,5.27668e-09,9.99999e-01
4.786722099e-01,7.68869e-09,9.99999e-01,9.99999e-01,9.99999e-01,9.99971e-01,7.68891e-09,9.99999e-01
4.810655710e-01,1.11208e-08,9.99999e-01,9.99999e-01,9.99999e-01,9.99991e-01,1.11209e-08,9.99999e-01
4.834708988e-01,1.59666e-08,9.99999e-01,9.99999e-01,9.99999e-01,9.99921e-01,1.59679e-08,9.99999e-01
4.858882533e-01,2.27609e-08,9.99999e-01,9.99999e-01,9.99999e-01,9.99852e-01,2.27642e-08,9.99999e-01
4.883176946e-01,3.22227e-08,9.99999e-01,9.99999e-01,9.99999e-01,9.99877e-01,3.22267e-08,9.99999e-01
4.907592831e-01,4.53053e-08,9.99999e-01,9.99999e-01,9.99999e-01,9.99888e-01,4.53103e-08,9.99999e-01
4.932130795e-01,6.32734e-08,9.99999e-01,9.99999e-01,9.99999e-01,9.99920e-01,6.32784e-08,9.99999e-01
4.956791449e-01,8.77870e-08,9.99999e-01,9.99999e-01,9.99999e-01,9.99957e-01,8.77907e-08,9.99999e-01
4.981575406e-01,1.20988e-07,9.99999e-01,9.99999e-01,9.99999e-01,9.99791e-01,1.21013e-07,9.99999e-01
5.006483283e-01,1.65665e-07,9.99999e-01,9.99999e-01,9.99999e-01,9.99464e-01,1.65754e-07,9.99995e-01
5.031515699e-01,2.25007e-07,9.99999e-01,9.99999e-01,9.99999e-01,9.97268e-01,2.25630e-07,9.99970e-01
5.056673278e-01,3.04818e-07,9.99999e-01,9.99999e-01,9.99999e-01,9.98552e-01,3.05269e-07,9.99966e-01
5.081956644e-01,4.09802e-07,9.99999e-01,9.99999e-01,9.99999e-01,9.98173e-01,4.10560e-07,9.99978e-01
5.107366428e-01,5.48265e-07,9.99999e-01,9.99999e-01,9.99999e-01,9.98765e-01,5.48945e-07,9.99995e-01
5.132903260e-01,7.29258e-07,9.99999e-01,9.99999e-01,9.99999e-01,9.99292e-01,7.29774e-07,9.99999e-01
5.158567776e-01,9.64441e-07,9.99999e-01,9.99999e-01,9.99999e-01,9.99700e-01,9.64729e-07,9.99999e-01
5.184360615e-01,1.26817e-06,9.99999e-01,9.99999e-01,9.99999e-01,9.99880e-01,1.26832e-06,9.99999e-01
5.210282418e-01,1.65838e-06,9.99999e-01,9.99999e-01,9.99999e-01,9.99955e-01,1.65846e-06,9.99999e-01
5.236333830e-01,2.15676e-06,9.99999e-01,9.99999e-01,9.99999e-01,9.99821e-01,2.15715e-06,9.99998e-01
5.262515499e-01,2.79094e-06,9.99999e-01,9.99999e-01,9.99999e-01,9.99887e-01,2.79125e-06,9.99997e-01
5.288828077e-01,3.59305e-06,9.99999e-01,9.99999e-01,9.99999e-01,9.99897e-01,3.59342e-06,9.99998e-01
5.315272217e-01,4.60269e-06,9.99999e-01,9.99999e-01,9.99999e-01,9.99909e-01,4.60310e-06,9.99999e-01
5.341848578e-01,5.86737e-06,9.99999e-01,9.99999e-01,9.99999e-01,9.99940e-01,5.86771e-06,9.99999e-01
5.368557821e-01,7.44242e-06,9.99999e-01,9.99999e-01,9.99999e-01,9.99792e-01,7.44397e-06,9.99999e-01
5.395400610e-01,9.39234e-06,9.99999e-01,9.99999e-01,9.99999e-01,9.99257e-01,9.39937e-06,9.99993e-01
5.422377613e-01,1.18022e-05,9.99999e-01,9.99999e-01,9.99999e-01,9.99027e-01,1.18139e-05,9.99981e-01
5.449489501e-01,1.47682e-05,9.99999e-01,9.99999e-01,9.99999e-01,9.99101e-01,1.47817e-05,9.99981e-01
5.476736949e-01,1.83985e-05,9.99999e-01,9.99999e-01,9.99999e-01,9.99197e-01,1.84134e-05,9.99990e-01
5.504120634e-01,2.28248e-05,9.99999e-01,9.99999e-01,9.99999e-01,9.99417e-01,2.28381e-05,9.99997e-01
5.531641237e-01,2.81975e-05,9.99999e-01,9.99999e-01,9.99999e-01,9.99706e-01,2.82058e-05,9.99999e-01
5.559299443e-01,3.46852e-05,9.99999e-01,9.99999e-01,9.99999e-01,9.99858e-01,3.46901e-05,9.99999e-01
5.587095940e-01,4.24873e-05,9.99999e-01,9.99999e-01,9.99999e-01,9.99911e-01,4.24910e-05,9.99999e-01
5.615031420e-01,5.18330e-05,9.99999e-01,9.99999e-01,9.99999e-01,9.99901e-01,5.18381e-05,9.99999e-01
5.643106577e-01,6.29865e-05,9.99999e-01,9.99999e-01,9.99999e-01,9.99889e-01,6.29935e-05,9.99998e-01
5.671322110e-01,7.61532e-05,9.99999e-01,9.99999e-01,9.99999e-01,9.98672e-01,7.62553e-05,9.99988e-01
5.699678720e-01,9.18244e-05,9.99999e-01,9.99999e-01,9.99999e-01,9.98546e-01,9.19613e-05,9.99962e-01
5.728177114e-01,1.10324e-04,9.99999e-01,9.99999e-01,9.99999e-01,9.98503e-01,1.10493e-04,9.99968e-01
5.756818000e-01,1.32094e-04,9.99999e-01,9.99999e-01,9.99999e-01,9.98623e-01,1.32278e-04,9.99980e-01
5.785602090e-01,1.57606e-04,9.99999e-01,9.99999e-01,9.99999e-01,9.98797e-01,1.57797e-04,9.99993e-01
5.814530100e-01,1.87357e-04,9.99999e-01,9.99999e-01,9.99999e-01,9.98794e-01,1.87584e-04,9.99996e-01
5.843602750e-01,2.21915e-04,9.99999e-01,9.99999e-01,9.99999e-01,9.98575e-01,2.22233e-04,9.99991e-01
5.872820764e-01,2.59174e-04,9.99999e-01,9.99999e-01,9.99999e-01,9.87780e-01,2.62403e-04,9.99912e-01
5.902184868e-01,3.04131e-04,9.99999e-01,9.99999e-01,9.99999e-01,9.85055e-01,3.08818e-04,9.99762e-01
5.931695792e-01,3.58376e-04,9.99999e-01,9.99999e-01,9.99999e-01,9.89463e-01,3.62276e-04,9.99768e-01
5.961354271e-01,4.18687e-04,9.99999e-01,9.99999e-01,9.99999e-01,9.88422e-01,4.23650e-04,9.99860e-01
5.991161043e-01,4.89690e-04,9.99999e-01,9.99999e-01,9.99999e-01,9.91532e-01,4.93892e-04,9.99958e-01
6.021116848e-01,5.71270e-04,9.99999e-01,9.99999e-01,9.99999e-01,9.95180e-01,5.74039e-04,9.99994e-01
6.051222432e-01,6.63588e-04,9.99999e-01,9.99999e-01,9.99999e-01,9.97557e-01,6.65212e-04,9.99999e-01
6.081478544e-01,7.67816e-04,9.99999e-01,9.99999e-01,9.99999e-01,9.98947e-01,7.68625e-04,9.99999e-01
6.111885937e-01,8.85188e-04,9.99999e-01,9.99999e-01,9.99999e-01,9.99553e-01,8.85583e-04,9.99999e-01
6.142445367e-01,1.01728e-03,9.99999e-01,9.99999e-01,9.99999e-01,9.99800e-01,1.01749e-03,9.99999e-01
6.173157594e-01,1.16571e-03,9.99999e-01,9.99999e-01,9.99999e-01,9.99889e-01,1.16584e-03,9.99999e-01
6.204023382e-01,1.33211e-03,9.99999e-01,9.99999e-01,9.99999e-01,9.99907e-01,1.33223e-03,9.99999e-01
6.235043498e-01,1.51775e-03,9.99999e-01,9.99999e-01,9.99999e-01,9.99599e-01,1.51836e-03,9.99998e-01
6.266218716e-01,1.72229e-03,9.99999e-01,9.99999e-01,9.99999e-01,9.97843e-01,1.72604e-03,9.99984e-01
6.297549810e-01,1.95555e-03,9.99999e-01,9.99999e-01,9.99999e-01,9.99208e-01,1.95716e-03,9.99969e-01
6.329037559e-01,2.21020e-03,9.99999e-01,9.99999e-01,9.99999e-01,9.98431e-01,2.21372e-03,9.99975e-01
6.360682746e-01,2.49448e-03,9.99999e-01,9.99999e-01,9.99999e-01,9.98670e-01,2.49783e-03,9.99985e-01
6.392486160e-01,2.80682e-03,9.99999e-01,9.99999e-01,9.99999e-01,9.98273e-01,2.81169e-03,9.99993e-01
6.424448591e-01,3.15103e-03,9.99999e-01,9.99999e-01,9.99999e-01,9.97931e-01,3.15760e-03,9.99989e-01
6.456570834e-01,3.50053e-03,9.99999e-01,9.99999e-01,9.99999e-01,9.89482e-01,3.53794e-03,9.99940e-01
6.488853688e-01,3.91814e-03,9.99999e-01,9.99999e-01,9.99999e-01,9.90794e-01,3.95520e-03,9.99833e-01
6.521297956e-01,4.37608e-03,9.99999e-01,9.99999e-01,9.99999e-01,9.92007e-01,4.41195e-03,9.99860e-01
6.553904446e-01,4.87153e-03,9.99999e-01,9.99999e-01,9.99999e-01,9.92100e-01,4.91083e-03,9.99894e-01
6.586673968e-01,5.41713e-03,9.99999e-01,9.99999e-01,9.99999e-01,9.93170e-01,5.45457e-03,9.99965e-01
6.619607338e-01,6.02202e-03,9.99999e-01,9.99999e-01,9.99999e-01,9.96047e-01,6.04596e-03,9.99992e-01
6.652705375e-01,6.67247e-03,9.99999e-01,9.99999e-01,9.99999e-01,9.97703e-01,6.68785e-03,9.99995e-01
6.685968902e-01,7.37529e-03,9.99999e-01,9.99999e-01,9.99999e-01,9.98933e-01,7.38317e-03,9.99998e-01
6.719398746e-01,8.13084e-03,9.99999e-01,9.99999e-01,9.99999e-01,9.99504e-01,8.13486e-03,9.99999e-01
6.752995740e-01,8.94355e-03,9.99999e-01,9.99999e-01,9.99999e-01,9.99732e-01,8.94594e-03,9.99999e-01
6.786760719e-01,9.81567e-03,9.99999e-01,9.99999e-01,9.99999e-01,9.99616e-01,9.81943e-03,9.99998e-01
6.820694522e-01,1.07513e-02,9.99999e-01,9.99999e-01,9.99999e-01,9.99342e-01,1.07584e-02,9.99996e-01
6.854797995e-01,1.17559e-02,9.99999e-01,9.99999e-01,9.99999e-01,9.99152e-01,1.17659e-02,9.99992e-01
6.889071985e-01,1.28189e-02,9.99999e-01,9.99999e-01,9.99999e-01,9.97981e-01,1.28450e-02,9.99981e-01
6.923517345e-01,1.35376e-02,9.99999e-01,9.99999e-01,9.99999e-01,9.67203e-01,1.39989e-02,9.99838e-01
6.958134932e-01,1.49582e-02,9.99999e-01,9.99999e-01,9.99999e-01,9.82482e-01,1.52304e-02,9.99636e-01
6.992925606e-01,1.62670e-02,9.99999e-01,9.99999e-01,9.99999e-01,9.83641e-01,1.65428e-02,9.99680e-01
7.027890234e-01,1.75700e-02,9.99999e-01,9.99999e-01,9.99999e-01,9.79679e-01,1.79389e-02,9.99754e-01
7.063029686e-01,1.90871e-02,9.99999e-01,9.99999e-01,9.99999e-01,9.82895e-01,1.94217e-02,9.99877e-01
7.098344834e-01,2.06479e-02,9.99999e-01,9.99999e-01,9.99999e-01,9.83579e-01,2.09941e-02,9.99927e-01
7.133836558e-01,2.21684e-02,9.99999e-01,9.99999e-01,9.99999e-01,9.78491e-01,2.26590e-02,9.99856e-01
7.169505741e-01,2.05013e-02,9.99999e-01,9.99999e-01,9.99999e-01,8.40509e-01,2.44190e-02,9.98872e-01
7.205353270e-01,2.40404e-02,9.99999e-01,9.99999e-01,9.99999e-01,9.16709e-01,2.62769e-02,9.98011e-01
7.241380036e-01,2.52743e-02,9.99999e-01,9.99999e-01,9.99999e-01,8.96684e-01,2.82352e-02,9.98269e-01
7.277586936e-01,2.74159e-02,9.99999e-01,9.99999e-01,9.99999e-01,9.06223e-01,3.02965e-02,9.98562e-01
7.313974871e-01,2.91859e-02,9.99999e-01,9.99999e-01,9.99999e-01,8.99642e-01,3.24630e-02,9.99341e-01
7.350544745e-01,3.27796e-02,9.99999e-01,9.99999e-01,9.99999e-01,9.43867e-01,3.47370e-02,9.99770e-01
7.387297469e-01,3.55682e-02,9.99999e-01,9.99999e-01,9.99999e-01,9.58279e-01,3.71206e-02,9.99894e-01
7.424233956e-01,3.87951e-02,9.99999e-01,9.99999e-01,9.99999e-01,9.79302e-01,3.96158e-02,9.99979e-01
7.461355126e-01,4.16934e-02,9.99999e-01,9.99999e-01,9.99999e-01,9.87426e-01,4.22245e-02,9.99995e-01
7.498661902e-01,4.46836e-02,9.99999e-01,9.99999e-01,9.99999e-01,9.94111e-01,4.49483e-02,9.99998e-01
7.536155211e-01,4.76509e-02,9.99999e-01,9.99999e-01,9.99999e-01,9.97116e-01,4.77887e-02,9.99998e-01
7.573835987e-01,5.06717e-02,9.99999e-01,9.99999e-01,9.99999e-01,9.98513e-01,5.07472e-02,9.99999e-01
7.611705167e-01,5.37752e-02,9.99999e-01,9.99999e-01,9.99999e-01,9.99076e-01,5.38249e-02,9.99999e-01
7.649763693e-01,5.69900e-02,9.99999e-01,9.99999e-01,9.99999e-01,9.99421e-01,5.70229e-02,9.99999e-01
7.688012511e-01,6.03178e-02,9.99999e-01,9.99999e-01,9.99999e-01,9.99597e-01,6.03421e-02,9.99999e-01
7.726452574e-01,6.37621e-02,9.99999e-01,9.99999e-01,9.99999e-01,9.99669e-01,6.37832e-02,9.99999e-01
7.765084837e-01,6.73153e-02,9.99999e-01,9.99999e-01,9.99999e-01,9.99533e-01,6.73467e-02,9.99998e-01
7.803910261e-01,6.42772e-02,9.99999e-01,9.99999e-01,9.06559e-01,9.97989e-01,7.10329e-02,9.99997e-01
7.842929812e-01,4.44175e-02,9.99999e-01,9.99999e-01,5.97101e-01,9.93000e-01,7.48422e-02,9.99986e-01
7.882144461e-01,4.53386e-02,9.99999e-01,9.99999e-01,5.83111e-01,9.85503e-01,7.87743e-02,9.99910e-01
7.921555184e-01,5.87923e-02,9.99999e-01,9.99999e-01,7.15230e-01,9.91988e-01,8.28293e-02,9.99827e-01
7.961162960e-01,6.82497e-02,9.99999e-01,9.99999e-01,7.95292e-01,9.86038e-01,8.70066e-02,9.99834e-01
8.000968774e-01,7.93290e-02,9.99999e-01,9.99999e-01,8.83156e-01,9.83784e-01,9.13059e-02,9.99823e-01
8.040973618e-01,8.82661e-02,9.99999e-01,9.99999e-01,9.37267e-01,9.83807e-01,9.57264e-02,9.99859e-01
8.081178486e-01,9.38559e-02,9.99999e-01,9.99999e-01,9.70785e-01,9.64176e-01,1.00267e-01,9.99868e-01
8.121584379e-01,8.93396e-02,9.99999e-01,9.99999e-01,9.90809e-01,8.59504e-01,1.04927e-01,9.99484e-01
8.162192301e-01,9.11767e-02,9.99999e-01,9.99999e-01,9.97961e-01,8.34307e-01,1.09705e-01,9.98065e-01
8.203003262e-01,1.04797e-01,9.99999e-01,9.99999e-01,9.99965e-01,9.16548e-01,1.14600e-01,9.97735e-01
8.244018279e-01,1.05527e-01,9.99999e-01,9.99999e-01,9.99999e-01,8.83848e-01,1.19611e-01,9.98197e-01
8.285238370e-01,1.11812e-01,9.99999e-01,9.99999e-01,9.99999e-01,8.97670e-01,1.24734e-01,9.98583e-01
8.326664562e-01,1.16435e-01,9.99999e-01,9.99999e-01,9.99999e-01,8.96384e-01,1.29970e-01,9.99413e-01
8.368297885e-01,1.25060e-01,9.99999e-01,9.99999e-01,9.99999e-01,9.24339e-01,1.35315e-01,9.99865e-01
8.410139374e-01,1.34318e-01,9.99999e-01,9.99999e-01,9.99999e-01,9.54255e-01,1.40768e-01,9.99921e-01
8.452190071e-01,1.42992e-01,9.99999e-01,9.99999e-01,9.99999e-01,9.77259e-01,1.46327e-01,9.99952e-01
8.494451021e-01,1.49974e-01,9.99999e-01,9.99999e-01,9.99999e-01,9.86786e-01,1.51988e-01,9.99962e-01
8.536923276e-01,1.56507e-01,9.99999e-01,9.99999e-01,9.99999e-01,9.92139e-01,1.57751e-01,9.99974e-01
8.579607893e-01,1.62820e-01,9.99999e-01,9.99999e-01,9.99999e-01,9.95167e-01,1.63611e-01,9.99992e-01
8.622505932e-01,1.69045e-01,9.99999e-01,9.99999e-01,9.99999e-01,9.96920e-01,1.69568e-01,9.99998e-01
8.665618462e-01,1.51618e-01,9.99999e-01,9.99999e-01,8.64881e-01,9.98101e-01,1.75616e-01,9.99998e-01
8.708946554e-01,5.18217e-02,9.99999e-01,9.99999e-01,2.85680e-01,9.97830e-01,1.81755e-01,9.99998e-01
8.752491287e-01,6.51859e-02,9.99999e-01,9.99999e-01,3.47700e-01,9.97096e-01,1.87981e-01,9.99996e-01
8.796253743e-01,1.06465e-01,9.99999e-01,9.99999e-01,5.49976e-01,9.95993e-01,1.94291e-01,9.99990e-01
8.840235012e-01,1.45536e-01,9.99999e-01,9.99999e-01,7.28397e-01,9.95420e-01,2.00681e-01,9.99971e-01
8.884436187e-01,1.79651e-01,9.99999e-01,9.99999e-01,8.81173e-01,9.83745e-01,2.07149e-01,9.99919e-01
8.928858368e-01,1.70943e-01,9.99999e-01,9.99999e-01,9.50024e-01,8.41107e-01,2.13692e-01,9.99540e-01
8.973502660e-01,1.59731e-01,9.99999e-01,9.99999e-01,9.87540e-01,7.35280e-01,2.20306e-01,9.97647e-01
9.018370173e-01,1.92849e-01,9.99999e-01,9.99999e-01,9.98616e-01,8.53810e-01,2.26989e-01,9.96303e-01
9.063462024e-01,1.97049e-01,9.99999e-01,9.99999e-01,9.66970e-01,8.71525e-01,2.33735e-01,9.96751e-01
9.108779334e-01,1.78911e-01,9.99999e-01,9.99999e-01,9.22589e-01,8.06272e-01,2.40544e-01,9.96625e-01
9.154323231e-01,1.89517e-01,9.99999e-01,9.99999e-01,9.81074e-01,7.81887e-01,2.47410e-01,9.97209e-01
9.200094847e-01,1.71205e-01,9.99999e-01,9.99999e-01,7.95037e-01,8.24920e-01,2.54330e-01,9.98437e-01
9.246095321e-01,1.35017e-01,9.99999e-01,9.99999e-01,6.76475e-01,7.51791e-01,2.61302e-01,9.98199e-01
9.292325798e-01,3.54897e-02,9.99999e-01,9.99999e-01,7.43051e-01,1.67580e-01,2.68322e-01,9.92997e-01
9.338787427e-01,2.03620e-02,9.99999e-01,9.99999e-01,7.45499e-01,9.57629e-02,2.75386e-01,9.71368e-01
9.385481364e-01,8.71604e-02,9.99999e-01,9.99999e-01,8.04124e-01,3.84517e-01,2.82491e-01,9.66040e-01
9.432408771e-01,7.08387e-02,9.99999e-01,9.99999e-01,8.73836e-01,2.83153e-01,2.89633e-01,9.70633e-01
9.479570815e-01,4.70121e-02,9.99999e-01,9.99999e-01,9.33263e-01,1.72309e-01,2.96810e-01,9.76033e-01
9.526968669e-01,7.41426e-02,9.99999e-01,9.99999e-01,9.67225e-01,2.54174e-01,3.04017e-01,9.85312e-01
9.574603512e-01,8.24888e-02,9.99999e-01,9.99999e-01,9.85826e-01,2.70128e-01,3.11252e-01,9.92512e-01
9.622476530e-01,1.06262e-01,9.99999e-01,9.99999e-01,9.95551e-01,3.36583e-01,3.18511e-01,9.94816e-01
9.670588912e-01,1.72056e-01,9.99999e-01,9.99999e-01,9.98662e-01,5.30593e-01,3.25791e-01,9.96451e-01
9.718941857e-01,2.20998e-01,9.99999e-01,9.99999e-01,9.99903e-01,6.65269e-01,3.33088e-01,9.97386e-01
9.767536566e-01,2.42077e-01,9.99999e-01,9.99999e-01,9.99999e-01,7.12577e-01,3.40400e-01,9.98002e-01
9.816374249e-01,2.69760e-01,9.99999e-01,9.99999e-01,9.99999e-01,7.76324e-01,3.47724e-01,9.99307e-01
9.865456120e-01,3.02877e-01,9.99999e-01,9.99999e-01,9.99999e-01,8.53164e-01,3.55055e-01,9.99855e-01
9.914783401e-01,3.28435e-01,9.99999e-01,9.99999e-01,9.99999e-01,9.06332e-01,3.62392e-01,9.99959e-01
9.964357318e-01,3.50432e-01,9.99999e-01,9.99999e-01,9.99999e-01,9.47823e-01,3.69731e-01,9.99976e-01
1.001417910e+00,3.65129e-01,9.99999e-01,9.99999e-01,9.99999e-01,9.68367e-01,3.77069e-01,9.99963e-01
1.006425000e+00,3.77418e-01,9.99999e-01,9.99999e-01,9.99999e-01,9.81875e-01,3.84404e-01,9.99948e-01
1.011457125e+00,3.87281e-01,9.99999e-01,9.99999e-01,9.99999e-01,9.88683e-01,3.91732e-01,9.99952e-01
1.016514411e+00,3.95972e-01,9.99999e-01,9.99999e-01,9.99999e-01,9.92315e-01,3.99051e-01,9.99966e-01
1.021596983e+00,4.03791e-01,9.99999e-01,9.99999e-01,9.99834e-01,9.93876e-01,4.06359e-01,9.99966e-01
1.026704968e+00,4.06249e-01,9.99999e-01,9.99999e-01,9.86819e-01,9.95224e-01,4.13651e-01,9.99977e-01
1.031838492e+00,3.77655e-01,9.99999e-01,9.99999e-01,9.00163e-01,9.96519e-01,4.20927e-01,9.99993e-01
1.036997685e+00,1.87443e-02,9.99999e-01,9.99999e-01,4.38445e-02,9.97935e-01,4.28183e-01,9.99998e-01
1.042182673e+00,7.63363e-04,9.99999e-01,9.99999e-01,1.75640e-03,9.97547e-01,4.35418e-01,9.99999e-01
1.047393587e+00,2.19643e-03,9.99999e-01,9.99999e-01,4.97561e-03,9.96743e-01,4.42628e-01,9.99998e-01
1.052630555e+00,8.18574e-08,9.99999e-01,9.99999e-01,1.82490e-07,9.95539e-01,4.49811e-01,9.99998e-01
1.057893707e+00,3.02179e-07,9.99999e-01,9.99999e-01,6.63729e-07,9.92575e-01,4.56966e-01,9.99996e-01
1.063183176e+00,1.31870e-05,9.99999e-01,9.99999e-01,2.86104e-05,9.87799e-01,4.64090e-01,9.99993e-01
1.068499092e+00,1.65464e-04,9.99999e-01,9.99999e-01,3.55750e-04,9.79630e-01,4.71180e-01,9.99985e-01
1.073841587e+00,2.72430e-03,9.99999e-01,9.99999e-01,5.79268e-03,9.76271e-01,4.78236e-01,9.99969e-01
