#,Wave/freq,Total,N2,O2,CO2,H2O,Rayleigh,CIA
4.000000000e-01,2.81968e-13,9.99999e-01,9.99999e-01,9.99999e-01,9.99943e-01,2.81984e-13,9.99999e-01
4.020000000e-01,4.99297e-13,9.99999e-01,9.99999e-01,9.99999e-01,9.99964e-01,4.99315e-13,9.99999e-01
4.040100000e-01,8.73686e-13,9.99999e-01,9.99999e-01,9.99999e-01,9.99984e-01,8.73699e-13,9.99999e-01
4.060300500e-01,1.51199e-12,9.99999e-01,9.99999e-01,9.99999e-01,9.99996e-01,1.51199e-12,9.99999e-01
4.080602003e-01,2.58841e-12,9.99999e-01,9.99999e-01,9.99999e-01,9.99998e-01,2.58841e-12,9.99999e-01
4.101005013e-01,4.38434e-12,9.99999e-01,9.99999e-01,9.99999e-01,9.99999e-01,4.38434e-12,9.99999e-01
4.121510038e-01,7.34944e-12,9.99999e-01,9.99999e-01,9.99999e-01,9.99997e-01,7.34945e-12,9.99999e-01
4.142117588e-01,1.21946e-11,9.99999e-01,9.99999e-01,9.99999e-01,9.99984e-01,1.21948e-11,9.99999e-01
4.162828176e-01,2.00318e-11,9.99999e-01,9.99999e-01,9.99999e-01,9.99930e-01,2.00331e-11,9.99999e-01
4.183642317e-01,3.25873e-11,9.99999e-01,9.99999e-01,9.99999e-01,9.99958e-01,3.25886e-11,9.99999e-01
4.204560528e-01,5.25047e-11,9.99999e-01,9.99999e-01,9.99999e-01,9.99974e-01,5.25060e-11,9.99999e-01
4.225583331e-01,8.38023e-11,9.99999e-01,9.99999e-01,9.99999e-01,9.99990e-01,8.38031e-11,9.99999e-01
4.246711247e-01,1.32525e-10,9.99999e-01,9.99999e-01,9.99999e-01,9.99992e-01,1.32526e-10,9.99999e-01
4.267944804e-01,2.07685e-10,9.99999e-01,9.99999e-01,9.99999e-01,9.99988e-01,2.07687e-10,9.99999e-01
4.289284528e-01,3.22598e-10,9.99999e-01,9.99999e-01,9.99999e-01,9.99991e-01,3.22600e-10,9.99999e-01
4.310730950e-01,4.96753e-10,9.99999e-01,9.99999e-01,9.99999e-01,9.99995e-01,4.96755e-10,9.99999e-01
4.332284605e-01,7.58431e-10,9.99999e-01,9.99999e-01,9.99999e-01,9.99998e-01,7.58432e-10,9.99999e-01
4.353946028e-01,1.14831e-09,9.99999e-01,9.99999e-01,9.99999e-01,9.99999e-01,1.14831e-09,9.99999e-01
4.375715758e-01,1.72442e-09,9.99999e-01,9.99999e-01,9.99999e-01,9.99992e-01,1.72443e-09,9.99999e-01
4.397594337e-01,2.56873e-09,9.99999e-01,9.99999e-01,9.99999e-01,9.99939e-01,2.56889e-09,9.99999e-01
4.419582309e-01,3.79570e-09,9.99999e-01,9.99999e-01,9.99999e-01,9.99697e-01,3.79685e-09,9.99999e-01
4.441680220e-01,5.56732e-09,9.99999e-01,9.99999e-01,9.99999e-01,9.99758e-01,5.56866e-09,9.99999e-01
4.463888621e-01,8.10372e-09,9.99999e-01,9.99999e-01,9.99999e-01,9.99750e-01,8.10574e-09,9.99999e-01
4.486208064e-01,1.17097e-08,9.99999e-01,9.99999e-01,9.99999e-01,9.99843e-01,1.17115e-08,9.99999e-01
4.508639105e-01,1.67976e-08,9.99999e-01,9.99999e-01,9.99999e-01,9.99926e-01,1.67988e-08,9.99999e-01
4.531182300e-01,2.39241e-08,9.99999e-01,9.99999e-01,9.99999e-01,9.99970e-01,2.39248e-08,9.99999e-01
4.553838212e-01,3.38358e-08,9.99999e-01,9.99999e-01,9.99999e-01,9.99980e-01,3.38365e-08,9.99999e-01
4.576607403e-01,4.75274e-08,9.99999e-01,9.99999e-01,9.99999e-01,9.99990e-01,4.75279e-08,9.99999e-01
4.599490440e-01,6.63123e-08,9.99999e-01,9.99999e-01,9.99999e-01,9.99993e-01,6.63127e-08,9.99999e-01
4.622487892e-01,9.19152e-08,9.99999e-01,9.99999e-01,9.99999e-01,9.99998e-01,9.19153e-08,9.99999e-01
4.645600332e-01,1.26583e-07,9.99999e-01,9.99999e-01,9.99999e-01,9.99995e-01,1.26584e-07,9.99999e-01
4.668828333e-01,1.73218e-07,9.99999e-01,9.99999e-01,9.99999e-01,9.99926e-01,1.73230e-07,9.99999e-01
4.692172475e-01,2.35564e-07,9.99999e-01,9.99999e-01,9.99999e-01,9.99842e-01,2.35601e-07,9.99999e-01
4.715633337e-01,3.18456e-07,9.99999e-01,9.99999e-01,9.99999e-01,9.99897e-01,3.18488e-07,9.99999e-01
4.739211504e-01,4.27938e-07,9.99999e-01,9.99999e-01,9.99999e-01,9.99901e-01,4.27980e-07,9.99999e-01
4.762907561e-01,5.71737e-07,9.99999e-01,9.99999e-01,9.99999e-01,9.99948e-01,5.71766e-07,9.99999e-01
4.786722099e-01,7.59486e-07,9.99999e-01,9.99999e-01,9.99999e-01,9.99978e-01,7.59502e-07,9.99999e-01
4.810655710e-01,1.00323e-06,9.99999e-01,9.99999e-01,9.99999e-01,9.99993e-01,1.00324e-06,9.99999e-01
4.834708988e-01,1.31785e-06,9.99999e-01,9.99999e-01,9.99999e-01,9.99941e-01,1.31793e-06,9.99999e-01
4.858882533e-01,1.72183e-06,9.99999e-01,9.99999e-01,9.99999e-01,9.99888e-01,1.72202e-06,9.99999e-01
4.883176946e-01,2.23795e-06,9.99999e-01,9.99999e-01,9.99999e-01,9.99907e-01,2.23815e-06,9.99999e-01
4.907592831e-01,2.89373e-06,9.99999e-01,9.99999e-01,9.99999e-01,9.99915e-01,2.89397e-06,9.99999e-01
4.932130795e-01,3.72278e-06,9.99999e-01,9.99999e-01,9.99999e-01,9.99939e-01,3.72300e-06,9.99999e-01
4.956791449e-01,4.76560e-06,9.99999e-01,9.99999e-01,9.99999e-01,9.99968e-01,4.76575e-06,9.99999e-01
4.981575406e-01,6.06993e-06,9.99999e-01,9.99999e-01,9.99999e-01,9.99842e-01,6.07088e-06,9.99999e-01
5.006483283e-01,7.69341e-06,9.99999e-01,9.99999e-01,9.99999e-01,9.99596e-01,7.69653e-06,9.99996e-01
5.031515699e-01,9.69166e-06,9.99999e-01,9.99999e-01,9.99999e-01,9.97939e-01,9.71188e-06,9.99977e-01
5.056673278e-01,1.21852e-05,9.99999e-01,9.99999e-01,9.99999e-01,9.98907e-01,1.21988e-05,9.99974e-01
5.081956644e-01,1.52324e-05,9.99999e-01,9.99999e-01,9.99999e-01,9.98621e-01,1.52537e-05,9.99983e-01
5.107366428e-01,1.89718e-05,9.99999e-01,9.99999e-01,9.99999e-01,9.99068e-01,1.89895e-05,9.99996e-01
5.132903260e-01,2.35258e-05,9.99999e-01,9.99999e-01,9.99999e-01,9.99466e-01,2.35383e-05,9.99999e-01
5.158567776e-01,2.90467e-05,9.99999e-01,9.99999e-01,9.99999e-01,9.99773e-01,2.90532e-05,9.99999e-01
5.184360615e-01,3.57082e-05,9.99999e-01,9.99999e-01,9.99999e-01,9.99909e-01,3.57114e-05,9.99999e-01
5.210282418e-01,4.37155e-05,9.99999e-01,9.99999e-01,9.99999e-01,9.99966e-01,4.37170e-05,9.99999e-01
5.236333830e-01,5.32966e-05,9.99999e-01,9.99999e-01,9.99999e-01,9.99865e-01,5.33038e-05,9.99998e-01
5.262515499e-01,6.47334e-05,9.99999e-01,9.99999e-01,9.99999e-01,9.99915e-01,6.47389e-05,9.99998e-01
5.288828077e-01,7.83198e-05,9.99999e-01,9.99999e-01,9.99999e-01,9.99922e-01,7.83259e-05,9.99998e-01
5.315272217e-01,9.44020e-05,9.99999e-01,9.99999e-01,9.99999e-01,9.99931e-01,9.44085e-05,9.99999e-01
5.341848578e-01,1.13369e-04,9.99999e-01,9.99999e-01,9.99999e-01,9.99955e-01,1.13374e-04,9.99999e-01
5.368557821e-01,1.35637e-04,9.99999e-01,9.99999e-01,9.99999e-01,9.99843e-01,1.35659e-04,9.99999e-01
5.395400610e-01,1.61658e-04,9.99999e-01,9.99999e-01,9.99999e-01,9.99440e-01,1.61749e-04,9.99994e-01
5.422377613e-01,1.92044e-04,9.99999e-01,9.99999e-01,9.99999e-01,9.99265e-01,1.92188e-04,9.99986e-01
5.449489501e-01,2.27422e-04,9.99999e-01,9.99999e-01,9.99999e-01,9.99322e-01,2.27579e-04,9.99985e-01
5.476736949e-01,2.68424e-04,9.99999e-01,9.99999e-01,9.99999e-01,9.99394e-01,2.68588e-04,9.99992e-01
5.504120634e-01,3.15813e-04,9.99999e-01,9.99999e-01,9.99999e-01,9.99560e-01,3.15952e-04,9.99997e-01
5.531641237e-01,3.70396e-04,9.99999e-01,9.99999e-01,9.99999e-01,9.99778e-01,3.70478e-04,9.99999e-01
5.559299443e-01,4.33004e-04,9.99999e-01,9.99999e-01,9.99999e-01,9.99892e-01,4.33050e-04,9.99999e-01
5.587095940e-01,5.04599e-04,9.99999e-01,9.99999e-01,9.99999e-01,9.99933e-01,5.04632e-04,9.99999e-01
5.615031420e-01,5.86229e-04,9.99999e-01,9.99999e-01,9.99999e-01,9.99925e-01,5.86272e-04,9.99999e-01
5.643106577e-01,6.79049e-04,9.99999e-01,9.99999e-01,9.99999e-01,9.99916e-01,6.79106e-04,9.99998e-01
5.671322110e-01,7.83567e-04,9.99999e-01,9.99999e-01,9.99999e-01,9.98999e-01,7.84358e-04,9.99991e-01
5.699678720e-01,9.02333e-04,9.99999e-01,9.99999e-01,9.99999e-01,9.98903e-01,9.03349e-04,9.99971e-01
5.728177114e-01,1.03630e-03,9.99999e-01,9.99999e-01,9.99999e-01,9.98870e-01,1.03749e-03,9.99976e-01
5.756818000e-01,1.18705e-03,9.99999e-01,9.99999e-01,9.99999e-01,9.98961e-01,1.18830e-03,9.99985e-01
5.785602090e-01,1.35615e-03,9.99999e-01,9.99999e-01,9.99999e-01,9.99092e-01,1.35739e-03,9.99995e-01
5.814530100e-01,1.54506e-03,9.99999e-01,9.99999e-01,9.99999e-01,9.99090e-01,1.54647e-03,9.99997e-01
5.843602750e-01,1.75545e-03,9.99999e-01,9.99999e-01,9.99999e-01,9.98926e-01,1.75735e-03,9.99993e-01
5.872820764e-01,1.97343e-03,9.99999e-01,9.99999e-01,9.99999e-01,9.90768e-01,1.99195e-03,9.99933e-01
5.902184868e-01,2.22645e-03,9.99999e-01,9.99999e-01,9.99999e-01,9.88705e-01,2.25229e-03,9.99820e-01
5.931695792e-01,2.51983e-03,9.99999e-01,9.99999e-01,9.99999e-01,9.92039e-01,2.54049e-03,9.99825e-01
5.961354271e-01,2.83345e-03,9.99999e-01,9.99999e-01,9.99999e-01,9.91252e-01,2.85875e-03,9.99894e-01
5.991161043e-01,3.18877e-03,9.99999e-01,9.99999e-01,9.99999e-01,9.93605e-01,3.20939e-03,9.99968e-01
6.021116848e-01,3.58173e-03,9.99999e-01,9.99999e-01,9.99999e-01,9.96362e-01,3.59482e-03,9.99995e-01
6.051222432e-01,4.01012e-03,9.99999e-01,9.99999e-01,9.99999e-01,9.98156e-01,4.01753e-03,9.99999e-01
6.081478544e-01,4.47653e-03,9.99999e-01,9.99999e-01,9.99999e-01,9.99205e-01,4.48009e-03,9.99999e-01
6.111885937e-01,4.98348e-03,9.99999e-01,9.99999e-01,9.99999e-01,9.99662e-01,4.98516e-03,9.99999e-01
6.142445367e-01,5.53466e-03,9.99999e-01,9.99999e-01,9.99999e-01,9.99849e-01,5.53549e-03,9.99999e-01
6.173157594e-01,6.13336e-03,9.99999e-01,9.99999e-01,9.99999e-01,9.99916e-01,6.13386e-03,9.99999e-01
6.204023382e-01,6.78268e-03,9.99999e-01,9.99999e-01,9.99999e-01,9.99929e-01,6.78316e-03,9.99999e-01
6.235043498e-01,7.48402e-03,9.99999e-01,9.99999e-01,9.99999e-01,9.99697e-01,7.48629e-03,9.99998e-01
6.266218716e-01,8.23272e-03,9.99999e-01,9.99999e-01,9.99999e-01,9.98373e-01,8.24622e-03,9.99988e-01
6.297549810e-01,9.06035e-03,9.99999e-01,9.99999e-01,9.99999e-01,9.99403e-01,9.06596e-03,9.99976e-01
6.329037559e-01,9.93661e-03,9.99999e-01,9.99999e-01,9.99999e-01,9.98816e-01,9.94856e-03,9.99981e-01
6.360682746e-01,1.08860e-02,9.99999e-01,9.99999e-01,9.99999e-01,9.98997e-01,1.08971e-02,9.99988e-01
6.392486160e-01,1.18990e-02,9.99999e-01,9.99999e-01,9.99999e-01,9.98697e-01,1.19145e-02,9.99994e-01
6.424448591e-01,1.29837e-02,9.99999e-01,9.99999e-01,9.99999e-01,9.98439e-01,1.30041e-02,9.99991e-01
6.456570834e-01,1.40556e-02,9.99999e-01,9.99999e-01,9.99999e-01,9.92062e-01,1.41687e-02,9.99954e-01
6.488853688e-01,1.53024e-02,9.99999e-01,9.99999e-01,9.99999e-01,9.93042e-01,1.54116e-02,9.99874e-01
6.521297956e-01,1.66328e-02,9.99999e-01,9.99999e-01,9.99999e-01,9.93962e-01,1.67356e-02,9.99894e-01
6.553904446e-01,1.80342e-02,9.99999e-01,9.99999e-01,9.99999e-01,9.94036e-01,1.81438e-02,9.99920e-01
6.586673968e-01,1.95374e-02,9.99999e-01,9.99999e-01,9.99999e-01,9.94841e-01,1.96392e-02,9.99973e-01
6.619607338e-01,2.11611e-02,9.99999e-01,9.99999e-01,9.99999e-01,9.97016e-01,2.12245e-02,9.99993e-01
6.652705375e-01,2.28630e-02,9.99999e-01,9.99999e-01,9.99999e-01,9.98266e-01,2.29027e-02,9.99996e-01
6.685968902e-01,2.46566e-02,9.99999e-01,9.99999e-01,9.99999e-01,9.99195e-01,2.46765e-02,9.99999e-01
6.719398746e-01,2.65386e-02,9.99999e-01,9.99999e-01,9.99999e-01,9.99626e-01,2.65485e-02,9.99999e-01
6.752995740e-01,2.85156e-02,9.99999e-01,9.99999e-01,9.99999e-01,9.99798e-01,2.85213e-02,9.99999e-01
6.786760719e-01,3.05885e-02,9.99999e-01,9.99999e-01,9.99999e-01,9.99711e-01,3.05973e-02,9.99999e-01
6.820694522e-01,3.27626e-02,9.99999e-01,9.99999e-01,9.99999e-01,9.99503e-01,3.27789e-02,9.99996e-01
6.854797995e-01,3.50458e-02,9.99999e-01,9.99999e-01,9.99999e-01,9.99360e-01,3.50684e-02,9.99993e-01
6.889071985e-01,3.74102e-02,9.99999e-01,9.99999e-01,9.99999e-01,9.98478e-01,3.74677e-02,9.99985e-01
6.923517345e-01,3.89807e-02,9.99999e-01,9.99999e-01,9.99999e-01,9.75148e-01,3.99789e-02,9.99878e-01
6.958134932e-01,4.20272e-02,9.99999e-01,9.99999e-01,9.99999e-01,9.86736e-01,4.26038e-02,9.99725e-01
6.992925606e-01,4.47727e-02,9.99999e-01,9.99999e-01,9.99999e-01,9.87636e-01,4.53440e-02,9.99758e-01
7.027890234e-01,4.74514e-02,9.99999e-01,9.99999e-01,9.99999e-01,9.84627e-01,4.82011e-02,9.99814e-01
7.063029686e-01,5.05100e-02,9.99999e-01,9.99999e-01,9.99999e-01,9.87068e-01,5.11764e-02,9.99907e-01
7.098344834e-01,5.35946e-02,9.99999e-01,9.99999e-01,9.99999e-01,9.87587e-01,5.42711e-02,9.99945e-01
7.133836558e-01,5.65451e-02,9.99999e-01,9.99999e-01,9.99999e-01,9.83732e-01,5.74863e-02,9.99891e-01
7.169505741e-01,5.32671e-02,9.99999e-01,9.99999e-01,9.99999e-01,8.76520e-01,6.08227e-02,9.99149e-01
7.205353270e-01,6.00899e-02,9.99999e-01,9.99999e-01,9.99999e-01,9.36201e-01,6.42812e-02,9.98499e-01
7.241380036e-01,6.24053e-02,9.99999e-01,9.99999e-01,9.99999e-01,9.20792e-01,6.78621e-02,9.98694e-01
7.277586936e-01,6.63542e-02,9.99999e-01,9.99999e-01,9.99999e-01,9.28184e-01,7.15658e-02,9.98915e-01
7.313974871e-01,6.95636e-02,9.99999e-01,9.99999e-01,9.99999e-01,9.23144e-01,7.53924e-02,9.99503e-01
7.350544745e-01,7.59408e-02,9.99999e-01,9.99999e-01,9.99999e-01,9.57296e-01,7.93420e-02,9.99827e-01
7.387297469e-01,8.07671e-02,9.99999e-01,9.99999e-01,9.99999e-01,9.68339e-01,8.34143e-02,9.99920e-01
7.424233956e-01,8.62356e-02,9.99999e-01,9.99999e-01,9.99999e-01,9.84337e-01,8.76090e-02,9.99984e-01
7.461355126e-01,9.10518e-02,9.99999e-01,9.99999e-01,9.99999e-01,9.90496e-01,9.19255e-02,9.99996e-01
7.498661902e-01,9.59345e-02,9.99999e-01,9.99999e-01,9.99999e-01,9.95552e-01,9.63631e-02,9.99998e-01
7.536155211e-01,1.00701e-01,9.99999e-01,9.99999e-01,9.99999e-01,9.97823e-01,1.00921e-01,9.99998e-01
7.573835987e-01,1.05479e-01,9.99999e-01,9.99999e-01,9.99999e-01,9.98877e-01,1.05598e-01,9.99999e-01
7.611705167e-01,1.10316e-01,9.99999e-01,9.99999e-01,9.99999e-01,9.99302e-01,1.10393e-01,9.99999e-01
7.649763693e-01,1.15254e-01,9.99999e-01,9.99999e-01,9.99999e-01,9.99563e-01,1.15304e-01,9.99999e-01
7.688012511e-01,1.20294e-01,9.99999e-01,9.99999e-01,9.99999e-01,9.99696e-01,1.20330e-01,9.99999e-01
7.726452574e-01,1.25439e-01,9.99999e-01,9.99999e-01,9.99999e-01,9.99750e-01,1.25470e-01,9.99999e-01
7.765084837e-01,1.30675e-01,9.99999e-01,9.99999e-01,9.99999e-01,9.99648e-01,1.30721e-01,9.99999e-01
7.803910261e-01,1.25650e-01,9.99999e-01,9.99999e-01,9.24647e-01,9.98483e-01,1.36082e-01,9.99998e-01
7.842929812e-01,9.47130e-02,9.99999e-01,9.99999e-01,6.72275e-01,9.94718e-01,1.41550e-01,9.99989e-01
7.882144461e-01,9.59398e-02,9.99999e-01,9.99999e-01,6.58707e-01,9.89045e-01,1.47123e-01,9.99932e-01
7.921555184e-01,1.17775e-01,9.99999e-01,9.99999e-01,7.75299e-01,9.93948e-01,1.52800e-01,9.99869e-01
7.961162960e-01,1.31962e-01,9.99999e-01,9.99999e-01,8.40918e-01,9.89451e-01,1.58576e-01,9.99874e-01
8.000968774e-01,1.47870e-01,9.99999e-01,9.99999e-01,9.10363e-01,9.87745e-01,1.64450e-01,9.99866e-01
8.040973618e-01,1.60288e-01,9.99999e-01,9.99999e-01,9.52240e-01,9.87762e-01,1.70420e-01,9.99894e-01
8.081178486e-01,1.67890e-01,9.99999e-01,9.99999e-01,9.77868e-01,9.72842e-01,1.76482e-01,9.99900e-01
8.121584379e-01,1.61696e-01,9.99999e-01,9.99999e-01,9.93051e-01,8.91732e-01,1.82633e-01,9.99611e-01
8.162192301e-01,1.64159e-01,9.99999e-01,9.99999e-01,9.98460e-01,8.71704e-01,1.88871e-01,9.98540e-01
8.203003262e-01,1.82345e-01,9.99999e-01,9.99999e-01,9.99973e-01,9.35798e-01,1.95192e-01,9.98290e-01
8.244018279e-01,1.83159e-01,9.99999e-01,9.99999e-01,9.99999e-01,9.09790e-01,2.01594e-01,9.98639e-01
8.285238370e-01,1.91558e-01,9.99999e-01,9.99999e-01,9.99999e-01,9.21612e-01,2.08073e-01,9.98931e-01
8.326664562e-01,1.97486e-01,9.99999e-01,9.99999e-01,9.99999e-01,9.20545e-01,2.14626e-01,9.99557e-01
8.368297885e-01,2.08462e-01,9.99999e-01,9.99999e-01,9.99999e-01,9.42297e-01,2.21250e-01,9.99898e-01
8.410139374e-01,2.20011e-01,9.99999e-01,9.99999e-01,9.99999e-01,9.65264e-01,2.27942e-01,9.99940e-01
8.452190071e-01,2.30650e-01,9.99999e-01,9.99999e-01,9.99999e-01,9.82788e-01,2.34697e-01,9.99964e-01
8.494451021e-01,2.39096e-01,9.99999e-01,9.99999e-01,9.99999e-01,9.90015e-01,2.41514e-01,9.99971e-01
8.536923276e-01,2.46909e-01,9.99999e-01,9.99999e-01,9.99999e-01,9.94062e-01,2.48388e-01,9.99980e-01
8.579607893e-01,2.54384e-01,9.99999e-01,9.99999e-01,9.99999e-01,9.96352e-01,2.55316e-01,9.99994e-01
8.622505932e-01,2.61685e-01,9.99999e-01,9.99999e-01,9.99999e-01,9.97675e-01,2.62295e-01,9.99998e-01
8.665618462e-01,2.36719e-01,9.99999e-01,9.99999e-01,8.80130e-01,9.98567e-01,2.69321e-01,9.99999e-01
8.708946554e-01,1.04180e-01,9.99999e-01,9.99999e-01,3.77498e-01,9.98363e-01,2.76391e-01,9.99998e-01
8.752491287e-01,1.25680e-01,9.99999e-01,9.99999e-01,4.44224e-01,9.97808e-01,2.83501e-01,9.99997e-01
8.796253743e-01,1.83603e-01,9.99999e-01,9.99999e-01,6.33482e-01,9.96977e-01,2.90649e-01,9.99992e-01
8.840235012e-01,2.33431e-01,9.99999e-01,9.99999e-01,7.86398e-01,9.96544e-01,2.97830e-01,9.99978e-01
8.884436187e-01,2.73873e-01,9.99999e-01,9.99999e-01,9.08760e-01,9.87712e-01,3.05041e-01,9.99939e-01
8.928858368e-01,2.63619e-01,9.99999e-01,9.99999e-01,9.62022e-01,8.77024e-01,3.12280e-01,9.99652e-01
8.973502660e-01,2.50239e-01,9.99999e-01,9.99999e-01,9.90574e-01,7.91577e-01,3.19542e-01,9.98224e-01
9.018370173e-01,2.88727e-01,9.99999e-01,9.99999e-01,9.98954e-01,8.86756e-01,3.26825e-01,9.97210e-01
9.063462024e-01,2.93343e-01,9.99999e-01,9.99999e-01,9.74810e-01,9.00942e-01,3.34124e-01,9.97548e-01
9.108779334e-01,2.72648e-01,9.99999e-01,9.99999e-01,9.40931e-01,8.49189e-01,3.41438e-01,9.97452e-01
9.154323231e-01,2.84885e-01,9.99999e-01,9.99999e-01,9.85661e-01,8.29806e-01,3.48763e-01,9.97894e-01
9.200094847e-01,2.60495e-01,9.99999e-01,9.99999e-01,8.33089e-01,8.64032e-01,3.56096e-01,9.98820e-01
9.246095321e-01,2.19390e-01,9.99999e-01,9.99999e-01,7.43716e-01,8.03747e-01,3.63433e-01,9.98641e-01
9.292325798e-01,7.53188e-02,9.99999e-01,9.99999e-01,7.97495e-01,2.44861e-01,3.70772e-01,9.94713e-01
9.338787427e-01,4.93769e-02,9.99999e-01,9.99999e-01,8.00110e-01,1.59765e-01,3.78110e-01,9.78325e-01
9.385481364e-01,1.54144e-01,9.99999e-01,9.99999e-01,8.47888e-01,4.74219e-01,3.85444e-01,9.74274e-01
9.432408771e-01,1.29904e-01,9.99999e-01,9.99999e-01,9.03149e-01,3.70233e-01,3.92771e-01,9.77766e-01
9.479570815e-01,9.51291e-02,9.99999e-01,9.99999e-01,9.49202e-01,2.53675e-01,4.00089e-01,9.81867e-01
9.526968669e-01,1.36252e-01,9.99999e-01,9.99999e-01,9.75149e-01,3.45305e-01,4.07394e-01,9.88900e-01
9.574603512e-01,1.48752e-01,9.99999e-01,9.99999e-01,9.89282e-01,3.64051e-01,4.14685e-01,9.94346e-01
9.622476530e-01,1.81529e-01,9.99999e-01,9.99999e-01,9.96640e-01,4.33140e-01,4.21958e-01,9.96087e-01
9.670588912e-01,2.63245e-01,9.99999e-01,9.99999e-01,9.98989e-01,6.15511e-01,4.29211e-01,9.97322e-01
9.718941857e-01,3.19744e-01,9.99999e-01,9.99999e-01,9.99926e-01,7.34105e-01,4.36442e-01,9.98027e-01
9.767536566e-01,3.42641e-01,9.99999e-01,9.99999e-01,9.99999e-01,7.73491e-01,4.43648e-01,9.98492e-01
9.816374249e-01,3.72045e-01,9.99999e-01,9.99999e-01,9.99999e-01,8.25678e-01,4.50828e-01,9.99477e-01
9.865456120e-01,4.06147e-01,9.99999e-01,9.99999e-01,9.99999e-01,8.86922e-01,4.57978e-01,9.99890e-01
9.914783401e-01,4.31804e-01,9.99999e-01,9.99999e-01,9.99999e-01,9.28443e-01,4.65097e-01,9.99969e-01
9.964357318e-01,4.53457e-01,9.99999e-01,9.99999e-01,9.99999e-01,9.60357e-01,4.72183e-01,9.99981e-01
1.001417910e+00,4.67737e-01,9.99999e-01,9.99999e-01,9.99999e-01,9.76034e-01,4.79234e-01,9.99972e-01
1.006425000e+00,4.79566e-01,9.99999e-01,9.99999e-01,9.99999e-01,9.86295e-01,4.86248e-01,9.99961e-01
1.011457125e+00,4.88988e-01,9.99999e-01,9.99999e-01,9.99999e-01,9.91449e-01,4.93223e-01,9.99963e-01
1.016514411e+00,4.97242e-01,9.99999e-01,9.99999e-01,9.99999e-01,9.94197e-01,5.00157e-01,9.99974e-01
1.021596983e+00,5.04630e-01,9.99999e-01,9.99999e-01,9.99875e-01,9.95376e-01,5.07049e-01,9.99974e-01
1.026704968e+00,5.06936e-01,9.99999e-01,9.99999e-01,9.90029e-01,9.96395e-01,5.13896e-01,9.99982e-01
1.031838492e+00,4.76586e-01,9.99999e-01,9.99999e-01,9.17581e-01,9.97373e-01,5.20699e-01,9.99994e-01
1.036997685e+00,3.17101e-02,9.99999e-01,9.99999e-01,6.01900e-02,9.98442e-01,5.27454e-01,9.99998e-01
1.042182673e+00,3.22662e-03,9.99999e-01,9.99999e-01,6.04927e-03,9.98149e-01,5.34161e-01,9.99999e-01
1.047393587e+00,7.85119e-03,9.99999e-01,9.99999e-01,1.45473e-02,9.97542e-01,5.40818e-01,9.99999e-01
1.052630555e+00,2.28838e-06,9.99999e-01,9.99999e-01,4.18932e-06,9.96633e-01,5.47424e-01,9.99998e-01
1.057893707e+00,8.33263e-06,9.99999e-01,9.99999e-01,1.50863e-05,9.94395e-01,5.53979e-01,9.99997e-01
1.063183176e+00,1.46543e-04,9.99999e-01,9.99999e-01,2.62896e-04,9.90782e-01,5.60479e-01,9.99994e-01
1.068499092e+00,1.22077e-03,9.99999e-01,9.99999e-01,2.17650e-03,9.84592e-01,5.66926e-01,9.99989e-01
1.073841587e+00,1.09750e-02,9.99999e-01,9.99999e-01,1.94003e-02,9.82038e-01,5.73317e-01,9.99976e-01
