#,Wave/freq,Total,N2,O2,CO2,H2O,Rayleigh,CIA
4.000000000e-01,5.56910e-12,9.99999e-01,9.99999e-01,9.99999e-01,9.99949e-01,5.56938e-12,9.99999e-01
4.020000000e-01,9.29654e-12,9.99999e-01,9.99999e-01,9.99999e-01,9.99968e-01,9.29683e-12,9.99999e-01
4.040100000e-01,1.53544e-11,9.99999e-01,9.99999e-01,9.99999e-01,9.99986e-01,1.53546e-11,9.99999e-01
4.060300500e-01,2.51093e-11,9.99999e-01,9.99999e-01,9.99999e-01,9.99996e-01,2.51094e-11,9.99999e-01
4.080602003e-01,4.06645e-11,9.99999e-01,9.99999e-01,9.99999e-01,9.99998e-01,4.06645e-11,9.99999e-01
4.101005013e-01,6.52318e-11,9.99999e-01,9.99999e-01,9.99999e-01,9.99999e-01,6.52318e-11,9.99999e-01
4.121510038e-01,1.03669e-10,9.99999e-01,9.99999e-01,9.99999e-01,9.99997e-01,1.03669e-10,9.99999e-01
4.142117588e-01,1.63252e-10,9.99999e-01,9.99999e-01,9.99999e-01,9.99985e-01,1.63254e-10,9.99999e-01
4.162828176e-01,2.54776e-10,9.99999e-01,9.99999e-01,9.99999e-01,9.99937e-01,2.54791e-10,9.99999e-01
4.183642317e-01,3.94158e-10,9.99999e-01,9.99999e-01,9.99999e-01,9.99962e-01,3.94173e-10,9.99999e-01
4.204560528e-01,6.04554e-10,9.99999e-01,9.99999e-01,9.99999e-01,9.99976e-01,6.04568e-10,9.99999e-01
4.225583331e-01,9.19455e-10,9.99999e-01,9.99999e-01,9.99999e-01,9.99991e-01,9.19463e-10,9.99999e-01
4.246711247e-01,1.38683e-09,9.99999e-01,9.99999e-01,9.99999e-01,9.99992e-01,1.38684e-09,9.99999e-01
4.267944804e-01,2.07486e-09,9.99999e-01,9.99999e-01,9.99999e-01,9.99989e-01,2.07488e-09,9.99999e-01
4.289284528e-01,3.07965e-09,9.99999e-01,9.99999e-01,9.99999e-01,9.99991e-01,3.07967e-09,9.99999e-01
4.310730950e-01,4.53551e-09,9.99999e-01,9.99999e-01,9.99999e-01,9.99996e-01,4.53553e-09,9.99999e-01
4.332284605e-01,6.62872e-09,9.99999e-01,9.99999e-01,9.99999e-01,9.99998e-01,6.62873e-09,9.99999e-01
4.353946028e-01,9.61561e-09,9.99999e-01,9.99999e-01,9.99999e-01,9.99999e-01,9.61562e-09,9.99999e-01
4.375715758e-01,1.38462e-08,9.99999e-01,9.99999e-01,9.99999e-01,9.99993e-01,1.38463e-08,9.99999e-01
4.397594337e-01,1.97942e-08,9.99999e-01,9.99999e-01,9.99999e-01,9.99945e-01,1.97953e-08,9.99999e-01
4.419582309e-01,2.80934e-08,9.99999e-01,9.99999e-01,9.99999e-01,9.99725e-01,2.81011e-08,9.99999e-01
4.441680220e-01,3.96083e-08,9.99999e-01,9.99999e-01,9.99999e-01,9.99784e-01,3.96168e-08,9.99999e-01
4.463888621e-01,5.54616e-08,9.99999e-01,9.99999e-01,9.99999e-01,9.99775e-01,5.54741e-08,9.99999e-01
4.486208064e-01,7.71528e-08,9.99999e-01,9.99999e-01,9.99999e-01,9.99860e-01,7.71635e-08,9.99999e-01
4.508639105e-01,1.06629e-07,9.99999e-01,9.99999e-01,9.99999e-01,9.99934e-01,1.06636e-07,9.99999e-01
4.531182300e-01,1.46423e-07,9.99999e-01,9.99999e-01,9.99999e-01,9.99973e-01,1.46426e-07,9.99999e-01
4.553838212e-01,1.99806e-07,9.99999e-01,9.99999e-01,9.99999e-01,9.99982e-01,1.99809e-07,9.99999e-01
4.576607403e-01,2.70983e-07,9.99999e-01,9.99999e-01,9.99999e-01,9.99991e-01,2.70985e-07,9.99999e-01
4.599490440e-01,3.65307e-07,9.99999e-01,9.99999e-01,9.99999e-01,9.99993e-01,3.65309e-07,9.99999e-01
4.622487892e-01,4.89569e-07,9.99999e-01,9.99999e-01,9.99999e-01,9.99998e-01,4.89569e-07,9.99999e-01
4.645600332e-01,6.52310e-07,9.99999e-01,9.99999e-01,9.99999e-01,9.99995e-01,6.52313e-07,9.99999e-01
4.668828333e-01,8.64186e-07,9.99999e-01,9.99999e-01,9.99999e-01,9.99933e-01,8.64242e-07,9.99999e-01
4.692172475e-01,1.13852e-06,9.99999e-01,9.99999e-01,9.99999e-01,9.99859e-01,1.13868e-06,9.99999e-01
4.715633337e-01,1.49198e-06,9.99999e-01,9.99999e-01,9.99999e-01,9.99907e-01,1.49212e-06,9.99999e-01
4.739211504e-01,1.94467e-06,9.99999e-01,9.99999e-01,9.99999e-01,9.99911e-01,1.94484e-06,9.99999e-01
4.762907561e-01,2.52158e-06,9.99999e-01,9.99999e-01,9.99999e-01,9.99953e-01,2.52170e-06,9.99999e-01
4.786722099e-01,3.25286e-06,9.99999e-01,9.99999e-01,9.99999e-01,9.99980e-01,3.25292e-06,9.99999e-01
4.810655710e-01,4.17511e-06,9.99999e-01,9.99999e-01,9.99999e-01,9.99993e-01,4.17513e-06,9.99999e-01
4.834708988e-01,5.33214e-06,9.99999e-01,9.99999e-01,9.99999e-01,9.99946e-01,5.33243e-06,9.99999e-01
4.858882533e-01,6.77701e-06,9.99999e-01,9.99999e-01,9.99999e-01,9.99900e-01,6.77768e-06,9.99999e-01
4.883176946e-01,8.57322e-06,9.99999e-01,9.99999e-01,9.99999e-01,9.99916e-01,8.57394e-06,9.99999e-01
4.907592831e-01,1.07952e-05,9.99999e-01,9.99999e-01,9.99999e-01,9.99924e-01,1.07960e-05,9.99999e-01
4.932130795e-01,1.35315e-05,9.99999e-01,9.99999e-01,9.99999e-01,9.99946e-01,1.35322e-05,9.99999e-01
4.956791449e-01,1.68859e-05,9.99999e-01,9.99999e-01,9.99999e-01,9.99971e-01,1.68863e-05,9.99999e-01
4.981575406e-01,2.09769e-05,9.99999e-01,9.99999e-01,9.99999e-01,9.99858e-01,2.09799e-05,9.99999e-01
5.006483283e-01,2.59448e-05,9.99999e-01,9.99999e-01,9.99999e-01,9.99634e-01,2.59543e-05,9.99997e-01
5.031515699e-01,3.19137e-05,9.99999e-01,9.99999e-01,9.99999e-01,9.98148e-01,3.19735e-05,9.99980e-01
5.056673278e-01,3.91874e-05,9.99999e-01,9.99999e-01,9.99999e-01,9.99021e-01,3.92267e-05,9.99977e-01
5.081956644e-01,4.78715e-05,9.99999e-01,9.99999e-01,9.99999e-01,9.98765e-01,4.79313e-05,9.99985e-01
5.107366428e-01,5.82874e-05,9.99999e-01,9.99999e-01,9.99999e-01,9.99166e-01,5.83361e-05,9.99996e-01
5.132903260e-01,7.06910e-05,9.99999e-01,9.99999e-01,9.99999e-01,9.99523e-01,7.07247e-05,9.99999e-01
5.158567776e-01,8.54014e-05,9.99999e-01,9.99999e-01,9.99999e-01,9.99798e-01,8.54185e-05,9.99999e-01
5.184360615e-01,1.02773e-04,9.99999e-01,9.99999e-01,9.99999e-01,9.99918e-01,1.02781e-04,9.99999e-01
5.210282418e-01,1.23218e-04,9.99999e-01,9.99999e-01,9.99999e-01,9.99969e-01,1.23222e-04,9.99999e-01
5.236333830e-01,1.47182e-04,9.99999e-01,9.99999e-01,9.99999e-01,9.99878e-01,1.47200e-04,9.99998e-01
5.262515499e-01,1.75213e-04,9.99999e-01,9.99999e-01,9.99999e-01,9.99923e-01,1.75227e-04,9.99998e-01
5.288828077e-01,2.07859e-04,9.99999e-01,9.99999e-01,9.99999e-01,9.99930e-01,2.07873e-04,9.99998e-01
5.315272217e-01,2.45756e-04,9.99999e-01,9.99999e-01,9.99999e-01,9.99938e-01,2.45771e-04,9.99999e-01
5.341848578e-01,2.89608e-04,9.99999e-01,9.99999e-01,9.99999e-01,9.99959e-01,2.89619e-04,9.99999e-01
5.368557821e-01,3.40137e-04,9.99999e-01,9.99999e-01,9.99999e-01,9.99859e-01,3.40185e-04,9.99999e-01
5.395400610e-01,3.98108e-04,9.99999e-01,9.99999e-01,9.99999e-01,9.99493e-01,3.98311e-04,9.99995e-01
5.422377613e-01,4.64607e-04,9.99999e-01,9.99999e-01,9.99999e-01,9.99343e-01,4.64918e-04,9.99987e-01
5.449489501e-01,5.40672e-04,9.99999e-01,9.99999e-01,9.99999e-01,9.99390e-01,5.41008e-04,9.99987e-01
5.476736949e-01,6.27326e-04,9.99999e-01,9.99999e-01,9.99999e-01,9.99458e-01,6.27670e-04,9.99993e-01
5.504120634e-01,7.25793e-04,9.99999e-01,9.99999e-01,9.99999e-01,9.99607e-01,7.26079e-04,9.99997e-01
5.531641237e-01,8.37339e-04,9.99999e-01,9.99999e-01,9.99999e-01,9.99802e-01,8.37505e-04,9.99999e-01
5.559299443e-01,9.63218e-04,9.99999e-01,9.99999e-01,9.99999e-01,9.99904e-01,9.63309e-04,9.99999e-01
5.587095940e-01,1.10489e-03,9.99999e-01,9.99999e-01,9.99999e-01,9.99939e-01,1.10495e-03,9.99999e-01
5.615031420e-01,1.26391e-03,9.99999e-01,9.99999e-01,9.99999e-01,9.99933e-01,1.26399e-03,9.99999e-01
5.643106577e-01,1.44198e-03,9.99999e-01,9.99999e-01,9.99999e-01,9.99924e-01,1.44209e-03,9.99998e-01
5.671322110e-01,1.63949e-03,9.99999e-01,9.99999e-01,9.99999e-01,9.99087e-01,1.64100e-03,9.99991e-01
5.699678720e-01,1.86073e-03,9.99999e-01,9.99999e-01,9.99999e-01,9.99023e-01,1.86259e-03,9.99974e-01
5.728177114e-01,2.10664e-03,9.99999e-01,9.99999e-01,9.99999e-01,9.98985e-01,2.10882e-03,9.99978e-01
5.756818000e-01,2.37951e-03,9.99999e-01,9.99999e-01,9.99999e-01,9.99068e-01,2.38175e-03,9.99986e-01
5.785602090e-01,2.68136e-03,9.99999e-01,9.99999e-01,9.99999e-01,9.99187e-01,2.68355e-03,9.99995e-01
5.814530100e-01,3.01401e-03,9.99999e-01,9.99999e-01,9.99999e-01,9.99184e-01,3.01647e-03,9.99997e-01
5.843602750e-01,3.37957e-03,9.99999e-01,9.99999e-01,9.99999e-01,9.99029e-01,3.38287e-03,9.99994e-01
5.872820764e-01,3.75343e-03,9.99999e-01,9.99999e-01,9.99999e-01,9.91665e-01,3.78519e-03,9.99940e-01
5.902184868e-01,4.18254e-03,9.99999e-01,9.99999e-01,9.99999e-01,9.89881e-01,4.22597e-03,9.99839e-01
5.931695792e-01,4.67345e-03,9.99999e-01,9.99999e-01,9.99999e-01,9.92850e-01,4.70783e-03,9.99845e-01
5.961354271e-01,5.19196e-03,9.99999e-01,9.99999e-01,9.99999e-01,9.92158e-01,5.23345e-03,9.99910e-01
5.991161043e-01,5.77221e-03,9.99999e-01,9.99999e-01,9.99999e-01,9.94273e-01,5.80561e-03,9.99972e-01
6.021116848e-01,6.40620e-03,9.99999e-01,9.99999e-01,9.99999e-01,9.96746e-01,6.42713e-03,9.99996e-01
6.051222432e-01,7.08922e-03,9.99999e-01,9.99999e-01,9.99999e-01,9.98352e-01,7.10092e-03,9.99999e-01
6.081478544e-01,7.82434e-03,9.99999e-01,9.99999e-01,9.99999e-01,9.99289e-01,7.82990e-03,9.99999e-01
6.111885937e-01,8.61448e-03,9.99999e-01,9.99999e-01,9.99999e-01,9.99698e-01,8.61707e-03,9.99999e-01
6.142445367e-01,9.46418e-03,9.99999e-01,9.99999e-01,9.99999e-01,9.99865e-01,9.46545e-03,9.99999e-01
6.173157594e-01,1.03773e-02,9.99999e-01,9.99999e-01,9.99999e-01,9.99925e-01,1.03781e-02,9.99999e-01
6.204023382e-01,1.13574e-02,9.99999e-01,9.99999e-01,9.99999e-01,9.99936e-01,1.13581e-02,9.99999e-01
6.235043498e-01,1.24050e-02,9.99999e-01,9.99999e-01,9.99999e-01,9.99724e-01,1.24084e-02,9.99998e-01
6.266218716e-01,1.35124e-02,9.99999e-01,9.99999e-01,9.99999e-01,9.98540e-01,1.35323e-02,9.99989e-01
6.297549810e-01,1.47245e-02,9.99999e-01,9.99999e-01,9.99999e-01,9.99464e-01,1.47326e-02,9.99979e-01
6.329037559e-01,1.59954e-02,9.99999e-01,9.99999e-01,9.99999e-01,9.98940e-01,1.60126e-02,9.99983e-01
6.360682746e-01,1.73593e-02,9.99999e-01,9.99999e-01,9.99999e-01,9.99098e-01,1.73751e-02,9.99989e-01
6.392486160e-01,1.88012e-02,9.99999e-01,9.99999e-01,9.99999e-01,9.98831e-01,1.88232e-02,9.99995e-01
6.424448591e-01,2.03279e-02,9.99999e-01,9.99999e-01,9.99999e-01,9.98440e-01,2.03598e-02,9.99992e-01
6.456570834e-01,2.18279e-02,9.99999e-01,9.99999e-01,9.99999e-01,9.92774e-01,2.19876e-02,9.99959e-01
6.488853688e-01,2.35812e-02,9.99999e-01,9.99999e-01,9.99999e-01,9.94693e-01,2.37096e-02,9.99887e-01
6.521297956e-01,2.53880e-02,9.99999e-01,9.99999e-01,9.99999e-01,9.94591e-01,2.55284e-02,9.99906e-01
6.553904446e-01,2.72971e-02,9.99999e-01,9.99999e-01,9.99999e-01,9.94619e-01,2.74466e-02,9.99930e-01
6.586673968e-01,2.93302e-02,9.99999e-01,9.99999e-01,9.99999e-01,9.95386e-01,2.94668e-02,9.99976e-01
6.619607338e-01,3.15068e-02,9.99999e-01,9.99999e-01,9.99999e-01,9.97330e-01,3.15913e-02,9.99994e-01
6.652705375e-01,3.37701e-02,9.99999e-01,9.99999e-01,9.99999e-01,9.98453e-01,3.38224e-02,9.99996e-01
6.685968902e-01,3.61363e-02,9.99999e-01,9.99999e-01,9.99999e-01,9.99281e-01,3.61623e-02,9.99999e-01
6.719398746e-01,3.86002e-02,9.99999e-01,9.99999e-01,9.99999e-01,9.99666e-01,3.86131e-02,9.99999e-01
6.752995740e-01,4.11691e-02,9.99999e-01,9.99999e-01,9.99999e-01,9.99819e-01,4.11766e-02,9.99999e-01
6.786760719e-01,4.38431e-02,9.99999e-01,9.99999e-01,9.99999e-01,9.99739e-01,4.38545e-02,9.99999e-01
6.820694522e-01,4.66276e-02,9.99999e-01,9.99999e-01,9.99999e-01,9.99554e-01,4.66485e-02,9.99997e-01
6.854797995e-01,4.95313e-02,9.99999e-01,9.99999e-01,9.99999e-01,9.99425e-01,4.95600e-02,9.99994e-01
6.889071985e-01,5.25169e-02,9.99999e-01,9.99999e-01,9.99999e-01,9.98614e-01,5.25903e-02,9.99987e-01
6.923517345e-01,5.44838e-02,9.99999e-01,9.99999e-01,9.99999e-01,9.77558e-01,5.57405e-02,9.99890e-01
6.958134932e-01,5.83023e-02,9.99999e-01,9.99999e-01,9.99999e-01,9.88222e-01,5.90116e-02,9.99754e-01
6.992925606e-01,6.16949e-02,9.99999e-01,9.99999e-01,9.99999e-01,9.88846e-01,6.24043e-02,9.99783e-01
7.027890234e-01,6.50000e-02,9.99999e-01,9.99999e-01,9.99999e-01,9.86219e-01,6.59192e-02,9.99833e-01
7.063029686e-01,6.87444e-02,9.99999e-01,9.99999e-01,9.99999e-01,9.88401e-01,6.95567e-02,9.99917e-01
7.098344834e-01,7.24975e-02,9.99999e-01,9.99999e-01,9.99999e-01,9.88867e-01,7.33172e-02,9.99950e-01
7.133836558e-01,7.60542e-02,9.99999e-01,9.99999e-01,9.99999e-01,9.85244e-01,7.72006e-02,9.99902e-01
7.169505741e-01,7.20403e-02,9.99999e-01,9.99999e-01,9.99999e-01,8.87797e-01,8.12069e-02,9.99236e-01
7.205353270e-01,8.03712e-02,9.99999e-01,9.99999e-01,9.99999e-01,9.43091e-01,8.53358e-02,9.98654e-01
7.241380036e-01,8.30782e-02,9.99999e-01,9.99999e-01,9.99999e-01,9.28427e-01,8.95868e-02,9.98837e-01
7.277586936e-01,8.77855e-02,9.99999e-01,9.99999e-01,9.99999e-01,9.35180e-01,9.39593e-02,9.99049e-01
7.313974871e-01,9.16180e-02,9.99999e-01,9.99999e-01,9.99999e-01,9.30993e-01,9.84525e-02,9.99554e-01
7.350544745e-01,9.91011e-02,9.99999e-01,9.99999e-01,9.99999e-01,9.61683e-01,1.03065e-01,9.99844e-01
7.387297469e-01,1.04732e-01,9.99999e-01,9.99999e-01,9.99999e-01,9.71633e-01,1.07797e-01,9.99928e-01
7.424233956e-01,1.11069e-01,9.99999e-01,9.99999e-01,9.99999e-01,9.86011e-01,1.12646e-01,9.99985e-01
7.461355126e-01,1.16611e-01,9.99999e-01,9.99999e-01,9.99999e-01,9.91502e-01,1.17610e-01,9.99997e-01
7.498661902e-01,1.22203e-01,9.99999e-01,9.99999e-01,9.99999e-01,9.96032e-01,1.22689e-01,9.99998e-01
7.536155211e-01,1.27632e-01,9.99999e-01,9.99999e-01,9.99999e-01,9.98053e-01,1.27881e-01,9.99998e-01
7.573835987e-01,1.33049e-01,9.99999e-01,9.99999e-01,9.99999e-01,9.98997e-01,1.33183e-01,9.99999e-01
7.611705167e-01,1.38507e-01,9.99999e-01,9.99999e-01,9.99999e-01,9.99377e-01,1.38593e-01,9.99999e-01
7.649763693e-01,1.44054e-01,9.99999e-01,9.99999e-01,9.99999e-01,9.99609e-01,1.44110e-01,9.99999e-01
7.688012511e-01,1.49691e-01,9.99999e-01,9.99999e-01,9.99999e-01,9.99727e-01,1.49731e-01,9.99999e-01
7.726452574e-01,1.55420e-01,9.99999e-01,9.99999e-01,9.99999e-01,9.99776e-01,1.55454e-01,9.99999e-01
7.765084837e-01,1.61225e-01,9.99999e-01,9.99999e-01,9.99999e-01,9.99682e-01,1.61276e-01,9.99999e-01
7.803910261e-01,1.55050e-01,9.99999e-01,9.99999e-01,9.28550e-01,9.98630e-01,1.67195e-01,9.99998e-01
7.842929812e-01,1.20670e-01,9.99999e-01,9.99999e-01,6.99685e-01,9.95227e-01,1.73207e-01,9.99990e-01
7.882144461e-01,1.21739e-01,9.99999e-01,9.99999e-01,6.85141e-01,9.90169e-01,1.79311e-01,9.99939e-01
7.921555184e-01,1.46750e-01,9.99999e-01,9.99999e-01,7.95258e-01,9.94593e-01,1.85502e-01,9.99882e-01
7.961162960e-01,1.62725e-01,9.99999e-01,9.99999e-01,8.56567e-01,9.90487e-01,1.91779e-01,9.99887e-01
8.000968774e-01,1.80166e-01,9.99999e-01,9.99999e-01,9.19447e-01,9.88999e-01,1.98138e-01,9.99880e-01
8.040973618e-01,1.93686e-01,9.99999e-01,9.99999e-01,9.57339e-01,9.89001e-01,2.04576e-01,9.99905e-01
8.081178486e-01,2.01824e-01,9.99999e-01,9.99999e-01,9.80191e-01,9.75433e-01,2.11090e-01,9.99910e-01
8.121584379e-01,1.95040e-01,9.99999e-01,9.99999e-01,9.93830e-01,9.01753e-01,2.17676e-01,9.99651e-01
8.162192301e-01,1.97868e-01,9.99999e-01,9.99999e-01,9.98634e-01,8.84342e-01,2.24331e-01,9.98690e-01
8.203003262e-01,2.17186e-01,9.99999e-01,9.99999e-01,9.99978e-01,9.41441e-01,2.31053e-01,9.98466e-01
8.244018279e-01,2.18322e-01,9.99999e-01,9.99999e-01,9.99999e-01,9.19066e-01,2.37837e-01,9.98779e-01
8.285238370e-01,2.27142e-01,9.99999e-01,9.99999e-01,9.99999e-01,9.29209e-01,2.44681e-01,9.99041e-01
8.326664562e-01,2.33491e-01,9.99999e-01,9.99999e-01,9.99999e-01,9.28464e-01,2.51580e-01,9.99603e-01
8.368297885e-01,2.45122e-01,9.99999e-01,9.99999e-01,9.99999e-01,9.48213e-01,2.58532e-01,9.99908e-01
8.410139374e-01,2.57257e-01,9.99999e-01,9.99999e-01,9.99999e-01,9.68882e-01,2.65533e-01,9.99946e-01
8.452190071e-01,2.68377e-01,9.99999e-01,9.99999e-01,9.99999e-01,9.84611e-01,2.72580e-01,9.99967e-01
8.494451021e-01,2.77159e-01,9.99999e-01,9.99999e-01,9.99999e-01,9.91050e-01,2.79669e-01,9.99974e-01
8.536923276e-01,2.85271e-01,9.99999e-01,9.99999e-01,9.99999e-01,9.94695e-01,2.86797e-01,9.99984e-01
8.579607893e-01,2.92999e-01,9.99999e-01,9.99999e-01,9.99999e-01,9.96732e-01,2.93960e-01,9.99995e-01
8.622505932e-01,3.00530e-01,9.99999e-01,9.99999e-01,9.99999e-01,9.97922e-01,3.01156e-01,9.99998e-01
8.665618462e-01,2.71804e-01,9.99999e-01,9.99999e-01,8.82457e-01,9.98715e-01,3.08380e-01,9.99999e-01
8.708946554e-01,1.30279e-01,9.99999e-01,9.99999e-01,4.13323e-01,9.98530e-01,3.15630e-01,9.99998e-01
8.752491287e-01,1.55266e-01,9.99999e-01,9.99999e-01,4.81738e-01,9.98033e-01,3.22902e-01,9.99997e-01
8.796253743e-01,2.18739e-01,9.99999e-01,9.99999e-01,6.64149e-01,9.97279e-01,3.30193e-01,9.99993e-01
8.840235012e-01,2.71390e-01,9.99999e-01,9.99999e-01,8.06551e-01,9.96892e-01,3.37500e-01,9.99980e-01
8.884436187e-01,3.13169e-01,9.99999e-01,9.99999e-01,9.18338e-01,9.88771e-01,3.44819e-01,9.99945e-01
8.928858368e-01,3.02231e-01,9.99999e-01,9.99999e-01,9.66041e-01,8.88056e-01,3.52148e-01,9.99688e-01
8.973502660e-01,2.88633e-01,9.99999e-01,9.99999e-01,9.91633e-01,8.10650e-01,3.59483e-01,9.98407e-01
9.018370173e-01,3.28394e-01,9.99999e-01,9.99999e-01,9.99074e-01,8.98258e-01,3.66821e-01,9.97497e-01
9.063462024e-01,3.32480e-01,9.99999e-01,9.99999e-01,9.76941e-01,9.10003e-01,3.74160e-01,9.97801e-01
9.108779334e-01,3.11619e-01,9.99999e-01,9.99999e-01,9.47033e-01,8.63150e-01,3.81497e-01,9.97715e-01
9.154323231e-01,3.24240e-01,9.99999e-01,9.99999e-01,9.87279e-01,8.45689e-01,3.88828e-01,9.98110e-01
9.200094847e-01,2.97538e-01,9.99999e-01,9.99999e-01,8.44927e-01,8.77149e-01,3.96151e-01,9.98942e-01
9.246095321e-01,2.55596e-01,9.99999e-01,9.99999e-01,7.67088e-01,8.19060e-01,4.03463e-01,9.98781e-01
9.292325798e-01,9.57595e-02,9.99999e-01,9.99999e-01,8.14861e-01,2.76528e-01,4.10762e-01,9.95256e-01
9.338787427e-01,6.63332e-02,9.99999e-01,9.99999e-01,8.18749e-01,1.90521e-01,4.18045e-01,9.80537e-01
9.385481364e-01,1.85743e-01,9.99999e-01,9.99999e-01,8.62603e-01,5.09477e-01,4.25309e-01,9.76895e-01
9.432408771e-01,1.57559e-01,9.99999e-01,9.99999e-01,9.13123e-01,4.03087e-01,4.32552e-01,9.80035e-01
9.479570815e-01,1.18974e-01,9.99999e-01,9.99999e-01,9.54438e-01,2.86759e-01,4.39772e-01,9.83720e-01
9.526968669e-01,1.65816e-01,9.99999e-01,9.99999e-01,9.77774e-01,3.81835e-01,4.46966e-01,9.90038e-01
9.574603512e-01,1.79910e-01,9.99999e-01,9.99999e-01,9.90428e-01,4.01480e-01,4.54133e-01,9.94927e-01
9.622476530e-01,2.16005e-01,9.99999e-01,9.99999e-01,9.97004e-01,4.71159e-01,4.61269e-01,9.96489e-01
9.670588912e-01,3.01723e-01,9.99999e-01,9.99999e-01,9.99101e-01,6.46259e-01,4.68373e-01,9.97597e-01
9.718941857e-01,3.59561e-01,9.99999e-01,9.99999e-01,9.99935e-01,7.57645e-01,4.75443e-01,9.98230e-01
9.767536566e-01,3.82585e-01,9.99999e-01,9.99999e-01,9.99999e-01,7.94033e-01,4.82477e-01,9.98647e-01
9.816374249e-01,4.12119e-01,9.99999e-01,9.99999e-01,9.99999e-01,8.42357e-01,4.89473e-01,9.99531e-01
9.865456120e-01,4.45836e-01,9.99999e-01,9.99999e-01,9.99999e-01,8.98172e-01,4.96429e-01,9.99902e-01
9.914783401e-01,4.70966e-01,9.99999e-01,9.99999e-01,9.99999e-01,9.35699e-01,5.03344e-01,9.99972e-01
9.964357318e-01,4.92070e-01,9.99999e-01,9.99999e-01,9.99999e-01,9.64450e-01,5.10216e-01,9.99983e-01
1.001417910e+00,5.05932e-01,9.99999e-01,9.99999e-01,9.99999e-01,9.78533e-01,5.17043e-01,9.99975e-01
1.006425000e+00,5.17369e-01,9.99999e-01,9.99999e-01,9.99999e-01,9.87711e-01,5.23824e-01,9.99965e-01
1.011457125e+00,5.26483e-01,9.99999e-01,9.99999e-01,9.99999e-01,9.92352e-01,5.30557e-01,9.99967e-01
1.016514411e+00,5.34437e-01,9.99999e-01,9.99999e-01,9.99999e-01,9.94803e-01,5.37241e-01,9.99977e-01
1.021596983e+00,5.41544e-01,9.99999e-01,9.99999e-01,9.99877e-01,9.95857e-01,5.43875e-01,9.99976e-01
1.026704968e+00,5.43671e-01,9.99999e-01,9.99999e-01,9.90877e-01,9.96768e-01,5.50457e-01,9.99984e-01
1.031838492e+00,5.11258e-01,9.99999e-01,9.99999e-01,9.19961e-01,9.97649e-01,5.56987e-01,9.99995e-01
1.036997685e+00,3.72197e-02,9.99999e-01,9.99999e-01,6.61254e-02,9.98604e-01,5.63462e-01,9.99998e-01
1.042182673e+00,5.34254e-03,9.99999e-01,9.99999e-01,9.38720e-03,9.98337e-01,5.69883e-01,9.99999e-01
1.047393587e+00,1.17317e-02,9.99999e-01,9.99999e-01,2.03968e-02,9.97794e-01,5.76248e-01,9.99999e-01
1.052630555e+00,6.74060e-06,9.99999e-01,9.99999e-01,1.15935e-05,9.96975e-01,5.82557e-01,9.99998e-01
1.057893707e+00,2.46021e-05,9.99999e-01,9.99999e-01,4.18985e-05,9.94956e-01,5.88808e-01,9.99997e-01
1.063183176e+00,3.26959e-04,9.99999e-01,9.99999e-01,5.52281e-04,9.91712e-01,5.95000e-01,9.99995e-01
1.068499092e+00,2.33529e-03,9.99999e-01,9.99999e-01,3.92346e-03,9.86155e-01,6.01133e-01,9.99990e-01
1.073841587e+00,1.72463e-02,9.99999e-01,9.99999e-01,2.87532e-02,9.83832e-01,6.07207e-01,9.99979e-01
