#,Wave/freq,Total,N2,O2,CO2,H2O,Rayleigh,CIA
4.000000000e-01,7.72126e-08,9.99999e-01,9.99999e-01,9.99999e-01,9.99968e-01,7.72151e-08,9.99999e-01
4.020000000e-01,1.06739e-07,9.99999e-01,9.99999e-01,9.99999e-01,9.99980e-01,1.06741e-07,9.99999e-01
4.040100000e-01,1.46566e-07,9.99999e-01,9.99999e-01,9.99999e-01,9.99991e-01,1.46567e-07,9.99999e-01
4.060300500e-01,1.99997e-07,9.99999e-01,9.99999e-01,9.99999e-01,9.99997e-01,1.99998e-07,9.99999e-01
4.080602003e-01,2.71235e-07,9.99999e-01,9.99999e-01,9.99999e-01,9.99998e-01,2.71235e-07,9.99999e-01
4.101005013e-01,3.65640e-07,9.99999e-01,9.99999e-01,9.99999e-01,9.99999e-01,3.65640e-07,9.99999e-01
4.121510038e-01,4.90004e-07,9.99999e-01,9.99999e-01,9.99999e-01,9.99998e-01,4.90004e-07,9.99999e-01
4.142117588e-01,6.52875e-07,9.99999e-01,9.99999e-01,9.99999e-01,9.99990e-01,6.52881e-07,9.99999e-01
4.162828176e-01,8.64947e-07,9.99999e-01,9.99999e-01,9.99999e-01,9.99960e-01,8.64980e-07,9.99999e-01
4.183642317e-01,1.13961e-06,9.99999e-01,9.99999e-01,9.99999e-01,9.99976e-01,1.13963e-06,9.99999e-01
4.204560528e-01,1.49332e-06,9.99999e-01,9.99999e-01,9.99999e-01,9.99985e-01,1.49334e-06,9.99999e-01
4.225583331e-01,1.94640e-06,9.99999e-01,9.99999e-01,9.99999e-01,9.99994e-01,1.94641e-06,9.99999e-01
4.246711247e-01,2.52368e-06,9.99999e-01,9.99999e-01,9.99999e-01,9.99995e-01,2.52369e-06,9.99999e-01
4.267944804e-01,3.25542e-06,9.99999e-01,9.99999e-01,9.99999e-01,9.99993e-01,3.25544e-06,9.99999e-01
4.289284528e-01,4.17827e-06,9.99999e-01,9.99999e-01,9.99999e-01,9.99994e-01,4.17829e-06,9.99999e-01
4.310730950e-01,5.33638e-06,9.99999e-01,9.99999e-01,9.99999e-01,9.99997e-01,5.33639e-06,9.99999e-01
4.332284605e-01,6.78261e-06,9.99999e-01,9.99999e-01,9.99999e-01,9.99998e-01,6.78262e-06,9.99999e-01
4.353946028e-01,8.58005e-06,9.99999e-01,9.99999e-01,9.99999e-01,9.99999e-01,8.58005e-06,9.99999e-01
4.375715758e-01,1.08035e-05,9.99999e-01,9.99999e-01,9.99999e-01,9.99995e-01,1.08035e-05,9.99999e-01
4.397594337e-01,1.35410e-05,9.99999e-01,9.99999e-01,9.99999e-01,9.99964e-01,1.35415e-05,9.99999e-01
4.419582309e-01,1.68947e-05,9.99999e-01,9.99999e-01,9.99999e-01,9.99823e-01,1.68977e-05,9.99999e-01
4.441680220e-01,2.09909e-05,9.99999e-01,9.99999e-01,9.99999e-01,9.99864e-01,2.09937e-05,9.99999e-01
4.463888621e-01,2.59674e-05,9.99999e-01,9.99999e-01,9.99999e-01,9.99858e-01,2.59711e-05,9.99999e-01
4.486208064e-01,3.19909e-05,9.99999e-01,9.99999e-01,9.99999e-01,9.99912e-01,3.19937e-05,9.99999e-01
4.508639105e-01,3.92494e-05,9.99999e-01,9.99999e-01,9.99999e-01,9.99958e-01,3.92510e-05,9.99999e-01
4.531182300e-01,4.79597e-05,9.99999e-01,9.99999e-01,9.99999e-01,9.99983e-01,4.79605e-05,9.99999e-01
4.553838212e-01,5.83703e-05,9.99999e-01,9.99999e-01,9.99999e-01,9.99988e-01,5.83709e-05,9.99999e-01
4.576607403e-01,7.07657e-05,9.99999e-01,9.99999e-01,9.99999e-01,9.99994e-01,7.07660e-05,9.99999e-01
4.599490440e-01,8.54672e-05,9.99999e-01,9.99999e-01,9.99999e-01,9.99995e-01,8.54675e-05,9.99999e-01
4.622487892e-01,1.02839e-04,9.99999e-01,9.99999e-01,9.99999e-01,9.99998e-01,1.02839e-04,9.99999e-01
4.645600332e-01,1.23290e-04,9.99999e-01,9.99999e-01,9.99999e-01,9.99997e-01,1.23290e-04,9.99999e-01
4.668828333e-01,1.47273e-04,9.99999e-01,9.99999e-01,9.99999e-01,9.99957e-01,1.47279e-04,9.99999e-01
4.692172475e-01,1.75304e-04,9.99999e-01,9.99999e-01,9.99999e-01,9.99910e-01,1.75320e-04,9.99999e-01
4.715633337e-01,2.07969e-04,9.99999e-01,9.99999e-01,9.99999e-01,9.99941e-01,2.07981e-04,9.99999e-01
4.739211504e-01,2.45883e-04,9.99999e-01,9.99999e-01,9.99999e-01,9.99944e-01,2.45896e-04,9.99999e-01
4.762907561e-01,2.89755e-04,9.99999e-01,9.99999e-01,9.99999e-01,9.99970e-01,2.89763e-04,9.99999e-01
4.786722099e-01,3.40347e-04,9.99999e-01,9.99999e-01,9.99999e-01,9.99987e-01,3.40351e-04,9.99999e-01
4.810655710e-01,3.98500e-04,9.99999e-01,9.99999e-01,9.99999e-01,9.99995e-01,3.98502e-04,9.99999e-01
4.834708988e-01,4.65120e-04,9.99999e-01,9.99999e-01,9.99999e-01,9.99964e-01,4.65136e-04,9.99999e-01
4.858882533e-01,5.41223e-04,9.99999e-01,9.99999e-01,9.99999e-01,9.99936e-01,5.41257e-04,9.99999e-01
4.883176946e-01,6.27920e-04,9.99999e-01,9.99999e-01,9.99999e-01,9.99946e-01,6.27953e-04,9.99999e-01
4.907592831e-01,7.26365e-04,9.99999e-01,9.99999e-01,9.99999e-01,9.99952e-01,7.26400e-04,9.99999e-01
4.932130795e-01,8.37839e-04,9.99999e-01,9.99999e-01,9.99999e-01,9.99965e-01,8.37867e-04,9.99999e-01
4.956791449e-01,9.63701e-04,9.99999e-01,9.99999e-01,9.99999e-01,9.99981e-01,9.63719e-04,9.99999e-01
4.981575406e-01,1.10531e-03,9.99999e-01,9.99999e-01,9.99999e-01,9.99910e-01,1.10541e-03,9.99999e-01
5.006483283e-01,1.26421e-03,9.99999e-01,9.99999e-01,9.99999e-01,9.99766e-01,1.26451e-03,9.99997e-01
5.031515699e-01,1.44096e-03,9.99999e-01,9.99999e-01,9.99999e-01,9.98826e-01,1.44267e-03,9.99987e-01
5.056673278e-01,1.64061e-03,9.99999e-01,9.99999e-01,9.99999e-01,9.99382e-01,1.64165e-03,9.99985e-01
5.081956644e-01,1.86184e-03,9.99999e-01,9.99999e-01,9.99999e-01,9.99220e-01,1.86331e-03,9.99990e-01
5.107366428e-01,2.10851e-03,9.99999e-01,9.99999e-01,9.99999e-01,9.99473e-01,2.10962e-03,9.99998e-01
5.132903260e-01,2.38192e-03,9.99999e-01,9.99999e-01,9.99999e-01,9.99699e-01,2.38263e-03,9.99999e-01
5.158567776e-01,2.68418e-03,9.99999e-01,9.99999e-01,9.99999e-01,9.99872e-01,2.68452e-03,9.99999e-01
5.184360615e-01,3.01739e-03,9.99999e-01,9.99999e-01,9.99999e-01,9.99948e-01,3.01754e-03,9.99999e-01
5.210282418e-01,3.38398e-03,9.99999e-01,9.99999e-01,9.99999e-01,9.99980e-01,3.38405e-03,9.99999e-01
5.236333830e-01,3.78619e-03,9.99999e-01,9.99999e-01,9.99999e-01,9.99923e-01,3.78648e-03,9.99998e-01
5.262515499e-01,4.22718e-03,9.99999e-01,9.99999e-01,9.99999e-01,9.99951e-01,4.22739e-03,9.99998e-01
5.288828077e-01,4.70916e-03,9.99999e-01,9.99999e-01,9.99999e-01,9.99955e-01,4.70937e-03,9.99999e-01
5.315272217e-01,5.23493e-03,9.99999e-01,9.99999e-01,9.99999e-01,9.99961e-01,5.23513e-03,9.99999e-01
5.341848578e-01,5.80729e-03,9.99999e-01,9.99999e-01,9.99999e-01,9.99974e-01,5.80744e-03,9.99999e-01
5.368557821e-01,6.42854e-03,9.99999e-01,9.99999e-01,9.99999e-01,9.99910e-01,6.42912e-03,9.99999e-01
5.395400610e-01,7.10074e-03,9.99999e-01,9.99999e-01,9.99999e-01,9.99675e-01,7.10306e-03,9.99996e-01
5.422377613e-01,7.82892e-03,9.99999e-01,9.99999e-01,9.99999e-01,9.99585e-01,7.83222e-03,9.99991e-01
5.449489501e-01,8.61618e-03,9.99999e-01,9.99999e-01,9.99999e-01,9.99612e-01,8.61958e-03,9.99991e-01
5.476736949e-01,9.46489e-03,9.99999e-01,9.99999e-01,9.99999e-01,9.99659e-01,9.46815e-03,9.99995e-01
5.504120634e-01,1.03784e-02,9.99999e-01,9.99999e-01,9.99999e-01,9.99752e-01,1.03810e-02,9.99998e-01
5.531641237e-01,1.13598e-02,9.99999e-01,9.99999e-01,9.99999e-01,9.99875e-01,1.13612e-02,9.99999e-01
5.559299443e-01,1.24110e-02,9.99999e-01,9.99999e-01,9.99999e-01,9.99939e-01,1.24118e-02,9.99999e-01
5.587095940e-01,1.35353e-02,9.99999e-01,9.99999e-01,9.99999e-01,9.99961e-01,1.35358e-02,9.99999e-01
5.615031420e-01,1.47358e-02,9.99999e-01,9.99999e-01,9.99999e-01,9.99957e-01,1.47364e-02,9.99999e-01
5.643106577e-01,1.60159e-02,9.99999e-01,9.99999e-01,9.99999e-01,9.99951e-01,1.60166e-02,9.99999e-01
5.671322110e-01,1.73691e-02,9.99999e-01,9.99999e-01,9.99999e-01,9.99412e-01,1.73794e-02,9.99994e-01
5.699678720e-01,1.88160e-02,9.99999e-01,9.99999e-01,9.99999e-01,9.99387e-01,1.88278e-02,9.99983e-01
5.728177114e-01,2.03513e-02,9.99999e-01,9.99999e-01,9.99999e-01,9.99356e-01,2.03646e-02,9.99986e-01
5.756818000e-01,2.19797e-02,9.99999e-01,9.99999e-01,9.99999e-01,9.99410e-01,2.19928e-02,9.99991e-01
5.785602090e-01,2.37029e-02,9.99999e-01,9.99999e-01,9.99999e-01,9.99487e-01,2.37151e-02,9.99997e-01
5.814530100e-01,2.55210e-02,9.99999e-01,9.99999e-01,9.99999e-01,9.99484e-01,2.55342e-02,9.99998e-01
5.843602750e-01,2.74356e-02,9.99999e-01,9.99999e-01,9.99999e-01,9.99381e-01,2.74527e-02,9.99996e-01
5.872820764e-01,2.93154e-02,9.99999e-01,9.99999e-01,9.99999e-01,9.94684e-01,2.94732e-02,9.99962e-01
5.902184868e-01,3.13927e-02,9.99999e-01,9.99999e-01,9.99999e-01,9.93603e-01,3.15980e-02,9.99898e-01
5.931695792e-01,3.36729e-02,9.99999e-01,9.99999e-01,9.99999e-01,9.95468e-01,3.38294e-02,9.99902e-01
5.961354271e-01,3.59883e-02,9.99999e-01,9.99999e-01,9.99999e-01,9.95041e-01,3.61697e-02,9.99943e-01
5.991161043e-01,3.84805e-02,9.99999e-01,9.99999e-01,9.99999e-01,9.96384e-01,3.86208e-02,9.99982e-01
6.021116848e-01,4.11001e-02,9.99999e-01,9.99999e-01,9.99999e-01,9.97949e-01,4.11846e-02,9.99997e-01
6.051222432e-01,4.38174e-02,9.99999e-01,9.99999e-01,9.99999e-01,9.98962e-01,4.38629e-02,9.99999e-01
6.081478544e-01,4.66364e-02,9.99999e-01,9.99999e-01,9.99999e-01,9.99551e-01,4.66572e-02,9.99999e-01
6.111885937e-01,4.95598e-02,9.99999e-01,9.99999e-01,9.99999e-01,9.99810e-01,4.95691e-02,9.99999e-01
6.142445367e-01,5.25953e-02,9.99999e-01,9.99999e-01,9.99999e-01,9.99914e-01,5.25998e-02,9.99999e-01
6.173157594e-01,5.57478e-02,9.99999e-01,9.99999e-01,9.99999e-01,9.99952e-01,5.57504e-02,9.99999e-01
6.204023382e-01,5.90195e-02,9.99999e-01,9.99999e-01,9.99999e-01,9.99959e-01,5.90218e-02,9.99999e-01
6.235043498e-01,6.24038e-02,9.99999e-01,9.99999e-01,9.99999e-01,9.99823e-01,6.24149e-02,9.99999e-01
6.266218716e-01,6.58688e-02,9.99999e-01,9.99999e-01,9.99999e-01,9.99076e-01,6.59301e-02,9.99993e-01
6.297549810e-01,6.95436e-02,9.99999e-01,9.99999e-01,9.99999e-01,9.99660e-01,6.95681e-02,9.99986e-01
6.329037559e-01,7.32792e-02,9.99999e-01,9.99999e-01,9.99999e-01,9.99331e-01,7.33289e-02,9.99989e-01
6.360682746e-01,7.71682e-02,9.99999e-01,9.99999e-01,9.99999e-01,9.99428e-01,7.72127e-02,9.99993e-01
6.392486160e-01,8.11592e-02,9.99999e-01,9.99999e-01,9.99999e-01,9.99261e-01,8.12194e-02,9.99996e-01
6.424448591e-01,8.52634e-02,9.99999e-01,9.99999e-01,9.99999e-01,9.99005e-01,8.53487e-02,9.99994e-01
6.456570834e-01,8.91845e-02,9.99999e-01,9.99999e-01,9.99999e-01,9.95389e-01,8.96000e-02,9.99971e-01
6.488853688e-01,9.36515e-02,9.99999e-01,9.99999e-01,9.99999e-01,9.96650e-01,9.39729e-02,9.99928e-01
6.521297956e-01,9.81246e-02,9.99999e-01,9.99999e-01,9.99999e-01,9.96585e-01,9.84665e-02,9.99940e-01
6.553904446e-01,1.02724e-01,9.99999e-01,9.99999e-01,9.99999e-01,9.96589e-01,1.03080e-01,9.99955e-01
6.586673968e-01,1.07496e-01,9.99999e-01,9.99999e-01,9.99999e-01,9.97088e-01,1.07812e-01,9.99984e-01
6.619607338e-01,1.12478e-01,9.99999e-01,9.99999e-01,9.99999e-01,9.98376e-01,1.12661e-01,9.99996e-01
6.652705375e-01,1.17511e-01,9.99999e-01,9.99999e-01,9.99999e-01,9.99025e-01,1.17626e-01,9.99997e-01
6.685968902e-01,1.22654e-01,9.99999e-01,9.99999e-01,9.99999e-01,9.99585e-01,1.22705e-01,9.99999e-01
6.719398746e-01,1.27870e-01,9.99999e-01,9.99999e-01,9.99999e-01,9.99790e-01,1.27897e-01,9.99999e-01
6.752995740e-01,1.33184e-01,9.99999e-01,9.99999e-01,9.99999e-01,9.99888e-01,1.33199e-01,9.99999e-01
6.786760719e-01,1.38587e-01,9.99999e-01,9.99999e-01,9.99999e-01,9.99834e-01,1.38610e-01,9.99999e-01
6.820694522e-01,1.44087e-01,9.99999e-01,9.99999e-01,9.99999e-01,9.99717e-01,1.44127e-01,9.99998e-01
6.854797995e-01,1.49694e-01,9.99999e-01,9.99999e-01,9.99999e-01,9.99635e-01,1.49749e-01,9.99996e-01
6.889071985e-01,1.55332e-01,9.99999e-01,9.99999e-01,9.99999e-01,9.99109e-01,1.55472e-01,9.99991e-01
6.923517345e-01,1.58969e-01,9.99999e-01,9.99999e-01,9.99999e-01,9.85650e-01,1.61294e-01,9.99930e-01
6.958134932e-01,1.65956e-01,9.99999e-01,9.99999e-01,9.99999e-01,9.92629e-01,1.67213e-01,9.99847e-01
6.992925606e-01,1.71970e-01,9.99999e-01,9.99999e-01,9.99999e-01,9.92888e-01,1.73226e-01,9.99862e-01
7.027890234e-01,1.77747e-01,9.99999e-01,9.99999e-01,9.99999e-01,9.91277e-01,1.79330e-01,9.99894e-01
7.063029686e-01,1.84150e-01,9.99999e-01,9.99999e-01,9.99999e-01,9.92657e-01,1.85521e-01,9.99947e-01
7.098344834e-01,1.90441e-01,9.99999e-01,9.99999e-01,9.99999e-01,9.92953e-01,1.91798e-01,9.99968e-01
7.133836558e-01,1.96270e-01,9.99999e-01,9.99999e-01,9.99999e-01,9.90536e-01,1.98158e-01,9.99938e-01
7.169505741e-01,1.89515e-01,9.99999e-01,9.99999e-01,9.99999e-01,9.26735e-01,2.04596e-01,9.99517e-01
7.205353270e-01,2.03321e-01,9.99999e-01,9.99999e-01,9.99999e-01,9.63925e-01,2.11110e-01,9.99148e-01
7.241380036e-01,2.07499e-01,9.99999e-01,9.99999e-01,9.99999e-01,9.53860e-01,2.17696e-01,9.99264e-01
7.277586936e-01,2.14868e-01,9.99999e-01,9.99999e-01,9.99999e-01,9.58302e-01,2.24352e-01,9.99398e-01
7.313974871e-01,2.20822e-01,9.99999e-01,9.99999e-01,9.99999e-01,9.55903e-01,2.31074e-01,9.99718e-01
7.350544745e-01,2.32041e-01,9.99999e-01,9.99999e-01,9.99999e-01,9.75637e-01,2.37858e-01,9.99901e-01
7.387297469e-01,2.40292e-01,9.99999e-01,9.99999e-01,9.99999e-01,9.82023e-01,2.44702e-01,9.99954e-01
7.424233956e-01,2.49381e-01,9.99999e-01,9.99999e-01,9.99999e-01,9.91180e-01,2.51601e-01,9.99991e-01
7.461355126e-01,2.57168e-01,9.99999e-01,9.99999e-01,9.99999e-01,9.94641e-01,2.58554e-01,9.99998e-01
7.498661902e-01,2.64893e-01,9.99999e-01,9.99999e-01,9.99999e-01,9.97507e-01,2.65555e-01,9.99998e-01
7.536155211e-01,2.72267e-01,9.99999e-01,9.99999e-01,9.99999e-01,9.98773e-01,2.72602e-01,9.99999e-01
7.573835987e-01,2.79514e-01,9.99999e-01,9.99999e-01,9.99999e-01,9.99368e-01,2.79691e-01,9.99999e-01
7.611705167e-01,2.86706e-01,9.99999e-01,9.99999e-01,9.99999e-01,9.99607e-01,2.86819e-01,9.99999e-01
7.649763693e-01,2.93910e-01,9.99999e-01,9.99999e-01,9.99999e-01,9.99753e-01,2.93982e-01,9.99999e-01
7.688012511e-01,3.01126e-01,9.99999e-01,9.99999e-01,9.99999e-01,9.99828e-01,3.01178e-01,9.99999e-01
7.726452574e-01,3.08359e-01,9.99999e-01,9.99999e-01,9.99999e-01,9.99858e-01,3.08402e-01,9.99999e-01
7.765084837e-01,3.15589e-01,9.99999e-01,9.99999e-01,9.99999e-01,9.99797e-01,3.15652e-01,9.99999e-01
7.803910261e-01,3.06212e-01,9.99999e-01,9.99999e-01,9.49036e-01,9.99127e-01,3.22924e-01,9.99998e-01
7.842929812e-01,2.61608e-01,9.99999e-01,9.99999e-01,7.94488e-01,9.96955e-01,3.30215e-01,9.99993e-01
7.882144461e-01,2.62183e-01,9.99999e-01,9.99999e-01,7.81405e-01,9.93774e-01,3.37522e-01,9.99956e-01
7.921555184e-01,2.96958e-01,9.99999e-01,9.99999e-01,8.64045e-01,9.96595e-01,3.44841e-01,9.99925e-01
7.961162960e-01,3.17502e-01,9.99999e-01,9.99999e-01,9.07046e-01,9.93938e-01,3.52170e-01,9.99928e-01
8.000968774e-01,3.38563e-01,9.99999e-01,9.99999e-01,9.48399e-01,9.93030e-01,3.59505e-01,9.99924e-01
8.040973618e-01,3.54436e-01,9.99999e-01,9.99999e-01,9.73002e-01,9.93020e-01,3.66844e-01,9.99942e-01
8.081178486e-01,3.63673e-01,9.99999e-01,9.99999e-01,9.87475e-01,9.84263e-01,3.74183e-01,9.99941e-01
8.121584379e-01,3.55715e-01,9.99999e-01,9.99999e-01,9.96144e-01,9.36124e-01,3.81519e-01,9.99779e-01
8.162192301e-01,3.59159e-01,9.99999e-01,9.99999e-01,9.99147e-01,9.25174e-01,3.88850e-01,9.99171e-01
8.203003262e-01,3.80612e-01,9.99999e-01,9.99999e-01,9.99987e-01,9.61661e-01,3.96173e-01,9.99030e-01
8.244018279e-01,3.82146e-01,9.99999e-01,9.99999e-01,9.99999e-01,9.47841e-01,4.03486e-01,9.99228e-01
8.285238370e-01,3.91825e-01,9.99999e-01,9.99999e-01,9.99999e-01,9.54424e-01,4.10784e-01,9.99393e-01
8.326664562e-01,3.98773e-01,9.99999e-01,9.99999e-01,9.99999e-01,9.54087e-01,4.18067e-01,9.99748e-01
8.368297885e-01,4.11277e-01,9.99999e-01,9.99999e-01,9.99999e-01,9.67012e-01,4.25331e-01,9.99942e-01
8.410139374e-01,4.24029e-01,9.99999e-01,9.99999e-01,9.99999e-01,9.80276e-01,4.32574e-01,9.99966e-01
8.452190071e-01,4.35516e-01,9.99999e-01,9.99999e-01,9.99999e-01,9.90290e-01,4.39794e-01,9.99979e-01
8.494451021e-01,4.44452e-01,9.99999e-01,9.99999e-01,9.99999e-01,9.94341e-01,4.46988e-01,9.99983e-01
8.536923276e-01,4.52633e-01,9.99999e-01,9.99999e-01,9.99999e-01,9.96658e-01,4.54155e-01,9.99989e-01
8.579607893e-01,4.60338e-01,9.99999e-01,9.99999e-01,9.99999e-01,9.97936e-01,4.61291e-01,9.99997e-01
8.622505932e-01,4.67782e-01,9.99999e-01,9.99999e-01,9.99999e-01,9.98691e-01,4.68395e-01,9.99999e-01
8.665618462e-01,4.28710e-01,9.99999e-01,9.99999e-01,9.02361e-01,9.99188e-01,4.75465e-01,9.99999e-01
8.708946554e-01,2.69847e-01,9.99999e-01,9.99999e-01,5.59764e-01,9.99068e-01,4.82499e-01,9.99998e-01
8.752491287e-01,3.05295e-01,9.99999e-01,9.99999e-01,6.24440e-01,9.98755e-01,4.89494e-01,9.99998e-01
8.796253743e-01,3.81889e-01,9.99999e-01,9.99999e-01,7.70515e-01,9.98272e-01,4.96451e-01,9.99995e-01
8.840235012e-01,4.38557e-01,9.99999e-01,9.99999e-01,8.72942e-01,9.98028e-01,5.03365e-01,9.99987e-01
8.884436187e-01,4.80202e-01,9.99999e-01,9.99999e-01,9.47952e-01,9.92733e-01,5.10237e-01,9.99965e-01
8.928858368e-01,4.68937e-01,9.99999e-01,9.99999e-01,9.78530e-01,9.26732e-01,5.17064e-01,9.99803e-01
8.973502660e-01,4.55553e-01,9.99999e-01,9.99999e-01,9.94766e-01,8.74947e-01,5.23844e-01,9.98992e-01
9.018370173e-01,4.94737e-01,9.99999e-01,9.99999e-01,9.99423e-01,9.34442e-01,5.30577e-01,9.98416e-01
9.063462024e-01,4.97831e-01,9.99999e-01,9.99999e-01,9.84971e-01,9.41376e-01,5.37261e-01,9.98609e-01
9.108779334e-01,4.78090e-01,9.99999e-01,9.99999e-01,9.66281e-01,9.10419e-01,5.43895e-01,9.98554e-01
9.154323231e-01,4.90457e-01,9.99999e-01,9.99999e-01,9.92045e-01,8.98951e-01,5.50477e-01,9.98805e-01
9.200094847e-01,4.59741e-01,9.99999e-01,9.99999e-01,8.91906e-01,9.20148e-01,5.57007e-01,9.99330e-01
9.246095321e-01,4.19500e-01,9.99999e-01,9.99999e-01,8.45557e-01,8.77284e-01,5.63482e-01,9.99229e-01
9.292325798e-01,2.15924e-01,9.99999e-01,9.99999e-01,8.76497e-01,4.25605e-01,5.69903e-01,9.96285e-01
9.338787427e-01,1.71265e-01,9.99999e-01,9.99999e-01,8.80818e-01,3.35889e-01,5.76268e-01,9.86640e-01
9.385481364e-01,3.38816e-01,9.99999e-01,9.99999e-01,9.10742e-01,6.43121e-01,5.82576e-01,9.85331e-01
9.432408771e-01,2.99759e-01,9.99999e-01,9.99999e-01,9.44405e-01,5.43527e-01,5.88827e-01,9.87332e-01
9.479570815e-01,2.48793e-01,9.99999e-01,9.99999e-01,9.71030e-01,4.34112e-01,5.95019e-01,9.89678e-01
9.526968669e-01,3.13545e-01,9.99999e-01,9.99999e-01,9.85953e-01,5.31457e-01,6.01152e-01,9.93691e-01
9.574603512e-01,3.33096e-01,9.99999e-01,9.99999e-01,9.93972e-01,5.53330e-01,6.07225e-01,9.96790e-01
9.622476530e-01,3.76707e-01,9.99999e-01,9.99999e-01,9.98117e-01,6.16717e-01,6.13238e-01,9.97779e-01
9.670588912e-01,4.67145e-01,9.99999e-01,9.99999e-01,9.99436e-01,7.55984e-01,6.19190e-01,9.98480e-01
9.718941857e-01,5.23447e-01,9.99999e-01,9.99999e-01,9.99960e-01,8.38373e-01,6.25081e-01,9.98881e-01
9.767536566e-01,5.44499e-01,9.99999e-01,9.99999e-01,9.99999e-01,8.63776e-01,6.30909e-01,9.99144e-01
9.816374249e-01,5.71074e-01,9.99999e-01,9.99999e-01,9.99999e-01,8.97227e-01,6.36675e-01,9.99703e-01
9.865456120e-01,6.00244e-01,9.99999e-01,9.99999e-01,9.99999e-01,9.34465e-01,6.42379e-01,9.99937e-01
9.914783401e-01,6.21399e-01,9.99999e-01,9.99999e-01,9.99999e-01,9.58936e-01,6.48019e-01,9.99982e-01
9.964357318e-01,6.38839e-01,9.99999e-01,9.99999e-01,9.99999e-01,9.77431e-01,6.53596e-01,9.99989e-01
1.001417910e+00,6.50147e-01,9.99999e-01,9.99999e-01,9.99999e-01,9.86416e-01,6.59109e-01,9.99984e-01
1.006425000e+00,6.59377e-01,9.99999e-01,9.99999e-01,9.99999e-01,9.92223e-01,6.64559e-01,9.99977e-01
1.011457125e+00,6.66700e-01,9.99999e-01,9.99999e-01,9.99999e-01,9.95175e-01,6.69945e-01,9.99979e-01
1.016514411e+00,6.73042e-01,9.99999e-01,9.99999e-01,9.99999e-01,9.96719e-01,6.75266e-01,9.99985e-01
1.021596983e+00,6.78674e-01,9.99999e-01,9.99999e-01,9.99911e-01,9.97383e-01,6.80524e-01,9.99985e-01
1.026704968e+00,6.80263e-01,9.99999e-01,9.99999e-01,9.94078e-01,9.97958e-01,6.85717e-01,9.99990e-01
1.031838492e+00,6.46707e-01,9.99999e-01,9.99999e-01,9.37443e-01,9.98518e-01,6.90847e-01,9.99996e-01
1.036997685e+00,6.98969e-02,9.99999e-01,9.99999e-01,1.00508e-01,9.99118e-01,6.95912e-01,9.99999e-01
1.042182673e+00,3.01186e-02,9.99999e-01,9.99999e-01,4.30088e-02,9.98945e-01,7.00913e-01,9.99999e-01
1.047393587e+00,4.57053e-02,9.99999e-01,9.99999e-01,6.48303e-02,9.98604e-01,7.05850e-01,9.99999e-01
1.052630555e+00,2.61917e-04,9.99999e-01,9.99999e-01,3.69010e-04,9.98083e-01,7.10724e-01,9.99998e-01
1.057893707e+00,8.39158e-04,9.99999e-01,9.99999e-01,1.17507e-03,9.96797e-01,7.15534e-01,9.99998e-01
1.063183176e+00,4.73927e-03,9.99999e-01,9.99999e-01,6.60267e-03,9.94739e-01,7.20280e-01,9.99996e-01
1.068499092e+00,1.96765e-02,9.99999e-01,9.99999e-01,2.73296e-02,9.91214e-01,7.24964e-01,9.99993e-01
1.073841587e+00,7.38778e-02,9.99999e-01,9.99999e-01,1.02111e-01,9.89711e-01,7.29584e-01,9.99986e-01
