#,Wave/freq,Total,N2,O2,CO2,H2O,Rayleigh,CIA
4.000000000e-01,1.54038e-03,9.99999e-01,9.99999e-01,9.99999e-01,9.99987e-01,1.54040e-03,9.99999e-01
4.020000000e-01,1.75081e-03,9.99999e-01,9.99999e-01,9.99999e-01,9.99991e-01,1.75082e-03,9.99999e-01
4.040100000e-01,1.98469e-03,9.99999e-01,9.99999e-01,9.99999e-01,9.99996e-01,1.98470e-03,9.99999e-01
4.060300500e-01,2.24425e-03,9.99999e-01,9.99999e-01,9.99999e-01,9.99998e-01,2.24425e-03,9.99999e-01
4.080602003e-01,2.53160e-03,9.99999e-01,9.99999e-01,9.99999e-01,9.99999e-01,2.53160e-03,9.99999e-01
4.101005013e-01,2.84894e-03,9.99999e-01,9.99999e-01,9.99999e-01,9.99999e-01,2.84894e-03,9.99999e-01
4.121510038e-01,3.19860e-03,9.99999e-01,9.99999e-01,9.99999e-01,9.99999e-01,3.19860e-03,9.99999e-01
4.142117588e-01,3.58296e-03,9.99999e-01,9.99999e-01,9.99999e-01,9.99996e-01,3.58297e-03,9.99999e-01
4.162828176e-01,4.00448e-03,9.99999e-01,9.99999e-01,9.99999e-01,9.99984e-01,4.00454e-03,9.99999e-01
4.183642317e-01,4.46585e-03,9.99999e-01,9.99999e-01,9.99999e-01,9.99990e-01,4.46590e-03,9.99999e-01
4.204560528e-01,4.96966e-03,9.99999e-01,9.99999e-01,9.99999e-01,9.99993e-01,4.96968e-03,9.99999e-01
4.225583331e-01,5.51863e-03,9.99999e-01,9.99999e-01,9.99999e-01,9.99997e-01,5.51864e-03,9.99999e-01
4.246711247e-01,6.11555e-03,9.99999e-01,9.99999e-01,9.99999e-01,9.99997e-01,6.11556e-03,9.99999e-01
4.267944804e-01,6.76330e-03,9.99999e-01,9.99999e-01,9.99999e-01,9.99997e-01,6.76332e-03,9.99999e-01
4.289284528e-01,7.46481e-03,9.99999e-01,9.99999e-01,9.99999e-01,9.99997e-01,7.46482e-03,9.99999e-01
4.310730950e-01,8.22304e-03,9.99999e-01,9.99999e-01,9.99999e-01,9.99998e-01,8.22304e-03,9.99999e-01
4.332284605e-01,9.04098e-03,9.99999e-01,9.99999e-01,9.99999e-01,9.99999e-01,9.04099e-03,9.99999e-01
4.353946028e-01,9.92169e-03,9.99999e-01,9.99999e-01,9.99999e-01,9.99999e-01,9.92169e-03,9.99999e-01
4.375715758e-01,1.08682e-02,9.99999e-01,9.99999e-01,9.99999e-01,9.99998e-01,1.08682e-02,9.99999e-01
4.397594337e-01,1.18835e-02,9.99999e-01,9.99999e-01,9.99999e-01,9.99986e-01,1.18836e-02,9.99999e-01
4.419582309e-01,1.29701e-02,9.99999e-01,9.99999e-01,9.99999e-01,9.99931e-01,1.29710e-02,9.99999e-01
4.441680220e-01,1.41326e-02,9.99999e-01,9.99999e-01,9.99999e-01,9.99945e-01,1.41334e-02,9.99999e-01
4.463888621e-01,1.53730e-02,9.99999e-01,9.99999e-01,9.99999e-01,9.99943e-01,1.53739e-02,9.99999e-01
4.486208064e-01,1.66949e-02,9.99999e-01,9.99999e-01,9.99999e-01,9.99964e-01,1.66955e-02,9.99999e-01
4.508639105e-01,1.81009e-02,9.99999e-01,9.99999e-01,9.99999e-01,9.99983e-01,1.81012e-02,9.99999e-01
4.531182300e-01,1.95938e-02,9.99999e-01,9.99999e-01,9.99999e-01,9.99993e-01,1.95940e-02,9.99999e-01
4.553838212e-01,2.11765e-02,9.99999e-01,9.99999e-01,9.99999e-01,9.99995e-01,2.11766e-02,9.99999e-01
4.576607403e-01,2.28520e-02,9.99999e-01,9.99999e-01,9.99999e-01,9.99997e-01,2.28521e-02,9.99999e-01
4.599490440e-01,2.46229e-02,9.99999e-01,9.99999e-01,9.99999e-01,9.99998e-01,2.46230e-02,9.99999e-01
4.622487892e-01,2.64920e-02,9.99999e-01,9.99999e-01,9.99999e-01,9.99999e-01,2.64921e-02,9.99999e-01
4.645600332e-01,2.84618e-02,9.99999e-01,9.99999e-01,9.99999e-01,9.99998e-01,2.84618e-02,9.99999e-01
4.668828333e-01,3.05343e-02,9.99999e-01,9.99999e-01,9.99999e-01,9.99983e-01,3.05348e-02,9.99999e-01
4.692172475e-01,3.27121e-02,9.99999e-01,9.99999e-01,9.99999e-01,9.99964e-01,3.27133e-02,9.99999e-01
4.715633337e-01,3.49987e-02,9.99999e-01,9.99999e-01,9.99999e-01,9.99976e-01,3.49995e-02,9.99999e-01
4.739211504e-01,3.73948e-02,9.99999e-01,9.99999e-01,9.99999e-01,9.99977e-01,3.73956e-02,9.99999e-01
4.762907561e-01,3.99030e-02,9.99999e-01,9.99999e-01,9.99999e-01,9.99988e-01,3.99035e-02,9.99999e-01
4.786722099e-01,4.25248e-02,9.99999e-01,9.99999e-01,9.99999e-01,9.99994e-01,4.25250e-02,9.99999e-01
4.810655710e-01,4.52617e-02,9.99999e-01,9.99999e-01,9.99999e-01,9.99998e-01,4.52618e-02,9.99999e-01
4.834708988e-01,4.81148e-02,9.99999e-01,9.99999e-01,9.99999e-01,9.99986e-01,4.81154e-02,9.99999e-01
4.858882533e-01,5.10860e-02,9.99999e-01,9.99999e-01,9.99999e-01,9.99974e-01,5.10873e-02,9.99999e-01
4.883176946e-01,5.41773e-02,9.99999e-01,9.99999e-01,9.99999e-01,9.99978e-01,5.41785e-02,9.99999e-01
4.907592831e-01,5.73890e-02,9.99999e-01,9.99999e-01,9.99999e-01,9.99980e-01,5.73901e-02,9.99999e-01
4.932130795e-01,6.07221e-02,9.99999e-01,9.99999e-01,9.99999e-01,9.99986e-01,6.07229e-02,9.99999e-01
4.956791449e-01,6.41773e-02,9.99999e-01,9.99999e-01,9.99999e-01,9.99992e-01,6.41778e-02,9.99999e-01
4.981575406e-01,6.77527e-02,9.99999e-01,9.99999e-01,9.99999e-01,9.99964e-01,6.77550e-02,9.99999e-01
5.006483283e-01,7.14486e-02,9.99999e-01,9.99999e-01,9.99999e-01,9.99908e-01,7.14551e-02,9.99998e-01
5.031515699e-01,7.52430e-02,9.99999e-01,9.99999e-01,9.99999e-01,9.99536e-01,7.52782e-02,9.99994e-01
5.056673278e-01,7.92043e-02,9.99999e-01,9.99999e-01,9.99999e-01,9.99754e-01,7.92242e-02,9.99993e-01
5.081956644e-01,8.32669e-02,9.99999e-01,9.99999e-01,9.99999e-01,9.99690e-01,8.32929e-02,9.99995e-01
5.107366428e-01,8.74657e-02,9.99999e-01,9.99999e-01,9.99999e-01,9.99790e-01,8.74840e-02,9.99998e-01
5.132903260e-01,9.17860e-02,9.99999e-01,9.99999e-01,9.99999e-01,9.99880e-01,9.17969e-02,9.99999e-01
5.158567776e-01,9.62261e-02,9.99999e-01,9.99999e-01,9.99999e-01,9.99949e-01,9.62310e-02,9.99999e-01
5.184360615e-01,1.00783e-01,9.99999e-01,9.99999e-01,9.99999e-01,9.99979e-01,1.00785e-01,9.99999e-01
5.210282418e-01,1.05458e-01,9.99999e-01,9.99999e-01,9.99999e-01,9.99991e-01,1.05459e-01,9.99999e-01
5.236333830e-01,1.10247e-01,9.99999e-01,9.99999e-01,9.99999e-01,9.99969e-01,1.10250e-01,9.99999e-01
5.262515499e-01,1.15156e-01,9.99999e-01,9.99999e-01,9.99999e-01,9.99980e-01,1.15158e-01,9.99999e-01
5.288828077e-01,1.20179e-01,9.99999e-01,9.99999e-01,9.99999e-01,9.99982e-01,1.20181e-01,9.99999e-01
5.315272217e-01,1.25316e-01,9.99999e-01,9.99999e-01,9.99999e-01,9.99984e-01,1.25317e-01,9.99999e-01
5.341848578e-01,1.30564e-01,9.99999e-01,9.99999e-01,9.99999e-01,9.99989e-01,1.30565e-01,9.99999e-01
5.368557821e-01,1.35918e-01,9.99999e-01,9.99999e-01,9.99999e-01,9.99964e-01,1.35923e-01,9.99999e-01
5.395400610e-01,1.41370e-01,9.99999e-01,9.99999e-01,9.99999e-01,9.99873e-01,1.41388e-01,9.99998e-01
5.422377613e-01,1.46934e-01,9.99999e-01,9.99999e-01,9.99999e-01,9.99835e-01,1.46958e-01,9.99996e-01
5.449489501e-01,1.52608e-01,9.99999e-01,9.99999e-01,9.99999e-01,9.99847e-01,1.52631e-01,9.99996e-01
5.476736949e-01,1.58383e-01,9.99999e-01,9.99999e-01,9.99999e-01,9.99864e-01,1.58405e-01,9.99997e-01
5.504120634e-01,1.64260e-01,9.99999e-01,9.99999e-01,9.99999e-01,9.99901e-01,1.64276e-01,9.99999e-01
5.531641237e-01,1.70235e-01,9.99999e-01,9.99999e-01,9.99999e-01,9.99950e-01,1.70243e-01,9.99999e-01
5.559299443e-01,1.76298e-01,9.99999e-01,9.99999e-01,9.99999e-01,9.99975e-01,1.76302e-01,9.99999e-01
5.587095940e-01,1.82448e-01,9.99999e-01,9.99999e-01,9.99999e-01,9.99984e-01,1.82451e-01,9.99999e-01
5.615031420e-01,1.88683e-01,9.99999e-01,9.99999e-01,9.99999e-01,9.99982e-01,1.88686e-01,9.99999e-01
5.643106577e-01,1.95002e-01,9.99999e-01,9.99999e-01,9.99999e-01,9.99980e-01,1.95005e-01,9.99999e-01
5.671322110e-01,2.01359e-01,9.99999e-01,9.99999e-01,9.99999e-01,9.99773e-01,2.01405e-01,9.99997e-01
5.699678720e-01,2.07829e-01,9.99999e-01,9.99999e-01,9.99999e-01,9.99754e-01,2.07881e-01,9.99993e-01
5.728177114e-01,2.14377e-01,9.99999e-01,9.99999e-01,9.99999e-01,9.99746e-01,2.14433e-01,9.99994e-01
5.756818000e-01,2.21002e-01,9.99999e-01,9.99999e-01,9.99999e-01,9.99766e-01,2.21054e-01,9.99996e-01
5.785602090e-01,2.27698e-01,9.99999e-01,9.99999e-01,9.99999e-01,9.99796e-01,2.27744e-01,9.99998e-01
5.814530100e-01,2.34450e-01,9.99999e-01,9.99999e-01,9.99999e-01,9.99795e-01,2.34498e-01,9.99999e-01
5.843602750e-01,2.41254e-01,9.99999e-01,9.99999e-01,9.99999e-01,9.99757e-01,2.41313e-01,9.99998e-01
5.872820764e-01,2.47664e-01,9.99999e-01,9.99999e-01,9.99999e-01,9.97913e-01,2.48185e-01,9.99984e-01
5.902184868e-01,2.54453e-01,9.99999e-01,9.99999e-01,9.99999e-01,9.97458e-01,2.55112e-01,9.99959e-01
5.931695792e-01,2.61609e-01,9.99999e-01,9.99999e-01,9.99999e-01,9.98207e-01,2.62089e-01,9.99960e-01
5.961354271e-01,2.68578e-01,9.99999e-01,9.99999e-01,9.99999e-01,9.98032e-01,2.69114e-01,9.99975e-01
5.991161043e-01,2.75784e-01,9.99999e-01,9.99999e-01,9.99999e-01,9.98563e-01,2.76183e-01,9.99992e-01
6.021116848e-01,2.83061e-01,9.99999e-01,9.99999e-01,9.99999e-01,9.99184e-01,2.83292e-01,9.99998e-01
6.051222432e-01,2.90318e-01,9.99999e-01,9.99999e-01,9.99999e-01,9.99586e-01,2.90438e-01,9.99999e-01
6.081478544e-01,2.97566e-01,9.99999e-01,9.99999e-01,9.99999e-01,9.99821e-01,2.97618e-01,9.99999e-01
6.111885937e-01,3.04806e-01,9.99999e-01,9.99999e-01,9.99999e-01,9.99924e-01,3.04829e-01,9.99999e-01
6.142445367e-01,3.12056e-01,9.99999e-01,9.99999e-01,9.99999e-01,9.99965e-01,3.12067e-01,9.99999e-01
6.173157594e-01,3.19322e-01,9.99999e-01,9.99999e-01,9.99999e-01,9.99980e-01,3.19328e-01,9.99999e-01
6.204023382e-01,3.26605e-01,9.99999e-01,9.99999e-01,9.99999e-01,9.99983e-01,3.26610e-01,9.99999e-01
6.235043498e-01,3.33887e-01,9.99999e-01,9.99999e-01,9.99999e-01,9.99931e-01,3.33910e-01,9.99999e-01
6.266218716e-01,3.41098e-01,9.99999e-01,9.99999e-01,9.99999e-01,9.99634e-01,3.41223e-01,9.99996e-01
6.297549810e-01,3.48499e-01,9.99999e-01,9.99999e-01,9.99999e-01,9.99865e-01,3.48548e-01,9.99994e-01
6.329037559e-01,3.55784e-01,9.99999e-01,9.99999e-01,9.99999e-01,9.99734e-01,3.55880e-01,9.99995e-01
6.360682746e-01,3.63135e-01,9.99999e-01,9.99999e-01,9.99999e-01,9.99774e-01,3.63217e-01,9.99997e-01
6.392486160e-01,3.70448e-01,9.99999e-01,9.99999e-01,9.99999e-01,9.99707e-01,3.70556e-01,9.99998e-01
6.424448591e-01,3.77747e-01,9.99999e-01,9.99999e-01,9.99999e-01,9.99610e-01,3.77894e-01,9.99997e-01
6.456570834e-01,3.84529e-01,9.99999e-01,9.99999e-01,9.99999e-01,9.98193e-01,3.85228e-01,9.99989e-01
6.488853688e-01,3.92022e-01,9.99999e-01,9.99999e-01,9.99999e-01,9.98668e-01,3.92556e-01,9.99971e-01
6.521297956e-01,3.99322e-01,9.99999e-01,9.99999e-01,9.99999e-01,9.98642e-01,3.99874e-01,9.99975e-01
6.553904446e-01,4.06626e-01,9.99999e-01,9.99999e-01,9.99999e-01,9.98658e-01,4.07180e-01,9.99981e-01
6.586673968e-01,4.13989e-01,9.99999e-01,9.99999e-01,9.99999e-01,9.98842e-01,4.14470e-01,9.99993e-01
6.619607338e-01,4.21462e-01,9.99999e-01,9.99999e-01,9.99999e-01,9.99330e-01,4.21744e-01,9.99998e-01
6.652705375e-01,4.28831e-01,9.99999e-01,9.99999e-01,9.99999e-01,9.99611e-01,4.28998e-01,9.99998e-01
6.685968902e-01,4.36151e-01,9.99999e-01,9.99999e-01,9.99999e-01,9.99819e-01,4.36230e-01,9.99999e-01
6.719398746e-01,4.43400e-01,9.99999e-01,9.99999e-01,9.99999e-01,9.99916e-01,4.43437e-01,9.99999e-01
6.752995740e-01,4.50597e-01,9.99999e-01,9.99999e-01,9.99999e-01,9.99954e-01,4.50617e-01,9.99999e-01
6.786760719e-01,4.57739e-01,9.99999e-01,9.99999e-01,9.99999e-01,9.99934e-01,4.57768e-01,9.99999e-01
6.820694522e-01,4.64837e-01,9.99999e-01,9.99999e-01,9.99999e-01,9.99888e-01,4.64889e-01,9.99998e-01
6.854797995e-01,4.71907e-01,9.99999e-01,9.99999e-01,9.99999e-01,9.99856e-01,4.71976e-01,9.99998e-01
6.889071985e-01,4.78861e-01,9.99999e-01,9.99999e-01,9.99999e-01,9.99655e-01,4.79027e-01,9.99996e-01
6.923517345e-01,4.83281e-01,9.99999e-01,9.99999e-01,9.99999e-01,9.94346e-01,4.86042e-01,9.99972e-01
6.958134932e-01,4.91519e-01,9.99999e-01,9.99999e-01,9.99999e-01,9.97020e-01,4.93018e-01,9.99938e-01
6.992925606e-01,4.98529e-01,9.99999e-01,9.99999e-01,9.99999e-01,9.97204e-01,4.99954e-01,9.99945e-01
7.027890234e-01,5.05068e-01,9.99999e-01,9.99999e-01,9.99999e-01,9.96532e-01,5.06847e-01,9.99958e-01
7.063029686e-01,5.12189e-01,9.99999e-01,9.99999e-01,9.99999e-01,9.97086e-01,5.13696e-01,9.99978e-01
7.098344834e-01,5.19038e-01,9.99999e-01,9.99999e-01,9.99999e-01,9.97204e-01,5.20499e-01,9.99987e-01
7.133836558e-01,5.25294e-01,9.99999e-01,9.99999e-01,9.99999e-01,9.96301e-01,5.27256e-01,9.99975e-01
7.169505741e-01,5.18056e-01,9.99999e-01,9.99999e-01,9.99999e-01,9.70391e-01,5.33965e-01,9.99808e-01
7.205353270e-01,5.32476e-01,9.99999e-01,9.99999e-01,9.99999e-01,9.85260e-01,5.40623e-01,9.99663e-01
7.241380036e-01,5.36949e-01,9.99999e-01,9.99999e-01,9.99999e-01,9.81495e-01,5.47231e-01,9.99709e-01
7.277586936e-01,5.44396e-01,9.99999e-01,9.99999e-01,9.99999e-01,9.83276e-01,5.53787e-01,9.99762e-01
7.313974871e-01,5.50240e-01,9.99999e-01,9.99999e-01,9.99999e-01,9.82173e-01,5.60289e-01,9.99888e-01
7.350544745e-01,5.61186e-01,9.99999e-01,9.99999e-01,9.99999e-01,9.90243e-01,5.66737e-01,9.99960e-01
7.387297469e-01,5.69001e-01,9.99999e-01,9.99999e-01,9.99999e-01,9.92813e-01,5.73130e-01,9.99981e-01
7.424233956e-01,5.77422e-01,9.99999e-01,9.99999e-01,9.99999e-01,9.96474e-01,5.79466e-01,9.99996e-01
7.461355126e-01,5.84495e-01,9.99999e-01,9.99999e-01,9.99999e-01,9.97864e-01,5.85745e-01,9.99998e-01
7.498661902e-01,5.91377e-01,9.99999e-01,9.99999e-01,9.99999e-01,9.99003e-01,5.91966e-01,9.99999e-01
7.536155211e-01,5.97837e-01,9.99999e-01,9.99999e-01,9.99999e-01,9.99512e-01,5.98129e-01,9.99999e-01
7.573835987e-01,6.04080e-01,9.99999e-01,9.99999e-01,9.99999e-01,9.99748e-01,6.04232e-01,9.99999e-01
7.611705167e-01,6.10180e-01,9.99999e-01,9.99999e-01,9.99999e-01,9.99843e-01,6.10275e-01,9.99999e-01
7.649763693e-01,6.16197e-01,9.99999e-01,9.99999e-01,9.99999e-01,9.99901e-01,6.16257e-01,9.99999e-01
7.688012511e-01,6.22136e-01,9.99999e-01,9.99999e-01,9.99999e-01,9.99931e-01,6.22178e-01,9.99999e-01
7.726452574e-01,6.28002e-01,9.99999e-01,9.99999e-01,9.99999e-01,9.99943e-01,6.28037e-01,9.99999e-01
7.765084837e-01,6.33784e-01,9.99999e-01,9.99999e-01,9.99999e-01,9.99920e-01,6.33834e-01,9.99999e-01
7.803910261e-01,6.25887e-01,9.99999e-01,9.99999e-01,9.78935e-01,9.99658e-01,6.39568e-01,9.99999e-01
7.842929812e-01,5.86490e-01,9.99999e-01,9.99999e-01,9.10000e-01,9.98808e-01,6.45240e-01,9.99997e-01
7.882144461e-01,5.86982e-01,9.99999e-01,9.99999e-01,9.04059e-01,9.97532e-01,6.50848e-01,9.99984e-01
7.921555184e-01,6.18490e-01,9.99999e-01,9.99999e-01,9.43545e-01,9.98642e-01,6.56393e-01,9.99970e-01
7.961162960e-01,6.35039e-01,9.99999e-01,9.99999e-01,9.61760e-01,9.97617e-01,6.61874e-01,9.99971e-01
8.000968774e-01,6.51539e-01,9.99999e-01,9.99999e-01,9.79120e-01,9.97238e-01,6.67291e-01,9.99969e-01
8.040973618e-01,6.63470e-01,9.99999e-01,9.99999e-01,9.89108e-01,9.97240e-01,6.72645e-01,9.99975e-01
8.081178486e-01,6.70357e-01,9.99999e-01,9.99999e-01,9.95000e-01,9.93807e-01,6.77934e-01,9.99977e-01
8.121584379e-01,6.64544e-01,9.99999e-01,9.99999e-01,9.98445e-01,9.74340e-01,6.83159e-01,9.99912e-01
8.162192301e-01,6.66816e-01,9.99999e-01,9.99999e-01,9.99656e-01,9.69405e-01,6.88320e-01,9.99672e-01
8.203003262e-01,6.82570e-01,9.99999e-01,9.99999e-01,9.99994e-01,9.84738e-01,6.93417e-01,9.99616e-01
8.244018279e-01,6.83127e-01,9.99999e-01,9.99999e-01,9.99999e-01,9.78359e-01,6.98450e-01,9.99694e-01
8.285238370e-01,6.90401e-01,9.99999e-01,9.99999e-01,9.99999e-01,9.81728e-01,7.03419e-01,9.99759e-01
8.326664562e-01,6.95135e-01,9.99999e-01,9.99999e-01,9.99999e-01,9.81477e-01,7.08324e-01,9.99900e-01
8.368297885e-01,7.03695e-01,9.99999e-01,9.99999e-01,9.99999e-01,9.86742e-01,7.13165e-01,9.99976e-01
8.410139374e-01,7.12266e-01,9.99999e-01,9.99999e-01,9.99999e-01,9.92105e-01,7.17943e-01,9.99986e-01
8.452190071e-01,7.19849e-01,9.99999e-01,9.99999e-01,9.99999e-01,9.96121e-01,7.22657e-01,9.99991e-01
8.494451021e-01,7.25671e-01,9.99999e-01,9.99999e-01,9.99999e-01,9.97753e-01,7.27309e-01,9.99993e-01
8.536923276e-01,7.30920e-01,9.99999e-01,9.99999e-01,9.99999e-01,9.98668e-01,7.31897e-01,9.99995e-01
8.579607893e-01,7.35820e-01,9.99999e-01,9.99999e-01,9.99999e-01,9.99181e-01,7.36424e-01,9.99998e-01
8.622505932e-01,7.40502e-01,9.99999e-01,9.99999e-01,9.99999e-01,9.99479e-01,7.40887e-01,9.99999e-01
8.665618462e-01,7.05398e-01,9.99999e-01,9.99999e-01,9.46769e-01,9.99678e-01,7.45289e-01,9.99999e-01
8.708946554e-01,5.88582e-01,9.99999e-01,9.99999e-01,7.85445e-01,9.99632e-01,7.49630e-01,9.99999e-01
8.752491287e-01,6.21187e-01,9.99999e-01,9.99999e-01,8.24352e-01,9.99507e-01,7.53909e-01,9.99998e-01
8.796253743e-01,6.81876e-01,9.99999e-01,9.99999e-01,9.00022e-01,9.99320e-01,7.58127e-01,9.99997e-01
8.840235012e-01,7.21374e-01,9.99999e-01,9.99999e-01,9.47064e-01,9.99222e-01,7.62285e-01,9.99994e-01
8.884436187e-01,7.48015e-01,9.99999e-01,9.99999e-01,9.78776e-01,9.97192e-01,7.66383e-01,9.99986e-01
8.928858368e-01,7.41218e-01,9.99999e-01,9.99999e-01,9.91368e-01,9.70501e-01,7.70422e-01,9.99921e-01
8.973502660e-01,7.32342e-01,9.99999e-01,9.99999e-01,9.97889e-01,9.48040e-01,7.74401e-01,9.99601e-01
9.018370173e-01,7.56668e-01,9.99999e-01,9.99999e-01,9.99766e-01,9.73010e-01,7.78322e-01,9.99373e-01
9.063462024e-01,7.58955e-01,9.99999e-01,9.99999e-01,9.94127e-01,9.76458e-01,7.82184e-01,9.99449e-01
9.108779334e-01,7.46593e-01,9.99999e-01,9.99999e-01,9.86420e-01,9.63403e-01,7.85989e-01,9.99428e-01
9.154323231e-01,7.54211e-01,9.99999e-01,9.99999e-01,9.96779e-01,9.58512e-01,7.89736e-01,9.99527e-01
9.200094847e-01,7.32546e-01,9.99999e-01,9.99999e-01,9.53681e-01,9.67287e-01,7.93427e-01,9.99735e-01
9.246095321e-01,7.08132e-01,9.99999e-01,9.99999e-01,9.35222e-01,9.49517e-01,7.97062e-01,9.99694e-01
9.292325798e-01,5.35927e-01,9.99999e-01,9.99999e-01,9.48999e-01,7.03568e-01,8.00641e-01,9.98812e-01
9.338787427e-01,4.83251e-01,9.99999e-01,9.99999e-01,9.50481e-01,6.32998e-01,8.04165e-01,9.95099e-01
9.385481364e-01,6.44400e-01,9.99999e-01,9.99999e-01,9.63444e-01,8.31833e-01,8.07634e-01,9.94174e-01
9.432408771e-01,6.10534e-01,9.99999e-01,9.99999e-01,9.77445e-01,7.73386e-01,8.11050e-01,9.94972e-01
9.479570815e-01,5.61330e-01,9.99999e-01,9.99999e-01,9.88387e-01,6.99909e-01,8.14412e-01,9.95906e-01
9.526968669e-01,6.21533e-01,9.99999e-01,9.99999e-01,9.94377e-01,7.66027e-01,8.17721e-01,9.97500e-01
9.574603512e-01,6.42449e-01,9.99999e-01,9.99999e-01,9.97591e-01,7.85346e-01,8.20978e-01,9.98729e-01
9.622476530e-01,6.76180e-01,9.99999e-01,9.99999e-01,9.99247e-01,8.21740e-01,8.24183e-01,9.99121e-01
9.670588912e-01,7.38437e-01,9.99999e-01,9.99999e-01,9.99774e-01,8.93278e-01,8.27337e-01,9.99398e-01
9.718941857e-01,7.73786e-01,9.99999e-01,9.99999e-01,9.99983e-01,9.32204e-01,8.30440e-01,9.99557e-01
9.767536566e-01,7.86071e-01,9.99999e-01,9.99999e-01,9.99999e-01,9.43422e-01,8.33493e-01,9.99661e-01
9.816374249e-01,8.01050e-01,9.99999e-01,9.99999e-01,9.99999e-01,9.57736e-01,8.36497e-01,9.99882e-01
9.865456120e-01,8.17099e-01,9.99999e-01,9.99999e-01,9.99999e-01,9.73395e-01,8.39452e-01,9.99975e-01
9.914783401e-01,8.28444e-01,9.99999e-01,9.99999e-01,9.99999e-01,9.83487e-01,8.42359e-01,9.99992e-01
9.964357318e-01,8.37587e-01,9.99999e-01,9.99999e-01,9.99999e-01,9.90974e-01,8.45218e-01,9.99995e-01
1.001417910e+00,8.43431e-01,9.99999e-01,9.99999e-01,9.99999e-01,9.94581e-01,8.48030e-01,9.99993e-01
1.006425000e+00,8.48162e-01,9.99999e-01,9.99999e-01,9.99999e-01,9.96912e-01,8.50796e-01,9.99990e-01
1.011457125e+00,8.51870e-01,9.99999e-01,9.99999e-01,9.99999e-01,9.98079e-01,8.53516e-01,9.99991e-01
1.016514411e+00,8.55070e-01,9.99999e-01,9.99999e-01,9.99999e-01,9.98697e-01,8.56190e-01,9.99993e-01
1.021596983e+00,8.57899e-01,9.99999e-01,9.99999e-01,9.99970e-01,9.98962e-01,8.58820e-01,9.99993e-01
1.026704968e+00,8.58743e-01,9.99999e-01,9.99999e-01,9.97718e-01,9.99190e-01,8.61406e-01,9.99995e-01
1.031838492e+00,8.37496e-01,9.99999e-01,9.99999e-01,9.69941e-01,9.99411e-01,8.63948e-01,9.99998e-01
1.036997685e+00,2.05005e-01,9.99999e-01,9.99999e-01,2.36672e-01,9.99650e-01,8.66447e-01,9.99999e-01
1.042182673e+00,2.24879e-01,9.99999e-01,9.99999e-01,2.58907e-01,9.99584e-01,8.68904e-01,9.99999e-01
1.047393587e+00,2.23419e-01,9.99999e-01,9.99999e-01,2.56542e-01,9.99448e-01,8.71319e-01,9.99999e-01
1.052630555e+00,2.12609e-02,9.99999e-01,9.99999e-01,2.43488e-02,9.99243e-01,8.73693e-01,9.99999e-01
1.057893707e+00,4.34632e-02,9.99999e-01,9.99999e-01,4.96609e-02,9.98738e-01,8.76026e-01,9.99999e-01
1.063183176e+00,9.85184e-02,9.99999e-01,9.99999e-01,1.12349e-01,9.97922e-01,8.78320e-01,9.99998e-01
1.068499092e+00,2.00871e-01,9.99999e-01,9.99999e-01,2.28822e-01,9.96520e-01,8.80573e-01,9.99997e-01
1.073841587e+00,3.46328e-01,9.99999e-01,9.99999e-01,3.93742e-01,9.95931e-01,8.82788e-01,9.99994e-01
