#,Wave/freq,Total,N2,O2,CO2,H2O,Rayleigh,CIA
4.000000000e-01,6.27462e-12,9.99999e-01,9.99999e-01,9.99999e-01,9.99949e-01,6.27494e-12,9.99999e-01
4.020000000e-01,1.04497e-11,9.99999e-01,9.99999e-01,9.99999e-01,9.99968e-01,1.04500e-11,9.99999e-01
4.040100000e-01,1.72191e-11,9.99999e-01,9.99999e-01,9.99999e-01,9.99986e-01,1.72194e-11,9.99999e-01
4.060300500e-01,2.80951e-11,9.99999e-01,9.99999e-01,9.99999e-01,9.99996e-01,2.80952e-11,9.99999e-01
4.080602003e-01,4.53991e-11,9.99999e-01,9.99999e-01,9.99999e-01,9.99998e-01,4.53992e-11,9.99999e-01
4.101005013e-01,7.26686e-11,9.99999e-01,9.99999e-01,9.99999e-01,9.99999e-01,7.26686e-11,9.99999e-01
4.121510038e-01,1.15242e-10,9.99999e-01,9.99999e-01,9.99999e-01,9.99997e-01,1.15242e-10,9.99999e-01
4.142117588e-01,1.81097e-10,9.99999e-01,9.99999e-01,9.99999e-01,9.99986e-01,1.81100e-10,9.99999e-01
4.162828176e-01,2.82047e-10,9.99999e-01,9.99999e-01,9.99999e-01,9.99937e-01,2.82065e-10,9.99999e-01
4.183642317e-01,4.35474e-10,9.99999e-01,9.99999e-01,9.99999e-01,9.99962e-01,4.35490e-10,9.99999e-01
4.204560528e-01,6.66609e-10,9.99999e-01,9.99999e-01,9.99999e-01,9.99976e-01,6.66624e-10,9.99999e-01
4.225583331e-01,1.01188e-09,9.99999e-01,9.99999e-01,9.99999e-01,9.99991e-01,1.01189e-09,9.99999e-01
4.246711247e-01,1.52335e-09,9.99999e-01,9.99999e-01,9.99999e-01,9.99992e-01,1.52336e-09,9.99999e-01
4.267944804e-01,2.27489e-09,9.99999e-01,9.99999e-01,9.99999e-01,9.99989e-01,2.27491e-09,9.99999e-01
4.289284528e-01,3.37041e-09,9.99999e-01,9.99999e-01,9.99999e-01,9.99991e-01,3.37044e-09,9.99999e-01
4.310730950e-01,4.95489e-09,9.99999e-01,9.99999e-01,9.99999e-01,9.99996e-01,4.95490e-09,9.99999e-01
4.332284605e-01,7.22900e-09,9.99999e-01,9.99999e-01,9.99999e-01,9.99998e-01,7.22901e-09,9.99999e-01
4.353946028e-01,1.04684e-08,9.99999e-01,9.99999e-01,9.99999e-01,9.99999e-01,1.04684e-08,9.99999e-01
4.375715758e-01,1.50490e-08,9.99999e-01,9.99999e-01,9.99999e-01,9.99993e-01,1.50491e-08,9.99999e-01
4.397594337e-01,2.14783e-08,9.99999e-01,9.99999e-01,9.99999e-01,9.99946e-01,2.14794e-08,9.99999e-01
4.419582309e-01,3.04346e-08,9.99999e-01,9.99999e-01,9.99999e-01,9.99729e-01,3.04428e-08,9.99999e-01
4.441680220e-01,4.28411e-08,9.99999e-01,9.99999e-01,9.99999e-01,9.99784e-01,4.28503e-08,9.99999e-01
4.463888621e-01,5.98956e-08,9.99999e-01,9.99999e-01,9.99999e-01,9.99776e-01,5.99089e-08,9.99999e-01
4.486208064e-01,8.31943e-08,9.99999e-01,9.99999e-01,9.99999e-01,9.99860e-01,8.32058e-08,9.99999e-01
4.508639105e-01,1.14807e-07,9.99999e-01,9.99999e-01,9.99999e-01,9.99934e-01,1.14815e-07,9.99999e-01
4.531182300e-01,1.57423e-07,9.99999e-01,9.99999e-01,9.99999e-01,9.99973e-01,1.57427e-07,9.99999e-01
4.553838212e-01,2.14510e-07,9.99999e-01,9.99999e-01,9.99999e-01,9.99982e-01,2.14514e-07,9.99999e-01
4.576607403e-01,2.90517e-07,9.99999e-01,9.99999e-01,9.99999e-01,9.99991e-01,2.90520e-07,9.99999e-01
4.599490440e-01,3.91103e-07,9.99999e-01,9.99999e-01,9.99999e-01,9.99993e-01,3.91105e-07,9.99999e-01
4.622487892e-01,5.23433e-07,9.99999e-01,9.99999e-01,9.99999e-01,9.99998e-01,5.23434e-07,9.99999e-01
4.645600332e-01,6.96511e-07,9.99999e-01,9.99999e-01,9.99999e-01,9.99995e-01,6.96514e-07,9.99999e-01
4.668828333e-01,9.21550e-07,9.99999e-01,9.99999e-01,9.99999e-01,9.99934e-01,9.21610e-07,9.99999e-01
4.692172475e-01,1.21256e-06,9.99999e-01,9.99999e-01,9.99999e-01,9.99859e-01,1.21273e-06,9.99999e-01
4.715633337e-01,1.58702e-06,9.99999e-01,9.99999e-01,9.99999e-01,9.99908e-01,1.58717e-06,9.99999e-01
4.739211504e-01,2.06603e-06,9.99999e-01,9.99999e-01,9.99999e-01,9.99911e-01,2.06621e-06,9.99999e-01
4.762907561e-01,2.67574e-06,9.99999e-01,9.99999e-01,9.99999e-01,9.99953e-01,2.67586e-06,9.99999e-01
4.786722099e-01,3.44768e-06,9.99999e-01,9.99999e-01,9.99999e-01,9.99980e-01,3.44775e-06,9.99999e-01
4.810655710e-01,4.42008e-06,9.99999e-01,9.99999e-01,9.99999e-01,9.99993e-01,4.42011e-06,9.99999e-01
4.834708988e-01,5.63866e-06,9.99999e-01,9.99999e-01,9.99999e-01,9.99947e-01,5.63896e-06,9.99999e-01
4.858882533e-01,7.15867e-06,9.99999e-01,9.99999e-01,9.99999e-01,9.99900e-01,7.15938e-06,9.99999e-01
4.883176946e-01,9.04625e-06,9.99999e-01,9.99999e-01,9.99999e-01,9.99917e-01,9.04700e-06,9.99999e-01
4.907592831e-01,1.13787e-05,9.99999e-01,9.99999e-01,9.99999e-01,9.99924e-01,1.13796e-05,9.99999e-01
4.932130795e-01,1.42481e-05,9.99999e-01,9.99999e-01,9.99999e-01,9.99946e-01,1.42488e-05,9.99999e-01
4.956791449e-01,1.77620e-05,9.99999e-01,9.99999e-01,9.99999e-01,9.99971e-01,1.77625e-05,9.99999e-01
4.981575406e-01,2.20434e-05,9.99999e-01,9.99999e-01,9.99999e-01,9.99859e-01,2.20465e-05,9.99999e-01
5.006483283e-01,2.72372e-05,9.99999e-01,9.99999e-01,9.99999e-01,9.99639e-01,2.72470e-05,9.99997e-01
5.031515699e-01,3.34715e-05,9.99999e-01,9.99999e-01,9.99999e-01,9.98160e-01,3.35338e-05,9.99980e-01
5.056673278e-01,4.10613e-05,9.99999e-01,9.99999e-01,9.99999e-01,9.99025e-01,4.11023e-05,9.99977e-01
5.081956644e-01,5.01144e-05,9.99999e-01,9.99999e-01,9.99999e-01,9.98769e-01,5.01768e-05,9.99985e-01
5.107366428e-01,6.09630e-05,9.99999e-01,9.99999e-01,9.99999e-01,9.99168e-01,6.10139e-05,9.99996e-01
5.132903260e-01,7.38703e-05,9.99999e-01,9.99999e-01,9.99999e-01,9.99523e-01,7.39055e-05,9.99999e-01
5.158567776e-01,8.91647e-05,9.99999e-01,9.99999e-01,9.99999e-01,9.99798e-01,8.91827e-05,9.99999e-01
5.184360615e-01,1.07211e-04,9.99999e-01,9.99999e-01,9.99999e-01,9.99919e-01,1.07219e-04,9.99999e-01
5.210282418e-01,1.28432e-04,9.99999e-01,9.99999e-01,9.99999e-01,9.99969e-01,1.28435e-04,9.99999e-01
5.236333830e-01,1.53283e-04,9.99999e-01,9.99999e-01,9.99999e-01,9.99879e-01,1.53302e-04,9.99998e-01
5.262515499e-01,1.82331e-04,9.99999e-01,9.99999e-01,9.99999e-01,9.99924e-01,1.82344e-04,9.99998e-01
5.288828077e-01,2.16132e-04,9.99999e-01,9.99999e-01,9.99999e-01,9.99930e-01,2.16147e-04,9.99998e-01
5.315272217e-01,2.55341e-04,9.99999e-01,9.99999e-01,9.99999e-01,9.99938e-01,2.55357e-04,9.99999e-01
5.341848578e-01,3.00675e-04,9.99999e-01,9.99999e-01,9.99999e-01,9.99960e-01,3.00687e-04,9.99999e-01
5.368557821e-01,3.52874e-04,9.99999e-01,9.99999e-01,9.99999e-01,9.99860e-01,3.52924e-04,9.99999e-01
5.395400610e-01,4.12719e-04,9.99999e-01,9.99999e-01,9.99999e-01,9.99500e-01,4.12926e-04,9.99995e-01
5.422377613e-01,4.81313e-04,9.99999e-01,9.99999e-01,9.99999e-01,9.99344e-01,4.81634e-04,9.99987e-01
5.449489501e-01,5.59724e-04,9.99999e-01,9.99999e-01,9.99999e-01,9.99395e-01,5.60070e-04,9.99987e-01
5.476736949e-01,6.48986e-04,9.99999e-01,9.99999e-01,9.99999e-01,9.99459e-01,6.49340e-04,9.99993e-01
5.504120634e-01,7.50348e-04,9.99999e-01,9.99999e-01,9.99999e-01,9.99607e-01,7.50644e-04,9.99997e-01
5.531641237e-01,8.65099e-04,9.99999e-01,9.99999e-01,9.99999e-01,9.99802e-01,8.65270e-04,9.99999e-01
5.559299443e-01,9.94510e-04,9.99999e-01,9.99999e-01,9.99999e-01,9.99904e-01,9.94605e-04,9.99999e-01
5.587095940e-01,1.14006e-03,9.99999e-01,9.99999e-01,9.99999e-01,9.99940e-01,1.14013e-03,9.99999e-01
5.615031420e-01,1.30334e-03,9.99999e-01,9.99999e-01,9.99999e-01,9.99933e-01,1.30343e-03,9.99999e-01
5.643106577e-01,1.48607e-03,9.99999e-01,9.99999e-01,9.99999e-01,9.99925e-01,1.48618e-03,9.99998e-01
5.671322110e-01,1.68865e-03,9.99999e-01,9.99999e-01,9.99999e-01,9.99106e-01,1.69017e-03,9.99992e-01
5.699678720e-01,1.91535e-03,9.99999e-01,9.99999e-01,9.99999e-01,9.99020e-01,1.91728e-03,9.99974e-01
5.728177114e-01,2.16726e-03,9.99999e-01,9.99999e-01,9.99999e-01,9.98992e-01,2.16949e-03,9.99978e-01
5.756818000e-01,2.44661e-03,9.99999e-01,9.99999e-01,9.99999e-01,9.99072e-01,2.44891e-03,9.99986e-01
5.785602090e-01,2.75545e-03,9.99999e-01,9.99999e-01,9.99999e-01,9.99189e-01,2.75770e-03,9.99995e-01
5.814530100e-01,3.09563e-03,9.99999e-01,9.99999e-01,9.99999e-01,9.99188e-01,3.09815e-03,9.99997e-01
5.843602750e-01,3.46929e-03,9.99999e-01,9.99999e-01,9.99999e-01,9.99041e-01,3.47263e-03,9.99994e-01
5.872820764e-01,3.85137e-03,9.99999e-01,9.99999e-01,9.99999e-01,9.91753e-01,3.88362e-03,9.99940e-01
5.902184868e-01,4.28926e-03,9.99999e-01,9.99999e-01,9.99999e-01,9.89910e-01,4.33367e-03,9.99839e-01
5.931695792e-01,4.79035e-03,9.99999e-01,9.99999e-01,9.99999e-01,9.92889e-01,4.82540e-03,9.99844e-01
5.961354271e-01,5.31915e-03,9.99999e-01,9.99999e-01,9.99999e-01,9.92187e-01,5.36154e-03,9.99905e-01
5.991161043e-01,5.91075e-03,9.99999e-01,9.99999e-01,9.99999e-01,9.94289e-01,5.94486e-03,9.99972e-01
6.021116848e-01,6.55682e-03,9.99999e-01,9.99999e-01,9.99999e-01,9.96751e-01,6.57821e-03,9.99996e-01
6.051222432e-01,7.25254e-03,9.99999e-01,9.99999e-01,9.99999e-01,9.98354e-01,7.26450e-03,9.99999e-01
6.081478544e-01,8.00099e-03,9.99999e-01,9.99999e-01,9.99999e-01,9.99290e-01,8.00667e-03,9.99999e-01
6.111885937e-01,8.80508e-03,9.99999e-01,9.99999e-01,9.99999e-01,9.99698e-01,8.80773e-03,9.99999e-01
6.142445367e-01,9.66941e-03,9.99999e-01,9.99999e-01,9.99999e-01,9.99865e-01,9.67070e-03,9.99999e-01
6.173157594e-01,1.05979e-02,9.99999e-01,9.99999e-01,9.99999e-01,9.99925e-01,1.05986e-02,9.99999e-01
6.204023382e-01,1.15939e-02,9.99999e-01,9.99999e-01,9.99999e-01,9.99937e-01,1.15946e-02,9.99999e-01
6.235043498e-01,1.26583e-02,9.99999e-01,9.99999e-01,9.99999e-01,9.99730e-01,1.26617e-02,9.99998e-01
6.266218716e-01,1.37828e-02,9.99999e-01,9.99999e-01,9.99999e-01,9.98547e-01,1.38030e-02,9.99989e-01
6.297549810e-01,1.50132e-02,9.99999e-01,9.99999e-01,9.99999e-01,9.99467e-01,1.50215e-02,9.99979e-01
6.329037559e-01,1.63028e-02,9.99999e-01,9.99999e-01,9.99999e-01,9.98943e-01,1.63203e-02,9.99983e-01
6.360682746e-01,1.76863e-02,9.99999e-01,9.99999e-01,9.99999e-01,9.99104e-01,1.77023e-02,9.99989e-01
6.392486160e-01,1.91482e-02,9.99999e-01,9.99999e-01,9.99999e-01,9.98837e-01,1.91706e-02,9.99995e-01
6.424448591e-01,2.06990e-02,9.99999e-01,9.99999e-01,9.99999e-01,9.98606e-01,2.07280e-02,9.99992e-01
6.456570834e-01,2.22179e-02,9.99999e-01,9.99999e-01,9.99999e-01,9.92910e-01,2.23774e-02,9.99959e-01
6.488853688e-01,2.39690e-02,9.99999e-01,9.99999e-01,9.99999e-01,9.93786e-01,2.41216e-02,9.99887e-01
6.521297956e-01,2.58207e-02,9.99999e-01,9.99999e-01,9.99999e-01,9.94607e-01,2.59631e-02,9.99905e-01
6.553904446e-01,2.77542e-02,9.99999e-01,9.99999e-01,9.99999e-01,9.94674e-01,2.79047e-02,9.99929e-01
6.586673968e-01,2.98102e-02,9.99999e-01,9.99999e-01,9.99999e-01,9.95393e-01,2.99488e-02,9.99976e-01
6.619607338e-01,3.20121e-02,9.99999e-01,9.99999e-01,9.99999e-01,9.97335e-01,3.20977e-02,9.99994e-01
6.652705375e-01,3.43006e-02,9.99999e-01,9.99999e-01,9.99999e-01,9.98452e-01,3.43538e-02,9.99997e-01
6.685968902e-01,3.66928e-02,9.99999e-01,9.99999e-01,9.99999e-01,9.99281e-01,3.67192e-02,9.99999e-01
6.719398746e-01,3.91828e-02,9.99999e-01,9.99999e-01,9.99999e-01,9.99666e-01,3.91959e-02,9.99999e-01
6.752995740e-01,4.17782e-02,9.99999e-01,9.99999e-01,9.99999e-01,9.99819e-01,4.17857e-02,9.99999e-01
6.786760719e-01,4.44788e-02,9.99999e-01,9.99999e-01,9.99999e-01,9.99742e-01,4.44903e-02,9.99999e-01
6.820694522e-01,4.72903e-02,9.99999e-01,9.99999e-01,9.99999e-01,9.99557e-01,4.73114e-02,9.99997e-01
6.854797995e-01,5.02214e-02,9.99999e-01,9.99999e-01,9.99999e-01,9.99429e-01,5.02502e-02,9.99994e-01
6.889071985e-01,5.32352e-02,9.99999e-01,9.99999e-01,9.99999e-01,9.98641e-01,5.33082e-02,9.99987e-01
6.923517345e-01,5.52251e-02,9.99999e-01,9.99999e-01,9.99999e-01,9.77778e-01,5.64863e-02,9.99891e-01
6.958134932e-01,5.90624e-02,9.99999e-01,9.99999e-01,9.99999e-01,9.88147e-01,5.97854e-02,9.99755e-01
6.992925606e-01,6.24948e-02,9.99999e-01,9.99999e-01,9.99999e-01,9.88954e-01,6.32063e-02,9.99784e-01
7.027890234e-01,6.58218e-02,9.99999e-01,9.99999e-01,9.99999e-01,9.86263e-01,6.67495e-02,9.99834e-01
7.063029686e-01,6.95964e-02,9.99999e-01,9.99999e-01,9.99999e-01,9.88448e-01,7.04155e-02,9.99917e-01
7.098344834e-01,7.33781e-02,9.99999e-01,9.99999e-01,9.99999e-01,9.88912e-01,7.42044e-02,9.99950e-01
7.133836558e-01,7.69733e-02,9.99999e-01,9.99999e-01,9.99999e-01,9.85462e-01,7.81163e-02,9.99903e-01
7.169505741e-01,7.29601e-02,9.99999e-01,9.99999e-01,9.99999e-01,8.88797e-01,8.21510e-02,9.99240e-01
7.205353270e-01,8.12598e-02,9.99999e-01,9.99999e-01,9.99999e-01,9.42770e-01,8.63081e-02,9.98660e-01
7.241380036e-01,8.40490e-02,9.99999e-01,9.99999e-01,9.99999e-01,9.28905e-01,9.05873e-02,9.98834e-01
7.277586936e-01,8.87813e-02,9.99999e-01,9.99999e-01,9.99999e-01,9.35564e-01,9.49878e-02,9.99031e-01
7.313974871e-01,9.26070e-02,9.99999e-01,9.99999e-01,9.99999e-01,9.31053e-01,9.95088e-02,9.99556e-01
7.350544745e-01,1.00153e-01,9.99999e-01,9.99999e-01,9.99999e-01,9.61774e-01,1.04149e-01,9.99845e-01
7.387297469e-01,1.05817e-01,9.99999e-01,9.99999e-01,9.99999e-01,9.71683e-01,1.08908e-01,9.99928e-01
7.424233956e-01,1.12190e-01,9.99999e-01,9.99999e-01,9.99999e-01,9.86005e-01,1.13784e-01,9.99985e-01
7.461355126e-01,1.17767e-01,9.99999e-01,9.99999e-01,9.99999e-01,9.91512e-01,1.18775e-01,9.99997e-01
7.498661902e-01,1.23388e-01,9.99999e-01,9.99999e-01,9.99999e-01,9.96029e-01,1.23880e-01,9.99998e-01
7.536155211e-01,1.28846e-01,9.99999e-01,9.99999e-01,9.99999e-01,9.98056e-01,1.29097e-01,9.99999e-01
7.573835987e-01,1.34290e-01,9.99999e-01,9.99999e-01,9.99999e-01,9.98998e-01,1.34425e-01,9.99999e-01
7.611705167e-01,1.39773e-01,9.99999e-01,9.99999e-01,9.99999e-01,9.99377e-01,1.39860e-01,9.99999e-01
7.649763693e-01,1.45345e-01,9.99999e-01,9.99999e-01,9.99999e-01,9.99610e-01,1.45401e-01,9.99999e-01
7.688012511e-01,1.51005e-01,9.99999e-01,9.99999e-01,9.99999e-01,9.99728e-01,1.51046e-01,9.99999e-01
7.726452574e-01,1.56757e-01,9.99999e-01,9.99999e-01,9.99999e-01,9.99777e-01,1.56792e-01,9.99999e-01
7.765084837e-01,1.62586e-01,9.99999e-01,9.99999e-01,9.99999e-01,9.99685e-01,1.62637e-01,9.99999e-01
7.803910261e-01,1.56758e-01,9.99999e-01,9.99999e-01,9.31066e-01,9.98646e-01,1.68577e-01,9.99998e-01
7.842929812e-01,1.21663e-01,9.99999e-01,9.99999e-01,6.99735e-01,9.95283e-01,1.74611e-01,9.99990e-01
7.882144461e-01,1.22961e-01,9.99999e-01,9.99999e-01,6.86535e-01,9.90214e-01,1.80735e-01,9.99939e-01
7.921555184e-01,1.48095e-01,9.99999e-01,9.99999e-01,7.96349e-01,9.94595e-01,1.86947e-01,9.99883e-01
7.961162960e-01,1.63987e-01,9.99999e-01,9.99999e-01,8.56589e-01,9.90577e-01,1.93243e-01,9.99888e-01
8.000968774e-01,1.81542e-01,9.99999e-01,9.99999e-01,9.19542e-01,9.89053e-01,1.99620e-01,9.99881e-01
8.040973618e-01,1.95100e-01,9.99999e-01,9.99999e-01,9.57243e-01,9.89067e-01,2.06076e-01,9.99905e-01
8.081178486e-01,2.03338e-01,9.99999e-01,9.99999e-01,9.80217e-01,9.75713e-01,2.12606e-01,9.99911e-01
8.121584379e-01,1.96603e-01,9.99999e-01,9.99999e-01,9.93794e-01,9.02650e-01,2.19209e-01,9.99652e-01
8.162192301e-01,1.99264e-01,9.99999e-01,9.99999e-01,9.98625e-01,8.84478e-01,2.25880e-01,9.98696e-01
8.203003262e-01,2.18854e-01,9.99999e-01,9.99999e-01,9.99976e-01,9.42289e-01,2.32617e-01,9.98474e-01
8.244018279e-01,2.19681e-01,9.99999e-01,9.99999e-01,9.99999e-01,9.18690e-01,2.39415e-01,9.98785e-01
8.285238370e-01,2.28731e-01,9.99999e-01,9.99999e-01,9.99999e-01,9.29661e-01,2.46272e-01,9.99045e-01
8.326664562e-01,2.35035e-01,9.99999e-01,9.99999e-01,9.99999e-01,9.28685e-01,2.53183e-01,9.99605e-01
8.368297885e-01,2.46677e-01,9.99999e-01,9.99999e-01,9.99999e-01,9.48305e-01,2.60147e-01,9.99909e-01
8.410139374e-01,2.58844e-01,9.99999e-01,9.99999e-01,9.99999e-01,9.68926e-01,2.67159e-01,9.99946e-01
8.452190071e-01,2.69990e-01,9.99999e-01,9.99999e-01,9.99999e-01,9.84619e-01,2.74216e-01,9.99968e-01
8.494451021e-01,2.78799e-01,9.99999e-01,9.99999e-01,9.99999e-01,9.91081e-01,2.81314e-01,9.99974e-01
8.536923276e-01,2.86917e-01,9.99999e-01,9.99999e-01,9.99999e-01,9.94698e-01,2.88451e-01,9.99982e-01
8.579607893e-01,2.94658e-01,9.99999e-01,9.99999e-01,9.99999e-01,9.96742e-01,2.95622e-01,9.99995e-01
8.622505932e-01,3.02196e-01,9.99999e-01,9.99999e-01,9.99999e-01,9.97924e-01,3.02824e-01,9.99998e-01
8.665618462e-01,2.74362e-01,9.99999e-01,9.99999e-01,8.85949e-01,9.98720e-01,3.10055e-01,9.99999e-01
8.708946554e-01,1.31538e-01,9.99999e-01,9.99999e-01,4.15106e-01,9.98539e-01,3.17310e-01,9.99998e-01
8.752491287e-01,1.56254e-01,9.99999e-01,9.99999e-01,4.82279e-01,9.98043e-01,3.24587e-01,9.99997e-01
8.796253743e-01,2.19875e-01,9.99999e-01,9.99999e-01,6.64189e-01,9.97301e-01,3.31882e-01,9.99993e-01
8.840235012e-01,2.72794e-01,9.99999e-01,9.99999e-01,8.06664e-01,9.96914e-01,3.39191e-01,9.99980e-01
8.884436187e-01,3.14699e-01,9.99999e-01,9.99999e-01,9.18090e-01,9.89018e-01,3.46513e-01,9.99945e-01
8.928858368e-01,3.04090e-01,9.99999e-01,9.99999e-01,9.66021e-01,8.89261e-01,3.53844e-01,9.99690e-01
8.973502660e-01,2.90198e-01,9.99999e-01,9.99999e-01,9.91580e-01,8.11254e-01,3.61180e-01,9.98414e-01
9.018370173e-01,3.29827e-01,9.99999e-01,9.99999e-01,9.99066e-01,8.98021e-01,3.68519e-01,9.97509e-01
9.063462024e-01,3.34476e-01,9.99999e-01,9.99999e-01,9.77421e-01,9.10909e-01,3.75857e-01,9.97811e-01
9.108779334e-01,3.13306e-01,9.99999e-01,9.99999e-01,9.47073e-01,8.63941e-01,3.83193e-01,9.97726e-01
9.154323231e-01,3.25877e-01,9.99999e-01,9.99999e-01,9.87185e-01,8.46340e-01,3.90522e-01,9.98119e-01
9.200094847e-01,2.99597e-01,9.99999e-01,9.99999e-01,8.46971e-01,8.77441e-01,3.97843e-01,9.98947e-01
9.246095321e-01,2.57618e-01,9.99999e-01,9.99999e-01,7.67446e-01,8.21894e-01,4.05153e-01,9.98787e-01
9.292325798e-01,9.73383e-02,9.99999e-01,9.99999e-01,8.16502e-01,2.79642e-01,4.12448e-01,9.95279e-01
9.338787427e-01,6.66221e-02,9.99999e-01,9.99999e-01,8.19128e-01,1.90484e-01,4.19727e-01,9.80629e-01
9.385481364e-01,1.86621e-01,9.99999e-01,9.99999e-01,8.62899e-01,5.09637e-01,4.26986e-01,9.77004e-01
9.432408771e-01,1.59320e-01,9.99999e-01,9.99999e-01,9.13053e-01,4.06084e-01,4.34224e-01,9.80129e-01
9.479570815e-01,1.20433e-01,9.99999e-01,9.99999e-01,9.54522e-01,2.89162e-01,4.41438e-01,9.83797e-01
9.526968669e-01,1.66965e-01,9.99999e-01,9.99999e-01,9.77781e-01,3.83034e-01,4.48626e-01,9.90086e-01
9.574603512e-01,1.81153e-01,9.99999e-01,9.99999e-01,9.90426e-01,4.02782e-01,4.55786e-01,9.94951e-01
9.622476530e-01,2.16997e-01,9.99999e-01,9.99999e-01,9.97000e-01,4.71633e-01,4.62915e-01,9.96506e-01
9.670588912e-01,3.03130e-01,9.99999e-01,9.99999e-01,9.99098e-01,6.47004e-01,4.70011e-01,9.97609e-01
9.718941857e-01,3.61198e-01,9.99999e-01,9.99999e-01,9.99934e-01,7.58488e-01,4.77073e-01,9.98239e-01
9.767536566e-01,3.84253e-01,9.99999e-01,9.99999e-01,9.99999e-01,7.94818e-01,4.84099e-01,9.98654e-01
9.816374249e-01,4.13642e-01,9.99999e-01,9.99999e-01,9.99999e-01,8.42692e-01,4.91085e-01,9.99533e-01
9.865456120e-01,4.47373e-01,9.99999e-01,9.99999e-01,9.99999e-01,8.98368e-01,4.98032e-01,9.99902e-01
9.914783401e-01,4.72537e-01,9.99999e-01,9.99999e-01,9.99999e-01,9.35858e-01,5.04937e-01,9.99972e-01
9.964357318e-01,4.93638e-01,9.99999e-01,9.99999e-01,9.99999e-01,9.64530e-01,5.11799e-01,9.99983e-01
1.001417910e+00,5.07493e-01,9.99999e-01,9.99999e-01,9.99999e-01,9.78577e-01,5.18615e-01,9.99975e-01
1.006425000e+00,5.18935e-01,9.99999e-01,9.99999e-01,9.99999e-01,9.87757e-01,5.25385e-01,9.99965e-01
1.011457125e+00,5.28027e-01,9.99999e-01,9.99999e-01,9.99999e-01,9.92363e-01,5.32107e-01,9.99967e-01
1.016514411e+00,5.35976e-01,9.99999e-01,9.99999e-01,9.99999e-01,9.94818e-01,5.38780e-01,9.99977e-01
1.021596983e+00,5.43079e-01,9.99999e-01,9.99999e-01,9.99889e-01,9.95872e-01,5.45402e-01,9.99976e-01
1.026704968e+00,5.45289e-01,9.99999e-01,9.99999e-01,9.91086e-01,9.96781e-01,5.51972e-01,9.99984e-01
1.031838492e+00,5.14723e-01,9.99999e-01,9.99999e-01,9.23706e-01,9.97654e-01,5.58489e-01,9.99995e-01
1.036997685e+00,3.81476e-02,9.99999e-01,9.99999e-01,6.75949e-02,9.98609e-01,5.64952e-01,9.99998e-01
1.042182673e+00,5.40863e-03,9.99999e-01,9.99999e-01,9.47868e-03,9.98348e-01,5.71360e-01,9.99999e-01
1.047393587e+00,1.20765e-02,9.99999e-01,9.99999e-01,2.09428e-02,9.97806e-01,5.77713e-01,9.99999e-01
1.052630555e+00,7.09008e-06,9.99999e-01,9.99999e-01,1.21642e-05,9.96994e-01,5.84008e-01,9.99998e-01
1.057893707e+00,2.53590e-05,9.99999e-01,9.99999e-01,4.30812e-05,9.94995e-01,5.90245e-01,9.99997e-01
1.063183176e+00,3.35141e-04,9.99999e-01,9.99999e-01,5.64731e-04,9.91767e-01,5.96424e-01,9.99995e-01
1.068499092e+00,2.39909e-03,9.99999e-01,9.99999e-01,4.02104e-03,9.86232e-01,6.02543e-01,9.99990e-01
1.073841587e+00,1.74775e-02,9.99999e-01,9.99999e-01,2.90689e-02,9.83946e-01,6.08603e-01,9.99979e-01
