#,Wave/freq,Total,N2,O2,CO2,H2O,Rayleigh,CIA
4.000000000e-01,9.72361e-05,9.99999e-01,9.99999e-01,9.99999e-01,9.99981e-01,9.72378e-05,9.99999e-01
4.020000000e-01,1.16724e-04,9.99999e-01,9.99999e-01,9.99999e-01,9.99988e-01,1.16725e-04,9.99999e-01
4.040100000e-01,1.39587e-04,9.99999e-01,9.99999e-01,9.99999e-01,9.99994e-01,1.39588e-04,9.99999e-01
4.060300500e-01,1.66340e-04,9.99999e-01,9.99999e-01,9.99999e-01,9.99998e-01,1.66340e-04,9.99999e-01
4.080602003e-01,1.97534e-04,9.99999e-01,9.99999e-01,9.99999e-01,9.99999e-01,1.97534e-04,9.99999e-01
4.101005013e-01,2.33783e-04,9.99999e-01,9.99999e-01,9.99999e-01,9.99999e-01,2.33783e-04,9.99999e-01
4.121510038e-01,2.75764e-04,9.99999e-01,9.99999e-01,9.99999e-01,9.99998e-01,2.75764e-04,9.99999e-01
4.142117588e-01,3.24223e-04,9.99999e-01,9.99999e-01,9.99999e-01,9.99994e-01,3.24224e-04,9.99999e-01
4.162828176e-01,3.79975e-04,9.99999e-01,9.99999e-01,9.99999e-01,9.99977e-01,3.79984e-04,9.99999e-01
4.183642317e-01,4.43933e-04,9.99999e-01,9.99999e-01,9.99999e-01,9.99986e-01,4.43939e-04,9.99999e-01
4.204560528e-01,5.17063e-04,9.99999e-01,9.99999e-01,9.99999e-01,9.99991e-01,5.17067e-04,9.99999e-01
4.225583331e-01,6.00428e-04,9.99999e-01,9.99999e-01,9.99999e-01,9.99996e-01,6.00430e-04,9.99999e-01
4.246711247e-01,6.95176e-04,9.99999e-01,9.99999e-01,9.99999e-01,9.99997e-01,6.95177e-04,9.99999e-01
4.267944804e-01,8.02547e-04,9.99999e-01,9.99999e-01,9.99999e-01,9.99996e-01,8.02550e-04,9.99999e-01
4.289284528e-01,9.23879e-04,9.99999e-01,9.99999e-01,9.99999e-01,9.99996e-01,9.23882e-04,9.99999e-01
4.310730950e-01,1.06060e-03,9.99999e-01,9.99999e-01,9.99999e-01,9.99998e-01,1.06060e-03,9.99999e-01
4.332284605e-01,1.21424e-03,9.99999e-01,9.99999e-01,9.99999e-01,9.99999e-01,1.21424e-03,9.99999e-01
4.353946028e-01,1.38643e-03,9.99999e-01,9.99999e-01,9.99999e-01,9.99999e-01,1.38643e-03,9.99999e-01
4.375715758e-01,1.57889e-03,9.99999e-01,9.99999e-01,9.99999e-01,9.99997e-01,1.57889e-03,9.99999e-01
4.397594337e-01,1.79343e-03,9.99999e-01,9.99999e-01,9.99999e-01,9.99979e-01,1.79346e-03,9.99999e-01
4.419582309e-01,2.03187e-03,9.99999e-01,9.99999e-01,9.99999e-01,9.99899e-01,2.03207e-03,9.99999e-01
4.441680220e-01,2.29657e-03,9.99999e-01,9.99999e-01,9.99999e-01,9.99923e-01,2.29675e-03,9.99999e-01
4.463888621e-01,2.58942e-03,9.99999e-01,9.99999e-01,9.99999e-01,9.99919e-01,2.58963e-03,9.99999e-01
4.486208064e-01,2.91280e-03,9.99999e-01,9.99999e-01,9.99999e-01,9.99950e-01,2.91295e-03,9.99999e-01
4.508639105e-01,3.26895e-03,9.99999e-01,9.99999e-01,9.99999e-01,9.99976e-01,3.26903e-03,9.99999e-01
4.531182300e-01,3.66025e-03,9.99999e-01,9.99999e-01,9.99999e-01,9.99990e-01,3.66028e-03,9.99999e-01
4.553838212e-01,4.08920e-03,9.99999e-01,9.99999e-01,9.99999e-01,9.99993e-01,4.08923e-03,9.99999e-01
4.576607403e-01,4.55844e-03,9.99999e-01,9.99999e-01,9.99999e-01,9.99996e-01,4.55845e-03,9.99999e-01
4.599490440e-01,5.07061e-03,9.99999e-01,9.99999e-01,9.99999e-01,9.99997e-01,5.07062e-03,9.99999e-01
4.622487892e-01,5.62849e-03,9.99999e-01,9.99999e-01,9.99999e-01,9.99999e-01,5.62849e-03,9.99999e-01
4.645600332e-01,6.23486e-03,9.99999e-01,9.99999e-01,9.99999e-01,9.99998e-01,6.23487e-03,9.99999e-01
4.668828333e-01,6.89247e-03,9.99999e-01,9.99999e-01,9.99999e-01,9.99975e-01,6.89263e-03,9.99999e-01
4.692172475e-01,7.60432e-03,9.99999e-01,9.99999e-01,9.99999e-01,9.99949e-01,7.60470e-03,9.99999e-01
4.715633337e-01,8.37379e-03,9.99999e-01,9.99999e-01,9.99999e-01,9.99966e-01,8.37406e-03,9.99999e-01
4.739211504e-01,9.20343e-03,9.99999e-01,9.99999e-01,9.99999e-01,9.99968e-01,9.20372e-03,9.99999e-01
4.762907561e-01,1.00966e-02,9.99999e-01,9.99999e-01,9.99999e-01,9.99983e-01,1.00967e-02,9.99999e-01
4.786722099e-01,1.10560e-02,9.99999e-01,9.99999e-01,9.99999e-01,9.99992e-01,1.10561e-02,9.99999e-01
4.810655710e-01,1.20850e-02,9.99999e-01,9.99999e-01,9.99999e-01,9.99997e-01,1.20850e-02,9.99999e-01
4.834708988e-01,1.31862e-02,9.99999e-01,9.99999e-01,9.99999e-01,9.99979e-01,1.31864e-02,9.99999e-01
4.858882533e-01,1.43629e-02,9.99999e-01,9.99999e-01,9.99999e-01,9.99964e-01,1.43634e-02,9.99999e-01
4.883176946e-01,1.56187e-02,9.99999e-01,9.99999e-01,9.99999e-01,9.99969e-01,1.56192e-02,9.99999e-01
4.907592831e-01,1.69561e-02,9.99999e-01,9.99999e-01,9.99999e-01,9.99972e-01,1.69565e-02,9.99999e-01
4.932130795e-01,1.83782e-02,9.99999e-01,9.99999e-01,9.99999e-01,9.99980e-01,1.83786e-02,9.99999e-01
4.956791449e-01,1.98880e-02,9.99999e-01,9.99999e-01,9.99999e-01,9.99989e-01,1.98882e-02,9.99999e-01
4.981575406e-01,2.14873e-02,9.99999e-01,9.99999e-01,9.99999e-01,9.99949e-01,2.14884e-02,9.99999e-01
5.006483283e-01,2.31787e-02,9.99999e-01,9.99999e-01,9.99999e-01,9.99867e-01,2.31818e-02,9.99998e-01
5.031515699e-01,2.49544e-02,9.99999e-01,9.99999e-01,9.99999e-01,9.99337e-01,2.49712e-02,9.99992e-01
5.056673278e-01,2.68496e-02,9.99999e-01,9.99999e-01,9.99999e-01,9.99651e-01,2.68592e-02,9.99991e-01
5.081956644e-01,2.88356e-02,9.99999e-01,9.99999e-01,9.99999e-01,9.99560e-01,2.88485e-02,9.99994e-01
5.107366428e-01,3.09321e-02,9.99999e-01,9.99999e-01,9.99999e-01,9.99703e-01,3.09413e-02,9.99998e-01
5.132903260e-01,3.31345e-02,9.99999e-01,9.99999e-01,9.99999e-01,9.99830e-01,3.31402e-02,9.99999e-01
5.158567776e-01,3.54446e-02,9.99999e-01,9.99999e-01,9.99999e-01,9.99928e-01,3.54471e-02,9.99999e-01
5.184360615e-01,3.78633e-02,9.99999e-01,9.99999e-01,9.99999e-01,9.99970e-01,3.78644e-02,9.99999e-01
5.210282418e-01,4.03933e-02,9.99999e-01,9.99999e-01,9.99999e-01,9.99988e-01,4.03937e-02,9.99999e-01
5.236333830e-01,4.30352e-02,9.99999e-01,9.99999e-01,9.99999e-01,9.99956e-01,4.30371e-02,9.99999e-01
5.262515499e-01,4.57948e-02,9.99999e-01,9.99999e-01,9.99999e-01,9.99972e-01,4.57960e-02,9.99999e-01
5.288828077e-01,4.86708e-02,9.99999e-01,9.99999e-01,9.99999e-01,9.99974e-01,4.86721e-02,9.99999e-01
5.315272217e-01,5.16654e-02,9.99999e-01,9.99999e-01,9.99999e-01,9.99977e-01,5.16665e-02,9.99999e-01
5.341848578e-01,5.47798e-02,9.99999e-01,9.99999e-01,9.99999e-01,9.99985e-01,5.47806e-02,9.99999e-01
5.368557821e-01,5.80123e-02,9.99999e-01,9.99999e-01,9.99999e-01,9.99949e-01,5.80152e-02,9.99999e-01
5.395400610e-01,6.13599e-02,9.99999e-01,9.99999e-01,9.99999e-01,9.99816e-01,6.13712e-02,9.99997e-01
5.422377613e-01,6.48339e-02,9.99999e-01,9.99999e-01,9.99999e-01,9.99766e-01,6.48493e-02,9.99995e-01
5.449489501e-01,6.84347e-02,9.99999e-01,9.99999e-01,9.99999e-01,9.99781e-01,6.84500e-02,9.99995e-01
5.476736949e-01,7.21595e-02,9.99999e-01,9.99999e-01,9.99999e-01,9.99807e-01,7.21735e-02,9.99997e-01
5.504120634e-01,7.60093e-02,9.99999e-01,9.99999e-01,9.99999e-01,9.99860e-01,7.60199e-02,9.99998e-01
5.531641237e-01,7.99837e-02,9.99999e-01,9.99999e-01,9.99999e-01,9.99929e-01,7.99893e-02,9.99999e-01
5.559299443e-01,8.40785e-02,9.99999e-01,9.99999e-01,9.99999e-01,9.99965e-01,8.40814e-02,9.99999e-01
5.587095940e-01,8.82938e-02,9.99999e-01,9.99999e-01,9.99999e-01,9.99978e-01,8.82957e-02,9.99999e-01
5.615031420e-01,9.26295e-02,9.99999e-01,9.99999e-01,9.99999e-01,9.99975e-01,9.26317e-02,9.99999e-01
5.643106577e-01,9.70861e-02,9.99999e-01,9.99999e-01,9.99999e-01,9.99972e-01,9.70887e-02,9.99999e-01
5.671322110e-01,1.01632e-01,9.99999e-01,9.99999e-01,9.99999e-01,9.99666e-01,1.01666e-01,9.99996e-01
5.699678720e-01,1.06324e-01,9.99999e-01,9.99999e-01,9.99999e-01,9.99654e-01,1.06362e-01,9.99990e-01
5.728177114e-01,1.11134e-01,9.99999e-01,9.99999e-01,9.99999e-01,9.99636e-01,1.11175e-01,9.99992e-01
5.756818000e-01,1.16066e-01,9.99999e-01,9.99999e-01,9.99999e-01,9.99667e-01,1.16105e-01,9.99995e-01
5.785602090e-01,1.21115e-01,9.99999e-01,9.99999e-01,9.99999e-01,9.99710e-01,1.21150e-01,9.99998e-01
5.814530100e-01,1.26271e-01,9.99999e-01,9.99999e-01,9.99999e-01,9.99708e-01,1.26308e-01,9.99998e-01
5.843602750e-01,1.31531e-01,9.99999e-01,9.99999e-01,9.99999e-01,9.99650e-01,1.31577e-01,9.99997e-01
5.872820764e-01,1.36540e-01,9.99999e-01,9.99999e-01,9.99999e-01,9.96991e-01,1.36955e-01,9.99978e-01
5.902184868e-01,1.41918e-01,9.99999e-01,9.99999e-01,9.99999e-01,9.96387e-01,1.42440e-01,9.99942e-01
5.931695792e-01,1.47643e-01,9.99999e-01,9.99999e-01,9.99999e-01,9.97439e-01,1.48030e-01,9.99944e-01
5.961354271e-01,1.53288e-01,9.99999e-01,9.99999e-01,9.99999e-01,9.97199e-01,1.53723e-01,9.99967e-01
5.991161043e-01,1.59188e-01,9.99999e-01,9.99999e-01,9.99999e-01,9.97959e-01,1.59515e-01,9.99989e-01
6.021116848e-01,1.65214e-01,9.99999e-01,9.99999e-01,9.99999e-01,9.98843e-01,1.65405e-01,9.99998e-01
6.051222432e-01,1.71289e-01,9.99999e-01,9.99999e-01,9.99999e-01,9.99414e-01,1.71390e-01,9.99999e-01
6.081478544e-01,1.77421e-01,9.99999e-01,9.99999e-01,9.99999e-01,9.99747e-01,1.77466e-01,9.99999e-01
6.111885937e-01,1.83612e-01,9.99999e-01,9.99999e-01,9.99999e-01,9.99893e-01,1.83631e-01,9.99999e-01
6.142445367e-01,1.89874e-01,9.99999e-01,9.99999e-01,9.99999e-01,9.99951e-01,1.89883e-01,9.99999e-01
6.173157594e-01,1.96212e-01,9.99999e-01,9.99999e-01,9.99999e-01,9.99973e-01,1.96217e-01,9.99999e-01
6.204023382e-01,2.02627e-01,9.99999e-01,9.99999e-01,9.99999e-01,9.99977e-01,2.02632e-01,9.99999e-01
6.235043498e-01,2.09102e-01,9.99999e-01,9.99999e-01,9.99999e-01,9.99899e-01,2.09123e-01,9.99999e-01
6.266218716e-01,2.15575e-01,9.99999e-01,9.99999e-01,9.99999e-01,9.99478e-01,2.15688e-01,9.99995e-01
6.297549810e-01,2.22279e-01,9.99999e-01,9.99999e-01,9.99999e-01,9.99808e-01,2.22323e-01,9.99992e-01
6.329037559e-01,2.28937e-01,9.99999e-01,9.99999e-01,9.99999e-01,9.99622e-01,2.29025e-01,9.99993e-01
6.360682746e-01,2.35714e-01,9.99999e-01,9.99999e-01,9.99999e-01,9.99677e-01,2.35791e-01,9.99996e-01
6.392486160e-01,2.42515e-01,9.99999e-01,9.99999e-01,9.99999e-01,9.99582e-01,2.42617e-01,9.99997e-01
6.424448591e-01,2.49359e-01,9.99999e-01,9.99999e-01,9.99999e-01,9.99437e-01,2.49500e-01,9.99996e-01
6.456570834e-01,2.55764e-01,9.99999e-01,9.99999e-01,9.99999e-01,9.97391e-01,2.56436e-01,9.99983e-01
6.488853688e-01,2.62914e-01,9.99999e-01,9.99999e-01,9.99999e-01,9.98109e-01,2.63423e-01,9.99959e-01
6.521297956e-01,2.69926e-01,9.99999e-01,9.99999e-01,9.99999e-01,9.98072e-01,2.70456e-01,9.99966e-01
6.553904446e-01,2.76992e-01,9.99999e-01,9.99999e-01,9.99999e-01,9.98073e-01,2.77533e-01,9.99974e-01
6.586673968e-01,2.84180e-01,9.99999e-01,9.99999e-01,9.99999e-01,9.98356e-01,2.84650e-01,9.99991e-01
6.619607338e-01,2.91535e-01,9.99999e-01,9.99999e-01,9.99999e-01,9.99084e-01,2.91803e-01,9.99997e-01
6.652705375e-01,2.98824e-01,9.99999e-01,9.99999e-01,9.99999e-01,9.99450e-01,2.98989e-01,9.99998e-01
6.685968902e-01,3.06133e-01,9.99999e-01,9.99999e-01,9.99999e-01,9.99766e-01,3.06205e-01,9.99999e-01
6.719398746e-01,3.13410e-01,9.99999e-01,9.99999e-01,9.99999e-01,9.99881e-01,3.13447e-01,9.99999e-01
6.752995740e-01,3.20693e-01,9.99999e-01,9.99999e-01,9.99999e-01,9.99937e-01,3.20713e-01,9.99999e-01
6.786760719e-01,3.27968e-01,9.99999e-01,9.99999e-01,9.99999e-01,9.99906e-01,3.27999e-01,9.99999e-01
6.820694522e-01,3.35247e-01,9.99999e-01,9.99999e-01,9.99999e-01,9.99840e-01,3.35301e-01,9.99998e-01
6.854797995e-01,3.42546e-01,9.99999e-01,9.99999e-01,9.99999e-01,9.99794e-01,3.42617e-01,9.99997e-01
6.889071985e-01,3.49765e-01,9.99999e-01,9.99999e-01,9.99999e-01,9.99495e-01,3.49943e-01,9.99995e-01
6.923517345e-01,3.54356e-01,9.99999e-01,9.99999e-01,9.99999e-01,9.91862e-01,3.57277e-01,9.99960e-01
6.958134932e-01,3.63068e-01,9.99999e-01,9.99999e-01,9.99999e-01,9.95842e-01,3.64614e-01,9.99913e-01
6.992925606e-01,3.70428e-01,9.99999e-01,9.99999e-01,9.99999e-01,9.95975e-01,3.71953e-01,9.99922e-01
7.027890234e-01,3.77399e-01,9.99999e-01,9.99999e-01,9.99999e-01,9.95069e-01,3.79291e-01,9.99940e-01
7.063029686e-01,3.85009e-01,9.99999e-01,9.99999e-01,9.99999e-01,9.95850e-01,3.86624e-01,9.99970e-01
7.098344834e-01,3.92375e-01,9.99999e-01,9.99999e-01,9.99999e-01,9.96018e-01,3.93950e-01,9.99982e-01
7.133836558e-01,3.99099e-01,9.99999e-01,9.99999e-01,9.99999e-01,9.94633e-01,4.01266e-01,9.99964e-01
7.169505741e-01,3.91202e-01,9.99999e-01,9.99999e-01,9.99999e-01,9.57753e-01,4.08569e-01,9.99727e-01
7.205353270e-01,4.07125e-01,9.99999e-01,9.99999e-01,9.99999e-01,9.79472e-01,4.15857e-01,9.99519e-01
7.241380036e-01,4.11793e-01,9.99999e-01,9.99999e-01,9.99999e-01,9.73616e-01,4.23127e-01,9.99585e-01
7.277586936e-01,4.19984e-01,9.99999e-01,9.99999e-01,9.99999e-01,9.76183e-01,4.30376e-01,9.99660e-01
7.313974871e-01,4.26534e-01,9.99999e-01,9.99999e-01,9.99999e-01,9.74857e-01,4.37604e-01,9.99840e-01
7.350544745e-01,4.38632e-01,9.99999e-01,9.99999e-01,9.99999e-01,9.86174e-01,4.44806e-01,9.99944e-01
7.387297469e-01,4.47369e-01,9.99999e-01,9.99999e-01,9.99999e-01,9.89820e-01,4.51981e-01,9.99974e-01
7.424233956e-01,4.56838e-01,9.99999e-01,9.99999e-01,9.99999e-01,9.95019e-01,4.59126e-01,9.99995e-01
7.461355126e-01,4.64830e-01,9.99999e-01,9.99999e-01,9.99999e-01,9.96975e-01,4.66240e-01,9.99998e-01
7.498661902e-01,4.72656e-01,9.99999e-01,9.99999e-01,9.99999e-01,9.98594e-01,4.73321e-01,9.99999e-01
7.536155211e-01,4.80034e-01,9.99999e-01,9.99999e-01,9.99999e-01,9.99308e-01,4.80366e-01,9.99999e-01
7.573835987e-01,4.87200e-01,9.99999e-01,9.99999e-01,9.99999e-01,9.99643e-01,4.87373e-01,9.99999e-01
7.611705167e-01,4.94233e-01,9.99999e-01,9.99999e-01,9.99999e-01,9.99778e-01,4.94342e-01,9.99999e-01
7.649763693e-01,5.01200e-01,9.99999e-01,9.99999e-01,9.99999e-01,9.99860e-01,5.01269e-01,9.99999e-01
7.688012511e-01,5.08105e-01,9.99999e-01,9.99999e-01,9.99999e-01,9.99902e-01,5.08154e-01,9.99999e-01
7.726452574e-01,5.14954e-01,9.99999e-01,9.99999e-01,9.99999e-01,9.99919e-01,5.14995e-01,9.99999e-01
7.765084837e-01,5.21730e-01,9.99999e-01,9.99999e-01,9.99999e-01,9.99885e-01,5.21789e-01,9.99999e-01
7.803910261e-01,5.11853e-01,9.99999e-01,9.99999e-01,9.68897e-01,9.99506e-01,5.28537e-01,9.99999e-01
7.842929812e-01,4.68141e-01,9.99999e-01,9.99999e-01,8.76091e-01,9.98277e-01,5.35236e-01,9.99996e-01
7.882144461e-01,4.68210e-01,9.99999e-01,9.99999e-01,8.67003e-01,9.96482e-01,5.41885e-01,9.99975e-01
7.921555184e-01,5.03849e-01,9.99999e-01,9.99999e-01,9.20392e-01,9.98079e-01,5.48483e-01,9.99957e-01
7.961162960e-01,5.23477e-01,9.99999e-01,9.99999e-01,9.46411e-01,9.96570e-01,5.55029e-01,9.99959e-01
8.000968774e-01,5.42813e-01,9.99999e-01,9.99999e-01,9.70536e-01,9.96061e-01,5.61521e-01,9.99957e-01
8.040973618e-01,5.57043e-01,9.99999e-01,9.99999e-01,9.84689e-01,9.96054e-01,5.67958e-01,9.99967e-01
8.081178486e-01,5.65168e-01,9.99999e-01,9.99999e-01,9.92917e-01,9.91069e-01,5.74340e-01,9.99966e-01
8.121584379e-01,5.58082e-01,9.99999e-01,9.99999e-01,9.97828e-01,9.63299e-01,5.80666e-01,9.99875e-01
8.162192301e-01,5.61140e-01,9.99999e-01,9.99999e-01,9.99519e-01,9.56950e-01,5.86934e-01,9.99532e-01
8.203003262e-01,5.79726e-01,9.99999e-01,9.99999e-01,9.99992e-01,9.77918e-01,5.93144e-01,9.99452e-01
8.244018279e-01,5.81033e-01,9.99999e-01,9.99999e-01,9.99999e-01,9.69949e-01,5.99295e-01,9.99564e-01
8.285238370e-01,5.89421e-01,9.99999e-01,9.99999e-01,9.99999e-01,9.73959e-01,6.05387e-01,9.99657e-01
8.326664562e-01,5.95299e-01,9.99999e-01,9.99999e-01,9.99999e-01,9.73773e-01,6.11418e-01,9.99858e-01
8.368297885e-01,6.05792e-01,9.99999e-01,9.99999e-01,9.99999e-01,9.81247e-01,6.17389e-01,9.99967e-01
8.410139374e-01,6.16322e-01,9.99999e-01,9.99999e-01,9.99999e-01,9.88826e-01,6.23298e-01,9.99980e-01
8.452190071e-01,6.25688e-01,9.99999e-01,9.99999e-01,9.99999e-01,9.94514e-01,6.29145e-01,9.99988e-01
8.494451021e-01,6.32896e-01,9.99999e-01,9.99999e-01,9.99999e-01,9.96804e-01,6.34930e-01,9.99990e-01
8.536923276e-01,6.39442e-01,9.99999e-01,9.99999e-01,9.99999e-01,9.98115e-01,6.40653e-01,9.99994e-01
8.579607893e-01,6.45559e-01,9.99999e-01,9.99999e-01,9.99999e-01,9.98835e-01,6.46312e-01,9.99998e-01
8.622505932e-01,6.51427e-01,9.99999e-01,9.99999e-01,9.99999e-01,9.99261e-01,6.51909e-01,9.99999e-01
8.665618462e-01,6.10458e-01,9.99999e-01,9.99999e-01,9.28945e-01,9.99541e-01,6.57441e-01,9.99999e-01
8.708946554e-01,4.72130e-01,9.99999e-01,9.99999e-01,7.12571e-01,9.99474e-01,6.62910e-01,9.99999e-01
8.752491287e-01,5.09231e-01,9.99999e-01,9.99999e-01,7.62483e-01,9.99297e-01,6.68315e-01,9.99998e-01
8.796253743e-01,5.80182e-01,9.99999e-01,9.99999e-01,8.62064e-01,9.99024e-01,6.73656e-01,9.99997e-01
8.840235012e-01,6.28004e-01,9.99999e-01,9.99999e-01,9.26009e-01,9.98886e-01,6.78933e-01,9.99992e-01
8.884436187e-01,6.61097e-01,9.99999e-01,9.99999e-01,9.70299e-01,9.95871e-01,6.84146e-01,9.99980e-01
8.928858368e-01,6.52121e-01,9.99999e-01,9.99999e-01,9.87841e-01,9.57729e-01,6.89295e-01,9.99888e-01
8.973502660e-01,6.41455e-01,9.99999e-01,9.99999e-01,9.97050e-01,9.26991e-01,6.94380e-01,9.99431e-01
9.018370173e-01,6.72234e-01,9.99999e-01,9.99999e-01,9.99675e-01,9.62320e-01,6.99401e-01,9.99106e-01
9.063462024e-01,6.74388e-01,9.99999e-01,9.99999e-01,9.91407e-01,9.66279e-01,7.04357e-01,9.99214e-01
9.108779334e-01,6.59179e-01,9.99999e-01,9.99999e-01,9.80828e-01,9.48143e-01,7.09250e-01,9.99184e-01
9.154323231e-01,6.68846e-01,9.99999e-01,9.99999e-01,9.95514e-01,9.41430e-01,7.14079e-01,9.99325e-01
9.200094847e-01,6.41988e-01,9.99999e-01,9.99999e-01,9.34521e-01,9.53922e-01,7.18845e-01,9.99622e-01
9.246095321e-01,6.10868e-01,9.99999e-01,9.99999e-01,9.09472e-01,9.27265e-01,7.23548e-01,9.99564e-01
9.292325798e-01,4.12093e-01,9.99999e-01,9.99999e-01,9.27554e-01,6.06956e-01,7.28187e-01,9.97902e-01
9.338787427e-01,3.59716e-01,9.99999e-01,9.99999e-01,9.30591e-01,5.27900e-01,7.32764e-01,9.92440e-01
9.385481364e-01,5.37739e-01,9.99999e-01,9.99999e-01,9.48518e-01,7.73277e-01,7.37278e-01,9.91697e-01
9.432408771e-01,4.97516e-01,9.99999e-01,9.99999e-01,9.68252e-01,6.96623e-01,7.41730e-01,9.92833e-01
9.479570815e-01,4.43403e-01,9.99999e-01,9.99999e-01,9.83556e-01,6.07251e-01,7.46120e-01,9.94163e-01
9.526968669e-01,5.12275e-01,9.99999e-01,9.99999e-01,9.92054e-01,6.90115e-01,7.50449e-01,9.96435e-01
9.574603512e-01,5.33888e-01,9.99999e-01,9.99999e-01,9.96598e-01,7.10961e-01,7.54717e-01,9.98187e-01
9.622476530e-01,5.74167e-01,9.99999e-01,9.99999e-01,9.98939e-01,7.58266e-01,7.58924e-01,9.98746e-01
9.670588912e-01,6.49696e-01,9.99999e-01,9.99999e-01,9.99682e-01,8.52412e-01,7.63070e-01,9.99142e-01
9.718941857e-01,6.93790e-01,9.99999e-01,9.99999e-01,9.99977e-01,9.04954e-01,7.67157e-01,9.99368e-01
9.767536566e-01,7.09475e-01,9.99999e-01,9.99999e-01,9.99999e-01,9.20425e-01,7.71184e-01,9.99517e-01
9.816374249e-01,7.28955e-01,9.99999e-01,9.99999e-01,9.99999e-01,9.40559e-01,7.75152e-01,9.99832e-01
9.865456120e-01,7.49790e-01,9.99999e-01,9.99999e-01,9.99999e-01,9.62460e-01,7.79061e-01,9.99964e-01
9.914783401e-01,7.64604e-01,9.99999e-01,9.99999e-01,9.99999e-01,9.76622e-01,7.82913e-01,9.99989e-01
9.964357318e-01,7.76638e-01,9.99999e-01,9.99999e-01,9.99999e-01,9.87206e-01,7.86707e-01,9.99993e-01
1.001417910e+00,7.84365e-01,9.99999e-01,9.99999e-01,9.99999e-01,9.92317e-01,7.90443e-01,9.99990e-01
1.006425000e+00,7.90625e-01,9.99999e-01,9.99999e-01,9.99999e-01,9.95605e-01,7.94123e-01,9.99987e-01
1.011457125e+00,7.95567e-01,9.99999e-01,9.99999e-01,9.99999e-01,9.97277e-01,7.97748e-01,9.99988e-01
1.016514411e+00,7.99826e-01,9.99999e-01,9.99999e-01,9.99999e-01,9.98148e-01,8.01316e-01,9.99991e-01
1.021596983e+00,8.03594e-01,9.99999e-01,9.99999e-01,9.99948e-01,9.98523e-01,8.04830e-01,9.99991e-01
1.026704968e+00,8.04636e-01,9.99999e-01,9.99999e-01,9.96632e-01,9.98847e-01,8.08289e-01,9.99994e-01
1.031838492e+00,7.75829e-01,9.99999e-01,9.99999e-01,9.56590e-01,9.99163e-01,8.11694e-01,9.99998e-01
1.036997685e+00,1.38727e-01,9.99999e-01,9.99999e-01,1.70275e-01,9.99502e-01,8.15046e-01,9.99999e-01
1.042182673e+00,1.25639e-01,9.99999e-01,9.99999e-01,1.53611e-01,9.99404e-01,8.18345e-01,9.99999e-01
1.047393587e+00,1.38110e-01,9.99999e-01,9.99999e-01,1.68218e-01,9.99211e-01,8.21592e-01,9.99999e-01
1.052630555e+00,5.67033e-03,9.99999e-01,9.99999e-01,6.88045e-03,9.98917e-01,8.24787e-01,9.99999e-01
1.057893707e+00,1.38027e-02,9.99999e-01,9.99999e-01,1.66923e-02,9.98190e-01,8.27931e-01,9.99998e-01
1.063183176e+00,4.08182e-02,9.99999e-01,9.99999e-01,4.92253e-02,9.97026e-01,8.31025e-01,9.99997e-01
1.068499092e+00,1.03534e-01,9.99999e-01,9.99999e-01,1.24661e-01,9.95031e-01,8.34069e-01,9.99996e-01
1.073841587e+00,2.24440e-01,9.99999e-01,9.99999e-01,2.69489e-01,9.94175e-01,8.37063e-01,9.99992e-01
