#,Wave/freq,Total,N2,O2,CO2,H2O,Rayleigh,CIA
4.000000000e-01,1.94756e-02,9.99999e-01,9.99999e-01,9.99999e-01,9.99991e-01,1.94758e-02,9.99999e-01
4.020000000e-01,2.10530e-02,9.99999e-01,9.99999e-01,9.99999e-01,9.99994e-01,2.10531e-02,9.99999e-01
4.040100000e-01,2.27213e-02,9.99999e-01,9.99999e-01,9.99999e-01,9.99997e-01,2.27214e-02,9.99999e-01
4.060300500e-01,2.44849e-02,9.99999e-01,9.99999e-01,9.99999e-01,9.99999e-01,2.44850e-02,9.99999e-01
4.080602003e-01,2.63465e-02,9.99999e-01,9.99999e-01,9.99999e-01,9.99999e-01,2.63465e-02,9.99999e-01
4.101005013e-01,2.83085e-02,9.99999e-01,9.99999e-01,9.99999e-01,9.99999e-01,2.83085e-02,9.99999e-01
4.121510038e-01,3.03736e-02,9.99999e-01,9.99999e-01,9.99999e-01,9.99999e-01,3.03736e-02,9.99999e-01
4.142117588e-01,3.25439e-02,9.99999e-01,9.99999e-01,9.99999e-01,9.99997e-01,3.25439e-02,9.99999e-01
4.162828176e-01,3.48216e-02,9.99999e-01,9.99999e-01,9.99999e-01,9.99990e-01,3.48219e-02,9.99999e-01
4.183642317e-01,3.72094e-02,9.99999e-01,9.99999e-01,9.99999e-01,9.99993e-01,3.72096e-02,9.99999e-01
4.204560528e-01,3.97087e-02,9.99999e-01,9.99999e-01,9.99999e-01,9.99996e-01,3.97089e-02,9.99999e-01
4.225583331e-01,4.23216e-02,9.99999e-01,9.99999e-01,9.99999e-01,9.99998e-01,4.23217e-02,9.99999e-01
4.246711247e-01,4.50497e-02,9.99999e-01,9.99999e-01,9.99999e-01,9.99998e-01,4.50497e-02,9.99999e-01
4.267944804e-01,4.78943e-02,9.99999e-01,9.99999e-01,9.99999e-01,9.99998e-01,4.78944e-02,9.99999e-01
4.289284528e-01,5.08571e-02,9.99999e-01,9.99999e-01,9.99999e-01,9.99998e-01,5.08572e-02,9.99999e-01
4.310730950e-01,5.39393e-02,9.99999e-01,9.99999e-01,9.99999e-01,9.99999e-01,5.39393e-02,9.99999e-01
4.332284605e-01,5.71417e-02,9.99999e-01,9.99999e-01,9.99999e-01,9.99999e-01,5.71417e-02,9.99999e-01
4.353946028e-01,6.04653e-02,9.99999e-01,9.99999e-01,9.99999e-01,9.99999e-01,6.04653e-02,9.99999e-01
4.375715758e-01,6.39108e-02,9.99999e-01,9.99999e-01,9.99999e-01,9.99998e-01,6.39109e-02,9.99999e-01
4.397594337e-01,6.74783e-02,9.99999e-01,9.99999e-01,9.99999e-01,9.99991e-01,6.74788e-02,9.99999e-01
4.419582309e-01,7.11666e-02,9.99999e-01,9.99999e-01,9.99999e-01,9.99957e-01,7.11696e-02,9.99999e-01
4.441680220e-01,7.49808e-02,9.99999e-01,9.99999e-01,9.99999e-01,9.99966e-01,7.49833e-02,9.99999e-01
4.463888621e-01,7.89172e-02,9.99999e-01,9.99999e-01,9.99999e-01,9.99965e-01,7.89199e-02,9.99999e-01
4.486208064e-01,8.29776e-02,9.99999e-01,9.99999e-01,9.99999e-01,9.99978e-01,8.29793e-02,9.99999e-01
4.508639105e-01,8.71603e-02,9.99999e-01,9.99999e-01,9.99999e-01,9.99989e-01,8.71611e-02,9.99999e-01
4.531182300e-01,9.14645e-02,9.99999e-01,9.99999e-01,9.99999e-01,9.99995e-01,9.14648e-02,9.99999e-01
4.553838212e-01,9.58894e-02,9.99999e-01,9.99999e-01,9.99999e-01,9.99996e-01,9.58897e-02,9.99999e-01
4.576607403e-01,1.00435e-01,9.99999e-01,9.99999e-01,9.99999e-01,9.99998e-01,1.00435e-01,9.99999e-01
4.599490440e-01,1.05099e-01,9.99999e-01,9.99999e-01,9.99999e-01,9.99998e-01,1.05099e-01,9.99999e-01
4.622487892e-01,1.09882e-01,9.99999e-01,9.99999e-01,9.99999e-01,9.99999e-01,1.09882e-01,9.99999e-01
4.645600332e-01,1.14781e-01,9.99999e-01,9.99999e-01,9.99999e-01,9.99998e-01,1.14781e-01,9.99999e-01
4.668828333e-01,1.19794e-01,9.99999e-01,9.99999e-01,9.99999e-01,9.99989e-01,1.19795e-01,9.99999e-01
4.692172475e-01,1.24920e-01,9.99999e-01,9.99999e-01,9.99999e-01,9.99978e-01,1.24923e-01,9.99999e-01
4.715633337e-01,1.30161e-01,9.99999e-01,9.99999e-01,9.99999e-01,9.99985e-01,1.30163e-01,9.99999e-01
4.739211504e-01,1.35510e-01,9.99999e-01,9.99999e-01,9.99999e-01,9.99986e-01,1.35512e-01,9.99999e-01
4.762907561e-01,1.40968e-01,9.99999e-01,9.99999e-01,9.99999e-01,9.99992e-01,1.40969e-01,9.99999e-01
4.786722099e-01,1.46531e-01,9.99999e-01,9.99999e-01,9.99999e-01,9.99996e-01,1.46531e-01,9.99999e-01
4.810655710e-01,1.52196e-01,9.99999e-01,9.99999e-01,9.99999e-01,9.99998e-01,1.52197e-01,9.99999e-01
4.834708988e-01,1.57961e-01,9.99999e-01,9.99999e-01,9.99999e-01,9.99991e-01,1.57963e-01,9.99999e-01
4.858882533e-01,1.63824e-01,9.99999e-01,9.99999e-01,9.99999e-01,9.99984e-01,1.63827e-01,9.99999e-01
4.883176946e-01,1.69784e-01,9.99999e-01,9.99999e-01,9.99999e-01,9.99986e-01,1.69786e-01,9.99999e-01
4.907592831e-01,1.75836e-01,9.99999e-01,9.99999e-01,9.99999e-01,9.99988e-01,1.75838e-01,9.99999e-01
4.932130795e-01,1.81979e-01,9.99999e-01,9.99999e-01,9.99999e-01,9.99991e-01,1.81980e-01,9.99999e-01
4.956791449e-01,1.88209e-01,9.99999e-01,9.99999e-01,9.99999e-01,9.99995e-01,1.88209e-01,9.99999e-01
4.981575406e-01,1.94518e-01,9.99999e-01,9.99999e-01,9.99999e-01,9.99978e-01,1.94522e-01,9.99999e-01
5.006483283e-01,2.00904e-01,9.99999e-01,9.99999e-01,9.99999e-01,9.99943e-01,2.00915e-01,9.99999e-01
5.031515699e-01,2.07327e-01,9.99999e-01,9.99999e-01,9.99999e-01,9.99717e-01,2.07387e-01,9.99996e-01
5.056673278e-01,2.13900e-01,9.99999e-01,9.99999e-01,9.99999e-01,9.99850e-01,2.13932e-01,9.99996e-01
5.081956644e-01,2.20507e-01,9.99999e-01,9.99999e-01,9.99999e-01,9.99811e-01,2.20549e-01,9.99997e-01
5.107366428e-01,2.27204e-01,9.99999e-01,9.99999e-01,9.99999e-01,9.99872e-01,2.27233e-01,9.99999e-01
5.132903260e-01,2.33965e-01,9.99999e-01,9.99999e-01,9.99999e-01,9.99927e-01,2.33982e-01,9.99999e-01
5.158567776e-01,2.40785e-01,9.99999e-01,9.99999e-01,9.99999e-01,9.99968e-01,2.40793e-01,9.99999e-01
5.184360615e-01,2.47658e-01,9.99999e-01,9.99999e-01,9.99999e-01,9.99987e-01,2.47661e-01,9.99999e-01
5.210282418e-01,2.54582e-01,9.99999e-01,9.99999e-01,9.99999e-01,9.99994e-01,2.54584e-01,9.99999e-01
5.236333830e-01,2.61552e-01,9.99999e-01,9.99999e-01,9.99999e-01,9.99981e-01,2.61557e-01,9.99999e-01
5.262515499e-01,2.68575e-01,9.99999e-01,9.99999e-01,9.99999e-01,9.99988e-01,2.68578e-01,9.99999e-01
5.288828077e-01,2.75641e-01,9.99999e-01,9.99999e-01,9.99999e-01,9.99988e-01,2.75644e-01,9.99999e-01
5.315272217e-01,2.82748e-01,9.99999e-01,9.99999e-01,9.99999e-01,9.99990e-01,2.82750e-01,9.99999e-01
5.341848578e-01,2.89892e-01,9.99999e-01,9.99999e-01,9.99999e-01,9.99993e-01,2.89894e-01,9.99999e-01
5.368557821e-01,2.97065e-01,9.99999e-01,9.99999e-01,9.99999e-01,9.99978e-01,2.97072e-01,9.99999e-01
5.395400610e-01,3.04256e-01,9.99999e-01,9.99999e-01,9.99999e-01,9.99922e-01,3.04280e-01,9.99998e-01
5.422377613e-01,3.11484e-01,9.99999e-01,9.99999e-01,9.99999e-01,9.99899e-01,3.11516e-01,9.99997e-01
5.449489501e-01,3.18745e-01,9.99999e-01,9.99999e-01,9.99999e-01,9.99906e-01,3.18776e-01,9.99997e-01
5.476736949e-01,3.26029e-01,9.99999e-01,9.99999e-01,9.99999e-01,9.99917e-01,3.26056e-01,9.99998e-01
5.504120634e-01,3.33334e-01,9.99999e-01,9.99999e-01,9.99999e-01,9.99939e-01,3.33354e-01,9.99999e-01
5.531641237e-01,3.40657e-01,9.99999e-01,9.99999e-01,9.99999e-01,9.99969e-01,3.40667e-01,9.99999e-01
5.559299443e-01,3.47986e-01,9.99999e-01,9.99999e-01,9.99999e-01,9.99985e-01,3.47991e-01,9.99999e-01
5.587095940e-01,3.55319e-01,9.99999e-01,9.99999e-01,9.99999e-01,9.99990e-01,3.55322e-01,9.99999e-01
5.615031420e-01,3.62656e-01,9.99999e-01,9.99999e-01,9.99999e-01,9.99989e-01,3.62659e-01,9.99999e-01
5.643106577e-01,3.69994e-01,9.99999e-01,9.99999e-01,9.99999e-01,9.99988e-01,3.69998e-01,9.99999e-01
5.671322110e-01,3.77284e-01,9.99999e-01,9.99999e-01,9.99999e-01,9.99860e-01,3.77337e-01,9.99998e-01
5.699678720e-01,3.84613e-01,9.99999e-01,9.99999e-01,9.99999e-01,9.99851e-01,3.84671e-01,9.99995e-01
5.728177114e-01,3.91938e-01,9.99999e-01,9.99999e-01,9.99999e-01,9.99845e-01,3.91999e-01,9.99996e-01
5.756818000e-01,3.99261e-01,9.99999e-01,9.99999e-01,9.99999e-01,9.99857e-01,3.99318e-01,9.99997e-01
5.785602090e-01,4.06574e-01,9.99999e-01,9.99999e-01,9.99999e-01,9.99876e-01,4.06625e-01,9.99998e-01
5.814530100e-01,4.13865e-01,9.99999e-01,9.99999e-01,9.99999e-01,9.99875e-01,4.13917e-01,9.99999e-01
5.843602750e-01,4.21129e-01,9.99999e-01,9.99999e-01,9.99999e-01,9.99851e-01,4.21192e-01,9.99998e-01
5.872820764e-01,4.27897e-01,9.99999e-01,9.99999e-01,9.99999e-01,9.98724e-01,4.28447e-01,9.99990e-01
5.902184868e-01,4.34997e-01,9.99999e-01,9.99999e-01,9.99999e-01,9.98454e-01,4.35681e-01,9.99975e-01
5.931695792e-01,4.42396e-01,9.99999e-01,9.99999e-01,9.99999e-01,9.98908e-01,4.42890e-01,9.99976e-01
5.961354271e-01,4.49528e-01,9.99999e-01,9.99999e-01,9.99999e-01,9.98803e-01,4.50072e-01,9.99986e-01
5.991161043e-01,4.56825e-01,9.99999e-01,9.99999e-01,9.99999e-01,9.99127e-01,4.57226e-01,9.99995e-01
6.021116848e-01,4.64118e-01,9.99999e-01,9.99999e-01,9.99999e-01,9.99504e-01,4.64348e-01,9.99999e-01
6.051222432e-01,4.71320e-01,9.99999e-01,9.99999e-01,9.99999e-01,9.99749e-01,4.71438e-01,9.99999e-01
6.081478544e-01,4.78441e-01,9.99999e-01,9.99999e-01,9.99999e-01,9.99891e-01,4.78493e-01,9.99999e-01
6.111885937e-01,4.85488e-01,9.99999e-01,9.99999e-01,9.99999e-01,9.99953e-01,4.85510e-01,9.99999e-01
6.142445367e-01,4.92479e-01,9.99999e-01,9.99999e-01,9.99999e-01,9.99979e-01,4.92489e-01,9.99999e-01
6.173157594e-01,4.99422e-01,9.99999e-01,9.99999e-01,9.99999e-01,9.99988e-01,4.99428e-01,9.99999e-01
6.204023382e-01,5.06319e-01,9.99999e-01,9.99999e-01,9.99999e-01,9.99989e-01,5.06324e-01,9.99999e-01
6.235043498e-01,5.13155e-01,9.99999e-01,9.99999e-01,9.99999e-01,9.99957e-01,5.13177e-01,9.99999e-01
6.266218716e-01,5.19868e-01,9.99999e-01,9.99999e-01,9.99999e-01,9.99777e-01,5.19984e-01,9.99997e-01
6.297549810e-01,5.26700e-01,9.99999e-01,9.99999e-01,9.99999e-01,9.99918e-01,5.26744e-01,9.99996e-01
6.329037559e-01,5.33369e-01,9.99999e-01,9.99999e-01,9.99999e-01,9.99838e-01,5.33456e-01,9.99997e-01
6.360682746e-01,5.40044e-01,9.99999e-01,9.99999e-01,9.99999e-01,9.99862e-01,5.40119e-01,9.99998e-01
6.392486160e-01,5.46633e-01,9.99999e-01,9.99999e-01,9.99999e-01,9.99821e-01,5.46731e-01,9.99998e-01
6.424448591e-01,5.53158e-01,9.99999e-01,9.99999e-01,9.99999e-01,9.99761e-01,5.53290e-01,9.99998e-01
6.456570834e-01,5.59175e-01,9.99999e-01,9.99999e-01,9.99999e-01,9.98895e-01,5.59797e-01,9.99993e-01
6.488853688e-01,5.65781e-01,9.99999e-01,9.99999e-01,9.99999e-01,9.99190e-01,5.66249e-01,9.99982e-01
6.521297956e-01,5.72165e-01,9.99999e-01,9.99999e-01,9.99999e-01,9.99174e-01,5.72646e-01,9.99985e-01
6.553904446e-01,5.78506e-01,9.99999e-01,9.99999e-01,9.99999e-01,9.99179e-01,5.78986e-01,9.99988e-01
6.586673968e-01,5.84857e-01,9.99999e-01,9.99999e-01,9.99999e-01,9.99296e-01,5.85270e-01,9.99995e-01
6.619607338e-01,5.91255e-01,9.99999e-01,9.99999e-01,9.99999e-01,9.99593e-01,5.91496e-01,9.99998e-01
6.652705375e-01,5.97522e-01,9.99999e-01,9.99999e-01,9.99999e-01,9.99764e-01,5.97663e-01,9.99999e-01
6.685968902e-01,6.03704e-01,9.99999e-01,9.99999e-01,9.99999e-01,9.99890e-01,6.03770e-01,9.99999e-01
6.719398746e-01,6.09787e-01,9.99999e-01,9.99999e-01,9.99999e-01,9.99948e-01,6.09818e-01,9.99999e-01
6.752995740e-01,6.15787e-01,9.99999e-01,9.99999e-01,9.99999e-01,9.99972e-01,6.15804e-01,9.99999e-01
6.786760719e-01,6.21705e-01,9.99999e-01,9.99999e-01,9.99999e-01,9.99959e-01,6.21730e-01,9.99999e-01
6.820694522e-01,6.27551e-01,9.99999e-01,9.99999e-01,9.99999e-01,9.99931e-01,6.27594e-01,9.99999e-01
6.854797995e-01,6.33340e-01,9.99999e-01,9.99999e-01,9.99999e-01,9.99912e-01,6.33395e-01,9.99998e-01
6.889071985e-01,6.38998e-01,9.99999e-01,9.99999e-01,9.99999e-01,9.99788e-01,6.39135e-01,9.99997e-01
6.923517345e-01,6.42572e-01,9.99999e-01,9.99999e-01,9.99999e-01,9.96543e-01,6.44811e-01,9.99982e-01
6.958134932e-01,6.49230e-01,9.99999e-01,9.99999e-01,9.99999e-01,9.98200e-01,6.50424e-01,9.99962e-01
6.992925606e-01,6.54832e-01,9.99999e-01,9.99999e-01,9.99999e-01,9.98291e-01,6.55974e-01,9.99966e-01
7.027890234e-01,6.60048e-01,9.99999e-01,9.99999e-01,9.99999e-01,9.97890e-01,6.61460e-01,9.99974e-01
7.063029686e-01,6.65691e-01,9.99999e-01,9.99999e-01,9.99999e-01,9.98227e-01,6.66882e-01,9.99986e-01
7.098344834e-01,6.71092e-01,9.99999e-01,9.99999e-01,9.99999e-01,9.98299e-01,6.72240e-01,9.99992e-01
7.133836558e-01,6.75988e-01,9.99999e-01,9.99999e-01,9.99999e-01,9.97732e-01,6.77534e-01,9.99984e-01
7.169505741e-01,6.70259e-01,9.99999e-01,9.99999e-01,9.99999e-01,9.81798e-01,6.82764e-01,9.99883e-01
7.205353270e-01,6.81643e-01,9.99999e-01,9.99999e-01,9.99999e-01,9.91063e-01,6.87930e-01,9.99794e-01
7.241380036e-01,6.85062e-01,9.99999e-01,9.99999e-01,9.99999e-01,9.88673e-01,6.93032e-01,9.99822e-01
7.277586936e-01,6.90831e-01,9.99999e-01,9.99999e-01,9.99999e-01,9.89773e-01,6.98069e-01,9.99855e-01
7.313974871e-01,6.95362e-01,9.99999e-01,9.99999e-01,9.99999e-01,9.89140e-01,7.03043e-01,9.99931e-01
7.350544745e-01,7.03732e-01,9.99999e-01,9.99999e-01,9.99999e-01,9.94061e-01,7.07953e-01,9.99975e-01
7.387297469e-01,7.09677e-01,9.99999e-01,9.99999e-01,9.99999e-01,9.95630e-01,7.12799e-01,9.99988e-01
7.424233956e-01,7.16046e-01,9.99999e-01,9.99999e-01,9.99999e-01,9.97861e-01,7.17582e-01,9.99997e-01
7.461355126e-01,7.21365e-01,9.99999e-01,9.99999e-01,9.99999e-01,9.98703e-01,7.22301e-01,9.99999e-01
7.498661902e-01,7.26519e-01,9.99999e-01,9.99999e-01,9.99999e-01,9.99396e-01,7.26957e-01,9.99999e-01
7.536155211e-01,7.31334e-01,9.99999e-01,9.99999e-01,9.99999e-01,9.99703e-01,7.31551e-01,9.99999e-01
7.573835987e-01,7.35970e-01,9.99999e-01,9.99999e-01,9.99999e-01,9.99847e-01,7.36082e-01,9.99999e-01
7.611705167e-01,7.40480e-01,9.99999e-01,9.99999e-01,9.99999e-01,9.99904e-01,7.40550e-01,9.99999e-01
7.649763693e-01,7.44913e-01,9.99999e-01,9.99999e-01,9.99999e-01,9.99940e-01,7.44957e-01,9.99999e-01
7.688012511e-01,7.49271e-01,9.99999e-01,9.99999e-01,9.99999e-01,9.99958e-01,7.49302e-01,9.99999e-01
7.726452574e-01,7.53560e-01,9.99999e-01,9.99999e-01,9.99999e-01,9.99965e-01,7.53586e-01,9.99999e-01
7.765084837e-01,7.57772e-01,9.99999e-01,9.99999e-01,9.99999e-01,9.99951e-01,7.57809e-01,9.99999e-01
7.803910261e-01,7.51533e-01,9.99999e-01,9.99999e-01,9.86504e-01,9.99790e-01,7.61971e-01,9.99999e-01
7.842929812e-01,7.22645e-01,9.99999e-01,9.99999e-01,9.43985e-01,9.99271e-01,7.66074e-01,9.99998e-01
7.882144461e-01,7.22749e-01,9.99999e-01,9.99999e-01,9.39890e-01,9.98498e-01,7.70117e-01,9.99990e-01
7.921555184e-01,7.46509e-01,9.99999e-01,9.99999e-01,9.65161e-01,9.99176e-01,7.74101e-01,9.99981e-01
7.961162960e-01,7.58726e-01,9.99999e-01,9.99999e-01,9.76626e-01,9.98544e-01,7.78026e-01,9.99982e-01
8.000968774e-01,7.70631e-01,9.99999e-01,9.99999e-01,9.87272e-01,9.98319e-01,7.81892e-01,9.99981e-01
8.040973618e-01,7.79187e-01,9.99999e-01,9.99999e-01,9.93391e-01,9.98318e-01,7.85702e-01,9.99985e-01
8.081178486e-01,7.84064e-01,9.99999e-01,9.99999e-01,9.96962e-01,9.96209e-01,7.89453e-01,9.99986e-01
8.121584379e-01,7.79880e-01,9.99999e-01,9.99999e-01,9.99060e-01,9.84242e-01,7.93149e-01,9.99946e-01
8.162192301e-01,7.81567e-01,9.99999e-01,9.99999e-01,9.99792e-01,9.81294e-01,7.96788e-01,9.99800e-01
8.203003262e-01,7.92647e-01,9.99999e-01,9.99999e-01,9.99996e-01,9.90583e-01,8.00371e-01,9.99766e-01
8.244018279e-01,7.93149e-01,9.99999e-01,9.99999e-01,9.99999e-01,9.86810e-01,8.03899e-01,9.99813e-01
8.285238370e-01,7.98232e-01,9.99999e-01,9.99999e-01,9.99999e-01,9.88822e-01,8.07373e-01,9.99853e-01
8.326664562e-01,8.01576e-01,9.99999e-01,9.99999e-01,9.99999e-01,9.88692e-01,8.10792e-01,9.99939e-01
8.368297885e-01,8.07576e-01,9.99999e-01,9.99999e-01,9.99999e-01,9.91928e-01,8.14158e-01,9.99985e-01
8.410139374e-01,8.13542e-01,9.99999e-01,9.99999e-01,9.99999e-01,9.95200e-01,8.17471e-01,9.99991e-01
8.452190071e-01,8.18796e-01,9.99999e-01,9.99999e-01,9.99999e-01,9.97645e-01,8.20732e-01,9.99994e-01
8.494451021e-01,8.22813e-01,9.99999e-01,9.99999e-01,9.99999e-01,9.98634e-01,8.23941e-01,9.99995e-01
8.536923276e-01,8.26429e-01,9.99999e-01,9.99999e-01,9.99999e-01,9.99191e-01,8.27099e-01,9.99997e-01
8.579607893e-01,8.29793e-01,9.99999e-01,9.99999e-01,9.99999e-01,9.99502e-01,8.30206e-01,9.99998e-01
8.622505932e-01,8.33000e-01,9.99999e-01,9.99999e-01,9.99999e-01,9.99683e-01,8.33263e-01,9.99999e-01
8.665618462e-01,8.04775e-01,9.99999e-01,9.99999e-01,9.62522e-01,9.99804e-01,8.36271e-01,9.99999e-01
8.708946554e-01,7.22684e-01,9.99999e-01,9.99999e-01,8.61317e-01,9.99775e-01,8.39229e-01,9.99999e-01
8.752491287e-01,7.47961e-01,9.99999e-01,9.99999e-01,8.88430e-01,9.99700e-01,8.42140e-01,9.99999e-01
8.796253743e-01,7.92202e-01,9.99999e-01,9.99999e-01,9.37898e-01,9.99585e-01,8.45003e-01,9.99998e-01
8.840235012e-01,8.19882e-01,9.99999e-01,9.99999e-01,9.67507e-01,9.99526e-01,8.47818e-01,9.99996e-01
8.884436187e-01,8.38159e-01,9.99999e-01,9.99999e-01,9.87096e-01,9.98270e-01,8.50587e-01,9.99991e-01
8.928858368e-01,8.33397e-01,9.99999e-01,9.99999e-01,9.94759e-01,9.81837e-01,8.53311e-01,9.99952e-01
8.973502660e-01,8.27364e-01,9.99999e-01,9.99999e-01,9.98725e-01,9.68017e-01,8.55989e-01,9.99757e-01
9.018370173e-01,8.44049e-01,9.99999e-01,9.99999e-01,9.99859e-01,9.83537e-01,8.58622e-01,9.99618e-01
9.063462024e-01,8.45425e-01,9.99999e-01,9.99999e-01,9.96375e-01,9.85527e-01,8.61211e-01,9.99664e-01
9.108779334e-01,8.37094e-01,9.99999e-01,9.99999e-01,9.91736e-01,9.77509e-01,8.63756e-01,9.99651e-01
9.154323231e-01,8.42314e-01,9.99999e-01,9.99999e-01,9.98055e-01,9.74517e-01,8.66259e-01,9.99712e-01
9.200094847e-01,8.26747e-01,9.99999e-01,9.99999e-01,9.70887e-01,9.79964e-01,8.68719e-01,9.99838e-01
9.246095321e-01,8.10100e-01,9.99999e-01,9.99999e-01,9.60116e-01,9.68450e-01,8.71137e-01,9.99814e-01
9.292325798e-01,6.81224e-01,9.99999e-01,9.99999e-01,9.68421e-01,8.04676e-01,8.73514e-01,9.99277e-01
9.338787427e-01,6.39632e-01,9.99999e-01,9.99999e-01,9.69575e-01,7.54354e-01,8.75850e-01,9.97016e-01
9.385481364e-01,7.64331e-01,9.99999e-01,9.99999e-01,9.77618e-01,8.93001e-01,8.78147e-01,9.96452e-01
9.432408771e-01,7.37879e-01,9.99999e-01,9.99999e-01,9.86263e-01,8.52118e-01,8.80404e-01,9.96938e-01
9.479570815e-01,6.98408e-01,9.99999e-01,9.99999e-01,9.92932e-01,7.98771e-01,8.82621e-01,9.97507e-01
9.526968669e-01,7.46370e-01,9.99999e-01,9.99999e-01,9.96585e-01,8.47608e-01,8.84801e-01,9.98478e-01
9.574603512e-01,7.63154e-01,9.99999e-01,9.99999e-01,9.98539e-01,8.62323e-01,8.86942e-01,9.99226e-01
9.622476530e-01,7.87868e-01,9.99999e-01,9.99999e-01,9.99544e-01,8.87061e-01,8.89047e-01,9.99465e-01
9.670588912e-01,8.31400e-01,9.99999e-01,9.99999e-01,9.99863e-01,9.33454e-01,8.91114e-01,9.99634e-01
9.718941857e-01,8.55532e-01,9.99999e-01,9.99999e-01,9.99989e-01,9.58152e-01,8.93146e-01,9.99730e-01
9.767536566e-01,8.63775e-01,9.99999e-01,9.99999e-01,9.99999e-01,9.65157e-01,8.95142e-01,9.99793e-01
9.816374249e-01,8.73804e-01,9.99999e-01,9.99999e-01,9.99999e-01,9.74097e-01,8.97102e-01,9.99928e-01
9.865456120e-01,8.84411e-01,9.99999e-01,9.99999e-01,9.99999e-01,9.83755e-01,8.99029e-01,9.99984e-01
9.914783401e-01,8.91851e-01,9.99999e-01,9.99999e-01,9.99999e-01,9.89936e-01,9.00921e-01,9.99995e-01
9.964357318e-01,8.97820e-01,9.99999e-01,9.99999e-01,9.99999e-01,9.94508e-01,9.02779e-01,9.99997e-01
1.001417910e+00,9.01623e-01,9.99999e-01,9.99999e-01,9.99999e-01,9.96706e-01,9.04605e-01,9.99995e-01
1.006425000e+00,9.04692e-01,9.99999e-01,9.99999e-01,9.99999e-01,9.98121e-01,9.06398e-01,9.99994e-01
1.011457125e+00,9.07096e-01,9.99999e-01,9.99999e-01,9.99999e-01,9.98833e-01,9.08159e-01,9.99994e-01
1.016514411e+00,9.09166e-01,9.99999e-01,9.99999e-01,9.99999e-01,9.99208e-01,9.09889e-01,9.99996e-01
1.021596983e+00,9.10993e-01,9.99999e-01,9.99999e-01,9.99980e-01,9.99368e-01,9.11588e-01,9.99996e-01
1.026704968e+00,9.11521e-01,9.99999e-01,9.99999e-01,9.98592e-01,9.99507e-01,9.13256e-01,9.99997e-01
1.031838492e+00,8.94235e-01,9.99999e-01,9.99999e-01,9.77762e-01,9.99642e-01,9.14895e-01,9.99998e-01
1.036997685e+00,3.20162e-01,9.99999e-01,9.99999e-01,3.49394e-01,9.99787e-01,9.16503e-01,9.99999e-01
1.042182673e+00,3.96405e-01,9.99999e-01,9.99999e-01,4.31878e-01,9.99746e-01,9.18083e-01,9.99999e-01
1.047393587e+00,3.53887e-01,9.99999e-01,9.99999e-01,3.84931e-01,9.99663e-01,9.19634e-01,9.99999e-01
1.052630555e+00,7.90657e-02,9.99999e-01,9.99999e-01,8.58651e-02,9.99539e-01,9.21157e-01,9.99999e-01
1.057893707e+00,1.36850e-01,9.99999e-01,9.99999e-01,1.48416e-01,9.99230e-01,9.22653e-01,9.99999e-01
1.063183176e+00,2.33422e-01,9.99999e-01,9.99999e-01,2.52858e-01,9.98734e-01,9.24121e-01,9.99998e-01
1.068499092e+00,3.72756e-01,9.99999e-01,9.99999e-01,4.03529e-01,9.97880e-01,9.25563e-01,9.99998e-01
1.073841587e+00,5.21950e-01,9.99999e-01,9.99999e-01,5.64366e-01,9.97518e-01,9.26978e-01,9.99996e-01
