#,Wave/freq,Total,N2,O2,CO2,H2O,Rayleigh,CIA
4.000000000e-01,4.51880e-11,9.99999e-01,9.99999e-01,9.99999e-01,9.99953e-01,4.51900e-11,9.99999e-01
4.020000000e-01,7.23730e-11,9.99999e-01,9.99999e-01,9.99999e-01,9.99971e-01,7.23750e-11,9.99999e-01
4.040100000e-01,1.14784e-10,9.99999e-01,9.99999e-01,9.99999e-01,9.99987e-01,1.14785e-10,9.99999e-01
4.060300500e-01,1.80396e-10,9.99999e-01,9.99999e-01,9.99999e-01,9.99996e-01,1.80397e-10,9.99999e-01
4.080602003e-01,2.80991e-10,9.99999e-01,9.99999e-01,9.99999e-01,9.99998e-01,2.80991e-10,9.99999e-01
4.101005013e-01,4.33865e-10,9.99999e-01,9.99999e-01,9.99999e-01,9.99999e-01,4.33865e-10,9.99999e-01
4.121510038e-01,6.64185e-10,9.99999e-01,9.99999e-01,9.99999e-01,9.99997e-01,6.64186e-10,9.99999e-01
4.142117588e-01,1.00825e-09,9.99999e-01,9.99999e-01,9.99999e-01,9.99986e-01,1.00826e-09,9.99999e-01
4.162828176e-01,1.51792e-09,9.99999e-01,9.99999e-01,9.99999e-01,9.99942e-01,1.51801e-09,9.99999e-01
4.183642317e-01,2.26700e-09,9.99999e-01,9.99999e-01,9.99999e-01,9.99965e-01,2.26707e-09,9.99999e-01
4.204560528e-01,3.35898e-09,9.99999e-01,9.99999e-01,9.99999e-01,9.99978e-01,3.35905e-09,9.99999e-01
4.225583331e-01,4.93846e-09,9.99999e-01,9.99999e-01,9.99999e-01,9.99991e-01,4.93850e-09,9.99999e-01
4.246711247e-01,7.20550e-09,9.99999e-01,9.99999e-01,9.99999e-01,9.99993e-01,7.20555e-09,9.99999e-01
4.267944804e-01,1.04350e-08,9.99999e-01,9.99999e-01,9.99999e-01,9.99990e-01,1.04351e-08,9.99999e-01
4.289284528e-01,1.50020e-08,9.99999e-01,9.99999e-01,9.99999e-01,9.99992e-01,1.50021e-08,9.99999e-01
4.310730950e-01,2.14137e-08,9.99999e-01,9.99999e-01,9.99999e-01,9.99996e-01,2.14138e-08,9.99999e-01
4.332284605e-01,3.03515e-08,9.99999e-01,9.99999e-01,9.99999e-01,9.99998e-01,3.03516e-08,9.99999e-01
4.353946028e-01,4.27244e-08,9.99999e-01,9.99999e-01,9.99999e-01,9.99999e-01,4.27244e-08,9.99999e-01
4.375715758e-01,5.97360e-08,9.99999e-01,9.99999e-01,9.99999e-01,9.99993e-01,5.97364e-08,9.99999e-01
4.397594337e-01,8.29668e-08,9.99999e-01,9.99999e-01,9.99999e-01,9.99949e-01,8.29709e-08,9.99999e-01
4.419582309e-01,1.14468e-07,9.99999e-01,9.99999e-01,9.99999e-01,9.99744e-01,1.14497e-07,9.99999e-01
4.441680220e-01,1.56970e-07,9.99999e-01,9.99999e-01,9.99999e-01,9.99802e-01,1.57000e-07,9.99999e-01
4.463888621e-01,2.13899e-07,9.99999e-01,9.99999e-01,9.99999e-01,9.99793e-01,2.13943e-07,9.99999e-01
4.486208064e-01,2.89725e-07,9.99999e-01,9.99999e-01,9.99999e-01,9.99872e-01,2.89762e-07,9.99999e-01
4.508639105e-01,3.90083e-07,9.99999e-01,9.99999e-01,9.99999e-01,9.99939e-01,3.90106e-07,9.99999e-01
4.531182300e-01,5.22110e-07,9.99999e-01,9.99999e-01,9.99999e-01,9.99976e-01,5.22123e-07,9.99999e-01
4.553838212e-01,6.94793e-07,9.99999e-01,9.99999e-01,9.99999e-01,9.99983e-01,6.94804e-07,9.99999e-01
4.576607403e-01,9.19385e-07,9.99999e-01,9.99999e-01,9.99999e-01,9.99992e-01,9.19392e-07,9.99999e-01
4.599490440e-01,1.20986e-06,9.99999e-01,9.99999e-01,9.99999e-01,9.99994e-01,1.20986e-06,9.99999e-01
4.622487892e-01,1.58349e-06,9.99999e-01,9.99999e-01,9.99999e-01,9.99998e-01,1.58350e-06,9.99999e-01
4.645600332e-01,2.06152e-06,9.99999e-01,9.99999e-01,9.99999e-01,9.99995e-01,2.06153e-06,9.99999e-01
4.668828333e-01,2.66976e-06,9.99999e-01,9.99999e-01,9.99999e-01,9.99938e-01,2.66992e-06,9.99999e-01
4.692172475e-01,3.43979e-06,9.99999e-01,9.99999e-01,9.99999e-01,9.99870e-01,3.44024e-06,9.99999e-01
4.715633337e-01,4.41029e-06,9.99999e-01,9.99999e-01,9.99999e-01,9.99915e-01,4.41067e-06,9.99999e-01
4.739211504e-01,5.62670e-06,9.99999e-01,9.99999e-01,9.99999e-01,9.99919e-01,5.62715e-06,9.99999e-01
4.762907561e-01,7.14439e-06,9.99999e-01,9.99999e-01,9.99999e-01,9.99957e-01,7.14469e-06,9.99999e-01
4.786722099e-01,9.02864e-06,9.99999e-01,9.99999e-01,9.99999e-01,9.99982e-01,9.02880e-06,9.99999e-01
4.810655710e-01,1.13571e-05,9.99999e-01,9.99999e-01,9.99999e-01,9.99994e-01,1.13571e-05,9.99999e-01
4.834708988e-01,1.42206e-05,9.99999e-01,9.99999e-01,9.99999e-01,9.99949e-01,1.42213e-05,9.99999e-01
4.858882533e-01,1.77272e-05,9.99999e-01,9.99999e-01,9.99999e-01,9.99908e-01,1.77289e-05,9.99999e-01
4.883176946e-01,2.20038e-05,9.99999e-01,9.99999e-01,9.99999e-01,9.99923e-01,2.20055e-05,9.99999e-01
4.907592831e-01,2.71955e-05,9.99999e-01,9.99999e-01,9.99999e-01,9.99930e-01,2.71974e-05,9.99999e-01
4.932130795e-01,3.34723e-05,9.99999e-01,9.99999e-01,9.99999e-01,9.99950e-01,3.34740e-05,9.99999e-01
4.956791449e-01,4.10293e-05,9.99999e-01,9.99999e-01,9.99999e-01,9.99973e-01,4.10303e-05,9.99999e-01
4.981575406e-01,5.00842e-05,9.99999e-01,9.99999e-01,9.99999e-01,9.99869e-01,5.00907e-05,9.99999e-01
5.006483283e-01,6.08905e-05,9.99999e-01,9.99999e-01,9.99999e-01,9.99661e-01,6.09113e-05,9.99997e-01
5.031515699e-01,7.36565e-05,9.99999e-01,9.99999e-01,9.99999e-01,9.98294e-01,7.37837e-05,9.99981e-01
5.056673278e-01,8.89568e-05,9.99999e-01,9.99999e-01,9.99999e-01,9.99101e-01,8.90386e-05,9.99979e-01
5.081956644e-01,1.06927e-04,9.99999e-01,9.99999e-01,9.99999e-01,9.98866e-01,1.07049e-04,9.99987e-01
5.107366428e-01,1.28138e-04,9.99999e-01,9.99999e-01,9.99999e-01,9.99234e-01,1.28236e-04,9.99997e-01
5.132903260e-01,1.53002e-04,9.99999e-01,9.99999e-01,9.99999e-01,9.99563e-01,1.53069e-04,9.99999e-01
5.158567776e-01,1.82039e-04,9.99999e-01,9.99999e-01,9.99999e-01,9.99815e-01,1.82072e-04,9.99999e-01
5.184360615e-01,2.15815e-04,9.99999e-01,9.99999e-01,9.99999e-01,9.99925e-01,2.15831e-04,9.99999e-01
5.210282418e-01,2.54983e-04,9.99999e-01,9.99999e-01,9.99999e-01,9.99971e-01,2.54990e-04,9.99999e-01
5.236333830e-01,3.00231e-04,9.99999e-01,9.99999e-01,9.99999e-01,9.99888e-01,3.00264e-04,9.99998e-01
5.262515499e-01,3.52413e-04,9.99999e-01,9.99999e-01,9.99999e-01,9.99930e-01,3.52437e-04,9.99998e-01
5.288828077e-01,4.12342e-04,9.99999e-01,9.99999e-01,9.99999e-01,9.99935e-01,4.12369e-04,9.99998e-01
5.315272217e-01,4.80970e-04,9.99999e-01,9.99999e-01,9.99999e-01,9.99943e-01,4.80997e-04,9.99999e-01
5.341848578e-01,5.59322e-04,9.99999e-01,9.99999e-01,9.99999e-01,9.99962e-01,5.59343e-04,9.99999e-01
5.368557821e-01,6.48430e-04,9.99999e-01,9.99999e-01,9.99999e-01,9.99869e-01,6.48514e-04,9.99999e-01
5.395400610e-01,7.49352e-04,9.99999e-01,9.99999e-01,9.99999e-01,9.99529e-01,7.49708e-04,9.99995e-01
5.422377613e-01,8.63683e-04,9.99999e-01,9.99999e-01,9.99999e-01,9.99397e-01,8.64213e-04,9.99988e-01
5.449489501e-01,9.92843e-04,9.99999e-01,9.99999e-01,9.99999e-01,9.99437e-01,9.93413e-04,9.99988e-01
5.476736949e-01,1.13822e-03,9.99999e-01,9.99999e-01,9.99999e-01,9.99504e-01,1.13879e-03,9.99993e-01
5.504120634e-01,1.30146e-03,9.99999e-01,9.99999e-01,9.99999e-01,9.99639e-01,1.30193e-03,9.99997e-01
5.531641237e-01,1.48423e-03,9.99999e-01,9.99999e-01,9.99999e-01,9.99818e-01,1.48450e-03,9.99999e-01
5.559299443e-01,1.68815e-03,9.99999e-01,9.99999e-01,9.99999e-01,9.99912e-01,1.68830e-03,9.99999e-01
5.587095940e-01,1.91509e-03,9.99999e-01,9.99999e-01,9.99999e-01,9.99944e-01,1.91520e-03,9.99999e-01
5.615031420e-01,2.16706e-03,9.99999e-01,9.99999e-01,9.99999e-01,9.99938e-01,2.16719e-03,9.99999e-01
5.643106577e-01,2.44618e-03,9.99999e-01,9.99999e-01,9.99999e-01,9.99929e-01,2.44635e-03,9.99998e-01
5.671322110e-01,2.75251e-03,9.99999e-01,9.99999e-01,9.99999e-01,9.99147e-01,2.75488e-03,9.99992e-01
5.699678720e-01,3.09222e-03,9.99999e-01,9.99999e-01,9.99999e-01,9.99108e-01,3.09504e-03,9.99976e-01
5.728177114e-01,3.46592e-03,9.99999e-01,9.99999e-01,9.99999e-01,9.99065e-01,3.46922e-03,9.99980e-01
5.756818000e-01,3.87652e-03,9.99999e-01,9.99999e-01,9.99999e-01,9.99143e-01,3.87988e-03,9.99988e-01
5.785602090e-01,4.32634e-03,9.99999e-01,9.99999e-01,9.99999e-01,9.99254e-01,4.32958e-03,9.99996e-01
5.814530100e-01,4.81732e-03,9.99999e-01,9.99999e-01,9.99999e-01,9.99249e-01,4.82094e-03,9.99997e-01
5.843602750e-01,5.35184e-03,9.99999e-01,9.99999e-01,9.99999e-01,9.99101e-01,5.35668e-03,9.99994e-01
5.872820764e-01,5.89346e-03,9.99999e-01,9.99999e-01,9.99999e-01,9.92289e-01,5.93958e-03,9.99945e-01
5.902184868e-01,6.51046e-03,9.99999e-01,9.99999e-01,9.99999e-01,9.90709e-01,6.57248e-03,9.99852e-01
5.931695792e-01,7.20951e-03,9.99999e-01,9.99999e-01,9.99999e-01,9.93419e-01,7.25829e-03,9.99857e-01
5.961354271e-01,7.94170e-03,9.99999e-01,9.99999e-01,9.99999e-01,9.92796e-01,7.99997e-03,9.99918e-01
5.991161043e-01,8.75404e-03,9.99999e-01,9.99999e-01,9.99999e-01,9.94745e-01,8.80050e-03,9.99974e-01
6.021116848e-01,9.63409e-03,9.99999e-01,9.99999e-01,9.99999e-01,9.97017e-01,9.66293e-03,9.99996e-01
6.051222432e-01,1.05743e-02,9.99999e-01,9.99999e-01,9.99999e-01,9.98490e-01,1.05903e-02,9.99999e-01
6.081478544e-01,1.15781e-02,9.99999e-01,9.99999e-01,9.99999e-01,9.99348e-01,1.15857e-02,9.99999e-01
6.111885937e-01,1.26486e-02,9.99999e-01,9.99999e-01,9.99999e-01,9.99724e-01,1.26521e-02,9.99999e-01
6.142445367e-01,1.37910e-02,9.99999e-01,9.99999e-01,9.99999e-01,9.99876e-01,1.37927e-02,9.99999e-01
6.173157594e-01,1.50095e-02,9.99999e-01,9.99999e-01,9.99999e-01,9.99931e-01,1.50105e-02,9.99999e-01
6.204023382e-01,1.63077e-02,9.99999e-01,9.99999e-01,9.99999e-01,9.99941e-01,1.63086e-02,9.99999e-01
6.235043498e-01,1.76854e-02,9.99999e-01,9.99999e-01,9.99999e-01,9.99743e-01,1.76899e-02,9.99998e-01
6.266218716e-01,1.91316e-02,9.99999e-01,9.99999e-01,9.99999e-01,9.98656e-01,1.91575e-02,9.99990e-01
6.297549810e-01,2.07035e-02,9.99999e-01,9.99999e-01,9.99999e-01,9.99507e-01,2.07141e-02,9.99980e-01
6.329037559e-01,2.23406e-02,9.99999e-01,9.99999e-01,9.99999e-01,9.99028e-01,2.23627e-02,9.99984e-01
6.360682746e-01,2.40858e-02,9.99999e-01,9.99999e-01,9.99999e-01,9.99169e-01,2.41060e-02,9.99990e-01
6.392486160e-01,2.59187e-02,9.99999e-01,9.99999e-01,9.99999e-01,9.98925e-01,2.59467e-02,9.99995e-01
6.424448591e-01,2.78469e-02,9.99999e-01,9.99999e-01,9.99999e-01,9.98555e-01,2.78874e-02,9.99992e-01
6.456570834e-01,2.97291e-02,9.99999e-01,9.99999e-01,9.99999e-01,9.93310e-01,2.99306e-02,9.99959e-01
6.488853688e-01,3.19191e-02,9.99999e-01,9.99999e-01,9.99999e-01,9.95131e-01,3.20786e-02,9.99896e-01
6.521297956e-01,3.41605e-02,9.99999e-01,9.99999e-01,9.99999e-01,9.95038e-01,3.43338e-02,9.99914e-01
6.553904446e-01,3.65141e-02,9.99999e-01,9.99999e-01,9.99999e-01,9.95045e-01,3.66982e-02,9.99935e-01
6.586673968e-01,3.90072e-02,9.99999e-01,9.99999e-01,9.99999e-01,9.95767e-01,3.91739e-02,9.99978e-01
6.619607338e-01,4.16639e-02,9.99999e-01,9.99999e-01,9.99999e-01,9.97639e-01,4.17627e-02,9.99994e-01
6.652705375e-01,4.44032e-02,9.99999e-01,9.99999e-01,9.99999e-01,9.98582e-01,4.44663e-02,9.99997e-01
6.685968902e-01,4.72579e-02,9.99999e-01,9.99999e-01,9.99999e-01,9.99397e-01,4.72863e-02,9.99999e-01
6.719398746e-01,5.02089e-02,9.99999e-01,9.99999e-01,9.99999e-01,9.99694e-01,5.02242e-02,9.99999e-01
6.752995740e-01,5.32723e-02,9.99999e-01,9.99999e-01,9.99999e-01,9.99834e-01,5.32811e-02,9.99999e-01
6.786760719e-01,5.64446e-02,9.99999e-01,9.99999e-01,9.99999e-01,9.99759e-01,5.64581e-02,9.99999e-01
6.820694522e-01,5.97316e-02,9.99999e-01,9.99999e-01,9.99999e-01,9.99589e-01,5.97562e-02,9.99997e-01
6.854797995e-01,6.31424e-02,9.99999e-01,9.99999e-01,9.99999e-01,9.99470e-01,6.31760e-02,9.99994e-01
6.889071985e-01,6.66313e-02,9.99999e-01,9.99999e-01,9.99999e-01,9.98708e-01,6.67182e-02,9.99988e-01
6.923517345e-01,6.89145e-02,9.99999e-01,9.99999e-01,9.99999e-01,9.79230e-01,7.03831e-02,9.99899e-01
6.958134932e-01,7.33603e-02,9.99999e-01,9.99999e-01,9.99999e-01,9.89288e-01,7.41710e-02,9.99778e-01
6.992925606e-01,7.72611e-02,9.99999e-01,9.99999e-01,9.99999e-01,9.89686e-01,7.80818e-02,9.99799e-01
7.027890234e-01,8.10635e-02,9.99999e-01,9.99999e-01,9.99999e-01,9.87340e-01,8.21154e-02,9.99847e-01
7.063029686e-01,8.53453e-02,9.99999e-01,9.99999e-01,9.99999e-01,9.89338e-01,8.62715e-02,9.99923e-01
7.098344834e-01,8.96192e-02,9.99999e-01,9.99999e-01,9.99999e-01,9.89768e-01,9.05496e-02,9.99954e-01
7.133836558e-01,9.36395e-02,9.99999e-01,9.99999e-01,9.99999e-01,9.86295e-01,9.49490e-02,9.99910e-01
7.169505741e-01,8.90396e-02,9.99999e-01,9.99999e-01,9.99999e-01,8.95777e-01,9.94690e-02,9.99298e-01
7.205353270e-01,9.85776e-02,9.99999e-01,9.99999e-01,9.99999e-01,9.48046e-01,1.04108e-01,9.98762e-01
7.241380036e-01,1.01551e-01,9.99999e-01,9.99999e-01,9.99999e-01,9.33805e-01,1.08866e-01,9.98931e-01
7.277586936e-01,1.06836e-01,9.99999e-01,9.99999e-01,9.99999e-01,9.40115e-01,1.13741e-01,9.99126e-01
7.313974871e-01,1.11157e-01,9.99999e-01,9.99999e-01,9.99999e-01,9.36587e-01,1.18731e-01,9.99590e-01
7.350544745e-01,1.19458e-01,9.99999e-01,9.99999e-01,9.99999e-01,9.64791e-01,1.23835e-01,9.99857e-01
7.387297469e-01,1.25683e-01,9.99999e-01,9.99999e-01,9.99999e-01,9.73964e-01,1.29051e-01,9.99934e-01
7.424233956e-01,1.32655e-01,9.99999e-01,9.99999e-01,9.99999e-01,9.87192e-01,1.34378e-01,9.99988e-01
7.461355126e-01,1.38723e-01,9.99999e-01,9.99999e-01,9.99999e-01,9.92212e-01,1.39812e-01,9.99997e-01
7.498661902e-01,1.44825e-01,9.99999e-01,9.99999e-01,9.99999e-01,9.96373e-01,1.45353e-01,9.99998e-01
7.536155211e-01,1.50727e-01,9.99999e-01,9.99999e-01,9.99999e-01,9.98216e-01,1.50997e-01,9.99999e-01
7.573835987e-01,1.56598e-01,9.99999e-01,9.99999e-01,9.99999e-01,9.99081e-01,1.56742e-01,9.99999e-01
7.611705167e-01,1.62493e-01,9.99999e-01,9.99999e-01,9.99999e-01,9.99429e-01,1.62585e-01,9.99999e-01
7.649763693e-01,1.68465e-01,9.99999e-01,9.99999e-01,9.99999e-01,9.99641e-01,1.68525e-01,9.99999e-01
7.688012511e-01,1.74515e-01,9.99999e-01,9.99999e-01,9.99999e-01,9.99750e-01,1.74558e-01,9.99999e-01
7.726452574e-01,1.80644e-01,9.99999e-01,9.99999e-01,9.99999e-01,9.99794e-01,1.80681e-01,9.99999e-01
7.765084837e-01,1.86837e-01,9.99999e-01,9.99999e-01,9.99999e-01,9.99706e-01,1.86892e-01,9.99999e-01
7.803910261e-01,1.79645e-01,9.99999e-01,9.99999e-01,9.31005e-01,9.98732e-01,1.93188e-01,9.99998e-01
7.842929812e-01,1.43103e-01,9.99999e-01,9.99999e-01,7.19966e-01,9.95580e-01,1.99564e-01,9.99991e-01
7.882144461e-01,1.43930e-01,9.99999e-01,9.99999e-01,7.04537e-01,9.90959e-01,2.06019e-01,9.99937e-01
7.921555184e-01,1.71249e-01,9.99999e-01,9.99999e-01,8.09587e-01,9.95049e-01,2.12549e-01,9.99891e-01
7.961162960e-01,1.88533e-01,9.99999e-01,9.99999e-01,8.67858e-01,9.91205e-01,2.19151e-01,9.99896e-01
8.000968774e-01,2.06965e-01,9.99999e-01,9.99999e-01,9.25905e-01,9.89879e-01,2.25822e-01,9.99890e-01
8.040973618e-01,2.21208e-01,9.99999e-01,9.99999e-01,9.60967e-01,9.89869e-01,2.32558e-01,9.99916e-01
8.081178486e-01,2.29655e-01,9.99999e-01,9.99999e-01,9.81833e-01,9.77238e-01,2.39355e-01,9.99915e-01
8.121584379e-01,2.22457e-01,9.99999e-01,9.99999e-01,9.94389e-01,9.08797e-01,2.46212e-01,9.99679e-01
8.162192301e-01,2.25595e-01,9.99999e-01,9.99999e-01,9.98758e-01,8.93381e-01,2.53123e-01,9.98796e-01
8.203003262e-01,2.45519e-01,9.99999e-01,9.99999e-01,9.99982e-01,9.45333e-01,2.60086e-01,9.98590e-01
8.244018279e-01,2.47002e-01,9.99999e-01,9.99999e-01,9.99999e-01,9.25798e-01,2.67098e-01,9.98877e-01
8.285238370e-01,2.55989e-01,9.99999e-01,9.99999e-01,9.99999e-01,9.34564e-01,2.74154e-01,9.99118e-01
8.326664562e-01,2.62618e-01,9.99999e-01,9.99999e-01,9.99999e-01,9.34086e-01,2.81252e-01,9.99635e-01
8.368297885e-01,2.74642e-01,9.99999e-01,9.99999e-01,9.99999e-01,9.52413e-01,2.88388e-01,9.99916e-01
8.410139374e-01,2.87106e-01,9.99999e-01,9.99999e-01,9.99999e-01,9.71446e-01,2.95559e-01,9.99950e-01
8.452190071e-01,2.98485e-01,9.99999e-01,9.99999e-01,9.99999e-01,9.85904e-01,3.02762e-01,9.99970e-01
8.494451021e-01,3.07437e-01,9.99999e-01,9.99999e-01,9.99999e-01,9.91780e-01,3.09992e-01,9.99976e-01
8.536923276e-01,3.15701e-01,9.99999e-01,9.99999e-01,9.99999e-01,9.95141e-01,3.17247e-01,9.99985e-01
8.579607893e-01,3.23549e-01,9.99999e-01,9.99999e-01,9.99999e-01,9.97000e-01,3.24523e-01,9.99996e-01
8.622505932e-01,3.31186e-01,9.99999e-01,9.99999e-01,9.99999e-01,9.98096e-01,3.31818e-01,9.99998e-01
8.665618462e-01,2.99313e-01,9.99999e-01,9.99999e-01,8.83577e-01,9.98819e-01,3.39128e-01,9.99999e-01
8.708946554e-01,1.52552e-01,9.99999e-01,9.99999e-01,4.40887e-01,9.98646e-01,3.46449e-01,9.99998e-01
8.752491287e-01,1.80260e-01,9.99999e-01,9.99999e-01,5.10397e-01,9.98190e-01,3.53780e-01,9.99997e-01
8.796253743e-01,2.47463e-01,9.99999e-01,9.99999e-01,6.86895e-01,9.97490e-01,3.61116e-01,9.99993e-01
8.840235012e-01,3.01733e-01,9.99999e-01,9.99999e-01,8.21203e-01,9.97135e-01,3.68455e-01,9.99982e-01
8.884436187e-01,3.44087e-01,9.99999e-01,9.99999e-01,9.25185e-01,9.89493e-01,3.75794e-01,9.99950e-01
8.928858368e-01,3.32652e-01,9.99999e-01,9.99999e-01,9.68918e-01,8.95808e-01,3.83129e-01,9.99713e-01
8.973502660e-01,3.19080e-01,9.99999e-01,9.99999e-01,9.92388e-01,8.24387e-01,3.90459e-01,9.98535e-01
9.018370173e-01,3.59494e-01,9.99999e-01,9.99999e-01,9.99159e-01,9.06545e-01,3.97780e-01,9.97698e-01
9.063462024e-01,3.63004e-01,9.99999e-01,9.99999e-01,9.78413e-01,9.16370e-01,4.05089e-01,9.97978e-01
9.108779334e-01,3.42268e-01,9.99999e-01,9.99999e-01,9.51369e-01,8.73084e-01,4.12385e-01,9.97899e-01
9.154323231e-01,3.55087e-01,9.99999e-01,9.99999e-01,9.88440e-01,8.57048e-01,4.19663e-01,9.98263e-01
9.200094847e-01,3.26690e-01,9.99999e-01,9.99999e-01,8.53315e-01,8.86539e-01,4.26923e-01,9.99027e-01
9.246095321e-01,2.84468e-01,9.99999e-01,9.99999e-01,7.84050e-01,8.29652e-01,4.34161e-01,9.98879e-01
9.292325798e-01,1.13363e-01,9.99999e-01,9.99999e-01,8.27196e-01,3.01523e-01,4.41376e-01,9.94603e-01
9.338787427e-01,8.16141e-02,9.99999e-01,9.99999e-01,8.32224e-01,2.15889e-01,4.48564e-01,9.80630e-01
9.385481364e-01,2.12045e-01,9.99999e-01,9.99999e-01,8.73134e-01,5.36521e-01,4.55724e-01,9.78739e-01
9.432408771e-01,1.80521e-01,9.99999e-01,9.99999e-01,9.20184e-01,4.28129e-01,4.62853e-01,9.81631e-01
9.479570815e-01,1.39259e-01,9.99999e-01,9.99999e-01,9.58145e-01,3.12648e-01,4.69950e-01,9.85024e-01
9.526968669e-01,1.90543e-01,9.99999e-01,9.99999e-01,9.79636e-01,4.10228e-01,4.77012e-01,9.90838e-01
9.574603512e-01,2.05799e-01,9.99999e-01,9.99999e-01,9.91241e-01,4.30433e-01,4.84038e-01,9.95335e-01
9.622476530e-01,2.44289e-01,9.99999e-01,9.99999e-01,9.97261e-01,5.00321e-01,4.91025e-01,9.96772e-01
9.670588912e-01,3.32175e-01,9.99999e-01,9.99999e-01,9.99179e-01,6.69020e-01,4.97972e-01,9.97791e-01
9.718941857e-01,3.90469e-01,9.99999e-01,9.99999e-01,9.99942e-01,7.74691e-01,5.04877e-01,9.98373e-01
9.767536566e-01,4.13394e-01,9.99999e-01,9.99999e-01,9.99999e-01,8.08826e-01,5.11739e-01,9.98756e-01
9.816374249e-01,4.42834e-01,9.99999e-01,9.99999e-01,9.99999e-01,8.54342e-01,5.18556e-01,9.99569e-01
9.865456120e-01,4.76009e-01,9.99999e-01,9.99999e-01,9.99999e-01,9.06201e-01,5.25326e-01,9.99909e-01
9.914783401e-01,5.00567e-01,9.99999e-01,9.99999e-01,9.99999e-01,9.40852e-01,5.32049e-01,9.99974e-01
9.964357318e-01,5.21124e-01,9.99999e-01,9.99999e-01,9.99999e-01,9.67348e-01,5.38722e-01,9.99984e-01
1.001417910e+00,5.34590e-01,9.99999e-01,9.99999e-01,9.99999e-01,9.80301e-01,5.45344e-01,9.99977e-01
1.006425000e+00,5.45666e-01,9.99999e-01,9.99999e-01,9.99999e-01,9.88708e-01,5.51915e-01,9.99967e-01
1.011457125e+00,5.54502e-01,9.99999e-01,9.99999e-01,9.99999e-01,9.92989e-01,5.58433e-01,9.99970e-01
1.016514411e+00,5.62191e-01,9.99999e-01,9.99999e-01,9.99999e-01,9.95231e-01,5.64896e-01,9.99978e-01
1.021596983e+00,5.69049e-01,9.99999e-01,9.99999e-01,9.99873e-01,9.96196e-01,5.71305e-01,9.99979e-01
1.026704968e+00,5.71014e-01,9.99999e-01,9.99999e-01,9.91444e-01,9.97032e-01,5.77658e-01,9.99986e-01
1.031838492e+00,5.36574e-01,9.99999e-01,9.99999e-01,9.20755e-01,9.97844e-01,5.83953e-01,9.99995e-01
1.036997685e+00,4.16414e-02,9.99999e-01,9.99999e-01,7.06247e-02,9.98717e-01,5.90191e-01,9.99998e-01
1.042182673e+00,7.72213e-03,9.99999e-01,9.99999e-01,1.29645e-02,9.98467e-01,5.96370e-01,9.99999e-01
1.047393587e+00,1.55600e-02,9.99999e-01,9.99999e-01,2.58706e-02,9.97971e-01,6.02490e-01,9.99999e-01
1.052630555e+00,1.45552e-05,9.99999e-01,9.99999e-01,2.39615e-05,9.97214e-01,6.08551e-01,9.99998e-01
1.057893707e+00,5.31925e-05,9.99999e-01,9.99999e-01,8.67815e-05,9.95349e-01,6.14550e-01,9.99997e-01
1.063183176e+00,5.82026e-04,9.99999e-01,9.99999e-01,9.42442e-04,9.92362e-01,6.20489e-01,9.99995e-01
1.068499092e+00,3.69922e-03,9.99999e-01,9.99999e-01,5.96103e-03,9.87253e-01,6.26366e-01,9.99990e-01
1.073841587e+00,2.37547e-02,9.99999e-01,9.99999e-01,3.80101e-02,9.85087e-01,6.32180e-01,9.99980e-01
