#,Wave/freq,Total,N2,O2,CO2,H2O,Rayleigh,CIA
4.000000000e-01,4.78798e-18,9.99999e-01,9.99999e-01,9.99999e-01,9.99922e-01,4.78834e-18,9.99999e-01
4.020000000e-01,1.05349e-17,9.99999e-01,9.99999e-01,9.99999e-01,9.99951e-01,1.05354e-17,9.99999e-01
4.040100000e-01,2.28028e-17,9.99999e-01,9.99999e-01,9.99999e-01,9.99979e-01,2.28032e-17,9.99999e-01
4.060300500e-01,4.86089e-17,9.99999e-01,9.99999e-01,9.99999e-01,9.99994e-01,4.86091e-17,9.99999e-01
4.080602003e-01,1.02081e-16,9.99999e-01,9.99999e-01,9.99999e-01,9.99998e-01,1.02081e-16,9.99999e-01
4.101005013e-01,2.11256e-16,9.99999e-01,9.99999e-01,9.99999e-01,9.99999e-01,2.11256e-16,9.99999e-01
4.121510038e-01,4.30954e-16,9.99999e-01,9.99999e-01,9.99999e-01,9.99996e-01,4.30955e-16,9.99999e-01
4.142117588e-01,8.66824e-16,9.99999e-01,9.99999e-01,9.99999e-01,9.99978e-01,8.66842e-16,9.99999e-01
4.162828176e-01,1.71954e-15,9.99999e-01,9.99999e-01,9.99999e-01,9.99904e-01,1.71970e-15,9.99999e-01
4.183642317e-01,3.36562e-15,9.99999e-01,9.99999e-01,9.99999e-01,9.99943e-01,3.36581e-15,9.99999e-01
4.204560528e-01,6.50055e-15,9.99999e-01,9.99999e-01,9.99999e-01,9.99964e-01,6.50078e-15,9.99999e-01
4.225583331e-01,1.23934e-14,9.99999e-01,9.99999e-01,9.99999e-01,9.99986e-01,1.23935e-14,9.99999e-01
4.246711247e-01,2.33283e-14,9.99999e-01,9.99999e-01,9.99999e-01,9.99989e-01,2.33286e-14,9.99999e-01
4.267944804e-01,4.33660e-14,9.99999e-01,9.99999e-01,9.99999e-01,9.99984e-01,4.33667e-14,9.99999e-01
4.289284528e-01,7.96344e-14,9.99999e-01,9.99999e-01,9.99999e-01,9.99987e-01,7.96353e-14,9.99999e-01
4.310730950e-01,1.44490e-13,9.99999e-01,9.99999e-01,9.99999e-01,9.99994e-01,1.44491e-13,9.99999e-01
4.332284605e-01,2.59099e-13,9.99999e-01,9.99999e-01,9.99999e-01,9.99998e-01,2.59099e-13,9.99999e-01
4.353946028e-01,4.59284e-13,9.99999e-01,9.99999e-01,9.99999e-01,9.99998e-01,4.59284e-13,9.99999e-01
4.375715758e-01,8.04974e-13,9.99999e-01,9.99999e-01,9.99999e-01,9.99990e-01,8.04981e-13,9.99999e-01
4.397594337e-01,1.39521e-12,9.99999e-01,9.99999e-01,9.99999e-01,9.99916e-01,1.39533e-12,9.99999e-01
4.419582309e-01,2.39148e-12,9.99999e-01,9.99999e-01,9.99999e-01,9.99580e-01,2.39248e-12,9.99999e-01
4.441680220e-01,4.05743e-12,9.99999e-01,9.99999e-01,9.99999e-01,9.99667e-01,4.05878e-12,9.99999e-01
4.463888621e-01,6.81174e-12,9.99999e-01,9.99999e-01,9.99999e-01,9.99655e-01,6.81408e-12,9.99999e-01
4.486208064e-01,1.13209e-11,9.99999e-01,9.99999e-01,9.99999e-01,9.99784e-01,1.13234e-11,9.99999e-01
4.508639105e-01,1.86270e-11,9.99999e-01,9.99999e-01,9.99999e-01,9.99899e-01,1.86289e-11,9.99999e-01
4.531182300e-01,3.03466e-11,9.99999e-01,9.99999e-01,9.99999e-01,9.99959e-01,3.03478e-11,9.99999e-01
4.553838212e-01,4.89631e-11,9.99999e-01,9.99999e-01,9.99999e-01,9.99972e-01,4.89645e-11,9.99999e-01
4.576607403e-01,7.82575e-11,9.99999e-01,9.99999e-01,9.99999e-01,9.99987e-01,7.82585e-11,9.99999e-01
4.599490440e-01,1.23924e-10,9.99999e-01,9.99999e-01,9.99999e-01,9.99990e-01,1.23925e-10,9.99999e-01
4.622487892e-01,1.94466e-10,9.99999e-01,9.99999e-01,9.99999e-01,9.99998e-01,1.94466e-10,9.99999e-01
4.645600332e-01,3.02455e-10,9.99999e-01,9.99999e-01,9.99999e-01,9.99993e-01,3.02457e-10,9.99999e-01
4.668828333e-01,4.66283e-10,9.99999e-01,9.99999e-01,9.99999e-01,9.99898e-01,4.66330e-10,9.99999e-01
4.692172475e-01,7.12716e-10,9.99999e-01,9.99999e-01,9.99999e-01,9.99783e-01,7.12870e-10,9.99999e-01
4.715633337e-01,1.08050e-09,9.99999e-01,9.99999e-01,9.99999e-01,9.99858e-01,1.08065e-09,9.99999e-01
4.739211504e-01,1.62455e-09,9.99999e-01,9.99999e-01,9.99999e-01,9.99864e-01,1.62477e-09,9.99999e-01
4.762907561e-01,2.42310e-09,9.99999e-01,9.99999e-01,9.99999e-01,9.99929e-01,2.42327e-09,9.99999e-01
4.786722099e-01,3.58565e-09,9.99999e-01,9.99999e-01,9.99999e-01,9.99970e-01,3.58576e-09,9.99999e-01
4.810655710e-01,5.26496e-09,9.99999e-01,9.99999e-01,9.99999e-01,9.99990e-01,5.26500e-09,9.99999e-01
4.834708988e-01,7.67160e-09,9.99999e-01,9.99999e-01,9.99999e-01,9.99918e-01,7.67223e-09,9.99999e-01
4.858882533e-01,1.10955e-08,9.99999e-01,9.99999e-01,9.99999e-01,9.99846e-01,1.10972e-08,9.99999e-01
4.883176946e-01,1.59326e-08,9.99999e-01,9.99999e-01,9.99999e-01,9.99872e-01,1.59346e-08,9.99999e-01
4.907592831e-01,2.27151e-08,9.99999e-01,9.99999e-01,9.99999e-01,9.99883e-01,2.27177e-08,9.99999e-01
4.932130795e-01,3.21595e-08,9.99999e-01,9.99999e-01,9.99999e-01,9.99917e-01,3.21621e-08,9.99999e-01
4.956791449e-01,4.52194e-08,9.99999e-01,9.99999e-01,9.99999e-01,9.99956e-01,4.52213e-08,9.99999e-01
4.981575406e-01,6.31429e-08,9.99999e-01,9.99999e-01,9.99999e-01,9.99783e-01,6.31566e-08,9.99999e-01
5.006483283e-01,8.75758e-08,9.99999e-01,9.99999e-01,9.99999e-01,9.99441e-01,8.76250e-08,9.99995e-01
5.031515699e-01,1.20442e-07,9.99999e-01,9.99999e-01,9.99999e-01,9.97155e-01,1.20789e-07,9.99969e-01
5.056673278e-01,1.65199e-07,9.99999e-01,9.99999e-01,9.99999e-01,9.98493e-01,1.65453e-07,9.99965e-01
5.081956644e-01,2.24796e-07,9.99999e-01,9.99999e-01,9.99999e-01,9.98099e-01,2.25229e-07,9.99977e-01
5.107366428e-01,3.04345e-07,9.99999e-01,9.99999e-01,9.99999e-01,9.98715e-01,3.04738e-07,9.99995e-01
5.132903260e-01,4.09558e-07,9.99999e-01,9.99999e-01,9.99999e-01,9.99264e-01,4.09859e-07,9.99999e-01
5.158567776e-01,5.47855e-07,9.99999e-01,9.99999e-01,9.99999e-01,9.99688e-01,5.48026e-07,9.99999e-01
5.184360615e-01,7.28486e-07,9.99999e-01,9.99999e-01,9.99999e-01,9.99875e-01,7.28576e-07,9.99999e-01
5.210282418e-01,9.63133e-07,9.99999e-01,9.99999e-01,9.99999e-01,9.99953e-01,9.63178e-07,9.99999e-01
5.236333830e-01,1.26608e-06,9.99999e-01,9.99999e-01,9.99999e-01,9.99813e-01,1.26632e-06,9.99998e-01
5.262515499e-01,1.65570e-06,9.99999e-01,9.99999e-01,9.99999e-01,9.99883e-01,1.65589e-06,9.99997e-01
5.288828077e-01,2.15365e-06,9.99999e-01,9.99999e-01,9.99999e-01,9.99893e-01,2.15388e-06,9.99998e-01
5.315272217e-01,2.78685e-06,9.99999e-01,9.99999e-01,9.99999e-01,9.99905e-01,2.78711e-06,9.99999e-01
5.341848578e-01,3.58797e-06,9.99999e-01,9.99999e-01,9.99999e-01,9.99938e-01,3.58819e-06,9.99999e-01
5.368557821e-01,4.59554e-06,9.99999e-01,9.99999e-01,9.99999e-01,9.99784e-01,4.59653e-06,9.99999e-01
5.395400610e-01,5.85492e-06,9.99999e-01,9.99999e-01,9.99999e-01,9.99224e-01,5.85950e-06,9.99993e-01
5.422377613e-01,7.42611e-06,9.99999e-01,9.99999e-01,9.99999e-01,9.98988e-01,7.43376e-06,9.99981e-01
5.449489501e-01,9.37778e-06,9.99999e-01,9.99999e-01,9.99999e-01,9.99063e-01,9.38674e-06,9.99980e-01
5.476736949e-01,1.17884e-05,9.99999e-01,9.99999e-01,9.99999e-01,9.99166e-01,1.17983e-05,9.99990e-01
5.504120634e-01,1.47537e-05,9.99999e-01,9.99999e-01,9.99999e-01,9.99394e-01,1.47626e-05,9.99996e-01
5.531641237e-01,1.83845e-05,9.99999e-01,9.99999e-01,9.99999e-01,9.99695e-01,1.83901e-05,9.99999e-01
5.559299443e-01,2.28064e-05,9.99999e-01,9.99999e-01,9.99999e-01,9.99852e-01,2.28098e-05,9.99999e-01
5.587095940e-01,2.81689e-05,9.99999e-01,9.99999e-01,9.99999e-01,9.99907e-01,2.81715e-05,9.99999e-01
5.615031420e-01,3.46452e-05,9.99999e-01,9.99999e-01,9.99999e-01,9.99897e-01,3.46487e-05,9.99999e-01
5.643106577e-01,4.24364e-05,9.99999e-01,9.99999e-01,9.99999e-01,9.99884e-01,4.24414e-05,9.99998e-01
5.671322110e-01,5.17061e-05,9.99999e-01,9.99999e-01,9.99999e-01,9.98608e-01,5.17787e-05,9.99987e-01
5.699678720e-01,6.28254e-05,9.99999e-01,9.99999e-01,9.99999e-01,9.98491e-01,6.29227e-05,9.99961e-01
5.728177114e-01,7.60501e-05,9.99999e-01,9.99999e-01,9.99999e-01,9.98440e-01,7.61713e-05,9.99967e-01
5.756818000e-01,9.17287e-05,9.99999e-01,9.99999e-01,9.99999e-01,9.98566e-01,9.18621e-05,9.99979e-01
5.785602090e-01,1.10237e-04,9.99999e-01,9.99999e-01,9.99999e-01,9.98748e-01,1.10376e-04,9.99993e-01
5.814530100e-01,1.31975e-04,9.99999e-01,9.99999e-01,9.99999e-01,9.98745e-01,1.32141e-04,9.99996e-01
5.843602750e-01,1.57401e-04,9.99999e-01,9.99999e-01,9.99999e-01,9.98513e-01,1.57636e-04,9.99991e-01
5.872820764e-01,1.84992e-04,9.99999e-01,9.99999e-01,9.99999e-01,9.87257e-01,1.87397e-04,9.99908e-01
5.902184868e-01,2.18512e-04,9.99999e-01,9.99999e-01,9.99999e-01,9.84460e-01,2.22016e-04,9.99752e-01
5.931695792e-01,2.59214e-04,9.99999e-01,9.99999e-01,9.99999e-01,9.89032e-01,2.62151e-04,9.99759e-01
5.961354271e-01,3.04769e-04,9.99999e-01,9.99999e-01,9.99999e-01,9.87957e-01,3.08528e-04,9.99854e-01
5.991161043e-01,3.58741e-04,9.99999e-01,9.99999e-01,9.99999e-01,9.91194e-01,3.61943e-04,9.99957e-01
6.021116848e-01,4.21145e-04,9.99999e-01,9.99999e-01,9.99999e-01,9.94990e-01,4.23268e-04,9.99994e-01
6.051222432e-01,4.92203e-04,9.99999e-01,9.99999e-01,9.99999e-01,9.97461e-01,4.93455e-04,9.99999e-01
6.081478544e-01,5.72913e-04,9.99999e-01,9.99999e-01,9.99999e-01,9.98905e-01,5.73541e-04,9.99999e-01
6.111885937e-01,6.64338e-04,9.99999e-01,9.99999e-01,9.99999e-01,9.99535e-01,6.64647e-04,9.99999e-01
6.142445367e-01,7.67826e-04,9.99999e-01,9.99999e-01,9.99999e-01,9.99792e-01,7.67985e-04,9.99999e-01
6.173157594e-01,8.84759e-04,9.99999e-01,9.99999e-01,9.99999e-01,9.99885e-01,8.84860e-04,9.99999e-01
6.204023382e-01,1.01658e-03,9.99999e-01,9.99999e-01,9.99999e-01,9.99903e-01,1.01667e-03,9.99999e-01
6.235043498e-01,1.16443e-03,9.99999e-01,9.99999e-01,9.99999e-01,9.99580e-01,1.16492e-03,9.99998e-01
6.266218716e-01,1.32820e-03,9.99999e-01,9.99999e-01,9.99999e-01,9.97755e-01,1.33120e-03,9.99983e-01
6.297549810e-01,1.51592e-03,9.99999e-01,9.99999e-01,9.99999e-01,9.99176e-01,1.51722e-03,9.99967e-01
6.329037559e-01,1.72191e-03,9.99999e-01,9.99999e-01,9.99999e-01,9.98369e-01,1.72476e-03,9.99974e-01
6.360682746e-01,1.95300e-03,9.99999e-01,9.99999e-01,9.99999e-01,9.98615e-01,1.95574e-03,9.99984e-01
6.392486160e-01,2.20816e-03,9.99999e-01,9.99999e-01,9.99999e-01,9.98203e-01,2.21215e-03,9.99992e-01
6.424448591e-01,2.49010e-03,9.99999e-01,9.99999e-01,9.99999e-01,9.97609e-01,2.49609e-03,9.99988e-01
6.456570834e-01,2.77855e-03,9.99999e-01,9.99999e-01,9.99999e-01,9.88946e-01,2.80977e-03,9.99937e-01
6.488853688e-01,3.12482e-03,9.99999e-01,9.99999e-01,9.99999e-01,9.90451e-01,3.15549e-03,9.99826e-01
6.521297956e-01,3.50572e-03,9.99999e-01,9.99999e-01,9.99999e-01,9.91685e-01,3.53562e-03,9.99854e-01
6.553904446e-01,3.91973e-03,9.99999e-01,9.99999e-01,9.99999e-01,9.91776e-01,3.95266e-03,9.99890e-01
6.586673968e-01,4.37772e-03,9.99999e-01,9.99999e-01,9.99999e-01,9.92901e-01,4.40917e-03,9.99963e-01
6.619607338e-01,4.88759e-03,9.99999e-01,9.99999e-01,9.99999e-01,9.95890e-01,4.90780e-03,9.99991e-01
6.652705375e-01,5.43825e-03,9.99999e-01,9.99999e-01,9.99999e-01,9.97614e-01,5.45127e-03,9.99995e-01
6.685968902e-01,6.03567e-03,9.99999e-01,9.99999e-01,9.99999e-01,9.98891e-01,6.04237e-03,9.99998e-01
6.719398746e-01,6.68053e-03,9.99999e-01,9.99999e-01,9.99999e-01,9.99485e-01,6.68396e-03,9.99999e-01
6.752995740e-01,7.37691e-03,9.99999e-01,9.99999e-01,9.99999e-01,9.99722e-01,7.37896e-03,9.99999e-01
6.786760719e-01,8.12707e-03,9.99999e-01,9.99999e-01,9.99999e-01,9.99600e-01,8.13031e-03,9.99998e-01
6.820694522e-01,8.93489e-03,9.99999e-01,9.99999e-01,9.99999e-01,9.99315e-01,8.94104e-03,9.99995e-01
6.854797995e-01,9.80543e-03,9.99999e-01,9.99999e-01,9.99999e-01,9.99117e-01,9.81416e-03,9.99991e-01
6.889071985e-01,1.07298e-02,9.99999e-01,9.99999e-01,9.99999e-01,9.97887e-01,1.07527e-02,9.99980e-01
6.923517345e-01,1.13560e-02,9.99999e-01,9.99999e-01,9.99999e-01,9.65825e-01,1.17598e-02,9.99832e-01
6.958134932e-01,1.26008e-02,9.99999e-01,9.99999e-01,9.99999e-01,9.81853e-01,1.28385e-02,9.99621e-01
6.992925606e-01,1.37488e-02,9.99999e-01,9.99999e-01,9.99999e-01,9.82948e-01,1.39919e-02,9.99667e-01
7.027890234e-01,1.48976e-02,9.99999e-01,9.99999e-01,9.99999e-01,9.78871e-01,1.52230e-02,9.99744e-01
7.063029686e-01,1.62386e-02,9.99999e-01,9.99999e-01,9.99999e-01,9.82207e-01,1.65349e-02,9.99872e-01
7.098344834e-01,1.76229e-02,9.99999e-01,9.99999e-01,9.99999e-01,9.82918e-01,1.79305e-02,9.99924e-01
7.133836558e-01,1.89738e-02,9.99999e-01,9.99999e-01,9.99999e-01,9.77534e-01,1.94128e-02,9.99850e-01
7.169505741e-01,1.74895e-02,9.99999e-01,9.99999e-01,9.99999e-01,8.34418e-01,2.09847e-02,9.98826e-01
7.205353270e-01,2.06548e-02,9.99999e-01,9.99999e-01,9.99999e-01,9.13843e-01,2.26490e-02,9.97930e-01
7.241380036e-01,2.17498e-02,9.99999e-01,9.99999e-01,9.99999e-01,8.92670e-01,2.44085e-02,9.98212e-01
7.277586936e-01,2.36726e-02,9.99999e-01,9.99999e-01,9.99999e-01,9.02590e-01,2.62658e-02,9.98538e-01
7.313974871e-01,2.52694e-02,9.99999e-01,9.99999e-01,9.99999e-01,8.95944e-01,2.82235e-02,9.99314e-01
7.350544745e-01,2.85120e-02,9.99999e-01,9.99999e-01,9.99999e-01,9.41703e-01,3.02842e-02,9.99761e-01
7.387297469e-01,3.10404e-02,9.99999e-01,9.99999e-01,9.99999e-01,9.56664e-01,3.24501e-02,9.99890e-01
7.424233956e-01,3.39765e-02,9.99999e-01,9.99999e-01,9.99999e-01,9.78507e-01,3.47234e-02,9.99978e-01
7.461355126e-01,3.66214e-02,9.99999e-01,9.99999e-01,9.99999e-01,9.86933e-01,3.71064e-02,9.99995e-01
7.498661902e-01,3.93588e-02,9.99999e-01,9.99999e-01,9.99999e-01,9.93884e-01,3.96010e-02,9.99998e-01
7.536155211e-01,4.20824e-02,9.99999e-01,9.99999e-01,9.99999e-01,9.97001e-01,4.22090e-02,9.99998e-01
7.573835987e-01,4.48627e-02,9.99999e-01,9.99999e-01,9.99999e-01,9.98455e-01,4.49321e-02,9.99999e-01
7.611705167e-01,4.77260e-02,9.99999e-01,9.99999e-01,9.99999e-01,9.99039e-01,4.77718e-02,9.99999e-01
7.649763693e-01,5.06991e-02,9.99999e-01,9.99999e-01,9.99999e-01,9.99398e-01,5.07296e-02,9.99999e-01
7.688012511e-01,5.37841e-02,9.99999e-01,9.99999e-01,9.99999e-01,9.99581e-01,5.38066e-02,9.99999e-01
7.726452574e-01,5.69843e-02,9.99999e-01,9.99999e-01,9.99999e-01,9.99655e-01,5.70039e-02,9.99999e-01
7.765084837e-01,6.02931e-02,9.99999e-01,9.99999e-01,9.99999e-01,9.99513e-01,6.03224e-02,9.99998e-01
7.803910261e-01,5.74457e-02,9.99999e-01,9.99999e-01,9.02654e-01,9.97901e-01,6.37628e-02,9.99997e-01
7.842929812e-01,3.92131e-02,9.99999e-01,9.99999e-01,5.86133e-01,9.92696e-01,6.73256e-02,9.99985e-01
7.882144461e-01,4.00418e-02,9.99999e-01,9.99999e-01,5.71566e-01,9.84917e-01,7.10111e-02,9.99906e-01
7.921555184e-01,5.23814e-02,9.99999e-01,9.99999e-01,7.05652e-01,9.91676e-01,7.48196e-02,9.99820e-01
7.961162960e-01,6.11925e-02,9.99999e-01,9.99999e-01,7.88261e-01,9.85446e-01,7.87511e-02,9.99827e-01
8.000968774e-01,7.15461e-02,9.99999e-01,9.99999e-01,8.78861e-01,9.83126e-01,8.28053e-02,9.99816e-01
8.040973618e-01,7.99525e-02,9.99999e-01,9.99999e-01,9.34965e-01,9.83142e-01,8.69820e-02,9.99854e-01
8.081178486e-01,8.52097e-02,9.99999e-01,9.99999e-01,9.69649e-01,9.62650e-01,9.12805e-02,9.99863e-01
8.121584379e-01,8.09371e-02,9.99999e-01,9.99999e-01,9.90473e-01,8.54030e-01,9.57003e-02,9.99463e-01
8.162192301e-01,8.27173e-02,9.99999e-01,9.99999e-01,9.97887e-01,8.28488e-01,1.00240e-01,9.97986e-01
8.203003262e-01,9.55575e-02,9.99999e-01,9.99999e-01,9.99965e-01,9.13113e-01,1.04900e-01,9.97642e-01
8.244018279e-01,9.63419e-02,9.99999e-01,9.99999e-01,9.99999e-01,8.80063e-01,1.09677e-01,9.98123e-01
8.285238370e-01,1.02241e-01,9.99999e-01,9.99999e-01,9.99999e-01,8.93690e-01,1.14572e-01,9.98525e-01
8.326664562e-01,1.06661e-01,9.99999e-01,9.99999e-01,9.99999e-01,8.92501e-01,1.19581e-01,9.99389e-01
8.368297885e-01,1.14895e-01,9.99999e-01,9.99999e-01,9.99999e-01,9.21471e-01,1.24704e-01,9.99860e-01
8.410139374e-01,1.23756e-01,9.99999e-01,9.99999e-01,9.99999e-01,9.52495e-01,1.29939e-01,9.99918e-01
8.452190071e-01,1.32082e-01,9.99999e-01,9.99999e-01,9.99999e-01,9.76379e-01,1.35284e-01,9.99950e-01
8.494451021e-01,1.38796e-01,9.99999e-01,9.99999e-01,9.99999e-01,9.86256e-01,1.40736e-01,9.99960e-01
8.536923276e-01,1.45095e-01,9.99999e-01,9.99999e-01,9.99999e-01,9.91832e-01,1.46294e-01,9.99973e-01
8.579607893e-01,1.51190e-01,9.99999e-01,9.99999e-01,9.99999e-01,9.94973e-01,1.51955e-01,9.99992e-01
8.622505932e-01,1.57212e-01,9.99999e-01,9.99999e-01,9.99999e-01,9.96799e-01,1.57717e-01,9.99998e-01
8.665618462e-01,1.40617e-01,9.99999e-01,9.99999e-01,8.61221e-01,9.98023e-01,1.63577e-01,9.99998e-01
8.708946554e-01,4.61895e-02,9.99999e-01,9.99999e-01,2.73009e-01,9.97741e-01,1.69533e-01,9.99998e-01
8.752491287e-01,5.85415e-02,9.99999e-01,9.99999e-01,3.34347e-01,9.96976e-01,1.75581e-01,9.99996e-01
8.796253743e-01,9.73720e-02,9.99999e-01,9.99999e-01,5.37879e-01,9.95824e-01,1.81719e-01,9.99990e-01
8.840235012e-01,1.34622e-01,9.99999e-01,9.99999e-01,7.19556e-01,9.95229e-01,1.87944e-01,9.99970e-01
8.884436187e-01,1.67549e-01,9.99999e-01,9.99999e-01,8.77018e-01,9.82970e-01,1.94254e-01,9.99916e-01
8.928858368e-01,1.59029e-01,9.99999e-01,9.99999e-01,9.48141e-01,8.34932e-01,2.00644e-01,9.99521e-01
8.973502660e-01,1.48297e-01,9.99999e-01,9.99999e-01,9.87088e-01,7.26495e-01,2.07112e-01,9.97550e-01
9.018370173e-01,1.80435e-01,9.99999e-01,9.99999e-01,9.98566e-01,8.48869e-01,2.13654e-01,9.96152e-01
9.063462024e-01,1.84368e-01,9.99999e-01,9.99999e-01,9.65470e-01,8.66490e-01,2.20268e-01,9.96619e-01
9.108779334e-01,1.66833e-01,9.99999e-01,9.99999e-01,9.19695e-01,7.99298e-01,2.26949e-01,9.96487e-01
9.154323231e-01,1.77138e-01,9.99999e-01,9.99999e-01,9.80405e-01,7.74243e-01,2.33696e-01,9.97095e-01
9.200094847e-01,1.59655e-01,9.99999e-01,9.99999e-01,7.88520e-01,8.18765e-01,2.40504e-01,9.98373e-01
9.246095321e-01,1.24496e-01,9.99999e-01,9.99999e-01,6.66235e-01,7.42620e-01,2.47370e-01,9.98125e-01
9.292325798e-01,3.13317e-02,9.99999e-01,9.99999e-01,7.34031e-01,1.57389e-01,2.54290e-01,9.92711e-01
9.338787427e-01,1.77158e-02,9.99999e-01,9.99999e-01,7.37022e-01,8.86311e-02,2.61261e-01,9.70213e-01
9.385481364e-01,7.94982e-02,9.99999e-01,9.99999e-01,7.97249e-01,3.72269e-01,2.68281e-01,9.64674e-01
9.432408771e-01,6.40530e-02,9.99999e-01,9.99999e-01,8.69322e-01,2.70690e-01,2.75344e-01,9.69449e-01
9.479570815e-01,4.18251e-02,9.99999e-01,9.99999e-01,9.30709e-01,1.61585e-01,2.82449e-01,9.75064e-01
9.526968669e-01,6.71044e-02,9.99999e-01,9.99999e-01,9.65968e-01,2.41870e-01,2.89591e-01,9.84715e-01
9.574603512e-01,7.49060e-02,9.99999e-01,9.99999e-01,9.85278e-01,2.57442e-01,2.96768e-01,9.92206e-01
9.622476530e-01,9.74211e-02,9.99999e-01,9.99999e-01,9.95380e-01,3.23443e-01,3.03975e-01,9.94604e-01
9.670588912e-01,1.60456e-01,9.99999e-01,9.99999e-01,9.98611e-01,5.18096e-01,3.11209e-01,9.96306e-01
9.718941857e-01,2.07882e-01,9.99999e-01,9.99999e-01,9.99900e-01,6.54587e-01,3.18468e-01,9.97279e-01
9.767536566e-01,2.28527e-01,9.99999e-01,9.99999e-01,9.99999e-01,7.03005e-01,3.25748e-01,9.97920e-01
9.816374249e-01,2.55797e-01,9.99999e-01,9.99999e-01,9.99999e-01,7.68607e-01,3.33046e-01,9.99279e-01
9.865456120e-01,2.88520e-01,9.99999e-01,9.99999e-01,9.99999e-01,8.47822e-01,3.40358e-01,9.99849e-01
9.914783401e-01,3.13867e-01,9.99999e-01,9.99999e-01,9.99999e-01,9.02780e-01,3.47681e-01,9.99957e-01
9.964357318e-01,3.35763e-01,9.99999e-01,9.99999e-01,9.99999e-01,9.45801e-01,3.55013e-01,9.99975e-01
1.001417910e+00,3.50426e-01,9.99999e-01,9.99999e-01,9.99999e-01,9.67128e-01,3.62349e-01,9.99962e-01
1.006425000e+00,3.62700e-01,9.99999e-01,9.99999e-01,9.99999e-01,9.81147e-01,3.69688e-01,9.99946e-01
1.011457125e+00,3.72574e-01,9.99999e-01,9.99999e-01,9.99999e-01,9.88238e-01,3.77027e-01,9.99950e-01
1.016514411e+00,3.81277e-01,9.99999e-01,9.99999e-01,9.99999e-01,9.92008e-01,3.84361e-01,9.99964e-01
1.021596983e+00,3.89112e-01,9.99999e-01,9.99999e-01,9.99821e-01,9.93630e-01,3.91690e-01,9.99964e-01
1.026704968e+00,3.91544e-01,9.99999e-01,9.99999e-01,9.86191e-01,9.95030e-01,3.99009e-01,9.99976e-01
1.031838492e+00,3.62898e-01,9.99999e-01,9.99999e-01,8.96205e-01,9.96381e-01,4.06316e-01,9.99993e-01
1.036997685e+00,1.71299e-02,9.99999e-01,9.99999e-01,4.14826e-02,9.97852e-01,4.13609e-01,9.99998e-01
1.042182673e+00,6.12210e-04,9.99999e-01,9.99999e-01,1.45735e-03,9.97445e-01,4.20885e-01,9.99999e-01
1.047393587e+00,1.77579e-03,9.99999e-01,9.99999e-01,4.15924e-03,9.96609e-01,4.28141e-01,9.99998e-01
1.052630555e+00,4.74221e-08,9.99999e-01,9.99999e-01,1.09238e-07,9.95354e-01,4.35376e-01,9.99998e-01
1.057893707e+00,1.76041e-07,9.99999e-01,9.99999e-01,3.99284e-07,9.92264e-01,4.42586e-01,9.99996e-01
1.063183176e+00,8.97037e-06,9.99999e-01,9.99999e-01,2.00864e-05,9.87294e-01,4.49769e-01,9.99992e-01
1.068499092e+00,1.19549e-04,9.99999e-01,9.99999e-01,2.65140e-04,9.78800e-01,4.56924e-01,9.99985e-01
1.073841587e+00,2.17103e-03,9.99999e-01,9.99999e-01,4.76003e-03,9.75294e-01,4.64048e-01,9.99967e-01
