#,Wave/freq,Total,N2,O2,CO2,H2O,Rayleigh,CIA
4.000000000e-01,1.82509e-02,9.99999e-01,9.99999e-01,9.99999e-01,9.99991e-01,1.82510e-02,9.99999e-01
4.020000000e-01,1.97544e-02,9.99999e-01,9.99999e-01,9.99999e-01,9.99994e-01,1.97545e-02,9.99999e-01
4.040100000e-01,2.13467e-02,9.99999e-01,9.99999e-01,9.99999e-01,9.99997e-01,2.13467e-02,9.99999e-01
4.060300500e-01,2.30319e-02,9.99999e-01,9.99999e-01,9.99999e-01,9.99999e-01,2.30319e-02,9.99999e-01
4.080602003e-01,2.48130e-02,9.99999e-01,9.99999e-01,9.99999e-01,9.99999e-01,2.48130e-02,9.99999e-01
4.101005013e-01,2.66924e-02,9.99999e-01,9.99999e-01,9.99999e-01,9.99999e-01,2.66924e-02,9.99999e-01
4.121510038e-01,2.86728e-02,9.99999e-01,9.99999e-01,9.99999e-01,9.99999e-01,2.86728e-02,9.99999e-01
4.142117588e-01,3.07566e-02,9.99999e-01,9.99999e-01,9.99999e-01,9.99997e-01,3.07567e-02,9.99999e-01
4.162828176e-01,3.29459e-02,9.99999e-01,9.99999e-01,9.99999e-01,9.99989e-01,3.29463e-02,9.99999e-01
4.183642317e-01,3.52436e-02,9.99999e-01,9.99999e-01,9.99999e-01,9.99993e-01,3.52438e-02,9.99999e-01
4.204560528e-01,3.76513e-02,9.99999e-01,9.99999e-01,9.99999e-01,9.99996e-01,3.76515e-02,9.99999e-01
4.225583331e-01,4.01710e-02,9.99999e-01,9.99999e-01,9.99999e-01,9.99998e-01,4.01711e-02,9.99999e-01
4.246711247e-01,4.28045e-02,9.99999e-01,9.99999e-01,9.99999e-01,9.99998e-01,4.28045e-02,9.99999e-01
4.267944804e-01,4.55534e-02,9.99999e-01,9.99999e-01,9.99999e-01,9.99997e-01,4.55535e-02,9.99999e-01
4.289284528e-01,4.84193e-02,9.99999e-01,9.99999e-01,9.99999e-01,9.99998e-01,4.84193e-02,9.99999e-01
4.310730950e-01,5.14035e-02,9.99999e-01,9.99999e-01,9.99999e-01,9.99999e-01,5.14035e-02,9.99999e-01
4.332284605e-01,5.45072e-02,9.99999e-01,9.99999e-01,9.99999e-01,9.99999e-01,5.45072e-02,9.99999e-01
4.353946028e-01,5.77314e-02,9.99999e-01,9.99999e-01,9.99999e-01,9.99999e-01,5.77314e-02,9.99999e-01
4.375715758e-01,6.10769e-02,9.99999e-01,9.99999e-01,9.99999e-01,9.99998e-01,6.10770e-02,9.99999e-01
4.397594337e-01,6.45440e-02,9.99999e-01,9.99999e-01,9.99999e-01,9.99991e-01,6.45445e-02,9.99999e-01
4.419582309e-01,6.81316e-02,9.99999e-01,9.99999e-01,9.99999e-01,9.99956e-01,6.81346e-02,9.99999e-01
4.441680220e-01,7.18451e-02,9.99999e-01,9.99999e-01,9.99999e-01,9.99966e-01,7.18475e-02,9.99999e-01
4.463888621e-01,7.56807e-02,9.99999e-01,9.99999e-01,9.99999e-01,9.99964e-01,7.56833e-02,9.99999e-01
4.486208064e-01,7.96404e-02,9.99999e-01,9.99999e-01,9.99999e-01,9.99978e-01,7.96421e-02,9.99999e-01
4.508639105e-01,8.37227e-02,9.99999e-01,9.99999e-01,9.99999e-01,9.99989e-01,8.37236e-02,9.99999e-01
4.531182300e-01,8.79270e-02,9.99999e-01,9.99999e-01,9.99999e-01,9.99995e-01,8.79274e-02,9.99999e-01
4.553838212e-01,9.22527e-02,9.99999e-01,9.99999e-01,9.99999e-01,9.99996e-01,9.22530e-02,9.99999e-01
4.576607403e-01,9.66994e-02,9.99999e-01,9.99999e-01,9.99999e-01,9.99998e-01,9.66996e-02,9.99999e-01
4.599490440e-01,1.01266e-01,9.99999e-01,9.99999e-01,9.99999e-01,9.99998e-01,1.01266e-01,9.99999e-01
4.622487892e-01,1.05952e-01,9.99999e-01,9.99999e-01,9.99999e-01,9.99999e-01,1.05952e-01,9.99999e-01
4.645600332e-01,1.10756e-01,9.99999e-01,9.99999e-01,9.99999e-01,9.99998e-01,1.10756e-01,9.99999e-01
4.668828333e-01,1.15674e-01,9.99999e-01,9.99999e-01,9.99999e-01,9.99989e-01,1.15676e-01,9.99999e-01
4.692172475e-01,1.20708e-01,9.99999e-01,9.99999e-01,9.99999e-01,9.99977e-01,1.20711e-01,9.99999e-01
4.715633337e-01,1.25857e-01,9.99999e-01,9.99999e-01,9.99999e-01,9.99985e-01,1.25859e-01,9.99999e-01
4.739211504e-01,1.31116e-01,9.99999e-01,9.99999e-01,9.99999e-01,9.99985e-01,1.31118e-01,9.99999e-01
4.762907561e-01,1.36486e-01,9.99999e-01,9.99999e-01,9.99999e-01,9.99992e-01,1.36487e-01,9.99999e-01
4.786722099e-01,1.41963e-01,9.99999e-01,9.99999e-01,9.99999e-01,9.99996e-01,1.41963e-01,9.99999e-01
4.810655710e-01,1.47544e-01,9.99999e-01,9.99999e-01,9.99999e-01,9.99998e-01,1.47544e-01,9.99999e-01
4.834708988e-01,1.53226e-01,9.99999e-01,9.99999e-01,9.99999e-01,9.99991e-01,1.53228e-01,9.99999e-01
4.858882533e-01,1.59009e-01,9.99999e-01,9.99999e-01,9.99999e-01,9.99984e-01,1.59012e-01,9.99999e-01
4.883176946e-01,1.64891e-01,9.99999e-01,9.99999e-01,9.99999e-01,9.99986e-01,1.64893e-01,9.99999e-01
4.907592831e-01,1.70868e-01,9.99999e-01,9.99999e-01,9.99999e-01,9.99987e-01,1.70870e-01,9.99999e-01
4.932130795e-01,1.76937e-01,9.99999e-01,9.99999e-01,9.99999e-01,9.99991e-01,1.76938e-01,9.99999e-01
4.956791449e-01,1.83095e-01,9.99999e-01,9.99999e-01,9.99999e-01,9.99995e-01,1.83096e-01,9.99999e-01
4.981575406e-01,1.89336e-01,9.99999e-01,9.99999e-01,9.99999e-01,9.99977e-01,1.89340e-01,9.99999e-01
5.006483283e-01,1.95657e-01,9.99999e-01,9.99999e-01,9.99999e-01,9.99942e-01,1.95668e-01,9.99999e-01
5.031515699e-01,2.02017e-01,9.99999e-01,9.99999e-01,9.99999e-01,9.99712e-01,2.02075e-01,9.99996e-01
5.056673278e-01,2.08528e-01,9.99999e-01,9.99999e-01,9.99999e-01,9.99848e-01,2.08560e-01,9.99996e-01
5.081956644e-01,2.15077e-01,9.99999e-01,9.99999e-01,9.99999e-01,9.99809e-01,2.15119e-01,9.99997e-01
5.107366428e-01,2.21719e-01,9.99999e-01,9.99999e-01,9.99999e-01,9.99871e-01,2.21748e-01,9.99999e-01
5.132903260e-01,2.28428e-01,9.99999e-01,9.99999e-01,9.99999e-01,9.99926e-01,2.28444e-01,9.99999e-01
5.158567776e-01,2.35197e-01,9.99999e-01,9.99999e-01,9.99999e-01,9.99968e-01,2.35205e-01,9.99999e-01
5.184360615e-01,2.42023e-01,9.99999e-01,9.99999e-01,9.99999e-01,9.99987e-01,2.42026e-01,9.99999e-01
5.210282418e-01,2.48903e-01,9.99999e-01,9.99999e-01,9.99999e-01,9.99994e-01,2.48904e-01,9.99999e-01
5.236333830e-01,2.55831e-01,9.99999e-01,9.99999e-01,9.99999e-01,9.99980e-01,2.55836e-01,9.99999e-01
5.262515499e-01,2.62815e-01,9.99999e-01,9.99999e-01,9.99999e-01,9.99987e-01,2.62818e-01,9.99999e-01
5.288828077e-01,2.69845e-01,9.99999e-01,9.99999e-01,9.99999e-01,9.99988e-01,2.69848e-01,9.99999e-01
5.315272217e-01,2.76918e-01,9.99999e-01,9.99999e-01,9.99999e-01,9.99990e-01,2.76921e-01,9.99999e-01
5.341848578e-01,2.84033e-01,9.99999e-01,9.99999e-01,9.99999e-01,9.99993e-01,2.84034e-01,9.99999e-01
5.368557821e-01,2.91178e-01,9.99999e-01,9.99999e-01,9.99999e-01,9.99977e-01,2.91184e-01,9.99999e-01
5.395400610e-01,2.98344e-01,9.99999e-01,9.99999e-01,9.99999e-01,9.99920e-01,2.98368e-01,9.99998e-01
5.422377613e-01,3.05550e-01,9.99999e-01,9.99999e-01,9.99999e-01,9.99898e-01,3.05581e-01,9.99997e-01
5.449489501e-01,3.12792e-01,9.99999e-01,9.99999e-01,9.99999e-01,9.99904e-01,3.12822e-01,9.99997e-01
5.476736949e-01,3.20059e-01,9.99999e-01,9.99999e-01,9.99999e-01,9.99916e-01,3.20086e-01,9.99998e-01
5.504120634e-01,3.27350e-01,9.99999e-01,9.99999e-01,9.99999e-01,9.99939e-01,3.27370e-01,9.99999e-01
5.531641237e-01,3.34660e-01,9.99999e-01,9.99999e-01,9.99999e-01,9.99969e-01,3.34671e-01,9.99999e-01
5.559299443e-01,3.41980e-01,9.99999e-01,9.99999e-01,9.99999e-01,9.99984e-01,3.41985e-01,9.99999e-01
5.587095940e-01,3.49308e-01,9.99999e-01,9.99999e-01,9.99999e-01,9.99990e-01,3.49311e-01,9.99999e-01
5.615031420e-01,3.56640e-01,9.99999e-01,9.99999e-01,9.99999e-01,9.99989e-01,3.56644e-01,9.99999e-01
5.643106577e-01,3.63977e-01,9.99999e-01,9.99999e-01,9.99999e-01,9.99987e-01,3.63981e-01,9.99999e-01
5.671322110e-01,3.71266e-01,9.99999e-01,9.99999e-01,9.99999e-01,9.99855e-01,3.71320e-01,9.99998e-01
5.699678720e-01,3.78600e-01,9.99999e-01,9.99999e-01,9.99999e-01,9.99850e-01,3.78658e-01,9.99995e-01
5.728177114e-01,3.85930e-01,9.99999e-01,9.99999e-01,9.99999e-01,9.99842e-01,3.85992e-01,9.99996e-01
5.756818000e-01,3.93261e-01,9.99999e-01,9.99999e-01,9.99999e-01,9.99855e-01,3.93318e-01,9.99997e-01
5.785602090e-01,4.00585e-01,9.99999e-01,9.99999e-01,9.99999e-01,9.99874e-01,4.00635e-01,9.99998e-01
5.814530100e-01,4.07888e-01,9.99999e-01,9.99999e-01,9.99999e-01,9.99873e-01,4.07939e-01,9.99999e-01
5.843602750e-01,4.15165e-01,9.99999e-01,9.99999e-01,9.99999e-01,9.99848e-01,4.15229e-01,9.99998e-01
5.872820764e-01,4.21945e-01,9.99999e-01,9.99999e-01,9.99999e-01,9.98693e-01,4.22500e-01,9.99990e-01
5.902184868e-01,4.29068e-01,9.99999e-01,9.99999e-01,9.99999e-01,9.98432e-01,4.29752e-01,9.99974e-01
5.931695792e-01,4.36485e-01,9.99999e-01,9.99999e-01,9.99999e-01,9.98888e-01,4.36981e-01,9.99975e-01
5.961354271e-01,4.43640e-01,9.99999e-01,9.99999e-01,9.99999e-01,9.98785e-01,4.44186e-01,9.99985e-01
5.991161043e-01,4.50962e-01,9.99999e-01,9.99999e-01,9.99999e-01,9.99115e-01,4.51363e-01,9.99995e-01
6.021116848e-01,4.58281e-01,9.99999e-01,9.99999e-01,9.99999e-01,9.99498e-01,4.58511e-01,9.99999e-01
6.051222432e-01,4.65510e-01,9.99999e-01,9.99999e-01,9.99999e-01,9.99746e-01,4.65628e-01,9.99999e-01
6.081478544e-01,4.72660e-01,9.99999e-01,9.99999e-01,9.99999e-01,9.99890e-01,4.72711e-01,9.99999e-01
6.111885937e-01,4.79737e-01,9.99999e-01,9.99999e-01,9.99999e-01,9.99953e-01,4.79760e-01,9.99999e-01
6.142445367e-01,4.86760e-01,9.99999e-01,9.99999e-01,9.99999e-01,9.99978e-01,4.86770e-01,9.99999e-01
6.173157594e-01,4.93737e-01,9.99999e-01,9.99999e-01,9.99999e-01,9.99988e-01,4.93742e-01,9.99999e-01
6.204023382e-01,5.00668e-01,9.99999e-01,9.99999e-01,9.99999e-01,9.99989e-01,5.00673e-01,9.99999e-01
6.235043498e-01,5.07540e-01,9.99999e-01,9.99999e-01,9.99999e-01,9.99956e-01,5.07562e-01,9.99999e-01
6.266218716e-01,5.14289e-01,9.99999e-01,9.99999e-01,9.99999e-01,9.99773e-01,5.14406e-01,9.99997e-01
6.297549810e-01,5.21160e-01,9.99999e-01,9.99999e-01,9.99999e-01,9.99916e-01,5.21205e-01,9.99996e-01
6.329037559e-01,5.27869e-01,9.99999e-01,9.99999e-01,9.99999e-01,9.99836e-01,5.27957e-01,9.99996e-01
6.360682746e-01,5.34585e-01,9.99999e-01,9.99999e-01,9.99999e-01,9.99859e-01,5.34660e-01,9.99998e-01
6.392486160e-01,5.41216e-01,9.99999e-01,9.99999e-01,9.99999e-01,9.99818e-01,5.41314e-01,9.99998e-01
6.424448591e-01,5.47782e-01,9.99999e-01,9.99999e-01,9.99999e-01,9.99755e-01,5.47916e-01,9.99998e-01
6.456570834e-01,5.53835e-01,9.99999e-01,9.99999e-01,9.99999e-01,9.98867e-01,5.54466e-01,9.99992e-01
6.488853688e-01,5.60493e-01,9.99999e-01,9.99999e-01,9.99999e-01,9.99179e-01,5.60963e-01,9.99982e-01
6.521297956e-01,5.66923e-01,9.99999e-01,9.99999e-01,9.99999e-01,9.99163e-01,5.67405e-01,9.99985e-01
6.553904446e-01,5.73307e-01,9.99999e-01,9.99999e-01,9.99999e-01,9.99164e-01,5.73792e-01,9.99988e-01
6.586673968e-01,5.79707e-01,9.99999e-01,9.99999e-01,9.99999e-01,9.99287e-01,5.80123e-01,9.99995e-01
6.619607338e-01,5.86163e-01,9.99999e-01,9.99999e-01,9.99999e-01,9.99602e-01,5.86396e-01,9.99998e-01
6.652705375e-01,5.92470e-01,9.99999e-01,9.99999e-01,9.99999e-01,9.99761e-01,5.92611e-01,9.99999e-01
6.685968902e-01,5.98707e-01,9.99999e-01,9.99999e-01,9.99999e-01,9.99898e-01,5.98767e-01,9.99999e-01
6.719398746e-01,6.04833e-01,9.99999e-01,9.99999e-01,9.99999e-01,9.99948e-01,6.04864e-01,9.99999e-01
6.752995740e-01,6.10884e-01,9.99999e-01,9.99999e-01,9.99999e-01,9.99972e-01,6.10900e-01,9.99999e-01
6.786760719e-01,6.16851e-01,9.99999e-01,9.99999e-01,9.99999e-01,9.99959e-01,6.16876e-01,9.99999e-01
6.820694522e-01,6.22747e-01,9.99999e-01,9.99999e-01,9.99999e-01,9.99929e-01,6.22791e-01,9.99999e-01
6.854797995e-01,6.28587e-01,9.99999e-01,9.99999e-01,9.99999e-01,9.99910e-01,6.28643e-01,9.99998e-01
6.889071985e-01,6.34294e-01,9.99999e-01,9.99999e-01,9.99999e-01,9.99780e-01,6.34434e-01,9.99997e-01
6.923517345e-01,6.37886e-01,9.99999e-01,9.99999e-01,9.99999e-01,9.96461e-01,6.40162e-01,9.99982e-01
6.958134932e-01,6.44638e-01,9.99999e-01,9.99999e-01,9.99999e-01,9.98196e-01,6.45827e-01,9.99962e-01
6.992925606e-01,6.50268e-01,9.99999e-01,9.99999e-01,9.99999e-01,9.98252e-01,6.51428e-01,9.99965e-01
7.027890234e-01,6.55544e-01,9.99999e-01,9.99999e-01,9.99999e-01,9.97859e-01,6.56967e-01,9.99973e-01
7.063029686e-01,6.61240e-01,9.99999e-01,9.99999e-01,9.99999e-01,9.98199e-01,6.62441e-01,9.99986e-01
7.098344834e-01,6.66693e-01,9.99999e-01,9.99999e-01,9.99999e-01,9.98272e-01,6.67852e-01,9.99991e-01
7.133836558e-01,6.71618e-01,9.99999e-01,9.99999e-01,9.99999e-01,9.97667e-01,6.73198e-01,9.99984e-01
7.169505741e-01,6.65783e-01,9.99999e-01,9.99999e-01,9.99999e-01,9.81399e-01,6.78481e-01,9.99881e-01
7.205353270e-01,6.77431e-01,9.99999e-01,9.99999e-01,9.99999e-01,9.91038e-01,6.83699e-01,9.99791e-01
7.241380036e-01,6.80778e-01,9.99999e-01,9.99999e-01,9.99999e-01,9.88453e-01,6.88854e-01,9.99819e-01
7.277586936e-01,6.86616e-01,9.99999e-01,9.99999e-01,9.99999e-01,9.89584e-01,6.93944e-01,9.99852e-01
7.313974871e-01,6.91244e-01,9.99999e-01,9.99999e-01,9.99999e-01,9.89013e-01,6.98970e-01,9.99930e-01
7.350544745e-01,6.99679e-01,9.99999e-01,9.99999e-01,9.99999e-01,9.93980e-01,7.03932e-01,9.99975e-01
7.387297469e-01,7.05686e-01,9.99999e-01,9.99999e-01,9.99999e-01,9.95574e-01,7.08831e-01,9.99988e-01
7.424233956e-01,7.12122e-01,9.99999e-01,9.99999e-01,9.99999e-01,9.97838e-01,7.13665e-01,9.99997e-01
7.461355126e-01,7.17494e-01,9.99999e-01,9.99999e-01,9.99999e-01,9.98687e-01,7.18437e-01,9.99999e-01
7.498661902e-01,7.22704e-01,9.99999e-01,9.99999e-01,9.99999e-01,9.99390e-01,7.23145e-01,9.99999e-01
7.536155211e-01,7.27572e-01,9.99999e-01,9.99999e-01,9.99999e-01,9.99700e-01,7.27790e-01,9.99999e-01
7.573835987e-01,7.32259e-01,9.99999e-01,9.99999e-01,9.99999e-01,9.99845e-01,7.32372e-01,9.99999e-01
7.611705167e-01,7.36821e-01,9.99999e-01,9.99999e-01,9.99999e-01,9.99903e-01,7.36891e-01,9.99999e-01
7.649763693e-01,7.41304e-01,9.99999e-01,9.99999e-01,9.99999e-01,9.99939e-01,7.41349e-01,9.99999e-01
7.688012511e-01,7.45713e-01,9.99999e-01,9.99999e-01,9.99999e-01,9.99957e-01,7.45744e-01,9.99999e-01
7.726452574e-01,7.50052e-01,9.99999e-01,9.99999e-01,9.99999e-01,9.99965e-01,7.50078e-01,9.99999e-01
7.765084837e-01,7.54314e-01,9.99999e-01,9.99999e-01,9.99999e-01,9.99950e-01,7.54351e-01,9.99999e-01
7.803910261e-01,7.47551e-01,9.99999e-01,9.99999e-01,9.85690e-01,9.99785e-01,7.58563e-01,9.99999e-01
7.842929812e-01,7.19033e-01,9.99999e-01,9.99999e-01,9.43420e-01,9.99252e-01,7.62715e-01,9.99998e-01
7.882144461e-01,7.18838e-01,9.99999e-01,9.99999e-01,9.38863e-01,9.98473e-01,7.66806e-01,9.99989e-01
7.921555184e-01,7.42869e-01,9.99999e-01,9.99999e-01,9.64528e-01,9.99166e-01,7.70839e-01,9.99981e-01
7.961162960e-01,7.55384e-01,9.99999e-01,9.99999e-01,9.76390e-01,9.98510e-01,7.74812e-01,9.99982e-01
8.000968774e-01,7.67365e-01,9.99999e-01,9.99999e-01,9.87113e-01,9.98290e-01,7.78726e-01,9.99981e-01
8.040973618e-01,7.76027e-01,9.99999e-01,9.99999e-01,9.93335e-01,9.98287e-01,7.82583e-01,9.99985e-01
8.081178486e-01,7.80909e-01,9.99999e-01,9.99999e-01,9.96924e-01,9.96115e-01,7.86382e-01,9.99985e-01
8.121584379e-01,7.76621e-01,9.99999e-01,9.99999e-01,9.99058e-01,9.83885e-01,7.90123e-01,9.99945e-01
8.162192301e-01,7.78459e-01,9.99999e-01,9.99999e-01,9.99791e-01,9.81063e-01,7.93808e-01,9.99797e-01
8.203003262e-01,7.89504e-01,9.99999e-01,9.99999e-01,9.99996e-01,9.90289e-01,7.97437e-01,9.99762e-01
8.244018279e-01,7.90253e-01,9.99999e-01,9.99999e-01,9.99999e-01,9.86756e-01,8.01010e-01,9.99810e-01
8.285238370e-01,7.95248e-01,9.99999e-01,9.99999e-01,9.99999e-01,9.88610e-01,8.04529e-01,9.99851e-01
8.326664562e-01,7.98674e-01,9.99999e-01,9.99999e-01,9.99999e-01,9.88526e-01,8.07993e-01,9.99938e-01
8.368297885e-01,8.04758e-01,9.99999e-01,9.99999e-01,9.99999e-01,9.91824e-01,8.11402e-01,9.99985e-01
8.410139374e-01,8.10794e-01,9.99999e-01,9.99999e-01,9.99999e-01,9.95141e-01,8.14759e-01,9.99991e-01
8.452190071e-01,8.16111e-01,9.99999e-01,9.99999e-01,9.99999e-01,9.97619e-01,8.18062e-01,9.99994e-01
8.494451021e-01,8.20172e-01,9.99999e-01,9.99999e-01,9.99999e-01,9.98613e-01,8.21314e-01,9.99995e-01
8.536923276e-01,8.23838e-01,9.99999e-01,9.99999e-01,9.99999e-01,9.99182e-01,8.24514e-01,9.99997e-01
8.579607893e-01,8.27244e-01,9.99999e-01,9.99999e-01,9.99999e-01,9.99495e-01,8.27662e-01,9.99998e-01
8.622505932e-01,8.30495e-01,9.99999e-01,9.99999e-01,9.99999e-01,9.99679e-01,8.30760e-01,9.99999e-01
8.665618462e-01,8.00838e-01,9.99999e-01,9.99999e-01,9.60643e-01,9.99801e-01,8.33808e-01,9.99999e-01
8.708946554e-01,7.18976e-01,9.99999e-01,9.99999e-01,8.59382e-01,9.99771e-01,8.36807e-01,9.99999e-01
8.752491287e-01,7.44823e-01,9.99999e-01,9.99999e-01,8.87217e-01,9.99695e-01,8.39757e-01,9.99999e-01
8.796253743e-01,7.89453e-01,9.99999e-01,9.99999e-01,9.37251e-01,9.99576e-01,8.42659e-01,9.99998e-01
8.840235012e-01,8.17349e-01,9.99999e-01,9.99999e-01,9.67155e-01,9.99516e-01,8.45513e-01,9.99996e-01
8.884436187e-01,8.35797e-01,9.99999e-01,9.99999e-01,9.87010e-01,9.98203e-01,8.48320e-01,9.99991e-01
8.928858368e-01,8.30798e-01,9.99999e-01,9.99999e-01,9.94712e-01,9.81385e-01,8.51081e-01,9.99951e-01
8.973502660e-01,8.24828e-01,9.99999e-01,9.99999e-01,9.98721e-01,9.67536e-01,8.53796e-01,9.99753e-01
9.018370173e-01,8.41827e-01,9.99999e-01,9.99999e-01,9.99859e-01,9.83424e-01,8.56466e-01,9.99612e-01
9.063462024e-01,8.42935e-01,9.99999e-01,9.99999e-01,9.96244e-01,9.85182e-01,8.59091e-01,9.99659e-01
9.108779334e-01,8.34636e-01,9.99999e-01,9.99999e-01,9.91640e-01,9.77094e-01,8.61672e-01,9.99646e-01
9.154323231e-01,8.39959e-01,9.99999e-01,9.99999e-01,9.98053e-01,9.74101e-01,8.64210e-01,9.99707e-01
9.200094847e-01,8.23901e-01,9.99999e-01,9.99999e-01,9.70055e-01,9.79688e-01,8.66705e-01,9.99836e-01
9.246095321e-01,8.06880e-01,9.99999e-01,9.99999e-01,9.59620e-01,9.67285e-01,8.69157e-01,9.99811e-01
9.292325798e-01,6.75811e-01,9.99999e-01,9.99999e-01,9.67677e-01,8.00762e-01,8.71568e-01,9.99090e-01
9.338787427e-01,6.35468e-01,9.99999e-01,9.99999e-01,9.69188e-01,7.51591e-01,8.73938e-01,9.96716e-01
9.385481364e-01,7.61495e-01,9.99999e-01,9.99999e-01,9.77315e-01,8.91914e-01,8.76267e-01,9.96393e-01
9.432408771e-01,7.33745e-01,9.99999e-01,9.99999e-01,9.86112e-01,8.49292e-01,8.78556e-01,9.96887e-01
9.479570815e-01,6.93405e-01,9.99999e-01,9.99999e-01,9.92839e-01,7.94784e-01,8.80806e-01,9.97466e-01
9.526968669e-01,7.43396e-01,9.99999e-01,9.99999e-01,9.96548e-01,8.45989e-01,8.83017e-01,9.98453e-01
9.574603512e-01,7.59911e-01,9.99999e-01,9.99999e-01,9.98524e-01,8.60382e-01,8.85189e-01,9.99213e-01
9.622476530e-01,7.85176e-01,9.99999e-01,9.99999e-01,9.99539e-01,8.85759e-01,8.87324e-01,9.99456e-01
9.670588912e-01,8.29011e-01,9.99999e-01,9.99999e-01,9.99862e-01,9.32550e-01,8.89422e-01,9.99627e-01
9.718941857e-01,8.53363e-01,9.99999e-01,9.99999e-01,9.99990e-01,9.57510e-01,8.91483e-01,9.99725e-01
9.767536566e-01,8.61705e-01,9.99999e-01,9.99999e-01,9.99999e-01,9.64607e-01,8.93508e-01,9.99790e-01
9.816374249e-01,8.71932e-01,9.99999e-01,9.99999e-01,9.99999e-01,9.73754e-01,8.95498e-01,9.99927e-01
9.865456120e-01,8.82670e-01,9.99999e-01,9.99999e-01,9.99999e-01,9.83542e-01,8.97452e-01,9.99984e-01
9.914783401e-01,8.90194e-01,9.99999e-01,9.99999e-01,9.99999e-01,9.89798e-01,8.99372e-01,9.99995e-01
9.964357318e-01,8.96240e-01,9.99999e-01,9.99999e-01,9.99999e-01,9.94434e-01,9.01258e-01,9.99997e-01
1.001417910e+00,9.00095e-01,9.99999e-01,9.99999e-01,9.99999e-01,9.96663e-01,9.03111e-01,9.99995e-01
1.006425000e+00,9.03200e-01,9.99999e-01,9.99999e-01,9.99999e-01,9.98093e-01,9.04930e-01,9.99994e-01
1.011457125e+00,9.05643e-01,9.99999e-01,9.99999e-01,9.99999e-01,9.98819e-01,9.06718e-01,9.99994e-01
1.016514411e+00,9.07741e-01,9.99999e-01,9.99999e-01,9.99999e-01,9.99196e-01,9.08473e-01,9.99996e-01
1.021596983e+00,9.09592e-01,9.99999e-01,9.99999e-01,9.99977e-01,9.99359e-01,9.10197e-01,9.99996e-01
1.026704968e+00,9.10098e-01,9.99999e-01,9.99999e-01,9.98534e-01,9.99500e-01,9.11891e-01,9.99997e-01
1.031838492e+00,8.90748e-01,9.99999e-01,9.99999e-01,9.75382e-01,9.99637e-01,9.13554e-01,9.99998e-01
1.036997685e+00,3.14719e-01,9.99999e-01,9.99999e-01,3.43948e-01,9.99784e-01,9.15186e-01,9.99999e-01
1.042182673e+00,3.91807e-01,9.99999e-01,9.99999e-01,4.27472e-01,9.99741e-01,9.16790e-01,9.99999e-01
1.047393587e+00,3.46474e-01,9.99999e-01,9.99999e-01,3.77391e-01,9.99658e-01,9.18365e-01,9.99999e-01
1.052630555e+00,7.63062e-02,9.99999e-01,9.99999e-01,8.29812e-02,9.99530e-01,9.19911e-01,9.99999e-01
1.057893707e+00,1.33673e-01,9.99999e-01,9.99999e-01,1.45165e-01,9.99214e-01,9.21429e-01,9.99999e-01
1.063183176e+00,2.28951e-01,9.99999e-01,9.99999e-01,2.48343e-01,9.98709e-01,9.22919e-01,9.99998e-01
1.068499092e+00,3.66622e-01,9.99999e-01,9.99999e-01,3.97408e-01,9.97842e-01,9.24383e-01,9.99998e-01
1.073841587e+00,5.17510e-01,9.99999e-01,9.99999e-01,5.60292e-01,9.97469e-01,9.25819e-01,9.99996e-01
