#,Wave/freq,Total,N2,O2,CO2,H2O,Rayleigh,CIA
4.000000000e-01,1.44440e-09,9.99999e-01,9.99999e-01,9.99999e-01,9.99960e-01,1.44446e-09,9.99999e-01
4.020000000e-01,2.16017e-09,9.99999e-01,9.99999e-01,9.99999e-01,9.99975e-01,2.16022e-09,9.99999e-01
4.040100000e-01,3.20375e-09,9.99999e-01,9.99999e-01,9.99999e-01,9.99989e-01,3.20378e-09,9.99999e-01
4.060300500e-01,4.71462e-09,9.99999e-01,9.99999e-01,9.99999e-01,9.99997e-01,4.71463e-09,9.99999e-01
4.080602003e-01,6.88521e-09,9.99999e-01,9.99999e-01,9.99999e-01,9.99998e-01,6.88522e-09,9.99999e-01
4.101005013e-01,9.98019e-09,9.99999e-01,9.99999e-01,9.99999e-01,9.99999e-01,9.98019e-09,9.99999e-01
4.121510038e-01,1.43607e-08,9.99999e-01,9.99999e-01,9.99999e-01,9.99998e-01,1.43607e-08,9.99999e-01
4.142117588e-01,2.05157e-08,9.99999e-01,9.99999e-01,9.99999e-01,9.99988e-01,2.05159e-08,9.99999e-01
4.162828176e-01,2.91022e-08,9.99999e-01,9.99999e-01,9.99999e-01,9.99951e-01,2.91036e-08,9.99999e-01
4.183642317e-01,4.10005e-08,9.99999e-01,9.99999e-01,9.99999e-01,9.99970e-01,4.10017e-08,9.99999e-01
4.204560528e-01,5.73733e-08,9.99999e-01,9.99999e-01,9.99999e-01,9.99981e-01,5.73743e-08,9.99999e-01
4.225583331e-01,7.97531e-08,9.99999e-01,9.99999e-01,9.99999e-01,9.99992e-01,7.97537e-08,9.99999e-01
4.246711247e-01,1.10143e-07,9.99999e-01,9.99999e-01,9.99999e-01,9.99994e-01,1.10143e-07,9.99999e-01
4.267944804e-01,1.51145e-07,9.99999e-01,9.99999e-01,9.99999e-01,9.99991e-01,1.51146e-07,9.99999e-01
4.289284528e-01,2.06119e-07,9.99999e-01,9.99999e-01,9.99999e-01,9.99993e-01,2.06120e-07,9.99999e-01
4.310730950e-01,2.79372e-07,9.99999e-01,9.99999e-01,9.99999e-01,9.99996e-01,2.79372e-07,9.99999e-01
4.332284605e-01,3.76389e-07,9.99999e-01,9.99999e-01,9.99999e-01,9.99998e-01,3.76390e-07,9.99999e-01
4.353946028e-01,5.04121e-07,9.99999e-01,9.99999e-01,9.99999e-01,9.99999e-01,5.04121e-07,9.99999e-01
4.375715758e-01,6.71310e-07,9.99999e-01,9.99999e-01,9.99999e-01,9.99994e-01,6.71313e-07,9.99999e-01
4.397594337e-01,8.88874e-07,9.99999e-01,9.99999e-01,9.99999e-01,9.99956e-01,8.88912e-07,9.99999e-01
4.419582309e-01,1.17028e-06,9.99999e-01,9.99999e-01,9.99999e-01,9.99779e-01,1.17053e-06,9.99999e-01
4.441680220e-01,1.53276e-06,9.99999e-01,9.99999e-01,9.99999e-01,9.99831e-01,1.53302e-06,9.99999e-01
4.463888621e-01,1.99674e-06,9.99999e-01,9.99999e-01,9.99999e-01,9.99823e-01,1.99709e-06,9.99999e-01
4.486208064e-01,2.58781e-06,9.99999e-01,9.99999e-01,9.99999e-01,9.99890e-01,2.58809e-06,9.99999e-01
4.508639105e-01,3.33668e-06,9.99999e-01,9.99999e-01,9.99999e-01,9.99948e-01,3.33685e-06,9.99999e-01
4.531182300e-01,4.28061e-06,9.99999e-01,9.99999e-01,9.99999e-01,9.99979e-01,4.28069e-06,9.99999e-01
4.553838212e-01,5.46448e-06,9.99999e-01,9.99999e-01,9.99999e-01,9.99985e-01,5.46456e-06,9.99999e-01
4.576607403e-01,6.94223e-06,9.99999e-01,9.99999e-01,9.99999e-01,9.99993e-01,6.94227e-06,9.99999e-01
4.599490440e-01,8.77794e-06,9.99999e-01,9.99999e-01,9.99999e-01,9.99995e-01,8.77798e-06,9.99999e-01
4.622487892e-01,1.10478e-05,9.99999e-01,9.99999e-01,9.99999e-01,9.99998e-01,1.10478e-05,9.99999e-01
4.645600332e-01,1.38414e-05,9.99999e-01,9.99999e-01,9.99999e-01,9.99996e-01,1.38415e-05,9.99999e-01
4.668828333e-01,1.72637e-05,9.99999e-01,9.99999e-01,9.99999e-01,9.99947e-01,1.72646e-05,9.99999e-01
4.692172475e-01,2.14381e-05,9.99999e-01,9.99999e-01,9.99999e-01,9.99889e-01,2.14405e-05,9.99999e-01
4.715633337e-01,2.65108e-05,9.99999e-01,9.99999e-01,9.99999e-01,9.99927e-01,2.65127e-05,9.99999e-01
4.739211504e-01,3.26454e-05,9.99999e-01,9.99999e-01,9.99999e-01,9.99930e-01,3.26477e-05,9.99999e-01
4.762907561e-01,4.00359e-05,9.99999e-01,9.99999e-01,9.99999e-01,9.99963e-01,4.00373e-05,9.99999e-01
4.786722099e-01,4.89013e-05,9.99999e-01,9.99999e-01,9.99999e-01,9.99984e-01,4.89020e-05,9.99999e-01
4.810655710e-01,5.94938e-05,9.99999e-01,9.99999e-01,9.99999e-01,9.99995e-01,5.94940e-05,9.99999e-01
4.834708988e-01,7.20973e-05,9.99999e-01,9.99999e-01,9.99999e-01,9.99956e-01,7.21004e-05,9.99999e-01
4.858882533e-01,8.70403e-05,9.99999e-01,9.99999e-01,9.99999e-01,9.99921e-01,8.70470e-05,9.99999e-01
4.883176946e-01,1.04695e-04,9.99999e-01,9.99999e-01,9.99999e-01,9.99934e-01,1.04702e-04,9.99999e-01
4.907592831e-01,1.25471e-04,9.99999e-01,9.99999e-01,9.99999e-01,9.99940e-01,1.25479e-04,9.99999e-01
4.932130795e-01,1.49835e-04,9.99999e-01,9.99999e-01,9.99999e-01,9.99957e-01,1.49842e-04,9.99999e-01
4.956791449e-01,1.78305e-04,9.99999e-01,9.99999e-01,9.99999e-01,9.99977e-01,1.78309e-04,9.99999e-01
4.981575406e-01,2.11433e-04,9.99999e-01,9.99999e-01,9.99999e-01,9.99888e-01,2.11457e-04,9.99999e-01
5.006483283e-01,2.49851e-04,9.99999e-01,9.99999e-01,9.99999e-01,9.99709e-01,2.49924e-04,9.99997e-01
5.031515699e-01,2.93981e-04,9.99999e-01,9.99999e-01,9.99999e-01,9.98540e-01,2.94415e-04,9.99984e-01
5.056673278e-01,3.45435e-04,9.99999e-01,9.99999e-01,9.99999e-01,9.99232e-01,3.45706e-04,9.99982e-01
5.081956644e-01,4.04251e-04,9.99999e-01,9.99999e-01,9.99999e-01,9.99032e-01,4.04647e-04,9.99988e-01
5.107366428e-01,4.71857e-04,9.99999e-01,9.99999e-01,9.99999e-01,9.99346e-01,4.72166e-04,9.99997e-01
5.132903260e-01,5.49070e-04,9.99999e-01,9.99999e-01,9.99999e-01,9.99627e-01,5.49274e-04,9.99999e-01
5.158567776e-01,6.36969e-04,9.99999e-01,9.99999e-01,9.99999e-01,9.99842e-01,6.37069e-04,9.99999e-01
5.184360615e-01,7.36690e-04,9.99999e-01,9.99999e-01,9.99999e-01,9.99936e-01,7.36736e-04,9.99999e-01
5.210282418e-01,8.49532e-04,9.99999e-01,9.99999e-01,9.99999e-01,9.99975e-01,8.49553e-04,9.99999e-01
5.236333830e-01,9.76798e-04,9.99999e-01,9.99999e-01,9.99999e-01,9.99904e-01,9.76891e-04,9.99998e-01
5.262515499e-01,1.12016e-03,9.99999e-01,9.99999e-01,9.99999e-01,9.99940e-01,1.12022e-03,9.99998e-01
5.288828077e-01,1.28104e-03,9.99999e-01,9.99999e-01,9.99999e-01,9.99944e-01,1.28111e-03,9.99998e-01
5.315272217e-01,1.46117e-03,9.99999e-01,9.99999e-01,9.99999e-01,9.99951e-01,1.46124e-03,9.99999e-01
5.341848578e-01,1.66230e-03,9.99999e-01,9.99999e-01,9.99999e-01,9.99968e-01,1.66236e-03,9.99999e-01
5.368557821e-01,1.88614e-03,9.99999e-01,9.99999e-01,9.99999e-01,9.99888e-01,1.88635e-03,9.99999e-01
5.395400610e-01,2.13431e-03,9.99999e-01,9.99999e-01,9.99999e-01,9.99595e-01,2.13518e-03,9.99995e-01
5.422377613e-01,2.40967e-03,9.99999e-01,9.99999e-01,9.99999e-01,9.99485e-01,2.41093e-03,9.99990e-01
5.449489501e-01,2.71444e-03,9.99999e-01,9.99999e-01,9.99999e-01,9.99518e-01,2.71577e-03,9.99989e-01
5.476736949e-01,3.05067e-03,9.99999e-01,9.99999e-01,9.99999e-01,9.99576e-01,3.05197e-03,9.99994e-01
5.504120634e-01,3.42084e-03,9.99999e-01,9.99999e-01,9.99999e-01,9.99692e-01,3.42189e-03,9.99998e-01
5.531641237e-01,3.82740e-03,9.99999e-01,9.99999e-01,9.99999e-01,9.99845e-01,3.82799e-03,9.99999e-01
5.559299443e-01,4.27248e-03,9.99999e-01,9.99999e-01,9.99999e-01,9.99925e-01,4.27280e-03,9.99999e-01
5.587095940e-01,4.75874e-03,9.99999e-01,9.99999e-01,9.99999e-01,9.99952e-01,4.75896e-03,9.99999e-01
5.615031420e-01,5.28889e-03,9.99999e-01,9.99999e-01,9.99999e-01,9.99947e-01,5.28916e-03,9.99999e-01
5.643106577e-01,5.86583e-03,9.99999e-01,9.99999e-01,9.99999e-01,9.99939e-01,5.86618e-03,9.99998e-01
5.671322110e-01,6.48806e-03,9.99999e-01,9.99999e-01,9.99999e-01,9.99266e-01,6.49286e-03,9.99993e-01
5.699678720e-01,7.16651e-03,9.99999e-01,9.99999e-01,9.99999e-01,9.99240e-01,7.17209e-03,9.99979e-01
5.728177114e-01,7.90038e-03,9.99999e-01,9.99999e-01,9.99999e-01,9.99200e-01,7.90683e-03,9.99983e-01
5.756818000e-01,8.69361e-03,9.99999e-01,9.99999e-01,9.99999e-01,9.99267e-01,8.70005e-03,9.99990e-01
5.785602090e-01,9.54869e-03,9.99999e-01,9.99999e-01,9.99999e-01,9.99363e-01,9.55480e-03,9.99996e-01
5.814530100e-01,1.04674e-02,9.99999e-01,9.99999e-01,9.99999e-01,9.99358e-01,1.04741e-02,9.99998e-01
5.843602750e-01,1.14522e-02,9.99999e-01,9.99999e-01,9.99999e-01,9.99229e-01,1.14611e-02,9.99995e-01
5.872820764e-01,1.24354e-02,9.99999e-01,9.99999e-01,9.99999e-01,9.93387e-01,1.25187e-02,9.99953e-01
5.902184868e-01,1.35401e-02,9.99999e-01,9.99999e-01,9.99999e-01,9.92060e-01,1.36502e-02,9.99873e-01
5.931695792e-01,1.47730e-02,9.99999e-01,9.99999e-01,9.99999e-01,9.94370e-01,1.48584e-02,9.99878e-01
5.961354271e-01,1.60461e-02,9.99999e-01,9.99999e-01,9.99999e-01,9.93843e-01,1.61466e-02,9.99929e-01
5.991161043e-01,1.74387e-02,9.99999e-01,9.99999e-01,9.99999e-01,9.95511e-01,1.75177e-02,9.99977e-01
6.021116848e-01,1.89262e-02,9.99999e-01,9.99999e-01,9.99999e-01,9.97454e-01,1.89746e-02,9.99997e-01
6.051222432e-01,2.04938e-02,9.99999e-01,9.99999e-01,9.99999e-01,9.98711e-01,2.05202e-02,9.99999e-01
6.081478544e-01,2.21452e-02,9.99999e-01,9.99999e-01,9.99999e-01,9.99443e-01,2.21575e-02,9.99999e-01
6.111885937e-01,2.38836e-02,9.99999e-01,9.99999e-01,9.99999e-01,9.99765e-01,2.38892e-02,9.99999e-01
6.142445367e-01,2.57152e-02,9.99999e-01,9.99999e-01,9.99999e-01,9.99894e-01,2.57179e-02,9.99999e-01
6.173157594e-01,2.76447e-02,9.99999e-01,9.99999e-01,9.99999e-01,9.99941e-01,2.76463e-02,9.99999e-01
6.204023382e-01,2.96754e-02,9.99999e-01,9.99999e-01,9.99999e-01,9.99950e-01,2.96769e-02,9.99999e-01
6.235043498e-01,3.18051e-02,9.99999e-01,9.99999e-01,9.99999e-01,9.99779e-01,3.18121e-02,9.99998e-01
6.266218716e-01,3.40148e-02,9.99999e-01,9.99999e-01,9.99999e-01,9.98851e-01,3.40541e-02,9.99991e-01
6.297549810e-01,3.63893e-02,9.99999e-01,9.99999e-01,9.99999e-01,9.99578e-01,3.64052e-02,9.99983e-01
6.329037559e-01,3.88345e-02,9.99999e-01,9.99999e-01,9.99999e-01,9.99169e-01,3.88672e-02,9.99986e-01
6.360682746e-01,4.14125e-02,9.99999e-01,9.99999e-01,9.99999e-01,9.99289e-01,4.14422e-02,9.99991e-01
6.392486160e-01,4.40912e-02,9.99999e-01,9.99999e-01,9.99999e-01,9.99081e-01,4.41318e-02,9.99996e-01
6.424448591e-01,4.68792e-02,9.99999e-01,9.99999e-01,9.99999e-01,9.98761e-01,4.69376e-02,9.99993e-01
6.456570834e-01,4.95733e-02,9.99999e-01,9.99999e-01,9.99999e-01,9.94261e-01,4.98611e-02,9.99964e-01
6.488853688e-01,5.26789e-02,9.99999e-01,9.99999e-01,9.99999e-01,9.95842e-01,5.29035e-02,9.99911e-01
6.521297956e-01,5.58243e-02,9.99999e-01,9.99999e-01,9.99999e-01,9.95762e-01,5.60659e-02,9.99926e-01
6.553904446e-01,5.90945e-02,9.99999e-01,9.99999e-01,9.99999e-01,9.95761e-01,5.93492e-02,9.99945e-01
6.586673968e-01,6.25263e-02,9.99999e-01,9.99999e-01,9.99999e-01,9.96384e-01,6.27542e-02,9.99981e-01
6.619607338e-01,6.61478e-02,9.99999e-01,9.99999e-01,9.99999e-01,9.97984e-01,6.62815e-02,9.99995e-01
6.652705375e-01,6.98468e-02,9.99999e-01,9.99999e-01,9.99999e-01,9.98790e-01,6.99315e-02,9.99997e-01
6.685968902e-01,7.36666e-02,9.99999e-01,9.99999e-01,9.99999e-01,9.99485e-01,7.37044e-02,9.99999e-01
6.719398746e-01,7.75801e-02,9.99999e-01,9.99999e-01,9.99999e-01,9.99739e-01,7.76003e-02,9.99999e-01
6.752995740e-01,8.16078e-02,9.99999e-01,9.99999e-01,9.99999e-01,9.99862e-01,8.16190e-02,9.99999e-01
6.786760719e-01,8.57426e-02,9.99999e-01,9.99999e-01,9.99999e-01,9.99793e-01,8.57603e-02,9.99999e-01
6.820694522e-01,8.99916e-02,9.99999e-01,9.99999e-01,9.99999e-01,9.99645e-01,9.00236e-02,9.99997e-01
6.854797995e-01,9.43653e-02,9.99999e-01,9.99999e-01,9.99999e-01,9.99547e-01,9.44084e-02,9.99995e-01
6.889071985e-01,9.88029e-02,9.99999e-01,9.99999e-01,9.99999e-01,9.98888e-01,9.89137e-02,9.99989e-01
6.923517345e-01,1.01684e-01,9.99999e-01,9.99999e-01,9.99999e-01,9.82171e-01,1.03539e-01,9.99914e-01
6.958134932e-01,1.07275e-01,9.99999e-01,9.99999e-01,9.99999e-01,9.90884e-01,1.08282e-01,9.99810e-01
6.992925606e-01,1.12123e-01,9.99999e-01,9.99999e-01,9.99999e-01,9.91156e-01,1.13143e-01,9.99828e-01
7.027890234e-01,1.16825e-01,9.99999e-01,9.99999e-01,9.99999e-01,9.89176e-01,1.18119e-01,9.99869e-01
7.063029686e-01,1.22078e-01,9.99999e-01,9.99999e-01,9.99999e-01,9.90884e-01,1.23209e-01,9.99934e-01
7.098344834e-01,1.27284e-01,9.99999e-01,9.99999e-01,9.99999e-01,9.91251e-01,1.28412e-01,9.99961e-01
7.133836558e-01,1.32140e-01,9.99999e-01,9.99999e-01,9.99999e-01,9.88219e-01,1.33725e-01,9.99923e-01
7.169505741e-01,1.26528e-01,9.99999e-01,9.99999e-01,9.99999e-01,9.09860e-01,1.39147e-01,9.99400e-01
7.205353270e-01,1.38102e-01,9.99999e-01,9.99999e-01,9.99999e-01,9.55584e-01,1.44674e-01,9.98942e-01
7.241380036e-01,1.41611e-01,9.99999e-01,9.99999e-01,9.99999e-01,9.43015e-01,1.50306e-01,9.99086e-01
7.277586936e-01,1.47891e-01,9.99999e-01,9.99999e-01,9.99999e-01,9.48490e-01,1.56039e-01,9.99253e-01
7.313974871e-01,1.53012e-01,9.99999e-01,9.99999e-01,9.99999e-01,9.45602e-01,1.61871e-01,9.99649e-01
7.350544745e-01,1.62720e-01,9.99999e-01,9.99999e-01,9.99999e-01,9.69849e-01,1.67799e-01,9.99878e-01
7.387297469e-01,1.69941e-01,9.99999e-01,9.99999e-01,9.99999e-01,9.77732e-01,1.73821e-01,9.99943e-01
7.424233956e-01,1.77964e-01,9.99999e-01,9.99999e-01,9.99999e-01,9.89067e-01,1.79933e-01,9.99989e-01
7.461355126e-01,1.84896e-01,9.99999e-01,9.99999e-01,9.99999e-01,9.93351e-01,1.86133e-01,9.99997e-01
7.498661902e-01,1.91824e-01,9.99999e-01,9.99999e-01,9.99999e-01,9.96908e-01,1.92419e-01,9.99998e-01
7.536155211e-01,1.98483e-01,9.99999e-01,9.99999e-01,9.99999e-01,9.98478e-01,1.98786e-01,9.99999e-01
7.573835987e-01,2.05071e-01,9.99999e-01,9.99999e-01,9.99999e-01,9.99216e-01,2.05231e-01,9.99999e-01
7.611705167e-01,2.11649e-01,9.99999e-01,9.99999e-01,9.99999e-01,9.99512e-01,2.11753e-01,9.99999e-01
7.649763693e-01,2.18279e-01,9.99999e-01,9.99999e-01,9.99999e-01,9.99694e-01,2.18346e-01,9.99999e-01
7.688012511e-01,2.24960e-01,9.99999e-01,9.99999e-01,9.99999e-01,9.99786e-01,2.25008e-01,9.99999e-01
7.726452574e-01,2.31696e-01,9.99999e-01,9.99999e-01,9.99999e-01,9.99824e-01,2.31736e-01,9.99999e-01
7.765084837e-01,2.38467e-01,9.99999e-01,9.99999e-01,9.99999e-01,9.99748e-01,2.38527e-01,9.99999e-01
7.803910261e-01,2.30003e-01,9.99999e-01,9.99999e-01,9.38312e-01,9.98912e-01,2.45376e-01,9.99998e-01
7.842929812e-01,1.89508e-01,9.99999e-01,9.99999e-01,7.53804e-01,9.96209e-01,2.52281e-01,9.99992e-01
7.882144461e-01,1.90139e-01,9.99999e-01,9.99999e-01,7.38807e-01,9.92268e-01,2.59238e-01,9.99946e-01
7.921555184e-01,2.21216e-01,9.99999e-01,9.99999e-01,8.34325e-01,9.95776e-01,2.66244e-01,9.99907e-01
7.961162960e-01,2.40341e-01,9.99999e-01,9.99999e-01,8.86068e-01,9.92459e-01,2.73295e-01,9.99911e-01
8.000968774e-01,2.60265e-01,9.99999e-01,9.99999e-01,9.36378e-01,9.91343e-01,2.80388e-01,9.99906e-01
8.040973618e-01,2.75505e-01,9.99999e-01,9.99999e-01,9.66629e-01,9.91329e-01,2.87520e-01,9.99928e-01
8.081178486e-01,2.84434e-01,9.99999e-01,9.99999e-01,9.84474e-01,9.80448e-01,2.94687e-01,9.99927e-01
8.121584379e-01,2.76730e-01,9.99999e-01,9.99999e-01,9.95229e-01,9.21236e-01,3.01885e-01,9.99725e-01
8.162192301e-01,2.80141e-01,9.99999e-01,9.99999e-01,9.98943e-01,9.08131e-01,3.09112e-01,9.98970e-01
8.203003262e-01,3.01019e-01,9.99999e-01,9.99999e-01,9.99985e-01,9.52650e-01,3.16365e-01,9.98795e-01
8.244018279e-01,3.02692e-01,9.99999e-01,9.99999e-01,9.99999e-01,9.36174e-01,3.23639e-01,9.99040e-01
8.285238370e-01,3.12064e-01,9.99999e-01,9.99999e-01,9.99999e-01,9.43698e-01,3.30931e-01,9.99246e-01
8.326664562e-01,3.18982e-01,9.99999e-01,9.99999e-01,9.99999e-01,9.43360e-01,3.38239e-01,9.99688e-01
8.368297885e-01,3.31446e-01,9.99999e-01,9.99999e-01,9.99999e-01,9.59224e-01,3.45560e-01,9.99928e-01
8.410139374e-01,3.44257e-01,9.99999e-01,9.99999e-01,9.99999e-01,9.75576e-01,3.52889e-01,9.99957e-01
8.452190071e-01,3.55881e-01,9.99999e-01,9.99999e-01,9.99999e-01,9.87964e-01,3.60225e-01,9.99974e-01
8.494451021e-01,3.64974e-01,9.99999e-01,9.99999e-01,9.99999e-01,9.92974e-01,3.67564e-01,9.99979e-01
8.536923276e-01,3.73344e-01,9.99999e-01,9.99999e-01,9.99999e-01,9.95853e-01,3.74903e-01,9.99987e-01
8.579607893e-01,3.81258e-01,9.99999e-01,9.99999e-01,9.99999e-01,9.97437e-01,3.82239e-01,9.99996e-01
8.622505932e-01,3.88936e-01,9.99999e-01,9.99999e-01,9.99999e-01,9.98375e-01,3.89569e-01,9.99998e-01
8.665618462e-01,3.53030e-01,9.99999e-01,9.99999e-01,8.90335e-01,9.98991e-01,3.96891e-01,9.99999e-01
8.708946554e-01,1.98618e-01,9.99999e-01,9.99999e-01,4.91918e-01,9.98842e-01,4.04202e-01,9.99998e-01
8.752491287e-01,2.30354e-01,9.99999e-01,9.99999e-01,5.60617e-01,9.98453e-01,4.11499e-01,9.99997e-01
8.796253743e-01,3.02926e-01,9.99999e-01,9.99999e-01,7.24830e-01,9.97851e-01,4.18780e-01,9.99994e-01
8.840235012e-01,3.59183e-01,9.99999e-01,9.99999e-01,8.45095e-01,9.97548e-01,4.26043e-01,9.99984e-01
8.884436187e-01,4.01887e-01,9.99999e-01,9.99999e-01,9.35906e-01,9.90934e-01,4.33284e-01,9.99957e-01
8.928858368e-01,3.90203e-01,9.99999e-01,9.99999e-01,9.73444e-01,9.09793e-01,4.40501e-01,9.99755e-01
8.973502660e-01,3.76594e-01,9.99999e-01,9.99999e-01,9.93521e-01,8.47523e-01,4.47693e-01,9.98748e-01
9.018370173e-01,4.17210e-01,9.99999e-01,9.99999e-01,9.99286e-01,9.19661e-01,4.54856e-01,9.98032e-01
9.063462024e-01,4.20333e-01,9.99999e-01,9.99999e-01,9.81330e-01,9.27722e-01,4.61989e-01,9.98271e-01
9.108779334e-01,3.99832e-01,9.99999e-01,9.99999e-01,9.58341e-01,8.90144e-01,4.69090e-01,9.98204e-01
9.154323231e-01,4.12681e-01,9.99999e-01,9.99999e-01,9.90167e-01,8.76253e-01,4.76156e-01,9.98515e-01
9.200094847e-01,3.82502e-01,9.99999e-01,9.99999e-01,8.70066e-01,9.02058e-01,4.83187e-01,9.99168e-01
9.246095321e-01,3.40475e-01,9.99999e-01,9.99999e-01,8.12249e-01,8.50473e-01,4.90179e-01,9.99042e-01
9.292325798e-01,1.52133e-01,9.99999e-01,9.99999e-01,8.49369e-01,3.52165e-01,4.97131e-01,9.95385e-01
9.338787427e-01,1.15012e-01,9.99999e-01,9.99999e-01,8.54572e-01,2.64748e-01,5.04041e-01,9.83421e-01
9.385481364e-01,2.63607e-01,9.99999e-01,9.99999e-01,8.90508e-01,5.83557e-01,5.10908e-01,9.81801e-01
9.432408771e-01,2.27800e-01,9.99999e-01,9.99999e-01,9.31483e-01,4.76793e-01,5.17731e-01,9.84279e-01
9.479570815e-01,1.81835e-01,9.99999e-01,9.99999e-01,9.64157e-01,3.63043e-01,5.24507e-01,9.87186e-01
9.526968669e-01,2.39998e-01,9.99999e-01,9.99999e-01,9.82601e-01,4.62277e-01,5.31235e-01,9.92164e-01
9.574603512e-01,2.57249e-01,9.99999e-01,9.99999e-01,9.92527e-01,4.83337e-01,5.37914e-01,9.96012e-01
9.622476530e-01,2.98855e-01,9.99999e-01,9.99999e-01,9.97666e-01,5.51485e-01,5.44543e-01,9.97240e-01
9.670588912e-01,3.89262e-01,9.99999e-01,9.99999e-01,9.99301e-01,7.08095e-01,5.51120e-01,9.98111e-01
9.718941857e-01,4.47523e-01,9.99999e-01,9.99999e-01,9.99951e-01,8.03675e-01,5.57644e-01,9.98609e-01
9.767536566e-01,4.69926e-01,9.99999e-01,9.99999e-01,9.99999e-01,8.33917e-01,5.64114e-01,9.98937e-01
9.816374249e-01,4.98535e-01,9.99999e-01,9.99999e-01,9.99999e-01,8.74132e-01,5.70530e-01,9.99631e-01
9.865456120e-01,5.30307e-01,9.99999e-01,9.99999e-01,9.99999e-01,9.19322e-01,5.76889e-01,9.99922e-01
9.914783401e-01,5.53594e-01,9.99999e-01,9.99999e-01,9.99999e-01,9.49268e-01,5.83192e-01,9.99978e-01
9.964357318e-01,5.72957e-01,9.99999e-01,9.99999e-01,9.99999e-01,9.72053e-01,5.89437e-01,9.99987e-01
1.001417910e+00,5.85584e-01,9.99999e-01,9.99999e-01,9.99999e-01,9.83162e-01,5.95623e-01,9.99980e-01
1.006425000e+00,5.95926e-01,9.99999e-01,9.99999e-01,9.99999e-01,9.90346e-01,6.01751e-01,9.99972e-01
1.011457125e+00,6.04164e-01,9.99999e-01,9.99999e-01,9.99999e-01,9.94013e-01,6.07818e-01,9.99974e-01
1.016514411e+00,6.11314e-01,9.99999e-01,9.99999e-01,9.99999e-01,9.95926e-01,6.13825e-01,9.99981e-01
1.021596983e+00,6.17677e-01,9.99999e-01,9.99999e-01,9.99886e-01,9.96750e-01,6.19771e-01,9.99982e-01
1.026704968e+00,6.19454e-01,9.99999e-01,9.99999e-01,9.92609e-01,9.97463e-01,6.25655e-01,9.99988e-01
1.031838492e+00,5.84306e-01,9.99999e-01,9.99999e-01,9.26929e-01,9.98159e-01,6.31478e-01,9.99996e-01
1.036997685e+00,5.19044e-02,9.99999e-01,9.99999e-01,8.15206e-02,9.98904e-01,6.37238e-01,9.99998e-01
1.042182673e+00,1.43698e-02,9.99999e-01,9.99999e-01,2.23744e-02,9.98689e-01,6.42935e-01,9.99999e-01
1.047393587e+00,2.53994e-02,9.99999e-01,9.99999e-01,3.92204e-02,9.98265e-01,6.48569e-01,9.99999e-01
1.052630555e+00,5.40999e-05,9.99999e-01,9.99999e-01,8.28360e-05,9.97616e-01,6.54140e-01,9.99998e-01
1.057893707e+00,1.90402e-04,9.99999e-01,9.99999e-01,2.89314e-04,9.96018e-01,6.59647e-01,9.99998e-01
1.063183176e+00,1.52593e-03,9.99999e-01,9.99999e-01,2.30388e-03,9.93461e-01,6.65090e-01,9.99996e-01
1.068499092e+00,7.99507e-03,9.99999e-01,9.99999e-01,1.20232e-02,9.89090e-01,6.70469e-01,9.99992e-01
1.073841587e+00,4.02472e-02,9.99999e-01,9.99999e-01,6.01605e-02,9.87222e-01,6.75785e-01,9.99983e-01
