#,Wave/freq,Total,N2,O2,CO2,H2O,Rayleigh,CIA
4.000000000e-01,1.20543e-02,9.99999e-01,9.99999e-01,9.99999e-01,9.99991e-01,1.20544e-02,9.99999e-01
4.020000000e-01,1.31548e-02,9.99999e-01,9.99999e-01,9.99999e-01,9.99994e-01,1.31549e-02,9.99999e-01
4.040100000e-01,1.43298e-02,9.99999e-01,9.99999e-01,9.99999e-01,9.99997e-01,1.43298e-02,9.99999e-01
4.060300500e-01,1.55833e-02,9.99999e-01,9.99999e-01,9.99999e-01,9.99998e-01,1.55833e-02,9.99999e-01
4.080602003e-01,1.69184e-02,9.99999e-01,9.99999e-01,9.99999e-01,9.99999e-01,1.69184e-02,9.99999e-01
4.101005013e-01,1.83381e-02,9.99999e-01,9.99999e-01,9.99999e-01,9.99999e-01,1.83381e-02,9.99999e-01
4.121510038e-01,1.98452e-02,9.99999e-01,9.99999e-01,9.99999e-01,9.99999e-01,1.98452e-02,9.99999e-01
4.142117588e-01,2.14428e-02,9.99999e-01,9.99999e-01,9.99999e-01,9.99997e-01,2.14428e-02,9.99999e-01
4.162828176e-01,2.31334e-02,9.99999e-01,9.99999e-01,9.99999e-01,9.99988e-01,2.31336e-02,9.99999e-01
4.183642317e-01,2.49202e-02,9.99999e-01,9.99999e-01,9.99999e-01,9.99993e-01,2.49203e-02,9.99999e-01
4.204560528e-01,2.68055e-02,9.99999e-01,9.99999e-01,9.99999e-01,9.99995e-01,2.68056e-02,9.99999e-01
4.225583331e-01,2.87920e-02,9.99999e-01,9.99999e-01,9.99999e-01,9.99998e-01,2.87920e-02,9.99999e-01
4.246711247e-01,3.08819e-02,9.99999e-01,9.99999e-01,9.99999e-01,9.99998e-01,3.08820e-02,9.99999e-01
4.267944804e-01,3.30778e-02,9.99999e-01,9.99999e-01,9.99999e-01,9.99997e-01,3.30778e-02,9.99999e-01
4.289284528e-01,3.53818e-02,9.99999e-01,9.99999e-01,9.99999e-01,9.99998e-01,3.53818e-02,9.99999e-01
4.310730950e-01,3.77959e-02,9.99999e-01,9.99999e-01,9.99999e-01,9.99998e-01,3.77959e-02,9.99999e-01
4.332284605e-01,4.03222e-02,9.99999e-01,9.99999e-01,9.99999e-01,9.99999e-01,4.03222e-02,9.99999e-01
4.353946028e-01,4.29623e-02,9.99999e-01,9.99999e-01,9.99999e-01,9.99999e-01,4.29624e-02,9.99999e-01
4.375715758e-01,4.57180e-02,9.99999e-01,9.99999e-01,9.99999e-01,9.99998e-01,4.57181e-02,9.99999e-01
4.397594337e-01,4.85904e-02,9.99999e-01,9.99999e-01,9.99999e-01,9.99990e-01,4.85909e-02,9.99999e-01
4.419582309e-01,5.15796e-02,9.99999e-01,9.99999e-01,9.99999e-01,9.99952e-01,5.15820e-02,9.99999e-01
4.441680220e-01,5.46907e-02,9.99999e-01,9.99999e-01,9.99999e-01,9.99962e-01,5.46927e-02,9.99999e-01
4.463888621e-01,5.79218e-02,9.99999e-01,9.99999e-01,9.99999e-01,9.99961e-01,5.79240e-02,9.99999e-01
4.486208064e-01,6.12752e-02,9.99999e-01,9.99999e-01,9.99999e-01,9.99975e-01,6.12767e-02,9.99999e-01
4.508639105e-01,6.47507e-02,9.99999e-01,9.99999e-01,9.99999e-01,9.99988e-01,6.47514e-02,9.99999e-01
4.531182300e-01,6.83483e-02,9.99999e-01,9.99999e-01,9.99999e-01,9.99995e-01,6.83486e-02,9.99999e-01
4.553838212e-01,7.20685e-02,9.99999e-01,9.99999e-01,9.99999e-01,9.99996e-01,7.20687e-02,9.99999e-01
4.576607403e-01,7.59117e-02,9.99999e-01,9.99999e-01,9.99999e-01,9.99998e-01,7.59118e-02,9.99999e-01
4.599490440e-01,7.98777e-02,9.99999e-01,9.99999e-01,9.99999e-01,9.99998e-01,7.98778e-02,9.99999e-01
4.622487892e-01,8.39664e-02,9.99999e-01,9.99999e-01,9.99999e-01,9.99999e-01,8.39664e-02,9.99999e-01
4.645600332e-01,8.81773e-02,9.99999e-01,9.99999e-01,9.99999e-01,9.99998e-01,8.81774e-02,9.99999e-01
4.668828333e-01,9.25090e-02,9.99999e-01,9.99999e-01,9.99999e-01,9.99988e-01,9.25101e-02,9.99999e-01
4.692172475e-01,9.69614e-02,9.99999e-01,9.99999e-01,9.99999e-01,9.99975e-01,9.69637e-02,9.99999e-01
4.715633337e-01,1.01536e-01,9.99999e-01,9.99999e-01,9.99999e-01,9.99983e-01,1.01537e-01,9.99999e-01
4.739211504e-01,1.06229e-01,9.99999e-01,9.99999e-01,9.99999e-01,9.99984e-01,1.06230e-01,9.99999e-01
4.762907561e-01,1.11040e-01,9.99999e-01,9.99999e-01,9.99999e-01,9.99991e-01,1.11041e-01,9.99999e-01
4.786722099e-01,1.15967e-01,9.99999e-01,9.99999e-01,9.99999e-01,9.99996e-01,1.15967e-01,9.99999e-01
4.810655710e-01,1.21009e-01,9.99999e-01,9.99999e-01,9.99999e-01,9.99998e-01,1.21009e-01,9.99999e-01
4.834708988e-01,1.26163e-01,9.99999e-01,9.99999e-01,9.99999e-01,9.99990e-01,1.26164e-01,9.99999e-01
4.858882533e-01,1.31427e-01,9.99999e-01,9.99999e-01,9.99999e-01,9.99982e-01,1.31430e-01,9.99999e-01
4.883176946e-01,1.36803e-01,9.99999e-01,9.99999e-01,9.99999e-01,9.99985e-01,1.36805e-01,9.99999e-01
4.907592831e-01,1.42285e-01,9.99999e-01,9.99999e-01,9.99999e-01,9.99986e-01,1.42287e-01,9.99999e-01
4.932130795e-01,1.47873e-01,9.99999e-01,9.99999e-01,9.99999e-01,9.99990e-01,1.47874e-01,9.99999e-01
4.956791449e-01,1.53563e-01,9.99999e-01,9.99999e-01,9.99999e-01,9.99994e-01,1.53564e-01,9.99999e-01
4.981575406e-01,1.59350e-01,9.99999e-01,9.99999e-01,9.99999e-01,9.99975e-01,1.59354e-01,9.99999e-01
5.006483283e-01,1.65230e-01,9.99999e-01,9.99999e-01,9.99999e-01,9.99937e-01,1.65241e-01,9.99999e-01
5.031515699e-01,1.71168e-01,9.99999e-01,9.99999e-01,9.99999e-01,9.99683e-01,1.71223e-01,9.99996e-01
5.056673278e-01,1.77266e-01,9.99999e-01,9.99999e-01,9.99999e-01,9.99832e-01,1.77297e-01,9.99995e-01
5.081956644e-01,1.83420e-01,9.99999e-01,9.99999e-01,9.99999e-01,9.99789e-01,1.83460e-01,9.99997e-01
5.107366428e-01,1.89682e-01,9.99999e-01,9.99999e-01,9.99999e-01,9.99857e-01,1.89709e-01,9.99999e-01
5.132903260e-01,1.96025e-01,9.99999e-01,9.99999e-01,9.99999e-01,9.99918e-01,1.96041e-01,9.99999e-01
5.158567776e-01,2.02446e-01,9.99999e-01,9.99999e-01,9.99999e-01,9.99965e-01,2.02453e-01,9.99999e-01
5.184360615e-01,2.08939e-01,9.99999e-01,9.99999e-01,9.99999e-01,9.99985e-01,2.08942e-01,9.99999e-01
5.210282418e-01,2.15504e-01,9.99999e-01,9.99999e-01,9.99999e-01,9.99994e-01,2.15505e-01,9.99999e-01
5.236333830e-01,2.22134e-01,9.99999e-01,9.99999e-01,9.99999e-01,9.99978e-01,2.22138e-01,9.99999e-01
5.262515499e-01,2.28836e-01,9.99999e-01,9.99999e-01,9.99999e-01,9.99986e-01,2.28839e-01,9.99999e-01
5.288828077e-01,2.35600e-01,9.99999e-01,9.99999e-01,9.99999e-01,9.99987e-01,2.35603e-01,9.99999e-01
5.315272217e-01,2.42425e-01,9.99999e-01,9.99999e-01,9.99999e-01,9.99989e-01,2.42427e-01,9.99999e-01
5.341848578e-01,2.49307e-01,9.99999e-01,9.99999e-01,9.99999e-01,9.99992e-01,2.49309e-01,9.99999e-01
5.368557821e-01,2.56237e-01,9.99999e-01,9.99999e-01,9.99999e-01,9.99975e-01,2.56244e-01,9.99999e-01
5.395400610e-01,2.63206e-01,9.99999e-01,9.99999e-01,9.99999e-01,9.99913e-01,2.63229e-01,9.99998e-01
5.422377613e-01,2.70230e-01,9.99999e-01,9.99999e-01,9.99999e-01,9.99887e-01,2.70261e-01,9.99997e-01
5.449489501e-01,2.77307e-01,9.99999e-01,9.99999e-01,9.99999e-01,9.99895e-01,2.77337e-01,9.99997e-01
5.476736949e-01,2.84426e-01,9.99999e-01,9.99999e-01,9.99999e-01,9.99907e-01,2.84452e-01,9.99998e-01
5.504120634e-01,2.91585e-01,9.99999e-01,9.99999e-01,9.99999e-01,9.99932e-01,2.91604e-01,9.99999e-01
5.531641237e-01,2.98779e-01,9.99999e-01,9.99999e-01,9.99999e-01,9.99965e-01,2.98790e-01,9.99999e-01
5.559299443e-01,3.06000e-01,9.99999e-01,9.99999e-01,9.99999e-01,9.99983e-01,3.06005e-01,9.99999e-01
5.587095940e-01,3.13243e-01,9.99999e-01,9.99999e-01,9.99999e-01,9.99989e-01,3.13247e-01,9.99999e-01
5.615031420e-01,3.20508e-01,9.99999e-01,9.99999e-01,9.99999e-01,9.99988e-01,3.20512e-01,9.99999e-01
5.643106577e-01,3.27793e-01,9.99999e-01,9.99999e-01,9.99999e-01,9.99986e-01,3.27797e-01,9.99999e-01
5.671322110e-01,3.35046e-01,9.99999e-01,9.99999e-01,9.99999e-01,9.99843e-01,3.35099e-01,9.99998e-01
5.699678720e-01,3.42356e-01,9.99999e-01,9.99999e-01,9.99999e-01,9.99832e-01,3.42414e-01,9.99995e-01
5.728177114e-01,3.49678e-01,9.99999e-01,9.99999e-01,9.99999e-01,9.99826e-01,3.49740e-01,9.99995e-01
5.756818000e-01,3.57016e-01,9.99999e-01,9.99999e-01,9.99999e-01,9.99840e-01,3.57073e-01,9.99997e-01
5.785602090e-01,3.64360e-01,9.99999e-01,9.99999e-01,9.99999e-01,9.99860e-01,3.64411e-01,9.99998e-01
5.814530100e-01,3.71699e-01,9.99999e-01,9.99999e-01,9.99999e-01,9.99860e-01,3.71750e-01,9.99999e-01
5.843602750e-01,3.79025e-01,9.99999e-01,9.99999e-01,9.99999e-01,9.99833e-01,3.79088e-01,9.99998e-01
5.872820764e-01,3.85865e-01,9.99999e-01,9.99999e-01,9.99999e-01,9.98570e-01,3.86421e-01,9.99989e-01
5.902184868e-01,3.93054e-01,9.99999e-01,9.99999e-01,9.99999e-01,9.98266e-01,3.93747e-01,9.99972e-01
5.931695792e-01,4.00562e-01,9.99999e-01,9.99999e-01,9.99999e-01,9.98775e-01,4.01063e-01,9.99973e-01
5.961354271e-01,4.07813e-01,9.99999e-01,9.99999e-01,9.99999e-01,9.98657e-01,4.08367e-01,9.99984e-01
5.991161043e-01,4.15246e-01,9.99999e-01,9.99999e-01,9.99999e-01,9.99020e-01,4.15655e-01,9.99994e-01
6.021116848e-01,4.22691e-01,9.99999e-01,9.99999e-01,9.99999e-01,9.99444e-01,4.22926e-01,9.99998e-01
6.051222432e-01,4.30055e-01,9.99999e-01,9.99999e-01,9.99999e-01,9.99718e-01,4.30176e-01,9.99999e-01
6.081478544e-01,4.37351e-01,9.99999e-01,9.99999e-01,9.99999e-01,9.99878e-01,4.37404e-01,9.99999e-01
6.111885937e-01,4.44584e-01,9.99999e-01,9.99999e-01,9.99999e-01,9.99948e-01,4.44607e-01,9.99999e-01
6.142445367e-01,4.51772e-01,9.99999e-01,9.99999e-01,9.99999e-01,9.99976e-01,4.51783e-01,9.99999e-01
6.173157594e-01,4.58923e-01,9.99999e-01,9.99999e-01,9.99999e-01,9.99986e-01,4.58929e-01,9.99999e-01
6.204023382e-01,4.66039e-01,9.99999e-01,9.99999e-01,9.99999e-01,9.99988e-01,4.66044e-01,9.99999e-01
6.235043498e-01,4.73103e-01,9.99999e-01,9.99999e-01,9.99999e-01,9.99952e-01,4.73125e-01,9.99999e-01
6.266218716e-01,4.80051e-01,9.99999e-01,9.99999e-01,9.99999e-01,9.99750e-01,4.80171e-01,9.99997e-01
6.297549810e-01,4.87134e-01,9.99999e-01,9.99999e-01,9.99999e-01,9.99908e-01,4.87180e-01,9.99996e-01
6.329037559e-01,4.94059e-01,9.99999e-01,9.99999e-01,9.99999e-01,9.99818e-01,4.94149e-01,9.99996e-01
6.360682746e-01,5.01000e-01,9.99999e-01,9.99999e-01,9.99999e-01,9.99845e-01,5.01078e-01,9.99997e-01
6.392486160e-01,5.07862e-01,9.99999e-01,9.99999e-01,9.99999e-01,9.99800e-01,5.07964e-01,9.99998e-01
6.424448591e-01,5.14668e-01,9.99999e-01,9.99999e-01,9.99999e-01,9.99733e-01,5.14806e-01,9.99998e-01
6.456570834e-01,5.20953e-01,9.99999e-01,9.99999e-01,9.99999e-01,9.98762e-01,5.21602e-01,9.99992e-01
6.488853688e-01,5.27861e-01,9.99999e-01,9.99999e-01,9.99999e-01,9.99092e-01,5.28351e-01,9.99980e-01
6.521297956e-01,5.34548e-01,9.99999e-01,9.99999e-01,9.99999e-01,9.99074e-01,5.35051e-01,9.99983e-01
6.553904446e-01,5.41197e-01,9.99999e-01,9.99999e-01,9.99999e-01,9.99079e-01,5.41702e-01,9.99987e-01
6.586673968e-01,5.47867e-01,9.99999e-01,9.99999e-01,9.99999e-01,9.99211e-01,5.48301e-01,9.99995e-01
6.619607338e-01,5.54595e-01,9.99999e-01,9.99999e-01,9.99999e-01,9.99543e-01,5.54848e-01,9.99998e-01
6.652705375e-01,5.61194e-01,9.99999e-01,9.99999e-01,9.99999e-01,9.99735e-01,5.61342e-01,9.99999e-01
6.685968902e-01,5.67711e-01,9.99999e-01,9.99999e-01,9.99999e-01,9.99877e-01,5.67781e-01,9.99999e-01
6.719398746e-01,5.74132e-01,9.99999e-01,9.99999e-01,9.99999e-01,9.99942e-01,5.74164e-01,9.99999e-01
6.752995740e-01,5.80474e-01,9.99999e-01,9.99999e-01,9.99999e-01,9.99968e-01,5.80492e-01,9.99999e-01
6.786760719e-01,5.86735e-01,9.99999e-01,9.99999e-01,9.99999e-01,9.99955e-01,5.86761e-01,9.99999e-01
6.820694522e-01,5.92928e-01,9.99999e-01,9.99999e-01,9.99999e-01,9.99923e-01,5.92973e-01,9.99999e-01
6.854797995e-01,5.99067e-01,9.99999e-01,9.99999e-01,9.99999e-01,9.99901e-01,5.99126e-01,9.99998e-01
6.889071985e-01,6.05075e-01,9.99999e-01,9.99999e-01,9.99999e-01,9.99762e-01,6.05219e-01,9.99997e-01
6.923517345e-01,6.08873e-01,9.99999e-01,9.99999e-01,9.99999e-01,9.96126e-01,6.11252e-01,9.99980e-01
6.958134932e-01,6.15951e-01,9.99999e-01,9.99999e-01,9.99999e-01,9.97977e-01,6.17224e-01,9.99958e-01
6.992925606e-01,6.21920e-01,9.99999e-01,9.99999e-01,9.99999e-01,9.98085e-01,6.23135e-01,9.99962e-01
7.027890234e-01,6.27479e-01,9.99999e-01,9.99999e-01,9.99999e-01,9.97633e-01,6.28984e-01,9.99971e-01
7.063029686e-01,6.33500e-01,9.99999e-01,9.99999e-01,9.99999e-01,9.98011e-01,6.34771e-01,9.99985e-01
7.098344834e-01,6.39268e-01,9.99999e-01,9.99999e-01,9.99999e-01,9.98092e-01,6.40495e-01,9.99991e-01
7.133836558e-01,6.44505e-01,9.99999e-01,9.99999e-01,9.99999e-01,9.97460e-01,6.46157e-01,9.99982e-01
7.169505741e-01,6.38392e-01,9.99999e-01,9.99999e-01,9.99999e-01,9.79625e-01,6.51754e-01,9.99869e-01
7.205353270e-01,6.50545e-01,9.99999e-01,9.99999e-01,9.99999e-01,9.89967e-01,6.57289e-01,9.99769e-01
7.241380036e-01,6.54220e-01,9.99999e-01,9.99999e-01,9.99999e-01,9.87310e-01,6.62760e-01,9.99801e-01
7.277586936e-01,6.60402e-01,9.99999e-01,9.99999e-01,9.99999e-01,9.88539e-01,6.68167e-01,9.99837e-01
7.313974871e-01,6.65256e-01,9.99999e-01,9.99999e-01,9.99999e-01,9.87820e-01,6.73509e-01,9.99923e-01
7.350544745e-01,6.74249e-01,9.99999e-01,9.99999e-01,9.99999e-01,9.93338e-01,6.78788e-01,9.99973e-01
7.387297469e-01,6.80642e-01,9.99999e-01,9.99999e-01,9.99999e-01,9.95097e-01,6.84003e-01,9.99987e-01
7.424233956e-01,6.87498e-01,9.99999e-01,9.99999e-01,9.99999e-01,9.97599e-01,6.89153e-01,9.99997e-01
7.461355126e-01,6.93230e-01,9.99999e-01,9.99999e-01,9.99999e-01,9.98545e-01,6.94240e-01,9.99999e-01
7.498661902e-01,6.98789e-01,9.99999e-01,9.99999e-01,9.99999e-01,9.99322e-01,6.99262e-01,9.99999e-01
7.536155211e-01,7.03987e-01,9.99999e-01,9.99999e-01,9.99999e-01,9.99667e-01,7.04221e-01,9.99999e-01
7.573835987e-01,7.08994e-01,9.99999e-01,9.99999e-01,9.99999e-01,9.99828e-01,7.09116e-01,9.99999e-01
7.611705167e-01,7.13871e-01,9.99999e-01,9.99999e-01,9.99999e-01,9.99893e-01,7.13947e-01,9.99999e-01
7.649763693e-01,7.18666e-01,9.99999e-01,9.99999e-01,9.99999e-01,9.99932e-01,7.18714e-01,9.99999e-01
7.688012511e-01,7.23385e-01,9.99999e-01,9.99999e-01,9.99999e-01,9.99953e-01,7.23418e-01,9.99999e-01
7.726452574e-01,7.28032e-01,9.99999e-01,9.99999e-01,9.99999e-01,9.99961e-01,7.28060e-01,9.99999e-01
7.765084837e-01,7.32598e-01,9.99999e-01,9.99999e-01,9.99999e-01,9.99945e-01,7.32638e-01,9.99999e-01
7.803910261e-01,7.25946e-01,9.99999e-01,9.99999e-01,9.85022e-01,9.99765e-01,7.37154e-01,9.99999e-01
7.842929812e-01,6.94651e-01,9.99999e-01,9.99999e-01,9.37431e-01,9.99183e-01,7.41608e-01,9.99998e-01
7.882144461e-01,6.94823e-01,9.99999e-01,9.99999e-01,9.32951e-01,9.98315e-01,7.46000e-01,9.99989e-01
7.921555184e-01,7.20414e-01,9.99999e-01,9.99999e-01,9.61026e-01,9.99075e-01,7.50330e-01,9.99979e-01
7.961162960e-01,7.33622e-01,9.99999e-01,9.99999e-01,9.73800e-01,9.98368e-01,7.54599e-01,9.99980e-01
8.000968774e-01,7.46555e-01,9.99999e-01,9.99999e-01,9.85727e-01,9.98114e-01,7.58808e-01,9.99979e-01
8.040973618e-01,7.55858e-01,9.99999e-01,9.99999e-01,9.92581e-01,9.98114e-01,7.62956e-01,9.99983e-01
8.081178486e-01,7.61175e-01,9.99999e-01,9.99999e-01,9.96591e-01,9.95753e-01,7.67044e-01,9.99984e-01
8.121584379e-01,7.56630e-01,9.99999e-01,9.99999e-01,9.98944e-01,9.82357e-01,7.71073e-01,9.99940e-01
8.162192301e-01,7.58450e-01,9.99999e-01,9.99999e-01,9.99766e-01,9.79035e-01,7.75043e-01,9.99776e-01
8.203003262e-01,7.70547e-01,9.99999e-01,9.99999e-01,9.99995e-01,9.89468e-01,7.78954e-01,9.99737e-01
8.244018279e-01,7.71066e-01,9.99999e-01,9.99999e-01,9.99999e-01,9.85206e-01,7.82807e-01,9.99791e-01
8.285238370e-01,7.76624e-01,9.99999e-01,9.99999e-01,9.99999e-01,9.87475e-01,7.86602e-01,9.99836e-01
8.326664562e-01,7.80270e-01,9.99999e-01,9.99999e-01,9.99999e-01,9.87323e-01,7.90341e-01,9.99931e-01
8.368297885e-01,7.86822e-01,9.99999e-01,9.99999e-01,9.99999e-01,9.90946e-01,7.94022e-01,9.99984e-01
8.410139374e-01,7.93346e-01,9.99999e-01,9.99999e-01,9.99999e-01,9.94615e-01,7.97648e-01,9.99990e-01
8.452190071e-01,7.99097e-01,9.99999e-01,9.99999e-01,9.99999e-01,9.97357e-01,8.01218e-01,9.99994e-01
8.494451021e-01,8.03497e-01,9.99999e-01,9.99999e-01,9.99999e-01,9.98467e-01,8.04733e-01,9.99995e-01
8.536923276e-01,8.07459e-01,9.99999e-01,9.99999e-01,9.99999e-01,9.99093e-01,8.08194e-01,9.99996e-01
8.579607893e-01,8.11147e-01,9.99999e-01,9.99999e-01,9.99999e-01,9.99441e-01,8.11600e-01,9.99998e-01
8.622505932e-01,8.14665e-01,9.99999e-01,9.99999e-01,9.99999e-01,9.99645e-01,8.14954e-01,9.99999e-01
8.665618462e-01,7.84692e-01,9.99999e-01,9.99999e-01,9.59188e-01,9.99780e-01,8.18254e-01,9.99999e-01
8.708946554e-01,6.95020e-01,9.99999e-01,9.99999e-01,8.46242e-01,9.99748e-01,8.21503e-01,9.99999e-01
8.752491287e-01,7.22088e-01,9.99999e-01,9.99999e-01,8.75866e-01,9.99663e-01,8.24699e-01,9.99999e-01
8.796253743e-01,7.70043e-01,9.99999e-01,9.99999e-01,9.30604e-01,9.99534e-01,8.27845e-01,9.99998e-01
8.840235012e-01,8.00277e-01,9.99999e-01,9.99999e-01,9.63609e-01,9.99468e-01,8.30940e-01,9.99996e-01
8.884436187e-01,8.20320e-01,9.99999e-01,9.99999e-01,9.85521e-01,9.98065e-01,8.33985e-01,9.99990e-01
8.928858368e-01,8.15122e-01,9.99999e-01,9.99999e-01,9.94118e-01,9.79676e-01,8.36981e-01,9.99946e-01
8.973502660e-01,8.08492e-01,9.99999e-01,9.99999e-01,9.98567e-01,9.64202e-01,8.39928e-01,9.99727e-01
9.018370173e-01,8.26787e-01,9.99999e-01,9.99999e-01,9.99841e-01,9.81539e-01,8.42827e-01,9.99572e-01
9.063462024e-01,8.28341e-01,9.99999e-01,9.99999e-01,9.95946e-01,9.83800e-01,8.45679e-01,9.99624e-01
9.108779334e-01,8.19172e-01,9.99999e-01,9.99999e-01,9.90729e-01,9.74820e-01,8.48483e-01,9.99609e-01
9.154323231e-01,8.24897e-01,9.99999e-01,9.99999e-01,9.97814e-01,9.71466e-01,8.51242e-01,9.99677e-01
9.200094847e-01,8.07982e-01,9.99999e-01,9.99999e-01,9.67553e-01,9.77552e-01,8.53954e-01,9.99819e-01
9.246095321e-01,7.89709e-01,9.99999e-01,9.99999e-01,9.55358e-01,9.64802e-01,8.56621e-01,9.99791e-01
9.292325798e-01,6.50761e-01,9.99999e-01,9.99999e-01,9.64700e-01,7.84265e-01,8.59244e-01,9.99189e-01
9.338787427e-01,6.06347e-01,9.99999e-01,9.99999e-01,9.65932e-01,7.29485e-01,8.61822e-01,9.96653e-01
9.385481364e-01,7.39945e-01,9.99999e-01,9.99999e-01,9.74922e-01,8.80992e-01,8.64357e-01,9.96021e-01
9.432408771e-01,7.11673e-01,9.99999e-01,9.99999e-01,9.84593e-01,8.36366e-01,8.66850e-01,9.96566e-01
9.479570815e-01,6.69749e-01,9.99999e-01,9.99999e-01,9.92072e-01,7.78611e-01,8.69300e-01,9.97204e-01
9.526968669e-01,7.20772e-01,9.99999e-01,9.99999e-01,9.96168e-01,8.31306e-01,8.71708e-01,9.98293e-01
9.574603512e-01,7.38623e-01,9.99999e-01,9.99999e-01,9.98360e-01,8.47114e-01,8.74075e-01,9.99132e-01
9.622476530e-01,7.65380e-01,9.99999e-01,9.99999e-01,9.99488e-01,8.74279e-01,8.76402e-01,9.99400e-01
9.670588912e-01,8.12946e-01,9.99999e-01,9.99999e-01,9.99846e-01,9.25698e-01,8.78689e-01,9.99589e-01
9.718941857e-01,8.39435e-01,9.99999e-01,9.99999e-01,9.99988e-01,9.53186e-01,8.80936e-01,9.99697e-01
9.767536566e-01,8.48512e-01,9.99999e-01,9.99999e-01,9.99999e-01,9.61005e-01,8.83145e-01,9.99768e-01
9.816374249e-01,8.59558e-01,9.99999e-01,9.99999e-01,9.99999e-01,9.70983e-01,8.85315e-01,9.99919e-01
9.865456120e-01,8.71273e-01,9.99999e-01,9.99999e-01,9.99999e-01,9.81788e-01,8.87448e-01,9.99982e-01
9.914783401e-01,8.79501e-01,9.99999e-01,9.99999e-01,9.99999e-01,9.88714e-01,8.89544e-01,9.99994e-01
9.964357318e-01,8.86108e-01,9.99999e-01,9.99999e-01,9.99999e-01,9.93839e-01,8.91603e-01,9.99996e-01
1.001417910e+00,8.90320e-01,9.99999e-01,9.99999e-01,9.99999e-01,9.96304e-01,8.93626e-01,9.99995e-01
1.006425000e+00,8.93721e-01,9.99999e-01,9.99999e-01,9.99999e-01,9.97893e-01,8.95613e-01,9.99993e-01
1.011457125e+00,8.96386e-01,9.99999e-01,9.99999e-01,9.99999e-01,9.98691e-01,8.97565e-01,9.99994e-01
1.016514411e+00,8.98681e-01,9.99999e-01,9.99999e-01,9.99999e-01,9.99111e-01,8.99483e-01,9.99995e-01
1.021596983e+00,9.00708e-01,9.99999e-01,9.99999e-01,9.99978e-01,9.99292e-01,9.01367e-01,9.99995e-01
1.026704968e+00,9.01297e-01,9.99999e-01,9.99999e-01,9.98425e-01,9.99447e-01,9.03218e-01,9.99996e-01
1.031838492e+00,8.83082e-01,9.99999e-01,9.99999e-01,9.76126e-01,9.99598e-01,9.05036e-01,9.99998e-01
1.036997685e+00,2.91127e-01,9.99999e-01,9.99999e-01,3.21105e-01,9.99761e-01,9.06822e-01,9.99999e-01
1.042182673e+00,3.55518e-01,9.99999e-01,9.99999e-01,3.91396e-01,9.99715e-01,9.08575e-01,9.99999e-01
1.047393587e+00,3.23049e-01,9.99999e-01,9.99999e-01,3.55005e-01,9.99623e-01,9.10297e-01,9.99999e-01
1.052630555e+00,6.10174e-02,9.99999e-01,9.99999e-01,6.69336e-02,9.99483e-01,9.11989e-01,9.99999e-01
1.057893707e+00,1.09448e-01,9.99999e-01,9.99999e-01,1.19875e-01,9.99137e-01,9.13650e-01,9.99999e-01
1.063183176e+00,1.97565e-01,9.99999e-01,9.99999e-01,2.16107e-01,9.98580e-01,9.15281e-01,9.99998e-01
1.068499092e+00,3.31323e-01,9.99999e-01,9.99999e-01,3.62150e-01,9.97622e-01,9.16883e-01,9.99997e-01
1.073841587e+00,4.82771e-01,9.99999e-01,9.99999e-01,5.26983e-01,9.97217e-01,9.18456e-01,9.99996e-01
