#,Wave/freq,Total,N2,O2,CO2,H2O,Rayleigh,CIA
4.000000000e-01,1.85002e-03,9.99999e-01,9.99999e-01,9.99999e-01,9.99987e-01,1.85004e-03,9.99999e-01
4.020000000e-01,2.09513e-03,9.99999e-01,9.99999e-01,9.99999e-01,9.99992e-01,2.09515e-03,9.99999e-01
4.040100000e-01,2.36661e-03,9.99999e-01,9.99999e-01,9.99999e-01,9.99996e-01,2.36661e-03,9.99999e-01
4.060300500e-01,2.66682e-03,9.99999e-01,9.99999e-01,9.99999e-01,9.99998e-01,2.66683e-03,9.99999e-01
4.080602003e-01,2.99804e-03,9.99999e-01,9.99999e-01,9.99999e-01,9.99999e-01,2.99804e-03,9.99999e-01
4.101005013e-01,3.36261e-03,9.99999e-01,9.99999e-01,9.99999e-01,9.99999e-01,3.36261e-03,9.99999e-01
4.121510038e-01,3.76297e-03,9.99999e-01,9.99999e-01,9.99999e-01,9.99999e-01,3.76297e-03,9.99999e-01
4.142117588e-01,4.20164e-03,9.99999e-01,9.99999e-01,9.99999e-01,9.99996e-01,4.20165e-03,9.99999e-01
4.162828176e-01,4.68119e-03,9.99999e-01,9.99999e-01,9.99999e-01,9.99984e-01,4.68126e-03,9.99999e-01
4.183642317e-01,5.20446e-03,9.99999e-01,9.99999e-01,9.99999e-01,9.99990e-01,5.20450e-03,9.99999e-01
4.204560528e-01,5.77410e-03,9.99999e-01,9.99999e-01,9.99999e-01,9.99994e-01,5.77413e-03,9.99999e-01
4.225583331e-01,6.39296e-03,9.99999e-01,9.99999e-01,9.99999e-01,9.99997e-01,6.39297e-03,9.99999e-01
4.246711247e-01,7.06390e-03,9.99999e-01,9.99999e-01,9.99999e-01,9.99997e-01,7.06391e-03,9.99999e-01
4.267944804e-01,7.78989e-03,9.99999e-01,9.99999e-01,9.99999e-01,9.99997e-01,7.78990e-03,9.99999e-01
4.289284528e-01,8.57391e-03,9.99999e-01,9.99999e-01,9.99999e-01,9.99997e-01,8.57392e-03,9.99999e-01
4.310730950e-01,9.41898e-03,9.99999e-01,9.99999e-01,9.99999e-01,9.99998e-01,9.41899e-03,9.99999e-01
4.332284605e-01,1.03282e-02,9.99999e-01,9.99999e-01,9.99999e-01,9.99999e-01,1.03282e-02,9.99999e-01
4.353946028e-01,1.13045e-02,9.99999e-01,9.99999e-01,9.99999e-01,9.99999e-01,1.13045e-02,9.99999e-01
4.375715758e-01,1.23510e-02,9.99999e-01,9.99999e-01,9.99999e-01,9.99997e-01,1.23511e-02,9.99999e-01
4.397594337e-01,1.34707e-02,9.99999e-01,9.99999e-01,9.99999e-01,9.99986e-01,1.34709e-02,9.99999e-01
4.419582309e-01,1.46662e-02,9.99999e-01,9.99999e-01,9.99999e-01,9.99931e-01,1.46672e-02,9.99999e-01
4.441680220e-01,1.59420e-02,9.99999e-01,9.99999e-01,9.99999e-01,9.99947e-01,1.59428e-02,9.99999e-01
4.463888621e-01,1.73000e-02,9.99999e-01,9.99999e-01,9.99999e-01,9.99945e-01,1.73009e-02,9.99999e-01
4.486208064e-01,1.87438e-02,9.99999e-01,9.99999e-01,9.99999e-01,9.99966e-01,1.87444e-02,9.99999e-01
4.508639105e-01,2.02759e-02,9.99999e-01,9.99999e-01,9.99999e-01,9.99983e-01,2.02762e-02,9.99999e-01
4.531182300e-01,2.18991e-02,9.99999e-01,9.99999e-01,9.99999e-01,9.99993e-01,2.18992e-02,9.99999e-01
4.553838212e-01,2.36160e-02,9.99999e-01,9.99999e-01,9.99999e-01,9.99995e-01,2.36161e-02,9.99999e-01
4.576607403e-01,2.54297e-02,9.99999e-01,9.99999e-01,9.99999e-01,9.99997e-01,2.54297e-02,9.99999e-01
4.599490440e-01,2.73426e-02,9.99999e-01,9.99999e-01,9.99999e-01,9.99998e-01,2.73426e-02,9.99999e-01
4.622487892e-01,2.93573e-02,9.99999e-01,9.99999e-01,9.99999e-01,9.99999e-01,2.93573e-02,9.99999e-01
4.645600332e-01,3.14762e-02,9.99999e-01,9.99999e-01,9.99999e-01,9.99998e-01,3.14763e-02,9.99999e-01
4.668828333e-01,3.37011e-02,9.99999e-01,9.99999e-01,9.99999e-01,9.99983e-01,3.37017e-02,9.99999e-01
4.692172475e-01,3.60346e-02,9.99999e-01,9.99999e-01,9.99999e-01,9.99965e-01,3.60358e-02,9.99999e-01
4.715633337e-01,3.84798e-02,9.99999e-01,9.99999e-01,9.99999e-01,9.99977e-01,3.84806e-02,9.99999e-01
4.739211504e-01,4.10372e-02,9.99999e-01,9.99999e-01,9.99999e-01,9.99978e-01,4.10381e-02,9.99999e-01
4.762907561e-01,4.37095e-02,9.99999e-01,9.99999e-01,9.99999e-01,9.99988e-01,4.37099e-02,9.99999e-01
4.786722099e-01,4.64976e-02,9.99999e-01,9.99999e-01,9.99999e-01,9.99995e-01,4.64978e-02,9.99999e-01
4.810655710e-01,4.94030e-02,9.99999e-01,9.99999e-01,9.99999e-01,9.99998e-01,4.94030e-02,9.99999e-01
4.834708988e-01,5.24263e-02,9.99999e-01,9.99999e-01,9.99999e-01,9.99986e-01,5.24270e-02,9.99999e-01
4.858882533e-01,5.55695e-02,9.99999e-01,9.99999e-01,9.99999e-01,9.99975e-01,5.55709e-02,9.99999e-01
4.883176946e-01,5.88343e-02,9.99999e-01,9.99999e-01,9.99999e-01,9.99979e-01,5.88355e-02,9.99999e-01
4.907592831e-01,6.22206e-02,9.99999e-01,9.99999e-01,9.99999e-01,9.99981e-01,6.22217e-02,9.99999e-01
4.932130795e-01,6.57293e-02,9.99999e-01,9.99999e-01,9.99999e-01,9.99986e-01,6.57302e-02,9.99999e-01
4.956791449e-01,6.93608e-02,9.99999e-01,9.99999e-01,9.99999e-01,9.99992e-01,6.93612e-02,9.99999e-01
4.981575406e-01,7.31127e-02,9.99999e-01,9.99999e-01,9.99999e-01,9.99965e-01,7.31152e-02,9.99999e-01
5.006483283e-01,7.69851e-02,9.99999e-01,9.99999e-01,9.99999e-01,9.99909e-01,7.69921e-02,9.99998e-01
5.031515699e-01,8.09550e-02,9.99999e-01,9.99999e-01,9.99999e-01,9.99547e-01,8.09919e-02,9.99994e-01
5.056673278e-01,8.50937e-02,9.99999e-01,9.99999e-01,9.99999e-01,9.99762e-01,8.51143e-02,9.99994e-01
5.081956644e-01,8.93319e-02,9.99999e-01,9.99999e-01,9.99999e-01,9.99700e-01,8.93589e-02,9.99996e-01
5.107366428e-01,9.37060e-02,9.99999e-01,9.99999e-01,9.99999e-01,9.99797e-01,9.37250e-02,9.99998e-01
5.132903260e-01,9.82005e-02,9.99999e-01,9.99999e-01,9.99999e-01,9.99884e-01,9.82118e-02,9.99999e-01
5.158567776e-01,1.02813e-01,9.99999e-01,9.99999e-01,9.99999e-01,9.99951e-01,1.02818e-01,9.99999e-01
5.184360615e-01,1.07542e-01,9.99999e-01,9.99999e-01,9.99999e-01,9.99980e-01,1.07544e-01,9.99999e-01
5.210282418e-01,1.12386e-01,9.99999e-01,9.99999e-01,9.99999e-01,9.99992e-01,1.12386e-01,9.99999e-01
5.236333830e-01,1.17341e-01,9.99999e-01,9.99999e-01,9.99999e-01,9.99970e-01,1.17345e-01,9.99999e-01
5.262515499e-01,1.22416e-01,9.99999e-01,9.99999e-01,9.99999e-01,9.99981e-01,1.22418e-01,9.99999e-01
5.288828077e-01,1.27601e-01,9.99999e-01,9.99999e-01,9.99999e-01,9.99982e-01,1.27603e-01,9.99999e-01
5.315272217e-01,1.32898e-01,9.99999e-01,9.99999e-01,9.99999e-01,9.99984e-01,1.32900e-01,9.99999e-01
5.341848578e-01,1.38303e-01,9.99999e-01,9.99999e-01,9.99999e-01,9.99989e-01,1.38304e-01,9.99999e-01
5.368557821e-01,1.43811e-01,9.99999e-01,9.99999e-01,9.99999e-01,9.99965e-01,1.43816e-01,9.99999e-01
5.395400610e-01,1.49413e-01,9.99999e-01,9.99999e-01,9.99999e-01,9.99874e-01,1.49431e-01,9.99998e-01
5.422377613e-01,1.55124e-01,9.99999e-01,9.99999e-01,9.99999e-01,9.99840e-01,1.55149e-01,9.99996e-01
5.449489501e-01,1.60941e-01,9.99999e-01,9.99999e-01,9.99999e-01,9.99850e-01,1.60966e-01,9.99996e-01
5.476736949e-01,1.66857e-01,9.99999e-01,9.99999e-01,9.99999e-01,9.99869e-01,1.66879e-01,9.99998e-01
5.504120634e-01,1.72870e-01,9.99999e-01,9.99999e-01,9.99999e-01,9.99904e-01,1.72887e-01,9.99999e-01
5.531641237e-01,1.78977e-01,9.99999e-01,9.99999e-01,9.99999e-01,9.99951e-01,1.78986e-01,9.99999e-01
5.559299443e-01,1.85168e-01,9.99999e-01,9.99999e-01,9.99999e-01,9.99976e-01,1.85173e-01,9.99999e-01
5.587095940e-01,1.91442e-01,9.99999e-01,9.99999e-01,9.99999e-01,9.99985e-01,1.91445e-01,9.99999e-01
5.615031420e-01,1.97796e-01,9.99999e-01,9.99999e-01,9.99999e-01,9.99983e-01,1.97800e-01,9.99999e-01
5.643106577e-01,2.04230e-01,9.99999e-01,9.99999e-01,9.99999e-01,9.99980e-01,2.04233e-01,9.99999e-01
5.671322110e-01,2.10695e-01,9.99999e-01,9.99999e-01,9.99999e-01,9.99771e-01,2.10743e-01,9.99997e-01
5.699678720e-01,2.17273e-01,9.99999e-01,9.99999e-01,9.99999e-01,9.99765e-01,2.17326e-01,9.99993e-01
5.728177114e-01,2.23921e-01,9.99999e-01,9.99999e-01,9.99999e-01,9.99752e-01,2.23978e-01,9.99994e-01
5.756818000e-01,2.30643e-01,9.99999e-01,9.99999e-01,9.99999e-01,9.99773e-01,2.30696e-01,9.99996e-01
5.785602090e-01,2.37430e-01,9.99999e-01,9.99999e-01,9.99999e-01,9.99802e-01,2.37477e-01,9.99998e-01
5.814530100e-01,2.44269e-01,9.99999e-01,9.99999e-01,9.99999e-01,9.99801e-01,2.44317e-01,9.99999e-01
5.843602750e-01,2.51154e-01,9.99999e-01,9.99999e-01,9.99999e-01,9.99760e-01,2.51214e-01,9.99998e-01
5.872820764e-01,2.57629e-01,9.99999e-01,9.99999e-01,9.99999e-01,9.97942e-01,2.58163e-01,9.99985e-01
5.902184868e-01,2.64499e-01,9.99999e-01,9.99999e-01,9.99999e-01,9.97539e-01,2.65162e-01,9.99960e-01
5.931695792e-01,2.71721e-01,9.99999e-01,9.99999e-01,9.99999e-01,9.98253e-01,2.72206e-01,9.99962e-01
5.961354271e-01,2.78754e-01,9.99999e-01,9.99999e-01,9.99999e-01,9.98092e-01,2.79293e-01,9.99977e-01
5.991161043e-01,2.86019e-01,9.99999e-01,9.99999e-01,9.99999e-01,9.98610e-01,2.86419e-01,9.99992e-01
6.021116848e-01,2.93349e-01,9.99999e-01,9.99999e-01,9.99999e-01,9.99212e-01,2.93581e-01,9.99998e-01
6.051222432e-01,3.00655e-01,9.99999e-01,9.99999e-01,9.99999e-01,9.99601e-01,3.00774e-01,9.99999e-01
6.081478544e-01,3.07944e-01,9.99999e-01,9.99999e-01,9.99999e-01,9.99827e-01,3.07997e-01,9.99999e-01
6.111885937e-01,3.15223e-01,9.99999e-01,9.99999e-01,9.99999e-01,9.99927e-01,3.15246e-01,9.99999e-01
6.142445367e-01,3.22506e-01,9.99999e-01,9.99999e-01,9.99999e-01,9.99967e-01,3.22517e-01,9.99999e-01
6.173157594e-01,3.29801e-01,9.99999e-01,9.99999e-01,9.99999e-01,9.99981e-01,3.29807e-01,9.99999e-01
6.204023382e-01,3.37108e-01,9.99999e-01,9.99999e-01,9.99999e-01,9.99984e-01,3.37113e-01,9.99999e-01
6.235043498e-01,3.44408e-01,9.99999e-01,9.99999e-01,9.99999e-01,9.99930e-01,3.44431e-01,9.99999e-01
6.266218716e-01,3.51634e-01,9.99999e-01,9.99999e-01,9.99999e-01,9.99644e-01,3.51760e-01,9.99997e-01
6.297549810e-01,3.59046e-01,9.99999e-01,9.99999e-01,9.99999e-01,9.99869e-01,3.59095e-01,9.99994e-01
6.329037559e-01,3.66338e-01,9.99999e-01,9.99999e-01,9.99999e-01,9.99743e-01,3.66433e-01,9.99995e-01
6.360682746e-01,3.73689e-01,9.99999e-01,9.99999e-01,9.99999e-01,9.99779e-01,3.73772e-01,9.99997e-01
6.392486160e-01,3.81000e-01,9.99999e-01,9.99999e-01,9.99999e-01,9.99715e-01,3.81109e-01,9.99998e-01
6.424448591e-01,3.88290e-01,9.99999e-01,9.99999e-01,9.99999e-01,9.99615e-01,3.88440e-01,9.99997e-01
6.456570834e-01,3.95053e-01,9.99999e-01,9.99999e-01,9.99999e-01,9.98215e-01,3.95764e-01,9.99988e-01
6.488853688e-01,4.02547e-01,9.99999e-01,9.99999e-01,9.99999e-01,9.98712e-01,4.03077e-01,9.99972e-01
6.521297956e-01,4.09829e-01,9.99999e-01,9.99999e-01,9.99999e-01,9.98688e-01,4.10376e-01,9.99976e-01
6.553904446e-01,4.17104e-01,9.99999e-01,9.99999e-01,9.99999e-01,9.98686e-01,4.17660e-01,9.99982e-01
6.586673968e-01,4.24448e-01,9.99999e-01,9.99999e-01,9.99999e-01,9.98881e-01,4.24925e-01,9.99993e-01
6.619607338e-01,4.31900e-01,9.99999e-01,9.99999e-01,9.99999e-01,9.99376e-01,4.32170e-01,9.99998e-01
6.652705375e-01,4.39226e-01,9.99999e-01,9.99999e-01,9.99999e-01,9.99625e-01,4.39391e-01,9.99998e-01
6.685968902e-01,4.46516e-01,9.99999e-01,9.99999e-01,9.99999e-01,9.99840e-01,4.46586e-01,9.99999e-01
6.719398746e-01,4.53718e-01,9.99999e-01,9.99999e-01,9.99999e-01,9.99919e-01,4.53754e-01,9.99999e-01
6.752995740e-01,4.60873e-01,9.99999e-01,9.99999e-01,9.99999e-01,9.99957e-01,4.60892e-01,9.99999e-01
6.786760719e-01,4.67968e-01,9.99999e-01,9.99999e-01,9.99999e-01,9.99935e-01,4.67998e-01,9.99999e-01
6.820694522e-01,4.75018e-01,9.99999e-01,9.99999e-01,9.99999e-01,9.99890e-01,4.75070e-01,9.99998e-01
6.854797995e-01,4.82038e-01,9.99999e-01,9.99999e-01,9.99999e-01,9.99859e-01,4.82106e-01,9.99998e-01
6.889071985e-01,4.88880e-01,9.99999e-01,9.99999e-01,9.99999e-01,9.99545e-01,4.89104e-01,9.99996e-01
6.923517345e-01,4.93277e-01,9.99999e-01,9.99999e-01,9.99999e-01,9.94410e-01,4.96062e-01,9.99973e-01
6.958134932e-01,5.01533e-01,9.99999e-01,9.99999e-01,9.99999e-01,9.97182e-01,5.02979e-01,9.99940e-01
6.992925606e-01,5.08424e-01,9.99999e-01,9.99999e-01,9.99999e-01,9.97248e-01,5.09853e-01,9.99946e-01
7.027890234e-01,5.14927e-01,9.99999e-01,9.99999e-01,9.99999e-01,9.96640e-01,5.16683e-01,9.99959e-01
7.063029686e-01,5.21976e-01,9.99999e-01,9.99999e-01,9.99999e-01,9.97172e-01,5.23466e-01,9.99979e-01
7.098344834e-01,5.28757e-01,9.99999e-01,9.99999e-01,9.99999e-01,9.97287e-01,5.30202e-01,9.99987e-01
7.133836558e-01,5.34901e-01,9.99999e-01,9.99999e-01,9.99999e-01,9.96320e-01,5.36888e-01,9.99975e-01
7.169505741e-01,5.27613e-01,9.99999e-01,9.99999e-01,9.99999e-01,9.70903e-01,5.43525e-01,9.99814e-01
7.205353270e-01,5.42252e-01,9.99999e-01,9.99999e-01,9.99999e-01,9.86037e-01,5.50110e-01,9.99672e-01
7.241380036e-01,5.46417e-01,9.99999e-01,9.99999e-01,9.99999e-01,9.81906e-01,5.56643e-01,9.99717e-01
7.277586936e-01,5.53809e-01,9.99999e-01,9.99999e-01,9.99999e-01,9.83681e-01,5.63121e-01,9.99777e-01
7.313974871e-01,5.59710e-01,9.99999e-01,9.99999e-01,9.99999e-01,9.82827e-01,5.69545e-01,9.99901e-01
7.350544745e-01,5.70461e-01,9.99999e-01,9.99999e-01,9.99999e-01,9.90569e-01,5.75913e-01,9.99961e-01
7.387297469e-01,5.78177e-01,9.99999e-01,9.99999e-01,9.99999e-01,9.93064e-01,5.82225e-01,9.99982e-01
7.424233956e-01,5.86484e-01,9.99999e-01,9.99999e-01,9.99999e-01,9.96613e-01,5.88478e-01,9.99996e-01
7.461355126e-01,5.93450e-01,9.99999e-01,9.99999e-01,9.99999e-01,9.97942e-01,5.94674e-01,9.99998e-01
7.498661902e-01,6.00237e-01,9.99999e-01,9.99999e-01,9.99999e-01,9.99045e-01,6.00810e-01,9.99999e-01
7.536155211e-01,6.06602e-01,9.99999e-01,9.99999e-01,9.99999e-01,9.99529e-01,6.06887e-01,9.99999e-01
7.573835987e-01,6.12755e-01,9.99999e-01,9.99999e-01,9.99999e-01,9.99757e-01,6.12904e-01,9.99999e-01
7.611705167e-01,6.18766e-01,9.99999e-01,9.99999e-01,9.99999e-01,9.99849e-01,6.18859e-01,9.99999e-01
7.649763693e-01,6.24694e-01,9.99999e-01,9.99999e-01,9.99999e-01,9.99905e-01,6.24753e-01,9.99999e-01
7.688012511e-01,6.30543e-01,9.99999e-01,9.99999e-01,9.99999e-01,9.99933e-01,6.30585e-01,9.99999e-01
7.726452574e-01,6.36320e-01,9.99999e-01,9.99999e-01,9.99999e-01,9.99945e-01,6.36354e-01,9.99999e-01
7.765084837e-01,6.42011e-01,9.99999e-01,9.99999e-01,9.99999e-01,9.99921e-01,6.42061e-01,9.99999e-01
7.803910261e-01,6.33066e-01,9.99999e-01,9.99999e-01,9.77721e-01,9.99662e-01,6.47705e-01,9.99999e-01
7.842929812e-01,5.95967e-01,9.99999e-01,9.99999e-01,9.13306e-01,9.98821e-01,6.53286e-01,9.99997e-01
7.882144461e-01,5.95694e-01,9.99999e-01,9.99999e-01,9.06341e-01,9.97602e-01,6.58802e-01,9.99983e-01
7.921555184e-01,6.26818e-01,9.99999e-01,9.99999e-01,9.44882e-01,9.98694e-01,6.64256e-01,9.99970e-01
7.961162960e-01,6.43515e-01,9.99999e-01,9.99999e-01,9.63251e-01,9.97655e-01,6.69645e-01,9.99972e-01
8.000968774e-01,6.59584e-01,9.99999e-01,9.99999e-01,9.79858e-01,9.97314e-01,6.74970e-01,9.99970e-01
8.040973618e-01,6.71317e-01,9.99999e-01,9.99999e-01,9.89577e-01,9.97308e-01,6.80231e-01,9.99977e-01
8.081178486e-01,6.77941e-01,9.99999e-01,9.99999e-01,9.95178e-01,9.93884e-01,6.85428e-01,9.99977e-01
8.121584379e-01,6.72087e-01,9.99999e-01,9.99999e-01,9.98530e-01,9.74752e-01,6.90561e-01,9.99914e-01
8.162192301e-01,6.74664e-01,9.99999e-01,9.99999e-01,9.99674e-01,9.70480e-01,6.95630e-01,9.99681e-01
8.203003262e-01,6.89686e-01,9.99999e-01,9.99999e-01,9.99995e-01,9.84743e-01,7.00635e-01,9.99626e-01
8.244018279e-01,6.90864e-01,9.99999e-01,9.99999e-01,9.99999e-01,9.79438e-01,7.05576e-01,9.99703e-01
8.285238370e-01,6.97611e-01,9.99999e-01,9.99999e-01,9.99999e-01,9.82152e-01,7.10453e-01,9.99766e-01
8.326664562e-01,7.02363e-01,9.99999e-01,9.99999e-01,9.99999e-01,9.82053e-01,7.15266e-01,9.99903e-01
8.368297885e-01,7.10787e-01,9.99999e-01,9.99999e-01,9.99999e-01,9.87202e-01,7.20016e-01,9.99977e-01
8.410139374e-01,7.19177e-01,9.99999e-01,9.99999e-01,9.99999e-01,9.92387e-01,7.24703e-01,9.99986e-01
8.452190071e-01,7.26601e-01,9.99999e-01,9.99999e-01,9.99999e-01,9.96269e-01,7.29327e-01,9.99991e-01
8.494451021e-01,7.32287e-01,9.99999e-01,9.99999e-01,9.99999e-01,9.97823e-01,7.33888e-01,9.99993e-01
8.536923276e-01,7.37438e-01,9.99999e-01,9.99999e-01,9.99999e-01,9.98718e-01,7.38387e-01,9.99995e-01
8.579607893e-01,7.42235e-01,9.99999e-01,9.99999e-01,9.99999e-01,9.99207e-01,7.42824e-01,9.99998e-01
8.622505932e-01,7.46824e-01,9.99999e-01,9.99999e-01,9.99999e-01,9.99497e-01,7.47199e-01,9.99999e-01
8.665618462e-01,7.09276e-01,9.99999e-01,9.99999e-01,9.44083e-01,9.99687e-01,7.51512e-01,9.99999e-01
8.708946554e-01,5.97451e-01,9.99999e-01,9.99999e-01,7.90800e-01,9.99641e-01,7.55765e-01,9.99999e-01
8.752491287e-01,6.30549e-01,9.99999e-01,9.99999e-01,8.30106e-01,9.99520e-01,7.59957e-01,9.99998e-01
8.796253743e-01,6.90027e-01,9.99999e-01,9.99999e-01,9.03663e-01,9.99333e-01,7.64088e-01,9.99998e-01
8.840235012e-01,7.28456e-01,9.99999e-01,9.99999e-01,9.49031e-01,9.99239e-01,7.68160e-01,9.99994e-01
8.884436187e-01,7.54367e-01,9.99999e-01,9.99999e-01,9.79725e-01,9.97153e-01,7.72173e-01,9.99986e-01
8.928858368e-01,7.47246e-01,9.99999e-01,9.99999e-01,9.91729e-01,9.70848e-01,7.76126e-01,9.99923e-01
8.973502660e-01,7.38937e-01,9.99999e-01,9.99999e-01,9.98000e-01,9.49570e-01,7.80021e-01,9.99612e-01
9.018370173e-01,7.63015e-01,9.99999e-01,9.99999e-01,9.99780e-01,9.74211e-01,7.83858e-01,9.99391e-01
9.063462024e-01,7.64466e-01,9.99999e-01,9.99999e-01,9.94072e-01,9.76781e-01,7.87638e-01,9.99464e-01
9.108779334e-01,7.52759e-01,9.99999e-01,9.99999e-01,9.86922e-01,9.64267e-01,7.91361e-01,9.99444e-01
9.154323231e-01,7.60314e-01,9.99999e-01,9.99999e-01,9.96965e-01,9.59650e-01,7.95027e-01,9.99540e-01
9.200094847e-01,7.38220e-01,9.99999e-01,9.99999e-01,9.53808e-01,9.68345e-01,7.98637e-01,9.99742e-01
9.246095321e-01,7.13988e-01,9.99999e-01,9.99999e-01,9.37425e-01,9.49016e-01,8.02192e-01,9.99703e-01
9.292325798e-01,5.42574e-01,9.99999e-01,9.99999e-01,9.49702e-01,7.07489e-01,8.05692e-01,9.98570e-01
9.338787427e-01,4.94326e-01,9.99999e-01,9.99999e-01,9.52147e-01,6.42742e-01,8.09138e-01,9.94844e-01
9.385481364e-01,6.53618e-01,9.99999e-01,9.99999e-01,9.64643e-01,8.37554e-01,8.12530e-01,9.94337e-01
9.432408771e-01,6.17563e-01,9.99999e-01,9.99999e-01,9.78302e-01,7.76914e-01,8.15868e-01,9.95112e-01
9.479570815e-01,5.67917e-01,9.99999e-01,9.99999e-01,9.88783e-01,7.03662e-01,8.19154e-01,9.96020e-01
9.526968669e-01,6.30875e-01,9.99999e-01,9.99999e-01,9.94591e-01,7.72929e-01,8.22388e-01,9.97570e-01
9.574603512e-01,6.50763e-01,9.99999e-01,9.99999e-01,9.97687e-01,7.90985e-01,8.25571e-01,9.98764e-01
9.622476530e-01,6.84662e-01,9.99999e-01,9.99999e-01,9.99279e-01,8.27465e-01,8.28703e-01,9.99145e-01
9.670588912e-01,7.45149e-01,9.99999e-01,9.99999e-01,9.99784e-01,8.96532e-01,8.31784e-01,9.99440e-01
9.718941857e-01,7.79491e-01,9.99999e-01,9.99999e-01,9.99984e-01,9.34141e-01,8.34816e-01,9.99570e-01
9.767536566e-01,7.91469e-01,9.99999e-01,9.99999e-01,9.99999e-01,9.45011e-01,8.37798e-01,9.99670e-01
9.816374249e-01,8.06286e-01,9.99999e-01,9.99999e-01,9.99999e-01,9.59137e-01,8.40732e-01,9.99885e-01
9.865456120e-01,8.21916e-01,9.99999e-01,9.99999e-01,9.99999e-01,9.74297e-01,8.43618e-01,9.99975e-01
9.914783401e-01,8.32936e-01,9.99999e-01,9.99999e-01,9.99999e-01,9.84033e-01,8.46456e-01,9.99992e-01
9.964357318e-01,8.41837e-01,9.99999e-01,9.99999e-01,9.99999e-01,9.91277e-01,8.49248e-01,9.99995e-01
1.001417910e+00,8.47532e-01,9.99999e-01,9.99999e-01,9.99999e-01,9.94769e-01,8.51993e-01,9.99993e-01
1.006425000e+00,8.52128e-01,9.99999e-01,9.99999e-01,9.99999e-01,9.97006e-01,8.54693e-01,9.99991e-01
1.011457125e+00,8.55754e-01,9.99999e-01,9.99999e-01,9.99999e-01,9.98147e-01,8.57348e-01,9.99991e-01
1.016514411e+00,8.58870e-01,9.99999e-01,9.99999e-01,9.99999e-01,9.98739e-01,8.59958e-01,9.99994e-01
1.021596983e+00,8.61622e-01,9.99999e-01,9.99999e-01,9.99962e-01,9.98994e-01,8.62525e-01,9.99994e-01
1.026704968e+00,8.62361e-01,9.99999e-01,9.99999e-01,9.97678e-01,9.99215e-01,8.65048e-01,9.99996e-01
1.031838492e+00,8.36992e-01,9.99999e-01,9.99999e-01,9.65335e-01,9.99431e-01,8.67529e-01,9.99998e-01
1.036997685e+00,2.07840e-01,9.99999e-01,9.99999e-01,2.38973e-01,9.99660e-01,8.69967e-01,9.99999e-01
1.042182673e+00,2.36145e-01,9.99999e-01,9.99999e-01,2.70797e-01,9.99593e-01,8.72364e-01,9.99999e-01
1.047393587e+00,2.26306e-01,9.99999e-01,9.99999e-01,2.58843e-01,9.99462e-01,8.74720e-01,9.99999e-01
1.052630555e+00,2.31934e-02,9.99999e-01,9.99999e-01,2.64604e-02,9.99261e-01,8.77036e-01,9.99999e-01
1.057893707e+00,4.79880e-02,9.99999e-01,9.99999e-01,5.46256e-02,9.98764e-01,8.79312e-01,9.99999e-01
1.063183176e+00,1.05685e-01,9.99999e-01,9.99999e-01,1.20077e-01,9.97970e-01,8.81549e-01,9.99998e-01
1.068499092e+00,2.09632e-01,9.99999e-01,9.99999e-01,2.37929e-01,9.96610e-01,8.83747e-01,9.99997e-01
1.073841587e+00,3.58538e-01,9.99999e-01,9.99999e-01,4.06167e-01,9.96021e-01,8.85907e-01,9.99994e-01
