#,Wave/freq,Total,N2,O2,CO2,H2O,Rayleigh,CIA
4.000000000e-01,6.09122e-07,9.99999e-01,9.99999e-01,9.99999e-01,9.99972e-01,6.09138e-07,9.99999e-01
4.020000000e-01,8.08348e-07,9.99999e-01,9.99999e-01,9.99999e-01,9.99982e-01,8.08362e-07,9.99999e-01
4.040100000e-01,1.06646e-06,9.99999e-01,9.99999e-01,9.99999e-01,9.99992e-01,1.06646e-06,9.99999e-01
4.060300500e-01,1.39929e-06,9.99999e-01,9.99999e-01,9.99999e-01,9.99997e-01,1.39929e-06,9.99999e-01
4.080602003e-01,1.82617e-06,9.99999e-01,9.99999e-01,9.99999e-01,9.99998e-01,1.82617e-06,9.99999e-01
4.101005013e-01,2.37077e-06,9.99999e-01,9.99999e-01,9.99999e-01,9.99999e-01,2.37077e-06,9.99999e-01
4.121510038e-01,3.06196e-06,9.99999e-01,9.99999e-01,9.99999e-01,9.99998e-01,3.06196e-06,9.99999e-01
4.142117588e-01,3.93470e-06,9.99999e-01,9.99999e-01,9.99999e-01,9.99991e-01,3.93473e-06,9.99999e-01
4.162828176e-01,5.03112e-06,9.99999e-01,9.99999e-01,9.99999e-01,9.99965e-01,5.03129e-06,9.99999e-01
4.183642317e-01,6.40214e-06,9.99999e-01,9.99999e-01,9.99999e-01,9.99979e-01,6.40227e-06,9.99999e-01
4.204560528e-01,8.10805e-06,9.99999e-01,9.99999e-01,9.99999e-01,9.99987e-01,8.10815e-06,9.99999e-01
4.225583331e-01,1.02207e-05,9.99999e-01,9.99999e-01,9.99999e-01,9.99994e-01,1.02208e-05,9.99999e-01
4.246711247e-01,1.28250e-05,9.99999e-01,9.99999e-01,9.99999e-01,9.99995e-01,1.28250e-05,9.99999e-01
4.267944804e-01,1.60208e-05,9.99999e-01,9.99999e-01,9.99999e-01,9.99994e-01,1.60209e-05,9.99999e-01
4.289284528e-01,1.99252e-05,9.99999e-01,9.99999e-01,9.99999e-01,9.99995e-01,1.99253e-05,9.99999e-01
4.310730950e-01,2.46748e-05,9.99999e-01,9.99999e-01,9.99999e-01,9.99997e-01,2.46748e-05,9.99999e-01
4.332284605e-01,3.04276e-05,9.99999e-01,9.99999e-01,9.99999e-01,9.99999e-01,3.04276e-05,9.99999e-01
4.353946028e-01,3.73667e-05,9.99999e-01,9.99999e-01,9.99999e-01,9.99999e-01,3.73667e-05,9.99999e-01
4.375715758e-01,4.57023e-05,9.99999e-01,9.99999e-01,9.99999e-01,9.99996e-01,4.57024e-05,9.99999e-01
4.397594337e-01,5.56741e-05,9.99999e-01,9.99999e-01,9.99999e-01,9.99969e-01,5.56758e-05,9.99999e-01
4.419582309e-01,6.75511e-05,9.99999e-01,9.99999e-01,9.99999e-01,9.99844e-01,6.75616e-05,9.99999e-01
4.441680220e-01,8.16625e-05,9.99999e-01,9.99999e-01,9.99999e-01,9.99881e-01,8.16721e-05,9.99999e-01
4.463888621e-01,9.83483e-05,9.99999e-01,9.99999e-01,9.99999e-01,9.99876e-01,9.83604e-05,9.99999e-01
4.486208064e-01,1.18015e-04,9.99999e-01,9.99999e-01,9.99999e-01,9.99923e-01,1.18024e-04,9.99999e-01
4.508639105e-01,1.41106e-04,9.99999e-01,9.99999e-01,9.99999e-01,9.99963e-01,1.41111e-04,9.99999e-01
4.531182300e-01,1.68116e-04,9.99999e-01,9.99999e-01,9.99999e-01,9.99985e-01,1.68119e-04,9.99999e-01
4.553838212e-01,1.99602e-04,9.99999e-01,9.99999e-01,9.99999e-01,9.99989e-01,1.99604e-04,9.99999e-01
4.576607403e-01,2.36183e-04,9.99999e-01,9.99999e-01,9.99999e-01,9.99995e-01,2.36184e-04,9.99999e-01
4.599490440e-01,2.78539e-04,9.99999e-01,9.99999e-01,9.99999e-01,9.99996e-01,2.78540e-04,9.99999e-01
4.622487892e-01,3.27423e-04,9.99999e-01,9.99999e-01,9.99999e-01,9.99998e-01,3.27424e-04,9.99999e-01
4.645600332e-01,3.83658e-04,9.99999e-01,9.99999e-01,9.99999e-01,9.99997e-01,3.83659e-04,9.99999e-01
4.668828333e-01,4.48131e-04,9.99999e-01,9.99999e-01,9.99999e-01,9.99962e-01,4.48147e-04,9.99999e-01
4.692172475e-01,5.21831e-04,9.99999e-01,9.99999e-01,9.99999e-01,9.99922e-01,5.21871e-04,9.99999e-01
4.715633337e-01,6.05867e-04,9.99999e-01,9.99999e-01,9.99999e-01,9.99948e-01,6.05898e-04,9.99999e-01
4.739211504e-01,7.01349e-04,9.99999e-01,9.99999e-01,9.99999e-01,9.99951e-01,7.01383e-04,9.99999e-01
4.762907561e-01,8.09552e-04,9.99999e-01,9.99999e-01,9.99999e-01,9.99974e-01,8.09572e-04,9.99999e-01
4.786722099e-01,9.31795e-04,9.99999e-01,9.99999e-01,9.99999e-01,9.99989e-01,9.31805e-04,9.99999e-01
4.810655710e-01,1.06952e-03,9.99999e-01,9.99999e-01,9.99999e-01,9.99996e-01,1.06952e-03,9.99999e-01
4.834708988e-01,1.22421e-03,9.99999e-01,9.99999e-01,9.99999e-01,9.99968e-01,1.22425e-03,9.99999e-01
4.858882533e-01,1.39755e-03,9.99999e-01,9.99999e-01,9.99999e-01,9.99944e-01,1.39763e-03,9.99999e-01
4.883176946e-01,1.59132e-03,9.99999e-01,9.99999e-01,9.99999e-01,9.99953e-01,1.59139e-03,9.99999e-01
4.907592831e-01,1.80730e-03,9.99999e-01,9.99999e-01,9.99999e-01,9.99958e-01,1.80738e-03,9.99999e-01
4.932130795e-01,2.04746e-03,9.99999e-01,9.99999e-01,9.99999e-01,9.99970e-01,2.04752e-03,9.99999e-01
4.956791449e-01,2.31383e-03,9.99999e-01,9.99999e-01,9.99999e-01,9.99983e-01,2.31387e-03,9.99999e-01
4.981575406e-01,2.60835e-03,9.99999e-01,9.99999e-01,9.99999e-01,9.99921e-01,2.60855e-03,9.99999e-01
5.006483283e-01,2.93320e-03,9.99999e-01,9.99999e-01,9.99999e-01,9.99794e-01,2.93381e-03,9.99998e-01
5.031515699e-01,3.28856e-03,9.99999e-01,9.99999e-01,9.99999e-01,9.98972e-01,3.29197e-03,9.99988e-01
5.056673278e-01,3.68343e-03,9.99999e-01,9.99999e-01,9.99999e-01,9.99460e-01,3.68547e-03,9.99987e-01
5.081956644e-01,4.11398e-03,9.99999e-01,9.99999e-01,9.99999e-01,9.99319e-01,4.11681e-03,9.99992e-01
5.107366428e-01,4.58647e-03,9.99999e-01,9.99999e-01,9.99999e-01,9.99540e-01,4.58858e-03,9.99998e-01
5.132903260e-01,5.10214e-03,9.99999e-01,9.99999e-01,9.99999e-01,9.99738e-01,5.10348e-03,9.99999e-01
5.158567776e-01,5.66362e-03,9.99999e-01,9.99999e-01,9.99999e-01,9.99889e-01,5.66424e-03,9.99999e-01
5.184360615e-01,6.27341e-03,9.99999e-01,9.99999e-01,9.99999e-01,9.99955e-01,6.27368e-03,9.99999e-01
5.210282418e-01,6.93458e-03,9.99999e-01,9.99999e-01,9.99999e-01,9.99982e-01,6.93469e-03,9.99999e-01
5.236333830e-01,7.64967e-03,9.99999e-01,9.99999e-01,9.99999e-01,9.99932e-01,7.65019e-03,9.99999e-01
5.262515499e-01,8.42280e-03,9.99999e-01,9.99999e-01,9.99999e-01,9.99957e-01,8.42316e-03,9.99998e-01
5.288828077e-01,9.25625e-03,9.99999e-01,9.99999e-01,9.99999e-01,9.99960e-01,9.25661e-03,9.99999e-01
5.315272217e-01,1.01532e-02,9.99999e-01,9.99999e-01,9.99999e-01,9.99966e-01,1.01536e-02,9.99999e-01
5.341848578e-01,1.11169e-02,9.99999e-01,9.99999e-01,9.99999e-01,9.99977e-01,1.11172e-02,9.99999e-01
5.368557821e-01,1.21494e-02,9.99999e-01,9.99999e-01,9.99999e-01,9.99921e-01,1.21504e-02,9.99999e-01
5.395400610e-01,1.32525e-02,9.99999e-01,9.99999e-01,9.99999e-01,9.99714e-01,1.32564e-02,9.99996e-01
5.422377613e-01,1.44328e-02,9.99999e-01,9.99999e-01,9.99999e-01,9.99638e-01,1.44381e-02,9.99992e-01
5.449489501e-01,1.56933e-02,9.99999e-01,9.99999e-01,9.99999e-01,9.99660e-01,1.56988e-02,9.99992e-01
5.476736949e-01,1.70361e-02,9.99999e-01,9.99999e-01,9.99999e-01,9.99702e-01,1.70412e-02,9.99996e-01
5.504120634e-01,1.84646e-02,9.99999e-01,9.99999e-01,9.99999e-01,9.99783e-01,1.84686e-02,9.99998e-01
5.531641237e-01,1.99815e-02,9.99999e-01,9.99999e-01,9.99999e-01,9.99891e-01,1.99837e-02,9.99999e-01
5.559299443e-01,2.15883e-02,9.99999e-01,9.99999e-01,9.99999e-01,9.99947e-01,2.15895e-02,9.99999e-01
5.587095940e-01,2.32879e-02,9.99999e-01,9.99999e-01,9.99999e-01,9.99966e-01,2.32887e-02,9.99999e-01
5.615031420e-01,2.50831e-02,9.99999e-01,9.99999e-01,9.99999e-01,9.99962e-01,2.50840e-02,9.99999e-01
5.643106577e-01,2.69771e-02,9.99999e-01,9.99999e-01,9.99999e-01,9.99957e-01,2.69782e-02,9.99999e-01
5.671322110e-01,2.89586e-02,9.99999e-01,9.99999e-01,9.99999e-01,9.99481e-01,2.89737e-02,9.99995e-01
5.699678720e-01,3.10561e-02,9.99999e-01,9.99999e-01,9.99999e-01,9.99467e-01,3.10730e-02,9.99985e-01
5.728177114e-01,3.32594e-02,9.99999e-01,9.99999e-01,9.99999e-01,9.99437e-01,3.32784e-02,9.99988e-01
5.756818000e-01,3.55736e-02,9.99999e-01,9.99999e-01,9.99999e-01,9.99485e-01,3.55921e-02,9.99992e-01
5.785602090e-01,3.79991e-02,9.99999e-01,9.99999e-01,9.99999e-01,9.99552e-01,3.80162e-02,9.99997e-01
5.814530100e-01,4.05342e-02,9.99999e-01,9.99999e-01,9.99999e-01,9.99548e-01,4.05525e-02,9.99998e-01
5.843602750e-01,4.31793e-02,9.99999e-01,9.99999e-01,9.99999e-01,9.99457e-01,4.32029e-02,9.99996e-01
5.872820764e-01,4.57530e-02,9.99999e-01,9.99999e-01,9.99999e-01,9.95335e-01,4.59689e-02,9.99966e-01
5.902184868e-01,4.85750e-02,9.99999e-01,9.99999e-01,9.99999e-01,9.94413e-01,4.88522e-02,9.99910e-01
5.931695792e-01,5.16440e-02,9.99999e-01,9.99999e-01,9.99999e-01,9.96036e-01,5.18540e-02,9.99914e-01
5.961354271e-01,5.47345e-02,9.99999e-01,9.99999e-01,9.99999e-01,9.95667e-01,5.49754e-02,9.99950e-01
5.991161043e-01,5.80328e-02,9.99999e-01,9.99999e-01,9.99999e-01,9.96843e-01,5.82174e-02,9.99984e-01
6.021116848e-01,6.14707e-02,9.99999e-01,9.99999e-01,9.99999e-01,9.98210e-01,6.15809e-02,9.99997e-01
6.051222432e-01,6.50077e-02,9.99999e-01,9.99999e-01,9.99999e-01,9.99094e-01,6.50665e-02,9.99999e-01
6.081478544e-01,6.86479e-02,9.99999e-01,9.99999e-01,9.99999e-01,9.99608e-01,6.86747e-02,9.99999e-01
6.111885937e-01,7.23938e-02,9.99999e-01,9.99999e-01,9.99999e-01,9.99834e-01,7.24057e-02,9.99999e-01
6.142445367e-01,7.62541e-02,9.99999e-01,9.99999e-01,9.99999e-01,9.99925e-01,7.62597e-02,9.99999e-01
6.173157594e-01,8.02334e-02,9.99999e-01,9.99999e-01,9.99999e-01,9.99958e-01,8.02366e-02,9.99999e-01
6.204023382e-01,8.43333e-02,9.99999e-01,9.99999e-01,9.99999e-01,9.99964e-01,8.43362e-02,9.99999e-01
6.235043498e-01,8.85442e-02,9.99999e-01,9.99999e-01,9.99999e-01,9.99843e-01,8.85580e-02,9.99999e-01
6.266218716e-01,9.28260e-02,9.99999e-01,9.99999e-01,9.99999e-01,9.99192e-01,9.29015e-02,9.99993e-01
6.297549810e-01,9.73359e-02,9.99999e-01,9.99999e-01,9.99999e-01,9.99703e-01,9.73659e-02,9.99988e-01
6.329037559e-01,1.01890e-01,9.99999e-01,9.99999e-01,9.99999e-01,9.99416e-01,1.01950e-01,9.99990e-01
6.360682746e-01,1.06600e-01,9.99999e-01,9.99999e-01,9.99999e-01,9.99500e-01,1.06653e-01,9.99994e-01
6.392486160e-01,1.11402e-01,9.99999e-01,9.99999e-01,9.99999e-01,9.99354e-01,1.11474e-01,9.99997e-01
6.424448591e-01,1.16309e-01,9.99999e-01,9.99999e-01,9.99999e-01,9.99126e-01,1.16411e-01,9.99995e-01
6.456570834e-01,1.20969e-01,9.99999e-01,9.99999e-01,9.99999e-01,9.95951e-01,1.21463e-01,9.99975e-01
6.488853688e-01,1.26250e-01,9.99999e-01,9.99999e-01,9.99999e-01,9.97075e-01,1.26628e-01,9.99937e-01
6.521297956e-01,1.31504e-01,9.99999e-01,9.99999e-01,9.99999e-01,9.97020e-01,1.31903e-01,9.99948e-01
6.553904446e-01,1.36873e-01,9.99999e-01,9.99999e-01,9.99999e-01,9.97016e-01,1.37288e-01,9.99961e-01
6.586673968e-01,1.42415e-01,9.99999e-01,9.99999e-01,9.99999e-01,9.97458e-01,1.42780e-01,9.99986e-01
6.619607338e-01,1.48166e-01,9.99999e-01,9.99999e-01,9.99999e-01,9.98583e-01,1.48376e-01,9.99996e-01
6.652705375e-01,1.53944e-01,9.99999e-01,9.99999e-01,9.99999e-01,9.99149e-01,1.54075e-01,9.99998e-01
6.685968902e-01,1.59816e-01,9.99999e-01,9.99999e-01,9.99999e-01,9.99638e-01,1.59874e-01,9.99999e-01
6.719398746e-01,1.65739e-01,9.99999e-01,9.99999e-01,9.99999e-01,9.99816e-01,1.65769e-01,9.99999e-01
6.752995740e-01,1.71743e-01,9.99999e-01,9.99999e-01,9.99999e-01,9.99902e-01,1.71759e-01,9.99999e-01
6.786760719e-01,1.77816e-01,9.99999e-01,9.99999e-01,9.99999e-01,9.99854e-01,1.77841e-01,9.99999e-01
6.820694522e-01,1.83966e-01,9.99999e-01,9.99999e-01,9.99999e-01,9.99750e-01,1.84012e-01,9.99998e-01
6.854797995e-01,1.90208e-01,9.99999e-01,9.99999e-01,9.99999e-01,9.99681e-01,1.90269e-01,9.99996e-01
6.889071985e-01,1.96453e-01,9.99999e-01,9.99999e-01,9.99999e-01,9.99215e-01,1.96608e-01,9.99992e-01
6.923517345e-01,2.00458e-01,9.99999e-01,9.99999e-01,9.99999e-01,9.87401e-01,2.03028e-01,9.99939e-01
6.958134932e-01,2.08155e-01,9.99999e-01,9.99999e-01,9.99999e-01,9.93600e-01,2.09523e-01,9.99866e-01
6.992925606e-01,2.14719e-01,9.99999e-01,9.99999e-01,9.99999e-01,9.93760e-01,2.16093e-01,9.99879e-01
7.027890234e-01,2.21014e-01,9.99999e-01,9.99999e-01,9.99999e-01,9.92378e-01,2.22732e-01,9.99907e-01
7.063029686e-01,2.27955e-01,9.99999e-01,9.99999e-01,9.99999e-01,9.93582e-01,2.29438e-01,9.99953e-01
7.098344834e-01,2.34747e-01,9.99999e-01,9.99999e-01,9.99999e-01,9.93841e-01,2.36207e-01,9.99972e-01
7.133836558e-01,2.41000e-01,9.99999e-01,9.99999e-01,9.99999e-01,9.91671e-01,2.43037e-01,9.99945e-01
7.169505741e-01,2.33684e-01,9.99999e-01,9.99999e-01,9.99999e-01,9.35414e-01,2.49924e-01,9.99578e-01
7.205353270e-01,2.48609e-01,9.99999e-01,9.99999e-01,9.99999e-01,9.68585e-01,2.56863e-01,9.99256e-01
7.241380036e-01,2.52995e-01,9.99999e-01,9.99999e-01,9.99999e-01,9.59464e-01,2.63853e-01,9.99357e-01
7.277586936e-01,2.60837e-01,9.99999e-01,9.99999e-01,9.99999e-01,9.63397e-01,2.70889e-01,9.99474e-01
7.313974871e-01,2.67180e-01,9.99999e-01,9.99999e-01,9.99999e-01,9.61425e-01,2.77968e-01,9.99753e-01
7.350544745e-01,2.78991e-01,9.99999e-01,9.99999e-01,9.99999e-01,9.78700e-01,2.85087e-01,9.99914e-01
7.387297469e-01,2.87643e-01,9.99999e-01,9.99999e-01,9.99999e-01,9.84298e-01,2.92242e-01,9.99960e-01
7.424233956e-01,2.97126e-01,9.99999e-01,9.99999e-01,9.99999e-01,9.92310e-01,2.99430e-01,9.99992e-01
7.461355126e-01,3.05215e-01,9.99999e-01,9.99999e-01,9.99999e-01,9.95325e-01,3.06648e-01,9.99998e-01
7.498661902e-01,3.13211e-01,9.99999e-01,9.99999e-01,9.99999e-01,9.97829e-01,3.13892e-01,9.99999e-01
7.536155211e-01,3.20816e-01,9.99999e-01,9.99999e-01,9.99999e-01,9.98930e-01,3.21159e-01,9.99999e-01
7.573835987e-01,3.28265e-01,9.99999e-01,9.99999e-01,9.99999e-01,9.99449e-01,3.28446e-01,9.99999e-01
7.611705167e-01,3.35634e-01,9.99999e-01,9.99999e-01,9.99999e-01,9.99657e-01,3.35749e-01,9.99999e-01
7.649763693e-01,3.42992e-01,9.99999e-01,9.99999e-01,9.99999e-01,9.99784e-01,3.43066e-01,9.99999e-01
7.688012511e-01,3.50340e-01,9.99999e-01,9.99999e-01,9.99999e-01,9.99849e-01,3.50392e-01,9.99999e-01
7.726452574e-01,3.57682e-01,9.99999e-01,9.99999e-01,9.99999e-01,9.99876e-01,3.57726e-01,9.99999e-01
7.765084837e-01,3.65000e-01,9.99999e-01,9.99999e-01,9.99999e-01,9.99822e-01,3.65064e-01,9.99999e-01
7.803910261e-01,3.54875e-01,9.99999e-01,9.99999e-01,9.53630e-01,9.99233e-01,3.72403e-01,9.99998e-01
7.842929812e-01,3.09622e-01,9.99999e-01,9.99999e-01,8.17405e-01,9.97326e-01,3.79741e-01,9.99994e-01
7.882144461e-01,3.09876e-01,9.99999e-01,9.99999e-01,8.04745e-01,9.94556e-01,3.87073e-01,9.99962e-01
7.921555184e-01,3.45980e-01,9.99999e-01,9.99999e-01,8.79820e-01,9.97031e-01,3.94399e-01,9.99934e-01
7.961162960e-01,3.67001e-01,9.99999e-01,9.99999e-01,9.18472e-01,9.94682e-01,4.01714e-01,9.99937e-01
8.000968774e-01,3.88143e-01,9.99999e-01,9.99999e-01,9.54827e-01,9.93904e-01,4.09016e-01,9.99933e-01
8.040973618e-01,4.04003e-01,9.99999e-01,9.99999e-01,9.76450e-01,9.93892e-01,4.16303e-01,9.99949e-01
8.081178486e-01,4.13139e-01,9.99999e-01,9.99999e-01,9.89066e-01,9.86175e-01,4.23572e-01,9.99948e-01
8.121584379e-01,4.05158e-01,9.99999e-01,9.99999e-01,9.96655e-01,9.43729e-01,4.30820e-01,9.99807e-01
8.162192301e-01,4.08702e-01,9.99999e-01,9.99999e-01,9.99259e-01,9.34360e-01,4.38046e-01,9.99276e-01
8.203003262e-01,4.29777e-01,9.99999e-01,9.99999e-01,9.99989e-01,9.66082e-01,4.45246e-01,9.99152e-01
8.244018279e-01,4.31492e-01,9.99999e-01,9.99999e-01,9.99999e-01,9.54385e-01,4.52420e-01,9.99325e-01
8.285238370e-01,4.40938e-01,9.99999e-01,9.99999e-01,9.99999e-01,9.59979e-01,4.59563e-01,9.99470e-01
8.326664562e-01,4.47800e-01,9.99999e-01,9.99999e-01,9.99999e-01,9.59762e-01,4.66675e-01,9.99780e-01
8.368297885e-01,4.60065e-01,9.99999e-01,9.99999e-01,9.99999e-01,9.71154e-01,4.73754e-01,9.99949e-01
8.410139374e-01,4.72501e-01,9.99999e-01,9.99999e-01,9.99999e-01,9.82774e-01,4.80796e-01,9.99970e-01
8.452190071e-01,4.83663e-01,9.99999e-01,9.99999e-01,9.99999e-01,9.91532e-01,4.87802e-01,9.99982e-01
8.494451021e-01,4.92315e-01,9.99999e-01,9.99999e-01,9.99999e-01,9.95057e-01,4.94768e-01,9.99985e-01
8.536923276e-01,5.00227e-01,9.99999e-01,9.99999e-01,9.99999e-01,9.97086e-01,5.01693e-01,9.99990e-01
8.579607893e-01,5.07658e-01,9.99999e-01,9.99999e-01,9.99999e-01,9.98198e-01,5.08575e-01,9.99997e-01
8.622505932e-01,5.14824e-01,9.99999e-01,9.99999e-01,9.99999e-01,9.98858e-01,5.15412e-01,9.99999e-01
8.665618462e-01,4.73526e-01,9.99999e-01,9.99999e-01,9.07395e-01,9.99290e-01,5.22204e-01,9.99999e-01
8.708946554e-01,3.16783e-01,9.99999e-01,9.99999e-01,5.99356e-01,9.99185e-01,5.28949e-01,9.99999e-01
8.752491287e-01,3.54022e-01,9.99999e-01,9.99999e-01,6.61619e-01,9.98911e-01,5.35645e-01,9.99998e-01
8.796253743e-01,4.31160e-01,9.99999e-01,9.99999e-01,7.96232e-01,9.98487e-01,5.42291e-01,9.99996e-01
8.840235012e-01,4.86696e-01,9.99999e-01,9.99999e-01,8.88210e-01,9.98273e-01,5.48886e-01,9.99989e-01
8.884436187e-01,5.26788e-01,9.99999e-01,9.99999e-01,9.54521e-01,9.93569e-01,5.55428e-01,9.99969e-01
8.928858368e-01,5.15762e-01,9.99999e-01,9.99999e-01,9.81284e-01,9.35319e-01,5.61917e-01,9.99827e-01
8.973502660e-01,5.02977e-01,9.99999e-01,9.99999e-01,9.95453e-01,8.89689e-01,5.68351e-01,9.99119e-01
9.018370173e-01,5.40761e-01,9.99999e-01,9.99999e-01,9.99500e-01,9.42650e-01,5.74730e-01,9.98616e-01
9.063462024e-01,5.43333e-01,9.99999e-01,9.99999e-01,9.86700e-01,9.48311e-01,5.81052e-01,9.98784e-01
9.108779334e-01,5.24605e-01,9.99999e-01,9.99999e-01,9.70530e-01,9.21059e-01,5.87316e-01,9.98736e-01
9.154323231e-01,5.36515e-01,9.99999e-01,9.99999e-01,9.93102e-01,9.10999e-01,5.93523e-01,9.98955e-01
9.200094847e-01,5.05758e-01,9.99999e-01,9.99999e-01,9.03059e-01,9.29838e-01,5.99670e-01,9.99415e-01
9.246095321e-01,4.67170e-01,9.99999e-01,9.99999e-01,8.63748e-01,8.90368e-01,6.05758e-01,9.99326e-01
9.292325798e-01,2.58940e-01,9.99999e-01,9.99999e-01,8.90544e-01,4.69447e-01,6.11786e-01,9.96753e-01
9.338787427e-01,2.11897e-01,9.99999e-01,9.99999e-01,8.95036e-01,3.82244e-01,6.17753e-01,9.88314e-01
9.385481364e-01,3.87151e-01,9.99999e-01,9.99999e-01,9.21591e-01,6.78250e-01,6.23658e-01,9.87168e-01
9.432408771e-01,3.45887e-01,9.99999e-01,9.99999e-01,9.51348e-01,5.81975e-01,6.29502e-01,9.88920e-01
9.479570815e-01,2.92874e-01,9.99999e-01,9.99999e-01,9.74675e-01,4.76439e-01,6.35283e-01,9.90973e-01
9.526968669e-01,3.61034e-01,9.99999e-01,9.99999e-01,9.87745e-01,5.72614e-01,6.41002e-01,9.94484e-01
9.574603512e-01,3.81500e-01,9.99999e-01,9.99999e-01,9.94747e-01,5.94468e-01,6.46657e-01,9.97194e-01
9.622476530e-01,4.25634e-01,9.99999e-01,9.99999e-01,9.98361e-01,6.54821e-01,6.52250e-01,9.98058e-01
9.670588912e-01,5.13938e-01,9.99999e-01,9.99999e-01,9.99509e-01,7.82676e-01,6.57778e-01,9.98727e-01
9.718941857e-01,5.67898e-01,9.99999e-01,9.99999e-01,9.99965e-01,8.57104e-01,6.63243e-01,9.99025e-01
9.767536566e-01,5.87818e-01,9.99999e-01,9.99999e-01,9.99999e-01,8.79776e-01,6.68645e-01,9.99252e-01
9.816374249e-01,6.12936e-01,9.99999e-01,9.99999e-01,9.99999e-01,9.09660e-01,6.73982e-01,9.99740e-01
9.865456120e-01,6.40204e-01,9.99999e-01,9.99999e-01,9.99999e-01,9.42559e-01,6.79255e-01,9.99945e-01
9.914783401e-01,6.59859e-01,9.99999e-01,9.99999e-01,9.99999e-01,9.64066e-01,6.84464e-01,9.99984e-01
9.964357318e-01,6.76001e-01,9.99999e-01,9.99999e-01,9.99999e-01,9.80275e-01,6.89609e-01,9.99990e-01
1.001417910e+00,6.86443e-01,9.99999e-01,9.99999e-01,9.99999e-01,9.88141e-01,6.94689e-01,9.99986e-01
1.006425000e+00,6.94939e-01,9.99999e-01,9.99999e-01,9.99999e-01,9.93204e-01,6.99706e-01,9.99980e-01
1.011457125e+00,7.01681e-01,9.99999e-01,9.99999e-01,9.99999e-01,9.95790e-01,7.04659e-01,9.99981e-01
1.016514411e+00,7.07507e-01,9.99999e-01,9.99999e-01,9.99999e-01,9.97135e-01,7.09548e-01,9.99987e-01
1.021596983e+00,7.12674e-01,9.99999e-01,9.99999e-01,9.99917e-01,9.97715e-01,7.14373e-01,9.99987e-01
1.026704968e+00,7.14087e-01,9.99999e-01,9.99999e-01,9.94757e-01,9.98216e-01,7.19135e-01,9.99991e-01
1.031838492e+00,6.80237e-01,9.99999e-01,9.99999e-01,9.40940e-01,9.98706e-01,7.23834e-01,9.99997e-01
1.036997685e+00,8.21826e-02,9.99999e-01,9.99999e-01,1.12883e-01,9.99229e-01,7.28470e-01,9.99999e-01
1.042182673e+00,4.51137e-02,9.99999e-01,9.99999e-01,6.15919e-02,9.99077e-01,7.33042e-01,9.99999e-01
1.047393587e+00,6.19720e-02,9.99999e-01,9.99999e-01,8.41131e-02,9.98779e-01,7.37553e-01,9.99999e-01
1.052630555e+00,6.11710e-04,9.99999e-01,9.99999e-01,8.25379e-04,9.98322e-01,7.42001e-01,9.99999e-01
1.057893707e+00,1.86045e-03,9.99999e-01,9.99999e-01,2.49704e-03,9.97195e-01,7.46388e-01,9.99998e-01
1.063183176e+00,8.72431e-03,9.99999e-01,9.99999e-01,1.16577e-02,9.95394e-01,7.50712e-01,9.99997e-01
1.068499092e+00,3.15969e-02,9.99999e-01,9.99999e-01,4.21113e-02,9.92312e-01,7.54976e-01,9.99994e-01
1.073841587e+00,1.01847e-01,9.99999e-01,9.99999e-01,1.35160e-01,9.90986e-01,7.59179e-01,9.99988e-01
