#,Wave/freq,Total,N2,O2,CO2,H2O,Rayleigh,CIA
4.000000000e-01,6.91328e-14,9.99999e-01,9.99999e-01,9.99999e-01,9.99941e-01,6.91369e-14,9.99999e-01
4.020000000e-01,1.25868e-13,9.99999e-01,9.99999e-01,9.99999e-01,9.99963e-01,1.25872e-13,9.99999e-01
4.040100000e-01,2.26325e-13,9.99999e-01,9.99999e-01,9.99999e-01,9.99984e-01,2.26328e-13,9.99999e-01
4.060300500e-01,4.02265e-13,9.99999e-01,9.99999e-01,9.99999e-01,9.99995e-01,4.02266e-13,9.99999e-01
4.080602003e-01,7.06895e-13,9.99999e-01,9.99999e-01,9.99999e-01,9.99998e-01,7.06895e-13,9.99999e-01
4.101005013e-01,1.22846e-12,9.99999e-01,9.99999e-01,9.99999e-01,9.99999e-01,1.22846e-12,9.99999e-01
4.121510038e-01,2.11166e-12,9.99999e-01,9.99999e-01,9.99999e-01,9.99997e-01,2.11167e-12,9.99999e-01
4.142117588e-01,3.59117e-12,9.99999e-01,9.99999e-01,9.99999e-01,9.99983e-01,3.59123e-12,9.99999e-01
4.162828176e-01,6.04329e-12,9.99999e-01,9.99999e-01,9.99999e-01,9.99927e-01,6.04373e-12,9.99999e-01
4.183642317e-01,1.00666e-11,9.99999e-01,9.99999e-01,9.99999e-01,9.99956e-01,1.00670e-11,9.99999e-01
4.204560528e-01,1.66001e-11,9.99999e-01,9.99999e-01,9.99999e-01,9.99973e-01,1.66005e-11,9.99999e-01
4.225583331e-01,2.71048e-11,9.99999e-01,9.99999e-01,9.99999e-01,9.99989e-01,2.71051e-11,9.99999e-01
4.246711247e-01,4.38300e-11,9.99999e-01,9.99999e-01,9.99999e-01,9.99991e-01,4.38303e-11,9.99999e-01
4.267944804e-01,7.02054e-11,9.99999e-01,9.99999e-01,9.99999e-01,9.99987e-01,7.02062e-11,9.99999e-01
4.289284528e-01,1.11412e-10,9.99999e-01,9.99999e-01,9.99999e-01,9.99990e-01,1.11413e-10,9.99999e-01
4.310730950e-01,1.75199e-10,9.99999e-01,9.99999e-01,9.99999e-01,9.99995e-01,1.75199e-10,9.99999e-01
4.332284605e-01,2.73053e-10,9.99999e-01,9.99999e-01,9.99999e-01,9.99998e-01,2.73053e-10,9.99999e-01
4.353946028e-01,4.21846e-10,9.99999e-01,9.99999e-01,9.99999e-01,9.99999e-01,4.21847e-10,9.99999e-01
4.375715758e-01,6.46142e-10,9.99999e-01,9.99999e-01,9.99999e-01,9.99992e-01,6.46146e-10,9.99999e-01
4.397594337e-01,9.81346e-10,9.99999e-01,9.99999e-01,9.99999e-01,9.99936e-01,9.81408e-10,9.99999e-01
4.419582309e-01,1.47790e-09,9.99999e-01,9.99999e-01,9.99999e-01,9.99681e-01,1.47837e-09,9.99999e-01
4.441680220e-01,2.20847e-09,9.99999e-01,9.99999e-01,9.99999e-01,9.99746e-01,2.20903e-09,9.99999e-01
4.463888621e-01,3.27387e-09,9.99999e-01,9.99999e-01,9.99999e-01,9.99737e-01,3.27473e-09,9.99999e-01
4.486208064e-01,4.81616e-09,9.99999e-01,9.99999e-01,9.99999e-01,9.99836e-01,4.81694e-09,9.99999e-01
4.508639105e-01,7.03111e-09,9.99999e-01,9.99999e-01,9.99999e-01,9.99923e-01,7.03165e-09,9.99999e-01
4.531182300e-01,1.01879e-08,9.99999e-01,9.99999e-01,9.99999e-01,9.99969e-01,1.01882e-08,9.99999e-01
4.553838212e-01,1.46538e-08,9.99999e-01,9.99999e-01,9.99999e-01,9.99979e-01,1.46541e-08,9.99999e-01
4.576607403e-01,2.09264e-08,9.99999e-01,9.99999e-01,9.99999e-01,9.99990e-01,2.09266e-08,9.99999e-01
4.599490440e-01,2.96744e-08,9.99999e-01,9.99999e-01,9.99999e-01,9.99992e-01,2.96746e-08,9.99999e-01
4.622487892e-01,4.17901e-08,9.99999e-01,9.99999e-01,9.99999e-01,9.99998e-01,4.17901e-08,9.99999e-01
4.645600332e-01,5.84553e-08,9.99999e-01,9.99999e-01,9.99999e-01,9.99995e-01,5.84556e-08,9.99999e-01
4.668828333e-01,8.12205e-08,9.99999e-01,9.99999e-01,9.99999e-01,9.99923e-01,8.12267e-08,9.99999e-01
4.692172475e-01,1.12119e-07,9.99999e-01,9.99999e-01,9.99999e-01,9.99835e-01,1.12137e-07,9.99999e-01
4.715633337e-01,1.53811e-07,9.99999e-01,9.99999e-01,9.99999e-01,9.99892e-01,1.53828e-07,9.99999e-01
4.739211504e-01,2.09683e-07,9.99999e-01,9.99999e-01,9.99999e-01,9.99896e-01,2.09704e-07,9.99999e-01
4.762907561e-01,2.84118e-07,9.99999e-01,9.99999e-01,9.99999e-01,9.99946e-01,2.84133e-07,9.99999e-01
4.786722099e-01,3.82668e-07,9.99999e-01,9.99999e-01,9.99999e-01,9.99977e-01,3.82676e-07,9.99999e-01
4.810655710e-01,5.12370e-07,9.99999e-01,9.99999e-01,9.99999e-01,9.99992e-01,5.12373e-07,9.99999e-01
4.834708988e-01,6.82042e-07,9.99999e-01,9.99999e-01,9.99999e-01,9.99937e-01,6.82084e-07,9.99999e-01
4.858882533e-01,9.02785e-07,9.99999e-01,9.99999e-01,9.99999e-01,9.99883e-01,9.02890e-07,9.99999e-01
4.883176946e-01,1.18846e-06,9.99999e-01,9.99999e-01,9.99999e-01,9.99902e-01,1.18857e-06,9.99999e-01
4.907592831e-01,1.55604e-06,9.99999e-01,9.99999e-01,9.99999e-01,9.99911e-01,1.55618e-06,9.99999e-01
4.932130795e-01,2.02653e-06,9.99999e-01,9.99999e-01,9.99999e-01,9.99937e-01,2.02666e-06,9.99999e-01
4.956791449e-01,2.62555e-06,9.99999e-01,9.99999e-01,9.99999e-01,9.99966e-01,2.62564e-06,9.99999e-01
4.981575406e-01,3.38375e-06,9.99999e-01,9.99999e-01,9.99999e-01,9.99835e-01,3.38430e-06,9.99999e-01
5.006483283e-01,4.33851e-06,9.99999e-01,9.99999e-01,9.99999e-01,9.99575e-01,4.34036e-06,9.99996e-01
5.031515699e-01,5.52711e-06,9.99999e-01,9.99999e-01,9.99999e-01,9.97837e-01,5.53921e-06,9.99976e-01
5.056673278e-01,7.02699e-06,9.99999e-01,9.99999e-01,9.99999e-01,9.98855e-01,7.03522e-06,9.99973e-01
5.081956644e-01,8.88018e-06,9.99999e-01,9.99999e-01,9.99999e-01,9.98555e-01,8.89318e-06,9.99982e-01
5.107366428e-01,1.11789e-05,9.99999e-01,9.99999e-01,9.99999e-01,9.99023e-01,1.11899e-05,9.99996e-01
5.132903260e-01,1.40081e-05,9.99999e-01,9.99999e-01,9.99999e-01,9.99441e-01,1.40160e-05,9.99999e-01
5.158567776e-01,1.74738e-05,9.99999e-01,9.99999e-01,9.99999e-01,9.99763e-01,1.74779e-05,9.99999e-01
5.184360615e-01,2.16981e-05,9.99999e-01,9.99999e-01,9.99999e-01,9.99905e-01,2.17001e-05,9.99999e-01
5.210282418e-01,2.68265e-05,9.99999e-01,9.99999e-01,9.99999e-01,9.99964e-01,2.68274e-05,9.99999e-01
5.236333830e-01,3.30228e-05,9.99999e-01,9.99999e-01,9.99999e-01,9.99858e-01,3.30275e-05,9.99998e-01
5.262515499e-01,4.04902e-05,9.99999e-01,9.99999e-01,9.99999e-01,9.99911e-01,4.04938e-05,9.99998e-01
5.288828077e-01,4.94445e-05,9.99999e-01,9.99999e-01,9.99999e-01,9.99918e-01,4.94486e-05,9.99998e-01
5.315272217e-01,6.01414e-05,9.99999e-01,9.99999e-01,9.99999e-01,9.99928e-01,6.01458e-05,9.99999e-01
5.341848578e-01,7.28712e-05,9.99999e-01,9.99999e-01,9.99999e-01,9.99953e-01,7.28746e-05,9.99999e-01
5.368557821e-01,8.79487e-05,9.99999e-01,9.99999e-01,9.99999e-01,9.99835e-01,8.79631e-05,9.99999e-01
5.395400610e-01,1.05719e-04,9.99999e-01,9.99999e-01,9.99999e-01,9.99411e-01,1.05782e-04,9.99994e-01
5.422377613e-01,1.26648e-04,9.99999e-01,9.99999e-01,9.99999e-01,9.99231e-01,1.26747e-04,9.99985e-01
5.449489501e-01,1.51217e-04,9.99999e-01,9.99999e-01,9.99999e-01,9.99288e-01,1.51326e-04,9.99985e-01
5.476736949e-01,1.79926e-04,9.99999e-01,9.99999e-01,9.99999e-01,9.99365e-01,1.80041e-04,9.99992e-01
5.504120634e-01,2.13371e-04,9.99999e-01,9.99999e-01,9.99999e-01,9.99539e-01,2.13470e-04,9.99997e-01
5.531641237e-01,2.52198e-04,9.99999e-01,9.99999e-01,9.99999e-01,9.99768e-01,2.52256e-04,9.99999e-01
5.559299443e-01,2.97075e-04,9.99999e-01,9.99999e-01,9.99999e-01,9.99887e-01,2.97108e-04,9.99999e-01
5.587095940e-01,3.48781e-04,9.99999e-01,9.99999e-01,9.99999e-01,9.99929e-01,3.48805e-04,9.99999e-01
5.615031420e-01,4.08170e-04,9.99999e-01,9.99999e-01,9.99999e-01,9.99921e-01,4.08202e-04,9.99999e-01
5.643106577e-01,4.76190e-04,9.99999e-01,9.99999e-01,9.99999e-01,9.99912e-01,4.76232e-04,9.99998e-01
5.671322110e-01,5.53321e-04,9.99999e-01,9.99999e-01,9.99999e-01,9.98943e-01,5.53911e-04,9.99990e-01
5.699678720e-01,6.41585e-04,9.99999e-01,9.99999e-01,9.99999e-01,9.98852e-01,6.42340e-04,9.99970e-01
5.728177114e-01,7.41813e-04,9.99999e-01,9.99999e-01,9.99999e-01,9.98815e-01,7.42711e-04,9.99975e-01
5.756818000e-01,8.55361e-04,9.99999e-01,9.99999e-01,9.99999e-01,9.98910e-01,8.56306e-04,9.99984e-01
5.785602090e-01,9.83563e-04,9.99999e-01,9.99999e-01,9.99999e-01,9.99049e-01,9.84503e-04,9.99995e-01
5.814530100e-01,1.12770e-03,9.99999e-01,9.99999e-01,9.99999e-01,9.99046e-01,1.12878e-03,9.99997e-01
5.843602750e-01,1.28924e-03,9.99999e-01,9.99999e-01,9.99999e-01,9.98870e-01,1.29070e-03,9.99993e-01
5.872820764e-01,1.45758e-03,9.99999e-01,9.99999e-01,9.99999e-01,9.90300e-01,1.47196e-03,9.99930e-01
5.902184868e-01,1.65419e-03,9.99999e-01,9.99999e-01,9.99999e-01,9.88166e-01,1.67431e-03,9.99812e-01
5.931695792e-01,1.88344e-03,9.99999e-01,9.99999e-01,9.99999e-01,9.91651e-01,1.89964e-03,9.99817e-01
5.961354271e-01,2.12999e-03,9.99999e-01,9.99999e-01,9.99999e-01,9.90832e-01,2.14993e-03,9.99889e-01
5.991161043e-01,2.41092e-03,9.99999e-01,9.99999e-01,9.99999e-01,9.93300e-01,2.42726e-03,9.99967e-01
6.021116848e-01,2.72337e-03,9.99999e-01,9.99999e-01,9.99999e-01,9.96189e-01,2.73380e-03,9.99995e-01
6.051222432e-01,3.06590e-03,9.99999e-01,9.99999e-01,9.99999e-01,9.98069e-01,3.07183e-03,9.99999e-01
6.081478544e-01,3.44085e-03,9.99999e-01,9.99999e-01,9.99999e-01,9.99167e-01,3.44371e-03,9.99999e-01
6.111885937e-01,3.85056e-03,9.99999e-01,9.99999e-01,9.99999e-01,9.99646e-01,3.85192e-03,9.99999e-01
6.142445367e-01,4.29831e-03,9.99999e-01,9.99999e-01,9.99999e-01,9.99842e-01,4.29898e-03,9.99999e-01
6.173157594e-01,4.78713e-03,9.99999e-01,9.99999e-01,9.99999e-01,9.99912e-01,4.78754e-03,9.99999e-01
6.204023382e-01,5.31991e-03,9.99999e-01,9.99999e-01,9.99999e-01,9.99926e-01,5.32030e-03,9.99999e-01
6.235043498e-01,5.89815e-03,9.99999e-01,9.99999e-01,9.99999e-01,9.99681e-01,5.90003e-03,9.99998e-01
6.266218716e-01,6.51837e-03,9.99999e-01,9.99999e-01,9.99999e-01,9.98293e-01,6.52959e-03,9.99987e-01
6.297549810e-01,7.20717e-03,9.99999e-01,9.99999e-01,9.99999e-01,9.99373e-01,7.21186e-03,9.99975e-01
6.329037559e-01,7.93979e-03,9.99999e-01,9.99999e-01,9.99999e-01,9.98760e-01,7.94980e-03,9.99980e-01
6.360682746e-01,8.73710e-03,9.99999e-01,9.99999e-01,9.99999e-01,9.98947e-01,8.74640e-03,9.99988e-01
6.392486160e-01,9.59152e-03,9.99999e-01,9.99999e-01,9.99999e-01,9.98634e-01,9.60469e-03,9.99994e-01
6.424448591e-01,1.05085e-02,9.99999e-01,9.99999e-01,9.99999e-01,9.98184e-01,1.05277e-02,9.99991e-01
6.456570834e-01,1.14212e-02,9.99999e-01,9.99999e-01,9.99999e-01,9.91591e-01,1.15186e-02,9.99952e-01
6.488853688e-01,1.24872e-02,9.99999e-01,9.99999e-01,9.99999e-01,9.92728e-01,1.25803e-02,9.99868e-01
6.521297956e-01,1.36277e-02,9.99999e-01,9.99999e-01,9.99999e-01,9.93671e-01,1.37159e-02,9.99889e-01
6.553904446e-01,1.48340e-02,9.99999e-01,9.99999e-01,9.99999e-01,9.93744e-01,1.49286e-02,9.99916e-01
6.586673968e-01,1.61333e-02,9.99999e-01,9.99999e-01,9.99999e-01,9.94598e-01,1.62214e-02,9.99972e-01
6.619607338e-01,1.75421e-02,9.99999e-01,9.99999e-01,9.99999e-01,9.96874e-01,1.75972e-02,9.99993e-01
6.652705375e-01,1.90244e-02,9.99999e-01,9.99999e-01,9.99999e-01,9.98185e-01,1.90590e-02,9.99996e-01
6.685968902e-01,2.05924e-02,9.99999e-01,9.99999e-01,9.99999e-01,9.99157e-01,2.06097e-02,9.99999e-01
6.719398746e-01,2.22435e-02,9.99999e-01,9.99999e-01,9.99999e-01,9.99608e-01,2.22522e-02,9.99999e-01
6.752995740e-01,2.39842e-02,9.99999e-01,9.99999e-01,9.99999e-01,9.99788e-01,2.39893e-02,9.99999e-01
6.786760719e-01,2.58157e-02,9.99999e-01,9.99999e-01,9.99999e-01,9.99696e-01,2.58235e-02,9.99999e-01
6.820694522e-01,2.77431e-02,9.99999e-01,9.99999e-01,9.99999e-01,9.99479e-01,2.77576e-02,9.99996e-01
6.854797995e-01,2.97739e-02,9.99999e-01,9.99999e-01,9.99999e-01,9.99329e-01,2.97940e-02,9.99993e-01
6.889071985e-01,3.18835e-02,9.99999e-01,9.99999e-01,9.99999e-01,9.98395e-01,3.19352e-02,9.99985e-01
6.923517345e-01,3.32871e-02,9.99999e-01,9.99999e-01,9.99999e-01,9.73907e-01,3.41833e-02,9.99872e-01
6.958134932e-01,3.60241e-02,9.99999e-01,9.99999e-01,9.99999e-01,9.86151e-01,3.65405e-02,9.99712e-01
6.992925606e-01,3.84926e-02,9.99999e-01,9.99999e-01,9.99999e-01,9.87014e-01,3.90088e-02,9.99747e-01
7.027890234e-01,4.09125e-02,9.99999e-01,9.99999e-01,9.99999e-01,9.83894e-01,4.15902e-02,9.99805e-01
7.063029686e-01,4.36819e-02,9.99999e-01,9.99999e-01,9.99999e-01,9.86447e-01,4.42863e-02,9.99903e-01
7.098344834e-01,4.64834e-02,9.99999e-01,9.99999e-01,9.99999e-01,9.86991e-01,4.70987e-02,9.99942e-01
7.133836558e-01,4.91668e-02,9.99999e-01,9.99999e-01,9.99999e-01,9.82881e-01,5.00288e-02,9.99886e-01
7.169505741e-01,4.61783e-02,9.99999e-01,9.99999e-01,9.99999e-01,8.70785e-01,5.30779e-02,9.99107e-01
7.205353270e-01,5.24240e-02,9.99999e-01,9.99999e-01,9.99999e-01,9.33499e-01,5.62471e-02,9.98426e-01
7.241380036e-01,5.45258e-02,9.99999e-01,9.99999e-01,9.99999e-01,9.17072e-01,5.95372e-02,9.98641e-01
7.277586936e-01,5.81520e-02,9.99999e-01,9.99999e-01,9.99999e-01,9.24820e-01,6.29491e-02,9.98889e-01
7.313974871e-01,6.11126e-02,9.99999e-01,9.99999e-01,9.99999e-01,9.19695e-01,6.64833e-02,9.99479e-01
7.350544745e-01,6.69937e-02,9.99999e-01,9.99999e-01,9.99999e-01,9.55312e-01,7.01402e-02,9.99818e-01
7.387297469e-01,7.14647e-02,9.99999e-01,9.99999e-01,9.99999e-01,9.66864e-01,7.39200e-02,9.99916e-01
7.424233956e-01,7.65464e-02,9.99999e-01,9.99999e-01,9.99999e-01,9.83614e-01,7.78227e-02,9.99983e-01
7.461355126e-01,8.10338e-02,9.99999e-01,9.99999e-01,9.99999e-01,9.90050e-01,8.18483e-02,9.99996e-01
7.498661902e-01,8.55963e-02,9.99999e-01,9.99999e-01,9.99999e-01,9.95347e-01,8.59965e-02,9.99998e-01
7.536155211e-01,9.00608e-02,9.99999e-01,9.99999e-01,9.99999e-01,9.97720e-01,9.02666e-02,9.99998e-01
7.573835987e-01,9.45470e-02,9.99999e-01,9.99999e-01,9.99999e-01,9.98825e-01,9.46582e-02,9.99999e-01
7.611705167e-01,9.90979e-02,9.99999e-01,9.99999e-01,9.99999e-01,9.99270e-01,9.91703e-02,9.99999e-01
7.649763693e-01,1.03755e-01,9.99999e-01,9.99999e-01,9.99999e-01,9.99542e-01,1.03802e-01,9.99999e-01
7.688012511e-01,1.08518e-01,9.99999e-01,9.99999e-01,9.99999e-01,9.99681e-01,1.08552e-01,9.99999e-01
7.726452574e-01,1.13390e-01,9.99999e-01,9.99999e-01,9.99999e-01,9.99738e-01,1.13419e-01,9.99999e-01
7.765084837e-01,1.18358e-01,9.99999e-01,9.99999e-01,9.99999e-01,9.99630e-01,1.18402e-01,9.99999e-01
7.803910261e-01,1.13559e-01,9.99999e-01,9.99999e-01,9.20874e-01,9.98405e-01,1.23499e-01,9.99997e-01
7.842929812e-01,8.46206e-02,9.99999e-01,9.99999e-01,6.60718e-01,9.94446e-01,1.28708e-01,9.99989e-01
7.882144461e-01,8.57395e-02,9.99999e-01,9.99999e-01,6.46488e-01,9.88515e-01,1.34027e-01,9.99929e-01
7.921555184e-01,1.06153e-01,9.99999e-01,9.99999e-01,7.65863e-01,9.93665e-01,1.39454e-01,9.99863e-01
7.961162960e-01,1.19624e-01,9.99999e-01,9.99999e-01,8.34171e-01,9.88920e-01,1.44988e-01,9.99868e-01
8.000968774e-01,1.34761e-01,9.99999e-01,9.99999e-01,9.06355e-01,9.87151e-01,1.50625e-01,9.99860e-01
8.040973618e-01,1.46651e-01,9.99999e-01,9.99999e-01,9.50114e-01,9.87163e-01,1.56364e-01,9.99889e-01
8.081178486e-01,1.53926e-01,9.99999e-01,9.99999e-01,9.76836e-01,9.71471e-01,1.62201e-01,9.99895e-01
8.121584379e-01,1.47961e-01,9.99999e-01,9.99999e-01,9.92744e-01,8.86630e-01,1.68135e-01,9.99592e-01
8.162192301e-01,1.50389e-01,9.99999e-01,9.99999e-01,9.98392e-01,8.66149e-01,1.74161e-01,9.98469e-01
8.203003262e-01,1.67828e-01,9.99999e-01,9.99999e-01,9.99973e-01,9.32623e-01,1.80279e-01,9.98207e-01
8.244018279e-01,1.68737e-01,9.99999e-01,9.99999e-01,9.99999e-01,9.06125e-01,1.86484e-01,9.98573e-01
8.285238370e-01,1.76755e-01,9.99999e-01,9.99999e-01,9.99999e-01,9.17929e-01,1.92774e-01,9.98879e-01
8.326664562e-01,1.82518e-01,9.99999e-01,9.99999e-01,9.99999e-01,9.16928e-01,1.99146e-01,9.99536e-01
8.368297885e-01,1.93168e-01,9.99999e-01,9.99999e-01,9.99999e-01,9.39651e-01,2.05596e-01,9.99893e-01
8.410139374e-01,2.04399e-01,9.99999e-01,9.99999e-01,9.99999e-01,9.63654e-01,2.12121e-01,9.99937e-01
8.452190071e-01,2.14771e-01,9.99999e-01,9.99999e-01,9.99999e-01,9.81987e-01,2.18718e-01,9.99962e-01
8.494451021e-01,2.23020e-01,9.99999e-01,9.99999e-01,9.99999e-01,9.89537e-01,2.25384e-01,9.99969e-01
8.536923276e-01,2.30669e-01,9.99999e-01,9.99999e-01,9.99999e-01,9.93785e-01,2.32116e-01,9.99979e-01
8.579607893e-01,2.37996e-01,9.99999e-01,9.99999e-01,9.99999e-01,9.96177e-01,2.38910e-01,9.99994e-01
8.622505932e-01,2.45164e-01,9.99999e-01,9.99999e-01,9.99999e-01,9.97565e-01,2.45763e-01,9.99998e-01
8.665618462e-01,2.21112e-01,9.99999e-01,9.99999e-01,8.76334e-01,9.98497e-01,2.52670e-01,9.99999e-01
8.708946554e-01,9.37556e-02,9.99999e-01,9.99999e-01,3.61684e-01,9.98283e-01,2.59630e-01,9.99998e-01
8.752491287e-01,1.14002e-01,9.99999e-01,9.99999e-01,4.28470e-01,9.97701e-01,2.66639e-01,9.99997e-01
8.796253743e-01,1.69356e-01,9.99999e-01,9.99999e-01,6.20607e-01,9.96826e-01,2.73692e-01,9.99992e-01
8.840235012e-01,2.17602e-01,9.99999e-01,9.99999e-01,7.77691e-01,9.96373e-01,2.80788e-01,9.99977e-01
8.884436187e-01,2.57221e-01,9.99999e-01,9.99999e-01,9.04856e-01,9.87027e-01,2.87922e-01,9.99936e-01
8.928858368e-01,2.47038e-01,9.99999e-01,9.99999e-01,9.60297e-01,8.71233e-01,2.95090e-01,9.99636e-01
8.973502660e-01,2.34033e-01,9.99999e-01,9.99999e-01,9.90160e-01,7.82920e-01,3.02291e-01,9.98138e-01
9.018370173e-01,2.71927e-01,9.99999e-01,9.99999e-01,9.98909e-01,8.82008e-01,3.09519e-01,9.97074e-01
9.063462024e-01,2.76301e-01,9.99999e-01,9.99999e-01,9.73459e-01,8.96247e-01,3.16773e-01,9.97429e-01
9.108779334e-01,2.56009e-01,9.99999e-01,9.99999e-01,9.38251e-01,8.42513e-01,3.24048e-01,9.97329e-01
9.154323231e-01,2.68073e-01,9.99999e-01,9.99999e-01,9.85042e-01,8.22436e-01,3.31341e-01,9.97791e-01
9.200094847e-01,2.44415e-01,9.99999e-01,9.99999e-01,8.26420e-01,8.58142e-01,3.38650e-01,9.98763e-01
9.246095321e-01,2.03870e-01,9.99999e-01,9.99999e-01,7.33470e-01,7.94810e-01,3.45971e-01,9.98575e-01
9.292325798e-01,6.69708e-02,9.99999e-01,9.99999e-01,7.88691e-01,2.30269e-01,3.53301e-01,9.94456e-01
9.338787427e-01,4.33347e-02,9.99999e-01,9.99999e-01,7.91813e-01,1.48268e-01,3.60637e-01,9.77283e-01
9.385481364e-01,1.41598e-01,9.99999e-01,9.99999e-01,8.41311e-01,4.59718e-01,3.67976e-01,9.73040e-01
9.432408771e-01,1.18363e-01,9.99999e-01,9.99999e-01,8.98917e-01,3.54726e-01,3.75315e-01,9.76698e-01
9.479570815e-01,8.54430e-02,9.99999e-01,9.99999e-01,9.46859e-01,2.38910e-01,3.82650e-01,9.80993e-01
9.526968669e-01,1.24367e-01,9.99999e-01,9.99999e-01,9.74003e-01,3.29719e-01,3.89980e-01,9.88363e-01
9.574603512e-01,1.36155e-01,9.99999e-01,9.99999e-01,9.88785e-01,3.48023e-01,3.97302e-01,9.94072e-01
9.622476530e-01,1.67654e-01,9.99999e-01,9.99999e-01,9.96485e-01,4.17308e-01,4.04612e-01,9.95897e-01
9.670588912e-01,2.47071e-01,9.99999e-01,9.99999e-01,9.98944e-01,6.02058e-01,4.11909e-01,9.97192e-01
9.718941857e-01,3.02594e-01,9.99999e-01,9.99999e-01,9.99923e-01,7.23395e-01,4.19189e-01,9.97932e-01
9.767536566e-01,3.25319e-01,9.99999e-01,9.99999e-01,9.99999e-01,7.64061e-01,4.26450e-01,9.98419e-01
9.816374249e-01,3.54666e-01,9.99999e-01,9.99999e-01,9.99999e-01,8.18235e-01,4.33690e-01,9.99452e-01
9.865456120e-01,3.88790e-01,9.99999e-01,9.99999e-01,9.99999e-01,8.81898e-01,4.40906e-01,9.99885e-01
9.914783401e-01,4.14548e-01,9.99999e-01,9.99999e-01,9.99999e-01,9.25162e-01,4.48096e-01,9.99967e-01
9.964357318e-01,4.36361e-01,9.99999e-01,9.99999e-01,9.99999e-01,9.58511e-01,4.55257e-01,9.99981e-01
1.001417910e+00,4.50775e-01,9.99999e-01,9.99999e-01,9.99999e-01,9.74909e-01,4.62389e-01,9.99971e-01
1.006425000e+00,4.62727e-01,9.99999e-01,9.99999e-01,9.99999e-01,9.85639e-01,4.69488e-01,9.99959e-01
1.011457125e+00,4.72268e-01,9.99999e-01,9.99999e-01,9.99999e-01,9.91046e-01,4.76552e-01,9.99962e-01
1.016514411e+00,4.80628e-01,9.99999e-01,9.99999e-01,9.99999e-01,9.93920e-01,4.83580e-01,9.99973e-01
1.021596983e+00,4.88115e-01,9.99999e-01,9.99999e-01,9.99865e-01,9.95155e-01,4.90570e-01,9.99973e-01
1.026704968e+00,4.90422e-01,9.99999e-01,9.99999e-01,9.89475e-01,9.96221e-01,4.97520e-01,9.99981e-01
1.031838492e+00,4.59658e-01,9.99999e-01,9.99999e-01,9.13639e-01,9.97248e-01,5.04428e-01,9.99994e-01
1.036997685e+00,2.90375e-02,9.99999e-01,9.99999e-01,5.68625e-02,9.98367e-01,5.11293e-01,9.99998e-01
1.042182673e+00,2.57893e-03,9.99999e-01,9.99999e-01,4.98506e-03,9.98058e-01,5.18113e-01,9.99999e-01
1.047393587e+00,6.44204e-03,9.99999e-01,9.99999e-01,1.22997e-02,9.97422e-01,5.24886e-01,9.99999e-01
1.052630555e+00,1.37732e-06,9.99999e-01,9.99999e-01,2.59670e-06,9.96468e-01,5.31611e-01,9.99998e-01
1.057893707e+00,5.07674e-06,9.99999e-01,9.99999e-01,9.46057e-06,9.94116e-01,5.38288e-01,9.99997e-01
1.063183176e+00,1.01608e-04,9.99999e-01,9.99999e-01,1.87531e-04,9.90329e-01,5.44914e-01,9.99994e-01
1.068499092e+00,9.01310e-04,9.99999e-01,9.99999e-01,1.65254e-03,9.83843e-01,5.51488e-01,9.99988e-01
1.073841587e+00,8.91568e-03,9.99999e-01,9.99999e-01,1.62013e-02,9.81157e-01,5.58009e-01,9.99975e-01
