#,Wave/freq,Total,N2,O2,CO2,H2O,Rayleigh,CIA
4.000000000e-01,3.11572e-15,9.99999e-01,9.99999e-01,9.99999e-01,9.99935e-01,3.11592e-15,9.99999e-01
4.020000000e-01,6.03111e-15,9.99999e-01,9.99999e-01,9.99999e-01,9.99959e-01,6.03135e-15,9.99999e-01
4.040100000e-01,1.15154e-14,9.99999e-01,9.99999e-01,9.99999e-01,9.99982e-01,1.15156e-14,9.99999e-01
4.060300500e-01,2.17075e-14,9.99999e-01,9.99999e-01,9.99999e-01,9.99995e-01,2.17076e-14,9.99999e-01
4.080602003e-01,4.04107e-14,9.99999e-01,9.99999e-01,9.99999e-01,9.99998e-01,4.04107e-14,9.99999e-01
4.101005013e-01,7.43107e-14,9.99999e-01,9.99999e-01,9.99999e-01,9.99999e-01,7.43107e-14,9.99999e-01
4.121510038e-01,1.35014e-13,9.99999e-01,9.99999e-01,9.99999e-01,9.99997e-01,1.35015e-13,9.99999e-01
4.142117588e-01,2.42426e-13,9.99999e-01,9.99999e-01,9.99999e-01,9.99981e-01,2.42431e-13,9.99999e-01
4.162828176e-01,4.30268e-13,9.99999e-01,9.99999e-01,9.99999e-01,9.99920e-01,4.30302e-13,9.99999e-01
4.183642317e-01,7.55121e-13,9.99999e-01,9.99999e-01,9.99999e-01,9.99952e-01,7.55157e-13,9.99999e-01
4.204560528e-01,1.31058e-12,9.99999e-01,9.99999e-01,9.99999e-01,9.99970e-01,1.31062e-12,9.99999e-01
4.225583331e-01,2.24999e-12,9.99999e-01,9.99999e-01,9.99999e-01,9.99988e-01,2.25001e-12,9.99999e-01
4.246711247e-01,3.82168e-12,9.99999e-01,9.99999e-01,9.99999e-01,9.99990e-01,3.82172e-12,9.99999e-01
4.267944804e-01,6.42364e-12,9.99999e-01,9.99999e-01,9.99999e-01,9.99986e-01,6.42373e-12,9.99999e-01
4.289284528e-01,1.06870e-11,9.99999e-01,9.99999e-01,9.99999e-01,9.99989e-01,1.06871e-11,9.99999e-01
4.310730950e-01,1.76022e-11,9.99999e-01,9.99999e-01,9.99999e-01,9.99995e-01,1.76022e-11,9.99999e-01
4.332284605e-01,2.87074e-11,9.99999e-01,9.99999e-01,9.99999e-01,9.99998e-01,2.87075e-11,9.99999e-01
4.353946028e-01,4.63687e-11,9.99999e-01,9.99999e-01,9.99999e-01,9.99999e-01,4.63688e-11,9.99999e-01
4.375715758e-01,7.41890e-11,9.99999e-01,9.99999e-01,9.99999e-01,9.99991e-01,7.41896e-11,9.99999e-01
4.397594337e-01,1.17598e-10,9.99999e-01,9.99999e-01,9.99999e-01,9.99929e-01,1.17606e-10,9.99999e-01
4.419582309e-01,1.84674e-10,9.99999e-01,9.99999e-01,9.99999e-01,9.99640e-01,1.84741e-10,9.99999e-01
4.441680220e-01,2.87543e-10,9.99999e-01,9.99999e-01,9.99999e-01,9.99723e-01,2.87622e-10,9.99999e-01
4.463888621e-01,4.43771e-10,9.99999e-01,9.99999e-01,9.99999e-01,9.99711e-01,4.43899e-10,9.99999e-01
4.486208064e-01,6.79119e-10,9.99999e-01,9.99999e-01,9.99999e-01,9.99821e-01,6.79240e-10,9.99999e-01
4.508639105e-01,1.03057e-09,9.99999e-01,9.99999e-01,9.99999e-01,9.99915e-01,1.03066e-09,9.99999e-01
4.531182300e-01,1.55100e-09,9.99999e-01,9.99999e-01,9.99999e-01,9.99966e-01,1.55105e-09,9.99999e-01
4.553838212e-01,2.31539e-09,9.99999e-01,9.99999e-01,9.99999e-01,9.99977e-01,2.31544e-09,9.99999e-01
4.576607403e-01,3.42925e-09,9.99999e-01,9.99999e-01,9.99999e-01,9.99989e-01,3.42929e-09,9.99999e-01
4.599490440e-01,5.03966e-09,9.99999e-01,9.99999e-01,9.99999e-01,9.99992e-01,5.03970e-09,9.99999e-01
4.622487892e-01,7.35025e-09,9.99999e-01,9.99999e-01,9.99999e-01,9.99998e-01,7.35026e-09,9.99999e-01
4.645600332e-01,1.06405e-08,9.99999e-01,9.99999e-01,9.99999e-01,9.99994e-01,1.06405e-08,9.99999e-01
4.668828333e-01,1.52902e-08,9.99999e-01,9.99999e-01,9.99999e-01,9.99914e-01,1.52915e-08,9.99999e-01
4.692172475e-01,2.18147e-08,9.99999e-01,9.99999e-01,9.99999e-01,9.99818e-01,2.18186e-08,9.99999e-01
4.715633337e-01,3.09103e-08,9.99999e-01,9.99999e-01,9.99999e-01,9.99881e-01,3.09139e-08,9.99999e-01
4.739211504e-01,4.34954e-08,9.99999e-01,9.99999e-01,9.99999e-01,9.99886e-01,4.35003e-08,9.99999e-01
4.762907561e-01,6.07960e-08,9.99999e-01,9.99999e-01,9.99999e-01,9.99941e-01,6.07995e-08,9.99999e-01
4.786722099e-01,8.44161e-08,9.99999e-01,9.99999e-01,9.99999e-01,9.99975e-01,8.44182e-08,9.99999e-01
4.810655710e-01,1.16454e-07,9.99999e-01,9.99999e-01,9.99999e-01,9.99992e-01,1.16455e-07,9.99999e-01
4.834708988e-01,1.59620e-07,9.99999e-01,9.99999e-01,9.99999e-01,9.99929e-01,1.59631e-07,9.99999e-01
4.858882533e-01,2.17429e-07,9.99999e-01,9.99999e-01,9.99999e-01,9.99871e-01,2.17456e-07,9.99999e-01
4.883176946e-01,2.94394e-07,9.99999e-01,9.99999e-01,9.99999e-01,9.99892e-01,2.94426e-07,9.99999e-01
4.907592831e-01,3.96221e-07,9.99999e-01,9.99999e-01,9.99999e-01,9.99902e-01,3.96259e-07,9.99999e-01
4.932130795e-01,5.30158e-07,9.99999e-01,9.99999e-01,9.99999e-01,9.99930e-01,5.30195e-07,9.99999e-01
4.956791449e-01,7.05306e-07,9.99999e-01,9.99999e-01,9.99999e-01,9.99963e-01,7.05331e-07,9.99999e-01
4.981575406e-01,9.32875e-07,9.99999e-01,9.99999e-01,9.99999e-01,9.99817e-01,9.33045e-07,9.99999e-01
5.006483283e-01,1.22689e-06,9.99999e-01,9.99999e-01,9.99999e-01,9.99525e-01,1.22747e-06,9.99996e-01
5.031515699e-01,1.60221e-06,9.99999e-01,9.99999e-01,9.99999e-01,9.97609e-01,1.60609e-06,9.99974e-01
5.056673278e-01,2.08766e-06,9.99999e-01,9.99999e-01,9.99999e-01,9.98740e-01,2.09035e-06,9.99970e-01
5.081956644e-01,2.70216e-06,9.99999e-01,9.99999e-01,9.99999e-01,9.98411e-01,2.70650e-06,9.99982e-01
5.107366428e-01,3.48270e-06,9.99999e-01,9.99999e-01,9.99999e-01,9.98927e-01,3.48644e-06,9.99996e-01
5.132903260e-01,4.46599e-06,9.99999e-01,9.99999e-01,9.99999e-01,9.99387e-01,4.46873e-06,9.99999e-01
5.158567776e-01,5.69828e-06,9.99999e-01,9.99999e-01,9.99999e-01,9.99741e-01,5.69975e-06,9.99999e-01
5.184360615e-01,7.23429e-06,9.99999e-01,9.99999e-01,9.99999e-01,9.99896e-01,7.23504e-06,9.99999e-01
5.210282418e-01,9.14035e-06,9.99999e-01,9.99999e-01,9.99999e-01,9.99960e-01,9.14071e-06,9.99999e-01
5.236333830e-01,1.14933e-05,9.99999e-01,9.99999e-01,9.99999e-01,9.99843e-01,1.14951e-05,9.99998e-01
5.262515499e-01,1.43892e-05,9.99999e-01,9.99999e-01,9.99999e-01,9.99902e-01,1.43906e-05,9.99997e-01
5.288828077e-01,1.79341e-05,9.99999e-01,9.99999e-01,9.99999e-01,9.99909e-01,1.79358e-05,9.99998e-01
5.315272217e-01,2.22555e-05,9.99999e-01,9.99999e-01,9.99999e-01,9.99921e-01,2.22572e-05,9.99999e-01
5.341848578e-01,2.75009e-05,9.99999e-01,9.99999e-01,9.99999e-01,9.99947e-01,2.75023e-05,9.99999e-01
5.368557821e-01,3.38356e-05,9.99999e-01,9.99999e-01,9.99999e-01,9.99817e-01,3.38418e-05,9.99999e-01
5.395400610e-01,4.14447e-05,9.99999e-01,9.99999e-01,9.99999e-01,9.99340e-01,4.14723e-05,9.99993e-01
5.422377613e-01,5.05760e-05,9.99999e-01,9.99999e-01,9.99999e-01,9.99155e-01,5.06195e-05,9.99984e-01
5.449489501e-01,6.14920e-05,9.99999e-01,9.99999e-01,9.99999e-01,9.99210e-01,6.15415e-05,9.99983e-01
5.476736949e-01,7.44796e-05,9.99999e-01,9.99999e-01,9.99999e-01,9.99305e-01,7.45320e-05,9.99991e-01
5.504120634e-01,8.98782e-05,9.99999e-01,9.99999e-01,9.99999e-01,9.99495e-01,8.99237e-05,9.99997e-01
5.531641237e-01,1.08065e-04,9.99999e-01,9.99999e-01,9.99999e-01,9.99745e-01,1.08092e-04,9.99999e-01
5.559299443e-01,1.29445e-04,9.99999e-01,9.99999e-01,9.99999e-01,9.99877e-01,1.29461e-04,9.99999e-01
5.587095940e-01,1.54489e-04,9.99999e-01,9.99999e-01,9.99999e-01,9.99922e-01,1.54501e-04,9.99999e-01
5.615031420e-01,1.83727e-04,9.99999e-01,9.99999e-01,9.99999e-01,9.99913e-01,1.83743e-04,9.99999e-01
5.643106577e-01,2.17750e-04,9.99999e-01,9.99999e-01,9.99999e-01,9.99901e-01,2.17772e-04,9.99998e-01
5.671322110e-01,2.56928e-04,9.99999e-01,9.99999e-01,9.99999e-01,9.98803e-01,2.57238e-04,9.99989e-01
5.699678720e-01,3.02471e-04,9.99999e-01,9.99999e-01,9.99999e-01,9.98751e-01,3.02858e-04,9.99967e-01
5.728177114e-01,3.54947e-04,9.99999e-01,9.99999e-01,9.99999e-01,9.98689e-01,3.55422e-04,9.99972e-01
5.756818000e-01,4.15286e-04,9.99999e-01,9.99999e-01,9.99999e-01,9.98799e-01,4.15791e-04,9.99983e-01
5.785602090e-01,4.84401e-04,9.99999e-01,9.99999e-01,9.99999e-01,9.98954e-01,4.84910e-04,9.99995e-01
5.814530100e-01,5.63209e-04,9.99999e-01,9.99999e-01,9.99999e-01,9.98948e-01,5.63803e-04,9.99997e-01
5.843602750e-01,6.52755e-04,9.99999e-01,9.99999e-01,9.99999e-01,9.98740e-01,6.53583e-04,9.99992e-01
5.872820764e-01,7.47242e-04,9.99999e-01,9.99999e-01,9.99999e-01,9.89207e-01,7.55451e-04,9.99923e-01
5.902184868e-01,8.59207e-04,9.99999e-01,9.99999e-01,9.99999e-01,9.87001e-01,8.70702e-04,9.99792e-01
5.931695792e-01,9.91311e-04,9.99999e-01,9.99999e-01,9.99999e-01,9.90789e-01,1.00072e-03,9.99800e-01
5.961354271e-01,1.13531e-03,9.99999e-01,9.99999e-01,9.99999e-01,9.89917e-01,1.14701e-03,9.99885e-01
5.991161043e-01,1.30144e-03,9.99999e-01,9.99999e-01,9.99999e-01,9.92641e-01,1.31113e-03,9.99964e-01
6.021116848e-01,1.48854e-03,9.99999e-01,9.99999e-01,9.99999e-01,9.95822e-01,1.49479e-03,9.99995e-01
6.051222432e-01,1.69617e-03,9.99999e-01,9.99999e-01,9.99999e-01,9.97884e-01,1.69977e-03,9.99999e-01
6.081478544e-01,1.92619e-03,9.99999e-01,9.99999e-01,9.99999e-01,9.99086e-01,1.92795e-03,9.99999e-01
6.111885937e-01,2.18049e-03,9.99999e-01,9.99999e-01,9.99999e-01,9.99613e-01,2.18133e-03,9.99999e-01
6.142445367e-01,2.46158e-03,9.99999e-01,9.99999e-01,9.99999e-01,9.99827e-01,2.46200e-03,9.99999e-01
6.173157594e-01,2.77189e-03,9.99999e-01,9.99999e-01,9.99999e-01,9.99904e-01,2.77215e-03,9.99999e-01
6.204023382e-01,3.11382e-03,9.99999e-01,9.99999e-01,9.99999e-01,9.99918e-01,3.11407e-03,9.99999e-01
6.235043498e-01,3.48887e-03,9.99999e-01,9.99999e-01,9.99999e-01,9.99640e-01,3.49013e-03,9.99998e-01
6.266218716e-01,3.89540e-03,9.99999e-01,9.99999e-01,9.99999e-01,9.98117e-01,3.90280e-03,9.99986e-01
6.297549810e-01,4.35152e-03,9.99999e-01,9.99999e-01,9.99999e-01,9.99309e-01,4.35464e-03,9.99973e-01
6.329037559e-01,4.84159e-03,9.99999e-01,9.99999e-01,9.99999e-01,9.98637e-01,4.84829e-03,9.99978e-01
6.360682746e-01,5.38014e-03,9.99999e-01,9.99999e-01,9.99999e-01,9.98836e-01,5.38647e-03,9.99986e-01
6.392486160e-01,5.96293e-03,9.99999e-01,9.99999e-01,9.99999e-01,9.98494e-01,5.97196e-03,9.99993e-01
6.424448591e-01,6.59415e-03,9.99999e-01,9.99999e-01,9.99999e-01,9.97973e-01,6.60760e-03,9.99989e-01
6.456570834e-01,7.22754e-03,9.99999e-01,9.99999e-01,9.99999e-01,9.90629e-01,7.29631e-03,9.99942e-01
6.488853688e-01,7.98508e-03,9.99999e-01,9.99999e-01,9.99999e-01,9.93184e-01,8.04104e-03,9.99854e-01
6.521297956e-01,8.78232e-03,9.99999e-01,9.99999e-01,9.99999e-01,9.93055e-01,8.84479e-03,9.99879e-01
6.553904446e-01,9.64234e-03,9.99999e-01,9.99999e-01,9.99999e-01,9.93059e-01,9.71059e-03,9.99910e-01
6.586673968e-01,1.05781e-02,9.99999e-01,9.99999e-01,9.99999e-01,9.94072e-01,1.06415e-02,9.99969e-01
6.619607338e-01,1.16020e-02,9.99999e-01,9.99999e-01,9.99999e-01,9.96692e-01,1.16406e-02,9.99993e-01
6.652705375e-01,1.26856e-02,9.99999e-01,9.99999e-01,9.99999e-01,9.98014e-01,1.27109e-02,9.99996e-01
6.685968902e-01,1.38438e-02,9.99999e-01,9.99999e-01,9.99999e-01,9.99155e-01,1.38555e-02,9.99998e-01
6.719398746e-01,1.50711e-02,9.99999e-01,9.99999e-01,9.99999e-01,9.99572e-01,1.50775e-02,9.99999e-01
6.752995740e-01,1.63763e-02,9.99999e-01,9.99999e-01,9.99999e-01,9.99774e-01,1.63800e-02,9.99999e-01
6.786760719e-01,1.77598e-02,9.99999e-01,9.99999e-01,9.99999e-01,9.99662e-01,1.77658e-02,9.99999e-01
6.820694522e-01,1.92269e-02,9.99999e-01,9.99999e-01,9.99999e-01,9.99424e-01,1.92380e-02,9.99996e-01
6.854797995e-01,2.07839e-02,9.99999e-01,9.99999e-01,9.99999e-01,9.99258e-01,2.07995e-02,9.99993e-01
6.889071985e-01,2.24120e-02,9.99999e-01,9.99999e-01,9.99999e-01,9.98187e-01,2.24530e-02,9.99983e-01
6.923517345e-01,2.34967e-02,9.99999e-01,9.99999e-01,9.99999e-01,9.71015e-01,2.42014e-02,9.99859e-01
6.958134932e-01,2.56499e-02,9.99999e-01,9.99999e-01,9.99999e-01,9.85044e-01,2.60474e-02,9.99689e-01
6.992925606e-01,2.75818e-02,9.99999e-01,9.99999e-01,9.99999e-01,9.85570e-01,2.79935e-02,9.99719e-01
7.027890234e-01,2.95043e-02,9.99999e-01,9.99999e-01,9.99999e-01,9.82305e-01,3.00422e-02,9.99785e-01
7.063029686e-01,3.17124e-02,9.99999e-01,9.99999e-01,9.99999e-01,9.85087e-01,3.21958e-02,9.99893e-01
7.098344834e-01,3.39614e-02,9.99999e-01,9.99999e-01,9.99999e-01,9.85685e-01,3.44568e-02,9.99936e-01
7.133836558e-01,3.61170e-02,9.99999e-01,9.99999e-01,9.99999e-01,9.80840e-01,3.68270e-02,9.99874e-01
7.169505741e-01,3.36839e-02,9.99999e-01,9.99999e-01,9.99999e-01,8.57751e-01,3.93087e-02,9.99016e-01
7.205353270e-01,3.88304e-02,9.99999e-01,9.99999e-01,9.99999e-01,9.28270e-01,4.19036e-02,9.98265e-01
7.241380036e-01,4.04810e-02,9.99999e-01,9.99999e-01,9.99999e-01,9.08733e-01,4.46133e-02,9.98501e-01
7.277586936e-01,4.34650e-02,9.99999e-01,9.99999e-01,9.99999e-01,9.17340e-01,4.74396e-02,9.98775e-01
7.313974871e-01,4.59466e-02,9.99999e-01,9.99999e-01,9.99999e-01,9.12454e-01,5.03838e-02,9.99425e-01
7.350544745e-01,5.08213e-02,9.99999e-01,9.99999e-01,9.99999e-01,9.51060e-01,5.34470e-02,9.99800e-01
7.387297469e-01,5.45709e-02,9.99999e-01,9.99999e-01,9.99999e-01,9.63719e-01,5.66305e-02,9.99908e-01
7.424233956e-01,5.88612e-02,9.99999e-01,9.99999e-01,9.99999e-01,9.82098e-01,5.99350e-02,9.99983e-01
7.461355126e-01,6.26707e-02,9.99999e-01,9.99999e-01,9.99999e-01,9.89102e-01,6.33614e-02,9.99996e-01
7.498661902e-01,6.65702e-02,9.99999e-01,9.99999e-01,9.99999e-01,9.94921e-01,6.69101e-02,9.99998e-01
7.536155211e-01,7.04051e-02,9.99999e-01,9.99999e-01,9.99999e-01,9.97501e-01,7.05815e-02,9.99998e-01
7.573835987e-01,7.42802e-02,9.99999e-01,9.99999e-01,9.99999e-01,9.98713e-01,7.43759e-02,9.99999e-01
7.611705167e-01,7.82306e-02,9.99999e-01,9.99999e-01,9.99999e-01,9.99200e-01,7.82932e-02,9.99999e-01
7.649763693e-01,8.22921e-02,9.99999e-01,9.99999e-01,9.99999e-01,9.99498e-01,8.23333e-02,9.99999e-01
7.688012511e-01,8.64657e-02,9.99999e-01,9.99999e-01,9.99999e-01,9.99650e-01,8.64960e-02,9.99999e-01
7.726452574e-01,9.07544e-02,9.99999e-01,9.99999e-01,9.99999e-01,9.99711e-01,9.07805e-02,9.99999e-01
7.765084837e-01,9.51473e-02,9.99999e-01,9.99999e-01,9.99999e-01,9.99588e-01,9.51864e-02,9.99999e-01
7.803910261e-01,9.06120e-02,9.99999e-01,9.99999e-01,9.10217e-01,9.98222e-01,9.97127e-02,9.99997e-01
7.842929812e-01,6.61393e-02,9.99999e-01,9.99999e-01,6.37244e-01,9.93806e-01,1.04358e-01,9.99988e-01
7.882144461e-01,6.69107e-02,9.99999e-01,9.99999e-01,6.20274e-01,9.87349e-01,1.09122e-01,9.99912e-01
7.921555184e-01,8.43964e-02,9.99999e-01,9.99999e-01,7.45231e-01,9.93070e-01,1.14003e-01,9.99848e-01
7.961162960e-01,9.64211e-02,9.99999e-01,9.99999e-01,8.20207e-01,9.87690e-01,1.19000e-01,9.99855e-01
8.000968774e-01,1.09853e-01,9.99999e-01,9.99999e-01,8.97866e-01,9.85839e-01,1.24110e-01,9.99846e-01
8.040973618e-01,1.20581e-01,9.99999e-01,9.99999e-01,9.45771e-01,9.85824e-01,1.29332e-01,9.99882e-01
8.081178486e-01,1.27084e-01,9.99999e-01,9.99999e-01,9.74635e-01,9.68251e-01,1.34664e-01,9.99881e-01
8.121584379e-01,1.21592e-01,9.99999e-01,9.99999e-01,9.92150e-01,8.74917e-01,1.40104e-01,9.99550e-01
8.162192301e-01,1.24040e-01,9.99999e-01,9.99999e-01,9.98261e-01,8.54472e-01,1.45650e-01,9.98312e-01
8.203003262e-01,1.39672e-01,9.99999e-01,9.99999e-01,9.99975e-01,9.24988e-01,1.51300e-01,9.98024e-01
8.244018279e-01,1.40971e-01,9.99999e-01,9.99999e-01,9.99999e-01,8.99034e-01,1.57050e-01,9.98427e-01
8.285238370e-01,1.48006e-01,9.99999e-01,9.99999e-01,9.99999e-01,9.09701e-01,1.62899e-01,9.98764e-01
8.326664562e-01,1.53422e-01,9.99999e-01,9.99999e-01,9.99999e-01,9.09129e-01,1.68844e-01,9.99488e-01
8.368297885e-01,1.63324e-01,9.99999e-01,9.99999e-01,9.99999e-01,9.34022e-01,1.74881e-01,9.99882e-01
8.410139374e-01,1.73800e-01,9.99999e-01,9.99999e-01,9.99999e-01,9.60234e-01,1.81010e-01,9.99931e-01
8.452190071e-01,1.83530e-01,9.99999e-01,9.99999e-01,9.99999e-01,9.80303e-01,1.87225e-01,9.99958e-01
8.494451021e-01,1.91292e-01,9.99999e-01,9.99999e-01,9.99999e-01,9.88495e-01,1.93525e-01,9.99966e-01
8.536923276e-01,1.98542e-01,9.99999e-01,9.99999e-01,9.99999e-01,9.93197e-01,1.99906e-01,9.99979e-01
8.579607893e-01,2.05497e-01,9.99999e-01,9.99999e-01,9.99999e-01,9.95797e-01,2.06365e-01,9.99994e-01
8.622505932e-01,2.12331e-01,9.99999e-01,9.99999e-01,9.99999e-01,9.97332e-01,2.12899e-01,9.99998e-01
8.665618462e-01,1.89567e-01,9.99999e-01,9.99999e-01,8.64951e-01,9.98345e-01,2.19504e-01,9.99999e-01
8.708946554e-01,7.43303e-02,9.99999e-01,9.99999e-01,3.29207e-01,9.98102e-01,2.26179e-01,9.99998e-01
8.752491287e-01,9.21980e-02,9.99999e-01,9.99999e-01,3.96776e-01,9.97464e-01,2.32918e-01,9.99996e-01
8.796253743e-01,1.42055e-01,9.99999e-01,9.99999e-01,5.94518e-01,9.96482e-01,2.39719e-01,9.99991e-01
8.840235012e-01,1.86618e-01,9.99999e-01,9.99999e-01,7.59764e-01,9.95985e-01,2.46578e-01,9.99975e-01
8.884436187e-01,2.24129e-01,9.99999e-01,9.99999e-01,8.97018e-01,9.85306e-01,2.53492e-01,9.99930e-01
8.928858368e-01,2.13917e-01,9.99999e-01,9.99999e-01,9.56740e-01,8.57758e-01,2.60458e-01,9.99598e-01
8.973502660e-01,2.02008e-01,9.99999e-01,9.99999e-01,9.89356e-01,7.64443e-01,2.67472e-01,9.97947e-01
9.018370173e-01,2.38500e-01,9.99999e-01,9.99999e-01,9.98823e-01,8.72498e-01,2.74531e-01,9.96774e-01
9.063462024e-01,2.41899e-01,9.99999e-01,9.99999e-01,9.70081e-01,8.85396e-01,2.81631e-01,9.97166e-01
9.108779334e-01,2.22827e-01,9.99999e-01,9.99999e-01,9.32614e-01,8.27769e-01,2.88769e-01,9.97055e-01
9.154323231e-01,2.34479e-01,9.99999e-01,9.99999e-01,9.83863e-01,8.06446e-01,2.95942e-01,9.97565e-01
9.200094847e-01,2.12068e-01,9.99999e-01,9.99999e-01,8.10300e-01,8.45605e-01,3.03145e-01,9.98636e-01
9.246095321e-01,1.73147e-01,9.99999e-01,9.99999e-01,7.12040e-01,7.73302e-01,3.10377e-01,9.98429e-01
9.292325798e-01,5.13759e-02,9.99999e-01,9.99999e-01,7.68700e-01,2.00186e-01,3.17633e-01,9.92440e-01
9.338787427e-01,3.26850e-02,9.99999e-01,9.99999e-01,7.74307e-01,1.26715e-01,3.24911e-01,9.72944e-01
9.385481364e-01,1.17936e-01,9.99999e-01,9.99999e-01,8.27322e-01,4.31031e-01,3.32207e-01,9.70314e-01
9.432408771e-01,9.61228e-02,9.99999e-01,9.99999e-01,8.90042e-01,3.21659e-01,3.39517e-01,9.74337e-01
9.479570815e-01,6.73271e-02,9.99999e-01,9.99999e-01,9.41847e-01,2.08947e-01,3.46839e-01,9.79063e-01
9.526968669e-01,1.01855e-01,9.99999e-01,9.99999e-01,9.71594e-01,2.98230e-01,3.54170e-01,9.87177e-01
9.574603512e-01,1.12225e-01,9.99999e-01,9.99999e-01,9.87749e-01,3.15680e-01,3.61506e-01,9.93465e-01
9.622476530e-01,1.41206e-01,9.99999e-01,9.99999e-01,9.96165e-01,3.85811e-01,3.68845e-01,9.95476e-01
9.670588912e-01,2.15106e-01,9.99999e-01,9.99999e-01,9.98851e-01,5.74149e-01,3.76184e-01,9.96904e-01
9.718941857e-01,2.68023e-01,9.99999e-01,9.99999e-01,9.99919e-01,7.00491e-01,3.83519e-01,9.97720e-01
9.767536566e-01,2.90192e-01,9.99999e-01,9.99999e-01,9.99999e-01,7.43763e-01,3.90848e-01,9.98257e-01
9.816374249e-01,3.19327e-01,9.99999e-01,9.99999e-01,9.99999e-01,8.02473e-01,3.98169e-01,9.99396e-01
9.865456120e-01,3.53218e-01,9.99999e-01,9.99999e-01,9.99999e-01,8.71225e-01,4.05477e-01,9.99873e-01
9.914783401e-01,3.78964e-01,9.99999e-01,9.99999e-01,9.99999e-01,9.18127e-01,4.12772e-01,9.99964e-01
9.964357318e-01,4.00951e-01,9.99999e-01,9.99999e-01,9.99999e-01,9.54549e-01,4.20050e-01,9.99979e-01
1.001417910e+00,4.15545e-01,9.99999e-01,9.99999e-01,9.99999e-01,9.72499e-01,4.27309e-01,9.99968e-01
1.006425000e+00,4.27664e-01,9.99999e-01,9.99999e-01,9.99999e-01,9.84205e-01,4.34546e-01,9.99955e-01
1.011457125e+00,4.37406e-01,9.99999e-01,9.99999e-01,9.99999e-01,9.90185e-01,4.41759e-01,9.99958e-01
1.016514411e+00,4.45934e-01,9.99999e-01,9.99999e-01,9.99999e-01,9.93320e-01,4.48946e-01,9.99970e-01
1.021596983e+00,4.53580e-01,9.99999e-01,9.99999e-01,9.99821e-01,9.94671e-01,4.56104e-01,9.99970e-01
1.026704968e+00,4.55787e-01,9.99999e-01,9.99999e-01,9.88039e-01,9.95841e-01,4.63231e-01,9.99981e-01
1.031838492e+00,4.22724e-01,9.99999e-01,9.99999e-01,9.01361e-01,9.96980e-01,4.70326e-01,9.99994e-01
1.036997685e+00,2.36350e-02,9.99999e-01,9.99999e-01,4.95764e-02,9.98202e-01,4.77387e-01,9.99998e-01
1.042182673e+00,1.60588e-03,9.99999e-01,9.99999e-01,3.32057e-03,9.97852e-01,4.84410e-01,9.99999e-01
1.047393587e+00,4.13160e-03,9.99999e-01,9.99999e-01,8.42779e-03,9.97156e-01,4.91395e-01,9.99998e-01
1.052630555e+00,4.52507e-07,9.99999e-01,9.99999e-01,9.10265e-07,9.96095e-01,4.98340e-01,9.99998e-01
1.057893707e+00,1.72984e-06,9.99999e-01,9.99999e-01,3.43538e-06,9.93483e-01,5.05243e-01,9.99997e-01
1.063183176e+00,4.60817e-05,9.99999e-01,9.99999e-01,9.05433e-05,9.89307e-01,5.12103e-01,9.99993e-01
1.068499092e+00,4.64044e-04,9.99999e-01,9.99999e-01,9.04940e-04,9.82178e-01,5.18917e-01,9.99987e-01
1.073841587e+00,5.67584e-03,9.99999e-01,9.99999e-01,1.09617e-02,9.79166e-01,5.25685e-01,9.99973e-01
