#,Wave/freq,Total,N2,O2,CO2,H2O,Rayleigh,CIA
4.000000000e-01,4.11827e-15,9.99999e-01,9.99999e-01,9.99999e-01,9.99935e-01,4.11854e-15,9.99999e-01
4.020000000e-01,7.92798e-15,9.99999e-01,9.99999e-01,9.99999e-01,9.99960e-01,7.92829e-15,9.99999e-01
4.040100000e-01,1.50556e-14,9.99999e-01,9.99999e-01,9.99999e-01,9.99982e-01,1.50559e-14,9.99999e-01
4.060300500e-01,2.82312e-14,9.99999e-01,9.99999e-01,9.99999e-01,9.99995e-01,2.82313e-14,9.99999e-01
4.080602003e-01,5.22831e-14,9.99999e-01,9.99999e-01,9.99999e-01,9.99998e-01,5.22832e-14,9.99999e-01
4.101005013e-01,9.56549e-14,9.99999e-01,9.99999e-01,9.99999e-01,9.99999e-01,9.56549e-14,9.99999e-01
4.121510038e-01,1.72930e-13,9.99999e-01,9.99999e-01,9.99999e-01,9.99997e-01,1.72930e-13,9.99999e-01
4.142117588e-01,3.08992e-13,9.99999e-01,9.99999e-01,9.99999e-01,9.99981e-01,3.08997e-13,9.99999e-01
4.162828176e-01,5.45788e-13,9.99999e-01,9.99999e-01,9.99999e-01,9.99920e-01,5.45831e-13,9.99999e-01
4.183642317e-01,9.53370e-13,9.99999e-01,9.99999e-01,9.99999e-01,9.99952e-01,9.53415e-13,9.99999e-01
4.204560528e-01,1.64706e-12,9.99999e-01,9.99999e-01,9.99999e-01,9.99970e-01,1.64710e-12,9.99999e-01
4.225583331e-01,2.81491e-12,9.99999e-01,9.99999e-01,9.99999e-01,9.99988e-01,2.81495e-12,9.99999e-01
4.246711247e-01,4.76012e-12,9.99999e-01,9.99999e-01,9.99999e-01,9.99990e-01,4.76016e-12,9.99999e-01
4.267944804e-01,7.96638e-12,9.99999e-01,9.99999e-01,9.99999e-01,9.99986e-01,7.96648e-12,9.99999e-01
4.289284528e-01,1.31974e-11,9.99999e-01,9.99999e-01,9.99999e-01,9.99989e-01,1.31976e-11,9.99999e-01
4.310730950e-01,2.16466e-11,9.99999e-01,9.99999e-01,9.99999e-01,9.99995e-01,2.16467e-11,9.99999e-01
4.332284605e-01,3.51595e-11,9.99999e-01,9.99999e-01,9.99999e-01,9.99998e-01,3.51596e-11,9.99999e-01
4.353946028e-01,5.65633e-11,9.99999e-01,9.99999e-01,9.99999e-01,9.99999e-01,5.65634e-11,9.99999e-01
4.375715758e-01,9.01456e-11,9.99999e-01,9.99999e-01,9.99999e-01,9.99991e-01,9.01463e-11,9.99999e-01
4.397594337e-01,1.42342e-10,9.99999e-01,9.99999e-01,9.99999e-01,9.99930e-01,1.42352e-10,9.99999e-01
4.419582309e-01,2.22692e-10,9.99999e-01,9.99999e-01,9.99999e-01,9.99647e-01,2.22771e-10,9.99999e-01
4.441680220e-01,3.45456e-10,9.99999e-01,9.99999e-01,9.99999e-01,9.99724e-01,3.45551e-10,9.99999e-01
4.463888621e-01,5.31221e-10,9.99999e-01,9.99999e-01,9.99999e-01,9.99713e-01,5.31373e-10,9.99999e-01
4.486208064e-01,8.10063e-10,9.99999e-01,9.99999e-01,9.99999e-01,9.99821e-01,8.10207e-10,9.99999e-01
4.508639105e-01,1.22500e-09,9.99999e-01,9.99999e-01,9.99999e-01,9.99916e-01,1.22511e-09,9.99999e-01
4.531182300e-01,1.83734e-09,9.99999e-01,9.99999e-01,9.99999e-01,9.99966e-01,1.83740e-09,9.99999e-01
4.553838212e-01,2.73368e-09,9.99999e-01,9.99999e-01,9.99999e-01,9.99977e-01,2.73375e-09,9.99999e-01
4.576607403e-01,4.03551e-09,9.99999e-01,9.99999e-01,9.99999e-01,9.99989e-01,4.03556e-09,9.99999e-01
4.599490440e-01,5.91159e-09,9.99999e-01,9.99999e-01,9.99999e-01,9.99992e-01,5.91163e-09,9.99999e-01
4.622487892e-01,8.59481e-09,9.99999e-01,9.99999e-01,9.99999e-01,9.99998e-01,8.59482e-09,9.99999e-01
4.645600332e-01,1.24038e-08,9.99999e-01,9.99999e-01,9.99999e-01,9.99994e-01,1.24038e-08,9.99999e-01
4.668828333e-01,1.77701e-08,9.99999e-01,9.99999e-01,9.99999e-01,9.99915e-01,1.77716e-08,9.99999e-01
4.692172475e-01,2.52776e-08,9.99999e-01,9.99999e-01,9.99999e-01,9.99820e-01,2.52822e-08,9.99999e-01
4.715633337e-01,3.57130e-08,9.99999e-01,9.99999e-01,9.99999e-01,9.99882e-01,3.57172e-08,9.99999e-01
4.739211504e-01,5.01104e-08,9.99999e-01,9.99999e-01,9.99999e-01,9.99887e-01,5.01160e-08,9.99999e-01
4.762907561e-01,6.98466e-08,9.99999e-01,9.99999e-01,9.99999e-01,9.99941e-01,6.98506e-08,9.99999e-01
4.786722099e-01,9.67176e-08,9.99999e-01,9.99999e-01,9.99999e-01,9.99975e-01,9.67199e-08,9.99999e-01
4.810655710e-01,1.33066e-07,9.99999e-01,9.99999e-01,9.99999e-01,9.99992e-01,1.33067e-07,9.99999e-01
4.834708988e-01,1.81910e-07,9.99999e-01,9.99999e-01,9.99999e-01,9.99930e-01,1.81922e-07,9.99999e-01
4.858882533e-01,2.47152e-07,9.99999e-01,9.99999e-01,9.99999e-01,9.99872e-01,2.47184e-07,9.99999e-01
4.883176946e-01,3.33793e-07,9.99999e-01,9.99999e-01,9.99999e-01,9.99893e-01,3.33829e-07,9.99999e-01
4.907592831e-01,4.48135e-07,9.99999e-01,9.99999e-01,9.99999e-01,9.99903e-01,4.48178e-07,9.99999e-01
4.932130795e-01,5.98164e-07,9.99999e-01,9.99999e-01,9.99999e-01,9.99931e-01,5.98205e-07,9.99999e-01
4.956791449e-01,7.93884e-07,9.99999e-01,9.99999e-01,9.99999e-01,9.99963e-01,7.93912e-07,9.99999e-01
4.981575406e-01,1.04758e-06,9.99999e-01,9.99999e-01,9.99999e-01,9.99819e-01,1.04777e-06,9.99999e-01
5.006483283e-01,1.37460e-06,9.99999e-01,9.99999e-01,9.99999e-01,9.99532e-01,1.37525e-06,9.99996e-01
5.031515699e-01,1.79111e-06,9.99999e-01,9.99999e-01,9.99999e-01,9.97632e-01,1.79541e-06,9.99974e-01
5.056673278e-01,2.32864e-06,9.99999e-01,9.99999e-01,9.99999e-01,9.98749e-01,2.33162e-06,9.99971e-01
5.081956644e-01,3.00758e-06,9.99999e-01,9.99999e-01,9.99999e-01,9.98423e-01,3.01238e-06,9.99981e-01
5.107366428e-01,3.86813e-06,9.99999e-01,9.99999e-01,9.99999e-01,9.98935e-01,3.87227e-06,9.99996e-01
5.132903260e-01,4.94997e-06,9.99999e-01,9.99999e-01,9.99999e-01,9.99391e-01,4.95298e-06,9.99999e-01
5.158567776e-01,6.30296e-06,9.99999e-01,9.99999e-01,9.99999e-01,9.99742e-01,6.30458e-06,9.99999e-01
5.184360615e-01,7.98604e-06,9.99999e-01,9.99999e-01,9.99999e-01,9.99896e-01,7.98686e-06,9.99999e-01
5.210282418e-01,1.00705e-05,9.99999e-01,9.99999e-01,9.99999e-01,9.99961e-01,1.00709e-05,9.99999e-01
5.236333830e-01,1.26387e-05,9.99999e-01,9.99999e-01,9.99999e-01,9.99845e-01,1.26406e-05,9.99998e-01
5.262515499e-01,1.57935e-05,9.99999e-01,9.99999e-01,9.99999e-01,9.99902e-01,1.57950e-05,9.99998e-01
5.288828077e-01,1.96482e-05,9.99999e-01,9.99999e-01,9.99999e-01,9.99910e-01,1.96500e-05,9.99998e-01
5.315272217e-01,2.43386e-05,9.99999e-01,9.99999e-01,9.99999e-01,9.99921e-01,2.43405e-05,9.99999e-01
5.341848578e-01,3.00219e-05,9.99999e-01,9.99999e-01,9.99999e-01,9.99948e-01,3.00235e-05,9.99999e-01
5.368557821e-01,3.68735e-05,9.99999e-01,9.99999e-01,9.99999e-01,9.99819e-01,3.68801e-05,9.99999e-01
5.395400610e-01,4.50894e-05,9.99999e-01,9.99999e-01,9.99999e-01,9.99350e-01,4.51190e-05,9.99994e-01
5.422377613e-01,5.49320e-05,9.99999e-01,9.99999e-01,9.99999e-01,9.99161e-01,5.49789e-05,9.99984e-01
5.449489501e-01,6.66795e-05,9.99999e-01,9.99999e-01,9.99999e-01,9.99219e-01,6.67326e-05,9.99983e-01
5.476736949e-01,8.06333e-05,9.99999e-01,9.99999e-01,9.99999e-01,9.99309e-01,8.06896e-05,9.99991e-01
5.504120634e-01,9.71515e-05,9.99999e-01,9.99999e-01,9.99999e-01,9.99498e-01,9.72004e-05,9.99997e-01
5.531641237e-01,1.16630e-04,9.99999e-01,9.99999e-01,9.99999e-01,9.99747e-01,1.16660e-04,9.99999e-01
5.559299443e-01,1.39494e-04,9.99999e-01,9.99999e-01,9.99999e-01,9.99877e-01,1.39511e-04,9.99999e-01
5.587095940e-01,1.66238e-04,9.99999e-01,9.99999e-01,9.99999e-01,9.99923e-01,1.66251e-04,9.99999e-01
5.615031420e-01,1.97413e-04,9.99999e-01,9.99999e-01,9.99999e-01,9.99914e-01,1.97430e-04,9.99999e-01
5.643106577e-01,2.33639e-04,9.99999e-01,9.99999e-01,9.99999e-01,9.99903e-01,2.33662e-04,9.99998e-01
5.671322110e-01,2.75298e-04,9.99999e-01,9.99999e-01,9.99999e-01,9.98827e-01,2.75624e-04,9.99989e-01
5.699678720e-01,3.23649e-04,9.99999e-01,9.99999e-01,9.99999e-01,9.98754e-01,3.24063e-04,9.99967e-01
5.728177114e-01,3.79296e-04,9.99999e-01,9.99999e-01,9.99999e-01,9.98702e-01,3.79798e-04,9.99972e-01
5.756818000e-01,4.43191e-04,9.99999e-01,9.99999e-01,9.99999e-01,9.98809e-01,4.43726e-04,9.99983e-01
5.785602090e-01,5.16286e-04,9.99999e-01,9.99999e-01,9.99999e-01,9.98962e-01,5.16824e-04,9.99994e-01
5.814530100e-01,5.99527e-04,9.99999e-01,9.99999e-01,9.99999e-01,9.98957e-01,6.00154e-04,9.99997e-01
5.843602750e-01,6.93996e-04,9.99999e-01,9.99999e-01,9.99999e-01,9.98757e-01,6.94864e-04,9.99992e-01
5.872820764e-01,7.93589e-04,9.99999e-01,9.99999e-01,9.99999e-01,9.89345e-01,8.02195e-04,9.99924e-01
5.902184868e-01,9.11376e-04,9.99999e-01,9.99999e-01,9.99999e-01,9.87092e-01,9.23482e-04,9.99794e-01
5.931695792e-01,1.05027e-03,9.99999e-01,9.99999e-01,9.99999e-01,9.90872e-01,1.06015e-03,9.99802e-01
5.961354271e-01,1.20146e-03,9.99999e-01,9.99999e-01,9.99999e-01,9.89993e-01,1.21374e-03,9.99886e-01
5.991161043e-01,1.37569e-03,9.99999e-01,9.99999e-01,9.99999e-01,9.92691e-01,1.38586e-03,9.99964e-01
6.021116848e-01,1.57170e-03,9.99999e-01,9.99999e-01,9.99999e-01,9.95847e-01,1.57826e-03,9.99995e-01
6.051222432e-01,1.78899e-03,9.99999e-01,9.99999e-01,9.99999e-01,9.97896e-01,1.79276e-03,9.99999e-01
6.081478544e-01,2.02944e-03,9.99999e-01,9.99999e-01,9.99999e-01,9.99092e-01,2.03129e-03,9.99999e-01
6.111885937e-01,2.29500e-03,9.99999e-01,9.99999e-01,9.99999e-01,9.99615e-01,2.29588e-03,9.99999e-01
6.142445367e-01,2.58823e-03,9.99999e-01,9.99999e-01,9.99999e-01,9.99828e-01,2.58867e-03,9.99999e-01
6.173157594e-01,2.91162e-03,9.99999e-01,9.99999e-01,9.99999e-01,9.99905e-01,2.91189e-03,9.99999e-01
6.204023382e-01,3.26760e-03,9.99999e-01,9.99999e-01,9.99999e-01,9.99919e-01,3.26787e-03,9.99999e-01
6.235043498e-01,3.65772e-03,9.99999e-01,9.99999e-01,9.99999e-01,9.99646e-01,3.65901e-03,9.99998e-01
6.266218716e-01,4.08016e-03,9.99999e-01,9.99999e-01,9.99999e-01,9.98134e-01,4.08783e-03,9.99986e-01
6.297549810e-01,4.55369e-03,9.99999e-01,9.99999e-01,9.99999e-01,9.99315e-01,4.55693e-03,9.99973e-01
6.329037559e-01,5.06200e-03,9.99999e-01,9.99999e-01,9.99999e-01,9.98647e-01,5.06896e-03,9.99978e-01
6.360682746e-01,5.62014e-03,9.99999e-01,9.99999e-01,9.99999e-01,9.98847e-01,5.62669e-03,9.99987e-01
6.392486160e-01,6.22357e-03,9.99999e-01,9.99999e-01,9.99999e-01,9.98507e-01,6.23291e-03,9.99994e-01
6.424448591e-01,6.87668e-03,9.99999e-01,9.99999e-01,9.99999e-01,9.98002e-01,6.89051e-03,9.99990e-01
6.456570834e-01,7.53175e-03,9.99999e-01,9.99999e-01,9.99999e-01,9.90756e-01,7.60241e-03,9.99948e-01
6.488853688e-01,8.31370e-03,9.99999e-01,9.99999e-01,9.99999e-01,9.93228e-01,8.37158e-03,9.99855e-01
6.521297956e-01,9.13648e-03,9.99999e-01,9.99999e-01,9.99999e-01,9.93100e-01,9.20105e-03,9.99880e-01
6.553904446e-01,1.00236e-02,9.99999e-01,9.99999e-01,9.99999e-01,9.93125e-01,1.00938e-02,9.99911e-01
6.586673968e-01,1.09876e-02,9.99999e-01,9.99999e-01,9.99999e-01,9.94112e-01,1.10530e-02,9.99969e-01
6.619607338e-01,1.20419e-02,9.99999e-01,9.99999e-01,9.99999e-01,9.96714e-01,1.20817e-02,9.99993e-01
6.652705375e-01,1.31568e-02,9.99999e-01,9.99999e-01,9.99999e-01,9.98026e-01,1.31829e-02,9.99996e-01
6.685968902e-01,1.43465e-02,9.99999e-01,9.99999e-01,9.99999e-01,9.99082e-01,1.43597e-02,9.99998e-01
6.719398746e-01,1.56085e-02,9.99999e-01,9.99999e-01,9.99999e-01,9.99574e-01,1.56151e-02,9.99999e-01
6.752995740e-01,1.69484e-02,9.99999e-01,9.99999e-01,9.99999e-01,9.99769e-01,1.69523e-02,9.99999e-01
6.786760719e-01,1.83679e-02,9.99999e-01,9.99999e-01,9.99999e-01,9.99667e-01,1.83740e-02,9.99999e-01
6.820694522e-01,1.98720e-02,9.99999e-01,9.99999e-01,9.99999e-01,9.99430e-01,1.98834e-02,9.99996e-01
6.854797995e-01,2.14673e-02,9.99999e-01,9.99999e-01,9.99999e-01,9.99265e-01,2.14832e-02,9.99993e-01
6.889071985e-01,2.31348e-02,9.99999e-01,9.99999e-01,9.99999e-01,9.98222e-01,2.31763e-02,9.99983e-01
6.923517345e-01,2.42475e-02,9.99999e-01,9.99999e-01,9.99999e-01,9.71378e-01,2.49655e-02,9.99860e-01
6.958134932e-01,2.64432e-02,9.99999e-01,9.99999e-01,9.99999e-01,9.85036e-01,2.68532e-02,9.99691e-01
6.992925606e-01,2.84232e-02,9.99999e-01,9.99999e-01,9.99999e-01,9.85747e-01,2.88421e-02,9.99722e-01
7.027890234e-01,3.03848e-02,9.99999e-01,9.99999e-01,9.99999e-01,9.82432e-01,3.09347e-02,9.99787e-01
7.063029686e-01,3.26395e-02,9.99999e-01,9.99999e-01,9.99999e-01,9.85204e-01,3.31332e-02,9.99894e-01
7.098344834e-01,3.49343e-02,9.99999e-01,9.99999e-01,9.99999e-01,9.85797e-01,3.54398e-02,9.99937e-01
7.133836558e-01,3.71380e-02,9.99999e-01,9.99999e-01,9.99999e-01,9.81136e-01,3.78567e-02,9.99875e-01
7.169505741e-01,3.46698e-02,9.99999e-01,9.99999e-01,9.99999e-01,8.59303e-01,4.03857e-02,9.99024e-01
7.205353270e-01,3.98742e-02,9.99999e-01,9.99999e-01,9.99999e-01,9.28284e-01,4.30287e-02,9.98280e-01
7.241380036e-01,4.15868e-02,9.99999e-01,9.99999e-01,9.99999e-01,9.09612e-01,4.57873e-02,9.98514e-01
7.277586936e-01,4.46227e-02,9.99999e-01,9.99999e-01,9.99999e-01,9.18088e-01,4.86629e-02,9.98785e-01
7.313974871e-01,4.71311e-02,9.99999e-01,9.99999e-01,9.99999e-01,9.12902e-01,5.16570e-02,9.99430e-01
7.350544745e-01,5.20972e-02,9.99999e-01,9.99999e-01,9.99999e-01,9.51374e-01,5.47707e-02,9.99801e-01
7.387297469e-01,5.59081e-02,9.99999e-01,9.99999e-01,9.99999e-01,9.63937e-01,5.80050e-02,9.99908e-01
7.424233956e-01,6.02664e-02,9.99999e-01,9.99999e-01,9.99999e-01,9.82184e-01,6.13606e-02,9.99982e-01
7.461355126e-01,6.41356e-02,9.99999e-01,9.99999e-01,9.99999e-01,9.89164e-01,6.48383e-02,9.99996e-01
7.498661902e-01,6.80924e-02,9.99999e-01,9.99999e-01,9.99999e-01,9.94941e-01,6.84386e-02,9.99998e-01
7.536155211e-01,7.19824e-02,9.99999e-01,9.99999e-01,9.99999e-01,9.97515e-01,7.21617e-02,9.99998e-01
7.573835987e-01,7.59106e-02,9.99999e-01,9.99999e-01,9.99999e-01,9.98720e-01,7.60078e-02,9.99999e-01
7.611705167e-01,7.99132e-02,9.99999e-01,9.99999e-01,9.99999e-01,9.99204e-01,7.99768e-02,9.99999e-01
7.649763693e-01,8.40266e-02,9.99999e-01,9.99999e-01,9.99999e-01,9.99501e-01,8.40685e-02,9.99999e-01
7.688012511e-01,8.82518e-02,9.99999e-01,9.99999e-01,9.99999e-01,9.99652e-01,8.82824e-02,9.99999e-01
7.726452574e-01,9.25916e-02,9.99999e-01,9.99999e-01,9.99999e-01,9.99714e-01,9.26181e-02,9.99999e-01
7.765084837e-01,9.70353e-02,9.99999e-01,9.99999e-01,9.99999e-01,9.99593e-01,9.70747e-02,9.99999e-01
7.803910261e-01,9.26442e-02,9.99999e-01,9.99999e-01,9.12864e-01,9.98246e-01,1.01651e-01,9.99997e-01
7.842929812e-01,6.75462e-02,9.99999e-01,9.99999e-01,6.38582e-01,9.93891e-01,1.06347e-01,9.99988e-01
7.882144461e-01,6.84440e-02,9.99999e-01,9.99999e-01,6.22797e-01,9.87454e-01,1.11160e-01,9.99922e-01
7.921555184e-01,8.61774e-02,9.99999e-01,9.99999e-01,7.47257e-01,9.93104e-01,1.16090e-01,9.99850e-01
7.961162960e-01,9.82611e-02,9.99999e-01,9.99999e-01,8.21000e-01,9.87842e-01,1.21134e-01,9.99856e-01
8.000968774e-01,1.11870e-01,9.99999e-01,9.99999e-01,8.98447e-01,9.85960e-01,1.26292e-01,9.99847e-01
8.040973618e-01,1.22698e-01,9.99999e-01,9.99999e-01,9.45949e-01,9.85959e-01,1.31560e-01,9.99878e-01
8.081178486e-01,1.29307e-01,9.99999e-01,9.99999e-01,9.74785e-01,9.68670e-01,1.36938e-01,9.99886e-01
8.121584379e-01,1.23806e-01,9.99999e-01,9.99999e-01,9.92149e-01,8.76343e-01,1.42423e-01,9.99554e-01
8.162192301e-01,1.26167e-01,9.99999e-01,9.99999e-01,9.98261e-01,8.55238e-01,1.48013e-01,9.98326e-01
8.203003262e-01,1.42072e-01,9.99999e-01,9.99999e-01,9.99973e-01,9.26147e-01,1.53705e-01,9.98041e-01
8.244018279e-01,1.43180e-01,9.99999e-01,9.99999e-01,9.99999e-01,8.99098e-01,1.59497e-01,9.98440e-01
8.285238370e-01,1.50409e-01,9.99999e-01,9.99999e-01,9.99999e-01,9.10550e-01,1.65387e-01,9.98775e-01
8.326664562e-01,1.55826e-01,9.99999e-01,9.99999e-01,9.99999e-01,9.09753e-01,1.71371e-01,9.99492e-01
8.368297885e-01,1.65790e-01,9.99999e-01,9.99999e-01,9.99999e-01,9.34414e-01,1.77447e-01,9.99883e-01
8.410139374e-01,1.76341e-01,9.99999e-01,9.99999e-01,9.99999e-01,9.60463e-01,1.83612e-01,9.99931e-01
8.452190071e-01,1.86135e-01,9.99999e-01,9.99999e-01,9.99999e-01,9.80404e-01,1.89863e-01,9.99959e-01
8.494451021e-01,1.93951e-01,9.99999e-01,9.99999e-01,9.99999e-01,9.88580e-01,1.96198e-01,9.99967e-01
8.536923276e-01,2.01237e-01,9.99999e-01,9.99999e-01,9.99999e-01,9.93233e-01,2.02612e-01,9.99979e-01
8.579607893e-01,2.08229e-01,9.99999e-01,9.99999e-01,9.99999e-01,9.95827e-01,2.09103e-01,9.99994e-01
8.622505932e-01,2.15095e-01,9.99999e-01,9.99999e-01,9.99999e-01,9.97347e-01,2.15667e-01,9.99998e-01
8.665618462e-01,1.92723e-01,9.99999e-01,9.99999e-01,8.68275e-01,9.98358e-01,2.22302e-01,9.99999e-01
8.708946554e-01,7.59372e-02,9.99999e-01,9.99999e-01,3.32169e-01,9.98120e-01,2.29004e-01,9.99998e-01
8.752491287e-01,9.38305e-02,9.99999e-01,9.99999e-01,3.98908e-01,9.97486e-01,2.35770e-01,9.99996e-01
8.796253743e-01,1.44122e-01,9.99999e-01,9.99999e-01,5.95996e-01,9.96520e-01,2.42596e-01,9.99991e-01
8.840235012e-01,1.89076e-01,9.99999e-01,9.99999e-01,7.60793e-01,9.96026e-01,2.49478e-01,9.99975e-01
8.884436187e-01,2.26829e-01,9.99999e-01,9.99999e-01,8.97205e-01,9.85618e-01,2.56415e-01,9.99930e-01
8.928858368e-01,2.16811e-01,9.99999e-01,9.99999e-01,9.56898e-01,8.59529e-01,2.63401e-01,9.99602e-01
8.973502660e-01,2.04651e-01,9.99999e-01,9.99999e-01,9.89358e-01,7.65951e-01,2.70434e-01,9.97964e-01
9.018370173e-01,2.41184e-01,9.99999e-01,9.99999e-01,9.98821e-01,8.72820e-01,2.77511e-01,9.96802e-01
9.063462024e-01,2.44987e-01,9.99999e-01,9.99999e-01,9.70671e-01,8.86761e-01,2.84627e-01,9.97190e-01
9.108779334e-01,2.25638e-01,9.99999e-01,9.99999e-01,9.32962e-01,8.29250e-01,2.91780e-01,9.97080e-01
9.154323231e-01,2.37295e-01,9.99999e-01,9.99999e-01,9.83843e-01,8.07877e-01,2.98967e-01,9.97586e-01
9.200094847e-01,2.15067e-01,9.99999e-01,9.99999e-01,8.12947e-01,8.46549e-01,3.06182e-01,9.98648e-01
9.246095321e-01,1.75946e-01,9.99999e-01,9.99999e-01,7.13526e-01,7.76817e-01,3.13425e-01,9.98442e-01
9.292325798e-01,5.29478e-02,9.99999e-01,9.99999e-01,7.71139e-01,2.03685e-01,3.20691e-01,9.93941e-01
9.338787427e-01,3.34362e-02,9.99999e-01,9.99999e-01,7.75580e-01,1.27947e-01,3.27976e-01,9.75192e-01
9.385481364e-01,1.19629e-01,9.99999e-01,9.99999e-01,8.28364e-01,4.32632e-01,3.35278e-01,9.70565e-01
9.432408771e-01,9.82154e-02,9.99999e-01,9.99999e-01,8.90559e-01,3.25526e-01,3.42594e-01,9.74553e-01
9.479570815e-01,6.89205e-02,9.99999e-01,9.99999e-01,9.42207e-01,2.11927e-01,3.49920e-01,9.79240e-01
9.526968669e-01,1.03649e-01,9.99999e-01,9.99999e-01,9.71735e-01,3.00798e-01,3.57254e-01,9.87286e-01
9.574603512e-01,1.14126e-01,9.99999e-01,9.99999e-01,9.87804e-01,3.18286e-01,3.64592e-01,9.93521e-01
9.622476530e-01,1.43126e-01,9.99999e-01,9.99999e-01,9.96179e-01,3.87793e-01,3.71931e-01,9.95515e-01
9.670588912e-01,2.17668e-01,9.99999e-01,9.99999e-01,9.98854e-01,5.76247e-01,3.79268e-01,9.96930e-01
9.718941857e-01,2.70936e-01,9.99999e-01,9.99999e-01,9.99918e-01,7.02446e-01,3.86601e-01,9.97739e-01
9.767536566e-01,2.93179e-01,9.99999e-01,9.99999e-01,9.99999e-01,7.45534e-01,3.93927e-01,9.98272e-01
9.816374249e-01,3.22255e-01,9.99999e-01,9.99999e-01,9.99999e-01,8.03622e-01,4.01243e-01,9.99401e-01
9.865456120e-01,3.56203e-01,9.99999e-01,9.99999e-01,9.99999e-01,8.71987e-01,4.08546e-01,9.99874e-01
9.914783401e-01,3.81995e-01,9.99999e-01,9.99999e-01,9.99999e-01,9.18655e-01,4.15834e-01,9.99964e-01
9.964357318e-01,4.03989e-01,9.99999e-01,9.99999e-01,9.99999e-01,9.54841e-01,4.23104e-01,9.99979e-01
1.001417910e+00,4.18581e-01,9.99999e-01,9.99999e-01,9.99999e-01,9.72673e-01,4.30354e-01,9.99968e-01
1.006425000e+00,4.30704e-01,9.99999e-01,9.99999e-01,9.99999e-01,9.84326e-01,4.37581e-01,9.99955e-01
1.011457125e+00,4.40427e-01,9.99999e-01,9.99999e-01,9.99999e-01,9.90245e-01,4.44783e-01,9.99958e-01
1.016514411e+00,4.48948e-01,9.99999e-01,9.99999e-01,9.99999e-01,9.93367e-01,4.51959e-01,9.99970e-01
1.021596983e+00,4.56590e-01,9.99999e-01,9.99999e-01,9.99839e-01,9.94711e-01,4.59104e-01,9.99970e-01
1.026704968e+00,4.58866e-01,9.99999e-01,9.99999e-01,9.88311e-01,9.95873e-01,4.66218e-01,9.99980e-01
1.031838492e+00,4.27001e-01,9.99999e-01,9.99999e-01,9.04750e-01,9.96999e-01,4.73299e-01,9.99994e-01
1.036997685e+00,2.43477e-02,9.99999e-01,9.99999e-01,5.07563e-02,9.98216e-01,4.80344e-01,9.99998e-01
1.042182673e+00,1.66735e-03,9.99999e-01,9.99999e-01,3.42682e-03,9.97873e-01,4.87352e-01,9.99999e-01
1.047393587e+00,4.33535e-03,9.99999e-01,9.99999e-01,8.79091e-03,9.97181e-01,4.94320e-01,9.99998e-01
1.052630555e+00,5.01929e-07,9.99999e-01,9.99999e-01,1.00381e-06,9.96134e-01,5.01248e-01,9.99998e-01
1.057893707e+00,1.89190e-06,9.99999e-01,9.99999e-01,3.73571e-06,9.93553e-01,5.08133e-01,9.99997e-01
1.063183176e+00,4.92572e-05,9.99999e-01,9.99999e-01,9.62380e-05,9.89414e-01,5.14973e-01,9.99993e-01
1.068499092e+00,4.92770e-04,9.99999e-01,9.99999e-01,9.55634e-04,9.82339e-01,5.21768e-01,9.99987e-01
1.073841587e+00,5.89210e-03,9.99999e-01,9.99999e-01,1.13167e-02,9.79379e-01,5.28516e-01,9.99973e-01
