#,Wave/freq,Total,N2,O2,CO2,H2O,Rayleigh,CIA
4.000000000e-01,3.95856e-04,9.99999e-01,9.99999e-01,9.99999e-01,9.99984e-01,3.95862e-04,9.99999e-01
4.020000000e-01,4.62186e-04,9.99999e-01,9.99999e-01,9.99999e-01,9.99990e-01,4.62190e-04,9.99999e-01
4.040100000e-01,5.37895e-04,9.99999e-01,9.99999e-01,9.99999e-01,9.99995e-01,5.37897e-04,9.99999e-01
4.060300500e-01,6.24130e-04,9.99999e-01,9.99999e-01,9.99999e-01,9.99998e-01,6.24131e-04,9.99999e-01
4.080602003e-01,7.22066e-04,9.99999e-01,9.99999e-01,9.99999e-01,9.99999e-01,7.22066e-04,9.99999e-01
4.101005013e-01,8.32967e-04,9.99999e-01,9.99999e-01,9.99999e-01,9.99999e-01,8.32967e-04,9.99999e-01
4.121510038e-01,9.58193e-04,9.99999e-01,9.99999e-01,9.99999e-01,9.99998e-01,9.58193e-04,9.99999e-01
4.142117588e-01,1.09920e-03,9.99999e-01,9.99999e-01,9.99999e-01,9.99995e-01,1.09920e-03,9.99999e-01
4.162828176e-01,1.25752e-03,9.99999e-01,9.99999e-01,9.99999e-01,9.99980e-01,1.25754e-03,9.99999e-01
4.183642317e-01,1.43486e-03,9.99999e-01,9.99999e-01,9.99999e-01,9.99988e-01,1.43488e-03,9.99999e-01
4.204560528e-01,1.63294e-03,9.99999e-01,9.99999e-01,9.99999e-01,9.99992e-01,1.63296e-03,9.99999e-01
4.225583331e-01,1.85363e-03,9.99999e-01,9.99999e-01,9.99999e-01,9.99996e-01,1.85364e-03,9.99999e-01
4.246711247e-01,2.09888e-03,9.99999e-01,9.99999e-01,9.99999e-01,9.99997e-01,2.09888e-03,9.99999e-01
4.267944804e-01,2.37074e-03,9.99999e-01,9.99999e-01,9.99999e-01,9.99996e-01,2.37075e-03,9.99999e-01
4.289284528e-01,2.67139e-03,9.99999e-01,9.99999e-01,9.99999e-01,9.99997e-01,2.67140e-03,9.99999e-01
4.310730950e-01,3.00307e-03,9.99999e-01,9.99999e-01,9.99999e-01,9.99998e-01,3.00308e-03,9.99999e-01
4.332284605e-01,3.36814e-03,9.99999e-01,9.99999e-01,9.99999e-01,9.99999e-01,3.36815e-03,9.99999e-01
4.353946028e-01,3.76904e-03,9.99999e-01,9.99999e-01,9.99999e-01,9.99999e-01,3.76904e-03,9.99999e-01
4.375715758e-01,4.20829e-03,9.99999e-01,9.99999e-01,9.99999e-01,9.99997e-01,4.20830e-03,9.99999e-01
4.397594337e-01,4.68845e-03,9.99999e-01,9.99999e-01,9.99999e-01,9.99983e-01,4.68852e-03,9.99999e-01
4.419582309e-01,5.21199e-03,9.99999e-01,9.99999e-01,9.99999e-01,9.99917e-01,5.21242e-03,9.99999e-01
4.441680220e-01,5.78236e-03,9.99999e-01,9.99999e-01,9.99999e-01,9.99934e-01,5.78273e-03,9.99999e-01
4.463888621e-01,6.40187e-03,9.99999e-01,9.99999e-01,9.99999e-01,9.99931e-01,6.40231e-03,9.99999e-01
4.486208064e-01,7.07373e-03,9.99999e-01,9.99999e-01,9.99999e-01,9.99957e-01,7.07403e-03,9.99999e-01
4.508639105e-01,7.80068e-03,9.99999e-01,9.99999e-01,9.99999e-01,9.99979e-01,7.80084e-03,9.99999e-01
4.531182300e-01,8.58565e-03,9.99999e-01,9.99999e-01,9.99999e-01,9.99991e-01,8.58572e-03,9.99999e-01
4.553838212e-01,9.43164e-03,9.99999e-01,9.99999e-01,9.99999e-01,9.99994e-01,9.43169e-03,9.99999e-01
4.576607403e-01,1.03418e-02,9.99999e-01,9.99999e-01,9.99999e-01,9.99997e-01,1.03418e-02,9.99999e-01
4.599490440e-01,1.13191e-02,9.99999e-01,9.99999e-01,9.99999e-01,9.99997e-01,1.13191e-02,9.99999e-01
4.622487892e-01,1.23667e-02,9.99999e-01,9.99999e-01,9.99999e-01,9.99999e-01,1.23667e-02,9.99999e-01
4.645600332e-01,1.34877e-02,9.99999e-01,9.99999e-01,9.99999e-01,9.99998e-01,1.34877e-02,9.99999e-01
4.668828333e-01,1.46848e-02,9.99999e-01,9.99999e-01,9.99999e-01,9.99979e-01,1.46851e-02,9.99999e-01
4.692172475e-01,1.59612e-02,9.99999e-01,9.99999e-01,9.99999e-01,9.99957e-01,1.59619e-02,9.99999e-01
4.715633337e-01,1.73207e-02,9.99999e-01,9.99999e-01,9.99999e-01,9.99971e-01,1.73212e-02,9.99999e-01
4.739211504e-01,1.87655e-02,9.99999e-01,9.99999e-01,9.99999e-01,9.99972e-01,1.87660e-02,9.99999e-01
4.762907561e-01,2.02988e-02,9.99999e-01,9.99999e-01,9.99999e-01,9.99985e-01,2.02991e-02,9.99999e-01
4.786722099e-01,2.19233e-02,9.99999e-01,9.99999e-01,9.99999e-01,9.99993e-01,2.19234e-02,9.99999e-01
4.810655710e-01,2.36417e-02,9.99999e-01,9.99999e-01,9.99999e-01,9.99997e-01,2.36417e-02,9.99999e-01
4.834708988e-01,2.54563e-02,9.99999e-01,9.99999e-01,9.99999e-01,9.99983e-01,2.54567e-02,9.99999e-01
4.858882533e-01,2.73703e-02,9.99999e-01,9.99999e-01,9.99999e-01,9.99969e-01,2.73711e-02,9.99999e-01
4.883176946e-01,2.93865e-02,9.99999e-01,9.99999e-01,9.99999e-01,9.99974e-01,2.93873e-02,9.99999e-01
4.907592831e-01,3.15070e-02,9.99999e-01,9.99999e-01,9.99999e-01,9.99976e-01,3.15077e-02,9.99999e-01
4.932130795e-01,3.37342e-02,9.99999e-01,9.99999e-01,9.99999e-01,9.99983e-01,3.37347e-02,9.99999e-01
4.956791449e-01,3.60701e-02,9.99999e-01,9.99999e-01,9.99999e-01,9.99990e-01,3.60704e-02,9.99999e-01
4.981575406e-01,3.85152e-02,9.99999e-01,9.99999e-01,9.99999e-01,9.99956e-01,3.85169e-02,9.99999e-01
5.006483283e-01,4.10714e-02,9.99999e-01,9.99999e-01,9.99999e-01,9.99889e-01,4.10760e-02,9.99998e-01
5.031515699e-01,4.37247e-02,9.99999e-01,9.99999e-01,9.99999e-01,9.99439e-01,4.37495e-02,9.99993e-01
5.056673278e-01,4.65249e-02,9.99999e-01,9.99999e-01,9.99999e-01,9.99703e-01,4.65390e-02,9.99992e-01
5.081956644e-01,4.94273e-02,9.99999e-01,9.99999e-01,9.99999e-01,9.99625e-01,4.94460e-02,9.99995e-01
5.107366428e-01,5.24584e-02,9.99999e-01,9.99999e-01,9.99999e-01,9.99747e-01,5.24717e-02,9.99998e-01
5.132903260e-01,5.56092e-02,9.99999e-01,9.99999e-01,9.99999e-01,9.99855e-01,5.56173e-02,9.99999e-01
5.158567776e-01,5.88801e-02,9.99999e-01,9.99999e-01,9.99999e-01,9.99938e-01,5.88837e-02,9.99999e-01
5.184360615e-01,6.22702e-02,9.99999e-01,9.99999e-01,9.99999e-01,9.99975e-01,6.22717e-02,9.99999e-01
5.210282418e-01,6.57813e-02,9.99999e-01,9.99999e-01,9.99999e-01,9.99990e-01,6.57819e-02,9.99999e-01
5.236333830e-01,6.94122e-02,9.99999e-01,9.99999e-01,9.99999e-01,9.99963e-01,6.94147e-02,9.99999e-01
5.262515499e-01,7.31688e-02,9.99999e-01,9.99999e-01,9.99999e-01,9.99976e-01,7.31705e-02,9.99999e-01
5.288828077e-01,7.70476e-02,9.99999e-01,9.99999e-01,9.99999e-01,9.99978e-01,7.70492e-02,9.99999e-01
5.315272217e-01,8.10493e-02,9.99999e-01,9.99999e-01,9.99999e-01,9.99981e-01,8.10508e-02,9.99999e-01
5.341848578e-01,8.51739e-02,9.99999e-01,9.99999e-01,9.99999e-01,9.99987e-01,8.51749e-02,9.99999e-01
5.368557821e-01,8.94175e-02,9.99999e-01,9.99999e-01,9.99999e-01,9.99957e-01,8.94213e-02,9.99999e-01
5.395400610e-01,9.37747e-02,9.99999e-01,9.99999e-01,9.99999e-01,9.99847e-01,9.37891e-02,9.99998e-01
5.422377613e-01,9.82578e-02,9.99999e-01,9.99999e-01,9.99999e-01,9.99800e-01,9.82777e-02,9.99995e-01
5.449489501e-01,1.02867e-01,9.99999e-01,9.99999e-01,9.99999e-01,9.99815e-01,1.02886e-01,9.99995e-01
5.476736949e-01,1.07595e-01,9.99999e-01,9.99999e-01,9.99999e-01,9.99835e-01,1.07613e-01,9.99997e-01
5.504120634e-01,1.12444e-01,9.99999e-01,9.99999e-01,9.99999e-01,9.99880e-01,1.12457e-01,9.99999e-01
5.531641237e-01,1.17411e-01,9.99999e-01,9.99999e-01,9.99999e-01,9.99939e-01,1.17418e-01,9.99999e-01
5.559299443e-01,1.22489e-01,9.99999e-01,9.99999e-01,9.99999e-01,9.99970e-01,1.22492e-01,9.99999e-01
5.587095940e-01,1.27677e-01,9.99999e-01,9.99999e-01,9.99999e-01,9.99981e-01,1.27679e-01,9.99999e-01
5.615031420e-01,1.32974e-01,9.99999e-01,9.99999e-01,9.99999e-01,9.99979e-01,1.32977e-01,9.99999e-01
5.643106577e-01,1.38380e-01,9.99999e-01,9.99999e-01,9.99999e-01,9.99976e-01,1.38384e-01,9.99999e-01
5.671322110e-01,1.43857e-01,9.99999e-01,9.99999e-01,9.99999e-01,9.99725e-01,1.43896e-01,9.99997e-01
5.699678720e-01,1.49468e-01,9.99999e-01,9.99999e-01,9.99999e-01,9.99702e-01,1.49514e-01,9.99991e-01
5.728177114e-01,1.55184e-01,9.99999e-01,9.99999e-01,9.99999e-01,9.99693e-01,1.55233e-01,9.99993e-01
5.756818000e-01,1.61005e-01,9.99999e-01,9.99999e-01,9.99999e-01,9.99717e-01,1.61051e-01,9.99995e-01
5.785602090e-01,1.66924e-01,9.99999e-01,9.99999e-01,9.99999e-01,9.99753e-01,1.66966e-01,9.99998e-01
5.814530100e-01,1.72932e-01,9.99999e-01,9.99999e-01,9.99999e-01,9.99753e-01,1.72975e-01,9.99998e-01
5.843602750e-01,1.79022e-01,9.99999e-01,9.99999e-01,9.99999e-01,9.99707e-01,1.79075e-01,9.99997e-01
5.872820764e-01,1.84792e-01,9.99999e-01,9.99999e-01,9.99999e-01,9.97477e-01,1.85263e-01,9.99981e-01
5.902184868e-01,1.90938e-01,9.99999e-01,9.99999e-01,9.99999e-01,9.96925e-01,1.91536e-01,9.99951e-01
5.931695792e-01,1.97454e-01,9.99999e-01,9.99999e-01,9.99999e-01,9.97831e-01,1.97892e-01,9.99952e-01
5.961354271e-01,2.03835e-01,9.99999e-01,9.99999e-01,9.99999e-01,9.97619e-01,2.04327e-01,9.99971e-01
5.991161043e-01,2.10470e-01,9.99999e-01,9.99999e-01,9.99999e-01,9.98262e-01,2.10838e-01,9.99991e-01
6.021116848e-01,2.17207e-01,9.99999e-01,9.99999e-01,9.99999e-01,9.99013e-01,2.17421e-01,9.99998e-01
6.051222432e-01,2.23963e-01,9.99999e-01,9.99999e-01,9.99999e-01,9.99500e-01,2.24074e-01,9.99999e-01
6.081478544e-01,2.30744e-01,9.99999e-01,9.99999e-01,9.99999e-01,9.99784e-01,2.30794e-01,9.99999e-01
6.111885937e-01,2.37554e-01,9.99999e-01,9.99999e-01,9.99999e-01,9.99908e-01,2.37575e-01,9.99999e-01
6.142445367e-01,2.44407e-01,9.99999e-01,9.99999e-01,9.99999e-01,9.99958e-01,2.44417e-01,9.99999e-01
6.173157594e-01,2.51309e-01,9.99999e-01,9.99999e-01,9.99999e-01,9.99977e-01,2.51314e-01,9.99999e-01
6.204023382e-01,2.58259e-01,9.99999e-01,9.99999e-01,9.99999e-01,9.99980e-01,2.58264e-01,9.99999e-01
6.235043498e-01,2.65242e-01,9.99999e-01,9.99999e-01,9.99999e-01,9.99917e-01,2.65263e-01,9.99999e-01
6.266218716e-01,2.72187e-01,9.99999e-01,9.99999e-01,9.99999e-01,9.99558e-01,2.72308e-01,9.99996e-01
6.297549810e-01,2.79349e-01,9.99999e-01,9.99999e-01,9.99999e-01,9.99837e-01,2.79396e-01,9.99993e-01
6.329037559e-01,2.86429e-01,9.99999e-01,9.99999e-01,9.99999e-01,9.99678e-01,2.86522e-01,9.99994e-01
6.360682746e-01,2.93604e-01,9.99999e-01,9.99999e-01,9.99999e-01,9.99727e-01,2.93685e-01,9.99996e-01
6.392486160e-01,3.00772e-01,9.99999e-01,9.99999e-01,9.99999e-01,9.99646e-01,3.00879e-01,9.99998e-01
6.424448591e-01,3.07957e-01,9.99999e-01,9.99999e-01,9.99999e-01,9.99529e-01,3.08102e-01,9.99997e-01
6.456570834e-01,3.14659e-01,9.99999e-01,9.99999e-01,9.99999e-01,9.97816e-01,3.15351e-01,9.99987e-01
6.488853688e-01,3.22003e-01,9.99999e-01,9.99999e-01,9.99999e-01,9.98113e-01,3.22622e-01,9.99965e-01
6.521297956e-01,3.29361e-01,9.99999e-01,9.99999e-01,9.99999e-01,9.98357e-01,3.29913e-01,9.99970e-01
6.553904446e-01,3.36665e-01,9.99999e-01,9.99999e-01,9.99999e-01,9.98377e-01,3.37219e-01,9.99978e-01
6.586673968e-01,3.44053e-01,9.99999e-01,9.99999e-01,9.99999e-01,9.98599e-01,3.44538e-01,9.99992e-01
6.619607338e-01,3.51581e-01,9.99999e-01,9.99999e-01,9.99999e-01,9.99190e-01,3.51866e-01,9.99998e-01
6.652705375e-01,3.59032e-01,9.99999e-01,9.99999e-01,9.99999e-01,9.99530e-01,3.59201e-01,9.99998e-01
6.685968902e-01,3.66459e-01,9.99999e-01,9.99999e-01,9.99999e-01,9.99781e-01,3.66539e-01,9.99999e-01
6.719398746e-01,3.73841e-01,9.99999e-01,9.99999e-01,9.99999e-01,9.99898e-01,3.73878e-01,9.99999e-01
6.752995740e-01,3.81194e-01,9.99999e-01,9.99999e-01,9.99999e-01,9.99944e-01,3.81215e-01,9.99999e-01
6.786760719e-01,3.88516e-01,9.99999e-01,9.99999e-01,9.99999e-01,9.99921e-01,3.88546e-01,9.99999e-01
6.820694522e-01,3.95816e-01,9.99999e-01,9.99999e-01,9.99999e-01,9.99865e-01,3.95870e-01,9.99998e-01
6.854797995e-01,4.03112e-01,9.99999e-01,9.99999e-01,9.99999e-01,9.99826e-01,4.03183e-01,9.99998e-01
6.889071985e-01,4.10310e-01,9.99999e-01,9.99999e-01,9.99999e-01,9.99583e-01,4.10482e-01,9.99995e-01
6.923517345e-01,4.14898e-01,9.99999e-01,9.99999e-01,9.99999e-01,9.93167e-01,4.17765e-01,9.99966e-01
6.958134932e-01,4.23466e-01,9.99999e-01,9.99999e-01,9.99999e-01,9.96393e-01,4.25030e-01,9.99925e-01
6.992925606e-01,4.30786e-01,9.99999e-01,9.99999e-01,9.99999e-01,9.96620e-01,4.32274e-01,9.99934e-01
7.027890234e-01,4.37630e-01,9.99999e-01,9.99999e-01,9.99999e-01,9.95805e-01,4.39495e-01,9.99949e-01
7.063029686e-01,4.45105e-01,9.99999e-01,9.99999e-01,9.99999e-01,9.96475e-01,4.46690e-01,9.99974e-01
7.098344834e-01,4.52317e-01,9.99999e-01,9.99999e-01,9.99999e-01,9.96618e-01,4.53858e-01,9.99984e-01
7.133836558e-01,4.58922e-01,9.99999e-01,9.99999e-01,9.99999e-01,9.95531e-01,4.60995e-01,9.99970e-01
7.169505741e-01,4.51303e-01,9.99999e-01,9.99999e-01,9.99999e-01,9.64335e-01,4.68101e-01,9.99768e-01
7.205353270e-01,4.66521e-01,9.99999e-01,9.99999e-01,9.99999e-01,9.82192e-01,4.75172e-01,9.99592e-01
7.241380036e-01,4.71275e-01,9.99999e-01,9.99999e-01,9.99999e-01,9.77671e-01,4.82208e-01,9.99648e-01
7.277586936e-01,4.79194e-01,9.99999e-01,9.99999e-01,9.99999e-01,9.79816e-01,4.89205e-01,9.99712e-01
7.313974871e-01,4.85418e-01,9.99999e-01,9.99999e-01,9.99999e-01,9.78475e-01,4.96163e-01,9.99864e-01
7.350544745e-01,4.97125e-01,9.99999e-01,9.99999e-01,9.99999e-01,9.88209e-01,5.03079e-01,9.99952e-01
7.387297469e-01,5.05511e-01,9.99999e-01,9.99999e-01,9.99999e-01,9.91311e-01,5.09953e-01,9.99978e-01
7.424233956e-01,5.14576e-01,9.99999e-01,9.99999e-01,9.99999e-01,9.95735e-01,5.16781e-01,9.99995e-01
7.461355126e-01,5.22211e-01,9.99999e-01,9.99999e-01,9.99999e-01,9.97417e-01,5.23564e-01,9.99998e-01
7.498661902e-01,5.29660e-01,9.99999e-01,9.99999e-01,9.99999e-01,9.98794e-01,5.30299e-01,9.99999e-01
7.536155211e-01,5.36668e-01,9.99999e-01,9.99999e-01,9.99999e-01,9.99409e-01,5.36985e-01,9.99999e-01
7.573835987e-01,5.43456e-01,9.99999e-01,9.99999e-01,9.99999e-01,9.99695e-01,5.43621e-01,9.99999e-01
7.611705167e-01,5.50101e-01,9.99999e-01,9.99999e-01,9.99999e-01,9.99810e-01,5.50205e-01,9.99999e-01
7.649763693e-01,5.56671e-01,9.99999e-01,9.99999e-01,9.99999e-01,9.99881e-01,5.56737e-01,9.99999e-01
7.688012511e-01,5.63168e-01,9.99999e-01,9.99999e-01,9.99999e-01,9.99917e-01,5.63215e-01,9.99999e-01
7.726452574e-01,5.69599e-01,9.99999e-01,9.99999e-01,9.99999e-01,9.99931e-01,5.69638e-01,9.99999e-01
7.765084837e-01,5.75950e-01,9.99999e-01,9.99999e-01,9.99999e-01,9.99903e-01,5.76005e-01,9.99999e-01
7.803910261e-01,5.67496e-01,9.99999e-01,9.99999e-01,9.74943e-01,9.99586e-01,5.82316e-01,9.99999e-01
7.842929812e-01,5.24607e-01,9.99999e-01,9.99999e-01,8.92565e-01,9.98559e-01,5.88569e-01,9.99996e-01
7.882144461e-01,5.25240e-01,9.99999e-01,9.99999e-01,8.85686e-01,9.97016e-01,5.94763e-01,9.99981e-01
7.921555184e-01,5.59231e-01,9.99999e-01,9.99999e-01,9.32193e-01,9.98357e-01,6.00899e-01,9.99964e-01
7.961162960e-01,5.77334e-01,9.99999e-01,9.99999e-01,9.53927e-01,9.97119e-01,6.06975e-01,9.99965e-01
8.000968774e-01,5.95529e-01,9.99999e-01,9.99999e-01,9.74795e-01,9.96660e-01,6.12990e-01,9.99963e-01
8.040973618e-01,6.08743e-01,9.99999e-01,9.99999e-01,9.86833e-01,9.96662e-01,6.18945e-01,9.99970e-01
8.081178486e-01,6.16402e-01,9.99999e-01,9.99999e-01,9.93953e-01,9.92518e-01,6.24838e-01,9.99972e-01
8.121584379e-01,6.09957e-01,9.99999e-01,9.99999e-01,9.98118e-01,9.69070e-01,6.30669e-01,9.99894e-01
8.162192301e-01,6.12474e-01,9.99999e-01,9.99999e-01,9.99583e-01,9.63122e-01,6.36437e-01,9.99603e-01
8.203003262e-01,6.30042e-01,9.99999e-01,9.99999e-01,9.99992e-01,9.81615e-01,6.42143e-01,9.99535e-01
8.244018279e-01,6.30660e-01,9.99999e-01,9.99999e-01,9.99999e-01,9.73920e-01,6.47786e-01,9.99630e-01
8.285238370e-01,6.38775e-01,9.99999e-01,9.99999e-01,9.99999e-01,9.77950e-01,6.53366e-01,9.99709e-01
8.326664562e-01,6.44075e-01,9.99999e-01,9.99999e-01,9.99999e-01,9.77644e-01,6.58882e-01,9.99879e-01
8.368297885e-01,6.53676e-01,9.99999e-01,9.99999e-01,9.99999e-01,9.83983e-01,6.64334e-01,9.99972e-01
8.410139374e-01,6.63321e-01,9.99999e-01,9.99999e-01,9.99999e-01,9.90456e-01,6.69722e-01,9.99983e-01
8.452190071e-01,6.71874e-01,9.99999e-01,9.99999e-01,9.99999e-01,9.95308e-01,6.75047e-01,9.99989e-01
8.494451021e-01,6.78454e-01,9.99999e-01,9.99999e-01,9.99999e-01,9.97283e-01,6.80307e-01,9.99991e-01
8.536923276e-01,6.84396e-01,9.99999e-01,9.99999e-01,9.99999e-01,9.98389e-01,6.85503e-01,9.99994e-01
8.579607893e-01,6.89951e-01,9.99999e-01,9.99999e-01,9.99999e-01,9.99009e-01,6.90635e-01,9.99998e-01
8.622505932e-01,6.95265e-01,9.99999e-01,9.99999e-01,9.99999e-01,9.99369e-01,6.95703e-01,9.99999e-01
8.665618462e-01,6.58099e-01,9.99999e-01,9.99999e-01,9.39546e-01,9.99610e-01,7.00707e-01,9.99999e-01
8.708946554e-01,5.27900e-01,9.99999e-01,9.99999e-01,7.48431e-01,9.99555e-01,7.05647e-01,9.99999e-01
8.752491287e-01,5.62729e-01,9.99999e-01,9.99999e-01,7.92453e-01,9.99404e-01,7.10523e-01,9.99998e-01
8.796253743e-01,6.29374e-01,9.99999e-01,9.99999e-01,8.80539e-01,9.99177e-01,7.15336e-01,9.99997e-01
8.840235012e-01,6.73617e-01,9.99999e-01,9.99999e-01,9.36344e-01,9.99060e-01,7.20085e-01,9.99993e-01
8.884436187e-01,7.03810e-01,9.99999e-01,9.99999e-01,9.74373e-01,9.96610e-01,7.24771e-01,9.99983e-01
8.928858368e-01,6.96120e-01,9.99999e-01,9.99999e-01,9.89564e-01,9.64472e-01,7.29394e-01,9.99905e-01
8.973502660e-01,6.86059e-01,9.99999e-01,9.99999e-01,9.97445e-01,9.37552e-01,7.33954e-01,9.99517e-01
9.018370173e-01,7.13687e-01,9.99999e-01,9.99999e-01,9.99717e-01,9.67462e-01,7.38452e-01,9.99242e-01
9.063462024e-01,7.16343e-01,9.99999e-01,9.99999e-01,9.92917e-01,9.71630e-01,7.42888e-01,9.99334e-01
9.108779334e-01,7.02244e-01,9.99999e-01,9.99999e-01,9.83593e-01,9.55946e-01,7.47262e-01,9.99308e-01
9.154323231e-01,7.10904e-01,9.99999e-01,9.99999e-01,9.96102e-01,9.50069e-01,7.51574e-01,9.99428e-01
9.200094847e-01,6.86824e-01,9.99999e-01,9.99999e-01,9.44768e-01,9.60594e-01,7.55826e-01,9.99679e-01
9.246095321e-01,6.58995e-01,9.99999e-01,9.99999e-01,9.22206e-01,9.39525e-01,7.60017e-01,9.99631e-01
9.292325798e-01,4.72020e-01,9.99999e-01,9.99999e-01,9.38773e-01,6.55502e-01,7.64148e-01,9.98563e-01
9.338787427e-01,4.16951e-01,9.99999e-01,9.99999e-01,9.40460e-01,5.77519e-01,7.68219e-01,9.94074e-01
9.385481364e-01,5.88694e-01,9.99999e-01,9.99999e-01,9.55959e-01,8.01478e-01,7.72230e-01,9.92957e-01
9.432408771e-01,5.52457e-01,9.99999e-01,9.99999e-01,9.72770e-01,7.35285e-01,7.76183e-01,9.93920e-01
9.479570815e-01,5.00497e-01,9.99999e-01,9.99999e-01,9.85966e-01,6.53574e-01,7.80077e-01,9.95049e-01
9.526968669e-01,5.64403e-01,9.99999e-01,9.99999e-01,9.93200e-01,7.26754e-01,7.83913e-01,9.96977e-01
9.574603512e-01,5.86250e-01,9.99999e-01,9.99999e-01,9.97086e-01,7.47475e-01,7.87692e-01,9.98463e-01
9.622476530e-01,6.23303e-01,9.99999e-01,9.99999e-01,9.99089e-01,7.89104e-01,7.91414e-01,9.98937e-01
9.670588912e-01,6.93134e-01,9.99999e-01,9.99999e-01,9.99726e-01,8.72642e-01,7.95079e-01,9.99272e-01
9.718941857e-01,7.33299e-01,9.99999e-01,9.99999e-01,9.99980e-01,9.18637e-01,7.98689e-01,9.99464e-01
9.767536566e-01,7.47394e-01,9.99999e-01,9.99999e-01,9.99999e-01,9.32010e-01,8.02243e-01,9.99590e-01
9.816374249e-01,7.64631e-01,9.99999e-01,9.99999e-01,9.99999e-01,9.49110e-01,8.05742e-01,9.99857e-01
9.865456120e-01,7.83194e-01,9.99999e-01,9.99999e-01,9.99999e-01,9.67905e-01,8.09187e-01,9.99970e-01
9.914783401e-01,7.96367e-01,9.99999e-01,9.99999e-01,9.99999e-01,9.80056e-01,8.12578e-01,9.99991e-01
9.964357318e-01,8.07011e-01,9.99999e-01,9.99999e-01,9.99999e-01,9.89090e-01,8.15916e-01,9.99994e-01
1.001417910e+00,8.13828e-01,9.99999e-01,9.99999e-01,9.99999e-01,9.93447e-01,8.19202e-01,9.99992e-01
1.006425000e+00,8.19356e-01,9.99999e-01,9.99999e-01,9.99999e-01,9.96265e-01,8.22435e-01,9.99989e-01
1.011457125e+00,8.23691e-01,9.99999e-01,9.99999e-01,9.99999e-01,9.97676e-01,8.25617e-01,9.99989e-01
1.016514411e+00,8.27436e-01,9.99999e-01,9.99999e-01,9.99999e-01,9.98423e-01,8.28748e-01,9.99992e-01
1.021596983e+00,8.30750e-01,9.99999e-01,9.99999e-01,9.99964e-01,9.98744e-01,8.31828e-01,9.99992e-01
1.026704968e+00,8.31742e-01,9.99999e-01,9.99999e-01,9.97245e-01,9.99021e-01,8.34859e-01,9.99994e-01
1.031838492e+00,8.08613e-01,9.99999e-01,9.99999e-01,9.65787e-01,9.99287e-01,8.37841e-01,9.99998e-01
1.036997685e+00,1.68786e-01,9.99999e-01,9.99999e-01,2.00819e-01,9.99577e-01,8.40774e-01,9.99999e-01
1.042182673e+00,1.67576e-01,9.99999e-01,9.99999e-01,1.98720e-01,9.99497e-01,8.43659e-01,9.99999e-01
1.047393587e+00,1.77235e-01,9.99999e-01,9.99999e-01,2.09499e-01,9.99332e-01,8.46497e-01,9.99999e-01
1.052630555e+00,1.10058e-02,9.99999e-01,9.99999e-01,1.29678e-02,9.99084e-01,8.49288e-01,9.99999e-01
1.057893707e+00,2.42751e-02,9.99999e-01,9.99999e-01,2.85221e-02,9.98474e-01,8.52033e-01,9.99998e-01
1.063183176e+00,6.32097e-02,9.99999e-01,9.99999e-01,7.40933e-02,9.97488e-01,8.54732e-01,9.99998e-01
1.068499092e+00,1.44895e-01,9.99999e-01,9.99999e-01,1.69619e-01,9.95792e-01,8.57386e-01,9.99996e-01
1.073841587e+00,2.78813e-01,9.99999e-01,9.99999e-01,3.25609e-01,9.95081e-01,8.59996e-01,9.99993e-01
