#,Wave/freq,Total,N2,O2,CO2,H2O,Rayleigh,CIA
4.000000000e-01,2.71236e-05,9.99999e-01,9.99999e-01,9.99999e-01,9.99979e-01,2.71242e-05,9.99999e-01
4.020000000e-01,3.33923e-05,9.99999e-01,9.99999e-01,9.99999e-01,9.99986e-01,3.33927e-05,9.99999e-01
4.040100000e-01,4.09325e-05,9.99999e-01,9.99999e-01,9.99999e-01,9.99994e-01,4.09328e-05,9.99999e-01
4.060300500e-01,4.99739e-05,9.99999e-01,9.99999e-01,9.99999e-01,9.99998e-01,4.99739e-05,9.99999e-01
4.080602003e-01,6.07720e-05,9.99999e-01,9.99999e-01,9.99999e-01,9.99999e-01,6.07720e-05,9.99999e-01
4.101005013e-01,7.36184e-05,9.99999e-01,9.99999e-01,9.99999e-01,9.99999e-01,7.36184e-05,9.99999e-01
4.121510038e-01,8.88430e-05,9.99999e-01,9.99999e-01,9.99999e-01,9.99998e-01,8.88430e-05,9.99999e-01
4.142117588e-01,1.06818e-04,9.99999e-01,9.99999e-01,9.99999e-01,9.99993e-01,1.06819e-04,9.99999e-01
4.162828176e-01,1.27962e-04,9.99999e-01,9.99999e-01,9.99999e-01,9.99974e-01,1.27965e-04,9.99999e-01
4.183642317e-01,1.52750e-04,9.99999e-01,9.99999e-01,9.99999e-01,9.99984e-01,1.52752e-04,9.99999e-01
4.204560528e-01,1.81701e-04,9.99999e-01,9.99999e-01,9.99999e-01,9.99990e-01,1.81703e-04,9.99999e-01
4.225583331e-01,2.15401e-04,9.99999e-01,9.99999e-01,9.99999e-01,9.99996e-01,2.15402e-04,9.99999e-01
4.246711247e-01,2.54493e-04,9.99999e-01,9.99999e-01,9.99999e-01,9.99996e-01,2.54494e-04,9.99999e-01
4.267944804e-01,2.99690e-04,9.99999e-01,9.99999e-01,9.99999e-01,9.99995e-01,2.99691e-04,9.99999e-01
4.289284528e-01,3.51776e-04,9.99999e-01,9.99999e-01,9.99999e-01,9.99996e-01,3.51777e-04,9.99999e-01
4.310730950e-01,4.11611e-04,9.99999e-01,9.99999e-01,9.99999e-01,9.99998e-01,4.11612e-04,9.99999e-01
4.332284605e-01,4.80131e-04,9.99999e-01,9.99999e-01,9.99999e-01,9.99999e-01,4.80131e-04,9.99999e-01
4.353946028e-01,5.58356e-04,9.99999e-01,9.99999e-01,9.99999e-01,9.99999e-01,5.58356e-04,9.99999e-01
4.375715758e-01,6.47391e-04,9.99999e-01,9.99999e-01,9.99999e-01,9.99997e-01,6.47393e-04,9.99999e-01
4.397594337e-01,7.48420e-04,9.99999e-01,9.99999e-01,9.99999e-01,9.99977e-01,7.48437e-04,9.99999e-01
4.419582309e-01,8.62680e-04,9.99999e-01,9.99999e-01,9.99999e-01,9.99887e-01,8.62777e-04,9.99999e-01
4.441680220e-01,9.91709e-04,9.99999e-01,9.99999e-01,9.99999e-01,9.99912e-01,9.91795e-04,9.99999e-01
4.463888621e-01,1.13687e-03,9.99999e-01,9.99999e-01,9.99999e-01,9.99908e-01,1.13697e-03,9.99999e-01
4.486208064e-01,1.29982e-03,9.99999e-01,9.99999e-01,9.99999e-01,9.99943e-01,1.29989e-03,9.99999e-01
4.508639105e-01,1.48218e-03,9.99999e-01,9.99999e-01,9.99999e-01,9.99973e-01,1.48222e-03,9.99999e-01
4.531182300e-01,1.68574e-03,9.99999e-01,9.99999e-01,9.99999e-01,9.99989e-01,1.68576e-03,9.99999e-01
4.553838212e-01,1.91236e-03,9.99999e-01,9.99999e-01,9.99999e-01,9.99992e-01,1.91237e-03,9.99999e-01
4.576607403e-01,2.16405e-03,9.99999e-01,9.99999e-01,9.99999e-01,9.99996e-01,2.16406e-03,9.99999e-01
4.599490440e-01,2.44288e-03,9.99999e-01,9.99999e-01,9.99999e-01,9.99997e-01,2.44289e-03,9.99999e-01
4.622487892e-01,2.75105e-03,9.99999e-01,9.99999e-01,9.99999e-01,9.99999e-01,2.75105e-03,9.99999e-01
4.645600332e-01,3.09083e-03,9.99999e-01,9.99999e-01,9.99999e-01,9.99997e-01,3.09083e-03,9.99999e-01
4.668828333e-01,3.46450e-03,9.99999e-01,9.99999e-01,9.99999e-01,9.99972e-01,3.46459e-03,9.99999e-01
4.692172475e-01,3.87459e-03,9.99999e-01,9.99999e-01,9.99999e-01,9.99942e-01,3.87481e-03,9.99999e-01
4.715633337e-01,4.32387e-03,9.99999e-01,9.99999e-01,9.99999e-01,9.99962e-01,4.32403e-03,9.99999e-01
4.739211504e-01,4.81471e-03,9.99999e-01,9.99999e-01,9.99999e-01,9.99963e-01,4.81488e-03,9.99999e-01
4.762907561e-01,5.34998e-03,9.99999e-01,9.99999e-01,9.99999e-01,9.99981e-01,5.35008e-03,9.99999e-01
4.786722099e-01,5.93236e-03,9.99999e-01,9.99999e-01,9.99999e-01,9.99991e-01,5.93240e-03,9.99999e-01
4.810655710e-01,6.56468e-03,9.99999e-01,9.99999e-01,9.99999e-01,9.99997e-01,6.56470e-03,9.99999e-01
4.834708988e-01,7.24971e-03,9.99999e-01,9.99999e-01,9.99999e-01,9.99977e-01,7.24987e-03,9.99999e-01
4.858882533e-01,7.99055e-03,9.99999e-01,9.99999e-01,9.99999e-01,9.99959e-01,7.99087e-03,9.99999e-01
4.883176946e-01,8.79039e-03,9.99999e-01,9.99999e-01,9.99999e-01,9.99965e-01,8.79069e-03,9.99999e-01
4.907592831e-01,9.65207e-03,9.99999e-01,9.99999e-01,9.99999e-01,9.99969e-01,9.65236e-03,9.99999e-01
4.932130795e-01,1.05787e-02,9.99999e-01,9.99999e-01,9.99999e-01,9.99977e-01,1.05789e-02,9.99999e-01
4.956791449e-01,1.15734e-02,9.99999e-01,9.99999e-01,9.99999e-01,9.99988e-01,1.15735e-02,9.99999e-01
4.981575406e-01,1.26384e-02,9.99999e-01,9.99999e-01,9.99999e-01,9.99942e-01,1.26391e-02,9.99999e-01
5.006483283e-01,1.37767e-02,9.99999e-01,9.99999e-01,9.99999e-01,9.99851e-01,1.37788e-02,9.99998e-01
5.031515699e-01,1.49843e-02,9.99999e-01,9.99999e-01,9.99999e-01,9.99247e-01,1.49957e-02,9.99991e-01
5.056673278e-01,1.62862e-02,9.99999e-01,9.99999e-01,9.99999e-01,9.99602e-01,1.62928e-02,9.99990e-01
5.081956644e-01,1.76642e-02,9.99999e-01,9.99999e-01,9.99999e-01,9.99498e-01,1.76731e-02,9.99993e-01
5.107366428e-01,1.91331e-02,9.99999e-01,9.99999e-01,9.99999e-01,9.99661e-01,1.91396e-02,9.99998e-01
5.132903260e-01,2.06912e-02,9.99999e-01,9.99999e-01,9.99999e-01,9.99806e-01,2.06952e-02,9.99999e-01
5.158567776e-01,2.23408e-02,9.99999e-01,9.99999e-01,9.99999e-01,9.99917e-01,2.23427e-02,9.99999e-01
5.184360615e-01,2.40840e-02,9.99999e-01,9.99999e-01,9.99999e-01,9.99966e-01,2.40848e-02,9.99999e-01
5.210282418e-01,2.59241e-02,9.99999e-01,9.99999e-01,9.99999e-01,9.99987e-01,2.59244e-02,9.99999e-01
5.236333830e-01,2.78625e-02,9.99999e-01,9.99999e-01,9.99999e-01,9.99950e-01,2.78639e-02,9.99999e-01
5.262515499e-01,2.99049e-02,9.99999e-01,9.99999e-01,9.99999e-01,9.99968e-01,2.99058e-02,9.99999e-01
5.288828077e-01,3.20517e-02,9.99999e-01,9.99999e-01,9.99999e-01,9.99971e-01,3.20526e-02,9.99999e-01
5.315272217e-01,3.43056e-02,9.99999e-01,9.99999e-01,9.99999e-01,9.99974e-01,3.43065e-02,9.99999e-01
5.341848578e-01,3.66690e-02,9.99999e-01,9.99999e-01,9.99999e-01,9.99983e-01,3.66696e-02,9.99999e-01
5.368557821e-01,3.91417e-02,9.99999e-01,9.99999e-01,9.99999e-01,9.99942e-01,3.91439e-02,9.99999e-01
5.395400610e-01,4.17227e-02,9.99999e-01,9.99999e-01,9.99999e-01,9.99793e-01,4.17314e-02,9.99997e-01
5.422377613e-01,4.44216e-02,9.99999e-01,9.99999e-01,9.99999e-01,9.99733e-01,4.44337e-02,9.99994e-01
5.449489501e-01,4.72404e-02,9.99999e-01,9.99999e-01,9.99999e-01,9.99751e-01,4.72523e-02,9.99994e-01
5.476736949e-01,5.01777e-02,9.99999e-01,9.99999e-01,9.99999e-01,9.99780e-01,5.01888e-02,9.99997e-01
5.504120634e-01,5.32358e-02,9.99999e-01,9.99999e-01,9.99999e-01,9.99840e-01,5.32443e-02,9.99998e-01
5.531641237e-01,5.64154e-02,9.99999e-01,9.99999e-01,9.99999e-01,9.99919e-01,5.64199e-02,9.99999e-01
5.559299443e-01,5.97142e-02,9.99999e-01,9.99999e-01,9.99999e-01,9.99960e-01,5.97165e-02,9.99999e-01
5.587095940e-01,6.31334e-02,9.99999e-01,9.99999e-01,9.99999e-01,9.99975e-01,6.31349e-02,9.99999e-01
5.615031420e-01,6.66739e-02,9.99999e-01,9.99999e-01,9.99999e-01,9.99972e-01,6.66757e-02,9.99999e-01
5.643106577e-01,7.03369e-02,9.99999e-01,9.99999e-01,9.99999e-01,9.99968e-01,7.03391e-02,9.99999e-01
5.671322110e-01,7.40976e-02,9.99999e-01,9.99999e-01,9.99999e-01,9.99626e-01,7.41255e-02,9.99996e-01
5.699678720e-01,7.80032e-02,9.99999e-01,9.99999e-01,9.99999e-01,9.99604e-01,7.80348e-02,9.99989e-01
5.728177114e-01,8.20325e-02,9.99999e-01,9.99999e-01,9.99999e-01,9.99587e-01,8.20670e-02,9.99991e-01
5.756818000e-01,8.61886e-02,9.99999e-01,9.99999e-01,9.99999e-01,9.99621e-01,8.62217e-02,9.99994e-01
5.785602090e-01,9.04684e-02,9.99999e-01,9.99999e-01,9.99999e-01,9.99670e-01,9.04983e-02,9.99997e-01
5.814530100e-01,9.48649e-02,9.99999e-01,9.99999e-01,9.99999e-01,9.99668e-01,9.48963e-02,9.99998e-01
5.843602750e-01,9.93754e-02,9.99999e-01,9.99999e-01,9.99999e-01,9.99604e-01,9.94149e-02,9.99997e-01
5.872820764e-01,1.03696e-01,9.99999e-01,9.99999e-01,9.99999e-01,9.96597e-01,1.04053e-01,9.99975e-01
5.902184868e-01,1.08354e-01,9.99999e-01,9.99999e-01,9.99999e-01,9.95882e-01,1.08809e-01,9.99934e-01
5.931695792e-01,1.13345e-01,9.99999e-01,9.99999e-01,9.99999e-01,9.97089e-01,1.13683e-01,9.99936e-01
5.961354271e-01,1.18289e-01,9.99999e-01,9.99999e-01,9.99999e-01,9.96810e-01,1.18671e-01,9.99963e-01
5.991161043e-01,1.23485e-01,9.99999e-01,9.99999e-01,9.99999e-01,9.97673e-01,1.23774e-01,9.99988e-01
6.021116848e-01,1.28819e-01,9.99999e-01,9.99999e-01,9.99999e-01,9.98679e-01,1.28989e-01,9.99998e-01
6.051222432e-01,1.34224e-01,9.99999e-01,9.99999e-01,9.99999e-01,9.99331e-01,1.34314e-01,9.99999e-01
6.081478544e-01,1.39707e-01,9.99999e-01,9.99999e-01,9.99999e-01,9.99711e-01,1.39747e-01,9.99999e-01
6.111885937e-01,1.45269e-01,9.99999e-01,9.99999e-01,9.99999e-01,9.99877e-01,1.45286e-01,9.99999e-01
6.142445367e-01,1.50921e-01,9.99999e-01,9.99999e-01,9.99999e-01,9.99945e-01,1.50929e-01,9.99999e-01
6.173157594e-01,1.56668e-01,9.99999e-01,9.99999e-01,9.99999e-01,9.99969e-01,1.56673e-01,9.99999e-01
6.204023382e-01,1.62512e-01,9.99999e-01,9.99999e-01,9.99999e-01,9.99974e-01,1.62516e-01,9.99999e-01
6.235043498e-01,1.68435e-01,9.99999e-01,9.99999e-01,9.99999e-01,9.99887e-01,1.68454e-01,9.99999e-01
6.266218716e-01,1.74382e-01,9.99999e-01,9.99999e-01,9.99999e-01,9.99406e-01,1.74486e-01,9.99995e-01
6.297549810e-01,1.80568e-01,9.99999e-01,9.99999e-01,9.99999e-01,9.99782e-01,1.80608e-01,9.99991e-01
6.329037559e-01,1.86737e-01,9.99999e-01,9.99999e-01,9.99999e-01,9.99570e-01,1.86818e-01,9.99992e-01
6.360682746e-01,1.93041e-01,9.99999e-01,9.99999e-01,9.99999e-01,9.99633e-01,1.93113e-01,9.99995e-01
6.392486160e-01,1.99394e-01,9.99999e-01,9.99999e-01,9.99999e-01,9.99525e-01,1.99488e-01,9.99997e-01
6.424448591e-01,2.05811e-01,9.99999e-01,9.99999e-01,9.99999e-01,9.99364e-01,2.05943e-01,9.99996e-01
6.456570834e-01,2.11842e-01,9.99999e-01,9.99999e-01,9.99999e-01,9.97052e-01,2.12472e-01,9.99983e-01
6.488853688e-01,2.18591e-01,9.99999e-01,9.99999e-01,9.99999e-01,9.97843e-01,2.19073e-01,9.99953e-01
6.521297956e-01,2.25238e-01,9.99999e-01,9.99999e-01,9.99999e-01,9.97801e-01,2.25743e-01,9.99961e-01
6.553904446e-01,2.31963e-01,9.99999e-01,9.99999e-01,9.99999e-01,9.97811e-01,2.32478e-01,9.99971e-01
6.586673968e-01,2.38824e-01,9.99999e-01,9.99999e-01,9.99999e-01,9.98125e-01,2.39275e-01,9.99990e-01
6.619607338e-01,2.45873e-01,9.99999e-01,9.99999e-01,9.99999e-01,9.98955e-01,2.46130e-01,9.99997e-01
6.652705375e-01,2.52882e-01,9.99999e-01,9.99999e-01,9.99999e-01,9.99372e-01,2.53041e-01,9.99998e-01
6.685968902e-01,2.59928e-01,9.99999e-01,9.99999e-01,9.99999e-01,9.99708e-01,2.60004e-01,9.99999e-01
6.719398746e-01,2.66979e-01,9.99999e-01,9.99999e-01,9.99999e-01,9.99864e-01,2.67015e-01,9.99999e-01
6.752995740e-01,2.74051e-01,9.99999e-01,9.99999e-01,9.99999e-01,9.99926e-01,2.74071e-01,9.99999e-01
6.786760719e-01,2.81138e-01,9.99999e-01,9.99999e-01,9.99999e-01,9.99893e-01,2.81168e-01,9.99999e-01
6.820694522e-01,2.88252e-01,9.99999e-01,9.99999e-01,9.99999e-01,9.99818e-01,2.88304e-01,9.99998e-01
6.854797995e-01,2.95405e-01,9.99999e-01,9.99999e-01,9.99999e-01,9.99766e-01,2.95474e-01,9.99997e-01
6.889071985e-01,3.02504e-01,9.99999e-01,9.99999e-01,9.99999e-01,9.99434e-01,3.02676e-01,9.99994e-01
6.923517345e-01,3.07041e-01,9.99999e-01,9.99999e-01,9.99999e-01,9.90796e-01,3.09906e-01,9.99955e-01
6.958134932e-01,3.15613e-01,9.99999e-01,9.99999e-01,9.99999e-01,9.95215e-01,3.17161e-01,9.99901e-01
6.992925606e-01,3.22931e-01,9.99999e-01,9.99999e-01,9.99999e-01,9.95445e-01,3.24437e-01,9.99911e-01
7.027890234e-01,3.29846e-01,9.99999e-01,9.99999e-01,9.99999e-01,9.94382e-01,3.31732e-01,9.99932e-01
7.063029686e-01,3.37429e-01,9.99999e-01,9.99999e-01,9.99999e-01,9.95276e-01,3.39041e-01,9.99966e-01
7.098344834e-01,3.44786e-01,9.99999e-01,9.99999e-01,9.99999e-01,9.95467e-01,3.46363e-01,9.99979e-01
7.133836558e-01,3.51541e-01,9.99999e-01,9.99999e-01,9.99999e-01,9.93953e-01,3.53693e-01,9.99960e-01
7.169505741e-01,3.43705e-01,9.99999e-01,9.99999e-01,9.99999e-01,9.52308e-01,3.61029e-01,9.99689e-01
7.205353270e-01,3.59489e-01,9.99999e-01,9.99999e-01,9.99999e-01,9.76429e-01,3.68368e-01,9.99453e-01
7.241380036e-01,3.64306e-01,9.99999e-01,9.99999e-01,9.99999e-01,9.70113e-01,3.75707e-01,9.99527e-01
7.277586936e-01,3.72554e-01,9.99999e-01,9.99999e-01,9.99999e-01,9.72993e-01,3.83042e-01,9.99613e-01
7.313974871e-01,3.79113e-01,9.99999e-01,9.99999e-01,9.99999e-01,9.71333e-01,3.90372e-01,9.99818e-01
7.350544745e-01,3.91404e-01,9.99999e-01,9.99999e-01,9.99999e-01,9.84246e-01,3.97693e-01,9.99936e-01
7.387297469e-01,4.00289e-01,9.99999e-01,9.99999e-01,9.99999e-01,9.88389e-01,4.05003e-01,9.99970e-01
7.424233956e-01,4.09949e-01,9.99999e-01,9.99999e-01,9.99999e-01,9.94306e-01,4.12298e-01,9.99993e-01
7.461355126e-01,4.18128e-01,9.99999e-01,9.99999e-01,9.99999e-01,9.96546e-01,4.19577e-01,9.99998e-01
7.498661902e-01,4.26151e-01,9.99999e-01,9.99999e-01,9.99999e-01,9.98391e-01,4.26837e-01,9.99999e-01
7.536155211e-01,4.33733e-01,9.99999e-01,9.99999e-01,9.99999e-01,9.99210e-01,4.34076e-01,9.99999e-01
7.573835987e-01,4.41111e-01,9.99999e-01,9.99999e-01,9.99999e-01,9.99593e-01,4.41291e-01,9.99999e-01
7.611705167e-01,4.48366e-01,9.99999e-01,9.99999e-01,9.99999e-01,9.99747e-01,4.48479e-01,9.99999e-01
7.649763693e-01,4.55567e-01,9.99999e-01,9.99999e-01,9.99999e-01,9.99841e-01,4.55639e-01,9.99999e-01
7.688012511e-01,4.62718e-01,9.99999e-01,9.99999e-01,9.99999e-01,9.99889e-01,4.62769e-01,9.99999e-01
7.726452574e-01,4.69824e-01,9.99999e-01,9.99999e-01,9.99999e-01,9.99908e-01,4.69866e-01,9.99999e-01
7.765084837e-01,4.76867e-01,9.99999e-01,9.99999e-01,9.99999e-01,9.99870e-01,4.76929e-01,9.99999e-01
7.803910261e-01,4.67357e-01,9.99999e-01,9.99999e-01,9.66225e-01,9.99442e-01,4.83955e-01,9.99998e-01
7.842929812e-01,4.21485e-01,9.99999e-01,9.99999e-01,8.60118e-01,9.98054e-01,4.90943e-01,9.99995e-01
7.882144461e-01,4.21998e-01,9.99999e-01,9.99999e-01,8.50866e-01,9.95997e-01,4.97890e-01,9.99972e-01
7.921555184e-01,4.58423e-01,9.99999e-01,9.99999e-01,9.10130e-01,9.97804e-01,5.04796e-01,9.99951e-01
7.961162960e-01,4.78561e-01,9.99999e-01,9.99999e-01,9.38967e-01,9.96118e-01,5.11658e-01,9.99954e-01
8.000968774e-01,4.98813e-01,9.99999e-01,9.99999e-01,9.66438e-01,9.95519e-01,5.18476e-01,9.99951e-01
8.040973618e-01,5.13719e-01,9.99999e-01,9.99999e-01,9.82483e-01,9.95518e-01,5.25247e-01,9.99961e-01
8.081178486e-01,5.22336e-01,9.99999e-01,9.99999e-01,9.91918e-01,9.89911e-01,5.31970e-01,9.99963e-01
8.121584379e-01,5.14974e-01,9.99999e-01,9.99999e-01,9.97500e-01,9.58564e-01,5.38643e-01,9.99858e-01
8.162192301e-01,5.18007e-01,9.99999e-01,9.99999e-01,9.99447e-01,9.51026e-01,5.45266e-01,9.99468e-01
8.203003262e-01,5.37833e-01,9.99999e-01,9.99999e-01,9.99991e-01,9.75235e-01,5.51838e-01,9.99377e-01
8.244018279e-01,5.38888e-01,9.99999e-01,9.99999e-01,9.99999e-01,9.65611e-01,5.58356e-01,9.99504e-01
8.285238370e-01,5.47938e-01,9.99999e-01,9.99999e-01,9.99999e-01,9.70487e-01,5.64820e-01,9.99610e-01
8.326664562e-01,5.54105e-01,9.99999e-01,9.99999e-01,9.99999e-01,9.70177e-01,5.71230e-01,9.99838e-01
8.368297885e-01,5.65217e-01,9.99999e-01,9.99999e-01,9.99999e-01,9.78626e-01,5.77583e-01,9.99962e-01
8.410139374e-01,5.76424e-01,9.99999e-01,9.99999e-01,9.99999e-01,9.87252e-01,5.83879e-01,9.99978e-01
8.452190071e-01,5.86412e-01,9.99999e-01,9.99999e-01,9.99999e-01,9.93732e-01,5.90118e-01,9.99986e-01
8.494451021e-01,5.94121e-01,9.99999e-01,9.99999e-01,9.99999e-01,9.96359e-01,5.96298e-01,9.99989e-01
8.536923276e-01,6.01118e-01,9.99999e-01,9.99999e-01,9.99999e-01,9.97846e-01,6.02419e-01,9.99993e-01
8.579607893e-01,6.07671e-01,9.99999e-01,9.99999e-01,9.99999e-01,9.98673e-01,6.08479e-01,9.99997e-01
8.622505932e-01,6.13962e-01,9.99999e-01,9.99999e-01,9.99999e-01,9.99157e-01,6.14480e-01,9.99999e-01
8.665618462e-01,5.73777e-01,9.99999e-01,9.99999e-01,9.25284e-01,9.99478e-01,6.20419e-01,9.99999e-01
8.708946554e-01,4.26725e-01,9.99999e-01,9.99999e-01,6.81738e-01,9.99402e-01,6.26297e-01,9.99999e-01
8.752491287e-01,4.63981e-01,9.99999e-01,9.99999e-01,7.34586e-01,9.99200e-01,6.32112e-01,9.99998e-01
8.796253743e-01,5.37902e-01,9.99999e-01,9.99999e-01,8.44193e-01,9.98893e-01,6.37865e-01,9.99997e-01
8.840235012e-01,5.88711e-01,9.99999e-01,9.99999e-01,9.15925e-01,9.98735e-01,6.43555e-01,9.99991e-01
8.884436187e-01,6.24235e-01,9.99999e-01,9.99999e-01,9.66006e-01,9.95385e-01,6.49183e-01,9.99977e-01
8.928858368e-01,6.14897e-01,9.99999e-01,9.99999e-01,9.86089e-01,9.52391e-01,6.54746e-01,9.99873e-01
8.973502660e-01,6.03270e-01,9.99999e-01,9.99999e-01,9.96607e-01,9.17344e-01,6.60246e-01,9.99353e-01
9.018370173e-01,6.36146e-01,9.99999e-01,9.99999e-01,9.99625e-01,9.56948e-01,6.65683e-01,9.98983e-01
9.063462024e-01,6.38952e-01,9.99999e-01,9.99999e-01,9.90389e-01,9.61971e-01,6.71055e-01,9.99106e-01
9.108779334e-01,6.22359e-01,9.99999e-01,9.99999e-01,9.78129e-01,9.41347e-01,6.76364e-01,9.99071e-01
9.154323231e-01,6.32689e-01,9.99999e-01,9.99999e-01,9.94831e-01,9.33665e-01,6.81608e-01,9.99232e-01
9.200094847e-01,6.04873e-01,9.99999e-01,9.99999e-01,9.27157e-01,9.47669e-01,6.86788e-01,9.99570e-01
9.246095321e-01,5.71545e-01,9.99999e-01,9.99999e-01,8.97395e-01,9.19161e-01,6.91904e-01,9.99504e-01
9.292325798e-01,3.67544e-01,9.99999e-01,9.99999e-01,9.18564e-01,5.70078e-01,6.96956e-01,9.98071e-01
9.338787427e-01,3.13759e-01,9.99999e-01,9.99999e-01,9.21257e-01,4.84851e-01,7.01944e-01,9.92054e-01
9.385481364e-01,4.93969e-01,9.99999e-01,9.99999e-01,9.41516e-01,7.46694e-01,7.06868e-01,9.90557e-01
9.432408771e-01,4.54264e-01,9.99999e-01,9.99999e-01,9.63797e-01,6.66312e-01,7.11728e-01,9.91848e-01
9.479570815e-01,3.99869e-01,9.99999e-01,9.99999e-01,9.81258e-01,5.71935e-01,7.16525e-01,9.93360e-01
9.526968669e-01,4.68234e-01,9.99999e-01,9.99999e-01,9.90923e-01,6.57273e-01,7.21258e-01,9.95945e-01
9.574603512e-01,4.90151e-01,9.99999e-01,9.99999e-01,9.96109e-01,6.79067e-01,7.25929e-01,9.97937e-01
9.622476530e-01,5.31714e-01,9.99999e-01,9.99999e-01,9.98785e-01,7.29714e-01,7.30536e-01,9.98573e-01
9.670588912e-01,6.12149e-01,9.99999e-01,9.99999e-01,9.99635e-01,8.33866e-01,7.35081e-01,9.99024e-01
9.718941857e-01,6.59623e-01,9.99999e-01,9.99999e-01,9.99973e-01,8.92571e-01,7.39563e-01,9.99281e-01
9.767536566e-01,6.76633e-01,9.99999e-01,9.99999e-01,9.99999e-01,9.09972e-01,7.43983e-01,9.99450e-01
9.816374249e-01,6.97695e-01,9.99999e-01,9.99999e-01,9.99999e-01,9.32497e-01,7.48342e-01,9.99809e-01
9.865456120e-01,7.20462e-01,9.99999e-01,9.99999e-01,9.99999e-01,9.57283e-01,7.52640e-01,9.99959e-01
9.914783401e-01,7.36721e-01,9.99999e-01,9.99999e-01,9.99999e-01,9.73381e-01,7.56876e-01,9.99988e-01
9.964357318e-01,7.49950e-01,9.99999e-01,9.99999e-01,9.99999e-01,9.85418e-01,7.61052e-01,9.99993e-01
1.001417910e+00,7.58456e-01,9.99999e-01,9.99999e-01,9.99999e-01,9.91237e-01,7.65168e-01,9.99989e-01
1.006425000e+00,7.65364e-01,9.99999e-01,9.99999e-01,9.99999e-01,9.94995e-01,7.69224e-01,9.99985e-01
1.011457125e+00,7.70808e-01,9.99999e-01,9.99999e-01,9.99999e-01,9.96892e-01,7.73221e-01,9.99986e-01
1.016514411e+00,7.75511e-01,9.99999e-01,9.99999e-01,9.99999e-01,9.97889e-01,7.77159e-01,9.99990e-01
1.021596983e+00,7.79678e-01,9.99999e-01,9.99999e-01,9.99948e-01,9.98317e-01,7.81038e-01,9.99990e-01
1.026704968e+00,7.80883e-01,9.99999e-01,9.99999e-01,9.96243e-01,9.98687e-01,7.84860e-01,9.99993e-01
1.031838492e+00,7.52729e-01,9.99999e-01,9.99999e-01,9.55366e-01,9.99046e-01,7.88625e-01,9.99997e-01
1.036997685e+00,1.21026e-01,9.99999e-01,9.99999e-01,1.52815e-01,9.99433e-01,7.92333e-01,9.99999e-01
1.042182673e+00,9.58853e-02,9.99999e-01,9.99999e-01,1.20533e-01,9.99323e-01,7.95984e-01,9.99999e-01
1.047393587e+00,1.13443e-01,9.99999e-01,9.99999e-01,1.41991e-01,9.99103e-01,7.99580e-01,9.99999e-01
1.052630555e+00,3.18655e-03,9.99999e-01,9.99999e-01,3.97129e-03,9.98770e-01,8.03120e-01,9.99999e-01
1.057893707e+00,8.13358e-03,9.99999e-01,9.99999e-01,1.00977e-02,9.97947e-01,8.06606e-01,9.99998e-01
1.063183176e+00,2.72452e-02,9.99999e-01,9.99999e-01,3.37161e-02,9.96624e-01,8.10037e-01,9.99997e-01
1.068499092e+00,7.66258e-02,9.99999e-01,9.99999e-01,9.46521e-02,9.94352e-01,8.13415e-01,9.99995e-01
1.073841587e+00,1.83069e-01,9.99999e-01,9.99999e-01,2.25417e-01,9.93391e-01,8.16740e-01,9.99991e-01
