#,Wave/freq,Total,N2,O2,CO2,H2O,Rayleigh,CIA
4.000000000e-01,7.69412e-04,9.99999e-01,9.99999e-01,9.99999e-01,9.99985e-01,7.69422e-04,9.99999e-01
4.020000000e-01,8.86608e-04,9.99999e-01,9.99999e-01,9.99999e-01,9.99990e-01,8.86615e-04,9.99999e-01
4.040100000e-01,1.01865e-03,9.99999e-01,9.99999e-01,9.99999e-01,9.99995e-01,1.01865e-03,9.99999e-01
4.060300500e-01,1.16714e-03,9.99999e-01,9.99999e-01,9.99999e-01,9.99998e-01,1.16714e-03,9.99999e-01
4.080602003e-01,1.33369e-03,9.99999e-01,9.99999e-01,9.99999e-01,9.99999e-01,1.33369e-03,9.99999e-01
4.101005013e-01,1.52000e-03,9.99999e-01,9.99999e-01,9.99999e-01,9.99999e-01,1.52000e-03,9.99999e-01
4.121510038e-01,1.72786e-03,9.99999e-01,9.99999e-01,9.99999e-01,9.99998e-01,1.72786e-03,9.99999e-01
4.142117588e-01,1.95917e-03,9.99999e-01,9.99999e-01,9.99999e-01,9.99995e-01,1.95918e-03,9.99999e-01
4.162828176e-01,2.21593e-03,9.99999e-01,9.99999e-01,9.99999e-01,9.99982e-01,2.21596e-03,9.99999e-01
4.183642317e-01,2.50029e-03,9.99999e-01,9.99999e-01,9.99999e-01,9.99989e-01,2.50031e-03,9.99999e-01
4.204560528e-01,2.81441e-03,9.99999e-01,9.99999e-01,9.99999e-01,9.99993e-01,2.81443e-03,9.99999e-01
4.225583331e-01,3.16061e-03,9.99999e-01,9.99999e-01,9.99999e-01,9.99997e-01,3.16061e-03,9.99999e-01
4.246711247e-01,3.54125e-03,9.99999e-01,9.99999e-01,9.99999e-01,9.99997e-01,3.54125e-03,9.99999e-01
4.267944804e-01,3.95882e-03,9.99999e-01,9.99999e-01,9.99999e-01,9.99996e-01,3.95883e-03,9.99999e-01
4.289284528e-01,4.41591e-03,9.99999e-01,9.99999e-01,9.99999e-01,9.99997e-01,4.41592e-03,9.99999e-01
4.310730950e-01,4.91516e-03,9.99999e-01,9.99999e-01,9.99999e-01,9.99998e-01,4.91516e-03,9.99999e-01
4.332284605e-01,5.45928e-03,9.99999e-01,9.99999e-01,9.99999e-01,9.99999e-01,5.45928e-03,9.99999e-01
4.353946028e-01,6.05108e-03,9.99999e-01,9.99999e-01,9.99999e-01,9.99999e-01,6.05108e-03,9.99999e-01
4.375715758e-01,6.69339e-03,9.99999e-01,9.99999e-01,9.99999e-01,9.99997e-01,6.69341e-03,9.99999e-01
4.397594337e-01,7.38907e-03,9.99999e-01,9.99999e-01,9.99999e-01,9.99984e-01,7.38918e-03,9.99999e-01
4.419582309e-01,8.14074e-03,9.99999e-01,9.99999e-01,9.99999e-01,9.99924e-01,8.14135e-03,9.99999e-01
4.441680220e-01,8.95240e-03,9.99999e-01,9.99999e-01,9.99999e-01,9.99939e-01,8.95293e-03,9.99999e-01
4.463888621e-01,9.82635e-03,9.99999e-01,9.99999e-01,9.99999e-01,9.99937e-01,9.82696e-03,9.99999e-01
4.486208064e-01,1.07661e-02,9.99999e-01,9.99999e-01,9.99999e-01,9.99960e-01,1.07665e-02,9.99999e-01
4.508639105e-01,1.17744e-02,9.99999e-01,9.99999e-01,9.99999e-01,9.99981e-01,1.17746e-02,9.99999e-01
4.531182300e-01,1.28542e-02,9.99999e-01,9.99999e-01,9.99999e-01,9.99992e-01,1.28543e-02,9.99999e-01
4.553838212e-01,1.40087e-02,9.99999e-01,9.99999e-01,9.99999e-01,9.99994e-01,1.40088e-02,9.99999e-01
4.576607403e-01,1.52410e-02,9.99999e-01,9.99999e-01,9.99999e-01,9.99997e-01,1.52410e-02,9.99999e-01
4.599490440e-01,1.65540e-02,9.99999e-01,9.99999e-01,9.99999e-01,9.99997e-01,1.65540e-02,9.99999e-01
4.622487892e-01,1.79508e-02,9.99999e-01,9.99999e-01,9.99999e-01,9.99999e-01,1.79508e-02,9.99999e-01
4.645600332e-01,1.94343e-02,9.99999e-01,9.99999e-01,9.99999e-01,9.99998e-01,1.94344e-02,9.99999e-01
4.668828333e-01,2.10072e-02,9.99999e-01,9.99999e-01,9.99999e-01,9.99981e-01,2.10075e-02,9.99999e-01
4.692172475e-01,2.26723e-02,9.99999e-01,9.99999e-01,9.99999e-01,9.99960e-01,2.26732e-02,9.99999e-01
4.715633337e-01,2.44334e-02,9.99999e-01,9.99999e-01,9.99999e-01,9.99974e-01,2.44340e-02,9.99999e-01
4.739211504e-01,2.62921e-02,9.99999e-01,9.99999e-01,9.99999e-01,9.99975e-01,2.62928e-02,9.99999e-01
4.762907561e-01,2.82516e-02,9.99999e-01,9.99999e-01,9.99999e-01,9.99986e-01,2.82519e-02,9.99999e-01
4.786722099e-01,3.03139e-02,9.99999e-01,9.99999e-01,9.99999e-01,9.99994e-01,3.03141e-02,9.99999e-01
4.810655710e-01,3.24814e-02,9.99999e-01,9.99999e-01,9.99999e-01,9.99997e-01,3.24814e-02,9.99999e-01
4.834708988e-01,3.47558e-02,9.99999e-01,9.99999e-01,9.99999e-01,9.99984e-01,3.47563e-02,9.99999e-01
4.858882533e-01,3.71399e-02,9.99999e-01,9.99999e-01,9.99999e-01,9.99971e-01,3.71409e-02,9.99999e-01
4.883176946e-01,3.96361e-02,9.99999e-01,9.99999e-01,9.99999e-01,9.99976e-01,3.96370e-02,9.99999e-01
4.907592831e-01,4.22458e-02,9.99999e-01,9.99999e-01,9.99999e-01,9.99978e-01,4.22466e-02,9.99999e-01
4.932130795e-01,4.49707e-02,9.99999e-01,9.99999e-01,9.99999e-01,9.99984e-01,4.49714e-02,9.99999e-01
4.956791449e-01,4.78124e-02,9.99999e-01,9.99999e-01,9.99999e-01,9.99991e-01,4.78128e-02,9.99999e-01
4.981575406e-01,5.07703e-02,9.99999e-01,9.99999e-01,9.99999e-01,9.99960e-01,5.07722e-02,9.99999e-01
5.006483283e-01,5.38455e-02,9.99999e-01,9.99999e-01,9.99999e-01,9.99899e-01,5.38510e-02,9.99998e-01
5.031515699e-01,5.70205e-02,9.99999e-01,9.99999e-01,9.99999e-01,9.99487e-01,5.70500e-02,9.99994e-01
5.056673278e-01,6.03535e-02,9.99999e-01,9.99999e-01,9.99999e-01,9.99728e-01,6.03702e-02,9.99993e-01
5.081956644e-01,6.37902e-02,9.99999e-01,9.99999e-01,9.99999e-01,9.99657e-01,6.38123e-02,9.99995e-01
5.107366428e-01,6.73612e-02,9.99999e-01,9.99999e-01,9.99999e-01,9.99768e-01,6.73768e-02,9.99998e-01
5.132903260e-01,7.10547e-02,9.99999e-01,9.99999e-01,9.99999e-01,9.99867e-01,7.10641e-02,9.99999e-01
5.158567776e-01,7.48701e-02,9.99999e-01,9.99999e-01,9.99999e-01,9.99943e-01,7.48743e-02,9.99999e-01
5.184360615e-01,7.88058e-02,9.99999e-01,9.99999e-01,9.99999e-01,9.99977e-01,7.88075e-02,9.99999e-01
5.210282418e-01,8.28628e-02,9.99999e-01,9.99999e-01,9.99999e-01,9.99991e-01,8.28635e-02,9.99999e-01
5.236333830e-01,8.70389e-02,9.99999e-01,9.99999e-01,9.99999e-01,9.99966e-01,8.70419e-02,9.99999e-01
5.262515499e-01,9.13402e-02,9.99999e-01,9.99999e-01,9.99999e-01,9.99978e-01,9.13421e-02,9.99999e-01
5.288828077e-01,9.57618e-02,9.99999e-01,9.99999e-01,9.99999e-01,9.99980e-01,9.57636e-02,9.99999e-01
5.315272217e-01,1.00304e-01,9.99999e-01,9.99999e-01,9.99999e-01,9.99982e-01,1.00305e-01,9.99999e-01
5.341848578e-01,1.04965e-01,9.99999e-01,9.99999e-01,9.99999e-01,9.99988e-01,1.04966e-01,9.99999e-01
5.368557821e-01,1.09741e-01,9.99999e-01,9.99999e-01,9.99999e-01,9.99960e-01,1.09746e-01,9.99999e-01
5.395400610e-01,1.14625e-01,9.99999e-01,9.99999e-01,9.99999e-01,9.99860e-01,1.14642e-01,9.99998e-01
5.422377613e-01,1.19630e-01,9.99999e-01,9.99999e-01,9.99999e-01,9.99817e-01,1.19653e-01,9.99996e-01
5.449489501e-01,1.24756e-01,9.99999e-01,9.99999e-01,9.99999e-01,9.99831e-01,1.24777e-01,9.99996e-01
5.476736949e-01,1.29994e-01,9.99999e-01,9.99999e-01,9.99999e-01,9.99849e-01,1.30014e-01,9.99997e-01
5.504120634e-01,1.35345e-01,9.99999e-01,9.99999e-01,9.99999e-01,9.99890e-01,1.35360e-01,9.99999e-01
5.531641237e-01,1.40806e-01,9.99999e-01,9.99999e-01,9.99999e-01,9.99944e-01,1.40814e-01,9.99999e-01
5.559299443e-01,1.46369e-01,9.99999e-01,9.99999e-01,9.99999e-01,9.99973e-01,1.46373e-01,9.99999e-01
5.587095940e-01,1.52033e-01,9.99999e-01,9.99999e-01,9.99999e-01,9.99983e-01,1.52036e-01,9.99999e-01
5.615031420e-01,1.57796e-01,9.99999e-01,9.99999e-01,9.99999e-01,9.99981e-01,1.57799e-01,9.99999e-01
5.643106577e-01,1.63657e-01,9.99999e-01,9.99999e-01,9.99999e-01,9.99978e-01,1.63660e-01,9.99999e-01
5.671322110e-01,1.69575e-01,9.99999e-01,9.99999e-01,9.99999e-01,9.99750e-01,1.69617e-01,9.99997e-01
5.699678720e-01,1.75618e-01,9.99999e-01,9.99999e-01,9.99999e-01,9.99727e-01,1.75667e-01,9.99992e-01
5.728177114e-01,1.81755e-01,9.99999e-01,9.99999e-01,9.99999e-01,9.99719e-01,1.81807e-01,9.99993e-01
5.756818000e-01,1.87984e-01,9.99999e-01,9.99999e-01,9.99999e-01,9.99741e-01,1.88033e-01,9.99995e-01
5.785602090e-01,1.94299e-01,9.99999e-01,9.99999e-01,9.99999e-01,9.99774e-01,1.94343e-01,9.99998e-01
5.814530100e-01,2.00689e-01,9.99999e-01,9.99999e-01,9.99999e-01,9.99773e-01,2.00735e-01,9.99999e-01
5.843602750e-01,2.07148e-01,9.99999e-01,9.99999e-01,9.99999e-01,9.99732e-01,2.07204e-01,9.99998e-01
5.872820764e-01,2.13251e-01,9.99999e-01,9.99999e-01,9.99999e-01,9.97693e-01,2.13747e-01,9.99983e-01
5.902184868e-01,2.19732e-01,9.99999e-01,9.99999e-01,9.99999e-01,9.97184e-01,2.20362e-01,9.99955e-01
5.931695792e-01,2.26584e-01,9.99999e-01,9.99999e-01,9.99999e-01,9.98015e-01,2.27044e-01,9.99956e-01
5.961354271e-01,2.33276e-01,9.99999e-01,9.99999e-01,9.99999e-01,9.97821e-01,2.33792e-01,9.99973e-01
5.991161043e-01,2.40216e-01,9.99999e-01,9.99999e-01,9.99999e-01,9.98409e-01,2.40600e-01,9.99991e-01
6.021116848e-01,2.47243e-01,9.99999e-01,9.99999e-01,9.99999e-01,9.99096e-01,2.47467e-01,9.99998e-01
6.051222432e-01,2.54272e-01,9.99999e-01,9.99999e-01,9.99999e-01,9.99542e-01,2.54388e-01,9.99999e-01
6.081478544e-01,2.61309e-01,9.99999e-01,9.99999e-01,9.99999e-01,9.99802e-01,2.61360e-01,9.99999e-01
6.111885937e-01,2.68358e-01,9.99999e-01,9.99999e-01,9.99999e-01,9.99915e-01,2.68380e-01,9.99999e-01
6.142445367e-01,2.75434e-01,9.99999e-01,9.99999e-01,9.99999e-01,9.99962e-01,2.75445e-01,9.99999e-01
6.173157594e-01,2.82544e-01,9.99999e-01,9.99999e-01,9.99999e-01,9.99978e-01,2.82550e-01,9.99999e-01
6.204023382e-01,2.89687e-01,9.99999e-01,9.99999e-01,9.99999e-01,9.99982e-01,2.89692e-01,9.99999e-01
6.235043498e-01,2.96847e-01,9.99999e-01,9.99999e-01,9.99999e-01,9.99924e-01,2.96869e-01,9.99999e-01
6.266218716e-01,3.03953e-01,9.99999e-01,9.99999e-01,9.99999e-01,9.99595e-01,3.04077e-01,9.99996e-01
6.297549810e-01,3.11264e-01,9.99999e-01,9.99999e-01,9.99999e-01,9.99851e-01,3.11312e-01,9.99993e-01
6.329037559e-01,3.18476e-01,9.99999e-01,9.99999e-01,9.99999e-01,9.99706e-01,3.18571e-01,9.99994e-01
6.360682746e-01,3.25769e-01,9.99999e-01,9.99999e-01,9.99999e-01,9.99750e-01,3.25851e-01,9.99996e-01
6.392486160e-01,3.33041e-01,9.99999e-01,9.99999e-01,9.99999e-01,9.99676e-01,3.33149e-01,9.99998e-01
6.424448591e-01,3.40314e-01,9.99999e-01,9.99999e-01,9.99999e-01,9.99570e-01,3.40461e-01,9.99997e-01
6.456570834e-01,3.47087e-01,9.99999e-01,9.99999e-01,9.99999e-01,9.98004e-01,3.47784e-01,9.99988e-01
6.488853688e-01,3.54491e-01,9.99999e-01,9.99999e-01,9.99999e-01,9.98270e-01,3.55116e-01,9.99968e-01
6.521297956e-01,3.61899e-01,9.99999e-01,9.99999e-01,9.99999e-01,9.98496e-01,3.62453e-01,9.99973e-01
6.553904446e-01,3.69236e-01,9.99999e-01,9.99999e-01,9.99999e-01,9.98515e-01,3.69792e-01,9.99979e-01
6.586673968e-01,3.76644e-01,9.99999e-01,9.99999e-01,9.99999e-01,9.98717e-01,3.77130e-01,9.99993e-01
6.619607338e-01,3.84180e-01,9.99999e-01,9.99999e-01,9.99999e-01,9.99258e-01,3.84465e-01,9.99998e-01
6.652705375e-01,3.91625e-01,9.99999e-01,9.99999e-01,9.99999e-01,9.99569e-01,3.91793e-01,9.99998e-01
6.685968902e-01,3.99033e-01,9.99999e-01,9.99999e-01,9.99999e-01,9.99800e-01,3.99112e-01,9.99999e-01
6.719398746e-01,4.06382e-01,9.99999e-01,9.99999e-01,9.99999e-01,9.99906e-01,4.06419e-01,9.99999e-01
6.752995740e-01,4.13691e-01,9.99999e-01,9.99999e-01,9.99999e-01,9.99949e-01,4.13712e-01,9.99999e-01
6.786760719e-01,4.20957e-01,9.99999e-01,9.99999e-01,9.99999e-01,9.99927e-01,4.20988e-01,9.99999e-01
6.820694522e-01,4.28191e-01,9.99999e-01,9.99999e-01,9.99999e-01,9.99876e-01,4.28244e-01,9.99998e-01
6.854797995e-01,4.35408e-01,9.99999e-01,9.99999e-01,9.99999e-01,9.99840e-01,4.35478e-01,9.99998e-01
6.889071985e-01,4.42518e-01,9.99999e-01,9.99999e-01,9.99999e-01,9.99620e-01,4.42687e-01,9.99996e-01
6.923517345e-01,4.47047e-01,9.99999e-01,9.99999e-01,9.99999e-01,9.93752e-01,4.49871e-01,9.99969e-01
6.958134932e-01,4.55482e-01,9.99999e-01,9.99999e-01,9.99999e-01,9.96689e-01,4.57025e-01,9.99931e-01
6.992925606e-01,4.62687e-01,9.99999e-01,9.99999e-01,9.99999e-01,9.96910e-01,4.64149e-01,9.99939e-01
7.027890234e-01,4.69408e-01,9.99999e-01,9.99999e-01,9.99999e-01,9.96159e-01,4.71239e-01,9.99953e-01
7.063029686e-01,4.76741e-01,9.99999e-01,9.99999e-01,9.99999e-01,9.96773e-01,4.78295e-01,9.99976e-01
7.098344834e-01,4.83805e-01,9.99999e-01,9.99999e-01,9.99999e-01,9.96904e-01,4.85314e-01,9.99986e-01
7.133836558e-01,4.90272e-01,9.99999e-01,9.99999e-01,9.99999e-01,9.95919e-01,4.92294e-01,9.99972e-01
7.169505741e-01,4.82823e-01,9.99999e-01,9.99999e-01,9.99999e-01,9.67333e-01,4.99233e-01,9.99788e-01
7.205353270e-01,4.97669e-01,9.99999e-01,9.99999e-01,9.99999e-01,9.83646e-01,5.06131e-01,9.99627e-01
7.241380036e-01,5.02334e-01,9.99999e-01,9.99999e-01,9.99999e-01,9.79552e-01,5.12985e-01,9.99677e-01
7.277586936e-01,5.10051e-01,9.99999e-01,9.99999e-01,9.99999e-01,9.81514e-01,5.19793e-01,9.99736e-01
7.313974871e-01,5.16099e-01,9.99999e-01,9.99999e-01,9.99999e-01,9.80262e-01,5.26555e-01,9.99876e-01
7.350544745e-01,5.27485e-01,9.99999e-01,9.99999e-01,9.99999e-01,9.89197e-01,5.33268e-01,9.99956e-01
7.387297469e-01,5.35624e-01,9.99999e-01,9.99999e-01,9.99999e-01,9.92039e-01,5.39932e-01,9.99979e-01
7.424233956e-01,5.44407e-01,9.99999e-01,9.99999e-01,9.99999e-01,9.96091e-01,5.46545e-01,9.99995e-01
7.461355126e-01,5.51798e-01,9.99999e-01,9.99999e-01,9.99999e-01,9.97633e-01,5.53106e-01,9.99998e-01
7.498661902e-01,5.58996e-01,9.99999e-01,9.99999e-01,9.99999e-01,9.98895e-01,5.59614e-01,9.99999e-01
7.536155211e-01,5.65762e-01,9.99999e-01,9.99999e-01,9.99999e-01,9.99459e-01,5.66068e-01,9.99999e-01
7.573835987e-01,5.72307e-01,9.99999e-01,9.99999e-01,9.99999e-01,9.99721e-01,5.72467e-01,9.99999e-01
7.611705167e-01,5.78709e-01,9.99999e-01,9.99999e-01,9.99999e-01,9.99826e-01,5.78809e-01,9.99999e-01
7.649763693e-01,5.85031e-01,9.99999e-01,9.99999e-01,9.99999e-01,9.99891e-01,5.85094e-01,9.99999e-01
7.688012511e-01,5.91277e-01,9.99999e-01,9.99999e-01,9.99999e-01,9.99924e-01,5.91321e-01,9.99999e-01
7.726452574e-01,5.97453e-01,9.99999e-01,9.99999e-01,9.99999e-01,9.99937e-01,5.97490e-01,9.99999e-01
7.765084837e-01,6.03546e-01,9.99999e-01,9.99999e-01,9.99999e-01,9.99912e-01,6.03599e-01,9.99999e-01
7.803910261e-01,5.95466e-01,9.99999e-01,9.99999e-01,9.77096e-01,9.99622e-01,6.09648e-01,9.99999e-01
7.842929812e-01,5.53934e-01,9.99999e-01,9.99999e-01,9.00920e-01,9.98683e-01,6.15637e-01,9.99997e-01
7.882144461e-01,5.54585e-01,9.99999e-01,9.99999e-01,8.94631e-01,9.97268e-01,6.21564e-01,9.99982e-01
7.921555184e-01,5.87484e-01,9.99999e-01,9.99999e-01,9.37751e-01,9.98495e-01,6.27430e-01,9.99967e-01
7.961162960e-01,6.04841e-01,9.99999e-01,9.99999e-01,9.57698e-01,9.97366e-01,6.33233e-01,9.99968e-01
8.000968774e-01,6.22282e-01,9.99999e-01,9.99999e-01,9.76888e-01,9.96943e-01,6.38974e-01,9.99966e-01
8.040973618e-01,6.34909e-01,9.99999e-01,9.99999e-01,9.87923e-01,9.96946e-01,6.44652e-01,9.99973e-01
8.081178486e-01,6.42232e-01,9.99999e-01,9.99999e-01,9.94460e-01,9.93161e-01,6.50267e-01,9.99974e-01
8.121584379e-01,6.36093e-01,9.99999e-01,9.99999e-01,9.98273e-01,9.71681e-01,6.55818e-01,9.99903e-01
8.162192301e-01,6.38456e-01,9.99999e-01,9.99999e-01,9.99618e-01,9.66160e-01,6.61306e-01,9.99637e-01
8.203003262e-01,6.55241e-01,9.99999e-01,9.99999e-01,9.99993e-01,9.83190e-01,6.66730e-01,9.99575e-01
8.244018279e-01,6.55757e-01,9.99999e-01,9.99999e-01,9.99999e-01,9.76027e-01,6.72090e-01,9.99661e-01
8.285238370e-01,6.63532e-01,9.99999e-01,9.99999e-01,9.99999e-01,9.79807e-01,6.77386e-01,9.99734e-01
8.326664562e-01,6.68557e-01,9.99999e-01,9.99999e-01,9.99999e-01,9.79509e-01,6.82618e-01,9.99889e-01
8.368297885e-01,6.77673e-01,9.99999e-01,9.99999e-01,9.99999e-01,9.85321e-01,6.87785e-01,9.99974e-01
8.410139374e-01,6.86820e-01,9.99999e-01,9.99999e-01,9.99999e-01,9.91255e-01,6.92889e-01,9.99984e-01
8.452190071e-01,6.94923e-01,9.99999e-01,9.99999e-01,9.99999e-01,9.95701e-01,6.97929e-01,9.99990e-01
8.494451021e-01,7.01151e-01,9.99999e-01,9.99999e-01,9.99999e-01,9.97512e-01,7.02904e-01,9.99992e-01
8.536923276e-01,7.06768e-01,9.99999e-01,9.99999e-01,9.99999e-01,9.98524e-01,7.07816e-01,9.99994e-01
8.579607893e-01,7.12017e-01,9.99999e-01,9.99999e-01,9.99999e-01,9.99093e-01,7.12664e-01,9.99998e-01
8.622505932e-01,7.17034e-01,9.99999e-01,9.99999e-01,9.99999e-01,9.99422e-01,7.17448e-01,9.99999e-01
8.665618462e-01,6.81067e-01,9.99999e-01,9.99999e-01,9.43409e-01,9.99643e-01,7.22169e-01,9.99999e-01
8.708946554e-01,5.56699e-01,9.99999e-01,9.99999e-01,7.66233e-01,9.99593e-01,7.26827e-01,9.99999e-01
8.752491287e-01,5.90459e-01,9.99999e-01,9.99999e-01,8.07704e-01,9.99455e-01,7.31423e-01,9.99998e-01
8.796253743e-01,6.54433e-01,9.99999e-01,9.99999e-01,8.89885e-01,9.99248e-01,7.35955e-01,9.99997e-01
8.840235012e-01,6.96525e-01,9.99999e-01,9.99999e-01,9.41513e-01,9.99140e-01,7.40425e-01,9.99994e-01
8.884436187e-01,7.25070e-01,9.99999e-01,9.99999e-01,9.76477e-01,9.96910e-01,7.44834e-01,9.99984e-01
8.928858368e-01,7.17858e-01,9.99999e-01,9.99999e-01,9.90433e-01,9.67474e-01,7.49181e-01,9.99913e-01
8.973502660e-01,7.08302e-01,9.99999e-01,9.99999e-01,9.97655e-01,9.42651e-01,7.53466e-01,9.99558e-01
9.018370173e-01,7.34354e-01,9.99999e-01,9.99999e-01,9.99740e-01,9.70117e-01,7.57691e-01,9.99306e-01
9.063462024e-01,7.36927e-01,9.99999e-01,9.99999e-01,9.93536e-01,9.74029e-01,7.61855e-01,9.99390e-01
9.108779334e-01,7.23597e-01,9.99999e-01,9.99999e-01,9.84959e-01,9.59602e-01,7.65959e-01,9.99366e-01
9.154323231e-01,7.31757e-01,9.99999e-01,9.99999e-01,9.96422e-01,9.54188e-01,7.70004e-01,9.99476e-01
9.200094847e-01,7.08877e-01,9.99999e-01,9.99999e-01,9.49223e-01,9.63841e-01,7.73989e-01,9.99706e-01
9.246095321e-01,6.82693e-01,9.99999e-01,9.99999e-01,9.28493e-01,9.44613e-01,7.77916e-01,9.99662e-01
9.292325798e-01,5.02472e-01,9.99999e-01,9.99999e-01,9.43841e-01,6.78842e-01,7.81784e-01,9.98684e-01
9.338787427e-01,4.47863e-01,9.99999e-01,9.99999e-01,9.45310e-01,6.03654e-01,7.85595e-01,9.94576e-01
9.385481364e-01,6.15126e-01,9.99999e-01,9.99999e-01,9.59588e-01,8.15965e-01,7.89349e-01,9.93552e-01
9.432408771e-01,5.80204e-01,9.99999e-01,9.99999e-01,9.75018e-01,7.53798e-01,7.93045e-01,9.94435e-01
9.479570815e-01,5.29530e-01,9.99999e-01,9.99999e-01,9.87140e-01,6.76043e-01,7.96686e-01,9.95468e-01
9.526968669e-01,5.91454e-01,9.99999e-01,9.99999e-01,9.93769e-01,7.45453e-01,8.00271e-01,9.97233e-01
9.574603512e-01,6.13025e-01,9.99999e-01,9.99999e-01,9.97330e-01,7.65680e-01,8.03801e-01,9.98593e-01
9.622476530e-01,6.48494e-01,9.99999e-01,9.99999e-01,9.99165e-01,8.04737e-01,8.07276e-01,9.99027e-01
9.670588912e-01,7.14881e-01,9.99999e-01,9.99999e-01,9.99749e-01,8.82610e-01,8.10697e-01,9.99334e-01
9.718941857e-01,7.52819e-01,9.99999e-01,9.99999e-01,9.99981e-01,9.25234e-01,8.14064e-01,9.99509e-01
9.767536566e-01,7.66062e-01,9.99999e-01,9.99999e-01,9.99999e-01,9.37568e-01,8.17379e-01,9.99625e-01
9.816374249e-01,7.82209e-01,9.99999e-01,9.99999e-01,9.99999e-01,9.53291e-01,8.20641e-01,9.99870e-01
9.865456120e-01,7.99582e-01,9.99999e-01,9.99999e-01,9.99999e-01,9.70566e-01,8.23851e-01,9.99972e-01
9.914783401e-01,8.11890e-01,9.99999e-01,9.99999e-01,9.99999e-01,9.81723e-01,8.27011e-01,9.99992e-01
9.964357318e-01,8.21819e-01,9.99999e-01,9.99999e-01,9.99999e-01,9.90005e-01,8.30119e-01,9.99995e-01
1.001417910e+00,8.28172e-01,9.99999e-01,9.99999e-01,9.99999e-01,9.93998e-01,8.33178e-01,9.99992e-01
1.006425000e+00,8.33320e-01,9.99999e-01,9.99999e-01,9.99999e-01,9.96581e-01,8.36187e-01,9.99989e-01
1.011457125e+00,8.37354e-01,9.99999e-01,9.99999e-01,9.99999e-01,9.97872e-01,8.39147e-01,9.99990e-01
1.016514411e+00,8.40839e-01,9.99999e-01,9.99999e-01,9.99999e-01,9.98556e-01,8.42059e-01,9.99993e-01
1.021596983e+00,8.43920e-01,9.99999e-01,9.99999e-01,9.99968e-01,9.98850e-01,8.44923e-01,9.99993e-01
1.026704968e+00,8.44851e-01,9.99999e-01,9.99999e-01,9.97489e-01,9.99103e-01,8.47740e-01,9.99995e-01
1.031838492e+00,8.23066e-01,9.99999e-01,9.99999e-01,9.68350e-01,9.99347e-01,8.50510e-01,9.99998e-01
1.036997685e+00,1.85369e-01,9.99999e-01,9.99999e-01,2.17323e-01,9.99612e-01,8.53235e-01,9.99999e-01
1.042182673e+00,1.93154e-01,9.99999e-01,9.99999e-01,2.25764e-01,9.99540e-01,8.55914e-01,9.99999e-01
1.047393587e+00,1.98713e-01,9.99999e-01,9.99999e-01,2.31579e-01,9.99389e-01,8.58548e-01,9.99999e-01
1.052630555e+00,1.51482e-02,9.99999e-01,9.99999e-01,1.76022e-02,9.99162e-01,8.61138e-01,9.99999e-01
1.057893707e+00,3.21297e-02,9.99999e-01,9.99999e-01,3.72388e-02,9.98604e-01,8.63685e-01,9.99999e-01
1.063183176e+00,7.83400e-02,9.99999e-01,9.99999e-01,9.06021e-02,9.97701e-01,8.66189e-01,9.99998e-01
1.068499092e+00,1.69967e-01,9.99999e-01,9.99999e-01,1.96334e-01,9.96149e-01,8.68650e-01,9.99996e-01
1.073841587e+00,3.09758e-01,9.99999e-01,9.99999e-01,3.57028e-01,9.95500e-01,8.71070e-01,9.99993e-01
