#,Wave/freq,Total,N2,O2,CO2,H2O,Rayleigh,CIA
4.000000000e-01,1.53079e-09,9.99999e-01,9.99999e-01,9.99999e-01,9.99960e-01,1.53085e-09,9.99999e-01
4.020000000e-01,2.28675e-09,9.99999e-01,9.99999e-01,9.99999e-01,9.99975e-01,2.28680e-09,9.99999e-01
4.040100000e-01,3.38767e-09,9.99999e-01,9.99999e-01,9.99999e-01,9.99989e-01,3.38771e-09,9.99999e-01
4.060300500e-01,4.97978e-09,9.99999e-01,9.99999e-01,9.99999e-01,9.99997e-01,4.97979e-09,9.99999e-01
4.080602003e-01,7.26459e-09,9.99999e-01,9.99999e-01,9.99999e-01,9.99998e-01,7.26460e-09,9.99999e-01
4.101005013e-01,1.05190e-08,9.99999e-01,9.99999e-01,9.99999e-01,9.99999e-01,1.05190e-08,9.99999e-01
4.121510038e-01,1.51202e-08,9.99999e-01,9.99999e-01,9.99999e-01,9.99998e-01,1.51202e-08,9.99999e-01
4.142117588e-01,2.15788e-08,9.99999e-01,9.99999e-01,9.99999e-01,9.99988e-01,2.15790e-08,9.99999e-01
4.162828176e-01,3.05797e-08,9.99999e-01,9.99999e-01,9.99999e-01,9.99951e-01,3.05811e-08,9.99999e-01
4.183642317e-01,4.30400e-08,9.99999e-01,9.99999e-01,9.99999e-01,9.99970e-01,4.30412e-08,9.99999e-01
4.204560528e-01,6.01694e-08,9.99999e-01,9.99999e-01,9.99999e-01,9.99981e-01,6.01705e-08,9.99999e-01
4.225583331e-01,8.35614e-08,9.99999e-01,9.99999e-01,9.99999e-01,9.99992e-01,8.35620e-08,9.99999e-01
4.246711247e-01,1.15296e-07,9.99999e-01,9.99999e-01,9.99999e-01,9.99994e-01,1.15297e-07,9.99999e-01
4.267944804e-01,1.58074e-07,9.99999e-01,9.99999e-01,9.99999e-01,9.99991e-01,1.58075e-07,9.99999e-01
4.289284528e-01,2.15377e-07,9.99999e-01,9.99999e-01,9.99999e-01,9.99993e-01,2.15378e-07,9.99999e-01
4.310730950e-01,2.91667e-07,9.99999e-01,9.99999e-01,9.99999e-01,9.99996e-01,2.91667e-07,9.99999e-01
4.332284605e-01,3.92620e-07,9.99999e-01,9.99999e-01,9.99999e-01,9.99998e-01,3.92620e-07,9.99999e-01
4.353946028e-01,5.25421e-07,9.99999e-01,9.99999e-01,9.99999e-01,9.99999e-01,5.25421e-07,9.99999e-01
4.375715758e-01,6.99103e-07,9.99999e-01,9.99999e-01,9.99999e-01,9.99994e-01,6.99106e-07,9.99999e-01
4.397594337e-01,9.24932e-07,9.99999e-01,9.99999e-01,9.99999e-01,9.99956e-01,9.24972e-07,9.99999e-01
4.419582309e-01,1.21680e-06,9.99999e-01,9.99999e-01,9.99999e-01,9.99781e-01,1.21706e-06,9.99999e-01
4.441680220e-01,1.59246e-06,9.99999e-01,9.99999e-01,9.99999e-01,9.99832e-01,1.59273e-06,9.99999e-01
4.463888621e-01,2.07295e-06,9.99999e-01,9.99999e-01,9.99999e-01,9.99824e-01,2.07331e-06,9.99999e-01
4.486208064e-01,2.68458e-06,9.99999e-01,9.99999e-01,9.99999e-01,9.99891e-01,2.68488e-06,9.99999e-01
4.508639105e-01,3.45895e-06,9.99999e-01,9.99999e-01,9.99999e-01,9.99948e-01,3.45913e-06,9.99999e-01
4.531182300e-01,4.43432e-06,9.99999e-01,9.99999e-01,9.99999e-01,9.99979e-01,4.43441e-06,9.99999e-01
4.553838212e-01,5.65676e-06,9.99999e-01,9.99999e-01,9.99999e-01,9.99985e-01,5.65684e-06,9.99999e-01
4.576607403e-01,7.18159e-06,9.99999e-01,9.99999e-01,9.99999e-01,9.99993e-01,7.18164e-06,9.99999e-01
4.599490440e-01,9.07453e-06,9.99999e-01,9.99999e-01,9.99999e-01,9.99995e-01,9.07457e-06,9.99999e-01
4.622487892e-01,1.14136e-05,9.99999e-01,9.99999e-01,9.99999e-01,9.99998e-01,1.14136e-05,9.99999e-01
4.645600332e-01,1.42905e-05,9.99999e-01,9.99999e-01,9.99999e-01,9.99996e-01,1.42906e-05,9.99999e-01
4.668828333e-01,1.78126e-05,9.99999e-01,9.99999e-01,9.99999e-01,9.99947e-01,1.78135e-05,9.99999e-01
4.692172475e-01,2.21060e-05,9.99999e-01,9.99999e-01,9.99999e-01,9.99889e-01,2.21085e-05,9.99999e-01
4.715633337e-01,2.73202e-05,9.99999e-01,9.99999e-01,9.99999e-01,9.99927e-01,2.73222e-05,9.99999e-01
4.739211504e-01,3.36222e-05,9.99999e-01,9.99999e-01,9.99999e-01,9.99931e-01,3.36245e-05,9.99999e-01
4.762907561e-01,4.12097e-05,9.99999e-01,9.99999e-01,9.99999e-01,9.99964e-01,4.12112e-05,9.99999e-01
4.786722099e-01,5.03064e-05,9.99999e-01,9.99999e-01,9.99999e-01,9.99985e-01,5.03071e-05,9.99999e-01
4.810655710e-01,6.11689e-05,9.99999e-01,9.99999e-01,9.99999e-01,9.99995e-01,6.11692e-05,9.99999e-01
4.834708988e-01,7.40868e-05,9.99999e-01,9.99999e-01,9.99999e-01,9.99956e-01,7.40899e-05,9.99999e-01
4.858882533e-01,8.93939e-05,9.99999e-01,9.99999e-01,9.99999e-01,9.99921e-01,8.94008e-05,9.99999e-01
4.883176946e-01,1.07469e-04,9.99999e-01,9.99999e-01,9.99999e-01,9.99934e-01,1.07476e-04,9.99999e-01
4.907592831e-01,1.28730e-04,9.99999e-01,9.99999e-01,9.99999e-01,9.99940e-01,1.28737e-04,9.99999e-01
4.932130795e-01,1.53649e-04,9.99999e-01,9.99999e-01,9.99999e-01,9.99957e-01,1.53655e-04,9.99999e-01
4.956791449e-01,1.82752e-04,9.99999e-01,9.99999e-01,9.99999e-01,9.99977e-01,1.82756e-04,9.99999e-01
4.981575406e-01,2.16601e-04,9.99999e-01,9.99999e-01,9.99999e-01,9.99888e-01,2.16625e-04,9.99999e-01
5.006483283e-01,2.55836e-04,9.99999e-01,9.99999e-01,9.99999e-01,9.99710e-01,2.55911e-04,9.99997e-01
5.031515699e-01,3.00884e-04,9.99999e-01,9.99999e-01,9.99999e-01,9.98545e-01,3.01327e-04,9.99984e-01
5.056673278e-01,3.53383e-04,9.99999e-01,9.99999e-01,9.99999e-01,9.99234e-01,3.53659e-04,9.99982e-01
5.081956644e-01,4.13367e-04,9.99999e-01,9.99999e-01,9.99999e-01,9.99034e-01,4.13770e-04,9.99988e-01
5.107366428e-01,4.82284e-04,9.99999e-01,9.99999e-01,9.99999e-01,9.99348e-01,4.82599e-04,9.99997e-01
5.132903260e-01,5.60961e-04,9.99999e-01,9.99999e-01,9.99999e-01,9.99627e-01,5.61169e-04,9.99999e-01
5.158567776e-01,6.50488e-04,9.99999e-01,9.99999e-01,9.99999e-01,9.99842e-01,6.50590e-04,9.99999e-01
5.184360615e-01,7.52013e-04,9.99999e-01,9.99999e-01,9.99999e-01,9.99936e-01,7.52060e-04,9.99999e-01
5.210282418e-01,8.66850e-04,9.99999e-01,9.99999e-01,9.99999e-01,9.99975e-01,8.66870e-04,9.99999e-01
5.236333830e-01,9.96313e-04,9.99999e-01,9.99999e-01,9.99999e-01,9.99904e-01,9.96408e-04,9.99998e-01
5.262515499e-01,1.14209e-03,9.99999e-01,9.99999e-01,9.99999e-01,9.99940e-01,1.14216e-03,9.99998e-01
5.288828077e-01,1.30563e-03,9.99999e-01,9.99999e-01,9.99999e-01,9.99945e-01,1.30570e-03,9.99998e-01
5.315272217e-01,1.48865e-03,9.99999e-01,9.99999e-01,9.99999e-01,9.99952e-01,1.48872e-03,9.99999e-01
5.341848578e-01,1.69294e-03,9.99999e-01,9.99999e-01,9.99999e-01,9.99968e-01,1.69300e-03,9.99999e-01
5.368557821e-01,1.92021e-03,9.99999e-01,9.99999e-01,9.99999e-01,9.99888e-01,1.92042e-03,9.99999e-01
5.395400610e-01,2.17210e-03,9.99999e-01,9.99999e-01,9.99999e-01,9.99598e-01,2.17298e-03,9.99995e-01
5.422377613e-01,2.45149e-03,9.99999e-01,9.99999e-01,9.99999e-01,9.99486e-01,2.45277e-03,9.99990e-01
5.449489501e-01,2.76061e-03,9.99999e-01,9.99999e-01,9.99999e-01,9.99519e-01,2.76196e-03,9.99989e-01
5.476736949e-01,3.10152e-03,9.99999e-01,9.99999e-01,9.99999e-01,9.99577e-01,3.10284e-03,9.99994e-01
5.504120634e-01,3.47672e-03,9.99999e-01,9.99999e-01,9.99999e-01,9.99693e-01,3.47779e-03,9.99998e-01
5.531641237e-01,3.88867e-03,9.99999e-01,9.99999e-01,9.99999e-01,9.99845e-01,3.88927e-03,9.99999e-01
5.559299443e-01,4.33953e-03,9.99999e-01,9.99999e-01,9.99999e-01,9.99925e-01,4.33985e-03,9.99999e-01
5.587095940e-01,4.83192e-03,9.99999e-01,9.99999e-01,9.99999e-01,9.99952e-01,4.83215e-03,9.99999e-01
5.615031420e-01,5.36861e-03,9.99999e-01,9.99999e-01,9.99999e-01,9.99947e-01,5.36889e-03,9.99999e-01
5.643106577e-01,5.95249e-03,9.99999e-01,9.99999e-01,9.99999e-01,9.99939e-01,5.95285e-03,9.99998e-01
5.671322110e-01,6.58203e-03,9.99999e-01,9.99999e-01,9.99999e-01,9.99270e-01,6.58687e-03,9.99993e-01
5.699678720e-01,7.26822e-03,9.99999e-01,9.99999e-01,9.99999e-01,9.99241e-01,7.27387e-03,9.99979e-01
5.728177114e-01,8.01029e-03,9.99999e-01,9.99999e-01,9.99999e-01,9.99203e-01,8.01680e-03,9.99983e-01
5.756818000e-01,8.81214e-03,9.99999e-01,9.99999e-01,9.99999e-01,9.99269e-01,8.81866e-03,9.99990e-01
5.785602090e-01,9.67629e-03,9.99999e-01,9.99999e-01,9.99999e-01,9.99364e-01,9.68246e-03,9.99996e-01
5.814530100e-01,1.06045e-02,9.99999e-01,9.99999e-01,9.99999e-01,9.99360e-01,1.06113e-02,9.99998e-01
5.843602750e-01,1.15992e-02,9.99999e-01,9.99999e-01,9.99999e-01,9.99233e-01,1.16082e-02,9.99995e-01
5.872820764e-01,1.25922e-02,9.99999e-01,9.99999e-01,9.99999e-01,9.93415e-01,1.26762e-02,9.99953e-01
5.902184868e-01,1.37073e-02,9.99999e-01,9.99999e-01,9.99999e-01,9.92080e-01,1.38185e-02,9.99873e-01
5.931695792e-01,1.49518e-02,9.99999e-01,9.99999e-01,9.99999e-01,9.94387e-01,1.50380e-02,9.99878e-01
5.961354271e-01,1.62364e-02,9.99999e-01,9.99999e-01,9.99999e-01,9.93859e-01,1.63379e-02,9.99930e-01
5.991161043e-01,1.76413e-02,9.99999e-01,9.99999e-01,9.99999e-01,9.95522e-01,1.77210e-02,9.99978e-01
6.021116848e-01,1.91417e-02,9.99999e-01,9.99999e-01,9.99999e-01,9.97459e-01,1.91905e-02,9.99997e-01
6.051222432e-01,2.07224e-02,9.99999e-01,9.99999e-01,9.99999e-01,9.98714e-01,2.07491e-02,9.99999e-01
6.081478544e-01,2.23873e-02,9.99999e-01,9.99999e-01,9.99999e-01,9.99444e-01,2.23997e-02,9.99999e-01
6.111885937e-01,2.41395e-02,9.99999e-01,9.99999e-01,9.99999e-01,9.99765e-01,2.41451e-02,9.99999e-01
6.142445367e-01,2.59853e-02,9.99999e-01,9.99999e-01,9.99999e-01,9.99894e-01,2.59880e-02,9.99999e-01
6.173157594e-01,2.79293e-02,9.99999e-01,9.99999e-01,9.99999e-01,9.99941e-01,2.79309e-02,9.99999e-01
6.204023382e-01,2.99748e-02,9.99999e-01,9.99999e-01,9.99999e-01,9.99950e-01,2.99763e-02,9.99999e-01
6.235043498e-01,3.21196e-02,9.99999e-01,9.99999e-01,9.99999e-01,9.99780e-01,3.21267e-02,9.99998e-01
6.266218716e-01,3.43446e-02,9.99999e-01,9.99999e-01,9.99999e-01,9.98855e-01,3.43842e-02,9.99991e-01
6.297549810e-01,3.67350e-02,9.99999e-01,9.99999e-01,9.99999e-01,9.99579e-01,3.67510e-02,9.99983e-01
6.329037559e-01,3.91962e-02,9.99999e-01,9.99999e-01,9.99999e-01,9.99171e-01,3.92291e-02,9.99986e-01
6.360682746e-01,4.17905e-02,9.99999e-01,9.99999e-01,9.99999e-01,9.99292e-01,4.18204e-02,9.99991e-01
6.392486160e-01,4.44857e-02,9.99999e-01,9.99999e-01,9.99999e-01,9.99084e-01,4.45266e-02,9.99996e-01
6.424448591e-01,4.72905e-02,9.99999e-01,9.99999e-01,9.99999e-01,9.98766e-01,4.73492e-02,9.99993e-01
6.456570834e-01,5.00006e-02,9.99999e-01,9.99999e-01,9.99999e-01,9.94286e-01,5.02896e-02,9.99965e-01
6.488853688e-01,5.31232e-02,9.99999e-01,9.99999e-01,9.99999e-01,9.95851e-01,5.33491e-02,9.99911e-01
6.521297956e-01,5.62858e-02,9.99999e-01,9.99999e-01,9.99999e-01,9.95772e-01,5.65288e-02,9.99926e-01
6.553904446e-01,5.95736e-02,9.99999e-01,9.99999e-01,9.99999e-01,9.95774e-01,5.98295e-02,9.99945e-01
6.586673968e-01,6.30228e-02,9.99999e-01,9.99999e-01,9.99999e-01,9.96393e-01,6.32520e-02,9.99981e-01
6.619607338e-01,6.66624e-02,9.99999e-01,9.99999e-01,9.99999e-01,9.97989e-01,6.67969e-02,9.99995e-01
6.652705375e-01,7.03793e-02,9.99999e-01,9.99999e-01,9.99999e-01,9.98792e-01,7.04645e-02,9.99997e-01
6.685968902e-01,7.42169e-02,9.99999e-01,9.99999e-01,9.99999e-01,9.99487e-01,7.42550e-02,9.99999e-01
6.719398746e-01,7.81482e-02,9.99999e-01,9.99999e-01,9.99999e-01,9.99740e-01,7.81685e-02,9.99999e-01
6.752995740e-01,8.21935e-02,9.99999e-01,9.99999e-01,9.99999e-01,9.99862e-01,8.22048e-02,9.99999e-01
6.786760719e-01,8.63458e-02,9.99999e-01,9.99999e-01,9.99999e-01,9.99794e-01,8.63636e-02,9.99999e-01
6.820694522e-01,9.06125e-02,9.99999e-01,9.99999e-01,9.99999e-01,9.99650e-01,9.06443e-02,9.99997e-01
6.854797995e-01,9.50032e-02,9.99999e-01,9.99999e-01,9.99999e-01,9.99548e-01,9.50464e-02,9.99995e-01
6.889071985e-01,9.94581e-02,9.99999e-01,9.99999e-01,9.99999e-01,9.98895e-01,9.95690e-02,9.99989e-01
6.923517345e-01,1.02352e-01,9.99999e-01,9.99999e-01,9.99999e-01,9.82244e-01,1.04211e-01,9.99914e-01
6.958134932e-01,1.07958e-01,9.99999e-01,9.99999e-01,9.99999e-01,9.90886e-01,1.08971e-01,9.99810e-01
6.992925606e-01,1.12827e-01,9.99999e-01,9.99999e-01,9.99999e-01,9.91192e-01,1.13849e-01,9.99829e-01
7.027890234e-01,1.17543e-01,9.99999e-01,9.99999e-01,9.99999e-01,9.89204e-01,1.18841e-01,9.99869e-01
7.063029686e-01,1.22813e-01,9.99999e-01,9.99999e-01,9.99999e-01,9.90908e-01,1.23948e-01,9.99934e-01
7.098344834e-01,1.28035e-01,9.99999e-01,9.99999e-01,9.99999e-01,9.91275e-01,1.29167e-01,9.99961e-01
7.133836558e-01,1.32909e-01,9.99999e-01,9.99999e-01,9.99999e-01,9.88279e-01,1.34495e-01,9.99923e-01
7.169505741e-01,1.27289e-01,9.99999e-01,9.99999e-01,9.99999e-01,9.10193e-01,1.39932e-01,9.99401e-01
7.205353270e-01,1.38869e-01,9.99999e-01,9.99999e-01,9.99999e-01,9.55596e-01,1.45475e-01,9.98945e-01
7.241380036e-01,1.42409e-01,9.99999e-01,9.99999e-01,9.99999e-01,9.43206e-01,1.51121e-01,9.99089e-01
7.277586936e-01,1.48703e-01,9.99999e-01,9.99999e-01,9.99999e-01,9.48652e-01,1.56868e-01,9.99255e-01
7.313974871e-01,1.53826e-01,9.99999e-01,9.99999e-01,9.99999e-01,9.45706e-01,1.62714e-01,9.99650e-01
7.350544745e-01,1.63562e-01,9.99999e-01,9.99999e-01,9.99999e-01,9.69917e-01,1.68656e-01,9.99878e-01
7.387297469e-01,1.70800e-01,9.99999e-01,9.99999e-01,9.99999e-01,9.77780e-01,1.74691e-01,9.99943e-01
7.424233956e-01,1.78841e-01,9.99999e-01,9.99999e-01,9.99999e-01,9.89086e-01,1.80816e-01,9.99989e-01
7.461355126e-01,1.85788e-01,9.99999e-01,9.99999e-01,9.99999e-01,9.93364e-01,1.87029e-01,9.99997e-01
7.498661902e-01,1.92729e-01,9.99999e-01,9.99999e-01,9.99999e-01,9.96913e-01,1.93326e-01,9.99998e-01
7.536155211e-01,1.99401e-01,9.99999e-01,9.99999e-01,9.99999e-01,9.98481e-01,1.99704e-01,9.99999e-01
7.573835987e-01,2.06000e-01,9.99999e-01,9.99999e-01,9.99999e-01,9.99218e-01,2.06161e-01,9.99999e-01
7.611705167e-01,2.12589e-01,9.99999e-01,9.99999e-01,9.99999e-01,9.99513e-01,2.12693e-01,9.99999e-01
7.649763693e-01,2.19229e-01,9.99999e-01,9.99999e-01,9.99999e-01,9.99694e-01,2.19296e-01,9.99999e-01
7.688012511e-01,2.25920e-01,9.99999e-01,9.99999e-01,9.99999e-01,9.99787e-01,2.25968e-01,9.99999e-01
7.726452574e-01,2.32665e-01,9.99999e-01,9.99999e-01,9.99999e-01,9.99824e-01,2.32705e-01,9.99999e-01
7.765084837e-01,2.39445e-01,9.99999e-01,9.99999e-01,9.99999e-01,9.99749e-01,2.39505e-01,9.99999e-01
7.803910261e-01,2.31077e-01,9.99999e-01,9.99999e-01,9.38916e-01,9.98917e-01,2.46362e-01,9.99998e-01
7.842929812e-01,1.90350e-01,9.99999e-01,9.99999e-01,7.54170e-01,9.96226e-01,2.53275e-01,9.99992e-01
7.882144461e-01,1.91047e-01,9.99999e-01,9.99999e-01,7.39464e-01,9.92290e-01,2.60239e-01,9.99946e-01
7.921555184e-01,2.22181e-01,9.99999e-01,9.99999e-01,8.34800e-01,9.95783e-01,2.67251e-01,9.99907e-01
7.961162960e-01,2.41291e-01,9.99999e-01,9.99999e-01,8.86252e-01,9.92490e-01,2.74309e-01,9.99911e-01
8.000968774e-01,2.61254e-01,9.99999e-01,9.99999e-01,9.36506e-01,9.91368e-01,2.81408e-01,9.99906e-01
8.040973618e-01,2.76508e-01,9.99999e-01,9.99999e-01,9.66675e-01,9.91357e-01,2.88545e-01,9.99928e-01
8.081178486e-01,2.85461e-01,9.99999e-01,9.99999e-01,9.84506e-01,9.80532e-01,2.95716e-01,9.99927e-01
8.121584379e-01,2.77770e-01,9.99999e-01,9.99999e-01,9.95229e-01,9.21540e-01,3.02919e-01,9.99726e-01
8.162192301e-01,2.81137e-01,9.99999e-01,9.99999e-01,9.98944e-01,9.08309e-01,3.10150e-01,9.98973e-01
8.203003262e-01,3.02089e-01,9.99999e-01,9.99999e-01,9.99985e-01,9.52900e-01,3.17405e-01,9.98798e-01
8.244018279e-01,3.03679e-01,9.99999e-01,9.99999e-01,9.99999e-01,9.36205e-01,3.24682e-01,9.99043e-01
8.285238370e-01,3.13112e-01,9.99999e-01,9.99999e-01,9.99999e-01,9.43881e-01,3.31977e-01,9.99248e-01
8.326664562e-01,3.20018e-01,9.99999e-01,9.99999e-01,9.99999e-01,9.43498e-01,3.39288e-01,9.99688e-01
8.368297885e-01,3.32483e-01,9.99999e-01,9.99999e-01,9.99999e-01,9.59310e-01,3.46609e-01,9.99928e-01
8.410139374e-01,3.45299e-01,9.99999e-01,9.99999e-01,9.99999e-01,9.75627e-01,3.53940e-01,9.99958e-01
8.452190071e-01,3.56927e-01,9.99999e-01,9.99999e-01,9.99999e-01,9.87986e-01,3.61276e-01,9.99974e-01
8.494451021e-01,3.66025e-01,9.99999e-01,9.99999e-01,9.99999e-01,9.92992e-01,3.68615e-01,9.99979e-01
8.536923276e-01,3.74394e-01,9.99999e-01,9.99999e-01,9.99999e-01,9.95862e-01,3.75954e-01,9.99987e-01
8.579607893e-01,3.82309e-01,9.99999e-01,9.99999e-01,9.99999e-01,9.97444e-01,3.83289e-01,9.99996e-01
8.622505932e-01,3.89985e-01,9.99999e-01,9.99999e-01,9.99999e-01,9.98378e-01,3.90619e-01,9.99998e-01
8.665618462e-01,3.54309e-01,9.99999e-01,9.99999e-01,8.91205e-01,9.98993e-01,3.97939e-01,9.99999e-01
8.708946554e-01,1.99522e-01,9.99999e-01,9.99999e-01,4.92881e-01,9.98846e-01,4.05248e-01,9.99998e-01
8.752491287e-01,2.31207e-01,9.99999e-01,9.99999e-01,5.61266e-01,9.98457e-01,4.12544e-01,9.99997e-01
8.796253743e-01,3.03852e-01,9.99999e-01,9.99999e-01,7.25238e-01,9.97859e-01,4.19822e-01,9.99994e-01
8.840235012e-01,3.60169e-01,9.99999e-01,9.99999e-01,8.45346e-01,9.97556e-01,4.27081e-01,9.99984e-01
8.884436187e-01,4.02906e-01,9.99999e-01,9.99999e-01,9.35983e-01,9.90996e-01,4.34319e-01,9.99957e-01
8.928858368e-01,3.91293e-01,9.99999e-01,9.99999e-01,9.73479e-01,9.10172e-01,4.41533e-01,9.99755e-01
8.973502660e-01,3.77623e-01,9.99999e-01,9.99999e-01,9.93524e-01,8.47887e-01,4.48721e-01,9.98751e-01
9.018370173e-01,4.18183e-01,9.99999e-01,9.99999e-01,9.99285e-01,9.19731e-01,4.55880e-01,9.98038e-01
9.063462024e-01,4.21444e-01,9.99999e-01,9.99999e-01,9.81450e-01,9.28017e-01,4.63008e-01,9.98276e-01
9.108779334e-01,4.00881e-01,9.99999e-01,9.99999e-01,9.58420e-01,8.90478e-01,4.70104e-01,9.98209e-01
9.154323231e-01,4.13712e-01,9.99999e-01,9.99999e-01,9.90165e-01,8.76583e-01,4.77166e-01,9.98519e-01
9.200094847e-01,3.83644e-01,9.99999e-01,9.99999e-01,8.70682e-01,9.02277e-01,4.84191e-01,9.99170e-01
9.246095321e-01,3.41646e-01,9.99999e-01,9.99999e-01,8.12614e-01,8.51328e-01,4.91177e-01,9.99044e-01
9.292325798e-01,1.53095e-01,9.99999e-01,9.99999e-01,8.49929e-01,3.53533e-01,4.98123e-01,9.95398e-01
9.338787427e-01,1.15566e-01,9.99999e-01,9.99999e-01,8.54872e-01,2.65414e-01,5.05028e-01,9.83468e-01
9.385481364e-01,2.64413e-01,9.99999e-01,9.99999e-01,8.90747e-01,5.84052e-01,5.11889e-01,9.81852e-01
9.432408771e-01,2.28853e-01,9.99999e-01,9.99999e-01,9.31609e-01,4.78027e-01,5.18704e-01,9.84323e-01
9.479570815e-01,1.82780e-01,9.99999e-01,9.99999e-01,9.64235e-01,3.64225e-01,5.25474e-01,9.87222e-01
9.526968669e-01,2.40877e-01,9.99999e-01,9.99999e-01,9.82632e-01,4.63111e-01,5.32195e-01,9.92187e-01
9.574603512e-01,2.58180e-01,9.99999e-01,9.99999e-01,9.92539e-01,4.84219e-01,5.38867e-01,9.96023e-01
9.622476530e-01,2.99726e-01,9.99999e-01,9.99999e-01,9.97669e-01,5.52129e-01,5.45488e-01,9.97248e-01
9.670588912e-01,3.90240e-01,9.99999e-01,9.99999e-01,9.99302e-01,7.08663e-01,5.52058e-01,9.98117e-01
9.718941857e-01,4.48534e-01,9.99999e-01,9.99999e-01,9.99951e-01,8.04146e-01,5.58574e-01,9.98613e-01
9.767536566e-01,4.70930e-01,9.99999e-01,9.99999e-01,9.99999e-01,8.34334e-01,5.65037e-01,9.98940e-01
9.816374249e-01,4.99487e-01,9.99999e-01,9.99999e-01,9.99999e-01,8.74398e-01,5.71444e-01,9.99632e-01
9.865456120e-01,5.31239e-01,9.99999e-01,9.99999e-01,9.99999e-01,9.19493e-01,5.77796e-01,9.99923e-01
9.914783401e-01,5.54513e-01,9.99999e-01,9.99999e-01,9.99999e-01,9.49382e-01,5.84090e-01,9.99978e-01
9.964357318e-01,5.73859e-01,9.99999e-01,9.99999e-01,9.99999e-01,9.72116e-01,5.90327e-01,9.99987e-01
1.001417910e+00,5.86471e-01,9.99999e-01,9.99999e-01,9.99999e-01,9.83197e-01,5.96505e-01,9.99980e-01
1.006425000e+00,5.96805e-01,9.99999e-01,9.99999e-01,9.99999e-01,9.90371e-01,6.02623e-01,9.99972e-01
1.011457125e+00,6.05031e-01,9.99999e-01,9.99999e-01,9.99999e-01,9.94026e-01,6.08682e-01,9.99974e-01
1.016514411e+00,6.12172e-01,9.99999e-01,9.99999e-01,9.99999e-01,9.95936e-01,6.14680e-01,9.99981e-01
1.021596983e+00,6.18528e-01,9.99999e-01,9.99999e-01,9.99889e-01,9.96758e-01,6.20618e-01,9.99982e-01
1.026704968e+00,6.20322e-01,9.99999e-01,9.99999e-01,9.92663e-01,9.97470e-01,6.26493e-01,9.99988e-01
1.031838492e+00,5.85632e-01,9.99999e-01,9.99999e-01,9.27812e-01,9.98164e-01,6.32307e-01,9.99996e-01
1.036997685e+00,5.23219e-02,9.99999e-01,9.99999e-01,8.20705e-02,9.98907e-01,6.38058e-01,9.99998e-01
1.042182673e+00,1.44955e-02,9.99999e-01,9.99999e-01,2.25416e-02,9.98693e-01,6.43746e-01,9.99999e-01
1.047393587e+00,2.56814e-02,9.99999e-01,9.99999e-01,3.96067e-02,9.98270e-01,6.49371e-01,9.99999e-01
1.052630555e+00,5.54092e-05,9.99999e-01,9.99999e-01,8.47377e-05,9.97624e-01,6.54932e-01,9.99998e-01
1.057893707e+00,1.93920e-04,9.99999e-01,9.99999e-01,2.94307e-04,9.96032e-01,6.60430e-01,9.99998e-01
1.063183176e+00,1.54790e-03,9.99999e-01,9.99999e-01,2.33430e-03,9.93483e-01,6.65865e-01,9.99996e-01
1.068499092e+00,8.10064e-03,9.99999e-01,9.99999e-01,1.21678e-02,9.89123e-01,6.71235e-01,9.99992e-01
1.073841587e+00,4.05598e-02,9.99999e-01,9.99999e-01,6.05578e-02,9.87266e-01,6.76541e-01,9.99983e-01
