#,Wave/freq,Total,N2,O2,CO2,H2O,Rayleigh,CIA
4.000000000e-01,5.54609e-10,9.99999e-01,9.99999e-01,9.99999e-01,9.99958e-01,5.54631e-10,9.99999e-01
4.020000000e-01,8.45290e-10,9.99999e-01,9.99999e-01,9.99999e-01,9.99974e-01,8.45312e-10,9.99999e-01
4.040100000e-01,1.27710e-09,9.99999e-01,9.99999e-01,9.99999e-01,9.99988e-01,1.27712e-09,9.99999e-01
4.060300500e-01,1.91383e-09,9.99999e-01,9.99999e-01,9.99999e-01,9.99997e-01,1.91384e-09,9.99999e-01
4.080602003e-01,2.84517e-09,9.99999e-01,9.99999e-01,9.99999e-01,9.99998e-01,2.84517e-09,9.99999e-01
4.101005013e-01,4.19673e-09,9.99999e-01,9.99999e-01,9.99999e-01,9.99999e-01,4.19673e-09,9.99999e-01
4.121510038e-01,6.14298e-09,9.99999e-01,9.99999e-01,9.99999e-01,9.99997e-01,6.14299e-09,9.99999e-01
4.142117588e-01,8.92431e-09,9.99999e-01,9.99999e-01,9.99999e-01,9.99988e-01,8.92441e-09,9.99999e-01
4.162828176e-01,1.28693e-08,9.99999e-01,9.99999e-01,9.99999e-01,9.99948e-01,1.28699e-08,9.99999e-01
4.183642317e-01,1.84254e-08,9.99999e-01,9.99999e-01,9.99999e-01,9.99969e-01,1.84260e-08,9.99999e-01
4.204560528e-01,2.61939e-08,9.99999e-01,9.99999e-01,9.99999e-01,9.99981e-01,2.61944e-08,9.99999e-01
4.225583331e-01,3.69797e-08,9.99999e-01,9.99999e-01,9.99999e-01,9.99992e-01,3.69800e-08,9.99999e-01
4.246711247e-01,5.18520e-08,9.99999e-01,9.99999e-01,9.99999e-01,9.99993e-01,5.18523e-08,9.99999e-01
4.267944804e-01,7.22214e-08,9.99999e-01,9.99999e-01,9.99999e-01,9.99991e-01,7.22220e-08,9.99999e-01
4.289284528e-01,9.99368e-08,9.99999e-01,9.99999e-01,9.99999e-01,9.99993e-01,9.99375e-08,9.99999e-01
4.310730950e-01,1.37404e-07,9.99999e-01,9.99999e-01,9.99999e-01,9.99996e-01,1.37405e-07,9.99999e-01
4.332284605e-01,1.87734e-07,9.99999e-01,9.99999e-01,9.99999e-01,9.99998e-01,1.87734e-07,9.99999e-01
4.353946028e-01,2.54922e-07,9.99999e-01,9.99999e-01,9.99999e-01,9.99999e-01,2.54922e-07,9.99999e-01
4.375715758e-01,3.44068e-07,9.99999e-01,9.99999e-01,9.99999e-01,9.99994e-01,3.44070e-07,9.99999e-01
4.397594337e-01,4.61630e-07,9.99999e-01,9.99999e-01,9.99999e-01,9.99954e-01,4.61651e-07,9.99999e-01
4.419582309e-01,6.15686e-07,9.99999e-01,9.99999e-01,9.99999e-01,9.99769e-01,6.15828e-07,9.99999e-01
4.441680220e-01,8.16689e-07,9.99999e-01,9.99999e-01,9.99999e-01,9.99824e-01,8.16832e-07,9.99999e-01
4.463888621e-01,1.07722e-06,9.99999e-01,9.99999e-01,9.99999e-01,9.99815e-01,1.07742e-06,9.99999e-01
4.486208064e-01,1.41322e-06,9.99999e-01,9.99999e-01,9.99999e-01,9.99885e-01,1.41338e-06,9.99999e-01
4.508639105e-01,1.84409e-06,9.99999e-01,9.99999e-01,9.99999e-01,9.99946e-01,1.84419e-06,9.99999e-01
4.531182300e-01,2.39365e-06,9.99999e-01,9.99999e-01,9.99999e-01,9.99978e-01,2.39370e-06,9.99999e-01
4.553838212e-01,3.09094e-06,9.99999e-01,9.99999e-01,9.99999e-01,9.99985e-01,3.09099e-06,9.99999e-01
4.576607403e-01,3.97126e-06,9.99999e-01,9.99999e-01,9.99999e-01,9.99992e-01,3.97129e-06,9.99999e-01
4.599490440e-01,5.07708e-06,9.99999e-01,9.99999e-01,9.99999e-01,9.99994e-01,5.07710e-06,9.99999e-01
4.622487892e-01,6.45941e-06,9.99999e-01,9.99999e-01,9.99999e-01,9.99998e-01,6.45941e-06,9.99999e-01
4.645600332e-01,8.17906e-06,9.99999e-01,9.99999e-01,9.99999e-01,9.99996e-01,8.17908e-06,9.99999e-01
4.668828333e-01,1.03078e-05,9.99999e-01,9.99999e-01,9.99999e-01,9.99945e-01,1.03084e-05,9.99999e-01
4.692172475e-01,1.29313e-05,9.99999e-01,9.99999e-01,9.99999e-01,9.99884e-01,1.29328e-05,9.99999e-01
4.715633337e-01,1.61516e-05,9.99999e-01,9.99999e-01,9.99999e-01,9.99924e-01,1.61529e-05,9.99999e-01
4.739211504e-01,2.00848e-05,9.99999e-01,9.99999e-01,9.99999e-01,9.99927e-01,2.00862e-05,9.99999e-01
4.762907561e-01,2.48692e-05,9.99999e-01,9.99999e-01,9.99999e-01,9.99962e-01,2.48701e-05,9.99999e-01
4.786722099e-01,3.06632e-05,9.99999e-01,9.99999e-01,9.99999e-01,9.99984e-01,3.06637e-05,9.99999e-01
4.810655710e-01,3.76507e-05,9.99999e-01,9.99999e-01,9.99999e-01,9.99994e-01,3.76508e-05,9.99999e-01
4.834708988e-01,4.60410e-05,9.99999e-01,9.99999e-01,9.99999e-01,9.99954e-01,4.60431e-05,9.99999e-01
4.858882533e-01,5.60779e-05,9.99999e-01,9.99999e-01,9.99999e-01,9.99918e-01,5.60825e-05,9.99999e-01
4.883176946e-01,6.80407e-05,9.99999e-01,9.99999e-01,9.99999e-01,9.99930e-01,6.80454e-05,9.99999e-01
4.907592831e-01,8.22402e-05,9.99999e-01,9.99999e-01,9.99999e-01,9.99937e-01,8.22453e-05,9.99999e-01
4.932130795e-01,9.90327e-05,9.99999e-01,9.99999e-01,9.99999e-01,9.99955e-01,9.90371e-05,9.99999e-01
4.956791449e-01,1.18818e-04,9.99999e-01,9.99999e-01,9.99999e-01,9.99976e-01,1.18820e-04,9.99999e-01
4.981575406e-01,1.42027e-04,9.99999e-01,9.99999e-01,9.99999e-01,9.99882e-01,1.42043e-04,9.99999e-01
5.006483283e-01,1.69156e-04,9.99999e-01,9.99999e-01,9.99999e-01,9.99695e-01,1.69208e-04,9.99997e-01
5.031515699e-01,2.00562e-04,9.99999e-01,9.99999e-01,9.99999e-01,9.98471e-01,2.00872e-04,9.99983e-01
5.056673278e-01,2.37459e-04,9.99999e-01,9.99999e-01,9.99999e-01,9.99196e-01,2.37654e-04,9.99981e-01
5.081956644e-01,2.79952e-04,9.99999e-01,9.99999e-01,9.99999e-01,9.98986e-01,2.80239e-04,9.99988e-01
5.107366428e-01,3.29156e-04,9.99999e-01,9.99999e-01,9.99999e-01,9.99316e-01,3.29382e-04,9.99997e-01
5.132903260e-01,3.85757e-04,9.99999e-01,9.99999e-01,9.99999e-01,9.99609e-01,3.85908e-04,9.99999e-01
5.158567776e-01,4.50648e-04,9.99999e-01,9.99999e-01,9.99999e-01,9.99835e-01,4.50722e-04,9.99999e-01
5.184360615e-01,5.24776e-04,9.99999e-01,9.99999e-01,9.99999e-01,9.99933e-01,5.24810e-04,9.99999e-01
5.210282418e-01,6.09228e-04,9.99999e-01,9.99999e-01,9.99999e-01,9.99974e-01,6.09243e-04,9.99999e-01
5.236333830e-01,7.05107e-04,9.99999e-01,9.99999e-01,9.99999e-01,9.99900e-01,7.05178e-04,9.99998e-01
5.262515499e-01,8.13814e-04,9.99999e-01,9.99999e-01,9.99999e-01,9.99937e-01,8.13865e-04,9.99998e-01
5.288828077e-01,9.36595e-04,9.99999e-01,9.99999e-01,9.99999e-01,9.99942e-01,9.36649e-04,9.99998e-01
5.315272217e-01,1.07491e-03,9.99999e-01,9.99999e-01,9.99999e-01,9.99949e-01,1.07497e-03,9.99999e-01
5.341848578e-01,1.23032e-03,9.99999e-01,9.99999e-01,9.99999e-01,9.99966e-01,1.23036e-03,9.99999e-01
5.368557821e-01,1.40430e-03,9.99999e-01,9.99999e-01,9.99999e-01,9.99883e-01,1.40447e-03,9.99999e-01
5.395400610e-01,1.59834e-03,9.99999e-01,9.99999e-01,9.99999e-01,9.99576e-01,1.59903e-03,9.99995e-01
5.422377613e-01,1.81488e-03,9.99999e-01,9.99999e-01,9.99999e-01,9.99461e-01,1.81588e-03,9.99989e-01
5.449489501e-01,2.05590e-03,9.99999e-01,9.99999e-01,9.99999e-01,9.99495e-01,2.05696e-03,9.99989e-01
5.476736949e-01,2.32328e-03,9.99999e-01,9.99999e-01,9.99999e-01,9.99557e-01,2.32432e-03,9.99994e-01
5.504120634e-01,2.61926e-03,9.99999e-01,9.99999e-01,9.99999e-01,9.99678e-01,2.62011e-03,9.99998e-01
5.531641237e-01,2.94607e-03,9.99999e-01,9.99999e-01,9.99999e-01,9.99837e-01,2.94655e-03,9.99999e-01
5.559299443e-01,3.30573e-03,9.99999e-01,9.99999e-01,9.99999e-01,9.99921e-01,3.30598e-03,9.99999e-01
5.587095940e-01,3.70066e-03,9.99999e-01,9.99999e-01,9.99999e-01,9.99950e-01,3.70084e-03,9.99999e-01
5.615031420e-01,4.13342e-03,9.99999e-01,9.99999e-01,9.99999e-01,9.99944e-01,4.13364e-03,9.99999e-01
5.643106577e-01,4.60669e-03,9.99999e-01,9.99999e-01,9.99999e-01,9.99936e-01,4.60698e-03,9.99998e-01
5.671322110e-01,5.11956e-03,9.99999e-01,9.99999e-01,9.99999e-01,9.99230e-01,5.12353e-03,9.99992e-01
5.699678720e-01,5.68143e-03,9.99999e-01,9.99999e-01,9.99999e-01,9.99205e-01,5.68606e-03,9.99979e-01
5.728177114e-01,6.29199e-03,9.99999e-01,9.99999e-01,9.99999e-01,9.99162e-01,6.29737e-03,9.99982e-01
5.756818000e-01,6.95495e-03,9.99999e-01,9.99999e-01,9.99999e-01,9.99233e-01,6.96035e-03,9.99989e-01
5.785602090e-01,7.67280e-03,9.99999e-01,9.99999e-01,9.99999e-01,9.99333e-01,7.67794e-03,9.99996e-01
5.814530100e-01,8.44742e-03,9.99999e-01,9.99999e-01,9.99999e-01,9.99328e-01,8.45311e-03,9.99998e-01
5.843602750e-01,9.28134e-03,9.99999e-01,9.99999e-01,9.99999e-01,9.99193e-01,9.28887e-03,9.99995e-01
5.872820764e-01,1.01172e-02,9.99999e-01,9.99999e-01,9.99999e-01,9.93074e-01,1.01883e-02,9.99951e-01
5.902184868e-01,1.10602e-02,9.99999e-01,9.99999e-01,9.99999e-01,9.91690e-01,1.11544e-02,9.99867e-01
5.931695792e-01,1.21169e-02,9.99999e-01,9.99999e-01,9.99999e-01,9.94106e-01,1.21903e-02,9.99872e-01
5.961354271e-01,1.32123e-02,9.99999e-01,9.99999e-01,9.99999e-01,9.93555e-01,1.32990e-02,9.99926e-01
5.991161043e-01,1.44153e-02,9.99999e-01,9.99999e-01,9.99999e-01,9.95301e-01,1.44837e-02,9.99976e-01
6.021116848e-01,1.57053e-02,9.99999e-01,9.99999e-01,9.99999e-01,9.97335e-01,1.57473e-02,9.99997e-01
6.051222432e-01,1.70698e-02,9.99999e-01,9.99999e-01,9.99999e-01,9.98651e-01,1.70929e-02,9.99999e-01
6.081478544e-01,1.85127e-02,9.99999e-01,9.99999e-01,9.99999e-01,9.99417e-01,1.85234e-02,9.99999e-01
6.111885937e-01,2.00370e-02,9.99999e-01,9.99999e-01,9.99999e-01,9.99754e-01,2.00419e-02,9.99999e-01
6.142445367e-01,2.16487e-02,9.99999e-01,9.99999e-01,9.99999e-01,9.99889e-01,2.16511e-02,9.99999e-01
6.173157594e-01,2.33524e-02,9.99999e-01,9.99999e-01,9.99999e-01,9.99938e-01,2.33538e-02,9.99999e-01
6.204023382e-01,2.51515e-02,9.99999e-01,9.99999e-01,9.99999e-01,9.99947e-01,2.51528e-02,9.99999e-01
6.235043498e-01,2.70445e-02,9.99999e-01,9.99999e-01,9.99999e-01,9.99768e-01,2.70507e-02,9.99998e-01
6.266218716e-01,2.90149e-02,9.99999e-01,9.99999e-01,9.99999e-01,9.98797e-01,2.90501e-02,9.99991e-01
6.297549810e-01,3.11390e-02,9.99999e-01,9.99999e-01,9.99999e-01,9.99558e-01,3.11533e-02,9.99982e-01
6.329037559e-01,3.33333e-02,9.99999e-01,9.99999e-01,9.99999e-01,9.99131e-01,3.33627e-02,9.99986e-01
6.360682746e-01,3.56536e-02,9.99999e-01,9.99999e-01,9.99999e-01,9.99256e-01,3.56804e-02,9.99991e-01
6.392486160e-01,3.80719e-02,9.99999e-01,9.99999e-01,9.99999e-01,9.99038e-01,3.81086e-02,9.99995e-01
6.424448591e-01,4.05962e-02,9.99999e-01,9.99999e-01,9.99999e-01,9.98702e-01,4.06492e-02,9.99993e-01
6.456570834e-01,4.30420e-02,9.99999e-01,9.99999e-01,9.99999e-01,9.93989e-01,4.33038e-02,9.99963e-01
6.488853688e-01,4.58695e-02,9.99999e-01,9.99999e-01,9.99999e-01,9.95647e-01,4.60743e-02,9.99906e-01
6.521297956e-01,4.87411e-02,9.99999e-01,9.99999e-01,9.99999e-01,9.95565e-01,4.89619e-02,9.99923e-01
6.553904446e-01,5.17346e-02,9.99999e-01,9.99999e-01,9.99999e-01,9.95562e-01,5.19681e-02,9.99942e-01
6.586673968e-01,5.48845e-02,9.99999e-01,9.99999e-01,9.99999e-01,9.96216e-01,5.50940e-02,9.99980e-01
6.619607338e-01,5.82173e-02,9.99999e-01,9.99999e-01,9.99999e-01,9.97890e-01,5.83406e-02,9.99995e-01
6.652705375e-01,6.16304e-02,9.99999e-01,9.99999e-01,9.99999e-01,9.98733e-01,6.17086e-02,9.99997e-01
6.685968902e-01,6.51637e-02,9.99999e-01,9.99999e-01,9.99999e-01,9.99461e-01,6.51988e-02,9.99999e-01
6.719398746e-01,6.87928e-02,9.99999e-01,9.99999e-01,9.99999e-01,9.99727e-01,6.88115e-02,9.99999e-01
6.752995740e-01,7.25367e-02,9.99999e-01,9.99999e-01,9.99999e-01,9.99855e-01,7.25471e-02,9.99999e-01
6.786760719e-01,7.63892e-02,9.99999e-01,9.99999e-01,9.99999e-01,9.99783e-01,7.64057e-02,9.99999e-01
6.820694522e-01,8.03572e-02,9.99999e-01,9.99999e-01,9.99999e-01,9.99629e-01,8.03872e-02,9.99997e-01
6.854797995e-01,8.44509e-02,9.99999e-01,9.99999e-01,9.99999e-01,9.99525e-01,8.44913e-02,9.99995e-01
6.889071985e-01,8.86135e-02,9.99999e-01,9.99999e-01,9.99999e-01,9.98835e-01,8.87177e-02,9.99989e-01
6.923517345e-01,9.13204e-02,9.99999e-01,9.99999e-01,9.99999e-01,9.81334e-01,9.30657e-02,9.99910e-01
6.958134932e-01,9.65857e-02,9.99999e-01,9.99999e-01,9.99999e-01,9.90467e-01,9.75345e-02,9.99801e-01
6.992925606e-01,1.01160e-01,9.99999e-01,9.99999e-01,9.99999e-01,9.90738e-01,1.02123e-01,9.99820e-01
7.027890234e-01,1.05607e-01,9.99999e-01,9.99999e-01,9.99999e-01,9.88672e-01,1.06831e-01,9.99863e-01
7.063029686e-01,1.10583e-01,9.99999e-01,9.99999e-01,9.99999e-01,9.90458e-01,1.11656e-01,9.99931e-01
7.098344834e-01,1.15525e-01,9.99999e-01,9.99999e-01,9.99999e-01,9.90843e-01,1.16598e-01,9.99959e-01
7.133836558e-01,1.20143e-01,9.99999e-01,9.99999e-01,9.99999e-01,9.87660e-01,1.21654e-01,9.99919e-01
7.169505741e-01,1.14810e-01,9.99999e-01,9.99999e-01,9.99999e-01,9.05851e-01,1.26822e-01,9.99371e-01
7.205353270e-01,1.25834e-01,9.99999e-01,9.99999e-01,9.99999e-01,9.53604e-01,1.32102e-01,9.98892e-01
7.241380036e-01,1.29177e-01,9.99999e-01,9.99999e-01,9.99999e-01,9.40428e-01,1.37491e-01,9.99043e-01
7.277586936e-01,1.35181e-01,9.99999e-01,9.99999e-01,9.99999e-01,9.46149e-01,1.42987e-01,9.99217e-01
7.313974871e-01,1.40088e-01,9.99999e-01,9.99999e-01,9.99999e-01,9.43148e-01,1.48587e-01,9.99633e-01
7.350544745e-01,1.49405e-01,9.99999e-01,9.99999e-01,9.99999e-01,9.68464e-01,1.54289e-01,9.99872e-01
7.387297469e-01,1.56353e-01,9.99999e-01,9.99999e-01,9.99999e-01,9.76704e-01,1.60091e-01,9.99941e-01
7.424233956e-01,1.64090e-01,9.99999e-01,9.99999e-01,9.99999e-01,9.88560e-01,1.65991e-01,9.99989e-01
7.461355126e-01,1.70788e-01,9.99999e-01,9.99999e-01,9.99999e-01,9.93041e-01,1.71984e-01,9.99997e-01
7.498661902e-01,1.77494e-01,9.99999e-01,9.99999e-01,9.99999e-01,9.96765e-01,1.78070e-01,9.99998e-01
7.536155211e-01,1.83950e-01,9.99999e-01,9.99999e-01,9.99999e-01,9.98407e-01,1.84244e-01,9.99999e-01
7.573835987e-01,1.90347e-01,9.99999e-01,9.99999e-01,9.99999e-01,9.99180e-01,1.90504e-01,9.99999e-01
7.611705167e-01,1.96746e-01,9.99999e-01,9.99999e-01,9.99999e-01,9.99490e-01,1.96846e-01,9.99999e-01
7.649763693e-01,2.03203e-01,9.99999e-01,9.99999e-01,9.99999e-01,9.99679e-01,2.03268e-01,9.99999e-01
7.688012511e-01,2.09720e-01,9.99999e-01,9.99999e-01,9.99999e-01,9.99776e-01,2.09767e-01,9.99999e-01
7.726452574e-01,2.16299e-01,9.99999e-01,9.99999e-01,9.99999e-01,9.99815e-01,2.16339e-01,9.99999e-01
7.765084837e-01,2.22922e-01,9.99999e-01,9.99999e-01,9.99999e-01,9.99736e-01,2.22981e-01,9.99999e-01
7.803910261e-01,2.14713e-01,9.99999e-01,9.99999e-01,9.35800e-01,9.98861e-01,2.29689e-01,9.99998e-01
7.842929812e-01,1.75395e-01,9.99999e-01,9.99999e-01,7.44456e-01,9.96029e-01,2.36461e-01,9.99992e-01
7.882144461e-01,1.76030e-01,9.99999e-01,9.99999e-01,7.29048e-01,9.91906e-01,2.43293e-01,9.99943e-01
7.921555184e-01,2.06094e-01,9.99999e-01,9.99999e-01,8.27350e-01,9.95579e-01,2.50181e-01,9.99902e-01
7.961162960e-01,2.24774e-01,9.99999e-01,9.99999e-01,8.81108e-01,9.92103e-01,2.57123e-01,9.99907e-01
8.000968774e-01,2.44309e-01,9.99999e-01,9.99999e-01,9.33513e-01,9.90938e-01,2.64114e-01,9.99901e-01
8.040973618e-01,2.59305e-01,9.99999e-01,9.99999e-01,9.65106e-01,9.90922e-01,2.71152e-01,9.99924e-01
8.081178486e-01,2.68105e-01,9.99999e-01,9.99999e-01,9.83754e-01,9.79530e-01,2.78233e-01,9.99923e-01
8.121584379e-01,2.60510e-01,9.99999e-01,9.99999e-01,9.95010e-01,9.17689e-01,2.85353e-01,9.99713e-01
8.162192301e-01,2.63892e-01,9.99999e-01,9.99999e-01,9.98895e-01,9.04097e-01,2.92510e-01,9.98922e-01
8.203003262e-01,2.84501e-01,9.99999e-01,9.99999e-01,9.99984e-01,9.50498e-01,2.99699e-01,9.98738e-01
8.244018279e-01,2.86197e-01,9.99999e-01,9.99999e-01,9.99999e-01,9.33423e-01,3.06918e-01,9.98995e-01
8.285238370e-01,2.95437e-01,9.99999e-01,9.99999e-01,9.99999e-01,9.41138e-01,3.14163e-01,9.99211e-01
8.326664562e-01,3.02305e-01,9.99999e-01,9.99999e-01,9.99999e-01,9.40804e-01,3.21430e-01,9.99673e-01
8.368297885e-01,3.14679e-01,9.99999e-01,9.99999e-01,9.99999e-01,9.57363e-01,3.28718e-01,9.99925e-01
8.410139374e-01,3.27423e-01,9.99999e-01,9.99999e-01,9.99999e-01,9.74451e-01,3.36021e-01,9.99955e-01
8.452190071e-01,3.39006e-01,9.99999e-01,9.99999e-01,9.99999e-01,9.87406e-01,3.43338e-01,9.99973e-01
8.494451021e-01,3.48080e-01,9.99999e-01,9.99999e-01,9.99999e-01,9.92646e-01,3.50666e-01,9.99978e-01
8.536923276e-01,3.56442e-01,9.99999e-01,9.99999e-01,9.99999e-01,9.95660e-01,3.58000e-01,9.99986e-01
8.579607893e-01,3.64357e-01,9.99999e-01,9.99999e-01,9.99999e-01,9.97317e-01,3.65338e-01,9.99996e-01
8.622505932e-01,3.72043e-01,9.99999e-01,9.99999e-01,9.99999e-01,9.98299e-01,3.72677e-01,9.99998e-01
8.665618462e-01,3.36996e-01,9.99999e-01,9.99999e-01,8.87683e-01,9.98943e-01,3.80014e-01,9.99999e-01
8.708946554e-01,1.84592e-01,9.99999e-01,9.99999e-01,4.77098e-01,9.98787e-01,3.87346e-01,9.99998e-01
8.752491287e-01,2.15323e-01,9.99999e-01,9.99999e-01,5.46414e-01,9.98380e-01,3.94671e-01,9.99997e-01
8.796253743e-01,2.86539e-01,9.99999e-01,9.99999e-01,7.14331e-01,9.97749e-01,4.01986e-01,9.99994e-01
8.840235012e-01,3.42349e-01,9.99999e-01,9.99999e-01,8.38554e-01,9.97432e-01,4.09288e-01,9.99983e-01
8.884436187e-01,3.85039e-01,9.99999e-01,9.99999e-01,9.33035e-01,9.90496e-01,4.16574e-01,9.99955e-01
8.928858368e-01,3.73328e-01,9.99999e-01,9.99999e-01,9.72228e-01,9.05763e-01,4.23842e-01,9.99743e-01
8.973502660e-01,3.59753e-01,9.99999e-01,9.99999e-01,9.93223e-01,8.41087e-01,4.31090e-01,9.98689e-01
9.018370173e-01,4.00459e-01,9.99999e-01,9.99999e-01,9.99253e-01,9.16161e-01,4.38315e-01,9.97940e-01
9.063462024e-01,4.03571e-01,9.99999e-01,9.99999e-01,9.80454e-01,9.24470e-01,4.45514e-01,9.98190e-01
9.108779334e-01,3.83015e-01,9.99999e-01,9.99999e-01,9.56446e-01,8.85349e-01,4.52686e-01,9.98119e-01
9.154323231e-01,3.95900e-01,9.99999e-01,9.99999e-01,9.89719e-01,8.70895e-01,4.59829e-01,9.98445e-01
9.200094847e-01,3.66033e-01,9.99999e-01,9.99999e-01,8.65022e-01,8.97779e-01,4.66940e-01,9.99129e-01
9.246095321e-01,3.23837e-01,9.99999e-01,9.99999e-01,8.04462e-01,8.44175e-01,4.74017e-01,9.98997e-01
9.292325798e-01,1.39995e-01,9.99999e-01,9.99999e-01,8.42991e-01,3.36797e-01,4.81058e-01,9.95168e-01
9.338787427e-01,1.04649e-01,9.99999e-01,9.99999e-01,8.48402e-01,2.50331e-01,4.88062e-01,9.82648e-01
9.385481364e-01,2.48302e-01,9.99999e-01,9.99999e-01,8.85719e-01,5.70352e-01,4.95026e-01,9.80952e-01
9.432408771e-01,2.13401e-01,9.99999e-01,9.99999e-01,9.28406e-01,4.62325e-01,5.01950e-01,9.83545e-01
9.479570815e-01,1.68751e-01,9.99999e-01,9.99999e-01,9.62512e-01,3.48012e-01,5.08830e-01,9.86587e-01
9.526968669e-01,2.25164e-01,9.99999e-01,9.99999e-01,9.81797e-01,4.47246e-01,5.15666e-01,9.91797e-01
9.574603512e-01,2.41849e-01,9.99999e-01,9.99999e-01,9.92180e-01,4.68064e-01,5.22457e-01,9.95824e-01
9.622476530e-01,2.82752e-01,9.99999e-01,9.99999e-01,9.97557e-01,5.37014e-01,5.29199e-01,9.97110e-01
9.670588912e-01,3.72603e-01,9.99999e-01,9.99999e-01,9.99269e-01,6.97129e-01,5.35894e-01,9.98023e-01
9.718941857e-01,4.30978e-01,9.99999e-01,9.99999e-01,9.99949e-01,7.95567e-01,5.42538e-01,9.98544e-01
9.767536566e-01,4.53575e-01,9.99999e-01,9.99999e-01,9.99999e-01,8.26907e-01,5.49131e-01,9.98887e-01
9.816374249e-01,4.82514e-01,9.99999e-01,9.99999e-01,9.99999e-01,8.68678e-01,5.55671e-01,9.99614e-01
9.865456120e-01,5.14739e-01,9.99999e-01,9.99999e-01,9.99999e-01,9.15721e-01,5.62158e-01,9.99919e-01
9.914783401e-01,5.38420e-01,9.99999e-01,9.99999e-01,9.99999e-01,9.46959e-01,5.68590e-01,9.99977e-01
9.964357318e-01,5.58150e-01,9.99999e-01,9.99999e-01,9.99999e-01,9.70764e-01,5.74966e-01,9.99986e-01
1.001417910e+00,5.71034e-01,9.99999e-01,9.99999e-01,9.99999e-01,9.82382e-01,5.81286e-01,9.99979e-01
1.006425000e+00,5.81596e-01,9.99999e-01,9.99999e-01,9.99999e-01,9.89895e-01,5.87549e-01,9.99971e-01
1.011457125e+00,5.90018e-01,9.99999e-01,9.99999e-01,9.99999e-01,9.93734e-01,5.93753e-01,9.99973e-01
1.016514411e+00,5.97330e-01,9.99999e-01,9.99999e-01,9.99999e-01,9.95735e-01,5.99898e-01,9.99980e-01
1.021596983e+00,6.03840e-01,9.99999e-01,9.99999e-01,9.99879e-01,9.96598e-01,6.05984e-01,9.99981e-01
1.026704968e+00,6.05654e-01,9.99999e-01,9.99999e-01,9.92253e-01,9.97344e-01,6.12009e-01,9.99988e-01
1.031838492e+00,5.70262e-01,9.99999e-01,9.99999e-01,9.24491e-01,9.98073e-01,6.17974e-01,9.99996e-01
1.036997685e+00,4.85622e-02,9.99999e-01,9.99999e-01,7.79076e-02,9.98852e-01,6.23877e-01,9.99998e-01
1.042182673e+00,1.20906e-02,9.99999e-01,9.99999e-01,1.92216e-02,9.98627e-01,6.29718e-01,9.99999e-01
1.047393587e+00,2.21021e-02,9.99999e-01,9.99999e-01,3.48331e-02,9.98183e-01,6.35497e-01,9.99999e-01
1.052630555e+00,3.74113e-05,9.99999e-01,9.99999e-01,5.84415e-05,9.97504e-01,6.41213e-01,9.99998e-01
1.057893707e+00,1.33905e-04,9.99999e-01,9.99999e-01,2.07505e-04,9.95830e-01,6.46867e-01,9.99998e-01
1.063183176e+00,1.16799e-03,9.99999e-01,9.99999e-01,1.79788e-03,9.93154e-01,6.52457e-01,9.99995e-01
1.068499092e+00,6.45229e-03,9.99999e-01,9.99999e-01,9.89025e-03,9.88579e-01,6.57983e-01,9.99991e-01
1.073841587e+00,3.48068e-02,9.99999e-01,9.99999e-01,5.30173e-02,9.86624e-01,6.63446e-01,9.99982e-01
