#,Wave/freq,Total,N2,O2,CO2,H2O,Rayleigh,CIA
4.000000000e-01,1.32663e-07,9.99999e-01,9.99999e-01,9.99999e-01,9.99969e-01,1.32667e-07,9.99999e-01
4.020000000e-01,1.81441e-07,9.99999e-01,9.99999e-01,9.99999e-01,9.99980e-01,1.81445e-07,9.99999e-01
4.040100000e-01,2.46546e-07,9.99999e-01,9.99999e-01,9.99999e-01,9.99991e-01,2.46548e-07,9.99999e-01
4.060300500e-01,3.32986e-07,9.99999e-01,9.99999e-01,9.99999e-01,9.99997e-01,3.32987e-07,9.99999e-01
4.080602003e-01,4.47070e-07,9.99999e-01,9.99999e-01,9.99999e-01,9.99998e-01,4.47070e-07,9.99999e-01
4.101005013e-01,5.96755e-07,9.99999e-01,9.99999e-01,9.99999e-01,9.99999e-01,5.96755e-07,9.99999e-01
4.121510038e-01,7.92025e-07,9.99999e-01,9.99999e-01,9.99999e-01,9.99998e-01,7.92026e-07,9.99999e-01
4.142117588e-01,1.04532e-06,9.99999e-01,9.99999e-01,9.99999e-01,9.99991e-01,1.04533e-06,9.99999e-01
4.162828176e-01,1.37206e-06,9.99999e-01,9.99999e-01,9.99999e-01,9.99961e-01,1.37211e-06,9.99999e-01
4.183642317e-01,1.79135e-06,9.99999e-01,9.99999e-01,9.99999e-01,9.99977e-01,1.79139e-06,9.99999e-01
4.204560528e-01,2.32647e-06,9.99999e-01,9.99999e-01,9.99999e-01,9.99985e-01,2.32650e-06,9.99999e-01
4.225583331e-01,3.00589e-06,9.99999e-01,9.99999e-01,9.99999e-01,9.99994e-01,3.00591e-06,9.99999e-01
4.246711247e-01,3.86409e-06,9.99999e-01,9.99999e-01,9.99999e-01,9.99995e-01,3.86411e-06,9.99999e-01
4.267944804e-01,4.94272e-06,9.99999e-01,9.99999e-01,9.99999e-01,9.99993e-01,4.94275e-06,9.99999e-01
4.289284528e-01,6.29178e-06,9.99999e-01,9.99999e-01,9.99999e-01,9.99994e-01,6.29181e-06,9.99999e-01
4.310730950e-01,7.97098e-06,9.99999e-01,9.99999e-01,9.99999e-01,9.99997e-01,7.97100e-06,9.99999e-01
4.332284605e-01,1.00513e-05,9.99999e-01,9.99999e-01,9.99999e-01,9.99998e-01,1.00513e-05,9.99999e-01
4.353946028e-01,1.26165e-05,9.99999e-01,9.99999e-01,9.99999e-01,9.99999e-01,1.26165e-05,9.99999e-01
4.375715758e-01,1.57654e-05,9.99999e-01,9.99999e-01,9.99999e-01,9.99995e-01,1.57655e-05,9.99999e-01
4.397594337e-01,1.96133e-05,9.99999e-01,9.99999e-01,9.99999e-01,9.99966e-01,1.96139e-05,9.99999e-01
4.419582309e-01,2.42926e-05,9.99999e-01,9.99999e-01,9.99999e-01,9.99830e-01,2.42967e-05,9.99999e-01
4.441680220e-01,2.99666e-05,9.99999e-01,9.99999e-01,9.99999e-01,9.99868e-01,2.99706e-05,9.99999e-01
4.463888621e-01,3.68114e-05,9.99999e-01,9.99999e-01,9.99999e-01,9.99862e-01,3.68164e-05,9.99999e-01
4.486208064e-01,4.50388e-05,9.99999e-01,9.99999e-01,9.99999e-01,9.99914e-01,4.50426e-05,9.99999e-01
4.508639105e-01,5.48855e-05,9.99999e-01,9.99999e-01,9.99999e-01,9.99959e-01,5.48877e-05,9.99999e-01
4.531182300e-01,6.66230e-05,9.99999e-01,9.99999e-01,9.99999e-01,9.99983e-01,6.66240e-05,9.99999e-01
4.553838212e-01,8.05601e-05,9.99999e-01,9.99999e-01,9.99999e-01,9.99988e-01,8.05609e-05,9.99999e-01
4.576607403e-01,9.70480e-05,9.99999e-01,9.99999e-01,9.99999e-01,9.99994e-01,9.70485e-05,9.99999e-01
4.599490440e-01,1.16481e-04,9.99999e-01,9.99999e-01,9.99999e-01,9.99996e-01,1.16481e-04,9.99999e-01
4.622487892e-01,1.39302e-04,9.99999e-01,9.99999e-01,9.99999e-01,9.99998e-01,1.39302e-04,9.99999e-01
4.645600332e-01,1.66005e-04,9.99999e-01,9.99999e-01,9.99999e-01,9.99997e-01,1.66006e-04,9.99999e-01
4.668828333e-01,1.97137e-04,9.99999e-01,9.99999e-01,9.99999e-01,9.99959e-01,1.97145e-04,9.99999e-01
4.692172475e-01,2.33311e-04,9.99999e-01,9.99999e-01,9.99999e-01,9.99913e-01,2.33331e-04,9.99999e-01
4.715633337e-01,2.75226e-04,9.99999e-01,9.99999e-01,9.99999e-01,9.99943e-01,2.75241e-04,9.99999e-01
4.739211504e-01,3.23605e-04,9.99999e-01,9.99999e-01,9.99999e-01,9.99945e-01,3.23622e-04,9.99999e-01
4.762907561e-01,3.79281e-04,9.99999e-01,9.99999e-01,9.99999e-01,9.99971e-01,3.79292e-04,9.99999e-01
4.786722099e-01,4.43142e-04,9.99999e-01,9.99999e-01,9.99999e-01,9.99988e-01,4.43147e-04,9.99999e-01
4.810655710e-01,5.16161e-04,9.99999e-01,9.99999e-01,9.99999e-01,9.99996e-01,5.16162e-04,9.99999e-01
4.834708988e-01,5.99381e-04,9.99999e-01,9.99999e-01,9.99999e-01,9.99966e-01,5.99400e-04,9.99999e-01
4.858882533e-01,6.93967e-04,9.99999e-01,9.99999e-01,9.99999e-01,9.99938e-01,6.94009e-04,9.99999e-01
4.883176946e-01,8.01187e-04,9.99999e-01,9.99999e-01,9.99999e-01,9.99948e-01,8.01228e-04,9.99999e-01
4.907592831e-01,9.22347e-04,9.99999e-01,9.99999e-01,9.99999e-01,9.99953e-01,9.22390e-04,9.99999e-01
4.932130795e-01,1.05889e-03,9.99999e-01,9.99999e-01,9.99999e-01,9.99966e-01,1.05892e-03,9.99999e-01
4.956791449e-01,1.21234e-03,9.99999e-01,9.99999e-01,9.99999e-01,9.99982e-01,1.21236e-03,9.99999e-01
4.981575406e-01,1.38420e-03,9.99999e-01,9.99999e-01,9.99999e-01,9.99913e-01,1.38432e-03,9.99999e-01
5.006483283e-01,1.57618e-03,9.99999e-01,9.99999e-01,9.99999e-01,9.99775e-01,1.57654e-03,9.99997e-01
5.031515699e-01,1.78879e-03,9.99999e-01,9.99999e-01,9.99999e-01,9.98866e-01,1.79084e-03,9.99987e-01
5.056673278e-01,2.02792e-03,9.99999e-01,9.99999e-01,9.99999e-01,9.99402e-01,2.02916e-03,9.99985e-01
5.081956644e-01,2.29177e-03,9.99999e-01,9.99999e-01,9.99999e-01,9.99245e-01,2.29352e-03,9.99990e-01
5.107366428e-01,2.58474e-03,9.99999e-01,9.99999e-01,9.99999e-01,9.99490e-01,2.58606e-03,9.99997e-01
5.132903260e-01,2.90817e-03,9.99999e-01,9.99999e-01,9.99999e-01,9.99708e-01,2.90902e-03,9.99999e-01
5.158567776e-01,3.26430e-03,9.99999e-01,9.99999e-01,9.99999e-01,9.99876e-01,3.26470e-03,9.99999e-01
5.184360615e-01,3.65536e-03,9.99999e-01,9.99999e-01,9.99999e-01,9.99950e-01,3.65554e-03,9.99999e-01
5.210282418e-01,4.08395e-03,9.99999e-01,9.99999e-01,9.99999e-01,9.99981e-01,4.08403e-03,9.99999e-01
5.236333830e-01,4.55243e-03,9.99999e-01,9.99999e-01,9.99999e-01,9.99925e-01,4.55277e-03,9.99998e-01
5.262515499e-01,5.06419e-03,9.99999e-01,9.99999e-01,9.99999e-01,9.99953e-01,5.06443e-03,9.99998e-01
5.288828077e-01,5.62151e-03,9.99999e-01,9.99999e-01,9.99999e-01,9.99957e-01,5.62175e-03,9.99999e-01
5.315272217e-01,6.22732e-03,9.99999e-01,9.99999e-01,9.99999e-01,9.99962e-01,6.22755e-03,9.99999e-01
5.341848578e-01,6.88453e-03,9.99999e-01,9.99999e-01,9.99999e-01,9.99975e-01,6.88470e-03,9.99999e-01
5.368557821e-01,7.59547e-03,9.99999e-01,9.99999e-01,9.99999e-01,9.99913e-01,7.59613e-03,9.99999e-01
5.395400610e-01,8.36218e-03,9.99999e-01,9.99999e-01,9.99999e-01,9.99688e-01,8.36480e-03,9.99996e-01
5.422377613e-01,9.18999e-03,9.99999e-01,9.99999e-01,9.99999e-01,9.99598e-01,9.19374e-03,9.99992e-01
5.449489501e-01,1.00821e-02,9.99999e-01,9.99999e-01,9.99999e-01,9.99626e-01,1.00860e-02,9.99991e-01
5.476736949e-01,1.10409e-02,9.99999e-01,9.99999e-01,9.99999e-01,9.99669e-01,1.10446e-02,9.99995e-01
5.504120634e-01,1.20697e-02,9.99999e-01,9.99999e-01,9.99999e-01,9.99760e-01,1.20726e-02,9.99998e-01
5.531641237e-01,1.31716e-02,9.99999e-01,9.99999e-01,9.99999e-01,9.99879e-01,1.31732e-02,9.99999e-01
5.559299443e-01,1.43485e-02,9.99999e-01,9.99999e-01,9.99999e-01,9.99941e-01,1.43494e-02,9.99999e-01
5.587095940e-01,1.56036e-02,9.99999e-01,9.99999e-01,9.99999e-01,9.99963e-01,1.56041e-02,9.99999e-01
5.615031420e-01,1.69399e-02,9.99999e-01,9.99999e-01,9.99999e-01,9.99958e-01,1.69406e-02,9.99999e-01
5.643106577e-01,1.83607e-02,9.99999e-01,9.99999e-01,9.99999e-01,9.99953e-01,1.83616e-02,9.99999e-01
5.671322110e-01,1.98589e-02,9.99999e-01,9.99999e-01,9.99999e-01,9.99436e-01,1.98702e-02,9.99994e-01
5.699678720e-01,2.14562e-02,9.99999e-01,9.99999e-01,9.99999e-01,9.99404e-01,2.14693e-02,9.99984e-01
5.728177114e-01,2.31469e-02,9.99999e-01,9.99999e-01,9.99999e-01,9.99378e-01,2.31616e-02,9.99986e-01
5.756818000e-01,2.49355e-02,9.99999e-01,9.99999e-01,9.99999e-01,9.99430e-01,2.49499e-02,9.99991e-01
5.785602090e-01,2.68234e-02,9.99999e-01,9.99999e-01,9.99999e-01,9.99503e-01,2.68367e-02,9.99997e-01
5.814530100e-01,2.88104e-02,9.99999e-01,9.99999e-01,9.99999e-01,9.99501e-01,2.88248e-02,9.99998e-01
5.843602750e-01,3.08980e-02,9.99999e-01,9.99999e-01,9.99999e-01,9.99404e-01,3.09165e-02,9.99996e-01
5.872820764e-01,3.29433e-02,9.99999e-01,9.99999e-01,9.99999e-01,9.94878e-01,3.31140e-02,9.99963e-01
5.902184868e-01,3.51970e-02,9.99999e-01,9.99999e-01,9.99999e-01,9.93808e-01,3.54198e-02,9.99901e-01
5.931695792e-01,3.76665e-02,9.99999e-01,9.99999e-01,9.99999e-01,9.95620e-01,3.78357e-02,9.99905e-01
5.961354271e-01,4.01679e-02,9.99999e-01,9.99999e-01,9.99999e-01,9.95201e-01,4.03638e-02,9.99945e-01
5.991161043e-01,4.28545e-02,9.99999e-01,9.99999e-01,9.99999e-01,9.96499e-01,4.30058e-02,9.99982e-01
6.021116848e-01,4.56724e-02,9.99999e-01,9.99999e-01,9.99999e-01,9.98013e-01,4.57634e-02,9.99997e-01
6.051222432e-01,4.85891e-02,9.99999e-01,9.99999e-01,9.99999e-01,9.98994e-01,4.86380e-02,9.99999e-01
6.081478544e-01,5.16087e-02,9.99999e-01,9.99999e-01,9.99999e-01,9.99565e-01,5.16311e-02,9.99999e-01
6.111885937e-01,5.47337e-02,9.99999e-01,9.99999e-01,9.99999e-01,9.99816e-01,5.47438e-02,9.99999e-01
6.142445367e-01,5.79722e-02,9.99999e-01,9.99999e-01,9.99999e-01,9.99917e-01,5.79770e-02,9.99999e-01
6.173157594e-01,6.13289e-02,9.99999e-01,9.99999e-01,9.99999e-01,9.99954e-01,6.13316e-02,9.99999e-01
6.204023382e-01,6.48058e-02,9.99999e-01,9.99999e-01,9.99999e-01,9.99961e-01,6.48083e-02,9.99999e-01
6.235043498e-01,6.83959e-02,9.99999e-01,9.99999e-01,9.99999e-01,9.99830e-01,6.84075e-02,9.99999e-01
6.266218716e-01,7.20648e-02,9.99999e-01,9.99999e-01,9.99999e-01,9.99107e-01,7.21296e-02,9.99993e-01
6.297549810e-01,7.59488e-02,9.99999e-01,9.99999e-01,9.99999e-01,9.99672e-01,7.59746e-02,9.99986e-01
6.329037559e-01,7.98901e-02,9.99999e-01,9.99999e-01,9.99999e-01,9.99353e-01,7.99426e-02,9.99989e-01
6.360682746e-01,8.39864e-02,9.99999e-01,9.99999e-01,9.99999e-01,9.99448e-01,8.40332e-02,9.99993e-01
6.392486160e-01,8.81829e-02,9.99999e-01,9.99999e-01,9.99999e-01,9.99285e-01,8.82461e-02,9.99996e-01
6.424448591e-01,9.24918e-02,9.99999e-01,9.99999e-01,9.99999e-01,9.99042e-01,9.25808e-02,9.99995e-01
6.456570834e-01,9.66033e-02,9.99999e-01,9.99999e-01,9.99999e-01,9.95560e-01,9.70364e-02,9.99974e-01
6.488853688e-01,1.01275e-01,9.99999e-01,9.99999e-01,9.99999e-01,9.96756e-01,1.01612e-01,9.99930e-01
6.521297956e-01,1.05949e-01,9.99999e-01,9.99999e-01,9.99999e-01,9.96693e-01,1.06307e-01,9.99942e-01
6.553904446e-01,1.10748e-01,9.99999e-01,9.99999e-01,9.99999e-01,9.96705e-01,1.11119e-01,9.99957e-01
6.586673968e-01,1.15719e-01,9.99999e-01,9.99999e-01,9.99999e-01,9.97180e-01,1.16048e-01,9.99985e-01
6.619607338e-01,1.20900e-01,9.99999e-01,9.99999e-01,9.99999e-01,9.98428e-01,1.21091e-01,9.99996e-01
6.652705375e-01,1.26128e-01,9.99999e-01,9.99999e-01,9.99999e-01,9.99056e-01,1.26248e-01,9.99997e-01
6.685968902e-01,1.31458e-01,9.99999e-01,9.99999e-01,9.99999e-01,9.99561e-01,1.31515e-01,9.99999e-01
6.719398746e-01,1.36864e-01,9.99999e-01,9.99999e-01,9.99999e-01,9.99796e-01,1.36892e-01,9.99999e-01
6.752995740e-01,1.42360e-01,9.99999e-01,9.99999e-01,9.99999e-01,9.99889e-01,1.42376e-01,9.99999e-01
6.786760719e-01,1.47941e-01,9.99999e-01,9.99999e-01,9.99999e-01,9.99840e-01,1.47965e-01,9.99999e-01
6.820694522e-01,1.53614e-01,9.99999e-01,9.99999e-01,9.99999e-01,9.99727e-01,1.53656e-01,9.99998e-01
6.854797995e-01,1.59391e-01,9.99999e-01,9.99999e-01,9.99999e-01,9.99648e-01,1.59448e-01,9.99996e-01
6.889071985e-01,1.65194e-01,9.99999e-01,9.99999e-01,9.99999e-01,9.99146e-01,1.65336e-01,9.99991e-01
6.923517345e-01,1.68939e-01,9.99999e-01,9.99999e-01,9.99999e-01,9.86168e-01,1.71320e-01,9.99933e-01
6.958134932e-01,1.76096e-01,9.99999e-01,9.99999e-01,9.99999e-01,9.92820e-01,1.77395e-01,9.99852e-01
6.992925606e-01,1.82277e-01,9.99999e-01,9.99999e-01,9.99999e-01,9.93145e-01,1.83559e-01,9.99866e-01
7.027890234e-01,1.88188e-01,9.99999e-01,9.99999e-01,9.99999e-01,9.91557e-01,1.89810e-01,9.99898e-01
7.063029686e-01,1.94740e-01,9.99999e-01,9.99999e-01,9.99999e-01,9.92896e-01,1.96143e-01,9.99949e-01
7.098344834e-01,2.01170e-01,9.99999e-01,9.99999e-01,9.99999e-01,9.93183e-01,2.02557e-01,9.99969e-01
7.133836558e-01,2.07133e-01,9.99999e-01,9.99999e-01,9.99999e-01,9.90900e-01,2.09047e-01,9.99940e-01
7.169505741e-01,2.00261e-01,9.99999e-01,9.99999e-01,9.99999e-01,9.29238e-01,2.15611e-01,9.99533e-01
7.205353270e-01,2.14259e-01,9.99999e-01,9.99999e-01,9.99999e-01,9.64857e-01,2.22246e-01,9.99177e-01
7.241380036e-01,2.18582e-01,9.99999e-01,9.99999e-01,9.99999e-01,9.55407e-01,2.28947e-01,9.99289e-01
7.277586936e-01,2.26078e-01,9.99999e-01,9.99999e-01,9.99999e-01,9.59683e-01,2.35712e-01,9.99418e-01
7.313974871e-01,2.32100e-01,9.99999e-01,9.99999e-01,9.99999e-01,9.57225e-01,2.42537e-01,9.99727e-01
7.350544745e-01,2.43510e-01,9.99999e-01,9.99999e-01,9.99999e-01,9.76398e-01,2.49420e-01,9.99904e-01
7.387297469e-01,2.51879e-01,9.99999e-01,9.99999e-01,9.99999e-01,9.82581e-01,2.56356e-01,9.99956e-01
7.424233956e-01,2.61087e-01,9.99999e-01,9.99999e-01,9.99999e-01,9.91445e-01,2.63342e-01,9.99991e-01
7.461355126e-01,2.68970e-01,9.99999e-01,9.99999e-01,9.99999e-01,9.94806e-01,2.70375e-01,9.99998e-01
7.498661902e-01,2.76780e-01,9.99999e-01,9.99999e-01,9.99999e-01,9.97580e-01,2.77451e-01,9.99998e-01
7.536155211e-01,2.84229e-01,9.99999e-01,9.99999e-01,9.99999e-01,9.98811e-01,2.84567e-01,9.99999e-01
7.573835987e-01,2.91541e-01,9.99999e-01,9.99999e-01,9.99999e-01,9.99388e-01,2.91720e-01,9.99999e-01
7.611705167e-01,2.98792e-01,9.99999e-01,9.99999e-01,9.99999e-01,9.99619e-01,2.98905e-01,9.99999e-01
7.649763693e-01,3.06048e-01,9.99999e-01,9.99999e-01,9.99999e-01,9.99761e-01,3.06121e-01,9.99999e-01
7.688012511e-01,3.13311e-01,9.99999e-01,9.99999e-01,9.99999e-01,9.99833e-01,3.13363e-01,9.99999e-01
7.726452574e-01,3.20585e-01,9.99999e-01,9.99999e-01,9.99999e-01,9.99863e-01,3.20629e-01,9.99999e-01
7.765084837e-01,3.27850e-01,9.99999e-01,9.99999e-01,9.99999e-01,9.99805e-01,3.27914e-01,9.99999e-01
7.803910261e-01,3.18690e-01,9.99999e-01,9.99999e-01,9.51462e-01,9.99159e-01,3.35216e-01,9.99998e-01
7.842929812e-01,2.73210e-01,9.99999e-01,9.99999e-01,7.99806e-01,9.97068e-01,3.42532e-01,9.99994e-01
7.882144461e-01,2.73968e-01,9.99999e-01,9.99999e-01,7.87590e-01,9.93979e-01,3.49858e-01,9.99958e-01
7.921555184e-01,3.09135e-01,9.99999e-01,9.99999e-01,8.68291e-01,9.96698e-01,3.57191e-01,9.99927e-01
7.961162960e-01,3.29683e-01,9.99999e-01,9.99999e-01,9.09713e-01,9.94156e-01,3.64529e-01,9.99931e-01
8.000968774e-01,3.50865e-01,9.99999e-01,9.99999e-01,9.49962e-01,9.93260e-01,3.71868e-01,9.99926e-01
8.040973618e-01,3.66760e-01,9.99999e-01,9.99999e-01,9.73779e-01,9.93257e-01,3.79206e-01,9.99941e-01
8.081178486e-01,3.76051e-01,9.99999e-01,9.99999e-01,9.87862e-01,9.84840e-01,3.86539e-01,9.99945e-01
8.121584379e-01,3.68136e-01,9.99999e-01,9.99999e-01,9.96245e-01,9.38345e-01,3.93865e-01,9.99786e-01
8.162192301e-01,3.71457e-01,9.99999e-01,9.99999e-01,9.99169e-01,9.27398e-01,4.01181e-01,9.99199e-01
8.203003262e-01,3.93052e-01,9.99999e-01,9.99999e-01,9.99987e-01,9.63133e-01,4.08484e-01,9.99062e-01
8.244018279e-01,3.94350e-01,9.99999e-01,9.99999e-01,9.99999e-01,9.49183e-01,4.15772e-01,9.99253e-01
8.285238370e-01,4.04169e-01,9.99999e-01,9.99999e-01,9.99999e-01,9.55945e-01,4.23043e-01,9.99413e-01
8.326664562e-01,4.11056e-01,9.99999e-01,9.99999e-01,9.99999e-01,9.55525e-01,4.30293e-01,9.99757e-01
8.368297885e-01,4.23508e-01,9.99999e-01,9.99999e-01,9.99999e-01,9.68026e-01,4.37520e-01,9.99944e-01
8.410139374e-01,4.36207e-01,9.99999e-01,9.99999e-01,9.99999e-01,9.80883e-01,4.44722e-01,9.99967e-01
8.452190071e-01,4.47635e-01,9.99999e-01,9.99999e-01,9.99999e-01,9.90585e-01,4.51898e-01,9.99980e-01
8.494451021e-01,4.56523e-01,9.99999e-01,9.99999e-01,9.99999e-01,9.94524e-01,4.59044e-01,9.99983e-01
8.536923276e-01,4.64644e-01,9.99999e-01,9.99999e-01,9.99999e-01,9.96761e-01,4.66158e-01,9.99990e-01
8.579607893e-01,4.72293e-01,9.99999e-01,9.99999e-01,9.99999e-01,9.98003e-01,4.73239e-01,9.99997e-01
8.622505932e-01,4.79675e-01,9.99999e-01,9.99999e-01,9.99999e-01,9.98731e-01,4.80284e-01,9.99999e-01
8.665618462e-01,4.41017e-01,9.99999e-01,9.99999e-01,9.05711e-01,9.99214e-01,4.87292e-01,9.99999e-01
8.708946554e-01,2.81441e-01,9.99999e-01,9.99999e-01,5.69905e-01,9.99100e-01,4.94261e-01,9.99999e-01
8.752491287e-01,3.17000e-01,9.99999e-01,9.99999e-01,6.33227e-01,9.98797e-01,5.01189e-01,9.99998e-01
8.796253743e-01,3.93892e-01,9.99999e-01,9.99999e-01,7.76506e-01,9.98333e-01,5.08074e-01,9.99995e-01
8.840235012e-01,4.50492e-01,9.99999e-01,9.99999e-01,8.76526e-01,9.98096e-01,5.14916e-01,9.99987e-01
8.884436187e-01,4.91882e-01,9.99999e-01,9.99999e-01,9.49361e-01,9.93047e-01,5.21711e-01,9.99966e-01
8.928858368e-01,4.80915e-01,9.99999e-01,9.99999e-01,9.79150e-01,9.29333e-01,5.28459e-01,9.99809e-01
8.973502660e-01,4.67465e-01,9.99999e-01,9.99999e-01,9.94905e-01,8.78700e-01,5.35159e-01,9.99026e-01
9.018370173e-01,5.06212e-01,9.99999e-01,9.99999e-01,9.99437e-01,9.36234e-01,5.41808e-01,9.98469e-01
9.063462024e-01,5.09594e-01,9.99999e-01,9.99999e-01,9.85596e-01,9.43442e-01,5.48407e-01,9.98655e-01
9.108779334e-01,4.89875e-01,9.99999e-01,9.99999e-01,9.67297e-01,9.13303e-01,5.54953e-01,9.98602e-01
9.154323231e-01,5.02094e-01,9.99999e-01,9.99999e-01,9.92246e-01,9.02095e-01,5.61446e-01,9.98844e-01
9.200094847e-01,4.71733e-01,9.99999e-01,9.99999e-01,8.95611e-01,9.22561e-01,5.67884e-01,9.99353e-01
9.246095321e-01,4.31948e-01,9.99999e-01,9.99999e-01,8.49977e-01,8.81980e-01,5.74267e-01,9.99254e-01
9.292325798e-01,2.27330e-01,9.99999e-01,9.99999e-01,8.80636e-01,4.37958e-01,5.80593e-01,9.97098e-01
9.338787427e-01,1.80778e-01,9.99999e-01,9.99999e-01,8.84303e-01,3.46569e-01,5.86862e-01,9.88059e-01
9.385481364e-01,3.50309e-01,9.99999e-01,9.99999e-01,9.13432e-01,6.51191e-01,5.93072e-01,9.85814e-01
9.432408771e-01,3.11696e-01,9.99999e-01,9.99999e-01,9.46049e-01,5.54306e-01,5.99224e-01,9.87749e-01
9.479570815e-01,2.60147e-01,9.99999e-01,9.99999e-01,9.71929e-01,4.45701e-01,6.05317e-01,9.90018e-01
9.526968669e-01,3.25070e-01,9.99999e-01,9.99999e-01,9.86377e-01,5.41500e-01,6.11349e-01,9.93899e-01
9.574603512e-01,3.44999e-01,9.99999e-01,9.99999e-01,9.94153e-01,5.63589e-01,6.17320e-01,9.96896e-01
9.622476530e-01,3.88481e-01,9.99999e-01,9.99999e-01,9.98173e-01,6.25720e-01,6.23230e-01,9.97852e-01
9.670588912e-01,4.78778e-01,9.99999e-01,9.99999e-01,9.99452e-01,7.62585e-01,6.29078e-01,9.98530e-01
9.718941857e-01,5.34705e-01,9.99999e-01,9.99999e-01,9.99961e-01,8.43176e-01,6.34864e-01,9.98918e-01
9.767536566e-01,5.55513e-01,9.99999e-01,9.99999e-01,9.99999e-01,8.67910e-01,6.40587e-01,9.99173e-01
9.816374249e-01,5.81646e-01,9.99999e-01,9.99999e-01,9.99999e-01,9.00293e-01,6.46247e-01,9.99713e-01
9.865456120e-01,6.10387e-01,9.99999e-01,9.99999e-01,9.99999e-01,9.36455e-01,6.51844e-01,9.99939e-01
9.914783401e-01,6.31213e-01,9.99999e-01,9.99999e-01,9.99999e-01,9.60213e-01,6.57377e-01,9.99982e-01
9.964357318e-01,6.48350e-01,9.99999e-01,9.99999e-01,9.99999e-01,9.78137e-01,6.62847e-01,9.99989e-01
1.001417910e+00,6.59450e-01,9.99999e-01,9.99999e-01,9.99999e-01,9.86840e-01,6.68253e-01,9.99984e-01
1.006425000e+00,6.68512e-01,9.99999e-01,9.99999e-01,9.99999e-01,9.92475e-01,6.73595e-01,9.99978e-01
1.011457125e+00,6.75687e-01,9.99999e-01,9.99999e-01,9.99999e-01,9.95326e-01,6.78873e-01,9.99980e-01
1.016514411e+00,6.81905e-01,9.99999e-01,9.99999e-01,9.99999e-01,9.96823e-01,6.84086e-01,9.99985e-01
1.021596983e+00,6.87428e-01,9.99999e-01,9.99999e-01,9.99920e-01,9.97468e-01,6.89236e-01,9.99985e-01
1.026704968e+00,6.89025e-01,9.99999e-01,9.99999e-01,9.94340e-01,9.98024e-01,6.94321e-01,9.99990e-01
1.031838492e+00,6.56962e-01,9.99999e-01,9.99999e-01,9.40698e-01,9.98564e-01,6.99343e-01,9.99996e-01
1.036997685e+00,7.36718e-02,9.99999e-01,9.99999e-01,1.04672e-01,9.99146e-01,7.04300e-01,9.99999e-01
1.042182673e+00,3.32693e-02,9.99999e-01,9.99999e-01,4.69520e-02,9.98982e-01,7.09194e-01,9.99999e-01
1.047393587e+00,4.98920e-02,9.99999e-01,9.99999e-01,6.99562e-02,9.98650e-01,7.14024e-01,9.99999e-01
1.052630555e+00,3.27871e-04,9.99999e-01,9.99999e-01,4.56730e-04,9.98148e-01,7.18790e-01,9.99999e-01
1.057893707e+00,1.02263e-03,9.99999e-01,9.99999e-01,1.41616e-03,9.96909e-01,7.23494e-01,9.99998e-01
1.063183176e+00,5.52241e-03,9.99999e-01,9.99999e-01,7.60999e-03,9.94919e-01,7.28134e-01,9.99996e-01
1.068499092e+00,2.22822e-02,9.99999e-01,9.99999e-01,3.06156e-02,9.91508e-01,7.32711e-01,9.99993e-01
1.073841587e+00,8.01062e-02,9.99999e-01,9.99999e-01,1.09543e-01,9.90065e-01,7.37226e-01,9.99986e-01
