#,Wave/freq,Total,N2,O2,CO2,H2O,Rayleigh,CIA
4.000000000e-01,8.24172e-05,9.99999e-01,9.99999e-01,9.99999e-01,9.99981e-01,8.24187e-05,9.99999e-01
4.020000000e-01,9.92600e-05,9.99999e-01,9.99999e-01,9.99999e-01,9.99988e-01,9.92612e-05,9.99999e-01
4.040100000e-01,1.19083e-04,9.99999e-01,9.99999e-01,9.99999e-01,9.99994e-01,1.19084e-04,9.99999e-01
4.060300500e-01,1.42352e-04,9.99999e-01,9.99999e-01,9.99999e-01,9.99998e-01,1.42352e-04,9.99999e-01
4.080602003e-01,1.69568e-04,9.99999e-01,9.99999e-01,9.99999e-01,9.99999e-01,1.69568e-04,9.99999e-01
4.101005013e-01,2.01291e-04,9.99999e-01,9.99999e-01,9.99999e-01,9.99999e-01,2.01291e-04,9.99999e-01
4.121510038e-01,2.38140e-04,9.99999e-01,9.99999e-01,9.99999e-01,9.99998e-01,2.38141e-04,9.99999e-01
4.142117588e-01,2.80800e-04,9.99999e-01,9.99999e-01,9.99999e-01,9.99994e-01,2.80802e-04,9.99999e-01
4.162828176e-01,3.30022e-04,9.99999e-01,9.99999e-01,9.99999e-01,9.99977e-01,3.30030e-04,9.99999e-01
4.183642317e-01,3.86647e-04,9.99999e-01,9.99999e-01,9.99999e-01,9.99986e-01,3.86652e-04,9.99999e-01
4.204560528e-01,4.51570e-04,9.99999e-01,9.99999e-01,9.99999e-01,9.99991e-01,4.51574e-04,9.99999e-01
4.225583331e-01,5.25781e-04,9.99999e-01,9.99999e-01,9.99999e-01,9.99996e-01,5.25783e-04,9.99999e-01
4.246711247e-01,6.10348e-04,9.99999e-01,9.99999e-01,9.99999e-01,9.99997e-01,6.10349e-04,9.99999e-01
4.267944804e-01,7.06431e-04,9.99999e-01,9.99999e-01,9.99999e-01,9.99995e-01,7.06434e-04,9.99999e-01
4.289284528e-01,8.15284e-04,9.99999e-01,9.99999e-01,9.99999e-01,9.99996e-01,8.15286e-04,9.99999e-01
4.310730950e-01,9.38250e-04,9.99999e-01,9.99999e-01,9.99999e-01,9.99998e-01,9.38251e-04,9.99999e-01
4.332284605e-01,1.07677e-03,9.99999e-01,9.99999e-01,9.99999e-01,9.99999e-01,1.07677e-03,9.99999e-01
4.353946028e-01,1.23238e-03,9.99999e-01,9.99999e-01,9.99999e-01,9.99999e-01,1.23238e-03,9.99999e-01
4.375715758e-01,1.40673e-03,9.99999e-01,9.99999e-01,9.99999e-01,9.99997e-01,1.40673e-03,9.99999e-01
4.397594337e-01,1.60152e-03,9.99999e-01,9.99999e-01,9.99999e-01,9.99980e-01,1.60155e-03,9.99999e-01
4.419582309e-01,1.81851e-03,9.99999e-01,9.99999e-01,9.99999e-01,9.99901e-01,1.81869e-03,9.99999e-01
4.441680220e-01,2.05992e-03,9.99999e-01,9.99999e-01,9.99999e-01,9.99920e-01,2.06008e-03,9.99999e-01
4.463888621e-01,2.32759e-03,9.99999e-01,9.99999e-01,9.99999e-01,9.99918e-01,2.32778e-03,9.99999e-01
4.486208064e-01,2.62379e-03,9.99999e-01,9.99999e-01,9.99999e-01,9.99948e-01,2.62393e-03,9.99999e-01
4.508639105e-01,2.95069e-03,9.99999e-01,9.99999e-01,9.99999e-01,9.99975e-01,2.95076e-03,9.99999e-01
4.531182300e-01,3.31059e-03,9.99999e-01,9.99999e-01,9.99999e-01,9.99990e-01,3.31062e-03,9.99999e-01
4.553838212e-01,3.70590e-03,9.99999e-01,9.99999e-01,9.99999e-01,9.99993e-01,3.70593e-03,9.99999e-01
4.576607403e-01,4.13920e-03,9.99999e-01,9.99999e-01,9.99999e-01,9.99996e-01,4.13921e-03,9.99999e-01
4.599490440e-01,4.61305e-03,9.99999e-01,9.99999e-01,9.99999e-01,9.99997e-01,4.61306e-03,9.99999e-01
4.622487892e-01,5.13016e-03,9.99999e-01,9.99999e-01,9.99999e-01,9.99999e-01,5.13016e-03,9.99999e-01
4.645600332e-01,5.69326e-03,9.99999e-01,9.99999e-01,9.99999e-01,9.99998e-01,5.69327e-03,9.99999e-01
4.668828333e-01,6.30505e-03,9.99999e-01,9.99999e-01,9.99999e-01,9.99975e-01,6.30520e-03,9.99999e-01
4.692172475e-01,6.96848e-03,9.99999e-01,9.99999e-01,9.99999e-01,9.99948e-01,6.96883e-03,9.99999e-01
4.715633337e-01,7.68685e-03,9.99999e-01,9.99999e-01,9.99999e-01,9.99966e-01,7.68711e-03,9.99999e-01
4.739211504e-01,8.46273e-03,9.99999e-01,9.99999e-01,9.99999e-01,9.99967e-01,8.46300e-03,9.99999e-01
4.762907561e-01,9.29937e-03,9.99999e-01,9.99999e-01,9.99999e-01,9.99982e-01,9.29953e-03,9.99999e-01
4.786722099e-01,1.01997e-02,9.99999e-01,9.99999e-01,9.99999e-01,9.99992e-01,1.01997e-02,9.99999e-01
4.810655710e-01,1.11667e-02,9.99999e-01,9.99999e-01,9.99999e-01,9.99997e-01,1.11667e-02,9.99999e-01
4.834708988e-01,1.22032e-02,9.99999e-01,9.99999e-01,9.99999e-01,9.99980e-01,1.22034e-02,9.99999e-01
4.858882533e-01,1.33126e-02,9.99999e-01,9.99999e-01,9.99999e-01,9.99963e-01,1.33131e-02,9.99999e-01
4.883176946e-01,1.44983e-02,9.99999e-01,9.99999e-01,9.99999e-01,9.99969e-01,1.44987e-02,9.99999e-01
4.907592831e-01,1.57629e-02,9.99999e-01,9.99999e-01,9.99999e-01,9.99972e-01,1.57633e-02,9.99999e-01
4.932130795e-01,1.71096e-02,9.99999e-01,9.99999e-01,9.99999e-01,9.99980e-01,1.71099e-02,9.99999e-01
4.956791449e-01,1.85414e-02,9.99999e-01,9.99999e-01,9.99999e-01,9.99989e-01,1.85416e-02,9.99999e-01
4.981575406e-01,2.00601e-02,9.99999e-01,9.99999e-01,9.99999e-01,9.99948e-01,2.00611e-02,9.99999e-01
5.006483283e-01,2.16686e-02,9.99999e-01,9.99999e-01,9.99999e-01,9.99868e-01,2.16714e-02,9.99998e-01
5.031515699e-01,2.33595e-02,9.99999e-01,9.99999e-01,9.99999e-01,9.99328e-01,2.33753e-02,9.99992e-01
5.056673278e-01,2.51664e-02,9.99999e-01,9.99999e-01,9.99999e-01,9.99644e-01,2.51755e-02,9.99991e-01
5.081956644e-01,2.70624e-02,9.99999e-01,9.99999e-01,9.99999e-01,9.99550e-01,2.70747e-02,9.99994e-01
5.107366428e-01,2.90665e-02,9.99999e-01,9.99999e-01,9.99999e-01,9.99696e-01,2.90753e-02,9.99998e-01
5.132903260e-01,3.11744e-02,9.99999e-01,9.99999e-01,9.99999e-01,9.99825e-01,3.11798e-02,9.99999e-01
5.158567776e-01,3.33881e-02,9.99999e-01,9.99999e-01,9.99999e-01,9.99926e-01,3.33905e-02,9.99999e-01
5.184360615e-01,3.57086e-02,9.99999e-01,9.99999e-01,9.99999e-01,9.99970e-01,3.57096e-02,9.99999e-01
5.210282418e-01,3.81388e-02,9.99999e-01,9.99999e-01,9.99999e-01,9.99988e-01,3.81392e-02,9.99999e-01
5.236333830e-01,4.06793e-02,9.99999e-01,9.99999e-01,9.99999e-01,9.99955e-01,4.06811e-02,9.99999e-01
5.262515499e-01,4.33360e-02,9.99999e-01,9.99999e-01,9.99999e-01,9.99972e-01,4.33372e-02,9.99999e-01
5.288828077e-01,4.61079e-02,9.99999e-01,9.99999e-01,9.99999e-01,9.99974e-01,4.61090e-02,9.99999e-01
5.315272217e-01,4.89970e-02,9.99999e-01,9.99999e-01,9.99999e-01,9.99977e-01,4.89981e-02,9.99999e-01
5.341848578e-01,5.20050e-02,9.99999e-01,9.99999e-01,9.99999e-01,9.99985e-01,5.20058e-02,9.99999e-01
5.368557821e-01,5.51304e-02,9.99999e-01,9.99999e-01,9.99999e-01,9.99948e-01,5.51332e-02,9.99999e-01
5.395400610e-01,5.83705e-02,9.99999e-01,9.99999e-01,9.99999e-01,9.99817e-01,5.83812e-02,9.99997e-01
5.422377613e-01,6.17357e-02,9.99999e-01,9.99999e-01,9.99999e-01,9.99760e-01,6.17507e-02,9.99995e-01
5.449489501e-01,6.52277e-02,9.99999e-01,9.99999e-01,9.99999e-01,9.99779e-01,6.52424e-02,9.99995e-01
5.476736949e-01,6.88429e-02,9.99999e-01,9.99999e-01,9.99999e-01,9.99802e-01,6.88567e-02,9.99997e-01
5.504120634e-01,7.25834e-02,9.99999e-01,9.99999e-01,9.99999e-01,9.99856e-01,7.25938e-02,9.99998e-01
5.531641237e-01,7.64484e-02,9.99999e-01,9.99999e-01,9.99999e-01,9.99927e-01,7.64539e-02,9.99999e-01
5.559299443e-01,8.04341e-02,9.99999e-01,9.99999e-01,9.99999e-01,9.99964e-01,8.04369e-02,9.99999e-01
5.587095940e-01,8.45407e-02,9.99999e-01,9.99999e-01,9.99999e-01,9.99977e-01,8.45425e-02,9.99999e-01
5.615031420e-01,8.87682e-02,9.99999e-01,9.99999e-01,9.99999e-01,9.99975e-01,8.87704e-02,9.99999e-01
5.643106577e-01,9.31173e-02,9.99999e-01,9.99999e-01,9.99999e-01,9.99972e-01,9.31198e-02,9.99999e-01
5.671322110e-01,9.75582e-02,9.99999e-01,9.99999e-01,9.99999e-01,9.99674e-01,9.75902e-02,9.99996e-01
5.699678720e-01,1.02143e-01,9.99999e-01,9.99999e-01,9.99999e-01,9.99642e-01,1.02180e-01,9.99990e-01
5.728177114e-01,1.06850e-01,9.99999e-01,9.99999e-01,9.99999e-01,9.99632e-01,1.06890e-01,9.99991e-01
5.756818000e-01,1.11678e-01,9.99999e-01,9.99999e-01,9.99999e-01,9.99661e-01,1.11716e-01,9.99994e-01
5.785602090e-01,1.16624e-01,9.99999e-01,9.99999e-01,9.99999e-01,9.99704e-01,1.16659e-01,9.99998e-01
5.814530100e-01,1.21680e-01,9.99999e-01,9.99999e-01,9.99999e-01,9.99703e-01,1.21716e-01,9.99998e-01
5.843602750e-01,1.26842e-01,9.99999e-01,9.99999e-01,9.99999e-01,9.99650e-01,1.26887e-01,9.99997e-01
5.872820764e-01,1.31766e-01,9.99999e-01,9.99999e-01,9.99999e-01,9.96982e-01,1.32168e-01,9.99978e-01
5.902184868e-01,1.37042e-01,9.99999e-01,9.99999e-01,9.99999e-01,9.96307e-01,1.37558e-01,9.99941e-01
5.931695792e-01,1.42675e-01,9.99999e-01,9.99999e-01,9.99999e-01,9.97399e-01,1.43055e-01,9.99942e-01
5.961354271e-01,1.48227e-01,9.99999e-01,9.99999e-01,9.99999e-01,9.97142e-01,1.48656e-01,9.99965e-01
5.991161043e-01,1.54036e-01,9.99999e-01,9.99999e-01,9.99999e-01,9.97913e-01,1.54360e-01,9.99989e-01
6.021116848e-01,1.59973e-01,9.99999e-01,9.99999e-01,9.99999e-01,9.98813e-01,1.60163e-01,9.99998e-01
6.051222432e-01,1.65964e-01,9.99999e-01,9.99999e-01,9.99999e-01,9.99399e-01,1.66064e-01,9.99999e-01
6.081478544e-01,1.72014e-01,9.99999e-01,9.99999e-01,9.99999e-01,9.99740e-01,1.72059e-01,9.99999e-01
6.111885937e-01,1.78126e-01,9.99999e-01,9.99999e-01,9.99999e-01,9.99889e-01,1.78145e-01,9.99999e-01
6.142445367e-01,1.84311e-01,9.99999e-01,9.99999e-01,9.99999e-01,9.99950e-01,1.84320e-01,9.99999e-01
6.173157594e-01,1.90576e-01,9.99999e-01,9.99999e-01,9.99999e-01,9.99972e-01,1.90581e-01,9.99999e-01
6.204023382e-01,1.96920e-01,9.99999e-01,9.99999e-01,9.99999e-01,9.99976e-01,1.96925e-01,9.99999e-01
6.235043498e-01,2.03328e-01,9.99999e-01,9.99999e-01,9.99999e-01,9.99901e-01,2.03348e-01,9.99999e-01
6.266218716e-01,2.09735e-01,9.99999e-01,9.99999e-01,9.99999e-01,9.99469e-01,2.09847e-01,9.99995e-01
6.297549810e-01,2.16376e-01,9.99999e-01,9.99999e-01,9.99999e-01,9.99805e-01,2.16420e-01,9.99992e-01
6.329037559e-01,2.22975e-01,9.99999e-01,9.99999e-01,9.99999e-01,9.99614e-01,2.23063e-01,9.99993e-01
6.360682746e-01,2.29696e-01,9.99999e-01,9.99999e-01,9.99999e-01,9.99673e-01,2.29772e-01,9.99995e-01
6.392486160e-01,2.36444e-01,9.99999e-01,9.99999e-01,9.99999e-01,9.99575e-01,2.36544e-01,9.99997e-01
6.424448591e-01,2.43253e-01,9.99999e-01,9.99999e-01,9.99999e-01,9.99491e-01,2.43377e-01,9.99997e-01
6.456570834e-01,2.49614e-01,9.99999e-01,9.99999e-01,9.99999e-01,9.97410e-01,2.50266e-01,9.99984e-01
6.488853688e-01,2.56613e-01,9.99999e-01,9.99999e-01,9.99999e-01,9.97726e-01,2.57208e-01,9.99958e-01
6.521297956e-01,2.63671e-01,9.99999e-01,9.99999e-01,9.99999e-01,9.98028e-01,2.64200e-01,9.99965e-01
6.553904446e-01,2.70704e-01,9.99999e-01,9.99999e-01,9.99999e-01,9.98054e-01,2.71239e-01,9.99973e-01
6.586673968e-01,2.77849e-01,9.99999e-01,9.99999e-01,9.99999e-01,9.98316e-01,2.78320e-01,9.99991e-01
6.619607338e-01,2.85163e-01,9.99999e-01,9.99999e-01,9.99999e-01,9.99027e-01,2.85441e-01,9.99997e-01
6.652705375e-01,2.92432e-01,9.99999e-01,9.99999e-01,9.99999e-01,9.99434e-01,2.92598e-01,9.99998e-01
6.685968902e-01,2.99709e-01,9.99999e-01,9.99999e-01,9.99999e-01,9.99737e-01,2.99787e-01,9.99999e-01
6.719398746e-01,3.06969e-01,9.99999e-01,9.99999e-01,9.99999e-01,9.99877e-01,3.07007e-01,9.99999e-01
6.752995740e-01,3.14231e-01,9.99999e-01,9.99999e-01,9.99999e-01,9.99934e-01,3.14252e-01,9.99999e-01
6.786760719e-01,3.21490e-01,9.99999e-01,9.99999e-01,9.99999e-01,9.99905e-01,3.21520e-01,9.99999e-01
6.820694522e-01,3.28754e-01,9.99999e-01,9.99999e-01,9.99999e-01,9.99838e-01,3.28807e-01,9.99998e-01
6.854797995e-01,3.36041e-01,9.99999e-01,9.99999e-01,9.99999e-01,9.99791e-01,3.36111e-01,9.99997e-01
6.889071985e-01,3.43257e-01,9.99999e-01,9.99999e-01,9.99999e-01,9.99504e-01,3.43428e-01,9.99994e-01
6.923517345e-01,3.47876e-01,9.99999e-01,9.99999e-01,9.99999e-01,9.91829e-01,3.50756e-01,9.99960e-01
6.958134932e-01,3.56501e-01,9.99999e-01,9.99999e-01,9.99999e-01,9.95650e-01,3.58090e-01,9.99910e-01
6.992925606e-01,3.63922e-01,9.99999e-01,9.99999e-01,9.99999e-01,9.95956e-01,3.65428e-01,9.99921e-01
7.027890234e-01,3.70868e-01,9.99999e-01,9.99999e-01,9.99999e-01,9.94964e-01,3.72767e-01,9.99939e-01
7.063029686e-01,3.78485e-01,9.99999e-01,9.99999e-01,9.99999e-01,9.95770e-01,3.80104e-01,9.99969e-01
7.098344834e-01,3.85858e-01,9.99999e-01,9.99999e-01,9.99999e-01,9.95941e-01,3.87437e-01,9.99981e-01
7.133836558e-01,3.92644e-01,9.99999e-01,9.99999e-01,9.99999e-01,9.94670e-01,3.94761e-01,9.99964e-01
7.169505741e-01,3.84883e-01,9.99999e-01,9.99999e-01,9.99999e-01,9.57503e-01,4.02076e-01,9.99722e-01
7.205353270e-01,4.00405e-01,9.99999e-01,9.99999e-01,9.99999e-01,9.78560e-01,4.09377e-01,9.99511e-01
7.241380036e-01,4.05370e-01,9.99999e-01,9.99999e-01,9.99999e-01,9.73309e-01,4.16663e-01,9.99574e-01
7.277586936e-01,4.13551e-01,9.99999e-01,9.99999e-01,9.99999e-01,9.75858e-01,4.23931e-01,9.99646e-01
7.313974871e-01,4.19978e-01,9.99999e-01,9.99999e-01,9.99999e-01,9.74179e-01,4.31179e-01,9.99838e-01
7.350544745e-01,4.32177e-01,9.99999e-01,9.99999e-01,9.99999e-01,9.85851e-01,4.38403e-01,9.99943e-01
7.387297469e-01,4.40942e-01,9.99999e-01,9.99999e-01,9.99999e-01,9.89565e-01,4.45603e-01,9.99973e-01
7.424233956e-01,4.50450e-01,9.99999e-01,9.99999e-01,9.99999e-01,9.94869e-01,4.52774e-01,9.99994e-01
7.461355126e-01,4.58488e-01,9.99999e-01,9.99999e-01,9.99999e-01,9.96894e-01,4.59916e-01,9.99998e-01
7.498661902e-01,4.66349e-01,9.99999e-01,9.99999e-01,9.99999e-01,9.98549e-01,4.67027e-01,9.99999e-01
7.536155211e-01,4.73767e-01,9.99999e-01,9.99999e-01,9.99999e-01,9.99290e-01,4.74104e-01,9.99999e-01
7.573835987e-01,4.80969e-01,9.99999e-01,9.99999e-01,9.99999e-01,9.99634e-01,4.81144e-01,9.99999e-01
7.611705167e-01,4.88037e-01,9.99999e-01,9.99999e-01,9.99999e-01,9.99772e-01,4.88148e-01,9.99999e-01
7.649763693e-01,4.95041e-01,9.99999e-01,9.99999e-01,9.99999e-01,9.99857e-01,4.95112e-01,9.99999e-01
7.688012511e-01,5.01985e-01,9.99999e-01,9.99999e-01,9.99999e-01,9.99900e-01,5.02035e-01,9.99999e-01
7.726452574e-01,5.08873e-01,9.99999e-01,9.99999e-01,9.99999e-01,9.99918e-01,5.08914e-01,9.99999e-01
7.765084837e-01,5.15691e-01,9.99999e-01,9.99999e-01,9.99999e-01,9.99885e-01,5.15750e-01,9.99999e-01
7.803910261e-01,5.07120e-01,9.99999e-01,9.99999e-01,9.70957e-01,9.99506e-01,5.22540e-01,9.99999e-01
7.842929812e-01,4.61174e-01,9.99999e-01,9.99999e-01,8.72759e-01,9.98277e-01,5.29282e-01,9.99996e-01
7.882144461e-01,4.62121e-01,9.99999e-01,9.99999e-01,8.65212e-01,9.96419e-01,5.35976e-01,9.99977e-01
7.921555184e-01,4.97868e-01,9.99999e-01,9.99999e-01,9.19344e-01,9.98024e-01,5.42619e-01,9.99957e-01
7.961162960e-01,5.17128e-01,9.99999e-01,9.99999e-01,9.44849e-01,9.96552e-01,5.49211e-01,9.99958e-01
8.000968774e-01,5.36780e-01,9.99999e-01,9.99999e-01,9.69779e-01,9.95994e-01,5.55751e-01,9.99956e-01
8.040973618e-01,5.51103e-01,9.99999e-01,9.99999e-01,9.84160e-01,9.95999e-01,5.62237e-01,9.99965e-01
8.081178486e-01,5.59480e-01,9.99999e-01,9.99999e-01,9.92734e-01,9.91062e-01,5.68668e-01,9.99967e-01
8.121584379e-01,5.52518e-01,9.99999e-01,9.99999e-01,9.97729e-01,9.63113e-01,5.75044e-01,9.99873e-01
8.162192301e-01,5.55164e-01,9.99999e-01,9.99999e-01,9.99497e-01,9.55860e-01,5.81364e-01,9.99524e-01
8.203003262e-01,5.74463e-01,9.99999e-01,9.99999e-01,9.99991e-01,9.78152e-01,5.87625e-01,9.99443e-01
8.244018279e-01,5.74993e-01,9.99999e-01,9.99999e-01,9.99999e-01,9.68709e-01,5.93829e-01,9.99556e-01
8.285238370e-01,5.83952e-01,9.99999e-01,9.99999e-01,9.99999e-01,9.73634e-01,5.99974e-01,9.99651e-01
8.326664562e-01,5.89746e-01,9.99999e-01,9.99999e-01,9.99999e-01,9.73223e-01,6.06058e-01,9.99855e-01
8.368297885e-01,6.00301e-01,9.99999e-01,9.99999e-01,9.99999e-01,9.80783e-01,6.12083e-01,9.99966e-01
8.410139374e-01,6.10951e-01,9.99999e-01,9.99999e-01,9.99999e-01,9.88538e-01,6.18047e-01,9.99980e-01
8.452190071e-01,6.20423e-01,9.99999e-01,9.99999e-01,9.99999e-01,9.94359e-01,6.23949e-01,9.99988e-01
8.494451021e-01,6.27730e-01,9.99999e-01,9.99999e-01,9.99999e-01,9.96738e-01,6.29790e-01,9.99990e-01
8.536923276e-01,6.34333e-01,9.99999e-01,9.99999e-01,9.99999e-01,9.98062e-01,6.35568e-01,9.99993e-01
8.579607893e-01,6.40520e-01,9.99999e-01,9.99999e-01,9.99999e-01,9.98810e-01,6.41283e-01,9.99997e-01
8.622505932e-01,6.46446e-01,9.99999e-01,9.99999e-01,9.99999e-01,9.99242e-01,6.46936e-01,9.99999e-01
8.665618462e-01,6.08599e-01,9.99999e-01,9.99999e-01,9.33102e-01,9.99533e-01,6.52525e-01,9.99999e-01
8.708946554e-01,4.65948e-01,9.99999e-01,9.99999e-01,7.08437e-01,9.99466e-01,6.58051e-01,9.99999e-01
8.752491287e-01,5.02013e-01,9.99999e-01,9.99999e-01,7.57125e-01,9.99286e-01,6.63512e-01,9.99998e-01
8.796253743e-01,5.73626e-01,9.99999e-01,9.99999e-01,8.58377e-01,9.99015e-01,6.68911e-01,9.99997e-01
8.840235012e-01,6.22309e-01,9.99999e-01,9.99999e-01,9.24004e-01,9.98873e-01,6.74245e-01,9.99992e-01
8.884436187e-01,6.55944e-01,9.99999e-01,9.99999e-01,9.69197e-01,9.95976e-01,6.79514e-01,9.99979e-01
8.928858368e-01,6.47523e-01,9.99999e-01,9.99999e-01,9.87454e-01,9.57706e-01,6.84720e-01,9.99886e-01
8.973502660e-01,6.36225e-01,9.99999e-01,9.99999e-01,9.96916e-01,9.25584e-01,6.89862e-01,9.99421e-01
9.018370173e-01,6.67000e-01,9.99999e-01,9.99999e-01,9.99658e-01,9.60987e-01,6.94940e-01,9.99090e-01
9.063462024e-01,6.70228e-01,9.99999e-01,9.99999e-01,9.91596e-01,9.66191e-01,6.99953e-01,9.99201e-01
9.108779334e-01,6.54319e-01,9.99999e-01,9.99999e-01,9.80305e-01,9.47467e-01,7.04903e-01,9.99169e-01
9.154323231e-01,6.63970e-01,9.99999e-01,9.99999e-01,9.95294e-01,9.40429e-01,7.09789e-01,9.99313e-01
9.200094847e-01,6.37932e-01,9.99999e-01,9.99999e-01,9.35061e-01,9.52894e-01,7.14611e-01,9.99615e-01
9.246095321e-01,6.06816e-01,9.99999e-01,9.99999e-01,9.07296e-01,9.28704e-01,7.19370e-01,9.99557e-01
9.292325798e-01,4.08753e-01,9.99999e-01,9.99999e-01,9.27342e-01,6.05454e-01,7.24065e-01,9.98275e-01
9.338787427e-01,3.51858e-01,9.99999e-01,9.99999e-01,9.28965e-01,5.19723e-01,7.28698e-01,9.92893e-01
9.385481364e-01,5.30424e-01,9.99999e-01,9.99999e-01,9.47341e-01,7.67882e-01,7.33267e-01,9.91553e-01
9.432408771e-01,4.93133e-01,9.99999e-01,9.99999e-01,9.67310e-01,6.94918e-01,7.37775e-01,9.92708e-01
9.479570815e-01,4.39638e-01,9.99999e-01,9.99999e-01,9.83155e-01,6.05574e-01,7.42220e-01,9.94061e-01
9.526968669e-01,5.05233e-01,9.99999e-01,9.99999e-01,9.91826e-01,6.84305e-01,7.46603e-01,9.96373e-01
9.574603512e-01,5.27638e-01,9.99999e-01,9.99999e-01,9.96495e-01,7.06275e-01,7.50925e-01,9.98156e-01
9.622476530e-01,5.67298e-01,9.99999e-01,9.99999e-01,9.98904e-01,7.52942e-01,7.55186e-01,9.98724e-01
9.670588912e-01,6.44257e-01,9.99999e-01,9.99999e-01,9.99670e-01,8.49399e-01,7.59386e-01,9.99127e-01
9.718941857e-01,6.89170e-01,9.99999e-01,9.99999e-01,9.99975e-01,9.03214e-01,7.63526e-01,9.99357e-01
9.767536566e-01,7.05093e-01,9.99999e-01,9.99999e-01,9.99999e-01,9.19012e-01,7.67606e-01,9.99508e-01
9.816374249e-01,7.24582e-01,9.99999e-01,9.99999e-01,9.99999e-01,9.39190e-01,7.71626e-01,9.99829e-01
9.865456120e-01,7.45749e-01,9.99999e-01,9.99999e-01,9.99999e-01,9.61560e-01,7.75588e-01,9.99964e-01
9.914783401e-01,7.60844e-01,9.99999e-01,9.99999e-01,9.99999e-01,9.76087e-01,7.79491e-01,9.99989e-01
9.964357318e-01,7.73074e-01,9.99999e-01,9.99999e-01,9.99999e-01,9.86904e-01,7.83336e-01,9.99993e-01
1.001417910e+00,7.80923e-01,9.99999e-01,9.99999e-01,9.99999e-01,9.92130e-01,7.87124e-01,9.99990e-01
1.006425000e+00,7.87300e-01,9.99999e-01,9.99999e-01,9.99999e-01,9.95517e-01,7.90854e-01,9.99987e-01
1.011457125e+00,7.92300e-01,9.99999e-01,9.99999e-01,9.99999e-01,9.97207e-01,7.94528e-01,9.99987e-01
1.016514411e+00,7.96629e-01,9.99999e-01,9.99999e-01,9.99999e-01,9.98106e-01,7.98146e-01,9.99991e-01
1.021596983e+00,8.00462e-01,9.99999e-01,9.99999e-01,9.99959e-01,9.98492e-01,8.01708e-01,9.99991e-01
1.026704968e+00,8.01637e-01,9.99999e-01,9.99999e-01,9.96729e-01,9.98824e-01,8.05216e-01,9.99994e-01
1.031838492e+00,7.77614e-01,9.99999e-01,9.99999e-01,9.62400e-01,9.99143e-01,8.08669e-01,9.99997e-01
1.036997685e+00,1.39226e-01,9.99999e-01,9.99999e-01,1.71516e-01,9.99492e-01,8.12068e-01,9.99999e-01
1.042182673e+00,1.19869e-01,9.99999e-01,9.99999e-01,1.47083e-01,9.99397e-01,8.15414e-01,9.99999e-01
1.047393587e+00,1.37471e-01,9.99999e-01,9.99999e-01,1.68031e-01,9.99199e-01,8.18707e-01,9.99999e-01
1.052630555e+00,5.30080e-03,9.99999e-01,9.99999e-01,6.45433e-03,9.98902e-01,8.21949e-01,9.99999e-01
1.057893707e+00,1.25753e-02,9.99999e-01,9.99999e-01,1.52594e-02,9.98172e-01,8.25138e-01,9.99998e-01
1.063183176e+00,3.82351e-02,9.99999e-01,9.99999e-01,4.62641e-02,9.96989e-01,8.28277e-01,9.99997e-01
1.068499092e+00,9.97529e-02,9.99999e-01,9.99999e-01,1.20506e-01,9.94954e-01,8.31365e-01,9.99996e-01
1.073841587e+00,2.17151e-01,9.99999e-01,9.99999e-01,2.61574e-01,9.94108e-01,8.34403e-01,9.99992e-01
