#,Wave/freq,Total,N2,O2,CO2,H2O,Rayleigh,CIA
4.000000000e-01,6.84033e-16,9.99999e-01,9.99999e-01,9.99999e-01,9.99932e-01,6.84079e-16,9.99999e-01
4.020000000e-01,1.36438e-15,9.99999e-01,9.99999e-01,9.99999e-01,9.99958e-01,1.36444e-15,9.99999e-01
4.040100000e-01,2.68268e-15,9.99999e-01,9.99999e-01,9.99999e-01,9.99981e-01,2.68272e-15,9.99999e-01
4.060300500e-01,5.20470e-15,9.99999e-01,9.99999e-01,9.99999e-01,9.99995e-01,5.20472e-15,9.99999e-01
4.080602003e-01,9.96629e-15,9.99999e-01,9.99999e-01,9.99999e-01,9.99998e-01,9.96630e-15,9.99999e-01
4.101005013e-01,1.88407e-14,9.99999e-01,9.99999e-01,9.99999e-01,9.99999e-01,1.88407e-14,9.99999e-01
4.121510038e-01,3.51720e-14,9.99999e-01,9.99999e-01,9.99999e-01,9.99997e-01,3.51721e-14,9.99999e-01
4.142117588e-01,6.48539e-14,9.99999e-01,9.99999e-01,9.99999e-01,9.99980e-01,6.48551e-14,9.99999e-01
4.162828176e-01,1.18142e-13,9.99999e-01,9.99999e-01,9.99999e-01,9.99916e-01,1.18152e-13,9.99999e-01
4.183642317e-01,2.12702e-13,9.99999e-01,9.99999e-01,9.99999e-01,9.99950e-01,2.12712e-13,9.99999e-01
4.204560528e-01,3.78518e-13,9.99999e-01,9.99999e-01,9.99999e-01,9.99969e-01,3.78530e-13,9.99999e-01
4.225583331e-01,6.65976e-13,9.99999e-01,9.99999e-01,9.99999e-01,9.99988e-01,6.65983e-13,9.99999e-01
4.246711247e-01,1.15871e-12,9.99999e-01,9.99999e-01,9.99999e-01,9.99990e-01,1.15872e-12,9.99999e-01
4.267944804e-01,1.99407e-12,9.99999e-01,9.99999e-01,9.99999e-01,9.99986e-01,1.99410e-12,9.99999e-01
4.289284528e-01,3.39508e-12,9.99999e-01,9.99999e-01,9.99999e-01,9.99989e-01,3.39512e-12,9.99999e-01
4.310730950e-01,5.72002e-12,9.99999e-01,9.99999e-01,9.99999e-01,9.99995e-01,5.72004e-12,9.99999e-01
4.332284605e-01,9.53823e-12,9.99999e-01,9.99999e-01,9.99999e-01,9.99998e-01,9.53824e-12,9.99999e-01
4.353946028e-01,1.57453e-11,9.99999e-01,9.99999e-01,9.99999e-01,9.99999e-01,1.57453e-11,9.99999e-01
4.375715758e-01,2.57354e-11,9.99999e-01,9.99999e-01,9.99999e-01,9.99991e-01,2.57356e-11,9.99999e-01
4.397594337e-01,4.16553e-11,9.99999e-01,9.99999e-01,9.99999e-01,9.99925e-01,4.16584e-11,9.99999e-01
4.419582309e-01,6.67692e-11,9.99999e-01,9.99999e-01,9.99999e-01,9.99625e-01,6.67942e-11,9.99999e-01
4.441680220e-01,1.06072e-10,9.99999e-01,9.99999e-01,9.99999e-01,9.99711e-01,1.06102e-10,9.99999e-01
4.463888621e-01,1.66960e-10,9.99999e-01,9.99999e-01,9.99999e-01,9.99698e-01,1.67010e-10,9.99999e-01
4.486208064e-01,2.60487e-10,9.99999e-01,9.99999e-01,9.99999e-01,9.99812e-01,2.60536e-10,9.99999e-01
4.508639105e-01,4.02847e-10,9.99999e-01,9.99999e-01,9.99999e-01,9.99912e-01,4.02882e-10,9.99999e-01
4.531182300e-01,6.17637e-10,9.99999e-01,9.99999e-01,9.99999e-01,9.99965e-01,6.17659e-10,9.99999e-01
4.553838212e-01,9.38953e-10,9.99999e-01,9.99999e-01,9.99999e-01,9.99976e-01,9.38975e-10,9.99999e-01
4.576607403e-01,1.41567e-09,9.99999e-01,9.99999e-01,9.99999e-01,9.99988e-01,1.41568e-09,9.99999e-01
4.599490440e-01,2.11716e-09,9.99999e-01,9.99999e-01,9.99999e-01,9.99991e-01,2.11718e-09,9.99999e-01
4.622487892e-01,3.14119e-09,9.99999e-01,9.99999e-01,9.99999e-01,9.99998e-01,3.14119e-09,9.99999e-01
4.645600332e-01,4.62430e-09,9.99999e-01,9.99999e-01,9.99999e-01,9.99994e-01,4.62432e-09,9.99999e-01
4.668828333e-01,6.75531e-09,9.99999e-01,9.99999e-01,9.99999e-01,9.99910e-01,6.75591e-09,9.99999e-01
4.692172475e-01,9.79458e-09,9.99999e-01,9.99999e-01,9.99999e-01,9.99810e-01,9.79643e-09,9.99999e-01
4.715633337e-01,1.40997e-08,9.99999e-01,9.99999e-01,9.99999e-01,9.99875e-01,1.41015e-08,9.99999e-01
4.739211504e-01,2.01504e-08,9.99999e-01,9.99999e-01,9.99999e-01,9.99881e-01,2.01528e-08,9.99999e-01
4.762907561e-01,2.85968e-08,9.99999e-01,9.99999e-01,9.99999e-01,9.99938e-01,2.85986e-08,9.99999e-01
4.786722099e-01,4.03032e-08,9.99999e-01,9.99999e-01,9.99999e-01,9.99974e-01,4.03042e-08,9.99999e-01
4.810655710e-01,5.64169e-08,9.99999e-01,9.99999e-01,9.99999e-01,9.99991e-01,5.64174e-08,9.99999e-01
4.834708988e-01,7.84438e-08,9.99999e-01,9.99999e-01,9.99999e-01,9.99926e-01,7.84495e-08,9.99999e-01
4.858882533e-01,1.08363e-07,9.99999e-01,9.99999e-01,9.99999e-01,9.99866e-01,1.08378e-07,9.99999e-01
4.883176946e-01,1.48754e-07,9.99999e-01,9.99999e-01,9.99999e-01,9.99887e-01,1.48771e-07,9.99999e-01
4.907592831e-01,2.02924e-07,9.99999e-01,9.99999e-01,9.99999e-01,9.99898e-01,2.02944e-07,9.99999e-01
4.932130795e-01,2.75132e-07,9.99999e-01,9.99999e-01,9.99999e-01,9.99927e-01,2.75152e-07,9.99999e-01
4.956791449e-01,3.70801e-07,9.99999e-01,9.99999e-01,9.99999e-01,9.99961e-01,3.70815e-07,9.99999e-01
4.981575406e-01,4.96706e-07,9.99999e-01,9.99999e-01,9.99999e-01,9.99808e-01,4.96801e-07,9.99999e-01
5.006483283e-01,6.61426e-07,9.99999e-01,9.99999e-01,9.99999e-01,9.99503e-01,6.61757e-07,9.99996e-01
5.031515699e-01,8.74293e-07,9.99999e-01,9.99999e-01,9.99999e-01,9.97501e-01,8.76506e-07,9.99973e-01
5.056673278e-01,1.15296e-06,9.99999e-01,9.99999e-01,9.99999e-01,9.98683e-01,1.15452e-06,9.99969e-01
5.081956644e-01,1.50992e-06,9.99999e-01,9.99999e-01,9.99999e-01,9.98339e-01,1.51246e-06,9.99981e-01
5.107366428e-01,1.96861e-06,9.99999e-01,9.99999e-01,9.99999e-01,9.98879e-01,1.97083e-06,9.99996e-01
5.132903260e-01,2.55308e-06,9.99999e-01,9.99999e-01,9.99999e-01,9.99359e-01,2.55472e-06,9.99999e-01
5.158567776e-01,3.29378e-06,9.99999e-01,9.99999e-01,9.99999e-01,9.99729e-01,3.29467e-06,9.99999e-01
5.184360615e-01,4.22719e-06,9.99999e-01,9.99999e-01,9.99999e-01,9.99891e-01,4.22765e-06,9.99999e-01
5.210282418e-01,5.39795e-06,9.99999e-01,9.99999e-01,9.99999e-01,9.99958e-01,5.39817e-06,9.99999e-01
5.236333830e-01,6.85846e-06,9.99999e-01,9.99999e-01,9.99999e-01,9.99836e-01,6.85959e-06,9.99998e-01
5.262515499e-01,8.67459e-06,9.99999e-01,9.99999e-01,9.99999e-01,9.99897e-01,8.67549e-06,9.99997e-01
5.288828077e-01,1.09203e-05,9.99999e-01,9.99999e-01,9.99999e-01,9.99905e-01,1.09213e-05,9.99998e-01
5.315272217e-01,1.36850e-05,9.99999e-01,9.99999e-01,9.99999e-01,9.99917e-01,1.36862e-05,9.99999e-01
5.341848578e-01,1.70737e-05,9.99999e-01,9.99999e-01,9.99999e-01,9.99945e-01,1.70747e-05,9.99999e-01
5.368557821e-01,2.12052e-05,9.99999e-01,9.99999e-01,9.99999e-01,9.99809e-01,2.12092e-05,9.99999e-01
5.395400610e-01,2.62141e-05,9.99999e-01,9.99999e-01,9.99999e-01,9.99310e-01,2.62324e-05,9.99993e-01
5.422377613e-01,3.22802e-05,9.99999e-01,9.99999e-01,9.99999e-01,9.99117e-01,3.23092e-05,9.99983e-01
5.449489501e-01,3.95971e-05,9.99999e-01,9.99999e-01,9.99999e-01,9.99175e-01,3.96304e-05,9.99982e-01
5.476736949e-01,4.83793e-05,9.99999e-01,9.99999e-01,9.99999e-01,9.99273e-01,4.84148e-05,9.99991e-01
5.504120634e-01,5.88818e-05,9.99999e-01,9.99999e-01,9.99999e-01,9.99472e-01,5.89130e-05,9.99997e-01
5.531641237e-01,7.13911e-05,9.99999e-01,9.99999e-01,9.99999e-01,9.99734e-01,7.14101e-05,9.99999e-01
5.559299443e-01,8.62189e-05,9.99999e-01,9.99999e-01,9.99999e-01,9.99871e-01,8.62300e-05,9.99999e-01
5.587095940e-01,1.03730e-04,9.99999e-01,9.99999e-01,9.99999e-01,9.99919e-01,1.03738e-04,9.99999e-01
5.615031420e-01,1.24335e-04,9.99999e-01,9.99999e-01,9.99999e-01,9.99909e-01,1.24347e-04,9.99999e-01
5.643106577e-01,1.48501e-04,9.99999e-01,9.99999e-01,9.99999e-01,9.99897e-01,1.48516e-04,9.99998e-01
5.671322110e-01,1.76540e-04,9.99999e-01,9.99999e-01,9.99999e-01,9.98750e-01,1.76763e-04,9.99988e-01
5.699678720e-01,2.09379e-04,9.99999e-01,9.99999e-01,9.99999e-01,9.98693e-01,2.09660e-04,9.99965e-01
5.728177114e-01,2.47495e-04,9.99999e-01,9.99999e-01,9.99999e-01,9.98630e-01,2.47842e-04,9.99971e-01
5.756818000e-01,2.91639e-04,9.99999e-01,9.99999e-01,9.99999e-01,9.98744e-01,2.92010e-04,9.99983e-01
5.785602090e-01,3.42562e-04,9.99999e-01,9.99999e-01,9.99999e-01,9.98907e-01,3.42938e-04,9.99994e-01
5.814530100e-01,4.01028e-04,9.99999e-01,9.99999e-01,9.99999e-01,9.98900e-01,4.01470e-04,9.99997e-01
5.843602750e-01,4.67913e-04,9.99999e-01,9.99999e-01,9.99999e-01,9.98684e-01,4.68532e-04,9.99992e-01
5.872820764e-01,5.38943e-04,9.99999e-01,9.99999e-01,9.99999e-01,9.88726e-01,5.45131e-04,9.99920e-01
5.902184868e-01,6.23632e-04,9.99999e-01,9.99999e-01,9.99999e-01,9.86413e-01,6.32358e-04,9.99783e-01
5.931695792e-01,7.24205e-04,9.99999e-01,9.99999e-01,9.99999e-01,9.90374e-01,7.31395e-04,9.99791e-01
5.961354271e-01,8.34526e-04,9.99999e-01,9.99999e-01,9.99999e-01,9.89461e-01,8.43515e-04,9.99880e-01
5.991161043e-01,9.62588e-04,9.99999e-01,9.99999e-01,9.99999e-01,9.92307e-01,9.70085e-04,9.99962e-01
6.021116848e-01,1.10771e-03,9.99999e-01,9.99999e-01,9.99999e-01,9.95632e-01,1.11257e-03,9.99995e-01
6.051222432e-01,1.26972e-03,9.99999e-01,9.99999e-01,9.99999e-01,9.97788e-01,1.27254e-03,9.99999e-01
6.081478544e-01,1.45026e-03,9.99999e-01,9.99999e-01,9.99999e-01,9.99044e-01,1.45164e-03,9.99999e-01
6.111885937e-01,1.65099e-03,9.99999e-01,9.99999e-01,9.99999e-01,9.99596e-01,1.65166e-03,9.99999e-01
6.142445367e-01,1.87411e-03,9.99999e-01,9.99999e-01,9.99999e-01,9.99819e-01,1.87445e-03,9.99999e-01
6.173157594e-01,2.12177e-03,9.99999e-01,9.99999e-01,9.99999e-01,9.99900e-01,2.12198e-03,9.99999e-01
6.204023382e-01,2.39611e-03,9.99999e-01,9.99999e-01,9.99999e-01,9.99915e-01,2.39632e-03,9.99999e-01
6.235043498e-01,2.69862e-03,9.99999e-01,9.99999e-01,9.99999e-01,9.99624e-01,2.69963e-03,9.99998e-01
6.266218716e-01,3.02818e-03,9.99999e-01,9.99999e-01,9.99999e-01,9.98032e-01,3.03419e-03,9.99985e-01
6.297549810e-01,3.39980e-03,9.99999e-01,9.99999e-01,9.99999e-01,9.99277e-01,3.40235e-03,9.99971e-01
6.329037559e-01,3.80105e-03,9.99999e-01,9.99999e-01,9.99999e-01,9.98575e-01,3.80656e-03,9.99977e-01
6.360682746e-01,4.24413e-03,9.99999e-01,9.99999e-01,9.99999e-01,9.98783e-01,4.24935e-03,9.99986e-01
6.392486160e-01,4.72588e-03,9.99999e-01,9.99999e-01,9.99999e-01,9.98426e-01,4.73336e-03,9.99993e-01
6.424448591e-01,5.25008e-03,9.99999e-01,9.99999e-01,9.99999e-01,9.97883e-01,5.26127e-03,9.99989e-01
6.456570834e-01,5.77840e-03,9.99999e-01,9.99999e-01,9.99999e-01,9.90212e-01,5.83586e-03,9.99940e-01
6.488853688e-01,6.41296e-03,9.99999e-01,9.99999e-01,9.99999e-01,9.92875e-01,6.45995e-03,9.99847e-01
6.521297956e-01,7.08377e-03,9.99999e-01,9.99999e-01,9.99999e-01,9.92740e-01,7.13646e-03,9.99874e-01
6.553904446e-01,7.81052e-03,9.99999e-01,9.99999e-01,9.99999e-01,9.92746e-01,7.86832e-03,9.99906e-01
6.586673968e-01,8.60460e-03,9.99999e-01,9.99999e-01,9.99999e-01,9.93803e-01,8.65851e-03,9.99968e-01
6.619607338e-01,9.47714e-03,9.99999e-01,9.99999e-01,9.99999e-01,9.96542e-01,9.51008e-03,9.99992e-01
6.652705375e-01,1.04044e-02,9.99999e-01,9.99999e-01,9.99999e-01,9.97923e-01,1.04261e-02,9.99996e-01
6.685968902e-01,1.13994e-02,9.99999e-01,9.99999e-01,9.99999e-01,9.99117e-01,1.14095e-02,9.99998e-01
6.719398746e-01,1.24580e-02,9.99999e-01,9.99999e-01,9.99999e-01,9.99553e-01,1.24635e-02,9.99999e-01
6.752995740e-01,1.35879e-02,9.99999e-01,9.99999e-01,9.99999e-01,9.99757e-01,1.35912e-02,9.99999e-01
6.786760719e-01,1.47903e-02,9.99999e-01,9.99999e-01,9.99999e-01,9.99648e-01,1.47955e-02,9.99999e-01
6.820694522e-01,1.60698e-02,9.99999e-01,9.99999e-01,9.99999e-01,9.99398e-01,1.60795e-02,9.99996e-01
6.854797995e-01,1.74327e-02,9.99999e-01,9.99999e-01,9.99999e-01,9.99224e-01,1.74463e-02,9.99992e-01
6.889071985e-01,1.88628e-02,9.99999e-01,9.99999e-01,9.99999e-01,9.98107e-01,1.88988e-02,9.99982e-01
6.923517345e-01,1.98185e-02,9.99999e-01,9.99999e-01,9.99999e-01,9.69738e-01,2.04399e-02,9.99853e-01
6.958134932e-01,2.17203e-02,9.99999e-01,9.99999e-01,9.99999e-01,9.84359e-01,2.20725e-02,9.99674e-01
6.992925606e-01,2.34338e-02,9.99999e-01,9.99999e-01,9.99999e-01,9.84927e-01,2.37993e-02,9.99707e-01
7.027890234e-01,2.51437e-02,9.99999e-01,9.99999e-01,9.99999e-01,9.81508e-01,2.56231e-02,9.99776e-01
7.063029686e-01,2.71141e-02,9.99999e-01,9.99999e-01,9.99999e-01,9.84415e-01,2.75464e-02,9.99888e-01
7.098344834e-01,2.91275e-02,9.99999e-01,9.99999e-01,9.99999e-01,9.85040e-01,2.95718e-02,9.99933e-01
7.133836558e-01,3.10635e-02,9.99999e-01,9.99999e-01,9.99999e-01,9.79997e-01,3.17016e-02,9.99868e-01
7.169505741e-01,2.88849e-02,9.99999e-01,9.99999e-01,9.99999e-01,8.51978e-01,3.39382e-02,9.98971e-01
7.205353270e-01,3.35062e-02,9.99999e-01,9.99999e-01,9.99999e-01,9.25126e-01,3.62837e-02,9.98187e-01
7.241380036e-01,3.49995e-02,9.99999e-01,9.99999e-01,9.99999e-01,9.04859e-01,3.87401e-02,9.98434e-01
7.277586936e-01,3.77006e-02,9.99999e-01,9.99999e-01,9.99999e-01,9.13811e-01,4.13093e-02,9.98719e-01
7.313974871e-01,3.99515e-02,9.99999e-01,9.99999e-01,9.99999e-01,9.08674e-01,4.39931e-02,9.99399e-01
7.350544745e-01,4.43927e-02,9.99999e-01,9.99999e-01,9.99999e-01,9.48900e-01,4.67930e-02,9.99791e-01
7.387297469e-01,4.78220e-02,9.99999e-01,9.99999e-01,9.99999e-01,9.62101e-01,4.97105e-02,9.99904e-01
7.424233956e-01,5.17591e-02,9.99999e-01,9.99999e-01,9.99999e-01,9.81289e-01,5.27469e-02,9.99982e-01
7.461355126e-01,5.52662e-02,9.99999e-01,9.99999e-01,9.99999e-01,9.88608e-01,5.59032e-02,9.99996e-01
7.498661902e-01,5.88661e-02,9.99999e-01,9.99999e-01,9.99999e-01,9.94690e-01,5.91804e-02,9.99998e-01
7.536155211e-01,6.24157e-02,9.99999e-01,9.99999e-01,9.99999e-01,9.97387e-01,6.25792e-02,9.99998e-01
7.573835987e-01,6.60114e-02,9.99999e-01,9.99999e-01,9.99999e-01,9.98654e-01,6.61003e-02,9.99999e-01
7.611705167e-01,6.96858e-02,9.99999e-01,9.99999e-01,9.99999e-01,9.99163e-01,6.97441e-02,9.99999e-01
7.649763693e-01,7.34723e-02,9.99999e-01,9.99999e-01,9.99999e-01,9.99475e-01,7.35108e-02,9.99999e-01
7.688012511e-01,7.73722e-02,9.99999e-01,9.99999e-01,9.99999e-01,9.99634e-01,7.74005e-02,9.99999e-01
7.726452574e-01,8.13885e-02,9.99999e-01,9.99999e-01,9.99999e-01,9.99698e-01,8.14130e-02,9.99999e-01
7.765084837e-01,8.55113e-02,9.99999e-01,9.99999e-01,9.99999e-01,9.99570e-01,8.55480e-02,9.99998e-01
7.803910261e-01,8.13534e-02,9.99999e-01,9.99999e-01,9.07432e-01,9.98142e-01,8.98052e-02,9.99997e-01
7.842929812e-01,5.85495e-02,9.99999e-01,9.99999e-01,6.25195e-01,9.93530e-01,9.41839e-02,9.99987e-01
7.882144461e-01,5.93091e-02,9.99999e-01,9.99999e-01,6.08259e-01,9.86778e-01,9.86831e-02,9.99908e-01
7.921555184e-01,7.54685e-02,9.99999e-01,9.99999e-01,7.35639e-01,9.92754e-01,1.03302e-01,9.99841e-01
7.961162960e-01,8.67122e-02,9.99999e-01,9.99999e-01,8.12878e-01,9.87141e-01,1.08040e-01,9.99848e-01
8.000968774e-01,9.93761e-02,9.99999e-01,9.99999e-01,8.93501e-01,9.85201e-01,1.12894e-01,9.99839e-01
8.040973618e-01,1.09540e-01,9.99999e-01,9.99999e-01,9.43368e-01,9.85188e-01,1.17865e-01,9.99877e-01
8.081178486e-01,1.15728e-01,9.99999e-01,9.99999e-01,9.73498e-01,9.66859e-01,1.22949e-01,9.99875e-01
8.121584379e-01,1.10518e-01,9.99999e-01,9.99999e-01,9.91790e-01,8.69753e-01,1.28146e-01,9.99530e-01
8.162192301e-01,1.12838e-01,9.99999e-01,9.99999e-01,9.98180e-01,8.48462e-01,1.33454e-01,9.98236e-01
8.203003262e-01,1.27760e-01,9.99999e-01,9.99999e-01,9.99974e-01,9.21915e-01,1.38870e-01,9.97934e-01
8.244018279e-01,1.28998e-01,9.99999e-01,9.99999e-01,9.99999e-01,8.94856e-01,1.44392e-01,9.98356e-01
8.285238370e-01,1.35720e-01,9.99999e-01,9.99999e-01,9.99999e-01,9.05854e-01,1.50019e-01,9.98708e-01
8.326664562e-01,1.40914e-01,9.99999e-01,9.99999e-01,9.99999e-01,9.05245e-01,1.55747e-01,9.99465e-01
8.368297885e-01,1.50429e-01,9.99999e-01,9.99999e-01,9.99999e-01,9.31135e-01,1.61574e-01,9.99877e-01
8.410139374e-01,1.60529e-01,9.99999e-01,9.99999e-01,9.99999e-01,9.58464e-01,1.67497e-01,9.99928e-01
8.452190071e-01,1.69935e-01,9.99999e-01,9.99999e-01,9.99999e-01,9.79415e-01,1.73514e-01,9.99956e-01
8.494451021e-01,1.77456e-01,9.99999e-01,9.99999e-01,9.99999e-01,9.87976e-01,1.79622e-01,9.99965e-01
8.536923276e-01,1.84493e-01,9.99999e-01,9.99999e-01,9.99999e-01,9.92887e-01,1.85818e-01,9.99978e-01
8.579607893e-01,1.91254e-01,9.99999e-01,9.99999e-01,9.99999e-01,9.95606e-01,1.92099e-01,9.99994e-01
8.622505932e-01,1.97908e-01,9.99999e-01,9.99999e-01,9.99999e-01,9.97211e-01,1.98462e-01,9.99998e-01
8.665618462e-01,1.76497e-01,9.99999e-01,9.99999e-01,8.62756e-01,9.98270e-01,2.04904e-01,9.99999e-01
8.708946554e-01,6.64345e-02,9.99999e-01,9.99999e-01,3.14798e-01,9.98017e-01,2.11421e-01,9.99998e-01
8.752491287e-01,8.29526e-02,9.99999e-01,9.99999e-01,3.81436e-01,9.97349e-01,2.18011e-01,9.99996e-01
8.796253743e-01,1.30131e-01,9.99999e-01,9.99999e-01,5.81170e-01,9.96324e-01,2.24670e-01,9.99991e-01
8.840235012e-01,1.72956e-01,9.99999e-01,9.99999e-01,7.50471e-01,9.95804e-01,2.31395e-01,9.99974e-01
8.884436187e-01,2.09408e-01,9.99999e-01,9.99999e-01,8.92514e-01,9.84671e-01,2.38182e-01,9.99926e-01
8.928858368e-01,1.99513e-01,9.99999e-01,9.99999e-01,9.54814e-01,8.52015e-01,2.45029e-01,9.99580e-01
8.973502660e-01,1.87927e-01,9.99999e-01,9.99999e-01,9.88869e-01,7.55423e-01,2.51931e-01,9.97854e-01
9.018370173e-01,2.23499e-01,9.99999e-01,9.99999e-01,9.98769e-01,8.67199e-01,2.58885e-01,9.96629e-01
9.063462024e-01,2.26894e-01,9.99999e-01,9.99999e-01,9.68825e-01,8.80679e-01,2.65889e-01,9.97038e-01
9.108779334e-01,2.08218e-01,9.99999e-01,9.99999e-01,9.29662e-01,8.20890e-01,2.72938e-01,9.96922e-01
9.154323231e-01,2.19589e-01,9.99999e-01,9.99999e-01,9.83124e-01,7.98766e-01,2.80029e-01,9.97455e-01
9.200094847e-01,1.98236e-01,9.99999e-01,9.99999e-01,8.04292e-01,8.39327e-01,2.87159e-01,9.98575e-01
9.246095321e-01,1.60158e-01,9.99999e-01,9.99999e-01,7.01259e-01,7.65143e-01,2.94324e-01,9.98358e-01
9.292325798e-01,4.55417e-02,9.99999e-01,9.99999e-01,7.60038e-01,1.88436e-01,3.01521e-01,9.92100e-01
9.338787427e-01,2.83548e-02,9.99999e-01,9.99999e-01,7.65543e-01,1.16756e-01,3.08747e-01,9.71738e-01
9.385481364e-01,1.07603e-01,9.99999e-01,9.99999e-01,8.20302e-01,4.16751e-01,3.15998e-01,9.68993e-01
9.432408771e-01,8.72084e-02,9.99999e-01,9.99999e-01,8.85339e-01,3.08144e-01,3.23271e-01,9.73192e-01
9.479570815e-01,6.01352e-02,9.99999e-01,9.99999e-01,9.39288e-01,1.96427e-01,3.30562e-01,9.78127e-01
9.526968669e-01,9.23548e-02,9.99999e-01,9.99999e-01,9.70321e-01,2.83888e-01,3.37870e-01,9.86601e-01
9.574603512e-01,1.02078e-01,9.99999e-01,9.99999e-01,9.87193e-01,3.00919e-01,3.45190e-01,9.93171e-01
9.622476530e-01,1.29554e-01,9.99999e-01,9.99999e-01,9.95989e-01,3.70491e-01,3.52519e-01,9.95272e-01
9.670588912e-01,2.00884e-01,9.99999e-01,9.99999e-01,9.98798e-01,5.60620e-01,3.59854e-01,9.96764e-01
9.718941857e-01,2.52556e-01,9.99999e-01,9.99999e-01,9.99915e-01,6.89491e-01,3.67193e-01,9.97617e-01
9.767536566e-01,2.74412e-01,9.99999e-01,9.99999e-01,9.99999e-01,7.34017e-01,3.74532e-01,9.98178e-01
9.816374249e-01,3.03225e-01,9.99999e-01,9.99999e-01,9.99999e-01,7.94556e-01,3.81868e-01,9.99369e-01
9.865456120e-01,3.36927e-01,9.99999e-01,9.99999e-01,9.99999e-01,8.65807e-01,3.89199e-01,9.99868e-01
9.914783401e-01,3.62636e-01,9.99999e-01,9.99999e-01,9.99999e-01,9.14576e-01,3.96521e-01,9.99963e-01
9.964357318e-01,3.84658e-01,9.99999e-01,9.99999e-01,9.99999e-01,9.52536e-01,4.03833e-01,9.99978e-01
1.001417910e+00,3.99306e-01,9.99999e-01,9.99999e-01,9.99999e-01,9.71268e-01,4.11131e-01,9.99967e-01
1.006425000e+00,4.11488e-01,9.99999e-01,9.99999e-01,9.99999e-01,9.83495e-01,4.18413e-01,9.99953e-01
1.011457125e+00,4.21292e-01,9.99999e-01,9.99999e-01,9.99999e-01,9.89741e-01,4.25676e-01,9.99956e-01
1.016514411e+00,4.29883e-01,9.99999e-01,9.99999e-01,9.99999e-01,9.93018e-01,4.32918e-01,9.99969e-01
1.021596983e+00,4.37592e-01,9.99999e-01,9.99999e-01,9.99814e-01,9.94430e-01,4.40137e-01,9.99969e-01
1.026704968e+00,4.39829e-01,9.99999e-01,9.99999e-01,9.87525e-01,9.95652e-01,4.47330e-01,9.99980e-01
1.031838492e+00,4.07308e-01,9.99999e-01,9.99999e-01,8.98854e-01,9.96842e-01,4.54495e-01,9.99993e-01
1.036997685e+00,2.17713e-02,9.99999e-01,9.99999e-01,4.72287e-02,9.98121e-01,4.61629e-01,9.99998e-01
1.042182673e+00,1.27468e-03,9.99999e-01,9.99999e-01,2.72406e-03,9.97755e-01,4.68732e-01,9.99999e-01
1.047393587e+00,3.37184e-03,9.99999e-01,9.99999e-01,7.10416e-03,9.97027e-01,4.75800e-01,9.99998e-01
1.052630555e+00,2.65631e-07,9.99999e-01,9.99999e-01,5.51562e-07,9.95920e-01,4.82832e-01,9.99998e-01
1.057893707e+00,1.01465e-06,9.99999e-01,9.99999e-01,2.07871e-06,9.93191e-01,4.89826e-01,9.99997e-01
1.063183176e+00,3.13037e-05,9.99999e-01,9.99999e-01,6.34180e-05,9.88828e-01,4.96780e-01,9.99993e-01
1.068499092e+00,3.36842e-04,9.99999e-01,9.99999e-01,6.76977e-04,9.81380e-01,5.03693e-01,9.99986e-01
1.073841587e+00,4.53679e-03,9.99999e-01,9.99999e-01,9.02623e-03,9.78239e-01,5.10562e-01,9.99971e-01
