#,Wave/freq,Total,N2,O2,CO2,H2O,Rayleigh,CIA
4.000000000e-01,9.70323e-04,9.99999e-01,9.99999e-01,9.99999e-01,9.99986e-01,9.70336e-04,9.99999e-01
4.020000000e-01,1.11300e-03,9.99999e-01,9.99999e-01,9.99999e-01,9.99991e-01,1.11301e-03,9.99999e-01
4.040100000e-01,1.27302e-03,9.99999e-01,9.99999e-01,9.99999e-01,9.99996e-01,1.27302e-03,9.99999e-01
4.060300500e-01,1.45219e-03,9.99999e-01,9.99999e-01,9.99999e-01,9.99998e-01,1.45219e-03,9.99999e-01
4.080602003e-01,1.65227e-03,9.99999e-01,9.99999e-01,9.99999e-01,9.99999e-01,1.65227e-03,9.99999e-01
4.101005013e-01,1.87512e-03,9.99999e-01,9.99999e-01,9.99999e-01,9.99999e-01,1.87512e-03,9.99999e-01
4.121510038e-01,2.12273e-03,9.99999e-01,9.99999e-01,9.99999e-01,9.99999e-01,2.12273e-03,9.99999e-01
4.142117588e-01,2.39714e-03,9.99999e-01,9.99999e-01,9.99999e-01,9.99995e-01,2.39715e-03,9.99999e-01
4.162828176e-01,2.70051e-03,9.99999e-01,9.99999e-01,9.99999e-01,9.99983e-01,2.70055e-03,9.99999e-01
4.183642317e-01,3.03517e-03,9.99999e-01,9.99999e-01,9.99999e-01,9.99989e-01,3.03520e-03,9.99999e-01
4.204560528e-01,3.40344e-03,9.99999e-01,9.99999e-01,9.99999e-01,9.99993e-01,3.40346e-03,9.99999e-01
4.225583331e-01,3.80777e-03,9.99999e-01,9.99999e-01,9.99999e-01,9.99997e-01,3.80777e-03,9.99999e-01
4.246711247e-01,4.25068e-03,9.99999e-01,9.99999e-01,9.99999e-01,9.99997e-01,4.25069e-03,9.99999e-01
4.267944804e-01,4.73480e-03,9.99999e-01,9.99999e-01,9.99999e-01,9.99996e-01,4.73481e-03,9.99999e-01
4.289284528e-01,5.26284e-03,9.99999e-01,9.99999e-01,9.99999e-01,9.99997e-01,5.26285e-03,9.99999e-01
4.310730950e-01,5.83757e-03,9.99999e-01,9.99999e-01,9.99999e-01,9.99998e-01,5.83758e-03,9.99999e-01
4.332284605e-01,6.46182e-03,9.99999e-01,9.99999e-01,9.99999e-01,9.99999e-01,6.46183e-03,9.99999e-01
4.353946028e-01,7.13849e-03,9.99999e-01,9.99999e-01,9.99999e-01,9.99999e-01,7.13849e-03,9.99999e-01
4.375715758e-01,7.87049e-03,9.99999e-01,9.99999e-01,9.99999e-01,9.99997e-01,7.87051e-03,9.99999e-01
4.397594337e-01,8.66075e-03,9.99999e-01,9.99999e-01,9.99999e-01,9.99984e-01,8.66088e-03,9.99999e-01
4.419582309e-01,9.51191e-03,9.99999e-01,9.99999e-01,9.99999e-01,9.99924e-01,9.51262e-03,9.99999e-01
4.441680220e-01,1.04282e-02,9.99999e-01,9.99999e-01,9.99999e-01,9.99942e-01,1.04288e-02,9.99999e-01
4.463888621e-01,1.14118e-02,9.99999e-01,9.99999e-01,9.99999e-01,9.99939e-01,1.14124e-02,9.99999e-01
4.486208064e-01,1.24662e-02,9.99999e-01,9.99999e-01,9.99999e-01,9.99962e-01,1.24667e-02,9.99999e-01
4.508639105e-01,1.35943e-02,9.99999e-01,9.99999e-01,9.99999e-01,9.99982e-01,1.35945e-02,9.99999e-01
4.531182300e-01,1.47990e-02,9.99999e-01,9.99999e-01,9.99999e-01,9.99992e-01,1.47991e-02,9.99999e-01
4.553838212e-01,1.60833e-02,9.99999e-01,9.99999e-01,9.99999e-01,9.99994e-01,1.60834e-02,9.99999e-01
4.576607403e-01,1.74504e-02,9.99999e-01,9.99999e-01,9.99999e-01,9.99997e-01,1.74504e-02,9.99999e-01
4.599490440e-01,1.89031e-02,9.99999e-01,9.99999e-01,9.99999e-01,9.99997e-01,1.89031e-02,9.99999e-01
4.622487892e-01,2.04445e-02,9.99999e-01,9.99999e-01,9.99999e-01,9.99999e-01,2.04445e-02,9.99999e-01
4.645600332e-01,2.20773e-02,9.99999e-01,9.99999e-01,9.99999e-01,9.99998e-01,2.20774e-02,9.99999e-01
4.668828333e-01,2.38040e-02,9.99999e-01,9.99999e-01,9.99999e-01,9.99981e-01,2.38044e-02,9.99999e-01
4.692172475e-01,2.56275e-02,9.99999e-01,9.99999e-01,9.99999e-01,9.99961e-01,2.56285e-02,9.99999e-01
4.715633337e-01,2.75514e-02,9.99999e-01,9.99999e-01,9.99999e-01,9.99974e-01,2.75521e-02,9.99999e-01
4.739211504e-01,2.95771e-02,9.99999e-01,9.99999e-01,9.99999e-01,9.99976e-01,2.95778e-02,9.99999e-01
4.762907561e-01,3.17075e-02,9.99999e-01,9.99999e-01,9.99999e-01,9.99987e-01,3.17079e-02,9.99999e-01
4.786722099e-01,3.39446e-02,9.99999e-01,9.99999e-01,9.99999e-01,9.99994e-01,3.39448e-02,9.99999e-01
4.810655710e-01,3.62906e-02,9.99999e-01,9.99999e-01,9.99999e-01,9.99998e-01,3.62906e-02,9.99999e-01
4.834708988e-01,3.87468e-02,9.99999e-01,9.99999e-01,9.99999e-01,9.99984e-01,3.87473e-02,9.99999e-01
4.858882533e-01,4.13158e-02,9.99999e-01,9.99999e-01,9.99999e-01,9.99973e-01,4.13169e-02,9.99999e-01
4.883176946e-01,4.40000e-02,9.99999e-01,9.99999e-01,9.99999e-01,9.99977e-01,4.40010e-02,9.99999e-01
4.907592831e-01,4.68003e-02,9.99999e-01,9.99999e-01,9.99999e-01,9.99979e-01,4.68013e-02,9.99999e-01
4.932130795e-01,4.97184e-02,9.99999e-01,9.99999e-01,9.99999e-01,9.99985e-01,4.97191e-02,9.99999e-01
4.956791449e-01,5.27554e-02,9.99999e-01,9.99999e-01,9.99999e-01,9.99991e-01,5.27558e-02,9.99999e-01
4.981575406e-01,5.59103e-02,9.99999e-01,9.99999e-01,9.99999e-01,9.99961e-01,5.59124e-02,9.99999e-01
5.006483283e-01,5.91841e-02,9.99999e-01,9.99999e-01,9.99999e-01,9.99900e-01,5.91900e-02,9.99998e-01
5.031515699e-01,6.25577e-02,9.99999e-01,9.99999e-01,9.99999e-01,9.99501e-01,6.25892e-02,9.99994e-01
5.056673278e-01,6.60930e-02,9.99999e-01,9.99999e-01,9.99999e-01,9.99738e-01,6.61107e-02,9.99993e-01
5.081956644e-01,6.97315e-02,9.99999e-01,9.99999e-01,9.99999e-01,9.99669e-01,6.97548e-02,9.99995e-01
5.107366428e-01,7.35054e-02,9.99999e-01,9.99999e-01,9.99999e-01,9.99777e-01,7.35218e-02,9.99998e-01
5.132903260e-01,7.74020e-02,9.99999e-01,9.99999e-01,9.99999e-01,9.99872e-01,7.74118e-02,9.99999e-01
5.158567776e-01,8.14204e-02,9.99999e-01,9.99999e-01,9.99999e-01,9.99946e-01,8.14247e-02,9.99999e-01
5.184360615e-01,8.55583e-02,9.99999e-01,9.99999e-01,9.99999e-01,9.99978e-01,8.55601e-02,9.99999e-01
5.210282418e-01,8.98169e-02,9.99999e-01,9.99999e-01,9.99999e-01,9.99991e-01,8.98177e-02,9.99999e-01
5.236333830e-01,9.41936e-02,9.99999e-01,9.99999e-01,9.99999e-01,9.99967e-01,9.41966e-02,9.99999e-01
5.262515499e-01,9.86942e-02,9.99999e-01,9.99999e-01,9.99999e-01,9.99979e-01,9.86963e-02,9.99999e-01
5.288828077e-01,1.03314e-01,9.99999e-01,9.99999e-01,9.99999e-01,9.99980e-01,1.03316e-01,9.99999e-01
5.315272217e-01,1.08052e-01,9.99999e-01,9.99999e-01,9.99999e-01,9.99983e-01,1.08053e-01,9.99999e-01
5.341848578e-01,1.12907e-01,9.99999e-01,9.99999e-01,9.99999e-01,9.99988e-01,1.12908e-01,9.99999e-01
5.368557821e-01,1.17875e-01,9.99999e-01,9.99999e-01,9.99999e-01,9.99961e-01,1.17879e-01,9.99999e-01
5.395400610e-01,1.22947e-01,9.99999e-01,9.99999e-01,9.99999e-01,9.99861e-01,1.22964e-01,9.99998e-01
5.422377613e-01,1.28139e-01,9.99999e-01,9.99999e-01,9.99999e-01,9.99824e-01,1.28162e-01,9.99996e-01
5.449489501e-01,1.33447e-01,9.99999e-01,9.99999e-01,9.99999e-01,9.99835e-01,1.33469e-01,9.99996e-01
5.476736949e-01,1.38866e-01,9.99999e-01,9.99999e-01,9.99999e-01,9.99855e-01,1.38886e-01,9.99997e-01
5.504120634e-01,1.44393e-01,9.99999e-01,9.99999e-01,9.99999e-01,9.99894e-01,1.44408e-01,9.99999e-01
5.531641237e-01,1.50027e-01,9.99999e-01,9.99999e-01,9.99999e-01,9.99946e-01,1.50035e-01,9.99999e-01
5.559299443e-01,1.55759e-01,9.99999e-01,9.99999e-01,9.99999e-01,9.99974e-01,1.55763e-01,9.99999e-01
5.587095940e-01,1.61588e-01,9.99999e-01,9.99999e-01,9.99999e-01,9.99983e-01,1.61590e-01,9.99999e-01
5.615031420e-01,1.67511e-01,9.99999e-01,9.99999e-01,9.99999e-01,9.99981e-01,1.67514e-01,9.99999e-01
5.643106577e-01,1.73528e-01,9.99999e-01,9.99999e-01,9.99999e-01,9.99978e-01,1.73531e-01,9.99999e-01
5.671322110e-01,1.79594e-01,9.99999e-01,9.99999e-01,9.99999e-01,9.99748e-01,1.79640e-01,9.99997e-01
5.699678720e-01,1.85787e-01,9.99999e-01,9.99999e-01,9.99999e-01,9.99741e-01,1.85836e-01,9.99992e-01
5.728177114e-01,1.92064e-01,9.99999e-01,9.99999e-01,9.99999e-01,9.99726e-01,1.92117e-01,9.99993e-01
5.756818000e-01,1.98430e-01,9.99999e-01,9.99999e-01,9.99999e-01,9.99750e-01,1.98480e-01,9.99996e-01
5.785602090e-01,2.04878e-01,9.99999e-01,9.99999e-01,9.99999e-01,9.99782e-01,2.04922e-01,9.99998e-01
5.814530100e-01,2.11394e-01,9.99999e-01,9.99999e-01,9.99999e-01,9.99781e-01,2.11440e-01,9.99999e-01
5.843602750e-01,2.17972e-01,9.99999e-01,9.99999e-01,9.99999e-01,9.99736e-01,2.18030e-01,9.99998e-01
5.872820764e-01,2.24177e-01,9.99999e-01,9.99999e-01,9.99999e-01,9.97734e-01,2.24689e-01,9.99983e-01
5.902184868e-01,2.30777e-01,9.99999e-01,9.99999e-01,9.99999e-01,9.97287e-01,2.31414e-01,9.99956e-01
5.931695792e-01,2.37734e-01,9.99999e-01,9.99999e-01,9.99999e-01,9.98075e-01,2.38202e-01,9.99958e-01
5.961354271e-01,2.44527e-01,9.99999e-01,9.99999e-01,9.99999e-01,9.97896e-01,2.45048e-01,9.99975e-01
5.991161043e-01,2.51563e-01,9.99999e-01,9.99999e-01,9.99999e-01,9.98468e-01,2.51951e-01,9.99992e-01
6.021116848e-01,2.58681e-01,9.99999e-01,9.99999e-01,9.99999e-01,9.99131e-01,2.58905e-01,9.99998e-01
6.051222432e-01,2.65792e-01,9.99999e-01,9.99999e-01,9.99999e-01,9.99560e-01,2.65909e-01,9.99999e-01
6.081478544e-01,2.72906e-01,9.99999e-01,9.99999e-01,9.99999e-01,9.99810e-01,2.72958e-01,9.99999e-01
6.111885937e-01,2.80027e-01,9.99999e-01,9.99999e-01,9.99999e-01,9.99919e-01,2.80049e-01,9.99999e-01
6.142445367e-01,2.87169e-01,9.99999e-01,9.99999e-01,9.99999e-01,9.99963e-01,2.87179e-01,9.99999e-01
6.173157594e-01,2.94339e-01,9.99999e-01,9.99999e-01,9.99999e-01,9.99979e-01,2.94344e-01,9.99999e-01
6.204023382e-01,3.01537e-01,9.99999e-01,9.99999e-01,9.99999e-01,9.99982e-01,3.01542e-01,9.99999e-01
6.235043498e-01,3.08744e-01,9.99999e-01,9.99999e-01,9.99999e-01,9.99924e-01,3.08767e-01,9.99999e-01
6.266218716e-01,3.15894e-01,9.99999e-01,9.99999e-01,9.99999e-01,9.99608e-01,3.16018e-01,9.99996e-01
6.297549810e-01,3.23243e-01,9.99999e-01,9.99999e-01,9.99999e-01,9.99855e-01,3.23292e-01,9.99994e-01
6.329037559e-01,3.30489e-01,9.99999e-01,9.99999e-01,9.99999e-01,9.99716e-01,3.30583e-01,9.99995e-01
6.360682746e-01,3.37808e-01,9.99999e-01,9.99999e-01,9.99999e-01,9.99757e-01,3.37891e-01,9.99996e-01
6.392486160e-01,3.45102e-01,9.99999e-01,9.99999e-01,9.99999e-01,9.99686e-01,3.45211e-01,9.99998e-01
6.424448591e-01,3.52390e-01,9.99999e-01,9.99999e-01,9.99999e-01,9.99576e-01,3.52540e-01,9.99997e-01
6.456570834e-01,3.59164e-01,9.99999e-01,9.99999e-01,9.99999e-01,9.98034e-01,3.59875e-01,9.99987e-01
6.488853688e-01,3.66682e-01,9.99999e-01,9.99999e-01,9.99999e-01,9.98580e-01,3.67214e-01,9.99969e-01
6.521297956e-01,3.74002e-01,9.99999e-01,9.99999e-01,9.99999e-01,9.98553e-01,3.74553e-01,9.99974e-01
6.553904446e-01,3.81329e-01,9.99999e-01,9.99999e-01,9.99999e-01,9.98552e-01,3.81889e-01,9.99980e-01
6.586673968e-01,3.88737e-01,9.99999e-01,9.99999e-01,9.99999e-01,9.98766e-01,3.89220e-01,9.99993e-01
6.619607338e-01,3.96270e-01,9.99999e-01,9.99999e-01,9.99999e-01,9.99312e-01,3.96542e-01,9.99998e-01
6.652705375e-01,4.03687e-01,9.99999e-01,9.99999e-01,9.99999e-01,9.99587e-01,4.03854e-01,9.99998e-01
6.685968902e-01,4.11080e-01,9.99999e-01,9.99999e-01,9.99999e-01,9.99824e-01,4.11152e-01,9.99999e-01
6.719398746e-01,4.18397e-01,9.99999e-01,9.99999e-01,9.99999e-01,9.99910e-01,4.18434e-01,9.99999e-01
6.752995740e-01,4.25677e-01,9.99999e-01,9.99999e-01,9.99999e-01,9.99952e-01,4.25697e-01,9.99999e-01
6.786760719e-01,4.32909e-01,9.99999e-01,9.99999e-01,9.99999e-01,9.99929e-01,4.32939e-01,9.99999e-01
6.820694522e-01,4.40104e-01,9.99999e-01,9.99999e-01,9.99999e-01,9.99878e-01,4.40158e-01,9.99998e-01
6.854797995e-01,4.47281e-01,9.99999e-01,9.99999e-01,9.99999e-01,9.99845e-01,4.47350e-01,9.99998e-01
6.889071985e-01,4.54341e-01,9.99999e-01,9.99999e-01,9.99999e-01,9.99619e-01,4.54515e-01,9.99996e-01
6.923517345e-01,4.58806e-01,9.99999e-01,9.99999e-01,9.99999e-01,9.93867e-01,4.61650e-01,9.99970e-01
6.958134932e-01,4.67264e-01,9.99999e-01,9.99999e-01,9.99999e-01,9.96889e-01,4.68752e-01,9.99934e-01
6.992925606e-01,4.74351e-01,9.99999e-01,9.99999e-01,9.99999e-01,9.96968e-01,4.75820e-01,9.99941e-01
7.027890234e-01,4.81043e-01,9.99999e-01,9.99999e-01,9.99999e-01,9.96296e-01,4.82852e-01,9.99955e-01
7.063029686e-01,4.88309e-01,9.99999e-01,9.99999e-01,9.99999e-01,9.96882e-01,4.89846e-01,9.99977e-01
7.098344834e-01,4.95308e-01,9.99999e-01,9.99999e-01,9.99999e-01,9.97009e-01,4.96800e-01,9.99986e-01
7.133836558e-01,5.01660e-01,9.99999e-01,9.99999e-01,9.99999e-01,9.95950e-01,5.03713e-01,9.99973e-01
7.169505741e-01,4.94144e-01,9.99999e-01,9.99999e-01,9.99999e-01,9.68003e-01,5.10582e-01,9.99795e-01
7.205353270e-01,5.09252e-01,9.99999e-01,9.99999e-01,9.99999e-01,9.84594e-01,5.17407e-01,9.99638e-01
7.241380036e-01,5.13585e-01,9.99999e-01,9.99999e-01,9.99999e-01,9.80083e-01,5.24185e-01,9.99688e-01
7.277586936e-01,5.21244e-01,9.99999e-01,9.99999e-01,9.99999e-01,9.82032e-01,5.30915e-01,9.99745e-01
7.313974871e-01,5.27360e-01,9.99999e-01,9.99999e-01,9.99999e-01,9.81074e-01,5.37597e-01,9.99880e-01
7.350544745e-01,5.38549e-01,9.99999e-01,9.99999e-01,9.99999e-01,9.89604e-01,5.44228e-01,9.99958e-01
7.387297469e-01,5.46585e-01,9.99999e-01,9.99999e-01,9.99999e-01,9.92352e-01,5.50808e-01,9.99980e-01
7.424233956e-01,5.55250e-01,9.99999e-01,9.99999e-01,9.99999e-01,9.96263e-01,5.57334e-01,9.99996e-01
7.461355126e-01,5.62528e-01,9.99999e-01,9.99999e-01,9.99999e-01,9.97730e-01,5.63807e-01,9.99998e-01
7.498661902e-01,5.69625e-01,9.99999e-01,9.99999e-01,9.99999e-01,9.98946e-01,5.70225e-01,9.99999e-01
7.536155211e-01,5.76288e-01,9.99999e-01,9.99999e-01,9.99999e-01,9.99481e-01,5.76587e-01,9.99999e-01
7.573835987e-01,5.82737e-01,9.99999e-01,9.99999e-01,9.99999e-01,9.99732e-01,5.82893e-01,9.99999e-01
7.611705167e-01,5.89043e-01,9.99999e-01,9.99999e-01,9.99999e-01,9.99833e-01,5.89140e-01,9.99999e-01
7.649763693e-01,5.95268e-01,9.99999e-01,9.99999e-01,9.99999e-01,9.99895e-01,5.95330e-01,9.99999e-01
7.688012511e-01,6.01416e-01,9.99999e-01,9.99999e-01,9.99999e-01,9.99926e-01,6.01460e-01,9.99999e-01
7.726452574e-01,6.07494e-01,9.99999e-01,9.99999e-01,9.99999e-01,9.99939e-01,6.07530e-01,9.99999e-01
7.765084837e-01,6.13487e-01,9.99999e-01,9.99999e-01,9.99999e-01,9.99913e-01,6.13540e-01,9.99999e-01
7.803910261e-01,6.04241e-01,9.99999e-01,9.99999e-01,9.75740e-01,9.99628e-01,6.19489e-01,9.99999e-01
7.842929812e-01,5.65233e-01,9.99999e-01,9.99999e-01,9.04965e-01,9.98702e-01,6.25376e-01,9.99997e-01
7.882144461e-01,5.65037e-01,9.99999e-01,9.99999e-01,8.97500e-01,9.97356e-01,6.31202e-01,9.99981e-01
7.921555184e-01,5.97530e-01,9.99999e-01,9.99999e-01,9.39451e-01,9.98559e-01,6.36965e-01,9.99968e-01
7.961162960e-01,6.15058e-01,9.99999e-01,9.99999e-01,9.59534e-01,9.97417e-01,6.42665e-01,9.99969e-01
8.000968774e-01,6.32022e-01,9.99999e-01,9.99999e-01,9.77808e-01,9.97039e-01,6.48302e-01,9.99967e-01
8.040973618e-01,6.44429e-01,9.99999e-01,9.99999e-01,9.88504e-01,9.97033e-01,6.53876e-01,9.99975e-01
8.081178486e-01,6.51452e-01,9.99999e-01,9.99999e-01,9.94682e-01,9.93267e-01,6.59386e-01,9.99974e-01
8.121584379e-01,6.45267e-01,9.99999e-01,9.99999e-01,9.98376e-01,9.72229e-01,6.64832e-01,9.99906e-01
8.162192301e-01,6.47974e-01,9.99999e-01,9.99999e-01,9.99640e-01,9.67497e-01,6.70214e-01,9.99648e-01
8.203003262e-01,6.63935e-01,9.99999e-01,9.99999e-01,9.99994e-01,9.83239e-01,6.75533e-01,9.99588e-01
8.244018279e-01,6.65146e-01,9.99999e-01,9.99999e-01,9.99999e-01,9.77344e-01,6.80787e-01,9.99672e-01
8.285238370e-01,6.72326e-01,9.99999e-01,9.99999e-01,9.99999e-01,9.80350e-01,6.85977e-01,9.99742e-01
8.326664562e-01,6.77370e-01,9.99999e-01,9.99999e-01,9.99999e-01,9.80232e-01,6.91104e-01,9.99893e-01
8.368297885e-01,6.86330e-01,9.99999e-01,9.99999e-01,9.99999e-01,9.85894e-01,6.96166e-01,9.99975e-01
8.410139374e-01,6.95268e-01,9.99999e-01,9.99999e-01,9.99999e-01,9.91605e-01,7.01164e-01,9.99985e-01
8.452190071e-01,7.03186e-01,9.99999e-01,9.99999e-01,9.99999e-01,9.95884e-01,7.06098e-01,9.99991e-01
8.494451021e-01,7.09257e-01,9.99999e-01,9.99999e-01,9.99999e-01,9.97600e-01,7.10968e-01,9.99992e-01
8.536923276e-01,7.14760e-01,9.99999e-01,9.99999e-01,9.99999e-01,9.98586e-01,7.15775e-01,9.99995e-01
8.579607893e-01,7.19888e-01,9.99999e-01,9.99999e-01,9.99999e-01,9.99125e-01,7.20518e-01,9.99998e-01
8.622505932e-01,7.24797e-01,9.99999e-01,9.99999e-01,9.99999e-01,9.99446e-01,7.25198e-01,9.99999e-01
8.665618462e-01,6.86112e-01,9.99999e-01,9.99999e-01,9.40430e-01,9.99655e-01,7.29815e-01,9.99999e-01
8.708946554e-01,5.67265e-01,9.99999e-01,9.99999e-01,7.72748e-01,9.99604e-01,7.34370e-01,9.99999e-01
8.752491287e-01,6.01630e-01,9.99999e-01,9.99999e-01,8.14687e-01,9.99472e-01,7.38862e-01,9.99998e-01
8.796253743e-01,6.64286e-01,9.99999e-01,9.99999e-01,8.94352e-01,9.99265e-01,7.43292e-01,9.99997e-01
8.840235012e-01,7.05154e-01,9.99999e-01,9.99999e-01,9.43933e-01,9.99162e-01,7.47661e-01,9.99994e-01
8.884436187e-01,7.32868e-01,9.99999e-01,9.99999e-01,9.77652e-01,9.96872e-01,7.51968e-01,9.99985e-01
8.928858368e-01,7.25281e-01,9.99999e-01,9.99999e-01,9.90876e-01,9.67954e-01,7.56214e-01,9.99916e-01
8.973502660e-01,7.16379e-01,9.99999e-01,9.99999e-01,9.97792e-01,9.44568e-01,7.60399e-01,9.99572e-01
9.018370173e-01,7.42130e-01,9.99999e-01,9.99999e-01,9.99757e-01,9.71589e-01,7.64524e-01,9.99328e-01
9.063462024e-01,7.43749e-01,9.99999e-01,9.99999e-01,9.93486e-01,9.74466e-01,7.68590e-01,9.99410e-01
9.108779334e-01,7.31176e-01,9.99999e-01,9.99999e-01,9.85583e-01,9.60705e-01,7.72596e-01,9.99387e-01
9.154323231e-01,7.39256e-01,9.99999e-01,9.99999e-01,9.96646e-01,9.55623e-01,7.76543e-01,9.99493e-01
9.200094847e-01,7.15897e-01,9.99999e-01,9.99999e-01,9.49483e-01,9.65161e-01,7.80432e-01,9.99716e-01
9.246095321e-01,6.89959e-01,9.99999e-01,9.99999e-01,9.31222e-01,9.44176e-01,7.84263e-01,9.99673e-01
9.292325798e-01,5.10596e-01,9.99999e-01,9.99999e-01,9.44788e-01,6.83866e-01,7.88037e-01,9.98424e-01
9.338787427e-01,4.60776e-01,9.99999e-01,9.99999e-01,9.47374e-01,6.15272e-01,7.91753e-01,9.94317e-01
9.385481364e-01,6.26114e-01,9.99999e-01,9.99999e-01,9.61085e-01,8.22867e-01,7.95413e-01,9.93758e-01
9.432408771e-01,5.88752e-01,9.99999e-01,9.99999e-01,9.76091e-01,7.58263e-01,7.99018e-01,9.94612e-01
9.479570815e-01,5.37609e-01,9.99999e-01,9.99999e-01,9.87636e-01,6.80890e-01,8.02567e-01,9.95613e-01
9.526968669e-01,6.02529e-01,9.99999e-01,9.99999e-01,9.94035e-01,7.53716e-01,8.06061e-01,9.97321e-01
9.574603512e-01,6.23038e-01,9.99999e-01,9.99999e-01,9.97449e-01,7.72587e-01,8.09501e-01,9.98638e-01
9.622476530e-01,6.58703e-01,9.99999e-01,9.99999e-01,9.99205e-01,8.11707e-01,8.12887e-01,9.99058e-01
9.670588912e-01,7.23079e-01,9.99999e-01,9.99999e-01,9.99762e-01,8.86637e-01,8.16220e-01,9.99382e-01
9.718941857e-01,7.59847e-01,9.99999e-01,9.99999e-01,9.99983e-01,9.27659e-01,8.19501e-01,9.99527e-01
9.767536566e-01,7.72727e-01,9.99999e-01,9.99999e-01,9.99999e-01,9.39563e-01,8.22729e-01,9.99637e-01
9.816374249e-01,7.88670e-01,9.99999e-01,9.99999e-01,9.99999e-01,9.55033e-01,8.25907e-01,9.99874e-01
9.865456120e-01,8.05543e-01,9.99999e-01,9.99999e-01,9.99999e-01,9.71691e-01,8.29033e-01,9.99973e-01
9.914783401e-01,8.17462e-01,9.99999e-01,9.99999e-01,9.99999e-01,9.82404e-01,8.32109e-01,9.99992e-01
9.964357318e-01,8.27101e-01,9.99999e-01,9.99999e-01,9.99999e-01,9.90384e-01,8.35135e-01,9.99995e-01
1.001417910e+00,8.33273e-01,9.99999e-01,9.99999e-01,9.99999e-01,9.94231e-01,8.38112e-01,9.99993e-01
1.006425000e+00,8.38258e-01,9.99999e-01,9.99999e-01,9.99999e-01,9.96699e-01,8.41041e-01,9.99990e-01
1.011457125e+00,8.42191e-01,9.99999e-01,9.99999e-01,9.99999e-01,9.97956e-01,8.43922e-01,9.99990e-01
1.016514411e+00,8.45574e-01,9.99999e-01,9.99999e-01,9.99999e-01,9.98610e-01,8.46755e-01,9.99993e-01
1.021596983e+00,8.48562e-01,9.99999e-01,9.99999e-01,9.99959e-01,9.98891e-01,8.49542e-01,9.99993e-01
1.026704968e+00,8.49371e-01,9.99999e-01,9.99999e-01,9.97448e-01,9.99134e-01,8.52283e-01,9.99995e-01
1.031838492e+00,8.23119e-01,9.99999e-01,9.99999e-01,9.63325e-01,9.99372e-01,8.54978e-01,9.99998e-01
1.036997685e+00,1.88375e-01,9.99999e-01,9.99999e-01,2.19713e-01,9.99626e-01,8.57628e-01,9.99999e-01
1.042182673e+00,2.05186e-01,9.99999e-01,9.99999e-01,2.38622e-01,9.99552e-01,8.60234e-01,9.99999e-01
1.047393587e+00,2.02474e-01,9.99999e-01,9.99999e-01,2.34797e-01,9.99407e-01,8.62795e-01,9.99999e-01
1.052630555e+00,1.68685e-02,9.99999e-01,9.99999e-01,1.95062e-02,9.99186e-01,8.65314e-01,9.99999e-01
1.057893707e+00,3.62786e-02,9.99999e-01,9.99999e-01,4.18480e-02,9.98639e-01,8.67790e-01,9.99999e-01
1.063183176e+00,8.54494e-02,9.99999e-01,9.99999e-01,9.83624e-02,9.97763e-01,8.70224e-01,9.99998e-01
1.068499092e+00,1.79402e-01,9.99999e-01,9.99999e-01,2.06272e-01,9.96264e-01,8.72617e-01,9.99996e-01
1.073841587e+00,3.23387e-01,9.99999e-01,9.99999e-01,3.71050e-01,9.95616e-01,8.74969e-01,9.99994e-01
