#,Wave/freq,Total,N2,O2,CO2,H2O,Rayleigh,CIA
4.000000000e-01,7.67157e-03,9.99999e-01,9.99999e-01,9.99999e-01,9.99990e-01,7.67164e-03,9.99999e-01
4.020000000e-01,8.44708e-03,9.99999e-01,9.99999e-01,9.99999e-01,9.99993e-01,8.44712e-03,9.99999e-01
4.040100000e-01,9.28240e-03,9.99999e-01,9.99999e-01,9.99999e-01,9.99997e-01,9.28243e-03,9.99999e-01
4.060300500e-01,1.01813e-02,9.99999e-01,9.99999e-01,9.99999e-01,9.99998e-01,1.01813e-02,9.99999e-01
4.080602003e-01,1.11469e-02,9.99999e-01,9.99999e-01,9.99999e-01,9.99999e-01,1.11469e-02,9.99999e-01
4.101005013e-01,1.21823e-02,9.99999e-01,9.99999e-01,9.99999e-01,9.99999e-01,1.21823e-02,9.99999e-01
4.121510038e-01,1.32905e-02,9.99999e-01,9.99999e-01,9.99999e-01,9.99999e-01,1.32905e-02,9.99999e-01
4.142117588e-01,1.44745e-02,9.99999e-01,9.99999e-01,9.99999e-01,9.99996e-01,1.44746e-02,9.99999e-01
4.162828176e-01,1.57374e-02,9.99999e-01,9.99999e-01,9.99999e-01,9.99987e-01,1.57376e-02,9.99999e-01
4.183642317e-01,1.70825e-02,9.99999e-01,9.99999e-01,9.99999e-01,9.99992e-01,1.70826e-02,9.99999e-01
4.204560528e-01,1.85124e-02,9.99999e-01,9.99999e-01,9.99999e-01,9.99995e-01,1.85125e-02,9.99999e-01
4.225583331e-01,2.00302e-02,9.99999e-01,9.99999e-01,9.99999e-01,9.99997e-01,2.00303e-02,9.99999e-01
4.246711247e-01,2.16387e-02,9.99999e-01,9.99999e-01,9.99999e-01,9.99998e-01,2.16388e-02,9.99999e-01
4.267944804e-01,2.33408e-02,9.99999e-01,9.99999e-01,9.99999e-01,9.99997e-01,2.33408e-02,9.99999e-01
4.289284528e-01,2.51391e-02,9.99999e-01,9.99999e-01,9.99999e-01,9.99998e-01,2.51391e-02,9.99999e-01
4.310730950e-01,2.70362e-02,9.99999e-01,9.99999e-01,9.99999e-01,9.99998e-01,2.70363e-02,9.99999e-01
4.332284605e-01,2.90348e-02,9.99999e-01,9.99999e-01,9.99999e-01,9.99999e-01,2.90348e-02,9.99999e-01
4.353946028e-01,3.11373e-02,9.99999e-01,9.99999e-01,9.99999e-01,9.99999e-01,3.11373e-02,9.99999e-01
4.375715758e-01,3.33458e-02,9.99999e-01,9.99999e-01,9.99999e-01,9.99998e-01,3.33459e-02,9.99999e-01
4.397594337e-01,3.56625e-02,9.99999e-01,9.99999e-01,9.99999e-01,9.99989e-01,3.56628e-02,9.99999e-01
4.419582309e-01,3.80882e-02,9.99999e-01,9.99999e-01,9.99999e-01,9.99947e-01,3.80902e-02,9.99999e-01
4.441680220e-01,4.06282e-02,9.99999e-01,9.99999e-01,9.99999e-01,9.99959e-01,4.06299e-02,9.99999e-01
4.463888621e-01,4.32819e-02,9.99999e-01,9.99999e-01,9.99999e-01,9.99957e-01,4.32837e-02,9.99999e-01
4.486208064e-01,4.60520e-02,9.99999e-01,9.99999e-01,9.99999e-01,9.99973e-01,4.60532e-02,9.99999e-01
4.508639105e-01,4.89394e-02,9.99999e-01,9.99999e-01,9.99999e-01,9.99987e-01,4.89400e-02,9.99999e-01
4.531182300e-01,5.19451e-02,9.99999e-01,9.99999e-01,9.99999e-01,9.99994e-01,5.19453e-02,9.99999e-01
4.553838212e-01,5.50701e-02,9.99999e-01,9.99999e-01,9.99999e-01,9.99996e-01,5.50703e-02,9.99999e-01
4.576607403e-01,5.83159e-02,9.99999e-01,9.99999e-01,9.99999e-01,9.99998e-01,5.83160e-02,9.99999e-01
4.599490440e-01,6.16830e-02,9.99999e-01,9.99999e-01,9.99999e-01,9.99998e-01,6.16831e-02,9.99999e-01
4.622487892e-01,6.51724e-02,9.99999e-01,9.99999e-01,9.99999e-01,9.99999e-01,6.51724e-02,9.99999e-01
4.645600332e-01,6.87841e-02,9.99999e-01,9.99999e-01,9.99999e-01,9.99998e-01,6.87842e-02,9.99999e-01
4.668828333e-01,7.25180e-02,9.99999e-01,9.99999e-01,9.99999e-01,9.99987e-01,7.25189e-02,9.99999e-01
4.692172475e-01,7.63745e-02,9.99999e-01,9.99999e-01,9.99999e-01,9.99973e-01,7.63766e-02,9.99999e-01
4.715633337e-01,8.03557e-02,9.99999e-01,9.99999e-01,9.99999e-01,9.99982e-01,8.03571e-02,9.99999e-01
4.739211504e-01,8.44590e-02,9.99999e-01,9.99999e-01,9.99999e-01,9.99983e-01,8.44603e-02,9.99999e-01
4.762907561e-01,8.86850e-02,9.99999e-01,9.99999e-01,9.99999e-01,9.99990e-01,8.86858e-02,9.99999e-01
4.786722099e-01,9.30326e-02,9.99999e-01,9.99999e-01,9.99999e-01,9.99996e-01,9.30329e-02,9.99999e-01
4.810655710e-01,9.75008e-02,9.99999e-01,9.99999e-01,9.99999e-01,9.99998e-01,9.75009e-02,9.99999e-01
4.834708988e-01,1.02088e-01,9.99999e-01,9.99999e-01,9.99999e-01,9.99989e-01,1.02089e-01,9.99999e-01
4.858882533e-01,1.06794e-01,9.99999e-01,9.99999e-01,9.99999e-01,9.99980e-01,1.06796e-01,9.99999e-01
4.883176946e-01,1.11618e-01,9.99999e-01,9.99999e-01,9.99999e-01,9.99983e-01,1.11620e-01,9.99999e-01
4.907592831e-01,1.16559e-01,9.99999e-01,9.99999e-01,9.99999e-01,9.99985e-01,1.16560e-01,9.99999e-01
4.932130795e-01,1.21614e-01,9.99999e-01,9.99999e-01,9.99999e-01,9.99989e-01,1.21616e-01,9.99999e-01
4.956791449e-01,1.26783e-01,9.99999e-01,9.99999e-01,9.99999e-01,9.99994e-01,1.26784e-01,9.99999e-01
4.981575406e-01,1.32059e-01,9.99999e-01,9.99999e-01,9.99999e-01,9.99972e-01,1.32063e-01,9.99999e-01
5.006483283e-01,1.37441e-01,9.99999e-01,9.99999e-01,9.99999e-01,9.99930e-01,1.37450e-01,9.99999e-01
5.031515699e-01,1.42895e-01,9.99999e-01,9.99999e-01,9.99999e-01,9.99650e-01,1.42945e-01,9.99995e-01
5.056673278e-01,1.48517e-01,9.99999e-01,9.99999e-01,9.99999e-01,9.99815e-01,1.48545e-01,9.99995e-01
5.081956644e-01,1.54210e-01,9.99999e-01,9.99999e-01,9.99999e-01,9.99767e-01,1.54247e-01,9.99996e-01
5.107366428e-01,1.60023e-01,9.99999e-01,9.99999e-01,9.99999e-01,9.99843e-01,1.60048e-01,9.99999e-01
5.132903260e-01,1.65932e-01,9.99999e-01,9.99999e-01,9.99999e-01,9.99910e-01,1.65947e-01,9.99999e-01
5.158567776e-01,1.71933e-01,9.99999e-01,9.99999e-01,9.99999e-01,9.99961e-01,1.71940e-01,9.99999e-01
5.184360615e-01,1.78021e-01,9.99999e-01,9.99999e-01,9.99999e-01,9.99984e-01,1.78024e-01,9.99999e-01
5.210282418e-01,1.84196e-01,9.99999e-01,9.99999e-01,9.99999e-01,9.99993e-01,1.84198e-01,9.99999e-01
5.236333830e-01,1.90452e-01,9.99999e-01,9.99999e-01,9.99999e-01,9.99976e-01,1.90457e-01,9.99999e-01
5.262515499e-01,1.96796e-01,9.99999e-01,9.99999e-01,9.99999e-01,9.99985e-01,1.96799e-01,9.99999e-01
5.288828077e-01,2.03218e-01,9.99999e-01,9.99999e-01,9.99999e-01,9.99986e-01,2.03220e-01,9.99999e-01
5.315272217e-01,2.09716e-01,9.99999e-01,9.99999e-01,9.99999e-01,9.99988e-01,2.09718e-01,9.99999e-01
5.341848578e-01,2.16288e-01,9.99999e-01,9.99999e-01,9.99999e-01,9.99991e-01,2.16290e-01,9.99999e-01
5.368557821e-01,2.22925e-01,9.99999e-01,9.99999e-01,9.99999e-01,9.99972e-01,2.22931e-01,9.99999e-01
5.395400610e-01,2.29617e-01,9.99999e-01,9.99999e-01,9.99999e-01,9.99903e-01,2.29639e-01,9.99998e-01
5.422377613e-01,2.36381e-01,9.99999e-01,9.99999e-01,9.99999e-01,9.99876e-01,2.36410e-01,9.99997e-01
5.449489501e-01,2.43213e-01,9.99999e-01,9.99999e-01,9.99999e-01,9.99884e-01,2.43242e-01,9.99997e-01
5.476736949e-01,2.50104e-01,9.99999e-01,9.99999e-01,9.99999e-01,9.99898e-01,2.50130e-01,9.99998e-01
5.504120634e-01,2.57052e-01,9.99999e-01,9.99999e-01,9.99999e-01,9.99926e-01,2.57071e-01,9.99999e-01
5.531641237e-01,2.64052e-01,9.99999e-01,9.99999e-01,9.99999e-01,9.99962e-01,2.64062e-01,9.99999e-01
5.559299443e-01,2.71095e-01,9.99999e-01,9.99999e-01,9.99999e-01,9.99981e-01,2.71099e-01,9.99999e-01
5.587095940e-01,2.78177e-01,9.99999e-01,9.99999e-01,9.99999e-01,9.99988e-01,2.78180e-01,9.99999e-01
5.615031420e-01,2.85296e-01,9.99999e-01,9.99999e-01,9.99999e-01,9.99987e-01,2.85300e-01,9.99999e-01
5.643106577e-01,2.92452e-01,9.99999e-01,9.99999e-01,9.99999e-01,9.99985e-01,2.92456e-01,9.99999e-01
5.671322110e-01,2.99592e-01,9.99999e-01,9.99999e-01,9.99999e-01,9.99824e-01,2.99645e-01,9.99997e-01
5.699678720e-01,3.06807e-01,9.99999e-01,9.99999e-01,9.99999e-01,9.99817e-01,3.06864e-01,9.99994e-01
5.728177114e-01,3.14047e-01,9.99999e-01,9.99999e-01,9.99999e-01,9.99808e-01,3.14109e-01,9.99995e-01
5.756818000e-01,3.21319e-01,9.99999e-01,9.99999e-01,9.99999e-01,9.99824e-01,3.21376e-01,9.99997e-01
5.785602090e-01,3.28613e-01,9.99999e-01,9.99999e-01,9.99999e-01,9.99847e-01,3.28663e-01,9.99998e-01
5.814530100e-01,3.35916e-01,9.99999e-01,9.99999e-01,9.99999e-01,9.99846e-01,3.35967e-01,9.99999e-01
5.843602750e-01,3.43221e-01,9.99999e-01,9.99999e-01,9.99999e-01,9.99815e-01,3.43284e-01,9.99998e-01
5.872820764e-01,3.50051e-01,9.99999e-01,9.99999e-01,9.99999e-01,9.98413e-01,3.50611e-01,9.99988e-01
5.902184868e-01,3.57252e-01,9.99999e-01,9.99999e-01,9.99999e-01,9.98093e-01,3.57945e-01,9.99969e-01
5.931695792e-01,3.64779e-01,9.99999e-01,9.99999e-01,9.99999e-01,9.98648e-01,3.65283e-01,9.99970e-01
5.961354271e-01,3.72066e-01,9.99999e-01,9.99999e-01,9.99999e-01,9.98522e-01,3.72622e-01,9.99982e-01
5.991161043e-01,3.79549e-01,9.99999e-01,9.99999e-01,9.99999e-01,9.98923e-01,3.79959e-01,9.99994e-01
6.021116848e-01,3.87056e-01,9.99999e-01,9.99999e-01,9.99999e-01,9.99389e-01,3.87292e-01,9.99998e-01
6.051222432e-01,3.94495e-01,9.99999e-01,9.99999e-01,9.99999e-01,9.99691e-01,3.94617e-01,9.99999e-01
6.081478544e-01,4.01878e-01,9.99999e-01,9.99999e-01,9.99999e-01,9.99866e-01,4.01932e-01,9.99999e-01
6.111885937e-01,4.09211e-01,9.99999e-01,9.99999e-01,9.99999e-01,9.99943e-01,4.09234e-01,9.99999e-01
6.142445367e-01,4.16509e-01,9.99999e-01,9.99999e-01,9.99999e-01,9.99974e-01,4.16520e-01,9.99999e-01
6.173157594e-01,4.23782e-01,9.99999e-01,9.99999e-01,9.99999e-01,9.99985e-01,4.23788e-01,9.99999e-01
6.204023382e-01,4.31031e-01,9.99999e-01,9.99999e-01,9.99999e-01,9.99987e-01,4.31036e-01,9.99999e-01
6.235043498e-01,4.38238e-01,9.99999e-01,9.99999e-01,9.99999e-01,9.99946e-01,4.38261e-01,9.99999e-01
6.266218716e-01,4.45338e-01,9.99999e-01,9.99999e-01,9.99999e-01,9.99724e-01,4.45461e-01,9.99997e-01
6.297549810e-01,4.52586e-01,9.99999e-01,9.99999e-01,9.99999e-01,9.99898e-01,4.52633e-01,9.99995e-01
6.329037559e-01,4.59683e-01,9.99999e-01,9.99999e-01,9.99999e-01,9.99800e-01,4.59776e-01,9.99996e-01
6.360682746e-01,4.66807e-01,9.99999e-01,9.99999e-01,9.99999e-01,9.99829e-01,4.66887e-01,9.99997e-01
6.392486160e-01,4.73860e-01,9.99999e-01,9.99999e-01,9.99999e-01,9.99779e-01,4.73964e-01,9.99998e-01
6.424448591e-01,4.80863e-01,9.99999e-01,9.99999e-01,9.99999e-01,9.99703e-01,4.81006e-01,9.99998e-01
6.456570834e-01,4.87335e-01,9.99999e-01,9.99999e-01,9.99999e-01,9.98624e-01,4.88010e-01,9.99991e-01
6.488853688e-01,4.94471e-01,9.99999e-01,9.99999e-01,9.99999e-01,9.99002e-01,4.94975e-01,9.99978e-01
6.521297956e-01,5.01379e-01,9.99999e-01,9.99999e-01,9.99999e-01,9.98982e-01,5.01898e-01,9.99982e-01
6.553904446e-01,5.08256e-01,9.99999e-01,9.99999e-01,9.99999e-01,9.98983e-01,5.08779e-01,9.99986e-01
6.586673968e-01,5.15167e-01,9.99999e-01,9.99999e-01,9.99999e-01,9.99132e-01,5.15616e-01,9.99995e-01
6.619607338e-01,5.22154e-01,9.99999e-01,9.99999e-01,9.99999e-01,9.99516e-01,5.22406e-01,9.99998e-01
6.652705375e-01,5.28996e-01,9.99999e-01,9.99999e-01,9.99999e-01,9.99709e-01,5.29150e-01,9.99999e-01
6.685968902e-01,5.35778e-01,9.99999e-01,9.99999e-01,9.99999e-01,9.99876e-01,5.35844e-01,9.99999e-01
6.719398746e-01,5.42455e-01,9.99999e-01,9.99999e-01,9.99999e-01,9.99937e-01,5.42489e-01,9.99999e-01
6.752995740e-01,5.49064e-01,9.99999e-01,9.99999e-01,9.99999e-01,9.99966e-01,5.49082e-01,9.99999e-01
6.786760719e-01,5.55595e-01,9.99999e-01,9.99999e-01,9.99999e-01,9.99950e-01,5.55623e-01,9.99999e-01
6.820694522e-01,5.62062e-01,9.99999e-01,9.99999e-01,9.99999e-01,9.99915e-01,5.62110e-01,9.99999e-01
6.854797995e-01,5.68480e-01,9.99999e-01,9.99999e-01,9.99999e-01,9.99891e-01,5.68542e-01,9.99998e-01
6.889071985e-01,5.74765e-01,9.99999e-01,9.99999e-01,9.99999e-01,9.99734e-01,5.74919e-01,9.99997e-01
6.923517345e-01,5.78729e-01,9.99999e-01,9.99999e-01,9.99999e-01,9.95701e-01,5.81239e-01,9.99979e-01
6.958134932e-01,5.86185e-01,9.99999e-01,9.99999e-01,9.99999e-01,9.97802e-01,5.87502e-01,9.99954e-01
6.992925606e-01,5.92422e-01,9.99999e-01,9.99999e-01,9.99999e-01,9.97876e-01,5.93707e-01,9.99958e-01
7.027890234e-01,5.98273e-01,9.99999e-01,9.99999e-01,9.99999e-01,9.97396e-01,5.99853e-01,9.99968e-01
7.063029686e-01,6.04603e-01,9.99999e-01,9.99999e-01,9.99999e-01,9.97809e-01,6.05939e-01,9.99983e-01
7.098344834e-01,6.10674e-01,9.99999e-01,9.99999e-01,9.99999e-01,9.97898e-01,6.11965e-01,9.99990e-01
7.133836558e-01,6.16169e-01,9.99999e-01,9.99999e-01,9.99999e-01,9.97168e-01,6.17930e-01,9.99981e-01
7.169505741e-01,6.09677e-01,9.99999e-01,9.99999e-01,9.99999e-01,9.77446e-01,6.23833e-01,9.99856e-01
7.205353270e-01,6.22651e-01,9.99999e-01,9.99999e-01,9.99999e-01,9.89094e-01,6.29675e-01,9.99746e-01
7.241380036e-01,6.26410e-01,9.99999e-01,9.99999e-01,9.99999e-01,9.85982e-01,6.35454e-01,9.99780e-01
7.277586936e-01,6.32949e-01,9.99999e-01,9.99999e-01,9.99999e-01,9.87352e-01,6.41171e-01,9.99820e-01
7.313974871e-01,6.38135e-01,9.99999e-01,9.99999e-01,9.99999e-01,9.86646e-01,6.46825e-01,9.99915e-01
7.350544745e-01,6.47622e-01,9.99999e-01,9.99999e-01,9.99999e-01,9.92680e-01,6.52415e-01,9.99970e-01
7.387297469e-01,6.54392e-01,9.99999e-01,9.99999e-01,9.99999e-01,9.94617e-01,6.57942e-01,9.99986e-01
7.424233956e-01,6.61659e-01,9.99999e-01,9.99999e-01,9.99999e-01,9.97369e-01,6.63405e-01,9.99997e-01
7.461355126e-01,6.67737e-01,9.99999e-01,9.99999e-01,9.99999e-01,9.98403e-01,6.68805e-01,9.99999e-01
7.498661902e-01,6.73640e-01,9.99999e-01,9.99999e-01,9.99999e-01,9.99258e-01,6.74140e-01,9.99999e-01
7.536155211e-01,6.79163e-01,9.99999e-01,9.99999e-01,9.99999e-01,9.99635e-01,6.79411e-01,9.99999e-01
7.573835987e-01,6.84490e-01,9.99999e-01,9.99999e-01,9.99999e-01,9.99811e-01,6.84618e-01,9.99999e-01
7.611705167e-01,6.89681e-01,9.99999e-01,9.99999e-01,9.99999e-01,9.99882e-01,6.89761e-01,9.99999e-01
7.649763693e-01,6.94789e-01,9.99999e-01,9.99999e-01,9.99999e-01,9.99926e-01,6.94840e-01,9.99999e-01
7.688012511e-01,6.99819e-01,9.99999e-01,9.99999e-01,9.99999e-01,9.99948e-01,6.99855e-01,9.99999e-01
7.726452574e-01,7.04776e-01,9.99999e-01,9.99999e-01,9.99999e-01,9.99957e-01,7.04806e-01,9.99999e-01
7.765084837e-01,7.09650e-01,9.99999e-01,9.99999e-01,9.99999e-01,9.99939e-01,7.09693e-01,9.99999e-01
7.803910261e-01,7.02087e-01,9.99999e-01,9.99999e-01,9.82854e-01,9.99739e-01,7.14516e-01,9.99999e-01
7.842929812e-01,6.69580e-01,9.99999e-01,9.99999e-01,9.31734e-01,9.99091e-01,7.19276e-01,9.99997e-01
7.882144461e-01,6.69444e-01,9.99999e-01,9.99999e-01,9.26378e-01,9.98143e-01,7.23973e-01,9.99986e-01
7.921555184e-01,6.96606e-01,9.99999e-01,9.99999e-01,9.57058e-01,9.98986e-01,7.28607e-01,9.99977e-01
7.961162960e-01,7.10866e-01,9.99999e-01,9.99999e-01,9.71337e-01,9.98190e-01,7.33178e-01,9.99978e-01
8.000968774e-01,7.24612e-01,9.99999e-01,9.99999e-01,9.84340e-01,9.97921e-01,7.37686e-01,9.99977e-01
8.040973618e-01,7.34573e-01,9.99999e-01,9.99999e-01,9.91892e-01,9.97917e-01,7.42133e-01,9.99982e-01
8.081178486e-01,7.40205e-01,9.99999e-01,9.99999e-01,9.96258e-01,9.95281e-01,7.46517e-01,9.99982e-01
8.121584379e-01,7.35276e-01,9.99999e-01,9.99999e-01,9.98853e-01,9.80453e-01,7.50841e-01,9.99934e-01
8.162192301e-01,7.37377e-01,9.99999e-01,9.99999e-01,9.99746e-01,9.77010e-01,7.55103e-01,9.99753e-01
8.203003262e-01,7.50153e-01,9.99999e-01,9.99999e-01,9.99996e-01,9.88235e-01,7.59304e-01,9.99711e-01
8.244018279e-01,7.50991e-01,9.99999e-01,9.99999e-01,9.99999e-01,9.83912e-01,7.63445e-01,9.99770e-01
8.285238370e-01,7.56775e-01,9.99999e-01,9.99999e-01,9.99999e-01,9.86170e-01,7.67526e-01,9.99819e-01
8.326664562e-01,7.60738e-01,9.99999e-01,9.99999e-01,9.99999e-01,9.86062e-01,7.71548e-01,9.99924e-01
8.368297885e-01,7.67790e-01,9.99999e-01,9.99999e-01,9.99999e-01,9.90060e-01,7.75510e-01,9.99982e-01
8.410139374e-01,7.74801e-01,9.99999e-01,9.99999e-01,9.99999e-01,9.94089e-01,7.79415e-01,9.99989e-01
8.452190071e-01,7.80987e-01,9.99999e-01,9.99999e-01,9.99999e-01,9.97102e-01,7.83261e-01,9.99993e-01
8.494451021e-01,7.85719e-01,9.99999e-01,9.99999e-01,9.99999e-01,9.98313e-01,7.87049e-01,9.99994e-01
8.536923276e-01,7.89992e-01,9.99999e-01,9.99999e-01,9.99999e-01,9.99005e-01,7.90781e-01,9.99996e-01
8.579607893e-01,7.93968e-01,9.99999e-01,9.99999e-01,9.99999e-01,9.99385e-01,7.94456e-01,9.99998e-01
8.622505932e-01,7.97764e-01,9.99999e-01,9.99999e-01,9.99999e-01,9.99610e-01,7.98075e-01,9.99999e-01
8.665618462e-01,7.64933e-01,9.99999e-01,9.99999e-01,9.54436e-01,9.99758e-01,8.01639e-01,9.99999e-01
8.708946554e-01,6.70106e-01,9.99999e-01,9.99999e-01,8.32504e-01,9.99722e-01,8.05147e-01,9.99999e-01
8.752491287e-01,6.99074e-01,9.99999e-01,9.99999e-01,8.64862e-01,9.99629e-01,8.08601e-01,9.99999e-01
8.796253743e-01,7.50103e-01,9.99999e-01,9.99999e-01,9.24240e-01,9.99485e-01,8.12002e-01,9.99998e-01
8.840235012e-01,7.82423e-01,9.99999e-01,9.99999e-01,9.60180e-01,9.99412e-01,8.15349e-01,9.99995e-01
8.884436187e-01,8.03961e-01,9.99999e-01,9.99999e-01,9.84208e-01,9.97822e-01,8.18643e-01,9.99989e-01
8.928858368e-01,7.98148e-01,9.99999e-01,9.99999e-01,9.93566e-01,9.77438e-01,8.21885e-01,9.99941e-01
8.973502660e-01,7.91168e-01,9.99999e-01,9.99999e-01,9.98442e-01,9.60672e-01,8.25076e-01,9.99699e-01
9.018370173e-01,8.11021e-01,9.99999e-01,9.99999e-01,9.99828e-01,9.79865e-01,8.28215e-01,9.99528e-01
9.063462024e-01,8.12370e-01,9.99999e-01,9.99999e-01,9.95448e-01,9.82031e-01,8.31304e-01,9.99585e-01
9.108779334e-01,8.02633e-01,9.99999e-01,9.99999e-01,9.89835e-01,9.72231e-01,8.34344e-01,9.99569e-01
9.154323231e-01,8.08851e-01,9.99999e-01,9.99999e-01,9.97628e-01,9.68600e-01,8.37334e-01,9.99644e-01
9.200094847e-01,7.90374e-01,9.99999e-01,9.99999e-01,9.63954e-01,9.75354e-01,8.40275e-01,9.99800e-01
9.246095321e-01,7.70475e-01,9.99999e-01,9.99999e-01,9.51093e-01,9.60548e-01,8.43169e-01,9.99770e-01
9.292325798e-01,6.21991e-01,9.99999e-01,9.99999e-01,9.60903e-01,7.64224e-01,8.46015e-01,9.98893e-01
9.338787427e-01,5.77261e-01,9.99999e-01,9.99999e-01,9.62654e-01,7.07759e-01,8.48813e-01,9.96007e-01
9.385481364e-01,7.18357e-01,9.99999e-01,9.99999e-01,9.72472e-01,8.70564e-01,8.51566e-01,9.95614e-01
9.432408771e-01,6.87296e-01,9.99999e-01,9.99999e-01,9.83122e-01,8.21058e-01,8.54273e-01,9.96215e-01
9.479570815e-01,6.42786e-01,9.99999e-01,9.99999e-01,9.91293e-01,7.58825e-01,8.56935e-01,9.96918e-01
9.526968669e-01,6.98194e-01,9.99999e-01,9.99999e-01,9.95800e-01,8.17075e-01,8.59552e-01,9.98119e-01
9.574603512e-01,7.16430e-01,9.99999e-01,9.99999e-01,9.98204e-01,8.33246e-01,8.62126e-01,9.99043e-01
9.622476530e-01,7.45288e-01,9.99999e-01,9.99999e-01,9.99439e-01,8.62986e-01,8.64656e-01,9.99338e-01
9.670588912e-01,7.96117e-01,9.99999e-01,9.99999e-01,9.99832e-01,9.18656e-01,8.67143e-01,9.99547e-01
9.718941857e-01,8.24586e-01,9.99999e-01,9.99999e-01,9.99987e-01,9.48574e-01,8.69588e-01,9.99666e-01
9.767536566e-01,8.34397e-01,9.99999e-01,9.99999e-01,9.99999e-01,9.57129e-01,8.71992e-01,9.99745e-01
9.816374249e-01,8.46441e-01,9.99999e-01,9.99999e-01,9.99999e-01,9.68160e-01,8.74354e-01,9.99911e-01
9.865456120e-01,8.59137e-01,9.99999e-01,9.99999e-01,9.99999e-01,9.80011e-01,8.76676e-01,9.99981e-01
9.914783401e-01,8.68056e-01,9.99999e-01,9.99999e-01,9.99999e-01,9.87600e-01,8.78958e-01,9.99994e-01
9.964357318e-01,8.75235e-01,9.99999e-01,9.99999e-01,9.99999e-01,9.93231e-01,8.81201e-01,9.99996e-01
1.001417910e+00,8.79816e-01,9.99999e-01,9.99999e-01,9.99999e-01,9.95941e-01,8.83405e-01,9.99994e-01
1.006425000e+00,8.83511e-01,9.99999e-01,9.99999e-01,9.99999e-01,9.97680e-01,8.85571e-01,9.99993e-01
1.011457125e+00,8.86419e-01,9.99999e-01,9.99999e-01,9.99999e-01,9.98563e-01,8.87699e-01,9.99993e-01
1.016514411e+00,8.88918e-01,9.99999e-01,9.99999e-01,9.99999e-01,9.99023e-01,8.89790e-01,9.99995e-01
1.021596983e+00,8.91123e-01,9.99999e-01,9.99999e-01,9.99972e-01,9.99220e-01,8.91845e-01,9.99995e-01
1.026704968e+00,8.91732e-01,9.99999e-01,9.99999e-01,9.98223e-01,9.99392e-01,8.93864e-01,9.99996e-01
1.031838492e+00,8.70433e-01,9.99999e-01,9.99999e-01,9.72050e-01,9.99558e-01,8.95847e-01,9.99998e-01
1.036997685e+00,2.66031e-01,9.99999e-01,9.99999e-01,2.96382e-01,9.99737e-01,8.97795e-01,9.99999e-01
1.042182673e+00,3.22405e-01,9.99999e-01,9.99999e-01,3.58449e-01,9.99685e-01,8.99709e-01,9.99999e-01
1.047393587e+00,2.94114e-01,9.99999e-01,9.99999e-01,3.26341e-01,9.99584e-01,9.01589e-01,9.99999e-01
1.052630555e+00,4.80109e-02,9.99999e-01,9.99999e-01,5.31667e-02,9.99429e-01,9.03436e-01,9.99999e-01
1.057893707e+00,8.97426e-02,9.99999e-01,9.99999e-01,9.92108e-02,9.99045e-01,9.05250e-01,9.99999e-01
1.063183176e+00,1.69862e-01,9.99999e-01,9.99999e-01,1.87513e-01,9.98431e-01,9.07032e-01,9.99998e-01
1.068499092e+00,2.96409e-01,9.99999e-01,9.99999e-01,3.26944e-01,9.97376e-01,9.08781e-01,9.99997e-01
1.073841587e+00,4.49783e-01,9.99999e-01,9.99999e-01,4.95392e-01,9.96924e-01,9.10500e-01,9.99995e-01
