#,Wave/freq,Total,N2,O2,CO2,H2O,Rayleigh,CIA
4.000000000e-01,1.52892e-04,9.99999e-01,9.99999e-01,9.99999e-01,9.99982e-01,1.52895e-04,9.99999e-01
4.020000000e-01,1.81900e-04,9.99999e-01,9.99999e-01,9.99999e-01,9.99989e-01,1.81902e-04,9.99999e-01
4.040100000e-01,2.15632e-04,9.99999e-01,9.99999e-01,9.99999e-01,9.99995e-01,2.15633e-04,9.99999e-01
4.060300500e-01,2.54761e-04,9.99999e-01,9.99999e-01,9.99999e-01,9.99998e-01,2.54761e-04,9.99999e-01
4.080602003e-01,3.00000e-04,9.99999e-01,9.99999e-01,9.99999e-01,9.99999e-01,3.00000e-04,9.99999e-01
4.101005013e-01,3.52133e-04,9.99999e-01,9.99999e-01,9.99999e-01,9.99999e-01,3.52133e-04,9.99999e-01
4.121510038e-01,4.12019e-04,9.99999e-01,9.99999e-01,9.99999e-01,9.99998e-01,4.12019e-04,9.99999e-01
4.142117588e-01,4.80595e-04,9.99999e-01,9.99999e-01,9.99999e-01,9.99994e-01,4.80597e-04,9.99999e-01
4.162828176e-01,5.58876e-04,9.99999e-01,9.99999e-01,9.99999e-01,9.99978e-01,5.58887e-04,9.99999e-01
4.183642317e-01,6.47988e-04,9.99999e-01,9.99999e-01,9.99999e-01,9.99987e-01,6.47996e-04,9.99999e-01
4.204560528e-01,7.49115e-04,9.99999e-01,9.99999e-01,9.99999e-01,9.99991e-01,7.49121e-04,9.99999e-01
4.225583331e-01,8.63547e-04,9.99999e-01,9.99999e-01,9.99999e-01,9.99996e-01,8.63550e-04,9.99999e-01
4.246711247e-01,9.92664e-04,9.99999e-01,9.99999e-01,9.99999e-01,9.99997e-01,9.92666e-04,9.99999e-01
4.267944804e-01,1.13795e-03,9.99999e-01,9.99999e-01,9.99999e-01,9.99996e-01,1.13795e-03,9.99999e-01
4.289284528e-01,1.30098e-03,9.99999e-01,9.99999e-01,9.99999e-01,9.99996e-01,1.30099e-03,9.99999e-01
4.310730950e-01,1.48345e-03,9.99999e-01,9.99999e-01,9.99999e-01,9.99998e-01,1.48345e-03,9.99999e-01
4.332284605e-01,1.68712e-03,9.99999e-01,9.99999e-01,9.99999e-01,9.99999e-01,1.68713e-03,9.99999e-01
4.353946028e-01,1.91389e-03,9.99999e-01,9.99999e-01,9.99999e-01,9.99999e-01,1.91389e-03,9.99999e-01
4.375715758e-01,2.16574e-03,9.99999e-01,9.99999e-01,9.99999e-01,9.99997e-01,2.16574e-03,9.99999e-01
4.397594337e-01,2.44471e-03,9.99999e-01,9.99999e-01,9.99999e-01,9.99981e-01,2.44475e-03,9.99999e-01
4.419582309e-01,2.75286e-03,9.99999e-01,9.99999e-01,9.99999e-01,9.99906e-01,2.75311e-03,9.99999e-01
4.441680220e-01,3.09287e-03,9.99999e-01,9.99999e-01,9.99999e-01,9.99926e-01,3.09310e-03,9.99999e-01
4.463888621e-01,3.46682e-03,9.99999e-01,9.99999e-01,9.99999e-01,9.99923e-01,3.46709e-03,9.99999e-01
4.486208064e-01,3.87736e-03,9.99999e-01,9.99999e-01,9.99999e-01,9.99952e-01,3.87754e-03,9.99999e-01
4.508639105e-01,4.32692e-03,9.99999e-01,9.99999e-01,9.99999e-01,9.99977e-01,4.32702e-03,9.99999e-01
4.531182300e-01,4.81810e-03,9.99999e-01,9.99999e-01,9.99999e-01,9.99990e-01,4.81814e-03,9.99999e-01
4.553838212e-01,5.35360e-03,9.99999e-01,9.99999e-01,9.99999e-01,9.99993e-01,5.35363e-03,9.99999e-01
4.576607403e-01,5.93625e-03,9.99999e-01,9.99999e-01,9.99999e-01,9.99996e-01,5.93627e-03,9.99999e-01
4.599490440e-01,6.56888e-03,9.99999e-01,9.99999e-01,9.99999e-01,9.99997e-01,6.56889e-03,9.99999e-01
4.622487892e-01,7.25440e-03,9.99999e-01,9.99999e-01,9.99999e-01,9.99999e-01,7.25441e-03,9.99999e-01
4.645600332e-01,7.99576e-03,9.99999e-01,9.99999e-01,9.99999e-01,9.99998e-01,7.99577e-03,9.99999e-01
4.668828333e-01,8.79578e-03,9.99999e-01,9.99999e-01,9.99999e-01,9.99977e-01,8.79597e-03,9.99999e-01
4.692172475e-01,9.65759e-03,9.99999e-01,9.99999e-01,9.99999e-01,9.99951e-01,9.65805e-03,9.99999e-01
4.715633337e-01,1.05847e-02,9.99999e-01,9.99999e-01,9.99999e-01,9.99968e-01,1.05850e-02,9.99999e-01
4.739211504e-01,1.15797e-02,9.99999e-01,9.99999e-01,9.99999e-01,9.99969e-01,1.15800e-02,9.99999e-01
4.762907561e-01,1.26459e-02,9.99999e-01,9.99999e-01,9.99999e-01,9.99984e-01,1.26461e-02,9.99999e-01
4.786722099e-01,1.37862e-02,9.99999e-01,9.99999e-01,9.99999e-01,9.99993e-01,1.37863e-02,9.99999e-01
4.810655710e-01,1.50037e-02,9.99999e-01,9.99999e-01,9.99999e-01,9.99997e-01,1.50037e-02,9.99999e-01
4.834708988e-01,1.63010e-02,9.99999e-01,9.99999e-01,9.99999e-01,9.99981e-01,1.63013e-02,9.99999e-01
4.858882533e-01,1.76816e-02,9.99999e-01,9.99999e-01,9.99999e-01,9.99965e-01,1.76822e-02,9.99999e-01
4.883176946e-01,1.91487e-02,9.99999e-01,9.99999e-01,9.99999e-01,9.99971e-01,1.91492e-02,9.99999e-01
4.907592831e-01,2.07048e-02,9.99999e-01,9.99999e-01,9.99999e-01,9.99974e-01,2.07054e-02,9.99999e-01
4.932130795e-01,2.23530e-02,9.99999e-01,9.99999e-01,9.99999e-01,9.99981e-01,2.23534e-02,9.99999e-01
4.956791449e-01,2.40960e-02,9.99999e-01,9.99999e-01,9.99999e-01,9.99989e-01,2.40962e-02,9.99999e-01
4.981575406e-01,2.59352e-02,9.99999e-01,9.99999e-01,9.99999e-01,9.99951e-01,2.59364e-02,9.99999e-01
5.006483283e-01,2.78731e-02,9.99999e-01,9.99999e-01,9.99999e-01,9.99875e-01,2.78765e-02,9.99998e-01
5.031515699e-01,2.99001e-02,9.99999e-01,9.99999e-01,9.99999e-01,9.99370e-01,2.99191e-02,9.99992e-01
5.056673278e-01,3.20557e-02,9.99999e-01,9.99999e-01,9.99999e-01,9.99667e-01,3.20666e-02,9.99991e-01
5.081956644e-01,3.43066e-02,9.99999e-01,9.99999e-01,9.99999e-01,9.99581e-01,3.43212e-02,9.99994e-01
5.107366428e-01,3.66746e-02,9.99999e-01,9.99999e-01,9.99999e-01,9.99716e-01,3.66850e-02,9.99998e-01
5.132903260e-01,3.91537e-02,9.99999e-01,9.99999e-01,9.99999e-01,9.99838e-01,3.91601e-02,9.99999e-01
5.158567776e-01,4.17454e-02,9.99999e-01,9.99999e-01,9.99999e-01,9.99931e-01,4.17482e-02,9.99999e-01
5.184360615e-01,4.44500e-02,9.99999e-01,9.99999e-01,9.99999e-01,9.99972e-01,4.44512e-02,9.99999e-01
5.210282418e-01,4.72702e-02,9.99999e-01,9.99999e-01,9.99999e-01,9.99989e-01,4.72706e-02,9.99999e-01
5.236333830e-01,5.02058e-02,9.99999e-01,9.99999e-01,9.99999e-01,9.99958e-01,5.02079e-02,9.99999e-01
5.262515499e-01,5.32627e-02,9.99999e-01,9.99999e-01,9.99999e-01,9.99973e-01,5.32641e-02,9.99999e-01
5.288828077e-01,5.64391e-02,9.99999e-01,9.99999e-01,9.99999e-01,9.99976e-01,5.64405e-02,9.99999e-01
5.315272217e-01,5.97366e-02,9.99999e-01,9.99999e-01,9.99999e-01,9.99978e-01,5.97379e-02,9.99999e-01
5.341848578e-01,6.31562e-02,9.99999e-01,9.99999e-01,9.99999e-01,9.99986e-01,6.31571e-02,9.99999e-01
5.368557821e-01,6.66954e-02,9.99999e-01,9.99999e-01,9.99999e-01,9.99951e-01,6.66986e-02,9.99999e-01
5.395400610e-01,7.03506e-02,9.99999e-01,9.99999e-01,9.99999e-01,9.99827e-01,7.03628e-02,9.99998e-01
5.422377613e-01,7.41332e-02,9.99999e-01,9.99999e-01,9.99999e-01,9.99777e-01,7.41500e-02,9.99995e-01
5.449489501e-01,7.80436e-02,9.99999e-01,9.99999e-01,9.99999e-01,9.99792e-01,7.80601e-02,9.99995e-01
5.476736949e-01,8.20778e-02,9.99999e-01,9.99999e-01,9.99999e-01,9.99816e-01,8.20930e-02,9.99997e-01
5.504120634e-01,8.62370e-02,9.99999e-01,9.99999e-01,9.99999e-01,9.99866e-01,8.62485e-02,9.99998e-01
5.531641237e-01,9.05199e-02,9.99999e-01,9.99999e-01,9.99999e-01,9.99932e-01,9.05259e-02,9.99999e-01
5.559299443e-01,9.49217e-02,9.99999e-01,9.99999e-01,9.99999e-01,9.99967e-01,9.49247e-02,9.99999e-01
5.587095940e-01,9.94420e-02,9.99999e-01,9.99999e-01,9.99999e-01,9.99979e-01,9.94440e-02,9.99999e-01
5.615031420e-01,1.04080e-01,9.99999e-01,9.99999e-01,9.99999e-01,9.99976e-01,1.04083e-01,9.99999e-01
5.643106577e-01,1.08837e-01,9.99999e-01,9.99999e-01,9.99999e-01,9.99973e-01,1.08840e-01,9.99999e-01
5.671322110e-01,1.13678e-01,9.99999e-01,9.99999e-01,9.99999e-01,9.99688e-01,1.13714e-01,9.99996e-01
5.699678720e-01,1.18663e-01,9.99999e-01,9.99999e-01,9.99999e-01,9.99668e-01,1.18704e-01,9.99991e-01
5.728177114e-01,1.23764e-01,9.99999e-01,9.99999e-01,9.99999e-01,9.99655e-01,1.23807e-01,9.99992e-01
5.756818000e-01,1.28981e-01,9.99999e-01,9.99999e-01,9.99999e-01,9.99683e-01,1.29023e-01,9.99995e-01
5.785602090e-01,1.34311e-01,9.99999e-01,9.99999e-01,9.99999e-01,9.99724e-01,1.34348e-01,9.99998e-01
5.814530100e-01,1.39744e-01,9.99999e-01,9.99999e-01,9.99999e-01,9.99723e-01,1.39782e-01,9.99998e-01
5.843602750e-01,1.45274e-01,9.99999e-01,9.99999e-01,9.99999e-01,9.99669e-01,1.45322e-01,9.99997e-01
5.872820764e-01,1.50534e-01,9.99999e-01,9.99999e-01,9.99999e-01,9.97158e-01,1.50965e-01,9.99979e-01
5.902184868e-01,1.56162e-01,9.99999e-01,9.99999e-01,9.99999e-01,9.96557e-01,1.56710e-01,9.99945e-01
5.931695792e-01,1.62149e-01,9.99999e-01,9.99999e-01,9.99999e-01,9.97567e-01,1.62553e-01,9.99947e-01
5.961354271e-01,1.68038e-01,9.99999e-01,9.99999e-01,9.99999e-01,9.97333e-01,1.68492e-01,9.99969e-01
5.991161043e-01,1.74184e-01,9.99999e-01,9.99999e-01,9.99999e-01,9.98055e-01,1.74525e-01,9.99990e-01
6.021116848e-01,1.80448e-01,9.99999e-01,9.99999e-01,9.99999e-01,9.98895e-01,1.80648e-01,9.99998e-01
6.051222432e-01,1.86754e-01,9.99999e-01,9.99999e-01,9.99999e-01,9.99441e-01,1.86858e-01,9.99999e-01
6.081478544e-01,1.93106e-01,9.99999e-01,9.99999e-01,9.99999e-01,9.99758e-01,1.93153e-01,9.99999e-01
6.111885937e-01,1.99509e-01,9.99999e-01,9.99999e-01,9.99999e-01,9.99897e-01,1.99529e-01,9.99999e-01
6.142445367e-01,2.05974e-01,9.99999e-01,9.99999e-01,9.99999e-01,9.99954e-01,2.05984e-01,9.99999e-01
6.173157594e-01,2.12508e-01,9.99999e-01,9.99999e-01,9.99999e-01,9.99974e-01,2.12514e-01,9.99999e-01
6.204023382e-01,2.19111e-01,9.99999e-01,9.99999e-01,9.99999e-01,9.99978e-01,2.19115e-01,9.99999e-01
6.235043498e-01,2.25764e-01,9.99999e-01,9.99999e-01,9.99999e-01,9.99906e-01,2.25785e-01,9.99999e-01
6.266218716e-01,2.32405e-01,9.99999e-01,9.99999e-01,9.99999e-01,9.99504e-01,2.32521e-01,9.99996e-01
6.297549810e-01,2.39273e-01,9.99999e-01,9.99999e-01,9.99999e-01,9.99817e-01,2.39318e-01,9.99992e-01
6.329037559e-01,2.46084e-01,9.99999e-01,9.99999e-01,9.99999e-01,9.99640e-01,2.46174e-01,9.99993e-01
6.360682746e-01,2.53007e-01,9.99999e-01,9.99999e-01,9.99999e-01,9.99693e-01,2.53085e-01,9.99996e-01
6.392486160e-01,2.59945e-01,9.99999e-01,9.99999e-01,9.99999e-01,9.99603e-01,2.60048e-01,9.99998e-01
6.424448591e-01,2.66917e-01,9.99999e-01,9.99999e-01,9.99999e-01,9.99469e-01,2.67060e-01,9.99997e-01
6.456570834e-01,2.73438e-01,9.99999e-01,9.99999e-01,9.99999e-01,9.97538e-01,2.74116e-01,9.99985e-01
6.488853688e-01,2.80696e-01,9.99999e-01,9.99999e-01,9.99999e-01,9.98196e-01,2.81214e-01,9.99961e-01
6.521297956e-01,2.87810e-01,9.99999e-01,9.99999e-01,9.99999e-01,9.98161e-01,2.88349e-01,9.99968e-01
6.553904446e-01,2.94973e-01,9.99999e-01,9.99999e-01,9.99999e-01,9.98171e-01,2.95520e-01,9.99976e-01
6.586673968e-01,3.02246e-01,9.99999e-01,9.99999e-01,9.99999e-01,9.98433e-01,3.02722e-01,9.99991e-01
6.619607338e-01,3.09671e-01,9.99999e-01,9.99999e-01,9.99999e-01,9.99094e-01,3.09952e-01,9.99997e-01
6.652705375e-01,3.17041e-01,9.99999e-01,9.99999e-01,9.99999e-01,9.99475e-01,3.17207e-01,9.99998e-01
6.685968902e-01,3.24405e-01,9.99999e-01,9.99999e-01,9.99999e-01,9.99756e-01,3.24484e-01,9.99999e-01
6.719398746e-01,3.31741e-01,9.99999e-01,9.99999e-01,9.99999e-01,9.99886e-01,3.31778e-01,9.99999e-01
6.752995740e-01,3.39067e-01,9.99999e-01,9.99999e-01,9.99999e-01,9.99938e-01,3.39088e-01,9.99999e-01
6.786760719e-01,3.46379e-01,9.99999e-01,9.99999e-01,9.99999e-01,9.99911e-01,3.46410e-01,9.99999e-01
6.820694522e-01,3.53686e-01,9.99999e-01,9.99999e-01,9.99999e-01,9.99848e-01,3.53740e-01,9.99998e-01
6.854797995e-01,3.61005e-01,9.99999e-01,9.99999e-01,9.99999e-01,9.99804e-01,3.61076e-01,9.99997e-01
6.889071985e-01,3.68240e-01,9.99999e-01,9.99999e-01,9.99999e-01,9.99528e-01,3.68415e-01,9.99995e-01
6.923517345e-01,3.72850e-01,9.99999e-01,9.99999e-01,9.99999e-01,9.92309e-01,3.75754e-01,9.99962e-01
6.958134932e-01,3.81523e-01,9.99999e-01,9.99999e-01,9.99999e-01,9.95992e-01,3.83089e-01,9.99917e-01
6.992925606e-01,3.88905e-01,9.99999e-01,9.99999e-01,9.99999e-01,9.96195e-01,3.90419e-01,9.99925e-01
7.027890234e-01,3.95849e-01,9.99999e-01,9.99999e-01,9.99999e-01,9.95302e-01,3.97740e-01,9.99943e-01
7.063029686e-01,4.03439e-01,9.99999e-01,9.99999e-01,9.99999e-01,9.96050e-01,4.05049e-01,9.99971e-01
7.098344834e-01,4.10776e-01,9.99999e-01,9.99999e-01,9.99999e-01,9.96210e-01,4.12345e-01,9.99982e-01
7.133836558e-01,4.17492e-01,9.99999e-01,9.99999e-01,9.99999e-01,9.94952e-01,4.19624e-01,9.99966e-01
7.169505741e-01,4.09693e-01,9.99999e-01,9.99999e-01,9.99999e-01,9.59976e-01,4.26884e-01,9.99740e-01
7.205353270e-01,4.25341e-01,9.99999e-01,9.99999e-01,9.99999e-01,9.80220e-01,4.34122e-01,9.99543e-01
7.241380036e-01,4.30116e-01,9.99999e-01,9.99999e-01,9.99999e-01,9.74958e-01,4.41336e-01,9.99605e-01
7.277586936e-01,4.38236e-01,9.99999e-01,9.99999e-01,9.99999e-01,9.77374e-01,4.48525e-01,9.99677e-01
7.313974871e-01,4.44666e-01,9.99999e-01,9.99999e-01,9.99999e-01,9.75966e-01,4.55685e-01,9.99848e-01
7.350544745e-01,4.56687e-01,9.99999e-01,9.99999e-01,9.99999e-01,9.86811e-01,4.62814e-01,9.99947e-01
7.387297469e-01,4.65334e-01,9.99999e-01,9.99999e-01,9.99999e-01,9.90283e-01,4.69911e-01,9.99975e-01
7.424233956e-01,4.74700e-01,9.99999e-01,9.99999e-01,9.99999e-01,9.95236e-01,4.76974e-01,9.99994e-01
7.461355126e-01,4.82601e-01,9.99999e-01,9.99999e-01,9.99999e-01,9.97111e-01,4.83999e-01,9.99998e-01
7.498661902e-01,4.90326e-01,9.99999e-01,9.99999e-01,9.99999e-01,9.98654e-01,4.90987e-01,9.99999e-01
7.536155211e-01,4.97606e-01,9.99999e-01,9.99999e-01,9.99999e-01,9.99339e-01,4.97934e-01,9.99999e-01
7.573835987e-01,5.04668e-01,9.99999e-01,9.99999e-01,9.99999e-01,9.99659e-01,5.04840e-01,9.99999e-01
7.611705167e-01,5.11594e-01,9.99999e-01,9.99999e-01,9.99999e-01,9.99788e-01,5.11702e-01,9.99999e-01
7.649763693e-01,5.18450e-01,9.99999e-01,9.99999e-01,9.99999e-01,9.99867e-01,5.18519e-01,9.99999e-01
7.688012511e-01,5.25241e-01,9.99999e-01,9.99999e-01,9.99999e-01,9.99907e-01,5.25290e-01,9.99999e-01
7.726452574e-01,5.31972e-01,9.99999e-01,9.99999e-01,9.99999e-01,9.99923e-01,5.32012e-01,9.99999e-01
7.765084837e-01,5.38628e-01,9.99999e-01,9.99999e-01,9.99999e-01,9.99891e-01,5.38686e-01,9.99999e-01
7.803910261e-01,5.29487e-01,9.99999e-01,9.99999e-01,9.71425e-01,9.99534e-01,5.45308e-01,9.99999e-01
7.842929812e-01,4.85474e-01,9.99999e-01,9.99999e-01,8.81048e-01,9.98375e-01,5.51879e-01,9.99996e-01
7.882144461e-01,4.85919e-01,9.99999e-01,9.99999e-01,8.73044e-01,9.96654e-01,5.58397e-01,9.99979e-01
7.921555184e-01,5.21111e-01,9.99999e-01,9.99999e-01,9.24247e-01,9.98164e-01,5.64861e-01,9.99959e-01
7.961162960e-01,5.40188e-01,9.99999e-01,9.99999e-01,9.48679e-01,9.96757e-01,5.71270e-01,9.99961e-01
8.000968774e-01,5.59248e-01,9.99999e-01,9.99999e-01,9.71856e-01,9.96255e-01,5.77623e-01,9.99959e-01
8.040973618e-01,5.73181e-01,9.99999e-01,9.99999e-01,9.85325e-01,9.96254e-01,5.83919e-01,9.99967e-01
8.081178486e-01,5.81214e-01,9.99999e-01,9.99999e-01,9.93238e-01,9.91570e-01,5.90157e-01,9.99969e-01
8.121584379e-01,5.74359e-01,9.99999e-01,9.99999e-01,9.97907e-01,9.65261e-01,5.96337e-01,9.99881e-01
8.162192301e-01,5.77151e-01,9.99999e-01,9.99999e-01,9.99537e-01,9.58856e-01,6.02457e-01,9.99555e-01
8.203003262e-01,5.95580e-01,9.99999e-01,9.99999e-01,9.99992e-01,9.79254e-01,6.08518e-01,9.99479e-01
8.244018279e-01,5.96486e-01,9.99999e-01,9.99999e-01,9.99999e-01,9.71058e-01,6.14518e-01,9.99585e-01
8.285238370e-01,6.04919e-01,9.99999e-01,9.99999e-01,9.99999e-01,9.75275e-01,6.20457e-01,9.99674e-01
8.326664562e-01,6.10593e-01,9.99999e-01,9.99999e-01,9.99999e-01,9.74998e-01,6.26334e-01,9.99865e-01
8.368297885e-01,6.20813e-01,9.99999e-01,9.99999e-01,9.99999e-01,9.82097e-01,6.32149e-01,9.99968e-01
8.410139374e-01,6.31085e-01,9.99999e-01,9.99999e-01,9.99999e-01,9.89330e-01,6.37902e-01,9.99981e-01
8.452190071e-01,6.40211e-01,9.99999e-01,9.99999e-01,9.99999e-01,9.94757e-01,6.43591e-01,9.99988e-01
8.494451021e-01,6.47237e-01,9.99999e-01,9.99999e-01,9.99999e-01,9.96956e-01,6.49218e-01,9.99990e-01
8.536923276e-01,6.53599e-01,9.99999e-01,9.99999e-01,9.99999e-01,9.98199e-01,6.54782e-01,9.99994e-01
8.579607893e-01,6.59548e-01,9.99999e-01,9.99999e-01,9.99999e-01,9.98890e-01,6.60281e-01,9.99998e-01
8.622505932e-01,6.65248e-01,9.99999e-01,9.99999e-01,9.99999e-01,9.99295e-01,6.65717e-01,9.99999e-01
8.665618462e-01,6.26147e-01,9.99999e-01,9.99999e-01,9.33422e-01,9.99563e-01,6.71089e-01,9.99999e-01
8.708946554e-01,4.89392e-01,9.99999e-01,9.99999e-01,7.23878e-01,9.99500e-01,6.76397e-01,9.99999e-01
8.752491287e-01,5.25592e-01,9.99999e-01,9.99999e-01,7.71570e-01,9.99332e-01,6.81641e-01,9.99998e-01
8.796253743e-01,5.95375e-01,9.99999e-01,9.99999e-01,8.67639e-01,9.99075e-01,6.86821e-01,9.99997e-01
8.840235012e-01,6.42234e-01,9.99999e-01,9.99999e-01,9.29143e-01,9.98944e-01,6.91936e-01,9.99993e-01
8.884436187e-01,6.74508e-01,9.99999e-01,9.99999e-01,9.71474e-01,9.96151e-01,6.96988e-01,9.99981e-01
8.928858368e-01,6.66075e-01,9.99999e-01,9.99999e-01,9.88352e-01,9.60060e-01,7.01975e-01,9.99894e-01
8.973502660e-01,6.55468e-01,9.99999e-01,9.99999e-01,9.97159e-01,9.30342e-01,7.06899e-01,9.99459e-01
9.018370173e-01,6.85206e-01,9.99999e-01,9.99999e-01,9.99686e-01,9.63806e-01,7.11759e-01,9.99150e-01
9.063462024e-01,6.87768e-01,9.99999e-01,9.99999e-01,9.91969e-01,9.68114e-01,7.16555e-01,9.99253e-01
9.108779334e-01,6.72771e-01,9.99999e-01,9.99999e-01,9.81676e-01,9.50701e-01,7.21288e-01,9.99224e-01
9.154323231e-01,6.82104e-01,9.99999e-01,9.99999e-01,9.95670e-01,9.44208e-01,7.25958e-01,9.99358e-01
9.200094847e-01,6.56329e-01,9.99999e-01,9.99999e-01,9.38181e-01,9.56014e-01,7.30565e-01,9.99640e-01
9.246095321e-01,6.26305e-01,9.99999e-01,9.99999e-01,9.13408e-01,9.31847e-01,7.35109e-01,9.99586e-01
9.292325798e-01,4.31274e-01,9.99999e-01,9.99999e-01,9.31386e-01,6.23016e-01,7.39591e-01,9.98388e-01
9.338787427e-01,3.76954e-01,9.99999e-01,9.99999e-01,9.33653e-01,5.42818e-01,7.44011e-01,9.93357e-01
9.385481364e-01,5.53243e-01,9.99999e-01,9.99999e-01,9.50846e-01,7.81712e-01,7.48370e-01,9.92104e-01
9.432408771e-01,5.14937e-01,9.99999e-01,9.99999e-01,9.69633e-01,7.09374e-01,7.52667e-01,9.93184e-01
9.479570815e-01,4.61518e-01,9.99999e-01,9.99999e-01,9.84308e-01,6.22455e-01,7.56903e-01,9.94449e-01
9.526968669e-01,5.28229e-01,9.99999e-01,9.99999e-01,9.92403e-01,7.01331e-01,7.61078e-01,9.96610e-01
9.574603512e-01,5.50117e-01,9.99999e-01,9.99999e-01,9.96745e-01,7.22384e-01,7.65194e-01,9.98276e-01
9.622476530e-01,5.89243e-01,9.99999e-01,9.99999e-01,9.98983e-01,7.67651e-01,7.69249e-01,9.98807e-01
9.670588912e-01,6.63273e-01,9.99999e-01,9.99999e-01,9.99695e-01,8.58726e-01,7.73246e-01,9.99184e-01
9.718941857e-01,7.06263e-01,9.99999e-01,9.99999e-01,9.99978e-01,9.09310e-01,7.77184e-01,9.99399e-01
9.767536566e-01,7.21473e-01,9.99999e-01,9.99999e-01,9.99999e-01,9.24129e-01,7.81063e-01,9.99540e-01
9.816374249e-01,7.40206e-01,9.99999e-01,9.99999e-01,9.99999e-01,9.43226e-01,7.84884e-01,9.99840e-01
9.865456120e-01,7.60356e-01,9.99999e-01,9.99999e-01,9.99999e-01,9.64155e-01,7.88649e-01,9.99966e-01
9.914783401e-01,7.74679e-01,9.99999e-01,9.99999e-01,9.99999e-01,9.77699e-01,7.92356e-01,9.99990e-01
9.964357318e-01,7.86289e-01,9.99999e-01,9.99999e-01,9.99999e-01,9.87796e-01,7.96007e-01,9.99994e-01
1.001417910e+00,7.93735e-01,9.99999e-01,9.99999e-01,9.99999e-01,9.92669e-01,7.99602e-01,9.99991e-01
1.006425000e+00,7.99773e-01,9.99999e-01,9.99999e-01,9.99999e-01,9.95816e-01,8.03142e-01,9.99987e-01
1.011457125e+00,8.04523e-01,9.99999e-01,9.99999e-01,9.99999e-01,9.97401e-01,8.06628e-01,9.99988e-01
1.016514411e+00,8.08624e-01,9.99999e-01,9.99999e-01,9.99999e-01,9.98235e-01,8.10059e-01,9.99991e-01
1.021596983e+00,8.12252e-01,9.99999e-01,9.99999e-01,9.99957e-01,9.98593e-01,8.13436e-01,9.99991e-01
1.026704968e+00,8.13307e-01,9.99999e-01,9.99999e-01,9.96867e-01,9.98903e-01,8.16761e-01,9.99994e-01
1.031838492e+00,7.87362e-01,9.99999e-01,9.99999e-01,9.60904e-01,9.99202e-01,8.20033e-01,9.99998e-01
1.036997685e+00,1.48284e-01,9.99999e-01,9.99999e-01,1.80188e-01,9.99526e-01,8.23253e-01,9.99999e-01
1.042182673e+00,1.37392e-01,9.99999e-01,9.99999e-01,1.66333e-01,9.99435e-01,8.26422e-01,9.99999e-01
1.047393587e+00,1.50314e-01,9.99999e-01,9.99999e-01,1.81322e-01,9.99251e-01,8.29540e-01,9.99999e-01
1.052630555e+00,7.01990e-03,9.99999e-01,9.99999e-01,8.43771e-03,9.98972e-01,8.32607e-01,9.99999e-01
1.057893707e+00,1.64366e-02,9.99999e-01,9.99999e-01,1.96936e-02,9.98285e-01,8.35626e-01,9.99998e-01
1.063183176e+00,4.68003e-02,9.99999e-01,9.99999e-01,5.59248e-02,9.97179e-01,8.38595e-01,9.99998e-01
1.068499092e+00,1.15397e-01,9.99999e-01,9.99999e-01,1.37689e-01,9.95279e-01,8.41516e-01,9.99996e-01
1.073841587e+00,2.40265e-01,9.99999e-01,9.99999e-01,2.85917e-01,9.94476e-01,8.44389e-01,9.99992e-01
