#,Wave/freq,Total,N2,O2,CO2,H2O,Rayleigh,CIA
4.000000000e-01,2.53730e-08,9.99999e-01,9.99999e-01,9.99999e-01,9.99965e-01,2.53739e-08,9.99999e-01
4.020000000e-01,3.58563e-08,9.99999e-01,9.99999e-01,9.99999e-01,9.99978e-01,3.58571e-08,9.99999e-01
4.040100000e-01,5.03080e-08,9.99999e-01,9.99999e-01,9.99999e-01,9.99990e-01,5.03084e-08,9.99999e-01
4.060300500e-01,7.01133e-08,9.99999e-01,9.99999e-01,9.99999e-01,9.99997e-01,7.01135e-08,9.99999e-01
4.080602003e-01,9.70765e-08,9.99999e-01,9.99999e-01,9.99999e-01,9.99998e-01,9.70766e-08,9.99999e-01
4.101005013e-01,1.33548e-07,9.99999e-01,9.99999e-01,9.99999e-01,9.99999e-01,1.33548e-07,9.99999e-01
4.121510038e-01,1.82567e-07,9.99999e-01,9.99999e-01,9.99999e-01,9.99998e-01,1.82567e-07,9.99999e-01
4.142117588e-01,2.48040e-07,9.99999e-01,9.99999e-01,9.99999e-01,9.99990e-01,2.48042e-07,9.99999e-01
4.162828176e-01,3.34952e-07,9.99999e-01,9.99999e-01,9.99999e-01,9.99957e-01,3.34966e-07,9.99999e-01
4.183642317e-01,4.49662e-07,9.99999e-01,9.99999e-01,9.99999e-01,9.99974e-01,4.49674e-07,9.99999e-01
4.204560528e-01,6.00153e-07,9.99999e-01,9.99999e-01,9.99999e-01,9.99984e-01,6.00162e-07,9.99999e-01
4.225583331e-01,7.96454e-07,9.99999e-01,9.99999e-01,9.99999e-01,9.99993e-01,7.96458e-07,9.99999e-01
4.246711247e-01,1.05106e-06,9.99999e-01,9.99999e-01,9.99999e-01,9.99995e-01,1.05107e-06,9.99999e-01
4.267944804e-01,1.37948e-06,9.99999e-01,9.99999e-01,9.99999e-01,9.99992e-01,1.37949e-06,9.99999e-01
4.289284528e-01,1.80082e-06,9.99999e-01,9.99999e-01,9.99999e-01,9.99994e-01,1.80083e-06,9.99999e-01
4.310730950e-01,2.33852e-06,9.99999e-01,9.99999e-01,9.99999e-01,9.99997e-01,2.33852e-06,9.99999e-01
4.332284605e-01,3.02112e-06,9.99999e-01,9.99999e-01,9.99999e-01,9.99998e-01,3.02113e-06,9.99999e-01
4.353946028e-01,3.88328e-06,9.99999e-01,9.99999e-01,9.99999e-01,9.99999e-01,3.88328e-06,9.99999e-01
4.375715758e-01,4.96677e-06,9.99999e-01,9.99999e-01,9.99999e-01,9.99995e-01,4.96679e-06,9.99999e-01
4.397594337e-01,6.32158e-06,9.99999e-01,9.99999e-01,9.99999e-01,9.99963e-01,6.32181e-06,9.99999e-01
4.419582309e-01,8.00678e-06,9.99999e-01,9.99999e-01,9.99999e-01,9.99815e-01,8.00825e-06,9.99999e-01
4.441680220e-01,1.00958e-05,9.99999e-01,9.99999e-01,9.99999e-01,9.99853e-01,1.00973e-05,9.99999e-01
4.463888621e-01,1.26712e-05,9.99999e-01,9.99999e-01,9.99999e-01,9.99848e-01,1.26732e-05,9.99999e-01
4.486208064e-01,1.58334e-05,9.99999e-01,9.99999e-01,9.99999e-01,9.99905e-01,1.58349e-05,9.99999e-01
4.508639105e-01,1.96977e-05,9.99999e-01,9.99999e-01,9.99999e-01,9.99955e-01,1.96986e-05,9.99999e-01
4.531182300e-01,2.43991e-05,9.99999e-01,9.99999e-01,9.99999e-01,9.99982e-01,2.43995e-05,9.99999e-01
4.553838212e-01,3.00945e-05,9.99999e-01,9.99999e-01,9.99999e-01,9.99987e-01,3.00948e-05,9.99999e-01
4.576607403e-01,3.69658e-05,9.99999e-01,9.99999e-01,9.99999e-01,9.99994e-01,3.69660e-05,9.99999e-01
4.599490440e-01,4.52218e-05,9.99999e-01,9.99999e-01,9.99999e-01,9.99995e-01,4.52220e-05,9.99999e-01
4.622487892e-01,5.51019e-05,9.99999e-01,9.99999e-01,9.99999e-01,9.99998e-01,5.51020e-05,9.99999e-01
4.645600332e-01,6.68788e-05,9.99999e-01,9.99999e-01,9.99999e-01,9.99996e-01,6.68790e-05,9.99999e-01
4.668828333e-01,8.08596e-05,9.99999e-01,9.99999e-01,9.99999e-01,9.99955e-01,8.08631e-05,9.99999e-01
4.692172475e-01,9.73961e-05,9.99999e-01,9.99999e-01,9.99999e-01,9.99904e-01,9.74053e-05,9.99999e-01
4.715633337e-01,1.16894e-04,9.99999e-01,9.99999e-01,9.99999e-01,9.99937e-01,1.16901e-04,9.99999e-01
4.739211504e-01,1.39786e-04,9.99999e-01,9.99999e-01,9.99999e-01,9.99940e-01,1.39794e-04,9.99999e-01
4.762907561e-01,1.66576e-04,9.99999e-01,9.99999e-01,9.99999e-01,9.99968e-01,1.66581e-04,9.99999e-01
4.786722099e-01,1.97811e-04,9.99999e-01,9.99999e-01,9.99999e-01,9.99986e-01,1.97814e-04,9.99999e-01
4.810655710e-01,2.34106e-04,9.99999e-01,9.99999e-01,9.99999e-01,9.99995e-01,2.34107e-04,9.99999e-01
4.834708988e-01,2.76129e-04,9.99999e-01,9.99999e-01,9.99999e-01,9.99963e-01,2.76139e-04,9.99999e-01
4.858882533e-01,3.24635e-04,9.99999e-01,9.99999e-01,9.99999e-01,9.99932e-01,3.24657e-04,9.99999e-01
4.883176946e-01,3.80459e-04,9.99999e-01,9.99999e-01,9.99999e-01,9.99943e-01,3.80481e-04,9.99999e-01
4.907592831e-01,4.44485e-04,9.99999e-01,9.99999e-01,9.99999e-01,9.99948e-01,4.44508e-04,9.99999e-01
4.932130795e-01,5.17698e-04,9.99999e-01,9.99999e-01,9.99999e-01,9.99963e-01,5.17717e-04,9.99999e-01
4.956791449e-01,6.01158e-04,9.99999e-01,9.99999e-01,9.99999e-01,9.99980e-01,6.01169e-04,9.99999e-01
4.981575406e-01,6.95951e-04,9.99999e-01,9.99999e-01,9.99999e-01,9.99904e-01,6.96017e-04,9.99999e-01
5.006483283e-01,8.03301e-04,9.99999e-01,9.99999e-01,9.99999e-01,9.99754e-01,8.03500e-04,9.99997e-01
5.031515699e-01,9.23786e-04,9.99999e-01,9.99999e-01,9.99999e-01,9.98750e-01,9.24954e-04,9.99986e-01
5.056673278e-01,1.06109e-03,9.99999e-01,9.99999e-01,9.99999e-01,9.99338e-01,1.06181e-03,9.99984e-01
5.081956644e-01,1.21457e-03,9.99999e-01,9.99999e-01,9.99999e-01,9.99165e-01,1.21560e-03,9.99989e-01
5.107366428e-01,1.38716e-03,9.99999e-01,9.99999e-01,9.99999e-01,9.99436e-01,1.38794e-03,9.99997e-01
5.132903260e-01,1.58007e-03,9.99999e-01,9.99999e-01,9.99999e-01,9.99677e-01,1.58058e-03,9.99999e-01
5.158567776e-01,1.79510e-03,9.99999e-01,9.99999e-01,9.99999e-01,9.99863e-01,1.79534e-03,9.99999e-01
5.184360615e-01,2.03405e-03,9.99999e-01,9.99999e-01,9.99999e-01,9.99945e-01,2.03416e-03,9.99999e-01
5.210282418e-01,2.29902e-03,9.99999e-01,9.99999e-01,9.99999e-01,9.99979e-01,2.29906e-03,9.99999e-01
5.236333830e-01,2.59198e-03,9.99999e-01,9.99999e-01,9.99999e-01,9.99918e-01,2.59219e-03,9.99998e-01
5.262515499e-01,2.91562e-03,9.99999e-01,9.99999e-01,9.99999e-01,9.99948e-01,2.91577e-03,9.99998e-01
5.288828077e-01,3.27198e-03,9.99999e-01,9.99999e-01,9.99999e-01,9.99952e-01,3.27213e-03,9.99998e-01
5.315272217e-01,3.66354e-03,9.99999e-01,9.99999e-01,9.99999e-01,9.99958e-01,3.66369e-03,9.99999e-01
5.341848578e-01,4.09285e-03,9.99999e-01,9.99999e-01,9.99999e-01,9.99972e-01,4.09296e-03,9.99999e-01
5.368557821e-01,4.56210e-03,9.99999e-01,9.99999e-01,9.99999e-01,9.99904e-01,4.56253e-03,9.99999e-01
5.395400610e-01,5.07333e-03,9.99999e-01,9.99999e-01,9.99999e-01,9.99659e-01,5.07507e-03,9.99996e-01
5.422377613e-01,5.63079e-03,9.99999e-01,9.99999e-01,9.99999e-01,9.99556e-01,5.63333e-03,9.99991e-01
5.449489501e-01,6.23751e-03,9.99999e-01,9.99999e-01,9.99999e-01,9.99588e-01,6.24013e-03,9.99991e-01
5.476736949e-01,6.89578e-03,9.99999e-01,9.99999e-01,9.99999e-01,9.99633e-01,6.89833e-03,9.99995e-01
5.504120634e-01,7.60884e-03,9.99999e-01,9.99999e-01,9.99999e-01,9.99734e-01,7.61087e-03,9.99998e-01
5.531641237e-01,8.37959e-03,9.99999e-01,9.99999e-01,9.99999e-01,9.99866e-01,8.38071e-03,9.99999e-01
5.559299443e-01,9.21029e-03,9.99999e-01,9.99999e-01,9.99999e-01,9.99935e-01,9.21088e-03,9.99999e-01
5.587095940e-01,1.01040e-02,9.99999e-01,9.99999e-01,9.99999e-01,9.99959e-01,1.01044e-02,9.99999e-01
5.615031420e-01,1.10639e-02,9.99999e-01,9.99999e-01,9.99999e-01,9.99954e-01,1.10644e-02,9.99999e-01
5.643106577e-01,1.20932e-02,9.99999e-01,9.99999e-01,9.99999e-01,9.99949e-01,1.20938e-02,9.99999e-01
5.671322110e-01,1.31878e-02,9.99999e-01,9.99999e-01,9.99999e-01,9.99388e-01,1.31959e-02,9.99994e-01
5.699678720e-01,1.43638e-02,9.99999e-01,9.99999e-01,9.99999e-01,9.99338e-01,1.43736e-02,9.99982e-01
5.728177114e-01,1.56190e-02,9.99999e-01,9.99999e-01,9.99999e-01,9.99315e-01,1.56299e-02,9.99985e-01
5.756818000e-01,1.69572e-02,9.99999e-01,9.99999e-01,9.99999e-01,9.99370e-01,1.69680e-02,9.99990e-01
5.785602090e-01,1.83806e-02,9.99999e-01,9.99999e-01,9.99999e-01,9.99450e-01,1.83908e-02,9.99996e-01
5.814530100e-01,1.98902e-02,9.99999e-01,9.99999e-01,9.99999e-01,9.99449e-01,1.99012e-02,9.99998e-01
5.843602750e-01,2.14880e-02,9.99999e-01,9.99999e-01,9.99999e-01,9.99347e-01,2.15021e-02,9.99995e-01
5.872820764e-01,2.30650e-02,9.99999e-01,9.99999e-01,9.99999e-01,9.94379e-01,2.31962e-02,9.99959e-01
5.902184868e-01,2.48127e-02,9.99999e-01,9.99999e-01,9.99999e-01,9.93152e-01,2.49865e-02,9.99891e-01
5.931695792e-01,2.67427e-02,9.99999e-01,9.99999e-01,9.99999e-01,9.95168e-01,2.68753e-02,9.99894e-01
5.961354271e-01,2.87106e-02,9.99999e-01,9.99999e-01,9.99999e-01,9.94697e-01,2.88654e-02,9.99935e-01
5.991161043e-01,3.08387e-02,9.99999e-01,9.99999e-01,9.99999e-01,9.96127e-01,3.09592e-02,9.99981e-01
6.021116848e-01,3.30859e-02,9.99999e-01,9.99999e-01,9.99999e-01,9.97799e-01,3.31589e-02,9.99997e-01
6.051222432e-01,3.54273e-02,9.99999e-01,9.99999e-01,9.99999e-01,9.98885e-01,3.54668e-02,9.99999e-01
6.081478544e-01,3.78667e-02,9.99999e-01,9.99999e-01,9.99999e-01,9.99519e-01,3.78849e-02,9.99999e-01
6.111885937e-01,4.04070e-02,9.99999e-01,9.99999e-01,9.99999e-01,9.99796e-01,4.04153e-02,9.99999e-01
6.142445367e-01,4.30556e-02,9.99999e-01,9.99999e-01,9.99999e-01,9.99908e-01,4.30596e-02,9.99999e-01
6.173157594e-01,4.58172e-02,9.99999e-01,9.99999e-01,9.99999e-01,9.99949e-01,4.58195e-02,9.99999e-01
6.204023382e-01,4.86944e-02,9.99999e-01,9.99999e-01,9.99999e-01,9.99957e-01,4.86965e-02,9.99999e-01
6.235043498e-01,5.16824e-02,9.99999e-01,9.99999e-01,9.99999e-01,9.99815e-01,5.16919e-02,9.99999e-01
6.266218716e-01,5.47526e-02,9.99999e-01,9.99999e-01,9.99999e-01,9.99014e-01,5.48070e-02,9.99992e-01
6.297549810e-01,5.80208e-02,9.99999e-01,9.99999e-01,9.99999e-01,9.99638e-01,5.80426e-02,9.99985e-01
6.329037559e-01,6.13551e-02,9.99999e-01,9.99999e-01,9.99999e-01,9.99284e-01,6.13997e-02,9.99988e-01
6.360682746e-01,6.48390e-02,9.99999e-01,9.99999e-01,9.99999e-01,9.99392e-01,6.48788e-02,9.99992e-01
6.392486160e-01,6.84263e-02,9.99999e-01,9.99999e-01,9.99999e-01,9.99211e-01,6.84805e-02,9.99996e-01
6.424448591e-01,7.21289e-02,9.99999e-01,9.99999e-01,9.99999e-01,9.98950e-01,7.22050e-02,9.99994e-01
6.456570834e-01,7.56801e-02,9.99999e-01,9.99999e-01,9.99999e-01,9.95131e-01,7.60524e-02,9.99972e-01
6.488853688e-01,7.97295e-02,9.99999e-01,9.99999e-01,9.99999e-01,9.96409e-01,8.00228e-02,9.99923e-01
6.521297956e-01,8.38028e-02,9.99999e-01,9.99999e-01,9.99999e-01,9.96340e-01,8.41159e-02,9.99935e-01
6.553904446e-01,8.80076e-02,9.99999e-01,9.99999e-01,9.99999e-01,9.96383e-01,8.83313e-02,9.99951e-01
6.586673968e-01,9.23777e-02,9.99999e-01,9.99999e-01,9.99999e-01,9.96879e-01,9.26683e-02,9.99983e-01
6.619607338e-01,9.69507e-02,9.99999e-01,9.99999e-01,9.99999e-01,9.98195e-01,9.71263e-02,9.99996e-01
6.652705375e-01,1.01598e-01,9.99999e-01,9.99999e-01,9.99999e-01,9.98953e-01,1.01704e-01,9.99997e-01
6.685968902e-01,1.06350e-01,9.99999e-01,9.99999e-01,9.99999e-01,9.99513e-01,1.06401e-01,9.99999e-01
6.719398746e-01,1.11191e-01,9.99999e-01,9.99999e-01,9.99999e-01,9.99774e-01,1.11216e-01,9.99999e-01
6.752995740e-01,1.16133e-01,9.99999e-01,9.99999e-01,9.99999e-01,9.99877e-01,1.16147e-01,9.99999e-01
6.786760719e-01,1.21171e-01,9.99999e-01,9.99999e-01,9.99999e-01,9.99824e-01,1.21193e-01,9.99999e-01
6.820694522e-01,1.26313e-01,9.99999e-01,9.99999e-01,9.99999e-01,9.99699e-01,1.26351e-01,9.99997e-01
6.854797995e-01,1.31570e-01,9.99999e-01,9.99999e-01,9.99999e-01,9.99612e-01,1.31621e-01,9.99996e-01
6.889071985e-01,1.36872e-01,9.99999e-01,9.99999e-01,9.99999e-01,9.99071e-01,1.37000e-01,9.99991e-01
6.923517345e-01,1.40314e-01,9.99999e-01,9.99999e-01,9.99999e-01,9.84822e-01,1.42486e-01,9.99926e-01
6.958134932e-01,1.46866e-01,9.99999e-01,9.99999e-01,9.99999e-01,9.91984e-01,1.48077e-01,9.99833e-01
6.992925606e-01,1.52591e-01,9.99999e-01,9.99999e-01,9.99999e-01,9.92472e-01,1.53771e-01,9.99853e-01
7.027890234e-01,1.58057e-01,9.99999e-01,9.99999e-01,9.99999e-01,9.90667e-01,1.59564e-01,9.99887e-01
7.063029686e-01,1.64147e-01,9.99999e-01,9.99999e-01,9.99999e-01,9.92153e-01,1.65454e-01,9.99943e-01
7.098344834e-01,1.70143e-01,9.99999e-01,9.99999e-01,9.99999e-01,9.92469e-01,1.71440e-01,9.99966e-01
7.133836558e-01,1.75740e-01,9.99999e-01,9.99999e-01,9.99999e-01,9.90054e-01,1.77517e-01,9.99934e-01
7.169505741e-01,1.69374e-01,9.99999e-01,9.99999e-01,9.99999e-01,9.22571e-01,1.83683e-01,9.99484e-01
7.205353270e-01,1.82342e-01,9.99999e-01,9.99999e-01,9.99999e-01,9.60891e-01,1.89935e-01,9.99091e-01
7.241380036e-01,1.86509e-01,9.99999e-01,9.99999e-01,9.99999e-01,9.51011e-01,1.96270e-01,9.99215e-01
7.277586936e-01,1.93575e-01,9.99999e-01,9.99999e-01,9.99999e-01,9.55665e-01,2.02686e-01,9.99358e-01
7.313974871e-01,1.99226e-01,9.99999e-01,9.99999e-01,9.99999e-01,9.52710e-01,2.09177e-01,9.99699e-01
7.350544745e-01,2.10093e-01,9.99999e-01,9.99999e-01,9.99999e-01,9.73914e-01,2.15743e-01,9.99895e-01
7.387297469e-01,2.18082e-01,9.99999e-01,9.99999e-01,9.99999e-01,9.80727e-01,2.22378e-01,9.99951e-01
7.424233956e-01,2.26906e-01,9.99999e-01,9.99999e-01,9.99999e-01,9.90512e-01,2.29081e-01,9.99990e-01
7.461355126e-01,2.34490e-01,9.99999e-01,9.99999e-01,9.99999e-01,9.94246e-01,2.35847e-01,9.99997e-01
7.498661902e-01,2.42022e-01,9.99999e-01,9.99999e-01,9.99999e-01,9.97313e-01,2.42674e-01,9.99998e-01
7.536155211e-01,2.49229e-01,9.99999e-01,9.99999e-01,9.99999e-01,9.98683e-01,2.49557e-01,9.99999e-01
7.573835987e-01,2.56320e-01,9.99999e-01,9.99999e-01,9.99999e-01,9.99321e-01,2.56494e-01,9.99999e-01
7.611705167e-01,2.63370e-01,9.99999e-01,9.99999e-01,9.99999e-01,9.99578e-01,2.63481e-01,9.99999e-01
7.649763693e-01,2.70444e-01,9.99999e-01,9.99999e-01,9.99999e-01,9.99735e-01,2.70515e-01,9.99999e-01
7.688012511e-01,2.77541e-01,9.99999e-01,9.99999e-01,9.99999e-01,9.99816e-01,2.77592e-01,9.99999e-01
7.726452574e-01,2.84666e-01,9.99999e-01,9.99999e-01,9.99999e-01,9.99848e-01,2.84709e-01,9.99999e-01
7.765084837e-01,2.91800e-01,9.99999e-01,9.99999e-01,9.99999e-01,9.99786e-01,2.91862e-01,9.99999e-01
7.803910261e-01,2.83527e-01,9.99999e-01,9.99999e-01,9.48929e-01,9.99078e-01,2.99049e-01,9.99998e-01
7.842929812e-01,2.38597e-01,9.99999e-01,9.99999e-01,7.81382e-01,9.96786e-01,3.06265e-01,9.99993e-01
7.882144461e-01,2.39742e-01,9.99999e-01,9.99999e-01,7.69540e-01,9.93353e-01,3.13508e-01,9.99958e-01
7.921555184e-01,2.73580e-01,9.99999e-01,9.99999e-01,8.55959e-01,9.96339e-01,3.20774e-01,9.99920e-01
7.961162960e-01,2.93483e-01,9.99999e-01,9.99999e-01,9.00361e-01,9.93581e-01,3.28059e-01,9.99924e-01
8.000968774e-01,3.14454e-01,9.99999e-01,9.99999e-01,9.44723e-01,9.92562e-01,3.35362e-01,9.99919e-01
8.040973618e-01,3.30216e-01,9.99999e-01,9.99999e-01,9.70889e-01,9.92567e-01,3.42678e-01,9.99935e-01
8.081178486e-01,3.39558e-01,9.99999e-01,9.99999e-01,9.86562e-01,9.83388e-01,3.50004e-01,9.99939e-01
8.121584379e-01,3.31769e-01,9.99999e-01,9.99999e-01,9.95809e-01,9.32507e-01,3.57338e-01,9.99764e-01
8.162192301e-01,3.34884e-01,9.99999e-01,9.99999e-01,9.99073e-01,9.19945e-01,3.64675e-01,9.99115e-01
8.203003262e-01,3.56716e-01,9.99999e-01,9.99999e-01,9.99984e-01,9.59880e-01,3.72015e-01,9.98964e-01
8.244018279e-01,3.57683e-01,9.99999e-01,9.99999e-01,9.99999e-01,9.43655e-01,3.79352e-01,9.99176e-01
8.285238370e-01,3.67723e-01,9.99999e-01,9.99999e-01,9.99999e-01,9.51578e-01,3.86685e-01,9.99352e-01
8.326664562e-01,3.74588e-01,9.99999e-01,9.99999e-01,9.99999e-01,9.50959e-01,3.94011e-01,9.99732e-01
8.368297885e-01,3.87119e-01,9.99999e-01,9.99999e-01,9.99999e-01,9.64657e-01,4.01326e-01,9.99938e-01
8.410139374e-01,3.99971e-01,9.99999e-01,9.99999e-01,9.99999e-01,9.78844e-01,4.08629e-01,9.99963e-01
8.452190071e-01,4.11568e-01,9.99999e-01,9.99999e-01,9.99999e-01,9.89564e-01,4.15917e-01,9.99978e-01
8.494451021e-01,4.20619e-01,9.99999e-01,9.99999e-01,9.99999e-01,9.93947e-01,4.23187e-01,9.99982e-01
8.536923276e-01,4.28887e-01,9.99999e-01,9.99999e-01,9.99999e-01,9.96409e-01,4.30437e-01,9.99988e-01
8.579607893e-01,4.36696e-01,9.99999e-01,9.99999e-01,9.99999e-01,9.97791e-01,4.37664e-01,9.99996e-01
8.622505932e-01,4.44241e-01,9.99999e-01,9.99999e-01,9.99999e-01,9.98594e-01,4.44866e-01,9.99999e-01
8.665618462e-01,4.08125e-01,9.99999e-01,9.99999e-01,9.03594e-01,9.99132e-01,4.52040e-01,9.99999e-01
8.708946554e-01,2.47707e-01,9.99999e-01,9.99999e-01,5.39956e-01,9.99008e-01,4.59186e-01,9.99998e-01
8.752491287e-01,2.81356e-01,9.99999e-01,9.99999e-01,6.04147e-01,9.98672e-01,4.66299e-01,9.99998e-01
8.796253743e-01,3.57158e-01,9.99999e-01,9.99999e-01,7.55811e-01,9.98165e-01,4.73380e-01,9.99995e-01
8.840235012e-01,4.14298e-01,9.99999e-01,9.99999e-01,8.64137e-01,9.97903e-01,4.80424e-01,9.99986e-01
8.884436187e-01,4.56623e-01,9.99999e-01,9.99999e-01,9.43840e-01,9.92452e-01,4.87432e-01,9.99963e-01
8.928858368e-01,4.45757e-01,9.99999e-01,9.99999e-01,9.76881e-01,9.22839e-01,4.94400e-01,9.99789e-01
8.973502660e-01,4.31780e-01,9.99999e-01,9.99999e-01,9.94314e-01,8.66969e-01,5.01327e-01,9.98924e-01
9.018370173e-01,4.71269e-01,9.99999e-01,9.99999e-01,9.99371e-01,9.29433e-01,5.08211e-01,9.98310e-01
9.063462024e-01,4.75324e-01,9.99999e-01,9.99999e-01,9.84376e-01,9.38154e-01,5.15051e-01,9.98515e-01
9.108779334e-01,4.54794e-01,9.99999e-01,9.99999e-01,9.63819e-01,9.04961e-01,5.21846e-01,9.98457e-01
9.154323231e-01,4.67252e-01,9.99999e-01,9.99999e-01,9.91340e-01,8.92544e-01,5.28593e-01,9.98724e-01
9.200094847e-01,4.37450e-01,9.99999e-01,9.99999e-01,8.87610e-01,9.14761e-01,5.35292e-01,9.99285e-01
9.246095321e-01,3.96610e-01,9.99999e-01,9.99999e-01,8.35355e-01,8.72600e-01,5.41940e-01,9.99177e-01
9.292325798e-01,1.97367e-01,9.99999e-01,9.99999e-01,8.69975e-01,4.06384e-01,5.48538e-01,9.96796e-01
9.338787427e-01,1.52259e-01,9.99999e-01,9.99999e-01,8.72875e-01,3.12065e-01,5.55083e-01,9.86822e-01
9.385481364e-01,3.14640e-01,9.99999e-01,9.99999e-01,9.04687e-01,6.23676e-01,5.61575e-01,9.84347e-01
9.432408771e-01,2.78600e-01,9.99999e-01,9.99999e-01,9.40315e-01,5.26129e-01,5.68012e-01,9.86481e-01
9.479570815e-01,2.28853e-01,9.99999e-01,9.99999e-01,9.68965e-01,4.14747e-01,5.74393e-01,9.88983e-01
9.526968669e-01,2.90363e-01,9.99999e-01,9.99999e-01,9.84903e-01,5.10125e-01,5.80718e-01,9.93266e-01
9.574603512e-01,3.09507e-01,9.99999e-01,9.99999e-01,9.93513e-01,5.32191e-01,5.86986e-01,9.96573e-01
9.622476530e-01,3.52022e-01,9.99999e-01,9.99999e-01,9.97971e-01,5.95939e-01,5.93196e-01,9.97629e-01
9.670588912e-01,4.43459e-01,9.99999e-01,9.99999e-01,9.99390e-01,7.41521e-01,5.99346e-01,9.98377e-01
9.718941857e-01,5.00899e-01,9.99999e-01,9.99999e-01,9.99956e-01,8.28354e-01,6.05437e-01,9.98805e-01
9.767536566e-01,5.22477e-01,9.99999e-01,9.99999e-01,9.99999e-01,8.55242e-01,6.11468e-01,9.99086e-01
9.816374249e-01,5.49522e-01,9.99999e-01,9.99999e-01,9.99999e-01,8.90284e-01,6.17438e-01,9.99683e-01
9.865456120e-01,5.79612e-01,9.99999e-01,9.99999e-01,9.99999e-01,9.29899e-01,6.23347e-01,9.99933e-01
9.914783401e-01,6.01540e-01,9.99999e-01,9.99999e-01,9.99999e-01,9.56066e-01,6.29194e-01,9.99981e-01
9.964357318e-01,6.19623e-01,9.99999e-01,9.99999e-01,9.99999e-01,9.75828e-01,6.34978e-01,9.99988e-01
1.001417910e+00,6.31362e-01,9.99999e-01,9.99999e-01,9.99999e-01,9.85439e-01,6.40700e-01,9.99983e-01
1.006425000e+00,6.40970e-01,9.99999e-01,9.99999e-01,9.99999e-01,9.91685e-01,6.46359e-01,9.99976e-01
1.011457125e+00,6.48567e-01,9.99999e-01,9.99999e-01,9.99999e-01,9.94823e-01,6.51955e-01,9.99977e-01
1.016514411e+00,6.55167e-01,9.99999e-01,9.99999e-01,9.99999e-01,9.96486e-01,6.57487e-01,9.99984e-01
1.021596983e+00,6.61038e-01,9.99999e-01,9.99999e-01,9.99920e-01,9.97200e-01,6.62955e-01,9.99984e-01
1.026704968e+00,6.62811e-01,9.99999e-01,9.99999e-01,9.93871e-01,9.97817e-01,6.68360e-01,9.99989e-01
1.031838492e+00,6.32348e-01,9.99999e-01,9.99999e-01,9.40058e-01,9.98411e-01,6.73701e-01,9.99996e-01
1.036997685e+00,6.57841e-02,9.99999e-01,9.99999e-01,9.69574e-02,9.99057e-01,6.78977e-01,9.99999e-01
1.042182673e+00,2.40920e-02,9.99999e-01,9.99999e-01,3.52456e-02,9.98878e-01,6.84189e-01,9.99999e-01
1.047393587e+00,3.94535e-02,9.99999e-01,9.99999e-01,5.73076e-02,9.98511e-01,6.89338e-01,9.99999e-01
1.052630555e+00,1.69024e-04,9.99999e-01,9.99999e-01,2.43743e-04,9.97959e-01,6.94422e-01,9.99999e-01
1.057893707e+00,5.40375e-04,9.99999e-01,9.99999e-01,7.74156e-04,9.96597e-01,6.99442e-01,9.99998e-01
1.063183176e+00,3.39370e-03,9.99999e-01,9.99999e-01,4.83549e-03,9.94402e-01,7.04398e-01,9.99996e-01
1.068499092e+00,1.52934e-02,9.99999e-01,9.99999e-01,2.17192e-02,9.90635e-01,7.09291e-01,9.99993e-01
1.073841587e+00,6.18788e-02,9.99999e-01,9.99999e-01,8.74154e-02,9.89063e-01,7.14119e-01,9.99985e-01
