#,Wave/freq,Total,N2,O2,CO2,H2O,Rayleigh,CIA
4.000000000e-01,1.02749e-10,9.99999e-01,9.99999e-01,9.99999e-01,9.99955e-01,1.02753e-10,9.99999e-01
4.020000000e-01,1.61913e-10,9.99999e-01,9.99999e-01,9.99999e-01,9.99972e-01,1.61917e-10,9.99999e-01
4.040100000e-01,2.52743e-10,9.99999e-01,9.99999e-01,9.99999e-01,9.99987e-01,2.52746e-10,9.99999e-01
4.060300500e-01,3.91069e-10,9.99999e-01,9.99999e-01,9.99999e-01,9.99996e-01,3.91070e-10,9.99999e-01
4.080602003e-01,5.99902e-10,9.99999e-01,9.99999e-01,9.99999e-01,9.99998e-01,5.99903e-10,9.99999e-01
4.101005013e-01,9.12508e-10,9.99999e-01,9.99999e-01,9.99999e-01,9.99999e-01,9.12508e-10,9.99999e-01
4.121510038e-01,1.37656e-09,9.99999e-01,9.99999e-01,9.99999e-01,9.99997e-01,1.37656e-09,9.99999e-01
4.142117588e-01,2.05978e-09,9.99999e-01,9.99999e-01,9.99999e-01,9.99987e-01,2.05980e-09,9.99999e-01
4.162828176e-01,3.05756e-09,9.99999e-01,9.99999e-01,9.99999e-01,9.99944e-01,3.05773e-09,9.99999e-01
4.183642317e-01,4.50369e-09,9.99999e-01,9.99999e-01,9.99999e-01,9.99966e-01,4.50384e-09,9.99999e-01
4.204560528e-01,6.58320e-09,9.99999e-01,9.99999e-01,9.99999e-01,9.99979e-01,6.58333e-09,9.99999e-01
4.225583331e-01,9.55099e-09,9.99999e-01,9.99999e-01,9.99999e-01,9.99992e-01,9.55106e-09,9.99999e-01
4.246711247e-01,1.37551e-08,9.99999e-01,9.99999e-01,9.99999e-01,9.99993e-01,1.37551e-08,9.99999e-01
4.267944804e-01,1.96674e-08,9.99999e-01,9.99999e-01,9.99999e-01,9.99990e-01,1.96675e-08,9.99999e-01
4.289284528e-01,2.79232e-08,9.99999e-01,9.99999e-01,9.99999e-01,9.99992e-01,2.79234e-08,9.99999e-01
4.310730950e-01,3.93711e-08,9.99999e-01,9.99999e-01,9.99999e-01,9.99996e-01,3.93712e-08,9.99999e-01
4.332284605e-01,5.51368e-08,9.99999e-01,9.99999e-01,9.99999e-01,9.99998e-01,5.51369e-08,9.99999e-01
4.353946028e-01,7.67037e-08,9.99999e-01,9.99999e-01,9.99999e-01,9.99999e-01,7.67037e-08,9.99999e-01
4.375715758e-01,1.06012e-07,9.99999e-01,9.99999e-01,9.99999e-01,9.99994e-01,1.06013e-07,9.99999e-01
4.397594337e-01,1.45581e-07,9.99999e-01,9.99999e-01,9.99999e-01,9.99951e-01,1.45588e-07,9.99999e-01
4.419582309e-01,1.98639e-07,9.99999e-01,9.99999e-01,9.99999e-01,9.99756e-01,1.98688e-07,9.99999e-01
4.441680220e-01,2.69442e-07,9.99999e-01,9.99999e-01,9.99999e-01,9.99808e-01,2.69494e-07,9.99999e-01
4.463888621e-01,3.63266e-07,9.99999e-01,9.99999e-01,9.99999e-01,9.99800e-01,3.63338e-07,9.99999e-01
4.486208064e-01,4.86920e-07,9.99999e-01,9.99999e-01,9.99999e-01,9.99875e-01,4.86980e-07,9.99999e-01
4.508639105e-01,6.48893e-07,9.99999e-01,9.99999e-01,9.99999e-01,9.99941e-01,6.48931e-07,9.99999e-01
4.531182300e-01,8.59831e-07,9.99999e-01,9.99999e-01,9.99999e-01,9.99976e-01,8.59850e-07,9.99999e-01
4.553838212e-01,1.13299e-06,9.99999e-01,9.99999e-01,9.99999e-01,9.99984e-01,1.13301e-06,9.99999e-01
4.576607403e-01,1.48482e-06,9.99999e-01,9.99999e-01,9.99999e-01,9.99992e-01,1.48483e-06,9.99999e-01
4.599490440e-01,1.93552e-06,9.99999e-01,9.99999e-01,9.99999e-01,9.99994e-01,1.93553e-06,9.99999e-01
4.622487892e-01,2.50986e-06,9.99999e-01,9.99999e-01,9.99999e-01,9.99998e-01,2.50986e-06,9.99999e-01
4.645600332e-01,3.23795e-06,9.99999e-01,9.99999e-01,9.99999e-01,9.99996e-01,3.23796e-06,9.99999e-01
4.668828333e-01,4.15606e-06,9.99999e-01,9.99999e-01,9.99999e-01,9.99941e-01,4.15630e-06,9.99999e-01
4.692172475e-01,5.30819e-06,9.99999e-01,9.99999e-01,9.99999e-01,9.99874e-01,5.30885e-06,9.99999e-01
4.715633337e-01,6.74776e-06,9.99999e-01,9.99999e-01,9.99999e-01,9.99918e-01,6.74831e-06,9.99999e-01
4.739211504e-01,8.53684e-06,9.99999e-01,9.99999e-01,9.99999e-01,9.99921e-01,8.53751e-06,9.99999e-01
4.762907561e-01,1.07506e-05,9.99999e-01,9.99999e-01,9.99999e-01,9.99959e-01,1.07510e-05,9.99999e-01
4.786722099e-01,1.34767e-05,9.99999e-01,9.99999e-01,9.99999e-01,9.99982e-01,1.34769e-05,9.99999e-01
4.810655710e-01,1.68187e-05,9.99999e-01,9.99999e-01,9.99999e-01,9.99994e-01,1.68188e-05,9.99999e-01
4.834708988e-01,2.08966e-05,9.99999e-01,9.99999e-01,9.99999e-01,9.99952e-01,2.08976e-05,9.99999e-01
4.858882533e-01,2.58522e-05,9.99999e-01,9.99999e-01,9.99999e-01,9.99911e-01,2.58545e-05,9.99999e-01
4.883176946e-01,3.18506e-05,9.99999e-01,9.99999e-01,9.99999e-01,9.99925e-01,3.18529e-05,9.99999e-01
4.907592831e-01,3.90791e-05,9.99999e-01,9.99999e-01,9.99999e-01,9.99932e-01,3.90817e-05,9.99999e-01
4.932130795e-01,4.77554e-05,9.99999e-01,9.99999e-01,9.99999e-01,9.99952e-01,4.77577e-05,9.99999e-01
4.956791449e-01,5.81275e-05,9.99999e-01,9.99999e-01,9.99999e-01,9.99974e-01,5.81290e-05,9.99999e-01
4.981575406e-01,7.04696e-05,9.99999e-01,9.99999e-01,9.99999e-01,9.99874e-01,7.04784e-05,9.99999e-01
5.006483283e-01,8.50994e-05,9.99999e-01,9.99999e-01,9.99999e-01,9.99676e-01,8.51270e-05,9.99997e-01
5.031515699e-01,1.02267e-04,9.99999e-01,9.99999e-01,9.99999e-01,9.98357e-01,1.02437e-04,9.99982e-01
5.056673278e-01,1.22709e-04,9.99999e-01,9.99999e-01,9.99999e-01,9.99131e-01,1.22818e-04,9.99979e-01
5.081956644e-01,1.46564e-04,9.99999e-01,9.99999e-01,9.99999e-01,9.98903e-01,1.46727e-04,9.99986e-01
5.107366428e-01,1.74545e-04,9.99999e-01,9.99999e-01,9.99999e-01,9.99259e-01,1.74675e-04,9.99997e-01
5.132903260e-01,2.07143e-04,9.99999e-01,9.99999e-01,9.99999e-01,9.99576e-01,2.07231e-04,9.99999e-01
5.158567776e-01,2.44983e-04,9.99999e-01,9.99999e-01,9.99999e-01,9.99820e-01,2.45027e-04,9.99999e-01
5.184360615e-01,2.88739e-04,9.99999e-01,9.99999e-01,9.99999e-01,9.99927e-01,2.88759e-04,9.99999e-01
5.210282418e-01,3.39186e-04,9.99999e-01,9.99999e-01,9.99999e-01,9.99972e-01,3.39195e-04,9.99999e-01
5.236333830e-01,3.97132e-04,9.99999e-01,9.99999e-01,9.99999e-01,9.99892e-01,3.97175e-04,9.99998e-01
5.262515499e-01,4.63586e-04,9.99999e-01,9.99999e-01,9.99999e-01,9.99932e-01,4.63618e-04,9.99998e-01
5.288828077e-01,5.39492e-04,9.99999e-01,9.99999e-01,9.99999e-01,9.99938e-01,5.39525e-04,9.99998e-01
5.315272217e-01,6.25949e-04,9.99999e-01,9.99999e-01,9.99999e-01,9.99945e-01,6.25983e-04,9.99999e-01
5.341848578e-01,7.24141e-04,9.99999e-01,9.99999e-01,9.99999e-01,9.99964e-01,7.24166e-04,9.99999e-01
5.368557821e-01,8.35238e-04,9.99999e-01,9.99999e-01,9.99999e-01,9.99875e-01,8.35342e-04,9.99999e-01
5.395400610e-01,9.60437e-04,9.99999e-01,9.99999e-01,9.99999e-01,9.99551e-01,9.60871e-04,9.99995e-01
5.422377613e-01,1.10156e-03,9.99999e-01,9.99999e-01,9.99999e-01,9.99416e-01,1.10221e-03,9.99988e-01
5.449489501e-01,1.26023e-03,9.99999e-01,9.99999e-01,9.99999e-01,9.99459e-01,1.26092e-03,9.99988e-01
5.476736949e-01,1.43795e-03,9.99999e-01,9.99999e-01,9.99999e-01,9.99519e-01,1.43865e-03,9.99994e-01
5.504120634e-01,1.63660e-03,9.99999e-01,9.99999e-01,9.99999e-01,9.99650e-01,1.63717e-03,9.99998e-01
5.531641237e-01,1.85800e-03,9.99999e-01,9.99999e-01,9.99999e-01,9.99824e-01,1.85833e-03,9.99999e-01
5.559299443e-01,2.10391e-03,9.99999e-01,9.99999e-01,9.99999e-01,9.99914e-01,2.10409e-03,9.99999e-01
5.587095940e-01,2.37638e-03,9.99999e-01,9.99999e-01,9.99999e-01,9.99946e-01,2.37651e-03,9.99999e-01
5.615031420e-01,2.67760e-03,9.99999e-01,9.99999e-01,9.99999e-01,9.99940e-01,2.67776e-03,9.99999e-01
5.643106577e-01,3.00989e-03,9.99999e-01,9.99999e-01,9.99999e-01,9.99933e-01,3.01009e-03,9.99998e-01
5.671322110e-01,3.37311e-03,9.99999e-01,9.99999e-01,9.99999e-01,9.99193e-01,3.37585e-03,9.99992e-01
5.699678720e-01,3.77413e-03,9.99999e-01,9.99999e-01,9.99999e-01,9.99130e-01,3.77750e-03,9.99977e-01
5.728177114e-01,4.21368e-03,9.99999e-01,9.99999e-01,9.99999e-01,9.99099e-01,4.21755e-03,9.99981e-01
5.756818000e-01,4.69469e-03,9.99999e-01,9.99999e-01,9.99999e-01,9.99173e-01,4.69863e-03,9.99988e-01
5.785602090e-01,5.21964e-03,9.99999e-01,9.99999e-01,9.99999e-01,9.99278e-01,5.22343e-03,9.99996e-01
5.814530100e-01,5.79051e-03,9.99999e-01,9.99999e-01,9.99999e-01,9.99276e-01,5.79471e-03,9.99997e-01
5.843602750e-01,6.40977e-03,9.99999e-01,9.99999e-01,9.99999e-01,9.99140e-01,6.41531e-03,9.99994e-01
5.872820764e-01,7.03537e-03,9.99999e-01,9.99999e-01,9.99999e-01,9.92611e-01,7.08811e-03,9.99947e-01
5.902184868e-01,7.74468e-03,9.99999e-01,9.99999e-01,9.99999e-01,9.91009e-01,7.81605e-03,9.99857e-01
5.931695792e-01,8.54637e-03,9.99999e-01,9.99999e-01,9.99999e-01,9.93653e-01,8.60214e-03,9.99862e-01
5.961354271e-01,9.38282e-03,9.99999e-01,9.99999e-01,9.99999e-01,9.93035e-01,9.44937e-03,9.99920e-01
5.991161043e-01,1.03079e-02,9.99999e-01,9.99999e-01,9.99999e-01,9.94913e-01,1.03608e-02,9.99975e-01
6.021116848e-01,1.13067e-02,9.99999e-01,9.99999e-01,9.99999e-01,9.97109e-01,1.13395e-02,9.99996e-01
6.051222432e-01,1.23704e-02,9.99999e-01,9.99999e-01,9.99999e-01,9.98535e-01,1.23886e-02,9.99999e-01
6.081478544e-01,1.35025e-02,9.99999e-01,9.99999e-01,9.99999e-01,9.99368e-01,1.35110e-02,9.99999e-01
6.111885937e-01,1.47061e-02,9.99999e-01,9.99999e-01,9.99999e-01,9.99732e-01,1.47100e-02,9.99999e-01
6.142445367e-01,1.59865e-02,9.99999e-01,9.99999e-01,9.99999e-01,9.99880e-01,1.59885e-02,9.99999e-01
6.173157594e-01,1.73483e-02,9.99999e-01,9.99999e-01,9.99999e-01,9.99933e-01,1.73494e-02,9.99999e-01
6.204023382e-01,1.87949e-02,9.99999e-01,9.99999e-01,9.99999e-01,9.99944e-01,1.87959e-02,9.99999e-01
6.235043498e-01,2.03259e-02,9.99999e-01,9.99999e-01,9.99999e-01,9.99756e-01,2.03309e-02,9.99998e-01
6.266218716e-01,2.19284e-02,9.99999e-01,9.99999e-01,9.99999e-01,9.98704e-01,2.19570e-02,9.99990e-01
6.297549810e-01,2.36656e-02,9.99999e-01,9.99999e-01,9.99999e-01,9.99524e-01,2.36773e-02,9.99981e-01
6.329037559e-01,2.54699e-02,9.99999e-01,9.99999e-01,9.99999e-01,9.99059e-01,2.54943e-02,9.99984e-01
6.360682746e-01,2.73885e-02,9.99999e-01,9.99999e-01,9.99999e-01,9.99200e-01,2.74107e-02,9.99990e-01
6.392486160e-01,2.93983e-02,9.99999e-01,9.99999e-01,9.99999e-01,9.98963e-01,2.94289e-02,9.99995e-01
6.424448591e-01,3.15077e-02,9.99999e-01,9.99999e-01,9.99999e-01,9.98618e-01,3.15515e-02,9.99993e-01
6.456570834e-01,3.35632e-02,9.99999e-01,9.99999e-01,9.99999e-01,9.93597e-01,3.37806e-02,9.99963e-01
6.488853688e-01,3.59447e-02,9.99999e-01,9.99999e-01,9.99999e-01,9.95284e-01,3.61186e-02,9.99899e-01
6.521297956e-01,3.83787e-02,9.99999e-01,9.99999e-01,9.99999e-01,9.95193e-01,3.85673e-02,9.99915e-01
6.553904446e-01,4.09306e-02,9.99999e-01,9.99999e-01,9.99999e-01,9.95246e-01,4.11287e-02,9.99936e-01
6.586673968e-01,4.36240e-02,9.99999e-01,9.99999e-01,9.99999e-01,9.95900e-01,4.38045e-02,9.99979e-01
6.619607338e-01,4.64857e-02,9.99999e-01,9.99999e-01,9.99999e-01,9.97628e-01,4.65964e-02,9.99995e-01
6.652705375e-01,4.94375e-02,9.99999e-01,9.99999e-01,9.99999e-01,9.98624e-01,4.95057e-02,9.99997e-01
6.685968902e-01,5.25003e-02,9.99999e-01,9.99999e-01,9.99999e-01,9.99361e-01,5.25338e-02,9.99999e-01
6.719398746e-01,5.56654e-02,9.99999e-01,9.99999e-01,9.99999e-01,9.99703e-01,5.56818e-02,9.99999e-01
6.752995740e-01,5.89412e-02,9.99999e-01,9.99999e-01,9.99999e-01,9.99839e-01,5.89507e-02,9.99999e-01
6.786760719e-01,6.23268e-02,9.99999e-01,9.99999e-01,9.99999e-01,9.99769e-01,6.23411e-02,9.99999e-01
6.820694522e-01,6.58277e-02,9.99999e-01,9.99999e-01,9.99999e-01,9.99604e-01,6.58538e-02,9.99997e-01
6.854797995e-01,6.94534e-02,9.99999e-01,9.99999e-01,9.99999e-01,9.99490e-01,6.94891e-02,9.99995e-01
6.889071985e-01,7.31569e-02,9.99999e-01,9.99999e-01,9.99999e-01,9.98776e-01,7.32473e-02,9.99988e-01
6.923517345e-01,7.55852e-02,9.99999e-01,9.99999e-01,9.99999e-01,9.80084e-01,7.71285e-02,9.99903e-01
6.958134932e-01,8.02632e-02,9.99999e-01,9.99999e-01,9.99999e-01,9.89499e-01,8.11326e-02,9.99781e-01
6.992925606e-01,8.43998e-02,9.99999e-01,9.99999e-01,9.99999e-01,9.90108e-01,8.52592e-02,9.99807e-01
7.027890234e-01,8.83988e-02,9.99999e-01,9.99999e-01,9.99999e-01,9.87752e-01,8.95080e-02,9.99852e-01
7.063029686e-01,9.29043e-02,9.99999e-01,9.99999e-01,9.99999e-01,9.89696e-01,9.38783e-02,9.99926e-01
7.098344834e-01,9.73924e-02,9.99999e-01,9.99999e-01,9.99999e-01,9.90111e-01,9.83693e-02,9.99956e-01
7.133836558e-01,1.01625e-01,9.99999e-01,9.99999e-01,9.99999e-01,9.86929e-01,1.02980e-01,9.99913e-01
7.169505741e-01,9.68426e-02,9.99999e-01,9.99999e-01,9.99999e-01,8.99718e-01,1.07709e-01,9.99322e-01
7.205353270e-01,1.06700e-01,9.99999e-01,9.99999e-01,9.99999e-01,9.49101e-01,1.12556e-01,9.98805e-01
7.241380036e-01,1.09907e-01,9.99999e-01,9.99999e-01,9.99999e-01,9.36192e-01,1.17519e-01,9.98968e-01
7.277586936e-01,1.15415e-01,9.99999e-01,9.99999e-01,9.99999e-01,9.42220e-01,1.22595e-01,9.99156e-01
7.313974871e-01,1.19866e-01,9.99999e-01,9.99999e-01,9.99999e-01,9.38400e-01,1.27785e-01,9.99604e-01
7.350544745e-01,1.28527e-01,9.99999e-01,9.99999e-01,9.99999e-01,9.65880e-01,1.33085e-01,9.99862e-01
7.387297469e-01,1.34989e-01,9.99999e-01,9.99999e-01,9.99999e-01,9.74755e-01,1.38493e-01,9.99936e-01
7.424233956e-01,1.42215e-01,9.99999e-01,9.99999e-01,9.99999e-01,9.87554e-01,1.44008e-01,9.99987e-01
7.461355126e-01,1.48497e-01,9.99999e-01,9.99999e-01,9.99999e-01,9.92446e-01,1.49628e-01,9.99997e-01
7.498661902e-01,1.54801e-01,9.99999e-01,9.99999e-01,9.99999e-01,9.96472e-01,1.55349e-01,9.99998e-01
7.536155211e-01,1.60890e-01,9.99999e-01,9.99999e-01,9.99999e-01,9.98270e-01,1.61169e-01,9.99999e-01
7.573835987e-01,1.66937e-01,9.99999e-01,9.99999e-01,9.99999e-01,9.99109e-01,1.67086e-01,9.99999e-01
7.611705167e-01,1.73001e-01,9.99999e-01,9.99999e-01,9.99999e-01,9.99446e-01,1.73096e-01,9.99999e-01
7.649763693e-01,1.79136e-01,9.99999e-01,9.99999e-01,9.99999e-01,9.99653e-01,1.79198e-01,9.99999e-01
7.688012511e-01,1.85344e-01,9.99999e-01,9.99999e-01,9.99999e-01,9.99758e-01,1.85388e-01,9.99999e-01
7.726452574e-01,1.91626e-01,9.99999e-01,9.99999e-01,9.99999e-01,9.99801e-01,1.91664e-01,9.99999e-01
7.765084837e-01,1.97965e-01,9.99999e-01,9.99999e-01,9.99999e-01,9.99718e-01,1.98021e-01,9.99999e-01
7.803910261e-01,1.91088e-01,9.99999e-01,9.99999e-01,9.35676e-01,9.98787e-01,2.04457e-01,9.99998e-01
7.842929812e-01,1.52666e-01,9.99999e-01,9.99999e-01,7.26429e-01,9.95772e-01,2.10970e-01,9.99991e-01
7.882144461e-01,1.53825e-01,9.99999e-01,9.99999e-01,7.12849e-01,9.91270e-01,2.17555e-01,9.99946e-01
7.921555184e-01,1.82035e-01,9.99999e-01,9.99999e-01,8.15718e-01,9.95193e-01,2.24209e-01,9.99895e-01
7.961162960e-01,1.99537e-01,9.99999e-01,9.99999e-01,8.71351e-01,9.91564e-01,2.30929e-01,9.99900e-01
8.000968774e-01,2.18448e-01,9.99999e-01,9.99999e-01,9.28063e-01,9.90231e-01,2.37713e-01,9.99893e-01
8.040973618e-01,2.32945e-01,9.99999e-01,9.99999e-01,9.61956e-01,9.90236e-01,2.44555e-01,9.99915e-01
8.081178486e-01,2.41637e-01,9.99999e-01,9.99999e-01,9.82380e-01,9.78205e-01,2.51454e-01,9.99920e-01
8.121584379e-01,2.34411e-01,9.99999e-01,9.99999e-01,9.94503e-01,9.12334e-01,2.58405e-01,9.99690e-01
8.162192301e-01,2.37357e-01,9.99999e-01,9.99999e-01,9.98783e-01,8.96409e-01,2.65405e-01,9.98837e-01
8.203003262e-01,2.57885e-01,9.99999e-01,9.99999e-01,9.99980e-01,9.47840e-01,2.72451e-01,9.98639e-01
8.244018279e-01,2.58938e-01,9.99999e-01,9.99999e-01,9.99999e-01,9.27307e-01,2.79539e-01,9.98916e-01
8.285238370e-01,2.68349e-01,9.99999e-01,9.99999e-01,9.99999e-01,9.36900e-01,2.86666e-01,9.99149e-01
8.326664562e-01,2.74973e-01,9.99999e-01,9.99999e-01,9.99999e-01,9.36156e-01,2.93829e-01,9.99647e-01
8.368297885e-01,2.87107e-01,9.99999e-01,9.99999e-01,9.99999e-01,9.53843e-01,3.01024e-01,9.99919e-01
8.410139374e-01,2.99696e-01,9.99999e-01,9.99999e-01,9.99999e-01,9.72300e-01,3.08248e-01,9.99952e-01
8.452190071e-01,3.11170e-01,9.99999e-01,9.99999e-01,9.99999e-01,9.86311e-01,3.15497e-01,9.99971e-01
8.494451021e-01,3.20196e-01,9.99999e-01,9.99999e-01,9.99999e-01,9.92050e-01,3.22769e-01,9.99976e-01
8.536923276e-01,3.28498e-01,9.99999e-01,9.99999e-01,9.99999e-01,9.95284e-01,3.30059e-01,9.99984e-01
8.579607893e-01,3.36386e-01,9.99999e-01,9.99999e-01,9.99999e-01,9.97098e-01,3.37366e-01,9.99995e-01
8.622505932e-01,3.44049e-01,9.99999e-01,9.99999e-01,9.99999e-01,9.98153e-01,3.44685e-01,9.99998e-01
8.665618462e-01,3.12807e-01,9.99999e-01,9.99999e-01,8.89579e-01,9.98859e-01,3.52014e-01,9.99999e-01
8.708946554e-01,1.62480e-01,9.99999e-01,9.99999e-01,4.52704e-01,9.98695e-01,3.59349e-01,9.99998e-01
8.752491287e-01,1.90513e-01,9.99999e-01,9.99999e-01,5.20409e-01,9.98254e-01,3.66687e-01,9.99997e-01
8.796253743e-01,2.59026e-01,9.99999e-01,9.99999e-01,6.94112e-01,9.97587e-01,3.74026e-01,9.99994e-01
8.840235012e-01,3.14103e-01,9.99999e-01,9.99999e-01,8.25853e-01,9.97243e-01,3.81363e-01,9.99982e-01
8.884436187e-01,3.56789e-01,9.99999e-01,9.99999e-01,9.26978e-01,9.90072e-01,3.88694e-01,9.99951e-01
8.928858368e-01,3.45743e-01,9.99999e-01,9.99999e-01,9.69747e-01,9.00022e-01,3.96017e-01,9.99723e-01
8.973502660e-01,3.31743e-01,9.99999e-01,9.99999e-01,9.92545e-01,8.29595e-01,4.03330e-01,9.98586e-01
9.018370173e-01,3.72048e-01,9.99999e-01,9.99999e-01,9.99174e-01,9.08762e-01,4.10629e-01,9.97778e-01
9.063462024e-01,3.76276e-01,9.99999e-01,9.99999e-01,9.79556e-01,9.19700e-01,4.17912e-01,9.98048e-01
9.108779334e-01,3.55139e-01,9.99999e-01,9.99999e-01,9.52770e-01,8.77375e-01,4.25176e-01,9.97971e-01
9.154323231e-01,3.67905e-01,9.99999e-01,9.99999e-01,9.88657e-01,8.61568e-01,4.32420e-01,9.98323e-01
9.200094847e-01,3.39793e-01,9.99999e-01,9.99999e-01,8.59226e-01,8.89897e-01,4.39640e-01,9.99061e-01
9.246095321e-01,2.97522e-01,9.99999e-01,9.99999e-01,7.89901e-01,8.37369e-01,4.46835e-01,9.98918e-01
9.292325798e-01,1.22632e-01,9.99999e-01,9.99999e-01,8.33558e-01,3.15132e-01,4.54002e-01,9.95789e-01
9.338787427e-01,8.79857e-02,9.99999e-01,9.99999e-01,8.36954e-01,2.24939e-01,4.61139e-01,9.82708e-01
9.385481364e-01,2.22433e-01,9.99999e-01,9.99999e-01,8.76863e-01,5.45403e-01,4.68244e-01,9.79467e-01
9.432408771e-01,1.91542e-01,9.99999e-01,9.99999e-01,9.22368e-01,4.41255e-01,4.75314e-01,9.82261e-01
9.479570815e-01,1.48931e-01,9.99999e-01,9.99999e-01,9.59418e-01,3.25268e-01,4.82349e-01,9.85539e-01
9.526968669e-01,2.00949e-01,9.99999e-01,9.99999e-01,9.80218e-01,4.21399e-01,4.89345e-01,9.91154e-01
9.574603512e-01,2.16739e-01,9.99999e-01,9.99999e-01,9.91486e-01,4.41960e-01,4.96302e-01,9.95496e-01
9.622476530e-01,2.55446e-01,9.99999e-01,9.99999e-01,9.97335e-01,5.10409e-01,5.03218e-01,9.96883e-01
9.670588912e-01,3.44539e-01,9.99999e-01,9.99999e-01,9.99200e-01,6.77376e-01,5.10091e-01,9.97867e-01
9.718941857e-01,4.03218e-01,9.99999e-01,9.99999e-01,9.99942e-01,7.81305e-01,5.16918e-01,9.98429e-01
9.767536566e-01,4.26112e-01,9.99999e-01,9.99999e-01,9.99999e-01,8.14633e-01,5.23700e-01,9.98799e-01
9.816374249e-01,4.55220e-01,9.99999e-01,9.99999e-01,9.99999e-01,8.58558e-01,5.30434e-01,9.99584e-01
9.865456120e-01,4.88185e-01,9.99999e-01,9.99999e-01,9.99999e-01,9.08973e-01,5.37119e-01,9.99912e-01
9.914783401e-01,5.12570e-01,9.99999e-01,9.99999e-01,9.99999e-01,9.42672e-01,5.43754e-01,9.99975e-01
9.964357318e-01,5.32916e-01,9.99999e-01,9.99999e-01,9.99999e-01,9.68357e-01,5.50337e-01,9.99985e-01
1.001417910e+00,5.46225e-01,9.99999e-01,9.99999e-01,9.99999e-01,9.80908e-01,5.56868e-01,9.99978e-01
1.006425000e+00,5.57178e-01,9.99999e-01,9.99999e-01,9.99999e-01,9.89082e-01,5.63344e-01,9.99968e-01
1.011457125e+00,5.65878e-01,9.99999e-01,9.99999e-01,9.99999e-01,9.93202e-01,5.69766e-01,9.99971e-01
1.016514411e+00,5.73462e-01,9.99999e-01,9.99999e-01,9.99999e-01,9.95383e-01,5.76133e-01,9.99979e-01
1.021596983e+00,5.80227e-01,9.99999e-01,9.99999e-01,9.99894e-01,9.96321e-01,5.82442e-01,9.99979e-01
1.026704968e+00,5.82270e-01,9.99999e-01,9.99999e-01,9.91938e-01,9.97130e-01,5.88694e-01,9.99986e-01
1.031838492e+00,5.50495e-01,9.99999e-01,9.99999e-01,9.27230e-01,9.97912e-01,5.94887e-01,9.99995e-01
1.036997685e+00,4.48970e-02,9.99999e-01,9.99999e-01,7.47716e-02,9.98760e-01,6.01022e-01,9.99998e-01
1.042182673e+00,8.82397e-03,9.99999e-01,9.99999e-01,1.45521e-02,9.98525e-01,6.07096e-01,9.99999e-01
1.047393587e+00,1.77588e-02,9.99999e-01,9.99999e-01,2.90134e-02,9.98042e-01,6.13111e-01,9.99999e-01
1.052630555e+00,1.99820e-05,9.99999e-01,9.99999e-01,3.23350e-05,9.97316e-01,6.19064e-01,9.99998e-01
1.057893707e+00,7.05295e-05,9.99999e-01,9.99999e-01,1.13140e-04,9.95526e-01,6.24956e-01,9.99997e-01
1.063183176e+00,7.21406e-04,9.99999e-01,9.99999e-01,1.14889e-03,9.92645e-01,6.30786e-01,9.99995e-01
1.068499092e+00,4.44082e-03,9.99999e-01,9.99999e-01,7.03972e-03,9.87705e-01,6.36553e-01,9.99991e-01
1.073841587e+00,2.67364e-02,9.99999e-01,9.99999e-01,4.20931e-02,9.85644e-01,6.42258e-01,9.99981e-01
