#,Wave/freq,Total,N2,O2,CO2,H2O,Rayleigh,CIA
4.000000000e-01,1.90101e-16,9.99999e-01,9.99999e-01,9.99999e-01,9.99930e-01,1.90115e-16,9.99999e-01
4.020000000e-01,3.88900e-16,9.99999e-01,9.99999e-01,9.99999e-01,9.99956e-01,3.88916e-16,9.99999e-01
4.040100000e-01,7.83857e-16,9.99999e-01,9.99999e-01,9.99999e-01,9.99981e-01,7.83872e-16,9.99999e-01
4.060300500e-01,1.55819e-15,9.99999e-01,9.99999e-01,9.99999e-01,9.99995e-01,1.55819e-15,9.99999e-01
4.080602003e-01,3.05564e-15,9.99999e-01,9.99999e-01,9.99999e-01,9.99998e-01,3.05565e-15,9.99999e-01
4.101005013e-01,5.91301e-15,9.99999e-01,9.99999e-01,9.99999e-01,9.99999e-01,5.91301e-15,9.99999e-01
4.121510038e-01,1.12940e-14,9.99999e-01,9.99999e-01,9.99999e-01,9.99996e-01,1.12941e-14,9.99999e-01
4.142117588e-01,2.12977e-14,9.99999e-01,9.99999e-01,9.99999e-01,9.99980e-01,2.12981e-14,9.99999e-01
4.162828176e-01,3.96600e-14,9.99999e-01,9.99999e-01,9.99999e-01,9.99913e-01,3.96635e-14,9.99999e-01
4.183642317e-01,7.29597e-14,9.99999e-01,9.99999e-01,9.99999e-01,9.99948e-01,7.29635e-14,9.99999e-01
4.204560528e-01,1.32611e-13,9.99999e-01,9.99999e-01,9.99999e-01,9.99968e-01,1.32615e-13,9.99999e-01
4.225583331e-01,2.38203e-13,9.99999e-01,9.99999e-01,9.99999e-01,9.99987e-01,2.38206e-13,9.99999e-01
4.246711247e-01,4.22946e-13,9.99999e-01,9.99999e-01,9.99999e-01,9.99990e-01,4.22950e-13,9.99999e-01
4.267944804e-01,7.42496e-13,9.99999e-01,9.99999e-01,9.99999e-01,9.99985e-01,7.42507e-13,9.99999e-01
4.289284528e-01,1.28908e-12,9.99999e-01,9.99999e-01,9.99999e-01,9.99988e-01,1.28909e-12,9.99999e-01
4.310730950e-01,2.21377e-12,9.99999e-01,9.99999e-01,9.99999e-01,9.99995e-01,2.21378e-12,9.99999e-01
4.332284605e-01,3.76138e-12,9.99999e-01,9.99999e-01,9.99999e-01,9.99998e-01,3.76139e-12,9.99999e-01
4.353946028e-01,6.32431e-12,9.99999e-01,9.99999e-01,9.99999e-01,9.99998e-01,6.32431e-12,9.99999e-01
4.375715758e-01,1.05249e-11,9.99999e-01,9.99999e-01,9.99999e-01,9.99990e-01,1.05250e-11,9.99999e-01
4.397594337e-01,1.73391e-11,9.99999e-01,9.99999e-01,9.99999e-01,9.99922e-01,1.73404e-11,9.99999e-01
4.419582309e-01,2.82777e-11,9.99999e-01,9.99999e-01,9.99999e-01,9.99609e-01,2.82888e-11,9.99999e-01
4.441680220e-01,4.56922e-11,9.99999e-01,9.99999e-01,9.99999e-01,9.99701e-01,4.57058e-11,9.99999e-01
4.463888621e-01,7.31268e-11,9.99999e-01,9.99999e-01,9.99999e-01,9.99687e-01,7.31497e-11,9.99999e-01
4.486208064e-01,1.15967e-10,9.99999e-01,9.99999e-01,9.99999e-01,9.99806e-01,1.15990e-10,9.99999e-01
4.508639105e-01,1.82235e-10,9.99999e-01,9.99999e-01,9.99999e-01,9.99909e-01,1.82252e-10,9.99999e-01
4.531182300e-01,2.83813e-10,9.99999e-01,9.99999e-01,9.99999e-01,9.99963e-01,2.83823e-10,9.99999e-01
4.553838212e-01,4.38140e-10,9.99999e-01,9.99999e-01,9.99999e-01,9.99975e-01,4.38151e-10,9.99999e-01
4.576607403e-01,6.70609e-10,9.99999e-01,9.99999e-01,9.99999e-01,9.99988e-01,6.70617e-10,9.99999e-01
4.599490440e-01,1.01782e-09,9.99999e-01,9.99999e-01,9.99999e-01,9.99991e-01,1.01783e-09,9.99999e-01
4.622487892e-01,1.53213e-09,9.99999e-01,9.99999e-01,9.99999e-01,9.99998e-01,1.53213e-09,9.99999e-01
4.645600332e-01,2.28773e-09,9.99999e-01,9.99999e-01,9.99999e-01,9.99993e-01,2.28774e-09,9.99999e-01
4.668828333e-01,3.38876e-09,9.99999e-01,9.99999e-01,9.99999e-01,9.99907e-01,3.38907e-09,9.99999e-01
4.692172475e-01,4.98078e-09,9.99999e-01,9.99999e-01,9.99999e-01,9.99803e-01,4.98175e-09,9.99999e-01
4.715633337e-01,7.26648e-09,9.99999e-01,9.99999e-01,9.99999e-01,9.99871e-01,7.26741e-09,9.99999e-01
4.739211504e-01,1.05217e-08,9.99999e-01,9.99999e-01,9.99999e-01,9.99877e-01,1.05230e-08,9.99999e-01
4.762907561e-01,1.51249e-08,9.99999e-01,9.99999e-01,9.99999e-01,9.99936e-01,1.51259e-08,9.99999e-01
4.786722099e-01,2.15863e-08,9.99999e-01,9.99999e-01,9.99999e-01,9.99973e-01,2.15869e-08,9.99999e-01
4.810655710e-01,3.05918e-08,9.99999e-01,9.99999e-01,9.99999e-01,9.99991e-01,3.05921e-08,9.99999e-01
4.834708988e-01,4.30530e-08,9.99999e-01,9.99999e-01,9.99999e-01,9.99922e-01,4.30563e-08,9.99999e-01
4.858882533e-01,6.01828e-08,9.99999e-01,9.99999e-01,9.99999e-01,9.99861e-01,6.01911e-08,9.99999e-01
4.883176946e-01,8.35803e-08,9.99999e-01,9.99999e-01,9.99999e-01,9.99883e-01,8.35901e-08,9.99999e-01
4.907592831e-01,1.15323e-07,9.99999e-01,9.99999e-01,9.99999e-01,9.99894e-01,1.15335e-07,9.99999e-01
4.932130795e-01,1.58114e-07,9.99999e-01,9.99999e-01,9.99999e-01,9.99925e-01,1.58126e-07,9.99999e-01
4.956791449e-01,2.15438e-07,9.99999e-01,9.99999e-01,9.99999e-01,9.99960e-01,2.15447e-07,9.99999e-01
4.981575406e-01,2.91700e-07,9.99999e-01,9.99999e-01,9.99999e-01,9.99801e-01,2.91758e-07,9.99999e-01
5.006483283e-01,3.92536e-07,9.99999e-01,9.99999e-01,9.99999e-01,9.99483e-01,3.92740e-07,9.99996e-01
5.031515699e-01,5.24201e-07,9.99999e-01,9.99999e-01,9.99999e-01,9.97407e-01,5.25578e-07,9.99972e-01
5.056673278e-01,6.98335e-07,9.99999e-01,9.99999e-01,9.99999e-01,9.98635e-01,6.99310e-07,9.99968e-01
5.081956644e-01,9.23629e-07,9.99999e-01,9.99999e-01,9.99999e-01,9.98280e-01,9.25237e-07,9.99980e-01
5.107366428e-01,1.21599e-06,9.99999e-01,9.99999e-01,9.99999e-01,9.98839e-01,1.21740e-06,9.99996e-01
5.132903260e-01,1.59211e-06,9.99999e-01,9.99999e-01,9.99999e-01,9.99337e-01,1.59317e-06,9.99999e-01
5.158567776e-01,2.07329e-06,9.99999e-01,9.99999e-01,9.99999e-01,9.99720e-01,2.07387e-06,9.99999e-01
5.184360615e-01,2.68529e-06,9.99999e-01,9.99999e-01,9.99999e-01,9.99887e-01,2.68559e-06,9.99999e-01
5.210282418e-01,3.45988e-06,9.99999e-01,9.99999e-01,9.99999e-01,9.99957e-01,3.46003e-06,9.99999e-01
5.236333830e-01,4.43478e-06,9.99999e-01,9.99999e-01,9.99999e-01,9.99830e-01,4.43554e-06,9.99998e-01
5.262515499e-01,5.65764e-06,9.99999e-01,9.99999e-01,9.99999e-01,9.99894e-01,5.65825e-06,9.99997e-01
5.288828077e-01,7.18269e-06,9.99999e-01,9.99999e-01,9.99999e-01,9.99902e-01,7.18339e-06,9.99998e-01
5.315272217e-01,9.07597e-06,9.99999e-01,9.99999e-01,9.99999e-01,9.99914e-01,9.07674e-06,9.99999e-01
5.341848578e-01,1.14156e-05,9.99999e-01,9.99999e-01,9.99999e-01,9.99943e-01,1.14162e-05,9.99999e-01
5.368557821e-01,1.42910e-05,9.99999e-01,9.99999e-01,9.99999e-01,9.99801e-01,1.42939e-05,9.99999e-01
5.395400610e-01,1.78046e-05,9.99999e-01,9.99999e-01,9.99999e-01,9.99281e-01,1.78175e-05,9.99992e-01
5.422377613e-01,2.20928e-05,9.99999e-01,9.99999e-01,9.99999e-01,9.99086e-01,2.21134e-05,9.99982e-01
5.449489501e-01,2.73042e-05,9.99999e-01,9.99999e-01,9.99999e-01,9.99143e-01,2.73281e-05,9.99982e-01
5.476736949e-01,3.36061e-05,9.99999e-01,9.99999e-01,9.99999e-01,9.99248e-01,3.36316e-05,9.99991e-01
5.504120634e-01,4.11972e-05,9.99999e-01,9.99999e-01,9.99999e-01,9.99453e-01,4.12198e-05,9.99997e-01
5.531641237e-01,5.03035e-05,9.99999e-01,9.99999e-01,9.99999e-01,9.99725e-01,5.03174e-05,9.99999e-01
5.559299443e-01,6.11733e-05,9.99999e-01,9.99999e-01,9.99999e-01,9.99867e-01,6.11814e-05,9.99999e-01
5.587095940e-01,7.40983e-05,9.99999e-01,9.99999e-01,9.99999e-01,9.99916e-01,7.41045e-05,9.99999e-01
5.615031420e-01,8.94097e-05,9.99999e-01,9.99999e-01,9.99999e-01,9.99906e-01,8.94180e-05,9.99999e-01
5.643106577e-01,1.07485e-04,9.99999e-01,9.99999e-01,9.99999e-01,9.99892e-01,1.07497e-04,9.99998e-01
5.671322110e-01,1.28592e-04,9.99999e-01,9.99999e-01,9.99999e-01,9.98695e-01,1.28761e-04,9.99988e-01
5.699678720e-01,1.53470e-04,9.99999e-01,9.99999e-01,9.99999e-01,9.98650e-01,1.53683e-04,9.99964e-01
5.728177114e-01,1.82524e-04,9.99999e-01,9.99999e-01,9.99999e-01,9.98578e-01,1.82789e-04,9.99970e-01
5.756818000e-01,2.16378e-04,9.99999e-01,9.99999e-01,9.99999e-01,9.98698e-01,2.16663e-04,9.99982e-01
5.785602090e-01,2.55663e-04,9.99999e-01,9.99999e-01,9.99999e-01,9.98868e-01,2.55954e-04,9.99994e-01
5.814530100e-01,3.01033e-04,9.99999e-01,9.99999e-01,9.99999e-01,9.98860e-01,3.01377e-04,9.99997e-01
5.843602750e-01,3.53231e-04,9.99999e-01,9.99999e-01,9.99999e-01,9.98631e-01,3.53717e-04,9.99991e-01
5.872820764e-01,4.08955e-04,9.99999e-01,9.99999e-01,9.99999e-01,9.88285e-01,4.13837e-04,9.99917e-01
5.902184868e-01,4.75778e-04,9.99999e-01,9.99999e-01,9.99999e-01,9.85930e-01,4.82675e-04,9.99775e-01
5.931695792e-01,5.55536e-04,9.99999e-01,9.99999e-01,9.99999e-01,9.90020e-01,5.61256e-04,9.99784e-01
5.961354271e-01,6.43506e-04,9.99999e-01,9.99999e-01,9.99999e-01,9.89083e-01,6.50688e-04,9.99875e-01
5.991161043e-01,7.46152e-04,9.99999e-01,9.99999e-01,9.99999e-01,9.92034e-01,7.52171e-04,9.99961e-01
6.021116848e-01,8.63073e-04,9.99999e-01,9.99999e-01,9.99999e-01,9.95478e-01,8.66996e-04,9.99995e-01
6.051222432e-01,9.94269e-04,9.99999e-01,9.99999e-01,9.99999e-01,9.97710e-01,9.96550e-04,9.99999e-01
6.081478544e-01,1.14119e-03,9.99999e-01,9.99999e-01,9.99999e-01,9.99010e-01,1.14232e-03,9.99999e-01
6.111885937e-01,1.30533e-03,9.99999e-01,9.99999e-01,9.99999e-01,9.99582e-01,1.30588e-03,9.99999e-01
6.142445367e-01,1.48864e-03,9.99999e-01,9.99999e-01,9.99999e-01,9.99812e-01,1.48892e-03,9.99999e-01
6.173157594e-01,1.69304e-03,9.99999e-01,9.99999e-01,9.99999e-01,9.99896e-01,1.69322e-03,9.99999e-01
6.204023382e-01,1.92050e-03,9.99999e-01,9.99999e-01,9.99999e-01,9.99911e-01,1.92067e-03,9.99999e-01
6.235043498e-01,2.17240e-03,9.99999e-01,9.99999e-01,9.99999e-01,9.99607e-01,2.17326e-03,9.99998e-01
6.266218716e-01,2.44803e-03,9.99999e-01,9.99999e-01,9.99999e-01,9.97959e-01,2.45307e-03,9.99985e-01
6.297549810e-01,2.76015e-03,9.99999e-01,9.99999e-01,9.99999e-01,9.99251e-01,2.76229e-03,9.99970e-01
6.329037559e-01,3.09856e-03,9.99999e-01,9.99999e-01,9.99999e-01,9.98524e-01,3.10321e-03,9.99976e-01
6.360682746e-01,3.47376e-03,9.99999e-01,9.99999e-01,9.99999e-01,9.98737e-01,3.47819e-03,9.99985e-01
6.392486160e-01,3.88335e-03,9.99999e-01,9.99999e-01,9.99999e-01,9.98368e-01,3.88972e-03,9.99993e-01
6.424448591e-01,4.33074e-03,9.99999e-01,9.99999e-01,9.99999e-01,9.97798e-01,4.34034e-03,9.99988e-01
6.456570834e-01,4.78321e-03,9.99999e-01,9.99999e-01,9.99999e-01,9.89823e-01,4.83268e-03,9.99938e-01
6.488853688e-01,5.32902e-03,9.99999e-01,9.99999e-01,9.99999e-01,9.92623e-01,5.36947e-03,9.99842e-01
6.521297956e-01,5.90797e-03,9.99999e-01,9.99999e-01,9.99999e-01,9.92484e-01,5.95348e-03,9.99869e-01
6.553904446e-01,6.53737e-03,9.99999e-01,9.99999e-01,9.99999e-01,9.92476e-01,6.58756e-03,9.99902e-01
6.586673968e-01,7.22771e-03,9.99999e-01,9.99999e-01,9.99999e-01,9.93583e-01,7.27461e-03,9.99967e-01
6.619607338e-01,7.98885e-03,9.99999e-01,9.99999e-01,9.99999e-01,9.96420e-01,8.01760e-03,9.99992e-01
6.652705375e-01,8.80053e-03,9.99999e-01,9.99999e-01,9.99999e-01,9.97850e-01,8.81952e-03,9.99996e-01
6.685968902e-01,9.67454e-03,9.99999e-01,9.99999e-01,9.99999e-01,9.99086e-01,9.68339e-03,9.99998e-01
6.719398746e-01,1.06074e-02,9.99999e-01,9.99999e-01,9.99999e-01,9.99537e-01,1.06123e-02,9.99999e-01
6.752995740e-01,1.16064e-02,9.99999e-01,9.99999e-01,9.99999e-01,9.99755e-01,1.16092e-02,9.99999e-01
6.786760719e-01,1.26727e-02,9.99999e-01,9.99999e-01,9.99999e-01,9.99633e-01,1.26773e-02,9.99999e-01
6.820694522e-01,1.38110e-02,9.99999e-01,9.99999e-01,9.99999e-01,9.99370e-01,1.38197e-02,9.99996e-01
6.854797995e-01,1.50271e-02,9.99999e-01,9.99999e-01,9.99999e-01,9.99195e-01,1.50393e-02,9.99992e-01
6.889071985e-01,1.63067e-02,9.99999e-01,9.99999e-01,9.99999e-01,9.98026e-01,1.63393e-02,9.99982e-01
6.923517345e-01,1.71629e-02,9.99999e-01,9.99999e-01,9.99999e-01,9.68567e-01,1.77225e-02,9.99847e-01
6.958134932e-01,1.88763e-02,9.99999e-01,9.99999e-01,9.99999e-01,9.83881e-01,1.91920e-02,9.99663e-01
6.992925606e-01,2.04197e-02,9.99999e-01,9.99999e-01,9.99999e-01,9.84341e-01,2.07508e-02,9.99696e-01
7.027890234e-01,2.19674e-02,9.99999e-01,9.99999e-01,9.99999e-01,9.80850e-01,2.24015e-02,9.99767e-01
7.063029686e-01,2.37544e-02,9.99999e-01,9.99999e-01,9.99999e-01,9.83853e-01,2.41470e-02,9.99884e-01
7.098344834e-01,2.55854e-02,9.99999e-01,9.99999e-01,9.99999e-01,9.84500e-01,2.59899e-02,9.99931e-01
7.133836558e-01,2.73477e-02,9.99999e-01,9.99999e-01,9.99999e-01,9.79181e-01,2.79329e-02,9.99864e-01
7.169505741e-01,2.53589e-02,9.99999e-01,9.99999e-01,9.99999e-01,8.46803e-01,2.99785e-02,9.98933e-01
7.205353270e-01,2.95962e-02,9.99999e-01,9.99999e-01,9.99999e-01,9.22903e-01,3.21290e-02,9.98120e-01
7.241380036e-01,3.09488e-02,9.99999e-01,9.99999e-01,9.99999e-01,9.01486e-01,3.43866e-02,9.98376e-01
7.277586936e-01,3.34299e-02,9.99999e-01,9.99999e-01,9.99999e-01,9.10779e-01,3.67535e-02,9.98672e-01
7.313974871e-01,3.55093e-02,9.99999e-01,9.99999e-01,9.99999e-01,9.05677e-01,3.92318e-02,9.99377e-01
7.350544745e-01,3.96039e-02,9.99999e-01,9.99999e-01,9.99999e-01,9.47141e-01,4.18232e-02,9.99783e-01
7.387297469e-01,4.27794e-02,9.99999e-01,9.99999e-01,9.99999e-01,9.60793e-01,4.45295e-02,9.99900e-01
7.424233956e-01,4.64352e-02,9.99999e-01,9.99999e-01,9.99999e-01,9.80652e-01,4.73522e-02,9.99982e-01
7.461355126e-01,4.96998e-02,9.99999e-01,9.99999e-01,9.99999e-01,9.88211e-01,5.02927e-02,9.99996e-01
7.498661902e-01,5.30595e-02,9.99999e-01,9.99999e-01,9.99999e-01,9.94510e-01,5.33524e-02,9.99998e-01
7.536155211e-01,5.63793e-02,9.99999e-01,9.99999e-01,9.99999e-01,9.97295e-01,5.65322e-02,9.99998e-01
7.573835987e-01,5.97497e-02,9.99999e-01,9.99999e-01,9.99999e-01,9.98607e-01,5.98330e-02,9.99999e-01
7.611705167e-01,6.32009e-02,9.99999e-01,9.99999e-01,9.99999e-01,9.99134e-01,6.32556e-02,9.99999e-01
7.649763693e-01,6.67644e-02,9.99999e-01,9.99999e-01,9.99999e-01,9.99456e-01,6.68006e-02,9.99999e-01
7.688012511e-01,7.04417e-02,9.99999e-01,9.99999e-01,9.99999e-01,9.99620e-01,7.04683e-02,9.99999e-01
7.726452574e-01,7.42358e-02,9.99999e-01,9.99999e-01,9.99999e-01,9.99687e-01,7.42590e-02,9.99999e-01
7.765084837e-01,7.81377e-02,9.99999e-01,9.99999e-01,9.99999e-01,9.99553e-01,7.81726e-02,9.99998e-01
7.803910261e-01,7.41519e-02,9.99999e-01,9.99999e-01,9.03587e-01,9.98068e-01,8.22090e-02,9.99997e-01
7.842929812e-01,5.28798e-02,9.99999e-01,9.99999e-01,6.15881e-01,9.93271e-01,8.63679e-02,9.99987e-01
7.882144461e-01,5.35542e-02,9.99999e-01,9.99999e-01,5.98158e-01,9.86298e-01,9.06488e-02,9.99905e-01
7.921555184e-01,6.86540e-02,9.99999e-01,9.99999e-01,7.27468e-01,9.92505e-01,9.50510e-02,9.99835e-01
7.961162960e-01,7.93126e-02,9.99999e-01,9.99999e-01,8.07124e-01,9.86641e-01,9.95737e-02,9.99843e-01
8.000968774e-01,9.13258e-02,9.99999e-01,9.99999e-01,8.89982e-01,9.84661e-01,1.04216e-01,9.99833e-01
8.040973618e-01,1.01024e-01,9.99999e-01,9.99999e-01,9.41516e-01,9.84638e-01,1.08976e-01,9.99872e-01
8.081178486e-01,1.06923e-01,9.99999e-01,9.99999e-01,9.72577e-01,9.65565e-01,1.13854e-01,9.99871e-01
8.121584379e-01,1.01920e-01,9.99999e-01,9.99999e-01,9.91536e-01,8.65076e-01,1.18847e-01,9.99513e-01
8.162192301e-01,1.04204e-01,9.99999e-01,9.99999e-01,9.98123e-01,8.43694e-01,1.23953e-01,9.98171e-01
8.203003262e-01,1.18441e-01,9.99999e-01,9.99999e-01,9.99974e-01,9.18907e-01,1.29172e-01,9.97858e-01
8.244018279e-01,1.19753e-01,9.99999e-01,9.99999e-01,9.99999e-01,8.91869e-01,1.34501e-01,9.98295e-01
8.285238370e-01,1.26128e-01,9.99999e-01,9.99999e-01,9.99999e-01,9.02522e-01,1.39938e-01,9.98661e-01
8.326664562e-01,1.31158e-01,9.99999e-01,9.99999e-01,9.99999e-01,9.02050e-01,1.45480e-01,9.99445e-01
8.368297885e-01,1.40350e-01,9.99999e-01,9.99999e-01,9.99999e-01,9.28806e-01,1.51127e-01,9.99873e-01
8.410139374e-01,1.50124e-01,9.99999e-01,9.99999e-01,9.99999e-01,9.57040e-01,1.56874e-01,9.99925e-01
8.452190071e-01,1.59249e-01,9.99999e-01,9.99999e-01,9.99999e-01,9.78710e-01,1.62720e-01,9.99955e-01
8.494451021e-01,1.66555e-01,9.99999e-01,9.99999e-01,9.99999e-01,9.87544e-01,1.68662e-01,9.99964e-01
8.536923276e-01,1.73408e-01,9.99999e-01,9.99999e-01,9.99999e-01,9.92640e-01,1.74697e-01,9.99977e-01
8.579607893e-01,1.79999e-01,9.99999e-01,9.99999e-01,9.99999e-01,9.95449e-01,1.80822e-01,9.99994e-01
8.622505932e-01,1.86495e-01,9.99999e-01,9.99999e-01,9.99999e-01,9.97113e-01,1.87035e-01,9.99998e-01
8.665618462e-01,1.65777e-01,9.99999e-01,9.99999e-01,8.58907e-01,9.98207e-01,1.93332e-01,9.99998e-01
8.708946554e-01,6.04111e-02,9.99999e-01,9.99999e-01,3.03060e-01,9.97942e-01,1.99711e-01,9.99998e-01
8.752491287e-01,7.59770e-02,9.99999e-01,9.99999e-01,3.69462e-01,9.97251e-01,2.06168e-01,9.99996e-01
8.796253743e-01,1.20988e-01,9.99999e-01,9.99999e-01,5.70819e-01,9.96183e-01,2.12699e-01,9.99991e-01
8.840235012e-01,1.62303e-01,9.99999e-01,9.99999e-01,7.43186e-01,9.95645e-01,2.19303e-01,9.99973e-01
8.884436187e-01,1.97813e-01,9.99999e-01,9.99999e-01,8.89225e-01,9.83986e-01,2.25975e-01,9.99924e-01
8.928858368e-01,1.88021e-01,9.99999e-01,9.99999e-01,9.53323e-01,8.46684e-01,2.32712e-01,9.99565e-01
8.973502660e-01,1.76846e-01,9.99999e-01,9.99999e-01,9.88516e-01,7.48032e-01,2.39512e-01,9.97775e-01
9.018370173e-01,2.11717e-01,9.99999e-01,9.99999e-01,9.98731e-01,8.63350e-01,2.46369e-01,9.96505e-01
9.063462024e-01,2.14811e-01,9.99999e-01,9.99999e-01,9.67501e-01,8.76367e-01,2.53282e-01,9.96929e-01
9.108779334e-01,1.96628e-01,9.99999e-01,9.99999e-01,9.27323e-01,8.14994e-01,2.60246e-01,9.96809e-01
9.154323231e-01,2.07777e-01,9.99999e-01,9.99999e-01,9.82616e-01,7.92339e-01,2.67259e-01,9.97361e-01
9.200094847e-01,1.87059e-01,9.99999e-01,9.99999e-01,7.98220e-01,8.34225e-01,2.74316e-01,9.98522e-01
9.246095321e-01,1.49767e-01,9.99999e-01,9.99999e-01,6.92660e-01,7.56855e-01,2.81415e-01,9.98297e-01
9.292325798e-01,4.09696e-02,9.99999e-01,9.99999e-01,7.52228e-01,1.78369e-01,2.88552e-01,9.91809e-01
9.338787427e-01,2.52627e-02,9.99999e-01,9.99999e-01,7.58470e-01,1.09445e-01,2.95724e-01,9.70711e-01
9.385481364e-01,9.98136e-02,9.99999e-01,9.99999e-01,8.14598e-01,4.05952e-01,3.02927e-01,9.67867e-01
9.432408771e-01,8.01515e-02,9.99999e-01,9.99999e-01,8.81610e-01,2.96438e-01,3.10157e-01,9.72217e-01
9.479570815e-01,5.45769e-02,9.99999e-01,9.99999e-01,9.37205e-01,1.86121e-01,3.17413e-01,9.77329e-01
9.526968669e-01,8.50720e-02,9.99999e-01,9.99999e-01,9.69311e-01,2.72454e-01,3.24690e-01,9.86110e-01
9.574603512e-01,9.42888e-02,9.99999e-01,9.99999e-01,9.86757e-01,2.89172e-01,3.31985e-01,9.92920e-01
9.622476530e-01,1.20692e-01,9.99999e-01,9.99999e-01,9.95854e-01,3.58696e-01,3.39295e-01,9.95098e-01
9.670588912e-01,1.89722e-01,9.99999e-01,9.99999e-01,9.98758e-01,5.49770e-01,3.46617e-01,9.96645e-01
9.718941857e-01,2.40212e-01,9.99999e-01,9.99999e-01,9.99913e-01,6.80392e-01,3.53948e-01,9.97529e-01
9.767536566e-01,2.61766e-01,9.99999e-01,9.99999e-01,9.99999e-01,7.25914e-01,3.61284e-01,9.98111e-01
9.816374249e-01,2.90342e-01,9.99999e-01,9.99999e-01,9.99999e-01,7.88155e-01,3.68623e-01,9.99345e-01
9.865456120e-01,3.23817e-01,9.99999e-01,9.99999e-01,9.99999e-01,8.61421e-01,3.75961e-01,9.99863e-01
9.914783401e-01,3.49429e-01,9.99999e-01,9.99999e-01,9.99999e-01,9.11675e-01,3.83297e-01,9.99961e-01
9.964357318e-01,3.71434e-01,9.99999e-01,9.99999e-01,9.99999e-01,9.50889e-01,3.90626e-01,9.99977e-01
1.001417910e+00,3.86103e-01,9.99999e-01,9.99999e-01,9.99999e-01,9.70269e-01,3.97947e-01,9.99965e-01
1.006425000e+00,3.98308e-01,9.99999e-01,9.99999e-01,9.99999e-01,9.82901e-01,4.05256e-01,9.99951e-01
1.011457125e+00,4.08152e-01,9.99999e-01,9.99999e-01,9.99999e-01,9.89381e-01,4.12551e-01,9.99954e-01
1.016514411e+00,4.16781e-01,9.99999e-01,9.99999e-01,9.99999e-01,9.92768e-01,4.19830e-01,9.99968e-01
1.021596983e+00,4.24527e-01,9.99999e-01,9.99999e-01,9.99798e-01,9.94230e-01,4.27089e-01,9.99968e-01
1.026704968e+00,4.26731e-01,9.99999e-01,9.99999e-01,9.86957e-01,9.95495e-01,4.34327e-01,9.99980e-01
1.031838492e+00,3.93902e-01,9.99999e-01,9.99999e-01,8.94862e-01,9.96730e-01,4.41540e-01,9.99993e-01
1.036997685e+00,2.01282e-02,9.99999e-01,9.99999e-01,4.49219e-02,9.98053e-01,4.48728e-01,9.99998e-01
1.042182673e+00,1.05555e-03,9.99999e-01,9.99999e-01,2.31946e-03,9.97670e-01,4.55887e-01,9.99999e-01
1.047393587e+00,2.82040e-03,9.99999e-01,9.99999e-01,6.10692e-03,9.96917e-01,4.63016e-01,9.99998e-01
1.052630555e+00,1.68935e-07,9.99999e-01,9.99999e-01,3.60303e-07,9.95766e-01,4.70112e-01,9.99998e-01
1.057893707e+00,6.50372e-07,9.99999e-01,9.99999e-01,1.36790e-06,9.92931e-01,4.77173e-01,9.99997e-01
1.063183176e+00,2.26913e-05,9.99999e-01,9.99999e-01,4.71739e-05,9.88408e-01,4.84198e-01,9.99993e-01
1.068499092e+00,2.57028e-04,9.99999e-01,9.99999e-01,5.29882e-04,9.80695e-01,4.91184e-01,9.99986e-01
1.073841587e+00,3.76531e-03,9.99999e-01,9.99999e-01,7.68200e-03,9.77425e-01,4.98130e-01,9.99970e-01
