#,Wave/freq,Total,N2,O2,CO2,H2O,Rayleigh,CIA
4.000000000e-01,7.84544e-07,9.99999e-01,9.99999e-01,9.99999e-01,9.99972e-01,7.84565e-07,9.99999e-01
4.020000000e-01,1.03596e-06,9.99999e-01,9.99999e-01,9.99999e-01,9.99982e-01,1.03598e-06,9.99999e-01
4.040100000e-01,1.36006e-06,9.99999e-01,9.99999e-01,9.99999e-01,9.99992e-01,1.36007e-06,9.99999e-01
4.060300500e-01,1.77598e-06,9.99999e-01,9.99999e-01,9.99999e-01,9.99997e-01,1.77598e-06,9.99999e-01
4.080602003e-01,2.30689e-06,9.99999e-01,9.99999e-01,9.99999e-01,9.99998e-01,2.30689e-06,9.99999e-01
4.101005013e-01,2.98106e-06,9.99999e-01,9.99999e-01,9.99999e-01,9.99999e-01,2.98106e-06,9.99999e-01
4.121510038e-01,3.83279e-06,9.99999e-01,9.99999e-01,9.99999e-01,9.99998e-01,3.83279e-06,9.99999e-01
4.142117588e-01,4.90344e-06,9.99999e-01,9.99999e-01,9.99999e-01,9.99992e-01,4.90348e-06,9.99999e-01
4.162828176e-01,6.24260e-06,9.99999e-01,9.99999e-01,9.99999e-01,9.99966e-01,6.24281e-06,9.99999e-01
4.183642317e-01,7.90998e-06,9.99999e-01,9.99999e-01,9.99999e-01,9.99979e-01,7.91014e-06,9.99999e-01
4.204560528e-01,9.97591e-06,9.99999e-01,9.99999e-01,9.99999e-01,9.99987e-01,9.97603e-06,9.99999e-01
4.225583331e-01,1.25239e-05,9.99999e-01,9.99999e-01,9.99999e-01,9.99994e-01,1.25239e-05,9.99999e-01
4.246711247e-01,1.56520e-05,9.99999e-01,9.99999e-01,9.99999e-01,9.99995e-01,1.56521e-05,9.99999e-01
4.267944804e-01,1.94755e-05,9.99999e-01,9.99999e-01,9.99999e-01,9.99994e-01,1.94756e-05,9.99999e-01
4.289284528e-01,2.41287e-05,9.99999e-01,9.99999e-01,9.99999e-01,9.99995e-01,2.41288e-05,9.99999e-01
4.310730950e-01,2.97674e-05,9.99999e-01,9.99999e-01,9.99999e-01,9.99997e-01,2.97675e-05,9.99999e-01
4.332284605e-01,3.65718e-05,9.99999e-01,9.99999e-01,9.99999e-01,9.99999e-01,3.65718e-05,9.99999e-01
4.353946028e-01,4.47492e-05,9.99999e-01,9.99999e-01,9.99999e-01,9.99999e-01,4.47492e-05,9.99999e-01
4.375715758e-01,5.45371e-05,9.99999e-01,9.99999e-01,9.99999e-01,9.99996e-01,5.45373e-05,9.99999e-01
4.397594337e-01,6.62051e-05,9.99999e-01,9.99999e-01,9.99999e-01,9.99970e-01,6.62071e-05,9.99999e-01
4.419582309e-01,8.00548e-05,9.99999e-01,9.99999e-01,9.99999e-01,9.99850e-01,8.00667e-05,9.99999e-01
4.441680220e-01,9.64535e-05,9.99999e-01,9.99999e-01,9.99999e-01,9.99882e-01,9.64648e-05,9.99999e-01
4.463888621e-01,1.15780e-04,9.99999e-01,9.99999e-01,9.99999e-01,9.99878e-01,1.15794e-04,9.99999e-01
4.486208064e-01,1.38486e-04,9.99999e-01,9.99999e-01,9.99999e-01,9.99923e-01,1.38497e-04,9.99999e-01
4.508639105e-01,1.65059e-04,9.99999e-01,9.99999e-01,9.99999e-01,9.99964e-01,1.65065e-04,9.99999e-01
4.531182300e-01,1.96047e-04,9.99999e-01,9.99999e-01,9.99999e-01,9.99985e-01,1.96050e-04,9.99999e-01
4.553838212e-01,2.32058e-04,9.99999e-01,9.99999e-01,9.99999e-01,9.99990e-01,2.32060e-04,9.99999e-01
4.576607403e-01,2.73771e-04,9.99999e-01,9.99999e-01,9.99999e-01,9.99995e-01,2.73772e-04,9.99999e-01
4.599490440e-01,3.21928e-04,9.99999e-01,9.99999e-01,9.99999e-01,9.99996e-01,3.21929e-04,9.99999e-01
4.622487892e-01,3.77346e-04,9.99999e-01,9.99999e-01,9.99999e-01,9.99998e-01,3.77346e-04,9.99999e-01
4.645600332e-01,4.40917e-04,9.99999e-01,9.99999e-01,9.99999e-01,9.99997e-01,4.40918e-04,9.99999e-01
4.668828333e-01,5.13600e-04,9.99999e-01,9.99999e-01,9.99999e-01,9.99963e-01,5.13618e-04,9.99999e-01
4.692172475e-01,5.96459e-04,9.99999e-01,9.99999e-01,9.99999e-01,9.99923e-01,5.96504e-04,9.99999e-01
4.715633337e-01,6.90687e-04,9.99999e-01,9.99999e-01,9.99999e-01,9.99949e-01,6.90721e-04,9.99999e-01
4.739211504e-01,7.97469e-04,9.99999e-01,9.99999e-01,9.99999e-01,9.99951e-01,7.97507e-04,9.99999e-01
4.762907561e-01,9.18168e-04,9.99999e-01,9.99999e-01,9.99999e-01,9.99974e-01,9.18191e-04,9.99999e-01
4.786722099e-01,1.05419e-03,9.99999e-01,9.99999e-01,9.99999e-01,9.99989e-01,1.05420e-03,9.99999e-01
4.810655710e-01,1.20705e-03,9.99999e-01,9.99999e-01,9.99999e-01,9.99996e-01,1.20706e-03,9.99999e-01
4.834708988e-01,1.37834e-03,9.99999e-01,9.99999e-01,9.99999e-01,9.99970e-01,1.37838e-03,9.99999e-01
4.858882533e-01,1.56983e-03,9.99999e-01,9.99999e-01,9.99999e-01,9.99945e-01,1.56991e-03,9.99999e-01
4.883176946e-01,1.78338e-03,9.99999e-01,9.99999e-01,9.99999e-01,9.99954e-01,1.78346e-03,9.99999e-01
4.907592831e-01,2.02088e-03,9.99999e-01,9.99999e-01,9.99999e-01,9.99958e-01,2.02096e-03,9.99999e-01
4.932130795e-01,2.28437e-03,9.99999e-01,9.99999e-01,9.99999e-01,9.99970e-01,2.28444e-03,9.99999e-01
4.956791449e-01,2.57599e-03,9.99999e-01,9.99999e-01,9.99999e-01,9.99984e-01,2.57603e-03,9.99999e-01
4.981575406e-01,2.89772e-03,9.99999e-01,9.99999e-01,9.99999e-01,9.99923e-01,2.89795e-03,9.99999e-01
5.006483283e-01,3.25188e-03,9.99999e-01,9.99999e-01,9.99999e-01,9.99801e-01,3.25252e-03,9.99998e-01
5.031515699e-01,3.63847e-03,9.99999e-01,9.99999e-01,9.99999e-01,9.98994e-01,3.64217e-03,9.99988e-01
5.056673278e-01,4.06718e-03,9.99999e-01,9.99999e-01,9.99999e-01,9.99468e-01,4.06939e-03,9.99987e-01
5.081956644e-01,4.53370e-03,9.99999e-01,9.99999e-01,9.99999e-01,9.99329e-01,4.53677e-03,9.99991e-01
5.107366428e-01,5.04469e-03,9.99999e-01,9.99999e-01,9.99999e-01,9.99547e-01,5.04699e-03,9.99998e-01
5.132903260e-01,5.60132e-03,9.99999e-01,9.99999e-01,9.99999e-01,9.99740e-01,5.60277e-03,9.99999e-01
5.158567776e-01,6.20626e-03,9.99999e-01,9.99999e-01,9.99999e-01,9.99890e-01,6.20694e-03,9.99999e-01
5.184360615e-01,6.86206e-03,9.99999e-01,9.99999e-01,9.99999e-01,9.99955e-01,6.86236e-03,9.99999e-01
5.210282418e-01,7.57184e-03,9.99999e-01,9.99999e-01,9.99999e-01,9.99983e-01,7.57196e-03,9.99999e-01
5.236333830e-01,8.33817e-03,9.99999e-01,9.99999e-01,9.99999e-01,9.99934e-01,8.33872e-03,9.99999e-01
5.262515499e-01,9.16526e-03,9.99999e-01,9.99999e-01,9.99999e-01,9.99958e-01,9.16564e-03,9.99998e-01
5.288828077e-01,1.00554e-02,9.99999e-01,9.99999e-01,9.99999e-01,9.99961e-01,1.00558e-02,9.99999e-01
5.315272217e-01,1.10118e-02,9.99999e-01,9.99999e-01,9.99999e-01,9.99966e-01,1.10122e-02,9.99999e-01
5.341848578e-01,1.20376e-02,9.99999e-01,9.99999e-01,9.99999e-01,9.99977e-01,1.20379e-02,9.99999e-01
5.368557821e-01,1.31350e-02,9.99999e-01,9.99999e-01,9.99999e-01,9.99923e-01,1.31360e-02,9.99999e-01
5.395400610e-01,1.43057e-02,9.99999e-01,9.99999e-01,9.99999e-01,9.99725e-01,1.43097e-02,9.99997e-01
5.422377613e-01,1.55562e-02,9.99999e-01,9.99999e-01,9.99999e-01,9.99643e-01,1.55618e-02,9.99993e-01
5.449489501e-01,1.68898e-02,9.99999e-01,9.99999e-01,9.99999e-01,9.99669e-01,1.68955e-02,9.99992e-01
5.476736949e-01,1.83083e-02,9.99999e-01,9.99999e-01,9.99999e-01,9.99705e-01,1.83137e-02,9.99996e-01
5.504120634e-01,1.98152e-02,9.99999e-01,9.99999e-01,9.99999e-01,9.99786e-01,1.98195e-02,9.99998e-01
5.531641237e-01,2.14132e-02,9.99999e-01,9.99999e-01,9.99999e-01,9.99892e-01,2.14155e-02,9.99999e-01
5.559299443e-01,2.31035e-02,9.99999e-01,9.99999e-01,9.99999e-01,9.99947e-01,2.31047e-02,9.99999e-01
5.587095940e-01,2.48890e-02,9.99999e-01,9.99999e-01,9.99999e-01,9.99967e-01,2.48898e-02,9.99999e-01
5.615031420e-01,2.67725e-02,9.99999e-01,9.99999e-01,9.99999e-01,9.99963e-01,2.67734e-02,9.99999e-01
5.643106577e-01,2.87570e-02,9.99999e-01,9.99999e-01,9.99999e-01,9.99958e-01,2.87581e-02,9.99999e-01
5.671322110e-01,3.08310e-02,9.99999e-01,9.99999e-01,9.99999e-01,9.99505e-01,3.08464e-02,9.99995e-01
5.699678720e-01,3.30225e-02,9.99999e-01,9.99999e-01,9.99999e-01,9.99469e-01,3.30405e-02,9.99985e-01
5.728177114e-01,3.53228e-02,9.99999e-01,9.99999e-01,9.99999e-01,9.99449e-01,3.53426e-02,9.99988e-01
5.756818000e-01,3.77356e-02,9.99999e-01,9.99999e-01,9.99999e-01,9.99494e-01,3.77549e-02,9.99992e-01
5.785602090e-01,4.02614e-02,9.99999e-01,9.99999e-01,9.99999e-01,9.99558e-01,4.02793e-02,9.99997e-01
5.814530100e-01,4.28985e-02,9.99999e-01,9.99999e-01,9.99999e-01,9.99557e-01,4.29175e-02,9.99998e-01
5.843602750e-01,4.56472e-02,9.99999e-01,9.99999e-01,9.99999e-01,9.99473e-01,4.56713e-02,9.99996e-01
5.872820764e-01,4.83207e-02,9.99999e-01,9.99999e-01,9.99999e-01,9.95469e-01,4.85421e-02,9.99967e-01
5.902184868e-01,5.12432e-02,9.99999e-01,9.99999e-01,9.99999e-01,9.94494e-01,5.15313e-02,9.99912e-01
5.931695792e-01,5.44231e-02,9.99999e-01,9.99999e-01,9.99999e-01,9.96112e-01,5.46400e-02,9.99915e-01
5.961354271e-01,5.76198e-02,9.99999e-01,9.99999e-01,9.99999e-01,9.95736e-01,5.78693e-02,9.99951e-01
5.991161043e-01,6.10286e-02,9.99999e-01,9.99999e-01,9.99999e-01,9.96887e-01,6.12200e-02,9.99984e-01
6.021116848e-01,6.45782e-02,9.99999e-01,9.99999e-01,9.99999e-01,9.98232e-01,6.46926e-02,9.99997e-01
6.051222432e-01,6.82268e-02,9.99999e-01,9.99999e-01,9.99999e-01,9.99105e-01,6.82878e-02,9.99999e-01
6.081478544e-01,7.19781e-02,9.99999e-01,9.99999e-01,9.99999e-01,9.99613e-01,7.20059e-02,9.99999e-01
6.111885937e-01,7.58345e-02,9.99999e-01,9.99999e-01,9.99999e-01,9.99836e-01,7.58469e-02,9.99999e-01
6.142445367e-01,7.98050e-02,9.99999e-01,9.99999e-01,9.99999e-01,9.99926e-01,7.98108e-02,9.99999e-01
6.173157594e-01,8.38941e-02,9.99999e-01,9.99999e-01,9.99999e-01,9.99959e-01,8.38975e-02,9.99999e-01
6.204023382e-01,8.81034e-02,9.99999e-01,9.99999e-01,9.99999e-01,9.99965e-01,8.81064e-02,9.99999e-01
6.235043498e-01,9.24233e-02,9.99999e-01,9.99999e-01,9.99999e-01,9.99850e-01,9.24371e-02,9.99999e-01
6.266218716e-01,9.68114e-02,9.99999e-01,9.99999e-01,9.99999e-01,9.99207e-01,9.68887e-02,9.99993e-01
6.297549810e-01,1.01430e-01,9.99999e-01,9.99999e-01,9.99999e-01,9.99709e-01,1.01460e-01,9.99988e-01
6.329037559e-01,1.06089e-01,9.99999e-01,9.99999e-01,9.99999e-01,9.99424e-01,1.06151e-01,9.99990e-01
6.360682746e-01,1.10905e-01,9.99999e-01,9.99999e-01,9.99999e-01,9.99510e-01,1.10960e-01,9.99994e-01
6.392486160e-01,1.15811e-01,9.99999e-01,9.99999e-01,9.99999e-01,9.99365e-01,1.15885e-01,9.99997e-01
6.424448591e-01,1.20822e-01,9.99999e-01,9.99999e-01,9.99999e-01,9.99154e-01,1.20924e-01,9.99995e-01
6.456570834e-01,1.25580e-01,9.99999e-01,9.99999e-01,9.99999e-01,9.96075e-01,1.26077e-01,9.99977e-01
6.488853688e-01,1.30954e-01,9.99999e-01,9.99999e-01,9.99999e-01,9.97114e-01,1.31341e-01,9.99938e-01
6.521297956e-01,1.36305e-01,9.99999e-01,9.99999e-01,9.99999e-01,9.97058e-01,1.36714e-01,9.99948e-01
6.553904446e-01,1.41776e-01,9.99999e-01,9.99999e-01,9.99999e-01,9.97090e-01,1.42195e-01,9.99961e-01
6.586673968e-01,1.47408e-01,9.99999e-01,9.99999e-01,9.99999e-01,9.97492e-01,1.47780e-01,9.99986e-01
6.619607338e-01,1.53246e-01,9.99999e-01,9.99999e-01,9.99999e-01,9.98549e-01,1.53468e-01,9.99996e-01
6.652705375e-01,1.59123e-01,9.99999e-01,9.99999e-01,9.99999e-01,9.99159e-01,1.59257e-01,9.99998e-01
6.685968902e-01,1.65078e-01,9.99999e-01,9.99999e-01,9.99999e-01,9.99609e-01,1.65142e-01,9.99999e-01
6.719398746e-01,1.71092e-01,9.99999e-01,9.99999e-01,9.99999e-01,9.99818e-01,1.71122e-01,9.99999e-01
6.752995740e-01,1.77177e-01,9.99999e-01,9.99999e-01,9.99999e-01,9.99901e-01,1.77195e-01,9.99999e-01
6.786760719e-01,1.83331e-01,9.99999e-01,9.99999e-01,9.99999e-01,9.99858e-01,1.83356e-01,9.99999e-01
6.820694522e-01,1.89558e-01,9.99999e-01,9.99999e-01,9.99999e-01,9.99758e-01,1.89604e-01,9.99998e-01
6.854797995e-01,1.95873e-01,9.99999e-01,9.99999e-01,9.99999e-01,9.99688e-01,1.95935e-01,9.99996e-01
6.889071985e-01,2.02193e-01,9.99999e-01,9.99999e-01,9.99999e-01,9.99249e-01,2.02346e-01,9.99992e-01
6.923517345e-01,2.06265e-01,9.99999e-01,9.99999e-01,9.99999e-01,9.87756e-01,2.08834e-01,9.99940e-01
6.958134932e-01,2.13982e-01,9.99999e-01,9.99999e-01,9.99999e-01,9.93571e-01,2.15395e-01,9.99866e-01
6.992925606e-01,2.20655e-01,9.99999e-01,9.99999e-01,9.99999e-01,9.93934e-01,2.22027e-01,9.99882e-01
7.027890234e-01,2.26989e-01,9.99999e-01,9.99999e-01,9.99999e-01,9.92493e-01,2.28727e-01,9.99909e-01
7.063029686e-01,2.33993e-01,9.99999e-01,9.99999e-01,9.99999e-01,9.93688e-01,2.35490e-01,9.99954e-01
7.098344834e-01,2.40839e-01,9.99999e-01,9.99999e-01,9.99999e-01,9.93943e-01,2.42313e-01,9.99973e-01
7.133836558e-01,2.47180e-01,9.99999e-01,9.99999e-01,9.99999e-01,9.91970e-01,2.49194e-01,9.99946e-01
7.169505741e-01,2.39906e-01,9.99999e-01,9.99999e-01,9.99999e-01,9.37050e-01,2.56128e-01,9.99585e-01
7.205353270e-01,2.54636e-01,9.99999e-01,9.99999e-01,9.99999e-01,9.68492e-01,2.63112e-01,9.99269e-01
7.241380036e-01,2.59269e-01,9.99999e-01,9.99999e-01,9.99999e-01,9.60349e-01,2.70144e-01,9.99369e-01
7.277586936e-01,2.67140e-01,9.99999e-01,9.99999e-01,9.99999e-01,9.64140e-01,2.77219e-01,9.99484e-01
7.313974871e-01,2.73411e-01,9.99999e-01,9.99999e-01,9.99999e-01,9.61819e-01,2.84333e-01,9.99758e-01
7.350544745e-01,2.85334e-01,9.99999e-01,9.99999e-01,9.99999e-01,9.78980e-01,2.91485e-01,9.99915e-01
7.387297469e-01,2.94026e-01,9.99999e-01,9.99999e-01,9.99999e-01,9.84488e-01,2.98670e-01,9.99961e-01
7.424233956e-01,3.03551e-01,9.99999e-01,9.99999e-01,9.99999e-01,9.92377e-01,3.05885e-01,9.99992e-01
7.461355126e-01,3.11678e-01,9.99999e-01,9.99999e-01,9.99999e-01,9.95377e-01,3.13126e-01,9.99998e-01
7.498661902e-01,3.19700e-01,9.99999e-01,9.99999e-01,9.99999e-01,9.97843e-01,3.20391e-01,9.99999e-01
7.536155211e-01,3.27329e-01,9.99999e-01,9.99999e-01,9.99999e-01,9.98942e-01,3.27676e-01,9.99999e-01
7.573835987e-01,3.34795e-01,9.99999e-01,9.99999e-01,9.99999e-01,9.99455e-01,3.34977e-01,9.99999e-01
7.611705167e-01,3.42177e-01,9.99999e-01,9.99999e-01,9.99999e-01,9.99661e-01,3.42292e-01,9.99999e-01
7.649763693e-01,3.49544e-01,9.99999e-01,9.99999e-01,9.99999e-01,9.99787e-01,3.49618e-01,9.99999e-01
7.688012511e-01,3.56899e-01,9.99999e-01,9.99999e-01,9.99999e-01,9.99852e-01,3.56952e-01,9.99999e-01
7.726452574e-01,3.64245e-01,9.99999e-01,9.99999e-01,9.99999e-01,9.99878e-01,3.64289e-01,9.99999e-01
7.765084837e-01,3.71564e-01,9.99999e-01,9.99999e-01,9.99999e-01,9.99827e-01,3.71628e-01,9.99999e-01
7.803910261e-01,3.62480e-01,9.99999e-01,9.99999e-01,9.57179e-01,9.99257e-01,3.78966e-01,9.99998e-01
7.842929812e-01,3.15538e-01,9.99999e-01,9.99999e-01,8.18815e-01,9.97409e-01,3.86299e-01,9.99994e-01
7.882144461e-01,3.16453e-01,9.99999e-01,9.99999e-01,8.08072e-01,9.94653e-01,3.93625e-01,9.99966e-01
7.921555184e-01,3.52649e-01,9.99999e-01,9.99999e-01,8.82122e-01,9.97059e-01,4.00942e-01,9.99936e-01
7.961162960e-01,3.73291e-01,9.99999e-01,9.99999e-01,9.19128e-01,9.94828e-01,4.08245e-01,9.99938e-01
8.000968774e-01,3.94584e-01,9.99999e-01,9.99999e-01,9.55338e-01,9.94016e-01,4.15534e-01,9.99934e-01
8.040973618e-01,4.10416e-01,9.99999e-01,9.99999e-01,9.76574e-01,9.94017e-01,4.22805e-01,9.99948e-01
8.081178486e-01,4.19695e-01,9.99999e-01,9.99999e-01,9.89193e-01,9.86590e-01,4.30056e-01,9.99951e-01
8.121584379e-01,4.11882e-01,9.99999e-01,9.99999e-01,9.96641e-01,9.45220e-01,4.37284e-01,9.99810e-01
8.162192301e-01,4.15035e-01,9.99999e-01,9.99999e-01,9.99257e-01,9.35080e-01,4.44487e-01,9.99289e-01
8.203003262e-01,4.36561e-01,9.99999e-01,9.99999e-01,9.99988e-01,9.67376e-01,4.51663e-01,9.99167e-01
8.244018279e-01,4.37567e-01,9.99999e-01,9.99999e-01,9.99999e-01,9.54329e-01,4.58810e-01,9.99337e-01
8.285238370e-01,4.47441e-01,9.99999e-01,9.99999e-01,9.99999e-01,9.60825e-01,4.65926e-01,9.99479e-01
8.326664562e-01,4.54157e-01,9.99999e-01,9.99999e-01,9.99999e-01,9.60353e-01,4.73008e-01,9.99784e-01
8.368297885e-01,4.66351e-01,9.99999e-01,9.99999e-01,9.99999e-01,9.71501e-01,4.80054e-01,9.99950e-01
8.410139374e-01,4.78756e-01,9.99999e-01,9.99999e-01,9.99999e-01,9.82970e-01,4.87064e-01,9.99970e-01
8.452190071e-01,4.89882e-01,9.99999e-01,9.99999e-01,9.99999e-01,9.91612e-01,4.94034e-01,9.99982e-01
8.494451021e-01,4.98518e-01,9.99999e-01,9.99999e-01,9.99999e-01,9.95133e-01,5.00963e-01,9.99985e-01
8.536923276e-01,5.06381e-01,9.99999e-01,9.99999e-01,9.99999e-01,9.97116e-01,5.07850e-01,9.99991e-01
8.579607893e-01,5.13778e-01,9.99999e-01,9.99999e-01,9.99999e-01,9.98225e-01,5.14692e-01,9.99997e-01
8.622505932e-01,5.20901e-01,9.99999e-01,9.99999e-01,9.99999e-01,9.98871e-01,5.21489e-01,9.99999e-01
8.665618462e-01,4.82073e-01,9.99999e-01,9.99999e-01,9.13211e-01,9.99302e-01,5.28239e-01,9.99999e-01
8.708946554e-01,3.23181e-01,9.99999e-01,9.99999e-01,6.04605e-01,9.99202e-01,5.34940e-01,9.99999e-01
8.752491287e-01,3.59550e-01,9.99999e-01,9.99999e-01,6.64558e-01,9.98932e-01,5.41592e-01,9.99998e-01
8.796253743e-01,4.36754e-01,9.99999e-01,9.99999e-01,7.97853e-01,9.98523e-01,5.48192e-01,9.99996e-01
8.840235012e-01,4.92449e-01,9.99999e-01,9.99999e-01,8.89191e-01,9.98313e-01,5.54740e-01,9.99989e-01
8.884436187e-01,5.32550e-01,9.99999e-01,9.99999e-01,9.54674e-01,9.93893e-01,5.61234e-01,9.99970e-01
8.928858368e-01,5.22169e-01,9.99999e-01,9.99999e-01,9.81399e-01,9.37231e-01,5.67674e-01,9.99830e-01
8.973502660e-01,5.08962e-01,9.99999e-01,9.99999e-01,9.95441e-01,8.91323e-01,5.74059e-01,9.99135e-01
9.018370173e-01,5.46197e-01,9.99999e-01,9.99999e-01,9.99496e-01,9.42827e-01,5.80387e-01,9.98641e-01
9.063462024e-01,5.49757e-01,9.99999e-01,9.99999e-01,9.87320e-01,9.49769e-01,5.86658e-01,9.98806e-01
9.108779334e-01,5.30642e-01,9.99999e-01,9.99999e-01,9.70828e-01,9.22637e-01,5.92870e-01,9.98759e-01
9.154323231e-01,5.42365e-01,9.99999e-01,9.99999e-01,9.93055e-01,9.12502e-01,5.99024e-01,9.98974e-01
9.200094847e-01,5.12680e-01,9.99999e-01,9.99999e-01,9.06407e-01,9.30763e-01,6.05118e-01,9.99425e-01
9.246095321e-01,4.74550e-01,9.99999e-01,9.99999e-01,8.65269e-01,8.95051e-01,6.11152e-01,9.99338e-01
9.292325798e-01,2.67114e-01,9.99999e-01,9.99999e-01,8.93450e-01,4.78675e-01,6.17126e-01,9.97423e-01
9.338787427e-01,2.16459e-01,9.99999e-01,9.99999e-01,8.96285e-01,3.86261e-01,6.23037e-01,9.89393e-01
9.385481364e-01,3.92183e-01,9.99999e-01,9.99999e-01,9.22600e-01,6.80515e-01,6.28888e-01,9.87397e-01
9.432408771e-01,3.53459e-01,9.99999e-01,9.99999e-01,9.51796e-01,5.89535e-01,6.34675e-01,9.89118e-01
9.479570815e-01,3.00353e-01,9.99999e-01,9.99999e-01,9.74992e-01,4.84518e-01,6.40401e-01,9.91134e-01
9.526968669e-01,3.66641e-01,9.99999e-01,9.99999e-01,9.87859e-01,5.76832e-01,6.46063e-01,9.94583e-01
9.574603512e-01,3.87584e-01,9.99999e-01,9.99999e-01,9.94789e-01,5.99261e-01,6.51662e-01,9.97244e-01
9.622476530e-01,4.30883e-01,9.99999e-01,9.99999e-01,9.98371e-01,6.57878e-01,6.57197e-01,9.98093e-01
9.670588912e-01,5.19497e-01,9.99999e-01,9.99999e-01,9.99511e-01,7.85327e-01,6.62669e-01,9.98695e-01
9.718941857e-01,5.73497e-01,9.99999e-01,9.99999e-01,9.99964e-01,8.59280e-01,6.68077e-01,9.99039e-01
9.767536566e-01,5.93316e-01,9.99999e-01,9.99999e-01,9.99999e-01,8.81694e-01,6.73421e-01,9.99265e-01
9.816374249e-01,6.17993e-01,9.99999e-01,9.99999e-01,9.99999e-01,9.10783e-01,6.78701e-01,9.99745e-01
9.865456120e-01,6.45080e-01,9.99999e-01,9.99999e-01,9.99999e-01,9.43263e-01,6.83917e-01,9.99946e-01
9.914783401e-01,6.64627e-01,9.99999e-01,9.99999e-01,9.99999e-01,9.64543e-01,6.89068e-01,9.99984e-01
9.964357318e-01,6.80638e-01,9.99999e-01,9.99999e-01,9.99999e-01,9.80533e-01,6.94156e-01,9.99990e-01
1.001417910e+00,6.90982e-01,9.99999e-01,9.99999e-01,9.99999e-01,9.88287e-01,6.99179e-01,9.99986e-01
1.006425000e+00,6.99417e-01,9.99999e-01,9.99999e-01,9.99999e-01,9.93312e-01,7.04139e-01,9.99980e-01
1.011457125e+00,7.06074e-01,9.99999e-01,9.99999e-01,9.99999e-01,9.95840e-01,7.09035e-01,9.99982e-01
1.016514411e+00,7.11843e-01,9.99999e-01,9.99999e-01,9.99999e-01,9.97176e-01,7.13867e-01,9.99987e-01
1.021596983e+00,7.16963e-01,9.99999e-01,9.99999e-01,9.99934e-01,9.97749e-01,7.18635e-01,9.99987e-01
1.026704968e+00,7.18485e-01,9.99999e-01,9.99999e-01,9.95037e-01,9.98245e-01,7.23341e-01,9.99991e-01
1.031838492e+00,6.88835e-01,9.99999e-01,9.99999e-01,9.47393e-01,9.98723e-01,7.27983e-01,9.99997e-01
1.036997685e+00,8.63313e-02,9.99999e-01,9.99999e-01,1.17918e-01,9.99242e-01,7.32562e-01,9.99999e-01
1.042182673e+00,4.68090e-02,9.99999e-01,9.99999e-01,6.35554e-02,9.99097e-01,7.37079e-01,9.99999e-01
1.047393587e+00,6.57196e-02,9.99999e-01,9.99999e-01,8.87191e-02,9.98802e-01,7.41534e-01,9.99999e-01
1.052630555e+00,6.87851e-04,9.99999e-01,9.99999e-01,9.23213e-04,9.98358e-01,7.45927e-01,9.99999e-01
1.057893707e+00,2.00362e-03,9.99999e-01,9.99999e-01,2.67519e-03,9.97261e-01,7.50259e-01,9.99998e-01
1.063183176e+00,9.27503e-03,9.99999e-01,9.99999e-01,1.23301e-02,9.95494e-01,7.54529e-01,9.99997e-01
1.068499092e+00,3.35552e-02,9.99999e-01,9.99999e-01,4.44950e-02,9.92462e-01,7.58738e-01,9.99994e-01
1.073841587e+00,1.05180e-01,9.99999e-01,9.99999e-01,1.38879e-01,9.91189e-01,7.62888e-01,9.99988e-01
