#,Wave/freq,Total,N2,O2,CO2,H2O,Rayleigh,CIA
4.000000000e-01,1.71281e-04,9.99999e-01,9.99999e-01,9.99999e-01,9.99982e-01,1.71283e-04,9.99999e-01
4.020000000e-01,2.03321e-04,9.99999e-01,9.99999e-01,9.99999e-01,9.99989e-01,2.03323e-04,9.99999e-01
4.040100000e-01,2.40495e-04,9.99999e-01,9.99999e-01,9.99999e-01,9.99995e-01,2.40496e-04,9.99999e-01
4.060300500e-01,2.83524e-04,9.99999e-01,9.99999e-01,9.99999e-01,9.99998e-01,2.83524e-04,9.99999e-01
4.080602003e-01,3.33166e-04,9.99999e-01,9.99999e-01,9.99999e-01,9.99999e-01,3.33166e-04,9.99999e-01
4.101005013e-01,3.90253e-04,9.99999e-01,9.99999e-01,9.99999e-01,9.99999e-01,3.90253e-04,9.99999e-01
4.121510038e-01,4.55696e-04,9.99999e-01,9.99999e-01,9.99999e-01,9.99998e-01,4.55697e-04,9.99999e-01
4.142117588e-01,5.30485e-04,9.99999e-01,9.99999e-01,9.99999e-01,9.99994e-01,5.30488e-04,9.99999e-01
4.162828176e-01,6.15690e-04,9.99999e-01,9.99999e-01,9.99999e-01,9.99978e-01,6.15703e-04,9.99999e-01
4.183642317e-01,7.12498e-04,9.99999e-01,9.99999e-01,9.99999e-01,9.99987e-01,7.12507e-04,9.99999e-01
4.204560528e-01,8.22150e-04,9.99999e-01,9.99999e-01,9.99999e-01,9.99991e-01,8.22156e-04,9.99999e-01
4.225583331e-01,9.45998e-04,9.99999e-01,9.99999e-01,9.99999e-01,9.99996e-01,9.46001e-04,9.99999e-01
4.246711247e-01,1.08549e-03,9.99999e-01,9.99999e-01,9.99999e-01,9.99997e-01,1.08549e-03,9.99999e-01
4.267944804e-01,1.24216e-03,9.99999e-01,9.99999e-01,9.99999e-01,9.99996e-01,1.24216e-03,9.99999e-01
4.289284528e-01,1.41767e-03,9.99999e-01,9.99999e-01,9.99999e-01,9.99996e-01,1.41767e-03,9.99999e-01
4.310730950e-01,1.61376e-03,9.99999e-01,9.99999e-01,9.99999e-01,9.99998e-01,1.61376e-03,9.99999e-01
4.332284605e-01,1.83228e-03,9.99999e-01,9.99999e-01,9.99999e-01,9.99999e-01,1.83228e-03,9.99999e-01
4.353946028e-01,2.07517e-03,9.99999e-01,9.99999e-01,9.99999e-01,9.99999e-01,2.07517e-03,9.99999e-01
4.375715758e-01,2.34449e-03,9.99999e-01,9.99999e-01,9.99999e-01,9.99997e-01,2.34449e-03,9.99999e-01
4.397594337e-01,2.64234e-03,9.99999e-01,9.99999e-01,9.99999e-01,9.99981e-01,2.64239e-03,9.99999e-01
4.419582309e-01,2.97084e-03,9.99999e-01,9.99999e-01,9.99999e-01,9.99907e-01,2.97111e-03,9.99999e-01
4.441680220e-01,3.33276e-03,9.99999e-01,9.99999e-01,9.99999e-01,9.99927e-01,3.33300e-03,9.99999e-01
4.463888621e-01,3.73020e-03,9.99999e-01,9.99999e-01,9.99999e-01,9.99924e-01,3.73048e-03,9.99999e-01
4.486208064e-01,4.16590e-03,9.99999e-01,9.99999e-01,9.99999e-01,9.99952e-01,4.16609e-03,9.99999e-01
4.508639105e-01,4.64233e-03,9.99999e-01,9.99999e-01,9.99999e-01,9.99977e-01,4.64243e-03,9.99999e-01
4.531182300e-01,5.16213e-03,9.99999e-01,9.99999e-01,9.99999e-01,9.99990e-01,5.16217e-03,9.99999e-01
4.553838212e-01,5.72806e-03,9.99999e-01,9.99999e-01,9.99999e-01,9.99993e-01,5.72809e-03,9.99999e-01
4.576607403e-01,6.34298e-03,9.99999e-01,9.99999e-01,9.99999e-01,9.99996e-01,6.34300e-03,9.99999e-01
4.599490440e-01,7.00977e-03,9.99999e-01,9.99999e-01,9.99999e-01,9.99997e-01,7.00979e-03,9.99999e-01
4.622487892e-01,7.73139e-03,9.99999e-01,9.99999e-01,9.99999e-01,9.99999e-01,7.73139e-03,9.99999e-01
4.645600332e-01,8.51077e-03,9.99999e-01,9.99999e-01,9.99999e-01,9.99998e-01,8.51078e-03,9.99999e-01
4.668828333e-01,9.35079e-03,9.99999e-01,9.99999e-01,9.99999e-01,9.99977e-01,9.35100e-03,9.99999e-01
4.692172475e-01,1.02546e-02,9.99999e-01,9.99999e-01,9.99999e-01,9.99952e-01,1.02551e-02,9.99999e-01
4.715633337e-01,1.12257e-02,9.99999e-01,9.99999e-01,9.99999e-01,9.99968e-01,1.12261e-02,9.99999e-01
4.739211504e-01,1.22667e-02,9.99999e-01,9.99999e-01,9.99999e-01,9.99970e-01,1.22671e-02,9.99999e-01
4.762907561e-01,1.33809e-02,9.99999e-01,9.99999e-01,9.99999e-01,9.99984e-01,1.33811e-02,9.99999e-01
4.786722099e-01,1.45712e-02,9.99999e-01,9.99999e-01,9.99999e-01,9.99993e-01,1.45713e-02,9.99999e-01
4.810655710e-01,1.58407e-02,9.99999e-01,9.99999e-01,9.99999e-01,9.99997e-01,1.58407e-02,9.99999e-01
4.834708988e-01,1.71920e-02,9.99999e-01,9.99999e-01,9.99999e-01,9.99981e-01,1.71923e-02,9.99999e-01
4.858882533e-01,1.86284e-02,9.99999e-01,9.99999e-01,9.99999e-01,9.99966e-01,1.86290e-02,9.99999e-01
4.883176946e-01,2.01533e-02,9.99999e-01,9.99999e-01,9.99999e-01,9.99971e-01,2.01538e-02,9.99999e-01
4.907592831e-01,2.17691e-02,9.99999e-01,9.99999e-01,9.99999e-01,9.99974e-01,2.17696e-02,9.99999e-01
4.932130795e-01,2.34787e-02,9.99999e-01,9.99999e-01,9.99999e-01,9.99981e-01,2.34791e-02,9.99999e-01
4.956791449e-01,2.52849e-02,9.99999e-01,9.99999e-01,9.99999e-01,9.99990e-01,2.52851e-02,9.99999e-01
4.981575406e-01,2.71889e-02,9.99999e-01,9.99999e-01,9.99999e-01,9.99952e-01,2.71902e-02,9.99999e-01
5.006483283e-01,2.91933e-02,9.99999e-01,9.99999e-01,9.99999e-01,9.99877e-01,2.91969e-02,9.99998e-01
5.031515699e-01,3.12880e-02,9.99999e-01,9.99999e-01,9.99999e-01,9.99379e-01,3.13076e-02,9.99992e-01
5.056673278e-01,3.35135e-02,9.99999e-01,9.99999e-01,9.99999e-01,9.99672e-01,3.35247e-02,9.99992e-01
5.081956644e-01,3.58353e-02,9.99999e-01,9.99999e-01,9.99999e-01,9.99586e-01,3.58503e-02,9.99994e-01
5.107366428e-01,3.82757e-02,9.99999e-01,9.99999e-01,9.99999e-01,9.99720e-01,3.82864e-02,9.99998e-01
5.132903260e-01,4.08286e-02,9.99999e-01,9.99999e-01,9.99999e-01,9.99840e-01,4.08351e-02,9.99999e-01
5.158567776e-01,4.34950e-02,9.99999e-01,9.99999e-01,9.99999e-01,9.99932e-01,4.34980e-02,9.99999e-01
5.184360615e-01,4.62755e-02,9.99999e-01,9.99999e-01,9.99999e-01,9.99972e-01,4.62767e-02,9.99999e-01
5.210282418e-01,4.91723e-02,9.99999e-01,9.99999e-01,9.99999e-01,9.99989e-01,4.91728e-02,9.99999e-01
5.236333830e-01,5.21854e-02,9.99999e-01,9.99999e-01,9.99999e-01,9.99959e-01,5.21875e-02,9.99999e-01
5.262515499e-01,5.53206e-02,9.99999e-01,9.99999e-01,9.99999e-01,9.99974e-01,5.53220e-02,9.99999e-01
5.288828077e-01,5.85758e-02,9.99999e-01,9.99999e-01,9.99999e-01,9.99976e-01,5.85772e-02,9.99999e-01
5.315272217e-01,6.19527e-02,9.99999e-01,9.99999e-01,9.99999e-01,9.99979e-01,6.19540e-02,9.99999e-01
5.341848578e-01,6.54520e-02,9.99999e-01,9.99999e-01,9.99999e-01,9.99986e-01,6.54529e-02,9.99999e-01
5.368557821e-01,6.90711e-02,9.99999e-01,9.99999e-01,9.99999e-01,9.99952e-01,6.90744e-02,9.99999e-01
5.395400610e-01,7.28063e-02,9.99999e-01,9.99999e-01,9.99999e-01,9.99830e-01,7.28188e-02,9.99998e-01
5.422377613e-01,7.66690e-02,9.99999e-01,9.99999e-01,9.99999e-01,9.99779e-01,7.66861e-02,9.99995e-01
5.449489501e-01,8.06596e-02,9.99999e-01,9.99999e-01,9.99999e-01,9.99795e-01,8.06764e-02,9.99995e-01
5.476736949e-01,8.47738e-02,9.99999e-01,9.99999e-01,9.99999e-01,9.99818e-01,8.47893e-02,9.99997e-01
5.504120634e-01,8.90126e-02,9.99999e-01,9.99999e-01,9.99999e-01,9.99868e-01,8.90244e-02,9.99998e-01
5.531641237e-01,9.33748e-02,9.99999e-01,9.99999e-01,9.99999e-01,9.99933e-01,9.33810e-02,9.99999e-01
5.559299443e-01,9.78554e-02,9.99999e-01,9.99999e-01,9.99999e-01,9.99967e-01,9.78585e-02,9.99999e-01
5.587095940e-01,1.02454e-01,9.99999e-01,9.99999e-01,9.99999e-01,9.99979e-01,1.02456e-01,9.99999e-01
5.615031420e-01,1.07170e-01,9.99999e-01,9.99999e-01,9.99999e-01,9.99977e-01,1.07172e-01,9.99999e-01
5.643106577e-01,1.12003e-01,9.99999e-01,9.99999e-01,9.99999e-01,9.99974e-01,1.12006e-01,9.99999e-01
5.671322110e-01,1.16919e-01,9.99999e-01,9.99999e-01,9.99999e-01,9.99694e-01,1.16955e-01,9.99996e-01
5.699678720e-01,1.21978e-01,9.99999e-01,9.99999e-01,9.99999e-01,9.99672e-01,1.22019e-01,9.99991e-01
5.728177114e-01,1.27152e-01,9.99999e-01,9.99999e-01,9.99999e-01,9.99659e-01,1.27196e-01,9.99992e-01
5.756818000e-01,1.32442e-01,9.99999e-01,9.99999e-01,9.99999e-01,9.99687e-01,1.32484e-01,9.99995e-01
5.785602090e-01,1.37842e-01,9.99999e-01,9.99999e-01,9.99999e-01,9.99727e-01,1.37880e-01,9.99998e-01
5.814530100e-01,1.43344e-01,9.99999e-01,9.99999e-01,9.99999e-01,9.99726e-01,1.43383e-01,9.99998e-01
5.843602750e-01,1.48942e-01,9.99999e-01,9.99999e-01,9.99999e-01,9.99674e-01,1.48991e-01,9.99997e-01
5.872820764e-01,1.54264e-01,9.99999e-01,9.99999e-01,9.99999e-01,9.97199e-01,1.54701e-01,9.99979e-01
5.902184868e-01,1.59956e-01,9.99999e-01,9.99999e-01,9.99999e-01,9.96600e-01,1.60510e-01,9.99945e-01
5.931695792e-01,1.66008e-01,9.99999e-01,9.99999e-01,9.99999e-01,9.97599e-01,1.66416e-01,9.99947e-01
5.961354271e-01,1.71957e-01,9.99999e-01,9.99999e-01,9.99999e-01,9.97367e-01,1.72416e-01,9.99969e-01
5.991161043e-01,1.78164e-01,9.99999e-01,9.99999e-01,9.99999e-01,9.98079e-01,1.78508e-01,9.99990e-01
6.021116848e-01,1.84487e-01,9.99999e-01,9.99999e-01,9.99999e-01,9.98909e-01,1.84688e-01,9.99998e-01
6.051222432e-01,1.90849e-01,9.99999e-01,9.99999e-01,9.99999e-01,9.99447e-01,1.90954e-01,9.99999e-01
6.081478544e-01,1.97255e-01,9.99999e-01,9.99999e-01,9.99999e-01,9.99761e-01,1.97302e-01,9.99999e-01
6.111885937e-01,2.03710e-01,9.99999e-01,9.99999e-01,9.99999e-01,9.99898e-01,2.03730e-01,9.99999e-01
6.142445367e-01,2.10225e-01,9.99999e-01,9.99999e-01,9.99999e-01,9.99954e-01,2.10234e-01,9.99999e-01
6.173157594e-01,2.16806e-01,9.99999e-01,9.99999e-01,9.99999e-01,9.99974e-01,2.16811e-01,9.99999e-01
6.204023382e-01,2.23453e-01,9.99999e-01,9.99999e-01,9.99999e-01,9.99978e-01,2.23458e-01,9.99999e-01
6.235043498e-01,2.30150e-01,9.99999e-01,9.99999e-01,9.99999e-01,9.99907e-01,2.30171e-01,9.99999e-01
6.266218716e-01,2.36831e-01,9.99999e-01,9.99999e-01,9.99999e-01,9.99510e-01,2.36947e-01,9.99996e-01
6.297549810e-01,2.43738e-01,9.99999e-01,9.99999e-01,9.99999e-01,9.99820e-01,2.43783e-01,9.99992e-01
6.329037559e-01,2.50585e-01,9.99999e-01,9.99999e-01,9.99999e-01,9.99645e-01,2.50675e-01,9.99994e-01
6.360682746e-01,2.57542e-01,9.99999e-01,9.99999e-01,9.99999e-01,9.99697e-01,2.57621e-01,9.99996e-01
6.392486160e-01,2.64512e-01,9.99999e-01,9.99999e-01,9.99999e-01,9.99608e-01,2.64616e-01,9.99998e-01
6.424448591e-01,2.71514e-01,9.99999e-01,9.99999e-01,9.99999e-01,9.99477e-01,2.71657e-01,9.99997e-01
6.456570834e-01,2.78061e-01,9.99999e-01,9.99999e-01,9.99999e-01,9.97574e-01,2.78740e-01,9.99986e-01
6.488853688e-01,2.85344e-01,9.99999e-01,9.99999e-01,9.99999e-01,9.98219e-01,2.85863e-01,9.99961e-01
6.521297956e-01,2.92481e-01,9.99999e-01,9.99999e-01,9.99999e-01,9.98184e-01,2.93022e-01,9.99968e-01
6.553904446e-01,2.99665e-01,9.99999e-01,9.99999e-01,9.99999e-01,9.98195e-01,3.00214e-01,9.99976e-01
6.586673968e-01,3.06957e-01,9.99999e-01,9.99999e-01,9.99999e-01,9.98452e-01,3.07435e-01,9.99991e-01
6.619607338e-01,3.14399e-01,9.99999e-01,9.99999e-01,9.99999e-01,9.99105e-01,3.14681e-01,9.99997e-01
6.652705375e-01,3.21784e-01,9.99999e-01,9.99999e-01,9.99999e-01,9.99481e-01,3.21950e-01,9.99998e-01
6.685968902e-01,3.29160e-01,9.99999e-01,9.99999e-01,9.99999e-01,9.99759e-01,3.29239e-01,9.99999e-01
6.719398746e-01,3.36506e-01,9.99999e-01,9.99999e-01,9.99999e-01,9.99888e-01,3.36544e-01,9.99999e-01
6.752995740e-01,3.43841e-01,9.99999e-01,9.99999e-01,9.99999e-01,9.99939e-01,3.43862e-01,9.99999e-01
6.786760719e-01,3.51159e-01,9.99999e-01,9.99999e-01,9.99999e-01,9.99912e-01,3.51189e-01,9.99999e-01
6.820694522e-01,3.58470e-01,9.99999e-01,9.99999e-01,9.99999e-01,9.99850e-01,3.58524e-01,9.99998e-01
6.854797995e-01,3.65791e-01,9.99999e-01,9.99999e-01,9.99999e-01,9.99807e-01,3.65862e-01,9.99997e-01
6.889071985e-01,3.73027e-01,9.99999e-01,9.99999e-01,9.99999e-01,9.99535e-01,3.73201e-01,9.99995e-01
6.923517345e-01,3.77640e-01,9.99999e-01,9.99999e-01,9.99999e-01,9.92418e-01,3.80538e-01,9.99963e-01
6.958134932e-01,3.86300e-01,9.99999e-01,9.99999e-01,9.99999e-01,9.96033e-01,3.87870e-01,9.99917e-01
6.992925606e-01,3.93684e-01,9.99999e-01,9.99999e-01,9.99999e-01,9.96249e-01,3.95194e-01,9.99927e-01
7.027890234e-01,4.00619e-01,9.99999e-01,9.99999e-01,9.99999e-01,9.95362e-01,4.02508e-01,9.99944e-01
7.063029686e-01,4.08200e-01,9.99999e-01,9.99999e-01,9.99999e-01,9.96101e-01,4.09809e-01,9.99971e-01
7.098344834e-01,4.15527e-01,9.99999e-01,9.99999e-01,9.99999e-01,9.96259e-01,4.17094e-01,9.99983e-01
7.133836558e-01,4.22238e-01,9.99999e-01,9.99999e-01,9.99999e-01,9.95028e-01,4.24361e-01,9.99967e-01
7.169505741e-01,4.14462e-01,9.99999e-01,9.99999e-01,9.99999e-01,9.60522e-01,4.31607e-01,9.99744e-01
7.205353270e-01,4.30047e-01,9.99999e-01,9.99999e-01,9.99999e-01,9.80426e-01,4.38830e-01,9.99549e-01
7.241380036e-01,4.34838e-01,9.99999e-01,9.99999e-01,9.99999e-01,9.75290e-01,4.46028e-01,9.99610e-01
7.277586936e-01,4.42938e-01,9.99999e-01,9.99999e-01,9.99999e-01,9.77671e-01,4.53198e-01,9.99681e-01
7.313974871e-01,4.49340e-01,9.99999e-01,9.99999e-01,9.99999e-01,9.76252e-01,4.60338e-01,9.99850e-01
7.350544745e-01,4.61334e-01,9.99999e-01,9.99999e-01,9.99999e-01,9.86974e-01,4.67447e-01,9.99947e-01
7.387297469e-01,4.69956e-01,9.99999e-01,9.99999e-01,9.99999e-01,9.90402e-01,4.74521e-01,9.99975e-01
7.424233956e-01,4.79291e-01,9.99999e-01,9.99999e-01,9.99999e-01,9.95293e-01,4.81560e-01,9.99994e-01
7.461355126e-01,4.87167e-01,9.99999e-01,9.99999e-01,9.99999e-01,9.97146e-01,4.88561e-01,9.99998e-01
7.498661902e-01,4.94864e-01,9.99999e-01,9.99999e-01,9.99999e-01,9.98669e-01,4.95523e-01,9.99999e-01
7.536155211e-01,5.02115e-01,9.99999e-01,9.99999e-01,9.99999e-01,9.99347e-01,5.02443e-01,9.99999e-01
7.573835987e-01,5.09149e-01,9.99999e-01,9.99999e-01,9.99999e-01,9.99664e-01,5.09320e-01,9.99999e-01
7.611705167e-01,5.16046e-01,9.99999e-01,9.99999e-01,9.99999e-01,9.99791e-01,5.16153e-01,9.99999e-01
7.649763693e-01,5.22872e-01,9.99999e-01,9.99999e-01,9.99999e-01,9.99868e-01,5.22940e-01,9.99999e-01
7.688012511e-01,5.29631e-01,9.99999e-01,9.99999e-01,9.99999e-01,9.99908e-01,5.29680e-01,9.99999e-01
7.726452574e-01,5.36330e-01,9.99999e-01,9.99999e-01,9.99999e-01,9.99924e-01,5.36370e-01,9.99999e-01
7.765084837e-01,5.42953e-01,9.99999e-01,9.99999e-01,9.99999e-01,9.99893e-01,5.43011e-01,9.99999e-01
7.803910261e-01,5.33964e-01,9.99999e-01,9.99999e-01,9.71985e-01,9.99541e-01,5.49600e-01,9.99999e-01
7.842929812e-01,4.89945e-01,9.99999e-01,9.99999e-01,8.82338e-01,9.98399e-01,5.56136e-01,9.99996e-01
7.882144461e-01,4.90463e-01,9.99999e-01,9.99999e-01,8.74558e-01,9.96697e-01,5.62619e-01,9.99979e-01
7.921555184e-01,5.25531e-01,9.99999e-01,9.99999e-01,9.25208e-01,9.98186e-01,5.69047e-01,9.99960e-01
7.961162960e-01,5.44475e-01,9.99999e-01,9.99999e-01,9.49267e-01,9.96803e-01,5.75420e-01,9.99962e-01
8.000968774e-01,5.63453e-01,9.99999e-01,9.99999e-01,9.72193e-01,9.96303e-01,5.81736e-01,9.99959e-01
8.040973618e-01,5.77307e-01,9.99999e-01,9.99999e-01,9.85490e-01,9.96303e-01,5.87994e-01,9.99967e-01
8.081178486e-01,5.85311e-01,9.99999e-01,9.99999e-01,9.93321e-01,9.91691e-01,5.94194e-01,9.99969e-01
8.121584379e-01,5.78511e-01,9.99999e-01,9.99999e-01,9.97929e-01,9.65740e-01,6.00335e-01,9.99882e-01
8.162192301e-01,5.81247e-01,9.99999e-01,9.99999e-01,9.99542e-01,9.59346e-01,6.06417e-01,9.99561e-01
8.203003262e-01,5.99614e-01,9.99999e-01,9.99999e-01,9.99992e-01,9.79569e-01,6.12438e-01,9.99486e-01
8.244018279e-01,6.00441e-01,9.99999e-01,9.99999e-01,9.99999e-01,9.71359e-01,6.18398e-01,9.99591e-01
8.285238370e-01,6.08869e-01,9.99999e-01,9.99999e-01,9.99999e-01,9.75601e-01,6.24297e-01,9.99678e-01
8.326664562e-01,6.14493e-01,9.99999e-01,9.99999e-01,9.99999e-01,9.75308e-01,6.30133e-01,9.99866e-01
8.368297885e-01,6.24643e-01,9.99999e-01,9.99999e-01,9.99999e-01,9.82315e-01,6.35908e-01,9.99969e-01
8.410139374e-01,6.34846e-01,9.99999e-01,9.99999e-01,9.99999e-01,9.89460e-01,6.41620e-01,9.99981e-01
8.452190071e-01,6.43909e-01,9.99999e-01,9.99999e-01,9.99999e-01,9.94819e-01,6.47268e-01,9.99988e-01
8.494451021e-01,6.50887e-01,9.99999e-01,9.99999e-01,9.99999e-01,9.96995e-01,6.52854e-01,9.99991e-01
8.536923276e-01,6.57201e-01,9.99999e-01,9.99999e-01,9.99999e-01,9.98220e-01,6.58376e-01,9.99994e-01
8.579607893e-01,6.63106e-01,9.99999e-01,9.99999e-01,9.99999e-01,9.98904e-01,6.63834e-01,9.99998e-01
8.622505932e-01,6.68762e-01,9.99999e-01,9.99999e-01,9.99999e-01,9.99303e-01,6.69228e-01,9.99999e-01
8.665618462e-01,6.30054e-01,9.99999e-01,9.99999e-01,9.34412e-01,9.99569e-01,6.74558e-01,9.99999e-01
8.708946554e-01,4.93824e-01,9.99999e-01,9.99999e-01,7.26746e-01,9.99507e-01,6.79824e-01,9.99999e-01
8.752491287e-01,5.29819e-01,9.99999e-01,9.99999e-01,7.73926e-01,9.99341e-01,6.85026e-01,9.99998e-01
8.796253743e-01,5.99278e-01,9.99999e-01,9.99999e-01,8.69086e-01,9.99088e-01,6.90164e-01,9.99997e-01
8.840235012e-01,6.45875e-01,9.99999e-01,9.99999e-01,9.29960e-01,9.98958e-01,6.95238e-01,9.99993e-01
8.884436187e-01,6.77927e-01,9.99999e-01,9.99999e-01,9.71790e-01,9.96215e-01,7.00248e-01,9.99981e-01
8.928858368e-01,6.69614e-01,9.99999e-01,9.99999e-01,9.88488e-01,9.60625e-01,7.05194e-01,9.99895e-01
8.973502660e-01,6.59038e-01,9.99999e-01,9.99999e-01,9.97189e-01,9.31190e-01,7.10076e-01,9.99466e-01
9.018370173e-01,6.88519e-01,9.99999e-01,9.99999e-01,9.99689e-01,9.64204e-01,7.14894e-01,9.99161e-01
9.063462024e-01,6.91150e-01,9.99999e-01,9.99999e-01,9.92100e-01,9.68561e-01,7.19649e-01,9.99263e-01
9.108779334e-01,6.76225e-01,9.99999e-01,9.99999e-01,9.81895e-01,9.51338e-01,7.24341e-01,9.99234e-01
9.154323231e-01,6.85475e-01,9.99999e-01,9.99999e-01,9.95714e-01,9.44905e-01,7.28970e-01,9.99367e-01
9.200094847e-01,6.59948e-01,9.99999e-01,9.99999e-01,9.39052e-01,9.56547e-01,7.33536e-01,9.99645e-01
9.246095321e-01,6.30186e-01,9.99999e-01,9.99999e-01,9.14418e-01,9.32897e-01,7.38039e-01,9.99591e-01
9.292325798e-01,4.36099e-01,9.99999e-01,9.99999e-01,9.32321e-01,6.27003e-01,7.42481e-01,9.98409e-01
9.338787427e-01,3.81408e-01,9.99999e-01,9.99999e-01,9.34438e-01,5.46700e-01,7.46861e-01,9.93443e-01
9.385481364e-01,5.57268e-01,9.99999e-01,9.99999e-01,9.51440e-01,7.83927e-01,7.51179e-01,9.92206e-01
9.432408771e-01,5.19359e-01,9.99999e-01,9.99999e-01,9.69987e-01,7.12544e-01,7.55436e-01,9.93272e-01
9.479570815e-01,4.66126e-01,9.99999e-01,9.99999e-01,9.84500e-01,6.26256e-01,7.59633e-01,9.94521e-01
9.526968669e-01,5.32346e-01,9.99999e-01,9.99999e-01,9.92494e-01,7.04220e-01,7.63769e-01,9.96654e-01
9.574603512e-01,5.54283e-01,9.99999e-01,9.99999e-01,9.96784e-01,7.25299e-01,7.67845e-01,9.98299e-01
9.622476530e-01,5.93133e-01,9.99999e-01,9.99999e-01,9.98995e-01,7.70083e-01,7.71863e-01,9.98823e-01
9.670588912e-01,6.66740e-01,9.99999e-01,9.99999e-01,9.99698e-01,8.60339e-01,7.75821e-01,9.99195e-01
9.718941857e-01,7.09431e-01,9.99999e-01,9.99999e-01,9.99978e-01,9.10410e-01,7.79720e-01,9.99407e-01
9.767536566e-01,7.24517e-01,9.99999e-01,9.99999e-01,9.99999e-01,9.25063e-01,7.83562e-01,9.99546e-01
9.816374249e-01,7.43066e-01,9.99999e-01,9.99999e-01,9.99999e-01,9.43907e-01,7.87346e-01,9.99842e-01
9.865456120e-01,7.63036e-01,9.99999e-01,9.99999e-01,9.99999e-01,9.64589e-01,7.91073e-01,9.99966e-01
9.914783401e-01,7.77232e-01,9.99999e-01,9.99999e-01,9.99999e-01,9.77973e-01,7.94744e-01,9.99990e-01
9.964357318e-01,7.88731e-01,9.99999e-01,9.99999e-01,9.99999e-01,9.87946e-01,7.98358e-01,9.99994e-01
1.001417910e+00,7.96105e-01,9.99999e-01,9.99999e-01,9.99999e-01,9.92759e-01,8.01917e-01,9.99991e-01
1.006425000e+00,8.02086e-01,9.99999e-01,9.99999e-01,9.99999e-01,9.95869e-01,8.05422e-01,9.99987e-01
1.011457125e+00,8.06787e-01,9.99999e-01,9.99999e-01,9.99999e-01,9.97433e-01,8.08871e-01,9.99988e-01
1.016514411e+00,8.10846e-01,9.99999e-01,9.99999e-01,9.99999e-01,9.98257e-01,8.12268e-01,9.99991e-01
1.021596983e+00,8.14439e-01,9.99999e-01,9.99999e-01,9.99958e-01,9.98611e-01,8.15610e-01,9.99991e-01
1.026704968e+00,8.15493e-01,9.99999e-01,9.99999e-01,9.96921e-01,9.98916e-01,8.18901e-01,9.99994e-01
1.031838492e+00,7.90168e-01,9.99999e-01,9.99999e-01,9.61850e-01,9.99212e-01,8.22139e-01,9.99998e-01
1.036997685e+00,1.50714e-01,9.99999e-01,9.99999e-01,1.82680e-01,9.99532e-01,8.25325e-01,9.99999e-01
1.042182673e+00,1.40569e-01,9.99999e-01,9.99999e-01,1.69760e-01,9.99442e-01,8.28461e-01,9.99999e-01
1.047393587e+00,1.53467e-01,9.99999e-01,9.99999e-01,1.84678e-01,9.99260e-01,8.31546e-01,9.99999e-01
1.052630555e+00,7.40667e-03,9.99999e-01,9.99999e-01,8.88146e-03,9.98986e-01,8.34581e-01,9.99999e-01
1.057893707e+00,1.71894e-02,9.99999e-01,9.99999e-01,2.05475e-02,9.98308e-01,8.37568e-01,9.99998e-01
1.063183176e+00,4.84628e-02,9.99999e-01,9.99999e-01,5.77785e-02,9.97216e-01,8.40505e-01,9.99998e-01
1.068499092e+00,1.18582e-01,9.99999e-01,9.99999e-01,1.41168e-01,9.95341e-01,8.43395e-01,9.99996e-01
1.073841587e+00,2.44477e-01,9.99999e-01,9.99999e-01,2.90276e-01,9.94550e-01,8.46237e-01,9.99992e-01
