#,Wave/freq,Total,N2,O2,CO2,H2O,Rayleigh,CIA
4.000000000e-01,7.05120e-25,9.99999e-01,9.99999e-01,9.99999e-01,9.99892e-01,7.05196e-25,9.99999e-01
4.020000000e-01,2.11756e-24,9.99999e-01,9.99999e-01,9.99999e-01,9.99932e-01,2.11770e-24,9.99999e-01
4.040100000e-01,6.21550e-24,9.99999e-01,9.99999e-01,9.99999e-01,9.99971e-01,6.21567e-24,9.99999e-01
4.060300500e-01,1.78596e-23,9.99999e-01,9.99999e-01,9.99999e-01,9.99992e-01,1.78597e-23,9.99999e-01
4.080602003e-01,5.02580e-23,9.99999e-01,9.99999e-01,9.99999e-01,9.99997e-01,5.02581e-23,9.99999e-01
4.101005013e-01,1.38568e-22,9.99999e-01,9.99999e-01,9.99999e-01,9.99999e-01,1.38568e-22,9.99999e-01
4.121510038e-01,3.74470e-22,9.99999e-01,9.99999e-01,9.99999e-01,9.99995e-01,3.74472e-22,9.99999e-01
4.142117588e-01,9.92280e-22,9.99999e-01,9.99999e-01,9.99999e-01,9.99970e-01,9.92309e-22,9.99999e-01
4.162828176e-01,2.57904e-21,9.99999e-01,9.99999e-01,9.99999e-01,9.99866e-01,2.57938e-21,9.99999e-01
4.183642317e-01,6.57892e-21,9.99999e-01,9.99999e-01,9.99999e-01,9.99920e-01,6.57944e-21,9.99999e-01
4.204560528e-01,1.64744e-20,9.99999e-01,9.99999e-01,9.99999e-01,9.99951e-01,1.64752e-20,9.99999e-01
4.225583331e-01,4.05124e-20,9.99999e-01,9.99999e-01,9.99999e-01,9.99981e-01,4.05132e-20,9.99999e-01
4.246711247e-01,9.78674e-20,9.99999e-01,9.99999e-01,9.99999e-01,9.99985e-01,9.78688e-20,9.99999e-01
4.267944804e-01,2.32336e-19,9.99999e-01,9.99999e-01,9.99999e-01,9.99978e-01,2.32341e-19,9.99999e-01
4.289284528e-01,5.42231e-19,9.99999e-01,9.99999e-01,9.99999e-01,9.99983e-01,5.42240e-19,9.99999e-01
4.310730950e-01,1.24447e-18,9.99999e-01,9.99999e-01,9.99999e-01,9.99992e-01,1.24448e-18,9.99999e-01
4.332284605e-01,2.80966e-18,9.99999e-01,9.99999e-01,9.99999e-01,9.99997e-01,2.80967e-18,9.99999e-01
4.353946028e-01,6.24219e-18,9.99999e-01,9.99999e-01,9.99999e-01,9.99998e-01,6.24219e-18,9.99999e-01
4.375715758e-01,1.36511e-17,9.99999e-01,9.99999e-01,9.99999e-01,9.99986e-01,1.36512e-17,9.99999e-01
4.397594337e-01,2.93930e-17,9.99999e-01,9.99999e-01,9.99999e-01,9.99884e-01,2.93964e-17,9.99999e-01
4.419582309e-01,6.23136e-17,9.99999e-01,9.99999e-01,9.99999e-01,9.99416e-01,6.23500e-17,9.99999e-01
4.441680220e-01,1.30235e-16,9.99999e-01,9.99999e-01,9.99999e-01,9.99535e-01,1.30295e-16,9.99999e-01
4.463888621e-01,2.68219e-16,9.99999e-01,9.99999e-01,9.99999e-01,9.99519e-01,2.68348e-16,9.99999e-01
4.486208064e-01,5.44678e-16,9.99999e-01,9.99999e-01,9.99999e-01,9.99699e-01,5.44841e-16,9.99999e-01
4.508639105e-01,1.09070e-15,9.99999e-01,9.99999e-01,9.99999e-01,9.99859e-01,1.09085e-15,9.99999e-01
4.531182300e-01,2.15419e-15,9.99999e-01,9.99999e-01,9.99999e-01,9.99944e-01,2.15431e-15,9.99999e-01
4.553838212e-01,4.19754e-15,9.99999e-01,9.99999e-01,9.99999e-01,9.99962e-01,4.19769e-15,9.99999e-01
4.576607403e-01,8.07206e-15,9.99999e-01,9.99999e-01,9.99999e-01,9.99982e-01,8.07220e-15,9.99999e-01
4.599490440e-01,1.53235e-14,9.99999e-01,9.99999e-01,9.99999e-01,9.99987e-01,1.53237e-14,9.99999e-01
4.622487892e-01,2.87234e-14,9.99999e-01,9.99999e-01,9.99999e-01,9.99997e-01,2.87235e-14,9.99999e-01
4.645600332e-01,5.31762e-14,9.99999e-01,9.99999e-01,9.99999e-01,9.99991e-01,5.31766e-14,9.99999e-01
4.668828333e-01,9.72433e-14,9.99999e-01,9.99999e-01,9.99999e-01,9.99859e-01,9.72569e-14,9.99999e-01
4.692172475e-01,1.75716e-13,9.99999e-01,9.99999e-01,9.99999e-01,9.99698e-01,1.75769e-13,9.99999e-01
4.715633337e-01,3.13906e-13,9.99999e-01,9.99999e-01,9.99999e-01,9.99803e-01,3.13968e-13,9.99999e-01
4.739211504e-01,5.54333e-13,9.99999e-01,9.99999e-01,9.99999e-01,9.99810e-01,5.54438e-13,9.99999e-01
4.762907561e-01,9.68054e-13,9.99999e-01,9.99999e-01,9.99999e-01,9.99901e-01,9.68149e-13,9.99999e-01
4.786722099e-01,1.67198e-12,9.99999e-01,9.99999e-01,9.99999e-01,9.99959e-01,1.67205e-12,9.99999e-01
4.810655710e-01,2.85670e-12,9.99999e-01,9.99999e-01,9.99999e-01,9.99987e-01,2.85673e-12,9.99999e-01
4.834708988e-01,4.82887e-12,9.99999e-01,9.99999e-01,9.99999e-01,9.99886e-01,4.82942e-12,9.99999e-01
4.858882533e-01,8.07835e-12,9.99999e-01,9.99999e-01,9.99999e-01,9.99785e-01,8.08008e-12,9.99999e-01
4.883176946e-01,1.33796e-11,9.99999e-01,9.99999e-01,9.99999e-01,9.99821e-01,1.33820e-11,9.99999e-01
4.907592831e-01,2.19397e-11,9.99999e-01,9.99999e-01,9.99999e-01,9.99837e-01,2.19432e-11,9.99999e-01
4.932130795e-01,3.56275e-11,9.99999e-01,9.99999e-01,9.99999e-01,9.99884e-01,3.56316e-11,9.99999e-01
4.956791449e-01,5.73042e-11,9.99999e-01,9.99999e-01,9.99999e-01,9.99938e-01,5.73077e-11,9.99999e-01
4.981575406e-01,9.12814e-11,9.99999e-01,9.99999e-01,9.99999e-01,9.99697e-01,9.13090e-11,9.99999e-01
5.006483283e-01,1.44038e-10,9.99999e-01,9.99999e-01,9.99999e-01,9.99222e-01,1.44151e-10,9.99994e-01
5.031515699e-01,2.24628e-10,9.99999e-01,9.99999e-01,9.99999e-01,9.96037e-01,2.25531e-10,9.99957e-01
5.056673278e-01,3.48996e-10,9.99999e-01,9.99999e-01,9.99999e-01,9.97900e-01,3.49747e-10,9.99951e-01
5.081956644e-01,5.36257e-10,9.99999e-01,9.99999e-01,9.99999e-01,9.97350e-01,5.37698e-10,9.99968e-01
5.107366428e-01,8.18187e-10,9.99999e-01,9.99999e-01,9.99999e-01,9.98209e-01,8.19659e-10,9.99993e-01
5.132903260e-01,1.23784e-09,9.99999e-01,9.99999e-01,9.99999e-01,9.98974e-01,1.23911e-09,9.99998e-01
5.158567776e-01,1.85719e-09,9.99999e-01,9.99999e-01,9.99999e-01,9.99566e-01,1.85799e-09,9.99999e-01
5.184360615e-01,2.76329e-09,9.99999e-01,9.99999e-01,9.99999e-01,9.99826e-01,2.76377e-09,9.99999e-01
5.210282418e-01,4.07874e-09,9.99999e-01,9.99999e-01,9.99999e-01,9.99935e-01,4.07900e-09,9.99999e-01
5.236333830e-01,5.97246e-09,9.99999e-01,9.99999e-01,9.99999e-01,9.99740e-01,5.97402e-09,9.99997e-01
5.262515499e-01,8.68228e-09,9.99999e-01,9.99999e-01,9.99999e-01,9.99837e-01,8.68371e-09,9.99996e-01
5.288828077e-01,1.25277e-08,9.99999e-01,9.99999e-01,9.99999e-01,9.99851e-01,1.25296e-08,9.99997e-01
5.315272217e-01,1.79459e-08,9.99999e-01,9.99999e-01,9.99999e-01,9.99868e-01,1.79482e-08,9.99999e-01
5.341848578e-01,2.55262e-08,9.99999e-01,9.99999e-01,9.99999e-01,9.99914e-01,2.55284e-08,9.99999e-01
5.368557821e-01,3.60473e-08,9.99999e-01,9.99999e-01,9.99999e-01,9.99699e-01,3.60582e-08,9.99998e-01
5.395400610e-01,5.05299e-08,9.99999e-01,9.99999e-01,9.99999e-01,9.98920e-01,5.05849e-08,9.99990e-01
5.422377613e-01,7.03900e-08,9.99999e-01,9.99999e-01,9.99999e-01,9.98589e-01,7.04912e-08,9.99974e-01
5.449489501e-01,9.74595e-08,9.99999e-01,9.99999e-01,9.99999e-01,9.98695e-01,9.75893e-08,9.99973e-01
5.476736949e-01,1.34081e-07,9.99999e-01,9.99999e-01,9.99999e-01,9.98836e-01,1.34239e-07,9.99986e-01
5.504120634e-01,1.83338e-07,9.99999e-01,9.99999e-01,9.99999e-01,9.99156e-01,1.83493e-07,9.99995e-01
5.531641237e-01,2.49170e-07,9.99999e-01,9.99999e-01,9.99999e-01,9.99575e-01,2.49276e-07,9.99999e-01
5.559299443e-01,3.36530e-07,9.99999e-01,9.99999e-01,9.99999e-01,9.99794e-01,3.36599e-07,9.99999e-01
5.587095940e-01,4.51765e-07,9.99999e-01,9.99999e-01,9.99999e-01,9.99871e-01,4.51822e-07,9.99999e-01
5.615031420e-01,6.02887e-07,9.99999e-01,9.99999e-01,9.99999e-01,9.99857e-01,6.02973e-07,9.99999e-01
5.643106577e-01,7.99986e-07,9.99999e-01,9.99999e-01,9.99999e-01,9.99839e-01,8.00115e-07,9.99998e-01
5.671322110e-01,1.05374e-06,9.99999e-01,9.99999e-01,9.99999e-01,9.98066e-01,1.05580e-06,9.99982e-01
5.699678720e-01,1.38258e-06,9.99999e-01,9.99999e-01,9.99999e-01,9.97895e-01,1.38557e-06,9.99946e-01
5.728177114e-01,1.80461e-06,9.99999e-01,9.99999e-01,9.99999e-01,9.97827e-01,1.80862e-06,9.99955e-01
5.756818000e-01,2.34368e-06,9.99999e-01,9.99999e-01,9.99999e-01,9.98002e-01,2.34843e-06,9.99972e-01
5.785602090e-01,3.02836e-06,9.99999e-01,9.99999e-01,9.99999e-01,9.98255e-01,3.03368e-06,9.99991e-01
5.814530100e-01,3.89227e-06,9.99999e-01,9.99999e-01,9.99999e-01,9.98251e-01,3.89910e-06,9.99995e-01
5.843602750e-01,4.97624e-06,9.99999e-01,9.99999e-01,9.99999e-01,9.97930e-01,4.98662e-06,9.99987e-01
5.872820764e-01,6.23352e-06,9.99999e-01,9.99999e-01,9.99999e-01,9.82314e-01,6.34655e-06,9.99873e-01
5.902184868e-01,7.86263e-06,9.99999e-01,9.99999e-01,9.99999e-01,9.78400e-01,8.03897e-06,9.99655e-01
5.931695792e-01,9.97743e-06,9.99999e-01,9.99999e-01,9.99999e-01,9.84756e-01,1.01353e-05,9.99664e-01
5.961354271e-01,1.25043e-05,9.99999e-01,9.99999e-01,9.99999e-01,9.83253e-01,1.27199e-05,9.99797e-01
5.991161043e-01,1.56964e-05,9.99999e-01,9.99999e-01,9.99999e-01,9.87741e-01,1.58921e-05,9.99940e-01
6.021116848e-01,1.96302e-05,9.99999e-01,9.99999e-01,9.99999e-01,9.93019e-01,1.97683e-05,9.99992e-01
6.051222432e-01,2.43975e-05,9.99999e-01,9.99999e-01,9.99999e-01,9.96460e-01,2.44842e-05,9.99999e-01
6.081478544e-01,3.01511e-05,9.99999e-01,9.99999e-01,9.99999e-01,9.98473e-01,3.01972e-05,9.99999e-01
6.111885937e-01,3.70653e-05,9.99999e-01,9.99999e-01,9.99999e-01,9.99352e-01,3.70893e-05,9.99999e-01
6.142445367e-01,4.53567e-05,9.99999e-01,9.99999e-01,9.99999e-01,9.99710e-01,4.53698e-05,9.99999e-01
6.173157594e-01,5.52697e-05,9.99999e-01,9.99999e-01,9.99999e-01,9.99840e-01,5.52785e-05,9.99999e-01
6.204023382e-01,6.70800e-05,9.99999e-01,9.99999e-01,9.99999e-01,9.99865e-01,6.70890e-05,9.99999e-01
6.235043498e-01,8.10646e-05,9.99999e-01,9.99999e-01,9.99999e-01,9.99416e-01,8.11121e-05,9.99998e-01
6.266218716e-01,9.73916e-05,9.99999e-01,9.99999e-01,9.99999e-01,9.96872e-01,9.76992e-05,9.99977e-01
6.297549810e-01,1.17107e-04,9.99999e-01,9.99999e-01,9.99999e-01,9.98852e-01,1.17247e-04,9.99955e-01
6.329037559e-01,1.39876e-04,9.99999e-01,9.99999e-01,9.99999e-01,9.97726e-01,1.40199e-04,9.99964e-01
6.360682746e-01,1.66728e-04,9.99999e-01,9.99999e-01,9.99999e-01,9.98070e-01,1.67054e-04,9.99978e-01
6.392486160e-01,1.97866e-04,9.99999e-01,9.99999e-01,9.99999e-01,9.97495e-01,1.98365e-04,9.99990e-01
6.424448591e-01,2.33962e-04,9.99999e-01,9.99999e-01,9.99999e-01,9.96672e-01,2.34747e-04,9.99984e-01
6.456570834e-01,2.72603e-04,9.99999e-01,9.99999e-01,9.99999e-01,9.84644e-01,2.76878e-04,9.99913e-01
6.488853688e-01,3.21103e-04,9.99999e-01,9.99999e-01,9.99999e-01,9.86703e-01,3.25509e-04,9.99758e-01
6.521297956e-01,3.76971e-04,9.99999e-01,9.99999e-01,9.99999e-01,9.88434e-01,3.81459e-04,9.99797e-01
6.553904446e-01,4.40462e-04,9.99999e-01,9.99999e-01,9.99999e-01,9.88556e-01,4.45628e-04,9.99847e-01
6.586673968e-01,5.13840e-04,9.99999e-01,9.99999e-01,9.99999e-01,9.90114e-01,5.18996e-04,9.99949e-01
6.619607338e-01,5.99168e-04,9.99999e-01,9.99999e-01,9.99999e-01,9.94272e-01,6.02626e-04,9.99988e-01
6.652705375e-01,6.95345e-04,9.99999e-01,9.99999e-01,9.99999e-01,9.96672e-01,6.97669e-04,9.99994e-01
6.685968902e-01,8.04124e-04,9.99999e-01,9.99999e-01,9.99999e-01,9.98454e-01,8.05370e-04,9.99998e-01
6.719398746e-01,9.26399e-04,9.99999e-01,9.99999e-01,9.99999e-01,9.99282e-01,9.27064e-04,9.99999e-01
6.752995740e-01,1.06377e-03,9.99999e-01,9.99999e-01,9.99999e-01,9.99612e-01,1.06418e-03,9.99999e-01
6.786760719e-01,1.21758e-03,9.99999e-01,9.99999e-01,9.99999e-01,9.99443e-01,1.21826e-03,9.99998e-01
6.820694522e-01,1.38959e-03,9.99999e-01,9.99999e-01,9.99999e-01,9.99045e-01,1.39093e-03,9.99994e-01
6.854797995e-01,1.58195e-03,9.99999e-01,9.99999e-01,9.99999e-01,9.98770e-01,1.58391e-03,9.99988e-01
6.889071985e-01,1.79372e-03,9.99999e-01,9.99999e-01,9.99999e-01,9.97063e-01,1.79905e-03,9.99972e-01
6.923517345e-01,1.94159e-03,9.99999e-01,9.99999e-01,9.99999e-01,9.52787e-01,2.03828e-03,9.99766e-01
6.958134932e-01,2.24438e-03,9.99999e-01,9.99999e-01,9.99999e-01,9.74793e-01,2.30362e-03,9.99472e-01
6.992925606e-01,2.53462e-03,9.99999e-01,9.99999e-01,9.99999e-01,9.76343e-01,2.59723e-03,9.99536e-01
7.027890234e-01,2.83467e-03,9.99999e-01,9.99999e-01,9.99999e-01,9.70680e-01,2.92133e-03,9.99644e-01
7.063029686e-01,3.19666e-03,9.99999e-01,9.99999e-01,9.99999e-01,9.75285e-01,3.27825e-03,9.99822e-01
7.098344834e-01,3.58292e-03,9.99999e-01,9.99999e-01,9.99999e-01,9.76265e-01,3.67040e-03,9.99894e-01
7.133836558e-01,3.97201e-03,9.99999e-01,9.99999e-01,9.99999e-01,9.68910e-01,4.10031e-03,9.99791e-01
7.169505741e-01,3.55505e-03,9.99999e-01,9.99999e-01,9.99999e-01,7.79088e-01,4.57056e-03,9.98363e-01
7.205353270e-01,4.47381e-03,9.99999e-01,9.99999e-01,9.99999e-01,8.82553e-01,5.08383e-03,9.97115e-01
7.241380036e-01,4.80938e-03,9.99999e-01,9.99999e-01,9.99999e-01,8.54422e-01,5.64286e-03,9.97508e-01
7.277586936e-01,5.41194e-03,9.99999e-01,9.99999e-01,9.99999e-01,8.67612e-01,6.25047e-03,9.97962e-01
7.313974871e-01,5.92536e-03,9.99999e-01,9.99999e-01,9.99999e-01,8.58381e-01,6.90954e-03,9.99045e-01
7.350544745e-01,7.00944e-03,9.99999e-01,9.99999e-01,9.99999e-01,9.19818e-01,7.62299e-03,9.99667e-01
7.387297469e-01,7.89014e-03,9.99999e-01,9.99999e-01,9.99999e-01,9.40139e-01,8.39379e-03,9.99847e-01
7.424233956e-01,8.94937e-03,9.99999e-01,9.99999e-01,9.99999e-01,9.70152e-01,9.22498e-03,9.99970e-01
7.461355126e-01,9.93558e-03,9.99999e-01,9.99999e-01,9.99999e-01,9.81822e-01,1.01196e-02,9.99994e-01
7.498661902e-01,1.09862e-02,9.99999e-01,9.99999e-01,9.99999e-01,9.91477e-01,1.10807e-02,9.99997e-01
7.536155211e-01,1.20606e-02,9.99999e-01,9.99999e-01,9.99999e-01,9.95820e-01,1.21113e-02,9.99998e-01
7.573835987e-01,1.31861e-02,9.99999e-01,9.99999e-01,9.99999e-01,9.97845e-01,1.32145e-02,9.99999e-01
7.611705167e-01,1.43742e-02,9.99999e-01,9.99999e-01,9.99999e-01,9.98660e-01,1.43935e-02,9.99999e-01
7.649763693e-01,1.56380e-02,9.99999e-01,9.99999e-01,9.99999e-01,9.99161e-01,1.56512e-02,9.99999e-01
7.688012511e-01,1.69807e-02,9.99999e-01,9.99999e-01,9.99999e-01,9.99416e-01,1.69906e-02,9.99999e-01
7.726452574e-01,1.84059e-02,9.99999e-01,9.99999e-01,9.99999e-01,9.99520e-01,1.84148e-02,9.99999e-01
7.765084837e-01,1.99131e-02,9.99999e-01,9.99999e-01,9.99999e-01,9.99322e-01,1.99266e-02,9.99998e-01
7.803910261e-01,1.88492e-02,9.99999e-01,9.99999e-01,8.77810e-01,9.97079e-01,2.15290e-02,9.99996e-01
7.842929812e-01,1.11656e-02,9.99999e-01,9.99999e-01,4.84845e-01,9.89845e-01,2.32247e-02,9.99980e-01
7.882144461e-01,1.15873e-02,9.99999e-01,9.99999e-01,4.71727e-01,9.79039e-01,2.50165e-02,9.99870e-01
7.921555184e-01,1.64591e-02,9.99999e-01,9.99999e-01,6.18305e-01,9.88411e-01,2.69071e-02,9.99749e-01
7.961162960e-01,2.03571e-02,9.99999e-01,9.99999e-01,7.18457e-01,9.79794e-01,2.88988e-02,9.99759e-01
8.000968774e-01,2.52932e-02,9.99999e-01,9.99999e-01,8.35578e-01,9.76555e-01,3.09943e-02,9.99744e-01
8.040973618e-01,2.95191e-02,9.99999e-01,9.99999e-01,9.10530e-01,9.76585e-01,3.31958e-02,9.99796e-01
8.081178486e-01,3.22654e-02,9.99999e-01,9.99999e-01,9.57941e-01,9.48459e-01,3.55054e-02,9.99809e-01
8.121584379e-01,3.00768e-02,9.99999e-01,9.99999e-01,9.86727e-01,8.03783e-01,3.79254e-02,9.99252e-01
8.162192301e-01,3.10100e-02,9.99999e-01,9.99999e-01,9.97051e-01,7.70706e-01,4.04576e-02,9.97193e-01
8.203003262e-01,3.79312e-02,9.99999e-01,9.99999e-01,9.99951e-01,8.82922e-01,4.31037e-02,9.96714e-01
8.244018279e-01,3.84245e-02,9.99999e-01,9.99999e-01,9.99999e-01,8.39959e-01,4.58656e-02,9.97384e-01
8.285238370e-01,4.16201e-02,9.99999e-01,9.99999e-01,9.99999e-01,8.55598e-01,4.87445e-02,9.97945e-01
8.326664562e-01,4.41542e-02,9.99999e-01,9.99999e-01,9.99999e-01,8.54080e-01,5.17419e-02,9.99149e-01
8.368297885e-01,4.89476e-02,9.99999e-01,9.99999e-01,9.99999e-01,8.92417e-01,5.48589e-02,9.99805e-01
8.410139374e-01,5.42816e-02,9.99999e-01,9.99999e-01,9.99999e-01,9.34440e-01,5.80965e-02,9.99885e-01
8.452190071e-01,5.94368e-02,9.99999e-01,9.99999e-01,9.99999e-01,9.67215e-01,6.14556e-02,9.99931e-01
8.494451021e-01,6.36922e-02,9.99999e-01,9.99999e-01,9.99999e-01,9.80887e-01,6.49367e-02,9.99945e-01
8.536923276e-01,6.77583e-02,9.99999e-01,9.99999e-01,9.99999e-01,9.88624e-01,6.85404e-02,9.99963e-01
8.579607893e-01,7.17602e-02,9.99999e-01,9.99999e-01,9.99999e-01,9.92997e-01,7.22669e-02,9.99989e-01
8.622505932e-01,7.57766e-02,9.99999e-01,9.99999e-01,9.99999e-01,9.95537e-01,7.61164e-02,9.99998e-01
8.665618462e-01,6.73282e-02,9.99999e-01,9.99999e-01,8.42816e-01,9.97245e-01,8.00888e-02,9.99998e-01
8.708946554e-01,1.48825e-02,9.99999e-01,9.99999e-01,1.77275e-01,9.96852e-01,8.41839e-02,9.99997e-01
8.752491287e-01,1.97832e-02,9.99999e-01,9.99999e-01,2.24643e-01,9.95787e-01,8.84012e-02,9.99995e-01
8.796253743e-01,3.94482e-02,9.99999e-01,9.99999e-01,4.27556e-01,9.94186e-01,9.27403e-02,9.99986e-01
8.840235012e-01,6.12565e-02,9.99999e-01,9.99999e-01,6.34141e-01,9.93358e-01,9.72002e-02,9.99958e-01
8.884436187e-01,8.28820e-02,9.99999e-01,9.99999e-01,8.33097e-01,9.76466e-01,1.01780e-01,9.99884e-01
8.928858368e-01,7.72864e-02,9.99999e-01,9.99999e-01,9.28464e-01,7.79735e-01,1.06479e-01,9.99332e-01
8.973502660e-01,7.02704e-02,9.99999e-01,9.99999e-01,9.82025e-01,6.44011e-01,1.11296e-01,9.96586e-01
9.018370173e-01,9.20739e-02,9.99999e-01,9.99999e-01,9.97998e-01,7.97818e-01,1.16229e-01,9.94639e-01
9.063462024e-01,9.50923e-02,9.99999e-01,9.99999e-01,9.52952e-01,8.20701e-01,1.21276e-01,9.95289e-01
9.108779334e-01,8.27613e-02,9.99999e-01,9.99999e-01,8.90054e-01,7.34251e-01,1.26437e-01,9.95105e-01
9.154323231e-01,8.98375e-02,9.99999e-01,9.99999e-01,9.72786e-01,7.02083e-01,1.31708e-01,9.95952e-01
9.200094847e-01,8.04603e-02,9.99999e-01,9.99999e-01,7.38014e-01,7.58853e-01,1.37089e-01,9.97732e-01
9.246095321e-01,5.57766e-02,9.99999e-01,9.99999e-01,5.69640e-01,6.67157e-01,1.42577e-01,9.97387e-01
9.292325798e-01,9.79694e-03,9.99999e-01,9.99999e-01,6.54389e-01,9.13083e-02,1.48170e-01,9.89852e-01
9.338787427e-01,4.30722e-03,9.99999e-01,9.99999e-01,6.56153e-01,4.00776e-02,1.53864e-01,9.58713e-01
9.385481364e-01,3.15963e-02,9.99999e-01,9.99999e-01,7.30269e-01,2.69247e-01,1.59659e-01,9.51089e-01
9.432408771e-01,2.42141e-02,9.99999e-01,9.99999e-01,8.22730e-01,1.79643e-01,1.65552e-01,9.57659e-01
9.479570815e-01,1.33200e-02,9.99999e-01,9.99999e-01,9.04755e-01,8.74114e-02,1.71538e-01,9.65402e-01
9.526968669e-01,2.48931e-02,9.99999e-01,9.99999e-01,9.52900e-01,1.48524e-01,1.77617e-01,9.78752e-01
9.574603512e-01,2.87400e-02,9.99999e-01,9.99999e-01,9.79529e-01,1.60589e-01,1.83785e-01,9.89150e-01
9.622476530e-01,4.06288e-02,9.99999e-01,9.99999e-01,9.93560e-01,2.16472e-01,1.90038e-01,9.92484e-01
9.670588912e-01,7.96594e-02,9.99999e-01,9.99999e-01,9.98062e-01,4.08365e-01,1.96375e-01,9.94854e-01
9.718941857e-01,1.12455e-01,9.99999e-01,9.99999e-01,9.99860e-01,5.56698e-01,2.02791e-01,9.96209e-01
9.767536566e-01,1.28166e-01,9.99999e-01,9.99999e-01,9.99999e-01,6.14183e-01,2.09284e-01,9.97101e-01
9.816374249e-01,1.49640e-01,9.99999e-01,9.99999e-01,9.99999e-01,6.93954e-01,2.15851e-01,9.98995e-01
9.865456120e-01,1.76797e-01,9.99999e-01,9.99999e-01,9.99999e-01,7.94805e-01,2.22487e-01,9.99790e-01
9.914783401e-01,1.98742e-01,9.99999e-01,9.99999e-01,9.99999e-01,8.67196e-01,2.29191e-01,9.99941e-01
9.964357318e-01,2.18321e-01,9.99999e-01,9.99999e-01,9.99999e-01,9.25282e-01,2.35958e-01,9.99965e-01
1.001417910e+00,2.31719e-01,9.99999e-01,9.99999e-01,9.99999e-01,9.54466e-01,2.42786e-01,9.99947e-01
1.006425000e+00,2.43114e-01,9.99999e-01,9.99999e-01,9.99999e-01,9.73811e-01,2.49670e-01,9.99925e-01
1.011457125e+00,2.52391e-01,9.99999e-01,9.99999e-01,9.99999e-01,9.83632e-01,2.56608e-01,9.99931e-01
1.016514411e+00,2.60650e-01,9.99999e-01,9.99999e-01,9.99999e-01,9.88871e-01,2.63596e-01,9.99951e-01
1.021596983e+00,2.68152e-01,9.99999e-01,9.99999e-01,9.99755e-01,9.91128e-01,2.70630e-01,9.99950e-01
1.026704968e+00,2.70532e-01,9.99999e-01,9.99999e-01,9.80939e-01,9.93077e-01,2.77708e-01,9.99967e-01
1.031838492e+00,2.47231e-01,9.99999e-01,9.99999e-01,8.72119e-01,9.94956e-01,2.84826e-01,9.99990e-01
1.036997685e+00,7.72418e-03,9.99999e-01,9.99999e-01,2.65139e-02,9.97006e-01,2.91980e-01,9.99998e-01
1.042182673e+00,7.94282e-05,9.99999e-01,9.99999e-01,2.66176e-04,9.96441e-01,2.99167e-01,9.99998e-01
1.047393587e+00,2.33148e-04,9.99999e-01,9.99999e-01,7.63860e-04,9.95276e-01,3.06383e-01,9.99998e-01
1.052630555e+00,2.16254e-10,9.99999e-01,9.99999e-01,6.92280e-10,9.93530e-01,3.13626e-01,9.99997e-01
1.057893707e+00,7.95735e-10,9.99999e-01,9.99999e-01,2.49220e-09,9.89237e-01,3.20893e-01,9.99995e-01
1.063183176e+00,2.15306e-07,9.99999e-01,9.99999e-01,6.62224e-07,9.82341e-01,3.28179e-01,9.99990e-01
1.068499092e+00,5.13106e-06,9.99999e-01,9.99999e-01,1.55400e-05,9.70588e-01,3.35481e-01,9.99979e-01
1.073841587e+00,2.25413e-04,9.99999e-01,9.99999e-01,6.72316e-04,9.65781e-01,3.42797e-01,9.99955e-01
