#,Wave/freq,Total,N2,O2,CO2,H2O,Rayleigh,CIA
4.000000000e-01,4.29198e-04,9.99999e-01,9.99999e-01,9.99999e-01,9.99984e-01,4.29204e-04,9.99999e-01
4.020000000e-01,5.00312e-04,9.99999e-01,9.99999e-01,9.99999e-01,9.99990e-01,5.00317e-04,9.99999e-01
4.040100000e-01,5.81355e-04,9.99999e-01,9.99999e-01,9.99999e-01,9.99995e-01,5.81357e-04,9.99999e-01
4.060300500e-01,6.73524e-04,9.99999e-01,9.99999e-01,9.99999e-01,9.99998e-01,6.73524e-04,9.99999e-01
4.080602003e-01,7.78038e-04,9.99999e-01,9.99999e-01,9.99999e-01,9.99999e-01,7.78039e-04,9.99999e-01
4.101005013e-01,8.96214e-04,9.99999e-01,9.99999e-01,9.99999e-01,9.99999e-01,8.96214e-04,9.99999e-01
4.121510038e-01,1.02946e-03,9.99999e-01,9.99999e-01,9.99999e-01,9.99998e-01,1.02946e-03,9.99999e-01
4.142117588e-01,1.17928e-03,9.99999e-01,9.99999e-01,9.99999e-01,9.99995e-01,1.17928e-03,9.99999e-01
4.162828176e-01,1.34726e-03,9.99999e-01,9.99999e-01,9.99999e-01,9.99981e-01,1.34729e-03,9.99999e-01
4.183642317e-01,1.53517e-03,9.99999e-01,9.99999e-01,9.99999e-01,9.99988e-01,1.53518e-03,9.99999e-01
4.204560528e-01,1.74477e-03,9.99999e-01,9.99999e-01,9.99999e-01,9.99992e-01,1.74478e-03,9.99999e-01
4.225583331e-01,1.97798e-03,9.99999e-01,9.99999e-01,9.99999e-01,9.99997e-01,1.97799e-03,9.99999e-01
4.246711247e-01,2.23681e-03,9.99999e-01,9.99999e-01,9.99999e-01,9.99997e-01,2.23681e-03,9.99999e-01
4.267944804e-01,2.52336e-03,9.99999e-01,9.99999e-01,9.99999e-01,9.99996e-01,2.52337e-03,9.99999e-01
4.289284528e-01,2.83986e-03,9.99999e-01,9.99999e-01,9.99999e-01,9.99997e-01,2.83987e-03,9.99999e-01
4.310730950e-01,3.18861e-03,9.99999e-01,9.99999e-01,9.99999e-01,9.99998e-01,3.18861e-03,9.99999e-01
4.332284605e-01,3.57200e-03,9.99999e-01,9.99999e-01,9.99999e-01,9.99999e-01,3.57200e-03,9.99999e-01
4.353946028e-01,3.99253e-03,9.99999e-01,9.99999e-01,9.99999e-01,9.99999e-01,3.99253e-03,9.99999e-01
4.375715758e-01,4.45275e-03,9.99999e-01,9.99999e-01,9.99999e-01,9.99997e-01,4.45276e-03,9.99999e-01
4.397594337e-01,4.95527e-03,9.99999e-01,9.99999e-01,9.99999e-01,9.99983e-01,4.95535e-03,9.99999e-01
4.419582309e-01,5.50258e-03,9.99999e-01,9.99999e-01,9.99999e-01,9.99916e-01,5.50304e-03,9.99999e-01
4.441680220e-01,6.09822e-03,9.99999e-01,9.99999e-01,9.99999e-01,9.99935e-01,6.09862e-03,9.99999e-01
4.463888621e-01,6.74449e-03,9.99999e-01,9.99999e-01,9.99999e-01,9.99932e-01,6.74494e-03,9.99999e-01
4.486208064e-01,7.44464e-03,9.99999e-01,9.99999e-01,9.99999e-01,9.99958e-01,7.44494e-03,9.99999e-01
4.508639105e-01,8.20142e-03,9.99999e-01,9.99999e-01,9.99999e-01,9.99980e-01,8.20158e-03,9.99999e-01
4.531182300e-01,9.01778e-03,9.99999e-01,9.99999e-01,9.99999e-01,9.99991e-01,9.01785e-03,9.99999e-01
4.553838212e-01,9.89675e-03,9.99999e-01,9.99999e-01,9.99999e-01,9.99994e-01,9.89680e-03,9.99999e-01
4.576607403e-01,1.08415e-02,9.99999e-01,9.99999e-01,9.99999e-01,9.99997e-01,1.08415e-02,9.99999e-01
4.599490440e-01,1.18550e-02,9.99999e-01,9.99999e-01,9.99999e-01,9.99997e-01,1.18550e-02,9.99999e-01
4.622487892e-01,1.29403e-02,9.99999e-01,9.99999e-01,9.99999e-01,9.99999e-01,1.29403e-02,9.99999e-01
4.645600332e-01,1.41007e-02,9.99999e-01,9.99999e-01,9.99999e-01,9.99998e-01,1.41007e-02,9.99999e-01
4.668828333e-01,1.53387e-02,9.99999e-01,9.99999e-01,9.99999e-01,9.99979e-01,1.53390e-02,9.99999e-01
4.692172475e-01,1.66576e-02,9.99999e-01,9.99999e-01,9.99999e-01,9.99957e-01,1.66583e-02,9.99999e-01
4.715633337e-01,1.80612e-02,9.99999e-01,9.99999e-01,9.99999e-01,9.99972e-01,1.80617e-02,9.99999e-01
4.739211504e-01,1.95515e-02,9.99999e-01,9.99999e-01,9.99999e-01,9.99973e-01,1.95520e-02,9.99999e-01
4.762907561e-01,2.11319e-02,9.99999e-01,9.99999e-01,9.99999e-01,9.99985e-01,2.11322e-02,9.99999e-01
4.786722099e-01,2.28050e-02,9.99999e-01,9.99999e-01,9.99999e-01,9.99993e-01,2.28051e-02,9.99999e-01
4.810655710e-01,2.45733e-02,9.99999e-01,9.99999e-01,9.99999e-01,9.99997e-01,2.45734e-02,9.99999e-01
4.834708988e-01,2.64393e-02,9.99999e-01,9.99999e-01,9.99999e-01,9.99983e-01,2.64397e-02,9.99999e-01
4.858882533e-01,2.84059e-02,9.99999e-01,9.99999e-01,9.99999e-01,9.99969e-01,2.84067e-02,9.99999e-01
4.883176946e-01,3.04761e-02,9.99999e-01,9.99999e-01,9.99999e-01,9.99974e-01,3.04769e-02,9.99999e-01
4.907592831e-01,3.26517e-02,9.99999e-01,9.99999e-01,9.99999e-01,9.99977e-01,3.26524e-02,9.99999e-01
4.932130795e-01,3.49351e-02,9.99999e-01,9.99999e-01,9.99999e-01,9.99983e-01,3.49357e-02,9.99999e-01
4.956791449e-01,3.73284e-02,9.99999e-01,9.99999e-01,9.99999e-01,9.99991e-01,3.73287e-02,9.99999e-01
4.981575406e-01,3.98319e-02,9.99999e-01,9.99999e-01,9.99999e-01,9.99957e-01,3.98336e-02,9.99999e-01
5.006483283e-01,4.24472e-02,9.99999e-01,9.99999e-01,9.99999e-01,9.99889e-01,4.24519e-02,9.99998e-01
5.031515699e-01,4.51602e-02,9.99999e-01,9.99999e-01,9.99999e-01,9.99444e-01,4.51856e-02,9.99993e-01
5.056673278e-01,4.80217e-02,9.99999e-01,9.99999e-01,9.99999e-01,9.99707e-01,4.80360e-02,9.99992e-01
5.081956644e-01,5.09856e-02,9.99999e-01,9.99999e-01,9.99999e-01,9.99630e-01,5.10046e-02,9.99995e-01
5.107366428e-01,5.40790e-02,9.99999e-01,9.99999e-01,9.99999e-01,9.99750e-01,5.40925e-02,9.99998e-01
5.132903260e-01,5.72927e-02,9.99999e-01,9.99999e-01,9.99999e-01,9.99857e-01,5.73008e-02,9.99999e-01
5.158567776e-01,6.06268e-02,9.99999e-01,9.99999e-01,9.99999e-01,9.99939e-01,6.06304e-02,9.99999e-01
5.184360615e-01,6.40803e-02,9.99999e-01,9.99999e-01,9.99999e-01,9.99975e-01,6.40819e-02,9.99999e-01
5.210282418e-01,6.76552e-02,9.99999e-01,9.99999e-01,9.99999e-01,9.99990e-01,6.76558e-02,9.99999e-01
5.236333830e-01,7.13500e-02,9.99999e-01,9.99999e-01,9.99999e-01,9.99963e-01,7.13526e-02,9.99999e-01
5.262515499e-01,7.51705e-02,9.99999e-01,9.99999e-01,9.99999e-01,9.99976e-01,7.51722e-02,9.99999e-01
5.288828077e-01,7.91132e-02,9.99999e-01,9.99999e-01,9.99999e-01,9.99978e-01,7.91149e-02,9.99999e-01
5.315272217e-01,8.31788e-02,9.99999e-01,9.99999e-01,9.99999e-01,9.99981e-01,8.31803e-02,9.99999e-01
5.341848578e-01,8.73670e-02,9.99999e-01,9.99999e-01,9.99999e-01,9.99987e-01,8.73680e-02,9.99999e-01
5.368557821e-01,9.16738e-02,9.99999e-01,9.99999e-01,9.99999e-01,9.99957e-01,9.16777e-02,9.99999e-01
5.395400610e-01,9.60936e-02,9.99999e-01,9.99999e-01,9.99999e-01,9.99846e-01,9.61084e-02,9.99998e-01
5.422377613e-01,1.00639e-01,9.99999e-01,9.99999e-01,9.99999e-01,9.99803e-01,1.00659e-01,9.99995e-01
5.449489501e-01,1.05310e-01,9.99999e-01,9.99999e-01,9.99999e-01,9.99816e-01,1.05330e-01,9.99995e-01
5.476736949e-01,1.10100e-01,9.99999e-01,9.99999e-01,9.99999e-01,9.99838e-01,1.10118e-01,9.99997e-01
5.504120634e-01,1.15009e-01,9.99999e-01,9.99999e-01,9.99999e-01,9.99882e-01,1.15023e-01,9.99999e-01
5.531641237e-01,1.20035e-01,9.99999e-01,9.99999e-01,9.99999e-01,9.99940e-01,1.20042e-01,9.99999e-01
5.559299443e-01,1.25172e-01,9.99999e-01,9.99999e-01,9.99999e-01,9.99971e-01,1.25176e-01,9.99999e-01
5.587095940e-01,1.30418e-01,9.99999e-01,9.99999e-01,9.99999e-01,9.99981e-01,1.30421e-01,9.99999e-01
5.615031420e-01,1.35773e-01,9.99999e-01,9.99999e-01,9.99999e-01,9.99979e-01,1.35775e-01,9.99999e-01
5.643106577e-01,1.41234e-01,9.99999e-01,9.99999e-01,9.99999e-01,9.99976e-01,1.41237e-01,9.99999e-01
5.671322110e-01,1.46764e-01,9.99999e-01,9.99999e-01,9.99999e-01,9.99722e-01,1.46805e-01,9.99997e-01
5.699678720e-01,1.52430e-01,9.99999e-01,9.99999e-01,9.99999e-01,9.99709e-01,1.52475e-01,9.99992e-01
5.728177114e-01,1.58197e-01,9.99999e-01,9.99999e-01,9.99999e-01,9.99695e-01,1.58246e-01,9.99993e-01
5.756818000e-01,1.64069e-01,9.99999e-01,9.99999e-01,9.99999e-01,9.99720e-01,1.64115e-01,9.99995e-01
5.785602090e-01,1.70038e-01,9.99999e-01,9.99999e-01,9.99999e-01,9.99756e-01,1.70079e-01,9.99998e-01
5.814530100e-01,1.76093e-01,9.99999e-01,9.99999e-01,9.99999e-01,9.99755e-01,1.76136e-01,9.99998e-01
5.843602750e-01,1.82228e-01,9.99999e-01,9.99999e-01,9.99999e-01,9.99707e-01,1.82282e-01,9.99997e-01
5.872820764e-01,1.88037e-01,9.99999e-01,9.99999e-01,9.99999e-01,9.97481e-01,1.88515e-01,9.99981e-01
5.902184868e-01,1.94231e-01,9.99999e-01,9.99999e-01,9.99999e-01,9.96964e-01,1.94832e-01,9.99951e-01
5.931695792e-01,2.00787e-01,9.99999e-01,9.99999e-01,9.99999e-01,9.97851e-01,2.01229e-01,9.99953e-01
5.961354271e-01,2.07210e-01,9.99999e-01,9.99999e-01,9.99999e-01,9.97647e-01,2.07704e-01,9.99972e-01
5.991161043e-01,2.13884e-01,9.99999e-01,9.99999e-01,9.99999e-01,9.98285e-01,2.14253e-01,9.99991e-01
6.021116848e-01,2.20658e-01,9.99999e-01,9.99999e-01,9.99999e-01,9.99027e-01,2.20873e-01,9.99998e-01
6.051222432e-01,2.27449e-01,9.99999e-01,9.99999e-01,9.99999e-01,9.99507e-01,2.27561e-01,9.99999e-01
6.081478544e-01,2.34263e-01,9.99999e-01,9.99999e-01,9.99999e-01,9.99787e-01,2.34313e-01,9.99999e-01
6.111885937e-01,2.41105e-01,9.99999e-01,9.99999e-01,9.99999e-01,9.99909e-01,2.41126e-01,9.99999e-01
6.142445367e-01,2.47987e-01,9.99999e-01,9.99999e-01,9.99999e-01,9.99959e-01,2.47997e-01,9.99999e-01
6.173157594e-01,2.54917e-01,9.99999e-01,9.99999e-01,9.99999e-01,9.99977e-01,2.54922e-01,9.99999e-01
6.204023382e-01,2.61893e-01,9.99999e-01,9.99999e-01,9.99999e-01,9.99980e-01,2.61898e-01,9.99999e-01
6.235043498e-01,2.68899e-01,9.99999e-01,9.99999e-01,9.99999e-01,9.99916e-01,2.68922e-01,9.99999e-01
6.266218716e-01,2.75868e-01,9.99999e-01,9.99999e-01,9.99999e-01,9.99562e-01,2.75989e-01,9.99996e-01
6.297549810e-01,2.83050e-01,9.99999e-01,9.99999e-01,9.99999e-01,9.99839e-01,2.83097e-01,9.99993e-01
6.329037559e-01,2.90150e-01,9.99999e-01,9.99999e-01,9.99999e-01,9.99683e-01,2.90243e-01,9.99994e-01
6.360682746e-01,2.97341e-01,9.99999e-01,9.99999e-01,9.99999e-01,9.99729e-01,2.97422e-01,9.99996e-01
6.392486160e-01,3.04525e-01,9.99999e-01,9.99999e-01,9.99999e-01,9.99649e-01,3.04632e-01,9.99998e-01
6.424448591e-01,3.11722e-01,9.99999e-01,9.99999e-01,9.99999e-01,9.99529e-01,3.11869e-01,9.99997e-01
6.456570834e-01,3.18429e-01,9.99999e-01,9.99999e-01,9.99999e-01,9.97817e-01,3.19130e-01,9.99986e-01
6.488853688e-01,3.25882e-01,9.99999e-01,9.99999e-01,9.99999e-01,9.98410e-01,3.26411e-01,9.99965e-01
6.521297956e-01,3.33161e-01,9.99999e-01,9.99999e-01,9.99999e-01,9.98380e-01,3.33710e-01,9.99971e-01
6.553904446e-01,3.40466e-01,9.99999e-01,9.99999e-01,9.99999e-01,9.98384e-01,3.41023e-01,9.99978e-01
6.586673968e-01,3.47864e-01,9.99999e-01,9.99999e-01,9.99999e-01,9.98619e-01,3.48348e-01,9.99992e-01
6.619607338e-01,3.55406e-01,9.99999e-01,9.99999e-01,9.99999e-01,9.99230e-01,3.55680e-01,9.99998e-01
6.652705375e-01,3.62849e-01,9.99999e-01,9.99999e-01,9.99999e-01,9.99538e-01,3.63017e-01,9.99998e-01
6.685968902e-01,3.70283e-01,9.99999e-01,9.99999e-01,9.99999e-01,9.99803e-01,3.70356e-01,9.99999e-01
6.719398746e-01,3.77657e-01,9.99999e-01,9.99999e-01,9.99999e-01,9.99900e-01,3.77694e-01,9.99999e-01
6.752995740e-01,3.85008e-01,9.99999e-01,9.99999e-01,9.99999e-01,9.99945e-01,3.85028e-01,9.99999e-01
6.786760719e-01,3.92325e-01,9.99999e-01,9.99999e-01,9.99999e-01,9.99921e-01,3.92356e-01,9.99999e-01
6.820694522e-01,3.99621e-01,9.99999e-01,9.99999e-01,9.99999e-01,9.99866e-01,3.99674e-01,9.99998e-01
6.854797995e-01,4.06910e-01,9.99999e-01,9.99999e-01,9.99999e-01,9.99827e-01,4.06980e-01,9.99998e-01
6.889071985e-01,4.14096e-01,9.99999e-01,9.99999e-01,9.99999e-01,9.99579e-01,4.14272e-01,9.99995e-01
6.923517345e-01,4.18659e-01,9.99999e-01,9.99999e-01,9.99999e-01,9.93182e-01,4.21546e-01,9.99966e-01
6.958134932e-01,4.27265e-01,9.99999e-01,9.99999e-01,9.99999e-01,9.96490e-01,4.28800e-01,9.99927e-01
6.992925606e-01,4.34535e-01,9.99999e-01,9.99999e-01,9.99999e-01,9.96629e-01,4.36033e-01,9.99934e-01
7.027890234e-01,4.41383e-01,9.99999e-01,9.99999e-01,9.99999e-01,9.95857e-01,4.43240e-01,9.99949e-01
7.063029686e-01,4.48841e-01,9.99999e-01,9.99999e-01,9.99999e-01,9.96515e-01,4.50422e-01,9.99974e-01
7.098344834e-01,4.56037e-01,9.99999e-01,9.99999e-01,9.99999e-01,9.96656e-01,4.57574e-01,9.99984e-01
7.133836558e-01,4.62597e-01,9.99999e-01,9.99999e-01,9.99999e-01,9.95513e-01,4.64695e-01,9.99970e-01
7.169505741e-01,4.54912e-01,9.99999e-01,9.99999e-01,9.99999e-01,9.64460e-01,4.71783e-01,9.99771e-01
7.205353270e-01,4.70335e-01,9.99999e-01,9.99999e-01,9.99999e-01,9.82643e-01,4.78836e-01,9.99596e-01
7.241380036e-01,4.74911e-01,9.99999e-01,9.99999e-01,9.99999e-01,9.77822e-01,4.85851e-01,9.99651e-01
7.277586936e-01,4.82823e-01,9.99999e-01,9.99999e-01,9.99999e-01,9.79975e-01,4.92829e-01,9.99715e-01
7.313974871e-01,4.89110e-01,9.99999e-01,9.99999e-01,9.99999e-01,9.78809e-01,4.99765e-01,9.99866e-01
7.350544745e-01,5.00743e-01,9.99999e-01,9.99999e-01,9.99999e-01,9.88368e-01,5.06659e-01,9.99953e-01
7.387297469e-01,5.09102e-01,9.99999e-01,9.99999e-01,9.99999e-01,9.91436e-01,5.13510e-01,9.99978e-01
7.424233956e-01,5.18132e-01,9.99999e-01,9.99999e-01,9.99999e-01,9.95808e-01,5.20314e-01,9.99995e-01
7.461355126e-01,5.25732e-01,9.99999e-01,9.99999e-01,9.99999e-01,9.97456e-01,5.27072e-01,9.99998e-01
7.498661902e-01,5.33151e-01,9.99999e-01,9.99999e-01,9.99999e-01,9.98817e-01,5.33782e-01,9.99999e-01
7.536155211e-01,5.40128e-01,9.99999e-01,9.99999e-01,9.99999e-01,9.99418e-01,5.40442e-01,9.99999e-01
7.573835987e-01,5.46888e-01,9.99999e-01,9.99999e-01,9.99999e-01,9.99700e-01,5.47051e-01,9.99999e-01
7.611705167e-01,5.53506e-01,9.99999e-01,9.99999e-01,9.99999e-01,9.99813e-01,5.53609e-01,9.99999e-01
7.649763693e-01,5.60047e-01,9.99999e-01,9.99999e-01,9.99999e-01,9.99883e-01,5.60112e-01,9.99999e-01
7.688012511e-01,5.66516e-01,9.99999e-01,9.99999e-01,9.99999e-01,9.99918e-01,5.66562e-01,9.99999e-01
7.726452574e-01,5.72918e-01,9.99999e-01,9.99999e-01,9.99999e-01,9.99932e-01,5.72956e-01,9.99999e-01
7.765084837e-01,5.79239e-01,9.99999e-01,9.99999e-01,9.99999e-01,9.99904e-01,5.79294e-01,9.99999e-01
7.803910261e-01,5.70061e-01,9.99999e-01,9.99999e-01,9.73898e-01,9.99587e-01,5.85575e-01,9.99999e-01
7.842929812e-01,5.28484e-01,9.99999e-01,9.99999e-01,8.94258e-01,9.98559e-01,5.91797e-01,9.99996e-01
7.882144461e-01,5.28618e-01,9.99999e-01,9.99999e-01,8.86591e-01,9.97046e-01,5.97962e-01,9.99979e-01
7.921555184e-01,5.62506e-01,9.99999e-01,9.99999e-01,9.32711e-01,9.98384e-01,6.04066e-01,9.99964e-01
7.961162960e-01,5.80797e-01,9.99999e-01,9.99999e-01,9.54709e-01,9.97127e-01,6.10111e-01,9.99966e-01
8.000968774e-01,5.98794e-01,9.99999e-01,9.99999e-01,9.75169e-01,9.96693e-01,6.16094e-01,9.99963e-01
8.040973618e-01,6.11945e-01,9.99999e-01,9.99999e-01,9.87096e-01,9.96689e-01,6.22017e-01,9.99972e-01
8.081178486e-01,6.19458e-01,9.99999e-01,9.99999e-01,9.94043e-01,9.92521e-01,6.27878e-01,9.99971e-01
8.121584379e-01,6.12952e-01,9.99999e-01,9.99999e-01,9.98167e-01,9.69158e-01,6.33677e-01,9.99895e-01
8.162192301e-01,6.15689e-01,9.99999e-01,9.99999e-01,9.99594e-01,9.63659e-01,6.39413e-01,9.99607e-01
8.203003262e-01,6.32856e-01,9.99999e-01,9.99999e-01,9.99993e-01,9.81496e-01,6.45086e-01,9.99540e-01
8.244018279e-01,6.33898e-01,9.99999e-01,9.99999e-01,9.99999e-01,9.74539e-01,6.50696e-01,9.99634e-01
8.285238370e-01,6.41693e-01,9.99999e-01,9.99999e-01,9.99999e-01,9.78109e-01,6.56242e-01,9.99712e-01
8.326664562e-01,6.47035e-01,9.99999e-01,9.99999e-01,9.99999e-01,9.77915e-01,6.61725e-01,9.99880e-01
8.368297885e-01,6.56594e-01,9.99999e-01,9.99999e-01,9.99999e-01,9.84212e-01,6.67144e-01,9.99972e-01
8.410139374e-01,6.66167e-01,9.99999e-01,9.99999e-01,9.99999e-01,9.90598e-01,6.72499e-01,9.99983e-01
8.452190071e-01,6.74656e-01,9.99999e-01,9.99999e-01,9.99999e-01,9.95384e-01,6.77790e-01,9.99990e-01
8.494451021e-01,6.81179e-01,9.99999e-01,9.99999e-01,9.99999e-01,9.97315e-01,6.83017e-01,9.99991e-01
8.536923276e-01,6.87086e-01,9.99999e-01,9.99999e-01,9.99999e-01,9.98414e-01,6.88180e-01,9.99994e-01
8.579607893e-01,6.92600e-01,9.99999e-01,9.99999e-01,9.99999e-01,9.99022e-01,6.93279e-01,9.99998e-01
8.622505932e-01,6.97880e-01,9.99999e-01,9.99999e-01,9.99999e-01,9.99379e-01,6.98313e-01,9.99999e-01
8.665618462e-01,6.58990e-01,9.99999e-01,9.99999e-01,9.37366e-01,9.99615e-01,7.03284e-01,9.99999e-01
8.708946554e-01,5.31379e-01,9.99999e-01,9.99999e-01,7.50654e-01,9.99558e-01,7.08191e-01,9.99999e-01
8.752491287e-01,5.66712e-01,9.99999e-01,9.99999e-01,7.95248e-01,9.99410e-01,7.13034e-01,9.99998e-01
8.796253743e-01,6.32898e-01,9.99999e-01,9.99999e-01,8.82409e-01,9.99182e-01,7.17813e-01,9.99997e-01
8.840235012e-01,6.76634e-01,9.99999e-01,9.99999e-01,9.37349e-01,9.99066e-01,7.22530e-01,9.99993e-01
8.884436187e-01,7.06502e-01,9.99999e-01,9.99999e-01,9.74904e-01,9.96560e-01,7.27183e-01,9.99983e-01
8.928858368e-01,6.98531e-01,9.99999e-01,9.99999e-01,9.89755e-01,9.64479e-01,7.31773e-01,9.99906e-01
8.973502660e-01,6.88815e-01,9.99999e-01,9.99999e-01,9.97511e-01,9.38252e-01,7.36301e-01,9.99522e-01
9.018370173e-01,7.16416e-01,9.99999e-01,9.99999e-01,9.99725e-01,9.68111e-01,7.40766e-01,9.99249e-01
9.063462024e-01,7.18512e-01,9.99999e-01,9.99999e-01,9.92826e-01,9.71670e-01,7.45170e-01,9.99341e-01
9.108779334e-01,7.04791e-01,9.99999e-01,9.99999e-01,9.83851e-01,9.56279e-01,7.49512e-01,9.99315e-01
9.154323231e-01,7.13454e-01,9.99999e-01,9.99999e-01,9.96210e-01,9.50565e-01,7.53793e-01,9.99433e-01
9.200094847e-01,6.88955e-01,9.99999e-01,9.99999e-01,9.44492e-01,9.61104e-01,7.58013e-01,9.99682e-01
9.246095321e-01,6.61144e-01,9.99999e-01,9.99999e-01,9.23293e-01,9.38811e-01,7.62173e-01,9.99634e-01
9.292325798e-01,4.73985e-01,9.99999e-01,9.99999e-01,9.38867e-01,6.56292e-01,7.66272e-01,9.98577e-01
9.338787427e-01,4.21594e-01,9.99999e-01,9.99999e-01,9.41276e-01,5.81923e-01,7.70312e-01,9.94134e-01
9.385481364e-01,5.92685e-01,9.99999e-01,9.99999e-01,9.56543e-01,8.04264e-01,7.74293e-01,9.93028e-01
9.432408771e-01,5.54859e-01,9.99999e-01,9.99999e-01,9.73231e-01,7.36175e-01,7.78215e-01,9.93982e-01
9.479570815e-01,5.02516e-01,9.99999e-01,9.99999e-01,9.86163e-01,6.54363e-01,7.82079e-01,9.95099e-01
9.526968669e-01,5.68358e-01,9.99999e-01,9.99999e-01,9.93312e-01,7.29918e-01,7.85886e-01,9.97007e-01
9.574603512e-01,5.89658e-01,9.99999e-01,9.99999e-01,9.97137e-01,7.49924e-01,7.89635e-01,9.98478e-01
9.622476530e-01,6.27007e-01,9.99999e-01,9.99999e-01,9.99106e-01,7.91858e-01,7.93327e-01,9.98947e-01
9.670588912e-01,6.96000e-01,9.99999e-01,9.99999e-01,9.99732e-01,8.74167e-01,7.96963e-01,9.99280e-01
9.718941857e-01,7.35703e-01,9.99999e-01,9.99999e-01,9.99980e-01,9.19506e-01,8.00544e-01,9.99469e-01
9.767536566e-01,7.49663e-01,9.99999e-01,9.99999e-01,9.99999e-01,9.32713e-01,8.04070e-01,9.99594e-01
9.816374249e-01,7.66887e-01,9.99999e-01,9.99999e-01,9.99999e-01,9.49790e-01,8.07540e-01,9.99859e-01
9.865456120e-01,7.85269e-01,9.99999e-01,9.99999e-01,9.99999e-01,9.68350e-01,8.10957e-01,9.99970e-01
9.914783401e-01,7.98290e-01,9.99999e-01,9.99999e-01,9.99999e-01,9.80320e-01,8.14321e-01,9.99991e-01
9.964357318e-01,8.08829e-01,9.99999e-01,9.99999e-01,9.99999e-01,9.89239e-01,8.17631e-01,9.99994e-01
1.001417910e+00,8.15581e-01,9.99999e-01,9.99999e-01,9.99999e-01,9.93539e-01,8.20890e-01,9.99992e-01
1.006425000e+00,8.21046e-01,9.99999e-01,9.99999e-01,9.99999e-01,9.96309e-01,8.24096e-01,9.99989e-01
1.011457125e+00,8.25350e-01,9.99999e-01,9.99999e-01,9.99999e-01,9.97710e-01,8.27251e-01,9.99989e-01
1.016514411e+00,8.29059e-01,9.99999e-01,9.99999e-01,9.99999e-01,9.98444e-01,8.30356e-01,9.99992e-01
1.021596983e+00,8.32338e-01,9.99999e-01,9.99999e-01,9.99958e-01,9.98759e-01,8.33411e-01,9.99992e-01
1.026704968e+00,8.33263e-01,9.99999e-01,9.99999e-01,9.97197e-01,9.99032e-01,8.36416e-01,9.99995e-01
1.031838492e+00,8.07320e-01,9.99999e-01,9.99999e-01,9.62472e-01,9.99297e-01,8.39372e-01,9.99998e-01
1.036997685e+00,1.68722e-01,9.99999e-01,9.99999e-01,2.00384e-01,9.99582e-01,8.42280e-01,9.99999e-01
1.042182673e+00,1.71602e-01,9.99999e-01,9.99999e-01,2.03137e-01,9.99500e-01,8.45141e-01,9.99999e-01
1.047393587e+00,1.77433e-01,9.99999e-01,9.99999e-01,2.09372e-01,9.99338e-01,8.47954e-01,9.99999e-01
1.052630555e+00,1.13957e-02,9.99999e-01,9.99999e-01,1.34045e-02,9.99092e-01,8.50721e-01,9.99999e-01
1.057893707e+00,2.54602e-02,9.99999e-01,9.99999e-01,2.98651e-02,9.98483e-01,8.53442e-01,9.99998e-01
1.063183176e+00,6.53301e-02,9.99999e-01,9.99999e-01,7.64541e-02,9.97506e-01,8.56118e-01,9.99998e-01
1.068499092e+00,1.47567e-01,9.99999e-01,9.99999e-01,1.72468e-01,9.95829e-01,8.58749e-01,9.99996e-01
1.073841587e+00,2.83449e-01,9.99999e-01,9.99999e-01,3.30504e-01,9.95114e-01,8.61336e-01,9.99993e-01
