#,Wave/freq,Total,N2,O2,CO2,H2O,Rayleigh,CIA
4.000000000e-01,7.53287e-04,9.99999e-01,9.99999e-01,9.99999e-01,9.99985e-01,7.53298e-04,9.99999e-01
4.020000000e-01,8.68391e-04,9.99999e-01,9.99999e-01,9.99999e-01,9.99990e-01,8.68399e-04,9.99999e-01
4.040100000e-01,9.98126e-04,9.99999e-01,9.99999e-01,9.99999e-01,9.99995e-01,9.98130e-04,9.99999e-01
4.060300500e-01,1.14409e-03,9.99999e-01,9.99999e-01,9.99999e-01,9.99998e-01,1.14409e-03,9.99999e-01
4.080602003e-01,1.30787e-03,9.99999e-01,9.99999e-01,9.99999e-01,9.99999e-01,1.30787e-03,9.99999e-01
4.101005013e-01,1.49114e-03,9.99999e-01,9.99999e-01,9.99999e-01,9.99999e-01,1.49114e-03,9.99999e-01
4.121510038e-01,1.69570e-03,9.99999e-01,9.99999e-01,9.99999e-01,9.99998e-01,1.69570e-03,9.99999e-01
4.142117588e-01,1.92342e-03,9.99999e-01,9.99999e-01,9.99999e-01,9.99995e-01,1.92343e-03,9.99999e-01
4.162828176e-01,2.17628e-03,9.99999e-01,9.99999e-01,9.99999e-01,9.99982e-01,2.17631e-03,9.99999e-01
4.183642317e-01,2.45643e-03,9.99999e-01,9.99999e-01,9.99999e-01,9.99989e-01,2.45645e-03,9.99999e-01
4.204560528e-01,2.76601e-03,9.99999e-01,9.99999e-01,9.99999e-01,9.99993e-01,2.76603e-03,9.99999e-01
4.225583331e-01,3.10731e-03,9.99999e-01,9.99999e-01,9.99999e-01,9.99997e-01,3.10732e-03,9.99999e-01
4.246711247e-01,3.48270e-03,9.99999e-01,9.99999e-01,9.99999e-01,9.99997e-01,3.48271e-03,9.99999e-01
4.267944804e-01,3.89466e-03,9.99999e-01,9.99999e-01,9.99999e-01,9.99996e-01,3.89467e-03,9.99999e-01
4.289284528e-01,4.34574e-03,9.99999e-01,9.99999e-01,9.99999e-01,9.99997e-01,4.34575e-03,9.99999e-01
4.310730950e-01,4.83859e-03,9.99999e-01,9.99999e-01,9.99999e-01,9.99998e-01,4.83859e-03,9.99999e-01
4.332284605e-01,5.37590e-03,9.99999e-01,9.99999e-01,9.99999e-01,9.99999e-01,5.37590e-03,9.99999e-01
4.353946028e-01,5.96047e-03,9.99999e-01,9.99999e-01,9.99999e-01,9.99999e-01,5.96047e-03,9.99999e-01
4.375715758e-01,6.59513e-03,9.99999e-01,9.99999e-01,9.99999e-01,9.99997e-01,6.59514e-03,9.99999e-01
4.397594337e-01,7.28272e-03,9.99999e-01,9.99999e-01,9.99999e-01,9.99984e-01,7.28283e-03,9.99999e-01
4.419582309e-01,8.02587e-03,9.99999e-01,9.99999e-01,9.99999e-01,9.99924e-01,8.02648e-03,9.99999e-01
4.441680220e-01,8.82856e-03,9.99999e-01,9.99999e-01,9.99999e-01,9.99939e-01,8.82909e-03,9.99999e-01
4.463888621e-01,9.69308e-03,9.99999e-01,9.99999e-01,9.99999e-01,9.99937e-01,9.69369e-03,9.99999e-01
4.486208064e-01,1.06229e-02,9.99999e-01,9.99999e-01,9.99999e-01,9.99960e-01,1.06233e-02,9.99999e-01
4.508639105e-01,1.16209e-02,9.99999e-01,9.99999e-01,9.99999e-01,9.99981e-01,1.16211e-02,9.99999e-01
4.531182300e-01,1.26900e-02,9.99999e-01,9.99999e-01,9.99999e-01,9.99992e-01,1.26900e-02,9.99999e-01
4.553838212e-01,1.38332e-02,9.99999e-01,9.99999e-01,9.99999e-01,9.99994e-01,1.38333e-02,9.99999e-01
4.576607403e-01,1.50538e-02,9.99999e-01,9.99999e-01,9.99999e-01,9.99997e-01,1.50538e-02,9.99999e-01
4.599490440e-01,1.63546e-02,9.99999e-01,9.99999e-01,9.99999e-01,9.99997e-01,1.63547e-02,9.99999e-01
4.622487892e-01,1.77389e-02,9.99999e-01,9.99999e-01,9.99999e-01,9.99999e-01,1.77389e-02,9.99999e-01
4.645600332e-01,1.92094e-02,9.99999e-01,9.99999e-01,9.99999e-01,9.99998e-01,1.92094e-02,9.99999e-01
4.668828333e-01,2.07688e-02,9.99999e-01,9.99999e-01,9.99999e-01,9.99981e-01,2.07692e-02,9.99999e-01
4.692172475e-01,2.24201e-02,9.99999e-01,9.99999e-01,9.99999e-01,9.99960e-01,2.24210e-02,9.99999e-01
4.715633337e-01,2.41670e-02,9.99999e-01,9.99999e-01,9.99999e-01,9.99974e-01,2.41676e-02,9.99999e-01
4.739211504e-01,2.60111e-02,9.99999e-01,9.99999e-01,9.99999e-01,9.99975e-01,2.60117e-02,9.99999e-01
4.762907561e-01,2.79555e-02,9.99999e-01,9.99999e-01,9.99999e-01,9.99986e-01,2.79559e-02,9.99999e-01
4.786722099e-01,3.00024e-02,9.99999e-01,9.99999e-01,9.99999e-01,9.99994e-01,3.00026e-02,9.99999e-01
4.810655710e-01,3.21542e-02,9.99999e-01,9.99999e-01,9.99999e-01,9.99997e-01,3.21543e-02,9.99999e-01
4.834708988e-01,3.44127e-02,9.99999e-01,9.99999e-01,9.99999e-01,9.99984e-01,3.44132e-02,9.99999e-01
4.858882533e-01,3.67803e-02,9.99999e-01,9.99999e-01,9.99999e-01,9.99971e-01,3.67814e-02,9.99999e-01
4.883176946e-01,3.92600e-02,9.99999e-01,9.99999e-01,9.99999e-01,9.99976e-01,3.92609e-02,9.99999e-01
4.907592831e-01,4.18527e-02,9.99999e-01,9.99999e-01,9.99999e-01,9.99978e-01,4.18536e-02,9.99999e-01
4.932130795e-01,4.45606e-02,9.99999e-01,9.99999e-01,9.99999e-01,9.99984e-01,4.45612e-02,9.99999e-01
4.956791449e-01,4.73849e-02,9.99999e-01,9.99999e-01,9.99999e-01,9.99991e-01,4.73853e-02,9.99999e-01
4.981575406e-01,5.03253e-02,9.99999e-01,9.99999e-01,9.99999e-01,9.99960e-01,5.03272e-02,9.99999e-01
5.006483283e-01,5.33828e-02,9.99999e-01,9.99999e-01,9.99999e-01,9.99899e-01,5.33882e-02,9.99998e-01
5.031515699e-01,5.65401e-02,9.99999e-01,9.99999e-01,9.99999e-01,9.99486e-01,5.65694e-02,9.99994e-01
5.056673278e-01,5.98550e-02,9.99999e-01,9.99999e-01,9.99999e-01,9.99727e-01,5.98716e-02,9.99993e-01
5.081956644e-01,6.32737e-02,9.99999e-01,9.99999e-01,9.99999e-01,9.99656e-01,6.32957e-02,9.99995e-01
5.107366428e-01,6.68265e-02,9.99999e-01,9.99999e-01,9.99999e-01,9.99767e-01,6.68421e-02,9.99998e-01
5.132903260e-01,7.05018e-02,9.99999e-01,9.99999e-01,9.99999e-01,9.99866e-01,7.05112e-02,9.99999e-01
5.158567776e-01,7.42991e-02,9.99999e-01,9.99999e-01,9.99999e-01,9.99943e-01,7.43033e-02,9.99999e-01
5.184360615e-01,7.82165e-02,9.99999e-01,9.99999e-01,9.99999e-01,9.99977e-01,7.82183e-02,9.99999e-01
5.210282418e-01,8.22554e-02,9.99999e-01,9.99999e-01,9.99999e-01,9.99991e-01,8.22561e-02,9.99999e-01
5.236333830e-01,8.64135e-02,9.99999e-01,9.99999e-01,9.99999e-01,9.99966e-01,8.64164e-02,9.99999e-01
5.262515499e-01,9.06968e-02,9.99999e-01,9.99999e-01,9.99999e-01,9.99978e-01,9.06987e-02,9.99999e-01
5.288828077e-01,9.51005e-02,9.99999e-01,9.99999e-01,9.99999e-01,9.99980e-01,9.51023e-02,9.99999e-01
5.315272217e-01,9.96247e-02,9.99999e-01,9.99999e-01,9.99999e-01,9.99982e-01,9.96264e-02,9.99999e-01
5.341848578e-01,1.04269e-01,9.99999e-01,9.99999e-01,9.99999e-01,9.99988e-01,1.04270e-01,9.99999e-01
5.368557821e-01,1.09027e-01,9.99999e-01,9.99999e-01,9.99999e-01,9.99960e-01,1.09032e-01,9.99999e-01
5.395400610e-01,1.13894e-01,9.99999e-01,9.99999e-01,9.99999e-01,9.99860e-01,1.13910e-01,9.99998e-01
5.422377613e-01,1.18882e-01,9.99999e-01,9.99999e-01,9.99999e-01,9.99816e-01,1.18905e-01,9.99996e-01
5.449489501e-01,1.23991e-01,9.99999e-01,9.99999e-01,9.99999e-01,9.99830e-01,1.24013e-01,9.99996e-01
5.476736949e-01,1.29213e-01,9.99999e-01,9.99999e-01,9.99999e-01,9.99849e-01,1.29233e-01,9.99997e-01
5.504120634e-01,1.34548e-01,9.99999e-01,9.99999e-01,9.99999e-01,9.99890e-01,1.34563e-01,9.99999e-01
5.531641237e-01,1.39993e-01,9.99999e-01,9.99999e-01,9.99999e-01,9.99944e-01,1.40001e-01,9.99999e-01
5.559299443e-01,1.45541e-01,9.99999e-01,9.99999e-01,9.99999e-01,9.99972e-01,1.45545e-01,9.99999e-01
5.587095940e-01,1.51190e-01,9.99999e-01,9.99999e-01,9.99999e-01,9.99982e-01,1.51192e-01,9.99999e-01
5.615031420e-01,1.56938e-01,9.99999e-01,9.99999e-01,9.99999e-01,9.99981e-01,1.56941e-01,9.99999e-01
5.643106577e-01,1.62784e-01,9.99999e-01,9.99999e-01,9.99999e-01,9.99978e-01,1.62788e-01,9.99999e-01
5.671322110e-01,1.68688e-01,9.99999e-01,9.99999e-01,9.99999e-01,9.99749e-01,1.68731e-01,9.99997e-01
5.699678720e-01,1.74718e-01,9.99999e-01,9.99999e-01,9.99999e-01,9.99726e-01,1.74767e-01,9.99992e-01
5.728177114e-01,1.80841e-01,9.99999e-01,9.99999e-01,9.99999e-01,9.99718e-01,1.80893e-01,9.99993e-01
5.756818000e-01,1.87058e-01,9.99999e-01,9.99999e-01,9.99999e-01,9.99741e-01,1.87107e-01,9.99995e-01
5.785602090e-01,1.93361e-01,9.99999e-01,9.99999e-01,9.99999e-01,9.99773e-01,1.93405e-01,9.99998e-01
5.814530100e-01,1.99739e-01,9.99999e-01,9.99999e-01,9.99999e-01,9.99773e-01,1.99785e-01,9.99999e-01
5.843602750e-01,2.06187e-01,9.99999e-01,9.99999e-01,9.99999e-01,9.99731e-01,2.06242e-01,9.99997e-01
5.872820764e-01,2.12280e-01,9.99999e-01,9.99999e-01,9.99999e-01,9.97688e-01,2.12775e-01,9.99983e-01
5.902184868e-01,2.18750e-01,9.99999e-01,9.99999e-01,9.99999e-01,9.97176e-01,2.19379e-01,9.99955e-01
5.931695792e-01,2.25593e-01,9.99999e-01,9.99999e-01,9.99999e-01,9.98009e-01,2.26052e-01,9.99956e-01
5.961354271e-01,2.32275e-01,9.99999e-01,9.99999e-01,9.99999e-01,9.97814e-01,2.32790e-01,9.99973e-01
5.991161043e-01,2.39206e-01,9.99999e-01,9.99999e-01,9.99999e-01,9.98404e-01,2.39590e-01,9.99991e-01
6.021116848e-01,2.46225e-01,9.99999e-01,9.99999e-01,9.99999e-01,9.99093e-01,2.46448e-01,9.99998e-01
6.051222432e-01,2.53245e-01,9.99999e-01,9.99999e-01,9.99999e-01,9.99540e-01,2.53362e-01,9.99999e-01
6.081478544e-01,2.60275e-01,9.99999e-01,9.99999e-01,9.99999e-01,9.99801e-01,2.60326e-01,9.99999e-01
6.111885937e-01,2.67317e-01,9.99999e-01,9.99999e-01,9.99999e-01,9.99915e-01,2.67340e-01,9.99999e-01
6.142445367e-01,2.74387e-01,9.99999e-01,9.99999e-01,9.99999e-01,9.99962e-01,2.74398e-01,9.99999e-01
6.173157594e-01,2.81491e-01,9.99999e-01,9.99999e-01,9.99999e-01,9.99978e-01,2.81497e-01,9.99999e-01
6.204023382e-01,2.88629e-01,9.99999e-01,9.99999e-01,9.99999e-01,9.99982e-01,2.88634e-01,9.99999e-01
6.235043498e-01,2.95784e-01,9.99999e-01,9.99999e-01,9.99999e-01,9.99924e-01,2.95806e-01,9.99999e-01
6.266218716e-01,3.02886e-01,9.99999e-01,9.99999e-01,9.99999e-01,9.99594e-01,3.03009e-01,9.99996e-01
6.297549810e-01,3.10193e-01,9.99999e-01,9.99999e-01,9.99999e-01,9.99851e-01,3.10241e-01,9.99993e-01
6.329037559e-01,3.17402e-01,9.99999e-01,9.99999e-01,9.99999e-01,9.99705e-01,3.17496e-01,9.99994e-01
6.360682746e-01,3.24692e-01,9.99999e-01,9.99999e-01,9.99999e-01,9.99749e-01,3.24774e-01,9.99996e-01
6.392486160e-01,3.31961e-01,9.99999e-01,9.99999e-01,9.99999e-01,9.99675e-01,3.32069e-01,9.99998e-01
6.424448591e-01,3.39232e-01,9.99999e-01,9.99999e-01,9.99999e-01,9.99568e-01,3.39379e-01,9.99997e-01
6.456570834e-01,3.46004e-01,9.99999e-01,9.99999e-01,9.99999e-01,9.97999e-01,3.46701e-01,9.99988e-01
6.488853688e-01,3.53406e-01,9.99999e-01,9.99999e-01,9.99999e-01,9.98264e-01,3.54032e-01,9.99968e-01
6.521297956e-01,3.60814e-01,9.99999e-01,9.99999e-01,9.99999e-01,9.98491e-01,3.61368e-01,9.99973e-01
6.553904446e-01,3.68151e-01,9.99999e-01,9.99999e-01,9.99999e-01,9.98511e-01,3.68707e-01,9.99979e-01
6.586673968e-01,3.75560e-01,9.99999e-01,9.99999e-01,9.99999e-01,9.98713e-01,3.76046e-01,9.99993e-01
6.619607338e-01,3.83096e-01,9.99999e-01,9.99999e-01,9.99999e-01,9.99256e-01,3.83381e-01,9.99998e-01
6.652705375e-01,3.90542e-01,9.99999e-01,9.99999e-01,9.99999e-01,9.99568e-01,3.90710e-01,9.99998e-01
6.685968902e-01,3.97951e-01,9.99999e-01,9.99999e-01,9.99999e-01,9.99799e-01,3.98031e-01,9.99999e-01
6.719398746e-01,4.05302e-01,9.99999e-01,9.99999e-01,9.99999e-01,9.99906e-01,4.05340e-01,9.99999e-01
6.752995740e-01,4.12614e-01,9.99999e-01,9.99999e-01,9.99999e-01,9.99949e-01,4.12635e-01,9.99999e-01
6.786760719e-01,4.19883e-01,9.99999e-01,9.99999e-01,9.99999e-01,9.99927e-01,4.19913e-01,9.99999e-01
6.820694522e-01,4.27119e-01,9.99999e-01,9.99999e-01,9.99999e-01,9.99876e-01,4.27172e-01,9.99998e-01
6.854797995e-01,4.34340e-01,9.99999e-01,9.99999e-01,9.99999e-01,9.99840e-01,4.34410e-01,9.99998e-01
6.889071985e-01,4.41454e-01,9.99999e-01,9.99999e-01,9.99999e-01,9.99619e-01,4.41623e-01,9.99996e-01
6.923517345e-01,4.45986e-01,9.99999e-01,9.99999e-01,9.99999e-01,9.93736e-01,4.48810e-01,9.99969e-01
6.958134932e-01,4.54424e-01,9.99999e-01,9.99999e-01,9.99999e-01,9.96677e-01,4.55969e-01,9.99931e-01
6.992925606e-01,4.61635e-01,9.99999e-01,9.99999e-01,9.99999e-01,9.96902e-01,4.63097e-01,9.99939e-01
7.027890234e-01,4.68360e-01,9.99999e-01,9.99999e-01,9.99999e-01,9.96147e-01,4.70193e-01,9.99953e-01
7.063029686e-01,4.75699e-01,9.99999e-01,9.99999e-01,9.99999e-01,9.96764e-01,4.77254e-01,9.99976e-01
7.098344834e-01,4.82769e-01,9.99999e-01,9.99999e-01,9.99999e-01,9.96895e-01,4.84278e-01,9.99985e-01
7.133836558e-01,4.89243e-01,9.99999e-01,9.99999e-01,9.99999e-01,9.95911e-01,4.91264e-01,9.99972e-01
7.169505741e-01,4.81793e-01,9.99999e-01,9.99999e-01,9.99999e-01,9.67251e-01,4.98210e-01,9.99787e-01
7.205353270e-01,4.96637e-01,9.99999e-01,9.99999e-01,9.99999e-01,9.83585e-01,5.05114e-01,9.99625e-01
7.241380036e-01,5.01315e-01,9.99999e-01,9.99999e-01,9.99999e-01,9.79496e-01,5.11974e-01,9.99676e-01
7.277586936e-01,5.09039e-01,9.99999e-01,9.99999e-01,9.99999e-01,9.81463e-01,5.18789e-01,9.99735e-01
7.313974871e-01,5.15089e-01,9.99999e-01,9.99999e-01,9.99999e-01,9.80199e-01,5.25558e-01,9.99876e-01
7.350544745e-01,5.26489e-01,9.99999e-01,9.99999e-01,9.99999e-01,9.89164e-01,5.32279e-01,9.99956e-01
7.387297469e-01,5.34636e-01,9.99999e-01,9.99999e-01,9.99999e-01,9.92014e-01,5.38950e-01,9.99979e-01
7.424233956e-01,5.43430e-01,9.99999e-01,9.99999e-01,9.99999e-01,9.96078e-01,5.45571e-01,9.99995e-01
7.461355126e-01,5.50829e-01,9.99999e-01,9.99999e-01,9.99999e-01,9.97626e-01,5.52140e-01,9.99998e-01
7.498661902e-01,5.58037e-01,9.99999e-01,9.99999e-01,9.99999e-01,9.98891e-01,5.58656e-01,9.99999e-01
7.536155211e-01,5.64811e-01,9.99999e-01,9.99999e-01,9.99999e-01,9.99457e-01,5.65117e-01,9.99999e-01
7.573835987e-01,5.71365e-01,9.99999e-01,9.99999e-01,9.99999e-01,9.99720e-01,5.71524e-01,9.99999e-01
7.611705167e-01,5.77775e-01,9.99999e-01,9.99999e-01,9.99999e-01,9.99826e-01,5.77875e-01,9.99999e-01
7.649763693e-01,5.84105e-01,9.99999e-01,9.99999e-01,9.99999e-01,9.99891e-01,5.84168e-01,9.99999e-01
7.688012511e-01,5.90360e-01,9.99999e-01,9.99999e-01,9.99999e-01,9.99924e-01,5.90404e-01,9.99999e-01
7.726452574e-01,5.96545e-01,9.99999e-01,9.99999e-01,9.99999e-01,9.99937e-01,5.96582e-01,9.99999e-01
7.765084837e-01,6.02647e-01,9.99999e-01,9.99999e-01,9.99999e-01,9.99911e-01,6.02700e-01,9.99999e-01
7.803910261e-01,5.94595e-01,9.99999e-01,9.99999e-01,9.77096e-01,9.99621e-01,6.08758e-01,9.99999e-01
7.842929812e-01,5.52952e-01,9.99999e-01,9.99999e-01,9.00616e-01,9.98680e-01,6.14755e-01,9.99997e-01
7.882144461e-01,5.53631e-01,9.99999e-01,9.99999e-01,8.94353e-01,9.97260e-01,6.20692e-01,9.99982e-01
7.921555184e-01,5.86566e-01,9.99999e-01,9.99999e-01,9.37582e-01,9.98490e-01,6.26566e-01,9.99967e-01
7.961162960e-01,6.03935e-01,9.99999e-01,9.99999e-01,9.57561e-01,9.97359e-01,6.32379e-01,9.99968e-01
8.000968774e-01,6.21407e-01,9.99999e-01,9.99999e-01,9.76814e-01,9.96934e-01,6.38129e-01,9.99966e-01
8.040973618e-01,6.34054e-01,9.99999e-01,9.99999e-01,9.87881e-01,9.96937e-01,6.43817e-01,9.99973e-01
8.081178486e-01,6.41394e-01,9.99999e-01,9.99999e-01,9.94442e-01,9.93145e-01,6.49441e-01,9.99974e-01
8.121584379e-01,6.35250e-01,9.99999e-01,9.99999e-01,9.98267e-01,9.71610e-01,6.55002e-01,9.99902e-01
8.162192301e-01,6.37605e-01,9.99999e-01,9.99999e-01,9.99616e-01,9.66054e-01,6.60499e-01,9.99636e-01
8.203003262e-01,6.54434e-01,9.99999e-01,9.99999e-01,9.99993e-01,9.83156e-01,6.65932e-01,9.99573e-01
8.244018279e-01,6.54929e-01,9.99999e-01,9.99999e-01,9.99999e-01,9.75941e-01,6.71302e-01,9.99660e-01
8.285238370e-01,6.62731e-01,9.99999e-01,9.99999e-01,9.99999e-01,9.79751e-01,6.76607e-01,9.99733e-01
8.326664562e-01,6.67761e-01,9.99999e-01,9.99999e-01,9.99999e-01,9.79447e-01,6.81848e-01,9.99889e-01
8.368297885e-01,6.76893e-01,9.99999e-01,9.99999e-01,9.99999e-01,9.85275e-01,6.87025e-01,9.99974e-01
8.410139374e-01,6.86057e-01,9.99999e-01,9.99999e-01,9.99999e-01,9.91227e-01,6.92139e-01,9.99984e-01
8.452190071e-01,6.94175e-01,9.99999e-01,9.99999e-01,9.99999e-01,9.95687e-01,6.97188e-01,9.99990e-01
8.494451021e-01,7.00416e-01,9.99999e-01,9.99999e-01,9.99999e-01,9.97505e-01,7.02173e-01,9.99992e-01
8.536923276e-01,7.06044e-01,9.99999e-01,9.99999e-01,9.99999e-01,9.98519e-01,7.07094e-01,9.99994e-01
8.579607893e-01,7.11303e-01,9.99999e-01,9.99999e-01,9.99999e-01,9.99090e-01,7.11951e-01,9.99998e-01
8.622505932e-01,7.16330e-01,9.99999e-01,9.99999e-01,9.99999e-01,9.99420e-01,7.16745e-01,9.99999e-01
8.665618462e-01,6.80423e-01,9.99999e-01,9.99999e-01,9.43425e-01,9.99642e-01,7.21475e-01,9.99999e-01
8.708946554e-01,5.55754e-01,9.99999e-01,9.99999e-01,7.65654e-01,9.99591e-01,7.26143e-01,9.99999e-01
8.752491287e-01,5.89516e-01,9.99999e-01,9.99999e-01,8.07162e-01,9.99453e-01,7.30747e-01,9.99998e-01
8.796253743e-01,6.53590e-01,9.99999e-01,9.99999e-01,8.89546e-01,9.99245e-01,7.35289e-01,9.99997e-01
8.840235012e-01,6.95770e-01,9.99999e-01,9.99999e-01,9.41330e-01,9.99137e-01,7.39768e-01,9.99994e-01
8.884436187e-01,7.24375e-01,9.99999e-01,9.99999e-01,9.76394e-01,9.96905e-01,7.44186e-01,9.99984e-01
8.928858368e-01,7.17166e-01,9.99999e-01,9.99999e-01,9.90401e-01,9.67397e-01,7.48542e-01,9.99913e-01
8.973502660e-01,7.07578e-01,9.99999e-01,9.99999e-01,9.97647e-01,9.42484e-01,7.52836e-01,9.99557e-01
9.018370173e-01,7.33673e-01,9.99999e-01,9.99999e-01,9.99739e-01,9.70015e-01,7.57070e-01,9.99304e-01
9.063462024e-01,7.36279e-01,9.99999e-01,9.99999e-01,9.93526e-01,9.73966e-01,7.61243e-01,9.99388e-01
9.108779334e-01,7.22907e-01,9.99999e-01,9.99999e-01,9.84911e-01,9.59491e-01,7.65356e-01,9.99365e-01
9.154323231e-01,7.31080e-01,9.99999e-01,9.99999e-01,9.96408e-01,9.54057e-01,7.69410e-01,9.99475e-01
9.200094847e-01,7.08187e-01,9.99999e-01,9.99999e-01,9.49120e-01,9.63731e-01,7.73404e-01,9.99705e-01
9.246095321e-01,6.81962e-01,9.99999e-01,9.99999e-01,9.28274e-01,9.44522e-01,7.77339e-01,9.99661e-01
9.292325798e-01,5.01560e-01,9.99999e-01,9.99999e-01,9.43707e-01,6.78191e-01,7.81216e-01,9.98681e-01
9.338787427e-01,4.46768e-01,9.99999e-01,9.99999e-01,9.45144e-01,6.02708e-01,7.85035e-01,9.94560e-01
9.385481364e-01,6.14219e-01,9.99999e-01,9.99999e-01,9.59464e-01,8.15444e-01,7.88797e-01,9.93533e-01
9.432408771e-01,5.79342e-01,9.99999e-01,9.99999e-01,9.74934e-01,7.53267e-01,7.92502e-01,9.94419e-01
9.479570815e-01,5.28658e-01,9.99999e-01,9.99999e-01,9.87099e-01,6.75418e-01,7.96151e-01,9.95455e-01
9.526968669e-01,5.90527e-01,9.99999e-01,9.99999e-01,9.93748e-01,7.44794e-01,7.99744e-01,9.97225e-01
9.574603512e-01,6.12140e-01,9.99999e-01,9.99999e-01,9.97321e-01,7.65078e-01,8.03282e-01,9.98589e-01
9.622476530e-01,6.47639e-01,9.99999e-01,9.99999e-01,9.99162e-01,8.04188e-01,8.06765e-01,9.99024e-01
9.670588912e-01,7.14164e-01,9.99999e-01,9.99999e-01,9.99748e-01,8.82273e-01,8.10194e-01,9.99332e-01
9.718941857e-01,7.52186e-01,9.99999e-01,9.99999e-01,9.99981e-01,9.25019e-01,8.13570e-01,9.99508e-01
9.767536566e-01,7.65459e-01,9.99999e-01,9.99999e-01,9.99999e-01,9.37389e-01,8.16892e-01,9.99624e-01
9.816374249e-01,7.81635e-01,9.99999e-01,9.99999e-01,9.99999e-01,9.53148e-01,8.20162e-01,9.99869e-01
9.865456120e-01,7.99049e-01,9.99999e-01,9.99999e-01,9.99999e-01,9.70475e-01,8.23380e-01,9.99972e-01
9.914783401e-01,8.11388e-01,9.99999e-01,9.99999e-01,9.99999e-01,9.81667e-01,8.26547e-01,9.99992e-01
9.964357318e-01,8.21341e-01,9.99999e-01,9.99999e-01,9.99999e-01,9.89973e-01,8.29663e-01,9.99995e-01
1.001417910e+00,8.27710e-01,9.99999e-01,9.99999e-01,9.99999e-01,9.93979e-01,8.32729e-01,9.99992e-01
1.006425000e+00,8.32871e-01,9.99999e-01,9.99999e-01,9.99999e-01,9.96570e-01,8.35745e-01,9.99989e-01
1.011457125e+00,8.36915e-01,9.99999e-01,9.99999e-01,9.99999e-01,9.97865e-01,8.38712e-01,9.99990e-01
1.016514411e+00,8.40408e-01,9.99999e-01,9.99999e-01,9.99999e-01,9.98552e-01,8.41631e-01,9.99993e-01
1.021596983e+00,8.43497e-01,9.99999e-01,9.99999e-01,9.99968e-01,9.98847e-01,8.44502e-01,9.99993e-01
1.026704968e+00,8.44434e-01,9.99999e-01,9.99999e-01,9.97485e-01,9.99101e-01,8.47326e-01,9.99995e-01
1.031838492e+00,8.22755e-01,9.99999e-01,9.99999e-01,9.68448e-01,9.99345e-01,8.50103e-01,9.99998e-01
1.036997685e+00,1.84906e-01,9.99999e-01,9.99999e-01,2.16882e-01,9.99611e-01,8.52835e-01,9.99999e-01
1.042182673e+00,1.92210e-01,9.99999e-01,9.99999e-01,2.24765e-01,9.99538e-01,8.55521e-01,9.99999e-01
1.047393587e+00,1.98121e-01,9.99999e-01,9.99999e-01,2.30994e-01,9.99387e-01,8.58162e-01,9.99999e-01
1.052630555e+00,1.49961e-02,9.99999e-01,9.99999e-01,1.74332e-02,9.99160e-01,8.60758e-01,9.99999e-01
1.057893707e+00,3.18179e-02,9.99999e-01,9.99999e-01,3.68934e-02,9.98600e-01,8.63311e-01,9.99999e-01
1.063183176e+00,7.77747e-02,9.99999e-01,9.99999e-01,8.99868e-02,9.97695e-01,8.65821e-01,9.99998e-01
1.068499092e+00,1.69113e-01,9.99999e-01,9.99999e-01,1.95431e-01,9.96138e-01,8.68289e-01,9.99996e-01
1.073841587e+00,3.08657e-01,9.99999e-01,9.99999e-01,3.55907e-01,9.95488e-01,8.70714e-01,9.99993e-01
