#,Wave/freq,Total,N2,O2,CO2,H2O,Rayleigh,CIA
4.000000000e-01,1.77951e-15,9.99999e-01,9.99999e-01,9.99999e-01,9.99934e-01,1.77963e-15,9.99999e-01
4.020000000e-01,3.48303e-15,9.99999e-01,9.99999e-01,9.99999e-01,9.99958e-01,3.48317e-15,9.99999e-01
4.040100000e-01,6.72278e-15,9.99999e-01,9.99999e-01,9.99999e-01,9.99982e-01,6.72290e-15,9.99999e-01
4.060300500e-01,1.28084e-14,9.99999e-01,9.99999e-01,9.99999e-01,9.99995e-01,1.28085e-14,9.99999e-01
4.080602003e-01,2.40940e-14,9.99999e-01,9.99999e-01,9.99999e-01,9.99998e-01,2.40940e-14,9.99999e-01
4.101005013e-01,4.47610e-14,9.99999e-01,9.99999e-01,9.99999e-01,9.99999e-01,4.47610e-14,9.99999e-01
4.121510038e-01,8.21441e-14,9.99999e-01,9.99999e-01,9.99999e-01,9.99997e-01,8.21443e-14,9.99999e-01
4.142117588e-01,1.48950e-13,9.99999e-01,9.99999e-01,9.99999e-01,9.99981e-01,1.48952e-13,9.99999e-01
4.162828176e-01,2.66917e-13,9.99999e-01,9.99999e-01,9.99999e-01,9.99918e-01,2.66939e-13,9.99999e-01
4.183642317e-01,4.72879e-13,9.99999e-01,9.99999e-01,9.99999e-01,9.99951e-01,4.72902e-13,9.99999e-01
4.204560528e-01,8.28346e-13,9.99999e-01,9.99999e-01,9.99999e-01,9.99969e-01,8.28370e-13,9.99999e-01
4.225583331e-01,1.43504e-12,9.99999e-01,9.99999e-01,9.99999e-01,9.99988e-01,1.43506e-12,9.99999e-01
4.246711247e-01,2.45922e-12,9.99999e-01,9.99999e-01,9.99999e-01,9.99990e-01,2.45924e-12,9.99999e-01
4.267944804e-01,4.16971e-12,9.99999e-01,9.99999e-01,9.99999e-01,9.99986e-01,4.16976e-12,9.99999e-01
4.289284528e-01,6.99661e-12,9.99999e-01,9.99999e-01,9.99999e-01,9.99989e-01,6.99668e-12,9.99999e-01
4.310730950e-01,1.16207e-11,9.99999e-01,9.99999e-01,9.99999e-01,9.99995e-01,1.16207e-11,9.99999e-01
4.332284605e-01,1.91083e-11,9.99999e-01,9.99999e-01,9.99999e-01,9.99998e-01,1.91083e-11,9.99999e-01
4.353946028e-01,3.11132e-11,9.99999e-01,9.99999e-01,9.99999e-01,9.99999e-01,3.11132e-11,9.99999e-01
4.375715758e-01,5.01743e-11,9.99999e-01,9.99999e-01,9.99999e-01,9.99991e-01,5.01747e-11,9.99999e-01
4.397594337e-01,8.01484e-11,9.99999e-01,9.99999e-01,9.99999e-01,9.99928e-01,8.01541e-11,9.99999e-01
4.419582309e-01,1.26821e-10,9.99999e-01,9.99999e-01,9.99999e-01,9.99641e-01,1.26867e-10,9.99999e-01
4.441680220e-01,1.98934e-10,9.99999e-01,9.99999e-01,9.99999e-01,9.99717e-01,1.98990e-10,9.99999e-01
4.463888621e-01,3.09262e-10,9.99999e-01,9.99999e-01,9.99999e-01,9.99706e-01,3.09353e-10,9.99999e-01
4.486208064e-01,4.76663e-10,9.99999e-01,9.99999e-01,9.99999e-01,9.99816e-01,4.76750e-10,9.99999e-01
4.508639105e-01,7.28418e-10,9.99999e-01,9.99999e-01,9.99999e-01,9.99914e-01,7.28480e-10,9.99999e-01
4.531182300e-01,1.10381e-09,9.99999e-01,9.99999e-01,9.99999e-01,9.99965e-01,1.10384e-09,9.99999e-01
4.553838212e-01,1.65891e-09,9.99999e-01,9.99999e-01,9.99999e-01,9.99976e-01,1.65895e-09,9.99999e-01
4.576607403e-01,2.47319e-09,9.99999e-01,9.99999e-01,9.99999e-01,9.99988e-01,2.47322e-09,9.99999e-01
4.599490440e-01,3.65817e-09,9.99999e-01,9.99999e-01,9.99999e-01,9.99992e-01,3.65819e-09,9.99999e-01
4.622487892e-01,5.36924e-09,9.99999e-01,9.99999e-01,9.99999e-01,9.99998e-01,5.36924e-09,9.99999e-01
4.645600332e-01,7.82106e-09,9.99999e-01,9.99999e-01,9.99999e-01,9.99994e-01,7.82110e-09,9.99999e-01
4.668828333e-01,1.13073e-08,9.99999e-01,9.99999e-01,9.99999e-01,9.99913e-01,1.13083e-08,9.99999e-01
4.692172475e-01,1.62286e-08,9.99999e-01,9.99999e-01,9.99999e-01,9.99815e-01,1.62316e-08,9.99999e-01
4.715633337e-01,2.31299e-08,9.99999e-01,9.99999e-01,9.99999e-01,9.99879e-01,2.31327e-08,9.99999e-01
4.739211504e-01,3.27342e-08,9.99999e-01,9.99999e-01,9.99999e-01,9.99884e-01,3.27379e-08,9.99999e-01
4.762907561e-01,4.60120e-08,9.99999e-01,9.99999e-01,9.99999e-01,9.99939e-01,4.60148e-08,9.99999e-01
4.786722099e-01,6.42411e-08,9.99999e-01,9.99999e-01,9.99999e-01,9.99975e-01,6.42426e-08,9.99999e-01
4.810655710e-01,8.91012e-08,9.99999e-01,9.99999e-01,9.99999e-01,9.99992e-01,8.91018e-08,9.99999e-01
4.834708988e-01,1.22776e-07,9.99999e-01,9.99999e-01,9.99999e-01,9.99929e-01,1.22785e-07,9.99999e-01
4.858882533e-01,1.68110e-07,9.99999e-01,9.99999e-01,9.99999e-01,9.99869e-01,1.68132e-07,9.99999e-01
4.883176946e-01,2.28778e-07,9.99999e-01,9.99999e-01,9.99999e-01,9.99890e-01,2.28802e-07,9.99999e-01
4.907592831e-01,3.09446e-07,9.99999e-01,9.99999e-01,9.99999e-01,9.99900e-01,3.09476e-07,9.99999e-01
4.932130795e-01,4.16077e-07,9.99999e-01,9.99999e-01,9.99999e-01,9.99929e-01,4.16106e-07,9.99999e-01
4.956791449e-01,5.56192e-07,9.99999e-01,9.99999e-01,9.99999e-01,9.99962e-01,5.56212e-07,9.99999e-01
4.981575406e-01,7.39107e-07,9.99999e-01,9.99999e-01,9.99999e-01,9.99815e-01,7.39243e-07,9.99999e-01
5.006483283e-01,9.76530e-07,9.99999e-01,9.99999e-01,9.99999e-01,9.99522e-01,9.76999e-07,9.99996e-01
5.031515699e-01,1.28098e-06,9.99999e-01,9.99999e-01,9.99999e-01,9.97575e-01,1.28413e-06,9.99974e-01
5.056673278e-01,1.67652e-06,9.99999e-01,9.99999e-01,9.99999e-01,9.98717e-01,1.67872e-06,9.99970e-01
5.081956644e-01,2.17940e-06,9.99999e-01,9.99999e-01,9.99999e-01,9.98382e-01,2.18298e-06,9.99980e-01
5.107366428e-01,2.82092e-06,9.99999e-01,9.99999e-01,9.99999e-01,9.98906e-01,2.82401e-06,9.99995e-01
5.132903260e-01,3.63249e-06,9.99999e-01,9.99999e-01,9.99999e-01,9.99374e-01,3.63476e-06,9.99999e-01
5.158567776e-01,4.65377e-06,9.99999e-01,9.99999e-01,9.99999e-01,9.99735e-01,4.65500e-06,9.99999e-01
5.184360615e-01,5.93193e-06,9.99999e-01,9.99999e-01,9.99999e-01,9.99893e-01,5.93256e-06,9.99999e-01
5.210282418e-01,7.52430e-06,9.99999e-01,9.99999e-01,9.99999e-01,9.99960e-01,7.52460e-06,9.99999e-01
5.236333830e-01,9.49765e-06,9.99999e-01,9.99999e-01,9.99999e-01,9.99841e-01,9.49916e-06,9.99998e-01
5.262515499e-01,1.19356e-05,9.99999e-01,9.99999e-01,9.99999e-01,9.99900e-01,1.19368e-05,9.99997e-01
5.288828077e-01,1.49311e-05,9.99999e-01,9.99999e-01,9.99999e-01,9.99908e-01,1.49325e-05,9.99998e-01
5.315272217e-01,1.85960e-05,9.99999e-01,9.99999e-01,9.99999e-01,9.99919e-01,1.85975e-05,9.99999e-01
5.341848578e-01,2.30607e-05,9.99999e-01,9.99999e-01,9.99999e-01,9.99947e-01,2.30619e-05,9.99999e-01
5.368557821e-01,2.84714e-05,9.99999e-01,9.99999e-01,9.99999e-01,9.99815e-01,2.84767e-05,9.99999e-01
5.395400610e-01,3.49933e-05,9.99999e-01,9.99999e-01,9.99999e-01,9.99337e-01,3.50166e-05,9.99994e-01
5.422377613e-01,4.28455e-05,9.99999e-01,9.99999e-01,9.99999e-01,9.99139e-01,4.28831e-05,9.99983e-01
5.449489501e-01,5.22644e-05,9.99999e-01,9.99999e-01,9.99999e-01,9.99201e-01,5.23069e-05,9.99983e-01
5.476736949e-01,6.35063e-05,9.99999e-01,9.99999e-01,9.99999e-01,9.99290e-01,6.35519e-05,9.99991e-01
5.504120634e-01,7.68781e-05,9.99999e-01,9.99999e-01,9.99999e-01,9.99485e-01,7.69178e-05,9.99997e-01
5.531641237e-01,9.27204e-05,9.99999e-01,9.99999e-01,9.99999e-01,9.99740e-01,9.27445e-05,9.99999e-01
5.559299443e-01,1.11401e-04,9.99999e-01,9.99999e-01,9.99999e-01,9.99874e-01,1.11415e-04,9.99999e-01
5.587095940e-01,1.33350e-04,9.99999e-01,9.99999e-01,9.99999e-01,9.99921e-01,1.33360e-04,9.99999e-01
5.615031420e-01,1.59048e-04,9.99999e-01,9.99999e-01,9.99999e-01,9.99912e-01,1.59062e-04,9.99999e-01
5.643106577e-01,1.89039e-04,9.99999e-01,9.99999e-01,9.99999e-01,9.99901e-01,1.89058e-04,9.99998e-01
5.671322110e-01,2.23676e-04,9.99999e-01,9.99999e-01,9.99999e-01,9.98808e-01,2.23945e-04,9.99988e-01
5.699678720e-01,2.64037e-04,9.99999e-01,9.99999e-01,9.99999e-01,9.98718e-01,2.64384e-04,9.99966e-01
5.728177114e-01,3.10682e-04,9.99999e-01,9.99999e-01,9.99999e-01,9.98671e-01,3.11104e-04,9.99972e-01
5.756818000e-01,3.64453e-04,9.99999e-01,9.99999e-01,9.99999e-01,9.98779e-01,3.64904e-04,9.99982e-01
5.785602090e-01,4.26206e-04,9.99999e-01,9.99999e-01,9.99999e-01,9.98934e-01,4.26663e-04,9.99994e-01
5.814530100e-01,4.96802e-04,9.99999e-01,9.99999e-01,9.99999e-01,9.98931e-01,4.97335e-04,9.99997e-01
5.843602750e-01,5.77223e-04,9.99999e-01,9.99999e-01,9.99999e-01,9.98730e-01,5.77961e-04,9.99992e-01
5.872820764e-01,6.62326e-04,9.99999e-01,9.99999e-01,9.99999e-01,9.89113e-01,6.69667e-04,9.99922e-01
5.902184868e-01,7.63264e-04,9.99999e-01,9.99999e-01,9.99999e-01,9.86756e-01,7.73670e-04,9.99789e-01
5.931695792e-01,8.82767e-04,9.99999e-01,9.99999e-01,9.99999e-01,9.90647e-01,8.91281e-04,9.99797e-01
5.961354271e-01,1.01328e-03,9.99999e-01,9.99999e-01,9.99999e-01,9.89736e-01,1.02390e-03,9.99883e-01
5.991161043e-01,1.16420e-03,9.99999e-01,9.99999e-01,9.99999e-01,9.92499e-01,1.17304e-03,9.99963e-01
6.021116848e-01,1.33458e-03,9.99999e-01,9.99999e-01,9.99999e-01,9.95735e-01,1.34030e-03,9.99995e-01
6.051222432e-01,1.52408e-03,9.99999e-01,9.99999e-01,9.99999e-01,9.97839e-01,1.52738e-03,9.99999e-01
6.081478544e-01,1.73447e-03,9.99999e-01,9.99999e-01,9.99999e-01,9.99067e-01,1.73609e-03,9.99999e-01
6.111885937e-01,1.96755e-03,9.99999e-01,9.99999e-01,9.99999e-01,9.99604e-01,1.96832e-03,9.99999e-01
6.142445367e-01,2.22571e-03,9.99999e-01,9.99999e-01,9.99999e-01,9.99823e-01,2.22610e-03,9.99999e-01
6.173157594e-01,2.51128e-03,9.99999e-01,9.99999e-01,9.99999e-01,9.99902e-01,2.51152e-03,9.99999e-01
6.204023382e-01,2.82657e-03,9.99999e-01,9.99999e-01,9.99999e-01,9.99917e-01,2.82680e-03,9.99999e-01
6.235043498e-01,3.17309e-03,9.99999e-01,9.99999e-01,9.99999e-01,9.99640e-01,3.17423e-03,9.99998e-01
6.266218716e-01,3.54936e-03,9.99999e-01,9.99999e-01,9.99999e-01,9.98087e-01,3.55621e-03,9.99986e-01
6.297549810e-01,3.97233e-03,9.99999e-01,9.99999e-01,9.99999e-01,9.99298e-01,3.97522e-03,9.99972e-01
6.329037559e-01,4.42759e-03,9.99999e-01,9.99999e-01,9.99999e-01,9.98611e-01,4.43384e-03,9.99978e-01
6.360682746e-01,4.92883e-03,9.99999e-01,9.99999e-01,9.99999e-01,9.98819e-01,4.93471e-03,9.99986e-01
6.392486160e-01,5.47215e-03,9.99999e-01,9.99999e-01,9.99999e-01,9.98469e-01,5.48057e-03,9.99993e-01
6.424448591e-01,6.06176e-03,9.99999e-01,9.99999e-01,9.99999e-01,9.97959e-01,6.07420e-03,9.99990e-01
6.456570834e-01,6.65470e-03,9.99999e-01,9.99999e-01,9.99999e-01,9.90558e-01,6.71848e-03,9.99946e-01
6.488853688e-01,7.36368e-03,9.99999e-01,9.99999e-01,9.99999e-01,9.93049e-01,7.41631e-03,9.99852e-01
6.521297956e-01,8.11178e-03,9.99999e-01,9.99999e-01,9.99999e-01,9.92917e-01,8.17065e-03,9.99875e-01
6.553904446e-01,8.92071e-03,9.99999e-01,9.99999e-01,9.99999e-01,9.92989e-01,8.98452e-03,9.99906e-01
6.586673968e-01,9.80105e-03,9.99999e-01,9.99999e-01,9.99999e-01,9.93956e-01,9.86094e-03,9.99969e-01
6.619607338e-01,1.07651e-02,9.99999e-01,9.99999e-01,9.99999e-01,9.96501e-01,1.08030e-02,9.99993e-01
6.652705375e-01,1.17897e-02,9.99999e-01,9.99999e-01,9.99999e-01,9.97971e-01,1.18137e-02,9.99996e-01
6.685968902e-01,1.28840e-02,9.99999e-01,9.99999e-01,9.99999e-01,9.99057e-01,1.28962e-02,9.99998e-01
6.719398746e-01,1.40473e-02,9.99999e-01,9.99999e-01,9.99999e-01,9.99562e-01,1.40535e-02,9.99999e-01
6.752995740e-01,1.52851e-02,9.99999e-01,9.99999e-01,9.99999e-01,9.99763e-01,1.52887e-02,9.99999e-01
6.786760719e-01,1.65991e-02,9.99999e-01,9.99999e-01,9.99999e-01,9.99659e-01,1.66048e-02,9.99999e-01
6.820694522e-01,1.79942e-02,9.99999e-01,9.99999e-01,9.99999e-01,9.99416e-01,1.80048e-02,9.99996e-01
6.854797995e-01,1.94769e-02,9.99999e-01,9.99999e-01,9.99999e-01,9.99247e-01,1.94916e-02,9.99993e-01
6.889071985e-01,2.10298e-02,9.99999e-01,9.99999e-01,9.99999e-01,9.98191e-01,2.10682e-02,9.99983e-01
6.923517345e-01,2.20693e-02,9.99999e-01,9.99999e-01,9.99999e-01,9.70754e-01,2.27374e-02,9.99857e-01
6.958134932e-01,2.41160e-02,9.99999e-01,9.99999e-01,9.99999e-01,9.84568e-01,2.45019e-02,9.99677e-01
6.992925606e-01,2.59729e-02,9.99999e-01,9.99999e-01,9.99999e-01,9.85432e-01,2.63643e-02,9.99716e-01
7.027890234e-01,2.78108e-02,9.99999e-01,9.99999e-01,9.99999e-01,9.81980e-01,2.83273e-02,9.99782e-01
7.063029686e-01,2.99290e-02,9.99999e-01,9.99999e-01,9.99999e-01,9.84828e-01,3.03933e-02,9.99891e-01
7.098344834e-01,3.20884e-02,9.99999e-01,9.99999e-01,9.99999e-01,9.85435e-01,3.25647e-02,9.99935e-01
7.133836558e-01,3.41691e-02,9.99999e-01,9.99999e-01,9.99999e-01,9.80764e-01,3.48437e-02,9.99872e-01
7.169505741e-01,3.18548e-02,9.99999e-01,9.99999e-01,9.99999e-01,8.56424e-01,3.72323e-02,9.99000e-01
7.205353270e-01,3.67347e-02,9.99999e-01,9.99999e-01,9.99999e-01,9.26177e-01,3.97327e-02,9.98236e-01
7.241380036e-01,3.83744e-02,9.99999e-01,9.99999e-01,9.99999e-01,9.07579e-01,4.23466e-02,9.98477e-01
7.277586936e-01,4.12470e-02,9.99999e-01,9.99999e-01,9.99999e-01,9.16201e-01,4.50757e-02,9.98754e-01
7.313974871e-01,4.36140e-02,9.99999e-01,9.99999e-01,9.99999e-01,9.10644e-01,4.79215e-02,9.99416e-01
7.350544745e-01,4.83375e-02,9.99999e-01,9.99999e-01,9.99999e-01,9.50121e-01,5.08854e-02,9.99796e-01
7.387297469e-01,5.19662e-02,9.99999e-01,9.99999e-01,9.99999e-01,9.62987e-01,5.39686e-02,9.99906e-01
7.424233956e-01,5.61244e-02,9.99999e-01,9.99999e-01,9.99999e-01,9.81690e-01,5.71721e-02,9.99981e-01
7.461355126e-01,5.98234e-02,9.99999e-01,9.99999e-01,9.99999e-01,9.88870e-01,6.04969e-02,9.99996e-01
7.498661902e-01,6.36109e-02,9.99999e-01,9.99999e-01,9.99999e-01,9.94797e-01,6.39436e-02,9.99998e-01
7.536155211e-01,6.73404e-02,9.99999e-01,9.99999e-01,9.99999e-01,9.97448e-01,6.75127e-02,9.99998e-01
7.573835987e-01,7.11110e-02,9.99999e-01,9.99999e-01,9.99999e-01,9.98685e-01,7.12046e-02,9.99999e-01
7.611705167e-01,7.49581e-02,9.99999e-01,9.99999e-01,9.99999e-01,9.99183e-01,7.50194e-02,9.99999e-01
7.649763693e-01,7.89168e-02,9.99999e-01,9.99999e-01,9.99999e-01,9.99488e-01,7.89572e-02,9.99999e-01
7.688012511e-01,8.29882e-02,9.99999e-01,9.99999e-01,9.99999e-01,9.99643e-01,8.30177e-02,9.99999e-01
7.726452574e-01,8.71752e-02,9.99999e-01,9.99999e-01,9.99999e-01,9.99706e-01,8.72007e-02,9.99999e-01
7.765084837e-01,9.14675e-02,9.99999e-01,9.99999e-01,9.99999e-01,9.99584e-01,9.15055e-02,9.99999e-01
7.803910261e-01,8.74110e-02,9.99999e-01,9.99999e-01,9.12685e-01,9.98208e-01,9.59315e-02,9.99997e-01
7.842929812e-01,6.30816e-02,9.99999e-01,9.99999e-01,6.31272e-01,9.93761e-01,1.00478e-01,9.99987e-01
7.882144461e-01,6.40416e-02,9.99999e-01,9.99999e-01,6.16250e-01,9.87139e-01,1.05143e-01,9.99920e-01
7.921555184e-01,8.10207e-02,9.99999e-01,9.99999e-01,7.42060e-01,9.92915e-01,1.09927e-01,9.99846e-01
7.961162960e-01,9.26145e-02,9.99999e-01,9.99999e-01,8.16534e-01,9.87570e-01,1.14827e-01,9.99853e-01
8.000968774e-01,1.05813e-01,9.99999e-01,9.99999e-01,8.95844e-01,9.85610e-01,1.19843e-01,9.99843e-01
8.040973618e-01,1.16324e-01,9.99999e-01,9.99999e-01,9.44418e-01,9.85617e-01,1.24971e-01,9.99875e-01
8.081178486e-01,1.22787e-01,9.99999e-01,9.99999e-01,9.74109e-01,9.68010e-01,1.30212e-01,9.99883e-01
8.121584379e-01,1.17470e-01,9.99999e-01,9.99999e-01,9.91904e-01,8.73786e-01,1.35562e-01,9.99543e-01
8.162192301e-01,1.19695e-01,9.99999e-01,9.99999e-01,9.98206e-01,8.51681e-01,1.41020e-01,9.98284e-01
8.203003262e-01,1.35289e-01,9.99999e-01,9.99999e-01,9.99971e-01,9.24820e-01,1.46583e-01,9.97991e-01
8.244018279e-01,1.36245e-01,9.99999e-01,9.99999e-01,9.99999e-01,8.96311e-01,1.52250e-01,9.98401e-01
8.285238370e-01,1.43380e-01,9.99999e-01,9.99999e-01,9.99999e-01,9.08513e-01,1.58017e-01,9.98743e-01
8.326664562e-01,1.48652e-01,9.99999e-01,9.99999e-01,9.99999e-01,9.07539e-01,1.63882e-01,9.99480e-01
8.368297885e-01,1.58396e-01,9.99999e-01,9.99999e-01,9.99999e-01,9.32718e-01,1.69842e-01,9.99880e-01
8.410139374e-01,1.68745e-01,9.99999e-01,9.99999e-01,9.99999e-01,9.59415e-01,1.75895e-01,9.99930e-01
8.452190071e-01,1.78366e-01,9.99999e-01,9.99999e-01,9.99999e-01,9.79867e-01,1.82038e-01,9.99958e-01
8.494451021e-01,1.86056e-01,9.99999e-01,9.99999e-01,9.99999e-01,9.88285e-01,1.88268e-01,9.99966e-01
8.536923276e-01,1.93225e-01,9.99999e-01,9.99999e-01,9.99999e-01,9.93047e-01,1.94581e-01,9.99979e-01
8.579607893e-01,2.00114e-01,9.99999e-01,9.99999e-01,9.99999e-01,9.95718e-01,2.00975e-01,9.99994e-01
8.622505932e-01,2.06882e-01,9.99999e-01,9.99999e-01,9.99999e-01,9.97275e-01,2.07447e-01,9.99998e-01
8.665618462e-01,1.85644e-01,9.99999e-01,9.99999e-01,8.68887e-01,9.98316e-01,2.13993e-01,9.99999e-01
8.708946554e-01,7.13910e-02,9.99999e-01,9.99999e-01,3.24176e-01,9.98074e-01,2.20611e-01,9.99998e-01
8.752491287e-01,8.83828e-02,9.99999e-01,9.99999e-01,3.89777e-01,9.97423e-01,2.27296e-01,9.99996e-01
8.796253743e-01,1.37125e-01,9.99999e-01,9.99999e-01,5.87816e-01,9.96439e-01,2.34046e-01,9.99991e-01
8.840235012e-01,1.81172e-01,9.99999e-01,9.99999e-01,7.55150e-01,9.95932e-01,2.40857e-01,9.99974e-01
8.884436187e-01,2.18397e-01,9.99999e-01,9.99999e-01,8.94355e-01,9.85386e-01,2.47725e-01,9.99928e-01
8.928858368e-01,2.08690e-01,9.99999e-01,9.99999e-01,9.55704e-01,8.56799e-01,2.54648e-01,9.99592e-01
8.973502660e-01,1.96590e-01,9.99999e-01,9.99999e-01,9.89025e-01,7.60833e-01,2.61622e-01,9.97913e-01
9.018370173e-01,2.32548e-01,9.99999e-01,9.99999e-01,9.98783e-01,8.69442e-01,2.68644e-01,9.96721e-01
9.063462024e-01,2.36602e-01,9.99999e-01,9.99999e-01,9.70214e-01,8.84488e-01,2.75710e-01,9.97119e-01
9.108779334e-01,2.17336e-01,9.99999e-01,9.99999e-01,9.31200e-01,8.25573e-01,2.82817e-01,9.97006e-01
9.154323231e-01,2.28813e-01,9.99999e-01,9.99999e-01,9.83333e-01,8.03613e-01,2.89961e-01,9.97525e-01
9.200094847e-01,2.07391e-01,9.99999e-01,9.99999e-01,8.10570e-01,8.42915e-01,2.97139e-01,9.98613e-01
9.246095321e-01,1.68666e-01,9.99999e-01,9.99999e-01,7.07183e-01,7.73430e-01,3.04347e-01,9.98403e-01
9.292325798e-01,4.97172e-02,9.99999e-01,9.99999e-01,7.66838e-01,1.97686e-01,3.11583e-01,9.93788e-01
9.338787427e-01,3.07710e-02,9.99999e-01,9.99999e-01,7.70481e-01,1.21753e-01,3.18843e-01,9.74570e-01
9.385481364e-01,1.13507e-01,9.99999e-01,9.99999e-01,8.24277e-01,4.23939e-01,3.26124e-01,9.69829e-01
9.432408771e-01,9.32598e-02,9.99999e-01,9.99999e-01,8.87676e-01,3.18670e-01,3.33422e-01,9.73916e-01
9.479570815e-01,6.48339e-02,9.99999e-01,9.99999e-01,9.40702e-01,2.05119e-01,3.40735e-01,9.78719e-01
9.526968669e-01,9.81340e-02,9.99999e-01,9.99999e-01,9.70963e-01,2.92573e-01,3.48059e-01,9.86965e-01
9.574603512e-01,1.08231e-01,9.99999e-01,9.99999e-01,9.87463e-01,3.09787e-01,3.55391e-01,9.93357e-01
9.622476530e-01,1.36240e-01,9.99999e-01,9.99999e-01,9.96070e-01,3.78574e-01,3.62728e-01,9.95402e-01
9.670588912e-01,2.09461e-01,9.99999e-01,9.99999e-01,9.98820e-01,5.68368e-01,3.70067e-01,9.96853e-01
9.718941857e-01,2.62135e-01,9.99999e-01,9.99999e-01,9.99915e-01,6.96232e-01,3.77405e-01,9.97682e-01
9.767536566e-01,2.84230e-01,9.99999e-01,9.99999e-01,9.99999e-01,7.40069e-01,3.84740e-01,9.98228e-01
9.816374249e-01,3.13072e-01,9.99999e-01,9.99999e-01,9.99999e-01,7.99004e-01,3.92067e-01,9.99386e-01
9.865456120e-01,3.46946e-01,9.99999e-01,9.99999e-01,9.99999e-01,8.68807e-01,3.99386e-01,9.99871e-01
9.914783401e-01,3.72759e-01,9.99999e-01,9.99999e-01,9.99999e-01,9.16592e-01,4.06693e-01,9.99964e-01
9.964357318e-01,3.94795e-01,9.99999e-01,9.99999e-01,9.99999e-01,9.53665e-01,4.13985e-01,9.99978e-01
1.001417910e+00,4.09431e-01,9.99999e-01,9.99999e-01,9.99999e-01,9.71950e-01,4.21260e-01,9.99967e-01
1.006425000e+00,4.21607e-01,9.99999e-01,9.99999e-01,9.99999e-01,9.83923e-01,4.28515e-01,9.99954e-01
1.011457125e+00,4.31365e-01,9.99999e-01,9.99999e-01,9.99999e-01,9.89982e-01,4.35748e-01,9.99957e-01
1.016514411e+00,4.39929e-01,9.99999e-01,9.99999e-01,9.99999e-01,9.93192e-01,4.42957e-01,9.99970e-01
1.021596983e+00,4.47614e-01,9.99999e-01,9.99999e-01,9.99843e-01,9.94573e-01,4.50139e-01,9.99969e-01
1.026704968e+00,4.49955e-01,9.99999e-01,9.99999e-01,9.88140e-01,9.95766e-01,4.57292e-01,9.99979e-01
1.031838492e+00,4.19242e-01,9.99999e-01,9.99999e-01,9.05376e-01,9.96919e-01,4.64415e-01,9.99994e-01
1.036997685e+00,2.34607e-02,9.99999e-01,9.99999e-01,4.98259e-02,9.98170e-01,4.71504e-01,9.99998e-01
1.042182673e+00,1.45985e-03,9.99999e-01,9.99999e-01,3.05558e-03,9.97822e-01,4.78558e-01,9.99999e-01
1.047393587e+00,3.89597e-03,9.99999e-01,9.99999e-01,8.04269e-03,9.97111e-01,4.85576e-01,9.99998e-01
1.052630555e+00,3.74012e-07,9.99999e-01,9.99999e-01,7.61232e-07,9.96039e-01,4.92554e-01,9.99998e-01
1.057893707e+00,1.39709e-06,9.99999e-01,9.99999e-01,2.80653e-06,9.93401e-01,4.99492e-01,9.99997e-01
1.063183176e+00,3.95668e-05,9.99999e-01,9.99999e-01,7.86247e-05,9.89159e-01,5.06388e-01,9.99993e-01
1.068499092e+00,4.12285e-04,9.99999e-01,9.99999e-01,8.12994e-04,9.81905e-01,5.13240e-01,9.99987e-01
1.073841587e+00,5.18783e-03,9.99999e-01,9.99999e-01,1.01291e-02,9.78892e-01,5.20047e-01,9.99972e-01
