#,Wave/freq,Total,N2,O2,CO2,H2O,Rayleigh,CIA
4.000000000e-01,1.29044e-04,9.99999e-01,9.99999e-01,9.99999e-01,9.99982e-01,1.29046e-04,9.99999e-01
4.020000000e-01,1.54042e-04,9.99999e-01,9.99999e-01,9.99999e-01,9.99988e-01,1.54044e-04,9.99999e-01
4.040100000e-01,1.83209e-04,9.99999e-01,9.99999e-01,9.99999e-01,9.99994e-01,1.83210e-04,9.99999e-01
4.060300500e-01,2.17152e-04,9.99999e-01,9.99999e-01,9.99999e-01,9.99998e-01,2.17152e-04,9.99999e-01
4.080602003e-01,2.56520e-04,9.99999e-01,9.99999e-01,9.99999e-01,9.99999e-01,2.56520e-04,9.99999e-01
4.101005013e-01,3.02030e-04,9.99999e-01,9.99999e-01,9.99999e-01,9.99999e-01,3.02030e-04,9.99999e-01
4.121510038e-01,3.54469e-04,9.99999e-01,9.99999e-01,9.99999e-01,9.99998e-01,3.54469e-04,9.99999e-01
4.142117588e-01,4.14697e-04,9.99999e-01,9.99999e-01,9.99999e-01,9.99994e-01,4.14699e-04,9.99999e-01
4.162828176e-01,4.83651e-04,9.99999e-01,9.99999e-01,9.99999e-01,9.99978e-01,4.83661e-04,9.99999e-01
4.183642317e-01,5.62372e-04,9.99999e-01,9.99999e-01,9.99999e-01,9.99986e-01,5.62380e-04,9.99999e-01
4.204560528e-01,6.51960e-04,9.99999e-01,9.99999e-01,9.99999e-01,9.99991e-01,6.51965e-04,9.99999e-01
4.225583331e-01,7.53616e-04,9.99999e-01,9.99999e-01,9.99999e-01,9.99996e-01,7.53618e-04,9.99999e-01
4.246711247e-01,8.68629e-04,9.99999e-01,9.99999e-01,9.99999e-01,9.99997e-01,8.68631e-04,9.99999e-01
4.267944804e-01,9.98388e-04,9.99999e-01,9.99999e-01,9.99999e-01,9.99996e-01,9.98392e-04,9.99999e-01
4.289284528e-01,1.14438e-03,9.99999e-01,9.99999e-01,9.99999e-01,9.99996e-01,1.14439e-03,9.99999e-01
4.310730950e-01,1.30819e-03,9.99999e-01,9.99999e-01,9.99999e-01,9.99998e-01,1.30820e-03,9.99999e-01
4.332284605e-01,1.49151e-03,9.99999e-01,9.99999e-01,9.99999e-01,9.99999e-01,1.49151e-03,9.99999e-01
4.353946028e-01,1.69611e-03,9.99999e-01,9.99999e-01,9.99999e-01,9.99999e-01,1.69611e-03,9.99999e-01
4.375715758e-01,1.92388e-03,9.99999e-01,9.99999e-01,9.99999e-01,9.99997e-01,1.92388e-03,9.99999e-01
4.397594337e-01,2.17678e-03,9.99999e-01,9.99999e-01,9.99999e-01,9.99980e-01,2.17682e-03,9.99999e-01
4.419582309e-01,2.45678e-03,9.99999e-01,9.99999e-01,9.99999e-01,9.99903e-01,2.45701e-03,9.99999e-01
4.441680220e-01,2.76644e-03,9.99999e-01,9.99999e-01,9.99999e-01,9.99925e-01,2.76664e-03,9.99999e-01
4.463888621e-01,3.10776e-03,9.99999e-01,9.99999e-01,9.99999e-01,9.99922e-01,3.10800e-03,9.99999e-01
4.486208064e-01,3.48329e-03,9.99999e-01,9.99999e-01,9.99999e-01,9.99951e-01,3.48346e-03,9.99999e-01
4.508639105e-01,3.89540e-03,9.99999e-01,9.99999e-01,9.99999e-01,9.99977e-01,3.89549e-03,9.99999e-01
4.531182300e-01,4.34661e-03,9.99999e-01,9.99999e-01,9.99999e-01,9.99990e-01,4.34665e-03,9.99999e-01
4.553838212e-01,4.83954e-03,9.99999e-01,9.99999e-01,9.99999e-01,9.99993e-01,4.83957e-03,9.99999e-01
4.576607403e-01,5.37695e-03,9.99999e-01,9.99999e-01,9.99999e-01,9.99996e-01,5.37697e-03,9.99999e-01
4.599490440e-01,5.96162e-03,9.99999e-01,9.99999e-01,9.99999e-01,9.99997e-01,5.96163e-03,9.99999e-01
4.622487892e-01,6.59640e-03,9.99999e-01,9.99999e-01,9.99999e-01,9.99999e-01,6.59640e-03,9.99999e-01
4.645600332e-01,7.28418e-03,9.99999e-01,9.99999e-01,9.99999e-01,9.99998e-01,7.28419e-03,9.99999e-01
4.668828333e-01,8.02776e-03,9.99999e-01,9.99999e-01,9.99999e-01,9.99976e-01,8.02795e-03,9.99999e-01
4.692172475e-01,8.83024e-03,9.99999e-01,9.99999e-01,9.99999e-01,9.99951e-01,8.83067e-03,9.99999e-01
4.715633337e-01,9.69509e-03,9.99999e-01,9.99999e-01,9.99999e-01,9.99967e-01,9.69539e-03,9.99999e-01
4.739211504e-01,1.06248e-02,9.99999e-01,9.99999e-01,9.99999e-01,9.99969e-01,1.06252e-02,9.99999e-01
4.762907561e-01,1.16229e-02,9.99999e-01,9.99999e-01,9.99999e-01,9.99983e-01,1.16231e-02,9.99999e-01
4.786722099e-01,1.26921e-02,9.99999e-01,9.99999e-01,9.99999e-01,9.99993e-01,1.26921e-02,9.99999e-01
4.810655710e-01,1.38355e-02,9.99999e-01,9.99999e-01,9.99999e-01,9.99997e-01,1.38355e-02,9.99999e-01
4.834708988e-01,1.50559e-02,9.99999e-01,9.99999e-01,9.99999e-01,9.99980e-01,1.50562e-02,9.99999e-01
4.858882533e-01,1.63567e-02,9.99999e-01,9.99999e-01,9.99999e-01,9.99965e-01,1.63572e-02,9.99999e-01
4.883176946e-01,1.77411e-02,9.99999e-01,9.99999e-01,9.99999e-01,9.99970e-01,1.77416e-02,9.99999e-01
4.907592831e-01,1.92118e-02,9.99999e-01,9.99999e-01,9.99999e-01,9.99973e-01,1.92123e-02,9.99999e-01
4.932130795e-01,2.07719e-02,9.99999e-01,9.99999e-01,9.99999e-01,9.99981e-01,2.07723e-02,9.99999e-01
4.956791449e-01,2.24240e-02,9.99999e-01,9.99999e-01,9.99999e-01,9.99989e-01,2.24242e-02,9.99999e-01
4.981575406e-01,2.41698e-02,9.99999e-01,9.99999e-01,9.99999e-01,9.99950e-01,2.41710e-02,9.99999e-01
5.006483283e-01,2.60120e-02,9.99999e-01,9.99999e-01,9.99999e-01,9.99872e-01,2.60153e-02,9.99998e-01
5.031515699e-01,2.79415e-02,9.99999e-01,9.99999e-01,9.99999e-01,9.99357e-01,2.79597e-02,9.99992e-01
5.056673278e-01,2.99962e-02,9.99999e-01,9.99999e-01,9.99999e-01,9.99661e-01,3.00066e-02,9.99991e-01
5.081956644e-01,3.21446e-02,9.99999e-01,9.99999e-01,9.99999e-01,9.99573e-01,3.21585e-02,9.99994e-01
5.107366428e-01,3.44076e-02,9.99999e-01,9.99999e-01,9.99999e-01,9.99711e-01,3.44176e-02,9.99998e-01
5.132903260e-01,3.67799e-02,9.99999e-01,9.99999e-01,9.99999e-01,9.99835e-01,3.67860e-02,9.99999e-01
5.158567776e-01,3.92630e-02,9.99999e-01,9.99999e-01,9.99999e-01,9.99930e-01,3.92657e-02,9.99999e-01
5.184360615e-01,4.18575e-02,9.99999e-01,9.99999e-01,9.99999e-01,9.99971e-01,4.18587e-02,9.99999e-01
5.210282418e-01,4.45660e-02,9.99999e-01,9.99999e-01,9.99999e-01,9.99989e-01,4.45665e-02,9.99999e-01
5.236333830e-01,4.73888e-02,9.99999e-01,9.99999e-01,9.99999e-01,9.99957e-01,4.73908e-02,9.99999e-01
5.262515499e-01,5.03316e-02,9.99999e-01,9.99999e-01,9.99999e-01,9.99973e-01,5.03329e-02,9.99999e-01
5.288828077e-01,5.33929e-02,9.99999e-01,9.99999e-01,9.99999e-01,9.99975e-01,5.33942e-02,9.99999e-01
5.315272217e-01,5.65744e-02,9.99999e-01,9.99999e-01,9.99999e-01,9.99978e-01,5.65756e-02,9.99999e-01
5.341848578e-01,5.98772e-02,9.99999e-01,9.99999e-01,9.99999e-01,9.99985e-01,5.98780e-02,9.99999e-01
5.368557821e-01,6.32992e-02,9.99999e-01,9.99999e-01,9.99999e-01,9.99950e-01,6.33023e-02,9.99999e-01
5.395400610e-01,6.68370e-02,9.99999e-01,9.99999e-01,9.99999e-01,9.99822e-01,6.68489e-02,9.99997e-01
5.422377613e-01,7.05020e-02,9.99999e-01,9.99999e-01,9.99999e-01,9.99773e-01,7.05183e-02,9.99995e-01
5.449489501e-01,7.42946e-02,9.99999e-01,9.99999e-01,9.99999e-01,9.99788e-01,7.43106e-02,9.99995e-01
5.476736949e-01,7.82111e-02,9.99999e-01,9.99999e-01,9.99999e-01,9.99813e-01,7.82258e-02,9.99997e-01
5.504120634e-01,8.22527e-02,9.99999e-01,9.99999e-01,9.99999e-01,9.99864e-01,8.22639e-02,9.99998e-01
5.531641237e-01,8.64186e-02,9.99999e-01,9.99999e-01,9.99999e-01,9.99931e-01,8.64244e-02,9.99999e-01
5.559299443e-01,9.07040e-02,9.99999e-01,9.99999e-01,9.99999e-01,9.99966e-01,9.07070e-02,9.99999e-01
5.587095940e-01,9.51088e-02,9.99999e-01,9.99999e-01,9.99999e-01,9.99978e-01,9.51108e-02,9.99999e-01
5.615031420e-01,9.96328e-02,9.99999e-01,9.99999e-01,9.99999e-01,9.99976e-01,9.96351e-02,9.99999e-01
5.643106577e-01,1.04276e-01,9.99999e-01,9.99999e-01,9.99999e-01,9.99973e-01,1.04279e-01,9.99999e-01
5.671322110e-01,1.09006e-01,9.99999e-01,9.99999e-01,9.99999e-01,9.99679e-01,1.09041e-01,9.99996e-01
5.699678720e-01,1.13881e-01,9.99999e-01,9.99999e-01,9.99999e-01,9.99664e-01,1.13920e-01,9.99990e-01
5.728177114e-01,1.18872e-01,9.99999e-01,9.99999e-01,9.99999e-01,9.99648e-01,1.18914e-01,9.99992e-01
5.756818000e-01,1.23982e-01,9.99999e-01,9.99999e-01,9.99999e-01,9.99677e-01,1.24022e-01,9.99995e-01
5.785602090e-01,1.29206e-01,9.99999e-01,9.99999e-01,9.99999e-01,9.99719e-01,1.29243e-01,9.99998e-01
5.814530100e-01,1.34535e-01,9.99999e-01,9.99999e-01,9.99999e-01,9.99717e-01,1.34573e-01,9.99998e-01
5.843602750e-01,1.39964e-01,9.99999e-01,9.99999e-01,9.99999e-01,9.99662e-01,1.40011e-01,9.99997e-01
5.872820764e-01,1.45129e-01,9.99999e-01,9.99999e-01,9.99999e-01,9.97091e-01,1.45555e-01,9.99979e-01
5.902184868e-01,1.50665e-01,9.99999e-01,9.99999e-01,9.99999e-01,9.96495e-01,1.51203e-01,9.99944e-01
5.931695792e-01,1.56554e-01,9.99999e-01,9.99999e-01,9.99999e-01,9.97518e-01,1.56952e-01,9.99946e-01
5.961354271e-01,1.62352e-01,9.99999e-01,9.99999e-01,9.99999e-01,9.97283e-01,1.62799e-01,9.99968e-01
5.991161043e-01,1.68407e-01,9.99999e-01,9.99999e-01,9.99999e-01,9.98020e-01,1.68742e-01,9.99990e-01
6.021116848e-01,1.74582e-01,9.99999e-01,9.99999e-01,9.99999e-01,9.98876e-01,1.74778e-01,9.99998e-01
6.051222432e-01,1.80802e-01,9.99999e-01,9.99999e-01,9.99999e-01,9.99431e-01,1.80905e-01,9.99999e-01
6.081478544e-01,1.87073e-01,9.99999e-01,9.99999e-01,9.99999e-01,9.99754e-01,1.87119e-01,9.99999e-01
6.111885937e-01,1.93397e-01,9.99999e-01,9.99999e-01,9.99999e-01,9.99896e-01,1.93417e-01,9.99999e-01
6.142445367e-01,1.99788e-01,9.99999e-01,9.99999e-01,9.99999e-01,9.99953e-01,1.99797e-01,9.99999e-01
6.173157594e-01,2.06249e-01,9.99999e-01,9.99999e-01,9.99999e-01,9.99973e-01,2.06255e-01,9.99999e-01
6.204023382e-01,2.12783e-01,9.99999e-01,9.99999e-01,9.99999e-01,9.99977e-01,2.12787e-01,9.99999e-01
6.235043498e-01,2.19371e-01,9.99999e-01,9.99999e-01,9.99999e-01,9.99903e-01,2.19392e-01,9.99999e-01
6.266218716e-01,2.25950e-01,9.99999e-01,9.99999e-01,9.99999e-01,9.99494e-01,2.26065e-01,9.99995e-01
6.297549810e-01,2.32758e-01,9.99999e-01,9.99999e-01,9.99999e-01,9.99814e-01,2.32803e-01,9.99992e-01
6.329037559e-01,2.39514e-01,9.99999e-01,9.99999e-01,9.99999e-01,9.99634e-01,2.39603e-01,9.99993e-01
6.360682746e-01,2.46384e-01,9.99999e-01,9.99999e-01,9.99999e-01,9.99687e-01,2.46461e-01,9.99996e-01
6.392486160e-01,2.53272e-01,9.99999e-01,9.99999e-01,9.99999e-01,9.99595e-01,2.53375e-01,9.99998e-01
6.424448591e-01,2.60198e-01,9.99999e-01,9.99999e-01,9.99999e-01,9.99456e-01,2.60340e-01,9.99996e-01
6.456570834e-01,2.66675e-01,9.99999e-01,9.99999e-01,9.99999e-01,9.97479e-01,2.67353e-01,9.99984e-01
6.488853688e-01,2.73897e-01,9.99999e-01,9.99999e-01,9.99999e-01,9.98165e-01,2.74411e-01,9.99960e-01
6.521297956e-01,2.80975e-01,9.99999e-01,9.99999e-01,9.99999e-01,9.98129e-01,2.81510e-01,9.99967e-01
6.553904446e-01,2.88102e-01,9.99999e-01,9.99999e-01,9.99999e-01,9.98133e-01,2.88648e-01,9.99975e-01
6.586673968e-01,2.95346e-01,9.99999e-01,9.99999e-01,9.99999e-01,9.98405e-01,2.95820e-01,9.99991e-01
6.619607338e-01,3.02754e-01,9.99999e-01,9.99999e-01,9.99999e-01,9.99111e-01,3.03023e-01,9.99997e-01
6.652705375e-01,3.10089e-01,9.99999e-01,9.99999e-01,9.99999e-01,9.99466e-01,3.10254e-01,9.99998e-01
6.685968902e-01,3.17438e-01,9.99999e-01,9.99999e-01,9.99999e-01,9.99773e-01,3.17510e-01,9.99999e-01
6.719398746e-01,3.24750e-01,9.99999e-01,9.99999e-01,9.99999e-01,9.99884e-01,3.24787e-01,9.99999e-01
6.752995740e-01,3.32062e-01,9.99999e-01,9.99999e-01,9.99999e-01,9.99937e-01,3.32083e-01,9.99999e-01
6.786760719e-01,3.39362e-01,9.99999e-01,9.99999e-01,9.99999e-01,9.99909e-01,3.39393e-01,9.99999e-01
6.820694522e-01,3.46661e-01,9.99999e-01,9.99999e-01,9.99999e-01,9.99845e-01,3.46715e-01,9.99998e-01
6.854797995e-01,3.53975e-01,9.99999e-01,9.99999e-01,9.99999e-01,9.99800e-01,3.54046e-01,9.99997e-01
6.889071985e-01,3.61205e-01,9.99999e-01,9.99999e-01,9.99999e-01,9.99514e-01,3.61382e-01,9.99995e-01
6.923517345e-01,3.65806e-01,9.99999e-01,9.99999e-01,9.99999e-01,9.92131e-01,3.68721e-01,9.99961e-01
6.958134932e-01,3.74505e-01,9.99999e-01,9.99999e-01,9.99999e-01,9.95947e-01,3.76060e-01,9.99916e-01
6.992925606e-01,3.81874e-01,9.99999e-01,9.99999e-01,9.99999e-01,9.96107e-01,3.83395e-01,9.99924e-01
7.027890234e-01,3.88833e-01,9.99999e-01,9.99999e-01,9.99999e-01,9.95217e-01,3.90724e-01,9.99942e-01
7.063029686e-01,3.96432e-01,9.99999e-01,9.99999e-01,9.99999e-01,9.95976e-01,3.98045e-01,9.99970e-01
7.098344834e-01,4.03782e-01,9.99999e-01,9.99999e-01,9.99999e-01,9.96139e-01,4.05354e-01,9.99982e-01
7.133836558e-01,4.10498e-01,9.99999e-01,9.99999e-01,9.99999e-01,9.94820e-01,4.12649e-01,9.99966e-01
7.169505741e-01,4.02645e-01,9.99999e-01,9.99999e-01,9.99999e-01,9.59096e-01,4.19927e-01,9.99735e-01
7.205353270e-01,4.18444e-01,9.99999e-01,9.99999e-01,9.99999e-01,9.79991e-01,4.27186e-01,9.99534e-01
7.241380036e-01,4.23150e-01,9.99999e-01,9.99999e-01,9.99999e-01,9.74441e-01,4.34423e-01,9.99597e-01
7.277586936e-01,4.31302e-01,9.99999e-01,9.99999e-01,9.99999e-01,9.76918e-01,4.41637e-01,9.99671e-01
7.313974871e-01,4.37794e-01,9.99999e-01,9.99999e-01,9.99999e-01,9.75573e-01,4.48824e-01,9.99845e-01
7.350544745e-01,4.49840e-01,9.99999e-01,9.99999e-01,9.99999e-01,9.86580e-01,4.55983e-01,9.99946e-01
7.387297469e-01,4.58523e-01,9.99999e-01,9.99999e-01,9.99999e-01,9.90116e-01,4.63111e-01,9.99975e-01
7.424233956e-01,4.67929e-01,9.99999e-01,9.99999e-01,9.99999e-01,9.95160e-01,4.70206e-01,9.99995e-01
7.461355126e-01,4.75865e-01,9.99999e-01,9.99999e-01,9.99999e-01,9.97062e-01,4.77267e-01,9.99998e-01
7.498661902e-01,4.83630e-01,9.99999e-01,9.99999e-01,9.99999e-01,9.98633e-01,4.84292e-01,9.99999e-01
7.536155211e-01,4.90948e-01,9.99999e-01,9.99999e-01,9.99999e-01,9.99328e-01,4.91277e-01,9.99999e-01
7.573835987e-01,4.98051e-01,9.99999e-01,9.99999e-01,9.99999e-01,9.99654e-01,4.98223e-01,9.99999e-01
7.611705167e-01,5.05019e-01,9.99999e-01,9.99999e-01,9.99999e-01,9.99784e-01,5.05127e-01,9.99999e-01
7.649763693e-01,5.11918e-01,9.99999e-01,9.99999e-01,9.99999e-01,9.99864e-01,5.11987e-01,9.99999e-01
7.688012511e-01,5.18754e-01,9.99999e-01,9.99999e-01,9.99999e-01,9.99905e-01,5.18802e-01,9.99999e-01
7.726452574e-01,5.25530e-01,9.99999e-01,9.99999e-01,9.99999e-01,9.99922e-01,5.25571e-01,9.99999e-01
7.765084837e-01,5.32233e-01,9.99999e-01,9.99999e-01,9.99999e-01,9.99889e-01,5.32292e-01,9.99999e-01
7.803910261e-01,5.22677e-01,9.99999e-01,9.99999e-01,9.70232e-01,9.99523e-01,5.38963e-01,9.99999e-01
7.842929812e-01,4.78973e-01,9.99999e-01,9.99999e-01,8.79313e-01,9.98336e-01,5.45583e-01,9.99996e-01
7.882144461e-01,4.79187e-01,9.99999e-01,9.99999e-01,8.70740e-01,9.96589e-01,5.52152e-01,9.99976e-01
7.921555184e-01,5.14559e-01,9.99999e-01,9.99999e-01,9.22771e-01,9.98134e-01,5.58668e-01,9.99958e-01
7.961162960e-01,5.33898e-01,9.99999e-01,9.99999e-01,9.47891e-01,9.96683e-01,5.65130e-01,9.99960e-01
8.000968774e-01,5.53044e-01,9.99999e-01,9.99999e-01,9.71383e-01,9.96182e-01,5.71536e-01,9.99958e-01
8.040973618e-01,5.67094e-01,9.99999e-01,9.99999e-01,9.85112e-01,9.96178e-01,5.77887e-01,9.99968e-01
8.081178486e-01,5.75144e-01,9.99999e-01,9.99999e-01,9.93123e-01,9.91368e-01,5.84180e-01,9.99967e-01
8.121584379e-01,5.68183e-01,9.99999e-01,9.99999e-01,9.97883e-01,9.64482e-01,5.90416e-01,9.99879e-01
8.162192301e-01,5.71118e-01,9.99999e-01,9.99999e-01,9.99532e-01,9.58172e-01,5.96593e-01,9.99546e-01
8.203003262e-01,5.89554e-01,9.99999e-01,9.99999e-01,9.99992e-01,9.78694e-01,6.02711e-01,9.99469e-01
8.244018279e-01,5.90690e-01,9.99999e-01,9.99999e-01,9.99999e-01,9.70711e-01,6.08769e-01,9.99577e-01
8.285238370e-01,5.99057e-01,9.99999e-01,9.99999e-01,9.99999e-01,9.74769e-01,6.14767e-01,9.99668e-01
8.326664562e-01,6.04822e-01,9.99999e-01,9.99999e-01,9.99999e-01,9.74547e-01,6.20703e-01,9.99862e-01
8.368297885e-01,6.15150e-01,9.99999e-01,9.99999e-01,9.99999e-01,9.81791e-01,6.26578e-01,9.99968e-01
8.410139374e-01,6.25518e-01,9.99999e-01,9.99999e-01,9.99999e-01,9.89150e-01,6.32390e-01,9.99981e-01
8.452190071e-01,6.34733e-01,9.99999e-01,9.99999e-01,9.99999e-01,9.94671e-01,6.38140e-01,9.99988e-01
8.494451021e-01,6.41827e-01,9.99999e-01,9.99999e-01,9.99999e-01,9.96900e-01,6.43827e-01,9.99990e-01
8.536923276e-01,6.48260e-01,9.99999e-01,9.99999e-01,9.99999e-01,9.98169e-01,6.49451e-01,9.99994e-01
8.579607893e-01,6.54272e-01,9.99999e-01,9.99999e-01,9.99999e-01,9.98870e-01,6.55012e-01,9.99998e-01
8.622505932e-01,6.60036e-01,9.99999e-01,9.99999e-01,9.99999e-01,9.99283e-01,6.60509e-01,9.99999e-01
8.665618462e-01,6.19894e-01,9.99999e-01,9.99999e-01,9.31249e-01,9.99555e-01,6.65942e-01,9.99999e-01
8.708946554e-01,4.82855e-01,9.99999e-01,9.99999e-01,7.19626e-01,9.99490e-01,6.71312e-01,9.99999e-01
8.752491287e-01,5.19518e-01,9.99999e-01,9.99999e-01,7.68326e-01,9.99319e-01,6.76617e-01,9.99998e-01
8.796253743e-01,5.89731e-01,9.99999e-01,9.99999e-01,8.65686e-01,9.99055e-01,6.81858e-01,9.99997e-01
8.840235012e-01,6.36914e-01,9.99999e-01,9.99999e-01,9.28040e-01,9.98921e-01,6.87035e-01,9.99992e-01
8.884436187e-01,6.69472e-01,9.99999e-01,9.99999e-01,9.71079e-01,9.96030e-01,6.92148e-01,9.99980e-01
8.928858368e-01,6.60777e-01,9.99999e-01,9.99999e-01,9.88178e-01,9.59118e-01,6.97197e-01,9.99892e-01
8.973502660e-01,6.50198e-01,9.99999e-01,9.99999e-01,9.97126e-01,9.29100e-01,7.02182e-01,9.99448e-01
9.018370173e-01,6.80353e-01,9.99999e-01,9.99999e-01,9.99683e-01,9.63300e-01,7.07103e-01,9.99133e-01
9.063462024e-01,6.82670e-01,9.99999e-01,9.99999e-01,9.91728e-01,9.67380e-01,7.11960e-01,9.99238e-01
9.108779334e-01,6.67642e-01,9.99999e-01,9.99999e-01,9.81376e-01,9.49721e-01,7.16754e-01,9.99209e-01
9.154323231e-01,6.77114e-01,9.99999e-01,9.99999e-01,9.95625e-01,9.43165e-01,7.21484e-01,9.99346e-01
9.200094847e-01,6.50825e-01,9.99999e-01,9.99999e-01,9.36654e-01,9.55252e-01,7.26152e-01,9.99633e-01
9.246095321e-01,6.20360e-01,9.99999e-01,9.99999e-01,9.11991e-01,9.29889e-01,7.30756e-01,9.99578e-01
9.292325798e-01,4.23767e-01,9.99999e-01,9.99999e-01,9.29849e-01,6.16587e-01,7.35298e-01,9.98357e-01
9.338787427e-01,3.70637e-01,9.99999e-01,9.99999e-01,9.32550e-01,5.37390e-01,7.39777e-01,9.93228e-01
9.385481364e-01,5.47522e-01,9.99999e-01,9.99999e-01,9.50000e-01,7.78723e-01,7.44194e-01,9.91951e-01
9.432408771e-01,5.08167e-01,9.99999e-01,9.99999e-01,9.69151e-01,7.04307e-01,7.48550e-01,9.93052e-01
9.479570815e-01,4.54403e-01,9.99999e-01,9.99999e-01,9.84036e-01,6.16378e-01,7.52845e-01,9.94342e-01
9.526968669e-01,5.22311e-01,9.99999e-01,9.99999e-01,9.92281e-01,6.97259e-01,7.57078e-01,9.96545e-01
9.574603512e-01,5.44014e-01,9.99999e-01,9.99999e-01,9.96694e-01,7.18126e-01,7.61251e-01,9.98243e-01
9.622476530e-01,5.83669e-01,9.99999e-01,9.99999e-01,9.98968e-01,7.64278e-01,7.65364e-01,9.98784e-01
9.670588912e-01,6.58198e-01,9.99999e-01,9.99999e-01,9.99691e-01,8.56414e-01,7.69417e-01,9.99168e-01
9.718941857e-01,7.01574e-01,9.99999e-01,9.99999e-01,9.99978e-01,9.07688e-01,7.73411e-01,9.99387e-01
9.767536566e-01,7.16958e-01,9.99999e-01,9.99999e-01,9.99999e-01,9.22745e-01,7.77347e-01,9.99532e-01
9.816374249e-01,7.35996e-01,9.99999e-01,9.99999e-01,9.99999e-01,9.42258e-01,7.81223e-01,9.99837e-01
9.865456120e-01,7.56397e-01,9.99999e-01,9.99999e-01,9.99999e-01,9.63543e-01,7.85043e-01,9.99965e-01
9.914783401e-01,7.70898e-01,9.99999e-01,9.99999e-01,9.99999e-01,9.77307e-01,7.88804e-01,9.99990e-01
9.964357318e-01,7.82665e-01,9.99999e-01,9.99999e-01,9.99999e-01,9.87582e-01,7.92509e-01,9.99994e-01
1.001417910e+00,7.90214e-01,9.99999e-01,9.99999e-01,9.99999e-01,9.92542e-01,7.96158e-01,9.99991e-01
1.006425000e+00,7.96334e-01,9.99999e-01,9.99999e-01,9.99999e-01,9.95738e-01,7.99751e-01,9.99987e-01
1.011457125e+00,8.01157e-01,9.99999e-01,9.99999e-01,9.99999e-01,9.97356e-01,8.03289e-01,9.99988e-01
1.016514411e+00,8.05317e-01,9.99999e-01,9.99999e-01,9.99999e-01,9.98203e-01,8.06772e-01,9.99991e-01
1.021596983e+00,8.08996e-01,9.99999e-01,9.99999e-01,9.99952e-01,9.98567e-01,8.10201e-01,9.99991e-01
1.026704968e+00,8.10036e-01,9.99999e-01,9.99999e-01,9.96764e-01,9.98882e-01,8.13576e-01,9.99994e-01
1.031838492e+00,7.82484e-01,9.99999e-01,9.99999e-01,9.58626e-01,9.99188e-01,8.16898e-01,9.99998e-01
1.036997685e+00,1.44272e-01,9.99999e-01,9.99999e-01,1.75973e-01,9.99517e-01,8.20168e-01,9.99999e-01
1.042182673e+00,1.33017e-01,9.99999e-01,9.99999e-01,1.61633e-01,9.99423e-01,8.23386e-01,9.99999e-01
1.047393587e+00,1.45275e-01,9.99999e-01,9.99999e-01,1.75879e-01,9.99236e-01,8.26553e-01,9.99999e-01
1.052630555e+00,6.47350e-03,9.99999e-01,9.99999e-01,7.80863e-03,9.98951e-01,8.29669e-01,9.99999e-01
1.057893707e+00,1.54318e-02,9.99999e-01,9.99999e-01,1.85543e-02,9.98248e-01,8.32734e-01,9.99998e-01
1.063183176e+00,4.45170e-02,9.99999e-01,9.99999e-01,5.33793e-02,9.97120e-01,8.35751e-01,9.99998e-01
1.068499092e+00,1.10774e-01,9.99999e-01,9.99999e-01,1.32624e-01,9.95185e-01,8.38718e-01,9.99996e-01
1.073841587e+00,2.34360e-01,9.99999e-01,9.99999e-01,2.79830e-01,9.94359e-01,8.41637e-01,9.99992e-01
