#,Wave/freq,Total,N2,O2,CO2,H2O,Rayleigh,CIA
4.000000000e-01,4.00637e-03,9.99999e-01,9.99999e-01,9.99999e-01,9.99988e-01,4.00641e-03,9.99999e-01
4.020000000e-01,4.46840e-03,9.99999e-01,9.99999e-01,9.99999e-01,9.99992e-01,4.46843e-03,9.99999e-01
4.040100000e-01,4.97243e-03,9.99999e-01,9.99999e-01,9.99999e-01,9.99996e-01,4.97245e-03,9.99999e-01
4.060300500e-01,5.52164e-03,9.99999e-01,9.99999e-01,9.99999e-01,9.99998e-01,5.52165e-03,9.99999e-01
4.080602003e-01,6.11883e-03,9.99999e-01,9.99999e-01,9.99999e-01,9.99999e-01,6.11883e-03,9.99999e-01
4.101005013e-01,6.76686e-03,9.99999e-01,9.99999e-01,9.99999e-01,9.99999e-01,6.76686e-03,9.99999e-01
4.121510038e-01,7.46865e-03,9.99999e-01,9.99999e-01,9.99999e-01,9.99999e-01,7.46865e-03,9.99999e-01
4.142117588e-01,8.22716e-03,9.99999e-01,9.99999e-01,9.99999e-01,9.99996e-01,8.22718e-03,9.99999e-01
4.162828176e-01,9.04533e-03,9.99999e-01,9.99999e-01,9.99999e-01,9.99986e-01,9.04545e-03,9.99999e-01
4.183642317e-01,9.92641e-03,9.99999e-01,9.99999e-01,9.99999e-01,9.99991e-01,9.92649e-03,9.99999e-01
4.204560528e-01,1.08733e-02,9.99999e-01,9.99999e-01,9.99999e-01,9.99994e-01,1.08734e-02,9.99999e-01
4.225583331e-01,1.18891e-02,9.99999e-01,9.99999e-01,9.99999e-01,9.99997e-01,1.18891e-02,9.99999e-01
4.246711247e-01,1.29769e-02,9.99999e-01,9.99999e-01,9.99999e-01,9.99998e-01,1.29769e-02,9.99999e-01
4.267944804e-01,1.41397e-02,9.99999e-01,9.99999e-01,9.99999e-01,9.99997e-01,1.41397e-02,9.99999e-01
4.289284528e-01,1.53806e-02,9.99999e-01,9.99999e-01,9.99999e-01,9.99997e-01,1.53806e-02,9.99999e-01
4.310730950e-01,1.67027e-02,9.99999e-01,9.99999e-01,9.99999e-01,9.99998e-01,1.67027e-02,9.99999e-01
4.332284605e-01,1.81088e-02,9.99999e-01,9.99999e-01,9.99999e-01,9.99999e-01,1.81088e-02,9.99999e-01
4.353946028e-01,1.96020e-02,9.99999e-01,9.99999e-01,9.99999e-01,9.99999e-01,1.96020e-02,9.99999e-01
4.375715758e-01,2.11852e-02,9.99999e-01,9.99999e-01,9.99999e-01,9.99998e-01,2.11852e-02,9.99999e-01
4.397594337e-01,2.28608e-02,9.99999e-01,9.99999e-01,9.99999e-01,9.99987e-01,2.28611e-02,9.99999e-01
4.419582309e-01,2.46311e-02,9.99999e-01,9.99999e-01,9.99999e-01,9.99939e-01,2.46325e-02,9.99999e-01
4.441680220e-01,2.65009e-02,9.99999e-01,9.99999e-01,9.99999e-01,9.99954e-01,2.65021e-02,9.99999e-01
4.463888621e-01,2.84711e-02,9.99999e-01,9.99999e-01,9.99999e-01,9.99951e-01,2.84725e-02,9.99999e-01
4.486208064e-01,3.05451e-02,9.99999e-01,9.99999e-01,9.99999e-01,9.99970e-01,3.05460e-02,9.99999e-01
4.508639105e-01,3.27246e-02,9.99999e-01,9.99999e-01,9.99999e-01,9.99985e-01,3.27250e-02,9.99999e-01
4.531182300e-01,3.50116e-02,9.99999e-01,9.99999e-01,9.99999e-01,9.99994e-01,3.50118e-02,9.99999e-01
4.553838212e-01,3.74083e-02,9.99999e-01,9.99999e-01,9.99999e-01,9.99995e-01,3.74085e-02,9.99999e-01
4.576607403e-01,3.99169e-02,9.99999e-01,9.99999e-01,9.99999e-01,9.99997e-01,3.99169e-02,9.99999e-01
4.599490440e-01,4.25390e-02,9.99999e-01,9.99999e-01,9.99999e-01,9.99998e-01,4.25391e-02,9.99999e-01
4.622487892e-01,4.52765e-02,9.99999e-01,9.99999e-01,9.99999e-01,9.99999e-01,4.52765e-02,9.99999e-01
4.645600332e-01,4.81307e-02,9.99999e-01,9.99999e-01,9.99999e-01,9.99998e-01,4.81307e-02,9.99999e-01
4.668828333e-01,5.11025e-02,9.99999e-01,9.99999e-01,9.99999e-01,9.99985e-01,5.11032e-02,9.99999e-01
4.692172475e-01,5.41934e-02,9.99999e-01,9.99999e-01,9.99999e-01,9.99969e-01,5.41950e-02,9.99999e-01
4.715633337e-01,5.74061e-02,9.99999e-01,9.99999e-01,9.99999e-01,9.99979e-01,5.74073e-02,9.99999e-01
4.739211504e-01,6.07396e-02,9.99999e-01,9.99999e-01,9.99999e-01,9.99980e-01,6.07408e-02,9.99999e-01
4.762907561e-01,6.41956e-02,9.99999e-01,9.99999e-01,9.99999e-01,9.99989e-01,6.41962e-02,9.99999e-01
4.786722099e-01,6.77739e-02,9.99999e-01,9.99999e-01,9.99999e-01,9.99995e-01,6.77742e-02,9.99999e-01
4.810655710e-01,7.14748e-02,9.99999e-01,9.99999e-01,9.99999e-01,9.99998e-01,7.14749e-02,9.99999e-01
4.834708988e-01,7.52977e-02,9.99999e-01,9.99999e-01,9.99999e-01,9.99987e-01,7.52986e-02,9.99999e-01
4.858882533e-01,7.92436e-02,9.99999e-01,9.99999e-01,9.99999e-01,9.99978e-01,7.92452e-02,9.99999e-01
4.883176946e-01,8.33131e-02,9.99999e-01,9.99999e-01,9.99999e-01,9.99981e-01,8.33146e-02,9.99999e-01
4.907592831e-01,8.75049e-02,9.99999e-01,9.99999e-01,9.99999e-01,9.99983e-01,8.75063e-02,9.99999e-01
4.932130795e-01,9.18189e-02,9.99999e-01,9.99999e-01,9.99999e-01,9.99988e-01,9.18199e-02,9.99999e-01
4.956791449e-01,9.62540e-02,9.99999e-01,9.99999e-01,9.99999e-01,9.99993e-01,9.62546e-02,9.99999e-01
4.981575406e-01,1.00806e-01,9.99999e-01,9.99999e-01,9.99999e-01,9.99969e-01,1.00809e-01,9.99999e-01
5.006483283e-01,1.05475e-01,9.99999e-01,9.99999e-01,9.99999e-01,9.99920e-01,1.05484e-01,9.99998e-01
5.031515699e-01,1.10231e-01,9.99999e-01,9.99999e-01,9.99999e-01,9.99603e-01,1.10276e-01,9.99995e-01
5.056673278e-01,1.15160e-01,9.99999e-01,9.99999e-01,9.99999e-01,9.99791e-01,1.15184e-01,9.99994e-01
5.081956644e-01,1.20176e-01,9.99999e-01,9.99999e-01,9.99999e-01,9.99737e-01,1.20208e-01,9.99996e-01
5.107366428e-01,1.25322e-01,9.99999e-01,9.99999e-01,9.99999e-01,9.99822e-01,1.25345e-01,9.99999e-01
5.132903260e-01,1.30580e-01,9.99999e-01,9.99999e-01,9.99999e-01,9.99898e-01,1.30593e-01,9.99999e-01
5.158567776e-01,1.35946e-01,9.99999e-01,9.99999e-01,9.99999e-01,9.99956e-01,1.35951e-01,9.99999e-01
5.184360615e-01,1.41414e-01,9.99999e-01,9.99999e-01,9.99999e-01,9.99982e-01,1.41417e-01,9.99999e-01
5.210282418e-01,1.46987e-01,9.99999e-01,9.99999e-01,9.99999e-01,9.99993e-01,1.46988e-01,9.99999e-01
5.236333830e-01,1.52657e-01,9.99999e-01,9.99999e-01,9.99999e-01,9.99973e-01,1.52661e-01,9.99999e-01
5.262515499e-01,1.58433e-01,9.99999e-01,9.99999e-01,9.99999e-01,9.99983e-01,1.58436e-01,9.99999e-01
5.288828077e-01,1.64305e-01,9.99999e-01,9.99999e-01,9.99999e-01,9.99984e-01,1.64308e-01,9.99999e-01
5.315272217e-01,1.70272e-01,9.99999e-01,9.99999e-01,9.99999e-01,9.99986e-01,1.70275e-01,9.99999e-01
5.341848578e-01,1.76333e-01,9.99999e-01,9.99999e-01,9.99999e-01,9.99990e-01,1.76334e-01,9.99999e-01
5.368557821e-01,1.82478e-01,9.99999e-01,9.99999e-01,9.99999e-01,9.99969e-01,1.82483e-01,9.99999e-01
5.395400610e-01,1.88698e-01,9.99999e-01,9.99999e-01,9.99999e-01,9.99890e-01,1.88719e-01,9.99998e-01
5.422377613e-01,1.95011e-01,9.99999e-01,9.99999e-01,9.99999e-01,9.99860e-01,1.95039e-01,9.99996e-01
5.449489501e-01,2.01412e-01,9.99999e-01,9.99999e-01,9.99999e-01,9.99868e-01,2.01438e-01,9.99996e-01
5.476736949e-01,2.07892e-01,9.99999e-01,9.99999e-01,9.99999e-01,9.99884e-01,2.07916e-01,9.99998e-01
5.504120634e-01,2.14449e-01,9.99999e-01,9.99999e-01,9.99999e-01,9.99916e-01,2.14467e-01,9.99999e-01
5.531641237e-01,2.21080e-01,9.99999e-01,9.99999e-01,9.99999e-01,9.99957e-01,2.21089e-01,9.99999e-01
5.559299443e-01,2.27775e-01,9.99999e-01,9.99999e-01,9.99999e-01,9.99979e-01,2.27779e-01,9.99999e-01
5.587095940e-01,2.34531e-01,9.99999e-01,9.99999e-01,9.99999e-01,9.99986e-01,2.34534e-01,9.99999e-01
5.615031420e-01,2.41345e-01,9.99999e-01,9.99999e-01,9.99999e-01,9.99985e-01,2.41349e-01,9.99999e-01
5.643106577e-01,2.48217e-01,9.99999e-01,9.99999e-01,9.99999e-01,9.99983e-01,2.48221e-01,9.99999e-01
5.671322110e-01,2.55097e-01,9.99999e-01,9.99999e-01,9.99999e-01,9.99800e-01,2.55148e-01,9.99997e-01
5.699678720e-01,2.62071e-01,9.99999e-01,9.99999e-01,9.99999e-01,9.99793e-01,2.62126e-01,9.99994e-01
5.728177114e-01,2.69091e-01,9.99999e-01,9.99999e-01,9.99999e-01,9.99782e-01,2.69151e-01,9.99995e-01
5.756818000e-01,2.76164e-01,9.99999e-01,9.99999e-01,9.99999e-01,9.99801e-01,2.76220e-01,9.99996e-01
5.785602090e-01,2.83280e-01,9.99999e-01,9.99999e-01,9.99999e-01,9.99826e-01,2.83329e-01,9.99998e-01
5.814530100e-01,2.90425e-01,9.99999e-01,9.99999e-01,9.99999e-01,9.99825e-01,2.90476e-01,9.99999e-01
5.843602750e-01,2.97594e-01,9.99999e-01,9.99999e-01,9.99999e-01,9.99790e-01,2.97656e-01,9.99998e-01
5.872820764e-01,3.04315e-01,9.99999e-01,9.99999e-01,9.99999e-01,9.98200e-01,3.04867e-01,9.99986e-01
5.902184868e-01,3.11420e-01,9.99999e-01,9.99999e-01,9.99999e-01,9.97839e-01,3.12105e-01,9.99965e-01
5.931695792e-01,3.18867e-01,9.99999e-01,9.99999e-01,9.99999e-01,9.98468e-01,3.19366e-01,9.99966e-01
5.961354271e-01,3.26096e-01,9.99999e-01,9.99999e-01,9.99999e-01,9.98325e-01,3.26649e-01,9.99980e-01
5.991161043e-01,3.33539e-01,9.99999e-01,9.99999e-01,9.99999e-01,9.98780e-01,3.33948e-01,9.99993e-01
6.021116848e-01,3.41026e-01,9.99999e-01,9.99999e-01,9.99999e-01,9.99308e-01,3.41262e-01,9.99998e-01
6.051222432e-01,3.48464e-01,9.99999e-01,9.99999e-01,9.99999e-01,9.99650e-01,3.48586e-01,9.99999e-01
6.081478544e-01,3.55865e-01,9.99999e-01,9.99999e-01,9.99999e-01,9.99848e-01,3.55919e-01,9.99999e-01
6.111885937e-01,3.63233e-01,9.99999e-01,9.99999e-01,9.99999e-01,9.99935e-01,3.63256e-01,9.99999e-01
6.142445367e-01,3.70584e-01,9.99999e-01,9.99999e-01,9.99999e-01,9.99971e-01,3.70595e-01,9.99999e-01
6.173157594e-01,3.77927e-01,9.99999e-01,9.99999e-01,9.99999e-01,9.99983e-01,3.77933e-01,9.99999e-01
6.204023382e-01,3.85262e-01,9.99999e-01,9.99999e-01,9.99999e-01,9.99986e-01,3.85267e-01,9.99999e-01
6.235043498e-01,3.92571e-01,9.99999e-01,9.99999e-01,9.99999e-01,9.99939e-01,3.92594e-01,9.99999e-01
6.266218716e-01,3.99787e-01,9.99999e-01,9.99999e-01,9.99999e-01,9.99688e-01,3.99912e-01,9.99997e-01
6.297549810e-01,4.07170e-01,9.99999e-01,9.99999e-01,9.99999e-01,9.99885e-01,4.07218e-01,9.99995e-01
6.329037559e-01,4.14414e-01,9.99999e-01,9.99999e-01,9.99999e-01,9.99774e-01,4.14509e-01,9.99996e-01
6.360682746e-01,4.21700e-01,9.99999e-01,9.99999e-01,9.99999e-01,9.99806e-01,4.21782e-01,9.99997e-01
6.392486160e-01,4.28929e-01,9.99999e-01,9.99999e-01,9.99999e-01,9.99750e-01,4.29036e-01,9.99998e-01
6.424448591e-01,4.36120e-01,9.99999e-01,9.99999e-01,9.99999e-01,9.99663e-01,4.36268e-01,9.99997e-01
6.456570834e-01,4.42779e-01,9.99999e-01,9.99999e-01,9.99999e-01,9.98439e-01,4.43475e-01,9.99990e-01
6.488853688e-01,4.50135e-01,9.99999e-01,9.99999e-01,9.99999e-01,9.98869e-01,4.50655e-01,9.99975e-01
6.521297956e-01,4.57270e-01,9.99999e-01,9.99999e-01,9.99999e-01,9.98847e-01,4.57806e-01,9.99979e-01
6.553904446e-01,4.64384e-01,9.99999e-01,9.99999e-01,9.99999e-01,9.98848e-01,4.64926e-01,9.99984e-01
6.586673968e-01,4.71547e-01,9.99999e-01,9.99999e-01,9.99999e-01,9.99017e-01,4.72013e-01,9.99994e-01
6.619607338e-01,4.78802e-01,9.99999e-01,9.99999e-01,9.99999e-01,9.99452e-01,4.79064e-01,9.99998e-01
6.652705375e-01,4.85919e-01,9.99999e-01,9.99999e-01,9.99999e-01,9.99671e-01,4.86079e-01,9.99998e-01
6.685968902e-01,4.92986e-01,9.99999e-01,9.99999e-01,9.99999e-01,9.99860e-01,4.93055e-01,9.99999e-01
6.719398746e-01,4.99955e-01,9.99999e-01,9.99999e-01,9.99999e-01,9.99928e-01,4.99990e-01,9.99999e-01
6.752995740e-01,5.06864e-01,9.99999e-01,9.99999e-01,9.99999e-01,9.99962e-01,5.06883e-01,9.99999e-01
6.786760719e-01,5.13703e-01,9.99999e-01,9.99999e-01,9.99999e-01,9.99943e-01,5.13732e-01,9.99999e-01
6.820694522e-01,5.20485e-01,9.99999e-01,9.99999e-01,9.99999e-01,9.99903e-01,5.20535e-01,9.99999e-01
6.854797995e-01,5.27226e-01,9.99999e-01,9.99999e-01,9.99999e-01,9.99876e-01,5.27292e-01,9.99998e-01
6.889071985e-01,5.33837e-01,9.99999e-01,9.99999e-01,9.99999e-01,9.99698e-01,5.34000e-01,9.99996e-01
6.923517345e-01,5.38010e-01,9.99999e-01,9.99999e-01,9.99999e-01,9.95125e-01,5.40658e-01,9.99976e-01
6.958134932e-01,5.45878e-01,9.99999e-01,9.99999e-01,9.99999e-01,9.97514e-01,5.47266e-01,9.99948e-01
6.992925606e-01,5.52462e-01,9.99999e-01,9.99999e-01,9.99999e-01,9.97591e-01,5.53821e-01,9.99953e-01
7.027890234e-01,5.58651e-01,9.99999e-01,9.99999e-01,9.99999e-01,9.97050e-01,5.60323e-01,9.99964e-01
7.063029686e-01,5.65355e-01,9.99999e-01,9.99999e-01,9.99999e-01,9.97518e-01,5.66771e-01,9.99981e-01
7.098344834e-01,5.71793e-01,9.99999e-01,9.99999e-01,9.99999e-01,9.97619e-01,5.73163e-01,9.99989e-01
7.133836558e-01,5.77625e-01,9.99999e-01,9.99999e-01,9.99999e-01,9.96786e-01,5.79499e-01,9.99978e-01
7.169505741e-01,5.70731e-01,9.99999e-01,9.99999e-01,9.99999e-01,9.74470e-01,5.85778e-01,9.99836e-01
7.205353270e-01,5.84534e-01,9.99999e-01,9.99999e-01,9.99999e-01,9.87673e-01,5.91999e-01,9.99712e-01
7.241380036e-01,5.88520e-01,9.99999e-01,9.99999e-01,9.99999e-01,9.84125e-01,5.98161e-01,9.99751e-01
7.277586936e-01,5.95489e-01,9.99999e-01,9.99999e-01,9.99999e-01,9.85677e-01,6.04264e-01,9.99797e-01
7.313974871e-01,6.01028e-01,9.99999e-01,9.99999e-01,9.99999e-01,9.84890e-01,6.10306e-01,9.99904e-01
7.350544745e-01,6.11161e-01,9.99999e-01,9.99999e-01,9.99999e-01,9.91712e-01,6.16288e-01,9.99966e-01
7.387297469e-01,6.18407e-01,9.99999e-01,9.99999e-01,9.99999e-01,9.93904e-01,6.22209e-01,9.99984e-01
7.424233956e-01,6.26196e-01,9.99999e-01,9.99999e-01,9.99999e-01,9.97021e-01,6.28068e-01,9.99996e-01
7.461355126e-01,6.32718e-01,9.99999e-01,9.99999e-01,9.99999e-01,9.98191e-01,6.33864e-01,9.99999e-01
7.498661902e-01,6.39061e-01,9.99999e-01,9.99999e-01,9.99999e-01,9.99160e-01,6.39598e-01,9.99999e-01
7.536155211e-01,6.45003e-01,9.99999e-01,9.99999e-01,9.99999e-01,9.99586e-01,6.45269e-01,9.99999e-01
7.573835987e-01,6.50739e-01,9.99999e-01,9.99999e-01,9.99999e-01,9.99787e-01,6.50877e-01,9.99999e-01
7.611705167e-01,6.56335e-01,9.99999e-01,9.99999e-01,9.99999e-01,9.99867e-01,6.56422e-01,9.99999e-01
7.649763693e-01,6.61848e-01,9.99999e-01,9.99999e-01,9.99999e-01,9.99916e-01,6.61903e-01,9.99999e-01
7.688012511e-01,6.67281e-01,9.99999e-01,9.99999e-01,9.99999e-01,9.99941e-01,6.67320e-01,9.99999e-01
7.726452574e-01,6.72641e-01,9.99999e-01,9.99999e-01,9.99999e-01,9.99951e-01,6.72672e-01,9.99999e-01
7.765084837e-01,6.77915e-01,9.99999e-01,9.99999e-01,9.99999e-01,9.99931e-01,6.77961e-01,9.99999e-01
7.803910261e-01,6.69742e-01,9.99999e-01,9.99999e-01,9.80604e-01,9.99704e-01,6.83186e-01,9.99999e-01
7.842929812e-01,6.34840e-01,9.99999e-01,9.99999e-01,9.23194e-01,9.98969e-01,6.88347e-01,9.99997e-01
7.882144461e-01,6.34682e-01,9.99999e-01,9.99999e-01,9.17161e-01,9.97896e-01,6.93443e-01,9.99985e-01
7.921555184e-01,6.63821e-01,9.99999e-01,9.99999e-01,9.51486e-01,9.98851e-01,6.98476e-01,9.99974e-01
7.961162960e-01,6.79252e-01,9.99999e-01,9.99999e-01,9.67607e-01,9.97947e-01,7.03444e-01,9.99975e-01
8.000968774e-01,6.94145e-01,9.99999e-01,9.99999e-01,9.82281e-01,9.97644e-01,7.08349e-01,9.99974e-01
8.040973618e-01,7.04968e-01,9.99999e-01,9.99999e-01,9.90824e-01,9.97640e-01,7.13190e-01,9.99980e-01
8.081178486e-01,7.11089e-01,9.99999e-01,9.99999e-01,9.95762e-01,9.94649e-01,7.17968e-01,9.99979e-01
8.121584379e-01,7.05721e-01,9.99999e-01,9.99999e-01,9.98702e-01,9.77863e-01,7.22682e-01,9.99925e-01
8.162192301e-01,7.08029e-01,9.99999e-01,9.99999e-01,9.99713e-01,9.74006e-01,7.27333e-01,9.99720e-01
8.203003262e-01,7.21923e-01,9.99999e-01,9.99999e-01,9.99995e-01,9.86664e-01,7.31921e-01,9.99672e-01
8.244018279e-01,7.22881e-01,9.99999e-01,9.99999e-01,9.99999e-01,9.81833e-01,7.36447e-01,9.99739e-01
8.285238370e-01,7.29158e-01,9.99999e-01,9.99999e-01,9.99999e-01,9.84338e-01,7.40911e-01,9.99795e-01
8.326664562e-01,7.33494e-01,9.99999e-01,9.99999e-01,9.99999e-01,9.84225e-01,7.45312e-01,9.99915e-01
8.368297885e-01,7.41204e-01,9.99999e-01,9.99999e-01,9.99999e-01,9.88748e-01,7.49652e-01,9.99980e-01
8.410139374e-01,7.48878e-01,9.99999e-01,9.99999e-01,9.99999e-01,9.93308e-01,7.53931e-01,9.99988e-01
8.452190071e-01,7.55658e-01,9.99999e-01,9.99999e-01,9.99999e-01,9.96719e-01,7.58149e-01,9.99992e-01
8.494451021e-01,7.60847e-01,9.99999e-01,9.99999e-01,9.99999e-01,9.98089e-01,7.62307e-01,9.99994e-01
8.536923276e-01,7.65539e-01,9.99999e-01,9.99999e-01,9.99999e-01,9.98873e-01,7.66405e-01,9.99996e-01
8.579607893e-01,7.69906e-01,9.99999e-01,9.99999e-01,9.99999e-01,9.99304e-01,7.70443e-01,9.99998e-01
8.622505932e-01,7.74080e-01,9.99999e-01,9.99999e-01,9.99999e-01,9.99558e-01,7.74422e-01,9.99999e-01
8.665618462e-01,7.39054e-01,9.99999e-01,9.99999e-01,9.49776e-01,9.99725e-01,7.78342e-01,9.99999e-01
8.708946554e-01,6.35817e-01,9.99999e-01,9.99999e-01,8.13102e-01,9.99685e-01,7.82204e-01,9.99999e-01
8.752491287e-01,6.66799e-01,9.99999e-01,9.99999e-01,8.48685e-01,9.99579e-01,7.86009e-01,9.99999e-01
8.796253743e-01,7.21986e-01,9.99999e-01,9.99999e-01,9.14714e-01,9.99416e-01,7.89756e-01,9.99998e-01
8.840235012e-01,7.57267e-01,9.99999e-01,9.99999e-01,9.55036e-01,9.99334e-01,7.93446e-01,9.99995e-01
8.884436187e-01,7.80910e-01,9.99999e-01,9.99999e-01,9.82141e-01,9.97525e-01,7.97081e-01,9.99988e-01
8.928858368e-01,7.74498e-01,9.99999e-01,9.99999e-01,9.92718e-01,9.74450e-01,8.00660e-01,9.99933e-01
8.973502660e-01,7.66858e-01,9.99999e-01,9.99999e-01,9.98237e-01,9.55575e-01,8.04183e-01,9.99660e-01
9.018370173e-01,7.88707e-01,9.99999e-01,9.99999e-01,9.99805e-01,9.77249e-01,8.07652e-01,9.99465e-01
9.063462024e-01,7.90154e-01,9.99999e-01,9.99999e-01,9.94833e-01,9.79649e-01,8.11068e-01,9.99530e-01
9.108779334e-01,7.79455e-01,9.99999e-01,9.99999e-01,9.88496e-01,9.68592e-01,8.14429e-01,9.99512e-01
9.154323231e-01,7.86302e-01,9.99999e-01,9.99999e-01,9.97318e-01,9.64501e-01,8.17738e-01,9.99596e-01
9.200094847e-01,7.66130e-01,9.99999e-01,9.99999e-01,9.59353e-01,9.72135e-01,8.20995e-01,9.99774e-01
9.246095321e-01,7.44194e-01,9.99999e-01,9.99999e-01,9.44796e-01,9.55370e-01,8.24199e-01,9.99739e-01
9.292325798e-01,5.84438e-01,9.99999e-01,9.99999e-01,9.55807e-01,7.37859e-01,8.27353e-01,9.98746e-01
9.338787427e-01,5.37546e-01,9.99999e-01,9.99999e-01,9.57818e-01,6.77019e-01,8.30456e-01,9.95476e-01
9.385481364e-01,6.87878e-01,9.99999e-01,9.99999e-01,9.68876e-01,8.55163e-01,8.33509e-01,9.95030e-01
9.432408771e-01,6.54504e-01,9.99999e-01,9.99999e-01,9.80906e-01,8.00591e-01,8.36513e-01,9.95711e-01
9.479570815e-01,6.07412e-01,9.99999e-01,9.99999e-01,9.90142e-01,7.33088e-01,8.39468e-01,9.96508e-01
9.526968669e-01,6.66436e-01,9.99999e-01,9.99999e-01,9.95244e-01,7.96417e-01,8.42374e-01,9.97868e-01
9.574603512e-01,6.85591e-01,9.99999e-01,9.99999e-01,9.97966e-01,8.13599e-01,8.45233e-01,9.98916e-01
9.622476530e-01,7.16867e-01,9.99999e-01,9.99999e-01,9.99365e-01,8.46470e-01,8.48045e-01,9.99250e-01
9.670588912e-01,7.72376e-01,9.99999e-01,9.99999e-01,9.99810e-01,9.08443e-01,8.50810e-01,9.99487e-01
9.718941857e-01,8.03666e-01,9.99999e-01,9.99999e-01,9.99986e-01,9.41946e-01,8.53530e-01,9.99622e-01
9.767536566e-01,8.14504e-01,9.99999e-01,9.99999e-01,9.99999e-01,9.51570e-01,8.56204e-01,9.99711e-01
9.816374249e-01,8.27844e-01,9.99999e-01,9.99999e-01,9.99999e-01,9.64012e-01,8.58834e-01,9.99899e-01
9.865456120e-01,8.41923e-01,9.99999e-01,9.99999e-01,9.99999e-01,9.77387e-01,8.61419e-01,9.99978e-01
9.914783401e-01,8.51830e-01,9.99999e-01,9.99999e-01,9.99999e-01,9.85964e-01,8.63961e-01,9.99993e-01
9.964357318e-01,8.59817e-01,9.99999e-01,9.99999e-01,9.99999e-01,9.92335e-01,8.66460e-01,9.99996e-01
1.001417910e+00,8.64919e-01,9.99999e-01,9.99999e-01,9.99999e-01,9.95403e-01,8.68917e-01,9.99994e-01
1.006425000e+00,8.69036e-01,9.99999e-01,9.99999e-01,9.99999e-01,9.97372e-01,8.71332e-01,9.99992e-01
1.011457125e+00,8.72278e-01,9.99999e-01,9.99999e-01,9.99999e-01,9.98372e-01,8.73705e-01,9.99992e-01
1.016514411e+00,8.75065e-01,9.99999e-01,9.99999e-01,9.99999e-01,9.98893e-01,8.76039e-01,9.99994e-01
1.021596983e+00,8.77526e-01,9.99999e-01,9.99999e-01,9.99968e-01,9.99117e-01,8.78332e-01,9.99994e-01
1.026704968e+00,8.78201e-01,9.99999e-01,9.99999e-01,9.97981e-01,9.99311e-01,8.80585e-01,9.99996e-01
1.031838492e+00,8.55194e-01,9.99999e-01,9.99999e-01,9.69202e-01,9.99500e-01,8.82800e-01,9.99998e-01
1.036997685e+00,2.36800e-01,9.99999e-01,9.99999e-01,2.67644e-01,9.99702e-01,8.84976e-01,9.99999e-01
1.042182673e+00,2.79280e-01,9.99999e-01,9.99999e-01,3.14922e-01,9.99643e-01,8.87115e-01,9.99999e-01
1.047393587e+00,2.60758e-01,9.99999e-01,9.99999e-01,2.93370e-01,9.99528e-01,8.89216e-01,9.99999e-01
1.052630555e+00,3.42882e-02,9.99999e-01,9.99999e-01,3.84903e-02,9.99352e-01,8.91281e-01,9.99999e-01
1.057893707e+00,6.71429e-02,9.99999e-01,9.99999e-01,7.52252e-02,9.98918e-01,8.93309e-01,9.99999e-01
1.063183176e+00,1.36442e-01,9.99999e-01,9.99999e-01,1.52616e-01,9.98221e-01,8.95302e-01,9.99998e-01
1.068499092e+00,2.52945e-01,9.99999e-01,9.99999e-01,2.82667e-01,9.97027e-01,8.97260e-01,9.99997e-01
1.073841587e+00,4.05313e-01,9.99999e-01,9.99999e-01,4.52189e-01,9.96513e-01,8.99184e-01,9.99995e-01
