#,Wave/freq,Total,N2,O2,CO2,H2O,Rayleigh,CIA
4.000000000e-01,3.64017e-04,9.99999e-01,9.99999e-01,9.99999e-01,9.99984e-01,3.64023e-04,9.99999e-01
4.020000000e-01,4.25717e-04,9.99999e-01,9.99999e-01,9.99999e-01,9.99990e-01,4.25721e-04,9.99999e-01
4.040100000e-01,4.96257e-04,9.99999e-01,9.99999e-01,9.99999e-01,9.99995e-01,4.96259e-04,9.99999e-01
4.060300500e-01,5.76735e-04,9.99999e-01,9.99999e-01,9.99999e-01,9.99998e-01,5.76735e-04,9.99999e-01
4.080602003e-01,6.68275e-04,9.99999e-01,9.99999e-01,9.99999e-01,9.99999e-01,6.68275e-04,9.99999e-01
4.101005013e-01,7.72094e-04,9.99999e-01,9.99999e-01,9.99999e-01,9.99999e-01,7.72094e-04,9.99999e-01
4.121510038e-01,8.89500e-04,9.99999e-01,9.99999e-01,9.99999e-01,9.99998e-01,8.89501e-04,9.99999e-01
4.142117588e-01,1.02190e-03,9.99999e-01,9.99999e-01,9.99999e-01,9.99995e-01,1.02190e-03,9.99999e-01
4.162828176e-01,1.17077e-03,9.99999e-01,9.99999e-01,9.99999e-01,9.99980e-01,1.17079e-03,9.99999e-01
4.183642317e-01,1.33776e-03,9.99999e-01,9.99999e-01,9.99999e-01,9.99988e-01,1.33778e-03,9.99999e-01
4.204560528e-01,1.52455e-03,9.99999e-01,9.99999e-01,9.99999e-01,9.99992e-01,1.52456e-03,9.99999e-01
4.225583331e-01,1.73294e-03,9.99999e-01,9.99999e-01,9.99999e-01,9.99996e-01,1.73295e-03,9.99999e-01
4.246711247e-01,1.96483e-03,9.99999e-01,9.99999e-01,9.99999e-01,9.99997e-01,1.96484e-03,9.99999e-01
4.267944804e-01,2.22223e-03,9.99999e-01,9.99999e-01,9.99999e-01,9.99996e-01,2.22223e-03,9.99999e-01
4.289284528e-01,2.50724e-03,9.99999e-01,9.99999e-01,9.99999e-01,9.99997e-01,2.50725e-03,9.99999e-01
4.310730950e-01,2.82208e-03,9.99999e-01,9.99999e-01,9.99999e-01,9.99998e-01,2.82208e-03,9.99999e-01
4.332284605e-01,3.16904e-03,9.99999e-01,9.99999e-01,9.99999e-01,9.99999e-01,3.16904e-03,9.99999e-01
4.353946028e-01,3.55050e-03,9.99999e-01,9.99999e-01,9.99999e-01,9.99999e-01,3.55050e-03,9.99999e-01
4.375715758e-01,3.96896e-03,9.99999e-01,9.99999e-01,9.99999e-01,9.99997e-01,3.96897e-03,9.99999e-01
4.397594337e-01,4.42693e-03,9.99999e-01,9.99999e-01,9.99999e-01,9.99983e-01,4.42700e-03,9.99999e-01
4.419582309e-01,4.92684e-03,9.99999e-01,9.99999e-01,9.99999e-01,9.99916e-01,4.92726e-03,9.99999e-01
4.441680220e-01,5.47209e-03,9.99999e-01,9.99999e-01,9.99999e-01,9.99933e-01,5.47245e-03,9.99999e-01
4.463888621e-01,6.06497e-03,9.99999e-01,9.99999e-01,9.99999e-01,9.99931e-01,6.06538e-03,9.99999e-01
4.486208064e-01,6.70863e-03,9.99999e-01,9.99999e-01,9.99999e-01,9.99956e-01,6.70892e-03,9.99999e-01
4.508639105e-01,7.40581e-03,9.99999e-01,9.99999e-01,9.99999e-01,9.99979e-01,7.40596e-03,9.99999e-01
4.531182300e-01,8.15941e-03,9.99999e-01,9.99999e-01,9.99999e-01,9.99991e-01,8.15948e-03,9.99999e-01
4.553838212e-01,8.97243e-03,9.99999e-01,9.99999e-01,9.99999e-01,9.99994e-01,8.97247e-03,9.99999e-01
4.576607403e-01,9.84796e-03,9.99999e-01,9.99999e-01,9.99999e-01,9.99997e-01,9.84798e-03,9.99999e-01
4.599490440e-01,1.07890e-02,9.99999e-01,9.99999e-01,9.99999e-01,9.99997e-01,1.07891e-02,9.99999e-01
4.622487892e-01,1.17988e-02,9.99999e-01,9.99999e-01,9.99999e-01,9.99999e-01,1.17988e-02,9.99999e-01
4.645600332e-01,1.28802e-02,9.99999e-01,9.99999e-01,9.99999e-01,9.99998e-01,1.28802e-02,9.99999e-01
4.668828333e-01,1.40362e-02,9.99999e-01,9.99999e-01,9.99999e-01,9.99979e-01,1.40364e-02,9.99999e-01
4.692172475e-01,1.52698e-02,9.99999e-01,9.99999e-01,9.99999e-01,9.99956e-01,1.52705e-02,9.99999e-01
4.715633337e-01,1.65850e-02,9.99999e-01,9.99999e-01,9.99999e-01,9.99971e-01,1.65854e-02,9.99999e-01
4.739211504e-01,1.79837e-02,9.99999e-01,9.99999e-01,9.99999e-01,9.99972e-01,1.79842e-02,9.99999e-01
4.762907561e-01,1.94695e-02,9.99999e-01,9.99999e-01,9.99999e-01,9.99985e-01,1.94698e-02,9.99999e-01
4.786722099e-01,2.10450e-02,9.99999e-01,9.99999e-01,9.99999e-01,9.99993e-01,2.10451e-02,9.99999e-01
4.810655710e-01,2.27129e-02,9.99999e-01,9.99999e-01,9.99999e-01,9.99997e-01,2.27129e-02,9.99999e-01
4.834708988e-01,2.44756e-02,9.99999e-01,9.99999e-01,9.99999e-01,9.99983e-01,2.44760e-02,9.99999e-01
4.858882533e-01,2.63362e-02,9.99999e-01,9.99999e-01,9.99999e-01,9.99969e-01,2.63370e-02,9.99999e-01
4.883176946e-01,2.82979e-02,9.99999e-01,9.99999e-01,9.99999e-01,9.99974e-01,2.82986e-02,9.99999e-01
4.907592831e-01,3.03624e-02,9.99999e-01,9.99999e-01,9.99999e-01,9.99976e-01,3.03631e-02,9.99999e-01
4.932130795e-01,3.25324e-02,9.99999e-01,9.99999e-01,9.99999e-01,9.99983e-01,3.25329e-02,9.99999e-01
4.956791449e-01,3.48101e-02,9.99999e-01,9.99999e-01,9.99999e-01,9.99990e-01,3.48104e-02,9.99999e-01
4.981575406e-01,3.71959e-02,9.99999e-01,9.99999e-01,9.99999e-01,9.99956e-01,3.71975e-02,9.99999e-01
5.006483283e-01,3.96918e-02,9.99999e-01,9.99999e-01,9.99999e-01,9.99888e-01,3.96962e-02,9.99998e-01
5.031515699e-01,4.22843e-02,9.99999e-01,9.99999e-01,9.99999e-01,9.99433e-01,4.23085e-02,9.99993e-01
5.056673278e-01,4.50221e-02,9.99999e-01,9.99999e-01,9.99999e-01,9.99700e-01,4.50359e-02,9.99992e-01
5.081956644e-01,4.78618e-02,9.99999e-01,9.99999e-01,9.99999e-01,9.99622e-01,4.78800e-02,9.99995e-01
5.107366428e-01,5.08292e-02,9.99999e-01,9.99999e-01,9.99999e-01,9.99744e-01,5.08423e-02,9.99998e-01
5.132903260e-01,5.39159e-02,9.99999e-01,9.99999e-01,9.99999e-01,9.99853e-01,5.39237e-02,9.99999e-01
5.158567776e-01,5.71220e-02,9.99999e-01,9.99999e-01,9.99999e-01,9.99937e-01,5.71256e-02,9.99999e-01
5.184360615e-01,6.04471e-02,9.99999e-01,9.99999e-01,9.99999e-01,9.99974e-01,6.04486e-02,9.99999e-01
5.210282418e-01,6.38929e-02,9.99999e-01,9.99999e-01,9.99999e-01,9.99990e-01,6.38935e-02,9.99999e-01
5.236333830e-01,6.74584e-02,9.99999e-01,9.99999e-01,9.99999e-01,9.99962e-01,6.74609e-02,9.99999e-01
5.262515499e-01,7.11493e-02,9.99999e-01,9.99999e-01,9.99999e-01,9.99976e-01,7.11510e-02,9.99999e-01
5.288828077e-01,7.49625e-02,9.99999e-01,9.99999e-01,9.99999e-01,9.99978e-01,7.49641e-02,9.99999e-01
5.315272217e-01,7.88987e-02,9.99999e-01,9.99999e-01,9.99999e-01,9.99980e-01,7.89001e-02,9.99999e-01
5.341848578e-01,8.29579e-02,9.99999e-01,9.99999e-01,9.99999e-01,9.99987e-01,8.29589e-02,9.99999e-01
5.368557821e-01,8.71364e-02,9.99999e-01,9.99999e-01,9.99999e-01,9.99956e-01,8.71402e-02,9.99999e-01
5.395400610e-01,9.14290e-02,9.99999e-01,9.99999e-01,9.99999e-01,9.99845e-01,9.14432e-02,9.99998e-01
5.422377613e-01,9.58479e-02,9.99999e-01,9.99999e-01,9.99999e-01,9.99798e-01,9.58675e-02,9.99995e-01
5.449489501e-01,1.00393e-01,9.99999e-01,9.99999e-01,9.99999e-01,9.99813e-01,1.00412e-01,9.99995e-01
5.476736949e-01,1.05058e-01,9.99999e-01,9.99999e-01,9.99999e-01,9.99834e-01,1.05076e-01,9.99997e-01
5.504120634e-01,1.09845e-01,9.99999e-01,9.99999e-01,9.99999e-01,9.99879e-01,1.09858e-01,9.99998e-01
5.531641237e-01,1.14749e-01,9.99999e-01,9.99999e-01,9.99999e-01,9.99939e-01,1.14756e-01,9.99999e-01
5.559299443e-01,1.19767e-01,9.99999e-01,9.99999e-01,9.99999e-01,9.99970e-01,1.19770e-01,9.99999e-01
5.587095940e-01,1.24895e-01,9.99999e-01,9.99999e-01,9.99999e-01,9.99981e-01,1.24897e-01,9.99999e-01
5.615031420e-01,1.30134e-01,9.99999e-01,9.99999e-01,9.99999e-01,9.99979e-01,1.30136e-01,9.99999e-01
5.643106577e-01,1.35482e-01,9.99999e-01,9.99999e-01,9.99999e-01,9.99976e-01,1.35485e-01,9.99999e-01
5.671322110e-01,1.40902e-01,9.99999e-01,9.99999e-01,9.99999e-01,9.99722e-01,1.40941e-01,9.99997e-01
5.699678720e-01,1.46458e-01,9.99999e-01,9.99999e-01,9.99999e-01,9.99700e-01,1.46503e-01,9.99991e-01
5.728177114e-01,1.52120e-01,9.99999e-01,9.99999e-01,9.99999e-01,9.99689e-01,1.52168e-01,9.99993e-01
5.756818000e-01,1.57888e-01,9.99999e-01,9.99999e-01,9.99999e-01,9.99714e-01,1.57934e-01,9.99995e-01
5.785602090e-01,1.63757e-01,9.99999e-01,9.99999e-01,9.99999e-01,9.99751e-01,1.63797e-01,9.99998e-01
5.814530100e-01,1.69714e-01,9.99999e-01,9.99999e-01,9.99999e-01,9.99750e-01,1.69757e-01,9.99998e-01
5.843602750e-01,1.75756e-01,9.99999e-01,9.99999e-01,9.99999e-01,9.99703e-01,1.75808e-01,9.99997e-01
5.872820764e-01,1.81482e-01,9.99999e-01,9.99999e-01,9.99999e-01,9.97447e-01,1.81950e-01,9.99981e-01
5.902184868e-01,1.87585e-01,9.99999e-01,9.99999e-01,9.99999e-01,9.96893e-01,1.88178e-01,9.99950e-01
5.931695792e-01,1.94055e-01,9.99999e-01,9.99999e-01,9.99999e-01,9.97808e-01,1.94491e-01,9.99951e-01
5.961354271e-01,2.00395e-01,9.99999e-01,9.99999e-01,9.99999e-01,9.97594e-01,2.00884e-01,9.99970e-01
5.991161043e-01,2.06989e-01,9.99999e-01,9.99999e-01,9.99999e-01,9.98244e-01,2.07354e-01,9.99991e-01
6.021116848e-01,2.13686e-01,9.99999e-01,9.99999e-01,9.99999e-01,9.99002e-01,2.13899e-01,9.99998e-01
6.051222432e-01,2.20405e-01,9.99999e-01,9.99999e-01,9.99999e-01,9.99495e-01,2.20516e-01,9.99999e-01
6.081478544e-01,2.27151e-01,9.99999e-01,9.99999e-01,9.99999e-01,9.99782e-01,2.27200e-01,9.99999e-01
6.111885937e-01,2.33927e-01,9.99999e-01,9.99999e-01,9.99999e-01,9.99907e-01,2.33949e-01,9.99999e-01
6.142445367e-01,2.40749e-01,9.99999e-01,9.99999e-01,9.99999e-01,9.99958e-01,2.40759e-01,9.99999e-01
6.173157594e-01,2.47621e-01,9.99999e-01,9.99999e-01,9.99999e-01,9.99976e-01,2.47627e-01,9.99999e-01
6.204023382e-01,2.54544e-01,9.99999e-01,9.99999e-01,9.99999e-01,9.99980e-01,2.54549e-01,9.99999e-01
6.235043498e-01,2.61501e-01,9.99999e-01,9.99999e-01,9.99999e-01,9.99916e-01,2.61523e-01,9.99999e-01
6.266218716e-01,2.68423e-01,9.99999e-01,9.99999e-01,9.99999e-01,9.99553e-01,2.68544e-01,9.99996e-01
6.297549810e-01,2.75562e-01,9.99999e-01,9.99999e-01,9.99999e-01,9.99835e-01,2.75609e-01,9.99993e-01
6.329037559e-01,2.82622e-01,9.99999e-01,9.99999e-01,9.99999e-01,9.99675e-01,2.82715e-01,9.99994e-01
6.360682746e-01,2.89778e-01,9.99999e-01,9.99999e-01,9.99999e-01,9.99724e-01,2.89858e-01,9.99996e-01
6.392486160e-01,2.96930e-01,9.99999e-01,9.99999e-01,9.99999e-01,9.99642e-01,2.97036e-01,9.99998e-01
6.424448591e-01,3.04099e-01,9.99999e-01,9.99999e-01,9.99999e-01,9.99523e-01,3.04244e-01,9.99997e-01
6.456570834e-01,3.10788e-01,9.99999e-01,9.99999e-01,9.99999e-01,9.97790e-01,3.11480e-01,9.99987e-01
6.488853688e-01,3.18210e-01,9.99999e-01,9.99999e-01,9.99999e-01,9.98372e-01,3.18740e-01,9.99965e-01
6.521297956e-01,3.25470e-01,9.99999e-01,9.99999e-01,9.99999e-01,9.98340e-01,3.26020e-01,9.99970e-01
6.553904446e-01,3.32765e-01,9.99999e-01,9.99999e-01,9.99999e-01,9.98360e-01,3.33318e-01,9.99977e-01
6.586673968e-01,3.40147e-01,9.99999e-01,9.99999e-01,9.99999e-01,9.98585e-01,3.40631e-01,9.99992e-01
6.619607338e-01,3.47669e-01,9.99999e-01,9.99999e-01,9.99999e-01,9.99182e-01,3.47954e-01,9.99997e-01
6.652705375e-01,3.55118e-01,9.99999e-01,9.99999e-01,9.99999e-01,9.99525e-01,3.55286e-01,9.99998e-01
6.685968902e-01,3.62543e-01,9.99999e-01,9.99999e-01,9.99999e-01,9.99779e-01,3.62623e-01,9.99999e-01
6.719398746e-01,3.69924e-01,9.99999e-01,9.99999e-01,9.99999e-01,9.99897e-01,3.69962e-01,9.99999e-01
6.752995740e-01,3.77280e-01,9.99999e-01,9.99999e-01,9.99999e-01,9.99944e-01,3.77300e-01,9.99999e-01
6.786760719e-01,3.84604e-01,9.99999e-01,9.99999e-01,9.99999e-01,9.99920e-01,3.84635e-01,9.99999e-01
6.820694522e-01,3.91909e-01,9.99999e-01,9.99999e-01,9.99999e-01,9.99863e-01,3.91963e-01,9.99998e-01
6.854797995e-01,3.99211e-01,9.99999e-01,9.99999e-01,9.99999e-01,9.99824e-01,3.99282e-01,9.99997e-01
6.889071985e-01,4.06416e-01,9.99999e-01,9.99999e-01,9.99999e-01,9.99578e-01,4.06589e-01,9.99995e-01
6.923517345e-01,4.11007e-01,9.99999e-01,9.99999e-01,9.99999e-01,9.93089e-01,4.13881e-01,9.99966e-01
6.958134932e-01,4.19592e-01,9.99999e-01,9.99999e-01,9.99999e-01,9.96361e-01,4.21156e-01,9.99924e-01
6.992925606e-01,4.26919e-01,9.99999e-01,9.99999e-01,9.99999e-01,9.96581e-01,4.28412e-01,9.99933e-01
7.027890234e-01,4.33777e-01,9.99999e-01,9.99999e-01,9.99999e-01,9.95762e-01,4.35645e-01,9.99948e-01
7.063029686e-01,4.41266e-01,9.99999e-01,9.99999e-01,9.99999e-01,9.96438e-01,4.42854e-01,9.99974e-01
7.098344834e-01,4.48493e-01,9.99999e-01,9.99999e-01,9.99999e-01,9.96583e-01,4.50037e-01,9.99984e-01
7.133836558e-01,4.55109e-01,9.99999e-01,9.99999e-01,9.99999e-01,9.95476e-01,4.57191e-01,9.99969e-01
7.169505741e-01,4.47465e-01,9.99999e-01,9.99999e-01,9.99999e-01,9.63936e-01,4.64313e-01,9.99766e-01
7.205353270e-01,4.62744e-01,9.99999e-01,9.99999e-01,9.99999e-01,9.82033e-01,4.71403e-01,9.99588e-01
7.241380036e-01,4.67492e-01,9.99999e-01,9.99999e-01,9.99999e-01,9.77428e-01,4.78458e-01,9.99644e-01
7.277586936e-01,4.75434e-01,9.99999e-01,9.99999e-01,9.99999e-01,9.79598e-01,4.85476e-01,9.99709e-01
7.313974871e-01,4.81684e-01,9.99999e-01,9.99999e-01,9.99999e-01,9.78259e-01,4.92455e-01,9.99863e-01
7.350544745e-01,4.93422e-01,9.99999e-01,9.99999e-01,9.99999e-01,9.88088e-01,4.99394e-01,9.99952e-01
7.387297469e-01,5.01836e-01,9.99999e-01,9.99999e-01,9.99999e-01,9.91222e-01,5.06290e-01,9.99977e-01
7.424233956e-01,5.10931e-01,9.99999e-01,9.99999e-01,9.99999e-01,9.95693e-01,5.13143e-01,9.99995e-01
7.461355126e-01,5.18594e-01,9.99999e-01,9.99999e-01,9.99999e-01,9.97390e-01,5.19950e-01,9.99998e-01
7.498661902e-01,5.26070e-01,9.99999e-01,9.99999e-01,9.99999e-01,9.98782e-01,5.26711e-01,9.99999e-01
7.536155211e-01,5.33105e-01,9.99999e-01,9.99999e-01,9.99999e-01,9.99403e-01,5.33423e-01,9.99999e-01
7.573835987e-01,5.39920e-01,9.99999e-01,9.99999e-01,9.99999e-01,9.99692e-01,5.40086e-01,9.99999e-01
7.611705167e-01,5.46594e-01,9.99999e-01,9.99999e-01,9.99999e-01,9.99808e-01,5.46698e-01,9.99999e-01
7.649763693e-01,5.53192e-01,9.99999e-01,9.99999e-01,9.99999e-01,9.99880e-01,5.53258e-01,9.99999e-01
7.688012511e-01,5.59718e-01,9.99999e-01,9.99999e-01,9.99999e-01,9.99916e-01,5.59765e-01,9.99999e-01
7.726452574e-01,5.66178e-01,9.99999e-01,9.99999e-01,9.99999e-01,9.99931e-01,5.66217e-01,9.99999e-01
7.765084837e-01,5.72559e-01,9.99999e-01,9.99999e-01,9.99999e-01,9.99902e-01,5.72614e-01,9.99999e-01
7.803910261e-01,5.63998e-01,9.99999e-01,9.99999e-01,9.74562e-01,9.99582e-01,5.78955e-01,9.99999e-01
7.842929812e-01,5.21053e-01,9.99999e-01,9.99999e-01,8.91578e-01,9.98542e-01,5.85239e-01,9.99996e-01
7.882144461e-01,5.21643e-01,9.99999e-01,9.99999e-01,8.84552e-01,9.96984e-01,5.91465e-01,9.99981e-01
7.921555184e-01,5.55756e-01,9.99999e-01,9.99999e-01,9.31481e-01,9.98340e-01,5.97632e-01,9.99963e-01
7.961162960e-01,5.73969e-01,9.99999e-01,9.99999e-01,9.53479e-01,9.97086e-01,6.03740e-01,9.99965e-01
8.000968774e-01,5.92242e-01,9.99999e-01,9.99999e-01,9.74543e-01,9.96625e-01,6.09788e-01,9.99963e-01
8.040973618e-01,6.05526e-01,9.99999e-01,9.99999e-01,9.86707e-01,9.96626e-01,6.15775e-01,9.99970e-01
8.081178486e-01,6.13215e-01,9.99999e-01,9.99999e-01,9.93892e-01,9.92431e-01,6.21701e-01,9.99972e-01
8.121584379e-01,6.06726e-01,9.99999e-01,9.99999e-01,9.98101e-01,9.68722e-01,6.27565e-01,9.99893e-01
8.162192301e-01,6.09281e-01,9.99999e-01,9.99999e-01,9.99580e-01,9.62754e-01,6.33367e-01,9.99599e-01
8.203003262e-01,6.26916e-01,9.99999e-01,9.99999e-01,9.99992e-01,9.81390e-01,6.39106e-01,9.99530e-01
8.244018279e-01,6.27583e-01,9.99999e-01,9.99999e-01,9.99999e-01,9.73687e-01,6.44783e-01,9.99626e-01
8.285238370e-01,6.35714e-01,9.99999e-01,9.99999e-01,9.99999e-01,9.77710e-01,6.50396e-01,9.99706e-01
8.326664562e-01,6.41053e-01,9.99999e-01,9.99999e-01,9.99999e-01,9.77412e-01,6.55946e-01,9.99878e-01
8.368297885e-01,6.50714e-01,9.99999e-01,9.99999e-01,9.99999e-01,9.83820e-01,6.61433e-01,9.99971e-01
8.410139374e-01,6.60416e-01,9.99999e-01,9.99999e-01,9.99999e-01,9.90359e-01,6.66855e-01,9.99983e-01
8.452190071e-01,6.69022e-01,9.99999e-01,9.99999e-01,9.99999e-01,9.95261e-01,6.72214e-01,9.99989e-01
8.494451021e-01,6.75643e-01,9.99999e-01,9.99999e-01,9.99999e-01,9.97254e-01,6.77508e-01,9.99991e-01
8.536923276e-01,6.81624e-01,9.99999e-01,9.99999e-01,9.99999e-01,9.98372e-01,6.82738e-01,9.99994e-01
8.579607893e-01,6.87216e-01,9.99999e-01,9.99999e-01,9.99999e-01,9.98999e-01,6.87904e-01,9.99998e-01
8.622505932e-01,6.92566e-01,9.99999e-01,9.99999e-01,9.99999e-01,9.99363e-01,6.93007e-01,9.99999e-01
8.665618462e-01,6.55112e-01,9.99999e-01,9.99999e-01,9.38851e-01,9.99606e-01,6.98045e-01,9.99999e-01
8.708946554e-01,5.24383e-01,9.99999e-01,9.99999e-01,7.46227e-01,9.99550e-01,7.03019e-01,9.99999e-01
8.752491287e-01,5.59385e-01,9.99999e-01,9.99999e-01,7.90635e-01,9.99398e-01,7.07929e-01,9.99998e-01
8.796253743e-01,6.26327e-01,9.99999e-01,9.99999e-01,8.79431e-01,9.99168e-01,7.12775e-01,9.99997e-01
8.840235012e-01,6.70804e-01,9.99999e-01,9.99999e-01,9.35726e-01,9.99049e-01,7.17558e-01,9.99993e-01
8.884436187e-01,7.01185e-01,9.99999e-01,9.99999e-01,9.74133e-01,9.96564e-01,7.22278e-01,9.99983e-01
8.928858368e-01,6.93407e-01,9.99999e-01,9.99999e-01,9.89461e-01,9.64063e-01,7.26935e-01,9.99904e-01
8.973502660e-01,6.83311e-01,9.99999e-01,9.99999e-01,9.97422e-01,9.36918e-01,7.31528e-01,9.99512e-01
9.018370173e-01,7.11143e-01,9.99999e-01,9.99999e-01,9.99715e-01,9.67156e-01,7.36059e-01,9.99234e-01
9.063462024e-01,7.13760e-01,9.99999e-01,9.99999e-01,9.92825e-01,9.71306e-01,7.40528e-01,9.99327e-01
9.108779334e-01,6.99594e-01,9.99999e-01,9.99999e-01,9.83429e-01,9.55477e-01,7.44935e-01,9.99300e-01
9.154323231e-01,7.08319e-01,9.99999e-01,9.99999e-01,9.96068e-01,9.49551e-01,7.49281e-01,9.99422e-01
9.200094847e-01,6.84051e-01,9.99999e-01,9.99999e-01,9.44141e-01,9.60195e-01,7.53565e-01,9.99676e-01
9.246095321e-01,6.56007e-01,9.99999e-01,9.99999e-01,9.21444e-01,9.38773e-01,7.57788e-01,9.99627e-01
9.292325798e-01,4.68183e-01,9.99999e-01,9.99999e-01,9.38091e-01,6.52454e-01,7.61951e-01,9.98547e-01
9.338787427e-01,4.13309e-01,9.99999e-01,9.99999e-01,9.39869e-01,5.74438e-01,7.66054e-01,9.94011e-01
9.385481364e-01,5.85517e-01,9.99999e-01,9.99999e-01,9.55515e-01,7.99762e-01,7.70097e-01,9.92881e-01
9.432408771e-01,5.48988e-01,9.99999e-01,9.99999e-01,9.72505e-01,7.32882e-01,7.74081e-01,9.93855e-01
9.479570815e-01,4.96841e-01,9.99999e-01,9.99999e-01,9.85822e-01,6.50647e-01,7.78006e-01,9.94996e-01
9.526968669e-01,5.61153e-01,9.99999e-01,9.99999e-01,9.93132e-01,7.24522e-01,7.81873e-01,9.96945e-01
9.574603512e-01,5.82978e-01,9.99999e-01,9.99999e-01,9.97057e-01,7.45236e-01,7.85683e-01,9.98446e-01
9.622476530e-01,6.20255e-01,9.99999e-01,9.99999e-01,9.99080e-01,7.87230e-01,7.89435e-01,9.98925e-01
9.670588912e-01,6.90461e-01,9.99999e-01,9.99999e-01,9.99724e-01,8.71421e-01,7.93130e-01,9.99264e-01
9.718941857e-01,7.30878e-01,9.99999e-01,9.99999e-01,9.99979e-01,9.17814e-01,7.96770e-01,9.99458e-01
9.767536566e-01,7.45073e-01,9.99999e-01,9.99999e-01,9.99999e-01,9.31314e-01,8.00353e-01,9.99586e-01
9.816374249e-01,7.62453e-01,9.99999e-01,9.99999e-01,9.99999e-01,9.48599e-01,8.03882e-01,9.99856e-01
9.865456120e-01,7.81159e-01,9.99999e-01,9.99999e-01,9.99999e-01,9.67580e-01,8.07356e-01,9.99969e-01
9.914783401e-01,7.94434e-01,9.99999e-01,9.99999e-01,9.99999e-01,9.79851e-01,8.10775e-01,9.99991e-01
9.964357318e-01,8.05165e-01,9.99999e-01,9.99999e-01,9.99999e-01,9.88977e-01,8.14142e-01,9.99994e-01
1.001417910e+00,8.12038e-01,9.99999e-01,9.99999e-01,9.99999e-01,9.93380e-01,8.17455e-01,9.99992e-01
1.006425000e+00,8.17611e-01,9.99999e-01,9.99999e-01,9.99999e-01,9.96226e-01,8.20716e-01,9.99988e-01
1.011457125e+00,8.21984e-01,9.99999e-01,9.99999e-01,9.99999e-01,9.97653e-01,8.23925e-01,9.99989e-01
1.016514411e+00,8.25761e-01,9.99999e-01,9.99999e-01,9.99999e-01,9.98407e-01,8.27083e-01,9.99992e-01
1.021596983e+00,8.29102e-01,9.99999e-01,9.99999e-01,9.99963e-01,9.98731e-01,8.30191e-01,9.99992e-01
1.026704968e+00,8.30098e-01,9.99999e-01,9.99999e-01,9.97208e-01,9.99010e-01,8.33248e-01,9.99994e-01
1.031838492e+00,8.06565e-01,9.99999e-01,9.99999e-01,9.65173e-01,9.99280e-01,8.36256e-01,9.99998e-01
1.036997685e+00,1.66705e-01,9.99999e-01,9.99999e-01,1.98712e-01,9.99572e-01,8.39215e-01,9.99999e-01
1.042182673e+00,1.64708e-01,9.99999e-01,9.99999e-01,1.95676e-01,9.99491e-01,8.42125e-01,9.99999e-01
1.047393587e+00,1.74532e-01,9.99999e-01,9.99999e-01,2.06674e-01,9.99325e-01,8.44988e-01,9.99999e-01
1.052630555e+00,1.05716e-02,9.99999e-01,9.99999e-01,1.24781e-02,9.99074e-01,8.47804e-01,9.99999e-01
1.057893707e+00,2.34657e-02,9.99999e-01,9.99999e-01,2.76186e-02,9.98457e-01,8.50574e-01,9.99998e-01
1.063183176e+00,6.15676e-02,9.99999e-01,9.99999e-01,7.22910e-02,9.97460e-01,8.53297e-01,9.99998e-01
1.068499092e+00,1.42000e-01,9.99999e-01,9.99999e-01,1.66510e-01,9.95746e-01,8.55975e-01,9.99996e-01
1.073841587e+00,2.75230e-01,9.99999e-01,9.99999e-01,3.21958e-01,9.95027e-01,8.58609e-01,9.99993e-01
