#,Wave/freq,Total,N2,O2,CO2,H2O,Rayleigh,CIA
4.000000000e-01,6.49500e-05,9.99999e-01,9.99999e-01,9.99999e-01,9.99980e-01,6.49512e-05,9.99999e-01
4.020000000e-01,7.85921e-05,9.99999e-01,9.99999e-01,9.99999e-01,9.99988e-01,7.85930e-05,9.99999e-01
4.040100000e-01,9.47235e-05,9.99999e-01,9.99999e-01,9.99999e-01,9.99994e-01,9.47240e-05,9.99999e-01
4.060300500e-01,1.13746e-04,9.99999e-01,9.99999e-01,9.99999e-01,9.99998e-01,1.13746e-04,9.99999e-01
4.080602003e-01,1.36094e-04,9.99999e-01,9.99999e-01,9.99999e-01,9.99999e-01,1.36094e-04,9.99999e-01
4.101005013e-01,1.62258e-04,9.99999e-01,9.99999e-01,9.99999e-01,9.99999e-01,1.62258e-04,9.99999e-01
4.121510038e-01,1.92781e-04,9.99999e-01,9.99999e-01,9.99999e-01,9.99998e-01,1.92781e-04,9.99999e-01
4.142117588e-01,2.28266e-04,9.99999e-01,9.99999e-01,9.99999e-01,9.99994e-01,2.28267e-04,9.99999e-01
4.162828176e-01,2.69379e-04,9.99999e-01,9.99999e-01,9.99999e-01,9.99976e-01,2.69385e-04,9.99999e-01
4.183642317e-01,3.16866e-04,9.99999e-01,9.99999e-01,9.99999e-01,9.99985e-01,3.16871e-04,9.99999e-01
4.204560528e-01,3.71531e-04,9.99999e-01,9.99999e-01,9.99999e-01,9.99991e-01,3.71534e-04,9.99999e-01
4.225583331e-01,4.34258e-04,9.99999e-01,9.99999e-01,9.99999e-01,9.99996e-01,4.34259e-04,9.99999e-01
4.246711247e-01,5.06012e-04,9.99999e-01,9.99999e-01,9.99999e-01,9.99997e-01,5.06013e-04,9.99999e-01
4.267944804e-01,5.87843e-04,9.99999e-01,9.99999e-01,9.99999e-01,9.99995e-01,5.87845e-04,9.99999e-01
4.289284528e-01,6.80890e-04,9.99999e-01,9.99999e-01,9.99999e-01,9.99996e-01,6.80892e-04,9.99999e-01
4.310730950e-01,7.86379e-04,9.99999e-01,9.99999e-01,9.99999e-01,9.99998e-01,7.86380e-04,9.99999e-01
4.332284605e-01,9.05631e-04,9.99999e-01,9.99999e-01,9.99999e-01,9.99999e-01,9.05631e-04,9.99999e-01
4.353946028e-01,1.04006e-03,9.99999e-01,9.99999e-01,9.99999e-01,9.99999e-01,1.04006e-03,9.99999e-01
4.375715758e-01,1.19118e-03,9.99999e-01,9.99999e-01,9.99999e-01,9.99997e-01,1.19119e-03,9.99999e-01
4.397594337e-01,1.36059e-03,9.99999e-01,9.99999e-01,9.99999e-01,9.99979e-01,1.36062e-03,9.99999e-01
4.419582309e-01,1.54991e-03,9.99999e-01,9.99999e-01,9.99999e-01,9.99896e-01,1.55007e-03,9.99999e-01
4.441680220e-01,1.76123e-03,9.99999e-01,9.99999e-01,9.99999e-01,9.99919e-01,1.76137e-03,9.99999e-01
4.463888621e-01,1.99625e-03,9.99999e-01,9.99999e-01,9.99999e-01,9.99916e-01,1.99642e-03,9.99999e-01
4.486208064e-01,2.25712e-03,9.99999e-01,9.99999e-01,9.99999e-01,9.99947e-01,2.25724e-03,9.99999e-01
4.508639105e-01,2.54590e-03,9.99999e-01,9.99999e-01,9.99999e-01,9.99975e-01,2.54596e-03,9.99999e-01
4.531182300e-01,2.86476e-03,9.99999e-01,9.99999e-01,9.99999e-01,9.99989e-01,2.86478e-03,9.99999e-01
4.553838212e-01,3.21601e-03,9.99999e-01,9.99999e-01,9.99999e-01,9.99993e-01,3.21603e-03,9.99999e-01
4.576607403e-01,3.60210e-03,9.99999e-01,9.99999e-01,9.99999e-01,9.99996e-01,3.60211e-03,9.99999e-01
4.599490440e-01,4.02550e-03,9.99999e-01,9.99999e-01,9.99999e-01,9.99997e-01,4.02551e-03,9.99999e-01
4.622487892e-01,4.48882e-03,9.99999e-01,9.99999e-01,9.99999e-01,9.99999e-01,4.48882e-03,9.99999e-01
4.645600332e-01,4.99468e-03,9.99999e-01,9.99999e-01,9.99999e-01,9.99998e-01,4.99469e-03,9.99999e-01
4.668828333e-01,5.54572e-03,9.99999e-01,9.99999e-01,9.99999e-01,9.99975e-01,5.54585e-03,9.99999e-01
4.692172475e-01,6.14480e-03,9.99999e-01,9.99999e-01,9.99999e-01,9.99947e-01,6.14512e-03,9.99999e-01
4.715633337e-01,6.79513e-03,9.99999e-01,9.99999e-01,9.99999e-01,9.99965e-01,6.79536e-03,9.99999e-01
4.739211504e-01,7.49924e-03,9.99999e-01,9.99999e-01,9.99999e-01,9.99966e-01,7.49949e-03,9.99999e-01
4.762907561e-01,8.26034e-03,9.99999e-01,9.99999e-01,9.99999e-01,9.99982e-01,8.26048e-03,9.99999e-01
4.786722099e-01,9.08127e-03,9.99999e-01,9.99999e-01,9.99999e-01,9.99992e-01,9.08133e-03,9.99999e-01
4.810655710e-01,9.96506e-03,9.99999e-01,9.99999e-01,9.99999e-01,9.99997e-01,9.96508e-03,9.99999e-01
4.834708988e-01,1.09146e-02,9.99999e-01,9.99999e-01,9.99999e-01,9.99979e-01,1.09148e-02,9.99999e-01
4.858882533e-01,1.19331e-02,9.99999e-01,9.99999e-01,9.99999e-01,9.99962e-01,1.19336e-02,9.99999e-01
4.883176946e-01,1.30240e-02,9.99999e-01,9.99999e-01,9.99999e-01,9.99968e-01,1.30244e-02,9.99999e-01
4.907592831e-01,1.41901e-02,9.99999e-01,9.99999e-01,9.99999e-01,9.99971e-01,1.41905e-02,9.99999e-01
4.932130795e-01,1.54344e-02,9.99999e-01,9.99999e-01,9.99999e-01,9.99979e-01,1.54347e-02,9.99999e-01
4.956791449e-01,1.67601e-02,9.99999e-01,9.99999e-01,9.99999e-01,9.99989e-01,1.67603e-02,9.99999e-01
4.981575406e-01,1.81691e-02,9.99999e-01,9.99999e-01,9.99999e-01,9.99947e-01,1.81700e-02,9.99999e-01
5.006483283e-01,1.96643e-02,9.99999e-01,9.99999e-01,9.99999e-01,9.99863e-01,1.96670e-02,9.99998e-01
5.031515699e-01,2.12392e-02,9.99999e-01,9.99999e-01,9.99999e-01,9.99309e-01,2.12540e-02,9.99992e-01
5.056673278e-01,2.29254e-02,9.99999e-01,9.99999e-01,9.99999e-01,9.99635e-01,2.29339e-02,9.99991e-01
5.081956644e-01,2.46979e-02,9.99999e-01,9.99999e-01,9.99999e-01,9.99540e-01,2.47094e-02,9.99994e-01
5.107366428e-01,2.65749e-02,9.99999e-01,9.99999e-01,9.99999e-01,9.99689e-01,2.65832e-02,9.99998e-01
5.132903260e-01,2.85528e-02,9.99999e-01,9.99999e-01,9.99999e-01,9.99822e-01,2.85578e-02,9.99999e-01
5.158567776e-01,3.06335e-02,9.99999e-01,9.99999e-01,9.99999e-01,9.99924e-01,3.06358e-02,9.99999e-01
5.184360615e-01,3.28183e-02,9.99999e-01,9.99999e-01,9.99999e-01,9.99969e-01,3.28193e-02,9.99999e-01
5.210282418e-01,3.51103e-02,9.99999e-01,9.99999e-01,9.99999e-01,9.99988e-01,3.51107e-02,9.99999e-01
5.236333830e-01,3.75103e-02,9.99999e-01,9.99999e-01,9.99999e-01,9.99954e-01,3.75120e-02,9.99999e-01
5.262515499e-01,4.00241e-02,9.99999e-01,9.99999e-01,9.99999e-01,9.99971e-01,4.00253e-02,9.99999e-01
5.288828077e-01,4.26511e-02,9.99999e-01,9.99999e-01,9.99999e-01,9.99973e-01,4.26522e-02,9.99999e-01
5.315272217e-01,4.53935e-02,9.99999e-01,9.99999e-01,9.99999e-01,9.99976e-01,4.53945e-02,9.99999e-01
5.341848578e-01,4.82530e-02,9.99999e-01,9.99999e-01,9.99999e-01,9.99984e-01,4.82538e-02,9.99999e-01
5.368557821e-01,5.12285e-02,9.99999e-01,9.99999e-01,9.99999e-01,9.99947e-01,5.12312e-02,9.99999e-01
5.395400610e-01,5.43178e-02,9.99999e-01,9.99999e-01,9.99999e-01,9.99810e-01,5.43281e-02,9.99997e-01
5.422377613e-01,5.75311e-02,9.99999e-01,9.99999e-01,9.99999e-01,9.99755e-01,5.75454e-02,9.99995e-01
5.449489501e-01,6.08700e-02,9.99999e-01,9.99999e-01,9.99999e-01,9.99772e-01,6.08841e-02,9.99994e-01
5.476736949e-01,6.43316e-02,9.99999e-01,9.99999e-01,9.99999e-01,9.99798e-01,6.43447e-02,9.99997e-01
5.504120634e-01,6.79179e-02,9.99999e-01,9.99999e-01,9.99999e-01,9.99853e-01,6.79278e-02,9.99998e-01
5.531641237e-01,7.16285e-02,9.99999e-01,9.99999e-01,9.99999e-01,9.99926e-01,7.16337e-02,9.99999e-01
5.559299443e-01,7.54599e-02,9.99999e-01,9.99999e-01,9.99999e-01,9.99964e-01,7.54626e-02,9.99999e-01
5.587095940e-01,7.94127e-02,9.99999e-01,9.99999e-01,9.99999e-01,9.99977e-01,7.94144e-02,9.99999e-01
5.615031420e-01,8.34869e-02,9.99999e-01,9.99999e-01,9.99999e-01,9.99974e-01,8.34890e-02,9.99999e-01
5.643106577e-01,8.76834e-02,9.99999e-01,9.99999e-01,9.99999e-01,9.99971e-01,8.76859e-02,9.99999e-01
5.671322110e-01,9.19728e-02,9.99999e-01,9.99999e-01,9.99999e-01,9.99657e-01,9.20046e-02,9.99996e-01
5.699678720e-01,9.64085e-02,9.99999e-01,9.99999e-01,9.99999e-01,9.99637e-01,9.64443e-02,9.99990e-01
5.728177114e-01,1.00965e-01,9.99999e-01,9.99999e-01,9.99999e-01,9.99621e-01,1.01004e-01,9.99991e-01
5.756818000e-01,1.05646e-01,9.99999e-01,9.99999e-01,9.99999e-01,9.99652e-01,1.05683e-01,9.99994e-01
5.785602090e-01,1.10447e-01,9.99999e-01,9.99999e-01,9.99999e-01,9.99697e-01,1.10480e-01,9.99998e-01
5.814530100e-01,1.15359e-01,9.99999e-01,9.99999e-01,9.99999e-01,9.99696e-01,1.15394e-01,9.99998e-01
5.843602750e-01,1.20378e-01,9.99999e-01,9.99999e-01,9.99999e-01,9.99637e-01,1.20422e-01,9.99997e-01
5.872820764e-01,1.25169e-01,9.99999e-01,9.99999e-01,9.99999e-01,9.96879e-01,1.25564e-01,9.99977e-01
5.902184868e-01,1.30315e-01,9.99999e-01,9.99999e-01,9.99999e-01,9.96223e-01,1.30817e-01,9.99939e-01
5.931695792e-01,1.35808e-01,9.99999e-01,9.99999e-01,9.99999e-01,9.97330e-01,1.36180e-01,9.99942e-01
5.961354271e-01,1.41231e-01,9.99999e-01,9.99999e-01,9.99999e-01,9.97074e-01,1.41650e-01,9.99966e-01
5.991161043e-01,1.46909e-01,9.99999e-01,9.99999e-01,9.99999e-01,9.97866e-01,1.47225e-01,9.99989e-01
6.021116848e-01,1.52718e-01,9.99999e-01,9.99999e-01,9.99999e-01,9.98789e-01,1.52903e-01,9.99998e-01
6.051222432e-01,1.58584e-01,9.99999e-01,9.99999e-01,9.99999e-01,9.99387e-01,1.58681e-01,9.99999e-01
6.081478544e-01,1.64514e-01,9.99999e-01,9.99999e-01,9.99999e-01,9.99735e-01,1.64557e-01,9.99999e-01
6.111885937e-01,1.70509e-01,9.99999e-01,9.99999e-01,9.99999e-01,9.99887e-01,1.70529e-01,9.99999e-01
6.142445367e-01,1.76583e-01,9.99999e-01,9.99999e-01,9.99999e-01,9.99949e-01,1.76592e-01,9.99999e-01
6.173157594e-01,1.82740e-01,9.99999e-01,9.99999e-01,9.99999e-01,9.99971e-01,1.82745e-01,9.99999e-01
6.204023382e-01,1.88980e-01,9.99999e-01,9.99999e-01,9.99999e-01,9.99976e-01,1.88984e-01,9.99999e-01
6.235043498e-01,1.95287e-01,9.99999e-01,9.99999e-01,9.99999e-01,9.99896e-01,1.95307e-01,9.99999e-01
6.266218716e-01,2.01600e-01,9.99999e-01,9.99999e-01,9.99999e-01,9.99456e-01,2.01710e-01,9.99995e-01
6.297549810e-01,2.08148e-01,9.99999e-01,9.99999e-01,9.99999e-01,9.99800e-01,2.08191e-01,9.99991e-01
6.329037559e-01,2.14659e-01,9.99999e-01,9.99999e-01,9.99999e-01,9.99605e-01,2.14745e-01,9.99993e-01
6.360682746e-01,2.21295e-01,9.99999e-01,9.99999e-01,9.99999e-01,9.99664e-01,2.21370e-01,9.99995e-01
6.392486160e-01,2.27964e-01,9.99999e-01,9.99999e-01,9.99999e-01,9.99564e-01,2.28063e-01,9.99997e-01
6.424448591e-01,2.34683e-01,9.99999e-01,9.99999e-01,9.99999e-01,9.99417e-01,2.34820e-01,9.99996e-01
6.456570834e-01,2.40981e-01,9.99999e-01,9.99999e-01,9.99999e-01,9.97296e-01,2.41638e-01,9.99984e-01
6.488853688e-01,2.48011e-01,9.99999e-01,9.99999e-01,9.99999e-01,9.98022e-01,2.48513e-01,9.99957e-01
6.521297956e-01,2.54918e-01,9.99999e-01,9.99999e-01,9.99999e-01,9.97983e-01,2.55442e-01,9.99964e-01
6.553904446e-01,2.61888e-01,9.99999e-01,9.99999e-01,9.99999e-01,9.97992e-01,2.62421e-01,9.99973e-01
6.586673968e-01,2.68983e-01,9.99999e-01,9.99999e-01,9.99999e-01,9.98281e-01,2.69448e-01,9.99990e-01
6.619607338e-01,2.76254e-01,9.99999e-01,9.99999e-01,9.99999e-01,9.99042e-01,2.76519e-01,9.99997e-01
6.652705375e-01,2.83467e-01,9.99999e-01,9.99999e-01,9.99999e-01,9.99424e-01,2.83630e-01,9.99998e-01
6.685968902e-01,2.90701e-01,9.99999e-01,9.99999e-01,9.99999e-01,9.99732e-01,2.90778e-01,9.99999e-01
6.719398746e-01,2.97923e-01,9.99999e-01,9.99999e-01,9.99999e-01,9.99875e-01,2.97960e-01,9.99999e-01
6.752995740e-01,3.05151e-01,9.99999e-01,9.99999e-01,9.99999e-01,9.99932e-01,3.05172e-01,9.99999e-01
6.786760719e-01,3.12380e-01,9.99999e-01,9.99999e-01,9.99999e-01,9.99902e-01,3.12411e-01,9.99999e-01
6.820694522e-01,3.19620e-01,9.99999e-01,9.99999e-01,9.99999e-01,9.99833e-01,3.19673e-01,9.99998e-01
6.854797995e-01,3.26886e-01,9.99999e-01,9.99999e-01,9.99999e-01,9.99785e-01,3.26956e-01,9.99997e-01
6.889071985e-01,3.34082e-01,9.99999e-01,9.99999e-01,9.99999e-01,9.99480e-01,3.34256e-01,9.99994e-01
6.923517345e-01,3.38673e-01,9.99999e-01,9.99999e-01,9.99999e-01,9.91556e-01,3.41570e-01,9.99959e-01
6.958134932e-01,3.47333e-01,9.99999e-01,9.99999e-01,9.99999e-01,9.95611e-01,3.48895e-01,9.99909e-01
6.992925606e-01,3.54711e-01,9.99999e-01,9.99999e-01,9.99999e-01,9.95822e-01,3.56228e-01,9.99918e-01
7.027890234e-01,3.61670e-01,9.99999e-01,9.99999e-01,9.99999e-01,9.94847e-01,3.63565e-01,9.99937e-01
7.063029686e-01,3.69286e-01,9.99999e-01,9.99999e-01,9.99999e-01,9.95667e-01,3.70905e-01,9.99968e-01
7.098344834e-01,3.76663e-01,9.99999e-01,9.99999e-01,9.99999e-01,9.95842e-01,3.78242e-01,9.99981e-01
7.133836558e-01,3.83424e-01,9.99999e-01,9.99999e-01,9.99999e-01,9.94453e-01,3.85576e-01,9.99963e-01
7.169505741e-01,3.75571e-01,9.99999e-01,9.99999e-01,9.99999e-01,9.56156e-01,3.92903e-01,9.99715e-01
7.205353270e-01,3.91363e-01,9.99999e-01,9.99999e-01,9.99999e-01,9.78357e-01,4.00221e-01,9.99498e-01
7.241380036e-01,3.96169e-01,9.99999e-01,9.99999e-01,9.99999e-01,9.72551e-01,4.07526e-01,9.99566e-01
7.277586936e-01,4.04386e-01,9.99999e-01,9.99999e-01,9.99999e-01,9.75199e-01,4.14816e-01,9.99645e-01
7.313974871e-01,4.10910e-01,9.99999e-01,9.99999e-01,9.99999e-01,9.73676e-01,4.22089e-01,9.99833e-01
7.350544745e-01,4.23110e-01,9.99999e-01,9.99999e-01,9.99999e-01,9.85542e-01,4.29342e-01,9.99941e-01
7.387297469e-01,4.31910e-01,9.99999e-01,9.99999e-01,9.99999e-01,9.89347e-01,4.36572e-01,9.99973e-01
7.424233956e-01,4.41458e-01,9.99999e-01,9.99999e-01,9.99999e-01,9.94777e-01,4.43778e-01,9.99994e-01
7.461355126e-01,4.49528e-01,9.99999e-01,9.99999e-01,9.99999e-01,9.96832e-01,4.50957e-01,9.99998e-01
7.498661902e-01,4.57431e-01,9.99999e-01,9.99999e-01,9.99999e-01,9.98524e-01,4.58107e-01,9.99999e-01
7.536155211e-01,4.64889e-01,9.99999e-01,9.99999e-01,9.99999e-01,9.99275e-01,4.65226e-01,9.99999e-01
7.573835987e-01,4.72135e-01,9.99999e-01,9.99999e-01,9.99999e-01,9.99627e-01,4.72311e-01,9.99999e-01
7.611705167e-01,4.79250e-01,9.99999e-01,9.99999e-01,9.99999e-01,9.99768e-01,4.79361e-01,9.99999e-01
7.649763693e-01,4.86304e-01,9.99999e-01,9.99999e-01,9.99999e-01,9.99854e-01,4.86374e-01,9.99999e-01
7.688012511e-01,4.93298e-01,9.99999e-01,9.99999e-01,9.99999e-01,9.99898e-01,4.93348e-01,9.99999e-01
7.726452574e-01,5.00240e-01,9.99999e-01,9.99999e-01,9.99999e-01,9.99916e-01,5.00282e-01,9.99999e-01
7.765084837e-01,5.07113e-01,9.99999e-01,9.99999e-01,9.99999e-01,9.99881e-01,5.07173e-01,9.99999e-01
7.803910261e-01,4.97711e-01,9.99999e-01,9.99999e-01,9.68753e-01,9.99488e-01,5.14020e-01,9.99999e-01
7.842929812e-01,4.52672e-01,9.99999e-01,9.99999e-01,8.70637e-01,9.98215e-01,5.20821e-01,9.99996e-01
7.882144461e-01,4.53124e-01,9.99999e-01,9.99999e-01,8.61949e-01,9.96329e-01,5.27576e-01,9.99974e-01
7.921555184e-01,4.89066e-01,9.99999e-01,9.99999e-01,9.17217e-01,9.97986e-01,5.34282e-01,9.99955e-01
7.961162960e-01,5.08755e-01,9.99999e-01,9.99999e-01,9.43876e-01,9.96439e-01,5.40938e-01,9.99957e-01
8.000968774e-01,5.28469e-01,9.99999e-01,9.99999e-01,9.69176e-01,9.95891e-01,5.47543e-01,9.99955e-01
8.040973618e-01,5.42934e-01,9.99999e-01,9.99999e-01,9.83925e-01,9.95889e-01,5.54096e-01,9.99964e-01
8.081178486e-01,5.51278e-01,9.99999e-01,9.99999e-01,9.92586e-01,9.90743e-01,5.60596e-01,9.99966e-01
8.121584379e-01,5.44143e-01,9.99999e-01,9.99999e-01,9.97707e-01,9.61925e-01,5.67042e-01,9.99869e-01
8.162192301e-01,5.47077e-01,9.99999e-01,9.99999e-01,9.99493e-01,9.54980e-01,5.73432e-01,9.99512e-01
8.203003262e-01,5.66244e-01,9.99999e-01,9.99999e-01,9.99992e-01,9.77242e-01,5.79765e-01,9.99428e-01
8.244018279e-01,5.67251e-01,9.99999e-01,9.99999e-01,9.99999e-01,9.68375e-01,5.86042e-01,9.99545e-01
8.285238370e-01,5.76003e-01,9.99999e-01,9.99999e-01,9.99999e-01,9.72897e-01,5.92260e-01,9.99642e-01
8.326664562e-01,5.81944e-01,9.99999e-01,9.99999e-01,9.99999e-01,9.72610e-01,5.98420e-01,9.99851e-01
8.368297885e-01,5.92640e-01,9.99999e-01,9.99999e-01,9.99999e-01,9.80381e-01,6.04520e-01,9.99965e-01
8.410139374e-01,6.03407e-01,9.99999e-01,9.99999e-01,9.99999e-01,9.88304e-01,6.10560e-01,9.99979e-01
8.452190071e-01,6.12988e-01,9.99999e-01,9.99999e-01,9.99999e-01,9.94251e-01,6.16539e-01,9.99987e-01
8.494451021e-01,6.20373e-01,9.99999e-01,9.99999e-01,9.99999e-01,9.96661e-01,6.22457e-01,9.99990e-01
8.536923276e-01,6.27069e-01,9.99999e-01,9.99999e-01,9.99999e-01,9.98025e-01,6.28313e-01,9.99993e-01
8.579607893e-01,6.33335e-01,9.99999e-01,9.99999e-01,9.99999e-01,9.98783e-01,6.34107e-01,9.99998e-01
8.622505932e-01,6.39344e-01,9.99999e-01,9.99999e-01,9.99999e-01,9.99226e-01,6.39839e-01,9.99999e-01
8.665618462e-01,5.99477e-01,9.99999e-01,9.99999e-01,9.29117e-01,9.99521e-01,6.45507e-01,9.99999e-01
8.708946554e-01,4.57243e-01,9.99999e-01,9.99999e-01,7.02620e-01,9.99452e-01,6.51113e-01,9.99999e-01
8.752491287e-01,4.94135e-01,9.99999e-01,9.99999e-01,7.53040e-01,9.99267e-01,6.56654e-01,9.99998e-01
8.796253743e-01,5.66212e-01,9.99999e-01,9.99999e-01,8.55980e-01,9.98985e-01,6.62132e-01,9.99997e-01
8.840235012e-01,6.15167e-01,9.99999e-01,9.99999e-01,9.22594e-01,9.98840e-01,6.67547e-01,9.99992e-01
8.884436187e-01,6.49140e-01,9.99999e-01,9.99999e-01,9.68778e-01,9.95766e-01,6.72897e-01,9.99979e-01
8.928858368e-01,6.40215e-01,9.99999e-01,9.99999e-01,9.87235e-01,9.56233e-01,6.78183e-01,9.99883e-01
8.973502660e-01,6.29087e-01,9.99999e-01,9.99999e-01,9.96888e-01,9.23884e-01,6.83405e-01,9.99406e-01
9.018370173e-01,6.60475e-01,9.99999e-01,9.99999e-01,9.99656e-01,9.60421e-01,6.88563e-01,9.99067e-01
9.063462024e-01,6.63133e-01,9.99999e-01,9.99999e-01,9.91176e-01,9.65052e-01,6.93657e-01,9.99180e-01
9.108779334e-01,6.47319e-01,9.99999e-01,9.99999e-01,9.79924e-01,9.46049e-01,6.98687e-01,9.99148e-01
9.154323231e-01,6.57176e-01,9.99999e-01,9.99999e-01,9.95259e-01,9.38971e-01,7.03653e-01,9.99296e-01
9.200094847e-01,6.30270e-01,9.99999e-01,9.99999e-01,9.32628e-01,9.51878e-01,7.08555e-01,9.99605e-01
9.246095321e-01,5.98519e-01,9.99999e-01,9.99999e-01,9.05461e-01,9.25457e-01,7.13393e-01,9.99545e-01
9.292325798e-01,3.98279e-01,9.99999e-01,9.99999e-01,9.24979e-01,5.96004e-01,7.18168e-01,9.98231e-01
9.338787427e-01,3.44166e-01,9.99999e-01,9.99999e-01,9.27505e-01,5.13237e-01,7.22879e-01,9.92712e-01
9.385481364e-01,5.23046e-01,9.99999e-01,9.99999e-01,9.46223e-01,7.64164e-01,7.27528e-01,9.91338e-01
9.432408771e-01,4.83810e-01,9.99999e-01,9.99999e-01,9.66750e-01,6.87519e-01,7.32114e-01,9.92522e-01
9.479570815e-01,4.29717e-01,9.99999e-01,9.99999e-01,9.82800e-01,5.96665e-01,7.36637e-01,9.93910e-01
9.526968669e-01,4.97587e-01,9.99999e-01,9.99999e-01,9.91673e-01,6.79113e-01,7.41098e-01,9.96281e-01
9.574603512e-01,5.19534e-01,9.99999e-01,9.99999e-01,9.96432e-01,7.00562e-01,7.45497e-01,9.98108e-01
9.622476530e-01,5.60033e-01,9.99999e-01,9.99999e-01,9.98886e-01,7.48642e-01,7.49834e-01,9.98691e-01
9.670588912e-01,6.37451e-01,9.99999e-01,9.99999e-01,9.99666e-01,8.46327e-01,7.54110e-01,9.99105e-01
9.718941857e-01,6.82775e-01,9.99999e-01,9.99999e-01,9.99976e-01,9.00984e-01,7.58326e-01,9.99340e-01
9.767536566e-01,6.98914e-01,9.99999e-01,9.99999e-01,9.99999e-01,9.17091e-01,7.62481e-01,9.99496e-01
9.816374249e-01,7.18853e-01,9.99999e-01,9.99999e-01,9.99999e-01,9.37907e-01,7.66576e-01,9.99825e-01
9.865456120e-01,7.40342e-01,9.99999e-01,9.99999e-01,9.99999e-01,9.60754e-01,7.70612e-01,9.99963e-01
9.914783401e-01,7.55652e-01,9.99999e-01,9.99999e-01,9.99999e-01,9.75562e-01,7.74588e-01,9.99989e-01
9.964357318e-01,7.68086e-01,9.99999e-01,9.99999e-01,9.99999e-01,9.86620e-01,7.78506e-01,9.99993e-01
1.001417910e+00,7.76070e-01,9.99999e-01,9.99999e-01,9.99999e-01,9.91961e-01,7.82366e-01,9.99990e-01
1.006425000e+00,7.82550e-01,9.99999e-01,9.99999e-01,9.99999e-01,9.95410e-01,7.86168e-01,9.99986e-01
1.011457125e+00,7.87652e-01,9.99999e-01,9.99999e-01,9.99999e-01,9.97149e-01,7.89913e-01,9.99987e-01
1.016514411e+00,7.92058e-01,9.99999e-01,9.99999e-01,9.99999e-01,9.98064e-01,7.93601e-01,9.99991e-01
1.021596983e+00,7.95959e-01,9.99999e-01,9.99999e-01,9.99952e-01,9.98457e-01,7.97233e-01,9.99991e-01
1.026704968e+00,7.97087e-01,9.99999e-01,9.99999e-01,9.96553e-01,9.98796e-01,8.00809e-01,9.99993e-01
1.031838492e+00,7.69831e-01,9.99999e-01,9.99999e-01,9.57921e-01,9.99125e-01,8.04331e-01,9.99997e-01
1.036997685e+00,1.33551e-01,9.99999e-01,9.99999e-01,1.65396e-01,9.99480e-01,8.07798e-01,9.99999e-01
1.042182673e+00,1.14903e-01,9.99999e-01,9.99999e-01,1.41722e-01,9.99380e-01,8.11211e-01,9.99999e-01
1.047393587e+00,1.30532e-01,9.99999e-01,9.99999e-01,1.60363e-01,9.99178e-01,8.14570e-01,9.99999e-01
1.052630555e+00,4.72935e-03,9.99999e-01,9.99999e-01,5.78730e-03,9.98872e-01,8.17877e-01,9.99999e-01
1.057893707e+00,1.15832e-02,9.99999e-01,9.99999e-01,1.41247e-02,9.98117e-01,8.21131e-01,9.99998e-01
1.063183176e+00,3.57590e-02,9.99999e-01,9.99999e-01,4.34772e-02,9.96903e-01,8.24334e-01,9.99997e-01
1.068499092e+00,9.41683e-02,9.99999e-01,9.99999e-01,1.14304e-01,9.94819e-01,8.27485e-01,9.99996e-01
1.073841587e+00,2.09999e-01,9.99999e-01,9.99999e-01,2.54159e-01,9.93937e-01,8.30586e-01,9.99991e-01
