#,Wave/freq,Total,N2,O2,CO2,H2O,Rayleigh,CIA
4.000000000e-01,5.73743e-03,9.99999e-01,9.99999e-01,9.99999e-01,9.99989e-01,5.73749e-03,9.99999e-01
4.020000000e-01,6.35384e-03,9.99999e-01,9.99999e-01,9.99999e-01,9.99993e-01,6.35388e-03,9.99999e-01
4.040100000e-01,7.02155e-03,9.99999e-01,9.99999e-01,9.99999e-01,9.99996e-01,7.02157e-03,9.99999e-01
4.060300500e-01,7.74412e-03,9.99999e-01,9.99999e-01,9.99999e-01,9.99998e-01,7.74413e-03,9.99999e-01
4.080602003e-01,8.52453e-03,9.99999e-01,9.99999e-01,9.99999e-01,9.99999e-01,8.52453e-03,9.99999e-01
4.101005013e-01,9.36580e-03,9.99999e-01,9.99999e-01,9.99999e-01,9.99999e-01,9.36580e-03,9.99999e-01
4.121510038e-01,1.02710e-02,9.99999e-01,9.99999e-01,9.99999e-01,9.99999e-01,1.02710e-02,9.99999e-01
4.142117588e-01,1.12431e-02,9.99999e-01,9.99999e-01,9.99999e-01,9.99996e-01,1.12431e-02,9.99999e-01
4.162828176e-01,1.22852e-02,9.99999e-01,9.99999e-01,9.99999e-01,9.99987e-01,1.22853e-02,9.99999e-01
4.183642317e-01,1.34006e-02,9.99999e-01,9.99999e-01,9.99999e-01,9.99992e-01,1.34007e-02,9.99999e-01
4.204560528e-01,1.45921e-02,9.99999e-01,9.99999e-01,9.99999e-01,9.99995e-01,1.45922e-02,9.99999e-01
4.225583331e-01,1.58629e-02,9.99999e-01,9.99999e-01,9.99999e-01,9.99997e-01,1.58629e-02,9.99999e-01
4.246711247e-01,1.72159e-02,9.99999e-01,9.99999e-01,9.99999e-01,9.99998e-01,1.72159e-02,9.99999e-01
4.267944804e-01,1.86541e-02,9.99999e-01,9.99999e-01,9.99999e-01,9.99997e-01,1.86541e-02,9.99999e-01
4.289284528e-01,2.01805e-02,9.99999e-01,9.99999e-01,9.99999e-01,9.99997e-01,2.01805e-02,9.99999e-01
4.310730950e-01,2.17978e-02,9.99999e-01,9.99999e-01,9.99999e-01,9.99998e-01,2.17978e-02,9.99999e-01
4.332284605e-01,2.35090e-02,9.99999e-01,9.99999e-01,9.99999e-01,9.99999e-01,2.35090e-02,9.99999e-01
4.353946028e-01,2.53166e-02,9.99999e-01,9.99999e-01,9.99999e-01,9.99999e-01,2.53166e-02,9.99999e-01
4.375715758e-01,2.72234e-02,9.99999e-01,9.99999e-01,9.99999e-01,9.99998e-01,2.72234e-02,9.99999e-01
4.397594337e-01,2.92316e-02,9.99999e-01,9.99999e-01,9.99999e-01,9.99988e-01,2.92319e-02,9.99999e-01
4.419582309e-01,3.13427e-02,9.99999e-01,9.99999e-01,9.99999e-01,9.99945e-01,3.13444e-02,9.99999e-01
4.441680220e-01,3.35618e-02,9.99999e-01,9.99999e-01,9.99999e-01,9.99956e-01,3.35633e-02,9.99999e-01
4.463888621e-01,3.58891e-02,9.99999e-01,9.99999e-01,9.99999e-01,9.99954e-01,3.58907e-02,9.99999e-01
4.486208064e-01,3.83277e-02,9.99999e-01,9.99999e-01,9.99999e-01,9.99971e-01,3.83288e-02,9.99999e-01
4.508639105e-01,4.08788e-02,9.99999e-01,9.99999e-01,9.99999e-01,9.99986e-01,4.08793e-02,9.99999e-01
4.531182300e-01,4.35439e-02,9.99999e-01,9.99999e-01,9.99999e-01,9.99994e-01,4.35442e-02,9.99999e-01
4.553838212e-01,4.63247e-02,9.99999e-01,9.99999e-01,9.99999e-01,9.99996e-01,4.63249e-02,9.99999e-01
4.576607403e-01,4.92229e-02,9.99999e-01,9.99999e-01,9.99999e-01,9.99997e-01,4.92230e-02,9.99999e-01
4.599490440e-01,5.22396e-02,9.99999e-01,9.99999e-01,9.99999e-01,9.99998e-01,5.22397e-02,9.99999e-01
4.622487892e-01,5.53762e-02,9.99999e-01,9.99999e-01,9.99999e-01,9.99999e-01,5.53762e-02,9.99999e-01
4.645600332e-01,5.86335e-02,9.99999e-01,9.99999e-01,9.99999e-01,9.99998e-01,5.86335e-02,9.99999e-01
4.668828333e-01,6.20115e-02,9.99999e-01,9.99999e-01,9.99999e-01,9.99986e-01,6.20123e-02,9.99999e-01
4.692172475e-01,6.55115e-02,9.99999e-01,9.99999e-01,9.99999e-01,9.99971e-01,6.55133e-02,9.99999e-01
4.715633337e-01,6.91357e-02,9.99999e-01,9.99999e-01,9.99999e-01,9.99981e-01,6.91369e-02,9.99999e-01
4.739211504e-01,7.28821e-02,9.99999e-01,9.99999e-01,9.99999e-01,9.99981e-01,7.28834e-02,9.99999e-01
4.762907561e-01,7.67521e-02,9.99999e-01,9.99999e-01,9.99999e-01,9.99990e-01,7.67528e-02,9.99999e-01
4.786722099e-01,8.07449e-02,9.99999e-01,9.99999e-01,9.99999e-01,9.99995e-01,8.07452e-02,9.99999e-01
4.810655710e-01,8.48600e-02,9.99999e-01,9.99999e-01,9.99999e-01,9.99998e-01,8.48601e-02,9.99999e-01
4.834708988e-01,8.90964e-02,9.99999e-01,9.99999e-01,9.99999e-01,9.99989e-01,8.90973e-02,9.99999e-01
4.858882533e-01,9.34542e-02,9.99999e-01,9.99999e-01,9.99999e-01,9.99979e-01,9.34560e-02,9.99999e-01
4.883176946e-01,9.79339e-02,9.99999e-01,9.99999e-01,9.99999e-01,9.99983e-01,9.79355e-02,9.99999e-01
4.907592831e-01,1.02533e-01,9.99999e-01,9.99999e-01,9.99999e-01,9.99984e-01,1.02535e-01,9.99999e-01
4.932130795e-01,1.07252e-01,9.99999e-01,9.99999e-01,9.99999e-01,9.99988e-01,1.07253e-01,9.99999e-01
4.956791449e-01,1.12088e-01,9.99999e-01,9.99999e-01,9.99999e-01,9.99993e-01,1.12089e-01,9.99999e-01
4.981575406e-01,1.17037e-01,9.99999e-01,9.99999e-01,9.99999e-01,9.99971e-01,1.17040e-01,9.99999e-01
5.006483283e-01,1.22097e-01,9.99999e-01,9.99999e-01,9.99999e-01,9.99927e-01,1.22106e-01,9.99999e-01
5.031515699e-01,1.27237e-01,9.99999e-01,9.99999e-01,9.99999e-01,9.99630e-01,1.27285e-01,9.99995e-01
5.056673278e-01,1.32548e-01,9.99999e-01,9.99999e-01,9.99999e-01,9.99804e-01,1.32574e-01,9.99995e-01
5.081956644e-01,1.37938e-01,9.99999e-01,9.99999e-01,9.99999e-01,9.99753e-01,1.37973e-01,9.99996e-01
5.107366428e-01,1.43454e-01,9.99999e-01,9.99999e-01,9.99999e-01,9.99833e-01,1.43478e-01,9.99998e-01
5.132903260e-01,1.49073e-01,9.99999e-01,9.99999e-01,9.99999e-01,9.99904e-01,1.49087e-01,9.99999e-01
5.158567776e-01,1.54792e-01,9.99999e-01,9.99999e-01,9.99999e-01,9.99959e-01,1.54798e-01,9.99999e-01
5.184360615e-01,1.60607e-01,9.99999e-01,9.99999e-01,9.99999e-01,9.99983e-01,1.60609e-01,9.99999e-01
5.210282418e-01,1.66516e-01,9.99999e-01,9.99999e-01,9.99999e-01,9.99993e-01,1.66517e-01,9.99999e-01
5.236333830e-01,1.72515e-01,9.99999e-01,9.99999e-01,9.99999e-01,9.99975e-01,1.72519e-01,9.99999e-01
5.262515499e-01,1.78609e-01,9.99999e-01,9.99999e-01,9.99999e-01,9.99984e-01,1.78612e-01,9.99999e-01
5.288828077e-01,1.84791e-01,9.99999e-01,9.99999e-01,9.99999e-01,9.99985e-01,1.84794e-01,9.99999e-01
5.315272217e-01,1.91059e-01,9.99999e-01,9.99999e-01,9.99999e-01,9.99987e-01,1.91061e-01,9.99999e-01
5.341848578e-01,1.97409e-01,9.99999e-01,9.99999e-01,9.99999e-01,9.99991e-01,1.97411e-01,9.99999e-01
5.368557821e-01,2.03834e-01,9.99999e-01,9.99999e-01,9.99999e-01,9.99971e-01,2.03840e-01,9.99999e-01
5.395400610e-01,2.10324e-01,9.99999e-01,9.99999e-01,9.99999e-01,9.99899e-01,2.10345e-01,9.99998e-01
5.422377613e-01,2.16894e-01,9.99999e-01,9.99999e-01,9.99999e-01,9.99868e-01,2.16923e-01,9.99997e-01
5.449489501e-01,2.23544e-01,9.99999e-01,9.99999e-01,9.99999e-01,9.99878e-01,2.23571e-01,9.99997e-01
5.476736949e-01,2.30260e-01,9.99999e-01,9.99999e-01,9.99999e-01,9.99891e-01,2.30285e-01,9.99998e-01
5.504120634e-01,2.37044e-01,9.99999e-01,9.99999e-01,9.99999e-01,9.99921e-01,2.37063e-01,9.99999e-01
5.531641237e-01,2.43890e-01,9.99999e-01,9.99999e-01,9.99999e-01,9.99960e-01,2.43900e-01,9.99999e-01
5.559299443e-01,2.50788e-01,9.99999e-01,9.99999e-01,9.99999e-01,9.99980e-01,2.50793e-01,9.99999e-01
5.587095940e-01,2.57736e-01,9.99999e-01,9.99999e-01,9.99999e-01,9.99987e-01,2.57739e-01,9.99999e-01
5.615031420e-01,2.64731e-01,9.99999e-01,9.99999e-01,9.99999e-01,9.99986e-01,2.64735e-01,9.99999e-01
5.643106577e-01,2.71772e-01,9.99999e-01,9.99999e-01,9.99999e-01,9.99984e-01,2.71776e-01,9.99999e-01
5.671322110e-01,2.78810e-01,9.99999e-01,9.99999e-01,9.99999e-01,9.99819e-01,2.78861e-01,9.99997e-01
5.699678720e-01,2.85927e-01,9.99999e-01,9.99999e-01,9.99999e-01,9.99803e-01,2.85985e-01,9.99994e-01
5.728177114e-01,2.93084e-01,9.99999e-01,9.99999e-01,9.99999e-01,9.99797e-01,2.93144e-01,9.99995e-01
5.756818000e-01,3.00280e-01,9.99999e-01,9.99999e-01,9.99999e-01,9.99813e-01,3.00336e-01,9.99996e-01
5.785602090e-01,3.07507e-01,9.99999e-01,9.99999e-01,9.99999e-01,9.99837e-01,3.07557e-01,9.99998e-01
5.814530100e-01,3.14753e-01,9.99999e-01,9.99999e-01,9.99999e-01,9.99837e-01,3.14804e-01,9.99999e-01
5.843602750e-01,3.22012e-01,9.99999e-01,9.99999e-01,9.99999e-01,9.99807e-01,3.22074e-01,9.99998e-01
5.872820764e-01,3.28812e-01,9.99999e-01,9.99999e-01,9.99999e-01,9.98338e-01,3.29363e-01,9.99987e-01
5.902184868e-01,3.35975e-01,9.99999e-01,9.99999e-01,9.99999e-01,9.97972e-01,3.36668e-01,9.99967e-01
5.931695792e-01,3.43484e-01,9.99999e-01,9.99999e-01,9.99999e-01,9.98570e-01,3.43986e-01,9.99968e-01
5.961354271e-01,3.50756e-01,9.99999e-01,9.99999e-01,9.99999e-01,9.98431e-01,3.51314e-01,9.99980e-01
5.991161043e-01,3.58236e-01,9.99999e-01,9.99999e-01,9.99999e-01,9.98854e-01,3.58648e-01,9.99994e-01
6.021116848e-01,3.65749e-01,9.99999e-01,9.99999e-01,9.99999e-01,9.99349e-01,3.65987e-01,9.99998e-01
6.051222432e-01,3.73203e-01,9.99999e-01,9.99999e-01,9.99999e-01,9.99670e-01,3.73326e-01,9.99999e-01
6.081478544e-01,3.80609e-01,9.99999e-01,9.99999e-01,9.99999e-01,9.99857e-01,3.80663e-01,9.99999e-01
6.111885937e-01,3.87971e-01,9.99999e-01,9.99999e-01,9.99999e-01,9.99939e-01,3.87995e-01,9.99999e-01
6.142445367e-01,3.95308e-01,9.99999e-01,9.99999e-01,9.99999e-01,9.99972e-01,3.95319e-01,9.99999e-01
6.173157594e-01,4.02626e-01,9.99999e-01,9.99999e-01,9.99999e-01,9.99984e-01,4.02632e-01,9.99999e-01
6.204023382e-01,4.09928e-01,9.99999e-01,9.99999e-01,9.99999e-01,9.99987e-01,4.09933e-01,9.99999e-01
6.235043498e-01,4.17195e-01,9.99999e-01,9.99999e-01,9.99999e-01,9.99945e-01,4.17218e-01,9.99999e-01
6.266218716e-01,4.24360e-01,9.99999e-01,9.99999e-01,9.99999e-01,9.99708e-01,4.24484e-01,9.99997e-01
6.297549810e-01,4.31682e-01,9.99999e-01,9.99999e-01,9.99999e-01,9.99892e-01,4.31730e-01,9.99995e-01
6.329037559e-01,4.38858e-01,9.99999e-01,9.99999e-01,9.99999e-01,9.99788e-01,4.38952e-01,9.99996e-01
6.360682746e-01,4.46069e-01,9.99999e-01,9.99999e-01,9.99999e-01,9.99820e-01,4.46150e-01,9.99997e-01
6.392486160e-01,4.53213e-01,9.99999e-01,9.99999e-01,9.99999e-01,9.99766e-01,4.53319e-01,9.99998e-01
6.424448591e-01,4.60316e-01,9.99999e-01,9.99999e-01,9.99999e-01,9.99690e-01,4.60459e-01,9.99998e-01
6.456570834e-01,4.66891e-01,9.99999e-01,9.99999e-01,9.99999e-01,9.98562e-01,4.67567e-01,9.99991e-01
6.488853688e-01,4.74040e-01,9.99999e-01,9.99999e-01,9.99999e-01,9.98755e-01,4.74641e-01,9.99977e-01
6.521297956e-01,4.81149e-01,9.99999e-01,9.99999e-01,9.99999e-01,9.98917e-01,4.81679e-01,9.99980e-01
6.553904446e-01,4.88151e-01,9.99999e-01,9.99999e-01,9.99999e-01,9.98931e-01,4.88680e-01,9.99985e-01
6.586673968e-01,4.95181e-01,9.99999e-01,9.99999e-01,9.99999e-01,9.99076e-01,4.95640e-01,9.99994e-01
6.619607338e-01,5.02291e-01,9.99999e-01,9.99999e-01,9.99999e-01,9.99466e-01,5.02560e-01,9.99998e-01
6.652705375e-01,5.09279e-01,9.99999e-01,9.99999e-01,9.99999e-01,9.99690e-01,5.09437e-01,9.99999e-01
6.685968902e-01,5.16195e-01,9.99999e-01,9.99999e-01,9.99999e-01,9.99855e-01,5.16269e-01,9.99999e-01
6.719398746e-01,5.23020e-01,9.99999e-01,9.99999e-01,9.99999e-01,9.99932e-01,5.23055e-01,9.99999e-01
6.752995740e-01,5.29774e-01,9.99999e-01,9.99999e-01,9.99999e-01,9.99963e-01,5.29793e-01,9.99999e-01
6.786760719e-01,5.36456e-01,9.99999e-01,9.99999e-01,9.99999e-01,9.99947e-01,5.36483e-01,9.99999e-01
6.820694522e-01,5.43075e-01,9.99999e-01,9.99999e-01,9.99999e-01,9.99910e-01,5.43123e-01,9.99999e-01
6.854797995e-01,5.49648e-01,9.99999e-01,9.99999e-01,9.99999e-01,9.99885e-01,5.49711e-01,9.99998e-01
6.889071985e-01,5.56093e-01,9.99999e-01,9.99999e-01,9.99999e-01,9.99726e-01,5.56247e-01,9.99997e-01
6.923517345e-01,5.60182e-01,9.99999e-01,9.99999e-01,9.99999e-01,9.95496e-01,5.62729e-01,9.99977e-01
6.958134932e-01,5.67773e-01,9.99999e-01,9.99999e-01,9.99999e-01,9.97617e-01,5.69156e-01,9.99950e-01
6.992925606e-01,5.74222e-01,9.99999e-01,9.99999e-01,9.99999e-01,9.97773e-01,5.75527e-01,9.99956e-01
7.027890234e-01,5.80214e-01,9.99999e-01,9.99999e-01,9.99999e-01,9.97234e-01,5.81842e-01,9.99966e-01
7.063029686e-01,5.86724e-01,9.99999e-01,9.99999e-01,9.99999e-01,9.97676e-01,5.88100e-01,9.99983e-01
7.098344834e-01,5.92969e-01,9.99999e-01,9.99999e-01,9.99999e-01,9.97770e-01,5.94299e-01,9.99989e-01
7.133836558e-01,5.98661e-01,9.99999e-01,9.99999e-01,9.99999e-01,9.97058e-01,6.00439e-01,9.99980e-01
7.169505741e-01,5.92078e-01,9.99999e-01,9.99999e-01,9.99999e-01,9.76338e-01,6.06519e-01,9.99847e-01
7.205353270e-01,6.05149e-01,9.99999e-01,9.99999e-01,9.99999e-01,9.88199e-01,6.12539e-01,9.99731e-01
7.241380036e-01,6.09219e-01,9.99999e-01,9.99999e-01,9.99999e-01,9.85225e-01,6.18498e-01,9.99768e-01
7.277586936e-01,6.15943e-01,9.99999e-01,9.99999e-01,9.99999e-01,9.86647e-01,6.24396e-01,9.99810e-01
7.313974871e-01,6.21197e-01,9.99999e-01,9.99999e-01,9.99999e-01,9.85750e-01,6.30232e-01,9.99910e-01
7.350544745e-01,6.31033e-01,9.99999e-01,9.99999e-01,9.99999e-01,9.92211e-01,6.36005e-01,9.99968e-01
7.387297469e-01,6.38027e-01,9.99999e-01,9.99999e-01,9.99999e-01,9.94264e-01,6.41716e-01,9.99985e-01
7.424233956e-01,6.45541e-01,9.99999e-01,9.99999e-01,9.99999e-01,9.97186e-01,6.47364e-01,9.99996e-01
7.461355126e-01,6.51836e-01,9.99999e-01,9.99999e-01,9.99999e-01,9.98296e-01,6.52948e-01,9.99999e-01
7.498661902e-01,6.57945e-01,9.99999e-01,9.99999e-01,9.99999e-01,9.99204e-01,6.58469e-01,9.99999e-01
7.536155211e-01,6.63668e-01,9.99999e-01,9.99999e-01,9.99999e-01,9.99610e-01,6.63926e-01,9.99999e-01
7.573835987e-01,6.69185e-01,9.99999e-01,9.99999e-01,9.99999e-01,9.99799e-01,6.69319e-01,9.99999e-01
7.611705167e-01,6.74564e-01,9.99999e-01,9.99999e-01,9.99999e-01,9.99875e-01,6.74648e-01,9.99999e-01
7.649763693e-01,6.79860e-01,9.99999e-01,9.99999e-01,9.99999e-01,9.99921e-01,6.79913e-01,9.99999e-01
7.688012511e-01,6.85077e-01,9.99999e-01,9.99999e-01,9.99999e-01,9.99945e-01,6.85114e-01,9.99999e-01
7.726452574e-01,6.90220e-01,9.99999e-01,9.99999e-01,9.99999e-01,9.99955e-01,6.90251e-01,9.99999e-01
7.765084837e-01,6.95280e-01,9.99999e-01,9.99999e-01,9.99999e-01,9.99936e-01,6.95324e-01,9.99999e-01
7.803910261e-01,6.88322e-01,9.99999e-01,9.99999e-01,9.83112e-01,9.99728e-01,7.00332e-01,9.99999e-01
7.842929812e-01,6.53348e-01,9.99999e-01,9.99999e-01,9.27228e-01,9.99051e-01,7.05277e-01,9.99997e-01
7.882144461e-01,6.53789e-01,9.99999e-01,9.99999e-01,9.22411e-01,9.98033e-01,7.10158e-01,9.99987e-01
7.921555184e-01,6.81850e-01,9.99999e-01,9.99999e-01,9.54713e-01,9.98916e-01,7.14975e-01,9.99976e-01
7.961162960e-01,6.96345e-01,9.99999e-01,9.99999e-01,9.69360e-01,9.98102e-01,7.19729e-01,9.99977e-01
8.000968774e-01,7.10746e-01,9.99999e-01,9.99999e-01,9.83307e-01,9.97799e-01,7.24420e-01,9.99975e-01
8.040973618e-01,7.21101e-01,9.99999e-01,9.99999e-01,9.91295e-01,9.97800e-01,7.29048e-01,9.99980e-01
8.081178486e-01,7.27073e-01,9.99999e-01,9.99999e-01,9.96010e-01,9.95069e-01,7.33613e-01,9.99981e-01
8.121584379e-01,7.22048e-01,9.99999e-01,9.99999e-01,9.98757e-01,9.79509e-01,7.38115e-01,9.99930e-01
8.162192301e-01,7.23983e-01,9.99999e-01,9.99999e-01,9.99725e-01,9.75506e-01,7.42556e-01,9.99738e-01
8.203003262e-01,7.37616e-01,9.99999e-01,9.99999e-01,9.99995e-01,9.87829e-01,7.46935e-01,9.99694e-01
8.244018279e-01,7.38030e-01,9.99999e-01,9.99999e-01,9.99999e-01,9.82638e-01,7.51252e-01,9.99756e-01
8.285238370e-01,7.44345e-01,9.99999e-01,9.99999e-01,9.99999e-01,9.85412e-01,7.55508e-01,9.99808e-01
8.326664562e-01,7.48400e-01,9.99999e-01,9.99999e-01,9.99999e-01,9.85198e-01,7.59703e-01,9.99920e-01
8.368297885e-01,7.55738e-01,9.99999e-01,9.99999e-01,9.99999e-01,9.89411e-01,7.63839e-01,9.99981e-01
8.410139374e-01,7.63067e-01,9.99999e-01,9.99999e-01,9.99999e-01,9.93698e-01,7.67914e-01,9.99988e-01
8.452190071e-01,7.69536e-01,9.99999e-01,9.99999e-01,9.99999e-01,9.96904e-01,7.71930e-01,9.99993e-01
8.494451021e-01,7.74494e-01,9.99999e-01,9.99999e-01,9.99999e-01,9.98209e-01,7.75887e-01,9.99994e-01
8.536923276e-01,7.78955e-01,9.99999e-01,9.99999e-01,9.99999e-01,9.98937e-01,7.79786e-01,9.99996e-01
8.579607893e-01,7.83115e-01,9.99999e-01,9.99999e-01,9.99999e-01,9.99347e-01,7.83627e-01,9.99998e-01
8.622505932e-01,7.87083e-01,9.99999e-01,9.99999e-01,9.99999e-01,9.99584e-01,7.87410e-01,9.99999e-01
8.665618462e-01,7.55433e-01,9.99999e-01,9.99999e-01,9.55110e-01,9.99743e-01,7.91136e-01,9.99999e-01
8.708946554e-01,6.54380e-01,9.99999e-01,9.99999e-01,8.23556e-01,9.99706e-01,7.94805e-01,9.99999e-01
8.752491287e-01,6.83646e-01,9.99999e-01,9.99999e-01,8.56580e-01,9.99607e-01,7.98419e-01,9.99999e-01
8.796253743e-01,7.36823e-01,9.99999e-01,9.99999e-01,9.19248e-01,9.99458e-01,8.01977e-01,9.99998e-01
8.840235012e-01,7.70784e-01,9.99999e-01,9.99999e-01,9.57515e-01,9.99380e-01,8.05481e-01,9.99995e-01
8.884436187e-01,7.93418e-01,9.99999e-01,9.99999e-01,9.83015e-01,9.97770e-01,8.08930e-01,9.99988e-01
8.928858368e-01,7.87691e-01,9.99999e-01,9.99999e-01,9.93106e-01,9.76437e-01,8.12325e-01,9.99937e-01
8.973502660e-01,7.80112e-01,9.99999e-01,9.99999e-01,9.98313e-01,9.58313e-01,8.15667e-01,9.99682e-01
9.018370173e-01,8.00698e-01,9.99999e-01,9.99999e-01,9.99813e-01,9.78372e-01,8.18956e-01,9.99500e-01
9.063462024e-01,8.02677e-01,9.99999e-01,9.99999e-01,9.95329e-01,9.81202e-01,8.22193e-01,9.99561e-01
9.108779334e-01,7.92201e-01,9.99999e-01,9.99999e-01,9.89150e-01,9.70707e-01,8.25379e-01,9.99544e-01
9.154323231e-01,7.98641e-01,9.99999e-01,9.99999e-01,9.97425e-01,9.66769e-01,8.28514e-01,9.99623e-01
9.200094847e-01,7.79979e-01,9.99999e-01,9.99999e-01,9.62669e-01,9.73804e-01,8.31598e-01,9.99788e-01
9.246095321e-01,7.59402e-01,9.99999e-01,9.99999e-01,9.47958e-01,9.59565e-01,8.34633e-01,9.99756e-01
9.292325798e-01,6.07031e-01,9.99999e-01,9.99999e-01,9.59121e-01,7.54480e-01,8.37618e-01,9.99053e-01
9.338787427e-01,5.58087e-01,9.99999e-01,9.99999e-01,9.60268e-01,6.92427e-01,8.40555e-01,9.96092e-01
9.385481364e-01,7.03583e-01,9.99999e-01,9.99999e-01,9.70727e-01,8.62548e-01,8.43444e-01,9.95354e-01
9.432408771e-01,6.73413e-01,9.99999e-01,9.99999e-01,9.81958e-01,8.13166e-01,8.46285e-01,9.95991e-01
9.479570815e-01,6.28567e-01,9.99999e-01,9.99999e-01,9.90727e-01,7.49455e-01,8.49079e-01,9.96736e-01
9.526968669e-01,6.82787e-01,9.99999e-01,9.99999e-01,9.95511e-01,8.06590e-01,8.51828e-01,9.98007e-01
9.574603512e-01,7.02217e-01,9.99999e-01,9.99999e-01,9.98078e-01,8.24119e-01,8.54530e-01,9.98987e-01
9.622476530e-01,7.31674e-01,9.99999e-01,9.99999e-01,9.99399e-01,8.54669e-01,8.57188e-01,9.99299e-01
9.670588912e-01,7.85138e-01,9.99999e-01,9.99999e-01,9.99819e-01,9.13760e-01,8.59801e-01,9.99520e-01
9.718941857e-01,8.15106e-01,9.99999e-01,9.99999e-01,9.99986e-01,9.45537e-01,8.62370e-01,9.99647e-01
9.767536566e-01,8.25418e-01,9.99999e-01,9.99999e-01,9.99999e-01,9.54611e-01,8.64896e-01,9.99730e-01
9.816374249e-01,8.37931e-01,9.99999e-01,9.99999e-01,9.99999e-01,9.66139e-01,8.67379e-01,9.99906e-01
9.865456120e-01,8.51296e-01,9.99999e-01,9.99999e-01,9.99999e-01,9.78722e-01,8.69820e-01,9.99980e-01
9.914783401e-01,8.60712e-01,9.99999e-01,9.99999e-01,9.99999e-01,9.86810e-01,8.72220e-01,9.99994e-01
9.964357318e-01,8.68275e-01,9.99999e-01,9.99999e-01,9.99999e-01,9.92795e-01,8.74578e-01,9.99996e-01
1.001417910e+00,8.73102e-01,9.99999e-01,9.99999e-01,9.99999e-01,9.95676e-01,8.76896e-01,9.99994e-01
1.006425000e+00,8.77005e-01,9.99999e-01,9.99999e-01,9.99999e-01,9.97537e-01,8.79175e-01,9.99992e-01
1.011457125e+00,8.80058e-01,9.99999e-01,9.99999e-01,9.99999e-01,9.98468e-01,8.81414e-01,9.99993e-01
1.016514411e+00,8.82693e-01,9.99999e-01,9.99999e-01,9.99999e-01,9.98961e-01,8.83614e-01,9.99995e-01
1.021596983e+00,8.85020e-01,9.99999e-01,9.99999e-01,9.99976e-01,9.99172e-01,8.85776e-01,9.99994e-01
1.026704968e+00,8.85719e-01,9.99999e-01,9.99999e-01,9.98188e-01,9.99354e-01,8.87901e-01,9.99996e-01
1.031838492e+00,8.67215e-01,9.99999e-01,9.99999e-01,9.74860e-01,9.99530e-01,8.89989e-01,9.99998e-01
1.036997685e+00,2.54657e-01,9.99999e-01,9.99999e-01,2.85544e-01,9.99721e-01,8.92040e-01,9.99999e-01
1.042182673e+00,3.00349e-01,9.99999e-01,9.99999e-01,3.36044e-01,9.99668e-01,8.94055e-01,9.99999e-01
1.047393587e+00,2.82940e-01,9.99999e-01,9.99999e-01,3.15895e-01,9.99560e-01,8.96035e-01,9.99999e-01
1.052630555e+00,4.13284e-02,9.99999e-01,9.99999e-01,4.60457e-02,9.99397e-01,8.97980e-01,9.99999e-01
1.057893707e+00,7.76533e-02,9.99999e-01,9.99999e-01,8.63599e-02,9.98995e-01,8.99891e-01,9.99999e-01
1.063183176e+00,1.52895e-01,9.99999e-01,9.99999e-01,1.69778e-01,9.98344e-01,9.01768e-01,9.99998e-01
1.068499092e+00,2.76428e-01,9.99999e-01,9.99999e-01,3.06688e-01,9.97226e-01,9.03611e-01,9.99997e-01
1.073841587e+00,4.27601e-01,9.99999e-01,9.99999e-01,4.73664e-01,9.96757e-01,9.05422e-01,9.99995e-01
