#,Wave/freq,Total,N2,O2,CO2,H2O,Rayleigh,CIA
4.000000000e-01,3.29587e-03,9.99999e-01,9.99999e-01,9.99999e-01,9.99988e-01,3.29591e-03,9.99999e-01
4.020000000e-01,3.69018e-03,9.99999e-01,9.99999e-01,9.99999e-01,9.99992e-01,3.69021e-03,9.99999e-01
4.040100000e-01,4.12198e-03,9.99999e-01,9.99999e-01,9.99999e-01,9.99996e-01,4.12199e-03,9.99999e-01
4.060300500e-01,4.59425e-03,9.99999e-01,9.99999e-01,9.99999e-01,9.99998e-01,4.59425e-03,9.99999e-01
4.080602003e-01,5.10966e-03,9.99999e-01,9.99999e-01,9.99999e-01,9.99999e-01,5.10966e-03,9.99999e-01
4.101005013e-01,5.67096e-03,9.99999e-01,9.99999e-01,9.99999e-01,9.99999e-01,5.67096e-03,9.99999e-01
4.121510038e-01,6.28098e-03,9.99999e-01,9.99999e-01,9.99999e-01,9.99999e-01,6.28098e-03,9.99999e-01
4.142117588e-01,6.94258e-03,9.99999e-01,9.99999e-01,9.99999e-01,9.99996e-01,6.94260e-03,9.99999e-01
4.162828176e-01,7.65864e-03,9.99999e-01,9.99999e-01,9.99999e-01,9.99985e-01,7.65874e-03,9.99999e-01
4.183642317e-01,8.43232e-03,9.99999e-01,9.99999e-01,9.99999e-01,9.99991e-01,8.43239e-03,9.99999e-01
4.204560528e-01,9.26650e-03,9.99999e-01,9.99999e-01,9.99999e-01,9.99994e-01,9.26655e-03,9.99999e-01
4.225583331e-01,1.01643e-02,9.99999e-01,9.99999e-01,9.99999e-01,9.99997e-01,1.01643e-02,9.99999e-01
4.246711247e-01,1.11286e-02,9.99999e-01,9.99999e-01,9.99999e-01,9.99998e-01,1.11286e-02,9.99999e-01
4.267944804e-01,1.21627e-02,9.99999e-01,9.99999e-01,9.99999e-01,9.99997e-01,1.21627e-02,9.99999e-01
4.289284528e-01,1.32695e-02,9.99999e-01,9.99999e-01,9.99999e-01,9.99997e-01,1.32695e-02,9.99999e-01
4.310730950e-01,1.44522e-02,9.99999e-01,9.99999e-01,9.99999e-01,9.99998e-01,1.44522e-02,9.99999e-01
4.332284605e-01,1.57137e-02,9.99999e-01,9.99999e-01,9.99999e-01,9.99999e-01,1.57137e-02,9.99999e-01
4.353946028e-01,1.70572e-02,9.99999e-01,9.99999e-01,9.99999e-01,9.99999e-01,1.70572e-02,9.99999e-01
4.375715758e-01,1.84855e-02,9.99999e-01,9.99999e-01,9.99999e-01,9.99998e-01,1.84855e-02,9.99999e-01
4.397594337e-01,2.00014e-02,9.99999e-01,9.99999e-01,9.99999e-01,9.99987e-01,2.00016e-02,9.99999e-01
4.419582309e-01,2.16071e-02,9.99999e-01,9.99999e-01,9.99999e-01,9.99937e-01,2.16084e-02,9.99999e-01
4.441680220e-01,2.33076e-02,9.99999e-01,9.99999e-01,9.99999e-01,9.99952e-01,2.33087e-02,9.99999e-01
4.463888621e-01,2.51040e-02,9.99999e-01,9.99999e-01,9.99999e-01,9.99950e-01,2.51052e-02,9.99999e-01
4.486208064e-01,2.69998e-02,9.99999e-01,9.99999e-01,9.99999e-01,9.99969e-01,2.70006e-02,9.99999e-01
4.508639105e-01,2.89969e-02,9.99999e-01,9.99999e-01,9.99999e-01,9.99985e-01,2.89973e-02,9.99999e-01
4.531182300e-01,3.10976e-02,9.99999e-01,9.99999e-01,9.99999e-01,9.99993e-01,3.10978e-02,9.99999e-01
4.553838212e-01,3.33043e-02,9.99999e-01,9.99999e-01,9.99999e-01,9.99995e-01,3.33044e-02,9.99999e-01
4.576607403e-01,3.56193e-02,9.99999e-01,9.99999e-01,9.99999e-01,9.99997e-01,3.56194e-02,9.99999e-01
4.599490440e-01,3.80446e-02,9.99999e-01,9.99999e-01,9.99999e-01,9.99998e-01,3.80447e-02,9.99999e-01
4.622487892e-01,4.05823e-02,9.99999e-01,9.99999e-01,9.99999e-01,9.99999e-01,4.05823e-02,9.99999e-01
4.645600332e-01,4.32340e-02,9.99999e-01,9.99999e-01,9.99999e-01,9.99998e-01,4.32340e-02,9.99999e-01
4.668828333e-01,4.60007e-02,9.99999e-01,9.99999e-01,9.99999e-01,9.99984e-01,4.60014e-02,9.99999e-01
4.692172475e-01,4.88845e-02,9.99999e-01,9.99999e-01,9.99999e-01,9.99968e-01,4.88860e-02,9.99999e-01
4.715633337e-01,5.18881e-02,9.99999e-01,9.99999e-01,9.99999e-01,9.99979e-01,5.18892e-02,9.99999e-01
4.739211504e-01,5.50109e-02,9.99999e-01,9.99999e-01,9.99999e-01,9.99980e-01,5.50119e-02,9.99999e-01
4.762907561e-01,5.82548e-02,9.99999e-01,9.99999e-01,9.99999e-01,9.99989e-01,5.82554e-02,9.99999e-01
4.786722099e-01,6.16200e-02,9.99999e-01,9.99999e-01,9.99999e-01,9.99995e-01,6.16203e-02,9.99999e-01
4.810655710e-01,6.51072e-02,9.99999e-01,9.99999e-01,9.99999e-01,9.99998e-01,6.51073e-02,9.99999e-01
4.834708988e-01,6.87160e-02,9.99999e-01,9.99999e-01,9.99999e-01,9.99987e-01,6.87169e-02,9.99999e-01
4.858882533e-01,7.24477e-02,9.99999e-01,9.99999e-01,9.99999e-01,9.99977e-01,7.24493e-02,9.99999e-01
4.883176946e-01,7.63033e-02,9.99999e-01,9.99999e-01,9.99999e-01,9.99981e-01,7.63047e-02,9.99999e-01
4.907592831e-01,8.02817e-02,9.99999e-01,9.99999e-01,9.99999e-01,9.99983e-01,8.02830e-02,9.99999e-01
4.932130795e-01,8.43830e-02,9.99999e-01,9.99999e-01,9.99999e-01,9.99987e-01,8.43840e-02,9.99999e-01
4.956791449e-01,8.86067e-02,9.99999e-01,9.99999e-01,9.99999e-01,9.99993e-01,8.86072e-02,9.99999e-01
4.981575406e-01,9.29492e-02,9.99999e-01,9.99999e-01,9.99999e-01,9.99968e-01,9.29521e-02,9.99999e-01
5.006483283e-01,9.74099e-02,9.99999e-01,9.99999e-01,9.99999e-01,9.99917e-01,9.74179e-02,9.99998e-01
5.031515699e-01,1.01961e-01,9.99999e-01,9.99999e-01,9.99999e-01,9.99589e-01,1.02004e-01,9.99995e-01
5.056673278e-01,1.06685e-01,9.99999e-01,9.99999e-01,9.99999e-01,9.99784e-01,1.06708e-01,9.99994e-01
5.081956644e-01,1.11500e-01,9.99999e-01,9.99999e-01,9.99999e-01,9.99727e-01,1.11530e-01,9.99996e-01
5.107366428e-01,1.16447e-01,9.99999e-01,9.99999e-01,9.99999e-01,9.99816e-01,1.16469e-01,9.99998e-01
5.132903260e-01,1.21509e-01,9.99999e-01,9.99999e-01,9.99999e-01,9.99895e-01,1.21522e-01,9.99999e-01
5.158567776e-01,1.26682e-01,9.99999e-01,9.99999e-01,9.99999e-01,9.99955e-01,1.26688e-01,9.99999e-01
5.184360615e-01,1.31962e-01,9.99999e-01,9.99999e-01,9.99999e-01,9.99981e-01,1.31965e-01,9.99999e-01
5.210282418e-01,1.37350e-01,9.99999e-01,9.99999e-01,9.99999e-01,9.99992e-01,1.37351e-01,9.99999e-01
5.236333830e-01,1.42840e-01,9.99999e-01,9.99999e-01,9.99999e-01,9.99972e-01,1.42844e-01,9.99999e-01
5.262515499e-01,1.48439e-01,9.99999e-01,9.99999e-01,9.99999e-01,9.99982e-01,1.48441e-01,9.99999e-01
5.288828077e-01,1.54139e-01,9.99999e-01,9.99999e-01,9.99999e-01,9.99984e-01,1.54141e-01,9.99999e-01
5.315272217e-01,1.59939e-01,9.99999e-01,9.99999e-01,9.99999e-01,9.99986e-01,1.59941e-01,9.99999e-01
5.341848578e-01,1.65836e-01,9.99999e-01,9.99999e-01,9.99999e-01,9.99990e-01,1.65838e-01,9.99999e-01
5.368557821e-01,1.71823e-01,9.99999e-01,9.99999e-01,9.99999e-01,9.99968e-01,1.71829e-01,9.99999e-01
5.395400610e-01,1.77891e-01,9.99999e-01,9.99999e-01,9.99999e-01,9.99885e-01,1.77912e-01,9.99998e-01
5.422377613e-01,1.84057e-01,9.99999e-01,9.99999e-01,9.99999e-01,9.99855e-01,1.84084e-01,9.99996e-01
5.449489501e-01,1.90315e-01,9.99999e-01,9.99999e-01,9.99999e-01,9.99864e-01,1.90341e-01,9.99996e-01
5.476736949e-01,1.96658e-01,9.99999e-01,9.99999e-01,9.99999e-01,9.99880e-01,1.96682e-01,9.99998e-01
5.504120634e-01,2.03084e-01,9.99999e-01,9.99999e-01,9.99999e-01,9.99913e-01,2.03102e-01,9.99999e-01
5.531641237e-01,2.09589e-01,9.99999e-01,9.99999e-01,9.99999e-01,9.99956e-01,2.09598e-01,9.99999e-01
5.559299443e-01,2.16164e-01,9.99999e-01,9.99999e-01,9.99999e-01,9.99978e-01,2.16168e-01,9.99999e-01
5.587095940e-01,2.22806e-01,9.99999e-01,9.99999e-01,9.99999e-01,9.99986e-01,2.22809e-01,9.99999e-01
5.615031420e-01,2.29512e-01,9.99999e-01,9.99999e-01,9.99999e-01,9.99984e-01,2.29515e-01,9.99999e-01
5.643106577e-01,2.36282e-01,9.99999e-01,9.99999e-01,9.99999e-01,9.99982e-01,2.36286e-01,9.99999e-01
5.671322110e-01,2.43065e-01,9.99999e-01,9.99999e-01,9.99999e-01,9.99792e-01,2.43116e-01,9.99997e-01
5.699678720e-01,2.49948e-01,9.99999e-01,9.99999e-01,9.99999e-01,9.99786e-01,2.50003e-01,9.99994e-01
5.728177114e-01,2.56884e-01,9.99999e-01,9.99999e-01,9.99999e-01,9.99774e-01,2.56943e-01,9.99994e-01
5.756818000e-01,2.63879e-01,9.99999e-01,9.99999e-01,9.99999e-01,9.99794e-01,2.63933e-01,9.99996e-01
5.785602090e-01,2.70921e-01,9.99999e-01,9.99999e-01,9.99999e-01,9.99820e-01,2.70970e-01,9.99998e-01
5.814530100e-01,2.78000e-01,9.99999e-01,9.99999e-01,9.99999e-01,9.99819e-01,2.78050e-01,9.99999e-01
5.843602750e-01,2.85107e-01,9.99999e-01,9.99999e-01,9.99999e-01,9.99783e-01,2.85169e-01,9.99998e-01
5.872820764e-01,2.91776e-01,9.99999e-01,9.99999e-01,9.99999e-01,9.98133e-01,2.92325e-01,9.99986e-01
5.902184868e-01,2.98833e-01,9.99999e-01,9.99999e-01,9.99999e-01,9.97764e-01,2.99513e-01,9.99964e-01
5.931695792e-01,3.06235e-01,9.99999e-01,9.99999e-01,9.99999e-01,9.98414e-01,3.06731e-01,9.99965e-01
5.961354271e-01,3.13425e-01,9.99999e-01,9.99999e-01,9.99999e-01,9.98266e-01,3.13976e-01,9.99979e-01
5.991161043e-01,3.20836e-01,9.99999e-01,9.99999e-01,9.99999e-01,9.98737e-01,3.21243e-01,9.99993e-01
6.021116848e-01,3.28295e-01,9.99999e-01,9.99999e-01,9.99999e-01,9.99284e-01,3.28530e-01,9.99998e-01
6.051222432e-01,3.35712e-01,9.99999e-01,9.99999e-01,9.99999e-01,9.99638e-01,3.35833e-01,9.99999e-01
6.081478544e-01,3.43096e-01,9.99999e-01,9.99999e-01,9.99999e-01,9.99843e-01,3.43150e-01,9.99999e-01
6.111885937e-01,3.50454e-01,9.99999e-01,9.99999e-01,9.99999e-01,9.99933e-01,3.50477e-01,9.99999e-01
6.142445367e-01,3.57800e-01,9.99999e-01,9.99999e-01,9.99999e-01,9.99970e-01,3.57811e-01,9.99999e-01
6.173157594e-01,3.65143e-01,9.99999e-01,9.99999e-01,9.99999e-01,9.99983e-01,3.65149e-01,9.99999e-01
6.204023382e-01,3.72483e-01,9.99999e-01,9.99999e-01,9.99999e-01,9.99985e-01,3.72488e-01,9.99999e-01
6.235043498e-01,3.79801e-01,9.99999e-01,9.99999e-01,9.99999e-01,9.99937e-01,3.79825e-01,9.99999e-01
6.266218716e-01,3.87032e-01,9.99999e-01,9.99999e-01,9.99999e-01,9.99677e-01,3.87158e-01,9.99997e-01
6.297549810e-01,3.94434e-01,9.99999e-01,9.99999e-01,9.99999e-01,9.99881e-01,3.94483e-01,9.99994e-01
6.329037559e-01,4.01703e-01,9.99999e-01,9.99999e-01,9.99999e-01,9.99766e-01,4.01798e-01,9.99995e-01
6.360682746e-01,4.09017e-01,9.99999e-01,9.99999e-01,9.99999e-01,9.99800e-01,4.09100e-01,9.99997e-01
6.392486160e-01,4.16279e-01,9.99999e-01,9.99999e-01,9.99999e-01,9.99741e-01,4.16386e-01,9.99998e-01
6.424448591e-01,4.23507e-01,9.99999e-01,9.99999e-01,9.99999e-01,9.99651e-01,4.23655e-01,9.99997e-01
6.456570834e-01,4.30202e-01,9.99999e-01,9.99999e-01,9.99999e-01,9.98381e-01,4.30903e-01,9.99989e-01
6.488853688e-01,4.37606e-01,9.99999e-01,9.99999e-01,9.99999e-01,9.98830e-01,4.38129e-01,9.99974e-01
6.521297956e-01,4.44789e-01,9.99999e-01,9.99999e-01,9.99999e-01,9.98807e-01,4.45329e-01,9.99979e-01
6.553904446e-01,4.51955e-01,9.99999e-01,9.99999e-01,9.99999e-01,9.98807e-01,4.52502e-01,9.99984e-01
6.586673968e-01,4.59176e-01,9.99999e-01,9.99999e-01,9.99999e-01,9.98983e-01,4.59645e-01,9.99994e-01
6.619607338e-01,4.66492e-01,9.99999e-01,9.99999e-01,9.99999e-01,9.99433e-01,4.66757e-01,9.99998e-01
6.652705375e-01,4.73674e-01,9.99999e-01,9.99999e-01,9.99999e-01,9.99659e-01,4.73835e-01,9.99998e-01
6.685968902e-01,4.80808e-01,9.99999e-01,9.99999e-01,9.99999e-01,9.99855e-01,4.80877e-01,9.99999e-01
6.719398746e-01,4.87846e-01,9.99999e-01,9.99999e-01,9.99999e-01,9.99926e-01,4.87882e-01,9.99999e-01
6.752995740e-01,4.94828e-01,9.99999e-01,9.99999e-01,9.99999e-01,9.99960e-01,4.94847e-01,9.99999e-01
6.786760719e-01,5.01743e-01,9.99999e-01,9.99999e-01,9.99999e-01,9.99941e-01,5.01772e-01,9.99999e-01
6.820694522e-01,5.08603e-01,9.99999e-01,9.99999e-01,9.99999e-01,9.99900e-01,5.08653e-01,9.99998e-01
6.854797995e-01,5.15425e-01,9.99999e-01,9.99999e-01,9.99999e-01,9.99872e-01,5.15491e-01,9.99998e-01
6.889071985e-01,5.22117e-01,9.99999e-01,9.99999e-01,9.99999e-01,9.99686e-01,5.22282e-01,9.99996e-01
6.923517345e-01,5.26341e-01,9.99999e-01,9.99999e-01,9.99999e-01,9.94946e-01,5.29026e-01,9.99975e-01
6.958134932e-01,5.34319e-01,9.99999e-01,9.99999e-01,9.99999e-01,9.97433e-01,5.35722e-01,9.99946e-01
6.992925606e-01,5.40987e-01,9.99999e-01,9.99999e-01,9.99999e-01,9.97503e-01,5.42367e-01,9.99951e-01
7.027890234e-01,5.47266e-01,9.99999e-01,9.99999e-01,9.99999e-01,9.96947e-01,5.48961e-01,9.99962e-01
7.063029686e-01,5.54066e-01,9.99999e-01,9.99999e-01,9.99999e-01,9.97431e-01,5.55503e-01,9.99981e-01
7.098344834e-01,5.60600e-01,9.99999e-01,9.99999e-01,9.99999e-01,9.97535e-01,5.61991e-01,9.99988e-01
7.133836558e-01,5.66517e-01,9.99999e-01,9.99999e-01,9.99999e-01,9.96664e-01,5.68425e-01,9.99978e-01
7.169505741e-01,5.59509e-01,9.99999e-01,9.99999e-01,9.99999e-01,9.73555e-01,5.74803e-01,9.99831e-01
7.205353270e-01,5.73559e-01,9.99999e-01,9.99999e-01,9.99999e-01,9.87274e-01,5.81124e-01,9.99702e-01
7.241380036e-01,5.77583e-01,9.99999e-01,9.99999e-01,9.99999e-01,9.83559e-01,5.87388e-01,9.99743e-01
7.277586936e-01,5.84669e-01,9.99999e-01,9.99999e-01,9.99999e-01,9.85170e-01,5.93594e-01,9.99789e-01
7.313974871e-01,5.90312e-01,9.99999e-01,9.99999e-01,9.99999e-01,9.84374e-01,5.99741e-01,9.99901e-01
7.350544745e-01,6.00613e-01,9.99999e-01,9.99999e-01,9.99999e-01,9.91425e-01,6.05828e-01,9.99965e-01
7.387297469e-01,6.07987e-01,9.99999e-01,9.99999e-01,9.99999e-01,9.93693e-01,6.11855e-01,9.99983e-01
7.424233956e-01,6.15917e-01,9.99999e-01,9.99999e-01,9.99999e-01,9.96919e-01,6.17821e-01,9.99996e-01
7.461355126e-01,6.22559e-01,9.99999e-01,9.99999e-01,9.99999e-01,9.98129e-01,6.23726e-01,9.99999e-01
7.498661902e-01,6.29022e-01,9.99999e-01,9.99999e-01,9.99999e-01,9.99131e-01,6.29569e-01,9.99999e-01
7.536155211e-01,6.35078e-01,9.99999e-01,9.99999e-01,9.99999e-01,9.99572e-01,6.35349e-01,9.99999e-01
7.573835987e-01,6.40926e-01,9.99999e-01,9.99999e-01,9.99999e-01,9.99779e-01,6.41067e-01,9.99999e-01
7.611705167e-01,6.46634e-01,9.99999e-01,9.99999e-01,9.99999e-01,9.99862e-01,6.46722e-01,9.99999e-01
7.649763693e-01,6.52258e-01,9.99999e-01,9.99999e-01,9.99999e-01,9.99913e-01,6.52313e-01,9.99999e-01
7.688012511e-01,6.57802e-01,9.99999e-01,9.99999e-01,9.99999e-01,9.99939e-01,6.57841e-01,9.99999e-01
7.726452574e-01,6.63273e-01,9.99999e-01,9.99999e-01,9.99999e-01,9.99950e-01,6.63306e-01,9.99999e-01
7.765084837e-01,6.68659e-01,9.99999e-01,9.99999e-01,9.99999e-01,9.99928e-01,6.68706e-01,9.99999e-01
7.803910261e-01,6.60229e-01,9.99999e-01,9.99999e-01,9.79799e-01,9.99693e-01,6.74043e-01,9.99999e-01
7.842929812e-01,6.24807e-01,9.99999e-01,9.99999e-01,9.20718e-01,9.98931e-01,6.79315e-01,9.99997e-01
7.882144461e-01,6.24587e-01,9.99999e-01,9.99999e-01,9.14400e-01,9.97821e-01,6.84523e-01,9.99984e-01
7.921555184e-01,6.54265e-01,9.99999e-01,9.99999e-01,9.49804e-01,9.98812e-01,6.89667e-01,9.99973e-01
7.961162960e-01,6.70051e-01,9.99999e-01,9.99999e-01,9.66522e-01,9.97872e-01,6.94748e-01,9.99974e-01
8.000968774e-01,6.85250e-01,9.99999e-01,9.99999e-01,9.81674e-01,9.97560e-01,6.99764e-01,9.99973e-01
8.040973618e-01,6.96314e-01,9.99999e-01,9.99999e-01,9.90515e-01,9.97555e-01,7.04716e-01,9.99979e-01
8.081178486e-01,7.02563e-01,9.99999e-01,9.99999e-01,9.95616e-01,9.94452e-01,7.09604e-01,9.99979e-01
8.121584379e-01,6.97060e-01,9.99999e-01,9.99999e-01,9.98661e-01,9.77064e-01,7.14429e-01,9.99922e-01
8.162192301e-01,6.99454e-01,9.99999e-01,9.99999e-01,9.99703e-01,9.73123e-01,7.19190e-01,9.99710e-01
8.203003262e-01,7.13626e-01,9.99999e-01,9.99999e-01,9.99995e-01,9.86161e-01,7.23888e-01,9.99661e-01
8.244018279e-01,7.14668e-01,9.99999e-01,9.99999e-01,9.99999e-01,9.81246e-01,7.28522e-01,9.99730e-01
8.285238370e-01,7.21053e-01,9.99999e-01,9.99999e-01,9.99999e-01,9.83781e-01,7.33095e-01,9.99788e-01
8.326664562e-01,7.25502e-01,9.99999e-01,9.99999e-01,9.99999e-01,9.83678e-01,7.37604e-01,9.99912e-01
8.368297885e-01,7.33401e-01,9.99999e-01,9.99999e-01,9.99999e-01,9.88361e-01,7.42052e-01,9.99979e-01
8.410139374e-01,7.41262e-01,9.99999e-01,9.99999e-01,9.99999e-01,9.93077e-01,7.46438e-01,9.99987e-01
8.452190071e-01,7.48210e-01,9.99999e-01,9.99999e-01,9.99999e-01,9.96607e-01,7.50762e-01,9.99992e-01
8.494451021e-01,7.53528e-01,9.99999e-01,9.99999e-01,9.99999e-01,9.98022e-01,7.55025e-01,9.99993e-01
8.536923276e-01,7.58340e-01,9.99999e-01,9.99999e-01,9.99999e-01,9.98834e-01,7.59227e-01,9.99996e-01
8.579607893e-01,7.62819e-01,9.99999e-01,9.99999e-01,9.99999e-01,9.99279e-01,7.63370e-01,9.99998e-01
8.622505932e-01,7.67102e-01,9.99999e-01,9.99999e-01,9.99999e-01,9.99543e-01,7.67452e-01,9.99999e-01
8.665618462e-01,7.31268e-01,9.99999e-01,9.99999e-01,9.48144e-01,9.99716e-01,7.71475e-01,9.99999e-01
8.708946554e-01,6.25889e-01,9.99999e-01,9.99999e-01,8.07398e-01,9.99674e-01,7.75438e-01,9.99999e-01
8.752491287e-01,6.57483e-01,9.99999e-01,9.99999e-01,8.43997e-01,9.99564e-01,7.79344e-01,9.99999e-01
8.796253743e-01,7.13802e-01,9.99999e-01,9.99999e-01,9.11945e-01,9.99395e-01,7.83191e-01,9.99998e-01
8.840235012e-01,7.49898e-01,9.99999e-01,9.99999e-01,9.53535e-01,9.99310e-01,7.86980e-01,9.99995e-01
8.884436187e-01,7.74122e-01,9.99999e-01,9.99999e-01,9.81541e-01,9.97426e-01,7.90713e-01,9.99987e-01
8.928858368e-01,7.67509e-01,9.99999e-01,9.99999e-01,9.92473e-01,9.73520e-01,7.94389e-01,9.99930e-01
8.973502660e-01,7.59710e-01,9.99999e-01,9.99999e-01,9.98179e-01,9.54058e-01,7.98009e-01,9.99647e-01
9.018370173e-01,7.82150e-01,9.99999e-01,9.99999e-01,9.99799e-01,9.76498e-01,8.01574e-01,9.99446e-01
9.063462024e-01,7.83566e-01,9.99999e-01,9.99999e-01,9.94632e-01,9.78910e-01,8.05083e-01,9.99514e-01
9.108779334e-01,7.72621e-01,9.99999e-01,9.99999e-01,9.88103e-01,9.67491e-01,8.08538e-01,9.99495e-01
9.154323231e-01,7.79656e-01,9.99999e-01,9.99999e-01,9.97233e-01,9.63272e-01,8.11940e-01,9.99582e-01
9.200094847e-01,7.58944e-01,9.99999e-01,9.99999e-01,9.57900e-01,9.71182e-01,8.15288e-01,9.99766e-01
9.246095321e-01,7.36393e-01,9.99999e-01,9.99999e-01,9.42945e-01,9.53679e-01,8.18583e-01,9.99730e-01
9.292325798e-01,5.73435e-01,9.99999e-01,9.99999e-01,9.54232e-01,7.29922e-01,8.21826e-01,9.98701e-01
9.338787427e-01,5.26313e-01,9.99999e-01,9.99999e-01,9.56394e-01,6.68228e-01,8.25018e-01,9.95316e-01
9.385481364e-01,6.79099e-01,9.99999e-01,9.99999e-01,9.67812e-01,8.50730e-01,8.28158e-01,9.94855e-01
9.432408771e-01,6.44891e-01,9.99999e-01,9.99999e-01,9.80255e-01,7.94443e-01,8.31248e-01,9.95560e-01
9.479570815e-01,5.97049e-01,9.99999e-01,9.99999e-01,9.89801e-01,7.25376e-01,8.34289e-01,9.96384e-01
9.526968669e-01,6.57299e-01,9.99999e-01,9.99999e-01,9.95082e-01,7.90454e-01,8.37280e-01,9.97793e-01
9.574603512e-01,6.76624e-01,9.99999e-01,9.99999e-01,9.97897e-01,8.07830e-01,8.40222e-01,9.98878e-01
9.622476530e-01,7.08628e-01,9.99999e-01,9.99999e-01,9.99344e-01,8.41671e-01,8.43116e-01,9.99224e-01
9.670588912e-01,7.65429e-01,9.99999e-01,9.99999e-01,9.99803e-01,9.05433e-01,8.45963e-01,9.99491e-01
9.718941857e-01,7.97492e-01,9.99999e-01,9.99999e-01,9.99986e-01,9.39971e-01,8.48763e-01,9.99610e-01
9.767536566e-01,8.08623e-01,9.99999e-01,9.99999e-01,9.99999e-01,9.49910e-01,8.51516e-01,9.99701e-01
9.816374249e-01,8.22352e-01,9.99999e-01,9.99999e-01,9.99999e-01,9.62787e-01,8.54224e-01,9.99896e-01
9.865456120e-01,8.36828e-01,9.99999e-01,9.99999e-01,9.99999e-01,9.76611e-01,8.56887e-01,9.99977e-01
9.914783401e-01,8.47020e-01,9.99999e-01,9.99999e-01,9.99999e-01,9.85479e-01,8.59505e-01,9.99993e-01
9.964357318e-01,8.55240e-01,9.99999e-01,9.99999e-01,9.99999e-01,9.92070e-01,8.62079e-01,9.99996e-01
1.001417910e+00,8.60494e-01,9.99999e-01,9.99999e-01,9.99999e-01,9.95244e-01,8.64610e-01,9.99994e-01
1.006425000e+00,8.64733e-01,9.99999e-01,9.99999e-01,9.99999e-01,9.97279e-01,8.67098e-01,9.99991e-01
1.011457125e+00,8.68074e-01,9.99999e-01,9.99999e-01,9.99999e-01,9.98316e-01,8.69544e-01,9.99992e-01
1.016514411e+00,8.70945e-01,9.99999e-01,9.99999e-01,9.99999e-01,9.98854e-01,8.71948e-01,9.99994e-01
1.021596983e+00,8.73480e-01,9.99999e-01,9.99999e-01,9.99966e-01,9.99086e-01,8.74311e-01,9.99994e-01
1.026704968e+00,8.74168e-01,9.99999e-01,9.99999e-01,9.97900e-01,9.99286e-01,8.76634e-01,9.99996e-01
1.031838492e+00,8.50350e-01,9.99999e-01,9.99999e-01,9.67986e-01,9.99482e-01,8.78917e-01,9.99998e-01
1.036997685e+00,2.28773e-01,9.99999e-01,9.99999e-01,2.59694e-01,9.99691e-01,8.81160e-01,9.99999e-01
1.042182673e+00,2.67735e-01,9.99999e-01,9.99999e-01,3.03189e-01,9.99631e-01,8.83365e-01,9.99999e-01
1.047393587e+00,2.51281e-01,9.99999e-01,9.99999e-01,2.83888e-01,9.99512e-01,8.85531e-01,9.99999e-01
1.052630555e+00,3.10304e-02,9.99999e-01,9.99999e-01,3.49759e-02,9.99329e-01,8.87660e-01,9.99999e-01
1.057893707e+00,6.16888e-02,9.99999e-01,9.99999e-01,6.93925e-02,9.98878e-01,8.89752e-01,9.99999e-01
1.063183176e+00,1.27916e-01,9.99999e-01,9.99999e-01,1.43646e-01,9.98157e-01,8.91808e-01,9.99998e-01
1.068499092e+00,2.41182e-01,9.99999e-01,9.99999e-01,2.70581e-01,9.96921e-01,8.93827e-01,9.99997e-01
1.073841587e+00,3.93027e-01,9.99999e-01,9.99999e-01,4.40180e-01,9.96388e-01,8.95811e-01,9.99994e-01
