#,Wave/freq,Total,N2,O2,CO2,H2O,Rayleigh,CIA
4.000000000e-01,2.06695e-06,9.99999e-01,9.99999e-01,9.99999e-01,9.99974e-01,2.06700e-06,9.99999e-01
4.020000000e-01,2.67752e-06,9.99999e-01,9.99999e-01,9.99999e-01,9.99983e-01,2.67756e-06,9.99999e-01
4.040100000e-01,3.44987e-06,9.99999e-01,9.99999e-01,9.99999e-01,9.99992e-01,3.44989e-06,9.99999e-01
4.060300500e-01,4.42279e-06,9.99999e-01,9.99999e-01,9.99999e-01,9.99998e-01,4.42280e-06,9.99999e-01
4.080602003e-01,5.64232e-06,9.99999e-01,9.99999e-01,9.99999e-01,9.99999e-01,5.64232e-06,9.99999e-01
4.101005013e-01,7.16357e-06,9.99999e-01,9.99999e-01,9.99999e-01,9.99999e-01,7.16357e-06,9.99999e-01
4.121510038e-01,9.05218e-06,9.99999e-01,9.99999e-01,9.99999e-01,9.99998e-01,9.05219e-06,9.99999e-01
4.142117588e-01,1.13859e-05,9.99999e-01,9.99999e-01,9.99999e-01,9.99992e-01,1.13860e-05,9.99999e-01
4.162828176e-01,1.42563e-05,9.99999e-01,9.99999e-01,9.99999e-01,9.99968e-01,1.42567e-05,9.99999e-01
4.183642317e-01,1.77718e-05,9.99999e-01,9.99999e-01,9.99999e-01,9.99981e-01,1.77721e-05,9.99999e-01
4.204560528e-01,2.20579e-05,9.99999e-01,9.99999e-01,9.99999e-01,9.99988e-01,2.20581e-05,9.99999e-01
4.225583331e-01,2.72611e-05,9.99999e-01,9.99999e-01,9.99999e-01,9.99995e-01,2.72612e-05,9.99999e-01
4.246711247e-01,3.35508e-05,9.99999e-01,9.99999e-01,9.99999e-01,9.99996e-01,3.35509e-05,9.99999e-01
4.267944804e-01,4.11226e-05,9.99999e-01,9.99999e-01,9.99999e-01,9.99994e-01,4.11228e-05,9.99999e-01
4.289284528e-01,5.02011e-05,9.99999e-01,9.99999e-01,9.99999e-01,9.99995e-01,5.02013e-05,9.99999e-01
4.310730950e-01,6.10430e-05,9.99999e-01,9.99999e-01,9.99999e-01,9.99997e-01,6.10431e-05,9.99999e-01
4.332284605e-01,7.39402e-05,9.99999e-01,9.99999e-01,9.99999e-01,9.99999e-01,7.39402e-05,9.99999e-01
4.353946028e-01,8.92238e-05,9.99999e-01,9.99999e-01,9.99999e-01,9.99999e-01,8.92238e-05,9.99999e-01
4.375715758e-01,1.07267e-04,9.99999e-01,9.99999e-01,9.99999e-01,9.99996e-01,1.07268e-04,9.99999e-01
4.397594337e-01,1.28489e-04,9.99999e-01,9.99999e-01,9.99999e-01,9.99971e-01,1.28492e-04,9.99999e-01
4.419582309e-01,1.53347e-04,9.99999e-01,9.99999e-01,9.99999e-01,9.99857e-01,1.53368e-04,9.99999e-01
4.441680220e-01,1.82402e-04,9.99999e-01,9.99999e-01,9.99999e-01,9.99891e-01,1.82422e-04,9.99999e-01
4.463888621e-01,2.16213e-04,9.99999e-01,9.99999e-01,9.99999e-01,9.99886e-01,2.16237e-04,9.99999e-01
4.486208064e-01,2.55443e-04,9.99999e-01,9.99999e-01,9.99999e-01,9.99929e-01,2.55461e-04,9.99999e-01
4.508639105e-01,3.00798e-04,9.99999e-01,9.99999e-01,9.99999e-01,9.99966e-01,3.00807e-04,9.99999e-01
4.531182300e-01,3.53058e-04,9.99999e-01,9.99999e-01,9.99999e-01,9.99986e-01,3.53062e-04,9.99999e-01
4.553838212e-01,4.13082e-04,9.99999e-01,9.99999e-01,9.99999e-01,9.99990e-01,4.13085e-04,9.99999e-01
4.576607403e-01,4.81814e-04,9.99999e-01,9.99999e-01,9.99999e-01,9.99995e-01,4.81816e-04,9.99999e-01
4.599490440e-01,5.60275e-04,9.99999e-01,9.99999e-01,9.99999e-01,9.99996e-01,5.60277e-04,9.99999e-01
4.622487892e-01,6.49575e-04,9.99999e-01,9.99999e-01,9.99999e-01,9.99999e-01,6.49575e-04,9.99999e-01
4.645600332e-01,7.50909e-04,9.99999e-01,9.99999e-01,9.99999e-01,9.99997e-01,7.50910e-04,9.99999e-01
4.668828333e-01,8.65543e-04,9.99999e-01,9.99999e-01,9.99999e-01,9.99966e-01,8.65571e-04,9.99999e-01
4.692172475e-01,9.94874e-04,9.99999e-01,9.99999e-01,9.99999e-01,9.99928e-01,9.94944e-04,9.99999e-01
4.715633337e-01,1.14046e-03,9.99999e-01,9.99999e-01,9.99999e-01,9.99953e-01,1.14051e-03,9.99999e-01
4.739211504e-01,1.30380e-03,9.99999e-01,9.99999e-01,9.99999e-01,9.99955e-01,1.30385e-03,9.99999e-01
4.762907561e-01,1.48662e-03,9.99999e-01,9.99999e-01,9.99999e-01,9.99976e-01,1.48666e-03,9.99999e-01
4.786722099e-01,1.69068e-03,9.99999e-01,9.99999e-01,9.99999e-01,9.99990e-01,1.69070e-03,9.99999e-01
4.810655710e-01,1.91786e-03,9.99999e-01,9.99999e-01,9.99999e-01,9.99996e-01,1.91787e-03,9.99999e-01
4.834708988e-01,2.17009e-03,9.99999e-01,9.99999e-01,9.99999e-01,9.99971e-01,2.17015e-03,9.99999e-01
4.858882533e-01,2.44951e-03,9.99999e-01,9.99999e-01,9.99999e-01,9.99949e-01,2.44963e-03,9.99999e-01
4.883176946e-01,2.75838e-03,9.99999e-01,9.99999e-01,9.99999e-01,9.99957e-01,2.75850e-03,9.99999e-01
4.907592831e-01,3.09891e-03,9.99999e-01,9.99999e-01,9.99999e-01,9.99961e-01,3.09903e-03,9.99999e-01
4.932130795e-01,3.47351e-03,9.99999e-01,9.99999e-01,9.99999e-01,9.99972e-01,3.47360e-03,9.99999e-01
4.956791449e-01,3.88463e-03,9.99999e-01,9.99999e-01,9.99999e-01,9.99985e-01,3.88469e-03,9.99999e-01
4.981575406e-01,4.33452e-03,9.99999e-01,9.99999e-01,9.99999e-01,9.99927e-01,4.33483e-03,9.99999e-01
5.006483283e-01,4.82576e-03,9.99999e-01,9.99999e-01,9.99999e-01,9.99812e-01,4.82667e-03,9.99998e-01
5.031515699e-01,5.35783e-03,9.99999e-01,9.99999e-01,9.99999e-01,9.99060e-01,5.36292e-03,9.99989e-01
5.056673278e-01,5.94336e-03,9.99999e-01,9.99999e-01,9.99999e-01,9.99506e-01,5.94636e-03,9.99988e-01
5.081956644e-01,6.57570e-03,9.99999e-01,9.99999e-01,9.99999e-01,9.99377e-01,6.57984e-03,9.99992e-01
5.107366428e-01,7.26321e-03,9.99999e-01,9.99999e-01,9.99999e-01,9.99579e-01,7.26626e-03,9.99998e-01
5.132903260e-01,8.00666e-03,9.99999e-01,9.99999e-01,9.99999e-01,9.99760e-01,8.00858e-03,9.99999e-01
5.158567776e-01,8.80890e-03,9.99999e-01,9.99999e-01,9.99999e-01,9.99898e-01,8.80979e-03,9.99999e-01
5.184360615e-01,9.67253e-03,9.99999e-01,9.99999e-01,9.99999e-01,9.99959e-01,9.67292e-03,9.99999e-01
5.210282418e-01,1.06009e-02,9.99999e-01,9.99999e-01,9.99999e-01,9.99984e-01,1.06010e-02,9.99999e-01
5.236333830e-01,1.15965e-02,9.99999e-01,9.99999e-01,9.99999e-01,9.99938e-01,1.15972e-02,9.99999e-01
5.262515499e-01,1.26639e-02,9.99999e-01,9.99999e-01,9.99999e-01,9.99961e-01,1.26644e-02,9.99998e-01
5.288828077e-01,1.38054e-02,9.99999e-01,9.99999e-01,9.99999e-01,9.99964e-01,1.38059e-02,9.99999e-01
5.315272217e-01,1.50241e-02,9.99999e-01,9.99999e-01,9.99999e-01,9.99968e-01,1.50246e-02,9.99999e-01
5.341848578e-01,1.63232e-02,9.99999e-01,9.99999e-01,9.99999e-01,9.99979e-01,1.63236e-02,9.99999e-01
5.368557821e-01,1.77046e-02,9.99999e-01,9.99999e-01,9.99999e-01,9.99927e-01,1.77058e-02,9.99999e-01
5.395400610e-01,1.91693e-02,9.99999e-01,9.99999e-01,9.99999e-01,9.99739e-01,1.91744e-02,9.99997e-01
5.422377613e-01,2.07250e-02,9.99999e-01,9.99999e-01,9.99999e-01,9.99669e-01,2.07320e-02,9.99993e-01
5.449489501e-01,2.23746e-02,9.99999e-01,9.99999e-01,9.99999e-01,9.99689e-01,2.23816e-02,9.99993e-01
5.476736949e-01,2.41194e-02,9.99999e-01,9.99999e-01,9.99999e-01,9.99727e-01,2.41260e-02,9.99996e-01
5.504120634e-01,2.59627e-02,9.99999e-01,9.99999e-01,9.99999e-01,9.99802e-01,2.59678e-02,9.99998e-01
5.531641237e-01,2.79069e-02,9.99999e-01,9.99999e-01,9.99999e-01,9.99900e-01,2.79096e-02,9.99999e-01
5.559299443e-01,2.99525e-02,9.99999e-01,9.99999e-01,9.99999e-01,9.99951e-01,2.99540e-02,9.99999e-01
5.587095940e-01,3.21022e-02,9.99999e-01,9.99999e-01,9.99999e-01,9.99969e-01,3.21032e-02,9.99999e-01
5.615031420e-01,3.43584e-02,9.99999e-01,9.99999e-01,9.99999e-01,9.99965e-01,3.43596e-02,9.99999e-01
5.643106577e-01,3.67238e-02,9.99999e-01,9.99999e-01,9.99999e-01,9.99960e-01,3.67252e-02,9.99999e-01
5.671322110e-01,3.91834e-02,9.99999e-01,9.99999e-01,9.99999e-01,9.99526e-01,3.92021e-02,9.99995e-01
5.699678720e-01,4.17713e-02,9.99999e-01,9.99999e-01,9.99999e-01,9.99512e-01,4.17922e-02,9.99986e-01
5.728177114e-01,4.44738e-02,9.99999e-01,9.99999e-01,9.99999e-01,9.99485e-01,4.44971e-02,9.99989e-01
5.756818000e-01,4.72959e-02,9.99999e-01,9.99999e-01,9.99999e-01,9.99528e-01,4.73185e-02,9.99993e-01
5.785602090e-01,5.02370e-02,9.99999e-01,9.99999e-01,9.99999e-01,9.99590e-01,5.02577e-02,9.99997e-01
5.814530100e-01,5.32939e-02,9.99999e-01,9.99999e-01,9.99999e-01,9.99587e-01,5.33159e-02,9.99998e-01
5.843602750e-01,5.64661e-02,9.99999e-01,9.99999e-01,9.99999e-01,9.99503e-01,5.64943e-02,9.99996e-01
5.872820764e-01,5.95369e-02,9.99999e-01,9.99999e-01,9.99999e-01,9.95734e-01,5.97937e-02,9.99969e-01
5.902184868e-01,6.28867e-02,9.99999e-01,9.99999e-01,9.99999e-01,9.94888e-01,6.32149e-02,9.99918e-01
5.931695792e-01,6.65113e-02,9.99999e-01,9.99999e-01,9.99999e-01,9.96373e-01,6.67585e-02,9.99921e-01
5.961354271e-01,7.01425e-02,9.99999e-01,9.99999e-01,9.99999e-01,9.96036e-01,7.04247e-02,9.99954e-01
5.991161043e-01,7.39987e-02,9.99999e-01,9.99999e-01,9.99999e-01,9.97112e-01,7.42139e-02,9.99985e-01
6.021116848e-01,7.79981e-02,9.99999e-01,9.99999e-01,9.99999e-01,9.98363e-01,7.81261e-02,9.99997e-01
6.051222432e-01,8.20931e-02,9.99999e-01,9.99999e-01,9.99999e-01,9.99171e-01,8.21611e-02,9.99999e-01
6.081478544e-01,8.62877e-02,9.99999e-01,9.99999e-01,9.99999e-01,9.99642e-01,8.63186e-02,9.99999e-01
6.111885937e-01,9.05844e-02,9.99999e-01,9.99999e-01,9.99999e-01,9.99848e-01,9.05980e-02,9.99999e-01
6.142445367e-01,9.49924e-02,9.99999e-01,9.99999e-01,9.99999e-01,9.99932e-01,9.49988e-02,9.99999e-01
6.173157594e-01,9.95164e-02,9.99999e-01,9.99999e-01,9.99999e-01,9.99962e-01,9.95201e-02,9.99999e-01
6.204023382e-01,1.04158e-01,9.99999e-01,9.99999e-01,9.99999e-01,9.99967e-01,1.04161e-01,9.99999e-01
6.235043498e-01,1.08904e-01,9.99999e-01,9.99999e-01,9.99999e-01,9.99857e-01,1.08920e-01,9.99999e-01
6.266218716e-01,1.13711e-01,9.99999e-01,9.99999e-01,9.99999e-01,9.99261e-01,1.13796e-01,9.99994e-01
6.297549810e-01,1.18754e-01,9.99999e-01,9.99999e-01,9.99999e-01,9.99728e-01,1.18787e-01,9.99989e-01
6.329037559e-01,1.23826e-01,9.99999e-01,9.99999e-01,9.99999e-01,9.99466e-01,1.23893e-01,9.99991e-01
6.360682746e-01,1.29051e-01,9.99999e-01,9.99999e-01,9.99999e-01,9.99542e-01,1.29110e-01,9.99994e-01
6.392486160e-01,1.34358e-01,9.99999e-01,9.99999e-01,9.99999e-01,9.99409e-01,1.34438e-01,9.99997e-01
6.424448591e-01,1.39761e-01,9.99999e-01,9.99999e-01,9.99999e-01,9.99201e-01,1.39873e-01,9.99995e-01
6.456570834e-01,1.44874e-01,9.99999e-01,9.99999e-01,9.99999e-01,9.96298e-01,1.45415e-01,9.99977e-01
6.488853688e-01,1.50647e-01,9.99999e-01,9.99999e-01,9.99999e-01,9.97324e-01,1.51060e-01,9.99942e-01
6.521297956e-01,1.56372e-01,9.99999e-01,9.99999e-01,9.99999e-01,9.97273e-01,1.56806e-01,9.99952e-01
6.553904446e-01,1.62202e-01,9.99999e-01,9.99999e-01,9.99999e-01,9.97270e-01,1.62651e-01,9.99964e-01
6.586673968e-01,1.68198e-01,9.99999e-01,9.99999e-01,9.99999e-01,9.97674e-01,1.68592e-01,9.99987e-01
6.619607338e-01,1.74399e-01,9.99999e-01,9.99999e-01,9.99999e-01,9.98704e-01,1.74626e-01,9.99997e-01
6.652705375e-01,1.80610e-01,9.99999e-01,9.99999e-01,9.99999e-01,9.99222e-01,1.80750e-01,9.99998e-01
6.685968902e-01,1.86900e-01,9.99999e-01,9.99999e-01,9.99999e-01,9.99669e-01,1.86962e-01,9.99999e-01
6.719398746e-01,1.93226e-01,9.99999e-01,9.99999e-01,9.99999e-01,9.99832e-01,1.93258e-01,9.99999e-01
6.752995740e-01,1.99618e-01,9.99999e-01,9.99999e-01,9.99999e-01,9.99911e-01,1.99636e-01,9.99999e-01
6.786760719e-01,2.06064e-01,9.99999e-01,9.99999e-01,9.99999e-01,9.99867e-01,2.06092e-01,9.99999e-01
6.820694522e-01,2.12574e-01,9.99999e-01,9.99999e-01,9.99999e-01,9.99771e-01,2.12623e-01,9.99998e-01
6.854797995e-01,2.19161e-01,9.99999e-01,9.99999e-01,9.99999e-01,9.99708e-01,2.19225e-01,9.99996e-01
6.889071985e-01,2.25734e-01,9.99999e-01,9.99999e-01,9.99999e-01,9.99283e-01,2.25897e-01,9.99993e-01
6.923517345e-01,2.29939e-01,9.99999e-01,9.99999e-01,9.99999e-01,9.88474e-01,2.32633e-01,9.99944e-01
6.958134932e-01,2.38000e-01,9.99999e-01,9.99999e-01,9.99999e-01,9.94138e-01,2.39432e-01,9.99877e-01
6.992925606e-01,2.44857e-01,9.99999e-01,9.99999e-01,9.99999e-01,9.94294e-01,2.46289e-01,9.99889e-01
7.027890234e-01,2.51414e-01,9.99999e-01,9.99999e-01,9.99999e-01,9.93025e-01,2.53201e-01,9.99915e-01
7.063029686e-01,2.58626e-01,9.99999e-01,9.99999e-01,9.99999e-01,9.94128e-01,2.60164e-01,9.99957e-01
7.098344834e-01,2.65665e-01,9.99999e-01,9.99999e-01,9.99999e-01,9.94365e-01,2.67176e-01,9.99974e-01
7.133836558e-01,2.72132e-01,9.99999e-01,9.99999e-01,9.99999e-01,9.92384e-01,2.74233e-01,9.99950e-01
7.169505741e-01,2.64557e-01,9.99999e-01,9.99999e-01,9.99999e-01,9.40737e-01,2.81332e-01,9.99614e-01
7.205353270e-01,2.79967e-01,9.99999e-01,9.99999e-01,9.99999e-01,9.71188e-01,2.88468e-01,9.99319e-01
7.241380036e-01,2.84490e-01,9.99999e-01,9.99999e-01,9.99999e-01,9.62850e-01,2.95640e-01,9.99412e-01
7.277586936e-01,2.92544e-01,9.99999e-01,9.99999e-01,9.99999e-01,9.66457e-01,3.02842e-01,9.99519e-01
7.313974871e-01,2.99041e-01,9.99999e-01,9.99999e-01,9.99999e-01,9.64638e-01,3.10073e-01,9.99774e-01
7.350544745e-01,3.11114e-01,9.99999e-01,9.99999e-01,9.99999e-01,9.80493e-01,3.17328e-01,9.99921e-01
7.387297469e-01,3.19927e-01,9.99999e-01,9.99999e-01,9.99999e-01,9.85624e-01,3.24605e-01,9.99963e-01
7.424233956e-01,3.29562e-01,9.99999e-01,9.99999e-01,9.99999e-01,9.92961e-01,3.31900e-01,9.99993e-01
7.461355126e-01,3.37758e-01,9.99999e-01,9.99999e-01,9.99999e-01,9.95722e-01,3.39210e-01,9.99998e-01
7.498661902e-01,3.45843e-01,9.99999e-01,9.99999e-01,9.99999e-01,9.98013e-01,3.46531e-01,9.99999e-01
7.536155211e-01,3.53516e-01,9.99999e-01,9.99999e-01,9.99999e-01,9.99021e-01,3.53862e-01,9.99999e-01
7.573835987e-01,3.61016e-01,9.99999e-01,9.99999e-01,9.99999e-01,9.99496e-01,3.61198e-01,9.99999e-01
7.611705167e-01,3.68422e-01,9.99999e-01,9.99999e-01,9.99999e-01,9.99686e-01,3.68537e-01,9.99999e-01
7.649763693e-01,3.75802e-01,9.99999e-01,9.99999e-01,9.99999e-01,9.99803e-01,3.75875e-01,9.99999e-01
7.688012511e-01,3.83159e-01,9.99999e-01,9.99999e-01,9.99999e-01,9.99862e-01,3.83211e-01,9.99999e-01
7.726452574e-01,3.90496e-01,9.99999e-01,9.99999e-01,9.99999e-01,9.99886e-01,3.90540e-01,9.99999e-01
7.765084837e-01,3.97797e-01,9.99999e-01,9.99999e-01,9.99999e-01,9.99837e-01,3.97861e-01,9.99999e-01
7.803910261e-01,3.87563e-01,9.99999e-01,9.99999e-01,9.57185e-01,9.99299e-01,4.05171e-01,9.99998e-01
7.842929812e-01,3.41978e-01,9.99999e-01,9.99999e-01,8.31024e-01,9.97555e-01,4.12466e-01,9.99995e-01
7.882144461e-01,3.42185e-01,9.99999e-01,9.99999e-01,8.19133e-01,9.95020e-01,4.19745e-01,9.99965e-01
7.921555184e-01,3.78752e-01,9.99999e-01,9.99999e-01,8.89396e-01,9.97283e-01,4.27004e-01,9.99940e-01
7.961162960e-01,3.99768e-01,9.99999e-01,9.99999e-01,9.25113e-01,9.95137e-01,4.34242e-01,9.99943e-01
8.000968774e-01,4.20796e-01,9.99999e-01,9.99999e-01,9.58582e-01,9.94423e-01,4.41456e-01,9.99939e-01
8.040973618e-01,4.36498e-01,9.99999e-01,9.99999e-01,9.78425e-01,9.94412e-01,4.48644e-01,9.99953e-01
8.081178486e-01,4.45524e-01,9.99999e-01,9.99999e-01,9.89992e-01,9.87352e-01,4.55804e-01,9.99953e-01
8.121584379e-01,4.37641e-01,9.99999e-01,9.99999e-01,9.96937e-01,9.48401e-01,4.62933e-01,9.99823e-01
8.162192301e-01,4.41120e-01,9.99999e-01,9.99999e-01,9.99322e-01,9.39739e-01,4.70029e-01,9.99337e-01
8.203003262e-01,4.61896e-01,9.99999e-01,9.99999e-01,9.99990e-01,9.68909e-01,4.77091e-01,9.99224e-01
8.244018279e-01,4.63538e-01,9.99999e-01,9.99999e-01,9.99999e-01,9.58083e-01,4.84116e-01,9.99382e-01
8.285238370e-01,4.72863e-01,9.99999e-01,9.99999e-01,9.99999e-01,9.63325e-01,4.91103e-01,9.99515e-01
8.326664562e-01,4.79582e-01,9.99999e-01,9.99999e-01,9.99999e-01,9.63113e-01,4.98049e-01,9.99799e-01
8.368297885e-01,4.91588e-01,9.99999e-01,9.99999e-01,9.99999e-01,9.73573e-01,5.04954e-01,9.99953e-01
8.410139374e-01,5.03730e-01,9.99999e-01,9.99999e-01,9.99999e-01,9.84227e-01,5.11816e-01,9.99972e-01
8.452190071e-01,5.14604e-01,9.99999e-01,9.99999e-01,9.99999e-01,9.92249e-01,5.18632e-01,9.99983e-01
8.494451021e-01,5.23019e-01,9.99999e-01,9.99999e-01,9.99999e-01,9.95477e-01,5.25402e-01,9.99986e-01
8.536923276e-01,5.30701e-01,9.99999e-01,9.99999e-01,9.99999e-01,9.97333e-01,5.32124e-01,9.99991e-01
8.579607893e-01,5.37907e-01,9.99999e-01,9.99999e-01,9.99999e-01,9.98351e-01,5.38796e-01,9.99997e-01
8.622505932e-01,5.44848e-01,9.99999e-01,9.99999e-01,9.99999e-01,9.98955e-01,5.45418e-01,9.99999e-01
8.665618462e-01,5.03092e-01,9.99999e-01,9.99999e-01,9.11983e-01,9.99351e-01,5.51988e-01,9.99999e-01
8.708946554e-01,3.48516e-01,9.99999e-01,9.99999e-01,6.24460e-01,9.99255e-01,5.58505e-01,9.99999e-01
8.752491287e-01,3.86281e-01,9.99999e-01,9.99999e-01,6.84379e-01,9.99004e-01,5.64968e-01,9.99998e-01
8.796253743e-01,4.63063e-01,9.99999e-01,9.99999e-01,8.11518e-01,9.98616e-01,5.71376e-01,9.99996e-01
8.840235012e-01,5.17497e-01,9.99999e-01,9.99999e-01,8.97143e-01,9.98421e-01,5.77728e-01,9.99989e-01
8.884436187e-01,5.56400e-01,9.99999e-01,9.99999e-01,9.58290e-01,9.94124e-01,5.84023e-01,9.99972e-01
8.928858368e-01,5.45732e-01,9.99999e-01,9.99999e-01,9.82856e-01,9.40659e-01,5.90260e-01,9.99842e-01
8.973502660e-01,5.33299e-01,9.99999e-01,9.99999e-01,9.95836e-01,8.98504e-01,5.96439e-01,9.99194e-01
9.018370173e-01,5.69849e-01,9.99999e-01,9.99999e-01,9.99542e-01,9.47330e-01,6.02558e-01,9.98734e-01
9.063462024e-01,5.72346e-01,9.99999e-01,9.99999e-01,9.87830e-01,9.52600e-01,6.08618e-01,9.98888e-01
9.108779334e-01,5.54249e-01,9.99999e-01,9.99999e-01,9.72997e-01,9.27494e-01,6.14617e-01,9.98844e-01
9.154323231e-01,5.65759e-01,9.99999e-01,9.99999e-01,9.93680e-01,9.18221e-01,6.20555e-01,9.99044e-01
9.200094847e-01,5.35504e-01,9.99999e-01,9.99999e-01,9.10365e-01,9.35565e-01,6.26431e-01,9.99465e-01
9.246095321e-01,4.98261e-01,9.99999e-01,9.99999e-01,8.74523e-01,8.99046e-01,6.32245e-01,9.99383e-01
9.292325798e-01,2.89213e-01,9.99999e-01,9.99999e-01,8.99279e-01,4.98858e-01,6.37997e-01,9.97029e-01
9.338787427e-01,2.40288e-01,9.99999e-01,9.99999e-01,9.03447e-01,4.12517e-01,6.43685e-01,9.89306e-01
9.385481364e-01,4.18759e-01,9.99999e-01,9.99999e-01,9.27994e-01,6.99628e-01,6.49311e-01,9.88257e-01
9.432408771e-01,3.77137e-01,9.99999e-01,9.99999e-01,9.55388e-01,6.07126e-01,6.54873e-01,9.89861e-01
9.479570815e-01,3.23214e-01,9.99999e-01,9.99999e-01,9.76805e-01,5.04456e-01,6.60372e-01,9.91740e-01
9.526968669e-01,3.92490e-01,9.99999e-01,9.99999e-01,9.88780e-01,5.98514e-01,6.65807e-01,9.94953e-01
9.574603512e-01,4.13459e-01,9.99999e-01,9.99999e-01,9.95192e-01,6.20347e-01,6.71178e-01,9.97433e-01
9.622476530e-01,4.57312e-01,9.99999e-01,9.99999e-01,9.98500e-01,6.78158e-01,6.76485e-01,9.98224e-01
9.670588912e-01,5.43715e-01,9.99999e-01,9.99999e-01,9.99551e-01,7.98819e-01,6.81728e-01,9.98836e-01
9.718941857e-01,5.95937e-01,9.99999e-01,9.99999e-01,9.99968e-01,8.68364e-01,6.86906e-01,9.99108e-01
9.767536566e-01,6.15048e-01,9.99999e-01,9.99999e-01,9.99999e-01,8.89378e-01,6.92021e-01,9.99316e-01
9.816374249e-01,6.39061e-01,9.99999e-01,9.99999e-01,9.99999e-01,9.16996e-01,6.97071e-01,9.99763e-01
9.865456120e-01,6.65033e-01,9.99999e-01,9.99999e-01,9.99999e-01,9.47308e-01,7.02058e-01,9.99950e-01
9.914783401e-01,6.83693e-01,9.99999e-01,9.99999e-01,9.99999e-01,9.67073e-01,7.06980e-01,9.99985e-01
9.964357318e-01,6.98978e-01,9.99999e-01,9.99999e-01,9.99999e-01,9.81939e-01,7.11839e-01,9.99991e-01
1.001417910e+00,7.08847e-01,9.99999e-01,9.99999e-01,9.99999e-01,9.89144e-01,7.16634e-01,9.99987e-01
1.006425000e+00,7.16869e-01,9.99999e-01,9.99999e-01,9.99999e-01,9.93782e-01,7.21366e-01,9.99982e-01
1.011457125e+00,7.23227e-01,9.99999e-01,9.99999e-01,9.99999e-01,9.96148e-01,7.26035e-01,9.99983e-01
1.016514411e+00,7.28718e-01,9.99999e-01,9.99999e-01,9.99999e-01,9.97379e-01,7.30641e-01,9.99988e-01
1.021596983e+00,7.33585e-01,9.99999e-01,9.99999e-01,9.99924e-01,9.97909e-01,7.35184e-01,9.99988e-01
1.026704968e+00,7.34918e-01,9.99999e-01,9.99999e-01,9.95208e-01,9.98368e-01,7.39665e-01,9.99992e-01
1.031838492e+00,7.01966e-01,9.99999e-01,9.99999e-01,9.44472e-01,9.98816e-01,7.44084e-01,9.99997e-01
1.036997685e+00,9.18675e-02,9.99999e-01,9.99999e-01,1.22813e-01,9.99295e-01,7.48442e-01,9.99999e-01
1.042182673e+00,5.73878e-02,9.99999e-01,9.99999e-01,7.62946e-02,9.99156e-01,7.52738e-01,9.99999e-01
1.047393587e+00,7.47904e-02,9.99999e-01,9.99999e-01,9.88985e-02,9.98883e-01,7.56973e-01,9.99999e-01
1.052630555e+00,1.02646e-03,9.99999e-01,9.99999e-01,1.35005e-03,9.98465e-01,7.61147e-01,9.99999e-01
1.057893707e+00,2.98265e-03,9.99999e-01,9.99999e-01,3.90402e-03,9.97435e-01,7.65262e-01,9.99998e-01
1.063183176e+00,1.25466e-02,9.99999e-01,9.99999e-01,1.63561e-02,9.95787e-01,7.69316e-01,9.99997e-01
1.068499092e+00,4.19237e-02,9.99999e-01,9.99999e-01,5.45254e-02,9.92966e-01,7.73312e-01,9.99994e-01
1.073841587e+00,1.23039e-01,9.99999e-01,9.99999e-01,1.59399e-01,9.91753e-01,7.77249e-01,9.99989e-01
