#,Wave/freq,Total,N2,O2,CO2,H2O,Rayleigh,CIA
4.000000000e-01,3.53623e-13,9.99999e-01,9.99999e-01,9.99999e-01,9.99944e-01,3.53643e-13,9.99999e-01
4.020000000e-01,6.23364e-13,9.99999e-01,9.99999e-01,9.99999e-01,9.99965e-01,6.23386e-13,9.99999e-01
4.040100000e-01,1.08601e-12,9.99999e-01,9.99999e-01,9.99999e-01,9.99985e-01,1.08603e-12,9.99999e-01
4.060300500e-01,1.87138e-12,9.99999e-01,9.99999e-01,9.99999e-01,9.99996e-01,1.87138e-12,9.99999e-01
4.080602003e-01,3.19018e-12,9.99999e-01,9.99999e-01,9.99999e-01,9.99998e-01,3.19019e-12,9.99999e-01
4.101005013e-01,5.38139e-12,9.99999e-01,9.99999e-01,9.99999e-01,9.99999e-01,5.38139e-12,9.99999e-01
4.121510038e-01,8.98434e-12,9.99999e-01,9.99999e-01,9.99999e-01,9.99997e-01,8.98436e-12,9.99999e-01
4.142117588e-01,1.48483e-11,9.99999e-01,9.99999e-01,9.99999e-01,9.99984e-01,1.48485e-11,9.99999e-01
4.162828176e-01,2.42963e-11,9.99999e-01,9.99999e-01,9.99999e-01,9.99931e-01,2.42979e-11,9.99999e-01
4.183642317e-01,3.93743e-11,9.99999e-01,9.99999e-01,9.99999e-01,9.99959e-01,3.93759e-11,9.99999e-01
4.204560528e-01,6.32033e-11,9.99999e-01,9.99999e-01,9.99999e-01,9.99974e-01,6.32049e-11,9.99999e-01
4.225583331e-01,1.00509e-10,9.99999e-01,9.99999e-01,9.99999e-01,9.99990e-01,1.00510e-10,9.99999e-01
4.246711247e-01,1.58376e-10,9.99999e-01,9.99999e-01,9.99999e-01,9.99991e-01,1.58377e-10,9.99999e-01
4.267944804e-01,2.47325e-10,9.99999e-01,9.99999e-01,9.99999e-01,9.99988e-01,2.47327e-10,9.99999e-01
4.289284528e-01,3.82847e-10,9.99999e-01,9.99999e-01,9.99999e-01,9.99991e-01,3.82850e-10,9.99999e-01
4.310730950e-01,5.87538e-10,9.99999e-01,9.99999e-01,9.99999e-01,9.99995e-01,5.87540e-10,9.99999e-01
4.332284605e-01,8.94070e-10,9.99999e-01,9.99999e-01,9.99999e-01,9.99998e-01,8.94071e-10,9.99999e-01
4.353946028e-01,1.34929e-09,9.99999e-01,9.99999e-01,9.99999e-01,9.99999e-01,1.34929e-09,9.99999e-01
4.375715758e-01,2.01978e-09,9.99999e-01,9.99999e-01,9.99999e-01,9.99992e-01,2.01979e-09,9.99999e-01
4.397594337e-01,2.99932e-09,9.99999e-01,9.99999e-01,9.99999e-01,9.99938e-01,2.99950e-09,9.99999e-01
4.419582309e-01,4.41838e-09,9.99999e-01,9.99999e-01,9.99999e-01,9.99688e-01,4.41976e-09,9.99999e-01
4.441680220e-01,6.46130e-09,9.99999e-01,9.99999e-01,9.99999e-01,9.99763e-01,6.46282e-09,9.99999e-01
4.463888621e-01,9.37733e-09,9.99999e-01,9.99999e-01,9.99999e-01,9.99752e-01,9.37965e-09,9.99999e-01
4.486208064e-01,1.35111e-08,9.99999e-01,9.99999e-01,9.99999e-01,9.99846e-01,1.35131e-08,9.99999e-01
4.508639105e-01,1.93269e-08,9.99999e-01,9.99999e-01,9.99999e-01,9.99928e-01,1.93283e-08,9.99999e-01
4.531182300e-01,2.74503e-08,9.99999e-01,9.99999e-01,9.99999e-01,9.99971e-01,2.74511e-08,9.99999e-01
4.553838212e-01,3.87176e-08,9.99999e-01,9.99999e-01,9.99999e-01,9.99980e-01,3.87184e-08,9.99999e-01
4.576607403e-01,5.42401e-08,9.99999e-01,9.99999e-01,9.99999e-01,9.99990e-01,5.42405e-08,9.99999e-01
4.599490440e-01,7.54808e-08,9.99999e-01,9.99999e-01,9.99999e-01,9.99993e-01,7.54813e-08,9.99999e-01
4.622487892e-01,1.04356e-07,9.99999e-01,9.99999e-01,9.99999e-01,9.99998e-01,1.04356e-07,9.99999e-01
4.645600332e-01,1.43357e-07,9.99999e-01,9.99999e-01,9.99999e-01,9.99995e-01,1.43358e-07,9.99999e-01
4.668828333e-01,1.95689e-07,9.99999e-01,9.99999e-01,9.99999e-01,9.99926e-01,1.95704e-07,9.99999e-01
4.692172475e-01,2.65484e-07,9.99999e-01,9.99999e-01,9.99999e-01,9.99844e-01,2.65525e-07,9.99999e-01
4.715633337e-01,3.58057e-07,9.99999e-01,9.99999e-01,9.99999e-01,9.99897e-01,3.58093e-07,9.99999e-01
4.739211504e-01,4.80042e-07,9.99999e-01,9.99999e-01,9.99999e-01,9.99902e-01,4.80088e-07,9.99999e-01
4.762907561e-01,6.39895e-07,9.99999e-01,9.99999e-01,9.99999e-01,9.99949e-01,6.39927e-07,9.99999e-01
4.786722099e-01,8.48137e-07,9.99999e-01,9.99999e-01,9.99999e-01,9.99979e-01,8.48154e-07,9.99999e-01
4.810655710e-01,1.11789e-06,9.99999e-01,9.99999e-01,9.99999e-01,9.99993e-01,1.11790e-06,9.99999e-01
4.834708988e-01,1.46533e-06,9.99999e-01,9.99999e-01,9.99999e-01,9.99938e-01,1.46542e-06,9.99999e-01
4.858882533e-01,1.91051e-06,9.99999e-01,9.99999e-01,9.99999e-01,9.99890e-01,1.91072e-06,9.99999e-01
4.883176946e-01,2.47810e-06,9.99999e-01,9.99999e-01,9.99999e-01,9.99907e-01,2.47833e-06,9.99999e-01
4.907592831e-01,3.19780e-06,9.99999e-01,9.99999e-01,9.99999e-01,9.99916e-01,3.19807e-06,9.99999e-01
4.932130795e-01,4.10586e-06,9.99999e-01,9.99999e-01,9.99999e-01,9.99940e-01,4.10610e-06,9.99999e-01
4.956791449e-01,5.24583e-06,9.99999e-01,9.99999e-01,9.99999e-01,9.99968e-01,5.24599e-06,9.99999e-01
4.981575406e-01,6.66893e-06,9.99999e-01,9.99999e-01,9.99999e-01,9.99842e-01,6.66998e-06,9.99999e-01
5.006483283e-01,8.43687e-06,9.99999e-01,9.99999e-01,9.99999e-01,9.99589e-01,8.44035e-06,9.99996e-01
5.031515699e-01,1.06090e-05,9.99999e-01,9.99999e-01,9.99999e-01,9.97944e-01,1.06311e-05,9.99977e-01
5.056673278e-01,1.33148e-05,9.99999e-01,9.99999e-01,9.99999e-01,9.98919e-01,1.33295e-05,9.99974e-01
5.081956644e-01,1.66155e-05,9.99999e-01,9.99999e-01,9.99999e-01,9.98638e-01,1.66384e-05,9.99984e-01
5.107366428e-01,2.06589e-05,9.99999e-01,9.99999e-01,9.99999e-01,9.99081e-01,2.06779e-05,9.99996e-01
5.132903260e-01,2.55746e-05,9.99999e-01,9.99999e-01,9.99999e-01,9.99475e-01,2.55881e-05,9.99999e-01
5.158567776e-01,3.15242e-05,9.99999e-01,9.99999e-01,9.99999e-01,9.99778e-01,3.15312e-05,9.99999e-01
5.184360615e-01,3.86912e-05,9.99999e-01,9.99999e-01,9.99999e-01,9.99911e-01,3.86946e-05,9.99999e-01
5.210282418e-01,4.72924e-05,9.99999e-01,9.99999e-01,9.99999e-01,9.99966e-01,4.72940e-05,9.99999e-01
5.236333830e-01,5.75679e-05,9.99999e-01,9.99999e-01,9.99999e-01,9.99865e-01,5.75757e-05,9.99998e-01
5.262515499e-01,6.98149e-05,9.99999e-01,9.99999e-01,9.99999e-01,9.99916e-01,6.98208e-05,9.99998e-01
5.288828077e-01,8.43417e-05,9.99999e-01,9.99999e-01,9.99999e-01,9.99922e-01,8.43483e-05,9.99998e-01
5.315272217e-01,1.01512e-04,9.99999e-01,9.99999e-01,9.99999e-01,9.99932e-01,1.01519e-04,9.99999e-01
5.341848578e-01,1.21733e-04,9.99999e-01,9.99999e-01,9.99999e-01,9.99955e-01,1.21738e-04,9.99999e-01
5.368557821e-01,1.45439e-04,9.99999e-01,9.99999e-01,9.99999e-01,9.99842e-01,1.45462e-04,9.99999e-01
5.395400610e-01,1.73099e-04,9.99999e-01,9.99999e-01,9.99999e-01,9.99428e-01,1.73199e-04,9.99994e-01
5.422377613e-01,2.05363e-04,9.99999e-01,9.99999e-01,9.99999e-01,9.99276e-01,2.05515e-04,9.99986e-01
5.449489501e-01,2.42869e-04,9.99999e-01,9.99999e-01,9.99999e-01,9.99320e-01,2.43038e-04,9.99985e-01
5.476736949e-01,2.86289e-04,9.99999e-01,9.99999e-01,9.99999e-01,9.99405e-01,2.86461e-04,9.99992e-01
5.504120634e-01,3.36402e-04,9.99999e-01,9.99999e-01,9.99999e-01,9.99567e-01,3.36548e-04,9.99997e-01
5.531641237e-01,3.94051e-04,9.99999e-01,9.99999e-01,9.99999e-01,9.99782e-01,3.94136e-04,9.99999e-01
5.559299443e-01,4.60093e-04,9.99999e-01,9.99999e-01,9.99999e-01,9.99894e-01,4.60141e-04,9.99999e-01
5.587095940e-01,5.35523e-04,9.99999e-01,9.99999e-01,9.99999e-01,9.99933e-01,5.35559e-04,9.99999e-01
5.615031420e-01,6.21426e-04,9.99999e-01,9.99999e-01,9.99999e-01,9.99925e-01,6.21471e-04,9.99999e-01
5.643106577e-01,7.18988e-04,9.99999e-01,9.99999e-01,9.99999e-01,9.99914e-01,7.19050e-04,9.99998e-01
5.671322110e-01,8.28687e-04,9.99999e-01,9.99999e-01,9.99999e-01,9.98960e-01,8.29556e-04,9.99990e-01
5.699678720e-01,9.53304e-04,9.99999e-01,9.99999e-01,9.99999e-01,9.98934e-01,9.54347e-04,9.99971e-01
5.728177114e-01,1.09362e-03,9.99999e-01,9.99999e-01,9.99999e-01,9.98873e-01,1.09487e-03,9.99976e-01
5.756818000e-01,1.25138e-03,9.99999e-01,9.99999e-01,9.99999e-01,9.98969e-01,1.25269e-03,9.99986e-01
5.785602090e-01,1.42816e-03,9.99999e-01,9.99999e-01,9.99999e-01,9.99103e-01,1.42945e-03,9.99995e-01
5.814530100e-01,1.62543e-03,9.99999e-01,9.99999e-01,9.99999e-01,9.99097e-01,1.62690e-03,9.99997e-01
5.843602750e-01,1.84489e-03,9.99999e-01,9.99999e-01,9.99999e-01,9.98913e-01,1.84690e-03,9.99993e-01
5.872820764e-01,2.07179e-03,9.99999e-01,9.99999e-01,9.99999e-01,9.90683e-01,2.09141e-03,9.99934e-01
5.902184868e-01,2.33571e-03,9.99999e-01,9.99999e-01,9.99999e-01,9.88845e-01,2.36247e-03,9.99822e-01
5.931695792e-01,2.64072e-03,9.99999e-01,9.99999e-01,9.99999e-01,9.92081e-01,2.66225e-03,9.99828e-01
5.961354271e-01,2.96681e-03,9.99999e-01,9.99999e-01,9.99999e-01,9.91344e-01,2.99300e-03,9.99901e-01
5.991161043e-01,3.33578e-03,9.99999e-01,9.99999e-01,9.99999e-01,9.93689e-01,3.35707e-03,9.99969e-01
6.021116848e-01,3.74343e-03,9.99999e-01,9.99999e-01,9.99999e-01,9.96420e-01,3.75689e-03,9.99996e-01
6.051222432e-01,4.18740e-03,9.99999e-01,9.99999e-01,9.99999e-01,9.98188e-01,4.19500e-03,9.99999e-01
6.081478544e-01,4.67034e-03,9.99999e-01,9.99999e-01,9.99999e-01,9.99217e-01,4.67400e-03,9.99999e-01
6.111885937e-01,5.19487e-03,9.99999e-01,9.99999e-01,9.99999e-01,9.99669e-01,5.19658e-03,9.99999e-01
6.142445367e-01,5.76466e-03,9.99999e-01,9.99999e-01,9.99999e-01,9.99851e-01,5.76551e-03,9.99999e-01
6.173157594e-01,6.38310e-03,9.99999e-01,9.99999e-01,9.99999e-01,9.99917e-01,6.38362e-03,9.99999e-01
6.204023382e-01,7.05330e-03,9.99999e-01,9.99999e-01,9.99999e-01,9.99929e-01,7.05379e-03,9.99999e-01
6.235043498e-01,7.77652e-03,9.99999e-01,9.99999e-01,9.99999e-01,9.99687e-01,7.77896e-03,9.99998e-01
6.266218716e-01,8.54817e-03,9.99999e-01,9.99999e-01,9.99999e-01,9.98382e-01,8.56211e-03,9.99988e-01
6.297549810e-01,9.40048e-03,9.99999e-01,9.99999e-01,9.99999e-01,9.99406e-01,9.40627e-03,9.99976e-01
6.329037559e-01,1.03023e-02,9.99999e-01,9.99999e-01,9.99999e-01,9.98832e-01,1.03145e-02,9.99981e-01
6.360682746e-01,1.12784e-02,9.99999e-01,9.99999e-01,9.99999e-01,9.98999e-01,1.12898e-02,9.99988e-01
6.392486160e-01,1.23193e-02,9.99999e-01,9.99999e-01,9.99999e-01,9.98707e-01,1.23353e-02,9.99994e-01
6.424448591e-01,1.34305e-02,9.99999e-01,9.99999e-01,9.99999e-01,9.98251e-01,1.34541e-02,9.99990e-01
6.456570834e-01,1.45300e-02,9.99999e-01,9.99999e-01,9.99999e-01,9.91906e-01,1.46492e-02,9.99950e-01
6.488853688e-01,1.58287e-02,9.99999e-01,9.99999e-01,9.99999e-01,9.94156e-01,1.59237e-02,9.99875e-01
6.521297956e-01,1.71760e-02,9.99999e-01,9.99999e-01,9.99999e-01,9.94046e-01,1.72806e-02,9.99896e-01
6.553904446e-01,1.86097e-02,9.99999e-01,9.99999e-01,9.99999e-01,9.94032e-01,1.87228e-02,9.99923e-01
6.586673968e-01,2.01499e-02,9.99999e-01,9.99999e-01,9.99999e-01,9.94917e-01,2.02533e-02,9.99973e-01
6.619607338e-01,2.18129e-02,9.99999e-01,9.99999e-01,9.99999e-01,9.97165e-01,2.18750e-02,9.99994e-01
6.652705375e-01,2.35503e-02,9.99999e-01,9.99999e-01,9.99999e-01,9.98298e-01,2.35905e-02,9.99996e-01
6.685968902e-01,2.53844e-02,9.99999e-01,9.99999e-01,9.99999e-01,9.99277e-01,2.54027e-02,9.99999e-01
6.719398746e-01,2.73042e-02,9.99999e-01,9.99999e-01,9.99999e-01,9.99633e-01,2.73141e-02,9.99999e-01
6.752995740e-01,2.93217e-02,9.99999e-01,9.99999e-01,9.99999e-01,9.99806e-01,2.93274e-02,9.99999e-01
6.786760719e-01,3.14356e-02,9.99999e-01,9.99999e-01,9.99999e-01,9.99709e-01,3.14447e-02,9.99999e-01
6.820694522e-01,3.36517e-02,9.99999e-01,9.99999e-01,9.99999e-01,9.99500e-01,3.36686e-02,9.99996e-01
6.854797995e-01,3.59780e-02,9.99999e-01,9.99999e-01,9.99999e-01,9.99362e-01,3.60011e-02,9.99994e-01
6.889071985e-01,3.83644e-02,9.99999e-01,9.99999e-01,9.99999e-01,9.97934e-01,3.84443e-02,9.99985e-01
6.923517345e-01,3.99641e-02,9.99999e-01,9.99999e-01,9.99999e-01,9.74847e-01,4.10002e-02,9.99879e-01
6.958134932e-01,4.31023e-02,9.99999e-01,9.99999e-01,9.99999e-01,9.87256e-01,4.36703e-02,9.99732e-01
6.992925606e-01,4.58669e-02,9.99999e-01,9.99999e-01,9.99999e-01,9.87546e-01,4.64565e-02,9.99759e-01
7.027890234e-01,4.86011e-02,9.99999e-01,9.99999e-01,9.99999e-01,9.84804e-01,4.93600e-02,9.99816e-01
7.063029686e-01,5.17066e-02,9.99999e-01,9.99999e-01,9.99999e-01,9.87190e-01,5.23823e-02,9.99908e-01
7.098344834e-01,5.48388e-02,9.99999e-01,9.99999e-01,9.99999e-01,9.87705e-01,5.55244e-02,9.99945e-01
7.133836558e-01,5.78051e-02,9.99999e-01,9.99999e-01,9.99999e-01,9.83397e-01,5.87872e-02,9.99892e-01
7.169505741e-01,5.44063e-02,9.99999e-01,9.99999e-01,9.99999e-01,8.75835e-01,6.21717e-02,9.99155e-01
7.205353270e-01,6.15466e-02,9.99999e-01,9.99999e-01,9.99999e-01,9.38487e-01,6.56784e-02,9.98510e-01
7.241380036e-01,6.37399e-02,9.99999e-01,9.99999e-01,9.99999e-01,9.20849e-01,6.93076e-02,9.98713e-01
7.277586936e-01,6.77580e-02,9.99999e-01,9.99999e-01,9.99999e-01,9.28407e-01,7.30598e-02,9.98948e-01
7.313974871e-01,7.10916e-02,9.99999e-01,9.99999e-01,9.99999e-01,9.24502e-01,7.69350e-02,9.99507e-01
7.350544745e-01,7.75115e-02,9.99999e-01,9.99999e-01,9.99999e-01,9.57887e-01,8.09330e-02,9.99828e-01
7.387297469e-01,8.23965e-02,9.99999e-01,9.99999e-01,9.99999e-01,9.68834e-01,8.50536e-02,9.99921e-01
7.424233956e-01,8.79263e-02,9.99999e-01,9.99999e-01,9.99999e-01,9.84669e-01,8.92964e-02,9.99985e-01
7.461355126e-01,9.27860e-02,9.99999e-01,9.99999e-01,9.99999e-01,9.90662e-01,9.36607e-02,9.99997e-01
7.498661902e-01,9.77197e-02,9.99999e-01,9.99999e-01,9.99999e-01,9.95659e-01,9.81458e-02,9.99998e-01
7.536155211e-01,1.02531e-01,9.99999e-01,9.99999e-01,9.99999e-01,9.97860e-01,1.02751e-01,9.99998e-01
7.573835987e-01,1.07356e-01,9.99999e-01,9.99999e-01,9.99999e-01,9.98898e-01,1.07474e-01,9.99999e-01
7.611705167e-01,1.12238e-01,9.99999e-01,9.99999e-01,9.99999e-01,9.99315e-01,1.12315e-01,9.99999e-01
7.649763693e-01,1.17222e-01,9.99999e-01,9.99999e-01,9.99999e-01,9.99569e-01,1.17272e-01,9.99999e-01
7.688012511e-01,1.22307e-01,9.99999e-01,9.99999e-01,9.99999e-01,9.99699e-01,1.22343e-01,9.99999e-01
7.726452574e-01,1.27496e-01,9.99999e-01,9.99999e-01,9.99999e-01,9.99752e-01,1.27527e-01,9.99999e-01
7.765084837e-01,1.32775e-01,9.99999e-01,9.99999e-01,9.99999e-01,9.99645e-01,1.32822e-01,9.99999e-01
7.803910261e-01,1.26719e-01,9.99999e-01,9.99999e-01,9.18061e-01,9.98465e-01,1.38225e-01,9.99997e-01
7.842929812e-01,9.68920e-02,9.99999e-01,9.99999e-01,6.77339e-01,9.94651e-01,1.43735e-01,9.99989e-01
7.882144461e-01,9.75551e-02,9.99999e-01,9.99999e-01,6.59771e-01,9.89130e-01,1.49349e-01,9.99924e-01
7.921555184e-01,1.19643e-01,9.99999e-01,9.99999e-01,7.76003e-01,9.94067e-01,1.55065e-01,9.99869e-01
7.961162960e-01,1.34342e-01,9.99999e-01,9.99999e-01,8.43905e-01,9.89379e-01,1.60881e-01,9.99875e-01
8.000968774e-01,1.50225e-01,9.99999e-01,9.99999e-01,9.11799e-01,9.87828e-01,1.66793e-01,9.99867e-01
8.040973618e-01,1.62742e-01,9.99999e-01,9.99999e-01,9.53461e-01,9.87804e-01,1.72799e-01,9.99899e-01
8.081178486e-01,1.70197e-01,9.99999e-01,9.99999e-01,9.78236e-01,9.72532e-01,1.78896e-01,9.99897e-01
8.121584379e-01,1.63777e-01,9.99999e-01,9.99999e-01,9.93321e-01,8.91023e-01,1.85082e-01,9.99614e-01
8.162192301e-01,1.66719e-01,9.99999e-01,9.99999e-01,9.98519e-01,8.73755e-01,1.91353e-01,9.98550e-01
8.203003262e-01,1.84414e-01,9.99999e-01,9.99999e-01,9.99979e-01,9.34361e-01,1.97707e-01,9.98303e-01
8.244018279e-01,1.86068e-01,9.99999e-01,9.99999e-01,9.99999e-01,9.12709e-01,2.04139e-01,9.98649e-01
8.285238370e-01,1.93959e-01,9.99999e-01,9.99999e-01,9.99999e-01,9.21750e-01,2.10648e-01,9.98939e-01
8.326664562e-01,2.00074e-01,9.99999e-01,9.99999e-01,9.99999e-01,9.21430e-01,2.17230e-01,9.99560e-01
8.368297885e-01,2.11139e-01,9.99999e-01,9.99999e-01,9.99999e-01,9.43181e-01,2.23881e-01,9.99899e-01
8.410139374e-01,2.22708e-01,9.99999e-01,9.99999e-01,9.99999e-01,9.65840e-01,2.30598e-01,9.99940e-01
8.452190071e-01,2.33364e-01,9.99999e-01,9.99999e-01,9.99999e-01,9.83123e-01,2.37378e-01,9.99964e-01
8.494451021e-01,2.41799e-01,9.99999e-01,9.99999e-01,9.99999e-01,9.90125e-01,2.44218e-01,9.99971e-01
8.536923276e-01,2.49646e-01,9.99999e-01,9.99999e-01,9.99999e-01,9.94174e-01,2.51113e-01,9.99982e-01
8.579607893e-01,2.57131e-01,9.99999e-01,9.99999e-01,9.99999e-01,9.96395e-01,2.58062e-01,9.99995e-01
8.622505932e-01,2.64454e-01,9.99999e-01,9.99999e-01,9.99999e-01,9.97715e-01,2.65060e-01,9.99998e-01
8.665618462e-01,2.36577e-01,9.99999e-01,9.99999e-01,8.70595e-01,9.98579e-01,2.72104e-01,9.99999e-01
8.708946554e-01,1.05745e-01,9.99999e-01,9.99999e-01,3.79330e-01,9.98369e-01,2.79190e-01,9.99998e-01
8.752491287e-01,1.28498e-01,9.99999e-01,9.99999e-01,4.49718e-01,9.97821e-01,2.86315e-01,9.99997e-01
8.796253743e-01,1.87050e-01,9.99999e-01,9.99999e-01,6.39163e-01,9.96971e-01,2.93476e-01,9.99992e-01
8.840235012e-01,2.36762e-01,9.99999e-01,9.99999e-01,7.90087e-01,9.96545e-01,3.00670e-01,9.99978e-01
8.884436187e-01,2.77048e-01,9.99999e-01,9.99999e-01,9.11259e-01,9.87177e-01,3.07892e-01,9.99939e-01
8.928858368e-01,2.65860e-01,9.99999e-01,9.99999e-01,9.62918e-01,8.75632e-01,3.15141e-01,9.99655e-01
8.973502660e-01,2.53191e-01,9.99999e-01,9.99999e-01,9.90925e-01,7.93510e-01,3.22411e-01,9.98237e-01
9.018370173e-01,2.92281e-01,9.99999e-01,9.99999e-01,9.99000e-01,8.89784e-01,3.29701e-01,9.97230e-01
9.063462024e-01,2.95303e-01,9.99999e-01,9.99999e-01,9.73839e-01,9.00048e-01,3.37007e-01,9.97566e-01
9.108779334e-01,2.75380e-01,9.99999e-01,9.99999e-01,9.41999e-01,8.49576e-01,3.44325e-01,9.97471e-01
9.154323231e-01,2.87817e-01,9.99999e-01,9.99999e-01,9.86271e-01,8.30969e-01,3.51653e-01,9.97909e-01
9.200094847e-01,2.61843e-01,9.99999e-01,9.99999e-01,8.29210e-01,8.65708e-01,3.58988e-01,9.98829e-01
9.246095321e-01,2.20761e-01,9.99999e-01,9.99999e-01,7.47160e-01,7.98387e-01,3.66327e-01,9.98651e-01
9.292325798e-01,7.50849e-02,9.99999e-01,9.99999e-01,7.96125e-01,2.42484e-01,3.73666e-01,9.93506e-01
9.338787427e-01,5.13790e-02,9.99999e-01,9.99999e-01,8.02631e-01,1.64954e-01,3.81002e-01,9.76727e-01
9.385481364e-01,1.57676e-01,9.99999e-01,9.99999e-01,8.49834e-01,4.80645e-01,3.88334e-01,9.74460e-01
9.432408771e-01,1.30424e-01,9.99999e-01,9.99999e-01,9.05077e-01,3.68145e-01,3.95658e-01,9.77927e-01
9.479570815e-01,9.59120e-02,9.99999e-01,9.99999e-01,9.49958e-01,2.53658e-01,4.02971e-01,9.81998e-01
9.526968669e-01,1.38621e-01,9.99999e-01,9.99999e-01,9.75637e-01,3.48702e-01,4.10270e-01,9.88981e-01
9.574603512e-01,1.51234e-01,9.99999e-01,9.99999e-01,9.89514e-01,3.67497e-01,4.17554e-01,9.94387e-01
9.622476530e-01,1.85282e-01,9.99999e-01,9.99999e-01,9.96723e-01,4.39075e-01,4.24820e-01,9.96115e-01
9.670588912e-01,2.66647e-01,9.99999e-01,9.99999e-01,9.99019e-01,6.19251e-01,4.32065e-01,9.97453e-01
9.718941857e-01,3.22747e-01,9.99999e-01,9.99999e-01,9.99932e-01,7.36184e-01,4.39286e-01,9.98048e-01
9.767536566e-01,3.45582e-01,9.99999e-01,9.99999e-01,9.99999e-01,7.75169e-01,4.46482e-01,9.98503e-01
9.816374249e-01,3.75405e-01,9.99999e-01,9.99999e-01,9.99999e-01,8.27948e-01,4.53650e-01,9.99481e-01
9.865456120e-01,4.09381e-01,9.99999e-01,9.99999e-01,9.99999e-01,8.88529e-01,4.60789e-01,9.99891e-01
9.914783401e-01,4.34847e-01,9.99999e-01,9.99999e-01,9.99999e-01,9.29396e-01,4.67895e-01,9.99969e-01
9.964357318e-01,4.56396e-01,9.99999e-01,9.99999e-01,9.99999e-01,9.60915e-01,4.74968e-01,9.99982e-01
1.001417910e+00,4.70616e-01,9.99999e-01,9.99999e-01,9.99999e-01,9.76399e-01,4.82004e-01,9.99972e-01
1.006425000e+00,4.82352e-01,9.99999e-01,9.99999e-01,9.99999e-01,9.86436e-01,4.89003e-01,9.99961e-01
1.011457125e+00,4.91773e-01,9.99999e-01,9.99999e-01,9.99999e-01,9.91589e-01,4.95962e-01,9.99964e-01
1.016514411e+00,4.99986e-01,9.99999e-01,9.99999e-01,9.99999e-01,9.94271e-01,5.02879e-01,9.99974e-01
1.021596983e+00,5.07328e-01,9.99999e-01,9.99999e-01,9.99834e-01,9.95429e-01,5.09754e-01,9.99975e-01
1.026704968e+00,5.09362e-01,9.99999e-01,9.99999e-01,9.89554e-01,9.96431e-01,5.16584e-01,9.99984e-01
1.031838492e+00,4.73956e-01,9.99999e-01,9.99999e-01,9.07813e-01,9.97412e-01,5.23368e-01,9.99994e-01
1.036997685e+00,3.05093e-02,9.99999e-01,9.99999e-01,5.76208e-02,9.98457e-01,5.30104e-01,9.99998e-01
1.042182673e+00,3.42336e-03,9.99999e-01,9.99999e-01,6.38667e-03,9.98152e-01,5.36792e-01,9.99999e-01
1.047393587e+00,7.81078e-03,9.99999e-01,9.99999e-01,1.44026e-02,9.97556e-01,5.43429e-01,9.99999e-01
1.052630555e+00,2.43742e-06,9.99999e-01,9.99999e-01,4.44108e-06,9.96642e-01,5.50015e-01,9.99998e-01
1.057893707e+00,9.35925e-06,9.99999e-01,9.99999e-01,1.68676e-05,9.94389e-01,5.56548e-01,9.99997e-01
1.063183176e+00,1.58870e-04,9.99999e-01,9.99999e-01,2.83723e-04,9.90797e-01,5.63028e-01,9.99994e-01
1.068499092e+00,1.27916e-03,9.99999e-01,9.99999e-01,2.27042e-03,9.84668e-01,5.69452e-01,9.99989e-01
1.073841587e+00,1.15122e-02,9.99999e-01,9.99999e-01,2.02632e-02,9.82046e-01,5.75821e-01,9.99976e-01
