#,Wave/freq,Total,N2,O2,CO2,H2O,Rayleigh,CIA
4.000000000e-01,1.70366e-03,9.99999e-01,9.99999e-01,9.99999e-01,9.99987e-01,1.70368e-03,9.99999e-01
4.020000000e-01,1.93253e-03,9.99999e-01,9.99999e-01,9.99999e-01,9.99991e-01,1.93255e-03,9.99999e-01
4.040100000e-01,2.18643e-03,9.99999e-01,9.99999e-01,9.99999e-01,9.99996e-01,2.18643e-03,9.99999e-01
4.060300500e-01,2.46765e-03,9.99999e-01,9.99999e-01,9.99999e-01,9.99998e-01,2.46765e-03,9.99999e-01
4.080602003e-01,2.77838e-03,9.99999e-01,9.99999e-01,9.99999e-01,9.99999e-01,2.77838e-03,9.99999e-01
4.101005013e-01,3.12092e-03,9.99999e-01,9.99999e-01,9.99999e-01,9.99999e-01,3.12093e-03,9.99999e-01
4.121510038e-01,3.49766e-03,9.99999e-01,9.99999e-01,9.99999e-01,9.99999e-01,3.49766e-03,9.99999e-01
4.142117588e-01,3.91104e-03,9.99999e-01,9.99999e-01,9.99999e-01,9.99996e-01,3.91105e-03,9.99999e-01
4.162828176e-01,4.36361e-03,9.99999e-01,9.99999e-01,9.99999e-01,9.99984e-01,4.36367e-03,9.99999e-01
4.183642317e-01,4.85811e-03,9.99999e-01,9.99999e-01,9.99999e-01,9.99990e-01,4.85815e-03,9.99999e-01
4.204560528e-01,5.39717e-03,9.99999e-01,9.99999e-01,9.99999e-01,9.99993e-01,5.39720e-03,9.99999e-01
4.225583331e-01,5.98361e-03,9.99999e-01,9.99999e-01,9.99999e-01,9.99997e-01,5.98362e-03,9.99999e-01
4.246711247e-01,6.62024e-03,9.99999e-01,9.99999e-01,9.99999e-01,9.99997e-01,6.62025e-03,9.99999e-01
4.267944804e-01,7.30999e-03,9.99999e-01,9.99999e-01,9.99999e-01,9.99997e-01,7.31000e-03,9.99999e-01
4.289284528e-01,8.05582e-03,9.99999e-01,9.99999e-01,9.99999e-01,9.99997e-01,8.05583e-03,9.99999e-01
4.310730950e-01,8.86073e-03,9.99999e-01,9.99999e-01,9.99999e-01,9.99998e-01,8.86074e-03,9.99999e-01
4.332284605e-01,9.72775e-03,9.99999e-01,9.99999e-01,9.99999e-01,9.99999e-01,9.72775e-03,9.99999e-01
4.353946028e-01,1.06599e-02,9.99999e-01,9.99999e-01,9.99999e-01,9.99999e-01,1.06599e-02,9.99999e-01
4.375715758e-01,1.16603e-02,9.99999e-01,9.99999e-01,9.99999e-01,9.99997e-01,1.16603e-02,9.99999e-01
4.397594337e-01,1.27319e-02,9.99999e-01,9.99999e-01,9.99999e-01,9.99986e-01,1.27320e-02,9.99999e-01
4.419582309e-01,1.38772e-02,9.99999e-01,9.99999e-01,9.99999e-01,9.99931e-01,1.38781e-02,9.99999e-01
4.441680220e-01,1.51009e-02,9.99999e-01,9.99999e-01,9.99999e-01,9.99946e-01,1.51017e-02,9.99999e-01
4.463888621e-01,1.64048e-02,9.99999e-01,9.99999e-01,9.99999e-01,9.99944e-01,1.64057e-02,9.99999e-01
4.486208064e-01,1.77925e-02,9.99999e-01,9.99999e-01,9.99999e-01,9.99965e-01,1.77931e-02,9.99999e-01
4.508639105e-01,1.92667e-02,9.99999e-01,9.99999e-01,9.99999e-01,9.99983e-01,1.92670e-02,9.99999e-01
4.531182300e-01,2.08300e-02,9.99999e-01,9.99999e-01,9.99999e-01,9.99993e-01,2.08302e-02,9.99999e-01
4.553838212e-01,2.24854e-02,9.99999e-01,9.99999e-01,9.99999e-01,9.99995e-01,2.24855e-02,9.99999e-01
4.576607403e-01,2.42357e-02,9.99999e-01,9.99999e-01,9.99999e-01,9.99997e-01,2.42358e-02,9.99999e-01
4.599490440e-01,2.60836e-02,9.99999e-01,9.99999e-01,9.99999e-01,9.99998e-01,2.60836e-02,9.99999e-01
4.622487892e-01,2.80316e-02,9.99999e-01,9.99999e-01,9.99999e-01,9.99999e-01,2.80316e-02,9.99999e-01
4.645600332e-01,3.00823e-02,9.99999e-01,9.99999e-01,9.99999e-01,9.99998e-01,3.00823e-02,9.99999e-01
4.668828333e-01,3.22375e-02,9.99999e-01,9.99999e-01,9.99999e-01,9.99983e-01,3.22380e-02,9.99999e-01
4.692172475e-01,3.44998e-02,9.99999e-01,9.99999e-01,9.99999e-01,9.99965e-01,3.45010e-02,9.99999e-01
4.715633337e-01,3.68726e-02,9.99999e-01,9.99999e-01,9.99999e-01,9.99976e-01,3.68734e-02,9.99999e-01
4.739211504e-01,3.93563e-02,9.99999e-01,9.99999e-01,9.99999e-01,9.99977e-01,3.93572e-02,9.99999e-01
4.762907561e-01,4.19538e-02,9.99999e-01,9.99999e-01,9.99999e-01,9.99988e-01,4.19542e-02,9.99999e-01
4.786722099e-01,4.46660e-02,9.99999e-01,9.99999e-01,9.99999e-01,9.99994e-01,4.46662e-02,9.99999e-01
4.810655710e-01,4.74947e-02,9.99999e-01,9.99999e-01,9.99999e-01,9.99998e-01,4.74948e-02,9.99999e-01
4.834708988e-01,5.04405e-02,9.99999e-01,9.99999e-01,9.99999e-01,9.99986e-01,5.04412e-02,9.99999e-01
4.858882533e-01,5.35054e-02,9.99999e-01,9.99999e-01,9.99999e-01,9.99975e-01,5.35067e-02,9.99999e-01
4.883176946e-01,5.66913e-02,9.99999e-01,9.99999e-01,9.99999e-01,9.99979e-01,5.66925e-02,9.99999e-01
4.907592831e-01,5.99982e-02,9.99999e-01,9.99999e-01,9.99999e-01,9.99981e-01,5.99993e-02,9.99999e-01
4.932130795e-01,6.34272e-02,9.99999e-01,9.99999e-01,9.99999e-01,9.99986e-01,6.34280e-02,9.99999e-01
4.956791449e-01,6.69786e-02,9.99999e-01,9.99999e-01,9.99999e-01,9.99992e-01,6.69791e-02,9.99999e-01
4.981575406e-01,7.06504e-02,9.99999e-01,9.99999e-01,9.99999e-01,9.99964e-01,7.06528e-02,9.99999e-01
5.006483283e-01,7.44428e-02,9.99999e-01,9.99999e-01,9.99999e-01,9.99909e-01,7.44496e-02,9.99998e-01
5.031515699e-01,7.83331e-02,9.99999e-01,9.99999e-01,9.99999e-01,9.99543e-01,7.83692e-02,9.99994e-01
5.056673278e-01,8.23914e-02,9.99999e-01,9.99999e-01,9.99999e-01,9.99758e-01,8.24117e-02,9.99994e-01
5.081956644e-01,8.65501e-02,9.99999e-01,9.99999e-01,9.99999e-01,9.99695e-01,8.65767e-02,9.99995e-01
5.107366428e-01,9.08449e-02,9.99999e-01,9.99999e-01,9.99999e-01,9.99794e-01,9.08636e-02,9.99998e-01
5.132903260e-01,9.52606e-02,9.99999e-01,9.99999e-01,9.99999e-01,9.99882e-01,9.52718e-02,9.99999e-01
5.158567776e-01,9.97955e-02,9.99999e-01,9.99999e-01,9.99999e-01,9.99950e-01,9.98004e-02,9.99999e-01
5.184360615e-01,1.04446e-01,9.99999e-01,9.99999e-01,9.99999e-01,9.99979e-01,1.04448e-01,9.99999e-01
5.210282418e-01,1.09214e-01,9.99999e-01,9.99999e-01,9.99999e-01,9.99992e-01,1.09215e-01,9.99999e-01
5.236333830e-01,1.14094e-01,9.99999e-01,9.99999e-01,9.99999e-01,9.99969e-01,1.14098e-01,9.99999e-01
5.262515499e-01,1.19094e-01,9.99999e-01,9.99999e-01,9.99999e-01,9.99980e-01,1.19096e-01,9.99999e-01
5.288828077e-01,1.24206e-01,9.99999e-01,9.99999e-01,9.99999e-01,9.99982e-01,1.24209e-01,9.99999e-01
5.315272217e-01,1.29431e-01,9.99999e-01,9.99999e-01,9.99999e-01,9.99984e-01,1.29433e-01,9.99999e-01
5.341848578e-01,1.34766e-01,9.99999e-01,9.99999e-01,9.99999e-01,9.99989e-01,1.34767e-01,9.99999e-01
5.368557821e-01,1.40204e-01,9.99999e-01,9.99999e-01,9.99999e-01,9.99964e-01,1.40209e-01,9.99999e-01
5.395400610e-01,1.45739e-01,9.99999e-01,9.99999e-01,9.99999e-01,9.99874e-01,1.45757e-01,9.99998e-01
5.422377613e-01,1.51384e-01,9.99999e-01,9.99999e-01,9.99999e-01,9.99838e-01,1.51408e-01,9.99996e-01
5.449489501e-01,1.57137e-01,9.99999e-01,9.99999e-01,9.99999e-01,9.99849e-01,1.57161e-01,9.99996e-01
5.476736949e-01,1.62990e-01,9.99999e-01,9.99999e-01,9.99999e-01,9.99866e-01,1.63012e-01,9.99998e-01
5.504120634e-01,1.68942e-01,9.99999e-01,9.99999e-01,9.99999e-01,9.99903e-01,1.68958e-01,9.99999e-01
5.531641237e-01,1.74989e-01,9.99999e-01,9.99999e-01,9.99999e-01,9.99950e-01,1.74998e-01,9.99999e-01
5.559299443e-01,1.81123e-01,9.99999e-01,9.99999e-01,9.99999e-01,9.99976e-01,1.81127e-01,9.99999e-01
5.587095940e-01,1.87342e-01,9.99999e-01,9.99999e-01,9.99999e-01,9.99984e-01,1.87345e-01,9.99999e-01
5.615031420e-01,1.93643e-01,9.99999e-01,9.99999e-01,9.99999e-01,9.99983e-01,1.93646e-01,9.99999e-01
5.643106577e-01,2.00025e-01,9.99999e-01,9.99999e-01,9.99999e-01,9.99980e-01,2.00028e-01,9.99999e-01
5.671322110e-01,2.06442e-01,9.99999e-01,9.99999e-01,9.99999e-01,9.99773e-01,2.06489e-01,9.99997e-01
5.699678720e-01,2.12972e-01,9.99999e-01,9.99999e-01,9.99999e-01,9.99759e-01,2.13024e-01,9.99993e-01
5.728177114e-01,2.19575e-01,9.99999e-01,9.99999e-01,9.99999e-01,9.99749e-01,2.19631e-01,9.99994e-01
5.756818000e-01,2.26254e-01,9.99999e-01,9.99999e-01,9.99999e-01,9.99770e-01,2.26307e-01,9.99996e-01
5.785602090e-01,2.33000e-01,9.99999e-01,9.99999e-01,9.99999e-01,9.99799e-01,2.33047e-01,9.99998e-01
5.814530100e-01,2.39801e-01,9.99999e-01,9.99999e-01,9.99999e-01,9.99798e-01,2.39849e-01,9.99999e-01
5.843602750e-01,2.46650e-01,9.99999e-01,9.99999e-01,9.99999e-01,9.99760e-01,2.46710e-01,9.99998e-01
5.872820764e-01,2.53098e-01,9.99999e-01,9.99999e-01,9.99999e-01,9.97934e-01,2.53625e-01,9.99985e-01
5.902184868e-01,2.59930e-01,9.99999e-01,9.99999e-01,9.99999e-01,9.97501e-01,2.60592e-01,9.99960e-01
5.931695792e-01,2.67124e-01,9.99999e-01,9.99999e-01,9.99999e-01,9.98233e-01,2.67607e-01,9.99961e-01
5.961354271e-01,2.74129e-01,9.99999e-01,9.99999e-01,9.99999e-01,9.98064e-01,2.74666e-01,9.99977e-01
5.991161043e-01,2.81368e-01,9.99999e-01,9.99999e-01,9.99999e-01,9.98588e-01,2.81767e-01,9.99992e-01
6.021116848e-01,2.88674e-01,9.99999e-01,9.99999e-01,9.99999e-01,9.99198e-01,2.88906e-01,9.99998e-01
6.051222432e-01,2.95959e-01,9.99999e-01,9.99999e-01,9.99999e-01,9.99594e-01,2.96079e-01,9.99999e-01
6.081478544e-01,3.03230e-01,9.99999e-01,9.99999e-01,9.99999e-01,9.99824e-01,3.03283e-01,9.99999e-01
6.111885937e-01,3.10493e-01,9.99999e-01,9.99999e-01,9.99999e-01,9.99925e-01,3.10516e-01,9.99999e-01
6.142445367e-01,3.17762e-01,9.99999e-01,9.99999e-01,9.99999e-01,9.99966e-01,3.17772e-01,9.99999e-01
6.173157594e-01,3.25044e-01,9.99999e-01,9.99999e-01,9.99999e-01,9.99981e-01,3.25050e-01,9.99999e-01
6.204023382e-01,3.32341e-01,9.99999e-01,9.99999e-01,9.99999e-01,9.99984e-01,3.32346e-01,9.99999e-01
6.235043498e-01,3.39634e-01,9.99999e-01,9.99999e-01,9.99999e-01,9.99931e-01,3.39657e-01,9.99999e-01
6.266218716e-01,3.46854e-01,9.99999e-01,9.99999e-01,9.99999e-01,9.99640e-01,3.46979e-01,9.99996e-01
6.297549810e-01,3.54262e-01,9.99999e-01,9.99999e-01,9.99999e-01,9.99867e-01,3.54310e-01,9.99994e-01
6.329037559e-01,3.61551e-01,9.99999e-01,9.99999e-01,9.99999e-01,9.99739e-01,3.61647e-01,9.99995e-01
6.360682746e-01,3.68903e-01,9.99999e-01,9.99999e-01,9.99999e-01,9.99777e-01,3.68985e-01,9.99997e-01
6.392486160e-01,3.76215e-01,9.99999e-01,9.99999e-01,9.99999e-01,9.99712e-01,3.76324e-01,9.99998e-01
6.424448591e-01,3.83511e-01,9.99999e-01,9.99999e-01,9.99999e-01,9.99614e-01,3.83659e-01,9.99997e-01
6.456570834e-01,3.90285e-01,9.99999e-01,9.99999e-01,9.99999e-01,9.98211e-01,3.90988e-01,9.99989e-01
6.488853688e-01,3.97776e-01,9.99999e-01,9.99999e-01,9.99999e-01,9.98691e-01,3.98308e-01,9.99971e-01
6.521297956e-01,4.05067e-01,9.99999e-01,9.99999e-01,9.99999e-01,9.98665e-01,4.05617e-01,9.99976e-01
6.553904446e-01,4.12356e-01,9.99999e-01,9.99999e-01,9.99999e-01,9.98672e-01,4.12911e-01,9.99982e-01
6.586673968e-01,4.19709e-01,9.99999e-01,9.99999e-01,9.99999e-01,9.98863e-01,4.20189e-01,9.99993e-01
6.619607338e-01,4.27176e-01,9.99999e-01,9.99999e-01,9.99999e-01,9.99366e-01,4.27447e-01,9.99998e-01
6.652705375e-01,4.34518e-01,9.99999e-01,9.99999e-01,9.99999e-01,9.99619e-01,4.34684e-01,9.99998e-01
6.685968902e-01,4.41818e-01,9.99999e-01,9.99999e-01,9.99999e-01,9.99823e-01,4.41896e-01,9.99999e-01
6.719398746e-01,4.49046e-01,9.99999e-01,9.99999e-01,9.99999e-01,9.99917e-01,4.49083e-01,9.99999e-01
6.752995740e-01,4.56220e-01,9.99999e-01,9.99999e-01,9.99999e-01,9.99955e-01,4.56240e-01,9.99999e-01
6.786760719e-01,4.63338e-01,9.99999e-01,9.99999e-01,9.99999e-01,9.99935e-01,4.63367e-01,9.99999e-01
6.820694522e-01,4.70410e-01,9.99999e-01,9.99999e-01,9.99999e-01,9.99889e-01,4.70462e-01,9.99998e-01
6.854797995e-01,4.77453e-01,9.99999e-01,9.99999e-01,9.99999e-01,9.99858e-01,4.77521e-01,9.99998e-01
6.889071985e-01,4.84376e-01,9.99999e-01,9.99999e-01,9.99999e-01,9.99656e-01,4.84544e-01,9.99996e-01
6.923517345e-01,4.88767e-01,9.99999e-01,9.99999e-01,9.99999e-01,9.94407e-01,4.91529e-01,9.99972e-01
6.958134932e-01,4.96995e-01,9.99999e-01,9.99999e-01,9.99999e-01,9.97094e-01,4.98473e-01,9.99940e-01
6.992925606e-01,5.03951e-01,9.99999e-01,9.99999e-01,9.99999e-01,9.97235e-01,5.05375e-01,9.99946e-01
7.027890234e-01,5.10466e-01,9.99999e-01,9.99999e-01,9.99999e-01,9.96589e-01,5.12234e-01,9.99958e-01
7.063029686e-01,5.17549e-01,9.99999e-01,9.99999e-01,9.99999e-01,9.97132e-01,5.19047e-01,9.99979e-01
7.098344834e-01,5.24362e-01,9.99999e-01,9.99999e-01,9.99999e-01,9.97249e-01,5.25814e-01,9.99987e-01
7.133836558e-01,5.30565e-01,9.99999e-01,9.99999e-01,9.99999e-01,9.96328e-01,5.32533e-01,9.99975e-01
7.169505741e-01,5.23323e-01,9.99999e-01,9.99999e-01,9.99999e-01,9.70731e-01,5.39202e-01,9.99811e-01
7.205353270e-01,5.37792e-01,9.99999e-01,9.99999e-01,9.99999e-01,9.85615e-01,5.45821e-01,9.99668e-01
7.241380036e-01,5.42148e-01,9.99999e-01,9.99999e-01,9.99999e-01,9.81743e-01,5.52388e-01,9.99713e-01
7.277586936e-01,5.49558e-01,9.99999e-01,9.99999e-01,9.99999e-01,9.83511e-01,5.58902e-01,9.99765e-01
7.313974871e-01,5.55409e-01,9.99999e-01,9.99999e-01,9.99999e-01,9.82502e-01,5.65362e-01,9.99889e-01
7.350544745e-01,5.66263e-01,9.99999e-01,9.99999e-01,9.99999e-01,9.90412e-01,5.71766e-01,9.99961e-01
7.387297469e-01,5.74024e-01,9.99999e-01,9.99999e-01,9.99999e-01,9.92941e-01,5.78115e-01,9.99982e-01
7.424233956e-01,5.82384e-01,9.99999e-01,9.99999e-01,9.99999e-01,9.96543e-01,5.84406e-01,9.99996e-01
7.461355126e-01,5.89402e-01,9.99999e-01,9.99999e-01,9.99999e-01,9.97904e-01,5.90640e-01,9.99998e-01
7.498661902e-01,5.96233e-01,9.99999e-01,9.99999e-01,9.99999e-01,9.99024e-01,5.96815e-01,9.99999e-01
7.536155211e-01,6.02642e-01,9.99999e-01,9.99999e-01,9.99999e-01,9.99520e-01,6.02931e-01,9.99999e-01
7.573835987e-01,6.08836e-01,9.99999e-01,9.99999e-01,9.99999e-01,9.99753e-01,6.08986e-01,9.99999e-01
7.611705167e-01,6.14888e-01,9.99999e-01,9.99999e-01,9.99999e-01,9.99846e-01,6.14982e-01,9.99999e-01
7.649763693e-01,6.20856e-01,9.99999e-01,9.99999e-01,9.99999e-01,9.99903e-01,6.20916e-01,9.99999e-01
7.688012511e-01,6.26746e-01,9.99999e-01,9.99999e-01,9.99999e-01,9.99932e-01,6.26788e-01,9.99999e-01
7.726452574e-01,6.32564e-01,9.99999e-01,9.99999e-01,9.99999e-01,9.99944e-01,6.32598e-01,9.99999e-01
7.765084837e-01,6.38296e-01,9.99999e-01,9.99999e-01,9.99999e-01,9.99921e-01,6.38346e-01,9.99999e-01
7.803910261e-01,6.30052e-01,9.99999e-01,9.99999e-01,9.78618e-01,9.99661e-01,6.44031e-01,9.99999e-01
7.842929812e-01,5.91570e-01,9.99999e-01,9.99999e-01,9.11638e-01,9.98819e-01,6.49653e-01,9.99997e-01
7.882144461e-01,5.91788e-01,9.99999e-01,9.99999e-01,9.05360e-01,9.97570e-01,6.55211e-01,9.99982e-01
7.921555184e-01,6.23081e-01,9.99999e-01,9.99999e-01,9.44319e-01,9.98668e-01,6.60706e-01,9.99970e-01
7.961162960e-01,6.39635e-01,9.99999e-01,9.99999e-01,9.62496e-01,9.97644e-01,6.66137e-01,9.99971e-01
8.000968774e-01,6.55934e-01,9.99999e-01,9.99999e-01,9.79499e-01,9.97281e-01,6.71504e-01,9.99970e-01
8.040973618e-01,6.67757e-01,9.99999e-01,9.99999e-01,9.89338e-01,9.97279e-01,6.76807e-01,9.99976e-01
8.081178486e-01,6.74525e-01,9.99999e-01,9.99999e-01,9.95091e-01,9.93867e-01,6.82046e-01,9.99977e-01
8.121584379e-01,6.68717e-01,9.99999e-01,9.99999e-01,9.98483e-01,9.74626e-01,6.87221e-01,9.99913e-01
8.162192301e-01,6.71089e-01,9.99999e-01,9.99999e-01,9.99664e-01,9.69951e-01,6.92331e-01,9.99677e-01
8.203003262e-01,6.86535e-01,9.99999e-01,9.99999e-01,9.99994e-01,9.84827e-01,6.97378e-01,9.99622e-01
8.244018279e-01,6.87306e-01,9.99999e-01,9.99999e-01,9.99999e-01,9.78859e-01,7.02360e-01,9.99699e-01
8.285238370e-01,6.94370e-01,9.99999e-01,9.99999e-01,9.99999e-01,9.81978e-01,7.07279e-01,9.99763e-01
8.326664562e-01,6.99093e-01,9.99999e-01,9.99999e-01,9.99999e-01,9.81783e-01,7.12134e-01,9.99901e-01
8.368297885e-01,7.07575e-01,9.99999e-01,9.99999e-01,9.99999e-01,9.86978e-01,7.16926e-01,9.99977e-01
8.410139374e-01,7.16051e-01,9.99999e-01,9.99999e-01,9.99999e-01,9.92249e-01,7.21654e-01,9.99986e-01
8.452190071e-01,7.23550e-01,9.99999e-01,9.99999e-01,9.99999e-01,9.96194e-01,7.26319e-01,9.99991e-01
8.494451021e-01,7.29302e-01,9.99999e-01,9.99999e-01,9.99999e-01,9.97790e-01,7.30921e-01,9.99993e-01
8.536923276e-01,7.34497e-01,9.99999e-01,9.99999e-01,9.99999e-01,9.98693e-01,7.35460e-01,9.99995e-01
8.579607893e-01,7.39341e-01,9.99999e-01,9.99999e-01,9.99999e-01,9.99195e-01,7.39937e-01,9.99998e-01
8.622505932e-01,7.43972e-01,9.99999e-01,9.99999e-01,9.99999e-01,9.99488e-01,7.44352e-01,9.99999e-01
8.665618462e-01,7.08091e-01,9.99999e-01,9.99999e-01,9.46043e-01,9.99683e-01,7.48706e-01,9.99999e-01
8.708946554e-01,5.93421e-01,9.99999e-01,9.99999e-01,7.88355e-01,9.99637e-01,7.52998e-01,9.99999e-01
8.752491287e-01,6.26120e-01,9.99999e-01,9.99999e-01,8.27249e-01,9.99515e-01,7.57230e-01,9.99998e-01
8.796253743e-01,6.86208e-01,9.99999e-01,9.99999e-01,9.01839e-01,9.99328e-01,7.61400e-01,9.99998e-01
8.840235012e-01,7.25178e-01,9.99999e-01,9.99999e-01,9.48036e-01,9.99233e-01,7.65511e-01,9.99994e-01
8.884436187e-01,7.51471e-01,9.99999e-01,9.99999e-01,9.79231e-01,9.97197e-01,7.69562e-01,9.99986e-01
8.928858368e-01,7.44577e-01,9.99999e-01,9.99999e-01,9.91539e-01,9.70783e-01,7.73554e-01,9.99923e-01
8.973502660e-01,7.35940e-01,9.99999e-01,9.99999e-01,9.97941e-01,9.48861e-01,7.77487e-01,9.99607e-01
9.018370173e-01,7.60078e-01,9.99999e-01,9.99999e-01,9.99772e-01,9.73576e-01,7.81362e-01,9.99383e-01
9.063462024e-01,7.62064e-01,9.99999e-01,9.99999e-01,9.94140e-01,9.76700e-01,7.85179e-01,9.99458e-01
9.108779334e-01,7.49983e-01,9.99999e-01,9.99999e-01,9.86672e-01,9.63907e-01,7.88939e-01,9.99436e-01
9.154323231e-01,7.57548e-01,9.99999e-01,9.99999e-01,9.96861e-01,9.59140e-01,7.92642e-01,9.99534e-01
9.200094847e-01,7.35811e-01,9.99999e-01,9.99999e-01,9.53972e-01,9.67840e-01,7.96289e-01,9.99739e-01
9.246095321e-01,7.11583e-01,9.99999e-01,9.99999e-01,9.36348e-01,9.49648e-01,7.99880e-01,9.99699e-01
9.292325798e-01,5.40152e-01,9.99999e-01,9.99999e-01,9.49517e-01,7.06297e-01,8.03415e-01,9.98830e-01
9.338787427e-01,4.89146e-01,9.99999e-01,9.99999e-01,9.51335e-01,6.38014e-01,8.06896e-01,9.95175e-01
9.385481364e-01,6.49175e-01,9.99999e-01,9.99999e-01,9.64068e-01,8.34642e-01,8.10323e-01,9.94264e-01
9.432408771e-01,6.14649e-01,9.99999e-01,9.99999e-01,9.77882e-01,7.75677e-01,8.13697e-01,9.95049e-01
9.479570815e-01,5.65364e-01,9.99999e-01,9.99999e-01,9.88592e-01,7.02505e-01,8.17017e-01,9.95969e-01
9.526968669e-01,6.26440e-01,9.99999e-01,9.99999e-01,9.94484e-01,7.69559e-01,8.20285e-01,9.97539e-01
9.574603512e-01,6.46947e-01,9.99999e-01,9.99999e-01,9.97639e-01,7.88372e-01,8.23501e-01,9.98749e-01
9.622476530e-01,6.80629e-01,9.99999e-01,9.99999e-01,9.99263e-01,8.24639e-01,8.26666e-01,9.99134e-01
9.670588912e-01,7.42042e-01,9.99999e-01,9.99999e-01,9.99779e-01,8.94983e-01,8.29780e-01,9.99408e-01
9.718941857e-01,7.76904e-01,9.99999e-01,9.99999e-01,9.99983e-01,9.33252e-01,8.32844e-01,9.99564e-01
9.767536566e-01,7.89029e-01,9.99999e-01,9.99999e-01,9.99999e-01,9.44288e-01,8.35858e-01,9.99666e-01
9.816374249e-01,8.03886e-01,9.99999e-01,9.99999e-01,9.99999e-01,9.58459e-01,8.38824e-01,9.99884e-01
9.865456120e-01,8.19719e-01,9.99999e-01,9.99999e-01,9.99999e-01,9.73860e-01,8.41741e-01,9.99975e-01
9.914783401e-01,8.30898e-01,9.99999e-01,9.99999e-01,9.99999e-01,9.83770e-01,8.44610e-01,9.99992e-01
9.964357318e-01,8.39914e-01,9.99999e-01,9.99999e-01,9.99999e-01,9.91131e-01,8.47432e-01,9.99995e-01
1.001417910e+00,8.45678e-01,9.99999e-01,9.99999e-01,9.99999e-01,9.94677e-01,8.50208e-01,9.99993e-01
1.006425000e+00,8.50340e-01,9.99999e-01,9.99999e-01,9.99999e-01,9.96962e-01,8.52937e-01,9.99991e-01
1.011457125e+00,8.54002e-01,9.99999e-01,9.99999e-01,9.99999e-01,9.98114e-01,8.55622e-01,9.99991e-01
1.016514411e+00,8.57157e-01,9.99999e-01,9.99999e-01,9.99999e-01,9.98719e-01,8.58261e-01,9.99993e-01
1.021596983e+00,8.59946e-01,9.99999e-01,9.99999e-01,9.99968e-01,9.98979e-01,8.60856e-01,9.99993e-01
1.026704968e+00,8.60749e-01,9.99999e-01,9.99999e-01,9.97717e-01,9.99203e-01,8.63407e-01,9.99995e-01
1.031838492e+00,8.38031e-01,9.99999e-01,9.99999e-01,9.68344e-01,9.99421e-01,8.65916e-01,9.99998e-01
1.036997685e+00,2.07160e-01,9.99999e-01,9.99999e-01,2.38626e-01,9.99656e-01,8.68382e-01,9.99999e-01
1.042182673e+00,2.30617e-01,9.99999e-01,9.99999e-01,2.64932e-01,9.99589e-01,8.70806e-01,9.99999e-01
1.047393587e+00,2.25854e-01,9.99999e-01,9.99999e-01,2.58780e-01,9.99456e-01,8.73188e-01,9.99999e-01
1.052630555e+00,2.23180e-02,9.99999e-01,9.99999e-01,2.55055e-02,9.99254e-01,8.75530e-01,9.99999e-01
1.057893707e+00,4.57240e-02,9.99999e-01,9.99999e-01,5.21362e-02,9.98754e-01,8.77832e-01,9.99999e-01
1.063183176e+00,1.02196e-01,9.99999e-01,9.99999e-01,1.16306e-01,9.97951e-01,8.80094e-01,9.99998e-01
1.068499092e+00,2.05704e-01,9.99999e-01,9.99999e-01,2.33855e-01,9.96571e-01,8.82318e-01,9.99997e-01
1.073841587e+00,3.52595e-01,9.99999e-01,9.99999e-01,4.00076e-01,9.95986e-01,8.84502e-01,9.99994e-01
