#,Wave/freq,Total,N2,O2,CO2,H2O,Rayleigh,CIA
4.000000000e-01,2.51772e-20,9.99999e-01,9.99999e-01,9.99999e-01,9.99912e-01,2.51794e-20,9.99999e-01
4.020000000e-01,6.14532e-20,9.99999e-01,9.99999e-01,9.99999e-01,9.99945e-01,6.14565e-20,9.99999e-01
4.040100000e-01,1.47242e-19,9.99999e-01,9.99999e-01,9.99999e-01,9.99976e-01,1.47245e-19,9.99999e-01
4.060300500e-01,3.46750e-19,9.99999e-01,9.99999e-01,9.99999e-01,9.99994e-01,3.46752e-19,9.99999e-01
4.080602003e-01,8.02876e-19,9.99999e-01,9.99999e-01,9.99999e-01,9.99997e-01,8.02878e-19,9.99999e-01
4.101005013e-01,1.82843e-18,9.99999e-01,9.99999e-01,9.99999e-01,9.99999e-01,1.82843e-18,9.99999e-01
4.121510038e-01,4.09679e-18,9.99999e-01,9.99999e-01,9.99999e-01,9.99996e-01,4.09681e-18,9.99999e-01
4.142117588e-01,9.03404e-18,9.99999e-01,9.99999e-01,9.99999e-01,9.99975e-01,9.03426e-18,9.99999e-01
4.162828176e-01,1.96114e-17,9.99999e-01,9.99999e-01,9.99999e-01,9.99892e-01,1.96135e-17,9.99999e-01
4.183642317e-01,4.19316e-17,9.99999e-01,9.99999e-01,9.99999e-01,9.99935e-01,4.19343e-17,9.99999e-01
4.204560528e-01,8.83176e-17,9.99999e-01,9.99999e-01,9.99999e-01,9.99960e-01,8.83210e-17,9.99999e-01
4.225583331e-01,1.83300e-16,9.99999e-01,9.99999e-01,9.99999e-01,9.99984e-01,1.83303e-16,9.99999e-01
4.246711247e-01,3.74978e-16,9.99999e-01,9.99999e-01,9.99999e-01,9.99987e-01,3.74982e-16,9.99999e-01
4.267944804e-01,7.56318e-16,9.99999e-01,9.99999e-01,9.99999e-01,9.99982e-01,7.56331e-16,9.99999e-01
4.289284528e-01,1.50449e-15,9.99999e-01,9.99999e-01,9.99999e-01,9.99986e-01,1.50451e-15,9.99999e-01
4.310730950e-01,2.95240e-15,9.99999e-01,9.99999e-01,9.99999e-01,9.99993e-01,2.95242e-15,9.99999e-01
4.332284605e-01,5.71712e-15,9.99999e-01,9.99999e-01,9.99999e-01,9.99998e-01,5.71713e-15,9.99999e-01
4.353946028e-01,1.09272e-14,9.99999e-01,9.99999e-01,9.99999e-01,9.99998e-01,1.09272e-14,9.99999e-01
4.375715758e-01,2.06195e-14,9.99999e-01,9.99999e-01,9.99999e-01,9.99988e-01,2.06197e-14,9.99999e-01
4.397594337e-01,3.84210e-14,9.99999e-01,9.99999e-01,9.99999e-01,9.99904e-01,3.84247e-14,9.99999e-01
4.419582309e-01,7.06949e-14,9.99999e-01,9.99999e-01,9.99999e-01,9.99517e-01,7.07290e-14,9.99999e-01
4.441680220e-01,1.28584e-13,9.99999e-01,9.99999e-01,9.99999e-01,9.99626e-01,1.28632e-13,9.99999e-01
4.463888621e-01,2.31102e-13,9.99999e-01,9.99999e-01,9.99999e-01,9.99610e-01,2.31192e-13,9.99999e-01
4.486208064e-01,4.10639e-13,9.99999e-01,9.99999e-01,9.99999e-01,9.99758e-01,4.10738e-13,9.99999e-01
4.508639105e-01,7.21405e-13,9.99999e-01,9.99999e-01,9.99999e-01,9.99886e-01,7.21486e-13,9.99999e-01
4.531182300e-01,1.25325e-12,9.99999e-01,9.99999e-01,9.99999e-01,9.99954e-01,1.25331e-12,9.99999e-01
4.553838212e-01,2.15347e-12,9.99999e-01,9.99999e-01,9.99999e-01,9.99969e-01,2.15353e-12,9.99999e-01
4.576607403e-01,3.66095e-12,9.99999e-01,9.99999e-01,9.99999e-01,9.99985e-01,3.66100e-12,9.99999e-01
4.599490440e-01,6.15876e-12,9.99999e-01,9.99999e-01,9.99999e-01,9.99989e-01,6.15882e-12,9.99999e-01
4.622487892e-01,1.02549e-11,9.99999e-01,9.99999e-01,9.99999e-01,9.99997e-01,1.02549e-11,9.99999e-01
4.645600332e-01,1.69041e-11,9.99999e-01,9.99999e-01,9.99999e-01,9.99992e-01,1.69042e-11,9.99999e-01
4.668828333e-01,2.75879e-11,9.99999e-01,9.99999e-01,9.99999e-01,9.99884e-01,2.75910e-11,9.99999e-01
4.692172475e-01,4.45895e-11,9.99999e-01,9.99999e-01,9.99999e-01,9.99755e-01,4.46004e-11,9.99999e-01
4.715633337e-01,7.14037e-11,9.99999e-01,9.99999e-01,9.99999e-01,9.99839e-01,7.14151e-11,9.99999e-01
4.739211504e-01,1.13276e-10,9.99999e-01,9.99999e-01,9.99999e-01,9.99846e-01,1.13293e-10,9.99999e-01
4.762907561e-01,1.78083e-10,9.99999e-01,9.99999e-01,9.99999e-01,9.99920e-01,1.78097e-10,9.99999e-01
4.786722099e-01,2.77470e-10,9.99999e-01,9.99999e-01,9.99999e-01,9.99967e-01,2.77479e-10,9.99999e-01
4.810655710e-01,4.28545e-10,9.99999e-01,9.99999e-01,9.99999e-01,9.99989e-01,4.28549e-10,9.99999e-01
4.834708988e-01,6.56146e-10,9.99999e-01,9.99999e-01,9.99999e-01,9.99905e-01,6.56208e-10,9.99999e-01
4.858882533e-01,9.96214e-10,9.99999e-01,9.99999e-01,9.99999e-01,9.99826e-01,9.96387e-10,9.99999e-01
4.883176946e-01,1.50027e-09,9.99999e-01,9.99999e-01,9.99999e-01,9.99854e-01,1.50048e-09,9.99999e-01
4.907592831e-01,2.24112e-09,9.99999e-01,9.99999e-01,9.99999e-01,9.99868e-01,2.24142e-09,9.99999e-01
4.932130795e-01,3.32147e-09,9.99999e-01,9.99999e-01,9.99999e-01,9.99906e-01,3.32178e-09,9.99999e-01
4.956791449e-01,4.88454e-09,9.99999e-01,9.99999e-01,9.99999e-01,9.99950e-01,4.88478e-09,9.99999e-01
4.981575406e-01,7.12696e-09,9.99999e-01,9.99999e-01,9.99999e-01,9.99753e-01,7.12871e-09,9.99999e-01
5.006483283e-01,1.03194e-08,9.99999e-01,9.99999e-01,9.99999e-01,9.99360e-01,1.03260e-08,9.99995e-01
5.031515699e-01,1.48000e-08,9.99999e-01,9.99999e-01,9.99999e-01,9.96774e-01,1.48484e-08,9.99965e-01
5.056673278e-01,2.11617e-08,9.99999e-01,9.99999e-01,9.99999e-01,9.98298e-01,2.11986e-08,9.99960e-01
5.081956644e-01,2.99874e-08,9.99999e-01,9.99999e-01,9.99999e-01,9.97853e-01,3.00526e-08,9.99975e-01
5.107366428e-01,4.22504e-08,9.99999e-01,9.99999e-01,9.99999e-01,9.98550e-01,4.23119e-08,9.99995e-01
5.132903260e-01,5.91219e-08,9.99999e-01,9.99999e-01,9.99999e-01,9.99172e-01,5.91709e-08,9.99998e-01
5.158567776e-01,8.21722e-08,9.99999e-01,9.99999e-01,9.99999e-01,9.99650e-01,8.22009e-08,9.99999e-01
5.184360615e-01,1.13440e-07,9.99999e-01,9.99999e-01,9.99999e-01,9.99859e-01,1.13455e-07,9.99999e-01
5.210282418e-01,1.55592e-07,9.99999e-01,9.99999e-01,9.99999e-01,9.99947e-01,1.55600e-07,9.99999e-01
5.236333830e-01,2.12028e-07,9.99999e-01,9.99999e-01,9.99999e-01,9.99789e-01,2.12073e-07,9.99998e-01
5.262515499e-01,2.87240e-07,9.99999e-01,9.99999e-01,9.99999e-01,9.99868e-01,2.87278e-07,9.99997e-01
5.288828077e-01,3.86781e-07,9.99999e-01,9.99999e-01,9.99999e-01,9.99878e-01,3.86828e-07,9.99998e-01
5.315272217e-01,5.17767e-07,9.99999e-01,9.99999e-01,9.99999e-01,9.99893e-01,5.17822e-07,9.99999e-01
5.341848578e-01,6.89145e-07,9.99999e-01,9.99999e-01,9.99999e-01,9.99930e-01,6.89193e-07,9.99999e-01
5.368557821e-01,9.11889e-07,9.99999e-01,9.99999e-01,9.99999e-01,9.99754e-01,9.12113e-07,9.99998e-01
5.395400610e-01,1.19940e-06,9.99999e-01,9.99999e-01,9.99999e-01,9.99112e-01,1.20047e-06,9.99992e-01
5.422377613e-01,1.56962e-06,9.99999e-01,9.99999e-01,9.99999e-01,9.98858e-01,1.57145e-06,9.99978e-01
5.449489501e-01,2.04393e-06,9.99999e-01,9.99999e-01,9.99999e-01,9.98935e-01,2.04615e-06,9.99978e-01
5.476736949e-01,2.64788e-06,9.99999e-01,9.99999e-01,9.99999e-01,9.99060e-01,2.65040e-06,9.99989e-01
5.504120634e-01,3.41324e-06,9.99999e-01,9.99999e-01,9.99999e-01,9.99317e-01,3.41558e-06,9.99996e-01
5.531641237e-01,4.37817e-06,9.99999e-01,9.99999e-01,9.99999e-01,9.99656e-01,4.37967e-06,9.99999e-01
5.559299443e-01,5.58746e-06,9.99999e-01,9.99999e-01,9.99999e-01,9.99834e-01,5.58839e-06,9.99999e-01
5.587095940e-01,7.09570e-06,9.99999e-01,9.99999e-01,9.99999e-01,9.99895e-01,7.09644e-06,9.99999e-01
5.615031420e-01,8.96799e-06,9.99999e-01,9.99999e-01,9.99999e-01,9.99883e-01,8.96903e-06,9.99999e-01
5.643106577e-01,1.12819e-05,9.99999e-01,9.99999e-01,9.99999e-01,9.99867e-01,1.12834e-05,9.99998e-01
5.671322110e-01,1.41079e-05,9.99999e-01,9.99999e-01,9.99999e-01,9.98394e-01,1.41308e-05,9.99985e-01
5.699678720e-01,1.75877e-05,9.99999e-01,9.99999e-01,9.99999e-01,9.98308e-01,1.76183e-05,9.99956e-01
5.728177114e-01,2.18315e-05,9.99999e-01,9.99999e-01,9.99999e-01,9.98231e-01,2.18710e-05,9.99963e-01
5.756818000e-01,2.69900e-05,9.99999e-01,9.99999e-01,9.99999e-01,9.98378e-01,2.70344e-05,9.99978e-01
5.785602090e-01,3.32301e-05,9.99999e-01,9.99999e-01,9.99999e-01,9.98587e-01,3.32773e-05,9.99993e-01
5.814530100e-01,4.07360e-05,9.99999e-01,9.99999e-01,9.99999e-01,9.98580e-01,4.07940e-05,9.99996e-01
5.843602750e-01,4.97229e-05,9.99999e-01,9.99999e-01,9.99999e-01,9.98303e-01,4.98079e-05,9.99990e-01
5.872820764e-01,5.96893e-05,9.99999e-01,9.99999e-01,9.99999e-01,9.85492e-01,6.05741e-05,9.99897e-01
5.902184868e-01,7.20770e-05,9.99999e-01,9.99999e-01,9.99999e-01,9.82471e-01,7.33833e-05,9.99720e-01
5.931695792e-01,8.74424e-05,9.99999e-01,9.99999e-01,9.99999e-01,9.87588e-01,8.85650e-05,9.99731e-01
5.961354271e-01,1.05027e-04,9.99999e-01,9.99999e-01,9.99999e-01,9.86402e-01,1.06491e-04,9.99845e-01
5.991161043e-01,1.26307e-04,9.99999e-01,9.99999e-01,9.99999e-01,9.90065e-01,1.27580e-04,9.99951e-01
6.021116848e-01,1.51441e-04,9.99999e-01,9.99999e-01,9.99999e-01,9.94354e-01,1.52302e-04,9.99994e-01
6.051222432e-01,1.80660e-04,9.99999e-01,9.99999e-01,9.99999e-01,9.97140e-01,1.81178e-04,9.99999e-01
6.081478544e-01,2.14526e-04,9.99999e-01,9.99999e-01,9.99999e-01,9.98764e-01,2.14792e-04,9.99999e-01
6.111885937e-01,2.53654e-04,9.99999e-01,9.99999e-01,9.99999e-01,9.99477e-01,2.53787e-04,9.99999e-01
6.142445367e-01,2.98805e-04,9.99999e-01,9.99999e-01,9.99999e-01,9.99766e-01,2.98875e-04,9.99999e-01
6.173157594e-01,3.50794e-04,9.99999e-01,9.99999e-01,9.99999e-01,9.99870e-01,3.50839e-04,9.99999e-01
6.204023382e-01,4.10490e-04,9.99999e-01,9.99999e-01,9.99999e-01,9.99890e-01,4.10535e-04,9.99999e-01
6.235043498e-01,4.78668e-04,9.99999e-01,9.99999e-01,9.99999e-01,9.99516e-01,4.78900e-04,9.99998e-01
6.266218716e-01,5.55527e-04,9.99999e-01,9.99999e-01,9.99999e-01,9.97458e-01,5.56953e-04,9.99981e-01
6.297549810e-01,6.45172e-04,9.99999e-01,9.99999e-01,9.99999e-01,9.99067e-01,6.45798e-04,9.99963e-01
6.329037559e-01,7.45233e-04,9.99999e-01,9.99999e-01,9.99999e-01,9.98158e-01,7.46629e-04,9.99970e-01
6.360682746e-01,8.59368e-04,9.99999e-01,9.99999e-01,9.99999e-01,9.98429e-01,8.60734e-04,9.99982e-01
6.392486160e-01,9.87474e-04,9.99999e-01,9.99999e-01,9.99999e-01,9.97966e-01,9.89493e-04,9.99992e-01
6.424448591e-01,1.13128e-03,9.99999e-01,9.99999e-01,9.99999e-01,9.97271e-01,1.13439e-03,9.99987e-01
6.456570834e-01,1.28056e-03,9.99999e-01,9.99999e-01,9.99999e-01,9.87400e-01,1.29699e-03,9.99929e-01
6.488853688e-01,1.46509e-03,9.99999e-01,9.99999e-01,9.99999e-01,9.90799e-01,1.47898e-03,9.99803e-01
6.521297956e-01,1.66611e-03,9.99999e-01,9.99999e-01,9.99999e-01,9.90626e-01,1.68214e-03,9.99837e-01
6.553904446e-01,1.89027e-03,9.99999e-01,9.99999e-01,9.99999e-01,9.90642e-01,1.90836e-03,9.99879e-01
6.586673968e-01,2.14223e-03,9.99999e-01,9.99999e-01,9.99999e-01,9.91996e-01,2.15960e-03,9.99959e-01
6.619607338e-01,2.42704e-03,9.99999e-01,9.99999e-01,9.99999e-01,9.95531e-01,2.43796e-03,9.99990e-01
6.652705375e-01,2.73823e-03,9.99999e-01,9.99999e-01,9.99999e-01,9.97315e-01,2.74561e-03,9.99995e-01
6.685968902e-01,3.08131e-03,9.99999e-01,9.99999e-01,9.99999e-01,9.98858e-01,3.08483e-03,9.99998e-01
6.719398746e-01,3.45601e-03,9.99999e-01,9.99999e-01,9.99999e-01,9.99422e-01,3.45801e-03,9.99999e-01
6.752995740e-01,3.86637e-03,9.99999e-01,9.99999e-01,9.99999e-01,9.99686e-01,3.86759e-03,9.99999e-01
6.786760719e-01,4.31416e-03,9.99999e-01,9.99999e-01,9.99999e-01,9.99545e-01,4.31613e-03,9.99998e-01
6.820694522e-01,4.80251e-03,9.99999e-01,9.99999e-01,9.99999e-01,9.99223e-01,4.80625e-03,9.99995e-01
6.854797995e-01,5.33529e-03,9.99999e-01,9.99999e-01,9.99999e-01,9.98998e-01,5.34068e-03,9.99990e-01
6.889071985e-01,5.90765e-03,9.99999e-01,9.99999e-01,9.99999e-01,9.97566e-01,5.92219e-03,9.99977e-01
6.923517345e-01,6.29799e-03,9.99999e-01,9.99999e-01,9.99999e-01,9.61174e-01,6.55362e-03,9.99810e-01
6.958134932e-01,7.08862e-03,9.99999e-01,9.99999e-01,9.99999e-01,9.79788e-01,7.23788e-03,9.99580e-01
6.992925606e-01,7.82024e-03,9.99999e-01,9.99999e-01,9.99999e-01,9.80606e-01,7.97791e-03,9.99621e-01
7.027890234e-01,8.56510e-03,9.99999e-01,9.99999e-01,9.99999e-01,9.76170e-01,8.77672e-03,9.99710e-01
7.063029686e-01,9.44233e-03,9.99999e-01,9.99999e-01,9.99999e-01,9.79906e-01,9.63732e-03,9.99855e-01
7.098344834e-01,1.03581e-02,9.99999e-01,9.99999e-01,9.99999e-01,9.80708e-01,1.05628e-02,9.99914e-01
7.133836558e-01,1.12576e-02,9.99999e-01,9.99999e-01,9.99999e-01,9.74325e-01,1.15562e-02,9.99830e-01
7.169505741e-01,1.02639e-02,9.99999e-01,9.99999e-01,9.99999e-01,8.14347e-01,1.26205e-02,9.98671e-01
7.205353270e-01,1.24148e-02,9.99999e-01,9.99999e-01,9.99999e-01,9.04425e-01,1.37590e-02,9.97657e-01
7.241380036e-01,1.31407e-02,9.99999e-01,9.99999e-01,9.99999e-01,8.79315e-01,1.49745e-02,9.97977e-01
7.277586936e-01,1.44649e-02,9.99999e-01,9.99999e-01,9.99999e-01,8.90508e-01,1.62703e-02,9.98346e-01
7.313974871e-01,1.55851e-02,9.99999e-01,9.99999e-01,9.99999e-01,8.83732e-01,1.76492e-02,9.99224e-01
7.350544745e-01,1.78577e-02,9.99999e-01,9.99999e-01,9.99999e-01,9.34516e-01,1.91142e-02,9.99730e-01
7.387297469e-01,1.96591e-02,9.99999e-01,9.99999e-01,9.99999e-01,9.51290e-01,2.06682e-02,9.99876e-01
7.424233956e-01,2.17750e-02,9.99999e-01,9.99999e-01,9.99999e-01,9.75859e-01,2.23141e-02,9.99975e-01
7.461355126e-01,2.37008e-02,9.99999e-01,9.99999e-01,9.99999e-01,9.85290e-01,2.40547e-02,9.99995e-01
7.498661902e-01,2.57147e-02,9.99999e-01,9.99999e-01,9.99999e-01,9.93131e-01,2.58926e-02,9.99998e-01
7.536155211e-01,2.77363e-02,9.99999e-01,9.99999e-01,9.99999e-01,9.96621e-01,2.78304e-02,9.99998e-01
7.573835987e-01,2.98186e-02,9.99999e-01,9.99999e-01,9.99999e-01,9.98260e-01,2.98706e-02,9.99999e-01
7.611705167e-01,3.19810e-02,9.99999e-01,9.99999e-01,9.99999e-01,9.98918e-01,3.20156e-02,9.99999e-01
7.649763693e-01,3.42444e-02,9.99999e-01,9.99999e-01,9.99999e-01,9.99321e-01,3.42676e-02,9.99999e-01
7.688012511e-01,3.66116e-02,9.99999e-01,9.99999e-01,9.99999e-01,9.99527e-01,3.66289e-02,9.99999e-01
7.726452574e-01,3.90861e-02,9.99999e-01,9.99999e-01,9.99999e-01,9.99610e-01,3.91013e-02,9.99999e-01
7.765084837e-01,4.16638e-02,9.99999e-01,9.99999e-01,9.99999e-01,9.99445e-01,4.16869e-02,9.99998e-01
7.803910261e-01,3.94066e-02,9.99999e-01,9.99999e-01,8.89711e-01,9.97605e-01,4.43872e-02,9.99997e-01
7.842929812e-01,2.58380e-02,9.99999e-01,9.99999e-01,5.51283e-01,9.91667e-01,4.72039e-02,9.99984e-01
7.882144461e-01,2.64163e-02,9.99999e-01,9.99999e-01,5.34912e-01,9.82951e-01,5.01384e-02,9.99881e-01
7.921555184e-01,3.55671e-02,9.99999e-01,9.99999e-01,6.74572e-01,9.90636e-01,5.31918e-02,9.99794e-01
7.961162960e-01,4.24417e-02,9.99999e-01,9.99999e-01,7.65336e-01,9.83448e-01,5.63654e-02,9.99804e-01
8.000968774e-01,5.06035e-02,9.99999e-01,9.99999e-01,8.64680e-01,9.80920e-01,5.96600e-02,9.99792e-01
8.040973618e-01,5.73778e-02,9.99999e-01,9.99999e-01,9.27355e-01,9.80913e-01,6.30763e-02,9.99841e-01
8.081178486e-01,6.16137e-02,9.99999e-01,9.99999e-01,9.65865e-01,9.57517e-01,6.66150e-02,9.99839e-01
8.121584379e-01,5.81062e-02,9.99999e-01,9.99999e-01,9.89369e-01,8.35853e-01,7.02764e-02,9.99393e-01
8.162192301e-01,5.96763e-02,9.99999e-01,9.99999e-01,9.97642e-01,8.09380e-01,7.40607e-02,9.97721e-01
8.203003262e-01,7.01113e-02,9.99999e-01,9.99999e-01,9.99965e-01,9.01655e-01,7.79680e-02,9.97332e-01
8.244018279e-01,7.10041e-02,9.99999e-01,9.99999e-01,9.99999e-01,8.67766e-01,8.19981e-02,9.97876e-01
8.285238370e-01,7.57253e-02,9.99999e-01,9.99999e-01,9.99999e-01,8.80454e-01,8.61507e-02,9.98331e-01
8.326664562e-01,7.94875e-02,9.99999e-01,9.99999e-01,9.99999e-01,8.79646e-01,9.04253e-02,9.99309e-01
8.368297885e-01,8.64603e-02,9.99999e-01,9.99999e-01,9.99999e-01,9.11966e-01,9.48213e-02,9.99841e-01
8.410139374e-01,9.40290e-02,9.99999e-01,9.99999e-01,9.99999e-01,9.46645e-01,9.93378e-02,9.99907e-01
8.452190071e-01,1.01208e-01,9.99999e-01,9.99999e-01,9.99999e-01,9.73452e-01,1.03974e-01,9.99944e-01
8.494451021e-01,1.07037e-01,9.99999e-01,9.99999e-01,9.99999e-01,9.84484e-01,1.08728e-01,9.99955e-01
8.536923276e-01,1.12552e-01,9.99999e-01,9.99999e-01,9.99999e-01,9.90808e-01,1.13600e-01,9.99972e-01
8.579607893e-01,1.17913e-01,9.99999e-01,9.99999e-01,9.99999e-01,9.94324e-01,1.18587e-01,9.99993e-01
8.622505932e-01,1.23241e-01,9.99999e-01,9.99999e-01,9.99999e-01,9.96393e-01,1.23687e-01,9.99998e-01
8.665618462e-01,1.09246e-01,9.99999e-01,9.99999e-01,8.49279e-01,9.97765e-01,1.28900e-01,9.99998e-01
8.708946554e-01,3.14758e-02,9.99999e-01,9.99999e-01,2.35041e-01,9.97439e-01,1.34224e-01,9.99998e-01
8.752491287e-01,4.08669e-02,9.99999e-01,9.99999e-01,2.93547e-01,9.96576e-01,1.39655e-01,9.99995e-01
8.796253743e-01,7.22463e-02,9.99999e-01,9.99999e-01,4.99723e-01,9.95257e-01,1.45192e-01,9.99988e-01
8.840235012e-01,1.03703e-01,9.99999e-01,9.99999e-01,6.91072e-01,9.94586e-01,1.50833e-01,9.99966e-01
8.884436187e-01,1.32612e-01,9.99999e-01,9.99999e-01,8.63304e-01,9.80377e-01,1.56576e-01,9.99905e-01
8.928858368e-01,1.24807e-01,9.99999e-01,9.99999e-01,9.41926e-01,8.14484e-01,1.62417e-01,9.99458e-01
8.973502660e-01,1.15628e-01,9.99999e-01,9.99999e-01,9.85599e-01,6.97972e-01,1.68354e-01,9.97228e-01
9.018370173e-01,1.44385e-01,9.99999e-01,9.99999e-01,9.98403e-01,8.32762e-01,1.74384e-01,9.95646e-01
9.063462024e-01,1.47494e-01,9.99999e-01,9.99999e-01,9.60442e-01,8.49765e-01,1.80505e-01,9.96174e-01
9.108779334e-01,1.31986e-01,9.99999e-01,9.99999e-01,9.10102e-01,7.76392e-01,1.86713e-01,9.96025e-01
9.154323231e-01,1.41245e-01,9.99999e-01,9.99999e-01,9.78189e-01,7.49229e-01,1.93006e-01,9.96713e-01
9.200094847e-01,1.26397e-01,9.99999e-01,9.99999e-01,7.67283e-01,7.98586e-01,1.99380e-01,9.98159e-01
9.246095321e-01,9.48928e-02,9.99999e-01,9.99999e-01,6.33168e-01,7.12793e-01,2.05833e-01,9.97879e-01
9.292325798e-01,2.07627e-02,9.99999e-01,9.99999e-01,7.04634e-01,1.28292e-01,2.12361e-01,9.91755e-01
9.338787427e-01,1.11363e-02,9.99999e-01,9.99999e-01,7.09468e-01,6.85395e-02,2.18961e-01,9.66356e-01
9.385481364e-01,5.85503e-02,9.99999e-01,9.99999e-01,7.74720e-01,3.34815e-01,2.25630e-01,9.60114e-01
9.432408771e-01,4.57741e-02,9.99999e-01,9.99999e-01,8.54336e-01,2.33152e-01,2.32364e-01,9.65494e-01
9.479570815e-01,2.83356e-02,9.99999e-01,9.99999e-01,9.22224e-01,1.30596e-01,2.39160e-01,9.71825e-01
9.526968669e-01,4.81110e-02,9.99999e-01,9.99999e-01,9.61795e-01,2.05150e-01,2.46015e-01,9.82719e-01
9.574603512e-01,5.43314e-02,9.99999e-01,9.99999e-01,9.83461e-01,2.19586e-01,2.52924e-01,9.91184e-01
9.622476530e-01,7.29645e-02,9.99999e-01,9.99999e-01,9.94812e-01,2.83649e-01,2.59886e-01,9.93895e-01
9.670588912e-01,1.27088e-01,9.99999e-01,9.99999e-01,9.98444e-01,4.78772e-01,2.66896e-01,9.95821e-01
9.718941857e-01,1.69354e-01,9.99999e-01,9.99999e-01,9.99890e-01,6.20149e-01,2.73952e-01,9.96922e-01
9.767536566e-01,1.88407e-01,9.99999e-01,9.99999e-01,9.99999e-01,6.71952e-01,2.81048e-01,9.97646e-01
9.816374249e-01,2.14066e-01,9.99999e-01,9.99999e-01,9.99999e-01,7.43416e-01,2.88183e-01,9.99184e-01
9.865456120e-01,2.45173e-01,9.99999e-01,9.99999e-01,9.99999e-01,8.30240e-01,2.95353e-01,9.99829e-01
9.914783401e-01,2.69570e-01,9.99999e-01,9.99999e-01,9.99999e-01,8.91021e-01,3.02555e-01,9.99952e-01
9.964357318e-01,2.90905e-01,9.99999e-01,9.99999e-01,9.99999e-01,9.39082e-01,3.09784e-01,9.99972e-01
1.001417910e+00,3.05298e-01,9.99999e-01,9.99999e-01,9.99999e-01,9.63007e-01,3.17039e-01,9.99957e-01
1.006425000e+00,3.17394e-01,9.99999e-01,9.99999e-01,9.99999e-01,9.78718e-01,3.24315e-01,9.99939e-01
1.011457125e+00,3.27198e-01,9.99999e-01,9.99999e-01,9.99999e-01,9.86751e-01,3.31609e-01,9.99943e-01
1.016514411e+00,3.35849e-01,9.99999e-01,9.99999e-01,9.99999e-01,9.90982e-01,3.38918e-01,9.99960e-01
1.021596983e+00,3.43657e-01,9.99999e-01,9.99999e-01,9.99770e-01,9.92806e-01,3.46240e-01,9.99960e-01
1.026704968e+00,3.45978e-01,9.99999e-01,9.99999e-01,9.84049e-01,9.94384e-01,3.53570e-01,9.99975e-01
1.031838492e+00,3.17288e-01,9.99999e-01,9.99999e-01,8.82518e-01,9.95918e-01,3.60906e-01,9.99992e-01
1.036997685e+00,1.27628e-02,9.99999e-01,9.99999e-01,3.47218e-02,9.97572e-01,3.68245e-01,9.99998e-01
1.042182673e+00,3.00523e-04,9.99999e-01,9.99999e-01,8.01847e-04,9.97102e-01,3.75583e-01,9.99999e-01
1.047393587e+00,8.77751e-04,9.99999e-01,9.99999e-01,2.29944e-03,9.96161e-01,3.82919e-01,9.99998e-01
1.052630555e+00,7.71630e-09,9.99999e-01,9.99999e-01,1.98372e-08,9.94733e-01,3.90249e-01,9.99998e-01
1.057893707e+00,2.90760e-08,9.99999e-01,9.99999e-01,7.34466e-08,9.91219e-01,3.97570e-01,9.99996e-01
1.063183176e+00,2.52174e-06,9.99999e-01,9.99999e-01,6.27755e-06,9.85600e-01,4.04880e-01,9.99991e-01
1.068499092e+00,4.08551e-05,9.99999e-01,9.99999e-01,1.00549e-04,9.76021e-01,4.12176e-01,9.99983e-01
1.073841587e+00,1.02001e-03,9.99999e-01,9.99999e-01,2.47860e-03,9.72015e-01,4.19455e-01,9.99963e-01
