#,Wave/freq,Total,N2,O2,CO2,H2O,Rayleigh,CIA
4.000000000e-01,2.86544e-03,9.99999e-01,9.99999e-01,9.99999e-01,9.99988e-01,2.86548e-03,9.99999e-01
4.020000000e-01,3.21715e-03,9.99999e-01,9.99999e-01,9.99999e-01,9.99992e-01,3.21718e-03,9.99999e-01
4.040100000e-01,3.60336e-03,9.99999e-01,9.99999e-01,9.99999e-01,9.99996e-01,3.60337e-03,9.99999e-01
4.060300500e-01,4.02689e-03,9.99999e-01,9.99999e-01,9.99999e-01,9.99998e-01,4.02689e-03,9.99999e-01
4.080602003e-01,4.49032e-03,9.99999e-01,9.99999e-01,9.99999e-01,9.99999e-01,4.49032e-03,9.99999e-01
4.101005013e-01,4.99632e-03,9.99999e-01,9.99999e-01,9.99999e-01,9.99999e-01,4.99632e-03,9.99999e-01
4.121510038e-01,5.54763e-03,9.99999e-01,9.99999e-01,9.99999e-01,9.99999e-01,5.54764e-03,9.99999e-01
4.142117588e-01,6.14704e-03,9.99999e-01,9.99999e-01,9.99999e-01,9.99996e-01,6.14706e-03,9.99999e-01
4.162828176e-01,6.79737e-03,9.99999e-01,9.99999e-01,9.99999e-01,9.99985e-01,6.79746e-03,9.99999e-01
4.183642317e-01,7.50170e-03,9.99999e-01,9.99999e-01,9.99999e-01,9.99991e-01,7.50176e-03,9.99999e-01
4.204560528e-01,8.26289e-03,9.99999e-01,9.99999e-01,9.99999e-01,9.99994e-01,8.26293e-03,9.99999e-01
4.225583331e-01,9.08396e-03,9.99999e-01,9.99999e-01,9.99999e-01,9.99997e-01,9.08397e-03,9.99999e-01
4.246711247e-01,9.96791e-03,9.99999e-01,9.99999e-01,9.99999e-01,9.99997e-01,9.96793e-03,9.99999e-01
4.267944804e-01,1.09178e-02,9.99999e-01,9.99999e-01,9.99999e-01,9.99997e-01,1.09179e-02,9.99999e-01
4.289284528e-01,1.19368e-02,9.99999e-01,9.99999e-01,9.99999e-01,9.99997e-01,1.19368e-02,9.99999e-01
4.310730950e-01,1.30279e-02,9.99999e-01,9.99999e-01,9.99999e-01,9.99998e-01,1.30279e-02,9.99999e-01
4.332284605e-01,1.41942e-02,9.99999e-01,9.99999e-01,9.99999e-01,9.99999e-01,1.41942e-02,9.99999e-01
4.353946028e-01,1.54387e-02,9.99999e-01,9.99999e-01,9.99999e-01,9.99999e-01,1.54387e-02,9.99999e-01
4.375715758e-01,1.67645e-02,9.99999e-01,9.99999e-01,9.99999e-01,9.99998e-01,1.67645e-02,9.99999e-01
4.397594337e-01,1.81743e-02,9.99999e-01,9.99999e-01,9.99999e-01,9.99987e-01,1.81745e-02,9.99999e-01
4.419582309e-01,1.96705e-02,9.99999e-01,9.99999e-01,9.99999e-01,9.99937e-01,1.96718e-02,9.99999e-01
4.441680220e-01,2.12580e-02,9.99999e-01,9.99999e-01,9.99999e-01,9.99950e-01,2.12591e-02,9.99999e-01
4.463888621e-01,2.29381e-02,9.99999e-01,9.99999e-01,9.99999e-01,9.99948e-01,2.29393e-02,9.99999e-01
4.486208064e-01,2.47143e-02,9.99999e-01,9.99999e-01,9.99999e-01,9.99968e-01,2.47151e-02,9.99999e-01
4.508639105e-01,2.65888e-02,9.99999e-01,9.99999e-01,9.99999e-01,9.99984e-01,2.65892e-02,9.99999e-01
4.531182300e-01,2.85640e-02,9.99999e-01,9.99999e-01,9.99999e-01,9.99993e-01,2.85641e-02,9.99999e-01
4.553838212e-01,3.06422e-02,9.99999e-01,9.99999e-01,9.99999e-01,9.99995e-01,3.06424e-02,9.99999e-01
4.576607403e-01,3.28262e-02,9.99999e-01,9.99999e-01,9.99999e-01,9.99997e-01,3.28262e-02,9.99999e-01
4.599490440e-01,3.51179e-02,9.99999e-01,9.99999e-01,9.99999e-01,9.99998e-01,3.51180e-02,9.99999e-01
4.622487892e-01,3.75197e-02,9.99999e-01,9.99999e-01,9.99999e-01,9.99999e-01,3.75197e-02,9.99999e-01
4.645600332e-01,4.00332e-02,9.99999e-01,9.99999e-01,9.99999e-01,9.99998e-01,4.00332e-02,9.99999e-01
4.668828333e-01,4.26599e-02,9.99999e-01,9.99999e-01,9.99999e-01,9.99984e-01,4.26606e-02,9.99999e-01
4.692172475e-01,4.54018e-02,9.99999e-01,9.99999e-01,9.99999e-01,9.99967e-01,4.54032e-02,9.99999e-01
4.715633337e-01,4.82618e-02,9.99999e-01,9.99999e-01,9.99999e-01,9.99978e-01,4.82628e-02,9.99999e-01
4.739211504e-01,5.12396e-02,9.99999e-01,9.99999e-01,9.99999e-01,9.99979e-01,5.12406e-02,9.99999e-01
4.762907561e-01,5.43373e-02,9.99999e-01,9.99999e-01,9.99999e-01,9.99989e-01,5.43379e-02,9.99999e-01
4.786722099e-01,5.75554e-02,9.99999e-01,9.99999e-01,9.99999e-01,9.99995e-01,5.75556e-02,9.99999e-01
4.810655710e-01,6.08946e-02,9.99999e-01,9.99999e-01,9.99999e-01,9.99998e-01,6.08946e-02,9.99999e-01
4.834708988e-01,6.43549e-02,9.99999e-01,9.99999e-01,9.99999e-01,9.99987e-01,6.43556e-02,9.99999e-01
4.858882533e-01,6.79376e-02,9.99999e-01,9.99999e-01,9.99999e-01,9.99977e-01,6.79391e-02,9.99999e-01
4.883176946e-01,7.16441e-02,9.99999e-01,9.99999e-01,9.99999e-01,9.99980e-01,7.16454e-02,9.99999e-01
4.907592831e-01,7.54734e-02,9.99999e-01,9.99999e-01,9.99999e-01,9.99982e-01,7.54747e-02,9.99999e-01
4.932130795e-01,7.94259e-02,9.99999e-01,9.99999e-01,9.99999e-01,9.99987e-01,7.94269e-02,9.99999e-01
4.956791449e-01,8.35013e-02,9.99999e-01,9.99999e-01,9.99999e-01,9.99993e-01,8.35018e-02,9.99999e-01
4.981575406e-01,8.76963e-02,9.99999e-01,9.99999e-01,9.99999e-01,9.99967e-01,8.76991e-02,9.99999e-01
5.006483283e-01,9.20105e-02,9.99999e-01,9.99999e-01,9.99999e-01,9.99916e-01,9.20182e-02,9.99998e-01
5.031515699e-01,9.64175e-02,9.99999e-01,9.99999e-01,9.99999e-01,9.99580e-01,9.64583e-02,9.99995e-01
5.056673278e-01,1.00996e-01,9.99999e-01,9.99999e-01,9.99999e-01,9.99778e-01,1.01019e-01,9.99994e-01
5.081956644e-01,1.05668e-01,9.99999e-01,9.99999e-01,9.99999e-01,9.99720e-01,1.05698e-01,9.99996e-01
5.107366428e-01,1.10474e-01,9.99999e-01,9.99999e-01,9.99999e-01,9.99811e-01,1.10495e-01,9.99998e-01
5.132903260e-01,1.15397e-01,9.99999e-01,9.99999e-01,9.99999e-01,9.99891e-01,1.15409e-01,9.99999e-01
5.158567776e-01,1.20432e-01,9.99999e-01,9.99999e-01,9.99999e-01,9.99954e-01,1.20438e-01,9.99999e-01
5.184360615e-01,1.25578e-01,9.99999e-01,9.99999e-01,9.99999e-01,9.99981e-01,1.25580e-01,9.99999e-01
5.210282418e-01,1.30833e-01,9.99999e-01,9.99999e-01,9.99999e-01,9.99992e-01,1.30834e-01,9.99999e-01
5.236333830e-01,1.36193e-01,9.99999e-01,9.99999e-01,9.99999e-01,9.99972e-01,1.36197e-01,9.99999e-01
5.262515499e-01,1.41664e-01,9.99999e-01,9.99999e-01,9.99999e-01,9.99982e-01,1.41667e-01,9.99999e-01
5.288828077e-01,1.47240e-01,9.99999e-01,9.99999e-01,9.99999e-01,9.99983e-01,1.47242e-01,9.99999e-01
5.315272217e-01,1.52919e-01,9.99999e-01,9.99999e-01,9.99999e-01,9.99985e-01,1.52921e-01,9.99999e-01
5.341848578e-01,1.58698e-01,9.99999e-01,9.99999e-01,9.99999e-01,9.99990e-01,1.58699e-01,9.99999e-01
5.368557821e-01,1.64571e-01,9.99999e-01,9.99999e-01,9.99999e-01,9.99967e-01,1.64576e-01,9.99999e-01
5.395400610e-01,1.70527e-01,9.99999e-01,9.99999e-01,9.99999e-01,9.99884e-01,1.70547e-01,9.99998e-01
5.422377613e-01,1.76584e-01,9.99999e-01,9.99999e-01,9.99999e-01,9.99851e-01,1.76611e-01,9.99996e-01
5.449489501e-01,1.82738e-01,9.99999e-01,9.99999e-01,9.99999e-01,9.99861e-01,1.82764e-01,9.99996e-01
5.476736949e-01,1.88980e-01,9.99999e-01,9.99999e-01,9.99999e-01,9.99877e-01,1.89004e-01,9.99998e-01
5.504120634e-01,1.95309e-01,9.99999e-01,9.99999e-01,9.99999e-01,9.99910e-01,1.95327e-01,9.99999e-01
5.531641237e-01,2.01721e-01,9.99999e-01,9.99999e-01,9.99999e-01,9.99954e-01,2.01730e-01,9.99999e-01
5.559299443e-01,2.08206e-01,9.99999e-01,9.99999e-01,9.99999e-01,9.99978e-01,2.08211e-01,9.99999e-01
5.587095940e-01,2.14763e-01,9.99999e-01,9.99999e-01,9.99999e-01,9.99986e-01,2.14766e-01,9.99999e-01
5.615031420e-01,2.21388e-01,9.99999e-01,9.99999e-01,9.99999e-01,9.99984e-01,2.21391e-01,9.99999e-01
5.643106577e-01,2.28080e-01,9.99999e-01,9.99999e-01,9.99999e-01,9.99982e-01,2.28084e-01,9.99999e-01
5.671322110e-01,2.34792e-01,9.99999e-01,9.99999e-01,9.99999e-01,9.99791e-01,2.34841e-01,9.99997e-01
5.699678720e-01,2.41604e-01,9.99999e-01,9.99999e-01,9.99999e-01,9.99779e-01,2.41659e-01,9.99993e-01
5.728177114e-01,2.48476e-01,9.99999e-01,9.99999e-01,9.99999e-01,9.99770e-01,2.48534e-01,9.99994e-01
5.756818000e-01,2.55409e-01,9.99999e-01,9.99999e-01,9.99999e-01,9.99789e-01,2.55463e-01,9.99996e-01
5.785602090e-01,2.62395e-01,9.99999e-01,9.99999e-01,9.99999e-01,9.99816e-01,2.62443e-01,9.99998e-01
5.814530100e-01,2.69420e-01,9.99999e-01,9.99999e-01,9.99999e-01,9.99815e-01,2.69470e-01,9.99999e-01
5.843602750e-01,2.76480e-01,9.99999e-01,9.99999e-01,9.99999e-01,9.99779e-01,2.76541e-01,9.99998e-01
5.872820764e-01,2.83111e-01,9.99999e-01,9.99999e-01,9.99999e-01,9.98103e-01,2.83652e-01,9.99986e-01
5.902184868e-01,2.90123e-01,9.99999e-01,9.99999e-01,9.99999e-01,9.97704e-01,2.90800e-01,9.99963e-01
5.931695792e-01,2.97489e-01,9.99999e-01,9.99999e-01,9.99999e-01,9.98377e-01,2.97982e-01,9.99964e-01
5.961354271e-01,3.04646e-01,9.99999e-01,9.99999e-01,9.99999e-01,9.98222e-01,3.05194e-01,9.99979e-01
5.991161043e-01,3.12026e-01,9.99999e-01,9.99999e-01,9.99999e-01,9.98703e-01,3.12433e-01,9.99993e-01
6.021116848e-01,3.19461e-01,9.99999e-01,9.99999e-01,9.99999e-01,9.99264e-01,3.19696e-01,9.99998e-01
6.051222432e-01,3.26857e-01,9.99999e-01,9.99999e-01,9.99999e-01,9.99627e-01,3.26979e-01,9.99999e-01
6.081478544e-01,3.34225e-01,9.99999e-01,9.99999e-01,9.99999e-01,9.99839e-01,3.34279e-01,9.99999e-01
6.111885937e-01,3.41570e-01,9.99999e-01,9.99999e-01,9.99999e-01,9.99931e-01,3.41593e-01,9.99999e-01
6.142445367e-01,3.48908e-01,9.99999e-01,9.99999e-01,9.99999e-01,9.99969e-01,3.48918e-01,9.99999e-01
6.173157594e-01,3.56245e-01,9.99999e-01,9.99999e-01,9.99999e-01,9.99982e-01,3.56251e-01,9.99999e-01
6.204023382e-01,3.63583e-01,9.99999e-01,9.99999e-01,9.99999e-01,9.99985e-01,3.63588e-01,9.99999e-01
6.235043498e-01,3.70904e-01,9.99999e-01,9.99999e-01,9.99999e-01,9.99937e-01,3.70927e-01,9.99999e-01
6.266218716e-01,3.78139e-01,9.99999e-01,9.99999e-01,9.99999e-01,9.99669e-01,3.78265e-01,9.99997e-01
6.297549810e-01,3.85551e-01,9.99999e-01,9.99999e-01,9.99999e-01,9.99878e-01,3.85599e-01,9.99994e-01
6.329037559e-01,3.92831e-01,9.99999e-01,9.99999e-01,9.99999e-01,9.99760e-01,3.92926e-01,9.99995e-01
6.360682746e-01,4.00161e-01,9.99999e-01,9.99999e-01,9.99999e-01,9.99795e-01,4.00243e-01,9.99997e-01
6.392486160e-01,4.07440e-01,9.99999e-01,9.99999e-01,9.99999e-01,9.99735e-01,4.07548e-01,9.99998e-01
6.424448591e-01,4.14691e-01,9.99999e-01,9.99999e-01,9.99999e-01,9.99645e-01,4.14839e-01,9.99997e-01
6.456570834e-01,4.21414e-01,9.99999e-01,9.99999e-01,9.99999e-01,9.98357e-01,4.22111e-01,9.99990e-01
6.488853688e-01,4.28837e-01,9.99999e-01,9.99999e-01,9.99999e-01,9.98798e-01,4.29364e-01,9.99974e-01
6.521297956e-01,4.36051e-01,9.99999e-01,9.99999e-01,9.99999e-01,9.98774e-01,4.36595e-01,9.99978e-01
6.553904446e-01,4.43252e-01,9.99999e-01,9.99999e-01,9.99999e-01,9.98780e-01,4.43800e-01,9.99983e-01
6.586673968e-01,4.50506e-01,9.99999e-01,9.99999e-01,9.99999e-01,9.98955e-01,4.50979e-01,9.99994e-01
6.619607338e-01,4.57862e-01,9.99999e-01,9.99999e-01,9.99999e-01,9.99417e-01,4.58129e-01,9.99998e-01
6.652705375e-01,4.65085e-01,9.99999e-01,9.99999e-01,9.99999e-01,9.99650e-01,4.65248e-01,9.99998e-01
6.685968902e-01,4.72256e-01,9.99999e-01,9.99999e-01,9.99999e-01,9.99837e-01,4.72333e-01,9.99999e-01
6.719398746e-01,4.79347e-01,9.99999e-01,9.99999e-01,9.99999e-01,9.99924e-01,4.79383e-01,9.99999e-01
6.752995740e-01,4.86376e-01,9.99999e-01,9.99999e-01,9.99999e-01,9.99958e-01,4.86396e-01,9.99999e-01
6.786760719e-01,4.93341e-01,9.99999e-01,9.99999e-01,9.99999e-01,9.99940e-01,4.93370e-01,9.99999e-01
6.820694522e-01,5.00252e-01,9.99999e-01,9.99999e-01,9.99999e-01,9.99898e-01,5.00303e-01,9.99998e-01
6.854797995e-01,5.07128e-01,9.99999e-01,9.99999e-01,9.99999e-01,9.99869e-01,5.07194e-01,9.99998e-01
6.889071985e-01,5.13878e-01,9.99999e-01,9.99999e-01,9.99999e-01,9.99684e-01,5.14041e-01,9.99996e-01
6.923517345e-01,5.18154e-01,9.99999e-01,9.99999e-01,9.99999e-01,9.94862e-01,5.20842e-01,9.99974e-01
6.958134932e-01,5.26160e-01,9.99999e-01,9.99999e-01,9.99999e-01,9.97331e-01,5.27596e-01,9.99945e-01
6.992925606e-01,5.32920e-01,9.99999e-01,9.99999e-01,9.99999e-01,9.97460e-01,5.34302e-01,9.99950e-01
7.027890234e-01,5.39244e-01,9.99999e-01,9.99999e-01,9.99999e-01,9.96867e-01,5.40959e-01,9.99962e-01
7.063029686e-01,5.46112e-01,9.99999e-01,9.99999e-01,9.99999e-01,9.97366e-01,5.47564e-01,9.99980e-01
7.098344834e-01,5.52711e-01,9.99999e-01,9.99999e-01,9.99999e-01,9.97473e-01,5.54117e-01,9.99988e-01
7.133836558e-01,5.58713e-01,9.99999e-01,9.99999e-01,9.99999e-01,9.96626e-01,5.60616e-01,9.99977e-01
7.169505741e-01,5.51700e-01,9.99999e-01,9.99999e-01,9.99999e-01,9.73077e-01,5.67061e-01,9.99827e-01
7.205353270e-01,5.65697e-01,9.99999e-01,9.99999e-01,9.99999e-01,9.86777e-01,5.73451e-01,9.99695e-01
7.241380036e-01,5.69904e-01,9.99999e-01,9.99999e-01,9.99999e-01,9.83216e-01,5.79785e-01,9.99736e-01
7.277586936e-01,5.77054e-01,9.99999e-01,9.99999e-01,9.99999e-01,9.84842e-01,5.86061e-01,9.99784e-01
7.313974871e-01,5.82695e-01,9.99999e-01,9.99999e-01,9.99999e-01,9.83916e-01,5.92279e-01,9.99898e-01
7.350544745e-01,5.93146e-01,9.99999e-01,9.99999e-01,9.99999e-01,9.91190e-01,5.98439e-01,9.99964e-01
7.387297469e-01,6.00609e-01,9.99999e-01,9.99999e-01,9.99999e-01,9.93515e-01,6.04539e-01,9.99983e-01
7.424233956e-01,6.08638e-01,9.99999e-01,9.99999e-01,9.99999e-01,9.96824e-01,6.10579e-01,9.99996e-01
7.461355126e-01,6.15371e-01,9.99999e-01,9.99999e-01,9.99999e-01,9.98074e-01,6.16558e-01,9.99998e-01
7.498661902e-01,6.21918e-01,9.99999e-01,9.99999e-01,9.99999e-01,9.99103e-01,6.22475e-01,9.99999e-01
7.536155211e-01,6.28055e-01,9.99999e-01,9.99999e-01,9.99999e-01,9.99560e-01,6.28331e-01,9.99999e-01
7.573835987e-01,6.33982e-01,9.99999e-01,9.99999e-01,9.99999e-01,9.99773e-01,6.34125e-01,9.99999e-01
7.611705167e-01,6.39767e-01,9.99999e-01,9.99999e-01,9.99999e-01,9.99858e-01,6.39857e-01,9.99999e-01
7.649763693e-01,6.45468e-01,9.99999e-01,9.99999e-01,9.99999e-01,9.99911e-01,6.45525e-01,9.99999e-01
7.688012511e-01,6.51090e-01,9.99999e-01,9.99999e-01,9.99999e-01,9.99938e-01,6.51130e-01,9.99999e-01
7.726452574e-01,6.56638e-01,9.99999e-01,9.99999e-01,9.99999e-01,9.99949e-01,6.56671e-01,9.99999e-01
7.765084837e-01,6.62102e-01,9.99999e-01,9.99999e-01,9.99999e-01,9.99927e-01,6.62149e-01,9.99999e-01
7.803910261e-01,6.54181e-01,9.99999e-01,9.99999e-01,9.80251e-01,9.99689e-01,6.67563e-01,9.99999e-01
7.842929812e-01,6.17362e-01,9.99999e-01,9.99999e-01,9.18414e-01,9.98915e-01,6.72913e-01,9.99997e-01
7.882144461e-01,6.17544e-01,9.99999e-01,9.99999e-01,9.12566e-01,9.97768e-01,6.78199e-01,9.99984e-01
7.921555184e-01,6.47576e-01,9.99999e-01,9.99999e-01,9.48720e-01,9.98776e-01,6.83421e-01,9.99972e-01
7.961162960e-01,6.63373e-01,9.99999e-01,9.99999e-01,9.65496e-01,9.97836e-01,6.88579e-01,9.99974e-01
8.000968774e-01,6.78885e-01,9.99999e-01,9.99999e-01,9.81153e-01,9.97502e-01,6.93673e-01,9.99972e-01
8.040973618e-01,6.90117e-01,9.99999e-01,9.99999e-01,9.90203e-01,9.97501e-01,6.98702e-01,9.99978e-01
8.081178486e-01,6.96538e-01,9.99999e-01,9.99999e-01,9.95490e-01,9.94366e-01,7.03668e-01,9.99979e-01
8.121584379e-01,6.91024e-01,9.99999e-01,9.99999e-01,9.98606e-01,9.76666e-01,7.08570e-01,9.99920e-01
8.162192301e-01,6.93274e-01,9.99999e-01,9.99999e-01,9.99692e-01,9.72360e-01,7.13408e-01,9.99703e-01
8.203003262e-01,7.07913e-01,9.99999e-01,9.99999e-01,9.99994e-01,9.86046e-01,7.18183e-01,9.99652e-01
8.244018279e-01,7.08638e-01,9.99999e-01,9.99999e-01,9.99999e-01,9.80549e-01,7.22894e-01,9.99723e-01
8.285238370e-01,7.15335e-01,9.99999e-01,9.99999e-01,9.99999e-01,9.83433e-01,7.27542e-01,9.99782e-01
8.326664562e-01,7.19803e-01,9.99999e-01,9.99999e-01,9.99999e-01,9.83252e-01,7.32128e-01,9.99909e-01
8.368297885e-01,7.27821e-01,9.99999e-01,9.99999e-01,9.99999e-01,9.88033e-01,7.36651e-01,9.99979e-01
8.410139374e-01,7.35825e-01,9.99999e-01,9.99999e-01,9.99999e-01,9.92878e-01,7.41111e-01,9.99987e-01
8.452190071e-01,7.42899e-01,9.99999e-01,9.99999e-01,9.99999e-01,9.96504e-01,7.45510e-01,9.99992e-01
8.494451021e-01,7.48322e-01,9.99999e-01,9.99999e-01,9.99999e-01,9.97970e-01,7.49848e-01,9.99993e-01
8.536923276e-01,7.53217e-01,9.99999e-01,9.99999e-01,9.99999e-01,9.98800e-01,7.54124e-01,9.99996e-01
8.579607893e-01,7.57778e-01,9.99999e-01,9.99999e-01,9.99999e-01,9.99260e-01,7.58339e-01,9.99998e-01
8.622505932e-01,7.62136e-01,9.99999e-01,9.99999e-01,9.99999e-01,9.99530e-01,7.62494e-01,9.99999e-01
8.665618462e-01,7.27446e-01,9.99999e-01,9.99999e-01,9.49207e-01,9.99709e-01,7.66589e-01,9.99999e-01
8.708946554e-01,6.18783e-01,9.99999e-01,9.99999e-01,8.03224e-01,9.99667e-01,7.70624e-01,9.99999e-01
8.752491287e-01,6.50279e-01,9.99999e-01,9.99999e-01,8.39870e-01,9.99554e-01,7.74600e-01,9.99999e-01
8.796253743e-01,7.07558e-01,9.99999e-01,9.99999e-01,9.09403e-01,9.99383e-01,7.78518e-01,9.99998e-01
8.840235012e-01,7.44425e-01,9.99999e-01,9.99999e-01,9.52158e-01,9.99295e-01,7.82378e-01,9.99995e-01
8.884436187e-01,7.69186e-01,9.99999e-01,9.99999e-01,9.80907e-01,9.97425e-01,7.86180e-01,9.99987e-01
8.928858368e-01,7.62695e-01,9.99999e-01,9.99999e-01,9.92226e-01,9.73125e-01,7.89924e-01,9.99929e-01
8.973502660e-01,7.54557e-01,9.99999e-01,9.99999e-01,9.98109e-01,9.52911e-01,7.93612e-01,9.99639e-01
9.018370173e-01,7.77267e-01,9.99999e-01,9.99999e-01,9.99791e-01,9.75693e-01,7.97244e-01,9.99433e-01
9.063462024e-01,7.79126e-01,9.99999e-01,9.99999e-01,9.94614e-01,9.78572e-01,8.00820e-01,9.99502e-01
9.108779334e-01,7.67773e-01,9.99999e-01,9.99999e-01,9.87751e-01,9.66788e-01,8.04342e-01,9.99482e-01
9.154323231e-01,7.74888e-01,9.99999e-01,9.99999e-01,9.97116e-01,9.62397e-01,8.07808e-01,9.99572e-01
9.200094847e-01,7.54275e-01,9.99999e-01,9.99999e-01,9.57501e-01,9.70412e-01,8.11221e-01,9.99760e-01
9.246095321e-01,7.31509e-01,9.99999e-01,9.99999e-01,9.41369e-01,9.53594e-01,8.14580e-01,9.99724e-01
9.292325798e-01,5.67355e-01,9.99999e-01,9.99999e-01,9.53503e-01,7.26011e-01,8.17887e-01,9.98925e-01
9.338787427e-01,5.17734e-01,9.99999e-01,9.99999e-01,9.55195e-01,6.60985e-01,8.21141e-01,9.95567e-01
9.385481364e-01,6.72095e-01,9.99999e-01,9.99999e-01,9.66944e-01,8.46663e-01,8.24343e-01,9.94730e-01
9.432408771e-01,6.38878e-01,9.99999e-01,9.99999e-01,9.79666e-01,7.91140e-01,8.27495e-01,9.95452e-01
9.479570815e-01,5.91104e-01,9.99999e-01,9.99999e-01,9.89517e-01,7.21612e-01,8.30595e-01,9.96297e-01
9.526968669e-01,6.50128e-01,9.99999e-01,9.99999e-01,9.94933e-01,7.85384e-01,8.33646e-01,9.97739e-01
9.574603512e-01,6.70083e-01,9.99999e-01,9.99999e-01,9.97831e-01,8.03510e-01,8.36648e-01,9.98851e-01
9.622476530e-01,7.02178e-01,9.99999e-01,9.99999e-01,9.99323e-01,8.37535e-01,8.39600e-01,9.99205e-01
9.670588912e-01,7.60248e-01,9.99999e-01,9.99999e-01,9.99796e-01,9.03034e-01,8.42505e-01,9.99456e-01
9.718941857e-01,7.93049e-01,9.99999e-01,9.99999e-01,9.99985e-01,9.38506e-01,8.45361e-01,9.99599e-01
9.767536566e-01,8.04414e-01,9.99999e-01,9.99999e-01,9.99999e-01,9.48699e-01,8.48171e-01,9.99693e-01
9.816374249e-01,8.18322e-01,9.99999e-01,9.99999e-01,9.99999e-01,9.61775e-01,8.50935e-01,9.99893e-01
9.865456120e-01,8.33116e-01,9.99999e-01,9.99999e-01,9.99999e-01,9.75964e-01,8.53652e-01,9.99977e-01
9.914783401e-01,8.43546e-01,9.99999e-01,9.99999e-01,9.99999e-01,9.85083e-01,8.56324e-01,9.99993e-01
9.964357318e-01,8.51950e-01,9.99999e-01,9.99999e-01,9.99999e-01,9.91851e-01,8.58952e-01,9.99995e-01
1.001417910e+00,8.57318e-01,9.99999e-01,9.99999e-01,9.99999e-01,9.95110e-01,8.61535e-01,9.99994e-01
1.006425000e+00,8.61658e-01,9.99999e-01,9.99999e-01,9.99999e-01,9.97209e-01,8.64075e-01,9.99991e-01
1.011457125e+00,8.65066e-01,9.99999e-01,9.99999e-01,9.99999e-01,9.98268e-01,8.66572e-01,9.99992e-01
1.016514411e+00,8.68001e-01,9.99999e-01,9.99999e-01,9.99999e-01,9.98823e-01,8.69027e-01,9.99994e-01
1.021596983e+00,8.70594e-01,9.99999e-01,9.99999e-01,9.99970e-01,9.99062e-01,8.71440e-01,9.99994e-01
1.026704968e+00,8.71341e-01,9.99999e-01,9.99999e-01,9.97903e-01,9.99268e-01,8.73812e-01,9.99996e-01
1.031838492e+00,8.49565e-01,9.99999e-01,9.99999e-01,9.70168e-01,9.99468e-01,8.76143e-01,9.99998e-01
1.036997685e+00,2.25130e-01,9.99999e-01,9.99999e-01,2.56352e-01,9.99684e-01,8.78435e-01,9.99999e-01
1.042182673e+00,2.58455e-01,9.99999e-01,9.99999e-01,2.93572e-01,9.99623e-01,8.80686e-01,9.99999e-01
1.047393587e+00,2.47588e-01,9.99999e-01,9.99999e-01,2.80552e-01,9.99500e-01,8.82899e-01,9.99999e-01
1.052630555e+00,2.89543e-02,9.99999e-01,9.99999e-01,3.27315e-02,9.99314e-01,8.85074e-01,9.99999e-01
1.057893707e+00,5.74232e-02,9.99999e-01,9.99999e-01,6.47800e-02,9.98856e-01,8.87211e-01,9.99999e-01
1.063183176e+00,1.21470e-01,9.99999e-01,9.99999e-01,1.36793e-01,9.98118e-01,8.89311e-01,9.99998e-01
1.068499092e+00,2.33315e-01,9.99999e-01,9.99999e-01,2.62491e-01,9.96850e-01,8.91374e-01,9.99997e-01
1.073841587e+00,3.83214e-01,9.99999e-01,9.99999e-01,4.30371e-01,9.96312e-01,8.93400e-01,9.99994e-01
