#,Wave/freq,Total,N2,O2,CO2,H2O,Rayleigh,CIA
4.000000000e-01,7.99196e-11,9.99999e-01,9.99999e-01,9.99999e-01,9.99954e-01,7.99231e-11,9.99999e-01
4.020000000e-01,1.26564e-10,9.99999e-01,9.99999e-01,9.99999e-01,9.99971e-01,1.26567e-10,9.99999e-01
4.040100000e-01,1.98527e-10,9.99999e-01,9.99999e-01,9.99999e-01,9.99987e-01,1.98529e-10,9.99999e-01
4.060300500e-01,3.08649e-10,9.99999e-01,9.99999e-01,9.99999e-01,9.99996e-01,3.08650e-10,9.99999e-01
4.080602003e-01,4.75689e-10,9.99999e-01,9.99999e-01,9.99999e-01,9.99998e-01,4.75689e-10,9.99999e-01
4.101005013e-01,7.26891e-10,9.99999e-01,9.99999e-01,9.99999e-01,9.99999e-01,7.26891e-10,9.99999e-01
4.121510038e-01,1.10148e-09,9.99999e-01,9.99999e-01,9.99999e-01,9.99997e-01,1.10148e-09,9.99999e-01
4.142117588e-01,1.65545e-09,9.99999e-01,9.99999e-01,9.99999e-01,9.99987e-01,1.65547e-09,9.99999e-01
4.162828176e-01,2.46800e-09,9.99999e-01,9.99999e-01,9.99999e-01,9.99944e-01,2.46814e-09,9.99999e-01
4.183642317e-01,3.65071e-09,9.99999e-01,9.99999e-01,9.99999e-01,9.99966e-01,3.65083e-09,9.99999e-01
4.204560528e-01,5.35853e-09,9.99999e-01,9.99999e-01,9.99999e-01,9.99979e-01,5.35864e-09,9.99999e-01
4.225583331e-01,7.80590e-09,9.99999e-01,9.99999e-01,9.99999e-01,9.99992e-01,7.80596e-09,9.99999e-01
4.246711247e-01,1.12867e-08,9.99999e-01,9.99999e-01,9.99999e-01,9.99993e-01,1.12868e-08,9.99999e-01
4.267944804e-01,1.62013e-08,9.99999e-01,9.99999e-01,9.99999e-01,9.99990e-01,1.62014e-08,9.99999e-01
4.289284528e-01,2.30903e-08,9.99999e-01,9.99999e-01,9.99999e-01,9.99992e-01,2.30905e-08,9.99999e-01
4.310730950e-01,3.26793e-08,9.99999e-01,9.99999e-01,9.99999e-01,9.99996e-01,3.26794e-08,9.99999e-01
4.332284605e-01,4.59341e-08,9.99999e-01,9.99999e-01,9.99999e-01,9.99998e-01,4.59342e-08,9.99999e-01
4.353946028e-01,6.41323e-08,9.99999e-01,9.99999e-01,9.99999e-01,9.99999e-01,6.41323e-08,9.99999e-01
4.375715758e-01,8.89513e-08,9.99999e-01,9.99999e-01,9.99999e-01,9.99993e-01,8.89518e-08,9.99999e-01
4.397594337e-01,1.22576e-07,9.99999e-01,9.99999e-01,9.99999e-01,9.99950e-01,1.22582e-07,9.99999e-01
4.419582309e-01,1.67818e-07,9.99999e-01,9.99999e-01,9.99999e-01,9.99749e-01,1.67860e-07,9.99999e-01
4.441680220e-01,2.28396e-07,9.99999e-01,9.99999e-01,9.99999e-01,9.99807e-01,2.28440e-07,9.99999e-01
4.463888621e-01,3.08933e-07,9.99999e-01,9.99999e-01,9.99999e-01,9.99798e-01,3.08995e-07,9.99999e-01
4.486208064e-01,4.15420e-07,9.99999e-01,9.99999e-01,9.99999e-01,9.99875e-01,4.15472e-07,9.99999e-01
4.508639105e-01,5.55349e-07,9.99999e-01,9.99999e-01,9.99999e-01,9.99941e-01,5.55381e-07,9.99999e-01
4.531182300e-01,7.38144e-07,9.99999e-01,9.99999e-01,9.99999e-01,9.99976e-01,7.38161e-07,9.99999e-01
4.553838212e-01,9.75581e-07,9.99999e-01,9.99999e-01,9.99999e-01,9.99983e-01,9.75597e-07,9.99999e-01
4.576607403e-01,1.28231e-06,9.99999e-01,9.99999e-01,9.99999e-01,9.99992e-01,1.28232e-06,9.99999e-01
4.599490440e-01,1.67640e-06,9.99999e-01,9.99999e-01,9.99999e-01,9.99994e-01,1.67640e-06,9.99999e-01
4.622487892e-01,2.18002e-06,9.99999e-01,9.99999e-01,9.99999e-01,9.99998e-01,2.18003e-06,9.99999e-01
4.645600332e-01,2.82026e-06,9.99999e-01,9.99999e-01,9.99999e-01,9.99995e-01,2.82027e-06,9.99999e-01
4.668828333e-01,3.62982e-06,9.99999e-01,9.99999e-01,9.99999e-01,9.99940e-01,3.63004e-06,9.99999e-01
4.692172475e-01,4.64849e-06,9.99999e-01,9.99999e-01,9.99999e-01,9.99873e-01,4.64908e-06,9.99999e-01
4.715633337e-01,5.92466e-06,9.99999e-01,9.99999e-01,9.99999e-01,9.99917e-01,5.92515e-06,9.99999e-01
4.739211504e-01,7.51480e-06,9.99999e-01,9.99999e-01,9.99999e-01,9.99921e-01,7.51539e-06,9.99999e-01
4.762907561e-01,9.48738e-06,9.99999e-01,9.99999e-01,9.99999e-01,9.99958e-01,9.48777e-06,9.99999e-01
4.786722099e-01,1.19226e-05,9.99999e-01,9.99999e-01,9.99999e-01,9.99982e-01,1.19228e-05,9.99999e-01
4.810655710e-01,1.49152e-05,9.99999e-01,9.99999e-01,9.99999e-01,9.99994e-01,1.49153e-05,9.99999e-01
4.834708988e-01,1.85756e-05,9.99999e-01,9.99999e-01,9.99999e-01,9.99950e-01,1.85765e-05,9.99999e-01
4.858882533e-01,2.30343e-05,9.99999e-01,9.99999e-01,9.99999e-01,9.99910e-01,2.30364e-05,9.99999e-01
4.883176946e-01,2.84436e-05,9.99999e-01,9.99999e-01,9.99999e-01,9.99924e-01,2.84458e-05,9.99999e-01
4.907592831e-01,3.49770e-05,9.99999e-01,9.99999e-01,9.99999e-01,9.99932e-01,3.49794e-05,9.99999e-01
4.932130795e-01,4.28363e-05,9.99999e-01,9.99999e-01,9.99999e-01,9.99951e-01,4.28383e-05,9.99999e-01
4.956791449e-01,5.22521e-05,9.99999e-01,9.99999e-01,9.99999e-01,9.99974e-01,5.22534e-05,9.99999e-01
4.981575406e-01,6.34801e-05,9.99999e-01,9.99999e-01,9.99999e-01,9.99872e-01,6.34881e-05,9.99999e-01
5.006483283e-01,7.68166e-05,9.99999e-01,9.99999e-01,9.99999e-01,9.99668e-01,7.68422e-05,9.99997e-01
5.031515699e-01,9.24992e-05,9.99999e-01,9.99999e-01,9.99999e-01,9.98334e-01,9.26551e-05,9.99982e-01
5.056673278e-01,1.11210e-04,9.99999e-01,9.99999e-01,9.99999e-01,9.99123e-01,1.11310e-04,9.99979e-01
5.081956644e-01,1.33088e-04,9.99999e-01,9.99999e-01,9.99999e-01,9.98894e-01,1.33237e-04,9.99987e-01
5.107366428e-01,1.58799e-04,9.99999e-01,9.99999e-01,9.99999e-01,9.99253e-01,1.58918e-04,9.99997e-01
5.132903260e-01,1.88810e-04,9.99999e-01,9.99999e-01,9.99999e-01,9.99574e-01,1.88890e-04,9.99999e-01
5.158567776e-01,2.23710e-04,9.99999e-01,9.99999e-01,9.99999e-01,9.99820e-01,2.23750e-04,9.99999e-01
5.184360615e-01,2.64139e-04,9.99999e-01,9.99999e-01,9.99999e-01,9.99927e-01,2.64158e-04,9.99999e-01
5.210282418e-01,3.10835e-04,9.99999e-01,9.99999e-01,9.99999e-01,9.99972e-01,3.10843e-04,9.99999e-01
5.236333830e-01,3.64565e-04,9.99999e-01,9.99999e-01,9.99999e-01,9.99891e-01,3.64605e-04,9.99998e-01
5.262515499e-01,4.26290e-04,9.99999e-01,9.99999e-01,9.99999e-01,9.99931e-01,4.26319e-04,9.99998e-01
5.288828077e-01,4.96911e-04,9.99999e-01,9.99999e-01,9.99999e-01,9.99937e-01,4.96942e-04,9.99998e-01
5.315272217e-01,5.77482e-04,9.99999e-01,9.99999e-01,9.99999e-01,9.99945e-01,5.77513e-04,9.99999e-01
5.341848578e-01,6.69135e-04,9.99999e-01,9.99999e-01,9.99999e-01,9.99963e-01,6.69159e-04,9.99999e-01
5.368557821e-01,7.72997e-04,9.99999e-01,9.99999e-01,9.99999e-01,9.99872e-01,7.73095e-04,9.99999e-01
5.395400610e-01,8.90218e-04,9.99999e-01,9.99999e-01,9.99999e-01,9.99539e-01,8.90631e-04,9.99995e-01
5.422377613e-01,1.02256e-03,9.99999e-01,9.99999e-01,9.99999e-01,9.99412e-01,1.02317e-03,9.99988e-01
5.449489501e-01,1.17157e-03,9.99999e-01,9.99999e-01,9.99999e-01,9.99450e-01,1.17222e-03,9.99988e-01
5.476736949e-01,1.33873e-03,9.99999e-01,9.99999e-01,9.99999e-01,9.99516e-01,1.33938e-03,9.99994e-01
5.504120634e-01,1.52582e-03,9.99999e-01,9.99999e-01,9.99999e-01,9.99648e-01,1.52635e-03,9.99998e-01
5.531641237e-01,1.73464e-03,9.99999e-01,9.99999e-01,9.99999e-01,9.99823e-01,1.73494e-03,9.99999e-01
5.559299443e-01,1.96688e-03,9.99999e-01,9.99999e-01,9.99999e-01,9.99914e-01,1.96705e-03,9.99999e-01
5.587095940e-01,2.22457e-03,9.99999e-01,9.99999e-01,9.99999e-01,9.99945e-01,2.22469e-03,9.99999e-01
5.615031420e-01,2.50981e-03,9.99999e-01,9.99999e-01,9.99999e-01,9.99939e-01,2.50996e-03,9.99999e-01
5.643106577e-01,2.82488e-03,9.99999e-01,9.99999e-01,9.99999e-01,9.99931e-01,2.82508e-03,9.99998e-01
5.671322110e-01,3.16966e-03,9.99999e-01,9.99999e-01,9.99999e-01,9.99163e-01,3.17234e-03,9.99992e-01
5.699678720e-01,3.55096e-03,9.99999e-01,9.99999e-01,9.99999e-01,9.99131e-01,3.55413e-03,9.99977e-01
5.728177114e-01,3.96924e-03,9.99999e-01,9.99999e-01,9.99999e-01,9.99087e-01,3.97294e-03,9.99980e-01
5.756818000e-01,4.42759e-03,9.99999e-01,9.99999e-01,9.99999e-01,9.99163e-01,4.43134e-03,9.99988e-01
5.785602090e-01,4.92839e-03,9.99999e-01,9.99999e-01,9.99999e-01,9.99272e-01,4.93199e-03,9.99996e-01
5.814530100e-01,5.47359e-03,9.99999e-01,9.99999e-01,9.99999e-01,9.99267e-01,5.47761e-03,9.99997e-01
5.843602750e-01,6.06563e-03,9.99999e-01,9.99999e-01,9.99999e-01,9.99121e-01,6.07099e-03,9.99994e-01
5.872820764e-01,6.66400e-03,9.99999e-01,9.99999e-01,9.99999e-01,9.92459e-01,6.71499e-03,9.99946e-01
5.902184868e-01,7.34429e-03,9.99999e-01,9.99999e-01,9.99999e-01,9.90935e-01,7.41253e-03,9.99855e-01
5.931695792e-01,8.11298e-03,9.99999e-01,9.99999e-01,9.99999e-01,9.93574e-01,8.16658e-03,9.99861e-01
5.961354271e-01,8.91629e-03,9.99999e-01,9.99999e-01,9.99999e-01,9.92970e-01,8.98013e-03,9.99919e-01
5.991161043e-01,9.80545e-03,9.99999e-01,9.99999e-01,9.99999e-01,9.94873e-01,9.85621e-03,9.99974e-01
6.021116848e-01,1.07665e-02,9.99999e-01,9.99999e-01,9.99999e-01,9.97091e-01,1.07979e-02,9.99996e-01
6.051222432e-01,1.17909e-02,9.99999e-01,9.99999e-01,9.99999e-01,9.98528e-01,1.18083e-02,9.99999e-01
6.081478544e-01,1.28822e-02,9.99999e-01,9.99999e-01,9.99999e-01,9.99364e-01,1.28904e-02,9.99999e-01
6.111885937e-01,1.40435e-02,9.99999e-01,9.99999e-01,9.99999e-01,9.99731e-01,1.40473e-02,9.99999e-01
6.142445367e-01,1.52802e-02,9.99999e-01,9.99999e-01,9.99999e-01,9.99879e-01,1.52820e-02,9.99999e-01
6.173157594e-01,1.65966e-02,9.99999e-01,9.99999e-01,9.99999e-01,9.99933e-01,1.65977e-02,9.99999e-01
6.204023382e-01,1.79963e-02,9.99999e-01,9.99999e-01,9.99999e-01,9.99943e-01,1.79973e-02,9.99999e-01
6.235043498e-01,1.94788e-02,9.99999e-01,9.99999e-01,9.99999e-01,9.99748e-01,1.94837e-02,9.99998e-01
6.266218716e-01,2.10320e-02,9.99999e-01,9.99999e-01,9.99999e-01,9.98688e-01,2.10598e-02,9.99990e-01
6.297549810e-01,2.27171e-02,9.99999e-01,9.99999e-01,9.99999e-01,9.99518e-01,2.27285e-02,9.99981e-01
6.329037559e-01,2.44689e-02,9.99999e-01,9.99999e-01,9.99999e-01,9.99051e-01,2.44924e-02,9.99984e-01
6.360682746e-01,2.63328e-02,9.99999e-01,9.99999e-01,9.99999e-01,9.99189e-01,2.63544e-02,9.99990e-01
6.392486160e-01,2.82870e-02,9.99999e-01,9.99999e-01,9.99999e-01,9.98951e-01,2.83168e-02,9.99995e-01
6.424448591e-01,3.03391e-02,9.99999e-01,9.99999e-01,9.99999e-01,9.98586e-01,3.03823e-02,9.99992e-01
6.456570834e-01,3.23388e-02,9.99999e-01,9.99999e-01,9.99999e-01,9.93455e-01,3.25531e-02,9.99960e-01
6.488853688e-01,3.46626e-02,9.99999e-01,9.99999e-01,9.99999e-01,9.95251e-01,3.48315e-02,9.99898e-01
6.521297956e-01,3.70364e-02,9.99999e-01,9.99999e-01,9.99999e-01,9.95160e-01,3.72196e-02,9.99916e-01
6.553904446e-01,3.95248e-02,9.99999e-01,9.99999e-01,9.99999e-01,9.95161e-01,3.97194e-02,9.99937e-01
6.586673968e-01,4.21571e-02,9.99999e-01,9.99999e-01,9.99999e-01,9.95871e-01,4.23327e-02,9.99978e-01
6.619607338e-01,4.49573e-02,9.99999e-01,9.99999e-01,9.99999e-01,9.97697e-01,4.50612e-02,9.99995e-01
6.652705375e-01,4.78401e-02,9.99999e-01,9.99999e-01,9.99999e-01,9.98617e-01,4.79064e-02,9.99997e-01
6.685968902e-01,5.08398e-02,9.99999e-01,9.99999e-01,9.99999e-01,9.99412e-01,5.08696e-02,9.99999e-01
6.719398746e-01,5.39362e-02,9.99999e-01,9.99999e-01,9.99999e-01,9.99702e-01,5.39522e-02,9.99999e-01
6.752995740e-01,5.71462e-02,9.99999e-01,9.99999e-01,9.99999e-01,9.99842e-01,5.71551e-02,9.99999e-01
6.786760719e-01,6.04650e-02,9.99999e-01,9.99999e-01,9.99999e-01,9.99764e-01,6.04793e-02,9.99999e-01
6.820694522e-01,6.38996e-02,9.99999e-01,9.99999e-01,9.99999e-01,9.99599e-01,6.39253e-02,9.99997e-01
6.854797995e-01,6.74586e-02,9.99999e-01,9.99999e-01,9.99999e-01,9.99483e-01,6.74938e-02,9.99995e-01
6.889071985e-01,7.10941e-02,9.99999e-01,9.99999e-01,9.99999e-01,9.98733e-01,7.11850e-02,9.99988e-01
6.923517345e-01,7.34686e-02,9.99999e-01,9.99999e-01,9.99999e-01,9.79686e-01,7.49992e-02,9.99901e-01
6.958134932e-01,7.80971e-02,9.99999e-01,9.99999e-01,9.99999e-01,9.89580e-01,7.89364e-02,9.99783e-01
6.992925606e-01,8.21433e-02,9.99999e-01,9.99999e-01,9.99999e-01,9.89915e-01,8.29963e-02,9.99804e-01
7.027890234e-01,8.60889e-02,9.99999e-01,9.99999e-01,9.99999e-01,9.87646e-01,8.71786e-02,9.99850e-01
7.063029686e-01,9.05242e-02,9.99999e-01,9.99999e-01,9.99999e-01,9.89594e-01,9.14828e-02,9.99925e-01
7.098344834e-01,9.49463e-02,9.99999e-01,9.99999e-01,9.99999e-01,9.90013e-01,9.59082e-02,9.99955e-01
7.133836558e-01,9.90972e-02,9.99999e-01,9.99999e-01,9.99999e-01,9.86580e-01,1.00454e-01,9.99912e-01
7.169505741e-01,9.43288e-02,9.99999e-01,9.99999e-01,9.99999e-01,8.97968e-01,1.05119e-01,9.99315e-01
7.205353270e-01,1.04216e-01,9.99999e-01,9.99999e-01,9.99999e-01,9.49409e-01,1.09902e-01,9.98792e-01
7.241380036e-01,1.07259e-01,9.99999e-01,9.99999e-01,9.99999e-01,9.35275e-01,1.14801e-01,9.98956e-01
7.277586936e-01,1.12707e-01,9.99999e-01,9.99999e-01,9.99999e-01,9.41464e-01,1.19816e-01,9.99147e-01
7.313974871e-01,1.17166e-01,9.99999e-01,9.99999e-01,9.99999e-01,9.38120e-01,1.24944e-01,9.99600e-01
7.350544745e-01,1.25694e-01,9.99999e-01,9.99999e-01,9.99999e-01,9.65640e-01,1.30184e-01,9.99860e-01
7.387297469e-01,1.32083e-01,9.99999e-01,9.99999e-01,9.99999e-01,9.74601e-01,1.35534e-01,9.99935e-01
7.424233956e-01,1.39230e-01,9.99999e-01,9.99999e-01,9.99999e-01,9.87514e-01,1.40991e-01,9.99988e-01
7.461355126e-01,1.45441e-01,9.99999e-01,9.99999e-01,9.99999e-01,9.92406e-01,1.46554e-01,9.99997e-01
7.498661902e-01,1.51682e-01,9.99999e-01,9.99999e-01,9.99999e-01,9.96466e-01,1.52220e-01,9.99998e-01
7.536155211e-01,1.57712e-01,9.99999e-01,9.99999e-01,9.99999e-01,9.98261e-01,1.57987e-01,9.99999e-01
7.573835987e-01,1.63704e-01,9.99999e-01,9.99999e-01,9.99999e-01,9.99104e-01,1.63851e-01,9.99999e-01
7.611705167e-01,1.69717e-01,9.99999e-01,9.99999e-01,9.99999e-01,9.99443e-01,1.69811e-01,9.99999e-01
7.649763693e-01,1.75802e-01,9.99999e-01,9.99999e-01,9.99999e-01,9.99650e-01,1.75864e-01,9.99999e-01
7.688012511e-01,1.81962e-01,9.99999e-01,9.99999e-01,9.99999e-01,9.99756e-01,1.82006e-01,9.99999e-01
7.726452574e-01,1.88197e-01,9.99999e-01,9.99999e-01,9.99999e-01,9.99799e-01,1.88235e-01,9.99999e-01
7.765084837e-01,1.94492e-01,9.99999e-01,9.99999e-01,9.99999e-01,9.99713e-01,1.94548e-01,9.99999e-01
7.803910261e-01,1.86991e-01,9.99999e-01,9.99999e-01,9.31654e-01,9.98759e-01,2.00942e-01,9.99998e-01
7.842929812e-01,1.49914e-01,9.99999e-01,9.99999e-01,7.25633e-01,9.95676e-01,2.07413e-01,9.99991e-01
7.882144461e-01,1.50655e-01,9.99999e-01,9.99999e-01,7.09952e-01,9.91174e-01,2.13959e-01,9.99938e-01
7.921555184e-01,1.78604e-01,9.99999e-01,9.99999e-01,8.13538e-01,9.95174e-01,2.20576e-01,9.99894e-01
7.961162960e-01,1.96245e-01,9.99999e-01,9.99999e-01,8.70959e-01,9.91400e-01,2.27261e-01,9.99899e-01
8.000968774e-01,2.14930e-01,9.99999e-01,9.99999e-01,9.27671e-01,9.90119e-01,2.34010e-01,9.99892e-01
8.040973618e-01,2.29357e-01,9.99999e-01,9.99999e-01,9.61951e-01,9.90105e-01,2.40821e-01,9.99918e-01
8.081178486e-01,2.37879e-01,9.99999e-01,9.99999e-01,9.82280e-01,9.77730e-01,2.47689e-01,9.99917e-01
8.121584379e-01,2.30571e-01,9.99999e-01,9.99999e-01,9.94543e-01,9.10723e-01,2.54612e-01,9.99687e-01
8.162192301e-01,2.33800e-01,9.99999e-01,9.99999e-01,9.98791e-01,8.95867e-01,2.61586e-01,9.98824e-01
8.203003262e-01,2.53855e-01,9.99999e-01,9.99999e-01,9.99982e-01,9.46390e-01,2.68607e-01,9.98624e-01
8.244018279e-01,2.55449e-01,9.99999e-01,9.99999e-01,9.99999e-01,9.27654e-01,2.75673e-01,9.98904e-01
8.285238370e-01,2.64462e-01,9.99999e-01,9.99999e-01,9.99999e-01,9.36029e-01,2.82779e-01,9.99139e-01
8.326664562e-01,2.71163e-01,9.99999e-01,9.99999e-01,9.99999e-01,9.35625e-01,2.89923e-01,9.99643e-01
8.368297885e-01,2.83282e-01,9.99999e-01,9.99999e-01,9.99999e-01,9.53562e-01,2.97101e-01,9.99918e-01
8.410139374e-01,2.95820e-01,9.99999e-01,9.99999e-01,9.99999e-01,9.72146e-01,3.04310e-01,9.99952e-01
8.452190071e-01,3.07256e-01,9.99999e-01,9.99999e-01,9.99999e-01,9.86257e-01,3.11546e-01,9.99971e-01
8.494451021e-01,3.16241e-01,9.99999e-01,9.99999e-01,9.99999e-01,9.91979e-01,3.18806e-01,9.99976e-01
8.536923276e-01,3.24537e-01,9.99999e-01,9.99999e-01,9.99999e-01,9.95263e-01,3.26086e-01,9.99985e-01
8.579607893e-01,3.32408e-01,9.99999e-01,9.99999e-01,9.99999e-01,9.97073e-01,3.33384e-01,9.99996e-01
8.622505932e-01,3.40065e-01,9.99999e-01,9.99999e-01,9.99999e-01,9.98143e-01,3.40697e-01,9.99998e-01
8.665618462e-01,3.07261e-01,9.99999e-01,9.99999e-01,8.83840e-01,9.98847e-01,3.48021e-01,9.99999e-01
8.708946554e-01,1.59278e-01,9.99999e-01,9.99999e-01,4.48780e-01,9.98678e-01,3.55353e-01,9.99998e-01
8.752491287e-01,1.87755e-01,9.99999e-01,9.99999e-01,5.18539e-01,9.98233e-01,3.62690e-01,9.99997e-01
8.796253743e-01,2.55925e-01,9.99999e-01,9.99999e-01,6.93236e-01,9.97547e-01,3.70029e-01,9.99994e-01
8.840235012e-01,3.10573e-01,9.99999e-01,9.99999e-01,8.25248e-01,9.97201e-01,3.77367e-01,9.99982e-01
8.884436187e-01,3.53040e-01,9.99999e-01,9.99999e-01,9.27105e-01,9.89686e-01,3.84701e-01,9.99951e-01
8.928858368e-01,3.41455e-01,9.99999e-01,9.99999e-01,9.69705e-01,8.97929e-01,3.92029e-01,9.99720e-01
8.973502660e-01,3.27920e-01,9.99999e-01,9.99999e-01,9.92593e-01,8.28179e-01,3.99348e-01,9.98570e-01
9.018370173e-01,3.68494e-01,9.99999e-01,9.99999e-01,9.99183e-01,9.08893e-01,4.06655e-01,9.97753e-01
9.063462024e-01,3.71792e-01,9.99999e-01,9.99999e-01,9.78811e-01,9.18110e-01,4.13947e-01,9.98026e-01
9.108779334e-01,3.51130e-01,9.99999e-01,9.99999e-01,9.52556e-01,8.75815e-01,4.21222e-01,9.97949e-01
9.154323231e-01,3.63989e-01,9.99999e-01,9.99999e-01,9.88758e-01,8.60171e-01,4.28477e-01,9.98304e-01
9.200094847e-01,3.35127e-01,9.99999e-01,9.99999e-01,8.55630e-01,8.89120e-01,4.35711e-01,9.99050e-01
9.246095321e-01,2.92862e-01,9.99999e-01,9.99999e-01,7.88746e-01,8.32479e-01,4.42919e-01,9.98906e-01
9.292325798e-01,1.18761e-01,9.99999e-01,9.99999e-01,8.30589e-01,3.08782e-01,4.50102e-01,9.94731e-01
9.338787427e-01,8.64195e-02,9.99999e-01,9.99999e-01,8.35940e-01,2.23429e-01,4.57255e-01,9.81088e-01
9.385481364e-01,2.19888e-01,9.99999e-01,9.99999e-01,8.76028e-01,5.44257e-01,4.64378e-01,9.79241e-01
9.432408771e-01,1.87378e-01,9.99999e-01,9.99999e-01,9.22108e-01,4.35314e-01,4.71467e-01,9.82065e-01
9.479570815e-01,1.45372e-01,9.99999e-01,9.99999e-01,9.59157e-01,3.20120e-01,4.78522e-01,9.85379e-01
9.526968669e-01,1.97928e-01,9.99999e-01,9.99999e-01,9.80143e-01,4.18389e-01,4.85539e-01,9.91056e-01
9.574603512e-01,2.13501e-01,9.99999e-01,9.99999e-01,9.91463e-01,4.38728e-01,4.92518e-01,9.95446e-01
9.622476530e-01,2.52642e-01,9.99999e-01,9.99999e-01,9.97332e-01,5.08627e-01,4.99456e-01,9.96849e-01
9.670588912e-01,3.41002e-01,9.99999e-01,9.99999e-01,9.99201e-01,6.75384e-01,5.06353e-01,9.97843e-01
9.718941857e-01,3.99340e-01,9.99999e-01,9.99999e-01,9.99944e-01,7.79403e-01,5.13205e-01,9.98412e-01
9.767536566e-01,4.22209e-01,9.99999e-01,9.99999e-01,9.99999e-01,8.12907e-01,5.20012e-01,9.98786e-01
9.816374249e-01,4.51592e-01,9.99999e-01,9.99999e-01,9.99999e-01,8.57640e-01,5.26772e-01,9.99579e-01
9.865456120e-01,4.84576e-01,9.99999e-01,9.99999e-01,9.99999e-01,9.08401e-01,5.33484e-01,9.99912e-01
9.914783401e-01,5.08946e-01,9.99999e-01,9.99999e-01,9.99999e-01,9.42260e-01,5.40146e-01,9.99975e-01
9.964357318e-01,5.29330e-01,9.99999e-01,9.99999e-01,9.99999e-01,9.68138e-01,5.46758e-01,9.99985e-01
1.001417910e+00,5.42674e-01,9.99999e-01,9.99999e-01,9.99999e-01,9.80784e-01,5.53317e-01,9.99977e-01
1.006425000e+00,5.53638e-01,9.99999e-01,9.99999e-01,9.99999e-01,9.88980e-01,5.59823e-01,9.99968e-01
1.011457125e+00,5.62388e-01,9.99999e-01,9.99999e-01,9.99999e-01,9.93162e-01,5.66275e-01,9.99970e-01
1.016514411e+00,5.69996e-01,9.99999e-01,9.99999e-01,9.99999e-01,9.95347e-01,5.72672e-01,9.99979e-01
1.021596983e+00,5.76779e-01,9.99999e-01,9.99999e-01,9.99872e-01,9.96289e-01,5.79012e-01,9.99979e-01
1.026704968e+00,5.78694e-01,9.99999e-01,9.99999e-01,9.91596e-01,9.97103e-01,5.85296e-01,9.99987e-01
1.031838492e+00,5.43672e-01,9.99999e-01,9.99999e-01,9.20953e-01,9.97897e-01,5.91521e-01,9.99995e-01
1.036997685e+00,4.29431e-02,9.99999e-01,9.99999e-01,7.19173e-02,9.98748e-01,5.97688e-01,9.99998e-01
1.042182673e+00,8.55309e-03,9.99999e-01,9.99999e-01,1.41827e-02,9.98503e-01,6.03795e-01,9.99999e-01
1.047393587e+00,1.68061e-02,9.99999e-01,9.99999e-01,2.76045e-02,9.98019e-01,6.09842e-01,9.99999e-01
1.052630555e+00,1.79824e-05,9.99999e-01,9.99999e-01,2.92525e-05,9.97279e-01,6.15829e-01,9.99998e-01
1.057893707e+00,6.57130e-05,9.99999e-01,9.99999e-01,1.05962e-04,9.95455e-01,6.21754e-01,9.99997e-01
1.063183176e+00,6.82147e-04,9.99999e-01,9.99999e-01,1.09192e-03,9.92538e-01,6.27618e-01,9.99995e-01
1.068499092e+00,4.19518e-03,9.99999e-01,9.99999e-01,6.68382e-03,9.87552e-01,6.33419e-01,9.99991e-01
1.073841587e+00,2.59282e-02,9.99999e-01,9.99999e-01,4.10262e-02,9.85429e-01,6.39158e-01,9.99981e-01
