#,Wave/freq,Total,N2,O2,CO2,H2O,Rayleigh,CIA
4.000000000e-01,8.47888e-10,9.99999e-01,9.99999e-01,9.99999e-01,9.99959e-01,8.47922e-10,9.99999e-01
4.020000000e-01,1.28151e-09,9.99999e-01,9.99999e-01,9.99999e-01,9.99974e-01,1.28154e-09,9.99999e-01
4.040100000e-01,1.92031e-09,9.99999e-01,9.99999e-01,9.99999e-01,9.99988e-01,1.92033e-09,9.99999e-01
4.060300500e-01,2.85463e-09,9.99999e-01,9.99999e-01,9.99999e-01,9.99997e-01,2.85464e-09,9.99999e-01
4.080602003e-01,4.21041e-09,9.99999e-01,9.99999e-01,9.99999e-01,9.99998e-01,4.21041e-09,9.99999e-01
4.101005013e-01,6.16261e-09,9.99999e-01,9.99999e-01,9.99999e-01,9.99999e-01,6.16261e-09,9.99999e-01
4.121510038e-01,8.95235e-09,9.99999e-01,9.99999e-01,9.99999e-01,9.99998e-01,8.95236e-09,9.99999e-01
4.142117588e-01,1.29093e-08,9.99999e-01,9.99999e-01,9.99999e-01,9.99988e-01,1.29094e-08,9.99999e-01
4.162828176e-01,1.84805e-08,9.99999e-01,9.99999e-01,9.99999e-01,9.99949e-01,1.84814e-08,9.99999e-01
4.183642317e-01,2.62708e-08,9.99999e-01,9.99999e-01,9.99999e-01,9.99969e-01,2.62716e-08,9.99999e-01
4.204560528e-01,3.70863e-08,9.99999e-01,9.99999e-01,9.99999e-01,9.99981e-01,3.70869e-08,9.99999e-01
4.225583331e-01,5.19989e-08,9.99999e-01,9.99999e-01,9.99999e-01,9.99992e-01,5.19993e-08,9.99999e-01
4.246711247e-01,7.24222e-08,9.99999e-01,9.99999e-01,9.99999e-01,9.99994e-01,7.24226e-08,9.99999e-01
4.267944804e-01,1.00209e-07,9.99999e-01,9.99999e-01,9.99999e-01,9.99991e-01,1.00210e-07,9.99999e-01
4.289284528e-01,1.37770e-07,9.99999e-01,9.99999e-01,9.99999e-01,9.99993e-01,1.37771e-07,9.99999e-01
4.310730950e-01,1.88225e-07,9.99999e-01,9.99999e-01,9.99999e-01,9.99996e-01,1.88225e-07,9.99999e-01
4.332284605e-01,2.55575e-07,9.99999e-01,9.99999e-01,9.99999e-01,9.99998e-01,2.55575e-07,9.99999e-01
4.353946028e-01,3.44935e-07,9.99999e-01,9.99999e-01,9.99999e-01,9.99999e-01,3.44935e-07,9.99999e-01
4.375715758e-01,4.62786e-07,9.99999e-01,9.99999e-01,9.99999e-01,9.99994e-01,4.62789e-07,9.99999e-01
4.397594337e-01,6.17289e-07,9.99999e-01,9.99999e-01,9.99999e-01,9.99956e-01,6.17315e-07,9.99999e-01
4.419582309e-01,8.18587e-07,9.99999e-01,9.99999e-01,9.99999e-01,9.99780e-01,8.18766e-07,9.99999e-01
4.441680220e-01,1.07973e-06,9.99999e-01,9.99999e-01,9.99999e-01,9.99825e-01,1.07992e-06,9.99999e-01
4.463888621e-01,1.41634e-06,9.99999e-01,9.99999e-01,9.99999e-01,9.99819e-01,1.41659e-06,9.99999e-01
4.486208064e-01,1.84809e-06,9.99999e-01,9.99999e-01,9.99999e-01,9.99886e-01,1.84830e-06,9.99999e-01
4.508639105e-01,2.39881e-06,9.99999e-01,9.99999e-01,9.99999e-01,9.99946e-01,2.39893e-06,9.99999e-01
4.531182300e-01,3.09755e-06,9.99999e-01,9.99999e-01,9.99999e-01,9.99978e-01,3.09761e-06,9.99999e-01
4.553838212e-01,3.97957e-06,9.99999e-01,9.99999e-01,9.99999e-01,9.99985e-01,3.97963e-06,9.99999e-01
4.576607403e-01,5.08752e-06,9.99999e-01,9.99999e-01,9.99999e-01,9.99993e-01,5.08756e-06,9.99999e-01
4.599490440e-01,6.47242e-06,9.99999e-01,9.99999e-01,9.99999e-01,9.99994e-01,6.47245e-06,9.99999e-01
4.622487892e-01,8.19526e-06,9.99999e-01,9.99999e-01,9.99999e-01,9.99998e-01,8.19526e-06,9.99999e-01
4.645600332e-01,1.03284e-05,9.99999e-01,9.99999e-01,9.99999e-01,9.99996e-01,1.03284e-05,9.99999e-01
4.668828333e-01,1.29567e-05,9.99999e-01,9.99999e-01,9.99999e-01,9.99946e-01,1.29574e-05,9.99999e-01
4.692172475e-01,1.61811e-05,9.99999e-01,9.99999e-01,9.99999e-01,9.99886e-01,1.61830e-05,9.99999e-01
4.715633337e-01,2.01214e-05,9.99999e-01,9.99999e-01,9.99999e-01,9.99925e-01,2.01229e-05,9.99999e-01
4.739211504e-01,2.49129e-05,9.99999e-01,9.99999e-01,9.99999e-01,9.99928e-01,2.49146e-05,9.99999e-01
4.762907561e-01,3.07164e-05,9.99999e-01,9.99999e-01,9.99999e-01,9.99962e-01,3.07175e-05,9.99999e-01
4.786722099e-01,3.77150e-05,9.99999e-01,9.99999e-01,9.99999e-01,9.99984e-01,3.77156e-05,9.99999e-01
4.810655710e-01,4.61205e-05,9.99999e-01,9.99999e-01,9.99999e-01,9.99995e-01,4.61207e-05,9.99999e-01
4.834708988e-01,5.61728e-05,9.99999e-01,9.99999e-01,9.99999e-01,9.99957e-01,5.61752e-05,9.99999e-01
4.858882533e-01,6.81502e-05,9.99999e-01,9.99999e-01,9.99999e-01,9.99919e-01,6.81556e-05,9.99999e-01
4.883176946e-01,8.23704e-05,9.99999e-01,9.99999e-01,9.99999e-01,9.99932e-01,8.23759e-05,9.99999e-01
4.907592831e-01,9.91852e-05,9.99999e-01,9.99999e-01,9.99999e-01,9.99938e-01,9.91913e-05,9.99999e-01
4.932130795e-01,1.18997e-04,9.99999e-01,9.99999e-01,9.99999e-01,9.99956e-01,1.19002e-04,9.99999e-01
4.956791449e-01,1.42253e-04,9.99999e-01,9.99999e-01,9.99999e-01,9.99976e-01,1.42256e-04,9.99999e-01
4.981575406e-01,1.69437e-04,9.99999e-01,9.99999e-01,9.99999e-01,9.99886e-01,1.69456e-04,9.99999e-01
5.006483283e-01,2.01101e-04,9.99999e-01,9.99999e-01,9.99999e-01,9.99707e-01,2.01160e-04,9.99997e-01
5.031515699e-01,2.37630e-04,9.99999e-01,9.99999e-01,9.99999e-01,9.98509e-01,2.37989e-04,9.99983e-01
5.056673278e-01,2.80400e-04,9.99999e-01,9.99999e-01,9.99999e-01,9.99210e-01,2.80626e-04,9.99981e-01
5.081956644e-01,3.29495e-04,9.99999e-01,9.99999e-01,9.99999e-01,9.99003e-01,3.29827e-04,9.99987e-01
5.107366428e-01,3.86159e-04,9.99999e-01,9.99999e-01,9.99999e-01,9.99326e-01,3.86420e-04,9.99997e-01
5.132903260e-01,4.51134e-04,9.99999e-01,9.99999e-01,9.99999e-01,9.99614e-01,4.51308e-04,9.99999e-01
5.158567776e-01,5.25394e-04,9.99999e-01,9.99999e-01,9.99999e-01,9.99836e-01,5.25479e-04,9.99999e-01
5.184360615e-01,6.09965e-04,9.99999e-01,9.99999e-01,9.99999e-01,9.99934e-01,6.10004e-04,9.99999e-01
5.210282418e-01,7.06025e-04,9.99999e-01,9.99999e-01,9.99999e-01,9.99975e-01,7.06042e-04,9.99999e-01
5.236333830e-01,8.14763e-04,9.99999e-01,9.99999e-01,9.99999e-01,9.99902e-01,8.14843e-04,9.99998e-01
5.262515499e-01,9.37694e-04,9.99999e-01,9.99999e-01,9.99999e-01,9.99938e-01,9.37752e-04,9.99998e-01
5.288828077e-01,1.07615e-03,9.99999e-01,9.99999e-01,9.99999e-01,9.99943e-01,1.07621e-03,9.99998e-01
5.315272217e-01,1.23169e-03,9.99999e-01,9.99999e-01,9.99999e-01,9.99950e-01,1.23175e-03,9.99999e-01
5.341848578e-01,1.40598e-03,9.99999e-01,9.99999e-01,9.99999e-01,9.99967e-01,1.40603e-03,9.99999e-01
5.368557821e-01,1.60058e-03,9.99999e-01,9.99999e-01,9.99999e-01,9.99886e-01,1.60076e-03,9.99999e-01
5.395400610e-01,1.81707e-03,9.99999e-01,9.99999e-01,9.99999e-01,9.99594e-01,1.81781e-03,9.99996e-01
5.422377613e-01,2.05800e-03,9.99999e-01,9.99999e-01,9.99999e-01,9.99469e-01,2.05911e-03,9.99989e-01
5.449489501e-01,2.32554e-03,9.99999e-01,9.99999e-01,9.99999e-01,9.99509e-01,2.32670e-03,9.99989e-01
5.476736949e-01,2.62158e-03,9.99999e-01,9.99999e-01,9.99999e-01,9.99562e-01,2.62274e-03,9.99994e-01
5.504120634e-01,2.94851e-03,9.99999e-01,9.99999e-01,9.99999e-01,9.99682e-01,2.94945e-03,9.99998e-01
5.531641237e-01,3.30864e-03,9.99999e-01,9.99999e-01,9.99999e-01,9.99839e-01,3.30917e-03,9.99999e-01
5.559299443e-01,3.70406e-03,9.99999e-01,9.99999e-01,9.99999e-01,9.99922e-01,3.70434e-03,9.99999e-01
5.587095940e-01,4.13727e-03,9.99999e-01,9.99999e-01,9.99999e-01,9.99951e-01,4.13747e-03,9.99999e-01
5.615031420e-01,4.61092e-03,9.99999e-01,9.99999e-01,9.99999e-01,9.99945e-01,4.61116e-03,9.99999e-01
5.643106577e-01,5.12778e-03,9.99999e-01,9.99999e-01,9.99999e-01,9.99939e-01,5.12809e-03,9.99998e-01
5.671322110e-01,5.68685e-03,9.99999e-01,9.99999e-01,9.99999e-01,9.99274e-01,5.69102e-03,9.99992e-01
5.699678720e-01,6.29764e-03,9.99999e-01,9.99999e-01,9.99999e-01,9.99207e-01,6.30276e-03,9.99979e-01
5.728177114e-01,6.96039e-03,9.99999e-01,9.99999e-01,9.99999e-01,9.99183e-01,6.96619e-03,9.99982e-01
5.756818000e-01,7.67840e-03,9.99999e-01,9.99999e-01,9.99999e-01,9.99248e-01,7.68425e-03,9.99989e-01
5.785602090e-01,8.45434e-03,9.99999e-01,9.99999e-01,9.99999e-01,9.99343e-01,8.45992e-03,9.99996e-01
5.814530100e-01,9.29009e-03,9.99999e-01,9.99999e-01,9.99999e-01,9.99342e-01,9.29620e-03,9.99998e-01
5.843602750e-01,1.01882e-02,9.99999e-01,9.99999e-01,9.99999e-01,9.99222e-01,1.01962e-02,9.99995e-01
5.872820764e-01,1.10876e-02,9.99999e-01,9.99999e-01,9.99999e-01,9.93307e-01,1.11628e-02,9.99952e-01
5.902184868e-01,1.20980e-02,9.99999e-01,9.99999e-01,9.99999e-01,9.91823e-01,1.21993e-02,9.99870e-01
5.931695792e-01,1.32303e-02,9.99999e-01,9.99999e-01,9.99999e-01,9.94235e-01,1.33087e-02,9.99873e-01
5.961354271e-01,1.44012e-02,9.99999e-01,9.99999e-01,9.99999e-01,9.93668e-01,1.44940e-02,9.99923e-01
5.991161043e-01,1.56851e-02,9.99999e-01,9.99999e-01,9.99999e-01,9.95373e-01,1.57583e-02,9.99977e-01
6.021116848e-01,1.70596e-02,9.99999e-01,9.99999e-01,9.99999e-01,9.97369e-01,1.71046e-02,9.99996e-01
6.051222432e-01,1.85112e-02,9.99999e-01,9.99999e-01,9.99999e-01,9.98667e-01,1.85359e-02,9.99999e-01
6.081478544e-01,2.00436e-02,9.99999e-01,9.99999e-01,9.99999e-01,9.99425e-01,2.00551e-02,9.99999e-01
6.111885937e-01,2.16598e-02,9.99999e-01,9.99999e-01,9.99999e-01,9.99756e-01,2.16651e-02,9.99999e-01
6.142445367e-01,2.33661e-02,9.99999e-01,9.99999e-01,9.99999e-01,9.99891e-01,2.33686e-02,9.99999e-01
6.173157594e-01,2.51670e-02,9.99999e-01,9.99999e-01,9.99999e-01,9.99939e-01,2.51685e-02,9.99999e-01
6.204023382e-01,2.70659e-02,9.99999e-01,9.99999e-01,9.99999e-01,9.99949e-01,2.70672e-02,9.99999e-01
6.235043498e-01,2.90611e-02,9.99999e-01,9.99999e-01,9.99999e-01,9.99780e-01,2.90674e-02,9.99998e-01
6.266218716e-01,3.11346e-02,9.99999e-01,9.99999e-01,9.99999e-01,9.98823e-01,3.11715e-02,9.99991e-01
6.297549810e-01,3.33669e-02,9.99999e-01,9.99999e-01,9.99999e-01,9.99568e-01,3.33818e-02,9.99982e-01
6.329037559e-01,3.56695e-02,9.99999e-01,9.99999e-01,9.99999e-01,9.99144e-01,3.57005e-02,9.99986e-01
6.360682746e-01,3.81017e-02,9.99999e-01,9.99999e-01,9.99999e-01,9.99274e-01,3.81296e-02,9.99991e-01
6.392486160e-01,4.06327e-02,9.99999e-01,9.99999e-01,9.99999e-01,9.99058e-01,4.06711e-02,9.99996e-01
6.424448591e-01,4.32724e-02,9.99999e-01,9.99999e-01,9.99999e-01,9.98749e-01,4.33268e-02,9.99993e-01
6.456570834e-01,4.58295e-02,9.99999e-01,9.99999e-01,9.99999e-01,9.94203e-01,4.60982e-02,9.99967e-01
6.488853688e-01,4.87360e-02,9.99999e-01,9.99999e-01,9.99999e-01,9.94970e-01,4.89868e-02,9.99908e-01
6.521297956e-01,5.17629e-02,9.99999e-01,9.99999e-01,9.99999e-01,9.95629e-01,5.19940e-02,9.99923e-01
6.553904446e-01,5.48799e-02,9.99999e-01,9.99999e-01,9.99999e-01,9.95684e-01,5.51209e-02,9.99942e-01
6.586673968e-01,5.81497e-02,9.99999e-01,9.99999e-01,9.99999e-01,9.96269e-01,5.83685e-02,9.99980e-01
6.619607338e-01,6.16042e-02,9.99999e-01,9.99999e-01,9.99999e-01,9.97842e-01,6.17376e-02,9.99995e-01
6.652705375e-01,6.51470e-02,9.99999e-01,9.99999e-01,9.99999e-01,9.98747e-01,6.52288e-02,9.99997e-01
6.685968902e-01,6.88025e-02,9.99999e-01,9.99999e-01,9.99999e-01,9.99418e-01,6.88426e-02,9.99999e-01
6.719398746e-01,7.25597e-02,9.99999e-01,9.99999e-01,9.99999e-01,9.99729e-01,7.25792e-02,9.99999e-01
6.752995740e-01,7.64277e-02,9.99999e-01,9.99999e-01,9.99999e-01,9.99854e-01,7.64388e-02,9.99999e-01
6.786760719e-01,8.04046e-02,9.99999e-01,9.99999e-01,9.99999e-01,9.99790e-01,8.04214e-02,9.99999e-01
6.820694522e-01,8.44961e-02,9.99999e-01,9.99999e-01,9.99999e-01,9.99641e-01,8.45265e-02,9.99997e-01
6.854797995e-01,8.87126e-02,9.99999e-01,9.99999e-01,9.99999e-01,9.99537e-01,8.87539e-02,9.99995e-01
6.889071985e-01,9.29994e-02,9.99999e-01,9.99999e-01,9.99999e-01,9.98897e-01,9.31030e-02,9.99989e-01
6.923517345e-01,9.58026e-02,9.99999e-01,9.99999e-01,9.99999e-01,9.81942e-01,9.75728e-02,9.99911e-01
6.958134932e-01,1.01162e-01,9.99999e-01,9.99999e-01,9.99999e-01,9.90397e-01,1.02163e-01,9.99801e-01
6.992925606e-01,1.05895e-01,9.99999e-01,9.99999e-01,9.99999e-01,9.91036e-01,1.06871e-01,9.99825e-01
7.027890234e-01,1.10439e-01,9.99999e-01,9.99999e-01,9.99999e-01,9.88861e-01,1.11698e-01,9.99865e-01
7.063029686e-01,1.15540e-01,9.99999e-01,9.99999e-01,9.99999e-01,9.90634e-01,1.16640e-01,9.99933e-01
7.098344834e-01,1.20598e-01,9.99999e-01,9.99999e-01,9.99999e-01,9.91011e-01,1.21697e-01,9.99960e-01
7.133836558e-01,1.25358e-01,9.99999e-01,9.99999e-01,9.99999e-01,9.88186e-01,1.26867e-01,9.99921e-01
7.169505741e-01,1.19995e-01,9.99999e-01,9.99999e-01,9.99999e-01,9.08598e-01,1.32147e-01,9.99384e-01
7.205353270e-01,1.30980e-01,9.99999e-01,9.99999e-01,9.99999e-01,9.53362e-01,1.37537e-01,9.98915e-01
7.241380036e-01,1.34597e-01,9.99999e-01,9.99999e-01,9.99999e-01,9.41899e-01,1.43034e-01,9.99062e-01
7.277586936e-01,1.40706e-01,9.99999e-01,9.99999e-01,9.99999e-01,9.47380e-01,1.48635e-01,9.99233e-01
7.313974871e-01,1.45605e-01,9.99999e-01,9.99999e-01,9.99999e-01,9.43753e-01,1.54338e-01,9.99640e-01
7.350544745e-01,1.55144e-01,9.99999e-01,9.99999e-01,9.99999e-01,9.68916e-01,1.60141e-01,9.99874e-01
7.387297469e-01,1.62214e-01,9.99999e-01,9.99999e-01,9.99999e-01,9.77007e-01,1.66041e-01,9.99942e-01
7.424233956e-01,1.70083e-01,9.99999e-01,9.99999e-01,9.99999e-01,9.88658e-01,1.72035e-01,9.99988e-01
7.461355126e-01,1.76897e-01,9.99999e-01,9.99999e-01,9.99999e-01,9.93123e-01,1.78122e-01,9.99997e-01
7.498661902e-01,1.83704e-01,9.99999e-01,9.99999e-01,9.99999e-01,9.96785e-01,1.84296e-01,9.99998e-01
7.536155211e-01,1.90257e-01,9.99999e-01,9.99999e-01,9.99999e-01,9.98426e-01,1.90557e-01,9.99999e-01
7.573835987e-01,1.96740e-01,9.99999e-01,9.99999e-01,9.99999e-01,9.99189e-01,1.96900e-01,9.99999e-01
7.611705167e-01,2.03221e-01,9.99999e-01,9.99999e-01,9.99999e-01,9.99496e-01,2.03323e-01,9.99999e-01
7.649763693e-01,2.09756e-01,9.99999e-01,9.99999e-01,9.99999e-01,9.99684e-01,2.09822e-01,9.99999e-01
7.688012511e-01,2.16347e-01,9.99999e-01,9.99999e-01,9.99999e-01,9.99780e-01,2.16395e-01,9.99999e-01
7.726452574e-01,2.22997e-01,9.99999e-01,9.99999e-01,9.99999e-01,9.99819e-01,2.23037e-01,9.99999e-01
7.765084837e-01,2.29688e-01,9.99999e-01,9.99999e-01,9.99999e-01,9.99745e-01,2.29746e-01,9.99999e-01
7.803910261e-01,2.22465e-01,9.99999e-01,9.99999e-01,9.41559e-01,9.98902e-01,2.36518e-01,9.99998e-01
7.842929812e-01,1.81000e-01,9.99999e-01,9.99999e-01,7.46397e-01,9.96174e-01,2.43351e-01,9.99992e-01
7.882144461e-01,1.82305e-01,9.99999e-01,9.99999e-01,7.33967e-01,9.92067e-01,2.50240e-01,9.99950e-01
7.921555184e-01,2.12799e-01,9.99999e-01,9.99999e-01,8.30982e-01,9.95623e-01,2.57182e-01,9.99905e-01
7.961162960e-01,2.31259e-01,9.99999e-01,9.99999e-01,8.82103e-01,9.92354e-01,2.64174e-01,9.99909e-01
8.000968774e-01,2.51134e-01,9.99999e-01,9.99999e-01,9.34303e-01,9.91125e-01,2.71212e-01,9.99903e-01
8.040973618e-01,2.66231e-01,9.99999e-01,9.99999e-01,9.65252e-01,9.91134e-01,2.78293e-01,9.99923e-01
8.081178486e-01,2.75284e-01,9.99999e-01,9.99999e-01,9.83954e-01,9.80253e-01,2.85413e-01,9.99928e-01
8.121584379e-01,2.67820e-01,9.99999e-01,9.99999e-01,9.94978e-01,9.20190e-01,2.92570e-01,9.99718e-01
8.162192301e-01,2.70764e-01,9.99999e-01,9.99999e-01,9.98888e-01,9.05192e-01,2.99760e-01,9.98944e-01
8.203003262e-01,2.92081e-01,9.99999e-01,9.99999e-01,9.99981e-01,9.52659e-01,3.06979e-01,9.98764e-01
8.244018279e-01,2.92948e-01,9.99999e-01,9.99999e-01,9.99999e-01,9.33207e-01,3.14224e-01,9.99016e-01
8.285238370e-01,3.02787e-01,9.99999e-01,9.99999e-01,9.99999e-01,9.42546e-01,3.21492e-01,9.99227e-01
8.326664562e-01,3.09531e-01,9.99999e-01,9.99999e-01,9.99999e-01,9.41755e-01,3.28779e-01,9.99680e-01
8.368297885e-01,3.21916e-01,9.99999e-01,9.99999e-01,9.99999e-01,9.57913e-01,3.36083e-01,9.99926e-01
8.410139374e-01,3.34720e-01,9.99999e-01,9.99999e-01,9.99999e-01,9.74762e-01,3.43400e-01,9.99956e-01
8.452190071e-01,3.46346e-01,9.99999e-01,9.99999e-01,9.99999e-01,9.87531e-01,3.50728e-01,9.99974e-01
8.494451021e-01,3.55467e-01,9.99999e-01,9.99999e-01,9.99999e-01,9.92772e-01,3.58062e-01,9.99979e-01
8.536923276e-01,3.63826e-01,9.99999e-01,9.99999e-01,9.99999e-01,9.95706e-01,3.65400e-01,9.99985e-01
8.579607893e-01,3.71754e-01,9.99999e-01,9.99999e-01,9.99999e-01,9.97362e-01,3.72739e-01,9.99995e-01
8.622505932e-01,3.79437e-01,9.99999e-01,9.99999e-01,9.99999e-01,9.98319e-01,3.80076e-01,9.99998e-01
8.665618462e-01,3.46786e-01,9.99999e-01,9.99999e-01,8.96020e-01,9.98963e-01,3.87408e-01,9.99999e-01
8.708946554e-01,1.90866e-01,9.99999e-01,9.99999e-01,4.84070e-01,9.98816e-01,3.94733e-01,9.99998e-01
8.752491287e-01,2.20931e-01,9.99999e-01,9.99999e-01,5.50341e-01,9.98415e-01,4.02048e-01,9.99997e-01
8.796253743e-01,2.92702e-01,9.99999e-01,9.99999e-01,7.16527e-01,9.97812e-01,4.09349e-01,9.99994e-01
8.840235012e-01,3.49126e-01,9.99999e-01,9.99999e-01,8.40017e-01,9.97499e-01,4.16636e-01,9.99984e-01
8.884436187e-01,3.92081e-01,9.99999e-01,9.99999e-01,9.33155e-01,9.91062e-01,4.23904e-01,9.99956e-01
8.928858368e-01,3.81173e-01,9.99999e-01,9.99999e-01,9.72405e-01,9.08973e-01,4.31151e-01,9.99749e-01
8.973502660e-01,3.66925e-01,9.99999e-01,9.99999e-01,9.93186e-01,8.43610e-01,4.38376e-01,9.98716e-01
9.018370173e-01,4.07181e-01,9.99999e-01,9.99999e-01,9.99245e-01,9.16331e-01,4.45575e-01,9.97982e-01
9.063462024e-01,4.11648e-01,9.99999e-01,9.99999e-01,9.81542e-01,9.26918e-01,4.52747e-01,9.98227e-01
9.108779334e-01,3.90424e-01,9.99999e-01,9.99999e-01,9.56906e-01,8.87904e-01,4.59889e-01,9.98157e-01
9.154323231e-01,4.03151e-01,9.99999e-01,9.99999e-01,9.89622e-01,8.73285e-01,4.67000e-01,9.98477e-01
9.200094847e-01,3.74399e-01,9.99999e-01,9.99999e-01,8.70369e-01,8.99225e-01,4.74077e-01,9.99147e-01
9.246095321e-01,3.32338e-01,9.99999e-01,9.99999e-01,8.06746e-01,8.51530e-01,4.81118e-01,9.99017e-01
9.292325798e-01,1.47277e-01,9.99999e-01,9.99999e-01,8.47650e-01,3.47673e-01,4.88121e-01,9.96175e-01
9.338787427e-01,1.08050e-01,9.99999e-01,9.99999e-01,8.50351e-01,2.53871e-01,4.95085e-01,9.84284e-01
9.385481364e-01,2.53562e-01,9.99999e-01,9.99999e-01,8.87289e-01,5.73192e-01,5.02008e-01,9.81336e-01
9.432408771e-01,2.21129e-01,9.99999e-01,9.99999e-01,9.29017e-01,4.72205e-01,5.08888e-01,9.83877e-01
9.479570815e-01,1.75630e-01,9.99999e-01,9.99999e-01,9.63016e-01,3.57157e-01,5.15724e-01,9.86858e-01
9.526968669e-01,2.31094e-01,9.99999e-01,9.99999e-01,9.81973e-01,4.52863e-01,5.22514e-01,9.91963e-01
9.574603512e-01,2.48206e-01,9.99999e-01,9.99999e-01,9.92244e-01,4.74136e-01,5.29256e-01,9.95909e-01
9.622476530e-01,2.88456e-01,9.99999e-01,9.99999e-01,9.97572e-01,5.40909e-01,5.35950e-01,9.97169e-01
9.670588912e-01,3.79325e-01,9.99999e-01,9.99999e-01,9.99270e-01,7.00915e-01,5.42594e-01,9.98063e-01
9.718941857e-01,4.38112e-01,9.99999e-01,9.99999e-01,9.99947e-01,7.98922e-01,5.49186e-01,9.98573e-01
9.767536566e-01,4.60701e-01,9.99999e-01,9.99999e-01,9.99999e-01,8.29910e-01,5.55726e-01,9.98909e-01
9.816374249e-01,4.89183e-01,9.99999e-01,9.99999e-01,9.99999e-01,8.70431e-01,5.62212e-01,9.99622e-01
9.865456120e-01,5.21310e-01,9.99999e-01,9.99999e-01,9.99999e-01,9.16830e-01,5.68644e-01,9.99920e-01
9.914783401e-01,5.44952e-01,9.99999e-01,9.99999e-01,9.99999e-01,9.47729e-01,5.75020e-01,9.99977e-01
9.964357318e-01,5.64578e-01,9.99999e-01,9.99999e-01,9.99999e-01,9.71180e-01,5.81339e-01,9.99986e-01
1.001417910e+00,5.77378e-01,9.99999e-01,9.99999e-01,9.99999e-01,9.82620e-01,5.87601e-01,9.99980e-01
1.006425000e+00,5.87896e-01,9.99999e-01,9.99999e-01,9.99999e-01,9.90074e-01,5.93805e-01,9.99971e-01
1.011457125e+00,5.96224e-01,9.99999e-01,9.99999e-01,9.99999e-01,9.93814e-01,5.99950e-01,9.99973e-01
1.016514411e+00,6.03481e-01,9.99999e-01,9.99999e-01,9.99999e-01,9.95802e-01,6.06035e-01,9.99981e-01
1.021596983e+00,6.09948e-01,9.99999e-01,9.99999e-01,9.99908e-01,9.96656e-01,6.12060e-01,9.99981e-01
1.026704968e+00,6.11937e-01,9.99999e-01,9.99999e-01,9.92744e-01,9.97392e-01,6.18024e-01,9.99987e-01
1.031838492e+00,5.81381e-01,9.99999e-01,9.99999e-01,9.33513e-01,9.98100e-01,6.23927e-01,9.99996e-01
1.036997685e+00,5.20360e-02,9.99999e-01,9.99999e-01,8.26984e-02,9.98873e-01,6.29767e-01,9.99998e-01
1.042182673e+00,1.28114e-02,9.99999e-01,9.99999e-01,2.01802e-02,9.98661e-01,6.35546e-01,9.99999e-01
1.047393587e+00,2.41651e-02,9.99999e-01,9.99999e-01,3.77410e-02,9.98222e-01,6.41262e-01,9.99999e-01
1.052630555e+00,4.47609e-05,9.99999e-01,9.99999e-01,6.93042e-05,9.97564e-01,6.46914e-01,9.99998e-01
1.057893707e+00,1.51869e-04,9.99999e-01,9.99999e-01,2.33290e-04,9.95942e-01,6.52504e-01,9.99998e-01
1.063183176e+00,1.29053e-03,9.99999e-01,9.99999e-01,1.96949e-03,9.93324e-01,6.58030e-01,9.99996e-01
1.068499092e+00,7.11019e-03,9.99999e-01,9.99999e-01,1.08066e-02,9.88832e-01,6.63492e-01,9.99991e-01
1.073841587e+00,3.67500e-02,9.99999e-01,9.99999e-01,5.55053e-02,9.86968e-01,6.68890e-01,9.99982e-01
