#,Wave/freq,Total,N2,O2,CO2,H2O,Rayleigh,CIA
4.000000000e-01,8.96583e-22,9.99999e-01,9.99999e-01,9.99999e-01,9.99906e-01,8.96666e-22,9.99999e-01
4.020000000e-01,2.33763e-21,9.99999e-01,9.99999e-01,9.99999e-01,9.99941e-01,2.33777e-21,9.99999e-01
4.040100000e-01,5.97459e-21,9.99999e-01,9.99999e-01,9.99999e-01,9.99974e-01,5.97474e-21,9.99999e-01
4.060300500e-01,1.49894e-20,9.99999e-01,9.99999e-01,9.99999e-01,9.99993e-01,1.49895e-20,9.99999e-01
4.080602003e-01,3.69286e-20,9.99999e-01,9.99999e-01,9.99999e-01,9.99997e-01,3.69287e-20,9.99999e-01
4.101005013e-01,8.93731e-20,9.99999e-01,9.99999e-01,9.99999e-01,9.99999e-01,8.93731e-20,9.99999e-01
4.121510038e-01,2.12552e-19,9.99999e-01,9.99999e-01,9.99999e-01,9.99996e-01,2.12553e-19,9.99999e-01
4.142117588e-01,4.96919e-19,9.99999e-01,9.99999e-01,9.99999e-01,9.99974e-01,4.96931e-19,9.99999e-01
4.162828176e-01,1.14233e-18,9.99999e-01,9.99999e-01,9.99999e-01,9.99884e-01,1.14246e-18,9.99999e-01
4.183642317e-01,2.58352e-18,9.99999e-01,9.99999e-01,9.99999e-01,9.99930e-01,2.58370e-18,9.99999e-01
4.204560528e-01,5.74944e-18,9.99999e-01,9.99999e-01,9.99999e-01,9.99957e-01,5.74968e-18,9.99999e-01
4.225583331e-01,1.25944e-17,9.99999e-01,9.99999e-01,9.99999e-01,9.99983e-01,1.25946e-17,9.99999e-01
4.246711247e-01,2.71639e-17,9.99999e-01,9.99999e-01,9.99999e-01,9.99987e-01,2.71642e-17,9.99999e-01
4.267944804e-01,5.77043e-17,9.99999e-01,9.99999e-01,9.99999e-01,9.99981e-01,5.77054e-17,9.99999e-01
4.289284528e-01,1.20772e-16,9.99999e-01,9.99999e-01,9.99999e-01,9.99985e-01,1.20774e-16,9.99999e-01
4.310730950e-01,2.49110e-16,9.99999e-01,9.99999e-01,9.99999e-01,9.99993e-01,2.49111e-16,9.99999e-01
4.332284605e-01,5.06527e-16,9.99999e-01,9.99999e-01,9.99999e-01,9.99997e-01,5.06528e-16,9.99999e-01
4.353946028e-01,1.01560e-15,9.99999e-01,9.99999e-01,9.99999e-01,9.99998e-01,1.01561e-15,9.99999e-01
4.375715758e-01,2.00851e-15,9.99999e-01,9.99999e-01,9.99999e-01,9.99988e-01,2.00853e-15,9.99999e-01
4.397594337e-01,3.91868e-15,9.99999e-01,9.99999e-01,9.99999e-01,9.99898e-01,3.91908e-15,9.99999e-01
4.419582309e-01,7.54280e-15,9.99999e-01,9.99999e-01,9.99999e-01,9.99489e-01,7.54665e-15,9.99999e-01
4.441680220e-01,1.43393e-14,9.99999e-01,9.99999e-01,9.99999e-01,9.99596e-01,1.43451e-14,9.99999e-01
4.463888621e-01,2.69129e-14,9.99999e-01,9.99999e-01,9.99999e-01,9.99581e-01,2.69242e-14,9.99999e-01
4.486208064e-01,4.98963e-14,9.99999e-01,9.99999e-01,9.99999e-01,9.99738e-01,4.99093e-14,9.99999e-01
4.508639105e-01,9.13844e-14,9.99999e-01,9.99999e-01,9.99999e-01,9.99877e-01,9.13956e-14,9.99999e-01
4.531182300e-01,1.65371e-13,9.99999e-01,9.99999e-01,9.99999e-01,9.99951e-01,1.65379e-13,9.99999e-01
4.553838212e-01,2.95755e-13,9.99999e-01,9.99999e-01,9.99999e-01,9.99966e-01,2.95764e-13,9.99999e-01
4.576607403e-01,5.22901e-13,9.99999e-01,9.99999e-01,9.99999e-01,9.99984e-01,5.22909e-13,9.99999e-01
4.599490440e-01,9.14140e-13,9.99999e-01,9.99999e-01,9.99999e-01,9.99988e-01,9.14150e-13,9.99999e-01
4.622487892e-01,1.58058e-12,9.99999e-01,9.99999e-01,9.99999e-01,9.99997e-01,1.58058e-12,9.99999e-01
4.645600332e-01,2.70344e-12,9.99999e-01,9.99999e-01,9.99999e-01,9.99992e-01,2.70346e-12,9.99999e-01
4.668828333e-01,4.57472e-12,9.99999e-01,9.99999e-01,9.99999e-01,9.99877e-01,4.57528e-12,9.99999e-01
4.692172475e-01,7.66106e-12,9.99999e-01,9.99999e-01,9.99999e-01,9.99737e-01,7.66307e-12,9.99999e-01
4.715633337e-01,1.27025e-11,9.99999e-01,9.99999e-01,9.99999e-01,9.99828e-01,1.27047e-11,9.99999e-01
4.739211504e-01,2.08505e-11,9.99999e-01,9.99999e-01,9.99999e-01,9.99835e-01,2.08539e-11,9.99999e-01
4.762907561e-01,3.38940e-11,9.99999e-01,9.99999e-01,9.99999e-01,9.99914e-01,3.38969e-11,9.99999e-01
4.786722099e-01,5.45695e-11,9.99999e-01,9.99999e-01,9.99999e-01,9.99964e-01,5.45714e-11,9.99999e-01
4.810655710e-01,8.70323e-11,9.99999e-01,9.99999e-01,9.99999e-01,9.99989e-01,8.70332e-11,9.99999e-01
4.834708988e-01,1.37518e-10,9.99999e-01,9.99999e-01,9.99999e-01,9.99900e-01,1.37531e-10,9.99999e-01
4.858882533e-01,2.15333e-10,9.99999e-01,9.99999e-01,9.99999e-01,9.99813e-01,2.15374e-10,9.99999e-01
4.883176946e-01,3.34248e-10,9.99999e-01,9.99999e-01,9.99999e-01,9.99844e-01,3.34300e-10,9.99999e-01
4.907592831e-01,5.14335e-10,9.99999e-01,9.99999e-01,9.99999e-01,9.99858e-01,5.14408e-10,9.99999e-01
4.932130795e-01,7.84764e-10,9.99999e-01,9.99999e-01,9.99999e-01,9.99899e-01,7.84842e-10,9.99999e-01
4.956791449e-01,1.18744e-09,9.99999e-01,9.99999e-01,9.99999e-01,9.99946e-01,1.18750e-09,9.99999e-01
4.981575406e-01,1.78163e-09,9.99999e-01,9.99999e-01,9.99999e-01,9.99736e-01,1.78210e-09,9.99999e-01
5.006483283e-01,2.65124e-09,9.99999e-01,9.99999e-01,9.99999e-01,9.99320e-01,2.65306e-09,9.99994e-01
5.031515699e-01,3.90508e-09,9.99999e-01,9.99999e-01,9.99999e-01,9.96543e-01,3.91876e-09,9.99963e-01
5.056673278e-01,5.73313e-09,9.99999e-01,9.99999e-01,9.99999e-01,9.98170e-01,5.74388e-09,9.99957e-01
5.081956644e-01,8.33616e-09,9.99999e-01,9.99999e-01,9.99999e-01,9.97691e-01,8.35567e-09,9.99972e-01
5.107366428e-01,1.20465e-08,9.99999e-01,9.99999e-01,9.99999e-01,9.98440e-01,1.20654e-08,9.99994e-01
5.132903260e-01,1.72808e-08,9.99999e-01,9.99999e-01,9.99999e-01,9.99107e-01,1.72962e-08,9.99998e-01
5.158567776e-01,2.46097e-08,9.99999e-01,9.99999e-01,9.99999e-01,9.99622e-01,2.46190e-08,9.99999e-01
5.184360615e-01,3.47934e-08,9.99999e-01,9.99999e-01,9.99999e-01,9.99848e-01,3.47986e-08,9.99999e-01
5.210282418e-01,4.88495e-08,9.99999e-01,9.99999e-01,9.99999e-01,9.99943e-01,4.88523e-08,9.99999e-01
5.236333830e-01,6.81081e-08,9.99999e-01,9.99999e-01,9.99999e-01,9.99773e-01,6.81236e-08,9.99997e-01
5.262515499e-01,9.43616e-08,9.99999e-01,9.99999e-01,9.99999e-01,9.99858e-01,9.43751e-08,9.99997e-01
5.288828077e-01,1.29887e-07,9.99999e-01,9.99999e-01,9.99999e-01,9.99870e-01,1.29904e-07,9.99998e-01
5.315272217e-01,1.77662e-07,9.99999e-01,9.99999e-01,9.99999e-01,9.99885e-01,1.77682e-07,9.99999e-01
5.341848578e-01,2.41517e-07,9.99999e-01,9.99999e-01,9.99999e-01,9.99925e-01,2.41535e-07,9.99999e-01
5.368557821e-01,3.26264e-07,9.99999e-01,9.99999e-01,9.99999e-01,9.99737e-01,3.26350e-07,9.99998e-01
5.395400610e-01,4.37916e-07,9.99999e-01,9.99999e-01,9.99999e-01,9.99056e-01,4.38333e-07,9.99991e-01
5.422377613e-01,5.84589e-07,9.99999e-01,9.99999e-01,9.99999e-01,9.98771e-01,5.85321e-07,9.99977e-01
5.449489501e-01,7.76246e-07,9.99999e-01,9.99999e-01,9.99999e-01,9.98861e-01,7.77148e-07,9.99976e-01
5.476736949e-01,1.02503e-06,9.99999e-01,9.99999e-01,9.99999e-01,9.98987e-01,1.02608e-06,9.99988e-01
5.504120634e-01,1.34634e-06,9.99999e-01,9.99999e-01,9.99999e-01,9.99265e-01,1.34733e-06,9.99996e-01
5.531641237e-01,1.75903e-06,9.99999e-01,9.99999e-01,9.99999e-01,9.99629e-01,1.75968e-06,9.99999e-01
5.559299443e-01,2.28572e-06,9.99999e-01,9.99999e-01,9.99999e-01,9.99821e-01,2.28612e-06,9.99999e-01
5.587095940e-01,2.95443e-06,9.99999e-01,9.99999e-01,9.99999e-01,9.99887e-01,2.95476e-06,9.99999e-01
5.615031420e-01,3.79917e-06,9.99999e-01,9.99999e-01,9.99999e-01,9.99875e-01,3.79964e-06,9.99999e-01
5.643106577e-01,4.86121e-06,9.99999e-01,9.99999e-01,9.99999e-01,9.99859e-01,4.86190e-06,9.99998e-01
5.671322110e-01,6.18033e-06,9.99999e-01,9.99999e-01,9.99999e-01,9.98305e-01,6.19091e-06,9.99984e-01
5.699678720e-01,7.83096e-06,9.99999e-01,9.99999e-01,9.99999e-01,9.98169e-01,7.84568e-06,9.99952e-01
5.728177114e-01,9.87720e-06,9.99999e-01,9.99999e-01,9.99999e-01,9.98105e-01,9.89633e-06,9.99960e-01
5.756818000e-01,1.24039e-05,9.99999e-01,9.99999e-01,9.99999e-01,9.98258e-01,1.24258e-05,9.99975e-01
5.785602090e-01,1.55082e-05,9.99999e-01,9.99999e-01,9.99999e-01,9.98480e-01,1.55319e-05,9.99992e-01
5.814530100e-01,1.92995e-05,9.99999e-01,9.99999e-01,9.99999e-01,9.98475e-01,1.93290e-05,9.99996e-01
5.843602750e-01,2.39072e-05,9.99999e-01,9.99999e-01,9.99999e-01,9.98192e-01,2.39508e-05,9.99989e-01
5.872820764e-01,2.90919e-05,9.99999e-01,9.99999e-01,9.99999e-01,9.84533e-01,2.95522e-05,9.99889e-01
5.902184868e-01,3.56176e-05,9.99999e-01,9.99999e-01,9.99999e-01,9.81157e-01,3.63125e-05,9.99699e-01
5.931695792e-01,4.38341e-05,9.99999e-01,9.99999e-01,9.99999e-01,9.86693e-01,4.44382e-05,9.99707e-01
5.961354271e-01,5.33649e-05,9.99999e-01,9.99999e-01,9.99999e-01,9.85391e-01,5.41656e-05,9.99823e-01
5.991161043e-01,6.50587e-05,9.99999e-01,9.99999e-01,9.99999e-01,9.89314e-01,6.57648e-05,9.99948e-01
6.021116848e-01,7.90582e-05,9.99999e-01,9.99999e-01,9.99999e-01,9.93918e-01,7.95423e-05,9.99993e-01
6.051222432e-01,9.55501e-05,9.99999e-01,9.99999e-01,9.99999e-01,9.96917e-01,9.58455e-05,9.99999e-01
6.081478544e-01,1.14913e-04,9.99999e-01,9.99999e-01,9.99999e-01,9.98670e-01,1.15066e-04,9.99999e-01
6.111885937e-01,1.37565e-04,9.99999e-01,9.99999e-01,9.99999e-01,9.99436e-01,1.37642e-04,9.99999e-01
6.142445367e-01,1.64026e-04,9.99999e-01,9.99999e-01,9.99999e-01,9.99748e-01,1.64067e-04,9.99999e-01
6.173157594e-01,1.94860e-04,9.99999e-01,9.99999e-01,9.99999e-01,9.99861e-01,1.94887e-04,9.99999e-01
6.204023382e-01,2.30685e-04,9.99999e-01,9.99999e-01,9.99999e-01,9.99882e-01,2.30712e-04,9.99999e-01
6.235043498e-01,2.72073e-04,9.99999e-01,9.99999e-01,9.99999e-01,9.99488e-01,2.72212e-04,9.99998e-01
6.266218716e-01,3.19252e-04,9.99999e-01,9.99999e-01,9.99999e-01,9.97272e-01,3.20131e-04,9.99980e-01
6.297549810e-01,3.74890e-04,9.99999e-01,9.99999e-01,9.99999e-01,9.98999e-01,3.75280e-04,9.99961e-01
6.329037559e-01,4.37670e-04,9.99999e-01,9.99999e-01,9.99999e-01,9.98019e-01,4.38552e-04,9.99968e-01
6.360682746e-01,5.10047e-04,9.99999e-01,9.99999e-01,9.99999e-01,9.98317e-01,5.10915e-04,9.99981e-01
6.392486160e-01,5.92127e-04,9.99999e-01,9.99999e-01,9.99999e-01,9.97816e-01,5.93427e-04,9.99991e-01
6.424448591e-01,6.85223e-04,9.99999e-01,9.99999e-01,9.99999e-01,9.97093e-01,6.87229e-04,9.99986e-01
6.456570834e-01,7.82842e-04,9.99999e-01,9.99999e-01,9.99999e-01,9.86574e-01,7.93554e-04,9.99924e-01
6.488853688e-01,9.04493e-04,9.99999e-01,9.99999e-01,9.99999e-01,9.90100e-01,9.13729e-04,9.99789e-01
6.521297956e-01,1.03841e-03,9.99999e-01,9.99999e-01,9.99999e-01,9.89913e-01,1.04918e-03,9.99823e-01
6.553904446e-01,1.18927e-03,9.99999e-01,9.99999e-01,9.99999e-01,9.90014e-01,1.20142e-03,9.99867e-01
6.586673968e-01,1.36020e-03,9.99999e-01,9.99999e-01,9.99999e-01,9.91386e-01,1.37207e-03,9.99956e-01
6.619607338e-01,1.55505e-03,9.99999e-01,9.99999e-01,9.99999e-01,9.95010e-01,1.56287e-03,9.99990e-01
6.652705375e-01,1.77047e-03,9.99999e-01,9.99999e-01,9.99999e-01,9.97104e-01,1.77561e-03,9.99994e-01
6.685968902e-01,2.00954e-03,9.99999e-01,9.99999e-01,9.99999e-01,9.98654e-01,2.01224e-03,9.99998e-01
6.719398746e-01,2.27336e-03,9.99999e-01,9.99999e-01,9.99999e-01,9.99375e-01,2.27478e-03,9.99999e-01
6.752995740e-01,2.56449e-03,9.99999e-01,9.99999e-01,9.99999e-01,9.99662e-01,2.56535e-03,9.99999e-01
6.786760719e-01,2.88477e-03,9.99999e-01,9.99999e-01,9.99999e-01,9.99514e-01,2.88617e-03,9.99998e-01
6.820694522e-01,3.23686e-03,9.99999e-01,9.99999e-01,9.99999e-01,9.99167e-01,3.23957e-03,9.99995e-01
6.854797995e-01,3.62403e-03,9.99999e-01,9.99999e-01,9.99999e-01,9.98927e-01,3.62795e-03,9.99990e-01
6.889071985e-01,4.04330e-03,9.99999e-01,9.99999e-01,9.99999e-01,9.97427e-01,4.05382e-03,9.99976e-01
6.923517345e-01,4.33189e-03,9.99999e-01,9.99999e-01,9.99999e-01,9.58629e-01,4.51975e-03,9.99796e-01
6.958134932e-01,4.91582e-03,9.99999e-01,9.99999e-01,9.99999e-01,9.78053e-01,5.02843e-03,9.99540e-01
6.992925606e-01,5.46487e-03,9.99999e-01,9.99999e-01,9.99999e-01,9.79311e-01,5.58257e-03,9.99595e-01
7.027890234e-01,6.02481e-03,9.99999e-01,9.99999e-01,9.99999e-01,9.74400e-01,6.18500e-03,9.99689e-01
7.063029686e-01,6.69003e-03,9.99999e-01,9.99999e-01,9.99999e-01,9.78427e-01,6.83859e-03,9.99845e-01
7.098344834e-01,7.38927e-03,9.99999e-01,9.99999e-01,9.99999e-01,9.79285e-01,7.54625e-03,9.99908e-01
7.133836558e-01,8.08300e-03,9.99999e-01,9.99999e-01,9.99999e-01,9.72746e-01,8.31096e-03,9.99818e-01
7.169505741e-01,7.32911e-03,9.99999e-01,9.99999e-01,9.99999e-01,8.03391e-01,9.13573e-03,9.98573e-01
7.205353270e-01,8.96686e-03,9.99999e-01,9.99999e-01,9.99999e-01,8.96828e-01,1.00236e-02,9.97485e-01
7.241380036e-01,9.54588e-03,9.99999e-01,9.99999e-01,9.99999e-01,8.71467e-01,1.09776e-02,9.97828e-01
7.277586936e-01,1.05809e-02,9.99999e-01,9.99999e-01,9.99999e-01,8.83241e-01,1.20009e-02,9.98224e-01
7.313974871e-01,1.14541e-02,9.99999e-01,9.99999e-01,9.99999e-01,8.75321e-01,1.30964e-02,9.99167e-01
7.350544745e-01,1.32609e-02,9.99999e-01,9.99999e-01,9.99999e-01,9.29722e-01,1.42674e-02,9.99710e-01
7.387297469e-01,1.47024e-02,9.99999e-01,9.99999e-01,9.99999e-01,9.47642e-01,1.55167e-02,9.99867e-01
7.424233956e-01,1.64086e-02,9.99999e-01,9.99999e-01,9.99999e-01,9.73970e-01,1.68476e-02,9.99973e-01
7.461355126e-01,1.79733e-02,9.99999e-01,9.99999e-01,9.99999e-01,9.84154e-01,1.82628e-02,9.99995e-01
7.498661902e-01,1.96187e-02,9.99999e-01,9.99999e-01,9.99999e-01,9.92580e-01,1.97654e-02,9.99997e-01
7.536155211e-01,2.12805e-02,9.99999e-01,9.99999e-01,9.99999e-01,9.96359e-01,2.13582e-02,9.99998e-01
7.573835987e-01,2.30009e-02,9.99999e-01,9.99999e-01,9.99999e-01,9.98124e-01,2.30442e-02,9.99999e-01
7.611705167e-01,2.47969e-02,9.99999e-01,9.99999e-01,9.99999e-01,9.98834e-01,2.48259e-02,9.99999e-01
7.649763693e-01,2.66865e-02,9.99999e-01,9.99999e-01,9.99999e-01,9.99269e-01,2.67060e-02,9.99999e-01
7.688012511e-01,2.86726e-02,9.99999e-01,9.99999e-01,9.99999e-01,9.99491e-01,2.86871e-02,9.99999e-01
7.726452574e-01,3.07589e-02,9.99999e-01,9.99999e-01,9.99999e-01,9.99581e-01,3.07717e-02,9.99999e-01
7.765084837e-01,3.29426e-02,9.99999e-01,9.99999e-01,9.99999e-01,9.99408e-01,3.29621e-02,9.99998e-01
7.803910261e-01,3.12301e-02,9.99999e-01,9.99999e-01,8.87735e-01,9.97448e-01,3.52604e-02,9.99997e-01
7.842929812e-01,1.97497e-02,9.99999e-01,9.99999e-01,5.28255e-01,9.91123e-01,3.76688e-02,9.99983e-01
7.882144461e-01,2.03230e-02,9.99999e-01,9.99999e-01,5.13915e-01,9.81705e-01,4.01892e-02,9.99886e-01
7.921555184e-01,2.78391e-02,9.99999e-01,9.99999e-01,6.56262e-01,9.89904e-01,4.28235e-02,9.99781e-01
7.961162960e-01,3.35718e-02,9.99999e-01,9.99999e-01,7.49526e-01,9.82336e-01,4.55732e-02,9.99790e-01
8.000968774e-01,4.05726e-02,9.99999e-01,9.99999e-01,8.55053e-01,9.79534e-01,4.84399e-02,9.99777e-01
8.040973618e-01,4.64281e-02,9.99999e-01,9.99999e-01,9.21672e-01,9.79551e-01,5.14250e-02,9.99822e-01
8.081178486e-01,5.01587e-02,9.99999e-01,9.99999e-01,9.63270e-01,9.54797e-01,5.45295e-02,9.99833e-01
8.121584379e-01,4.71451e-02,9.99999e-01,9.99999e-01,9.88456e-01,8.25953e-01,5.77546e-02,9.99348e-01
8.162192301e-01,4.84327e-02,9.99999e-01,9.99999e-01,9.97438e-01,7.96489e-01,6.11010e-02,9.97553e-01
8.203003262e-01,5.76985e-02,9.99999e-01,9.99999e-01,9.99959e-01,8.96178e-01,6.45694e-02,9.97135e-01
8.244018279e-01,5.83511e-02,9.99999e-01,9.99999e-01,9.99999e-01,8.58041e-01,6.81603e-02,9.97719e-01
8.285238370e-01,6.26048e-02,9.99999e-01,9.99999e-01,9.99999e-01,8.72597e-01,7.18740e-02,9.98208e-01
8.326664562e-01,6.59193e-02,9.99999e-01,9.99999e-01,9.99999e-01,8.71317e-01,7.57108e-02,9.99258e-01
8.368297885e-01,7.21333e-02,9.99999e-01,9.99999e-01,9.99999e-01,9.05549e-01,7.96704e-02,9.99830e-01
8.410139374e-01,7.89409e-02,9.99999e-01,9.99999e-01,9.99999e-01,9.42639e-01,8.37528e-02,9.99900e-01
8.452190071e-01,8.54364e-02,9.99999e-01,9.99999e-01,9.99999e-01,9.71395e-01,8.79574e-02,9.99940e-01
8.494451021e-01,9.07410e-02,9.99999e-01,9.99999e-01,9.99999e-01,9.83327e-01,9.22839e-02,9.99952e-01
8.536923276e-01,9.57698e-02,9.99999e-01,9.99999e-01,9.99999e-01,9.90090e-01,9.67313e-02,9.99968e-01
8.579607893e-01,1.00680e-01,9.99999e-01,9.99999e-01,9.99999e-01,9.93896e-01,1.01299e-01,9.99991e-01
8.622505932e-01,1.05574e-01,9.99999e-01,9.99999e-01,9.99999e-01,9.96113e-01,1.05985e-01,9.99998e-01
8.665618462e-01,9.39158e-02,9.99999e-01,9.99999e-01,8.49583e-01,9.97599e-01,1.10790e-01,9.99998e-01
8.708946554e-01,2.47786e-02,9.99999e-01,9.99999e-01,2.14666e-01,9.97255e-01,1.15711e-01,9.99998e-01
8.752491287e-01,3.23672e-02,9.99999e-01,9.99999e-01,2.68959e-01,9.96327e-01,1.20746e-01,9.99995e-01
8.796253743e-01,5.94652e-02,9.99999e-01,9.99999e-01,4.74491e-01,9.94926e-01,1.25895e-01,9.99988e-01
8.840235012e-01,8.76169e-02,9.99999e-01,9.99999e-01,6.71707e-01,9.94204e-01,1.31156e-01,9.99964e-01
8.884436187e-01,1.14136e-01,9.99999e-01,9.99999e-01,8.52996e-01,9.79322e-01,1.36525e-01,9.99898e-01
8.928858368e-01,1.07217e-01,9.99999e-01,9.99999e-01,9.37425e-01,8.03906e-01,1.42002e-01,9.99418e-01
8.973502660e-01,9.86388e-02,9.99999e-01,9.99999e-01,9.84363e-01,6.80081e-01,1.47584e-01,9.97024e-01
9.018370173e-01,1.25019e-01,9.99999e-01,9.99999e-01,9.98262e-01,8.20761e-01,1.53268e-01,9.95325e-01
9.063462024e-01,1.28379e-01,9.99999e-01,9.99999e-01,9.58410e-01,8.40869e-01,1.59053e-01,9.95892e-01
9.108779334e-01,1.13766e-01,9.99999e-01,9.99999e-01,9.03469e-01,7.62869e-01,1.64935e-01,9.95732e-01
9.154323231e-01,1.22279e-01,9.99999e-01,9.99999e-01,9.76306e-01,7.33847e-01,1.70912e-01,9.96471e-01
9.200094847e-01,1.09581e-01,9.99999e-01,9.99999e-01,7.58900e-01,7.85453e-01,1.76981e-01,9.98023e-01
9.246095321e-01,8.02169e-02,9.99999e-01,9.99999e-01,6.11710e-01,6.99451e-01,1.83140e-01,9.97722e-01
9.292325798e-01,1.63753e-02,9.99999e-01,9.99999e-01,6.88879e-01,1.15316e-01,1.89385e-01,9.91149e-01
9.338787427e-01,8.15455e-03,9.99999e-01,9.99999e-01,6.91679e-01,5.72596e-02,1.95713e-01,9.63919e-01
9.385481364e-01,4.79302e-02,9.99999e-01,9.99999e-01,7.60001e-01,3.11252e-01,2.02121e-01,9.57235e-01
9.432408771e-01,3.74514e-02,9.99999e-01,9.99999e-01,8.43760e-01,2.15145e-01,2.08606e-01,9.62996e-01
9.479570815e-01,2.23013e-02,9.99999e-01,9.99999e-01,9.16505e-01,1.15047e-01,2.15165e-01,9.69778e-01
9.526968669e-01,3.89534e-02,9.99999e-01,9.99999e-01,9.58853e-01,1.84851e-01,2.21795e-01,9.81456e-01
9.574603512e-01,4.42800e-02,9.99999e-01,9.99999e-01,9.82157e-01,1.98400e-01,2.28492e-01,9.90537e-01
9.622476530e-01,6.03549e-02,9.99999e-01,9.99999e-01,9.94394e-01,2.59384e-01,2.35253e-01,9.93446e-01
9.670588912e-01,1.09393e-01,9.99999e-01,9.99999e-01,9.98315e-01,4.54548e-01,2.42074e-01,9.95513e-01
9.718941857e-01,1.48629e-01,9.99999e-01,9.99999e-01,9.99879e-01,5.99047e-01,2.48953e-01,9.96695e-01
9.767536566e-01,1.66645e-01,9.99999e-01,9.99999e-01,9.99999e-01,6.52899e-01,2.55885e-01,9.97473e-01
9.816374249e-01,1.90930e-01,9.99999e-01,9.99999e-01,9.99999e-01,7.26971e-01,2.62868e-01,9.99124e-01
9.865456120e-01,2.20881e-01,9.99999e-01,9.99999e-01,9.99999e-01,8.18538e-01,2.69898e-01,9.99817e-01
9.914783401e-01,2.44617e-01,9.99999e-01,9.99999e-01,9.99999e-01,8.83231e-01,2.76971e-01,9.99948e-01
9.964357318e-01,2.65492e-01,9.99999e-01,9.99999e-01,9.99999e-01,9.34581e-01,2.84085e-01,9.99969e-01
1.001417910e+00,2.79638e-01,9.99999e-01,9.99999e-01,9.99999e-01,9.60222e-01,2.91235e-01,9.99954e-01
1.006425000e+00,2.91579e-01,9.99999e-01,9.99999e-01,9.99999e-01,9.77142e-01,2.98419e-01,9.99935e-01
1.011457125e+00,3.01254e-01,9.99999e-01,9.99999e-01,9.99999e-01,9.85733e-01,3.05632e-01,9.99939e-01
1.016514411e+00,3.09825e-01,9.99999e-01,9.99999e-01,9.99999e-01,9.90299e-01,3.12873e-01,9.99957e-01
1.021596983e+00,3.17579e-01,9.99999e-01,9.99999e-01,9.99780e-01,9.92266e-01,3.20137e-01,9.99957e-01
1.026704968e+00,3.19992e-01,9.99999e-01,9.99999e-01,9.83239e-01,9.93965e-01,3.27421e-01,9.99971e-01
1.031838492e+00,2.93921e-01,9.99999e-01,9.99999e-01,8.81740e-01,9.95606e-01,3.34722e-01,9.99991e-01
1.036997685e+00,1.09675e-02,9.99999e-01,9.99999e-01,3.21280e-02,9.97391e-01,3.42037e-01,9.99998e-01
1.042182673e+00,1.93478e-04,9.99999e-01,9.99999e-01,5.55053e-04,9.96896e-01,3.49362e-01,9.99998e-01
1.047393587e+00,5.78295e-04,9.99999e-01,9.99999e-01,1.62668e-03,9.95881e-01,3.56695e-01,9.99998e-01
1.052630555e+00,2.47081e-09,9.99999e-01,9.99999e-01,6.81104e-09,9.94356e-01,3.64033e-01,9.99998e-01
1.057893707e+00,9.13355e-09,9.99999e-01,9.99999e-01,2.47046e-08,9.90604e-01,3.71372e-01,9.99996e-01
1.063183176e+00,1.13577e-06,9.99999e-01,9.99999e-01,3.02411e-06,9.84580e-01,3.78710e-01,9.99991e-01
1.068499092e+00,2.09087e-05,9.99999e-01,9.99999e-01,5.49724e-05,9.74302e-01,3.86043e-01,9.99981e-01
1.073841587e+00,6.26423e-04,9.99999e-01,9.99999e-01,1.62472e-03,9.70070e-01,3.93370e-01,9.99961e-01
