#,Wave/freq,Total,N2,O2,CO2,H2O,Rayleigh,CIA
4.000000000e-01,8.57333e-07,9.99999e-01,9.99999e-01,9.99999e-01,9.99972e-01,8.57356e-07,9.99999e-01
4.020000000e-01,1.13009e-06,9.99999e-01,9.99999e-01,9.99999e-01,9.99982e-01,1.13011e-06,9.99999e-01
4.040100000e-01,1.48110e-06,9.99999e-01,9.99999e-01,9.99999e-01,9.99992e-01,1.48111e-06,9.99999e-01
4.060300500e-01,1.93078e-06,9.99999e-01,9.99999e-01,9.99999e-01,9.99997e-01,1.93078e-06,9.99999e-01
4.080602003e-01,2.50382e-06,9.99999e-01,9.99999e-01,9.99999e-01,9.99998e-01,2.50382e-06,9.99999e-01
4.101005013e-01,3.23032e-06,9.99999e-01,9.99999e-01,9.99999e-01,9.99999e-01,3.23032e-06,9.99999e-01
4.121510038e-01,4.14668e-06,9.99999e-01,9.99999e-01,9.99999e-01,9.99998e-01,4.14669e-06,9.99999e-01
4.142117588e-01,5.29678e-06,9.99999e-01,9.99999e-01,9.99999e-01,9.99992e-01,5.29682e-06,9.99999e-01
4.162828176e-01,6.73309e-06,9.99999e-01,9.99999e-01,9.99999e-01,9.99966e-01,6.73331e-06,9.99999e-01
4.183642317e-01,8.51874e-06,9.99999e-01,9.99999e-01,9.99999e-01,9.99979e-01,8.51891e-06,9.99999e-01
4.204560528e-01,1.07279e-05,9.99999e-01,9.99999e-01,9.99999e-01,9.99987e-01,1.07281e-05,9.99999e-01
4.225583331e-01,1.34487e-05,9.99999e-01,9.99999e-01,9.99999e-01,9.99994e-01,1.34487e-05,9.99999e-01
4.246711247e-01,1.67842e-05,9.99999e-01,9.99999e-01,9.99999e-01,9.99995e-01,1.67842e-05,9.99999e-01
4.267944804e-01,2.08554e-05,9.99999e-01,9.99999e-01,9.99999e-01,9.99994e-01,2.08555e-05,9.99999e-01
4.289284528e-01,2.58034e-05,9.99999e-01,9.99999e-01,9.99999e-01,9.99995e-01,2.58035e-05,9.99999e-01
4.310730950e-01,3.17913e-05,9.99999e-01,9.99999e-01,9.99999e-01,9.99997e-01,3.17914e-05,9.99999e-01
4.332284605e-01,3.90076e-05,9.99999e-01,9.99999e-01,9.99999e-01,9.99999e-01,3.90077e-05,9.99999e-01
4.353946028e-01,4.76689e-05,9.99999e-01,9.99999e-01,9.99999e-01,9.99999e-01,4.76689e-05,9.99999e-01
4.375715758e-01,5.80229e-05,9.99999e-01,9.99999e-01,9.99999e-01,9.99996e-01,5.80231e-05,9.99999e-01
4.397594337e-01,7.03506e-05,9.99999e-01,9.99999e-01,9.99999e-01,9.99970e-01,7.03526e-05,9.99999e-01
4.419582309e-01,8.49656e-05,9.99999e-01,9.99999e-01,9.99999e-01,9.99853e-01,8.49781e-05,9.99999e-01
4.441680220e-01,1.02250e-04,9.99999e-01,9.99999e-01,9.99999e-01,9.99882e-01,1.02262e-04,9.99999e-01
4.463888621e-01,1.22597e-04,9.99999e-01,9.99999e-01,9.99999e-01,9.99878e-01,1.22612e-04,9.99999e-01
4.486208064e-01,1.46474e-04,9.99999e-01,9.99999e-01,9.99999e-01,9.99924e-01,1.46485e-04,9.99999e-01
4.508639105e-01,1.74386e-04,9.99999e-01,9.99999e-01,9.99999e-01,9.99964e-01,1.74392e-04,9.99999e-01
4.531182300e-01,2.06900e-04,9.99999e-01,9.99999e-01,9.99999e-01,9.99985e-01,2.06903e-04,9.99999e-01
4.553838212e-01,2.44644e-04,9.99999e-01,9.99999e-01,9.99999e-01,9.99990e-01,2.44647e-04,9.99999e-01
4.576607403e-01,2.88319e-04,9.99999e-01,9.99999e-01,9.99999e-01,9.99995e-01,2.88320e-04,9.99999e-01
4.599490440e-01,3.38688e-04,9.99999e-01,9.99999e-01,9.99999e-01,9.99996e-01,3.38689e-04,9.99999e-01
4.622487892e-01,3.96594e-04,9.99999e-01,9.99999e-01,9.99999e-01,9.99998e-01,3.96594e-04,9.99999e-01
4.645600332e-01,4.62952e-04,9.99999e-01,9.99999e-01,9.99999e-01,9.99997e-01,4.62953e-04,9.99999e-01
4.668828333e-01,5.38748e-04,9.99999e-01,9.99999e-01,9.99999e-01,9.99964e-01,5.38767e-04,9.99999e-01
4.692172475e-01,6.25073e-04,9.99999e-01,9.99999e-01,9.99999e-01,9.99923e-01,6.25121e-04,9.99999e-01
4.715633337e-01,7.23153e-04,9.99999e-01,9.99999e-01,9.99999e-01,9.99950e-01,7.23188e-04,9.99999e-01
4.739211504e-01,8.34197e-04,9.99999e-01,9.99999e-01,9.99999e-01,9.99952e-01,8.34236e-04,9.99999e-01
4.762907561e-01,9.59601e-04,9.99999e-01,9.99999e-01,9.99999e-01,9.99974e-01,9.59624e-04,9.99999e-01
4.786722099e-01,1.10080e-03,9.99999e-01,9.99999e-01,9.99999e-01,9.99989e-01,1.10081e-03,9.99999e-01
4.810655710e-01,1.25934e-03,9.99999e-01,9.99999e-01,9.99999e-01,9.99996e-01,1.25935e-03,9.99999e-01
4.834708988e-01,1.43685e-03,9.99999e-01,9.99999e-01,9.99999e-01,9.99971e-01,1.43689e-03,9.99999e-01
4.858882533e-01,1.63512e-03,9.99999e-01,9.99999e-01,9.99999e-01,9.99945e-01,1.63521e-03,9.99999e-01
4.883176946e-01,1.85606e-03,9.99999e-01,9.99999e-01,9.99999e-01,9.99954e-01,1.85614e-03,9.99999e-01
4.907592831e-01,2.10158e-03,9.99999e-01,9.99999e-01,9.99999e-01,9.99958e-01,2.10166e-03,9.99999e-01
4.932130795e-01,2.37376e-03,9.99999e-01,9.99999e-01,9.99999e-01,9.99970e-01,2.37383e-03,9.99999e-01
4.956791449e-01,2.67476e-03,9.99999e-01,9.99999e-01,9.99999e-01,9.99984e-01,2.67480e-03,9.99999e-01
4.981575406e-01,3.00660e-03,9.99999e-01,9.99999e-01,9.99999e-01,9.99923e-01,3.00682e-03,9.99999e-01
5.006483283e-01,3.37160e-03,9.99999e-01,9.99999e-01,9.99999e-01,9.99804e-01,3.37227e-03,9.99998e-01
5.031515699e-01,3.76976e-03,9.99999e-01,9.99999e-01,9.99999e-01,9.99002e-01,3.77356e-03,9.99989e-01
5.056673278e-01,4.21097e-03,9.99999e-01,9.99999e-01,9.99999e-01,9.99471e-01,4.21324e-03,9.99987e-01
5.081956644e-01,4.69076e-03,9.99999e-01,9.99999e-01,9.99999e-01,9.99333e-01,4.69393e-03,9.99991e-01
5.107366428e-01,5.21595e-03,9.99999e-01,9.99999e-01,9.99999e-01,9.99549e-01,5.21830e-03,9.99998e-01
5.132903260e-01,5.78764e-03,9.99999e-01,9.99999e-01,9.99999e-01,9.99741e-01,5.78913e-03,9.99999e-01
5.158567776e-01,6.40856e-03,9.99999e-01,9.99999e-01,9.99999e-01,9.99890e-01,6.40926e-03,9.99999e-01
5.184360615e-01,7.08124e-03,9.99999e-01,9.99999e-01,9.99999e-01,9.99955e-01,7.08155e-03,9.99999e-01
5.210282418e-01,7.80884e-03,9.99999e-01,9.99999e-01,9.99999e-01,9.99983e-01,7.80897e-03,9.99999e-01
5.236333830e-01,8.59393e-03,9.99999e-01,9.99999e-01,9.99999e-01,9.99934e-01,8.59449e-03,9.99999e-01
5.262515499e-01,9.44075e-03,9.99999e-01,9.99999e-01,9.99999e-01,9.99958e-01,9.44114e-03,9.99998e-01
5.288828077e-01,1.03516e-02,9.99999e-01,9.99999e-01,9.99999e-01,9.99962e-01,1.03520e-02,9.99999e-01
5.315272217e-01,1.13297e-02,9.99999e-01,9.99999e-01,9.99999e-01,9.99966e-01,1.13300e-02,9.99999e-01
5.341848578e-01,1.23781e-02,9.99999e-01,9.99999e-01,9.99999e-01,9.99978e-01,1.23784e-02,9.99999e-01
5.368557821e-01,1.34992e-02,9.99999e-01,9.99999e-01,9.99999e-01,9.99924e-01,1.35002e-02,9.99999e-01
5.395400610e-01,1.46944e-02,9.99999e-01,9.99999e-01,9.99999e-01,9.99728e-01,1.46984e-02,9.99997e-01
5.422377613e-01,1.59703e-02,9.99999e-01,9.99999e-01,9.99999e-01,9.99645e-01,1.59761e-02,9.99993e-01
5.449489501e-01,1.73305e-02,9.99999e-01,9.99999e-01,9.99999e-01,9.99671e-01,1.73363e-02,9.99992e-01
5.476736949e-01,1.87764e-02,9.99999e-01,9.99999e-01,9.99999e-01,9.99707e-01,1.87820e-02,9.99996e-01
5.504120634e-01,2.03117e-02,9.99999e-01,9.99999e-01,9.99999e-01,9.99787e-01,2.03161e-02,9.99998e-01
5.531641237e-01,2.19390e-02,9.99999e-01,9.99999e-01,9.99999e-01,9.99892e-01,2.19414e-02,9.99999e-01
5.559299443e-01,2.36595e-02,9.99999e-01,9.99999e-01,9.99999e-01,9.99947e-01,2.36607e-02,9.99999e-01
5.587095940e-01,2.54760e-02,9.99999e-01,9.99999e-01,9.99999e-01,9.99967e-01,2.54768e-02,9.99999e-01
5.615031420e-01,2.73913e-02,9.99999e-01,9.99999e-01,9.99999e-01,9.99963e-01,2.73922e-02,9.99999e-01
5.643106577e-01,2.94084e-02,9.99999e-01,9.99999e-01,9.99999e-01,9.99959e-01,2.94095e-02,9.99999e-01
5.671322110e-01,3.15157e-02,9.99999e-01,9.99999e-01,9.99999e-01,9.99513e-01,3.15311e-02,9.99995e-01
5.699678720e-01,3.37409e-02,9.99999e-01,9.99999e-01,9.99999e-01,9.99470e-01,3.37593e-02,9.99986e-01
5.728177114e-01,3.60760e-02,9.99999e-01,9.99999e-01,9.99999e-01,9.99453e-01,3.60962e-02,9.99988e-01
5.756818000e-01,3.85242e-02,9.99999e-01,9.99999e-01,9.99999e-01,9.99497e-01,3.85438e-02,9.99992e-01
5.785602090e-01,4.10860e-02,9.99999e-01,9.99999e-01,9.99999e-01,9.99561e-01,4.11041e-02,9.99997e-01
5.814530100e-01,4.37596e-02,9.99999e-01,9.99999e-01,9.99999e-01,9.99560e-01,4.37789e-02,9.99998e-01
5.843602750e-01,4.65453e-02,9.99999e-01,9.99999e-01,9.99999e-01,9.99479e-01,4.65697e-02,9.99996e-01
5.872820764e-01,4.92545e-02,9.99999e-01,9.99999e-01,9.99999e-01,9.95514e-01,4.94779e-02,9.99967e-01
5.902184868e-01,5.22129e-02,9.99999e-01,9.99999e-01,9.99999e-01,9.94523e-01,5.25049e-02,9.99913e-01
5.931695792e-01,5.54323e-02,9.99999e-01,9.99999e-01,9.99999e-01,9.96139e-01,5.56518e-02,9.99915e-01
5.961354271e-01,5.86667e-02,9.99999e-01,9.99999e-01,9.99999e-01,9.95760e-01,5.89195e-02,9.99948e-01
5.991161043e-01,6.21150e-02,9.99999e-01,9.99999e-01,9.99999e-01,9.96903e-01,6.23088e-02,9.99984e-01
6.021116848e-01,6.57044e-02,9.99999e-01,9.99999e-01,9.99999e-01,9.98240e-01,6.58203e-02,9.99997e-01
6.051222432e-01,6.93926e-02,9.99999e-01,9.99999e-01,9.99999e-01,9.99108e-01,6.94545e-02,9.99999e-01
6.081478544e-01,7.31835e-02,9.99999e-01,9.99999e-01,9.99999e-01,9.99615e-01,7.32116e-02,9.99999e-01
6.111885937e-01,7.70790e-02,9.99999e-01,9.99999e-01,9.99999e-01,9.99836e-01,7.70916e-02,9.99999e-01
6.142445367e-01,8.10886e-02,9.99999e-01,9.99999e-01,9.99999e-01,9.99926e-01,8.10945e-02,9.99999e-01
6.173157594e-01,8.52166e-02,9.99999e-01,9.99999e-01,9.99999e-01,9.99959e-01,8.52200e-02,9.99999e-01
6.204023382e-01,8.94646e-02,9.99999e-01,9.99999e-01,9.99999e-01,9.99965e-01,8.94676e-02,9.99999e-01
6.235043498e-01,9.38230e-02,9.99999e-01,9.99999e-01,9.99999e-01,9.99853e-01,9.38368e-02,9.99999e-01
6.266218716e-01,9.82488e-02,9.99999e-01,9.99999e-01,9.99999e-01,9.99212e-01,9.83267e-02,9.99993e-01
6.297549810e-01,1.02905e-01,9.99999e-01,9.99999e-01,9.99999e-01,9.99711e-01,1.02936e-01,9.99988e-01
6.329037559e-01,1.07602e-01,9.99999e-01,9.99999e-01,9.99999e-01,9.99427e-01,1.07665e-01,9.99990e-01
6.360682746e-01,1.12455e-01,9.99999e-01,9.99999e-01,9.99999e-01,9.99514e-01,1.12510e-01,9.99994e-01
6.392486160e-01,1.17397e-01,9.99999e-01,9.99999e-01,9.99999e-01,9.99369e-01,1.17472e-01,9.99997e-01
6.424448591e-01,1.22444e-01,9.99999e-01,9.99999e-01,9.99999e-01,9.99162e-01,1.22547e-01,9.99995e-01
6.456570834e-01,1.27237e-01,9.99999e-01,9.99999e-01,9.99999e-01,9.96116e-01,1.27736e-01,9.99977e-01
6.488853688e-01,1.32579e-01,9.99999e-01,9.99999e-01,9.99999e-01,9.96634e-01,1.33035e-01,9.99938e-01
6.521297956e-01,1.38030e-01,9.99999e-01,9.99999e-01,9.99999e-01,9.97074e-01,1.38442e-01,9.99948e-01
6.553904446e-01,1.43535e-01,9.99999e-01,9.99999e-01,9.99999e-01,9.97110e-01,1.43956e-01,9.99961e-01
6.586673968e-01,1.49199e-01,9.99999e-01,9.99999e-01,9.99999e-01,9.97503e-01,1.49575e-01,9.99987e-01
6.619607338e-01,1.55070e-01,9.99999e-01,9.99999e-01,9.99999e-01,9.98556e-01,1.55295e-01,9.99996e-01
6.652705375e-01,1.60979e-01,9.99999e-01,9.99999e-01,9.99999e-01,9.99162e-01,1.61114e-01,9.99998e-01
6.685968902e-01,1.66965e-01,9.99999e-01,9.99999e-01,9.99999e-01,9.99610e-01,1.67030e-01,9.99999e-01
6.719398746e-01,1.73009e-01,9.99999e-01,9.99999e-01,9.99999e-01,9.99819e-01,1.73040e-01,9.99999e-01
6.752995740e-01,1.79123e-01,9.99999e-01,9.99999e-01,9.99999e-01,9.99902e-01,1.79141e-01,9.99999e-01
6.786760719e-01,1.85304e-01,9.99999e-01,9.99999e-01,9.99999e-01,9.99859e-01,1.85330e-01,9.99999e-01
6.820694522e-01,1.91558e-01,9.99999e-01,9.99999e-01,9.99999e-01,9.99759e-01,1.91604e-01,9.99998e-01
6.854797995e-01,1.97899e-01,9.99999e-01,9.99999e-01,9.99999e-01,9.99690e-01,1.97961e-01,9.99996e-01
6.889071985e-01,2.04245e-01,9.99999e-01,9.99999e-01,9.99999e-01,9.99261e-01,2.04397e-01,9.99992e-01
6.923517345e-01,2.08339e-01,9.99999e-01,9.99999e-01,9.99999e-01,9.87873e-01,2.10908e-01,9.99940e-01
6.958134932e-01,2.16065e-01,9.99999e-01,9.99999e-01,9.99999e-01,9.93567e-01,2.17493e-01,9.99867e-01
6.992925606e-01,2.22774e-01,9.99999e-01,9.99999e-01,9.99999e-01,9.93991e-01,2.24146e-01,9.99883e-01
7.027890234e-01,2.29122e-01,9.99999e-01,9.99999e-01,9.99999e-01,9.92534e-01,2.30866e-01,9.99910e-01
7.063029686e-01,2.36147e-01,9.99999e-01,9.99999e-01,9.99999e-01,9.93725e-01,2.37649e-01,9.99955e-01
7.098344834e-01,2.43012e-01,9.99999e-01,9.99999e-01,9.99999e-01,9.93979e-01,2.44491e-01,9.99973e-01
7.133836558e-01,2.49383e-01,9.99999e-01,9.99999e-01,9.99999e-01,9.92071e-01,2.51389e-01,9.99947e-01
7.169505741e-01,2.42122e-01,9.99999e-01,9.99999e-01,9.99999e-01,9.37610e-01,2.58339e-01,9.99588e-01
7.205353270e-01,2.56791e-01,9.99999e-01,9.99999e-01,9.99999e-01,9.68486e-01,2.65339e-01,9.99274e-01
7.241380036e-01,2.61502e-01,9.99999e-01,9.99999e-01,9.99999e-01,9.60650e-01,2.72385e-01,9.99373e-01
7.277586936e-01,2.69384e-01,9.99999e-01,9.99999e-01,9.99999e-01,9.64395e-01,2.79472e-01,9.99487e-01
7.313974871e-01,2.75634e-01,9.99999e-01,9.99999e-01,9.99999e-01,9.61970e-01,2.86599e-01,9.99759e-01
7.350544745e-01,2.87594e-01,9.99999e-01,9.99999e-01,9.99999e-01,9.79083e-01,2.93762e-01,9.99916e-01
7.387297469e-01,2.96298e-01,9.99999e-01,9.99999e-01,9.99999e-01,9.84558e-01,3.00956e-01,9.99961e-01
7.424233956e-01,3.05836e-01,9.99999e-01,9.99999e-01,9.99999e-01,9.92401e-01,3.08180e-01,9.99992e-01
7.461355126e-01,3.13977e-01,9.99999e-01,9.99999e-01,9.99999e-01,9.95396e-01,3.15429e-01,9.99998e-01
7.498661902e-01,3.22007e-01,9.99999e-01,9.99999e-01,9.99999e-01,9.97849e-01,3.22701e-01,9.99999e-01
7.536155211e-01,3.29644e-01,9.99999e-01,9.99999e-01,9.99999e-01,9.98947e-01,3.29991e-01,9.99999e-01
7.573835987e-01,3.37115e-01,9.99999e-01,9.99999e-01,9.99999e-01,9.99457e-01,3.37297e-01,9.99999e-01
7.611705167e-01,3.44500e-01,9.99999e-01,9.99999e-01,9.99999e-01,9.99662e-01,3.44616e-01,9.99999e-01
7.649763693e-01,3.51871e-01,9.99999e-01,9.99999e-01,9.99999e-01,9.99788e-01,3.51945e-01,9.99999e-01
7.688012511e-01,3.59227e-01,9.99999e-01,9.99999e-01,9.99999e-01,9.99852e-01,3.59280e-01,9.99999e-01
7.726452574e-01,3.66574e-01,9.99999e-01,9.99999e-01,9.99999e-01,9.99879e-01,3.66618e-01,9.99999e-01
7.765084837e-01,3.73894e-01,9.99999e-01,9.99999e-01,9.99999e-01,9.99829e-01,3.73957e-01,9.99999e-01
7.803910261e-01,3.65133e-01,9.99999e-01,9.99999e-01,9.58292e-01,9.99265e-01,3.81294e-01,9.99998e-01
7.842929812e-01,3.17661e-01,9.99999e-01,9.99999e-01,8.19369e-01,9.97437e-01,3.88625e-01,9.99994e-01
7.882144461e-01,3.18785e-01,9.99999e-01,9.99999e-01,8.09224e-01,9.94686e-01,3.95949e-01,9.99967e-01
7.921555184e-01,3.55014e-01,9.99999e-01,9.99999e-01,8.82919e-01,9.97071e-01,4.03261e-01,9.99936e-01
7.961162960e-01,3.75536e-01,9.99999e-01,9.99999e-01,9.19395e-01,9.94876e-01,4.10560e-01,9.99939e-01
8.000968774e-01,3.96869e-01,9.99999e-01,9.99999e-01,9.55522e-01,9.94055e-01,4.17844e-01,9.99935e-01
8.040973618e-01,4.12690e-01,9.99999e-01,9.99999e-01,9.76621e-01,9.94060e-01,4.25108e-01,9.99948e-01
8.081178486e-01,4.22016e-01,9.99999e-01,9.99999e-01,9.89239e-01,9.86731e-01,4.32352e-01,9.99951e-01
8.121584379e-01,4.14257e-01,9.99999e-01,9.99999e-01,9.96640e-01,9.45719e-01,4.39573e-01,9.99811e-01
8.162192301e-01,4.17287e-01,9.99999e-01,9.99999e-01,9.99256e-01,9.35349e-01,4.46768e-01,9.99293e-01
8.203003262e-01,4.38946e-01,9.99999e-01,9.99999e-01,9.99987e-01,9.67790e-01,4.53935e-01,9.99173e-01
8.244018279e-01,4.39733e-01,9.99999e-01,9.99999e-01,9.99999e-01,9.54345e-01,4.61072e-01,9.99341e-01
8.285238370e-01,4.49740e-01,9.99999e-01,9.99999e-01,9.99999e-01,9.61114e-01,4.68177e-01,9.99482e-01
8.326664562e-01,4.56410e-01,9.99999e-01,9.99999e-01,9.99999e-01,9.60565e-01,4.75248e-01,9.99785e-01
8.368297885e-01,4.68578e-01,9.99999e-01,9.99999e-01,9.99999e-01,9.71630e-01,4.82283e-01,9.99950e-01
8.410139374e-01,4.80970e-01,9.99999e-01,9.99999e-01,9.99999e-01,9.83044e-01,4.89280e-01,9.99970e-01
8.452190071e-01,4.92083e-01,9.99999e-01,9.99999e-01,9.99999e-01,9.91644e-01,4.96238e-01,9.99982e-01
8.494451021e-01,5.00712e-01,9.99999e-01,9.99999e-01,9.99999e-01,9.95160e-01,5.03153e-01,9.99985e-01
8.536923276e-01,5.08557e-01,9.99999e-01,9.99999e-01,9.99999e-01,9.97127e-01,5.10026e-01,9.99990e-01
8.579607893e-01,5.15941e-01,9.99999e-01,9.99999e-01,9.99999e-01,9.98234e-01,5.16855e-01,9.99997e-01
8.622505932e-01,5.23048e-01,9.99999e-01,9.99999e-01,9.99999e-01,9.98876e-01,5.23637e-01,9.99999e-01
8.665618462e-01,4.84973e-01,9.99999e-01,9.99999e-01,9.15008e-01,9.99306e-01,5.30371e-01,9.99999e-01
8.708946554e-01,3.25456e-01,9.99999e-01,9.99999e-01,6.06457e-01,9.99207e-01,5.37057e-01,9.99999e-01
8.752491287e-01,3.61550e-01,9.99999e-01,9.99999e-01,6.65669e-01,9.98939e-01,5.43692e-01,9.99998e-01
8.796253743e-01,4.38767e-01,9.99999e-01,9.99999e-01,7.98484e-01,9.98535e-01,5.50276e-01,9.99996e-01
8.840235012e-01,4.94514e-01,9.99999e-01,9.99999e-01,8.89592e-01,9.98326e-01,5.56807e-01,9.99989e-01
8.884436187e-01,5.34590e-01,9.99999e-01,9.99999e-01,9.54745e-01,9.93996e-01,5.63284e-01,9.99970e-01
8.928858368e-01,5.24424e-01,9.99999e-01,9.99999e-01,9.81456e-01,9.37868e-01,5.69707e-01,9.99831e-01
8.973502660e-01,5.11083e-01,9.99999e-01,9.99999e-01,9.95440e-01,8.91905e-01,5.76073e-01,9.99140e-01
9.018370173e-01,5.48145e-01,9.99999e-01,9.99999e-01,9.99495e-01,9.42938e-01,5.82383e-01,9.98649e-01
9.063462024e-01,5.52007e-01,9.99999e-01,9.99999e-01,9.87523e-01,9.50258e-01,5.88636e-01,9.98813e-01
9.108779334e-01,5.32773e-01,9.99999e-01,9.99999e-01,9.70942e-01,9.23180e-01,5.94830e-01,9.98767e-01
9.154323231e-01,5.44435e-01,9.99999e-01,9.99999e-01,9.93047e-01,9.13028e-01,6.00965e-01,9.98981e-01
9.200094847e-01,5.15071e-01,9.99999e-01,9.99999e-01,9.07471e-01,9.31099e-01,6.07040e-01,9.99429e-01
9.246095321e-01,4.77092e-01,9.99999e-01,9.99999e-01,8.65832e-01,8.96527e-01,6.13055e-01,9.99342e-01
9.292325798e-01,2.69880e-01,9.99999e-01,9.99999e-01,8.94425e-01,4.81785e-01,6.19008e-01,9.97440e-01
9.338787427e-01,2.17990e-01,9.99999e-01,9.99999e-01,8.96752e-01,3.87637e-01,6.24901e-01,9.89460e-01
9.385481364e-01,3.94048e-01,9.99999e-01,9.99999e-01,9.22962e-01,6.81455e-01,6.30731e-01,9.87478e-01
9.432408771e-01,3.56068e-01,9.99999e-01,9.99999e-01,9.51937e-01,5.92086e-01,6.36499e-01,9.89187e-01
9.479570815e-01,3.02975e-01,9.99999e-01,9.99999e-01,9.75107e-01,4.87307e-01,6.42204e-01,9.91191e-01
9.526968669e-01,3.68630e-01,9.99999e-01,9.99999e-01,9.87903e-01,5.78322e-01,6.47847e-01,9.94617e-01
9.574603512e-01,3.89755e-01,9.99999e-01,9.99999e-01,9.94806e-01,6.00972e-01,6.53426e-01,9.97262e-01
9.622476530e-01,4.32803e-01,9.99999e-01,9.99999e-01,9.98376e-01,6.59049e-01,6.58941e-01,9.98105e-01
9.670588912e-01,5.21489e-01,9.99999e-01,9.99999e-01,9.99512e-01,7.86287e-01,6.64392e-01,9.98704e-01
9.718941857e-01,5.75477e-01,9.99999e-01,9.99999e-01,9.99964e-01,8.60050e-01,6.69780e-01,9.99045e-01
9.767536566e-01,5.95258e-01,9.99999e-01,9.99999e-01,9.99999e-01,8.82370e-01,6.75104e-01,9.99270e-01
9.816374249e-01,6.19790e-01,9.99999e-01,9.99999e-01,9.99999e-01,9.11199e-01,6.80363e-01,9.99747e-01
9.865456120e-01,6.46807e-01,9.99999e-01,9.99999e-01,9.99999e-01,9.43523e-01,6.85559e-01,9.99946e-01
9.914783401e-01,6.66312e-01,9.99999e-01,9.99999e-01,9.99999e-01,9.64718e-01,6.90690e-01,9.99984e-01
9.964357318e-01,6.82273e-01,9.99999e-01,9.99999e-01,9.99999e-01,9.80627e-01,6.95757e-01,9.99990e-01
1.001417910e+00,6.92583e-01,9.99999e-01,9.99999e-01,9.99999e-01,9.88342e-01,7.00760e-01,9.99986e-01
1.006425000e+00,7.00995e-01,9.99999e-01,9.99999e-01,9.99999e-01,9.93350e-01,7.05700e-01,9.99980e-01
1.011457125e+00,7.07621e-01,9.99999e-01,9.99999e-01,9.99999e-01,9.95859e-01,7.10575e-01,9.99982e-01
1.016514411e+00,7.13369e-01,9.99999e-01,9.99999e-01,9.99999e-01,9.97190e-01,7.15387e-01,9.99987e-01
1.021596983e+00,7.18472e-01,9.99999e-01,9.99999e-01,9.99938e-01,9.97762e-01,7.20136e-01,9.99987e-01
1.026704968e+00,7.20026e-01,9.99999e-01,9.99999e-01,9.95124e-01,9.98255e-01,7.24821e-01,9.99991e-01
1.031838492e+00,6.91714e-01,9.99999e-01,9.99999e-01,9.49444e-01,9.98729e-01,7.29443e-01,9.99997e-01
1.036997685e+00,8.77041e-02,9.99999e-01,9.99999e-01,1.19558e-01,9.99246e-01,7.34003e-01,9.99999e-01
1.042182673e+00,4.74413e-02,9.99999e-01,9.99999e-01,6.42896e-02,9.99104e-01,7.38500e-01,9.99999e-01
1.047393587e+00,6.70331e-02,9.99999e-01,9.99999e-01,9.03211e-02,9.98810e-01,7.42935e-01,9.99999e-01
1.052630555e+00,7.16405e-04,9.99999e-01,9.99999e-01,9.59754e-04,9.98370e-01,7.47308e-01,9.99999e-01
1.057893707e+00,2.05802e-03,9.99999e-01,9.99999e-01,2.74280e-03,9.97283e-01,7.51620e-01,9.99998e-01
1.063183176e+00,9.48314e-03,9.99999e-01,9.99999e-01,1.25842e-02,9.95528e-01,7.55871e-01,9.99997e-01
1.068499092e+00,3.42686e-02,9.99999e-01,9.99999e-01,4.53603e-02,9.92514e-01,7.60062e-01,9.99994e-01
1.073841587e+00,1.06407e-01,9.99999e-01,9.99999e-01,1.40250e-01,9.91258e-01,7.64192e-01,9.99988e-01
