#,Wave/freq,Total,N2,O2,CO2,H2O,Rayleigh,CIA
4.000000000e-01,1.61313e-02,9.99999e-01,9.99999e-01,9.99999e-01,9.99991e-01,1.61315e-02,9.99999e-01
4.020000000e-01,1.75029e-02,9.99999e-01,9.99999e-01,9.99999e-01,9.99994e-01,1.75030e-02,9.99999e-01
4.040100000e-01,1.89589e-02,9.99999e-01,9.99999e-01,9.99999e-01,9.99997e-01,1.89590e-02,9.99999e-01
4.060300500e-01,2.05037e-02,9.99999e-01,9.99999e-01,9.99999e-01,9.99999e-01,2.05037e-02,9.99999e-01
4.080602003e-01,2.21400e-02,9.99999e-01,9.99999e-01,9.99999e-01,9.99999e-01,2.21400e-02,9.99999e-01
4.101005013e-01,2.38707e-02,9.99999e-01,9.99999e-01,9.99999e-01,9.99999e-01,2.38707e-02,9.99999e-01
4.121510038e-01,2.56984e-02,9.99999e-01,9.99999e-01,9.99999e-01,9.99999e-01,2.56984e-02,9.99999e-01
4.142117588e-01,2.76257e-02,9.99999e-01,9.99999e-01,9.99999e-01,9.99997e-01,2.76258e-02,9.99999e-01
4.162828176e-01,2.96550e-02,9.99999e-01,9.99999e-01,9.99999e-01,9.99989e-01,2.96553e-02,9.99999e-01
4.183642317e-01,3.17892e-02,9.99999e-01,9.99999e-01,9.99999e-01,9.99993e-01,3.17894e-02,9.99999e-01
4.204560528e-01,3.40302e-02,9.99999e-01,9.99999e-01,9.99999e-01,9.99995e-01,3.40303e-02,9.99999e-01
4.225583331e-01,3.63801e-02,9.99999e-01,9.99999e-01,9.99999e-01,9.99998e-01,3.63802e-02,9.99999e-01
4.246711247e-01,3.88410e-02,9.99999e-01,9.99999e-01,9.99999e-01,9.99998e-01,3.88411e-02,9.99999e-01
4.267944804e-01,4.14148e-02,9.99999e-01,9.99999e-01,9.99999e-01,9.99997e-01,4.14149e-02,9.99999e-01
4.289284528e-01,4.41032e-02,9.99999e-01,9.99999e-01,9.99999e-01,9.99998e-01,4.41033e-02,9.99999e-01
4.310730950e-01,4.69079e-02,9.99999e-01,9.99999e-01,9.99999e-01,9.99998e-01,4.69079e-02,9.99999e-01
4.332284605e-01,4.98301e-02,9.99999e-01,9.99999e-01,9.99999e-01,9.99999e-01,4.98301e-02,9.99999e-01
4.353946028e-01,5.28713e-02,9.99999e-01,9.99999e-01,9.99999e-01,9.99999e-01,5.28713e-02,9.99999e-01
4.375715758e-01,5.60324e-02,9.99999e-01,9.99999e-01,9.99999e-01,9.99998e-01,5.60324e-02,9.99999e-01
4.397594337e-01,5.93140e-02,9.99999e-01,9.99999e-01,9.99999e-01,9.99990e-01,5.93145e-02,9.99999e-01
4.419582309e-01,6.27155e-02,9.99999e-01,9.99999e-01,9.99999e-01,9.99955e-01,6.27182e-02,9.99999e-01
4.441680220e-01,6.62420e-02,9.99999e-01,9.99999e-01,9.99999e-01,9.99965e-01,6.62443e-02,9.99999e-01
4.463888621e-01,6.98905e-02,9.99999e-01,9.99999e-01,9.99999e-01,9.99963e-01,6.98930e-02,9.99999e-01
4.486208064e-01,7.36630e-02,9.99999e-01,9.99999e-01,9.99999e-01,9.99977e-01,7.36646e-02,9.99999e-01
4.508639105e-01,7.75584e-02,9.99999e-01,9.99999e-01,9.99999e-01,9.99989e-01,7.75592e-02,9.99999e-01
4.531182300e-01,8.15763e-02,9.99999e-01,9.99999e-01,9.99999e-01,9.99995e-01,8.15766e-02,9.99999e-01
4.553838212e-01,8.57164e-02,9.99999e-01,9.99999e-01,9.99999e-01,9.99996e-01,8.57166e-02,9.99999e-01
4.576607403e-01,8.99786e-02,9.99999e-01,9.99999e-01,9.99999e-01,9.99998e-01,8.99787e-02,9.99999e-01
4.599490440e-01,9.43621e-02,9.99999e-01,9.99999e-01,9.99999e-01,9.99998e-01,9.43622e-02,9.99999e-01
4.622487892e-01,9.88663e-02,9.99999e-01,9.99999e-01,9.99999e-01,9.99999e-01,9.88663e-02,9.99999e-01
4.645600332e-01,1.03490e-01,9.99999e-01,9.99999e-01,9.99999e-01,9.99998e-01,1.03490e-01,9.99999e-01
4.668828333e-01,1.08231e-01,9.99999e-01,9.99999e-01,9.99999e-01,9.99988e-01,1.08232e-01,9.99999e-01
4.692172475e-01,1.13089e-01,9.99999e-01,9.99999e-01,9.99999e-01,9.99977e-01,1.13092e-01,9.99999e-01
4.715633337e-01,1.18065e-01,9.99999e-01,9.99999e-01,9.99999e-01,9.99984e-01,1.18067e-01,9.99999e-01
4.739211504e-01,1.23154e-01,9.99999e-01,9.99999e-01,9.99999e-01,9.99985e-01,1.23156e-01,9.99999e-01
4.762907561e-01,1.28357e-01,9.99999e-01,9.99999e-01,9.99999e-01,9.99992e-01,1.28357e-01,9.99999e-01
4.786722099e-01,1.33669e-01,9.99999e-01,9.99999e-01,9.99999e-01,9.99996e-01,1.33669e-01,9.99999e-01
4.810655710e-01,1.39090e-01,9.99999e-01,9.99999e-01,9.99999e-01,9.99998e-01,1.39090e-01,9.99999e-01
4.834708988e-01,1.44615e-01,9.99999e-01,9.99999e-01,9.99999e-01,9.99990e-01,1.44616e-01,9.99999e-01
4.858882533e-01,1.50244e-01,9.99999e-01,9.99999e-01,9.99999e-01,9.99983e-01,1.50247e-01,9.99999e-01
4.883176946e-01,1.55977e-01,9.99999e-01,9.99999e-01,9.99999e-01,9.99986e-01,1.55979e-01,9.99999e-01
4.907592831e-01,1.61808e-01,9.99999e-01,9.99999e-01,9.99999e-01,9.99987e-01,1.61809e-01,9.99999e-01
4.932130795e-01,1.67735e-01,9.99999e-01,9.99999e-01,9.99999e-01,9.99991e-01,1.67737e-01,9.99999e-01
4.956791449e-01,1.73757e-01,9.99999e-01,9.99999e-01,9.99999e-01,9.99995e-01,1.73758e-01,9.99999e-01
4.981575406e-01,1.79865e-01,9.99999e-01,9.99999e-01,9.99999e-01,9.99976e-01,1.79869e-01,9.99999e-01
5.006483283e-01,1.86058e-01,9.99999e-01,9.99999e-01,9.99999e-01,9.99940e-01,1.86069e-01,9.99999e-01
5.031515699e-01,1.92295e-01,9.99999e-01,9.99999e-01,9.99999e-01,9.99703e-01,1.92353e-01,9.99996e-01
5.056673278e-01,1.98687e-01,9.99999e-01,9.99999e-01,9.99999e-01,9.99843e-01,1.98719e-01,9.99995e-01
5.081956644e-01,2.05123e-01,9.99999e-01,9.99999e-01,9.99999e-01,9.99803e-01,2.05164e-01,9.99997e-01
5.107366428e-01,2.11656e-01,9.99999e-01,9.99999e-01,9.99999e-01,9.99867e-01,2.11684e-01,9.99999e-01
5.132903260e-01,2.18261e-01,9.99999e-01,9.99999e-01,9.99999e-01,9.99923e-01,2.18277e-01,9.99999e-01
5.158567776e-01,2.24932e-01,9.99999e-01,9.99999e-01,9.99999e-01,9.99967e-01,2.24939e-01,9.99999e-01
5.184360615e-01,2.31663e-01,9.99999e-01,9.99999e-01,9.99999e-01,9.99986e-01,2.31666e-01,9.99999e-01
5.210282418e-01,2.38455e-01,9.99999e-01,9.99999e-01,9.99999e-01,9.99994e-01,2.38456e-01,9.99999e-01
5.236333830e-01,2.45300e-01,9.99999e-01,9.99999e-01,9.99999e-01,9.99980e-01,2.45305e-01,9.99999e-01
5.262515499e-01,2.52206e-01,9.99999e-01,9.99999e-01,9.99999e-01,9.99987e-01,2.52209e-01,9.99999e-01
5.288828077e-01,2.59163e-01,9.99999e-01,9.99999e-01,9.99999e-01,9.99988e-01,2.59166e-01,9.99999e-01
5.315272217e-01,2.66168e-01,9.99999e-01,9.99999e-01,9.99999e-01,9.99989e-01,2.66171e-01,9.99999e-01
5.341848578e-01,2.73220e-01,9.99999e-01,9.99999e-01,9.99999e-01,9.99993e-01,2.73222e-01,9.99999e-01
5.368557821e-01,2.80308e-01,9.99999e-01,9.99999e-01,9.99999e-01,9.99977e-01,2.80314e-01,9.99999e-01
5.395400610e-01,2.87422e-01,9.99999e-01,9.99999e-01,9.99999e-01,9.99917e-01,2.87446e-01,9.99998e-01
5.422377613e-01,2.94581e-01,9.99999e-01,9.99999e-01,9.99999e-01,9.99895e-01,2.94612e-01,9.99997e-01
5.449489501e-01,3.01780e-01,9.99999e-01,9.99999e-01,9.99999e-01,9.99901e-01,3.01810e-01,9.99997e-01
5.476736949e-01,3.09010e-01,9.99999e-01,9.99999e-01,9.99999e-01,9.99913e-01,3.09037e-01,9.99998e-01
5.504120634e-01,3.16269e-01,9.99999e-01,9.99999e-01,9.99999e-01,9.99937e-01,3.16289e-01,9.99999e-01
5.531641237e-01,3.23553e-01,9.99999e-01,9.99999e-01,9.99999e-01,9.99968e-01,3.23563e-01,9.99999e-01
5.559299443e-01,3.30851e-01,9.99999e-01,9.99999e-01,9.99999e-01,9.99984e-01,3.30856e-01,9.99999e-01
5.587095940e-01,3.38160e-01,9.99999e-01,9.99999e-01,9.99999e-01,9.99989e-01,3.38164e-01,9.99999e-01
5.615031420e-01,3.45480e-01,9.99999e-01,9.99999e-01,9.99999e-01,9.99988e-01,3.45484e-01,9.99999e-01
5.643106577e-01,3.52809e-01,9.99999e-01,9.99999e-01,9.99999e-01,9.99987e-01,3.52813e-01,9.99999e-01
5.671322110e-01,3.60095e-01,9.99999e-01,9.99999e-01,9.99999e-01,9.99851e-01,3.60149e-01,9.99998e-01
5.699678720e-01,3.67429e-01,9.99999e-01,9.99999e-01,9.99999e-01,9.99845e-01,3.67487e-01,9.99995e-01
5.728177114e-01,3.74764e-01,9.99999e-01,9.99999e-01,9.99999e-01,9.99837e-01,3.74826e-01,9.99996e-01
5.756818000e-01,3.82105e-01,9.99999e-01,9.99999e-01,9.99999e-01,9.99851e-01,3.82162e-01,9.99997e-01
5.785602090e-01,3.89442e-01,9.99999e-01,9.99999e-01,9.99999e-01,9.99870e-01,3.89493e-01,9.99998e-01
5.814530100e-01,3.96763e-01,9.99999e-01,9.99999e-01,9.99999e-01,9.99869e-01,3.96815e-01,9.99999e-01
5.843602750e-01,4.04063e-01,9.99999e-01,9.99999e-01,9.99999e-01,9.99843e-01,4.04126e-01,9.99998e-01
5.872820764e-01,4.10867e-01,9.99999e-01,9.99999e-01,9.99999e-01,9.98656e-01,4.11424e-01,9.99990e-01
5.902184868e-01,4.18018e-01,9.99999e-01,9.99999e-01,9.99999e-01,9.98383e-01,4.18705e-01,9.99973e-01
5.931695792e-01,4.25469e-01,9.99999e-01,9.99999e-01,9.99999e-01,9.98854e-01,4.25967e-01,9.99974e-01
5.961354271e-01,4.32660e-01,9.99999e-01,9.99999e-01,9.99999e-01,9.98747e-01,4.33209e-01,9.99985e-01
5.991161043e-01,4.40023e-01,9.99999e-01,9.99999e-01,9.99999e-01,9.99087e-01,4.40426e-01,9.99995e-01
6.021116848e-01,4.47386e-01,9.99999e-01,9.99999e-01,9.99999e-01,9.99482e-01,4.47618e-01,9.99999e-01
6.051222432e-01,4.54663e-01,9.99999e-01,9.99999e-01,9.99999e-01,9.99737e-01,4.54782e-01,9.99999e-01
6.081478544e-01,4.61863e-01,9.99999e-01,9.99999e-01,9.99999e-01,9.99886e-01,4.61915e-01,9.99999e-01
6.111885937e-01,4.68994e-01,9.99999e-01,9.99999e-01,9.99999e-01,9.99951e-01,4.69016e-01,9.99999e-01
6.142445367e-01,4.76073e-01,9.99999e-01,9.99999e-01,9.99999e-01,9.99978e-01,4.76083e-01,9.99999e-01
6.173157594e-01,4.83108e-01,9.99999e-01,9.99999e-01,9.99999e-01,9.99987e-01,4.83114e-01,9.99999e-01
6.204023382e-01,4.90101e-01,9.99999e-01,9.99999e-01,9.99999e-01,9.99989e-01,4.90106e-01,9.99999e-01
6.235043498e-01,4.97037e-01,9.99999e-01,9.99999e-01,9.99999e-01,9.99955e-01,4.97059e-01,9.99999e-01
6.266218716e-01,5.03851e-01,9.99999e-01,9.99999e-01,9.99999e-01,9.99766e-01,5.03970e-01,9.99997e-01
6.297549810e-01,5.10792e-01,9.99999e-01,9.99999e-01,9.99999e-01,9.99914e-01,5.10837e-01,9.99996e-01
6.329037559e-01,5.17572e-01,9.99999e-01,9.99999e-01,9.99999e-01,9.99831e-01,5.17660e-01,9.99996e-01
6.360682746e-01,5.24360e-01,9.99999e-01,9.99999e-01,9.99999e-01,9.99855e-01,5.24437e-01,9.99997e-01
6.392486160e-01,5.31066e-01,9.99999e-01,9.99999e-01,9.99999e-01,9.99813e-01,5.31165e-01,9.99998e-01
6.424448591e-01,5.37710e-01,9.99999e-01,9.99999e-01,9.99999e-01,9.99748e-01,5.37845e-01,9.99998e-01
6.456570834e-01,5.43837e-01,9.99999e-01,9.99999e-01,9.99999e-01,9.98835e-01,5.44474e-01,9.99992e-01
6.488853688e-01,5.50576e-01,9.99999e-01,9.99999e-01,9.99999e-01,9.99153e-01,5.51052e-01,9.99981e-01
6.521297956e-01,5.57088e-01,9.99999e-01,9.99999e-01,9.99999e-01,9.99137e-01,5.57577e-01,9.99984e-01
6.553904446e-01,5.63556e-01,9.99999e-01,9.99999e-01,9.99999e-01,9.99138e-01,5.64047e-01,9.99988e-01
6.586673968e-01,5.70042e-01,9.99999e-01,9.99999e-01,9.99999e-01,9.99264e-01,5.70463e-01,9.99995e-01
6.619607338e-01,5.76587e-01,9.99999e-01,9.99999e-01,9.99999e-01,9.99590e-01,5.76823e-01,9.99998e-01
6.652705375e-01,5.82983e-01,9.99999e-01,9.99999e-01,9.99999e-01,9.99753e-01,5.83127e-01,9.99999e-01
6.685968902e-01,5.89311e-01,9.99999e-01,9.99999e-01,9.99999e-01,9.99895e-01,5.89372e-01,9.99999e-01
6.719398746e-01,5.95528e-01,9.99999e-01,9.99999e-01,9.99999e-01,9.99946e-01,5.95559e-01,9.99999e-01
6.752995740e-01,6.01670e-01,9.99999e-01,9.99999e-01,9.99999e-01,9.99971e-01,6.01687e-01,9.99999e-01
6.786760719e-01,6.07730e-01,9.99999e-01,9.99999e-01,9.99999e-01,9.99957e-01,6.07755e-01,9.99999e-01
6.820694522e-01,6.13719e-01,9.99999e-01,9.99999e-01,9.99999e-01,9.99928e-01,6.13763e-01,9.99999e-01
6.854797995e-01,6.19652e-01,9.99999e-01,9.99999e-01,9.99999e-01,9.99907e-01,6.19709e-01,9.99998e-01
6.889071985e-01,6.25453e-01,9.99999e-01,9.99999e-01,9.99999e-01,9.99775e-01,6.25594e-01,9.99997e-01
6.923517345e-01,6.29108e-01,9.99999e-01,9.99999e-01,9.99999e-01,9.96358e-01,6.31417e-01,9.99982e-01
6.958134932e-01,6.35965e-01,9.99999e-01,9.99999e-01,9.99999e-01,9.98134e-01,6.37178e-01,9.99961e-01
6.992925606e-01,6.41698e-01,9.99999e-01,9.99999e-01,9.99999e-01,9.98201e-01,6.42876e-01,9.99964e-01
7.027890234e-01,6.47062e-01,9.99999e-01,9.99999e-01,9.99999e-01,9.97792e-01,6.48511e-01,9.99973e-01
7.063029686e-01,6.52859e-01,9.99999e-01,9.99999e-01,9.99999e-01,9.98143e-01,6.54082e-01,9.99986e-01
7.098344834e-01,6.58410e-01,9.99999e-01,9.99999e-01,9.99999e-01,9.98218e-01,6.59590e-01,9.99991e-01
7.133836558e-01,6.63430e-01,9.99999e-01,9.99999e-01,9.99999e-01,9.97603e-01,6.65034e-01,9.99984e-01
7.169505741e-01,6.57502e-01,9.99999e-01,9.99999e-01,9.99999e-01,9.80859e-01,6.70414e-01,9.99877e-01
7.205353270e-01,6.69324e-01,9.99999e-01,9.99999e-01,9.99999e-01,9.90731e-01,6.75730e-01,9.99785e-01
7.241380036e-01,6.72761e-01,9.99999e-01,9.99999e-01,9.99999e-01,9.88109e-01,6.80982e-01,9.99814e-01
7.277586936e-01,6.78705e-01,9.99999e-01,9.99999e-01,9.99999e-01,9.89271e-01,6.86170e-01,9.99848e-01
7.313974871e-01,6.83409e-01,9.99999e-01,9.99999e-01,9.99999e-01,9.88664e-01,6.91293e-01,9.99928e-01
7.350544745e-01,6.92013e-01,9.99999e-01,9.99999e-01,9.99999e-01,9.93791e-01,6.96353e-01,9.99974e-01
7.387297469e-01,6.98139e-01,9.99999e-01,9.99999e-01,9.99999e-01,9.95434e-01,7.01349e-01,9.99988e-01
7.424233956e-01,7.04703e-01,9.99999e-01,9.99999e-01,9.99999e-01,9.97768e-01,7.06280e-01,9.99997e-01
7.461355126e-01,7.10186e-01,9.99999e-01,9.99999e-01,9.99999e-01,9.98646e-01,7.11148e-01,9.99999e-01
7.498661902e-01,7.15502e-01,9.99999e-01,9.99999e-01,9.99999e-01,9.99370e-01,7.15953e-01,9.99999e-01
7.536155211e-01,7.20471e-01,9.99999e-01,9.99999e-01,9.99999e-01,9.99690e-01,7.20694e-01,9.99999e-01
7.573835987e-01,7.25256e-01,9.99999e-01,9.99999e-01,9.99999e-01,9.99840e-01,7.25371e-01,9.99999e-01
7.611705167e-01,7.29914e-01,9.99999e-01,9.99999e-01,9.99999e-01,9.99900e-01,7.29986e-01,9.99999e-01
7.649763693e-01,7.34493e-01,9.99999e-01,9.99999e-01,9.99999e-01,9.99937e-01,7.34539e-01,9.99999e-01
7.688012511e-01,7.38996e-01,9.99999e-01,9.99999e-01,9.99999e-01,9.99956e-01,7.39028e-01,9.99999e-01
7.726452574e-01,7.43430e-01,9.99999e-01,9.99999e-01,9.99999e-01,9.99963e-01,7.43456e-01,9.99999e-01
7.765084837e-01,7.47784e-01,9.99999e-01,9.99999e-01,9.99999e-01,9.99948e-01,7.47822e-01,9.99999e-01
7.803910261e-01,7.41006e-01,9.99999e-01,9.99999e-01,9.85427e-01,9.99779e-01,7.52127e-01,9.99999e-01
7.842929812e-01,7.11713e-01,9.99999e-01,9.99999e-01,9.41667e-01,9.99231e-01,7.56371e-01,9.99998e-01
7.882144461e-01,7.11597e-01,9.99999e-01,9.99999e-01,9.37088e-01,9.98426e-01,7.60554e-01,9.99988e-01
7.921555184e-01,7.36108e-01,9.99999e-01,9.99999e-01,9.63476e-01,9.99140e-01,7.64677e-01,9.99980e-01
7.961162960e-01,7.48852e-01,9.99999e-01,9.99999e-01,9.75634e-01,9.98467e-01,7.68740e-01,9.99981e-01
8.000968774e-01,7.61116e-01,9.99999e-01,9.99999e-01,9.86706e-01,9.98238e-01,7.72744e-01,9.99980e-01
8.040973618e-01,7.69974e-01,9.99999e-01,9.99999e-01,9.93118e-01,9.98235e-01,7.76689e-01,9.99985e-01
8.081178486e-01,7.74981e-01,9.99999e-01,9.99999e-01,9.96826e-01,9.96004e-01,7.80576e-01,9.99984e-01
8.121584379e-01,7.70608e-01,9.99999e-01,9.99999e-01,9.99026e-01,9.83419e-01,7.84405e-01,9.99944e-01
8.162192301e-01,7.72455e-01,9.99999e-01,9.99999e-01,9.99784e-01,9.80466e-01,7.88176e-01,9.99790e-01
8.203003262e-01,7.83802e-01,9.99999e-01,9.99999e-01,9.99996e-01,9.90029e-01,7.91891e-01,9.99755e-01
8.244018279e-01,7.84507e-01,9.99999e-01,9.99999e-01,9.99999e-01,9.86312e-01,7.95549e-01,9.99805e-01
8.285238370e-01,7.89656e-01,9.99999e-01,9.99999e-01,9.99999e-01,9.88269e-01,7.99151e-01,9.99846e-01
8.326664562e-01,7.93153e-01,9.99999e-01,9.99999e-01,9.99999e-01,9.88170e-01,8.02698e-01,9.99936e-01
8.368297885e-01,7.99380e-01,9.99999e-01,9.99999e-01,9.99999e-01,9.91566e-01,8.06190e-01,9.99985e-01
8.410139374e-01,8.05563e-01,9.99999e-01,9.99999e-01,9.99999e-01,9.94986e-01,8.09628e-01,9.99991e-01
8.452190071e-01,8.11011e-01,9.99999e-01,9.99999e-01,9.99999e-01,9.97542e-01,8.13012e-01,9.99994e-01
8.494451021e-01,8.15174e-01,9.99999e-01,9.99999e-01,9.99999e-01,9.98570e-01,8.16344e-01,9.99995e-01
8.536923276e-01,8.18929e-01,9.99999e-01,9.99999e-01,9.99999e-01,9.99156e-01,8.19622e-01,9.99997e-01
8.579607893e-01,8.22420e-01,9.99999e-01,9.99999e-01,9.99999e-01,9.99479e-01,8.22849e-01,9.99998e-01
8.622505932e-01,8.25751e-01,9.99999e-01,9.99999e-01,9.99999e-01,9.99669e-01,8.26024e-01,9.99999e-01
8.665618462e-01,7.95871e-01,9.99999e-01,9.99999e-01,9.60057e-01,9.99794e-01,8.29148e-01,9.99999e-01
8.708946554e-01,7.11767e-01,9.99999e-01,9.99999e-01,8.55457e-01,9.99764e-01,8.32223e-01,9.99999e-01
8.752491287e-01,7.38025e-01,9.99999e-01,9.99999e-01,8.83874e-01,9.99685e-01,8.35247e-01,9.99999e-01
8.796253743e-01,7.83657e-01,9.99999e-01,9.99999e-01,9.35306e-01,9.99564e-01,8.38222e-01,9.99998e-01
8.840235012e-01,8.12245e-01,9.99999e-01,9.99999e-01,9.66117e-01,9.99502e-01,8.41149e-01,9.99996e-01
8.884436187e-01,8.31173e-01,9.99999e-01,9.99999e-01,9.86585e-01,9.98158e-01,8.44028e-01,9.99990e-01
8.928858368e-01,8.26090e-01,9.99999e-01,9.99999e-01,9.94539e-01,9.80859e-01,8.46860e-01,9.99949e-01
8.973502660e-01,8.19937e-01,9.99999e-01,9.99999e-01,9.98677e-01,9.66546e-01,8.49645e-01,9.99745e-01
9.018370173e-01,8.37330e-01,9.99999e-01,9.99999e-01,9.99854e-01,9.82872e-01,8.52384e-01,9.99600e-01
9.063462024e-01,8.38548e-01,9.99999e-01,9.99999e-01,9.96148e-01,9.84758e-01,8.55077e-01,9.99648e-01
9.108779334e-01,8.30002e-01,9.99999e-01,9.99999e-01,9.91373e-01,9.76411e-01,8.57726e-01,9.99635e-01
9.154323231e-01,8.35450e-01,9.99999e-01,9.99999e-01,9.97985e-01,9.73316e-01,8.60330e-01,9.99698e-01
9.200094847e-01,8.19100e-01,9.99999e-01,9.99999e-01,9.69269e-01,9.79057e-01,8.62890e-01,9.99830e-01
9.246095321e-01,8.01693e-01,9.99999e-01,9.99999e-01,9.58365e-01,9.66484e-01,8.65407e-01,9.99805e-01
9.292325798e-01,6.68098e-01,9.99999e-01,9.99999e-01,9.66763e-01,7.95693e-01,8.67882e-01,9.99062e-01
9.338787427e-01,6.26664e-01,9.99999e-01,9.99999e-01,9.68229e-01,7.45006e-01,8.70314e-01,9.96615e-01
9.385481364e-01,7.55057e-01,9.99999e-01,9.99999e-01,9.76609e-01,8.88693e-01,8.72705e-01,9.96282e-01
9.432408771e-01,7.27039e-01,9.99999e-01,9.99999e-01,9.85669e-01,8.45340e-01,8.75056e-01,9.96791e-01
9.479570815e-01,6.86156e-01,9.99999e-01,9.99999e-01,9.92613e-01,7.89792e-01,8.77366e-01,9.97388e-01
9.526968669e-01,7.36638e-01,9.99999e-01,9.99999e-01,9.96437e-01,8.41646e-01,8.79636e-01,9.98405e-01
9.574603512e-01,7.53522e-01,9.99999e-01,9.99999e-01,9.98476e-01,8.56422e-01,8.81867e-01,9.99189e-01
9.622476530e-01,7.79270e-01,9.99999e-01,9.99999e-01,9.99524e-01,8.82370e-01,8.84059e-01,9.99439e-01
9.670588912e-01,8.24211e-01,9.99999e-01,9.99999e-01,9.99857e-01,9.30521e-01,8.86214e-01,9.99616e-01
9.718941857e-01,8.49197e-01,9.99999e-01,9.99999e-01,9.99989e-01,9.56224e-01,8.88331e-01,9.99717e-01
9.767536566e-01,8.57758e-01,9.99999e-01,9.99999e-01,9.99999e-01,9.63535e-01,8.90411e-01,9.99784e-01
9.816374249e-01,8.68238e-01,9.99999e-01,9.99999e-01,9.99999e-01,9.72936e-01,8.92455e-01,9.99924e-01
9.865456120e-01,8.79267e-01,9.99999e-01,9.99999e-01,9.99999e-01,9.83026e-01,8.94463e-01,9.99983e-01
9.914783401e-01,8.87001e-01,9.99999e-01,9.99999e-01,9.99999e-01,9.89478e-01,8.96436e-01,9.99995e-01
9.964357318e-01,8.93215e-01,9.99999e-01,9.99999e-01,9.99999e-01,9.94259e-01,8.98373e-01,9.99996e-01
1.001417910e+00,8.97175e-01,9.99999e-01,9.99999e-01,9.99999e-01,9.96557e-01,9.00277e-01,9.99995e-01
1.006425000e+00,9.00369e-01,9.99999e-01,9.99999e-01,9.99999e-01,9.98033e-01,9.02147e-01,9.99994e-01
1.011457125e+00,9.02879e-01,9.99999e-01,9.99999e-01,9.99999e-01,9.98781e-01,9.03984e-01,9.99994e-01
1.016514411e+00,9.05035e-01,9.99999e-01,9.99999e-01,9.99999e-01,9.99171e-01,9.05788e-01,9.99995e-01
1.021596983e+00,9.06938e-01,9.99999e-01,9.99999e-01,9.99977e-01,9.99339e-01,9.07560e-01,9.99995e-01
1.026704968e+00,9.07467e-01,9.99999e-01,9.99999e-01,9.98498e-01,9.99484e-01,9.09301e-01,9.99997e-01
1.031838492e+00,8.88260e-01,9.99999e-01,9.99999e-01,9.75384e-01,9.99625e-01,9.11010e-01,9.99998e-01
1.036997685e+00,3.07220e-01,9.99999e-01,9.99999e-01,3.36674e-01,9.99777e-01,9.12689e-01,9.99999e-01
1.042182673e+00,3.80738e-01,9.99999e-01,9.99999e-01,4.16513e-01,9.99733e-01,9.14337e-01,9.99999e-01
1.047393587e+00,3.38993e-01,9.99999e-01,9.99999e-01,3.70216e-01,9.99647e-01,9.15956e-01,9.99999e-01
1.052630555e+00,7.13539e-02,9.99999e-01,9.99999e-01,7.77964e-02,9.99516e-01,9.17546e-01,9.99999e-01
1.057893707e+00,1.26008e-01,9.99999e-01,9.99999e-01,1.37189e-01,9.99191e-01,9.19107e-01,9.99999e-01
1.063183176e+00,2.19165e-01,9.99999e-01,9.99999e-01,2.38324e-01,9.98670e-01,9.20639e-01,9.99998e-01
1.068499092e+00,3.55705e-01,9.99999e-01,9.99999e-01,3.86531e-01,9.97776e-01,9.22144e-01,9.99998e-01
1.073841587e+00,5.06998e-01,9.99999e-01,9.99999e-01,5.50253e-01,9.97393e-01,9.23622e-01,9.99996e-01
