#,Wave/freq,Total,N2,O2,CO2,H2O,Rayleigh,CIA
4.000000000e-01,3.45530e-12,9.99999e-01,9.99999e-01,9.99999e-01,9.99948e-01,3.45548e-12,9.99999e-01
4.020000000e-01,5.82262e-12,9.99999e-01,9.99999e-01,9.99999e-01,9.99968e-01,5.82280e-12,9.99999e-01
4.040100000e-01,9.70605e-12,9.99999e-01,9.99999e-01,9.99999e-01,9.99986e-01,9.70618e-12,9.99999e-01
4.060300500e-01,1.60170e-11,9.99999e-01,9.99999e-01,9.99999e-01,9.99996e-01,1.60170e-11,9.99999e-01
4.080602003e-01,2.61708e-11,9.99999e-01,9.99999e-01,9.99999e-01,9.99998e-01,2.61708e-11,9.99999e-01
4.101005013e-01,4.23489e-11,9.99999e-01,9.99999e-01,9.99999e-01,9.99999e-01,4.23489e-11,9.99999e-01
4.121510038e-01,6.78792e-11,9.99999e-01,9.99999e-01,9.99999e-01,9.99997e-01,6.78793e-11,9.99999e-01
4.142117588e-01,1.07790e-10,9.99999e-01,9.99999e-01,9.99999e-01,9.99985e-01,1.07792e-10,9.99999e-01
4.162828176e-01,1.69605e-10,9.99999e-01,9.99999e-01,9.99999e-01,9.99936e-01,1.69616e-10,9.99999e-01
4.183642317e-01,2.64511e-10,9.99999e-01,9.99999e-01,9.99999e-01,9.99962e-01,2.64520e-10,9.99999e-01
4.204560528e-01,4.08912e-10,9.99999e-01,9.99999e-01,9.99999e-01,9.99976e-01,4.08921e-10,9.99999e-01
4.225583331e-01,6.26728e-10,9.99999e-01,9.99999e-01,9.99999e-01,9.99990e-01,6.26733e-10,9.99999e-01
4.246711247e-01,9.52490e-10,9.99999e-01,9.99999e-01,9.99999e-01,9.99992e-01,9.52496e-10,9.99999e-01
4.267944804e-01,1.43565e-09,9.99999e-01,9.99999e-01,9.99999e-01,9.99989e-01,1.43566e-09,9.99999e-01
4.289284528e-01,2.14645e-09,9.99999e-01,9.99999e-01,9.99999e-01,9.99991e-01,2.14646e-09,9.99999e-01
4.310730950e-01,3.18377e-09,9.99999e-01,9.99999e-01,9.99999e-01,9.99996e-01,3.18378e-09,9.99999e-01
4.332284605e-01,4.68577e-09,9.99999e-01,9.99999e-01,9.99999e-01,9.99998e-01,4.68577e-09,9.99999e-01
4.353946028e-01,6.84390e-09,9.99999e-01,9.99999e-01,9.99999e-01,9.99999e-01,6.84390e-09,9.99999e-01
4.375715758e-01,9.92142e-09,9.99999e-01,9.99999e-01,9.99999e-01,9.99993e-01,9.92149e-09,9.99999e-01
4.397594337e-01,1.42771e-08,9.99999e-01,9.99999e-01,9.99999e-01,9.99944e-01,1.42779e-08,9.99999e-01
4.419582309e-01,2.03942e-08,9.99999e-01,9.99999e-01,9.99999e-01,9.99717e-01,2.03999e-08,9.99999e-01
4.441680220e-01,2.89360e-08,9.99999e-01,9.99999e-01,9.99999e-01,9.99781e-01,2.89423e-08,9.99999e-01
4.463888621e-01,4.07697e-08,9.99999e-01,9.99999e-01,9.99999e-01,9.99771e-01,4.07790e-08,9.99999e-01
4.486208064e-01,5.70607e-08,9.99999e-01,9.99999e-01,9.99999e-01,9.99858e-01,5.70688e-08,9.99999e-01
4.508639105e-01,7.93321e-08,9.99999e-01,9.99999e-01,9.99999e-01,9.99933e-01,7.93373e-08,9.99999e-01
4.531182300e-01,1.09577e-07,9.99999e-01,9.99999e-01,9.99999e-01,9.99973e-01,1.09580e-07,9.99999e-01
4.553838212e-01,1.50385e-07,9.99999e-01,9.99999e-01,9.99999e-01,9.99981e-01,1.50388e-07,9.99999e-01
4.576607403e-01,2.05105e-07,9.99999e-01,9.99999e-01,9.99999e-01,9.99991e-01,2.05107e-07,9.99999e-01
4.599490440e-01,2.78024e-07,9.99999e-01,9.99999e-01,9.99999e-01,9.99993e-01,2.78026e-07,9.99999e-01
4.622487892e-01,3.74611e-07,9.99999e-01,9.99999e-01,9.99999e-01,9.99998e-01,3.74611e-07,9.99999e-01
4.645600332e-01,5.01784e-07,9.99999e-01,9.99999e-01,9.99999e-01,9.99995e-01,5.01786e-07,9.99999e-01
4.668828333e-01,6.68220e-07,9.99999e-01,9.99999e-01,9.99999e-01,9.99932e-01,6.68265e-07,9.99999e-01
4.692172475e-01,8.84828e-07,9.99999e-01,9.99999e-01,9.99999e-01,9.99856e-01,8.84955e-07,9.99999e-01
4.715633337e-01,1.16532e-06,9.99999e-01,9.99999e-01,9.99999e-01,9.99906e-01,1.16543e-06,9.99999e-01
4.739211504e-01,1.52633e-06,9.99999e-01,9.99999e-01,9.99999e-01,9.99910e-01,1.52646e-06,9.99999e-01
4.762907561e-01,1.98862e-06,9.99999e-01,9.99999e-01,9.99999e-01,9.99953e-01,1.98872e-06,9.99999e-01
4.786722099e-01,2.57740e-06,9.99999e-01,9.99999e-01,9.99999e-01,9.99980e-01,2.57745e-06,9.99999e-01
4.810655710e-01,3.32338e-06,9.99999e-01,9.99999e-01,9.99999e-01,9.99993e-01,3.32340e-06,9.99999e-01
4.834708988e-01,4.26355e-06,9.99999e-01,9.99999e-01,9.99999e-01,9.99944e-01,4.26378e-06,9.99999e-01
4.858882533e-01,5.44285e-06,9.99999e-01,9.99999e-01,9.99999e-01,9.99898e-01,5.44340e-06,9.99999e-01
4.883176946e-01,6.91533e-06,9.99999e-01,9.99999e-01,9.99999e-01,9.99914e-01,6.91591e-06,9.99999e-01
4.907592831e-01,8.74464e-06,9.99999e-01,9.99999e-01,9.99999e-01,9.99923e-01,8.74531e-06,9.99999e-01
4.932130795e-01,1.10069e-05,9.99999e-01,9.99999e-01,9.99999e-01,9.99945e-01,1.10075e-05,9.99999e-01
4.956791449e-01,1.37916e-05,9.99999e-01,9.99999e-01,9.99999e-01,9.99970e-01,1.37920e-05,9.99999e-01
4.981575406e-01,1.72016e-05,9.99999e-01,9.99999e-01,9.99999e-01,9.99855e-01,1.72041e-05,9.99999e-01
5.006483283e-01,2.13587e-05,9.99999e-01,9.99999e-01,9.99999e-01,9.99625e-01,2.13668e-05,9.99996e-01
5.031515699e-01,2.63730e-05,9.99999e-01,9.99999e-01,9.99999e-01,9.98111e-01,2.64234e-05,9.99979e-01
5.056673278e-01,3.25067e-05,9.99999e-01,9.99999e-01,9.99999e-01,9.99004e-01,3.25398e-05,9.99976e-01
5.081956644e-01,3.98570e-05,9.99999e-01,9.99999e-01,9.99999e-01,9.98744e-01,3.99077e-05,9.99985e-01
5.107366428e-01,4.87054e-05,9.99999e-01,9.99999e-01,9.99999e-01,9.99151e-01,4.87468e-05,9.99997e-01
5.132903260e-01,5.92802e-05,9.99999e-01,9.99999e-01,9.99999e-01,9.99515e-01,5.93089e-05,9.99999e-01
5.158567776e-01,7.18659e-05,9.99999e-01,9.99999e-01,9.99999e-01,9.99795e-01,7.18806e-05,9.99999e-01
5.184360615e-01,8.67797e-05,9.99999e-01,9.99999e-01,9.99999e-01,9.99917e-01,8.67868e-05,9.99999e-01
5.210282418e-01,1.04392e-04,9.99999e-01,9.99999e-01,9.99999e-01,9.99968e-01,1.04395e-04,9.99999e-01
5.236333830e-01,1.25103e-04,9.99999e-01,9.99999e-01,9.99999e-01,9.99876e-01,1.25118e-04,9.99998e-01
5.262515499e-01,1.49408e-04,9.99999e-01,9.99999e-01,9.99999e-01,9.99922e-01,1.49420e-04,9.99998e-01
5.288828077e-01,1.77804e-04,9.99999e-01,9.99999e-01,9.99999e-01,9.99928e-01,1.77817e-04,9.99998e-01
5.315272217e-01,2.10872e-04,9.99999e-01,9.99999e-01,9.99999e-01,9.99937e-01,2.10885e-04,9.99999e-01
5.341848578e-01,2.49251e-04,9.99999e-01,9.99999e-01,9.99999e-01,9.99958e-01,2.49261e-04,9.99999e-01
5.368557821e-01,2.93607e-04,9.99999e-01,9.99999e-01,9.99999e-01,9.99856e-01,2.93649e-04,9.99999e-01
5.395400610e-01,3.44644e-04,9.99999e-01,9.99999e-01,9.99999e-01,9.99480e-01,3.44825e-04,9.99995e-01
5.422377613e-01,4.03361e-04,9.99999e-01,9.99999e-01,9.99999e-01,9.99332e-01,4.03636e-04,9.99987e-01
5.449489501e-01,4.70710e-04,9.99999e-01,9.99999e-01,9.99999e-01,9.99377e-01,4.71009e-04,9.99986e-01
5.476736949e-01,5.47651e-04,9.99999e-01,9.99999e-01,9.99999e-01,9.99450e-01,5.47956e-04,9.99993e-01
5.504120634e-01,6.35315e-04,9.99999e-01,9.99999e-01,9.99999e-01,9.99600e-01,6.35570e-04,9.99997e-01
5.531641237e-01,7.34889e-04,9.99999e-01,9.99999e-01,9.99999e-01,9.99798e-01,7.35036e-04,9.99999e-01
5.559299443e-01,8.47549e-04,9.99999e-01,9.99999e-01,9.99999e-01,9.99902e-01,8.47631e-04,9.99999e-01
5.587095940e-01,9.74666e-04,9.99999e-01,9.99999e-01,9.99999e-01,9.99938e-01,9.74726e-04,9.99999e-01
5.615031420e-01,1.11771e-03,9.99999e-01,9.99999e-01,9.99999e-01,9.99931e-01,1.11779e-03,9.99999e-01
5.643106577e-01,1.27829e-03,9.99999e-01,9.99999e-01,9.99999e-01,9.99922e-01,1.27838e-03,9.99998e-01
5.671322110e-01,1.45680e-03,9.99999e-01,9.99999e-01,9.99999e-01,9.99059e-01,1.45818e-03,9.99991e-01
5.699678720e-01,1.65727e-03,9.99999e-01,9.99999e-01,9.99999e-01,9.99010e-01,1.65895e-03,9.99974e-01
5.728177114e-01,1.88057e-03,9.99999e-01,9.99999e-01,9.99999e-01,9.98965e-01,1.88256e-03,9.99978e-01
5.756818000e-01,2.12893e-03,9.99999e-01,9.99999e-01,9.99999e-01,9.99051e-01,2.13098e-03,9.99987e-01
5.785602090e-01,2.40429e-03,9.99999e-01,9.99999e-01,9.99999e-01,9.99173e-01,2.40628e-03,9.99995e-01
5.814530100e-01,2.70838e-03,9.99999e-01,9.99999e-01,9.99999e-01,9.99169e-01,2.71064e-03,9.99997e-01
5.843602750e-01,3.04327e-03,9.99999e-01,9.99999e-01,9.99999e-01,9.99007e-01,3.04631e-03,9.99993e-01
5.872820764e-01,3.38636e-03,9.99999e-01,9.99999e-01,9.99999e-01,9.91477e-01,3.41567e-03,9.99939e-01
5.902184868e-01,3.78123e-03,9.99999e-01,9.99999e-01,9.99999e-01,9.89707e-01,3.82117e-03,9.99836e-01
5.931695792e-01,4.23361e-03,9.99999e-01,9.99999e-01,9.99999e-01,9.92715e-01,4.26534e-03,9.99842e-01
5.961354271e-01,4.71248e-03,9.99999e-01,9.99999e-01,9.99999e-01,9.92020e-01,4.75082e-03,9.99909e-01
5.991161043e-01,5.24940e-03,9.99999e-01,9.99999e-01,9.99999e-01,9.94176e-01,5.28029e-03,9.99971e-01
6.021116848e-01,5.83716e-03,9.99999e-01,9.99999e-01,9.99999e-01,9.96693e-01,5.85654e-03,9.99996e-01
6.051222432e-01,6.47155e-03,9.99999e-01,9.99999e-01,9.99999e-01,9.98325e-01,6.48240e-03,9.99999e-01
6.081478544e-01,7.15559e-03,9.99999e-01,9.99999e-01,9.99999e-01,9.99277e-01,7.16076e-03,9.99999e-01
6.111885937e-01,7.89217e-03,9.99999e-01,9.99999e-01,9.99999e-01,9.99694e-01,7.89458e-03,9.99999e-01
6.142445367e-01,8.68566e-03,9.99999e-01,9.99999e-01,9.99999e-01,9.99863e-01,8.68684e-03,9.99999e-01
6.173157594e-01,9.53986e-03,9.99999e-01,9.99999e-01,9.99999e-01,9.99924e-01,9.54058e-03,9.99999e-01
6.204023382e-01,1.04582e-02,9.99999e-01,9.99999e-01,9.99999e-01,9.99935e-01,1.04588e-02,9.99999e-01
6.235043498e-01,1.14414e-02,9.99999e-01,9.99999e-01,9.99999e-01,9.99717e-01,1.14447e-02,9.99998e-01
6.266218716e-01,1.24824e-02,9.99999e-01,9.99999e-01,9.99999e-01,9.98512e-01,1.25012e-02,9.99989e-01
6.297549810e-01,1.36237e-02,9.99999e-01,9.99999e-01,9.99999e-01,9.99454e-01,1.36314e-02,9.99978e-01
6.329037559e-01,1.48222e-02,9.99999e-01,9.99999e-01,9.99999e-01,9.98922e-01,1.48384e-02,9.99982e-01
6.360682746e-01,1.61103e-02,9.99999e-01,9.99999e-01,9.99999e-01,9.99080e-01,1.61253e-02,9.99989e-01
6.392486160e-01,1.74741e-02,9.99999e-01,9.99999e-01,9.99999e-01,9.98810e-01,1.74950e-02,9.99995e-01
6.424448591e-01,1.89201e-02,9.99999e-01,9.99999e-01,9.99999e-01,9.98403e-01,1.89505e-02,9.99992e-01
6.456570834e-01,2.03424e-02,9.99999e-01,9.99999e-01,9.99999e-01,9.92607e-01,2.04947e-02,9.99958e-01
6.488853688e-01,2.20086e-02,9.99999e-01,9.99999e-01,9.99999e-01,9.94604e-01,2.21305e-02,9.99884e-01
6.521297956e-01,2.37272e-02,9.99999e-01,9.99999e-01,9.99999e-01,9.94501e-01,2.38606e-02,9.99904e-01
6.553904446e-01,2.55451e-02,9.99999e-01,9.99999e-01,9.99999e-01,9.94515e-01,2.56878e-02,9.99929e-01
6.586673968e-01,2.74844e-02,9.99999e-01,9.99999e-01,9.99999e-01,9.95308e-01,2.76146e-02,9.99975e-01
6.619607338e-01,2.95658e-02,9.99999e-01,9.99999e-01,9.99999e-01,9.97383e-01,2.96435e-02,9.99994e-01
6.652705375e-01,3.17270e-02,9.99999e-01,9.99999e-01,9.99999e-01,9.98428e-01,3.17770e-02,9.99996e-01
6.685968902e-01,3.39946e-02,9.99999e-01,9.99999e-01,9.99999e-01,9.99331e-01,3.40173e-02,9.99999e-01
6.719398746e-01,3.63543e-02,9.99999e-01,9.99999e-01,9.99999e-01,9.99661e-01,3.63666e-02,9.99999e-01
6.752995740e-01,3.88197e-02,9.99999e-01,9.99999e-01,9.99999e-01,9.99816e-01,3.88268e-02,9.99999e-01
6.786760719e-01,4.13890e-02,9.99999e-01,9.99999e-01,9.99999e-01,9.99734e-01,4.14000e-02,9.99999e-01
6.820694522e-01,4.40676e-02,9.99999e-01,9.99999e-01,9.99999e-01,9.99545e-01,4.40877e-02,9.99997e-01
6.854797995e-01,4.68640e-02,9.99999e-01,9.99999e-01,9.99999e-01,9.99414e-01,4.68917e-02,9.99994e-01
6.889071985e-01,4.97417e-02,9.99999e-01,9.99999e-01,9.99999e-01,9.98575e-01,4.98133e-02,9.99986e-01
6.923517345e-01,5.16357e-02,9.99999e-01,9.99999e-01,9.99999e-01,9.77061e-01,5.28537e-02,9.99888e-01
6.958134932e-01,5.53342e-02,9.99999e-01,9.99999e-01,9.99999e-01,9.88101e-01,5.60142e-02,9.99754e-01
6.992925606e-01,5.86067e-02,9.99999e-01,9.99999e-01,9.99999e-01,9.88600e-01,5.92956e-02,9.99778e-01
7.027890234e-01,6.18092e-02,9.99999e-01,9.99999e-01,9.99999e-01,9.85980e-01,6.26986e-02,9.99830e-01
7.063029686e-01,6.54367e-02,9.99999e-01,9.99999e-01,9.99999e-01,9.88193e-01,6.62240e-02,9.99915e-01
7.098344834e-01,6.90769e-02,9.99999e-01,9.99999e-01,9.99999e-01,9.88668e-01,6.98720e-02,9.99949e-01
7.133836558e-01,7.25219e-02,9.99999e-01,9.99999e-01,9.99999e-01,9.84875e-01,7.36429e-02,9.99900e-01
7.169505741e-01,6.86080e-02,9.99999e-01,9.99999e-01,9.99999e-01,8.85532e-01,7.75368e-02,9.99222e-01
7.205353270e-01,7.67574e-02,9.99999e-01,9.99999e-01,9.99999e-01,9.42481e-01,8.15535e-02,9.98629e-01
7.241380036e-01,7.93477e-02,9.99999e-01,9.99999e-01,9.99999e-01,9.27051e-01,8.56928e-02,9.98816e-01
7.277586936e-01,8.39330e-02,9.99999e-01,9.99999e-01,9.99999e-01,9.33967e-01,8.99542e-02,9.99032e-01
7.313974871e-01,8.76893e-02,9.99999e-01,9.99999e-01,9.99999e-01,9.29953e-01,9.43370e-02,9.99546e-01
7.350544745e-01,9.49762e-02,9.99999e-01,9.99999e-01,9.99999e-01,9.61054e-01,9.88405e-02,9.99842e-01
7.387297469e-01,1.00474e-01,9.99999e-01,9.99999e-01,9.99999e-01,9.71176e-01,1.03464e-01,9.99927e-01
7.424233956e-01,1.06667e-01,9.99999e-01,9.99999e-01,9.99999e-01,9.85800e-01,1.08205e-01,9.99985e-01
7.461355126e-01,1.12088e-01,9.99999e-01,9.99999e-01,9.99999e-01,9.91367e-01,1.13064e-01,9.99997e-01
7.498661902e-01,1.17563e-01,9.99999e-01,9.99999e-01,9.99999e-01,9.95976e-01,1.18038e-01,9.99998e-01
7.536155211e-01,1.22883e-01,9.99999e-01,9.99999e-01,9.99999e-01,9.98022e-01,1.23127e-01,9.99998e-01
7.573835987e-01,1.28197e-01,9.99999e-01,9.99999e-01,9.99999e-01,9.98981e-01,1.28328e-01,9.99999e-01
7.611705167e-01,1.33555e-01,9.99999e-01,9.99999e-01,9.99999e-01,9.99367e-01,1.33639e-01,9.99999e-01
7.649763693e-01,1.39004e-01,9.99999e-01,9.99999e-01,9.99999e-01,9.99602e-01,1.39059e-01,9.99999e-01
7.688012511e-01,1.44545e-01,9.99999e-01,9.99999e-01,9.99999e-01,9.99723e-01,1.44585e-01,9.99999e-01
7.726452574e-01,1.50180e-01,9.99999e-01,9.99999e-01,9.99999e-01,9.99772e-01,1.50215e-01,9.99999e-01
7.765084837e-01,1.55895e-01,9.99999e-01,9.99999e-01,9.99999e-01,9.99675e-01,1.55946e-01,9.99999e-01
7.803910261e-01,1.49595e-01,9.99999e-01,9.99999e-01,9.25910e-01,9.98598e-01,1.61776e-01,9.99998e-01
7.842929812e-01,1.16227e-01,9.99999e-01,9.99999e-01,6.96108e-01,9.95115e-01,1.67703e-01,9.99990e-01
7.882144461e-01,1.17136e-01,9.99999e-01,9.99999e-01,6.80549e-01,9.89989e-01,1.73723e-01,9.99930e-01
7.921555184e-01,1.41635e-01,9.99999e-01,9.99999e-01,7.91793e-01,9.94510e-01,1.79834e-01,9.99879e-01
7.961162960e-01,1.57451e-01,9.99999e-01,9.99999e-01,8.54584e-01,9.90278e-01,1.86033e-01,9.99885e-01
8.000968774e-01,1.74601e-01,9.99999e-01,9.99999e-01,9.18207e-01,9.88795e-01,1.92317e-01,9.99878e-01
8.040973618e-01,1.87956e-01,9.99999e-01,9.99999e-01,9.56773e-01,9.88788e-01,1.98683e-01,9.99907e-01
8.081178486e-01,1.95947e-01,9.99999e-01,9.99999e-01,9.79875e-01,9.74871e-01,2.05127e-01,9.99905e-01
8.121584379e-01,1.89197e-01,9.99999e-01,9.99999e-01,9.93764e-01,8.99718e-01,2.11647e-01,9.99644e-01
8.162192301e-01,1.92111e-01,9.99999e-01,9.99999e-01,9.98619e-01,8.82614e-01,2.18240e-01,9.98666e-01
8.203003262e-01,2.11074e-01,9.99999e-01,9.99999e-01,9.99979e-01,9.40000e-01,2.24901e-01,9.98438e-01
8.244018279e-01,2.12420e-01,9.99999e-01,9.99999e-01,9.99999e-01,9.18215e-01,2.31628e-01,9.98757e-01
8.285238370e-01,2.21003e-01,9.99999e-01,9.99999e-01,9.99999e-01,9.27862e-01,2.38417e-01,9.99023e-01
8.326664562e-01,2.27337e-01,9.99999e-01,9.99999e-01,9.99999e-01,9.27274e-01,2.45266e-01,9.99595e-01
8.368297885e-01,2.38881e-01,9.99999e-01,9.99999e-01,9.99999e-01,9.47389e-01,2.52170e-01,9.99907e-01
8.410139374e-01,2.50922e-01,9.99999e-01,9.99999e-01,9.99999e-01,9.68390e-01,2.59126e-01,9.99945e-01
8.452190071e-01,2.61965e-01,9.99999e-01,9.99999e-01,9.99999e-01,9.84376e-01,2.66131e-01,9.99967e-01
8.494451021e-01,2.70687e-01,9.99999e-01,9.99999e-01,9.99999e-01,9.90894e-01,2.73182e-01,9.99973e-01
8.536923276e-01,2.78760e-01,9.99999e-01,9.99999e-01,9.99999e-01,9.94612e-01,2.80274e-01,9.99983e-01
8.579607893e-01,2.86449e-01,9.99999e-01,9.99999e-01,9.99999e-01,9.96675e-01,2.87405e-01,9.99995e-01
8.622505932e-01,2.93950e-01,9.99999e-01,9.99999e-01,9.99999e-01,9.97888e-01,2.94571e-01,9.99998e-01
8.665618462e-01,2.64982e-01,9.99999e-01,9.99999e-01,8.79174e-01,9.98692e-01,3.01770e-01,9.99999e-01
8.708946554e-01,1.25617e-01,9.99999e-01,9.99999e-01,4.07100e-01,9.98501e-01,3.08996e-01,9.99998e-01
8.752491287e-01,1.50369e-01,9.99999e-01,9.99999e-01,4.76376e-01,9.97996e-01,3.16248e-01,9.99997e-01
8.796253743e-01,2.13030e-01,9.99999e-01,9.99999e-01,6.60186e-01,9.97222e-01,3.23522e-01,9.99993e-01
8.840235012e-01,2.65133e-01,9.99999e-01,9.99999e-01,8.03928e-01,9.96829e-01,3.30814e-01,9.99980e-01
8.884436187e-01,3.06643e-01,9.99999e-01,9.99999e-01,9.17311e-01,9.88434e-01,3.38122e-01,9.99944e-01
8.928858368e-01,2.95529e-01,9.99999e-01,9.99999e-01,9.65561e-01,8.85638e-01,3.45442e-01,9.99682e-01
8.973502660e-01,2.82186e-01,9.99999e-01,9.99999e-01,9.91544e-01,8.07706e-01,3.52772e-01,9.98377e-01
9.018370173e-01,3.21915e-01,9.99999e-01,9.99999e-01,9.99065e-01,8.97002e-01,3.60107e-01,9.97451e-01
9.063462024e-01,3.25618e-01,9.99999e-01,9.99999e-01,9.76279e-01,9.08091e-01,3.67446e-01,9.97760e-01
9.108779334e-01,3.05011e-01,9.99999e-01,9.99999e-01,9.46227e-01,8.60702e-01,3.74785e-01,9.97672e-01
9.154323231e-01,3.17631e-01,9.99999e-01,9.99999e-01,9.87155e-01,8.43116e-01,3.82121e-01,9.98076e-01
9.200094847e-01,2.90851e-01,9.99999e-01,9.99999e-01,8.41608e-01,8.75235e-01,3.89451e-01,9.98922e-01
9.246095321e-01,2.49048e-01,9.99999e-01,9.99999e-01,7.63793e-01,8.14731e-01,3.96774e-01,9.98758e-01
9.292325798e-01,9.16003e-02,9.99999e-01,9.99999e-01,8.11260e-01,2.69676e-01,4.04085e-01,9.95169e-01
9.338787427e-01,6.35933e-02,9.99999e-01,9.99999e-01,8.16068e-01,1.86139e-01,4.11382e-01,9.80181e-01
9.385481364e-01,1.80695e-01,9.99999e-01,9.99999e-01,8.60475e-01,5.04747e-01,4.18664e-01,9.76473e-01
9.432408771e-01,1.52273e-01,9.99999e-01,9.99999e-01,9.11871e-01,3.96188e-01,4.25926e-01,9.79670e-01
9.479570815e-01,1.14478e-01,9.99999e-01,9.99999e-01,9.53703e-01,2.80373e-01,4.33168e-01,9.83422e-01
9.526968669e-01,1.60794e-01,9.99999e-01,9.99999e-01,9.77438e-01,3.75971e-01,4.40385e-01,9.89855e-01
9.574603512e-01,1.74614e-01,9.99999e-01,9.99999e-01,9.90286e-01,3.95446e-01,4.47577e-01,9.94833e-01
9.622476530e-01,2.10504e-01,9.99999e-01,9.99999e-01,9.96961e-01,4.65796e-01,4.54741e-01,9.96424e-01
9.670588912e-01,2.95406e-01,9.99999e-01,9.99999e-01,9.99089e-01,6.41663e-01,4.61875e-01,9.97553e-01
9.718941857e-01,3.52918e-01,9.99999e-01,9.99999e-01,9.99935e-01,7.53926e-01,4.68976e-01,9.98198e-01
9.767536566e-01,3.75913e-01,9.99999e-01,9.99999e-01,9.99999e-01,7.90750e-01,4.76043e-01,9.98622e-01
9.816374249e-01,4.05570e-01,9.99999e-01,9.99999e-01,9.99999e-01,8.39959e-01,4.83074e-01,9.99522e-01
9.865456120e-01,4.39343e-01,9.99999e-01,9.99999e-01,9.99999e-01,8.96585e-01,4.90067e-01,9.99900e-01
9.914783401e-01,4.64527e-01,9.99999e-01,9.99999e-01,9.99999e-01,9.34651e-01,4.97019e-01,9.99971e-01
9.964357318e-01,4.85715e-01,9.99999e-01,9.99999e-01,9.99999e-01,9.63868e-01,5.03931e-01,9.99983e-01
1.001417910e+00,4.99642e-01,9.99999e-01,9.99999e-01,9.99999e-01,9.78182e-01,5.10799e-01,9.99974e-01
1.006425000e+00,5.11131e-01,9.99999e-01,9.99999e-01,9.99999e-01,9.87494e-01,5.17622e-01,9.99964e-01
1.011457125e+00,5.20306e-01,9.99999e-01,9.99999e-01,9.99999e-01,9.92228e-01,5.24398e-01,9.99967e-01
1.016514411e+00,5.28309e-01,9.99999e-01,9.99999e-01,9.99999e-01,9.94715e-01,5.31127e-01,9.99976e-01
1.021596983e+00,5.35457e-01,9.99999e-01,9.99999e-01,9.99865e-01,9.95785e-01,5.37807e-01,9.99976e-01
1.026704968e+00,5.37538e-01,9.99999e-01,9.99999e-01,9.90588e-01,9.96711e-01,5.44437e-01,9.99985e-01
1.031838492e+00,5.03818e-01,9.99999e-01,9.99999e-01,9.16428e-01,9.97610e-01,5.51015e-01,9.99995e-01
1.036997685e+00,3.57111e-02,9.99999e-01,9.99999e-01,6.41204e-02,9.98579e-01,5.57540e-01,9.99998e-01
1.042182673e+00,4.95599e-03,9.99999e-01,9.99999e-01,8.79886e-03,9.98303e-01,5.64011e-01,9.99999e-01
1.047393587e+00,1.08820e-02,9.99999e-01,9.99999e-01,1.91131e-02,9.97752e-01,5.70427e-01,9.99999e-01
1.052630555e+00,5.63218e-06,9.99999e-01,9.99999e-01,9.78424e-06,9.96916e-01,5.76788e-01,9.99998e-01
1.057893707e+00,2.09034e-05,9.99999e-01,9.99999e-01,3.59505e-05,9.94853e-01,5.83091e-01,9.99997e-01
1.063183176e+00,2.89190e-04,9.99999e-01,9.99999e-01,4.93219e-04,9.91548e-01,5.89337e-01,9.99995e-01
1.068499092e+00,2.10290e-03,9.99999e-01,9.99999e-01,3.56681e-03,9.85893e-01,5.95524e-01,9.99989e-01
1.073841587e+00,1.61058e-02,9.99999e-01,9.99999e-01,2.71057e-02,9.83508e-01,6.01653e-01,9.99978e-01
