#,Wave/freq,Total,N2,O2,CO2,H2O,Rayleigh,CIA
4.000000000e-01,4.86020e-19,9.99999e-01,9.99999e-01,9.99999e-01,9.99918e-01,4.86059e-19,9.99999e-01
4.020000000e-01,1.11886e-18,9.99999e-01,9.99999e-01,9.99999e-01,9.99949e-01,1.11892e-18,9.99999e-01
4.040100000e-01,2.53145e-18,9.99999e-01,9.99999e-01,9.99999e-01,9.99978e-01,2.53151e-18,9.99999e-01
4.060300500e-01,5.63577e-18,9.99999e-01,9.99999e-01,9.99999e-01,9.99994e-01,5.63580e-18,9.99999e-01
4.080602003e-01,1.23500e-17,9.99999e-01,9.99999e-01,9.99999e-01,9.99997e-01,1.23500e-17,9.99999e-01
4.101005013e-01,2.66470e-17,9.99999e-01,9.99999e-01,9.99999e-01,9.99999e-01,2.66470e-17,9.99999e-01
4.121510038e-01,5.66281e-17,9.99999e-01,9.99999e-01,9.99999e-01,9.99996e-01,5.66282e-17,9.99999e-01
4.142117588e-01,1.18561e-16,9.99999e-01,9.99999e-01,9.99999e-01,9.99977e-01,1.18563e-16,9.99999e-01
4.162828176e-01,2.44617e-16,9.99999e-01,9.99999e-01,9.99999e-01,9.99899e-01,2.44641e-16,9.99999e-01
4.183642317e-01,4.97587e-16,9.99999e-01,9.99999e-01,9.99999e-01,9.99939e-01,4.97617e-16,9.99999e-01
4.204560528e-01,9.98053e-16,9.99999e-01,9.99999e-01,9.99999e-01,9.99962e-01,9.98089e-16,9.99999e-01
4.225583331e-01,1.97454e-15,9.99999e-01,9.99999e-01,9.99999e-01,9.99985e-01,1.97457e-15,9.99999e-01
4.246711247e-01,3.85407e-15,9.99999e-01,9.99999e-01,9.99999e-01,9.99988e-01,3.85411e-15,9.99999e-01
4.267944804e-01,7.42387e-15,9.99999e-01,9.99999e-01,9.99999e-01,9.99983e-01,7.42399e-15,9.99999e-01
4.289284528e-01,1.41163e-14,9.99999e-01,9.99999e-01,9.99999e-01,9.99987e-01,1.41165e-14,9.99999e-01
4.310730950e-01,2.65034e-14,9.99999e-01,9.99999e-01,9.99999e-01,9.99994e-01,2.65036e-14,9.99999e-01
4.332284605e-01,4.91448e-14,9.99999e-01,9.99999e-01,9.99999e-01,9.99998e-01,4.91448e-14,9.99999e-01
4.353946028e-01,9.00231e-14,9.99999e-01,9.99999e-01,9.99999e-01,9.99998e-01,9.00232e-14,9.99999e-01
4.375715758e-01,1.62942e-13,9.99999e-01,9.99999e-01,9.99999e-01,9.99989e-01,1.62944e-13,9.99999e-01
4.397594337e-01,2.91470e-13,9.99999e-01,9.99999e-01,9.99999e-01,9.99911e-01,2.91496e-13,9.99999e-01
4.419582309e-01,5.15280e-13,9.99999e-01,9.99999e-01,9.99999e-01,9.99554e-01,5.15509e-13,9.99999e-01
4.441680220e-01,9.01152e-13,9.99999e-01,9.99999e-01,9.99999e-01,9.99648e-01,9.01468e-13,9.99999e-01
4.463888621e-01,1.55852e-12,9.99999e-01,9.99999e-01,9.99999e-01,9.99635e-01,1.55909e-12,9.99999e-01
4.486208064e-01,2.66681e-12,9.99999e-01,9.99999e-01,9.99999e-01,9.99772e-01,2.66741e-12,9.99999e-01
4.508639105e-01,4.51500e-12,9.99999e-01,9.99999e-01,9.99999e-01,9.99893e-01,4.51547e-12,9.99999e-01
4.531182300e-01,7.56455e-12,9.99999e-01,9.99999e-01,9.99999e-01,9.99957e-01,7.56486e-12,9.99999e-01
4.553838212e-01,1.25447e-11,9.99999e-01,9.99999e-01,9.99999e-01,9.99971e-01,1.25450e-11,9.99999e-01
4.576607403e-01,2.05968e-11,9.99999e-01,9.99999e-01,9.99999e-01,9.99986e-01,2.05970e-11,9.99999e-01
4.599490440e-01,3.34872e-11,9.99999e-01,9.99999e-01,9.99999e-01,9.99990e-01,3.34875e-11,9.99999e-01
4.622487892e-01,5.39253e-11,9.99999e-01,9.99999e-01,9.99999e-01,9.99997e-01,5.39253e-11,9.99999e-01
4.645600332e-01,8.60226e-11,9.99999e-01,9.99999e-01,9.99999e-01,9.99993e-01,8.60232e-11,9.99999e-01
4.668828333e-01,1.35952e-10,9.99999e-01,9.99999e-01,9.99999e-01,9.99892e-01,1.35966e-10,9.99999e-01
4.692172475e-01,2.12923e-10,9.99999e-01,9.99999e-01,9.99999e-01,9.99771e-01,2.12971e-10,9.99999e-01
4.715633337e-01,3.30595e-10,9.99999e-01,9.99999e-01,9.99999e-01,9.99850e-01,3.30644e-10,9.99999e-01
4.739211504e-01,5.08820e-10,9.99999e-01,9.99999e-01,9.99999e-01,9.99856e-01,5.08893e-10,9.99999e-01
4.762907561e-01,7.76536e-10,9.99999e-01,9.99999e-01,9.99999e-01,9.99925e-01,7.76593e-10,9.99999e-01
4.786722099e-01,1.17523e-09,9.99999e-01,9.99999e-01,9.99999e-01,9.99969e-01,1.17526e-09,9.99999e-01
4.810655710e-01,1.76408e-09,9.99999e-01,9.99999e-01,9.99999e-01,9.99990e-01,1.76409e-09,9.99999e-01
4.834708988e-01,2.62656e-09,9.99999e-01,9.99999e-01,9.99999e-01,9.99912e-01,2.62679e-09,9.99999e-01
4.858882533e-01,3.88009e-09,9.99999e-01,9.99999e-01,9.99999e-01,9.99837e-01,3.88072e-09,9.99999e-01
4.883176946e-01,5.68845e-09,9.99999e-01,9.99999e-01,9.99999e-01,9.99864e-01,5.68921e-09,9.99999e-01
4.907592831e-01,8.27670e-09,9.99999e-01,9.99999e-01,9.99999e-01,9.99877e-01,8.27771e-09,9.99999e-01
4.932130795e-01,1.19540e-08,9.99999e-01,9.99999e-01,9.99999e-01,9.99912e-01,1.19551e-08,9.99999e-01
4.956791449e-01,1.71404e-08,9.99999e-01,9.99999e-01,9.99999e-01,9.99953e-01,1.71411e-08,9.99999e-01
4.981575406e-01,2.43970e-08,9.99999e-01,9.99999e-01,9.99999e-01,9.99770e-01,2.44026e-08,9.99999e-01
5.006483283e-01,3.44782e-08,9.99999e-01,9.99999e-01,9.99999e-01,9.99407e-01,3.44988e-08,9.99995e-01
5.031515699e-01,4.82923e-08,9.99999e-01,9.99999e-01,9.99999e-01,9.96990e-01,4.84396e-08,9.99967e-01
5.056673278e-01,6.74495e-08,9.99999e-01,9.99999e-01,9.99999e-01,9.98408e-01,6.75594e-08,9.99963e-01
5.081956644e-01,9.34188e-08,9.99999e-01,9.99999e-01,9.99999e-01,9.97991e-01,9.36089e-08,9.99976e-01
5.107366428e-01,1.28694e-07,9.99999e-01,9.99999e-01,9.99999e-01,9.98643e-01,1.28870e-07,9.99995e-01
5.132903260e-01,1.76159e-07,9.99999e-01,9.99999e-01,9.99999e-01,9.99223e-01,1.76296e-07,9.99999e-01
5.158567776e-01,2.39609e-07,9.99999e-01,9.99999e-01,9.99999e-01,9.99671e-01,2.39688e-07,9.99999e-01
5.184360615e-01,3.23860e-07,9.99999e-01,9.99999e-01,9.99999e-01,9.99868e-01,3.23903e-07,9.99999e-01
5.210282418e-01,4.35090e-07,9.99999e-01,9.99999e-01,9.99999e-01,9.99950e-01,4.35111e-07,9.99999e-01
5.236333830e-01,5.80989e-07,9.99999e-01,9.99999e-01,9.99999e-01,9.99803e-01,5.81103e-07,9.99998e-01
5.262515499e-01,7.71562e-07,9.99999e-01,9.99999e-01,9.99999e-01,9.99876e-01,7.71658e-07,9.99997e-01
5.288828077e-01,1.01886e-06,9.99999e-01,9.99999e-01,9.99999e-01,9.99887e-01,1.01897e-06,9.99998e-01
5.315272217e-01,1.33805e-06,9.99999e-01,9.99999e-01,9.99999e-01,9.99900e-01,1.33819e-06,9.99999e-01
5.341848578e-01,1.74785e-06,9.99999e-01,9.99999e-01,9.99999e-01,9.99934e-01,1.74797e-06,9.99999e-01
5.368557821e-01,2.27069e-06,9.99999e-01,9.99999e-01,9.99999e-01,9.99771e-01,2.27121e-06,9.99998e-01
5.395400610e-01,2.93343e-06,9.99999e-01,9.99999e-01,9.99999e-01,9.99177e-01,2.93586e-06,9.99992e-01
5.422377613e-01,3.77171e-06,9.99999e-01,9.99999e-01,9.99999e-01,9.98931e-01,3.77582e-06,9.99980e-01
5.449489501e-01,4.82713e-06,9.99999e-01,9.99999e-01,9.99999e-01,9.99009e-01,4.83202e-06,9.99979e-01
5.476736949e-01,6.14813e-06,9.99999e-01,9.99999e-01,9.99999e-01,9.99119e-01,6.15361e-06,9.99989e-01
5.504120634e-01,7.79433e-06,9.99999e-01,9.99999e-01,9.99999e-01,9.99360e-01,7.79934e-06,9.99996e-01
5.531641237e-01,9.83586e-06,9.99999e-01,9.99999e-01,9.99999e-01,9.99678e-01,9.83903e-06,9.99999e-01
5.559299443e-01,1.23534e-05,9.99999e-01,9.99999e-01,9.99999e-01,9.99844e-01,1.23553e-05,9.99999e-01
5.587095940e-01,1.54440e-05,9.99999e-01,9.99999e-01,9.99999e-01,9.99902e-01,1.54455e-05,9.99999e-01
5.615031420e-01,1.92215e-05,9.99999e-01,9.99999e-01,9.99999e-01,9.99891e-01,1.92236e-05,9.99999e-01
5.643106577e-01,2.38198e-05,9.99999e-01,9.99999e-01,9.99999e-01,9.99877e-01,2.38227e-05,9.99998e-01
5.671322110e-01,2.93534e-05,9.99999e-01,9.99999e-01,9.99999e-01,9.98521e-01,2.93972e-05,9.99986e-01
5.699678720e-01,3.60670e-05,9.99999e-01,9.99999e-01,9.99999e-01,9.98408e-01,3.61259e-05,9.99958e-01
5.728177114e-01,4.41399e-05,9.99999e-01,9.99999e-01,9.99999e-01,9.98350e-01,4.42143e-05,9.99965e-01
5.756818000e-01,5.38154e-05,9.99999e-01,9.99999e-01,9.99999e-01,9.98484e-01,5.38981e-05,9.99978e-01
5.785602090e-01,6.53595e-05,9.99999e-01,9.99999e-01,9.99999e-01,9.98677e-01,6.54464e-05,9.99993e-01
5.814530100e-01,7.90597e-05,9.99999e-01,9.99999e-01,9.99999e-01,9.98673e-01,7.91649e-05,9.99996e-01
5.843602750e-01,9.52485e-05,9.99999e-01,9.99999e-01,9.99999e-01,9.98424e-01,9.53996e-05,9.99990e-01
5.872820764e-01,1.12985e-04,9.99999e-01,9.99999e-01,9.99999e-01,9.86509e-01,1.14541e-04,9.99903e-01
5.902184868e-01,1.34743e-04,9.99999e-01,9.99999e-01,9.99999e-01,9.83586e-01,1.37027e-04,9.99738e-01
5.931695792e-01,1.61414e-04,9.99999e-01,9.99999e-01,9.99999e-01,9.88406e-01,1.63348e-04,9.99748e-01
5.961354271e-01,1.91553e-04,9.99999e-01,9.99999e-01,9.99999e-01,9.87275e-01,1.94050e-04,9.99855e-01
5.991161043e-01,2.27593e-04,9.99999e-01,9.99999e-01,9.99999e-01,9.90697e-01,2.29740e-04,9.99954e-01
6.021116848e-01,2.69653e-04,9.99999e-01,9.99999e-01,9.99999e-01,9.94708e-01,2.71089e-04,9.99994e-01
6.051222432e-01,3.17980e-04,9.99999e-01,9.99999e-01,9.99999e-01,9.97318e-01,3.18835e-04,9.99999e-01
6.081478544e-01,3.73359e-04,9.99999e-01,9.99999e-01,9.99999e-01,9.98843e-01,3.73791e-04,9.99999e-01
6.111885937e-01,4.36632e-04,9.99999e-01,9.99999e-01,9.99999e-01,9.99509e-01,4.36846e-04,9.99999e-01
6.142445367e-01,5.08857e-04,9.99999e-01,9.99999e-01,9.99999e-01,9.99780e-01,5.08968e-04,9.99999e-01
6.173157594e-01,5.91138e-04,9.99999e-01,9.99999e-01,9.99999e-01,9.99879e-01,5.91209e-04,9.99999e-01
6.204023382e-01,6.84641e-04,9.99999e-01,9.99999e-01,9.99999e-01,9.99897e-01,6.84711e-04,9.99999e-01
6.235043498e-01,7.90351e-04,9.99999e-01,9.99999e-01,9.99999e-01,9.99554e-01,7.90704e-04,9.99998e-01
6.266218716e-01,9.08336e-04,9.99999e-01,9.99999e-01,9.99999e-01,9.97626e-01,9.10512e-04,9.99982e-01
6.297549810e-01,1.04461e-03,9.99999e-01,9.99999e-01,9.99999e-01,9.99128e-01,1.04556e-03,9.99966e-01
6.329037559e-01,1.19526e-03,9.99999e-01,9.99999e-01,9.99999e-01,9.98276e-01,1.19735e-03,9.99972e-01
6.360682746e-01,1.36550e-03,9.99999e-01,9.99999e-01,9.99999e-01,9.98535e-01,1.36752e-03,9.99983e-01
6.392486160e-01,1.55482e-03,9.99999e-01,9.99999e-01,9.99999e-01,9.98100e-01,1.55778e-03,9.99992e-01
6.424448591e-01,1.76546e-03,9.99999e-01,9.99999e-01,9.99999e-01,9.97467e-01,1.76996e-03,9.99988e-01
6.456570834e-01,1.98235e-03,9.99999e-01,9.99999e-01,9.99999e-01,9.88293e-01,2.00596e-03,9.99934e-01
6.488853688e-01,2.24786e-03,9.99999e-01,9.99999e-01,9.99999e-01,9.91380e-01,2.26782e-03,9.99816e-01
6.521297956e-01,2.53480e-03,9.99999e-01,9.99999e-01,9.99999e-01,9.91217e-01,2.55765e-03,9.99845e-01
6.553904446e-01,2.85233e-03,9.99999e-01,9.99999e-01,9.99999e-01,9.91303e-01,2.87768e-03,9.99884e-01
6.586673968e-01,3.20589e-03,9.99999e-01,9.99999e-01,9.99999e-01,9.92503e-01,3.23023e-03,9.99961e-01
6.619607338e-01,3.60196e-03,9.99999e-01,9.99999e-01,9.99999e-01,9.95658e-01,3.61769e-03,9.99991e-01
6.652705375e-01,4.03239e-03,9.99999e-01,9.99999e-01,9.99999e-01,9.97482e-01,4.04258e-03,9.99995e-01
6.685968902e-01,4.50220e-03,9.99999e-01,9.99999e-01,9.99999e-01,9.98829e-01,4.50747e-03,9.99998e-01
6.719398746e-01,5.01231e-03,9.99999e-01,9.99999e-01,9.99999e-01,9.99457e-01,5.01503e-03,9.99999e-01
6.752995740e-01,5.56636e-03,9.99999e-01,9.99999e-01,9.99999e-01,9.99706e-01,5.56800e-03,9.99999e-01
6.786760719e-01,6.16657e-03,9.99999e-01,9.99999e-01,9.99999e-01,9.99577e-01,6.16917e-03,9.99998e-01
6.820694522e-01,6.81647e-03,9.99999e-01,9.99999e-01,9.99999e-01,9.99275e-01,6.82143e-03,9.99995e-01
6.854797995e-01,7.52061e-03,9.99999e-01,9.99999e-01,9.99999e-01,9.99066e-01,7.52769e-03,9.99991e-01
6.889071985e-01,8.27216e-03,9.99999e-01,9.99999e-01,9.99999e-01,9.97756e-01,8.29092e-03,9.99979e-01
6.923517345e-01,8.78312e-03,9.99999e-01,9.99999e-01,9.99999e-01,9.63850e-01,9.11414e-03,9.99822e-01
6.958134932e-01,9.80541e-03,9.99999e-01,9.99999e-01,9.99999e-01,9.80894e-01,1.00004e-02,9.99600e-01
6.992925606e-01,1.07513e-02,9.99999e-01,9.99999e-01,9.99999e-01,9.81952e-01,1.09527e-02,9.99648e-01
7.027890234e-01,1.17038e-02,9.99999e-01,9.99999e-01,9.99999e-01,9.77685e-01,1.19742e-02,9.99729e-01
7.063029686e-01,1.28205e-02,9.99999e-01,9.99999e-01,9.99999e-01,9.81201e-01,1.30679e-02,9.99865e-01
7.098344834e-01,1.39788e-02,9.99999e-01,9.99999e-01,9.99999e-01,9.81951e-01,1.42369e-02,9.99920e-01
7.133836558e-01,1.51132e-02,9.99999e-01,9.99999e-01,9.99999e-01,9.76192e-01,1.54842e-02,9.99841e-01
7.169505741e-01,1.38668e-02,9.99999e-01,9.99999e-01,9.99999e-01,8.25796e-01,1.68129e-02,9.98758e-01
7.205353270e-01,1.65402e-02,9.99999e-01,9.99999e-01,9.99999e-01,9.09495e-01,1.82260e-02,9.97811e-01
7.241380036e-01,1.74620e-02,9.99999e-01,9.99999e-01,9.99999e-01,8.86889e-01,1.97263e-02,9.98109e-01
7.277586936e-01,1.90990e-02,9.99999e-01,9.99999e-01,9.99999e-01,8.97340e-01,2.13169e-02,9.98454e-01
7.313974871e-01,2.04669e-02,9.99999e-01,9.99999e-01,9.99999e-01,8.90492e-01,2.30004e-02,9.99275e-01
7.350544745e-01,2.32505e-02,9.99999e-01,9.99999e-01,9.99999e-01,9.38526e-01,2.47797e-02,9.99747e-01
7.387297469e-01,2.54357e-02,9.99999e-01,9.99999e-01,9.99999e-01,9.54282e-01,2.66573e-02,9.99884e-01
7.424233956e-01,2.79859e-02,9.99999e-01,9.99999e-01,9.99999e-01,9.77325e-01,2.86358e-02,9.99977e-01
7.461355126e-01,3.02939e-02,9.99999e-01,9.99999e-01,9.99999e-01,9.86203e-01,3.07178e-02,9.99995e-01
7.498661902e-01,3.26930e-02,9.99999e-01,9.99999e-01,9.99999e-01,9.93546e-01,3.29054e-02,9.99998e-01
7.536155211e-01,3.50895e-02,9.99999e-01,9.99999e-01,9.99999e-01,9.96833e-01,3.52010e-02,9.99998e-01
7.573835987e-01,3.75453e-02,9.99999e-01,9.99999e-01,9.99999e-01,9.98368e-01,3.76066e-02,9.99999e-01
7.611705167e-01,4.00835e-02,9.99999e-01,9.99999e-01,9.99999e-01,9.98986e-01,4.01242e-02,9.99999e-01
7.649763693e-01,4.27284e-02,9.99999e-01,9.99999e-01,9.99999e-01,9.99364e-01,4.27556e-02,9.99999e-01
7.688012511e-01,4.54822e-02,9.99999e-01,9.99999e-01,9.99999e-01,9.99557e-01,4.55024e-02,9.99999e-01
7.726452574e-01,4.83485e-02,9.99999e-01,9.99999e-01,9.99999e-01,9.99636e-01,4.83661e-02,9.99999e-01
7.765084837e-01,5.13217e-02,9.99999e-01,9.99999e-01,9.99999e-01,9.99484e-01,5.13481e-02,9.99998e-01
7.803910261e-01,4.87821e-02,9.99999e-01,9.99999e-01,8.97722e-01,9.97777e-01,5.44496e-02,9.99997e-01
7.842929812e-01,3.26712e-02,9.99999e-01,9.99999e-01,5.70288e-01,9.92262e-01,5.76716e-02,9.99985e-01
7.882144461e-01,3.34026e-02,9.99999e-01,9.99999e-01,5.55300e-01,9.84060e-01,6.10149e-02,9.99901e-01
7.921555184e-01,4.42506e-02,9.99999e-01,9.99999e-01,6.91989e-01,9.91213e-01,6.44803e-02,9.99809e-01
7.961162960e-01,5.21562e-02,9.99999e-01,9.99999e-01,7.77942e-01,9.84596e-01,6.80681e-02,9.99817e-01
8.000968774e-01,6.15136e-02,9.99999e-01,9.99999e-01,8.72546e-01,9.82166e-01,7.17787e-02,9.99805e-01
8.040973618e-01,6.91780e-02,9.99999e-01,9.99999e-01,9.31519e-01,9.82177e-01,7.56124e-02,9.99845e-01
8.081178486e-01,7.39822e-02,9.99999e-01,9.99999e-01,9.67970e-01,9.60478e-01,7.95689e-02,9.99855e-01
8.121584379e-01,7.00638e-02,9.99999e-01,9.99999e-01,9.89962e-01,8.46246e-01,8.36482e-02,9.99433e-01
8.162192301e-01,7.17304e-02,9.99999e-01,9.99999e-01,9.97774e-01,8.19951e-01,8.78497e-02,9.97870e-01
8.203003262e-01,8.35121e-02,9.99999e-01,9.99999e-01,9.99964e-01,9.08319e-01,9.21731e-02,9.97507e-01
8.244018279e-01,8.43119e-02,9.99999e-01,9.99999e-01,9.99999e-01,8.74370e-01,9.66175e-02,9.98015e-01
8.285238370e-01,8.97048e-02,9.99999e-01,9.99999e-01,9.99999e-01,8.87951e-01,1.01182e-01,9.98441e-01
8.326664562e-01,9.38244e-02,9.99999e-01,9.99999e-01,9.99999e-01,8.86830e-01,1.05866e-01,9.99354e-01
8.368297885e-01,1.01495e-01,9.99999e-01,9.99999e-01,9.99999e-01,9.17254e-01,1.10667e-01,9.99852e-01
8.410139374e-01,1.09785e-01,9.99999e-01,9.99999e-01,9.99999e-01,9.49897e-01,1.15585e-01,9.99913e-01
8.452190071e-01,1.17605e-01,9.99999e-01,9.99999e-01,9.99999e-01,9.75074e-01,1.20618e-01,9.99948e-01
8.494451021e-01,1.23933e-01,9.99999e-01,9.99999e-01,9.99999e-01,9.85478e-01,1.25764e-01,9.99958e-01
8.536923276e-01,1.29888e-01,9.99999e-01,9.99999e-01,9.99999e-01,9.91376e-01,1.31021e-01,9.99974e-01
8.579607893e-01,1.35663e-01,9.99999e-01,9.99999e-01,9.99999e-01,9.94688e-01,1.36388e-01,9.99993e-01
8.622505932e-01,1.41383e-01,9.99999e-01,9.99999e-01,9.99999e-01,9.96619e-01,1.41862e-01,9.99998e-01
8.665618462e-01,1.26100e-01,9.99999e-01,9.99999e-01,8.56921e-01,9.97910e-01,1.47442e-01,9.99998e-01
8.708946554e-01,3.90715e-02,9.99999e-01,9.99999e-01,2.55713e-01,9.97610e-01,1.53123e-01,9.99998e-01
8.752491287e-01,5.00068e-02,9.99999e-01,9.99999e-01,3.15622e-01,9.96803e-01,1.58906e-01,9.99996e-01
8.796253743e-01,8.54199e-02,9.99999e-01,9.99999e-01,5.20452e-01,9.95581e-01,1.64785e-01,9.99989e-01
8.840235012e-01,1.20096e-01,9.99999e-01,9.99999e-01,7.06692e-01,9.94952e-01,1.70760e-01,9.99968e-01
8.884436187e-01,1.51281e-01,9.99999e-01,9.99999e-01,8.70776e-01,9.81917e-01,1.76827e-01,9.99911e-01
8.928858368e-01,1.43121e-01,9.99999e-01,9.99999e-01,9.45343e-01,8.26227e-01,1.82983e-01,9.99493e-01
8.973502660e-01,1.33030e-01,9.99999e-01,9.99999e-01,9.86399e-01,7.13825e-01,1.89226e-01,9.97410e-01
9.018370173e-01,1.63672e-01,9.99999e-01,9.99999e-01,9.98490e-01,8.41519e-01,1.95552e-01,9.95931e-01
9.063462024e-01,1.67337e-01,9.99999e-01,9.99999e-01,9.63420e-01,8.59354e-01,2.01958e-01,9.96425e-01
9.108779334e-01,1.50634e-01,9.99999e-01,9.99999e-01,9.15418e-01,7.89299e-01,2.08441e-01,9.96285e-01
9.154323231e-01,1.60476e-01,9.99999e-01,9.99999e-01,9.79372e-01,7.63224e-01,2.14999e-01,9.96928e-01
9.200094847e-01,1.44261e-01,9.99999e-01,9.99999e-01,7.79667e-01,8.09800e-01,2.21627e-01,9.98279e-01
9.246095321e-01,1.10645e-01,9.99999e-01,9.99999e-01,6.51401e-01,7.30087e-01,2.28322e-01,9.98018e-01
9.292325798e-01,2.62135e-02,9.99999e-01,9.99999e-01,7.21337e-01,1.44120e-01,2.35081e-01,9.92294e-01
9.338787427e-01,1.44209e-02,9.99999e-01,9.99999e-01,7.24731e-01,7.89740e-02,2.41901e-01,9.68529e-01
9.385481364e-01,6.94740e-02,9.99999e-01,9.99999e-01,7.87233e-01,3.54969e-01,2.48778e-01,9.62683e-01
9.432408771e-01,5.53769e-02,9.99999e-01,9.99999e-01,8.62607e-01,2.53928e-01,2.55709e-01,9.67722e-01
9.479570815e-01,3.53051e-02,9.99999e-01,9.99999e-01,9.26949e-01,1.47318e-01,2.62691e-01,9.73650e-01
9.526968669e-01,5.80155e-02,9.99999e-01,9.99999e-01,9.64104e-01,2.25013e-01,2.69720e-01,9.83844e-01
9.574603512e-01,6.50758e-02,9.99999e-01,9.99999e-01,9.84465e-01,2.40036e-01,2.76792e-01,9.91760e-01
9.622476530e-01,8.57748e-02,9.99999e-01,9.99999e-01,9.95124e-01,3.05055e-01,2.83904e-01,9.94295e-01
9.670588912e-01,1.44880e-01,9.99999e-01,9.99999e-01,9.98535e-01,5.00332e-01,2.91054e-01,9.96095e-01
9.718941857e-01,1.90094e-01,9.99999e-01,9.99999e-01,9.99895e-01,6.39280e-01,2.98237e-01,9.97123e-01
9.767536566e-01,2.10071e-01,9.99999e-01,9.99999e-01,9.99999e-01,6.89257e-01,3.05450e-01,9.97801e-01
9.816374249e-01,2.36645e-01,9.99999e-01,9.99999e-01,9.99999e-01,7.57382e-01,3.12690e-01,9.99238e-01
9.865456120e-01,2.68719e-01,9.99999e-01,9.99999e-01,9.99999e-01,8.40004e-01,3.19953e-01,9.99840e-01
9.914783401e-01,2.93707e-01,9.99999e-01,9.99999e-01,9.99999e-01,8.97576e-01,3.27237e-01,9.99955e-01
9.964357318e-01,3.15404e-01,9.99999e-01,9.99999e-01,9.99999e-01,9.42829e-01,3.34537e-01,9.99973e-01
1.001417910e+00,3.29979e-01,9.99999e-01,9.99999e-01,9.99999e-01,9.65304e-01,3.41852e-01,9.99960e-01
1.006425000e+00,3.42204e-01,9.99999e-01,9.99999e-01,9.99999e-01,9.80082e-01,3.49177e-01,9.99943e-01
1.011457125e+00,3.52064e-01,9.99999e-01,9.99999e-01,9.99999e-01,9.87580e-01,3.56510e-01,9.99947e-01
1.016514411e+00,3.60762e-01,9.99999e-01,9.99999e-01,9.99999e-01,9.91556e-01,3.63848e-01,9.99962e-01
1.021596983e+00,3.68604e-01,9.99999e-01,9.99999e-01,9.99805e-01,9.93268e-01,3.71187e-01,9.99962e-01
1.026704968e+00,3.71014e-01,9.99999e-01,9.99999e-01,9.85332e-01,9.94747e-01,3.78525e-01,9.99974e-01
1.031838492e+00,3.42611e-01,9.99999e-01,9.99999e-01,8.91128e-01,9.96177e-01,3.85858e-01,9.99992e-01
1.036997685e+00,1.51080e-02,9.99999e-01,9.99999e-01,3.84903e-02,9.97729e-01,3.93185e-01,9.99998e-01
1.042182673e+00,4.46054e-04,9.99999e-01,9.99999e-01,1.11596e-03,9.97297e-01,4.00502e-01,9.99999e-01
1.047393587e+00,1.30828e-03,9.99999e-01,9.99999e-01,3.21753e-03,9.96414e-01,4.07807e-01,9.99998e-01
1.052630555e+00,2.14557e-08,9.99999e-01,9.99999e-01,5.18466e-08,9.95086e-01,4.15096e-01,9.99998e-01
1.057893707e+00,7.99015e-08,9.99999e-01,9.99999e-01,1.89936e-07,9.91815e-01,4.22368e-01,9.99996e-01
1.063183176e+00,5.13093e-06,9.99999e-01,9.99999e-01,1.20320e-05,9.86562e-01,4.29620e-01,9.99992e-01
1.068499092e+00,7.46356e-05,9.99999e-01,9.99999e-01,1.73215e-04,9.77592e-01,4.36850e-01,9.99984e-01
1.073841587e+00,1.55792e-03,9.99999e-01,9.99999e-01,3.57236e-03,9.73880e-01,4.44055e-01,9.99966e-01
