#,Wave/freq,Total,N2,O2,CO2,H2O,Rayleigh,CIA
4.000000000e-01,3.89931e-02,9.99999e-01,9.99999e-01,9.99999e-01,9.99993e-01,3.89933e-02,9.99999e-01
4.020000000e-01,4.15766e-02,9.99999e-01,9.99999e-01,9.99999e-01,9.99995e-01,4.15767e-02,9.99999e-01
4.040100000e-01,4.42722e-02,9.99999e-01,9.99999e-01,9.99999e-01,9.99997e-01,4.42722e-02,9.99999e-01
4.060300500e-01,4.70840e-02,9.99999e-01,9.99999e-01,9.99999e-01,9.99999e-01,4.70840e-02,9.99999e-01
4.080602003e-01,5.00136e-02,9.99999e-01,9.99999e-01,9.99999e-01,9.99999e-01,5.00136e-02,9.99999e-01
4.101005013e-01,5.30620e-02,9.99999e-01,9.99999e-01,9.99999e-01,9.99999e-01,5.30620e-02,9.99999e-01
4.121510038e-01,5.62306e-02,9.99999e-01,9.99999e-01,9.99999e-01,9.99999e-01,5.62306e-02,9.99999e-01
4.142117588e-01,5.95200e-02,9.99999e-01,9.99999e-01,9.99999e-01,9.99997e-01,5.95201e-02,9.99999e-01
4.162828176e-01,6.29309e-02,9.99999e-01,9.99999e-01,9.99999e-01,9.99991e-01,6.29314e-02,9.99999e-01
4.183642317e-01,6.64646e-02,9.99999e-01,9.99999e-01,9.99999e-01,9.99994e-01,6.64649e-02,9.99999e-01
4.204560528e-01,7.01210e-02,9.99999e-01,9.99999e-01,9.99999e-01,9.99996e-01,7.01212e-02,9.99999e-01
4.225583331e-01,7.39003e-02,9.99999e-01,9.99999e-01,9.99999e-01,9.99998e-01,7.39004e-02,9.99999e-01
4.246711247e-01,7.78024e-02,9.99999e-01,9.99999e-01,9.99999e-01,9.99998e-01,7.78025e-02,9.99999e-01
4.267944804e-01,8.18274e-02,9.99999e-01,9.99999e-01,9.99999e-01,9.99998e-01,8.18275e-02,9.99999e-01
4.289284528e-01,8.59749e-02,9.99999e-01,9.99999e-01,9.99999e-01,9.99998e-01,8.59750e-02,9.99999e-01
4.310730950e-01,9.02445e-02,9.99999e-01,9.99999e-01,9.99999e-01,9.99999e-01,9.02445e-02,9.99999e-01
4.332284605e-01,9.46355e-02,9.99999e-01,9.99999e-01,9.99999e-01,9.99999e-01,9.46355e-02,9.99999e-01
4.353946028e-01,9.91470e-02,9.99999e-01,9.99999e-01,9.99999e-01,9.99999e-01,9.91470e-02,9.99999e-01
4.375715758e-01,1.03778e-01,9.99999e-01,9.99999e-01,9.99999e-01,9.99998e-01,1.03778e-01,9.99999e-01
4.397594337e-01,1.08527e-01,9.99999e-01,9.99999e-01,9.99999e-01,9.99992e-01,1.08527e-01,9.99999e-01
4.419582309e-01,1.13390e-01,9.99999e-01,9.99999e-01,9.99999e-01,9.99965e-01,1.13394e-01,9.99999e-01
4.441680220e-01,1.18373e-01,9.99999e-01,9.99999e-01,9.99999e-01,9.99972e-01,1.18376e-01,9.99999e-01
4.463888621e-01,1.23469e-01,9.99999e-01,9.99999e-01,9.99999e-01,9.99971e-01,1.23472e-01,9.99999e-01
4.486208064e-01,1.28678e-01,9.99999e-01,9.99999e-01,9.99999e-01,9.99982e-01,1.28681e-01,9.99999e-01
4.508639105e-01,1.33998e-01,9.99999e-01,9.99999e-01,9.99999e-01,9.99991e-01,1.33999e-01,9.99999e-01
4.531182300e-01,1.39426e-01,9.99999e-01,9.99999e-01,9.99999e-01,9.99996e-01,1.39426e-01,9.99999e-01
4.553838212e-01,1.44959e-01,9.99999e-01,9.99999e-01,9.99999e-01,9.99997e-01,1.44959e-01,9.99999e-01
4.576607403e-01,1.50596e-01,9.99999e-01,9.99999e-01,9.99999e-01,9.99998e-01,1.50596e-01,9.99999e-01
4.599490440e-01,1.56334e-01,9.99999e-01,9.99999e-01,9.99999e-01,9.99998e-01,1.56334e-01,9.99999e-01
4.622487892e-01,1.62171e-01,9.99999e-01,9.99999e-01,9.99999e-01,9.99999e-01,1.62171e-01,9.99999e-01
4.645600332e-01,1.68104e-01,9.99999e-01,9.99999e-01,9.99999e-01,9.99999e-01,1.68104e-01,9.99999e-01
4.668828333e-01,1.74129e-01,9.99999e-01,9.99999e-01,9.99999e-01,9.99991e-01,1.74130e-01,9.99999e-01
4.692172475e-01,1.80244e-01,9.99999e-01,9.99999e-01,9.99999e-01,9.99981e-01,1.80248e-01,9.99999e-01
4.715633337e-01,1.86450e-01,9.99999e-01,9.99999e-01,9.99999e-01,9.99988e-01,1.86452e-01,9.99999e-01
4.739211504e-01,1.92740e-01,9.99999e-01,9.99999e-01,9.99999e-01,9.99988e-01,1.92742e-01,9.99999e-01
4.762907561e-01,1.99112e-01,9.99999e-01,9.99999e-01,9.99999e-01,9.99993e-01,1.99113e-01,9.99999e-01
4.786722099e-01,2.05562e-01,9.99999e-01,9.99999e-01,9.99999e-01,9.99997e-01,2.05562e-01,9.99999e-01
4.810655710e-01,2.12087e-01,9.99999e-01,9.99999e-01,9.99999e-01,9.99998e-01,2.12087e-01,9.99999e-01
4.834708988e-01,2.18683e-01,9.99999e-01,9.99999e-01,9.99999e-01,9.99992e-01,2.18684e-01,9.99999e-01
4.858882533e-01,2.25347e-01,9.99999e-01,9.99999e-01,9.99999e-01,9.99987e-01,2.25350e-01,9.99999e-01
4.883176946e-01,2.32079e-01,9.99999e-01,9.99999e-01,9.99999e-01,9.99989e-01,2.32082e-01,9.99999e-01
4.907592831e-01,2.38873e-01,9.99999e-01,9.99999e-01,9.99999e-01,9.99990e-01,2.38875e-01,9.99999e-01
4.932130795e-01,2.45726e-01,9.99999e-01,9.99999e-01,9.99999e-01,9.99992e-01,2.45727e-01,9.99999e-01
4.956791449e-01,2.52634e-01,9.99999e-01,9.99999e-01,9.99999e-01,9.99995e-01,2.52635e-01,9.99999e-01
4.981575406e-01,2.59590e-01,9.99999e-01,9.99999e-01,9.99999e-01,9.99981e-01,2.59595e-01,9.99999e-01
5.006483283e-01,2.66591e-01,9.99999e-01,9.99999e-01,9.99999e-01,9.99953e-01,2.66603e-01,9.99999e-01
5.031515699e-01,2.73592e-01,9.99999e-01,9.99999e-01,9.99999e-01,9.99767e-01,2.73656e-01,9.99997e-01
5.056673278e-01,2.80716e-01,9.99999e-01,9.99999e-01,9.99999e-01,9.99876e-01,2.80752e-01,9.99996e-01
5.081956644e-01,2.87840e-01,9.99999e-01,9.99999e-01,9.99999e-01,9.99844e-01,2.87885e-01,9.99997e-01
5.107366428e-01,2.95023e-01,9.99999e-01,9.99999e-01,9.99999e-01,9.99895e-01,2.95054e-01,9.99999e-01
5.132903260e-01,3.02236e-01,9.99999e-01,9.99999e-01,9.99999e-01,9.99939e-01,3.02254e-01,9.99999e-01
5.158567776e-01,3.09474e-01,9.99999e-01,9.99999e-01,9.99999e-01,9.99974e-01,3.09482e-01,9.99999e-01
5.184360615e-01,3.16732e-01,9.99999e-01,9.99999e-01,9.99999e-01,9.99989e-01,3.16736e-01,9.99999e-01
5.210282418e-01,3.24009e-01,9.99999e-01,9.99999e-01,9.99999e-01,9.99995e-01,3.24011e-01,9.99999e-01
5.236333830e-01,3.31299e-01,9.99999e-01,9.99999e-01,9.99999e-01,9.99984e-01,3.31304e-01,9.99999e-01
5.262515499e-01,3.38610e-01,9.99999e-01,9.99999e-01,9.99999e-01,9.99990e-01,3.38613e-01,9.99999e-01
5.288828077e-01,3.45931e-01,9.99999e-01,9.99999e-01,9.99999e-01,9.99990e-01,3.45934e-01,9.99999e-01
5.315272217e-01,3.53261e-01,9.99999e-01,9.99999e-01,9.99999e-01,9.99991e-01,3.53264e-01,9.99999e-01
5.341848578e-01,3.60598e-01,9.99999e-01,9.99999e-01,9.99999e-01,9.99994e-01,3.60600e-01,9.99999e-01
5.368557821e-01,3.67932e-01,9.99999e-01,9.99999e-01,9.99999e-01,9.99981e-01,3.67938e-01,9.99999e-01
5.395400610e-01,3.75253e-01,9.99999e-01,9.99999e-01,9.99999e-01,9.99936e-01,3.75277e-01,9.99998e-01
5.422377613e-01,3.82581e-01,9.99999e-01,9.99999e-01,9.99999e-01,9.99917e-01,3.82613e-01,9.99998e-01
5.449489501e-01,3.89913e-01,9.99999e-01,9.99999e-01,9.99999e-01,9.99923e-01,3.89943e-01,9.99997e-01
5.476736949e-01,3.97238e-01,9.99999e-01,9.99999e-01,9.99999e-01,9.99931e-01,3.97265e-01,9.99998e-01
5.504120634e-01,4.04555e-01,9.99999e-01,9.99999e-01,9.99999e-01,9.99950e-01,4.04575e-01,9.99999e-01
5.531641237e-01,4.11861e-01,9.99999e-01,9.99999e-01,9.99999e-01,9.99974e-01,4.11872e-01,9.99999e-01
5.559299443e-01,4.19147e-01,9.99999e-01,9.99999e-01,9.99999e-01,9.99987e-01,4.19152e-01,9.99999e-01
5.587095940e-01,4.26410e-01,9.99999e-01,9.99999e-01,9.99999e-01,9.99992e-01,4.26413e-01,9.99999e-01
5.615031420e-01,4.33649e-01,9.99999e-01,9.99999e-01,9.99999e-01,9.99991e-01,4.33653e-01,9.99999e-01
5.643106577e-01,4.40865e-01,9.99999e-01,9.99999e-01,9.99999e-01,9.99990e-01,4.40869e-01,9.99999e-01
5.671322110e-01,4.48007e-01,9.99999e-01,9.99999e-01,9.99999e-01,9.99885e-01,4.48059e-01,9.99998e-01
5.699678720e-01,4.55164e-01,9.99999e-01,9.99999e-01,9.99999e-01,9.99877e-01,4.55221e-01,9.99996e-01
5.728177114e-01,4.62292e-01,9.99999e-01,9.99999e-01,9.99999e-01,9.99872e-01,4.62352e-01,9.99996e-01
5.756818000e-01,4.69396e-01,9.99999e-01,9.99999e-01,9.99999e-01,9.99882e-01,4.69452e-01,9.99997e-01
5.785602090e-01,4.76467e-01,9.99999e-01,9.99999e-01,9.99999e-01,9.99897e-01,4.76516e-01,9.99999e-01
5.814530100e-01,4.83495e-01,9.99999e-01,9.99999e-01,9.99999e-01,9.99897e-01,4.83544e-01,9.99999e-01
5.843602750e-01,4.90475e-01,9.99999e-01,9.99999e-01,9.99999e-01,9.99877e-01,4.90534e-01,9.99998e-01
5.872820764e-01,4.96959e-01,9.99999e-01,9.99999e-01,9.99999e-01,9.98949e-01,4.97485e-01,9.99992e-01
5.902184868e-01,5.03741e-01,9.99999e-01,9.99999e-01,9.99999e-01,9.98726e-01,5.04393e-01,9.99979e-01
5.931695792e-01,5.10788e-01,9.99999e-01,9.99999e-01,9.99999e-01,9.99100e-01,5.11258e-01,9.99980e-01
5.961354271e-01,5.17561e-01,9.99999e-01,9.99999e-01,9.99999e-01,9.99013e-01,5.18078e-01,9.99988e-01
5.991161043e-01,5.24472e-01,9.99999e-01,9.99999e-01,9.99999e-01,9.99280e-01,5.24851e-01,9.99996e-01
6.021116848e-01,5.31360e-01,9.99999e-01,9.99999e-01,9.99999e-01,9.99591e-01,5.31577e-01,9.99999e-01
6.051222432e-01,5.38143e-01,9.99999e-01,9.99999e-01,9.99999e-01,9.99793e-01,5.38254e-01,9.99999e-01
6.081478544e-01,5.44831e-01,9.99999e-01,9.99999e-01,9.99999e-01,9.99910e-01,5.44880e-01,9.99999e-01
6.111885937e-01,5.51434e-01,9.99999e-01,9.99999e-01,9.99999e-01,9.99961e-01,5.51454e-01,9.99999e-01
6.142445367e-01,5.57966e-01,9.99999e-01,9.99999e-01,9.99999e-01,9.99982e-01,5.57976e-01,9.99999e-01
6.173157594e-01,5.64438e-01,9.99999e-01,9.99999e-01,9.99999e-01,9.99990e-01,5.64443e-01,9.99999e-01
6.204023382e-01,5.70851e-01,9.99999e-01,9.99999e-01,9.99999e-01,9.99991e-01,5.70856e-01,9.99999e-01
6.235043498e-01,5.77192e-01,9.99999e-01,9.99999e-01,9.99999e-01,9.99965e-01,5.77212e-01,9.99999e-01
6.266218716e-01,5.83405e-01,9.99999e-01,9.99999e-01,9.99999e-01,9.99816e-01,5.83512e-01,9.99998e-01
6.297549810e-01,5.89713e-01,9.99999e-01,9.99999e-01,9.99999e-01,9.99932e-01,5.89754e-01,9.99996e-01
6.329037559e-01,5.95857e-01,9.99999e-01,9.99999e-01,9.99999e-01,9.99866e-01,5.95937e-01,9.99997e-01
6.360682746e-01,6.01993e-01,9.99999e-01,9.99999e-01,9.99999e-01,9.99886e-01,6.02062e-01,9.99998e-01
6.392486160e-01,6.08037e-01,9.99999e-01,9.99999e-01,9.99999e-01,9.99853e-01,6.08126e-01,9.99998e-01
6.424448591e-01,6.14009e-01,9.99999e-01,9.99999e-01,9.99999e-01,9.99804e-01,6.14130e-01,9.99998e-01
6.456570834e-01,6.19506e-01,9.99999e-01,9.99999e-01,9.99999e-01,9.99090e-01,6.20073e-01,9.99994e-01
6.488853688e-01,6.25528e-01,9.99999e-01,9.99999e-01,9.99999e-01,9.99333e-01,6.25954e-01,9.99985e-01
6.521297956e-01,6.31337e-01,9.99999e-01,9.99999e-01,9.99999e-01,9.99319e-01,6.31773e-01,9.99987e-01
6.553904446e-01,6.37094e-01,9.99999e-01,9.99999e-01,9.99999e-01,9.99324e-01,6.37530e-01,9.99990e-01
6.586673968e-01,6.42850e-01,9.99999e-01,9.99999e-01,9.99999e-01,9.99420e-01,6.43224e-01,9.99996e-01
6.619607338e-01,6.48637e-01,9.99999e-01,9.99999e-01,9.99999e-01,9.99664e-01,6.48855e-01,9.99998e-01
6.652705375e-01,6.54295e-01,9.99999e-01,9.99999e-01,9.99999e-01,9.99805e-01,6.54422e-01,9.99999e-01
6.685968902e-01,6.59867e-01,9.99999e-01,9.99999e-01,9.99999e-01,9.99909e-01,6.59926e-01,9.99999e-01
6.719398746e-01,6.65338e-01,9.99999e-01,9.99999e-01,9.99999e-01,9.99957e-01,6.65366e-01,9.99999e-01
6.752995740e-01,6.70727e-01,9.99999e-01,9.99999e-01,9.99999e-01,9.99976e-01,6.70742e-01,9.99999e-01
6.786760719e-01,6.76032e-01,9.99999e-01,9.99999e-01,9.99999e-01,9.99966e-01,6.76054e-01,9.99999e-01
6.820694522e-01,6.81264e-01,9.99999e-01,9.99999e-01,9.99999e-01,9.99943e-01,6.81302e-01,9.99999e-01
6.854797995e-01,6.86437e-01,9.99999e-01,9.99999e-01,9.99999e-01,9.99927e-01,6.86486e-01,9.99998e-01
6.889071985e-01,6.91485e-01,9.99999e-01,9.99999e-01,9.99999e-01,9.99825e-01,6.91606e-01,9.99997e-01
6.923517345e-01,6.94670e-01,9.99999e-01,9.99999e-01,9.99999e-01,9.97153e-01,6.96662e-01,9.99985e-01
6.958134932e-01,7.00590e-01,9.99999e-01,9.99999e-01,9.99999e-01,9.98514e-01,7.01653e-01,9.99969e-01
6.992925606e-01,7.05569e-01,9.99999e-01,9.99999e-01,9.99999e-01,9.98593e-01,7.06581e-01,9.99972e-01
7.027890234e-01,7.10194e-01,9.99999e-01,9.99999e-01,9.99999e-01,9.98261e-01,7.11445e-01,9.99978e-01
7.063029686e-01,7.15192e-01,9.99999e-01,9.99999e-01,9.99999e-01,9.98539e-01,7.16246e-01,9.99989e-01
7.098344834e-01,7.19968e-01,9.99999e-01,9.99999e-01,9.99999e-01,9.98598e-01,7.20983e-01,9.99993e-01
7.133836558e-01,7.24295e-01,9.99999e-01,9.99999e-01,9.99999e-01,9.98134e-01,7.25657e-01,9.99987e-01
7.169505741e-01,7.19236e-01,9.99999e-01,9.99999e-01,9.99999e-01,9.84986e-01,7.30268e-01,9.99903e-01
7.205353270e-01,7.29270e-01,9.99999e-01,9.99999e-01,9.99999e-01,9.92618e-01,7.34816e-01,9.99830e-01
7.241380036e-01,7.32292e-01,9.99999e-01,9.99999e-01,9.99999e-01,9.90661e-01,7.39302e-01,9.99853e-01
7.277586936e-01,7.37368e-01,9.99999e-01,9.99999e-01,9.99999e-01,9.91567e-01,7.43726e-01,9.99880e-01
7.313974871e-01,7.41344e-01,9.99999e-01,9.99999e-01,9.99999e-01,9.91038e-01,7.48089e-01,9.99943e-01
7.350544745e-01,7.48691e-01,9.99999e-01,9.99999e-01,9.99999e-01,9.95103e-01,7.52390e-01,9.99980e-01
7.387297469e-01,7.53897e-01,9.99999e-01,9.99999e-01,9.99999e-01,9.96397e-01,7.56630e-01,9.99990e-01
7.424233956e-01,7.59466e-01,9.99999e-01,9.99999e-01,9.99999e-01,9.98236e-01,7.60809e-01,9.99997e-01
7.461355126e-01,7.64111e-01,9.99999e-01,9.99999e-01,9.99999e-01,9.98931e-01,7.64928e-01,9.99999e-01
7.498661902e-01,7.68605e-01,9.99999e-01,9.99999e-01,9.99999e-01,9.99502e-01,7.68988e-01,9.99999e-01
7.536155211e-01,7.72800e-01,9.99999e-01,9.99999e-01,9.99999e-01,9.99755e-01,7.72988e-01,9.99999e-01
7.573835987e-01,7.76832e-01,9.99999e-01,9.99999e-01,9.99999e-01,9.99874e-01,7.76930e-01,9.99999e-01
7.611705167e-01,7.80752e-01,9.99999e-01,9.99999e-01,9.99999e-01,9.99921e-01,7.80813e-01,9.99999e-01
7.649763693e-01,7.84600e-01,9.99999e-01,9.99999e-01,9.99999e-01,9.99950e-01,7.84638e-01,9.99999e-01
7.688012511e-01,7.88379e-01,9.99999e-01,9.99999e-01,9.99999e-01,9.99965e-01,7.88406e-01,9.99999e-01
7.726452574e-01,7.92095e-01,9.99999e-01,9.99999e-01,9.99999e-01,9.99971e-01,7.92117e-01,9.99999e-01
7.765084837e-01,7.95740e-01,9.99999e-01,9.99999e-01,9.99999e-01,9.99959e-01,7.95772e-01,9.99999e-01
7.803910261e-01,7.90329e-01,9.99999e-01,9.99999e-01,9.88856e-01,9.99827e-01,7.99371e-01,9.99999e-01
7.842929812e-01,7.65118e-01,9.99999e-01,9.99999e-01,9.53489e-01,9.99400e-01,8.02914e-01,9.99998e-01
7.882144461e-01,7.65217e-01,9.99999e-01,9.99999e-01,9.50092e-01,9.98762e-01,8.06403e-01,9.99991e-01
7.921555184e-01,7.85975e-01,9.99999e-01,9.99999e-01,9.71202e-01,9.99320e-01,8.09838e-01,9.99984e-01
7.961162960e-01,7.96550e-01,9.99999e-01,9.99999e-01,9.80687e-01,9.98801e-01,8.13219e-01,9.99985e-01
8.000968774e-01,8.06841e-01,9.99999e-01,9.99999e-01,9.89496e-01,9.98615e-01,8.16547e-01,9.99984e-01
8.040973618e-01,8.14214e-01,9.99999e-01,9.99999e-01,9.94546e-01,9.98615e-01,8.19822e-01,9.99987e-01
8.081178486e-01,8.18415e-01,9.99999e-01,9.99999e-01,9.97495e-01,9.96879e-01,8.23045e-01,9.99988e-01
8.121584379e-01,8.14819e-01,9.99999e-01,9.99999e-01,9.99225e-01,9.87008e-01,8.26217e-01,9.99955e-01
8.162192301e-01,8.16255e-01,9.99999e-01,9.99999e-01,9.99828e-01,9.84552e-01,8.29339e-01,9.99835e-01
8.203003262e-01,8.25793e-01,9.99999e-01,9.99999e-01,9.99996e-01,9.92243e-01,8.32410e-01,9.99807e-01
8.244018279e-01,8.26194e-01,9.99999e-01,9.99999e-01,9.99999e-01,9.89093e-01,8.35431e-01,9.99846e-01
8.285238370e-01,8.30578e-01,9.99999e-01,9.99999e-01,9.99999e-01,9.90784e-01,8.38404e-01,9.99879e-01
8.326664562e-01,8.33439e-01,9.99999e-01,9.99999e-01,9.99999e-01,9.90671e-01,8.41328e-01,9.99949e-01
8.368297885e-01,8.38574e-01,9.99999e-01,9.99999e-01,9.99999e-01,9.93342e-01,8.44204e-01,9.99988e-01
8.410139374e-01,8.43675e-01,9.99999e-01,9.99999e-01,9.99999e-01,9.96042e-01,8.47033e-01,9.99992e-01
8.452190071e-01,8.48162e-01,9.99999e-01,9.99999e-01,9.99999e-01,9.98058e-01,8.49815e-01,9.99995e-01
8.494451021e-01,8.51589e-01,9.99999e-01,9.99999e-01,9.99999e-01,9.98874e-01,8.52551e-01,9.99996e-01
8.536923276e-01,8.54670e-01,9.99999e-01,9.99999e-01,9.99999e-01,9.99333e-01,8.55241e-01,9.99997e-01
8.579607893e-01,8.57535e-01,9.99999e-01,9.99999e-01,9.99999e-01,9.99589e-01,8.57887e-01,9.99999e-01
8.622505932e-01,8.60264e-01,9.99999e-01,9.99999e-01,9.99999e-01,9.99739e-01,8.60488e-01,9.99999e-01
8.665618462e-01,8.35372e-01,9.99999e-01,9.99999e-01,9.68087e-01,9.99838e-01,8.63046e-01,9.99999e-01
8.708946554e-01,7.64787e-01,9.99999e-01,9.99999e-01,8.83734e-01,9.99815e-01,8.65561e-01,9.99999e-01
8.752491287e-01,7.86993e-01,9.99999e-01,9.99999e-01,9.06860e-01,9.99753e-01,8.68032e-01,9.99999e-01
8.796253743e-01,8.25328e-01,9.99999e-01,9.99999e-01,9.48469e-01,9.99658e-01,8.70462e-01,9.99998e-01
8.840235012e-01,8.49067e-01,9.99999e-01,9.99999e-01,9.73130e-01,9.99609e-01,8.72851e-01,9.99997e-01
8.884436187e-01,8.64642e-01,9.99999e-01,9.99999e-01,9.89345e-01,9.98578e-01,8.75199e-01,9.99992e-01
8.928858368e-01,8.60605e-01,9.99999e-01,9.99999e-01,9.95677e-01,9.85024e-01,8.77506e-01,9.99960e-01
8.973502660e-01,8.55448e-01,9.99999e-01,9.99999e-01,9.98947e-01,9.73560e-01,8.79774e-01,9.99799e-01
9.018370173e-01,8.69632e-01,9.99999e-01,9.99999e-01,9.99883e-01,9.86396e-01,8.82003e-01,9.99685e-01
9.063462024e-01,8.70825e-01,9.99999e-01,9.99999e-01,9.97018e-01,9.88068e-01,8.84193e-01,9.99723e-01
9.108779334e-01,8.63733e-01,9.99999e-01,9.99999e-01,9.93182e-01,9.81431e-01,8.86345e-01,9.99713e-01
9.154323231e-01,8.68168e-01,9.99999e-01,9.99999e-01,9.98394e-01,9.78952e-01,8.88460e-01,9.99762e-01
9.200094847e-01,8.54814e-01,9.99999e-01,9.99999e-01,9.75882e-01,9.83452e-01,8.90538e-01,9.99867e-01
9.246095321e-01,8.40687e-01,9.99999e-01,9.99999e-01,9.67002e-01,9.73948e-01,8.92579e-01,9.99846e-01
9.292325798e-01,7.28400e-01,9.99999e-01,9.99999e-01,9.73912e-01,8.35680e-01,8.94585e-01,9.99404e-01
9.338787427e-01,6.91139e-01,9.99999e-01,9.99999e-01,9.74844e-01,7.91910e-01,8.96556e-01,9.97541e-01
9.385481364e-01,8.01018e-01,9.99999e-01,9.99999e-01,9.81515e-01,9.10626e-01,8.98491e-01,9.97076e-01
9.432408771e-01,7.77898e-01,9.99999e-01,9.99999e-01,9.88662e-01,8.75873e-01,9.00393e-01,9.97477e-01
9.479570815e-01,7.42791e-01,9.99999e-01,9.99999e-01,9.94172e-01,8.29683e-01,9.02261e-01,9.97946e-01
9.526968669e-01,7.85072e-01,9.99999e-01,9.99999e-01,9.97184e-01,8.71810e-01,9.04096e-01,9.98746e-01
9.574603512e-01,8.00145e-01,9.99999e-01,9.99999e-01,9.98795e-01,8.84865e-01,9.05898e-01,9.99362e-01
9.622476530e-01,8.21513e-01,9.99999e-01,9.99999e-01,9.99623e-01,9.05812e-01,9.07668e-01,9.99559e-01
9.670588912e-01,8.58829e-01,9.99999e-01,9.99999e-01,9.99887e-01,9.44772e-01,9.09407e-01,9.99698e-01
9.718941857e-01,8.79371e-01,9.99999e-01,9.99999e-01,9.99991e-01,9.65381e-01,9.11114e-01,9.99777e-01
9.767536566e-01,8.86351e-01,9.99999e-01,9.99999e-01,9.99999e-01,9.71197e-01,9.12791e-01,9.99830e-01
9.816374249e-01,8.94818e-01,9.99999e-01,9.99999e-01,9.99999e-01,9.78601e-01,9.14438e-01,9.99940e-01
9.865456120e-01,9.03762e-01,9.99999e-01,9.99999e-01,9.99999e-01,9.86591e-01,9.16055e-01,9.99987e-01
9.914783401e-01,9.10023e-01,9.99999e-01,9.99999e-01,9.99999e-01,9.91699e-01,9.17643e-01,9.99996e-01
9.964357318e-01,9.15039e-01,9.99999e-01,9.99999e-01,9.99999e-01,9.95472e-01,9.19202e-01,9.99997e-01
1.001417910e+00,9.18230e-01,9.99999e-01,9.99999e-01,9.99999e-01,9.97284e-01,9.20733e-01,9.99996e-01
1.006425000e+00,9.20805e-01,9.99999e-01,9.99999e-01,9.99999e-01,9.98452e-01,9.22236e-01,9.99995e-01
1.011457125e+00,9.22821e-01,9.99999e-01,9.99999e-01,9.99999e-01,9.99038e-01,9.23712e-01,9.99995e-01
1.016514411e+00,9.24555e-01,9.99999e-01,9.99999e-01,9.99999e-01,9.99347e-01,9.25161e-01,9.99996e-01
1.021596983e+00,9.26085e-01,9.99999e-01,9.99999e-01,9.99984e-01,9.99479e-01,9.26583e-01,9.99996e-01
1.026704968e+00,9.26530e-01,9.99999e-01,9.99999e-01,9.98843e-01,9.99594e-01,9.27980e-01,9.99997e-01
1.031838492e+00,9.11384e-01,9.99999e-01,9.99999e-01,9.80951e-01,9.99705e-01,9.29351e-01,9.99998e-01
1.036997685e+00,3.71951e-01,9.99999e-01,9.99999e-01,3.99709e-01,9.99824e-01,9.30697e-01,9.99999e-01
1.042182673e+00,4.64317e-01,9.99999e-01,9.99999e-01,4.98283e-01,9.99791e-01,9.32018e-01,9.99999e-01
1.047393587e+00,4.06906e-01,9.99999e-01,9.99999e-01,4.36090e-01,9.99723e-01,9.33315e-01,9.99999e-01
1.052630555e+00,1.16386e-01,9.99999e-01,9.99999e-01,1.24572e-01,9.99620e-01,9.34588e-01,9.99999e-01
1.057893707e+00,1.89934e-01,9.99999e-01,9.99999e-01,2.03065e-01,9.99366e-01,9.35838e-01,9.99999e-01
1.063183176e+00,2.97914e-01,9.99999e-01,9.99999e-01,3.18210e-01,9.98957e-01,9.37064e-01,9.99998e-01
1.068499092e+00,4.42497e-01,9.99999e-01,9.99999e-01,4.72385e-01,9.98253e-01,9.38268e-01,9.99998e-01
1.073841587e+00,5.84297e-01,9.99999e-01,9.99999e-01,6.23152e-01,9.97955e-01,9.39450e-01,9.99996e-01
