#,Wave/freq,Total,N2,O2,CO2,H2O,Rayleigh,CIA
4.000000000e-01,7.97848e-04,9.99999e-01,9.99999e-01,9.99999e-01,9.99985e-01,7.97859e-04,9.99999e-01
4.020000000e-01,9.18715e-04,9.99999e-01,9.99999e-01,9.99999e-01,9.99990e-01,9.18723e-04,9.99999e-01
4.040100000e-01,1.05479e-03,9.99999e-01,9.99999e-01,9.99999e-01,9.99995e-01,1.05480e-03,9.99999e-01
4.060300500e-01,1.20773e-03,9.99999e-01,9.99999e-01,9.99999e-01,9.99998e-01,1.20773e-03,9.99999e-01
4.080602003e-01,1.37914e-03,9.99999e-01,9.99999e-01,9.99999e-01,9.99999e-01,1.37914e-03,9.99999e-01
4.101005013e-01,1.57075e-03,9.99999e-01,9.99999e-01,9.99999e-01,9.99999e-01,1.57075e-03,9.99999e-01
4.121510038e-01,1.78439e-03,9.99999e-01,9.99999e-01,9.99999e-01,9.99998e-01,1.78439e-03,9.99999e-01
4.142117588e-01,2.02199e-03,9.99999e-01,9.99999e-01,9.99999e-01,9.99995e-01,2.02200e-03,9.99999e-01
4.162828176e-01,2.28555e-03,9.99999e-01,9.99999e-01,9.99999e-01,9.99982e-01,2.28559e-03,9.99999e-01
4.183642317e-01,2.57727e-03,9.99999e-01,9.99999e-01,9.99999e-01,9.99989e-01,2.57730e-03,9.99999e-01
4.204560528e-01,2.89933e-03,9.99999e-01,9.99999e-01,9.99999e-01,9.99993e-01,2.89935e-03,9.99999e-01
4.225583331e-01,3.25406e-03,9.99999e-01,9.99999e-01,9.99999e-01,9.99997e-01,3.25407e-03,9.99999e-01
4.246711247e-01,3.64386e-03,9.99999e-01,9.99999e-01,9.99999e-01,9.99997e-01,3.64386e-03,9.99999e-01
4.267944804e-01,4.07123e-03,9.99999e-01,9.99999e-01,9.99999e-01,9.99996e-01,4.07124e-03,9.99999e-01
4.289284528e-01,4.53879e-03,9.99999e-01,9.99999e-01,9.99999e-01,9.99997e-01,4.53880e-03,9.99999e-01
4.310730950e-01,5.04919e-03,9.99999e-01,9.99999e-01,9.99999e-01,9.99998e-01,5.04920e-03,9.99999e-01
4.332284605e-01,5.60517e-03,9.99999e-01,9.99999e-01,9.99999e-01,9.99999e-01,5.60518e-03,9.99999e-01
4.353946028e-01,6.20955e-03,9.99999e-01,9.99999e-01,9.99999e-01,9.99999e-01,6.20955e-03,9.99999e-01
4.375715758e-01,6.86518e-03,9.99999e-01,9.99999e-01,9.99999e-01,9.99997e-01,6.86519e-03,9.99999e-01
4.397594337e-01,7.57491e-03,9.99999e-01,9.99999e-01,9.99999e-01,9.99984e-01,7.57503e-03,9.99999e-01
4.419582309e-01,8.34140e-03,9.99999e-01,9.99999e-01,9.99999e-01,9.99924e-01,8.34203e-03,9.99999e-01
4.441680220e-01,9.16866e-03,9.99999e-01,9.99999e-01,9.99999e-01,9.99940e-01,9.16920e-03,9.99999e-01
4.463888621e-01,1.00590e-02,9.99999e-01,9.99999e-01,9.99999e-01,9.99937e-01,1.00596e-02,9.99999e-01
4.486208064e-01,1.10158e-02,9.99999e-01,9.99999e-01,9.99999e-01,9.99961e-01,1.10163e-02,9.99999e-01
4.508639105e-01,1.20421e-02,9.99999e-01,9.99999e-01,9.99999e-01,9.99981e-01,1.20423e-02,9.99999e-01
4.531182300e-01,1.31407e-02,9.99999e-01,9.99999e-01,9.99999e-01,9.99992e-01,1.31407e-02,9.99999e-01
4.553838212e-01,1.43146e-02,9.99999e-01,9.99999e-01,9.99999e-01,9.99994e-01,1.43147e-02,9.99999e-01
4.576607403e-01,1.55671e-02,9.99999e-01,9.99999e-01,9.99999e-01,9.99997e-01,1.55672e-02,9.99999e-01
4.599490440e-01,1.69012e-02,9.99999e-01,9.99999e-01,9.99999e-01,9.99997e-01,1.69012e-02,9.99999e-01
4.622487892e-01,1.83198e-02,9.99999e-01,9.99999e-01,9.99999e-01,9.99999e-01,1.83198e-02,9.99999e-01
4.645600332e-01,1.98259e-02,9.99999e-01,9.99999e-01,9.99999e-01,9.99998e-01,1.98259e-02,9.99999e-01
4.668828333e-01,2.14219e-02,9.99999e-01,9.99999e-01,9.99999e-01,9.99981e-01,2.14223e-02,9.99999e-01
4.692172475e-01,2.31110e-02,9.99999e-01,9.99999e-01,9.99999e-01,9.99960e-01,2.31119e-02,9.99999e-01
4.715633337e-01,2.48968e-02,9.99999e-01,9.99999e-01,9.99999e-01,9.99974e-01,2.48974e-02,9.99999e-01
4.739211504e-01,2.67808e-02,9.99999e-01,9.99999e-01,9.99999e-01,9.99975e-01,2.67815e-02,9.99999e-01
4.762907561e-01,2.87662e-02,9.99999e-01,9.99999e-01,9.99999e-01,9.99986e-01,2.87666e-02,9.99999e-01
4.786722099e-01,3.08551e-02,9.99999e-01,9.99999e-01,9.99999e-01,9.99994e-01,3.08553e-02,9.99999e-01
4.810655710e-01,3.30497e-02,9.99999e-01,9.99999e-01,9.99999e-01,9.99997e-01,3.30498e-02,9.99999e-01
4.834708988e-01,3.53519e-02,9.99999e-01,9.99999e-01,9.99999e-01,9.99984e-01,3.53524e-02,9.99999e-01
4.858882533e-01,3.77641e-02,9.99999e-01,9.99999e-01,9.99999e-01,9.99972e-01,3.77651e-02,9.99999e-01
4.883176946e-01,4.02891e-02,9.99999e-01,9.99999e-01,9.99999e-01,9.99976e-01,4.02900e-02,9.99999e-01
4.907592831e-01,4.29278e-02,9.99999e-01,9.99999e-01,9.99999e-01,9.99978e-01,4.29287e-02,9.99999e-01
4.932130795e-01,4.56823e-02,9.99999e-01,9.99999e-01,9.99999e-01,9.99984e-01,4.56830e-02,9.99999e-01
4.956791449e-01,4.85539e-02,9.99999e-01,9.99999e-01,9.99999e-01,9.99991e-01,4.85543e-02,9.99999e-01
4.981575406e-01,5.15420e-02,9.99999e-01,9.99999e-01,9.99999e-01,9.99960e-01,5.15440e-02,9.99999e-01
5.006483283e-01,5.46477e-02,9.99999e-01,9.99999e-01,9.99999e-01,9.99899e-01,5.46532e-02,9.99998e-01
5.031515699e-01,5.78531e-02,9.99999e-01,9.99999e-01,9.99999e-01,9.99489e-01,5.78830e-02,9.99994e-01
5.056673278e-01,6.12172e-02,9.99999e-01,9.99999e-01,9.99999e-01,9.99730e-01,6.12341e-02,9.99993e-01
5.081956644e-01,6.46850e-02,9.99999e-01,9.99999e-01,9.99999e-01,9.99659e-01,6.47073e-02,9.99995e-01
5.107366428e-01,6.82873e-02,9.99999e-01,9.99999e-01,9.99999e-01,9.99769e-01,6.83030e-02,9.99998e-01
5.132903260e-01,7.20121e-02,9.99999e-01,9.99999e-01,9.99999e-01,9.99868e-01,7.20216e-02,9.99999e-01
5.158567776e-01,7.58589e-02,9.99999e-01,9.99999e-01,9.99999e-01,9.99943e-01,7.58631e-02,9.99999e-01
5.184360615e-01,7.98258e-02,9.99999e-01,9.99999e-01,9.99999e-01,9.99977e-01,7.98275e-02,9.99999e-01
5.210282418e-01,8.39140e-02,9.99999e-01,9.99999e-01,9.99999e-01,9.99991e-01,8.39147e-02,9.99999e-01
5.236333830e-01,8.81212e-02,9.99999e-01,9.99999e-01,9.99999e-01,9.99966e-01,8.81241e-02,9.99999e-01
5.262515499e-01,9.24533e-02,9.99999e-01,9.99999e-01,9.99999e-01,9.99978e-01,9.24553e-02,9.99999e-01
5.288828077e-01,9.69056e-02,9.99999e-01,9.99999e-01,9.99999e-01,9.99980e-01,9.69075e-02,9.99999e-01
5.315272217e-01,1.01478e-01,9.99999e-01,9.99999e-01,9.99999e-01,9.99982e-01,1.01480e-01,9.99999e-01
5.341848578e-01,1.06170e-01,9.99999e-01,9.99999e-01,9.99999e-01,9.99988e-01,1.06171e-01,9.99999e-01
5.368557821e-01,1.10976e-01,9.99999e-01,9.99999e-01,9.99999e-01,9.99960e-01,1.10980e-01,9.99999e-01
5.395400610e-01,1.15889e-01,9.99999e-01,9.99999e-01,9.99999e-01,9.99860e-01,1.15905e-01,9.99998e-01
5.422377613e-01,1.20923e-01,9.99999e-01,9.99999e-01,9.99999e-01,9.99818e-01,1.20945e-01,9.99996e-01
5.449489501e-01,1.26077e-01,9.99999e-01,9.99999e-01,9.99999e-01,9.99831e-01,1.26099e-01,9.99996e-01
5.476736949e-01,1.31343e-01,9.99999e-01,9.99999e-01,9.99999e-01,9.99850e-01,1.31363e-01,9.99997e-01
5.504120634e-01,1.36722e-01,9.99999e-01,9.99999e-01,9.99999e-01,9.99891e-01,1.36737e-01,9.99999e-01
5.531641237e-01,1.42210e-01,9.99999e-01,9.99999e-01,9.99999e-01,9.99945e-01,1.42218e-01,9.99999e-01
5.559299443e-01,1.47800e-01,9.99999e-01,9.99999e-01,9.99999e-01,9.99973e-01,1.47804e-01,9.99999e-01
5.587095940e-01,1.53490e-01,9.99999e-01,9.99999e-01,9.99999e-01,9.99983e-01,1.53492e-01,9.99999e-01
5.615031420e-01,1.59278e-01,9.99999e-01,9.99999e-01,9.99999e-01,9.99981e-01,1.59281e-01,9.99999e-01
5.643106577e-01,1.65163e-01,9.99999e-01,9.99999e-01,9.99999e-01,9.99978e-01,1.65167e-01,9.99999e-01
5.671322110e-01,1.71104e-01,9.99999e-01,9.99999e-01,9.99999e-01,9.99749e-01,1.71147e-01,9.99997e-01
5.699678720e-01,1.77171e-01,9.99999e-01,9.99999e-01,9.99999e-01,9.99729e-01,1.77220e-01,9.99992e-01
5.728177114e-01,1.83330e-01,9.99999e-01,9.99999e-01,9.99999e-01,9.99720e-01,1.83382e-01,9.99993e-01
5.756818000e-01,1.89581e-01,9.99999e-01,9.99999e-01,9.99999e-01,9.99743e-01,1.89630e-01,9.99996e-01
5.785602090e-01,1.95917e-01,9.99999e-01,9.99999e-01,9.99999e-01,9.99775e-01,1.95961e-01,9.99998e-01
5.814530100e-01,2.02327e-01,9.99999e-01,9.99999e-01,9.99999e-01,9.99775e-01,2.02373e-01,9.99999e-01
5.843602750e-01,2.08805e-01,9.99999e-01,9.99999e-01,9.99999e-01,9.99733e-01,2.08861e-01,9.99998e-01
5.872820764e-01,2.14924e-01,9.99999e-01,9.99999e-01,9.99999e-01,9.97700e-01,2.15423e-01,9.99983e-01
5.902184868e-01,2.21424e-01,9.99999e-01,9.99999e-01,9.99999e-01,9.97200e-01,2.22055e-01,9.99955e-01
5.931695792e-01,2.28293e-01,9.99999e-01,9.99999e-01,9.99999e-01,9.98025e-01,2.28755e-01,9.99956e-01
5.961354271e-01,2.35001e-01,9.99999e-01,9.99999e-01,9.99999e-01,9.97832e-01,2.35518e-01,9.99973e-01
5.991161043e-01,2.41957e-01,9.99999e-01,9.99999e-01,9.99999e-01,9.98418e-01,2.42342e-01,9.99991e-01
6.021116848e-01,2.48998e-01,9.99999e-01,9.99999e-01,9.99999e-01,9.99101e-01,2.49222e-01,9.99998e-01
6.051222432e-01,2.56040e-01,9.99999e-01,9.99999e-01,9.99999e-01,9.99545e-01,2.56157e-01,9.99999e-01
6.081478544e-01,2.63090e-01,9.99999e-01,9.99999e-01,9.99999e-01,9.99803e-01,2.63142e-01,9.99999e-01
6.111885937e-01,2.70151e-01,9.99999e-01,9.99999e-01,9.99999e-01,9.99916e-01,2.70173e-01,9.99999e-01
6.142445367e-01,2.77238e-01,9.99999e-01,9.99999e-01,9.99999e-01,9.99962e-01,2.77248e-01,9.99999e-01
6.173157594e-01,2.84357e-01,9.99999e-01,9.99999e-01,9.99999e-01,9.99979e-01,2.84363e-01,9.99999e-01
6.204023382e-01,2.91510e-01,9.99999e-01,9.99999e-01,9.99999e-01,9.99982e-01,2.91515e-01,9.99999e-01
6.235043498e-01,2.98677e-01,9.99999e-01,9.99999e-01,9.99999e-01,9.99924e-01,2.98700e-01,9.99999e-01
6.266218716e-01,3.05791e-01,9.99999e-01,9.99999e-01,9.99999e-01,9.99597e-01,3.05915e-01,9.99996e-01
6.297549810e-01,3.13108e-01,9.99999e-01,9.99999e-01,9.99999e-01,9.99852e-01,3.13156e-01,9.99993e-01
6.329037559e-01,3.20326e-01,9.99999e-01,9.99999e-01,9.99999e-01,9.99707e-01,3.20421e-01,9.99994e-01
6.360682746e-01,3.27624e-01,9.99999e-01,9.99999e-01,9.99999e-01,9.99751e-01,3.27706e-01,9.99996e-01
6.392486160e-01,3.34899e-01,9.99999e-01,9.99999e-01,9.99999e-01,9.99677e-01,3.35007e-01,9.99998e-01
6.424448591e-01,3.42176e-01,9.99999e-01,9.99999e-01,9.99999e-01,9.99571e-01,3.42323e-01,9.99997e-01
6.456570834e-01,3.48949e-01,9.99999e-01,9.99999e-01,9.99999e-01,9.98009e-01,3.49649e-01,9.99988e-01
6.488853688e-01,3.56448e-01,9.99999e-01,9.99999e-01,9.99999e-01,9.98533e-01,3.56982e-01,9.99968e-01
6.521297956e-01,3.63766e-01,9.99999e-01,9.99999e-01,9.99999e-01,9.98504e-01,3.64320e-01,9.99973e-01
6.553904446e-01,3.71103e-01,9.99999e-01,9.99999e-01,9.99999e-01,9.98522e-01,3.71659e-01,9.99980e-01
6.586673968e-01,3.78511e-01,9.99999e-01,9.99999e-01,9.99999e-01,9.98725e-01,3.78996e-01,9.99993e-01
6.619607338e-01,3.86045e-01,9.99999e-01,9.99999e-01,9.99999e-01,9.99263e-01,3.86330e-01,9.99998e-01
6.652705375e-01,3.93488e-01,9.99999e-01,9.99999e-01,9.99999e-01,9.99572e-01,3.93656e-01,9.99998e-01
6.685968902e-01,4.00893e-01,9.99999e-01,9.99999e-01,9.99999e-01,9.99801e-01,4.00972e-01,9.99999e-01
6.719398746e-01,4.08238e-01,9.99999e-01,9.99999e-01,9.99999e-01,9.99907e-01,4.08276e-01,9.99999e-01
6.752995740e-01,4.15544e-01,9.99999e-01,9.99999e-01,9.99999e-01,9.99949e-01,4.15564e-01,9.99999e-01
6.786760719e-01,4.22805e-01,9.99999e-01,9.99999e-01,9.99999e-01,9.99928e-01,4.22835e-01,9.99999e-01
6.820694522e-01,4.30033e-01,9.99999e-01,9.99999e-01,9.99999e-01,9.99877e-01,4.30086e-01,9.99998e-01
6.854797995e-01,4.37244e-01,9.99999e-01,9.99999e-01,9.99999e-01,9.99841e-01,4.37314e-01,9.99998e-01
6.889071985e-01,4.44347e-01,9.99999e-01,9.99999e-01,9.99999e-01,9.99620e-01,4.44517e-01,9.99996e-01
6.923517345e-01,4.48867e-01,9.99999e-01,9.99999e-01,9.99999e-01,9.93771e-01,4.51693e-01,9.99969e-01
6.958134932e-01,4.57305e-01,9.99999e-01,9.99999e-01,9.99999e-01,9.96721e-01,4.58840e-01,9.99931e-01
6.992925606e-01,4.64493e-01,9.99999e-01,9.99999e-01,9.99999e-01,9.96919e-01,4.65955e-01,9.99940e-01
7.027890234e-01,4.71209e-01,9.99999e-01,9.99999e-01,9.99999e-01,9.96180e-01,4.73037e-01,9.99953e-01
7.063029686e-01,4.78532e-01,9.99999e-01,9.99999e-01,9.99999e-01,9.96790e-01,4.80084e-01,9.99976e-01
7.098344834e-01,4.85587e-01,9.99999e-01,9.99999e-01,9.99999e-01,9.96921e-01,4.87093e-01,9.99986e-01
7.133836558e-01,4.92036e-01,9.99999e-01,9.99999e-01,9.99999e-01,9.95923e-01,4.94063e-01,9.99972e-01
7.169505741e-01,4.84576e-01,9.99999e-01,9.99999e-01,9.99999e-01,9.67435e-01,5.00992e-01,9.99789e-01
7.205353270e-01,4.99463e-01,9.99999e-01,9.99999e-01,9.99999e-01,9.83793e-01,5.07878e-01,9.99628e-01
7.241380036e-01,5.04078e-01,9.99999e-01,9.99999e-01,9.99999e-01,9.79635e-01,5.14721e-01,9.99679e-01
7.277586936e-01,5.11786e-01,9.99999e-01,9.99999e-01,9.99999e-01,9.81595e-01,5.21517e-01,9.99737e-01
7.313974871e-01,5.17844e-01,9.99999e-01,9.99999e-01,9.99999e-01,9.80389e-01,5.28267e-01,9.99876e-01
7.350544745e-01,5.29201e-01,9.99999e-01,9.99999e-01,9.99999e-01,9.89260e-01,5.34968e-01,9.99956e-01
7.387297469e-01,5.37324e-01,9.99999e-01,9.99999e-01,9.99999e-01,9.92088e-01,5.41619e-01,9.99979e-01
7.424233956e-01,5.46090e-01,9.99999e-01,9.99999e-01,9.99999e-01,9.96118e-01,5.48219e-01,9.99995e-01
7.461355126e-01,5.53463e-01,9.99999e-01,9.99999e-01,9.99999e-01,9.97649e-01,5.54767e-01,9.99998e-01
7.498661902e-01,5.60646e-01,9.99999e-01,9.99999e-01,9.99999e-01,9.98903e-01,5.61261e-01,9.99999e-01
7.536155211e-01,5.67396e-01,9.99999e-01,9.99999e-01,9.99999e-01,9.99462e-01,5.67701e-01,9.99999e-01
7.573835987e-01,5.73926e-01,9.99999e-01,9.99999e-01,9.99999e-01,9.99723e-01,5.74085e-01,9.99999e-01
7.611705167e-01,5.80313e-01,9.99999e-01,9.99999e-01,9.99999e-01,9.99827e-01,5.80413e-01,9.99999e-01
7.649763693e-01,5.86620e-01,9.99999e-01,9.99999e-01,9.99999e-01,9.99892e-01,5.86683e-01,9.99999e-01
7.688012511e-01,5.92852e-01,9.99999e-01,9.99999e-01,9.99999e-01,9.99924e-01,5.92896e-01,9.99999e-01
7.726452574e-01,5.99013e-01,9.99999e-01,9.99999e-01,9.99999e-01,9.99938e-01,5.99049e-01,9.99999e-01
7.765084837e-01,6.05091e-01,9.99999e-01,9.99999e-01,9.99999e-01,9.99912e-01,6.05143e-01,9.99999e-01
7.803910261e-01,5.96836e-01,9.99999e-01,9.99999e-01,9.76894e-01,9.99623e-01,6.11177e-01,9.99999e-01
7.842929812e-01,5.55684e-01,9.99999e-01,9.99999e-01,9.01549e-01,9.98686e-01,6.17150e-01,9.99997e-01
7.882144461e-01,5.56208e-01,9.99999e-01,9.99999e-01,8.95081e-01,9.97282e-01,6.23062e-01,9.99982e-01
7.921555184e-01,5.89044e-01,9.99999e-01,9.99999e-01,9.38017e-01,9.98505e-01,6.28912e-01,9.99967e-01
7.961162960e-01,6.06426e-01,9.99999e-01,9.99999e-01,9.57981e-01,9.97374e-01,6.34699e-01,9.99968e-01
8.000968774e-01,6.23797e-01,9.99999e-01,9.99999e-01,9.77033e-01,9.96958e-01,6.40424e-01,9.99966e-01
8.040973618e-01,6.36390e-01,9.99999e-01,9.99999e-01,9.88016e-01,9.96960e-01,6.46086e-01,9.99973e-01
8.081178486e-01,6.43665e-01,9.99999e-01,9.99999e-01,9.94495e-01,9.93177e-01,6.51685e-01,9.99975e-01
8.121584379e-01,6.37520e-01,9.99999e-01,9.99999e-01,9.98289e-01,9.71768e-01,6.57220e-01,9.99903e-01
8.162192301e-01,6.39936e-01,9.99999e-01,9.99999e-01,9.99621e-01,9.66369e-01,6.62692e-01,9.99638e-01
8.203003262e-01,6.56596e-01,9.99999e-01,9.99999e-01,9.99993e-01,9.83201e-01,6.68099e-01,9.99577e-01
8.244018279e-01,6.57216e-01,9.99999e-01,9.99999e-01,9.99999e-01,9.76231e-01,6.73443e-01,9.99663e-01
8.285238370e-01,6.64900e-01,9.99999e-01,9.99999e-01,9.99999e-01,9.79892e-01,6.78723e-01,9.99735e-01
8.326664562e-01,6.69928e-01,9.99999e-01,9.99999e-01,9.99999e-01,9.79622e-01,6.83938e-01,9.99890e-01
8.368297885e-01,6.79020e-01,9.99999e-01,9.99999e-01,9.99999e-01,9.85410e-01,6.89090e-01,9.99974e-01
8.410139374e-01,6.88135e-01,9.99999e-01,9.99999e-01,9.99999e-01,9.91310e-01,6.94177e-01,9.99984e-01
8.452190071e-01,6.96209e-01,9.99999e-01,9.99999e-01,9.99999e-01,9.95729e-01,6.99200e-01,9.99990e-01
8.494451021e-01,7.02413e-01,9.99999e-01,9.99999e-01,9.99999e-01,9.97526e-01,7.04159e-01,9.99992e-01
8.536923276e-01,7.08012e-01,9.99999e-01,9.99999e-01,9.99999e-01,9.98533e-01,7.09055e-01,9.99994e-01
8.579607893e-01,7.13243e-01,9.99999e-01,9.99999e-01,9.99999e-01,9.99098e-01,7.13887e-01,9.99998e-01
8.622505932e-01,7.18243e-01,9.99999e-01,9.99999e-01,9.99999e-01,9.99426e-01,7.18655e-01,9.99999e-01
8.665618462e-01,6.81876e-01,9.99999e-01,9.99999e-01,9.42973e-01,9.99645e-01,7.23360e-01,9.99999e-01
8.708946554e-01,5.58332e-01,9.99999e-01,9.99999e-01,7.67239e-01,9.99594e-01,7.28002e-01,9.99999e-01
8.752491287e-01,5.92187e-01,9.99999e-01,9.99999e-01,8.08785e-01,9.99457e-01,7.32581e-01,9.99998e-01
8.796253743e-01,6.55962e-01,9.99999e-01,9.99999e-01,8.90579e-01,9.99250e-01,7.37098e-01,9.99997e-01
8.840235012e-01,6.97861e-01,9.99999e-01,9.99999e-01,9.41883e-01,9.99143e-01,7.41553e-01,9.99994e-01
8.884436187e-01,7.26286e-01,9.99999e-01,9.99999e-01,9.76663e-01,9.96904e-01,7.45945e-01,9.99984e-01
8.928858368e-01,7.19013e-01,9.99999e-01,9.99999e-01,9.90500e-01,9.67550e-01,7.50276e-01,9.99913e-01
8.973502660e-01,7.09560e-01,9.99999e-01,9.99999e-01,9.97677e-01,9.42950e-01,7.54547e-01,9.99560e-01
9.018370173e-01,7.35561e-01,9.99999e-01,9.99999e-01,9.99743e-01,9.70342e-01,7.58756e-01,9.99309e-01
9.063462024e-01,7.37991e-01,9.99999e-01,9.99999e-01,9.93529e-01,9.74098e-01,7.62905e-01,9.99393e-01
9.108779334e-01,7.24777e-01,9.99999e-01,9.99999e-01,9.85057e-01,9.59775e-01,7.66994e-01,9.99370e-01
9.154323231e-01,7.32924e-01,9.99999e-01,9.99999e-01,9.96456e-01,9.54413e-01,7.71023e-01,9.99479e-01
9.200094847e-01,7.09980e-01,9.99999e-01,9.99999e-01,9.49277e-01,9.64047e-01,7.74994e-01,9.99708e-01
9.246095321e-01,6.83836e-01,9.99999e-01,9.99999e-01,9.28919e-01,9.44561e-01,7.78905e-01,9.99663e-01
9.292325798e-01,5.03771e-01,9.99999e-01,9.99999e-01,9.43991e-01,6.79642e-01,7.82759e-01,9.98691e-01
9.338787427e-01,4.49923e-01,9.99999e-01,9.99999e-01,9.45629e-01,6.05504e-01,7.86555e-01,9.94603e-01
9.385481364e-01,6.16816e-01,9.99999e-01,9.99999e-01,9.59822e-01,8.17020e-01,7.90294e-01,9.93584e-01
9.432408771e-01,5.81547e-01,9.99999e-01,9.99999e-01,9.75194e-01,7.54506e-01,7.93977e-01,9.94463e-01
9.479570815e-01,5.30787e-01,9.99999e-01,9.99999e-01,9.87218e-01,6.76800e-01,7.97603e-01,9.95491e-01
9.526968669e-01,5.93178e-01,9.99999e-01,9.99999e-01,9.93810e-01,7.46746e-01,8.01174e-01,9.97247e-01
9.574603512e-01,6.14579e-01,9.99999e-01,9.99999e-01,9.97348e-01,7.66755e-01,8.04690e-01,9.98600e-01
9.622476530e-01,6.50071e-01,9.99999e-01,9.99999e-01,9.99171e-01,8.05811e-01,8.08151e-01,9.99031e-01
9.670588912e-01,7.16153e-01,9.99999e-01,9.99999e-01,9.99751e-01,8.83237e-01,8.11558e-01,9.99337e-01
9.718941857e-01,7.53913e-01,9.99999e-01,9.99999e-01,9.99981e-01,9.25612e-01,8.14912e-01,9.99512e-01
9.767536566e-01,7.67101e-01,9.99999e-01,9.99999e-01,9.99999e-01,9.37879e-01,8.18213e-01,9.99627e-01
9.816374249e-01,7.83214e-01,9.99999e-01,9.99999e-01,9.99999e-01,9.53561e-01,8.21462e-01,9.99870e-01
9.865456120e-01,8.00511e-01,9.99999e-01,9.99999e-01,9.99999e-01,9.70742e-01,8.24660e-01,9.99972e-01
9.914783401e-01,8.12759e-01,9.99999e-01,9.99999e-01,9.99999e-01,9.81829e-01,8.27806e-01,9.99992e-01
9.964357318e-01,8.22643e-01,9.99999e-01,9.99999e-01,9.99999e-01,9.90064e-01,8.30902e-01,9.99995e-01
1.001417910e+00,8.28967e-01,9.99999e-01,9.99999e-01,9.99999e-01,9.94034e-01,8.33948e-01,9.99992e-01
1.006425000e+00,8.34091e-01,9.99999e-01,9.99999e-01,9.99999e-01,9.96599e-01,8.36944e-01,9.99990e-01
1.011457125e+00,8.38109e-01,9.99999e-01,9.99999e-01,9.99999e-01,9.97885e-01,8.39892e-01,9.99990e-01
1.016514411e+00,8.41577e-01,9.99999e-01,9.99999e-01,9.99999e-01,9.98565e-01,8.42792e-01,9.99993e-01
1.021596983e+00,8.44645e-01,9.99999e-01,9.99999e-01,9.99967e-01,9.98856e-01,8.45644e-01,9.99993e-01
1.026704968e+00,8.45558e-01,9.99999e-01,9.99999e-01,9.97484e-01,9.99108e-01,8.48449e-01,9.99995e-01
1.031838492e+00,8.23136e-01,9.99999e-01,9.99999e-01,9.67634e-01,9.99351e-01,8.51207e-01,9.99998e-01
1.036997685e+00,1.85856e-01,9.99999e-01,9.99999e-01,2.17718e-01,9.99615e-01,8.53920e-01,9.99999e-01
1.042182673e+00,1.94981e-01,9.99999e-01,9.99999e-01,2.27720e-01,9.99541e-01,8.56588e-01,9.99999e-01
1.047393587e+00,1.99318e-01,9.99999e-01,9.99999e-01,2.32104e-01,9.99392e-01,8.59211e-01,9.99999e-01
1.052630555e+00,1.54046e-02,9.99999e-01,9.99999e-01,1.78865e-02,9.99166e-01,8.61790e-01,9.99999e-01
1.057893707e+00,3.27431e-02,9.99999e-01,9.99999e-01,3.79215e-02,9.98610e-01,8.64326e-01,9.99999e-01
1.063183176e+00,7.94026e-02,9.99999e-01,9.99999e-01,9.17637e-02,9.97711e-01,8.66819e-01,9.99998e-01
1.068499092e+00,1.71409e-01,9.99999e-01,9.99999e-01,1.97856e-01,9.96167e-01,8.69269e-01,9.99996e-01
1.073841587e+00,3.11837e-01,9.99999e-01,9.99999e-01,3.59169e-01,9.95518e-01,8.71678e-01,9.99993e-01
