#,Wave/freq,Total,N2,O2,CO2,H2O,Rayleigh,CIA
4.000000000e-01,4.08370e-02,9.99999e-01,9.99999e-01,9.99999e-01,9.99993e-01,4.08373e-02,9.99999e-01
4.020000000e-01,4.35029e-02,9.99999e-01,9.99999e-01,9.99999e-01,9.99995e-01,4.35031e-02,9.99999e-01
4.040100000e-01,4.62820e-02,9.99999e-01,9.99999e-01,9.99999e-01,9.99997e-01,4.62821e-02,9.99999e-01
4.060300500e-01,4.91783e-02,9.99999e-01,9.99999e-01,9.99999e-01,9.99999e-01,4.91784e-02,9.99999e-01
4.080602003e-01,5.21933e-02,9.99999e-01,9.99999e-01,9.99999e-01,9.99999e-01,5.21933e-02,9.99999e-01
4.101005013e-01,5.53280e-02,9.99999e-01,9.99999e-01,9.99999e-01,9.99999e-01,5.53280e-02,9.99999e-01
4.121510038e-01,5.85834e-02,9.99999e-01,9.99999e-01,9.99999e-01,9.99999e-01,5.85835e-02,9.99999e-01
4.142117588e-01,6.19603e-02,9.99999e-01,9.99999e-01,9.99999e-01,9.99997e-01,6.19604e-02,9.99999e-01
4.162828176e-01,6.54591e-02,9.99999e-01,9.99999e-01,9.99999e-01,9.99991e-01,6.54596e-02,9.99999e-01
4.183642317e-01,6.90810e-02,9.99999e-01,9.99999e-01,9.99999e-01,9.99994e-01,6.90813e-02,9.99999e-01
4.204560528e-01,7.28258e-02,9.99999e-01,9.99999e-01,9.99999e-01,9.99996e-01,7.28260e-02,9.99999e-01
4.225583331e-01,7.66935e-02,9.99999e-01,9.99999e-01,9.99999e-01,9.99998e-01,7.66935e-02,9.99999e-01
4.246711247e-01,8.06840e-02,9.99999e-01,9.99999e-01,9.99999e-01,9.99998e-01,8.06840e-02,9.99999e-01
4.267944804e-01,8.47970e-02,9.99999e-01,9.99999e-01,9.99999e-01,9.99998e-01,8.47971e-02,9.99999e-01
4.289284528e-01,8.90324e-02,9.99999e-01,9.99999e-01,9.99999e-01,9.99998e-01,8.90325e-02,9.99999e-01
4.310730950e-01,9.33893e-02,9.99999e-01,9.99999e-01,9.99999e-01,9.99999e-01,9.33894e-02,9.99999e-01
4.332284605e-01,9.78671e-02,9.99999e-01,9.99999e-01,9.99999e-01,9.99999e-01,9.78671e-02,9.99999e-01
4.353946028e-01,1.02465e-01,9.99999e-01,9.99999e-01,9.99999e-01,9.99999e-01,1.02465e-01,9.99999e-01
4.375715758e-01,1.07181e-01,9.99999e-01,9.99999e-01,9.99999e-01,9.99998e-01,1.07181e-01,9.99999e-01
4.397594337e-01,1.12014e-01,9.99999e-01,9.99999e-01,9.99999e-01,9.99992e-01,1.12015e-01,9.99999e-01
4.419582309e-01,1.16961e-01,9.99999e-01,9.99999e-01,9.99999e-01,9.99965e-01,1.16965e-01,9.99999e-01
4.441680220e-01,1.22026e-01,9.99999e-01,9.99999e-01,9.99999e-01,9.99973e-01,1.22029e-01,9.99999e-01
4.463888621e-01,1.27202e-01,9.99999e-01,9.99999e-01,9.99999e-01,9.99971e-01,1.27206e-01,9.99999e-01
4.486208064e-01,1.32491e-01,9.99999e-01,9.99999e-01,9.99999e-01,9.99982e-01,1.32494e-01,9.99999e-01
4.508639105e-01,1.37889e-01,9.99999e-01,9.99999e-01,9.99999e-01,9.99991e-01,1.37890e-01,9.99999e-01
4.531182300e-01,1.43393e-01,9.99999e-01,9.99999e-01,9.99999e-01,9.99996e-01,1.43394e-01,9.99999e-01
4.553838212e-01,1.49001e-01,9.99999e-01,9.99999e-01,9.99999e-01,9.99997e-01,1.49002e-01,9.99999e-01
4.576607403e-01,1.54711e-01,9.99999e-01,9.99999e-01,9.99999e-01,9.99998e-01,1.54712e-01,9.99999e-01
4.599490440e-01,1.60521e-01,9.99999e-01,9.99999e-01,9.99999e-01,9.99998e-01,1.60521e-01,9.99999e-01
4.622487892e-01,1.66427e-01,9.99999e-01,9.99999e-01,9.99999e-01,9.99999e-01,1.66427e-01,9.99999e-01
4.645600332e-01,1.72428e-01,9.99999e-01,9.99999e-01,9.99999e-01,9.99999e-01,1.72428e-01,9.99999e-01
4.668828333e-01,1.78518e-01,9.99999e-01,9.99999e-01,9.99999e-01,9.99991e-01,1.78520e-01,9.99999e-01
4.692172475e-01,1.84697e-01,9.99999e-01,9.99999e-01,9.99999e-01,9.99982e-01,1.84700e-01,9.99999e-01
4.715633337e-01,1.90964e-01,9.99999e-01,9.99999e-01,9.99999e-01,9.99988e-01,1.90966e-01,9.99999e-01
4.739211504e-01,1.97312e-01,9.99999e-01,9.99999e-01,9.99999e-01,9.99988e-01,1.97314e-01,9.99999e-01
4.762907561e-01,2.03741e-01,9.99999e-01,9.99999e-01,9.99999e-01,9.99993e-01,2.03742e-01,9.99999e-01
4.786722099e-01,2.10246e-01,9.99999e-01,9.99999e-01,9.99999e-01,9.99997e-01,2.10246e-01,9.99999e-01
4.810655710e-01,2.16823e-01,9.99999e-01,9.99999e-01,9.99999e-01,9.99998e-01,2.16824e-01,9.99999e-01
4.834708988e-01,2.23469e-01,9.99999e-01,9.99999e-01,9.99999e-01,9.99992e-01,2.23470e-01,9.99999e-01
4.858882533e-01,2.30181e-01,9.99999e-01,9.99999e-01,9.99999e-01,9.99987e-01,2.30184e-01,9.99999e-01
4.883176946e-01,2.36958e-01,9.99999e-01,9.99999e-01,9.99999e-01,9.99989e-01,2.36960e-01,9.99999e-01
4.907592831e-01,2.43794e-01,9.99999e-01,9.99999e-01,9.99999e-01,9.99990e-01,2.43796e-01,9.99999e-01
4.932130795e-01,2.50687e-01,9.99999e-01,9.99999e-01,9.99999e-01,9.99992e-01,2.50689e-01,9.99999e-01
4.956791449e-01,2.57633e-01,9.99999e-01,9.99999e-01,9.99999e-01,9.99996e-01,2.57634e-01,9.99999e-01
4.981575406e-01,2.64624e-01,9.99999e-01,9.99999e-01,9.99999e-01,9.99982e-01,2.64629e-01,9.99999e-01
5.006483283e-01,2.71658e-01,9.99999e-01,9.99999e-01,9.99999e-01,9.99954e-01,2.71670e-01,9.99999e-01
5.031515699e-01,2.78689e-01,9.99999e-01,9.99999e-01,9.99999e-01,9.99770e-01,2.78754e-01,9.99997e-01
5.056673278e-01,2.85841e-01,9.99999e-01,9.99999e-01,9.99999e-01,9.99878e-01,2.85877e-01,9.99996e-01
5.081956644e-01,2.92991e-01,9.99999e-01,9.99999e-01,9.99999e-01,9.99847e-01,2.93036e-01,9.99997e-01
5.107366428e-01,3.00196e-01,9.99999e-01,9.99999e-01,9.99999e-01,9.99896e-01,3.00227e-01,9.99999e-01
5.132903260e-01,3.07430e-01,9.99999e-01,9.99999e-01,9.99999e-01,9.99940e-01,3.07448e-01,9.99999e-01
5.158567776e-01,3.14687e-01,9.99999e-01,9.99999e-01,9.99999e-01,9.99974e-01,3.14695e-01,9.99999e-01
5.184360615e-01,3.21961e-01,9.99999e-01,9.99999e-01,9.99999e-01,9.99989e-01,3.21964e-01,9.99999e-01
5.210282418e-01,3.29252e-01,9.99999e-01,9.99999e-01,9.99999e-01,9.99995e-01,3.29253e-01,9.99999e-01
5.236333830e-01,3.36553e-01,9.99999e-01,9.99999e-01,9.99999e-01,9.99984e-01,3.36558e-01,9.99999e-01
5.262515499e-01,3.43872e-01,9.99999e-01,9.99999e-01,9.99999e-01,9.99990e-01,3.43876e-01,9.99999e-01
5.288828077e-01,3.51200e-01,9.99999e-01,9.99999e-01,9.99999e-01,9.99990e-01,3.51203e-01,9.99999e-01
5.315272217e-01,3.58535e-01,9.99999e-01,9.99999e-01,9.99999e-01,9.99991e-01,3.58538e-01,9.99999e-01
5.341848578e-01,3.65874e-01,9.99999e-01,9.99999e-01,9.99999e-01,9.99994e-01,3.65876e-01,9.99999e-01
5.368557821e-01,3.73209e-01,9.99999e-01,9.99999e-01,9.99999e-01,9.99982e-01,3.73215e-01,9.99999e-01
5.395400610e-01,3.80528e-01,9.99999e-01,9.99999e-01,9.99999e-01,9.99936e-01,3.80552e-01,9.99998e-01
5.422377613e-01,3.87852e-01,9.99999e-01,9.99999e-01,9.99999e-01,9.99918e-01,3.87884e-01,9.99998e-01
5.449489501e-01,3.95178e-01,9.99999e-01,9.99999e-01,9.99999e-01,9.99924e-01,3.95208e-01,9.99997e-01
5.476736949e-01,4.02495e-01,9.99999e-01,9.99999e-01,9.99999e-01,9.99932e-01,4.02522e-01,9.99998e-01
5.504120634e-01,4.09803e-01,9.99999e-01,9.99999e-01,9.99999e-01,9.99951e-01,4.09823e-01,9.99999e-01
5.531641237e-01,4.17098e-01,9.99999e-01,9.99999e-01,9.99999e-01,9.99975e-01,4.17108e-01,9.99999e-01
5.559299443e-01,4.24370e-01,9.99999e-01,9.99999e-01,9.99999e-01,9.99987e-01,4.24375e-01,9.99999e-01
5.587095940e-01,4.31617e-01,9.99999e-01,9.99999e-01,9.99999e-01,9.99992e-01,4.31621e-01,9.99999e-01
5.615031420e-01,4.38840e-01,9.99999e-01,9.99999e-01,9.99999e-01,9.99991e-01,4.38844e-01,9.99999e-01
5.643106577e-01,4.46037e-01,9.99999e-01,9.99999e-01,9.99999e-01,9.99990e-01,4.46041e-01,9.99999e-01
5.671322110e-01,4.53159e-01,9.99999e-01,9.99999e-01,9.99999e-01,9.99886e-01,4.53211e-01,9.99998e-01
5.699678720e-01,4.60295e-01,9.99999e-01,9.99999e-01,9.99999e-01,9.99879e-01,4.60352e-01,9.99996e-01
5.728177114e-01,4.67400e-01,9.99999e-01,9.99999e-01,9.99999e-01,9.99874e-01,4.67460e-01,9.99996e-01
5.756818000e-01,4.74479e-01,9.99999e-01,9.99999e-01,9.99999e-01,9.99884e-01,4.74535e-01,9.99997e-01
5.785602090e-01,4.81525e-01,9.99999e-01,9.99999e-01,9.99999e-01,9.99899e-01,4.81573e-01,9.99999e-01
5.814530100e-01,4.88525e-01,9.99999e-01,9.99999e-01,9.99999e-01,9.99898e-01,4.88574e-01,9.99999e-01
5.843602750e-01,4.95476e-01,9.99999e-01,9.99999e-01,9.99999e-01,9.99879e-01,4.95536e-01,9.99998e-01
5.872820764e-01,5.01931e-01,9.99999e-01,9.99999e-01,9.99999e-01,9.98962e-01,5.02456e-01,9.99992e-01
5.902184868e-01,5.08684e-01,9.99999e-01,9.99999e-01,9.99999e-01,9.98745e-01,5.09333e-01,9.99979e-01
5.931695792e-01,5.15699e-01,9.99999e-01,9.99999e-01,9.99999e-01,9.99113e-01,5.16166e-01,9.99980e-01
5.961354271e-01,5.22439e-01,9.99999e-01,9.99999e-01,9.99999e-01,9.99028e-01,5.22953e-01,9.99988e-01
5.991161043e-01,5.29315e-01,9.99999e-01,9.99999e-01,9.99999e-01,9.99291e-01,5.29692e-01,9.99996e-01
6.021116848e-01,5.36167e-01,9.99999e-01,9.99999e-01,9.99999e-01,9.99597e-01,5.36383e-01,9.99999e-01
6.051222432e-01,5.42913e-01,9.99999e-01,9.99999e-01,9.99999e-01,9.99796e-01,5.43023e-01,9.99999e-01
6.081478544e-01,5.49564e-01,9.99999e-01,9.99999e-01,9.99999e-01,9.99911e-01,5.49612e-01,9.99999e-01
6.111885937e-01,5.56128e-01,9.99999e-01,9.99999e-01,9.99999e-01,9.99962e-01,5.56149e-01,9.99999e-01
6.142445367e-01,5.62622e-01,9.99999e-01,9.99999e-01,9.99999e-01,9.99982e-01,5.62631e-01,9.99999e-01
6.173157594e-01,5.69054e-01,9.99999e-01,9.99999e-01,9.99999e-01,9.99990e-01,5.69059e-01,9.99999e-01
6.204023382e-01,5.75427e-01,9.99999e-01,9.99999e-01,9.99999e-01,9.99991e-01,5.75432e-01,9.99999e-01
6.235043498e-01,5.81728e-01,9.99999e-01,9.99999e-01,9.99999e-01,9.99965e-01,5.81748e-01,9.99999e-01
6.266218716e-01,5.87899e-01,9.99999e-01,9.99999e-01,9.99999e-01,9.99819e-01,5.88006e-01,9.99998e-01
6.297549810e-01,5.94165e-01,9.99999e-01,9.99999e-01,9.99999e-01,9.99933e-01,5.94206e-01,9.99996e-01
6.329037559e-01,6.00267e-01,9.99999e-01,9.99999e-01,9.99999e-01,9.99868e-01,6.00347e-01,9.99997e-01
6.360682746e-01,6.06360e-01,9.99999e-01,9.99999e-01,9.99999e-01,9.99888e-01,6.06428e-01,9.99998e-01
6.392486160e-01,6.12360e-01,9.99999e-01,9.99999e-01,9.99999e-01,9.99855e-01,6.12449e-01,9.99998e-01
6.424448591e-01,6.18289e-01,9.99999e-01,9.99999e-01,9.99999e-01,9.99806e-01,6.18409e-01,9.99998e-01
6.456570834e-01,6.23744e-01,9.99999e-01,9.99999e-01,9.99999e-01,9.99101e-01,6.24308e-01,9.99994e-01
6.488853688e-01,6.29722e-01,9.99999e-01,9.99999e-01,9.99999e-01,9.99342e-01,6.30144e-01,9.99985e-01
6.521297956e-01,6.35486e-01,9.99999e-01,9.99999e-01,9.99999e-01,9.99330e-01,6.35919e-01,9.99988e-01
6.553904446e-01,6.41197e-01,9.99999e-01,9.99999e-01,9.99999e-01,9.99333e-01,6.41630e-01,9.99990e-01
6.586673968e-01,6.46908e-01,9.99999e-01,9.99999e-01,9.99999e-01,9.99429e-01,6.47279e-01,9.99996e-01
6.619607338e-01,6.52656e-01,9.99999e-01,9.99999e-01,9.99999e-01,9.99681e-01,6.52864e-01,9.99998e-01
6.652705375e-01,6.58260e-01,9.99999e-01,9.99999e-01,9.99999e-01,9.99808e-01,6.58386e-01,9.99999e-01
6.685968902e-01,6.63785e-01,9.99999e-01,9.99999e-01,9.99999e-01,9.99910e-01,6.63844e-01,9.99999e-01
6.719398746e-01,6.69211e-01,9.99999e-01,9.99999e-01,9.99999e-01,9.99958e-01,6.69238e-01,9.99999e-01
6.752995740e-01,6.74553e-01,9.99999e-01,9.99999e-01,9.99999e-01,9.99977e-01,6.74568e-01,9.99999e-01
6.786760719e-01,6.79812e-01,9.99999e-01,9.99999e-01,9.99999e-01,9.99967e-01,6.79834e-01,9.99999e-01
6.820694522e-01,6.84998e-01,9.99999e-01,9.99999e-01,9.99999e-01,9.99944e-01,6.85036e-01,9.99999e-01
6.854797995e-01,6.90124e-01,9.99999e-01,9.99999e-01,9.99999e-01,9.99928e-01,6.90174e-01,9.99998e-01
6.889071985e-01,6.95127e-01,9.99999e-01,9.99999e-01,9.99999e-01,9.99827e-01,6.95248e-01,9.99997e-01
6.923517345e-01,6.98280e-01,9.99999e-01,9.99999e-01,9.99999e-01,9.97189e-01,7.00257e-01,9.99986e-01
6.958134932e-01,7.04153e-01,9.99999e-01,9.99999e-01,9.99999e-01,9.98540e-01,7.05203e-01,9.99969e-01
6.992925606e-01,7.09080e-01,9.99999e-01,9.99999e-01,9.99999e-01,9.98611e-01,7.10085e-01,9.99972e-01
7.027890234e-01,7.13664e-01,9.99999e-01,9.99999e-01,9.99999e-01,9.98287e-01,7.14903e-01,9.99979e-01
7.063029686e-01,7.18615e-01,9.99999e-01,9.99999e-01,9.99999e-01,9.98560e-01,7.19658e-01,9.99989e-01
7.098344834e-01,7.23345e-01,9.99999e-01,9.99999e-01,9.99999e-01,9.98618e-01,7.24350e-01,9.99993e-01
7.133836558e-01,7.27625e-01,9.99999e-01,9.99999e-01,9.99999e-01,9.98155e-01,7.28978e-01,9.99987e-01
7.169505741e-01,7.22604e-01,9.99999e-01,9.99999e-01,9.99999e-01,9.85177e-01,7.33544e-01,9.99905e-01
7.205353270e-01,7.32573e-01,9.99999e-01,9.99999e-01,9.99999e-01,9.92746e-01,7.38048e-01,9.99833e-01
7.241380036e-01,7.35544e-01,9.99999e-01,9.99999e-01,9.99999e-01,9.90787e-01,7.42489e-01,9.99856e-01
7.277586936e-01,7.40571e-01,9.99999e-01,9.99999e-01,9.99999e-01,9.91683e-01,7.46869e-01,9.99882e-01
7.313974871e-01,7.44518e-01,9.99999e-01,9.99999e-01,9.99999e-01,9.91176e-01,7.51187e-01,9.99944e-01
7.350544745e-01,7.51786e-01,9.99999e-01,9.99999e-01,9.99999e-01,9.95175e-01,7.55444e-01,9.99980e-01
7.387297469e-01,7.56939e-01,9.99999e-01,9.99999e-01,9.99999e-01,9.96451e-01,7.59641e-01,9.99990e-01
7.424233956e-01,7.62450e-01,9.99999e-01,9.99999e-01,9.99999e-01,9.98263e-01,7.63777e-01,9.99997e-01
7.461355126e-01,7.67045e-01,9.99999e-01,9.99999e-01,9.99999e-01,9.98947e-01,7.67853e-01,9.99999e-01
7.498661902e-01,7.71492e-01,9.99999e-01,9.99999e-01,9.99999e-01,9.99510e-01,7.71870e-01,9.99999e-01
7.536155211e-01,7.75642e-01,9.99999e-01,9.99999e-01,9.99999e-01,9.99759e-01,7.75828e-01,9.99999e-01
7.573835987e-01,7.79631e-01,9.99999e-01,9.99999e-01,9.99999e-01,9.99875e-01,7.79728e-01,9.99999e-01
7.611705167e-01,7.83509e-01,9.99999e-01,9.99999e-01,9.99999e-01,9.99922e-01,7.83569e-01,9.99999e-01
7.649763693e-01,7.87315e-01,9.99999e-01,9.99999e-01,9.99999e-01,9.99951e-01,7.87353e-01,9.99999e-01
7.688012511e-01,7.91053e-01,9.99999e-01,9.99999e-01,9.99999e-01,9.99965e-01,7.91080e-01,9.99999e-01
7.726452574e-01,7.94729e-01,9.99999e-01,9.99999e-01,9.99999e-01,9.99971e-01,7.94750e-01,9.99999e-01
7.765084837e-01,7.98334e-01,9.99999e-01,9.99999e-01,9.99999e-01,9.99960e-01,7.98365e-01,9.99999e-01
7.803910261e-01,7.92882e-01,9.99999e-01,9.99999e-01,9.88889e-01,9.99829e-01,8.01924e-01,9.99999e-01
7.842929812e-01,7.68087e-01,9.99999e-01,9.99999e-01,9.54194e-01,9.99407e-01,8.05428e-01,9.99998e-01
7.882144461e-01,7.68118e-01,9.99999e-01,9.99999e-01,9.50760e-01,9.98780e-01,8.08878e-01,9.99991e-01
7.921555184e-01,7.88664e-01,9.99999e-01,9.99999e-01,9.71591e-01,9.99331e-01,8.12274e-01,9.99984e-01
7.961162960e-01,7.99157e-01,9.99999e-01,9.99999e-01,9.80988e-01,9.98817e-01,8.15617e-01,9.99985e-01
8.000968774e-01,8.09319e-01,9.99999e-01,9.99999e-01,9.89655e-01,9.98634e-01,8.18907e-01,9.99984e-01
8.040973618e-01,8.16609e-01,9.99999e-01,9.99999e-01,9.94635e-01,9.98634e-01,8.22145e-01,9.99987e-01
8.081178486e-01,8.20751e-01,9.99999e-01,9.99999e-01,9.97533e-01,9.96917e-01,8.25331e-01,9.99988e-01
8.121584379e-01,8.17184e-01,9.99999e-01,9.99999e-01,9.99238e-01,9.87171e-01,8.28467e-01,9.99956e-01
8.162192301e-01,8.18631e-01,9.99999e-01,9.99999e-01,9.99831e-01,9.84785e-01,8.31552e-01,9.99837e-01
8.203003262e-01,8.28024e-01,9.99999e-01,9.99999e-01,9.99997e-01,9.92325e-01,8.34587e-01,9.99810e-01
8.244018279e-01,8.28469e-01,9.99999e-01,9.99999e-01,9.99999e-01,9.89278e-01,8.37573e-01,9.99848e-01
8.285238370e-01,8.32772e-01,9.99999e-01,9.99999e-01,9.99999e-01,9.90909e-01,8.40511e-01,9.99881e-01
8.326664562e-01,8.35607e-01,9.99999e-01,9.99999e-01,9.99999e-01,9.90807e-01,8.43400e-01,9.99950e-01
8.368297885e-01,8.40684e-01,9.99999e-01,9.99999e-01,9.99999e-01,9.93442e-01,8.46242e-01,9.99988e-01
8.410139374e-01,8.45724e-01,9.99999e-01,9.99999e-01,9.99999e-01,9.96102e-01,8.49038e-01,9.99992e-01
8.452190071e-01,8.50156e-01,9.99999e-01,9.99999e-01,9.99999e-01,9.98088e-01,8.51787e-01,9.99995e-01
8.494451021e-01,8.53540e-01,9.99999e-01,9.99999e-01,9.99999e-01,9.98890e-01,8.54490e-01,9.99996e-01
8.536923276e-01,8.56585e-01,9.99999e-01,9.99999e-01,9.99999e-01,9.99344e-01,8.57148e-01,9.99997e-01
8.579607893e-01,8.59414e-01,9.99999e-01,9.99999e-01,9.99999e-01,9.99595e-01,8.59762e-01,9.99999e-01
8.622505932e-01,8.62111e-01,9.99999e-01,9.99999e-01,9.99999e-01,9.99743e-01,8.62332e-01,9.99999e-01
8.665618462e-01,8.37205e-01,9.99999e-01,9.99999e-01,9.68175e-01,9.99840e-01,8.64858e-01,9.99999e-01
8.708946554e-01,7.67711e-01,9.99999e-01,9.99999e-01,8.85288e-01,9.99817e-01,8.67342e-01,9.99999e-01
8.752491287e-01,7.89756e-01,9.99999e-01,9.99999e-01,9.08209e-01,9.99756e-01,8.69784e-01,9.99999e-01
8.796253743e-01,8.27644e-01,9.99999e-01,9.99999e-01,9.49250e-01,9.99662e-01,8.72184e-01,9.99998e-01
8.840235012e-01,8.51075e-01,9.99999e-01,9.99999e-01,9.73539e-01,9.99614e-01,8.74543e-01,9.99997e-01
8.884436187e-01,8.66449e-01,9.99999e-01,9.99999e-01,9.89519e-01,9.98591e-01,8.76862e-01,9.99992e-01
8.928858368e-01,8.62426e-01,9.99999e-01,9.99999e-01,9.95745e-01,9.85204e-01,8.79141e-01,9.99961e-01
8.973502660e-01,8.57360e-01,9.99999e-01,9.99999e-01,9.98966e-01,9.73937e-01,8.81380e-01,9.99802e-01
9.018370173e-01,8.71389e-01,9.99999e-01,9.99999e-01,9.99885e-01,9.86617e-01,8.83581e-01,9.99690e-01
9.063462024e-01,8.72510e-01,9.99999e-01,9.99999e-01,9.97047e-01,9.88215e-01,8.85744e-01,9.99727e-01
9.108779334e-01,8.65534e-01,9.99999e-01,9.99999e-01,9.93287e-01,9.81683e-01,8.87869e-01,9.99717e-01
9.154323231e-01,8.69922e-01,9.99999e-01,9.99999e-01,9.98423e-01,9.79248e-01,8.89958e-01,9.99766e-01
9.200094847e-01,8.56661e-01,9.99999e-01,9.99999e-01,9.76141e-01,9.83695e-01,8.92009e-01,9.99868e-01
9.246095321e-01,8.42684e-01,9.99999e-01,9.99999e-01,9.67493e-01,9.74191e-01,8.94025e-01,9.99849e-01
9.292325798e-01,7.31426e-01,9.99999e-01,9.99999e-01,9.74229e-01,8.37559e-01,8.96005e-01,9.99412e-01
9.338787427e-01,6.94862e-01,9.99999e-01,9.99999e-01,9.75218e-01,7.94631e-01,8.97951e-01,9.97576e-01
9.385481364e-01,8.03631e-01,9.99999e-01,9.99999e-01,9.81788e-01,9.11923e-01,8.99862e-01,9.97118e-01
9.432408771e-01,7.80533e-01,9.99999e-01,9.99999e-01,9.88838e-01,8.77346e-01,9.01740e-01,9.97513e-01
9.479570815e-01,7.45621e-01,9.99999e-01,9.99999e-01,9.94259e-01,8.31530e-01,9.03584e-01,9.97975e-01
9.526968669e-01,7.87859e-01,9.99999e-01,9.99999e-01,9.97228e-01,8.73598e-01,9.05395e-01,9.98764e-01
9.574603512e-01,8.02701e-01,9.99999e-01,9.99999e-01,9.98814e-01,8.86419e-01,9.07174e-01,9.99372e-01
9.622476530e-01,8.23887e-01,9.99999e-01,9.99999e-01,9.99629e-01,9.07166e-01,9.08921e-01,9.99565e-01
9.670588912e-01,8.60715e-01,9.99999e-01,9.99999e-01,9.99888e-01,9.45562e-01,9.10638e-01,9.99702e-01
9.718941857e-01,8.80988e-01,9.99999e-01,9.99999e-01,9.99991e-01,9.65871e-01,9.12323e-01,9.99781e-01
9.767536566e-01,8.87876e-01,9.99999e-01,9.99999e-01,9.99999e-01,9.71603e-01,9.13978e-01,9.99832e-01
9.816374249e-01,8.96249e-01,9.99999e-01,9.99999e-01,9.99999e-01,9.78918e-01,9.15603e-01,9.99941e-01
9.865456120e-01,9.05075e-01,9.99999e-01,9.99999e-01,9.99999e-01,9.86792e-01,9.17199e-01,9.99987e-01
9.914783401e-01,9.11251e-01,9.99999e-01,9.99999e-01,9.99999e-01,9.91822e-01,9.18766e-01,9.99996e-01
9.964357318e-01,9.16199e-01,9.99999e-01,9.99999e-01,9.99999e-01,9.95539e-01,9.20305e-01,9.99997e-01
1.001417910e+00,9.19349e-01,9.99999e-01,9.99999e-01,9.99999e-01,9.97325e-01,9.21816e-01,9.99996e-01
1.006425000e+00,9.21888e-01,9.99999e-01,9.99999e-01,9.99999e-01,9.98474e-01,9.23300e-01,9.99995e-01
1.011457125e+00,9.23878e-01,9.99999e-01,9.99999e-01,9.99999e-01,9.99053e-01,9.24756e-01,9.99995e-01
1.016514411e+00,9.25589e-01,9.99999e-01,9.99999e-01,9.99999e-01,9.99357e-01,9.26186e-01,9.99996e-01
1.021596983e+00,9.27098e-01,9.99999e-01,9.99999e-01,9.99983e-01,9.99487e-01,9.27590e-01,9.99996e-01
1.026704968e+00,9.27531e-01,9.99999e-01,9.99999e-01,9.98853e-01,9.99600e-01,9.28968e-01,9.99997e-01
1.031838492e+00,9.12084e-01,9.99999e-01,9.99999e-01,9.80676e-01,9.99709e-01,9.30321e-01,9.99998e-01
1.036997685e+00,3.75629e-01,9.99999e-01,9.99999e-01,4.03248e-01,9.99827e-01,9.31649e-01,9.99999e-01
1.042182673e+00,4.69566e-01,9.99999e-01,9.99999e-01,5.03411e-01,9.99793e-01,9.32953e-01,9.99999e-01
1.047393587e+00,4.09976e-01,9.99999e-01,9.99999e-01,4.38947e-01,9.99726e-01,9.34233e-01,9.99999e-01
1.052630555e+00,1.19502e-01,9.99999e-01,9.99999e-01,1.27783e-01,9.99625e-01,9.35489e-01,9.99999e-01
1.057893707e+00,1.94459e-01,9.99999e-01,9.99999e-01,2.07705e-01,9.99374e-01,9.36722e-01,9.99999e-01
1.063183176e+00,3.03040e-01,9.99999e-01,9.99999e-01,3.23382e-01,9.98971e-01,9.37932e-01,9.99998e-01
1.068499092e+00,4.47533e-01,9.99999e-01,9.99999e-01,4.77318e-01,9.98277e-01,9.39120e-01,9.99998e-01
1.073841587e+00,5.88948e-01,9.99999e-01,9.99999e-01,6.27539e-01,9.97983e-01,9.40286e-01,9.99996e-01
