#,Wave/freq,Total,N2,O2,CO2,H2O,Rayleigh,CIA
4.000000000e-01,2.23982e-04,9.99999e-01,9.99999e-01,9.99999e-01,9.99983e-01,2.23986e-04,9.99999e-01
4.020000000e-01,2.64474e-04,9.99999e-01,9.99999e-01,9.99999e-01,9.99989e-01,2.64477e-04,9.99999e-01
4.040100000e-01,3.11209e-04,9.99999e-01,9.99999e-01,9.99999e-01,9.99995e-01,3.11211e-04,9.99999e-01
4.060300500e-01,3.65027e-04,9.99999e-01,9.99999e-01,9.99999e-01,9.99998e-01,3.65027e-04,9.99999e-01
4.080602003e-01,4.26803e-04,9.99999e-01,9.99999e-01,9.99999e-01,9.99999e-01,4.26804e-04,9.99999e-01
4.101005013e-01,4.97496e-04,9.99999e-01,9.99999e-01,9.99999e-01,9.99999e-01,4.97496e-04,9.99999e-01
4.121510038e-01,5.78144e-04,9.99999e-01,9.99999e-01,9.99999e-01,9.99998e-01,5.78144e-04,9.99999e-01
4.142117588e-01,6.69872e-04,9.99999e-01,9.99999e-01,9.99999e-01,9.99995e-01,6.69875e-04,9.99999e-01
4.162828176e-01,7.73891e-04,9.99999e-01,9.99999e-01,9.99999e-01,9.99979e-01,7.73906e-04,9.99999e-01
4.183642317e-01,8.91537e-04,9.99999e-01,9.99999e-01,9.99999e-01,9.99987e-01,8.91547e-04,9.99999e-01
4.204560528e-01,1.02420e-03,9.99999e-01,9.99999e-01,9.99999e-01,9.99992e-01,1.02420e-03,9.99999e-01
4.225583331e-01,1.17338e-03,9.99999e-01,9.99999e-01,9.99999e-01,9.99996e-01,1.17338e-03,9.99999e-01
4.246711247e-01,1.34068e-03,9.99999e-01,9.99999e-01,9.99999e-01,9.99997e-01,1.34068e-03,9.99999e-01
4.267944804e-01,1.52780e-03,9.99999e-01,9.99999e-01,9.99999e-01,9.99996e-01,1.52780e-03,9.99999e-01
4.289284528e-01,1.73655e-03,9.99999e-01,9.99999e-01,9.99999e-01,9.99997e-01,1.73656e-03,9.99999e-01
4.310730950e-01,1.96884e-03,9.99999e-01,9.99999e-01,9.99999e-01,9.99998e-01,1.96885e-03,9.99999e-01
4.332284605e-01,2.22668e-03,9.99999e-01,9.99999e-01,9.99999e-01,9.99999e-01,2.22668e-03,9.99999e-01
4.353946028e-01,2.51216e-03,9.99999e-01,9.99999e-01,9.99999e-01,9.99999e-01,2.51216e-03,9.99999e-01
4.375715758e-01,2.82750e-03,9.99999e-01,9.99999e-01,9.99999e-01,9.99997e-01,2.82751e-03,9.99999e-01
4.397594337e-01,3.17495e-03,9.99999e-01,9.99999e-01,9.99999e-01,9.99982e-01,3.17501e-03,9.99999e-01
4.419582309e-01,3.55675e-03,9.99999e-01,9.99999e-01,9.99999e-01,9.99911e-01,3.55706e-03,9.99999e-01
4.441680220e-01,3.97588e-03,9.99999e-01,9.99999e-01,9.99999e-01,9.99929e-01,3.97616e-03,9.99999e-01
4.463888621e-01,4.43454e-03,9.99999e-01,9.99999e-01,9.99999e-01,9.99926e-01,4.43486e-03,9.99999e-01
4.486208064e-01,4.93560e-03,9.99999e-01,9.99999e-01,9.99999e-01,9.99954e-01,4.93583e-03,9.99999e-01
4.508639105e-01,5.48167e-03,9.99999e-01,9.99999e-01,9.99999e-01,9.99978e-01,5.48178e-03,9.99999e-01
4.531182300e-01,6.07547e-03,9.99999e-01,9.99999e-01,9.99999e-01,9.99991e-01,6.07552e-03,9.99999e-01
4.553838212e-01,6.71987e-03,9.99999e-01,9.99999e-01,9.99999e-01,9.99993e-01,6.71991e-03,9.99999e-01
4.576607403e-01,7.41783e-03,9.99999e-01,9.99999e-01,9.99999e-01,9.99996e-01,7.41785e-03,9.99999e-01
4.599490440e-01,8.17231e-03,9.99999e-01,9.99999e-01,9.99999e-01,9.99997e-01,8.17232e-03,9.99999e-01
4.622487892e-01,8.98632e-03,9.99999e-01,9.99999e-01,9.99999e-01,9.99999e-01,8.98632e-03,9.99999e-01
4.645600332e-01,9.86287e-03,9.99999e-01,9.99999e-01,9.99999e-01,9.99998e-01,9.86288e-03,9.99999e-01
4.668828333e-01,1.08048e-02,9.99999e-01,9.99999e-01,9.99999e-01,9.99978e-01,1.08051e-02,9.99999e-01
4.692172475e-01,1.18154e-02,9.99999e-01,9.99999e-01,9.99999e-01,9.99953e-01,1.18159e-02,9.99999e-01
4.715633337e-01,1.28982e-02,9.99999e-01,9.99999e-01,9.99999e-01,9.99969e-01,1.28986e-02,9.99999e-01
4.739211504e-01,1.40556e-02,9.99999e-01,9.99999e-01,9.99999e-01,9.99970e-01,1.40560e-02,9.99999e-01
4.762907561e-01,1.52912e-02,9.99999e-01,9.99999e-01,9.99999e-01,9.99984e-01,1.52914e-02,9.99999e-01
4.786722099e-01,1.66076e-02,9.99999e-01,9.99999e-01,9.99999e-01,9.99993e-01,1.66077e-02,9.99999e-01
4.810655710e-01,1.80078e-02,9.99999e-01,9.99999e-01,9.99999e-01,9.99997e-01,1.80079e-02,9.99999e-01
4.834708988e-01,1.94946e-02,9.99999e-01,9.99999e-01,9.99999e-01,9.99982e-01,1.94949e-02,9.99999e-01
4.858882533e-01,2.10710e-02,9.99999e-01,9.99999e-01,9.99999e-01,9.99967e-01,2.10717e-02,9.99999e-01
4.883176946e-01,2.27404e-02,9.99999e-01,9.99999e-01,9.99999e-01,9.99972e-01,2.27410e-02,9.99999e-01
4.907592831e-01,2.45051e-02,9.99999e-01,9.99999e-01,9.99999e-01,9.99975e-01,2.45057e-02,9.99999e-01
4.932130795e-01,2.63679e-02,9.99999e-01,9.99999e-01,9.99999e-01,9.99982e-01,2.63684e-02,9.99999e-01
4.956791449e-01,2.83313e-02,9.99999e-01,9.99999e-01,9.99999e-01,9.99990e-01,2.83316e-02,9.99999e-01
4.981575406e-01,3.03964e-02,9.99999e-01,9.99999e-01,9.99999e-01,9.99953e-01,3.03978e-02,9.99999e-01
5.006483283e-01,3.25656e-02,9.99999e-01,9.99999e-01,9.99999e-01,9.99881e-01,3.25694e-02,9.99998e-01
5.031515699e-01,3.48275e-02,9.99999e-01,9.99999e-01,9.99999e-01,9.99399e-01,3.48486e-02,9.99993e-01
5.056673278e-01,3.72255e-02,9.99999e-01,9.99999e-01,9.99999e-01,9.99681e-01,3.72376e-02,9.99992e-01
5.081956644e-01,3.97221e-02,9.99999e-01,9.99999e-01,9.99999e-01,9.99598e-01,3.97382e-02,9.99994e-01
5.107366428e-01,4.23408e-02,9.99999e-01,9.99999e-01,9.99999e-01,9.99728e-01,4.23523e-02,9.99998e-01
5.132903260e-01,4.50746e-02,9.99999e-01,9.99999e-01,9.99999e-01,9.99844e-01,4.50816e-02,9.99999e-01
5.158567776e-01,4.79245e-02,9.99999e-01,9.99999e-01,9.99999e-01,9.99933e-01,4.79277e-02,9.99999e-01
5.184360615e-01,5.08905e-02,9.99999e-01,9.99999e-01,9.99999e-01,9.99973e-01,5.08918e-02,9.99999e-01
5.210282418e-01,5.39748e-02,9.99999e-01,9.99999e-01,9.99999e-01,9.99989e-01,5.39753e-02,9.99999e-01
5.236333830e-01,5.71768e-02,9.99999e-01,9.99999e-01,9.99999e-01,9.99960e-01,5.71791e-02,9.99999e-01
5.262515499e-01,6.05026e-02,9.99999e-01,9.99999e-01,9.99999e-01,9.99974e-01,6.05041e-02,9.99999e-01
5.288828077e-01,6.39496e-02,9.99999e-01,9.99999e-01,9.99999e-01,9.99977e-01,6.39510e-02,9.99999e-01
5.315272217e-01,6.75191e-02,9.99999e-01,9.99999e-01,9.99999e-01,9.99979e-01,6.75204e-02,9.99999e-01
5.341848578e-01,7.12116e-02,9.99999e-01,9.99999e-01,9.99999e-01,9.99986e-01,7.12126e-02,9.99999e-01
5.368557821e-01,7.50243e-02,9.99999e-01,9.99999e-01,9.99999e-01,9.99954e-01,7.50277e-02,9.99999e-01
5.395400610e-01,7.89527e-02,9.99999e-01,9.99999e-01,9.99999e-01,9.99836e-01,7.89657e-02,9.99998e-01
5.422377613e-01,8.30085e-02,9.99999e-01,9.99999e-01,9.99999e-01,9.99786e-01,8.30265e-02,9.99995e-01
5.449489501e-01,8.71922e-02,9.99999e-01,9.99999e-01,9.99999e-01,9.99802e-01,8.72097e-02,9.99995e-01
5.476736949e-01,9.14986e-02,9.99999e-01,9.99999e-01,9.99999e-01,9.99823e-01,9.15148e-02,9.99997e-01
5.504120634e-01,9.59288e-02,9.99999e-01,9.99999e-01,9.99999e-01,9.99871e-01,9.59411e-02,9.99998e-01
5.531641237e-01,1.00481e-01,9.99999e-01,9.99999e-01,9.99999e-01,9.99935e-01,1.00488e-01,9.99999e-01
5.559299443e-01,1.05150e-01,9.99999e-01,9.99999e-01,9.99999e-01,9.99968e-01,1.05153e-01,9.99999e-01
5.587095940e-01,1.09935e-01,9.99999e-01,9.99999e-01,9.99999e-01,9.99980e-01,1.09937e-01,9.99999e-01
5.615031420e-01,1.14835e-01,9.99999e-01,9.99999e-01,9.99999e-01,9.99977e-01,1.14838e-01,9.99999e-01
5.643106577e-01,1.19850e-01,9.99999e-01,9.99999e-01,9.99999e-01,9.99975e-01,1.19853e-01,9.99999e-01
5.671322110e-01,1.24946e-01,9.99999e-01,9.99999e-01,9.99999e-01,9.99706e-01,1.24982e-01,9.99996e-01
5.699678720e-01,1.30181e-01,9.99999e-01,9.99999e-01,9.99999e-01,9.99681e-01,1.30223e-01,9.99991e-01
5.728177114e-01,1.35528e-01,9.99999e-01,9.99999e-01,9.99999e-01,9.99670e-01,1.35574e-01,9.99992e-01
5.756818000e-01,1.40989e-01,9.99999e-01,9.99999e-01,9.99999e-01,9.99697e-01,1.41032e-01,9.99995e-01
5.785602090e-01,1.46557e-01,9.99999e-01,9.99999e-01,9.99999e-01,9.99735e-01,1.46595e-01,9.99998e-01
5.814530100e-01,1.52222e-01,9.99999e-01,9.99999e-01,9.99999e-01,9.99735e-01,1.52262e-01,9.99998e-01
5.843602750e-01,1.57979e-01,9.99999e-01,9.99999e-01,9.99999e-01,9.99686e-01,1.58029e-01,9.99997e-01
5.872820764e-01,1.63448e-01,9.99999e-01,9.99999e-01,9.99999e-01,9.97296e-01,1.63894e-01,9.99980e-01
5.902184868e-01,1.69286e-01,9.99999e-01,9.99999e-01,9.99999e-01,9.96701e-01,1.69855e-01,9.99947e-01
5.931695792e-01,1.75490e-01,9.99999e-01,9.99999e-01,9.99999e-01,9.97674e-01,1.75908e-01,9.99948e-01
5.961354271e-01,1.81581e-01,9.99999e-01,9.99999e-01,9.99999e-01,9.97446e-01,1.82051e-01,9.99968e-01
5.991161043e-01,1.87929e-01,9.99999e-01,9.99999e-01,9.99999e-01,9.98136e-01,1.88281e-01,9.99990e-01
6.021116848e-01,1.94389e-01,9.99999e-01,9.99999e-01,9.99999e-01,9.98940e-01,1.94595e-01,9.99998e-01
6.051222432e-01,2.00881e-01,9.99999e-01,9.99999e-01,9.99999e-01,9.99463e-01,2.00989e-01,9.99999e-01
6.081478544e-01,2.07413e-01,9.99999e-01,9.99999e-01,9.99999e-01,9.99768e-01,2.07461e-01,9.99999e-01
6.111885937e-01,2.13986e-01,9.99999e-01,9.99999e-01,9.99999e-01,9.99901e-01,2.14007e-01,9.99999e-01
6.142445367e-01,2.20615e-01,9.99999e-01,9.99999e-01,9.99999e-01,9.99955e-01,2.20625e-01,9.99999e-01
6.173157594e-01,2.27305e-01,9.99999e-01,9.99999e-01,9.99999e-01,9.99975e-01,2.27310e-01,9.99999e-01
6.204023382e-01,2.34055e-01,9.99999e-01,9.99999e-01,9.99999e-01,9.99979e-01,2.34060e-01,9.99999e-01
6.235043498e-01,2.40850e-01,9.99999e-01,9.99999e-01,9.99999e-01,9.99911e-01,2.40871e-01,9.99999e-01
6.266218716e-01,2.47622e-01,9.99999e-01,9.99999e-01,9.99999e-01,9.99526e-01,2.47740e-01,9.99996e-01
6.297549810e-01,2.54617e-01,9.99999e-01,9.99999e-01,9.99999e-01,9.99825e-01,2.54663e-01,9.99992e-01
6.329037559e-01,2.61546e-01,9.99999e-01,9.99999e-01,9.99999e-01,9.99655e-01,2.61637e-01,9.99994e-01
6.360682746e-01,2.68580e-01,9.99999e-01,9.99999e-01,9.99999e-01,9.99707e-01,2.68659e-01,9.99996e-01
6.392486160e-01,2.75620e-01,9.99999e-01,9.99999e-01,9.99999e-01,9.99620e-01,2.75725e-01,9.99998e-01
6.424448591e-01,2.82689e-01,9.99999e-01,9.99999e-01,9.99999e-01,9.99495e-01,2.82832e-01,9.99997e-01
6.456570834e-01,2.89294e-01,9.99999e-01,9.99999e-01,9.99999e-01,9.97660e-01,2.89976e-01,9.99986e-01
6.488853688e-01,2.96541e-01,9.99999e-01,9.99999e-01,9.99999e-01,9.97974e-01,2.97154e-01,9.99963e-01
6.521297956e-01,3.03817e-01,9.99999e-01,9.99999e-01,9.99999e-01,9.98238e-01,3.04363e-01,9.99968e-01
6.553904446e-01,3.11050e-01,9.99999e-01,9.99999e-01,9.99999e-01,9.98260e-01,3.11599e-01,9.99976e-01
6.586673968e-01,3.18377e-01,9.99999e-01,9.99999e-01,9.99999e-01,9.98497e-01,3.18859e-01,9.99992e-01
6.619607338e-01,3.25856e-01,9.99999e-01,9.99999e-01,9.99999e-01,9.99131e-01,3.26140e-01,9.99997e-01
6.652705375e-01,3.33270e-01,9.99999e-01,9.99999e-01,9.99999e-01,9.99495e-01,3.33438e-01,9.99998e-01
6.685968902e-01,3.40671e-01,9.99999e-01,9.99999e-01,9.99999e-01,9.99765e-01,3.40751e-01,9.99999e-01
6.719398746e-01,3.48037e-01,9.99999e-01,9.99999e-01,9.99999e-01,9.99891e-01,3.48075e-01,9.99999e-01
6.752995740e-01,3.55386e-01,9.99999e-01,9.99999e-01,9.99999e-01,9.99941e-01,3.55406e-01,9.99999e-01
6.786760719e-01,3.62713e-01,9.99999e-01,9.99999e-01,9.99999e-01,9.99915e-01,3.62743e-01,9.99999e-01
6.820694522e-01,3.70029e-01,9.99999e-01,9.99999e-01,9.99999e-01,9.99855e-01,3.70083e-01,9.99998e-01
6.854797995e-01,3.77350e-01,9.99999e-01,9.99999e-01,9.99999e-01,9.99813e-01,3.77421e-01,9.99997e-01
6.889071985e-01,3.84583e-01,9.99999e-01,9.99999e-01,9.99999e-01,9.99554e-01,3.84755e-01,9.99995e-01
6.923517345e-01,3.89199e-01,9.99999e-01,9.99999e-01,9.99999e-01,9.92679e-01,3.92083e-01,9.99964e-01
6.958134932e-01,3.97823e-01,9.99999e-01,9.99999e-01,9.99999e-01,9.96125e-01,3.99402e-01,9.99919e-01
6.992925606e-01,4.05207e-01,9.99999e-01,9.99999e-01,9.99999e-01,9.96378e-01,4.06708e-01,9.99929e-01
7.027890234e-01,4.12116e-01,9.99999e-01,9.99999e-01,9.99999e-01,9.95500e-01,4.14000e-01,9.99945e-01
7.063029686e-01,4.19672e-01,9.99999e-01,9.99999e-01,9.99999e-01,9.96220e-01,4.21275e-01,9.99972e-01
7.098344834e-01,4.26970e-01,9.99999e-01,9.99999e-01,9.99999e-01,9.96373e-01,4.28530e-01,9.99983e-01
7.133836558e-01,4.33665e-01,9.99999e-01,9.99999e-01,9.99999e-01,9.95215e-01,4.35764e-01,9.99968e-01
7.169505741e-01,4.25961e-01,9.99999e-01,9.99999e-01,9.99999e-01,9.61835e-01,4.42972e-01,9.99752e-01
7.205353270e-01,4.41357e-01,9.99999e-01,9.99999e-01,9.99999e-01,9.80885e-01,4.50154e-01,9.99562e-01
7.241380036e-01,4.46202e-01,9.99999e-01,9.99999e-01,9.99999e-01,9.76082e-01,4.57308e-01,9.99622e-01
7.277586936e-01,4.54247e-01,9.99999e-01,9.99999e-01,9.99999e-01,9.78375e-01,4.64430e-01,9.99691e-01
7.313974871e-01,4.60570e-01,9.99999e-01,9.99999e-01,9.99999e-01,9.76919e-01,4.71519e-01,9.99855e-01
7.350544745e-01,4.72498e-01,9.99999e-01,9.99999e-01,9.99999e-01,9.87354e-01,4.78573e-01,9.99949e-01
7.387297469e-01,4.81054e-01,9.99999e-01,9.99999e-01,9.99999e-01,9.90679e-01,4.85591e-01,9.99976e-01
7.424233956e-01,4.90313e-01,9.99999e-01,9.99999e-01,9.99999e-01,9.95422e-01,4.92569e-01,9.99995e-01
7.461355126e-01,4.98123e-01,9.99999e-01,9.99999e-01,9.99999e-01,9.97228e-01,4.99507e-01,9.99998e-01
7.498661902e-01,5.05748e-01,9.99999e-01,9.99999e-01,9.99999e-01,9.98706e-01,5.06403e-01,9.99999e-01
7.536155211e-01,5.12930e-01,9.99999e-01,9.99999e-01,9.99999e-01,9.99366e-01,5.13255e-01,9.99999e-01
7.573835987e-01,5.19892e-01,9.99999e-01,9.99999e-01,9.99999e-01,9.99673e-01,5.20062e-01,9.99999e-01
7.611705167e-01,5.26715e-01,9.99999e-01,9.99999e-01,9.99999e-01,9.99797e-01,5.26821e-01,9.99999e-01
7.649763693e-01,5.33465e-01,9.99999e-01,9.99999e-01,9.99999e-01,9.99872e-01,5.33533e-01,9.99999e-01
7.688012511e-01,5.40147e-01,9.99999e-01,9.99999e-01,9.99999e-01,9.99911e-01,5.40195e-01,9.99999e-01
7.726452574e-01,5.46766e-01,9.99999e-01,9.99999e-01,9.99999e-01,9.99927e-01,5.46806e-01,9.99999e-01
7.765084837e-01,5.53308e-01,9.99999e-01,9.99999e-01,9.99999e-01,9.99897e-01,5.53365e-01,9.99999e-01
7.803910261e-01,5.44757e-01,9.99999e-01,9.99999e-01,9.73423e-01,9.99557e-01,5.59871e-01,9.99999e-01
7.842929812e-01,5.00641e-01,9.99999e-01,9.99999e-01,8.85336e-01,9.98456e-01,5.66322e-01,9.99996e-01
7.882144461e-01,5.01375e-01,9.99999e-01,9.99999e-01,8.78166e-01,9.96799e-01,5.72719e-01,9.99979e-01
7.921555184e-01,5.36127e-01,9.99999e-01,9.99999e-01,9.27498e-01,9.98236e-01,5.79059e-01,9.99961e-01
7.961162960e-01,5.54722e-01,9.99999e-01,9.99999e-01,9.50635e-01,9.96912e-01,5.85342e-01,9.99963e-01
8.000968774e-01,5.73503e-01,9.99999e-01,9.99999e-01,9.72978e-01,9.96418e-01,5.91567e-01,9.99960e-01
8.040973618e-01,5.87164e-01,9.99999e-01,9.99999e-01,9.85869e-01,9.96421e-01,5.97733e-01,9.99968e-01
8.081178486e-01,5.95103e-01,9.99999e-01,9.99999e-01,9.93512e-01,9.91986e-01,6.03840e-01,9.99970e-01
8.121584379e-01,5.88447e-01,9.99999e-01,9.99999e-01,9.97978e-01,9.66893e-01,6.09886e-01,9.99886e-01
8.162192301e-01,5.91027e-01,9.99999e-01,9.99999e-01,9.99553e-01,9.60487e-01,6.15873e-01,9.99574e-01
8.203003262e-01,6.09266e-01,9.99999e-01,9.99999e-01,9.99992e-01,9.80340e-01,6.21797e-01,9.99502e-01
8.244018279e-01,6.09869e-01,9.99999e-01,9.99999e-01,9.99999e-01,9.72038e-01,6.27661e-01,9.99603e-01
8.285238370e-01,6.18306e-01,9.99999e-01,9.99999e-01,9.99999e-01,9.76378e-01,6.33462e-01,9.99688e-01
8.326664562e-01,6.23804e-01,9.99999e-01,9.99999e-01,9.99999e-01,9.76038e-01,6.39200e-01,9.99870e-01
8.368297885e-01,6.33781e-01,9.99999e-01,9.99999e-01,9.99999e-01,9.82823e-01,6.44876e-01,9.99970e-01
8.410139374e-01,6.43817e-01,9.99999e-01,9.99999e-01,9.99999e-01,9.89761e-01,6.50488e-01,9.99982e-01
8.452190071e-01,6.52727e-01,9.99999e-01,9.99999e-01,9.99999e-01,9.94965e-01,6.56037e-01,9.99989e-01
8.494451021e-01,6.59589e-01,9.99999e-01,9.99999e-01,9.99999e-01,9.97085e-01,6.61522e-01,9.99991e-01
8.536923276e-01,6.65787e-01,9.99999e-01,9.99999e-01,9.99999e-01,9.98271e-01,6.66943e-01,9.99994e-01
8.579607893e-01,6.71586e-01,9.99999e-01,9.99999e-01,9.99999e-01,9.98937e-01,6.72301e-01,9.99998e-01
8.622505932e-01,6.77136e-01,9.99999e-01,9.99999e-01,9.99999e-01,9.99323e-01,6.77594e-01,9.99999e-01
8.665618462e-01,6.39543e-01,9.99999e-01,9.99999e-01,9.36992e-01,9.99582e-01,6.82824e-01,9.99999e-01
8.708946554e-01,5.04465e-01,9.99999e-01,9.99999e-01,7.33585e-01,9.99523e-01,6.87989e-01,9.99999e-01
8.752491287e-01,5.39891e-01,9.99999e-01,9.99999e-01,7.79447e-01,9.99361e-01,6.93090e-01,9.99998e-01
8.796253743e-01,6.08559e-01,9.99999e-01,9.99999e-01,8.72455e-01,9.99118e-01,6.98127e-01,9.99997e-01
8.840235012e-01,6.54535e-01,9.99999e-01,9.99999e-01,9.31860e-01,9.98992e-01,7.03100e-01,9.99993e-01
8.884436187e-01,6.86056e-01,9.99999e-01,9.99999e-01,9.72508e-01,9.96374e-01,7.08009e-01,9.99982e-01
8.928858368e-01,6.78066e-01,9.99999e-01,9.99999e-01,9.88801e-01,9.61993e-01,7.12854e-01,9.99898e-01
8.973502660e-01,6.67539e-01,9.99999e-01,9.99999e-01,9.97255e-01,9.33191e-01,7.17636e-01,9.99482e-01
9.018370173e-01,6.96387e-01,9.99999e-01,9.99999e-01,9.99696e-01,9.65120e-01,7.22355e-01,9.99187e-01
9.063462024e-01,6.99235e-01,9.99999e-01,9.99999e-01,9.92427e-01,9.69640e-01,7.27010e-01,9.99285e-01
9.108779334e-01,6.84456e-01,9.99999e-01,9.99999e-01,9.82403e-01,9.52853e-01,7.31603e-01,9.99258e-01
9.154323231e-01,6.93500e-01,9.99999e-01,9.99999e-01,9.95812e-01,9.46557e-01,7.36133e-01,9.99386e-01
9.200094847e-01,6.68616e-01,9.99999e-01,9.99999e-01,9.41177e-01,9.57796e-01,7.40601e-01,9.99656e-01
9.246095321e-01,6.39516e-01,9.99999e-01,9.99999e-01,9.16779e-01,9.35512e-01,7.45007e-01,9.99604e-01
9.292325798e-01,4.47855e-01,9.99999e-01,9.99999e-01,9.34579e-01,6.36702e-01,7.49351e-01,9.98458e-01
9.338787427e-01,3.92023e-01,9.99999e-01,9.99999e-01,9.36278e-01,5.55823e-01,7.53635e-01,9.93645e-01
9.385481364e-01,5.66829e-01,9.99999e-01,9.99999e-01,9.52828e-01,7.89107e-01,7.57857e-01,9.92447e-01
9.432408771e-01,5.30028e-01,9.99999e-01,9.99999e-01,9.70798e-01,7.20208e-01,7.62019e-01,9.93480e-01
9.479570815e-01,4.77342e-01,9.99999e-01,9.99999e-01,9.84948e-01,6.35527e-01,7.66120e-01,9.94690e-01
9.526968669e-01,5.42126e-01,9.99999e-01,9.99999e-01,9.92703e-01,7.10997e-01,7.70163e-01,9.96758e-01
9.574603512e-01,5.64236e-01,9.99999e-01,9.99999e-01,9.96872e-01,7.32218e-01,7.74146e-01,9.98351e-01
9.622476530e-01,6.02374e-01,9.99999e-01,9.99999e-01,9.99022e-01,7.75794e-01,7.78070e-01,9.98859e-01
9.670588912e-01,6.74982e-01,9.99999e-01,9.99999e-01,9.99706e-01,8.64135e-01,7.81936e-01,9.99219e-01
9.718941857e-01,7.16967e-01,9.99999e-01,9.99999e-01,9.99978e-01,9.13009e-01,7.85745e-01,9.99425e-01
9.767536566e-01,7.31756e-01,9.99999e-01,9.99999e-01,9.99999e-01,9.27271e-01,7.89496e-01,9.99560e-01
9.816374249e-01,7.49853e-01,9.99999e-01,9.99999e-01,9.99999e-01,9.45505e-01,7.93191e-01,9.99847e-01
9.865456120e-01,7.69397e-01,9.99999e-01,9.99999e-01,9.99999e-01,9.65603e-01,7.96829e-01,9.99967e-01
9.914783401e-01,7.83290e-01,9.99999e-01,9.99999e-01,9.99999e-01,9.78617e-01,8.00412e-01,9.99990e-01
9.964357318e-01,7.94528e-01,9.99999e-01,9.99999e-01,9.99999e-01,9.88297e-01,8.03939e-01,9.99994e-01
1.001417910e+00,8.01730e-01,9.99999e-01,9.99999e-01,9.99999e-01,9.92970e-01,8.07412e-01,9.99991e-01
1.006425000e+00,8.07574e-01,9.99999e-01,9.99999e-01,9.99999e-01,9.95994e-01,8.10831e-01,9.99988e-01
1.011457125e+00,8.12159e-01,9.99999e-01,9.99999e-01,9.99999e-01,9.97507e-01,8.14196e-01,9.99989e-01
1.016514411e+00,8.16121e-01,9.99999e-01,9.99999e-01,9.99999e-01,9.98309e-01,8.17509e-01,9.99992e-01
1.021596983e+00,8.19628e-01,9.99999e-01,9.99999e-01,9.99962e-01,9.98653e-01,8.20769e-01,9.99992e-01
1.026704968e+00,8.20686e-01,9.99999e-01,9.99999e-01,9.97054e-01,9.98949e-01,8.23977e-01,9.99994e-01
1.031838492e+00,7.97099e-01,9.99999e-01,9.99999e-01,9.64406e-01,9.99235e-01,8.27135e-01,9.99998e-01
1.036997685e+00,1.56833e-01,9.99999e-01,9.99999e-01,1.88969e-01,9.99546e-01,8.30241e-01,9.99999e-01
1.042182673e+00,1.48306e-01,9.99999e-01,9.99999e-01,1.78061e-01,9.99460e-01,8.33298e-01,9.99999e-01
1.047393587e+00,1.61396e-01,9.99999e-01,9.99999e-01,1.93111e-01,9.99284e-01,8.36305e-01,9.99999e-01
1.052630555e+00,8.41388e-03,9.99999e-01,9.99999e-01,1.00327e-02,9.99018e-01,8.39263e-01,9.99999e-01
1.057893707e+00,1.90884e-02,9.99999e-01,9.99999e-01,2.26919e-02,9.98364e-01,8.42173e-01,9.99998e-01
1.063183176e+00,5.26094e-02,9.99999e-01,9.99999e-01,6.23825e-02,9.97306e-01,8.45035e-01,9.99998e-01
1.068499092e+00,1.26479e-01,9.99999e-01,9.99999e-01,1.49761e-01,9.95488e-01,8.47850e-01,9.99996e-01
1.073841587e+00,2.54620e-01,9.99999e-01,9.99999e-01,3.00717e-01,9.94727e-01,8.50619e-01,9.99992e-01
