#,Wave/freq,Total,N2,O2,CO2,H2O,Rayleigh,CIA
4.000000000e-01,1.35441e-06,9.99999e-01,9.99999e-01,9.99999e-01,9.99973e-01,1.35445e-06,9.99999e-01
4.020000000e-01,1.76924e-06,9.99999e-01,9.99999e-01,9.99999e-01,9.99983e-01,1.76927e-06,9.99999e-01
4.040100000e-01,2.29833e-06,9.99999e-01,9.99999e-01,9.99999e-01,9.99992e-01,2.29834e-06,9.99999e-01
4.060300500e-01,2.97023e-06,9.99999e-01,9.99999e-01,9.99999e-01,9.99997e-01,2.97024e-06,9.99999e-01
4.080602003e-01,3.81915e-06,9.99999e-01,9.99999e-01,9.99999e-01,9.99998e-01,3.81915e-06,9.99999e-01
4.101005013e-01,4.88637e-06,9.99999e-01,9.99999e-01,9.99999e-01,9.99999e-01,4.88637e-06,9.99999e-01
4.121510038e-01,6.22145e-06,9.99999e-01,9.99999e-01,9.99999e-01,9.99998e-01,6.22146e-06,9.99999e-01
4.142117588e-01,7.88357e-06,9.99999e-01,9.99999e-01,9.99999e-01,9.99992e-01,7.88362e-06,9.99999e-01
4.162828176e-01,9.94292e-06,9.99999e-01,9.99999e-01,9.99999e-01,9.99967e-01,9.94325e-06,9.99999e-01
4.183642317e-01,1.24833e-05,9.99999e-01,9.99999e-01,9.99999e-01,9.99980e-01,1.24836e-05,9.99999e-01
4.204560528e-01,1.56025e-05,9.99999e-01,9.99999e-01,9.99999e-01,9.99987e-01,1.56027e-05,9.99999e-01
4.225583331e-01,1.94153e-05,9.99999e-01,9.99999e-01,9.99999e-01,9.99995e-01,1.94153e-05,9.99999e-01
4.246711247e-01,2.40555e-05,9.99999e-01,9.99999e-01,9.99999e-01,9.99996e-01,2.40556e-05,9.99999e-01
4.267944804e-01,2.96788e-05,9.99999e-01,9.99999e-01,9.99999e-01,9.99994e-01,2.96789e-05,9.99999e-01
4.289284528e-01,3.64651e-05,9.99999e-01,9.99999e-01,9.99999e-01,9.99995e-01,3.64652e-05,9.99999e-01
4.310730950e-01,4.46213e-05,9.99999e-01,9.99999e-01,9.99999e-01,9.99997e-01,4.46213e-05,9.99999e-01
4.332284605e-01,5.43844e-05,9.99999e-01,9.99999e-01,9.99999e-01,9.99999e-01,5.43845e-05,9.99999e-01
4.353946028e-01,6.60252e-05,9.99999e-01,9.99999e-01,9.99999e-01,9.99999e-01,6.60252e-05,9.99999e-01
4.375715758e-01,7.98508e-05,9.99999e-01,9.99999e-01,9.99999e-01,9.99996e-01,7.98511e-05,9.99999e-01
4.397594337e-01,9.62075e-05,9.99999e-01,9.99999e-01,9.99999e-01,9.99971e-01,9.62102e-05,9.99999e-01
4.419582309e-01,1.15478e-04,9.99999e-01,9.99999e-01,9.99999e-01,9.99856e-01,1.15495e-04,9.99999e-01
4.441680220e-01,1.38130e-04,9.99999e-01,9.99999e-01,9.99999e-01,9.99887e-01,1.38145e-04,9.99999e-01
4.463888621e-01,1.64636e-04,9.99999e-01,9.99999e-01,9.99999e-01,9.99882e-01,1.64655e-04,9.99999e-01
4.486208064e-01,1.95558e-04,9.99999e-01,9.99999e-01,9.99999e-01,9.99926e-01,1.95572e-04,9.99999e-01
4.508639105e-01,2.31498e-04,9.99999e-01,9.99999e-01,9.99999e-01,9.99965e-01,2.31506e-04,9.99999e-01
4.531182300e-01,2.73127e-04,9.99999e-01,9.99999e-01,9.99999e-01,9.99986e-01,2.73131e-04,9.99999e-01
4.553838212e-01,3.21187e-04,9.99999e-01,9.99999e-01,9.99999e-01,9.99990e-01,3.21190e-04,9.99999e-01
4.576607403e-01,3.76496e-04,9.99999e-01,9.99999e-01,9.99999e-01,9.99995e-01,3.76497e-04,9.99999e-01
4.599490440e-01,4.39944e-04,9.99999e-01,9.99999e-01,9.99999e-01,9.99996e-01,4.39946e-04,9.99999e-01
4.622487892e-01,5.12507e-04,9.99999e-01,9.99999e-01,9.99999e-01,9.99998e-01,5.12507e-04,9.99999e-01
4.645600332e-01,5.95238e-04,9.99999e-01,9.99999e-01,9.99999e-01,9.99997e-01,5.95239e-04,9.99999e-01
4.668828333e-01,6.89262e-04,9.99999e-01,9.99999e-01,9.99999e-01,9.99965e-01,6.89286e-04,9.99999e-01
4.692172475e-01,7.95824e-04,9.99999e-01,9.99999e-01,9.99999e-01,9.99926e-01,7.95882e-04,9.99999e-01
4.715633337e-01,9.16313e-04,9.99999e-01,9.99999e-01,9.99999e-01,9.99951e-01,9.16357e-04,9.99999e-01
4.739211504e-01,1.05209e-03,9.99999e-01,9.99999e-01,9.99999e-01,9.99953e-01,1.05214e-03,9.99999e-01
4.762907561e-01,1.20471e-03,9.99999e-01,9.99999e-01,9.99999e-01,9.99975e-01,1.20474e-03,9.99999e-01
4.786722099e-01,1.37578e-03,9.99999e-01,9.99999e-01,9.99999e-01,9.99989e-01,1.37579e-03,9.99999e-01
4.810655710e-01,1.56701e-03,9.99999e-01,9.99999e-01,9.99999e-01,9.99996e-01,1.56702e-03,9.99999e-01
4.834708988e-01,1.78019e-03,9.99999e-01,9.99999e-01,9.99999e-01,9.99971e-01,1.78024e-03,9.99999e-01
4.858882533e-01,2.01727e-03,9.99999e-01,9.99999e-01,9.99999e-01,9.99947e-01,2.01738e-03,9.99999e-01
4.883176946e-01,2.28037e-03,9.99999e-01,9.99999e-01,9.99999e-01,9.99956e-01,2.28047e-03,9.99999e-01
4.907592831e-01,2.57154e-03,9.99999e-01,9.99999e-01,9.99999e-01,9.99960e-01,2.57164e-03,9.99999e-01
4.932130795e-01,2.89303e-03,9.99999e-01,9.99999e-01,9.99999e-01,9.99971e-01,2.89311e-03,9.99999e-01
4.956791449e-01,3.24715e-03,9.99999e-01,9.99999e-01,9.99999e-01,9.99984e-01,3.24720e-03,9.99999e-01
4.981575406e-01,3.63606e-03,9.99999e-01,9.99999e-01,9.99999e-01,9.99926e-01,3.63633e-03,9.99999e-01
5.006483283e-01,4.06222e-03,9.99999e-01,9.99999e-01,9.99999e-01,9.99809e-01,4.06299e-03,9.99998e-01
5.031515699e-01,4.52536e-03,9.99999e-01,9.99999e-01,9.99999e-01,9.99033e-01,4.52978e-03,9.99989e-01
5.056673278e-01,5.03673e-03,9.99999e-01,9.99999e-01,9.99999e-01,9.99489e-01,5.03936e-03,9.99987e-01
5.081956644e-01,5.59083e-03,9.99999e-01,9.99999e-01,9.99999e-01,9.99355e-01,5.59447e-03,9.99992e-01
5.107366428e-01,6.19522e-03,9.99999e-01,9.99999e-01,9.99999e-01,9.99564e-01,6.19793e-03,9.99998e-01
5.132903260e-01,6.85089e-03,9.99999e-01,9.99999e-01,9.99999e-01,9.99750e-01,6.85260e-03,9.99999e-01
5.158567776e-01,7.56061e-03,9.99999e-01,9.99999e-01,9.99999e-01,9.99894e-01,7.56140e-03,9.99999e-01
5.184360615e-01,8.32697e-03,9.99999e-01,9.99999e-01,9.99999e-01,9.99957e-01,8.32732e-03,9.99999e-01
5.210282418e-01,9.15321e-03,9.99999e-01,9.99999e-01,9.99999e-01,9.99983e-01,9.15336e-03,9.99999e-01
5.236333830e-01,1.00419e-02,9.99999e-01,9.99999e-01,9.99999e-01,9.99936e-01,1.00426e-02,9.99999e-01
5.262515499e-01,1.09975e-02,9.99999e-01,9.99999e-01,9.99999e-01,9.99960e-01,1.09980e-02,9.99998e-01
5.288828077e-01,1.20223e-02,9.99999e-01,9.99999e-01,9.99999e-01,9.99963e-01,1.20227e-02,9.99999e-01
5.315272217e-01,1.31194e-02,9.99999e-01,9.99999e-01,9.99999e-01,9.99967e-01,1.31198e-02,9.99999e-01
5.341848578e-01,1.42920e-02,9.99999e-01,9.99999e-01,9.99999e-01,9.99978e-01,1.42923e-02,9.99999e-01
5.368557821e-01,1.55422e-02,9.99999e-01,9.99999e-01,9.99999e-01,9.99926e-01,1.55433e-02,9.99999e-01
5.395400610e-01,1.68713e-02,9.99999e-01,9.99999e-01,9.99999e-01,9.99736e-01,1.68758e-02,9.99997e-01
5.422377613e-01,1.82864e-02,9.99999e-01,9.99999e-01,9.99999e-01,9.99657e-01,1.82928e-02,9.99993e-01
5.449489501e-01,1.97908e-02,9.99999e-01,9.99999e-01,9.99999e-01,9.99682e-01,1.97973e-02,9.99993e-01
5.476736949e-01,2.13859e-02,9.99999e-01,9.99999e-01,9.99999e-01,9.99717e-01,2.13920e-02,9.99996e-01
5.504120634e-01,2.30751e-02,9.99999e-01,9.99999e-01,9.99999e-01,9.99794e-01,2.30798e-02,9.99998e-01
5.531641237e-01,2.48610e-02,9.99999e-01,9.99999e-01,9.99999e-01,9.99896e-01,2.48635e-02,9.99999e-01
5.559299443e-01,2.67444e-02,9.99999e-01,9.99999e-01,9.99999e-01,9.99949e-01,2.67457e-02,9.99999e-01
5.587095940e-01,2.87281e-02,9.99999e-01,9.99999e-01,9.99999e-01,9.99968e-01,2.87290e-02,9.99999e-01
5.615031420e-01,3.08146e-02,9.99999e-01,9.99999e-01,9.99999e-01,9.99964e-01,3.08157e-02,9.99999e-01
5.643106577e-01,3.30070e-02,9.99999e-01,9.99999e-01,9.99999e-01,9.99960e-01,3.30083e-02,9.99999e-01
5.671322110e-01,3.52920e-02,9.99999e-01,9.99999e-01,9.99999e-01,9.99525e-01,3.53089e-02,9.99995e-01
5.699678720e-01,3.76998e-02,9.99999e-01,9.99999e-01,9.99999e-01,9.99489e-01,3.77195e-02,9.99986e-01
5.728177114e-01,4.02206e-02,9.99999e-01,9.99999e-01,9.99999e-01,9.99470e-01,4.02423e-02,9.99988e-01
5.756818000e-01,4.28578e-02,9.99999e-01,9.99999e-01,9.99999e-01,9.99513e-01,4.28789e-02,9.99992e-01
5.785602090e-01,4.56116e-02,9.99999e-01,9.99999e-01,9.99999e-01,9.99575e-01,4.56310e-02,9.99997e-01
5.814530100e-01,4.84795e-02,9.99999e-01,9.99999e-01,9.99999e-01,9.99574e-01,4.85002e-02,9.99998e-01
5.843602750e-01,5.14615e-02,9.99999e-01,9.99999e-01,9.99999e-01,9.99494e-01,5.14877e-02,9.99996e-01
5.872820764e-01,5.43554e-02,9.99999e-01,9.99999e-01,9.99999e-01,9.95647e-01,5.45947e-02,9.99968e-01
5.902184868e-01,5.75114e-02,9.99999e-01,9.99999e-01,9.99999e-01,9.94707e-01,5.78222e-02,9.99915e-01
5.931695792e-01,6.09377e-02,9.99999e-01,9.99999e-01,9.99999e-01,9.96263e-01,6.11711e-02,9.99919e-01
5.961354271e-01,6.43741e-02,9.99999e-01,9.99999e-01,9.99999e-01,9.95900e-01,6.46420e-02,9.99953e-01
5.991161043e-01,6.80304e-02,9.99999e-01,9.99999e-01,9.99999e-01,9.97008e-01,6.82355e-02,9.99985e-01
6.021116848e-01,7.18294e-02,9.99999e-01,9.99999e-01,9.99999e-01,9.98300e-01,7.19518e-02,9.99997e-01
6.051222432e-01,7.57258e-02,9.99999e-01,9.99999e-01,9.99999e-01,9.99139e-01,7.57910e-02,9.99999e-01
6.081478544e-01,7.97236e-02,9.99999e-01,9.99999e-01,9.99999e-01,9.99628e-01,7.97532e-02,9.99999e-01
6.111885937e-01,8.38249e-02,9.99999e-01,9.99999e-01,9.99999e-01,9.99842e-01,8.38380e-02,9.99999e-01
6.142445367e-01,8.80391e-02,9.99999e-01,9.99999e-01,9.99999e-01,9.99929e-01,8.80452e-02,9.99999e-01
6.173157594e-01,9.23706e-02,9.99999e-01,9.99999e-01,9.99999e-01,9.99960e-01,9.23742e-02,9.99999e-01
6.204023382e-01,9.68209e-02,9.99999e-01,9.99999e-01,9.99999e-01,9.99966e-01,9.68241e-02,9.99999e-01
6.235043498e-01,1.01380e-01,9.99999e-01,9.99999e-01,9.99999e-01,9.99856e-01,1.01394e-01,9.99999e-01
6.266218716e-01,1.06002e-01,9.99999e-01,9.99999e-01,9.99999e-01,9.99238e-01,1.06083e-01,9.99994e-01
6.297549810e-01,1.10858e-01,9.99999e-01,9.99999e-01,9.99999e-01,9.99720e-01,1.10890e-01,9.99988e-01
6.329037559e-01,1.15748e-01,9.99999e-01,9.99999e-01,9.99999e-01,9.99447e-01,1.15813e-01,9.99990e-01
6.360682746e-01,1.20794e-01,9.99999e-01,9.99999e-01,9.99999e-01,9.99530e-01,1.20851e-01,9.99994e-01
6.392486160e-01,1.25925e-01,9.99999e-01,9.99999e-01,9.99999e-01,9.99390e-01,1.26002e-01,9.99997e-01
6.424448591e-01,1.31158e-01,9.99999e-01,9.99999e-01,9.99999e-01,9.99187e-01,1.31265e-01,9.99995e-01
6.456570834e-01,1.36119e-01,9.99999e-01,9.99999e-01,9.99999e-01,9.96229e-01,1.36637e-01,9.99978e-01
6.488853688e-01,1.41713e-01,9.99999e-01,9.99999e-01,9.99999e-01,9.97226e-01,1.42116e-01,9.99940e-01
6.521297956e-01,1.47275e-01,9.99999e-01,9.99999e-01,9.99999e-01,9.97172e-01,1.47700e-01,9.99950e-01
6.553904446e-01,1.52952e-01,9.99999e-01,9.99999e-01,9.99999e-01,9.97203e-01,1.53386e-01,9.99962e-01
6.586673968e-01,1.58787e-01,9.99999e-01,9.99999e-01,9.99999e-01,9.97589e-01,1.59173e-01,9.99987e-01
6.619607338e-01,1.64827e-01,9.99999e-01,9.99999e-01,9.99999e-01,9.98605e-01,1.65057e-01,9.99996e-01
6.652705375e-01,1.70898e-01,9.99999e-01,9.99999e-01,9.99999e-01,9.99192e-01,1.71036e-01,9.99998e-01
6.685968902e-01,1.77041e-01,9.99999e-01,9.99999e-01,9.99999e-01,9.99624e-01,1.77107e-01,9.99999e-01
6.719398746e-01,1.83236e-01,9.99999e-01,9.99999e-01,9.99999e-01,9.99825e-01,1.83267e-01,9.99999e-01
6.752995740e-01,1.89496e-01,9.99999e-01,9.99999e-01,9.99999e-01,9.99905e-01,1.89514e-01,9.99999e-01
6.786760719e-01,1.95817e-01,9.99999e-01,9.99999e-01,9.99999e-01,9.99864e-01,1.95844e-01,9.99999e-01
6.820694522e-01,2.02206e-01,9.99999e-01,9.99999e-01,9.99999e-01,9.99767e-01,2.02254e-01,9.99998e-01
6.854797995e-01,2.08677e-01,9.99999e-01,9.99999e-01,9.99999e-01,9.99700e-01,2.08740e-01,9.99996e-01
6.889071985e-01,2.15145e-01,9.99999e-01,9.99999e-01,9.99999e-01,9.99279e-01,2.15301e-01,9.99993e-01
6.923517345e-01,2.19308e-01,9.99999e-01,9.99999e-01,9.99999e-01,9.88233e-01,2.21932e-01,9.99942e-01
6.958134932e-01,2.27187e-01,9.99999e-01,9.99999e-01,9.99999e-01,9.93814e-01,2.28630e-01,9.99871e-01
6.992925606e-01,2.33994e-01,9.99999e-01,9.99999e-01,9.99999e-01,9.94171e-01,2.35392e-01,9.99886e-01
7.027890234e-01,2.40446e-01,9.99999e-01,9.99999e-01,9.99999e-01,9.92782e-01,2.42215e-01,9.99913e-01
7.063029686e-01,2.47573e-01,9.99999e-01,9.99999e-01,9.99999e-01,9.93932e-01,2.49095e-01,9.99956e-01
7.098344834e-01,2.54531e-01,9.99999e-01,9.99999e-01,9.99999e-01,9.94177e-01,2.56028e-01,9.99974e-01
7.133836558e-01,2.60970e-01,9.99999e-01,9.99999e-01,9.99999e-01,9.92286e-01,2.63012e-01,9.99948e-01
7.169505741e-01,2.53583e-01,9.99999e-01,9.99999e-01,9.99999e-01,9.39419e-01,2.70043e-01,9.99601e-01
7.205353270e-01,2.68522e-01,9.99999e-01,9.99999e-01,9.99999e-01,9.69665e-01,2.77117e-01,9.99297e-01
7.241380036e-01,2.73225e-01,9.99999e-01,9.99999e-01,9.99999e-01,9.61858e-01,2.84231e-01,9.99393e-01
7.277586936e-01,2.81192e-01,9.99999e-01,9.99999e-01,9.99999e-01,9.65505e-01,2.91382e-01,9.99504e-01
7.313974871e-01,2.87531e-01,9.99999e-01,9.99999e-01,9.99999e-01,9.63259e-01,2.98567e-01,9.99767e-01
7.350544745e-01,2.99575e-01,9.99999e-01,9.99999e-01,9.99999e-01,9.79783e-01,3.05781e-01,9.99918e-01
7.387297469e-01,3.08341e-01,9.99999e-01,9.99999e-01,9.99999e-01,9.85082e-01,3.13022e-01,9.99962e-01
7.424233956e-01,3.17937e-01,9.99999e-01,9.99999e-01,9.99999e-01,9.92669e-01,3.20287e-01,9.99992e-01
7.461355126e-01,3.26115e-01,9.99999e-01,9.99999e-01,9.99999e-01,9.95555e-01,3.27571e-01,9.99998e-01
7.498661902e-01,3.34178e-01,9.99999e-01,9.99999e-01,9.99999e-01,9.97926e-01,3.34872e-01,9.99999e-01
7.536155211e-01,3.41840e-01,9.99999e-01,9.99999e-01,9.99999e-01,9.98983e-01,3.42188e-01,9.99999e-01
7.573835987e-01,3.49330e-01,9.99999e-01,9.99999e-01,9.99999e-01,9.99476e-01,3.49513e-01,9.99999e-01
7.611705167e-01,3.56730e-01,9.99999e-01,9.99999e-01,9.99999e-01,9.99674e-01,3.56846e-01,9.99999e-01
7.649763693e-01,3.64110e-01,9.99999e-01,9.99999e-01,9.99999e-01,9.99795e-01,3.64184e-01,9.99999e-01
7.688012511e-01,3.71471e-01,9.99999e-01,9.99999e-01,9.99999e-01,9.99857e-01,3.71523e-01,9.99999e-01
7.726452574e-01,3.78817e-01,9.99999e-01,9.99999e-01,9.99999e-01,9.99883e-01,3.78861e-01,9.99999e-01
7.765084837e-01,3.86130e-01,9.99999e-01,9.99999e-01,9.99999e-01,9.99834e-01,3.86194e-01,9.99999e-01
7.803910261e-01,3.77023e-01,9.99999e-01,9.99999e-01,9.58734e-01,9.99286e-01,3.93521e-01,9.99998e-01
7.842929812e-01,3.29876e-01,9.99999e-01,9.99999e-01,8.24899e-01,9.97511e-01,4.00837e-01,9.99994e-01
7.882144461e-01,3.30790e-01,9.99999e-01,9.99999e-01,8.14486e-01,9.94860e-01,4.08141e-01,9.99968e-01
7.921555184e-01,3.67202e-01,9.99999e-01,9.99999e-01,8.86395e-01,9.97173e-01,4.15430e-01,9.99938e-01
7.961162960e-01,3.87838e-01,9.99999e-01,9.99999e-01,9.22104e-01,9.95030e-01,4.22701e-01,9.99941e-01
8.000968774e-01,4.09090e-01,9.99999e-01,9.99999e-01,9.57019e-01,9.94248e-01,4.29952e-01,9.99937e-01
8.040973618e-01,4.24855e-01,9.99999e-01,9.99999e-01,9.77460e-01,9.94249e-01,4.37181e-01,9.99950e-01
8.081178486e-01,4.34090e-01,9.99999e-01,9.99999e-01,9.89608e-01,9.87114e-01,4.44384e-01,9.99953e-01
8.121584379e-01,4.26321e-01,9.99999e-01,9.99999e-01,9.96768e-01,9.47298e-01,4.51561e-01,9.99817e-01
8.162192301e-01,4.29441e-01,9.99999e-01,9.99999e-01,9.99285e-01,9.37489e-01,4.58708e-01,9.99316e-01
8.203003262e-01,4.50845e-01,9.99999e-01,9.99999e-01,9.99988e-01,9.68627e-01,4.65824e-01,9.99200e-01
8.244018279e-01,4.51808e-01,9.99999e-01,9.99999e-01,9.99999e-01,9.55992e-01,4.72907e-01,9.99363e-01
8.285238370e-01,4.61637e-01,9.99999e-01,9.99999e-01,9.99999e-01,9.62317e-01,4.79954e-01,9.99499e-01
8.326664562e-01,4.68290e-01,9.99999e-01,9.99999e-01,9.99999e-01,9.61852e-01,4.86964e-01,9.99792e-01
8.368297885e-01,4.80370e-01,9.99999e-01,9.99999e-01,9.99999e-01,9.72584e-01,4.93934e-01,9.99952e-01
8.410139374e-01,4.92648e-01,9.99999e-01,9.99999e-01,9.99999e-01,9.83621e-01,5.00864e-01,9.99971e-01
8.452190071e-01,5.03648e-01,9.99999e-01,9.99999e-01,9.99999e-01,9.91934e-01,5.07752e-01,9.99983e-01
8.494451021e-01,5.12181e-01,9.99999e-01,9.99999e-01,9.99999e-01,9.95321e-01,5.14595e-01,9.99986e-01
8.536923276e-01,5.19943e-01,9.99999e-01,9.99999e-01,9.99999e-01,9.97227e-01,5.21392e-01,9.99991e-01
8.579607893e-01,5.27241e-01,9.99999e-01,9.99999e-01,9.99999e-01,9.98293e-01,5.28143e-01,9.99997e-01
8.622505932e-01,5.34264e-01,9.99999e-01,9.99999e-01,9.99999e-01,9.98914e-01,5.34845e-01,9.99999e-01
8.665618462e-01,4.95287e-01,9.99999e-01,9.99999e-01,9.15249e-01,9.99329e-01,5.41497e-01,9.99999e-01
8.708946554e-01,3.37251e-01,9.99999e-01,9.99999e-01,6.15763e-01,9.99233e-01,5.48098e-01,9.99999e-01
8.752491287e-01,3.73846e-01,9.99999e-01,9.99999e-01,6.74693e-01,9.98973e-01,5.54646e-01,9.99998e-01
8.796253743e-01,4.50925e-01,9.99999e-01,9.99999e-01,8.04686e-01,9.98581e-01,5.61142e-01,9.99996e-01
8.840235012e-01,5.06151e-01,9.99999e-01,9.99999e-01,8.93195e-01,9.98378e-01,5.67582e-01,9.99989e-01
8.884436187e-01,5.45729e-01,9.99999e-01,9.99999e-01,9.56366e-01,9.94136e-01,5.73968e-01,9.99971e-01
8.928858368e-01,5.35512e-01,9.99999e-01,9.99999e-01,9.82107e-01,9.39604e-01,5.80297e-01,9.99837e-01
8.973502660e-01,5.22454e-01,9.99999e-01,9.99999e-01,9.95614e-01,8.95261e-01,5.86568e-01,9.99168e-01
9.018370173e-01,5.59146e-01,9.99999e-01,9.99999e-01,9.99515e-01,9.44931e-01,5.92782e-01,9.98693e-01
9.063462024e-01,5.62679e-01,9.99999e-01,9.99999e-01,9.87819e-01,9.51676e-01,5.98936e-01,9.98852e-01
9.108779334e-01,5.43838e-01,9.99999e-01,9.99999e-01,9.71934e-01,9.25507e-01,6.05031e-01,9.98807e-01
9.154323231e-01,5.55384e-01,9.99999e-01,9.99999e-01,9.93317e-01,9.15727e-01,6.11066e-01,9.99014e-01
9.200094847e-01,5.25922e-01,9.99999e-01,9.99999e-01,9.09639e-01,9.33325e-01,6.17040e-01,9.99447e-01
9.246095321e-01,4.88397e-01,9.99999e-01,9.99999e-01,8.70087e-01,8.98895e-01,6.22953e-01,9.99364e-01
9.292325798e-01,2.80601e-01,9.99999e-01,9.99999e-01,8.97340e-01,4.91787e-01,6.28804e-01,9.97523e-01
9.338787427e-01,2.28977e-01,9.99999e-01,9.99999e-01,9.00046e-01,3.99672e-01,6.34593e-01,9.89803e-01
9.385481364e-01,4.06200e-01,9.99999e-01,9.99999e-01,9.25464e-01,6.90050e-01,6.40319e-01,9.87884e-01
9.432408771e-01,3.67355e-01,9.99999e-01,9.99999e-01,9.53603e-01,6.00731e-01,6.45982e-01,9.89538e-01
9.479570815e-01,3.13883e-01,9.99999e-01,9.99999e-01,9.75946e-01,4.97052e-01,6.51582e-01,9.91477e-01
9.526968669e-01,3.80566e-01,9.99999e-01,9.99999e-01,9.88323e-01,5.88317e-01,6.57119e-01,9.94793e-01
9.574603512e-01,4.01773e-01,9.99999e-01,9.99999e-01,9.94989e-01,6.10783e-01,6.62591e-01,9.97351e-01
9.622476530e-01,4.44949e-01,9.99999e-01,9.99999e-01,9.98433e-01,6.68282e-01,6.68000e-01,9.98167e-01
9.670588912e-01,5.32746e-01,9.99999e-01,9.99999e-01,9.99530e-01,7.92534e-01,6.73345e-01,9.98746e-01
9.718941857e-01,5.85984e-01,9.99999e-01,9.99999e-01,9.99966e-01,8.64309e-01,6.78626e-01,9.99076e-01
9.767536566e-01,6.05446e-01,9.99999e-01,9.99999e-01,9.99999e-01,8.85982e-01,6.83842e-01,9.99294e-01
9.816374249e-01,6.29634e-01,9.99999e-01,9.99999e-01,9.99999e-01,9.14066e-01,6.88995e-01,9.99755e-01
9.865456120e-01,6.56147e-01,9.99999e-01,9.99999e-01,9.99999e-01,9.45390e-01,6.94084e-01,9.99948e-01
9.914783401e-01,6.75252e-01,9.99999e-01,9.99999e-01,9.99999e-01,9.65889e-01,6.99108e-01,9.99985e-01
9.964357318e-01,6.90882e-01,9.99999e-01,9.99999e-01,9.99999e-01,9.81278e-01,7.04068e-01,9.99991e-01
1.001417910e+00,7.00972e-01,9.99999e-01,9.99999e-01,9.99999e-01,9.88737e-01,7.08965e-01,9.99986e-01
1.006425000e+00,7.09197e-01,9.99999e-01,9.99999e-01,9.99999e-01,9.93570e-01,7.13798e-01,9.99981e-01
1.011457125e+00,7.15683e-01,9.99999e-01,9.99999e-01,9.99999e-01,9.96001e-01,7.18568e-01,9.99982e-01
1.016514411e+00,7.21302e-01,9.99999e-01,9.99999e-01,9.99999e-01,9.97285e-01,7.23274e-01,9.99987e-01
1.021596983e+00,7.26289e-01,9.99999e-01,9.99999e-01,9.99937e-01,9.97836e-01,7.27917e-01,9.99987e-01
1.026704968e+00,7.27775e-01,9.99999e-01,9.99999e-01,9.95235e-01,9.98313e-01,7.32497e-01,9.99991e-01
1.031838492e+00,6.98628e-01,9.99999e-01,9.99999e-01,9.49042e-01,9.98772e-01,7.37015e-01,9.99997e-01
1.036997685e+00,9.06947e-02,9.99999e-01,9.99999e-01,1.22387e-01,9.99271e-01,7.41471e-01,9.99999e-01
1.042182673e+00,5.21189e-02,9.99999e-01,9.99999e-01,6.99295e-02,9.99132e-01,7.45865e-01,9.99999e-01
1.047393587e+00,7.14869e-02,9.99999e-01,9.99999e-01,9.53868e-02,9.98849e-01,7.50197e-01,9.99999e-01
1.052630555e+00,8.66478e-04,9.99999e-01,9.99999e-01,1.14975e-03,9.98421e-01,7.54468e-01,9.99999e-01
1.057893707e+00,2.47314e-03,9.99999e-01,9.99999e-01,3.26526e-03,9.97368e-01,7.58679e-01,9.99998e-01
1.063183176e+00,1.09088e-02,9.99999e-01,9.99999e-01,1.43429e-02,9.95670e-01,7.62829e-01,9.99997e-01
1.068499092e+00,3.80753e-02,9.99999e-01,9.99999e-01,4.99404e-02,9.92754e-01,7.66919e-01,9.99994e-01
1.073841587e+00,1.14450e-01,9.99999e-01,9.99999e-01,1.49501e-01,9.91531e-01,7.70949e-01,9.99988e-01
