#,Wave/freq,Total,N2,O2,CO2,H2O,Rayleigh,CIA
4.000000000e-01,1.95779e-07,9.99999e-01,9.99999e-01,9.99999e-01,9.99969e-01,1.95785e-07,9.99999e-01
4.020000000e-01,2.65709e-07,9.99999e-01,9.99999e-01,9.99999e-01,9.99981e-01,2.65714e-07,9.99999e-01
4.040100000e-01,3.58340e-07,9.99999e-01,9.99999e-01,9.99999e-01,9.99991e-01,3.58343e-07,9.99999e-01
4.060300500e-01,4.80415e-07,9.99999e-01,9.99999e-01,9.99999e-01,9.99997e-01,4.80416e-07,9.99999e-01
4.080602003e-01,6.40355e-07,9.99999e-01,9.99999e-01,9.99999e-01,9.99998e-01,6.40356e-07,9.99999e-01
4.101005013e-01,8.48711e-07,9.99999e-01,9.99999e-01,9.99999e-01,9.99999e-01,8.48711e-07,9.99999e-01
4.121510038e-01,1.11862e-06,9.99999e-01,9.99999e-01,9.99999e-01,9.99998e-01,1.11862e-06,9.99999e-01
4.142117588e-01,1.46633e-06,9.99999e-01,9.99999e-01,9.99999e-01,9.99991e-01,1.46634e-06,9.99999e-01
4.162828176e-01,1.91184e-06,9.99999e-01,9.99999e-01,9.99999e-01,9.99962e-01,1.91191e-06,9.99999e-01
4.183642317e-01,2.47977e-06,9.99999e-01,9.99999e-01,9.99999e-01,9.99977e-01,2.47983e-06,9.99999e-01
4.204560528e-01,3.19993e-06,9.99999e-01,9.99999e-01,9.99999e-01,9.99986e-01,3.19997e-06,9.99999e-01
4.225583331e-01,4.10847e-06,9.99999e-01,9.99999e-01,9.99999e-01,9.99994e-01,4.10849e-06,9.99999e-01
4.246711247e-01,5.24897e-06,9.99999e-01,9.99999e-01,9.99999e-01,9.99995e-01,5.24899e-06,9.99999e-01
4.267944804e-01,6.67367e-06,9.99999e-01,9.99999e-01,9.99999e-01,9.99993e-01,6.67371e-06,9.99999e-01
4.289284528e-01,8.44495e-06,9.99999e-01,9.99999e-01,9.99999e-01,9.99994e-01,8.44499e-06,9.99999e-01
4.310730950e-01,1.06368e-05,9.99999e-01,9.99999e-01,9.99999e-01,9.99997e-01,1.06368e-05,9.99999e-01
4.332284605e-01,1.33366e-05,9.99999e-01,9.99999e-01,9.99999e-01,9.99999e-01,1.33366e-05,9.99999e-01
4.353946028e-01,1.66470e-05,9.99999e-01,9.99999e-01,9.99999e-01,9.99999e-01,1.66470e-05,9.99999e-01
4.375715758e-01,2.06883e-05,9.99999e-01,9.99999e-01,9.99999e-01,9.99995e-01,2.06884e-05,9.99999e-01
4.397594337e-01,2.55999e-05,9.99999e-01,9.99999e-01,9.99999e-01,9.99966e-01,2.56008e-05,9.99999e-01
4.419582309e-01,3.15412e-05,9.99999e-01,9.99999e-01,9.99999e-01,9.99832e-01,3.15465e-05,9.99999e-01
4.441680220e-01,3.87082e-05,9.99999e-01,9.99999e-01,9.99999e-01,9.99872e-01,3.87131e-05,9.99999e-01
4.463888621e-01,4.73098e-05,9.99999e-01,9.99999e-01,9.99999e-01,9.99866e-01,4.73161e-05,9.99999e-01
4.486208064e-01,5.75973e-05,9.99999e-01,9.99999e-01,9.99999e-01,9.99917e-01,5.76021e-05,9.99999e-01
4.508639105e-01,6.98495e-05,9.99999e-01,9.99999e-01,9.99999e-01,9.99961e-01,6.98522e-05,9.99999e-01
4.531182300e-01,8.43842e-05,9.99999e-01,9.99999e-01,9.99999e-01,9.99984e-01,8.43855e-05,9.99999e-01
4.553838212e-01,1.01562e-04,9.99999e-01,9.99999e-01,9.99999e-01,9.99989e-01,1.01563e-04,9.99999e-01
4.576607403e-01,1.21789e-04,9.99999e-01,9.99999e-01,9.99999e-01,9.99994e-01,1.21790e-04,9.99999e-01
4.599490440e-01,1.45522e-04,9.99999e-01,9.99999e-01,9.99999e-01,9.99996e-01,1.45522e-04,9.99999e-01
4.622487892e-01,1.73269e-04,9.99999e-01,9.99999e-01,9.99999e-01,9.99998e-01,1.73269e-04,9.99999e-01
4.645600332e-01,2.05596e-04,9.99999e-01,9.99999e-01,9.99999e-01,9.99997e-01,2.05597e-04,9.99999e-01
4.668828333e-01,2.43123e-04,9.99999e-01,9.99999e-01,9.99999e-01,9.99959e-01,2.43133e-04,9.99999e-01
4.692172475e-01,2.86547e-04,9.99999e-01,9.99999e-01,9.99999e-01,9.99916e-01,2.86571e-04,9.99999e-01
4.715633337e-01,3.36656e-04,9.99999e-01,9.99999e-01,9.99999e-01,9.99944e-01,3.36674e-04,9.99999e-01
4.739211504e-01,3.94261e-04,9.99999e-01,9.99999e-01,9.99999e-01,9.99947e-01,3.94281e-04,9.99999e-01
4.762907561e-01,4.60295e-04,9.99999e-01,9.99999e-01,9.99999e-01,9.99972e-01,4.60307e-04,9.99999e-01
4.786722099e-01,5.35742e-04,9.99999e-01,9.99999e-01,9.99999e-01,9.99988e-01,5.35748e-04,9.99999e-01
4.810655710e-01,6.21685e-04,9.99999e-01,9.99999e-01,9.99999e-01,9.99996e-01,6.21687e-04,9.99999e-01
4.834708988e-01,7.19270e-04,9.99999e-01,9.99999e-01,9.99999e-01,9.99966e-01,7.19294e-04,9.99999e-01
4.858882533e-01,8.29784e-04,9.99999e-01,9.99999e-01,9.99999e-01,9.99940e-01,8.29833e-04,9.99999e-01
4.883176946e-01,9.54611e-04,9.99999e-01,9.99999e-01,9.99999e-01,9.99949e-01,9.54658e-04,9.99999e-01
4.907592831e-01,1.09518e-03,9.99999e-01,9.99999e-01,9.99999e-01,9.99954e-01,1.09523e-03,9.99999e-01
4.932130795e-01,1.25305e-03,9.99999e-01,9.99999e-01,9.99999e-01,9.99967e-01,1.25309e-03,9.99999e-01
4.956791449e-01,1.42987e-03,9.99999e-01,9.99999e-01,9.99999e-01,9.99982e-01,1.42989e-03,9.99999e-01
4.981575406e-01,1.62726e-03,9.99999e-01,9.99999e-01,9.99999e-01,9.99914e-01,1.62739e-03,9.99999e-01
5.006483283e-01,1.84704e-03,9.99999e-01,9.99999e-01,9.99999e-01,9.99778e-01,1.84745e-03,9.99998e-01
5.031515699e-01,2.08967e-03,9.99999e-01,9.99999e-01,9.99999e-01,9.98891e-01,2.09201e-03,9.99987e-01
5.056673278e-01,2.36174e-03,9.99999e-01,9.99999e-01,9.99999e-01,9.99417e-01,2.36314e-03,9.99986e-01
5.081956644e-01,2.66102e-03,9.99999e-01,9.99999e-01,9.99999e-01,9.99265e-01,2.66299e-03,9.99991e-01
5.107366428e-01,2.99233e-03,9.99999e-01,9.99999e-01,9.99999e-01,9.99504e-01,2.99382e-03,9.99998e-01
5.132903260e-01,3.35702e-03,9.99999e-01,9.99999e-01,9.99999e-01,9.99717e-01,3.35796e-03,9.99999e-01
5.158567776e-01,3.75743e-03,9.99999e-01,9.99999e-01,9.99999e-01,9.99880e-01,3.75787e-03,9.99999e-01
5.184360615e-01,4.19587e-03,9.99999e-01,9.99999e-01,9.99999e-01,9.99951e-01,4.19607e-03,9.99999e-01
5.210282418e-01,4.67509e-03,9.99999e-01,9.99999e-01,9.99999e-01,9.99981e-01,4.67517e-03,9.99999e-01
5.236333830e-01,5.19749e-03,9.99999e-01,9.99999e-01,9.99999e-01,9.99927e-01,5.19787e-03,9.99998e-01
5.262515499e-01,5.76665e-03,9.99999e-01,9.99999e-01,9.99999e-01,9.99954e-01,5.76691e-03,9.99998e-01
5.288828077e-01,6.38487e-03,9.99999e-01,9.99999e-01,9.99999e-01,9.99957e-01,6.38514e-03,9.99999e-01
5.315272217e-01,7.05517e-03,9.99999e-01,9.99999e-01,9.99999e-01,9.99963e-01,7.05543e-03,9.99999e-01
5.341848578e-01,7.78054e-03,9.99999e-01,9.99999e-01,9.99999e-01,9.99975e-01,7.78073e-03,9.99999e-01
5.368557821e-01,8.56330e-03,9.99999e-01,9.99999e-01,9.99999e-01,9.99915e-01,8.56403e-03,9.99999e-01
5.395400610e-01,9.40541e-03,9.99999e-01,9.99999e-01,9.99999e-01,9.99691e-01,9.40833e-03,9.99996e-01
5.422377613e-01,1.03126e-02,9.99999e-01,9.99999e-01,9.99999e-01,9.99610e-01,1.03167e-02,9.99992e-01
5.449489501e-01,1.12880e-02,9.99999e-01,9.99999e-01,9.99999e-01,9.99633e-01,1.12922e-02,9.99992e-01
5.476736949e-01,1.23339e-02,9.99999e-01,9.99999e-01,9.99999e-01,9.99679e-01,1.23379e-02,9.99995e-01
5.504120634e-01,1.34537e-02,9.99999e-01,9.99999e-01,9.99999e-01,9.99766e-01,1.34569e-02,9.99998e-01
5.531641237e-01,1.46504e-02,9.99999e-01,9.99999e-01,9.99999e-01,9.99882e-01,1.46522e-02,9.99999e-01
5.559299443e-01,1.59259e-02,9.99999e-01,9.99999e-01,9.99999e-01,9.99943e-01,1.59268e-02,9.99999e-01
5.587095940e-01,1.72833e-02,9.99999e-01,9.99999e-01,9.99999e-01,9.99963e-01,1.72839e-02,9.99999e-01
5.615031420e-01,1.87256e-02,9.99999e-01,9.99999e-01,9.99999e-01,9.99959e-01,1.87263e-02,9.99999e-01
5.643106577e-01,2.02561e-02,9.99999e-01,9.99999e-01,9.99999e-01,9.99953e-01,2.02570e-02,9.99999e-01
5.671322110e-01,2.18665e-02,9.99999e-01,9.99999e-01,9.99999e-01,9.99439e-01,2.18789e-02,9.99994e-01
5.699678720e-01,2.35808e-02,9.99999e-01,9.99999e-01,9.99999e-01,9.99425e-01,2.35947e-02,9.99984e-01
5.728177114e-01,2.53914e-02,9.99999e-01,9.99999e-01,9.99999e-01,9.99392e-01,2.54071e-02,9.99987e-01
5.756818000e-01,2.73034e-02,9.99999e-01,9.99999e-01,9.99999e-01,9.99444e-01,2.73188e-02,9.99992e-01
5.785602090e-01,2.93180e-02,9.99999e-01,9.99999e-01,9.99999e-01,9.99516e-01,2.93322e-02,9.99997e-01
5.814530100e-01,3.14345e-02,9.99999e-01,9.99999e-01,9.99999e-01,9.99513e-01,3.14498e-02,9.99998e-01
5.843602750e-01,3.36541e-02,9.99999e-01,9.99999e-01,9.99999e-01,9.99413e-01,3.36740e-02,9.99996e-01
5.872820764e-01,3.58242e-02,9.99999e-01,9.99999e-01,9.99999e-01,9.94964e-01,3.60067e-02,9.99964e-01
5.902184868e-01,3.82149e-02,9.99999e-01,9.99999e-01,9.99999e-01,9.93973e-01,3.84502e-02,9.99903e-01
5.931695792e-01,4.08272e-02,9.99999e-01,9.99999e-01,9.99999e-01,9.95722e-01,4.10063e-02,9.99907e-01
5.961354271e-01,4.34703e-02,9.99999e-01,9.99999e-01,9.99999e-01,9.95325e-01,4.36767e-02,9.99946e-01
5.991161043e-01,4.63042e-02,9.99999e-01,9.99999e-01,9.99999e-01,9.96594e-01,4.64632e-02,9.99983e-01
6.021116848e-01,4.92716e-02,9.99999e-01,9.99999e-01,9.99999e-01,9.98069e-01,4.93670e-02,9.99997e-01
6.051222432e-01,5.23384e-02,9.99999e-01,9.99999e-01,9.99999e-01,9.99023e-01,5.23895e-02,9.99999e-01
6.081478544e-01,5.55085e-02,9.99999e-01,9.99999e-01,9.99999e-01,9.99577e-01,5.55319e-02,9.99999e-01
6.111885937e-01,5.87846e-02,9.99999e-01,9.99999e-01,9.99999e-01,9.99821e-01,5.87951e-02,9.99999e-01
6.142445367e-01,6.21749e-02,9.99999e-01,9.99999e-01,9.99999e-01,9.99919e-01,6.21798e-02,9.99999e-01
6.173157594e-01,6.56839e-02,9.99999e-01,9.99999e-01,9.99999e-01,9.99955e-01,6.56868e-02,9.99999e-01
6.204023382e-01,6.93137e-02,9.99999e-01,9.99999e-01,9.99999e-01,9.99962e-01,6.93163e-02,9.99999e-01
6.235043498e-01,7.30565e-02,9.99999e-01,9.99999e-01,9.99999e-01,9.99831e-01,7.30688e-02,9.99999e-01
6.266218716e-01,7.68767e-02,9.99999e-01,9.99999e-01,9.99999e-01,9.99128e-01,7.69442e-02,9.99993e-01
6.297549810e-01,8.09157e-02,9.99999e-01,9.99999e-01,9.99999e-01,9.99679e-01,8.09425e-02,9.99987e-01
6.329037559e-01,8.50091e-02,9.99999e-01,9.99999e-01,9.99999e-01,9.99370e-01,8.50635e-02,9.99989e-01
6.360682746e-01,8.92579e-02,9.99999e-01,9.99999e-01,9.99999e-01,9.99460e-01,8.93065e-02,9.99993e-01
6.392486160e-01,9.36057e-02,9.99999e-01,9.99999e-01,9.99999e-01,9.99303e-01,9.36712e-02,9.99996e-01
6.424448591e-01,9.80636e-02,9.99999e-01,9.99999e-01,9.99999e-01,9.99057e-01,9.81565e-02,9.99994e-01
6.456570834e-01,1.02310e-01,9.99999e-01,9.99999e-01,9.99999e-01,9.95629e-01,1.02762e-01,9.99973e-01
6.488853688e-01,1.07139e-01,9.99999e-01,9.99999e-01,9.99999e-01,9.96845e-01,1.07486e-01,9.99932e-01
6.521297956e-01,1.11960e-01,9.99999e-01,9.99999e-01,9.99999e-01,9.96785e-01,1.12327e-01,9.99944e-01
6.553904446e-01,1.16902e-01,9.99999e-01,9.99999e-01,9.99999e-01,9.96779e-01,1.17284e-01,9.99958e-01
6.586673968e-01,1.22018e-01,9.99999e-01,9.99999e-01,9.99999e-01,9.97257e-01,1.22355e-01,9.99985e-01
6.619607338e-01,1.27344e-01,9.99999e-01,9.99999e-01,9.99999e-01,9.98471e-01,1.27540e-01,9.99996e-01
6.652705375e-01,1.32712e-01,9.99999e-01,9.99999e-01,9.99999e-01,9.99082e-01,1.32834e-01,9.99998e-01
6.685968902e-01,1.38184e-01,9.99999e-01,9.99999e-01,9.99999e-01,9.99610e-01,1.38238e-01,9.99999e-01
6.719398746e-01,1.43720e-01,9.99999e-01,9.99999e-01,9.99999e-01,9.99802e-01,1.43748e-01,9.99999e-01
6.752995740e-01,1.49347e-01,9.99999e-01,9.99999e-01,9.99999e-01,9.99895e-01,1.49363e-01,9.99999e-01
6.786760719e-01,1.55055e-01,9.99999e-01,9.99999e-01,9.99999e-01,9.99843e-01,1.55079e-01,9.99999e-01
6.820694522e-01,1.60851e-01,9.99999e-01,9.99999e-01,9.99999e-01,9.99730e-01,1.60894e-01,9.99998e-01
6.854797995e-01,1.66749e-01,9.99999e-01,9.99999e-01,9.99999e-01,9.99656e-01,1.66807e-01,9.99996e-01
6.889071985e-01,1.72620e-01,9.99999e-01,9.99999e-01,9.99999e-01,9.98886e-01,1.72813e-01,9.99992e-01
6.923517345e-01,1.76458e-01,9.99999e-01,9.99999e-01,9.99999e-01,9.86350e-01,1.78911e-01,9.99934e-01
6.958134932e-01,1.83794e-01,9.99999e-01,9.99999e-01,9.99999e-01,9.93102e-01,1.85097e-01,9.99855e-01
6.992925606e-01,1.90055e-01,9.99999e-01,9.99999e-01,9.99999e-01,9.93265e-01,1.91368e-01,9.99870e-01
7.027890234e-01,1.96077e-01,9.99999e-01,9.99999e-01,9.99999e-01,9.91778e-01,1.97722e-01,9.99900e-01
7.063029686e-01,2.02731e-01,9.99999e-01,9.99999e-01,9.99999e-01,9.93075e-01,2.04155e-01,9.99950e-01
7.098344834e-01,2.09258e-01,9.99999e-01,9.99999e-01,9.99999e-01,9.93355e-01,2.10663e-01,9.99970e-01
7.133836558e-01,2.15279e-01,9.99999e-01,9.99999e-01,9.99999e-01,9.91008e-01,2.17245e-01,9.99941e-01
7.169505741e-01,2.08241e-01,9.99999e-01,9.99999e-01,9.99999e-01,9.30500e-01,2.23896e-01,9.99544e-01
7.205353270e-01,2.22636e-01,9.99999e-01,9.99999e-01,9.99999e-01,9.66182e-01,2.30614e-01,9.99197e-01
7.241380036e-01,2.26870e-01,9.99999e-01,9.99999e-01,9.99999e-01,9.56331e-01,2.37394e-01,9.99306e-01
7.277586936e-01,2.34470e-01,9.99999e-01,9.99999e-01,9.99999e-01,9.60565e-01,2.44234e-01,9.99433e-01
7.313974871e-01,2.40633e-01,9.99999e-01,9.99999e-01,9.99999e-01,9.58454e-01,2.51130e-01,9.99734e-01
7.350544745e-01,2.52130e-01,9.99999e-01,9.99999e-01,9.99999e-01,9.77039e-01,2.58078e-01,9.99907e-01
7.387297469e-01,2.60577e-01,9.99999e-01,9.99999e-01,9.99999e-01,9.83069e-01,2.65076e-01,9.99957e-01
7.424233956e-01,2.69862e-01,9.99999e-01,9.99999e-01,9.99999e-01,9.91706e-01,2.72120e-01,9.99992e-01
7.461355126e-01,2.77798e-01,9.99999e-01,9.99999e-01,9.99999e-01,9.94957e-01,2.79207e-01,9.99998e-01
7.498661902e-01,2.85662e-01,9.99999e-01,9.99999e-01,9.99999e-01,9.97658e-01,2.86332e-01,9.99998e-01
7.536155211e-01,2.93155e-01,9.99999e-01,9.99999e-01,9.99999e-01,9.98846e-01,2.93493e-01,9.99999e-01
7.573835987e-01,3.00508e-01,9.99999e-01,9.99999e-01,9.99999e-01,9.99406e-01,3.00687e-01,9.99999e-01
7.611705167e-01,3.07796e-01,9.99999e-01,9.99999e-01,9.99999e-01,9.99630e-01,3.07909e-01,9.99999e-01
7.649763693e-01,3.15085e-01,9.99999e-01,9.99999e-01,9.99999e-01,9.99768e-01,3.15158e-01,9.99999e-01
7.688012511e-01,3.22376e-01,9.99999e-01,9.99999e-01,9.99999e-01,9.99838e-01,3.22428e-01,9.99999e-01
7.726452574e-01,3.29674e-01,9.99999e-01,9.99999e-01,9.99999e-01,9.99866e-01,3.29718e-01,9.99999e-01
7.765084837e-01,3.36959e-01,9.99999e-01,9.99999e-01,9.99999e-01,9.99808e-01,3.37024e-01,9.99999e-01
7.803910261e-01,3.26996e-01,9.99999e-01,9.99999e-01,9.50374e-01,9.99172e-01,3.44342e-01,9.99998e-01
7.842929812e-01,2.82345e-01,9.99999e-01,9.99999e-01,8.05041e-01,9.97113e-01,3.51671e-01,9.99994e-01
7.882144461e-01,2.82637e-01,9.99999e-01,9.99999e-01,7.91702e-01,9.94126e-01,3.59005e-01,9.99959e-01
7.921555184e-01,3.18086e-01,9.99999e-01,9.99999e-01,8.71029e-01,9.96797e-01,3.66344e-01,9.99929e-01
7.961162960e-01,3.38976e-01,9.99999e-01,9.99999e-01,9.12353e-01,9.94260e-01,3.73683e-01,9.99932e-01
8.000968774e-01,3.60085e-01,9.99999e-01,9.99999e-01,9.51353e-01,9.93422e-01,3.81020e-01,9.99928e-01
8.040973618e-01,3.75987e-01,9.99999e-01,9.99999e-01,9.74620e-01,9.93408e-01,3.88351e-01,9.99945e-01
8.081178486e-01,3.85167e-01,9.99999e-01,9.99999e-01,9.88208e-01,9.85081e-01,3.95675e-01,9.99944e-01
8.121584379e-01,3.77147e-01,9.99999e-01,9.99999e-01,9.96394e-01,9.39408e-01,4.02988e-01,9.99791e-01
8.162192301e-01,3.80729e-01,9.99999e-01,9.99999e-01,9.99201e-01,9.29402e-01,4.10288e-01,9.99218e-01
8.203003262e-01,4.01945e-01,9.99999e-01,9.99999e-01,9.99988e-01,9.63465e-01,4.17571e-01,9.99085e-01
8.244018279e-01,4.03720e-01,9.99999e-01,9.99999e-01,9.99999e-01,9.50984e-01,4.24837e-01,9.99271e-01
8.285238370e-01,4.13216e-01,9.99999e-01,9.99999e-01,9.99999e-01,9.56883e-01,4.32082e-01,9.99428e-01
8.326664562e-01,4.20167e-01,9.99999e-01,9.99999e-01,9.99999e-01,9.56664e-01,4.39303e-01,9.99763e-01
8.368297885e-01,4.32597e-01,9.99999e-01,9.99999e-01,9.99999e-01,9.68915e-01,4.46499e-01,9.99945e-01
8.410139374e-01,4.45228e-01,9.99999e-01,9.99999e-01,9.99999e-01,9.81426e-01,4.53667e-01,9.99967e-01
8.452190071e-01,4.56589e-01,9.99999e-01,9.99999e-01,9.99999e-01,9.90867e-01,4.60806e-01,9.99980e-01
8.494451021e-01,4.65410e-01,9.99999e-01,9.99999e-01,9.99999e-01,9.94666e-01,4.67912e-01,9.99984e-01
8.536923276e-01,4.73487e-01,9.99999e-01,9.99999e-01,9.99999e-01,9.96856e-01,4.74984e-01,9.99990e-01
8.579607893e-01,4.81083e-01,9.99999e-01,9.99999e-01,9.99999e-01,9.98055e-01,4.82021e-01,9.99997e-01
8.622505932e-01,4.88417e-01,9.99999e-01,9.99999e-01,9.99999e-01,9.98768e-01,4.89019e-01,9.99999e-01
8.665618462e-01,4.47724e-01,9.99999e-01,9.99999e-01,9.03367e-01,9.99234e-01,4.95978e-01,9.99999e-01
8.708946554e-01,2.89997e-01,9.99999e-01,9.99999e-01,5.77136e-01,9.99120e-01,5.02895e-01,9.99999e-01
8.752491287e-01,3.26535e-01,9.99999e-01,9.99999e-01,6.41277e-01,9.98825e-01,5.09770e-01,9.99998e-01
8.796253743e-01,4.03522e-01,9.99999e-01,9.99999e-01,7.82339e-01,9.98366e-01,5.16600e-01,9.99995e-01
8.840235012e-01,4.59735e-01,9.99999e-01,9.99999e-01,8.80003e-01,9.98136e-01,5.23384e-01,9.99988e-01
8.884436187e-01,5.00693e-01,9.99999e-01,9.99999e-01,9.51035e-01,9.93052e-01,5.30120e-01,9.99967e-01
8.928858368e-01,4.89399e-01,9.99999e-01,9.99999e-01,9.79826e-01,9.30383e-01,5.36807e-01,9.99814e-01
8.973502660e-01,4.76367e-01,9.99999e-01,9.99999e-01,9.95097e-01,8.81597e-01,5.43445e-01,9.99049e-01
9.018370173e-01,5.15080e-01,9.99999e-01,9.99999e-01,9.99461e-01,9.38340e-01,5.50030e-01,9.98506e-01
9.063462024e-01,5.17704e-01,9.99999e-01,9.99999e-01,9.85650e-01,9.44347e-01,5.56563e-01,9.98687e-01
9.108779334e-01,4.98500e-01,9.99999e-01,9.99999e-01,9.68246e-01,9.15131e-01,5.63043e-01,9.98636e-01
9.154323231e-01,5.10711e-01,9.99999e-01,9.99999e-01,9.92567e-01,9.04351e-01,5.69467e-01,9.98872e-01
9.200094847e-01,4.79680e-01,9.99999e-01,9.99999e-01,8.96408e-01,9.24561e-01,5.75836e-01,9.99368e-01
9.246095321e-01,4.40059e-01,9.99999e-01,9.99999e-01,8.53875e-01,8.82399e-01,5.82148e-01,9.99272e-01
9.292325798e-01,2.33819e-01,9.99999e-01,9.99999e-01,8.82519e-01,4.43928e-01,5.88403e-01,9.96495e-01
9.338787427e-01,1.88714e-01,9.99999e-01,9.99999e-01,8.87310e-01,3.56419e-01,5.94599e-01,9.87393e-01
9.385481364e-01,3.60067e-01,9.99999e-01,9.99999e-01,9.15688e-01,6.59192e-01,6.00736e-01,9.86157e-01
9.432408771e-01,3.19349e-01,9.99999e-01,9.99999e-01,9.47613e-01,5.59821e-01,6.06814e-01,9.88046e-01
9.479570815e-01,2.67404e-01,9.99999e-01,9.99999e-01,9.72701e-01,4.52066e-01,6.12831e-01,9.90260e-01
9.526968669e-01,3.34201e-01,9.99999e-01,9.99999e-01,9.86784e-01,5.49759e-01,6.18787e-01,9.94048e-01
9.574603512e-01,3.54124e-01,9.99999e-01,9.99999e-01,9.94334e-01,5.71547e-01,6.24681e-01,9.96971e-01
9.622476530e-01,3.98248e-01,9.99999e-01,9.99999e-01,9.98232e-01,6.33976e-01,6.30514e-01,9.97905e-01
9.670588912e-01,4.87777e-01,9.99999e-01,9.99999e-01,9.99471e-01,7.68032e-01,6.36285e-01,9.98626e-01
9.718941857e-01,5.43042e-01,9.99999e-01,9.99999e-01,9.99963e-01,8.46787e-01,6.41992e-01,9.98947e-01
9.767536566e-01,5.63610e-01,9.99999e-01,9.99999e-01,9.99999e-01,8.70958e-01,6.47637e-01,9.99193e-01
9.816374249e-01,5.89630e-01,9.99999e-01,9.99999e-01,9.99999e-01,9.02906e-01,6.53218e-01,9.99720e-01
9.865456120e-01,6.17971e-01,9.99999e-01,9.99999e-01,9.99999e-01,9.38170e-01,6.58736e-01,9.99941e-01
9.914783401e-01,6.38463e-01,9.99999e-01,9.99999e-01,9.99999e-01,9.61281e-01,6.64190e-01,9.99983e-01
9.964357318e-01,6.55334e-01,9.99999e-01,9.99999e-01,9.99999e-01,9.78732e-01,6.69580e-01,9.99990e-01
1.001417910e+00,6.66264e-01,9.99999e-01,9.99999e-01,9.99999e-01,9.87209e-01,6.74906e-01,9.99985e-01
1.006425000e+00,6.75167e-01,9.99999e-01,9.99999e-01,9.99999e-01,9.92668e-01,6.80168e-01,9.99979e-01
1.011457125e+00,6.82240e-01,9.99999e-01,9.99999e-01,9.99999e-01,9.95458e-01,6.85365e-01,9.99980e-01
1.016514411e+00,6.88356e-01,9.99999e-01,9.99999e-01,9.99999e-01,9.96909e-01,6.90499e-01,9.99986e-01
1.021596983e+00,6.93783e-01,9.99999e-01,9.99999e-01,9.99910e-01,9.97534e-01,6.95569e-01,9.99986e-01
1.026704968e+00,6.95263e-01,9.99999e-01,9.99999e-01,9.94336e-01,9.98075e-01,7.00574e-01,9.99991e-01
1.031838492e+00,6.60697e-01,9.99999e-01,9.99999e-01,9.37730e-01,9.98604e-01,7.05516e-01,9.99997e-01
1.036997685e+00,7.45369e-02,9.99999e-01,9.99999e-01,1.04991e-01,9.99168e-01,7.10394e-01,9.99999e-01
1.042182673e+00,3.61927e-02,9.99999e-01,9.99999e-01,5.06473e-02,9.99004e-01,7.15208e-01,9.99999e-01
1.047393587e+00,5.21416e-02,9.99999e-01,9.99999e-01,7.25058e-02,9.98682e-01,7.19959e-01,9.99999e-01
1.052630555e+00,3.81510e-04,9.99999e-01,9.99999e-01,5.27142e-04,9.98189e-01,7.24647e-01,9.99999e-01
1.057893707e+00,1.20545e-03,9.99999e-01,9.99999e-01,1.65607e-03,9.96972e-01,7.29271e-01,9.99998e-01
1.063183176e+00,6.24928e-03,9.99999e-01,9.99999e-01,8.54428e-03,9.95029e-01,7.33833e-01,9.99996e-01
1.068499092e+00,2.43318e-02,9.99999e-01,9.99999e-01,3.31730e-02,9.91705e-01,7.38333e-01,9.99993e-01
1.073841587e+00,8.54930e-02,9.99999e-01,9.99999e-01,1.16023e-01,9.90274e-01,7.42770e-01,9.99987e-01
