#,Wave/freq,Total,N2,O2,CO2,H2O,Rayleigh,CIA
4.000000000e-01,1.31704e-04,9.99999e-01,9.99999e-01,9.99999e-01,9.99982e-01,1.31707e-04,9.99999e-01
4.020000000e-01,1.57155e-04,9.99999e-01,9.99999e-01,9.99999e-01,9.99988e-01,1.57157e-04,9.99999e-01
4.040100000e-01,1.86837e-04,9.99999e-01,9.99999e-01,9.99999e-01,9.99994e-01,1.86838e-04,9.99999e-01
4.060300500e-01,2.21367e-04,9.99999e-01,9.99999e-01,9.99999e-01,9.99998e-01,2.21367e-04,9.99999e-01
4.080602003e-01,2.61400e-04,9.99999e-01,9.99999e-01,9.99999e-01,9.99999e-01,2.61401e-04,9.99999e-01
4.101005013e-01,3.07662e-04,9.99999e-01,9.99999e-01,9.99999e-01,9.99999e-01,3.07662e-04,9.99999e-01
4.121510038e-01,3.60946e-04,9.99999e-01,9.99999e-01,9.99999e-01,9.99998e-01,3.60946e-04,9.99999e-01
4.142117588e-01,4.22124e-04,9.99999e-01,9.99999e-01,9.99999e-01,9.99994e-01,4.22126e-04,9.99999e-01
4.162828176e-01,4.92140e-04,9.99999e-01,9.99999e-01,9.99999e-01,9.99978e-01,4.92150e-04,9.99999e-01
4.183642317e-01,5.72047e-04,9.99999e-01,9.99999e-01,9.99999e-01,9.99986e-01,5.72054e-04,9.99999e-01
4.204560528e-01,6.62952e-04,9.99999e-01,9.99999e-01,9.99999e-01,9.99991e-01,6.62957e-04,9.99999e-01
4.225583331e-01,7.66069e-04,9.99999e-01,9.99999e-01,9.99999e-01,9.99996e-01,7.66071e-04,9.99999e-01
4.246711247e-01,8.82697e-04,9.99999e-01,9.99999e-01,9.99999e-01,9.99997e-01,8.82699e-04,9.99999e-01
4.267944804e-01,1.01424e-03,9.99999e-01,9.99999e-01,9.99999e-01,9.99996e-01,1.01424e-03,9.99999e-01
4.289284528e-01,1.16219e-03,9.99999e-01,9.99999e-01,9.99999e-01,9.99996e-01,1.16219e-03,9.99999e-01
4.310730950e-01,1.32814e-03,9.99999e-01,9.99999e-01,9.99999e-01,9.99998e-01,1.32814e-03,9.99999e-01
4.332284605e-01,1.51380e-03,9.99999e-01,9.99999e-01,9.99999e-01,9.99999e-01,1.51380e-03,9.99999e-01
4.353946028e-01,1.72095e-03,9.99999e-01,9.99999e-01,9.99999e-01,9.99999e-01,1.72095e-03,9.99999e-01
4.375715758e-01,1.95150e-03,9.99999e-01,9.99999e-01,9.99999e-01,9.99997e-01,1.95150e-03,9.99999e-01
4.397594337e-01,2.20741e-03,9.99999e-01,9.99999e-01,9.99999e-01,9.99980e-01,2.20745e-03,9.99999e-01
4.419582309e-01,2.49066e-03,9.99999e-01,9.99999e-01,9.99999e-01,9.99904e-01,2.49089e-03,9.99999e-01
4.441680220e-01,2.80383e-03,9.99999e-01,9.99999e-01,9.99999e-01,9.99925e-01,2.80404e-03,9.99999e-01
4.463888621e-01,3.14893e-03,9.99999e-01,9.99999e-01,9.99999e-01,9.99922e-01,3.14917e-03,9.99999e-01
4.486208064e-01,3.52852e-03,9.99999e-01,9.99999e-01,9.99999e-01,9.99951e-01,3.52869e-03,9.99999e-01
4.508639105e-01,3.94497e-03,9.99999e-01,9.99999e-01,9.99999e-01,9.99977e-01,3.94506e-03,9.99999e-01
4.531182300e-01,4.40082e-03,9.99999e-01,9.99999e-01,9.99999e-01,9.99990e-01,4.40086e-03,9.99999e-01
4.553838212e-01,4.89870e-03,9.99999e-01,9.99999e-01,9.99999e-01,9.99993e-01,4.89873e-03,9.99999e-01
4.576607403e-01,5.44138e-03,9.99999e-01,9.99999e-01,9.99999e-01,9.99996e-01,5.44139e-03,9.99999e-01
4.599490440e-01,6.03163e-03,9.99999e-01,9.99999e-01,9.99999e-01,9.99997e-01,6.03164e-03,9.99999e-01
4.622487892e-01,6.67233e-03,9.99999e-01,9.99999e-01,9.99999e-01,9.99999e-01,6.67233e-03,9.99999e-01
4.645600332e-01,7.36636e-03,9.99999e-01,9.99999e-01,9.99999e-01,9.99998e-01,7.36637e-03,9.99999e-01
4.668828333e-01,8.11653e-03,9.99999e-01,9.99999e-01,9.99999e-01,9.99976e-01,8.11672e-03,9.99999e-01
4.692172475e-01,8.92595e-03,9.99999e-01,9.99999e-01,9.99999e-01,9.99951e-01,8.92638e-03,9.99999e-01
4.715633337e-01,9.79808e-03,9.99999e-01,9.99999e-01,9.99999e-01,9.99967e-01,9.79839e-03,9.99999e-01
4.739211504e-01,1.07355e-02,9.99999e-01,9.99999e-01,9.99999e-01,9.99969e-01,1.07358e-02,9.99999e-01
4.762907561e-01,1.17415e-02,9.99999e-01,9.99999e-01,9.99999e-01,9.99983e-01,1.17417e-02,9.99999e-01
4.786722099e-01,1.28190e-02,9.99999e-01,9.99999e-01,9.99999e-01,9.99993e-01,1.28191e-02,9.99999e-01
4.810655710e-01,1.39711e-02,9.99999e-01,9.99999e-01,9.99999e-01,9.99997e-01,1.39712e-02,9.99999e-01
4.834708988e-01,1.52006e-02,9.99999e-01,9.99999e-01,9.99999e-01,9.99981e-01,1.52009e-02,9.99999e-01
4.858882533e-01,1.65107e-02,9.99999e-01,9.99999e-01,9.99999e-01,9.99965e-01,1.65113e-02,9.99999e-01
4.883176946e-01,1.79049e-02,9.99999e-01,9.99999e-01,9.99999e-01,9.99970e-01,1.79054e-02,9.99999e-01
4.907592831e-01,1.93857e-02,9.99999e-01,9.99999e-01,9.99999e-01,9.99973e-01,1.93862e-02,9.99999e-01
4.932130795e-01,2.09561e-02,9.99999e-01,9.99999e-01,9.99999e-01,9.99981e-01,2.09565e-02,9.99999e-01
4.956791449e-01,2.26189e-02,9.99999e-01,9.99999e-01,9.99999e-01,9.99989e-01,2.26192e-02,9.99999e-01
4.981575406e-01,2.43758e-02,9.99999e-01,9.99999e-01,9.99999e-01,9.99950e-01,2.43770e-02,9.99999e-01
5.006483283e-01,2.62292e-02,9.99999e-01,9.99999e-01,9.99999e-01,9.99873e-01,2.62326e-02,9.99998e-01
5.031515699e-01,2.81703e-02,9.99999e-01,9.99999e-01,9.99999e-01,9.99360e-01,2.81885e-02,9.99992e-01
5.056673278e-01,3.02369e-02,9.99999e-01,9.99999e-01,9.99999e-01,9.99662e-01,3.02474e-02,9.99991e-01
5.081956644e-01,3.23974e-02,9.99999e-01,9.99999e-01,9.99999e-01,9.99573e-01,3.24114e-02,9.99994e-01
5.107366428e-01,3.46729e-02,9.99999e-01,9.99999e-01,9.99999e-01,9.99712e-01,3.46829e-02,9.99998e-01
5.132903260e-01,3.70578e-02,9.99999e-01,9.99999e-01,9.99999e-01,9.99835e-01,3.70639e-02,9.99999e-01
5.158567776e-01,3.95538e-02,9.99999e-01,9.99999e-01,9.99999e-01,9.99930e-01,3.95565e-02,9.99999e-01
5.184360615e-01,4.21614e-02,9.99999e-01,9.99999e-01,9.99999e-01,9.99971e-01,4.21625e-02,9.99999e-01
5.210282418e-01,4.48831e-02,9.99999e-01,9.99999e-01,9.99999e-01,9.99989e-01,4.48836e-02,9.99999e-01
5.236333830e-01,4.77193e-02,9.99999e-01,9.99999e-01,9.99999e-01,9.99957e-01,4.77213e-02,9.99999e-01
5.262515499e-01,5.06757e-02,9.99999e-01,9.99999e-01,9.99999e-01,9.99973e-01,5.06770e-02,9.99999e-01
5.288828077e-01,5.37506e-02,9.99999e-01,9.99999e-01,9.99999e-01,9.99975e-01,5.37519e-02,9.99999e-01
5.315272217e-01,5.69460e-02,9.99999e-01,9.99999e-01,9.99999e-01,9.99978e-01,5.69472e-02,9.99999e-01
5.341848578e-01,6.02627e-02,9.99999e-01,9.99999e-01,9.99999e-01,9.99985e-01,6.02635e-02,9.99999e-01
5.368557821e-01,6.36987e-02,9.99999e-01,9.99999e-01,9.99999e-01,9.99951e-01,6.37018e-02,9.99999e-01
5.395400610e-01,6.72506e-02,9.99999e-01,9.99999e-01,9.99999e-01,9.99824e-01,6.72624e-02,9.99998e-01
5.422377613e-01,7.09295e-02,9.99999e-01,9.99999e-01,9.99999e-01,9.99773e-01,7.09458e-02,9.99995e-01
5.449489501e-01,7.47362e-02,9.99999e-01,9.99999e-01,9.99999e-01,9.99789e-01,7.47522e-02,9.99995e-01
5.476736949e-01,7.86667e-02,9.99999e-01,9.99999e-01,9.99999e-01,9.99813e-01,7.86815e-02,9.99997e-01
5.504120634e-01,8.27223e-02,9.99999e-01,9.99999e-01,9.99999e-01,9.99864e-01,8.27336e-02,9.99998e-01
5.531641237e-01,8.69022e-02,9.99999e-01,9.99999e-01,9.99999e-01,9.99931e-01,8.69081e-02,9.99999e-01
5.559299443e-01,9.12015e-02,9.99999e-01,9.99999e-01,9.99999e-01,9.99966e-01,9.12045e-02,9.99999e-01
5.587095940e-01,9.56202e-02,9.99999e-01,9.99999e-01,9.99999e-01,9.99978e-01,9.56222e-02,9.99999e-01
5.615031420e-01,1.00158e-01,9.99999e-01,9.99999e-01,9.99999e-01,9.99976e-01,1.00160e-01,9.99999e-01
5.643106577e-01,1.04815e-01,9.99999e-01,9.99999e-01,9.99999e-01,9.99973e-01,1.04818e-01,9.99999e-01
5.671322110e-01,1.09558e-01,9.99999e-01,9.99999e-01,9.99999e-01,9.99684e-01,1.09593e-01,9.99996e-01
5.699678720e-01,1.14446e-01,9.99999e-01,9.99999e-01,9.99999e-01,9.99662e-01,1.14485e-01,9.99990e-01
5.728177114e-01,1.19450e-01,9.99999e-01,9.99999e-01,9.99999e-01,9.99649e-01,1.19493e-01,9.99992e-01
5.756818000e-01,1.24573e-01,9.99999e-01,9.99999e-01,9.99999e-01,9.99678e-01,1.24614e-01,9.99995e-01
5.785602090e-01,1.29810e-01,9.99999e-01,9.99999e-01,9.99999e-01,9.99719e-01,1.29847e-01,9.99998e-01
5.814530100e-01,1.35151e-01,9.99999e-01,9.99999e-01,9.99999e-01,9.99718e-01,1.35190e-01,9.99998e-01
5.843602750e-01,1.40593e-01,9.99999e-01,9.99999e-01,9.99999e-01,9.99664e-01,1.40640e-01,9.99997e-01
5.872820764e-01,1.45771e-01,9.99999e-01,9.99999e-01,9.99999e-01,9.97113e-01,1.46196e-01,9.99979e-01
5.902184868e-01,1.51315e-01,9.99999e-01,9.99999e-01,9.99999e-01,9.96498e-01,1.51855e-01,9.99944e-01
5.931695792e-01,1.57217e-01,9.99999e-01,9.99999e-01,9.99999e-01,9.97526e-01,1.57616e-01,9.99946e-01
5.961354271e-01,1.63026e-01,9.99999e-01,9.99999e-01,9.99999e-01,9.97287e-01,1.63474e-01,9.99968e-01
5.991161043e-01,1.69091e-01,9.99999e-01,9.99999e-01,9.99999e-01,9.98021e-01,1.69428e-01,9.99990e-01
6.021116848e-01,1.75277e-01,9.99999e-01,9.99999e-01,9.99999e-01,9.98876e-01,1.75475e-01,9.99998e-01
6.051222432e-01,1.81508e-01,9.99999e-01,9.99999e-01,9.99999e-01,9.99431e-01,1.81611e-01,9.99999e-01
6.081478544e-01,1.87789e-01,9.99999e-01,9.99999e-01,9.99999e-01,9.99754e-01,1.87835e-01,9.99999e-01
6.111885937e-01,1.94123e-01,9.99999e-01,9.99999e-01,9.99999e-01,9.99895e-01,1.94143e-01,9.99999e-01
6.142445367e-01,2.00522e-01,9.99999e-01,9.99999e-01,9.99999e-01,9.99953e-01,2.00532e-01,9.99999e-01
6.173157594e-01,2.06993e-01,9.99999e-01,9.99999e-01,9.99999e-01,9.99973e-01,2.06998e-01,9.99999e-01
6.204023382e-01,2.13535e-01,9.99999e-01,9.99999e-01,9.99999e-01,9.99977e-01,2.13539e-01,9.99999e-01
6.235043498e-01,2.20131e-01,9.99999e-01,9.99999e-01,9.99999e-01,9.99904e-01,2.20152e-01,9.99999e-01
6.266218716e-01,2.26717e-01,9.99999e-01,9.99999e-01,9.99999e-01,9.99495e-01,2.26832e-01,9.99995e-01
6.297549810e-01,2.33533e-01,9.99999e-01,9.99999e-01,9.99999e-01,9.99814e-01,2.33578e-01,9.99992e-01
6.329037559e-01,2.40295e-01,9.99999e-01,9.99999e-01,9.99999e-01,9.99634e-01,2.40385e-01,9.99993e-01
6.360682746e-01,2.47172e-01,9.99999e-01,9.99999e-01,9.99999e-01,9.99688e-01,2.47249e-01,9.99996e-01
6.392486160e-01,2.54066e-01,9.99999e-01,9.99999e-01,9.99999e-01,9.99596e-01,2.54169e-01,9.99998e-01
6.424448591e-01,2.60998e-01,9.99999e-01,9.99999e-01,9.99999e-01,9.99461e-01,2.61140e-01,9.99997e-01
6.456570834e-01,2.67484e-01,9.99999e-01,9.99999e-01,9.99999e-01,9.97499e-01,2.68158e-01,9.99985e-01
6.488853688e-01,2.74706e-01,9.99999e-01,9.99999e-01,9.99999e-01,9.98165e-01,2.75221e-01,9.99960e-01
6.521297956e-01,2.81788e-01,9.99999e-01,9.99999e-01,9.99999e-01,9.98129e-01,2.82325e-01,9.99967e-01
6.553904446e-01,2.88921e-01,9.99999e-01,9.99999e-01,9.99999e-01,9.98140e-01,2.89466e-01,9.99975e-01
6.586673968e-01,2.96167e-01,9.99999e-01,9.99999e-01,9.99999e-01,9.98406e-01,2.96642e-01,9.99991e-01
6.619607338e-01,3.03569e-01,9.99999e-01,9.99999e-01,9.99999e-01,9.99078e-01,3.03849e-01,9.99997e-01
6.652705375e-01,3.10917e-01,9.99999e-01,9.99999e-01,9.99999e-01,9.99466e-01,3.11083e-01,9.99998e-01
6.685968902e-01,3.18263e-01,9.99999e-01,9.99999e-01,9.99999e-01,9.99751e-01,3.18342e-01,9.99999e-01
6.719398746e-01,3.25584e-01,9.99999e-01,9.99999e-01,9.99999e-01,9.99884e-01,3.25621e-01,9.99999e-01
6.752995740e-01,3.32898e-01,9.99999e-01,9.99999e-01,9.99999e-01,9.99937e-01,3.32918e-01,9.99999e-01
6.786760719e-01,3.40199e-01,9.99999e-01,9.99999e-01,9.99999e-01,9.99909e-01,3.40230e-01,9.99999e-01
6.820694522e-01,3.47500e-01,9.99999e-01,9.99999e-01,9.99999e-01,9.99846e-01,3.47553e-01,9.99998e-01
6.854797995e-01,3.54814e-01,9.99999e-01,9.99999e-01,9.99999e-01,9.99801e-01,3.54885e-01,9.99997e-01
6.889071985e-01,3.62047e-01,9.99999e-01,9.99999e-01,9.99999e-01,9.99521e-01,3.62221e-01,9.99995e-01
6.923517345e-01,3.66659e-01,9.99999e-01,9.99999e-01,9.99999e-01,9.92186e-01,3.69560e-01,9.99962e-01
6.958134932e-01,3.75329e-01,9.99999e-01,9.99999e-01,9.99999e-01,9.95917e-01,3.76899e-01,9.99916e-01
6.992925606e-01,3.82720e-01,9.99999e-01,9.99999e-01,9.99999e-01,9.96134e-01,3.84234e-01,9.99924e-01
7.027890234e-01,3.89669e-01,9.99999e-01,9.99999e-01,9.99999e-01,9.95222e-01,3.91562e-01,9.99942e-01
7.063029686e-01,3.97268e-01,9.99999e-01,9.99999e-01,9.99999e-01,9.95983e-01,3.98881e-01,9.99971e-01
7.098344834e-01,4.04617e-01,9.99999e-01,9.99999e-01,9.99999e-01,9.96146e-01,4.06189e-01,9.99982e-01
7.133836558e-01,4.11349e-01,9.99999e-01,9.99999e-01,9.99999e-01,9.94874e-01,4.13482e-01,9.99966e-01
7.169505741e-01,4.03546e-01,9.99999e-01,9.99999e-01,9.99999e-01,9.59343e-01,4.20758e-01,9.99736e-01
7.205353270e-01,4.19200e-01,9.99999e-01,9.99999e-01,9.99999e-01,9.79858e-01,4.28015e-01,9.99535e-01
7.241380036e-01,4.24003e-01,9.99999e-01,9.99999e-01,9.99999e-01,9.74549e-01,4.35250e-01,9.99598e-01
7.277586936e-01,4.32143e-01,9.99999e-01,9.99999e-01,9.99999e-01,9.77001e-01,4.42460e-01,9.99671e-01
7.313974871e-01,4.38584e-01,9.99999e-01,9.99999e-01,9.99999e-01,9.75550e-01,4.49644e-01,9.99846e-01
7.350544745e-01,4.50648e-01,9.99999e-01,9.99999e-01,9.99999e-01,9.86584e-01,4.56800e-01,9.99946e-01
7.387297469e-01,4.59327e-01,9.99999e-01,9.99999e-01,9.99999e-01,9.90115e-01,4.63924e-01,9.99975e-01
7.424233956e-01,4.68731e-01,9.99999e-01,9.99999e-01,9.99999e-01,9.95152e-01,4.71016e-01,9.99994e-01
7.461355126e-01,4.76668e-01,9.99999e-01,9.99999e-01,9.99999e-01,9.97061e-01,4.78073e-01,9.99998e-01
7.498661902e-01,4.84428e-01,9.99999e-01,9.99999e-01,9.99999e-01,9.98630e-01,4.85093e-01,9.99999e-01
7.536155211e-01,4.91744e-01,9.99999e-01,9.99999e-01,9.99999e-01,9.99328e-01,4.92074e-01,9.99999e-01
7.573835987e-01,4.98843e-01,9.99999e-01,9.99999e-01,9.99999e-01,9.99654e-01,4.99015e-01,9.99999e-01
7.611705167e-01,5.05805e-01,9.99999e-01,9.99999e-01,9.99999e-01,9.99784e-01,5.05914e-01,9.99999e-01
7.649763693e-01,5.12700e-01,9.99999e-01,9.99999e-01,9.99999e-01,9.99864e-01,5.12769e-01,9.99999e-01
7.688012511e-01,5.19530e-01,9.99999e-01,9.99999e-01,9.99999e-01,9.99905e-01,5.19579e-01,9.99999e-01
7.726452574e-01,5.26302e-01,9.99999e-01,9.99999e-01,9.99999e-01,9.99922e-01,5.26342e-01,9.99999e-01
7.765084837e-01,5.32999e-01,9.99999e-01,9.99999e-01,9.99999e-01,9.99890e-01,5.33057e-01,9.99999e-01
7.803910261e-01,5.23905e-01,9.99999e-01,9.99999e-01,9.71138e-01,9.99526e-01,5.39723e-01,9.99999e-01
7.842929812e-01,4.79540e-01,9.99999e-01,9.99999e-01,8.79127e-01,9.98349e-01,5.46337e-01,9.99996e-01
7.882144461e-01,4.80050e-01,9.99999e-01,9.99999e-01,8.71120e-01,9.96597e-01,5.52900e-01,9.99978e-01
7.921555184e-01,5.15391e-01,9.99999e-01,9.99999e-01,9.23039e-01,9.98131e-01,5.59410e-01,9.99959e-01
7.961162960e-01,5.34551e-01,9.99999e-01,9.99999e-01,9.47794e-01,9.96705e-01,5.65865e-01,9.99960e-01
8.000968774e-01,5.53749e-01,9.99999e-01,9.99999e-01,9.71372e-01,9.96192e-01,5.72265e-01,9.99958e-01
8.040973618e-01,5.67782e-01,9.99999e-01,9.99999e-01,9.85062e-01,9.96191e-01,5.78610e-01,9.99966e-01
8.081178486e-01,5.75888e-01,9.99999e-01,9.99999e-01,9.93121e-01,9.91436e-01,5.84897e-01,9.99968e-01
8.121584379e-01,5.68993e-01,9.99999e-01,9.99999e-01,9.97868e-01,9.64711e-01,5.91126e-01,9.99879e-01
8.162192301e-01,5.71780e-01,9.99999e-01,9.99999e-01,9.99528e-01,9.58156e-01,5.97296e-01,9.99547e-01
8.203003262e-01,5.90387e-01,9.99999e-01,9.99999e-01,9.99992e-01,9.78946e-01,6.03407e-01,9.99470e-01
8.244018279e-01,5.91254e-01,9.99999e-01,9.99999e-01,9.99999e-01,9.70538e-01,6.09458e-01,9.99578e-01
8.285238370e-01,5.99784e-01,9.99999e-01,9.99999e-01,9.99999e-01,9.74869e-01,6.15449e-01,9.99668e-01
8.326664562e-01,6.05497e-01,9.99999e-01,9.99999e-01,9.99999e-01,9.74575e-01,6.21378e-01,9.99862e-01
8.368297885e-01,6.15804e-01,9.99999e-01,9.99999e-01,9.99999e-01,9.81788e-01,6.27245e-01,9.99968e-01
8.410139374e-01,6.26168e-01,9.99999e-01,9.99999e-01,9.99999e-01,9.89145e-01,6.33051e-01,9.99981e-01
8.452190071e-01,6.35379e-01,9.99999e-01,9.99999e-01,9.99999e-01,9.94664e-01,6.38794e-01,9.99988e-01
8.494451021e-01,6.42474e-01,9.99999e-01,9.99999e-01,9.99999e-01,9.96904e-01,6.44474e-01,9.99990e-01
8.536923276e-01,6.48896e-01,9.99999e-01,9.99999e-01,9.99999e-01,9.98167e-01,6.50091e-01,9.99994e-01
8.579607893e-01,6.54904e-01,9.99999e-01,9.99999e-01,9.99999e-01,9.98871e-01,6.55644e-01,9.99998e-01
8.622505932e-01,6.60660e-01,9.99999e-01,9.99999e-01,9.99999e-01,9.99282e-01,6.61134e-01,9.99999e-01
8.665618462e-01,6.21640e-01,9.99999e-01,9.99999e-01,9.33007e-01,9.99556e-01,6.66560e-01,9.99999e-01
8.708946554e-01,4.83618e-01,9.99999e-01,9.99999e-01,7.20107e-01,9.99492e-01,6.71922e-01,9.99999e-01
8.752491287e-01,5.19879e-01,9.99999e-01,9.99999e-01,7.68174e-01,9.99321e-01,6.77220e-01,9.99998e-01
8.796253743e-01,5.90116e-01,9.99999e-01,9.99999e-01,8.65491e-01,9.99060e-01,6.82454e-01,9.99997e-01
8.840235012e-01,6.37399e-01,9.99999e-01,9.99999e-01,9.27947e-01,9.98926e-01,6.87623e-01,9.99992e-01
8.884436187e-01,6.70000e-01,9.99999e-01,9.99999e-01,9.70966e-01,9.96095e-01,6.92729e-01,9.99980e-01
8.928858368e-01,6.61522e-01,9.99999e-01,9.99999e-01,9.88146e-01,9.59442e-01,6.97770e-01,9.99892e-01
8.973502660e-01,6.50781e-01,9.99999e-01,9.99999e-01,9.97107e-01,9.29201e-01,7.02748e-01,9.99450e-01
9.018370173e-01,6.80798e-01,9.99999e-01,9.99999e-01,9.99680e-01,9.63168e-01,7.07662e-01,9.99135e-01
9.063462024e-01,6.83451e-01,9.99999e-01,9.99999e-01,9.91854e-01,9.67615e-01,7.12512e-01,9.99240e-01
9.108779334e-01,6.68267e-01,9.99999e-01,9.99999e-01,9.81358e-01,9.49904e-01,7.17298e-01,9.99211e-01
9.154323231e-01,6.77687e-01,9.99999e-01,9.99999e-01,9.95589e-01,9.43293e-01,7.22021e-01,9.99347e-01
9.200094847e-01,6.51776e-01,9.99999e-01,9.99999e-01,9.37322e-01,9.55275e-01,7.26681e-01,9.99634e-01
9.246095321e-01,6.21456e-01,9.99999e-01,9.99999e-01,9.11973e-01,9.30906e-01,7.31278e-01,9.99579e-01
9.292325798e-01,4.25525e-01,9.99999e-01,9.99999e-01,9.30338e-01,6.18471e-01,7.35813e-01,9.98361e-01
9.338787427e-01,3.70886e-01,9.99999e-01,9.99999e-01,9.32547e-01,5.37357e-01,7.40285e-01,9.93245e-01
9.385481364e-01,5.47743e-01,9.99999e-01,9.99999e-01,9.50020e-01,7.78476e-01,7.44696e-01,9.91971e-01
9.432408771e-01,5.09475e-01,9.99999e-01,9.99999e-01,9.69104e-01,7.05678e-01,7.49044e-01,9.93069e-01
9.479570815e-01,4.55966e-01,9.99999e-01,9.99999e-01,9.84037e-01,6.18097e-01,7.53332e-01,9.94355e-01
9.526968669e-01,5.22661e-01,9.99999e-01,9.99999e-01,9.92270e-01,6.97282e-01,7.57558e-01,9.96553e-01
9.574603512e-01,5.44627e-01,9.99999e-01,9.99999e-01,9.96688e-01,7.18490e-01,7.61725e-01,9.98247e-01
9.622476530e-01,5.83951e-01,9.99999e-01,9.99999e-01,9.98965e-01,7.64181e-01,7.65831e-01,9.98787e-01
9.670588912e-01,6.58663e-01,9.99999e-01,9.99999e-01,9.99689e-01,8.56507e-01,7.69877e-01,9.99170e-01
9.718941857e-01,7.02105e-01,9.99999e-01,9.99999e-01,9.99977e-01,9.07843e-01,7.73864e-01,9.99389e-01
9.767536566e-01,7.17487e-01,9.99999e-01,9.99999e-01,9.99999e-01,9.22895e-01,7.77793e-01,9.99533e-01
9.816374249e-01,7.36422e-01,9.99999e-01,9.99999e-01,9.99999e-01,9.42273e-01,7.81663e-01,9.99838e-01
9.865456120e-01,7.56816e-01,9.99999e-01,9.99999e-01,9.99999e-01,9.63545e-01,7.85476e-01,9.99965e-01
9.914783401e-01,7.71323e-01,9.99999e-01,9.99999e-01,9.99999e-01,9.77318e-01,7.89231e-01,9.99990e-01
9.964357318e-01,7.83082e-01,9.99999e-01,9.99999e-01,9.99999e-01,9.87585e-01,7.92930e-01,9.99994e-01
1.001417910e+00,7.90626e-01,9.99999e-01,9.99999e-01,9.99999e-01,9.92542e-01,7.96572e-01,9.99991e-01
1.006425000e+00,7.96745e-01,9.99999e-01,9.99999e-01,9.99999e-01,9.95744e-01,8.00159e-01,9.99987e-01
1.011457125e+00,8.01557e-01,9.99999e-01,9.99999e-01,9.99999e-01,9.97356e-01,8.03690e-01,9.99988e-01
1.016514411e+00,8.05712e-01,9.99999e-01,9.99999e-01,9.99999e-01,9.98204e-01,8.07167e-01,9.99991e-01
1.021596983e+00,8.09390e-01,9.99999e-01,9.99999e-01,9.99957e-01,9.98569e-01,8.10589e-01,9.99991e-01
1.026704968e+00,8.10466e-01,9.99999e-01,9.99999e-01,9.96824e-01,9.98884e-01,8.13959e-01,9.99994e-01
1.031838492e+00,7.84661e-01,9.99999e-01,9.99999e-01,9.60853e-01,9.99188e-01,8.17275e-01,9.99998e-01
1.036997685e+00,1.45772e-01,9.99999e-01,9.99999e-01,1.77722e-01,9.99518e-01,8.20539e-01,9.99999e-01
1.042182673e+00,1.33039e-01,9.99999e-01,9.99999e-01,1.61588e-01,9.99425e-01,8.23751e-01,9.99999e-01
1.047393587e+00,1.46878e-01,9.99999e-01,9.99999e-01,1.77742e-01,9.99238e-01,8.26912e-01,9.99999e-01
1.052630555e+00,6.55344e-03,9.99999e-01,9.99999e-01,7.90167e-03,9.98955e-01,8.30022e-01,9.99999e-01
1.057893707e+00,1.54308e-02,9.99999e-01,9.99999e-01,1.85452e-02,9.98257e-01,8.33082e-01,9.99998e-01
1.063183176e+00,4.46038e-02,9.99999e-01,9.99999e-01,5.34611e-02,9.97132e-01,8.36092e-01,9.99998e-01
1.068499092e+00,1.11390e-01,9.99999e-01,9.99999e-01,1.33306e-01,9.95200e-01,8.39054e-01,9.99996e-01
1.073841587e+00,2.34577e-01,9.99999e-01,9.99999e-01,2.79970e-01,9.94384e-01,8.41967e-01,9.99992e-01
