#,Wave/freq,Total,N2,O2,CO2,H2O,Rayleigh,CIA
4.000000000e-01,2.47363e-06,9.99999e-01,9.99999e-01,9.99999e-01,9.99974e-01,2.47369e-06,9.99999e-01
4.020000000e-01,3.19299e-06,9.99999e-01,9.99999e-01,9.99999e-01,9.99984e-01,3.19304e-06,9.99999e-01
4.040100000e-01,4.09974e-06,9.99999e-01,9.99999e-01,9.99999e-01,9.99992e-01,4.09977e-06,9.99999e-01
4.060300500e-01,5.23806e-06,9.99999e-01,9.99999e-01,9.99999e-01,9.99998e-01,5.23807e-06,9.99999e-01
4.080602003e-01,6.66009e-06,9.99999e-01,9.99999e-01,9.99999e-01,9.99999e-01,6.66010e-06,9.99999e-01
4.101005013e-01,8.42810e-06,9.99999e-01,9.99999e-01,9.99999e-01,9.99999e-01,8.42810e-06,9.99999e-01
4.121510038e-01,1.06159e-05,9.99999e-01,9.99999e-01,9.99999e-01,9.99998e-01,1.06160e-05,9.99999e-01
4.142117588e-01,1.33108e-05,9.99999e-01,9.99999e-01,9.99999e-01,9.99992e-01,1.33109e-05,9.99999e-01
4.162828176e-01,1.66151e-05,9.99999e-01,9.99999e-01,9.99999e-01,9.99968e-01,1.66157e-05,9.99999e-01
4.183642317e-01,2.06498e-05,9.99999e-01,9.99999e-01,9.99999e-01,9.99981e-01,2.06502e-05,9.99999e-01
4.204560528e-01,2.55541e-05,9.99999e-01,9.99999e-01,9.99999e-01,9.99988e-01,2.55544e-05,9.99999e-01
4.225583331e-01,3.14904e-05,9.99999e-01,9.99999e-01,9.99999e-01,9.99995e-01,3.14905e-05,9.99999e-01
4.246711247e-01,3.86456e-05,9.99999e-01,9.99999e-01,9.99999e-01,9.99996e-01,3.86458e-05,9.99999e-01
4.267944804e-01,4.72352e-05,9.99999e-01,9.99999e-01,9.99999e-01,9.99994e-01,4.72354e-05,9.99999e-01
4.289284528e-01,5.75056e-05,9.99999e-01,9.99999e-01,9.99999e-01,9.99995e-01,5.75058e-05,9.99999e-01
4.310730950e-01,6.97376e-05,9.99999e-01,9.99999e-01,9.99999e-01,9.99997e-01,6.97377e-05,9.99999e-01
4.332284605e-01,8.42499e-05,9.99999e-01,9.99999e-01,9.99999e-01,9.99999e-01,8.42499e-05,9.99999e-01
4.353946028e-01,1.01403e-04,9.99999e-01,9.99999e-01,9.99999e-01,9.99999e-01,1.01403e-04,9.99999e-01
4.375715758e-01,1.21601e-04,9.99999e-01,9.99999e-01,9.99999e-01,9.99996e-01,1.21602e-04,9.99999e-01
4.397594337e-01,1.45298e-04,9.99999e-01,9.99999e-01,9.99999e-01,9.99972e-01,1.45302e-04,9.99999e-01
4.419582309e-01,1.72988e-04,9.99999e-01,9.99999e-01,9.99999e-01,9.99861e-01,1.73012e-04,9.99999e-01
4.441680220e-01,2.05276e-04,9.99999e-01,9.99999e-01,9.99999e-01,9.99892e-01,2.05298e-04,9.99999e-01
4.463888621e-01,2.42759e-04,9.99999e-01,9.99999e-01,9.99999e-01,9.99888e-01,2.42786e-04,9.99999e-01
4.486208064e-01,2.86150e-04,9.99999e-01,9.99999e-01,9.99999e-01,9.99930e-01,2.86170e-04,9.99999e-01
4.508639105e-01,3.36202e-04,9.99999e-01,9.99999e-01,9.99999e-01,9.99967e-01,3.36213e-04,9.99999e-01
4.531182300e-01,3.93747e-04,9.99999e-01,9.99999e-01,9.99999e-01,9.99986e-01,3.93752e-04,9.99999e-01
4.553838212e-01,4.59697e-04,9.99999e-01,9.99999e-01,9.99999e-01,9.99990e-01,4.59701e-04,9.99999e-01
4.576607403e-01,5.35055e-04,9.99999e-01,9.99999e-01,9.99999e-01,9.99995e-01,5.35057e-04,9.99999e-01
4.599490440e-01,6.20899e-04,9.99999e-01,9.99999e-01,9.99999e-01,9.99996e-01,6.20901e-04,9.99999e-01
4.622487892e-01,7.18402e-04,9.99999e-01,9.99999e-01,9.99999e-01,9.99999e-01,7.18403e-04,9.99999e-01
4.645600332e-01,8.28823e-04,9.99999e-01,9.99999e-01,9.99999e-01,9.99997e-01,8.28824e-04,9.99999e-01
4.668828333e-01,9.53490e-04,9.99999e-01,9.99999e-01,9.99999e-01,9.99966e-01,9.53521e-04,9.99999e-01
4.692172475e-01,1.09387e-03,9.99999e-01,9.99999e-01,9.99999e-01,9.99929e-01,1.09395e-03,9.99999e-01
4.715633337e-01,1.25159e-03,9.99999e-01,9.99999e-01,9.99999e-01,9.99953e-01,1.25165e-03,9.99999e-01
4.739211504e-01,1.42822e-03,9.99999e-01,9.99999e-01,9.99999e-01,9.99955e-01,1.42829e-03,9.99999e-01
4.762907561e-01,1.62557e-03,9.99999e-01,9.99999e-01,9.99999e-01,9.99976e-01,1.62560e-03,9.99999e-01
4.786722099e-01,1.84544e-03,9.99999e-01,9.99999e-01,9.99999e-01,9.99990e-01,1.84546e-03,9.99999e-01
4.810655710e-01,2.08980e-03,9.99999e-01,9.99999e-01,9.99999e-01,9.99996e-01,2.08980e-03,9.99999e-01
4.834708988e-01,2.36063e-03,9.99999e-01,9.99999e-01,9.99999e-01,9.99972e-01,2.36069e-03,9.99999e-01
4.858882533e-01,2.66016e-03,9.99999e-01,9.99999e-01,9.99999e-01,9.99950e-01,2.66029e-03,9.99999e-01
4.883176946e-01,2.99071e-03,9.99999e-01,9.99999e-01,9.99999e-01,9.99958e-01,2.99084e-03,9.99999e-01
4.907592831e-01,3.35456e-03,9.99999e-01,9.99999e-01,9.99999e-01,9.99962e-01,3.35469e-03,9.99999e-01
4.932130795e-01,3.75418e-03,9.99999e-01,9.99999e-01,9.99999e-01,9.99972e-01,3.75428e-03,9.99999e-01
4.956791449e-01,4.19208e-03,9.99999e-01,9.99999e-01,9.99999e-01,9.99985e-01,4.19214e-03,9.99999e-01
4.981575406e-01,4.67055e-03,9.99999e-01,9.99999e-01,9.99999e-01,9.99929e-01,4.67088e-03,9.99999e-01
5.006483283e-01,5.19223e-03,9.99999e-01,9.99999e-01,9.99999e-01,9.99816e-01,5.19318e-03,9.99998e-01
5.031515699e-01,5.75644e-03,9.99999e-01,9.99999e-01,9.99999e-01,9.99075e-01,5.76182e-03,9.99989e-01
5.056673278e-01,6.37643e-03,9.99999e-01,9.99999e-01,9.99999e-01,9.99512e-01,6.37961e-03,9.99988e-01
5.081956644e-01,7.04506e-03,9.99999e-01,9.99999e-01,9.99999e-01,9.99385e-01,7.04944e-03,9.99992e-01
5.107366428e-01,7.77103e-03,9.99999e-01,9.99999e-01,9.99999e-01,9.99584e-01,7.77426e-03,9.99998e-01
5.132903260e-01,8.55502e-03,9.99999e-01,9.99999e-01,9.99999e-01,9.99762e-01,8.55704e-03,9.99999e-01
5.158567776e-01,9.39987e-03,9.99999e-01,9.99999e-01,9.99999e-01,9.99899e-01,9.40081e-03,9.99999e-01
5.184360615e-01,1.03082e-02,9.99999e-01,9.99999e-01,9.99999e-01,9.99959e-01,1.03086e-02,9.99999e-01
5.210282418e-01,1.12834e-02,9.99999e-01,9.99999e-01,9.99999e-01,9.99984e-01,1.12835e-02,9.99999e-01
5.236333830e-01,1.23279e-02,9.99999e-01,9.99999e-01,9.99999e-01,9.99939e-01,1.23286e-02,9.99999e-01
5.262515499e-01,1.34464e-02,9.99999e-01,9.99999e-01,9.99999e-01,9.99961e-01,1.34469e-02,9.99998e-01
5.288828077e-01,1.46410e-02,9.99999e-01,9.99999e-01,9.99999e-01,9.99964e-01,1.46416e-02,9.99999e-01
5.315272217e-01,1.59151e-02,9.99999e-01,9.99999e-01,9.99999e-01,9.99969e-01,1.59155e-02,9.99999e-01
5.341848578e-01,1.72715e-02,9.99999e-01,9.99999e-01,9.99999e-01,9.99979e-01,1.72719e-02,9.99999e-01
5.368557821e-01,1.87123e-02,9.99999e-01,9.99999e-01,9.99999e-01,9.99929e-01,1.87136e-02,9.99999e-01
5.395400610e-01,2.02383e-02,9.99999e-01,9.99999e-01,9.99999e-01,9.99745e-01,2.02435e-02,9.99997e-01
5.422377613e-01,2.18573e-02,9.99999e-01,9.99999e-01,9.99999e-01,9.99673e-01,2.18646e-02,9.99993e-01
5.449489501e-01,2.35722e-02,9.99999e-01,9.99999e-01,9.99999e-01,9.99694e-01,2.35795e-02,9.99993e-01
5.476736949e-01,2.53842e-02,9.99999e-01,9.99999e-01,9.99999e-01,9.99730e-01,2.53911e-02,9.99996e-01
5.504120634e-01,2.72966e-02,9.99999e-01,9.99999e-01,9.99999e-01,9.99804e-01,2.73019e-02,9.99998e-01
5.531641237e-01,2.93116e-02,9.99999e-01,9.99999e-01,9.99999e-01,9.99901e-01,2.93145e-02,9.99999e-01
5.559299443e-01,3.14297e-02,9.99999e-01,9.99999e-01,9.99999e-01,9.99952e-01,3.14312e-02,9.99999e-01
5.587095940e-01,3.36534e-02,9.99999e-01,9.99999e-01,9.99999e-01,9.99969e-01,3.36544e-02,9.99999e-01
5.615031420e-01,3.59850e-02,9.99999e-01,9.99999e-01,9.99999e-01,9.99966e-01,3.59862e-02,9.99999e-01
5.643106577e-01,3.84273e-02,9.99999e-01,9.99999e-01,9.99999e-01,9.99961e-01,3.84288e-02,9.99999e-01
5.671322110e-01,4.09648e-02,9.99999e-01,9.99999e-01,9.99999e-01,9.99538e-01,4.09839e-02,9.99995e-01
5.699678720e-01,4.36317e-02,9.99999e-01,9.99999e-01,9.99999e-01,9.99515e-01,4.36533e-02,9.99987e-01
5.728177114e-01,4.64147e-02,9.99999e-01,9.99999e-01,9.99999e-01,9.99493e-01,4.64387e-02,9.99989e-01
5.756818000e-01,4.93183e-02,9.99999e-01,9.99999e-01,9.99999e-01,9.99535e-01,4.93415e-02,9.99993e-01
5.785602090e-01,5.23418e-02,9.99999e-01,9.99999e-01,9.99999e-01,9.99595e-01,5.23630e-02,9.99997e-01
5.814530100e-01,5.54818e-02,9.99999e-01,9.99999e-01,9.99999e-01,9.99593e-01,5.55044e-02,9.99998e-01
5.843602750e-01,5.87378e-02,9.99999e-01,9.99999e-01,9.99999e-01,9.99513e-01,5.87665e-02,9.99996e-01
5.872820764e-01,6.18883e-02,9.99999e-01,9.99999e-01,9.99999e-01,9.95813e-01,6.21502e-02,9.99970e-01
5.902184868e-01,6.53195e-02,9.99999e-01,9.99999e-01,9.99999e-01,9.94951e-01,6.56561e-02,9.99919e-01
5.931695792e-01,6.90318e-02,9.99999e-01,9.99999e-01,9.99999e-01,9.96426e-01,6.92846e-02,9.99922e-01
5.961354271e-01,7.27471e-02,9.99999e-01,9.99999e-01,9.99999e-01,9.96087e-01,7.30360e-02,9.99955e-01
5.991161043e-01,7.66900e-02,9.99999e-01,9.99999e-01,9.99999e-01,9.97147e-01,7.69104e-02,9.99985e-01
6.021116848e-01,8.07766e-02,9.99999e-01,9.99999e-01,9.99999e-01,9.98381e-01,8.09077e-02,9.99997e-01
6.051222432e-01,8.49579e-02,9.99999e-01,9.99999e-01,9.99999e-01,9.99180e-01,8.50275e-02,9.99999e-01
6.081478544e-01,8.92380e-02,9.99999e-01,9.99999e-01,9.99999e-01,9.99646e-01,8.92696e-02,9.99999e-01
6.111885937e-01,9.36192e-02,9.99999e-01,9.99999e-01,9.99999e-01,9.99850e-01,9.36332e-02,9.99999e-01
6.142445367e-01,9.81110e-02,9.99999e-01,9.99999e-01,9.99999e-01,9.99932e-01,9.81175e-02,9.99999e-01
6.173157594e-01,1.02718e-01,9.99999e-01,9.99999e-01,9.99999e-01,9.99962e-01,1.02722e-01,9.99999e-01
6.204023382e-01,1.07441e-01,9.99999e-01,9.99999e-01,9.99999e-01,9.99968e-01,1.07444e-01,9.99999e-01
6.235043498e-01,1.12269e-01,9.99999e-01,9.99999e-01,9.99999e-01,9.99861e-01,1.12285e-01,9.99999e-01
6.266218716e-01,1.17155e-01,9.99999e-01,9.99999e-01,9.99999e-01,9.99271e-01,1.17241e-01,9.99994e-01
6.297549810e-01,1.22278e-01,9.99999e-01,9.99999e-01,9.99999e-01,9.99732e-01,1.22311e-01,9.99989e-01
6.329037559e-01,1.27426e-01,9.99999e-01,9.99999e-01,9.99999e-01,9.99472e-01,1.27495e-01,9.99991e-01
6.360682746e-01,1.32728e-01,9.99999e-01,9.99999e-01,9.99999e-01,9.99549e-01,1.32789e-01,9.99994e-01
6.392486160e-01,1.38110e-01,9.99999e-01,9.99999e-01,9.99999e-01,9.99417e-01,1.38191e-01,9.99997e-01
6.424448591e-01,1.43587e-01,9.99999e-01,9.99999e-01,9.99999e-01,9.99217e-01,1.43700e-01,9.99995e-01
6.456570834e-01,1.48769e-01,9.99999e-01,9.99999e-01,9.99999e-01,9.96370e-01,1.49314e-01,9.99977e-01
6.488853688e-01,1.54611e-01,9.99999e-01,9.99999e-01,9.99999e-01,9.97356e-01,1.55029e-01,9.99943e-01
6.521297956e-01,1.60403e-01,9.99999e-01,9.99999e-01,9.99999e-01,9.97304e-01,1.60844e-01,9.99953e-01
6.553904446e-01,1.66302e-01,9.99999e-01,9.99999e-01,9.99999e-01,9.97311e-01,1.66756e-01,9.99965e-01
6.586673968e-01,1.72362e-01,9.99999e-01,9.99999e-01,9.99999e-01,9.97702e-01,1.72761e-01,9.99987e-01
6.619607338e-01,1.78629e-01,9.99999e-01,9.99999e-01,9.99999e-01,9.98719e-01,1.78858e-01,9.99997e-01
6.652705375e-01,1.84901e-01,9.99999e-01,9.99999e-01,9.99999e-01,9.99231e-01,1.85043e-01,9.99998e-01
6.685968902e-01,1.91251e-01,9.99999e-01,9.99999e-01,9.99999e-01,9.99673e-01,1.91314e-01,9.99999e-01
6.719398746e-01,1.97634e-01,9.99999e-01,9.99999e-01,9.99999e-01,9.99834e-01,1.97667e-01,9.99999e-01
6.752995740e-01,2.04081e-01,9.99999e-01,9.99999e-01,9.99999e-01,9.99909e-01,2.04099e-01,9.99999e-01
6.786760719e-01,2.10580e-01,9.99999e-01,9.99999e-01,9.99999e-01,9.99869e-01,2.10607e-01,9.99999e-01
6.820694522e-01,2.17140e-01,9.99999e-01,9.99999e-01,9.99999e-01,9.99777e-01,2.17188e-01,9.99998e-01
6.854797995e-01,2.23774e-01,9.99999e-01,9.99999e-01,9.99999e-01,9.99713e-01,2.23839e-01,9.99997e-01
6.889071985e-01,2.30393e-01,9.99999e-01,9.99999e-01,9.99999e-01,9.99300e-01,2.30556e-01,9.99993e-01
6.923517345e-01,2.34638e-01,9.99999e-01,9.99999e-01,9.99999e-01,9.88686e-01,2.37335e-01,9.99945e-01
6.958134932e-01,2.42720e-01,9.99999e-01,9.99999e-01,9.99999e-01,9.94161e-01,2.44175e-01,9.99879e-01
6.992925606e-01,2.49637e-01,9.99999e-01,9.99999e-01,9.99999e-01,9.94397e-01,2.51070e-01,9.99891e-01
7.027890234e-01,2.56220e-01,9.99999e-01,9.99999e-01,9.99999e-01,9.93113e-01,2.58018e-01,9.99916e-01
7.063029686e-01,2.63470e-01,9.99999e-01,9.99999e-01,9.99999e-01,9.94205e-01,2.65016e-01,9.99958e-01
7.098344834e-01,2.70540e-01,9.99999e-01,9.99999e-01,9.99999e-01,9.94439e-01,2.72059e-01,9.99975e-01
7.133836558e-01,2.77053e-01,9.99999e-01,9.99999e-01,9.99999e-01,9.92550e-01,2.79146e-01,9.99951e-01
7.169505741e-01,2.69489e-01,9.99999e-01,9.99999e-01,9.99999e-01,9.41736e-01,2.86271e-01,9.99619e-01
7.205353270e-01,2.84822e-01,9.99999e-01,9.99999e-01,9.99999e-01,9.71310e-01,2.93432e-01,9.99328e-01
7.241380036e-01,2.89462e-01,9.99999e-01,9.99999e-01,9.99999e-01,9.63426e-01,3.00625e-01,9.99420e-01
7.277586936e-01,2.97533e-01,9.99999e-01,9.99999e-01,9.99999e-01,9.66953e-01,3.07847e-01,9.99526e-01
7.313974871e-01,3.04000e-01,9.99999e-01,9.99999e-01,9.99999e-01,9.65002e-01,3.15095e-01,9.99777e-01
7.350544745e-01,3.16127e-01,9.99999e-01,9.99999e-01,9.99999e-01,9.80720e-01,3.22366e-01,9.99922e-01
7.387297469e-01,3.24958e-01,9.99999e-01,9.99999e-01,9.99999e-01,9.85785e-01,3.29655e-01,9.99964e-01
7.424233956e-01,3.34610e-01,9.99999e-01,9.99999e-01,9.99999e-01,9.93029e-01,3.36961e-01,9.99993e-01
7.461355126e-01,3.42822e-01,9.99999e-01,9.99999e-01,9.99999e-01,9.95768e-01,3.44279e-01,9.99998e-01
7.498661902e-01,3.50915e-01,9.99999e-01,9.99999e-01,9.99999e-01,9.98030e-01,3.51608e-01,9.99999e-01
7.536155211e-01,3.58595e-01,9.99999e-01,9.99999e-01,9.99999e-01,9.99032e-01,3.58942e-01,9.99999e-01
7.573835987e-01,3.66098e-01,9.99999e-01,9.99999e-01,9.99999e-01,9.99501e-01,3.66281e-01,9.99999e-01
7.611705167e-01,3.73504e-01,9.99999e-01,9.99999e-01,9.99999e-01,9.99690e-01,3.73620e-01,9.99999e-01
7.649763693e-01,3.80883e-01,9.99999e-01,9.99999e-01,9.99999e-01,9.99805e-01,3.80957e-01,9.99999e-01
7.688012511e-01,3.88236e-01,9.99999e-01,9.99999e-01,9.99999e-01,9.99864e-01,3.88288e-01,9.99999e-01
7.726452574e-01,3.95568e-01,9.99999e-01,9.99999e-01,9.99999e-01,9.99888e-01,3.95612e-01,9.99999e-01
7.765084837e-01,4.02861e-01,9.99999e-01,9.99999e-01,9.99999e-01,9.99840e-01,4.02925e-01,9.99999e-01
7.803910261e-01,3.93098e-01,9.99999e-01,9.99999e-01,9.58882e-01,9.99313e-01,4.10225e-01,9.99998e-01
7.842929812e-01,3.46781e-01,9.99999e-01,9.99999e-01,8.32478e-01,9.97604e-01,4.17509e-01,9.99995e-01
7.882144461e-01,3.47280e-01,9.99999e-01,9.99999e-01,8.21434e-01,9.95088e-01,4.24775e-01,9.99965e-01
7.921555184e-01,3.83879e-01,9.99999e-01,9.99999e-01,8.90949e-01,9.97311e-01,4.32020e-01,9.99940e-01
7.961162960e-01,4.04710e-01,9.99999e-01,9.99999e-01,9.25806e-01,9.95225e-01,4.39241e-01,9.99943e-01
8.000968774e-01,4.25776e-01,9.99999e-01,9.99999e-01,9.59030e-01,9.94501e-01,4.46437e-01,9.99940e-01
8.040973618e-01,4.41445e-01,9.99999e-01,9.99999e-01,9.78607e-01,9.94496e-01,4.53606e-01,9.99954e-01
8.081178486e-01,4.50514e-01,9.99999e-01,9.99999e-01,9.90102e-01,9.87593e-01,4.60744e-01,9.99953e-01
8.121584379e-01,4.42717e-01,9.99999e-01,9.99999e-01,9.96948e-01,9.49304e-01,4.67851e-01,9.99825e-01
8.162192301e-01,4.46019e-01,9.99999e-01,9.99999e-01,9.99325e-01,9.40370e-01,4.74924e-01,9.99347e-01
8.203003262e-01,4.66958e-01,9.99999e-01,9.99999e-01,9.99989e-01,9.69620e-01,4.81960e-01,9.99235e-01
8.244018279e-01,4.68283e-01,9.99999e-01,9.99999e-01,9.99999e-01,9.58295e-01,4.88959e-01,9.99391e-01
8.285238370e-01,4.77778e-01,9.99999e-01,9.99999e-01,9.99999e-01,9.63880e-01,4.95918e-01,9.99521e-01
8.326664562e-01,4.84420e-01,9.99999e-01,9.99999e-01,9.99999e-01,9.63565e-01,5.02836e-01,9.99802e-01
8.368297885e-01,4.96369e-01,9.99999e-01,9.99999e-01,9.99999e-01,9.73867e-01,5.09711e-01,9.99954e-01
8.410139374e-01,5.08470e-01,9.99999e-01,9.99999e-01,9.99999e-01,9.84398e-01,5.16541e-01,9.99973e-01
8.452190071e-01,5.19302e-01,9.99999e-01,9.99999e-01,9.99999e-01,9.92326e-01,5.23326e-01,9.99983e-01
8.494451021e-01,5.27689e-01,9.99999e-01,9.99999e-01,9.99999e-01,9.95534e-01,5.30062e-01,9.99986e-01
8.536923276e-01,5.35330e-01,9.99999e-01,9.99999e-01,9.99999e-01,9.97361e-01,5.36750e-01,9.99991e-01
8.579607893e-01,5.42503e-01,9.99999e-01,9.99999e-01,9.99999e-01,9.98372e-01,5.43388e-01,9.99997e-01
8.622505932e-01,5.49406e-01,9.99999e-01,9.99999e-01,9.99999e-01,9.98966e-01,5.49974e-01,9.99999e-01
8.665618462e-01,5.08762e-01,9.99999e-01,9.99999e-01,9.14764e-01,9.99359e-01,5.56507e-01,9.99999e-01
8.708946554e-01,3.53480e-01,9.99999e-01,9.99999e-01,6.28307e-01,9.99266e-01,5.62987e-01,9.99999e-01
8.752491287e-01,3.90864e-01,9.99999e-01,9.99999e-01,6.87084e-01,9.99018e-01,5.69412e-01,9.99998e-01
8.796253743e-01,4.67601e-01,9.99999e-01,9.99999e-01,8.13184e-01,9.98639e-01,5.75782e-01,9.99996e-01
8.840235012e-01,5.21982e-01,9.99999e-01,9.99999e-01,8.98109e-01,9.98446e-01,5.82094e-01,9.99990e-01
8.884436187e-01,5.60789e-01,9.99999e-01,9.99999e-01,9.58587e-01,9.94294e-01,5.88349e-01,9.99972e-01
8.928858368e-01,5.50426e-01,9.99999e-01,9.99999e-01,9.83000e-01,9.41776e-01,5.94546e-01,9.99844e-01
8.973502660e-01,5.37845e-01,9.99999e-01,9.99999e-01,9.95858e-01,8.99734e-01,6.00684e-01,9.99205e-01
9.018370173e-01,5.74046e-01,9.99999e-01,9.99999e-01,9.99543e-01,9.47679e-01,6.06762e-01,9.98751e-01
9.063462024e-01,5.76971e-01,9.99999e-01,9.99999e-01,9.88154e-01,9.53466e-01,6.12779e-01,9.98903e-01
9.108779334e-01,5.58759e-01,9.99999e-01,9.99999e-01,9.73274e-01,9.28546e-01,6.18736e-01,9.98860e-01
9.154323231e-01,5.70157e-01,9.99999e-01,9.99999e-01,9.93696e-01,9.19294e-01,6.24631e-01,9.99058e-01
9.200094847e-01,5.40425e-01,9.99999e-01,9.99999e-01,9.12218e-01,9.36307e-01,6.30464e-01,9.99472e-01
9.246095321e-01,5.03528e-01,9.99999e-01,9.99999e-01,8.75831e-01,9.01598e-01,6.36235e-01,9.99392e-01
9.292325798e-01,2.95069e-01,9.99999e-01,9.99999e-01,9.01025e-01,5.04807e-01,6.41943e-01,9.97633e-01
9.338787427e-01,2.44458e-01,9.99999e-01,9.99999e-01,9.04493e-01,4.16341e-01,6.47589e-01,9.90253e-01
9.385481364e-01,4.23035e-01,9.99999e-01,9.99999e-01,9.28814e-01,7.01926e-01,6.53170e-01,9.88419e-01
9.432408771e-01,3.82565e-01,9.99999e-01,9.99999e-01,9.55838e-01,6.11965e-01,6.58689e-01,9.90001e-01
9.479570815e-01,3.28628e-01,9.99999e-01,9.99999e-01,9.77069e-01,5.09825e-01,6.64143e-01,9.91854e-01
9.526968669e-01,3.97036e-01,9.99999e-01,9.99999e-01,9.88892e-01,6.01976e-01,6.69534e-01,9.95023e-01
9.574603512e-01,4.18250e-01,9.99999e-01,9.99999e-01,9.95237e-01,6.24066e-01,6.74860e-01,9.97468e-01
9.622476530e-01,4.61679e-01,9.99999e-01,9.99999e-01,9.98513e-01,6.80948e-01,6.80123e-01,9.98248e-01
9.670588912e-01,5.48025e-01,9.99999e-01,9.99999e-01,9.99554e-01,8.00955e-01,6.85321e-01,9.98802e-01
9.718941857e-01,6.00134e-01,9.99999e-01,9.99999e-01,9.99968e-01,8.69977e-01,6.90455e-01,9.99117e-01
9.767536566e-01,6.19140e-01,9.99999e-01,9.99999e-01,9.99999e-01,8.90775e-01,6.95525e-01,9.99325e-01
9.816374249e-01,6.42882e-01,9.99999e-01,9.99999e-01,9.99999e-01,9.17919e-01,7.00532e-01,9.99766e-01
9.865456120e-01,6.68685e-01,9.99999e-01,9.99999e-01,9.99999e-01,9.47897e-01,7.05474e-01,9.99950e-01
9.914783401e-01,6.87226e-01,9.99999e-01,9.99999e-01,9.99999e-01,9.67456e-01,7.10352e-01,9.99986e-01
9.964357318e-01,7.02396e-01,9.99999e-01,9.99999e-01,9.99999e-01,9.82149e-01,7.15167e-01,9.99991e-01
1.001417910e+00,7.12183e-01,9.99999e-01,9.99999e-01,9.99999e-01,9.89266e-01,7.19919e-01,9.99987e-01
1.006425000e+00,7.20147e-01,9.99999e-01,9.99999e-01,9.99999e-01,9.93862e-01,7.24607e-01,9.99982e-01
1.011457125e+00,7.26443e-01,9.99999e-01,9.99999e-01,9.99999e-01,9.96191e-01,7.29232e-01,9.99983e-01
1.016514411e+00,7.31887e-01,9.99999e-01,9.99999e-01,9.99999e-01,9.97411e-01,7.33794e-01,9.99988e-01
1.021596983e+00,7.36713e-01,9.99999e-01,9.99999e-01,9.99932e-01,9.97936e-01,7.38294e-01,9.99988e-01
1.026704968e+00,7.38087e-01,9.99999e-01,9.99999e-01,9.95352e-01,9.98389e-01,7.42732e-01,9.99992e-01
1.031838492e+00,7.06994e-01,9.99999e-01,9.99999e-01,9.47376e-01,9.98830e-01,7.47109e-01,9.99997e-01
1.036997685e+00,9.45061e-02,9.99999e-01,9.99999e-01,1.25838e-01,9.99304e-01,7.51423e-01,9.99999e-01
1.042182673e+00,5.91629e-02,9.99999e-01,9.99999e-01,7.83477e-02,9.99169e-01,7.55677e-01,9.99999e-01
1.047393587e+00,7.75682e-02,9.99999e-01,9.99999e-01,1.02179e-01,9.98899e-01,7.59870e-01,9.99999e-01
1.052630555e+00,1.11368e-03,9.99999e-01,9.99999e-01,1.45926e-03,9.98489e-01,7.64003e-01,9.99999e-01
1.057893707e+00,3.16712e-03,9.99999e-01,9.99999e-01,4.13017e-03,9.97477e-01,7.68076e-01,9.99998e-01
1.063183176e+00,1.31648e-02,9.99999e-01,9.99999e-01,1.70997e-02,9.95853e-01,7.72090e-01,9.99997e-01
1.068499092e+00,4.37441e-02,9.99999e-01,9.99999e-01,5.66886e-02,9.93068e-01,7.76045e-01,9.99994e-01
1.073841587e+00,1.26136e-01,9.99999e-01,9.99999e-01,1.62827e-01,9.91884e-01,7.79941e-01,9.99989e-01
