#,Wave/freq,Total,N2,O2,CO2,H2O,Rayleigh,CIA
4.000000000e-01,3.42786e-06,9.99999e-01,9.99999e-01,9.99999e-01,9.99975e-01,3.42794e-06,9.99999e-01
4.020000000e-01,4.39629e-06,9.99999e-01,9.99999e-01,9.99999e-01,9.99984e-01,4.39636e-06,9.99999e-01
4.040100000e-01,5.60922e-06,9.99999e-01,9.99999e-01,9.99999e-01,9.99993e-01,5.60925e-06,9.99999e-01
4.060300500e-01,7.12240e-06,9.99999e-01,9.99999e-01,9.99999e-01,9.99998e-01,7.12241e-06,9.99999e-01
4.080602003e-01,9.00120e-06,9.99999e-01,9.99999e-01,9.99999e-01,9.99999e-01,9.00120e-06,9.99999e-01
4.101005013e-01,1.13231e-05,9.99999e-01,9.99999e-01,9.99999e-01,9.99999e-01,1.13231e-05,9.99999e-01
4.121510038e-01,1.41795e-05,9.99999e-01,9.99999e-01,9.99999e-01,9.99998e-01,1.41795e-05,9.99999e-01
4.142117588e-01,1.76777e-05,9.99999e-01,9.99999e-01,9.99999e-01,9.99992e-01,1.76778e-05,9.99999e-01
4.162828176e-01,2.19427e-05,9.99999e-01,9.99999e-01,9.99999e-01,9.99969e-01,2.19434e-05,9.99999e-01
4.183642317e-01,2.71217e-05,9.99999e-01,9.99999e-01,9.99999e-01,9.99981e-01,2.71222e-05,9.99999e-01
4.204560528e-01,3.33828e-05,9.99999e-01,9.99999e-01,9.99999e-01,9.99988e-01,3.33832e-05,9.99999e-01
4.225583331e-01,4.09211e-05,9.99999e-01,9.99999e-01,9.99999e-01,9.99995e-01,4.09213e-05,9.99999e-01
4.246711247e-01,4.99600e-05,9.99999e-01,9.99999e-01,9.99999e-01,9.99996e-01,4.99602e-05,9.99999e-01
4.267944804e-01,6.07554e-05,9.99999e-01,9.99999e-01,9.99999e-01,9.99994e-01,6.07557e-05,9.99999e-01
4.289284528e-01,7.35986e-05,9.99999e-01,9.99999e-01,9.99999e-01,9.99995e-01,7.35989e-05,9.99999e-01
4.310730950e-01,8.88199e-05,9.99999e-01,9.99999e-01,9.99999e-01,9.99997e-01,8.88200e-05,9.99999e-01
4.332284605e-01,1.06792e-04,9.99999e-01,9.99999e-01,9.99999e-01,9.99999e-01,1.06792e-04,9.99999e-01
4.353946028e-01,1.27933e-04,9.99999e-01,9.99999e-01,9.99999e-01,9.99999e-01,1.27933e-04,9.99999e-01
4.375715758e-01,1.52714e-04,9.99999e-01,9.99999e-01,9.99999e-01,9.99996e-01,1.52715e-04,9.99999e-01
4.397594337e-01,1.81655e-04,9.99999e-01,9.99999e-01,9.99999e-01,9.99973e-01,1.81660e-04,9.99999e-01
4.419582309e-01,2.15323e-04,9.99999e-01,9.99999e-01,9.99999e-01,9.99867e-01,2.15351e-04,9.99999e-01
4.441680220e-01,2.54408e-04,9.99999e-01,9.99999e-01,9.99999e-01,9.99894e-01,2.54435e-04,9.99999e-01
4.463888621e-01,2.99591e-04,9.99999e-01,9.99999e-01,9.99999e-01,9.99890e-01,2.99623e-04,9.99999e-01
4.486208064e-01,3.51676e-04,9.99999e-01,9.99999e-01,9.99999e-01,9.99931e-01,3.51700e-04,9.99999e-01
4.508639105e-01,4.11510e-04,9.99999e-01,9.99999e-01,9.99999e-01,9.99967e-01,4.11523e-04,9.99999e-01
4.531182300e-01,4.80023e-04,9.99999e-01,9.99999e-01,9.99999e-01,9.99986e-01,4.80029e-04,9.99999e-01
4.553838212e-01,5.58235e-04,9.99999e-01,9.99999e-01,9.99999e-01,9.99991e-01,5.58240e-04,9.99999e-01
4.576607403e-01,6.47258e-04,9.99999e-01,9.99999e-01,9.99999e-01,9.99995e-01,6.47261e-04,9.99999e-01
4.599490440e-01,7.48285e-04,9.99999e-01,9.99999e-01,9.99999e-01,9.99996e-01,7.48287e-04,9.99999e-01
4.622487892e-01,8.62607e-04,9.99999e-01,9.99999e-01,9.99999e-01,9.99999e-01,8.62608e-04,9.99999e-01
4.645600332e-01,9.91603e-04,9.99999e-01,9.99999e-01,9.99999e-01,9.99997e-01,9.91605e-04,9.99999e-01
4.668828333e-01,1.13672e-03,9.99999e-01,9.99999e-01,9.99999e-01,9.99967e-01,1.13676e-03,9.99999e-01
4.692172475e-01,1.29956e-03,9.99999e-01,9.99999e-01,9.99999e-01,9.99931e-01,1.29965e-03,9.99999e-01
4.715633337e-01,1.48189e-03,9.99999e-01,9.99999e-01,9.99999e-01,9.99955e-01,1.48196e-03,9.99999e-01
4.739211504e-01,1.68539e-03,9.99999e-01,9.99999e-01,9.99999e-01,9.99956e-01,1.68546e-03,9.99999e-01
4.762907561e-01,1.91200e-03,9.99999e-01,9.99999e-01,9.99999e-01,9.99977e-01,1.91204e-03,9.99999e-01
4.786722099e-01,2.16367e-03,9.99999e-01,9.99999e-01,9.99999e-01,9.99990e-01,2.16369e-03,9.99999e-01
4.810655710e-01,2.44247e-03,9.99999e-01,9.99999e-01,9.99999e-01,9.99996e-01,2.44248e-03,9.99999e-01
4.834708988e-01,2.75053e-03,9.99999e-01,9.99999e-01,9.99999e-01,9.99973e-01,2.75060e-03,9.99999e-01
4.858882533e-01,3.09019e-03,9.99999e-01,9.99999e-01,9.99999e-01,9.99951e-01,3.09033e-03,9.99999e-01
4.883176946e-01,3.46391e-03,9.99999e-01,9.99999e-01,9.99999e-01,9.99959e-01,3.46405e-03,9.99999e-01
4.907592831e-01,3.87407e-03,9.99999e-01,9.99999e-01,9.99999e-01,9.99962e-01,3.87421e-03,9.99999e-01
4.932130795e-01,4.32326e-03,9.99999e-01,9.99999e-01,9.99999e-01,9.99973e-01,4.32337e-03,9.99999e-01
4.956791449e-01,4.81410e-03,9.99999e-01,9.99999e-01,9.99999e-01,9.99985e-01,4.81417e-03,9.99999e-01
4.981575406e-01,5.34894e-03,9.99999e-01,9.99999e-01,9.99999e-01,9.99931e-01,5.34930e-03,9.99999e-01
5.006483283e-01,5.93050e-03,9.99999e-01,9.99999e-01,9.99999e-01,9.99823e-01,5.93156e-03,9.99998e-01
5.031515699e-01,6.55782e-03,9.99999e-01,9.99999e-01,9.99999e-01,9.99100e-01,6.56378e-03,9.99990e-01
5.056673278e-01,7.24535e-03,9.99999e-01,9.99999e-01,9.99999e-01,9.99524e-01,7.24888e-03,9.99988e-01
5.081956644e-01,7.98495e-03,9.99999e-01,9.99999e-01,9.99999e-01,9.99399e-01,7.98980e-03,9.99992e-01
5.107366428e-01,8.78596e-03,9.99999e-01,9.99999e-01,9.99999e-01,9.99594e-01,8.78953e-03,9.99998e-01
5.132903260e-01,9.64888e-03,9.99999e-01,9.99999e-01,9.99999e-01,9.99767e-01,9.65112e-03,9.99999e-01
5.158567776e-01,1.05766e-02,9.99999e-01,9.99999e-01,9.99999e-01,9.99901e-01,1.05776e-02,9.99999e-01
5.184360615e-01,1.15716e-02,9.99999e-01,9.99999e-01,9.99999e-01,9.99960e-01,1.15721e-02,9.99999e-01
5.210282418e-01,1.26374e-02,9.99999e-01,9.99999e-01,9.99999e-01,9.99984e-01,1.26375e-02,9.99999e-01
5.236333830e-01,1.37763e-02,9.99999e-01,9.99999e-01,9.99999e-01,9.99940e-01,1.37772e-02,9.99999e-01
5.262515499e-01,1.49934e-02,9.99999e-01,9.99999e-01,9.99999e-01,9.99962e-01,1.49939e-02,9.99998e-01
5.288828077e-01,1.62904e-02,9.99999e-01,9.99999e-01,9.99999e-01,9.99965e-01,1.62909e-02,9.99999e-01
5.315272217e-01,1.76706e-02,9.99999e-01,9.99999e-01,9.99999e-01,9.99969e-01,1.76711e-02,9.99999e-01
5.341848578e-01,1.91371e-02,9.99999e-01,9.99999e-01,9.99999e-01,9.99980e-01,1.91375e-02,9.99999e-01
5.368557821e-01,2.06915e-02,9.99999e-01,9.99999e-01,9.99999e-01,9.99931e-01,2.06930e-02,9.99999e-01
5.395400610e-01,2.23348e-02,9.99999e-01,9.99999e-01,9.99999e-01,9.99754e-01,2.23403e-02,9.99997e-01
5.422377613e-01,2.40745e-02,9.99999e-01,9.99999e-01,9.99999e-01,9.99680e-01,2.40823e-02,9.99993e-01
5.449489501e-01,2.59139e-02,9.99999e-01,9.99999e-01,9.99999e-01,9.99704e-01,2.59217e-02,9.99993e-01
5.476736949e-01,2.78537e-02,9.99999e-01,9.99999e-01,9.99999e-01,9.99736e-01,2.78611e-02,9.99996e-01
5.504120634e-01,2.98972e-02,9.99999e-01,9.99999e-01,9.99999e-01,9.99808e-01,2.99029e-02,9.99998e-01
5.531641237e-01,3.20465e-02,9.99999e-01,9.99999e-01,9.99999e-01,9.99903e-01,3.20495e-02,9.99999e-01
5.559299443e-01,3.43017e-02,9.99999e-01,9.99999e-01,9.99999e-01,9.99953e-01,3.43033e-02,9.99999e-01
5.587095940e-01,3.66652e-02,9.99999e-01,9.99999e-01,9.99999e-01,9.99970e-01,3.66662e-02,9.99999e-01
5.615031420e-01,3.91392e-02,9.99999e-01,9.99999e-01,9.99999e-01,9.99967e-01,3.91404e-02,9.99999e-01
5.643106577e-01,4.17262e-02,9.99999e-01,9.99999e-01,9.99999e-01,9.99963e-01,4.17277e-02,9.99999e-01
5.671322110e-01,4.44101e-02,9.99999e-01,9.99999e-01,9.99999e-01,9.99559e-01,4.44298e-02,9.99995e-01
5.699678720e-01,4.72253e-02,9.99999e-01,9.99999e-01,9.99999e-01,9.99523e-01,4.72483e-02,9.99987e-01
5.728177114e-01,5.01594e-02,9.99999e-01,9.99999e-01,9.99999e-01,9.99507e-01,5.01846e-02,9.99989e-01
5.756818000e-01,5.32155e-02,9.99999e-01,9.99999e-01,9.99999e-01,9.99547e-01,5.32399e-02,9.99993e-01
5.785602090e-01,5.63930e-02,9.99999e-01,9.99999e-01,9.99999e-01,9.99604e-01,5.64154e-02,9.99997e-01
5.814530100e-01,5.96882e-02,9.99999e-01,9.99999e-01,9.99999e-01,9.99603e-01,5.97118e-02,9.99998e-01
5.843602750e-01,6.31003e-02,9.99999e-01,9.99999e-01,9.99999e-01,9.99530e-01,6.31301e-02,9.99996e-01
5.872820764e-01,6.63988e-02,9.99999e-01,9.99999e-01,9.99999e-01,9.95950e-01,6.66706e-02,9.99970e-01
5.902184868e-01,6.99816e-02,9.99999e-01,9.99999e-01,9.99999e-01,9.95067e-01,7.03339e-02,9.99921e-01
5.931695792e-01,7.38567e-02,9.99999e-01,9.99999e-01,9.99999e-01,9.96520e-01,7.41201e-02,9.99923e-01
5.961354271e-01,7.77278e-02,9.99999e-01,9.99999e-01,9.99999e-01,9.96181e-01,7.80293e-02,9.99953e-01
5.991161043e-01,8.18315e-02,9.99999e-01,9.99999e-01,9.99999e-01,9.97212e-01,8.20613e-02,9.99986e-01
6.021116848e-01,8.60791e-02,9.99999e-01,9.99999e-01,9.99999e-01,9.98416e-01,8.62158e-02,9.99997e-01
6.051222432e-01,9.04198e-02,9.99999e-01,9.99999e-01,9.99999e-01,9.99198e-01,9.04923e-02,9.99999e-01
6.081478544e-01,9.48574e-02,9.99999e-01,9.99999e-01,9.99999e-01,9.99654e-01,9.48901e-02,9.99999e-01
6.111885937e-01,9.93939e-02,9.99999e-01,9.99999e-01,9.99999e-01,9.99853e-01,9.94085e-02,9.99999e-01
6.142445367e-01,1.04040e-01,9.99999e-01,9.99999e-01,9.99999e-01,9.99934e-01,1.04046e-01,9.99999e-01
6.173157594e-01,1.08799e-01,9.99999e-01,9.99999e-01,9.99999e-01,9.99963e-01,1.08803e-01,9.99999e-01
6.204023382e-01,1.13672e-01,9.99999e-01,9.99999e-01,9.99999e-01,9.99969e-01,1.13676e-01,9.99999e-01
6.235043498e-01,1.18649e-01,9.99999e-01,9.99999e-01,9.99999e-01,9.99867e-01,1.18664e-01,9.99999e-01
6.266218716e-01,1.23679e-01,9.99999e-01,9.99999e-01,9.99999e-01,9.99290e-01,1.23767e-01,9.99994e-01
6.297549810e-01,1.28947e-01,9.99999e-01,9.99999e-01,9.99999e-01,9.99739e-01,1.28982e-01,9.99989e-01
6.329037559e-01,1.34237e-01,9.99999e-01,9.99999e-01,9.99999e-01,9.99484e-01,1.34307e-01,9.99991e-01
6.360682746e-01,1.39678e-01,9.99999e-01,9.99999e-01,9.99999e-01,9.99562e-01,1.39740e-01,9.99994e-01
6.392486160e-01,1.45196e-01,9.99999e-01,9.99999e-01,9.99999e-01,9.99432e-01,1.45279e-01,9.99997e-01
6.424448591e-01,1.50807e-01,9.99999e-01,9.99999e-01,9.99999e-01,9.99244e-01,1.50921e-01,9.99996e-01
6.456570834e-01,1.56113e-01,9.99999e-01,9.99999e-01,9.99999e-01,9.96493e-01,1.56665e-01,9.99980e-01
6.488853688e-01,1.62079e-01,9.99999e-01,9.99999e-01,9.99999e-01,9.97414e-01,1.62508e-01,9.99944e-01
6.521297956e-01,1.67994e-01,9.99999e-01,9.99999e-01,9.99999e-01,9.97364e-01,1.68446e-01,9.99953e-01
6.553904446e-01,1.74018e-01,9.99999e-01,9.99999e-01,9.99999e-01,9.97395e-01,1.74478e-01,9.99965e-01
6.586673968e-01,1.80192e-01,9.99999e-01,9.99999e-01,9.99999e-01,9.97753e-01,1.80600e-01,9.99988e-01
6.619607338e-01,1.86567e-01,9.99999e-01,9.99999e-01,9.99999e-01,9.98700e-01,1.86810e-01,9.99997e-01
6.652705375e-01,1.92958e-01,9.99999e-01,9.99999e-01,9.99999e-01,9.99246e-01,1.93104e-01,9.99998e-01
6.685968902e-01,1.99410e-01,9.99999e-01,9.99999e-01,9.99999e-01,9.99649e-01,1.99479e-01,9.99999e-01
6.719398746e-01,2.05900e-01,9.99999e-01,9.99999e-01,9.99999e-01,9.99837e-01,2.05933e-01,9.99999e-01
6.752995740e-01,2.12444e-01,9.99999e-01,9.99999e-01,9.99999e-01,9.99911e-01,2.12463e-01,9.99999e-01
6.786760719e-01,2.19036e-01,9.99999e-01,9.99999e-01,9.99999e-01,9.99873e-01,2.19064e-01,9.99999e-01
6.820694522e-01,2.25684e-01,9.99999e-01,9.99999e-01,9.99999e-01,9.99783e-01,2.25733e-01,9.99998e-01
6.854797995e-01,2.32403e-01,9.99999e-01,9.99999e-01,9.99999e-01,9.99721e-01,2.32468e-01,9.99997e-01
6.889071985e-01,2.39104e-01,9.99999e-01,9.99999e-01,9.99999e-01,9.99331e-01,2.39265e-01,9.99993e-01
6.923517345e-01,2.43413e-01,9.99999e-01,9.99999e-01,9.99999e-01,9.89050e-01,2.46121e-01,9.99946e-01
6.958134932e-01,2.51540e-01,9.99999e-01,9.99999e-01,9.99999e-01,9.94222e-01,2.53032e-01,9.99880e-01
6.992925606e-01,2.58557e-01,9.99999e-01,9.99999e-01,9.99999e-01,9.94576e-01,2.59994e-01,9.99894e-01
7.027890234e-01,2.65188e-01,9.99999e-01,9.99999e-01,9.99999e-01,9.93274e-01,2.67005e-01,9.99919e-01
7.063029686e-01,2.72501e-01,9.99999e-01,9.99999e-01,9.99999e-01,9.94347e-01,2.74061e-01,9.99959e-01
7.098344834e-01,2.79627e-01,9.99999e-01,9.99999e-01,9.99999e-01,9.94575e-01,2.81158e-01,9.99975e-01
7.133836558e-01,2.86214e-01,9.99999e-01,9.99999e-01,9.99999e-01,9.92830e-01,2.88294e-01,9.99952e-01
7.169505741e-01,2.78664e-01,9.99999e-01,9.99999e-01,9.99999e-01,9.43489e-01,2.95464e-01,9.99629e-01
7.205353270e-01,2.93890e-01,9.99999e-01,9.99999e-01,9.99999e-01,9.71639e-01,3.02666e-01,9.99345e-01
7.241380036e-01,2.98707e-01,9.99999e-01,9.99999e-01,9.99999e-01,9.64439e-01,3.09896e-01,9.99435e-01
7.277586936e-01,3.06809e-01,9.99999e-01,9.99999e-01,9.99999e-01,9.67837e-01,3.17151e-01,9.99538e-01
7.313974871e-01,3.13233e-01,9.99999e-01,9.99999e-01,9.99999e-01,9.65703e-01,3.24427e-01,9.99783e-01
7.350544745e-01,3.25444e-01,9.99999e-01,9.99999e-01,9.99999e-01,9.81147e-01,3.31722e-01,9.99924e-01
7.387297469e-01,3.34304e-01,9.99999e-01,9.99999e-01,9.99999e-01,9.86090e-01,3.39031e-01,9.99965e-01
7.424233956e-01,3.43983e-01,9.99999e-01,9.99999e-01,9.99999e-01,9.93163e-01,3.46353e-01,9.99992e-01
7.461355126e-01,3.52217e-01,9.99999e-01,9.99999e-01,9.99999e-01,9.95856e-01,3.53683e-01,9.99998e-01
7.498661902e-01,3.60321e-01,9.99999e-01,9.99999e-01,9.99999e-01,9.98066e-01,3.61019e-01,9.99999e-01
7.536155211e-01,3.68009e-01,9.99999e-01,9.99999e-01,9.99999e-01,9.99052e-01,3.68358e-01,9.99999e-01
7.573835987e-01,3.75513e-01,9.99999e-01,9.99999e-01,9.99999e-01,9.99511e-01,3.75697e-01,9.99999e-01
7.611705167e-01,3.82916e-01,9.99999e-01,9.99999e-01,9.99999e-01,9.99696e-01,3.83032e-01,9.99999e-01
7.649763693e-01,3.90288e-01,9.99999e-01,9.99999e-01,9.99999e-01,9.99809e-01,3.90362e-01,9.99999e-01
7.688012511e-01,3.97630e-01,9.99999e-01,9.99999e-01,9.99999e-01,9.99867e-01,3.97683e-01,9.99999e-01
7.726452574e-01,4.04949e-01,9.99999e-01,9.99999e-01,9.99999e-01,9.99891e-01,4.04993e-01,9.99999e-01
7.765084837e-01,4.12225e-01,9.99999e-01,9.99999e-01,9.99999e-01,9.99846e-01,4.12288e-01,9.99999e-01
7.803910261e-01,4.03168e-01,9.99999e-01,9.99999e-01,9.61527e-01,9.99336e-01,4.19567e-01,9.99998e-01
7.842929812e-01,3.55764e-01,9.99999e-01,9.99999e-01,8.35333e-01,9.97686e-01,4.26827e-01,9.99995e-01
7.882144461e-01,3.56709e-01,9.99999e-01,9.99999e-01,8.25580e-01,9.95212e-01,4.34066e-01,9.99970e-01
7.921555184e-01,3.93354e-01,9.99999e-01,9.99999e-01,8.93732e-01,9.97364e-01,4.41281e-01,9.99942e-01
7.961162960e-01,4.13881e-01,9.99999e-01,9.99999e-01,9.27163e-01,9.95376e-01,4.48469e-01,9.99945e-01
8.000968774e-01,4.34988e-01,9.99999e-01,9.99999e-01,9.59875e-01,9.94642e-01,4.55629e-01,9.99941e-01
8.040973618e-01,4.50582e-01,9.99999e-01,9.99999e-01,9.78958e-01,9.94645e-01,4.62759e-01,9.99953e-01
8.081178486e-01,4.59716e-01,9.99999e-01,9.99999e-01,9.90311e-01,9.88012e-01,4.69856e-01,9.99956e-01
8.121584379e-01,4.52058e-01,9.99999e-01,9.99999e-01,9.96982e-01,9.50867e-01,4.76919e-01,9.99830e-01
8.162192301e-01,4.55090e-01,9.99999e-01,9.99999e-01,9.99332e-01,9.41587e-01,4.83945e-01,9.99363e-01
8.203003262e-01,4.76234e-01,9.99999e-01,9.99999e-01,9.99988e-01,9.70790e-01,4.90933e-01,9.99254e-01
8.244018279e-01,4.77087e-01,9.99999e-01,9.99999e-01,9.99999e-01,9.58803e-01,4.97881e-01,9.99406e-01
8.285238370e-01,4.86826e-01,9.99999e-01,9.99999e-01,9.99999e-01,9.64867e-01,5.04786e-01,9.99534e-01
8.326664562e-01,4.93341e-01,9.99999e-01,9.99999e-01,9.99999e-01,9.64403e-01,5.11649e-01,9.99807e-01
8.368297885e-01,5.05184e-01,9.99999e-01,9.99999e-01,9.99999e-01,9.74424e-01,5.18466e-01,9.99955e-01
8.410139374e-01,5.17202e-01,9.99999e-01,9.99999e-01,9.99999e-01,9.84726e-01,5.25237e-01,9.99973e-01
8.452190071e-01,5.27952e-01,9.99999e-01,9.99999e-01,9.99999e-01,9.92479e-01,5.31960e-01,9.99984e-01
8.494451021e-01,5.36280e-01,9.99999e-01,9.99999e-01,9.99999e-01,9.95640e-01,5.38634e-01,9.99987e-01
8.536923276e-01,5.43844e-01,9.99999e-01,9.99999e-01,9.99999e-01,9.97415e-01,5.45257e-01,9.99991e-01
8.579607893e-01,5.50950e-01,9.99999e-01,9.99999e-01,9.99999e-01,9.98410e-01,5.51829e-01,9.99997e-01
8.622505932e-01,5.57782e-01,9.99999e-01,9.99999e-01,9.99999e-01,9.98988e-01,5.58347e-01,9.99999e-01
8.665618462e-01,5.18790e-01,9.99999e-01,9.99999e-01,9.19067e-01,9.99375e-01,5.64811e-01,9.99999e-01
8.708946554e-01,3.62667e-01,9.99999e-01,9.99999e-01,6.35332e-01,9.99286e-01,5.71221e-01,9.99999e-01
8.752491287e-01,3.99474e-01,9.99999e-01,9.99999e-01,6.92279e-01,9.99044e-01,5.77574e-01,9.99998e-01
8.796253743e-01,4.76065e-01,9.99999e-01,9.99999e-01,8.16403e-01,9.98679e-01,5.83870e-01,9.99996e-01
8.840235012e-01,5.30318e-01,9.99999e-01,9.99999e-01,9.00019e-01,9.98490e-01,5.90109e-01,9.99990e-01
8.884436187e-01,5.68884e-01,9.99999e-01,9.99999e-01,9.59225e-01,9.94558e-01,5.96289e-01,9.99973e-01
8.928858368e-01,5.59010e-01,9.99999e-01,9.99999e-01,9.83305e-01,9.43691e-01,6.02410e-01,9.99848e-01
8.973502660e-01,5.46225e-01,9.99999e-01,9.99999e-01,9.95904e-01,9.02000e-01,6.08471e-01,9.99226e-01
9.018370173e-01,5.81861e-01,9.99999e-01,9.99999e-01,9.99547e-01,9.48494e-01,6.14471e-01,9.98783e-01
9.063462024e-01,5.85381e-01,9.99999e-01,9.99999e-01,9.88684e-01,9.54954e-01,6.20411e-01,9.98931e-01
9.108779334e-01,5.67042e-01,9.99999e-01,9.99999e-01,9.73810e-01,9.30424e-01,6.26288e-01,9.98889e-01
9.154323231e-01,5.78247e-01,9.99999e-01,9.99999e-01,9.93757e-01,9.21242e-01,6.32104e-01,9.99081e-01
9.200094847e-01,5.49314e-01,9.99999e-01,9.99999e-01,9.15284e-01,9.37691e-01,6.37857e-01,9.99485e-01
9.246095321e-01,5.12947e-01,9.99999e-01,9.99999e-01,8.78321e-01,9.05604e-01,6.43548e-01,9.99407e-01
9.292325798e-01,3.05330e-01,9.99999e-01,9.99999e-01,9.04052e-01,5.15225e-01,6.49175e-01,9.97693e-01
9.338787427e-01,2.52004e-01,9.99999e-01,9.99999e-01,9.06467e-01,4.23631e-01,6.54739e-01,9.90501e-01
9.385481364e-01,4.31222e-01,9.99999e-01,9.99999e-01,9.30345e-01,7.06600e-01,6.60239e-01,9.88712e-01
9.432408771e-01,3.92426e-01,9.99999e-01,9.99999e-01,9.56666e-01,6.20539e-01,6.65675e-01,9.90254e-01
9.479570815e-01,3.38497e-01,9.99999e-01,9.99999e-01,9.77566e-01,5.19411e-01,6.71048e-01,9.92061e-01
9.526968669e-01,4.05513e-01,9.99999e-01,9.99999e-01,9.89110e-01,6.08434e-01,6.76356e-01,9.95150e-01
9.574603512e-01,4.27151e-01,9.99999e-01,9.99999e-01,9.95327e-01,6.30957e-01,6.81601e-01,9.97533e-01
9.622476530e-01,4.69926e-01,9.99999e-01,9.99999e-01,9.98539e-01,6.86345e-01,6.86781e-01,9.98293e-01
9.670588912e-01,5.56062e-01,9.99999e-01,9.99999e-01,9.99561e-01,8.04948e-01,6.91897e-01,9.98832e-01
9.718941857e-01,6.07848e-01,9.99999e-01,9.99999e-01,9.99968e-01,8.72931e-01,6.96949e-01,9.99140e-01
9.767536566e-01,6.26648e-01,9.99999e-01,9.99999e-01,9.99999e-01,8.93327e-01,7.01937e-01,9.99342e-01
9.816374249e-01,6.49927e-01,9.99999e-01,9.99999e-01,9.99999e-01,9.19664e-01,7.06861e-01,9.99772e-01
9.865456120e-01,6.75398e-01,9.99999e-01,9.99999e-01,9.99999e-01,9.49007e-01,7.11721e-01,9.99952e-01
9.914783401e-01,6.93709e-01,9.99999e-01,9.99999e-01,9.99999e-01,9.68179e-01,7.16518e-01,9.99986e-01
9.964357318e-01,7.08656e-01,9.99999e-01,9.99999e-01,9.99999e-01,9.82543e-01,7.21252e-01,9.99991e-01
1.001417910e+00,7.18292e-01,9.99999e-01,9.99999e-01,9.99999e-01,9.89500e-01,7.25922e-01,9.99987e-01
1.006425000e+00,7.26142e-01,9.99999e-01,9.99999e-01,9.99999e-01,9.94009e-01,7.30530e-01,9.99982e-01
1.011457125e+00,7.32324e-01,9.99999e-01,9.99999e-01,9.99999e-01,9.96272e-01,7.35074e-01,9.99984e-01
1.016514411e+00,7.37678e-01,9.99999e-01,9.99999e-01,9.99999e-01,9.97470e-01,7.39557e-01,9.99988e-01
1.021596983e+00,7.42428e-01,9.99999e-01,9.99999e-01,9.99942e-01,9.97984e-01,7.43977e-01,9.99988e-01
1.026704968e+00,7.43855e-01,9.99999e-01,9.99999e-01,9.95580e-01,9.98428e-01,7.48336e-01,9.99992e-01
1.031838492e+00,7.15853e-01,9.99999e-01,9.99999e-01,9.52185e-01,9.98856e-01,7.52634e-01,9.99997e-01
1.036997685e+00,9.90756e-02,9.99999e-01,9.99999e-01,1.30971e-01,9.99321e-01,7.56870e-01,9.99999e-01
1.042182673e+00,6.26414e-02,9.99999e-01,9.99999e-01,8.23674e-02,9.99192e-01,7.61046e-01,9.99999e-01
1.047393587e+00,8.26595e-02,9.99999e-01,9.99999e-01,1.08130e-01,9.98928e-01,7.65162e-01,9.99999e-01
1.052630555e+00,1.28995e-03,9.99999e-01,9.99999e-01,1.67874e-03,9.98530e-01,7.69218e-01,9.99999e-01
1.057893707e+00,3.54359e-03,9.99999e-01,9.99999e-01,4.59019e-03,9.97550e-01,7.73215e-01,9.99998e-01
1.063183176e+00,1.43990e-02,9.99999e-01,9.99999e-01,1.85797e-02,9.95968e-01,7.77153e-01,9.99997e-01
1.068499092e+00,4.72482e-02,9.99999e-01,9.99999e-01,6.08309e-02,9.93251e-01,7.81033e-01,9.99994e-01
1.073841587e+00,1.32135e-01,9.99999e-01,9.99999e-01,1.69471e-01,9.92114e-01,7.84855e-01,9.99989e-01
