#,Wave/freq,Total,N2,O2,CO2,H2O,Rayleigh,CIA
4.000000000e-01,4.70970e-12,9.99999e-01,9.99999e-01,9.99999e-01,9.99949e-01,4.70993e-12,9.99999e-01
4.020000000e-01,7.88811e-12,9.99999e-01,9.99999e-01,9.99999e-01,9.99968e-01,7.88836e-12,9.99999e-01
4.040100000e-01,1.30705e-11,9.99999e-01,9.99999e-01,9.99999e-01,9.99986e-01,1.30707e-11,9.99999e-01
4.060300500e-01,2.14426e-11,9.99999e-01,9.99999e-01,9.99999e-01,9.99996e-01,2.14427e-11,9.99999e-01
4.080602003e-01,3.48347e-11,9.99999e-01,9.99999e-01,9.99999e-01,9.99998e-01,3.48347e-11,9.99999e-01
4.101005013e-01,5.60510e-11,9.99999e-01,9.99999e-01,9.99999e-01,9.99999e-01,5.60510e-11,9.99999e-01
4.121510038e-01,8.93457e-11,9.99999e-01,9.99999e-01,9.99999e-01,9.99997e-01,8.93458e-11,9.99999e-01
4.142117588e-01,1.41111e-10,9.99999e-01,9.99999e-01,9.99999e-01,9.99985e-01,1.41112e-10,9.99999e-01
4.162828176e-01,2.20856e-10,9.99999e-01,9.99999e-01,9.99999e-01,9.99937e-01,2.20870e-10,9.99999e-01
4.183642317e-01,3.42647e-10,9.99999e-01,9.99999e-01,9.99999e-01,9.99962e-01,3.42660e-10,9.99999e-01
4.204560528e-01,5.27003e-10,9.99999e-01,9.99999e-01,9.99999e-01,9.99976e-01,5.27015e-10,9.99999e-01
4.225583331e-01,8.03686e-10,9.99999e-01,9.99999e-01,9.99999e-01,9.99990e-01,8.03693e-10,9.99999e-01
4.246711247e-01,1.21544e-09,9.99999e-01,9.99999e-01,9.99999e-01,9.99992e-01,1.21545e-09,9.99999e-01
4.267944804e-01,1.82319e-09,9.99999e-01,9.99999e-01,9.99999e-01,9.99989e-01,1.82321e-09,9.99999e-01
4.289284528e-01,2.71302e-09,9.99999e-01,9.99999e-01,9.99999e-01,9.99991e-01,2.71304e-09,9.99999e-01
4.310730950e-01,4.00557e-09,9.99999e-01,9.99999e-01,9.99999e-01,9.99996e-01,4.00559e-09,9.99999e-01
4.332284605e-01,5.86859e-09,9.99999e-01,9.99999e-01,9.99999e-01,9.99998e-01,5.86860e-09,9.99999e-01
4.353946028e-01,8.53348e-09,9.99999e-01,9.99999e-01,9.99999e-01,9.99999e-01,8.53348e-09,9.99999e-01
4.375715758e-01,1.23170e-08,9.99999e-01,9.99999e-01,9.99999e-01,9.99993e-01,1.23170e-08,9.99999e-01
4.397594337e-01,1.76488e-08,9.99999e-01,9.99999e-01,9.99999e-01,9.99945e-01,1.76497e-08,9.99999e-01
4.419582309e-01,2.51053e-08,9.99999e-01,9.99999e-01,9.99999e-01,9.99726e-01,2.51122e-08,9.99999e-01
4.441680220e-01,3.54741e-08,9.99999e-01,9.99999e-01,9.99999e-01,9.99781e-01,3.54818e-08,9.99999e-01
4.463888621e-01,4.97810e-08,9.99999e-01,9.99999e-01,9.99999e-01,9.99774e-01,4.97922e-08,9.99999e-01
4.486208064e-01,6.93984e-08,9.99999e-01,9.99999e-01,9.99999e-01,9.99858e-01,6.94082e-08,9.99999e-01
4.508639105e-01,9.61130e-08,9.99999e-01,9.99999e-01,9.99999e-01,9.99933e-01,9.61193e-08,9.99999e-01
4.531182300e-01,1.32253e-07,9.99999e-01,9.99999e-01,9.99999e-01,9.99973e-01,1.32257e-07,9.99999e-01
4.553838212e-01,1.80834e-07,9.99999e-01,9.99999e-01,9.99999e-01,9.99981e-01,1.80837e-07,9.99999e-01
4.576607403e-01,2.45736e-07,9.99999e-01,9.99999e-01,9.99999e-01,9.99991e-01,2.45738e-07,9.99999e-01
4.599490440e-01,3.31913e-07,9.99999e-01,9.99999e-01,9.99999e-01,9.99993e-01,3.31915e-07,9.99999e-01
4.622487892e-01,4.45658e-07,9.99999e-01,9.99999e-01,9.99999e-01,9.99998e-01,4.45658e-07,9.99999e-01
4.645600332e-01,5.94906e-07,9.99999e-01,9.99999e-01,9.99999e-01,9.99995e-01,5.94908e-07,9.99999e-01
4.668828333e-01,7.89572e-07,9.99999e-01,9.99999e-01,9.99999e-01,9.99933e-01,7.89624e-07,9.99999e-01
4.692172475e-01,1.04208e-06,9.99999e-01,9.99999e-01,9.99999e-01,9.99858e-01,1.04222e-06,9.99999e-01
4.715633337e-01,1.36798e-06,9.99999e-01,9.99999e-01,9.99999e-01,9.99907e-01,1.36811e-06,9.99999e-01
4.739211504e-01,1.78611e-06,9.99999e-01,9.99999e-01,9.99999e-01,9.99910e-01,1.78627e-06,9.99999e-01
4.762907561e-01,2.31988e-06,9.99999e-01,9.99999e-01,9.99999e-01,9.99953e-01,2.31999e-06,9.99999e-01
4.786722099e-01,2.99760e-06,9.99999e-01,9.99999e-01,9.99999e-01,9.99980e-01,2.99765e-06,9.99999e-01
4.810655710e-01,3.85368e-06,9.99999e-01,9.99999e-01,9.99999e-01,9.99993e-01,3.85371e-06,9.99999e-01
4.834708988e-01,4.92944e-06,9.99999e-01,9.99999e-01,9.99999e-01,9.99946e-01,4.92970e-06,9.99999e-01
4.858882533e-01,6.27491e-06,9.99999e-01,9.99999e-01,9.99999e-01,9.99899e-01,6.27554e-06,9.99999e-01
4.883176946e-01,7.95012e-06,9.99999e-01,9.99999e-01,9.99999e-01,9.99916e-01,7.95079e-06,9.99999e-01
4.907592831e-01,1.00255e-05,9.99999e-01,9.99999e-01,9.99999e-01,9.99923e-01,1.00263e-05,9.99999e-01
4.932130795e-01,1.25851e-05,9.99999e-01,9.99999e-01,9.99999e-01,9.99945e-01,1.25858e-05,9.99999e-01
4.956791449e-01,1.57274e-05,9.99999e-01,9.99999e-01,9.99999e-01,9.99971e-01,1.57278e-05,9.99999e-01
4.981575406e-01,1.95652e-05,9.99999e-01,9.99999e-01,9.99999e-01,9.99858e-01,1.95680e-05,9.99999e-01
5.006483283e-01,2.42321e-05,9.99999e-01,9.99999e-01,9.99999e-01,9.99635e-01,2.42410e-05,9.99997e-01
5.031515699e-01,2.98469e-05,9.99999e-01,9.99999e-01,9.99999e-01,9.98139e-01,2.99031e-05,9.99979e-01
5.056673278e-01,3.66982e-05,9.99999e-01,9.99999e-01,9.99999e-01,9.99014e-01,3.67352e-05,9.99977e-01
5.081956644e-01,4.48886e-05,9.99999e-01,9.99999e-01,9.99999e-01,9.98755e-01,4.49452e-05,9.99985e-01
5.107366428e-01,5.47252e-05,9.99999e-01,9.99999e-01,9.99999e-01,9.99158e-01,5.47714e-05,9.99996e-01
5.132903260e-01,6.64536e-05,9.99999e-01,9.99999e-01,9.99999e-01,9.99518e-01,6.64856e-05,9.99999e-01
5.158567776e-01,8.03805e-05,9.99999e-01,9.99999e-01,9.99999e-01,9.99795e-01,8.03969e-05,9.99999e-01
5.184360615e-01,9.68468e-05,9.99999e-01,9.99999e-01,9.99999e-01,9.99918e-01,9.68547e-05,9.99999e-01
5.210282418e-01,1.16250e-04,9.99999e-01,9.99999e-01,9.99999e-01,9.99969e-01,1.16253e-04,9.99999e-01
5.236333830e-01,1.39018e-04,9.99999e-01,9.99999e-01,9.99999e-01,9.99878e-01,1.39035e-04,9.99998e-01
5.262515499e-01,1.65681e-04,9.99999e-01,9.99999e-01,9.99999e-01,9.99923e-01,1.65694e-04,9.99998e-01
5.288828077e-01,1.96767e-04,9.99999e-01,9.99999e-01,9.99999e-01,9.99930e-01,1.96781e-04,9.99998e-01
5.315272217e-01,2.32895e-04,9.99999e-01,9.99999e-01,9.99999e-01,9.99937e-01,2.32909e-04,9.99999e-01
5.341848578e-01,2.74743e-04,9.99999e-01,9.99999e-01,9.99999e-01,9.99959e-01,2.74754e-04,9.99999e-01
5.368557821e-01,3.23015e-04,9.99999e-01,9.99999e-01,9.99999e-01,9.99858e-01,3.23060e-04,9.99999e-01
5.395400610e-01,3.78454e-04,9.99999e-01,9.99999e-01,9.99999e-01,9.99494e-01,3.78646e-04,9.99995e-01
5.422377613e-01,4.42109e-04,9.99999e-01,9.99999e-01,9.99999e-01,9.99337e-01,4.42407e-04,9.99987e-01
5.449489501e-01,5.14997e-04,9.99999e-01,9.99999e-01,9.99999e-01,9.99388e-01,5.15318e-04,9.99987e-01
5.476736949e-01,5.98109e-04,9.99999e-01,9.99999e-01,9.99999e-01,9.99453e-01,5.98439e-04,9.99993e-01
5.504120634e-01,6.92643e-04,9.99999e-01,9.99999e-01,9.99999e-01,9.99603e-01,6.92918e-04,9.99997e-01
5.531641237e-01,7.99834e-04,9.99999e-01,9.99999e-01,9.99999e-01,9.99800e-01,7.99993e-04,9.99999e-01
5.559299443e-01,9.20908e-04,9.99999e-01,9.99999e-01,9.99999e-01,9.99903e-01,9.20997e-04,9.99999e-01
5.587095940e-01,1.05729e-03,9.99999e-01,9.99999e-01,9.99999e-01,9.99939e-01,1.05736e-03,9.99999e-01
5.615031420e-01,1.21052e-03,9.99999e-01,9.99999e-01,9.99999e-01,9.99932e-01,1.21060e-03,9.99999e-01
5.643106577e-01,1.38225e-03,9.99999e-01,9.99999e-01,9.99999e-01,9.99924e-01,1.38235e-03,9.99998e-01
5.671322110e-01,1.57291e-03,9.99999e-01,9.99999e-01,9.99999e-01,9.99096e-01,1.57434e-03,9.99992e-01
5.699678720e-01,1.78658e-03,9.99999e-01,9.99999e-01,9.99999e-01,9.99009e-01,1.78839e-03,9.99974e-01
5.728177114e-01,2.02433e-03,9.99999e-01,9.99999e-01,9.99999e-01,9.98980e-01,2.02644e-03,9.99978e-01
5.756818000e-01,2.28833e-03,9.99999e-01,9.99999e-01,9.99999e-01,9.99062e-01,2.29051e-03,9.99986e-01
5.785602090e-01,2.58061e-03,9.99999e-01,9.99999e-01,9.99999e-01,9.99180e-01,2.58273e-03,9.99995e-01
5.814530100e-01,2.90296e-03,9.99999e-01,9.99999e-01,9.99999e-01,9.99179e-01,2.90534e-03,9.99997e-01
5.843602750e-01,3.25748e-03,9.99999e-01,9.99999e-01,9.99999e-01,9.99030e-01,3.26066e-03,9.99994e-01
5.872820764e-01,3.62045e-03,9.99999e-01,9.99999e-01,9.99999e-01,9.91662e-01,3.65110e-03,9.99940e-01
5.902184868e-01,4.03691e-03,9.99999e-01,9.99999e-01,9.99999e-01,9.89799e-01,4.07917e-03,9.99838e-01
5.931695792e-01,4.51407e-03,9.99999e-01,9.99999e-01,9.99999e-01,9.92811e-01,4.54746e-03,9.99842e-01
5.961354271e-01,5.01821e-03,9.99999e-01,9.99999e-01,9.99999e-01,9.92100e-01,5.05864e-03,9.99904e-01
5.991161043e-01,5.58288e-03,9.99999e-01,9.99999e-01,9.99999e-01,9.94226e-01,5.61546e-03,9.99971e-01
6.021116848e-01,6.20027e-03,9.99999e-01,9.99999e-01,9.99999e-01,9.96715e-01,6.22072e-03,9.99996e-01
6.051222432e-01,6.86585e-03,9.99999e-01,9.99999e-01,9.99999e-01,9.98336e-01,6.87729e-03,9.99999e-01
6.081478544e-01,7.58268e-03,9.99999e-01,9.99999e-01,9.99999e-01,9.99282e-01,7.58811e-03,9.99999e-01
6.111885937e-01,8.35361e-03,9.99999e-01,9.99999e-01,9.99999e-01,9.99695e-01,8.35615e-03,9.99999e-01
6.142445367e-01,9.18318e-03,9.99999e-01,9.99999e-01,9.99999e-01,9.99863e-01,9.18443e-03,9.99999e-01
6.173157594e-01,1.00752e-02,9.99999e-01,9.99999e-01,9.99999e-01,9.99924e-01,1.00760e-02,9.99999e-01
6.204023382e-01,1.10331e-02,9.99999e-01,9.99999e-01,9.99999e-01,9.99936e-01,1.10338e-02,9.99999e-01
6.235043498e-01,1.20578e-02,9.99999e-01,9.99999e-01,9.99999e-01,9.99727e-01,1.20611e-02,9.99998e-01
6.266218716e-01,1.31414e-02,9.99999e-01,9.99999e-01,9.99999e-01,9.98531e-01,1.31609e-02,9.99989e-01
6.297549810e-01,1.43282e-02,9.99999e-01,9.99999e-01,9.99999e-01,9.99461e-01,1.43362e-02,9.99978e-01
6.329037559e-01,1.55732e-02,9.99999e-01,9.99999e-01,9.99999e-01,9.98932e-01,1.55901e-02,9.99982e-01
6.360682746e-01,1.69101e-02,9.99999e-01,9.99999e-01,9.99999e-01,9.99094e-01,1.69256e-02,9.99989e-01
6.392486160e-01,1.83241e-02,9.99999e-01,9.99999e-01,9.99999e-01,9.98824e-01,1.83457e-02,9.99995e-01
6.424448591e-01,1.98253e-02,9.99999e-01,9.99999e-01,9.99999e-01,9.98591e-01,1.98534e-02,9.99992e-01
6.456570834e-01,2.12968e-02,9.99999e-01,9.99999e-01,9.99999e-01,9.92832e-01,2.14514e-02,9.99959e-01
6.488853688e-01,2.29947e-02,9.99999e-01,9.99999e-01,9.99999e-01,9.93717e-01,2.31427e-02,9.99886e-01
6.521297956e-01,2.47917e-02,9.99999e-01,9.99999e-01,9.99999e-01,9.94547e-01,2.49299e-02,9.99904e-01
6.553904446e-01,2.66695e-02,9.99999e-01,9.99999e-01,9.99999e-01,9.94615e-01,2.68158e-02,9.99928e-01
6.586673968e-01,2.86679e-02,9.99999e-01,9.99999e-01,9.99999e-01,9.95342e-01,2.88027e-02,9.99976e-01
6.619607338e-01,3.08099e-02,9.99999e-01,9.99999e-01,9.99999e-01,9.97306e-01,3.08932e-02,9.99994e-01
6.652705375e-01,3.30378e-02,9.99999e-01,9.99999e-01,9.99999e-01,9.98435e-01,3.30897e-02,9.99996e-01
6.685968902e-01,3.53685e-02,9.99999e-01,9.99999e-01,9.99999e-01,9.99273e-01,3.53942e-02,9.99999e-01
6.719398746e-01,3.77962e-02,9.99999e-01,9.99999e-01,9.99999e-01,9.99662e-01,3.78089e-02,9.99999e-01
6.752995740e-01,4.03284e-02,9.99999e-01,9.99999e-01,9.99999e-01,9.99817e-01,4.03358e-02,9.99999e-01
6.786760719e-01,4.29653e-02,9.99999e-01,9.99999e-01,9.99999e-01,9.99739e-01,4.29765e-02,9.99999e-01
6.820694522e-01,4.57123e-02,9.99999e-01,9.99999e-01,9.99999e-01,9.99552e-01,4.57329e-02,9.99997e-01
6.854797995e-01,4.85780e-02,9.99999e-01,9.99999e-01,9.99999e-01,9.99423e-01,4.86062e-02,9.99994e-01
6.889071985e-01,5.15266e-02,9.99999e-01,9.99999e-01,9.99999e-01,9.98626e-01,5.15980e-02,9.99987e-01
6.923517345e-01,5.34745e-02,9.99999e-01,9.99999e-01,9.99999e-01,9.77535e-01,5.47094e-02,9.99890e-01
6.958134932e-01,5.72328e-02,9.99999e-01,9.99999e-01,9.99999e-01,9.88016e-01,5.79413e-02,9.99752e-01
6.992925606e-01,6.05970e-02,9.99999e-01,9.99999e-01,9.99999e-01,9.88832e-01,6.12946e-02,9.99782e-01
7.027890234e-01,6.38598e-02,9.99999e-01,9.99999e-01,9.99999e-01,9.86112e-01,6.47700e-02,9.99832e-01
7.063029686e-01,6.75638e-02,9.99999e-01,9.99999e-01,9.99999e-01,9.88320e-01,6.83679e-02,9.99916e-01
7.098344834e-01,7.12770e-02,9.99999e-01,9.99999e-01,9.99999e-01,9.88789e-01,7.20886e-02,9.99950e-01
7.133836558e-01,7.48090e-02,9.99999e-01,9.99999e-01,9.99999e-01,9.85302e-01,7.59323e-02,9.99901e-01
7.169505741e-01,7.08681e-02,9.99999e-01,9.99999e-01,9.99999e-01,8.87652e-01,7.98989e-02,9.99231e-01
7.205353270e-01,7.90232e-02,9.99999e-01,9.99999e-01,9.99999e-01,9.42159e-01,8.39882e-02,9.98645e-01
7.241380036e-01,8.17663e-02,9.99999e-01,9.99999e-01,9.99999e-01,9.28150e-01,8.81998e-02,9.98821e-01
7.277586936e-01,8.64227e-02,9.99999e-01,9.99999e-01,9.99999e-01,9.34878e-01,9.25331e-02,9.99020e-01
7.313974871e-01,9.01888e-02,9.99999e-01,9.99999e-01,9.99999e-01,9.30318e-01,9.69874e-02,9.99551e-01
7.350544745e-01,9.76222e-02,9.99999e-01,9.99999e-01,9.99999e-01,9.61359e-01,1.01562e-01,9.99843e-01
7.387297469e-01,1.03206e-01,9.99999e-01,9.99999e-01,9.99999e-01,9.71373e-01,1.06255e-01,9.99928e-01
7.424233956e-01,1.09493e-01,9.99999e-01,9.99999e-01,9.99999e-01,9.85851e-01,1.11066e-01,9.99985e-01
7.461355126e-01,1.14998e-01,9.99999e-01,9.99999e-01,9.99999e-01,9.91418e-01,1.15994e-01,9.99997e-01
7.498661902e-01,1.20550e-01,9.99999e-01,9.99999e-01,9.99999e-01,9.95985e-01,1.21036e-01,9.99998e-01
7.536155211e-01,1.25943e-01,9.99999e-01,9.99999e-01,9.99999e-01,9.98035e-01,1.26191e-01,9.99998e-01
7.573835987e-01,1.31324e-01,9.99999e-01,9.99999e-01,9.99999e-01,9.98987e-01,1.31458e-01,9.99999e-01
7.611705167e-01,1.36747e-01,9.99999e-01,9.99999e-01,9.99999e-01,9.99370e-01,1.36833e-01,9.99999e-01
7.649763693e-01,1.42260e-01,9.99999e-01,9.99999e-01,9.99999e-01,9.99606e-01,1.42316e-01,9.99999e-01
7.688012511e-01,1.47863e-01,9.99999e-01,9.99999e-01,9.99999e-01,9.99725e-01,1.47904e-01,9.99999e-01
7.726452574e-01,1.53559e-01,9.99999e-01,9.99999e-01,9.99999e-01,9.99774e-01,1.53594e-01,9.99999e-01
7.765084837e-01,1.59334e-01,9.99999e-01,9.99999e-01,9.99999e-01,9.99682e-01,1.59384e-01,9.99999e-01
7.803910261e-01,1.53582e-01,9.99999e-01,9.99999e-01,9.30460e-01,9.98631e-01,1.65272e-01,9.99998e-01
7.842929812e-01,1.18875e-01,9.99999e-01,9.99999e-01,6.97134e-01,9.95231e-01,1.71254e-01,9.99990e-01
7.882144461e-01,1.20168e-01,9.99999e-01,9.99999e-01,6.83894e-01,9.90106e-01,1.77329e-01,9.99938e-01
7.921555184e-01,1.44990e-01,9.99999e-01,9.99999e-01,7.94375e-01,9.94535e-01,1.83492e-01,9.99882e-01
7.961162960e-01,1.60725e-01,9.99999e-01,9.99999e-01,8.55128e-01,9.90472e-01,1.89742e-01,9.99887e-01
8.000968774e-01,1.78131e-01,9.99999e-01,9.99999e-01,9.18689e-01,9.88932e-01,1.96074e-01,9.99879e-01
8.040973618e-01,1.91586e-01,9.99999e-01,9.99999e-01,9.56779e-01,9.88947e-01,2.02487e-01,9.99904e-01
8.081178486e-01,1.99768e-01,9.99999e-01,9.99999e-01,9.80000e-01,9.75447e-01,2.08977e-01,9.99910e-01
8.121584379e-01,1.93081e-01,9.99999e-01,9.99999e-01,9.93726e-01,9.01634e-01,2.15540e-01,9.99649e-01
8.162192301e-01,1.95724e-01,9.99999e-01,9.99999e-01,9.98610e-01,8.83287e-01,2.22173e-01,9.98682e-01
8.203003262e-01,2.15191e-01,9.99999e-01,9.99999e-01,9.99976e-01,9.41685e-01,2.28874e-01,9.98457e-01
8.244018279e-01,2.16018e-01,9.99999e-01,9.99999e-01,9.99999e-01,9.17860e-01,2.35638e-01,9.98771e-01
8.285238370e-01,2.25010e-01,9.99999e-01,9.99999e-01,9.99999e-01,9.28913e-01,2.42463e-01,9.99035e-01
8.326664562e-01,2.31282e-01,9.99999e-01,9.99999e-01,9.99999e-01,9.27929e-01,2.49345e-01,9.99600e-01
8.368297885e-01,2.42867e-01,9.99999e-01,9.99999e-01,9.99999e-01,9.47747e-01,2.56280e-01,9.99908e-01
8.410139374e-01,2.54982e-01,9.99999e-01,9.99999e-01,9.99999e-01,9.68587e-01,2.63266e-01,9.99946e-01
8.452190071e-01,2.66087e-01,9.99999e-01,9.99999e-01,9.99999e-01,9.84450e-01,2.70298e-01,9.99967e-01
8.494451021e-01,2.74866e-01,9.99999e-01,9.99999e-01,9.99999e-01,9.90983e-01,2.77374e-01,9.99973e-01
8.536923276e-01,2.82960e-01,9.99999e-01,9.99999e-01,9.99999e-01,9.94639e-01,2.84490e-01,9.99982e-01
8.579607893e-01,2.90680e-01,9.99999e-01,9.99999e-01,9.99999e-01,9.96706e-01,2.91642e-01,9.99994e-01
8.622505932e-01,2.98200e-01,9.99999e-01,9.99999e-01,9.99999e-01,9.97901e-01,2.98827e-01,9.99998e-01
8.665618462e-01,2.70637e-01,9.99999e-01,9.99999e-01,8.85388e-01,9.98706e-01,3.06043e-01,9.99999e-01
8.708946554e-01,1.28723e-01,9.99999e-01,9.99999e-01,4.11447e-01,9.98522e-01,3.13285e-01,9.99998e-01
8.752491287e-01,1.53134e-01,9.99999e-01,9.99999e-01,4.78613e-01,9.98022e-01,3.20550e-01,9.99997e-01
8.796253743e-01,2.16237e-01,9.99999e-01,9.99999e-01,6.61280e-01,9.97271e-01,3.27835e-01,9.99993e-01
8.840235012e-01,2.68891e-01,9.99999e-01,9.99999e-01,8.04767e-01,9.96880e-01,3.35137e-01,9.99980e-01
8.884436187e-01,3.10681e-01,9.99999e-01,9.99999e-01,9.17224e-01,9.88897e-01,3.42453e-01,9.99945e-01
8.928858368e-01,3.00099e-01,9.99999e-01,9.99999e-01,9.65651e-01,8.88120e-01,3.49779e-01,9.99686e-01
8.973502660e-01,2.86248e-01,9.99999e-01,9.99999e-01,9.91488e-01,8.09409e-01,3.57112e-01,9.98397e-01
9.018370173e-01,3.25792e-01,9.99999e-01,9.99999e-01,9.99056e-01,8.96971e-01,3.64450e-01,9.97481e-01
9.063462024e-01,3.30440e-01,9.99999e-01,9.99999e-01,9.77178e-01,9.09981e-01,3.71789e-01,9.97787e-01
9.108779334e-01,3.09303e-01,9.99999e-01,9.99999e-01,9.46503e-01,8.62563e-01,3.79126e-01,9.97700e-01
9.154323231e-01,3.21850e-01,9.99999e-01,9.99999e-01,9.87044e-01,8.44795e-01,3.86460e-01,9.98099e-01
9.200094847e-01,2.95736e-01,9.99999e-01,9.99999e-01,8.45655e-01,8.76190e-01,3.93786e-01,9.98935e-01
9.246095321e-01,2.53816e-01,9.99999e-01,9.99999e-01,7.65217e-01,8.20192e-01,4.01102e-01,9.98773e-01
9.292325798e-01,9.50396e-02,9.99999e-01,9.99999e-01,8.14721e-01,2.76183e-01,4.08405e-01,9.95226e-01
9.338787427e-01,6.47910e-02,9.99999e-01,9.99999e-01,8.17347e-01,1.87381e-01,4.15693e-01,9.80416e-01
9.385481364e-01,1.83337e-01,9.99999e-01,9.99999e-01,8.61499e-01,5.06221e-01,4.22964e-01,9.76751e-01
9.432408771e-01,1.56325e-01,9.99999e-01,9.99999e-01,9.12133e-01,4.02589e-01,4.30214e-01,9.79910e-01
9.479570815e-01,1.17824e-01,9.99999e-01,9.99999e-01,9.54029e-01,2.85659e-01,4.37442e-01,9.83619e-01
9.526968669e-01,1.63846e-01,9.99999e-01,9.99999e-01,9.77538e-01,3.79355e-01,4.44645e-01,9.89976e-01
9.574603512e-01,1.77871e-01,9.99999e-01,9.99999e-01,9.90320e-01,3.99010e-01,4.51820e-01,9.94895e-01
9.622476530e-01,2.13436e-01,9.99999e-01,9.99999e-01,9.96967e-01,4.67915e-01,4.58966e-01,9.96467e-01
9.670588912e-01,2.99196e-01,9.99999e-01,9.99999e-01,9.99088e-01,6.44013e-01,4.66081e-01,9.97582e-01
9.718941857e-01,3.57148e-01,9.99999e-01,9.99999e-01,9.99933e-01,7.56197e-01,4.73162e-01,9.98219e-01
9.767536566e-01,3.80201e-01,9.99999e-01,9.99999e-01,9.99999e-01,7.92820e-01,4.80208e-01,9.98639e-01
9.816374249e-01,4.09607e-01,9.99999e-01,9.99999e-01,9.99999e-01,8.41103e-01,4.87217e-01,9.99528e-01
9.865456120e-01,4.43392e-01,9.99999e-01,9.99999e-01,9.99999e-01,8.97303e-01,4.94186e-01,9.99901e-01
9.914783401e-01,4.68615e-01,9.99999e-01,9.99999e-01,9.99999e-01,9.35170e-01,5.01114e-01,9.99972e-01
9.964357318e-01,4.89778e-01,9.99999e-01,9.99999e-01,9.99999e-01,9.64143e-01,5.08000e-01,9.99983e-01
1.001417910e+00,5.03679e-01,9.99999e-01,9.99999e-01,9.99999e-01,9.78342e-01,5.14842e-01,9.99975e-01
1.006425000e+00,5.15163e-01,9.99999e-01,9.99999e-01,9.99999e-01,9.87622e-01,5.21638e-01,9.99964e-01
1.011457125e+00,5.24290e-01,9.99999e-01,9.99999e-01,9.99999e-01,9.92278e-01,5.28386e-01,9.99967e-01
1.016514411e+00,5.32271e-01,9.99999e-01,9.99999e-01,9.99999e-01,9.94760e-01,5.35086e-01,9.99976e-01
1.021596983e+00,5.39404e-01,9.99999e-01,9.99999e-01,9.99887e-01,9.95826e-01,5.41737e-01,9.99976e-01
1.026704968e+00,5.41624e-01,9.99999e-01,9.99999e-01,9.90988e-01,9.96745e-01,5.48336e-01,9.99984e-01
1.031838492e+00,5.11067e-01,9.99999e-01,9.99999e-01,9.23129e-01,9.97628e-01,5.54882e-01,9.99995e-01
1.036997685e+00,3.74886e-02,9.99999e-01,9.99999e-01,6.68512e-02,9.98594e-01,5.61376e-01,9.99998e-01
1.042182673e+00,5.15184e-03,9.99999e-01,9.99999e-01,9.08515e-03,9.98329e-01,5.67814e-01,9.99999e-01
1.047393587e+00,1.16023e-02,9.99999e-01,9.99999e-01,2.02440e-02,9.97781e-01,5.74198e-01,9.99999e-01
1.052630555e+00,6.38032e-06,9.99999e-01,9.99999e-01,1.10123e-05,9.96961e-01,5.80525e-01,9.99998e-01
1.057893707e+00,2.28690e-05,9.99999e-01,9.99999e-01,3.90804e-05,9.94939e-01,5.86794e-01,9.99997e-01
1.063183176e+00,3.10239e-04,9.99999e-01,9.99999e-01,5.25808e-04,9.91676e-01,5.93005e-01,9.99995e-01
1.068499092e+00,2.25306e-03,9.99999e-01,9.99999e-01,3.79794e-03,9.86081e-01,5.99158e-01,9.99990e-01
1.073841587e+00,1.67396e-02,9.99999e-01,9.99999e-01,2.79990e-02,9.83770e-01,6.05251e-01,9.99978e-01
