#,Wave/freq,Total,N2,O2,CO2,H2O,Rayleigh,CIA
4.000000000e-01,1.91190e-13,9.99999e-01,9.99999e-01,9.99999e-01,9.99943e-01,1.91201e-13,9.99999e-01
4.020000000e-01,3.41152e-13,9.99999e-01,9.99999e-01,9.99999e-01,9.99964e-01,3.41164e-13,9.99999e-01
4.040100000e-01,6.01467e-13,9.99999e-01,9.99999e-01,9.99999e-01,9.99984e-01,6.01476e-13,9.99999e-01
4.060300500e-01,1.04859e-12,9.99999e-01,9.99999e-01,9.99999e-01,9.99996e-01,1.04860e-12,9.99999e-01
4.080602003e-01,1.80814e-12,9.99999e-01,9.99999e-01,9.99999e-01,9.99998e-01,1.80814e-12,9.99999e-01
4.101005013e-01,3.08447e-12,9.99999e-01,9.99999e-01,9.99999e-01,9.99999e-01,3.08447e-12,9.99999e-01
4.121510038e-01,5.20651e-12,9.99999e-01,9.99999e-01,9.99999e-01,9.99997e-01,5.20652e-12,9.99999e-01
4.142117588e-01,8.69795e-12,9.99999e-01,9.99999e-01,9.99999e-01,9.99983e-01,8.69809e-12,9.99999e-01
4.162828176e-01,1.43836e-11,9.99999e-01,9.99999e-01,9.99999e-01,9.99929e-01,1.43846e-11,9.99999e-01
4.183642317e-01,2.35526e-11,9.99999e-01,9.99999e-01,9.99999e-01,9.99958e-01,2.35535e-11,9.99999e-01
4.204560528e-01,3.81921e-11,9.99999e-01,9.99999e-01,9.99999e-01,9.99974e-01,3.81930e-11,9.99999e-01
4.225583331e-01,6.13425e-11,9.99999e-01,9.99999e-01,9.99999e-01,9.99990e-01,6.13431e-11,9.99999e-01
4.246711247e-01,9.76066e-11,9.99999e-01,9.99999e-01,9.99999e-01,9.99991e-01,9.76074e-11,9.99999e-01
4.267944804e-01,1.53890e-10,9.99999e-01,9.99999e-01,9.99999e-01,9.99988e-01,1.53892e-10,9.99999e-01
4.289284528e-01,2.40457e-10,9.99999e-01,9.99999e-01,9.99999e-01,9.99990e-01,2.40460e-10,9.99999e-01
4.310730950e-01,3.72425e-10,9.99999e-01,9.99999e-01,9.99999e-01,9.99995e-01,3.72426e-10,9.99999e-01
4.332284605e-01,5.71854e-10,9.99999e-01,9.99999e-01,9.99999e-01,9.99998e-01,5.71855e-10,9.99999e-01
4.353946028e-01,8.70667e-10,9.99999e-01,9.99999e-01,9.99999e-01,9.99999e-01,8.70667e-10,9.99999e-01
4.375715758e-01,1.31465e-09,9.99999e-01,9.99999e-01,9.99999e-01,9.99992e-01,1.31466e-09,9.99999e-01
4.397594337e-01,1.96884e-09,9.99999e-01,9.99999e-01,9.99999e-01,9.99937e-01,1.96896e-09,9.99999e-01
4.419582309e-01,2.92456e-09,9.99999e-01,9.99999e-01,9.99999e-01,9.99682e-01,2.92549e-09,9.99999e-01
4.441680220e-01,4.31179e-09,9.99999e-01,9.99999e-01,9.99999e-01,9.99758e-01,4.31283e-09,9.99999e-01
4.463888621e-01,6.30792e-09,9.99999e-01,9.99999e-01,9.99999e-01,9.99746e-01,6.30952e-09,9.99999e-01
4.486208064e-01,9.16007e-09,9.99999e-01,9.99999e-01,9.99999e-01,9.99843e-01,9.16150e-09,9.99999e-01
4.508639105e-01,1.32040e-08,9.99999e-01,9.99999e-01,9.99999e-01,9.99926e-01,1.32050e-08,9.99999e-01
4.531182300e-01,1.88956e-08,9.99999e-01,9.99999e-01,9.99999e-01,9.99970e-01,1.88961e-08,9.99999e-01
4.553838212e-01,2.68488e-08,9.99999e-01,9.99999e-01,9.99999e-01,9.99979e-01,2.68493e-08,9.99999e-01
4.576607403e-01,3.78858e-08,9.99999e-01,9.99999e-01,9.99999e-01,9.99990e-01,3.78862e-08,9.99999e-01
4.599490440e-01,5.30972e-08,9.99999e-01,9.99999e-01,9.99999e-01,9.99993e-01,5.30975e-08,9.99999e-01
4.622487892e-01,7.39216e-08,9.99999e-01,9.99999e-01,9.99999e-01,9.99998e-01,7.39217e-08,9.99999e-01
4.645600332e-01,1.02242e-07,9.99999e-01,9.99999e-01,9.99999e-01,9.99994e-01,1.02242e-07,9.99999e-01
4.668828333e-01,1.40500e-07,9.99999e-01,9.99999e-01,9.99999e-01,9.99924e-01,1.40510e-07,9.99999e-01
4.692172475e-01,1.91862e-07,9.99999e-01,9.99999e-01,9.99999e-01,9.99841e-01,1.91893e-07,9.99999e-01
4.715633337e-01,2.60429e-07,9.99999e-01,9.99999e-01,9.99999e-01,9.99895e-01,2.60456e-07,9.99999e-01
4.739211504e-01,3.51356e-07,9.99999e-01,9.99999e-01,9.99999e-01,9.99900e-01,3.51390e-07,9.99999e-01
4.762907561e-01,4.71253e-07,9.99999e-01,9.99999e-01,9.99999e-01,9.99948e-01,4.71277e-07,9.99999e-01
4.786722099e-01,6.28400e-07,9.99999e-01,9.99999e-01,9.99999e-01,9.99978e-01,6.28413e-07,9.99999e-01
4.810655710e-01,8.33187e-07,9.99999e-01,9.99999e-01,9.99999e-01,9.99993e-01,8.33192e-07,9.99999e-01
4.834708988e-01,1.09850e-06,9.99999e-01,9.99999e-01,9.99999e-01,9.99937e-01,1.09856e-06,9.99999e-01
4.858882533e-01,1.44041e-06,9.99999e-01,9.99999e-01,9.99999e-01,9.99887e-01,1.44057e-06,9.99999e-01
4.883176946e-01,1.87878e-06,9.99999e-01,9.99999e-01,9.99999e-01,9.99905e-01,1.87896e-06,9.99999e-01
4.907592831e-01,2.43773e-06,9.99999e-01,9.99999e-01,9.99999e-01,9.99914e-01,2.43793e-06,9.99999e-01
4.932130795e-01,3.14678e-06,9.99999e-01,9.99999e-01,9.99999e-01,9.99939e-01,3.14696e-06,9.99999e-01
4.956791449e-01,4.04165e-06,9.99999e-01,9.99999e-01,9.99999e-01,9.99967e-01,4.04177e-06,9.99999e-01
4.981575406e-01,5.16459e-06,9.99999e-01,9.99999e-01,9.99999e-01,9.99839e-01,5.16542e-06,9.99999e-01
5.006483283e-01,6.56677e-06,9.99999e-01,9.99999e-01,9.99999e-01,9.99580e-01,6.56954e-06,9.99996e-01
5.031515699e-01,8.29811e-06,9.99999e-01,9.99999e-01,9.99999e-01,9.97900e-01,8.31575e-06,9.99977e-01
5.056673278e-01,1.04654e-05,9.99999e-01,9.99999e-01,9.99999e-01,9.98896e-01,1.04772e-05,9.99974e-01
5.081956644e-01,1.31219e-05,9.99999e-01,9.99999e-01,9.99999e-01,9.98608e-01,1.31404e-05,9.99984e-01
5.107366428e-01,1.63915e-05,9.99999e-01,9.99999e-01,9.99999e-01,9.99061e-01,1.64070e-05,9.99996e-01
5.132903260e-01,2.03850e-05,9.99999e-01,9.99999e-01,9.99999e-01,9.99464e-01,2.03959e-05,9.99999e-01
5.158567776e-01,2.52402e-05,9.99999e-01,9.99999e-01,9.99999e-01,9.99773e-01,2.52459e-05,9.99999e-01
5.184360615e-01,3.11150e-05,9.99999e-01,9.99999e-01,9.99999e-01,9.99909e-01,3.11178e-05,9.99999e-01
5.210282418e-01,3.81961e-05,9.99999e-01,9.99999e-01,9.99999e-01,9.99965e-01,3.81974e-05,9.99999e-01
5.236333830e-01,4.66917e-05,9.99999e-01,9.99999e-01,9.99999e-01,9.99863e-01,4.66981e-05,9.99998e-01
5.262515499e-01,5.68596e-05,9.99999e-01,9.99999e-01,9.99999e-01,9.99914e-01,5.68645e-05,9.99998e-01
5.288828077e-01,6.89698e-05,9.99999e-01,9.99999e-01,9.99999e-01,9.99920e-01,6.89753e-05,9.99998e-01
5.315272217e-01,8.33413e-05,9.99999e-01,9.99999e-01,9.99999e-01,9.99931e-01,8.33470e-05,9.99999e-01
5.341848578e-01,1.00333e-04,9.99999e-01,9.99999e-01,9.99999e-01,9.99954e-01,1.00337e-04,9.99999e-01
5.368557821e-01,1.20330e-04,9.99999e-01,9.99999e-01,9.99999e-01,9.99839e-01,1.20349e-04,9.99999e-01
5.395400610e-01,1.43750e-04,9.99999e-01,9.99999e-01,9.99999e-01,9.99416e-01,1.43835e-04,9.99994e-01
5.422377613e-01,1.71171e-04,9.99999e-01,9.99999e-01,9.99999e-01,9.99261e-01,1.71299e-04,9.99985e-01
5.449489501e-01,2.03162e-04,9.99999e-01,9.99999e-01,9.99999e-01,9.99306e-01,2.03305e-04,9.99985e-01
5.476736949e-01,2.40328e-04,9.99999e-01,9.99999e-01,9.99999e-01,9.99392e-01,2.40476e-04,9.99992e-01
5.504120634e-01,2.83375e-04,9.99999e-01,9.99999e-01,9.99999e-01,9.99558e-01,2.83501e-04,9.99997e-01
5.531641237e-01,3.33065e-04,9.99999e-01,9.99999e-01,9.99999e-01,9.99777e-01,3.33139e-04,9.99999e-01
5.559299443e-01,3.90181e-04,9.99999e-01,9.99999e-01,9.99999e-01,9.99892e-01,3.90222e-04,9.99999e-01
5.587095940e-01,4.55631e-04,9.99999e-01,9.99999e-01,9.99999e-01,9.99932e-01,4.55661e-04,9.99999e-01
5.615031420e-01,5.30408e-04,9.99999e-01,9.99999e-01,9.99999e-01,9.99924e-01,5.30447e-04,9.99999e-01
5.643106577e-01,6.15603e-04,9.99999e-01,9.99999e-01,9.99999e-01,9.99912e-01,6.15657e-04,9.99998e-01
5.671322110e-01,7.11693e-04,9.99999e-01,9.99999e-01,9.99999e-01,9.98939e-01,7.12455e-04,9.99990e-01
5.699678720e-01,8.21179e-04,9.99999e-01,9.99999e-01,9.99999e-01,9.98910e-01,8.22097e-04,9.99971e-01
5.728177114e-01,9.44824e-04,9.99999e-01,9.99999e-01,9.99999e-01,9.98849e-01,9.45934e-04,9.99976e-01
5.756818000e-01,1.08426e-03,9.99999e-01,9.99999e-01,9.99999e-01,9.98947e-01,1.08541e-03,9.99985e-01
5.785602090e-01,1.24094e-03,9.99999e-01,9.99999e-01,9.99999e-01,9.99084e-01,1.24208e-03,9.99995e-01
5.814530100e-01,1.41627e-03,9.99999e-01,9.99999e-01,9.99999e-01,9.99077e-01,1.41758e-03,9.99997e-01
5.843602750e-01,1.61186e-03,9.99999e-01,9.99999e-01,9.99999e-01,9.98890e-01,1.61366e-03,9.99993e-01
5.872820764e-01,1.81462e-03,9.99999e-01,9.99999e-01,9.99999e-01,9.90489e-01,1.83216e-03,9.99933e-01
5.902184868e-01,2.05103e-03,9.99999e-01,9.99999e-01,9.99999e-01,9.88606e-01,2.07504e-03,9.99818e-01
5.931695792e-01,2.32499e-03,9.99999e-01,9.99999e-01,9.99999e-01,9.91912e-01,2.34435e-03,9.99825e-01
5.961354271e-01,2.61861e-03,9.99999e-01,9.99999e-01,9.99999e-01,9.91159e-01,2.64223e-03,9.99899e-01
5.991161043e-01,2.95170e-03,9.99999e-01,9.99999e-01,9.99999e-01,9.93553e-01,2.97094e-03,9.99968e-01
6.021116848e-01,3.32061e-03,9.99999e-01,9.99999e-01,9.99999e-01,9.96343e-01,3.33281e-03,9.99996e-01
6.051222432e-01,3.72337e-03,9.99999e-01,9.99999e-01,9.99999e-01,9.98149e-01,3.73027e-03,9.99999e-01
6.081478544e-01,4.16253e-03,9.99999e-01,9.99999e-01,9.99999e-01,9.99200e-01,4.16586e-03,9.99999e-01
6.111885937e-01,4.64061e-03,9.99999e-01,9.99999e-01,9.99999e-01,9.99662e-01,4.64218e-03,9.99999e-01
6.142445367e-01,5.16112e-03,9.99999e-01,9.99999e-01,9.99999e-01,9.99848e-01,5.16190e-03,9.99999e-01
6.173157594e-01,5.72732e-03,9.99999e-01,9.99999e-01,9.99999e-01,9.99916e-01,5.72779e-03,9.99999e-01
6.204023382e-01,6.34223e-03,9.99999e-01,9.99999e-01,9.99999e-01,9.99928e-01,6.34268e-03,9.99999e-01
6.235043498e-01,7.00720e-03,9.99999e-01,9.99999e-01,9.99999e-01,9.99681e-01,7.00944e-03,9.99998e-01
6.266218716e-01,7.71816e-03,9.99999e-01,9.99999e-01,9.99999e-01,9.98348e-01,7.73101e-03,9.99987e-01
6.297549810e-01,8.50503e-03,9.99999e-01,9.99999e-01,9.99999e-01,9.99393e-01,8.51038e-03,9.99976e-01
6.329037559e-01,9.33923e-03,9.99999e-01,9.99999e-01,9.99999e-01,9.98807e-01,9.35056e-03,9.99980e-01
6.360682746e-01,1.02440e-02,9.99999e-01,9.99999e-01,9.99999e-01,9.98978e-01,1.02546e-02,9.99988e-01
6.392486160e-01,1.12107e-02,9.99999e-01,9.99999e-01,9.99999e-01,9.98679e-01,1.12256e-02,9.99994e-01
6.424448591e-01,1.22445e-02,9.99999e-01,9.99999e-01,9.99999e-01,9.98215e-01,1.22665e-02,9.99990e-01
6.456570834e-01,1.32693e-02,9.99999e-01,9.99999e-01,9.99999e-01,9.91738e-01,1.33805e-02,9.99949e-01
6.488853688e-01,1.44819e-02,9.99999e-01,9.99999e-01,9.99999e-01,9.94030e-01,1.45707e-02,9.99872e-01
6.521297956e-01,1.57420e-02,9.99999e-01,9.99999e-01,9.99999e-01,9.93917e-01,1.58400e-02,9.99894e-01
6.553904446e-01,1.70855e-02,9.99999e-01,9.99999e-01,9.99999e-01,9.93905e-01,1.71916e-02,9.99921e-01
6.586673968e-01,1.85311e-02,9.99999e-01,9.99999e-01,9.99999e-01,9.94808e-01,1.86283e-02,9.99973e-01
6.619607338e-01,2.00946e-02,9.99999e-01,9.99999e-01,9.99999e-01,9.97104e-01,2.01530e-02,9.99993e-01
6.652705375e-01,2.17309e-02,9.99999e-01,9.99999e-01,9.99999e-01,9.98261e-01,2.17688e-02,9.99996e-01
6.685968902e-01,2.34609e-02,9.99999e-01,9.99999e-01,9.99999e-01,9.99261e-01,2.34783e-02,9.99999e-01
6.719398746e-01,2.52748e-02,9.99999e-01,9.99999e-01,9.99999e-01,9.99625e-01,2.52842e-02,9.99999e-01
6.752995740e-01,2.71839e-02,9.99999e-01,9.99999e-01,9.99999e-01,9.99801e-01,2.71892e-02,9.99999e-01
6.786760719e-01,2.91872e-02,9.99999e-01,9.99999e-01,9.99999e-01,9.99703e-01,2.91959e-02,9.99999e-01
6.820694522e-01,3.12905e-02,9.99999e-01,9.99999e-01,9.99999e-01,9.99490e-01,3.13065e-02,9.99996e-01
6.854797995e-01,3.35016e-02,9.99999e-01,9.99999e-01,9.99999e-01,9.99348e-01,3.35236e-02,9.99993e-01
6.889071985e-01,3.57911e-02,9.99999e-01,9.99999e-01,9.99999e-01,9.98396e-01,3.58491e-02,9.99985e-01
6.923517345e-01,3.73016e-02,9.99999e-01,9.99999e-01,9.99999e-01,9.74429e-01,3.82852e-02,9.99876e-01
6.958134932e-01,4.02909e-02,9.99999e-01,9.99999e-01,9.99999e-01,9.86973e-01,4.08338e-02,9.99727e-01
6.992925606e-01,4.29331e-02,9.99999e-01,9.99999e-01,9.99999e-01,9.87286e-01,4.34966e-02,9.99754e-01
7.027890234e-01,4.55486e-02,9.99999e-01,9.99999e-01,9.99999e-01,9.84479e-01,4.62753e-02,9.99812e-01
7.063029686e-01,4.85235e-02,9.99999e-01,9.99999e-01,9.99999e-01,9.86916e-01,4.91713e-02,9.99906e-01
7.098344834e-01,5.15278e-02,9.99999e-01,9.99999e-01,9.99999e-01,9.87442e-01,5.21860e-02,9.99944e-01
7.133836558e-01,5.43773e-02,9.99999e-01,9.99999e-01,9.99999e-01,9.83059e-01,5.53204e-02,9.99889e-01
7.169505741e-01,5.11179e-02,9.99999e-01,9.99999e-01,9.99999e-01,8.73436e-01,5.85755e-02,9.99137e-01
7.205353270e-01,5.79717e-02,9.99999e-01,9.99999e-01,9.99999e-01,9.37172e-01,6.19522e-02,9.98478e-01
7.241380036e-01,6.00871e-02,9.99999e-01,9.99999e-01,9.99999e-01,9.19252e-01,6.54511e-02,9.98686e-01
7.277586936e-01,6.39583e-02,9.99999e-01,9.99999e-01,9.99999e-01,9.26952e-01,6.90725e-02,9.98925e-01
7.313974871e-01,6.71715e-02,9.99999e-01,9.99999e-01,9.99999e-01,9.22936e-01,7.28169e-02,9.99496e-01
7.350544745e-01,7.33740e-02,9.99999e-01,9.99999e-01,9.99999e-01,9.57001e-01,7.66842e-02,9.99824e-01
7.387297469e-01,7.81005e-02,9.99999e-01,9.99999e-01,9.99999e-01,9.68172e-01,8.06744e-02,9.99919e-01
7.424233956e-01,8.34581e-02,9.99999e-01,9.99999e-01,9.99999e-01,9.84338e-01,8.47872e-02,9.99985e-01
7.461355126e-01,8.81729e-02,9.99999e-01,9.99999e-01,9.99999e-01,9.90461e-01,8.90222e-02,9.99997e-01
7.498661902e-01,9.29646e-02,9.99999e-01,9.99999e-01,9.99999e-01,9.95564e-01,9.33788e-02,9.99998e-01
7.536155211e-01,9.76423e-02,9.99999e-01,9.99999e-01,9.99999e-01,9.97814e-01,9.78562e-02,9.99998e-01
7.573835987e-01,1.02338e-01,9.99999e-01,9.99999e-01,9.99999e-01,9.98874e-01,1.02453e-01,9.99999e-01
7.611705167e-01,1.07095e-01,9.99999e-01,9.99999e-01,9.99999e-01,9.99300e-01,1.07170e-01,9.99999e-01
7.649763693e-01,1.11954e-01,9.99999e-01,9.99999e-01,9.99999e-01,9.99560e-01,1.12003e-01,9.99999e-01
7.688012511e-01,1.16917e-01,9.99999e-01,9.99999e-01,9.99999e-01,9.99693e-01,1.16953e-01,9.99999e-01
7.726452574e-01,1.21986e-01,9.99999e-01,9.99999e-01,9.99999e-01,9.99747e-01,1.22017e-01,9.99999e-01
7.765084837e-01,1.27147e-01,9.99999e-01,9.99999e-01,9.99999e-01,9.99637e-01,1.27193e-01,9.99999e-01
7.803910261e-01,1.21299e-01,9.99999e-01,9.99999e-01,9.16923e-01,9.98433e-01,1.32481e-01,9.99997e-01
7.842929812e-01,9.21999e-02,9.99999e-01,9.99999e-01,6.71982e-01,9.94540e-01,1.37877e-01,9.99989e-01
7.882144461e-01,9.28804e-02,9.99999e-01,9.99999e-01,6.54434e-01,9.88898e-01,1.43381e-01,9.99923e-01
7.921555184e-01,1.14336e-01,9.99999e-01,9.99999e-01,7.71917e-01,9.93938e-01,1.48988e-01,9.99866e-01
7.961162960e-01,1.28678e-01,9.99999e-01,9.99999e-01,8.40815e-01,9.89156e-01,1.54698e-01,9.99873e-01
8.000968774e-01,1.44239e-01,9.99999e-01,9.99999e-01,9.09992e-01,9.87569e-01,1.60507e-01,9.99865e-01
8.040973618e-01,1.56524e-01,9.99999e-01,9.99999e-01,9.52473e-01,9.87546e-01,1.66413e-01,9.99896e-01
8.081178486e-01,1.63856e-01,9.99999e-01,9.99999e-01,9.77772e-01,9.71969e-01,1.72413e-01,9.99895e-01
8.121584379e-01,1.57555e-01,9.99999e-01,9.99999e-01,9.93172e-01,8.88891e-01,1.78505e-01,9.99605e-01
8.162192301e-01,1.60435e-01,9.99999e-01,9.99999e-01,9.98486e-01,8.71231e-01,1.84685e-01,9.98520e-01
8.203003262e-01,1.77866e-01,9.99999e-01,9.99999e-01,9.99979e-01,9.33106e-01,1.90951e-01,9.98267e-01
8.244018279e-01,1.79480e-01,9.99999e-01,9.99999e-01,9.99999e-01,9.10939e-01,1.97299e-01,9.98620e-01
8.285238370e-01,1.87260e-01,9.99999e-01,9.99999e-01,9.99999e-01,9.20165e-01,2.03727e-01,9.98916e-01
8.326664562e-01,1.93289e-01,9.99999e-01,9.99999e-01,9.99999e-01,9.19823e-01,2.10231e-01,9.99551e-01
8.368297885e-01,2.04211e-01,9.99999e-01,9.99999e-01,9.99999e-01,9.41992e-01,2.16808e-01,9.99897e-01
8.410139374e-01,2.15646e-01,9.99999e-01,9.99999e-01,9.99999e-01,9.65114e-01,2.23454e-01,9.99939e-01
8.452190071e-01,2.26192e-01,9.99999e-01,9.99999e-01,9.99999e-01,9.82760e-01,2.30168e-01,9.99963e-01
8.494451021e-01,2.34547e-01,9.99999e-01,9.99999e-01,9.99999e-01,9.89914e-01,2.36944e-01,9.99970e-01
8.536923276e-01,2.42325e-01,9.99999e-01,9.99999e-01,9.99999e-01,9.94048e-01,2.43780e-01,9.99982e-01
8.579607893e-01,2.49748e-01,9.99999e-01,9.99999e-01,9.99999e-01,9.96318e-01,2.50672e-01,9.99995e-01
8.622505932e-01,2.57016e-01,9.99999e-01,9.99999e-01,9.99999e-01,9.97666e-01,2.57617e-01,9.99998e-01
8.665618462e-01,2.29821e-01,9.99999e-01,9.99999e-01,8.69698e-01,9.98549e-01,2.64612e-01,9.99999e-01
8.708946554e-01,1.00984e-01,9.99999e-01,9.99999e-01,3.72312e-01,9.98334e-01,2.71653e-01,9.99998e-01
8.752491287e-01,1.23072e-01,9.99999e-01,9.99999e-01,4.42459e-01,9.97775e-01,2.78737e-01,9.99997e-01
8.796253743e-01,1.80489e-01,9.99999e-01,9.99999e-01,6.33212e-01,9.96907e-01,2.85860e-01,9.99992e-01
8.840235012e-01,2.29562e-01,9.99999e-01,9.99999e-01,7.86118e-01,9.96472e-01,2.93019e-01,9.99978e-01
8.884436187e-01,2.69527e-01,9.99999e-01,9.99999e-01,9.09428e-01,9.86926e-01,3.00210e-01,9.99938e-01
8.928858368e-01,2.58448e-01,9.99999e-01,9.99999e-01,9.62126e-01,8.73255e-01,3.07431e-01,9.99648e-01
8.973502660e-01,2.45865e-01,9.99999e-01,9.99999e-01,9.90726e-01,7.89660e-01,3.14678e-01,9.98199e-01
9.018370173e-01,2.84668e-01,9.99999e-01,9.99999e-01,9.98978e-01,8.87548e-01,3.21947e-01,9.97171e-01
9.063462024e-01,2.87729e-01,9.99999e-01,9.99999e-01,9.73333e-01,8.98098e-01,3.29235e-01,9.97514e-01
9.108779334e-01,2.67899e-01,9.99999e-01,9.99999e-01,9.40780e-01,8.46688e-01,3.36540e-01,9.97417e-01
9.154323231e-01,2.80250e-01,9.99999e-01,9.99999e-01,9.85963e-01,8.27731e-01,3.43858e-01,9.97865e-01
9.200094847e-01,2.54720e-01,9.99999e-01,9.99999e-01,8.26594e-01,8.63070e-01,3.51186e-01,9.98804e-01
9.246095321e-01,2.13875e-01,9.99999e-01,9.99999e-01,7.42513e-01,7.94975e-01,3.58520e-01,9.98622e-01
9.292325798e-01,7.14168e-02,9.99999e-01,9.99999e-01,7.92462e-01,2.36345e-01,3.65858e-01,9.93368e-01
9.338787427e-01,4.84319e-02,9.99999e-01,9.99999e-01,7.98897e-01,1.59353e-01,3.73198e-01,9.76237e-01
9.385481364e-01,1.51821e-01,9.99999e-01,9.99999e-01,8.46887e-01,4.73847e-01,3.80534e-01,9.73923e-01
9.432408771e-01,1.25301e-01,9.99999e-01,9.99999e-01,9.03128e-01,3.61591e-01,3.87866e-01,9.77462e-01
9.479570815e-01,9.15753e-02,9.99999e-01,9.99999e-01,9.48909e-01,2.47275e-01,3.95191e-01,9.81618e-01
9.526968669e-01,1.33158e-01,9.99999e-01,9.99999e-01,9.75117e-01,3.41637e-01,4.02505e-01,9.88747e-01
9.574603512e-01,1.45464e-01,9.99999e-01,9.99999e-01,9.89287e-01,3.60263e-01,4.09805e-01,9.94268e-01
9.622476530e-01,1.78853e-01,9.99999e-01,9.99999e-01,9.96651e-01,4.31754e-01,4.17090e-01,9.96033e-01
9.670588912e-01,2.59307e-01,9.99999e-01,9.99999e-01,9.98998e-01,6.13186e-01,4.24357e-01,9.97399e-01
9.718941857e-01,3.15048e-01,9.99999e-01,9.99999e-01,9.99930e-01,7.31446e-01,4.31603e-01,9.98007e-01
9.767536566e-01,3.37824e-01,9.99999e-01,9.99999e-01,9.99999e-01,7.71012e-01,4.38826e-01,9.98471e-01
9.816374249e-01,3.67600e-01,9.99999e-01,9.99999e-01,9.99999e-01,8.24606e-01,4.46024e-01,9.99470e-01
9.865456120e-01,4.01611e-01,9.99999e-01,9.99999e-01,9.99999e-01,8.86276e-01,4.53194e-01,9.99889e-01
9.914783401e-01,4.27147e-01,9.99999e-01,9.99999e-01,9.99999e-01,9.27934e-01,4.60335e-01,9.99968e-01
9.964357318e-01,4.48781e-01,9.99999e-01,9.99999e-01,9.99999e-01,9.60092e-01,4.67443e-01,9.99981e-01
1.001417910e+00,4.63068e-01,9.99999e-01,9.99999e-01,9.99999e-01,9.75896e-01,4.74518e-01,9.99972e-01
1.006425000e+00,4.74868e-01,9.99999e-01,9.99999e-01,9.99999e-01,9.86147e-01,4.81556e-01,9.99960e-01
1.011457125e+00,4.84343e-01,9.99999e-01,9.99999e-01,9.99999e-01,9.91408e-01,4.88557e-01,9.99963e-01
1.016514411e+00,4.92607e-01,9.99999e-01,9.99999e-01,9.99999e-01,9.94149e-01,4.95519e-01,9.99974e-01
1.021596983e+00,4.99998e-01,9.99999e-01,9.99999e-01,9.99831e-01,9.95331e-01,5.02439e-01,9.99974e-01
1.026704968e+00,5.02055e-01,9.99999e-01,9.99999e-01,9.89349e-01,9.96354e-01,5.09317e-01,9.99983e-01
1.031838492e+00,4.66900e-01,9.99999e-01,9.99999e-01,9.06850e-01,9.97356e-01,5.16150e-01,9.99994e-01
1.036997685e+00,2.94800e-02,9.99999e-01,9.99999e-01,5.64413e-02,9.98424e-01,5.22937e-01,9.99998e-01
1.042182673e+00,3.09556e-03,9.99999e-01,9.99999e-01,5.85287e-03,9.98113e-01,5.29676e-01,9.99999e-01
1.047393587e+00,7.18490e-03,9.99999e-01,9.99999e-01,1.34235e-02,9.97504e-01,5.36367e-01,9.99999e-01
1.052630555e+00,1.95508e-06,9.99999e-01,9.99999e-01,3.60835e-06,9.96571e-01,5.43007e-01,9.99998e-01
1.057893707e+00,7.51302e-06,9.99999e-01,9.99999e-01,1.37122e-05,9.94271e-01,5.49596e-01,9.99997e-01
1.063183176e+00,1.35057e-04,9.99999e-01,9.99999e-01,2.44209e-04,9.90603e-01,5.56133e-01,9.99994e-01
1.068499092e+00,1.12044e-03,9.99999e-01,9.99999e-01,2.01319e-03,9.84344e-01,5.62616e-01,9.99988e-01
1.073841587e+00,1.05018e-02,9.99999e-01,9.99999e-01,1.87090e-02,9.81670e-01,5.69044e-01,9.99976e-01
