#,Wave/freq,Total,N2,O2,CO2,H2O,Rayleigh,CIA
4.000000000e-01,1.17611e-06,9.99999e-01,9.99999e-01,9.99999e-01,9.99973e-01,1.17614e-06,9.99999e-01
4.020000000e-01,1.54062e-06,9.99999e-01,9.99999e-01,9.99999e-01,9.99983e-01,1.54064e-06,9.99999e-01
4.040100000e-01,2.00681e-06,9.99999e-01,9.99999e-01,9.99999e-01,9.99992e-01,2.00683e-06,9.99999e-01
4.060300500e-01,2.60045e-06,9.99999e-01,9.99999e-01,9.99999e-01,9.99997e-01,2.60045e-06,9.99999e-01
4.080602003e-01,3.35247e-06,9.99999e-01,9.99999e-01,9.99999e-01,9.99998e-01,3.35248e-06,9.99999e-01
4.101005013e-01,4.30035e-06,9.99999e-01,9.99999e-01,9.99999e-01,9.99999e-01,4.30035e-06,9.99999e-01
4.121510038e-01,5.48914e-06,9.99999e-01,9.99999e-01,9.99999e-01,9.99998e-01,5.48915e-06,9.99999e-01
4.142117588e-01,6.97284e-06,9.99999e-01,9.99999e-01,9.99999e-01,9.99992e-01,6.97289e-06,9.99999e-01
4.162828176e-01,8.81564e-06,9.99999e-01,9.99999e-01,9.99999e-01,9.99967e-01,8.81593e-06,9.99999e-01
4.183642317e-01,1.10944e-05,9.99999e-01,9.99999e-01,9.99999e-01,9.99980e-01,1.10946e-05,9.99999e-01
4.204560528e-01,1.38988e-05,9.99999e-01,9.99999e-01,9.99999e-01,9.99987e-01,1.38990e-05,9.99999e-01
4.225583331e-01,1.73348e-05,9.99999e-01,9.99999e-01,9.99999e-01,9.99995e-01,1.73349e-05,9.99999e-01
4.246711247e-01,2.15260e-05,9.99999e-01,9.99999e-01,9.99999e-01,9.99995e-01,2.15260e-05,9.99999e-01
4.267944804e-01,2.66163e-05,9.99999e-01,9.99999e-01,9.99999e-01,9.99994e-01,2.66164e-05,9.99999e-01
4.289284528e-01,3.27727e-05,9.99999e-01,9.99999e-01,9.99999e-01,9.99995e-01,3.27729e-05,9.99999e-01
4.310730950e-01,4.01877e-05,9.99999e-01,9.99999e-01,9.99999e-01,9.99997e-01,4.01878e-05,9.99999e-01
4.332284605e-01,4.90822e-05,9.99999e-01,9.99999e-01,9.99999e-01,9.99999e-01,4.90822e-05,9.99999e-01
4.353946028e-01,5.97089e-05,9.99999e-01,9.99999e-01,9.99999e-01,9.99999e-01,5.97089e-05,9.99999e-01
4.375715758e-01,7.23554e-05,9.99999e-01,9.99999e-01,9.99999e-01,9.99996e-01,7.23557e-05,9.99999e-01
4.397594337e-01,8.73466e-05,9.99999e-01,9.99999e-01,9.99999e-01,9.99970e-01,8.73491e-05,9.99999e-01
4.419582309e-01,1.05043e-04,9.99999e-01,9.99999e-01,9.99999e-01,9.99854e-01,1.05058e-04,9.99999e-01
4.441680220e-01,1.25883e-04,9.99999e-01,9.99999e-01,9.99999e-01,9.99886e-01,1.25897e-04,9.99999e-01
4.463888621e-01,1.50314e-04,9.99999e-01,9.99999e-01,9.99999e-01,9.99881e-01,1.50331e-04,9.99999e-01
4.486208064e-01,1.78867e-04,9.99999e-01,9.99999e-01,9.99999e-01,9.99926e-01,1.78880e-04,9.99999e-01
4.508639105e-01,2.12114e-04,9.99999e-01,9.99999e-01,9.99999e-01,9.99965e-01,2.12121e-04,9.99999e-01
4.531182300e-01,2.50690e-04,9.99999e-01,9.99999e-01,9.99999e-01,9.99985e-01,2.50693e-04,9.99999e-01
4.553838212e-01,2.95301e-04,9.99999e-01,9.99999e-01,9.99999e-01,9.99990e-01,2.95303e-04,9.99999e-01
4.576607403e-01,3.46727e-04,9.99999e-01,9.99999e-01,9.99999e-01,9.99995e-01,3.46728e-04,9.99999e-01
4.599490440e-01,4.05818e-04,9.99999e-01,9.99999e-01,9.99999e-01,9.99996e-01,4.05820e-04,9.99999e-01
4.622487892e-01,4.73507e-04,9.99999e-01,9.99999e-01,9.99999e-01,9.99998e-01,4.73507e-04,9.99999e-01
4.645600332e-01,5.50803e-04,9.99999e-01,9.99999e-01,9.99999e-01,9.99997e-01,5.50804e-04,9.99999e-01
4.668828333e-01,6.38786e-04,9.99999e-01,9.99999e-01,9.99999e-01,9.99964e-01,6.38809e-04,9.99999e-01
4.692172475e-01,7.38653e-04,9.99999e-01,9.99999e-01,9.99999e-01,9.99925e-01,7.38708e-04,9.99999e-01
4.715633337e-01,8.51740e-04,9.99999e-01,9.99999e-01,9.99999e-01,9.99951e-01,8.51781e-04,9.99999e-01
4.739211504e-01,9.79358e-04,9.99999e-01,9.99999e-01,9.99999e-01,9.99953e-01,9.79403e-04,9.99999e-01
4.762907561e-01,1.12302e-03,9.99999e-01,9.99999e-01,9.99999e-01,9.99975e-01,1.12305e-03,9.99999e-01
4.786722099e-01,1.28427e-03,9.99999e-01,9.99999e-01,9.99999e-01,9.99989e-01,1.28428e-03,9.99999e-01
4.810655710e-01,1.46477e-03,9.99999e-01,9.99999e-01,9.99999e-01,9.99996e-01,1.46477e-03,9.99999e-01
4.834708988e-01,1.66625e-03,9.99999e-01,9.99999e-01,9.99999e-01,9.99971e-01,1.66630e-03,9.99999e-01
4.858882533e-01,1.89064e-03,9.99999e-01,9.99999e-01,9.99999e-01,9.99947e-01,1.89074e-03,9.99999e-01
4.883176946e-01,2.13996e-03,9.99999e-01,9.99999e-01,9.99999e-01,9.99955e-01,2.14005e-03,9.99999e-01
4.907592831e-01,2.41623e-03,9.99999e-01,9.99999e-01,9.99999e-01,9.99959e-01,2.41632e-03,9.99999e-01
4.932130795e-01,2.72165e-03,9.99999e-01,9.99999e-01,9.99999e-01,9.99971e-01,2.72172e-03,9.99999e-01
4.956791449e-01,3.05848e-03,9.99999e-01,9.99999e-01,9.99999e-01,9.99984e-01,3.05853e-03,9.99999e-01
4.981575406e-01,3.42884e-03,9.99999e-01,9.99999e-01,9.99999e-01,9.99925e-01,3.42910e-03,9.99999e-01
5.006483283e-01,3.83514e-03,9.99999e-01,9.99999e-01,9.99999e-01,9.99806e-01,3.83589e-03,9.99998e-01
5.031515699e-01,4.27722e-03,9.99999e-01,9.99999e-01,9.99999e-01,9.99022e-01,4.28145e-03,9.99989e-01
5.056673278e-01,4.76589e-03,9.99999e-01,9.99999e-01,9.99999e-01,9.99484e-01,4.76840e-03,9.99987e-01
5.081956644e-01,5.29596e-03,9.99999e-01,9.99999e-01,9.99999e-01,9.99349e-01,5.29945e-03,9.99991e-01
5.107366428e-01,5.87478e-03,9.99999e-01,9.99999e-01,9.99999e-01,9.99560e-01,5.87736e-03,9.99998e-01
5.132903260e-01,6.50336e-03,9.99999e-01,9.99999e-01,9.99999e-01,9.99748e-01,6.50499e-03,9.99999e-01
5.158567776e-01,7.18447e-03,9.99999e-01,9.99999e-01,9.99999e-01,9.99893e-01,7.18523e-03,9.99999e-01
5.184360615e-01,7.92068e-03,9.99999e-01,9.99999e-01,9.99999e-01,9.99957e-01,7.92102e-03,9.99999e-01
5.210282418e-01,8.71522e-03,9.99999e-01,9.99999e-01,9.99999e-01,9.99983e-01,8.71536e-03,9.99999e-01
5.236333830e-01,9.57066e-03,9.99999e-01,9.99999e-01,9.99999e-01,9.99935e-01,9.57127e-03,9.99999e-01
5.262515499e-01,1.04914e-02,9.99999e-01,9.99999e-01,9.99999e-01,9.99959e-01,1.04918e-02,9.99998e-01
5.288828077e-01,1.14796e-02,9.99999e-01,9.99999e-01,9.99999e-01,9.99962e-01,1.14800e-02,9.99999e-01
5.315272217e-01,1.25386e-02,9.99999e-01,9.99999e-01,9.99999e-01,9.99967e-01,1.25390e-02,9.99999e-01
5.341848578e-01,1.36716e-02,9.99999e-01,9.99999e-01,9.99999e-01,9.99978e-01,1.36719e-02,9.99999e-01
5.368557821e-01,1.48805e-02,9.99999e-01,9.99999e-01,9.99999e-01,9.99925e-01,1.48816e-02,9.99999e-01
5.395400610e-01,1.61669e-02,9.99999e-01,9.99999e-01,9.99999e-01,9.99731e-01,1.61713e-02,9.99997e-01
5.422377613e-01,1.75378e-02,9.99999e-01,9.99999e-01,9.99999e-01,9.99654e-01,1.75439e-02,9.99993e-01
5.449489501e-01,1.89962e-02,9.99999e-01,9.99999e-01,9.99999e-01,9.99677e-01,1.90025e-02,9.99993e-01
5.476736949e-01,2.05439e-02,9.99999e-01,9.99999e-01,9.99999e-01,9.99715e-01,2.05498e-02,9.99996e-01
5.504120634e-01,2.21842e-02,9.99999e-01,9.99999e-01,9.99999e-01,9.99793e-01,2.21888e-02,9.99998e-01
5.531641237e-01,2.39197e-02,9.99999e-01,9.99999e-01,9.99999e-01,9.99895e-01,2.39222e-02,9.99999e-01
5.559299443e-01,2.57515e-02,9.99999e-01,9.99999e-01,9.99999e-01,9.99949e-01,2.57528e-02,9.99999e-01
5.587095940e-01,2.76822e-02,9.99999e-01,9.99999e-01,9.99999e-01,9.99968e-01,2.76831e-02,9.99999e-01
5.615031420e-01,2.97146e-02,9.99999e-01,9.99999e-01,9.99999e-01,9.99964e-01,2.97156e-02,9.99999e-01
5.643106577e-01,3.18515e-02,9.99999e-01,9.99999e-01,9.99999e-01,9.99959e-01,3.18528e-02,9.99999e-01
5.671322110e-01,3.40801e-02,9.99999e-01,9.99999e-01,9.99999e-01,9.99514e-01,3.40968e-02,9.99995e-01
5.699678720e-01,3.64307e-02,9.99999e-01,9.99999e-01,9.99999e-01,9.99486e-01,3.64499e-02,9.99986e-01
5.728177114e-01,3.88928e-02,9.99999e-01,9.99999e-01,9.99999e-01,9.99464e-01,3.89140e-02,9.99988e-01
5.756818000e-01,4.14705e-02,9.99999e-01,9.99999e-01,9.99999e-01,9.99508e-01,4.14911e-02,9.99992e-01
5.785602090e-01,4.41639e-02,9.99999e-01,9.99999e-01,9.99999e-01,9.99571e-01,4.41829e-02,9.99997e-01
5.814530100e-01,4.69706e-02,9.99999e-01,9.99999e-01,9.99999e-01,9.99569e-01,4.69909e-02,9.99998e-01
5.843602750e-01,4.98908e-02,9.99999e-01,9.99999e-01,9.99999e-01,9.99486e-01,4.99165e-02,9.99996e-01
5.872820764e-01,5.27256e-02,9.99999e-01,9.99999e-01,9.99999e-01,9.95583e-01,5.29611e-02,9.99968e-01
5.902184868e-01,5.58213e-02,9.99999e-01,9.99999e-01,9.99999e-01,9.94658e-01,5.61258e-02,9.99915e-01
5.931695792e-01,5.91822e-02,9.99999e-01,9.99999e-01,9.99999e-01,9.96222e-01,5.94114e-02,9.99918e-01
5.961354271e-01,6.25558e-02,9.99999e-01,9.99999e-01,9.99999e-01,9.95861e-01,6.28186e-02,9.99952e-01
5.991161043e-01,6.61470e-02,9.99999e-01,9.99999e-01,9.99999e-01,9.96980e-01,6.63482e-02,9.99985e-01
6.021116848e-01,6.98805e-02,9.99999e-01,9.99999e-01,9.99999e-01,9.98286e-01,7.00005e-02,9.99997e-01
6.051222432e-01,7.37117e-02,9.99999e-01,9.99999e-01,9.99999e-01,9.99132e-01,7.37757e-02,9.99999e-01
6.081478544e-01,7.76448e-02,9.99999e-01,9.99999e-01,9.99999e-01,9.99625e-01,7.76738e-02,9.99999e-01
6.111885937e-01,8.16819e-02,9.99999e-01,9.99999e-01,9.99999e-01,9.99841e-01,8.16948e-02,9.99999e-01
6.142445367e-01,8.58323e-02,9.99999e-01,9.99999e-01,9.99999e-01,9.99928e-01,8.58384e-02,9.99999e-01
6.173157594e-01,9.01004e-02,9.99999e-01,9.99999e-01,9.99999e-01,9.99960e-01,9.01039e-02,9.99999e-01
6.204023382e-01,9.44878e-02,9.99999e-01,9.99999e-01,9.99999e-01,9.99966e-01,9.44909e-02,9.99999e-01
6.235043498e-01,9.89841e-02,9.99999e-01,9.99999e-01,9.99999e-01,9.99853e-01,9.89985e-02,9.99999e-01
6.266218716e-01,1.03545e-01,9.99999e-01,9.99999e-01,9.99999e-01,9.99229e-01,1.03626e-01,9.99994e-01
6.297549810e-01,1.08340e-01,9.99999e-01,9.99999e-01,9.99999e-01,9.99717e-01,1.08371e-01,9.99988e-01
6.329037559e-01,1.13170e-01,9.99999e-01,9.99999e-01,9.99999e-01,9.99441e-01,1.13234e-01,9.99990e-01
6.360682746e-01,1.18156e-01,9.99999e-01,9.99999e-01,9.99999e-01,9.99524e-01,1.18213e-01,9.99994e-01
6.392486160e-01,1.23229e-01,9.99999e-01,9.99999e-01,9.99999e-01,9.99384e-01,1.23305e-01,9.99997e-01
6.424448591e-01,1.28403e-01,9.99999e-01,9.99999e-01,9.99999e-01,9.99174e-01,1.28510e-01,9.99995e-01
6.456570834e-01,1.33310e-01,9.99999e-01,9.99999e-01,9.99999e-01,9.96172e-01,1.33825e-01,9.99978e-01
6.488853688e-01,1.38850e-01,9.99999e-01,9.99999e-01,9.99999e-01,9.97201e-01,1.39248e-01,9.99940e-01
6.521297956e-01,1.44358e-01,9.99999e-01,9.99999e-01,9.99999e-01,9.97147e-01,1.44778e-01,9.99950e-01
6.553904446e-01,1.49979e-01,9.99999e-01,9.99999e-01,9.99999e-01,9.97158e-01,1.50411e-01,9.99963e-01
6.586673968e-01,1.55765e-01,9.99999e-01,9.99999e-01,9.99999e-01,9.97567e-01,1.56146e-01,9.99987e-01
6.619607338e-01,1.61760e-01,9.99999e-01,9.99999e-01,9.99999e-01,9.98644e-01,1.61980e-01,9.99996e-01
6.652705375e-01,1.67773e-01,9.99999e-01,9.99999e-01,9.99999e-01,9.99186e-01,1.67910e-01,9.99998e-01
6.685968902e-01,1.73868e-01,9.99999e-01,9.99999e-01,9.99999e-01,9.99621e-01,1.73933e-01,9.99999e-01
6.719398746e-01,1.80016e-01,9.99999e-01,9.99999e-01,9.99999e-01,9.99824e-01,1.80047e-01,9.99999e-01
6.752995740e-01,1.86232e-01,9.99999e-01,9.99999e-01,9.99999e-01,9.99904e-01,1.86249e-01,9.99999e-01
6.786760719e-01,1.92510e-01,9.99999e-01,9.99999e-01,9.99999e-01,9.99862e-01,1.92536e-01,9.99999e-01
6.820694522e-01,1.98858e-01,9.99999e-01,9.99999e-01,9.99999e-01,9.99764e-01,1.98905e-01,9.99998e-01
6.854797995e-01,2.05289e-01,9.99999e-01,9.99999e-01,9.99999e-01,9.99696e-01,2.05352e-01,9.99996e-01
6.889071985e-01,2.11717e-01,9.99999e-01,9.99999e-01,9.99999e-01,9.99264e-01,2.11874e-01,9.99992e-01
6.923517345e-01,2.15849e-01,9.99999e-01,9.99999e-01,9.99999e-01,9.88065e-01,2.18469e-01,9.99942e-01
6.958134932e-01,2.23709e-01,9.99999e-01,9.99999e-01,9.99999e-01,9.93799e-01,2.25133e-01,9.99872e-01
6.992925606e-01,2.30465e-01,9.99999e-01,9.99999e-01,9.99999e-01,9.94088e-01,2.31862e-01,9.99885e-01
7.027890234e-01,2.36894e-01,9.99999e-01,9.99999e-01,9.99999e-01,9.92714e-01,2.38654e-01,9.99912e-01
7.063029686e-01,2.43989e-01,9.99999e-01,9.99999e-01,9.99999e-01,9.93871e-01,2.45504e-01,9.99956e-01
7.098344834e-01,2.50919e-01,9.99999e-01,9.99999e-01,9.99999e-01,9.94119e-01,2.52410e-01,9.99973e-01
7.133836558e-01,2.57320e-01,9.99999e-01,9.99999e-01,9.99999e-01,9.92153e-01,2.59368e-01,9.99948e-01
7.169505741e-01,2.49924e-01,9.99999e-01,9.99999e-01,9.99999e-01,9.38621e-01,2.66375e-01,9.99597e-01
7.205353270e-01,2.64919e-01,9.99999e-01,9.99999e-01,9.99999e-01,9.69571e-01,2.73427e-01,9.99290e-01
7.241380036e-01,2.69529e-01,9.99999e-01,9.99999e-01,9.99999e-01,9.61407e-01,2.80520e-01,9.99387e-01
7.277586936e-01,2.77479e-01,9.99999e-01,9.99999e-01,9.99999e-01,9.65115e-01,2.87653e-01,9.99498e-01
7.313974871e-01,2.83839e-01,9.99999e-01,9.99999e-01,9.99999e-01,9.62978e-01,2.94820e-01,9.99765e-01
7.350544745e-01,2.95836e-01,9.99999e-01,9.99999e-01,9.99999e-01,9.79606e-01,3.02019e-01,9.99918e-01
7.387297469e-01,3.04584e-01,9.99999e-01,9.99999e-01,9.99999e-01,9.84957e-01,3.09247e-01,9.99962e-01
7.424233956e-01,3.14161e-01,9.99999e-01,9.99999e-01,9.99999e-01,9.92616e-01,3.16500e-01,9.99992e-01
7.461355126e-01,3.22323e-01,9.99999e-01,9.99999e-01,9.99999e-01,9.95519e-01,3.23774e-01,9.99998e-01
7.498661902e-01,3.30376e-01,9.99999e-01,9.99999e-01,9.99999e-01,9.97912e-01,3.31067e-01,9.99999e-01
7.536155211e-01,3.38029e-01,9.99999e-01,9.99999e-01,9.99999e-01,9.98975e-01,3.38375e-01,9.99999e-01
7.573835987e-01,3.45514e-01,9.99999e-01,9.99999e-01,9.99999e-01,9.99472e-01,3.45696e-01,9.99999e-01
7.611705167e-01,3.52910e-01,9.99999e-01,9.99999e-01,9.99999e-01,9.99671e-01,3.53026e-01,9.99999e-01
7.649763693e-01,3.60287e-01,9.99999e-01,9.99999e-01,9.99999e-01,9.99794e-01,3.60361e-01,9.99999e-01
7.688012511e-01,3.67647e-01,9.99999e-01,9.99999e-01,9.99999e-01,9.99856e-01,3.67700e-01,9.99999e-01
7.726452574e-01,3.74995e-01,9.99999e-01,9.99999e-01,9.99999e-01,9.99881e-01,3.75039e-01,9.99999e-01
7.765084837e-01,3.82311e-01,9.99999e-01,9.99999e-01,9.99999e-01,9.99832e-01,3.82375e-01,9.99999e-01
7.803910261e-01,3.72836e-01,9.99999e-01,9.99999e-01,9.57377e-01,9.99275e-01,3.89705e-01,9.99998e-01
7.842929812e-01,3.26291e-01,9.99999e-01,9.99999e-01,8.23795e-01,9.97473e-01,3.97027e-01,9.99994e-01
7.882144461e-01,3.26969e-01,9.99999e-01,9.99999e-01,8.12693e-01,9.94806e-01,4.04338e-01,9.99963e-01
7.921555184e-01,3.63340e-01,9.99999e-01,9.99999e-01,8.85175e-01,9.97151e-01,4.11635e-01,9.99937e-01
7.961162960e-01,3.84119e-01,9.99999e-01,9.99999e-01,9.21579e-01,9.94961e-01,4.18916e-01,9.99940e-01
8.000968774e-01,4.05328e-01,9.99999e-01,9.99999e-01,9.56678e-01,9.94186e-01,4.26177e-01,9.99936e-01
8.040973618e-01,4.21117e-01,9.99999e-01,9.99999e-01,9.77334e-01,9.94184e-01,4.33418e-01,9.99949e-01
8.081178486e-01,4.30305e-01,9.99999e-01,9.99999e-01,9.89522e-01,9.86918e-01,4.40635e-01,9.99952e-01
8.121584379e-01,4.22471e-01,9.99999e-01,9.99999e-01,9.96758e-01,9.46582e-01,4.47826e-01,9.99815e-01
8.162192301e-01,4.25731e-01,9.99999e-01,9.99999e-01,9.99283e-01,9.36996e-01,4.54989e-01,9.99309e-01
8.203003262e-01,4.47000e-01,9.99999e-01,9.99999e-01,9.99989e-01,9.68068e-01,4.62121e-01,9.99191e-01
8.244018279e-01,4.48213e-01,9.99999e-01,9.99999e-01,9.99999e-01,9.55841e-01,4.69221e-01,9.99356e-01
8.285238370e-01,4.57900e-01,9.99999e-01,9.99999e-01,9.99999e-01,9.61879e-01,4.76287e-01,9.99494e-01
8.326664562e-01,4.64612e-01,9.99999e-01,9.99999e-01,9.99999e-01,9.61499e-01,4.83317e-01,9.99790e-01
8.368297885e-01,4.76732e-01,9.99999e-01,9.99999e-01,9.99999e-01,9.72356e-01,4.90308e-01,9.99951e-01
8.410139374e-01,4.89036e-01,9.99999e-01,9.99999e-01,9.99999e-01,9.83488e-01,4.97259e-01,9.99971e-01
8.452190071e-01,5.00064e-01,9.99999e-01,9.99999e-01,9.99999e-01,9.91873e-01,5.04169e-01,9.99982e-01
8.494451021e-01,5.08615e-01,9.99999e-01,9.99999e-01,9.99999e-01,9.95276e-01,5.11036e-01,9.99986e-01
8.536923276e-01,5.16406e-01,9.99999e-01,9.99999e-01,9.99999e-01,9.97205e-01,5.17857e-01,9.99991e-01
8.579607893e-01,5.23728e-01,9.99999e-01,9.99999e-01,9.99999e-01,9.98277e-01,5.24632e-01,9.99997e-01
8.622505932e-01,5.30778e-01,9.99999e-01,9.99999e-01,9.99999e-01,9.98906e-01,5.31360e-01,9.99999e-01
8.665618462e-01,4.90940e-01,9.99999e-01,9.99999e-01,9.13054e-01,9.99322e-01,5.38038e-01,9.99999e-01
8.708946554e-01,3.33530e-01,9.99999e-01,9.99999e-01,6.12812e-01,9.99224e-01,5.44665e-01,9.99999e-01
8.752491287e-01,3.70418e-01,9.99999e-01,9.99999e-01,6.72642e-01,9.98962e-01,5.51242e-01,9.99998e-01
8.796253743e-01,4.47511e-01,9.99999e-01,9.99999e-01,8.03443e-01,9.98563e-01,5.57765e-01,9.99996e-01
8.840235012e-01,5.02728e-01,9.99999e-01,9.99999e-01,8.92436e-01,9.98358e-01,5.64234e-01,9.99989e-01
8.884436187e-01,5.42375e-01,9.99999e-01,9.99999e-01,9.56139e-01,9.94008e-01,5.70648e-01,9.99971e-01
8.928858368e-01,5.31909e-01,9.99999e-01,9.99999e-01,9.81987e-01,9.38714e-01,5.77007e-01,9.99835e-01
8.973502660e-01,5.18985e-01,9.99999e-01,9.99999e-01,9.95602e-01,8.94304e-01,5.83308e-01,9.99160e-01
9.018370173e-01,5.55922e-01,9.99999e-01,9.99999e-01,9.99514e-01,9.44641e-01,5.89552e-01,9.98680e-01
9.063462024e-01,5.59123e-01,9.99999e-01,9.99999e-01,9.87559e-01,9.50989e-01,5.95738e-01,9.98840e-01
9.108779334e-01,5.40385e-01,9.99999e-01,9.99999e-01,9.71720e-01,9.24680e-01,6.01864e-01,9.98795e-01
9.154323231e-01,5.52015e-01,9.99999e-01,9.99999e-01,9.93303e-01,9.14888e-01,6.07930e-01,9.99003e-01
9.200094847e-01,5.22158e-01,9.99999e-01,9.99999e-01,9.08182e-01,9.32751e-01,6.13936e-01,9.99442e-01
9.246095321e-01,4.84427e-01,9.99999e-01,9.99999e-01,8.69077e-01,8.96976e-01,6.19881e-01,9.99357e-01
9.292325798e-01,2.76337e-01,9.99999e-01,9.99999e-01,8.95952e-01,4.87226e-01,6.25764e-01,9.97497e-01
9.338787427e-01,2.26109e-01,9.99999e-01,9.99999e-01,8.99235e-01,3.96887e-01,6.31585e-01,9.89696e-01
9.385481364e-01,4.02953e-01,9.99999e-01,9.99999e-01,9.24830e-01,6.88238e-01,6.37344e-01,9.87757e-01
9.432408771e-01,3.63243e-01,9.99999e-01,9.99999e-01,9.53280e-01,5.96957e-01,6.43040e-01,9.89429e-01
9.479570815e-01,3.09797e-01,9.99999e-01,9.99999e-01,9.75742e-01,4.92906e-01,6.48673e-01,9.91388e-01
9.526968669e-01,3.77164e-01,9.99999e-01,9.99999e-01,9.88237e-01,5.85697e-01,6.54242e-01,9.94738e-01
9.574603512e-01,3.98164e-01,9.99999e-01,9.99999e-01,9.94954e-01,6.07940e-01,6.59748e-01,9.97323e-01
9.622476530e-01,4.41649e-01,9.99999e-01,9.99999e-01,9.98424e-01,6.66145e-01,6.65190e-01,9.98148e-01
9.670588912e-01,5.29440e-01,9.99999e-01,9.99999e-01,9.99527e-01,7.90889e-01,6.70569e-01,9.98733e-01
9.718941857e-01,5.82763e-01,9.99999e-01,9.99999e-01,9.99966e-01,8.63055e-01,6.75883e-01,9.99067e-01
9.767536566e-01,6.02300e-01,9.99999e-01,9.99999e-01,9.99999e-01,8.84892e-01,6.81133e-01,9.99286e-01
9.816374249e-01,6.26693e-01,9.99999e-01,9.99999e-01,9.99999e-01,9.13346e-01,6.86319e-01,9.99752e-01
9.865456120e-01,6.53333e-01,9.99999e-01,9.99999e-01,9.99999e-01,9.44934e-01,6.91441e-01,9.99948e-01
9.914783401e-01,6.72522e-01,9.99999e-01,9.99999e-01,9.99999e-01,9.65589e-01,6.96499e-01,9.99985e-01
9.964357318e-01,6.88240e-01,9.99999e-01,9.99999e-01,9.99999e-01,9.81115e-01,7.01492e-01,9.99991e-01
1.001417910e+00,6.98389e-01,9.99999e-01,9.99999e-01,9.99999e-01,9.88640e-01,7.06422e-01,9.99986e-01
1.006425000e+00,7.06658e-01,9.99999e-01,9.99999e-01,9.99999e-01,9.93507e-01,7.11288e-01,9.99981e-01
1.011457125e+00,7.13192e-01,9.99999e-01,9.99999e-01,9.99999e-01,9.95967e-01,7.16091e-01,9.99982e-01
1.016514411e+00,7.18847e-01,9.99999e-01,9.99999e-01,9.99999e-01,9.97260e-01,7.20830e-01,9.99987e-01
1.021596983e+00,7.23865e-01,9.99999e-01,9.99999e-01,9.99932e-01,9.97816e-01,7.25506e-01,9.99987e-01
1.026704968e+00,7.25317e-01,9.99999e-01,9.99999e-01,9.95122e-01,9.98296e-01,7.30119e-01,9.99991e-01
1.031838492e+00,6.94548e-01,9.99999e-01,9.99999e-01,9.46519e-01,9.98762e-01,7.34669e-01,9.99997e-01
1.036997685e+00,8.87392e-02,9.99999e-01,9.99999e-01,1.20123e-01,9.99264e-01,7.39158e-01,9.99999e-01
1.042182673e+00,5.09110e-02,9.99999e-01,9.99999e-01,6.85190e-02,9.99122e-01,7.43584e-01,9.99999e-01
1.047393587e+00,6.94648e-02,9.99999e-01,9.99999e-01,9.29682e-02,9.98836e-01,7.47948e-01,9.99999e-01
1.052630555e+00,8.13097e-04,9.99999e-01,9.99999e-01,1.08211e-03,9.98403e-01,7.52251e-01,9.99999e-01
1.057893707e+00,2.36080e-03,9.99999e-01,9.99999e-01,3.12601e-03,9.97335e-01,7.56493e-01,9.99998e-01
1.063183176e+00,1.05084e-02,9.99999e-01,9.99999e-01,1.38560e-02,9.95618e-01,7.60674e-01,9.99997e-01
1.068499092e+00,3.68276e-02,9.99999e-01,9.99999e-01,4.84406e-02,9.92673e-01,7.64795e-01,9.99994e-01
1.073841587e+00,1.12228e-01,9.99999e-01,9.99999e-01,1.47010e-01,9.91428e-01,7.68857e-01,9.99988e-01
