#,Wave/freq,Total,N2,O2,CO2,H2O,Rayleigh,CIA
4.000000000e-01,1.77775e-06,9.99999e-01,9.99999e-01,9.99999e-01,9.99974e-01,1.77780e-06,9.99999e-01
4.020000000e-01,2.30979e-06,9.99999e-01,9.99999e-01,9.99999e-01,9.99983e-01,2.30983e-06,9.99999e-01
4.040100000e-01,2.98476e-06,9.99999e-01,9.99999e-01,9.99999e-01,9.99992e-01,2.98478e-06,9.99999e-01
4.060300500e-01,3.83748e-06,9.99999e-01,9.99999e-01,9.99999e-01,9.99997e-01,3.83749e-06,9.99999e-01
4.080602003e-01,4.90936e-06,9.99999e-01,9.99999e-01,9.99999e-01,9.99999e-01,4.90936e-06,9.99999e-01
4.101005013e-01,6.25015e-06,9.99999e-01,9.99999e-01,9.99999e-01,9.99999e-01,6.25015e-06,9.99999e-01
4.121510038e-01,7.91925e-06,9.99999e-01,9.99999e-01,9.99999e-01,9.99998e-01,7.91926e-06,9.99999e-01
4.142117588e-01,9.98723e-06,9.99999e-01,9.99999e-01,9.99999e-01,9.99992e-01,9.98730e-06,9.99999e-01
4.162828176e-01,1.25374e-05,9.99999e-01,9.99999e-01,9.99999e-01,9.99967e-01,1.25378e-05,9.99999e-01
4.183642317e-01,1.56688e-05,9.99999e-01,9.99999e-01,9.99999e-01,9.99980e-01,1.56691e-05,9.99999e-01
4.204560528e-01,1.94961e-05,9.99999e-01,9.99999e-01,9.99999e-01,9.99987e-01,1.94964e-05,9.99999e-01
4.225583331e-01,2.41539e-05,9.99999e-01,9.99999e-01,9.99999e-01,9.99995e-01,2.41540e-05,9.99999e-01
4.246711247e-01,2.97978e-05,9.99999e-01,9.99999e-01,9.99999e-01,9.99996e-01,2.97979e-05,9.99999e-01
4.267944804e-01,3.66083e-05,9.99999e-01,9.99999e-01,9.99999e-01,9.99994e-01,3.66085e-05,9.99999e-01
4.289284528e-01,4.47931e-05,9.99999e-01,9.99999e-01,9.99999e-01,9.99995e-01,4.47932e-05,9.99999e-01
4.310730950e-01,5.45897e-05,9.99999e-01,9.99999e-01,9.99999e-01,9.99997e-01,5.45898e-05,9.99999e-01
4.332284605e-01,6.62696e-05,9.99999e-01,9.99999e-01,9.99999e-01,9.99999e-01,6.62696e-05,9.99999e-01
4.353946028e-01,8.01408e-05,9.99999e-01,9.99999e-01,9.99999e-01,9.99999e-01,8.01408e-05,9.99999e-01
4.375715758e-01,9.65520e-05,9.99999e-01,9.99999e-01,9.99999e-01,9.99996e-01,9.65523e-05,9.99999e-01
4.397594337e-01,1.15894e-04,9.99999e-01,9.99999e-01,9.99999e-01,9.99972e-01,1.15897e-04,9.99999e-01
4.419582309e-01,1.38598e-04,9.99999e-01,9.99999e-01,9.99999e-01,9.99859e-01,1.38617e-04,9.99999e-01
4.441680220e-01,1.65188e-04,9.99999e-01,9.99999e-01,9.99999e-01,9.99889e-01,1.65206e-04,9.99999e-01
4.463888621e-01,1.96192e-04,9.99999e-01,9.99999e-01,9.99999e-01,9.99885e-01,1.96214e-04,9.99999e-01
4.486208064e-01,2.32234e-04,9.99999e-01,9.99999e-01,9.99999e-01,9.99928e-01,2.32251e-04,9.99999e-01
4.508639105e-01,2.73984e-04,9.99999e-01,9.99999e-01,9.99999e-01,9.99966e-01,2.73993e-04,9.99999e-01
4.531182300e-01,3.22179e-04,9.99999e-01,9.99999e-01,9.99999e-01,9.99986e-01,3.22183e-04,9.99999e-01
4.553838212e-01,3.77635e-04,9.99999e-01,9.99999e-01,9.99999e-01,9.99990e-01,3.77638e-04,9.99999e-01
4.576607403e-01,4.41251e-04,9.99999e-01,9.99999e-01,9.99999e-01,9.99995e-01,4.41253e-04,9.99999e-01
4.599490440e-01,5.13998e-04,9.99999e-01,9.99999e-01,9.99999e-01,9.99996e-01,5.14000e-04,9.99999e-01
4.622487892e-01,5.96938e-04,9.99999e-01,9.99999e-01,9.99999e-01,9.99999e-01,5.96939e-04,9.99999e-01
4.645600332e-01,6.91213e-04,9.99999e-01,9.99999e-01,9.99999e-01,9.99997e-01,6.91215e-04,9.99999e-01
4.668828333e-01,7.98039e-04,9.99999e-01,9.99999e-01,9.99999e-01,9.99966e-01,7.98065e-04,9.99999e-01
4.692172475e-01,9.18755e-04,9.99999e-01,9.99999e-01,9.99999e-01,9.99927e-01,9.18821e-04,9.99999e-01
4.715633337e-01,1.05486e-03,9.99999e-01,9.99999e-01,9.99999e-01,9.99952e-01,1.05491e-03,9.99999e-01
4.739211504e-01,1.20780e-03,9.99999e-01,9.99999e-01,9.99999e-01,9.99954e-01,1.20785e-03,9.99999e-01
4.762907561e-01,1.37924e-03,9.99999e-01,9.99999e-01,9.99999e-01,9.99976e-01,1.37928e-03,9.99999e-01
4.786722099e-01,1.57089e-03,9.99999e-01,9.99999e-01,9.99999e-01,9.99989e-01,1.57090e-03,9.99999e-01
4.810655710e-01,1.78456e-03,9.99999e-01,9.99999e-01,9.99999e-01,9.99996e-01,1.78457e-03,9.99999e-01
4.834708988e-01,2.02214e-03,9.99999e-01,9.99999e-01,9.99999e-01,9.99972e-01,2.02219e-03,9.99999e-01
4.858882533e-01,2.28569e-03,9.99999e-01,9.99999e-01,9.99999e-01,9.99948e-01,2.28580e-03,9.99999e-01
4.883176946e-01,2.57742e-03,9.99999e-01,9.99999e-01,9.99999e-01,9.99957e-01,2.57753e-03,9.99999e-01
4.907592831e-01,2.89950e-03,9.99999e-01,9.99999e-01,9.99999e-01,9.99961e-01,2.89961e-03,9.99999e-01
4.932130795e-01,3.25426e-03,9.99999e-01,9.99999e-01,9.99999e-01,9.99972e-01,3.25435e-03,9.99999e-01
4.956791449e-01,3.64412e-03,9.99999e-01,9.99999e-01,9.99999e-01,9.99985e-01,3.64418e-03,9.99999e-01
4.981575406e-01,4.07129e-03,9.99999e-01,9.99999e-01,9.99999e-01,9.99927e-01,4.07159e-03,9.99999e-01
5.006483283e-01,4.53833e-03,9.99999e-01,9.99999e-01,9.99999e-01,9.99813e-01,4.53917e-03,9.99998e-01
5.031515699e-01,5.04478e-03,9.99999e-01,9.99999e-01,9.99999e-01,9.99053e-01,5.04960e-03,9.99989e-01
5.056673278e-01,5.60275e-03,9.99999e-01,9.99999e-01,9.99999e-01,9.99499e-01,5.60562e-03,9.99988e-01
5.081956644e-01,6.20607e-03,9.99999e-01,9.99999e-01,9.99999e-01,9.99368e-01,6.21003e-03,9.99992e-01
5.107366428e-01,6.86278e-03,9.99999e-01,9.99999e-01,9.99999e-01,9.99573e-01,6.86572e-03,9.99998e-01
5.132903260e-01,7.57374e-03,9.99999e-01,9.99999e-01,9.99999e-01,9.99755e-01,7.57559e-03,9.99999e-01
5.158567776e-01,8.34178e-03,9.99999e-01,9.99999e-01,9.99999e-01,9.99896e-01,8.34264e-03,9.99999e-01
5.184360615e-01,9.16948e-03,9.99999e-01,9.99999e-01,9.99999e-01,9.99958e-01,9.16986e-03,9.99999e-01
5.210282418e-01,1.00602e-02,9.99999e-01,9.99999e-01,9.99999e-01,9.99984e-01,1.00603e-02,9.99999e-01
5.236333830e-01,1.10163e-02,9.99999e-01,9.99999e-01,9.99999e-01,9.99937e-01,1.10170e-02,9.99999e-01
5.262515499e-01,1.20426e-02,9.99999e-01,9.99999e-01,9.99999e-01,9.99960e-01,1.20431e-02,9.99998e-01
5.288828077e-01,1.31411e-02,9.99999e-01,9.99999e-01,9.99999e-01,9.99964e-01,1.31416e-02,9.99999e-01
5.315272217e-01,1.43152e-02,9.99999e-01,9.99999e-01,9.99999e-01,9.99968e-01,1.43156e-02,9.99999e-01
5.341848578e-01,1.55678e-02,9.99999e-01,9.99999e-01,9.99999e-01,9.99979e-01,1.55682e-02,9.99999e-01
5.368557821e-01,1.69011e-02,9.99999e-01,9.99999e-01,9.99999e-01,9.99927e-01,1.69023e-02,9.99999e-01
5.395400610e-01,1.83162e-02,9.99999e-01,9.99999e-01,9.99999e-01,9.99741e-01,1.83209e-02,9.99997e-01
5.422377613e-01,1.98203e-02,9.99999e-01,9.99999e-01,9.99999e-01,9.99663e-01,1.98271e-02,9.99993e-01
5.449489501e-01,2.14168e-02,9.99999e-01,9.99999e-01,9.99999e-01,9.99688e-01,2.14236e-02,9.99993e-01
5.476736949e-01,2.31068e-02,9.99999e-01,9.99999e-01,9.99999e-01,9.99722e-01,2.31133e-02,9.99996e-01
5.504120634e-01,2.48938e-02,9.99999e-01,9.99999e-01,9.99999e-01,9.99798e-01,2.48988e-02,9.99998e-01
5.531641237e-01,2.67802e-02,9.99999e-01,9.99999e-01,9.99999e-01,9.99898e-01,2.67829e-02,9.99999e-01
5.559299443e-01,2.87668e-02,9.99999e-01,9.99999e-01,9.99999e-01,9.99950e-01,2.87682e-02,9.99999e-01
5.587095940e-01,3.08560e-02,9.99999e-01,9.99999e-01,9.99999e-01,9.99969e-01,3.08569e-02,9.99999e-01
5.615031420e-01,3.30504e-02,9.99999e-01,9.99999e-01,9.99999e-01,9.99965e-01,3.30515e-02,9.99999e-01
5.643106577e-01,3.53528e-02,9.99999e-01,9.99999e-01,9.99999e-01,9.99961e-01,3.53542e-02,9.99999e-01
5.671322110e-01,3.77494e-02,9.99999e-01,9.99999e-01,9.99999e-01,9.99536e-01,3.77670e-02,9.99995e-01
5.699678720e-01,4.02713e-02,9.99999e-01,9.99999e-01,9.99999e-01,9.99499e-01,4.02920e-02,9.99986e-01
5.728177114e-01,4.29081e-02,9.99999e-01,9.99999e-01,9.99999e-01,9.99481e-01,4.29308e-02,9.99988e-01
5.756818000e-01,4.56631e-02,9.99999e-01,9.99999e-01,9.99999e-01,9.99523e-01,4.56851e-02,9.99993e-01
5.785602090e-01,4.85363e-02,9.99999e-01,9.99999e-01,9.99999e-01,9.99584e-01,4.85565e-02,9.99997e-01
5.814530100e-01,5.15248e-02,9.99999e-01,9.99999e-01,9.99999e-01,9.99582e-01,5.15463e-02,9.99998e-01
5.843602750e-01,5.46285e-02,9.99999e-01,9.99999e-01,9.99999e-01,9.99505e-01,5.46556e-02,9.99996e-01
5.872820764e-01,5.76371e-02,9.99999e-01,9.99999e-01,9.99999e-01,9.95738e-01,5.78855e-02,9.99969e-01
5.902184868e-01,6.09141e-02,9.99999e-01,9.99999e-01,9.99999e-01,9.94812e-01,6.12367e-02,9.99917e-01
5.931695792e-01,6.44680e-02,9.99999e-01,9.99999e-01,9.99999e-01,9.96339e-01,6.47100e-02,9.99919e-01
5.961354271e-01,6.80282e-02,9.99999e-01,9.99999e-01,9.99999e-01,9.95982e-01,6.83058e-02,9.99951e-01
5.991161043e-01,7.18123e-02,9.99999e-01,9.99999e-01,9.99999e-01,9.97067e-01,7.20245e-02,9.99985e-01
6.021116848e-01,7.57396e-02,9.99999e-01,9.99999e-01,9.99999e-01,9.98333e-01,7.58661e-02,9.99997e-01
6.051222432e-01,7.97633e-02,9.99999e-01,9.99999e-01,9.99999e-01,9.99156e-01,7.98306e-02,9.99999e-01
6.081478544e-01,8.38874e-02,9.99999e-01,9.99999e-01,9.99999e-01,9.99636e-01,8.39179e-02,9.99999e-01
6.111885937e-01,8.81138e-02,9.99999e-01,9.99999e-01,9.99999e-01,9.99845e-01,8.81274e-02,9.99999e-01
6.142445367e-01,9.24523e-02,9.99999e-01,9.99999e-01,9.99999e-01,9.99930e-01,9.24587e-02,9.99999e-01
6.173157594e-01,9.69072e-02,9.99999e-01,9.99999e-01,9.99999e-01,9.99961e-01,9.69109e-02,9.99999e-01
6.204023382e-01,1.01480e-01,9.99999e-01,9.99999e-01,9.99999e-01,9.99967e-01,1.01483e-01,9.99999e-01
6.235043498e-01,1.06160e-01,9.99999e-01,9.99999e-01,9.99999e-01,9.99859e-01,1.06175e-01,9.99999e-01
6.266218716e-01,1.10900e-01,9.99999e-01,9.99999e-01,9.99999e-01,9.99253e-01,1.10984e-01,9.99994e-01
6.297549810e-01,1.15876e-01,9.99999e-01,9.99999e-01,9.99999e-01,9.99726e-01,1.15909e-01,9.99989e-01
6.329037559e-01,1.20883e-01,9.99999e-01,9.99999e-01,9.99999e-01,9.99458e-01,1.20949e-01,9.99991e-01
6.360682746e-01,1.26044e-01,9.99999e-01,9.99999e-01,9.99999e-01,9.99539e-01,1.26103e-01,9.99994e-01
6.392486160e-01,1.31289e-01,9.99999e-01,9.99999e-01,9.99999e-01,9.99402e-01,1.31367e-01,9.99997e-01
6.424448591e-01,1.36632e-01,9.99999e-01,9.99999e-01,9.99999e-01,9.99204e-01,1.36741e-01,9.99995e-01
6.456570834e-01,1.41694e-01,9.99999e-01,9.99999e-01,9.99999e-01,9.96309e-01,1.42222e-01,9.99978e-01
6.488853688e-01,1.47398e-01,9.99999e-01,9.99999e-01,9.99999e-01,9.97280e-01,1.47808e-01,9.99942e-01
6.521297956e-01,1.53064e-01,9.99999e-01,9.99999e-01,9.99999e-01,9.97227e-01,1.53497e-01,9.99951e-01
6.553904446e-01,1.58843e-01,9.99999e-01,9.99999e-01,9.99999e-01,9.97260e-01,1.59285e-01,9.99963e-01
6.586673968e-01,1.64779e-01,9.99999e-01,9.99999e-01,9.99999e-01,9.97636e-01,1.65171e-01,9.99987e-01
6.619607338e-01,1.70918e-01,9.99999e-01,9.99999e-01,9.99999e-01,9.98633e-01,1.71152e-01,9.99996e-01
6.652705375e-01,1.77084e-01,9.99999e-01,9.99999e-01,9.99999e-01,9.99207e-01,1.77225e-01,9.99998e-01
6.685968902e-01,1.83319e-01,9.99999e-01,9.99999e-01,9.99999e-01,9.99631e-01,1.83387e-01,9.99999e-01
6.719398746e-01,1.89603e-01,9.99999e-01,9.99999e-01,9.99999e-01,9.99828e-01,1.89635e-01,9.99999e-01
6.752995740e-01,1.95948e-01,9.99999e-01,9.99999e-01,9.99999e-01,9.99907e-01,1.95966e-01,9.99999e-01
6.786760719e-01,2.02351e-01,9.99999e-01,9.99999e-01,9.99999e-01,9.99866e-01,2.02378e-01,9.99999e-01
6.820694522e-01,2.08818e-01,9.99999e-01,9.99999e-01,9.99999e-01,9.99772e-01,2.08866e-01,9.99998e-01
6.854797995e-01,2.15364e-01,9.99999e-01,9.99999e-01,9.99999e-01,9.99706e-01,2.15428e-01,9.99996e-01
6.889071985e-01,2.21903e-01,9.99999e-01,9.99999e-01,9.99999e-01,9.99295e-01,2.22060e-01,9.99993e-01
6.923517345e-01,2.26112e-01,9.99999e-01,9.99999e-01,9.99999e-01,9.88478e-01,2.28760e-01,9.99943e-01
6.958134932e-01,2.34064e-01,9.99999e-01,9.99999e-01,9.99999e-01,9.93927e-01,2.35523e-01,9.99874e-01
6.992925606e-01,2.40937e-01,9.99999e-01,9.99999e-01,9.99999e-01,9.94292e-01,2.42347e-01,9.99889e-01
7.027890234e-01,2.47444e-01,9.99999e-01,9.99999e-01,9.99999e-01,9.92926e-01,2.49228e-01,9.99914e-01
7.063029686e-01,2.54628e-01,9.99999e-01,9.99999e-01,9.99999e-01,9.94053e-01,2.56162e-01,9.99957e-01
7.098344834e-01,2.61639e-01,9.99999e-01,9.99999e-01,9.99999e-01,9.94293e-01,2.63147e-01,9.99974e-01
7.133836558e-01,2.68126e-01,9.99999e-01,9.99999e-01,9.99999e-01,9.92452e-01,2.70178e-01,9.99949e-01
7.169505741e-01,2.60692e-01,9.99999e-01,9.99999e-01,9.99999e-01,9.40633e-01,2.77254e-01,9.99609e-01
7.205353270e-01,2.75709e-01,9.99999e-01,9.99999e-01,9.99999e-01,9.70215e-01,2.84369e-01,9.99311e-01
7.241380036e-01,2.80457e-01,9.99999e-01,9.99999e-01,9.99999e-01,9.62621e-01,2.91520e-01,9.99405e-01
7.277586936e-01,2.88467e-01,9.99999e-01,9.99999e-01,9.99999e-01,9.66192e-01,2.98705e-01,9.99514e-01
7.313974871e-01,2.94829e-01,9.99999e-01,9.99999e-01,9.99999e-01,9.63962e-01,3.05920e-01,9.99772e-01
7.350544745e-01,3.06930e-01,9.99999e-01,9.99999e-01,9.99999e-01,9.80179e-01,3.13162e-01,9.99920e-01
7.387297469e-01,3.15728e-01,9.99999e-01,9.99999e-01,9.99999e-01,9.85373e-01,3.20427e-01,9.99963e-01
7.424233956e-01,3.25353e-01,9.99999e-01,9.99999e-01,9.99999e-01,9.92810e-01,3.27711e-01,9.99992e-01
7.461355126e-01,3.33553e-01,9.99999e-01,9.99999e-01,9.99999e-01,9.95641e-01,3.35013e-01,9.99998e-01
7.498661902e-01,3.41632e-01,9.99999e-01,9.99999e-01,9.99999e-01,9.97966e-01,3.42328e-01,9.99999e-01
7.536155211e-01,3.49306e-01,9.99999e-01,9.99999e-01,9.99999e-01,9.99003e-01,3.49654e-01,9.99999e-01
7.573835987e-01,3.56804e-01,9.99999e-01,9.99999e-01,9.99999e-01,9.99486e-01,3.56988e-01,9.99999e-01
7.611705167e-01,3.64209e-01,9.99999e-01,9.99999e-01,9.99999e-01,9.99680e-01,3.64325e-01,9.99999e-01
7.649763693e-01,3.71590e-01,9.99999e-01,9.99999e-01,9.99999e-01,9.99800e-01,3.71664e-01,9.99999e-01
7.688012511e-01,3.78949e-01,9.99999e-01,9.99999e-01,9.99999e-01,9.99860e-01,3.79002e-01,9.99999e-01
7.726452574e-01,3.86291e-01,9.99999e-01,9.99999e-01,9.99999e-01,9.99885e-01,3.86335e-01,9.99999e-01
7.765084837e-01,3.93598e-01,9.99999e-01,9.99999e-01,9.99999e-01,9.99837e-01,3.93661e-01,9.99999e-01
7.803910261e-01,3.84548e-01,9.99999e-01,9.99999e-01,9.59670e-01,9.99301e-01,4.00978e-01,9.99998e-01
7.842929812e-01,3.37231e-01,9.99999e-01,9.99999e-01,8.27876e-01,9.97564e-01,4.08281e-01,9.99995e-01
7.882144461e-01,3.38185e-01,9.99999e-01,9.99999e-01,8.17730e-01,9.94963e-01,4.15570e-01,9.99968e-01
7.921555184e-01,3.74682e-01,9.99999e-01,9.99999e-01,8.88551e-01,9.97228e-01,4.22841e-01,9.99939e-01
7.961162960e-01,3.95279e-01,9.99999e-01,9.99999e-01,9.23551e-01,9.95134e-01,4.30091e-01,9.99942e-01
8.000968774e-01,4.16506e-01,9.99999e-01,9.99999e-01,9.57841e-01,9.94363e-01,4.37319e-01,9.99938e-01
8.040973618e-01,4.32229e-01,9.99999e-01,9.99999e-01,9.77884e-01,9.94366e-01,4.44523e-01,9.99951e-01
8.081178486e-01,4.41446e-01,9.99999e-01,9.99999e-01,9.89810e-01,9.87385e-01,4.51699e-01,9.99954e-01
8.121584379e-01,4.33713e-01,9.99999e-01,9.99999e-01,9.96828e-01,9.48365e-01,4.58845e-01,9.99821e-01
8.162192301e-01,4.36792e-01,9.99999e-01,9.99999e-01,9.99298e-01,9.38670e-01,4.65961e-01,9.99330e-01
8.203003262e-01,4.58152e-01,9.99999e-01,9.99999e-01,9.99988e-01,9.69290e-01,4.73043e-01,9.99216e-01
8.244018279e-01,4.59053e-01,9.99999e-01,9.99999e-01,9.99999e-01,9.56778e-01,4.80089e-01,9.99376e-01
8.285238370e-01,4.68880e-01,9.99999e-01,9.99999e-01,9.99999e-01,9.63070e-01,4.87098e-01,9.99509e-01
8.326664562e-01,4.75491e-01,9.99999e-01,9.99999e-01,9.99999e-01,9.62594e-01,4.94068e-01,9.99796e-01
8.368297885e-01,4.87506e-01,9.99999e-01,9.99999e-01,9.99999e-01,9.73116e-01,5.00997e-01,9.99953e-01
8.410139374e-01,4.99714e-01,9.99999e-01,9.99999e-01,9.99999e-01,9.83940e-01,5.07884e-01,9.99972e-01
8.452190071e-01,5.10647e-01,9.99999e-01,9.99999e-01,9.99999e-01,9.92090e-01,5.14726e-01,9.99983e-01
8.494451021e-01,5.19125e-01,9.99999e-01,9.99999e-01,9.99999e-01,9.95414e-01,5.21523e-01,9.99986e-01
8.536923276e-01,5.26832e-01,9.99999e-01,9.99999e-01,9.99999e-01,9.97281e-01,5.28272e-01,9.99990e-01
8.579607893e-01,5.34078e-01,9.99999e-01,9.99999e-01,9.99999e-01,9.98327e-01,5.34973e-01,9.99997e-01
8.622505932e-01,5.41048e-01,9.99999e-01,9.99999e-01,9.99999e-01,9.98936e-01,5.41624e-01,9.99999e-01
8.665618462e-01,5.02164e-01,9.99999e-01,9.99999e-01,9.16557e-01,9.99343e-01,5.48224e-01,9.99999e-01
8.708946554e-01,3.44502e-01,9.99999e-01,9.99999e-01,6.21426e-01,9.99248e-01,5.54772e-01,9.99999e-01
8.752491287e-01,3.81129e-01,9.99999e-01,9.99999e-01,6.79711e-01,9.98994e-01,5.61266e-01,9.99998e-01
8.796253743e-01,4.58106e-01,9.99999e-01,9.99999e-01,8.08026e-01,9.98610e-01,5.67706e-01,9.99996e-01
8.840235012e-01,5.13091e-01,9.99999e-01,9.99999e-01,8.95149e-01,9.98412e-01,5.74090e-01,9.99989e-01
8.884436187e-01,5.52399e-01,9.99999e-01,9.99999e-01,9.57173e-01,9.94269e-01,5.80418e-01,9.99971e-01
8.928858368e-01,5.42306e-01,9.99999e-01,9.99999e-01,9.82448e-01,9.40834e-01,5.86688e-01,9.99840e-01
8.973502660e-01,5.29300e-01,9.99999e-01,9.99999e-01,9.95695e-01,8.97221e-01,5.92901e-01,9.99185e-01
9.018370173e-01,5.65686e-01,9.99999e-01,9.99999e-01,9.99524e-01,9.45940e-01,5.99054e-01,9.98720e-01
9.063462024e-01,5.69260e-01,9.99999e-01,9.99999e-01,9.88089e-01,9.52661e-01,6.05148e-01,9.98875e-01
9.108779334e-01,5.50535e-01,9.99999e-01,9.99999e-01,9.72474e-01,9.26956e-01,6.11182e-01,9.98831e-01
9.154323231e-01,5.61982e-01,9.99999e-01,9.99999e-01,9.93439e-01,9.17339e-01,6.17155e-01,9.99034e-01
9.200094847e-01,5.32702e-01,9.99999e-01,9.99999e-01,9.11361e-01,9.34590e-01,6.23066e-01,9.99459e-01
9.246095321e-01,4.95506e-01,9.99999e-01,9.99999e-01,8.72460e-01,9.00971e-01,6.28916e-01,9.99376e-01
9.292325798e-01,2.87707e-01,9.99999e-01,9.99999e-01,8.99348e-01,4.98664e-01,6.34704e-01,9.97573e-01
9.338787427e-01,2.35415e-01,9.99999e-01,9.99999e-01,9.01900e-01,4.06417e-01,6.40429e-01,9.90007e-01
9.385481364e-01,4.13309e-01,9.99999e-01,9.99999e-01,9.26875e-01,6.94757e-01,6.46091e-01,9.88126e-01
9.432408771e-01,3.74573e-01,9.99999e-01,9.99999e-01,9.54478e-01,6.06555e-01,6.51689e-01,9.89748e-01
9.479570815e-01,3.20956e-01,9.99999e-01,9.99999e-01,9.76414e-01,5.03591e-01,6.57225e-01,9.91648e-01
9.526968669e-01,3.87663e-01,9.99999e-01,9.99999e-01,9.88549e-01,5.94069e-01,6.62696e-01,9.94897e-01
9.574603512e-01,4.09023e-01,9.99999e-01,9.99999e-01,9.95086e-01,6.16591e-01,6.68104e-01,9.97404e-01
9.622476530e-01,4.52068e-01,9.99999e-01,9.99999e-01,9.98464e-01,6.73439e-01,6.73447e-01,9.98204e-01
9.670588912e-01,5.39449e-01,9.99999e-01,9.99999e-01,9.99538e-01,7.96115e-01,6.78727e-01,9.98771e-01
9.718941857e-01,5.92299e-01,9.99999e-01,9.99999e-01,9.99966e-01,8.66817e-01,6.83942e-01,9.99095e-01
9.767536566e-01,6.11578e-01,9.99999e-01,9.99999e-01,9.99999e-01,8.88123e-01,6.89094e-01,9.99308e-01
9.816374249e-01,6.35499e-01,9.99999e-01,9.99999e-01,9.99999e-01,9.15684e-01,6.94181e-01,9.99760e-01
9.865456120e-01,6.61719e-01,9.99999e-01,9.99999e-01,9.99999e-01,9.46435e-01,6.99204e-01,9.99949e-01
9.914783401e-01,6.80602e-01,9.99999e-01,9.99999e-01,9.99999e-01,9.66553e-01,7.04163e-01,9.99985e-01
9.964357318e-01,6.96038e-01,9.99999e-01,9.99999e-01,9.99999e-01,9.81644e-01,7.09059e-01,9.99991e-01
1.001417910e+00,7.05999e-01,9.99999e-01,9.99999e-01,9.99999e-01,9.88958e-01,7.13890e-01,9.99987e-01
1.006425000e+00,7.14118e-01,9.99999e-01,9.99999e-01,9.99999e-01,9.93698e-01,7.18659e-01,9.99981e-01
1.011457125e+00,7.20516e-01,9.99999e-01,9.99999e-01,9.99999e-01,9.96079e-01,7.23364e-01,9.99983e-01
1.016514411e+00,7.26061e-01,9.99999e-01,9.99999e-01,9.99999e-01,9.97339e-01,7.28006e-01,9.99988e-01
1.021596983e+00,7.30980e-01,9.99999e-01,9.99999e-01,9.99939e-01,9.97880e-01,7.32585e-01,9.99987e-01
1.026704968e+00,7.32454e-01,9.99999e-01,9.99999e-01,9.95344e-01,9.98346e-01,7.37102e-01,9.99991e-01
1.031838492e+00,7.03843e-01,9.99999e-01,9.99999e-01,9.50250e-01,9.98796e-01,7.41556e-01,9.99997e-01
1.036997685e+00,9.31330e-02,9.99999e-01,9.99999e-01,1.24921e-01,9.99286e-01,7.45949e-01,9.99999e-01
1.042182673e+00,5.49579e-02,9.99999e-01,9.99999e-01,7.33038e-02,9.99150e-01,7.50280e-01,9.99999e-01
1.047393587e+00,7.46441e-02,9.99999e-01,9.99999e-01,9.90229e-02,9.98872e-01,7.54550e-01,9.99999e-01
1.052630555e+00,9.73365e-04,9.99999e-01,9.99999e-01,1.28425e-03,9.98454e-01,7.58759e-01,9.99999e-01
1.057893707e+00,2.74378e-03,9.99999e-01,9.99999e-01,3.60240e-03,9.97422e-01,7.62908e-01,9.99998e-01
1.063183176e+00,1.18216e-02,9.99999e-01,9.99999e-01,1.54578e-02,9.95758e-01,7.66997e-01,9.99997e-01
1.068499092e+00,4.05572e-02,9.99999e-01,9.99999e-01,5.29069e-02,9.92900e-01,7.71026e-01,9.99994e-01
1.073841587e+00,1.19324e-01,9.99999e-01,9.99999e-01,1.55034e-01,9.91704e-01,7.74997e-01,9.99989e-01
