#,Wave/freq,Total,N2,O2,CO2,H2O,Rayleigh,CIA
4.000000000e-01,7.09503e-06,9.99999e-01,9.99999e-01,9.99999e-01,9.99976e-01,7.09519e-06,9.99999e-01
4.020000000e-01,8.96950e-06,9.99999e-01,9.99999e-01,9.99999e-01,9.99985e-01,8.96963e-06,9.99999e-01
4.040100000e-01,1.12841e-05,9.99999e-01,9.99999e-01,9.99999e-01,9.99993e-01,1.12842e-05,9.99999e-01
4.060300500e-01,1.41317e-05,9.99999e-01,9.99999e-01,9.99999e-01,9.99998e-01,1.41317e-05,9.99999e-01
4.080602003e-01,1.76194e-05,9.99999e-01,9.99999e-01,9.99999e-01,9.99999e-01,1.76194e-05,9.99999e-01
4.101005013e-01,2.18723e-05,9.99999e-01,9.99999e-01,9.99999e-01,9.99999e-01,2.18723e-05,9.99999e-01
4.121510038e-01,2.70360e-05,9.99999e-01,9.99999e-01,9.99999e-01,9.99998e-01,2.70361e-05,9.99999e-01
4.142117588e-01,3.32791e-05,9.99999e-01,9.99999e-01,9.99999e-01,9.99993e-01,3.32793e-05,9.99999e-01
4.162828176e-01,4.07953e-05,9.99999e-01,9.99999e-01,9.99999e-01,9.99971e-01,4.07964e-05,9.99999e-01
4.183642317e-01,4.98099e-05,9.99999e-01,9.99999e-01,9.99999e-01,9.99982e-01,4.98107e-05,9.99999e-01
4.204560528e-01,6.05769e-05,9.99999e-01,9.99999e-01,9.99999e-01,9.99989e-01,6.05775e-05,9.99999e-01
4.225583331e-01,7.33871e-05,9.99999e-01,9.99999e-01,9.99999e-01,9.99995e-01,7.33874e-05,9.99999e-01
4.246711247e-01,8.85695e-05,9.99999e-01,9.99999e-01,9.99999e-01,9.99996e-01,8.85698e-05,9.99999e-01
4.267944804e-01,1.06496e-04,9.99999e-01,9.99999e-01,9.99999e-01,9.99994e-01,1.06497e-04,9.99999e-01
4.289284528e-01,1.27587e-04,9.99999e-01,9.99999e-01,9.99999e-01,9.99996e-01,1.27587e-04,9.99999e-01
4.310730950e-01,1.52309e-04,9.99999e-01,9.99999e-01,9.99999e-01,9.99998e-01,1.52309e-04,9.99999e-01
4.332284605e-01,1.81187e-04,9.99999e-01,9.99999e-01,9.99999e-01,9.99999e-01,1.81187e-04,9.99999e-01
4.353946028e-01,2.14802e-04,9.99999e-01,9.99999e-01,9.99999e-01,9.99999e-01,2.14802e-04,9.99999e-01
4.375715758e-01,2.53798e-04,9.99999e-01,9.99999e-01,9.99999e-01,9.99996e-01,2.53799e-04,9.99999e-01
4.397594337e-01,2.98882e-04,9.99999e-01,9.99999e-01,9.99999e-01,9.99974e-01,2.98889e-04,9.99999e-01
4.419582309e-01,3.50810e-04,9.99999e-01,9.99999e-01,9.99999e-01,9.99873e-01,3.50855e-04,9.99999e-01
4.441680220e-01,4.10513e-04,9.99999e-01,9.99999e-01,9.99999e-01,9.99901e-01,4.10553e-04,9.99999e-01
4.463888621e-01,4.78872e-04,9.99999e-01,9.99999e-01,9.99999e-01,9.99897e-01,4.78921e-04,9.99999e-01
4.486208064e-01,5.56941e-04,9.99999e-01,9.99999e-01,9.99999e-01,9.99935e-01,5.56977e-04,9.99999e-01
4.508639105e-01,6.45806e-04,9.99999e-01,9.99999e-01,9.99999e-01,9.99969e-01,6.45825e-04,9.99999e-01
4.531182300e-01,7.46651e-04,9.99999e-01,9.99999e-01,9.99999e-01,9.99987e-01,7.46660e-04,9.99999e-01
4.553838212e-01,8.60762e-04,9.99999e-01,9.99999e-01,9.99999e-01,9.99991e-01,8.60769e-04,9.99999e-01
4.576607403e-01,9.89529e-04,9.99999e-01,9.99999e-01,9.99999e-01,9.99995e-01,9.89532e-04,9.99999e-01
4.599490440e-01,1.13443e-03,9.99999e-01,9.99999e-01,9.99999e-01,9.99996e-01,1.13443e-03,9.99999e-01
4.622487892e-01,1.29704e-03,9.99999e-01,9.99999e-01,9.99999e-01,9.99999e-01,1.29704e-03,9.99999e-01
4.645600332e-01,1.47904e-03,9.99999e-01,9.99999e-01,9.99999e-01,9.99997e-01,1.47904e-03,9.99999e-01
4.668828333e-01,1.68216e-03,9.99999e-01,9.99999e-01,9.99999e-01,9.99969e-01,1.68221e-03,9.99999e-01
4.692172475e-01,1.90830e-03,9.99999e-01,9.99999e-01,9.99999e-01,9.99935e-01,1.90843e-03,9.99999e-01
4.715633337e-01,2.15959e-03,9.99999e-01,9.99999e-01,9.99999e-01,9.99957e-01,2.15968e-03,9.99999e-01
4.739211504e-01,2.43794e-03,9.99999e-01,9.99999e-01,9.99999e-01,9.99959e-01,2.43804e-03,9.99999e-01
4.762907561e-01,2.74564e-03,9.99999e-01,9.99999e-01,9.99999e-01,9.99978e-01,2.74570e-03,9.99999e-01
4.786722099e-01,3.08491e-03,9.99999e-01,9.99999e-01,9.99999e-01,9.99991e-01,3.08494e-03,9.99999e-01
4.810655710e-01,3.45811e-03,9.99999e-01,9.99999e-01,9.99999e-01,9.99996e-01,3.45812e-03,9.99999e-01
4.834708988e-01,3.86761e-03,9.99999e-01,9.99999e-01,9.99999e-01,9.99974e-01,3.86771e-03,9.99999e-01
4.858882533e-01,4.31606e-03,9.99999e-01,9.99999e-01,9.99999e-01,9.99954e-01,4.31626e-03,9.99999e-01
4.883176946e-01,4.80622e-03,9.99999e-01,9.99999e-01,9.99999e-01,9.99961e-01,4.80640e-03,9.99999e-01
4.907592831e-01,5.34066e-03,9.99999e-01,9.99999e-01,9.99999e-01,9.99965e-01,5.34084e-03,9.99999e-01
4.932130795e-01,5.92222e-03,9.99999e-01,9.99999e-01,9.99999e-01,9.99975e-01,5.92237e-03,9.99999e-01
4.956791449e-01,6.55373e-03,9.99999e-01,9.99999e-01,9.99999e-01,9.99986e-01,6.55381e-03,9.99999e-01
4.981575406e-01,7.23762e-03,9.99999e-01,9.99999e-01,9.99999e-01,9.99934e-01,7.23808e-03,9.99999e-01
5.006483283e-01,7.97679e-03,9.99999e-01,9.99999e-01,9.99999e-01,9.99831e-01,7.97813e-03,9.99998e-01
5.031515699e-01,8.76943e-03,9.99999e-01,9.99999e-01,9.99999e-01,9.99151e-01,8.77696e-03,9.99990e-01
5.056673278e-01,9.63317e-03,9.99999e-01,9.99999e-01,9.99999e-01,9.99552e-01,9.63758e-03,9.99989e-01
5.081956644e-01,1.05570e-02,9.99999e-01,9.99999e-01,9.99999e-01,9.99435e-01,1.05631e-02,9.99992e-01
5.107366428e-01,1.15520e-02,9.99999e-01,9.99999e-01,9.99999e-01,9.99618e-01,1.15565e-02,9.99998e-01
5.132903260e-01,1.26181e-02,9.99999e-01,9.99999e-01,9.99999e-01,9.99781e-01,1.26209e-02,9.99999e-01
5.158567776e-01,1.37581e-02,9.99999e-01,9.99999e-01,9.99999e-01,9.99907e-01,1.37593e-02,9.99999e-01
5.184360615e-01,1.49744e-02,9.99999e-01,9.99999e-01,9.99999e-01,9.99962e-01,1.49749e-02,9.99999e-01
5.210282418e-01,1.62704e-02,9.99999e-01,9.99999e-01,9.99999e-01,9.99985e-01,1.62707e-02,9.99999e-01
5.236333830e-01,1.76486e-02,9.99999e-01,9.99999e-01,9.99999e-01,9.99944e-01,1.76496e-02,9.99999e-01
5.262515499e-01,1.91140e-02,9.99999e-01,9.99999e-01,9.99999e-01,9.99964e-01,1.91146e-02,9.99998e-01
5.288828077e-01,2.06680e-02,9.99999e-01,9.99999e-01,9.99999e-01,9.99967e-01,2.06687e-02,9.99999e-01
5.315272217e-01,2.23140e-02,9.99999e-01,9.99999e-01,9.99999e-01,9.99971e-01,2.23146e-02,9.99999e-01
5.341848578e-01,2.40548e-02,9.99999e-01,9.99999e-01,9.99999e-01,9.99981e-01,2.40552e-02,9.99999e-01
5.368557821e-01,2.58914e-02,9.99999e-01,9.99999e-01,9.99999e-01,9.99935e-01,2.58931e-02,9.99999e-01
5.395400610e-01,2.78244e-02,9.99999e-01,9.99999e-01,9.99999e-01,9.99766e-01,2.78309e-02,9.99997e-01
5.422377613e-01,2.98621e-02,9.99999e-01,9.99999e-01,9.99999e-01,9.99699e-01,2.98712e-02,9.99994e-01
5.449489501e-01,3.20071e-02,9.99999e-01,9.99999e-01,9.99999e-01,9.99720e-01,3.20162e-02,9.99993e-01
5.476736949e-01,3.42597e-02,9.99999e-01,9.99999e-01,9.99999e-01,9.99752e-01,3.42683e-02,9.99996e-01
5.504120634e-01,3.66230e-02,9.99999e-01,9.99999e-01,9.99999e-01,9.99820e-01,3.66296e-02,9.99998e-01
5.531641237e-01,3.90985e-02,9.99999e-01,9.99999e-01,9.99999e-01,9.99909e-01,3.91021e-02,9.99999e-01
5.559299443e-01,4.16858e-02,9.99999e-01,9.99999e-01,9.99999e-01,9.99955e-01,4.16876e-02,9.99999e-01
5.587095940e-01,4.43868e-02,9.99999e-01,9.99999e-01,9.99999e-01,9.99972e-01,4.43880e-02,9.99999e-01
5.615031420e-01,4.72033e-02,9.99999e-01,9.99999e-01,9.99999e-01,9.99969e-01,4.72047e-02,9.99999e-01
5.643106577e-01,5.01375e-02,9.99999e-01,9.99999e-01,9.99999e-01,9.99964e-01,5.01392e-02,9.99999e-01
5.671322110e-01,5.31702e-02,9.99999e-01,9.99999e-01,9.99999e-01,9.99578e-01,5.31927e-02,9.99995e-01
5.699678720e-01,5.63406e-02,9.99999e-01,9.99999e-01,9.99999e-01,9.99554e-01,5.63663e-02,9.99988e-01
5.728177114e-01,5.96327e-02,9.99999e-01,9.99999e-01,9.99999e-01,9.99534e-01,5.96610e-02,9.99990e-01
5.756818000e-01,6.30501e-02,9.99999e-01,9.99999e-01,9.99999e-01,9.99573e-01,6.30773e-02,9.99993e-01
5.785602090e-01,6.65912e-02,9.99999e-01,9.99999e-01,9.99999e-01,9.99628e-01,6.66161e-02,9.99997e-01
5.814530100e-01,7.02512e-02,9.99999e-01,9.99999e-01,9.99999e-01,9.99626e-01,7.02775e-02,9.99998e-01
5.843602750e-01,7.40286e-02,9.99999e-01,9.99999e-01,9.99999e-01,9.99554e-01,7.40618e-02,9.99997e-01
5.872820764e-01,7.76679e-02,9.99999e-01,9.99999e-01,9.99999e-01,9.96163e-01,7.79691e-02,9.99972e-01
5.902184868e-01,8.16128e-02,9.99999e-01,9.99999e-01,9.99999e-01,9.95359e-01,8.19993e-02,9.99926e-01
5.931695792e-01,8.58632e-02,9.99999e-01,9.99999e-01,9.99999e-01,9.96718e-01,8.61519e-02,9.99928e-01
5.961354271e-01,9.00978e-02,9.99999e-01,9.99999e-01,9.99999e-01,9.96404e-01,9.04266e-02,9.99958e-01
5.991161043e-01,9.45728e-02,9.99999e-01,9.99999e-01,9.99999e-01,9.97377e-01,9.48226e-02,9.99986e-01
6.021116848e-01,9.91912e-02,9.99999e-01,9.99999e-01,9.99999e-01,9.98511e-01,9.93391e-02,9.99998e-01
6.051222432e-01,1.03897e-01,9.99999e-01,9.99999e-01,9.99999e-01,9.99246e-01,1.03975e-01,9.99999e-01
6.081478544e-01,1.08694e-01,9.99999e-01,9.99999e-01,9.99999e-01,9.99674e-01,1.08730e-01,9.99999e-01
6.111885937e-01,1.13585e-01,9.99999e-01,9.99999e-01,9.99999e-01,9.99862e-01,1.13601e-01,9.99999e-01
6.142445367e-01,1.18581e-01,9.99999e-01,9.99999e-01,9.99999e-01,9.99938e-01,1.18588e-01,9.99999e-01
6.173157594e-01,1.23685e-01,9.99999e-01,9.99999e-01,9.99999e-01,9.99965e-01,1.23689e-01,9.99999e-01
6.204023382e-01,1.28898e-01,9.99999e-01,9.99999e-01,9.99999e-01,9.99970e-01,1.28902e-01,9.99999e-01
6.235043498e-01,1.34208e-01,9.99999e-01,9.99999e-01,9.99999e-01,9.99873e-01,1.34225e-01,9.99999e-01
6.266218716e-01,1.39563e-01,9.99999e-01,9.99999e-01,9.99999e-01,9.99331e-01,1.39657e-01,9.99994e-01
6.297549810e-01,1.45157e-01,9.99999e-01,9.99999e-01,9.99999e-01,9.99754e-01,1.45194e-01,9.99990e-01
6.329037559e-01,1.50761e-01,9.99999e-01,9.99999e-01,9.99999e-01,9.99515e-01,1.50835e-01,9.99991e-01
6.360682746e-01,1.56512e-01,9.99999e-01,9.99999e-01,9.99999e-01,9.99586e-01,1.56577e-01,9.99995e-01
6.392486160e-01,1.62331e-01,9.99999e-01,9.99999e-01,9.99999e-01,9.99464e-01,1.62418e-01,9.99997e-01
6.424448591e-01,1.68234e-01,9.99999e-01,9.99999e-01,9.99999e-01,9.99283e-01,1.68355e-01,9.99996e-01
6.456570834e-01,1.73803e-01,9.99999e-01,9.99999e-01,9.99999e-01,9.96675e-01,1.74386e-01,9.99981e-01
6.488853688e-01,1.80059e-01,9.99999e-01,9.99999e-01,9.99999e-01,9.97569e-01,1.80506e-01,9.99948e-01
6.521297956e-01,1.86244e-01,9.99999e-01,9.99999e-01,9.99999e-01,9.97522e-01,1.86715e-01,9.99957e-01
6.553904446e-01,1.92526e-01,9.99999e-01,9.99999e-01,9.99999e-01,9.97532e-01,1.93008e-01,9.99967e-01
6.586673968e-01,1.98959e-01,9.99999e-01,9.99999e-01,9.99999e-01,9.97887e-01,1.99382e-01,9.99988e-01
6.619607338e-01,2.05592e-01,9.99999e-01,9.99999e-01,9.99999e-01,9.98822e-01,2.05835e-01,9.99997e-01
6.652705375e-01,2.12213e-01,9.99999e-01,9.99999e-01,9.99999e-01,9.99293e-01,2.12363e-01,9.99998e-01
6.685968902e-01,2.18891e-01,9.99999e-01,9.99999e-01,9.99999e-01,9.99671e-01,2.18963e-01,9.99999e-01
6.719398746e-01,2.25597e-01,9.99999e-01,9.99999e-01,9.99999e-01,9.99847e-01,2.25632e-01,9.99999e-01
6.752995740e-01,2.32347e-01,9.99999e-01,9.99999e-01,9.99999e-01,9.99917e-01,2.32366e-01,9.99999e-01
6.786760719e-01,2.39133e-01,9.99999e-01,9.99999e-01,9.99999e-01,9.99880e-01,2.39162e-01,9.99999e-01
6.820694522e-01,2.45966e-01,9.99999e-01,9.99999e-01,9.99999e-01,9.99795e-01,2.46016e-01,9.99998e-01
6.854797995e-01,2.52859e-01,9.99999e-01,9.99999e-01,9.99999e-01,9.99736e-01,2.52926e-01,9.99997e-01
6.889071985e-01,2.59721e-01,9.99999e-01,9.99999e-01,9.99999e-01,9.99361e-01,2.59888e-01,9.99993e-01
6.923517345e-01,2.64117e-01,9.99999e-01,9.99999e-01,9.99999e-01,9.89626e-01,2.66898e-01,9.99949e-01
6.958134932e-01,2.72448e-01,9.99999e-01,9.99999e-01,9.99999e-01,9.94612e-01,2.73954e-01,9.99889e-01
6.992925606e-01,2.79579e-01,9.99999e-01,9.99999e-01,9.99999e-01,9.94864e-01,2.81050e-01,9.99900e-01
7.027890234e-01,2.86340e-01,9.99999e-01,9.99999e-01,9.99999e-01,9.93669e-01,2.88186e-01,9.99923e-01
7.063029686e-01,2.93772e-01,9.99999e-01,9.99999e-01,9.99999e-01,9.94675e-01,2.95355e-01,9.99961e-01
7.098344834e-01,3.01005e-01,9.99999e-01,9.99999e-01,9.99999e-01,9.94891e-01,3.02557e-01,9.99977e-01
7.133836558e-01,3.07660e-01,9.99999e-01,9.99999e-01,9.99999e-01,9.93181e-01,3.09786e-01,9.99955e-01
7.169505741e-01,2.99949e-01,9.99999e-01,9.99999e-01,9.99999e-01,9.46419e-01,3.17041e-01,9.99650e-01
7.205353270e-01,3.15528e-01,9.99999e-01,9.99999e-01,9.99999e-01,9.73501e-01,3.24317e-01,9.99383e-01
7.241380036e-01,3.20291e-01,9.99999e-01,9.99999e-01,9.99999e-01,9.66377e-01,3.31611e-01,9.99467e-01
7.277586936e-01,3.28479e-01,9.99999e-01,9.99999e-01,9.99999e-01,9.69614e-01,3.38920e-01,9.99564e-01
7.313974871e-01,3.35010e-01,9.99999e-01,9.99999e-01,9.99999e-01,9.67757e-01,3.46242e-01,9.99795e-01
7.350544745e-01,3.47276e-01,9.99999e-01,9.99999e-01,9.99999e-01,9.82261e-01,3.53572e-01,9.99928e-01
7.387297469e-01,3.56177e-01,9.99999e-01,9.99999e-01,9.99999e-01,9.86922e-01,3.60908e-01,9.99967e-01
7.424233956e-01,3.65882e-01,9.99999e-01,9.99999e-01,9.99999e-01,9.93585e-01,3.68247e-01,9.99993e-01
7.461355126e-01,3.74123e-01,9.99999e-01,9.99999e-01,9.99999e-01,9.96107e-01,3.75585e-01,9.99998e-01
7.498661902e-01,3.82227e-01,9.99999e-01,9.99999e-01,9.99999e-01,9.98187e-01,3.82921e-01,9.99999e-01
7.536155211e-01,3.89904e-01,9.99999e-01,9.99999e-01,9.99999e-01,9.99110e-01,3.90251e-01,9.99999e-01
7.573835987e-01,3.97390e-01,9.99999e-01,9.99999e-01,9.99999e-01,9.99541e-01,3.97572e-01,9.99999e-01
7.611705167e-01,4.04767e-01,9.99999e-01,9.99999e-01,9.99999e-01,9.99715e-01,4.04882e-01,9.99999e-01
7.649763693e-01,4.12104e-01,9.99999e-01,9.99999e-01,9.99999e-01,9.99821e-01,4.12178e-01,9.99999e-01
7.688012511e-01,4.19405e-01,9.99999e-01,9.99999e-01,9.99999e-01,9.99875e-01,4.19457e-01,9.99999e-01
7.726452574e-01,4.26674e-01,9.99999e-01,9.99999e-01,9.99999e-01,9.99897e-01,4.26718e-01,9.99999e-01
7.765084837e-01,4.33893e-01,9.99999e-01,9.99999e-01,9.99999e-01,9.99854e-01,4.33956e-01,9.99999e-01
7.803910261e-01,4.24295e-01,9.99999e-01,9.99999e-01,9.62329e-01,9.99370e-01,4.41171e-01,9.99998e-01
7.842929812e-01,3.77788e-01,9.99999e-01,9.99999e-01,8.44355e-01,9.97805e-01,4.48360e-01,9.99995e-01
7.882144461e-01,3.78360e-01,9.99999e-01,9.99999e-01,8.34233e-01,9.95488e-01,4.55521e-01,9.99968e-01
7.921555184e-01,4.15065e-01,9.99999e-01,9.99999e-01,8.99360e-01,9.97526e-01,4.62651e-01,9.99945e-01
7.961162960e-01,4.35657e-01,9.99999e-01,9.99999e-01,9.31506e-01,9.95622e-01,4.69749e-01,9.99948e-01
8.000968774e-01,4.56483e-01,9.99999e-01,9.99999e-01,9.62258e-01,9.94949e-01,4.76812e-01,9.99945e-01
8.040973618e-01,4.71889e-01,9.99999e-01,9.99999e-01,9.80285e-01,9.94947e-01,4.83839e-01,9.99956e-01
8.081178486e-01,4.80817e-01,9.99999e-01,9.99999e-01,9.90894e-01,9.88627e-01,4.90827e-01,9.99958e-01
8.121584379e-01,4.73190e-01,9.99999e-01,9.99999e-01,9.97184e-01,9.53413e-01,4.97776e-01,9.99840e-01
8.162192301e-01,4.76352e-01,9.99999e-01,9.99999e-01,9.99377e-01,9.45006e-01,5.04682e-01,9.99400e-01
8.203003262e-01,4.96945e-01,9.99999e-01,9.99999e-01,9.99990e-01,9.72147e-01,5.11545e-01,9.99297e-01
8.244018279e-01,4.98090e-01,9.99999e-01,9.99999e-01,9.99999e-01,9.61426e-01,5.18363e-01,9.99441e-01
8.285238370e-01,5.07475e-01,9.99999e-01,9.99999e-01,9.99999e-01,9.66794e-01,5.25135e-01,9.99560e-01
8.326664562e-01,5.13927e-01,9.99999e-01,9.99999e-01,9.99999e-01,9.66458e-01,5.31859e-01,9.99818e-01
8.368297885e-01,5.25557e-01,9.99999e-01,9.99999e-01,9.99999e-01,9.75944e-01,5.38533e-01,9.99958e-01
8.410139374e-01,5.37318e-01,9.99999e-01,9.99999e-01,9.99999e-01,9.85644e-01,5.45157e-01,9.99975e-01
8.452190071e-01,5.47826e-01,9.99999e-01,9.99999e-01,9.99999e-01,9.92939e-01,5.51729e-01,9.99985e-01
8.494451021e-01,5.55952e-01,9.99999e-01,9.99999e-01,9.99999e-01,9.95896e-01,5.58249e-01,9.99987e-01
8.536923276e-01,5.63340e-01,9.99999e-01,9.99999e-01,9.99999e-01,9.97573e-01,5.64714e-01,9.99992e-01
8.579607893e-01,5.70269e-01,9.99999e-01,9.99999e-01,9.99999e-01,9.98504e-01,5.71124e-01,9.99997e-01
8.622505932e-01,5.76930e-01,9.99999e-01,9.99999e-01,9.99999e-01,9.99049e-01,5.77478e-01,9.99999e-01
8.665618462e-01,5.36573e-01,9.99999e-01,9.99999e-01,9.19660e-01,9.99411e-01,5.83775e-01,9.99999e-01
8.708946554e-01,3.83947e-01,9.99999e-01,9.99999e-01,6.51162e-01,9.99326e-01,5.90015e-01,9.99999e-01
8.752491287e-01,4.21354e-01,9.99999e-01,9.99999e-01,7.07354e-01,9.99099e-01,5.96196e-01,9.99998e-01
8.796253743e-01,4.97224e-01,9.99999e-01,9.99999e-01,8.26517e-01,9.98751e-01,6.02318e-01,9.99996e-01
8.840235012e-01,5.50305e-01,9.99999e-01,9.99999e-01,9.05819e-01,9.98574e-01,6.08380e-01,9.99990e-01
8.884436187e-01,5.87846e-01,9.99999e-01,9.99999e-01,9.61787e-01,9.94792e-01,6.14381e-01,9.99974e-01
8.928858368e-01,5.77945e-01,9.99999e-01,9.99999e-01,9.84337e-01,9.46502e-01,6.20321e-01,9.99857e-01
8.973502660e-01,5.65689e-01,9.99999e-01,9.99999e-01,9.96179e-01,9.07414e-01,6.26200e-01,9.99270e-01
9.018370173e-01,6.00540e-01,9.99999e-01,9.99999e-01,9.99578e-01,9.51674e-01,6.32016e-01,9.98853e-01
9.063462024e-01,6.03514e-01,9.99999e-01,9.99999e-01,9.89170e-01,9.57247e-01,6.37770e-01,9.98992e-01
9.108779334e-01,5.85898e-01,9.99999e-01,9.99999e-01,9.75388e-01,9.34174e-01,6.43462e-01,9.98953e-01
9.154323231e-01,5.96860e-01,9.99999e-01,9.99999e-01,9.94180e-01,9.25586e-01,6.49090e-01,9.99134e-01
9.200094847e-01,5.67928e-01,9.99999e-01,9.99999e-01,9.18873e-01,9.41261e-01,6.54655e-01,9.99515e-01
9.246095321e-01,5.32483e-01,9.99999e-01,9.99999e-01,8.85186e-01,9.09523e-01,6.60156e-01,9.99441e-01
9.292325798e-01,3.25098e-01,9.99999e-01,9.99999e-01,9.08790e-01,5.32703e-01,6.65593e-01,9.97826e-01
9.338787427e-01,2.72562e-01,9.99999e-01,9.99999e-01,9.11778e-01,4.44800e-01,6.70967e-01,9.91046e-01
9.385481364e-01,4.52675e-01,9.99999e-01,9.99999e-01,9.34350e-01,7.20969e-01,6.76276e-01,9.89360e-01
9.432408771e-01,4.12611e-01,9.99999e-01,9.99999e-01,9.59295e-01,6.35357e-01,6.81521e-01,9.90813e-01
9.479570815e-01,3.58280e-01,9.99999e-01,9.99999e-01,9.78899e-01,5.36318e-01,6.86703e-01,9.92517e-01
9.526968669e-01,4.26749e-01,9.99999e-01,9.99999e-01,9.89776e-01,6.25462e-01,6.91820e-01,9.95429e-01
9.574603512e-01,4.48387e-01,9.99999e-01,9.99999e-01,9.95616e-01,6.47556e-01,6.96873e-01,9.97675e-01
9.622476530e-01,4.91122e-01,9.99999e-01,9.99999e-01,9.98631e-01,7.01765e-01,7.01862e-01,9.98391e-01
9.670588912e-01,5.75301e-01,9.99999e-01,9.99999e-01,9.99589e-01,8.15178e-01,7.06787e-01,9.98899e-01
9.718941857e-01,6.25603e-01,9.99999e-01,9.99999e-01,9.99970e-01,8.79826e-01,7.11648e-01,9.99189e-01
9.767536566e-01,6.43801e-01,9.99999e-01,9.99999e-01,9.99999e-01,8.99160e-01,7.16446e-01,9.99380e-01
9.816374249e-01,6.66421e-01,9.99999e-01,9.99999e-01,9.99999e-01,9.24267e-01,7.21181e-01,9.99785e-01
9.865456120e-01,6.90973e-01,9.99999e-01,9.99999e-01,9.99999e-01,9.51990e-01,7.25852e-01,9.99954e-01
9.914783401e-01,7.08572e-01,9.99999e-01,9.99999e-01,9.99999e-01,9.70045e-01,7.30460e-01,9.99987e-01
9.964357318e-01,7.22931e-01,9.99999e-01,9.99999e-01,9.99999e-01,9.83578e-01,7.35006e-01,9.99992e-01
1.001417910e+00,7.32181e-01,9.99999e-01,9.99999e-01,9.99999e-01,9.90127e-01,7.39489e-01,9.99988e-01
1.006425000e+00,7.39704e-01,9.99999e-01,9.99999e-01,9.99999e-01,9.94359e-01,7.43911e-01,9.99983e-01
1.011457125e+00,7.45639e-01,9.99999e-01,9.99999e-01,9.99999e-01,9.96497e-01,7.48270e-01,9.99984e-01
1.016514411e+00,7.50771e-01,9.99999e-01,9.99999e-01,9.99999e-01,9.97620e-01,7.52569e-01,9.99989e-01
1.021596983e+00,7.55319e-01,9.99999e-01,9.99999e-01,9.99941e-01,9.98103e-01,7.56806e-01,9.99989e-01
1.026704968e+00,7.56633e-01,9.99999e-01,9.99999e-01,9.95760e-01,9.98520e-01,7.60983e-01,9.99992e-01
1.031838492e+00,7.27131e-01,9.99999e-01,9.99999e-01,9.51363e-01,9.98924e-01,7.65100e-01,9.99997e-01
1.036997685e+00,1.05142e-01,9.99999e-01,9.99999e-01,1.36767e-01,9.99360e-01,7.69157e-01,9.99999e-01
1.042182673e+00,7.29483e-02,9.99999e-01,9.99999e-01,9.44145e-02,9.99237e-01,7.73155e-01,9.99999e-01
1.047393587e+00,9.17230e-02,9.99999e-01,9.99999e-01,1.18138e-01,9.98989e-01,7.77094e-01,9.99999e-01
1.052630555e+00,1.76030e-03,9.99999e-01,9.99999e-01,2.25624e-03,9.98613e-01,7.80975e-01,9.99999e-01
1.057893707e+00,4.76952e-03,9.99999e-01,9.99999e-01,6.08664e-03,9.97685e-01,7.84798e-01,9.99998e-01
1.063183176e+00,1.80604e-02,9.99999e-01,9.99999e-01,2.29642e-02,9.96194e-01,7.88563e-01,9.99997e-01
1.068499092e+00,5.59395e-02,9.99999e-01,9.99999e-01,7.09799e-02,9.93634e-01,7.92272e-01,9.99995e-01
1.073841587e+00,1.48447e-01,9.99999e-01,9.99999e-01,1.87686e-01,9.92550e-01,7.95924e-01,9.99990e-01
