#,Wave/freq,Total,N2,O2,CO2,H2O,Rayleigh,CIA
4.000000000e-01,5.25414e-22,9.99999e-01,9.99999e-01,9.99999e-01,9.99905e-01,5.25463e-22,9.99999e-01
4.020000000e-01,1.38445e-21,9.99999e-01,9.99999e-01,9.99999e-01,9.99940e-01,1.38453e-21,9.99999e-01
4.040100000e-01,3.57522e-21,9.99999e-01,9.99999e-01,9.99999e-01,9.99974e-01,3.57530e-21,9.99999e-01
4.060300500e-01,9.06115e-21,9.99999e-01,9.99999e-01,9.99999e-01,9.99993e-01,9.06120e-21,9.99999e-01
4.080602003e-01,2.25466e-20,9.99999e-01,9.99999e-01,9.99999e-01,9.99997e-01,2.25466e-20,9.99999e-01
4.101005013e-01,5.51006e-20,9.99999e-01,9.99999e-01,9.99999e-01,9.99999e-01,5.51006e-20,9.99999e-01
4.121510038e-01,1.32301e-19,9.99999e-01,9.99999e-01,9.99999e-01,9.99996e-01,1.32302e-19,9.99999e-01
4.142117588e-01,3.12213e-19,9.99999e-01,9.99999e-01,9.99999e-01,9.99973e-01,3.12221e-19,9.99999e-01
4.162828176e-01,7.24339e-19,9.99999e-01,9.99999e-01,9.99999e-01,9.99882e-01,7.24423e-19,9.99999e-01
4.183642317e-01,1.65300e-18,9.99999e-01,9.99999e-01,9.99999e-01,9.99930e-01,1.65311e-18,9.99999e-01
4.204560528e-01,3.71122e-18,9.99999e-01,9.99999e-01,9.99999e-01,9.99956e-01,3.71138e-18,9.99999e-01
4.225583331e-01,8.20017e-18,9.99999e-01,9.99999e-01,9.99999e-01,9.99983e-01,8.20030e-18,9.99999e-01
4.246711247e-01,1.78369e-17,9.99999e-01,9.99999e-01,9.99999e-01,9.99986e-01,1.78371e-17,9.99999e-01
4.267944804e-01,3.82071e-17,9.99999e-01,9.99999e-01,9.99999e-01,9.99980e-01,3.82078e-17,9.99999e-01
4.289284528e-01,8.06193e-17,9.99999e-01,9.99999e-01,9.99999e-01,9.99985e-01,8.06204e-17,9.99999e-01
4.310730950e-01,1.67622e-16,9.99999e-01,9.99999e-01,9.99999e-01,9.99993e-01,1.67623e-16,9.99999e-01
4.332284605e-01,3.43511e-16,9.99999e-01,9.99999e-01,9.99999e-01,9.99997e-01,3.43511e-16,9.99999e-01
4.353946028e-01,6.94056e-16,9.99999e-01,9.99999e-01,9.99999e-01,9.99998e-01,6.94056e-16,9.99999e-01
4.375715758e-01,1.38296e-15,9.99999e-01,9.99999e-01,9.99999e-01,9.99988e-01,1.38298e-15,9.99999e-01
4.397594337e-01,2.71817e-15,9.99999e-01,9.99999e-01,9.99999e-01,9.99897e-01,2.71844e-15,9.99999e-01
4.419582309e-01,5.26993e-15,9.99999e-01,9.99999e-01,9.99999e-01,9.99483e-01,5.27265e-15,9.99999e-01
4.441680220e-01,1.00897e-14,9.99999e-01,9.99999e-01,9.99999e-01,9.99591e-01,1.00938e-14,9.99999e-01
4.463888621e-01,1.90689e-14,9.99999e-01,9.99999e-01,9.99999e-01,9.99576e-01,1.90769e-14,9.99999e-01
4.486208064e-01,3.55949e-14,9.99999e-01,9.99999e-01,9.99999e-01,9.99735e-01,3.56043e-14,9.99999e-01
4.508639105e-01,6.56281e-14,9.99999e-01,9.99999e-01,9.99999e-01,9.99876e-01,6.56362e-14,9.99999e-01
4.531182300e-01,1.19541e-13,9.99999e-01,9.99999e-01,9.99999e-01,9.99950e-01,1.19547e-13,9.99999e-01
4.553838212e-01,2.15166e-13,9.99999e-01,9.99999e-01,9.99999e-01,9.99966e-01,2.15173e-13,9.99999e-01
4.576607403e-01,3.82816e-13,9.99999e-01,9.99999e-01,9.99999e-01,9.99984e-01,3.82822e-13,9.99999e-01
4.599490440e-01,6.73378e-13,9.99999e-01,9.99999e-01,9.99999e-01,9.99988e-01,6.73386e-13,9.99999e-01
4.622487892e-01,1.17135e-12,9.99999e-01,9.99999e-01,9.99999e-01,9.99997e-01,1.17135e-12,9.99999e-01
4.645600332e-01,2.01537e-12,9.99999e-01,9.99999e-01,9.99999e-01,9.99992e-01,2.01539e-12,9.99999e-01
4.668828333e-01,3.43023e-12,9.99999e-01,9.99999e-01,9.99999e-01,9.99875e-01,3.43065e-12,9.99999e-01
4.692172475e-01,5.77718e-12,9.99999e-01,9.99999e-01,9.99999e-01,9.99734e-01,5.77872e-12,9.99999e-01
4.715633337e-01,9.63247e-12,9.99999e-01,9.99999e-01,9.99999e-01,9.99826e-01,9.63414e-12,9.99999e-01
4.739211504e-01,1.58978e-11,9.99999e-01,9.99999e-01,9.99999e-01,9.99833e-01,1.59005e-11,9.99999e-01
4.762907561e-01,2.59819e-11,9.99999e-01,9.99999e-01,9.99999e-01,9.99913e-01,2.59842e-11,9.99999e-01
4.786722099e-01,4.20513e-11,9.99999e-01,9.99999e-01,9.99999e-01,9.99964e-01,4.20528e-11,9.99999e-01
4.810655710e-01,6.74133e-11,9.99999e-01,9.99999e-01,9.99999e-01,9.99988e-01,6.74140e-11,9.99999e-01
4.834708988e-01,1.07057e-10,9.99999e-01,9.99999e-01,9.99999e-01,9.99899e-01,1.07068e-10,9.99999e-01
4.858882533e-01,1.68467e-10,9.99999e-01,9.99999e-01,9.99999e-01,9.99811e-01,1.68499e-10,9.99999e-01
4.883176946e-01,2.62771e-10,9.99999e-01,9.99999e-01,9.99999e-01,9.99842e-01,2.62812e-10,9.99999e-01
4.907592831e-01,4.06275e-10,9.99999e-01,9.99999e-01,9.99999e-01,9.99857e-01,4.06332e-10,9.99999e-01
4.932130795e-01,6.22781e-10,9.99999e-01,9.99999e-01,9.99999e-01,9.99898e-01,6.22844e-10,9.99999e-01
4.956791449e-01,9.46651e-10,9.99999e-01,9.99999e-01,9.99999e-01,9.99946e-01,9.46702e-10,9.99999e-01
4.981575406e-01,1.42672e-09,9.99999e-01,9.99999e-01,9.99999e-01,9.99733e-01,1.42710e-09,9.99999e-01
5.006483283e-01,2.13244e-09,9.99999e-01,9.99999e-01,9.99999e-01,9.99312e-01,2.13391e-09,9.99994e-01
5.031515699e-01,3.15436e-09,9.99999e-01,9.99999e-01,9.99999e-01,9.96505e-01,3.16553e-09,9.99962e-01
5.056673278e-01,4.65063e-09,9.99999e-01,9.99999e-01,9.99999e-01,9.98150e-01,4.65944e-09,9.99957e-01
5.081956644e-01,6.79014e-09,9.99999e-01,9.99999e-01,9.99999e-01,9.97666e-01,6.80621e-09,9.99972e-01
5.107366428e-01,9.85231e-09,9.99999e-01,9.99999e-01,9.99999e-01,9.98423e-01,9.86792e-09,9.99994e-01
5.132903260e-01,1.41895e-08,9.99999e-01,9.99999e-01,9.99999e-01,9.99097e-01,1.42023e-08,9.99998e-01
5.158567776e-01,2.02864e-08,9.99999e-01,9.99999e-01,9.99999e-01,9.99618e-01,2.02941e-08,9.99999e-01
5.184360615e-01,2.87907e-08,9.99999e-01,9.99999e-01,9.99999e-01,9.99847e-01,2.87951e-08,9.99999e-01
5.210282418e-01,4.05733e-08,9.99999e-01,9.99999e-01,9.99999e-01,9.99942e-01,4.05756e-08,9.99999e-01
5.236333830e-01,5.67768e-08,9.99999e-01,9.99999e-01,9.99999e-01,9.99771e-01,5.67898e-08,9.99997e-01
5.262515499e-01,7.89457e-08,9.99999e-01,9.99999e-01,9.99999e-01,9.99856e-01,7.89572e-08,9.99997e-01
5.288828077e-01,1.09051e-07,9.99999e-01,9.99999e-01,9.99999e-01,9.99868e-01,1.09065e-07,9.99998e-01
5.315272217e-01,1.49678e-07,9.99999e-01,9.99999e-01,9.99999e-01,9.99884e-01,1.49695e-07,9.99999e-01
5.341848578e-01,2.04166e-07,9.99999e-01,9.99999e-01,9.99999e-01,9.99924e-01,2.04181e-07,9.99999e-01
5.368557821e-01,2.76722e-07,9.99999e-01,9.99999e-01,9.99999e-01,9.99734e-01,2.76795e-07,9.99998e-01
5.395400610e-01,3.72628e-07,9.99999e-01,9.99999e-01,9.99999e-01,9.99046e-01,3.72986e-07,9.99991e-01
5.422377613e-01,4.99020e-07,9.99999e-01,9.99999e-01,9.99999e-01,9.98757e-01,4.99652e-07,9.99977e-01
5.449489501e-01,6.64698e-07,9.99999e-01,9.99999e-01,9.99999e-01,9.98849e-01,6.65479e-07,9.99976e-01
5.476736949e-01,8.80427e-07,9.99999e-01,9.99999e-01,9.99999e-01,9.98976e-01,8.81339e-07,9.99988e-01
5.504120634e-01,1.15989e-06,9.99999e-01,9.99999e-01,9.99999e-01,9.99257e-01,1.16076e-06,9.99996e-01
5.531641237e-01,1.51990e-06,9.99999e-01,9.99999e-01,9.99999e-01,9.99625e-01,1.52047e-06,9.99999e-01
5.559299443e-01,1.98070e-06,9.99999e-01,9.99999e-01,9.99999e-01,9.99819e-01,1.98106e-06,9.99999e-01
5.587095940e-01,2.56743e-06,9.99999e-01,9.99999e-01,9.99999e-01,9.99886e-01,2.56772e-06,9.99999e-01
5.615031420e-01,3.31069e-06,9.99999e-01,9.99999e-01,9.99999e-01,9.99873e-01,3.31111e-06,9.99999e-01
5.643106577e-01,4.24772e-06,9.99999e-01,9.99999e-01,9.99999e-01,9.99858e-01,4.24832e-06,9.99998e-01
5.671322110e-01,5.41468e-06,9.99999e-01,9.99999e-01,9.99999e-01,9.98287e-01,5.42405e-06,9.99984e-01
5.699678720e-01,6.87874e-06,9.99999e-01,9.99999e-01,9.99999e-01,9.98149e-01,6.89182e-06,9.99952e-01
5.728177114e-01,8.69841e-06,9.99999e-01,9.99999e-01,9.99999e-01,9.98084e-01,8.71544e-06,9.99960e-01
5.756818000e-01,1.09511e-05,9.99999e-01,9.99999e-01,9.99999e-01,9.98239e-01,1.09706e-05,9.99975e-01
5.785602090e-01,1.37255e-05,9.99999e-01,9.99999e-01,9.99999e-01,9.98463e-01,1.37467e-05,9.99992e-01
5.814530100e-01,1.71222e-05,9.99999e-01,9.99999e-01,9.99999e-01,9.98459e-01,1.71487e-05,9.99996e-01
5.843602750e-01,2.12603e-05,9.99999e-01,9.99999e-01,9.99999e-01,9.98172e-01,2.12994e-05,9.99989e-01
5.872820764e-01,2.59270e-05,9.99999e-01,9.99999e-01,9.99999e-01,9.84364e-01,2.63417e-05,9.99888e-01
5.902184868e-01,3.18136e-05,9.99999e-01,9.99999e-01,9.99999e-01,9.80951e-01,3.24412e-05,9.99696e-01
5.931695792e-01,3.92423e-05,9.99999e-01,9.99999e-01,9.99999e-01,9.86548e-01,3.97891e-05,9.99704e-01
5.961354271e-01,4.78785e-05,9.99999e-01,9.99999e-01,9.99999e-01,9.85231e-01,4.86049e-05,9.99821e-01
5.991161043e-01,5.84977e-05,9.99999e-01,9.99999e-01,9.99999e-01,9.89196e-01,5.91396e-05,9.99947e-01
6.021116848e-01,7.12383e-05,9.99999e-01,9.99999e-01,9.99999e-01,9.93851e-01,7.16794e-05,9.99993e-01
6.051222432e-01,8.62790e-05,9.99999e-01,9.99999e-01,9.99999e-01,9.96883e-01,8.65487e-05,9.99999e-01
6.081478544e-01,1.03974e-04,9.99999e-01,9.99999e-01,9.99999e-01,9.98655e-01,1.04114e-04,9.99999e-01
6.111885937e-01,1.24717e-04,9.99999e-01,9.99999e-01,9.99999e-01,9.99429e-01,1.24788e-04,9.99999e-01
6.142445367e-01,1.48996e-04,9.99999e-01,9.99999e-01,9.99999e-01,9.99745e-01,1.49034e-04,9.99999e-01
6.173157594e-01,1.77341e-04,9.99999e-01,9.99999e-01,9.99999e-01,9.99859e-01,1.77366e-04,9.99999e-01
6.204023382e-01,2.10336e-04,9.99999e-01,9.99999e-01,9.99999e-01,9.99881e-01,2.10361e-04,9.99999e-01
6.235043498e-01,2.48525e-04,9.99999e-01,9.99999e-01,9.99999e-01,9.99483e-01,2.48654e-04,9.99998e-01
6.266218716e-01,2.92136e-04,9.99999e-01,9.99999e-01,9.99999e-01,9.97242e-01,2.92949e-04,9.99980e-01
6.297549810e-01,3.43657e-04,9.99999e-01,9.99999e-01,9.99999e-01,9.98988e-01,3.44018e-04,9.99960e-01
6.329037559e-01,4.01891e-04,9.99999e-01,9.99999e-01,9.99999e-01,9.97997e-01,4.02710e-04,9.99968e-01
6.360682746e-01,4.69143e-04,9.99999e-01,9.99999e-01,9.99999e-01,9.98298e-01,4.69951e-04,9.99981e-01
6.392486160e-01,5.45537e-04,9.99999e-01,9.99999e-01,9.99999e-01,9.97792e-01,5.46748e-04,9.99991e-01
6.424448591e-01,6.32326e-04,9.99999e-01,9.99999e-01,9.99999e-01,9.97061e-01,6.34197e-04,9.99986e-01
6.456570834e-01,7.23470e-04,9.99999e-01,9.99999e-01,9.99999e-01,9.86427e-01,7.33480e-04,9.99923e-01
6.488853688e-01,8.37228e-04,9.99999e-01,9.99999e-01,9.99999e-01,9.89991e-01,8.45872e-04,9.99786e-01
6.521297956e-01,9.62652e-04,9.99999e-01,9.99999e-01,9.99999e-01,9.89803e-01,9.72742e-04,9.99821e-01
6.553904446e-01,1.10415e-03,9.99999e-01,9.99999e-01,9.99999e-01,9.89905e-01,1.11556e-03,9.99865e-01
6.586673968e-01,1.26472e-03,9.99999e-01,9.99999e-01,9.99999e-01,9.91292e-01,1.27589e-03,9.99955e-01
6.619607338e-01,1.44803e-03,9.99999e-01,9.99999e-01,9.99999e-01,9.94955e-01,1.45539e-03,9.99990e-01
6.652705375e-01,1.65098e-03,9.99999e-01,9.99999e-01,9.99999e-01,9.97072e-01,1.65584e-03,9.99994e-01
6.685968902e-01,1.87654e-03,9.99999e-01,9.99999e-01,9.99999e-01,9.98639e-01,1.87909e-03,9.99998e-01
6.719398746e-01,2.12579e-03,9.99999e-01,9.99999e-01,9.99999e-01,9.99368e-01,2.12713e-03,9.99999e-01
6.752995740e-01,2.40121e-03,9.99999e-01,9.99999e-01,9.99999e-01,9.99658e-01,2.40202e-03,9.99999e-01
6.786760719e-01,2.70461e-03,9.99999e-01,9.99999e-01,9.99999e-01,9.99509e-01,2.70594e-03,9.99998e-01
6.820694522e-01,3.03856e-03,9.99999e-01,9.99999e-01,9.99999e-01,9.99158e-01,3.04113e-03,9.99995e-01
6.854797995e-01,3.40625e-03,9.99999e-01,9.99999e-01,9.99999e-01,9.98915e-01,3.40998e-03,9.99990e-01
6.889071985e-01,3.80492e-03,9.99999e-01,9.99999e-01,9.99999e-01,9.97399e-01,3.81493e-03,9.99976e-01
6.923517345e-01,4.07961e-03,9.99999e-01,9.99999e-01,9.99999e-01,9.58185e-01,4.25851e-03,9.99793e-01
6.958134932e-01,4.63598e-03,9.99999e-01,9.99999e-01,9.99999e-01,9.77816e-01,4.74336e-03,9.99535e-01
6.992925606e-01,5.15980e-03,9.99999e-01,9.99999e-01,9.99999e-01,9.79086e-01,5.27216e-03,9.99591e-01
7.027890234e-01,5.69460e-03,9.99999e-01,9.99999e-01,9.99999e-01,9.74123e-01,5.84770e-03,9.99686e-01
7.063029686e-01,6.33067e-03,9.99999e-01,9.99999e-01,9.99999e-01,9.78192e-01,6.47281e-03,9.99843e-01
7.098344834e-01,7.00001e-03,9.99999e-01,9.99999e-01,9.99999e-01,9.79059e-01,7.15038e-03,9.99907e-01
7.133836558e-01,7.66478e-03,9.99999e-01,9.99999e-01,9.99999e-01,9.72451e-01,7.88336e-03,9.99816e-01
7.169505741e-01,6.94293e-03,9.99999e-01,9.99999e-01,9.99999e-01,8.01517e-01,8.67474e-03,9.98558e-01
7.205353270e-01,8.51287e-03,9.99999e-01,9.99999e-01,9.99999e-01,8.95777e-01,9.52755e-03,9.97457e-01
7.241380036e-01,9.06885e-03,9.99999e-01,9.99999e-01,9.99999e-01,8.70172e-01,1.04448e-02,9.97804e-01
7.277586936e-01,1.00635e-02,9.99999e-01,9.99999e-01,9.99999e-01,8.82056e-01,1.14296e-02,9.98204e-01
7.313974871e-01,1.09035e-02,9.99999e-01,9.99999e-01,9.99999e-01,8.74053e-01,1.24851e-02,9.99158e-01
7.350544745e-01,1.26437e-02,9.99999e-01,9.99999e-01,9.99999e-01,9.28981e-01,1.36142e-02,9.99707e-01
7.387297469e-01,1.40340e-02,9.99999e-01,9.99999e-01,9.99999e-01,9.47083e-01,1.48201e-02,9.99865e-01
7.424233956e-01,1.56816e-02,9.99999e-01,9.99999e-01,9.99999e-01,9.73687e-01,1.61057e-02,9.99973e-01
7.461355126e-01,1.71942e-02,9.99999e-01,9.99999e-01,9.99999e-01,9.83981e-01,1.74742e-02,9.99994e-01
7.498661902e-01,1.87864e-02,9.99999e-01,9.99999e-01,9.99999e-01,9.92498e-01,1.89284e-02,9.99997e-01
7.536155211e-01,2.03960e-02,9.99999e-01,9.99999e-01,9.99999e-01,9.96319e-01,2.04713e-02,9.99998e-01
7.573835987e-01,2.20638e-02,9.99999e-01,9.99999e-01,9.99999e-01,9.98103e-01,2.21057e-02,9.99999e-01
7.611705167e-01,2.38064e-02,9.99999e-01,9.99999e-01,9.99999e-01,9.98821e-01,2.38344e-02,9.99999e-01
7.649763693e-01,2.56412e-02,9.99999e-01,9.99999e-01,9.99999e-01,9.99261e-01,2.56601e-02,9.99999e-01
7.688012511e-01,2.75713e-02,9.99999e-01,9.99999e-01,9.99999e-01,9.99485e-01,2.75855e-02,9.99999e-01
7.726452574e-01,2.96004e-02,9.99999e-01,9.99999e-01,9.99999e-01,9.99577e-01,2.96129e-02,9.99999e-01
7.765084837e-01,3.17258e-02,9.99999e-01,9.99999e-01,9.99999e-01,9.99401e-01,3.17448e-02,9.99998e-01
7.803910261e-01,3.00695e-02,9.99999e-01,9.99999e-01,8.86881e-01,9.97420e-01,3.39835e-02,9.99997e-01
7.842929812e-01,1.89254e-02,9.99999e-01,9.99999e-01,5.24882e-01,9.91026e-01,3.63312e-02,9.99982e-01
7.882144461e-01,1.94851e-02,9.99999e-01,9.99999e-01,5.10584e-01,9.81506e-01,3.87898e-02,9.99885e-01
7.921555184e-01,2.67655e-02,9.99999e-01,9.99999e-01,6.53321e-01,9.89793e-01,4.13613e-02,9.99779e-01
7.961162960e-01,3.23399e-02,9.99999e-01,9.99999e-01,7.47173e-01,9.82143e-01,4.40473e-02,9.99788e-01
8.000968774e-01,3.91645e-02,9.99999e-01,9.99999e-01,8.53588e-01,9.79311e-01,4.68495e-02,9.99774e-01
8.040973618e-01,4.48829e-02,9.99999e-01,9.99999e-01,9.20846e-01,9.79328e-01,4.97694e-02,9.99820e-01
8.081178486e-01,4.85308e-02,9.99999e-01,9.99999e-01,9.62872e-01,9.54313e-01,5.28081e-02,9.99832e-01
8.121584379e-01,4.55858e-02,9.99999e-01,9.99999e-01,9.88330e-01,8.24248e-01,5.59668e-02,9.99341e-01
8.162192301e-01,4.68456e-02,9.99999e-01,9.99999e-01,9.97410e-01,7.94543e-01,5.92464e-02,9.97526e-01
8.203003262e-01,5.59153e-02,9.99999e-01,9.99999e-01,9.99958e-01,8.95150e-01,6.26476e-02,9.97104e-01
8.244018279e-01,5.65579e-02,9.99999e-01,9.99999e-01,9.99999e-01,8.56695e-01,6.61712e-02,9.97694e-01
8.285238370e-01,6.07222e-02,9.99999e-01,9.99999e-01,9.99999e-01,8.71306e-01,6.98174e-02,9.98188e-01
8.326664562e-01,6.39737e-02,9.99999e-01,9.99999e-01,9.99999e-01,8.70018e-01,7.35865e-02,9.99250e-01
8.368297885e-01,7.00725e-02,9.99999e-01,9.99999e-01,9.99999e-01,9.04565e-01,7.74786e-02,9.99828e-01
8.410139374e-01,7.67615e-02,9.99999e-01,9.99999e-01,9.99999e-01,9.42027e-01,8.14935e-02,9.99899e-01
8.452190071e-01,8.31500e-02,9.99999e-01,9.99999e-01,9.99999e-01,9.71084e-01,8.56310e-02,9.99939e-01
8.494451021e-01,8.83713e-02,9.99999e-01,9.99999e-01,9.99999e-01,9.83145e-01,8.98906e-02,9.99951e-01
8.536923276e-01,9.33243e-02,9.99999e-01,9.99999e-01,9.99999e-01,9.89981e-01,9.42716e-02,9.99967e-01
8.579607893e-01,9.81630e-02,9.99999e-01,9.99999e-01,9.99999e-01,9.93829e-01,9.87733e-02,9.99990e-01
8.622505932e-01,1.02988e-01,9.99999e-01,9.99999e-01,9.99999e-01,9.96070e-01,1.03395e-01,9.99998e-01
8.665618462e-01,9.15939e-02,9.99999e-01,9.99999e-01,8.48947e-01,9.97572e-01,1.08134e-01,9.99998e-01
8.708946554e-01,2.38450e-02,9.99999e-01,9.99999e-01,2.11555e-01,9.97224e-01,1.12991e-01,9.99997e-01
8.752491287e-01,3.11971e-02,9.99999e-01,9.99999e-01,2.65360e-01,9.96286e-01,1.17964e-01,9.99995e-01
8.796253743e-01,5.76691e-02,9.99999e-01,9.99999e-01,4.70817e-01,9.94870e-01,1.23051e-01,9.99988e-01
8.840235012e-01,8.53048e-02,9.99999e-01,9.99999e-01,6.68833e-01,9.94140e-01,1.28250e-01,9.99963e-01
8.884436187e-01,1.11440e-01,9.99999e-01,9.99999e-01,8.51512e-01,9.79098e-01,1.33560e-01,9.99897e-01
8.928858368e-01,1.04620e-01,9.99999e-01,9.99999e-01,9.36758e-01,8.02031e-01,1.38978e-01,9.99412e-01
8.973502660e-01,9.61688e-02,9.99999e-01,9.99999e-01,9.84192e-01,6.77311e-01,1.44503e-01,9.96991e-01
9.018370173e-01,1.22196e-01,9.99999e-01,9.99999e-01,9.98243e-01,8.19046e-01,1.50131e-01,9.95274e-01
9.063462024e-01,1.25523e-01,9.99999e-01,9.99999e-01,9.57980e-01,8.39316e-01,1.55861e-01,9.95847e-01
9.108779334e-01,1.11089e-01,9.99999e-01,9.99999e-01,9.02468e-01,7.60674e-01,1.61690e-01,9.95685e-01
9.154323231e-01,1.19492e-01,9.99999e-01,9.99999e-01,9.76049e-01,7.31415e-01,1.67615e-01,9.96432e-01
9.200094847e-01,1.07061e-01,9.99999e-01,9.99999e-01,7.57199e-01,7.83434e-01,1.73634e-01,9.98001e-01
9.246095321e-01,7.80583e-02,9.99999e-01,9.99999e-01,6.08472e-01,6.96894e-01,1.79744e-01,9.97697e-01
9.292325798e-01,1.57432e-02,9.99999e-01,9.99999e-01,6.86190e-01,1.13216e-01,1.85941e-01,9.91052e-01
9.338787427e-01,7.77406e-03,9.99999e-01,9.99999e-01,6.88960e-01,5.57505e-02,1.92224e-01,9.63527e-01
9.385481364e-01,4.64554e-02,9.99999e-01,9.99999e-01,7.57741e-01,3.07872e-01,1.98589e-01,9.56772e-01
9.432408771e-01,3.62355e-02,9.99999e-01,9.99999e-01,8.42186e-01,2.12175e-01,2.05032e-01,9.62594e-01
9.479570815e-01,2.14516e-02,9.99999e-01,9.99999e-01,9.15624e-01,1.12674e-01,2.11551e-01,9.69449e-01
9.526968669e-01,3.76647e-02,9.99999e-01,9.99999e-01,9.58410e-01,1.81822e-01,2.18142e-01,9.81253e-01
9.574603512e-01,4.28647e-02,9.99999e-01,9.99999e-01,9.81962e-01,1.95256e-01,2.24802e-01,9.90432e-01
9.622476530e-01,5.85919e-02,9.99999e-01,9.99999e-01,9.94333e-01,2.55886e-01,2.31528e-01,9.93374e-01
9.670588912e-01,1.06824e-01,9.99999e-01,9.99999e-01,9.98296e-01,4.50899e-01,2.38317e-01,9.95464e-01
9.718941857e-01,1.45559e-01,9.99999e-01,9.99999e-01,9.99878e-01,5.95760e-01,2.45165e-01,9.96658e-01
9.767536566e-01,1.63403e-01,9.99999e-01,9.99999e-01,9.99999e-01,6.49911e-01,2.52068e-01,9.97445e-01
9.816374249e-01,1.87485e-01,9.99999e-01,9.99999e-01,9.99999e-01,7.24455e-01,2.59023e-01,9.99115e-01
9.865456120e-01,2.17237e-01,9.99999e-01,9.99999e-01,9.99999e-01,8.16745e-01,2.66028e-01,9.99815e-01
9.914783401e-01,2.40849e-01,9.99999e-01,9.99999e-01,9.99999e-01,8.82025e-01,2.73078e-01,9.99948e-01
9.964357318e-01,2.61638e-01,9.99999e-01,9.99999e-01,9.99999e-01,9.33884e-01,2.80169e-01,9.99969e-01
1.001417910e+00,2.75736e-01,9.99999e-01,9.99999e-01,9.99999e-01,9.59792e-01,2.87300e-01,9.99953e-01
1.006425000e+00,2.87643e-01,9.99999e-01,9.99999e-01,9.99999e-01,9.76892e-01,2.94466e-01,9.99934e-01
1.011457125e+00,2.97295e-01,9.99999e-01,9.99999e-01,9.99999e-01,9.85577e-01,3.01663e-01,9.99939e-01
1.016514411e+00,3.05848e-01,9.99999e-01,9.99999e-01,9.99999e-01,9.90193e-01,3.08890e-01,9.99956e-01
1.021596983e+00,3.13587e-01,9.99999e-01,9.99999e-01,9.99777e-01,9.92181e-01,3.16141e-01,9.99956e-01
1.026704968e+00,3.15998e-01,9.99999e-01,9.99999e-01,9.83058e-01,9.93898e-01,3.23415e-01,9.99970e-01
1.031838492e+00,2.90110e-01,9.99999e-01,9.99999e-01,8.80911e-01,9.95557e-01,3.30707e-01,9.99991e-01
1.036997685e+00,1.06753e-02,9.99999e-01,9.99999e-01,3.16450e-02,9.97362e-01,3.38014e-01,9.99998e-01
1.042182673e+00,1.80665e-04,9.99999e-01,9.99999e-01,5.24350e-04,9.96861e-01,3.45334e-01,9.99998e-01
1.047393587e+00,5.39759e-04,9.99999e-01,9.99999e-01,1.53569e-03,9.95836e-01,3.52664e-01,9.99998e-01
1.052630555e+00,2.05738e-09,9.99999e-01,9.99999e-01,5.73512e-09,9.94294e-01,3.59999e-01,9.99998e-01
1.057893707e+00,7.60317e-09,9.99999e-01,9.99999e-01,2.07919e-08,9.90500e-01,3.67338e-01,9.99996e-01
1.063183176e+00,1.00114e-06,9.99999e-01,9.99999e-01,2.69454e-06,9.84411e-01,3.74677e-01,9.99991e-01
1.068499092e+00,1.87928e-05,9.99999e-01,9.99999e-01,4.99349e-05,9.74023e-01,3.82013e-01,9.99981e-01
1.073841587e+00,5.80065e-04,9.99999e-01,9.99999e-01,1.52029e-03,9.69746e-01,3.89344e-01,9.99960e-01
