#,Wave/freq,Total,N2,O2,CO2,H2O,Rayleigh,CIA
4.000000000e-01,4.50967e-08,9.99999e-01,9.99999e-01,9.99999e-01,9.99967e-01,4.50982e-08,9.99999e-01
4.020000000e-01,6.30084e-08,9.99999e-01,9.99999e-01,9.99999e-01,9.99979e-01,6.30097e-08,9.99999e-01
4.040100000e-01,8.74245e-08,9.99999e-01,9.99999e-01,9.99999e-01,9.99990e-01,8.74252e-08,9.99999e-01
4.060300500e-01,1.20519e-07,9.99999e-01,9.99999e-01,9.99999e-01,9.99997e-01,1.20519e-07,9.99999e-01
4.080602003e-01,1.65091e-07,9.99999e-01,9.99999e-01,9.99999e-01,9.99998e-01,1.65091e-07,9.99999e-01
4.101005013e-01,2.24745e-07,9.99999e-01,9.99999e-01,9.99999e-01,9.99999e-01,2.24745e-07,9.99999e-01
4.121510038e-01,3.04095e-07,9.99999e-01,9.99999e-01,9.99999e-01,9.99998e-01,3.04096e-07,9.99999e-01
4.142117588e-01,4.09009e-07,9.99999e-01,9.99999e-01,9.99999e-01,9.99990e-01,4.09013e-07,9.99999e-01
4.162828176e-01,5.46895e-07,9.99999e-01,9.99999e-01,9.99999e-01,9.99959e-01,5.46917e-07,9.99999e-01
4.183642317e-01,7.27114e-07,9.99999e-01,9.99999e-01,9.99999e-01,9.99975e-01,7.27131e-07,9.99999e-01
4.204560528e-01,9.61291e-07,9.99999e-01,9.99999e-01,9.99999e-01,9.99984e-01,9.61305e-07,9.99999e-01
4.225583331e-01,1.26390e-06,9.99999e-01,9.99999e-01,9.99999e-01,9.99994e-01,1.26391e-06,9.99999e-01
4.246711247e-01,1.65279e-06,9.99999e-01,9.99999e-01,9.99999e-01,9.99995e-01,1.65280e-06,9.99999e-01
4.267944804e-01,2.14992e-06,9.99999e-01,9.99999e-01,9.99999e-01,9.99993e-01,2.14993e-06,9.99999e-01
4.289284528e-01,2.78209e-06,9.99999e-01,9.99999e-01,9.99999e-01,9.99994e-01,2.78210e-06,9.99999e-01
4.310730950e-01,3.58187e-06,9.99999e-01,9.99999e-01,9.99999e-01,9.99997e-01,3.58188e-06,9.99999e-01
4.332284605e-01,4.58860e-06,9.99999e-01,9.99999e-01,9.99999e-01,9.99998e-01,4.58860e-06,9.99999e-01
4.353946028e-01,5.84959e-06,9.99999e-01,9.99999e-01,9.99999e-01,9.99999e-01,5.84959e-06,9.99999e-01
4.375715758e-01,7.42140e-06,9.99999e-01,9.99999e-01,9.99999e-01,9.99995e-01,7.42143e-06,9.99999e-01
4.397594337e-01,9.37115e-06,9.99999e-01,9.99999e-01,9.99999e-01,9.99964e-01,9.37148e-06,9.99999e-01
4.419582309e-01,1.17774e-05,9.99999e-01,9.99999e-01,9.99999e-01,9.99819e-01,1.17795e-05,9.99999e-01
4.441680220e-01,1.47375e-05,9.99999e-01,9.99999e-01,9.99999e-01,9.99859e-01,1.47396e-05,9.99999e-01
4.463888621e-01,1.83593e-05,9.99999e-01,9.99999e-01,9.99999e-01,9.99853e-01,1.83620e-05,9.99999e-01
4.486208064e-01,2.27735e-05,9.99999e-01,9.99999e-01,9.99999e-01,9.99908e-01,2.27755e-05,9.99999e-01
4.508639105e-01,2.81288e-05,9.99999e-01,9.99999e-01,9.99999e-01,9.99957e-01,2.81300e-05,9.99999e-01
4.531182300e-01,3.45982e-05,9.99999e-01,9.99999e-01,9.99999e-01,9.99982e-01,3.45987e-05,9.99999e-01
4.553838212e-01,4.23809e-05,9.99999e-01,9.99999e-01,9.99999e-01,9.99988e-01,4.23814e-05,9.99999e-01
4.576607403e-01,5.17067e-05,9.99999e-01,9.99999e-01,9.99999e-01,9.99994e-01,5.17070e-05,9.99999e-01
4.599490440e-01,6.28370e-05,9.99999e-01,9.99999e-01,9.99999e-01,9.99995e-01,6.28372e-05,9.99999e-01
4.622487892e-01,7.60698e-05,9.99999e-01,9.99999e-01,9.99999e-01,9.99998e-01,7.60699e-05,9.99999e-01
4.645600332e-01,9.17419e-05,9.99999e-01,9.99999e-01,9.99999e-01,9.99996e-01,9.17422e-05,9.99999e-01
4.668828333e-01,1.10230e-04,9.99999e-01,9.99999e-01,9.99999e-01,9.99956e-01,1.10235e-04,9.99999e-01
4.692172475e-01,1.31963e-04,9.99999e-01,9.99999e-01,9.99999e-01,9.99907e-01,1.31975e-04,9.99999e-01
4.715633337e-01,1.57433e-04,9.99999e-01,9.99999e-01,9.99999e-01,9.99939e-01,1.57443e-04,9.99999e-01
4.739211504e-01,1.87160e-04,9.99999e-01,9.99999e-01,9.99999e-01,9.99942e-01,1.87171e-04,9.99999e-01
4.762907561e-01,2.21747e-04,9.99999e-01,9.99999e-01,9.99999e-01,9.99969e-01,2.21754e-04,9.99999e-01
4.786722099e-01,2.61845e-04,9.99999e-01,9.99999e-01,9.99999e-01,9.99987e-01,2.61848e-04,9.99999e-01
4.810655710e-01,3.08177e-04,9.99999e-01,9.99999e-01,9.99999e-01,9.99995e-01,3.08178e-04,9.99999e-01
4.834708988e-01,3.61527e-04,9.99999e-01,9.99999e-01,9.99999e-01,9.99964e-01,3.61540e-04,9.99999e-01
4.858882533e-01,4.22779e-04,9.99999e-01,9.99999e-01,9.99999e-01,9.99934e-01,4.22806e-04,9.99999e-01
4.883176946e-01,4.92901e-04,9.99999e-01,9.99999e-01,9.99999e-01,9.99945e-01,4.92928e-04,9.99999e-01
4.907592831e-01,5.72912e-04,9.99999e-01,9.99999e-01,9.99999e-01,9.99950e-01,5.72940e-04,9.99999e-01
4.932130795e-01,6.63941e-04,9.99999e-01,9.99999e-01,9.99999e-01,9.99964e-01,6.63964e-04,9.99999e-01
4.956791449e-01,7.67197e-04,9.99999e-01,9.99999e-01,9.99999e-01,9.99981e-01,7.67211e-04,9.99999e-01
4.981575406e-01,8.83905e-04,9.99999e-01,9.99999e-01,9.99999e-01,9.99907e-01,8.83986e-04,9.99999e-01
5.006483283e-01,1.01545e-03,9.99999e-01,9.99999e-01,9.99999e-01,9.99760e-01,1.01569e-03,9.99997e-01
5.031515699e-01,1.16239e-03,9.99999e-01,9.99999e-01,9.99999e-01,9.98789e-01,1.16382e-03,9.99986e-01
5.056673278e-01,1.32910e-03,9.99999e-01,9.99999e-01,9.99999e-01,9.99361e-01,1.32997e-03,9.99984e-01
5.081956644e-01,1.51460e-03,9.99999e-01,9.99999e-01,9.99999e-01,9.99194e-01,1.51584e-03,9.99990e-01
5.107366428e-01,1.72228e-03,9.99999e-01,9.99999e-01,9.99999e-01,9.99455e-01,1.72322e-03,9.99997e-01
5.132903260e-01,1.95342e-03,9.99999e-01,9.99999e-01,9.99999e-01,9.99688e-01,1.95403e-03,9.99999e-01
5.158567776e-01,2.20996e-03,9.99999e-01,9.99999e-01,9.99999e-01,9.99868e-01,2.21025e-03,9.99999e-01
5.184360615e-01,2.49386e-03,9.99999e-01,9.99999e-01,9.99999e-01,9.99946e-01,2.49399e-03,9.99999e-01
5.210282418e-01,2.80740e-03,9.99999e-01,9.99999e-01,9.99999e-01,9.99979e-01,2.80745e-03,9.99999e-01
5.236333830e-01,3.15268e-03,9.99999e-01,9.99999e-01,9.99999e-01,9.99920e-01,3.15293e-03,9.99998e-01
5.262515499e-01,3.53264e-03,9.99999e-01,9.99999e-01,9.99999e-01,9.99950e-01,3.53282e-03,9.99998e-01
5.288828077e-01,3.94941e-03,9.99999e-01,9.99999e-01,9.99999e-01,9.99954e-01,3.94959e-03,9.99999e-01
5.315272217e-01,4.40564e-03,9.99999e-01,9.99999e-01,9.99999e-01,9.99959e-01,4.40581e-03,9.99999e-01
5.341848578e-01,4.90401e-03,9.99999e-01,9.99999e-01,9.99999e-01,9.99973e-01,4.90413e-03,9.99999e-01
5.368557821e-01,5.44678e-03,9.99999e-01,9.99999e-01,9.99999e-01,9.99907e-01,5.44728e-03,9.99999e-01
5.395400610e-01,6.03602e-03,9.99999e-01,9.99999e-01,9.99999e-01,9.99668e-01,6.03803e-03,9.99996e-01
5.422377613e-01,6.67635e-03,9.99999e-01,9.99999e-01,9.99999e-01,9.99571e-01,6.67926e-03,9.99991e-01
5.449489501e-01,7.37087e-03,9.99999e-01,9.99999e-01,9.99999e-01,9.99601e-01,7.37387e-03,9.99991e-01
5.476736949e-01,8.12192e-03,9.99999e-01,9.99999e-01,9.99999e-01,9.99646e-01,8.12482e-03,9.99995e-01
5.504120634e-01,8.93282e-03,9.99999e-01,9.99999e-01,9.99999e-01,9.99743e-01,8.93511e-03,9.99998e-01
5.531641237e-01,9.80652e-03,9.99999e-01,9.99999e-01,9.99999e-01,9.99870e-01,9.80778e-03,9.99999e-01
5.559299443e-01,1.07452e-02,9.99999e-01,9.99999e-01,9.99999e-01,9.99937e-01,1.07459e-02,9.99999e-01
5.587095940e-01,1.17520e-02,9.99999e-01,9.99999e-01,9.99999e-01,9.99960e-01,1.17525e-02,9.99999e-01
5.615031420e-01,1.28301e-02,9.99999e-01,9.99999e-01,9.99999e-01,9.99956e-01,1.28307e-02,9.99999e-01
5.643106577e-01,1.39828e-02,9.99999e-01,9.99999e-01,9.99999e-01,9.99950e-01,1.39835e-02,9.99999e-01
5.671322110e-01,1.52049e-02,9.99999e-01,9.99999e-01,9.99999e-01,9.99401e-01,1.52141e-02,9.99994e-01
5.699678720e-01,1.65146e-02,9.99999e-01,9.99999e-01,9.99999e-01,9.99363e-01,1.65253e-02,9.99983e-01
5.728177114e-01,1.79082e-02,9.99999e-01,9.99999e-01,9.99999e-01,9.99337e-01,1.79203e-02,9.99985e-01
5.756818000e-01,1.93901e-02,9.99999e-01,9.99999e-01,9.99999e-01,9.99391e-01,1.94020e-02,9.99991e-01
5.785602090e-01,2.09621e-02,9.99999e-01,9.99999e-01,9.99999e-01,9.99469e-01,2.09733e-02,9.99997e-01
5.814530100e-01,2.26249e-02,9.99999e-01,9.99999e-01,9.99999e-01,9.99467e-01,2.26369e-02,9.99998e-01
5.843602750e-01,2.43802e-02,9.99999e-01,9.99999e-01,9.99999e-01,9.99365e-01,2.43957e-02,9.99995e-01
5.872820764e-01,2.61081e-02,9.99999e-01,9.99999e-01,9.99999e-01,9.94540e-01,2.62524e-02,9.99961e-01
5.902184868e-01,2.80199e-02,9.99999e-01,9.99999e-01,9.99999e-01,9.93384e-01,2.82094e-02,9.99894e-01
5.931695792e-01,3.01248e-02,9.99999e-01,9.99999e-01,9.99999e-01,9.95324e-01,3.02693e-02,9.99898e-01
5.961354271e-01,3.22663e-02,9.99999e-01,9.99999e-01,9.99999e-01,9.94874e-01,3.24344e-02,9.99941e-01
5.991161043e-01,3.45766e-02,9.99999e-01,9.99999e-01,9.99999e-01,9.96259e-01,3.47070e-02,9.99981e-01
6.021116848e-01,3.70104e-02,9.99999e-01,9.99999e-01,9.99999e-01,9.97876e-01,3.70892e-02,9.99997e-01
6.051222432e-01,3.95405e-02,9.99999e-01,9.99999e-01,9.99999e-01,9.98924e-01,3.95830e-02,9.99999e-01
6.081478544e-01,4.21706e-02,9.99999e-01,9.99999e-01,9.99999e-01,9.99535e-01,4.21902e-02,9.99999e-01
6.111885937e-01,4.49037e-02,9.99999e-01,9.99999e-01,9.99999e-01,9.99803e-01,4.49125e-02,9.99999e-01
6.142445367e-01,4.77472e-02,9.99999e-01,9.99999e-01,9.99999e-01,9.99911e-01,4.77514e-02,9.99999e-01
6.173157594e-01,5.07059e-02,9.99999e-01,9.99999e-01,9.99999e-01,9.99951e-01,5.07083e-02,9.99999e-01
6.204023382e-01,5.37823e-02,9.99999e-01,9.99999e-01,9.99999e-01,9.99958e-01,5.37845e-02,9.99999e-01
6.235043498e-01,5.69707e-02,9.99999e-01,9.99999e-01,9.99999e-01,9.99819e-01,5.69810e-02,9.99999e-01
6.266218716e-01,6.02407e-02,9.99999e-01,9.99999e-01,9.99999e-01,9.99046e-01,6.02986e-02,9.99992e-01
6.297549810e-01,6.37150e-02,9.99999e-01,9.99999e-01,9.99999e-01,9.99650e-01,6.37381e-02,9.99986e-01
6.329037559e-01,6.72528e-02,9.99999e-01,9.99999e-01,9.99999e-01,9.99308e-01,6.73000e-02,9.99988e-01
6.360682746e-01,7.09425e-02,9.99999e-01,9.99999e-01,9.99999e-01,9.99411e-01,7.09847e-02,9.99993e-01
6.392486160e-01,7.47351e-02,9.99999e-01,9.99999e-01,9.99999e-01,9.99237e-01,7.47924e-02,9.99996e-01
6.424448591e-01,7.86423e-02,9.99999e-01,9.99999e-01,9.99999e-01,9.98979e-01,7.87230e-02,9.99995e-01
6.456570834e-01,8.23826e-02,9.99999e-01,9.99999e-01,9.99999e-01,9.95268e-01,8.27763e-02,9.99973e-01
6.488853688e-01,8.66443e-02,9.99999e-01,9.99999e-01,9.99999e-01,9.96533e-01,8.69521e-02,9.99926e-01
6.521297956e-01,9.09219e-02,9.99999e-01,9.99999e-01,9.99999e-01,9.96466e-01,9.12498e-02,9.99938e-01
6.553904446e-01,9.53280e-02,9.99999e-01,9.99999e-01,9.99999e-01,9.96483e-01,9.56687e-02,9.99954e-01
6.586673968e-01,9.99046e-02,9.99999e-01,9.99999e-01,9.99999e-01,9.96986e-01,1.00208e-01,9.99984e-01
6.619607338e-01,1.04684e-01,9.99999e-01,9.99999e-01,9.99999e-01,9.98257e-01,1.04867e-01,9.99996e-01
6.652705375e-01,1.09533e-01,9.99999e-01,9.99999e-01,9.99999e-01,9.98991e-01,1.09643e-01,9.99997e-01
6.685968902e-01,1.14483e-01,9.99999e-01,9.99999e-01,9.99999e-01,9.99531e-01,1.14537e-01,9.99999e-01
6.719398746e-01,1.19519e-01,9.99999e-01,9.99999e-01,9.99999e-01,9.99782e-01,1.19545e-01,9.99999e-01
6.752995740e-01,1.24653e-01,9.99999e-01,9.99999e-01,9.99999e-01,9.99881e-01,1.24668e-01,9.99999e-01
6.786760719e-01,1.29880e-01,9.99999e-01,9.99999e-01,9.99999e-01,9.99829e-01,1.29902e-01,9.99999e-01
6.820694522e-01,1.35206e-01,9.99999e-01,9.99999e-01,9.99999e-01,9.99708e-01,1.35246e-01,9.99997e-01
6.854797995e-01,1.40644e-01,9.99999e-01,9.99999e-01,9.99999e-01,9.99624e-01,1.40697e-01,9.99996e-01
6.889071985e-01,1.46121e-01,9.99999e-01,9.99999e-01,9.99999e-01,9.99092e-01,1.46254e-01,9.99991e-01
6.923517345e-01,1.49665e-01,9.99999e-01,9.99999e-01,9.99999e-01,9.85260e-01,1.51915e-01,9.99928e-01
6.958134932e-01,1.56439e-01,9.99999e-01,9.99999e-01,9.99999e-01,9.92307e-01,1.57676e-01,9.99842e-01
6.992925606e-01,1.62317e-01,9.99999e-01,9.99999e-01,9.99999e-01,9.92692e-01,1.63535e-01,9.99857e-01
7.027890234e-01,1.67944e-01,9.99999e-01,9.99999e-01,9.99999e-01,9.90981e-01,1.69490e-01,9.99891e-01
7.063029686e-01,1.74197e-01,9.99999e-01,9.99999e-01,9.99999e-01,9.92413e-01,1.75538e-01,9.99945e-01
7.098344834e-01,1.80347e-01,9.99999e-01,9.99999e-01,9.99999e-01,9.92719e-01,1.81676e-01,9.99967e-01
7.133836558e-01,1.86068e-01,9.99999e-01,9.99999e-01,9.99999e-01,9.90312e-01,1.87900e-01,9.99936e-01
7.169505741e-01,1.79507e-01,9.99999e-01,9.99999e-01,9.99999e-01,9.24758e-01,1.94209e-01,9.99501e-01
7.205353270e-01,1.92889e-01,9.99999e-01,9.99999e-01,9.99999e-01,9.62410e-01,2.00598e-01,9.99121e-01
7.241380036e-01,1.97080e-01,9.99999e-01,9.99999e-01,9.99999e-01,9.52496e-01,2.07066e-01,9.99240e-01
7.277586936e-01,2.04303e-01,9.99999e-01,9.99999e-01,9.99999e-01,9.57035e-01,2.13608e-01,9.99379e-01
7.313974871e-01,2.10104e-01,9.99999e-01,9.99999e-01,9.99999e-01,9.54338e-01,2.20221e-01,9.99709e-01
7.350544745e-01,2.21161e-01,9.99999e-01,9.99999e-01,9.99999e-01,9.74797e-01,2.26902e-01,9.99898e-01
7.387297469e-01,2.29290e-01,9.99999e-01,9.99999e-01,9.99999e-01,9.81390e-01,2.33648e-01,9.99953e-01
7.424233956e-01,2.38254e-01,9.99999e-01,9.99999e-01,9.99999e-01,9.90853e-01,2.40456e-01,9.99990e-01
7.461355126e-01,2.45948e-01,9.99999e-01,9.99999e-01,9.99999e-01,9.94448e-01,2.47321e-01,9.99997e-01
7.498661902e-01,2.53583e-01,9.99999e-01,9.99999e-01,9.99999e-01,9.97411e-01,2.54241e-01,9.99998e-01
7.536155211e-01,2.60880e-01,9.99999e-01,9.99999e-01,9.99999e-01,9.98729e-01,2.61212e-01,9.99999e-01
7.573835987e-01,2.68056e-01,9.99999e-01,9.99999e-01,9.99999e-01,9.99345e-01,2.68231e-01,9.99999e-01
7.611705167e-01,2.75183e-01,9.99999e-01,9.99999e-01,9.99999e-01,9.99593e-01,2.75295e-01,9.99999e-01
7.649763693e-01,2.82327e-01,9.99999e-01,9.99999e-01,9.99999e-01,9.99744e-01,2.82399e-01,9.99999e-01
7.688012511e-01,2.89490e-01,9.99999e-01,9.99999e-01,9.99999e-01,9.99822e-01,2.89541e-01,9.99999e-01
7.726452574e-01,2.96674e-01,9.99999e-01,9.99999e-01,9.99999e-01,9.99853e-01,2.96717e-01,9.99999e-01
7.765084837e-01,3.03861e-01,9.99999e-01,9.99999e-01,9.99999e-01,9.99792e-01,3.03924e-01,9.99999e-01
7.803910261e-01,2.95097e-01,9.99999e-01,9.99999e-01,9.49191e-01,9.99104e-01,3.11158e-01,9.99998e-01
7.842929812e-01,2.50191e-01,9.99999e-01,9.99999e-01,7.88021e-01,9.96876e-01,3.18417e-01,9.99993e-01
7.882144461e-01,2.51095e-01,9.99999e-01,9.99999e-01,7.75666e-01,9.93570e-01,3.25697e-01,9.99960e-01
7.921555184e-01,2.85429e-01,9.99999e-01,9.99999e-01,8.60149e-01,9.96469e-01,3.32994e-01,9.99923e-01
7.961162960e-01,3.05643e-01,9.99999e-01,9.99999e-01,9.03755e-01,9.93770e-01,3.40306e-01,9.99926e-01
8.000968774e-01,3.26686e-01,9.99999e-01,9.99999e-01,9.46607e-01,9.92804e-01,3.47629e-01,9.99921e-01
8.040973618e-01,3.42513e-01,9.99999e-01,9.99999e-01,9.71962e-01,9.92803e-01,3.54961e-01,9.99937e-01
8.081178486e-01,3.51816e-01,9.99999e-01,9.99999e-01,9.87029e-01,9.83851e-01,3.62298e-01,9.99941e-01
8.121584379e-01,3.43948e-01,9.99999e-01,9.99999e-01,9.95977e-01,9.34413e-01,3.69637e-01,9.99772e-01
8.162192301e-01,3.47206e-01,9.99999e-01,9.99999e-01,9.99110e-01,9.22616e-01,3.76975e-01,9.99144e-01
8.203003262e-01,3.68893e-01,9.99999e-01,9.99999e-01,9.99986e-01,9.60856e-01,3.84310e-01,9.98998e-01
8.244018279e-01,3.70099e-01,9.99999e-01,9.99999e-01,9.99999e-01,9.45754e-01,3.91638e-01,9.99203e-01
8.285238370e-01,3.79992e-01,9.99999e-01,9.99999e-01,9.99999e-01,9.53059e-01,3.98957e-01,9.99373e-01
8.326664562e-01,3.86895e-01,9.99999e-01,9.99999e-01,9.99999e-01,9.52567e-01,4.06265e-01,9.99740e-01
8.368297885e-01,3.99416e-01,9.99999e-01,9.99999e-01,9.99999e-01,9.65861e-01,4.13558e-01,9.99940e-01
8.410139374e-01,4.12225e-01,9.99999e-01,9.99999e-01,9.99999e-01,9.79576e-01,4.20834e-01,9.99964e-01
8.452190071e-01,4.23773e-01,9.99999e-01,9.99999e-01,9.99999e-01,9.89934e-01,4.28090e-01,9.99978e-01
8.494451021e-01,4.32771e-01,9.99999e-01,9.99999e-01,9.99999e-01,9.94150e-01,4.35325e-01,9.99982e-01
8.536923276e-01,4.40998e-01,9.99999e-01,9.99999e-01,9.99999e-01,9.96536e-01,4.42535e-01,9.99989e-01
8.579607893e-01,4.48758e-01,9.99999e-01,9.99999e-01,9.99999e-01,9.97866e-01,4.49719e-01,9.99997e-01
8.622505932e-01,4.56254e-01,9.99999e-01,9.99999e-01,9.99999e-01,9.98643e-01,4.56874e-01,9.99999e-01
8.665618462e-01,4.18806e-01,9.99999e-01,9.99999e-01,9.03321e-01,9.99161e-01,4.63998e-01,9.99999e-01
8.708946554e-01,2.58907e-01,9.99999e-01,9.99999e-01,5.50092e-01,9.99039e-01,4.71089e-01,9.99998e-01
8.752491287e-01,2.93419e-01,9.99999e-01,9.99999e-01,6.14416e-01,9.98715e-01,4.78146e-01,9.99998e-01
8.796253743e-01,3.69679e-01,9.99999e-01,9.99999e-01,7.63263e-01,9.98221e-01,4.85165e-01,9.99995e-01
8.840235012e-01,4.26626e-01,9.99999e-01,9.99999e-01,8.68601e-01,9.97968e-01,4.92146e-01,9.99987e-01
8.884436187e-01,4.68636e-01,9.99999e-01,9.99999e-01,9.45899e-01,9.92615e-01,4.99087e-01,9.99964e-01
8.928858368e-01,4.57607e-01,9.99999e-01,9.99999e-01,9.77711e-01,9.24906e-01,5.05985e-01,9.99796e-01
8.973502660e-01,4.43896e-01,9.99999e-01,9.99999e-01,9.94542e-01,8.71068e-01,5.12840e-01,9.98959e-01
9.018370173e-01,4.83224e-01,9.99999e-01,9.99999e-01,9.99397e-01,9.31960e-01,5.19649e-01,9.98365e-01
9.063462024e-01,4.86857e-01,9.99999e-01,9.99999e-01,9.84710e-01,9.39855e-01,5.26412e-01,9.98563e-01
9.108779334e-01,4.66689e-01,9.99999e-01,9.99999e-01,9.65075e-01,9.07795e-01,5.33127e-01,9.98507e-01
9.154323231e-01,4.79097e-01,9.99999e-01,9.99999e-01,9.91691e-01,8.95849e-01,5.39792e-01,9.98766e-01
9.200094847e-01,4.48889e-01,9.99999e-01,9.99999e-01,8.89964e-01,9.17522e-01,5.46406e-01,9.99309e-01
9.246095321e-01,4.08367e-01,9.99999e-01,9.99999e-01,8.40561e-01,8.75269e-01,5.52968e-01,9.99204e-01
9.292325798e-01,2.06933e-01,9.99999e-01,9.99999e-01,8.73418e-01,4.16405e-01,5.59477e-01,9.96900e-01
9.338787427e-01,1.61831e-01,9.99999e-01,9.99999e-01,8.76929e-01,3.24054e-01,5.65932e-01,9.87251e-01
9.385481364e-01,3.26806e-01,9.99999e-01,9.99999e-01,9.07790e-01,6.33463e-01,5.72332e-01,9.84856e-01
9.432408771e-01,2.89417e-01,9.99999e-01,9.99999e-01,9.42410e-01,5.35197e-01,5.78675e-01,9.86921e-01
9.479570815e-01,2.39021e-01,9.99999e-01,9.99999e-01,9.70023e-01,4.24777e-01,5.84962e-01,9.89342e-01
9.526968669e-01,3.02071e-01,9.99999e-01,9.99999e-01,9.85438e-01,5.20958e-01,5.91190e-01,9.93485e-01
9.574603512e-01,3.21452e-01,9.99999e-01,9.99999e-01,9.93746e-01,5.42965e-01,5.97360e-01,9.96685e-01
9.622476530e-01,3.64488e-01,9.99999e-01,9.99999e-01,9.98045e-01,6.06451e-01,6.03470e-01,9.97706e-01
9.670588912e-01,4.55512e-01,9.99999e-01,9.99999e-01,9.99413e-01,7.48907e-01,6.09521e-01,9.98431e-01
9.718941857e-01,5.12420e-01,9.99999e-01,9.99999e-01,9.99958e-01,8.33505e-01,6.15511e-01,9.98844e-01
9.767536566e-01,5.33740e-01,9.99999e-01,9.99999e-01,9.99999e-01,8.59636e-01,6.21439e-01,9.99116e-01
9.816374249e-01,5.60537e-01,9.99999e-01,9.99999e-01,9.99999e-01,8.93835e-01,6.27306e-01,9.99694e-01
9.865456120e-01,5.90171e-01,9.99999e-01,9.99999e-01,9.99999e-01,9.32235e-01,6.33111e-01,9.99935e-01
9.914783401e-01,6.11715e-01,9.99999e-01,9.99999e-01,9.99999e-01,9.57537e-01,6.38853e-01,9.99981e-01
9.964357318e-01,6.29476e-01,9.99999e-01,9.99999e-01,9.99999e-01,9.76649e-01,6.44533e-01,9.99989e-01
1.001417910e+00,6.40998e-01,9.99999e-01,9.99999e-01,9.99999e-01,9.85939e-01,6.50149e-01,9.99983e-01
1.006425000e+00,6.50417e-01,9.99999e-01,9.99999e-01,9.99999e-01,9.91962e-01,6.55702e-01,9.99977e-01
1.011457125e+00,6.57874e-01,9.99999e-01,9.99999e-01,9.99999e-01,9.95004e-01,6.61191e-01,9.99978e-01
1.016514411e+00,6.64344e-01,9.99999e-01,9.99999e-01,9.99999e-01,9.96606e-01,6.66616e-01,9.99984e-01
1.021596983e+00,6.70095e-01,9.99999e-01,9.99999e-01,9.99918e-01,9.97294e-01,6.71977e-01,9.99984e-01
1.026704968e+00,6.71783e-01,9.99999e-01,9.99999e-01,9.93993e-01,9.97889e-01,6.77274e-01,9.99989e-01
1.031838492e+00,6.39961e-01,9.99999e-01,9.99999e-01,9.39046e-01,9.98465e-01,6.82508e-01,9.99996e-01
1.036997685e+00,6.79969e-02,9.99999e-01,9.99999e-01,9.89487e-02,9.99088e-01,6.87677e-01,9.99999e-01
1.042182673e+00,2.70038e-02,9.99999e-01,9.99999e-01,3.90145e-02,9.98913e-01,6.92782e-01,9.99999e-01
1.047393587e+00,4.26269e-02,9.99999e-01,9.99999e-01,6.11617e-02,9.98559e-01,6.97823e-01,9.99999e-01
1.052630555e+00,2.11963e-04,9.99999e-01,9.99999e-01,3.02009e-04,9.98023e-01,7.02799e-01,9.99998e-01
1.057893707e+00,6.76916e-04,9.99999e-01,9.99999e-01,9.58397e-04,9.96702e-01,7.07712e-01,9.99998e-01
1.063183176e+00,4.02682e-03,9.99999e-01,9.99999e-01,5.67134e-03,9.94578e-01,7.12562e-01,9.99996e-01
1.068499092e+00,1.74198e-02,9.99999e-01,9.99999e-01,2.44564e-02,9.90935e-01,7.17348e-01,9.99993e-01
1.073841587e+00,6.77717e-02,9.99999e-01,9.99999e-01,9.46650e-02,9.89401e-01,7.22070e-01,9.99986e-01
