#,Wave/freq,Total,N2,O2,CO2,H2O,Rayleigh,CIA
4.000000000e-01,2.12337e-03,9.99999e-01,9.99999e-01,9.99999e-01,9.99987e-01,2.12339e-03,9.99999e-01
4.020000000e-01,2.39816e-03,9.99999e-01,9.99999e-01,9.99999e-01,9.99992e-01,2.39818e-03,9.99999e-01
4.040100000e-01,2.70168e-03,9.99999e-01,9.99999e-01,9.99999e-01,9.99996e-01,2.70169e-03,9.99999e-01
4.060300500e-01,3.03645e-03,9.99999e-01,9.99999e-01,9.99999e-01,9.99998e-01,3.03646e-03,9.99999e-01
4.080602003e-01,3.40484e-03,9.99999e-01,9.99999e-01,9.99999e-01,9.99999e-01,3.40484e-03,9.99999e-01
4.101005013e-01,3.80929e-03,9.99999e-01,9.99999e-01,9.99999e-01,9.99999e-01,3.80929e-03,9.99999e-01
4.121510038e-01,4.25234e-03,9.99999e-01,9.99999e-01,9.99999e-01,9.99999e-01,4.25234e-03,9.99999e-01
4.142117588e-01,4.73660e-03,9.99999e-01,9.99999e-01,9.99999e-01,9.99996e-01,4.73662e-03,9.99999e-01
4.162828176e-01,5.26475e-03,9.99999e-01,9.99999e-01,9.99999e-01,9.99984e-01,5.26482e-03,9.99999e-01
4.183642317e-01,5.83967e-03,9.99999e-01,9.99999e-01,9.99999e-01,9.99990e-01,5.83972e-03,9.99999e-01
4.204560528e-01,6.46412e-03,9.99999e-01,9.99999e-01,9.99999e-01,9.99994e-01,6.46415e-03,9.99999e-01
4.225583331e-01,7.14099e-03,9.99999e-01,9.99999e-01,9.99999e-01,9.99997e-01,7.14100e-03,9.99999e-01
4.246711247e-01,7.87321e-03,9.99999e-01,9.99999e-01,9.99999e-01,9.99997e-01,7.87323e-03,9.99999e-01
4.267944804e-01,8.66379e-03,9.99999e-01,9.99999e-01,9.99999e-01,9.99997e-01,8.66381e-03,9.99999e-01
4.289284528e-01,9.51576e-03,9.99999e-01,9.99999e-01,9.99999e-01,9.99997e-01,9.51578e-03,9.99999e-01
4.310730950e-01,1.04322e-02,9.99999e-01,9.99999e-01,9.99999e-01,9.99998e-01,1.04322e-02,9.99999e-01
4.332284605e-01,1.14161e-02,9.99999e-01,9.99999e-01,9.99999e-01,9.99999e-01,1.14161e-02,9.99999e-01
4.353946028e-01,1.24706e-02,9.99999e-01,9.99999e-01,9.99999e-01,9.99999e-01,1.24706e-02,9.99999e-01
4.375715758e-01,1.35987e-02,9.99999e-01,9.99999e-01,9.99999e-01,9.99998e-01,1.35987e-02,9.99999e-01
4.397594337e-01,1.48033e-02,9.99999e-01,9.99999e-01,9.99999e-01,9.99986e-01,1.48035e-02,9.99999e-01
4.419582309e-01,1.60870e-02,9.99999e-01,9.99999e-01,9.99999e-01,9.99933e-01,1.60881e-02,9.99999e-01
4.441680220e-01,1.74546e-02,9.99999e-01,9.99999e-01,9.99999e-01,9.99948e-01,1.74554e-02,9.99999e-01
4.463888621e-01,1.89075e-02,9.99999e-01,9.99999e-01,9.99999e-01,9.99946e-01,1.89085e-02,9.99999e-01
4.486208064e-01,2.04495e-02,9.99999e-01,9.99999e-01,9.99999e-01,9.99966e-01,2.04502e-02,9.99999e-01
4.508639105e-01,2.20830e-02,9.99999e-01,9.99999e-01,9.99999e-01,9.99984e-01,2.20834e-02,9.99999e-01
4.531182300e-01,2.38107e-02,9.99999e-01,9.99999e-01,9.99999e-01,9.99993e-01,2.38108e-02,9.99999e-01
4.553838212e-01,2.56351e-02,9.99999e-01,9.99999e-01,9.99999e-01,9.99995e-01,2.56352e-02,9.99999e-01
4.576607403e-01,2.75591e-02,9.99999e-01,9.99999e-01,9.99999e-01,9.99997e-01,2.75592e-02,9.99999e-01
4.599490440e-01,2.95852e-02,9.99999e-01,9.99999e-01,9.99999e-01,9.99998e-01,2.95852e-02,9.99999e-01
4.622487892e-01,3.17157e-02,9.99999e-01,9.99999e-01,9.99999e-01,9.99999e-01,3.17157e-02,9.99999e-01
4.645600332e-01,3.39530e-02,9.99999e-01,9.99999e-01,9.99999e-01,9.99998e-01,3.39530e-02,9.99999e-01
4.668828333e-01,3.62986e-02,9.99999e-01,9.99999e-01,9.99999e-01,9.99983e-01,3.62992e-02,9.99999e-01
4.692172475e-01,3.87550e-02,9.99999e-01,9.99999e-01,9.99999e-01,9.99966e-01,3.87563e-02,9.99999e-01
4.715633337e-01,4.13254e-02,9.99999e-01,9.99999e-01,9.99999e-01,9.99977e-01,4.13263e-02,9.99999e-01
4.739211504e-01,4.40099e-02,9.99999e-01,9.99999e-01,9.99999e-01,9.99978e-01,4.40108e-02,9.99999e-01
4.762907561e-01,4.68110e-02,9.99999e-01,9.99999e-01,9.99999e-01,9.99988e-01,4.68115e-02,9.99999e-01
4.786722099e-01,4.97295e-02,9.99999e-01,9.99999e-01,9.99999e-01,9.99995e-01,4.97297e-02,9.99999e-01
4.810655710e-01,5.27668e-02,9.99999e-01,9.99999e-01,9.99999e-01,9.99998e-01,5.27669e-02,9.99999e-01
4.834708988e-01,5.59232e-02,9.99999e-01,9.99999e-01,9.99999e-01,9.99986e-01,5.59239e-02,9.99999e-01
4.858882533e-01,5.92005e-02,9.99999e-01,9.99999e-01,9.99999e-01,9.99975e-01,5.92019e-02,9.99999e-01
4.883176946e-01,6.26003e-02,9.99999e-01,9.99999e-01,9.99999e-01,9.99979e-01,6.26016e-02,9.99999e-01
4.907592831e-01,6.61223e-02,9.99999e-01,9.99999e-01,9.99999e-01,9.99981e-01,6.61235e-02,9.99999e-01
4.932130795e-01,6.97672e-02,9.99999e-01,9.99999e-01,9.99999e-01,9.99986e-01,6.97680e-02,9.99999e-01
4.956791449e-01,7.35350e-02,9.99999e-01,9.99999e-01,9.99999e-01,9.99992e-01,7.35355e-02,9.99999e-01
4.981575406e-01,7.74234e-02,9.99999e-01,9.99999e-01,9.99999e-01,9.99965e-01,7.74260e-02,9.99999e-01
5.006483283e-01,8.14321e-02,9.99999e-01,9.99999e-01,9.99999e-01,9.99911e-01,8.14393e-02,9.99998e-01
5.031515699e-01,8.55370e-02,9.99999e-01,9.99999e-01,9.99999e-01,9.99558e-01,8.55751e-02,9.99994e-01
5.056673278e-01,8.98118e-02,9.99999e-01,9.99999e-01,9.99999e-01,9.99767e-01,8.98331e-02,9.99994e-01
5.081956644e-01,9.41846e-02,9.99999e-01,9.99999e-01,9.99999e-01,9.99706e-01,9.42125e-02,9.99996e-01
5.107366428e-01,9.86930e-02,9.99999e-01,9.99999e-01,9.99999e-01,9.99802e-01,9.87126e-02,9.99998e-01
5.132903260e-01,1.03321e-01,9.99999e-01,9.99999e-01,9.99999e-01,9.99886e-01,1.03332e-01,9.99999e-01
5.158567776e-01,1.08065e-01,9.99999e-01,9.99999e-01,9.99999e-01,9.99951e-01,1.08071e-01,9.99999e-01
5.184360615e-01,1.12924e-01,9.99999e-01,9.99999e-01,9.99999e-01,9.99980e-01,1.12926e-01,9.99999e-01
5.210282418e-01,1.17896e-01,9.99999e-01,9.99999e-01,9.99999e-01,9.99992e-01,1.17897e-01,9.99999e-01
5.236333830e-01,1.22979e-01,9.99999e-01,9.99999e-01,9.99999e-01,9.99970e-01,1.22983e-01,9.99999e-01
5.262515499e-01,1.28178e-01,9.99999e-01,9.99999e-01,9.99999e-01,9.99981e-01,1.28180e-01,9.99999e-01
5.288828077e-01,1.33486e-01,9.99999e-01,9.99999e-01,9.99999e-01,9.99982e-01,1.33489e-01,9.99999e-01
5.315272217e-01,1.38903e-01,9.99999e-01,9.99999e-01,9.99999e-01,9.99985e-01,1.38905e-01,9.99999e-01
5.341848578e-01,1.44427e-01,9.99999e-01,9.99999e-01,9.99999e-01,9.99989e-01,1.44428e-01,9.99999e-01
5.368557821e-01,1.50050e-01,9.99999e-01,9.99999e-01,9.99999e-01,9.99965e-01,1.50055e-01,9.99999e-01
5.395400610e-01,1.55765e-01,9.99999e-01,9.99999e-01,9.99999e-01,9.99877e-01,1.55784e-01,9.99998e-01
5.422377613e-01,1.61586e-01,9.99999e-01,9.99999e-01,9.99999e-01,9.99844e-01,1.61611e-01,9.99996e-01
5.449489501e-01,1.67511e-01,9.99999e-01,9.99999e-01,9.99999e-01,9.99854e-01,1.67535e-01,9.99996e-01
5.476736949e-01,1.73531e-01,9.99999e-01,9.99999e-01,9.99999e-01,9.99871e-01,1.73553e-01,9.99998e-01
5.504120634e-01,1.79645e-01,9.99999e-01,9.99999e-01,9.99999e-01,9.99906e-01,1.79662e-01,9.99999e-01
5.531641237e-01,1.85850e-01,9.99999e-01,9.99999e-01,9.99999e-01,9.99952e-01,1.85858e-01,9.99999e-01
5.559299443e-01,1.92136e-01,9.99999e-01,9.99999e-01,9.99999e-01,9.99976e-01,1.92140e-01,9.99999e-01
5.587095940e-01,1.98500e-01,9.99999e-01,9.99999e-01,9.99999e-01,9.99985e-01,1.98503e-01,9.99999e-01
5.615031420e-01,2.04942e-01,9.99999e-01,9.99999e-01,9.99999e-01,9.99983e-01,2.04946e-01,9.99999e-01
5.643106577e-01,2.11460e-01,9.99999e-01,9.99999e-01,9.99999e-01,9.99981e-01,2.11463e-01,9.99999e-01
5.671322110e-01,2.18005e-01,9.99999e-01,9.99999e-01,9.99999e-01,9.99778e-01,2.18054e-01,9.99997e-01
5.699678720e-01,2.24660e-01,9.99999e-01,9.99999e-01,9.99999e-01,9.99769e-01,2.24713e-01,9.99993e-01
5.728177114e-01,2.31381e-01,9.99999e-01,9.99999e-01,9.99999e-01,9.99757e-01,2.31438e-01,9.99994e-01
5.756818000e-01,2.38173e-01,9.99999e-01,9.99999e-01,9.99999e-01,9.99778e-01,2.38226e-01,9.99996e-01
5.785602090e-01,2.45026e-01,9.99999e-01,9.99999e-01,9.99999e-01,9.99806e-01,2.45073e-01,9.99998e-01
5.814530100e-01,2.51927e-01,9.99999e-01,9.99999e-01,9.99999e-01,9.99805e-01,2.51976e-01,9.99999e-01
5.843602750e-01,2.58870e-01,9.99999e-01,9.99999e-01,9.99999e-01,9.99766e-01,2.58930e-01,9.99998e-01
5.872820764e-01,2.65397e-01,9.99999e-01,9.99999e-01,9.99999e-01,9.97995e-01,2.65934e-01,9.99985e-01
5.902184868e-01,2.72316e-01,9.99999e-01,9.99999e-01,9.99999e-01,9.97591e-01,2.72983e-01,9.99961e-01
5.931695792e-01,2.79587e-01,9.99999e-01,9.99999e-01,9.99999e-01,9.98293e-01,2.80075e-01,9.99962e-01
5.961354271e-01,2.86663e-01,9.99999e-01,9.99999e-01,9.99999e-01,9.98132e-01,2.87205e-01,9.99978e-01
5.991161043e-01,2.93968e-01,9.99999e-01,9.99999e-01,9.99999e-01,9.98639e-01,2.94370e-01,9.99992e-01
6.021116848e-01,3.01335e-01,9.99999e-01,9.99999e-01,9.99999e-01,9.99228e-01,3.01567e-01,9.99998e-01
6.051222432e-01,3.08673e-01,9.99999e-01,9.99999e-01,9.99999e-01,9.99609e-01,3.08793e-01,9.99999e-01
6.081478544e-01,3.15991e-01,9.99999e-01,9.99999e-01,9.99999e-01,9.99831e-01,3.16044e-01,9.99999e-01
6.111885937e-01,3.23295e-01,9.99999e-01,9.99999e-01,9.99999e-01,9.99928e-01,3.23318e-01,9.99999e-01
6.142445367e-01,3.30599e-01,9.99999e-01,9.99999e-01,9.99999e-01,9.99967e-01,3.30610e-01,9.99999e-01
6.173157594e-01,3.37911e-01,9.99999e-01,9.99999e-01,9.99999e-01,9.99981e-01,3.37917e-01,9.99999e-01
6.204023382e-01,3.45232e-01,9.99999e-01,9.99999e-01,9.99999e-01,9.99984e-01,3.45237e-01,9.99999e-01
6.235043498e-01,3.52543e-01,9.99999e-01,9.99999e-01,9.99999e-01,9.99933e-01,3.52566e-01,9.99999e-01
6.266218716e-01,3.59776e-01,9.99999e-01,9.99999e-01,9.99999e-01,9.99652e-01,3.59902e-01,9.99997e-01
6.297549810e-01,3.67192e-01,9.99999e-01,9.99999e-01,9.99999e-01,9.99872e-01,3.67240e-01,9.99994e-01
6.329037559e-01,3.74484e-01,9.99999e-01,9.99999e-01,9.99999e-01,9.99748e-01,3.74579e-01,9.99995e-01
6.360682746e-01,3.81832e-01,9.99999e-01,9.99999e-01,9.99999e-01,9.99784e-01,3.81915e-01,9.99997e-01
6.392486160e-01,3.89138e-01,9.99999e-01,9.99999e-01,9.99999e-01,9.99721e-01,3.89246e-01,9.99998e-01
6.424448591e-01,3.96419e-01,9.99999e-01,9.99999e-01,9.99999e-01,9.99625e-01,3.96569e-01,9.99997e-01
6.456570834e-01,4.03174e-01,9.99999e-01,9.99999e-01,9.99999e-01,9.98261e-01,4.03880e-01,9.99989e-01
6.488853688e-01,4.10649e-01,9.99999e-01,9.99999e-01,9.99999e-01,9.98739e-01,4.11178e-01,9.99972e-01
6.521297956e-01,4.17913e-01,9.99999e-01,9.99999e-01,9.99999e-01,9.98714e-01,4.18460e-01,9.99977e-01
6.553904446e-01,4.25170e-01,9.99999e-01,9.99999e-01,9.99999e-01,9.98716e-01,4.25723e-01,9.99983e-01
6.586673968e-01,4.32488e-01,9.99999e-01,9.99999e-01,9.99999e-01,9.98904e-01,4.32965e-01,9.99994e-01
6.619607338e-01,4.39914e-01,9.99999e-01,9.99999e-01,9.99999e-01,9.99389e-01,4.40183e-01,9.99998e-01
6.652705375e-01,4.47212e-01,9.99999e-01,9.99999e-01,9.99999e-01,9.99633e-01,4.47376e-01,9.99998e-01
6.685968902e-01,4.54470e-01,9.99999e-01,9.99999e-01,9.99999e-01,9.99844e-01,4.54541e-01,9.99999e-01
6.719398746e-01,4.61639e-01,9.99999e-01,9.99999e-01,9.99999e-01,9.99920e-01,4.61675e-01,9.99999e-01
6.752995740e-01,4.68758e-01,9.99999e-01,9.99999e-01,9.99999e-01,9.99957e-01,4.68778e-01,9.99999e-01
6.786760719e-01,4.75816e-01,9.99999e-01,9.99999e-01,9.99999e-01,9.99937e-01,4.75846e-01,9.99999e-01
6.820694522e-01,4.82826e-01,9.99999e-01,9.99999e-01,9.99999e-01,9.99893e-01,4.82877e-01,9.99998e-01
6.854797995e-01,4.89804e-01,9.99999e-01,9.99999e-01,9.99999e-01,9.99862e-01,4.89871e-01,9.99998e-01
6.889071985e-01,4.96657e-01,9.99999e-01,9.99999e-01,9.99999e-01,9.99664e-01,4.96825e-01,9.99996e-01
6.923517345e-01,5.00990e-01,9.99999e-01,9.99999e-01,9.99999e-01,9.94571e-01,5.03737e-01,9.99973e-01
6.958134932e-01,5.09161e-01,9.99999e-01,9.99999e-01,9.99999e-01,9.97224e-01,5.10607e-01,9.99942e-01
6.992925606e-01,5.16017e-01,9.99999e-01,9.99999e-01,9.99999e-01,9.97317e-01,5.17431e-01,9.99947e-01
7.027890234e-01,5.22465e-01,9.99999e-01,9.99999e-01,9.99999e-01,9.96711e-01,5.24209e-01,9.99960e-01
7.063029686e-01,5.29460e-01,9.99999e-01,9.99999e-01,9.99999e-01,9.97233e-01,5.30939e-01,9.99979e-01
7.098344834e-01,5.36188e-01,9.99999e-01,9.99999e-01,9.99999e-01,9.97345e-01,5.37621e-01,9.99987e-01
7.133836558e-01,5.42293e-01,9.99999e-01,9.99999e-01,9.99999e-01,9.96423e-01,5.44252e-01,9.99976e-01
7.169505741e-01,5.35094e-01,9.99999e-01,9.99999e-01,9.99999e-01,9.71606e-01,5.50831e-01,9.99818e-01
7.205353270e-01,5.49516e-01,9.99999e-01,9.99999e-01,9.99999e-01,9.86245e-01,5.57358e-01,9.99679e-01
7.241380036e-01,5.53713e-01,9.99999e-01,9.99999e-01,9.99999e-01,9.82327e-01,5.63830e-01,9.99723e-01
7.277586936e-01,5.61027e-01,9.99999e-01,9.99999e-01,9.99999e-01,9.84051e-01,5.70248e-01,9.99773e-01
7.313974871e-01,5.66840e-01,9.99999e-01,9.99999e-01,9.99999e-01,9.83160e-01,5.76610e-01,9.99893e-01
7.350544745e-01,5.77509e-01,9.99999e-01,9.99999e-01,9.99999e-01,9.90761e-01,5.82915e-01,9.99962e-01
7.387297469e-01,5.85149e-01,9.99999e-01,9.99999e-01,9.99999e-01,9.93202e-01,5.89163e-01,9.99982e-01
7.424233956e-01,5.93372e-01,9.99999e-01,9.99999e-01,9.99999e-01,9.96677e-01,5.95352e-01,9.99996e-01
7.461355126e-01,6.00268e-01,9.99999e-01,9.99999e-01,9.99999e-01,9.97982e-01,6.01482e-01,9.99999e-01
7.498661902e-01,6.06983e-01,9.99999e-01,9.99999e-01,9.99999e-01,9.99062e-01,6.07552e-01,9.99999e-01
7.536155211e-01,6.13279e-01,9.99999e-01,9.99999e-01,9.99999e-01,9.99538e-01,6.13561e-01,9.99999e-01
7.573835987e-01,6.19363e-01,9.99999e-01,9.99999e-01,9.99999e-01,9.99762e-01,6.19510e-01,9.99999e-01
7.611705167e-01,6.25305e-01,9.99999e-01,9.99999e-01,9.99999e-01,9.99852e-01,6.25397e-01,9.99999e-01
7.649763693e-01,6.31164e-01,9.99999e-01,9.99999e-01,9.99999e-01,9.99907e-01,6.31222e-01,9.99999e-01
7.688012511e-01,6.36944e-01,9.99999e-01,9.99999e-01,9.99999e-01,9.99935e-01,6.36985e-01,9.99999e-01
7.726452574e-01,6.42651e-01,9.99999e-01,9.99999e-01,9.99999e-01,9.99946e-01,6.42685e-01,9.99999e-01
7.765084837e-01,6.48273e-01,9.99999e-01,9.99999e-01,9.99999e-01,9.99923e-01,6.48322e-01,9.99999e-01
7.803910261e-01,6.39722e-01,9.99999e-01,9.99999e-01,9.78639e-01,9.99671e-01,6.53895e-01,9.99999e-01
7.842929812e-01,6.02585e-01,9.99999e-01,9.99999e-01,9.14850e-01,9.98852e-01,6.59405e-01,9.99997e-01
7.882144461e-01,6.02501e-01,9.99999e-01,9.99999e-01,9.08311e-01,9.97654e-01,6.64851e-01,9.99983e-01
7.921555184e-01,6.33291e-01,9.99999e-01,9.99999e-01,9.46101e-01,9.98719e-01,6.70234e-01,9.99971e-01
7.961162960e-01,6.49686e-01,9.99999e-01,9.99999e-01,9.63928e-01,9.97714e-01,6.75552e-01,9.99972e-01
8.000968774e-01,6.65597e-01,9.99999e-01,9.99999e-01,9.80256e-01,9.97374e-01,6.80806e-01,9.99971e-01
8.040973618e-01,6.77178e-01,9.99999e-01,9.99999e-01,9.89765e-01,9.97369e-01,6.85996e-01,9.99977e-01
8.081178486e-01,6.83747e-01,9.99999e-01,9.99999e-01,9.95274e-01,9.94042e-01,6.91122e-01,9.99977e-01
8.121584379e-01,6.78006e-01,9.99999e-01,9.99999e-01,9.98551e-01,9.75375e-01,6.96184e-01,9.99916e-01
8.162192301e-01,6.80459e-01,9.99999e-01,9.99999e-01,9.99679e-01,9.71054e-01,7.01181e-01,9.99688e-01
8.203003262e-01,6.95397e-01,9.99999e-01,9.99999e-01,9.99995e-01,9.85183e-01,7.06115e-01,9.99635e-01
8.244018279e-01,6.96391e-01,9.99999e-01,9.99999e-01,9.99999e-01,9.79756e-01,7.10985e-01,9.99709e-01
8.285238370e-01,7.03150e-01,9.99999e-01,9.99999e-01,9.99999e-01,9.82561e-01,7.15792e-01,9.99771e-01
8.326664562e-01,7.07807e-01,9.99999e-01,9.99999e-01,9.99999e-01,9.82427e-01,7.20535e-01,9.99905e-01
8.368297885e-01,7.16104e-01,9.99999e-01,9.99999e-01,9.99999e-01,9.87458e-01,7.25215e-01,9.99977e-01
8.410139374e-01,7.24377e-01,9.99999e-01,9.99999e-01,9.99999e-01,9.92537e-01,7.29832e-01,9.99986e-01
8.452190071e-01,7.31694e-01,9.99999e-01,9.99999e-01,9.99999e-01,9.96340e-01,7.34386e-01,9.99991e-01
8.494451021e-01,7.37300e-01,9.99999e-01,9.99999e-01,9.99999e-01,9.97869e-01,7.38878e-01,9.99993e-01
8.536923276e-01,7.42372e-01,9.99999e-01,9.99999e-01,9.99999e-01,9.98743e-01,7.43308e-01,9.99995e-01
8.579607893e-01,7.47096e-01,9.99999e-01,9.99999e-01,9.99999e-01,9.99223e-01,7.47676e-01,9.99998e-01
8.622505932e-01,7.51613e-01,9.99999e-01,9.99999e-01,9.99999e-01,9.99507e-01,7.51983e-01,9.99999e-01
8.665618462e-01,7.15129e-01,9.99999e-01,9.99999e-01,9.45931e-01,9.99694e-01,7.56229e-01,9.99999e-01
8.708946554e-01,6.04085e-01,9.99999e-01,9.99999e-01,7.94687e-01,9.99649e-01,7.60414e-01,9.99999e-01
8.752491287e-01,6.36630e-01,9.99999e-01,9.99999e-01,8.33080e-01,9.99531e-01,7.64539e-01,9.99999e-01
8.796253743e-01,6.95455e-01,9.99999e-01,9.99999e-01,9.05407e-01,9.99349e-01,7.68604e-01,9.99998e-01
8.840235012e-01,7.33421e-01,9.99999e-01,9.99999e-01,9.49979e-01,9.99257e-01,7.72610e-01,9.99995e-01
8.884436187e-01,7.59005e-01,9.99999e-01,9.99999e-01,9.80090e-01,9.97249e-01,7.76557e-01,9.99986e-01
8.928858368e-01,7.52095e-01,9.99999e-01,9.99999e-01,9.91877e-01,9.71596e-01,7.80446e-01,9.99925e-01
8.973502660e-01,7.43814e-01,9.99999e-01,9.99999e-01,9.98031e-01,9.50614e-01,7.84277e-01,9.99620e-01
9.018370173e-01,7.67455e-01,9.99999e-01,9.99999e-01,9.99783e-01,9.74652e-01,7.88050e-01,9.99404e-01
9.063462024e-01,7.69083e-01,9.99999e-01,9.99999e-01,9.94258e-01,9.77367e-01,7.91766e-01,9.99476e-01
9.108779334e-01,7.57457e-01,9.99999e-01,9.99999e-01,9.87175e-01,9.65070e-01,7.95426e-01,9.99456e-01
9.154323231e-01,7.64869e-01,9.99999e-01,9.99999e-01,9.97004e-01,9.60515e-01,7.99031e-01,9.99550e-01
9.200094847e-01,7.43287e-01,9.99999e-01,9.99999e-01,9.55041e-01,9.68986e-01,8.02579e-01,9.99748e-01
9.246095321e-01,7.19534e-01,9.99999e-01,9.99999e-01,9.38636e-01,9.50584e-01,8.06073e-01,9.99709e-01
9.292325798e-01,5.50379e-01,9.99999e-01,9.99999e-01,9.50940e-01,7.13462e-01,8.09513e-01,9.98602e-01
9.338787427e-01,5.01403e-01,9.99999e-01,9.99999e-01,9.53085e-01,6.48287e-01,8.12899e-01,9.94957e-01
9.385481364e-01,6.59274e-01,9.99999e-01,9.99999e-01,9.65355e-01,8.40284e-01,8.16232e-01,9.94461e-01
9.432408771e-01,6.24281e-01,9.99999e-01,9.99999e-01,9.78721e-01,7.81478e-01,8.19513e-01,9.95219e-01
9.479570815e-01,5.75242e-01,9.99999e-01,9.99999e-01,9.89010e-01,7.09421e-01,8.22741e-01,9.96107e-01
9.526968669e-01,6.36800e-01,9.99999e-01,9.99999e-01,9.94696e-01,7.76740e-01,8.25918e-01,9.97623e-01
9.574603512e-01,6.56764e-01,9.99999e-01,9.99999e-01,9.97731e-01,7.94882e-01,8.29044e-01,9.98792e-01
9.622476530e-01,6.90060e-01,9.99999e-01,9.99999e-01,9.99292e-01,8.30539e-01,8.32120e-01,9.99164e-01
9.670588912e-01,7.49835e-01,9.99999e-01,9.99999e-01,9.99788e-01,8.98546e-01,8.35146e-01,9.99428e-01
9.718941857e-01,7.83730e-01,9.99999e-01,9.99999e-01,9.99984e-01,9.35508e-01,8.38123e-01,9.99579e-01
9.767536566e-01,7.95521e-01,9.99999e-01,9.99999e-01,9.99999e-01,9.46168e-01,8.41052e-01,9.99678e-01
9.816374249e-01,8.10043e-01,9.99999e-01,9.99999e-01,9.99999e-01,9.59949e-01,8.43932e-01,9.99888e-01
9.865456120e-01,8.25418e-01,9.99999e-01,9.99999e-01,9.99999e-01,9.74811e-01,8.46765e-01,9.99976e-01
9.914783401e-01,8.36258e-01,9.99999e-01,9.99999e-01,9.99999e-01,9.84357e-01,8.49552e-01,9.99993e-01
9.964357318e-01,8.45007e-01,9.99999e-01,9.99999e-01,9.99999e-01,9.91455e-01,8.52292e-01,9.99995e-01
1.001417910e+00,8.50600e-01,9.99999e-01,9.99999e-01,9.99999e-01,9.94873e-01,8.54987e-01,9.99993e-01
1.006425000e+00,8.55118e-01,9.99999e-01,9.99999e-01,9.99999e-01,9.97069e-01,8.57637e-01,9.99991e-01
1.011457125e+00,8.58675e-01,9.99999e-01,9.99999e-01,9.99999e-01,9.98184e-01,8.60243e-01,9.99991e-01
1.016514411e+00,8.61735e-01,9.99999e-01,9.99999e-01,9.99999e-01,9.98765e-01,8.62805e-01,9.99994e-01
1.021596983e+00,8.64438e-01,9.99999e-01,9.99999e-01,9.99965e-01,9.99015e-01,8.65323e-01,9.99994e-01
1.026704968e+00,8.65186e-01,9.99999e-01,9.99999e-01,9.97756e-01,9.99231e-01,8.67799e-01,9.99996e-01
1.031838492e+00,8.41189e-01,9.99999e-01,9.99999e-01,9.67150e-01,9.99442e-01,8.70233e-01,9.99998e-01
1.036997685e+00,2.13295e-01,9.99999e-01,9.99999e-01,2.44496e-01,9.99668e-01,8.72625e-01,9.99999e-01
1.042182673e+00,2.42805e-01,9.99999e-01,9.99999e-01,2.77600e-01,9.99603e-01,8.74977e-01,9.99999e-01
1.047393587e+00,2.33045e-01,9.99999e-01,9.99999e-01,2.65768e-01,9.99474e-01,8.77288e-01,9.99999e-01
1.052630555e+00,2.48714e-02,9.99999e-01,9.99999e-01,2.82929e-02,9.99278e-01,8.79560e-01,9.99999e-01
1.057893707e+00,5.07066e-02,9.99999e-01,9.99999e-01,5.75567e-02,9.98794e-01,8.81792e-01,9.99999e-01
1.063183176e+00,1.10337e-01,9.99999e-01,9.99999e-01,1.25013e-01,9.98018e-01,8.83986e-01,9.99998e-01
1.068499092e+00,2.16832e-01,9.99999e-01,9.99999e-01,2.45420e-01,9.96686e-01,8.86142e-01,9.99997e-01
1.073841587e+00,3.66000e-01,9.99999e-01,9.99999e-01,4.13488e-01,9.96115e-01,8.88260e-01,9.99994e-01
