#,Wave/freq,Total,N2,O2,CO2,H2O,Rayleigh,CIA
4.000000000e-01,1.16329e-26,9.99999e-01,9.99999e-01,9.99999e-01,9.99884e-01,1.16342e-26,9.99999e-01
4.020000000e-01,3.78880e-26,9.99999e-01,9.99999e-01,9.99999e-01,9.99928e-01,3.78907e-26,9.99999e-01
4.040100000e-01,1.20408e-25,9.99999e-01,9.99999e-01,9.99999e-01,9.99969e-01,1.20412e-25,9.99999e-01
4.060300500e-01,3.74011e-25,9.99999e-01,9.99999e-01,9.99999e-01,9.99992e-01,3.74014e-25,9.99999e-01
4.080602003e-01,1.13601e-24,9.99999e-01,9.99999e-01,9.99999e-01,9.99997e-01,1.13601e-24,9.99999e-01
4.101005013e-01,3.37559e-24,9.99999e-01,9.99999e-01,9.99999e-01,9.99999e-01,3.37559e-24,9.99999e-01
4.121510038e-01,9.81682e-24,9.99999e-01,9.99999e-01,9.99999e-01,9.99995e-01,9.81686e-24,9.99999e-01
4.142117588e-01,2.79527e-23,9.99999e-01,9.99999e-01,9.99999e-01,9.99967e-01,2.79536e-23,9.99999e-01
4.162828176e-01,7.79588e-23,9.99999e-01,9.99999e-01,9.99999e-01,9.99857e-01,7.79699e-23,9.99999e-01
4.183642317e-01,2.13098e-22,9.99999e-01,9.99999e-01,9.99999e-01,9.99914e-01,2.13116e-22,9.99999e-01
4.204560528e-01,5.71028e-22,9.99999e-01,9.99999e-01,9.99999e-01,9.99947e-01,5.71057e-22,9.99999e-01
4.225583331e-01,1.50065e-21,9.99999e-01,9.99999e-01,9.99999e-01,9.99980e-01,1.50068e-21,9.99999e-01
4.246711247e-01,3.86902e-21,9.99999e-01,9.99999e-01,9.99999e-01,9.99984e-01,3.86908e-21,9.99999e-01
4.267944804e-01,9.79024e-21,9.99999e-01,9.99999e-01,9.99999e-01,9.99976e-01,9.79046e-21,9.99999e-01
4.289284528e-01,2.43235e-20,9.99999e-01,9.99999e-01,9.99999e-01,9.99981e-01,2.43240e-20,9.99999e-01
4.310730950e-01,5.93548e-20,9.99999e-01,9.99999e-01,9.99999e-01,9.99992e-01,5.93552e-20,9.99999e-01
4.332284605e-01,1.42308e-19,9.99999e-01,9.99999e-01,9.99999e-01,9.99997e-01,1.42308e-19,9.99999e-01
4.353946028e-01,3.35352e-19,9.99999e-01,9.99999e-01,9.99999e-01,9.99998e-01,3.35352e-19,9.99999e-01
4.375715758e-01,7.76984e-19,9.99999e-01,9.99999e-01,9.99999e-01,9.99985e-01,7.76995e-19,9.99999e-01
4.397594337e-01,1.77041e-18,9.99999e-01,9.99999e-01,9.99999e-01,9.99874e-01,1.77063e-18,9.99999e-01
4.419582309e-01,3.96730e-18,9.99999e-01,9.99999e-01,9.99999e-01,9.99366e-01,3.96982e-18,9.99999e-01
4.441680220e-01,8.75534e-18,9.99999e-01,9.99999e-01,9.99999e-01,9.99504e-01,8.75968e-18,9.99999e-01
4.463888621e-01,1.90192e-17,9.99999e-01,9.99999e-01,9.99999e-01,9.99484e-01,1.90290e-17,9.99999e-01
4.486208064e-01,4.06958e-17,9.99999e-01,9.99999e-01,9.99999e-01,9.99679e-01,4.07089e-17,9.99999e-01
4.508639105e-01,8.57775e-17,9.99999e-01,9.99999e-01,9.99999e-01,9.99849e-01,8.57903e-17,9.99999e-01
4.531182300e-01,1.78142e-16,9.99999e-01,9.99999e-01,9.99999e-01,9.99940e-01,1.78153e-16,9.99999e-01
4.553838212e-01,3.64637e-16,9.99999e-01,9.99999e-01,9.99999e-01,9.99959e-01,3.64652e-16,9.99999e-01
4.576607403e-01,7.35888e-16,9.99999e-01,9.99999e-01,9.99999e-01,9.99981e-01,7.35902e-16,9.99999e-01
4.599490440e-01,1.46464e-15,9.99999e-01,9.99999e-01,9.99999e-01,9.99986e-01,1.46466e-15,9.99999e-01
4.622487892e-01,2.87574e-15,9.99999e-01,9.99999e-01,9.99999e-01,9.99997e-01,2.87575e-15,9.99999e-01
4.645600332e-01,5.57151e-15,9.99999e-01,9.99999e-01,9.99999e-01,9.99990e-01,5.57156e-15,9.99999e-01
4.668828333e-01,1.06528e-14,9.99999e-01,9.99999e-01,9.99999e-01,9.99848e-01,1.06544e-14,9.99999e-01
4.692172475e-01,2.01085e-14,9.99999e-01,9.99999e-01,9.99999e-01,9.99676e-01,2.01150e-14,9.99999e-01
4.715633337e-01,3.74945e-14,9.99999e-01,9.99999e-01,9.99999e-01,9.99788e-01,3.75024e-14,9.99999e-01
4.739211504e-01,6.90506e-14,9.99999e-01,9.99999e-01,9.99999e-01,9.99797e-01,6.90645e-14,9.99999e-01
4.762907561e-01,1.25651e-13,9.99999e-01,9.99999e-01,9.99999e-01,9.99894e-01,1.25664e-13,9.99999e-01
4.786722099e-01,2.25952e-13,9.99999e-01,9.99999e-01,9.99999e-01,9.99956e-01,2.25962e-13,9.99999e-01
4.810655710e-01,4.01623e-13,9.99999e-01,9.99999e-01,9.99999e-01,9.99986e-01,4.01628e-13,9.99999e-01
4.834708988e-01,7.05709e-13,9.99999e-01,9.99999e-01,9.99999e-01,9.99876e-01,7.05796e-13,9.99999e-01
4.858882533e-01,1.22630e-12,9.99999e-01,9.99999e-01,9.99999e-01,9.99770e-01,1.22659e-12,9.99999e-01
4.883176946e-01,2.10811e-12,9.99999e-01,9.99999e-01,9.99999e-01,9.99808e-01,2.10851e-12,9.99999e-01
4.907592831e-01,3.58534e-12,9.99999e-01,9.99999e-01,9.99999e-01,9.99826e-01,3.58596e-12,9.99999e-01
4.932130795e-01,6.03431e-12,9.99999e-01,9.99999e-01,9.99999e-01,9.99876e-01,6.03505e-12,9.99999e-01
4.956791449e-01,1.00522e-11,9.99999e-01,9.99999e-01,9.99999e-01,9.99934e-01,1.00529e-11,9.99999e-01
4.981575406e-01,1.65722e-11,9.99999e-01,9.99999e-01,9.99999e-01,9.99674e-01,1.65776e-11,9.99999e-01
5.006483283e-01,2.70455e-11,9.99999e-01,9.99999e-01,9.99999e-01,9.99158e-01,2.70685e-11,9.99993e-01
5.031515699e-01,4.35838e-11,9.99999e-01,9.99999e-01,9.99999e-01,9.95739e-01,4.37722e-11,9.99954e-01
5.056673278e-01,6.99535e-11,9.99999e-01,9.99999e-01,9.99999e-01,9.97747e-01,7.01149e-11,9.99948e-01
5.081956644e-01,1.10951e-10,9.99999e-01,9.99999e-01,9.99999e-01,9.97159e-01,1.11271e-10,9.99966e-01
5.107366428e-01,1.74644e-10,9.99999e-01,9.99999e-01,9.99999e-01,9.98080e-01,1.74980e-10,9.99993e-01
5.132903260e-01,2.72419e-10,9.99999e-01,9.99999e-01,9.99999e-01,9.98902e-01,2.72718e-10,9.99998e-01
5.158567776e-01,4.21145e-10,9.99999e-01,9.99999e-01,9.99999e-01,9.99536e-01,4.21340e-10,9.99999e-01
5.184360615e-01,6.45266e-10,9.99999e-01,9.99999e-01,9.99999e-01,9.99814e-01,6.45386e-10,9.99999e-01
5.210282418e-01,9.80208e-10,9.99999e-01,9.99999e-01,9.99999e-01,9.99930e-01,9.80276e-10,9.99999e-01
5.236333830e-01,1.47628e-09,9.99999e-01,9.99999e-01,9.99999e-01,9.99721e-01,1.47670e-09,9.99997e-01
5.262515499e-01,2.20619e-09,9.99999e-01,9.99999e-01,9.99999e-01,9.99825e-01,2.20658e-09,9.99996e-01
5.288828077e-01,3.27064e-09,9.99999e-01,9.99999e-01,9.99999e-01,9.99839e-01,3.27117e-09,9.99997e-01
5.315272217e-01,4.81113e-09,9.99999e-01,9.99999e-01,9.99999e-01,9.99859e-01,4.81181e-09,9.99999e-01
5.341848578e-01,7.02366e-09,9.99999e-01,9.99999e-01,9.99999e-01,9.99907e-01,7.02431e-09,9.99999e-01
5.368557821e-01,1.01745e-08,9.99999e-01,9.99999e-01,9.99999e-01,9.99675e-01,1.01778e-08,9.99998e-01
5.395400610e-01,1.46221e-08,9.99999e-01,9.99999e-01,9.99999e-01,9.98832e-01,1.46394e-08,9.99989e-01
5.422377613e-01,2.08739e-08,9.99999e-01,9.99999e-01,9.99999e-01,9.98488e-01,2.09061e-08,9.99972e-01
5.449489501e-01,2.96035e-08,9.99999e-01,9.99999e-01,9.99999e-01,9.98595e-01,2.96460e-08,9.99971e-01
5.476736949e-01,4.16981e-08,9.99999e-01,9.99999e-01,9.99999e-01,9.98754e-01,4.17507e-08,9.99985e-01
5.504120634e-01,5.83485e-08,9.99999e-01,9.99999e-01,9.99999e-01,9.99096e-01,5.84014e-08,9.99995e-01
5.531641237e-01,8.11161e-08,9.99999e-01,9.99999e-01,9.99999e-01,9.99544e-01,8.11530e-08,9.99998e-01
5.559299443e-01,1.12013e-07,9.99999e-01,9.99999e-01,9.99999e-01,9.99780e-01,1.12037e-07,9.99999e-01
5.587095940e-01,1.53672e-07,9.99999e-01,9.99999e-01,9.99999e-01,9.99862e-01,1.53694e-07,9.99999e-01
5.615031420e-01,2.09493e-07,9.99999e-01,9.99999e-01,9.99999e-01,9.99846e-01,2.09525e-07,9.99999e-01
5.643106577e-01,2.83846e-07,9.99999e-01,9.99999e-01,9.99999e-01,9.99826e-01,2.83895e-07,9.99998e-01
5.671322110e-01,3.81550e-07,9.99999e-01,9.99999e-01,9.99999e-01,9.97894e-01,3.82362e-07,9.99980e-01
5.699678720e-01,5.10782e-07,9.99999e-01,9.99999e-01,9.99999e-01,9.97754e-01,5.11961e-07,9.99942e-01
5.728177114e-01,6.79921e-07,9.99999e-01,9.99999e-01,9.99999e-01,9.97663e-01,6.81545e-07,9.99951e-01
5.756818000e-01,9.00230e-07,9.99999e-01,9.99999e-01,9.99999e-01,9.97855e-01,9.02191e-07,9.99970e-01
5.785602090e-01,1.18544e-06,9.99999e-01,9.99999e-01,9.99999e-01,9.98129e-01,1.18767e-06,9.99990e-01
5.814530100e-01,1.55209e-06,9.99999e-01,9.99999e-01,9.99999e-01,9.98122e-01,1.55502e-06,9.99995e-01
5.843602750e-01,2.02063e-06,9.99999e-01,9.99999e-01,9.99999e-01,9.97764e-01,2.02518e-06,9.99987e-01
5.872820764e-01,2.57339e-06,9.99999e-01,9.99999e-01,9.99999e-01,9.80931e-01,2.62376e-06,9.99863e-01
5.902184868e-01,3.30245e-06,9.99999e-01,9.99999e-01,9.99999e-01,9.76859e-01,3.38193e-06,9.99630e-01
5.931695792e-01,4.26487e-06,9.99999e-01,9.99999e-01,9.99999e-01,9.83632e-01,4.33738e-06,9.99644e-01
5.961354271e-01,5.43499e-06,9.99999e-01,9.99999e-01,9.99999e-01,9.82045e-01,5.53548e-06,9.99795e-01
5.991161043e-01,6.93780e-06,9.99999e-01,9.99999e-01,9.99999e-01,9.86865e-01,7.03058e-06,9.99936e-01
6.021116848e-01,8.82093e-06,9.99999e-01,9.99999e-01,9.99999e-01,9.92525e-01,8.88742e-06,9.99991e-01
6.051222432e-01,1.11404e-05,9.99999e-01,9.99999e-01,9.99999e-01,9.96210e-01,1.11828e-05,9.99998e-01
6.081478544e-01,1.39844e-05,9.99999e-01,9.99999e-01,9.99999e-01,9.98364e-01,1.40073e-05,9.99999e-01
6.111885937e-01,1.74552e-05,9.99999e-01,9.99999e-01,9.99999e-01,9.99307e-01,1.74673e-05,9.99999e-01
6.142445367e-01,2.16805e-05,9.99999e-01,9.99999e-01,9.99999e-01,9.99690e-01,2.16872e-05,9.99999e-01
6.173157594e-01,2.68071e-05,9.99999e-01,9.99999e-01,9.99999e-01,9.99829e-01,2.68117e-05,9.99999e-01
6.204023382e-01,3.30038e-05,9.99999e-01,9.99999e-01,9.99999e-01,9.99855e-01,3.30085e-05,9.99999e-01
6.235043498e-01,4.04453e-05,9.99999e-01,9.99999e-01,9.99999e-01,9.99365e-01,4.04711e-05,9.99997e-01
6.266218716e-01,4.92541e-05,9.99999e-01,9.99999e-01,9.99999e-01,9.96640e-01,4.94213e-05,9.99975e-01
6.297549810e-01,6.00363e-05,9.99999e-01,9.99999e-01,9.99999e-01,9.98766e-01,6.01132e-05,9.99952e-01
6.329037559e-01,7.26557e-05,9.99999e-01,9.99999e-01,9.99999e-01,9.97562e-01,7.28360e-05,9.99961e-01
6.360682746e-01,8.77331e-05,9.99999e-01,9.99999e-01,9.99999e-01,9.97924e-01,8.79174e-05,9.99977e-01
6.392486160e-01,1.05443e-04,9.99999e-01,9.99999e-01,9.99999e-01,9.97310e-01,1.05728e-04,9.99989e-01
6.424448591e-01,1.26227e-04,9.99999e-01,9.99999e-01,9.99999e-01,9.96406e-01,1.26684e-04,9.99983e-01
6.456570834e-01,1.48733e-04,9.99999e-01,9.99999e-01,9.99999e-01,9.83430e-01,1.51252e-04,9.99907e-01
6.488853688e-01,1.77720e-04,9.99999e-01,9.99999e-01,9.99999e-01,9.87837e-01,1.79955e-04,9.99740e-01
6.521297956e-01,2.10681e-04,9.99999e-01,9.99999e-01,9.99999e-01,9.87611e-01,2.13370e-04,9.99785e-01
6.553904446e-01,2.48986e-04,9.99999e-01,9.99999e-01,9.99999e-01,9.87649e-01,2.52140e-04,9.99840e-01
6.586673968e-01,2.93815e-04,9.99999e-01,9.99999e-01,9.99999e-01,9.89415e-01,2.96974e-04,9.99946e-01
6.619607338e-01,3.46508e-04,9.99999e-01,9.99999e-01,9.99999e-01,9.93864e-01,3.48651e-04,9.99988e-01
6.652705375e-01,4.06572e-04,9.99999e-01,9.99999e-01,9.99999e-01,9.96444e-01,4.08025e-04,9.99993e-01
6.685968902e-01,4.75242e-04,9.99999e-01,9.99999e-01,9.99999e-01,9.98346e-01,4.76030e-04,9.99998e-01
6.719398746e-01,5.53256e-04,9.99999e-01,9.99999e-01,9.99999e-01,9.99233e-01,5.53680e-04,9.99999e-01
6.752995740e-01,6.41811e-04,9.99999e-01,9.99999e-01,9.99999e-01,9.99584e-01,6.42078e-04,9.99999e-01
6.786760719e-01,7.41968e-04,9.99999e-01,9.99999e-01,9.99999e-01,9.99400e-01,7.42413e-04,9.99998e-01
6.820694522e-01,8.55087e-04,9.99999e-01,9.99999e-01,9.99999e-01,9.98974e-01,8.55969e-04,9.99994e-01
6.854797995e-01,9.82811e-04,9.99999e-01,9.99999e-01,9.99999e-01,9.98677e-01,9.84124e-04,9.99988e-01
6.889071985e-01,1.12472e-03,9.99999e-01,9.99999e-01,9.99999e-01,9.96807e-01,1.12835e-03,9.99970e-01
6.923517345e-01,1.22436e-03,9.99999e-01,9.99999e-01,9.99999e-01,9.49183e-01,1.29023e-03,9.99749e-01
6.958134932e-01,1.43124e-03,9.99999e-01,9.99999e-01,9.99999e-01,9.73229e-01,1.47142e-03,9.99444e-01
6.992925606e-01,1.63025e-03,9.99999e-01,9.99999e-01,9.99999e-01,9.74514e-01,1.67372e-03,9.99499e-01
7.027890234e-01,1.83864e-03,9.99999e-01,9.99999e-01,9.99999e-01,9.68592e-01,1.89898e-03,9.99617e-01
7.063029686e-01,2.09185e-03,9.99999e-01,9.99999e-01,9.99999e-01,9.73501e-01,2.14920e-03,9.99809e-01
7.098344834e-01,2.36443e-03,9.99999e-01,9.99999e-01,9.99999e-01,9.74550e-01,2.42645e-03,9.99887e-01
7.133836558e-01,2.64045e-03,9.99999e-01,9.99999e-01,9.99999e-01,9.66387e-01,2.73290e-03,9.99776e-01
7.169505741e-01,2.34368e-03,9.99999e-01,9.99999e-01,9.99999e-01,7.64547e-01,3.07084e-03,9.98243e-01
7.205353270e-01,3.00521e-03,9.99999e-01,9.99999e-01,9.99999e-01,8.75651e-01,3.44263e-03,9.96902e-01
7.241380036e-01,3.24316e-03,9.99999e-01,9.99999e-01,9.99999e-01,8.44480e-01,3.85073e-03,9.97324e-01
7.277586936e-01,3.68192e-03,9.99999e-01,9.99999e-01,9.99999e-01,8.58599e-01,4.29768e-03,9.97812e-01
7.313974871e-01,4.06087e-03,9.99999e-01,9.99999e-01,9.99999e-01,8.49337e-01,4.78612e-03,9.98974e-01
7.350544745e-01,4.86156e-03,9.99999e-01,9.99999e-01,9.99999e-01,9.14366e-01,5.31875e-03,9.99643e-01
7.387297469e-01,5.52016e-03,9.99999e-01,9.99999e-01,9.99999e-01,9.36034e-01,5.89835e-03,9.99836e-01
7.424233956e-01,6.31946e-03,9.99999e-01,9.99999e-01,9.99999e-01,9.68120e-01,6.52776e-03,9.99968e-01
7.461355126e-01,7.06963e-03,9.99999e-01,9.99999e-01,9.99999e-01,9.80552e-01,7.20988e-03,9.99993e-01
7.498661902e-01,7.87528e-03,9.99999e-01,9.99999e-01,9.99999e-01,9.90894e-01,7.94766e-03,9.99997e-01
7.536155211e-01,8.70495e-03,9.99999e-01,9.99999e-01,9.99999e-01,9.95524e-01,8.74409e-03,9.99998e-01
7.573835987e-01,9.58006e-03,9.99999e-01,9.99999e-01,9.99999e-01,9.97694e-01,9.60220e-03,9.99999e-01
7.611705167e-01,1.05100e-02,9.99999e-01,9.99999e-01,9.99999e-01,9.98566e-01,1.05250e-02,9.99999e-01
7.649763693e-01,1.15053e-02,9.99999e-01,9.99999e-01,9.99999e-01,9.99101e-01,1.15157e-02,9.99999e-01
7.688012511e-01,1.25693e-02,9.99999e-01,9.99999e-01,9.99999e-01,9.99374e-01,1.25772e-02,9.99999e-01
7.726452574e-01,1.37056e-02,9.99999e-01,9.99999e-01,9.99999e-01,9.99485e-01,1.37127e-02,9.99999e-01
7.765084837e-01,1.49142e-02,9.99999e-01,9.99999e-01,9.99999e-01,9.99268e-01,1.49251e-02,9.99998e-01
7.803910261e-01,1.40502e-02,9.99999e-01,9.99999e-01,8.68772e-01,9.96845e-01,1.62177e-02,9.99996e-01
7.842929812e-01,8.07512e-03,9.99999e-01,9.99999e-01,4.63168e-01,9.89035e-01,1.75932e-02,9.99979e-01
7.882144461e-01,8.39169e-03,9.99999e-01,9.99999e-01,4.49059e-01,9.77512e-01,1.90548e-02,9.99860e-01
7.921555184e-01,1.21674e-02,9.99999e-01,9.99999e-01,5.97272e-01,9.87607e-01,2.06053e-02,9.99730e-01
7.961162960e-01,1.52949e-02,9.99999e-01,9.99999e-01,7.02236e-01,9.78233e-01,2.22475e-02,9.99742e-01
8.000968774e-01,1.92947e-02,9.99999e-01,9.99999e-01,8.25142e-01,9.74841e-01,2.39843e-02,9.99725e-01
8.040973618e-01,2.27746e-02,9.99999e-01,9.99999e-01,9.04819e-01,9.74850e-01,2.58183e-02,9.99781e-01
8.081178486e-01,2.50385e-02,9.99999e-01,9.99999e-01,9.55036e-01,9.44472e-01,2.77521e-02,9.99795e-01
8.121584379e-01,2.32119e-02,9.99999e-01,9.99999e-01,9.85883e-01,7.90427e-01,2.97882e-02,9.99197e-01
8.162192301e-01,2.40313e-02,9.99999e-01,9.99999e-01,9.96863e-01,7.57067e-01,3.19290e-02,9.96986e-01
8.203003262e-01,2.97783e-02,9.99999e-01,9.99999e-01,9.99952e-01,8.74406e-01,3.41768e-02,9.96472e-01
8.244018279e-01,3.02844e-02,9.99999e-01,9.99999e-01,9.99999e-01,8.31277e-01,3.65337e-02,9.97191e-01
8.285238370e-01,3.29120e-02,9.99999e-01,9.99999e-01,9.99999e-01,8.45723e-01,3.90018e-02,9.97793e-01
8.326664562e-01,3.50874e-02,9.99999e-01,9.99999e-01,9.99999e-01,8.44564e-01,4.15828e-02,9.99086e-01
8.368297885e-01,3.91905e-02,9.99999e-01,9.99999e-01,9.99999e-01,8.85273e-01,4.42786e-02,9.99790e-01
8.410139374e-01,4.37883e-02,9.99999e-01,9.99999e-01,9.99999e-01,9.29983e-01,4.70907e-02,9.99877e-01
8.452190071e-01,4.82645e-02,9.99999e-01,9.99999e-01,9.99999e-01,9.64964e-01,5.00205e-02,9.99926e-01
8.494451021e-01,5.19790e-02,9.99999e-01,9.99999e-01,9.99999e-01,9.79512e-01,5.30692e-02,9.99941e-01
8.536923276e-01,5.55518e-02,9.99999e-01,9.99999e-01,9.99999e-01,9.87831e-01,5.62381e-02,9.99964e-01
8.579607893e-01,5.90804e-02,9.99999e-01,9.99999e-01,9.99999e-01,9.92491e-01,5.95279e-02,9.99990e-01
8.622505932e-01,6.26387e-02,9.99999e-01,9.99999e-01,9.99999e-01,9.95222e-01,6.29394e-02,9.99998e-01
8.665618462e-01,5.53451e-02,9.99999e-01,9.99999e-01,8.34867e-01,9.97043e-01,6.64732e-02,9.99998e-01
8.708946554e-01,1.11244e-02,9.99999e-01,9.99999e-01,1.59094e-01,9.96616e-01,7.01298e-02,9.99997e-01
8.752491287e-01,1.49761e-02,9.99999e-01,9.99999e-01,2.03456e-01,9.95475e-01,7.39093e-02,9.99994e-01
8.796253743e-01,3.12988e-02,9.99999e-01,9.99999e-01,4.04458e-01,9.93741e-01,7.78117e-02,9.99985e-01
8.840235012e-01,4.99819e-02,9.99999e-01,9.99999e-01,6.14831e-01,9.92854e-01,8.18369e-02,9.99955e-01
8.884436187e-01,6.90473e-02,9.99999e-01,9.99999e-01,8.23103e-01,9.74417e-01,8.59847e-02,9.99875e-01
8.928858368e-01,6.39648e-02,9.99999e-01,9.99999e-01,9.23743e-01,7.64882e-01,9.02546e-02,9.99283e-01
8.973502660e-01,5.78935e-02,9.99999e-01,9.99999e-01,9.80891e-01,6.24649e-01,9.46458e-02,9.96335e-01
9.018370173e-01,7.73875e-02,9.99999e-01,9.99999e-01,9.97874e-01,7.86384e-01,9.91575e-02,9.94243e-01
9.063462024e-01,7.98944e-02,9.99999e-01,9.99999e-01,9.49073e-01,8.08392e-01,1.03789e-01,9.94941e-01
9.108779334e-01,6.89500e-02,9.99999e-01,9.99999e-01,8.82867e-01,7.18027e-01,1.08539e-01,9.94744e-01
9.154323231e-01,7.52954e-02,9.99999e-01,9.99999e-01,9.71108e-01,6.84553e-01,1.13405e-01,9.95653e-01
9.200094847e-01,6.72570e-02,9.99999e-01,9.99999e-01,7.24252e-01,7.44511e-01,1.18388e-01,9.97565e-01
9.246095321e-01,4.51912e-02,9.99999e-01,9.99999e-01,5.47733e-01,6.46642e-01,1.23484e-01,9.97195e-01
9.292325798e-01,7.27096e-03,9.99999e-01,9.99999e-01,6.34213e-01,7.95943e-02,1.28693e-01,9.89106e-01
9.338787427e-01,3.05321e-03,9.99999e-01,9.99999e-01,6.37213e-01,3.33735e-02,1.34012e-01,9.55729e-01
9.385481364e-01,2.50508e-02,9.99999e-01,9.99999e-01,7.14295e-01,2.49414e-01,1.39439e-01,9.47570e-01
9.432408771e-01,1.87830e-02,9.99999e-01,9.99999e-01,8.11793e-01,1.61103e-01,1.44972e-01,9.54602e-01
9.479570815e-01,9.89774e-03,9.99999e-01,9.99999e-01,8.98339e-01,7.45327e-02,1.50609e-01,9.62893e-01
9.526968669e-01,1.92949e-02,9.99999e-01,9.99999e-01,9.49708e-01,1.31282e-01,1.56347e-01,9.77200e-01
9.574603512e-01,2.25042e-02,9.99999e-01,9.99999e-01,9.78127e-01,1.42727e-01,1.62185e-01,9.88352e-01
9.622476530e-01,3.25882e-02,9.99999e-01,9.99999e-01,9.93121e-01,1.96431e-01,1.68118e-01,9.91931e-01
9.670588912e-01,6.65662e-02,9.99999e-01,9.99999e-01,9.97933e-01,3.84980e-01,1.74145e-01,9.94474e-01
9.718941857e-01,9.58626e-02,9.99999e-01,9.99999e-01,9.99853e-01,5.34022e-01,1.80262e-01,9.95929e-01
9.767536566e-01,1.10264e-01,9.99999e-01,9.99999e-01,9.99999e-01,5.93177e-01,1.86467e-01,9.96887e-01
9.816374249e-01,1.30223e-01,9.99999e-01,9.99999e-01,9.99999e-01,6.76312e-01,1.92756e-01,9.98921e-01
9.865456120e-01,1.55683e-01,9.99999e-01,9.99999e-01,9.99999e-01,7.81999e-01,1.99128e-01,9.99774e-01
9.914783401e-01,1.76456e-01,9.99999e-01,9.99999e-01,9.99999e-01,8.58396e-01,2.05577e-01,9.99937e-01
9.964357318e-01,1.95163e-01,9.99999e-01,9.99999e-01,9.99999e-01,9.20165e-01,2.12103e-01,9.99963e-01
1.001417910e+00,2.08038e-01,9.99999e-01,9.99999e-01,9.99999e-01,9.51299e-01,2.18700e-01,9.99943e-01
1.006425000e+00,2.19022e-01,9.99999e-01,9.99999e-01,9.99999e-01,9.71928e-01,2.25366e-01,9.99920e-01
1.011457125e+00,2.28015e-01,9.99999e-01,9.99999e-01,9.99999e-01,9.82482e-01,2.32097e-01,9.99926e-01
1.016514411e+00,2.36030e-01,9.99999e-01,9.99999e-01,9.99999e-01,9.88073e-01,2.38891e-01,9.99947e-01
1.021596983e+00,2.43324e-01,9.99999e-01,9.99999e-01,9.99715e-01,9.90486e-01,2.45743e-01,9.99947e-01
1.026704968e+00,2.45575e-01,9.99999e-01,9.99999e-01,9.79250e-01,9.92573e-01,2.52651e-01,9.99964e-01
1.031838492e+00,2.22878e-01,9.99999e-01,9.99999e-01,8.62844e-01,9.94596e-01,2.59611e-01,9.99989e-01
1.036997685e+00,6.24524e-03,9.99999e-01,9.99999e-01,2.34802e-02,9.96787e-01,2.66619e-01,9.99998e-01
1.042182673e+00,4.87001e-05,9.99999e-01,9.99999e-01,1.78435e-04,9.96172e-01,2.73673e-01,9.99998e-01
1.047393587e+00,1.37390e-04,9.99999e-01,9.99999e-01,4.91324e-04,9.94926e-01,2.80768e-01,9.99998e-01
1.052630555e+00,5.34555e-11,9.99999e-01,9.99999e-01,1.86467e-10,9.93044e-01,2.87902e-01,9.99997e-01
1.057893707e+00,1.99680e-10,9.99999e-01,9.99999e-01,6.80341e-10,9.88418e-01,2.95070e-01,9.99995e-01
1.063183176e+00,8.44745e-08,9.99999e-01,9.99999e-01,2.82263e-07,9.81020e-01,3.02270e-01,9.99989e-01
1.068499092e+00,2.33082e-06,9.99999e-01,9.99999e-01,7.65605e-06,9.68431e-01,3.09499e-01,9.99977e-01
1.073841587e+00,1.27001e-04,9.99999e-01,9.99999e-01,4.10439e-04,9.63239e-01,3.16752e-01,9.99952e-01
