#,Wave/freq,Total,N2,O2,CO2,H2O,Rayleigh,CIA
4.000000000e-01,2.45712e-24,9.99999e-01,9.99999e-01,9.99999e-01,9.99895e-01,2.45737e-24,9.99999e-01
4.020000000e-01,7.19900e-24,9.99999e-01,9.99999e-01,9.99999e-01,9.99934e-01,7.19947e-24,9.99999e-01
4.040100000e-01,2.06260e-23,9.99999e-01,9.99999e-01,9.99999e-01,9.99972e-01,2.06265e-23,9.99999e-01
4.060300500e-01,5.78788e-23,9.99999e-01,9.99999e-01,9.99999e-01,9.99993e-01,5.78792e-23,9.99999e-01
4.080602003e-01,1.59135e-22,9.99999e-01,9.99999e-01,9.99999e-01,9.99997e-01,1.59136e-22,9.99999e-01
4.101005013e-01,4.28881e-22,9.99999e-01,9.99999e-01,9.99999e-01,9.99999e-01,4.28881e-22,9.99999e-01
4.121510038e-01,1.13344e-21,9.99999e-01,9.99999e-01,9.99999e-01,9.99995e-01,1.13345e-21,9.99999e-01
4.142117588e-01,2.93843e-21,9.99999e-01,9.99999e-01,9.99999e-01,9.99970e-01,2.93852e-21,9.99999e-01
4.162828176e-01,7.47528e-21,9.99999e-01,9.99999e-01,9.99999e-01,9.99870e-01,7.47625e-21,9.99999e-01
4.183642317e-01,1.86722e-20,9.99999e-01,9.99999e-01,9.99999e-01,9.99922e-01,1.86736e-20,9.99999e-01
4.204560528e-01,4.58036e-20,9.99999e-01,9.99999e-01,9.99999e-01,9.99952e-01,4.58058e-20,9.99999e-01
4.225583331e-01,1.10384e-19,9.99999e-01,9.99999e-01,9.99999e-01,9.99981e-01,1.10386e-19,9.99999e-01
4.246711247e-01,2.61432e-19,9.99999e-01,9.99999e-01,9.99999e-01,9.99985e-01,2.61436e-19,9.99999e-01
4.267944804e-01,6.08708e-19,9.99999e-01,9.99999e-01,9.99999e-01,9.99978e-01,6.08720e-19,9.99999e-01
4.289284528e-01,1.39384e-18,9.99999e-01,9.99999e-01,9.99999e-01,9.99983e-01,1.39386e-18,9.99999e-01
4.310730950e-01,3.13988e-18,9.99999e-01,9.99999e-01,9.99999e-01,9.99992e-01,3.13990e-18,9.99999e-01
4.332284605e-01,6.96057e-18,9.99999e-01,9.99999e-01,9.99999e-01,9.99997e-01,6.96059e-18,9.99999e-01
4.353946028e-01,1.51896e-17,9.99999e-01,9.99999e-01,9.99999e-01,9.99998e-01,1.51896e-17,9.99999e-01
4.375715758e-01,3.26397e-17,9.99999e-01,9.99999e-01,9.99999e-01,9.99986e-01,3.26402e-17,9.99999e-01
4.397594337e-01,6.90792e-17,9.99999e-01,9.99999e-01,9.99999e-01,9.99886e-01,6.90870e-17,9.99999e-01
4.419582309e-01,1.43999e-16,9.99999e-01,9.99999e-01,9.99999e-01,9.99424e-01,1.44082e-16,9.99999e-01
4.441680220e-01,2.96019e-16,9.99999e-01,9.99999e-01,9.99999e-01,9.99548e-01,2.96152e-16,9.99999e-01
4.463888621e-01,5.99843e-16,9.99999e-01,9.99999e-01,9.99999e-01,9.99530e-01,6.00124e-16,9.99999e-01
4.486208064e-01,1.19890e-15,9.99999e-01,9.99999e-01,9.99999e-01,9.99707e-01,1.19925e-15,9.99999e-01
4.508639105e-01,2.36362e-15,9.99999e-01,9.99999e-01,9.99999e-01,9.99862e-01,2.36394e-15,9.99999e-01
4.531182300e-01,4.59749e-15,9.99999e-01,9.99999e-01,9.99999e-01,9.99945e-01,4.59774e-15,9.99999e-01
4.553838212e-01,8.82528e-15,9.99999e-01,9.99999e-01,9.99999e-01,9.99962e-01,8.82560e-15,9.99999e-01
4.576607403e-01,1.67241e-14,9.99999e-01,9.99999e-01,9.99999e-01,9.99982e-01,1.67244e-14,9.99999e-01
4.599490440e-01,3.12945e-14,9.99999e-01,9.99999e-01,9.99999e-01,9.99987e-01,3.12949e-14,9.99999e-01
4.622487892e-01,5.78390e-14,9.99999e-01,9.99999e-01,9.99999e-01,9.99997e-01,5.78391e-14,9.99999e-01
4.645600332e-01,1.05608e-13,9.99999e-01,9.99999e-01,9.99999e-01,9.99991e-01,1.05609e-13,9.99999e-01
4.668828333e-01,1.90526e-13,9.99999e-01,9.99999e-01,9.99999e-01,9.99861e-01,1.90552e-13,9.99999e-01
4.692172475e-01,3.39733e-13,9.99999e-01,9.99999e-01,9.99999e-01,9.99705e-01,3.39833e-13,9.99999e-01
4.715633337e-01,5.99060e-13,9.99999e-01,9.99999e-01,9.99999e-01,9.99807e-01,5.99176e-13,9.99999e-01
4.739211504e-01,1.04447e-12,9.99999e-01,9.99999e-01,9.99999e-01,9.99815e-01,1.04467e-12,9.99999e-01
4.762907561e-01,1.80132e-12,9.99999e-01,9.99999e-01,9.99999e-01,9.99903e-01,1.80149e-12,9.99999e-01
4.786722099e-01,3.07324e-12,9.99999e-01,9.99999e-01,9.99999e-01,9.99960e-01,3.07336e-12,9.99999e-01
4.810655710e-01,5.18807e-12,9.99999e-01,9.99999e-01,9.99999e-01,9.99987e-01,5.18813e-12,9.99999e-01
4.834708988e-01,8.66700e-12,9.99999e-01,9.99999e-01,9.99999e-01,9.99887e-01,8.66797e-12,9.99999e-01
4.858882533e-01,1.43328e-11,9.99999e-01,9.99999e-01,9.99999e-01,9.99791e-01,1.43358e-11,9.99999e-01
4.883176946e-01,2.34711e-11,9.99999e-01,9.99999e-01,9.99999e-01,9.99825e-01,2.34752e-11,9.99999e-01
4.907592831e-01,3.80625e-11,9.99999e-01,9.99999e-01,9.99999e-01,9.99841e-01,3.80685e-11,9.99999e-01
4.932130795e-01,6.11402e-11,9.99999e-01,9.99999e-01,9.99999e-01,9.99887e-01,6.11470e-11,9.99999e-01
4.956791449e-01,9.72957e-11,9.99999e-01,9.99999e-01,9.99999e-01,9.99940e-01,9.73015e-11,9.99999e-01
4.981575406e-01,1.53374e-10,9.99999e-01,9.99999e-01,9.99999e-01,9.99704e-01,1.53419e-10,9.99999e-01
5.006483283e-01,2.39551e-10,9.99999e-01,9.99999e-01,9.99999e-01,9.99234e-01,2.39735e-10,9.99994e-01
5.031515699e-01,3.69872e-10,9.99999e-01,9.99999e-01,9.99999e-01,9.96121e-01,3.71327e-10,9.99958e-01
5.056673278e-01,5.69004e-10,9.99999e-01,9.99999e-01,9.99999e-01,9.97948e-01,5.70200e-10,9.99952e-01
5.081956644e-01,8.65925e-10,9.99999e-01,9.99999e-01,9.99999e-01,9.97412e-01,8.68197e-10,9.99969e-01
5.107366428e-01,1.30870e-09,9.99999e-01,9.99999e-01,9.99999e-01,9.98252e-01,1.31100e-09,9.99993e-01
5.132903260e-01,1.96163e-09,9.99999e-01,9.99999e-01,9.99999e-01,9.99000e-01,1.96360e-09,9.99998e-01
5.158567776e-01,2.91644e-09,9.99999e-01,9.99999e-01,9.99999e-01,9.99577e-01,2.91767e-09,9.99999e-01
5.184360615e-01,4.30080e-09,9.99999e-01,9.99999e-01,9.99999e-01,9.99830e-01,4.30153e-09,9.99999e-01
5.210282418e-01,6.29292e-09,9.99999e-01,9.99999e-01,9.99999e-01,9.99936e-01,6.29332e-09,9.99999e-01
5.236333830e-01,9.13611e-09,9.99999e-01,9.99999e-01,9.99999e-01,9.99746e-01,9.13844e-09,9.99997e-01
5.262515499e-01,1.31703e-08,9.99999e-01,9.99999e-01,9.99999e-01,9.99841e-01,1.31724e-08,9.99997e-01
5.288828077e-01,1.88476e-08,9.99999e-01,9.99999e-01,9.99999e-01,9.99854e-01,1.88504e-08,9.99997e-01
5.315272217e-01,2.67822e-08,9.99999e-01,9.99999e-01,9.99999e-01,9.99871e-01,2.67857e-08,9.99999e-01
5.341848578e-01,3.77950e-08,9.99999e-01,9.99999e-01,9.99999e-01,9.99916e-01,3.77981e-08,9.99999e-01
5.368557821e-01,5.29609e-08,9.99999e-01,9.99999e-01,9.99999e-01,9.99705e-01,5.29765e-08,9.99998e-01
5.395400610e-01,7.36777e-08,9.99999e-01,9.99999e-01,9.99999e-01,9.98938e-01,7.37566e-08,9.99990e-01
5.422377613e-01,1.01876e-07,9.99999e-01,9.99999e-01,9.99999e-01,9.98623e-01,1.02019e-07,9.99974e-01
5.449489501e-01,1.40026e-07,9.99999e-01,9.99999e-01,9.99999e-01,9.98721e-01,1.40209e-07,9.99973e-01
5.476736949e-01,1.91269e-07,9.99999e-01,9.99999e-01,9.99999e-01,9.98865e-01,1.91489e-07,9.99986e-01
5.504120634e-01,2.59704e-07,9.99999e-01,9.99999e-01,9.99999e-01,9.99176e-01,2.59919e-07,9.99996e-01
5.531641237e-01,3.50535e-07,9.99999e-01,9.99999e-01,9.99999e-01,9.99585e-01,3.50680e-07,9.99999e-01
5.559299443e-01,4.70249e-07,9.99999e-01,9.99999e-01,9.99999e-01,9.99799e-01,4.70343e-07,9.99999e-01
5.587095940e-01,6.27114e-07,9.99999e-01,9.99999e-01,9.99999e-01,9.99874e-01,6.27192e-07,9.99999e-01
5.615031420e-01,8.31489e-07,9.99999e-01,9.99999e-01,9.99999e-01,9.99860e-01,8.31605e-07,9.99999e-01
5.643106577e-01,1.09634e-06,9.99999e-01,9.99999e-01,9.99999e-01,9.99842e-01,1.09651e-06,9.99998e-01
5.671322110e-01,1.43516e-06,9.99999e-01,9.99999e-01,9.99999e-01,9.98087e-01,1.43793e-06,9.99982e-01
5.699678720e-01,1.87165e-06,9.99999e-01,9.99999e-01,9.99999e-01,9.97952e-01,1.87559e-06,9.99947e-01
5.728177114e-01,2.42837e-06,9.99999e-01,9.99999e-01,9.99999e-01,9.97873e-01,2.43365e-06,9.99956e-01
5.756818000e-01,3.13532e-06,9.99999e-01,9.99999e-01,9.99999e-01,9.98047e-01,3.14154e-06,9.99972e-01
5.785602090e-01,4.02804e-06,9.99999e-01,9.99999e-01,9.99999e-01,9.98296e-01,4.03495e-06,9.99991e-01
5.814530100e-01,5.14803e-06,9.99999e-01,9.99999e-01,9.99999e-01,9.98290e-01,5.15686e-06,9.99995e-01
5.843602750e-01,6.54546e-06,9.99999e-01,9.99999e-01,9.99999e-01,9.97966e-01,6.55887e-06,9.99988e-01
5.872820764e-01,8.15734e-06,9.99999e-01,9.99999e-01,9.99999e-01,9.82634e-01,8.30251e-06,9.99876e-01
5.902184868e-01,1.02367e-05,9.99999e-01,9.99999e-01,9.99999e-01,9.78903e-01,1.04609e-05,9.99663e-01
5.931695792e-01,1.29204e-05,9.99999e-01,9.99999e-01,9.99999e-01,9.85085e-01,1.31203e-05,9.99676e-01
5.961354271e-01,1.61113e-05,9.99999e-01,9.99999e-01,9.99999e-01,9.83636e-01,1.63824e-05,9.99813e-01
5.991161043e-01,2.01210e-05,9.99999e-01,9.99999e-01,9.99999e-01,9.88030e-01,2.03659e-05,9.99942e-01
6.021116848e-01,2.50377e-05,9.99999e-01,9.99999e-01,9.99999e-01,9.93189e-01,2.52095e-05,9.99992e-01
6.051222432e-01,3.09666e-05,9.99999e-01,9.99999e-01,9.99999e-01,9.96548e-01,3.10739e-05,9.99999e-01
6.081478544e-01,3.80877e-05,9.99999e-01,9.99999e-01,9.99999e-01,9.98510e-01,3.81445e-05,9.99999e-01
6.111885937e-01,4.66053e-05,9.99999e-01,9.99999e-01,9.99999e-01,9.99368e-01,4.66347e-05,9.99999e-01
6.142445367e-01,5.67729e-05,9.99999e-01,9.99999e-01,9.99999e-01,9.99718e-01,5.67889e-05,9.99999e-01
6.173157594e-01,6.88747e-05,9.99999e-01,9.99999e-01,9.99999e-01,9.99844e-01,6.88854e-05,9.99999e-01
6.204023382e-01,8.32295e-05,9.99999e-01,9.99999e-01,9.99999e-01,9.99868e-01,8.32404e-05,9.99999e-01
6.235043498e-01,1.00154e-04,9.99999e-01,9.99999e-01,9.99999e-01,9.99423e-01,1.00212e-04,9.99998e-01
6.266218716e-01,1.19831e-04,9.99999e-01,9.99999e-01,9.99999e-01,9.96940e-01,1.20201e-04,9.99978e-01
6.297549810e-01,1.43494e-04,9.99999e-01,9.99999e-01,9.99999e-01,9.98877e-01,1.43662e-04,9.99956e-01
6.329037559e-01,1.70712e-04,9.99999e-01,9.99999e-01,9.99999e-01,9.97779e-01,1.71097e-04,9.99965e-01
6.360682746e-01,2.02683e-04,9.99999e-01,9.99999e-01,9.99999e-01,9.98111e-01,2.03070e-04,9.99979e-01
6.392486160e-01,2.39613e-04,9.99999e-01,9.99999e-01,9.99999e-01,9.97551e-01,2.40203e-04,9.99990e-01
6.424448591e-01,2.82256e-04,9.99999e-01,9.99999e-01,9.99999e-01,9.96731e-01,2.83186e-04,9.99985e-01
6.456570834e-01,3.27729e-04,9.99999e-01,9.99999e-01,9.99999e-01,9.84917e-01,3.32776e-04,9.99915e-01
6.488853688e-01,3.85394e-04,9.99999e-01,9.99999e-01,9.99999e-01,9.88914e-01,3.89806e-04,9.99763e-01
6.521297956e-01,4.49957e-04,9.99999e-01,9.99999e-01,9.99999e-01,9.88707e-01,4.55184e-04,9.99804e-01
6.553904446e-01,5.23867e-04,9.99999e-01,9.99999e-01,9.99999e-01,9.88751e-01,5.29903e-04,9.99854e-01
6.586673968e-01,6.09076e-04,9.99999e-01,9.99999e-01,9.99999e-01,9.90355e-01,6.15037e-04,9.99951e-01
6.619607338e-01,7.07767e-04,9.99999e-01,9.99999e-01,9.99999e-01,9.94410e-01,7.11752e-04,9.99989e-01
6.652705375e-01,8.18637e-04,9.99999e-01,9.99999e-01,9.99999e-01,9.96759e-01,8.21302e-04,9.99994e-01
6.685968902e-01,9.43614e-04,9.99999e-01,9.99999e-01,9.99999e-01,9.98493e-01,9.45038e-04,9.99998e-01
6.719398746e-01,1.08365e-03,9.99999e-01,9.99999e-01,9.99999e-01,9.99301e-01,1.08441e-03,9.99999e-01
6.752995740e-01,1.24048e-03,9.99999e-01,9.99999e-01,9.99999e-01,9.99621e-01,1.24095e-03,9.99999e-01
6.786760719e-01,1.41554e-03,9.99999e-01,9.99999e-01,9.99999e-01,9.99454e-01,1.41631e-03,9.99998e-01
6.820694522e-01,1.61073e-03,9.99999e-01,9.99999e-01,9.99999e-01,9.99066e-01,1.61225e-03,9.99994e-01
6.854797995e-01,1.82837e-03,9.99999e-01,9.99999e-01,9.99999e-01,9.98796e-01,1.83059e-03,9.99989e-01
6.889071985e-01,2.06723e-03,9.99999e-01,9.99999e-01,9.99999e-01,9.97099e-01,2.07330e-03,9.99973e-01
6.923517345e-01,2.23333e-03,9.99999e-01,9.99999e-01,9.99999e-01,9.53644e-01,2.34242e-03,9.99771e-01
6.958134932e-01,2.57420e-03,9.99999e-01,9.99999e-01,9.99999e-01,9.75540e-01,2.64010e-03,9.99484e-01
6.992925606e-01,2.89835e-03,9.99999e-01,9.99999e-01,9.99999e-01,9.76782e-01,2.96858e-03,9.99546e-01
7.027890234e-01,3.23370e-03,9.99999e-01,9.99999e-01,9.99999e-01,9.71352e-01,3.33022e-03,9.99652e-01
7.063029686e-01,3.63676e-03,9.99999e-01,9.99999e-01,9.99999e-01,9.75841e-01,3.72744e-03,9.99826e-01
7.098344834e-01,4.06577e-03,9.99999e-01,9.99999e-01,9.99999e-01,9.76801e-01,4.16275e-03,9.99897e-01
7.133836558e-01,4.49584e-03,9.99999e-01,9.99999e-01,9.99999e-01,9.69382e-01,4.63878e-03,9.99796e-01
7.169505741e-01,4.03058e-03,9.99999e-01,9.99999e-01,9.99999e-01,7.82644e-01,5.15820e-03,9.98400e-01
7.205353270e-01,5.05537e-03,9.99999e-01,9.99999e-01,9.99999e-01,8.85720e-01,5.72377e-03,9.97179e-01
7.241380036e-01,5.41971e-03,9.99999e-01,9.99999e-01,9.99999e-01,8.57158e-01,6.33831e-03,9.97564e-01
7.277586936e-01,6.08330e-03,9.99999e-01,9.99999e-01,9.99999e-01,8.70192e-01,7.00470e-03,9.98008e-01
7.313974871e-01,6.65057e-03,9.99999e-01,9.99999e-01,9.99999e-01,8.61618e-01,7.72589e-03,9.99066e-01
7.350544745e-01,7.83593e-03,9.99999e-01,9.99999e-01,9.99999e-01,9.21646e-01,8.50486e-03,9.99675e-01
7.387297469e-01,8.79711e-03,9.99999e-01,9.99999e-01,9.99999e-01,9.41549e-01,9.34461e-03,9.99850e-01
7.424233956e-01,9.94981e-03,9.99999e-01,9.99999e-01,9.99999e-01,9.70910e-01,1.02482e-02,9.99970e-01
7.461355126e-01,1.10197e-02,9.99999e-01,9.99999e-01,9.99999e-01,9.82269e-01,1.12187e-02,9.99994e-01
7.498661902e-01,1.21574e-02,9.99999e-01,9.99999e-01,9.99999e-01,9.91700e-01,1.22592e-02,9.99997e-01
7.536155211e-01,1.33181e-02,9.99999e-01,9.99999e-01,9.99999e-01,9.95923e-01,1.33727e-02,9.99998e-01
7.573835987e-01,1.45317e-02,9.99999e-01,9.99999e-01,9.99999e-01,9.97899e-01,1.45623e-02,9.99999e-01
7.611705167e-01,1.58104e-02,9.99999e-01,9.99999e-01,9.99999e-01,9.98694e-01,1.58311e-02,9.99999e-01
7.649763693e-01,1.71680e-02,9.99999e-01,9.99999e-01,9.99999e-01,9.99181e-01,1.71821e-02,9.99999e-01
7.688012511e-01,1.86076e-02,9.99999e-01,9.99999e-01,9.99999e-01,9.99430e-01,1.86182e-02,9.99999e-01
7.726452574e-01,2.01329e-02,9.99999e-01,9.99999e-01,9.99999e-01,9.99531e-01,2.01423e-02,9.99999e-01
7.765084837e-01,2.17430e-02,9.99999e-01,9.99999e-01,9.99999e-01,9.99335e-01,2.17574e-02,9.99998e-01
7.803910261e-01,2.05327e-02,9.99999e-01,9.99999e-01,8.77227e-01,9.97131e-01,2.34663e-02,9.99996e-01
7.842929812e-01,1.23537e-02,9.99999e-01,9.99999e-01,4.92932e-01,9.90023e-01,2.52715e-02,9.99981e-01
7.882144461e-01,1.27727e-02,9.99999e-01,9.99999e-01,4.78492e-01,9.79504e-01,2.71759e-02,9.99873e-01
7.921555184e-01,1.80345e-02,9.99999e-01,9.99999e-01,6.24515e-01,9.88702e-01,2.91818e-02,9.99754e-01
7.961162960e-01,2.22326e-02,9.99999e-01,9.99999e-01,7.24400e-01,9.80175e-01,3.12918e-02,9.99765e-01
8.000968774e-01,2.74794e-02,9.99999e-01,9.99999e-01,8.39266e-01,9.77069e-01,3.35081e-02,9.99750e-01
8.040973618e-01,3.19609e-02,9.99999e-01,9.99999e-01,9.12839e-01,9.77081e-01,3.58328e-02,9.99801e-01
8.081178486e-01,3.48448e-02,9.99999e-01,9.99999e-01,9.58955e-01,9.49340e-01,3.82682e-02,9.99813e-01
8.121584379e-01,3.25119e-02,9.99999e-01,9.99999e-01,9.87117e-01,8.07026e-01,4.08160e-02,9.99269e-01
8.162192301e-01,3.35398e-02,9.99999e-01,9.99999e-01,9.97139e-01,7.75563e-01,4.34780e-02,9.97256e-01
8.203003262e-01,4.07837e-02,9.99999e-01,9.99999e-01,9.99955e-01,8.84560e-01,4.62559e-02,9.96788e-01
8.244018279e-01,4.13730e-02,9.99999e-01,9.99999e-01,9.99999e-01,8.43907e-01,4.91511e-02,9.97442e-01
8.285238370e-01,4.46864e-02,9.99999e-01,9.99999e-01,9.99999e-01,8.58359e-01,5.21650e-02,9.97991e-01
8.326664562e-01,4.73612e-02,9.99999e-01,9.99999e-01,9.99999e-01,8.57174e-01,5.52986e-02,9.99168e-01
8.368297885e-01,5.23876e-02,9.99999e-01,9.99999e-01,9.99999e-01,8.94875e-01,5.85529e-02,9.99809e-01
8.410139374e-01,5.79587e-02,9.99999e-01,9.99999e-01,9.99999e-01,9.35995e-01,6.19288e-02,9.99888e-01
8.452190071e-01,6.33308e-02,9.99999e-01,9.99999e-01,9.99999e-01,9.68028e-01,6.54268e-02,9.99933e-01
8.494451021e-01,6.77545e-02,9.99999e-01,9.99999e-01,9.99999e-01,9.81327e-01,6.90474e-02,9.99946e-01
8.536923276e-01,7.19813e-02,9.99999e-01,9.99999e-01,9.99999e-01,9.88909e-01,7.27909e-02,9.99967e-01
8.579607893e-01,7.61325e-02,9.99999e-01,9.99999e-01,9.99999e-01,9.93160e-01,7.66573e-02,9.99991e-01
8.622505932e-01,8.02956e-02,9.99999e-01,9.99999e-01,9.99999e-01,9.95647e-01,8.06467e-02,9.99998e-01
8.665618462e-01,7.11235e-02,9.99999e-01,9.99999e-01,8.41221e-01,9.97308e-01,8.47587e-02,9.99998e-01
8.708946554e-01,1.62433e-02,9.99999e-01,9.99999e-01,1.83019e-01,9.96919e-01,8.89929e-02,9.99997e-01
8.752491287e-01,2.16015e-02,9.99999e-01,9.99999e-01,2.32273e-01,9.95880e-01,9.33487e-02,9.99995e-01
8.796253743e-01,4.24682e-02,9.99999e-01,9.99999e-01,4.36323e-01,9.94303e-01,9.78253e-02,9.99986e-01
8.840235012e-01,6.52814e-02,9.99999e-01,9.99999e-01,6.41280e-01,9.93495e-01,1.02422e-01,9.99959e-01
8.884436187e-01,8.77009e-02,9.99999e-01,9.99999e-01,8.37265e-01,9.76717e-01,1.07137e-01,9.99886e-01
8.928858368e-01,8.17637e-02,9.99999e-01,9.99999e-01,9.30255e-01,7.83037e-01,1.11970e-01,9.99347e-01
8.973502660e-01,7.45849e-02,9.99999e-01,9.99999e-01,9.82557e-01,6.50331e-01,1.16918e-01,9.96663e-01
9.018370173e-01,9.72240e-02,9.99999e-01,9.99999e-01,9.98061e-01,8.02574e-01,1.21982e-01,9.94758e-01
9.063462024e-01,1.00086e-01,9.99999e-01,9.99999e-01,9.53422e-01,8.23549e-01,1.27158e-01,9.95394e-01
9.108779334e-01,8.74807e-02,9.99999e-01,9.99999e-01,8.92626e-01,7.38906e-01,1.32445e-01,9.95214e-01
9.154323231e-01,9.48202e-02,9.99999e-01,9.99999e-01,9.73599e-01,7.07503e-01,1.37840e-01,9.96042e-01
9.200094847e-01,8.47466e-02,9.99999e-01,9.99999e-01,7.39845e-01,7.63672e-01,1.43343e-01,9.97783e-01
9.246095321e-01,5.93373e-02,9.99999e-01,9.99999e-01,5.77284e-01,6.70864e-01,1.48950e-01,9.97446e-01
9.292325798e-01,1.06272e-02,9.99999e-01,9.99999e-01,6.59434e-01,9.43313e-02,1.54658e-01,9.90078e-01
9.338787427e-01,4.86060e-03,9.99999e-01,9.99999e-01,6.62530e-01,4.30518e-02,1.60467e-01,9.59618e-01
9.385481364e-01,3.40679e-02,9.99999e-01,9.99999e-01,7.35687e-01,2.76825e-01,1.66372e-01,9.52158e-01
9.432408771e-01,2.60160e-02,9.99999e-01,9.99999e-01,8.26905e-01,1.84409e-01,1.72372e-01,9.58588e-01
9.479570815e-01,1.45380e-02,9.99999e-01,9.99999e-01,9.06954e-01,9.14526e-02,1.78463e-01,9.66164e-01
9.526968669e-01,2.69182e-02,9.99999e-01,9.99999e-01,9.54062e-01,1.54302e-01,1.84643e-01,9.79223e-01
9.574603512e-01,3.10089e-02,9.99999e-01,9.99999e-01,9.80050e-01,1.66704e-01,1.90908e-01,9.89391e-01
9.622476530e-01,4.36520e-02,9.99999e-01,9.99999e-01,9.93729e-01,2.24009e-01,1.97256e-01,9.92652e-01
9.670588912e-01,8.42667e-02,9.99999e-01,9.99999e-01,9.98116e-01,4.16421e-01,2.03683e-01,9.94969e-01
9.718941857e-01,1.18084e-01,9.99999e-01,9.99999e-01,9.99866e-01,5.63948e-01,2.10186e-01,9.96294e-01
9.767536566e-01,1.34185e-01,9.99999e-01,9.99999e-01,9.99999e-01,6.20800e-01,2.16763e-01,9.97166e-01
9.816374249e-01,1.56224e-01,9.99999e-01,9.99999e-01,9.99999e-01,6.99959e-01,2.23409e-01,9.99018e-01
9.865456120e-01,1.83874e-01,9.99999e-01,9.99999e-01,9.99999e-01,7.99195e-01,2.30121e-01,9.99795e-01
9.914783401e-01,2.06122e-01,9.99999e-01,9.99999e-01,9.99999e-01,8.70139e-01,2.36897e-01,9.99942e-01
9.964357318e-01,2.25935e-01,9.99999e-01,9.99999e-01,9.99999e-01,9.27008e-01,2.43733e-01,9.99966e-01
1.001417910e+00,2.39471e-01,9.99999e-01,9.99999e-01,9.99999e-01,9.55542e-01,2.50625e-01,9.99948e-01
1.006425000e+00,2.50960e-01,9.99999e-01,9.99999e-01,9.99999e-01,9.74407e-01,2.57570e-01,9.99927e-01
1.011457125e+00,2.60322e-01,9.99999e-01,9.99999e-01,9.99999e-01,9.84032e-01,2.64564e-01,9.99932e-01
1.016514411e+00,2.68641e-01,9.99999e-01,9.99999e-01,9.99999e-01,9.89133e-01,2.71605e-01,9.99952e-01
1.021596983e+00,2.76190e-01,9.99999e-01,9.99999e-01,9.99744e-01,9.91333e-01,2.78688e-01,9.99952e-01
1.026704968e+00,2.78521e-01,9.99999e-01,9.99999e-01,9.81118e-01,9.93235e-01,2.85811e-01,9.99967e-01
1.031838492e+00,2.54046e-01,9.99999e-01,9.99999e-01,8.71142e-01,9.95077e-01,2.92970e-01,9.99990e-01
1.036997685e+00,8.12543e-03,9.99999e-01,9.99999e-01,2.71296e-02,9.97075e-01,3.00161e-01,9.99998e-01
1.042182673e+00,9.26353e-05,9.99999e-01,9.99999e-01,3.02123e-04,9.96516e-01,3.07382e-01,9.99998e-01
1.047393587e+00,2.70590e-04,9.99999e-01,9.99999e-01,8.63231e-04,9.95380e-01,3.14628e-01,9.99998e-01
1.052630555e+00,3.29980e-10,9.99999e-01,9.99999e-01,1.02911e-09,9.93667e-01,3.21897e-01,9.99997e-01
1.057893707e+00,1.22542e-09,9.99999e-01,9.99999e-01,3.74097e-09,9.89455e-01,3.29186e-01,9.99995e-01
1.063183176e+00,2.87423e-07,9.99999e-01,9.99999e-01,8.62053e-07,9.82709e-01,3.36490e-01,9.99990e-01
1.068499092e+00,6.53927e-06,9.99999e-01,9.99999e-01,1.93222e-05,9.71217e-01,3.43808e-01,9.99979e-01
1.073841587e+00,2.70400e-04,9.99999e-01,9.99999e-01,7.87088e-04,9.66475e-01,3.51136e-01,9.99956e-01
