#,Wave/freq,Total,N2,O2,CO2,H2O,Rayleigh,CIA
4.000000000e-01,1.00391e-06,9.99999e-01,9.99999e-01,9.99999e-01,9.99972e-01,1.00393e-06,9.99999e-01
4.020000000e-01,1.31917e-06,9.99999e-01,9.99999e-01,9.99999e-01,9.99983e-01,1.31919e-06,9.99999e-01
4.040100000e-01,1.72363e-06,9.99999e-01,9.99999e-01,9.99999e-01,9.99992e-01,1.72364e-06,9.99999e-01
4.060300500e-01,2.24022e-06,9.99999e-01,9.99999e-01,9.99999e-01,9.99997e-01,2.24023e-06,9.99999e-01
4.080602003e-01,2.89659e-06,9.99999e-01,9.99999e-01,9.99999e-01,9.99998e-01,2.89659e-06,9.99999e-01
4.101005013e-01,3.72631e-06,9.99999e-01,9.99999e-01,9.99999e-01,9.99999e-01,3.72631e-06,9.99999e-01
4.121510038e-01,4.76990e-06,9.99999e-01,9.99999e-01,9.99999e-01,9.99998e-01,4.76990e-06,9.99999e-01
4.142117588e-01,6.07602e-06,9.99999e-01,9.99999e-01,9.99999e-01,9.99992e-01,6.07606e-06,9.99999e-01
4.162828176e-01,7.70273e-06,9.99999e-01,9.99999e-01,9.99999e-01,9.99966e-01,7.70298e-06,9.99999e-01
4.183642317e-01,9.71967e-06,9.99999e-01,9.99999e-01,9.99999e-01,9.99979e-01,9.71986e-06,9.99999e-01
4.204560528e-01,1.22085e-05,9.99999e-01,9.99999e-01,9.99999e-01,9.99987e-01,1.22086e-05,9.99999e-01
4.225583331e-01,1.52656e-05,9.99999e-01,9.99999e-01,9.99999e-01,9.99995e-01,1.52657e-05,9.99999e-01
4.246711247e-01,1.90042e-05,9.99999e-01,9.99999e-01,9.99999e-01,9.99995e-01,1.90042e-05,9.99999e-01
4.267944804e-01,2.35560e-05,9.99999e-01,9.99999e-01,9.99999e-01,9.99994e-01,2.35562e-05,9.99999e-01
4.289284528e-01,2.90747e-05,9.99999e-01,9.99999e-01,9.99999e-01,9.99995e-01,2.90748e-05,9.99999e-01
4.310730950e-01,3.57374e-05,9.99999e-01,9.99999e-01,9.99999e-01,9.99997e-01,3.57375e-05,9.99999e-01
4.332284605e-01,4.37482e-05,9.99999e-01,9.99999e-01,9.99999e-01,9.99999e-01,4.37482e-05,9.99999e-01
4.353946028e-01,5.33411e-05,9.99999e-01,9.99999e-01,9.99999e-01,9.99999e-01,5.33411e-05,9.99999e-01
4.375715758e-01,6.47831e-05,9.99999e-01,9.99999e-01,9.99999e-01,9.99996e-01,6.47833e-05,9.99999e-01
4.397594337e-01,7.83763e-05,9.99999e-01,9.99999e-01,9.99999e-01,9.99970e-01,7.83786e-05,9.99999e-01
4.419582309e-01,9.44569e-05,9.99999e-01,9.99999e-01,9.99999e-01,9.99853e-01,9.44707e-05,9.99999e-01
4.441680220e-01,1.13434e-04,9.99999e-01,9.99999e-01,9.99999e-01,9.99884e-01,1.13448e-04,9.99999e-01
4.463888621e-01,1.35728e-04,9.99999e-01,9.99999e-01,9.99999e-01,9.99880e-01,1.35745e-04,9.99999e-01
4.486208064e-01,1.61837e-04,9.99999e-01,9.99999e-01,9.99999e-01,9.99925e-01,1.61849e-04,9.99999e-01
4.508639105e-01,1.92298e-04,9.99999e-01,9.99999e-01,9.99999e-01,9.99964e-01,1.92305e-04,9.99999e-01
4.531182300e-01,2.27711e-04,9.99999e-01,9.99999e-01,9.99999e-01,9.99985e-01,2.27714e-04,9.99999e-01
4.553838212e-01,2.68743e-04,9.99999e-01,9.99999e-01,9.99999e-01,9.99990e-01,2.68746e-04,9.99999e-01
4.576607403e-01,3.16132e-04,9.99999e-01,9.99999e-01,9.99999e-01,9.99995e-01,3.16134e-04,9.99999e-01
4.599490440e-01,3.70685e-04,9.99999e-01,9.99999e-01,9.99999e-01,9.99996e-01,3.70687e-04,9.99999e-01
4.622487892e-01,4.33289e-04,9.99999e-01,9.99999e-01,9.99999e-01,9.99998e-01,4.33289e-04,9.99999e-01
4.645600332e-01,5.04904e-04,9.99999e-01,9.99999e-01,9.99999e-01,9.99997e-01,5.04905e-04,9.99999e-01
4.668828333e-01,5.86562e-04,9.99999e-01,9.99999e-01,9.99999e-01,9.99964e-01,5.86583e-04,9.99999e-01
4.692172475e-01,6.79407e-04,9.99999e-01,9.99999e-01,9.99999e-01,9.99924e-01,6.79458e-04,9.99999e-01
4.715633337e-01,7.84719e-04,9.99999e-01,9.99999e-01,9.99999e-01,9.99950e-01,7.84757e-04,9.99999e-01
4.739211504e-01,9.03757e-04,9.99999e-01,9.99999e-01,9.99999e-01,9.99952e-01,9.03799e-04,9.99999e-01
4.762907561e-01,1.03797e-03,9.99999e-01,9.99999e-01,9.99999e-01,9.99975e-01,1.03800e-03,9.99999e-01
4.786722099e-01,1.18886e-03,9.99999e-01,9.99999e-01,9.99999e-01,9.99989e-01,1.18887e-03,9.99999e-01
4.810655710e-01,1.35802e-03,9.99999e-01,9.99999e-01,9.99999e-01,9.99996e-01,1.35803e-03,9.99999e-01
4.834708988e-01,1.54713e-03,9.99999e-01,9.99999e-01,9.99999e-01,9.99971e-01,1.54718e-03,9.99999e-01
4.858882533e-01,1.75805e-03,9.99999e-01,9.99999e-01,9.99999e-01,9.99946e-01,1.75814e-03,9.99999e-01
4.883176946e-01,1.99274e-03,9.99999e-01,9.99999e-01,9.99999e-01,9.99955e-01,1.99283e-03,9.99999e-01
4.907592831e-01,2.25318e-03,9.99999e-01,9.99999e-01,9.99999e-01,9.99959e-01,2.25327e-03,9.99999e-01
4.932130795e-01,2.54149e-03,9.99999e-01,9.99999e-01,9.99999e-01,9.99971e-01,2.54157e-03,9.99999e-01
4.956791449e-01,2.85990e-03,9.99999e-01,9.99999e-01,9.99999e-01,9.99984e-01,2.85994e-03,9.99999e-01
4.981575406e-01,3.21046e-03,9.99999e-01,9.99999e-01,9.99999e-01,9.99924e-01,3.21070e-03,9.99999e-01
5.006483283e-01,3.59556e-03,9.99999e-01,9.99999e-01,9.99999e-01,9.99805e-01,3.59626e-03,9.99998e-01
5.031515699e-01,4.01509e-03,9.99999e-01,9.99999e-01,9.99999e-01,9.99012e-01,4.01910e-03,9.99989e-01
5.056673278e-01,4.47942e-03,9.99999e-01,9.99999e-01,9.99999e-01,9.99478e-01,4.48181e-03,9.99987e-01
5.081956644e-01,4.98372e-03,9.99999e-01,9.99999e-01,9.99999e-01,9.99341e-01,4.98704e-03,9.99991e-01
5.107366428e-01,5.53506e-03,9.99999e-01,9.99999e-01,9.99999e-01,9.99555e-01,5.53753e-03,9.99998e-01
5.132903260e-01,6.13453e-03,9.99999e-01,9.99999e-01,9.99999e-01,9.99745e-01,6.13608e-03,9.99999e-01
5.158567776e-01,6.78484e-03,9.99999e-01,9.99999e-01,9.99999e-01,9.99892e-01,6.78556e-03,9.99999e-01
5.184360615e-01,7.48857e-03,9.99999e-01,9.99999e-01,9.99999e-01,9.99956e-01,7.48889e-03,9.99999e-01
5.210282418e-01,8.24890e-03,9.99999e-01,9.99999e-01,9.99999e-01,9.99983e-01,8.24903e-03,9.99999e-01
5.236333830e-01,9.06841e-03,9.99999e-01,9.99999e-01,9.99999e-01,9.99935e-01,9.06900e-03,9.99999e-01
5.262515499e-01,9.95141e-03,9.99999e-01,9.99999e-01,9.99999e-01,9.99959e-01,9.95182e-03,9.99998e-01
5.288828077e-01,1.09002e-02,9.99999e-01,9.99999e-01,9.99999e-01,9.99962e-01,1.09006e-02,9.99999e-01
5.315272217e-01,1.19179e-02,9.99999e-01,9.99999e-01,9.99999e-01,9.99967e-01,1.19183e-02,9.99999e-01
5.341848578e-01,1.30078e-02,9.99999e-01,9.99999e-01,9.99999e-01,9.99978e-01,1.30081e-02,9.99999e-01
5.368557821e-01,1.41720e-02,9.99999e-01,9.99999e-01,9.99999e-01,9.99924e-01,1.41730e-02,9.99999e-01
5.395400610e-01,1.54120e-02,9.99999e-01,9.99999e-01,9.99999e-01,9.99729e-01,1.54161e-02,9.99997e-01
5.422377613e-01,1.67345e-02,9.99999e-01,9.99999e-01,9.99999e-01,9.99649e-01,1.67405e-02,9.99993e-01
5.449489501e-01,1.81430e-02,9.99999e-01,9.99999e-01,9.99999e-01,9.99674e-01,1.81490e-02,9.99992e-01
5.476736949e-01,1.96389e-02,9.99999e-01,9.99999e-01,9.99999e-01,9.99711e-01,1.96447e-02,9.99996e-01
5.504120634e-01,2.12259e-02,9.99999e-01,9.99999e-01,9.99999e-01,9.99790e-01,2.12304e-02,9.99998e-01
5.531641237e-01,2.29065e-02,9.99999e-01,9.99999e-01,9.99999e-01,9.99894e-01,2.29089e-02,9.99999e-01
5.559299443e-01,2.46818e-02,9.99999e-01,9.99999e-01,9.99999e-01,9.99948e-01,2.46830e-02,9.99999e-01
5.587095940e-01,2.65545e-02,9.99999e-01,9.99999e-01,9.99999e-01,9.99967e-01,2.65554e-02,9.99999e-01
5.615031420e-01,2.85275e-02,9.99999e-01,9.99999e-01,9.99999e-01,9.99964e-01,2.85285e-02,9.99999e-01
5.643106577e-01,3.06037e-02,9.99999e-01,9.99999e-01,9.99999e-01,9.99959e-01,3.06049e-02,9.99999e-01
5.671322110e-01,3.27708e-02,9.99999e-01,9.99999e-01,9.99999e-01,9.99513e-01,3.27869e-02,9.99995e-01
5.699678720e-01,3.50580e-02,9.99999e-01,9.99999e-01,9.99999e-01,9.99478e-01,3.50767e-02,9.99986e-01
5.728177114e-01,3.74558e-02,9.99999e-01,9.99999e-01,9.99999e-01,9.99458e-01,3.74765e-02,9.99988e-01
5.756818000e-01,3.99679e-02,9.99999e-01,9.99999e-01,9.99999e-01,9.99503e-01,3.99881e-02,9.99992e-01
5.785602090e-01,4.25948e-02,9.99999e-01,9.99999e-01,9.99999e-01,9.99566e-01,4.26133e-02,9.99997e-01
5.814530100e-01,4.53342e-02,9.99999e-01,9.99999e-01,9.99999e-01,9.99564e-01,4.53540e-02,9.99998e-01
5.843602750e-01,4.81864e-02,9.99999e-01,9.99999e-01,9.99999e-01,9.99482e-01,4.82115e-02,9.99996e-01
5.872820764e-01,5.09576e-02,9.99999e-01,9.99999e-01,9.99999e-01,9.95544e-01,5.11872e-02,9.99968e-01
5.902184868e-01,5.39843e-02,9.99999e-01,9.99999e-01,9.99999e-01,9.94592e-01,5.42824e-02,9.99914e-01
5.931695792e-01,5.72737e-02,9.99999e-01,9.99999e-01,9.99999e-01,9.96180e-01,5.74980e-02,9.99917e-01
5.961354271e-01,6.05772e-02,9.99999e-01,9.99999e-01,9.99999e-01,9.95811e-01,6.08349e-02,9.99952e-01
5.991161043e-01,6.40963e-02,9.99999e-01,9.99999e-01,9.99999e-01,9.96943e-01,6.42937e-02,9.99984e-01
6.021116848e-01,6.77571e-02,9.99999e-01,9.99999e-01,9.99999e-01,9.98264e-01,6.78750e-02,9.99997e-01
6.051222432e-01,7.15163e-02,9.99999e-01,9.99999e-01,9.99999e-01,9.99121e-01,7.15792e-02,9.99999e-01
6.081478544e-01,7.53777e-02,9.99999e-01,9.99999e-01,9.99999e-01,9.99620e-01,7.54063e-02,9.99999e-01
6.111885937e-01,7.93436e-02,9.99999e-01,9.99999e-01,9.99999e-01,9.99839e-01,7.93563e-02,9.99999e-01
6.142445367e-01,8.34231e-02,9.99999e-01,9.99999e-01,9.99999e-01,9.99927e-01,8.34291e-02,9.99999e-01
6.173157594e-01,8.76208e-02,9.99999e-01,9.99999e-01,9.99999e-01,9.99960e-01,8.76242e-02,9.99999e-01
6.204023382e-01,9.19381e-02,9.99999e-01,9.99999e-01,9.99999e-01,9.99966e-01,9.19411e-02,9.99999e-01
6.235043498e-01,9.63650e-02,9.99999e-01,9.99999e-01,9.99999e-01,9.99853e-01,9.63792e-02,9.99999e-01
6.266218716e-01,1.00858e-01,9.99999e-01,9.99999e-01,9.99999e-01,9.99221e-01,1.00937e-01,9.99994e-01
6.297549810e-01,1.05583e-01,9.99999e-01,9.99999e-01,9.99999e-01,9.99714e-01,1.05615e-01,9.99988e-01
6.329037559e-01,1.10347e-01,9.99999e-01,9.99999e-01,9.99999e-01,9.99435e-01,1.10410e-01,9.99990e-01
6.360682746e-01,1.15266e-01,9.99999e-01,9.99999e-01,9.99999e-01,9.99519e-01,1.15322e-01,9.99994e-01
6.392486160e-01,1.20273e-01,9.99999e-01,9.99999e-01,9.99999e-01,9.99376e-01,1.20349e-01,9.99997e-01
6.424448591e-01,1.25384e-01,9.99999e-01,9.99999e-01,9.99999e-01,9.99168e-01,1.25489e-01,9.99995e-01
6.456570834e-01,1.30233e-01,9.99999e-01,9.99999e-01,9.99999e-01,9.96140e-01,1.30740e-01,9.99978e-01
6.488853688e-01,1.35708e-01,9.99999e-01,9.99999e-01,9.99999e-01,9.97166e-01,1.36101e-01,9.99939e-01
6.521297956e-01,1.41154e-01,9.99999e-01,9.99999e-01,9.99999e-01,9.97111e-01,1.41570e-01,9.99950e-01
6.553904446e-01,1.46716e-01,9.99999e-01,9.99999e-01,9.99999e-01,9.97128e-01,1.47143e-01,9.99962e-01
6.586673968e-01,1.52442e-01,9.99999e-01,9.99999e-01,9.99999e-01,9.97537e-01,1.52820e-01,9.99987e-01
6.619607338e-01,1.58371e-01,9.99999e-01,9.99999e-01,9.99999e-01,9.98575e-01,1.58597e-01,9.99996e-01
6.652705375e-01,1.64336e-01,9.99999e-01,9.99999e-01,9.99999e-01,9.99175e-01,1.64472e-01,9.99998e-01
6.685968902e-01,1.70376e-01,9.99999e-01,9.99999e-01,9.99999e-01,9.99616e-01,1.70441e-01,9.99999e-01
6.719398746e-01,1.76472e-01,9.99999e-01,9.99999e-01,9.99999e-01,9.99822e-01,1.76503e-01,9.99999e-01
6.752995740e-01,1.82638e-01,9.99999e-01,9.99999e-01,9.99999e-01,9.99903e-01,1.82655e-01,9.99999e-01
6.786760719e-01,1.88867e-01,9.99999e-01,9.99999e-01,9.99999e-01,9.99861e-01,1.88893e-01,9.99999e-01
6.820694522e-01,1.95168e-01,9.99999e-01,9.99999e-01,9.99999e-01,9.99762e-01,1.95215e-01,9.99998e-01
6.854797995e-01,2.01555e-01,9.99999e-01,9.99999e-01,9.99999e-01,9.99693e-01,2.01617e-01,9.99996e-01
6.889071985e-01,2.07941e-01,9.99999e-01,9.99999e-01,9.99999e-01,9.99261e-01,2.08096e-01,9.99992e-01
6.923517345e-01,2.12053e-01,9.99999e-01,9.99999e-01,9.99999e-01,9.87959e-01,2.14650e-01,9.99941e-01
6.958134932e-01,2.19850e-01,9.99999e-01,9.99999e-01,9.99999e-01,9.93694e-01,2.21274e-01,9.99868e-01
6.992925606e-01,2.26580e-01,9.99999e-01,9.99999e-01,9.99999e-01,9.94035e-01,2.27966e-01,9.99884e-01
7.027890234e-01,2.32970e-01,9.99999e-01,9.99999e-01,9.99999e-01,9.92626e-01,2.34722e-01,9.99911e-01
7.063029686e-01,2.40030e-01,9.99999e-01,9.99999e-01,9.99999e-01,9.93799e-01,2.41538e-01,9.99955e-01
7.098344834e-01,2.46928e-01,9.99999e-01,9.99999e-01,9.99999e-01,9.94049e-01,2.48413e-01,9.99973e-01
7.133836558e-01,2.53310e-01,9.99999e-01,9.99999e-01,9.99999e-01,9.92098e-01,2.55341e-01,9.99947e-01
7.169505741e-01,2.45974e-01,9.99999e-01,9.99999e-01,9.99999e-01,9.38067e-01,2.62320e-01,9.99592e-01
7.205353270e-01,2.60832e-01,9.99999e-01,9.99999e-01,9.99999e-01,9.69082e-01,2.69346e-01,9.99282e-01
7.241380036e-01,2.65475e-01,9.99999e-01,9.99999e-01,9.99999e-01,9.61013e-01,2.76416e-01,9.99380e-01
7.277586936e-01,2.73393e-01,9.99999e-01,9.99999e-01,9.99999e-01,9.64746e-01,2.83527e-01,9.99493e-01
7.313974871e-01,2.79706e-01,9.99999e-01,9.99999e-01,9.99999e-01,9.62494e-01,2.90674e-01,9.99762e-01
7.350544745e-01,2.91682e-01,9.99999e-01,9.99999e-01,9.99999e-01,9.79351e-01,2.97856e-01,9.99917e-01
7.387297469e-01,3.00408e-01,9.99999e-01,9.99999e-01,9.99999e-01,9.84764e-01,3.05067e-01,9.99961e-01
7.424233956e-01,3.09966e-01,9.99999e-01,9.99999e-01,9.99999e-01,9.92516e-01,3.12306e-01,9.99992e-01
7.461355126e-01,3.18117e-01,9.99999e-01,9.99999e-01,9.99999e-01,9.95460e-01,3.19568e-01,9.99998e-01
7.498661902e-01,3.26159e-01,9.99999e-01,9.99999e-01,9.99999e-01,9.97883e-01,3.26851e-01,9.99999e-01
7.536155211e-01,3.33804e-01,9.99999e-01,9.99999e-01,9.99999e-01,9.98961e-01,3.34151e-01,9.99999e-01
7.573835987e-01,3.41282e-01,9.99999e-01,9.99999e-01,9.99999e-01,9.99465e-01,3.41464e-01,9.99999e-01
7.611705167e-01,3.48673e-01,9.99999e-01,9.99999e-01,9.99999e-01,9.99667e-01,3.48789e-01,9.99999e-01
7.649763693e-01,3.56048e-01,9.99999e-01,9.99999e-01,9.99999e-01,9.99791e-01,3.56122e-01,9.99999e-01
7.688012511e-01,3.63406e-01,9.99999e-01,9.99999e-01,9.99999e-01,9.99854e-01,3.63459e-01,9.99999e-01
7.726452574e-01,3.70754e-01,9.99999e-01,9.99999e-01,9.99999e-01,9.99880e-01,3.70798e-01,9.99999e-01
7.765084837e-01,3.78072e-01,9.99999e-01,9.99999e-01,9.99999e-01,9.99830e-01,3.78136e-01,9.99999e-01
7.803910261e-01,3.68872e-01,9.99999e-01,9.99999e-01,9.57610e-01,9.99269e-01,3.85470e-01,9.99998e-01
7.842929812e-01,3.21984e-01,9.99999e-01,9.99999e-01,8.21689e-01,9.97452e-01,3.92797e-01,9.99994e-01
7.882144461e-01,3.22833e-01,9.99999e-01,9.99999e-01,8.10924e-01,9.94746e-01,4.00115e-01,9.99967e-01
7.921555184e-01,3.59135e-01,9.99999e-01,9.99999e-01,8.84016e-01,9.97113e-01,4.07420e-01,9.99937e-01
7.961162960e-01,3.79817e-01,9.99999e-01,9.99999e-01,9.20538e-01,9.94915e-01,4.14711e-01,9.99939e-01
8.000968774e-01,4.01081e-01,9.99999e-01,9.99999e-01,9.56124e-01,9.94120e-01,4.21984e-01,9.99936e-01
8.040973618e-01,4.16886e-01,9.99999e-01,9.99999e-01,9.77003e-01,9.94120e-01,4.29237e-01,9.99949e-01
8.081178486e-01,4.26130e-01,9.99999e-01,9.99999e-01,9.89386e-01,9.86809e-01,4.36468e-01,9.99952e-01
8.121584379e-01,4.18321e-01,9.99999e-01,9.99999e-01,9.96705e-01,9.46107e-01,4.43674e-01,9.99813e-01
8.162192301e-01,4.21497e-01,9.99999e-01,9.99999e-01,9.99271e-01,9.36204e-01,4.50853e-01,9.99301e-01
8.203003262e-01,4.42924e-01,9.99999e-01,9.99999e-01,9.99988e-01,9.67874e-01,4.58004e-01,9.99182e-01
8.244018279e-01,4.43977e-01,9.99999e-01,9.99999e-01,9.99999e-01,9.55158e-01,4.65123e-01,9.99349e-01
8.285238370e-01,4.53789e-01,9.99999e-01,9.99999e-01,9.99999e-01,9.61484e-01,4.72209e-01,9.99488e-01
8.326664562e-01,4.60490e-01,9.99999e-01,9.99999e-01,9.99999e-01,9.61039e-01,4.79259e-01,9.99788e-01
8.368297885e-01,4.72637e-01,9.99999e-01,9.99999e-01,9.99999e-01,9.72004e-01,4.86273e-01,9.99951e-01
8.410139374e-01,4.84984e-01,9.99999e-01,9.99999e-01,9.99999e-01,9.83274e-01,4.93248e-01,9.99971e-01
8.452190071e-01,4.96054e-01,9.99999e-01,9.99999e-01,9.99999e-01,9.91764e-01,5.00182e-01,9.99982e-01
8.494451021e-01,5.04642e-01,9.99999e-01,9.99999e-01,9.99999e-01,9.95219e-01,5.07073e-01,9.99985e-01
8.536923276e-01,5.12462e-01,9.99999e-01,9.99999e-01,9.99999e-01,9.97168e-01,5.13921e-01,9.99991e-01
8.579607893e-01,5.19814e-01,9.99999e-01,9.99999e-01,9.99999e-01,9.98256e-01,5.20723e-01,9.99997e-01
8.622505932e-01,5.26894e-01,9.99999e-01,9.99999e-01,9.99999e-01,9.98891e-01,5.27478e-01,9.99999e-01
8.665618462e-01,4.87743e-01,9.99999e-01,9.99999e-01,9.13657e-01,9.99314e-01,5.34185e-01,9.99999e-01
8.708946554e-01,3.29451e-01,9.99999e-01,9.99999e-01,6.09600e-01,9.99215e-01,5.40842e-01,9.99999e-01
8.752491287e-01,3.66023e-01,9.99999e-01,9.99999e-01,6.69275e-01,9.98951e-01,5.47448e-01,9.99998e-01
8.796253743e-01,4.43177e-01,9.99999e-01,9.99999e-01,8.01077e-01,9.98548e-01,5.54002e-01,9.99996e-01
8.840235012e-01,4.98632e-01,9.99999e-01,9.99999e-01,8.91074e-01,9.98341e-01,5.60502e-01,9.99989e-01
8.884436187e-01,5.38485e-01,9.99999e-01,9.99999e-01,9.55497e-01,9.93985e-01,5.66949e-01,9.99970e-01
8.928858368e-01,5.28118e-01,9.99999e-01,9.99999e-01,9.81736e-01,9.38223e-01,5.73339e-01,9.99833e-01
8.973502660e-01,5.15025e-01,9.99999e-01,9.99999e-01,9.95529e-01,8.93116e-01,5.79674e-01,9.99150e-01
9.018370173e-01,5.52050e-01,9.99999e-01,9.99999e-01,9.99506e-01,9.43849e-01,5.85951e-01,9.98664e-01
9.063462024e-01,5.55501e-01,9.99999e-01,9.99999e-01,9.87507e-01,9.50574e-01,5.92170e-01,9.98827e-01
9.108779334e-01,5.36557e-01,9.99999e-01,9.99999e-01,9.71348e-01,9.23908e-01,5.98331e-01,9.98781e-01
9.154323231e-01,5.48213e-01,9.99999e-01,9.99999e-01,9.93188e-01,9.13955e-01,6.04432e-01,9.98992e-01
9.200094847e-01,5.18530e-01,9.99999e-01,9.99999e-01,9.07689e-01,9.31944e-01,6.10473e-01,9.99435e-01
9.246095321e-01,4.80654e-01,9.99999e-01,9.99999e-01,8.67508e-01,8.96524e-01,6.16453e-01,9.99349e-01
9.292325798e-01,2.72919e-01,9.99999e-01,9.99999e-01,8.95096e-01,4.84228e-01,6.22372e-01,9.97468e-01
9.338787427e-01,2.22148e-01,9.99999e-01,9.99999e-01,8.98026e-01,3.92468e-01,6.28229e-01,9.89578e-01
9.385481364e-01,3.98566e-01,9.99999e-01,9.99999e-01,9.23923e-01,6.84985e-01,6.34024e-01,9.87617e-01
9.432408771e-01,3.59536e-01,9.99999e-01,9.99999e-01,9.52654e-01,5.94320e-01,6.39756e-01,9.89307e-01
9.479570815e-01,3.06236e-01,9.99999e-01,9.99999e-01,9.75435e-01,4.89884e-01,6.45426e-01,9.91289e-01
9.526968669e-01,3.72929e-01,9.99999e-01,9.99999e-01,9.88078e-01,5.82088e-01,6.51032e-01,9.94677e-01
9.574603512e-01,3.93956e-01,9.99999e-01,9.99999e-01,9.94884e-01,6.04477e-01,6.56575e-01,9.97292e-01
9.622476530e-01,4.37283e-01,9.99999e-01,9.99999e-01,9.98401e-01,6.62712e-01,6.62054e-01,9.98127e-01
9.670588912e-01,5.25479e-01,9.99999e-01,9.99999e-01,9.99520e-01,7.88634e-01,6.67469e-01,9.98718e-01
9.718941857e-01,5.79111e-01,9.99999e-01,9.99999e-01,9.99965e-01,8.61560e-01,6.72820e-01,9.99056e-01
9.767536566e-01,5.98766e-01,9.99999e-01,9.99999e-01,9.99999e-01,8.83633e-01,6.78107e-01,9.99278e-01
9.816374249e-01,6.23247e-01,9.99999e-01,9.99999e-01,9.99999e-01,9.12300e-01,6.83330e-01,9.99750e-01
9.865456120e-01,6.50072e-01,9.99999e-01,9.99999e-01,9.99999e-01,9.44249e-01,6.88489e-01,9.99947e-01
9.914783401e-01,6.69413e-01,9.99999e-01,9.99999e-01,9.99999e-01,9.65164e-01,6.93584e-01,9.99985e-01
9.964357318e-01,6.85250e-01,9.99999e-01,9.99999e-01,9.99999e-01,9.80878e-01,6.98614e-01,9.99991e-01
1.001417910e+00,6.95479e-01,9.99999e-01,9.99999e-01,9.99999e-01,9.88496e-01,7.03581e-01,9.99986e-01
1.006425000e+00,7.03817e-01,9.99999e-01,9.99999e-01,9.99999e-01,9.93430e-01,7.08484e-01,9.99981e-01
1.011457125e+00,7.10398e-01,9.99999e-01,9.99999e-01,9.99999e-01,9.95915e-01,7.13323e-01,9.99982e-01
1.016514411e+00,7.16099e-01,9.99999e-01,9.99999e-01,9.99999e-01,9.97226e-01,7.18099e-01,9.99987e-01
1.021596983e+00,7.21159e-01,9.99999e-01,9.99999e-01,9.99934e-01,9.97789e-01,7.22812e-01,9.99987e-01
1.026704968e+00,7.22653e-01,9.99999e-01,9.99999e-01,9.95109e-01,9.98276e-01,7.27461e-01,9.99991e-01
1.031838492e+00,6.92797e-01,9.99999e-01,9.99999e-01,9.47531e-01,9.98746e-01,7.32048e-01,9.99997e-01
1.036997685e+00,8.80396e-02,9.99999e-01,9.99999e-01,1.19596e-01,9.99255e-01,7.36572e-01,9.99999e-01
1.042182673e+00,4.91925e-02,9.99999e-01,9.99999e-01,6.64344e-02,9.99113e-01,7.41034e-01,9.99999e-01
1.047393587e+00,6.81267e-02,9.99999e-01,9.99999e-01,9.14860e-02,9.98823e-01,7.45433e-01,9.99999e-01
1.052630555e+00,7.62424e-04,9.99999e-01,9.99999e-01,1.01804e-03,9.98386e-01,7.49772e-01,9.99999e-01
1.057893707e+00,2.20808e-03,9.99999e-01,9.99999e-01,2.93330e-03,9.97308e-01,7.54049e-01,9.99998e-01
1.063183176e+00,9.99162e-03,9.99999e-01,9.99999e-01,1.32168e-02,9.95572e-01,7.58265e-01,9.99997e-01
1.068499092e+00,3.55174e-02,9.99999e-01,9.99999e-01,4.68653e-02,9.92592e-01,7.62421e-01,9.99994e-01
1.073841587e+00,1.09336e-01,9.99999e-01,9.99999e-01,1.43668e-01,9.91339e-01,7.66517e-01,9.99988e-01
