#,Wave/freq,Total,N2,Rayleigh,CIA
4.000000000e-01,9.20500e-04,9.99999e-01,9.20500e-04,9.99999e-01
4.020000000e-01,1.05695e-03,9.99999e-01,1.05695e-03,9.99999e-01
4.040100000e-01,1.21015e-03,9.99999e-01,1.21015e-03,9.99999e-01
4.060300500e-01,1.38184e-03,9.99999e-01,1.38184e-03,9.99999e-01
4.080602003e-01,1.57377e-03,9.99999e-01,1.57377e-03,9.99999e-01
4.101005013e-01,1.78776e-03,9.99999e-01,1.78776e-03,9.99999e-01
4.121510038e-01,2.02574e-03,9.99999e-01,2.02574e-03,9.99999e-01
4.142117588e-01,2.28973e-03,9.99999e-01,2.28973e-03,9.99999e-01
4.162828176e-01,2.58187e-03,9.99999e-01,2.58187e-03,9.99999e-01
4.183642317e-01,2.90440e-03,9.99999e-01,2.90440e-03,9.99999e-01
4.204560528e-01,3.25962e-03,9.99999e-01,3.25962e-03,9.99999e-01
4.225583331e-01,3.64996e-03,9.99999e-01,3.64996e-03,9.99999e-01
4.246711247e-01,4.07792e-03,9.99999e-01,4.07792e-03,9.99999e-01
4.267944804e-01,4.54609e-03,9.99999e-01,4.54609e-03,9.99999e-01
4.289284528e-01,5.05715e-03,9.99999e-01,5.05715e-03,9.99999e-01
4.310730950e-01,5.61383e-03,9.99999e-01,5.61383e-03,9.99999e-01
4.332284605e-01,6.21895e-03,9.99999e-01,6.21895e-03,9.99999e-01
4.353946028e-01,6.87538e-03,9.99999e-01,6.87538e-03,9.99999e-01
4.375715758e-01,7.58604e-03,9.99999e-01,7.58604e-03,9.99999e-01
4.397594337e-01,8.35392e-03,9.99999e-01,8.35392e-03,9.99999e-01
4.419582309e-01,9.18202e-03,9.99999e-01,9.18202e-03,9.99999e-01
4.441680220e-01,1.00734e-02,9.99999e-01,1.00734e-02,9.99999e-01
4.463888621e-01,1.10311e-02,9.99999e-01,1.10311e-02,9.99999e-01
4.486208064e-01,1.20581e-02,9.99999e-01,1.20581e-02,9.99999e-01
4.508639105e-01,1.31577e-02,9.99999e-01,1.31577e-02,9.99999e-01
4.531182300e-01,1.43328e-02,9.99999e-01,1.43328e-02,9.99999e-01
4.553838212e-01,1.55865e-02,9.99999e-01,1.55865e-02,9.99999e-01
4.576607403e-01,1.69218e-02,9.99999e-01,1.69218e-02,9.99999e-01
4.599490440e-01,1.83416e-02,9.99999e-01,1.83416e-02,9.99999e-01
4.622487892e-01,1.98490e-02,9.99999e-01,1.98490e-02,9.99999e-01
4.645600332e-01,2.14468e-02,9.99999e-01,2.14468e-02,9.99999e-01
4.668828333e-01,2.31379e-02,9.99999e-01,2.31379e-02,9.99999e-01
4.692172475e-01,2.49248e-02,9.99999e-01,2.49248e-02,9.99999e-01
4.715633337e-01,2.68103e-02,9.99999e-01,2.68103e-02,9.99999e-01
4.739211504e-01,2.87970e-02,9.99999e-01,2.87970e-02,9.99999e-01
4.762907561e-01,3.08872e-02,9.99999e-01,3.08872e-02,9.99999e-01
4.786722099e-01,3.30833e-02,9.99999e-01,3.30833e-02,9.99999e-01
4.810655710e-01,3.53876e-02,9.99999e-01,3.53876e-02,9.99999e-01
4.834708988e-01,3.78020e-02,9.99999e-01,3.78020e-02,9.99999e-01
4.858882533e-01,4.03285e-02,9.99999e-01,4.03285e-02,9.99999e-01
4.883176946e-01,4.29690e-02,9.99999e-01,4.29690e-02,9.99999e-01
4.907592831e-01,4.57250e-02,9.99999e-01,4.57250e-02,9.99999e-01
4.932130795e-01,4.85980e-02,9.99999e-01,4.85980e-02,9.99999e-01
4.956791449e-01,5.15895e-02,9.99999e-01,5.15895e-02,9.99999e-01
4.981575406e-01,5.47005e-02,9.99999e-01,5.47005e-02,9.99999e-01
5.006483283e-01,5.79321e-02,9.99999e-01,5.79321e-02,9.99999e-01
5.031515699e-01,6.12850e-02,9.99999e-01,6.12850e-02,9.99999e-01
5.056673278e-01,6.47601e-02,9.99999e-01,6.47601e-02,9.99999e-01
5.081956644e-01,6.83576e-02,9.99999e-01,6.83576e-02,9.99999e-01
5.107366428e-01,7.20780e-02,9.99999e-01,7.20780e-02,9.99999e-01
5.132903260e-01,7.59214e-02,9.99999e-01,7.59214e-02,9.99999e-01
5.158567776e-01,7.98876e-02,9.99999e-01,7.98876e-02,9.99999e-01
5.184360615e-01,8.39766e-02,9.99999e-01,8.39766e-02,9.99999e-01
5.210282418e-01,8.81879e-02,9.99999e-01,8.81879e-02,9.99999e-01
5.236333830e-01,9.25208e-02,9.99999e-01,9.25208e-02,9.99999e-01
5.262515499e-01,9.69748e-02,9.99999e-01,9.69748e-02,9.99999e-01
5.288828077e-01,1.01549e-01,9.99999e-01,1.01549e-01,9.99999e-01
5.315272217e-01,1.06242e-01,9.99999e-01,1.06242e-01,9.99999e-01
5.341848578e-01,1.11053e-01,9.99999e-01,1.11053e-01,9.99999e-01
5.368557821e-01,1.15980e-01,9.99999e-01,1.15980e-01,9.99999e-01
5.395400610e-01,1.21021e-01,9.99999e-01,1.21021e-01,9.99999e-01
5.422377613e-01,1.26176e-01,9.99999e-01,1.26176e-01,9.99999e-01
5.449489501e-01,1.31443e-01,9.99999e-01,1.31443e-01,9.99999e-01
5.476736949e-01,1.36818e-01,9.99999e-01,1.36818e-01,9.99999e-01
5.504120634e-01,1.42301e-01,9.99999e-01,1.42301e-01,9.99999e-01
5.531641237e-01,1.47888e-01,9.99999e-01,1.47888e-01,9.99999e-01
5.559299443e-01,1.53578e-01,9.99999e-01,1.53578e-01,9.99999e-01
5.587095940e-01,1.59368e-01,9.99999e-01,1.59368e-01,9.99999e-01
5.615031420e-01,1.65255e-01,9.99999e-01,1.65255e-01,9.99999e-01
5.643106577e-01,1.71237e-01,9.99999e-01,1.71237e-01,9.99999e-01
5.671322110e-01,1.77312e-01,9.99999e-01,1.77312e-01,9.99999e-01
5.699678720e-01,1.83475e-01,9.99999e-01,1.83475e-01,9.99999e-01
5.728177114e-01,1.89724e-01,9.99999e-01,1.89724e-01,9.99999e-01
5.756818000e-01,1.96057e-01,9.99999e-01,1.96057e-01,9.99999e-01
5.785602090e-01,2.02469e-01,9.99999e-01,2.02469e-01,9.99999e-01
5.814530100e-01,2.08958e-01,9.99999e-01,2.08958e-01,9.99999e-01
5.843602750e-01,2.15521e-01,9.99999e-01,2.15521e-01,9.99999e-01
5.872820764e-01,2.22155e-01,9.99999e-01,2.22155e-01,9.99999e-01
5.902184868e-01,2.28855e-01,9.99999e-01,2.28855e-01,9.99999e-01
5.931695792e-01,2.35619e-01,9.99999e-01,2.35619e-01,9.99999e-01
5.961354271e-01,2.42444e-01,9.99999e-01,2.42444e-01,9.99999e-01
5.991161043e-01,2.49325e-01,9.99999e-01,2.49325e-01,9.99999e-01
6.021116848e-01,2.56261e-01,9.99999e-01,2.56261e-01,9.99999e-01
6.051222432e-01,2.63246e-01,9.99999e-01,2.63246e-01,9.99999e-01
6.081478544e-01,2.70278e-01,9.99999e-01,2.70278e-01,9.99999e-01
6.111885937e-01,2.77354e-01,9.99999e-01,2.77354e-01,9.99999e-01
6.142445367e-01,2.84470e-01,9.99999e-01,2.84470e-01,9.99999e-01
6.173157594e-01,2.91622e-01,9.99999e-01,2.91622e-01,9.99999e-01
6.204023382e-01,2.98807e-01,9.99999e-01,2.98807e-01,9.99999e-01
6.235043498e-01,3.06023e-01,9.99999e-01,3.06023e-01,9.99999e-01
6.266218716e-01,3.13264e-01,9.99999e-01,3.13264e-01,9.99999e-01
6.297549810e-01,3.20530e-01,9.99999e-01,3.20530e-01,9.99999e-01
6.329037559e-01,3.27815e-01,9.99999e-01,3.27815e-01,9.99999e-01
6.360682746e-01,3.35117e-01,9.99999e-01,3.35117e-01,9.99999e-01
6.392486160e-01,3.42432e-01,9.99999e-01,3.42432e-01,9.99999e-01
6.424448591e-01,3.49758e-01,9.99999e-01,3.49758e-01,9.99999e-01
6.456570834e-01,3.57091e-01,9.99999e-01,3.57091e-01,9.99999e-01
6.488853688e-01,3.64429e-01,9.99999e-01,3.64429e-01,9.99999e-01
6.521297956e-01,3.71768e-01,9.99999e-01,3.71768e-01,9.99999e-01
6.553904446e-01,3.79106e-01,9.99999e-01,3.79106e-01,9.99999e-01
6.586673968e-01,3.86439e-01,9.99999e-01,3.86439e-01,9.99999e-01
6.619607338e-01,3.93765e-01,9.99999e-01,3.93765e-01,9.99999e-01
6.652705375e-01,4.01081e-01,9.99999e-01,4.01081e-01,9.99999e-01
6.685968902e-01,4.08385e-01,9.99999e-01,4.08385e-01,9.99999e-01
6.719398746e-01,4.15673e-01,9.99999e-01,4.15673e-01,9.99999e-01
6.752995740e-01,4.22943e-01,9.99999e-01,4.22943e-01,9.99999e-01
6.786760719e-01,4.30194e-01,9.99999e-01,4.30194e-01,9.99999e-01
6.820694522e-01,4.37422e-01,9.99999e-01,4.37422e-01,9.99999e-01
6.854797995e-01,4.44624e-01,9.99999e-01,4.44624e-01,9.99999e-01
6.889071985e-01,4.51800e-01,9.99999e-01,4.51800e-01,9.99999e-01
6.923517345e-01,4.58946e-01,9.99999e-01,4.58946e-01,9.99999e-01
6.958134932e-01,4.66061e-01,9.99999e-01,4.66061e-01,9.99999e-01
6.992925606e-01,4.73143e-01,9.99999e-01,4.73143e-01,9.99999e-01
7.027890234e-01,4.80189e-01,9.99999e-01,4.80189e-01,9.99999e-01
7.063029686e-01,4.87197e-01,9.99999e-01,4.87197e-01,9.99999e-01
7.098344834e-01,4.94166e-01,9.99999e-01,4.94166e-01,9.99999e-01
7.133836558e-01,5.01095e-01,9.99999e-01,5.01095e-01,9.99999e-01
7.169505741e-01,5.07981e-01,9.99999e-01,5.07981e-01,9.99999e-01
7.205353270e-01,5.14823e-01,9.99999e-01,5.14823e-01,9.99999e-01
7.241380036e-01,5.21619e-01,9.99999e-01,5.21619e-01,9.99999e-01
7.277586936e-01,5.28367e-01,9.99999e-01,5.28367e-01,9.99999e-01
7.313974871e-01,5.35068e-01,9.99999e-01,5.35068e-01,9.99999e-01
7.350544745e-01,5.41718e-01,9.99999e-01,5.41718e-01,9.99999e-01
7.387297469e-01,5.48317e-01,9.99999e-01,5.48317e-01,9.99999e-01
7.424233956e-01,5.54864e-01,9.99999e-01,5.54864e-01,9.99999e-01
7.461355126e-01,5.61358e-01,9.99999e-01,5.61358e-01,9.99999e-01
7.498661902e-01,5.67797e-01,9.99999e-01,5.67797e-01,9.99999e-01
7.536155211e-01,5.74180e-01,9.99999e-01,5.74180e-01,9.99999e-01
7.573835987e-01,5.80507e-01,9.99999e-01,5.80507e-01,9.99999e-01
7.611705167e-01,5.86777e-01,9.99999e-01,5.86777e-01,9.99999e-01
7.649763693e-01,5.92988e-01,9.99999e-01,5.92988e-01,9.99999e-01
7.688012511e-01,5.99141e-01,9.99999e-01,5.99141e-01,9.99999e-01
7.726452574e-01,6.05234e-01,9.99999e-01,6.05234e-01,9.99999e-01
7.765084837e-01,6.11267e-01,9.99999e-01,6.11267e-01,9.99999e-01
7.803910261e-01,6.17239e-01,9.99999e-01,6.17239e-01,9.99999e-01
7.842929812e-01,6.23150e-01,9.99999e-01,6.23150e-01,9.99999e-01
7.882144461e-01,6.28999e-01,9.99999e-01,6.28999e-01,9.99999e-01
7.921555184e-01,6.34785e-01,9.99999e-01,6.34785e-01,9.99999e-01
7.961162960e-01,6.40509e-01,9.99999e-01,6.40509e-01,9.99999e-01
8.000968774e-01,6.46170e-01,9.99999e-01,6.46170e-01,9.99999e-01
8.040973618e-01,6.51768e-01,9.99999e-01,6.51768e-01,9.99999e-01
8.081178486e-01,6.57302e-01,9.99999e-01,6.57302e-01,9.99999e-01
8.121584379e-01,6.62773e-01,9.99999e-01,6.62773e-01,9.99999e-01
8.162192301e-01,6.68180e-01,9.99999e-01,6.68180e-01,9.99999e-01
8.203003262e-01,6.73522e-01,9.99999e-01,6.73522e-01,9.99999e-01
8.244018279e-01,6.78801e-01,9.99999e-01,6.78801e-01,9.99999e-01
8.285238370e-01,6.84016e-01,9.99999e-01,6.84016e-01,9.99999e-01
8.326664562e-01,6.89166e-01,9.99999e-01,6.89166e-01,9.99999e-01
8.368297885e-01,6.94252e-01,9.99999e-01,6.94252e-01,9.99999e-01
8.410139374e-01,6.99275e-01,9.99999e-01,6.99275e-01,9.99999e-01
8.452190071e-01,7.04233e-01,9.99999e-01,7.04233e-01,9.99999e-01
8.494451021e-01,7.09128e-01,9.99999e-01,7.09128e-01,9.99999e-01
8.536923276e-01,7.13958e-01,9.99999e-01,7.13958e-01,9.99999e-01
8.579607893e-01,7.18726e-01,9.99999e-01,7.18726e-01,9.99999e-01
8.622505932e-01,7.23430e-01,9.99999e-01,7.23430e-01,9.99999e-01
8.665618462e-01,7.28071e-01,9.99999e-01,7.28071e-01,9.99999e-01
8.708946554e-01,7.32649e-01,9.99999e-01,7.32649e-01,9.99999e-01
8.752491287e-01,7.37165e-01,9.99999e-01,7.37165e-01,9.99999e-01
8.796253743e-01,7.41619e-01,9.99999e-01,7.41619e-01,9.99999e-01
8.840235012e-01,7.46010e-01,9.99999e-01,7.46010e-01,9.99999e-01
8.884436187e-01,7.50341e-01,9.99999e-01,7.50341e-01,9.99999e-01
8.928858368e-01,7.54610e-01,9.99999e-01,7.54610e-01,9.99999e-01
8.973502660e-01,7.58818e-01,9.99999e-01,7.58818e-01,9.99999e-01
9.018370173e-01,7.62966e-01,9.99999e-01,7.62966e-01,9.99999e-01
9.063462024e-01,7.67054e-01,9.99999e-01,7.67054e-01,9.99999e-01
9.108779334e-01,7.71083e-01,9.99999e-01,7.71083e-01,9.99999e-01
9.154323231e-01,7.75052e-01,9.99999e-01,7.75052e-01,9.99999e-01
9.200094847e-01,7.78963e-01,9.99999e-01,7.78963e-01,9.99999e-01
9.246095321e-01,7.82816e-01,9.99999e-01,7.82816e-01,9.99999e-01
9.292325798e-01,7.86612e-01,9.99999e-01,7.86612e-01,9.99999e-01
9.338787427e-01,7.90350e-01,9.99999e-01,7.90350e-01,9.99999e-01
9.385481364e-01,7.94031e-01,9.99999e-01,7.94031e-01,9.99999e-01
9.432408771e-01,7.97657e-01,9.99999e-01,7.97657e-01,9.99999e-01
9.479570815e-01,8.01227e-01,9.99999e-01,8.01227e-01,9.99999e-01
9.526968669e-01,8.04742e-01,9.99999e-01,8.04742e-01,9.99999e-01
9.574603512e-01,8.08202e-01,9.99999e-01,8.08202e-01,9.99999e-01
9.622476530e-01,8.11609e-01,9.99999e-01,8.11609e-01,9.99999e-01
9.670588912e-01,8.14962e-01,9.99999e-01,8.14962e-01,9.99999e-01
9.718941857e-01,8.18262e-01,9.99999e-01,8.18262e-01,9.99999e-01
9.767536566e-01,8.21511e-01,9.99999e-01,8.21511e-01,9.99999e-01
9.816374249e-01,8.24707e-01,9.99999e-01,8.24707e-01,9.99999e-01
9.865456120e-01,8.27853e-01,9.99999e-01,8.27853e-01,9.99999e-01
9.914783401e-01,8.30948e-01,9.99999e-01,8.30948e-01,9.99999e-01
9.964357318e-01,8.33993e-01,9.99999e-01,8.33993e-01,9.99999e-01
1.001417910e+00,8.36988e-01,9.99999e-01,8.36988e-01,9.99999e-01
1.006425000e+00,8.39936e-01,9.99999e-01,8.39936e-01,9.99999e-01
1.011457125e+00,8.42834e-01,9.99999e-01,8.42834e-01,9.99999e-01
1.016514411e+00,8.45686e-01,9.99999e-01,8.45686e-01,9.99999e-01
1.021596983e+00,8.48490e-01,9.99999e-01,8.48490e-01,9.99999e-01
1.026704968e+00,8.51248e-01,9.99999e-01,8.51248e-01,9.99999e-01
1.031838492e+00,8.53960e-01,9.99999e-01,8.53960e-01,9.99999e-01
1.036997685e+00,8.56628e-01,9.99999e-01,8.56628e-01,9.99999e-01
1.042182673e+00,8.59250e-01,9.99999e-01,8.59250e-01,9.99999e-01
1.047393587e+00,8.61829e-01,9.99999e-01,8.61829e-01,9.99999e-01
1.052630555e+00,8.64364e-01,9.99999e-01,8.64364e-01,9.99999e-01
1.057893707e+00,8.66856e-01,9.99999e-01,8.66856e-01,9.99999e-01
1.063183176e+00,8.69306e-01,9.99999e-01,8.69306e-01,9.99999e-01
1.068499092e+00,8.71714e-01,9.99999e-01,8.71714e-01,9.99999e-01
1.073841587e+00,8.74081e-01,9.99999e-01,8.74081e-01,9.99999e-01
1.079210795e+00,8.76407e-01,9.99999e-01,8.76408e-01,9.99999e-01
1.084606849e+00,8.78694e-01,9.99999e-01,8.78695e-01,9.99999e-01
1.090029883e+00,8.80942e-01,9.99999e-01,8.80942e-01,9.99999e-01
1.095480033e+00,8.83150e-01,9.99999e-01,8.83150e-01,9.99999e-01
1.100957433e+00,8.85321e-01,9.99999e-01,8.85321e-01,9.99999e-01
1.106462220e+00,8.87453e-01,9.99999e-01,8.87453e-01,9.99999e-01
1.111994531e+00,8.89549e-01,9.99999e-01,8.89549e-01,9.99999e-01
1.117554504e+00,8.91608e-01,9.99999e-01,8.91608e-01,9.99999e-01
1.123142276e+00,8.93630e-01,9.99999e-01,8.93630e-01,9.99999e-01
1.128757988e+00,8.95618e-01,9.99999e-01,8.95618e-01,9.99999e-01
1.134401778e+00,8.97570e-01,9.99999e-01,8.97570e-01,9.99999e-01
1.140073787e+00,8.99488e-01,9.99999e-01,8.99488e-01,9.99999e-01
1.145774156e+00,9.01372e-01,9.99999e-01,9.01372e-01,9.99999e-01
1.151503026e+00,9.03223e-01,9.99999e-01,9.03223e-01,9.99999e-01
1.157260541e+00,9.05040e-01,9.99999e-01,9.05040e-01,9.99999e-01
1.163046844e+00,9.06826e-01,9.99999e-01,9.06826e-01,9.99999e-01
1.168862078e+00,9.08579e-01,9.99999e-01,9.08579e-01,9.99999e-01
1.174706389e+00,9.10302e-01,9.99999e-01,9.10302e-01,9.99999e-01
1.180579921e+00,9.11993e-01,9.99999e-01,9.11993e-01,9.99999e-01
1.186482820e+00,9.13654e-01,9.99999e-01,9.13654e-01,9.99999e-01
1.192415234e+00,9.15285e-01,9.99999e-01,9.15285e-01,9.99999e-01
1.198377311e+00,9.16887e-01,9.99999e-01,9.16887e-01,9.99999e-01
1.204369197e+00,9.18460e-01,9.99999e-01,9.18460e-01,9.99999e-01
1.210391043e+00,9.20004e-01,9.99999e-01,9.20004e-01,9.99999e-01
1.216442998e+00,9.21520e-01,9.99999e-01,9.21520e-01,9.99999e-01
1.222525213e+00,9.23009e-01,9.99999e-01,9.23009e-01,9.99999e-01
1.228637839e+00,9.24471e-01,9.99999e-01,9.24471e-01,9.99999e-01
1.234781029e+00,9.25906e-01,9.99999e-01,9.25906e-01,9.99999e-01
1.240954934e+00,9.27315e-01,9.99999e-01,9.27315e-01,9.99999e-01
1.247159708e+00,9.28698e-01,9.99999e-01,9.28698e-01,9.99999e-01
1.253395507e+00,9.30056e-01,9.99999e-01,9.30056e-01,9.99999e-01
1.259662485e+00,9.31389e-01,9.99999e-01,9.31389e-01,9.99999e-01
1.265960797e+00,9.32698e-01,9.99999e-01,9.32698e-01,9.99999e-01
1.272290601e+00,9.33982e-01,9.99999e-01,9.33982e-01,9.99999e-01
1.278652054e+00,9.35243e-01,9.99999e-01,9.35243e-01,9.99999e-01
1.285045314e+00,9.36481e-01,9.99999e-01,9.36481e-01,9.99999e-01
1.291470541e+00,9.37696e-01,9.99999e-01,9.37696e-01,9.99999e-01
1.297927893e+00,9.38888e-01,9.99999e-01,9.38888e-01,9.99999e-01
1.304417533e+00,9.40058e-01,9.99999e-01,9.40058e-01,9.99999e-01
1.310939621e+00,9.41206e-01,9.99999e-01,9.41206e-01,9.99999e-01
1.317494319e+00,9.42334e-01,9.99999e-01,9.42334e-01,9.99999e-01
1.324081790e+00,9.43440e-01,9.99999e-01,9.43440e-01,9.99999e-01
1.330702199e+00,9.44525e-01,9.99999e-01,9.44525e-01,9.99999e-01
1.337355710e+00,9.45591e-01,9.99999e-01,9.45591e-01,9.99999e-01
1.344042489e+00,9.46636e-01,9.99999e-01,9.46636e-01,9.99999e-01
1.350762701e+00,9.47662e-01,9.99999e-01,9.47662e-01,9.99999e-01
1.357516515e+00,9.48669e-01,9.99999e-01,9.48669e-01,9.99999e-01
1.364304097e+00,9.49657e-01,9.99999e-01,9.49657e-01,9.99999e-01
1.371125618e+00,9.50626e-01,9.99999e-01,9.50626e-01,9.99999e-01
1.377981246e+00,9.51578e-01,9.99999e-01,9.51578e-01,9.99999e-01
1.384871152e+00,9.52511e-01,9.99999e-01,9.52511e-01,9.99999e-01
1.391795508e+00,9.53427e-01,9.99999e-01,9.53427e-01,9.99999e-01
1.398754485e+00,9.54325e-01,9.99999e-01,9.54325e-01,9.99999e-01
1.405748258e+00,9.55206e-01,9.99998e-01,9.55207e-01,9.99999e-01
1.412776999e+00,9.56069e-01,9.99996e-01,9.56072e-01,9.99999e-01
1.419840884e+00,9.56916e-01,9.99994e-01,9.56921e-01,9.99999e-01
1.426940089e+00,9.57747e-01,9.99993e-01,9.57753e-01,9.99999e-01
1.434074789e+00,9.58565e-01,9.99994e-01,9.58570e-01,9.99999e-01
1.441245163e+00,9.59369e-01,9.99996e-01,9.59372e-01,9.99999e-01
1.448451389e+00,9.60150e-01,9.99991e-01,9.60158e-01,9.99999e-01
1.455693646e+00,9.60926e-01,9.99995e-01,9.60929e-01,9.99999e-01
1.462972114e+00,9.61684e-01,9.99997e-01,9.61686e-01,9.99999e-01
1.470286975e+00,9.62427e-01,9.99997e-01,9.62429e-01,9.99999e-01
1.477638409e+00,9.63156e-01,9.99998e-01,9.63157e-01,9.99999e-01
1.485026601e+00,9.63871e-01,9.99998e-01,9.63871e-01,9.99999e-01
1.492451734e+00,9.64572e-01,9.99999e-01,9.64572e-01,9.99999e-01
1.499913993e+00,9.65259e-01,9.99999e-01,9.65259e-01,9.99999e-01
1.507413563e+00,9.65934e-01,9.99999e-01,9.65934e-01,9.99999e-01
1.514950631e+00,9.66595e-01,9.99999e-01,9.66595e-01,9.99999e-01
1.522525384e+00,9.67244e-01,9.99999e-01,9.67244e-01,9.99999e-01
1.530138011e+00,9.67881e-01,9.99999e-01,9.67881e-01,9.99999e-01
1.537788701e+00,9.68505e-01,9.99999e-01,9.68505e-01,9.99999e-01
1.545477645e+00,9.69117e-01,9.99999e-01,9.69117e-01,9.99999e-01
1.553205033e+00,9.69718e-01,9.99999e-01,9.69718e-01,9.99999e-01
1.560971058e+00,9.70307e-01,9.99999e-01,9.70307e-01,9.99999e-01
1.568775913e+00,9.70885e-01,9.99999e-01,9.70885e-01,9.99999e-01
1.576619793e+00,9.71452e-01,9.99999e-01,9.71452e-01,9.99999e-01
1.584502892e+00,9.72008e-01,9.99999e-01,9.72008e-01,9.99999e-01
1.592425406e+00,9.72553e-01,9.99999e-01,9.72553e-01,9.99999e-01
1.600387533e+00,9.73088e-01,9.99999e-01,9.73088e-01,9.99999e-01
1.608389471e+00,9.73612e-01,9.99999e-01,9.73612e-01,9.99999e-01
1.616431418e+00,9.74127e-01,9.99999e-01,9.74127e-01,9.99999e-01
1.624513575e+00,9.74631e-01,9.99999e-01,9.74631e-01,9.99999e-01
1.632636143e+00,9.75126e-01,9.99999e-01,9.75126e-01,9.99999e-01
1.640799324e+00,9.75611e-01,9.99999e-01,9.75611e-01,9.99999e-01
1.649003321e+00,9.76087e-01,9.99999e-01,9.76087e-01,9.99999e-01
1.657248337e+00,9.76554e-01,9.99999e-01,9.76554e-01,9.99999e-01
1.665534579e+00,9.77012e-01,9.99999e-01,9.77012e-01,9.99999e-01
1.673862252e+00,9.77461e-01,9.99999e-01,9.77461e-01,9.99999e-01
1.682231563e+00,9.77901e-01,9.99999e-01,9.77901e-01,9.99999e-01
1.690642721e+00,9.78332e-01,9.99999e-01,9.78332e-01,9.99999e-01
1.699095934e+00,9.78756e-01,9.99999e-01,9.78756e-01,9.99999e-01
1.707591414e+00,9.79171e-01,9.99999e-01,9.79171e-01,9.99999e-01
1.716129371e+00,9.79578e-01,9.99999e-01,9.79578e-01,9.99999e-01
1.724710018e+00,9.79978e-01,9.99999e-01,9.79978e-01,9.99999e-01
1.733333568e+00,9.80369e-01,9.99999e-01,9.80369e-01,9.99999e-01
1.742000236e+00,9.80753e-01,9.99999e-01,9.80753e-01,9.99999e-01
1.750710237e+00,9.81130e-01,9.99999e-01,9.81130e-01,9.99999e-01
1.759463788e+00,9.81499e-01,9.99999e-01,9.81499e-01,9.99999e-01
1.768261107e+00,9.81861e-01,9.99999e-01,9.81861e-01,9.99999e-01
1.777102413e+00,9.82216e-01,9.99999e-01,9.82216e-01,9.99999e-01
1.785987925e+00,9.82564e-01,9.99999e-01,9.82564e-01,9.99999e-01
1.794917864e+00,9.82906e-01,9.99999e-01,9.82906e-01,9.99999e-01
1.803892454e+00,9.83240e-01,9.99999e-01,9.83240e-01,9.99999e-01
1.812911916e+00,9.83569e-01,9.99999e-01,9.83569e-01,9.99999e-01
1.821976476e+00,9.83891e-01,9.99999e-01,9.83891e-01,9.99999e-01
1.831086358e+00,9.84206e-01,9.99999e-01,9.84206e-01,9.99999e-01
1.840241790e+00,9.84516e-01,9.99999e-01,9.84516e-01,9.99999e-01
1.849442999e+00,9.84819e-01,9.99999e-01,9.84819e-01,9.99999e-01
1.858690214e+00,9.85117e-01,9.99999e-01,9.85117e-01,9.99999e-01
1.867983665e+00,9.85409e-01,9.99999e-01,9.85409e-01,9.99999e-01
1.877323583e+00,9.85695e-01,9.99999e-01,9.85695e-01,9.99999e-01
