#,Wave/freq,Total,N2,Rayleigh,CIA
4.000000000e-01,7.51436e-01,9.99999e-01,7.51436e-01,9.99999e-01
4.020000000e-01,7.55694e-01,9.99999e-01,7.55694e-01,9.99999e-01
4.040100000e-01,7.59887e-01,9.99999e-01,7.59887e-01,9.99999e-01
4.060300500e-01,7.64020e-01,9.99999e-01,7.64020e-01,9.99999e-01
4.080602003e-01,7.68092e-01,9.99999e-01,7.68092e-01,9.99999e-01
4.101005013e-01,7.72106e-01,9.99999e-01,7.72106e-01,9.99999e-01
4.121510038e-01,7.76060e-01,9.99999e-01,7.76060e-01,9.99999e-01
4.142117588e-01,7.79956e-01,9.99999e-01,7.79956e-01,9.99999e-01
4.162828176e-01,7.83794e-01,9.99999e-01,7.83794e-01,9.99999e-01
4.183642317e-01,7.87575e-01,9.99999e-01,7.87575e-01,9.99999e-01
4.204560528e-01,7.91299e-01,9.99999e-01,7.91299e-01,9.99999e-01
4.225583331e-01,7.94966e-01,9.99999e-01,7.94966e-01,9.99999e-01
4.246711247e-01,7.98577e-01,9.99999e-01,7.98577e-01,9.99999e-01
4.267944804e-01,8.02133e-01,9.99999e-01,8.02133e-01,9.99999e-01
4.289284528e-01,8.05634e-01,9.99999e-01,8.05634e-01,9.99999e-01
4.310730950e-01,8.09080e-01,9.99999e-01,8.09080e-01,9.99999e-01
4.332284605e-01,8.12473e-01,9.99999e-01,8.12473e-01,9.99999e-01
4.353946028e-01,8.15813e-01,9.99999e-01,8.15813e-01,9.99999e-01
4.375715758e-01,8.19100e-01,9.99999e-01,8.19100e-01,9.99999e-01
4.397594337e-01,8.22335e-01,9.99999e-01,8.22335e-01,9.99999e-01
4.419582309e-01,8.25518e-01,9.99999e-01,8.25518e-01,9.99999e-01
4.441680220e-01,8.28651e-01,9.99999e-01,8.28651e-01,9.99999e-01
4.463888621e-01,8.31733e-01,9.99999e-01,8.31733e-01,9.99999e-01
4.486208064e-01,8.34765e-01,9.99999e-01,8.34765e-01,9.99999e-01
4.508639105e-01,8.37748e-01,9.99999e-01,8.37748e-01,9.99999e-01
4.531182300e-01,8.40683e-01,9.99999e-01,8.40683e-01,9.99999e-01
4.553838212e-01,8.43570e-01,9.99999e-01,8.43570e-01,9.99999e-01
4.576607403e-01,8.46409e-01,9.99999e-01,8.46409e-01,9.99999e-01
4.599490440e-01,8.49201e-01,9.99999e-01,8.49201e-01,9.99999e-01
4.622487892e-01,8.51948e-01,9.99999e-01,8.51948e-01,9.99999e-01
4.645600332e-01,8.54648e-01,9.99999e-01,8.54648e-01,9.99999e-01
4.668828333e-01,8.57304e-01,9.99999e-01,8.57304e-01,9.99999e-01
4.692172475e-01,8.59915e-01,9.99999e-01,8.59915e-01,9.99999e-01
4.715633337e-01,8.62482e-01,9.99999e-01,8.62482e-01,9.99999e-01
4.739211504e-01,8.65006e-01,9.99999e-01,8.65006e-01,9.99999e-01
4.762907561e-01,8.67488e-01,9.99999e-01,8.67488e-01,9.99999e-01
4.786722099e-01,8.69927e-01,9.99999e-01,8.69927e-01,9.99999e-01
4.810655710e-01,8.72325e-01,9.99999e-01,8.72325e-01,9.99999e-01
4.834708988e-01,8.74681e-01,9.99999e-01,8.74681e-01,9.99999e-01
4.858882533e-01,8.76998e-01,9.99999e-01,8.76998e-01,9.99999e-01
4.883176946e-01,8.79274e-01,9.99999e-01,8.79274e-01,9.99999e-01
4.907592831e-01,8.81512e-01,9.99999e-01,8.81512e-01,9.99999e-01
4.932130795e-01,8.83710e-01,9.99999e-01,8.83710e-01,9.99999e-01
4.956791449e-01,8.85871e-01,9.99999e-01,8.85871e-01,9.99999e-01
4.981575406e-01,8.87994e-01,9.99999e-01,8.87994e-01,9.99999e-01
5.006483283e-01,8.90080e-01,9.99999e-01,8.90080e-01,9.99999e-01
5.031515699e-01,8.92129e-01,9.99999e-01,8.92129e-01,9.99999e-01
5.056673278e-01,8.94143e-01,9.99999e-01,8.94143e-01,9.99999e-01
5.081956644e-01,8.96121e-01,9.99999e-01,8.96121e-01,9.99999e-01
5.107366428e-01,8.98065e-01,9.99999e-01,8.98065e-01,9.99999e-01
5.132903260e-01,8.99974e-01,9.99999e-01,8.99974e-01,9.99999e-01
5.158567776e-01,9.01850e-01,9.99999e-01,9.01850e-01,9.99999e-01
5.184360615e-01,9.03692e-01,9.99999e-01,9.03692e-01,9.99999e-01
5.210282418e-01,9.05501e-01,9.99999e-01,9.05501e-01,9.99999e-01
5.236333830e-01,9.07278e-01,9.99999e-01,9.07278e-01,9.99999e-01
5.262515499e-01,9.09024e-01,9.99999e-01,9.09024e-01,9.99999e-01
5.288828077e-01,9.10738e-01,9.99999e-01,9.10738e-01,9.99999e-01
5.315272217e-01,9.12422e-01,9.99999e-01,9.12422e-01,9.99999e-01
5.341848578e-01,9.14075e-01,9.99999e-01,9.14075e-01,9.99999e-01
5.368557821e-01,9.15698e-01,9.99999e-01,9.15698e-01,9.99999e-01
5.395400610e-01,9.17293e-01,9.99999e-01,9.17293e-01,9.99999e-01
5.422377613e-01,9.18858e-01,9.99999e-01,9.18858e-01,9.99999e-01
5.449489501e-01,9.20395e-01,9.99999e-01,9.20395e-01,9.99999e-01
5.476736949e-01,9.21905e-01,9.99999e-01,9.21905e-01,9.99999e-01
5.504120634e-01,9.23387e-01,9.99999e-01,9.23387e-01,9.99999e-01
5.531641237e-01,9.24841e-01,9.99999e-01,9.24841e-01,9.99999e-01
5.559299443e-01,9.26270e-01,9.99999e-01,9.26270e-01,9.99999e-01
5.587095940e-01,9.27672e-01,9.99999e-01,9.27672e-01,9.99999e-01
5.615031420e-01,9.29049e-01,9.99999e-01,9.29049e-01,9.99999e-01
5.643106577e-01,9.30400e-01,9.99999e-01,9.30400e-01,9.99999e-01
5.671322110e-01,9.31727e-01,9.99999e-01,9.31727e-01,9.99999e-01
5.699678720e-01,9.33029e-01,9.99999e-01,9.33029e-01,9.99999e-01
5.728177114e-01,9.34308e-01,9.99999e-01,9.34308e-01,9.99999e-01
5.756818000e-01,9.35563e-01,9.99999e-01,9.35563e-01,9.99999e-01
5.785602090e-01,9.36794e-01,9.99999e-01,9.36794e-01,9.99999e-01
5.814530100e-01,9.38003e-01,9.99999e-01,9.38003e-01,9.99999e-01
5.843602750e-01,9.39190e-01,9.99999e-01,9.39190e-01,9.99999e-01
5.872820764e-01,9.40354e-01,9.99999e-01,9.40354e-01,9.99999e-01
5.902184868e-01,9.41497e-01,9.99999e-01,9.41497e-01,9.99999e-01
5.931695792e-01,9.42619e-01,9.99999e-01,9.42619e-01,9.99999e-01
5.961354271e-01,9.43720e-01,9.99999e-01,9.43720e-01,9.99999e-01
5.991161043e-01,9.44800e-01,9.99999e-01,9.44800e-01,9.99999e-01
6.021116848e-01,9.45861e-01,9.99999e-01,9.45861e-01,9.99999e-01
6.051222432e-01,9.46901e-01,9.99999e-01,9.46901e-01,9.99999e-01
6.081478544e-01,9.47922e-01,9.99999e-01,9.47922e-01,9.99999e-01
6.111885937e-01,9.48924e-01,9.99999e-01,9.48924e-01,9.99999e-01
6.142445367e-01,9.49907e-01,9.99999e-01,9.49907e-01,9.99999e-01
6.173157594e-01,9.50872e-01,9.99999e-01,9.50872e-01,9.99999e-01
6.204023382e-01,9.51818e-01,9.99999e-01,9.51818e-01,9.99999e-01
6.235043498e-01,9.52747e-01,9.99999e-01,9.52747e-01,9.99999e-01
6.266218716e-01,9.53659e-01,9.99999e-01,9.53659e-01,9.99999e-01
6.297549810e-01,9.54553e-01,9.99999e-01,9.54553e-01,9.99999e-01
6.329037559e-01,9.55430e-01,9.99999e-01,9.55430e-01,9.99999e-01
6.360682746e-01,9.56291e-01,9.99999e-01,9.56291e-01,9.99999e-01
6.392486160e-01,9.57136e-01,9.99999e-01,9.57136e-01,9.99999e-01
6.424448591e-01,9.57964e-01,9.99999e-01,9.57964e-01,9.99999e-01
6.456570834e-01,9.58777e-01,9.99999e-01,9.58777e-01,9.99999e-01
6.488853688e-01,9.59575e-01,9.99999e-01,9.59575e-01,9.99999e-01
6.521297956e-01,9.60357e-01,9.99999e-01,9.60357e-01,9.99999e-01
6.553904446e-01,9.61125e-01,9.99999e-01,9.61125e-01,9.99999e-01
6.586673968e-01,9.61878e-01,9.99999e-01,9.61878e-01,9.99999e-01
6.619607338e-01,9.62617e-01,9.99999e-01,9.62617e-01,9.99999e-01
6.652705375e-01,9.63341e-01,9.99999e-01,9.63341e-01,9.99999e-01
6.685968902e-01,9.64052e-01,9.99999e-01,9.64052e-01,9.99999e-01
6.719398746e-01,9.64749e-01,9.99999e-01,9.64749e-01,9.99999e-01
6.752995740e-01,9.65434e-01,9.99999e-01,9.65434e-01,9.99999e-01
6.786760719e-01,9.66105e-01,9.99999e-01,9.66105e-01,9.99999e-01
6.820694522e-01,9.66763e-01,9.99999e-01,9.66763e-01,9.99999e-01
6.854797995e-01,9.67409e-01,9.99999e-01,9.67409e-01,9.99999e-01
6.889071985e-01,9.68042e-01,9.99999e-01,9.68042e-01,9.99999e-01
6.923517345e-01,9.68663e-01,9.99999e-01,9.68663e-01,9.99999e-01
6.958134932e-01,9.69272e-01,9.99999e-01,9.69272e-01,9.99999e-01
6.992925606e-01,9.69870e-01,9.99999e-01,9.69870e-01,9.99999e-01
7.027890234e-01,9.70456e-01,9.99999e-01,9.70456e-01,9.99999e-01
7.063029686e-01,9.71031e-01,9.99999e-01,9.71031e-01,9.99999e-01
7.098344834e-01,9.71595e-01,9.99999e-01,9.71595e-01,9.99999e-01
7.133836558e-01,9.72149e-01,9.99999e-01,9.72149e-01,9.99999e-01
7.169505741e-01,9.72691e-01,9.99999e-01,9.72691e-01,9.99999e-01
7.205353270e-01,9.73223e-01,9.99999e-01,9.73223e-01,9.99999e-01
7.241380036e-01,9.73745e-01,9.99999e-01,9.73745e-01,9.99999e-01
7.277586936e-01,9.74257e-01,9.99999e-01,9.74257e-01,9.99999e-01
7.313974871e-01,9.74759e-01,9.99999e-01,9.74759e-01,9.99999e-01
7.350544745e-01,9.75251e-01,9.99999e-01,9.75251e-01,9.99999e-01
7.387297469e-01,9.75734e-01,9.99999e-01,9.75734e-01,9.99999e-01
7.424233956e-01,9.76208e-01,9.99999e-01,9.76208e-01,9.99999e-01
7.461355126e-01,9.76672e-01,9.99999e-01,9.76672e-01,9.99999e-01
7.498661902e-01,9.77128e-01,9.99999e-01,9.77128e-01,9.99999e-01
7.536155211e-01,9.77574e-01,9.99999e-01,9.77574e-01,9.99999e-01
7.573835987e-01,9.78012e-01,9.99999e-01,9.78012e-01,9.99999e-01
7.611705167e-01,9.78442e-01,9.99999e-01,9.78442e-01,9.99999e-01
7.649763693e-01,9.78863e-01,9.99999e-01,9.78863e-01,9.99999e-01
7.688012511e-01,9.79276e-01,9.99999e-01,9.79276e-01,9.99999e-01
7.726452574e-01,9.79681e-01,9.99999e-01,9.79681e-01,9.99999e-01
7.765084837e-01,9.80079e-01,9.99999e-01,9.80079e-01,9.99999e-01
7.803910261e-01,9.80468e-01,9.99999e-01,9.80468e-01,9.99999e-01
7.842929812e-01,9.80850e-01,9.99999e-01,9.80850e-01,9.99999e-01
7.882144461e-01,9.81225e-01,9.99999e-01,9.81225e-01,9.99999e-01
7.921555184e-01,9.81592e-01,9.99999e-01,9.81592e-01,9.99999e-01
7.961162960e-01,9.81953e-01,9.99999e-01,9.81953e-01,9.99999e-01
8.000968774e-01,9.82306e-01,9.99999e-01,9.82306e-01,9.99999e-01
8.040973618e-01,9.82652e-01,9.99999e-01,9.82652e-01,9.99999e-01
8.081178486e-01,9.82992e-01,9.99999e-01,9.82992e-01,9.99999e-01
8.121584379e-01,9.83325e-01,9.99999e-01,9.83325e-01,9.99999e-01
8.162192301e-01,9.83652e-01,9.99999e-01,9.83652e-01,9.99999e-01
8.203003262e-01,9.83972e-01,9.99999e-01,9.83972e-01,9.99999e-01
8.244018279e-01,9.84286e-01,9.99999e-01,9.84286e-01,9.99999e-01
8.285238370e-01,9.84594e-01,9.99999e-01,9.84594e-01,9.99999e-01
8.326664562e-01,9.84896e-01,9.99999e-01,9.84896e-01,9.99999e-01
8.368297885e-01,9.85192e-01,9.99999e-01,9.85192e-01,9.99999e-01
8.410139374e-01,9.85483e-01,9.99999e-01,9.85483e-01,9.99999e-01
8.452190071e-01,9.85767e-01,9.99999e-01,9.85767e-01,9.99999e-01
8.494451021e-01,9.86046e-01,9.99999e-01,9.86046e-01,9.99999e-01
8.536923276e-01,9.86320e-01,9.99999e-01,9.86320e-01,9.99999e-01
8.579607893e-01,9.86588e-01,9.99999e-01,9.86588e-01,9.99999e-01
8.622505932e-01,9.86852e-01,9.99999e-01,9.86852e-01,9.99999e-01
8.665618462e-01,9.87110e-01,9.99999e-01,9.87110e-01,9.99999e-01
8.708946554e-01,9.87363e-01,9.99999e-01,9.87363e-01,9.99999e-01
8.752491287e-01,9.87611e-01,9.99999e-01,9.87611e-01,9.99999e-01
8.796253743e-01,9.87854e-01,9.99999e-01,9.87854e-01,9.99999e-01
8.840235012e-01,9.88092e-01,9.99999e-01,9.88092e-01,9.99999e-01
8.884436187e-01,9.88326e-01,9.99999e-01,9.88326e-01,9.99999e-01
8.928858368e-01,9.88555e-01,9.99999e-01,9.88555e-01,9.99999e-01
8.973502660e-01,9.88780e-01,9.99999e-01,9.88780e-01,9.99999e-01
9.018370173e-01,9.89001e-01,9.99999e-01,9.89001e-01,9.99999e-01
9.063462024e-01,9.89217e-01,9.99999e-01,9.89217e-01,9.99999e-01
9.108779334e-01,9.89428e-01,9.99999e-01,9.89428e-01,9.99999e-01
9.154323231e-01,9.89636e-01,9.99999e-01,9.89636e-01,9.99999e-01
9.200094847e-01,9.89840e-01,9.99999e-01,9.89840e-01,9.99999e-01
9.246095321e-01,9.90039e-01,9.99999e-01,9.90039e-01,9.99999e-01
9.292325798e-01,9.90235e-01,9.99999e-01,9.90235e-01,9.99999e-01
9.338787427e-01,9.90427e-01,9.99999e-01,9.90427e-01,9.99999e-01
9.385481364e-01,9.90615e-01,9.99999e-01,9.90615e-01,9.99999e-01
9.432408771e-01,9.90800e-01,9.99999e-01,9.90800e-01,9.99999e-01
9.479570815e-01,9.90981e-01,9.99999e-01,9.90981e-01,9.99999e-01
9.526968669e-01,9.91158e-01,9.99999e-01,9.91158e-01,9.99999e-01
9.574603512e-01,9.91332e-01,9.99999e-01,9.91332e-01,9.99999e-01
9.622476530e-01,9.91502e-01,9.99999e-01,9.91502e-01,9.99999e-01
9.670588912e-01,9.91670e-01,9.99999e-01,9.91670e-01,9.99999e-01
9.718941857e-01,9.91833e-01,9.99999e-01,9.91833e-01,9.99999e-01
9.767536566e-01,9.91994e-01,9.99999e-01,9.91994e-01,9.99999e-01
9.816374249e-01,9.92152e-01,9.99999e-01,9.92152e-01,9.99999e-01
9.865456120e-01,9.92306e-01,9.99999e-01,9.92306e-01,9.99999e-01
9.914783401e-01,9.92457e-01,9.99999e-01,9.92457e-01,9.99999e-01
9.964357318e-01,9.92606e-01,9.99999e-01,9.92606e-01,9.99999e-01
1.001417910e+00,9.92751e-01,9.99999e-01,9.92751e-01,9.99999e-01
1.006425000e+00,9.92894e-01,9.99999e-01,9.92894e-01,9.99999e-01
1.011457125e+00,9.93034e-01,9.99999e-01,9.93034e-01,9.99999e-01
1.016514411e+00,9.93171e-01,9.99999e-01,9.93171e-01,9.99999e-01
1.021596983e+00,9.93305e-01,9.99999e-01,9.93305e-01,9.99999e-01
1.026704968e+00,9.93437e-01,9.99999e-01,9.93437e-01,9.99999e-01
1.031838492e+00,9.93566e-01,9.99999e-01,9.93566e-01,9.99999e-01
1.036997685e+00,9.93693e-01,9.99999e-01,9.93693e-01,9.99999e-01
1.042182673e+00,9.93817e-01,9.99999e-01,9.93817e-01,9.99999e-01
1.047393587e+00,9.93939e-01,9.99999e-01,9.93939e-01,9.99999e-01
1.052630555e+00,9.94058e-01,9.99999e-01,9.94058e-01,9.99999e-01
1.057893707e+00,9.94175e-01,9.99999e-01,9.94175e-01,9.99999e-01
1.063183176e+00,9.94290e-01,9.99999e-01,9.94290e-01,9.99999e-01
1.068499092e+00,9.94402e-01,9.99999e-01,9.94402e-01,9.99999e-01
1.073841587e+00,9.94513e-01,9.99999e-01,9.94513e-01,9.99999e-01
1.079210795e+00,9.94621e-01,9.99999e-01,9.94621e-01,9.99999e-01
1.084606849e+00,9.94727e-01,9.99999e-01,9.94727e-01,9.99999e-01
1.090029883e+00,9.94830e-01,9.99999e-01,9.94830e-01,9.99999e-01
1.095480033e+00,9.94932e-01,9.99999e-01,9.94932e-01,9.99999e-01
1.100957433e+00,9.95032e-01,9.99999e-01,9.95032e-01,9.99999e-01
1.106462220e+00,9.95130e-01,9.99999e-01,9.95130e-01,9.99999e-01
1.111994531e+00,9.95226e-01,9.99999e-01,9.95226e-01,9.99999e-01
1.117554504e+00,9.95320e-01,9.99999e-01,9.95320e-01,9.99999e-01
1.123142276e+00,9.95412e-01,9.99999e-01,9.95412e-01,9.99999e-01
1.128757988e+00,9.95503e-01,9.99999e-01,9.95503e-01,9.99999e-01
1.134401778e+00,9.95591e-01,9.99999e-01,9.95591e-01,9.99999e-01
1.140073787e+00,9.95678e-01,9.99999e-01,9.95678e-01,9.99999e-01
1.145774156e+00,9.95763e-01,9.99999e-01,9.95763e-01,9.99999e-01
1.151503026e+00,9.95847e-01,9.99999e-01,9.95847e-01,9.99999e-01
1.157260541e+00,9.95929e-01,9.99999e-01,9.95929e-01,9.99999e-01
1.163046844e+00,9.96009e-01,9.99999e-01,9.96009e-01,9.99999e-01
1.168862078e+00,9.96088e-01,9.99999e-01,9.96088e-01,9.99999e-01
1.174706389e+00,9.96165e-01,9.99999e-01,9.96165e-01,9.99999e-01
1.180579921e+00,9.96240e-01,9.99999e-01,9.96240e-01,9.99999e-01
1.186482820e+00,9.96314e-01,9.99999e-01,9.96314e-01,9.99999e-01
1.192415234e+00,9.96387e-01,9.99999e-01,9.96387e-01,9.99999e-01
1.198377311e+00,9.96458e-01,9.99999e-01,9.96458e-01,9.99999e-01
1.204369197e+00,9.96528e-01,9.99999e-01,9.96528e-01,9.99999e-01
1.210391043e+00,9.96596e-01,9.99999e-01,9.96596e-01,9.99999e-01
1.216442998e+00,9.96664e-01,9.99999e-01,9.96664e-01,9.99999e-01
1.222525213e+00,9.96729e-01,9.99999e-01,9.96729e-01,9.99999e-01
1.228637839e+00,9.96794e-01,9.99999e-01,9.96794e-01,9.99999e-01
1.234781029e+00,9.96857e-01,9.99999e-01,9.96857e-01,9.99999e-01
1.240954934e+00,9.96919e-01,9.99999e-01,9.96919e-01,9.99999e-01
1.247159708e+00,9.96980e-01,9.99999e-01,9.96980e-01,9.99999e-01
1.253395507e+00,9.97039e-01,9.99999e-01,9.97039e-01,9.99999e-01
1.259662485e+00,9.97098e-01,9.99999e-01,9.97098e-01,9.99999e-01
1.265960797e+00,9.97155e-01,9.99999e-01,9.97155e-01,9.99999e-01
1.272290601e+00,9.97211e-01,9.99999e-01,9.97211e-01,9.99999e-01
1.278652054e+00,9.97266e-01,9.99999e-01,9.97266e-01,9.99999e-01
1.285045314e+00,9.97320e-01,9.99999e-01,9.97320e-01,9.99999e-01
1.291470541e+00,9.97373e-01,9.99999e-01,9.97373e-01,9.99999e-01
1.297927893e+00,9.97425e-01,9.99999e-01,9.97425e-01,9.99999e-01
1.304417533e+00,9.97475e-01,9.99999e-01,9.97475e-01,9.99999e-01
1.310939621e+00,9.97525e-01,9.99999e-01,9.97525e-01,9.99999e-01
1.317494319e+00,9.97574e-01,9.99999e-01,9.97574e-01,9.99999e-01
1.324081790e+00,9.97622e-01,9.99999e-01,9.97622e-01,9.99999e-01
1.330702199e+00,9.97669e-01,9.99999e-01,9.97669e-01,9.99999e-01
1.337355710e+00,9.97715e-01,9.99999e-01,9.97715e-01,9.99999e-01
1.344042489e+00,9.97760e-01,9.99999e-01,9.97760e-01,9.99999e-01
1.350762701e+00,9.97804e-01,9.99999e-01,9.97804e-01,9.99999e-01
1.357516515e+00,9.97847e-01,9.99999e-01,9.97847e-01,9.99999e-01
1.364304097e+00,9.97890e-01,9.99999e-01,9.97890e-01,9.99999e-01
1.371125618e+00,9.97931e-01,9.99999e-01,9.97931e-01,9.99999e-01
1.377981246e+00,9.97972e-01,9.99999e-01,9.97972e-01,9.99999e-01
1.384871152e+00,9.98012e-01,9.99999e-01,9.98012e-01,9.99999e-01
1.391795508e+00,9.98051e-01,9.99999e-01,9.98051e-01,9.99999e-01
1.398754485e+00,9.98090e-01,9.99999e-01,9.98090e-01,9.99999e-01
1.405748258e+00,9.98127e-01,9.99999e-01,9.98127e-01,9.99999e-01
1.412776999e+00,9.98164e-01,9.99999e-01,9.98164e-01,9.99999e-01
1.419840884e+00,9.98200e-01,9.99999e-01,9.98201e-01,9.99999e-01
1.426940089e+00,9.98236e-01,9.99999e-01,9.98236e-01,9.99999e-01
1.434074789e+00,9.98271e-01,9.99999e-01,9.98271e-01,9.99999e-01
1.441245163e+00,9.98305e-01,9.99999e-01,9.98305e-01,9.99999e-01
1.448451389e+00,9.98338e-01,9.99999e-01,9.98338e-01,9.99999e-01
1.455693646e+00,9.98371e-01,9.99999e-01,9.98371e-01,9.99999e-01
1.462972114e+00,9.98403e-01,9.99999e-01,9.98403e-01,9.99999e-01
1.470286975e+00,9.98435e-01,9.99999e-01,9.98435e-01,9.99999e-01
1.477638409e+00,9.98466e-01,9.99999e-01,9.98466e-01,9.99999e-01
1.485026601e+00,9.98496e-01,9.99999e-01,9.98496e-01,9.99999e-01
1.492451734e+00,9.98526e-01,9.99999e-01,9.98526e-01,9.99999e-01
1.499913993e+00,9.98555e-01,9.99999e-01,9.98555e-01,9.99999e-01
1.507413563e+00,9.98583e-01,9.99999e-01,9.98583e-01,9.99999e-01
1.514950631e+00,9.98611e-01,9.99999e-01,9.98611e-01,9.99999e-01
1.522525384e+00,9.98639e-01,9.99999e-01,9.98639e-01,9.99999e-01
1.530138011e+00,9.98665e-01,9.99999e-01,9.98665e-01,9.99999e-01
1.537788701e+00,9.98692e-01,9.99999e-01,9.98692e-01,9.99999e-01
1.545477645e+00,9.98718e-01,9.99999e-01,9.98718e-01,9.99999e-01
1.553205033e+00,9.98743e-01,9.99999e-01,9.98743e-01,9.99999e-01
1.560971058e+00,9.98768e-01,9.99999e-01,9.98768e-01,9.99999e-01
1.568775913e+00,9.98792e-01,9.99999e-01,9.98792e-01,9.99999e-01
1.576619793e+00,9.98816e-01,9.99999e-01,9.98816e-01,9.99999e-01
1.584502892e+00,9.98839e-01,9.99999e-01,9.98839e-01,9.99999e-01
1.592425406e+00,9.98862e-01,9.99999e-01,9.98862e-01,9.99999e-01
1.600387533e+00,9.98884e-01,9.99999e-01,9.98884e-01,9.99999e-01
1.608389471e+00,9.98906e-01,9.99999e-01,9.98906e-01,9.99999e-01
1.616431418e+00,9.98928e-01,9.99999e-01,9.98928e-01,9.99999e-01
1.624513575e+00,9.98949e-01,9.99999e-01,9.98949e-01,9.99999e-01
1.632636143e+00,9.98970e-01,9.99999e-01,9.98970e-01,9.99999e-01
1.640799324e+00,9.98990e-01,9.99999e-01,9.98990e-01,9.99999e-01
1.649003321e+00,9.99010e-01,9.99999e-01,9.99010e-01,9.99999e-01
1.657248337e+00,9.99030e-01,9.99999e-01,9.99030e-01,9.99999e-01
1.665534579e+00,9.99049e-01,9.99999e-01,9.99049e-01,9.99999e-01
1.673862252e+00,9.99068e-01,9.99999e-01,9.99068e-01,9.99999e-01
1.682231563e+00,9.99086e-01,9.99999e-01,9.99086e-01,9.99999e-01
1.690642721e+00,9.99104e-01,9.99999e-01,9.99104e-01,9.99999e-01
1.699095934e+00,9.99122e-01,9.99999e-01,9.99122e-01,9.99999e-01
1.707591414e+00,9.99139e-01,9.99999e-01,9.99139e-01,9.99999e-01
1.716129371e+00,9.99156e-01,9.99999e-01,9.99156e-01,9.99999e-01
1.724710018e+00,9.99173e-01,9.99999e-01,9.99173e-01,9.99999e-01
1.733333568e+00,9.99189e-01,9.99999e-01,9.99189e-01,9.99999e-01
1.742000236e+00,9.99205e-01,9.99999e-01,9.99205e-01,9.99999e-01
1.750710237e+00,9.99221e-01,9.99999e-01,9.99221e-01,9.99999e-01
1.759463788e+00,9.99236e-01,9.99999e-01,9.99236e-01,9.99999e-01
1.768261107e+00,9.99251e-01,9.99999e-01,9.99251e-01,9.99999e-01
1.777102413e+00,9.99266e-01,9.99999e-01,9.99266e-01,9.99999e-01
1.785987925e+00,9.99280e-01,9.99999e-01,9.99280e-01,9.99999e-01
1.794917864e+00,9.99294e-01,9.99999e-01,9.99294e-01,9.99999e-01
1.803892454e+00,9.99308e-01,9.99999e-01,9.99308e-01,9.99999e-01
1.812911916e+00,9.99322e-01,9.99999e-01,9.99322e-01,9.99999e-01
1.821976476e+00,9.99335e-01,9.99999e-01,9.99335e-01,9.99999e-01
1.831086358e+00,9.99348e-01,9.99999e-01,9.99348e-01,9.99999e-01
1.840241790e+00,9.99361e-01,9.99999e-01,9.99361e-01,9.99999e-01
1.849442999e+00,9.99374e-01,9.99999e-01,9.99374e-01,9.99999e-01
1.858690214e+00,9.99386e-01,9.99999e-01,9.99386e-01,9.99999e-01
1.867983665e+00,9.99398e-01,9.99999e-01,9.99398e-01,9.99999e-01
1.877323583e+00,9.99410e-01,9.99999e-01,9.99410e-01,9.99999e-01
