#,Wave/freq,Total,N2,Rayleigh,CIA
4.000000000e-01,1.73917e-01,9.99999e-01,1.73917e-01,9.99999e-01
4.020000000e-01,1.80038e-01,9.99999e-01,1.80038e-01,9.99999e-01
4.040100000e-01,1.86240e-01,9.99999e-01,1.86240e-01,9.99999e-01
4.060300500e-01,1.92526e-01,9.99999e-01,1.92526e-01,9.99999e-01
4.080602003e-01,1.98895e-01,9.99999e-01,1.98895e-01,9.99999e-01
4.101005013e-01,2.05342e-01,9.99999e-01,2.05342e-01,9.99999e-01
4.121510038e-01,2.11864e-01,9.99999e-01,2.11864e-01,9.99999e-01
4.142117588e-01,2.18459e-01,9.99999e-01,2.18459e-01,9.99999e-01
4.162828176e-01,2.25122e-01,9.99999e-01,2.25122e-01,9.99999e-01
4.183642317e-01,2.31851e-01,9.99999e-01,2.31851e-01,9.99999e-01
4.204560528e-01,2.38643e-01,9.99999e-01,2.38643e-01,9.99999e-01
4.225583331e-01,2.45493e-01,9.99999e-01,2.45493e-01,9.99999e-01
4.246711247e-01,2.52399e-01,9.99999e-01,2.52399e-01,9.99999e-01
4.267944804e-01,2.59357e-01,9.99999e-01,2.59357e-01,9.99999e-01
4.289284528e-01,2.66364e-01,9.99999e-01,2.66364e-01,9.99999e-01
4.310730950e-01,2.73415e-01,9.99999e-01,2.73415e-01,9.99999e-01
4.332284605e-01,2.80509e-01,9.99999e-01,2.80509e-01,9.99999e-01
4.353946028e-01,2.87642e-01,9.99999e-01,2.87642e-01,9.99999e-01
4.375715758e-01,2.94809e-01,9.99999e-01,2.94809e-01,9.99999e-01
4.397594337e-01,3.02008e-01,9.99999e-01,3.02008e-01,9.99999e-01
4.419582309e-01,3.09236e-01,9.99999e-01,3.09236e-01,9.99999e-01
4.441680220e-01,3.16488e-01,9.99999e-01,3.16488e-01,9.99999e-01
4.463888621e-01,3.23763e-01,9.99999e-01,3.23763e-01,9.99999e-01
4.486208064e-01,3.31056e-01,9.99999e-01,3.31056e-01,9.99999e-01
4.508639105e-01,3.38364e-01,9.99999e-01,3.38364e-01,9.99999e-01
4.531182300e-01,3.45684e-01,9.99999e-01,3.45684e-01,9.99999e-01
4.553838212e-01,3.53014e-01,9.99999e-01,3.53014e-01,9.99999e-01
4.576607403e-01,3.60350e-01,9.99999e-01,3.60350e-01,9.99999e-01
4.599490440e-01,3.67688e-01,9.99999e-01,3.67688e-01,9.99999e-01
4.622487892e-01,3.75027e-01,9.99999e-01,3.75027e-01,9.99999e-01
4.645600332e-01,3.82363e-01,9.99999e-01,3.82363e-01,9.99999e-01
4.668828333e-01,3.89694e-01,9.99999e-01,3.89694e-01,9.99999e-01
4.692172475e-01,3.97016e-01,9.99999e-01,3.97016e-01,9.99999e-01
4.715633337e-01,4.04326e-01,9.99999e-01,4.04326e-01,9.99999e-01
4.739211504e-01,4.11623e-01,9.99999e-01,4.11623e-01,9.99999e-01
4.762907561e-01,4.18904e-01,9.99999e-01,4.18904e-01,9.99999e-01
4.786722099e-01,4.26166e-01,9.99999e-01,4.26166e-01,9.99999e-01
4.810655710e-01,4.33407e-01,9.99999e-01,4.33407e-01,9.99999e-01
4.834708988e-01,4.40624e-01,9.99999e-01,4.40624e-01,9.99999e-01
4.858882533e-01,4.47815e-01,9.99999e-01,4.47815e-01,9.99999e-01
4.883176946e-01,4.54977e-01,9.99999e-01,4.54977e-01,9.99999e-01
4.907592831e-01,4.62110e-01,9.99999e-01,4.62110e-01,9.99999e-01
4.932130795e-01,4.69210e-01,9.99999e-01,4.69210e-01,9.99999e-01
4.956791449e-01,4.76276e-01,9.99999e-01,4.76276e-01,9.99999e-01
4.981575406e-01,4.83306e-01,9.99999e-01,4.83306e-01,9.99999e-01
5.006483283e-01,4.90297e-01,9.99999e-01,4.90297e-01,9.99999e-01
5.031515699e-01,4.97249e-01,9.99999e-01,4.97249e-01,9.99999e-01
5.056673278e-01,5.04158e-01,9.99999e-01,5.04158e-01,9.99999e-01
5.081956644e-01,5.11025e-01,9.99999e-01,5.11025e-01,9.99999e-01
5.107366428e-01,5.17846e-01,9.99999e-01,5.17846e-01,9.99999e-01
5.132903260e-01,5.24622e-01,9.99999e-01,5.24622e-01,9.99999e-01
5.158567776e-01,5.31349e-01,9.99999e-01,5.31349e-01,9.99999e-01
5.184360615e-01,5.38027e-01,9.99999e-01,5.38027e-01,9.99999e-01
5.210282418e-01,5.44655e-01,9.99999e-01,5.44655e-01,9.99999e-01
5.236333830e-01,5.51231e-01,9.99999e-01,5.51231e-01,9.99999e-01
5.262515499e-01,5.57755e-01,9.99999e-01,5.57755e-01,9.99999e-01
5.288828077e-01,5.64224e-01,9.99999e-01,5.64224e-01,9.99999e-01
5.315272217e-01,5.70638e-01,9.99999e-01,5.70638e-01,9.99999e-01
5.341848578e-01,5.76997e-01,9.99999e-01,5.76997e-01,9.99999e-01
5.368557821e-01,5.83298e-01,9.99999e-01,5.83298e-01,9.99999e-01
5.395400610e-01,5.89542e-01,9.99999e-01,5.89542e-01,9.99999e-01
5.422377613e-01,5.95728e-01,9.99999e-01,5.95728e-01,9.99999e-01
5.449489501e-01,6.01854e-01,9.99999e-01,6.01854e-01,9.99999e-01
5.476736949e-01,6.07921e-01,9.99999e-01,6.07921e-01,9.99999e-01
5.504120634e-01,6.13927e-01,9.99999e-01,6.13927e-01,9.99999e-01
5.531641237e-01,6.19871e-01,9.99999e-01,6.19871e-01,9.99999e-01
5.559299443e-01,6.25755e-01,9.99999e-01,6.25755e-01,9.99999e-01
5.587095940e-01,6.31576e-01,9.99999e-01,6.31576e-01,9.99999e-01
5.615031420e-01,6.37335e-01,9.99999e-01,6.37335e-01,9.99999e-01
5.643106577e-01,6.43031e-01,9.99999e-01,6.43031e-01,9.99999e-01
5.671322110e-01,6.48664e-01,9.99999e-01,6.48664e-01,9.99999e-01
5.699678720e-01,6.54234e-01,9.99999e-01,6.54234e-01,9.99999e-01
5.728177114e-01,6.59740e-01,9.99999e-01,6.59740e-01,9.99999e-01
5.756818000e-01,6.65182e-01,9.99999e-01,6.65182e-01,9.99999e-01
5.785602090e-01,6.70560e-01,9.99999e-01,6.70560e-01,9.99999e-01
5.814530100e-01,6.75875e-01,9.99999e-01,6.75875e-01,9.99999e-01
5.843602750e-01,6.81125e-01,9.99999e-01,6.81125e-01,9.99999e-01
5.872820764e-01,6.86311e-01,9.99999e-01,6.86311e-01,9.99999e-01
5.902184868e-01,6.91433e-01,9.99999e-01,6.91433e-01,9.99999e-01
5.931695792e-01,6.96491e-01,9.99999e-01,6.96491e-01,9.99999e-01
5.961354271e-01,7.01485e-01,9.99999e-01,7.01485e-01,9.99999e-01
5.991161043e-01,7.06414e-01,9.99999e-01,7.06414e-01,9.99999e-01
6.021116848e-01,7.11281e-01,9.99999e-01,7.11281e-01,9.99999e-01
6.051222432e-01,7.16083e-01,9.99999e-01,7.16083e-01,9.99999e-01
6.081478544e-01,7.20823e-01,9.99999e-01,7.20823e-01,9.99999e-01
6.111885937e-01,7.25499e-01,9.99999e-01,7.25499e-01,9.99999e-01
6.142445367e-01,7.30112e-01,9.99999e-01,7.30112e-01,9.99999e-01
6.173157594e-01,7.34662e-01,9.99999e-01,7.34662e-01,9.99999e-01
6.204023382e-01,7.39151e-01,9.99999e-01,7.39151e-01,9.99999e-01
6.235043498e-01,7.43577e-01,9.99999e-01,7.43577e-01,9.99999e-01
6.266218716e-01,7.47941e-01,9.99999e-01,7.47941e-01,9.99999e-01
6.297549810e-01,7.52244e-01,9.99999e-01,7.52244e-01,9.99999e-01
6.329037559e-01,7.56486e-01,9.99999e-01,7.56486e-01,9.99999e-01
6.360682746e-01,7.60668e-01,9.99999e-01,7.60668e-01,9.99999e-01
6.392486160e-01,7.64789e-01,9.99999e-01,7.64789e-01,9.99999e-01
6.424448591e-01,7.68851e-01,9.99999e-01,7.68851e-01,9.99999e-01
6.456570834e-01,7.72853e-01,9.99999e-01,7.72853e-01,9.99999e-01
6.488853688e-01,7.76796e-01,9.99999e-01,7.76796e-01,9.99999e-01
6.521297956e-01,7.80682e-01,9.99999e-01,7.80682e-01,9.99999e-01
6.553904446e-01,7.84509e-01,9.99999e-01,7.84509e-01,9.99999e-01
6.586673968e-01,7.88279e-01,9.99999e-01,7.88279e-01,9.99999e-01
6.619607338e-01,7.91992e-01,9.99999e-01,7.91992e-01,9.99999e-01
6.652705375e-01,7.95648e-01,9.99999e-01,7.95648e-01,9.99999e-01
6.685968902e-01,7.99249e-01,9.99999e-01,7.99249e-01,9.99999e-01
6.719398746e-01,8.02794e-01,9.99999e-01,8.02794e-01,9.99999e-01
6.752995740e-01,8.06285e-01,9.99999e-01,8.06285e-01,9.99999e-01
6.786760719e-01,8.09722e-01,9.99999e-01,8.09722e-01,9.99999e-01
6.820694522e-01,8.13104e-01,9.99999e-01,8.13104e-01,9.99999e-01
6.854797995e-01,8.16434e-01,9.99999e-01,8.16434e-01,9.99999e-01
6.889071985e-01,8.19711e-01,9.99999e-01,8.19711e-01,9.99999e-01
6.923517345e-01,8.22936e-01,9.99999e-01,8.22936e-01,9.99999e-01
6.958134932e-01,8.26110e-01,9.99999e-01,8.26110e-01,9.99999e-01
6.992925606e-01,8.29233e-01,9.99999e-01,8.29233e-01,9.99999e-01
7.027890234e-01,8.32306e-01,9.99999e-01,8.32306e-01,9.99999e-01
7.063029686e-01,8.35329e-01,9.99999e-01,8.35329e-01,9.99999e-01
7.098344834e-01,8.38303e-01,9.99999e-01,8.38303e-01,9.99999e-01
7.133836558e-01,8.41229e-01,9.99999e-01,8.41229e-01,9.99999e-01
7.169505741e-01,8.44107e-01,9.99999e-01,8.44107e-01,9.99999e-01
7.205353270e-01,8.46937e-01,9.99999e-01,8.46937e-01,9.99999e-01
7.241380036e-01,8.49721e-01,9.99999e-01,8.49721e-01,9.99999e-01
7.277586936e-01,8.52458e-01,9.99999e-01,8.52458e-01,9.99999e-01
7.313974871e-01,8.55150e-01,9.99999e-01,8.55150e-01,9.99999e-01
7.350544745e-01,8.57798e-01,9.99999e-01,8.57798e-01,9.99999e-01
7.387297469e-01,8.60401e-01,9.99999e-01,8.60401e-01,9.99999e-01
7.424233956e-01,8.62960e-01,9.99999e-01,8.62960e-01,9.99999e-01
7.461355126e-01,8.65476e-01,9.99999e-01,8.65476e-01,9.99999e-01
7.498661902e-01,8.67949e-01,9.99999e-01,8.67949e-01,9.99999e-01
7.536155211e-01,8.70380e-01,9.99999e-01,8.70380e-01,9.99999e-01
7.573835987e-01,8.72770e-01,9.99999e-01,8.72770e-01,9.99999e-01
7.611705167e-01,8.75119e-01,9.99999e-01,8.75119e-01,9.99999e-01
7.649763693e-01,8.77428e-01,9.99999e-01,8.77428e-01,9.99999e-01
7.688012511e-01,8.79697e-01,9.99999e-01,8.79697e-01,9.99999e-01
7.726452574e-01,8.81927e-01,9.99999e-01,8.81927e-01,9.99999e-01
7.765084837e-01,8.84119e-01,9.99999e-01,8.84119e-01,9.99999e-01
7.803910261e-01,8.86272e-01,9.99999e-01,8.86272e-01,9.99999e-01
7.842929812e-01,8.88388e-01,9.99999e-01,8.88388e-01,9.99999e-01
7.882144461e-01,8.90468e-01,9.99999e-01,8.90468e-01,9.99999e-01
7.921555184e-01,8.92510e-01,9.99999e-01,8.92510e-01,9.99999e-01
7.961162960e-01,8.94517e-01,9.99999e-01,8.94517e-01,9.99999e-01
8.000968774e-01,8.96489e-01,9.99999e-01,8.96489e-01,9.99999e-01
8.040973618e-01,8.98426e-01,9.99999e-01,8.98426e-01,9.99999e-01
8.081178486e-01,9.00329e-01,9.99999e-01,9.00329e-01,9.99999e-01
8.121584379e-01,9.02198e-01,9.99999e-01,9.02198e-01,9.99999e-01
8.162192301e-01,9.04034e-01,9.99999e-01,9.04034e-01,9.99999e-01
8.203003262e-01,9.05837e-01,9.99999e-01,9.05837e-01,9.99999e-01
8.244018279e-01,9.07609e-01,9.99999e-01,9.07609e-01,9.99999e-01
8.285238370e-01,9.09348e-01,9.99999e-01,9.09348e-01,9.99999e-01
8.326664562e-01,9.11057e-01,9.99999e-01,9.11057e-01,9.99999e-01
8.368297885e-01,9.12734e-01,9.99999e-01,9.12734e-01,9.99999e-01
8.410139374e-01,9.14382e-01,9.99999e-01,9.14382e-01,9.99999e-01
8.452190071e-01,9.16000e-01,9.99999e-01,9.16000e-01,9.99999e-01
8.494451021e-01,9.17589e-01,9.99999e-01,9.17589e-01,9.99999e-01
8.536923276e-01,9.19149e-01,9.99999e-01,9.19149e-01,9.99999e-01
8.579607893e-01,9.20681e-01,9.99999e-01,9.20681e-01,9.99999e-01
8.622505932e-01,9.22185e-01,9.99999e-01,9.22185e-01,9.99999e-01
8.665618462e-01,9.23662e-01,9.99999e-01,9.23662e-01,9.99999e-01
8.708946554e-01,9.25112e-01,9.99999e-01,9.25112e-01,9.99999e-01
8.752491287e-01,9.26535e-01,9.99999e-01,9.26535e-01,9.99999e-01
8.796253743e-01,9.27933e-01,9.99999e-01,9.27933e-01,9.99999e-01
8.840235012e-01,9.29305e-01,9.99999e-01,9.29305e-01,9.99999e-01
8.884436187e-01,9.30651e-01,9.99999e-01,9.30651e-01,9.99999e-01
8.928858368e-01,9.31974e-01,9.99999e-01,9.31974e-01,9.99999e-01
8.973502660e-01,9.33271e-01,9.99999e-01,9.33271e-01,9.99999e-01
9.018370173e-01,9.34545e-01,9.99999e-01,9.34545e-01,9.99999e-01
9.063462024e-01,9.35796e-01,9.99999e-01,9.35796e-01,9.99999e-01
9.108779334e-01,9.37023e-01,9.99999e-01,9.37023e-01,9.99999e-01
9.154323231e-01,9.38228e-01,9.99999e-01,9.38228e-01,9.99999e-01
9.200094847e-01,9.39410e-01,9.99999e-01,9.39410e-01,9.99999e-01
9.246095321e-01,9.40571e-01,9.99999e-01,9.40571e-01,9.99999e-01
9.292325798e-01,9.41710e-01,9.99999e-01,9.41710e-01,9.99999e-01
9.338787427e-01,9.42827e-01,9.99999e-01,9.42827e-01,9.99999e-01
9.385481364e-01,9.43924e-01,9.99999e-01,9.43924e-01,9.99999e-01
9.432408771e-01,9.45001e-01,9.99999e-01,9.45001e-01,9.99999e-01
9.479570815e-01,9.46057e-01,9.99999e-01,9.46057e-01,9.99999e-01
9.526968669e-01,9.47094e-01,9.99999e-01,9.47094e-01,9.99999e-01
9.574603512e-01,9.48112e-01,9.99999e-01,9.48112e-01,9.99999e-01
9.622476530e-01,9.49110e-01,9.99999e-01,9.49110e-01,9.99999e-01
9.670588912e-01,9.50090e-01,9.99999e-01,9.50090e-01,9.99999e-01
9.718941857e-01,9.51051e-01,9.99999e-01,9.51051e-01,9.99999e-01
9.767536566e-01,9.51994e-01,9.99999e-01,9.51994e-01,9.99999e-01
9.816374249e-01,9.52920e-01,9.99999e-01,9.52920e-01,9.99999e-01
9.865456120e-01,9.53828e-01,9.99999e-01,9.53828e-01,9.99999e-01
9.914783401e-01,9.54719e-01,9.99999e-01,9.54719e-01,9.99999e-01
9.964357318e-01,9.55593e-01,9.99999e-01,9.55593e-01,9.99999e-01
1.001417910e+00,9.56451e-01,9.99999e-01,9.56451e-01,9.99999e-01
1.006425000e+00,9.57292e-01,9.99999e-01,9.57292e-01,9.99999e-01
1.011457125e+00,9.58118e-01,9.99999e-01,9.58118e-01,9.99999e-01
1.016514411e+00,9.58928e-01,9.99999e-01,9.58928e-01,9.99999e-01
1.021596983e+00,9.59723e-01,9.99999e-01,9.59723e-01,9.99999e-01
1.026704968e+00,9.60502e-01,9.99999e-01,9.60502e-01,9.99999e-01
1.031838492e+00,9.61267e-01,9.99999e-01,9.61267e-01,9.99999e-01
1.036997685e+00,9.62018e-01,9.99999e-01,9.62018e-01,9.99999e-01
1.042182673e+00,9.62754e-01,9.99999e-01,9.62754e-01,9.99999e-01
1.047393587e+00,9.63476e-01,9.99999e-01,9.63476e-01,9.99999e-01
1.052630555e+00,9.64184e-01,9.99999e-01,9.64184e-01,9.99999e-01
1.057893707e+00,9.64879e-01,9.99999e-01,9.64879e-01,9.99999e-01
1.063183176e+00,9.65561e-01,9.99999e-01,9.65561e-01,9.99999e-01
1.068499092e+00,9.66229e-01,9.99999e-01,9.66229e-01,9.99999e-01
1.073841587e+00,9.66885e-01,9.99999e-01,9.66885e-01,9.99999e-01
1.079210795e+00,9.67528e-01,9.99999e-01,9.67528e-01,9.99999e-01
1.084606849e+00,9.68159e-01,9.99999e-01,9.68159e-01,9.99999e-01
1.090029883e+00,9.68778e-01,9.99999e-01,9.68778e-01,9.99999e-01
1.095480033e+00,9.69385e-01,9.99999e-01,9.69386e-01,9.99999e-01
1.100957433e+00,9.69981e-01,9.99999e-01,9.69981e-01,9.99999e-01
1.106462220e+00,9.70565e-01,9.99999e-01,9.70565e-01,9.99999e-01
1.111994531e+00,9.71138e-01,9.99999e-01,9.71138e-01,9.99999e-01
1.117554504e+00,9.71700e-01,9.99999e-01,9.71700e-01,9.99999e-01
1.123142276e+00,9.72251e-01,9.99999e-01,9.72251e-01,9.99999e-01
1.128757988e+00,9.72792e-01,9.99999e-01,9.72792e-01,9.99999e-01
1.134401778e+00,9.73322e-01,9.99999e-01,9.73322e-01,9.99999e-01
1.140073787e+00,9.73842e-01,9.99999e-01,9.73842e-01,9.99999e-01
1.145774156e+00,9.74352e-01,9.99999e-01,9.74352e-01,9.99999e-01
1.151503026e+00,9.74852e-01,9.99999e-01,9.74852e-01,9.99999e-01
1.157260541e+00,9.75343e-01,9.99999e-01,9.75343e-01,9.99999e-01
1.163046844e+00,9.75824e-01,9.99999e-01,9.75824e-01,9.99999e-01
1.168862078e+00,9.76296e-01,9.99999e-01,9.76296e-01,9.99999e-01
1.174706389e+00,9.76758e-01,9.99999e-01,9.76758e-01,9.99999e-01
1.180579921e+00,9.77212e-01,9.99999e-01,9.77212e-01,9.99999e-01
1.186482820e+00,9.77657e-01,9.99999e-01,9.77657e-01,9.99999e-01
1.192415234e+00,9.78094e-01,9.99999e-01,9.78094e-01,9.99999e-01
1.198377311e+00,9.78522e-01,9.99999e-01,9.78522e-01,9.99999e-01
1.204369197e+00,9.78941e-01,9.99999e-01,9.78941e-01,9.99999e-01
1.210391043e+00,9.79353e-01,9.99999e-01,9.79353e-01,9.99999e-01
1.216442998e+00,9.79757e-01,9.99999e-01,9.79757e-01,9.99999e-01
1.222525213e+00,9.80152e-01,9.99999e-01,9.80152e-01,9.99999e-01
1.228637839e+00,9.80541e-01,9.99999e-01,9.80541e-01,9.99999e-01
1.234781029e+00,9.80921e-01,9.99999e-01,9.80921e-01,9.99999e-01
1.240954934e+00,9.81295e-01,9.99999e-01,9.81295e-01,9.99999e-01
1.247159708e+00,9.81661e-01,9.99999e-01,9.81661e-01,9.99999e-01
1.253395507e+00,9.82020e-01,9.99999e-01,9.82020e-01,9.99999e-01
1.259662485e+00,9.82372e-01,9.99999e-01,9.82372e-01,9.99999e-01
1.265960797e+00,9.82717e-01,9.99999e-01,9.82717e-01,9.99999e-01
1.272290601e+00,9.83055e-01,9.99999e-01,9.83055e-01,9.99999e-01
1.278652054e+00,9.83387e-01,9.99999e-01,9.83387e-01,9.99999e-01
1.285045314e+00,9.83712e-01,9.99999e-01,9.83712e-01,9.99999e-01
1.291470541e+00,9.84032e-01,9.99999e-01,9.84032e-01,9.99999e-01
1.297927893e+00,9.84344e-01,9.99999e-01,9.84344e-01,9.99999e-01
1.304417533e+00,9.84651e-01,9.99999e-01,9.84651e-01,9.99999e-01
1.310939621e+00,9.84952e-01,9.99999e-01,9.84952e-01,9.99999e-01
1.317494319e+00,9.85247e-01,9.99999e-01,9.85247e-01,9.99999e-01
1.324081790e+00,9.85536e-01,9.99999e-01,9.85536e-01,9.99999e-01
1.330702199e+00,9.85820e-01,9.99999e-01,9.85820e-01,9.99999e-01
1.337355710e+00,9.86098e-01,9.99999e-01,9.86098e-01,9.99999e-01
1.344042489e+00,9.86371e-01,9.99999e-01,9.86371e-01,9.99999e-01
1.350762701e+00,9.86638e-01,9.99999e-01,9.86638e-01,9.99999e-01
1.357516515e+00,9.86900e-01,9.99999e-01,9.86900e-01,9.99999e-01
1.364304097e+00,9.87158e-01,9.99999e-01,9.87158e-01,9.99999e-01
1.371125618e+00,9.87410e-01,9.99999e-01,9.87410e-01,9.99999e-01
1.377981246e+00,9.87657e-01,9.99999e-01,9.87657e-01,9.99999e-01
1.384871152e+00,9.87899e-01,9.99999e-01,9.87899e-01,9.99999e-01
1.391795508e+00,9.88137e-01,9.99999e-01,9.88137e-01,9.99999e-01
1.398754485e+00,9.88370e-01,9.99999e-01,9.88370e-01,9.99999e-01
1.405748258e+00,9.88598e-01,9.99999e-01,9.88598e-01,9.99999e-01
1.412776999e+00,9.88821e-01,9.99998e-01,9.88822e-01,9.99999e-01
1.419840884e+00,9.89040e-01,9.99998e-01,9.89041e-01,9.99999e-01
1.426940089e+00,9.89255e-01,9.99997e-01,9.89257e-01,9.99999e-01
1.434074789e+00,9.89466e-01,9.99998e-01,9.89468e-01,9.99999e-01
1.441245163e+00,9.89674e-01,9.99998e-01,9.89675e-01,9.99999e-01
1.448451389e+00,9.89875e-01,9.99997e-01,9.89878e-01,9.99999e-01
1.455693646e+00,9.90076e-01,9.99998e-01,9.90077e-01,9.99999e-01
1.462972114e+00,9.90271e-01,9.99998e-01,9.90272e-01,9.99999e-01
1.470286975e+00,9.90462e-01,9.99999e-01,9.90463e-01,9.99999e-01
1.477638409e+00,9.90650e-01,9.99999e-01,9.90650e-01,9.99999e-01
1.485026601e+00,9.90834e-01,9.99999e-01,9.90834e-01,9.99999e-01
1.492451734e+00,9.91014e-01,9.99999e-01,9.91014e-01,9.99999e-01
1.499913993e+00,9.91191e-01,9.99999e-01,9.91191e-01,9.99999e-01
1.507413563e+00,9.91364e-01,9.99999e-01,9.91364e-01,9.99999e-01
1.514950631e+00,9.91534e-01,9.99999e-01,9.91534e-01,9.99999e-01
1.522525384e+00,9.91701e-01,9.99999e-01,9.91701e-01,9.99999e-01
1.530138011e+00,9.91864e-01,9.99999e-01,9.91864e-01,9.99999e-01
1.537788701e+00,9.92024e-01,9.99999e-01,9.92024e-01,9.99999e-01
1.545477645e+00,9.92181e-01,9.99999e-01,9.92181e-01,9.99999e-01
1.553205033e+00,9.92335e-01,9.99999e-01,9.92335e-01,9.99999e-01
1.560971058e+00,9.92485e-01,9.99999e-01,9.92485e-01,9.99999e-01
1.568775913e+00,9.92633e-01,9.99999e-01,9.92633e-01,9.99999e-01
1.576619793e+00,9.92778e-01,9.99999e-01,9.92778e-01,9.99999e-01
1.584502892e+00,9.92920e-01,9.99999e-01,9.92920e-01,9.99999e-01
1.592425406e+00,9.93060e-01,9.99999e-01,9.93060e-01,9.99999e-01
1.600387533e+00,9.93196e-01,9.99999e-01,9.93196e-01,9.99999e-01
1.608389471e+00,9.93330e-01,9.99999e-01,9.93330e-01,9.99999e-01
1.616431418e+00,9.93462e-01,9.99999e-01,9.93462e-01,9.99999e-01
1.624513575e+00,9.93590e-01,9.99999e-01,9.93590e-01,9.99999e-01
1.632636143e+00,9.93716e-01,9.99999e-01,9.93716e-01,9.99999e-01
1.640799324e+00,9.93840e-01,9.99999e-01,9.93840e-01,9.99999e-01
1.649003321e+00,9.93961e-01,9.99999e-01,9.93961e-01,9.99999e-01
1.657248337e+00,9.94080e-01,9.99999e-01,9.94080e-01,9.99999e-01
1.665534579e+00,9.94197e-01,9.99999e-01,9.94197e-01,9.99999e-01
1.673862252e+00,9.94311e-01,9.99999e-01,9.94311e-01,9.99999e-01
1.682231563e+00,9.94423e-01,9.99999e-01,9.94423e-01,9.99999e-01
1.690642721e+00,9.94533e-01,9.99999e-01,9.94533e-01,9.99999e-01
1.699095934e+00,9.94641e-01,9.99999e-01,9.94641e-01,9.99999e-01
1.707591414e+00,9.94746e-01,9.99999e-01,9.94746e-01,9.99999e-01
1.716129371e+00,9.94850e-01,9.99999e-01,9.94850e-01,9.99999e-01
1.724710018e+00,9.94951e-01,9.99999e-01,9.94951e-01,9.99999e-01
1.733333568e+00,9.95051e-01,9.99999e-01,9.95051e-01,9.99999e-01
1.742000236e+00,9.95148e-01,9.99999e-01,9.95148e-01,9.99999e-01
1.750710237e+00,9.95244e-01,9.99999e-01,9.95244e-01,9.99999e-01
1.759463788e+00,9.95337e-01,9.99999e-01,9.95337e-01,9.99999e-01
1.768261107e+00,9.95429e-01,9.99999e-01,9.95429e-01,9.99999e-01
1.777102413e+00,9.95519e-01,9.99999e-01,9.95519e-01,9.99999e-01
1.785987925e+00,9.95608e-01,9.99999e-01,9.95608e-01,9.99999e-01
1.794917864e+00,9.95694e-01,9.99999e-01,9.95694e-01,9.99999e-01
1.803892454e+00,9.95779e-01,9.99999e-01,9.95779e-01,9.99999e-01
1.812911916e+00,9.95862e-01,9.99999e-01,9.95862e-01,9.99999e-01
1.821976476e+00,9.95944e-01,9.99999e-01,9.95944e-01,9.99999e-01
1.831086358e+00,9.96024e-01,9.99999e-01,9.96024e-01,9.99999e-01
1.840241790e+00,9.96102e-01,9.99999e-01,9.96102e-01,9.99999e-01
1.849442999e+00,9.96179e-01,9.99999e-01,9.96179e-01,9.99999e-01
1.858690214e+00,9.96254e-01,9.99999e-01,9.96254e-01,9.99999e-01
1.867983665e+00,9.96328e-01,9.99999e-01,9.96328e-01,9.99999e-01
1.877323583e+00,9.96400e-01,9.99999e-01,9.96400e-01,9.99999e-01
