#,Wave/freq,Total,CO2,Rayleigh,CIA
4.000000000e-01,8.89682e-20,9.99999e-01,8.89682e-20,9.99999e-01
4.020000000e-01,2.11792e-19,9.99999e-01,2.11792e-19,9.99999e-01
4.040100000e-01,4.95187e-19,9.99999e-01,4.95187e-19,9.99999e-01
4.060300500e-01,1.13853e-18,9.99999e-01,1.13853e-18,9.99999e-01
4.080602003e-01,2.57499e-18,9.99999e-01,2.57499e-18,9.99999e-01
4.101005013e-01,5.73067e-18,9.99999e-01,5.73067e-18,9.99999e-01
4.121510038e-01,1.25538e-17,9.99999e-01,1.25538e-17,9.99999e-01
4.142117588e-01,2.70779e-17,9.99999e-01,2.70779e-17,9.99999e-01
4.162828176e-01,5.75257e-17,9.99999e-01,5.75257e-17,9.99999e-01
4.183642317e-01,1.20405e-16,9.99999e-01,1.20405e-16,9.99999e-01
4.204560528e-01,2.48366e-16,9.99999e-01,2.48366e-16,9.99999e-01
4.225583331e-01,5.05041e-16,9.99999e-01,5.05041e-16,9.99999e-01
4.246711247e-01,1.01268e-15,9.99999e-01,1.01268e-15,9.99999e-01
4.267944804e-01,2.00287e-15,9.99999e-01,2.00287e-15,9.99999e-01
4.289284528e-01,3.90825e-15,9.99999e-01,3.90825e-15,9.99999e-01
4.310730950e-01,7.52620e-15,9.99999e-01,7.52620e-15,9.99999e-01
4.332284605e-01,1.43070e-14,9.99999e-01,1.43070e-14,9.99999e-01
4.353946028e-01,2.68541e-14,9.99999e-01,2.68541e-14,9.99999e-01
4.375715758e-01,4.97819e-14,9.99999e-01,4.97819e-14,9.99999e-01
4.397594337e-01,9.11669e-14,9.99999e-01,9.11669e-14,9.99999e-01
4.419582309e-01,1.64973e-13,9.99999e-01,1.64973e-13,9.99999e-01
4.441680220e-01,2.95053e-13,9.99999e-01,2.95053e-13,9.99999e-01
4.463888621e-01,5.21676e-13,9.99999e-01,5.21676e-13,9.99999e-01
4.486208064e-01,9.12038e-13,9.99999e-01,9.12038e-13,9.99999e-01
4.508639105e-01,1.57700e-12,9.99999e-01,1.57700e-12,9.99999e-01
4.531182300e-01,2.69746e-12,9.99999e-01,2.69746e-12,9.99999e-01
4.553838212e-01,4.56533e-12,9.99999e-01,4.56533e-12,9.99999e-01
4.576607403e-01,7.64672e-12,9.99999e-01,7.64672e-12,9.99999e-01
4.599490440e-01,1.26781e-11,9.99999e-01,1.26781e-11,9.99999e-01
4.622487892e-01,2.08111e-11,9.99999e-01,2.08111e-11,9.99999e-01
4.645600332e-01,3.38288e-11,9.99999e-01,3.38288e-11,9.99999e-01
4.668828333e-01,5.44639e-11,9.99999e-01,5.44639e-11,9.99999e-01
4.692172475e-01,8.68652e-11,9.99999e-01,8.68652e-11,9.99999e-01
4.715633337e-01,1.37271e-10,9.99999e-01,1.37271e-10,9.99999e-01
4.739211504e-01,2.14974e-10,9.99999e-01,2.14974e-10,9.99999e-01
4.762907561e-01,3.33692e-10,9.99999e-01,3.33692e-10,9.99999e-01
4.786722099e-01,5.13491e-10,9.99999e-01,5.13491e-10,9.99999e-01
4.810655710e-01,7.83470e-10,9.99999e-01,7.83470e-10,9.99999e-01
4.834708988e-01,1.18546e-09,9.99999e-01,1.18546e-09,9.99999e-01
4.858882533e-01,1.77910e-09,9.99999e-01,1.77910e-09,9.99999e-01
4.883176946e-01,2.64869e-09,9.99999e-01,2.64869e-09,9.99999e-01
4.907592831e-01,3.91244e-09,9.99999e-01,3.91244e-09,9.99999e-01
4.932130795e-01,5.73479e-09,9.99999e-01,5.73479e-09,9.99999e-01
4.956791449e-01,8.34271e-09,9.99999e-01,8.34271e-09,9.99999e-01
4.981575406e-01,1.20471e-08,9.99999e-01,1.20471e-08,9.99999e-01
5.006483283e-01,1.72705e-08,9.99999e-01,1.72705e-08,9.99999e-01
5.031515699e-01,2.45831e-08,9.99999e-01,2.45831e-08,9.99999e-01
5.056673278e-01,3.47488e-08,9.99999e-01,3.47488e-08,9.99999e-01
5.081956644e-01,4.87837e-08,9.99999e-01,4.87837e-08,9.99999e-01
5.107366428e-01,6.80299e-08,9.99999e-01,6.80299e-08,9.99999e-01
5.132903260e-01,9.42479e-08,9.99999e-01,9.42479e-08,9.99999e-01
5.158567776e-01,1.29732e-07,9.99999e-01,1.29732e-07,9.99999e-01
5.184360615e-01,1.77452e-07,9.99999e-01,1.77452e-07,9.99999e-01
5.210282418e-01,2.41229e-07,9.99999e-01,2.41229e-07,9.99999e-01
5.236333830e-01,3.25943e-07,9.99999e-01,3.25943e-07,9.99999e-01
5.262515499e-01,4.37798e-07,9.99999e-01,4.37798e-07,9.99999e-01
5.288828077e-01,5.84621e-07,9.99999e-01,5.84621e-07,9.99999e-01
5.315272217e-01,7.76236e-07,9.99999e-01,7.76236e-07,9.99999e-01
5.341848578e-01,1.02490e-06,9.99999e-01,1.02490e-06,9.99999e-01
5.368557821e-01,1.34582e-06,9.99999e-01,1.34582e-06,9.99999e-01
5.395400610e-01,1.75773e-06,9.99999e-01,1.75773e-06,9.99999e-01
5.422377613e-01,2.28365e-06,9.99999e-01,2.28365e-06,9.99999e-01
5.449489501e-01,2.95162e-06,9.99999e-01,2.95162e-06,9.99999e-01
5.476736949e-01,3.79568e-06,9.99999e-01,3.79568e-06,9.99999e-01
5.504120634e-01,4.85694e-06,9.99999e-01,4.85694e-06,9.99999e-01
5.531641237e-01,6.18472e-06,9.99999e-01,6.18472e-06,9.99999e-01
5.559299443e-01,7.83799e-06,9.99999e-01,7.83799e-06,9.99999e-01
5.587095940e-01,9.88682e-06,9.99999e-01,9.88682e-06,9.99999e-01
5.615031420e-01,1.24141e-05,9.99999e-01,1.24141e-05,9.99999e-01
5.643106577e-01,1.55176e-05,9.99999e-01,1.55176e-05,9.99999e-01
5.671322110e-01,1.93115e-05,9.99999e-01,1.93115e-05,9.99999e-01
5.699678720e-01,2.39295e-05,9.99999e-01,2.39295e-05,9.99999e-01
5.728177114e-01,2.95265e-05,9.99999e-01,2.95265e-05,9.99999e-01
5.756818000e-01,3.62816e-05,9.99999e-01,3.62816e-05,9.99999e-01
5.785602090e-01,4.44010e-05,9.99999e-01,4.44010e-05,9.99999e-01
5.814530100e-01,5.41212e-05,9.99999e-01,5.41212e-05,9.99999e-01
5.843602750e-01,6.57120e-05,9.99999e-01,6.57120e-05,9.99999e-01
5.872820764e-01,7.94797e-05,9.99999e-01,7.94797e-05,9.99999e-01
5.902184868e-01,9.57715e-05,9.99999e-01,9.57715e-05,9.99999e-01
5.931695792e-01,1.14979e-04,9.99999e-01,1.14979e-04,9.99999e-01
5.961354271e-01,1.37540e-04,9.99999e-01,1.37540e-04,9.99999e-01
5.991161043e-01,1.63948e-04,9.99999e-01,1.63948e-04,9.99999e-01
6.021116848e-01,1.94748e-04,9.99999e-01,1.94748e-04,9.99999e-01
6.051222432e-01,2.30550e-04,9.99999e-01,2.30550e-04,9.99999e-01
6.081478544e-01,2.72026e-04,9.99999e-01,2.72026e-04,9.99999e-01
6.111885937e-01,3.19916e-04,9.99999e-01,3.19916e-04,9.99999e-01
6.142445367e-01,3.75033e-04,9.99999e-01,3.75033e-04,9.99999e-01
6.173157594e-01,4.38269e-04,9.99999e-01,4.38269e-04,9.99999e-01
6.204023382e-01,5.10592e-04,9.99999e-01,5.10592e-04,9.99999e-01
6.235043498e-01,5.93059e-04,9.99999e-01,5.93059e-04,9.99999e-01
6.266218716e-01,6.86811e-04,9.99999e-01,6.86811e-04,9.99999e-01
6.297549810e-01,7.93081e-04,9.99999e-01,7.93081e-04,9.99999e-01
6.329037559e-01,9.13196e-04,9.99999e-01,9.13196e-04,9.99999e-01
6.360682746e-01,1.04858e-03,9.99999e-01,1.04858e-03,9.99999e-01
6.392486160e-01,1.20074e-03,9.99999e-01,1.20074e-03,9.99999e-01
6.424448591e-01,1.37132e-03,9.99999e-01,1.37132e-03,9.99999e-01
6.456570834e-01,1.56202e-03,9.99999e-01,1.56202e-03,9.99999e-01
6.488853688e-01,1.77468e-03,9.99999e-01,1.77468e-03,9.99999e-01
6.521297956e-01,2.01120e-03,9.99999e-01,2.01120e-03,9.99999e-01
6.553904446e-01,2.27363e-03,9.99999e-01,2.27363e-03,9.99999e-01
6.586673968e-01,2.56407e-03,9.99999e-01,2.56407e-03,9.99999e-01
6.619607338e-01,2.88477e-03,9.99999e-01,2.88477e-03,9.99999e-01
6.652705375e-01,3.23802e-03,9.99999e-01,3.23802e-03,9.99999e-01
6.685968902e-01,3.62625e-03,9.99999e-01,3.62625e-03,9.99999e-01
6.719398746e-01,4.05195e-03,9.99999e-01,4.05195e-03,9.99999e-01
6.752995740e-01,4.51772e-03,9.99999e-01,4.51772e-03,9.99999e-01
6.786760719e-01,5.02621e-03,9.99999e-01,5.02621e-03,9.99999e-01
6.820694522e-01,5.58016e-03,9.99999e-01,5.58016e-03,9.99999e-01
6.854797995e-01,6.18238e-03,9.99999e-01,6.18238e-03,9.99999e-01
6.889071985e-01,6.83575e-03,9.99999e-01,6.83575e-03,9.99999e-01
6.923517345e-01,7.54318e-03,9.99999e-01,7.54318e-03,9.99999e-01
6.958134932e-01,8.30764e-03,9.99999e-01,8.30764e-03,9.99999e-01
6.992925606e-01,9.13215e-03,9.99999e-01,9.13215e-03,9.99999e-01
7.027890234e-01,1.00198e-02,9.99999e-01,1.00198e-02,9.99999e-01
7.063029686e-01,1.09735e-02,9.99999e-01,1.09735e-02,9.99999e-01
7.098344834e-01,1.19965e-02,9.99999e-01,1.19965e-02,9.99999e-01
7.133836558e-01,1.30917e-02,9.99999e-01,1.30917e-02,9.99999e-01
7.169505741e-01,1.42623e-02,9.99999e-01,1.42623e-02,9.99999e-01
7.205353270e-01,1.55114e-02,9.99999e-01,1.55114e-02,9.99999e-01
7.241380036e-01,1.68418e-02,9.99999e-01,1.68418e-02,9.99999e-01
7.277586936e-01,1.82567e-02,9.99999e-01,1.82567e-02,9.99999e-01
7.313974871e-01,1.97589e-02,9.99999e-01,1.97589e-02,9.99999e-01
7.350544745e-01,2.13514e-02,9.99999e-01,2.13514e-02,9.99999e-01
7.387297469e-01,2.30369e-02,9.99999e-01,2.30369e-02,9.99999e-01
7.424233956e-01,2.48182e-02,9.99999e-01,2.48182e-02,9.99999e-01
7.461355126e-01,2.66979e-02,9.99999e-01,2.66979e-02,9.99999e-01
7.498661902e-01,2.86786e-02,9.99999e-01,2.86786e-02,9.99999e-01
7.536155211e-01,3.07628e-02,9.99999e-01,3.07628e-02,9.99999e-01
7.573835987e-01,3.29527e-02,9.99999e-01,3.29527e-02,9.99999e-01
7.611705167e-01,3.52506e-02,9.99999e-01,3.52506e-02,9.99999e-01
7.649763693e-01,3.76585e-02,9.99999e-01,3.76585e-02,9.99999e-01
7.688012511e-01,4.01785e-02,9.99999e-01,4.01785e-02,9.99999e-01
7.726452574e-01,4.28122e-02,9.99999e-01,4.28122e-02,9.99999e-01
7.765084837e-01,4.55615e-02,9.99999e-01,4.55615e-02,9.99999e-01
7.803910261e-01,4.29301e-02,8.86478e-01,4.84277e-02,9.99999e-01
7.842929812e-01,2.85956e-02,5.56202e-01,5.14122e-02,9.99999e-01
7.882144461e-01,2.93144e-02,5.37718e-01,5.45163e-02,9.99999e-01
7.921555184e-01,3.90897e-02,6.76985e-01,5.77408e-02,9.99999e-01
7.961162960e-01,4.69543e-02,7.68650e-01,6.10867e-02,9.99999e-01
8.000968774e-01,5.59375e-02,8.66514e-01,6.45546e-02,9.99999e-01
8.040973618e-01,6.32822e-02,9.28639e-01,6.81450e-02,9.99999e-01
8.081178486e-01,6.94410e-02,9.66359e-01,7.18583e-02,9.99999e-01
8.121584379e-01,7.49103e-02,9.89639e-01,7.56945e-02,9.99999e-01
8.162192301e-01,7.94704e-02,9.97699e-01,7.96536e-02,9.99999e-01
8.203003262e-01,8.37329e-02,9.99969e-01,8.37354e-02,9.99999e-01
8.244018279e-01,8.79396e-02,9.99999e-01,8.79396e-02,9.99999e-01
8.285238370e-01,9.22655e-02,9.99999e-01,9.22655e-02,9.99999e-01
8.326664562e-01,9.67125e-02,9.99999e-01,9.67125e-02,9.99999e-01
8.368297885e-01,1.01280e-01,9.99999e-01,1.01280e-01,9.99999e-01
8.410139374e-01,1.05966e-01,9.99999e-01,1.05966e-01,9.99999e-01
8.452190071e-01,1.10770e-01,9.99999e-01,1.10770e-01,9.99999e-01
8.494451021e-01,1.15690e-01,9.99999e-01,1.15690e-01,9.99999e-01
8.536923276e-01,1.20725e-01,9.99999e-01,1.20725e-01,9.99999e-01
8.579607893e-01,1.25874e-01,9.99999e-01,1.25874e-01,9.99999e-01
8.622505932e-01,1.31133e-01,9.99999e-01,1.31133e-01,9.99999e-01
8.665618462e-01,1.15309e-01,8.44737e-01,1.36502e-01,9.99999e-01
8.708946554e-01,3.37899e-02,2.37992e-01,1.41979e-01,9.99999e-01
8.752491287e-01,4.40239e-02,2.98345e-01,1.47560e-01,9.99999e-01
8.796253743e-01,7.73976e-02,5.05060e-01,1.53244e-01,9.99999e-01
8.840235012e-01,1.10554e-01,6.95180e-01,1.59028e-01,9.99999e-01
8.884436187e-01,1.42778e-01,8.65790e-01,1.64910e-01,9.99999e-01
8.928858368e-01,1.61142e-01,9.42975e-01,1.70887e-01,9.99999e-01
8.973502660e-01,1.74466e-01,9.85930e-01,1.76956e-01,9.99999e-01
9.018370173e-01,1.82830e-01,9.98447e-01,1.83114e-01,9.99999e-01
9.063462024e-01,1.81801e-01,9.60091e-01,1.89358e-01,9.99999e-01
9.108779334e-01,1.78360e-01,9.11457e-01,1.95686e-01,9.99999e-01
9.154323231e-01,1.97806e-01,9.78780e-01,2.02094e-01,9.99999e-01
9.200094847e-01,1.59763e-01,7.65960e-01,2.08579e-01,9.99999e-01
9.246095321e-01,1.37105e-01,6.37288e-01,2.15138e-01,9.99999e-01
9.292325798e-01,1.56510e-01,7.05742e-01,2.21767e-01,9.99999e-01
9.338787427e-01,1.62832e-01,7.12726e-01,2.28464e-01,9.99999e-01
9.385481364e-01,1.82858e-01,7.77375e-01,2.35224e-01,9.99999e-01
9.432408771e-01,2.07304e-01,8.56466e-01,2.42045e-01,9.99999e-01
9.479570815e-01,2.29826e-01,9.23277e-01,2.48924e-01,9.99999e-01
9.526968669e-01,2.46235e-01,9.62398e-01,2.55856e-01,9.99999e-01
9.574603512e-01,2.58565e-01,9.83742e-01,2.62839e-01,9.99999e-01
9.622476530e-01,2.68494e-01,9.94909e-01,2.69868e-01,9.99999e-01
9.670588912e-01,2.76519e-01,9.98475e-01,2.76941e-01,9.99999e-01
9.718941857e-01,2.84025e-01,9.99895e-01,2.84055e-01,9.99999e-01
9.767536566e-01,2.91205e-01,9.99999e-01,2.91205e-01,9.99999e-01
9.816374249e-01,2.98388e-01,9.99999e-01,2.98388e-01,9.99999e-01
9.865456120e-01,3.05602e-01,9.99999e-01,3.05602e-01,9.99999e-01
9.914783401e-01,3.12843e-01,9.99999e-01,3.12843e-01,9.99999e-01
9.964357318e-01,3.20106e-01,9.99999e-01,3.20106e-01,9.99999e-01
1.001417910e+00,3.27390e-01,9.99999e-01,3.27390e-01,9.99999e-01
1.006425000e+00,3.34691e-01,9.99999e-01,3.34691e-01,9.99999e-01
1.011457125e+00,3.42006e-01,9.99999e-01,3.42006e-01,9.99999e-01
1.016514411e+00,3.49332e-01,9.99999e-01,3.49332e-01,9.99999e-01
1.021596983e+00,3.56573e-01,9.99741e-01,3.56665e-01,9.99999e-01
1.026704968e+00,3.58120e-01,9.83840e-01,3.64002e-01,9.99999e-01
1.031838492e+00,3.26331e-01,8.78789e-01,3.71341e-01,9.99999e-01
1.036997685e+00,1.30568e-02,3.44798e-02,3.78679e-01,9.99999e-01
1.042182673e+00,3.28966e-04,8.52214e-04,3.86013e-01,9.99999e-01
1.047393587e+00,9.37923e-04,2.38451e-03,3.93339e-01,9.99999e-01
1.052630555e+00,9.26275e-09,2.31189e-08,4.00656e-01,9.99999e-01
1.057893707e+00,3.56275e-08,8.73308e-08,4.07960e-01,9.99999e-01
1.063183176e+00,2.92088e-06,7.03404e-06,4.15250e-01,9.99999e-01
1.068499092e+00,4.64586e-05,1.09956e-04,4.22521e-01,9.99999e-01
1.073841587e+00,1.14168e-03,2.65646e-03,4.29773e-01,9.99999e-01
1.079210795e+00,1.08281e-02,2.47781e-02,4.37002e-01,9.99999e-01
1.084606849e+00,5.32544e-02,1.19887e-01,4.44206e-01,9.99999e-01
1.090029883e+00,1.47823e-01,3.27489e-01,4.51384e-01,9.99999e-01
1.095480033e+00,2.63906e-01,5.75544e-01,4.58532e-01,9.99999e-01
1.100957433e+00,3.56023e-01,7.64573e-01,4.65648e-01,9.99999e-01
1.106462220e+00,4.23041e-01,8.94886e-01,4.72732e-01,9.99999e-01
1.111994531e+00,4.60391e-01,9.59588e-01,4.79780e-01,9.99999e-01
1.117554504e+00,4.81948e-01,9.90051e-01,4.86791e-01,9.99999e-01
1.123142276e+00,4.93442e-01,9.99350e-01,4.93762e-01,9.99999e-01
1.128757988e+00,5.00693e-01,9.99999e-01,5.00693e-01,9.99999e-01
1.134401778e+00,5.07582e-01,9.99999e-01,5.07582e-01,9.99999e-01
1.140073787e+00,5.14426e-01,9.99999e-01,5.14426e-01,9.99999e-01
1.145774156e+00,5.21225e-01,9.99999e-01,5.21225e-01,9.99999e-01
1.151503026e+00,5.27976e-01,9.99999e-01,5.27976e-01,9.99999e-01
1.157260541e+00,5.34679e-01,9.99999e-01,5.34679e-01,9.99999e-01
1.163046844e+00,5.41333e-01,9.99999e-01,5.41333e-01,9.99999e-01
1.168862078e+00,5.47935e-01,9.99999e-01,5.47935e-01,9.99999e-01
1.174706389e+00,5.54485e-01,9.99999e-01,5.54485e-01,9.99999e-01
1.180579921e+00,5.60981e-01,9.99999e-01,5.60981e-01,9.99999e-01
1.186482820e+00,5.67400e-01,9.99958e-01,5.67424e-01,9.99999e-01
1.192415234e+00,5.42758e-01,9.45882e-01,5.73810e-01,9.99999e-01
1.198377311e+00,2.86084e-01,4.93128e-01,5.80141e-01,9.99999e-01
1.204369197e+00,2.72709e-40,4.65045e-40,5.86414e-01,9.99999e-01
1.210391043e+00,1.08901e-165,1.83758e-165,5.92629e-01,9.99999e-01
1.216442998e+00,2.88635e-143,4.82034e-143,5.98785e-01,9.99999e-01
1.222525213e+00,4.20167e-141,6.94627e-141,6.04881e-01,9.99999e-01
1.228637839e+00,1.12260e-108,1.83757e-108,6.10918e-01,9.99999e-01
1.234781029e+00,2.78070e-67,4.50758e-67,6.16893e-01,9.99999e-01
1.240954934e+00,2.08712e-44,3.35114e-44,6.22808e-01,9.99999e-01
1.247159708e+00,6.19091e-21,9.84778e-21,6.28660e-01,9.99999e-01
1.253395507e+00,2.96550e-14,4.67411e-14,6.34450e-01,9.99999e-01
1.259662485e+00,2.52894e-08,3.95037e-08,6.40178e-01,9.99999e-01
1.265960797e+00,6.81017e-05,1.05446e-04,6.45843e-01,9.99999e-01
1.272290601e+00,7.53658e-03,1.15690e-02,6.51444e-01,9.99999e-01
1.278652054e+00,7.32622e-03,1.11513e-02,6.56982e-01,9.99999e-01
1.285045314e+00,1.81737e-06,2.74338e-06,6.62457e-01,9.99999e-01
1.291470541e+00,4.76612e-19,7.13633e-19,6.67867e-01,9.99999e-01
1.297927893e+00,2.20007e-06,3.26802e-06,6.73213e-01,9.99999e-01
1.304417533e+00,1.75828e-04,2.59144e-04,6.78496e-01,9.99999e-01
1.310939621e+00,3.63453e-05,5.31585e-05,6.83714e-01,9.99999e-01
1.317494319e+00,9.38000e-57,1.36165e-56,6.88868e-01,9.99999e-01
1.324081790e+00,1.37344e-25,1.97914e-25,6.93958e-01,9.99999e-01
1.330702199e+00,1.27735e-21,1.82743e-21,6.98984e-01,9.99999e-01
1.337355710e+00,1.87186e-19,2.65909e-19,7.03946e-01,9.99999e-01
1.344042489e+00,2.72729e-23,3.84751e-23,7.08845e-01,9.99999e-01
1.350762701e+00,6.08522e-22,8.52654e-22,7.13679e-01,9.99999e-01
1.357516515e+00,4.73245e-13,6.58702e-13,7.18450e-01,9.99999e-01
1.364304097e+00,1.07825e-09,1.49103e-09,7.23158e-01,9.99999e-01
1.371125618e+00,2.42569e-05,3.33289e-05,7.27803e-01,9.99999e-01
1.377981246e+00,9.11063e-05,1.24397e-04,7.32385e-01,9.99999e-01
1.384871152e+00,3.75185e-03,5.09136e-03,7.36904e-01,9.99999e-01
1.391795508e+00,5.98435e-03,8.07211e-03,7.41361e-01,9.99999e-01
1.398754485e+00,3.39506e-02,4.55250e-02,7.45757e-01,9.99999e-01
1.405748258e+00,8.05723e-02,1.07417e-01,7.50090e-01,9.99999e-01
1.412776999e+00,1.81434e-01,2.40513e-01,7.54363e-01,9.99999e-01
1.419840884e+00,1.76355e-01,2.32481e-01,7.58575e-01,9.99999e-01
1.426940089e+00,5.16053e-03,6.76589e-03,7.62727e-01,9.99999e-01
1.434074789e+00,0.00000e+00,0.00000e+00,7.66818e-01,9.99999e-01
1.441245163e+00,0.00000e+00,0.00000e+00,7.70850e-01,9.99999e-01
1.448451389e+00,0.00000e+00,0.00000e+00,7.74823e-01,9.99999e-01
1.455693646e+00,0.00000e+00,0.00000e+00,7.78738e-01,9.99999e-01
1.462972114e+00,0.00000e+00,0.00000e+00,7.82594e-01,9.99999e-01
1.470286975e+00,3.32211e-275,4.22449e-275,7.86392e-01,9.99999e-01
1.477638409e+00,2.64751e-172,3.35071e-172,7.90134e-01,9.99999e-01
1.485026601e+00,3.60936e-95,4.54683e-95,7.93819e-01,9.99999e-01
1.492451734e+00,6.27552e-81,7.86951e-81,7.97447e-01,9.99999e-01
1.499913993e+00,4.11473e-34,5.13686e-34,8.01021e-01,9.99999e-01
1.507413563e+00,7.85089e-33,9.75824e-33,8.04539e-01,9.99999e-01
1.514950631e+00,1.51859e-34,1.87944e-34,8.08002e-01,9.99999e-01
1.522525384e+00,5.76698e-122,7.10734e-122,8.11412e-01,9.99999e-01
1.530138011e+00,7.88555e-294,9.67826e-294,8.14768e-01,9.99999e-01
1.537788701e+00,7.10823e-217,8.68900e-217,8.18072e-01,9.99999e-01
1.545477645e+00,2.36570e-44,2.88036e-44,8.21323e-01,9.99999e-01
1.553205033e+00,1.69119e-32,2.05111e-32,8.24523e-01,9.99999e-01
1.560971058e+00,1.42340e-32,1.71976e-32,8.27671e-01,9.99999e-01
1.568775913e+00,0.00000e+00,0.00000e+00,8.30769e-01,9.99999e-01
1.576619793e+00,0.00000e+00,0.00000e+00,8.33817e-01,9.99999e-01
1.584502892e+00,0.00000e+00,0.00000e+00,8.36816e-01,9.99999e-01
1.592425406e+00,0.00000e+00,0.00000e+00,8.39765e-01,9.99999e-01
1.600387533e+00,0.00000e+00,0.00000e+00,8.42667e-01,9.99999e-01
1.608389471e+00,0.00000e+00,0.00000e+00,8.45521e-01,9.99999e-01
1.616431418e+00,0.00000e+00,0.00000e+00,8.48328e-01,9.99999e-01
1.624513575e+00,0.00000e+00,0.00000e+00,8.51089e-01,9.99999e-01
1.632636143e+00,0.00000e+00,0.00000e+00,8.53804e-01,9.99999e-01
1.640799324e+00,7.82050e-255,9.13104e-255,8.56474e-01,9.99999e-01
1.649003321e+00,7.83804e-255,9.12356e-255,8.59099e-01,9.99999e-01
1.657248337e+00,1.63813e-196,1.90109e-196,8.61680e-01,9.99999e-01
1.665534579e+00,7.73029e-198,8.94483e-198,8.64217e-01,9.99999e-01
1.673862252e+00,1.78352e-125,2.05779e-125,8.66712e-01,9.99999e-01
1.682231563e+00,2.60167e-86,2.99330e-86,8.69164e-01,9.99999e-01
1.690642721e+00,3.98634e-47,4.57372e-47,8.71575e-01,9.99999e-01
1.699095934e+00,1.11438e-29,1.27511e-29,8.73945e-01,9.99999e-01
1.707591414e+00,1.48266e-14,1.69200e-14,8.76274e-01,9.99999e-01
1.716129371e+00,6.85288e-09,7.80010e-09,8.78563e-01,9.99999e-01
1.724710018e+00,1.72656e-05,1.96019e-05,8.80812e-01,9.99999e-01
1.733333568e+00,5.36720e-04,6.07820e-04,8.83023e-01,9.99999e-01
1.742000236e+00,1.17531e-02,1.32774e-02,8.85196e-01,9.99999e-01
1.750710237e+00,8.30038e-06,9.35432e-06,8.87330e-01,9.99999e-01
1.759463788e+00,9.58143e-120,1.07726e-119,8.89428e-01,9.99999e-01
1.768261107e+00,2.21147e-125,2.48064e-125,8.91489e-01,9.99999e-01
1.777102413e+00,2.73070e-122,3.05614e-122,8.93514e-01,9.99999e-01
1.785987925e+00,3.08332e-114,3.44311e-114,8.95503e-01,9.99999e-01
1.794917864e+00,5.10437e-109,5.68759e-109,8.97458e-01,9.99999e-01
1.803892454e+00,1.09104e-104,1.21311e-104,8.99377e-01,9.99999e-01
1.812911916e+00,1.49864e-100,1.66282e-100,9.01263e-01,9.99999e-01
1.821976476e+00,1.23871e-100,1.37160e-100,9.03116e-01,9.99999e-01
1.831086358e+00,1.98687e-80,2.19560e-80,9.04936e-01,9.99999e-01
1.840241790e+00,2.45573e-68,2.70836e-68,9.06723e-01,9.99999e-01
1.849442999e+00,2.71940e-47,2.99336e-47,9.08478e-01,9.99999e-01
1.858690214e+00,1.38855e-44,1.52554e-44,9.10202e-01,9.99999e-01
1.867983665e+00,4.16621e-45,4.56873e-45,9.11895e-01,9.99999e-01
1.877323583e+00,1.38799e-230,1.51932e-230,9.13558e-01,9.99999e-01
