#,Wave/freq,Total,CO2,Rayleigh,CIA
4.000000000e-01,4.45360e-03,9.99999e-01,4.45360e-03,9.99999e-01
4.020000000e-01,4.95682e-03,9.99999e-01,4.95682e-03,9.99999e-01
4.040100000e-01,5.50464e-03,9.99999e-01,5.50464e-03,9.99999e-01
4.060300500e-01,6.10035e-03,9.99999e-01,6.10035e-03,9.99999e-01
4.080602003e-01,6.74683e-03,9.99999e-01,6.74683e-03,9.99999e-01
4.101005013e-01,7.44698e-03,9.99999e-01,7.44698e-03,9.99999e-01
4.121510038e-01,8.20378e-03,9.99999e-01,8.20378e-03,9.99999e-01
4.142117588e-01,9.02023e-03,9.99999e-01,9.02023e-03,9.99999e-01
4.162828176e-01,9.89936e-03,9.99999e-01,9.89936e-03,9.99999e-01
4.183642317e-01,1.08442e-02,9.99999e-01,1.08442e-02,9.99999e-01
4.204560528e-01,1.18579e-02,9.99999e-01,1.18579e-02,9.99999e-01
4.225583331e-01,1.29435e-02,9.99999e-01,1.29435e-02,9.99999e-01
4.246711247e-01,1.41040e-02,9.99999e-01,1.41040e-02,9.99999e-01
4.267944804e-01,1.53426e-02,9.99999e-01,1.53426e-02,9.99999e-01
4.289284528e-01,1.66622e-02,9.99999e-01,1.66622e-02,9.99999e-01
4.310730950e-01,1.80658e-02,9.99999e-01,1.80658e-02,9.99999e-01
4.332284605e-01,1.95563e-02,9.99999e-01,1.95563e-02,9.99999e-01
4.353946028e-01,2.11368e-02,9.99999e-01,2.11368e-02,9.99999e-01
4.375715758e-01,2.28099e-02,9.99999e-01,2.28099e-02,9.99999e-01
4.397594337e-01,2.45785e-02,9.99999e-01,2.45785e-02,9.99999e-01
4.419582309e-01,2.64451e-02,9.99999e-01,2.64451e-02,9.99999e-01
4.441680220e-01,2.84124e-02,9.99999e-01,2.84124e-02,9.99999e-01
4.463888621e-01,3.04828e-02,9.99999e-01,3.04828e-02,9.99999e-01
4.486208064e-01,3.26587e-02,9.99999e-01,3.26587e-02,9.99999e-01
4.508639105e-01,3.49422e-02,9.99999e-01,3.49422e-02,9.99999e-01
4.531182300e-01,3.73356e-02,9.99999e-01,3.73356e-02,9.99999e-01
4.553838212e-01,3.98407e-02,9.99999e-01,3.98407e-02,9.99999e-01
4.576607403e-01,4.24594e-02,9.99999e-01,4.24594e-02,9.99999e-01
4.599490440e-01,4.51934e-02,9.99999e-01,4.51934e-02,9.99999e-01
4.622487892e-01,4.80442e-02,9.99999e-01,4.80442e-02,9.99999e-01
4.645600332e-01,5.10131e-02,9.99999e-01,5.10131e-02,9.99999e-01
4.668828333e-01,5.41014e-02,9.99999e-01,5.41014e-02,9.99999e-01
4.692172475e-01,5.73100e-02,9.99999e-01,5.73100e-02,9.99999e-01
4.715633337e-01,6.06399e-02,9.99999e-01,6.06399e-02,9.99999e-01
4.739211504e-01,6.40917e-02,9.99999e-01,6.40917e-02,9.99999e-01
4.762907561e-01,6.76660e-02,9.99999e-01,6.76660e-02,9.99999e-01
4.786722099e-01,7.13631e-02,9.99999e-01,7.13631e-02,9.99999e-01
4.810655710e-01,7.51831e-02,9.99999e-01,7.51831e-02,9.99999e-01
4.834708988e-01,7.91261e-02,9.99999e-01,7.91261e-02,9.99999e-01
4.858882533e-01,8.31918e-02,9.99999e-01,8.31918e-02,9.99999e-01
4.883176946e-01,8.73799e-02,9.99999e-01,8.73799e-02,9.99999e-01
4.907592831e-01,9.16899e-02,9.99999e-01,9.16899e-02,9.99999e-01
4.932130795e-01,9.61210e-02,9.99999e-01,9.61210e-02,9.99999e-01
4.956791449e-01,1.00672e-01,9.99999e-01,1.00672e-01,9.99999e-01
4.981575406e-01,1.05343e-01,9.99999e-01,1.05343e-01,9.99999e-01
5.006483283e-01,1.10131e-01,9.99999e-01,1.10131e-01,9.99999e-01
5.031515699e-01,1.15036e-01,9.99999e-01,1.15036e-01,9.99999e-01
5.056673278e-01,1.20057e-01,9.99999e-01,1.20057e-01,9.99999e-01
5.081956644e-01,1.25190e-01,9.99999e-01,1.25190e-01,9.99999e-01
5.107366428e-01,1.30436e-01,9.99999e-01,1.30436e-01,9.99999e-01
5.132903260e-01,1.35790e-01,9.99999e-01,1.35790e-01,9.99999e-01
5.158567776e-01,1.41253e-01,9.99999e-01,1.41253e-01,9.99999e-01
5.184360615e-01,1.46821e-01,9.99999e-01,1.46821e-01,9.99999e-01
5.210282418e-01,1.52491e-01,9.99999e-01,1.52491e-01,9.99999e-01
5.236333830e-01,1.58262e-01,9.99999e-01,1.58262e-01,9.99999e-01
5.262515499e-01,1.64132e-01,9.99999e-01,1.64132e-01,9.99999e-01
5.288828077e-01,1.70096e-01,9.99999e-01,1.70096e-01,9.99999e-01
5.315272217e-01,1.76153e-01,9.99999e-01,1.76153e-01,9.99999e-01
5.341848578e-01,1.82299e-01,9.99999e-01,1.82299e-01,9.99999e-01
5.368557821e-01,1.88533e-01,9.99999e-01,1.88533e-01,9.99999e-01
5.395400610e-01,1.94850e-01,9.99999e-01,1.94850e-01,9.99999e-01
5.422377613e-01,2.01247e-01,9.99999e-01,2.01247e-01,9.99999e-01
5.449489501e-01,2.07722e-01,9.99999e-01,2.07722e-01,9.99999e-01
5.476736949e-01,2.14271e-01,9.99999e-01,2.14271e-01,9.99999e-01
5.504120634e-01,2.20892e-01,9.99999e-01,2.20892e-01,9.99999e-01
5.531641237e-01,2.27580e-01,9.99999e-01,2.27580e-01,9.99999e-01
5.559299443e-01,2.34332e-01,9.99999e-01,2.34332e-01,9.99999e-01
5.587095940e-01,2.41145e-01,9.99999e-01,2.41145e-01,9.99999e-01
5.615031420e-01,2.48016e-01,9.99999e-01,2.48016e-01,9.99999e-01
5.643106577e-01,2.54942e-01,9.99999e-01,2.54942e-01,9.99999e-01
5.671322110e-01,2.61918e-01,9.99999e-01,2.61918e-01,9.99999e-01
5.699678720e-01,2.68941e-01,9.99999e-01,2.68941e-01,9.99999e-01
5.728177114e-01,2.76009e-01,9.99999e-01,2.76009e-01,9.99999e-01
5.756818000e-01,2.83117e-01,9.99999e-01,2.83117e-01,9.99999e-01
5.785602090e-01,2.90263e-01,9.99999e-01,2.90263e-01,9.99999e-01
5.814530100e-01,2.97442e-01,9.99999e-01,2.97442e-01,9.99999e-01
5.843602750e-01,3.04652e-01,9.99999e-01,3.04652e-01,9.99999e-01
5.872820764e-01,3.11889e-01,9.99999e-01,3.11889e-01,9.99999e-01
5.902184868e-01,3.19150e-01,9.99999e-01,3.19150e-01,9.99999e-01
5.931695792e-01,3.26432e-01,9.99999e-01,3.26432e-01,9.99999e-01
5.961354271e-01,3.33731e-01,9.99999e-01,3.33731e-01,9.99999e-01
5.991161043e-01,3.41044e-01,9.99999e-01,3.41044e-01,9.99999e-01
6.021116848e-01,3.48368e-01,9.99999e-01,3.48368e-01,9.99999e-01
6.051222432e-01,3.55700e-01,9.99999e-01,3.55700e-01,9.99999e-01
6.081478544e-01,3.63038e-01,9.99999e-01,3.63038e-01,9.99999e-01
6.111885937e-01,3.70377e-01,9.99999e-01,3.70377e-01,9.99999e-01
6.142445367e-01,3.77715e-01,9.99999e-01,3.77715e-01,9.99999e-01
6.173157594e-01,3.85049e-01,9.99999e-01,3.85049e-01,9.99999e-01
6.204023382e-01,3.92377e-01,9.99999e-01,3.92377e-01,9.99999e-01
6.235043498e-01,3.99695e-01,9.99999e-01,3.99695e-01,9.99999e-01
6.266218716e-01,4.07001e-01,9.99999e-01,4.07001e-01,9.99999e-01
6.297549810e-01,4.14292e-01,9.99999e-01,4.14292e-01,9.99999e-01
6.329037559e-01,4.21566e-01,9.99999e-01,4.21566e-01,9.99999e-01
6.360682746e-01,4.28821e-01,9.99999e-01,4.28821e-01,9.99999e-01
6.392486160e-01,4.36053e-01,9.99999e-01,4.36053e-01,9.99999e-01
6.424448591e-01,4.43261e-01,9.99999e-01,4.43261e-01,9.99999e-01
6.456570834e-01,4.50442e-01,9.99999e-01,4.50442e-01,9.99999e-01
6.488853688e-01,4.57594e-01,9.99999e-01,4.57594e-01,9.99999e-01
6.521297956e-01,4.64715e-01,9.99999e-01,4.64715e-01,9.99999e-01
6.553904446e-01,4.71803e-01,9.99999e-01,4.71803e-01,9.99999e-01
6.586673968e-01,4.78855e-01,9.99999e-01,4.78855e-01,9.99999e-01
6.619607338e-01,4.85871e-01,9.99999e-01,4.85871e-01,9.99999e-01
6.652705375e-01,4.92848e-01,9.99999e-01,4.92848e-01,9.99999e-01
6.685968902e-01,4.99784e-01,9.99999e-01,4.99784e-01,9.99999e-01
6.719398746e-01,5.06678e-01,9.99999e-01,5.06678e-01,9.99999e-01
6.752995740e-01,5.13529e-01,9.99999e-01,5.13529e-01,9.99999e-01
6.786760719e-01,5.20333e-01,9.99999e-01,5.20333e-01,9.99999e-01
6.820694522e-01,5.27091e-01,9.99999e-01,5.27091e-01,9.99999e-01
6.854797995e-01,5.33801e-01,9.99999e-01,5.33801e-01,9.99999e-01
6.889071985e-01,5.40461e-01,9.99999e-01,5.40461e-01,9.99999e-01
6.923517345e-01,5.47070e-01,9.99999e-01,5.47070e-01,9.99999e-01
6.958134932e-01,5.53627e-01,9.99999e-01,5.53627e-01,9.99999e-01
6.992925606e-01,5.60130e-01,9.99999e-01,5.60130e-01,9.99999e-01
7.027890234e-01,5.66580e-01,9.99999e-01,5.66580e-01,9.99999e-01
7.063029686e-01,5.72974e-01,9.99999e-01,5.72974e-01,9.99999e-01
7.098344834e-01,5.79312e-01,9.99999e-01,5.79312e-01,9.99999e-01
7.133836558e-01,5.85592e-01,9.99999e-01,5.85592e-01,9.99999e-01
7.169505741e-01,5.91815e-01,9.99999e-01,5.91815e-01,9.99999e-01
7.205353270e-01,5.97979e-01,9.99999e-01,5.97979e-01,9.99999e-01
7.241380036e-01,6.04083e-01,9.99999e-01,6.04083e-01,9.99999e-01
7.277586936e-01,6.10128e-01,9.99999e-01,6.10128e-01,9.99999e-01
7.313974871e-01,6.16111e-01,9.99999e-01,6.16111e-01,9.99999e-01
7.350544745e-01,6.22034e-01,9.99999e-01,6.22034e-01,9.99999e-01
7.387297469e-01,6.27894e-01,9.99999e-01,6.27894e-01,9.99999e-01
7.424233956e-01,6.33693e-01,9.99999e-01,6.33693e-01,9.99999e-01
7.461355126e-01,6.39429e-01,9.99999e-01,6.39429e-01,9.99999e-01
7.498661902e-01,6.45102e-01,9.99999e-01,6.45102e-01,9.99999e-01
7.536155211e-01,6.50712e-01,9.99999e-01,6.50712e-01,9.99999e-01
7.573835987e-01,6.56258e-01,9.99999e-01,6.56258e-01,9.99999e-01
7.611705167e-01,6.61741e-01,9.99999e-01,6.61741e-01,9.99999e-01
7.649763693e-01,6.67159e-01,9.99999e-01,6.67159e-01,9.99999e-01
7.688012511e-01,6.72514e-01,9.99999e-01,6.72514e-01,9.99999e-01
7.726452574e-01,6.77805e-01,9.99999e-01,6.77805e-01,9.99999e-01
7.765084837e-01,6.83032e-01,9.99999e-01,6.83032e-01,9.99999e-01
7.803910261e-01,6.75532e-01,9.81599e-01,6.88194e-01,9.99999e-01
7.842929812e-01,6.39806e-01,9.22851e-01,6.93293e-01,9.99999e-01
7.882144461e-01,6.40688e-01,9.17460e-01,6.98327e-01,9.99999e-01
7.921555184e-01,6.69328e-01,9.51698e-01,7.03298e-01,9.99999e-01
7.961162960e-01,6.85146e-01,9.67440e-01,7.08204e-01,9.99999e-01
8.000968774e-01,7.00380e-01,9.82235e-01,7.13047e-01,9.99999e-01
8.040973618e-01,7.11191e-01,9.90755e-01,7.17827e-01,9.99999e-01
8.081178486e-01,7.19473e-01,9.95751e-01,7.22543e-01,9.99999e-01
8.121584379e-01,7.26239e-01,9.98683e-01,7.27196e-01,9.99999e-01
8.162192301e-01,7.31573e-01,9.99709e-01,7.31786e-01,9.99999e-01
8.203003262e-01,7.36310e-01,9.99995e-01,7.36314e-01,9.99999e-01
8.244018279e-01,7.40779e-01,9.99999e-01,7.40779e-01,9.99999e-01
8.285238370e-01,7.45182e-01,9.99999e-01,7.45182e-01,9.99999e-01
8.326664562e-01,7.49524e-01,9.99999e-01,7.49524e-01,9.99999e-01
8.368297885e-01,7.53805e-01,9.99999e-01,7.53805e-01,9.99999e-01
8.410139374e-01,7.58025e-01,9.99999e-01,7.58025e-01,9.99999e-01
8.452190071e-01,7.62184e-01,9.99999e-01,7.62184e-01,9.99999e-01
8.494451021e-01,7.66284e-01,9.99999e-01,7.66284e-01,9.99999e-01
8.536923276e-01,7.70323e-01,9.99999e-01,7.70323e-01,9.99999e-01
8.579607893e-01,7.74304e-01,9.99999e-01,7.74304e-01,9.99999e-01
8.622505932e-01,7.78226e-01,9.99999e-01,7.78226e-01,9.99999e-01
8.665618462e-01,7.44512e-01,9.51951e-01,7.82090e-01,9.99999e-01
8.708946554e-01,6.39188e-01,8.13323e-01,7.85896e-01,9.99999e-01
8.752491287e-01,6.69799e-01,8.48227e-01,7.89645e-01,9.99999e-01
8.796253743e-01,7.25383e-01,9.14342e-01,7.93337e-01,9.99999e-01
8.840235012e-01,7.60987e-01,9.54845e-01,7.96974e-01,9.99999e-01
8.884436187e-01,7.86124e-01,9.81973e-01,8.00554e-01,9.99999e-01
8.928858368e-01,7.98185e-01,9.92669e-01,8.04079e-01,9.99999e-01
8.973502660e-01,8.06108e-01,9.98213e-01,8.07550e-01,9.99999e-01
9.018370173e-01,8.10807e-01,9.99802e-01,8.10967e-01,9.99999e-01
9.063462024e-01,8.10227e-01,9.94960e-01,8.14330e-01,9.99999e-01
9.108779334e-01,8.08202e-01,9.88456e-01,8.17641e-01,9.99999e-01
9.154323231e-01,8.18662e-01,9.97274e-01,8.20899e-01,9.99999e-01
9.200094847e-01,7.91170e-01,9.60034e-01,8.24105e-01,9.99999e-01
9.246095321e-01,7.81494e-01,9.44677e-01,8.27260e-01,9.99999e-01
9.292325798e-01,7.94056e-01,9.56273e-01,8.30365e-01,9.99999e-01
9.338787427e-01,7.98199e-01,9.57739e-01,8.33419e-01,9.99999e-01
9.385481364e-01,8.10362e-01,9.68840e-01,8.36424e-01,9.99999e-01
9.432408771e-01,8.23285e-01,9.80823e-01,8.39380e-01,9.99999e-01
9.479570815e-01,8.33971e-01,9.90124e-01,8.42288e-01,9.99999e-01
9.526968669e-01,8.41113e-01,9.95224e-01,8.45149e-01,9.99999e-01
9.574603512e-01,8.46229e-01,9.97955e-01,8.47962e-01,9.99999e-01
9.622476530e-01,8.50186e-01,9.99361e-01,8.50729e-01,9.99999e-01
9.670588912e-01,8.53287e-01,9.99808e-01,8.53450e-01,9.99999e-01
9.718941857e-01,8.56114e-01,9.99985e-01,8.56125e-01,9.99999e-01
9.767536566e-01,8.58756e-01,9.99999e-01,8.58756e-01,9.99999e-01
9.816374249e-01,8.61343e-01,9.99999e-01,8.61343e-01,9.99999e-01
9.865456120e-01,8.63886e-01,9.99999e-01,8.63886e-01,9.99999e-01
9.914783401e-01,8.66386e-01,9.99999e-01,8.66386e-01,9.99999e-01
9.964357318e-01,8.68844e-01,9.99999e-01,8.68844e-01,9.99999e-01
1.001417910e+00,8.71261e-01,9.99999e-01,8.71261e-01,9.99999e-01
1.006425000e+00,8.73635e-01,9.99999e-01,8.73635e-01,9.99999e-01
1.011457125e+00,8.75970e-01,9.99999e-01,8.75970e-01,9.99999e-01
1.016514411e+00,8.78264e-01,9.99999e-01,8.78264e-01,9.99999e-01
1.021596983e+00,8.80496e-01,9.99973e-01,8.80519e-01,9.99999e-01
1.026704968e+00,8.81006e-01,9.98041e-01,8.82735e-01,9.99999e-01
1.031838492e+00,8.60329e-01,9.72218e-01,8.84912e-01,9.99999e-01
1.036997685e+00,2.39598e-01,2.70105e-01,8.87052e-01,9.99999e-01
1.042182673e+00,2.79312e-01,3.14132e-01,8.89154e-01,9.99999e-01
1.047393587e+00,2.64879e-01,2.97209e-01,8.91220e-01,9.99999e-01
1.052630555e+00,3.46333e-02,3.87723e-02,8.93250e-01,9.99999e-01
1.057893707e+00,6.69564e-02,7.47912e-02,8.95244e-01,9.99999e-01
1.063183176e+00,1.36701e-01,1.52363e-01,8.97203e-01,9.99999e-01
1.068499092e+00,2.55027e-01,2.83638e-01,8.99127e-01,9.99999e-01
1.073841587e+00,4.06860e-01,4.51555e-01,9.01017e-01,9.99999e-01
1.079210795e+00,5.46746e-01,6.05561e-01,9.02874e-01,9.99999e-01
1.084606849e+00,6.87866e-01,7.60326e-01,9.04698e-01,9.99999e-01
1.090029883e+00,7.86618e-01,8.67762e-01,9.06490e-01,9.99999e-01
1.095480033e+00,8.46981e-01,9.32542e-01,9.08249e-01,9.99999e-01
1.100957433e+00,8.79912e-01,9.66960e-01,9.09977e-01,9.99999e-01
1.106462220e+00,8.99099e-01,9.86205e-01,9.11675e-01,9.99999e-01
1.111994531e+00,9.08653e-01,9.94866e-01,9.13341e-01,9.99999e-01
1.117554504e+00,9.13829e-01,9.98743e-01,9.14978e-01,9.99999e-01
1.123142276e+00,9.16510e-01,9.99916e-01,9.16585e-01,9.99999e-01
1.128757988e+00,9.18164e-01,9.99999e-01,9.18164e-01,9.99999e-01
1.134401778e+00,9.19713e-01,9.99999e-01,9.19713e-01,9.99999e-01
1.140073787e+00,9.21235e-01,9.99999e-01,9.21235e-01,9.99999e-01
1.145774156e+00,9.22729e-01,9.99999e-01,9.22729e-01,9.99999e-01
1.151503026e+00,9.24196e-01,9.99999e-01,9.24196e-01,9.99999e-01
1.157260541e+00,9.25636e-01,9.99999e-01,9.25636e-01,9.99999e-01
1.163046844e+00,9.27050e-01,9.99999e-01,9.27050e-01,9.99999e-01
1.168862078e+00,9.28438e-01,9.99999e-01,9.28438e-01,9.99999e-01
1.174706389e+00,9.29801e-01,9.99999e-01,9.29801e-01,9.99999e-01
1.180579921e+00,9.31139e-01,9.99999e-01,9.31139e-01,9.99999e-01
1.186482820e+00,9.32449e-01,9.99996e-01,9.32452e-01,9.99999e-01
1.192415234e+00,9.27183e-01,9.92975e-01,9.33741e-01,9.99999e-01
1.198377311e+00,5.44613e-01,5.82470e-01,9.35006e-01,9.99999e-01
1.204369197e+00,6.07193e-07,6.48538e-07,9.36248e-01,9.99999e-01
1.210391043e+00,2.03131e-22,2.16680e-22,9.37467e-01,9.99999e-01
1.216442998e+00,1.19590e-19,1.27404e-19,9.38663e-01,9.99999e-01
1.222525213e+00,2.28066e-19,2.42665e-19,9.39838e-01,9.99999e-01
1.228637839e+00,6.45070e-15,6.85522e-15,9.40990e-01,9.99999e-01
1.234781029e+00,2.92446e-10,3.10412e-10,9.42121e-01,9.99999e-01
1.240954934e+00,5.64666e-07,5.98650e-07,9.43232e-01,9.99999e-01
1.247159708e+00,3.13196e-04,3.31662e-04,9.44321e-01,9.99999e-01
1.253395507e+00,1.11088e-02,1.17505e-02,9.45390e-01,9.99999e-01
1.259662485e+00,7.57502e-02,8.00369e-02,9.46439e-01,9.99999e-01
1.265960797e+00,2.18831e-01,2.30963e-01,9.47469e-01,9.99999e-01
1.272290601e+00,5.19514e-01,5.47733e-01,9.48480e-01,9.99999e-01
1.278652054e+00,4.58977e-01,4.83402e-01,9.49471e-01,9.99999e-01
1.285045314e+00,3.39825e-02,3.57543e-02,9.50444e-01,9.99999e-01
1.291470541e+00,2.53419e-03,2.66364e-03,9.51399e-01,9.99999e-01
1.297927893e+00,3.56047e-02,3.73866e-02,9.52335e-01,9.99999e-01
1.304417533e+00,3.20150e-01,3.35849e-01,9.53254e-01,9.99999e-01
1.310939621e+00,8.96740e-02,9.39824e-02,9.54156e-01,9.99999e-01
1.317494319e+00,3.75867e-08,3.93560e-08,9.55041e-01,9.99999e-01
1.324081790e+00,5.47496e-06,5.72748e-06,9.55909e-01,9.99999e-01
1.330702199e+00,1.53138e-03,1.60059e-03,9.56761e-01,9.99999e-01
1.337355710e+00,1.12970e-03,1.17972e-03,9.57597e-01,9.99999e-01
1.344042489e+00,3.77326e-04,3.93697e-04,9.58417e-01,9.99999e-01
1.350762701e+00,1.15249e-03,1.20148e-03,9.59221e-01,9.99999e-01
1.357516515e+00,1.15212e-02,1.20011e-02,9.60010e-01,9.99999e-01
1.364304097e+00,6.08066e-02,6.32885e-02,9.60784e-01,9.99999e-01
1.371125618e+00,2.23579e-01,2.32520e-01,9.61544e-01,9.99999e-01
1.377981246e+00,2.99829e-01,3.11579e-01,9.62289e-01,9.99999e-01
1.384871152e+00,4.88369e-01,5.07122e-01,9.63020e-01,9.99999e-01
1.391795508e+00,5.14823e-01,5.34194e-01,9.63737e-01,9.99999e-01
1.398754485e+00,6.55995e-01,6.80181e-01,9.64440e-01,9.99999e-01
1.405748258e+00,7.26114e-01,7.52348e-01,9.65130e-01,9.99999e-01
1.412776999e+00,8.07189e-01,8.35766e-01,9.65807e-01,9.99999e-01
1.419840884e+00,7.46630e-01,7.72532e-01,9.66471e-01,9.99999e-01
1.426940089e+00,9.75136e-02,1.00828e-01,9.67122e-01,9.99999e-01
1.434074789e+00,7.64358e-318,7.89821e-318,9.67761e-01,9.99999e-01
1.441245163e+00,0.00000e+00,0.00000e+00,9.68388e-01,9.99999e-01
1.448451389e+00,0.00000e+00,0.00000e+00,9.69002e-01,9.99999e-01
1.455693646e+00,1.82486e-172,1.88206e-172,9.69605e-01,9.99999e-01
1.462972114e+00,4.06440e-84,4.18925e-84,9.70196e-01,9.99999e-01
1.470286975e+00,6.18289e-36,6.36901e-36,9.70776e-01,9.99999e-01
1.477638409e+00,3.21923e-23,3.31419e-23,9.71345e-01,9.99999e-01
1.485026601e+00,1.47717e-13,1.51987e-13,9.71903e-01,9.99999e-01
1.492451734e+00,1.50872e-11,1.55146e-11,9.72450e-01,9.99999e-01
1.499913993e+00,6.11045e-06,6.28008e-06,9.72987e-01,9.99999e-01
1.507413563e+00,7.87044e-05,8.08456e-05,9.73514e-01,9.99999e-01
1.514950631e+00,3.34325e-06,3.43239e-06,9.74030e-01,9.99999e-01
1.522525384e+00,5.08368e-17,5.21651e-17,9.74536e-01,9.99999e-01
1.530138011e+00,4.02314e-38,4.12616e-38,9.75033e-01,9.99999e-01
1.537788701e+00,1.22019e-28,1.25081e-28,9.75520e-01,9.99999e-01
1.545477645e+00,1.92687e-07,1.97426e-07,9.75998e-01,9.99999e-01
1.553205033e+00,6.22813e-05,6.37823e-05,9.76466e-01,9.99999e-01
1.560971058e+00,1.62963e-05,1.66812e-05,9.76926e-01,9.99999e-01
1.568775913e+00,3.19922e-94,3.27327e-94,9.77376e-01,9.99999e-01
1.576619793e+00,3.32621e-219,3.40167e-219,9.77818e-01,9.99999e-01
1.584502892e+00,4.34569e-120,4.44230e-120,9.78251e-01,9.99999e-01
1.592425406e+00,5.15941e-84,5.27182e-84,9.78676e-01,9.99999e-01
1.600387533e+00,1.06407e-134,1.08679e-134,9.79093e-01,9.99999e-01
1.608389471e+00,1.48876e-225,1.51991e-225,9.79502e-01,9.99999e-01
1.616431418e+00,5.71859e-227,5.83587e-227,9.79902e-01,9.99999e-01
1.624513575e+00,1.74999e-106,1.78517e-106,9.80295e-01,9.99999e-01
1.632636143e+00,1.85671e-79,1.89328e-79,9.80681e-01,9.99999e-01
1.640799324e+00,2.01996e-33,2.05896e-33,9.81059e-01,9.99999e-01
1.649003321e+00,2.34074e-33,2.38503e-33,9.81429e-01,9.99999e-01
1.657248337e+00,4.32437e-26,4.40456e-26,9.81793e-01,9.99999e-01
1.665534579e+00,2.89065e-26,2.94318e-26,9.82149e-01,9.99999e-01
1.673862252e+00,2.90554e-17,2.95730e-17,9.82499e-01,9.99999e-01
1.682231563e+00,2.09165e-12,2.12816e-12,9.82841e-01,9.99999e-01
1.690642721e+00,1.30968e-07,1.33209e-07,9.83177e-01,9.99999e-01
1.699095934e+00,5.61141e-05,5.70550e-05,9.83507e-01,9.99999e-01
1.707591414e+00,5.26057e-03,5.34703e-03,9.83830e-01,9.99999e-01
1.716129371e+00,5.68613e-02,5.77772e-02,9.84147e-01,9.99999e-01
1.724710018e+00,2.14860e-01,2.18252e-01,9.84458e-01,9.99999e-01
1.733333568e+00,3.71169e-01,3.76912e-01,9.84762e-01,9.99999e-01
1.742000236e+00,5.37417e-01,5.45567e-01,9.85061e-01,9.99999e-01
1.750710237e+00,3.56936e-02,3.62241e-02,9.85354e-01,9.99999e-01
1.759463788e+00,1.99588e-16,2.02496e-16,9.85641e-01,9.99999e-01
1.768261107e+00,1.92957e-17,1.95712e-17,9.85923e-01,9.99999e-01
1.777102413e+00,2.32364e-16,2.35616e-16,9.86199e-01,9.99999e-01
1.785987925e+00,6.71772e-16,6.80986e-16,9.86469e-01,9.99999e-01
1.794917864e+00,6.08345e-15,6.16523e-15,9.86735e-01,9.99999e-01
1.803892454e+00,7.30035e-15,7.39654e-15,9.86995e-01,9.99999e-01
1.812911916e+00,4.64991e-14,4.70996e-14,9.87250e-01,9.99999e-01
1.821976476e+00,2.73752e-14,2.77217e-14,9.87501e-01,9.99999e-01
1.831086358e+00,8.88097e-12,8.99113e-12,9.87746e-01,9.99999e-01
1.840241790e+00,5.90868e-10,5.98052e-10,9.87987e-01,9.99999e-01
1.849442999e+00,4.74535e-07,4.80190e-07,9.88222e-01,9.99999e-01
1.858690214e+00,2.26448e-06,2.29093e-06,9.88454e-01,9.99999e-01
1.867983665e+00,3.63848e-07,3.68013e-07,9.88680e-01,9.99999e-01
1.877323583e+00,2.60984e-30,2.63913e-30,9.88903e-01,9.99999e-01
