#,Wave/freq,Total,CO2,Rayleigh,CIA
4.000000000e-01,2.77160e-08,9.99999e-01,2.77160e-08,9.99999e-01
4.020000000e-01,3.90982e-08,9.99999e-01,3.90982e-08,9.99999e-01
4.040100000e-01,5.47620e-08,9.99999e-01,5.47620e-08,9.99999e-01
4.060300500e-01,7.61926e-08,9.99999e-01,7.61926e-08,9.99999e-01
4.080602003e-01,1.05320e-07,9.99999e-01,1.05320e-07,9.99999e-01
4.101005013e-01,1.44656e-07,9.99999e-01,1.44656e-07,9.99999e-01
4.121510038e-01,1.97440e-07,9.99999e-01,1.97440e-07,9.99999e-01
4.142117588e-01,2.67835e-07,9.99999e-01,2.67835e-07,9.99999e-01
4.162828176e-01,3.61146e-07,9.99999e-01,3.61146e-07,9.99999e-01
4.183642317e-01,4.84100e-07,9.99999e-01,4.84100e-07,9.99999e-01
4.204560528e-01,6.45168e-07,9.99999e-01,6.45168e-07,9.99999e-01
4.225583331e-01,8.54963e-07,9.99999e-01,8.54963e-07,9.99999e-01
4.246711247e-01,1.12670e-06,9.99999e-01,1.12670e-06,9.99999e-01
4.267944804e-01,1.47672e-06,9.99999e-01,1.47672e-06,9.99999e-01
4.289284528e-01,1.92517e-06,9.99999e-01,1.92517e-06,9.99999e-01
4.310730950e-01,2.49669e-06,9.99999e-01,2.49669e-06,9.99999e-01
4.332284605e-01,3.22130e-06,9.99999e-01,3.22130e-06,9.99999e-01
4.353946028e-01,4.13533e-06,9.99999e-01,4.13533e-06,9.99999e-01
4.375715758e-01,5.28260e-06,9.99999e-01,5.28260e-06,9.99999e-01
4.397594337e-01,6.71560e-06,9.99999e-01,6.71560e-06,9.99999e-01
4.419582309e-01,8.49694e-06,9.99999e-01,8.49694e-06,9.99999e-01
4.441680220e-01,1.07009e-05,9.99999e-01,1.07009e-05,9.99999e-01
4.463888621e-01,1.34154e-05,9.99999e-01,1.34154e-05,9.99999e-01
4.486208064e-01,1.67435e-05,9.99999e-01,1.67435e-05,9.99999e-01
4.508639105e-01,2.08059e-05,9.99999e-01,2.08059e-05,9.99999e-01
4.531182300e-01,2.57433e-05,9.99999e-01,2.57433e-05,9.99999e-01
4.553838212e-01,3.17186e-05,9.99999e-01,3.17186e-05,9.99999e-01
4.576607403e-01,3.89202e-05,9.99999e-01,3.89202e-05,9.99999e-01
4.599490440e-01,4.75641e-05,9.99999e-01,4.75641e-05,9.99999e-01
4.622487892e-01,5.78980e-05,9.99999e-01,5.78980e-05,9.99999e-01
4.645600332e-01,7.02040e-05,9.99999e-01,7.02040e-05,9.99999e-01
4.668828333e-01,8.48021e-05,9.99999e-01,8.48021e-05,9.99999e-01
4.692172475e-01,1.02054e-04,9.99999e-01,1.02054e-04,9.99999e-01
4.715633337e-01,1.22367e-04,9.99999e-01,1.22367e-04,9.99999e-01
4.739211504e-01,1.46199e-04,9.99999e-01,1.46199e-04,9.99999e-01
4.762907561e-01,1.74059e-04,9.99999e-01,1.74059e-04,9.99999e-01
4.786722099e-01,2.06515e-04,9.99999e-01,2.06515e-04,9.99999e-01
4.810655710e-01,2.44197e-04,9.99999e-01,2.44197e-04,9.99999e-01
4.834708988e-01,2.87801e-04,9.99999e-01,2.87801e-04,9.99999e-01
4.858882533e-01,3.38091e-04,9.99999e-01,3.38091e-04,9.99999e-01
4.883176946e-01,3.95907e-04,9.99999e-01,3.95907e-04,9.99999e-01
4.907592831e-01,4.62168e-04,9.99999e-01,4.62168e-04,9.99999e-01
4.932130795e-01,5.37871e-04,9.99999e-01,5.37871e-04,9.99999e-01
4.956791449e-01,6.24101e-04,9.99999e-01,6.24101e-04,9.99999e-01
4.981575406e-01,7.22032e-04,9.99999e-01,7.22032e-04,9.99999e-01
5.006483283e-01,8.32929e-04,9.99999e-01,8.32929e-04,9.99999e-01
5.031515699e-01,9.58150e-04,9.99999e-01,9.58150e-04,9.99999e-01
5.056673278e-01,1.09915e-03,9.99999e-01,1.09915e-03,9.99999e-01
5.081956644e-01,1.25749e-03,9.99999e-01,1.25749e-03,9.99999e-01
5.107366428e-01,1.43482e-03,9.99999e-01,1.43482e-03,9.99999e-01
5.132903260e-01,1.63289e-03,9.99999e-01,1.63289e-03,9.99999e-01
5.158567776e-01,1.85356e-03,9.99999e-01,1.85356e-03,9.99999e-01
5.184360615e-01,2.09880e-03,9.99999e-01,2.09880e-03,9.99999e-01
5.210282418e-01,2.37066e-03,9.99999e-01,2.37066e-03,9.99999e-01
5.236333830e-01,2.67129e-03,9.99999e-01,2.67129e-03,9.99999e-01
5.262515499e-01,3.00297e-03,9.99999e-01,3.00297e-03,9.99999e-01
5.288828077e-01,3.36802e-03,9.99999e-01,3.36802e-03,9.99999e-01
5.315272217e-01,3.76891e-03,9.99999e-01,3.76891e-03,9.99999e-01
5.341848578e-01,4.20815e-03,9.99999e-01,4.20815e-03,9.99999e-01
5.368557821e-01,4.68836e-03,9.99999e-01,4.68836e-03,9.99999e-01
5.395400610e-01,5.21224e-03,9.99999e-01,5.21224e-03,9.99999e-01
5.422377613e-01,5.78254e-03,9.99999e-01,5.78254e-03,9.99999e-01
5.449489501e-01,6.40210e-03,9.99999e-01,6.40210e-03,9.99999e-01
5.476736949e-01,7.07380e-03,9.99999e-01,7.07380e-03,9.99999e-01
5.504120634e-01,7.80059e-03,9.99999e-01,7.80059e-03,9.99999e-01
5.531641237e-01,8.58546e-03,9.99999e-01,8.58546e-03,9.99999e-01
5.559299443e-01,9.43141e-03,9.99999e-01,9.43141e-03,9.99999e-01
5.587095940e-01,1.03415e-02,9.99999e-01,1.03415e-02,9.99999e-01
5.615031420e-01,1.13188e-02,9.99999e-01,1.13188e-02,9.99999e-01
5.643106577e-01,1.23664e-02,9.99999e-01,1.23664e-02,9.99999e-01
5.671322110e-01,1.34873e-02,9.99999e-01,1.34873e-02,9.99999e-01
5.699678720e-01,1.46847e-02,9.99999e-01,1.46847e-02,9.99999e-01
5.728177114e-01,1.59615e-02,9.99999e-01,1.59615e-02,9.99999e-01
5.756818000e-01,1.73208e-02,9.99999e-01,1.73208e-02,9.99999e-01
5.785602090e-01,1.87655e-02,9.99999e-01,1.87655e-02,9.99999e-01
5.814530100e-01,2.02986e-02,9.99999e-01,2.02986e-02,9.99999e-01
5.843602750e-01,2.19228e-02,9.99999e-01,2.19228e-02,9.99999e-01
5.872820764e-01,2.36411e-02,9.99999e-01,2.36411e-02,9.99999e-01
5.902184868e-01,2.54561e-02,9.99999e-01,2.54561e-02,9.99999e-01
5.931695792e-01,2.73704e-02,9.99999e-01,2.73704e-02,9.99999e-01
5.961354271e-01,2.93866e-02,9.99999e-01,2.93866e-02,9.99999e-01
5.991161043e-01,3.15070e-02,9.99999e-01,3.15070e-02,9.99999e-01
6.021116848e-01,3.37340e-02,9.99999e-01,3.37340e-02,9.99999e-01
6.051222432e-01,3.60696e-02,9.99999e-01,3.60696e-02,9.99999e-01
6.081478544e-01,3.85161e-02,9.99999e-01,3.85161e-02,9.99999e-01
6.111885937e-01,4.10751e-02,9.99999e-01,4.10751e-02,9.99999e-01
6.142445367e-01,4.37486e-02,9.99999e-01,4.37486e-02,9.99999e-01
6.173157594e-01,4.65381e-02,9.99999e-01,4.65381e-02,9.99999e-01
6.204023382e-01,4.94450e-02,9.99999e-01,4.94450e-02,9.99999e-01
6.235043498e-01,5.24707e-02,9.99999e-01,5.24707e-02,9.99999e-01
6.266218716e-01,5.56162e-02,9.99999e-01,5.56162e-02,9.99999e-01
6.297549810e-01,5.88826e-02,9.99999e-01,5.88826e-02,9.99999e-01
6.329037559e-01,6.22706e-02,9.99999e-01,6.22706e-02,9.99999e-01
6.360682746e-01,6.57807e-02,9.99999e-01,6.57807e-02,9.99999e-01
6.392486160e-01,6.94135e-02,9.99999e-01,6.94135e-02,9.99999e-01
6.424448591e-01,7.31692e-02,9.99999e-01,7.31692e-02,9.99999e-01
6.456570834e-01,7.70479e-02,9.99999e-01,7.70479e-02,9.99999e-01
6.488853688e-01,8.10494e-02,9.99999e-01,8.10494e-02,9.99999e-01
6.521297956e-01,8.51736e-02,9.99999e-01,8.51736e-02,9.99999e-01
6.553904446e-01,8.94199e-02,9.99999e-01,8.94199e-02,9.99999e-01
6.586673968e-01,9.37877e-02,9.99999e-01,9.37877e-02,9.99999e-01
6.619607338e-01,9.82762e-02,9.99999e-01,9.82762e-02,9.99999e-01
6.652705375e-01,1.02885e-01,9.99999e-01,1.02885e-01,9.99999e-01
6.685968902e-01,1.07611e-01,9.99999e-01,1.07611e-01,9.99999e-01
6.719398746e-01,1.12456e-01,9.99999e-01,1.12456e-01,9.99999e-01
6.752995740e-01,1.17416e-01,9.99999e-01,1.17416e-01,9.99999e-01
6.786760719e-01,1.22491e-01,9.99999e-01,1.22491e-01,9.99999e-01
6.820694522e-01,1.27678e-01,9.99999e-01,1.27678e-01,9.99999e-01
6.854797995e-01,1.32975e-01,9.99999e-01,1.32975e-01,9.99999e-01
6.889071985e-01,1.38382e-01,9.99999e-01,1.38382e-01,9.99999e-01
6.923517345e-01,1.43895e-01,9.99999e-01,1.43895e-01,9.99999e-01
6.958134932e-01,1.49512e-01,9.99999e-01,1.49512e-01,9.99999e-01
6.992925606e-01,1.55231e-01,9.99999e-01,1.55231e-01,9.99999e-01
7.027890234e-01,1.61049e-01,9.99999e-01,1.61049e-01,9.99999e-01
7.063029686e-01,1.66964e-01,9.99999e-01,1.66964e-01,9.99999e-01
7.098344834e-01,1.72973e-01,9.99999e-01,1.72973e-01,9.99999e-01
7.133836558e-01,1.79073e-01,9.99999e-01,1.79073e-01,9.99999e-01
7.169505741e-01,1.85261e-01,9.99999e-01,1.85261e-01,9.99999e-01
7.205353270e-01,1.91534e-01,9.99999e-01,1.91534e-01,9.99999e-01
7.241380036e-01,1.97890e-01,9.99999e-01,1.97890e-01,9.99999e-01
7.277586936e-01,2.04325e-01,9.99999e-01,2.04325e-01,9.99999e-01
7.313974871e-01,2.10836e-01,9.99999e-01,2.10836e-01,9.99999e-01
7.350544745e-01,2.17419e-01,9.99999e-01,2.17419e-01,9.99999e-01
7.387297469e-01,2.24072e-01,9.99999e-01,2.24072e-01,9.99999e-01
7.424233956e-01,2.30791e-01,9.99999e-01,2.30791e-01,9.99999e-01
7.461355126e-01,2.37573e-01,9.99999e-01,2.37573e-01,9.99999e-01
7.498661902e-01,2.44415e-01,9.99999e-01,2.44415e-01,9.99999e-01
7.536155211e-01,2.51312e-01,9.99999e-01,2.51312e-01,9.99999e-01
7.573835987e-01,2.58262e-01,9.99999e-01,2.58262e-01,9.99999e-01
7.611705167e-01,2.65261e-01,9.99999e-01,2.65261e-01,9.99999e-01
7.649763693e-01,2.72306e-01,9.99999e-01,2.72306e-01,9.99999e-01
7.688012511e-01,2.79394e-01,9.99999e-01,2.79394e-01,9.99999e-01
7.726452574e-01,2.86520e-01,9.99999e-01,2.86520e-01,9.99999e-01
7.765084837e-01,2.93682e-01,9.99999e-01,2.93682e-01,9.99999e-01
7.803910261e-01,2.84628e-01,9.45995e-01,3.00877e-01,9.99999e-01
7.842929812e-01,2.40415e-01,7.80315e-01,3.08100e-01,9.99999e-01
7.882144461e-01,2.41843e-01,7.66906e-01,3.15349e-01,9.99999e-01
7.921555184e-01,2.75539e-01,8.54066e-01,3.22620e-01,9.99999e-01
7.961162960e-01,2.96863e-01,8.99830e-01,3.29910e-01,9.99999e-01
8.000968774e-01,3.18436e-01,9.44306e-01,3.37216e-01,9.99999e-01
8.040973618e-01,3.34477e-01,9.70806e-01,3.44535e-01,9.99999e-01
8.081178486e-01,3.47098e-01,9.86456e-01,3.51864e-01,9.99999e-01
8.121584379e-01,3.57698e-01,9.95821e-01,3.59199e-01,9.99999e-01
8.162192301e-01,3.66198e-01,9.99075e-01,3.66537e-01,9.99999e-01
8.203003262e-01,3.73871e-01,9.99986e-01,3.73876e-01,9.99999e-01
8.244018279e-01,3.81213e-01,9.99999e-01,3.81213e-01,9.99999e-01
8.285238370e-01,3.88544e-01,9.99999e-01,3.88544e-01,9.99999e-01
8.326664562e-01,3.95867e-01,9.99999e-01,3.95867e-01,9.99999e-01
8.368297885e-01,4.03180e-01,9.99999e-01,4.03180e-01,9.99999e-01
8.410139374e-01,4.10480e-01,9.99999e-01,4.10480e-01,9.99999e-01
8.452190071e-01,4.17763e-01,9.99999e-01,4.17763e-01,9.99999e-01
8.494451021e-01,4.25028e-01,9.99999e-01,4.25028e-01,9.99999e-01
8.536923276e-01,4.32272e-01,9.99999e-01,4.32272e-01,9.99999e-01
8.579607893e-01,4.39493e-01,9.99999e-01,4.39493e-01,9.99999e-01
8.622505932e-01,4.46688e-01,9.99999e-01,4.46688e-01,9.99999e-01
8.665618462e-01,4.08065e-01,8.99107e-01,4.53856e-01,9.99999e-01
8.708946554e-01,2.47102e-01,5.36021e-01,4.60993e-01,9.99999e-01
8.752491287e-01,2.81763e-01,6.01929e-01,4.68099e-01,9.99999e-01
8.796253743e-01,3.58552e-01,7.54576e-01,4.75170e-01,9.99999e-01
8.840235012e-01,4.16303e-01,8.63330e-01,4.82205e-01,9.99999e-01
8.884436187e-01,4.61675e-01,9.43729e-01,4.89203e-01,9.99999e-01
8.928858368e-01,4.84639e-01,9.76777e-01,4.96161e-01,9.99999e-01
8.973502660e-01,5.00225e-01,9.94329e-01,5.03077e-01,9.99999e-01
9.018370173e-01,5.09632e-01,9.99374e-01,5.09950e-01,9.99999e-01
9.063462024e-01,5.08429e-01,9.83841e-01,5.16779e-01,9.99999e-01
9.108779334e-01,5.04493e-01,9.63578e-01,5.23562e-01,9.99999e-01
9.154323231e-01,5.25726e-01,9.91379e-01,5.30297e-01,9.99999e-01
9.200094847e-01,4.75161e-01,8.84870e-01,5.36983e-01,9.99999e-01
9.246095321e-01,4.53454e-01,8.34139e-01,5.43619e-01,9.99999e-01
9.292325798e-01,4.77336e-01,8.67563e-01,5.50203e-01,9.99999e-01
9.338787427e-01,4.85395e-01,8.71860e-01,5.56735e-01,9.99999e-01
9.385481364e-01,5.09068e-01,9.03863e-01,5.63213e-01,9.99999e-01
9.432408771e-01,5.35450e-01,9.39986e-01,5.69636e-01,9.99999e-01
9.479570815e-01,5.57975e-01,9.68701e-01,5.76003e-01,9.99999e-01
9.526968669e-01,5.73468e-01,9.84809e-01,5.82314e-01,9.99999e-01
9.574603512e-01,5.84728e-01,9.93478e-01,5.88567e-01,9.99999e-01
9.622476530e-01,5.93550e-01,9.97962e-01,5.94761e-01,9.99999e-01
9.670588912e-01,6.00531e-01,9.99389e-01,6.00897e-01,9.99999e-01
9.718941857e-01,6.06947e-01,9.99957e-01,6.06973e-01,9.99999e-01
9.767536566e-01,6.12988e-01,9.99999e-01,6.12988e-01,9.99999e-01
9.816374249e-01,6.18943e-01,9.99999e-01,6.18943e-01,9.99999e-01
9.865456120e-01,6.24836e-01,9.99999e-01,6.24836e-01,9.99999e-01
9.914783401e-01,6.30667e-01,9.99999e-01,6.30667e-01,9.99999e-01
9.964357318e-01,6.36436e-01,9.99999e-01,6.36436e-01,9.99999e-01
1.001417910e+00,6.42142e-01,9.99999e-01,6.42142e-01,9.99999e-01
1.006425000e+00,6.47784e-01,9.99999e-01,6.47784e-01,9.99999e-01
1.011457125e+00,6.53364e-01,9.99999e-01,6.53364e-01,9.99999e-01
1.016514411e+00,6.58880e-01,9.99999e-01,6.58880e-01,9.99999e-01
1.021596983e+00,6.64271e-01,9.99906e-01,6.64332e-01,9.99999e-01
1.026704968e+00,6.65456e-01,9.93631e-01,6.69721e-01,9.99999e-01
1.031838492e+00,6.31098e-01,9.34897e-01,6.75045e-01,9.99999e-01
1.036997685e+00,6.38185e-02,9.38086e-02,6.80305e-01,9.99999e-01
1.042182673e+00,2.35512e-02,3.43561e-02,6.85501e-01,9.99999e-01
1.047393587e+00,3.79235e-02,5.49112e-02,6.90633e-01,9.99999e-01
1.052630555e+00,1.54910e-04,2.22668e-04,6.95701e-01,9.99999e-01
1.057893707e+00,5.11380e-04,7.29806e-04,7.00705e-01,9.99999e-01
1.063183176e+00,3.25569e-03,4.61378e-03,7.05645e-01,9.99999e-01
1.068499092e+00,1.47398e-02,2.07451e-02,7.10521e-01,9.99999e-01
1.073841587e+00,6.10876e-02,8.53972e-02,7.15334e-01,9.99999e-01
1.079210795e+00,1.51775e-01,2.10773e-01,7.20083e-01,9.99999e-01
1.084606849e+00,3.04912e-01,4.20701e-01,7.24769e-01,9.99999e-01
1.090029883e+00,4.64480e-01,6.36803e-01,7.29392e-01,9.99999e-01
1.095480033e+00,5.87552e-01,8.00530e-01,7.33953e-01,9.99999e-01
1.100957433e+00,6.63252e-01,8.98166e-01,7.38450e-01,9.99999e-01
1.106462220e+00,7.10626e-01,9.56573e-01,7.42886e-01,9.99999e-01
1.111994531e+00,7.35060e-01,9.83672e-01,7.47260e-01,9.99999e-01
1.117554504e+00,7.48568e-01,9.96001e-01,7.51573e-01,9.99999e-01
1.123142276e+00,7.55627e-01,9.99737e-01,7.55825e-01,9.99999e-01
1.128757988e+00,7.60016e-01,9.99999e-01,7.60016e-01,9.99999e-01
1.134401778e+00,7.64146e-01,9.99999e-01,7.64146e-01,9.99999e-01
1.140073787e+00,7.68217e-01,9.99999e-01,7.68217e-01,9.99999e-01
1.145774156e+00,7.72229e-01,9.99999e-01,7.72229e-01,9.99999e-01
1.151503026e+00,7.76182e-01,9.99999e-01,7.76182e-01,9.99999e-01
1.157260541e+00,7.80076e-01,9.99999e-01,7.80076e-01,9.99999e-01
1.163046844e+00,7.83912e-01,9.99999e-01,7.83912e-01,9.99999e-01
1.168862078e+00,7.87691e-01,9.99999e-01,7.87691e-01,9.99999e-01
1.174706389e+00,7.91413e-01,9.99999e-01,7.91413e-01,9.99999e-01
1.180579921e+00,7.95078e-01,9.99999e-01,7.95078e-01,9.99999e-01
1.186482820e+00,7.98677e-01,9.99986e-01,7.98688e-01,9.99999e-01
1.192415234e+00,7.84304e-01,9.77640e-01,8.02242e-01,9.99999e-01
1.198377311e+00,4.39384e-01,5.45316e-01,8.05741e-01,9.99999e-01
1.204369197e+00,2.43449e-17,3.00857e-17,8.09186e-01,9.99999e-01
1.210391043e+00,4.41576e-67,5.43426e-67,8.12577e-01,9.99999e-01
1.216442998e+00,3.46111e-58,4.24200e-58,8.15915e-01,9.99999e-01
1.222525213e+00,2.49776e-57,3.04902e-57,8.19201e-01,9.99999e-01
1.228637839e+00,2.29239e-44,2.78732e-44,8.22434e-01,9.99999e-01
1.234781029e+00,4.78672e-28,5.79775e-28,8.25616e-01,9.99999e-01
1.240954934e+00,8.77856e-19,1.05926e-18,8.28747e-01,9.99999e-01
1.247159708e+00,1.16465e-09,1.40010e-09,8.31827e-01,9.99999e-01
1.253395507e+00,1.94303e-06,2.32737e-06,8.34858e-01,9.99999e-01
1.259662485e+00,4.94613e-04,5.90343e-04,8.37840e-01,9.99999e-01
1.265960797e+00,1.22713e-02,1.45952e-02,8.40773e-01,9.99999e-01
1.272290601e+00,1.30692e-01,1.54911e-01,8.43658e-01,9.99999e-01
1.278652054e+00,1.10966e-01,1.31089e-01,8.46496e-01,9.99999e-01
1.285045314e+00,7.86349e-04,9.25893e-04,8.49287e-01,9.99999e-01
1.291470541e+00,2.00579e-08,2.35412e-08,8.52032e-01,9.99999e-01
1.297927893e+00,1.06207e-03,1.24258e-03,8.54731e-01,9.99999e-01
1.304417533e+00,2.81699e-02,3.28555e-02,8.57385e-01,9.99999e-01
1.310939621e+00,4.62178e-03,5.37419e-03,8.59995e-01,9.99999e-01
1.317494319e+00,1.43280e-23,1.66110e-23,8.62561e-01,9.99999e-01
1.324081790e+00,1.14440e-15,1.32287e-15,8.65084e-01,9.99999e-01
1.330702199e+00,2.69578e-09,3.10729e-09,8.67564e-01,9.99999e-01
1.337355710e+00,8.89754e-09,1.02270e-08,8.70002e-01,9.99999e-01
1.344042489e+00,3.33641e-09,3.82441e-09,8.72398e-01,9.99999e-01
1.350762701e+00,1.51912e-09,1.73662e-09,8.74754e-01,9.99999e-01
1.357516515e+00,3.31062e-06,3.77464e-06,8.77069e-01,9.99999e-01
1.364304097e+00,1.76970e-04,2.01252e-04,8.79344e-01,9.99999e-01
1.371125618e+00,1.10634e-02,1.25495e-02,8.81580e-01,9.99999e-01
1.377981246e+00,2.20479e-02,2.49473e-02,8.83778e-01,9.99999e-01
1.384871152e+00,1.03387e-01,1.16698e-01,8.85937e-01,9.99999e-01
1.391795508e+00,1.22177e-01,1.37577e-01,8.88059e-01,9.99999e-01
1.398754485e+00,2.59284e-01,2.91283e-01,8.90144e-01,9.99999e-01
1.405748258e+00,3.61397e-01,4.05066e-01,8.92192e-01,9.99999e-01
1.412776999e+00,5.04438e-01,5.64119e-01,8.94205e-01,9.99999e-01
1.419840884e+00,4.51037e-01,5.03287e-01,8.96182e-01,9.99999e-01
1.426940089e+00,2.74498e-02,3.05634e-02,8.98124e-01,9.99999e-01
1.434074789e+00,0.00000e+00,0.00000e+00,9.00033e-01,9.99999e-01
1.441245163e+00,0.00000e+00,0.00000e+00,9.01907e-01,9.99999e-01
1.448451389e+00,0.00000e+00,0.00000e+00,9.03748e-01,9.99999e-01
1.455693646e+00,0.00000e+00,0.00000e+00,9.05557e-01,9.99999e-01
1.462972114e+00,2.12865e-265,2.34605e-265,9.07333e-01,9.99999e-01
1.470286975e+00,1.57465e-110,1.73214e-110,9.09077e-01,9.99999e-01
1.477638409e+00,1.04415e-69,1.14642e-69,9.10791e-01,9.99999e-01
1.485026601e+00,4.22232e-39,4.62734e-39,9.12473e-01,9.99999e-01
1.492451734e+00,2.53028e-33,2.76798e-33,9.14126e-01,9.99999e-01
1.499913993e+00,7.37769e-15,8.05645e-15,9.15748e-01,9.99999e-01
1.507413563e+00,1.24368e-13,1.35575e-13,9.17342e-01,9.99999e-01
1.514950631e+00,4.63109e-15,5.03978e-15,9.18906e-01,9.99999e-01
1.522525384e+00,9.72856e-50,1.05694e-49,9.20442e-01,9.99999e-01
1.530138011e+00,6.61222e-118,7.17198e-118,9.21951e-01,9.99999e-01
1.537788701e+00,2.20713e-87,2.39014e-87,9.23432e-01,9.99999e-01
1.545477645e+00,5.96818e-19,6.45287e-19,9.24886e-01,9.99999e-01
1.553205033e+00,1.12729e-13,1.21696e-13,9.26314e-01,9.99999e-01
1.560971058e+00,4.09101e-14,4.40977e-14,9.27715e-01,9.99999e-01
1.568775913e+00,7.03723e-298,7.57431e-298,9.29091e-01,9.99999e-01
1.576619793e+00,0.00000e+00,0.00000e+00,9.30442e-01,9.99999e-01
1.584502892e+00,0.00000e+00,0.00000e+00,9.31768e-01,9.99999e-01
1.592425406e+00,1.64258e-265,1.76040e-265,9.33069e-01,9.99999e-01
1.600387533e+00,0.00000e+00,0.00000e+00,9.34347e-01,9.99999e-01
1.608389471e+00,0.00000e+00,0.00000e+00,9.35601e-01,9.99999e-01
1.616431418e+00,0.00000e+00,0.00000e+00,9.36832e-01,9.99999e-01
1.624513575e+00,0.00000e+00,0.00000e+00,9.38040e-01,9.99999e-01
1.632636143e+00,1.74349e-250,1.85631e-250,9.39226e-01,9.99999e-01
1.640799324e+00,1.90802e-102,2.02896e-102,9.40390e-01,9.99999e-01
1.649003321e+00,1.91042e-102,2.02905e-102,9.41532e-01,9.99999e-01
1.657248337e+00,2.63500e-79,2.79530e-79,9.42653e-01,9.99999e-01
1.665534579e+00,7.83863e-80,8.30579e-80,9.43754e-01,9.99999e-01
1.673862252e+00,4.08052e-51,4.31877e-51,9.44833e-01,9.99999e-01
1.682231563e+00,1.38381e-35,1.46297e-35,9.45893e-01,9.99999e-01
1.690642721e+00,4.78112e-20,5.04905e-20,9.46933e-01,9.99999e-01
1.699095934e+00,6.57964e-13,6.94088e-13,9.47953e-01,9.99999e-01
1.707591414e+00,5.68643e-07,5.99230e-07,9.48955e-01,9.99999e-01
1.716129371e+00,2.52658e-04,2.65973e-04,9.49937e-01,9.99999e-01
1.724710018e+00,9.06009e-03,9.52788e-03,9.50901e-01,9.99999e-01
1.733333568e+00,4.42769e-02,4.65168e-02,9.51847e-01,9.99999e-01
1.742000236e+00,1.56463e-01,1.64218e-01,9.52776e-01,9.99999e-01
1.750710237e+00,1.61834e-03,1.69693e-03,9.53687e-01,9.99999e-01
1.759463788e+00,8.10949e-49,8.49534e-49,9.54580e-01,9.99999e-01
1.768261107e+00,4.28600e-51,4.48581e-51,9.55457e-01,9.99999e-01
1.777102413e+00,1.22807e-49,1.28417e-49,9.56317e-01,9.99999e-01
1.785987925e+00,1.14828e-46,1.19967e-46,9.57161e-01,9.99999e-01
1.794917864e+00,1.42830e-44,1.49094e-44,9.57990e-01,9.99999e-01
1.803892454e+00,6.91103e-43,7.20798e-43,9.58802e-01,9.99999e-01
1.812911916e+00,3.34935e-41,3.49036e-41,9.59599e-01,9.99999e-01
1.821976476e+00,2.81405e-41,2.93013e-41,9.60381e-01,9.99999e-01
1.831086358e+00,2.91194e-33,3.02964e-33,9.61148e-01,9.99999e-01
1.840241790e+00,2.40857e-28,2.50396e-28,9.61901e-01,9.99999e-01
1.849442999e+00,9.25133e-20,9.61037e-20,9.62639e-01,9.99999e-01
1.858690214e+00,1.65322e-18,1.71609e-18,9.63363e-01,9.99999e-01
1.867983665e+00,3.32241e-19,3.44622e-19,9.64074e-01,9.99999e-01
1.877323583e+00,8.07131e-93,8.36603e-93,9.64771e-01,9.99999e-01
