#,Wave/freq,Total,CO2,Rayleigh,CIA
4.000000000e-01,1.50624e-02,9.99999e-01,1.50624e-02,9.99999e-01
4.020000000e-01,1.63652e-02,9.99999e-01,1.63652e-02,9.99999e-01
4.040100000e-01,1.77501e-02,9.99999e-01,1.77501e-02,9.99999e-01
4.060300500e-01,1.92213e-02,9.99999e-01,1.92213e-02,9.99999e-01
4.080602003e-01,2.07818e-02,9.99999e-01,2.07818e-02,9.99999e-01
4.101005013e-01,2.24343e-02,9.99999e-01,2.24343e-02,9.99999e-01
4.121510038e-01,2.41817e-02,9.99999e-01,2.41817e-02,9.99999e-01
4.142117588e-01,2.60265e-02,9.99999e-01,2.60265e-02,9.99999e-01
4.162828176e-01,2.79715e-02,9.99999e-01,2.79715e-02,9.99999e-01
4.183642317e-01,3.00190e-02,9.99999e-01,3.00190e-02,9.99999e-01
4.204560528e-01,3.21716e-02,9.99999e-01,3.21716e-02,9.99999e-01
4.225583331e-01,3.44313e-02,9.99999e-01,3.44313e-02,9.99999e-01
4.246711247e-01,3.68004e-02,9.99999e-01,3.68004e-02,9.99999e-01
4.267944804e-01,3.92808e-02,9.99999e-01,3.92808e-02,9.99999e-01
4.289284528e-01,4.18744e-02,9.99999e-01,4.18744e-02,9.99999e-01
4.310730950e-01,4.45829e-02,9.99999e-01,4.45829e-02,9.99999e-01
4.332284605e-01,4.74079e-02,9.99999e-01,4.74079e-02,9.99999e-01
4.353946028e-01,5.03507e-02,9.99999e-01,5.03507e-02,9.99999e-01
4.375715758e-01,5.34127e-02,9.99999e-01,5.34127e-02,9.99999e-01
4.397594337e-01,5.65948e-02,9.99999e-01,5.65948e-02,9.99999e-01
4.419582309e-01,5.98980e-02,9.99999e-01,5.98980e-02,9.99999e-01
4.441680220e-01,6.33230e-02,9.99999e-01,6.33230e-02,9.99999e-01
4.463888621e-01,6.68703e-02,9.99999e-01,6.68703e-02,9.99999e-01
4.486208064e-01,7.05404e-02,9.99999e-01,7.05404e-02,9.99999e-01
4.508639105e-01,7.43335e-02,9.99999e-01,7.43335e-02,9.99999e-01
4.531182300e-01,7.82494e-02,9.99999e-01,7.82494e-02,9.99999e-01
4.553838212e-01,8.22882e-02,9.99999e-01,8.22882e-02,9.99999e-01
4.576607403e-01,8.64495e-02,9.99999e-01,8.64495e-02,9.99999e-01
4.599490440e-01,9.07327e-02,9.99999e-01,9.07327e-02,9.99999e-01
4.622487892e-01,9.51373e-02,9.99999e-01,9.51373e-02,9.99999e-01
4.645600332e-01,9.96623e-02,9.99999e-01,9.96623e-02,9.99999e-01
4.668828333e-01,1.04307e-01,9.99999e-01,1.04307e-01,9.99999e-01
4.692172475e-01,1.09069e-01,9.99999e-01,1.09069e-01,9.99999e-01
4.715633337e-01,1.13949e-01,9.99999e-01,1.13949e-01,9.99999e-01
4.739211504e-01,1.18944e-01,9.99999e-01,1.18944e-01,9.99999e-01
4.762907561e-01,1.24053e-01,9.99999e-01,1.24053e-01,9.99999e-01
4.786722099e-01,1.29274e-01,9.99999e-01,1.29274e-01,9.99999e-01
4.810655710e-01,1.34605e-01,9.99999e-01,1.34605e-01,9.99999e-01
4.834708988e-01,1.40044e-01,9.99999e-01,1.40044e-01,9.99999e-01
4.858882533e-01,1.45589e-01,9.99999e-01,1.45589e-01,9.99999e-01
4.883176946e-01,1.51237e-01,9.99999e-01,1.51237e-01,9.99999e-01
4.907592831e-01,1.56986e-01,9.99999e-01,1.56986e-01,9.99999e-01
4.932130795e-01,1.62834e-01,9.99999e-01,1.62834e-01,9.99999e-01
4.956791449e-01,1.68778e-01,9.99999e-01,1.68778e-01,9.99999e-01
4.981575406e-01,1.74815e-01,9.99999e-01,1.74815e-01,9.99999e-01
5.006483283e-01,1.80942e-01,9.99999e-01,1.80942e-01,9.99999e-01
5.031515699e-01,1.87156e-01,9.99999e-01,1.87156e-01,9.99999e-01
5.056673278e-01,1.93455e-01,9.99999e-01,1.93455e-01,9.99999e-01
5.081956644e-01,1.99835e-01,9.99999e-01,1.99835e-01,9.99999e-01
5.107366428e-01,2.06293e-01,9.99999e-01,2.06293e-01,9.99999e-01
5.132903260e-01,2.12826e-01,9.99999e-01,2.12826e-01,9.99999e-01
5.158567776e-01,2.19431e-01,9.99999e-01,2.19431e-01,9.99999e-01
5.184360615e-01,2.26105e-01,9.99999e-01,2.26105e-01,9.99999e-01
5.210282418e-01,2.32843e-01,9.99999e-01,2.32843e-01,9.99999e-01
5.236333830e-01,2.39644e-01,9.99999e-01,2.39644e-01,9.99999e-01
5.262515499e-01,2.46502e-01,9.99999e-01,2.46502e-01,9.99999e-01
5.288828077e-01,2.53416e-01,9.99999e-01,2.53416e-01,9.99999e-01
5.315272217e-01,2.60381e-01,9.99999e-01,2.60381e-01,9.99999e-01
5.341848578e-01,2.67395e-01,9.99999e-01,2.67395e-01,9.99999e-01
5.368557821e-01,2.74453e-01,9.99999e-01,2.74453e-01,9.99999e-01
5.395400610e-01,2.81553e-01,9.99999e-01,2.81553e-01,9.99999e-01
5.422377613e-01,2.88690e-01,9.99999e-01,2.88690e-01,9.99999e-01
5.449489501e-01,2.95862e-01,9.99999e-01,2.95862e-01,9.99999e-01
5.476736949e-01,3.03066e-01,9.99999e-01,3.03066e-01,9.99999e-01
5.504120634e-01,3.10297e-01,9.99999e-01,3.10297e-01,9.99999e-01
5.531641237e-01,3.17553e-01,9.99999e-01,3.17553e-01,9.99999e-01
5.559299443e-01,3.24831e-01,9.99999e-01,3.24831e-01,9.99999e-01
5.587095940e-01,3.32126e-01,9.99999e-01,3.32126e-01,9.99999e-01
5.615031420e-01,3.39436e-01,9.99999e-01,3.39436e-01,9.99999e-01
5.643106577e-01,3.46759e-01,9.99999e-01,3.46759e-01,9.99999e-01
5.671322110e-01,3.54089e-01,9.99999e-01,3.54089e-01,9.99999e-01
5.699678720e-01,3.61426e-01,9.99999e-01,3.61426e-01,9.99999e-01
5.728177114e-01,3.68765e-01,9.99999e-01,3.68765e-01,9.99999e-01
5.756818000e-01,3.76103e-01,9.99999e-01,3.76103e-01,9.99999e-01
5.785602090e-01,3.83438e-01,9.99999e-01,3.83438e-01,9.99999e-01
5.814530100e-01,3.90768e-01,9.99999e-01,3.90768e-01,9.99999e-01
5.843602750e-01,3.98088e-01,9.99999e-01,3.98088e-01,9.99999e-01
5.872820764e-01,4.05397e-01,9.99999e-01,4.05397e-01,9.99999e-01
5.902184868e-01,4.12692e-01,9.99999e-01,4.12692e-01,9.99999e-01
5.931695792e-01,4.19970e-01,9.99999e-01,4.19970e-01,9.99999e-01
5.961354271e-01,4.27229e-01,9.99999e-01,4.27229e-01,9.99999e-01
5.991161043e-01,4.34466e-01,9.99999e-01,4.34466e-01,9.99999e-01
6.021116848e-01,4.41680e-01,9.99999e-01,4.41680e-01,9.99999e-01
6.051222432e-01,4.48867e-01,9.99999e-01,4.48867e-01,9.99999e-01
6.081478544e-01,4.56025e-01,9.99999e-01,4.56025e-01,9.99999e-01
6.111885937e-01,4.63153e-01,9.99999e-01,4.63153e-01,9.99999e-01
6.142445367e-01,4.70248e-01,9.99999e-01,4.70248e-01,9.99999e-01
6.173157594e-01,4.77309e-01,9.99999e-01,4.77309e-01,9.99999e-01
6.204023382e-01,4.84333e-01,9.99999e-01,4.84333e-01,9.99999e-01
6.235043498e-01,4.91319e-01,9.99999e-01,4.91319e-01,9.99999e-01
6.266218716e-01,4.98264e-01,9.99999e-01,4.98264e-01,9.99999e-01
6.297549810e-01,5.05168e-01,9.99999e-01,5.05168e-01,9.99999e-01
6.329037559e-01,5.12028e-01,9.99999e-01,5.12028e-01,9.99999e-01
6.360682746e-01,5.18843e-01,9.99999e-01,5.18843e-01,9.99999e-01
6.392486160e-01,5.25611e-01,9.99999e-01,5.25611e-01,9.99999e-01
6.424448591e-01,5.32331e-01,9.99999e-01,5.32331e-01,9.99999e-01
6.456570834e-01,5.39002e-01,9.99999e-01,5.39002e-01,9.99999e-01
6.488853688e-01,5.45623e-01,9.99999e-01,5.45623e-01,9.99999e-01
6.521297956e-01,5.52191e-01,9.99999e-01,5.52191e-01,9.99999e-01
6.553904446e-01,5.58706e-01,9.99999e-01,5.58706e-01,9.99999e-01
6.586673968e-01,5.65168e-01,9.99999e-01,5.65168e-01,9.99999e-01
6.619607338e-01,5.71574e-01,9.99999e-01,5.71574e-01,9.99999e-01
6.652705375e-01,5.77924e-01,9.99999e-01,5.77924e-01,9.99999e-01
6.685968902e-01,5.84218e-01,9.99999e-01,5.84218e-01,9.99999e-01
6.719398746e-01,5.90453e-01,9.99999e-01,5.90453e-01,9.99999e-01
6.752995740e-01,5.96630e-01,9.99999e-01,5.96630e-01,9.99999e-01
6.786760719e-01,6.02747e-01,9.99999e-01,6.02747e-01,9.99999e-01
6.820694522e-01,6.08805e-01,9.99999e-01,6.08805e-01,9.99999e-01
6.854797995e-01,6.14802e-01,9.99999e-01,6.14802e-01,9.99999e-01
6.889071985e-01,6.20738e-01,9.99999e-01,6.20738e-01,9.99999e-01
6.923517345e-01,6.26612e-01,9.99999e-01,6.26612e-01,9.99999e-01
6.958134932e-01,6.32424e-01,9.99999e-01,6.32424e-01,9.99999e-01
6.992925606e-01,6.38174e-01,9.99999e-01,6.38174e-01,9.99999e-01
7.027890234e-01,6.43861e-01,9.99999e-01,6.43861e-01,9.99999e-01
7.063029686e-01,6.49485e-01,9.99999e-01,6.49485e-01,9.99999e-01
7.098344834e-01,6.55045e-01,9.99999e-01,6.55045e-01,9.99999e-01
7.133836558e-01,6.60542e-01,9.99999e-01,6.60542e-01,9.99999e-01
7.169505741e-01,6.65975e-01,9.99999e-01,6.65975e-01,9.99999e-01
7.205353270e-01,6.71343e-01,9.99999e-01,6.71343e-01,9.99999e-01
7.241380036e-01,6.76648e-01,9.99999e-01,6.76648e-01,9.99999e-01
7.277586936e-01,6.81889e-01,9.99999e-01,6.81889e-01,9.99999e-01
7.313974871e-01,6.87066e-01,9.99999e-01,6.87066e-01,9.99999e-01
7.350544745e-01,6.92178e-01,9.99999e-01,6.92178e-01,9.99999e-01
7.387297469e-01,6.97227e-01,9.99999e-01,6.97227e-01,9.99999e-01
7.424233956e-01,7.02211e-01,9.99999e-01,7.02211e-01,9.99999e-01
7.461355126e-01,7.07132e-01,9.99999e-01,7.07132e-01,9.99999e-01
7.498661902e-01,7.11989e-01,9.99999e-01,7.11989e-01,9.99999e-01
7.536155211e-01,7.16782e-01,9.99999e-01,7.16782e-01,9.99999e-01
7.573835987e-01,7.21512e-01,9.99999e-01,7.21512e-01,9.99999e-01
7.611705167e-01,7.26179e-01,9.99999e-01,7.26179e-01,9.99999e-01
7.649763693e-01,7.30783e-01,9.99999e-01,7.30783e-01,9.99999e-01
7.688012511e-01,7.35324e-01,9.99999e-01,7.35324e-01,9.99999e-01
7.726452574e-01,7.39803e-01,9.99999e-01,7.39803e-01,9.99999e-01
7.765084837e-01,7.44220e-01,9.99999e-01,7.44220e-01,9.99999e-01
7.803910261e-01,7.37550e-01,9.85270e-01,7.48576e-01,9.99999e-01
7.842929812e-01,7.07390e-01,9.39591e-01,7.52870e-01,9.99999e-01
7.882144461e-01,7.07956e-01,9.35085e-01,7.57103e-01,9.99999e-01
7.921555184e-01,7.32568e-01,9.62290e-01,7.61276e-01,9.99999e-01
7.961162960e-01,7.46050e-01,9.74733e-01,7.65388e-01,9.99999e-01
8.000968774e-01,7.58843e-01,9.86225e-01,7.69441e-01,9.99999e-01
8.040973618e-01,7.67908e-01,9.92854e-01,7.73435e-01,9.99999e-01
8.081178486e-01,7.74813e-01,9.96711e-01,7.77370e-01,9.99999e-01
8.121584379e-01,7.80454e-01,9.98985e-01,7.81246e-01,9.99999e-01
8.162192301e-01,7.84889e-01,9.99775e-01,7.85065e-01,9.99999e-01
8.203003262e-01,7.88824e-01,9.99996e-01,7.88827e-01,9.99999e-01
8.244018279e-01,7.92531e-01,9.99999e-01,7.92531e-01,9.99999e-01
8.285238370e-01,7.96180e-01,9.99999e-01,7.96180e-01,9.99999e-01
8.326664562e-01,7.99772e-01,9.99999e-01,7.99772e-01,9.99999e-01
8.368297885e-01,8.03310e-01,9.99999e-01,8.03310e-01,9.99999e-01
8.410139374e-01,8.06792e-01,9.99999e-01,8.06792e-01,9.99999e-01
8.452190071e-01,8.10221e-01,9.99999e-01,8.10221e-01,9.99999e-01
8.494451021e-01,8.13596e-01,9.99999e-01,8.13596e-01,9.99999e-01
8.536923276e-01,8.16918e-01,9.99999e-01,8.16918e-01,9.99999e-01
8.579607893e-01,8.20187e-01,9.99999e-01,8.20187e-01,9.99999e-01
8.622505932e-01,8.23405e-01,9.99999e-01,8.23405e-01,9.99999e-01
8.665618462e-01,7.93285e-01,9.59728e-01,8.26571e-01,9.99999e-01
8.708946554e-01,7.06039e-01,8.50969e-01,8.29687e-01,9.99999e-01
8.752491287e-01,7.32774e-01,8.79941e-01,8.32752e-01,9.99999e-01
8.796253743e-01,7.79768e-01,9.32995e-01,8.35768e-01,9.99999e-01
8.840235012e-01,8.09280e-01,9.64880e-01,8.38735e-01,9.99999e-01
8.884436187e-01,8.29916e-01,9.86053e-01,8.41654e-01,9.99999e-01
8.928858368e-01,8.39736e-01,9.94329e-01,8.44524e-01,9.99999e-01
8.973502660e-01,8.46182e-01,9.98622e-01,8.47348e-01,9.99999e-01
9.018370173e-01,8.49996e-01,9.99847e-01,8.50125e-01,9.99999e-01
9.063462024e-01,8.49492e-01,9.96055e-01,8.52856e-01,9.99999e-01
9.108779334e-01,8.47892e-01,9.91058e-01,8.55541e-01,9.99999e-01
9.154323231e-01,8.56381e-01,9.97900e-01,8.58182e-01,9.99999e-01
9.200094847e-01,8.33633e-01,9.68463e-01,8.60778e-01,9.99999e-01
9.246095321e-01,8.26119e-01,9.56896e-01,8.63331e-01,9.99999e-01
9.292325798e-01,8.36208e-01,9.65775e-01,8.65841e-01,9.99999e-01
9.338787427e-01,8.39747e-01,9.67107e-01,8.68308e-01,9.99999e-01
9.385481364e-01,8.49649e-01,9.75784e-01,8.70733e-01,9.99999e-01
9.432408771e-01,8.60145e-01,9.85141e-01,8.73117e-01,9.99999e-01
9.479570815e-01,8.68762e-01,9.92348e-01,8.75460e-01,9.99999e-01
9.526968669e-01,8.74521e-01,9.96305e-01,8.77763e-01,9.99999e-01
9.574603512e-01,8.78636e-01,9.98419e-01,8.80027e-01,9.99999e-01
9.622476530e-01,8.81816e-01,9.99506e-01,8.82251e-01,9.99999e-01
9.670588912e-01,8.84307e-01,9.99852e-01,8.84437e-01,9.99999e-01
9.718941857e-01,8.86576e-01,9.99989e-01,8.86585e-01,9.99999e-01
9.767536566e-01,8.88696e-01,9.99999e-01,8.88696e-01,9.99999e-01
9.816374249e-01,8.90769e-01,9.99999e-01,8.90769e-01,9.99999e-01
9.865456120e-01,8.92807e-01,9.99999e-01,8.92807e-01,9.99999e-01
9.914783401e-01,8.94809e-01,9.99999e-01,8.94809e-01,9.99999e-01
9.964357318e-01,8.96775e-01,9.99999e-01,8.96775e-01,9.99999e-01
1.001417910e+00,8.98707e-01,9.99999e-01,8.98707e-01,9.99999e-01
1.006425000e+00,9.00605e-01,9.99999e-01,9.00605e-01,9.99999e-01
1.011457125e+00,9.02469e-01,9.99999e-01,9.02469e-01,9.99999e-01
1.016514411e+00,9.04300e-01,9.99999e-01,9.04300e-01,9.99999e-01
1.021596983e+00,9.06080e-01,9.99978e-01,9.06099e-01,9.99999e-01
1.026704968e+00,9.06473e-01,9.98465e-01,9.07866e-01,9.99999e-01
1.031838492e+00,8.87654e-01,9.75871e-01,9.09601e-01,9.99999e-01
1.036997685e+00,2.99830e-01,3.29012e-01,9.11304e-01,9.99999e-01
1.042182673e+00,3.68860e-01,4.04018e-01,9.12978e-01,9.99999e-01
1.047393587e+00,3.31920e-01,3.62904e-01,9.14621e-01,9.99999e-01
1.052630555e+00,6.62405e-02,7.22964e-02,9.16235e-01,9.99999e-01
1.057893707e+00,1.17844e-01,1.28396e-01,9.17819e-01,9.99999e-01
1.063183176e+00,2.08855e-01,2.27170e-01,9.19375e-01,9.99999e-01
1.068499092e+00,3.44858e-01,3.74478e-01,9.20903e-01,9.99999e-01
1.073841587e+00,4.96901e-01,5.38703e-01,9.22403e-01,9.99999e-01
1.079210795e+00,6.25697e-01,6.77251e-01,9.23876e-01,9.99999e-01
1.084606849e+00,7.48334e-01,8.08727e-01,9.25322e-01,9.99999e-01
1.090029883e+00,8.30316e-01,8.95951e-01,9.26742e-01,9.99999e-01
1.095480033e+00,8.79302e-01,9.47384e-01,9.28135e-01,9.99999e-01
1.100957433e+00,9.05650e-01,9.74336e-01,9.29504e-01,9.99999e-01
1.106462220e+00,9.20903e-01,9.89316e-01,9.30847e-01,9.99999e-01
1.111994531e+00,9.28464e-01,9.96028e-01,9.32165e-01,9.99999e-01
1.117554504e+00,9.32555e-01,9.99030e-01,9.33460e-01,9.99999e-01
1.123142276e+00,9.34671e-01,9.99936e-01,9.34730e-01,9.99999e-01
1.128757988e+00,9.35977e-01,9.99999e-01,9.35977e-01,9.99999e-01
1.134401778e+00,9.37201e-01,9.99999e-01,9.37201e-01,9.99999e-01
1.140073787e+00,9.38402e-01,9.99999e-01,9.38402e-01,9.99999e-01
1.145774156e+00,9.39582e-01,9.99999e-01,9.39582e-01,9.99999e-01
1.151503026e+00,9.40739e-01,9.99999e-01,9.40739e-01,9.99999e-01
1.157260541e+00,9.41875e-01,9.99999e-01,9.41875e-01,9.99999e-01
1.163046844e+00,9.42990e-01,9.99999e-01,9.42990e-01,9.99999e-01
1.168862078e+00,9.44083e-01,9.99999e-01,9.44083e-01,9.99999e-01
1.174706389e+00,9.45157e-01,9.99999e-01,9.45157e-01,9.99999e-01
1.180579921e+00,9.46211e-01,9.99999e-01,9.46211e-01,9.99999e-01
1.186482820e+00,9.47242e-01,9.99996e-01,9.47245e-01,9.99999e-01
1.192415234e+00,9.43018e-01,9.94472e-01,9.48259e-01,9.99999e-01
1.198377311e+00,5.64412e-01,5.94584e-01,9.49255e-01,9.99999e-01
1.204369197e+00,6.96841e-06,7.33337e-06,9.50232e-01,9.99999e-01
1.210391043e+00,7.01000e-18,7.36971e-18,9.51190e-01,9.99999e-01
1.216442998e+00,1.00835e-15,1.05905e-15,9.52131e-01,9.99999e-01
1.222525213e+00,1.75574e-15,1.84223e-15,9.53054e-01,9.99999e-01
1.228637839e+00,7.12761e-12,7.47160e-12,9.53960e-01,9.99999e-01
1.234781029e+00,2.02433e-08,2.12006e-08,9.54848e-01,9.99999e-01
1.240954934e+00,1.01519e-05,1.06222e-05,9.55720e-01,9.99999e-01
1.247159708e+00,1.55985e-03,1.63066e-03,9.56575e-01,9.99999e-01
1.253395507e+00,2.89293e-02,3.02161e-02,9.57414e-01,9.99999e-01
1.259662485e+00,1.32376e-01,1.38145e-01,9.58238e-01,9.99999e-01
1.265960797e+00,3.04881e-01,3.17900e-01,9.59046e-01,9.99999e-01
1.272290601e+00,6.01307e-01,6.26466e-01,9.59838e-01,9.99999e-01
1.278652054e+00,5.37842e-01,5.59892e-01,9.60615e-01,9.99999e-01
1.285045314e+00,4.23807e-02,4.40832e-02,9.61378e-01,9.99999e-01
1.291470541e+00,9.04534e-03,9.40140e-03,9.62126e-01,9.99999e-01
1.297927893e+00,9.52148e-02,9.88873e-02,9.62860e-01,9.99999e-01
1.304417533e+00,4.13431e-01,4.29057e-01,9.63580e-01,9.99999e-01
1.310939621e+00,1.22282e-01,1.26810e-01,9.64287e-01,9.99999e-01
1.317494319e+00,1.48294e-06,1.53676e-06,9.64980e-01,9.99999e-01
1.324081790e+00,6.05818e-05,6.27361e-05,9.65659e-01,9.99999e-01
1.330702199e+00,6.20002e-03,6.41607e-03,9.66326e-01,9.99999e-01
1.337355710e+00,4.19645e-03,4.33974e-03,9.66980e-01,9.99999e-01
1.344042489e+00,1.61444e-03,1.66846e-03,9.67622e-01,9.99999e-01
1.350762701e+00,5.02111e-03,5.18575e-03,9.68251e-01,9.99999e-01
1.357516515e+00,2.98385e-02,3.07972e-02,9.68868e-01,9.99999e-01
1.364304097e+00,1.13211e-01,1.16776e-01,9.69474e-01,9.99999e-01
1.371125618e+00,3.10784e-01,3.20373e-01,9.70067e-01,9.99999e-01
1.377981246e+00,3.92903e-01,4.04783e-01,9.70650e-01,9.99999e-01
1.384871152e+00,5.73671e-01,5.90669e-01,9.71221e-01,9.99999e-01
1.391795508e+00,5.97744e-01,6.15101e-01,9.71782e-01,9.99999e-01
1.398754485e+00,7.21434e-01,7.41962e-01,9.72331e-01,9.99999e-01
1.405748258e+00,7.80439e-01,8.02202e-01,9.72870e-01,9.99999e-01
1.412776999e+00,8.47215e-01,8.70366e-01,9.73399e-01,9.99999e-01
1.419840884e+00,7.91477e-01,8.12673e-01,9.73917e-01,9.99999e-01
1.426940089e+00,1.12833e-01,1.15794e-01,9.74426e-01,9.99999e-01
1.434074789e+00,7.74736e-247,7.94661e-247,9.74925e-01,9.99999e-01
1.441245163e+00,0.00000e+00,0.00000e+00,9.75414e-01,9.99999e-01
1.448451389e+00,3.26977e-299,3.35054e-299,9.75893e-01,9.99999e-01
1.455693646e+00,3.61563e-134,3.70315e-134,9.76364e-01,9.99999e-01
1.462972114e+00,1.06886e-65,1.09422e-65,9.76825e-01,9.99999e-01
1.470286975e+00,2.37463e-28,2.42984e-28,9.77278e-01,9.99999e-01
1.477638409e+00,1.80195e-18,1.84301e-18,9.77722e-01,9.99999e-01
1.485026601e+00,6.54877e-11,6.69500e-11,9.78157e-01,9.99999e-01
1.492451734e+00,2.73567e-09,2.79553e-09,9.78584e-01,9.99999e-01
1.499913993e+00,5.60506e-05,5.72527e-05,9.79002e-01,9.99999e-01
1.507413563e+00,6.34716e-04,6.48057e-04,9.79413e-01,9.99999e-01
1.514950631e+00,2.93731e-05,2.99782e-05,9.79815e-01,9.99999e-01
1.522525384e+00,1.09100e-13,1.11303e-13,9.80210e-01,9.99999e-01
1.530138011e+00,5.76014e-30,5.87411e-30,9.80597e-01,9.99999e-01
1.537788701e+00,1.28074e-22,1.30558e-22,9.80976e-01,9.99999e-01
1.545477645e+00,2.91995e-06,2.97545e-06,9.81349e-01,9.99999e-01
1.553205033e+00,5.08497e-04,5.17968e-04,9.81714e-01,9.99999e-01
1.560971058e+00,1.28177e-04,1.30516e-04,9.82072e-01,9.99999e-01
1.568775913e+00,1.57727e-73,1.60549e-73,9.82423e-01,9.99999e-01
1.576619793e+00,2.16404e-170,2.20198e-170,9.82767e-01,9.99999e-01
1.584502892e+00,1.41521e-93,1.43954e-93,9.83104e-01,9.99999e-01
1.592425406e+00,1.62297e-65,1.65030e-65,9.83435e-01,9.99999e-01
1.600387533e+00,6.71604e-105,6.82690e-105,9.83760e-01,9.99999e-01
1.608389471e+00,2.59760e-175,2.63963e-175,9.84078e-01,9.99999e-01
1.616431418e+00,2.07701e-176,2.10995e-176,9.84390e-01,9.99999e-01
1.624513575e+00,4.95167e-83,5.02862e-83,9.84696e-01,9.99999e-01
1.632636143e+00,4.69355e-62,4.76504e-62,9.84996e-01,9.99999e-01
1.640799324e+00,2.08612e-26,2.11727e-26,9.85290e-01,9.99999e-01
1.649003321e+00,2.66893e-26,2.70798e-26,9.85578e-01,9.99999e-01
1.657248337e+00,1.25778e-20,1.27582e-20,9.85861e-01,9.99999e-01
1.665534579e+00,8.85299e-21,8.97742e-21,9.86139e-01,9.99999e-01
1.673862252e+00,9.23749e-14,9.36474e-14,9.86410e-01,9.99999e-01
1.682231563e+00,5.56092e-10,5.63600e-10,9.86677e-01,9.99999e-01
1.690642721e+00,3.06804e-06,3.10864e-06,9.86938e-01,9.99999e-01
1.699095934e+00,4.24375e-04,4.29880e-04,9.87195e-01,9.99999e-01
1.707591414e+00,1.57947e-02,1.59955e-02,9.87446e-01,9.99999e-01
1.716129371e+00,1.05606e-01,1.06922e-01,9.87693e-01,9.99999e-01
1.724710018e+00,3.02478e-01,3.06172e-01,9.87934e-01,9.99999e-01
1.733333568e+00,4.63223e-01,4.68767e-01,9.88171e-01,9.99999e-01
1.742000236e+00,6.12263e-01,6.19446e-01,9.88403e-01,9.99999e-01
1.750710237e+00,5.39105e-02,5.45304e-02,9.88631e-01,9.99999e-01
1.759463788e+00,4.39660e-13,4.44615e-13,9.88854e-01,9.99999e-01
1.768261107e+00,5.18924e-14,5.24656e-14,9.89073e-01,9.99999e-01
1.777102413e+00,6.25756e-13,6.32531e-13,9.89288e-01,9.99999e-01
1.785987925e+00,9.95019e-13,1.00558e-12,9.89498e-01,9.99999e-01
1.794917864e+00,7.74529e-12,7.82585e-12,9.89705e-01,9.99999e-01
1.803892454e+00,5.62550e-12,5.68285e-12,9.89907e-01,9.99999e-01
1.812911916e+00,2.97790e-11,3.00766e-11,9.90105e-01,9.99999e-01
1.821976476e+00,1.71425e-11,1.73104e-11,9.90300e-01,9.99999e-01
1.831086358e+00,1.65285e-09,1.66872e-09,9.90491e-01,9.99999e-01
1.840241790e+00,5.10381e-08,5.15184e-08,9.90677e-01,9.99999e-01
1.849442999e+00,1.02090e-05,1.03031e-05,9.90861e-01,9.99999e-01
1.858690214e+00,4.11181e-05,4.14898e-05,9.91040e-01,9.99999e-01
1.867983665e+00,6.78532e-06,6.84544e-06,9.91217e-01,9.99999e-01
1.877323583e+00,6.79554e-24,6.85455e-24,9.91389e-01,9.99999e-01
