#,Wave/freq,Total,CO2,Rayleigh,CIA
4.000000000e-01,7.52829e-04,9.99999e-01,7.52829e-04,9.99999e-01
4.020000000e-01,8.67863e-04,9.99999e-01,8.67863e-04,9.99999e-01
4.040100000e-01,9.97526e-04,9.99999e-01,9.97526e-04,9.99999e-01
4.060300500e-01,1.14341e-03,9.99999e-01,1.14341e-03,9.99999e-01
4.080602003e-01,1.30711e-03,9.99999e-01,1.30711e-03,9.99999e-01
4.101005013e-01,1.49029e-03,9.99999e-01,1.49029e-03,9.99999e-01
4.121510038e-01,1.69475e-03,9.99999e-01,1.69475e-03,9.99999e-01
4.142117588e-01,1.92237e-03,9.99999e-01,1.92237e-03,9.99999e-01
4.162828176e-01,2.17515e-03,9.99999e-01,2.17515e-03,9.99999e-01
4.183642317e-01,2.45516e-03,9.99999e-01,2.45516e-03,9.99999e-01
4.204560528e-01,2.76460e-03,9.99999e-01,2.76460e-03,9.99999e-01
4.225583331e-01,3.10575e-03,9.99999e-01,3.10575e-03,9.99999e-01
4.246711247e-01,3.48099e-03,9.99999e-01,3.48099e-03,9.99999e-01
4.267944804e-01,3.89278e-03,9.99999e-01,3.89278e-03,9.99999e-01
4.289284528e-01,4.34368e-03,9.99999e-01,4.34368e-03,9.99999e-01
4.310730950e-01,4.83633e-03,9.99999e-01,4.83633e-03,9.99999e-01
4.332284605e-01,5.37344e-03,9.99999e-01,5.37344e-03,9.99999e-01
4.353946028e-01,5.95780e-03,9.99999e-01,5.95780e-03,9.99999e-01
4.375715758e-01,6.59224e-03,9.99999e-01,6.59224e-03,9.99999e-01
4.397594337e-01,7.27969e-03,9.99999e-01,7.27969e-03,9.99999e-01
4.419582309e-01,8.02308e-03,9.99999e-01,8.02308e-03,9.99999e-01
4.441680220e-01,8.82543e-03,9.99999e-01,8.82543e-03,9.99999e-01
4.463888621e-01,9.68975e-03,9.99999e-01,9.68975e-03,9.99999e-01
4.486208064e-01,1.06191e-02,9.99999e-01,1.06191e-02,9.99999e-01
4.508639105e-01,1.16166e-02,9.99999e-01,1.16166e-02,9.99999e-01
4.531182300e-01,1.26852e-02,9.99999e-01,1.26852e-02,9.99999e-01
4.553838212e-01,1.38281e-02,9.99999e-01,1.38281e-02,9.99999e-01
4.576607403e-01,1.50483e-02,9.99999e-01,1.50483e-02,9.99999e-01
4.599490440e-01,1.63488e-02,9.99999e-01,1.63488e-02,9.99999e-01
4.622487892e-01,1.77326e-02,9.99999e-01,1.77326e-02,9.99999e-01
4.645600332e-01,1.92028e-02,9.99999e-01,1.92028e-02,9.99999e-01
4.668828333e-01,2.07621e-02,9.99999e-01,2.07621e-02,9.99999e-01
4.692172475e-01,2.24135e-02,9.99999e-01,2.24135e-02,9.99999e-01
4.715633337e-01,2.41597e-02,9.99999e-01,2.41597e-02,9.99999e-01
4.739211504e-01,2.60034e-02,9.99999e-01,2.60034e-02,9.99999e-01
4.762907561e-01,2.79471e-02,9.99999e-01,2.79471e-02,9.99999e-01
4.786722099e-01,2.99934e-02,9.99999e-01,2.99934e-02,9.99999e-01
4.810655710e-01,3.21446e-02,9.99999e-01,3.21446e-02,9.99999e-01
4.834708988e-01,3.44030e-02,9.99999e-01,3.44030e-02,9.99999e-01
4.858882533e-01,3.67707e-02,9.99999e-01,3.67707e-02,9.99999e-01
4.883176946e-01,3.92498e-02,9.99999e-01,3.92498e-02,9.99999e-01
4.907592831e-01,4.18420e-02,9.99999e-01,4.18420e-02,9.99999e-01
4.932130795e-01,4.45491e-02,9.99999e-01,4.45491e-02,9.99999e-01
4.956791449e-01,4.73726e-02,9.99999e-01,4.73726e-02,9.99999e-01
4.981575406e-01,5.03140e-02,9.99999e-01,5.03140e-02,9.99999e-01
5.006483283e-01,5.33745e-02,9.99999e-01,5.33745e-02,9.99999e-01
5.031515699e-01,5.65552e-02,9.99999e-01,5.65552e-02,9.99999e-01
5.056673278e-01,5.98569e-02,9.99999e-01,5.98569e-02,9.99999e-01
5.081956644e-01,6.32804e-02,9.99999e-01,6.32804e-02,9.99999e-01
5.107366428e-01,6.68262e-02,9.99999e-01,6.68262e-02,9.99999e-01
5.132903260e-01,7.04948e-02,9.99999e-01,7.04948e-02,9.99999e-01
5.158567776e-01,7.42863e-02,9.99999e-01,7.42863e-02,9.99999e-01
5.184360615e-01,7.82008e-02,9.99999e-01,7.82008e-02,9.99999e-01
5.210282418e-01,8.22381e-02,9.99999e-01,8.22381e-02,9.99999e-01
5.236333830e-01,8.63979e-02,9.99999e-01,8.63979e-02,9.99999e-01
5.262515499e-01,9.06796e-02,9.99999e-01,9.06796e-02,9.99999e-01
5.288828077e-01,9.50827e-02,9.99999e-01,9.50827e-02,9.99999e-01
5.315272217e-01,9.96062e-02,9.99999e-01,9.96062e-02,9.99999e-01
5.341848578e-01,1.04249e-01,9.99999e-01,1.04249e-01,9.99999e-01
5.368557821e-01,1.09011e-01,9.99999e-01,1.09011e-01,9.99999e-01
5.395400610e-01,1.13889e-01,9.99999e-01,1.13889e-01,9.99999e-01
5.422377613e-01,1.18882e-01,9.99999e-01,1.18882e-01,9.99999e-01
5.449489501e-01,1.23990e-01,9.99999e-01,1.23990e-01,9.99999e-01
5.476736949e-01,1.29209e-01,9.99999e-01,1.29209e-01,9.99999e-01
5.504120634e-01,1.34539e-01,9.99999e-01,1.34539e-01,9.99999e-01
5.531641237e-01,1.39977e-01,9.99999e-01,1.39977e-01,9.99999e-01
5.559299443e-01,1.45520e-01,9.99999e-01,1.45520e-01,9.99999e-01
5.587095940e-01,1.51167e-01,9.99999e-01,1.51167e-01,9.99999e-01
5.615031420e-01,1.56915e-01,9.99999e-01,1.56915e-01,9.99999e-01
5.643106577e-01,1.62762e-01,9.99999e-01,1.62762e-01,9.99999e-01
5.671322110e-01,1.68704e-01,9.99999e-01,1.68704e-01,9.99999e-01
5.699678720e-01,1.74740e-01,9.99999e-01,1.74740e-01,9.99999e-01
5.728177114e-01,1.80866e-01,9.99999e-01,1.80866e-01,9.99999e-01
5.756818000e-01,1.87080e-01,9.99999e-01,1.87080e-01,9.99999e-01
5.785602090e-01,1.93377e-01,9.99999e-01,1.93377e-01,9.99999e-01
5.814530100e-01,1.99757e-01,9.99999e-01,1.99757e-01,9.99999e-01
5.843602750e-01,2.06214e-01,9.99999e-01,2.06214e-01,9.99999e-01
5.872820764e-01,2.12746e-01,9.99999e-01,2.12746e-01,9.99999e-01
5.902184868e-01,2.19350e-01,9.99999e-01,2.19350e-01,9.99999e-01
5.931695792e-01,2.26023e-01,9.99999e-01,2.26023e-01,9.99999e-01
5.961354271e-01,2.32761e-01,9.99999e-01,2.32761e-01,9.99999e-01
5.991161043e-01,2.39560e-01,9.99999e-01,2.39560e-01,9.99999e-01
6.021116848e-01,2.46418e-01,9.99999e-01,2.46418e-01,9.99999e-01
6.051222432e-01,2.53331e-01,9.99999e-01,2.53331e-01,9.99999e-01
6.081478544e-01,2.60296e-01,9.99999e-01,2.60296e-01,9.99999e-01
6.111885937e-01,2.67309e-01,9.99999e-01,2.67309e-01,9.99999e-01
6.142445367e-01,2.74366e-01,9.99999e-01,2.74366e-01,9.99999e-01
6.173157594e-01,2.81466e-01,9.99999e-01,2.81466e-01,9.99999e-01
6.204023382e-01,2.88603e-01,9.99999e-01,2.88603e-01,9.99999e-01
6.235043498e-01,2.95775e-01,9.99999e-01,2.95775e-01,9.99999e-01
6.266218716e-01,3.02978e-01,9.99999e-01,3.02978e-01,9.99999e-01
6.297549810e-01,3.10209e-01,9.99999e-01,3.10209e-01,9.99999e-01
6.329037559e-01,3.17465e-01,9.99999e-01,3.17465e-01,9.99999e-01
6.360682746e-01,3.24742e-01,9.99999e-01,3.24742e-01,9.99999e-01
6.392486160e-01,3.32037e-01,9.99999e-01,3.32037e-01,9.99999e-01
6.424448591e-01,3.39347e-01,9.99999e-01,3.39347e-01,9.99999e-01
6.456570834e-01,3.46669e-01,9.99999e-01,3.46669e-01,9.99999e-01
6.488853688e-01,3.54000e-01,9.99999e-01,3.54000e-01,9.99999e-01
6.521297956e-01,3.61336e-01,9.99999e-01,3.61336e-01,9.99999e-01
6.553904446e-01,3.68675e-01,9.99999e-01,3.68675e-01,9.99999e-01
6.586673968e-01,3.76013e-01,9.99999e-01,3.76013e-01,9.99999e-01
6.619607338e-01,3.83349e-01,9.99999e-01,3.83349e-01,9.99999e-01
6.652705375e-01,3.90678e-01,9.99999e-01,3.90678e-01,9.99999e-01
6.685968902e-01,3.97999e-01,9.99999e-01,3.97999e-01,9.99999e-01
6.719398746e-01,4.05308e-01,9.99999e-01,4.05308e-01,9.99999e-01
6.752995740e-01,4.12603e-01,9.99999e-01,4.12603e-01,9.99999e-01
6.786760719e-01,4.19881e-01,9.99999e-01,4.19881e-01,9.99999e-01
6.820694522e-01,4.27140e-01,9.99999e-01,4.27140e-01,9.99999e-01
6.854797995e-01,4.34378e-01,9.99999e-01,4.34378e-01,9.99999e-01
6.889071985e-01,4.41592e-01,9.99999e-01,4.41592e-01,9.99999e-01
6.923517345e-01,4.48779e-01,9.99999e-01,4.48779e-01,9.99999e-01
6.958134932e-01,4.55938e-01,9.99999e-01,4.55938e-01,9.99999e-01
6.992925606e-01,4.63066e-01,9.99999e-01,4.63066e-01,9.99999e-01
7.027890234e-01,4.70162e-01,9.99999e-01,4.70162e-01,9.99999e-01
7.063029686e-01,4.77223e-01,9.99999e-01,4.77223e-01,9.99999e-01
7.098344834e-01,4.84248e-01,9.99999e-01,4.84248e-01,9.99999e-01
7.133836558e-01,4.91234e-01,9.99999e-01,4.91234e-01,9.99999e-01
7.169505741e-01,4.98180e-01,9.99999e-01,4.98180e-01,9.99999e-01
7.205353270e-01,5.05084e-01,9.99999e-01,5.05084e-01,9.99999e-01
7.241380036e-01,5.11944e-01,9.99999e-01,5.11944e-01,9.99999e-01
7.277586936e-01,5.18760e-01,9.99999e-01,5.18760e-01,9.99999e-01
7.313974871e-01,5.25529e-01,9.99999e-01,5.25529e-01,9.99999e-01
7.350544745e-01,5.32249e-01,9.99999e-01,5.32249e-01,9.99999e-01
7.387297469e-01,5.38921e-01,9.99999e-01,5.38921e-01,9.99999e-01
7.424233956e-01,5.45542e-01,9.99999e-01,5.45542e-01,9.99999e-01
7.461355126e-01,5.52111e-01,9.99999e-01,5.52111e-01,9.99999e-01
7.498661902e-01,5.58627e-01,9.99999e-01,5.58627e-01,9.99999e-01
7.536155211e-01,5.65089e-01,9.99999e-01,5.65089e-01,9.99999e-01
7.573835987e-01,5.71496e-01,9.99999e-01,5.71496e-01,9.99999e-01
7.611705167e-01,5.77847e-01,9.99999e-01,5.77847e-01,9.99999e-01
7.649763693e-01,5.84141e-01,9.99999e-01,5.84141e-01,9.99999e-01
7.688012511e-01,5.90377e-01,9.99999e-01,5.90377e-01,9.99999e-01
7.726452574e-01,5.96555e-01,9.99999e-01,5.96555e-01,9.99999e-01
7.765084837e-01,6.02673e-01,9.99999e-01,6.02673e-01,9.99999e-01
7.803910261e-01,5.93387e-01,9.74792e-01,6.08731e-01,9.99999e-01
7.842929812e-01,5.53273e-01,9.00026e-01,6.14729e-01,9.99999e-01
7.882144461e-01,5.53884e-01,8.92403e-01,6.20666e-01,9.99999e-01
7.921555184e-01,5.86632e-01,9.36303e-01,6.26541e-01,9.99999e-01
7.961162960e-01,6.05358e-01,9.57308e-01,6.32354e-01,9.99999e-01
8.000968774e-01,6.23165e-01,9.76587e-01,6.38104e-01,9.99999e-01
8.040973618e-01,6.35975e-01,9.87857e-01,6.43792e-01,9.99999e-01
8.081178486e-01,6.45771e-01,9.94386e-01,6.49416e-01,9.99999e-01
8.121584379e-01,6.53852e-01,9.98281e-01,6.54977e-01,9.99999e-01
8.162192301e-01,6.60224e-01,9.99619e-01,6.60475e-01,9.99999e-01
8.203003262e-01,6.65905e-01,9.99994e-01,6.65909e-01,9.99999e-01
8.244018279e-01,6.71278e-01,9.99999e-01,6.71278e-01,9.99999e-01
8.285238370e-01,6.76584e-01,9.99999e-01,6.76584e-01,9.99999e-01
8.326664562e-01,6.81825e-01,9.99999e-01,6.81825e-01,9.99999e-01
8.368297885e-01,6.87003e-01,9.99999e-01,6.87003e-01,9.99999e-01
8.410139374e-01,6.92116e-01,9.99999e-01,6.92116e-01,9.99999e-01
8.452190071e-01,6.97165e-01,9.99999e-01,6.97165e-01,9.99999e-01
8.494451021e-01,7.02151e-01,9.99999e-01,7.02151e-01,9.99999e-01
8.536923276e-01,7.07072e-01,9.99999e-01,7.07072e-01,9.99999e-01
8.579607893e-01,7.11930e-01,9.99999e-01,7.11930e-01,9.99999e-01
8.622505932e-01,7.16724e-01,9.99999e-01,7.16724e-01,9.99999e-01
8.665618462e-01,6.77299e-01,9.38795e-01,7.21455e-01,9.99999e-01
8.708946554e-01,5.53603e-01,7.62409e-01,7.26122e-01,9.99999e-01
8.752491287e-01,5.88714e-01,8.05655e-01,7.30727e-01,9.99999e-01
8.796253743e-01,6.53527e-01,8.88826e-01,7.35269e-01,9.99999e-01
8.840235012e-01,6.96022e-01,9.40888e-01,7.39749e-01,9.99999e-01
8.884436187e-01,7.26606e-01,9.76401e-01,7.44167e-01,9.99999e-01
8.928858368e-01,7.41307e-01,9.90359e-01,7.48523e-01,9.99999e-01
8.973502660e-01,7.51060e-01,9.97664e-01,7.52818e-01,9.99999e-01
9.018370173e-01,7.56857e-01,9.99742e-01,7.57052e-01,9.99999e-01
9.063462024e-01,7.56025e-01,9.93168e-01,7.61225e-01,9.99999e-01
9.108779334e-01,7.53695e-01,9.84786e-01,7.65338e-01,9.99999e-01
9.154323231e-01,7.66660e-01,9.96448e-01,7.69392e-01,9.99999e-01
9.200094847e-01,7.32474e-01,9.47099e-01,7.73386e-01,9.99999e-01
9.246095321e-01,7.21010e-01,9.27556e-01,7.77322e-01,9.99999e-01
9.292325798e-01,7.35887e-01,9.41995e-01,7.81199e-01,9.99999e-01
9.338787427e-01,7.41492e-01,9.44553e-01,7.85019e-01,9.99999e-01
9.385481364e-01,7.56427e-01,9.58981e-01,7.88781e-01,9.99999e-01
9.432408771e-01,7.72494e-01,9.74772e-01,7.92486e-01,9.99999e-01
9.479570815e-01,7.85750e-01,9.86954e-01,7.96135e-01,9.99999e-01
9.526968669e-01,7.94693e-01,9.93702e-01,7.99729e-01,9.99999e-01
9.574603512e-01,8.01103e-01,9.97305e-01,8.03267e-01,9.99999e-01
9.622476530e-01,8.06073e-01,9.99159e-01,8.06750e-01,9.99999e-01
9.670588912e-01,8.09976e-01,9.99748e-01,8.10179e-01,9.99999e-01
9.718941857e-01,8.13541e-01,9.99982e-01,8.13555e-01,9.99999e-01
9.767536566e-01,8.16878e-01,9.99999e-01,8.16878e-01,9.99999e-01
9.816374249e-01,8.20148e-01,9.99999e-01,8.20148e-01,9.99999e-01
9.865456120e-01,8.23366e-01,9.99999e-01,8.23366e-01,9.99999e-01
9.914783401e-01,8.26533e-01,9.99999e-01,8.26533e-01,9.99999e-01
9.964357318e-01,8.29649e-01,9.99999e-01,8.29649e-01,9.99999e-01
1.001417910e+00,8.32715e-01,9.99999e-01,8.32715e-01,9.99999e-01
1.006425000e+00,8.35732e-01,9.99999e-01,8.35732e-01,9.99999e-01
1.011457125e+00,8.38699e-01,9.99999e-01,8.38699e-01,9.99999e-01
1.016514411e+00,8.41618e-01,9.99999e-01,8.41618e-01,9.99999e-01
1.021596983e+00,8.44455e-01,9.99958e-01,8.44490e-01,9.99999e-01
1.026704968e+00,8.45049e-01,9.97326e-01,8.47314e-01,9.99999e-01
1.031838492e+00,8.18376e-01,9.62691e-01,8.50091e-01,9.99999e-01
1.036997685e+00,1.79177e-01,2.10098e-01,8.52823e-01,9.99999e-01
1.042182673e+00,1.89463e-01,2.21462e-01,8.55509e-01,9.99999e-01
1.047393587e+00,1.90802e-01,2.22341e-01,8.58150e-01,9.99999e-01
1.052630555e+00,1.40851e-02,1.63638e-02,8.60747e-01,9.99999e-01
1.057893707e+00,3.08873e-02,3.57781e-02,8.63300e-01,9.99999e-01
1.063183176e+00,7.57484e-02,8.74884e-02,8.65810e-01,9.99999e-01
1.068499092e+00,1.64766e-01,1.89762e-01,8.68278e-01,9.99999e-01
1.073841587e+00,3.06210e-01,3.51681e-01,8.70704e-01,9.99999e-01
1.079210795e+00,4.50826e-01,5.16357e-01,8.73088e-01,9.99999e-01
1.084606849e+00,6.09903e-01,6.96687e-01,8.75432e-01,9.99999e-01
1.090029883e+00,7.27636e-01,8.28992e-01,8.77736e-01,9.99999e-01
1.095480033e+00,8.02487e-01,9.11917e-01,8.79999e-01,9.99999e-01
1.100957433e+00,8.43904e-01,9.56564e-01,8.82224e-01,9.99999e-01
1.106462220e+00,8.68349e-01,9.81839e-01,8.84411e-01,9.99999e-01
1.111994531e+00,8.80558e-01,9.93230e-01,8.86559e-01,9.99999e-01
1.117554504e+00,8.87206e-01,9.98352e-01,8.88670e-01,9.99999e-01
1.123142276e+00,8.90649e-01,9.99892e-01,8.90744e-01,9.99999e-01
1.128757988e+00,8.92782e-01,9.99999e-01,8.92782e-01,9.99999e-01
1.134401778e+00,8.94784e-01,9.99999e-01,8.94784e-01,9.99999e-01
1.140073787e+00,8.96751e-01,9.99999e-01,8.96751e-01,9.99999e-01
1.145774156e+00,8.98684e-01,9.99999e-01,8.98684e-01,9.99999e-01
1.151503026e+00,9.00582e-01,9.99999e-01,9.00582e-01,9.99999e-01
1.157260541e+00,9.02447e-01,9.99999e-01,9.02447e-01,9.99999e-01
1.163046844e+00,9.04278e-01,9.99999e-01,9.04278e-01,9.99999e-01
1.168862078e+00,9.06077e-01,9.99999e-01,9.06077e-01,9.99999e-01
1.174706389e+00,9.07844e-01,9.99999e-01,9.07844e-01,9.99999e-01
1.180579921e+00,9.09579e-01,9.99999e-01,9.09579e-01,9.99999e-01
1.186482820e+00,9.11278e-01,9.99993e-01,9.11284e-01,9.99999e-01
1.192415234e+00,9.04187e-01,9.90392e-01,9.12958e-01,9.99999e-01
1.198377311e+00,5.21792e-01,5.70513e-01,9.14601e-01,9.99999e-01
1.204369197e+00,1.73577e-08,1.89450e-08,9.16215e-01,9.99999e-01
1.210391043e+00,4.78022e-29,5.20834e-29,9.17800e-01,9.99999e-01
1.216442998e+00,2.27015e-25,2.46928e-25,9.19357e-01,9.99999e-01
1.222525213e+00,5.17620e-25,5.62089e-25,9.20885e-01,9.99999e-01
1.228637839e+00,2.46040e-19,2.66743e-19,9.22385e-01,9.99999e-01
1.234781029e+00,6.55804e-13,7.09852e-13,9.23858e-01,9.99999e-01
1.240954934e+00,9.82449e-09,1.06176e-08,9.25305e-01,9.99999e-01
1.247159708e+00,3.74679e-05,4.04304e-05,9.26725e-01,9.99999e-01
1.253395507e+00,2.92731e-03,3.15402e-03,9.28119e-01,9.99999e-01
1.259662485e+00,3.46804e-02,3.73113e-02,9.29487e-01,9.99999e-01
1.265960797e+00,1.38802e-01,1.49116e-01,9.30831e-01,9.99999e-01
1.272290601e+00,4.22304e-01,4.53043e-01,9.32149e-01,9.99999e-01
1.278652054e+00,3.62734e-01,3.88598e-01,9.33444e-01,9.99999e-01
1.285045314e+00,1.26131e-02,1.34940e-02,9.34715e-01,9.99999e-01
1.291470541e+00,4.15467e-04,4.43893e-04,9.35962e-01,9.99999e-01
1.297927893e+00,2.73299e-02,2.91616e-02,9.37186e-01,9.99999e-01
1.304417533e+00,2.22279e-01,2.36873e-01,9.38388e-01,9.99999e-01
1.310939621e+00,3.83957e-02,4.08652e-02,9.39567e-01,9.99999e-01
1.317494319e+00,1.69968e-10,1.80678e-10,9.40725e-01,9.99999e-01
1.324081790e+00,4.67179e-06,4.96016e-06,9.41861e-01,9.99999e-01
1.330702199e+00,2.05473e-04,2.17898e-04,9.42976e-01,9.99999e-01
1.337355710e+00,1.86598e-04,1.97653e-04,9.44070e-01,9.99999e-01
1.344042489e+00,5.38064e-05,5.69293e-05,9.45144e-01,9.99999e-01
1.350762701e+00,1.44717e-04,1.52945e-04,9.46198e-01,9.99999e-01
1.357516515e+00,3.14901e-03,3.32443e-03,9.47232e-01,9.99999e-01
1.364304097e+00,2.51169e-02,2.64877e-02,9.48247e-01,9.99999e-01
1.371125618e+00,1.41440e-01,1.49003e-01,9.49243e-01,9.99999e-01
1.377981246e+00,2.03051e-01,2.13688e-01,9.50220e-01,9.99999e-01
1.384871152e+00,3.87736e-01,4.07637e-01,9.51179e-01,9.99999e-01
1.391795508e+00,4.15746e-01,4.36653e-01,9.52120e-01,9.99999e-01
1.398754485e+00,5.72104e-01,6.00291e-01,9.53043e-01,9.99999e-01
1.405748258e+00,6.55082e-01,6.86705e-01,9.53949e-01,9.99999e-01
1.412776999e+00,7.53339e-01,7.88970e-01,9.54837e-01,9.99999e-01
1.419840884e+00,6.82912e-01,7.14560e-01,9.55709e-01,9.99999e-01
1.426940089e+00,7.74629e-02,8.09802e-02,9.56565e-01,9.99999e-01
1.434074789e+00,0.00000e+00,0.00000e+00,9.57404e-01,9.99999e-01
1.441245163e+00,0.00000e+00,0.00000e+00,9.58228e-01,9.99999e-01
1.448451389e+00,0.00000e+00,0.00000e+00,9.59036e-01,9.99999e-01
1.455693646e+00,2.10358e-228,2.19162e-228,9.59828e-01,9.99999e-01
1.462972114e+00,5.06550e-111,5.27323e-111,9.60606e-01,9.99999e-01
1.470286975e+00,5.24736e-47,5.45821e-47,9.61369e-01,9.99999e-01
1.477638409e+00,3.97402e-30,4.13049e-30,9.62117e-01,9.99999e-01
1.485026601e+00,2.34106e-17,2.43138e-17,9.62852e-01,9.99999e-01
1.492451734e+00,8.45858e-15,8.77835e-15,9.63572e-01,9.99999e-01
1.499913993e+00,2.84345e-07,2.94878e-07,9.64278e-01,9.99999e-01
1.507413563e+00,3.77437e-06,3.91138e-06,9.64971e-01,9.99999e-01
1.514950631e+00,1.54517e-07,1.60013e-07,9.65651e-01,9.99999e-01
1.522525384e+00,7.05019e-22,7.29593e-22,9.66318e-01,9.99999e-01
1.530138011e+00,5.32041e-50,5.50212e-50,9.66972e-01,9.99999e-01
1.537788701e+00,2.14946e-37,2.22140e-37,9.67614e-01,9.99999e-01
1.545477645e+00,3.75962e-09,3.88292e-09,9.68243e-01,9.99999e-01
1.553205033e+00,3.04776e-06,3.14571e-06,9.68861e-01,9.99999e-01
1.560971058e+00,7.69398e-07,7.93630e-07,9.69466e-01,9.99999e-01
1.568775913e+00,1.90590e-124,1.96472e-124,9.70060e-01,9.99999e-01
1.576619793e+00,1.66961e-290,1.72011e-290,9.70643e-01,9.99999e-01
1.584502892e+00,8.17026e-159,8.41241e-159,9.71214e-01,9.99999e-01
1.592425406e+00,5.42913e-111,5.58681e-111,9.71775e-01,9.99999e-01
1.600387533e+00,3.15817e-178,3.24806e-178,9.72324e-01,9.99999e-01
1.608389471e+00,6.12508e-299,6.29592e-299,9.72864e-01,9.99999e-01
1.616431418e+00,8.06441e-301,8.28484e-301,9.73392e-01,9.99999e-01
1.624513575e+00,9.73574e-141,9.99653e-141,9.73911e-01,9.99999e-01
1.632636143e+00,7.52965e-105,7.72731e-105,9.74420e-01,9.99999e-01
1.640799324e+00,1.15150e-43,1.18112e-43,9.74919e-01,9.99999e-01
1.649003321e+00,1.21919e-43,1.24993e-43,9.75408e-01,9.99999e-01
1.657248337e+00,5.05225e-34,5.17707e-34,9.75888e-01,9.99999e-01
1.665534579e+00,2.94410e-34,3.01539e-34,9.76358e-01,9.99999e-01
1.673862252e+00,2.70116e-22,2.76526e-22,9.76820e-01,9.99999e-01
1.682231563e+00,6.91503e-16,7.07584e-16,9.77272e-01,9.99999e-01
1.690642721e+00,1.72515e-09,1.76447e-09,9.77716e-01,9.99999e-01
1.699095934e+00,3.39323e-06,3.46902e-06,9.78152e-01,9.99999e-01
1.707591414e+00,1.20104e-03,1.22733e-03,9.78578e-01,9.99999e-01
1.716129371e+00,2.42681e-02,2.47887e-02,9.78997e-01,9.99999e-01
1.724710018e+00,1.33049e-01,1.35846e-01,9.79408e-01,9.99999e-01
1.733333568e+00,2.69483e-01,2.75036e-01,9.79810e-01,9.99999e-01
1.742000236e+00,4.42858e-01,4.51801e-01,9.80205e-01,9.99999e-01
1.750710237e+00,2.01378e-02,2.05364e-02,9.80592e-01,9.99999e-01
1.759463788e+00,2.79473e-21,2.84894e-21,9.80972e-01,9.99999e-01
1.768261107e+00,1.93964e-22,1.97651e-22,9.81344e-01,9.99999e-01
1.777102413e+00,2.42163e-21,2.46674e-21,9.81709e-01,9.99999e-01
1.785987925e+00,1.72213e-20,1.75358e-20,9.82067e-01,9.99999e-01
1.794917864e+00,1.98702e-19,2.02258e-19,9.82418e-01,9.99999e-01
1.803892454e+00,4.87148e-19,4.95692e-19,9.82763e-01,9.99999e-01
1.812911916e+00,3.92455e-18,3.99201e-18,9.83100e-01,9.99999e-01
1.821976476e+00,2.54553e-18,2.58842e-18,9.83431e-01,9.99999e-01
1.831086358e+00,5.23389e-15,5.32031e-15,9.83756e-01,9.99999e-01
1.840241790e+00,1.01995e-12,1.03645e-12,9.84074e-01,9.99999e-01
1.849442999e+00,5.82138e-09,5.91371e-09,9.84386e-01,9.99999e-01
1.858690214e+00,3.41406e-08,3.46713e-08,9.84692e-01,9.99999e-01
1.867983665e+00,4.89478e-09,4.96936e-09,9.84992e-01,9.99999e-01
1.877323583e+00,1.24661e-39,1.26523e-39,9.85286e-01,9.99999e-01
