#,Wave/freq,Total,CO2,Rayleigh,CIA
4.000000000e-01,4.10860e-08,9.99999e-01,4.10860e-08,9.99999e-01
4.020000000e-01,5.75093e-08,9.99999e-01,5.75093e-08,9.99999e-01
4.040100000e-01,7.99376e-08,9.99999e-01,7.99376e-08,9.99999e-01
4.060300500e-01,1.10392e-07,9.99999e-01,1.10392e-07,9.99999e-01
4.080602003e-01,1.51481e-07,9.99999e-01,1.51481e-07,9.99999e-01
4.101005013e-01,2.06568e-07,9.99999e-01,2.06568e-07,9.99999e-01
4.121510038e-01,2.79967e-07,9.99999e-01,2.79967e-07,9.99999e-01
4.142117588e-01,3.77175e-07,9.99999e-01,3.77175e-07,9.99999e-01
4.162828176e-01,5.05152e-07,9.99999e-01,5.05152e-07,9.99999e-01
4.183642317e-01,6.72660e-07,9.99999e-01,6.72660e-07,9.99999e-01
4.204560528e-01,8.90659e-07,9.99999e-01,8.90659e-07,9.99999e-01
4.225583331e-01,1.17279e-06,9.99999e-01,1.17279e-06,9.99999e-01
4.246711247e-01,1.53592e-06,9.99999e-01,1.53592e-06,9.99999e-01
4.267944804e-01,2.00079e-06,9.99999e-01,2.00079e-06,9.99999e-01
4.289284528e-01,2.59278e-06,9.99999e-01,2.59278e-06,9.99999e-01
4.310730950e-01,3.34278e-06,9.99999e-01,3.34278e-06,9.99999e-01
4.332284605e-01,4.28816e-06,9.99999e-01,4.28816e-06,9.99999e-01
4.353946028e-01,5.47390e-06,9.99999e-01,5.47390e-06,9.99999e-01
4.375715758e-01,6.95390e-06,9.99999e-01,6.95390e-06,9.99999e-01
4.397594337e-01,8.79240e-06,9.99999e-01,8.79240e-06,9.99999e-01
4.419582309e-01,1.10656e-05,9.99999e-01,1.10656e-05,9.99999e-01
4.441680220e-01,1.38633e-05,9.99999e-01,1.38633e-05,9.99999e-01
4.463888621e-01,1.72913e-05,9.99999e-01,1.72913e-05,9.99999e-01
4.486208064e-01,2.14730e-05,9.99999e-01,2.14730e-05,9.99999e-01
4.508639105e-01,2.65521e-05,9.99999e-01,2.65521e-05,9.99999e-01
4.531182300e-01,3.26952e-05,9.99999e-01,3.26952e-05,9.99999e-01
4.553838212e-01,4.00945e-05,9.99999e-01,4.00945e-05,9.99999e-01
4.576607403e-01,4.89705e-05,9.99999e-01,4.89705e-05,9.99999e-01
4.599490440e-01,5.95757e-05,9.99999e-01,5.95757e-05,9.99999e-01
4.622487892e-01,7.21974e-05,9.99999e-01,7.21974e-05,9.99999e-01
4.645600332e-01,8.71618e-05,9.99999e-01,8.71618e-05,9.99999e-01
4.668828333e-01,1.04837e-04,9.99999e-01,1.04837e-04,9.99999e-01
4.692172475e-01,1.25638e-04,9.99999e-01,1.25638e-04,9.99999e-01
4.715633337e-01,1.50028e-04,9.99999e-01,1.50028e-04,9.99999e-01
4.739211504e-01,1.78526e-04,9.99999e-01,1.78526e-04,9.99999e-01
4.762907561e-01,2.11709e-04,9.99999e-01,2.11709e-04,9.99999e-01
4.786722099e-01,2.50216e-04,9.99999e-01,2.50216e-04,9.99999e-01
4.810655710e-01,2.94753e-04,9.99999e-01,2.94753e-04,9.99999e-01
4.834708988e-01,3.46094e-04,9.99999e-01,3.46094e-04,9.99999e-01
4.858882533e-01,4.05092e-04,9.99999e-01,4.05092e-04,9.99999e-01
4.883176946e-01,4.72676e-04,9.99999e-01,4.72676e-04,9.99999e-01
4.907592831e-01,5.49856e-04,9.99999e-01,5.49856e-04,9.99999e-01
4.932130795e-01,6.37730e-04,9.99999e-01,6.37730e-04,9.99999e-01
4.956791449e-01,7.37485e-04,9.99999e-01,7.37485e-04,9.99999e-01
4.981575406e-01,8.50400e-04,9.99999e-01,8.50400e-04,9.99999e-01
5.006483283e-01,9.77846e-04,9.99999e-01,9.77846e-04,9.99999e-01
5.031515699e-01,1.12130e-03,9.99999e-01,1.12130e-03,9.99999e-01
5.056673278e-01,1.28232e-03,9.99999e-01,1.28232e-03,9.99999e-01
5.081956644e-01,1.46258e-03,9.99999e-01,1.46258e-03,9.99999e-01
5.107366428e-01,1.66386e-03,9.99999e-01,1.66386e-03,9.99999e-01
5.132903260e-01,1.88802e-03,9.99999e-01,1.88802e-03,9.99999e-01
5.158567776e-01,2.13703e-03,9.99999e-01,2.13703e-03,9.99999e-01
5.184360615e-01,2.41298e-03,9.99999e-01,2.41298e-03,9.99999e-01
5.210282418e-01,2.71803e-03,9.99999e-01,2.71803e-03,9.99999e-01
5.236333830e-01,3.05446e-03,9.99999e-01,3.05446e-03,9.99999e-01
5.262515499e-01,3.42463e-03,9.99999e-01,3.42463e-03,9.99999e-01
5.288828077e-01,3.83099e-03,9.99999e-01,3.83099e-03,9.99999e-01
5.315272217e-01,4.27609e-03,9.99999e-01,4.27609e-03,9.99999e-01
5.341848578e-01,4.76255e-03,9.99999e-01,4.76255e-03,9.99999e-01
5.368557821e-01,5.29307e-03,9.99999e-01,5.29307e-03,9.99999e-01
5.395400610e-01,5.87043e-03,9.99999e-01,5.87043e-03,9.99999e-01
5.422377613e-01,6.49747e-03,9.99999e-01,6.49747e-03,9.99999e-01
5.449489501e-01,7.17709e-03,9.99999e-01,7.17709e-03,9.99999e-01
5.476736949e-01,7.91222e-03,9.99999e-01,7.91222e-03,9.99999e-01
5.504120634e-01,8.70587e-03,9.99999e-01,8.70587e-03,9.99999e-01
5.531641237e-01,9.56106e-03,9.99999e-01,9.56106e-03,9.99999e-01
5.559299443e-01,1.04808e-02,9.99999e-01,1.04808e-02,9.99999e-01
5.587095940e-01,1.14683e-02,9.99999e-01,1.14683e-02,9.99999e-01
5.615031420e-01,1.25264e-02,9.99999e-01,1.25264e-02,9.99999e-01
5.643106577e-01,1.36584e-02,9.99999e-01,1.36584e-02,9.99999e-01
5.671322110e-01,1.48673e-02,9.99999e-01,1.48673e-02,9.99999e-01
5.699678720e-01,1.61560e-02,9.99999e-01,1.61560e-02,9.99999e-01
5.728177114e-01,1.75277e-02,9.99999e-01,1.75277e-02,9.99999e-01
5.756818000e-01,1.89852e-02,9.99999e-01,1.89852e-02,9.99999e-01
5.785602090e-01,2.05315e-02,9.99999e-01,2.05315e-02,9.99999e-01
5.814530100e-01,2.21694e-02,9.99999e-01,2.21694e-02,9.99999e-01
5.843602750e-01,2.39017e-02,9.99999e-01,2.39017e-02,9.99999e-01
5.872820764e-01,2.57312e-02,9.99999e-01,2.57312e-02,9.99999e-01
5.902184868e-01,2.76603e-02,9.99999e-01,2.76603e-02,9.99999e-01
5.931695792e-01,2.96916e-02,9.99999e-01,2.96916e-02,9.99999e-01
5.961354271e-01,3.18276e-02,9.99999e-01,3.18276e-02,9.99999e-01
5.991161043e-01,3.40703e-02,9.99999e-01,3.40703e-02,9.99999e-01
6.021116848e-01,3.64222e-02,9.99999e-01,3.64222e-02,9.99999e-01
6.051222432e-01,3.88850e-02,9.99999e-01,3.88850e-02,9.99999e-01
6.081478544e-01,4.14608e-02,9.99999e-01,4.14608e-02,9.99999e-01
6.111885937e-01,4.41512e-02,9.99999e-01,4.41512e-02,9.99999e-01
6.142445367e-01,4.69579e-02,9.99999e-01,4.69579e-02,9.99999e-01
6.173157594e-01,4.98822e-02,9.99999e-01,4.98822e-02,9.99999e-01
6.204023382e-01,5.29254e-02,9.99999e-01,5.29254e-02,9.99999e-01
6.235043498e-01,5.60887e-02,9.99999e-01,5.60887e-02,9.99999e-01
6.266218716e-01,5.93728e-02,9.99999e-01,5.93728e-02,9.99999e-01
6.297549810e-01,6.27787e-02,9.99999e-01,6.27787e-02,9.99999e-01
6.329037559e-01,6.63069e-02,9.99999e-01,6.63069e-02,9.99999e-01
6.360682746e-01,6.99578e-02,9.99999e-01,6.99578e-02,9.99999e-01
6.392486160e-01,7.37315e-02,9.99999e-01,7.37315e-02,9.99999e-01
6.424448591e-01,7.76283e-02,9.99999e-01,7.76283e-02,9.99999e-01
6.456570834e-01,8.16478e-02,9.99999e-01,8.16478e-02,9.99999e-01
6.488853688e-01,8.57900e-02,9.99999e-01,8.57900e-02,9.99999e-01
6.521297956e-01,9.00542e-02,9.99999e-01,9.00542e-02,9.99999e-01
6.553904446e-01,9.44398e-02,9.99999e-01,9.44398e-02,9.99999e-01
6.586673968e-01,9.89460e-02,9.99999e-01,9.89460e-02,9.99999e-01
6.619607338e-01,1.03572e-01,9.99999e-01,1.03572e-01,9.99999e-01
6.652705375e-01,1.08316e-01,9.99999e-01,1.08316e-01,9.99999e-01
6.685968902e-01,1.13177e-01,9.99999e-01,1.13177e-01,9.99999e-01
6.719398746e-01,1.18155e-01,9.99999e-01,1.18155e-01,9.99999e-01
6.752995740e-01,1.23246e-01,9.99999e-01,1.23246e-01,9.99999e-01
6.786760719e-01,1.28449e-01,9.99999e-01,1.28449e-01,9.99999e-01
6.820694522e-01,1.33763e-01,9.99999e-01,1.33763e-01,9.99999e-01
6.854797995e-01,1.39185e-01,9.99999e-01,1.39185e-01,9.99999e-01
6.889071985e-01,1.44714e-01,9.99999e-01,1.44714e-01,9.99999e-01
6.923517345e-01,1.50346e-01,9.99999e-01,1.50346e-01,9.99999e-01
6.958134932e-01,1.56080e-01,9.99999e-01,1.56080e-01,9.99999e-01
6.992925606e-01,1.61912e-01,9.99999e-01,1.61912e-01,9.99999e-01
7.027890234e-01,1.67841e-01,9.99999e-01,1.67841e-01,9.99999e-01
7.063029686e-01,1.73863e-01,9.99999e-01,1.73863e-01,9.99999e-01
7.098344834e-01,1.79977e-01,9.99999e-01,1.79977e-01,9.99999e-01
7.133836558e-01,1.86178e-01,9.99999e-01,1.86178e-01,9.99999e-01
7.169505741e-01,1.92463e-01,9.99999e-01,1.92463e-01,9.99999e-01
7.205353270e-01,1.98831e-01,9.99999e-01,1.98831e-01,9.99999e-01
7.241380036e-01,2.05277e-01,9.99999e-01,2.05277e-01,9.99999e-01
7.277586936e-01,2.11799e-01,9.99999e-01,2.11799e-01,9.99999e-01
7.313974871e-01,2.18393e-01,9.99999e-01,2.18393e-01,9.99999e-01
7.350544745e-01,2.25056e-01,9.99999e-01,2.25056e-01,9.99999e-01
7.387297469e-01,2.31784e-01,9.99999e-01,2.31784e-01,9.99999e-01
7.424233956e-01,2.38575e-01,9.99999e-01,2.38575e-01,9.99999e-01
7.461355126e-01,2.45425e-01,9.99999e-01,2.45425e-01,9.99999e-01
7.498661902e-01,2.52330e-01,9.99999e-01,2.52330e-01,9.99999e-01
7.536155211e-01,2.59287e-01,9.99999e-01,2.59287e-01,9.99999e-01
7.573835987e-01,2.66294e-01,9.99999e-01,2.66294e-01,9.99999e-01
7.611705167e-01,2.73345e-01,9.99999e-01,2.73345e-01,9.99999e-01
7.649763693e-01,2.80439e-01,9.99999e-01,2.80439e-01,9.99999e-01
7.688012511e-01,2.87570e-01,9.99999e-01,2.87570e-01,9.99999e-01
7.726452574e-01,2.94738e-01,9.99999e-01,2.94738e-01,9.99999e-01
7.765084837e-01,3.01936e-01,9.99999e-01,3.01936e-01,9.99999e-01
7.803910261e-01,2.92450e-01,9.45938e-01,3.09164e-01,9.99999e-01
7.842929812e-01,2.48393e-01,7.85020e-01,3.16416e-01,9.99999e-01
7.882144461e-01,2.49603e-01,7.71115e-01,3.23690e-01,9.99999e-01
7.921555184e-01,2.83637e-01,8.56951e-01,3.30983e-01,9.99999e-01
7.961162960e-01,3.05221e-01,9.02242e-01,3.38291e-01,9.99999e-01
8.000968774e-01,3.26821e-01,9.45629e-01,3.45612e-01,9.99999e-01
8.040973618e-01,3.42904e-01,9.71562e-01,3.52941e-01,9.99999e-01
8.081178486e-01,3.55516e-01,9.86786e-01,3.60277e-01,9.99999e-01
8.121584379e-01,3.66125e-01,9.95945e-01,3.67616e-01,9.99999e-01
8.162192301e-01,3.74618e-01,9.99102e-01,3.74954e-01,9.99999e-01
8.203003262e-01,3.82286e-01,9.99987e-01,3.82290e-01,9.99999e-01
8.244018279e-01,3.89621e-01,9.99999e-01,3.89621e-01,9.99999e-01
8.285238370e-01,3.96943e-01,9.99999e-01,3.96943e-01,9.99999e-01
8.326664562e-01,4.04254e-01,9.99999e-01,4.04254e-01,9.99999e-01
8.368297885e-01,4.11551e-01,9.99999e-01,4.11551e-01,9.99999e-01
8.410139374e-01,4.18832e-01,9.99999e-01,4.18832e-01,9.99999e-01
8.452190071e-01,4.26094e-01,9.99999e-01,4.26094e-01,9.99999e-01
8.494451021e-01,4.33335e-01,9.99999e-01,4.33335e-01,9.99999e-01
8.536923276e-01,4.40552e-01,9.99999e-01,4.40552e-01,9.99999e-01
8.579607893e-01,4.47743e-01,9.99999e-01,4.47743e-01,9.99999e-01
8.622505932e-01,4.54906e-01,9.99999e-01,4.54906e-01,9.99999e-01
8.665618462e-01,4.15134e-01,8.98480e-01,4.62039e-01,9.99999e-01
8.708946554e-01,2.54735e-01,5.42983e-01,4.69140e-01,9.99999e-01
8.752491287e-01,2.90079e-01,6.09146e-01,4.76206e-01,9.99999e-01
8.796253743e-01,3.67182e-01,7.59840e-01,4.83236e-01,9.99999e-01
8.840235012e-01,4.24790e-01,8.66516e-01,4.90228e-01,9.99999e-01
8.884436187e-01,4.69948e-01,9.45227e-01,4.97180e-01,9.99999e-01
8.928858368e-01,4.92688e-01,9.77381e-01,5.04090e-01,9.99999e-01
8.973502660e-01,5.08143e-01,9.94492e-01,5.10957e-01,9.99999e-01
9.018370173e-01,5.17465e-01,9.99393e-01,5.17779e-01,9.99999e-01
9.063462024e-01,5.16185e-01,9.84044e-01,5.24555e-01,9.99999e-01
9.108779334e-01,5.12406e-01,9.64469e-01,5.31282e-01,9.99999e-01
9.154323231e-01,5.33465e-01,9.91640e-01,5.37961e-01,9.99999e-01
9.200094847e-01,4.82684e-01,8.86325e-01,5.44589e-01,9.99999e-01
9.246095321e-01,4.61772e-01,8.37808e-01,5.51166e-01,9.99999e-01
9.292325798e-01,4.85119e-01,8.69872e-01,5.57690e-01,9.99999e-01
9.338787427e-01,4.93480e-01,8.74715e-01,5.64160e-01,9.99999e-01
9.385481364e-01,5.16964e-01,9.06041e-01,5.70575e-01,9.99999e-01
9.432408771e-01,5.43151e-01,9.41443e-01,5.76934e-01,9.99999e-01
9.479570815e-01,5.65416e-01,9.69445e-01,5.83236e-01,9.99999e-01
9.526968669e-01,5.80750e-01,9.85189e-01,5.89481e-01,9.99999e-01
9.574603512e-01,5.91882e-01,9.93644e-01,5.95667e-01,9.99999e-01
9.622476530e-01,6.00600e-01,9.98016e-01,6.01794e-01,9.99999e-01
9.670588912e-01,6.07500e-01,9.99406e-01,6.07861e-01,9.99999e-01
9.718941857e-01,6.13842e-01,9.99958e-01,6.13867e-01,9.99999e-01
9.767536566e-01,6.19813e-01,9.99999e-01,6.19813e-01,9.99999e-01
9.816374249e-01,6.25697e-01,9.99999e-01,6.25697e-01,9.99999e-01
9.865456120e-01,6.31519e-01,9.99999e-01,6.31519e-01,9.99999e-01
9.914783401e-01,6.37278e-01,9.99999e-01,6.37278e-01,9.99999e-01
9.964357318e-01,6.42975e-01,9.99999e-01,6.42975e-01,9.99999e-01
1.001417910e+00,6.48608e-01,9.99999e-01,6.48608e-01,9.99999e-01
1.006425000e+00,6.54179e-01,9.99999e-01,6.54179e-01,9.99999e-01
1.011457125e+00,6.59685e-01,9.99999e-01,6.59685e-01,9.99999e-01
1.016514411e+00,6.65128e-01,9.99999e-01,6.65128e-01,9.99999e-01
1.021596983e+00,6.70442e-01,9.99902e-01,6.70507e-01,9.99999e-01
1.026704968e+00,6.71564e-01,9.93698e-01,6.75822e-01,9.99999e-01
1.031838492e+00,6.36089e-01,9.33951e-01,6.81073e-01,9.99999e-01
1.036997685e+00,6.51099e-02,9.48764e-02,6.86260e-01,9.99999e-01
1.042182673e+00,2.55096e-02,3.68964e-02,6.91382e-01,9.99999e-01
1.047393587e+00,3.99485e-02,5.73609e-02,6.96441e-01,9.99999e-01
1.052630555e+00,1.81047e-04,2.58110e-04,7.01435e-01,9.99999e-01
1.057893707e+00,5.98966e-04,8.47953e-04,7.06366e-01,9.99999e-01
1.063183176e+00,3.66987e-03,5.15987e-03,7.11233e-01,9.99999e-01
1.068499092e+00,1.61304e-02,2.25273e-02,7.16036e-01,9.99999e-01
1.073841587e+00,6.51048e-02,9.03259e-02,7.20776e-01,9.99999e-01
1.079210795e+00,1.58406e-01,2.18354e-01,7.25453e-01,9.99999e-01
1.084606849e+00,3.13613e-01,4.29567e-01,7.30066e-01,9.99999e-01
1.090029883e+00,4.72847e-01,6.43664e-01,7.34617e-01,9.99999e-01
1.095480033e+00,5.94921e-01,8.04919e-01,7.39106e-01,9.99999e-01
1.100957433e+00,6.69569e-01,9.00523e-01,7.43533e-01,9.99999e-01
1.106462220e+00,7.16223e-01,9.57647e-01,7.47898e-01,9.99999e-01
1.111994531e+00,7.40228e-01,9.84080e-01,7.52202e-01,9.99999e-01
1.117554504e+00,7.53504e-01,9.96112e-01,7.56444e-01,9.99999e-01
1.123142276e+00,7.60434e-01,9.99746e-01,7.60626e-01,9.99999e-01
1.128757988e+00,7.64748e-01,9.99999e-01,7.64748e-01,9.99999e-01
1.134401778e+00,7.68811e-01,9.99999e-01,7.68811e-01,9.99999e-01
1.140073787e+00,7.72813e-01,9.99999e-01,7.72813e-01,9.99999e-01
1.145774156e+00,7.76758e-01,9.99999e-01,7.76758e-01,9.99999e-01
1.151503026e+00,7.80643e-01,9.99999e-01,7.80643e-01,9.99999e-01
1.157260541e+00,7.84471e-01,9.99999e-01,7.84471e-01,9.99999e-01
1.163046844e+00,7.88241e-01,9.99999e-01,7.88241e-01,9.99999e-01
1.168862078e+00,7.91955e-01,9.99999e-01,7.91955e-01,9.99999e-01
1.174706389e+00,7.95612e-01,9.99999e-01,7.95612e-01,9.99999e-01
1.180579921e+00,7.99213e-01,9.99999e-01,7.99213e-01,9.99999e-01
1.186482820e+00,8.02748e-01,9.99984e-01,8.02759e-01,9.99999e-01
1.192415234e+00,7.88354e-01,9.77801e-01,8.06251e-01,9.99999e-01
1.198377311e+00,4.41613e-01,5.45411e-01,8.09688e-01,9.99999e-01
1.204369197e+00,5.32261e-17,6.54629e-17,8.13071e-01,9.99999e-01
1.210391043e+00,1.27291e-65,1.55917e-65,8.16401e-01,9.99999e-01
1.216442998e+00,6.29054e-57,7.67439e-57,8.19679e-01,9.99999e-01
1.222525213e+00,4.34241e-56,5.27693e-56,8.22905e-01,9.99999e-01
1.228637839e+00,2.06720e-43,2.50242e-43,8.26079e-01,9.99999e-01
1.234781029e+00,1.82334e-27,2.19890e-27,8.29202e-01,9.99999e-01
1.240954934e+00,2.15276e-18,2.58659e-18,8.32276e-01,9.99999e-01
1.247159708e+00,1.71153e-09,2.04899e-09,8.35299e-01,9.99999e-01
1.253395507e+00,2.58590e-06,3.08479e-06,8.38274e-01,9.99999e-01
1.259662485e+00,5.83023e-04,6.93084e-04,8.41200e-01,9.99999e-01
1.265960797e+00,1.35476e-02,1.60501e-02,8.44078e-01,9.99999e-01
1.272290601e+00,1.36990e-01,1.61753e-01,8.46909e-01,9.99999e-01
1.278652054e+00,1.15248e-01,1.35635e-01,8.49693e-01,9.99999e-01
1.285045314e+00,8.56168e-04,1.00438e-03,8.52431e-01,9.99999e-01
1.291470541e+00,2.91400e-08,3.40768e-08,8.55124e-01,9.99999e-01
1.297927893e+00,1.19636e-03,1.39473e-03,8.57772e-01,9.99999e-01
1.304417533e+00,3.04997e-02,3.54492e-02,8.60375e-01,9.99999e-01
1.310939621e+00,4.93314e-03,5.71669e-03,8.62934e-01,9.99999e-01
1.317494319e+00,4.48740e-23,5.18504e-23,8.65451e-01,9.99999e-01
1.324081790e+00,2.67486e-11,3.08190e-11,8.67925e-01,9.99999e-01
1.330702199e+00,4.13370e-09,4.74943e-09,8.70356e-01,9.99999e-01
1.337355710e+00,1.30637e-08,1.49685e-08,8.72747e-01,9.99999e-01
1.344042489e+00,4.78767e-09,5.47101e-09,8.75096e-01,9.99999e-01
1.350762701e+00,2.36657e-09,2.69724e-09,8.77406e-01,9.99999e-01
1.357516515e+00,4.32932e-06,4.92150e-06,8.79675e-01,9.99999e-01
1.364304097e+00,2.14779e-04,2.43539e-04,8.81906e-01,9.99999e-01
1.371125618e+00,1.22483e-02,1.38540e-02,8.84097e-01,9.99999e-01
1.377981246e+00,2.40550e-02,2.71424e-02,8.86251e-01,9.99999e-01
1.384871152e+00,1.08907e-01,1.22592e-01,8.88368e-01,9.99999e-01
1.391795508e+00,1.28353e-01,1.44145e-01,8.90447e-01,9.99999e-01
1.398754485e+00,2.67642e-01,2.99882e-01,8.92490e-01,9.99999e-01
1.405748258e+00,3.70291e-01,4.13965e-01,8.94498e-01,9.99999e-01
1.412776999e+00,5.12846e-01,5.72073e-01,8.96470e-01,9.99999e-01
1.419840884e+00,4.55871e-01,5.07421e-01,8.98407e-01,9.99999e-01
1.426940089e+00,2.80807e-02,3.11900e-02,9.00310e-01,9.99999e-01
1.434074789e+00,0.00000e+00,0.00000e+00,9.02180e-01,9.99999e-01
1.441245163e+00,0.00000e+00,0.00000e+00,9.04016e-01,9.99999e-01
1.448451389e+00,0.00000e+00,0.00000e+00,9.05820e-01,9.99999e-01
1.455693646e+00,0.00000e+00,0.00000e+00,9.07591e-01,9.99999e-01
1.462972114e+00,1.78554e-259,1.96358e-259,9.09331e-01,9.99999e-01
1.470286975e+00,4.31120e-108,4.73218e-108,9.11040e-01,9.99999e-01
1.477638409e+00,3.44668e-68,3.77628e-68,9.12718e-01,9.99999e-01
1.485026601e+00,2.87668e-38,3.14609e-38,9.14366e-01,9.99999e-01
1.492451734e+00,1.30275e-32,1.42224e-32,9.15984e-01,9.99999e-01
1.499913993e+00,1.44825e-14,1.57834e-14,9.17573e-01,9.99999e-01
1.507413563e+00,2.39597e-13,2.60677e-13,9.19134e-01,9.99999e-01
1.514950631e+00,8.99669e-15,9.77193e-15,9.20666e-01,9.99999e-01
1.522525384e+00,1.14083e-48,1.23712e-48,9.22170e-01,9.99999e-01
1.530138011e+00,2.66137e-115,2.88137e-115,9.23647e-01,9.99999e-01
1.537788701e+00,1.82410e-85,1.97179e-85,9.25097e-01,9.99999e-01
1.545477645e+00,1.41867e-18,1.53118e-18,9.26521e-01,9.99999e-01
1.553205033e+00,2.17898e-13,2.34824e-13,9.27919e-01,9.99999e-01
1.560971058e+00,7.58672e-14,8.16397e-14,9.29291e-01,9.99999e-01
1.568775913e+00,3.18438e-291,3.42171e-291,9.30638e-01,9.99999e-01
1.576619793e+00,0.00000e+00,0.00000e+00,9.31961e-01,9.99999e-01
1.584502892e+00,0.00000e+00,0.00000e+00,9.33259e-01,9.99999e-01
1.592425406e+00,1.38873e-259,1.48602e-259,9.34533e-01,9.99999e-01
1.600387533e+00,0.00000e+00,0.00000e+00,9.35783e-01,9.99999e-01
1.608389471e+00,0.00000e+00,0.00000e+00,9.37011e-01,9.99999e-01
1.616431418e+00,0.00000e+00,0.00000e+00,9.38216e-01,9.99999e-01
1.624513575e+00,0.00000e+00,0.00000e+00,9.39398e-01,9.99999e-01
1.632636143e+00,6.76482e-245,7.19233e-245,9.40559e-01,9.99999e-01
1.640799324e+00,3.43759e-100,3.65042e-100,9.41698e-01,9.99999e-01
1.649003321e+00,3.44194e-100,3.65070e-100,9.42816e-01,9.99999e-01
1.657248337e+00,1.43348e-77,1.51866e-77,9.43914e-01,9.99999e-01
1.665534579e+00,4.37771e-78,4.63255e-78,9.44990e-01,9.99999e-01
1.673862252e+00,5.21235e-50,5.50961e-50,9.46047e-01,9.99999e-01
1.682231563e+00,7.82866e-35,8.26606e-35,9.47084e-01,9.99999e-01
1.690642721e+00,1.20948e-19,1.27568e-19,9.48102e-01,9.99999e-01
1.699095934e+00,1.19123e-12,1.25511e-12,9.49100e-01,9.99999e-01
1.707591414e+00,7.66120e-07,8.06373e-07,9.50080e-01,9.99999e-01
1.716129371e+00,3.02621e-04,3.18200e-04,9.51042e-01,9.99999e-01
1.724710018e+00,1.00945e-02,1.06037e-02,9.51985e-01,9.99999e-01
1.733333568e+00,4.74647e-02,4.98101e-02,9.52911e-01,9.99999e-01
1.742000236e+00,1.62462e-01,1.70328e-01,9.53819e-01,9.99999e-01
1.750710237e+00,1.75083e-03,1.83388e-03,9.54710e-01,9.99999e-01
1.759463788e+00,9.13186e-48,9.55630e-48,9.55585e-01,9.99999e-01
1.768261107e+00,5.39090e-50,5.63641e-50,9.56442e-01,9.99999e-01
1.777102413e+00,1.47897e-48,1.54496e-48,9.57284e-01,9.99999e-01
1.785987925e+00,1.15338e-45,1.20380e-45,9.58110e-01,9.99999e-01
1.794917864e+00,1.29142e-43,1.34675e-43,9.58920e-01,9.99999e-01
1.803892454e+00,5.67874e-42,5.91710e-42,9.59715e-01,9.99999e-01
1.812911916e+00,2.54284e-40,2.64743e-40,9.60495e-01,9.99999e-01
1.821976476e+00,2.12947e-40,2.21528e-40,9.61260e-01,9.99999e-01
1.831086358e+00,1.45395e-32,1.51137e-32,9.62010e-01,9.99999e-01
1.840241790e+00,9.61195e-28,9.98388e-28,9.62746e-01,9.99999e-01
1.849442999e+00,2.39417e-19,2.48494e-19,9.63469e-01,9.99999e-01
1.858690214e+00,4.12178e-18,4.27491e-18,9.64177e-01,9.99999e-01
1.867983665e+00,7.90151e-19,8.18917e-19,9.64872e-01,9.99999e-01
1.877323583e+00,8.84578e-91,9.16134e-91,9.65554e-01,9.99999e-01
