#,Wave/freq,Total,CO2,Rayleigh,CIA
4.000000000e-01,1.93562e-08,9.99999e-01,1.93562e-08,9.99999e-01
4.020000000e-01,2.74997e-08,9.99999e-01,2.74997e-08,9.99999e-01
4.040100000e-01,3.87855e-08,9.99999e-01,3.87855e-08,9.99999e-01
4.060300500e-01,5.43328e-08,9.99999e-01,5.43328e-08,9.99999e-01
4.080602003e-01,7.56071e-08,9.99999e-01,7.56071e-08,9.99999e-01
4.101005013e-01,1.04527e-07,9.99999e-01,1.04527e-07,9.99999e-01
4.121510038e-01,1.43587e-07,9.99999e-01,1.43587e-07,9.99999e-01
4.142117588e-01,1.96011e-07,9.99999e-01,1.96011e-07,9.99999e-01
4.162828176e-01,2.65934e-07,9.99999e-01,2.65934e-07,9.99999e-01
4.183642317e-01,3.58634e-07,9.99999e-01,3.58634e-07,9.99999e-01
4.204560528e-01,4.80798e-07,9.99999e-01,4.80798e-07,9.99999e-01
4.225583331e-01,6.40855e-07,9.99999e-01,6.40855e-07,9.99999e-01
4.246711247e-01,8.49359e-07,9.99999e-01,8.49359e-07,9.99999e-01
4.267944804e-01,1.11946e-06,9.99999e-01,1.11946e-06,9.99999e-01
4.289284528e-01,1.46742e-06,9.99999e-01,1.46742e-06,9.99999e-01
4.310730950e-01,1.91328e-06,9.99999e-01,1.91328e-06,9.99999e-01
4.332284605e-01,2.48158e-06,9.99999e-01,2.48158e-06,9.99999e-01
4.353946028e-01,3.20218e-06,9.99999e-01,3.20218e-06,9.99999e-01
4.375715758e-01,4.11128e-06,9.99999e-01,4.11128e-06,9.99999e-01
4.397594337e-01,5.25248e-06,9.99999e-01,5.25248e-06,9.99999e-01
4.419582309e-01,6.67806e-06,9.99999e-01,6.67806e-06,9.99999e-01
4.441680220e-01,8.45038e-06,9.99999e-01,8.45038e-06,9.99999e-01
4.463888621e-01,1.06435e-05,9.99999e-01,1.06435e-05,9.99999e-01
4.486208064e-01,1.33447e-05,9.99999e-01,1.33447e-05,9.99999e-01
4.508639105e-01,1.66570e-05,9.99999e-01,1.66570e-05,9.99999e-01
4.531182300e-01,2.07006e-05,9.99999e-01,2.07006e-05,9.99999e-01
4.553838212e-01,2.56155e-05,9.99999e-01,2.56155e-05,9.99999e-01
4.576607403e-01,3.15644e-05,9.99999e-01,3.15644e-05,9.99999e-01
4.599490440e-01,3.87346e-05,9.99999e-01,3.87346e-05,9.99999e-01
4.622487892e-01,4.73418e-05,9.99999e-01,4.73418e-05,9.99999e-01
4.645600332e-01,5.76328e-05,9.99999e-01,5.76328e-05,9.99999e-01
4.668828333e-01,6.98887e-05,9.99999e-01,6.98887e-05,9.99999e-01
4.692172475e-01,8.44287e-05,9.99999e-01,8.44287e-05,9.99999e-01
4.715633337e-01,1.01614e-04,9.99999e-01,1.01614e-04,9.99999e-01
4.739211504e-01,1.21850e-04,9.99999e-01,1.21850e-04,9.99999e-01
4.762907561e-01,1.45593e-04,9.99999e-01,1.45593e-04,9.99999e-01
4.786722099e-01,1.73351e-04,9.99999e-01,1.73351e-04,9.99999e-01
4.810655710e-01,2.05692e-04,9.99999e-01,2.05692e-04,9.99999e-01
4.834708988e-01,2.43243e-04,9.99999e-01,2.43243e-04,9.99999e-01
4.858882533e-01,2.86698e-04,9.99999e-01,2.86698e-04,9.99999e-01
4.883176946e-01,3.36821e-04,9.99999e-01,3.36821e-04,9.99999e-01
4.907592831e-01,3.94450e-04,9.99999e-01,3.94450e-04,9.99999e-01
4.932130795e-01,4.60500e-04,9.99999e-01,4.60500e-04,9.99999e-01
4.956791449e-01,5.35968e-04,9.99999e-01,5.35968e-04,9.99999e-01
4.981575406e-01,6.21938e-04,9.99999e-01,6.21938e-04,9.99999e-01
5.006483283e-01,7.19579e-04,9.99999e-01,7.19579e-04,9.99999e-01
5.031515699e-01,8.30154e-04,9.99999e-01,8.30154e-04,9.99999e-01
5.056673278e-01,9.55021e-04,9.99999e-01,9.55021e-04,9.99999e-01
5.081956644e-01,1.09563e-03,9.99999e-01,1.09563e-03,9.99999e-01
5.107366428e-01,1.25354e-03,9.99999e-01,1.25354e-03,9.99999e-01
5.132903260e-01,1.43040e-03,9.99999e-01,1.43040e-03,9.99999e-01
5.158567776e-01,1.62796e-03,9.99999e-01,1.62796e-03,9.99999e-01
5.184360615e-01,1.84808e-03,9.99999e-01,1.84808e-03,9.99999e-01
5.210282418e-01,2.09272e-03,9.99999e-01,2.09272e-03,9.99999e-01
5.236333830e-01,2.36392e-03,9.99999e-01,2.36392e-03,9.99999e-01
5.262515499e-01,2.66385e-03,9.99999e-01,2.66385e-03,9.99999e-01
5.288828077e-01,2.99477e-03,9.99999e-01,2.99477e-03,9.99999e-01
5.315272217e-01,3.35901e-03,9.99999e-01,3.35901e-03,9.99999e-01
5.341848578e-01,3.75902e-03,9.99999e-01,3.75902e-03,9.99999e-01
5.368557821e-01,4.19733e-03,9.99999e-01,4.19733e-03,9.99999e-01
5.395400610e-01,4.67654e-03,9.99999e-01,4.67654e-03,9.99999e-01
5.422377613e-01,5.19936e-03,9.99999e-01,5.19936e-03,9.99999e-01
5.449489501e-01,5.76853e-03,9.99999e-01,5.76853e-03,9.99999e-01
5.476736949e-01,6.38690e-03,9.99999e-01,6.38690e-03,9.99999e-01
5.504120634e-01,7.05734e-03,9.99999e-01,7.05734e-03,9.99999e-01
5.531641237e-01,7.78279e-03,9.99999e-01,7.78279e-03,9.99999e-01
5.559299443e-01,8.56625e-03,9.99999e-01,8.56625e-03,9.99999e-01
5.587095940e-01,9.41073e-03,9.99999e-01,9.41073e-03,9.99999e-01
5.615031420e-01,1.03193e-02,9.99999e-01,1.03193e-02,9.99999e-01
5.643106577e-01,1.12950e-02,9.99999e-01,1.12950e-02,9.99999e-01
5.671322110e-01,1.23408e-02,9.99999e-01,1.23408e-02,9.99999e-01
5.699678720e-01,1.34600e-02,9.99999e-01,1.34600e-02,9.99999e-01
5.728177114e-01,1.46555e-02,9.99999e-01,1.46555e-02,9.99999e-01
5.756818000e-01,1.59304e-02,9.99999e-01,1.59304e-02,9.99999e-01
5.785602090e-01,1.72877e-02,9.99999e-01,1.72877e-02,9.99999e-01
5.814530100e-01,1.87304e-02,9.99999e-01,1.87304e-02,9.99999e-01
5.843602750e-01,2.02614e-02,9.99999e-01,2.02614e-02,9.99999e-01
5.872820764e-01,2.18835e-02,9.99999e-01,2.18835e-02,9.99999e-01
5.902184868e-01,2.35995e-02,9.99999e-01,2.35995e-02,9.99999e-01
5.931695792e-01,2.54122e-02,9.99999e-01,2.54122e-02,9.99999e-01
5.961354271e-01,2.73241e-02,9.99999e-01,2.73241e-02,9.99999e-01
5.991161043e-01,2.93379e-02,9.99999e-01,2.93379e-02,9.99999e-01
6.021116848e-01,3.14558e-02,9.99999e-01,3.14558e-02,9.99999e-01
6.051222432e-01,3.36802e-02,9.99999e-01,3.36802e-02,9.99999e-01
6.081478544e-01,3.60133e-02,9.99999e-01,3.60133e-02,9.99999e-01
6.111885937e-01,3.84571e-02,9.99999e-01,3.84571e-02,9.99999e-01
6.142445367e-01,4.10135e-02,9.99999e-01,4.10135e-02,9.99999e-01
6.173157594e-01,4.36842e-02,9.99999e-01,4.36842e-02,9.99999e-01
6.204023382e-01,4.64709e-02,9.99999e-01,4.64709e-02,9.99999e-01
6.235043498e-01,4.93751e-02,9.99999e-01,4.93751e-02,9.99999e-01
6.266218716e-01,5.23980e-02,9.99999e-01,5.23980e-02,9.99999e-01
6.297549810e-01,5.55407e-02,9.99999e-01,5.55407e-02,9.99999e-01
6.329037559e-01,5.88042e-02,9.99999e-01,5.88042e-02,9.99999e-01
6.360682746e-01,6.21893e-02,9.99999e-01,6.21893e-02,9.99999e-01
6.392486160e-01,6.56965e-02,9.99999e-01,6.56965e-02,9.99999e-01
6.424448591e-01,6.93264e-02,9.99999e-01,6.93264e-02,9.99999e-01
6.456570834e-01,7.30792e-02,9.99999e-01,7.30792e-02,9.99999e-01
6.488853688e-01,7.69550e-02,9.99999e-01,7.69550e-02,9.99999e-01
6.521297956e-01,8.09537e-02,9.99999e-01,8.09537e-02,9.99999e-01
6.553904446e-01,8.50749e-02,9.99999e-01,8.50749e-02,9.99999e-01
6.586673968e-01,8.93183e-02,9.99999e-01,8.93183e-02,9.99999e-01
6.619607338e-01,9.36833e-02,9.99999e-01,9.36833e-02,9.99999e-01
6.652705375e-01,9.81690e-02,9.99999e-01,9.81690e-02,9.99999e-01
6.685968902e-01,1.02774e-01,9.99999e-01,1.02774e-01,9.99999e-01
6.719398746e-01,1.07499e-01,9.99999e-01,1.07499e-01,9.99999e-01
6.752995740e-01,1.12340e-01,9.99999e-01,1.12340e-01,9.99999e-01
6.786760719e-01,1.17298e-01,9.99999e-01,1.17298e-01,9.99999e-01
6.820694522e-01,1.22370e-01,9.99999e-01,1.22370e-01,9.99999e-01
6.854797995e-01,1.27554e-01,9.99999e-01,1.27554e-01,9.99999e-01
6.889071985e-01,1.32849e-01,9.99999e-01,1.32849e-01,9.99999e-01
6.923517345e-01,1.38253e-01,9.99999e-01,1.38253e-01,9.99999e-01
6.958134932e-01,1.43763e-01,9.99999e-01,1.43763e-01,9.99999e-01
6.992925606e-01,1.49378e-01,9.99999e-01,1.49378e-01,9.99999e-01
7.027890234e-01,1.55095e-01,9.99999e-01,1.55095e-01,9.99999e-01
7.063029686e-01,1.60911e-01,9.99999e-01,1.60911e-01,9.99999e-01
7.098344834e-01,1.66823e-01,9.99999e-01,1.66823e-01,9.99999e-01
7.133836558e-01,1.72830e-01,9.99999e-01,1.72830e-01,9.99999e-01
7.169505741e-01,1.78928e-01,9.99999e-01,1.78928e-01,9.99999e-01
7.205353270e-01,1.85114e-01,9.99999e-01,1.85114e-01,9.99999e-01
7.241380036e-01,1.91385e-01,9.99999e-01,1.91385e-01,9.99999e-01
7.277586936e-01,1.97739e-01,9.99999e-01,1.97739e-01,9.99999e-01
7.313974871e-01,2.04172e-01,9.99999e-01,2.04172e-01,9.99999e-01
7.350544745e-01,2.10681e-01,9.99999e-01,2.10681e-01,9.99999e-01
7.387297469e-01,2.17263e-01,9.99999e-01,2.17263e-01,9.99999e-01
7.424233956e-01,2.23915e-01,9.99999e-01,2.23915e-01,9.99999e-01
7.461355126e-01,2.30632e-01,9.99999e-01,2.30632e-01,9.99999e-01
7.498661902e-01,2.37413e-01,9.99999e-01,2.37413e-01,9.99999e-01
7.536155211e-01,2.44253e-01,9.99999e-01,2.44253e-01,9.99999e-01
7.573835987e-01,2.51149e-01,9.99999e-01,2.51149e-01,9.99999e-01
7.611705167e-01,2.58097e-01,9.99999e-01,2.58097e-01,9.99999e-01
7.649763693e-01,2.65096e-01,9.99999e-01,2.65096e-01,9.99999e-01
7.688012511e-01,2.72140e-01,9.99999e-01,2.72140e-01,9.99999e-01
7.726452574e-01,2.79226e-01,9.99999e-01,2.79226e-01,9.99999e-01
7.765084837e-01,2.86352e-01,9.99999e-01,2.86352e-01,9.99999e-01
7.803910261e-01,2.76935e-01,9.43517e-01,2.93513e-01,9.99999e-01
7.842929812e-01,2.33724e-01,7.77249e-01,3.00707e-01,9.99999e-01
7.882144461e-01,2.34877e-01,7.62764e-01,3.07929e-01,9.99999e-01
7.921555184e-01,2.68265e-01,8.51156e-01,3.15177e-01,9.99999e-01
7.961162960e-01,2.89647e-01,8.98274e-01,3.22448e-01,9.99999e-01
8.000968774e-01,3.11056e-01,9.43342e-01,3.29738e-01,9.99999e-01
8.040973618e-01,3.27056e-01,9.70366e-01,3.37044e-01,9.99999e-01
8.081178486e-01,3.39616e-01,9.86216e-01,3.44362e-01,9.99999e-01
8.121584379e-01,3.50207e-01,9.95779e-01,3.51691e-01,9.99999e-01
8.162192301e-01,3.58690e-01,9.99065e-01,3.59025e-01,9.99999e-01
8.203003262e-01,3.66359e-01,9.99987e-01,3.66364e-01,9.99999e-01
8.244018279e-01,3.73703e-01,9.99999e-01,3.73703e-01,9.99999e-01
8.285238370e-01,3.81040e-01,9.99999e-01,3.81040e-01,9.99999e-01
8.326664562e-01,3.88371e-01,9.99999e-01,3.88371e-01,9.99999e-01
8.368297885e-01,3.95695e-01,9.99999e-01,3.95695e-01,9.99999e-01
8.410139374e-01,4.03008e-01,9.99999e-01,4.03008e-01,9.99999e-01
8.452190071e-01,4.10308e-01,9.99999e-01,4.10308e-01,9.99999e-01
8.494451021e-01,4.17591e-01,9.99999e-01,4.17591e-01,9.99999e-01
8.536923276e-01,4.24857e-01,9.99999e-01,4.24857e-01,9.99999e-01
8.579607893e-01,4.32101e-01,9.99999e-01,4.32101e-01,9.99999e-01
8.622505932e-01,4.39323e-01,9.99999e-01,4.39323e-01,9.99999e-01
8.665618462e-01,3.99893e-01,8.95579e-01,4.46519e-01,9.99999e-01
8.708946554e-01,2.40253e-01,5.29556e-01,4.53687e-01,9.99999e-01
8.752491287e-01,2.75011e-01,5.96778e-01,4.60825e-01,9.99999e-01
8.796253743e-01,3.51466e-01,7.51106e-01,4.67931e-01,9.99999e-01
8.840235012e-01,4.09088e-01,8.61231e-01,4.75004e-01,9.99999e-01
8.884436187e-01,4.54545e-01,9.42961e-01,4.82040e-01,9.99999e-01
8.928858368e-01,4.77512e-01,9.76431e-01,4.89038e-01,9.99999e-01
8.973502660e-01,4.93152e-01,9.94262e-01,4.95997e-01,9.99999e-01
9.018370173e-01,5.02597e-01,9.99368e-01,5.02914e-01,9.99999e-01
9.063462024e-01,5.01273e-01,9.83294e-01,5.09789e-01,9.99999e-01
9.108779334e-01,4.97486e-01,9.62964e-01,5.16619e-01,9.99999e-01
9.154323231e-01,5.18851e-01,9.91303e-01,5.23402e-01,9.99999e-01
9.200094847e-01,4.67503e-01,8.81850e-01,5.30138e-01,9.99999e-01
9.246095321e-01,4.46334e-01,8.31432e-01,5.36826e-01,9.99999e-01
9.292325798e-01,4.69820e-01,8.64492e-01,5.43463e-01,9.99999e-01
9.338787427e-01,4.78372e-01,8.69690e-01,5.50048e-01,9.99999e-01
9.385481364e-01,5.02129e-01,9.02166e-01,5.56581e-01,9.99999e-01
9.432408771e-01,5.28709e-01,9.38991e-01,5.63060e-01,9.99999e-01
9.479570815e-01,5.51339e-01,9.68136e-01,5.69485e-01,9.99999e-01
9.526968669e-01,5.66960e-01,9.84555e-01,5.75853e-01,9.99999e-01
9.574603512e-01,5.78308e-01,9.93372e-01,5.82165e-01,9.99999e-01
9.622476530e-01,5.87203e-01,9.97931e-01,5.88420e-01,9.99999e-01
9.670588912e-01,5.94248e-01,9.99381e-01,5.94616e-01,9.99999e-01
9.718941857e-01,6.00727e-01,9.99957e-01,6.00753e-01,9.99999e-01
9.767536566e-01,6.06830e-01,9.99999e-01,6.06830e-01,9.99999e-01
9.816374249e-01,6.12847e-01,9.99999e-01,6.12847e-01,9.99999e-01
9.865456120e-01,6.18803e-01,9.99999e-01,6.18803e-01,9.99999e-01
9.914783401e-01,6.24698e-01,9.99999e-01,6.24698e-01,9.99999e-01
9.964357318e-01,6.30530e-01,9.99999e-01,6.30530e-01,9.99999e-01
1.001417910e+00,6.36300e-01,9.99999e-01,6.36300e-01,9.99999e-01
1.006425000e+00,6.42008e-01,9.99999e-01,6.42008e-01,9.99999e-01
1.011457125e+00,6.47652e-01,9.99999e-01,6.47652e-01,9.99999e-01
1.016514411e+00,6.53233e-01,9.99999e-01,6.53233e-01,9.99999e-01
1.021596983e+00,6.58682e-01,9.99895e-01,6.58751e-01,9.99999e-01
1.026704968e+00,6.59816e-01,9.93392e-01,6.64204e-01,9.99999e-01
1.031838492e+00,6.23640e-01,9.31369e-01,6.69594e-01,9.99999e-01
1.036997685e+00,6.12474e-02,9.07476e-02,6.74920e-01,9.99999e-01
1.042182673e+00,2.21342e-02,3.25415e-02,6.80182e-01,9.99999e-01
1.047393587e+00,3.55990e-02,5.19405e-02,6.85380e-01,9.99999e-01
1.052630555e+00,1.33211e-04,1.92915e-04,6.90513e-01,9.99999e-01
1.057893707e+00,4.50892e-04,6.48222e-04,6.95583e-01,9.99999e-01
1.063183176e+00,2.95260e-03,4.21445e-03,7.00588e-01,9.99999e-01
1.068499092e+00,1.35617e-02,1.92220e-02,7.05529e-01,9.99999e-01
1.073841587e+00,5.79896e-02,8.16286e-02,7.10407e-01,9.99999e-01
1.079210795e+00,1.46549e-01,2.04900e-01,7.15221e-01,9.99999e-01
1.084606849e+00,2.98346e-01,4.14385e-01,7.19972e-01,9.99999e-01
1.090029883e+00,4.57654e-01,6.31542e-01,7.24659e-01,9.99999e-01
1.095480033e+00,5.81567e-01,7.97449e-01,7.29284e-01,9.99999e-01
1.100957433e+00,6.57853e-01,8.96445e-01,7.33846e-01,9.99999e-01
1.106462220e+00,7.05759e-01,9.55866e-01,7.38345e-01,9.99999e-01
1.111994531e+00,7.30453e-01,9.83400e-01,7.42782e-01,9.99999e-01
1.117554504e+00,7.44132e-01,9.95949e-01,7.47158e-01,9.99999e-01
1.123142276e+00,7.51274e-01,9.99735e-01,7.51472e-01,9.99999e-01
1.128757988e+00,7.55725e-01,9.99999e-01,7.55725e-01,9.99999e-01
1.134401778e+00,7.59917e-01,9.99999e-01,7.59917e-01,9.99999e-01
1.140073787e+00,7.64050e-01,9.99999e-01,7.64050e-01,9.99999e-01
1.145774156e+00,7.68122e-01,9.99999e-01,7.68122e-01,9.99999e-01
1.151503026e+00,7.72135e-01,9.99999e-01,7.72135e-01,9.99999e-01
1.157260541e+00,7.76089e-01,9.99999e-01,7.76089e-01,9.99999e-01
1.163046844e+00,7.79985e-01,9.99999e-01,7.79985e-01,9.99999e-01
1.168862078e+00,7.83822e-01,9.99999e-01,7.83822e-01,9.99999e-01
1.174706389e+00,7.87602e-01,9.99999e-01,7.87602e-01,9.99999e-01
1.180579921e+00,7.91326e-01,9.99999e-01,7.91326e-01,9.99999e-01
1.186482820e+00,7.94980e-01,9.99983e-01,7.94992e-01,9.99999e-01
1.192415234e+00,7.80023e-01,9.76733e-01,7.98603e-01,9.99999e-01
1.198377311e+00,4.36009e-01,5.43543e-01,8.02159e-01,9.99999e-01
1.204369197e+00,1.18383e-17,1.46939e-17,8.05659e-01,9.99999e-01
1.210391043e+00,1.99266e-68,2.46279e-68,8.09105e-01,9.99999e-01
1.216442998e+00,2.38940e-59,2.94081e-59,8.12498e-01,9.99999e-01
1.222525213e+00,1.79643e-58,2.20194e-58,8.15837e-01,9.99999e-01
1.228637839e+00,3.01290e-45,3.67820e-45,8.19124e-01,9.99999e-01
1.234781029e+00,1.39529e-28,1.69669e-28,8.22358e-01,9.99999e-01
1.240954934e+00,3.99151e-19,4.83502e-19,8.25541e-01,9.99999e-01
1.247159708e+00,8.17034e-10,9.85954e-10,8.28673e-01,9.99999e-01
1.253395507e+00,1.53749e-06,1.84849e-06,8.31755e-01,9.99999e-01
1.259662485e+00,4.33138e-04,5.18859e-04,8.34787e-01,9.99999e-01
1.265960797e+00,1.15392e-02,1.37737e-02,8.37770e-01,9.99999e-01
1.272290601e+00,1.26042e-01,1.49924e-01,8.40704e-01,9.99999e-01
1.278652054e+00,1.05855e-01,1.25482e-01,8.43591e-01,9.99999e-01
1.285045314e+00,7.08257e-04,8.36758e-04,8.46430e-01,9.99999e-01
1.291470541e+00,1.42394e-08,1.67675e-08,8.49222e-01,9.99999e-01
1.297927893e+00,9.79933e-04,1.15020e-03,8.51968e-01,9.99999e-01
1.304417533e+00,2.62765e-02,3.07447e-02,8.54668e-01,9.99999e-01
1.310939621e+00,4.24905e-03,4.95618e-03,8.57323e-01,9.99999e-01
1.317494319e+00,4.97415e-24,5.78433e-24,8.59934e-01,9.99999e-01
1.324081790e+00,1.06347e-11,1.23301e-11,8.62501e-01,9.99999e-01
1.330702199e+00,1.82191e-09,2.10619e-09,8.65025e-01,9.99999e-01
1.337355710e+00,9.24575e-09,1.06578e-08,8.67506e-01,9.99999e-01
1.344042489e+00,1.06228e-10,1.22108e-10,8.69945e-01,9.99999e-01
1.350762701e+00,1.04086e-09,1.19318e-09,8.72342e-01,9.99999e-01
1.357516515e+00,2.71461e-06,3.10348e-06,8.74698e-01,9.99999e-01
1.364304097e+00,1.50893e-04,1.72053e-04,8.77015e-01,9.99999e-01
1.371125618e+00,1.02442e-02,1.16506e-02,8.79291e-01,9.99999e-01
1.377981246e+00,2.04899e-02,2.32436e-02,8.81528e-01,9.99999e-01
1.384871152e+00,9.89611e-02,1.11981e-01,8.83726e-01,9.99999e-01
1.391795508e+00,1.17551e-01,1.32693e-01,8.85887e-01,9.99999e-01
1.398754485e+00,2.52625e-01,2.84485e-01,8.88009e-01,9.99999e-01
1.405748258e+00,3.54772e-01,3.98577e-01,8.90095e-01,9.99999e-01
1.412776999e+00,4.98239e-01,5.58473e-01,8.92144e-01,9.99999e-01
1.419840884e+00,4.42398e-01,4.94764e-01,8.94158e-01,9.99999e-01
1.426940089e+00,2.61740e-02,2.92076e-02,8.96136e-01,9.99999e-01
1.434074789e+00,0.00000e+00,0.00000e+00,8.98079e-01,9.99999e-01
1.441245163e+00,0.00000e+00,0.00000e+00,8.99988e-01,9.99999e-01
1.448451389e+00,0.00000e+00,0.00000e+00,9.01863e-01,9.99999e-01
1.455693646e+00,0.00000e+00,0.00000e+00,9.03705e-01,9.99999e-01
1.462972114e+00,7.37600e-271,8.14564e-271,9.05514e-01,9.99999e-01
1.470286975e+00,8.92164e-113,9.83326e-113,9.07291e-01,9.99999e-01
1.477638409e+00,4.15842e-71,4.57453e-71,9.09036e-01,9.99999e-01
1.485026601e+00,7.29430e-40,8.00910e-40,9.10750e-01,9.99999e-01
1.492451734e+00,5.70415e-34,6.25158e-34,9.12434e-01,9.99999e-01
1.499913993e+00,4.08622e-15,4.47027e-15,9.14087e-01,9.99999e-01
1.507413563e+00,6.75992e-14,7.38216e-14,9.15710e-01,9.99999e-01
1.514950631e+00,2.51102e-15,2.73739e-15,9.17304e-01,9.99999e-01
1.522525384e+00,1.00582e-50,1.09463e-50,9.18870e-01,9.99999e-01
1.530138011e+00,2.62613e-120,2.85323e-120,9.20407e-01,9.99999e-01
1.537788701e+00,3.77218e-89,4.09167e-89,9.21916e-01,9.99999e-01
1.545477645e+00,2.68674e-19,2.90963e-19,9.23397e-01,9.99999e-01
1.553205033e+00,6.26596e-14,6.77508e-14,9.24852e-01,9.99999e-01
1.560971058e+00,2.22060e-14,2.39732e-14,9.26280e-01,9.99999e-01
1.568775913e+00,5.15742e-304,5.55946e-304,9.27682e-01,9.99999e-01
1.576619793e+00,0.00000e+00,0.00000e+00,9.29059e-01,9.99999e-01
1.584502892e+00,0.00000e+00,0.00000e+00,9.30410e-01,9.99999e-01
1.592425406e+00,5.65131e-271,6.06534e-271,9.31737e-01,9.99999e-01
1.600387533e+00,0.00000e+00,0.00000e+00,9.33039e-01,9.99999e-01
1.608389471e+00,0.00000e+00,0.00000e+00,9.34317e-01,9.99999e-01
1.616431418e+00,0.00000e+00,0.00000e+00,9.35572e-01,9.99999e-01
1.624513575e+00,0.00000e+00,0.00000e+00,9.36803e-01,9.99999e-01
1.632636143e+00,1.22968e-255,1.31094e-255,9.38012e-01,9.99999e-01
1.640799324e+00,1.58989e-104,1.69282e-104,9.39198e-01,9.99999e-01
1.649003321e+00,1.59174e-104,1.69269e-104,9.40363e-01,9.99999e-01
1.657248337e+00,6.62812e-81,7.03991e-81,9.41506e-01,9.99999e-01
1.665534579e+00,1.92123e-81,2.03816e-81,9.42627e-01,9.99999e-01
1.673862252e+00,3.98529e-52,4.22292e-52,9.43728e-01,9.99999e-01
1.682231563e+00,2.81294e-36,2.97726e-36,9.44808e-01,9.99999e-01
1.690642721e+00,2.04996e-20,2.16727e-20,9.45868e-01,9.99999e-01
1.699095934e+00,3.92050e-13,4.14031e-13,9.46909e-01,9.99999e-01
1.707591414e+00,4.58352e-07,4.83529e-07,9.47929e-01,9.99999e-01
1.716129371e+00,2.21570e-04,2.33494e-04,9.48931e-01,9.99999e-01
1.724710018e+00,8.36454e-03,8.80557e-03,9.49914e-01,9.99999e-01
1.733333568e+00,4.16674e-02,4.38199e-02,9.50879e-01,9.99999e-01
1.742000236e+00,1.50589e-01,1.58210e-01,9.51825e-01,9.99999e-01
1.750710237e+00,1.47884e-03,1.55218e-03,9.52754e-01,9.99999e-01
1.759463788e+00,8.68192e-50,9.10373e-50,9.53665e-01,9.99999e-01
1.768261107e+00,4.15398e-52,4.35172e-52,9.54559e-01,9.99999e-01
1.777102413e+00,1.24359e-50,1.30159e-50,9.55437e-01,9.99999e-01
1.785987925e+00,1.37629e-47,1.43919e-47,9.56297e-01,9.99999e-01
1.794917864e+00,1.87627e-45,1.96028e-45,9.57142e-01,9.99999e-01
1.803892454e+00,9.91722e-44,1.03523e-43,9.57970e-01,9.99999e-01
1.812911916e+00,5.16109e-42,5.38295e-42,9.58783e-01,9.99999e-01
1.821976476e+00,4.36199e-42,4.54572e-42,9.59580e-01,9.99999e-01
1.831086358e+00,6.61904e-34,6.89222e-34,9.60363e-01,9.99999e-01
1.840241790e+00,6.93723e-29,7.21778e-29,9.61130e-01,9.99999e-01
1.849442999e+00,3.89640e-20,4.05080e-20,9.61883e-01,9.99999e-01
1.858690214e+00,7.33232e-19,7.61702e-19,9.62622e-01,9.99999e-01
1.867983665e+00,1.42622e-19,1.48049e-19,9.63346e-01,9.99999e-01
1.877323583e+00,1.06349e-94,1.10314e-94,9.64057e-01,9.99999e-01
