#,Wave/freq,Total,CO2,Rayleigh,CIA
4.000000000e-01,1.38572e-08,9.99999e-01,1.38572e-08,9.99999e-01
4.020000000e-01,1.98178e-08,9.99999e-01,1.98178e-08,9.99999e-01
4.040100000e-01,2.81325e-08,9.99999e-01,2.81325e-08,9.99999e-01
4.060300500e-01,3.96602e-08,9.99999e-01,3.96602e-08,9.99999e-01
4.080602003e-01,5.55336e-08,9.99999e-01,5.55336e-08,9.99999e-01
4.101005013e-01,7.72448e-08,9.99999e-01,7.72448e-08,9.99999e-01
4.121510038e-01,1.06746e-07,9.99999e-01,1.06746e-07,9.99999e-01
4.142117588e-01,1.46575e-07,9.99999e-01,1.46575e-07,9.99999e-01
4.162828176e-01,2.00007e-07,9.99999e-01,2.00007e-07,9.99999e-01
4.183642317e-01,2.71248e-07,9.99999e-01,2.71248e-07,9.99999e-01
4.204560528e-01,3.65657e-07,9.99999e-01,3.65657e-07,9.99999e-01
4.225583331e-01,4.90026e-07,9.99999e-01,4.90026e-07,9.99999e-01
4.246711247e-01,6.52910e-07,9.99999e-01,6.52910e-07,9.99999e-01
4.267944804e-01,8.65018e-07,9.99999e-01,8.65018e-07,9.99999e-01
4.289284528e-01,1.13968e-06,9.99999e-01,1.13968e-06,9.99999e-01
4.310730950e-01,1.49340e-06,9.99999e-01,1.49340e-06,9.99999e-01
4.332284605e-01,1.94649e-06,9.99999e-01,1.94649e-06,9.99999e-01
4.353946028e-01,2.52379e-06,9.99999e-01,2.52379e-06,9.99999e-01
4.375715758e-01,3.25556e-06,9.99999e-01,3.25556e-06,9.99999e-01
4.397594337e-01,4.17845e-06,9.99999e-01,4.17845e-06,9.99999e-01
4.419582309e-01,5.33659e-06,9.99999e-01,5.33659e-06,9.99999e-01
4.441680220e-01,6.78287e-06,9.99999e-01,6.78287e-06,9.99999e-01
4.463888621e-01,8.58037e-06,9.99999e-01,8.58037e-06,9.99999e-01
4.486208064e-01,1.08039e-05,9.99999e-01,1.08039e-05,9.99999e-01
4.508639105e-01,1.35419e-05,9.99999e-01,1.35419e-05,9.99999e-01
4.531182300e-01,1.68983e-05,9.99999e-01,1.68983e-05,9.99999e-01
4.553838212e-01,2.09944e-05,9.99999e-01,2.09944e-05,9.99999e-01
4.576607403e-01,2.59719e-05,9.99999e-01,2.59719e-05,9.99999e-01
4.599490440e-01,3.19948e-05,9.99999e-01,3.19948e-05,9.99999e-01
4.622487892e-01,3.92523e-05,9.99999e-01,3.92523e-05,9.99999e-01
4.645600332e-01,4.79619e-05,9.99999e-01,4.79619e-05,9.99999e-01
4.668828333e-01,5.83727e-05,9.99999e-01,5.83727e-05,9.99999e-01
4.692172475e-01,7.07681e-05,9.99999e-01,7.07681e-05,9.99999e-01
4.715633337e-01,8.54700e-05,9.99999e-01,8.54700e-05,9.99999e-01
4.739211504e-01,1.02842e-04,9.99999e-01,1.02842e-04,9.99999e-01
4.762907561e-01,1.23293e-04,9.99999e-01,1.23293e-04,9.99999e-01
4.786722099e-01,1.47283e-04,9.99999e-01,1.47283e-04,9.99999e-01
4.810655710e-01,1.75324e-04,9.99999e-01,1.75324e-04,9.99999e-01
4.834708988e-01,2.07987e-04,9.99999e-01,2.07987e-04,9.99999e-01
4.858882533e-01,2.45903e-04,9.99999e-01,2.45903e-04,9.99999e-01
4.883176946e-01,2.89771e-04,9.99999e-01,2.89771e-04,9.99999e-01
4.907592831e-01,3.40359e-04,9.99999e-01,3.40359e-04,9.99999e-01
4.932130795e-01,3.98511e-04,9.99999e-01,3.98511e-04,9.99999e-01
4.956791449e-01,4.65147e-04,9.99999e-01,4.65147e-04,9.99999e-01
4.981575406e-01,5.41270e-04,9.99999e-01,5.41270e-04,9.99999e-01
5.006483283e-01,6.27967e-04,9.99999e-01,6.27967e-04,9.99999e-01
5.031515699e-01,7.26416e-04,9.99999e-01,7.26416e-04,9.99999e-01
5.056673278e-01,8.37886e-04,9.99999e-01,8.37886e-04,9.99999e-01
5.081956644e-01,9.63739e-04,9.99999e-01,9.63739e-04,9.99999e-01
5.107366428e-01,1.10544e-03,9.99999e-01,1.10544e-03,9.99999e-01
5.132903260e-01,1.26454e-03,9.99999e-01,1.26454e-03,9.99999e-01
5.158567776e-01,1.44270e-03,9.99999e-01,1.44270e-03,9.99999e-01
5.184360615e-01,1.64168e-03,9.99999e-01,1.64168e-03,9.99999e-01
5.210282418e-01,1.86335e-03,9.99999e-01,1.86335e-03,9.99999e-01
5.236333830e-01,2.10966e-03,9.99999e-01,2.10966e-03,9.99999e-01
5.262515499e-01,2.38268e-03,9.99999e-01,2.38268e-03,9.99999e-01
5.288828077e-01,2.68457e-03,9.99999e-01,2.68457e-03,9.99999e-01
5.315272217e-01,3.01760e-03,9.99999e-01,3.01760e-03,9.99999e-01
5.341848578e-01,3.38411e-03,9.99999e-01,3.38411e-03,9.99999e-01
5.368557821e-01,3.78655e-03,9.99999e-01,3.78655e-03,9.99999e-01
5.395400610e-01,4.22746e-03,9.99999e-01,4.22746e-03,9.99999e-01
5.422377613e-01,4.70945e-03,9.99999e-01,4.70945e-03,9.99999e-01
5.449489501e-01,5.23522e-03,9.99999e-01,5.23522e-03,9.99999e-01
5.476736949e-01,5.80753e-03,9.99999e-01,5.80753e-03,9.99999e-01
5.504120634e-01,6.42922e-03,9.99999e-01,6.42922e-03,9.99999e-01
5.531641237e-01,7.10317e-03,9.99999e-01,7.10317e-03,9.99999e-01
5.559299443e-01,7.83234e-03,9.99999e-01,7.83234e-03,9.99999e-01
5.587095940e-01,8.61970e-03,9.99999e-01,8.61970e-03,9.99999e-01
5.615031420e-01,9.46829e-03,9.99999e-01,9.46829e-03,9.99999e-01
5.643106577e-01,1.03811e-02,9.99999e-01,1.03811e-02,9.99999e-01
5.671322110e-01,1.13613e-02,9.99999e-01,1.13613e-02,9.99999e-01
5.699678720e-01,1.24119e-02,9.99999e-01,1.24119e-02,9.99999e-01
5.728177114e-01,1.35360e-02,9.99999e-01,1.35360e-02,9.99999e-01
5.756818000e-01,1.47366e-02,9.99999e-01,1.47366e-02,9.99999e-01
5.785602090e-01,1.60168e-02,9.99999e-01,1.60168e-02,9.99999e-01
5.814530100e-01,1.73797e-02,9.99999e-01,1.73797e-02,9.99999e-01
5.843602750e-01,1.88280e-02,9.99999e-01,1.88280e-02,9.99999e-01
5.872820764e-01,2.03649e-02,9.99999e-01,2.03649e-02,9.99999e-01
5.902184868e-01,2.19930e-02,9.99999e-01,2.19930e-02,9.99999e-01
5.931695792e-01,2.37153e-02,9.99999e-01,2.37153e-02,9.99999e-01
5.961354271e-01,2.55344e-02,9.99999e-01,2.55344e-02,9.99999e-01
5.991161043e-01,2.74530e-02,9.99999e-01,2.74530e-02,9.99999e-01
6.021116848e-01,2.94735e-02,9.99999e-01,2.94735e-02,9.99999e-01
6.051222432e-01,3.15983e-02,9.99999e-01,3.15983e-02,9.99999e-01
6.081478544e-01,3.38298e-02,9.99999e-01,3.38298e-02,9.99999e-01
6.111885937e-01,3.61701e-02,9.99999e-01,3.61701e-02,9.99999e-01
6.142445367e-01,3.86212e-02,9.99999e-01,3.86212e-02,9.99999e-01
6.173157594e-01,4.11850e-02,9.99999e-01,4.11850e-02,9.99999e-01
6.204023382e-01,4.38633e-02,9.99999e-01,4.38633e-02,9.99999e-01
6.235043498e-01,4.66577e-02,9.99999e-01,4.66577e-02,9.99999e-01
6.266218716e-01,4.95696e-02,9.99999e-01,4.95696e-02,9.99999e-01
6.297549810e-01,5.26003e-02,9.99999e-01,5.26003e-02,9.99999e-01
6.329037559e-01,5.57509e-02,9.99999e-01,5.57509e-02,9.99999e-01
6.360682746e-01,5.90223e-02,9.99999e-01,5.90223e-02,9.99999e-01
6.392486160e-01,6.24154e-02,9.99999e-01,6.24154e-02,9.99999e-01
6.424448591e-01,6.59307e-02,9.99999e-01,6.59307e-02,9.99999e-01
6.456570834e-01,6.95687e-02,9.99999e-01,6.95687e-02,9.99999e-01
6.488853688e-01,7.33295e-02,9.99999e-01,7.33295e-02,9.99999e-01
6.521297956e-01,7.72133e-02,9.99999e-01,7.72133e-02,9.99999e-01
6.553904446e-01,8.12200e-02,9.99999e-01,8.12200e-02,9.99999e-01
6.586673968e-01,8.53493e-02,9.99999e-01,8.53493e-02,9.99999e-01
6.619607338e-01,8.96007e-02,9.99999e-01,8.96007e-02,9.99999e-01
6.652705375e-01,9.39736e-02,9.99999e-01,9.39736e-02,9.99999e-01
6.685968902e-01,9.84672e-02,9.99999e-01,9.84672e-02,9.99999e-01
6.719398746e-01,1.03081e-01,9.99999e-01,1.03081e-01,9.99999e-01
6.752995740e-01,1.07812e-01,9.99999e-01,1.07812e-01,9.99999e-01
6.786760719e-01,1.12662e-01,9.99999e-01,1.12662e-01,9.99999e-01
6.820694522e-01,1.17627e-01,9.99999e-01,1.17627e-01,9.99999e-01
6.854797995e-01,1.22706e-01,9.99999e-01,1.22706e-01,9.99999e-01
6.889071985e-01,1.27898e-01,9.99999e-01,1.27898e-01,9.99999e-01
6.923517345e-01,1.33200e-01,9.99999e-01,1.33200e-01,9.99999e-01
6.958134932e-01,1.38611e-01,9.99999e-01,1.38611e-01,9.99999e-01
6.992925606e-01,1.44128e-01,9.99999e-01,1.44128e-01,9.99999e-01
7.027890234e-01,1.49750e-01,9.99999e-01,1.49750e-01,9.99999e-01
7.063029686e-01,1.55473e-01,9.99999e-01,1.55473e-01,9.99999e-01
7.098344834e-01,1.61295e-01,9.99999e-01,1.61295e-01,9.99999e-01
7.133836558e-01,1.67214e-01,9.99999e-01,1.67214e-01,9.99999e-01
7.169505741e-01,1.73227e-01,9.99999e-01,1.73227e-01,9.99999e-01
7.205353270e-01,1.79331e-01,9.99999e-01,1.79331e-01,9.99999e-01
7.241380036e-01,1.85522e-01,9.99999e-01,1.85522e-01,9.99999e-01
7.277586936e-01,1.91799e-01,9.99999e-01,1.91799e-01,9.99999e-01
7.313974871e-01,1.98159e-01,9.99999e-01,1.98159e-01,9.99999e-01
7.350544745e-01,2.04597e-01,9.99999e-01,2.04597e-01,9.99999e-01
7.387297469e-01,2.11111e-01,9.99999e-01,2.11111e-01,9.99999e-01
7.424233956e-01,2.17697e-01,9.99999e-01,2.17697e-01,9.99999e-01
7.461355126e-01,2.24353e-01,9.99999e-01,2.24353e-01,9.99999e-01
7.498661902e-01,2.31075e-01,9.99999e-01,2.31075e-01,9.99999e-01
7.536155211e-01,2.37859e-01,9.99999e-01,2.37859e-01,9.99999e-01
7.573835987e-01,2.44703e-01,9.99999e-01,2.44703e-01,9.99999e-01
7.611705167e-01,2.51603e-01,9.99999e-01,2.51603e-01,9.99999e-01
7.649763693e-01,2.58555e-01,9.99999e-01,2.58555e-01,9.99999e-01
7.688012511e-01,2.65556e-01,9.99999e-01,2.65556e-01,9.99999e-01
7.726452574e-01,2.72603e-01,9.99999e-01,2.72603e-01,9.99999e-01
7.765084837e-01,2.79692e-01,9.99999e-01,2.79692e-01,9.99999e-01
7.803910261e-01,2.71056e-01,9.45038e-01,2.86820e-01,9.99999e-01
7.842929812e-01,2.27135e-01,7.72612e-01,2.93983e-01,9.99999e-01
7.882144461e-01,2.28727e-01,7.59438e-01,3.01179e-01,9.99999e-01
7.921555184e-01,2.61802e-01,8.48892e-01,3.08404e-01,9.99999e-01
7.961162960e-01,2.82780e-01,8.95856e-01,3.15653e-01,9.99999e-01
8.000968774e-01,3.04222e-01,9.42079e-01,3.22925e-01,9.99999e-01
8.040973618e-01,3.20169e-01,9.69572e-01,3.30216e-01,9.99999e-01
8.081178486e-01,3.32765e-01,9.85900e-01,3.37523e-01,9.99999e-01
8.121584379e-01,3.43337e-01,9.95632e-01,3.44843e-01,9.99999e-01
8.162192301e-01,3.51831e-01,9.99034e-01,3.52171e-01,9.99999e-01
8.203003262e-01,3.59501e-01,9.99985e-01,3.59506e-01,9.99999e-01
8.244018279e-01,3.66845e-01,9.99999e-01,3.66845e-01,9.99999e-01
8.285238370e-01,3.74184e-01,9.99999e-01,3.74184e-01,9.99999e-01
8.326664562e-01,3.81520e-01,9.99999e-01,3.81520e-01,9.99999e-01
8.368297885e-01,3.88851e-01,9.99999e-01,3.88851e-01,9.99999e-01
8.410139374e-01,3.96175e-01,9.99999e-01,3.96175e-01,9.99999e-01
8.452190071e-01,4.03487e-01,9.99999e-01,4.03487e-01,9.99999e-01
8.494451021e-01,4.10786e-01,9.99999e-01,4.10786e-01,9.99999e-01
8.536923276e-01,4.18068e-01,9.99999e-01,4.18068e-01,9.99999e-01
8.579607893e-01,4.25332e-01,9.99999e-01,4.25332e-01,9.99999e-01
8.622505932e-01,4.32576e-01,9.99999e-01,4.32576e-01,9.99999e-01
8.665618462e-01,3.95146e-01,8.98476e-01,4.39795e-01,9.99999e-01
8.708946554e-01,2.34201e-01,5.23951e-01,4.46990e-01,9.99999e-01
8.752491287e-01,2.67955e-01,5.90006e-01,4.54156e-01,9.99999e-01
8.796253743e-01,3.44091e-01,7.45928e-01,4.61292e-01,9.99999e-01
8.840235012e-01,4.01918e-01,8.58072e-01,4.68396e-01,9.99999e-01
8.884436187e-01,4.47588e-01,9.41367e-01,4.75466e-01,9.99999e-01
8.928858368e-01,4.70821e-01,9.75794e-01,4.82500e-01,9.99999e-01
8.973502660e-01,4.86596e-01,9.94075e-01,4.89496e-01,9.99999e-01
9.018370173e-01,4.96127e-01,9.99345e-01,4.96452e-01,9.99999e-01
9.063462024e-01,4.94977e-01,9.83333e-01,5.03366e-01,9.99999e-01
9.108779334e-01,4.90897e-01,9.62094e-01,5.10238e-01,9.99999e-01
9.154323231e-01,5.12405e-01,9.90986e-01,5.17065e-01,9.99999e-01
9.200094847e-01,4.61834e-01,8.81622e-01,5.23845e-01,9.99999e-01
9.246095321e-01,4.39309e-01,8.27980e-01,5.30578e-01,9.99999e-01
9.292325798e-01,4.63720e-01,8.63116e-01,5.37262e-01,9.99999e-01
9.338787427e-01,4.71573e-01,8.67027e-01,5.43896e-01,9.99999e-01
9.385481364e-01,4.95519e-01,9.00160e-01,5.50478e-01,9.99999e-01
9.432408771e-01,5.22224e-01,9.37552e-01,5.57008e-01,9.99999e-01
9.479570815e-01,5.45135e-01,9.67437e-01,5.63483e-01,9.99999e-01
9.526968669e-01,5.60887e-01,9.84178e-01,5.69904e-01,9.99999e-01
9.574603512e-01,5.72353e-01,9.93203e-01,5.76269e-01,9.99999e-01
9.622476530e-01,5.81340e-01,9.97875e-01,5.82577e-01,9.99999e-01
9.670588912e-01,5.88453e-01,9.99363e-01,5.88828e-01,9.99999e-01
9.718941857e-01,5.94993e-01,9.99954e-01,5.95020e-01,9.99999e-01
9.767536566e-01,6.01153e-01,9.99999e-01,6.01153e-01,9.99999e-01
9.816374249e-01,6.07226e-01,9.99999e-01,6.07226e-01,9.99999e-01
9.865456120e-01,6.13239e-01,9.99999e-01,6.13239e-01,9.99999e-01
9.914783401e-01,6.19191e-01,9.99999e-01,6.19191e-01,9.99999e-01
9.964357318e-01,6.25082e-01,9.99999e-01,6.25082e-01,9.99999e-01
1.001417910e+00,6.30910e-01,9.99999e-01,6.30910e-01,9.99999e-01
1.006425000e+00,6.36676e-01,9.99999e-01,6.36676e-01,9.99999e-01
1.011457125e+00,6.42380e-01,9.99999e-01,6.42380e-01,9.99999e-01
1.016514411e+00,6.48020e-01,9.99999e-01,6.48020e-01,9.99999e-01
1.021596983e+00,6.53538e-01,9.99908e-01,6.53597e-01,9.99999e-01
1.026704968e+00,6.54785e-01,9.93437e-01,6.59110e-01,9.99999e-01
1.031838492e+00,6.21172e-01,9.34711e-01,6.64560e-01,9.99999e-01
1.036997685e+00,6.10517e-02,9.11292e-02,6.69945e-01,9.99999e-01
1.042182673e+00,2.05704e-02,3.04627e-02,6.75267e-01,9.99999e-01
1.047393587e+00,3.43789e-02,5.05182e-02,6.80525e-01,9.99999e-01
1.052630555e+00,1.17460e-04,1.71295e-04,6.85718e-01,9.99999e-01
1.057893707e+00,3.90497e-04,5.65243e-04,6.90847e-01,9.99999e-01
1.063183176e+00,2.65173e-03,3.81043e-03,6.95913e-01,9.99999e-01
1.068499092e+00,1.25734e-02,1.79386e-02,7.00914e-01,9.99999e-01
1.073841587e+00,5.47568e-02,7.75755e-02,7.05851e-01,9.99999e-01
1.079210795e+00,1.41014e-01,1.98408e-01,7.10725e-01,9.99999e-01
1.084606849e+00,2.90648e-01,4.06197e-01,7.15535e-01,9.99999e-01
1.090029883e+00,4.50377e-01,6.25279e-01,7.20281e-01,9.99999e-01
1.095480033e+00,5.75062e-01,7.93227e-01,7.24964e-01,9.99999e-01
1.100957433e+00,6.52395e-01,8.94199e-01,7.29585e-01,9.99999e-01
1.106462220e+00,7.00957e-01,9.54795e-01,7.34143e-01,9.99999e-01
1.111994531e+00,7.26077e-01,9.82993e-01,7.38638e-01,9.99999e-01
1.117554504e+00,7.39970e-01,9.95826e-01,7.43071e-01,9.99999e-01
1.123142276e+00,7.47238e-01,9.99725e-01,7.47443e-01,9.99999e-01
1.128757988e+00,7.51753e-01,9.99999e-01,7.51753e-01,9.99999e-01
1.134401778e+00,7.56002e-01,9.99999e-01,7.56002e-01,9.99999e-01
1.140073787e+00,7.60190e-01,9.99999e-01,7.60190e-01,9.99999e-01
1.145774156e+00,7.64318e-01,9.99999e-01,7.64318e-01,9.99999e-01
1.151503026e+00,7.68387e-01,9.99999e-01,7.68387e-01,9.99999e-01
1.157260541e+00,7.72396e-01,9.99999e-01,7.72396e-01,9.99999e-01
1.163046844e+00,7.76346e-01,9.99999e-01,7.76346e-01,9.99999e-01
1.168862078e+00,7.80238e-01,9.99999e-01,7.80238e-01,9.99999e-01
1.174706389e+00,7.84072e-01,9.99999e-01,7.84072e-01,9.99999e-01
1.180579921e+00,7.87848e-01,9.99999e-01,7.87848e-01,9.99999e-01
1.186482820e+00,7.91558e-01,9.99987e-01,7.91568e-01,9.99999e-01
1.192415234e+00,7.76961e-01,9.77025e-01,7.95231e-01,9.99999e-01
1.198377311e+00,4.34905e-01,5.44422e-01,7.98838e-01,9.99999e-01
1.204369197e+00,6.11371e-18,7.61937e-18,8.02390e-01,9.99999e-01
1.210391043e+00,1.16677e-69,1.44781e-69,8.05887e-01,9.99999e-01
1.216442998e+00,2.06469e-60,2.55111e-60,8.09329e-01,9.99999e-01
1.222525213e+00,1.61187e-59,1.98331e-59,8.12718e-01,9.99999e-01
1.228637839e+00,4.71640e-46,5.77951e-46,8.16054e-01,9.99999e-01
1.234781029e+00,4.51039e-29,5.50492e-29,8.19337e-01,9.99999e-01
1.240954934e+00,1.83374e-19,2.22929e-19,8.22568e-01,9.99999e-01
1.247159708e+00,5.90255e-10,7.14811e-10,8.25748e-01,9.99999e-01
1.253395507e+00,1.18855e-06,1.43392e-06,8.28877e-01,9.99999e-01
1.259662485e+00,3.73240e-04,4.48629e-04,8.31955e-01,9.99999e-01
1.265960797e+00,1.04360e-02,1.24984e-02,8.34984e-01,9.99999e-01
1.272290601e+00,1.20646e-01,1.43975e-01,8.37964e-01,9.99999e-01
1.278652054e+00,1.03266e-01,1.22805e-01,8.40895e-01,9.99999e-01
1.285045314e+00,6.68902e-04,7.92745e-04,8.43778e-01,9.99999e-01
1.291470541e+00,1.03923e-08,1.22751e-08,8.46614e-01,9.99999e-01
1.297927893e+00,2.77447e-04,3.26638e-04,8.49403e-01,9.99999e-01
1.304417533e+00,2.45264e-02,2.87819e-02,8.52146e-01,9.99999e-01
1.310939621e+00,5.72778e-03,6.70038e-03,8.54843e-01,9.99999e-01
1.317494319e+00,3.38304e-24,3.94525e-24,8.57496e-01,9.99999e-01
1.324081790e+00,3.23812e-16,3.76480e-16,8.60104e-01,9.99999e-01
1.330702199e+00,1.27019e-09,1.47240e-09,8.62668e-01,9.99999e-01
1.337355710e+00,4.56438e-09,5.27559e-09,8.65189e-01,9.99999e-01
1.344042489e+00,1.76226e-09,2.03103e-09,8.67667e-01,9.99999e-01
1.350762701e+00,7.04185e-10,8.09311e-10,8.70103e-01,9.99999e-01
1.357516515e+00,2.11350e-06,2.42236e-06,8.72498e-01,9.99999e-01
1.364304097e+00,1.26804e-04,1.44943e-04,8.74851e-01,9.99999e-01
1.371125618e+00,9.31594e-03,1.06205e-02,8.77165e-01,9.99999e-01
1.377981246e+00,1.89616e-02,2.15610e-02,8.79439e-01,9.99999e-01
1.384871152e+00,9.44874e-02,1.07168e-01,8.81673e-01,9.99999e-01
1.391795508e+00,1.12312e-01,1.27069e-01,8.83869e-01,9.99999e-01
1.398754485e+00,2.45539e-01,2.77123e-01,8.86027e-01,9.99999e-01
1.405748258e+00,3.46785e-01,3.90458e-01,8.88147e-01,9.99999e-01
1.412776999e+00,4.90515e-01,5.50998e-01,8.90230e-01,9.99999e-01
1.419840884e+00,4.40878e-01,4.94103e-01,8.92277e-01,9.99999e-01
1.426940089e+00,2.60776e-02,2.91601e-02,8.94289e-01,9.99999e-01
1.434074789e+00,0.00000e+00,0.00000e+00,8.96264e-01,9.99999e-01
1.441245163e+00,0.00000e+00,0.00000e+00,8.98205e-01,9.99999e-01
1.448451389e+00,0.00000e+00,0.00000e+00,9.00112e-01,9.99999e-01
1.455693646e+00,0.00000e+00,0.00000e+00,9.01985e-01,9.99999e-01
1.462972114e+00,7.30665e-276,8.08413e-276,9.03825e-01,9.99999e-01
1.470286975e+00,7.78590e-115,8.59720e-115,9.05632e-01,9.99999e-01
1.477638409e+00,2.16887e-72,2.39019e-72,9.07407e-01,9.99999e-01
1.485026601e+00,1.43582e-40,1.57930e-40,9.09150e-01,9.99999e-01
1.492451734e+00,1.41469e-34,1.55313e-34,9.10862e-01,9.99999e-01
1.499913993e+00,2.27988e-15,2.49838e-15,9.12543e-01,9.99999e-01
1.507413563e+00,3.89776e-14,4.26360e-14,9.14194e-01,9.99999e-01
1.514950631e+00,1.43291e-15,1.56462e-15,9.15816e-01,9.99999e-01
1.522525384e+00,1.25788e-51,1.37112e-51,9.17408e-01,9.99999e-01
1.530138011e+00,1.66407e-122,1.81080e-122,9.18971e-01,9.99999e-01
1.537788701e+00,9.08748e-91,9.87225e-91,9.20506e-01,9.99999e-01
1.545477645e+00,1.29335e-19,1.40275e-19,9.22014e-01,9.99999e-01
1.553205033e+00,3.55398e-14,3.84841e-14,9.23493e-01,9.99999e-01
1.560971058e+00,1.34964e-14,1.45915e-14,9.24946e-01,9.99999e-01
1.568775913e+00,1.23484e-309,1.33298e-309,9.26373e-01,9.99999e-01
1.576619793e+00,0.00000e+00,0.00000e+00,9.27773e-01,9.99999e-01
1.584502892e+00,0.00000e+00,0.00000e+00,9.29148e-01,9.99999e-01
1.592425406e+00,5.57444e-276,5.99080e-276,9.30498e-01,9.99999e-01
1.600387533e+00,0.00000e+00,0.00000e+00,9.31823e-01,9.99999e-01
1.608389471e+00,0.00000e+00,0.00000e+00,9.33123e-01,9.99999e-01
1.616431418e+00,0.00000e+00,0.00000e+00,9.34400e-01,9.99999e-01
1.624513575e+00,0.00000e+00,0.00000e+00,9.35653e-01,9.99999e-01
1.632636143e+00,2.34596e-260,2.50400e-260,9.36883e-01,9.99999e-01
1.640799324e+00,1.97794e-106,2.10847e-106,9.38090e-01,9.99999e-01
1.649003321e+00,1.98035e-106,2.10837e-106,9.39275e-01,9.99999e-01
1.657248337e+00,2.26975e-82,2.41350e-82,9.40438e-01,9.99999e-01
1.665534579e+00,6.44028e-83,6.83986e-83,9.41580e-01,9.99999e-01
1.673862252e+00,4.59563e-53,4.87496e-53,9.42700e-01,9.99999e-01
1.682231563e+00,6.49976e-37,6.88679e-37,9.43799e-01,9.99999e-01
1.690642721e+00,9.33047e-21,9.87477e-21,9.44878e-01,9.99999e-01
1.699095934e+00,2.33902e-13,2.47270e-13,9.45937e-01,9.99999e-01
1.707591414e+00,3.45491e-07,3.64836e-07,9.46976e-01,9.99999e-01
1.716129371e+00,1.86700e-04,1.96941e-04,9.47996e-01,9.99999e-01
1.724710018e+00,7.54358e-03,7.94900e-03,9.48996e-01,9.99999e-01
1.733333568e+00,3.92198e-02,4.12850e-02,9.49978e-01,9.99999e-01
1.742000236e+00,1.46186e-01,1.53728e-01,9.50941e-01,9.99999e-01
1.750710237e+00,1.39809e-03,1.46875e-03,9.51887e-01,9.99999e-01
1.759463788e+00,1.12505e-50,1.18076e-50,9.52814e-01,9.99999e-01
1.768261107e+00,4.89437e-53,5.13184e-53,9.53724e-01,9.99999e-01
1.777102413e+00,1.51809e-51,1.59025e-51,9.54617e-01,9.99999e-01
1.785987925e+00,1.95638e-48,2.04750e-48,9.55493e-01,9.99999e-01
1.794917864e+00,2.92426e-46,3.05772e-46,9.56353e-01,9.99999e-01
1.803892454e+00,1.67310e-44,1.74792e-44,9.57197e-01,9.99999e-01
1.812911916e+00,9.32465e-43,9.73320e-43,9.58024e-01,9.99999e-01
1.821976476e+00,7.88632e-43,8.22488e-43,9.58836e-01,9.99999e-01
1.831086358e+00,1.70052e-34,1.77206e-34,9.59632e-01,9.99999e-01
1.840241790e+00,2.12024e-29,2.20763e-29,9.60414e-01,9.99999e-01
1.849442999e+00,1.73483e-20,1.80490e-20,9.61180e-01,9.99999e-01
1.858690214e+00,3.33547e-19,3.46746e-19,9.61932e-01,9.99999e-01
1.867983665e+00,7.03631e-20,7.30915e-20,9.62670e-01,9.99999e-01
1.877323583e+00,2.01989e-96,2.09664e-96,9.63393e-01,9.99999e-01
