#,Wave/freq,Total,CO2,Rayleigh,CIA
4.000000000e-01,6.44201e-12,9.99999e-01,6.44201e-12,9.99999e-01
4.020000000e-01,1.07226e-11,9.99999e-01,1.07226e-11,9.99999e-01
4.040100000e-01,1.76595e-11,9.99999e-01,1.76595e-11,9.99999e-01
4.060300500e-01,2.87989e-11,9.99999e-01,2.87989e-11,9.99999e-01
4.080602003e-01,4.65136e-11,9.99999e-01,4.65136e-11,9.99999e-01
4.101005013e-01,7.44168e-11,9.99999e-01,7.44168e-11,9.99999e-01
4.121510038e-01,1.17959e-10,9.99999e-01,1.17959e-10,9.99999e-01
4.142117588e-01,1.85284e-10,9.99999e-01,1.85284e-10,9.99999e-01
4.162828176e-01,2.88451e-10,9.99999e-01,2.88451e-10,9.99999e-01
4.183642317e-01,4.45153e-10,9.99999e-01,4.45153e-10,9.99999e-01
4.204560528e-01,6.81122e-10,9.99999e-01,6.81122e-10,9.99999e-01
4.225583331e-01,1.03345e-09,9.99999e-01,1.03345e-09,9.99999e-01
4.246711247e-01,1.55518e-09,9.99999e-01,1.55518e-09,9.99999e-01
4.267944804e-01,2.32148e-09,9.99999e-01,2.32148e-09,9.99999e-01
4.289284528e-01,3.43806e-09,9.99999e-01,3.43806e-09,9.99999e-01
4.310730950e-01,5.05233e-09,9.99999e-01,5.05233e-09,9.99999e-01
4.332284605e-01,7.36832e-09,9.99999e-01,7.36832e-09,9.99999e-01
4.353946028e-01,1.06662e-08,9.99999e-01,1.06662e-08,9.99999e-01
4.375715758e-01,1.53276e-08,9.99999e-01,1.53276e-08,9.99999e-01
4.397594337e-01,2.18691e-08,9.99999e-01,2.18691e-08,9.99999e-01
4.419582309e-01,3.09840e-08,9.99999e-01,3.09840e-08,9.99999e-01
4.441680220e-01,4.35970e-08,9.99999e-01,4.35970e-08,9.99999e-01
4.463888621e-01,6.09320e-08,9.99999e-01,6.09320e-08,9.99999e-01
4.486208064e-01,8.45985e-08,9.99999e-01,8.45985e-08,9.99999e-01
4.508639105e-01,1.16698e-07,9.99999e-01,1.16698e-07,9.99999e-01
4.531182300e-01,1.59959e-07,9.99999e-01,1.59959e-07,9.99999e-01
4.553838212e-01,2.17894e-07,9.99999e-01,2.17894e-07,9.99999e-01
4.576607403e-01,2.95006e-07,9.99999e-01,2.95006e-07,9.99999e-01
4.599490440e-01,3.97026e-07,9.99999e-01,3.97026e-07,9.99999e-01
4.622487892e-01,5.31200e-07,9.99999e-01,5.31200e-07,9.99999e-01
4.645600332e-01,7.06642e-07,9.99999e-01,7.06642e-07,9.99999e-01
4.668828333e-01,9.34745e-07,9.99999e-01,9.34745e-07,9.99999e-01
4.692172475e-01,1.22966e-06,9.99999e-01,1.22966e-06,9.99999e-01
4.715633337e-01,1.60890e-06,9.99999e-01,1.60890e-06,9.99999e-01
4.739211504e-01,2.09394e-06,9.99999e-01,2.09394e-06,9.99999e-01
4.762907561e-01,2.71106e-06,9.99999e-01,2.71106e-06,9.99999e-01
4.786722099e-01,3.49219e-06,9.99999e-01,3.49219e-06,9.99999e-01
4.810655710e-01,4.47595e-06,9.99999e-01,4.47595e-06,9.99999e-01
4.834708988e-01,5.70878e-06,9.99999e-01,5.70878e-06,9.99999e-01
4.858882533e-01,7.24627e-06,9.99999e-01,7.24627e-06,9.99999e-01
4.883176946e-01,9.15462e-06,9.99999e-01,9.15462e-06,9.99999e-01
4.907592831e-01,1.15122e-05,9.99999e-01,1.15122e-05,9.99999e-01
4.932130795e-01,1.44117e-05,9.99999e-01,1.44117e-05,9.99999e-01
4.956791449e-01,1.79615e-05,9.99999e-01,1.79615e-05,9.99999e-01
4.981575406e-01,2.22885e-05,9.99999e-01,2.22885e-05,9.99999e-01
5.006483283e-01,2.75402e-05,9.99999e-01,2.75402e-05,9.99999e-01
5.031515699e-01,3.38875e-05,9.99999e-01,3.38875e-05,9.99999e-01
5.056673278e-01,4.15271e-05,9.99999e-01,4.15271e-05,9.99999e-01
5.081956644e-01,5.06852e-05,9.99999e-01,5.06852e-05,9.99999e-01
5.107366428e-01,6.16198e-05,9.99999e-01,6.16198e-05,9.99999e-01
5.132903260e-01,7.46249e-05,9.99999e-01,7.46249e-05,9.99999e-01
5.158567776e-01,9.00335e-05,9.99999e-01,9.00335e-05,9.99999e-01
5.184360615e-01,1.08222e-04,9.99999e-01,1.08222e-04,9.99999e-01
5.210282418e-01,1.29613e-04,9.99999e-01,1.29613e-04,9.99999e-01
5.236333830e-01,1.54679e-04,9.99999e-01,1.54679e-04,9.99999e-01
5.262515499e-01,1.83950e-04,9.99999e-01,1.83950e-04,9.99999e-01
5.288828077e-01,2.18012e-04,9.99999e-01,2.18012e-04,9.99999e-01
5.315272217e-01,2.57517e-04,9.99999e-01,2.57517e-04,9.99999e-01
5.341848578e-01,3.03180e-04,9.99999e-01,3.03180e-04,9.99999e-01
5.368557821e-01,3.55792e-04,9.99999e-01,3.55792e-04,9.99999e-01
5.395400610e-01,4.16216e-04,9.99999e-01,4.16216e-04,9.99999e-01
5.422377613e-01,4.85395e-04,9.99999e-01,4.85395e-04,9.99999e-01
5.449489501e-01,5.64356e-04,9.99999e-01,5.64356e-04,9.99999e-01
5.476736949e-01,6.54211e-04,9.99999e-01,6.54211e-04,9.99999e-01
5.504120634e-01,7.56163e-04,9.99999e-01,7.56163e-04,9.99999e-01
5.531641237e-01,8.71506e-04,9.99999e-01,8.71506e-04,9.99999e-01
5.559299443e-01,1.00163e-03,9.99999e-01,1.00163e-03,9.99999e-01
5.587095940e-01,1.14802e-03,9.99999e-01,1.14802e-03,9.99999e-01
5.615031420e-01,1.31227e-03,9.99999e-01,1.31227e-03,9.99999e-01
5.643106577e-01,1.49607e-03,9.99999e-01,1.49607e-03,9.99999e-01
5.671322110e-01,1.70119e-03,9.99999e-01,1.70119e-03,9.99999e-01
5.699678720e-01,1.92953e-03,9.99999e-01,1.92953e-03,9.99999e-01
5.728177114e-01,2.18309e-03,9.99999e-01,2.18309e-03,9.99999e-01
5.756818000e-01,2.46394e-03,9.99999e-01,2.46394e-03,9.99999e-01
5.785602090e-01,2.77429e-03,9.99999e-01,2.77429e-03,9.99999e-01
5.814530100e-01,3.11642e-03,9.99999e-01,3.11642e-03,9.99999e-01
5.843602750e-01,3.49271e-03,9.99999e-01,3.49271e-03,9.99999e-01
5.872820764e-01,3.90564e-03,9.99999e-01,3.90564e-03,9.99999e-01
5.902184868e-01,4.35774e-03,9.99999e-01,4.35774e-03,9.99999e-01
5.931695792e-01,4.85168e-03,9.99999e-01,4.85168e-03,9.99999e-01
5.961354271e-01,5.39016e-03,9.99999e-01,5.39016e-03,9.99999e-01
5.991161043e-01,5.97596e-03,9.99999e-01,5.97596e-03,9.99999e-01
6.021116848e-01,6.61195e-03,9.99999e-01,6.61195e-03,9.99999e-01
6.051222432e-01,7.30102e-03,9.99999e-01,7.30102e-03,9.99999e-01
6.081478544e-01,8.04613e-03,9.99999e-01,8.04613e-03,9.99999e-01
6.111885937e-01,8.85027e-03,9.99999e-01,8.85027e-03,9.99999e-01
6.142445367e-01,9.71649e-03,9.99999e-01,9.71649e-03,9.99999e-01
6.173157594e-01,1.06478e-02,9.99999e-01,1.06478e-02,9.99999e-01
6.204023382e-01,1.16474e-02,9.99999e-01,1.16474e-02,9.99999e-01
6.235043498e-01,1.27182e-02,9.99999e-01,1.27182e-02,9.99999e-01
6.266218716e-01,1.38633e-02,9.99999e-01,1.38633e-02,9.99999e-01
6.297549810e-01,1.50858e-02,9.99999e-01,1.50858e-02,9.99999e-01
6.329037559e-01,1.63888e-02,9.99999e-01,1.63888e-02,9.99999e-01
6.360682746e-01,1.77752e-02,9.99999e-01,1.77752e-02,9.99999e-01
6.392486160e-01,1.92480e-02,9.99999e-01,1.92480e-02,9.99999e-01
6.424448591e-01,2.08100e-02,9.99999e-01,2.08100e-02,9.99999e-01
6.456570834e-01,2.24642e-02,9.99999e-01,2.24642e-02,9.99999e-01
6.488853688e-01,2.42132e-02,9.99999e-01,2.42132e-02,9.99999e-01
6.521297956e-01,2.60598e-02,9.99999e-01,2.60598e-02,9.99999e-01
6.553904446e-01,2.80066e-02,9.99999e-01,2.80066e-02,9.99999e-01
6.586673968e-01,3.00560e-02,9.99999e-01,3.00560e-02,9.99999e-01
6.619607338e-01,3.22103e-02,9.99999e-01,3.22103e-02,9.99999e-01
6.652705375e-01,3.44720e-02,9.99999e-01,3.44720e-02,9.99999e-01
6.685968902e-01,3.68430e-02,9.99999e-01,3.68430e-02,9.99999e-01
6.719398746e-01,3.93254e-02,9.99999e-01,3.93254e-02,9.99999e-01
6.752995740e-01,4.19210e-02,9.99999e-01,4.19210e-02,9.99999e-01
6.786760719e-01,4.46315e-02,9.99999e-01,4.46315e-02,9.99999e-01
6.820694522e-01,4.74586e-02,9.99999e-01,4.74586e-02,9.99999e-01
6.854797995e-01,5.04035e-02,9.99999e-01,5.04035e-02,9.99999e-01
6.889071985e-01,5.34676e-02,9.99999e-01,5.34676e-02,9.99999e-01
6.923517345e-01,5.66518e-02,9.99999e-01,5.66518e-02,9.99999e-01
6.958134932e-01,5.99571e-02,9.99999e-01,5.99571e-02,9.99999e-01
6.992925606e-01,6.33843e-02,9.99999e-01,6.33843e-02,9.99999e-01
7.027890234e-01,6.69338e-02,9.99999e-01,6.69338e-02,9.99999e-01
7.063029686e-01,7.06060e-02,9.99999e-01,7.06060e-02,9.99999e-01
7.098344834e-01,7.44012e-02,9.99999e-01,7.44012e-02,9.99999e-01
7.133836558e-01,7.83193e-02,9.99999e-01,7.83193e-02,9.99999e-01
7.169505741e-01,8.23603e-02,9.99999e-01,8.23603e-02,9.99999e-01
7.205353270e-01,8.65237e-02,9.99999e-01,8.65237e-02,9.99999e-01
7.241380036e-01,9.08091e-02,9.99999e-01,9.08091e-02,9.99999e-01
7.277586936e-01,9.52158e-02,9.99999e-01,9.52158e-02,9.99999e-01
7.313974871e-01,9.97429e-02,9.99999e-01,9.97429e-02,9.99999e-01
7.350544745e-01,1.04389e-01,9.99999e-01,1.04389e-01,9.99999e-01
7.387297469e-01,1.09154e-01,9.99999e-01,1.09154e-01,9.99999e-01
7.424233956e-01,1.14036e-01,9.99999e-01,1.14036e-01,9.99999e-01
7.461355126e-01,1.19033e-01,9.99999e-01,1.19033e-01,9.99999e-01
7.498661902e-01,1.24144e-01,9.99999e-01,1.24144e-01,9.99999e-01
7.536155211e-01,1.29367e-01,9.99999e-01,1.29367e-01,9.99999e-01
7.573835987e-01,1.34700e-01,9.99999e-01,1.34700e-01,9.99999e-01
7.611705167e-01,1.40140e-01,9.99999e-01,1.40140e-01,9.99999e-01
7.649763693e-01,1.45687e-01,9.99999e-01,1.45687e-01,9.99999e-01
7.688012511e-01,1.51337e-01,9.99999e-01,1.51337e-01,9.99999e-01
7.726452574e-01,1.57088e-01,9.99999e-01,1.57088e-01,9.99999e-01
7.765084837e-01,1.62938e-01,9.99999e-01,1.62938e-01,9.99999e-01
7.803910261e-01,1.56646e-01,9.27541e-01,1.68883e-01,9.99999e-01
7.842929812e-01,1.21943e-01,6.97130e-01,1.74921e-01,9.99999e-01
7.882144461e-01,1.23535e-01,6.82323e-01,1.81050e-01,9.99999e-01
7.921555184e-01,1.48528e-01,7.93137e-01,1.87266e-01,9.99999e-01
7.961162960e-01,1.65523e-01,8.55123e-01,1.93566e-01,9.99999e-01
8.000968774e-01,1.83670e-01,9.18588e-01,1.99948e-01,9.99999e-01
8.040973618e-01,1.97510e-01,9.56895e-01,2.06407e-01,9.99999e-01
8.081178486e-01,2.08677e-01,9.79971e-01,2.12942e-01,9.99999e-01
8.121584379e-01,2.18180e-01,9.93768e-01,2.19548e-01,9.99999e-01
8.162192301e-01,2.25911e-01,9.98620e-01,2.26223e-01,9.99999e-01
8.203003262e-01,2.32957e-01,9.99978e-01,2.32962e-01,9.99999e-01
8.244018279e-01,2.39764e-01,9.99999e-01,2.39764e-01,9.99999e-01
8.285238370e-01,2.46623e-01,9.99999e-01,2.46623e-01,9.99999e-01
8.326664562e-01,2.53538e-01,9.99999e-01,2.53538e-01,9.99999e-01
8.368297885e-01,2.60504e-01,9.99999e-01,2.60504e-01,9.99999e-01
8.410139374e-01,2.67518e-01,9.99999e-01,2.67518e-01,9.99999e-01
8.452190071e-01,2.74577e-01,9.99999e-01,2.74577e-01,9.99999e-01
8.494451021e-01,2.81678e-01,9.99999e-01,2.81678e-01,9.99999e-01
8.536923276e-01,2.88816e-01,9.99999e-01,2.88816e-01,9.99999e-01
8.579607893e-01,2.95989e-01,9.99999e-01,2.95989e-01,9.99999e-01
8.622505932e-01,3.03193e-01,9.99999e-01,3.03193e-01,9.99999e-01
8.665618462e-01,2.73589e-01,8.81337e-01,3.10425e-01,9.99999e-01
8.708946554e-01,1.30078e-01,4.09460e-01,3.17681e-01,9.99999e-01
8.752491287e-01,1.55344e-01,4.78041e-01,3.24959e-01,9.99999e-01
8.796253743e-01,2.19710e-01,6.61270e-01,3.32254e-01,9.99999e-01
8.840235012e-01,2.73233e-01,8.04656e-01,3.39565e-01,9.99999e-01
8.884436187e-01,3.18273e-01,9.17512e-01,3.46887e-01,9.99999e-01
8.928858368e-01,3.42060e-01,9.65675e-01,3.54218e-01,9.99999e-01
8.973502660e-01,3.58499e-01,9.91549e-01,3.61555e-01,9.99999e-01
9.018370173e-01,3.68549e-01,9.99065e-01,3.68893e-01,9.99999e-01
9.063462024e-01,3.67438e-01,9.76626e-01,3.76232e-01,9.99999e-01
9.108779334e-01,3.63034e-01,9.46468e-01,3.83567e-01,9.99999e-01
9.154323231e-01,3.85876e-01,9.87155e-01,3.90896e-01,9.99999e-01
9.200094847e-01,3.35813e-01,8.43291e-01,3.98217e-01,9.99999e-01
9.246095321e-01,3.10163e-01,7.64842e-01,4.05525e-01,9.99999e-01
9.292325798e-01,3.35556e-01,8.12838e-01,4.12820e-01,9.99999e-01
9.338787427e-01,3.43195e-01,8.16940e-01,4.20098e-01,9.99999e-01
9.385481364e-01,3.68028e-01,8.61172e-01,4.27356e-01,9.99999e-01
9.432408771e-01,3.96444e-01,9.12218e-01,4.34593e-01,9.99999e-01
9.479570815e-01,4.21455e-01,9.53935e-01,4.41806e-01,9.99999e-01
9.526968669e-01,4.38905e-01,9.77531e-01,4.48993e-01,9.99999e-01
9.574603512e-01,4.51737e-01,9.90324e-01,4.56151e-01,9.99999e-01
9.622476530e-01,4.61875e-01,9.96971e-01,4.63278e-01,9.99999e-01
9.670588912e-01,4.69946e-01,9.99091e-01,4.70373e-01,9.99999e-01
9.718941857e-01,4.77402e-01,9.99935e-01,4.77433e-01,9.99999e-01
9.767536566e-01,4.84456e-01,9.99999e-01,4.84456e-01,9.99999e-01
9.816374249e-01,4.91441e-01,9.99999e-01,4.91441e-01,9.99999e-01
9.865456120e-01,4.98386e-01,9.99999e-01,4.98386e-01,9.99999e-01
9.914783401e-01,5.05289e-01,9.99999e-01,5.05289e-01,9.99999e-01
9.964357318e-01,5.12148e-01,9.99999e-01,5.12148e-01,9.99999e-01
1.001417910e+00,5.18962e-01,9.99999e-01,5.18962e-01,9.99999e-01
1.006425000e+00,5.25729e-01,9.99999e-01,5.25729e-01,9.99999e-01
1.011457125e+00,5.32449e-01,9.99999e-01,5.32449e-01,9.99999e-01
1.016514411e+00,5.39119e-01,9.99999e-01,5.39119e-01,9.99999e-01
1.021596983e+00,5.45670e-01,9.99874e-01,5.45738e-01,9.99999e-01
1.026704968e+00,5.47195e-01,9.90745e-01,5.52306e-01,9.99999e-01
1.031838492e+00,5.13421e-01,9.18758e-01,5.58820e-01,9.99999e-01
1.036997685e+00,3.68414e-02,6.51735e-02,5.65281e-01,9.99999e-01
1.042182673e+00,5.13803e-03,8.98750e-03,5.71686e-01,9.99999e-01
1.047393587e+00,1.13516e-02,1.96382e-02,5.78035e-01,9.99999e-01
1.052630555e+00,6.09237e-06,1.04263e-05,5.84328e-01,9.99999e-01
1.057893707e+00,2.23628e-05,3.78670e-05,5.90562e-01,9.99999e-01
1.063183176e+00,3.05952e-04,5.12707e-04,5.96738e-01,9.99999e-01
1.068499092e+00,2.22644e-03,3.69316e-03,6.02854e-01,9.99999e-01
1.073841587e+00,1.68396e-02,2.76553e-02,6.08911e-01,9.99999e-01
1.079210795e+00,6.40847e-02,1.04218e-01,6.14907e-01,9.99999e-01
1.084606849e+00,1.73706e-01,2.79791e-01,6.20842e-01,9.99999e-01
1.090029883e+00,3.22048e-01,5.13867e-01,6.26715e-01,9.99999e-01
1.095480033e+00,4.55170e-01,7.19607e-01,6.32526e-01,9.99999e-01
1.100957433e+00,5.44370e-01,8.52877e-01,6.38275e-01,9.99999e-01
1.106462220e+00,6.02895e-01,9.36228e-01,6.43960e-01,9.99999e-01
1.111994531e+00,6.33896e-01,9.75850e-01,6.49583e-01,9.99999e-01
1.117554504e+00,6.51244e-01,9.94048e-01,6.55142e-01,9.99999e-01
1.123142276e+00,6.60379e-01,9.99607e-01,6.60638e-01,9.99999e-01
1.128757988e+00,6.66069e-01,9.99999e-01,6.66069e-01,9.99999e-01
1.134401778e+00,6.71437e-01,9.99999e-01,6.71437e-01,9.99999e-01
1.140073787e+00,6.76741e-01,9.99999e-01,6.76741e-01,9.99999e-01
1.145774156e+00,6.81981e-01,9.99999e-01,6.81981e-01,9.99999e-01
1.151503026e+00,6.87156e-01,9.99999e-01,6.87156e-01,9.99999e-01
1.157260541e+00,6.92268e-01,9.99999e-01,6.92268e-01,9.99999e-01
1.163046844e+00,6.97315e-01,9.99999e-01,6.97315e-01,9.99999e-01
1.168862078e+00,7.02298e-01,9.99999e-01,7.02298e-01,9.99999e-01
1.174706389e+00,7.07218e-01,9.99999e-01,7.07218e-01,9.99999e-01
1.180579921e+00,7.12074e-01,9.99999e-01,7.12074e-01,9.99999e-01
1.186482820e+00,7.16854e-01,9.99983e-01,7.16866e-01,9.99999e-01
1.192415234e+00,6.98584e-01,9.68111e-01,7.21595e-01,9.99999e-01
1.198377311e+00,3.84760e-01,5.29782e-01,7.26260e-01,9.99999e-01
1.204369197e+00,1.36693e-24,1.87029e-24,7.30863e-01,9.99999e-01
1.210391043e+00,3.10143e-98,4.21731e-98,7.35404e-01,9.99999e-01
1.216442998e+00,4.57302e-85,6.18074e-85,7.39881e-01,9.99999e-01
1.222525213e+00,8.52420e-84,1.14527e-83,7.44297e-01,9.99999e-01
1.228637839e+00,1.02008e-64,1.36255e-64,7.48652e-01,9.99999e-01
1.234781029e+00,1.92416e-40,2.55551e-40,7.52945e-01,9.99999e-01
1.240954934e+00,6.39985e-27,8.45225e-27,7.57177e-01,9.99999e-01
1.247159708e+00,3.18725e-13,4.18631e-13,7.61348e-01,9.99999e-01
1.253395507e+00,5.95881e-09,7.78460e-09,7.65460e-01,9.99999e-01
1.259662485e+00,1.88586e-05,2.45072e-05,7.69512e-01,9.99999e-01
1.265960797e+00,2.06353e-03,2.66777e-03,7.73504e-01,9.99999e-01
1.272290601e+00,5.15076e-02,6.62529e-02,7.77438e-01,9.99999e-01
1.278652054e+00,4.57479e-02,5.85525e-02,7.81314e-01,9.99999e-01
1.285045314e+00,1.08571e-04,1.38283e-04,7.85132e-01,9.99999e-01
1.291470541e+00,7.73880e-12,9.80970e-12,7.88892e-01,9.99999e-01
1.297927893e+00,2.19345e-05,2.76742e-05,7.92596e-01,9.99999e-01
1.304417533e+00,5.43159e-03,6.82151e-03,7.96243e-01,9.99999e-01
1.310939621e+00,1.33781e-03,1.67261e-03,7.99835e-01,9.99999e-01
1.317494319e+00,1.17784e-33,1.46612e-33,8.03371e-01,9.99999e-01
1.324081790e+00,3.10411e-22,3.84718e-22,8.06853e-01,9.99999e-01
1.330702199e+00,3.20297e-13,3.95290e-13,8.10281e-01,9.99999e-01
1.337355710e+00,3.17476e-12,3.90185e-12,8.13655e-01,9.99999e-01
1.344042489e+00,1.50226e-12,1.83880e-12,8.16976e-01,9.99999e-01
1.350762701e+00,1.66059e-13,2.02450e-13,8.20244e-01,9.99999e-01
1.357516515e+00,1.91464e-08,2.32511e-08,8.23461e-01,9.99999e-01
1.364304097e+00,3.55265e-06,4.29776e-06,8.26627e-01,9.99999e-01
1.371125618e+00,1.50826e-03,1.81774e-03,8.29741e-01,9.99999e-01
1.377981246e+00,3.70781e-03,4.45219e-03,8.32806e-01,9.99999e-01
1.384871152e+00,3.56156e-02,4.26115e-02,8.35821e-01,9.99999e-01
1.391795508e+00,4.56035e-02,5.43684e-02,8.38787e-01,9.99999e-01
1.398754485e+00,1.35675e-01,1.61191e-01,8.41705e-01,9.99999e-01
1.405748258e+00,2.22756e-01,2.63749e-01,8.44575e-01,9.99999e-01
1.412776999e+00,3.63174e-01,4.28576e-01,8.47397e-01,9.99999e-01
1.419840884e+00,3.34540e-01,3.93495e-01,8.50173e-01,9.99999e-01
1.426940089e+00,1.45796e-02,1.70940e-02,8.52903e-01,9.99999e-01
1.434074789e+00,0.00000e+00,0.00000e+00,8.55588e-01,9.99999e-01
1.441245163e+00,0.00000e+00,0.00000e+00,8.58228e-01,9.99999e-01
1.448451389e+00,0.00000e+00,0.00000e+00,8.60824e-01,9.99999e-01
1.455693646e+00,0.00000e+00,0.00000e+00,8.63376e-01,9.99999e-01
1.462972114e+00,0.00000e+00,0.00000e+00,8.65885e-01,9.99999e-01
1.470286975e+00,1.48827e-162,1.71390e-162,8.68351e-01,9.99999e-01
1.477638409e+00,4.03837e-102,4.63766e-102,8.70776e-01,9.99999e-01
1.485026601e+00,8.07355e-57,9.24636e-57,8.73159e-01,9.99999e-01
1.492451734e+00,2.11250e-48,2.41290e-48,8.75501e-01,9.99999e-01
1.499913993e+00,5.86778e-21,6.68461e-21,8.77804e-01,9.99999e-01
1.507413563e+00,1.02545e-19,1.16520e-19,8.80066e-01,9.99999e-01
1.514950631e+00,3.23725e-21,3.66914e-21,8.82290e-01,9.99999e-01
1.522525384e+00,1.47740e-72,1.67037e-72,8.84475e-01,9.99999e-01
1.530138011e+00,1.73216e-173,1.95366e-173,8.86622e-01,9.99999e-01
1.537788701e+00,2.70478e-128,3.04341e-128,8.88732e-01,9.99999e-01
1.545477645e+00,5.63129e-27,6.32157e-27,8.90805e-01,9.99999e-01
1.553205033e+00,1.12699e-19,1.26225e-19,8.92842e-01,9.99999e-01
1.560971058e+00,5.67863e-20,6.34594e-20,8.94844e-01,9.99999e-01
1.568775913e+00,0.00000e+00,0.00000e+00,8.96809e-01,9.99999e-01
1.576619793e+00,0.00000e+00,0.00000e+00,8.98741e-01,9.99999e-01
1.584502892e+00,0.00000e+00,0.00000e+00,9.00638e-01,9.99999e-01
1.592425406e+00,0.00000e+00,0.00000e+00,9.02502e-01,9.99999e-01
1.600387533e+00,0.00000e+00,0.00000e+00,9.04332e-01,9.99999e-01
1.608389471e+00,0.00000e+00,0.00000e+00,9.06130e-01,9.99999e-01
1.616431418e+00,0.00000e+00,0.00000e+00,9.07896e-01,9.99999e-01
1.624513575e+00,0.00000e+00,0.00000e+00,9.09631e-01,9.99999e-01
1.632636143e+00,0.00000e+00,0.00000e+00,9.11334e-01,9.99999e-01
1.640799324e+00,1.37288e-150,1.50369e-150,9.13007e-01,9.99999e-01
1.649003321e+00,1.37470e-150,1.50298e-150,9.14650e-01,9.99999e-01
1.657248337e+00,2.45493e-116,2.67929e-116,9.16263e-01,9.99999e-01
1.665534579e+00,4.08613e-117,4.45186e-117,9.17847e-01,9.99999e-01
1.673862252e+00,1.28694e-74,1.39975e-74,9.19402e-01,9.99999e-01
1.682231563e+00,1.28699e-51,1.39749e-51,9.20930e-01,9.99999e-01
1.690642721e+00,1.32355e-28,1.43486e-28,9.22429e-01,9.99999e-01
1.699095934e+00,2.94974e-18,3.19270e-18,9.23902e-01,9.99999e-01
1.707591414e+00,1.96212e-09,2.12041e-09,9.25347e-01,9.99999e-01
1.716129371e+00,7.98882e-06,8.62009e-06,9.26766e-01,9.99999e-01
1.724710018e+00,1.11788e-03,1.20440e-03,9.28160e-01,9.99999e-01
1.733333568e+00,1.05212e-02,1.13189e-02,9.29527e-01,9.99999e-01
1.742000236e+00,6.84268e-02,7.35083e-02,9.30870e-01,9.99999e-01
1.750710237e+00,2.81311e-04,3.01775e-04,9.32188e-01,9.99999e-01
1.759463788e+00,3.03874e-71,3.25527e-71,9.33482e-01,9.99999e-01
1.768261107e+00,1.45501e-74,1.55657e-74,9.34752e-01,9.99999e-01
1.777102413e+00,1.21680e-72,1.30000e-72,9.35999e-01,9.99999e-01
1.785987925e+00,5.10626e-68,5.44828e-68,9.37222e-01,9.99999e-01
1.794917864e+00,5.99520e-65,6.38858e-65,9.38423e-01,9.99999e-01
1.803892454e+00,2.06660e-62,2.19944e-62,9.39602e-01,9.99999e-01
1.812911916e+00,5.69976e-60,6.05867e-60,9.40759e-01,9.99999e-01
1.821976476e+00,4.97514e-60,5.28205e-60,9.41895e-01,9.99999e-01
1.831086358e+00,3.65683e-48,3.87783e-48,9.43009e-01,9.99999e-01
1.840241790e+00,5.09984e-41,5.40178e-41,9.44103e-01,9.99999e-01
1.849442999e+00,1.69078e-28,1.78885e-28,9.45176e-01,9.99999e-01
1.858690214e+00,8.10335e-27,8.56383e-27,9.46229e-01,9.99999e-01
1.867983665e+00,2.10640e-27,2.22367e-27,9.47263e-01,9.99999e-01
1.877323583e+00,2.40572e-136,2.53693e-136,9.48277e-01,9.99999e-01
