#,Wave/freq,Total,CO2,Rayleigh,CIA
4.000000000e-01,7.76517e-09,9.99999e-01,7.76517e-09,9.99999e-01
4.020000000e-01,1.12333e-08,9.99999e-01,1.12333e-08,9.99999e-01
4.040100000e-01,1.61261e-08,9.99999e-01,1.61261e-08,9.99999e-01
4.060300500e-01,2.29853e-08,9.99999e-01,2.29853e-08,9.99999e-01
4.080602003e-01,3.25334e-08,9.99999e-01,3.25334e-08,9.99999e-01
4.101005013e-01,4.57330e-08,9.99999e-01,4.57330e-08,9.99999e-01
4.121510038e-01,6.38570e-08,9.99999e-01,6.38570e-08,9.99999e-01
4.142117588e-01,8.85775e-08,9.99999e-01,8.85775e-08,9.99999e-01
4.162828176e-01,1.22076e-07,9.99999e-01,1.22076e-07,9.99999e-01
4.183642317e-01,1.67181e-07,9.99999e-01,1.67181e-07,9.99999e-01
4.204560528e-01,2.27534e-07,9.99999e-01,2.27534e-07,9.99999e-01
4.225583331e-01,3.07795e-07,9.99999e-01,3.07795e-07,9.99999e-01
4.246711247e-01,4.13889e-07,9.99999e-01,4.13889e-07,9.99999e-01
4.267944804e-01,5.53308e-07,9.99999e-01,5.53308e-07,9.99999e-01
4.289284528e-01,7.35459e-07,9.99999e-01,7.35459e-07,9.99999e-01
4.310730950e-01,9.72096e-07,9.99999e-01,9.72096e-07,9.99999e-01
4.332284605e-01,1.27781e-06,9.99999e-01,1.27781e-06,9.99999e-01
4.353946028e-01,1.67062e-06,9.99999e-01,1.67062e-06,9.99999e-01
4.375715758e-01,2.17266e-06,9.99999e-01,2.17266e-06,9.99999e-01
4.397594337e-01,2.81093e-06,9.99999e-01,2.81093e-06,9.99999e-01
4.419582309e-01,3.61825e-06,9.99999e-01,3.61825e-06,9.99999e-01
4.441680220e-01,4.63427e-06,9.99999e-01,4.63427e-06,9.99999e-01
4.463888621e-01,5.90666e-06,9.99999e-01,5.90666e-06,9.99999e-01
4.486208064e-01,7.49240e-06,9.99999e-01,7.49240e-06,9.99999e-01
4.508639105e-01,9.45931e-06,9.99999e-01,9.45931e-06,9.99999e-01
4.531182300e-01,1.18877e-05,9.99999e-01,1.18877e-05,9.99999e-01
4.553838212e-01,1.48723e-05,9.99999e-01,1.48723e-05,9.99999e-01
4.576607403e-01,1.85240e-05,9.99999e-01,1.85240e-05,9.99999e-01
4.599490440e-01,2.29726e-05,9.99999e-01,2.29726e-05,9.99999e-01
4.622487892e-01,2.83685e-05,9.99999e-01,2.83685e-05,9.99999e-01
4.645600332e-01,3.48863e-05,9.99999e-01,3.48863e-05,9.99999e-01
4.668828333e-01,4.27266e-05,9.99999e-01,4.27266e-05,9.99999e-01
4.692172475e-01,5.21198e-05,9.99999e-01,5.21198e-05,9.99999e-01
4.715633337e-01,6.33290e-05,9.99999e-01,6.33290e-05,9.99999e-01
4.739211504e-01,7.66534e-05,9.99999e-01,7.66534e-05,9.99999e-01
4.762907561e-01,9.24319e-05,9.99999e-01,9.24319e-05,9.99999e-01
4.786722099e-01,1.11047e-04,9.99999e-01,1.11047e-04,9.99999e-01
4.810655710e-01,1.32928e-04,9.99999e-01,1.32928e-04,9.99999e-01
4.834708988e-01,1.58557e-04,9.99999e-01,1.58557e-04,9.99999e-01
4.858882533e-01,1.88470e-04,9.99999e-01,1.88470e-04,9.99999e-01
4.883176946e-01,2.23262e-04,9.99999e-01,2.23262e-04,9.99999e-01
4.907592831e-01,2.63594e-04,9.99999e-01,2.63594e-04,9.99999e-01
4.932130795e-01,3.10192e-04,9.99999e-01,3.10192e-04,9.99999e-01
4.956791449e-01,3.63856e-04,9.99999e-01,3.63856e-04,9.99999e-01
4.981575406e-01,4.25461e-04,9.99999e-01,4.25461e-04,9.99999e-01
5.006483283e-01,4.95961e-04,9.99999e-01,4.95961e-04,9.99999e-01
5.031515699e-01,5.76396e-04,9.99999e-01,5.76396e-04,9.99999e-01
5.056673278e-01,6.67890e-04,9.99999e-01,6.67890e-04,9.99999e-01
5.081956644e-01,7.71658e-04,9.99999e-01,7.71658e-04,9.99999e-01
5.107366428e-01,8.89008e-04,9.99999e-01,8.89008e-04,9.99999e-01
5.132903260e-01,1.02135e-03,9.99999e-01,1.02135e-03,9.99999e-01
5.158567776e-01,1.17017e-03,9.99999e-01,1.17017e-03,9.99999e-01
5.184360615e-01,1.33708e-03,9.99999e-01,1.33708e-03,9.99999e-01
5.210282418e-01,1.52378e-03,9.99999e-01,1.52378e-03,9.99999e-01
5.236333830e-01,1.73208e-03,9.99999e-01,1.73208e-03,9.99999e-01
5.262515499e-01,1.96387e-03,9.99999e-01,1.96387e-03,9.99999e-01
5.288828077e-01,2.22116e-03,9.99999e-01,2.22116e-03,9.99999e-01
5.315272217e-01,2.50606e-03,9.99999e-01,2.50606e-03,9.99999e-01
5.341848578e-01,2.82078e-03,9.99999e-01,2.82078e-03,9.99999e-01
5.368557821e-01,3.16760e-03,9.99999e-01,3.16760e-03,9.99999e-01
5.395400610e-01,3.54893e-03,9.99999e-01,3.54893e-03,9.99999e-01
5.422377613e-01,3.96724e-03,9.99999e-01,3.96724e-03,9.99999e-01
5.449489501e-01,4.42511e-03,9.99999e-01,4.42511e-03,9.99999e-01
5.476736949e-01,4.92519e-03,9.99999e-01,4.92519e-03,9.99999e-01
5.504120634e-01,5.47020e-03,9.99999e-01,5.47020e-03,9.99999e-01
5.531641237e-01,6.06294e-03,9.99999e-01,6.06294e-03,9.99999e-01
5.559299443e-01,6.70627e-03,9.99999e-01,6.70627e-03,9.99999e-01
5.587095940e-01,7.40310e-03,9.99999e-01,7.40310e-03,9.99999e-01
5.615031420e-01,8.15639e-03,9.99999e-01,8.15639e-03,9.99999e-01
5.643106577e-01,8.96914e-03,9.99999e-01,8.96914e-03,9.99999e-01
5.671322110e-01,9.84440e-03,9.99999e-01,9.84440e-03,9.99999e-01
5.699678720e-01,1.07852e-02,9.99999e-01,1.07852e-02,9.99999e-01
5.728177114e-01,1.17946e-02,9.99999e-01,1.17946e-02,9.99999e-01
5.756818000e-01,1.28758e-02,9.99999e-01,1.28758e-02,9.99999e-01
5.785602090e-01,1.40317e-02,9.99999e-01,1.40317e-02,9.99999e-01
5.814530100e-01,1.52655e-02,9.99999e-01,1.52655e-02,9.99999e-01
5.843602750e-01,1.65801e-02,9.99999e-01,1.65801e-02,9.99999e-01
5.872820764e-01,1.79785e-02,9.99999e-01,1.79785e-02,9.99999e-01
5.902184868e-01,1.94638e-02,9.99999e-01,1.94638e-02,9.99999e-01
5.931695792e-01,2.10387e-02,9.99999e-01,2.10387e-02,9.99999e-01
5.961354271e-01,2.27061e-02,9.99999e-01,2.27061e-02,9.99999e-01
5.991161043e-01,2.44688e-02,9.99999e-01,2.44688e-02,9.99999e-01
6.021116848e-01,2.63295e-02,9.99999e-01,2.63295e-02,9.99999e-01
6.051222432e-01,2.82906e-02,9.99999e-01,2.82906e-02,9.99999e-01
6.081478544e-01,3.03547e-02,9.99999e-01,3.03547e-02,9.99999e-01
6.111885937e-01,3.25242e-02,9.99999e-01,3.25242e-02,9.99999e-01
6.142445367e-01,3.48012e-02,9.99999e-01,3.48012e-02,9.99999e-01
6.173157594e-01,3.71878e-02,9.99999e-01,3.71878e-02,9.99999e-01
6.204023382e-01,3.96861e-02,9.99999e-01,3.96861e-02,9.99999e-01
6.235043498e-01,4.22979e-02,9.99999e-01,4.22979e-02,9.99999e-01
6.266218716e-01,4.50249e-02,9.99999e-01,4.50249e-02,9.99999e-01
6.297549810e-01,4.78686e-02,9.99999e-01,4.78686e-02,9.99999e-01
6.329037559e-01,5.08303e-02,9.99999e-01,5.08303e-02,9.99999e-01
6.360682746e-01,5.39113e-02,9.99999e-01,5.39113e-02,9.99999e-01
6.392486160e-01,5.71127e-02,9.99999e-01,5.71127e-02,9.99999e-01
6.424448591e-01,6.04352e-02,9.99999e-01,6.04352e-02,9.99999e-01
6.456570834e-01,6.38797e-02,9.99999e-01,6.38797e-02,9.99999e-01
6.488853688e-01,6.74465e-02,9.99999e-01,6.74465e-02,9.99999e-01
6.521297956e-01,7.11362e-02,9.99999e-01,7.11362e-02,9.99999e-01
6.553904446e-01,7.49488e-02,9.99999e-01,7.49488e-02,9.99999e-01
6.586673968e-01,7.88843e-02,9.99999e-01,7.88843e-02,9.99999e-01
6.619607338e-01,8.29427e-02,9.99999e-01,8.29427e-02,9.99999e-01
6.652705375e-01,8.71234e-02,9.99999e-01,8.71234e-02,9.99999e-01
6.685968902e-01,9.14260e-02,9.99999e-01,9.14260e-02,9.99999e-01
6.719398746e-01,9.58498e-02,9.99999e-01,9.58498e-02,9.99999e-01
6.752995740e-01,1.00394e-01,9.99999e-01,1.00394e-01,9.99999e-01
6.786760719e-01,1.05057e-01,9.99999e-01,1.05057e-01,9.99999e-01
6.820694522e-01,1.09839e-01,9.99999e-01,1.09839e-01,9.99999e-01
6.854797995e-01,1.14737e-01,9.99999e-01,1.14737e-01,9.99999e-01
6.889071985e-01,1.19750e-01,9.99999e-01,1.19750e-01,9.99999e-01
6.923517345e-01,1.24877e-01,9.99999e-01,1.24877e-01,9.99999e-01
6.958134932e-01,1.30115e-01,9.99999e-01,1.30115e-01,9.99999e-01
6.992925606e-01,1.35464e-01,9.99999e-01,1.35464e-01,9.99999e-01
7.027890234e-01,1.40920e-01,9.99999e-01,1.40920e-01,9.99999e-01
7.063029686e-01,1.46481e-01,9.99999e-01,1.46481e-01,9.99999e-01
7.098344834e-01,1.52146e-01,9.99999e-01,1.52146e-01,9.99999e-01
7.133836558e-01,1.57911e-01,9.99999e-01,1.57911e-01,9.99999e-01
7.169505741e-01,1.63774e-01,9.99999e-01,1.63774e-01,9.99999e-01
7.205353270e-01,1.69733e-01,9.99999e-01,1.69733e-01,9.99999e-01
7.241380036e-01,1.75784e-01,9.99999e-01,1.75784e-01,9.99999e-01
7.277586936e-01,1.81925e-01,9.99999e-01,1.81925e-01,9.99999e-01
7.313974871e-01,1.88154e-01,9.99999e-01,1.88154e-01,9.99999e-01
7.350544745e-01,1.94465e-01,9.99999e-01,1.94465e-01,9.99999e-01
7.387297469e-01,2.00858e-01,9.99999e-01,2.00858e-01,9.99999e-01
7.424233956e-01,2.07329e-01,9.99999e-01,2.07329e-01,9.99999e-01
7.461355126e-01,2.13873e-01,9.99999e-01,2.13873e-01,9.99999e-01
7.498661902e-01,2.20490e-01,9.99999e-01,2.20490e-01,9.99999e-01
7.536155211e-01,2.27174e-01,9.99999e-01,2.27174e-01,9.99999e-01
7.573835987e-01,2.33922e-01,9.99999e-01,2.33922e-01,9.99999e-01
7.611705167e-01,2.40732e-01,9.99999e-01,2.40732e-01,9.99999e-01
7.649763693e-01,2.47600e-01,9.99999e-01,2.47600e-01,9.99999e-01
7.688012511e-01,2.54522e-01,9.99999e-01,2.54522e-01,9.99999e-01
7.726452574e-01,2.61495e-01,9.99999e-01,2.61495e-01,9.99999e-01
7.765084837e-01,2.68516e-01,9.99999e-01,2.68516e-01,9.99999e-01
7.803910261e-01,2.60383e-01,9.44849e-01,2.75581e-01,9.99999e-01
7.842929812e-01,2.16529e-01,7.65967e-01,2.82687e-01,9.99999e-01
7.882144461e-01,2.18347e-01,7.53360e-01,2.89830e-01,9.99999e-01
7.921555184e-01,2.50873e-01,8.44669e-01,2.97008e-01,9.99999e-01
7.961162960e-01,2.71479e-01,8.92389e-01,3.04216e-01,9.99999e-01
8.000968774e-01,2.92813e-01,9.40156e-01,3.11451e-01,9.99999e-01
8.040973618e-01,3.08661e-01,9.68467e-01,3.18711e-01,9.99999e-01
8.081178486e-01,3.21239e-01,9.85421e-01,3.25991e-01,9.99999e-01
8.121584379e-01,3.31776e-01,9.95459e-01,3.33289e-01,9.99999e-01
8.162192301e-01,3.40260e-01,9.98995e-01,3.40602e-01,9.99999e-01
8.203003262e-01,3.47920e-01,9.99983e-01,3.47925e-01,9.99999e-01
8.244018279e-01,3.55257e-01,9.99999e-01,3.55257e-01,9.99999e-01
8.285238370e-01,3.62594e-01,9.99999e-01,3.62594e-01,9.99999e-01
8.326664562e-01,3.69933e-01,9.99999e-01,3.69933e-01,9.99999e-01
8.368297885e-01,3.77271e-01,9.99999e-01,3.77271e-01,9.99999e-01
8.410139374e-01,3.84606e-01,9.99999e-01,3.84606e-01,9.99999e-01
8.452190071e-01,3.91934e-01,9.99999e-01,3.91934e-01,9.99999e-01
8.494451021e-01,3.99253e-01,9.99999e-01,3.99253e-01,9.99999e-01
8.536923276e-01,4.06560e-01,9.99999e-01,4.06560e-01,9.99999e-01
8.579607893e-01,4.13852e-01,9.99999e-01,4.13852e-01,9.99999e-01
8.622505932e-01,4.21127e-01,9.99999e-01,4.21127e-01,9.99999e-01
8.665618462e-01,3.85078e-01,8.98909e-01,4.28383e-01,9.99999e-01
8.708946554e-01,2.23986e-01,5.14181e-01,4.35617e-01,9.99999e-01
8.752491287e-01,2.56812e-01,5.79939e-01,4.42826e-01,9.99999e-01
8.796253743e-01,3.32311e-01,7.38454e-01,4.50008e-01,9.99999e-01
8.840235012e-01,3.90205e-01,8.53536e-01,4.57162e-01,9.99999e-01
8.884436187e-01,4.36083e-01,9.39256e-01,4.64285e-01,9.99999e-01
8.928858368e-01,4.59563e-01,9.74939e-01,4.71375e-01,9.99999e-01
8.973502660e-01,4.75483e-01,9.93840e-01,4.78430e-01,9.99999e-01
9.018370173e-01,4.85118e-01,9.99318e-01,4.85448e-01,9.99999e-01
9.063462024e-01,4.84057e-01,9.83000e-01,4.92428e-01,9.99999e-01
9.108779334e-01,4.79795e-01,9.60807e-01,4.99366e-01,9.99999e-01
9.154323231e-01,5.01516e-01,9.90623e-01,5.06263e-01,9.99999e-01
9.200094847e-01,4.51205e-01,8.79341e-01,5.13116e-01,9.99999e-01
9.246095321e-01,4.27752e-01,8.22720e-01,5.19924e-01,9.99999e-01
9.292325798e-01,4.52772e-01,8.59663e-01,5.26684e-01,9.99999e-01
9.338787427e-01,4.60278e-01,8.62917e-01,5.33397e-01,9.99999e-01
9.385481364e-01,4.84437e-01,8.97006e-01,5.40060e-01,9.99999e-01
9.432408771e-01,5.11367e-01,9.35418e-01,5.46672e-01,9.99999e-01
9.479570815e-01,5.34618e-01,9.66352e-01,5.53232e-01,9.99999e-01
9.526968669e-01,5.50575e-01,9.83628e-01,5.59739e-01,9.99999e-01
9.574603512e-01,5.62208e-01,9.92963e-01,5.66192e-01,9.99999e-01
9.622476530e-01,5.71329e-01,9.97799e-01,5.72589e-01,9.99999e-01
9.670588912e-01,5.78548e-01,9.99339e-01,5.78930e-01,9.99999e-01
9.718941857e-01,5.85187e-01,9.99952e-01,5.85214e-01,9.99999e-01
9.767536566e-01,5.91440e-01,9.99999e-01,5.91440e-01,9.99999e-01
9.816374249e-01,5.97608e-01,9.99999e-01,5.97608e-01,9.99999e-01
9.865456120e-01,6.03716e-01,9.99999e-01,6.03716e-01,9.99999e-01
9.914783401e-01,6.09764e-01,9.99999e-01,6.09764e-01,9.99999e-01
9.964357318e-01,6.15751e-01,9.99999e-01,6.15751e-01,9.99999e-01
1.001417910e+00,6.21677e-01,9.99999e-01,6.21677e-01,9.99999e-01
1.006425000e+00,6.27542e-01,9.99999e-01,6.27542e-01,9.99999e-01
1.011457125e+00,6.33344e-01,9.99999e-01,6.33344e-01,9.99999e-01
1.016514411e+00,6.39084e-01,9.99999e-01,6.39084e-01,9.99999e-01
1.021596983e+00,6.44704e-01,9.99912e-01,6.44761e-01,9.99999e-01
1.026704968e+00,6.46029e-01,9.93318e-01,6.50374e-01,9.99999e-01
1.031838492e+00,6.13778e-01,9.35743e-01,6.55925e-01,9.99999e-01
1.036997685e+00,5.91802e-02,8.94756e-02,6.61411e-01,9.99999e-01
1.042182673e+00,1.83418e-02,2.75058e-02,6.66834e-01,9.99999e-01
1.047393587e+00,3.17970e-02,4.73033e-02,6.72192e-01,9.99999e-01
1.052630555e+00,9.35751e-05,1.38121e-04,6.77487e-01,9.99999e-01
1.057893707e+00,3.10746e-04,4.55159e-04,6.82718e-01,9.99999e-01
1.063183176e+00,2.23054e-03,3.24261e-03,6.87884e-01,9.99999e-01
1.068499092e+00,1.10165e-02,1.58970e-02,6.92987e-01,9.99999e-01
1.073841587e+00,4.99200e-02,7.15159e-02,6.98025e-01,9.99999e-01
1.079210795e+00,1.32522e-01,1.88509e-01,7.02999e-01,9.99999e-01
1.084606849e+00,2.79001e-01,3.94119e-01,7.07910e-01,9.99999e-01
1.090029883e+00,4.38768e-01,6.15592e-01,7.12756e-01,9.99999e-01
1.095480033e+00,5.64679e-01,7.86965e-01,7.17540e-01,9.99999e-01
1.100957433e+00,6.43379e-01,8.90786e-01,7.22260e-01,9.99999e-01
1.106462220e+00,6.92932e-01,9.53248e-01,7.26916e-01,9.99999e-01
1.111994531e+00,7.18638e-01,9.82402e-01,7.31510e-01,9.99999e-01
1.117554504e+00,7.32854e-01,9.95668e-01,7.36042e-01,9.99999e-01
1.123142276e+00,7.40300e-01,9.99714e-01,7.40511e-01,9.99999e-01
1.128757988e+00,7.44918e-01,9.99999e-01,7.44918e-01,9.99999e-01
1.134401778e+00,7.49264e-01,9.99999e-01,7.49264e-01,9.99999e-01
1.140073787e+00,7.53548e-01,9.99999e-01,7.53548e-01,9.99999e-01
1.145774156e+00,7.57772e-01,9.99999e-01,7.57772e-01,9.99999e-01
1.151503026e+00,7.61935e-01,9.99999e-01,7.61935e-01,9.99999e-01
1.157260541e+00,7.66038e-01,9.99999e-01,7.66038e-01,9.99999e-01
1.163046844e+00,7.70081e-01,9.99999e-01,7.70081e-01,9.99999e-01
1.168862078e+00,7.74065e-01,9.99999e-01,7.74065e-01,9.99999e-01
1.174706389e+00,7.77991e-01,9.99999e-01,7.77991e-01,9.99999e-01
1.180579921e+00,7.81858e-01,9.99999e-01,7.81858e-01,9.99999e-01
1.186482820e+00,7.85659e-01,9.99988e-01,7.85668e-01,9.99999e-01
1.192415234e+00,7.71018e-01,9.76688e-01,7.89420e-01,9.99999e-01
1.198377311e+00,4.31465e-01,5.44012e-01,7.93116e-01,9.99999e-01
1.204369197e+00,1.92973e-18,2.42199e-18,7.96755e-01,9.99999e-01
1.210391043e+00,8.23997e-72,1.02956e-71,8.00339e-01,9.99999e-01
1.216442998e+00,2.87623e-62,3.57799e-62,8.03868e-01,9.99999e-01
1.222525213e+00,2.39784e-61,2.97004e-61,8.07342e-01,9.99999e-01
1.228637839e+00,1.84925e-47,2.28087e-47,8.10762e-01,9.99999e-01
1.234781029e+00,6.28409e-30,7.71879e-30,8.14128e-01,9.99999e-01
1.240954934e+00,4.92902e-20,6.02980e-20,8.17442e-01,9.99999e-01
1.247159708e+00,3.34813e-10,4.07958e-10,8.20703e-01,9.99999e-01
1.253395507e+00,7.84051e-07,9.51618e-07,8.23913e-01,9.99999e-01
1.259662485e+00,2.94099e-04,3.55591e-04,8.27071e-01,9.99999e-01
1.265960797e+00,9.05285e-03,1.09047e-02,8.30178e-01,9.99999e-01
1.272290601e+00,1.12685e-01,1.35238e-01,8.33236e-01,9.99999e-01
1.278652054e+00,9.75537e-02,1.16657e-01,8.36244e-01,9.99999e-01
1.285045314e+00,7.56828e-04,9.01841e-04,8.39203e-01,9.99999e-01
1.291470541e+00,6.00590e-09,7.13192e-09,8.42114e-01,9.99999e-01
1.297927893e+00,2.25289e-04,2.66621e-04,8.44977e-01,9.99999e-01
1.304417533e+00,2.17579e-02,2.56641e-02,8.47793e-01,9.99999e-01
1.310939621e+00,5.22194e-03,6.13939e-03,8.50563e-01,9.99999e-01
1.317494319e+00,6.51663e-25,7.63709e-25,8.53287e-01,9.99999e-01
1.324081790e+00,1.12780e-16,1.31757e-16,8.55965e-01,9.99999e-01
1.330702199e+00,6.78024e-10,7.89686e-10,8.58598e-01,9.99999e-01
1.337355710e+00,2.60381e-09,3.02350e-09,8.61188e-01,9.99999e-01
1.344042489e+00,1.03504e-09,1.19833e-09,8.63734e-01,9.99999e-01
1.350762701e+00,3.68497e-10,4.25400e-10,8.66237e-01,9.99999e-01
1.357516515e+00,1.44644e-06,1.66506e-06,8.68697e-01,9.99999e-01
1.364304097e+00,9.56407e-05,1.09791e-04,8.71116e-01,9.99999e-01
1.371125618e+00,8.04505e-03,9.21020e-03,8.73493e-01,9.99999e-01
1.377981246e+00,1.66944e-02,1.90612e-02,8.75830e-01,9.99999e-01
1.384871152e+00,8.75983e-02,9.97558e-02,8.78126e-01,9.99999e-01
1.391795508e+00,1.04524e-01,1.18725e-01,8.80384e-01,9.99999e-01
1.398754485e+00,2.34435e-01,2.65617e-01,8.82602e-01,9.99999e-01
1.405748258e+00,3.34750e-01,3.78342e-01,8.84782e-01,9.99999e-01
1.412776999e+00,4.78849e-01,5.39898e-01,8.86924e-01,9.99999e-01
1.419840884e+00,4.33623e-01,4.87749e-01,8.89028e-01,9.99999e-01
1.426940089e+00,2.51419e-02,2.82145e-02,8.91096e-01,9.99999e-01
1.434074789e+00,0.00000e+00,0.00000e+00,8.93128e-01,9.99999e-01
1.441245163e+00,0.00000e+00,0.00000e+00,8.95124e-01,9.99999e-01
1.448451389e+00,0.00000e+00,0.00000e+00,8.97085e-01,9.99999e-01
1.455693646e+00,0.00000e+00,0.00000e+00,8.99012e-01,9.99999e-01
1.462972114e+00,1.35160e-284,1.50027e-284,9.00904e-01,9.99999e-01
1.470286975e+00,1.98549e-118,2.19934e-118,9.02763e-01,9.99999e-01
1.477638409e+00,1.25222e-74,1.38430e-74,9.04589e-01,9.99999e-01
1.485026601e+00,8.54560e-42,9.42824e-42,9.06382e-01,9.99999e-01
1.492451734e+00,1.27090e-35,1.39945e-35,9.08144e-01,9.99999e-01
1.499913993e+00,8.53975e-16,9.38563e-16,9.09874e-01,9.99999e-01
1.507413563e+00,1.48244e-14,1.62624e-14,9.11573e-01,9.99999e-01
1.514950631e+00,5.38335e-16,5.89476e-16,9.13242e-01,9.99999e-01
1.522525384e+00,3.34089e-53,3.65172e-53,9.14880e-01,9.99999e-01
1.530138011e+00,2.42212e-126,2.64282e-126,9.16489e-01,9.99999e-01
1.537788701e+00,1.36142e-93,1.48291e-93,9.18069e-01,9.99999e-01
1.545477645e+00,3.61047e-20,3.92604e-20,9.19621e-01,9.99999e-01
1.553205033e+00,1.35160e-14,1.46730e-14,9.21144e-01,9.99999e-01
1.560971058e+00,5.40171e-15,5.85463e-15,9.22640e-01,9.99999e-01
1.568775913e+00,1.91362e-319,2.07073e-319,9.24108e-01,9.99999e-01
1.576619793e+00,0.00000e+00,0.00000e+00,9.25550e-01,9.99999e-01
1.584502892e+00,0.00000e+00,0.00000e+00,9.26965e-01,9.99999e-01
1.592425406e+00,1.02283e-284,1.10176e-284,9.28355e-01,9.99999e-01
1.600387533e+00,0.00000e+00,0.00000e+00,9.29719e-01,9.99999e-01
1.608389471e+00,0.00000e+00,0.00000e+00,9.31058e-01,9.99999e-01
1.616431418e+00,0.00000e+00,0.00000e+00,9.32373e-01,9.99999e-01
1.624513575e+00,0.00000e+00,0.00000e+00,9.33663e-01,9.99999e-01
1.632636143e+00,1.35982e-268,1.45446e-268,9.34930e-01,9.99999e-01
1.640799324e+00,9.36081e-110,9.99900e-110,9.36174e-01,9.99999e-01
1.649003321e+00,9.37212e-110,9.99805e-110,9.37394e-01,9.99999e-01
1.657248337e+00,6.29227e-85,6.70394e-85,9.38592e-01,9.99999e-01
1.665534579e+00,1.71662e-85,1.82664e-85,9.39767e-01,9.99999e-01
1.673862252e+00,1.08703e-54,1.15528e-54,9.40921e-01,9.99999e-01
1.682231563e+00,5.06531e-38,5.37687e-38,9.42054e-01,9.99999e-01
1.690642721e+00,2.38642e-21,2.53023e-21,9.43165e-01,9.99999e-01
1.699095934e+00,9.82085e-14,1.04006e-13,9.44256e-01,9.99999e-01
1.707591414e+00,2.25713e-07,2.38767e-07,9.45326e-01,9.99999e-01
1.716129371e+00,1.44131e-04,1.52298e-04,9.46377e-01,9.99999e-01
1.724710018e+00,6.43896e-03,6.79639e-03,9.47407e-01,9.99999e-01
1.733333568e+00,3.54221e-02,3.73485e-02,9.48419e-01,9.99999e-01
1.742000236e+00,1.38230e-01,1.45596e-01,9.49412e-01,9.99999e-01
1.750710237e+00,1.24287e-03,1.30776e-03,9.50386e-01,9.99999e-01
1.759463788e+00,3.17202e-52,3.33426e-52,9.51341e-01,9.99999e-01
1.768261107e+00,1.17169e-54,1.23040e-54,9.52279e-01,9.99999e-01
1.777102413e+00,3.88485e-53,4.07559e-53,9.53199e-01,9.99999e-01
1.785987925e+00,6.53874e-50,6.85328e-50,9.54102e-01,9.99999e-01
1.794917864e+00,1.14081e-47,1.19458e-47,9.54988e-01,9.99999e-01
1.803892454e+00,7.49590e-46,7.84206e-46,9.55857e-01,9.99999e-01
1.812911916e+00,4.70025e-44,4.91293e-44,9.56710e-01,9.99999e-01
1.821976476e+00,3.99260e-44,4.16961e-44,9.57547e-01,9.99999e-01
1.831086358e+00,1.58873e-35,1.65775e-35,9.58367e-01,9.99999e-01
1.840241790e+00,2.77627e-30,2.89444e-30,9.59173e-01,9.99999e-01
1.849442999e+00,4.28494e-21,4.46365e-21,9.59963e-01,9.99999e-01
1.858690214e+00,8.72129e-20,9.07769e-20,9.60738e-01,9.99999e-01
1.867983665e+00,1.94537e-20,2.02327e-20,9.61498e-01,9.99999e-01
1.877323583e+00,1.99792e-99,2.07631e-99,9.62244e-01,9.99999e-01
