#,Wave/freq,Total,CO2,Rayleigh,CIA
4.000000000e-01,3.04915e-04,9.99999e-01,3.04915e-04,9.99999e-01
4.020000000e-01,3.57845e-04,9.99999e-01,3.57845e-04,9.99999e-01
4.040100000e-01,4.18569e-04,9.99999e-01,4.18569e-04,9.99999e-01
4.060300500e-01,4.88086e-04,9.99999e-01,4.88086e-04,9.99999e-01
4.080602003e-01,5.67422e-04,9.99999e-01,5.67422e-04,9.99999e-01
4.101005013e-01,6.57695e-04,9.99999e-01,6.57695e-04,9.99999e-01
4.121510038e-01,7.60110e-04,9.99999e-01,7.60110e-04,9.99999e-01
4.142117588e-01,8.75966e-04,9.99999e-01,8.75966e-04,9.99999e-01
4.162828176e-01,1.00665e-03,9.99999e-01,1.00665e-03,9.99999e-01
4.183642317e-01,1.15367e-03,9.99999e-01,1.15367e-03,9.99999e-01
4.204560528e-01,1.31860e-03,9.99999e-01,1.31860e-03,9.99999e-01
4.225583331e-01,1.50313e-03,9.99999e-01,1.50313e-03,9.99999e-01
4.246711247e-01,1.70906e-03,9.99999e-01,1.70906e-03,9.99999e-01
4.267944804e-01,1.93829e-03,9.99999e-01,1.93829e-03,9.99999e-01
4.289284528e-01,2.19280e-03,9.99999e-01,2.19280e-03,9.99999e-01
4.310730950e-01,2.47469e-03,9.99999e-01,2.47469e-03,9.99999e-01
4.332284605e-01,2.78615e-03,9.99999e-01,2.78615e-03,9.99999e-01
4.353946028e-01,3.12948e-03,9.99999e-01,3.12948e-03,9.99999e-01
4.375715758e-01,3.50706e-03,9.99999e-01,3.50706e-03,9.99999e-01
4.397594337e-01,3.92136e-03,9.99999e-01,3.92136e-03,9.99999e-01
4.419582309e-01,4.37494e-03,9.99999e-01,4.37494e-03,9.99999e-01
4.441680220e-01,4.87044e-03,9.99999e-01,4.87044e-03,9.99999e-01
4.463888621e-01,5.41059e-03,9.99999e-01,5.41059e-03,9.99999e-01
4.486208064e-01,5.99817e-03,9.99999e-01,5.99817e-03,9.99999e-01
4.508639105e-01,6.63603e-03,9.99999e-01,6.63603e-03,9.99999e-01
4.531182300e-01,7.32708e-03,9.99999e-01,7.32708e-03,9.99999e-01
4.553838212e-01,8.07428e-03,9.99999e-01,8.07428e-03,9.99999e-01
4.576607403e-01,8.88063e-03,9.99999e-01,8.88063e-03,9.99999e-01
4.599490440e-01,9.74916e-03,9.99999e-01,9.74916e-03,9.99999e-01
4.622487892e-01,1.06829e-02,9.99999e-01,1.06829e-02,9.99999e-01
4.645600332e-01,1.16850e-02,9.99999e-01,1.16850e-02,9.99999e-01
4.668828333e-01,1.27584e-02,9.99999e-01,1.27584e-02,9.99999e-01
4.692172475e-01,1.39063e-02,9.99999e-01,1.39063e-02,9.99999e-01
4.715633337e-01,1.51317e-02,9.99999e-01,1.51317e-02,9.99999e-01
4.739211504e-01,1.64377e-02,9.99999e-01,1.64377e-02,9.99999e-01
4.762907561e-01,1.78272e-02,9.99999e-01,1.78272e-02,9.99999e-01
4.786722099e-01,1.93031e-02,9.99999e-01,1.93031e-02,9.99999e-01
4.810655710e-01,2.08685e-02,9.99999e-01,2.08685e-02,9.99999e-01
4.834708988e-01,2.25260e-02,9.99999e-01,2.25260e-02,9.99999e-01
4.858882533e-01,2.42786e-02,9.99999e-01,2.42786e-02,9.99999e-01
4.883176946e-01,2.61288e-02,9.99999e-01,2.61288e-02,9.99999e-01
4.907592831e-01,2.80792e-02,9.99999e-01,2.80792e-02,9.99999e-01
4.932130795e-01,3.01324e-02,9.99999e-01,3.01324e-02,9.99999e-01
4.956791449e-01,3.22906e-02,9.99999e-01,3.22906e-02,9.99999e-01
4.981575406e-01,3.45562e-02,9.99999e-01,3.45562e-02,9.99999e-01
5.006483283e-01,3.69312e-02,9.99999e-01,3.69312e-02,9.99999e-01
5.031515699e-01,3.94177e-02,9.99999e-01,3.94177e-02,9.99999e-01
5.056673278e-01,4.20174e-02,9.99999e-01,4.20174e-02,9.99999e-01
5.081956644e-01,4.47322e-02,9.99999e-01,4.47322e-02,9.99999e-01
5.107366428e-01,4.75635e-02,9.99999e-01,4.75635e-02,9.99999e-01
5.132903260e-01,5.05127e-02,9.99999e-01,5.05127e-02,9.99999e-01
5.158567776e-01,5.35811e-02,9.99999e-01,5.35811e-02,9.99999e-01
5.184360615e-01,5.67697e-02,9.99999e-01,5.67697e-02,9.99999e-01
5.210282418e-01,6.00795e-02,9.99999e-01,6.00795e-02,9.99999e-01
5.236333830e-01,6.35111e-02,9.99999e-01,6.35111e-02,9.99999e-01
5.262515499e-01,6.70650e-02,9.99999e-01,6.70650e-02,9.99999e-01
5.288828077e-01,7.07417e-02,9.99999e-01,7.07417e-02,9.99999e-01
5.315272217e-01,7.45414e-02,9.99999e-01,7.45414e-02,9.99999e-01
5.341848578e-01,7.84640e-02,9.99999e-01,7.84640e-02,9.99999e-01
5.368557821e-01,8.25094e-02,9.99999e-01,8.25094e-02,9.99999e-01
5.395400610e-01,8.66772e-02,9.99999e-01,8.66772e-02,9.99999e-01
5.422377613e-01,9.09670e-02,9.99999e-01,9.09670e-02,9.99999e-01
5.449489501e-01,9.53781e-02,9.99999e-01,9.53781e-02,9.99999e-01
5.476736949e-01,9.99096e-02,9.99999e-01,9.99096e-02,9.99999e-01
5.504120634e-01,1.04560e-01,9.99999e-01,1.04560e-01,9.99999e-01
5.531641237e-01,1.09329e-01,9.99999e-01,1.09329e-01,9.99999e-01
5.559299443e-01,1.14215e-01,9.99999e-01,1.14215e-01,9.99999e-01
5.587095940e-01,1.19217e-01,9.99999e-01,1.19217e-01,9.99999e-01
5.615031420e-01,1.24332e-01,9.99999e-01,1.24332e-01,9.99999e-01
5.643106577e-01,1.29558e-01,9.99999e-01,1.29558e-01,9.99999e-01
5.671322110e-01,1.34895e-01,9.99999e-01,1.34895e-01,9.99999e-01
5.699678720e-01,1.40340e-01,9.99999e-01,1.40340e-01,9.99999e-01
5.728177114e-01,1.45890e-01,9.99999e-01,1.45890e-01,9.99999e-01
5.756818000e-01,1.51544e-01,9.99999e-01,1.51544e-01,9.99999e-01
5.785602090e-01,1.57299e-01,9.99999e-01,1.57299e-01,9.99999e-01
5.814530100e-01,1.63152e-01,9.99999e-01,1.63152e-01,9.99999e-01
5.843602750e-01,1.69101e-01,9.99999e-01,1.69101e-01,9.99999e-01
5.872820764e-01,1.75142e-01,9.99999e-01,1.75142e-01,9.99999e-01
5.902184868e-01,1.81274e-01,9.99999e-01,1.81274e-01,9.99999e-01
5.931695792e-01,1.87493e-01,9.99999e-01,1.87493e-01,9.99999e-01
5.961354271e-01,1.93797e-01,9.99999e-01,1.93797e-01,9.99999e-01
5.991161043e-01,2.00181e-01,9.99999e-01,2.00181e-01,9.99999e-01
6.021116848e-01,2.06643e-01,9.99999e-01,2.06643e-01,9.99999e-01
6.051222432e-01,2.13181e-01,9.99999e-01,2.13181e-01,9.99999e-01
6.081478544e-01,2.19789e-01,9.99999e-01,2.19789e-01,9.99999e-01
6.111885937e-01,2.26466e-01,9.99999e-01,2.26466e-01,9.99999e-01
6.142445367e-01,2.33208e-01,9.99999e-01,2.33208e-01,9.99999e-01
6.173157594e-01,2.40012e-01,9.99999e-01,2.40012e-01,9.99999e-01
6.204023382e-01,2.46873e-01,9.99999e-01,2.46873e-01,9.99999e-01
6.235043498e-01,2.53790e-01,9.99999e-01,2.53790e-01,9.99999e-01
6.266218716e-01,2.60758e-01,9.99999e-01,2.60758e-01,9.99999e-01
6.297549810e-01,2.67774e-01,9.99999e-01,2.67774e-01,9.99999e-01
6.329037559e-01,2.74835e-01,9.99999e-01,2.74835e-01,9.99999e-01
6.360682746e-01,2.81936e-01,9.99999e-01,2.81936e-01,9.99999e-01
6.392486160e-01,2.89076e-01,9.99999e-01,2.89076e-01,9.99999e-01
6.424448591e-01,2.96250e-01,9.99999e-01,2.96250e-01,9.99999e-01
6.456570834e-01,3.03455e-01,9.99999e-01,3.03455e-01,9.99999e-01
6.488853688e-01,3.10688e-01,9.99999e-01,3.10688e-01,9.99999e-01
6.521297956e-01,3.17945e-01,9.99999e-01,3.17945e-01,9.99999e-01
6.553904446e-01,3.25223e-01,9.99999e-01,3.25223e-01,9.99999e-01
6.586673968e-01,3.32520e-01,9.99999e-01,3.32520e-01,9.99999e-01
6.619607338e-01,3.39831e-01,9.99999e-01,3.39831e-01,9.99999e-01
6.652705375e-01,3.47153e-01,9.99999e-01,3.47153e-01,9.99999e-01
6.685968902e-01,3.54485e-01,9.99999e-01,3.54485e-01,9.99999e-01
6.719398746e-01,3.61821e-01,9.99999e-01,3.61821e-01,9.99999e-01
6.752995740e-01,3.69160e-01,9.99999e-01,3.69160e-01,9.99999e-01
6.786760719e-01,3.76499e-01,9.99999e-01,3.76499e-01,9.99999e-01
6.820694522e-01,3.83834e-01,9.99999e-01,3.83834e-01,9.99999e-01
6.854797995e-01,3.91163e-01,9.99999e-01,3.91163e-01,9.99999e-01
6.889071985e-01,3.98482e-01,9.99999e-01,3.98482e-01,9.99999e-01
6.923517345e-01,4.05791e-01,9.99999e-01,4.05791e-01,9.99999e-01
6.958134932e-01,4.13085e-01,9.99999e-01,4.13085e-01,9.99999e-01
6.992925606e-01,4.20362e-01,9.99999e-01,4.20362e-01,9.99999e-01
7.027890234e-01,4.27620e-01,9.99999e-01,4.27620e-01,9.99999e-01
7.063029686e-01,4.34856e-01,9.99999e-01,4.34856e-01,9.99999e-01
7.098344834e-01,4.42068e-01,9.99999e-01,4.42068e-01,9.99999e-01
7.133836558e-01,4.49253e-01,9.99999e-01,4.49253e-01,9.99999e-01
7.169505741e-01,4.56410e-01,9.99999e-01,4.56410e-01,9.99999e-01
7.205353270e-01,4.63536e-01,9.99999e-01,4.63536e-01,9.99999e-01
7.241380036e-01,4.70630e-01,9.99999e-01,4.70630e-01,9.99999e-01
7.277586936e-01,4.77689e-01,9.99999e-01,4.77689e-01,9.99999e-01
7.313974871e-01,4.84711e-01,9.99999e-01,4.84711e-01,9.99999e-01
7.350544745e-01,4.91694e-01,9.99999e-01,4.91694e-01,9.99999e-01
7.387297469e-01,4.98637e-01,9.99999e-01,4.98637e-01,9.99999e-01
7.424233956e-01,5.05539e-01,9.99999e-01,5.05539e-01,9.99999e-01
7.461355126e-01,5.12396e-01,9.99999e-01,5.12396e-01,9.99999e-01
7.498661902e-01,5.19209e-01,9.99999e-01,5.19209e-01,9.99999e-01
7.536155211e-01,5.25974e-01,9.99999e-01,5.25974e-01,9.99999e-01
7.573835987e-01,5.32692e-01,9.99999e-01,5.32692e-01,9.99999e-01
7.611705167e-01,5.39360e-01,9.99999e-01,5.39360e-01,9.99999e-01
7.649763693e-01,5.45978e-01,9.99999e-01,5.45978e-01,9.99999e-01
7.688012511e-01,5.52544e-01,9.99999e-01,5.52544e-01,9.99999e-01
7.726452574e-01,5.59056e-01,9.99999e-01,5.59056e-01,9.99999e-01
7.765084837e-01,5.65515e-01,9.99999e-01,5.65515e-01,9.99999e-01
7.803910261e-01,5.55807e-01,9.71829e-01,5.71918e-01,9.99999e-01
7.842929812e-01,5.13802e-01,8.88522e-01,5.78265e-01,9.99999e-01
7.882144461e-01,5.14468e-01,8.80102e-01,5.84555e-01,9.99999e-01
7.921555184e-01,5.48627e-01,9.28636e-01,5.90787e-01,9.99999e-01
7.961162960e-01,5.68369e-01,9.52103e-01,5.96961e-01,9.99999e-01
8.000968774e-01,5.87212e-01,9.73695e-01,6.03075e-01,9.99999e-01
8.040973618e-01,6.00815e-01,9.86349e-01,6.09130e-01,9.99999e-01
8.081178486e-01,6.11240e-01,9.93685e-01,6.15123e-01,9.99999e-01
8.121584379e-01,6.19856e-01,9.98067e-01,6.21056e-01,9.99999e-01
8.162192301e-01,6.26659e-01,9.99572e-01,6.26927e-01,9.99999e-01
8.203003262e-01,6.32732e-01,9.99993e-01,6.32736e-01,9.99999e-01
8.244018279e-01,6.38482e-01,9.99999e-01,6.38482e-01,9.99999e-01
8.285238370e-01,6.44166e-01,9.99999e-01,6.44166e-01,9.99999e-01
8.326664562e-01,6.49786e-01,9.99999e-01,6.49786e-01,9.99999e-01
8.368297885e-01,6.55343e-01,9.99999e-01,6.55343e-01,9.99999e-01
8.410139374e-01,6.60836e-01,9.99999e-01,6.60836e-01,9.99999e-01
8.452190071e-01,6.66266e-01,9.99999e-01,6.66266e-01,9.99999e-01
8.494451021e-01,6.71631e-01,9.99999e-01,6.71631e-01,9.99999e-01
8.536923276e-01,6.76932e-01,9.99999e-01,6.76932e-01,9.99999e-01
8.579607893e-01,6.82170e-01,9.99999e-01,6.82170e-01,9.99999e-01
8.622505932e-01,6.87343e-01,9.99999e-01,6.87343e-01,9.99999e-01
8.665618462e-01,6.46518e-01,9.33663e-01,6.92452e-01,9.99999e-01
8.708946554e-01,5.14778e-01,7.38035e-01,6.97497e-01,9.99999e-01
8.752491287e-01,5.51247e-01,7.84717e-01,7.02478e-01,9.99999e-01
8.796253743e-01,6.19648e-01,8.75956e-01,7.07395e-01,9.99999e-01
8.840235012e-01,6.65073e-01,9.33764e-01,7.12249e-01,9.99999e-01
8.884436187e-01,6.98033e-01,9.73493e-01,7.17039e-01,9.99999e-01
8.928858368e-01,7.13942e-01,9.89160e-01,7.21765e-01,9.99999e-01
8.973502660e-01,7.24521e-01,9.97373e-01,7.26429e-01,9.99999e-01
9.018370173e-01,7.30818e-01,9.99710e-01,7.31029e-01,9.99999e-01
9.063462024e-01,7.29911e-01,9.92310e-01,7.35567e-01,9.99999e-01
9.108779334e-01,7.27388e-01,9.82898e-01,7.40043e-01,9.99999e-01
9.154323231e-01,7.41485e-01,9.96007e-01,7.44457e-01,9.99999e-01
9.200094847e-01,7.04593e-01,9.40951e-01,7.48809e-01,9.99999e-01
9.246095321e-01,6.92012e-01,9.18884e-01,7.53100e-01,9.99999e-01
9.292325798e-01,7.08106e-01,9.35004e-01,7.57329e-01,9.99999e-01
9.338787427e-01,7.14181e-01,9.37862e-01,7.61499e-01,9.99999e-01
9.385481364e-01,7.30368e-01,9.53969e-01,7.65608e-01,9.99999e-01
9.432408771e-01,7.47845e-01,9.71658e-01,7.69658e-01,9.99999e-01
9.479570815e-01,7.62300e-01,9.85330e-01,7.73648e-01,9.99999e-01
9.526968669e-01,7.72073e-01,9.92916e-01,7.77580e-01,9.99999e-01
9.574603512e-01,7.79085e-01,9.96968e-01,7.81454e-01,9.99999e-01
9.622476530e-01,7.84527e-01,9.99054e-01,7.85269e-01,9.99999e-01
9.670588912e-01,7.88805e-01,9.99717e-01,7.89028e-01,9.99999e-01
9.718941857e-01,7.92714e-01,9.99980e-01,7.92729e-01,9.99999e-01
9.767536566e-01,7.96375e-01,9.99999e-01,7.96375e-01,9.99999e-01
9.816374249e-01,7.99964e-01,9.99999e-01,7.99964e-01,9.99999e-01
9.865456120e-01,8.03499e-01,9.99999e-01,8.03499e-01,9.99999e-01
9.914783401e-01,8.06979e-01,9.99999e-01,8.06979e-01,9.99999e-01
9.964357318e-01,8.10404e-01,9.99999e-01,8.10404e-01,9.99999e-01
1.001417910e+00,8.13776e-01,9.99999e-01,8.13776e-01,9.99999e-01
1.006425000e+00,8.17095e-01,9.99999e-01,8.17095e-01,9.99999e-01
1.011457125e+00,8.20362e-01,9.99999e-01,8.20362e-01,9.99999e-01
1.016514411e+00,8.23577e-01,9.99999e-01,8.23577e-01,9.99999e-01
1.021596983e+00,8.26702e-01,9.99953e-01,8.26741e-01,9.99999e-01
1.026704968e+00,8.27353e-01,9.96986e-01,8.29853e-01,9.99999e-01
1.031838492e+00,7.99118e-01,9.59421e-01,8.32916e-01,9.99999e-01
1.036997685e+00,1.57821e-01,1.88797e-01,8.35929e-01,9.99999e-01
1.042182673e+00,1.55818e-01,1.85742e-01,8.38894e-01,9.99999e-01
1.047393587e+00,1.63319e-01,1.94009e-01,8.41810e-01,9.99999e-01
1.052630555e+00,9.07859e-03,1.07480e-02,8.44678e-01,9.99999e-01
1.057893707e+00,2.09982e-02,2.47766e-02,8.47499e-01,9.99999e-01
1.063183176e+00,5.63908e-02,6.63208e-02,8.50273e-01,9.99999e-01
1.068499092e+00,1.32274e-01,1.55069e-01,8.53002e-01,9.99999e-01
1.073841587e+00,2.64930e-01,3.09612e-01,8.55685e-01,9.99999e-01
1.079210795e+00,4.08704e-01,4.76165e-01,8.58323e-01,9.99999e-01
1.084606849e+00,5.73471e-01,6.66116e-01,8.60917e-01,9.99999e-01
1.090029883e+00,6.99250e-01,8.09815e-01,8.63468e-01,9.99999e-01
1.095480033e+00,7.80657e-01,9.01477e-01,8.65975e-01,9.99999e-01
1.100957433e+00,8.26113e-01,9.51260e-01,8.68440e-01,9.99999e-01
1.106462220e+00,8.53089e-01,9.79589e-01,8.70863e-01,9.99999e-01
1.111994531e+00,8.66597e-01,9.92386e-01,8.73245e-01,9.99999e-01
1.117554504e+00,8.73963e-01,9.98146e-01,8.75586e-01,9.99999e-01
1.123142276e+00,8.77780e-01,9.99878e-01,8.77886e-01,9.99999e-01
1.128757988e+00,8.80148e-01,9.99999e-01,8.80148e-01,9.99999e-01
1.134401778e+00,8.82370e-01,9.99999e-01,8.82370e-01,9.99999e-01
1.140073787e+00,8.84554e-01,9.99999e-01,8.84554e-01,9.99999e-01
1.145774156e+00,8.86700e-01,9.99999e-01,8.86700e-01,9.99999e-01
1.151503026e+00,8.88808e-01,9.99999e-01,8.88808e-01,9.99999e-01
1.157260541e+00,8.90880e-01,9.99999e-01,8.90880e-01,9.99999e-01
1.163046844e+00,8.92916e-01,9.99999e-01,8.92916e-01,9.99999e-01
1.168862078e+00,8.94916e-01,9.99999e-01,8.94916e-01,9.99999e-01
1.174706389e+00,8.96880e-01,9.99999e-01,8.96880e-01,9.99999e-01
1.180579921e+00,8.98810e-01,9.99999e-01,8.98810e-01,9.99999e-01
1.186482820e+00,9.00700e-01,9.99992e-01,9.00706e-01,9.99999e-01
1.192415234e+00,8.92813e-01,9.89190e-01,9.02569e-01,9.99999e-01
1.198377311e+00,5.12779e-01,5.66983e-01,9.04398e-01,9.99999e-01
1.204369197e+00,2.85407e-09,3.14950e-09,9.06195e-01,9.99999e-01
1.210391043e+00,2.04842e-32,2.25607e-32,9.07960e-01,9.99999e-01
1.216442998e+00,2.81731e-28,3.09699e-28,9.09693e-01,9.99999e-01
1.222525213e+00,7.09223e-28,7.78172e-28,9.11395e-01,9.99999e-01
1.228637839e+00,1.43465e-21,1.57124e-21,9.13067e-01,9.99999e-01
1.234781029e+00,2.98593e-14,3.26435e-14,9.14709e-01,9.99999e-01
1.240954934e+00,1.23904e-09,1.35219e-09,9.16321e-01,9.99999e-01
1.247159708e+00,1.36764e-05,1.48995e-05,9.17904e-01,9.99999e-01
1.253395507e+00,1.49680e-03,1.62791e-03,9.19458e-01,9.99999e-01
1.259662485e+00,2.34073e-02,2.54155e-02,9.20985e-01,9.99999e-01
1.265960797e+00,1.10325e-01,1.19596e-01,9.22483e-01,9.99999e-01
1.272290601e+00,3.79957e-01,4.11229e-01,9.23955e-01,9.99999e-01
1.278652054e+00,3.24024e-01,3.50145e-01,9.25399e-01,9.99999e-01
1.285045314e+00,9.42655e-03,1.01709e-02,9.26818e-01,9.99999e-01
1.291470541e+00,1.67781e-04,1.80757e-04,9.28210e-01,9.99999e-01
1.297927893e+00,1.94782e-02,2.09538e-02,9.29577e-01,9.99999e-01
1.304417533e+00,1.84588e-01,1.98286e-01,9.30919e-01,9.99999e-01
1.310939621e+00,3.11005e-02,3.33612e-02,9.32236e-01,9.99999e-01
1.317494319e+00,1.14179e-11,1.22309e-11,9.33529e-01,9.99999e-01
1.324081790e+00,1.51128e-06,1.61669e-06,9.34798e-01,9.99999e-01
1.330702199e+00,7.46266e-05,7.97255e-05,9.36044e-01,9.99999e-01
1.337355710e+00,7.54107e-05,8.04580e-05,9.37266e-01,9.99999e-01
1.344042489e+00,2.14535e-05,2.28602e-05,9.38467e-01,9.99999e-01
1.350762701e+00,5.08617e-05,5.41286e-05,9.39645e-01,9.99999e-01
1.357516515e+00,1.64503e-03,1.74855e-03,9.40801e-01,9.99999e-01
1.364304097e+00,1.60341e-02,1.70225e-02,9.41935e-01,9.99999e-01
1.371125618e+00,1.12038e-01,1.18804e-01,9.43049e-01,9.99999e-01
1.377981246e+00,1.66517e-01,1.76369e-01,9.44142e-01,9.99999e-01
1.384871152e+00,3.44625e-01,3.64600e-01,9.45214e-01,9.99999e-01
1.391795508e+00,3.72738e-01,3.93903e-01,9.46267e-01,9.99999e-01
1.398754485e+00,5.33430e-01,5.63106e-01,9.47300e-01,9.99999e-01
1.405748258e+00,6.21415e-01,6.55284e-01,9.48313e-01,9.99999e-01
1.412776999e+00,7.27108e-01,7.65934e-01,9.49308e-01,9.99999e-01
1.419840884e+00,6.55297e-01,6.89579e-01,9.50284e-01,9.99999e-01
1.426940089e+00,6.96112e-02,7.31792e-02,9.51242e-01,9.99999e-01
1.434074789e+00,0.00000e+00,0.00000e+00,9.52181e-01,9.99999e-01
1.441245163e+00,0.00000e+00,0.00000e+00,9.53103e-01,9.99999e-01
1.448451389e+00,0.00000e+00,0.00000e+00,9.54008e-01,9.99999e-01
1.455693646e+00,7.93163e-257,8.30627e-257,9.54896e-01,9.99999e-01
1.462972114e+00,1.08119e-124,1.13123e-124,9.55766e-01,9.99999e-01
1.470286975e+00,1.24318e-52,1.29956e-52,9.56621e-01,9.99999e-01
1.477638409e+00,1.23605e-33,1.29097e-33,9.57459e-01,9.99999e-01
1.485026601e+00,2.70296e-19,2.82063e-19,9.58282e-01,9.99999e-01
1.492451734e+00,1.89263e-16,1.97336e-16,9.59089e-01,9.99999e-01
1.499913993e+00,5.91174e-08,6.15883e-08,9.59880e-01,9.99999e-01
1.507413563e+00,8.12291e-07,8.45557e-07,9.60657e-01,9.99999e-01
1.514950631e+00,3.30881e-08,3.44159e-08,9.61419e-01,9.99999e-01
1.522525384e+00,2.40378e-24,2.49830e-24,9.62166e-01,9.99999e-01
1.530138011e+00,5.03198e-56,5.22586e-56,9.62900e-01,9.99999e-01
1.537788701e+00,7.86453e-42,8.16144e-42,9.63619e-01,9.99999e-01
1.545477645e+00,5.09080e-10,5.27913e-10,9.64324e-01,9.99999e-01
1.553205033e+00,6.58964e-07,6.82852e-07,9.65017e-01,9.99999e-01
1.560971058e+00,1.69427e-07,1.75445e-07,9.65696e-01,9.99999e-01
1.568775913e+00,8.35715e-140,8.64804e-140,9.66362e-01,9.99999e-01
1.576619793e+00,0.00000e+00,0.00000e+00,9.67015e-01,9.99999e-01
1.584502892e+00,1.71652e-178,1.77389e-178,9.67656e-01,9.99999e-01
1.592425406e+00,1.09152e-124,1.12727e-124,9.68285e-01,9.99999e-01
1.600387533e+00,2.40972e-200,2.48706e-200,9.68901e-01,9.99999e-01
1.608389471e+00,0.00000e+00,0.00000e+00,9.69506e-01,9.99999e-01
1.616431418e+00,0.00000e+00,0.00000e+00,9.70099e-01,9.99999e-01
1.624513575e+00,3.82576e-158,3.94131e-158,9.70681e-01,9.99999e-01
1.632636143e+00,9.50596e-118,9.78732e-118,9.71252e-01,9.99999e-01
1.640799324e+00,7.17811e-49,7.38631e-49,9.71811e-01,9.99999e-01
1.649003321e+00,7.44421e-49,7.65581e-49,9.72360e-01,9.99999e-01
1.657248337e+00,4.79253e-38,4.92602e-38,9.72899e-01,9.99999e-01
1.665534579e+00,2.63941e-38,2.71146e-38,9.73427e-01,9.99999e-01
1.673862252e+00,7.37178e-25,7.56898e-25,9.73945e-01,9.99999e-01
1.682231563e+00,1.19637e-17,1.22773e-17,9.74453e-01,9.99999e-01
1.690642721e+00,1.92713e-10,1.97664e-10,9.74951e-01,9.99999e-01
1.699095934e+00,8.28223e-07,8.49075e-07,9.75440e-01,9.99999e-01
1.707591414e+00,5.74721e-04,5.88901e-04,9.75919e-01,9.99999e-01
1.716129371e+00,1.58099e-02,1.61922e-02,9.76389e-01,9.99999e-01
1.724710018e+00,1.04183e-01,1.06652e-01,9.76850e-01,9.99999e-01
1.733333568e+00,2.29106e-01,2.34427e-01,9.77302e-01,9.99999e-01
1.742000236e+00,4.02748e-01,4.11915e-01,9.77745e-01,9.99999e-01
1.750710237e+00,1.55292e-02,1.58756e-02,9.78180e-01,9.99999e-01
1.759463788e+00,9.79339e-24,1.00075e-23,9.78606e-01,9.99999e-01
1.768261107e+00,5.62163e-25,5.74207e-25,9.79024e-01,9.99999e-01
1.777102413e+00,7.25770e-24,7.41008e-24,9.79434e-01,9.99999e-01
1.785987925e+00,8.03667e-23,8.20205e-23,9.79837e-01,9.99999e-01
1.794917864e+00,1.09114e-21,1.11315e-21,9.80231e-01,9.99999e-01
1.803892454e+00,3.73789e-21,3.81177e-21,9.80617e-01,9.99999e-01
1.812911916e+00,3.42726e-20,3.49364e-20,9.80997e-01,9.99999e-01
1.821976476e+00,2.29968e-20,2.34334e-20,9.81368e-01,9.99999e-01
1.831086358e+00,1.22617e-16,1.24899e-16,9.81733e-01,9.99999e-01
1.840241790e+00,4.07810e-14,4.15247e-14,9.82091e-01,9.99999e-01
1.849442999e+00,6.27409e-10,6.38622e-10,9.82441e-01,9.99999e-01
1.858690214e+00,4.07153e-09,4.14285e-09,9.82785e-01,9.99999e-01
1.867983665e+00,5.84808e-10,5.94847e-10,9.83122e-01,9.99999e-01
1.877323583e+00,2.36295e-44,2.40271e-44,9.83453e-01,9.99999e-01
