#,Wave/freq,Total,CO2,Rayleigh,CIA
4.000000000e-01,9.40615e-11,9.99999e-01,9.40615e-11,9.99999e-01
4.020000000e-01,1.48478e-10,9.99999e-01,1.48478e-10,9.99999e-01
4.040100000e-01,2.32165e-10,9.99999e-01,2.32165e-10,9.99999e-01
4.060300500e-01,3.59828e-10,9.99999e-01,3.59828e-10,9.99999e-01
4.080602003e-01,5.52886e-10,9.99999e-01,5.52886e-10,9.99999e-01
4.101005013e-01,8.42349e-10,9.99999e-01,8.42349e-10,9.99999e-01
4.121510038e-01,1.27273e-09,9.99999e-01,1.27273e-09,9.99999e-01
4.142117588e-01,1.90739e-09,9.99999e-01,1.90739e-09,9.99999e-01
4.162828176e-01,2.83578e-09,9.99999e-01,2.83578e-09,9.99999e-01
4.183642317e-01,4.18315e-09,9.99999e-01,4.18315e-09,9.99999e-01
4.204560528e-01,6.12349e-09,9.99999e-01,6.12349e-09,9.99999e-01
4.225583331e-01,8.89665e-09,9.99999e-01,8.89665e-09,9.99999e-01
4.246711247e-01,1.28307e-08,9.99999e-01,1.28307e-08,9.99999e-01
4.267944804e-01,1.83709e-08,9.99999e-01,1.83709e-08,9.99999e-01
4.289284528e-01,2.61176e-08,9.99999e-01,2.61176e-08,9.99999e-01
4.310730950e-01,3.68738e-08,9.99999e-01,3.68738e-08,9.99999e-01
4.332284605e-01,5.17063e-08,9.99999e-01,5.17063e-08,9.99999e-01
4.353946028e-01,7.20226e-08,9.99999e-01,7.20226e-08,9.99999e-01
4.375715758e-01,9.96671e-08,9.99999e-01,9.96671e-08,9.99999e-01
4.397594337e-01,1.37040e-07,9.99999e-01,1.37040e-07,9.99999e-01
4.419582309e-01,1.87246e-07,9.99999e-01,1.87246e-07,9.99999e-01
4.441680220e-01,2.54272e-07,9.99999e-01,2.54272e-07,9.99999e-01
4.463888621e-01,3.43210e-07,9.99999e-01,3.43210e-07,9.99999e-01
4.486208064e-01,4.60520e-07,9.99999e-01,4.60520e-07,9.99999e-01
4.508639105e-01,6.14349e-07,9.99999e-01,6.14349e-07,9.99999e-01
4.531182300e-01,8.14910e-07,9.99999e-01,8.14910e-07,9.99999e-01
4.553838212e-01,1.07493e-06,9.99999e-01,1.07493e-06,9.99999e-01
4.576607403e-01,1.41018e-06,9.99999e-01,1.41018e-06,9.99999e-01
4.599490440e-01,1.84010e-06,9.99999e-01,1.84010e-06,9.99999e-01
4.622487892e-01,2.38850e-06,9.99999e-01,2.38850e-06,9.99999e-01
4.645600332e-01,3.08440e-06,9.99999e-01,3.08440e-06,9.99999e-01
4.668828333e-01,3.96300e-06,9.99999e-01,3.96300e-06,9.99999e-01
4.692172475e-01,5.06671e-06,9.99999e-01,5.06671e-06,9.99999e-01
4.715633337e-01,6.44645e-06,9.99999e-01,6.44645e-06,9.99999e-01
4.739211504e-01,8.16299e-06,9.99999e-01,8.16299e-06,9.99999e-01
4.762907561e-01,1.02885e-05,9.99999e-01,1.02885e-05,9.99999e-01
4.786722099e-01,1.29084e-05,9.99999e-01,1.29084e-05,9.99999e-01
4.810655710e-01,1.61229e-05,9.99999e-01,1.61229e-05,9.99999e-01
4.834708988e-01,2.00497e-05,9.99999e-01,2.00497e-05,9.99999e-01
4.858882533e-01,2.48258e-05,9.99999e-01,2.48258e-05,9.99999e-01
4.883176946e-01,3.06102e-05,9.99999e-01,3.06102e-05,9.99999e-01
4.907592831e-01,3.75864e-05,9.99999e-01,3.75864e-05,9.99999e-01
4.932130795e-01,4.59658e-05,9.99999e-01,4.59658e-05,9.99999e-01
4.956791449e-01,5.59903e-05,9.99999e-01,5.59903e-05,9.99999e-01
4.981575406e-01,6.79357e-05,9.99999e-01,6.79357e-05,9.99999e-01
5.006483283e-01,8.21154e-05,9.99999e-01,8.21154e-05,9.99999e-01
5.031515699e-01,9.88837e-05,9.99999e-01,9.88837e-05,9.99999e-01
5.056673278e-01,1.18640e-04,9.99999e-01,1.18640e-04,9.99999e-01
5.081956644e-01,1.41832e-04,9.99999e-01,1.41832e-04,9.99999e-01
5.107366428e-01,1.68961e-04,9.99999e-01,1.68961e-04,9.99999e-01
5.132903260e-01,2.00584e-04,9.99999e-01,2.00584e-04,9.99999e-01
5.158567776e-01,2.37321e-04,9.99999e-01,2.37321e-04,9.99999e-01
5.184360615e-01,2.79854e-04,9.99999e-01,2.79854e-04,9.99999e-01
5.210282418e-01,3.28938e-04,9.99999e-01,3.28938e-04,9.99999e-01
5.236333830e-01,3.85398e-04,9.99999e-01,3.85398e-04,9.99999e-01
5.262515499e-01,4.50139e-04,9.99999e-01,4.50139e-04,9.99999e-01
5.288828077e-01,5.24144e-04,9.99999e-01,5.24144e-04,9.99999e-01
5.315272217e-01,6.08485e-04,9.99999e-01,6.08485e-04,9.99999e-01
5.341848578e-01,7.04318e-04,9.99999e-01,7.04318e-04,9.99999e-01
5.368557821e-01,8.12893e-04,9.99999e-01,8.12893e-04,9.99999e-01
5.395400610e-01,9.35552e-04,9.99999e-01,9.35552e-04,9.99999e-01
5.422377613e-01,1.07373e-03,9.99999e-01,1.07373e-03,9.99999e-01
5.449489501e-01,1.22898e-03,9.99999e-01,1.22898e-03,9.99999e-01
5.476736949e-01,1.40292e-03,9.99999e-01,1.40292e-03,9.99999e-01
5.504120634e-01,1.59730e-03,9.99999e-01,1.59730e-03,9.99999e-01
5.531641237e-01,1.81395e-03,9.99999e-01,1.81395e-03,9.99999e-01
5.559299443e-01,2.05482e-03,9.99999e-01,2.05482e-03,9.99999e-01
5.587095940e-01,2.32196e-03,9.99999e-01,2.32196e-03,9.99999e-01
5.615031420e-01,2.61749e-03,9.99999e-01,2.61749e-03,9.99999e-01
5.643106577e-01,2.94366e-03,9.99999e-01,2.94366e-03,9.99999e-01
5.671322110e-01,3.30281e-03,9.99999e-01,3.30281e-03,9.99999e-01
5.699678720e-01,3.69736e-03,9.99999e-01,3.69736e-03,9.99999e-01
5.728177114e-01,4.12983e-03,9.99999e-01,4.12983e-03,9.99999e-01
5.756818000e-01,4.60281e-03,9.99999e-01,4.60281e-03,9.99999e-01
5.785602090e-01,5.11899e-03,9.99999e-01,5.11899e-03,9.99999e-01
5.814530100e-01,5.68112e-03,9.99999e-01,5.68112e-03,9.99999e-01
5.843602750e-01,6.29201e-03,9.99999e-01,6.29201e-03,9.99999e-01
5.872820764e-01,6.95454e-03,9.99999e-01,6.95454e-03,9.99999e-01
5.902184868e-01,7.67166e-03,9.99999e-01,7.67166e-03,9.99999e-01
5.931695792e-01,8.44633e-03,9.99999e-01,8.44633e-03,9.99999e-01
5.961354271e-01,9.28157e-03,9.99999e-01,9.28157e-03,9.99999e-01
5.991161043e-01,1.01804e-02,9.99999e-01,1.01804e-02,9.99999e-01
6.021116848e-01,1.11460e-02,9.99999e-01,1.11460e-02,9.99999e-01
6.051222432e-01,1.21812e-02,9.99999e-01,1.21812e-02,9.99999e-01
6.081478544e-01,1.32894e-02,9.99999e-01,1.32894e-02,9.99999e-01
6.111885937e-01,1.44734e-02,9.99999e-01,1.44734e-02,9.99999e-01
6.142445367e-01,1.57363e-02,9.99999e-01,1.57363e-02,9.99999e-01
6.173157594e-01,1.70812e-02,9.99999e-01,1.70812e-02,9.99999e-01
6.204023382e-01,1.85110e-02,9.99999e-01,1.85110e-02,9.99999e-01
6.235043498e-01,2.00287e-02,9.99999e-01,2.00287e-02,9.99999e-01
6.266218716e-01,2.16371e-02,9.99999e-01,2.16371e-02,9.99999e-01
6.297549810e-01,2.33391e-02,9.99999e-01,2.33391e-02,9.99999e-01
6.329037559e-01,2.51373e-02,9.99999e-01,2.51373e-02,9.99999e-01
6.360682746e-01,2.70343e-02,9.99999e-01,2.70343e-02,9.99999e-01
6.392486160e-01,2.90328e-02,9.99999e-01,2.90328e-02,9.99999e-01
6.424448591e-01,3.11351e-02,9.99999e-01,3.11351e-02,9.99999e-01
6.456570834e-01,3.33436e-02,9.99999e-01,3.33436e-02,9.99999e-01
6.488853688e-01,3.56605e-02,9.99999e-01,3.56605e-02,9.99999e-01
6.521297956e-01,3.80877e-02,9.99999e-01,3.80877e-02,9.99999e-01
6.553904446e-01,4.06273e-02,9.99999e-01,4.06273e-02,9.99999e-01
6.586673968e-01,4.32810e-02,9.99999e-01,4.32810e-02,9.99999e-01
6.619607338e-01,4.60504e-02,9.99999e-01,4.60504e-02,9.99999e-01
6.652705375e-01,4.89371e-02,9.99999e-01,4.89371e-02,9.99999e-01
6.685968902e-01,5.19423e-02,9.99999e-01,5.19423e-02,9.99999e-01
6.719398746e-01,5.50672e-02,9.99999e-01,5.50672e-02,9.99999e-01
6.752995740e-01,5.83127e-02,9.99999e-01,5.83127e-02,9.99999e-01
6.786760719e-01,6.16797e-02,9.99999e-01,6.16797e-02,9.99999e-01
6.820694522e-01,6.51688e-02,9.99999e-01,6.51688e-02,9.99999e-01
6.854797995e-01,6.87806e-02,9.99999e-01,6.87806e-02,9.99999e-01
6.889071985e-01,7.25151e-02,9.99999e-01,7.25151e-02,9.99999e-01
6.923517345e-01,7.63727e-02,9.99999e-01,7.63727e-02,9.99999e-01
6.958134932e-01,8.03531e-02,9.99999e-01,8.03531e-02,9.99999e-01
6.992925606e-01,8.44562e-02,9.99999e-01,8.44562e-02,9.99999e-01
7.027890234e-01,8.86815e-02,9.99999e-01,8.86815e-02,9.99999e-01
7.063029686e-01,9.30285e-02,9.99999e-01,9.30285e-02,9.99999e-01
7.098344834e-01,9.74964e-02,9.99999e-01,9.74964e-02,9.99999e-01
7.133836558e-01,1.02084e-01,9.99999e-01,1.02084e-01,9.99999e-01
7.169505741e-01,1.06791e-01,9.99999e-01,1.06791e-01,9.99999e-01
7.205353270e-01,1.11615e-01,9.99999e-01,1.11615e-01,9.99999e-01
7.241380036e-01,1.16555e-01,9.99999e-01,1.16555e-01,9.99999e-01
7.277586936e-01,1.21610e-01,9.99999e-01,1.21610e-01,9.99999e-01
7.313974871e-01,1.26778e-01,9.99999e-01,1.26778e-01,9.99999e-01
7.350544745e-01,1.32057e-01,9.99999e-01,1.32057e-01,9.99999e-01
7.387297469e-01,1.37445e-01,9.99999e-01,1.37445e-01,9.99999e-01
7.424233956e-01,1.42940e-01,9.99999e-01,1.42940e-01,9.99999e-01
7.461355126e-01,1.48539e-01,9.99999e-01,1.48539e-01,9.99999e-01
7.498661902e-01,1.54241e-01,9.99999e-01,1.54241e-01,9.99999e-01
7.536155211e-01,1.60042e-01,9.99999e-01,1.60042e-01,9.99999e-01
7.573835987e-01,1.65941e-01,9.99999e-01,1.65941e-01,9.99999e-01
7.611705167e-01,1.71934e-01,9.99999e-01,1.71934e-01,9.99999e-01
7.649763693e-01,1.78018e-01,9.99999e-01,1.78018e-01,9.99999e-01
7.688012511e-01,1.84191e-01,9.99999e-01,1.84191e-01,9.99999e-01
7.726452574e-01,1.90450e-01,9.99999e-01,1.90450e-01,9.99999e-01
7.765084837e-01,1.96792e-01,9.99999e-01,1.96792e-01,9.99999e-01
7.803910261e-01,1.89280e-01,9.31432e-01,2.03214e-01,9.99999e-01
7.842929812e-01,1.51674e-01,7.23250e-01,2.09712e-01,9.99999e-01
7.882144461e-01,1.53063e-01,7.07695e-01,2.16283e-01,9.99999e-01
7.921555184e-01,1.80989e-01,8.11885e-01,2.22924e-01,9.99999e-01
7.961162960e-01,1.99697e-01,8.69637e-01,2.29632e-01,9.99999e-01
8.000968774e-01,2.19127e-01,9.26918e-01,2.36404e-01,9.99999e-01
8.040973618e-01,2.33878e-01,9.61529e-01,2.43235e-01,9.99999e-01
8.081178486e-01,2.45643e-01,9.82089e-01,2.50123e-01,9.99999e-01
8.121584379e-01,2.55644e-01,9.94476e-01,2.57064e-01,9.99999e-01
8.162192301e-01,2.63732e-01,9.98777e-01,2.64055e-01,9.99999e-01
8.203003262e-01,2.71088e-01,9.99982e-01,2.71092e-01,9.99999e-01
8.244018279e-01,2.78173e-01,9.99999e-01,2.78173e-01,9.99999e-01
8.285238370e-01,2.85293e-01,9.99999e-01,2.85293e-01,9.99999e-01
8.326664562e-01,2.92449e-01,9.99999e-01,2.92449e-01,9.99999e-01
8.368297885e-01,2.99638e-01,9.99999e-01,2.99638e-01,9.99999e-01
8.410139374e-01,3.06857e-01,9.99999e-01,3.06857e-01,9.99999e-01
8.452190071e-01,3.14101e-01,9.99999e-01,3.14101e-01,9.99999e-01
8.494451021e-01,3.21369e-01,9.99999e-01,3.21369e-01,9.99999e-01
8.536923276e-01,3.28656e-01,9.99999e-01,3.28656e-01,9.99999e-01
8.579607893e-01,3.35960e-01,9.99999e-01,3.35960e-01,9.99999e-01
8.622505932e-01,3.43277e-01,9.99999e-01,3.43277e-01,9.99999e-01
8.665618462e-01,3.09866e-01,8.83805e-01,3.50604e-01,9.99999e-01
8.708946554e-01,1.59456e-01,4.45486e-01,3.57938e-01,9.99999e-01
8.752491287e-01,1.88149e-01,5.15087e-01,3.65276e-01,9.99999e-01
8.796253743e-01,2.57301e-01,6.90526e-01,3.72615e-01,9.99999e-01
8.840235012e-01,3.12896e-01,8.23513e-01,3.79952e-01,9.99999e-01
8.884436187e-01,3.58742e-01,9.26301e-01,3.87285e-01,9.99999e-01
8.928858368e-01,3.82521e-01,9.69364e-01,3.94610e-01,9.99999e-01
8.973502660e-01,3.98912e-01,9.92504e-01,4.01924e-01,9.99999e-01
9.018370173e-01,4.08888e-01,9.99172e-01,4.09226e-01,9.99999e-01
9.063462024e-01,4.07621e-01,9.78652e-01,4.16513e-01,9.99999e-01
9.108779334e-01,4.03465e-01,9.52059e-01,4.23781e-01,9.99999e-01
9.154323231e-01,4.26125e-01,9.88621e-01,4.31029e-01,9.99999e-01
9.200094847e-01,3.74577e-01,8.54703e-01,4.38254e-01,9.99999e-01
9.246095321e-01,3.50472e-01,7.86774e-01,4.45454e-01,9.99999e-01
9.292325798e-01,3.75309e-01,8.29181e-01,4.52626e-01,9.99999e-01
9.338787427e-01,3.83622e-01,8.34379e-01,4.59769e-01,9.99999e-01
9.385481364e-01,4.08430e-01,8.74805e-01,4.66880e-01,9.99999e-01
9.432408771e-01,4.36652e-01,9.21290e-01,4.73957e-01,9.99999e-01
9.479570815e-01,4.61147e-01,9.58726e-01,4.80999e-01,9.99999e-01
9.526968669e-01,4.78208e-01,9.79926e-01,4.88003e-01,9.99999e-01
9.574603512e-01,4.90696e-01,9.91368e-01,4.94968e-01,9.99999e-01
9.622476530e-01,5.00538e-01,9.97302e-01,5.01892e-01,9.99999e-01
9.670588912e-01,5.08362e-01,9.99192e-01,5.08772e-01,9.99999e-01
9.718941857e-01,5.15580e-01,9.99943e-01,5.15609e-01,9.99999e-01
9.767536566e-01,5.22400e-01,9.99999e-01,5.22400e-01,9.99999e-01
9.816374249e-01,5.29143e-01,9.99999e-01,5.29143e-01,9.99999e-01
9.865456120e-01,5.35837e-01,9.99999e-01,5.35837e-01,9.99999e-01
9.914783401e-01,5.42482e-01,9.99999e-01,5.42482e-01,9.99999e-01
9.964357318e-01,5.49075e-01,9.99999e-01,5.49075e-01,9.99999e-01
1.001417910e+00,5.55616e-01,9.99999e-01,5.55616e-01,9.99999e-01
1.006425000e+00,5.62103e-01,9.99999e-01,5.62103e-01,9.99999e-01
1.011457125e+00,5.68536e-01,9.99999e-01,5.68536e-01,9.99999e-01
1.016514411e+00,5.74913e-01,9.99999e-01,5.74913e-01,9.99999e-01
1.021596983e+00,5.81160e-01,9.99873e-01,5.81233e-01,9.99999e-01
1.026704968e+00,5.82524e-01,9.91535e-01,5.87496e-01,9.99999e-01
1.031838492e+00,5.46763e-01,9.20939e-01,5.93701e-01,9.99999e-01
1.036997685e+00,4.28222e-02,7.13885e-02,5.99847e-01,9.99999e-01
1.042182673e+00,8.27228e-03,1.36521e-02,6.05933e-01,9.99999e-01
1.047393587e+00,1.64382e-02,2.68616e-02,6.11959e-01,9.99999e-01
1.052630555e+00,1.66177e-05,2.68928e-05,6.17924e-01,9.99999e-01
1.057893707e+00,6.07316e-05,9.73531e-05,6.23828e-01,9.99999e-01
1.063183176e+00,6.45899e-04,1.02577e-03,6.29669e-01,9.99999e-01
1.068499092e+00,4.04669e-03,6.36823e-03,6.35449e-01,9.99999e-01
1.073841587e+00,2.54669e-02,3.97197e-02,6.41166e-01,9.99999e-01
1.079210795e+00,8.44579e-02,1.30574e-01,6.46819e-01,9.99999e-01
1.084606849e+00,2.08437e-01,3.19488e-01,6.52410e-01,9.99999e-01
1.090029883e+00,3.62447e-01,5.50884e-01,6.57937e-01,9.99999e-01
1.095480033e+00,4.94330e-01,7.45146e-01,6.63400e-01,9.99999e-01
1.100957433e+00,5.80137e-01,8.67429e-01,6.68799e-01,9.99999e-01
1.106462220e+00,6.35637e-01,9.42892e-01,6.74135e-01,9.99999e-01
1.111994531e+00,6.64748e-01,9.78424e-01,6.79406e-01,9.99999e-01
1.117554504e+00,6.80992e-01,9.94710e-01,6.84613e-01,9.99999e-01
1.123142276e+00,6.89518e-01,9.99653e-01,6.89756e-01,9.99999e-01
1.128757988e+00,6.94835e-01,9.99999e-01,6.94835e-01,9.99999e-01
1.134401778e+00,6.99850e-01,9.99999e-01,6.99850e-01,9.99999e-01
1.140073787e+00,7.04801e-01,9.99999e-01,7.04801e-01,9.99999e-01
1.145774156e+00,7.09688e-01,9.99999e-01,7.09688e-01,9.99999e-01
1.151503026e+00,7.14512e-01,9.99999e-01,7.14512e-01,9.99999e-01
1.157260541e+00,7.19272e-01,9.99999e-01,7.19272e-01,9.99999e-01
1.163046844e+00,7.23968e-01,9.99999e-01,7.23968e-01,9.99999e-01
1.168862078e+00,7.28602e-01,9.99999e-01,7.28602e-01,9.99999e-01
1.174706389e+00,7.33173e-01,9.99999e-01,7.33173e-01,9.99999e-01
1.180579921e+00,7.37682e-01,9.99999e-01,7.37682e-01,9.99999e-01
1.186482820e+00,7.42115e-01,9.99981e-01,7.42128e-01,9.99999e-01
1.192415234e+00,7.24562e-01,9.70594e-01,7.46513e-01,9.99999e-01
1.198377311e+00,4.00604e-01,5.33543e-01,7.50836e-01,9.99999e-01
1.204369197e+00,2.85492e-22,3.78085e-22,7.55098e-01,9.99999e-01
1.210391043e+00,2.88683e-88,3.80196e-88,7.59300e-01,9.99999e-01
1.216442998e+00,1.82418e-76,2.38941e-76,7.63441e-01,9.99999e-01
1.222525213e+00,2.51058e-75,3.27102e-75,7.67522e-01,9.99999e-01
1.228637839e+00,3.26579e-58,4.23280e-58,7.71544e-01,9.99999e-01
1.234781029e+00,1.78101e-36,2.29658e-36,7.75507e-01,9.99999e-01
1.240954934e+00,2.58453e-24,3.31600e-24,7.79411e-01,9.99999e-01
1.247159708e+00,4.39541e-12,5.61171e-12,7.83257e-01,9.99999e-01
1.253395507e+00,3.81915e-08,4.85251e-08,7.87046e-01,9.99999e-01
1.259662485e+00,5.33844e-05,6.75087e-05,7.90777e-01,9.99999e-01
1.265960797e+00,3.67366e-03,4.62414e-03,7.94452e-01,9.99999e-01
1.272290601e+00,6.95353e-02,8.71290e-02,7.98071e-01,9.99999e-01
1.278652054e+00,5.99874e-02,7.48313e-02,8.01635e-01,9.99999e-01
1.285045314e+00,2.00122e-04,2.48555e-04,8.05144e-01,9.99999e-01
1.291470541e+00,9.40507e-11,1.16313e-10,8.08598e-01,9.99999e-01
1.297927893e+00,2.48190e-04,3.05653e-04,8.11998e-01,9.99999e-01
1.304417533e+00,9.19190e-03,1.12736e-02,8.15345e-01,9.99999e-01
1.310939621e+00,1.57235e-03,1.92068e-03,8.18640e-01,9.99999e-01
1.317494319e+00,9.40999e-31,1.14493e-30,8.21882e-01,9.99999e-01
1.324081790e+00,3.87439e-20,4.69581e-20,8.25073e-01,9.99999e-01
1.330702199e+00,5.72204e-12,6.90890e-12,8.28212e-01,9.99999e-01
1.337355710e+00,4.02618e-11,4.84322e-11,8.31301e-01,9.99999e-01
1.344042489e+00,1.76531e-11,2.11582e-11,8.34341e-01,9.99999e-01
1.350762701e+00,3.08826e-12,3.68822e-12,8.37331e-01,9.99999e-01
1.357516515e+00,9.90495e-08,1.17878e-07,8.40272e-01,9.99999e-01
1.364304097e+00,1.24040e-05,1.47112e-05,8.43166e-01,9.99999e-01
1.371125618e+00,2.86320e-03,3.38435e-03,8.46012e-01,9.99999e-01
1.377981246e+00,6.56795e-03,7.73782e-03,8.48811e-01,9.99999e-01
1.384871152e+00,5.01294e-02,5.88674e-02,8.51563e-01,9.99999e-01
1.391795508e+00,6.27005e-02,7.33964e-02,8.54270e-01,9.99999e-01
1.398754485e+00,1.67229e-01,1.95148e-01,8.56932e-01,9.99999e-01
1.405748258e+00,2.60658e-01,3.03249e-01,8.59550e-01,9.99999e-01
1.412776999e+00,4.04206e-01,4.68849e-01,8.62123e-01,9.99999e-01
1.419840884e+00,3.65277e-01,4.22455e-01,8.64653e-01,9.99999e-01
1.426940089e+00,1.73308e-02,1.99861e-02,8.67141e-01,9.99999e-01
1.434074789e+00,0.00000e+00,0.00000e+00,8.69586e-01,9.99999e-01
1.441245163e+00,0.00000e+00,0.00000e+00,8.71989e-01,9.99999e-01
1.448451389e+00,0.00000e+00,0.00000e+00,8.74352e-01,9.99999e-01
1.455693646e+00,0.00000e+00,0.00000e+00,8.76674e-01,9.99999e-01
1.462972114e+00,0.00000e+00,0.00000e+00,8.78956e-01,9.99999e-01
1.470286975e+00,6.56907e-146,7.45469e-146,8.81199e-01,9.99999e-01
1.477638409e+00,9.48088e-92,1.07322e-91,8.83403e-01,9.99999e-01
1.485026601e+00,3.76194e-51,4.24805e-51,8.85569e-01,9.99999e-01
1.492451734e+00,1.40539e-43,1.58319e-43,8.87697e-01,9.99999e-01
1.499913993e+00,5.23021e-19,5.87803e-19,8.89788e-01,9.99999e-01
1.507413563e+00,8.98475e-18,1.00744e-17,8.91843e-01,9.99999e-01
1.514950631e+00,3.01723e-19,3.37550e-19,8.93862e-01,9.99999e-01
1.522525384e+00,2.95674e-65,3.30050e-65,8.95845e-01,9.99999e-01
1.530138011e+00,1.06105e-155,1.18185e-155,8.97793e-01,9.99999e-01
1.537788701e+00,3.34388e-115,3.71663e-115,8.99707e-01,9.99999e-01
1.545477645e+00,2.08238e-24,2.30968e-24,9.01587e-01,9.99999e-01
1.553205033e+00,9.34323e-18,1.03419e-17,9.03434e-01,9.99999e-01
1.560971058e+00,4.12338e-18,4.55497e-18,9.05248e-01,9.99999e-01
1.568775913e+00,0.00000e+00,0.00000e+00,9.07030e-01,9.99999e-01
1.576619793e+00,0.00000e+00,0.00000e+00,9.08780e-01,9.99999e-01
1.584502892e+00,0.00000e+00,0.00000e+00,9.10498e-01,9.99999e-01
1.592425406e+00,0.00000e+00,0.00000e+00,9.12186e-01,9.99999e-01
1.600387533e+00,0.00000e+00,0.00000e+00,9.13844e-01,9.99999e-01
1.608389471e+00,0.00000e+00,0.00000e+00,9.15471e-01,9.99999e-01
1.616431418e+00,0.00000e+00,0.00000e+00,9.17070e-01,9.99999e-01
1.624513575e+00,0.00000e+00,0.00000e+00,9.18639e-01,9.99999e-01
1.632636143e+00,0.00000e+00,0.00000e+00,9.20180e-01,9.99999e-01
1.640799324e+00,3.47893e-135,3.77449e-135,9.21694e-01,9.99999e-01
1.649003321e+00,3.48310e-135,3.77294e-135,9.23179e-01,9.99999e-01
1.657248337e+00,1.73398e-104,1.87531e-104,9.24638e-01,9.99999e-01
1.665534579e+00,3.47765e-105,3.75527e-105,9.26070e-01,9.99999e-01
1.673862252e+00,4.24828e-67,4.58047e-67,9.27476e-01,9.99999e-01
1.682231563e+00,1.72769e-46,1.86002e-46,9.28856e-01,9.99999e-01
1.690642721e+00,7.22944e-26,7.77182e-26,9.30211e-01,9.99999e-01
1.699095934e+00,1.51097e-16,1.62201e-16,9.31542e-01,9.99999e-01
1.707591414e+00,1.19895e-08,1.28525e-08,9.32847e-01,9.99999e-01
1.716129371e+00,2.41964e-05,2.59027e-05,9.34129e-01,9.99999e-01
1.724710018e+00,2.19544e-03,2.34709e-03,9.35387e-01,9.99999e-01
1.733333568e+00,1.66368e-02,1.77626e-02,9.36622e-01,9.99999e-01
1.742000236e+00,8.88654e-02,9.47559e-02,9.37834e-01,9.99999e-01
1.750710237e+00,4.81462e-04,5.12726e-04,9.39024e-01,9.99999e-01
1.759463788e+00,4.49921e-64,4.78541e-64,9.40192e-01,9.99999e-01
1.768261107e+00,4.69900e-67,4.99183e-67,9.41338e-01,9.99999e-01
1.777102413e+00,2.73530e-65,2.90229e-65,9.42462e-01,9.99999e-01
1.785987925e+00,3.45255e-61,3.65904e-61,9.43566e-01,9.99999e-01
1.794917864e+00,1.96178e-58,2.07673e-58,9.44649e-01,9.99999e-01
1.803892454e+00,3.64474e-56,3.85396e-56,9.45712e-01,9.99999e-01
1.812911916e+00,5.70082e-54,6.02142e-54,9.46756e-01,9.99999e-01
1.821976476e+00,4.96589e-54,5.23950e-54,9.47779e-01,9.99999e-01
1.831086358e+00,2.13851e-43,2.25394e-43,9.48784e-01,9.99999e-01
1.840241790e+00,5.77004e-37,6.07519e-37,9.49770e-01,9.99999e-01
1.849442999e+00,1.04707e-25,1.10133e-25,9.50737e-01,9.99999e-01
1.858690214e+00,3.67366e-24,3.86016e-24,9.51686e-01,9.99999e-01
1.867983665e+00,8.63094e-25,9.06023e-25,9.52617e-01,9.99999e-01
1.877323583e+00,2.04262e-122,2.14216e-122,9.53531e-01,9.99999e-01
