#,Wave/freq,Total,CO2,Rayleigh,CIA
4.000000000e-01,4.74228e-04,9.99999e-01,4.74228e-04,9.99999e-01
4.020000000e-01,5.51709e-04,9.99999e-01,5.51709e-04,9.99999e-01
4.040100000e-01,6.39837e-04,9.99999e-01,6.39837e-04,9.99999e-01
4.060300500e-01,7.39874e-04,9.99999e-01,7.39874e-04,9.99999e-01
4.080602003e-01,8.53099e-04,9.99999e-01,8.53099e-04,9.99999e-01
4.101005013e-01,9.80889e-04,9.99999e-01,9.80889e-04,9.99999e-01
4.121510038e-01,1.12472e-03,9.99999e-01,1.12472e-03,9.99999e-01
4.142117588e-01,1.28615e-03,9.99999e-01,1.28615e-03,9.99999e-01
4.162828176e-01,1.46687e-03,9.99999e-01,1.46687e-03,9.99999e-01
4.183642317e-01,1.66864e-03,9.99999e-01,1.66864e-03,9.99999e-01
4.204560528e-01,1.89333e-03,9.99999e-01,1.89333e-03,9.99999e-01
4.225583331e-01,2.14293e-03,9.99999e-01,2.14293e-03,9.99999e-01
4.246711247e-01,2.41951e-03,9.99999e-01,2.41951e-03,9.99999e-01
4.267944804e-01,2.72524e-03,9.99999e-01,2.72524e-03,9.99999e-01
4.289284528e-01,3.06240e-03,9.99999e-01,3.06240e-03,9.99999e-01
4.310730950e-01,3.43336e-03,9.99999e-01,3.43336e-03,9.99999e-01
4.332284605e-01,3.84056e-03,9.99999e-01,3.84056e-03,9.99999e-01
4.353946028e-01,4.28656e-03,9.99999e-01,4.28656e-03,9.99999e-01
4.375715758e-01,4.77398e-03,9.99999e-01,4.77398e-03,9.99999e-01
4.397594337e-01,5.30552e-03,9.99999e-01,5.30552e-03,9.99999e-01
4.419582309e-01,5.88397e-03,9.99999e-01,5.88397e-03,9.99999e-01
4.441680220e-01,6.51216e-03,9.99999e-01,6.51216e-03,9.99999e-01
4.463888621e-01,7.19299e-03,9.99999e-01,7.19299e-03,9.99999e-01
4.486208064e-01,7.92941e-03,9.99999e-01,7.92941e-03,9.99999e-01
4.508639105e-01,8.72441e-03,9.99999e-01,8.72441e-03,9.99999e-01
4.531182300e-01,9.58101e-03,9.99999e-01,9.58101e-03,9.99999e-01
4.553838212e-01,1.05023e-02,9.99999e-01,1.05023e-02,9.99999e-01
4.576607403e-01,1.14913e-02,9.99999e-01,1.14913e-02,9.99999e-01
4.599490440e-01,1.25511e-02,9.99999e-01,1.25511e-02,9.99999e-01
4.622487892e-01,1.36847e-02,9.99999e-01,1.36847e-02,9.99999e-01
4.645600332e-01,1.48953e-02,9.99999e-01,1.48953e-02,9.99999e-01
4.668828333e-01,1.61859e-02,9.99999e-01,1.61859e-02,9.99999e-01
4.692172475e-01,1.75595e-02,9.99999e-01,1.75595e-02,9.99999e-01
4.715633337e-01,1.90189e-02,9.99999e-01,1.90189e-02,9.99999e-01
4.739211504e-01,2.05673e-02,9.99999e-01,2.05673e-02,9.99999e-01
4.762907561e-01,2.22073e-02,9.99999e-01,2.22073e-02,9.99999e-01
4.786722099e-01,2.39418e-02,9.99999e-01,2.39418e-02,9.99999e-01
4.810655710e-01,2.57734e-02,9.99999e-01,2.57734e-02,9.99999e-01
4.834708988e-01,2.77048e-02,9.99999e-01,2.77048e-02,9.99999e-01
4.858882533e-01,2.97385e-02,9.99999e-01,2.97385e-02,9.99999e-01
4.883176946e-01,3.18768e-02,9.99999e-01,3.18768e-02,9.99999e-01
4.907592831e-01,3.41220e-02,9.99999e-01,3.41220e-02,9.99999e-01
4.932130795e-01,3.64763e-02,9.99999e-01,3.64763e-02,9.99999e-01
4.956791449e-01,3.89417e-02,9.99999e-01,3.89417e-02,9.99999e-01
4.981575406e-01,4.15200e-02,9.99999e-01,4.15200e-02,9.99999e-01
5.006483283e-01,4.42130e-02,9.99999e-01,4.42130e-02,9.99999e-01
5.031515699e-01,4.70223e-02,9.99999e-01,4.70223e-02,9.99999e-01
5.056673278e-01,4.99493e-02,9.99999e-01,4.99493e-02,9.99999e-01
5.081956644e-01,5.29952e-02,9.99999e-01,5.29952e-02,9.99999e-01
5.107366428e-01,5.61611e-02,9.99999e-01,5.61611e-02,9.99999e-01
5.132903260e-01,5.94481e-02,9.99999e-01,5.94481e-02,9.99999e-01
5.158567776e-01,6.28567e-02,9.99999e-01,6.28567e-02,9.99999e-01
5.184360615e-01,6.63876e-02,9.99999e-01,6.63876e-02,9.99999e-01
5.210282418e-01,7.00412e-02,9.99999e-01,7.00412e-02,9.99999e-01
5.236333830e-01,7.38178e-02,9.99999e-01,7.38178e-02,9.99999e-01
5.262515499e-01,7.77173e-02,9.99999e-01,7.77173e-02,9.99999e-01
5.288828077e-01,8.17396e-02,9.99999e-01,8.17396e-02,9.99999e-01
5.315272217e-01,8.58845e-02,9.99999e-01,8.58845e-02,9.99999e-01
5.341848578e-01,9.01514e-02,9.99999e-01,9.01514e-02,9.99999e-01
5.368557821e-01,9.45397e-02,9.99999e-01,9.45397e-02,9.99999e-01
5.395400610e-01,9.90486e-02,9.99999e-01,9.90486e-02,9.99999e-01
5.422377613e-01,1.03677e-01,9.99999e-01,1.03677e-01,9.99999e-01
5.449489501e-01,1.08424e-01,9.99999e-01,1.08424e-01,9.99999e-01
5.476736949e-01,1.13288e-01,9.99999e-01,1.13288e-01,9.99999e-01
5.504120634e-01,1.18268e-01,9.99999e-01,1.18268e-01,9.99999e-01
5.531641237e-01,1.23362e-01,9.99999e-01,1.23362e-01,9.99999e-01
5.559299443e-01,1.28567e-01,9.99999e-01,1.28567e-01,9.99999e-01
5.587095940e-01,1.33884e-01,9.99999e-01,1.33884e-01,9.99999e-01
5.615031420e-01,1.39308e-01,9.99999e-01,1.39308e-01,9.99999e-01
5.643106577e-01,1.44839e-01,9.99999e-01,1.44839e-01,9.99999e-01
5.671322110e-01,1.50474e-01,9.99999e-01,1.50474e-01,9.99999e-01
5.699678720e-01,1.56210e-01,9.99999e-01,1.56210e-01,9.99999e-01
5.728177114e-01,1.62044e-01,9.99999e-01,1.62044e-01,9.99999e-01
5.756818000e-01,1.67975e-01,9.99999e-01,1.67975e-01,9.99999e-01
5.785602090e-01,1.74000e-01,9.99999e-01,1.74000e-01,9.99999e-01
5.814530100e-01,1.80115e-01,9.99999e-01,1.80115e-01,9.99999e-01
5.843602750e-01,1.86318e-01,9.99999e-01,1.86318e-01,9.99999e-01
5.872820764e-01,1.92606e-01,9.99999e-01,1.92606e-01,9.99999e-01
5.902184868e-01,1.98975e-01,9.99999e-01,1.98975e-01,9.99999e-01
5.931695792e-01,2.05423e-01,9.99999e-01,2.05423e-01,9.99999e-01
5.961354271e-01,2.11946e-01,9.99999e-01,2.11946e-01,9.99999e-01
5.991161043e-01,2.18542e-01,9.99999e-01,2.18542e-01,9.99999e-01
6.021116848e-01,2.25206e-01,9.99999e-01,2.25206e-01,9.99999e-01
6.051222432e-01,2.31936e-01,9.99999e-01,2.31936e-01,9.99999e-01
6.081478544e-01,2.38728e-01,9.99999e-01,2.38728e-01,9.99999e-01
6.111885937e-01,2.45579e-01,9.99999e-01,2.45579e-01,9.99999e-01
6.142445367e-01,2.52486e-01,9.99999e-01,2.52486e-01,9.99999e-01
6.173157594e-01,2.59444e-01,9.99999e-01,2.59444e-01,9.99999e-01
6.204023382e-01,2.66452e-01,9.99999e-01,2.66452e-01,9.99999e-01
6.235043498e-01,2.73504e-01,9.99999e-01,2.73504e-01,9.99999e-01
6.266218716e-01,2.80598e-01,9.99999e-01,2.80598e-01,9.99999e-01
6.297549810e-01,2.87731e-01,9.99999e-01,2.87731e-01,9.99999e-01
6.329037559e-01,2.94899e-01,9.99999e-01,2.94899e-01,9.99999e-01
6.360682746e-01,3.02098e-01,9.99999e-01,3.02098e-01,9.99999e-01
6.392486160e-01,3.09326e-01,9.99999e-01,3.09326e-01,9.99999e-01
6.424448591e-01,3.16579e-01,9.99999e-01,3.16579e-01,9.99999e-01
6.456570834e-01,3.23854e-01,9.99999e-01,3.23854e-01,9.99999e-01
6.488853688e-01,3.31147e-01,9.99999e-01,3.31147e-01,9.99999e-01
6.521297956e-01,3.38456e-01,9.99999e-01,3.38456e-01,9.99999e-01
6.553904446e-01,3.45776e-01,9.99999e-01,3.45776e-01,9.99999e-01
6.586673968e-01,3.53106e-01,9.99999e-01,3.53106e-01,9.99999e-01
6.619607338e-01,3.60442e-01,9.99999e-01,3.60442e-01,9.99999e-01
6.652705375e-01,3.67780e-01,9.99999e-01,3.67780e-01,9.99999e-01
6.685968902e-01,3.75119e-01,9.99999e-01,3.75119e-01,9.99999e-01
6.719398746e-01,3.82455e-01,9.99999e-01,3.82455e-01,9.99999e-01
6.752995740e-01,3.89785e-01,9.99999e-01,3.89785e-01,9.99999e-01
6.786760719e-01,3.97107e-01,9.99999e-01,3.97107e-01,9.99999e-01
6.820694522e-01,4.04418e-01,9.99999e-01,4.04418e-01,9.99999e-01
6.854797995e-01,4.11715e-01,9.99999e-01,4.11715e-01,9.99999e-01
6.889071985e-01,4.18995e-01,9.99999e-01,4.18995e-01,9.99999e-01
6.923517345e-01,4.26257e-01,9.99999e-01,4.26257e-01,9.99999e-01
6.958134932e-01,4.33497e-01,9.99999e-01,4.33497e-01,9.99999e-01
6.992925606e-01,4.40714e-01,9.99999e-01,4.40714e-01,9.99999e-01
7.027890234e-01,4.47905e-01,9.99999e-01,4.47905e-01,9.99999e-01
7.063029686e-01,4.55067e-01,9.99999e-01,4.55067e-01,9.99999e-01
7.098344834e-01,4.62199e-01,9.99999e-01,4.62199e-01,9.99999e-01
7.133836558e-01,4.69299e-01,9.99999e-01,4.69299e-01,9.99999e-01
7.169505741e-01,4.76365e-01,9.99999e-01,4.76365e-01,9.99999e-01
7.205353270e-01,4.83394e-01,9.99999e-01,4.83394e-01,9.99999e-01
7.241380036e-01,4.90385e-01,9.99999e-01,4.90385e-01,9.99999e-01
7.277586936e-01,4.97335e-01,9.99999e-01,4.97335e-01,9.99999e-01
7.313974871e-01,5.04245e-01,9.99999e-01,5.04245e-01,9.99999e-01
7.350544745e-01,5.11111e-01,9.99999e-01,5.11111e-01,9.99999e-01
7.387297469e-01,5.17932e-01,9.99999e-01,5.17932e-01,9.99999e-01
7.424233956e-01,5.24706e-01,9.99999e-01,5.24706e-01,9.99999e-01
7.461355126e-01,5.31433e-01,9.99999e-01,5.31433e-01,9.99999e-01
7.498661902e-01,5.38111e-01,9.99999e-01,5.38111e-01,9.99999e-01
7.536155211e-01,5.44738e-01,9.99999e-01,5.44738e-01,9.99999e-01
7.573835987e-01,5.51313e-01,9.99999e-01,5.51313e-01,9.99999e-01
7.611705167e-01,5.57836e-01,9.99999e-01,5.57836e-01,9.99999e-01
7.649763693e-01,5.64305e-01,9.99999e-01,5.64305e-01,9.99999e-01
7.688012511e-01,5.70718e-01,9.99999e-01,5.70718e-01,9.99999e-01
7.726452574e-01,5.77076e-01,9.99999e-01,5.77076e-01,9.99999e-01
7.765084837e-01,5.83377e-01,9.99999e-01,5.83377e-01,9.99999e-01
7.803910261e-01,5.73714e-01,9.73022e-01,5.89620e-01,9.99999e-01
7.842929812e-01,5.32795e-01,8.94243e-01,5.95805e-01,9.99999e-01
7.882144461e-01,5.33340e-01,8.86049e-01,6.01931e-01,9.99999e-01
7.921555184e-01,5.66863e-01,9.32345e-01,6.07996e-01,9.99999e-01
7.961162960e-01,5.86190e-01,9.54703e-01,6.14001e-01,9.99999e-01
8.000968774e-01,6.04527e-01,9.75128e-01,6.19946e-01,9.99999e-01
8.040973618e-01,6.17759e-01,9.87106e-01,6.25828e-01,9.99999e-01
8.081178486e-01,6.27880e-01,9.94033e-01,6.31649e-01,9.99999e-01
8.121584379e-01,6.36246e-01,9.98177e-01,6.37407e-01,9.99999e-01
8.162192301e-01,6.42843e-01,9.99596e-01,6.43102e-01,9.99999e-01
8.203003262e-01,6.48731e-01,9.99994e-01,6.48734e-01,9.99999e-01
8.244018279e-01,6.54303e-01,9.99999e-01,6.54303e-01,9.99999e-01
8.285238370e-01,6.59808e-01,9.99999e-01,6.59808e-01,9.99999e-01
8.326664562e-01,6.65250e-01,9.99999e-01,6.65250e-01,9.99999e-01
8.368297885e-01,6.70627e-01,9.99999e-01,6.70627e-01,9.99999e-01
8.410139374e-01,6.75941e-01,9.99999e-01,6.75941e-01,9.99999e-01
8.452190071e-01,6.81190e-01,9.99999e-01,6.81190e-01,9.99999e-01
8.494451021e-01,6.86375e-01,9.99999e-01,6.86375e-01,9.99999e-01
8.536923276e-01,6.91497e-01,9.99999e-01,6.91497e-01,9.99999e-01
8.579607893e-01,6.96554e-01,9.99999e-01,6.96554e-01,9.99999e-01
8.622505932e-01,7.01547e-01,9.99999e-01,7.01547e-01,9.99999e-01
8.665618462e-01,6.60997e-01,9.35625e-01,7.06476e-01,9.99999e-01
8.708946554e-01,5.33384e-01,7.49827e-01,7.11341e-01,9.99999e-01
8.752491287e-01,5.69362e-01,7.95039e-01,7.16143e-01,9.99999e-01
8.796253743e-01,6.36067e-01,8.82346e-01,7.20882e-01,9.99999e-01
8.840235012e-01,6.80073e-01,9.37311e-01,7.25557e-01,9.99999e-01
8.884436187e-01,7.11881e-01,9.74952e-01,7.30169e-01,9.99999e-01
8.928858368e-01,7.27199e-01,9.89764e-01,7.34719e-01,9.99999e-01
8.973502660e-01,7.37375e-01,9.97521e-01,7.39206e-01,9.99999e-01
9.018370173e-01,7.43430e-01,9.99727e-01,7.43632e-01,9.99999e-01
9.063462024e-01,7.42534e-01,9.92698e-01,7.47995e-01,9.99999e-01
9.108779334e-01,7.40139e-01,9.83837e-01,7.52298e-01,9.99999e-01
9.154323231e-01,7.53693e-01,9.96237e-01,7.56539e-01,9.99999e-01
9.200094847e-01,7.17959e-01,9.43788e-01,7.60720e-01,9.99999e-01
9.246095321e-01,7.06079e-01,9.23171e-01,7.64840e-01,9.99999e-01
9.292325798e-01,7.21475e-01,9.38319e-01,7.68901e-01,9.99999e-01
9.338787427e-01,7.27431e-01,9.41167e-01,7.72903e-01,9.99999e-01
9.385481364e-01,7.43007e-01,9.56440e-01,7.76846e-01,9.99999e-01
9.432408771e-01,7.59812e-01,9.73206e-01,7.80730e-01,9.99999e-01
9.479570815e-01,7.73677e-01,9.86133e-01,7.84556e-01,9.99999e-01
9.526968669e-01,7.83051e-01,9.93308e-01,7.88326e-01,9.99999e-01
9.574603512e-01,7.89771e-01,9.97137e-01,7.92038e-01,9.99999e-01
9.622476530e-01,7.94984e-01,9.99107e-01,7.95694e-01,9.99999e-01
9.670588912e-01,7.99081e-01,9.99732e-01,7.99294e-01,9.99999e-01
9.718941857e-01,8.02824e-01,9.99981e-01,8.02839e-01,9.99999e-01
9.767536566e-01,8.06329e-01,9.99999e-01,8.06329e-01,9.99999e-01
9.816374249e-01,8.09764e-01,9.99999e-01,8.09764e-01,9.99999e-01
9.865456120e-01,8.13146e-01,9.99999e-01,8.13146e-01,9.99999e-01
9.914783401e-01,8.16476e-01,9.99999e-01,8.16476e-01,9.99999e-01
9.964357318e-01,8.19752e-01,9.99999e-01,8.19752e-01,9.99999e-01
1.001417910e+00,8.22977e-01,9.99999e-01,8.22977e-01,9.99999e-01
1.006425000e+00,8.26150e-01,9.99999e-01,8.26150e-01,9.99999e-01
1.011457125e+00,8.29272e-01,9.99999e-01,8.29272e-01,9.99999e-01
1.016514411e+00,8.32344e-01,9.99999e-01,8.32344e-01,9.99999e-01
1.021596983e+00,8.35329e-01,9.99954e-01,8.35367e-01,9.99999e-01
1.026704968e+00,8.35941e-01,9.97137e-01,8.38340e-01,9.99999e-01
1.031838492e+00,8.07933e-01,9.60377e-01,8.41265e-01,9.99999e-01
1.036997685e+00,1.67325e-01,1.98219e-01,8.44142e-01,9.99999e-01
1.042182673e+00,1.71585e-01,2.02586e-01,8.46972e-01,9.99999e-01
1.047393587e+00,1.75727e-01,2.06797e-01,8.49755e-01,9.99999e-01
1.052630555e+00,1.12291e-02,1.31721e-02,8.52492e-01,9.99999e-01
1.057893707e+00,2.53962e-02,2.96967e-02,8.55184e-01,9.99999e-01
1.063183176e+00,6.51869e-02,7.59904e-02,8.57831e-01,9.99999e-01
1.068499092e+00,1.47207e-01,1.71085e-01,8.60433e-01,9.99999e-01
1.073841587e+00,2.84540e-01,3.29714e-01,8.62991e-01,9.99999e-01
1.079210795e+00,4.28907e-01,4.95556e-01,8.65507e-01,9.99999e-01
1.084606849e+00,5.91200e-01,6.81121e-01,8.67980e-01,9.99999e-01
1.090029883e+00,7.13066e-01,8.19229e-01,8.70411e-01,9.99999e-01
1.095480033e+00,7.91327e-01,9.06652e-01,8.72800e-01,9.99999e-01
1.100957433e+00,8.34791e-01,9.53884e-01,8.75149e-01,9.99999e-01
1.106462220e+00,8.60533e-01,9.80711e-01,8.77457e-01,9.99999e-01
1.111994531e+00,8.73399e-01,9.92807e-01,8.79726e-01,9.99999e-01
1.117554504e+00,8.80413e-01,9.98251e-01,8.81955e-01,9.99999e-01
1.123142276e+00,8.84046e-01,9.99885e-01,8.84146e-01,9.99999e-01
1.128757988e+00,8.86299e-01,9.99999e-01,8.86299e-01,9.99999e-01
1.134401778e+00,8.88415e-01,9.99999e-01,8.88415e-01,9.99999e-01
1.140073787e+00,8.90493e-01,9.99999e-01,8.90493e-01,9.99999e-01
1.145774156e+00,8.92536e-01,9.99999e-01,8.92536e-01,9.99999e-01
1.151503026e+00,8.94542e-01,9.99999e-01,8.94542e-01,9.99999e-01
1.157260541e+00,8.96514e-01,9.99999e-01,8.96514e-01,9.99999e-01
1.163046844e+00,8.98450e-01,9.99999e-01,8.98450e-01,9.99999e-01
1.168862078e+00,9.00353e-01,9.99999e-01,9.00353e-01,9.99999e-01
1.174706389e+00,9.02221e-01,9.99999e-01,9.02221e-01,9.99999e-01
1.180579921e+00,9.04057e-01,9.99999e-01,9.04057e-01,9.99999e-01
1.186482820e+00,9.05853e-01,9.99992e-01,9.05860e-01,9.99999e-01
1.192415234e+00,8.98291e-01,9.89709e-01,9.07631e-01,9.99999e-01
1.198377311e+00,5.16863e-01,5.68375e-01,9.09370e-01,9.99999e-01
1.204369197e+00,6.89052e-09,7.56304e-09,9.11078e-01,9.99999e-01
1.210391043e+00,9.03467e-31,9.89823e-31,9.12755e-01,9.99999e-01
1.216442998e+00,7.39269e-27,8.08472e-27,9.14403e-01,9.99999e-01
1.222525213e+00,1.77257e-26,1.93508e-26,9.16020e-01,9.99999e-01
1.228637839e+00,1.76432e-20,1.92273e-20,9.17609e-01,9.99999e-01
1.234781029e+00,1.34905e-13,1.46768e-13,9.19168e-01,9.99999e-01
1.240954934e+00,3.43514e-09,3.73100e-09,9.20700e-01,9.99999e-01
1.247159708e+00,2.22851e-05,2.41650e-05,9.22204e-01,9.99999e-01
1.253395507e+00,2.08223e-03,2.25427e-03,9.23680e-01,9.99999e-01
1.259662485e+00,2.84021e-02,3.07006e-02,9.25130e-01,9.99999e-01
1.265960797e+00,1.23648e-01,1.33449e-01,9.26553e-01,9.99999e-01
1.272290601e+00,4.00322e-01,4.31404e-01,9.27950e-01,9.99999e-01
1.278652054e+00,3.41710e-01,3.67698e-01,9.29322e-01,9.99999e-01
1.285045314e+00,1.07761e-02,1.15789e-02,9.30668e-01,9.99999e-01
1.291470541e+00,2.61192e-04,2.80252e-04,9.31990e-01,9.99999e-01
1.297927893e+00,2.30540e-02,2.47019e-02,9.33287e-01,9.99999e-01
1.304417533e+00,2.02162e-01,2.16317e-01,9.34561e-01,9.99999e-01
1.310939621e+00,3.42678e-02,3.66182e-02,9.35811e-01,9.99999e-01
1.317494319e+00,4.25753e-11,4.54359e-11,9.37038e-01,9.99999e-01
1.324081790e+00,2.61863e-06,2.79099e-06,9.38243e-01,9.99999e-01
1.330702199e+00,1.22168e-04,1.30045e-04,9.39425e-01,9.99999e-01
1.337355710e+00,1.76418e-04,1.87561e-04,9.40585e-01,9.99999e-01
1.344042489e+00,1.37483e-05,1.45991e-05,9.41724e-01,9.99999e-01
1.350762701e+00,8.49931e-05,9.01456e-05,9.42841e-01,9.99999e-01
1.357516515e+00,2.27059e-03,2.40544e-03,9.43938e-01,9.99999e-01
1.364304097e+00,1.99962e-02,2.11597e-02,9.45014e-01,9.99999e-01
1.371125618e+00,1.25770e-01,1.32940e-01,9.46071e-01,9.99999e-01
1.377981246e+00,1.83547e-01,1.93798e-01,9.47107e-01,9.99999e-01
1.384871152e+00,3.65213e-01,3.85195e-01,9.48124e-01,9.99999e-01
1.391795508e+00,3.93355e-01,4.14440e-01,9.49122e-01,9.99999e-01
1.398754485e+00,5.52110e-01,5.81106e-01,9.50102e-01,9.99999e-01
1.405748258e+00,6.37841e-01,6.70660e-01,9.51063e-01,9.99999e-01
1.412776999e+00,7.39987e-01,7.77292e-01,9.52006e-01,9.99999e-01
1.419840884e+00,6.67798e-01,7.00782e-01,9.52931e-01,9.99999e-01
1.426940089e+00,7.30442e-02,7.65791e-02,9.53839e-01,9.99999e-01
1.434074789e+00,0.00000e+00,0.00000e+00,9.54730e-01,9.99999e-01
1.441245163e+00,0.00000e+00,0.00000e+00,9.55604e-01,9.99999e-01
1.448451389e+00,0.00000e+00,0.00000e+00,9.56462e-01,9.99999e-01
1.455693646e+00,5.98729e-243,6.25432e-243,9.57303e-01,9.99999e-01
1.462972114e+00,5.11148e-118,5.33485e-118,9.58128e-01,9.99999e-01
1.470286975e+00,6.93614e-50,7.23314e-50,9.58938e-01,9.99999e-01
1.477638409e+00,6.37344e-32,6.64084e-32,9.59733e-01,9.99999e-01
1.485026601e+00,2.40969e-18,2.50876e-18,9.60512e-01,9.99999e-01
1.492451734e+00,1.21472e-15,1.26365e-15,9.61277e-01,9.99999e-01
1.499913993e+00,1.28642e-07,1.33720e-07,9.62027e-01,9.99999e-01
1.507413563e+00,1.71759e-06,1.78402e-06,9.62763e-01,9.99999e-01
1.514950631e+00,7.01434e-08,7.28017e-08,9.63485e-01,9.99999e-01
1.522525384e+00,3.85065e-23,3.99365e-23,9.64193e-01,9.99999e-01
1.530138011e+00,4.38816e-53,4.54784e-53,9.64888e-01,9.99999e-01
1.537788701e+00,1.15131e-39,1.19236e-39,9.65569e-01,9.99999e-01
1.545477645e+00,1.35160e-09,1.39882e-09,9.66238e-01,9.99999e-01
1.553205033e+00,1.39547e-06,1.44325e-06,9.66893e-01,9.99999e-01
1.560971058e+00,3.50820e-07,3.62590e-07,9.67536e-01,9.99999e-01
1.568775913e+00,2.63440e-132,2.72102e-132,9.68167e-01,9.99999e-01
1.576619793e+00,4.82383e-309,4.97924e-309,9.68786e-01,9.99999e-01
1.584502892e+00,6.95771e-169,7.17738e-169,9.69393e-01,9.99999e-01
1.592425406e+00,5.30590e-118,5.47006e-118,9.69989e-01,9.99999e-01
1.600387533e+00,1.51743e-189,1.56344e-189,9.70572e-01,9.99999e-01
1.608389471e+00,5.07284e-318,5.22356e-318,9.71145e-01,9.99999e-01
1.616431418e+00,5.05429e-320,5.20152e-320,9.71707e-01,9.99999e-01
1.624513575e+00,1.20540e-149,1.23979e-149,9.72258e-01,9.99999e-01
1.632636143e+00,1.88731e-111,1.94008e-111,9.72798e-01,9.99999e-01
1.640799324e+00,2.49734e-46,2.56577e-46,9.73329e-01,9.99999e-01
1.649003321e+00,2.61029e-46,2.68038e-46,9.73848e-01,9.99999e-01
1.657248337e+00,4.41568e-36,4.53189e-36,9.74358e-01,9.99999e-01
1.665534579e+00,2.48918e-36,2.55338e-36,9.74858e-01,9.99999e-01
1.673862252e+00,1.33184e-23,1.36550e-23,9.75349e-01,9.99999e-01
1.682231563e+00,8.69004e-17,8.90528e-17,9.75830e-01,9.99999e-01
1.690642721e+00,5.66765e-10,5.80522e-10,9.76301e-01,9.99999e-01
1.699095934e+00,1.65669e-06,1.69610e-06,9.76764e-01,9.99999e-01
1.707591414e+00,8.28267e-04,8.47576e-04,9.77218e-01,9.99999e-01
1.716129371e+00,1.95460e-02,1.99926e-02,9.77663e-01,9.99999e-01
1.724710018e+00,1.17583e-01,1.20215e-01,9.78099e-01,9.99999e-01
1.733333568e+00,2.48050e-01,2.53493e-01,9.78527e-01,9.99999e-01
1.742000236e+00,4.21488e-01,4.30552e-01,9.78946e-01,9.99999e-01
1.750710237e+00,1.75246e-02,1.78940e-02,9.79358e-01,9.99999e-01
1.759463788e+00,1.54407e-22,1.57596e-22,9.79762e-01,9.99999e-01
1.768261107e+00,9.74796e-24,9.94530e-24,9.80157e-01,9.99999e-01
1.777102413e+00,1.23725e-22,1.26180e-22,9.80545e-01,9.99999e-01
1.785987925e+00,1.10818e-21,1.12973e-21,9.80926e-01,9.99999e-01
1.794917864e+00,1.38011e-20,1.40641e-20,9.81299e-01,9.99999e-01
1.803892454e+00,4.02775e-20,4.10298e-20,9.81665e-01,9.99999e-01
1.812911916e+00,3.45947e-19,3.52280e-19,9.82024e-01,9.99999e-01
1.821976476e+00,2.29405e-19,2.33521e-19,9.82376e-01,9.99999e-01
1.831086358e+00,7.67362e-16,7.80853e-16,9.82721e-01,9.99999e-01
1.840241790e+00,1.97210e-13,2.00609e-13,9.83059e-01,9.99999e-01
1.849442999e+00,1.86518e-09,1.89668e-09,9.83391e-01,9.99999e-01
1.858690214e+00,1.15191e-08,1.17098e-08,9.83716e-01,9.99999e-01
1.867983665e+00,1.61870e-09,1.64496e-09,9.84036e-01,9.99999e-01
1.877323583e+00,4.76809e-42,4.84390e-42,9.84348e-01,9.99999e-01
