#,Wave/freq,Total,CO2,Rayleigh,CIA
4.000000000e-01,8.10301e-03,9.99999e-01,8.10301e-03,9.99999e-01
4.020000000e-01,8.91247e-03,9.99999e-01,8.91247e-03,9.99999e-01
4.040100000e-01,9.78342e-03,9.99999e-01,9.78342e-03,9.99999e-01
4.060300500e-01,1.07197e-02,9.99999e-01,1.07197e-02,9.99999e-01
4.080602003e-01,1.17244e-02,9.99999e-01,1.17244e-02,9.99999e-01
4.101005013e-01,1.28007e-02,9.99999e-01,1.28007e-02,9.99999e-01
4.121510038e-01,1.39514e-02,9.99999e-01,1.39514e-02,9.99999e-01
4.142117588e-01,1.51799e-02,9.99999e-01,1.51799e-02,9.99999e-01
4.162828176e-01,1.64889e-02,9.99999e-01,1.64889e-02,9.99999e-01
4.183642317e-01,1.78816e-02,9.99999e-01,1.78816e-02,9.99999e-01
4.204560528e-01,1.93609e-02,9.99999e-01,1.93609e-02,9.99999e-01
4.225583331e-01,2.09297e-02,9.99999e-01,2.09297e-02,9.99999e-01
4.246711247e-01,2.25909e-02,9.99999e-01,2.25909e-02,9.99999e-01
4.267944804e-01,2.43471e-02,9.99999e-01,2.43471e-02,9.99999e-01
4.289284528e-01,2.62010e-02,9.99999e-01,2.62010e-02,9.99999e-01
4.310730950e-01,2.81553e-02,9.99999e-01,2.81553e-02,9.99999e-01
4.332284605e-01,3.02124e-02,9.99999e-01,3.02124e-02,9.99999e-01
4.353946028e-01,3.23747e-02,9.99999e-01,3.23747e-02,9.99999e-01
4.375715758e-01,3.46444e-02,9.99999e-01,3.46444e-02,9.99999e-01
4.397594337e-01,3.70236e-02,9.99999e-01,3.70236e-02,9.99999e-01
4.419582309e-01,3.95143e-02,9.99999e-01,3.95143e-02,9.99999e-01
4.441680220e-01,4.21184e-02,9.99999e-01,4.21184e-02,9.99999e-01
4.463888621e-01,4.48376e-02,9.99999e-01,4.48376e-02,9.99999e-01
4.486208064e-01,4.76733e-02,9.99999e-01,4.76733e-02,9.99999e-01
4.508639105e-01,5.06271e-02,9.99999e-01,5.06271e-02,9.99999e-01
4.531182300e-01,5.37000e-02,9.99999e-01,5.37000e-02,9.99999e-01
4.553838212e-01,5.68932e-02,9.99999e-01,5.68932e-02,9.99999e-01
4.576607403e-01,6.02076e-02,9.99999e-01,6.02076e-02,9.99999e-01
4.599490440e-01,6.36438e-02,9.99999e-01,6.36438e-02,9.99999e-01
4.622487892e-01,6.72024e-02,9.99999e-01,6.72024e-02,9.99999e-01
4.645600332e-01,7.08838e-02,9.99999e-01,7.08838e-02,9.99999e-01
4.668828333e-01,7.46881e-02,9.99999e-01,7.46881e-02,9.99999e-01
4.692172475e-01,7.86154e-02,9.99999e-01,7.86154e-02,9.99999e-01
4.715633337e-01,8.26655e-02,9.99999e-01,8.26655e-02,9.99999e-01
4.739211504e-01,8.68380e-02,9.99999e-01,8.68380e-02,9.99999e-01
4.762907561e-01,9.11324e-02,9.99999e-01,9.11324e-02,9.99999e-01
4.786722099e-01,9.55480e-02,9.99999e-01,9.55480e-02,9.99999e-01
4.810655710e-01,1.00084e-01,9.99999e-01,1.00084e-01,9.99999e-01
4.834708988e-01,1.04739e-01,9.99999e-01,1.04739e-01,9.99999e-01
4.858882533e-01,1.09513e-01,9.99999e-01,1.09513e-01,9.99999e-01
4.883176946e-01,1.14403e-01,9.99999e-01,1.14403e-01,9.99999e-01
4.907592831e-01,1.19409e-01,9.99999e-01,1.19409e-01,9.99999e-01
4.932130795e-01,1.24528e-01,9.99999e-01,1.24528e-01,9.99999e-01
4.956791449e-01,1.29759e-01,9.99999e-01,1.29759e-01,9.99999e-01
4.981575406e-01,1.35100e-01,9.99999e-01,1.35100e-01,9.99999e-01
5.006483283e-01,1.40549e-01,9.99999e-01,1.40549e-01,9.99999e-01
5.031515699e-01,1.46103e-01,9.99999e-01,1.46103e-01,9.99999e-01
5.056673278e-01,1.51761e-01,9.99999e-01,1.51761e-01,9.99999e-01
5.081956644e-01,1.57519e-01,9.99999e-01,1.57519e-01,9.99999e-01
5.107366428e-01,1.63376e-01,9.99999e-01,1.63376e-01,9.99999e-01
5.132903260e-01,1.69329e-01,9.99999e-01,1.69329e-01,9.99999e-01
5.158567776e-01,1.75374e-01,9.99999e-01,1.75374e-01,9.99999e-01
5.184360615e-01,1.81509e-01,9.99999e-01,1.81509e-01,9.99999e-01
5.210282418e-01,1.87731e-01,9.99999e-01,1.87731e-01,9.99999e-01
5.236333830e-01,1.94038e-01,9.99999e-01,1.94038e-01,9.99999e-01
5.262515499e-01,2.00425e-01,9.99999e-01,2.00425e-01,9.99999e-01
5.288828077e-01,2.06890e-01,9.99999e-01,2.06890e-01,9.99999e-01
5.315272217e-01,2.13430e-01,9.99999e-01,2.13430e-01,9.99999e-01
5.341848578e-01,2.20042e-01,9.99999e-01,2.20042e-01,9.99999e-01
5.368557821e-01,2.26721e-01,9.99999e-01,2.26721e-01,9.99999e-01
5.395400610e-01,2.33466e-01,9.99999e-01,2.33466e-01,9.99999e-01
5.422377613e-01,2.40271e-01,9.99999e-01,2.40271e-01,9.99999e-01
5.449489501e-01,2.47135e-01,9.99999e-01,2.47135e-01,9.99999e-01
5.476736949e-01,2.54054e-01,9.99999e-01,2.54054e-01,9.99999e-01
5.504120634e-01,2.61024e-01,9.99999e-01,2.61024e-01,9.99999e-01
5.531641237e-01,2.68041e-01,9.99999e-01,2.68041e-01,9.99999e-01
5.559299443e-01,2.75104e-01,9.99999e-01,2.75104e-01,9.99999e-01
5.587095940e-01,2.82207e-01,9.99999e-01,2.82207e-01,9.99999e-01
5.615031420e-01,2.89348e-01,9.99999e-01,2.89348e-01,9.99999e-01
5.643106577e-01,2.96523e-01,9.99999e-01,2.96523e-01,9.99999e-01
5.671322110e-01,3.03729e-01,9.99999e-01,3.03729e-01,9.99999e-01
5.699678720e-01,3.10963e-01,9.99999e-01,3.10963e-01,9.99999e-01
5.728177114e-01,3.18221e-01,9.99999e-01,3.18221e-01,9.99999e-01
5.756818000e-01,3.25500e-01,9.99999e-01,3.25500e-01,9.99999e-01
5.785602090e-01,3.32797e-01,9.99999e-01,3.32797e-01,9.99999e-01
5.814530100e-01,3.40109e-01,9.99999e-01,3.40109e-01,9.99999e-01
5.843602750e-01,3.47432e-01,9.99999e-01,3.47432e-01,9.99999e-01
5.872820764e-01,3.54763e-01,9.99999e-01,3.54763e-01,9.99999e-01
5.902184868e-01,3.62100e-01,9.99999e-01,3.62100e-01,9.99999e-01
5.931695792e-01,3.69439e-01,9.99999e-01,3.69439e-01,9.99999e-01
5.961354271e-01,3.76777e-01,9.99999e-01,3.76777e-01,9.99999e-01
5.991161043e-01,3.84112e-01,9.99999e-01,3.84112e-01,9.99999e-01
6.021116848e-01,3.91441e-01,9.99999e-01,3.91441e-01,9.99999e-01
6.051222432e-01,3.98760e-01,9.99999e-01,3.98760e-01,9.99999e-01
6.081478544e-01,4.06068e-01,9.99999e-01,4.06068e-01,9.99999e-01
6.111885937e-01,4.13361e-01,9.99999e-01,4.13361e-01,9.99999e-01
6.142445367e-01,4.20638e-01,9.99999e-01,4.20638e-01,9.99999e-01
6.173157594e-01,4.27895e-01,9.99999e-01,4.27895e-01,9.99999e-01
6.204023382e-01,4.35130e-01,9.99999e-01,4.35130e-01,9.99999e-01
6.235043498e-01,4.42341e-01,9.99999e-01,4.42341e-01,9.99999e-01
6.266218716e-01,4.49526e-01,9.99999e-01,4.49526e-01,9.99999e-01
6.297549810e-01,4.56681e-01,9.99999e-01,4.56681e-01,9.99999e-01
6.329037559e-01,4.63806e-01,9.99999e-01,4.63806e-01,9.99999e-01
6.360682746e-01,4.70899e-01,9.99999e-01,4.70899e-01,9.99999e-01
6.392486160e-01,4.77956e-01,9.99999e-01,4.77956e-01,9.99999e-01
6.424448591e-01,4.84977e-01,9.99999e-01,4.84977e-01,9.99999e-01
6.456570834e-01,4.91959e-01,9.99999e-01,4.91959e-01,9.99999e-01
6.488853688e-01,4.98900e-01,9.99999e-01,4.98900e-01,9.99999e-01
6.521297956e-01,5.05800e-01,9.99999e-01,5.05800e-01,9.99999e-01
6.553904446e-01,5.12656e-01,9.99999e-01,5.12656e-01,9.99999e-01
6.586673968e-01,5.19467e-01,9.99999e-01,5.19467e-01,9.99999e-01
6.619607338e-01,5.26230e-01,9.99999e-01,5.26230e-01,9.99999e-01
6.652705375e-01,5.32946e-01,9.99999e-01,5.32946e-01,9.99999e-01
6.685968902e-01,5.39613e-01,9.99999e-01,5.39613e-01,9.99999e-01
6.719398746e-01,5.46228e-01,9.99999e-01,5.46228e-01,9.99999e-01
6.752995740e-01,5.52792e-01,9.99999e-01,5.52792e-01,9.99999e-01
6.786760719e-01,5.59302e-01,9.99999e-01,5.59302e-01,9.99999e-01
6.820694522e-01,5.65759e-01,9.99999e-01,5.65759e-01,9.99999e-01
6.854797995e-01,5.72160e-01,9.99999e-01,5.72160e-01,9.99999e-01
6.889071985e-01,5.78505e-01,9.99999e-01,5.78505e-01,9.99999e-01
6.923517345e-01,5.84793e-01,9.99999e-01,5.84793e-01,9.99999e-01
6.958134932e-01,5.91023e-01,9.99999e-01,5.91023e-01,9.99999e-01
6.992925606e-01,5.97194e-01,9.99999e-01,5.97194e-01,9.99999e-01
7.027890234e-01,6.03306e-01,9.99999e-01,6.03306e-01,9.99999e-01
7.063029686e-01,6.09359e-01,9.99999e-01,6.09359e-01,9.99999e-01
7.098344834e-01,6.15350e-01,9.99999e-01,6.15350e-01,9.99999e-01
7.133836558e-01,6.21280e-01,9.99999e-01,6.21280e-01,9.99999e-01
7.169505741e-01,6.27149e-01,9.99999e-01,6.27149e-01,9.99999e-01
7.205353270e-01,6.32955e-01,9.99999e-01,6.32955e-01,9.99999e-01
7.241380036e-01,6.38699e-01,9.99999e-01,6.38699e-01,9.99999e-01
7.277586936e-01,6.44380e-01,9.99999e-01,6.44380e-01,9.99999e-01
7.313974871e-01,6.49998e-01,9.99999e-01,6.49998e-01,9.99999e-01
7.350544745e-01,6.55553e-01,9.99999e-01,6.55553e-01,9.99999e-01
7.387297469e-01,6.61044e-01,9.99999e-01,6.61044e-01,9.99999e-01
7.424233956e-01,6.66471e-01,9.99999e-01,6.66471e-01,9.99999e-01
7.461355126e-01,6.71834e-01,9.99999e-01,6.71834e-01,9.99999e-01
7.498661902e-01,6.77133e-01,9.99999e-01,6.77133e-01,9.99999e-01
7.536155211e-01,6.82367e-01,9.99999e-01,6.82367e-01,9.99999e-01
7.573835987e-01,6.87538e-01,9.99999e-01,6.87538e-01,9.99999e-01
7.611705167e-01,6.92645e-01,9.99999e-01,6.92645e-01,9.99999e-01
7.649763693e-01,6.97687e-01,9.99999e-01,6.97687e-01,9.99999e-01
7.688012511e-01,7.02666e-01,9.99999e-01,7.02666e-01,9.99999e-01
7.726452574e-01,7.07581e-01,9.99999e-01,7.07581e-01,9.99999e-01
7.765084837e-01,7.12432e-01,9.99999e-01,7.12432e-01,9.99999e-01
7.803910261e-01,7.05051e-01,9.83033e-01,7.17219e-01,9.99999e-01
7.842929812e-01,6.72282e-01,9.31210e-01,7.21944e-01,9.99999e-01
7.882144461e-01,6.72841e-01,9.26006e-01,7.26605e-01,9.99999e-01
7.921555184e-01,6.99645e-01,9.56841e-01,7.31203e-01,9.99999e-01
7.961162960e-01,7.14479e-01,9.71103e-01,7.35738e-01,9.99999e-01
8.000968774e-01,7.28534e-01,9.84223e-01,7.40212e-01,9.99999e-01
8.040973618e-01,7.38532e-01,9.91819e-01,7.44623e-01,9.99999e-01
8.081178486e-01,7.46150e-01,9.96229e-01,7.48973e-01,9.99999e-01
8.121584379e-01,7.52388e-01,9.98839e-01,7.53261e-01,9.99999e-01
8.162192301e-01,7.57295e-01,9.99743e-01,7.57489e-01,9.99999e-01
8.203003262e-01,7.61653e-01,9.99995e-01,7.61656e-01,9.99999e-01
8.244018279e-01,7.65763e-01,9.99999e-01,7.65763e-01,9.99999e-01
8.285238370e-01,7.69811e-01,9.99999e-01,7.69811e-01,9.99999e-01
8.326664562e-01,7.73799e-01,9.99999e-01,7.73799e-01,9.99999e-01
8.368297885e-01,7.77728e-01,9.99999e-01,7.77728e-01,9.99999e-01
8.410139374e-01,7.81600e-01,9.99999e-01,7.81600e-01,9.99999e-01
8.452190071e-01,7.85413e-01,9.99999e-01,7.85413e-01,9.99999e-01
8.494451021e-01,7.89169e-01,9.99999e-01,7.89169e-01,9.99999e-01
8.536923276e-01,7.92869e-01,9.99999e-01,7.92869e-01,9.99999e-01
8.579607893e-01,7.96512e-01,9.99999e-01,7.96512e-01,9.99999e-01
8.622505932e-01,8.00100e-01,9.99999e-01,8.00100e-01,9.99999e-01
8.665618462e-01,7.67349e-01,9.54850e-01,8.03632e-01,9.99999e-01
8.708946554e-01,6.71187e-01,8.31592e-01,8.07110e-01,9.99999e-01
8.752491287e-01,7.00230e-01,8.63912e-01,8.10533e-01,9.99999e-01
8.796253743e-01,7.51765e-01,9.23654e-01,8.13903e-01,9.99999e-01
8.840235012e-01,7.84421e-01,9.59863e-01,8.17220e-01,9.99999e-01
8.884436187e-01,8.07397e-01,9.84047e-01,8.20485e-01,9.99999e-01
8.928858368e-01,8.18351e-01,9.93508e-01,8.23698e-01,9.99999e-01
8.973502660e-01,8.25558e-01,9.98424e-01,8.26860e-01,9.99999e-01
9.018370173e-01,8.29827e-01,9.99826e-01,8.29971e-01,9.99999e-01
9.063462024e-01,8.29246e-01,9.95454e-01,8.33032e-01,9.99999e-01
9.108779334e-01,8.27480e-01,9.89757e-01,8.36043e-01,9.99999e-01
9.154323231e-01,8.36992e-01,9.97600e-01,8.39005e-01,9.99999e-01
9.200094847e-01,8.11549e-01,9.63926e-01,8.41919e-01,9.99999e-01
9.246095321e-01,8.03177e-01,9.50745e-01,8.44786e-01,9.99999e-01
9.292325798e-01,8.14365e-01,9.60783e-01,8.47605e-01,9.99999e-01
9.338787427e-01,8.18396e-01,9.62390e-01,8.50378e-01,9.99999e-01
9.385481364e-01,8.29459e-01,9.72281e-01,8.53105e-01,9.99999e-01
9.432408771e-01,8.41229e-01,9.82989e-01,8.55786e-01,9.99999e-01
9.479570815e-01,8.50895e-01,9.91230e-01,8.58422e-01,9.99999e-01
9.526968669e-01,8.57370e-01,9.95766e-01,8.61015e-01,9.99999e-01
9.574603512e-01,8.62000e-01,9.98188e-01,8.63564e-01,9.99999e-01
9.622476530e-01,8.65580e-01,9.99435e-01,8.66069e-01,9.99999e-01
9.670588912e-01,8.68386e-01,9.99830e-01,8.68533e-01,9.99999e-01
9.718941857e-01,8.70944e-01,9.99987e-01,8.70954e-01,9.99999e-01
9.767536566e-01,8.73334e-01,9.99999e-01,8.73334e-01,9.99999e-01
9.816374249e-01,8.75674e-01,9.99999e-01,8.75674e-01,9.99999e-01
9.865456120e-01,8.77973e-01,9.99999e-01,8.77973e-01,9.99999e-01
9.914783401e-01,8.80233e-01,9.99999e-01,8.80233e-01,9.99999e-01
9.964357318e-01,8.82454e-01,9.99999e-01,8.82454e-01,9.99999e-01
1.001417910e+00,8.84636e-01,9.99999e-01,8.84636e-01,9.99999e-01
1.006425000e+00,8.86780e-01,9.99999e-01,8.86780e-01,9.99999e-01
1.011457125e+00,8.88888e-01,9.99999e-01,8.88888e-01,9.99999e-01
1.016514411e+00,8.90958e-01,9.99999e-01,8.90958e-01,9.99999e-01
1.021596983e+00,8.92969e-01,9.99973e-01,8.92992e-01,9.99999e-01
1.026704968e+00,8.93406e-01,9.98228e-01,8.94991e-01,9.99999e-01
1.031838492e+00,8.72558e-01,9.72800e-01,8.96954e-01,9.99999e-01
1.036997685e+00,2.65693e-01,2.95581e-01,8.98883e-01,9.99999e-01
1.042182673e+00,3.20560e-01,3.55870e-01,9.00778e-01,9.99999e-01
1.047393587e+00,2.94144e-01,3.25870e-01,9.02639e-01,9.99999e-01
1.052630555e+00,4.74055e-02,5.24126e-02,9.04467e-01,9.99999e-01
1.057893707e+00,8.85105e-02,9.76653e-02,9.06263e-01,9.99999e-01
1.063183176e+00,1.68425e-01,1.85484e-01,9.08026e-01,9.99999e-01
1.068499092e+00,2.95568e-01,3.24886e-01,9.09758e-01,9.99999e-01
1.073841587e+00,4.49254e-01,4.92894e-01,9.11459e-01,9.99999e-01
1.079210795e+00,5.84455e-01,6.40056e-01,9.13130e-01,9.99999e-01
1.084606849e+00,7.17270e-01,7.84097e-01,9.14771e-01,9.99999e-01
1.090029883e+00,8.07927e-01,8.81648e-01,9.16382e-01,9.99999e-01
1.095480033e+00,8.62822e-01,9.39930e-01,9.17964e-01,9.99999e-01
1.100957433e+00,8.92513e-01,9.70632e-01,9.19517e-01,9.99999e-01
1.106462220e+00,9.09774e-01,9.87765e-01,9.21042e-01,9.99999e-01
1.111994531e+00,9.18342e-01,9.95449e-01,9.22540e-01,9.99999e-01
1.117554504e+00,9.22985e-01,9.98890e-01,9.24010e-01,9.99999e-01
1.123142276e+00,9.25387e-01,9.99926e-01,9.25454e-01,9.99999e-01
1.128757988e+00,9.26871e-01,9.99999e-01,9.26871e-01,9.99999e-01
1.134401778e+00,9.28262e-01,9.99999e-01,9.28262e-01,9.99999e-01
1.140073787e+00,9.29628e-01,9.99999e-01,9.29628e-01,9.99999e-01
1.145774156e+00,9.30969e-01,9.99999e-01,9.30969e-01,9.99999e-01
1.151503026e+00,9.32285e-01,9.99999e-01,9.32285e-01,9.99999e-01
1.157260541e+00,9.33577e-01,9.99999e-01,9.33577e-01,9.99999e-01
1.163046844e+00,9.34846e-01,9.99999e-01,9.34846e-01,9.99999e-01
1.168862078e+00,9.36090e-01,9.99999e-01,9.36090e-01,9.99999e-01
1.174706389e+00,9.37312e-01,9.99999e-01,9.37312e-01,9.99999e-01
1.180579921e+00,9.38512e-01,9.99999e-01,9.38512e-01,9.99999e-01
1.186482820e+00,9.39685e-01,9.99995e-01,9.39689e-01,9.99999e-01
1.192415234e+00,9.34844e-01,9.93621e-01,9.40844e-01,9.99999e-01
1.198377311e+00,5.52678e-01,5.86720e-01,9.41978e-01,9.99999e-01
1.204369197e+00,2.00776e-06,2.12891e-06,9.43091e-01,9.99999e-01
1.210391043e+00,3.42831e-20,3.63098e-20,9.44183e-01,9.99999e-01
1.216442998e+00,1.00640e-17,1.06469e-17,9.45255e-01,9.99999e-01
1.222525213e+00,1.82450e-17,1.92802e-17,9.46307e-01,9.99999e-01
1.228637839e+00,1.99448e-13,2.10535e-13,9.47339e-01,9.99999e-01
1.234781029e+00,2.31474e-09,2.44080e-09,9.48351e-01,9.99999e-01
1.240954934e+00,2.37577e-06,2.50253e-06,9.49345e-01,9.99999e-01
1.247159708e+00,6.81761e-04,7.17400e-04,9.50321e-01,9.99999e-01
1.253395507e+00,1.78169e-02,1.87294e-02,9.51278e-01,9.99999e-01
1.259662485e+00,9.97990e-02,1.04807e-01,9.52217e-01,9.99999e-01
1.265960797e+00,2.58168e-01,2.70861e-01,9.53138e-01,9.99999e-01
1.272290601e+00,5.58655e-01,5.85566e-01,9.54042e-01,9.99999e-01
1.278652054e+00,4.94303e-01,5.17632e-01,9.54929e-01,9.99999e-01
1.285045314e+00,3.14613e-02,3.29162e-02,9.55799e-01,9.99999e-01
1.291470541e+00,4.72498e-03,4.93907e-03,9.56653e-01,9.99999e-01
1.297927893e+00,7.21265e-02,7.53286e-02,9.57491e-01,9.99999e-01
1.304417533e+00,3.63389e-01,3.79196e-01,9.58313e-01,9.99999e-01
1.310939621e+00,1.02764e-01,1.07144e-01,9.59119e-01,9.99999e-01
1.317494319e+00,2.27123e-07,2.36608e-07,9.59910e-01,9.99999e-01
1.324081790e+00,1.79252e-05,1.86588e-05,9.60686e-01,9.99999e-01
1.330702199e+00,3.03882e-03,3.16067e-03,9.61448e-01,9.99999e-01
1.337355710e+00,2.15617e-03,2.24088e-03,9.62194e-01,9.99999e-01
1.344042489e+00,7.50436e-04,7.79327e-04,9.62927e-01,9.99999e-01
1.350762701e+00,2.38166e-03,2.47151e-03,9.63646e-01,9.99999e-01
1.357516515e+00,1.84730e-02,1.91559e-02,9.64351e-01,9.99999e-01
1.364304097e+00,8.26955e-02,8.56910e-02,9.65043e-01,9.99999e-01
1.371125618e+00,2.63512e-01,2.72865e-01,9.65721e-01,9.99999e-01
1.377981246e+00,3.42620e-01,3.54537e-01,9.66387e-01,9.99999e-01
1.384871152e+00,5.28926e-01,5.46953e-01,9.67040e-01,9.99999e-01
1.391795508e+00,5.54388e-01,5.72903e-01,9.67680e-01,9.99999e-01
1.398754485e+00,6.87614e-01,7.10118e-01,9.68308e-01,9.99999e-01
1.405748258e+00,7.52634e-01,7.76772e-01,9.68924e-01,9.99999e-01
1.412776999e+00,8.26867e-01,8.52853e-01,9.69529e-01,9.99999e-01
1.419840884e+00,7.66555e-01,7.90163e-01,9.70121e-01,9.99999e-01
1.426940089e+00,1.04127e-01,1.07270e-01,9.70703e-01,9.99999e-01
1.434074789e+00,5.42292e-283,5.58331e-283,9.71273e-01,9.99999e-01
1.441245163e+00,0.00000e+00,0.00000e+00,9.71832e-01,9.99999e-01
1.448451389e+00,0.00000e+00,0.00000e+00,9.72381e-01,9.99999e-01
1.455693646e+00,1.14295e-153,1.17476e-153,9.72919e-01,9.99999e-01
1.462972114e+00,4.46389e-75,4.58565e-75,9.73447e-01,9.99999e-01
1.470286975e+00,3.26306e-32,3.35028e-32,9.73964e-01,9.99999e-01
1.477638409e+00,6.86872e-21,7.04865e-21,9.74472e-01,9.99999e-01
1.485026601e+00,3.01068e-12,3.08797e-12,9.74970e-01,9.99999e-01
1.492451734e+00,1.94627e-10,1.99523e-10,9.75458e-01,9.99999e-01
1.499913993e+00,1.84549e-05,1.89099e-05,9.75937e-01,9.99999e-01
1.507413563e+00,2.18634e-04,2.23916e-04,9.76407e-01,9.99999e-01
1.514950631e+00,9.55711e-06,9.78342e-06,9.76867e-01,9.99999e-01
1.522525384e+00,2.18735e-15,2.23811e-15,9.77319e-01,9.99999e-01
1.530138011e+00,4.00897e-34,4.10014e-34,9.77762e-01,9.99999e-01
1.537788701e+00,1.08905e-25,1.11332e-25,9.78196e-01,9.99999e-01
1.545477645e+00,7.31748e-07,7.47732e-07,9.78622e-01,9.99999e-01
1.553205033e+00,1.75237e-04,1.78989e-04,9.79040e-01,9.99999e-01
1.560971058e+00,4.37708e-05,4.46891e-05,9.79450e-01,9.99999e-01
1.568775913e+00,4.58625e-84,4.68055e-84,9.79852e-01,9.99999e-01
1.576619793e+00,3.02303e-195,3.08395e-195,9.80246e-01,9.99999e-01
1.584502892e+00,4.47705e-107,4.56547e-107,9.80632e-01,9.99999e-01
1.592425406e+00,6.13914e-75,6.25797e-75,9.81011e-01,9.99999e-01
1.600387533e+00,4.50205e-120,4.58745e-120,9.81382e-01,9.99999e-01
1.608389471e+00,6.79836e-201,6.92475e-201,9.81747e-01,9.99999e-01
1.616431418e+00,3.74223e-202,3.81041e-202,9.82104e-01,9.99999e-01
1.624513575e+00,5.66950e-95,5.77075e-95,9.82454e-01,9.99999e-01
1.632636143e+00,6.43895e-71,6.55165e-71,9.82798e-01,9.99999e-01
1.640799324e+00,5.59585e-30,5.69184e-30,9.83135e-01,9.99999e-01
1.649003321e+00,6.72678e-30,6.83986e-30,9.83465e-01,9.99999e-01
1.657248337e+00,2.07484e-23,2.10903e-23,9.83789e-01,9.99999e-01
1.665534579e+00,1.40386e-23,1.42653e-23,9.84107e-01,9.99999e-01
1.673862252e+00,1.55821e-15,1.58288e-15,9.84418e-01,9.99999e-01
1.682231563e+00,3.25155e-11,3.30199e-11,9.84724e-01,9.99999e-01
1.690642721e+00,6.22995e-07,6.32467e-07,9.85023e-01,9.99999e-01
1.699095934e+00,1.52129e-04,1.54396e-04,9.85317e-01,9.99999e-01
1.707591414e+00,9.09015e-03,9.22291e-03,9.85605e-01,9.99999e-01
1.716129371e+00,7.73419e-02,7.84490e-02,9.85887e-01,9.99999e-01
1.724710018e+00,2.54840e-01,2.58415e-01,9.86164e-01,9.99999e-01
1.733333568e+00,4.13906e-01,4.19598e-01,9.86435e-01,9.99999e-01
1.742000236e+00,5.71701e-01,5.79406e-01,9.86701e-01,9.99999e-01
1.750710237e+00,4.30456e-02,4.36142e-02,9.86962e-01,9.99999e-01
1.759463788e+00,8.65873e-15,8.77083e-15,9.87218e-01,9.99999e-01
1.768261107e+00,9.25999e-16,9.37749e-16,9.87469e-01,9.99999e-01
1.777102413e+00,1.11771e-14,1.13161e-14,9.87715e-01,9.99999e-01
1.785987925e+00,2.43495e-14,2.46463e-14,9.87956e-01,9.99999e-01
1.794917864e+00,2.01243e-13,2.03647e-13,9.88193e-01,9.99999e-01
1.803892454e+00,1.88778e-13,1.90989e-13,9.88424e-01,9.99999e-01
1.812911916e+00,1.09873e-12,1.11134e-12,9.88652e-01,9.99999e-01
1.821976476e+00,6.47810e-13,6.55098e-13,9.88875e-01,9.99999e-01
1.831086358e+00,1.14987e-10,1.16254e-10,9.89093e-01,9.99999e-01
1.840241790e+00,5.28184e-09,5.33892e-09,9.89307e-01,9.99999e-01
1.849442999e+00,2.14355e-06,2.16626e-06,9.89517e-01,9.99999e-01
1.858690214e+00,9.41517e-06,9.51292e-06,9.89723e-01,9.99999e-01
1.867983665e+00,1.47319e-06,1.48818e-06,9.89925e-01,9.99999e-01
1.877323583e+00,3.63319e-27,3.66943e-27,9.90123e-01,9.99999e-01
