#,Wave/freq,Total,CO2,Rayleigh,CIA
4.000000000e-01,2.42298e-02,9.99999e-01,2.42298e-02,9.99999e-01
4.020000000e-01,2.60793e-02,9.99999e-01,2.60793e-02,9.99999e-01
4.040100000e-01,2.80271e-02,9.99999e-01,2.80271e-02,9.99999e-01
4.060300500e-01,3.00775e-02,9.99999e-01,3.00775e-02,9.99999e-01
4.080602003e-01,3.22330e-02,9.99999e-01,3.22330e-02,9.99999e-01
4.101005013e-01,3.44957e-02,9.99999e-01,3.44957e-02,9.99999e-01
4.121510038e-01,3.68679e-02,9.99999e-01,3.68679e-02,9.99999e-01
4.142117588e-01,3.93514e-02,9.99999e-01,3.93514e-02,9.99999e-01
4.162828176e-01,4.19482e-02,9.99999e-01,4.19482e-02,9.99999e-01
4.183642317e-01,4.46599e-02,9.99999e-01,4.46599e-02,9.99999e-01
4.204560528e-01,4.74882e-02,9.99999e-01,4.74882e-02,9.99999e-01
4.225583331e-01,5.04343e-02,9.99999e-01,5.04343e-02,9.99999e-01
4.246711247e-01,5.34996e-02,9.99999e-01,5.34996e-02,9.99999e-01
4.267944804e-01,5.66851e-02,9.99999e-01,5.66851e-02,9.99999e-01
4.289284528e-01,5.99917e-02,9.99999e-01,5.99917e-02,9.99999e-01
4.310730950e-01,6.34201e-02,9.99999e-01,6.34201e-02,9.99999e-01
4.332284605e-01,6.69708e-02,9.99999e-01,6.69708e-02,9.99999e-01
4.353946028e-01,7.06443e-02,9.99999e-01,7.06443e-02,9.99999e-01
4.375715758e-01,7.44408e-02,9.99999e-01,7.44408e-02,9.99999e-01
4.397594337e-01,7.83602e-02,9.99999e-01,7.83602e-02,9.99999e-01
4.419582309e-01,8.24024e-02,9.99999e-01,8.24024e-02,9.99999e-01
4.441680220e-01,8.65670e-02,9.99999e-01,8.65670e-02,9.99999e-01
4.463888621e-01,9.08537e-02,9.99999e-01,9.08537e-02,9.99999e-01
4.486208064e-01,9.52616e-02,9.99999e-01,9.52616e-02,9.99999e-01
4.508639105e-01,9.97899e-02,9.99999e-01,9.97899e-02,9.99999e-01
4.531182300e-01,1.04438e-01,9.99999e-01,1.04438e-01,9.99999e-01
4.553838212e-01,1.09204e-01,9.99999e-01,1.09204e-01,9.99999e-01
4.576607403e-01,1.14087e-01,9.99999e-01,1.14087e-01,9.99999e-01
4.599490440e-01,1.19085e-01,9.99999e-01,1.19085e-01,9.99999e-01
4.622487892e-01,1.24197e-01,9.99999e-01,1.24197e-01,9.99999e-01
4.645600332e-01,1.29421e-01,9.99999e-01,1.29421e-01,9.99999e-01
4.668828333e-01,1.34755e-01,9.99999e-01,1.34755e-01,9.99999e-01
4.692172475e-01,1.40197e-01,9.99999e-01,1.40197e-01,9.99999e-01
4.715633337e-01,1.45744e-01,9.99999e-01,1.45744e-01,9.99999e-01
4.739211504e-01,1.51395e-01,9.99999e-01,1.51395e-01,9.99999e-01
4.762907561e-01,1.57148e-01,9.99999e-01,1.57148e-01,9.99999e-01
4.786722099e-01,1.62998e-01,9.99999e-01,1.62998e-01,9.99999e-01
4.810655710e-01,1.68944e-01,9.99999e-01,1.68944e-01,9.99999e-01
4.834708988e-01,1.74984e-01,9.99999e-01,1.74984e-01,9.99999e-01
4.858882533e-01,1.81113e-01,9.99999e-01,1.81113e-01,9.99999e-01
4.883176946e-01,1.87330e-01,9.99999e-01,1.87330e-01,9.99999e-01
4.907592831e-01,1.93631e-01,9.99999e-01,1.93631e-01,9.99999e-01
4.932130795e-01,2.00014e-01,9.99999e-01,2.00014e-01,9.99999e-01
4.956791449e-01,2.06474e-01,9.99999e-01,2.06474e-01,9.99999e-01
4.981575406e-01,2.13009e-01,9.99999e-01,2.13009e-01,9.99999e-01
5.006483283e-01,2.19616e-01,9.99999e-01,2.19616e-01,9.99999e-01
5.031515699e-01,2.26291e-01,9.99999e-01,2.26291e-01,9.99999e-01
5.056673278e-01,2.33032e-01,9.99999e-01,2.33032e-01,9.99999e-01
5.081956644e-01,2.39834e-01,9.99999e-01,2.39834e-01,9.99999e-01
5.107366428e-01,2.46694e-01,9.99999e-01,2.46694e-01,9.99999e-01
5.132903260e-01,2.53609e-01,9.99999e-01,2.53609e-01,9.99999e-01
5.158567776e-01,2.60576e-01,9.99999e-01,2.60576e-01,9.99999e-01
5.184360615e-01,2.67591e-01,9.99999e-01,2.67591e-01,9.99999e-01
5.210282418e-01,2.74650e-01,9.99999e-01,2.74650e-01,9.99999e-01
5.236333830e-01,2.81751e-01,9.99999e-01,2.81751e-01,9.99999e-01
5.262515499e-01,2.88889e-01,9.99999e-01,2.88889e-01,9.99999e-01
5.288828077e-01,2.96063e-01,9.99999e-01,2.96063e-01,9.99999e-01
5.315272217e-01,3.03267e-01,9.99999e-01,3.03267e-01,9.99999e-01
5.341848578e-01,3.10499e-01,9.99999e-01,3.10499e-01,9.99999e-01
5.368557821e-01,3.17756e-01,9.99999e-01,3.17756e-01,9.99999e-01
5.395400610e-01,3.25034e-01,9.99999e-01,3.25034e-01,9.99999e-01
5.422377613e-01,3.32329e-01,9.99999e-01,3.32329e-01,9.99999e-01
5.449489501e-01,3.39640e-01,9.99999e-01,3.39640e-01,9.99999e-01
5.476736949e-01,3.46962e-01,9.99999e-01,3.46962e-01,9.99999e-01
5.504120634e-01,3.54293e-01,9.99999e-01,3.54293e-01,9.99999e-01
5.531641237e-01,3.61630e-01,9.99999e-01,3.61630e-01,9.99999e-01
5.559299443e-01,3.68969e-01,9.99999e-01,3.68969e-01,9.99999e-01
5.587095940e-01,3.76307e-01,9.99999e-01,3.76307e-01,9.99999e-01
5.615031420e-01,3.83642e-01,9.99999e-01,3.83642e-01,9.99999e-01
5.643106577e-01,3.90972e-01,9.99999e-01,3.90972e-01,9.99999e-01
5.671322110e-01,3.98292e-01,9.99999e-01,3.98292e-01,9.99999e-01
5.699678720e-01,4.05600e-01,9.99999e-01,4.05600e-01,9.99999e-01
5.728177114e-01,4.12895e-01,9.99999e-01,4.12895e-01,9.99999e-01
5.756818000e-01,4.20172e-01,9.99999e-01,4.20172e-01,9.99999e-01
5.785602090e-01,4.27431e-01,9.99999e-01,4.27431e-01,9.99999e-01
5.814530100e-01,4.34667e-01,9.99999e-01,4.34667e-01,9.99999e-01
5.843602750e-01,4.41880e-01,9.99999e-01,4.41880e-01,9.99999e-01
5.872820764e-01,4.49066e-01,9.99999e-01,4.49066e-01,9.99999e-01
5.902184868e-01,4.56224e-01,9.99999e-01,4.56224e-01,9.99999e-01
5.931695792e-01,4.63351e-01,9.99999e-01,4.63351e-01,9.99999e-01
5.961354271e-01,4.70445e-01,9.99999e-01,4.70445e-01,9.99999e-01
5.991161043e-01,4.77505e-01,9.99999e-01,4.77505e-01,9.99999e-01
6.021116848e-01,4.84528e-01,9.99999e-01,4.84528e-01,9.99999e-01
6.051222432e-01,4.91513e-01,9.99999e-01,4.91513e-01,9.99999e-01
6.081478544e-01,4.98457e-01,9.99999e-01,4.98457e-01,9.99999e-01
6.111885937e-01,5.05359e-01,9.99999e-01,5.05359e-01,9.99999e-01
6.142445367e-01,5.12218e-01,9.99999e-01,5.12218e-01,9.99999e-01
6.173157594e-01,5.19032e-01,9.99999e-01,5.19032e-01,9.99999e-01
6.204023382e-01,5.25799e-01,9.99999e-01,5.25799e-01,9.99999e-01
6.235043498e-01,5.32518e-01,9.99999e-01,5.32518e-01,9.99999e-01
6.266218716e-01,5.39187e-01,9.99999e-01,5.39187e-01,9.99999e-01
6.297549810e-01,5.45806e-01,9.99999e-01,5.45806e-01,9.99999e-01
6.329037559e-01,5.52373e-01,9.99999e-01,5.52373e-01,9.99999e-01
6.360682746e-01,5.58887e-01,9.99999e-01,5.58887e-01,9.99999e-01
6.392486160e-01,5.65347e-01,9.99999e-01,5.65347e-01,9.99999e-01
6.424448591e-01,5.71752e-01,9.99999e-01,5.71752e-01,9.99999e-01
6.456570834e-01,5.78100e-01,9.99999e-01,5.78100e-01,9.99999e-01
6.488853688e-01,5.84392e-01,9.99999e-01,5.84392e-01,9.99999e-01
6.521297956e-01,5.90626e-01,9.99999e-01,5.90626e-01,9.99999e-01
6.553904446e-01,5.96801e-01,9.99999e-01,5.96801e-01,9.99999e-01
6.586673968e-01,6.02917e-01,9.99999e-01,6.02917e-01,9.99999e-01
6.619607338e-01,6.08973e-01,9.99999e-01,6.08973e-01,9.99999e-01
6.652705375e-01,6.14968e-01,9.99999e-01,6.14968e-01,9.99999e-01
6.685968902e-01,6.20902e-01,9.99999e-01,6.20902e-01,9.99999e-01
6.719398746e-01,6.26775e-01,9.99999e-01,6.26775e-01,9.99999e-01
6.752995740e-01,6.32585e-01,9.99999e-01,6.32585e-01,9.99999e-01
6.786760719e-01,6.38333e-01,9.99999e-01,6.38333e-01,9.99999e-01
6.820694522e-01,6.44018e-01,9.99999e-01,6.44018e-01,9.99999e-01
6.854797995e-01,6.49640e-01,9.99999e-01,6.49640e-01,9.99999e-01
6.889071985e-01,6.55199e-01,9.99999e-01,6.55199e-01,9.99999e-01
6.923517345e-01,6.60694e-01,9.99999e-01,6.60694e-01,9.99999e-01
6.958134932e-01,6.66125e-01,9.99999e-01,6.66125e-01,9.99999e-01
6.992925606e-01,6.71492e-01,9.99999e-01,6.71492e-01,9.99999e-01
7.027890234e-01,6.76795e-01,9.99999e-01,6.76795e-01,9.99999e-01
7.063029686e-01,6.82034e-01,9.99999e-01,6.82034e-01,9.99999e-01
7.098344834e-01,6.87209e-01,9.99999e-01,6.87209e-01,9.99999e-01
7.133836558e-01,6.92320e-01,9.99999e-01,6.92320e-01,9.99999e-01
7.169505741e-01,6.97366e-01,9.99999e-01,6.97366e-01,9.99999e-01
7.205353270e-01,7.02349e-01,9.99999e-01,7.02349e-01,9.99999e-01
7.241380036e-01,7.07268e-01,9.99999e-01,7.07268e-01,9.99999e-01
7.277586936e-01,7.12123e-01,9.99999e-01,7.12123e-01,9.99999e-01
7.313974871e-01,7.16915e-01,9.99999e-01,7.16915e-01,9.99999e-01
7.350544745e-01,7.21643e-01,9.99999e-01,7.21643e-01,9.99999e-01
7.387297469e-01,7.26308e-01,9.99999e-01,7.26308e-01,9.99999e-01
7.424233956e-01,7.30910e-01,9.99999e-01,7.30910e-01,9.99999e-01
7.461355126e-01,7.35450e-01,9.99999e-01,7.35450e-01,9.99999e-01
7.498661902e-01,7.39927e-01,9.99999e-01,7.39927e-01,9.99999e-01
7.536155211e-01,7.44342e-01,9.99999e-01,7.44342e-01,9.99999e-01
7.573835987e-01,7.48696e-01,9.99999e-01,7.48696e-01,9.99999e-01
7.611705167e-01,7.52988e-01,9.99999e-01,7.52988e-01,9.99999e-01
7.649763693e-01,7.57220e-01,9.99999e-01,7.57220e-01,9.99999e-01
7.688012511e-01,7.61391e-01,9.99999e-01,7.61391e-01,9.99999e-01
7.726452574e-01,7.65502e-01,9.99999e-01,7.65502e-01,9.99999e-01
7.765084837e-01,7.69553e-01,9.99999e-01,7.69553e-01,9.99999e-01
7.803910261e-01,7.63168e-01,9.86584e-01,7.73545e-01,9.99999e-01
7.842929812e-01,7.35743e-01,9.46318e-01,7.77478e-01,9.99999e-01
7.882144461e-01,7.36097e-01,9.42079e-01,7.81353e-01,9.99999e-01
7.921555184e-01,7.58823e-01,9.66443e-01,7.85171e-01,9.99999e-01
7.961162960e-01,7.71281e-01,9.77628e-01,7.88930e-01,9.99999e-01
8.000968774e-01,7.82963e-01,9.87799e-01,7.92634e-01,9.99999e-01
8.040973618e-01,7.91253e-01,9.93685e-01,7.96280e-01,9.99999e-01
8.081178486e-01,7.97543e-01,9.97088e-01,7.99871e-01,9.99999e-01
8.121584379e-01,8.02690e-01,9.99106e-01,8.03407e-01,9.99999e-01
8.162192301e-01,8.06729e-01,9.99802e-01,8.06888e-01,9.99999e-01
8.203003262e-01,8.10313e-01,9.99996e-01,8.10316e-01,9.99999e-01
8.244018279e-01,8.13689e-01,9.99999e-01,8.13689e-01,9.99999e-01
8.285238370e-01,8.17010e-01,9.99999e-01,8.17010e-01,9.99999e-01
8.326664562e-01,8.20278e-01,9.99999e-01,8.20278e-01,9.99999e-01
8.368297885e-01,8.23494e-01,9.99999e-01,8.23494e-01,9.99999e-01
8.410139374e-01,8.26659e-01,9.99999e-01,8.26659e-01,9.99999e-01
8.452190071e-01,8.29773e-01,9.99999e-01,8.29773e-01,9.99999e-01
8.494451021e-01,8.32837e-01,9.99999e-01,8.32837e-01,9.99999e-01
8.536923276e-01,8.35851e-01,9.99999e-01,8.35851e-01,9.99999e-01
8.579607893e-01,8.38817e-01,9.99999e-01,8.38817e-01,9.99999e-01
8.622505932e-01,8.41734e-01,9.99999e-01,8.41734e-01,9.99999e-01
8.665618462e-01,8.13100e-01,9.62699e-01,8.44604e-01,9.99999e-01
8.708946554e-01,7.34148e-01,8.66326e-01,8.47426e-01,9.99999e-01
8.752491287e-01,7.59091e-01,8.92835e-01,8.50202e-01,9.99999e-01
8.796253743e-01,8.02159e-01,9.40472e-01,8.52931e-01,9.99999e-01
8.840235012e-01,8.28983e-01,9.68872e-01,8.55615e-01,9.99999e-01
8.884436187e-01,8.47688e-01,9.87687e-01,8.58255e-01,9.99999e-01
8.928858368e-01,8.56538e-01,9.94990e-01,8.60850e-01,9.99999e-01
8.973502660e-01,8.62355e-01,9.98786e-01,8.63402e-01,9.99999e-01
9.018370173e-01,8.65795e-01,9.99866e-01,8.65910e-01,9.99999e-01
9.063462024e-01,8.65308e-01,9.96466e-01,8.68376e-01,9.99999e-01
9.108779334e-01,8.63909e-01,9.92086e-01,8.70800e-01,9.99999e-01
9.154323231e-01,8.71570e-01,9.98152e-01,8.73183e-01,9.99999e-01
9.200094847e-01,8.50765e-01,9.71719e-01,8.75525e-01,9.99999e-01
9.246095321e-01,8.44247e-01,9.61745e-01,8.77827e-01,9.99999e-01
9.292325798e-01,8.53212e-01,9.69460e-01,8.80089e-01,9.99999e-01
9.338787427e-01,8.56565e-01,9.70817e-01,8.82313e-01,9.99999e-01
9.385481364e-01,8.65503e-01,9.78524e-01,8.84497e-01,9.99999e-01
9.432408771e-01,8.74984e-01,9.86848e-01,8.86644e-01,9.99999e-01
9.479570815e-01,8.82731e-01,9.93223e-01,8.88754e-01,9.99999e-01
9.526968669e-01,8.87915e-01,9.96731e-01,8.90827e-01,9.99999e-01
9.574603512e-01,8.91616e-01,9.98602e-01,8.92863e-01,9.99999e-01
9.622476530e-01,8.94474e-01,9.99564e-01,8.94864e-01,9.99999e-01
9.670588912e-01,8.96713e-01,9.99869e-01,8.96829e-01,9.99999e-01
9.718941857e-01,8.98752e-01,9.99990e-01,8.98760e-01,9.99999e-01
9.767536566e-01,9.00657e-01,9.99999e-01,9.00657e-01,9.99999e-01
9.816374249e-01,9.02521e-01,9.99999e-01,9.02521e-01,9.99999e-01
9.865456120e-01,9.04351e-01,9.99999e-01,9.04351e-01,9.99999e-01
9.914783401e-01,9.06149e-01,9.99999e-01,9.06149e-01,9.99999e-01
9.964357318e-01,9.07914e-01,9.99999e-01,9.07914e-01,9.99999e-01
1.001417910e+00,9.09648e-01,9.99999e-01,9.09648e-01,9.99999e-01
1.006425000e+00,9.11351e-01,9.99999e-01,9.11351e-01,9.99999e-01
1.011457125e+00,9.13024e-01,9.99999e-01,9.13024e-01,9.99999e-01
1.016514411e+00,9.14666e-01,9.99999e-01,9.14666e-01,9.99999e-01
1.021596983e+00,9.16261e-01,9.99979e-01,9.16279e-01,9.99999e-01
1.026704968e+00,9.16599e-01,9.98622e-01,9.17863e-01,9.99999e-01
1.031838492e+00,8.98140e-01,9.76856e-01,9.19418e-01,9.99999e-01
1.036997685e+00,3.30214e-01,3.58559e-01,9.20945e-01,9.99999e-01
1.042182673e+00,4.12065e-01,4.46709e-01,9.22445e-01,9.99999e-01
1.047393587e+00,3.63012e-01,3.92905e-01,9.23917e-01,9.99999e-01
1.052630555e+00,8.61812e-02,9.31324e-02,9.25362e-01,9.99999e-01
1.057893707e+00,1.48069e-01,1.59767e-01,9.26781e-01,9.99999e-01
1.063183176e+00,2.47441e-01,2.66589e-01,9.28174e-01,9.99999e-01
1.068499092e+00,3.88191e-01,4.17615e-01,9.29541e-01,9.99999e-01
1.073841587e+00,5.37758e-01,5.77685e-01,9.30884e-01,9.99999e-01
1.079210795e+00,6.59804e-01,7.07791e-01,9.32202e-01,9.99999e-01
1.084606849e+00,7.73538e-01,8.28646e-01,9.33495e-01,9.99999e-01
1.090029883e+00,8.48088e-01,9.07273e-01,9.34765e-01,9.99999e-01
1.095480033e+00,8.92297e-01,9.53296e-01,9.36011e-01,9.99999e-01
1.100957433e+00,9.15915e-01,9.77252e-01,9.37235e-01,9.99999e-01
1.106462220e+00,9.29565e-01,9.90546e-01,9.38436e-01,9.99999e-01
1.111994531e+00,9.36314e-01,9.96487e-01,9.39614e-01,9.99999e-01
1.117554504e+00,9.39967e-01,9.99144e-01,9.40771e-01,9.99999e-01
1.123142276e+00,9.41854e-01,9.99943e-01,9.41906e-01,9.99999e-01
1.128757988e+00,9.43020e-01,9.99999e-01,9.43020e-01,9.99999e-01
1.134401778e+00,9.44114e-01,9.99999e-01,9.44114e-01,9.99999e-01
1.140073787e+00,9.45187e-01,9.99999e-01,9.45187e-01,9.99999e-01
1.145774156e+00,9.46240e-01,9.99999e-01,9.46240e-01,9.99999e-01
1.151503026e+00,9.47273e-01,9.99999e-01,9.47273e-01,9.99999e-01
1.157260541e+00,9.48287e-01,9.99999e-01,9.48287e-01,9.99999e-01
1.163046844e+00,9.49282e-01,9.99999e-01,9.49282e-01,9.99999e-01
1.168862078e+00,9.50259e-01,9.99999e-01,9.50259e-01,9.99999e-01
1.174706389e+00,9.51217e-01,9.99999e-01,9.51217e-01,9.99999e-01
1.180579921e+00,9.52157e-01,9.99999e-01,9.52157e-01,9.99999e-01
1.186482820e+00,9.53077e-01,9.99996e-01,9.53079e-01,9.99999e-01
1.192415234e+00,9.49237e-01,9.95022e-01,9.53985e-01,9.99999e-01
1.198377311e+00,5.73906e-01,6.01029e-01,9.54873e-01,9.99999e-01
1.204369197e+00,1.81266e-05,1.89659e-05,9.55744e-01,9.99999e-01
1.210391043e+00,4.12589e-16,4.31308e-16,9.56599e-01,9.99999e-01
1.216442998e+00,3.48087e-14,3.63561e-14,9.57438e-01,9.99999e-01
1.222525213e+00,5.92909e-14,6.18734e-14,9.58260e-01,9.99999e-01
1.228637839e+00,1.11054e-10,1.15793e-10,9.59068e-01,9.99999e-01
1.234781029e+00,1.09807e-07,1.14398e-07,9.59860e-01,9.99999e-01
1.240954934e+00,3.24277e-05,3.37564e-05,9.60637e-01,9.99999e-01
1.247159708e+00,3.02481e-03,3.14626e-03,9.61399e-01,9.99999e-01
1.253395507e+00,4.24329e-02,4.41022e-02,9.62147e-01,9.99999e-01
1.259662485e+00,1.65356e-01,1.71730e-01,9.62881e-01,9.99999e-01
1.265960797e+00,3.48094e-01,3.61242e-01,9.63600e-01,9.99999e-01
1.272290601e+00,6.37037e-01,6.60616e-01,9.64306e-01,9.99999e-01
1.278652054e+00,5.72271e-01,5.93027e-01,9.64999e-01,9.99999e-01
1.285045314e+00,5.38719e-02,5.57865e-02,9.65678e-01,9.99999e-01
1.291470541e+00,1.49987e-02,1.55210e-02,9.66345e-01,9.99999e-01
1.297927893e+00,1.20030e-01,1.24126e-01,9.66998e-01,9.99999e-01
1.304417533e+00,4.56701e-01,4.71974e-01,9.67639e-01,9.99999e-01
1.310939621e+00,9.42433e-02,9.73317e-02,9.68268e-01,9.99999e-01
1.317494319e+00,6.13120e-06,6.32809e-06,9.68885e-01,9.99999e-01
1.324081790e+00,1.58821e-04,1.63819e-04,9.69490e-01,9.99999e-01
1.330702199e+00,1.07729e-02,1.11051e-02,9.70084e-01,9.99999e-01
1.337355710e+00,7.17742e-03,7.39432e-03,9.70666e-01,9.99999e-01
1.344042489e+00,2.95648e-03,3.04403e-03,9.71237e-01,9.99999e-01
1.350762701e+00,9.00884e-03,9.27028e-03,9.71797e-01,9.99999e-01
1.357516515e+00,4.38109e-02,4.50568e-02,9.72346e-01,9.99999e-01
1.364304097e+00,1.44682e-01,1.48714e-01,9.72885e-01,9.99999e-01
1.371125618e+00,3.54418e-01,3.64098e-01,9.73413e-01,9.99999e-01
1.377981246e+00,4.36820e-01,4.48511e-01,9.73932e-01,9.99999e-01
1.384871152e+00,6.11210e-01,6.27242e-01,9.74440e-01,9.99999e-01
1.391795508e+00,6.33850e-01,6.50143e-01,9.74938e-01,9.99999e-01
1.398754485e+00,7.48827e-01,7.67691e-01,9.75427e-01,9.99999e-01
1.405748258e+00,8.02895e-01,8.22716e-01,9.75907e-01,9.99999e-01
1.412776999e+00,8.63473e-01,8.84364e-01,9.76377e-01,9.99999e-01
1.419840884e+00,8.09627e-01,8.28824e-01,9.76838e-01,9.99999e-01
1.426940089e+00,1.19276e-01,1.22048e-01,9.77290e-01,9.99999e-01
1.434074789e+00,3.81350e-219,3.90034e-219,9.77734e-01,9.99999e-01
1.441245163e+00,6.91692e-323,7.41098e-323,9.78169e-01,9.99999e-01
1.448451389e+00,1.36957e-265,1.39953e-265,9.78595e-01,9.99999e-01
1.455693646e+00,3.11858e-119,3.18542e-119,9.79014e-01,9.99999e-01
1.462972114e+00,1.63407e-58,1.66840e-58,9.79424e-01,9.99999e-01
1.470286975e+00,2.18354e-25,2.22849e-25,9.79826e-01,9.99999e-01
1.477638409e+00,1.30861e-16,1.33501e-16,9.80221e-01,9.99999e-01
1.485026601e+00,7.23792e-10,7.38105e-10,9.80608e-01,9.99999e-01
1.492451734e+00,2.13288e-08,2.17422e-08,9.80987e-01,9.99999e-01
1.499913993e+00,1.37730e-04,1.40346e-04,9.81359e-01,9.99999e-01
1.507413563e+00,1.43696e-03,1.46371e-03,9.81724e-01,9.99999e-01
1.514950631e+00,7.05335e-05,7.18204e-05,9.82081e-01,9.99999e-01
1.522525384e+00,2.18959e-12,2.22874e-12,9.82432e-01,9.99999e-01
1.530138011e+00,8.89421e-27,9.05008e-27,9.82776e-01,9.99999e-01
1.537788701e+00,2.92116e-20,2.97133e-20,9.83113e-01,9.99999e-01
1.545477645e+00,8.60648e-06,8.75135e-06,9.83444e-01,9.99999e-01
1.553205033e+00,1.16345e-03,1.18264e-03,9.83769e-01,9.99999e-01
1.560971058e+00,2.85263e-04,2.89876e-04,9.84087e-01,9.99999e-01
1.568775913e+00,1.85395e-65,1.88333e-65,9.84398e-01,9.99999e-01
1.576619793e+00,2.35679e-151,2.39340e-151,9.84704e-01,9.99999e-01
1.584502892e+00,3.09565e-83,3.14278e-83,9.85004e-01,9.99999e-01
1.592425406e+00,2.71449e-58,2.75499e-58,9.85298e-01,9.99999e-01
1.600387533e+00,2.81263e-93,2.85376e-93,9.85586e-01,9.99999e-01
1.608389471e+00,1.02027e-155,1.03490e-155,9.85869e-01,9.99999e-01
1.616431418e+00,1.08586e-156,1.10111e-156,9.86146e-01,9.99999e-01
1.624513575e+00,6.93248e-74,7.02793e-74,9.86418e-01,9.99999e-01
1.632636143e+00,2.93790e-55,2.97755e-55,9.86684e-01,9.99999e-01
1.640799324e+00,1.13781e-23,1.15286e-23,9.86946e-01,9.99999e-01
1.649003321e+00,1.52492e-23,1.54469e-23,9.87202e-01,9.99999e-01
1.657248337e+00,1.74667e-18,1.76886e-18,9.87453e-01,9.99999e-01
1.665534579e+00,1.23540e-18,1.25079e-18,9.87699e-01,9.99999e-01
1.673862252e+00,2.22712e-12,2.25430e-12,9.87941e-01,9.99999e-01
1.682231563e+00,5.07199e-09,5.13266e-09,9.88178e-01,9.99999e-01
1.690642721e+00,1.11231e-05,1.12535e-05,9.88410e-01,9.99999e-01
1.699095934e+00,9.60465e-04,9.71503e-04,9.88637e-01,9.99999e-01
1.707591414e+00,2.46646e-02,2.49424e-02,9.88860e-01,9.99999e-01
1.716129371e+00,1.35354e-01,1.36848e-01,9.89079e-01,9.99999e-01
1.724710018e+00,3.46400e-01,3.50149e-01,9.89294e-01,9.99999e-01
1.733333568e+00,5.05234e-01,5.10593e-01,9.89504e-01,9.99999e-01
1.742000236e+00,6.44042e-01,6.50737e-01,9.89710e-01,9.99999e-01
1.750710237e+00,6.38606e-02,6.45113e-02,9.89913e-01,9.99999e-01
1.759463788e+00,8.98892e-12,9.07869e-12,9.90111e-01,9.99999e-01
1.768261107e+00,1.14209e-12,1.15327e-12,9.90305e-01,9.99999e-01
1.777102413e+00,1.37936e-11,1.39259e-11,9.90496e-01,9.99999e-01
1.785987925e+00,1.74750e-11,1.76393e-11,9.90683e-01,9.99999e-01
1.794917864e+00,1.28553e-10,1.29738e-10,9.90866e-01,9.99999e-01
1.803892454e+00,7.74640e-11,7.81638e-11,9.91045e-01,9.99999e-01
1.812911916e+00,3.75007e-10,3.78328e-10,9.91221e-01,9.99999e-01
1.821976476e+00,2.17782e-10,2.19672e-10,9.91394e-01,9.99999e-01
1.831086358e+00,1.33597e-08,1.34734e-08,9.91563e-01,9.99999e-01
1.840241790e+00,2.99808e-07,3.02308e-07,9.91729e-01,9.99999e-01
1.849442999e+00,3.44098e-05,3.46910e-05,9.91892e-01,9.99999e-01
1.858690214e+00,1.28042e-04,1.29068e-04,9.92051e-01,9.99999e-01
1.867983665e+00,2.13048e-05,2.14720e-05,9.92208e-01,9.99999e-01
1.877323583e+00,2.21846e-21,2.23554e-21,9.92361e-01,9.99999e-01
