#,Wave/freq,Total,CO2,Rayleigh,CIA
4.000000000e-01,1.11408e-06,9.99999e-01,1.11408e-06,9.99999e-01
4.020000000e-01,1.46092e-06,9.99999e-01,1.46092e-06,9.99999e-01
4.040100000e-01,1.90497e-06,9.99999e-01,1.90497e-06,9.99999e-01
4.060300500e-01,2.47101e-06,9.99999e-01,2.47101e-06,9.99999e-01
4.080602003e-01,3.18882e-06,9.99999e-01,3.18882e-06,9.99999e-01
4.101005013e-01,4.09446e-06,9.99999e-01,4.09446e-06,9.99999e-01
4.121510038e-01,5.23142e-06,9.99999e-01,5.23142e-06,9.99999e-01
4.142117588e-01,6.65181e-06,9.99999e-01,6.65181e-06,9.99999e-01
4.162828176e-01,8.41782e-06,9.99999e-01,8.41782e-06,9.99999e-01
4.183642317e-01,1.06033e-05,9.99999e-01,1.06033e-05,9.99999e-01
4.204560528e-01,1.32953e-05,9.99999e-01,1.32953e-05,9.99999e-01
4.225583331e-01,1.65966e-05,9.99999e-01,1.65966e-05,9.99999e-01
4.246711247e-01,2.06269e-05,9.99999e-01,2.06269e-05,9.99999e-01
4.267944804e-01,2.55262e-05,9.99999e-01,2.55262e-05,9.99999e-01
4.289284528e-01,3.14564e-05,9.99999e-01,3.14564e-05,9.99999e-01
4.310730950e-01,3.86048e-05,9.99999e-01,3.86048e-05,9.99999e-01
4.332284605e-01,4.71863e-05,9.99999e-01,4.71863e-05,9.99999e-01
4.353946028e-01,5.74472e-05,9.99999e-01,5.74472e-05,9.99999e-01
4.375715758e-01,6.96680e-05,9.99999e-01,6.96680e-05,9.99999e-01
4.397594337e-01,8.41674e-05,9.99999e-01,8.41674e-05,9.99999e-01
4.419582309e-01,1.01305e-04,9.99999e-01,1.01305e-04,9.99999e-01
4.441680220e-01,1.21487e-04,9.99999e-01,1.21487e-04,9.99999e-01
4.463888621e-01,1.45168e-04,9.99999e-01,1.45168e-04,9.99999e-01
4.486208064e-01,1.72856e-04,9.99999e-01,1.72856e-04,9.99999e-01
4.508639105e-01,2.05116e-04,9.99999e-01,2.05116e-04,9.99999e-01
4.531182300e-01,2.42575e-04,9.99999e-01,2.42575e-04,9.99999e-01
4.553838212e-01,2.85926e-04,9.99999e-01,2.85926e-04,9.99999e-01
4.576607403e-01,3.35932e-04,9.99999e-01,3.35932e-04,9.99999e-01
4.599490440e-01,3.93430e-04,9.99999e-01,3.93430e-04,9.99999e-01
4.622487892e-01,4.59332e-04,9.99999e-01,4.59332e-04,9.99999e-01
4.645600332e-01,5.34636e-04,9.99999e-01,5.34636e-04,9.99999e-01
4.668828333e-01,6.20422e-04,9.99999e-01,6.20422e-04,9.99999e-01
4.692172475e-01,7.17860e-04,9.99999e-01,7.17860e-04,9.99999e-01
4.715633337e-01,8.28210e-04,9.99999e-01,8.28210e-04,9.99999e-01
4.739211504e-01,9.52829e-04,9.99999e-01,9.52829e-04,9.99999e-01
4.762907561e-01,1.09317e-03,9.99999e-01,1.09317e-03,9.99999e-01
4.786722099e-01,1.25078e-03,9.99999e-01,1.25078e-03,9.99999e-01
4.810655710e-01,1.42731e-03,9.99999e-01,1.42731e-03,9.99999e-01
4.834708988e-01,1.62451e-03,9.99999e-01,1.62451e-03,9.99999e-01
4.858882533e-01,1.84424e-03,9.99999e-01,1.84424e-03,9.99999e-01
4.883176946e-01,2.08846e-03,9.99999e-01,2.08846e-03,9.99999e-01
4.907592831e-01,2.35920e-03,9.99999e-01,2.35920e-03,9.99999e-01
4.932130795e-01,2.65864e-03,9.99999e-01,2.65864e-03,9.99999e-01
4.956791449e-01,2.98902e-03,9.99999e-01,2.98902e-03,9.99999e-01
4.981575406e-01,3.35269e-03,9.99999e-01,3.35269e-03,9.99999e-01
5.006483283e-01,3.75209e-03,9.99999e-01,3.75209e-03,9.99999e-01
5.031515699e-01,4.18974e-03,9.99999e-01,4.18974e-03,9.99999e-01
5.056673278e-01,4.66826e-03,9.99999e-01,4.66826e-03,9.99999e-01
5.081956644e-01,5.19033e-03,9.99999e-01,5.19033e-03,9.99999e-01
5.107366428e-01,5.75871e-03,9.99999e-01,5.75871e-03,9.99999e-01
5.132903260e-01,6.37624e-03,9.99999e-01,6.37624e-03,9.99999e-01
5.158567776e-01,7.04579e-03,9.99999e-01,7.04579e-03,9.99999e-01
5.184360615e-01,7.77031e-03,9.99999e-01,7.77031e-03,9.99999e-01
5.210282418e-01,8.55279e-03,9.99999e-01,8.55279e-03,9.99999e-01
5.236333830e-01,9.39623e-03,9.99999e-01,9.39623e-03,9.99999e-01
5.262515499e-01,1.03037e-02,9.99999e-01,1.03037e-02,9.99999e-01
5.288828077e-01,1.12782e-02,9.99999e-01,1.12782e-02,9.99999e-01
5.315272217e-01,1.23229e-02,9.99999e-01,1.23229e-02,9.99999e-01
5.341848578e-01,1.34409e-02,9.99999e-01,1.34409e-02,9.99999e-01
5.368557821e-01,1.46351e-02,9.99999e-01,1.46351e-02,9.99999e-01
5.395400610e-01,1.59087e-02,9.99999e-01,1.59087e-02,9.99999e-01
5.422377613e-01,1.72646e-02,9.99999e-01,1.72646e-02,9.99999e-01
5.449489501e-01,1.87058e-02,9.99999e-01,1.87058e-02,9.99999e-01
5.476736949e-01,2.02353e-02,9.99999e-01,2.02353e-02,9.99999e-01
5.504120634e-01,2.18558e-02,9.99999e-01,2.18558e-02,9.99999e-01
5.531641237e-01,2.35703e-02,9.99999e-01,2.35703e-02,9.99999e-01
5.559299443e-01,2.53814e-02,9.99999e-01,2.53814e-02,9.99999e-01
5.587095940e-01,2.72916e-02,9.99999e-01,2.72916e-02,9.99999e-01
5.615031420e-01,2.93037e-02,9.99999e-01,2.93037e-02,9.99999e-01
5.643106577e-01,3.14198e-02,9.99999e-01,3.14198e-02,9.99999e-01
5.671322110e-01,3.36425e-02,9.99999e-01,3.36425e-02,9.99999e-01
5.699678720e-01,3.59737e-02,9.99999e-01,3.59737e-02,9.99999e-01
5.728177114e-01,3.84157e-02,9.99999e-01,3.84157e-02,9.99999e-01
5.756818000e-01,4.09702e-02,9.99999e-01,4.09702e-02,9.99999e-01
5.785602090e-01,4.36390e-02,9.99999e-01,4.36390e-02,9.99999e-01
5.814530100e-01,4.64238e-02,9.99999e-01,4.64238e-02,9.99999e-01
5.843602750e-01,4.93260e-02,9.99999e-01,4.93260e-02,9.99999e-01
5.872820764e-01,5.23469e-02,9.99999e-01,5.23469e-02,9.99999e-01
5.902184868e-01,5.54876e-02,9.99999e-01,5.54876e-02,9.99999e-01
5.931695792e-01,5.87491e-02,9.99999e-01,5.87491e-02,9.99999e-01
5.961354271e-01,6.21322e-02,9.99999e-01,6.21322e-02,9.99999e-01
5.991161043e-01,6.56374e-02,9.99999e-01,6.56374e-02,9.99999e-01
6.021116848e-01,6.92653e-02,9.99999e-01,6.92653e-02,9.99999e-01
6.051222432e-01,7.30161e-02,9.99999e-01,7.30161e-02,9.99999e-01
6.081478544e-01,7.68898e-02,9.99999e-01,7.68898e-02,9.99999e-01
6.111885937e-01,8.08864e-02,9.99999e-01,8.08864e-02,9.99999e-01
6.142445367e-01,8.50056e-02,9.99999e-01,8.50056e-02,9.99999e-01
6.173157594e-01,8.92470e-02,9.99999e-01,8.92470e-02,9.99999e-01
6.204023382e-01,9.36100e-02,9.99999e-01,9.36100e-02,9.99999e-01
6.235043498e-01,9.80937e-02,9.99999e-01,9.80937e-02,9.99999e-01
6.266218716e-01,1.02697e-01,9.99999e-01,1.02697e-01,9.99999e-01
6.297549810e-01,1.07419e-01,9.99999e-01,1.07419e-01,9.99999e-01
6.329037559e-01,1.12259e-01,9.99999e-01,1.12259e-01,9.99999e-01
6.360682746e-01,1.17215e-01,9.99999e-01,1.17215e-01,9.99999e-01
6.392486160e-01,1.22285e-01,9.99999e-01,1.22285e-01,9.99999e-01
6.424448591e-01,1.27467e-01,9.99999e-01,1.27467e-01,9.99999e-01
6.456570834e-01,1.32761e-01,9.99999e-01,1.32761e-01,9.99999e-01
6.488853688e-01,1.38163e-01,9.99999e-01,1.38163e-01,9.99999e-01
6.521297956e-01,1.43671e-01,9.99999e-01,1.43671e-01,9.99999e-01
6.553904446e-01,1.49284e-01,9.99999e-01,1.49284e-01,9.99999e-01
6.586673968e-01,1.54999e-01,9.99999e-01,1.54999e-01,9.99999e-01
6.619607338e-01,1.60813e-01,9.99999e-01,1.60813e-01,9.99999e-01
6.652705375e-01,1.66724e-01,9.99999e-01,1.66724e-01,9.99999e-01
6.685968902e-01,1.72730e-01,9.99999e-01,1.72730e-01,9.99999e-01
6.719398746e-01,1.78826e-01,9.99999e-01,1.78826e-01,9.99999e-01
6.752995740e-01,1.85011e-01,9.99999e-01,1.85011e-01,9.99999e-01
6.786760719e-01,1.91281e-01,9.99999e-01,1.91281e-01,9.99999e-01
6.820694522e-01,1.97633e-01,9.99999e-01,1.97633e-01,9.99999e-01
6.854797995e-01,2.04065e-01,9.99999e-01,2.04065e-01,9.99999e-01
6.889071985e-01,2.10573e-01,9.99999e-01,2.10573e-01,9.99999e-01
6.923517345e-01,2.17154e-01,9.99999e-01,2.17154e-01,9.99999e-01
6.958134932e-01,2.23804e-01,9.99999e-01,2.23804e-01,9.99999e-01
6.992925606e-01,2.30520e-01,9.99999e-01,2.30520e-01,9.99999e-01
7.027890234e-01,2.37300e-01,9.99999e-01,2.37300e-01,9.99999e-01
7.063029686e-01,2.44139e-01,9.99999e-01,2.44139e-01,9.99999e-01
7.098344834e-01,2.51034e-01,9.99999e-01,2.51034e-01,9.99999e-01
7.133836558e-01,2.57982e-01,9.99999e-01,2.57982e-01,9.99999e-01
7.169505741e-01,2.64979e-01,9.99999e-01,2.64979e-01,9.99999e-01
7.205353270e-01,2.72022e-01,9.99999e-01,2.72022e-01,9.99999e-01
7.241380036e-01,2.79108e-01,9.99999e-01,2.79108e-01,9.99999e-01
7.277586936e-01,2.86233e-01,9.99999e-01,2.86233e-01,9.99999e-01
7.313974871e-01,2.93394e-01,9.99999e-01,2.93394e-01,9.99999e-01
7.350544745e-01,3.00587e-01,9.99999e-01,3.00587e-01,9.99999e-01
7.387297469e-01,3.07809e-01,9.99999e-01,3.07809e-01,9.99999e-01
7.424233956e-01,3.15057e-01,9.99999e-01,3.15057e-01,9.99999e-01
7.461355126e-01,3.22328e-01,9.99999e-01,3.22328e-01,9.99999e-01
7.498661902e-01,3.29617e-01,9.99999e-01,3.29617e-01,9.99999e-01
7.536155211e-01,3.36923e-01,9.99999e-01,3.36923e-01,9.99999e-01
7.573835987e-01,3.44241e-01,9.99999e-01,3.44241e-01,9.99999e-01
7.611705167e-01,3.51569e-01,9.99999e-01,3.51569e-01,9.99999e-01
7.649763693e-01,3.58904e-01,9.99999e-01,3.58904e-01,9.99999e-01
7.688012511e-01,3.66242e-01,9.99999e-01,3.66242e-01,9.99999e-01
7.726452574e-01,3.73581e-01,9.99999e-01,3.73581e-01,9.99999e-01
7.765084837e-01,3.80918e-01,9.99999e-01,3.80918e-01,9.99999e-01
7.803910261e-01,3.71309e-01,9.56366e-01,3.88250e-01,9.99999e-01
7.842929812e-01,3.24623e-01,8.20638e-01,3.95574e-01,9.99999e-01
7.882144461e-01,3.26033e-01,8.09242e-01,4.02887e-01,9.99999e-01
7.921555184e-01,3.62139e-01,8.82864e-01,4.10187e-01,9.99999e-01
7.961162960e-01,3.84085e-01,9.20028e-01,4.17471e-01,9.99999e-01
8.000968774e-01,4.05959e-01,9.55790e-01,4.24737e-01,9.99999e-01
8.040973618e-01,4.21993e-01,9.76876e-01,4.31982e-01,9.99999e-01
8.081178486e-01,4.34506e-01,9.89303e-01,4.39203e-01,9.99999e-01
8.121584379e-01,4.44925e-01,9.96694e-01,4.46400e-01,9.99999e-01
8.162192301e-01,4.53237e-01,9.99269e-01,4.53568e-01,9.99999e-01
8.203003262e-01,4.60702e-01,9.99988e-01,4.60707e-01,9.99999e-01
8.244018279e-01,4.67814e-01,9.99999e-01,4.67814e-01,9.99999e-01
8.285238370e-01,4.74887e-01,9.99999e-01,4.74887e-01,9.99999e-01
8.326664562e-01,4.81924e-01,9.99999e-01,4.81924e-01,9.99999e-01
8.368297885e-01,4.88923e-01,9.99999e-01,4.88923e-01,9.99999e-01
8.410139374e-01,4.95882e-01,9.99999e-01,4.95882e-01,9.99999e-01
8.452190071e-01,5.02800e-01,9.99999e-01,5.02800e-01,9.99999e-01
8.494451021e-01,5.09675e-01,9.99999e-01,5.09675e-01,9.99999e-01
8.536923276e-01,5.16506e-01,9.99999e-01,5.16506e-01,9.99999e-01
8.579607893e-01,5.23290e-01,9.99999e-01,5.23290e-01,9.99999e-01
8.622505932e-01,5.30027e-01,9.99999e-01,5.30027e-01,9.99999e-01
8.665618462e-01,4.89302e-01,9.11660e-01,5.36715e-01,9.99999e-01
8.708946554e-01,3.29732e-01,6.06846e-01,5.43353e-01,9.99999e-01
8.752491287e-01,3.66986e-01,6.67321e-01,5.49940e-01,9.99999e-01
8.796253743e-01,4.45108e-01,7.99873e-01,5.56473e-01,9.99999e-01
8.840235012e-01,5.01219e-01,8.90337e-01,5.62953e-01,9.99999e-01
8.884436187e-01,5.43909e-01,9.55266e-01,5.69379e-01,9.99999e-01
8.928858368e-01,5.65166e-01,9.81618e-01,5.75748e-01,9.99999e-01
8.973502660e-01,5.79451e-01,9.95514e-01,5.82061e-01,9.99999e-01
9.018370173e-01,5.88026e-01,9.99505e-01,5.88317e-01,9.99999e-01
9.063462024e-01,5.86944e-01,9.87267e-01,5.94514e-01,9.99999e-01
9.108779334e-01,5.83319e-01,9.71143e-01,6.00652e-01,9.99999e-01
9.154323231e-01,6.02588e-01,9.93173e-01,6.06730e-01,9.99999e-01
9.200094847e-01,5.55358e-01,9.06339e-01,6.12748e-01,9.99999e-01
9.246095321e-01,5.36137e-01,8.66546e-01,6.18705e-01,9.99999e-01
9.292325798e-01,5.58265e-01,8.93794e-01,6.24600e-01,9.99999e-01
9.338787427e-01,5.65661e-01,8.97256e-01,6.30434e-01,9.99999e-01
9.385481364e-01,5.87418e-01,9.23314e-01,6.36205e-01,9.99999e-01
9.432408771e-01,6.11317e-01,9.52334e-01,6.41914e-01,9.99999e-01
9.479570815e-01,6.31524e-01,9.75236e-01,6.47559e-01,9.99999e-01
9.526968669e-01,6.45300e-01,9.87994e-01,6.53141e-01,9.99999e-01
9.574603512e-01,6.55268e-01,9.94850e-01,6.58660e-01,9.99999e-01
9.622476530e-01,6.63047e-01,9.98391e-01,6.64115e-01,9.99999e-01
9.670588912e-01,6.69183e-01,9.99518e-01,6.69506e-01,9.99999e-01
9.718941857e-01,6.74810e-01,9.99965e-01,6.74833e-01,9.99999e-01
9.767536566e-01,6.80095e-01,9.99999e-01,6.80095e-01,9.99999e-01
9.816374249e-01,6.85294e-01,9.99999e-01,6.85294e-01,9.99999e-01
9.865456120e-01,6.90429e-01,9.99999e-01,6.90429e-01,9.99999e-01
9.914783401e-01,6.95499e-01,9.99999e-01,6.95499e-01,9.99999e-01
9.964357318e-01,7.00506e-01,9.99999e-01,7.00506e-01,9.99999e-01
1.001417910e+00,7.05448e-01,9.99999e-01,7.05448e-01,9.99999e-01
1.006425000e+00,7.10327e-01,9.99999e-01,7.10327e-01,9.99999e-01
1.011457125e+00,7.15142e-01,9.99999e-01,7.15142e-01,9.99999e-01
1.016514411e+00,7.19894e-01,9.99999e-01,7.19894e-01,9.99999e-01
1.021596983e+00,7.24532e-01,9.99929e-01,7.24582e-01,9.99999e-01
1.026704968e+00,7.25565e-01,9.95003e-01,7.29208e-01,9.99999e-01
1.031838492e+00,6.93623e-01,9.45285e-01,7.33771e-01,9.99999e-01
1.036997685e+00,8.67794e-02,1.17544e-01,7.38271e-01,9.99999e-01
1.042182673e+00,4.83839e-02,6.51450e-02,7.42709e-01,9.99999e-01
1.047393587e+00,6.67159e-02,8.93014e-02,7.47086e-01,9.99999e-01
1.052630555e+00,7.22290e-04,9.61257e-04,7.51401e-01,9.99999e-01
1.057893707e+00,2.12523e-03,2.81243e-03,7.55655e-01,9.99999e-01
1.063183176e+00,9.71504e-03,1.27855e-02,7.59849e-01,9.99999e-01
1.068499092e+00,3.47778e-02,4.55217e-02,7.63982e-01,9.99999e-01
1.073841587e+00,1.08573e-01,1.41361e-01,7.68055e-01,9.99999e-01
1.079210795e+00,2.23609e-01,2.89623e-01,7.72069e-01,9.99999e-01
1.084606849e+00,3.90985e-01,5.03831e-01,7.76024e-01,9.99999e-01
1.090029883e+00,5.45978e-01,7.00042e-01,7.79921e-01,9.99999e-01
1.095480033e+00,6.57442e-01,8.38831e-01,7.83759e-01,9.99999e-01
1.100957433e+00,7.23547e-01,9.18742e-01,7.87540e-01,9.99999e-01
1.106462220e+00,7.64021e-01,9.65569e-01,7.91264e-01,9.99999e-01
1.111994531e+00,7.84674e-01,9.87095e-01,7.94932e-01,9.99999e-01
1.117554504e+00,7.96021e-01,9.96839e-01,7.98544e-01,9.99999e-01
1.123142276e+00,8.01934e-01,9.99792e-01,8.02100e-01,9.99999e-01
1.128757988e+00,8.05602e-01,9.99999e-01,8.05602e-01,9.99999e-01
1.134401778e+00,8.09049e-01,9.99999e-01,8.09049e-01,9.99999e-01
1.140073787e+00,8.12442e-01,9.99999e-01,8.12442e-01,9.99999e-01
1.145774156e+00,8.15782e-01,9.99999e-01,8.15782e-01,9.99999e-01
1.151503026e+00,8.19070e-01,9.99999e-01,8.19070e-01,9.99999e-01
1.157260541e+00,8.22305e-01,9.99999e-01,8.22305e-01,9.99999e-01
1.163046844e+00,8.25489e-01,9.99999e-01,8.25489e-01,9.99999e-01
1.168862078e+00,8.28622e-01,9.99999e-01,8.28622e-01,9.99999e-01
1.174706389e+00,8.31705e-01,9.99999e-01,8.31705e-01,9.99999e-01
1.180579921e+00,8.34737e-01,9.99999e-01,8.34737e-01,9.99999e-01
1.186482820e+00,8.37713e-01,9.99989e-01,8.37721e-01,9.99999e-01
1.192415234e+00,8.25814e-01,9.82343e-01,8.40656e-01,9.99999e-01
1.198377311e+00,4.66809e-01,5.53390e-01,8.43543e-01,9.99999e-01
1.204369197e+00,3.89061e-14,4.59674e-14,8.46383e-01,9.99999e-01
1.210391043e+00,2.56211e-53,3.01717e-53,8.49176e-01,9.99999e-01
1.216442998e+00,2.59743e-46,3.04890e-46,8.51923e-01,9.99999e-01
1.222525213e+00,1.23229e-45,1.44191e-45,8.54624e-01,9.99999e-01
1.228637839e+00,2.40824e-35,2.80916e-35,8.57280e-01,9.99999e-01
1.234781029e+00,1.43424e-22,1.66793e-22,8.59891e-01,9.99999e-01
1.240954934e+00,3.54587e-15,4.11134e-15,8.62459e-01,9.99999e-01
1.247159708e+00,4.42484e-08,5.11552e-08,8.64983e-01,9.99999e-01
1.253395507e+00,2.58300e-05,2.97764e-05,8.67465e-01,9.99999e-01
1.259662485e+00,2.19304e-03,2.52101e-03,8.69905e-01,9.99999e-01
1.265960797e+00,2.80819e-02,3.21928e-02,8.72303e-01,9.99999e-01
1.272290601e+00,1.98250e-01,2.26659e-01,8.74660e-01,9.99999e-01
1.278652054e+00,1.68205e-01,1.91801e-01,8.76976e-01,9.99999e-01
1.285045314e+00,2.01362e-03,2.29015e-03,8.79253e-01,9.99999e-01
1.291470541e+00,6.88321e-07,7.80859e-07,8.81491e-01,9.99999e-01
1.297927893e+00,3.00736e-03,3.40318e-03,8.83690e-01,9.99999e-01
1.304417533e+00,5.89372e-02,6.65316e-02,8.85851e-01,9.99999e-01
1.310939621e+00,1.37267e-02,1.54584e-02,8.87974e-01,9.99999e-01
1.317494319e+00,9.94028e-19,1.11681e-18,8.90061e-01,9.99999e-01
1.324081790e+00,9.72018e-13,1.08957e-12,8.92111e-01,9.99999e-01
1.330702199e+00,1.51604e-07,1.69556e-07,8.94125e-01,9.99999e-01
1.337355710e+00,3.06654e-07,3.42208e-07,8.96103e-01,9.99999e-01
1.344042489e+00,1.02272e-07,1.13882e-07,8.98047e-01,9.99999e-01
1.350762701e+00,8.89009e-08,9.87835e-08,8.99957e-01,9.99999e-01
1.357516515e+00,3.51186e-05,3.89413e-05,9.01832e-01,9.99999e-01
1.364304097e+00,1.02737e-03,1.13688e-03,9.03675e-01,9.99999e-01
1.371125618e+00,2.71172e-02,2.99477e-02,9.05485e-01,9.99999e-01
1.377981246e+00,4.88557e-02,5.38495e-02,9.07262e-01,9.99999e-01
1.384871152e+00,1.66077e-01,1.82701e-01,9.09008e-01,9.99999e-01
1.391795508e+00,1.89375e-01,2.07939e-01,9.10722e-01,9.99999e-01
1.398754485e+00,3.44889e-01,3.77999e-01,9.12406e-01,9.99999e-01
1.405748258e+00,4.47376e-01,4.89438e-01,9.14060e-01,9.99999e-01
1.412776999e+00,5.82704e-01,6.36359e-01,9.15684e-01,9.99999e-01
1.419840884e+00,5.21032e-01,5.68019e-01,9.17278e-01,9.99999e-01
1.426940089e+00,3.88607e-02,4.22930e-02,9.18844e-01,9.99999e-01
1.434074789e+00,0.00000e+00,0.00000e+00,9.20381e-01,9.99999e-01
1.441245163e+00,0.00000e+00,0.00000e+00,9.21891e-01,9.99999e-01
1.448451389e+00,0.00000e+00,0.00000e+00,9.23373e-01,9.99999e-01
1.455693646e+00,0.00000e+00,0.00000e+00,9.24828e-01,9.99999e-01
1.462972114e+00,1.55564e-209,1.67949e-209,9.26257e-01,9.99999e-01
1.470286975e+00,1.52702e-87,1.64610e-87,9.27659e-01,9.99999e-01
1.477638409e+00,2.18588e-55,2.35285e-55,9.29036e-01,9.99999e-01
1.485026601e+00,2.89939e-31,3.11632e-31,9.30388e-01,9.99999e-01
1.492451734e+00,1.20605e-26,1.29444e-26,9.31715e-01,9.99999e-01
1.499913993e+00,3.78108e-12,4.05253e-12,9.33018e-01,9.99999e-01
1.507413563e+00,6.21593e-11,6.65305e-11,9.34296e-01,9.99999e-01
1.514950631e+00,2.42933e-12,2.59668e-12,9.35551e-01,9.99999e-01
1.522525384e+00,1.17399e-39,1.25321e-39,9.36783e-01,9.99999e-01
1.530138011e+00,2.38746e-93,2.54529e-93,9.37992e-01,9.99999e-01
1.537788701e+00,2.62966e-69,2.79995e-69,9.39179e-01,9.99999e-01
1.545477645e+00,2.09625e-15,2.22924e-15,9.40344e-01,9.99999e-01
1.553205033e+00,5.25477e-11,5.58134e-11,9.41487e-01,9.99999e-01
1.560971058e+00,1.69144e-11,1.79442e-11,9.42609e-01,9.99999e-01
1.568775913e+00,4.04945e-235,4.29098e-235,9.43710e-01,9.99999e-01
1.576619793e+00,0.00000e+00,0.00000e+00,9.44790e-01,9.99999e-01
1.584502892e+00,1.29169e-300,1.36564e-300,9.45851e-01,9.99999e-01
1.592425406e+00,1.28913e-209,1.36144e-209,9.46891e-01,9.99999e-01
1.600387533e+00,0.00000e+00,0.00000e+00,9.47913e-01,9.99999e-01
1.608389471e+00,0.00000e+00,0.00000e+00,9.48915e-01,9.99999e-01
1.616431418e+00,0.00000e+00,0.00000e+00,9.49898e-01,9.99999e-01
1.624513575e+00,3.63086e-266,3.81849e-266,9.50863e-01,9.99999e-01
1.632636143e+00,8.71564e-198,9.15690e-198,9.51810e-01,9.99999e-01
1.640799324e+00,3.56013e-81,3.73673e-81,9.52739e-01,9.99999e-01
1.649003321e+00,3.57145e-81,3.74503e-81,9.53650e-01,9.99999e-01
1.657248337e+00,6.10704e-63,6.39785e-63,9.54545e-01,9.99999e-01
1.665534579e+00,2.34322e-63,2.45254e-63,9.55422e-01,9.99999e-01
1.673862252e+00,1.01047e-40,1.05667e-40,9.56283e-01,9.99999e-01
1.682231563e+00,1.72103e-28,1.79812e-28,9.57128e-01,9.99999e-01
1.690642721e+00,2.92934e-16,3.05790e-16,9.57957e-01,9.99999e-01
1.699095934e+00,1.60195e-10,1.67084e-10,9.58770e-01,9.99999e-01
1.707591414e+00,7.68812e-06,8.01206e-06,9.59567e-01,9.99999e-01
1.716129371e+00,1.22408e-03,1.27461e-03,9.60350e-01,9.99999e-01
1.724710018e+00,2.33266e-02,2.42703e-02,9.61118e-01,9.99999e-01
1.733333568e+00,8.44443e-02,8.77916e-02,9.61871e-01,9.99999e-01
1.742000236e+00,2.27115e-01,2.35936e-01,9.62610e-01,9.99999e-01
1.750710237e+00,3.77161e-03,3.91516e-03,9.63335e-01,9.99999e-01
1.759463788e+00,6.93294e-39,7.19150e-39,9.64046e-01,9.99999e-01
1.768261107e+00,1.00331e-40,1.03998e-40,9.64743e-01,9.99999e-01
1.777102413e+00,1.94185e-39,2.01138e-39,9.65427e-01,9.99999e-01
1.785987925e+00,3.19203e-37,3.30403e-37,9.66098e-01,9.99999e-01
1.794917864e+00,1.54379e-35,1.59687e-35,9.66757e-01,9.99999e-01
1.803892454e+00,2.92735e-34,3.02598e-34,9.67403e-01,9.99999e-01
1.812911916e+00,6.93602e-33,7.16503e-33,9.68036e-01,9.99999e-01
1.821976476e+00,5.47251e-33,5.64958e-33,9.68657e-01,9.99999e-01
1.831086358e+00,1.12390e-26,1.15954e-26,9.69267e-01,9.99999e-01
1.840241790e+00,1.00265e-22,1.03380e-22,9.69865e-01,9.99999e-01
1.849442999e+00,7.03422e-16,7.24840e-16,9.70451e-01,9.99999e-01
1.858690214e+00,8.31828e-15,8.56648e-15,9.71026e-01,9.99999e-01
1.867983665e+00,1.50167e-15,1.54558e-15,9.71590e-01,9.99999e-01
1.877323583e+00,1.37436e-73,1.41374e-73,9.72143e-01,9.99999e-01
