#,Wave/freq,Total,CO2,Rayleigh,CIA
4.000000000e-01,1.36089e-05,9.99999e-01,1.36089e-05,9.99999e-01
4.020000000e-01,1.69840e-05,9.99999e-01,1.69840e-05,9.99999e-01
4.040100000e-01,2.10989e-05,9.99999e-01,2.10989e-05,9.99999e-01
4.060300500e-01,2.60986e-05,9.99999e-01,2.60986e-05,9.99999e-01
4.080602003e-01,3.21477e-05,9.99999e-01,3.21477e-05,9.99999e-01
4.101005013e-01,3.94362e-05,9.99999e-01,3.94362e-05,9.99999e-01
4.121510038e-01,4.81823e-05,9.99999e-01,4.81823e-05,9.99999e-01
4.142117588e-01,5.86355e-05,9.99999e-01,5.86355e-05,9.99999e-01
4.162828176e-01,7.10804e-05,9.99999e-01,7.10804e-05,9.99999e-01
4.183642317e-01,8.58397e-05,9.99999e-01,8.58397e-05,9.99999e-01
4.204560528e-01,1.03278e-04,9.99999e-01,1.03278e-04,9.99999e-01
4.225583331e-01,1.23806e-04,9.99999e-01,1.23806e-04,9.99999e-01
4.246711247e-01,1.47883e-04,9.99999e-01,1.47883e-04,9.99999e-01
4.267944804e-01,1.76024e-04,9.99999e-01,1.76024e-04,9.99999e-01
4.289284528e-01,2.08801e-04,9.99999e-01,2.08801e-04,9.99999e-01
4.310730950e-01,2.46846e-04,9.99999e-01,2.46846e-04,9.99999e-01
4.332284605e-01,2.90861e-04,9.99999e-01,2.90861e-04,9.99999e-01
4.353946028e-01,3.41614e-04,9.99999e-01,3.41614e-04,9.99999e-01
4.375715758e-01,3.99951e-04,9.99999e-01,3.99951e-04,9.99999e-01
4.397594337e-01,4.66795e-04,9.99999e-01,4.66795e-04,9.99999e-01
4.419582309e-01,5.43149e-04,9.99999e-01,5.43149e-04,9.99999e-01
4.441680220e-01,6.30104e-04,9.99999e-01,6.30104e-04,9.99999e-01
4.463888621e-01,7.28840e-04,9.99999e-01,7.28840e-04,9.99999e-01
4.486208064e-01,8.40626e-04,9.99999e-01,8.40626e-04,9.99999e-01
4.508639105e-01,9.66829e-04,9.99999e-01,9.66829e-04,9.99999e-01
4.531182300e-01,1.10891e-03,9.99999e-01,1.10891e-03,9.99999e-01
4.553838212e-01,1.26843e-03,9.99999e-01,1.26843e-03,9.99999e-01
4.576607403e-01,1.44705e-03,9.99999e-01,1.44705e-03,9.99999e-01
4.599490440e-01,1.64654e-03,9.99999e-01,1.64654e-03,9.99999e-01
4.622487892e-01,1.86875e-03,9.99999e-01,1.86875e-03,9.99999e-01
4.645600332e-01,2.11566e-03,9.99999e-01,2.11566e-03,9.99999e-01
4.668828333e-01,2.38932e-03,9.99999e-01,2.38932e-03,9.99999e-01
4.692172475e-01,2.69191e-03,9.99999e-01,2.69191e-03,9.99999e-01
4.715633337e-01,3.02568e-03,9.99999e-01,3.02568e-03,9.99999e-01
4.739211504e-01,3.39299e-03,9.99999e-01,3.39299e-03,9.99999e-01
4.762907561e-01,3.79629e-03,9.99999e-01,3.79629e-03,9.99999e-01
4.786722099e-01,4.23812e-03,9.99999e-01,4.23812e-03,9.99999e-01
4.810655710e-01,4.72109e-03,9.99999e-01,4.72109e-03,9.99999e-01
4.834708988e-01,5.24790e-03,9.99999e-01,5.24790e-03,9.99999e-01
4.858882533e-01,5.82132e-03,9.99999e-01,5.82132e-03,9.99999e-01
4.883176946e-01,6.44419e-03,9.99999e-01,6.44419e-03,9.99999e-01
4.907592831e-01,7.11939e-03,9.99999e-01,7.11939e-03,9.99999e-01
4.932130795e-01,7.84986e-03,9.99999e-01,7.84986e-03,9.99999e-01
4.956791449e-01,8.63861e-03,9.99999e-01,8.63861e-03,9.99999e-01
4.981575406e-01,9.48864e-03,9.99999e-01,9.48864e-03,9.99999e-01
5.006483283e-01,1.04030e-02,9.99999e-01,1.04030e-02,9.99999e-01
5.031515699e-01,1.13848e-02,9.99999e-01,1.13848e-02,9.99999e-01
5.056673278e-01,1.24371e-02,9.99999e-01,1.24371e-02,9.99999e-01
5.081956644e-01,1.35629e-02,9.99999e-01,1.35629e-02,9.99999e-01
5.107366428e-01,1.47653e-02,9.99999e-01,1.47653e-02,9.99999e-01
5.132903260e-01,1.60474e-02,9.99999e-01,1.60474e-02,9.99999e-01
5.158567776e-01,1.74121e-02,9.99999e-01,1.74121e-02,9.99999e-01
5.184360615e-01,1.88625e-02,9.99999e-01,1.88625e-02,9.99999e-01
5.210282418e-01,2.04014e-02,9.99999e-01,2.04014e-02,9.99999e-01
5.236333830e-01,2.20318e-02,9.99999e-01,2.20318e-02,9.99999e-01
5.262515499e-01,2.37563e-02,9.99999e-01,2.37563e-02,9.99999e-01
5.288828077e-01,2.55776e-02,9.99999e-01,2.55776e-02,9.99999e-01
5.315272217e-01,2.74985e-02,9.99999e-01,2.74985e-02,9.99999e-01
5.341848578e-01,2.95214e-02,9.99999e-01,2.95214e-02,9.99999e-01
5.368557821e-01,3.16487e-02,9.99999e-01,3.16487e-02,9.99999e-01
5.395400610e-01,3.38826e-02,9.99999e-01,3.38826e-02,9.99999e-01
5.422377613e-01,3.62254e-02,9.99999e-01,3.62254e-02,9.99999e-01
5.449489501e-01,3.86791e-02,9.99999e-01,3.86791e-02,9.99999e-01
5.476736949e-01,4.12456e-02,9.99999e-01,4.12456e-02,9.99999e-01
5.504120634e-01,4.39266e-02,9.99999e-01,4.39266e-02,9.99999e-01
5.531641237e-01,4.67236e-02,9.99999e-01,4.67236e-02,9.99999e-01
5.559299443e-01,4.96383e-02,9.99999e-01,4.96383e-02,9.99999e-01
5.587095940e-01,5.26717e-02,9.99999e-01,5.26717e-02,9.99999e-01
5.615031420e-01,5.58251e-02,9.99999e-01,5.58251e-02,9.99999e-01
5.643106577e-01,5.90993e-02,9.99999e-01,5.90993e-02,9.99999e-01
5.671322110e-01,6.24952e-02,9.99999e-01,6.24952e-02,9.99999e-01
5.699678720e-01,6.60134e-02,9.99999e-01,6.60134e-02,9.99999e-01
5.728177114e-01,6.96542e-02,9.99999e-01,6.96542e-02,9.99999e-01
5.756818000e-01,7.34179e-02,9.99999e-01,7.34179e-02,9.99999e-01
5.785602090e-01,7.73045e-02,9.99999e-01,7.73045e-02,9.99999e-01
5.814530100e-01,8.13141e-02,9.99999e-01,8.13141e-02,9.99999e-01
5.843602750e-01,8.54462e-02,9.99999e-01,8.54462e-02,9.99999e-01
5.872820764e-01,8.97004e-02,9.99999e-01,8.97004e-02,9.99999e-01
5.902184868e-01,9.40761e-02,9.99999e-01,9.40761e-02,9.99999e-01
5.931695792e-01,9.85724e-02,9.99999e-01,9.85724e-02,9.99999e-01
5.961354271e-01,1.03189e-01,9.99999e-01,1.03189e-01,9.99999e-01
5.991161043e-01,1.07923e-01,9.99999e-01,1.07923e-01,9.99999e-01
6.021116848e-01,1.12775e-01,9.99999e-01,1.12775e-01,9.99999e-01
6.051222432e-01,1.17743e-01,9.99999e-01,1.17743e-01,9.99999e-01
6.081478544e-01,1.22825e-01,9.99999e-01,1.22825e-01,9.99999e-01
6.111885937e-01,1.28019e-01,9.99999e-01,1.28019e-01,9.99999e-01
6.142445367e-01,1.33324e-01,9.99999e-01,1.33324e-01,9.99999e-01
6.173157594e-01,1.38737e-01,9.99999e-01,1.38737e-01,9.99999e-01
6.204023382e-01,1.44257e-01,9.99999e-01,1.44257e-01,9.99999e-01
6.235043498e-01,1.49881e-01,9.99999e-01,1.49881e-01,9.99999e-01
6.266218716e-01,1.55606e-01,9.99999e-01,1.55606e-01,9.99999e-01
6.297549810e-01,1.61431e-01,9.99999e-01,1.61431e-01,9.99999e-01
6.329037559e-01,1.67352e-01,9.99999e-01,1.67352e-01,9.99999e-01
6.360682746e-01,1.73367e-01,9.99999e-01,1.73367e-01,9.99999e-01
6.392486160e-01,1.79473e-01,9.99999e-01,1.79473e-01,9.99999e-01
6.424448591e-01,1.85667e-01,9.99999e-01,1.85667e-01,9.99999e-01
6.456570834e-01,1.91945e-01,9.99999e-01,1.91945e-01,9.99999e-01
6.488853688e-01,1.98306e-01,9.99999e-01,1.98306e-01,9.99999e-01
6.521297956e-01,2.04746e-01,9.99999e-01,2.04746e-01,9.99999e-01
6.553904446e-01,2.11262e-01,9.99999e-01,2.11262e-01,9.99999e-01
6.586673968e-01,2.17850e-01,9.99999e-01,2.17850e-01,9.99999e-01
6.619607338e-01,2.24508e-01,9.99999e-01,2.24508e-01,9.99999e-01
6.652705375e-01,2.31231e-01,9.99999e-01,2.31231e-01,9.99999e-01
6.685968902e-01,2.38017e-01,9.99999e-01,2.38017e-01,9.99999e-01
6.719398746e-01,2.44862e-01,9.99999e-01,2.44862e-01,9.99999e-01
6.752995740e-01,2.51763e-01,9.99999e-01,2.51763e-01,9.99999e-01
6.786760719e-01,2.58716e-01,9.99999e-01,2.58716e-01,9.99999e-01
6.820694522e-01,2.65718e-01,9.99999e-01,2.65718e-01,9.99999e-01
6.854797995e-01,2.72766e-01,9.99999e-01,2.72766e-01,9.99999e-01
6.889071985e-01,2.79856e-01,9.99999e-01,2.79856e-01,9.99999e-01
6.923517345e-01,2.86985e-01,9.99999e-01,2.86985e-01,9.99999e-01
6.958134932e-01,2.94149e-01,9.99999e-01,2.94149e-01,9.99999e-01
6.992925606e-01,3.01346e-01,9.99999e-01,3.01346e-01,9.99999e-01
7.027890234e-01,3.08571e-01,9.99999e-01,3.08571e-01,9.99999e-01
7.063029686e-01,3.15821e-01,9.99999e-01,3.15821e-01,9.99999e-01
7.098344834e-01,3.23094e-01,9.99999e-01,3.23094e-01,9.99999e-01
7.133836558e-01,3.30385e-01,9.99999e-01,3.30385e-01,9.99999e-01
7.169505741e-01,3.37692e-01,9.99999e-01,3.37692e-01,9.99999e-01
7.205353270e-01,3.45012e-01,9.99999e-01,3.45012e-01,9.99999e-01
7.241380036e-01,3.52341e-01,9.99999e-01,3.52341e-01,9.99999e-01
7.277586936e-01,3.59676e-01,9.99999e-01,3.59676e-01,9.99999e-01
7.313974871e-01,3.67015e-01,9.99999e-01,3.67015e-01,9.99999e-01
7.350544745e-01,3.74353e-01,9.99999e-01,3.74353e-01,9.99999e-01
7.387297469e-01,3.81690e-01,9.99999e-01,3.81690e-01,9.99999e-01
7.424233956e-01,3.89021e-01,9.99999e-01,3.89021e-01,9.99999e-01
7.461355126e-01,3.96344e-01,9.99999e-01,3.96344e-01,9.99999e-01
7.498661902e-01,4.03656e-01,9.99999e-01,4.03656e-01,9.99999e-01
7.536155211e-01,4.10954e-01,9.99999e-01,4.10954e-01,9.99999e-01
7.573835987e-01,4.18236e-01,9.99999e-01,4.18236e-01,9.99999e-01
7.611705167e-01,4.25500e-01,9.99999e-01,4.25500e-01,9.99999e-01
7.649763693e-01,4.32743e-01,9.99999e-01,4.32743e-01,9.99999e-01
7.688012511e-01,4.39962e-01,9.99999e-01,4.39962e-01,9.99999e-01
7.726452574e-01,4.47155e-01,9.99999e-01,4.47155e-01,9.99999e-01
7.765084837e-01,4.54321e-01,9.99999e-01,4.54321e-01,9.99999e-01
7.803910261e-01,4.45144e-01,9.64649e-01,4.61456e-01,9.99999e-01
7.842929812e-01,3.97892e-01,8.49179e-01,4.68560e-01,9.99999e-01
7.882144461e-01,3.99521e-01,8.39985e-01,4.75629e-01,9.99999e-01
7.921555184e-01,4.35906e-01,9.03127e-01,4.82662e-01,9.99999e-01
7.961162960e-01,4.57232e-01,9.33780e-01,4.89657e-01,9.99999e-01
8.000968774e-01,4.78525e-01,9.63577e-01,4.96612e-01,9.99999e-01
8.040973618e-01,4.93921e-01,9.80924e-01,5.03526e-01,9.99999e-01
8.081178486e-01,5.05914e-01,9.91218e-01,5.10396e-01,9.99999e-01
8.121584379e-01,5.15809e-01,9.97267e-01,5.17222e-01,9.99999e-01
8.162192301e-01,5.23685e-01,9.99395e-01,5.24001e-01,9.99999e-01
8.203003262e-01,5.30728e-01,9.99989e-01,5.30733e-01,9.99999e-01
8.244018279e-01,5.37416e-01,9.99999e-01,5.37416e-01,9.99999e-01
8.285238370e-01,5.44049e-01,9.99999e-01,5.44049e-01,9.99999e-01
8.326664562e-01,5.50630e-01,9.99999e-01,5.50630e-01,9.99999e-01
8.368297885e-01,5.57158e-01,9.99999e-01,5.57158e-01,9.99999e-01
8.410139374e-01,5.63632e-01,9.99999e-01,5.63632e-01,9.99999e-01
8.452190071e-01,5.70052e-01,9.99999e-01,5.70052e-01,9.99999e-01
8.494451021e-01,5.76415e-01,9.99999e-01,5.76415e-01,9.99999e-01
8.536923276e-01,5.82722e-01,9.99999e-01,5.82722e-01,9.99999e-01
8.579607893e-01,5.88971e-01,9.99999e-01,5.88971e-01,9.99999e-01
8.622505932e-01,5.95162e-01,9.99999e-01,5.95162e-01,9.99999e-01
8.665618462e-01,5.55207e-01,9.23352e-01,6.01294e-01,9.99999e-01
8.708946554e-01,4.01719e-01,6.61412e-01,6.07366e-01,9.99999e-01
8.752491287e-01,4.39073e-01,7.15827e-01,6.13378e-01,9.99999e-01
8.796253743e-01,5.15225e-01,8.31909e-01,6.19328e-01,9.99999e-01
8.840235012e-01,5.68287e-01,9.08943e-01,6.25217e-01,9.99999e-01
8.884436187e-01,6.07693e-01,9.62995e-01,6.31044e-01,9.99999e-01
8.928858368e-01,6.27171e-01,9.84865e-01,6.36809e-01,9.99999e-01
8.973502660e-01,6.40128e-01,9.96291e-01,6.42511e-01,9.99999e-01
9.018370173e-01,6.47884e-01,9.99590e-01,6.48149e-01,9.99999e-01
9.063462024e-01,6.47005e-01,9.89719e-01,6.53725e-01,9.99999e-01
9.108779334e-01,6.43579e-01,9.76248e-01,6.59237e-01,9.99999e-01
9.154323231e-01,6.60928e-01,9.94347e-01,6.64685e-01,9.99999e-01
9.200094847e-01,6.18015e-01,9.22315e-01,6.70069e-01,9.99999e-01
9.246095321e-01,6.00473e-01,8.89076e-01,6.75389e-01,9.99999e-01
9.292325798e-01,6.21090e-01,9.12500e-01,6.80645e-01,9.99999e-01
9.338787427e-01,6.27420e-01,9.14822e-01,6.85837e-01,9.99999e-01
9.385481364e-01,6.47205e-01,9.36668e-01,6.90965e-01,9.99999e-01
9.432408771e-01,6.68654e-01,9.60669e-01,6.96029e-01,9.99999e-01
9.479570815e-01,6.86767e-01,9.79655e-01,7.01029e-01,9.99999e-01
9.526968669e-01,6.98997e-01,9.90130e-01,7.05964e-01,9.99999e-01
9.574603512e-01,7.07828e-01,9.95766e-01,7.10837e-01,9.99999e-01
9.622476530e-01,7.14699e-01,9.98677e-01,7.15645e-01,9.99999e-01
9.670588912e-01,7.20104e-01,9.99602e-01,7.20390e-01,9.99999e-01
9.718941857e-01,7.25051e-01,9.99971e-01,7.25072e-01,9.99999e-01
9.767536566e-01,7.29691e-01,9.99999e-01,7.29691e-01,9.99999e-01
9.816374249e-01,7.34247e-01,9.99999e-01,7.34247e-01,9.99999e-01
9.865456120e-01,7.38741e-01,9.99999e-01,7.38741e-01,9.99999e-01
9.914783401e-01,7.43173e-01,9.99999e-01,7.43173e-01,9.99999e-01
9.964357318e-01,7.47543e-01,9.99999e-01,7.47543e-01,9.99999e-01
1.001417910e+00,7.51851e-01,9.99999e-01,7.51851e-01,9.99999e-01
1.006425000e+00,7.56099e-01,9.99999e-01,7.56099e-01,9.99999e-01
1.011457125e+00,7.60286e-01,9.99999e-01,7.60286e-01,9.99999e-01
1.016514411e+00,7.64413e-01,9.99999e-01,7.64413e-01,9.99999e-01
1.021596983e+00,7.68440e-01,9.99947e-01,7.68480e-01,9.99999e-01
1.026704968e+00,7.69389e-01,9.95987e-01,7.72488e-01,9.99999e-01
1.031838492e+00,7.41592e-01,9.55122e-01,7.76437e-01,9.99999e-01
1.036997685e+00,1.11705e-01,1.43152e-01,7.80327e-01,9.99999e-01
1.042182673e+00,8.00192e-02,1.02044e-01,7.84160e-01,9.99999e-01
1.047393587e+00,9.98197e-02,1.26685e-01,7.87935e-01,9.99999e-01
1.052630555e+00,2.16931e-03,2.74023e-03,7.91653e-01,9.99999e-01
1.057893707e+00,5.69019e-03,7.15464e-03,7.95315e-01,9.99999e-01
1.063183176e+00,2.07809e-02,2.60112e-02,7.98921e-01,9.99999e-01
1.068499092e+00,6.28383e-02,7.83059e-02,8.02471e-01,9.99999e-01
1.073841587e+00,1.60555e-01,1.99208e-01,8.05967e-01,9.99999e-01
1.079210795e+00,2.91370e-01,3.59979e-01,8.09408e-01,9.99999e-01
1.084606849e+00,4.62538e-01,5.69069e-01,8.12796e-01,9.99999e-01
1.090029883e+00,6.09059e-01,7.46276e-01,8.16131e-01,9.99999e-01
1.095480033e+00,7.09282e-01,8.65598e-01,8.19413e-01,9.99999e-01
1.100957433e+00,7.67382e-01,9.32825e-01,8.22642e-01,9.99999e-01
1.106462220e+00,8.02397e-01,9.71635e-01,8.25821e-01,9.99999e-01
1.111994531e+00,8.20155e-01,9.89391e-01,8.28949e-01,9.99999e-01
1.117554504e+00,8.29858e-01,9.97393e-01,8.32026e-01,9.99999e-01
1.123142276e+00,8.34910e-01,9.99827e-01,8.35054e-01,9.99999e-01
1.128757988e+00,8.38032e-01,9.99999e-01,8.38032e-01,9.99999e-01
1.134401778e+00,8.40962e-01,9.99999e-01,8.40962e-01,9.99999e-01
1.140073787e+00,8.43844e-01,9.99999e-01,8.43844e-01,9.99999e-01
1.145774156e+00,8.46679e-01,9.99999e-01,8.46679e-01,9.99999e-01
1.151503026e+00,8.49467e-01,9.99999e-01,8.49467e-01,9.99999e-01
1.157260541e+00,8.52209e-01,9.99999e-01,8.52209e-01,9.99999e-01
1.163046844e+00,8.54905e-01,9.99999e-01,8.54905e-01,9.99999e-01
1.168862078e+00,8.57556e-01,9.99999e-01,8.57556e-01,9.99999e-01
1.174706389e+00,8.60163e-01,9.99999e-01,8.60163e-01,9.99999e-01
1.180579921e+00,8.62726e-01,9.99999e-01,8.62726e-01,9.99999e-01
1.186482820e+00,8.65241e-01,9.99993e-01,8.65246e-01,9.99999e-01
1.192415234e+00,8.55404e-01,9.85801e-01,8.67724e-01,9.99999e-01
1.198377311e+00,4.87171e-01,5.59863e-01,8.70159e-01,9.99999e-01
1.204369197e+00,5.77391e-12,6.61726e-12,8.72553e-01,9.99999e-01
1.210391043e+00,5.46992e-44,6.25200e-44,8.74905e-01,9.99999e-01
1.216442998e+00,2.91056e-38,3.31794e-38,8.77218e-01,9.99999e-01
1.222525213e+00,1.03943e-37,1.18185e-37,8.79491e-01,9.99999e-01
1.228637839e+00,3.28506e-29,3.72572e-29,8.81724e-01,9.99999e-01
1.234781029e+00,7.39333e-19,8.36425e-19,8.83919e-01,9.99999e-01
1.240954934e+00,9.82039e-13,1.10830e-12,8.86076e-01,9.99999e-01
1.247159708e+00,5.35692e-07,6.03123e-07,8.88196e-01,9.99999e-01
1.253395507e+00,1.51307e-04,1.69955e-04,8.90278e-01,9.99999e-01
1.259662485e+00,6.12590e-03,6.86510e-03,8.92324e-01,9.99999e-01
1.265960797e+00,5.00225e-02,5.59326e-02,8.94335e-01,9.99999e-01
1.272290601e+00,2.39237e-01,2.66914e-01,8.96309e-01,9.99999e-01
1.278652054e+00,2.26331e-01,2.51968e-01,8.98250e-01,9.99999e-01
1.285045314e+00,5.35487e-03,5.94882e-03,9.00156e-01,9.99999e-01
1.291470541e+00,7.78163e-06,8.62681e-06,9.02028e-01,9.99999e-01
1.297927893e+00,3.13328e-03,3.46652e-03,9.03867e-01,9.99999e-01
1.304417533e+00,9.72123e-02,1.07337e-01,9.05673e-01,9.99999e-01
1.310939621e+00,2.38275e-02,2.62577e-02,9.07447e-01,9.99999e-01
1.317494319e+00,1.41749e-15,1.55907e-15,9.09190e-01,9.99999e-01
1.324081790e+00,9.68608e-11,1.06335e-10,9.10901e-01,9.99999e-01
1.330702199e+00,2.37073e-06,2.59783e-06,9.12582e-01,9.99999e-01
1.337355710e+00,3.41729e-06,3.73788e-06,9.14232e-01,9.99999e-01
1.344042489e+00,1.07557e-06,1.17439e-06,9.15853e-01,9.99999e-01
1.350762701e+00,1.43075e-06,1.55949e-06,9.17444e-01,9.99999e-01
1.357516515e+00,1.81256e-04,1.97230e-04,9.19007e-01,9.99999e-01
1.364304097e+00,3.41991e-03,3.71510e-03,9.20541e-01,9.99999e-01
1.371125618e+00,5.00513e-02,5.42827e-02,9.22048e-01,9.99999e-01
1.377981246e+00,8.39446e-02,9.08956e-02,9.23527e-01,9.99999e-01
1.384871152e+00,2.29086e-01,2.47666e-01,9.24980e-01,9.99999e-01
1.391795508e+00,2.54920e-01,2.75170e-01,9.26406e-01,9.99999e-01
1.398754485e+00,4.18096e-01,4.50628e-01,9.27805e-01,9.99999e-01
1.405748258e+00,5.16712e-01,5.56094e-01,9.29180e-01,9.99999e-01
1.412776999e+00,6.42102e-01,6.90039e-01,9.30529e-01,9.99999e-01
1.419840884e+00,5.79585e-01,6.21969e-01,9.31853e-01,9.99999e-01
1.426940089e+00,5.09143e-02,5.45615e-02,9.33153e-01,9.99999e-01
1.434074789e+00,0.00000e+00,0.00000e+00,9.34429e-01,9.99999e-01
1.441245163e+00,0.00000e+00,0.00000e+00,9.35682e-01,9.99999e-01
1.448451389e+00,0.00000e+00,0.00000e+00,9.36911e-01,9.99999e-01
1.455693646e+00,0.00000e+00,0.00000e+00,9.38118e-01,9.99999e-01
1.462972114e+00,1.14096e-171,1.21469e-171,9.39302e-01,9.99999e-01
1.470286975e+00,5.81480e-72,6.18289e-72,9.40465e-01,9.99999e-01
1.477638409e+00,1.11363e-45,1.18269e-45,9.41606e-01,9.99999e-01
1.485026601e+00,5.96235e-26,6.32458e-26,9.42726e-01,9.99999e-01
1.492451734e+00,4.10083e-22,4.34490e-22,9.43825e-01,9.99999e-01
1.499913993e+00,2.59433e-10,2.74560e-10,9.44903e-01,9.99999e-01
1.507413563e+00,4.25537e-09,4.49846e-09,9.45961e-01,9.99999e-01
1.514950631e+00,1.69579e-10,1.79069e-10,9.47000e-01,9.99999e-01
1.522525384e+00,8.00269e-33,8.44147e-33,9.48019e-01,9.99999e-01
1.530138011e+00,1.07041e-76,1.12791e-76,9.49019e-01,9.99999e-01
1.537788701e+00,4.74852e-57,4.99844e-57,9.50000e-01,9.99999e-01
1.545477645e+00,5.30583e-13,5.57942e-13,9.50963e-01,9.99999e-01
1.553205033e+00,3.42978e-09,3.60306e-09,9.51908e-01,9.99999e-01
1.560971058e+00,1.06172e-09,1.11428e-09,9.52835e-01,9.99999e-01
1.568775913e+00,1.40462e-192,1.47274e-192,9.53745e-01,9.99999e-01
1.576619793e+00,0.00000e+00,0.00000e+00,9.54638e-01,9.99999e-01
1.584502892e+00,4.14243e-246,4.33529e-246,9.55514e-01,9.99999e-01
1.592425406e+00,1.00960e-171,1.05565e-171,9.56373e-01,9.99999e-01
1.600387533e+00,2.40183e-276,2.50918e-276,9.57216e-01,9.99999e-01
1.608389471e+00,0.00000e+00,0.00000e+00,9.58043e-01,9.99999e-01
1.616431418e+00,0.00000e+00,0.00000e+00,9.58854e-01,9.99999e-01
1.624513575e+00,5.91729e-218,6.16608e-218,9.59650e-01,9.99999e-01
1.632636143e+00,4.58258e-162,4.77137e-162,9.60431e-01,9.99999e-01
1.640799324e+00,9.31762e-67,9.69375e-67,9.61198e-01,9.99999e-01
1.649003321e+00,9.41427e-67,9.78665e-67,9.61949e-01,9.99999e-01
1.657248337e+00,7.66247e-52,7.95946e-52,9.62687e-01,9.99999e-01
1.665534579e+00,3.50969e-52,3.64298e-52,9.63410e-01,9.99999e-01
1.673862252e+00,1.11554e-33,1.15705e-33,9.64120e-01,9.99999e-01
1.682231563e+00,1.13259e-23,1.17389e-23,9.64816e-01,9.99999e-01
1.690642721e+00,1.08387e-13,1.12260e-13,9.65499e-01,9.99999e-01
1.699095934e+00,6.78853e-09,7.02624e-09,9.66168e-01,9.99999e-01
1.707591414e+00,4.70503e-05,4.86647e-05,9.66825e-01,9.99999e-01
1.716129371e+00,3.65166e-03,3.77444e-03,9.67470e-01,9.99999e-01
1.724710018e+00,4.45137e-02,4.59803e-02,9.68102e-01,9.99999e-01
1.733333568e+00,1.31278e-01,1.35516e-01,9.68722e-01,9.99999e-01
1.742000236e+00,2.93941e-01,3.03241e-01,9.69330e-01,9.99999e-01
1.750710237e+00,7.04316e-03,7.26153e-03,9.69927e-01,9.99999e-01
1.759463788e+00,3.89492e-32,4.01326e-32,9.70512e-01,9.99999e-01
1.768261107e+00,1.07157e-33,1.10348e-33,9.71086e-01,9.99999e-01
1.777102413e+00,1.66354e-32,1.71208e-32,9.71649e-01,9.99999e-01
1.785987925e+00,8.17086e-31,8.40448e-31,9.72201e-01,9.99999e-01
1.794917864e+00,2.19556e-29,2.25708e-29,9.72743e-01,9.99999e-01
1.803892454e+00,2.06162e-28,2.11823e-28,9.73274e-01,9.99999e-01
1.812911916e+00,3.12530e-27,3.20940e-27,9.73795e-01,9.99999e-01
1.821976476e+00,2.28914e-27,2.34951e-27,9.74306e-01,9.99999e-01
1.831086358e+00,3.29841e-22,3.38365e-22,9.74807e-01,9.99999e-01
1.840241790e+00,6.54786e-19,6.71370e-19,9.75298e-01,9.99999e-01
1.849442999e+00,3.06815e-13,3.14430e-13,9.75780e-01,9.99999e-01
1.858690214e+00,2.76376e-12,2.83099e-12,9.76253e-01,9.99999e-01
1.867983665e+00,4.90798e-13,5.02498e-13,9.76716e-01,9.99999e-01
1.877323583e+00,1.50872e-60,1.54397e-60,9.77171e-01,9.99999e-01
