#,Wave/freq,Total,CO2,Rayleigh,CIA
4.000000000e-01,1.15734e-02,9.99999e-01,1.15734e-02,9.99999e-01
4.020000000e-01,1.26402e-02,9.99999e-01,1.26402e-02,9.99999e-01
4.040100000e-01,1.37800e-02,9.99999e-01,1.37800e-02,9.99999e-01
4.060300500e-01,1.49969e-02,9.99999e-01,1.49969e-02,9.99999e-01
4.080602003e-01,1.62941e-02,9.99999e-01,1.62941e-02,9.99999e-01
4.101005013e-01,1.76745e-02,9.99999e-01,1.76745e-02,9.99999e-01
4.121510038e-01,1.91411e-02,9.99999e-01,1.91411e-02,9.99999e-01
4.142117588e-01,2.06968e-02,9.99999e-01,2.06968e-02,9.99999e-01
4.162828176e-01,2.23443e-02,9.99999e-01,2.23443e-02,9.99999e-01
4.183642317e-01,2.40866e-02,9.99999e-01,2.40866e-02,9.99999e-01
4.204560528e-01,2.59262e-02,9.99999e-01,2.59262e-02,9.99999e-01
4.225583331e-01,2.78658e-02,9.99999e-01,2.78658e-02,9.99999e-01
4.246711247e-01,2.99079e-02,9.99999e-01,2.99079e-02,9.99999e-01
4.267944804e-01,3.20548e-02,9.99999e-01,3.20548e-02,9.99999e-01
4.289284528e-01,3.43088e-02,9.99999e-01,3.43088e-02,9.99999e-01
4.310730950e-01,3.66720e-02,9.99999e-01,3.66720e-02,9.99999e-01
4.332284605e-01,3.91465e-02,9.99999e-01,3.91465e-02,9.99999e-01
4.353946028e-01,4.17340e-02,9.99999e-01,4.17340e-02,9.99999e-01
4.375715758e-01,4.44364e-02,9.99999e-01,4.44364e-02,9.99999e-01
4.397594337e-01,4.72552e-02,9.99999e-01,4.72552e-02,9.99999e-01
4.419582309e-01,5.01918e-02,9.99999e-01,5.01918e-02,9.99999e-01
4.441680220e-01,5.32474e-02,9.99999e-01,5.32474e-02,9.99999e-01
4.463888621e-01,5.64231e-02,9.99999e-01,5.64231e-02,9.99999e-01
4.486208064e-01,5.97199e-02,9.99999e-01,5.97199e-02,9.99999e-01
4.508639105e-01,6.31384e-02,9.99999e-01,6.31384e-02,9.99999e-01
4.531182300e-01,6.66792e-02,9.99999e-01,6.66792e-02,9.99999e-01
4.553838212e-01,7.03428e-02,9.99999e-01,7.03428e-02,9.99999e-01
4.576607403e-01,7.41293e-02,9.99999e-01,7.41293e-02,9.99999e-01
4.599490440e-01,7.80388e-02,9.99999e-01,7.80388e-02,9.99999e-01
4.622487892e-01,8.20711e-02,9.99999e-01,8.20711e-02,9.99999e-01
4.645600332e-01,8.62258e-02,9.99999e-01,8.62258e-02,9.99999e-01
4.668828333e-01,9.05026e-02,9.99999e-01,9.05026e-02,9.99999e-01
4.692172475e-01,9.49008e-02,9.99999e-01,9.49008e-02,9.99999e-01
4.715633337e-01,9.94194e-02,9.99999e-01,9.94194e-02,9.99999e-01
4.739211504e-01,1.04058e-01,9.99999e-01,1.04058e-01,9.99999e-01
4.762907561e-01,1.08814e-01,9.99999e-01,1.08814e-01,9.99999e-01
4.786722099e-01,1.13688e-01,9.99999e-01,1.13688e-01,9.99999e-01
4.810655710e-01,1.18677e-01,9.99999e-01,1.18677e-01,9.99999e-01
4.834708988e-01,1.23779e-01,9.99999e-01,1.23779e-01,9.99999e-01
4.858882533e-01,1.28994e-01,9.99999e-01,1.28994e-01,9.99999e-01
4.883176946e-01,1.34320e-01,9.99999e-01,1.34320e-01,9.99999e-01
4.907592831e-01,1.39753e-01,9.99999e-01,1.39753e-01,9.99999e-01
4.932130795e-01,1.45292e-01,9.99999e-01,1.45292e-01,9.99999e-01
4.956791449e-01,1.50935e-01,9.99999e-01,1.50935e-01,9.99999e-01
4.981575406e-01,1.56679e-01,9.99999e-01,1.56679e-01,9.99999e-01
5.006483283e-01,1.62522e-01,9.99999e-01,1.62522e-01,9.99999e-01
5.031515699e-01,1.68460e-01,9.99999e-01,1.68460e-01,9.99999e-01
5.056673278e-01,1.74492e-01,9.99999e-01,1.74492e-01,9.99999e-01
5.081956644e-01,1.80615e-01,9.99999e-01,1.80615e-01,9.99999e-01
5.107366428e-01,1.86825e-01,9.99999e-01,1.86825e-01,9.99999e-01
5.132903260e-01,1.93119e-01,9.99999e-01,1.93119e-01,9.99999e-01
5.158567776e-01,1.99495e-01,9.99999e-01,1.99495e-01,9.99999e-01
5.184360615e-01,2.05949e-01,9.99999e-01,2.05949e-01,9.99999e-01
5.210282418e-01,2.12478e-01,9.99999e-01,2.12478e-01,9.99999e-01
5.236333830e-01,2.19080e-01,9.99999e-01,2.19080e-01,9.99999e-01
5.262515499e-01,2.25749e-01,9.99999e-01,2.25749e-01,9.99999e-01
5.288828077e-01,2.32485e-01,9.99999e-01,2.32485e-01,9.99999e-01
5.315272217e-01,2.39282e-01,9.99999e-01,2.39282e-01,9.99999e-01
5.341848578e-01,2.46137e-01,9.99999e-01,2.46137e-01,9.99999e-01
5.368557821e-01,2.53048e-01,9.99999e-01,2.53048e-01,9.99999e-01
5.395400610e-01,2.60011e-01,9.99999e-01,2.60011e-01,9.99999e-01
5.422377613e-01,2.67022e-01,9.99999e-01,2.67022e-01,9.99999e-01
5.449489501e-01,2.74078e-01,9.99999e-01,2.74078e-01,9.99999e-01
5.476736949e-01,2.81175e-01,9.99999e-01,2.81175e-01,9.99999e-01
5.504120634e-01,2.88311e-01,9.99999e-01,2.88311e-01,9.99999e-01
5.531641237e-01,2.95482e-01,9.99999e-01,2.95482e-01,9.99999e-01
5.559299443e-01,3.02683e-01,9.99999e-01,3.02683e-01,9.99999e-01
5.587095940e-01,3.09913e-01,9.99999e-01,3.09913e-01,9.99999e-01
5.615031420e-01,3.17168e-01,9.99999e-01,3.17168e-01,9.99999e-01
5.643106577e-01,3.24444e-01,9.99999e-01,3.24444e-01,9.99999e-01
5.671322110e-01,3.31739e-01,9.99999e-01,3.31739e-01,9.99999e-01
5.699678720e-01,3.39049e-01,9.99999e-01,3.39049e-01,9.99999e-01
5.728177114e-01,3.46370e-01,9.99999e-01,3.46370e-01,9.99999e-01
5.756818000e-01,3.53701e-01,9.99999e-01,3.53701e-01,9.99999e-01
5.785602090e-01,3.61037e-01,9.99999e-01,3.61037e-01,9.99999e-01
5.814530100e-01,3.68375e-01,9.99999e-01,3.68375e-01,9.99999e-01
5.843602750e-01,3.75714e-01,9.99999e-01,3.75714e-01,9.99999e-01
5.872820764e-01,3.83050e-01,9.99999e-01,3.83050e-01,9.99999e-01
5.902184868e-01,3.90379e-01,9.99999e-01,3.90379e-01,9.99999e-01
5.931695792e-01,3.97700e-01,9.99999e-01,3.97700e-01,9.99999e-01
5.961354271e-01,4.05010e-01,9.99999e-01,4.05010e-01,9.99999e-01
5.991161043e-01,4.12306e-01,9.99999e-01,4.12306e-01,9.99999e-01
6.021116848e-01,4.19585e-01,9.99999e-01,4.19585e-01,9.99999e-01
6.051222432e-01,4.26845e-01,9.99999e-01,4.26845e-01,9.99999e-01
6.081478544e-01,4.34083e-01,9.99999e-01,4.34083e-01,9.99999e-01
6.111885937e-01,4.41298e-01,9.99999e-01,4.41298e-01,9.99999e-01
6.142445367e-01,4.48486e-01,9.99999e-01,4.48486e-01,9.99999e-01
6.173157594e-01,4.55646e-01,9.99999e-01,4.55646e-01,9.99999e-01
6.204023382e-01,4.62776e-01,9.99999e-01,4.62776e-01,9.99999e-01
6.235043498e-01,4.69873e-01,9.99999e-01,4.69873e-01,9.99999e-01
6.266218716e-01,4.76936e-01,9.99999e-01,4.76936e-01,9.99999e-01
6.297549810e-01,4.83962e-01,9.99999e-01,4.83962e-01,9.99999e-01
6.329037559e-01,4.90950e-01,9.99999e-01,4.90950e-01,9.99999e-01
6.360682746e-01,4.97897e-01,9.99999e-01,4.97897e-01,9.99999e-01
6.392486160e-01,5.04803e-01,9.99999e-01,5.04803e-01,9.99999e-01
6.424448591e-01,5.11665e-01,9.99999e-01,5.11665e-01,9.99999e-01
6.456570834e-01,5.18483e-01,9.99999e-01,5.18483e-01,9.99999e-01
6.488853688e-01,5.25253e-01,9.99999e-01,5.25253e-01,9.99999e-01
6.521297956e-01,5.31976e-01,9.99999e-01,5.31976e-01,9.99999e-01
6.553904446e-01,5.38650e-01,9.99999e-01,5.38650e-01,9.99999e-01
6.586673968e-01,5.45273e-01,9.99999e-01,5.45273e-01,9.99999e-01
6.619607338e-01,5.51844e-01,9.99999e-01,5.51844e-01,9.99999e-01
6.652705375e-01,5.58362e-01,9.99999e-01,5.58362e-01,9.99999e-01
6.685968902e-01,5.64827e-01,9.99999e-01,5.64827e-01,9.99999e-01
6.719398746e-01,5.71236e-01,9.99999e-01,5.71236e-01,9.99999e-01
6.752995740e-01,5.77589e-01,9.99999e-01,5.77589e-01,9.99999e-01
6.786760719e-01,5.83885e-01,9.99999e-01,5.83885e-01,9.99999e-01
6.820694522e-01,5.90124e-01,9.99999e-01,5.90124e-01,9.99999e-01
6.854797995e-01,5.96304e-01,9.99999e-01,5.96304e-01,9.99999e-01
6.889071985e-01,6.02425e-01,9.99999e-01,6.02425e-01,9.99999e-01
6.923517345e-01,6.08485e-01,9.99999e-01,6.08485e-01,9.99999e-01
6.958134932e-01,6.14486e-01,9.99999e-01,6.14486e-01,9.99999e-01
6.992925606e-01,6.20425e-01,9.99999e-01,6.20425e-01,9.99999e-01
7.027890234e-01,6.26302e-01,9.99999e-01,6.26302e-01,9.99999e-01
7.063029686e-01,6.32118e-01,9.99999e-01,6.32118e-01,9.99999e-01
7.098344834e-01,6.37871e-01,9.99999e-01,6.37871e-01,9.99999e-01
7.133836558e-01,6.43561e-01,9.99999e-01,6.43561e-01,9.99999e-01
7.169505741e-01,6.49188e-01,9.99999e-01,6.49188e-01,9.99999e-01
7.205353270e-01,6.54752e-01,9.99999e-01,6.54752e-01,9.99999e-01
7.241380036e-01,6.60252e-01,9.99999e-01,6.60252e-01,9.99999e-01
7.277586936e-01,6.65688e-01,9.99999e-01,6.65688e-01,9.99999e-01
7.313974871e-01,6.71060e-01,9.99999e-01,6.71060e-01,9.99999e-01
7.350544745e-01,6.76369e-01,9.99999e-01,6.76369e-01,9.99999e-01
7.387297469e-01,6.81613e-01,9.99999e-01,6.81613e-01,9.99999e-01
7.424233956e-01,6.86793e-01,9.99999e-01,6.86793e-01,9.99999e-01
7.461355126e-01,6.91909e-01,9.99999e-01,6.91909e-01,9.99999e-01
7.498661902e-01,6.96961e-01,9.99999e-01,6.96961e-01,9.99999e-01
7.536155211e-01,7.01949e-01,9.99999e-01,7.01949e-01,9.99999e-01
7.573835987e-01,7.06873e-01,9.99999e-01,7.06873e-01,9.99999e-01
7.611705167e-01,7.11733e-01,9.99999e-01,7.11733e-01,9.99999e-01
7.649763693e-01,7.16530e-01,9.99999e-01,7.16530e-01,9.99999e-01
7.688012511e-01,7.21263e-01,9.99999e-01,7.21263e-01,9.99999e-01
7.726452574e-01,7.25933e-01,9.99999e-01,7.25933e-01,9.99999e-01
7.765084837e-01,7.30540e-01,9.99999e-01,7.30540e-01,9.99999e-01
7.803910261e-01,7.24039e-01,9.84972e-01,7.35085e-01,9.99999e-01
7.842929812e-01,6.91988e-01,9.35665e-01,7.39567e-01,9.99999e-01
7.882144461e-01,6.92876e-01,9.31299e-01,7.43988e-01,9.99999e-01
7.921555184e-01,7.18449e-01,9.60048e-01,7.48346e-01,9.99999e-01
7.961162960e-01,7.32344e-01,9.73028e-01,7.52644e-01,9.99999e-01
8.000968774e-01,7.45766e-01,9.85316e-01,7.56880e-01,9.99999e-01
8.040973618e-01,7.55235e-01,9.92351e-01,7.61056e-01,9.99999e-01
8.081178486e-01,7.62489e-01,9.96493e-01,7.65172e-01,9.99999e-01
8.121584379e-01,7.68389e-01,9.98909e-01,7.69228e-01,9.99999e-01
8.162192301e-01,7.73038e-01,9.99758e-01,7.73225e-01,9.99999e-01
8.203003262e-01,7.77160e-01,9.99995e-01,7.77163e-01,9.99999e-01
8.244018279e-01,7.81042e-01,9.99999e-01,7.81042e-01,9.99999e-01
8.285238370e-01,7.84864e-01,9.99999e-01,7.84864e-01,9.99999e-01
8.326664562e-01,7.88629e-01,9.99999e-01,7.88629e-01,9.99999e-01
8.368297885e-01,7.92336e-01,9.99999e-01,7.92336e-01,9.99999e-01
8.410139374e-01,7.95988e-01,9.99999e-01,7.95988e-01,9.99999e-01
8.452190071e-01,7.99583e-01,9.99999e-01,7.99583e-01,9.99999e-01
8.494451021e-01,8.03124e-01,9.99999e-01,8.03124e-01,9.99999e-01
8.536923276e-01,8.06609e-01,9.99999e-01,8.06609e-01,9.99999e-01
8.579607893e-01,8.10041e-01,9.99999e-01,8.10041e-01,9.99999e-01
8.622505932e-01,8.13418e-01,9.99999e-01,8.13418e-01,9.99999e-01
8.665618462e-01,7.83334e-01,9.59094e-01,8.16743e-01,9.99999e-01
8.708946554e-01,6.90895e-01,8.42538e-01,8.20015e-01,9.99999e-01
8.752491287e-01,7.18318e-01,8.72554e-01,8.23236e-01,9.99999e-01
8.796253743e-01,7.67428e-01,9.28634e-01,8.26405e-01,9.99999e-01
8.840235012e-01,7.98467e-01,9.62560e-01,8.29523e-01,9.99999e-01
8.884436187e-01,8.20158e-01,9.85066e-01,8.32591e-01,9.99999e-01
8.928858368e-01,8.30547e-01,9.93940e-01,8.35610e-01,9.99999e-01
8.973502660e-01,8.37338e-01,9.98519e-01,8.38579e-01,9.99999e-01
9.018370173e-01,8.41363e-01,9.99836e-01,8.41500e-01,9.99999e-01
9.063462024e-01,8.40895e-01,9.95880e-01,8.44374e-01,9.99999e-01
9.108779334e-01,8.39119e-01,9.90461e-01,8.47200e-01,9.99999e-01
9.154323231e-01,8.48059e-01,9.97740e-01,8.49979e-01,9.99999e-01
9.200094847e-01,8.24511e-01,9.66927e-01,8.52712e-01,9.99999e-01
9.246095321e-01,8.16150e-01,9.54114e-01,8.55400e-01,9.99999e-01
9.292325798e-01,8.27077e-01,9.63910e-01,8.58043e-01,9.99999e-01
9.338787427e-01,8.30507e-01,9.64985e-01,8.60642e-01,9.99999e-01
9.385481364e-01,8.40948e-01,9.74224e-01,8.63197e-01,9.99999e-01
9.432408771e-01,8.51974e-01,9.84134e-01,8.65709e-01,9.99999e-01
9.479570815e-01,8.61100e-01,9.91846e-01,8.68178e-01,9.99999e-01
9.526968669e-01,8.67172e-01,9.96055e-01,8.70606e-01,9.99999e-01
9.574603512e-01,8.71518e-01,9.98311e-01,8.72992e-01,9.99999e-01
9.622476530e-01,8.74876e-01,9.99472e-01,8.75337e-01,9.99999e-01
9.670588912e-01,8.77504e-01,9.99841e-01,8.77642e-01,9.99999e-01
9.718941857e-01,8.79898e-01,9.99988e-01,8.79908e-01,9.99999e-01
9.767536566e-01,8.82134e-01,9.99999e-01,8.82134e-01,9.99999e-01
9.816374249e-01,8.84322e-01,9.99999e-01,8.84322e-01,9.99999e-01
9.865456120e-01,8.86472e-01,9.99999e-01,8.86472e-01,9.99999e-01
9.914783401e-01,8.88585e-01,9.99999e-01,8.88585e-01,9.99999e-01
9.964357318e-01,8.90660e-01,9.99999e-01,8.90660e-01,9.99999e-01
1.001417910e+00,8.92700e-01,9.99999e-01,8.92700e-01,9.99999e-01
1.006425000e+00,8.94703e-01,9.99999e-01,8.94703e-01,9.99999e-01
1.011457125e+00,8.96672e-01,9.99999e-01,8.96672e-01,9.99999e-01
1.016514411e+00,8.98606e-01,9.99999e-01,8.98606e-01,9.99999e-01
1.021596983e+00,9.00487e-01,9.99979e-01,9.00505e-01,9.99999e-01
1.026704968e+00,9.00930e-01,9.98402e-01,9.02371e-01,9.99999e-01
1.031838492e+00,8.83264e-01,9.76841e-01,9.04204e-01,9.99999e-01
1.036997685e+00,2.85779e-01,3.15428e-01,9.06004e-01,9.99999e-01
1.042182673e+00,3.46262e-01,3.81441e-01,9.07773e-01,9.99999e-01
1.047393587e+00,3.17904e-01,3.49533e-01,9.09509e-01,9.99999e-01
1.052630555e+00,5.74250e-02,6.30201e-02,9.11215e-01,9.99999e-01
1.057893707e+00,1.03493e-01,1.13368e-01,9.12890e-01,9.99999e-01
1.063183176e+00,1.89856e-01,2.07599e-01,9.14535e-01,9.99999e-01
1.068499092e+00,3.23159e-01,3.52735e-01,9.16150e-01,9.99999e-01
1.073841587e+00,4.75058e-01,5.17640e-01,9.17736e-01,9.99999e-01
1.079210795e+00,6.07226e-01,6.60535e-01,9.19294e-01,9.99999e-01
1.084606849e+00,7.34303e-01,7.97441e-01,9.20823e-01,9.99999e-01
1.090029883e+00,8.20458e-01,8.89554e-01,9.22324e-01,9.99999e-01
1.095480033e+00,8.72043e-01,9.43974e-01,9.23799e-01,9.99999e-01
1.100957433e+00,8.99946e-01,9.72655e-01,9.25246e-01,9.99999e-01
1.106462220e+00,9.16101e-01,9.88597e-01,9.26667e-01,9.99999e-01
1.111994531e+00,9.24128e-01,9.95760e-01,9.28062e-01,9.99999e-01
1.117554504e+00,9.28466e-01,9.98960e-01,9.29432e-01,9.99999e-01
1.123142276e+00,9.30713e-01,9.99931e-01,9.30776e-01,9.99999e-01
1.128757988e+00,9.32096e-01,9.99999e-01,9.32096e-01,9.99999e-01
1.134401778e+00,9.33392e-01,9.99999e-01,9.33392e-01,9.99999e-01
1.140073787e+00,9.34663e-01,9.99999e-01,9.34663e-01,9.99999e-01
1.145774156e+00,9.35912e-01,9.99999e-01,9.35912e-01,9.99999e-01
1.151503026e+00,9.37137e-01,9.99999e-01,9.37137e-01,9.99999e-01
1.157260541e+00,9.38339e-01,9.99999e-01,9.38339e-01,9.99999e-01
1.163046844e+00,9.39520e-01,9.99999e-01,9.39520e-01,9.99999e-01
1.168862078e+00,9.40678e-01,9.99999e-01,9.40678e-01,9.99999e-01
1.174706389e+00,9.41815e-01,9.99999e-01,9.41815e-01,9.99999e-01
1.180579921e+00,9.42931e-01,9.99999e-01,9.42931e-01,9.99999e-01
1.186482820e+00,9.44024e-01,9.99997e-01,9.44026e-01,9.99999e-01
1.192415234e+00,9.39690e-01,9.94274e-01,9.45101e-01,9.99999e-01
1.198377311e+00,5.60978e-01,5.92902e-01,9.46155e-01,9.99999e-01
1.204369197e+00,4.11585e-06,4.34532e-06,9.47190e-01,9.99999e-01
1.210391043e+00,7.35960e-19,7.76160e-19,9.48206e-01,9.99999e-01
1.216442998e+00,1.42926e-16,1.50575e-16,9.49202e-01,9.99999e-01
1.222525213e+00,2.53193e-16,2.66468e-16,9.50180e-01,9.99999e-01
1.228637839e+00,1.57111e-12,1.65182e-12,9.51140e-01,9.99999e-01
1.234781029e+00,8.03022e-09,8.43437e-09,9.52082e-01,9.99999e-01
1.240954934e+00,5.17915e-06,5.43454e-06,9.53005e-01,9.99999e-01
1.247159708e+00,1.08299e-03,1.13532e-03,9.53912e-01,9.99999e-01
1.253395507e+00,2.32872e-02,2.43896e-02,9.54801e-01,9.99999e-01
1.259662485e+00,1.16685e-01,1.22097e-01,9.55674e-01,9.99999e-01
1.265960797e+00,2.82296e-01,2.95124e-01,9.56530e-01,9.99999e-01
1.272290601e+00,5.58752e-01,5.83631e-01,9.57370e-01,9.99999e-01
1.278652054e+00,5.21964e-01,5.44736e-01,9.58195e-01,9.99999e-01
1.285045314e+00,5.17791e-02,5.39926e-02,9.59003e-01,9.99999e-01
1.291470541e+00,6.83125e-03,7.11738e-03,9.59796e-01,9.99999e-01
1.297927893e+00,5.69933e-02,5.93324e-02,9.60575e-01,9.99999e-01
1.304417533e+00,3.89641e-01,4.05311e-01,9.61338e-01,9.99999e-01
1.310939621e+00,1.16496e-01,1.21087e-01,9.62087e-01,9.99999e-01
1.317494319e+00,6.69017e-07,6.94849e-07,9.62822e-01,9.99999e-01
1.324081790e+00,3.51238e-05,3.64527e-05,9.63543e-01,9.99999e-01
1.330702199e+00,4.56654e-03,4.73584e-03,9.64250e-01,9.99999e-01
1.337355710e+00,3.09899e-03,3.21158e-03,9.64943e-01,9.99999e-01
1.344042489e+00,1.17974e-03,1.22174e-03,9.65624e-01,9.99999e-01
1.350762701e+00,3.61067e-03,3.73662e-03,9.66291e-01,9.99999e-01
1.357516515e+00,2.39438e-02,2.47622e-02,9.66946e-01,9.99999e-01
1.364304097e+00,9.85223e-02,1.01822e-01,9.67588e-01,9.99999e-01
1.371125618e+00,2.87974e-01,2.97427e-01,9.68218e-01,9.99999e-01
1.377981246e+00,3.70205e-01,3.82112e-01,9.68836e-01,9.99999e-01
1.384871152e+00,5.53439e-01,5.70883e-01,9.69442e-01,9.99999e-01
1.391795508e+00,5.78138e-01,5.95995e-01,9.70036e-01,9.99999e-01
1.398754485e+00,7.06330e-01,7.27710e-01,9.70619e-01,9.99999e-01
1.405748258e+00,7.67876e-01,7.90653e-01,9.71191e-01,9.99999e-01
1.412776999e+00,8.38013e-01,8.62373e-01,9.71752e-01,9.99999e-01
1.419840884e+00,7.83619e-01,8.05941e-01,9.72302e-01,9.99999e-01
1.426940089e+00,1.10133e-01,1.13207e-01,9.72842e-01,9.99999e-01
1.434074789e+00,3.73934e-262,3.84164e-262,9.73371e-01,9.99999e-01
1.441245163e+00,0.00000e+00,0.00000e+00,9.73890e-01,9.99999e-01
1.448451389e+00,8.28597e-318,8.50366e-318,9.74399e-01,9.99999e-01
1.455693646e+00,1.98295e-142,2.03400e-142,9.74898e-01,9.99999e-01
1.462972114e+00,1.13630e-69,1.16497e-69,9.75388e-01,9.99999e-01
1.470286975e+00,5.45903e-30,5.59402e-30,9.75868e-01,9.99999e-01
1.477638409e+00,1.68532e-19,1.72616e-19,9.76339e-01,9.99999e-01
1.485026601e+00,1.67530e-11,1.71509e-11,9.76801e-01,9.99999e-01
1.492451734e+00,8.70260e-10,8.90515e-10,9.77254e-01,9.99999e-01
1.499913993e+00,3.31724e-05,3.39290e-05,9.77698e-01,9.99999e-01
1.507413563e+00,4.04994e-04,4.14047e-04,9.78134e-01,9.99999e-01
1.514950631e+00,1.83849e-05,1.87877e-05,9.78561e-01,9.99999e-01
1.522525384e+00,2.08483e-14,2.12959e-14,9.78980e-01,9.99999e-01
1.530138011e+00,1.00155e-31,1.02262e-31,9.79391e-01,9.99999e-01
1.537788701e+00,6.41039e-24,6.54259e-24,9.79794e-01,9.99999e-01
1.545477645e+00,1.60580e-06,1.63826e-06,9.80189e-01,9.99999e-01
1.553205033e+00,3.19809e-04,3.26144e-04,9.80577e-01,9.99999e-01
1.560971058e+00,8.47161e-05,8.63607e-05,9.80956e-01,9.99999e-01
1.568775913e+00,5.42420e-78,5.52739e-78,9.81329e-01,9.99999e-01
1.576619793e+00,6.39688e-181,6.51616e-181,9.81694e-01,9.99999e-01
1.584502892e+00,2.70317e-99,2.75256e-99,9.82053e-01,9.99999e-01
1.592425406e+00,1.64958e-69,1.67912e-69,9.82404e-01,9.99999e-01
1.600387533e+00,2.50643e-111,2.55043e-111,9.82749e-01,9.99999e-01
1.608389471e+00,3.77712e-186,3.84210e-186,9.83086e-01,9.99999e-01
1.616431418e+00,2.57837e-187,2.62184e-187,9.83418e-01,9.99999e-01
1.624513575e+00,4.32596e-88,4.39744e-88,9.83743e-01,9.99999e-01
1.632636143e+00,8.18332e-66,8.31586e-66,9.84061e-01,9.99999e-01
1.640799324e+00,6.39764e-28,6.49919e-28,9.84373e-01,9.99999e-01
1.649003321e+00,8.06388e-28,8.18934e-28,9.84680e-01,9.99999e-01
1.657248337e+00,8.18843e-22,8.31328e-22,9.84980e-01,9.99999e-01
1.665534579e+00,5.85353e-22,5.94101e-22,9.85275e-01,9.99999e-01
1.673862252e+00,1.51840e-14,1.54064e-14,9.85563e-01,9.99999e-01
1.682231563e+00,1.62139e-10,1.64466e-10,9.85846e-01,9.99999e-01
1.690642721e+00,1.46267e-06,1.48325e-06,9.86124e-01,9.99999e-01
1.699095934e+00,2.67788e-04,2.71481e-04,9.86396e-01,9.99999e-01
1.707591414e+00,1.21846e-02,1.23492e-02,9.86663e-01,9.99999e-01
1.716129371e+00,9.15821e-02,9.27953e-02,9.86925e-01,9.99999e-01
1.724710018e+00,2.79593e-01,2.83223e-01,9.87181e-01,9.99999e-01
1.733333568e+00,4.41345e-01,4.46962e-01,9.87433e-01,9.99999e-01
1.742000236e+00,5.96828e-01,6.04272e-01,9.87680e-01,9.99999e-01
1.750710237e+00,4.98385e-02,5.04478e-02,9.87921e-01,9.99999e-01
1.759463788e+00,8.33531e-14,8.43519e-14,9.88159e-01,9.99999e-01
1.768261107e+00,9.44397e-15,9.55488e-15,9.88391e-01,9.99999e-01
1.777102413e+00,1.13239e-13,1.14543e-13,9.88619e-01,9.99999e-01
1.785987925e+00,2.01593e-13,2.03867e-13,9.88843e-01,9.99999e-01
1.794917864e+00,1.64843e-12,1.66666e-12,9.89062e-01,9.99999e-01
1.803892454e+00,1.32918e-12,1.34359e-12,9.89277e-01,9.99999e-01
1.812911916e+00,7.39599e-12,7.47456e-12,9.89487e-01,9.99999e-01
1.821976476e+00,4.16441e-12,4.20777e-12,9.89694e-01,9.99999e-01
1.831086358e+00,5.18219e-10,5.23508e-10,9.89896e-01,9.99999e-01
1.840241790e+00,1.90162e-08,1.92064e-08,9.90095e-01,9.99999e-01
1.849442999e+00,5.18726e-06,5.23812e-06,9.90290e-01,9.99999e-01
1.858690214e+00,2.18597e-05,2.20698e-05,9.90480e-01,9.99999e-01
1.867983665e+00,3.73326e-06,3.76843e-06,9.90668e-01,9.99999e-01
1.877323583e+00,2.79073e-25,2.81650e-25,9.90851e-01,9.99999e-01
