#,Wave/freq,Total,CO2,Rayleigh,CIA
4.000000000e-01,7.77743e-09,9.99999e-01,7.77743e-09,9.99999e-01
4.020000000e-01,1.12507e-08,9.99999e-01,1.12507e-08,9.99999e-01
4.040100000e-01,1.61506e-08,9.99999e-01,1.61506e-08,9.99999e-01
4.060300500e-01,2.30195e-08,9.99999e-01,2.30195e-08,9.99999e-01
4.080602003e-01,3.25809e-08,9.99999e-01,3.25809e-08,9.99999e-01
4.101005013e-01,4.57984e-08,9.99999e-01,4.57984e-08,9.99999e-01
4.121510038e-01,6.39465e-08,9.99999e-01,6.39465e-08,9.99999e-01
4.142117588e-01,8.86993e-08,9.99999e-01,8.86993e-08,9.99999e-01
4.162828176e-01,1.22241e-07,9.99999e-01,1.22241e-07,9.99999e-01
4.183642317e-01,1.67402e-07,9.99999e-01,1.67402e-07,9.99999e-01
4.204560528e-01,2.27829e-07,9.99999e-01,2.27829e-07,9.99999e-01
4.225583331e-01,3.08185e-07,9.99999e-01,3.08185e-07,9.99999e-01
4.246711247e-01,4.14404e-07,9.99999e-01,4.14404e-07,9.99999e-01
4.267944804e-01,5.53982e-07,9.99999e-01,5.53982e-07,9.99999e-01
4.289284528e-01,7.36338e-07,9.99999e-01,7.36338e-07,9.99999e-01
4.310730950e-01,9.73235e-07,9.99999e-01,9.73235e-07,9.99999e-01
4.332284605e-01,1.27928e-06,9.99999e-01,1.27928e-06,9.99999e-01
4.353946028e-01,1.67250e-06,9.99999e-01,1.67250e-06,9.99999e-01
4.375715758e-01,2.17505e-06,9.99999e-01,2.17505e-06,9.99999e-01
4.397594337e-01,2.81397e-06,9.99999e-01,2.81397e-06,9.99999e-01
4.419582309e-01,3.62209e-06,9.99999e-01,3.62209e-06,9.99999e-01
4.441680220e-01,4.63909e-06,9.99999e-01,4.63909e-06,9.99999e-01
4.463888621e-01,5.91267e-06,9.99999e-01,5.91267e-06,9.99999e-01
4.486208064e-01,7.49988e-06,9.99999e-01,7.49988e-06,9.99999e-01
4.508639105e-01,9.46857e-06,9.99999e-01,9.46857e-06,9.99999e-01
4.531182300e-01,1.18991e-05,9.99999e-01,1.18991e-05,9.99999e-01
4.553838212e-01,1.48863e-05,9.99999e-01,1.48863e-05,9.99999e-01
4.576607403e-01,1.85411e-05,9.99999e-01,1.85411e-05,9.99999e-01
4.599490440e-01,2.29933e-05,9.99999e-01,2.29933e-05,9.99999e-01
4.622487892e-01,2.83937e-05,9.99999e-01,2.83937e-05,9.99999e-01
4.645600332e-01,3.49166e-05,9.99999e-01,3.49166e-05,9.99999e-01
4.668828333e-01,4.27630e-05,9.99999e-01,4.27630e-05,9.99999e-01
4.692172475e-01,5.21633e-05,9.99999e-01,5.21633e-05,9.99999e-01
4.715633337e-01,6.33808e-05,9.99999e-01,6.33808e-05,9.99999e-01
4.739211504e-01,7.67148e-05,9.99999e-01,7.67148e-05,9.99999e-01
4.762907561e-01,9.25046e-05,9.99999e-01,9.25046e-05,9.99999e-01
4.786722099e-01,1.11133e-04,9.99999e-01,1.11133e-04,9.99999e-01
4.810655710e-01,1.33029e-04,9.99999e-01,1.33029e-04,9.99999e-01
4.834708988e-01,1.58675e-04,9.99999e-01,1.58675e-04,9.99999e-01
4.858882533e-01,1.88607e-04,9.99999e-01,1.88607e-04,9.99999e-01
4.883176946e-01,2.23421e-04,9.99999e-01,2.23421e-04,9.99999e-01
4.907592831e-01,2.63777e-04,9.99999e-01,2.63777e-04,9.99999e-01
4.932130795e-01,3.10404e-04,9.99999e-01,3.10404e-04,9.99999e-01
4.956791449e-01,3.64100e-04,9.99999e-01,3.64100e-04,9.99999e-01
4.981575406e-01,4.25740e-04,9.99999e-01,4.25740e-04,9.99999e-01
5.006483283e-01,4.96281e-04,9.99999e-01,4.96281e-04,9.99999e-01
5.031515699e-01,5.76760e-04,9.99999e-01,5.76760e-04,9.99999e-01
5.056673278e-01,6.68303e-04,9.99999e-01,6.68303e-04,9.99999e-01
5.081956644e-01,7.72126e-04,9.99999e-01,7.72126e-04,9.99999e-01
5.107366428e-01,8.89537e-04,9.99999e-01,8.89537e-04,9.99999e-01
5.132903260e-01,1.02194e-03,9.99999e-01,1.02194e-03,9.99999e-01
5.158567776e-01,1.17084e-03,9.99999e-01,1.17084e-03,9.99999e-01
5.184360615e-01,1.33783e-03,9.99999e-01,1.33783e-03,9.99999e-01
5.210282418e-01,1.52462e-03,9.99999e-01,1.52462e-03,9.99999e-01
5.236333830e-01,1.73301e-03,9.99999e-01,1.73301e-03,9.99999e-01
5.262515499e-01,1.96491e-03,9.99999e-01,1.96491e-03,9.99999e-01
5.288828077e-01,2.22231e-03,9.99999e-01,2.22231e-03,9.99999e-01
5.315272217e-01,2.50733e-03,9.99999e-01,2.50733e-03,9.99999e-01
5.341848578e-01,2.82218e-03,9.99999e-01,2.82218e-03,9.99999e-01
5.368557821e-01,3.16914e-03,9.99999e-01,3.16914e-03,9.99999e-01
5.395400610e-01,3.55062e-03,9.99999e-01,3.55062e-03,9.99999e-01
5.422377613e-01,3.96910e-03,9.99999e-01,3.96910e-03,9.99999e-01
5.449489501e-01,4.42714e-03,9.99999e-01,4.42714e-03,9.99999e-01
5.476736949e-01,4.92741e-03,9.99999e-01,4.92741e-03,9.99999e-01
5.504120634e-01,5.47261e-03,9.99999e-01,5.47261e-03,9.99999e-01
5.531641237e-01,6.06556e-03,9.99999e-01,6.06556e-03,9.99999e-01
5.559299443e-01,6.70911e-03,9.99999e-01,6.70911e-03,9.99999e-01
5.587095940e-01,7.40617e-03,9.99999e-01,7.40617e-03,9.99999e-01
5.615031420e-01,8.15970e-03,9.99999e-01,8.15970e-03,9.99999e-01
5.643106577e-01,8.97272e-03,9.99999e-01,8.97272e-03,9.99999e-01
5.671322110e-01,9.84824e-03,9.99999e-01,9.84824e-03,9.99999e-01
5.699678720e-01,1.07893e-02,9.99999e-01,1.07893e-02,9.99999e-01
5.728177114e-01,1.17991e-02,9.99999e-01,1.17991e-02,9.99999e-01
5.756818000e-01,1.28805e-02,9.99999e-01,1.28805e-02,9.99999e-01
5.785602090e-01,1.40368e-02,9.99999e-01,1.40368e-02,9.99999e-01
5.814530100e-01,1.52709e-02,9.99999e-01,1.52709e-02,9.99999e-01
5.843602750e-01,1.65858e-02,9.99999e-01,1.65858e-02,9.99999e-01
5.872820764e-01,1.79846e-02,9.99999e-01,1.79846e-02,9.99999e-01
5.902184868e-01,1.94702e-02,9.99999e-01,1.94702e-02,9.99999e-01
5.931695792e-01,2.10456e-02,9.99999e-01,2.10456e-02,9.99999e-01
5.961354271e-01,2.27134e-02,9.99999e-01,2.27134e-02,9.99999e-01
5.991161043e-01,2.44765e-02,9.99999e-01,2.44765e-02,9.99999e-01
6.021116848e-01,2.63376e-02,9.99999e-01,2.63376e-02,9.99999e-01
6.051222432e-01,2.82991e-02,9.99999e-01,2.82991e-02,9.99999e-01
6.081478544e-01,3.03637e-02,9.99999e-01,3.03637e-02,9.99999e-01
6.111885937e-01,3.25336e-02,9.99999e-01,3.25336e-02,9.99999e-01
6.142445367e-01,3.48110e-02,9.99999e-01,3.48110e-02,9.99999e-01
6.173157594e-01,3.71982e-02,9.99999e-01,3.71982e-02,9.99999e-01
6.204023382e-01,3.96970e-02,9.99999e-01,3.96970e-02,9.99999e-01
6.235043498e-01,4.23093e-02,9.99999e-01,4.23093e-02,9.99999e-01
6.266218716e-01,4.50367e-02,9.99999e-01,4.50367e-02,9.99999e-01
6.297549810e-01,4.78809e-02,9.99999e-01,4.78809e-02,9.99999e-01
6.329037559e-01,5.08431e-02,9.99999e-01,5.08431e-02,9.99999e-01
6.360682746e-01,5.39246e-02,9.99999e-01,5.39246e-02,9.99999e-01
6.392486160e-01,5.71265e-02,9.99999e-01,5.71265e-02,9.99999e-01
6.424448591e-01,6.04496e-02,9.99999e-01,6.04496e-02,9.99999e-01
6.456570834e-01,6.38945e-02,9.99999e-01,6.38945e-02,9.99999e-01
6.488853688e-01,6.74619e-02,9.99999e-01,6.74619e-02,9.99999e-01
6.521297956e-01,7.11521e-02,9.99999e-01,7.11521e-02,9.99999e-01
6.553904446e-01,7.49652e-02,9.99999e-01,7.49652e-02,9.99999e-01
6.586673968e-01,7.89013e-02,9.99999e-01,7.89013e-02,9.99999e-01
6.619607338e-01,8.29601e-02,9.99999e-01,8.29601e-02,9.99999e-01
6.652705375e-01,8.71414e-02,9.99999e-01,8.71414e-02,9.99999e-01
6.685968902e-01,9.14445e-02,9.99999e-01,9.14445e-02,9.99999e-01
6.719398746e-01,9.58688e-02,9.99999e-01,9.58688e-02,9.99999e-01
6.752995740e-01,1.00413e-01,9.99999e-01,1.00413e-01,9.99999e-01
6.786760719e-01,1.05077e-01,9.99999e-01,1.05077e-01,9.99999e-01
6.820694522e-01,1.09859e-01,9.99999e-01,1.09859e-01,9.99999e-01
6.854797995e-01,1.14758e-01,9.99999e-01,1.14758e-01,9.99999e-01
6.889071985e-01,1.19772e-01,9.99999e-01,1.19772e-01,9.99999e-01
6.923517345e-01,1.24899e-01,9.99999e-01,1.24899e-01,9.99999e-01
6.958134932e-01,1.30138e-01,9.99999e-01,1.30138e-01,9.99999e-01
6.992925606e-01,1.35487e-01,9.99999e-01,1.35487e-01,9.99999e-01
7.027890234e-01,1.40943e-01,9.99999e-01,1.40943e-01,9.99999e-01
7.063029686e-01,1.46505e-01,9.99999e-01,1.46505e-01,9.99999e-01
7.098344834e-01,1.52170e-01,9.99999e-01,1.52170e-01,9.99999e-01
7.133836558e-01,1.57935e-01,9.99999e-01,1.57935e-01,9.99999e-01
7.169505741e-01,1.63799e-01,9.99999e-01,1.63799e-01,9.99999e-01
7.205353270e-01,1.69758e-01,9.99999e-01,1.69758e-01,9.99999e-01
7.241380036e-01,1.75810e-01,9.99999e-01,1.75810e-01,9.99999e-01
7.277586936e-01,1.81952e-01,9.99999e-01,1.81952e-01,9.99999e-01
7.313974871e-01,1.88180e-01,9.99999e-01,1.88180e-01,9.99999e-01
7.350544745e-01,1.94492e-01,9.99999e-01,1.94492e-01,9.99999e-01
7.387297469e-01,2.00885e-01,9.99999e-01,2.00885e-01,9.99999e-01
7.424233956e-01,2.07356e-01,9.99999e-01,2.07356e-01,9.99999e-01
7.461355126e-01,2.13901e-01,9.99999e-01,2.13901e-01,9.99999e-01
7.498661902e-01,2.20518e-01,9.99999e-01,2.20518e-01,9.99999e-01
7.536155211e-01,2.27202e-01,9.99999e-01,2.27202e-01,9.99999e-01
7.573835987e-01,2.33951e-01,9.99999e-01,2.33951e-01,9.99999e-01
7.611705167e-01,2.40761e-01,9.99999e-01,2.40761e-01,9.99999e-01
7.649763693e-01,2.47629e-01,9.99999e-01,2.47629e-01,9.99999e-01
7.688012511e-01,2.54551e-01,9.99999e-01,2.54551e-01,9.99999e-01
7.726452574e-01,2.61525e-01,9.99999e-01,2.61525e-01,9.99999e-01
7.765084837e-01,2.68546e-01,9.99999e-01,2.68546e-01,9.99999e-01
7.803910261e-01,2.60528e-01,9.45273e-01,2.75611e-01,9.99999e-01
7.842929812e-01,2.16499e-01,7.65779e-01,2.82717e-01,9.99999e-01
7.882144461e-01,2.18390e-01,7.53432e-01,2.89860e-01,9.99999e-01
7.921555184e-01,2.50918e-01,8.44733e-01,2.97038e-01,9.99999e-01
7.961162960e-01,2.71477e-01,8.92293e-01,3.04246e-01,9.99999e-01
8.000968774e-01,2.92830e-01,9.40117e-01,3.11482e-01,9.99999e-01
8.040973618e-01,3.08677e-01,9.68422e-01,3.18742e-01,9.99999e-01
8.081178486e-01,3.21266e-01,9.85412e-01,3.26022e-01,9.99999e-01
8.121584379e-01,3.31804e-01,9.95449e-01,3.33320e-01,9.99999e-01
8.162192301e-01,3.40290e-01,9.98993e-01,3.40633e-01,9.99999e-01
8.203003262e-01,3.47951e-01,9.99983e-01,3.47956e-01,9.99999e-01
8.244018279e-01,3.55288e-01,9.99999e-01,3.55288e-01,9.99999e-01
8.285238370e-01,3.62625e-01,9.99999e-01,3.62625e-01,9.99999e-01
8.326664562e-01,3.69964e-01,9.99999e-01,3.69964e-01,9.99999e-01
8.368297885e-01,3.77303e-01,9.99999e-01,3.77303e-01,9.99999e-01
8.410139374e-01,3.84637e-01,9.99999e-01,3.84637e-01,9.99999e-01
8.452190071e-01,3.91965e-01,9.99999e-01,3.91965e-01,9.99999e-01
8.494451021e-01,3.99284e-01,9.99999e-01,3.99284e-01,9.99999e-01
8.536923276e-01,4.06591e-01,9.99999e-01,4.06591e-01,9.99999e-01
8.579607893e-01,4.13883e-01,9.99999e-01,4.13883e-01,9.99999e-01
8.622505932e-01,4.21158e-01,9.99999e-01,4.21158e-01,9.99999e-01
8.665618462e-01,3.85387e-01,8.99567e-01,4.28414e-01,9.99999e-01
8.708946554e-01,2.24030e-01,5.14246e-01,4.35647e-01,9.99999e-01
8.752491287e-01,2.56745e-01,5.79747e-01,4.42856e-01,9.99999e-01
8.796253743e-01,3.32243e-01,7.38253e-01,4.50039e-01,9.99999e-01
8.840235012e-01,3.90180e-01,8.53426e-01,4.57193e-01,9.99999e-01
8.884436187e-01,4.36068e-01,9.39161e-01,4.64315e-01,9.99999e-01
8.928858368e-01,4.59579e-01,9.74913e-01,4.71405e-01,9.99999e-01
8.973502660e-01,4.75506e-01,9.93825e-01,4.78460e-01,9.99999e-01
9.018370173e-01,4.85146e-01,9.99316e-01,4.85478e-01,9.99999e-01
9.063462024e-01,4.84117e-01,9.83064e-01,4.92457e-01,9.99999e-01
9.108779334e-01,4.79808e-01,9.60776e-01,4.99396e-01,9.99999e-01
9.154323231e-01,5.01533e-01,9.90599e-01,5.06292e-01,9.99999e-01
9.200094847e-01,4.51374e-01,8.79622e-01,5.13145e-01,9.99999e-01
9.246095321e-01,4.27728e-01,8.22628e-01,5.19952e-01,9.99999e-01
9.292325798e-01,4.52891e-01,8.59844e-01,5.26713e-01,9.99999e-01
9.338787427e-01,4.60271e-01,8.62858e-01,5.33425e-01,9.99999e-01
9.385481364e-01,4.84440e-01,8.96964e-01,5.40088e-01,9.99999e-01
9.432408771e-01,5.11355e-01,9.35348e-01,5.46700e-01,9.99999e-01
9.479570815e-01,5.34635e-01,9.66336e-01,5.53260e-01,9.99999e-01
9.526968669e-01,5.50595e-01,9.83614e-01,5.59766e-01,9.99999e-01
9.574603512e-01,5.62231e-01,9.92955e-01,5.66219e-01,9.99999e-01
9.622476530e-01,5.71354e-01,9.97796e-01,5.72616e-01,9.99999e-01
9.670588912e-01,5.78574e-01,9.99338e-01,5.78957e-01,9.99999e-01
9.718941857e-01,5.85213e-01,9.99952e-01,5.85241e-01,9.99999e-01
9.767536566e-01,5.91467e-01,9.99999e-01,5.91467e-01,9.99999e-01
9.816374249e-01,5.97634e-01,9.99999e-01,5.97634e-01,9.99999e-01
9.865456120e-01,6.03742e-01,9.99999e-01,6.03742e-01,9.99999e-01
9.914783401e-01,6.09789e-01,9.99999e-01,6.09789e-01,9.99999e-01
9.964357318e-01,6.15777e-01,9.99999e-01,6.15777e-01,9.99999e-01
1.001417910e+00,6.21702e-01,9.99999e-01,6.21702e-01,9.99999e-01
1.006425000e+00,6.27567e-01,9.99999e-01,6.27567e-01,9.99999e-01
1.011457125e+00,6.33369e-01,9.99999e-01,6.33369e-01,9.99999e-01
1.016514411e+00,6.39108e-01,9.99999e-01,6.39108e-01,9.99999e-01
1.021596983e+00,6.44729e-01,9.99914e-01,6.44785e-01,9.99999e-01
1.026704968e+00,6.46071e-01,9.93347e-01,6.50398e-01,9.99999e-01
1.031838492e+00,6.14346e-01,9.36577e-01,6.55948e-01,9.99999e-01
1.036997685e+00,5.94048e-02,8.98120e-02,6.61434e-01,9.99999e-01
1.042182673e+00,1.83159e-02,2.74660e-02,6.66857e-01,9.99999e-01
1.047393587e+00,3.18904e-02,4.74407e-02,6.72215e-01,9.99999e-01
1.052630555e+00,9.37916e-05,1.38436e-04,6.77509e-01,9.99999e-01
1.057893707e+00,3.10072e-04,4.54157e-04,6.82740e-01,9.99999e-01
1.063183176e+00,2.22799e-03,3.23880e-03,6.87906e-01,9.99999e-01
1.068499092e+00,1.10239e-02,1.59073e-02,6.93008e-01,9.99999e-01
1.073841587e+00,4.98879e-02,7.14679e-02,6.98046e-01,9.99999e-01
1.079210795e+00,1.32470e-01,1.88430e-01,7.03020e-01,9.99999e-01
1.084606849e+00,2.78863e-01,3.93912e-01,7.07930e-01,9.99999e-01
1.090029883e+00,4.38700e-01,6.15480e-01,7.12777e-01,9.99999e-01
1.095480033e+00,5.64608e-01,7.86844e-01,7.17560e-01,9.99999e-01
1.100957433e+00,6.43351e-01,8.90722e-01,7.22279e-01,9.99999e-01
1.106462220e+00,6.92924e-01,9.53211e-01,7.26936e-01,9.99999e-01
1.111994531e+00,7.18647e-01,9.82388e-01,7.31530e-01,9.99999e-01
1.117554504e+00,7.32867e-01,9.95660e-01,7.36061e-01,9.99999e-01
1.123142276e+00,7.40318e-01,9.99713e-01,7.40530e-01,9.99999e-01
1.128757988e+00,7.44936e-01,9.99999e-01,7.44937e-01,9.99999e-01
1.134401778e+00,7.49282e-01,9.99999e-01,7.49282e-01,9.99999e-01
1.140073787e+00,7.53566e-01,9.99999e-01,7.53566e-01,9.99999e-01
1.145774156e+00,7.57789e-01,9.99999e-01,7.57789e-01,9.99999e-01
1.151503026e+00,7.61952e-01,9.99999e-01,7.61952e-01,9.99999e-01
1.157260541e+00,7.66055e-01,9.99999e-01,7.66055e-01,9.99999e-01
1.163046844e+00,7.70098e-01,9.99999e-01,7.70098e-01,9.99999e-01
1.168862078e+00,7.74082e-01,9.99999e-01,7.74082e-01,9.99999e-01
1.174706389e+00,7.78007e-01,9.99999e-01,7.78007e-01,9.99999e-01
1.180579921e+00,7.81875e-01,9.99999e-01,7.81875e-01,9.99999e-01
1.186482820e+00,7.85676e-01,9.99989e-01,7.85684e-01,9.99999e-01
1.192415234e+00,7.71134e-01,9.76816e-01,7.89436e-01,9.99999e-01
1.198377311e+00,4.31667e-01,5.44256e-01,7.93132e-01,9.99999e-01
1.204369197e+00,1.94208e-18,2.43743e-18,7.96771e-01,9.99999e-01
1.210391043e+00,8.44755e-72,1.05548e-71,8.00354e-01,9.99999e-01
1.216442998e+00,2.93979e-62,3.65698e-62,8.03883e-01,9.99999e-01
1.222525213e+00,2.44943e-61,3.03389e-61,8.07357e-01,9.99999e-01
1.228637839e+00,1.88021e-47,2.31903e-47,8.10776e-01,9.99999e-01
1.234781029e+00,6.34823e-30,7.79743e-30,8.14143e-01,9.99999e-01
1.240954934e+00,4.93106e-20,6.03220e-20,8.17456e-01,9.99999e-01
1.247159708e+00,3.35845e-10,4.09209e-10,8.20717e-01,9.99999e-01
1.253395507e+00,7.81981e-07,9.49091e-07,8.23926e-01,9.99999e-01
1.259662485e+00,2.93531e-04,3.54899e-04,8.27084e-01,9.99999e-01
1.265960797e+00,9.00927e-03,1.08520e-02,8.30191e-01,9.99999e-01
1.272290601e+00,9.69003e-02,1.16292e-01,8.33249e-01,9.99999e-01
1.278652054e+00,9.78304e-02,1.16986e-01,8.36257e-01,9.99999e-01
1.285045314e+00,7.61118e-04,9.06938e-04,8.39216e-01,9.99999e-01
1.291470541e+00,6.01571e-09,7.14348e-09,8.42126e-01,9.99999e-01
1.297927893e+00,2.24537e-04,2.65727e-04,8.44989e-01,9.99999e-01
1.304417533e+00,2.17275e-02,2.56279e-02,8.47805e-01,9.99999e-01
1.310939621e+00,5.25931e-03,6.18324e-03,8.50575e-01,9.99999e-01
1.317494319e+00,6.56408e-25,7.69259e-25,8.53298e-01,9.99999e-01
1.324081790e+00,1.13126e-16,1.32160e-16,8.55976e-01,9.99999e-01
1.330702199e+00,6.80065e-10,7.92054e-10,8.58610e-01,9.99999e-01
1.337355710e+00,2.60110e-09,3.02032e-09,8.61199e-01,9.99999e-01
1.344042489e+00,1.03801e-09,1.20175e-09,8.63744e-01,9.99999e-01
1.350762701e+00,3.67702e-10,4.24477e-10,8.66247e-01,9.99999e-01
1.357516515e+00,1.44057e-06,1.65829e-06,8.68707e-01,9.99999e-01
1.364304097e+00,9.54642e-05,1.09587e-04,8.71126e-01,9.99999e-01
1.371125618e+00,8.02941e-03,9.19219e-03,8.73503e-01,9.99999e-01
1.377981246e+00,1.66843e-02,1.90495e-02,8.75840e-01,9.99999e-01
1.384871152e+00,8.75655e-02,9.97173e-02,8.78136e-01,9.99999e-01
1.391795508e+00,1.04433e-01,1.18620e-01,8.80393e-01,9.99999e-01
1.398754485e+00,2.34348e-01,2.65516e-01,8.82611e-01,9.99999e-01
1.405748258e+00,3.34597e-01,3.78164e-01,8.84791e-01,9.99999e-01
1.412776999e+00,4.78676e-01,5.39697e-01,8.86933e-01,9.99999e-01
1.419840884e+00,4.34395e-01,4.88612e-01,8.89037e-01,9.99999e-01
1.426940089e+00,2.52503e-02,2.83359e-02,8.91105e-01,9.99999e-01
1.434074789e+00,0.00000e+00,0.00000e+00,8.93137e-01,9.99999e-01
1.441245163e+00,0.00000e+00,0.00000e+00,8.95133e-01,9.99999e-01
1.448451389e+00,0.00000e+00,0.00000e+00,8.97093e-01,9.99999e-01
1.455693646e+00,0.00000e+00,0.00000e+00,8.99020e-01,9.99999e-01
1.462972114e+00,1.51154e-284,1.67779e-284,9.00912e-01,9.99999e-01
1.470286975e+00,2.07967e-118,2.30365e-118,9.02771e-01,9.99999e-01
1.477638409e+00,1.28771e-74,1.42351e-74,9.04597e-01,9.99999e-01
1.485026601e+00,8.66703e-42,9.56214e-42,9.06390e-01,9.99999e-01
1.492451734e+00,1.28248e-35,1.41219e-35,9.08151e-01,9.99999e-01
1.499913993e+00,8.55794e-16,9.40554e-16,9.09881e-01,9.99999e-01
1.507413563e+00,1.49165e-14,1.63634e-14,9.11580e-01,9.99999e-01
1.514950631e+00,5.41270e-16,5.92686e-16,9.13249e-01,9.99999e-01
1.522525384e+00,3.40510e-53,3.72187e-53,9.14887e-01,9.99999e-01
1.530138011e+00,2.52425e-126,2.75424e-126,9.16496e-01,9.99999e-01
1.537788701e+00,1.40443e-93,1.52975e-93,9.18076e-01,9.99999e-01
1.545477645e+00,3.63410e-20,3.95171e-20,9.19627e-01,9.99999e-01
1.553205033e+00,1.35372e-14,1.46959e-14,9.21150e-01,9.99999e-01
1.560971058e+00,5.46492e-15,5.92309e-15,9.22646e-01,9.99999e-01
1.568775913e+00,2.15734e-319,2.33446e-319,9.24114e-01,9.99999e-01
1.576619793e+00,0.00000e+00,0.00000e+00,9.25556e-01,9.99999e-01
1.584502892e+00,0.00000e+00,0.00000e+00,9.26971e-01,9.99999e-01
1.592425406e+00,1.13986e-284,1.22782e-284,9.28361e-01,9.99999e-01
1.600387533e+00,0.00000e+00,0.00000e+00,9.29725e-01,9.99999e-01
1.608389471e+00,0.00000e+00,0.00000e+00,9.31064e-01,9.99999e-01
1.616431418e+00,0.00000e+00,0.00000e+00,9.32379e-01,9.99999e-01
1.624513575e+00,0.00000e+00,0.00000e+00,9.33669e-01,9.99999e-01
1.632636143e+00,1.50155e-268,1.60604e-268,9.34935e-01,9.99999e-01
1.640799324e+00,9.75546e-110,1.04205e-109,9.36179e-01,9.99999e-01
1.649003321e+00,9.76737e-110,1.04196e-109,9.37399e-01,9.99999e-01
1.657248337e+00,6.48110e-85,6.90509e-85,9.38597e-01,9.99999e-01
1.665534579e+00,1.76836e-85,1.88169e-85,9.39772e-01,9.99999e-01
1.673862252e+00,1.10583e-54,1.17526e-54,9.40926e-01,9.99999e-01
1.682231563e+00,5.13325e-38,5.44897e-38,9.42058e-01,9.99999e-01
1.690642721e+00,2.40327e-21,2.54808e-21,9.43170e-01,9.99999e-01
1.699095934e+00,9.82334e-14,1.04032e-13,9.44260e-01,9.99999e-01
1.707591414e+00,2.24122e-07,2.37083e-07,9.45331e-01,9.99999e-01
1.716129371e+00,1.43602e-04,1.51738e-04,9.46381e-01,9.99999e-01
1.724710018e+00,6.41766e-03,6.77388e-03,9.47412e-01,9.99999e-01
1.733333568e+00,3.54224e-02,3.73487e-02,9.48423e-01,9.99999e-01
1.742000236e+00,1.38353e-01,1.45724e-01,9.49416e-01,9.99999e-01
1.750710237e+00,1.24714e-03,1.31224e-03,9.50390e-01,9.99999e-01
1.759463788e+00,3.23712e-52,3.40267e-52,9.51345e-01,9.99999e-01
1.768261107e+00,1.19564e-54,1.25555e-54,9.52283e-01,9.99999e-01
1.777102413e+00,3.96415e-53,4.15876e-53,9.53203e-01,9.99999e-01
1.785987925e+00,6.66228e-50,6.98274e-50,9.54106e-01,9.99999e-01
1.794917864e+00,1.16171e-47,1.21646e-47,9.54992e-01,9.99999e-01
1.803892454e+00,7.63063e-46,7.98298e-46,9.55861e-01,9.99999e-01
1.812911916e+00,4.78269e-44,4.99908e-44,9.56714e-01,9.99999e-01
1.821976476e+00,4.06147e-44,4.24152e-44,9.57550e-01,9.99999e-01
1.831086358e+00,1.61071e-35,1.68068e-35,9.58371e-01,9.99999e-01
1.840241790e+00,2.79639e-30,2.91541e-30,9.59176e-01,9.99999e-01
1.849442999e+00,4.31313e-21,4.49300e-21,9.59966e-01,9.99999e-01
1.858690214e+00,8.74738e-20,9.10482e-20,9.60741e-01,9.99999e-01
1.867983665e+00,1.97373e-20,2.05275e-20,9.61501e-01,9.99999e-01
1.877323583e+00,2.06375e-99,2.14471e-99,9.62247e-01,9.99999e-01
