#,Wave/freq,Total,CO2,Rayleigh,CIA
4.000000000e-01,4.33249e-14,9.99999e-01,4.33249e-14,9.99999e-01
4.020000000e-01,7.96094e-14,9.99999e-01,7.96094e-14,9.99999e-01
4.040100000e-01,1.44445e-13,9.99999e-01,1.44445e-13,9.99999e-01
4.060300500e-01,2.59018e-13,9.99999e-01,2.59018e-13,9.99999e-01
4.080602003e-01,4.59143e-13,9.99999e-01,4.59143e-13,9.99999e-01
4.101005013e-01,8.04740e-13,9.99999e-01,8.04740e-13,9.99999e-01
4.121510038e-01,1.39492e-12,9.99999e-01,1.39492e-12,9.99999e-01
4.142117588e-01,2.39179e-12,9.99999e-01,2.39179e-12,9.99999e-01
4.162828176e-01,4.05763e-12,9.99999e-01,4.05763e-12,9.99999e-01
4.183642317e-01,6.81219e-12,9.99999e-01,6.81219e-12,9.99999e-01
4.204560528e-01,1.13203e-11,9.99999e-01,1.13203e-11,9.99999e-01
4.225583331e-01,1.86239e-11,9.99999e-01,1.86239e-11,9.99999e-01
4.246711247e-01,3.03398e-11,9.99999e-01,3.03398e-11,9.99999e-01
4.267944804e-01,4.89519e-11,9.99999e-01,4.89519e-11,9.99999e-01
4.289284528e-01,7.82388e-11,9.99999e-01,7.82388e-11,9.99999e-01
4.310730950e-01,1.23895e-10,9.99999e-01,1.23895e-10,9.99999e-01
4.332284605e-01,1.94419e-10,9.99999e-01,1.94419e-10,9.99999e-01
4.353946028e-01,3.02385e-10,9.99999e-01,3.02385e-10,9.99999e-01
4.375715758e-01,4.66222e-10,9.99999e-01,4.66222e-10,9.99999e-01
4.397594337e-01,7.12708e-10,9.99999e-01,7.12708e-10,9.99999e-01
4.419582309e-01,1.08041e-09,9.99999e-01,1.08041e-09,9.99999e-01
4.441680220e-01,1.62442e-09,9.99999e-01,1.62442e-09,9.99999e-01
4.463888621e-01,2.42275e-09,9.99999e-01,2.42275e-09,9.99999e-01
4.486208064e-01,3.58500e-09,9.99999e-01,3.58500e-09,9.99999e-01
4.508639105e-01,5.26392e-09,9.99999e-01,5.26392e-09,9.99999e-01
4.531182300e-01,7.67068e-09,9.99999e-01,7.67068e-09,9.99999e-01
4.553838212e-01,1.10950e-08,9.99999e-01,1.10950e-08,9.99999e-01
4.576607403e-01,1.59315e-08,9.99999e-01,1.59315e-08,9.99999e-01
4.599490440e-01,2.27134e-08,9.99999e-01,2.27134e-08,9.99999e-01
4.622487892e-01,3.21562e-08,9.99999e-01,3.21562e-08,9.99999e-01
4.645600332e-01,4.52131e-08,9.99999e-01,4.52131e-08,9.99999e-01
4.668828333e-01,6.31453e-08,9.99999e-01,6.31453e-08,9.99999e-01
4.692172475e-01,8.76097e-08,9.99999e-01,8.76097e-08,9.99999e-01
4.715633337e-01,1.20769e-07,9.99999e-01,1.20769e-07,9.99999e-01
4.739211504e-01,1.65426e-07,9.99999e-01,1.65426e-07,9.99999e-01
4.762907561e-01,2.25192e-07,9.99999e-01,2.25192e-07,9.99999e-01
4.786722099e-01,3.04688e-07,9.99999e-01,3.04688e-07,9.99999e-01
4.810655710e-01,4.09794e-07,9.99999e-01,4.09794e-07,9.99999e-01
4.834708988e-01,5.47940e-07,9.99999e-01,5.47940e-07,9.99999e-01
4.858882533e-01,7.28465e-07,9.99999e-01,7.28465e-07,9.99999e-01
4.883176946e-01,9.63034e-07,9.99999e-01,9.63034e-07,9.99999e-01
4.907592831e-01,1.26613e-06,9.99999e-01,1.26613e-06,9.99999e-01
4.932130795e-01,1.65566e-06,9.99999e-01,1.65566e-06,9.99999e-01
4.956791449e-01,2.15357e-06,9.99999e-01,2.15357e-06,9.99999e-01
4.981575406e-01,2.78672e-06,9.99999e-01,2.78672e-06,9.99999e-01
5.006483283e-01,3.58771e-06,9.99999e-01,3.58771e-06,9.99999e-01
5.031515699e-01,4.59592e-06,9.99999e-01,4.59592e-06,9.99999e-01
5.056673278e-01,5.85874e-06,9.99999e-01,5.85874e-06,9.99999e-01
5.081956644e-01,7.43281e-06,9.99999e-01,7.43281e-06,9.99999e-01
5.107366428e-01,9.38557e-06,9.99999e-01,9.38557e-06,9.99999e-01
5.132903260e-01,1.17969e-05,9.99999e-01,1.17969e-05,9.99999e-01
5.158567776e-01,1.47609e-05,9.99999e-01,1.47609e-05,9.99999e-01
5.184360615e-01,1.83880e-05,9.99999e-01,1.83880e-05,9.99999e-01
5.210282418e-01,2.28071e-05,9.99999e-01,2.28071e-05,9.99999e-01
5.236333830e-01,2.81683e-05,9.99999e-01,2.81683e-05,9.99999e-01
5.262515499e-01,3.46449e-05,9.99999e-01,3.46449e-05,9.99999e-01
5.288828077e-01,4.24367e-05,9.99999e-01,4.24367e-05,9.99999e-01
5.315272217e-01,5.17732e-05,9.99999e-01,5.17732e-05,9.99999e-01
5.341848578e-01,6.29161e-05,9.99999e-01,6.29161e-05,9.99999e-01
5.368557821e-01,7.61635e-05,9.99999e-01,7.61635e-05,9.99999e-01
5.395400610e-01,9.18528e-05,9.99999e-01,9.18528e-05,9.99999e-01
5.422377613e-01,1.10365e-04,9.99999e-01,1.10365e-04,9.99999e-01
5.449489501e-01,1.32128e-04,9.99999e-01,1.32128e-04,9.99999e-01
5.476736949e-01,1.57621e-04,9.99999e-01,1.57621e-04,9.99999e-01
5.504120634e-01,1.87379e-04,9.99999e-01,1.87379e-04,9.99999e-01
5.531641237e-01,2.21996e-04,9.99999e-01,2.21996e-04,9.99999e-01
5.559299443e-01,2.62128e-04,9.99999e-01,2.62128e-04,9.99999e-01
5.587095940e-01,3.08501e-04,9.99999e-01,3.08501e-04,9.99999e-01
5.615031420e-01,3.61912e-04,9.99999e-01,3.61912e-04,9.99999e-01
5.643106577e-01,4.23232e-04,9.99999e-01,4.23232e-04,9.99999e-01
5.671322110e-01,4.93415e-04,9.99999e-01,4.93415e-04,9.99999e-01
5.699678720e-01,5.73495e-04,9.99999e-01,5.73495e-04,9.99999e-01
5.728177114e-01,6.64594e-04,9.99999e-01,6.64594e-04,9.99999e-01
5.756818000e-01,7.67925e-04,9.99999e-01,7.67925e-04,9.99999e-01
5.785602090e-01,8.84793e-04,9.99999e-01,8.84793e-04,9.99999e-01
5.814530100e-01,1.01660e-03,9.99999e-01,1.01660e-03,9.99999e-01
5.843602750e-01,1.16484e-03,9.99999e-01,1.16484e-03,9.99999e-01
5.872820764e-01,1.33111e-03,9.99999e-01,1.33111e-03,9.99999e-01
5.902184868e-01,1.51711e-03,9.99999e-01,1.51711e-03,9.99999e-01
5.931695792e-01,1.72464e-03,9.99999e-01,1.72464e-03,9.99999e-01
5.961354271e-01,1.95561e-03,9.99999e-01,1.95561e-03,9.99999e-01
5.991161043e-01,2.21200e-03,9.99999e-01,2.21200e-03,9.99999e-01
6.021116848e-01,2.49593e-03,9.99999e-01,2.49593e-03,9.99999e-01
6.051222432e-01,2.80959e-03,9.99999e-01,2.80959e-03,9.99999e-01
6.081478544e-01,3.15529e-03,9.99999e-01,3.15529e-03,9.99999e-01
6.111885937e-01,3.53541e-03,9.99999e-01,3.53541e-03,9.99999e-01
6.142445367e-01,3.95243e-03,9.99999e-01,3.95243e-03,9.99999e-01
6.173157594e-01,4.40891e-03,9.99999e-01,4.40891e-03,9.99999e-01
6.204023382e-01,4.90752e-03,9.99999e-01,4.90752e-03,9.99999e-01
6.235043498e-01,5.45096e-03,9.99999e-01,5.45096e-03,9.99999e-01
6.266218716e-01,6.04204e-03,9.99999e-01,6.04204e-03,9.99999e-01
6.297549810e-01,6.68360e-03,9.99999e-01,6.68360e-03,9.99999e-01
6.329037559e-01,7.37857e-03,9.99999e-01,7.37857e-03,9.99999e-01
6.360682746e-01,8.12989e-03,9.99999e-01,8.12989e-03,9.99999e-01
6.392486160e-01,8.94058e-03,9.99999e-01,8.94058e-03,9.99999e-01
6.424448591e-01,9.81367e-03,9.99999e-01,9.81367e-03,9.99999e-01
6.456570834e-01,1.07522e-02,9.99999e-01,1.07522e-02,9.99999e-01
6.488853688e-01,1.17593e-02,9.99999e-01,1.17593e-02,9.99999e-01
6.521297956e-01,1.28379e-02,9.99999e-01,1.28379e-02,9.99999e-01
6.553904446e-01,1.39913e-02,9.99999e-01,1.39913e-02,9.99999e-01
6.586673968e-01,1.52223e-02,9.99999e-01,1.52223e-02,9.99999e-01
6.619607338e-01,1.65341e-02,9.99999e-01,1.65341e-02,9.99999e-01
6.652705375e-01,1.79297e-02,9.99999e-01,1.79297e-02,9.99999e-01
6.685968902e-01,1.94119e-02,9.99999e-01,1.94119e-02,9.99999e-01
6.719398746e-01,2.09838e-02,9.99999e-01,2.09838e-02,9.99999e-01
6.752995740e-01,2.26481e-02,9.99999e-01,2.26481e-02,9.99999e-01
6.786760719e-01,2.44075e-02,9.99999e-01,2.44075e-02,9.99999e-01
6.820694522e-01,2.62648e-02,9.99999e-01,2.62648e-02,9.99999e-01
6.854797995e-01,2.82225e-02,9.99999e-01,2.82225e-02,9.99999e-01
6.889071985e-01,3.02830e-02,9.99999e-01,3.02830e-02,9.99999e-01
6.923517345e-01,3.24489e-02,9.99999e-01,3.24489e-02,9.99999e-01
6.958134932e-01,3.47222e-02,9.99999e-01,3.47222e-02,9.99999e-01
6.992925606e-01,3.71051e-02,9.99999e-01,3.71051e-02,9.99999e-01
7.027890234e-01,3.95996e-02,9.99999e-01,3.95996e-02,9.99999e-01
7.063029686e-01,4.22075e-02,9.99999e-01,4.22075e-02,9.99999e-01
7.098344834e-01,4.49306e-02,9.99999e-01,4.49306e-02,9.99999e-01
7.133836558e-01,4.77702e-02,9.99999e-01,4.77702e-02,9.99999e-01
7.169505741e-01,5.07280e-02,9.99999e-01,5.07280e-02,9.99999e-01
7.205353270e-01,5.38049e-02,9.99999e-01,5.38049e-02,9.99999e-01
7.241380036e-01,5.70022e-02,9.99999e-01,5.70022e-02,9.99999e-01
7.277586936e-01,6.03206e-02,9.99999e-01,6.03206e-02,9.99999e-01
7.313974871e-01,6.37609e-02,9.99999e-01,6.37609e-02,9.99999e-01
7.350544745e-01,6.73236e-02,9.99999e-01,6.73236e-02,9.99999e-01
7.387297469e-01,7.10091e-02,9.99999e-01,7.10091e-02,9.99999e-01
7.424233956e-01,7.48175e-02,9.99999e-01,7.48175e-02,9.99999e-01
7.461355126e-01,7.87489e-02,9.99999e-01,7.87489e-02,9.99999e-01
7.498661902e-01,8.28031e-02,9.99999e-01,8.28031e-02,9.99999e-01
7.536155211e-01,8.69797e-02,9.99999e-01,8.69797e-02,9.99999e-01
7.573835987e-01,9.12782e-02,9.99999e-01,9.12782e-02,9.99999e-01
7.611705167e-01,9.56978e-02,9.99999e-01,9.56978e-02,9.99999e-01
7.649763693e-01,1.00238e-01,9.99999e-01,1.00238e-01,9.99999e-01
7.688012511e-01,1.04897e-01,9.99999e-01,1.04897e-01,9.99999e-01
7.726452574e-01,1.09675e-01,9.99999e-01,1.09675e-01,9.99999e-01
7.765084837e-01,1.14569e-01,9.99999e-01,1.14569e-01,9.99999e-01
7.803910261e-01,1.09473e-01,9.15493e-01,1.19578e-01,9.99999e-01
7.842929812e-01,8.15354e-02,6.53845e-01,1.24701e-01,9.99999e-01
7.882144461e-01,8.28493e-02,6.37615e-01,1.29936e-01,9.99999e-01
7.921555184e-01,1.02664e-01,7.58899e-01,1.35281e-01,9.99999e-01
7.961162960e-01,1.16827e-01,8.30128e-01,1.40733e-01,9.99999e-01
8.000968774e-01,1.32219e-01,9.03809e-01,1.46291e-01,9.99999e-01
8.040973618e-01,1.44195e-01,9.48952e-01,1.51952e-01,9.99999e-01
8.081178486e-01,1.53956e-01,9.76175e-01,1.57714e-01,9.99999e-01
8.121584379e-01,1.62365e-01,9.92608e-01,1.63574e-01,9.99999e-01
8.162192301e-01,1.69252e-01,9.98363e-01,1.69529e-01,9.99999e-01
8.203003262e-01,1.75573e-01,9.99976e-01,1.75578e-01,9.99999e-01
8.244018279e-01,1.81716e-01,9.99999e-01,1.81716e-01,9.99999e-01
8.285238370e-01,1.87941e-01,9.99999e-01,1.87941e-01,9.99999e-01
8.326664562e-01,1.94250e-01,9.99999e-01,1.94250e-01,9.99999e-01
8.368297885e-01,2.00640e-01,9.99999e-01,2.00640e-01,9.99999e-01
8.410139374e-01,2.07108e-01,9.99999e-01,2.07108e-01,9.99999e-01
8.452190071e-01,2.13650e-01,9.99999e-01,2.13650e-01,9.99999e-01
8.494451021e-01,2.20264e-01,9.99999e-01,2.20264e-01,9.99999e-01
8.536923276e-01,2.26946e-01,9.99999e-01,2.26946e-01,9.99999e-01
8.579607893e-01,2.33692e-01,9.99999e-01,2.33692e-01,9.99999e-01
8.622505932e-01,2.40500e-01,9.99999e-01,2.40500e-01,9.99999e-01
8.665618462e-01,2.15197e-01,8.69954e-01,2.47366e-01,9.99999e-01
8.708946554e-01,8.91527e-02,3.50600e-01,2.54286e-01,9.99999e-01
8.752491287e-01,1.09373e-01,4.18641e-01,2.61258e-01,9.99999e-01
8.796253743e-01,1.64443e-01,6.12960e-01,2.68277e-01,9.99999e-01
8.840235012e-01,2.12676e-01,7.72409e-01,2.75341e-01,9.99999e-01
8.884436187e-01,2.54983e-01,9.02768e-01,2.82445e-01,9.99999e-01
8.928858368e-01,2.77799e-01,9.59290e-01,2.89587e-01,9.99999e-01
8.973502660e-01,2.93790e-01,9.89977e-01,2.96764e-01,9.99999e-01
9.018370173e-01,3.03634e-01,9.98891e-01,3.03971e-01,9.99999e-01
9.063462024e-01,3.02507e-01,9.72048e-01,3.11206e-01,9.99999e-01
9.108779334e-01,2.98273e-01,9.36597e-01,3.18464e-01,9.99999e-01
9.154323231e-01,3.20790e-01,9.84790e-01,3.25744e-01,9.99999e-01
9.200094847e-01,2.73035e-01,8.19823e-01,3.33042e-01,9.99999e-01
9.246095321e-01,2.47416e-01,7.26937e-01,3.40354e-01,9.99999e-01
9.292325798e-01,2.71679e-01,7.81412e-01,3.47677e-01,9.99999e-01
9.338787427e-01,2.79183e-01,7.86413e-01,3.55009e-01,9.99999e-01
9.385481364e-01,3.03280e-01,8.36991e-01,3.62345e-01,9.99999e-01
9.432408771e-01,3.31380e-01,8.96386e-01,3.69684e-01,9.99999e-01
9.479570815e-01,3.56412e-01,9.45332e-01,3.77023e-01,9.99999e-01
9.526968669e-01,3.74096e-01,9.73302e-01,3.84357e-01,9.99999e-01
9.574603512e-01,3.87178e-01,9.88489e-01,3.91686e-01,9.99999e-01
9.622476530e-01,3.97567e-01,9.96396e-01,3.99005e-01,9.99999e-01
9.670588912e-01,4.05874e-01,9.98919e-01,4.06312e-01,9.99999e-01
9.718941857e-01,4.13574e-01,9.99923e-01,4.13605e-01,9.99999e-01
9.767536566e-01,4.20881e-01,9.99999e-01,4.20881e-01,9.99999e-01
9.816374249e-01,4.28137e-01,9.99999e-01,4.28137e-01,9.99999e-01
9.865456120e-01,4.35372e-01,9.99999e-01,4.35372e-01,9.99999e-01
9.914783401e-01,4.42582e-01,9.99999e-01,4.42582e-01,9.99999e-01
9.964357318e-01,4.49765e-01,9.99999e-01,4.49765e-01,9.99999e-01
1.001417910e+00,4.56920e-01,9.99999e-01,4.56920e-01,9.99999e-01
1.006425000e+00,4.64044e-01,9.99999e-01,4.64044e-01,9.99999e-01
1.011457125e+00,4.71135e-01,9.99999e-01,4.71135e-01,9.99999e-01
1.016514411e+00,4.78192e-01,9.99999e-01,4.78192e-01,9.99999e-01
1.021596983e+00,4.85134e-01,9.99840e-01,4.85211e-01,9.99999e-01
1.026704968e+00,4.86709e-01,9.88860e-01,4.92192e-01,9.99999e-01
1.031838492e+00,4.52565e-01,9.06703e-01,4.99132e-01,9.99999e-01
1.036997685e+00,2.71303e-02,5.36139e-02,5.06030e-01,9.99999e-01
1.042182673e+00,2.24960e-03,4.38617e-03,5.12884e-01,9.99999e-01
1.047393587e+00,5.59637e-03,1.07686e-02,5.19694e-01,9.99999e-01
1.052630555e+00,9.66967e-07,1.83675e-06,5.26456e-01,9.99999e-01
1.057893707e+00,3.66297e-06,6.87017e-06,5.33170e-01,9.99999e-01
1.063183176e+00,8.02466e-05,1.48650e-04,5.39835e-01,9.99999e-01
1.068499092e+00,7.41789e-04,1.35747e-03,5.46449e-01,9.99999e-01
1.073841587e+00,7.92123e-03,1.43238e-02,5.53011e-01,9.99999e-01
1.079210795e+00,3.88422e-02,6.94206e-02,5.59519e-01,9.99999e-01
1.084606849e+00,1.24890e-01,2.20664e-01,5.65974e-01,9.99999e-01
1.090029883e+00,2.59364e-01,4.53137e-01,5.72373e-01,9.99999e-01
1.095480033e+00,3.91300e-01,6.76151e-01,5.78716e-01,9.99999e-01
1.100957433e+00,4.84007e-01,8.27359e-01,5.85002e-01,9.99999e-01
1.106462220e+00,5.46618e-01,9.24543e-01,5.91230e-01,9.99999e-01
1.111994531e+00,5.80258e-01,9.71304e-01,5.97400e-01,9.99999e-01
1.117554504e+00,5.99244e-01,9.92931e-01,6.03510e-01,9.99999e-01
1.123142276e+00,6.09277e-01,9.99535e-01,6.09560e-01,9.99999e-01
1.128757988e+00,6.15549e-01,9.99999e-01,6.15549e-01,9.99999e-01
1.134401778e+00,6.21478e-01,9.99999e-01,6.21478e-01,9.99999e-01
1.140073787e+00,6.27344e-01,9.99999e-01,6.27344e-01,9.99999e-01
1.145774156e+00,6.33148e-01,9.99999e-01,6.33148e-01,9.99999e-01
1.151503026e+00,6.38890e-01,9.99999e-01,6.38890e-01,9.99999e-01
1.157260541e+00,6.44569e-01,9.99999e-01,6.44569e-01,9.99999e-01
1.163046844e+00,6.50185e-01,9.99999e-01,6.50185e-01,9.99999e-01
1.168862078e+00,6.55737e-01,9.99999e-01,6.55737e-01,9.99999e-01
1.174706389e+00,6.61226e-01,9.99999e-01,6.61226e-01,9.99999e-01
1.180579921e+00,6.66651e-01,9.99999e-01,6.66651e-01,9.99999e-01
1.186482820e+00,6.71997e-01,9.99977e-01,6.72012e-01,9.99999e-01
1.192415234e+00,6.51525e-01,9.61931e-01,6.77309e-01,9.99999e-01
1.198377311e+00,3.54585e-01,5.19507e-01,6.82541e-01,9.99999e-01
1.204369197e+00,6.26459e-29,9.10933e-29,6.87710e-01,9.99999e-01
1.210391043e+00,7.08508e-117,1.02265e-116,6.92815e-01,9.99999e-01
1.216442998e+00,3.77109e-101,5.40382e-101,6.97855e-01,9.99999e-01
1.222525213e+00,1.24062e-99,1.76517e-99,7.02832e-01,9.99999e-01
1.228637839e+00,7.12331e-77,1.00648e-76,7.07744e-01,9.99999e-01
1.234781029e+00,7.35990e-48,1.03283e-47,7.12593e-01,9.99999e-01
1.240954934e+00,9.22315e-32,1.28567e-31,7.17378e-01,9.99999e-01
1.247159708e+00,2.35620e-15,3.26298e-15,7.22101e-01,9.99999e-01
1.253395507e+00,1.98999e-10,2.73816e-10,7.26759e-01,9.99999e-01
1.259662485e+00,2.89241e-06,3.95486e-06,7.31356e-01,9.99999e-01
1.265960797e+00,7.75547e-04,1.05389e-03,7.35889e-01,9.99999e-01
1.272290601e+00,3.00162e-02,4.05426e-02,7.40360e-01,9.99999e-01
1.278652054e+00,2.72102e-02,3.65350e-02,7.44770e-01,9.99999e-01
1.285045314e+00,3.43403e-05,4.58410e-05,7.49117e-01,9.99999e-01
1.291470541e+00,7.52218e-14,9.98426e-14,7.53404e-01,9.99999e-01
1.297927893e+00,4.05769e-05,5.35577e-05,7.57629e-01,9.99999e-01
1.304417533e+00,2.07665e-03,2.72599e-03,7.61794e-01,9.99999e-01
1.310939621e+00,5.21884e-04,6.81399e-04,7.65899e-01,9.99999e-01
1.317494319e+00,8.65656e-40,1.12431e-39,7.69945e-01,9.99999e-01
1.324081790e+00,3.87391e-26,5.00549e-26,7.73931e-01,9.99999e-01
1.330702199e+00,1.49221e-15,1.91835e-15,7.77859e-01,9.99999e-01
1.337355710e+00,2.90180e-14,3.71203e-14,7.81728e-01,9.99999e-01
1.344042489e+00,1.49990e-14,1.90939e-14,7.85540e-01,9.99999e-01
1.350762701e+00,7.57310e-16,9.59476e-16,7.89294e-01,9.99999e-01
1.357516515e+00,9.83562e-10,1.24032e-09,7.92992e-01,9.99999e-01
1.364304097e+00,3.65835e-07,4.59226e-07,7.96633e-01,9.99999e-01
1.371125618e+00,4.74793e-04,5.93329e-04,8.00219e-01,9.99999e-01
1.377981246e+00,1.30759e-03,1.62687e-03,8.03749e-01,9.99999e-01
1.384871152e+00,1.90134e-02,2.35539e-02,8.07225e-01,9.99999e-01
1.391795508e+00,2.57216e-02,3.17296e-02,8.10647e-01,9.99999e-01
1.398754485e+00,9.24128e-02,1.13527e-01,8.14015e-01,9.99999e-01
1.405748258e+00,1.67740e-01,2.05229e-01,8.17331e-01,9.99999e-01
1.412776999e+00,2.99400e-01,3.64857e-01,8.20593e-01,9.99999e-01
1.419840884e+00,2.79400e-01,3.39158e-01,8.23805e-01,9.99999e-01
1.426940089e+00,1.04937e-02,1.26894e-02,8.26965e-01,9.99999e-01
1.434074789e+00,0.00000e+00,0.00000e+00,8.30074e-01,9.99999e-01
1.441245163e+00,0.00000e+00,0.00000e+00,8.33133e-01,9.99999e-01
1.448451389e+00,0.00000e+00,0.00000e+00,8.36143e-01,9.99999e-01
1.455693646e+00,0.00000e+00,0.00000e+00,8.39104e-01,9.99999e-01
1.462972114e+00,0.00000e+00,0.00000e+00,8.42016e-01,9.99999e-01
1.470286975e+00,1.09745e-193,1.29894e-193,8.44881e-01,9.99999e-01
1.477638409e+00,1.62368e-121,1.91540e-121,8.47699e-01,9.99999e-01
1.485026601e+00,2.03572e-67,2.39364e-67,8.50470e-01,9.99999e-01
1.492451734e+00,2.12416e-57,2.48965e-57,8.53195e-01,9.99999e-01
1.499913993e+00,1.35537e-24,1.58361e-24,8.55875e-01,9.99999e-01
1.507413563e+00,2.39364e-23,2.78813e-23,8.58510e-01,9.99999e-01
1.514950631e+00,6.70895e-25,7.79113e-25,8.61101e-01,9.99999e-01
1.522525384e+00,3.27481e-86,3.79183e-86,8.63648e-01,9.99999e-01
1.530138011e+00,9.60297e-207,1.10869e-206,8.66152e-01,9.99999e-01
1.537788701e+00,8.97464e-153,1.03321e-152,8.68614e-01,9.99999e-01
1.545477645e+00,8.88199e-32,1.01970e-31,8.71034e-01,9.99999e-01
1.553205033e+00,3.10731e-23,3.55766e-23,8.73413e-01,9.99999e-01
1.560971058e+00,1.81306e-23,2.07029e-23,8.75751e-01,9.99999e-01
1.568775913e+00,0.00000e+00,0.00000e+00,8.78049e-01,9.99999e-01
1.576619793e+00,0.00000e+00,0.00000e+00,8.80308e-01,9.99999e-01
1.584502892e+00,0.00000e+00,0.00000e+00,8.82527e-01,9.99999e-01
1.592425406e+00,0.00000e+00,0.00000e+00,8.84708e-01,9.99999e-01
1.600387533e+00,0.00000e+00,0.00000e+00,8.86852e-01,9.99999e-01
1.608389471e+00,0.00000e+00,0.00000e+00,8.88958e-01,9.99999e-01
1.616431418e+00,0.00000e+00,0.00000e+00,8.91027e-01,9.99999e-01
1.624513575e+00,0.00000e+00,0.00000e+00,8.93060e-01,9.99999e-01
1.632636143e+00,0.00000e+00,0.00000e+00,8.95057e-01,9.99999e-01
1.640799324e+00,2.13278e-179,2.37762e-179,8.97019e-01,9.99999e-01
1.649003321e+00,2.13613e-179,2.37626e-179,8.98947e-01,9.99999e-01
1.657248337e+00,1.71092e-138,1.89925e-138,9.00841e-01,9.99999e-01
1.665534579e+00,2.01040e-139,2.22709e-139,9.02701e-01,9.99999e-01
1.673862252e+00,1.13312e-88,1.25271e-88,9.04528e-01,9.99999e-01
1.682231563e+00,3.31983e-61,3.66296e-61,9.06322e-01,9.99999e-01
1.690642721e+00,1.00732e-33,1.10928e-33,9.08085e-01,9.99999e-01
1.699095934e+00,2.00308e-21,2.20163e-21,9.09816e-01,9.99999e-01
1.707591414e+00,7.40012e-11,8.11846e-11,9.11516e-01,9.99999e-01
1.716129371e+00,1.10359e-06,1.20850e-06,9.13185e-01,9.99999e-01
1.724710018e+00,3.40891e-04,3.72629e-04,9.14825e-01,9.99999e-01
1.733333568e+00,4.54620e-03,4.96073e-03,9.16435e-01,9.99999e-01
1.742000236e+00,4.18655e-02,4.56042e-02,9.18016e-01,9.99999e-01
1.750710237e+00,1.03476e-04,1.12527e-04,9.19568e-01,9.99999e-01
1.759463788e+00,1.19025e-84,1.29221e-84,9.21093e-01,9.99999e-01
1.768261107e+00,1.31485e-88,1.42517e-88,9.22589e-01,9.99999e-01
1.777102413e+00,2.23957e-86,2.42362e-86,9.24059e-01,9.99999e-01
1.785987925e+00,8.60342e-81,9.29594e-81,9.25501e-01,9.99999e-01
1.794917864e+00,3.95044e-77,4.26190e-77,9.26918e-01,9.99999e-01
1.803892454e+00,4.27955e-74,4.61004e-74,9.28308e-01,9.99999e-01
1.812911916e+00,3.44847e-71,3.70933e-71,9.29673e-01,9.99999e-01
1.821976476e+00,2.98831e-71,3.20974e-71,9.31013e-01,9.99999e-01
1.831086358e+00,4.42857e-57,4.75001e-57,9.32329e-01,9.99999e-01
1.840241790e+00,1.41478e-48,1.51537e-48,9.33620e-01,9.99999e-01
1.849442999e+00,1.05329e-33,1.12664e-33,9.34888e-01,9.99999e-01
1.858690214e+00,9.59252e-32,1.02470e-31,9.36132e-01,9.99999e-01
1.867983665e+00,2.65686e-32,2.83442e-32,9.37353e-01,9.99999e-01
1.877323583e+00,2.18037e-162,2.32312e-162,9.38551e-01,9.99999e-01
