#,Wave/freq,Total,CO2,Rayleigh,CIA
4.000000000e-01,1.23118e-03,9.99999e-01,1.23118e-03,9.99999e-01
4.020000000e-01,1.40558e-03,9.99999e-01,1.40558e-03,9.99999e-01
4.040100000e-01,1.60027e-03,9.99999e-01,1.60027e-03,9.99999e-01
4.060300500e-01,1.81726e-03,9.99999e-01,1.81726e-03,9.99999e-01
4.080602003e-01,2.05849e-03,9.99999e-01,2.05849e-03,9.99999e-01
4.101005013e-01,2.32602e-03,9.99999e-01,2.32602e-03,9.99999e-01
4.121510038e-01,2.62198e-03,9.99999e-01,2.62198e-03,9.99999e-01
4.142117588e-01,2.94861e-03,9.99999e-01,2.94861e-03,9.99999e-01
4.162828176e-01,3.30826e-03,9.99999e-01,3.30826e-03,9.99999e-01
4.183642317e-01,3.70334e-03,9.99999e-01,3.70334e-03,9.99999e-01
4.204560528e-01,4.13637e-03,9.99999e-01,4.13637e-03,9.99999e-01
4.225583331e-01,4.60996e-03,9.99999e-01,4.60996e-03,9.99999e-01
4.246711247e-01,5.12678e-03,9.99999e-01,5.12678e-03,9.99999e-01
4.267944804e-01,5.68959e-03,9.99999e-01,5.68959e-03,9.99999e-01
4.289284528e-01,6.30121e-03,9.99999e-01,6.30121e-03,9.99999e-01
4.310730950e-01,6.96451e-03,9.99999e-01,6.96451e-03,9.99999e-01
4.332284605e-01,7.68243e-03,9.99999e-01,7.68243e-03,9.99999e-01
4.353946028e-01,8.45796e-03,9.99999e-01,8.45796e-03,9.99999e-01
4.375715758e-01,9.29410e-03,9.99999e-01,9.29410e-03,9.99999e-01
4.397594337e-01,1.01939e-02,9.99999e-01,1.01939e-02,9.99999e-01
4.419582309e-01,1.11604e-02,9.99999e-01,1.11604e-02,9.99999e-01
4.441680220e-01,1.21967e-02,9.99999e-01,1.21967e-02,9.99999e-01
4.463888621e-01,1.33059e-02,9.99999e-01,1.33059e-02,9.99999e-01
4.486208064e-01,1.44910e-02,9.99999e-01,1.44910e-02,9.99999e-01
4.508639105e-01,1.57551e-02,9.99999e-01,1.57551e-02,9.99999e-01
4.531182300e-01,1.71012e-02,9.99999e-01,1.71012e-02,9.99999e-01
4.553838212e-01,1.85323e-02,9.99999e-01,1.85323e-02,9.99999e-01
4.576607403e-01,2.00513e-02,9.99999e-01,2.00513e-02,9.99999e-01
4.599490440e-01,2.16610e-02,9.99999e-01,2.16610e-02,9.99999e-01
4.622487892e-01,2.33644e-02,9.99999e-01,2.33644e-02,9.99999e-01
4.645600332e-01,2.51640e-02,9.99999e-01,2.51640e-02,9.99999e-01
4.668828333e-01,2.70625e-02,9.99999e-01,2.70625e-02,9.99999e-01
4.692172475e-01,2.90624e-02,9.99999e-01,2.90624e-02,9.99999e-01
4.715633337e-01,3.11663e-02,9.99999e-01,3.11663e-02,9.99999e-01
4.739211504e-01,3.33763e-02,9.99999e-01,3.33763e-02,9.99999e-01
4.762907561e-01,3.56947e-02,9.99999e-01,3.56947e-02,9.99999e-01
4.786722099e-01,3.81236e-02,9.99999e-01,3.81236e-02,9.99999e-01
4.810655710e-01,4.06648e-02,9.99999e-01,4.06648e-02,9.99999e-01
4.834708988e-01,4.33202e-02,9.99999e-01,4.33202e-02,9.99999e-01
4.858882533e-01,4.60913e-02,9.99999e-01,4.60913e-02,9.99999e-01
4.883176946e-01,4.89797e-02,9.99999e-01,4.89797e-02,9.99999e-01
4.907592831e-01,5.19866e-02,9.99999e-01,5.19866e-02,9.99999e-01
4.932130795e-01,5.51132e-02,9.99999e-01,5.51132e-02,9.99999e-01
4.956791449e-01,5.83605e-02,9.99999e-01,5.83605e-02,9.99999e-01
4.981575406e-01,6.17293e-02,9.99999e-01,6.17293e-02,9.99999e-01
5.006483283e-01,6.52202e-02,9.99999e-01,6.52202e-02,9.99999e-01
5.031515699e-01,6.88336e-02,9.99999e-01,6.88336e-02,9.99999e-01
5.056673278e-01,7.25700e-02,9.99999e-01,7.25700e-02,9.99999e-01
5.081956644e-01,7.64293e-02,9.99999e-01,7.64293e-02,9.99999e-01
5.107366428e-01,8.04115e-02,9.99999e-01,8.04115e-02,9.99999e-01
5.132903260e-01,8.45164e-02,9.99999e-01,8.45164e-02,9.99999e-01
5.158567776e-01,8.87435e-02,9.99999e-01,8.87435e-02,9.99999e-01
5.184360615e-01,9.30922e-02,9.99999e-01,9.30922e-02,9.99999e-01
5.210282418e-01,9.75618e-02,9.99999e-01,9.75618e-02,9.99999e-01
5.236333830e-01,1.02151e-01,9.99999e-01,1.02151e-01,9.99999e-01
5.262515499e-01,1.06860e-01,9.99999e-01,1.06860e-01,9.99999e-01
5.288828077e-01,1.11686e-01,9.99999e-01,1.11686e-01,9.99999e-01
5.315272217e-01,1.16628e-01,9.99999e-01,1.16628e-01,9.99999e-01
5.341848578e-01,1.21684e-01,9.99999e-01,1.21684e-01,9.99999e-01
5.368557821e-01,1.26854e-01,9.99999e-01,1.26854e-01,9.99999e-01
5.395400610e-01,1.32134e-01,9.99999e-01,1.32134e-01,9.99999e-01
5.422377613e-01,1.37524e-01,9.99999e-01,1.37524e-01,9.99999e-01
5.449489501e-01,1.43020e-01,9.99999e-01,1.43020e-01,9.99999e-01
5.476736949e-01,1.48621e-01,9.99999e-01,1.48621e-01,9.99999e-01
5.504120634e-01,1.54324e-01,9.99999e-01,1.54324e-01,9.99999e-01
5.531641237e-01,1.60127e-01,9.99999e-01,1.60127e-01,9.99999e-01
5.559299443e-01,1.66027e-01,9.99999e-01,1.66027e-01,9.99999e-01
5.587095940e-01,1.72021e-01,9.99999e-01,1.72021e-01,9.99999e-01
5.615031420e-01,1.78107e-01,9.99999e-01,1.78107e-01,9.99999e-01
5.643106577e-01,1.84281e-01,9.99999e-01,1.84281e-01,9.99999e-01
5.671322110e-01,1.90542e-01,9.99999e-01,1.90542e-01,9.99999e-01
5.699678720e-01,1.96885e-01,9.99999e-01,1.96885e-01,9.99999e-01
5.728177114e-01,2.03307e-01,9.99999e-01,2.03307e-01,9.99999e-01
5.756818000e-01,2.09806e-01,9.99999e-01,2.09806e-01,9.99999e-01
5.785602090e-01,2.16379e-01,9.99999e-01,2.16379e-01,9.99999e-01
5.814530100e-01,2.23021e-01,9.99999e-01,2.23021e-01,9.99999e-01
5.843602750e-01,2.29730e-01,9.99999e-01,2.29730e-01,9.99999e-01
5.872820764e-01,2.36502e-01,9.99999e-01,2.36502e-01,9.99999e-01
5.902184868e-01,2.43334e-01,9.99999e-01,2.43334e-01,9.99999e-01
5.931695792e-01,2.50223e-01,9.99999e-01,2.50223e-01,9.99999e-01
5.961354271e-01,2.57165e-01,9.99999e-01,2.57165e-01,9.99999e-01
5.991161043e-01,2.64156e-01,9.99999e-01,2.64156e-01,9.99999e-01
6.021116848e-01,2.71195e-01,9.99999e-01,2.71195e-01,9.99999e-01
6.051222432e-01,2.78276e-01,9.99999e-01,2.78276e-01,9.99999e-01
6.081478544e-01,2.85396e-01,9.99999e-01,2.85396e-01,9.99999e-01
6.111885937e-01,2.92553e-01,9.99999e-01,2.92553e-01,9.99999e-01
6.142445367e-01,2.99742e-01,9.99999e-01,2.99742e-01,9.99999e-01
6.173157594e-01,3.06961e-01,9.99999e-01,3.06961e-01,9.99999e-01
6.204023382e-01,3.14206e-01,9.99999e-01,3.14206e-01,9.99999e-01
6.235043498e-01,3.21474e-01,9.99999e-01,3.21474e-01,9.99999e-01
6.266218716e-01,3.28762e-01,9.99999e-01,3.28762e-01,9.99999e-01
6.297549810e-01,3.36066e-01,9.99999e-01,3.36066e-01,9.99999e-01
6.329037559e-01,3.43383e-01,9.99999e-01,3.43383e-01,9.99999e-01
6.360682746e-01,3.50710e-01,9.99999e-01,3.50710e-01,9.99999e-01
6.392486160e-01,3.58044e-01,9.99999e-01,3.58044e-01,9.99999e-01
6.424448591e-01,3.65382e-01,9.99999e-01,3.65382e-01,9.99999e-01
6.456570834e-01,3.72721e-01,9.99999e-01,3.72721e-01,9.99999e-01
6.488853688e-01,3.80058e-01,9.99999e-01,3.80058e-01,9.99999e-01
6.521297956e-01,3.87391e-01,9.99999e-01,3.87391e-01,9.99999e-01
6.553904446e-01,3.94715e-01,9.99999e-01,3.94715e-01,9.99999e-01
6.586673968e-01,4.02030e-01,9.99999e-01,4.02030e-01,9.99999e-01
6.619607338e-01,4.09332e-01,9.99999e-01,4.09332e-01,9.99999e-01
6.652705375e-01,4.16618e-01,9.99999e-01,4.16618e-01,9.99999e-01
6.685968902e-01,4.23886e-01,9.99999e-01,4.23886e-01,9.99999e-01
6.719398746e-01,4.31133e-01,9.99999e-01,4.31133e-01,9.99999e-01
6.752995740e-01,4.38358e-01,9.99999e-01,4.38358e-01,9.99999e-01
6.786760719e-01,4.45558e-01,9.99999e-01,4.45558e-01,9.99999e-01
6.820694522e-01,4.52730e-01,9.99999e-01,4.52730e-01,9.99999e-01
6.854797995e-01,4.59872e-01,9.99999e-01,4.59872e-01,9.99999e-01
6.889071985e-01,4.66982e-01,9.99999e-01,4.66982e-01,9.99999e-01
6.923517345e-01,4.74059e-01,9.99999e-01,4.74059e-01,9.99999e-01
6.958134932e-01,4.81100e-01,9.99999e-01,4.81100e-01,9.99999e-01
6.992925606e-01,4.88104e-01,9.99999e-01,4.88104e-01,9.99999e-01
7.027890234e-01,4.95068e-01,9.99999e-01,4.95068e-01,9.99999e-01
7.063029686e-01,5.01991e-01,9.99999e-01,5.01991e-01,9.99999e-01
7.098344834e-01,5.08872e-01,9.99999e-01,5.08872e-01,9.99999e-01
7.133836558e-01,5.15707e-01,9.99999e-01,5.15707e-01,9.99999e-01
7.169505741e-01,5.22497e-01,9.99999e-01,5.22497e-01,9.99999e-01
7.205353270e-01,5.29240e-01,9.99999e-01,5.29240e-01,9.99999e-01
7.241380036e-01,5.35934e-01,9.99999e-01,5.35934e-01,9.99999e-01
7.277586936e-01,5.42578e-01,9.99999e-01,5.42578e-01,9.99999e-01
7.313974871e-01,5.49170e-01,9.99999e-01,5.49170e-01,9.99999e-01
7.350544745e-01,5.55710e-01,9.99999e-01,5.55710e-01,9.99999e-01
7.387297469e-01,5.62197e-01,9.99999e-01,5.62197e-01,9.99999e-01
7.424233956e-01,5.68628e-01,9.99999e-01,5.68628e-01,9.99999e-01
7.461355126e-01,5.75005e-01,9.99999e-01,5.75005e-01,9.99999e-01
7.498661902e-01,5.81324e-01,9.99999e-01,5.81324e-01,9.99999e-01
7.536155211e-01,5.87586e-01,9.99999e-01,5.87586e-01,9.99999e-01
7.573835987e-01,5.93790e-01,9.99999e-01,5.93790e-01,9.99999e-01
7.611705167e-01,5.99935e-01,9.99999e-01,5.99935e-01,9.99999e-01
7.649763693e-01,6.06021e-01,9.99999e-01,6.06021e-01,9.99999e-01
7.688012511e-01,6.12046e-01,9.99999e-01,6.12046e-01,9.99999e-01
7.726452574e-01,6.18010e-01,9.99999e-01,6.18010e-01,9.99999e-01
7.765084837e-01,6.23912e-01,9.99999e-01,6.23912e-01,9.99999e-01
7.803910261e-01,6.15387e-01,9.77186e-01,6.29753e-01,9.99999e-01
7.842929812e-01,5.75781e-01,9.05982e-01,6.35532e-01,9.99999e-01
7.882144461e-01,5.76679e-01,8.99307e-01,6.41248e-01,9.99999e-01
7.921555184e-01,6.08472e-01,9.40596e-01,6.46901e-01,9.99999e-01
7.961162960e-01,6.26372e-01,9.59971e-01,6.52490e-01,9.99999e-01
8.000968774e-01,6.43607e-01,9.78101e-01,6.58016e-01,9.99999e-01
8.040973618e-01,6.55922e-01,9.88610e-01,6.63478e-01,9.99999e-01
8.081178486e-01,6.65368e-01,9.94752e-01,6.68877e-01,9.99999e-01
8.121584379e-01,6.73119e-01,9.98379e-01,6.74211e-01,9.99999e-01
8.162192301e-01,6.79239e-01,9.99641e-01,6.79482e-01,9.99999e-01
8.203003262e-01,6.84684e-01,9.99994e-01,6.84688e-01,9.99999e-01
8.244018279e-01,6.89830e-01,9.99999e-01,6.89830e-01,9.99999e-01
8.285238370e-01,6.94908e-01,9.99999e-01,6.94908e-01,9.99999e-01
8.326664562e-01,6.99922e-01,9.99999e-01,6.99922e-01,9.99999e-01
8.368297885e-01,7.04872e-01,9.99999e-01,7.04872e-01,9.99999e-01
8.410139374e-01,7.09758e-01,9.99999e-01,7.09758e-01,9.99999e-01
8.452190071e-01,7.14581e-01,9.99999e-01,7.14581e-01,9.99999e-01
8.494451021e-01,7.19340e-01,9.99999e-01,7.19340e-01,9.99999e-01
8.536923276e-01,7.24036e-01,9.99999e-01,7.24036e-01,9.99999e-01
8.579607893e-01,7.28669e-01,9.99999e-01,7.28669e-01,9.99999e-01
8.622505932e-01,7.33239e-01,9.99999e-01,7.33239e-01,9.99999e-01
8.665618462e-01,6.95954e-01,9.43350e-01,7.37747e-01,9.99999e-01
8.708946554e-01,5.75970e-01,7.76038e-01,7.42192e-01,9.99999e-01
8.752491287e-01,6.09779e-01,8.16767e-01,7.46576e-01,9.99999e-01
8.796253743e-01,6.72435e-01,8.95506e-01,7.50898e-01,9.99999e-01
8.840235012e-01,7.13298e-01,9.44565e-01,7.55160e-01,9.99999e-01
8.884436187e-01,7.42519e-01,9.77821e-01,7.59360e-01,9.99999e-01
8.928858368e-01,7.56598e-01,9.90959e-01,7.63500e-01,9.99999e-01
8.973502660e-01,7.65893e-01,9.97800e-01,7.67581e-01,9.99999e-01
9.018370173e-01,7.71415e-01,9.99757e-01,7.71601e-01,9.99999e-01
9.063462024e-01,7.70701e-01,9.93730e-01,7.75563e-01,9.99999e-01
9.108779334e-01,7.68370e-01,9.85763e-01,7.79467e-01,9.99999e-01
9.154323231e-01,7.80687e-01,9.96647e-01,7.83312e-01,9.99999e-01
9.200094847e-01,7.48511e-01,9.50972e-01,7.87100e-01,9.99999e-01
9.246095321e-01,7.37156e-01,9.32128e-01,7.90831e-01,9.99999e-01
9.292325798e-01,7.51703e-01,9.46127e-01,7.94505e-01,9.99999e-01
9.338787427e-01,7.56690e-01,9.48086e-01,7.98123e-01,9.99999e-01
9.385481364e-01,7.70935e-01,9.61641e-01,8.01686e-01,9.99999e-01
9.432408771e-01,7.86173e-01,9.76377e-01,8.05194e-01,9.99999e-01
9.479570815e-01,7.98790e-01,9.87808e-01,8.08647e-01,9.99999e-01
9.526968669e-01,8.07261e-01,9.94105e-01,8.12047e-01,9.99999e-01
9.574603512e-01,8.13336e-01,9.97476e-01,8.15393e-01,9.99999e-01
9.622476530e-01,8.18043e-01,9.99212e-01,8.18687e-01,9.99999e-01
9.670588912e-01,8.21735e-01,9.99763e-01,8.21928e-01,9.99999e-01
9.718941857e-01,8.25105e-01,9.99982e-01,8.25118e-01,9.99999e-01
9.767536566e-01,8.28257e-01,9.99999e-01,8.28257e-01,9.99999e-01
9.816374249e-01,8.31346e-01,9.99999e-01,8.31346e-01,9.99999e-01
9.865456120e-01,8.34384e-01,9.99999e-01,8.34384e-01,9.99999e-01
9.914783401e-01,8.37374e-01,9.99999e-01,8.37374e-01,9.99999e-01
9.964357318e-01,8.40315e-01,9.99999e-01,8.40315e-01,9.99999e-01
1.001417910e+00,8.43207e-01,9.99999e-01,8.43207e-01,9.99999e-01
1.006425000e+00,8.46053e-01,9.99999e-01,8.46053e-01,9.99999e-01
1.011457125e+00,8.48851e-01,9.99999e-01,8.48851e-01,9.99999e-01
1.016514411e+00,8.51603e-01,9.99999e-01,8.51603e-01,9.99999e-01
1.021596983e+00,8.54281e-01,9.99965e-01,8.54309e-01,9.99999e-01
1.026704968e+00,8.54877e-01,9.97556e-01,8.56971e-01,9.99999e-01
1.031838492e+00,8.30928e-01,9.66658e-01,8.59587e-01,9.99999e-01
1.036997685e+00,1.94139e-01,2.25178e-01,8.62160e-01,9.99999e-01
1.042182673e+00,2.10176e-01,2.43065e-01,8.64689e-01,9.99999e-01
1.047393587e+00,2.09634e-01,2.41743e-01,8.67176e-01,9.99999e-01
1.052630555e+00,1.80050e-02,2.07044e-02,8.69621e-01,9.99999e-01
1.057893707e+00,3.79185e-02,4.34833e-02,8.72024e-01,9.99999e-01
1.063183176e+00,8.87517e-02,1.01502e-01,8.74386e-01,9.99999e-01
1.068499092e+00,1.85917e-01,2.12062e-01,8.76707e-01,9.99999e-01
1.073841587e+00,3.30635e-01,3.76154e-01,8.78989e-01,9.99999e-01
1.079210795e+00,4.75070e-01,5.39097e-01,8.81231e-01,9.99999e-01
1.084606849e+00,6.30044e-01,7.13175e-01,8.83434e-01,9.99999e-01
1.090029883e+00,7.43288e-01,8.39303e-01,8.85600e-01,9.99999e-01
1.095480033e+00,8.14386e-01,9.17382e-01,8.87727e-01,9.99999e-01
1.100957433e+00,8.53643e-01,9.59344e-01,8.89818e-01,9.99999e-01
1.106462220e+00,8.76706e-01,9.82994e-01,8.91872e-01,9.99999e-01
1.111994531e+00,8.88228e-01,9.93664e-01,8.93890e-01,9.99999e-01
1.117554504e+00,8.94486e-01,9.98451e-01,8.95873e-01,9.99999e-01
1.123142276e+00,8.97730e-01,9.99898e-01,8.97821e-01,9.99999e-01
1.128757988e+00,8.99735e-01,9.99999e-01,8.99735e-01,9.99999e-01
1.134401778e+00,9.01614e-01,9.99999e-01,9.01614e-01,9.99999e-01
1.140073787e+00,9.03461e-01,9.99999e-01,9.03461e-01,9.99999e-01
1.145774156e+00,9.05274e-01,9.99999e-01,9.05274e-01,9.99999e-01
1.151503026e+00,9.07055e-01,9.99999e-01,9.07055e-01,9.99999e-01
1.157260541e+00,9.08805e-01,9.99999e-01,9.08805e-01,9.99999e-01
1.163046844e+00,9.10523e-01,9.99999e-01,9.10523e-01,9.99999e-01
1.168862078e+00,9.12210e-01,9.99999e-01,9.12210e-01,9.99999e-01
1.174706389e+00,9.13867e-01,9.99999e-01,9.13867e-01,9.99999e-01
1.180579921e+00,9.15495e-01,9.99999e-01,9.15495e-01,9.99999e-01
1.186482820e+00,9.17088e-01,9.99994e-01,9.17093e-01,9.99999e-01
1.192415234e+00,9.10620e-01,9.91245e-01,9.18662e-01,9.99999e-01
1.198377311e+00,5.27988e-01,5.73774e-01,9.20203e-01,9.99999e-01
1.204369197e+00,4.64649e-08,5.04113e-08,9.21715e-01,9.99999e-01
1.210391043e+00,3.28230e-27,3.55534e-27,9.23201e-01,9.99999e-01
1.216442998e+00,8.73136e-24,9.44278e-24,9.24659e-01,9.99999e-01
1.222525213e+00,1.88953e-23,2.04033e-23,9.26091e-01,9.99999e-01
1.228637839e+00,4.10594e-18,4.42690e-18,9.27496e-01,9.99999e-01
1.234781029e+00,3.54092e-12,3.81204e-12,9.28876e-01,9.99999e-01
1.240954934e+00,2.93007e-08,3.14983e-08,9.30231e-01,9.99999e-01
1.247159708e+00,6.57776e-05,7.06101e-05,9.31561e-01,9.99999e-01
1.253395507e+00,4.18599e-03,4.48723e-03,9.32866e-01,9.99999e-01
1.259662485e+00,4.27775e-02,4.57931e-02,9.34147e-01,9.99999e-01
1.265960797e+00,1.56395e-01,1.67195e-01,9.35405e-01,9.99999e-01
1.272290601e+00,4.46498e-01,4.76702e-01,9.36640e-01,9.99999e-01
1.278652054e+00,3.88279e-01,4.14008e-01,9.37852e-01,9.99999e-01
1.285045314e+00,1.52159e-02,1.62037e-02,9.39041e-01,9.99999e-01
1.291470541e+00,6.81589e-04,7.24934e-04,9.40208e-01,9.99999e-01
1.297927893e+00,1.97715e-02,2.10032e-02,9.41354e-01,9.99999e-01
1.304417533e+00,2.45831e-01,2.60834e-01,9.42478e-01,9.99999e-01
1.310939621e+00,6.44518e-02,6.83054e-02,9.43582e-01,9.99999e-01
1.317494319e+00,8.04678e-10,8.51813e-10,9.44665e-01,9.99999e-01
1.324081790e+00,4.64192e-07,4.90830e-07,9.45728e-01,9.99999e-01
1.330702199e+00,3.57149e-04,3.77228e-04,9.46771e-01,9.99999e-01
1.337355710e+00,3.02071e-04,3.18710e-04,9.47794e-01,9.99999e-01
1.344042489e+00,9.12753e-05,9.62008e-05,9.48798e-01,9.99999e-01
1.350762701e+00,2.53569e-04,2.66975e-04,9.49784e-01,9.99999e-01
1.357516515e+00,4.42269e-03,4.65178e-03,9.50751e-01,9.99999e-01
1.364304097e+00,3.19124e-02,3.35320e-02,9.51700e-01,9.99999e-01
1.371125618e+00,1.59703e-01,1.67645e-01,9.52631e-01,9.99999e-01
1.377981246e+00,2.25890e-01,2.36895e-01,9.53544e-01,9.99999e-01
1.384871152e+00,4.12804e-01,4.32508e-01,9.54441e-01,9.99999e-01
1.391795508e+00,4.40544e-01,4.61147e-01,9.55320e-01,9.99999e-01
1.398754485e+00,5.93814e-01,6.21025e-01,9.56183e-01,9.99999e-01
1.405748258e+00,6.73526e-01,7.03766e-01,9.57030e-01,9.99999e-01
1.412776999e+00,7.67493e-01,8.01257e-01,9.57860e-01,9.99999e-01
1.419840884e+00,7.01504e-01,7.31742e-01,9.58675e-01,9.99999e-01
1.426940089e+00,8.31498e-02,8.66617e-02,9.59475e-01,9.99999e-01
1.434074789e+00,0.00000e+00,0.00000e+00,9.60259e-01,9.99999e-01
1.441245163e+00,0.00000e+00,0.00000e+00,9.61028e-01,9.99999e-01
1.448451389e+00,0.00000e+00,0.00000e+00,9.61783e-01,9.99999e-01
1.455693646e+00,6.66102e-213,6.92036e-213,9.62524e-01,9.99999e-01
1.462972114e+00,1.44485e-103,1.49998e-103,9.63250e-01,9.99999e-01
1.470286975e+00,6.13114e-44,6.36034e-44,9.63963e-01,9.99999e-01
1.477638409e+00,3.24940e-28,3.36843e-28,9.64662e-01,9.99999e-01
1.485026601e+00,2.56592e-16,2.65802e-16,9.65348e-01,9.99999e-01
1.492451734e+00,6.62454e-14,6.85755e-14,9.66020e-01,9.99999e-01
1.499913993e+00,6.44455e-07,6.66667e-07,9.66680e-01,9.99999e-01
1.507413563e+00,8.75866e-06,9.05449e-06,9.67328e-01,9.99999e-01
1.514950631e+00,3.60073e-07,3.71991e-07,9.67962e-01,9.99999e-01
1.522525384e+00,1.56303e-20,1.61372e-20,9.68585e-01,9.99999e-01
1.530138011e+00,1.03521e-46,1.06811e-46,9.69196e-01,9.99999e-01
1.537788701e+00,5.68859e-35,5.86576e-35,9.69795e-01,9.99999e-01
1.545477645e+00,1.11735e-08,1.15146e-08,9.70383e-01,9.99999e-01
1.553205033e+00,6.96605e-06,7.17439e-06,9.70959e-01,9.99999e-01
1.560971058e+00,1.82551e-06,1.87901e-06,9.71525e-01,9.99999e-01
1.568775913e+00,4.52364e-116,4.65357e-116,9.72079e-01,9.99999e-01
1.576619793e+00,9.55148e-271,9.82032e-271,9.72623e-01,9.99999e-01
1.584502892e+00,4.39827e-148,4.51959e-148,9.73156e-01,9.99999e-01
1.592425406e+00,1.60960e-103,1.65311e-103,9.73680e-01,9.99999e-01
1.600387533e+00,3.63964e-166,3.73606e-166,9.74193e-01,9.99999e-01
1.608389471e+00,1.32638e-278,1.36082e-278,9.74696e-01,9.99999e-01
1.616431418e+00,2.34927e-280,2.40903e-280,9.75189e-01,9.99999e-01
1.624513575e+00,3.02282e-131,3.09819e-131,9.75674e-01,9.99999e-01
1.632636143e+00,8.14922e-98,8.34833e-98,9.76148e-01,9.99999e-01
1.640799324e+00,7.94139e-41,8.13155e-41,9.76614e-01,9.99999e-01
1.649003321e+00,8.59129e-41,8.79290e-41,9.77070e-01,9.99999e-01
1.657248337e+00,7.87582e-32,8.05694e-32,9.77518e-01,9.99999e-01
1.665534579e+00,4.82026e-32,4.92890e-32,9.77957e-01,9.99999e-01
1.673862252e+00,6.45890e-21,6.60156e-21,9.78388e-01,9.99999e-01
1.682231563e+00,6.25835e-15,6.39383e-15,9.78810e-01,9.99999e-01
1.690642721e+00,5.51620e-09,5.63323e-09,9.79224e-01,9.99999e-01
1.699095934e+00,7.20830e-06,7.35818e-06,9.79631e-01,9.99999e-01
1.707591414e+00,1.76284e-03,1.79876e-03,9.80029e-01,9.99999e-01
1.716129371e+00,3.03760e-02,3.09826e-02,9.80419e-01,9.99999e-01
1.724710018e+00,1.51176e-01,1.54135e-01,9.80802e-01,9.99999e-01
1.733333568e+00,2.94254e-01,2.99898e-01,9.81178e-01,9.99999e-01
1.742000236e+00,4.67952e-01,4.76750e-01,9.81546e-01,9.99999e-01
1.750710237e+00,2.36939e-02,2.41304e-02,9.81907e-01,9.99999e-01
1.759463788e+00,6.15561e-20,6.26676e-20,9.82262e-01,9.99999e-01
1.768261107e+00,4.69970e-21,4.78288e-21,9.82609e-01,9.99999e-01
1.777102413e+00,5.77218e-20,5.87230e-20,9.82949e-01,9.99999e-01
1.785987925e+00,3.17393e-19,3.22788e-19,9.83283e-01,9.99999e-01
1.794917864e+00,3.43881e-18,3.49610e-18,9.83611e-01,9.99999e-01
1.803892454e+00,6.95263e-18,7.06616e-18,9.83932e-01,9.99999e-01
1.812911916e+00,5.25861e-17,5.34277e-17,9.84247e-01,9.99999e-01
1.821976476e+00,3.28402e-17,3.33553e-17,9.84556e-01,9.99999e-01
1.831086358e+00,4.03073e-14,4.09270e-14,9.84858e-01,9.99999e-01
1.840241790e+00,5.81607e-12,5.90370e-12,9.85155e-01,9.99999e-01
1.849442999e+00,1.94826e-08,1.97703e-08,9.85446e-01,9.99999e-01
1.858690214e+00,1.08276e-07,1.09843e-07,9.85732e-01,9.99999e-01
1.867983665e+00,1.66340e-08,1.68699e-08,9.86011e-01,9.99999e-01
1.877323583e+00,4.72683e-37,4.79255e-37,9.86286e-01,9.99999e-01
