#,Wave/freq,Total,CO2,Rayleigh,CIA
4.000000000e-01,5.53995e-20,9.99999e-01,5.53995e-20,9.99999e-01
4.020000000e-01,1.33127e-19,9.99999e-01,1.33127e-19,9.99999e-01
4.040100000e-01,3.14129e-19,9.99999e-01,3.14129e-19,9.99999e-01
4.060300500e-01,7.28763e-19,9.99999e-01,7.28763e-19,9.99999e-01
4.080602003e-01,1.66282e-18,9.99999e-01,1.66282e-18,9.99999e-01
4.101005013e-01,3.73274e-18,9.99999e-01,3.73274e-18,9.99999e-01
4.121510038e-01,8.24657e-18,9.99999e-01,8.24657e-18,9.99999e-01
4.142117588e-01,1.79357e-17,9.99999e-01,1.79357e-17,9.99999e-01
4.162828176e-01,3.84149e-17,9.99999e-01,3.84149e-17,9.99999e-01
4.183642317e-01,8.10488e-17,9.99999e-01,8.10488e-17,9.99999e-01
4.204560528e-01,1.68496e-16,9.99999e-01,1.68496e-16,9.99999e-01
4.225583331e-01,3.45265e-16,9.99999e-01,3.45265e-16,9.99999e-01
4.246711247e-01,6.97529e-16,9.99999e-01,6.97529e-16,9.99999e-01
4.267944804e-01,1.38976e-15,9.99999e-01,1.38976e-15,9.99999e-01
4.289284528e-01,2.73151e-15,9.99999e-01,2.73151e-15,9.99999e-01
4.310730950e-01,5.29749e-15,9.99999e-01,5.29749e-15,9.99999e-01
4.332284605e-01,1.01404e-14,9.99999e-01,1.01404e-14,9.99999e-01
4.353946028e-01,1.91633e-14,9.99999e-01,1.91633e-14,9.99999e-01
4.375715758e-01,3.57623e-14,9.99999e-01,3.57623e-14,9.99999e-01
4.397594337e-01,6.59218e-14,9.99999e-01,6.59218e-14,9.99999e-01
4.419582309e-01,1.20057e-13,9.99999e-01,1.20057e-13,9.99999e-01
4.441680220e-01,2.16073e-13,9.99999e-01,2.16073e-13,9.99999e-01
4.463888621e-01,3.84391e-13,9.99999e-01,3.84391e-13,9.99999e-01
4.486208064e-01,6.76090e-13,9.99999e-01,6.76090e-13,9.99999e-01
4.508639105e-01,1.17596e-12,9.99999e-01,1.17596e-12,9.99999e-01
4.531182300e-01,2.02316e-12,9.99999e-01,2.02316e-12,9.99999e-01
4.553838212e-01,3.44363e-12,9.99999e-01,3.44363e-12,9.99999e-01
4.576607403e-01,5.80014e-12,9.99999e-01,5.80014e-12,9.99999e-01
4.599490440e-01,9.66915e-12,9.99999e-01,9.66915e-12,9.99999e-01
4.622487892e-01,1.59571e-11,9.99999e-01,1.59571e-11,9.99999e-01
4.645600332e-01,2.60749e-11,9.99999e-01,2.60749e-11,9.99999e-01
4.668828333e-01,4.21967e-11,9.99999e-01,4.21967e-11,9.99999e-01
4.692172475e-01,6.76402e-11,9.99999e-01,6.76402e-11,9.99999e-01
4.715633337e-01,1.07420e-10,9.99999e-01,1.07420e-10,9.99999e-01
4.739211504e-01,1.69042e-10,9.99999e-01,1.69042e-10,9.99999e-01
4.762907561e-01,2.63643e-10,9.99999e-01,2.63643e-10,9.99999e-01
4.786722099e-01,4.07591e-10,9.99999e-01,4.07591e-10,9.99999e-01
4.810655710e-01,6.24735e-10,9.99999e-01,6.24735e-10,9.99999e-01
4.834708988e-01,9.49519e-10,9.99999e-01,9.49519e-10,9.99999e-01
4.858882533e-01,1.43127e-09,9.99999e-01,1.43127e-09,9.99999e-01
4.883176946e-01,2.14001e-09,9.99999e-01,2.14001e-09,9.99999e-01
4.907592831e-01,3.17441e-09,9.99999e-01,3.17441e-09,9.99999e-01
4.932130795e-01,4.67224e-09,9.99999e-01,4.67224e-09,9.99999e-01
4.956791449e-01,6.82454e-09,9.99999e-01,6.82454e-09,9.99999e-01
4.981575406e-01,9.89397e-09,9.99999e-01,9.89397e-09,9.99999e-01
5.006483283e-01,1.42391e-08,9.99999e-01,1.42391e-08,9.99999e-01
5.031515699e-01,2.03456e-08,9.99999e-01,2.03456e-08,9.99999e-01
5.056673278e-01,2.88667e-08,9.99999e-01,2.88667e-08,9.99999e-01
5.081956644e-01,4.06745e-08,9.99999e-01,4.06745e-08,9.99999e-01
5.107366428e-01,5.69255e-08,9.99999e-01,5.69255e-08,9.99999e-01
5.132903260e-01,7.91420e-08,9.99999e-01,7.91420e-08,9.99999e-01
5.158567776e-01,1.09315e-07,9.99999e-01,1.09315e-07,9.99999e-01
5.184360615e-01,1.50032e-07,9.99999e-01,1.50032e-07,9.99999e-01
5.210282418e-01,2.04631e-07,9.99999e-01,2.04631e-07,9.99999e-01
5.236333830e-01,2.77394e-07,9.99999e-01,2.77394e-07,9.99999e-01
5.262515499e-01,3.73776e-07,9.99999e-01,3.73776e-07,9.99999e-01
5.288828077e-01,5.00690e-07,9.99999e-01,5.00690e-07,9.99999e-01
5.315272217e-01,6.66834e-07,9.99999e-01,6.66834e-07,9.99999e-01
5.341848578e-01,8.83098e-07,9.99999e-01,8.83098e-07,9.99999e-01
5.368557821e-01,1.16303e-06,9.99999e-01,1.16303e-06,9.99999e-01
5.395400610e-01,1.52338e-06,9.99999e-01,1.52338e-06,9.99999e-01
5.422377613e-01,1.98478e-06,9.99999e-01,1.98478e-06,9.99999e-01
5.449489501e-01,2.57245e-06,9.99999e-01,2.57245e-06,9.99999e-01
5.476736949e-01,3.31709e-06,9.99999e-01,3.31709e-06,9.99999e-01
5.504120634e-01,4.25584e-06,9.99999e-01,4.25584e-06,9.99999e-01
5.531641237e-01,5.43346e-06,9.99999e-01,5.43346e-06,9.99999e-01
5.559299443e-01,6.90354e-06,9.99999e-01,6.90354e-06,9.99999e-01
5.587095940e-01,8.72997e-06,9.99999e-01,8.72997e-06,9.99999e-01
5.615031420e-01,1.09886e-05,9.99999e-01,1.09886e-05,9.99999e-01
5.643106577e-01,1.37687e-05,9.99999e-01,1.37687e-05,9.99999e-01
5.671322110e-01,1.71756e-05,9.99999e-01,1.71756e-05,9.99999e-01
5.699678720e-01,2.13322e-05,9.99999e-01,2.13322e-05,9.99999e-01
5.728177114e-01,2.63814e-05,9.99999e-01,2.63814e-05,9.99999e-01
5.756818000e-01,3.24892e-05,9.99999e-01,3.24892e-05,9.99999e-01
5.785602090e-01,3.98468e-05,9.99999e-01,3.98468e-05,9.99999e-01
5.814530100e-01,4.86739e-05,9.99999e-01,4.86739e-05,9.99999e-01
5.843602750e-01,5.92220e-05,9.99999e-01,5.92220e-05,9.99999e-01
5.872820764e-01,7.17773e-05,9.99999e-01,7.17773e-05,9.99999e-01
5.902184868e-01,8.66646e-05,9.99999e-01,8.66646e-05,9.99999e-01
5.931695792e-01,1.04251e-04,9.99999e-01,1.04251e-04,9.99999e-01
5.961354271e-01,1.24949e-04,9.99999e-01,1.24949e-04,9.99999e-01
5.991161043e-01,1.49221e-04,9.99999e-01,1.49221e-04,9.99999e-01
6.021116848e-01,1.77585e-04,9.99999e-01,1.77585e-04,9.99999e-01
6.051222432e-01,2.10616e-04,9.99999e-01,2.10616e-04,9.99999e-01
6.081478544e-01,2.48949e-04,9.99999e-01,2.48949e-04,9.99999e-01
6.111885937e-01,2.93290e-04,9.99999e-01,2.93290e-04,9.99999e-01
6.142445367e-01,3.44411e-04,9.99999e-01,3.44411e-04,9.99999e-01
6.173157594e-01,4.03160e-04,9.99999e-01,4.03160e-04,9.99999e-01
6.204023382e-01,4.70466e-04,9.99999e-01,4.70466e-04,9.99999e-01
6.235043498e-01,5.47336e-04,9.99999e-01,5.47336e-04,9.99999e-01
6.266218716e-01,6.34865e-04,9.99999e-01,6.34865e-04,9.99999e-01
6.297549810e-01,7.34237e-04,9.99999e-01,7.34237e-04,9.99999e-01
6.329037559e-01,8.46728e-04,9.99999e-01,8.46728e-04,9.99999e-01
6.360682746e-01,9.73707e-04,9.99999e-01,9.73707e-04,9.99999e-01
6.392486160e-01,1.11664e-03,9.99999e-01,1.11664e-03,9.99999e-01
6.424448591e-01,1.27710e-03,9.99999e-01,1.27710e-03,9.99999e-01
6.456570834e-01,1.45675e-03,9.99999e-01,1.45675e-03,9.99999e-01
6.488853688e-01,1.65735e-03,9.99999e-01,1.65735e-03,9.99999e-01
6.521297956e-01,1.88078e-03,9.99999e-01,1.88078e-03,9.99999e-01
6.553904446e-01,2.12901e-03,9.99999e-01,2.12901e-03,9.99999e-01
6.586673968e-01,2.40410e-03,9.99999e-01,2.40410e-03,9.99999e-01
6.619607338e-01,2.70822e-03,9.99999e-01,2.70822e-03,9.99999e-01
6.652705375e-01,3.04366e-03,9.99999e-01,3.04366e-03,9.99999e-01
6.685968902e-01,3.41275e-03,9.99999e-01,3.41275e-03,9.99999e-01
6.719398746e-01,3.81797e-03,9.99999e-01,3.81797e-03,9.99999e-01
6.752995740e-01,4.26184e-03,9.99999e-01,4.26184e-03,9.99999e-01
6.786760719e-01,4.74699e-03,9.99999e-01,4.74699e-03,9.99999e-01
6.820694522e-01,5.27612e-03,9.99999e-01,5.27612e-03,9.99999e-01
6.854797995e-01,5.85200e-03,9.99999e-01,5.85200e-03,9.99999e-01
6.889071985e-01,6.47748e-03,9.99999e-01,6.47748e-03,9.99999e-01
6.923517345e-01,7.15543e-03,9.99999e-01,7.15543e-03,9.99999e-01
6.958134932e-01,7.88882e-03,9.99999e-01,7.88882e-03,9.99999e-01
6.992925606e-01,8.68063e-03,9.99999e-01,8.68063e-03,9.99999e-01
7.027890234e-01,9.53389e-03,9.99999e-01,9.53389e-03,9.99999e-01
7.063029686e-01,1.04516e-02,9.99999e-01,1.04516e-02,9.99999e-01
7.098344834e-01,1.14370e-02,9.99999e-01,1.14370e-02,9.99999e-01
7.133836558e-01,1.24929e-02,9.99999e-01,1.24929e-02,9.99999e-01
7.169505741e-01,1.36226e-02,9.99999e-01,1.36226e-02,9.99999e-01
7.205353270e-01,1.48290e-02,9.99999e-01,1.48290e-02,9.99999e-01
7.241380036e-01,1.61153e-02,9.99999e-01,1.61153e-02,9.99999e-01
7.277586936e-01,1.74843e-02,9.99999e-01,1.74843e-02,9.99999e-01
7.313974871e-01,1.89392e-02,9.99999e-01,1.89392e-02,9.99999e-01
7.350544745e-01,2.04827e-02,9.99999e-01,2.04827e-02,9.99999e-01
7.387297469e-01,2.21178e-02,9.99999e-01,2.21178e-02,9.99999e-01
7.424233956e-01,2.38472e-02,9.99999e-01,2.38472e-02,9.99999e-01
7.461355126e-01,2.56736e-02,9.99999e-01,2.56736e-02,9.99999e-01
7.498661902e-01,2.75996e-02,9.99999e-01,2.75996e-02,9.99999e-01
7.536155211e-01,2.96278e-02,9.99999e-01,2.96278e-02,9.99999e-01
7.573835987e-01,3.17605e-02,9.99999e-01,3.17605e-02,9.99999e-01
7.611705167e-01,3.40000e-02,9.99999e-01,3.40000e-02,9.99999e-01
7.649763693e-01,3.63484e-02,9.99999e-01,3.63484e-02,9.99999e-01
7.688012511e-01,3.88078e-02,9.99999e-01,3.88078e-02,9.99999e-01
7.726452574e-01,4.13801e-02,9.99999e-01,4.13801e-02,9.99999e-01
7.765084837e-01,4.40670e-02,9.99999e-01,4.40670e-02,9.99999e-01
7.803910261e-01,4.18763e-02,8.93454e-01,4.68701e-02,9.99999e-01
7.842929812e-01,2.73830e-02,5.49962e-01,4.97907e-02,9.99999e-01
7.882144461e-01,2.82907e-02,5.35500e-01,5.28303e-02,9.99999e-01
7.921555184e-01,3.77974e-02,6.75075e-01,5.59899e-02,9.99999e-01
7.961162960e-01,4.53053e-02,7.64384e-01,5.92703e-02,9.99999e-01
8.000968774e-01,5.41649e-02,8.64252e-01,6.26725e-02,9.99999e-01
8.040973618e-01,6.13530e-02,9.26825e-01,6.61969e-02,9.99999e-01
8.081178486e-01,6.74520e-02,9.65752e-01,6.98440e-02,9.99999e-01
8.121584379e-01,7.28220e-02,9.89240e-01,7.36140e-02,9.99999e-01
8.162192301e-01,7.73220e-02,9.97613e-01,7.75069e-02,9.99999e-01
8.203003262e-01,8.15196e-02,9.99961e-01,8.15227e-02,9.99999e-01
8.244018279e-01,8.56611e-02,9.99999e-01,8.56611e-02,9.99999e-01
8.285238370e-01,8.99216e-02,9.99999e-01,8.99216e-02,9.99999e-01
8.326664562e-01,9.43035e-02,9.99999e-01,9.43035e-02,9.99999e-01
8.368297885e-01,9.88060e-02,9.99999e-01,9.88060e-02,9.99999e-01
8.410139374e-01,1.03428e-01,9.99999e-01,1.03428e-01,9.99999e-01
8.452190071e-01,1.08169e-01,9.99999e-01,1.08169e-01,9.99999e-01
8.494451021e-01,1.13027e-01,9.99999e-01,1.13027e-01,9.99999e-01
8.536923276e-01,1.18000e-01,9.99999e-01,1.18000e-01,9.99999e-01
8.579607893e-01,1.23088e-01,9.99999e-01,1.23088e-01,9.99999e-01
8.622505932e-01,1.28288e-01,9.99999e-01,1.28288e-01,9.99999e-01
8.665618462e-01,1.14093e-01,8.54000e-01,1.33599e-01,9.99999e-01
8.708946554e-01,3.27414e-02,2.35520e-01,1.39017e-01,9.99999e-01
8.752491287e-01,4.23051e-02,2.92683e-01,1.44543e-01,9.99999e-01
8.796253743e-01,7.48063e-02,4.98138e-01,1.50172e-01,9.99999e-01
8.840235012e-01,1.07560e-01,6.89921e-01,1.55902e-01,9.99999e-01
8.884436187e-01,1.39455e-01,8.62258e-01,1.61732e-01,9.99999e-01
8.928858368e-01,1.57864e-01,9.41583e-01,1.67658e-01,9.99999e-01
8.973502660e-01,1.71146e-01,9.85422e-01,1.73677e-01,9.99999e-01
9.018370173e-01,1.79497e-01,9.98380e-01,1.79788e-01,9.99999e-01
9.063462024e-01,1.78763e-01,9.61164e-01,1.85986e-01,9.99999e-01
9.108779334e-01,1.74920e-01,9.09764e-01,1.92269e-01,9.99999e-01
9.154323231e-01,1.94244e-01,9.77898e-01,1.98634e-01,9.99999e-01
9.200094847e-01,1.57924e-01,7.70065e-01,2.05078e-01,9.99999e-01
9.246095321e-01,1.33816e-01,6.32406e-01,2.11598e-01,9.99999e-01
9.292325798e-01,1.54069e-01,7.06123e-01,2.18189e-01,9.99999e-01
9.338787427e-01,1.59417e-01,7.08993e-01,2.24850e-01,9.99999e-01
9.385481364e-01,1.79311e-01,7.74304e-01,2.31577e-01,9.99999e-01
9.432408771e-01,2.03476e-01,8.53629e-01,2.38366e-01,9.99999e-01
9.479570815e-01,2.26092e-01,9.22018e-01,2.45214e-01,9.99999e-01
9.526968669e-01,2.42441e-01,9.61620e-01,2.52117e-01,9.99999e-01
9.574603512e-01,2.54766e-01,9.83373e-01,2.59073e-01,9.99999e-01
9.622476530e-01,2.64689e-01,9.94778e-01,2.66078e-01,9.99999e-01
9.670588912e-01,2.72700e-01,9.98430e-01,2.73128e-01,9.99999e-01
9.718941857e-01,2.80189e-01,9.99887e-01,2.80220e-01,9.99999e-01
9.767536566e-01,2.87351e-01,9.99999e-01,2.87351e-01,9.99999e-01
9.816374249e-01,2.94517e-01,9.99999e-01,2.94517e-01,9.99999e-01
9.865456120e-01,3.01715e-01,9.99999e-01,3.01715e-01,9.99999e-01
9.914783401e-01,3.08942e-01,9.99999e-01,3.08942e-01,9.99999e-01
9.964357318e-01,3.16193e-01,9.99999e-01,3.16193e-01,9.99999e-01
1.001417910e+00,3.23467e-01,9.99999e-01,3.23467e-01,9.99999e-01
1.006425000e+00,3.30759e-01,9.99999e-01,3.30759e-01,9.99999e-01
1.011457125e+00,3.38067e-01,9.99999e-01,3.38067e-01,9.99999e-01
1.016514411e+00,3.45387e-01,9.99999e-01,3.45387e-01,9.99999e-01
1.021596983e+00,3.52645e-01,9.99796e-01,3.52716e-01,9.99999e-01
1.026704968e+00,3.54434e-01,9.84396e-01,3.60052e-01,9.99999e-01
1.031838492e+00,3.25995e-01,8.87325e-01,3.67390e-01,9.99999e-01
1.036997685e+00,1.32724e-02,3.54186e-02,3.74729e-01,9.99999e-01
1.042182673e+00,3.05187e-04,7.98781e-04,3.82065e-01,9.99999e-01
1.047393587e+00,9.10991e-04,2.33949e-03,3.89396e-01,9.99999e-01
1.052630555e+00,7.94894e-09,2.00367e-08,3.96718e-01,9.99999e-01
1.057893707e+00,2.94366e-08,7.28574e-08,4.04030e-01,9.99999e-01
1.063183176e+00,2.57831e-06,6.26825e-06,4.11327e-01,9.99999e-01
1.068499092e+00,4.22242e-05,1.00868e-04,4.18609e-01,9.99999e-01
1.073841587e+00,1.05012e-03,2.46581e-03,4.25871e-01,9.99999e-01
1.079210795e+00,1.02419e-02,2.36471e-02,4.33113e-01,9.99999e-01
1.084606849e+00,5.09507e-02,1.15710e-01,4.40331e-01,9.99999e-01
1.090029883e+00,1.44018e-01,3.21811e-01,4.47523e-01,9.99999e-01
1.095480033e+00,2.59039e-01,5.69708e-01,4.54687e-01,9.99999e-01
1.100957433e+00,3.51378e-01,7.60853e-01,4.61821e-01,9.99999e-01
1.106462220e+00,4.18647e-01,8.92783e-01,4.68923e-01,9.99999e-01
1.111994531e+00,4.56357e-01,9.58752e-01,4.75990e-01,9.99999e-01
1.117554504e+00,4.78066e-01,9.89741e-01,4.83021e-01,9.99999e-01
1.123142276e+00,4.89681e-01,9.99320e-01,4.90014e-01,9.99999e-01
1.128757988e+00,4.96967e-01,9.99999e-01,4.96967e-01,9.99999e-01
1.134401778e+00,5.03879e-01,9.99999e-01,5.03879e-01,9.99999e-01
1.140073787e+00,5.10747e-01,9.99999e-01,5.10747e-01,9.99999e-01
1.145774156e+00,5.17570e-01,9.99999e-01,5.17570e-01,9.99999e-01
1.151503026e+00,5.24347e-01,9.99999e-01,5.24347e-01,9.99999e-01
1.157260541e+00,5.31077e-01,9.99999e-01,5.31077e-01,9.99999e-01
1.163046844e+00,5.37757e-01,9.99999e-01,5.37757e-01,9.99999e-01
1.168862078e+00,5.44387e-01,9.99999e-01,5.44387e-01,9.99999e-01
1.174706389e+00,5.50965e-01,9.99999e-01,5.50965e-01,9.99999e-01
1.180579921e+00,5.57491e-01,9.99999e-01,5.57491e-01,9.99999e-01
1.186482820e+00,5.63949e-01,9.99975e-01,5.63962e-01,9.99999e-01
1.192415234e+00,5.40828e-01,9.48190e-01,5.70379e-01,9.99999e-01
1.198377311e+00,2.86986e-01,4.97600e-01,5.76740e-01,9.99999e-01
1.204369197e+00,1.11021e-40,1.90417e-40,5.83044e-01,9.99999e-01
1.210391043e+00,2.24974e-167,3.81771e-167,5.89290e-01,9.99999e-01
1.216442998e+00,1.01834e-144,1.71012e-144,5.95478e-01,9.99999e-01
1.222525213e+00,1.55766e-142,2.58916e-142,6.01607e-01,9.99999e-01
1.228637839e+00,8.97415e-110,1.47680e-109,6.07675e-01,9.99999e-01
1.234781029e+00,5.95029e-68,9.69600e-68,6.13684e-01,9.99999e-01
1.240954934e+00,7.47490e-45,1.20635e-44,6.19631e-01,9.99999e-01
1.247159708e+00,3.98027e-21,6.36316e-21,6.25517e-01,9.99999e-01
1.253395507e+00,2.07263e-14,3.28290e-14,6.31341e-01,9.99999e-01
1.259662485e+00,2.08618e-08,3.27447e-08,6.37102e-01,9.99999e-01
1.265960797e+00,5.72933e-05,8.91306e-05,6.42801e-01,9.99999e-01
1.272290601e+00,5.26026e-03,8.11221e-03,6.48437e-01,9.99999e-01
1.278652054e+00,7.19996e-03,1.10089e-02,6.54009e-01,9.99999e-01
1.285045314e+00,1.77679e-06,2.69407e-06,6.59517e-01,9.99999e-01
1.291470541e+00,3.16235e-19,4.75569e-19,6.64962e-01,9.99999e-01
1.297927893e+00,6.47435e-08,9.65825e-08,6.70343e-01,9.99999e-01
1.304417533e+00,1.58710e-04,2.34897e-04,6.75660e-01,9.99999e-01
1.310939621e+00,4.67719e-05,6.86899e-05,6.80913e-01,9.99999e-01
1.317494319e+00,2.30739e-56,3.36303e-56,6.86101e-01,9.99999e-01
1.324081790e+00,1.09448e-36,1.58339e-36,6.91226e-01,9.99999e-01
1.330702199e+00,7.86157e-22,1.12907e-21,6.96287e-01,9.99999e-01
1.337355710e+00,9.15262e-20,1.30512e-19,7.01283e-01,9.99999e-01
1.344042489e+00,5.71154e-20,8.08752e-20,7.06216e-01,9.99999e-01
1.350762701e+00,3.57660e-22,5.02978e-22,7.11084e-01,9.99999e-01
1.357516515e+00,3.51153e-13,4.90512e-13,7.15890e-01,9.99999e-01
1.364304097e+00,8.46431e-10,1.17457e-09,7.20631e-01,9.99999e-01
1.371125618e+00,2.11182e-05,2.91161e-05,7.25310e-01,9.99999e-01
1.377981246e+00,8.09025e-05,1.10837e-04,7.29926e-01,9.99999e-01
1.384871152e+00,3.52664e-03,4.80155e-03,7.34479e-01,9.99999e-01
1.391795508e+00,5.52787e-03,7.48050e-03,7.38969e-01,9.99999e-01
1.398754485e+00,3.24696e-02,4.36772e-02,7.43398e-01,9.99999e-01
1.405748258e+00,7.74184e-02,1.03533e-01,7.47765e-01,9.99999e-01
1.412776999e+00,1.76237e-01,2.34335e-01,7.52071e-01,9.99999e-01
1.419840884e+00,1.77529e-01,2.34728e-01,7.56315e-01,9.99999e-01
1.426940089e+00,5.13423e-03,6.75112e-03,7.60499e-01,9.99999e-01
1.434074789e+00,0.00000e+00,0.00000e+00,7.64623e-01,9.99999e-01
1.441245163e+00,0.00000e+00,0.00000e+00,7.68687e-01,9.99999e-01
1.448451389e+00,0.00000e+00,0.00000e+00,7.72692e-01,9.99999e-01
1.455693646e+00,0.00000e+00,0.00000e+00,7.76637e-01,9.99999e-01
1.462972114e+00,0.00000e+00,0.00000e+00,7.80525e-01,9.99999e-01
1.470286975e+00,5.28910e-278,6.74324e-278,7.84355e-01,9.99999e-01
1.477638409e+00,4.74848e-174,6.02502e-174,7.88127e-01,9.99999e-01
1.485026601e+00,4.00248e-96,5.05464e-96,7.91842e-01,9.99999e-01
1.492451734e+00,9.62896e-82,1.21043e-81,7.95501e-01,9.99999e-01
1.499913993e+00,1.93662e-34,2.42349e-34,7.99104e-01,9.99999e-01
1.507413563e+00,3.74245e-33,4.66260e-33,8.02652e-01,9.99999e-01
1.514950631e+00,7.08288e-35,8.78611e-35,8.06144e-01,9.99999e-01
1.522525384e+00,3.38451e-123,4.18056e-123,8.09583e-01,9.99999e-01
1.530138011e+00,7.59951e-297,9.34785e-297,8.12968e-01,9.99999e-01
1.537788701e+00,4.30598e-219,5.27499e-219,8.16300e-01,9.99999e-01
1.545477645e+00,8.71535e-45,1.06339e-44,8.19579e-01,9.99999e-01
1.553205033e+00,7.84406e-33,9.53329e-33,8.22807e-01,9.99999e-01
1.560971058e+00,7.07301e-33,8.56314e-33,8.25982e-01,9.99999e-01
1.568775913e+00,0.00000e+00,0.00000e+00,8.29107e-01,9.99999e-01
1.576619793e+00,0.00000e+00,0.00000e+00,8.32182e-01,9.99999e-01
1.584502892e+00,0.00000e+00,0.00000e+00,8.35207e-01,9.99999e-01
1.592425406e+00,0.00000e+00,0.00000e+00,8.38183e-01,9.99999e-01
1.600387533e+00,0.00000e+00,0.00000e+00,8.41111e-01,9.99999e-01
1.608389471e+00,0.00000e+00,0.00000e+00,8.43991e-01,9.99999e-01
1.616431418e+00,0.00000e+00,0.00000e+00,8.46823e-01,9.99999e-01
1.624513575e+00,0.00000e+00,0.00000e+00,8.49609e-01,9.99999e-01
1.632636143e+00,0.00000e+00,0.00000e+00,8.52348e-01,9.99999e-01
1.640799324e+00,1.98971e-257,2.32702e-257,8.55042e-01,9.99999e-01
1.649003321e+00,1.99421e-257,2.32509e-257,8.57691e-01,9.99999e-01
1.657248337e+00,1.62938e-198,1.89397e-198,8.60296e-01,9.99999e-01
1.665534579e+00,7.43521e-200,8.61696e-200,8.62857e-01,9.99999e-01
1.673862252e+00,9.61542e-127,1.11113e-126,8.65374e-01,9.99999e-01
1.682231563e+00,3.56321e-87,4.10579e-87,8.67849e-01,9.99999e-01
1.690642721e+00,1.38151e-47,1.58742e-47,8.70282e-01,9.99999e-01
1.699095934e+00,5.71443e-30,6.54818e-30,8.72674e-01,9.99999e-01
1.707591414e+00,1.09114e-14,1.24698e-14,8.75025e-01,9.99999e-01
1.716129371e+00,5.42154e-09,6.17955e-09,8.77335e-01,9.99999e-01
1.724710018e+00,1.45442e-05,1.65348e-05,8.79606e-01,9.99999e-01
1.733333568e+00,4.91810e-04,5.57710e-04,8.81838e-01,9.99999e-01
1.742000236e+00,1.12960e-02,1.27779e-02,8.84031e-01,9.99999e-01
1.750710237e+00,7.66473e-06,8.64912e-06,8.86186e-01,9.99999e-01
1.759463788e+00,5.98187e-121,6.73404e-121,8.88303e-01,9.99999e-01
1.768261107e+00,1.20301e-126,1.35111e-126,8.90384e-01,9.99999e-01
1.777102413e+00,1.60163e-123,1.79469e-123,8.92428e-01,9.99999e-01
1.785987925e+00,2.19606e-115,2.45524e-115,8.94437e-01,9.99999e-01
1.794917864e+00,4.10396e-110,4.57821e-110,8.96410e-01,9.99999e-01
1.803892454e+00,9.75277e-106,1.08563e-105,8.98348e-01,9.99999e-01
1.812911916e+00,1.47681e-101,1.64044e-101,9.00252e-01,9.99999e-01
1.821976476e+00,1.21908e-101,1.35135e-101,9.02123e-01,9.99999e-01
1.831086358e+00,3.15118e-81,3.48597e-81,9.03960e-01,9.99999e-01
1.840241790e+00,5.13455e-69,5.66874e-69,9.05765e-01,9.99999e-01
1.849442999e+00,9.25540e-48,1.01984e-47,9.07537e-01,9.99999e-01
1.858690214e+00,4.80685e-45,5.28645e-45,9.09278e-01,9.99999e-01
1.867983665e+00,1.52376e-45,1.67265e-45,9.10988e-01,9.99999e-01
1.877323583e+00,6.03676e-233,6.61441e-233,9.12667e-01,9.99999e-01
