#,Wave/freq,Total,CO2,Rayleigh,CIA
4.000000000e-01,4.83545e-07,9.99999e-01,4.83545e-07,9.99999e-01
4.020000000e-01,6.44628e-07,9.99999e-01,6.44628e-07,9.99999e-01
4.040100000e-01,8.54262e-07,9.99999e-01,8.54262e-07,9.99999e-01
4.060300500e-01,1.12579e-06,9.99999e-01,1.12579e-06,9.99999e-01
4.080602003e-01,1.47556e-06,9.99999e-01,1.47556e-06,9.99999e-01
4.101005013e-01,1.92368e-06,9.99999e-01,1.92368e-06,9.99999e-01
4.121510038e-01,2.49480e-06,9.99999e-01,2.49480e-06,9.99999e-01
4.142117588e-01,3.21890e-06,9.99999e-01,3.21890e-06,9.99999e-01
4.162828176e-01,4.13232e-06,9.99999e-01,4.13232e-06,9.99999e-01
4.183642317e-01,5.27883e-06,9.99999e-01,5.27883e-06,9.99999e-01
4.204560528e-01,6.71090e-06,9.99999e-01,6.71090e-06,9.99999e-01
4.225583331e-01,8.49111e-06,9.99999e-01,8.49111e-06,9.99999e-01
4.246711247e-01,1.06938e-05,9.99999e-01,1.06938e-05,9.99999e-01
4.267944804e-01,1.34066e-05,9.99999e-01,1.34066e-05,9.99999e-01
4.289284528e-01,1.67327e-05,9.99999e-01,1.67327e-05,9.99999e-01
4.310730950e-01,2.07927e-05,9.99999e-01,2.07927e-05,9.99999e-01
4.332284605e-01,2.57273e-05,9.99999e-01,2.57273e-05,9.99999e-01
4.353946028e-01,3.16993e-05,9.99999e-01,3.16993e-05,9.99999e-01
4.375715758e-01,3.88969e-05,9.99999e-01,3.88969e-05,9.99999e-01
4.397594337e-01,4.75363e-05,9.99999e-01,4.75363e-05,9.99999e-01
4.419582309e-01,5.78649e-05,9.99999e-01,5.78649e-05,9.99999e-01
4.441680220e-01,7.01646e-05,9.99999e-01,7.01646e-05,9.99999e-01
4.463888621e-01,8.47554e-05,9.99999e-01,8.47554e-05,9.99999e-01
4.486208064e-01,1.01999e-04,9.99999e-01,1.01999e-04,9.99999e-01
4.508639105e-01,1.22303e-04,9.99999e-01,1.22303e-04,9.99999e-01
4.531182300e-01,1.46123e-04,9.99999e-01,1.46123e-04,9.99999e-01
4.553838212e-01,1.73970e-04,9.99999e-01,1.73970e-04,9.99999e-01
4.576607403e-01,2.06412e-04,9.99999e-01,2.06412e-04,9.99999e-01
4.599490440e-01,2.44078e-04,9.99999e-01,2.44078e-04,9.99999e-01
4.622487892e-01,2.87663e-04,9.99999e-01,2.87663e-04,9.99999e-01
4.645600332e-01,3.37932e-04,9.99999e-01,3.37932e-04,9.99999e-01
4.668828333e-01,3.95725e-04,9.99999e-01,3.95725e-04,9.99999e-01
4.692172475e-01,4.61959e-04,9.99999e-01,4.61959e-04,9.99999e-01
4.715633337e-01,5.37633e-04,9.99999e-01,5.37633e-04,9.99999e-01
4.739211504e-01,6.23831e-04,9.99999e-01,6.23831e-04,9.99999e-01
4.762907561e-01,7.21726e-04,9.99999e-01,7.21726e-04,9.99999e-01
4.786722099e-01,8.32582e-04,9.99999e-01,8.32582e-04,9.99999e-01
4.810655710e-01,9.57759e-04,9.99999e-01,9.57759e-04,9.99999e-01
4.834708988e-01,1.09871e-03,9.99999e-01,1.09871e-03,9.99999e-01
4.858882533e-01,1.25700e-03,9.99999e-01,1.25700e-03,9.99999e-01
4.883176946e-01,1.43426e-03,9.99999e-01,1.43426e-03,9.99999e-01
4.907592831e-01,1.63227e-03,9.99999e-01,1.63227e-03,9.99999e-01
4.932130795e-01,1.85288e-03,9.99999e-01,1.85288e-03,9.99999e-01
4.956791449e-01,2.09804e-03,9.99999e-01,2.09804e-03,9.99999e-01
4.981575406e-01,2.36982e-03,9.99999e-01,2.36982e-03,9.99999e-01
5.006483283e-01,2.67036e-03,9.99999e-01,2.67036e-03,9.99999e-01
5.031515699e-01,3.00194e-03,9.99999e-01,3.00194e-03,9.99999e-01
5.056673278e-01,3.36690e-03,9.99999e-01,3.36690e-03,9.99999e-01
5.081956644e-01,3.76767e-03,9.99999e-01,3.76767e-03,9.99999e-01
5.107366428e-01,4.20680e-03,9.99999e-01,4.20680e-03,9.99999e-01
5.132903260e-01,4.68689e-03,9.99999e-01,4.68689e-03,9.99999e-01
5.158567776e-01,5.21063e-03,9.99999e-01,5.21063e-03,9.99999e-01
5.184360615e-01,5.78079e-03,9.99999e-01,5.78079e-03,9.99999e-01
5.210282418e-01,6.40020e-03,9.99999e-01,6.40020e-03,9.99999e-01
5.236333830e-01,7.07175e-03,9.99999e-01,7.07175e-03,9.99999e-01
5.262515499e-01,7.79837e-03,9.99999e-01,7.79837e-03,9.99999e-01
5.288828077e-01,8.58306e-03,9.99999e-01,8.58306e-03,9.99999e-01
5.315272217e-01,9.42883e-03,9.99999e-01,9.42883e-03,9.99999e-01
5.341848578e-01,1.03387e-02,9.99999e-01,1.03387e-02,9.99999e-01
5.368557821e-01,1.13158e-02,9.99999e-01,1.13158e-02,9.99999e-01
5.395400610e-01,1.23632e-02,9.99999e-01,1.23632e-02,9.99999e-01
5.422377613e-01,1.34839e-02,9.99999e-01,1.34839e-02,9.99999e-01
5.449489501e-01,1.46810e-02,9.99999e-01,1.46810e-02,9.99999e-01
5.476736949e-01,1.59576e-02,9.99999e-01,1.59576e-02,9.99999e-01
5.504120634e-01,1.73166e-02,9.99999e-01,1.73166e-02,9.99999e-01
5.531641237e-01,1.87611e-02,9.99999e-01,1.87611e-02,9.99999e-01
5.559299443e-01,2.02939e-02,9.99999e-01,2.02939e-02,9.99999e-01
5.587095940e-01,2.19179e-02,9.99999e-01,2.19179e-02,9.99999e-01
5.615031420e-01,2.36359e-02,9.99999e-01,2.36359e-02,9.99999e-01
5.643106577e-01,2.54506e-02,9.99999e-01,2.54506e-02,9.99999e-01
5.671322110e-01,2.73647e-02,9.99999e-01,2.73647e-02,9.99999e-01
5.699678720e-01,2.93805e-02,9.99999e-01,2.93805e-02,9.99999e-01
5.728177114e-01,3.15006e-02,9.99999e-01,3.15006e-02,9.99999e-01
5.756818000e-01,3.37273e-02,9.99999e-01,3.37273e-02,9.99999e-01
5.785602090e-01,3.60626e-02,9.99999e-01,3.60626e-02,9.99999e-01
5.814530100e-01,3.85087e-02,9.99999e-01,3.85087e-02,9.99999e-01
5.843602750e-01,4.10674e-02,9.99999e-01,4.10674e-02,9.99999e-01
5.872820764e-01,4.37406e-02,9.99999e-01,4.37406e-02,9.99999e-01
5.902184868e-01,4.65297e-02,9.99999e-01,4.65297e-02,9.99999e-01
5.931695792e-01,4.94363e-02,9.99999e-01,4.94363e-02,9.99999e-01
5.961354271e-01,5.24616e-02,9.99999e-01,5.24616e-02,9.99999e-01
5.991161043e-01,5.56068e-02,9.99999e-01,5.56068e-02,9.99999e-01
6.021116848e-01,5.88728e-02,9.99999e-01,5.88728e-02,9.99999e-01
6.051222432e-01,6.22604e-02,9.99999e-01,6.22604e-02,9.99999e-01
6.081478544e-01,6.57702e-02,9.99999e-01,6.57702e-02,9.99999e-01
6.111885937e-01,6.94027e-02,9.99999e-01,6.94027e-02,9.99999e-01
6.142445367e-01,7.31580e-02,9.99999e-01,7.31580e-02,9.99999e-01
6.173157594e-01,7.70363e-02,9.99999e-01,7.70363e-02,9.99999e-01
6.204023382e-01,8.10375e-02,9.99999e-01,8.10375e-02,9.99999e-01
6.235043498e-01,8.51613e-02,9.99999e-01,8.51613e-02,9.99999e-01
6.266218716e-01,8.94072e-02,9.99999e-01,8.94072e-02,9.99999e-01
6.297549810e-01,9.37746e-02,9.99999e-01,9.37746e-02,9.99999e-01
6.329037559e-01,9.82628e-02,9.99999e-01,9.82628e-02,9.99999e-01
6.360682746e-01,1.02871e-01,9.99999e-01,1.02871e-01,9.99999e-01
6.392486160e-01,1.07597e-01,9.99999e-01,1.07597e-01,9.99999e-01
6.424448591e-01,1.12441e-01,9.99999e-01,1.12441e-01,9.99999e-01
6.456570834e-01,1.17401e-01,9.99999e-01,1.17401e-01,9.99999e-01
6.488853688e-01,1.22475e-01,9.99999e-01,1.22475e-01,9.99999e-01
6.521297956e-01,1.27662e-01,9.99999e-01,1.27662e-01,9.99999e-01
6.553904446e-01,1.32960e-01,9.99999e-01,1.32960e-01,9.99999e-01
6.586673968e-01,1.38366e-01,9.99999e-01,1.38366e-01,9.99999e-01
6.619607338e-01,1.43878e-01,9.99999e-01,1.43878e-01,9.99999e-01
6.652705375e-01,1.49495e-01,9.99999e-01,1.49495e-01,9.99999e-01
6.685968902e-01,1.55214e-01,9.99999e-01,1.55214e-01,9.99999e-01
6.719398746e-01,1.61032e-01,9.99999e-01,1.61032e-01,9.99999e-01
6.752995740e-01,1.66946e-01,9.99999e-01,1.66946e-01,9.99999e-01
6.786760719e-01,1.72955e-01,9.99999e-01,1.72955e-01,9.99999e-01
6.820694522e-01,1.79055e-01,9.99999e-01,1.79055e-01,9.99999e-01
6.854797995e-01,1.85243e-01,9.99999e-01,1.85243e-01,9.99999e-01
6.889071985e-01,1.91516e-01,9.99999e-01,1.91516e-01,9.99999e-01
6.923517345e-01,1.97871e-01,9.99999e-01,1.97871e-01,9.99999e-01
6.958134932e-01,2.04306e-01,9.99999e-01,2.04306e-01,9.99999e-01
6.992925606e-01,2.10817e-01,9.99999e-01,2.10817e-01,9.99999e-01
7.027890234e-01,2.17400e-01,9.99999e-01,2.17400e-01,9.99999e-01
7.063029686e-01,2.24053e-01,9.99999e-01,2.24053e-01,9.99999e-01
7.098344834e-01,2.30772e-01,9.99999e-01,2.30772e-01,9.99999e-01
7.133836558e-01,2.37553e-01,9.99999e-01,2.37553e-01,9.99999e-01
7.169505741e-01,2.44394e-01,9.99999e-01,2.44394e-01,9.99999e-01
7.205353270e-01,2.51292e-01,9.99999e-01,2.51292e-01,9.99999e-01
7.241380036e-01,2.58241e-01,9.99999e-01,2.58241e-01,9.99999e-01
7.277586936e-01,2.65240e-01,9.99999e-01,2.65240e-01,9.99999e-01
7.313974871e-01,2.72285e-01,9.99999e-01,2.72285e-01,9.99999e-01
7.350544745e-01,2.79373e-01,9.99999e-01,2.79373e-01,9.99999e-01
7.387297469e-01,2.86499e-01,9.99999e-01,2.86499e-01,9.99999e-01
7.424233956e-01,2.93661e-01,9.99999e-01,2.93661e-01,9.99999e-01
7.461355126e-01,3.00855e-01,9.99999e-01,3.00855e-01,9.99999e-01
7.498661902e-01,3.08079e-01,9.99999e-01,3.08079e-01,9.99999e-01
7.536155211e-01,3.15327e-01,9.99999e-01,3.15327e-01,9.99999e-01
7.573835987e-01,3.22598e-01,9.99999e-01,3.22598e-01,9.99999e-01
7.611705167e-01,3.29889e-01,9.99999e-01,3.29889e-01,9.99999e-01
7.649763693e-01,3.37195e-01,9.99999e-01,3.37195e-01,9.99999e-01
7.688012511e-01,3.44514e-01,9.99999e-01,3.44514e-01,9.99999e-01
7.726452574e-01,3.51842e-01,9.99999e-01,3.51842e-01,9.99999e-01
7.765084837e-01,3.59177e-01,9.99999e-01,3.59177e-01,9.99999e-01
7.803910261e-01,3.48938e-01,9.52042e-01,3.66515e-01,9.99999e-01
7.842929812e-01,3.03649e-01,8.12211e-01,3.73854e-01,9.99999e-01
7.882144461e-01,3.04622e-01,7.99132e-01,3.81191e-01,9.99999e-01
7.921555184e-01,3.40361e-01,8.76038e-01,3.88522e-01,9.99999e-01
7.961162960e-01,3.62556e-01,9.15901e-01,3.95846e-01,9.99999e-01
8.000968774e-01,3.84354e-01,9.53357e-01,4.03159e-01,9.99999e-01
8.040973618e-01,4.00478e-01,9.75684e-01,4.10458e-01,9.99999e-01
8.081178486e-01,4.13023e-01,9.88703e-01,4.17742e-01,9.99999e-01
8.121584379e-01,4.23540e-01,9.96549e-01,4.25007e-01,9.99999e-01
8.162192301e-01,4.31921e-01,9.99235e-01,4.32251e-01,9.99999e-01
8.203003262e-01,4.39467e-01,9.99989e-01,4.39472e-01,9.99999e-01
8.244018279e-01,4.46667e-01,9.99999e-01,4.46667e-01,9.99999e-01
8.285238370e-01,4.53835e-01,9.99999e-01,4.53835e-01,9.99999e-01
8.326664562e-01,4.60972e-01,9.99999e-01,4.60972e-01,9.99999e-01
8.368297885e-01,4.68078e-01,9.99999e-01,4.68078e-01,9.99999e-01
8.410139374e-01,4.75149e-01,9.99999e-01,4.75149e-01,9.99999e-01
8.452190071e-01,4.82185e-01,9.99999e-01,4.82185e-01,9.99999e-01
8.494451021e-01,4.89182e-01,9.99999e-01,4.89182e-01,9.99999e-01
8.536923276e-01,4.96140e-01,9.99999e-01,4.96140e-01,9.99999e-01
8.579607893e-01,5.03057e-01,9.99999e-01,5.03057e-01,9.99999e-01
8.622505932e-01,5.09930e-01,9.99999e-01,5.09930e-01,9.99999e-01
8.665618462e-01,4.67834e-01,9.05322e-01,5.16759e-01,9.99999e-01
8.708946554e-01,3.08771e-01,5.89772e-01,5.23542e-01,9.99999e-01
8.752491287e-01,3.46254e-01,6.52968e-01,5.30277e-01,9.99999e-01
8.796253743e-01,4.24393e-01,7.90358e-01,5.36963e-01,9.99999e-01
8.840235012e-01,4.80948e-01,8.84747e-01,5.43599e-01,9.99999e-01
8.884436187e-01,5.24357e-01,9.53057e-01,5.50184e-01,9.99999e-01
8.928858368e-01,5.45957e-01,9.80674e-01,5.56715e-01,9.99999e-01
8.973502660e-01,5.60550e-01,9.95306e-01,5.63194e-01,9.99999e-01
9.018370173e-01,5.69323e-01,9.99484e-01,5.69617e-01,9.99999e-01
9.063462024e-01,5.68051e-01,9.86226e-01,5.75984e-01,9.99999e-01
9.108779334e-01,5.64578e-01,9.69572e-01,5.82295e-01,9.99999e-01
9.154323231e-01,5.84363e-01,9.92887e-01,5.88548e-01,9.99999e-01
9.200094847e-01,5.35323e-01,9.00089e-01,5.94743e-01,9.99999e-01
9.246095321e-01,5.16503e-01,8.59578e-01,6.00879e-01,9.99999e-01
9.292325798e-01,5.38393e-01,8.87039e-01,6.06955e-01,9.99999e-01
9.338787427e-01,5.46629e-01,8.91770e-01,6.12971e-01,9.99999e-01
9.385481364e-01,5.68847e-01,9.19088e-01,6.18925e-01,9.99999e-01
9.432408771e-01,5.93436e-01,9.49772e-01,6.24819e-01,9.99999e-01
9.479570815e-01,6.14151e-01,9.73838e-01,6.30650e-01,9.99999e-01
9.526968669e-01,6.28362e-01,9.87340e-01,6.36419e-01,9.99999e-01
9.574603512e-01,6.38641e-01,9.94573e-01,6.42125e-01,9.99999e-01
9.622476530e-01,6.46672e-01,9.98308e-01,6.47768e-01,9.99999e-01
9.670588912e-01,6.53017e-01,9.99493e-01,6.53348e-01,9.99999e-01
9.718941857e-01,6.58841e-01,9.99964e-01,6.58864e-01,9.99999e-01
9.767536566e-01,6.64316e-01,9.99999e-01,6.64316e-01,9.99999e-01
9.816374249e-01,6.69705e-01,9.99999e-01,6.69705e-01,9.99999e-01
9.865456120e-01,6.75029e-01,9.99999e-01,6.75029e-01,9.99999e-01
9.914783401e-01,6.80290e-01,9.99999e-01,6.80290e-01,9.99999e-01
9.964357318e-01,6.85486e-01,9.99999e-01,6.85486e-01,9.99999e-01
1.001417910e+00,6.90618e-01,9.99999e-01,6.90618e-01,9.99999e-01
1.006425000e+00,6.95686e-01,9.99999e-01,6.95686e-01,9.99999e-01
1.011457125e+00,7.00691e-01,9.99999e-01,7.00691e-01,9.99999e-01
1.016514411e+00,7.05631e-01,9.99999e-01,7.05631e-01,9.99999e-01
1.021596983e+00,7.10446e-01,9.99913e-01,7.10507e-01,9.99999e-01
1.026704968e+00,7.11432e-01,9.94564e-01,7.15320e-01,9.99999e-01
1.031838492e+00,6.76292e-01,9.39203e-01,7.20069e-01,9.99999e-01
1.036997685e+00,7.91156e-02,1.09162e-01,7.24756e-01,9.99999e-01
1.042182673e+00,4.13434e-02,5.66830e-02,7.29379e-01,9.99999e-01
1.047393587e+00,5.78421e-02,7.88104e-02,7.33939e-01,9.99999e-01
1.052630555e+00,5.02456e-04,6.80431e-04,7.38437e-01,9.99999e-01
1.057893707e+00,1.55802e-03,2.09728e-03,7.42873e-01,9.99999e-01
1.063183176e+00,7.63156e-03,1.02129e-02,7.47248e-01,9.99999e-01
1.068499092e+00,2.85738e-02,3.80193e-02,7.51560e-01,9.99999e-01
1.073841587e+00,9.57394e-02,1.26671e-01,7.55812e-01,9.99999e-01
1.079210795e+00,2.05361e-01,2.70210e-01,7.60003e-01,9.99999e-01
1.084606849e+00,3.70642e-01,4.85048e-01,7.64134e-01,9.99999e-01
1.090029883e+00,5.26934e-01,6.85928e-01,7.68205e-01,9.99999e-01
1.095480033e+00,6.41477e-01,8.30695e-01,7.72217e-01,9.99999e-01
1.100957433e+00,7.09699e-01,9.14359e-01,7.76170e-01,9.99999e-01
1.106462220e+00,7.51769e-01,9.63726e-01,7.80064e-01,9.99999e-01
1.111994531e+00,7.73235e-01,9.86393e-01,7.83901e-01,9.99999e-01
1.117554504e+00,7.85070e-01,9.96685e-01,7.87680e-01,9.99999e-01
1.123142276e+00,7.91231e-01,9.99783e-01,7.91402e-01,9.99999e-01
1.128757988e+00,7.95067e-01,9.99999e-01,7.95068e-01,9.99999e-01
1.134401778e+00,7.98677e-01,9.99999e-01,7.98677e-01,9.99999e-01
1.140073787e+00,8.02231e-01,9.99999e-01,8.02231e-01,9.99999e-01
1.145774156e+00,8.05731e-01,9.99999e-01,8.05731e-01,9.99999e-01
1.151503026e+00,8.09176e-01,9.99999e-01,8.09176e-01,9.99999e-01
1.157260541e+00,8.12567e-01,9.99999e-01,8.12567e-01,9.99999e-01
1.163046844e+00,8.15905e-01,9.99999e-01,8.15905e-01,9.99999e-01
1.168862078e+00,8.19191e-01,9.99999e-01,8.19191e-01,9.99999e-01
1.174706389e+00,8.22424e-01,9.99999e-01,8.22424e-01,9.99999e-01
1.180579921e+00,8.25606e-01,9.99999e-01,8.25606e-01,9.99999e-01
1.186482820e+00,8.28726e-01,9.99985e-01,8.28737e-01,9.99999e-01
1.192415234e+00,8.15781e-01,9.80719e-01,8.31818e-01,9.99999e-01
1.198377311e+00,4.59368e-01,5.50240e-01,8.34849e-01,9.99999e-01
1.204369197e+00,7.30141e-15,8.71464e-15,8.37831e-01,9.99999e-01
1.210391043e+00,1.93758e-56,2.30454e-56,8.40764e-01,9.99999e-01
1.216442998e+00,5.26460e-49,6.24027e-49,8.43650e-01,9.99999e-01
1.222525213e+00,2.74715e-48,3.24535e-48,8.46488e-01,9.99999e-01
1.228637839e+00,2.14849e-37,2.52977e-37,8.49279e-01,9.99999e-01
1.234781029e+00,8.21469e-24,9.64137e-24,8.52024e-01,9.99999e-01
1.240954934e+00,5.57838e-16,6.52652e-16,8.54723e-01,9.99999e-01
1.247159708e+00,1.93574e-08,2.25774e-08,8.57378e-01,9.99999e-01
1.253395507e+00,1.46567e-05,1.70429e-05,8.59987e-01,9.99999e-01
1.259662485e+00,1.58175e-03,1.83379e-03,8.62554e-01,9.99999e-01
1.265960797e+00,2.36914e-02,2.73865e-02,8.65076e-01,9.99999e-01
1.272290601e+00,1.81241e-01,2.08910e-01,8.67556e-01,9.99999e-01
1.278652054e+00,1.51320e-01,1.73933e-01,8.69994e-01,9.99999e-01
1.285045314e+00,1.57743e-03,1.80816e-03,8.72391e-01,9.99999e-01
1.291470541e+00,3.07977e-07,3.52075e-07,8.74747e-01,9.99999e-01
1.297927893e+00,2.41774e-03,2.75663e-03,8.77062e-01,9.99999e-01
1.304417533e+00,4.99421e-02,5.67951e-02,8.79337e-01,9.99999e-01
1.310939621e+00,7.94415e-03,9.01132e-03,8.81574e-01,9.99999e-01
1.317494319e+00,6.07751e-20,6.87678e-20,8.83771e-01,9.99999e-01
1.324081790e+00,5.47851e-10,6.18390e-10,8.85931e-01,9.99999e-01
1.330702199e+00,6.06253e-08,6.82676e-08,8.88053e-01,9.99999e-01
1.337355710e+00,2.04502e-07,2.29741e-07,8.90138e-01,9.99999e-01
1.344042489e+00,4.09848e-09,4.59375e-09,8.92186e-01,9.99999e-01
1.350762701e+00,3.60817e-08,4.03508e-08,8.94199e-01,9.99999e-01
1.357516515e+00,2.12454e-05,2.37067e-05,8.96176e-01,9.99999e-01
1.364304097e+00,6.97848e-04,7.77010e-04,8.98119e-01,9.99999e-01
1.371125618e+00,2.23880e-02,2.48747e-02,9.00027e-01,9.99999e-01
1.377981246e+00,4.09698e-02,4.54260e-02,9.01901e-01,9.99999e-01
1.384871152e+00,1.49632e-01,1.65569e-01,9.03743e-01,9.99999e-01
1.391795508e+00,1.72240e-01,1.90205e-01,9.05551e-01,9.99999e-01
1.398754485e+00,3.24009e-01,3.57103e-01,9.07328e-01,9.99999e-01
1.405748258e+00,4.27413e-01,4.70164e-01,9.09072e-01,9.99999e-01
1.412776999e+00,5.65117e-01,6.20471e-01,9.10786e-01,9.99999e-01
1.419840884e+00,5.00094e-01,5.48067e-01,9.12468e-01,9.99999e-01
1.426940089e+00,3.49701e-02,3.82554e-02,9.14121e-01,9.99999e-01
1.434074789e+00,0.00000e+00,0.00000e+00,9.15743e-01,9.99999e-01
1.441245163e+00,0.00000e+00,0.00000e+00,9.17337e-01,9.99999e-01
1.448451389e+00,0.00000e+00,0.00000e+00,9.18902e-01,9.99999e-01
1.455693646e+00,0.00000e+00,0.00000e+00,9.20438e-01,9.99999e-01
1.462972114e+00,3.31969e-222,3.60074e-222,9.21946e-01,9.99999e-01
1.470286975e+00,9.33357e-93,1.01075e-92,9.23428e-01,9.99999e-01
1.477638409e+00,1.23467e-58,1.33495e-58,9.24882e-01,9.99999e-01
1.485026601e+00,4.92341e-33,5.31508e-33,9.26309e-01,9.99999e-01
1.492451734e+00,3.74731e-28,4.03930e-28,9.27711e-01,9.99999e-01
1.499913993e+00,9.49352e-13,1.02181e-12,9.29087e-01,9.99999e-01
1.507413563e+00,1.50908e-11,1.62191e-11,9.30438e-01,9.99999e-01
1.514950631e+00,5.86913e-13,6.29894e-13,9.31764e-01,9.99999e-01
1.522525384e+00,6.07002e-42,6.50545e-42,9.33066e-01,9.99999e-01
1.530138011e+00,6.43519e-99,6.88738e-99,9.34343e-01,9.99999e-01
1.537788701e+00,2.09130e-73,2.23525e-73,9.35597e-01,9.99999e-01
1.545477645e+00,3.29115e-16,3.51307e-16,9.36828e-01,9.99999e-01
1.553205033e+00,1.32202e-11,1.40934e-11,9.38037e-01,9.99999e-01
1.560971058e+00,4.13185e-12,4.39922e-12,9.39223e-01,9.99999e-01
1.568775913e+00,2.36263e-249,2.51240e-249,9.40387e-01,9.99999e-01
1.576619793e+00,0.00000e+00,0.00000e+00,9.41529e-01,9.99999e-01
1.584502892e+00,7.48994e-319,7.94556e-319,9.42650e-01,9.99999e-01
1.592425406e+00,2.70632e-222,2.86762e-222,9.43750e-01,9.99999e-01
1.600387533e+00,0.00000e+00,0.00000e+00,9.44830e-01,9.99999e-01
1.608389471e+00,0.00000e+00,0.00000e+00,9.45890e-01,9.99999e-01
1.616431418e+00,0.00000e+00,0.00000e+00,9.46930e-01,9.99999e-01
1.624513575e+00,2.68179e-282,2.82903e-282,9.47950e-01,9.99999e-01
1.632636143e+00,9.73692e-210,1.02607e-209,9.48952e-01,9.99999e-01
1.640799324e+00,5.33467e-86,5.61582e-86,9.49934e-01,9.99999e-01
1.649003321e+00,5.34550e-86,5.62152e-86,9.50899e-01,9.99999e-01
1.657248337e+00,1.18740e-66,1.24747e-66,9.51845e-01,9.99999e-01
1.665534579e+00,4.28629e-67,4.49875e-67,9.52773e-01,9.99999e-01
1.673862252e+00,4.55968e-43,4.78111e-43,9.53684e-01,9.99999e-01
1.682231563e+00,4.24560e-30,4.44762e-30,9.54578e-01,9.99999e-01
1.690642721e+00,4.10433e-17,4.29567e-17,9.55455e-01,9.99999e-01
1.699095934e+00,4.70980e-11,4.92494e-11,9.56315e-01,9.99999e-01
1.707591414e+00,4.44084e-06,4.63960e-06,9.57159e-01,9.99999e-01
1.716129371e+00,8.75255e-04,9.13639e-04,9.57987e-01,9.99999e-01
1.724710018e+00,1.90688e-02,1.98882e-02,9.58800e-01,9.99999e-01
1.733333568e+00,7.30594e-02,7.61354e-02,9.59597e-01,9.99999e-01
1.742000236e+00,2.07919e-01,2.16497e-01,9.60379e-01,9.99999e-01
1.750710237e+00,3.04176e-03,3.16472e-03,9.61146e-01,9.99999e-01
1.759463788e+00,3.84298e-41,3.99520e-41,9.61899e-01,9.99999e-01
1.768261107e+00,4.46255e-43,4.63575e-43,9.62637e-01,9.99999e-01
1.777102413e+00,9.40766e-42,9.76545e-42,9.63361e-01,9.99999e-01
1.785987925e+00,2.31268e-39,2.39886e-39,9.64072e-01,9.99999e-01
1.794917864e+00,1.36702e-37,1.41693e-37,9.64769e-01,9.99999e-01
1.803892454e+00,3.23329e-36,3.34899e-36,9.65453e-01,9.99999e-01
1.812911916e+00,8.94691e-35,9.26062e-35,9.66123e-01,9.99999e-01
1.821976476e+00,7.22260e-35,7.47077e-35,9.66781e-01,9.99999e-01
1.831086358e+00,3.60639e-28,3.72782e-28,9.67426e-01,9.99999e-01
1.840241790e+00,5.45882e-24,5.63892e-24,9.68059e-01,9.99999e-01
1.849442999e+00,9.33076e-17,9.63244e-17,9.68680e-01,9.99999e-01
1.858690214e+00,1.22256e-15,1.26130e-15,9.69289e-01,9.99999e-01
1.867983665e+00,2.09183e-16,2.15678e-16,9.69887e-01,9.99999e-01
1.877323583e+00,5.98038e-78,6.16233e-78,9.70473e-01,9.99999e-01
