#,Wave/freq,Total,CO2,Rayleigh,CIA
4.000000000e-01,8.56181e-09,9.99999e-01,8.56181e-09,9.99999e-01
4.020000000e-01,1.23618e-08,9.99999e-01,1.23618e-08,9.99999e-01
4.040100000e-01,1.77126e-08,9.99999e-01,1.77126e-08,9.99999e-01
4.060300500e-01,2.51999e-08,9.99999e-01,2.51999e-08,9.99999e-01
4.080602003e-01,3.56033e-08,9.99999e-01,3.56033e-08,9.99999e-01
4.101005013e-01,4.99593e-08,9.99999e-01,4.99593e-08,9.99999e-01
4.121510038e-01,6.96365e-08,9.99999e-01,6.96365e-08,9.99999e-01
4.142117588e-01,9.64293e-08,9.99999e-01,9.64293e-08,9.99999e-01
4.162828176e-01,1.32675e-07,9.99999e-01,1.32675e-07,9.99999e-01
4.183642317e-01,1.81397e-07,9.99999e-01,1.81397e-07,9.99999e-01
4.204560528e-01,2.46484e-07,9.99999e-01,2.46484e-07,9.99999e-01
4.225583331e-01,3.32903e-07,9.99999e-01,3.32903e-07,9.99999e-01
4.246711247e-01,4.46959e-07,9.99999e-01,4.46959e-07,9.99999e-01
4.267944804e-01,5.96610e-07,9.99999e-01,5.96610e-07,9.99999e-01
4.289284528e-01,7.91838e-07,9.99999e-01,7.91838e-07,9.99999e-01
4.310730950e-01,1.04509e-06,9.99999e-01,1.04509e-06,9.99999e-01
4.332284605e-01,1.37180e-06,9.99999e-01,1.37180e-06,9.99999e-01
4.353946028e-01,1.79099e-06,9.99999e-01,1.79099e-06,9.99999e-01
4.375715758e-01,2.32599e-06,9.99999e-01,2.32599e-06,9.99999e-01
4.397594337e-01,3.00526e-06,9.99999e-01,3.00526e-06,9.99999e-01
4.419582309e-01,3.86329e-06,9.99999e-01,3.86329e-06,9.99999e-01
4.441680220e-01,4.94172e-06,9.99999e-01,4.94172e-06,9.99999e-01
4.463888621e-01,6.29053e-06,9.99999e-01,6.29053e-06,9.99999e-01
4.486208064e-01,7.96941e-06,9.99999e-01,7.96941e-06,9.99999e-01
4.508639105e-01,1.00493e-05,9.99999e-01,1.00493e-05,9.99999e-01
4.531182300e-01,1.26141e-05,9.99999e-01,1.26141e-05,9.99999e-01
4.553838212e-01,1.57625e-05,9.99999e-01,1.57625e-05,9.99999e-01
4.576607403e-01,1.96103e-05,9.99999e-01,1.96103e-05,9.99999e-01
4.599490440e-01,2.42924e-05,9.99999e-01,2.42924e-05,9.99999e-01
4.622487892e-01,2.99653e-05,9.99999e-01,2.99653e-05,9.99999e-01
4.645600332e-01,3.68100e-05,9.99999e-01,3.68100e-05,9.99999e-01
4.668828333e-01,4.50349e-05,9.99999e-01,4.50349e-05,9.99999e-01
4.692172475e-01,5.48786e-05,9.99999e-01,5.48786e-05,9.99999e-01
4.715633337e-01,6.66132e-05,9.99999e-01,6.66132e-05,9.99999e-01
4.739211504e-01,8.05481e-05,9.99999e-01,8.05481e-05,9.99999e-01
4.762907561e-01,9.70333e-05,9.99999e-01,9.70333e-05,9.99999e-01
4.786722099e-01,1.16463e-04,9.99999e-01,1.16463e-04,9.99999e-01
4.810655710e-01,1.39281e-04,9.99999e-01,1.39281e-04,9.99999e-01
4.834708988e-01,1.65981e-04,9.99999e-01,1.65981e-04,9.99999e-01
4.858882533e-01,1.97116e-04,9.99999e-01,1.97116e-04,9.99999e-01
4.883176946e-01,2.33298e-04,9.99999e-01,2.33298e-04,9.99999e-01
4.907592831e-01,2.75203e-04,9.99999e-01,2.75203e-04,9.99999e-01
4.932130795e-01,3.23578e-04,9.99999e-01,3.23578e-04,9.99999e-01
4.956791449e-01,3.79241e-04,9.99999e-01,3.79241e-04,9.99999e-01
4.981575406e-01,4.43089e-04,9.99999e-01,4.43089e-04,9.99999e-01
5.006483283e-01,5.16096e-04,9.99999e-01,5.16096e-04,9.99999e-01
5.031515699e-01,5.99325e-04,9.99999e-01,5.99325e-04,9.99999e-01
5.056673278e-01,6.93923e-04,9.99999e-01,6.93923e-04,9.99999e-01
5.081956644e-01,8.01131e-04,9.99999e-01,8.01131e-04,9.99999e-01
5.107366428e-01,9.22280e-04,9.99999e-01,9.22280e-04,9.99999e-01
5.132903260e-01,1.05880e-03,9.99999e-01,1.05880e-03,9.99999e-01
5.158567776e-01,1.21222e-03,9.99999e-01,1.21222e-03,9.99999e-01
5.184360615e-01,1.38417e-03,9.99999e-01,1.38417e-03,9.99999e-01
5.210282418e-01,1.57636e-03,9.99999e-01,1.57636e-03,9.99999e-01
5.236333830e-01,1.79065e-03,9.99999e-01,1.79065e-03,9.99999e-01
5.262515499e-01,2.02894e-03,9.99999e-01,2.02894e-03,9.99999e-01
5.288828077e-01,2.29328e-03,9.99999e-01,2.29328e-03,9.99999e-01
5.315272217e-01,2.58580e-03,9.99999e-01,2.58580e-03,9.99999e-01
5.341848578e-01,2.90873e-03,9.99999e-01,2.90873e-03,9.99999e-01
5.368557821e-01,3.26438e-03,9.99999e-01,3.26438e-03,9.99999e-01
5.395400610e-01,3.65519e-03,9.99999e-01,3.65519e-03,9.99999e-01
5.422377613e-01,4.08365e-03,9.99999e-01,4.08365e-03,9.99999e-01
5.449489501e-01,4.55235e-03,9.99999e-01,4.55235e-03,9.99999e-01
5.476736949e-01,5.06398e-03,9.99999e-01,5.06398e-03,9.99999e-01
5.504120634e-01,5.62126e-03,9.99999e-01,5.62126e-03,9.99999e-01
5.531641237e-01,6.22702e-03,9.99999e-01,6.22702e-03,9.99999e-01
5.559299443e-01,6.88412e-03,9.99999e-01,6.88412e-03,9.99999e-01
5.587095940e-01,7.59550e-03,9.99999e-01,7.59550e-03,9.99999e-01
5.615031420e-01,8.36413e-03,9.99999e-01,8.36413e-03,9.99999e-01
5.643106577e-01,9.19301e-03,9.99999e-01,9.19301e-03,9.99999e-01
5.671322110e-01,1.00852e-02,9.99999e-01,1.00852e-02,9.99999e-01
5.699678720e-01,1.10438e-02,9.99999e-01,1.10438e-02,9.99999e-01
5.728177114e-01,1.20717e-02,9.99999e-01,1.20717e-02,9.99999e-01
5.756818000e-01,1.31722e-02,9.99999e-01,1.31722e-02,9.99999e-01
5.785602090e-01,1.43483e-02,9.99999e-01,1.43483e-02,9.99999e-01
5.814530100e-01,1.56030e-02,9.99999e-01,1.56030e-02,9.99999e-01
5.843602750e-01,1.69394e-02,9.99999e-01,1.69394e-02,9.99999e-01
5.872820764e-01,1.83604e-02,9.99999e-01,1.83604e-02,9.99999e-01
5.902184868e-01,1.98689e-02,9.99999e-01,1.98689e-02,9.99999e-01
5.931695792e-01,2.14679e-02,9.99999e-01,2.14679e-02,9.99999e-01
5.961354271e-01,2.31601e-02,9.99999e-01,2.31601e-02,9.99999e-01
5.991161043e-01,2.49483e-02,9.99999e-01,2.49483e-02,9.99999e-01
6.021116848e-01,2.68351e-02,9.99999e-01,2.68351e-02,9.99999e-01
6.051222432e-01,2.88231e-02,9.99999e-01,2.88231e-02,9.99999e-01
6.081478544e-01,3.09146e-02,9.99999e-01,3.09146e-02,9.99999e-01
6.111885937e-01,3.31121e-02,9.99999e-01,3.31121e-02,9.99999e-01
6.142445367e-01,3.54178e-02,9.99999e-01,3.54178e-02,9.99999e-01
6.173157594e-01,3.78336e-02,9.99999e-01,3.78336e-02,9.99999e-01
6.204023382e-01,4.03616e-02,9.99999e-01,4.03616e-02,9.99999e-01
6.235043498e-01,4.30035e-02,9.99999e-01,4.30035e-02,9.99999e-01
6.266218716e-01,4.57610e-02,9.99999e-01,4.57610e-02,9.99999e-01
6.297549810e-01,4.86355e-02,9.99999e-01,4.86355e-02,9.99999e-01
6.329037559e-01,5.16285e-02,9.99999e-01,5.16285e-02,9.99999e-01
6.360682746e-01,5.47411e-02,9.99999e-01,5.47411e-02,9.99999e-01
6.392486160e-01,5.79742e-02,9.99999e-01,5.79742e-02,9.99999e-01
6.424448591e-01,6.13287e-02,9.99999e-01,6.13287e-02,9.99999e-01
6.456570834e-01,6.48053e-02,9.99999e-01,6.48053e-02,9.99999e-01
6.488853688e-01,6.84044e-02,9.99999e-01,6.84044e-02,9.99999e-01
6.521297956e-01,7.21264e-02,9.99999e-01,7.21264e-02,9.99999e-01
6.553904446e-01,7.59713e-02,9.99999e-01,7.59713e-02,9.99999e-01
6.586673968e-01,7.99391e-02,9.99999e-01,7.99391e-02,9.99999e-01
6.619607338e-01,8.40297e-02,9.99999e-01,8.40297e-02,9.99999e-01
6.652705375e-01,8.82425e-02,9.99999e-01,8.82425e-02,9.99999e-01
6.685968902e-01,9.25770e-02,9.99999e-01,9.25770e-02,9.99999e-01
6.719398746e-01,9.70325e-02,9.99999e-01,9.70325e-02,9.99999e-01
6.752995740e-01,1.01608e-01,9.99999e-01,1.01608e-01,9.99999e-01
6.786760719e-01,1.06303e-01,9.99999e-01,1.06303e-01,9.99999e-01
6.820694522e-01,1.11115e-01,9.99999e-01,1.11115e-01,9.99999e-01
6.854797995e-01,1.16043e-01,9.99999e-01,1.16043e-01,9.99999e-01
6.889071985e-01,1.21087e-01,9.99999e-01,1.21087e-01,9.99999e-01
6.923517345e-01,1.26243e-01,9.99999e-01,1.26243e-01,9.99999e-01
6.958134932e-01,1.31511e-01,9.99999e-01,1.31511e-01,9.99999e-01
6.992925606e-01,1.36887e-01,9.99999e-01,1.36887e-01,9.99999e-01
7.027890234e-01,1.42371e-01,9.99999e-01,1.42371e-01,9.99999e-01
7.063029686e-01,1.47960e-01,9.99999e-01,1.47960e-01,9.99999e-01
7.098344834e-01,1.53651e-01,9.99999e-01,1.53651e-01,9.99999e-01
7.133836558e-01,1.59443e-01,9.99999e-01,1.59443e-01,9.99999e-01
7.169505741e-01,1.65331e-01,9.99999e-01,1.65331e-01,9.99999e-01
7.205353270e-01,1.71315e-01,9.99999e-01,1.71315e-01,9.99999e-01
7.241380036e-01,1.77390e-01,9.99999e-01,1.77390e-01,9.99999e-01
7.277586936e-01,1.83554e-01,9.99999e-01,1.83554e-01,9.99999e-01
7.313974871e-01,1.89805e-01,9.99999e-01,1.89805e-01,9.99999e-01
7.350544745e-01,1.96138e-01,9.99999e-01,1.96138e-01,9.99999e-01
7.387297469e-01,2.02552e-01,9.99999e-01,2.02552e-01,9.99999e-01
7.424233956e-01,2.09042e-01,9.99999e-01,2.09042e-01,9.99999e-01
7.461355126e-01,2.15606e-01,9.99999e-01,2.15606e-01,9.99999e-01
7.498661902e-01,2.22240e-01,9.99999e-01,2.22240e-01,9.99999e-01
7.536155211e-01,2.28941e-01,9.99999e-01,2.28941e-01,9.99999e-01
7.573835987e-01,2.35706e-01,9.99999e-01,2.35706e-01,9.99999e-01
7.611705167e-01,2.42532e-01,9.99999e-01,2.42532e-01,9.99999e-01
7.649763693e-01,2.49414e-01,9.99999e-01,2.49414e-01,9.99999e-01
7.688012511e-01,2.56350e-01,9.99999e-01,2.56350e-01,9.99999e-01
7.726452574e-01,2.63336e-01,9.99999e-01,2.63336e-01,9.99999e-01
7.765084837e-01,2.70369e-01,9.99999e-01,2.70369e-01,9.99999e-01
7.803910261e-01,2.62132e-01,9.44809e-01,2.77445e-01,9.99999e-01
7.842929812e-01,2.18291e-01,7.67115e-01,2.84561e-01,9.99999e-01
7.882144461e-01,2.20060e-01,7.54370e-01,2.91713e-01,9.99999e-01
7.921555184e-01,2.52682e-01,8.45373e-01,2.98899e-01,9.99999e-01
7.961162960e-01,2.73359e-01,8.92993e-01,3.06115e-01,9.99999e-01
8.000968774e-01,2.94710e-01,9.40491e-01,3.13357e-01,9.99999e-01
8.040973618e-01,3.10576e-01,9.68663e-01,3.20623e-01,9.99999e-01
8.081178486e-01,3.23155e-01,9.85504e-01,3.27908e-01,9.99999e-01
8.121584379e-01,3.33699e-01,9.95491e-01,3.35210e-01,9.99999e-01
8.162192301e-01,3.42184e-01,9.99002e-01,3.42526e-01,9.99999e-01
8.203003262e-01,3.49846e-01,9.99984e-01,3.49852e-01,9.99999e-01
8.244018279e-01,3.57185e-01,9.99999e-01,3.57185e-01,9.99999e-01
8.285238370e-01,3.64523e-01,9.99999e-01,3.64523e-01,9.99999e-01
8.326664562e-01,3.71862e-01,9.99999e-01,3.71862e-01,9.99999e-01
8.368297885e-01,3.79200e-01,9.99999e-01,3.79200e-01,9.99999e-01
8.410139374e-01,3.86533e-01,9.99999e-01,3.86533e-01,9.99999e-01
8.452190071e-01,3.93859e-01,9.99999e-01,3.93859e-01,9.99999e-01
8.494451021e-01,4.01175e-01,9.99999e-01,4.01175e-01,9.99999e-01
8.536923276e-01,4.08478e-01,9.99999e-01,4.08478e-01,9.99999e-01
8.579607893e-01,4.15766e-01,9.99999e-01,4.15766e-01,9.99999e-01
8.622505932e-01,4.23036e-01,9.99999e-01,4.23036e-01,9.99999e-01
8.665618462e-01,3.86710e-01,8.98726e-01,4.30286e-01,9.99999e-01
8.708946554e-01,2.25671e-01,5.15802e-01,4.37514e-01,9.99999e-01
8.752491287e-01,2.58675e-01,5.81663e-01,4.44716e-01,9.99999e-01
8.796253743e-01,3.34288e-01,7.39751e-01,4.51892e-01,9.99999e-01
8.840235012e-01,3.92168e-01,8.54326e-01,4.59038e-01,9.99999e-01
8.884436187e-01,4.38012e-01,9.39632e-01,4.66152e-01,9.99999e-01
8.928858368e-01,4.61445e-01,9.75090e-01,4.73233e-01,9.99999e-01
8.973502660e-01,4.77341e-01,9.93882e-01,4.80278e-01,9.99999e-01
9.018370173e-01,4.86957e-01,9.99323e-01,4.87286e-01,9.99999e-01
9.063462024e-01,4.85875e-01,9.83044e-01,4.94255e-01,9.99999e-01
9.108779334e-01,4.81652e-01,9.61030e-01,5.01183e-01,9.99999e-01
9.154323231e-01,5.03338e-01,9.90689e-01,5.08069e-01,9.99999e-01
9.200094847e-01,4.52954e-01,8.79676e-01,5.14910e-01,9.99999e-01
9.246095321e-01,4.29688e-01,8.23622e-01,5.21705e-01,9.99999e-01
9.292325798e-01,4.54585e-01,8.60217e-01,5.28453e-01,9.99999e-01
9.338787427e-01,4.62169e-01,8.63620e-01,5.35153e-01,9.99999e-01
9.385481364e-01,4.86295e-01,8.97548e-01,5.41803e-01,9.99999e-01
9.432408771e-01,5.13191e-01,9.35793e-01,5.48401e-01,9.99999e-01
9.479570815e-01,5.36379e-01,9.66540e-01,5.54948e-01,9.99999e-01
9.526968669e-01,5.52303e-01,9.83724e-01,5.61440e-01,9.99999e-01
9.574603512e-01,5.63907e-01,9.93005e-01,5.67879e-01,9.99999e-01
9.622476530e-01,5.73005e-01,9.97812e-01,5.74261e-01,9.99999e-01
9.670588912e-01,5.80207e-01,9.99343e-01,5.80588e-01,9.99999e-01
9.718941857e-01,5.86829e-01,9.99952e-01,5.86856e-01,9.99999e-01
9.767536566e-01,5.93067e-01,9.99999e-01,5.93067e-01,9.99999e-01
9.816374249e-01,5.99219e-01,9.99999e-01,5.99219e-01,9.99999e-01
9.865456120e-01,6.05311e-01,9.99999e-01,6.05311e-01,9.99999e-01
9.914783401e-01,6.11344e-01,9.99999e-01,6.11344e-01,9.99999e-01
9.964357318e-01,6.17315e-01,9.99999e-01,6.17315e-01,9.99999e-01
1.001417910e+00,6.23225e-01,9.99999e-01,6.23225e-01,9.99999e-01
1.006425000e+00,6.29073e-01,9.99999e-01,6.29073e-01,9.99999e-01
1.011457125e+00,6.34859e-01,9.99999e-01,6.34859e-01,9.99999e-01
1.016514411e+00,6.40582e-01,9.99999e-01,6.40582e-01,9.99999e-01
1.021596983e+00,6.46185e-01,9.99911e-01,6.46242e-01,9.99999e-01
1.026704968e+00,6.47495e-01,9.93334e-01,6.51839e-01,9.99999e-01
1.031838492e+00,6.14919e-01,9.35419e-01,6.57373e-01,9.99999e-01
1.036997685e+00,5.94556e-02,8.96978e-02,6.62843e-01,9.99999e-01
1.042182673e+00,1.87057e-02,2.79921e-02,6.68248e-01,9.99999e-01
1.047393587e+00,3.22066e-02,4.78132e-02,6.73590e-01,9.99999e-01
1.052630555e+00,9.72116e-05,1.43196e-04,6.78868e-01,9.99999e-01
1.057893707e+00,3.23150e-04,4.72384e-04,6.84082e-01,9.99999e-01
1.063183176e+00,2.29742e-03,3.33331e-03,6.89231e-01,9.99999e-01
1.068499092e+00,1.12653e-02,1.62251e-02,6.94317e-01,9.99999e-01
1.073841587e+00,5.07166e-02,7.25207e-02,6.99338e-01,9.99999e-01
1.079210795e+00,1.33937e-01,1.90171e-01,7.04296e-01,9.99999e-01
1.084606849e+00,2.80972e-01,3.96187e-01,7.09190e-01,9.99999e-01
1.090029883e+00,4.40731e-01,6.17253e-01,7.14020e-01,9.99999e-01
1.095480033e+00,5.66441e-01,7.88051e-01,7.18786e-01,9.99999e-01
1.100957433e+00,6.44905e-01,8.91380e-01,7.23490e-01,9.99999e-01
1.106462220e+00,6.94286e-01,9.53519e-01,7.28130e-01,9.99999e-01
1.111994531e+00,7.19890e-01,9.82506e-01,7.32707e-01,9.99999e-01
1.117554504e+00,7.34050e-01,9.95696e-01,7.37222e-01,9.99999e-01
1.123142276e+00,7.41465e-01,9.99716e-01,7.41675e-01,9.99999e-01
1.128757988e+00,7.46066e-01,9.99999e-01,7.46066e-01,9.99999e-01
1.134401778e+00,7.50396e-01,9.99999e-01,7.50396e-01,9.99999e-01
1.140073787e+00,7.54664e-01,9.99999e-01,7.54664e-01,9.99999e-01
1.145774156e+00,7.58872e-01,9.99999e-01,7.58872e-01,9.99999e-01
1.151503026e+00,7.63019e-01,9.99999e-01,7.63019e-01,9.99999e-01
1.157260541e+00,7.67106e-01,9.99999e-01,7.67106e-01,9.99999e-01
1.163046844e+00,7.71134e-01,9.99999e-01,7.71134e-01,9.99999e-01
1.168862078e+00,7.75103e-01,9.99999e-01,7.75103e-01,9.99999e-01
1.174706389e+00,7.79013e-01,9.99999e-01,7.79013e-01,9.99999e-01
1.180579921e+00,7.82865e-01,9.99999e-01,7.82865e-01,9.99999e-01
1.186482820e+00,7.86651e-01,9.99988e-01,7.86660e-01,9.99999e-01
1.192415234e+00,7.72000e-01,9.76724e-01,7.90397e-01,9.99999e-01
1.198377311e+00,4.32013e-01,5.44043e-01,7.94078e-01,9.99999e-01
1.204369197e+00,2.34766e-18,2.94303e-18,7.97703e-01,9.99999e-01
1.210391043e+00,1.90787e-71,2.38104e-71,8.01272e-01,9.99999e-01
1.216442998e+00,5.93744e-62,7.37766e-62,8.04786e-01,9.99999e-01
1.222525213e+00,4.89397e-61,6.05505e-61,8.08246e-01,9.99999e-01
1.228637839e+00,3.20146e-47,3.94437e-47,8.11652e-01,9.99999e-01
1.234781029e+00,8.77900e-30,1.07717e-29,8.15004e-01,9.99999e-01
1.240954934e+00,6.16737e-20,7.53677e-20,8.18304e-01,9.99999e-01
1.247159708e+00,3.68677e-10,4.48757e-10,8.21552e-01,9.99999e-01
1.253395507e+00,8.42097e-07,1.02104e-06,8.24748e-01,9.99999e-01
1.259662485e+00,3.06375e-04,3.70066e-04,8.27892e-01,9.99999e-01
1.265960797e+00,9.28183e-03,1.11696e-02,8.30987e-01,9.99999e-01
1.272290601e+00,1.14021e-01,1.36710e-01,8.34031e-01,9.99999e-01
1.278652054e+00,9.84677e-02,1.17640e-01,8.37026e-01,9.99999e-01
1.285045314e+00,7.73130e-04,9.20421e-04,8.39973e-01,9.99999e-01
1.291470541e+00,6.59090e-09,7.81958e-09,8.42871e-01,9.99999e-01
1.297927893e+00,2.33517e-04,2.76115e-04,8.45722e-01,9.99999e-01
1.304417533e+00,2.22103e-02,2.61751e-02,8.48526e-01,9.99999e-01
1.310939621e+00,5.29910e-03,6.22483e-03,8.51283e-01,9.99999e-01
1.317494319e+00,8.60470e-25,1.00758e-24,8.53995e-01,9.99999e-01
1.324081790e+00,1.34893e-16,1.57464e-16,8.56661e-01,9.99999e-01
1.330702199e+00,7.54299e-10,8.77822e-10,8.59283e-01,9.99999e-01
1.337355710e+00,2.86513e-09,3.32435e-09,8.61861e-01,9.99999e-01
1.344042489e+00,1.13269e-09,1.31038e-09,8.64396e-01,9.99999e-01
1.350762701e+00,4.11526e-10,4.74716e-10,8.66887e-01,9.99999e-01
1.357516515e+00,1.54385e-06,1.77589e-06,8.69337e-01,9.99999e-01
1.364304097e+00,1.00381e-04,1.15149e-04,8.71745e-01,9.99999e-01
1.371125618e+00,8.25131e-03,9.43965e-03,8.74111e-01,9.99999e-01
1.377981246e+00,1.70616e-02,1.94669e-02,8.76437e-01,9.99999e-01
1.384871152e+00,8.87358e-02,1.00982e-01,8.78724e-01,9.99999e-01
1.391795508e+00,1.05824e-01,1.20122e-01,8.80970e-01,9.99999e-01
1.398754485e+00,2.36312e-01,2.67570e-01,8.83178e-01,9.99999e-01
1.405748258e+00,3.36797e-01,3.80412e-01,8.85348e-01,9.99999e-01
1.412776999e+00,4.80847e-01,5.41811e-01,8.87480e-01,9.99999e-01
1.419840884e+00,4.34723e-01,4.88686e-01,8.89575e-01,9.99999e-01
1.426940089e+00,2.52811e-02,2.83537e-02,8.91634e-01,9.99999e-01
1.434074789e+00,0.00000e+00,0.00000e+00,8.93656e-01,9.99999e-01
1.441245163e+00,0.00000e+00,0.00000e+00,8.95643e-01,9.99999e-01
1.448451389e+00,0.00000e+00,0.00000e+00,8.97595e-01,9.99999e-01
1.455693646e+00,0.00000e+00,0.00000e+00,8.99512e-01,9.99999e-01
1.462972114e+00,4.12725e-283,4.57872e-283,9.01396e-01,9.99999e-01
1.470286975e+00,8.10928e-118,8.97792e-118,9.03246e-01,9.99999e-01
1.477638409e+00,3.00601e-74,3.32132e-74,9.05063e-01,9.99999e-01
1.485026601e+00,1.37979e-41,1.52152e-41,9.06848e-01,9.99999e-01
1.492451734e+00,1.91337e-35,2.10584e-35,9.08602e-01,9.99999e-01
1.499913993e+00,1.00938e-15,1.10881e-15,9.10323e-01,9.99999e-01
1.507413563e+00,1.74688e-14,1.91541e-14,9.12014e-01,9.99999e-01
1.514950631e+00,6.35829e-16,6.95902e-16,9.13675e-01,9.99999e-01
1.522525384e+00,6.18453e-53,6.75679e-53,9.15306e-01,9.99999e-01
1.530138011e+00,1.07966e-125,1.17750e-125,9.16907e-01,9.99999e-01
1.537788701e+00,4.09351e-93,4.45683e-93,9.18480e-01,9.99999e-01
1.545477645e+00,4.48276e-20,4.87243e-20,9.20024e-01,9.99999e-01
1.553205033e+00,1.59313e-14,1.72877e-14,9.21540e-01,9.99999e-01
1.560971058e+00,6.30236e-15,6.82791e-15,9.23028e-01,9.99999e-01
1.568775913e+00,8.85839e-318,9.58192e-318,9.24490e-01,9.99999e-01
1.576619793e+00,0.00000e+00,0.00000e+00,9.25924e-01,9.99999e-01
1.584502892e+00,0.00000e+00,0.00000e+00,9.27333e-01,9.99999e-01
1.592425406e+00,3.11692e-283,3.35616e-283,9.28716e-01,9.99999e-01
1.600387533e+00,0.00000e+00,0.00000e+00,9.30074e-01,9.99999e-01
1.608389471e+00,0.00000e+00,0.00000e+00,9.31406e-01,9.99999e-01
1.616431418e+00,0.00000e+00,0.00000e+00,9.32715e-01,9.99999e-01
1.624513575e+00,0.00000e+00,0.00000e+00,9.33999e-01,9.99999e-01
1.632636143e+00,3.39860e-267,3.63385e-267,9.35259e-01,9.99999e-01
1.640799324e+00,3.43632e-109,3.66934e-109,9.36496e-01,9.99999e-01
1.649003321e+00,3.44047e-109,3.66901e-109,9.37711e-01,9.99999e-01
1.657248337e+00,1.70725e-84,1.81834e-84,9.38903e-01,9.99999e-01
1.665534579e+00,4.68743e-85,4.98623e-85,9.40073e-01,9.99999e-01
1.673862252e+00,2.05262e-54,2.18080e-54,9.41221e-01,9.99999e-01
1.682231563e+00,7.81408e-38,8.29213e-38,9.42348e-01,9.99999e-01
1.690642721e+00,3.00902e-21,3.18936e-21,9.43454e-01,9.99999e-01
1.699095934e+00,1.13903e-13,1.20591e-13,9.44539e-01,9.99999e-01
1.707591414e+00,2.42984e-07,2.56961e-07,9.45604e-01,9.99999e-01
1.716129371e+00,1.50703e-04,1.59196e-04,9.46649e-01,9.99999e-01
1.724710018e+00,6.61948e-03,6.98496e-03,9.47675e-01,9.99999e-01
1.733333568e+00,3.60449e-02,3.79947e-02,9.48682e-01,9.99999e-01
1.742000236e+00,1.39543e-01,1.46938e-01,9.49669e-01,9.99999e-01
1.750710237e+00,1.26746e-03,1.33327e-03,9.50639e-01,9.99999e-01
1.759463788e+00,5.81871e-52,6.11472e-52,9.51590e-01,9.99999e-01
1.768261107e+00,2.20896e-54,2.31906e-54,9.52523e-01,9.99999e-01
1.777102413e+00,7.24718e-53,7.60109e-53,9.53438e-01,9.99999e-01
1.785987925e+00,1.16570e-49,1.22147e-49,9.54337e-01,9.99999e-01
1.794917864e+00,1.98024e-47,2.07308e-47,9.55218e-01,9.99999e-01
1.803892454e+00,1.27164e-45,1.33005e-45,9.56083e-01,9.99999e-01
1.812911916e+00,7.81437e-44,8.16607e-44,9.56931e-01,9.99999e-01
1.821976476e+00,6.63428e-44,6.92684e-44,9.57764e-01,9.99999e-01
1.831086358e+00,2.37877e-35,2.48155e-35,9.58581e-01,9.99999e-01
1.840241790e+00,3.92754e-30,4.09382e-30,9.59382e-01,9.99999e-01
1.849442999e+00,5.43911e-21,5.66474e-21,9.60168e-01,9.99999e-01
1.858690214e+00,1.09687e-19,1.14146e-19,9.60939e-01,9.99999e-01
1.867983665e+00,2.42085e-20,2.51727e-20,9.61696e-01,9.99999e-01
1.877323583e+00,6.44050e-99,6.69185e-99,9.62438e-01,9.99999e-01
