#,Wave/freq,Total,CO2,Rayleigh,CIA
4.000000000e-01,5.90300e-04,9.99999e-01,5.90300e-04,9.99999e-01
4.020000000e-01,6.83780e-04,9.99999e-01,6.83780e-04,9.99999e-01
4.040100000e-01,7.89650e-04,9.99999e-01,7.89650e-04,9.99999e-01
4.060300500e-01,9.09323e-04,9.99999e-01,9.09323e-04,9.99999e-01
4.080602003e-01,1.04422e-03,9.99999e-01,1.04422e-03,9.99999e-01
4.101005013e-01,1.19585e-03,9.99999e-01,1.19585e-03,9.99999e-01
4.121510038e-01,1.36584e-03,9.99999e-01,1.36584e-03,9.99999e-01
4.142117588e-01,1.55591e-03,9.99999e-01,1.55591e-03,9.99999e-01
4.162828176e-01,1.76786e-03,9.99999e-01,1.76786e-03,9.99999e-01
4.183642317e-01,2.00363e-03,9.99999e-01,2.00363e-03,9.99999e-01
4.204560528e-01,2.26524e-03,9.99999e-01,2.26524e-03,9.99999e-01
4.225583331e-01,2.55480e-03,9.99999e-01,2.55480e-03,9.99999e-01
4.246711247e-01,2.87454e-03,9.99999e-01,2.87454e-03,9.99999e-01
4.267944804e-01,3.22677e-03,9.99999e-01,3.22677e-03,9.99999e-01
4.289284528e-01,3.61390e-03,9.99999e-01,3.61390e-03,9.99999e-01
4.310730950e-01,4.03842e-03,9.99999e-01,4.03842e-03,9.99999e-01
4.332284605e-01,4.50293e-03,9.99999e-01,4.50293e-03,9.99999e-01
4.353946028e-01,5.01008e-03,9.99999e-01,5.01008e-03,9.99999e-01
4.375715758e-01,5.56260e-03,9.99999e-01,5.56260e-03,9.99999e-01
4.397594337e-01,6.16332e-03,9.99999e-01,6.16332e-03,9.99999e-01
4.419582309e-01,6.81508e-03,9.99999e-01,6.81508e-03,9.99999e-01
4.441680220e-01,7.52082e-03,9.99999e-01,7.52082e-03,9.99999e-01
4.463888621e-01,8.28351e-03,9.99999e-01,8.28351e-03,9.99999e-01
4.486208064e-01,9.10615e-03,9.99999e-01,9.10615e-03,9.99999e-01
4.508639105e-01,9.99178e-03,9.99999e-01,9.99178e-03,9.99999e-01
4.531182300e-01,1.09435e-02,9.99999e-01,1.09435e-02,9.99999e-01
4.553838212e-01,1.19643e-02,9.99999e-01,1.19643e-02,9.99999e-01
4.576607403e-01,1.30573e-02,9.99999e-01,1.30573e-02,9.99999e-01
4.599490440e-01,1.42256e-02,9.99999e-01,1.42256e-02,9.99999e-01
4.622487892e-01,1.54722e-02,9.99999e-01,1.54722e-02,9.99999e-01
4.645600332e-01,1.68001e-02,9.99999e-01,1.68001e-02,9.99999e-01
4.668828333e-01,1.82124e-02,9.99999e-01,1.82124e-02,9.99999e-01
4.692172475e-01,1.97119e-02,9.99999e-01,1.97119e-02,9.99999e-01
4.715633337e-01,2.13016e-02,9.99999e-01,2.13016e-02,9.99999e-01
4.739211504e-01,2.29842e-02,9.99999e-01,2.29842e-02,9.99999e-01
4.762907561e-01,2.47626e-02,9.99999e-01,2.47626e-02,9.99999e-01
4.786722099e-01,2.66393e-02,9.99999e-01,2.66393e-02,9.99999e-01
4.810655710e-01,2.86169e-02,9.99999e-01,2.86169e-02,9.99999e-01
4.834708988e-01,3.06978e-02,9.99999e-01,3.06978e-02,9.99999e-01
4.858882533e-01,3.28845e-02,9.99999e-01,3.28845e-02,9.99999e-01
4.883176946e-01,3.51790e-02,9.99999e-01,3.51790e-02,9.99999e-01
4.907592831e-01,3.75836e-02,9.99999e-01,3.75836e-02,9.99999e-01
4.932130795e-01,4.01001e-02,9.99999e-01,4.01001e-02,9.99999e-01
4.956791449e-01,4.27304e-02,9.99999e-01,4.27304e-02,9.99999e-01
4.981575406e-01,4.54761e-02,9.99999e-01,4.54761e-02,9.99999e-01
5.006483283e-01,4.83388e-02,9.99999e-01,4.83388e-02,9.99999e-01
5.031515699e-01,5.13197e-02,9.99999e-01,5.13197e-02,9.99999e-01
5.056673278e-01,5.44200e-02,9.99999e-01,5.44200e-02,9.99999e-01
5.081956644e-01,5.76409e-02,9.99999e-01,5.76409e-02,9.99999e-01
5.107366428e-01,6.09831e-02,9.99999e-01,6.09831e-02,9.99999e-01
5.132903260e-01,6.44473e-02,9.99999e-01,6.44473e-02,9.99999e-01
5.158567776e-01,6.80340e-02,9.99999e-01,6.80340e-02,9.99999e-01
5.184360615e-01,7.17435e-02,9.99999e-01,7.17435e-02,9.99999e-01
5.210282418e-01,7.55759e-02,9.99999e-01,7.55759e-02,9.99999e-01
5.236333830e-01,7.95313e-02,9.99999e-01,7.95313e-02,9.99999e-01
5.262515499e-01,8.36094e-02,9.99999e-01,8.36094e-02,9.99999e-01
5.288828077e-01,8.78099e-02,9.99999e-01,8.78099e-02,9.99999e-01
5.315272217e-01,9.21321e-02,9.99999e-01,9.21321e-02,9.99999e-01
5.341848578e-01,9.65754e-02,9.99999e-01,9.65754e-02,9.99999e-01
5.368557821e-01,1.01139e-01,9.99999e-01,1.01139e-01,9.99999e-01
5.395400610e-01,1.05821e-01,9.99999e-01,1.05821e-01,9.99999e-01
5.422377613e-01,1.10622e-01,9.99999e-01,1.10622e-01,9.99999e-01
5.449489501e-01,1.15538e-01,9.99999e-01,1.15538e-01,9.99999e-01
5.476736949e-01,1.20570e-01,9.99999e-01,1.20570e-01,9.99999e-01
5.504120634e-01,1.25715e-01,9.99999e-01,1.25715e-01,9.99999e-01
5.531641237e-01,1.30972e-01,9.99999e-01,1.30972e-01,9.99999e-01
5.559299443e-01,1.36337e-01,9.99999e-01,1.36337e-01,9.99999e-01
5.587095940e-01,1.41811e-01,9.99999e-01,1.41811e-01,9.99999e-01
5.615031420e-01,1.47389e-01,9.99999e-01,1.47389e-01,9.99999e-01
5.643106577e-01,1.53070e-01,9.99999e-01,1.53070e-01,9.99999e-01
5.671322110e-01,1.58851e-01,9.99999e-01,1.58851e-01,9.99999e-01
5.699678720e-01,1.64730e-01,9.99999e-01,1.64730e-01,9.99999e-01
5.728177114e-01,1.70704e-01,9.99999e-01,1.70704e-01,9.99999e-01
5.756818000e-01,1.76770e-01,9.99999e-01,1.76770e-01,9.99999e-01
5.785602090e-01,1.82925e-01,9.99999e-01,1.82925e-01,9.99999e-01
5.814530100e-01,1.89167e-01,9.99999e-01,1.89167e-01,9.99999e-01
5.843602750e-01,1.95492e-01,9.99999e-01,1.95492e-01,9.99999e-01
5.872820764e-01,2.01898e-01,9.99999e-01,2.01898e-01,9.99999e-01
5.902184868e-01,2.08380e-01,9.99999e-01,2.08380e-01,9.99999e-01
5.931695792e-01,2.14937e-01,9.99999e-01,2.14937e-01,9.99999e-01
5.961354271e-01,2.21564e-01,9.99999e-01,2.21564e-01,9.99999e-01
5.991161043e-01,2.28259e-01,9.99999e-01,2.28259e-01,9.99999e-01
6.021116848e-01,2.35018e-01,9.99999e-01,2.35018e-01,9.99999e-01
6.051222432e-01,2.41837e-01,9.99999e-01,2.41837e-01,9.99999e-01
6.081478544e-01,2.48714e-01,9.99999e-01,2.48714e-01,9.99999e-01
6.111885937e-01,2.55644e-01,9.99999e-01,2.55644e-01,9.99999e-01
6.142445367e-01,2.62625e-01,9.99999e-01,2.62625e-01,9.99999e-01
6.173157594e-01,2.69654e-01,9.99999e-01,2.69654e-01,9.99999e-01
6.204023382e-01,2.76725e-01,9.99999e-01,2.76725e-01,9.99999e-01
6.235043498e-01,2.83838e-01,9.99999e-01,2.83838e-01,9.99999e-01
6.266218716e-01,2.90987e-01,9.99999e-01,2.90987e-01,9.99999e-01
6.297549810e-01,2.98169e-01,9.99999e-01,2.98169e-01,9.99999e-01
6.329037559e-01,3.05382e-01,9.99999e-01,3.05382e-01,9.99999e-01
6.360682746e-01,3.12622e-01,9.99999e-01,3.12622e-01,9.99999e-01
6.392486160e-01,3.19885e-01,9.99999e-01,3.19885e-01,9.99999e-01
6.424448591e-01,3.27169e-01,9.99999e-01,3.27169e-01,9.99999e-01
6.456570834e-01,3.34469e-01,9.99999e-01,3.34469e-01,9.99999e-01
6.488853688e-01,3.41784e-01,9.99999e-01,3.41784e-01,9.99999e-01
6.521297956e-01,3.49109e-01,9.99999e-01,3.49109e-01,9.99999e-01
6.553904446e-01,3.56442e-01,9.99999e-01,3.56442e-01,9.99999e-01
6.586673968e-01,3.63779e-01,9.99999e-01,3.63779e-01,9.99999e-01
6.619607338e-01,3.71118e-01,9.99999e-01,3.71118e-01,9.99999e-01
6.652705375e-01,3.78456e-01,9.99999e-01,3.78456e-01,9.99999e-01
6.685968902e-01,3.85790e-01,9.99999e-01,3.85790e-01,9.99999e-01
6.719398746e-01,3.93116e-01,9.99999e-01,3.93116e-01,9.99999e-01
6.752995740e-01,4.00434e-01,9.99999e-01,4.00434e-01,9.99999e-01
6.786760719e-01,4.07738e-01,9.99999e-01,4.07738e-01,9.99999e-01
6.820694522e-01,4.15028e-01,9.99999e-01,4.15028e-01,9.99999e-01
6.854797995e-01,4.22300e-01,9.99999e-01,4.22300e-01,9.99999e-01
6.889071985e-01,4.29552e-01,9.99999e-01,4.29552e-01,9.99999e-01
6.923517345e-01,4.36782e-01,9.99999e-01,4.36782e-01,9.99999e-01
6.958134932e-01,4.43987e-01,9.99999e-01,4.43987e-01,9.99999e-01
6.992925606e-01,4.51166e-01,9.99999e-01,4.51166e-01,9.99999e-01
7.027890234e-01,4.58315e-01,9.99999e-01,4.58315e-01,9.99999e-01
7.063029686e-01,4.65432e-01,9.99999e-01,4.65432e-01,9.99999e-01
7.098344834e-01,4.72517e-01,9.99999e-01,4.72517e-01,9.99999e-01
7.133836558e-01,4.79566e-01,9.99999e-01,4.79566e-01,9.99999e-01
7.169505741e-01,4.86578e-01,9.99999e-01,4.86578e-01,9.99999e-01
7.205353270e-01,4.93551e-01,9.99999e-01,4.93551e-01,9.99999e-01
7.241380036e-01,5.00483e-01,9.99999e-01,5.00483e-01,9.99999e-01
7.277586936e-01,5.07373e-01,9.99999e-01,5.07373e-01,9.99999e-01
7.313974871e-01,5.14218e-01,9.99999e-01,5.14218e-01,9.99999e-01
7.350544745e-01,5.21018e-01,9.99999e-01,5.21018e-01,9.99999e-01
7.387297469e-01,5.27771e-01,9.99999e-01,5.27771e-01,9.99999e-01
7.424233956e-01,5.34476e-01,9.99999e-01,5.34476e-01,9.99999e-01
7.461355126e-01,5.41131e-01,9.99999e-01,5.41131e-01,9.99999e-01
7.498661902e-01,5.47735e-01,9.99999e-01,5.47735e-01,9.99999e-01
7.536155211e-01,5.54286e-01,9.99999e-01,5.54286e-01,9.99999e-01
7.573835987e-01,5.60785e-01,9.99999e-01,5.60785e-01,9.99999e-01
7.611705167e-01,5.67228e-01,9.99999e-01,5.67228e-01,9.99999e-01
7.649763693e-01,5.73617e-01,9.99999e-01,5.73617e-01,9.99999e-01
7.688012511e-01,5.79949e-01,9.99999e-01,5.79949e-01,9.99999e-01
7.726452574e-01,5.86224e-01,9.99999e-01,5.86224e-01,9.99999e-01
7.765084837e-01,5.92440e-01,9.99999e-01,5.92440e-01,9.99999e-01
7.803910261e-01,5.83123e-01,9.74147e-01,5.98598e-01,9.99999e-01
7.842929812e-01,5.42310e-01,8.96830e-01,6.04697e-01,9.99999e-01
7.882144461e-01,5.42998e-01,8.89089e-01,6.10735e-01,9.99999e-01
7.921555184e-01,5.76164e-01,9.34250e-01,6.16712e-01,9.99999e-01
7.961162960e-01,5.95150e-01,9.55866e-01,6.22628e-01,9.99999e-01
8.000968774e-01,6.13271e-01,9.75795e-01,6.28483e-01,9.99999e-01
8.040973618e-01,6.26307e-01,9.87437e-01,6.34275e-01,9.99999e-01
8.081178486e-01,6.36290e-01,9.94194e-01,6.40005e-01,9.99999e-01
8.121584379e-01,6.44522e-01,9.98219e-01,6.45671e-01,9.99999e-01
8.162192301e-01,6.51019e-01,9.99606e-01,6.51275e-01,9.99999e-01
8.203003262e-01,6.56811e-01,9.99994e-01,6.56815e-01,9.99999e-01
8.244018279e-01,6.62291e-01,9.99999e-01,6.62291e-01,9.99999e-01
8.285238370e-01,6.67703e-01,9.99999e-01,6.67703e-01,9.99999e-01
8.326664562e-01,6.73052e-01,9.99999e-01,6.73052e-01,9.99999e-01
8.368297885e-01,6.78336e-01,9.99999e-01,6.78336e-01,9.99999e-01
8.410139374e-01,6.83556e-01,9.99999e-01,6.83556e-01,9.99999e-01
8.452190071e-01,6.88712e-01,9.99999e-01,6.88712e-01,9.99999e-01
8.494451021e-01,6.93804e-01,9.99999e-01,6.93804e-01,9.99999e-01
8.536923276e-01,6.98832e-01,9.99999e-01,6.98832e-01,9.99999e-01
8.579607893e-01,7.03796e-01,9.99999e-01,7.03796e-01,9.99999e-01
8.622505932e-01,7.08696e-01,9.99999e-01,7.08696e-01,9.99999e-01
8.665618462e-01,6.69078e-01,9.37696e-01,7.13533e-01,9.99999e-01
8.708946554e-01,5.42855e-01,7.55743e-01,7.18306e-01,9.99999e-01
8.752491287e-01,5.78299e-01,7.99842e-01,7.23016e-01,9.99999e-01
8.796253743e-01,6.44168e-01,8.85256e-01,7.27662e-01,9.99999e-01
8.840235012e-01,6.87520e-01,9.38919e-01,7.32246e-01,9.99999e-01
8.884436187e-01,7.18784e-01,9.75590e-01,7.36767e-01,9.99999e-01
8.928858368e-01,7.33834e-01,9.90025e-01,7.41227e-01,9.99999e-01
8.973502660e-01,7.43821e-01,9.97581e-01,7.45624e-01,9.99999e-01
9.018370173e-01,7.49760e-01,9.99733e-01,7.49960e-01,9.99999e-01
9.063462024e-01,7.48922e-01,9.92957e-01,7.54234e-01,9.99999e-01
9.108779334e-01,7.46516e-01,9.84267e-01,7.58448e-01,9.99999e-01
9.154323231e-01,7.59796e-01,9.96320e-01,7.62601e-01,9.99999e-01
9.200094847e-01,7.24935e-01,9.45532e-01,7.66694e-01,9.99999e-01
9.246095321e-01,7.13059e-01,9.25175e-01,7.70728e-01,9.99999e-01
9.292325798e-01,7.28351e-01,9.40167e-01,7.74703e-01,9.99999e-01
9.338787427e-01,7.34020e-01,9.42720e-01,7.78619e-01,9.99999e-01
9.385481364e-01,7.49311e-01,9.57613e-01,7.82477e-01,9.99999e-01
9.432408771e-01,7.65769e-01,9.73915e-01,7.86278e-01,9.99999e-01
9.479570815e-01,7.79364e-01,9.86510e-01,7.90021e-01,9.99999e-01
9.526968669e-01,7.88537e-01,9.93485e-01,7.93707e-01,9.99999e-01
9.574603512e-01,7.95115e-01,9.97212e-01,7.97338e-01,9.99999e-01
9.622476530e-01,8.00217e-01,9.99130e-01,8.00913e-01,9.99999e-01
9.670588912e-01,8.04223e-01,9.99739e-01,8.04432e-01,9.99999e-01
9.718941857e-01,8.07883e-01,9.99981e-01,8.07898e-01,9.99999e-01
9.767536566e-01,8.11309e-01,9.99999e-01,8.11309e-01,9.99999e-01
9.816374249e-01,8.14667e-01,9.99999e-01,8.14667e-01,9.99999e-01
9.865456120e-01,8.17972e-01,9.99999e-01,8.17972e-01,9.99999e-01
9.914783401e-01,8.21225e-01,9.99999e-01,8.21225e-01,9.99999e-01
9.964357318e-01,8.24426e-01,9.99999e-01,8.24426e-01,9.99999e-01
1.001417910e+00,8.27576e-01,9.99999e-01,8.27576e-01,9.99999e-01
1.006425000e+00,8.30675e-01,9.99999e-01,8.30675e-01,9.99999e-01
1.011457125e+00,8.33725e-01,9.99999e-01,8.33725e-01,9.99999e-01
1.016514411e+00,8.36725e-01,9.99999e-01,8.36725e-01,9.99999e-01
1.021596983e+00,8.39642e-01,9.99958e-01,8.39676e-01,9.99999e-01
1.026704968e+00,8.40258e-01,9.97244e-01,8.42580e-01,9.99999e-01
1.031838492e+00,8.13486e-01,9.62209e-01,8.45435e-01,9.99999e-01
1.036997685e+00,1.73226e-01,2.04218e-01,8.48244e-01,9.99999e-01
1.042182673e+00,1.79573e-01,2.11012e-01,8.51006e-01,9.99999e-01
1.047393587e+00,1.83193e-01,2.14582e-01,8.53722e-01,9.99999e-01
1.052630555e+00,1.25076e-02,1.46050e-02,8.56393e-01,9.99999e-01
1.057893707e+00,2.77760e-02,3.23345e-02,8.59020e-01,9.99999e-01
1.063183176e+00,6.98758e-02,8.10998e-02,8.61602e-01,9.99999e-01
1.068499092e+00,1.55310e-01,1.79727e-01,8.64141e-01,9.99999e-01
1.073841587e+00,2.94350e-01,3.39646e-01,8.66637e-01,9.99999e-01
1.079210795e+00,4.38958e-01,5.05078e-01,8.69090e-01,9.99999e-01
1.084606849e+00,5.99737e-01,6.88164e-01,8.71502e-01,9.99999e-01
1.090029883e+00,7.19827e-01,8.23719e-01,8.73873e-01,9.99999e-01
1.095480033e+00,7.96504e-01,9.09039e-01,8.76203e-01,9.99999e-01
1.100957433e+00,8.39059e-01,9.55110e-01,8.78494e-01,9.99999e-01
1.106462220e+00,8.64203e-01,9.81218e-01,8.80744e-01,9.99999e-01
1.111994531e+00,8.76775e-01,9.92998e-01,8.82956e-01,9.99999e-01
1.117554504e+00,8.83621e-01,9.98294e-01,8.85130e-01,9.99999e-01
1.123142276e+00,8.87167e-01,9.99888e-01,8.87266e-01,9.99999e-01
1.128757988e+00,8.89365e-01,9.99999e-01,8.89365e-01,9.99999e-01
1.134401778e+00,8.91427e-01,9.99999e-01,8.91427e-01,9.99999e-01
1.140073787e+00,8.93453e-01,9.99999e-01,8.93453e-01,9.99999e-01
1.145774156e+00,8.95443e-01,9.99999e-01,8.95443e-01,9.99999e-01
1.151503026e+00,8.97399e-01,9.99999e-01,8.97399e-01,9.99999e-01
1.157260541e+00,8.99320e-01,9.99999e-01,8.99320e-01,9.99999e-01
1.163046844e+00,9.01207e-01,9.99999e-01,9.01207e-01,9.99999e-01
1.168862078e+00,9.03060e-01,9.99999e-01,9.03060e-01,9.99999e-01
1.174706389e+00,9.04881e-01,9.99999e-01,9.04881e-01,9.99999e-01
1.180579921e+00,9.06669e-01,9.99999e-01,9.06669e-01,9.99999e-01
1.186482820e+00,9.08420e-01,9.99993e-01,9.08425e-01,9.99999e-01
1.192415234e+00,9.01151e-01,9.90111e-01,9.10150e-01,9.99999e-01
1.198377311e+00,5.19439e-01,5.69657e-01,9.11844e-01,9.99999e-01
1.204369197e+00,1.06835e-08,1.16950e-08,9.13508e-01,9.99999e-01
1.210391043e+00,5.94259e-30,6.49362e-30,9.15142e-01,9.99999e-01
1.216442998e+00,3.75589e-26,4.09698e-26,9.16746e-01,9.99999e-01
1.222525213e+00,8.79265e-26,9.57469e-26,9.18322e-01,9.99999e-01
1.228637839e+00,6.16634e-20,6.70349e-20,9.19868e-01,9.99999e-01
1.234781029e+00,2.85707e-13,3.10084e-13,9.21387e-01,9.99999e-01
1.240954934e+00,5.58760e-09,6.05452e-09,9.22879e-01,9.99999e-01
1.247159708e+00,2.84223e-05,3.07486e-05,9.24343e-01,9.99999e-01
1.253395507e+00,2.43670e-03,2.63205e-03,9.25780e-01,9.99999e-01
1.259662485e+00,3.11464e-02,3.35921e-02,9.27191e-01,9.99999e-01
1.265960797e+00,1.30246e-01,1.40264e-01,9.28577e-01,9.99999e-01
1.272290601e+00,4.10277e-01,4.41187e-01,9.29937e-01,9.99999e-01
1.278652054e+00,3.52213e-01,3.78206e-01,9.31272e-01,9.99999e-01
1.285045314e+00,1.16857e-02,1.25305e-02,9.32583e-01,9.99999e-01
1.291470541e+00,3.25131e-04,3.48154e-04,9.33870e-01,9.99999e-01
1.297927893e+00,2.48325e-02,2.65551e-02,9.35132e-01,9.99999e-01
1.304417533e+00,2.11394e-01,2.25759e-01,9.36372e-01,9.99999e-01
1.310939621e+00,3.63739e-02,3.87951e-02,9.37589e-01,9.99999e-01
1.317494319e+00,8.22253e-11,8.75870e-11,9.38783e-01,9.99999e-01
1.324081790e+00,3.44337e-06,3.66334e-06,9.39955e-01,9.99999e-01
1.330702199e+00,1.56506e-04,1.66300e-04,9.41106e-01,9.99999e-01
1.337355710e+00,1.45633e-04,1.54562e-04,9.42235e-01,9.99999e-01
1.344042489e+00,4.19716e-05,4.44924e-05,9.43343e-01,9.99999e-01
1.350762701e+00,1.08844e-04,1.15249e-04,9.44430e-01,9.99999e-01
1.357516515e+00,2.62967e-03,2.78125e-03,9.45497e-01,9.99999e-01
1.364304097e+00,2.22275e-02,2.34828e-02,9.46544e-01,9.99999e-01
1.371125618e+00,1.32647e-01,1.39986e-01,9.47572e-01,9.99999e-01
1.377981246e+00,1.92428e-01,2.02859e-01,9.48581e-01,9.99999e-01
1.384871152e+00,3.75523e-01,3.95465e-01,9.49570e-01,9.99999e-01
1.391795508e+00,4.03567e-01,4.24565e-01,9.50541e-01,9.99999e-01
1.398754485e+00,5.61315e-01,5.89930e-01,9.51494e-01,9.99999e-01
1.405748258e+00,6.45712e-01,6.77963e-01,9.52429e-01,9.99999e-01
1.412776999e+00,7.46077e-01,7.82587e-01,9.53346e-01,9.99999e-01
1.419840884e+00,6.75804e-01,7.08206e-01,9.54246e-01,9.99999e-01
1.426940089e+00,7.54289e-02,7.89723e-02,9.55130e-01,9.99999e-01
1.434074789e+00,0.00000e+00,0.00000e+00,9.55996e-01,9.99999e-01
1.441245163e+00,0.00000e+00,0.00000e+00,9.56846e-01,9.99999e-01
1.448451389e+00,0.00000e+00,0.00000e+00,9.57680e-01,9.99999e-01
1.455693646e+00,4.80452e-236,5.01254e-236,9.58499e-01,9.99999e-01
1.462972114e+00,1.07023e-114,1.11563e-114,9.59301e-01,9.99999e-01
1.470286975e+00,1.61286e-48,1.67990e-48,9.60089e-01,9.99999e-01
1.477638409e+00,4.52979e-31,4.71429e-31,9.60862e-01,9.99999e-01
1.485026601e+00,6.99781e-18,7.27710e-18,9.61620e-01,9.99999e-01
1.492451734e+00,3.03282e-15,3.15143e-15,9.62363e-01,9.99999e-01
1.499913993e+00,1.84823e-07,1.91906e-07,9.63093e-01,9.99999e-01
1.507413563e+00,2.49794e-06,2.59173e-06,9.63808e-01,9.99999e-01
1.514950631e+00,1.02066e-07,1.05822e-07,9.64510e-01,9.99999e-01
1.522525384e+00,1.53065e-22,1.58584e-22,9.65199e-01,9.99999e-01
1.530138011e+00,1.27645e-51,1.32154e-51,9.65875e-01,9.99999e-01
1.537788701e+00,1.37754e-38,1.42523e-38,9.66537e-01,9.99999e-01
1.545477645e+00,2.19549e-09,2.26998e-09,9.67187e-01,9.99999e-01
1.553205033e+00,2.01401e-06,2.08096e-06,9.67825e-01,9.99999e-01
1.560971058e+00,5.15131e-07,5.31912e-07,9.68450e-01,9.99999e-01
1.568775913e+00,1.41669e-128,1.46192e-128,9.69064e-01,9.99999e-01
1.576619793e+00,3.03670e-300,3.13170e-300,9.69665e-01,9.99999e-01
1.584502892e+00,4.18873e-164,4.31714e-164,9.70255e-01,9.99999e-01
1.592425406e+00,1.12699e-114,1.16085e-114,9.70834e-01,9.99999e-01
1.600387533e+00,3.57544e-184,3.68070e-184,9.71402e-01,9.99999e-01
1.608389471e+00,5.78054e-309,5.94730e-309,9.71959e-01,9.99999e-01
1.616431418e+00,6.57661e-311,6.76254e-311,9.72505e-01,9.99999e-01
1.624513575e+00,2.03729e-145,2.09374e-145,9.73041e-01,9.99999e-01
1.632636143e+00,2.56322e-108,2.63281e-108,9.73566e-01,9.99999e-01
1.640799324e+00,4.59091e-45,4.71306e-45,9.74082e-01,9.99999e-01
1.649003321e+00,4.83326e-45,4.95928e-45,9.74587e-01,9.99999e-01
1.657248337e+00,4.17616e-35,4.28287e-35,9.75083e-01,9.99999e-01
1.665534579e+00,2.40439e-35,2.46460e-35,9.75569e-01,9.99999e-01
1.673862252e+00,5.47060e-23,5.60486e-23,9.76045e-01,9.99999e-01
1.682231563e+00,2.31343e-16,2.36907e-16,9.76513e-01,9.99999e-01
1.690642721e+00,9.48290e-10,9.70641e-10,9.76971e-01,9.99999e-01
1.699095934e+00,2.30887e-06,2.36220e-06,9.77421e-01,9.99999e-01
1.707591414e+00,9.78499e-04,1.00065e-03,9.77862e-01,9.99999e-01
1.716129371e+00,2.15596e-02,2.20379e-02,9.78295e-01,9.99999e-01
1.724710018e+00,1.24413e-01,1.27118e-01,9.78719e-01,9.99999e-01
1.733333568e+00,2.57920e-01,2.63417e-01,9.79135e-01,9.99999e-01
1.742000236e+00,4.31886e-01,4.40905e-01,9.79543e-01,9.99999e-01
1.750710237e+00,1.88137e-02,1.91988e-02,9.79942e-01,9.99999e-01
1.759463788e+00,6.10854e-22,6.23107e-22,9.80335e-01,9.99999e-01
1.768261107e+00,4.03118e-23,4.11042e-23,9.80719e-01,9.99999e-01
1.777102413e+00,5.07011e-22,5.16779e-22,9.81097e-01,9.99999e-01
1.785987925e+00,4.05191e-21,4.12842e-21,9.81466e-01,9.99999e-01
1.794917864e+00,4.89275e-20,4.98330e-20,9.81829e-01,9.99999e-01
1.803892454e+00,1.31441e-19,1.33825e-19,9.82185e-01,9.99999e-01
1.812911916e+00,1.09671e-18,1.11620e-18,9.82534e-01,9.99999e-01
1.821976476e+00,7.15647e-19,7.28115e-19,9.82876e-01,9.99999e-01
1.831086358e+00,1.90028e-15,1.93273e-15,9.83211e-01,9.99999e-01
1.840241790e+00,4.26997e-13,4.34143e-13,9.83540e-01,9.99999e-01
1.849442999e+00,3.18937e-09,3.24168e-09,9.83862e-01,9.99999e-01
1.858690214e+00,1.92330e-08,1.95422e-08,9.84179e-01,9.99999e-01
1.867983665e+00,2.79093e-09,2.83490e-09,9.84489e-01,9.99999e-01
1.877323583e+00,6.69199e-41,6.79532e-41,9.84793e-01,9.99999e-01
