#,Wave/freq,Total,CO2,Rayleigh,CIA
4.000000000e-01,1.38759e-03,9.99999e-01,1.38759e-03,9.99999e-01
4.020000000e-01,1.58040e-03,9.99999e-01,1.58040e-03,9.99999e-01
4.040100000e-01,1.79514e-03,9.99999e-01,1.79514e-03,9.99999e-01
4.060300500e-01,2.03393e-03,9.99999e-01,2.03393e-03,9.99999e-01
4.080602003e-01,2.29881e-03,9.99999e-01,2.29881e-03,9.99999e-01
4.101005013e-01,2.59191e-03,9.99999e-01,2.59191e-03,9.99999e-01
4.121510038e-01,2.91546e-03,9.99999e-01,2.91546e-03,9.99999e-01
4.142117588e-01,3.27179e-03,9.99999e-01,3.27179e-03,9.99999e-01
4.162828176e-01,3.66332e-03,9.99999e-01,3.66332e-03,9.99999e-01
4.183642317e-01,4.09256e-03,9.99999e-01,4.09256e-03,9.99999e-01
4.204560528e-01,4.56209e-03,9.99999e-01,4.56209e-03,9.99999e-01
4.225583331e-01,5.07459e-03,9.99999e-01,5.07459e-03,9.99999e-01
4.246711247e-01,5.63281e-03,9.99999e-01,5.63281e-03,9.99999e-01
4.267944804e-01,6.23956e-03,9.99999e-01,6.23956e-03,9.99999e-01
4.289284528e-01,6.89771e-03,9.99999e-01,6.89771e-03,9.99999e-01
4.310730950e-01,7.61019e-03,9.99999e-01,7.61019e-03,9.99999e-01
4.332284605e-01,8.37999e-03,9.99999e-01,8.37999e-03,9.99999e-01
4.353946028e-01,9.21010e-03,9.99999e-01,9.21010e-03,9.99999e-01
4.375715758e-01,1.01036e-02,9.99999e-01,1.01036e-02,9.99999e-01
4.397594337e-01,1.10635e-02,9.99999e-01,1.10635e-02,9.99999e-01
4.419582309e-01,1.20929e-02,9.99999e-01,1.20929e-02,9.99999e-01
4.441680220e-01,1.31949e-02,9.99999e-01,1.31949e-02,9.99999e-01
4.463888621e-01,1.43725e-02,9.99999e-01,1.43725e-02,9.99999e-01
4.486208064e-01,1.56288e-02,9.99999e-01,1.56288e-02,9.99999e-01
4.508639105e-01,1.69668e-02,9.99999e-01,1.69668e-02,9.99999e-01
4.531182300e-01,1.83895e-02,9.99999e-01,1.83895e-02,9.99999e-01
4.553838212e-01,1.98998e-02,9.99999e-01,1.98998e-02,9.99999e-01
4.576607403e-01,2.15006e-02,9.99999e-01,2.15006e-02,9.99999e-01
4.599490440e-01,2.31947e-02,9.99999e-01,2.31947e-02,9.99999e-01
4.622487892e-01,2.49848e-02,9.99999e-01,2.49848e-02,9.99999e-01
4.645600332e-01,2.68736e-02,9.99999e-01,2.68736e-02,9.99999e-01
4.668828333e-01,2.88636e-02,9.99999e-01,2.88636e-02,9.99999e-01
4.692172475e-01,3.09572e-02,9.99999e-01,3.09572e-02,9.99999e-01
4.715633337e-01,3.31569e-02,9.99999e-01,3.31569e-02,9.99999e-01
4.739211504e-01,3.54647e-02,9.99999e-01,3.54647e-02,9.99999e-01
4.762907561e-01,3.78827e-02,9.99999e-01,3.78827e-02,9.99999e-01
4.786722099e-01,4.04129e-02,9.99999e-01,4.04129e-02,9.99999e-01
4.810655710e-01,4.30571e-02,9.99999e-01,4.30571e-02,9.99999e-01
4.834708988e-01,4.58169e-02,9.99999e-01,4.58169e-02,9.99999e-01
4.858882533e-01,4.86938e-02,9.99999e-01,4.86938e-02,9.99999e-01
4.883176946e-01,5.16892e-02,9.99999e-01,5.16892e-02,9.99999e-01
4.907592831e-01,5.48041e-02,9.99999e-01,5.48041e-02,9.99999e-01
4.932130795e-01,5.80396e-02,9.99999e-01,5.80396e-02,9.99999e-01
4.956791449e-01,6.13966e-02,9.99999e-01,6.13966e-02,9.99999e-01
4.981575406e-01,6.48756e-02,9.99999e-01,6.48756e-02,9.99999e-01
5.006483283e-01,6.84771e-02,9.99999e-01,6.84771e-02,9.99999e-01
5.031515699e-01,7.22015e-02,9.99999e-01,7.22015e-02,9.99999e-01
5.056673278e-01,7.60489e-02,9.99999e-01,7.60489e-02,9.99999e-01
5.081956644e-01,8.00192e-02,9.99999e-01,8.00192e-02,9.99999e-01
5.107366428e-01,8.41122e-02,9.99999e-01,8.41122e-02,9.99999e-01
5.132903260e-01,8.83274e-02,9.99999e-01,8.83274e-02,9.99999e-01
5.158567776e-01,9.26643e-02,9.99999e-01,9.26643e-02,9.99999e-01
5.184360615e-01,9.71222e-02,9.99999e-01,9.71222e-02,9.99999e-01
5.210282418e-01,1.01700e-01,9.99999e-01,1.01700e-01,9.99999e-01
5.236333830e-01,1.06397e-01,9.99999e-01,1.06397e-01,9.99999e-01
5.262515499e-01,1.11212e-01,9.99999e-01,1.11212e-01,9.99999e-01
5.288828077e-01,1.16142e-01,9.99999e-01,1.16142e-01,9.99999e-01
5.315272217e-01,1.21188e-01,9.99999e-01,1.21188e-01,9.99999e-01
5.341848578e-01,1.26347e-01,9.99999e-01,1.26347e-01,9.99999e-01
5.368557821e-01,1.31616e-01,9.99999e-01,1.31616e-01,9.99999e-01
5.395400610e-01,1.36995e-01,9.99999e-01,1.36995e-01,9.99999e-01
5.422377613e-01,1.42481e-01,9.99999e-01,1.42481e-01,9.99999e-01
5.449489501e-01,1.48072e-01,9.99999e-01,1.48072e-01,9.99999e-01
5.476736949e-01,1.53765e-01,9.99999e-01,1.53765e-01,9.99999e-01
5.504120634e-01,1.59559e-01,9.99999e-01,1.59559e-01,9.99999e-01
5.531641237e-01,1.65449e-01,9.99999e-01,1.65449e-01,9.99999e-01
5.559299443e-01,1.71434e-01,9.99999e-01,1.71434e-01,9.99999e-01
5.587095940e-01,1.77511e-01,9.99999e-01,1.77511e-01,9.99999e-01
5.615031420e-01,1.83677e-01,9.99999e-01,1.83677e-01,9.99999e-01
5.643106577e-01,1.89930e-01,9.99999e-01,1.89930e-01,9.99999e-01
5.671322110e-01,1.96265e-01,9.99999e-01,1.96265e-01,9.99999e-01
5.699678720e-01,2.02680e-01,9.99999e-01,2.02680e-01,9.99999e-01
5.728177114e-01,2.09171e-01,9.99999e-01,2.09171e-01,9.99999e-01
5.756818000e-01,2.15737e-01,9.99999e-01,2.15737e-01,9.99999e-01
5.785602090e-01,2.22372e-01,9.99999e-01,2.22372e-01,9.99999e-01
5.814530100e-01,2.29075e-01,9.99999e-01,2.29075e-01,9.99999e-01
5.843602750e-01,2.35841e-01,9.99999e-01,2.35841e-01,9.99999e-01
5.872820764e-01,2.42668e-01,9.99999e-01,2.42668e-01,9.99999e-01
5.902184868e-01,2.49551e-01,9.99999e-01,2.49551e-01,9.99999e-01
5.931695792e-01,2.56488e-01,9.99999e-01,2.56488e-01,9.99999e-01
5.961354271e-01,2.63475e-01,9.99999e-01,2.63475e-01,9.99999e-01
5.991161043e-01,2.70509e-01,9.99999e-01,2.70509e-01,9.99999e-01
6.021116848e-01,2.77586e-01,9.99999e-01,2.77586e-01,9.99999e-01
6.051222432e-01,2.84703e-01,9.99999e-01,2.84703e-01,9.99999e-01
6.081478544e-01,2.91856e-01,9.99999e-01,2.91856e-01,9.99999e-01
6.111885937e-01,2.99042e-01,9.99999e-01,2.99042e-01,9.99999e-01
6.142445367e-01,3.06259e-01,9.99999e-01,3.06259e-01,9.99999e-01
6.173157594e-01,3.13501e-01,9.99999e-01,3.13501e-01,9.99999e-01
6.204023382e-01,3.20767e-01,9.99999e-01,3.20767e-01,9.99999e-01
6.235043498e-01,3.28053e-01,9.99999e-01,3.28053e-01,9.99999e-01
6.266218716e-01,3.35355e-01,9.99999e-01,3.35355e-01,9.99999e-01
6.297549810e-01,3.42671e-01,9.99999e-01,3.42671e-01,9.99999e-01
6.329037559e-01,3.49997e-01,9.99999e-01,3.49997e-01,9.99999e-01
6.360682746e-01,3.57331e-01,9.99999e-01,3.57331e-01,9.99999e-01
6.392486160e-01,3.64669e-01,9.99999e-01,3.64669e-01,9.99999e-01
6.424448591e-01,3.72008e-01,9.99999e-01,3.72008e-01,9.99999e-01
6.456570834e-01,3.79345e-01,9.99999e-01,3.79345e-01,9.99999e-01
6.488853688e-01,3.86678e-01,9.99999e-01,3.86678e-01,9.99999e-01
6.521297956e-01,3.94004e-01,9.99999e-01,3.94004e-01,9.99999e-01
6.553904446e-01,4.01320e-01,9.99999e-01,4.01320e-01,9.99999e-01
6.586673968e-01,4.08623e-01,9.99999e-01,4.08623e-01,9.99999e-01
6.619607338e-01,4.15911e-01,9.99999e-01,4.15911e-01,9.99999e-01
6.652705375e-01,4.23181e-01,9.99999e-01,4.23181e-01,9.99999e-01
6.685968902e-01,4.30430e-01,9.99999e-01,4.30430e-01,9.99999e-01
6.719398746e-01,4.37657e-01,9.99999e-01,4.37657e-01,9.99999e-01
6.752995740e-01,4.44859e-01,9.99999e-01,4.44859e-01,9.99999e-01
6.786760719e-01,4.52034e-01,9.99999e-01,4.52034e-01,9.99999e-01
6.820694522e-01,4.59179e-01,9.99999e-01,4.59179e-01,9.99999e-01
6.854797995e-01,4.66293e-01,9.99999e-01,4.66293e-01,9.99999e-01
6.889071985e-01,4.73373e-01,9.99999e-01,4.73373e-01,9.99999e-01
6.923517345e-01,4.80418e-01,9.99999e-01,4.80418e-01,9.99999e-01
6.958134932e-01,4.87425e-01,9.99999e-01,4.87425e-01,9.99999e-01
6.992925606e-01,4.94393e-01,9.99999e-01,4.94393e-01,9.99999e-01
7.027890234e-01,5.01320e-01,9.99999e-01,5.01320e-01,9.99999e-01
7.063029686e-01,5.08205e-01,9.99999e-01,5.08205e-01,9.99999e-01
7.098344834e-01,5.15045e-01,9.99999e-01,5.15045e-01,9.99999e-01
7.133836558e-01,5.21840e-01,9.99999e-01,5.21840e-01,9.99999e-01
7.169505741e-01,5.28587e-01,9.99999e-01,5.28587e-01,9.99999e-01
7.205353270e-01,5.35286e-01,9.99999e-01,5.35286e-01,9.99999e-01
7.241380036e-01,5.41934e-01,9.99999e-01,5.41934e-01,9.99999e-01
7.277586936e-01,5.48532e-01,9.99999e-01,5.48532e-01,9.99999e-01
7.313974871e-01,5.55077e-01,9.99999e-01,5.55077e-01,9.99999e-01
7.350544745e-01,5.61569e-01,9.99999e-01,5.61569e-01,9.99999e-01
7.387297469e-01,5.68006e-01,9.99999e-01,5.68006e-01,9.99999e-01
7.424233956e-01,5.74387e-01,9.99999e-01,5.74387e-01,9.99999e-01
7.461355126e-01,5.80713e-01,9.99999e-01,5.80713e-01,9.99999e-01
7.498661902e-01,5.86980e-01,9.99999e-01,5.86980e-01,9.99999e-01
7.536155211e-01,5.93190e-01,9.99999e-01,5.93190e-01,9.99999e-01
7.573835987e-01,5.99341e-01,9.99999e-01,5.99341e-01,9.99999e-01
7.611705167e-01,6.05432e-01,9.99999e-01,6.05432e-01,9.99999e-01
7.649763693e-01,6.11463e-01,9.99999e-01,6.11463e-01,9.99999e-01
7.688012511e-01,6.17433e-01,9.99999e-01,6.17433e-01,9.99999e-01
7.726452574e-01,6.23342e-01,9.99999e-01,6.23342e-01,9.99999e-01
7.765084837e-01,6.29188e-01,9.99999e-01,6.29188e-01,9.99999e-01
7.803910261e-01,6.21512e-01,9.78799e-01,6.34973e-01,9.99999e-01
7.842929812e-01,5.81044e-01,9.06896e-01,6.40695e-01,9.99999e-01
7.882144461e-01,5.82453e-01,9.01136e-01,6.46354e-01,9.99999e-01
7.921555184e-01,6.13986e-01,9.41768e-01,6.51950e-01,9.99999e-01
7.961162960e-01,6.31426e-01,9.60369e-01,6.57482e-01,9.99999e-01
8.000968774e-01,6.48612e-01,9.78371e-01,6.62951e-01,9.99999e-01
8.040973618e-01,6.60795e-01,9.88687e-01,6.68355e-01,9.99999e-01
8.081178486e-01,6.70206e-01,9.94819e-01,6.73696e-01,9.99999e-01
8.121584379e-01,6.77874e-01,9.98381e-01,6.78972e-01,9.99999e-01
8.162192301e-01,6.83940e-01,9.99642e-01,6.84185e-01,9.99999e-01
8.203003262e-01,6.89329e-01,9.99993e-01,6.89333e-01,9.99999e-01
8.244018279e-01,6.94417e-01,9.99999e-01,6.94417e-01,9.99999e-01
8.285238370e-01,6.99438e-01,9.99999e-01,6.99438e-01,9.99999e-01
8.326664562e-01,7.04394e-01,9.99999e-01,7.04394e-01,9.99999e-01
8.368297885e-01,7.09286e-01,9.99999e-01,7.09286e-01,9.99999e-01
8.410139374e-01,7.14115e-01,9.99999e-01,7.14115e-01,9.99999e-01
8.452190071e-01,7.18880e-01,9.99999e-01,7.18880e-01,9.99999e-01
8.494451021e-01,7.23582e-01,9.99999e-01,7.23582e-01,9.99999e-01
8.536923276e-01,7.28221e-01,9.99999e-01,7.28221e-01,9.99999e-01
8.579607893e-01,7.32798e-01,9.99999e-01,7.32798e-01,9.99999e-01
8.622505932e-01,7.37311e-01,9.99999e-01,7.37311e-01,9.99999e-01
8.665618462e-01,7.02175e-01,9.46629e-01,7.41763e-01,9.99999e-01
8.708946554e-01,5.81486e-01,7.79311e-01,7.46153e-01,9.99999e-01
8.752491287e-01,6.14437e-01,8.18724e-01,7.50481e-01,9.99999e-01
8.796253743e-01,6.76668e-01,8.96547e-01,7.54748e-01,9.99999e-01
8.840235012e-01,7.17354e-01,9.45186e-01,7.58955e-01,9.99999e-01
8.884436187e-01,7.46269e-01,9.77942e-01,7.63101e-01,9.99999e-01
8.928858368e-01,7.60317e-01,9.91044e-01,7.67187e-01,9.99999e-01
8.973502660e-01,7.69518e-01,9.97801e-01,7.71213e-01,9.99999e-01
9.018370173e-01,7.74993e-01,9.99756e-01,7.75181e-01,9.99999e-01
9.063462024e-01,7.74418e-01,9.94002e-01,7.79090e-01,9.99999e-01
9.108779334e-01,7.71925e-01,9.85928e-01,7.82941e-01,9.99999e-01
9.154323231e-01,7.84094e-01,9.96642e-01,7.86734e-01,9.99999e-01
9.200094847e-01,7.52949e-01,9.52531e-01,7.90471e-01,9.99999e-01
9.246095321e-01,7.40931e-01,9.32984e-01,7.94151e-01,9.99999e-01
9.292325798e-01,7.55929e-01,9.47547e-01,7.97774e-01,9.99999e-01
9.338787427e-01,7.60295e-01,9.48776e-01,8.01342e-01,9.99999e-01
9.385481364e-01,7.74412e-01,9.62174e-01,8.04855e-01,9.99999e-01
9.432408771e-01,7.89397e-01,9.76596e-01,8.08314e-01,9.99999e-01
9.479570815e-01,8.01957e-01,9.87973e-01,8.11719e-01,9.99999e-01
9.526968669e-01,8.10319e-01,9.94170e-01,8.15070e-01,9.99999e-01
9.574603512e-01,8.16325e-01,9.97502e-01,8.18369e-01,9.99999e-01
9.622476530e-01,8.20975e-01,9.99219e-01,8.21616e-01,9.99999e-01
9.670588912e-01,8.24617e-01,9.99765e-01,8.24811e-01,9.99999e-01
9.718941857e-01,8.27940e-01,9.99982e-01,8.27954e-01,9.99999e-01
9.767536566e-01,8.31048e-01,9.99999e-01,8.31048e-01,9.99999e-01
9.816374249e-01,8.34091e-01,9.99999e-01,8.34091e-01,9.99999e-01
9.865456120e-01,8.37085e-01,9.99999e-01,8.37085e-01,9.99999e-01
9.914783401e-01,8.40031e-01,9.99999e-01,8.40031e-01,9.99999e-01
9.964357318e-01,8.42928e-01,9.99999e-01,8.42928e-01,9.99999e-01
1.001417910e+00,8.45778e-01,9.99999e-01,8.45778e-01,9.99999e-01
1.006425000e+00,8.48581e-01,9.99999e-01,8.48581e-01,9.99999e-01
1.011457125e+00,8.51338e-01,9.99999e-01,8.51338e-01,9.99999e-01
1.016514411e+00,8.54048e-01,9.99999e-01,8.54048e-01,9.99999e-01
1.021596983e+00,8.56690e-01,9.99971e-01,8.56714e-01,9.99999e-01
1.026704968e+00,8.57335e-01,9.97672e-01,8.59335e-01,9.99999e-01
1.031838492e+00,8.36619e-01,9.70653e-01,8.61912e-01,9.99999e-01
1.036997685e+00,1.99716e-01,2.31033e-01,8.64446e-01,9.99999e-01
1.042182673e+00,2.14439e-01,2.47353e-01,8.66936e-01,9.99999e-01
1.047393587e+00,2.16888e-01,2.49473e-01,8.69385e-01,9.99999e-01
1.052630555e+00,1.91679e-02,2.19867e-02,8.71792e-01,9.99999e-01
1.057893707e+00,3.94213e-02,4.50962e-02,8.74158e-01,9.99999e-01
1.063183176e+00,9.17566e-02,1.04687e-01,8.76483e-01,9.99999e-01
1.068499092e+00,1.91648e-01,2.18087e-01,8.78769e-01,9.99999e-01
1.073841587e+00,3.35869e-01,3.81229e-01,8.81015e-01,9.99999e-01
1.079210795e+00,4.80459e-01,5.43984e-01,8.83222e-01,9.99999e-01
1.084606849e+00,6.34142e-01,7.16228e-01,8.85391e-01,9.99999e-01
1.090029883e+00,7.46755e-01,8.41392e-01,8.87522e-01,9.99999e-01
1.095480033e+00,8.16984e-01,9.18354e-01,8.89617e-01,9.99999e-01
1.100957433e+00,8.55872e-01,9.59847e-01,8.91674e-01,9.99999e-01
1.106462220e+00,8.78664e-01,9.83179e-01,8.93696e-01,9.99999e-01
1.111994531e+00,8.90071e-01,9.93734e-01,8.95682e-01,9.99999e-01
1.117554504e+00,8.96250e-01,9.98458e-01,8.97633e-01,9.99999e-01
1.123142276e+00,8.99458e-01,9.99897e-01,8.99550e-01,9.99999e-01
1.128757988e+00,9.01433e-01,9.99999e-01,9.01433e-01,9.99999e-01
1.134401778e+00,9.03283e-01,9.99999e-01,9.03283e-01,9.99999e-01
1.140073787e+00,9.05099e-01,9.99999e-01,9.05099e-01,9.99999e-01
1.145774156e+00,9.06884e-01,9.99999e-01,9.06884e-01,9.99999e-01
1.151503026e+00,9.08636e-01,9.99999e-01,9.08636e-01,9.99999e-01
1.157260541e+00,9.10357e-01,9.99999e-01,9.10357e-01,9.99999e-01
1.163046844e+00,9.12048e-01,9.99999e-01,9.12048e-01,9.99999e-01
1.168862078e+00,9.13708e-01,9.99999e-01,9.13708e-01,9.99999e-01
1.174706389e+00,9.15338e-01,9.99999e-01,9.15338e-01,9.99999e-01
1.180579921e+00,9.16939e-01,9.99999e-01,9.16939e-01,9.99999e-01
1.186482820e+00,9.18508e-01,9.99996e-01,9.18511e-01,9.99999e-01
1.192415234e+00,9.12443e-01,9.91726e-01,9.20054e-01,9.99999e-01
1.198377311e+00,5.30938e-01,5.76123e-01,9.21570e-01,9.99999e-01
1.204369197e+00,5.92060e-08,6.41411e-08,9.23057e-01,9.99999e-01
1.210391043e+00,9.28714e-27,1.00454e-26,9.24518e-01,9.99999e-01
1.216442998e+00,2.14231e-23,2.31363e-23,9.25953e-01,9.99999e-01
1.222525213e+00,4.58035e-23,4.93912e-23,9.27361e-01,9.99999e-01
1.228637839e+00,8.24840e-18,8.88124e-18,9.28743e-01,9.99999e-01
1.234781029e+00,5.36000e-12,5.76282e-12,9.30100e-01,9.99999e-01
1.240954934e+00,3.59641e-08,3.86116e-08,9.31433e-01,9.99999e-01
1.247159708e+00,2.16529e-05,2.32142e-05,9.32740e-01,9.99999e-01
1.253395507e+00,4.49738e-03,4.81506e-03,9.34024e-01,9.99999e-01
1.259662485e+00,3.48950e-02,3.73095e-02,9.35284e-01,9.99999e-01
1.265960797e+00,1.59118e-01,1.69903e-01,9.36521e-01,9.99999e-01
1.272290601e+00,4.25375e-01,4.53619e-01,9.37735e-01,9.99999e-01
1.278652054e+00,3.98538e-01,4.24461e-01,9.38926e-01,9.99999e-01
1.285045314e+00,2.25762e-02,2.40147e-02,9.40096e-01,9.99999e-01
1.291470541e+00,7.64930e-04,8.12679e-04,9.41244e-01,9.99999e-01
1.297927893e+00,2.02212e-02,2.14578e-02,9.42370e-01,9.99999e-01
1.304417533e+00,2.50016e-01,2.64995e-01,9.43476e-01,9.99999e-01
1.310939621e+00,6.89429e-02,7.29893e-02,9.44560e-01,9.99999e-01
1.317494319e+00,1.15511e-09,1.22153e-09,9.45625e-01,9.99999e-01
1.324081790e+00,5.65468e-07,5.97322e-07,9.46670e-01,9.99999e-01
1.330702199e+00,4.07997e-04,4.30515e-04,9.47695e-01,9.99999e-01
1.337355710e+00,3.32478e-04,3.50455e-04,9.48702e-01,9.99999e-01
1.344042489e+00,1.06140e-04,1.11763e-04,9.49689e-01,9.99999e-01
1.350762701e+00,2.85566e-04,3.00388e-04,9.50658e-01,9.99999e-01
1.357516515e+00,4.70539e-03,4.94467e-03,9.51608e-01,9.99999e-01
1.364304097e+00,3.35511e-02,3.52227e-02,9.52541e-01,9.99999e-01
1.371125618e+00,1.63081e-01,1.71042e-01,9.53456e-01,9.99999e-01
1.377981246e+00,2.31340e-01,2.42405e-01,9.54354e-01,9.99999e-01
1.384871152e+00,4.18287e-01,4.37888e-01,9.55235e-01,9.99999e-01
1.391795508e+00,4.45819e-01,4.66289e-01,9.56100e-01,9.99999e-01
1.398754485e+00,5.98514e-01,6.25440e-01,9.56948e-01,9.99999e-01
1.405748258e+00,6.77235e-01,7.07087e-01,9.57780e-01,9.99999e-01
1.412776999e+00,7.70249e-01,8.03516e-01,9.58597e-01,9.99999e-01
1.419840884e+00,7.10091e-01,7.40141e-01,9.59398e-01,9.99999e-01
1.426940089e+00,8.58572e-02,8.94174e-02,9.60183e-01,9.99999e-01
1.434074789e+00,0.00000e+00,0.00000e+00,9.60954e-01,9.99999e-01
1.441245163e+00,0.00000e+00,0.00000e+00,9.61711e-01,9.99999e-01
1.448451389e+00,0.00000e+00,0.00000e+00,9.62453e-01,9.99999e-01
1.455693646e+00,4.32090e-209,4.48607e-209,9.63180e-01,9.99999e-01
1.462972114e+00,9.84582e-102,1.02146e-101,9.63894e-01,9.99999e-01
1.470286975e+00,3.48140e-43,3.60918e-43,9.64595e-01,9.99999e-01
1.477638409e+00,9.57059e-28,9.91481e-28,9.65282e-01,9.99999e-01
1.485026601e+00,4.35027e-16,4.50358e-16,9.65956e-01,9.99999e-01
1.492451734e+00,1.07138e-13,1.10838e-13,9.66617e-01,9.99999e-01
1.499913993e+00,7.37009e-07,7.61951e-07,9.67265e-01,9.99999e-01
1.507413563e+00,1.08149e-05,1.11735e-05,9.67901e-01,9.99999e-01
1.514950631e+00,4.45397e-07,4.59871e-07,9.68525e-01,9.99999e-01
1.522525384e+00,3.35089e-20,3.45760e-20,9.69137e-01,9.99999e-01
1.530138011e+00,6.70101e-46,6.91012e-46,9.69737e-01,9.99999e-01
1.537788701e+00,2.24952e-34,2.31831e-34,9.70326e-01,9.99999e-01
1.545477645e+00,1.45821e-08,1.50191e-08,9.70904e-01,9.99999e-01
1.553205033e+00,8.41298e-06,8.66004e-06,9.71470e-01,9.99999e-01
1.560971058e+00,2.37538e-06,2.44374e-06,9.72026e-01,9.99999e-01
1.568775913e+00,5.19084e-114,5.33723e-114,9.72571e-01,9.99999e-01
1.576619793e+00,6.90452e-266,7.09534e-266,9.73105e-01,9.99999e-01
1.584502892e+00,1.91593e-145,1.96782e-145,9.73629e-01,9.99999e-01
1.592425406e+00,1.10752e-101,1.13692e-101,9.74143e-01,9.99999e-01
1.600387533e+00,3.36813e-163,3.45574e-163,9.74647e-01,9.99999e-01
1.608389471e+00,1.33010e-273,1.36401e-273,9.75142e-01,9.99999e-01
1.616431418e+00,2.53397e-275,2.59727e-275,9.75627e-01,9.99999e-01
1.624513575e+00,6.52809e-129,6.68791e-129,9.76103e-01,9.99999e-01
1.632636143e+00,4.36463e-96,4.46934e-96,9.76569e-01,9.99999e-01
1.640799324e+00,3.96268e-40,4.05585e-40,9.77026e-01,9.99999e-01
1.649003321e+00,4.35077e-40,4.45103e-40,9.77475e-01,9.99999e-01
1.657248337e+00,2.69518e-31,2.75604e-31,9.77915e-01,9.99999e-01
1.665534579e+00,1.71570e-31,1.75367e-31,9.78346e-01,9.99999e-01
1.673862252e+00,1.28069e-20,1.30847e-20,9.78770e-01,9.99999e-01
1.682231563e+00,1.05033e-14,1.07266e-14,9.79184e-01,9.99999e-01
1.690642721e+00,6.89314e-09,7.03675e-09,9.79591e-01,9.99999e-01
1.699095934e+00,8.43116e-06,8.60330e-06,9.79990e-01,9.99999e-01
1.707591414e+00,1.86197e-03,1.89923e-03,9.80382e-01,9.99999e-01
1.716129371e+00,3.16381e-02,3.22586e-02,9.80766e-01,9.99999e-01
1.724710018e+00,1.54519e-01,1.57489e-01,9.81142e-01,9.99999e-01
1.733333568e+00,3.00369e-01,3.06027e-01,9.81511e-01,9.99999e-01
1.742000236e+00,4.76305e-01,4.85098e-01,9.81873e-01,9.99999e-01
1.750710237e+00,2.52000e-02,2.56559e-02,9.82228e-01,9.99999e-01
1.759463788e+00,1.32325e-19,1.34672e-19,9.82575e-01,9.99999e-01
1.768261107e+00,1.03014e-20,1.04804e-20,9.82917e-01,9.99999e-01
1.777102413e+00,1.25525e-19,1.27663e-19,9.83251e-01,9.99999e-01
1.785987925e+00,6.33952e-19,6.44535e-19,9.83579e-01,9.99999e-01
1.794917864e+00,6.95581e-18,7.06962e-18,9.83901e-01,9.99999e-01
1.803892454e+00,1.33659e-17,1.35802e-17,9.84216e-01,9.99999e-01
1.812911916e+00,1.00240e-16,1.01816e-16,9.84526e-01,9.99999e-01
1.821976476e+00,6.03527e-17,6.12823e-17,9.84829e-01,9.99999e-01
1.831086358e+00,6.53694e-14,6.63563e-14,9.85127e-01,9.99999e-01
1.840241790e+00,8.65287e-12,8.78090e-12,9.85418e-01,9.99999e-01
1.849442999e+00,2.58303e-08,2.62049e-08,9.85704e-01,9.99999e-01
1.858690214e+00,1.42236e-07,1.44257e-07,9.85984e-01,9.99999e-01
1.867983665e+00,2.38846e-08,2.42173e-08,9.86259e-01,9.99999e-01
1.877323583e+00,2.04106e-36,2.06893e-36,9.86529e-01,9.99999e-01
