#,Wave/freq,Total,CO2,Rayleigh,CIA
4.000000000e-01,3.98972e-07,9.99999e-01,3.98972e-07,9.99999e-01
4.020000000e-01,5.33910e-07,9.99999e-01,5.33910e-07,9.99999e-01
4.040100000e-01,7.10176e-07,9.99999e-01,7.10176e-07,9.99999e-01
4.060300500e-01,9.39327e-07,9.99999e-01,9.39327e-07,9.99999e-01
4.080602003e-01,1.23557e-06,9.99999e-01,1.23557e-06,9.99999e-01
4.101005013e-01,1.61647e-06,9.99999e-01,1.61647e-06,9.99999e-01
4.121510038e-01,2.10360e-06,9.99999e-01,2.10360e-06,9.99999e-01
4.142117588e-01,2.72332e-06,9.99999e-01,2.72332e-06,9.99999e-01
4.162828176e-01,3.50768e-06,9.99999e-01,3.50768e-06,9.99999e-01
4.183642317e-01,4.49541e-06,9.99999e-01,4.49541e-06,9.99999e-01
4.204560528e-01,5.73311e-06,9.99999e-01,5.73311e-06,9.99999e-01
4.225583331e-01,7.27654e-06,9.99999e-01,7.27654e-06,9.99999e-01
4.246711247e-01,9.19210e-06,9.99999e-01,9.19210e-06,9.99999e-01
4.267944804e-01,1.15585e-05,9.99999e-01,1.15585e-05,9.99999e-01
4.289284528e-01,1.44684e-05,9.99999e-01,1.44684e-05,9.99999e-01
4.310730950e-01,1.80307e-05,9.99999e-01,1.80307e-05,9.99999e-01
4.332284605e-01,2.23727e-05,9.99999e-01,2.23727e-05,9.99999e-01
4.353946028e-01,2.76423e-05,9.99999e-01,2.76423e-05,9.99999e-01
4.375715758e-01,3.40106e-05,9.99999e-01,3.40106e-05,9.99999e-01
4.397594337e-01,4.16750e-05,9.99999e-01,4.16750e-05,9.99999e-01
4.419582309e-01,5.08620e-05,9.99999e-01,5.08620e-05,9.99999e-01
4.441680220e-01,6.18306e-05,9.99999e-01,6.18306e-05,9.99999e-01
4.463888621e-01,7.48751e-05,9.99999e-01,7.48751e-05,9.99999e-01
4.486208064e-01,9.03295e-05,9.99999e-01,9.03295e-05,9.99999e-01
4.508639105e-01,1.08570e-04,9.99999e-01,1.08570e-04,9.99999e-01
4.531182300e-01,1.30022e-04,9.99999e-01,1.30022e-04,9.99999e-01
4.553838212e-01,1.55158e-04,9.99999e-01,1.55158e-04,9.99999e-01
4.576607403e-01,1.84508e-04,9.99999e-01,1.84508e-04,9.99999e-01
4.599490440e-01,2.18661e-04,9.99999e-01,2.18661e-04,9.99999e-01
4.622487892e-01,2.58267e-04,9.99999e-01,2.58267e-04,9.99999e-01
4.645600332e-01,3.04047e-04,9.99999e-01,3.04047e-04,9.99999e-01
4.668828333e-01,3.56789e-04,9.99999e-01,3.56789e-04,9.99999e-01
4.692172475e-01,4.17359e-04,9.99999e-01,4.17359e-04,9.99999e-01
4.715633337e-01,4.86701e-04,9.99999e-01,4.86701e-04,9.99999e-01
4.739211504e-01,5.65845e-04,9.99999e-01,5.65845e-04,9.99999e-01
4.762907561e-01,6.55903e-04,9.99999e-01,6.55903e-04,9.99999e-01
4.786722099e-01,7.58080e-04,9.99999e-01,7.58080e-04,9.99999e-01
4.810655710e-01,8.73672e-04,9.99999e-01,8.73672e-04,9.99999e-01
4.834708988e-01,1.00407e-03,9.99999e-01,1.00407e-03,9.99999e-01
4.858882533e-01,1.15077e-03,9.99999e-01,1.15077e-03,9.99999e-01
4.883176946e-01,1.31534e-03,9.99999e-01,1.31534e-03,9.99999e-01
4.907592831e-01,1.49950e-03,9.99999e-01,1.49950e-03,9.99999e-01
4.932130795e-01,1.70501e-03,9.99999e-01,1.70501e-03,9.99999e-01
4.956791449e-01,1.93378e-03,9.99999e-01,1.93378e-03,9.99999e-01
4.981575406e-01,2.18780e-03,9.99999e-01,2.18780e-03,9.99999e-01
5.006483283e-01,2.46916e-03,9.99999e-01,2.46916e-03,9.99999e-01
5.031515699e-01,2.78005e-03,9.99999e-01,2.78005e-03,9.99999e-01
5.056673278e-01,3.12277e-03,9.99999e-01,3.12277e-03,9.99999e-01
5.081956644e-01,3.49968e-03,9.99999e-01,3.49968e-03,9.99999e-01
5.107366428e-01,3.91327e-03,9.99999e-01,3.91327e-03,9.99999e-01
5.132903260e-01,4.36610e-03,9.99999e-01,4.36610e-03,9.99999e-01
5.158567776e-01,4.86079e-03,9.99999e-01,4.86079e-03,9.99999e-01
5.184360615e-01,5.40008e-03,9.99999e-01,5.40008e-03,9.99999e-01
5.210282418e-01,5.98675e-03,9.99999e-01,5.98675e-03,9.99999e-01
5.236333830e-01,6.62365e-03,9.99999e-01,6.62365e-03,9.99999e-01
5.262515499e-01,7.31368e-03,9.99999e-01,7.31368e-03,9.99999e-01
5.288828077e-01,8.05981e-03,9.99999e-01,8.05981e-03,9.99999e-01
5.315272217e-01,8.86502e-03,9.99999e-01,8.86502e-03,9.99999e-01
5.341848578e-01,9.73236e-03,9.99999e-01,9.73236e-03,9.99999e-01
5.368557821e-01,1.06649e-02,9.99999e-01,1.06649e-02,9.99999e-01
5.395400610e-01,1.16656e-02,9.99999e-01,1.16656e-02,9.99999e-01
5.422377613e-01,1.27377e-02,9.99999e-01,1.27377e-02,9.99999e-01
5.449489501e-01,1.38842e-02,9.99999e-01,1.38842e-02,9.99999e-01
5.476736949e-01,1.51081e-02,9.99999e-01,1.51081e-02,9.99999e-01
5.504120634e-01,1.64125e-02,9.99999e-01,1.64125e-02,9.99999e-01
5.531641237e-01,1.78004e-02,9.99999e-01,1.78004e-02,9.99999e-01
5.559299443e-01,1.92748e-02,9.99999e-01,1.92748e-02,9.99999e-01
5.587095940e-01,2.08384e-02,9.99999e-01,2.08384e-02,9.99999e-01
5.615031420e-01,2.24942e-02,9.99999e-01,2.24942e-02,9.99999e-01
5.643106577e-01,2.42450e-02,9.99999e-01,2.42450e-02,9.99999e-01
5.671322110e-01,2.60933e-02,9.99999e-01,2.60933e-02,9.99999e-01
5.699678720e-01,2.80419e-02,9.99999e-01,2.80419e-02,9.99999e-01
5.728177114e-01,3.00931e-02,9.99999e-01,3.00931e-02,9.99999e-01
5.756818000e-01,3.22493e-02,9.99999e-01,3.22493e-02,9.99999e-01
5.785602090e-01,3.45129e-02,9.99999e-01,3.45129e-02,9.99999e-01
5.814530100e-01,3.68858e-02,9.99999e-01,3.68858e-02,9.99999e-01
5.843602750e-01,3.93702e-02,9.99999e-01,3.93702e-02,9.99999e-01
5.872820764e-01,4.19678e-02,9.99999e-01,4.19678e-02,9.99999e-01
5.902184868e-01,4.46804e-02,9.99999e-01,4.46804e-02,9.99999e-01
5.931695792e-01,4.75096e-02,9.99999e-01,4.75096e-02,9.99999e-01
5.961354271e-01,5.04566e-02,9.99999e-01,5.04566e-02,9.99999e-01
5.991161043e-01,5.35227e-02,9.99999e-01,5.35227e-02,9.99999e-01
6.021116848e-01,5.67091e-02,9.99999e-01,5.67091e-02,9.99999e-01
6.051222432e-01,6.00166e-02,9.99999e-01,6.00166e-02,9.99999e-01
6.081478544e-01,6.34459e-02,9.99999e-01,6.34459e-02,9.99999e-01
6.111885937e-01,6.69976e-02,9.99999e-01,6.69976e-02,9.99999e-01
6.142445367e-01,7.06720e-02,9.99999e-01,7.06720e-02,9.99999e-01
6.173157594e-01,7.44693e-02,9.99999e-01,7.44693e-02,9.99999e-01
6.204023382e-01,7.83896e-02,9.99999e-01,7.83896e-02,9.99999e-01
6.235043498e-01,8.24328e-02,9.99999e-01,8.24328e-02,9.99999e-01
6.266218716e-01,8.65983e-02,9.99999e-01,8.65983e-02,9.99999e-01
6.297549810e-01,9.08859e-02,9.99999e-01,9.08859e-02,9.99999e-01
6.329037559e-01,9.52947e-02,9.99999e-01,9.52947e-02,9.99999e-01
6.360682746e-01,9.98239e-02,9.99999e-01,9.98239e-02,9.99999e-01
6.392486160e-01,1.04473e-01,9.99999e-01,1.04473e-01,9.99999e-01
6.424448591e-01,1.09239e-01,9.99999e-01,1.09239e-01,9.99999e-01
6.456570834e-01,1.14123e-01,9.99999e-01,1.14123e-01,9.99999e-01
6.488853688e-01,1.19122e-01,9.99999e-01,1.19122e-01,9.99999e-01
6.521297956e-01,1.24235e-01,9.99999e-01,1.24235e-01,9.99999e-01
6.553904446e-01,1.29460e-01,9.99999e-01,1.29460e-01,9.99999e-01
6.586673968e-01,1.34795e-01,9.99999e-01,1.34795e-01,9.99999e-01
6.619607338e-01,1.40237e-01,9.99999e-01,1.40237e-01,9.99999e-01
6.652705375e-01,1.45786e-01,9.99999e-01,1.45786e-01,9.99999e-01
6.685968902e-01,1.51438e-01,9.99999e-01,1.51438e-01,9.99999e-01
6.719398746e-01,1.57191e-01,9.99999e-01,1.57191e-01,9.99999e-01
6.752995740e-01,1.63042e-01,9.99999e-01,1.63042e-01,9.99999e-01
6.786760719e-01,1.68989e-01,9.99999e-01,1.68989e-01,9.99999e-01
6.820694522e-01,1.75029e-01,9.99999e-01,1.75029e-01,9.99999e-01
6.854797995e-01,1.81159e-01,9.99999e-01,1.81159e-01,9.99999e-01
6.889071985e-01,1.87377e-01,9.99999e-01,1.87377e-01,9.99999e-01
6.923517345e-01,1.93678e-01,9.99999e-01,1.93678e-01,9.99999e-01
6.958134932e-01,2.00061e-01,9.99999e-01,2.00061e-01,9.99999e-01
6.992925606e-01,2.06522e-01,9.99999e-01,2.06522e-01,9.99999e-01
7.027890234e-01,2.13058e-01,9.99999e-01,2.13058e-01,9.99999e-01
7.063029686e-01,2.19665e-01,9.99999e-01,2.19665e-01,9.99999e-01
7.098344834e-01,2.26341e-01,9.99999e-01,2.26341e-01,9.99999e-01
7.133836558e-01,2.33082e-01,9.99999e-01,2.33082e-01,9.99999e-01
7.169505741e-01,2.39884e-01,9.99999e-01,2.39884e-01,9.99999e-01
7.205353270e-01,2.46745e-01,9.99999e-01,2.46745e-01,9.99999e-01
7.241380036e-01,2.53660e-01,9.99999e-01,2.53660e-01,9.99999e-01
7.277586936e-01,2.60628e-01,9.99999e-01,2.60628e-01,9.99999e-01
7.313974871e-01,2.67643e-01,9.99999e-01,2.67643e-01,9.99999e-01
7.350544745e-01,2.74702e-01,9.99999e-01,2.74702e-01,9.99999e-01
7.387297469e-01,2.81803e-01,9.99999e-01,2.81803e-01,9.99999e-01
7.424233956e-01,2.88942e-01,9.99999e-01,2.88942e-01,9.99999e-01
7.461355126e-01,2.96116e-01,9.99999e-01,2.96116e-01,9.99999e-01
7.498661902e-01,3.03320e-01,9.99999e-01,3.03320e-01,9.99999e-01
7.536155211e-01,3.10553e-01,9.99999e-01,3.10553e-01,9.99999e-01
7.573835987e-01,3.17809e-01,9.99999e-01,3.17809e-01,9.99999e-01
7.611705167e-01,3.25087e-01,9.99999e-01,3.25087e-01,9.99999e-01
7.649763693e-01,3.32383e-01,9.99999e-01,3.32383e-01,9.99999e-01
7.688012511e-01,3.39694e-01,9.99999e-01,3.39694e-01,9.99999e-01
7.726452574e-01,3.47017e-01,9.99999e-01,3.47017e-01,9.99999e-01
7.765084837e-01,3.54348e-01,9.99999e-01,3.54348e-01,9.99999e-01
7.803910261e-01,3.44632e-01,9.52853e-01,3.61684e-01,9.99999e-01
7.842929812e-01,2.98696e-01,8.09422e-01,3.69023e-01,9.99999e-01
7.882144461e-01,2.99985e-01,7.97066e-01,3.76362e-01,9.99999e-01
7.921555184e-01,3.35612e-01,8.74679e-01,3.83697e-01,9.99999e-01
7.961162960e-01,3.57595e-01,9.14504e-01,3.91026e-01,9.99999e-01
8.000968774e-01,3.79478e-01,9.52634e-01,3.98346e-01,9.99999e-01
8.040973618e-01,3.95611e-01,9.75241e-01,4.05654e-01,9.99999e-01
8.081178486e-01,4.08210e-01,9.88524e-01,4.12949e-01,9.99999e-01
8.121584379e-01,4.18742e-01,9.96466e-01,4.20226e-01,9.99999e-01
8.162192301e-01,4.27150e-01,9.99218e-01,4.27484e-01,9.99999e-01
8.203003262e-01,4.34716e-01,9.99988e-01,4.34721e-01,9.99999e-01
8.244018279e-01,4.41933e-01,9.99999e-01,4.41933e-01,9.99999e-01
8.285238370e-01,4.49119e-01,9.99999e-01,4.49119e-01,9.99999e-01
8.326664562e-01,4.56277e-01,9.99999e-01,4.56277e-01,9.99999e-01
8.368297885e-01,4.63404e-01,9.99999e-01,4.63404e-01,9.99999e-01
8.410139374e-01,4.70498e-01,9.99999e-01,4.70498e-01,9.99999e-01
8.452190071e-01,4.77557e-01,9.99999e-01,4.77557e-01,9.99999e-01
8.494451021e-01,4.84580e-01,9.99999e-01,4.84580e-01,9.99999e-01
8.536923276e-01,4.91564e-01,9.99999e-01,4.91564e-01,9.99999e-01
8.579607893e-01,4.98508e-01,9.99999e-01,4.98508e-01,9.99999e-01
8.622505932e-01,5.05410e-01,9.99999e-01,5.05410e-01,9.99999e-01
8.665618462e-01,4.64607e-01,9.06958e-01,5.12269e-01,9.99999e-01
8.708946554e-01,3.04200e-01,5.86034e-01,5.19082e-01,9.99999e-01
8.752491287e-01,3.41107e-01,6.48679e-01,5.25849e-01,9.99999e-01
8.796253743e-01,4.19272e-01,7.87265e-01,5.32567e-01,9.99999e-01
8.840235012e-01,4.76098e-01,8.82911e-01,5.39236e-01,9.99999e-01
8.884436187e-01,5.19767e-01,9.52206e-01,5.45855e-01,9.99999e-01
8.928858368e-01,5.41547e-01,9.80315e-01,5.52421e-01,9.99999e-01
8.973502660e-01,5.56254e-01,9.95203e-01,5.58935e-01,9.99999e-01
9.018370173e-01,5.65096e-01,9.99471e-01,5.65394e-01,9.99999e-01
9.063462024e-01,5.63928e-01,9.86234e-01,5.71799e-01,9.99999e-01
9.108779334e-01,5.60269e-01,9.69076e-01,5.78147e-01,9.99999e-01
9.154323231e-01,5.80177e-01,9.92707e-01,5.84438e-01,9.99999e-01
9.200094847e-01,5.31512e-01,8.99843e-01,5.90672e-01,9.99999e-01
9.246095321e-01,5.11820e-01,8.57539e-01,5.96846e-01,9.99999e-01
9.292325798e-01,5.34331e-01,8.86177e-01,6.02962e-01,9.99999e-01
9.338787427e-01,5.42151e-01,8.90206e-01,6.09017e-01,9.99999e-01
9.385481364e-01,5.64534e-01,9.17923e-01,6.15012e-01,9.99999e-01
9.432408771e-01,5.89255e-01,9.48962e-01,6.20946e-01,9.99999e-01
9.479570815e-01,6.10170e-01,9.73440e-01,6.26818e-01,9.99999e-01
9.526968669e-01,6.24485e-01,9.87127e-01,6.32628e-01,9.99999e-01
9.574603512e-01,6.34851e-01,9.94478e-01,6.38376e-01,9.99999e-01
9.622476530e-01,6.42950e-01,9.98276e-01,6.44060e-01,9.99999e-01
9.670588912e-01,6.49347e-01,9.99483e-01,6.49682e-01,9.99999e-01
9.718941857e-01,6.55216e-01,9.99963e-01,6.55240e-01,9.99999e-01
9.767536566e-01,6.60734e-01,9.99999e-01,6.60734e-01,9.99999e-01
9.816374249e-01,6.66165e-01,9.99999e-01,6.66165e-01,9.99999e-01
9.865456120e-01,6.71531e-01,9.99999e-01,6.71531e-01,9.99999e-01
9.914783401e-01,6.76834e-01,9.99999e-01,6.76834e-01,9.99999e-01
9.964357318e-01,6.82073e-01,9.99999e-01,6.82073e-01,9.99999e-01
1.001417910e+00,6.87247e-01,9.99999e-01,6.87247e-01,9.99999e-01
1.006425000e+00,6.92357e-01,9.99999e-01,6.92357e-01,9.99999e-01
1.011457125e+00,6.97404e-01,9.99999e-01,6.97404e-01,9.99999e-01
1.016514411e+00,7.02386e-01,9.99999e-01,7.02386e-01,9.99999e-01
1.021596983e+00,7.07248e-01,9.99919e-01,7.07304e-01,9.99999e-01
1.026704968e+00,7.08302e-01,9.94584e-01,7.12159e-01,9.99999e-01
1.031838492e+00,6.74787e-01,9.41191e-01,7.16950e-01,9.99999e-01
1.036997685e+00,7.88274e-02,1.09228e-01,7.21678e-01,9.99999e-01
1.042182673e+00,3.95740e-02,5.44839e-02,7.26342e-01,9.99999e-01
1.047393587e+00,5.66806e-02,7.75444e-02,7.30944e-01,9.99999e-01
1.052630555e+00,4.65743e-04,6.33247e-04,7.35483e-01,9.99999e-01
1.057893707e+00,1.43072e-03,1.93351e-03,7.39960e-01,9.99999e-01
1.063183176e+00,7.16046e-03,9.61942e-03,7.44375e-01,9.99999e-01
1.068499092e+00,2.73425e-02,3.65186e-02,7.48728e-01,9.99999e-01
1.073841587e+00,9.26046e-02,1.22977e-01,7.53020e-01,9.99999e-01
1.079210795e+00,2.00835e-01,2.65216e-01,7.57251e-01,9.99999e-01
1.084606849e+00,3.65127e-01,4.79533e-01,7.61422e-01,9.99999e-01
1.090029883e+00,5.22128e-01,6.82045e-01,7.65532e-01,9.99999e-01
1.095480033e+00,6.37363e-01,8.28192e-01,7.69583e-01,9.99999e-01
1.100957433e+00,7.06326e-01,9.13067e-01,7.73574e-01,9.99999e-01
1.106462220e+00,7.48832e-01,9.63117e-01,7.77507e-01,9.99999e-01
1.111994531e+00,7.70571e-01,9.86164e-01,7.81382e-01,9.99999e-01
1.117554504e+00,7.82543e-01,9.96617e-01,7.85199e-01,9.99999e-01
1.123142276e+00,7.88784e-01,9.99778e-01,7.88958e-01,9.99999e-01
1.128757988e+00,7.92661e-01,9.99999e-01,7.92661e-01,9.99999e-01
1.134401778e+00,7.96307e-01,9.99999e-01,7.96307e-01,9.99999e-01
1.140073787e+00,7.99898e-01,9.99999e-01,7.99898e-01,9.99999e-01
1.145774156e+00,8.03433e-01,9.99999e-01,8.03433e-01,9.99999e-01
1.151503026e+00,8.06914e-01,9.99999e-01,8.06914e-01,9.99999e-01
1.157260541e+00,8.10341e-01,9.99999e-01,8.10341e-01,9.99999e-01
1.163046844e+00,8.13714e-01,9.99999e-01,8.13714e-01,9.99999e-01
1.168862078e+00,8.17034e-01,9.99999e-01,8.17034e-01,9.99999e-01
1.174706389e+00,8.20302e-01,9.99999e-01,8.20302e-01,9.99999e-01
1.180579921e+00,8.23517e-01,9.99999e-01,8.23517e-01,9.99999e-01
1.186482820e+00,8.26672e-01,9.99987e-01,8.26682e-01,9.99999e-01
1.192415234e+00,8.13925e-01,9.80873e-01,8.29796e-01,9.99999e-01
1.198377311e+00,4.58685e-01,5.50735e-01,8.32859e-01,9.99999e-01
1.204369197e+00,4.99850e-15,5.97996e-15,8.35874e-01,9.99999e-01
1.210391043e+00,3.79852e-57,4.52830e-57,8.38839e-01,9.99999e-01
1.216442998e+00,1.29093e-49,1.53362e-49,8.41756e-01,9.99999e-01
1.222525213e+00,6.88216e-49,8.14817e-49,8.44625e-01,9.99999e-01
1.228637839e+00,7.39258e-38,8.72335e-38,8.47447e-01,9.99999e-01
1.234781029e+00,4.29613e-24,5.05295e-24,8.50222e-01,9.99999e-01
1.240954934e+00,3.54721e-16,4.15874e-16,8.52951e-01,9.99999e-01
1.247159708e+00,1.60463e-08,1.87536e-08,8.55635e-01,9.99999e-01
1.253395507e+00,1.26161e-05,1.46993e-05,8.58274e-01,9.99999e-01
1.259662485e+00,1.44962e-03,1.68390e-03,8.60869e-01,9.99999e-01
1.265960797e+00,2.23563e-02,2.58927e-02,8.63420e-01,9.99999e-01
1.272290601e+00,1.76722e-01,2.04084e-01,8.65929e-01,9.99999e-01
1.278652054e+00,1.49154e-01,1.71758e-01,8.68394e-01,9.99999e-01
1.285045314e+00,1.53026e-03,1.75726e-03,8.70818e-01,9.99999e-01
1.291470541e+00,2.56251e-07,2.93461e-07,8.73200e-01,9.99999e-01
1.297927893e+00,2.24593e-03,2.56519e-03,8.75542e-01,9.99999e-01
1.304417533e+00,4.79888e-02,5.46666e-02,8.77844e-01,9.99999e-01
1.310939621e+00,7.76403e-03,8.82170e-03,8.80106e-01,9.99999e-01
1.317494319e+00,3.49356e-20,3.95947e-20,8.82329e-01,9.99999e-01
1.324081790e+00,1.48655e-13,1.68064e-13,8.84513e-01,9.99999e-01
1.330702199e+00,4.92961e-08,5.55974e-08,8.86660e-01,9.99999e-01
1.337355710e+00,1.14810e-07,1.29178e-07,8.88769e-01,9.99999e-01
1.344042489e+00,3.93115e-08,4.41285e-08,8.90842e-01,9.99999e-01
1.350762701e+00,2.87363e-08,3.21839e-08,8.92878e-01,9.99999e-01
1.357516515e+00,1.82449e-05,2.03881e-05,8.94879e-01,9.99999e-01
1.364304097e+00,6.30787e-04,7.03341e-04,8.96844e-01,9.99999e-01
1.371125618e+00,2.11738e-02,2.35586e-02,8.98775e-01,9.99999e-01
1.377981246e+00,3.91849e-02,4.35063e-02,9.00671e-01,9.99999e-01
1.384871152e+00,1.45678e-01,1.61410e-01,9.02534e-01,9.99999e-01
1.391795508e+00,1.67817e-01,1.85564e-01,9.04364e-01,9.99999e-01
1.398754485e+00,3.18773e-01,3.51783e-01,9.06162e-01,9.99999e-01
1.405748258e+00,4.21898e-01,4.64682e-01,9.07927e-01,9.99999e-01
1.412776999e+00,5.60098e-01,6.15721e-01,9.09661e-01,9.99999e-01
1.419840884e+00,4.99015e-01,5.47546e-01,9.11364e-01,9.99999e-01
1.426940089e+00,3.49005e-02,3.82246e-02,9.13036e-01,9.99999e-01
1.434074789e+00,0.00000e+00,0.00000e+00,9.14678e-01,9.99999e-01
1.441245163e+00,0.00000e+00,0.00000e+00,9.16291e-01,9.99999e-01
1.448451389e+00,0.00000e+00,0.00000e+00,9.17875e-01,9.99999e-01
1.455693646e+00,0.00000e+00,0.00000e+00,9.19430e-01,9.99999e-01
1.462972114e+00,4.48457e-225,4.86947e-225,9.20957e-01,9.99999e-01
1.470286975e+00,6.15811e-94,6.67577e-94,9.22456e-01,9.99999e-01
1.477638409e+00,2.26871e-59,2.45550e-59,9.23927e-01,9.99999e-01
1.485026601e+00,1.92026e-33,2.07512e-33,9.25373e-01,9.99999e-01
1.492451734e+00,1.67665e-28,1.80909e-28,9.26791e-01,9.99999e-01
1.499913993e+00,6.70780e-13,7.22680e-13,9.28184e-01,9.99999e-01
1.507413563e+00,1.09994e-11,1.18330e-11,9.29551e-01,9.99999e-01
1.514950631e+00,4.25474e-13,4.57059e-13,9.30894e-01,9.99999e-01
1.522525384e+00,1.84104e-42,1.97491e-42,9.32211e-01,9.99999e-01
1.530138011e+00,3.50943e-100,3.75941e-100,9.33505e-01,9.99999e-01
1.537788701e+00,2.45843e-74,2.62997e-74,9.34774e-01,9.99999e-01
1.545477645e+00,2.16311e-16,2.31097e-16,9.36021e-01,9.99999e-01
1.553205033e+00,9.52250e-12,1.01601e-11,9.37244e-01,9.99999e-01
1.560971058e+00,3.11431e-12,3.31859e-12,9.38444e-01,9.99999e-01
1.568775913e+00,1.40710e-252,1.49751e-252,9.39623e-01,9.99999e-01
1.576619793e+00,0.00000e+00,0.00000e+00,9.40779e-01,9.99999e-01
1.584502892e+00,5.43472e-323,5.92879e-323,9.41914e-01,9.99999e-01
1.592425406e+00,3.63397e-225,3.85351e-225,9.43028e-01,9.99999e-01
1.600387533e+00,0.00000e+00,0.00000e+00,9.44122e-01,9.99999e-01
1.608389471e+00,0.00000e+00,0.00000e+00,9.45195e-01,9.99999e-01
1.616431418e+00,0.00000e+00,0.00000e+00,9.46247e-01,9.99999e-01
1.624513575e+00,5.92954e-286,6.25953e-286,9.47281e-01,9.99999e-01
1.632636143e+00,1.90531e-212,2.00919e-212,9.48295e-01,9.99999e-01
1.640799324e+00,4.30747e-87,4.53757e-87,9.49290e-01,9.99999e-01
1.649003321e+00,4.31661e-87,4.54252e-87,9.50266e-01,9.99999e-01
1.657248337e+00,1.70835e-67,1.79595e-67,9.51224e-01,9.99999e-01
1.665534579e+00,6.10130e-68,6.40782e-68,9.52164e-01,9.99999e-01
1.673862252e+00,1.30393e-43,1.36812e-43,9.53086e-01,9.99999e-01
1.682231563e+00,1.82539e-30,1.91342e-30,9.53991e-01,9.99999e-01
1.690642721e+00,2.59390e-17,2.71646e-17,9.54879e-01,9.99999e-01
1.699095934e+00,3.48220e-11,3.64342e-11,9.55750e-01,9.99999e-01
1.707591414e+00,3.74197e-06,3.91171e-06,9.56605e-01,9.99999e-01
1.716129371e+00,7.91272e-04,8.26441e-04,9.57444e-01,9.99999e-01
1.724710018e+00,1.79780e-02,1.87609e-02,9.58267e-01,9.99999e-01
1.733333568e+00,7.05552e-02,7.35659e-02,9.59074e-01,9.99999e-01
1.742000236e+00,2.04441e-01,2.12989e-01,9.59866e-01,9.99999e-01
1.750710237e+00,2.94724e-03,3.06799e-03,9.60643e-01,9.99999e-01
1.759463788e+00,1.18923e-41,1.23697e-41,9.61405e-01,9.99999e-01
1.768261107e+00,1.30869e-43,1.36017e-43,9.62152e-01,9.99999e-01
1.777102413e+00,2.80773e-42,2.91595e-42,9.62886e-01,9.99999e-01
1.785987925e+00,7.52608e-40,7.81033e-40,9.63606e-01,9.99999e-01
1.794917864e+00,4.69477e-38,4.86851e-38,9.64311e-01,9.99999e-01
1.803892454e+00,1.16591e-36,1.20819e-36,9.65004e-01,9.99999e-01
1.812911916e+00,3.35059e-35,3.46965e-35,9.65683e-01,9.99999e-01
1.821976476e+00,2.70539e-35,2.79960e-35,9.66349e-01,9.99999e-01
1.831086358e+00,1.65311e-28,1.70952e-28,9.67003e-01,9.99999e-01
1.840241790e+00,2.75210e-24,2.84412e-24,9.67644e-01,9.99999e-01
1.849442999e+00,5.85039e-17,6.04208e-17,9.68273e-01,9.99999e-01
1.858690214e+00,7.76955e-16,8.01902e-16,9.68890e-01,9.99999e-01
1.867983665e+00,1.41076e-16,1.45515e-16,9.69495e-01,9.99999e-01
1.877323583e+00,6.12860e-79,6.31756e-79,9.70088e-01,9.99999e-01
