#,Wave/freq,Total,CO2,Rayleigh,CIA
4.000000000e-01,2.70218e-06,9.99999e-01,2.70218e-06,9.99999e-01
4.020000000e-01,3.48188e-06,9.99999e-01,3.48188e-06,9.99999e-01
4.040100000e-01,4.46299e-06,9.99999e-01,4.46299e-06,9.99999e-01
4.060300500e-01,5.69258e-06,9.99999e-01,5.69258e-06,9.99999e-01
4.080602003e-01,7.22612e-06,9.99999e-01,7.22612e-06,9.99999e-01
4.101005013e-01,9.12966e-06,9.99999e-01,9.12966e-06,9.99999e-01
4.121510038e-01,1.14815e-05,9.99999e-01,1.14815e-05,9.99999e-01
4.142117588e-01,1.43739e-05,9.99999e-01,1.43739e-05,9.99999e-01
4.162828176e-01,1.79153e-05,9.99999e-01,1.79153e-05,9.99999e-01
4.183642317e-01,2.22324e-05,9.99999e-01,2.22324e-05,9.99999e-01
4.204560528e-01,2.74723e-05,9.99999e-01,2.74723e-05,9.99999e-01
4.225583331e-01,3.38055e-05,9.99999e-01,3.38055e-05,9.99999e-01
4.246711247e-01,4.14287e-05,9.99999e-01,4.14287e-05,9.99999e-01
4.267944804e-01,5.05673e-05,9.99999e-01,5.05673e-05,9.99999e-01
4.289284528e-01,6.14794e-05,9.99999e-01,6.14794e-05,9.99999e-01
4.310730950e-01,7.44582e-05,9.99999e-01,7.44582e-05,9.99999e-01
4.332284605e-01,8.98364e-05,9.99999e-01,8.98364e-05,9.99999e-01
4.353946028e-01,1.07990e-04,9.99999e-01,1.07990e-04,9.99999e-01
4.375715758e-01,1.29340e-04,9.99999e-01,1.29340e-04,9.99999e-01
4.397594337e-01,1.54360e-04,9.99999e-01,1.54360e-04,9.99999e-01
4.419582309e-01,1.83578e-04,9.99999e-01,1.83578e-04,9.99999e-01
4.441680220e-01,2.17580e-04,9.99999e-01,2.17580e-04,9.99999e-01
4.463888621e-01,2.57016e-04,9.99999e-01,2.57016e-04,9.99999e-01
4.486208064e-01,3.02603e-04,9.99999e-01,3.02603e-04,9.99999e-01
4.508639105e-01,3.55128e-04,9.99999e-01,3.55128e-04,9.99999e-01
4.531182300e-01,4.15454e-04,9.99999e-01,4.15454e-04,9.99999e-01
4.553838212e-01,4.84524e-04,9.99999e-01,4.84524e-04,9.99999e-01
4.576607403e-01,5.63363e-04,9.99999e-01,5.63363e-04,9.99999e-01
4.599490440e-01,6.53083e-04,9.99999e-01,6.53083e-04,9.99999e-01
4.622487892e-01,7.54885e-04,9.99999e-01,7.54885e-04,9.99999e-01
4.645600332e-01,8.70063e-04,9.99999e-01,8.70063e-04,9.99999e-01
4.668828333e-01,1.00000e-03,9.99999e-01,1.00000e-03,9.99999e-01
4.692172475e-01,1.14620e-03,9.99999e-01,1.14620e-03,9.99999e-01
4.715633337e-01,1.31023e-03,9.99999e-01,1.31023e-03,9.99999e-01
4.739211504e-01,1.49378e-03,9.99999e-01,1.49378e-03,9.99999e-01
4.762907561e-01,1.69864e-03,9.99999e-01,1.69864e-03,9.99999e-01
4.786722099e-01,1.92670e-03,9.99999e-01,1.92670e-03,9.99999e-01
4.810655710e-01,2.17994e-03,9.99999e-01,2.17994e-03,9.99999e-01
4.834708988e-01,2.46046e-03,9.99999e-01,2.46046e-03,9.99999e-01
4.858882533e-01,2.77045e-03,9.99999e-01,2.77045e-03,9.99999e-01
4.883176946e-01,3.11219e-03,9.99999e-01,3.11219e-03,9.99999e-01
4.907592831e-01,3.48807e-03,9.99999e-01,3.48807e-03,9.99999e-01
4.932130795e-01,3.90054e-03,9.99999e-01,3.90054e-03,9.99999e-01
4.956791449e-01,4.35217e-03,9.99999e-01,4.35217e-03,9.99999e-01
4.981575406e-01,4.84560e-03,9.99999e-01,4.84560e-03,9.99999e-01
5.006483283e-01,5.38354e-03,9.99999e-01,5.38354e-03,9.99999e-01
5.031515699e-01,5.96877e-03,9.99999e-01,5.96877e-03,9.99999e-01
5.056673278e-01,6.60414e-03,9.99999e-01,6.60414e-03,9.99999e-01
5.081956644e-01,7.29257e-03,9.99999e-01,7.29257e-03,9.99999e-01
5.107366428e-01,8.03700e-03,9.99999e-01,8.03700e-03,9.99999e-01
5.132903260e-01,8.84043e-03,9.99999e-01,8.84043e-03,9.99999e-01
5.158567776e-01,9.70590e-03,9.99999e-01,9.70590e-03,9.99999e-01
5.184360615e-01,1.06365e-02,9.99999e-01,1.06365e-02,9.99999e-01
5.210282418e-01,1.16352e-02,9.99999e-01,1.16352e-02,9.99999e-01
5.236333830e-01,1.27051e-02,9.99999e-01,1.27051e-02,9.99999e-01
5.262515499e-01,1.38493e-02,9.99999e-01,1.38493e-02,9.99999e-01
5.288828077e-01,1.50710e-02,9.99999e-01,1.50710e-02,9.99999e-01
5.315272217e-01,1.63729e-02,9.99999e-01,1.63729e-02,9.99999e-01
5.341848578e-01,1.77583e-02,9.99999e-01,1.77583e-02,9.99999e-01
5.368557821e-01,1.92301e-02,9.99999e-01,1.92301e-02,9.99999e-01
5.395400610e-01,2.07911e-02,9.99999e-01,2.07911e-02,9.99999e-01
5.422377613e-01,2.24441e-02,9.99999e-01,2.24441e-02,9.99999e-01
5.449489501e-01,2.41920e-02,9.99999e-01,2.41920e-02,9.99999e-01
5.476736949e-01,2.60375e-02,9.99999e-01,2.60375e-02,9.99999e-01
5.504120634e-01,2.79830e-02,9.99999e-01,2.79830e-02,9.99999e-01
5.531641237e-01,3.00312e-02,9.99999e-01,3.00312e-02,9.99999e-01
5.559299443e-01,3.21843e-02,9.99999e-01,3.21843e-02,9.99999e-01
5.587095940e-01,3.44447e-02,9.99999e-01,3.44447e-02,9.99999e-01
5.615031420e-01,3.68144e-02,9.99999e-01,3.68144e-02,9.99999e-01
5.643106577e-01,3.92954e-02,9.99999e-01,3.92954e-02,9.99999e-01
5.671322110e-01,4.18897e-02,9.99999e-01,4.18897e-02,9.99999e-01
5.699678720e-01,4.45989e-02,9.99999e-01,4.45989e-02,9.99999e-01
5.728177114e-01,4.74246e-02,9.99999e-01,4.74246e-02,9.99999e-01
5.756818000e-01,5.03681e-02,9.99999e-01,5.03681e-02,9.99999e-01
5.785602090e-01,5.34307e-02,9.99999e-01,5.34307e-02,9.99999e-01
5.814530100e-01,5.66135e-02,9.99999e-01,5.66135e-02,9.99999e-01
5.843602750e-01,5.99174e-02,9.99999e-01,5.99174e-02,9.99999e-01
5.872820764e-01,6.33431e-02,9.99999e-01,6.33431e-02,9.99999e-01
5.902184868e-01,6.68912e-02,9.99999e-01,6.68912e-02,9.99999e-01
5.931695792e-01,7.05620e-02,9.99999e-01,7.05620e-02,9.99999e-01
5.961354271e-01,7.43557e-02,9.99999e-01,7.43557e-02,9.99999e-01
5.991161043e-01,7.82724e-02,9.99999e-01,7.82724e-02,9.99999e-01
6.021116848e-01,8.23119e-02,9.99999e-01,8.23119e-02,9.99999e-01
6.051222432e-01,8.64739e-02,9.99999e-01,8.64739e-02,9.99999e-01
6.081478544e-01,9.07578e-02,9.99999e-01,9.07578e-02,9.99999e-01
6.111885937e-01,9.51631e-02,9.99999e-01,9.51631e-02,9.99999e-01
6.142445367e-01,9.96888e-02,9.99999e-01,9.96888e-02,9.99999e-01
6.173157594e-01,1.04334e-01,9.99999e-01,1.04334e-01,9.99999e-01
6.204023382e-01,1.09097e-01,9.99999e-01,1.09097e-01,9.99999e-01
6.235043498e-01,1.13978e-01,9.99999e-01,1.13978e-01,9.99999e-01
6.266218716e-01,1.18973e-01,9.99999e-01,1.18973e-01,9.99999e-01
6.297549810e-01,1.24083e-01,9.99999e-01,1.24083e-01,9.99999e-01
6.329037559e-01,1.29304e-01,9.99999e-01,1.29304e-01,9.99999e-01
6.360682746e-01,1.34636e-01,9.99999e-01,1.34636e-01,9.99999e-01
6.392486160e-01,1.40076e-01,9.99999e-01,1.40076e-01,9.99999e-01
6.424448591e-01,1.45621e-01,9.99999e-01,1.45621e-01,9.99999e-01
6.456570834e-01,1.51270e-01,9.99999e-01,1.51270e-01,9.99999e-01
6.488853688e-01,1.57020e-01,9.99999e-01,1.57020e-01,9.99999e-01
6.521297956e-01,1.62868e-01,9.99999e-01,1.62868e-01,9.99999e-01
6.553904446e-01,1.68812e-01,9.99999e-01,1.68812e-01,9.99999e-01
6.586673968e-01,1.74850e-01,9.99999e-01,1.74850e-01,9.99999e-01
6.619607338e-01,1.80977e-01,9.99999e-01,1.80977e-01,9.99999e-01
6.652705375e-01,1.87192e-01,9.99999e-01,1.87192e-01,9.99999e-01
6.685968902e-01,1.93492e-01,9.99999e-01,1.93492e-01,9.99999e-01
6.719398746e-01,1.99872e-01,9.99999e-01,1.99872e-01,9.99999e-01
6.752995740e-01,2.06331e-01,9.99999e-01,2.06331e-01,9.99999e-01
6.786760719e-01,2.12864e-01,9.99999e-01,2.12864e-01,9.99999e-01
6.820694522e-01,2.19470e-01,9.99999e-01,2.19470e-01,9.99999e-01
6.854797995e-01,2.26144e-01,9.99999e-01,2.26144e-01,9.99999e-01
6.889071985e-01,2.32882e-01,9.99999e-01,2.32882e-01,9.99999e-01
6.923517345e-01,2.39683e-01,9.99999e-01,2.39683e-01,9.99999e-01
6.958134932e-01,2.46542e-01,9.99999e-01,2.46542e-01,9.99999e-01
6.992925606e-01,2.53456e-01,9.99999e-01,2.53456e-01,9.99999e-01
7.027890234e-01,2.60422e-01,9.99999e-01,2.60422e-01,9.99999e-01
7.063029686e-01,2.67435e-01,9.99999e-01,2.67435e-01,9.99999e-01
7.098344834e-01,2.74494e-01,9.99999e-01,2.74494e-01,9.99999e-01
7.133836558e-01,2.81594e-01,9.99999e-01,2.81594e-01,9.99999e-01
7.169505741e-01,2.88732e-01,9.99999e-01,2.88732e-01,9.99999e-01
7.205353270e-01,2.95904e-01,9.99999e-01,2.95904e-01,9.99999e-01
7.241380036e-01,3.03108e-01,9.99999e-01,3.03108e-01,9.99999e-01
7.277586936e-01,3.10339e-01,9.99999e-01,3.10339e-01,9.99999e-01
7.313974871e-01,3.17595e-01,9.99999e-01,3.17595e-01,9.99999e-01
7.350544745e-01,3.24873e-01,9.99999e-01,3.24873e-01,9.99999e-01
7.387297469e-01,3.32168e-01,9.99999e-01,3.32168e-01,9.99999e-01
7.424233956e-01,3.39479e-01,9.99999e-01,3.39479e-01,9.99999e-01
7.461355126e-01,3.46801e-01,9.99999e-01,3.46801e-01,9.99999e-01
7.498661902e-01,3.54132e-01,9.99999e-01,3.54132e-01,9.99999e-01
7.536155211e-01,3.61468e-01,9.99999e-01,3.61468e-01,9.99999e-01
7.573835987e-01,3.68807e-01,9.99999e-01,3.68807e-01,9.99999e-01
7.611705167e-01,3.76145e-01,9.99999e-01,3.76145e-01,9.99999e-01
7.649763693e-01,3.83481e-01,9.99999e-01,3.83481e-01,9.99999e-01
7.688012511e-01,3.90810e-01,9.99999e-01,3.90810e-01,9.99999e-01
7.726452574e-01,3.98130e-01,9.99999e-01,3.98130e-01,9.99999e-01
7.765084837e-01,4.05439e-01,9.99999e-01,4.05439e-01,9.99999e-01
7.803910261e-01,3.95654e-01,9.58615e-01,4.12734e-01,9.99999e-01
7.842929812e-01,3.48992e-01,8.30908e-01,4.20012e-01,9.99999e-01
7.882144461e-01,3.50299e-01,8.19851e-01,4.27271e-01,9.99999e-01
7.921555184e-01,3.86669e-01,8.89900e-01,4.34508e-01,9.99999e-01
7.961162960e-01,4.08608e-01,9.25034e-01,4.41721e-01,9.99999e-01
8.000968774e-01,4.30323e-01,9.58599e-01,4.48908e-01,9.99999e-01
8.040973618e-01,4.46204e-01,9.78374e-01,4.56066e-01,9.99999e-01
8.081178486e-01,4.58561e-01,9.89995e-01,4.63194e-01,9.99999e-01
8.121584379e-01,4.68838e-01,9.96913e-01,4.70289e-01,9.99999e-01
8.162192301e-01,4.77024e-01,9.99317e-01,4.77350e-01,9.99999e-01
8.203003262e-01,4.84369e-01,9.99989e-01,4.84374e-01,9.99999e-01
8.244018279e-01,4.91359e-01,9.99999e-01,4.91359e-01,9.99999e-01
8.285238370e-01,4.98304e-01,9.99999e-01,4.98304e-01,9.99999e-01
8.326664562e-01,5.05208e-01,9.99999e-01,5.05208e-01,9.99999e-01
8.368297885e-01,5.12067e-01,9.99999e-01,5.12067e-01,9.99999e-01
8.410139374e-01,5.18882e-01,9.99999e-01,5.18882e-01,9.99999e-01
8.452190071e-01,5.25650e-01,9.99999e-01,5.25650e-01,9.99999e-01
8.494451021e-01,5.32370e-01,9.99999e-01,5.32370e-01,9.99999e-01
8.536923276e-01,5.39041e-01,9.99999e-01,5.39041e-01,9.99999e-01
8.579607893e-01,5.45661e-01,9.99999e-01,5.45661e-01,9.99999e-01
8.622505932e-01,5.52229e-01,9.99999e-01,5.52229e-01,9.99999e-01
8.665618462e-01,5.10950e-01,9.14461e-01,5.58744e-01,9.99999e-01
8.708946554e-01,3.53529e-01,6.25488e-01,5.65205e-01,9.99999e-01
8.752491287e-01,3.91233e-01,6.84438e-01,5.71611e-01,9.99999e-01
8.796253743e-01,4.68956e-01,8.11397e-01,5.77961e-01,9.99999e-01
8.840235012e-01,5.24114e-01,8.97065e-01,5.84254e-01,9.99999e-01
8.884436187e-01,5.65768e-01,9.58134e-01,5.90489e-01,9.99999e-01
8.928858368e-01,5.86410e-01,9.82812e-01,5.96665e-01,9.99999e-01
8.973502660e-01,6.00258e-01,9.95810e-01,6.02783e-01,9.99999e-01
9.018370173e-01,6.08559e-01,9.99537e-01,6.08840e-01,9.99999e-01
9.063462024e-01,6.07488e-01,9.88047e-01,6.14836e-01,9.99999e-01
9.108779334e-01,6.04008e-01,9.72994e-01,6.20772e-01,9.99999e-01
9.154323231e-01,6.22651e-01,9.93624e-01,6.26646e-01,9.99999e-01
9.200094847e-01,5.76482e-01,9.11494e-01,6.32458e-01,9.99999e-01
9.246095321e-01,5.58182e-01,8.74608e-01,6.38207e-01,9.99999e-01
9.292325798e-01,5.79572e-01,9.00104e-01,6.43894e-01,9.99999e-01
9.338787427e-01,5.86865e-01,9.03540e-01,6.49517e-01,9.99999e-01
9.385481364e-01,6.07970e-01,9.28088e-01,6.55077e-01,9.99999e-01
9.432408771e-01,6.31093e-01,9.55371e-01,6.60573e-01,9.99999e-01
9.479570815e-01,6.50573e-01,9.76826e-01,6.66006e-01,9.99999e-01
9.526968669e-01,6.63837e-01,9.88772e-01,6.71374e-01,9.99999e-01
9.574603512e-01,6.73421e-01,9.95185e-01,6.76679e-01,9.99999e-01
9.622476530e-01,6.80894e-01,9.98496e-01,6.81919e-01,9.99999e-01
9.670588912e-01,6.86786e-01,9.99549e-01,6.87096e-01,9.99999e-01
9.718941857e-01,6.92186e-01,9.99968e-01,6.92208e-01,9.99999e-01
9.767536566e-01,6.97256e-01,9.99999e-01,6.97256e-01,9.99999e-01
9.816374249e-01,7.02240e-01,9.99999e-01,7.02240e-01,9.99999e-01
9.865456120e-01,7.07160e-01,9.99999e-01,7.07160e-01,9.99999e-01
9.914783401e-01,7.12017e-01,9.99999e-01,7.12017e-01,9.99999e-01
9.964357318e-01,7.16810e-01,9.99999e-01,7.16810e-01,9.99999e-01
1.001417910e+00,7.21539e-01,9.99999e-01,7.21539e-01,9.99999e-01
1.006425000e+00,7.26206e-01,9.99999e-01,7.26206e-01,9.99999e-01
1.011457125e+00,7.30809e-01,9.99999e-01,7.30809e-01,9.99999e-01
1.016514411e+00,7.35350e-01,9.99999e-01,7.35350e-01,9.99999e-01
1.021596983e+00,7.39779e-01,9.99932e-01,7.39829e-01,9.99999e-01
1.026704968e+00,7.40756e-01,9.95310e-01,7.44246e-01,9.99999e-01
1.031838492e+00,7.09095e-01,9.47226e-01,7.48601e-01,9.99999e-01
1.036997685e+00,9.39262e-02,1.24753e-01,7.52894e-01,9.99999e-01
1.042182673e+00,5.78843e-02,7.64524e-02,7.57127e-01,9.99999e-01
1.047393587e+00,7.64538e-02,1.00425e-01,7.61300e-01,9.99999e-01
1.052630555e+00,1.05761e-03,1.38175e-03,7.65412e-01,9.99999e-01
1.057893707e+00,3.01998e-03,3.92478e-03,7.69464e-01,9.99999e-01
1.063183176e+00,1.27261e-02,1.64535e-02,7.73458e-01,9.99999e-01
1.068499092e+00,4.28223e-02,5.50845e-02,7.77392e-01,9.99999e-01
1.073841587e+00,1.24859e-01,1.59815e-01,7.81269e-01,9.99999e-01
1.079210795e+00,2.45736e-01,3.13004e-01,7.85087e-01,9.99999e-01
1.084606849e+00,4.15310e-01,5.26475e-01,7.88848e-01,9.99999e-01
1.090029883e+00,5.67712e-01,7.16308e-01,7.92553e-01,9.99999e-01
1.095480033e+00,6.75522e-01,8.48431e-01,7.96201e-01,9.99999e-01
1.100957433e+00,7.38857e-01,9.23810e-01,7.99793e-01,9.99999e-01
1.106462220e+00,7.77444e-01,9.67776e-01,8.03330e-01,9.99999e-01
1.111994531e+00,7.97076e-01,9.87931e-01,8.06812e-01,9.99999e-01
1.117554504e+00,8.07849e-01,9.97047e-01,8.10241e-01,9.99999e-01
1.123142276e+00,8.13458e-01,9.99806e-01,8.13615e-01,9.99999e-01
1.128757988e+00,8.16937e-01,9.99999e-01,8.16937e-01,9.99999e-01
1.134401778e+00,8.20206e-01,9.99999e-01,8.20206e-01,9.99999e-01
1.140073787e+00,8.23423e-01,9.99999e-01,8.23423e-01,9.99999e-01
1.145774156e+00,8.26589e-01,9.99999e-01,8.26589e-01,9.99999e-01
1.151503026e+00,8.29705e-01,9.99999e-01,8.29705e-01,9.99999e-01
1.157260541e+00,8.32770e-01,9.99999e-01,8.32770e-01,9.99999e-01
1.163046844e+00,8.35786e-01,9.99999e-01,8.35786e-01,9.99999e-01
1.168862078e+00,8.38752e-01,9.99999e-01,8.38752e-01,9.99999e-01
1.174706389e+00,8.41670e-01,9.99999e-01,8.41670e-01,9.99999e-01
1.180579921e+00,8.44541e-01,9.99999e-01,8.44541e-01,9.99999e-01
1.186482820e+00,8.47356e-01,9.99990e-01,8.47364e-01,9.99999e-01
1.192415234e+00,8.36021e-01,9.83390e-01,8.50141e-01,9.99999e-01
1.198377311e+00,4.73508e-01,5.55192e-01,8.52872e-01,9.99999e-01
1.204369197e+00,2.27991e-13,2.66482e-13,8.55557e-01,9.99999e-01
1.210391043e+00,5.10325e-50,5.94647e-50,8.58197e-01,9.99999e-01
1.216442998e+00,1.82448e-43,2.11953e-43,8.60793e-01,9.99999e-01
1.222525213e+00,7.82833e-43,9.06742e-43,8.63346e-01,9.99999e-01
1.228637839e+00,3.53608e-33,4.08391e-33,8.65855e-01,9.99999e-01
1.234781029e+00,2.94711e-21,3.39403e-21,8.68322e-01,9.99999e-01
1.240954934e+00,2.62916e-14,3.01943e-14,8.70747e-01,9.99999e-01
1.247159708e+00,1.06427e-07,1.21891e-07,8.73131e-01,9.99999e-01
1.253395507e+00,4.85402e-05,5.54445e-05,8.75474e-01,9.99999e-01
1.259662485e+00,3.16204e-03,3.60232e-03,8.77777e-01,9.99999e-01
1.265960797e+00,3.46114e-02,3.93293e-02,8.80040e-01,9.99999e-01
1.272290601e+00,2.19491e-01,2.48782e-01,8.82264e-01,9.99999e-01
1.278652054e+00,1.85918e-01,2.10207e-01,8.84450e-01,9.99999e-01
1.285045314e+00,2.53076e-03,2.85446e-03,8.86597e-01,9.99999e-01
1.291470541e+00,1.61981e-06,1.82266e-06,8.88708e-01,9.99999e-01
1.297927893e+00,3.94391e-03,4.42747e-03,8.90781e-01,9.99999e-01
1.304417533e+00,7.04756e-02,7.89360e-02,8.92819e-01,9.99999e-01
1.310939621e+00,1.64139e-02,1.83432e-02,8.94820e-01,9.99999e-01
1.317494319e+00,1.28716e-17,1.43530e-17,8.96787e-01,9.99999e-01
1.324081790e+00,4.96378e-12,5.52317e-12,8.98718e-01,9.99999e-01
1.330702199e+00,4.00379e-07,4.44561e-07,9.00616e-01,9.99999e-01
1.337355710e+00,7.23447e-07,8.01621e-07,9.02480e-01,9.99999e-01
1.344042489e+00,2.33465e-07,2.58168e-07,9.04311e-01,9.99999e-01
1.350762701e+00,2.38946e-07,2.63705e-07,9.06109e-01,9.99999e-01
1.357516515e+00,6.31615e-05,6.95706e-05,9.07876e-01,9.99999e-01
1.364304097e+00,1.57745e-03,1.73421e-03,9.09610e-01,9.99999e-01
1.371125618e+00,3.37998e-02,3.70891e-02,9.11314e-01,9.99999e-01
1.377981246e+00,5.92383e-02,6.48840e-02,9.12987e-01,9.99999e-01
1.384871152e+00,1.86278e-01,2.03664e-01,9.14631e-01,9.99999e-01
1.391795508e+00,2.10663e-01,2.29920e-01,9.16244e-01,9.99999e-01
1.398754485e+00,3.69470e-01,4.02548e-01,9.17829e-01,9.99999e-01
1.405748258e+00,4.71170e-01,5.12484e-01,9.19384e-01,9.99999e-01
1.412776999e+00,6.03446e-01,6.55270e-01,9.20912e-01,9.99999e-01
1.419840884e+00,5.39186e-01,5.84539e-01,9.22412e-01,9.99999e-01
1.426940089e+00,4.23125e-02,4.57984e-02,9.23885e-01,9.99999e-01
1.434074789e+00,0.00000e+00,0.00000e+00,9.25330e-01,9.99999e-01
1.441245163e+00,0.00000e+00,0.00000e+00,9.26750e-01,9.99999e-01
1.448451389e+00,0.00000e+00,0.00000e+00,9.28143e-01,9.99999e-01
1.455693646e+00,0.00000e+00,0.00000e+00,9.29511e-01,9.99999e-01
1.462972114e+00,3.82209e-196,4.10600e-196,9.30855e-01,9.99999e-01
1.470286975e+00,4.93926e-82,5.29865e-82,9.32173e-01,9.99999e-01
1.477638409e+00,5.92071e-52,6.34270e-52,9.33467e-01,9.99999e-01
1.485026601e+00,2.21189e-29,2.36632e-29,9.34737e-01,9.99999e-01
1.492451734e+00,4.85630e-25,5.18843e-25,9.35984e-01,9.99999e-01
1.499913993e+00,1.71154e-11,1.82621e-11,9.37208e-01,9.99999e-01
1.507413563e+00,2.76229e-10,2.94359e-10,9.38409e-01,9.99999e-01
1.514950631e+00,1.09008e-11,1.16017e-11,9.39588e-01,9.99999e-01
1.522525384e+00,3.06383e-37,3.25681e-37,9.40746e-01,9.99999e-01
1.530138011e+00,1.84400e-87,1.95778e-87,9.41881e-01,9.99999e-01
1.537788701e+00,5.67176e-65,6.01461e-65,9.42996e-01,9.99999e-01
1.545477645e+00,1.48371e-14,1.57158e-14,9.44090e-01,9.99999e-01
1.553205033e+00,2.31259e-10,2.44676e-10,9.45163e-01,9.99999e-01
1.560971058e+00,7.16332e-11,7.57048e-11,9.46217e-01,9.99999e-01
1.568775913e+00,4.47835e-220,4.72773e-220,9.47251e-01,9.99999e-01
1.576619793e+00,0.00000e+00,0.00000e+00,9.48265e-01,9.99999e-01
1.584502892e+00,2.43576e-281,2.56595e-281,9.49260e-01,9.99999e-01
1.592425406e+00,3.23489e-196,3.40430e-196,9.50237e-01,9.99999e-01
1.600387533e+00,6.04610e-316,6.35631e-316,9.51196e-01,9.99999e-01
1.608389471e+00,0.00000e+00,0.00000e+00,9.52136e-01,9.99999e-01
1.616431418e+00,0.00000e+00,0.00000e+00,9.53059e-01,9.99999e-01
1.624513575e+00,4.06981e-249,4.26620e-249,9.53965e-01,9.99999e-01
1.632636143e+00,3.73659e-185,3.91326e-185,9.54853e-01,9.99999e-01
1.640799324e+00,4.46797e-76,4.67494e-76,9.55725e-01,9.99999e-01
1.649003321e+00,4.48769e-76,4.69138e-76,9.56580e-01,9.99999e-01
1.657248337e+00,5.13261e-59,5.36087e-59,9.57419e-01,9.99999e-01
1.665534579e+00,2.09044e-59,2.18154e-59,9.58243e-01,9.99999e-01
1.673862252e+00,3.17187e-38,3.30730e-38,9.59050e-01,9.99999e-01
1.682231563e+00,8.70549e-27,9.06970e-27,9.59843e-01,9.99999e-01
1.690642721e+00,2.38622e-15,2.48404e-15,9.60620e-01,9.99999e-01
1.699095934e+00,6.06882e-10,6.31259e-10,9.61383e-01,9.99999e-01
1.707591414e+00,1.47772e-05,1.53588e-05,9.62131e-01,9.99999e-01
1.716129371e+00,1.81204e-03,1.88192e-03,9.62865e-01,9.99999e-01
1.724710018e+00,2.94515e-02,3.05645e-02,9.63585e-01,9.99999e-01
1.733333568e+00,9.87359e-02,1.02392e-01,9.64291e-01,9.99999e-01
1.742000236e+00,2.48338e-01,2.57349e-01,9.64984e-01,9.99999e-01
1.750710237e+00,4.64781e-03,4.81307e-03,9.65663e-01,9.99999e-01
1.759463788e+00,1.67949e-36,1.73801e-36,9.66330e-01,9.99999e-01
1.768261107e+00,3.06888e-38,3.17366e-38,9.66984e-01,9.99999e-01
1.777102413e+00,5.47238e-37,5.65547e-37,9.67625e-01,9.99999e-01
1.785987925e+00,5.90062e-35,6.09408e-35,9.68255e-01,9.99999e-01
1.794917864e+00,2.29363e-33,2.36732e-33,9.68872e-01,9.99999e-01
1.803892454e+00,3.42251e-32,3.53026e-32,9.69477e-01,9.99999e-01
1.812911916e+00,6.88700e-31,7.09948e-31,9.70071e-01,9.99999e-01
1.821976476e+00,5.32433e-31,5.48530e-31,9.70653e-01,9.99999e-01
1.831086358e+00,4.27127e-25,4.39782e-25,9.71224e-01,9.99999e-01
1.840241790e+00,2.25885e-21,2.32444e-21,9.71785e-01,9.99999e-01
1.849442999e+00,6.04440e-15,6.21638e-15,9.72334e-01,9.99999e-01
1.858690214e+00,6.50482e-14,6.68619e-14,9.72873e-01,9.99999e-01
1.867983665e+00,1.12699e-14,1.15778e-14,9.73402e-01,9.99999e-01
1.877323583e+00,5.61094e-69,5.76119e-69,9.73920e-01,9.99999e-01
