#,Wave/freq,Total,CO2,Rayleigh,CIA
4.000000000e-01,4.89702e-04,9.99999e-01,4.89702e-04,9.99999e-01
4.020000000e-01,5.69354e-04,9.99999e-01,5.69354e-04,9.99999e-01
4.040100000e-01,6.59891e-04,9.99999e-01,6.59891e-04,9.99999e-01
4.060300500e-01,7.62597e-04,9.99999e-01,7.62597e-04,9.99999e-01
4.080602003e-01,8.78775e-04,9.99999e-01,8.78775e-04,9.99999e-01
4.101005013e-01,1.00982e-03,9.99999e-01,1.00982e-03,9.99999e-01
4.121510038e-01,1.15722e-03,9.99999e-01,1.15722e-03,9.99999e-01
4.142117588e-01,1.32258e-03,9.99999e-01,1.32258e-03,9.99999e-01
4.162828176e-01,1.50758e-03,9.99999e-01,1.50758e-03,9.99999e-01
4.183642317e-01,1.71402e-03,9.99999e-01,1.71402e-03,9.99999e-01
4.204560528e-01,1.94380e-03,9.99999e-01,1.94380e-03,9.99999e-01
4.225583331e-01,2.19891e-03,9.99999e-01,2.19891e-03,9.99999e-01
4.246711247e-01,2.48145e-03,9.99999e-01,2.48145e-03,9.99999e-01
4.267944804e-01,2.79362e-03,9.99999e-01,2.79362e-03,9.99999e-01
4.289284528e-01,3.13770e-03,9.99999e-01,3.13770e-03,9.99999e-01
4.310730950e-01,3.51609e-03,9.99999e-01,3.51609e-03,9.99999e-01
4.332284605e-01,3.93125e-03,9.99999e-01,3.93125e-03,9.99999e-01
4.353946028e-01,4.38576e-03,9.99999e-01,4.38576e-03,9.99999e-01
4.375715758e-01,4.88225e-03,9.99999e-01,4.88225e-03,9.99999e-01
4.397594337e-01,5.42345e-03,9.99999e-01,5.42345e-03,9.99999e-01
4.419582309e-01,6.01214e-03,9.99999e-01,6.01214e-03,9.99999e-01
4.441680220e-01,6.65119e-03,9.99999e-01,6.65119e-03,9.99999e-01
4.463888621e-01,7.34349e-03,9.99999e-01,7.34349e-03,9.99999e-01
4.486208064e-01,8.09200e-03,9.99999e-01,8.09200e-03,9.99999e-01
4.508639105e-01,8.89973e-03,9.99999e-01,8.89973e-03,9.99999e-01
4.531182300e-01,9.76971e-03,9.99999e-01,9.76971e-03,9.99999e-01
4.553838212e-01,1.07050e-02,9.99999e-01,1.07050e-02,9.99999e-01
4.576607403e-01,1.17087e-02,9.99999e-01,1.17087e-02,9.99999e-01
4.599490440e-01,1.27838e-02,9.99999e-01,1.27838e-02,9.99999e-01
4.622487892e-01,1.39334e-02,9.99999e-01,1.39334e-02,9.99999e-01
4.645600332e-01,1.51606e-02,9.99999e-01,1.51606e-02,9.99999e-01
4.668828333e-01,1.64684e-02,9.99999e-01,1.64684e-02,9.99999e-01
4.692172475e-01,1.78598e-02,9.99999e-01,1.78598e-02,9.99999e-01
4.715633337e-01,1.93378e-02,9.99999e-01,1.93378e-02,9.99999e-01
4.739211504e-01,2.09052e-02,9.99999e-01,2.09052e-02,9.99999e-01
4.762907561e-01,2.25649e-02,9.99999e-01,2.25649e-02,9.99999e-01
4.786722099e-01,2.43197e-02,9.99999e-01,2.43197e-02,9.99999e-01
4.810655710e-01,2.61721e-02,9.99999e-01,2.61721e-02,9.99999e-01
4.834708988e-01,2.81249e-02,9.99999e-01,2.81249e-02,9.99999e-01
4.858882533e-01,3.01804e-02,9.99999e-01,3.01804e-02,9.99999e-01
4.883176946e-01,3.23411e-02,9.99999e-01,3.23411e-02,9.99999e-01
4.907592831e-01,3.46091e-02,9.99999e-01,3.46091e-02,9.99999e-01
4.932130795e-01,3.69866e-02,9.99999e-01,3.69866e-02,9.99999e-01
4.956791449e-01,3.94757e-02,9.99999e-01,3.94757e-02,9.99999e-01
4.981575406e-01,4.20780e-02,9.99999e-01,4.20780e-02,9.99999e-01
5.006483283e-01,4.47954e-02,9.99999e-01,4.47954e-02,9.99999e-01
5.031515699e-01,4.76294e-02,9.99999e-01,4.76294e-02,9.99999e-01
5.056673278e-01,5.05814e-02,9.99999e-01,5.05814e-02,9.99999e-01
5.081956644e-01,5.36525e-02,9.99999e-01,5.36525e-02,9.99999e-01
5.107366428e-01,5.68439e-02,9.99999e-01,5.68439e-02,9.99999e-01
5.132903260e-01,6.01564e-02,9.99999e-01,6.01564e-02,9.99999e-01
5.158567776e-01,6.35907e-02,9.99999e-01,6.35907e-02,9.99999e-01
5.184360615e-01,6.71475e-02,9.99999e-01,6.71475e-02,9.99999e-01
5.210282418e-01,7.08270e-02,9.99999e-01,7.08270e-02,9.99999e-01
5.236333830e-01,7.46295e-02,9.99999e-01,7.46295e-02,9.99999e-01
5.262515499e-01,7.85549e-02,9.99999e-01,7.85549e-02,9.99999e-01
5.288828077e-01,8.26031e-02,9.99999e-01,8.26031e-02,9.99999e-01
5.315272217e-01,8.67737e-02,9.99999e-01,8.67737e-02,9.99999e-01
5.341848578e-01,9.10663e-02,9.99999e-01,9.10663e-02,9.99999e-01
5.368557821e-01,9.54801e-02,9.99999e-01,9.54801e-02,9.99999e-01
5.395400610e-01,1.00014e-01,9.99999e-01,1.00014e-01,9.99999e-01
5.422377613e-01,1.04668e-01,9.99999e-01,1.04668e-01,9.99999e-01
5.449489501e-01,1.09440e-01,9.99999e-01,1.09440e-01,9.99999e-01
5.476736949e-01,1.14328e-01,9.99999e-01,1.14328e-01,9.99999e-01
5.504120634e-01,1.19332e-01,9.99999e-01,1.19332e-01,9.99999e-01
5.531641237e-01,1.24450e-01,9.99999e-01,1.24450e-01,9.99999e-01
5.559299443e-01,1.29679e-01,9.99999e-01,1.29679e-01,9.99999e-01
5.587095940e-01,1.35018e-01,9.99999e-01,1.35018e-01,9.99999e-01
5.615031420e-01,1.40465e-01,9.99999e-01,1.40465e-01,9.99999e-01
5.643106577e-01,1.46018e-01,9.99999e-01,1.46018e-01,9.99999e-01
5.671322110e-01,1.51674e-01,9.99999e-01,1.51674e-01,9.99999e-01
5.699678720e-01,1.57431e-01,9.99999e-01,1.57431e-01,9.99999e-01
5.728177114e-01,1.63287e-01,9.99999e-01,1.63287e-01,9.99999e-01
5.756818000e-01,1.69237e-01,9.99999e-01,1.69237e-01,9.99999e-01
5.785602090e-01,1.75281e-01,9.99999e-01,1.75281e-01,9.99999e-01
5.814530100e-01,1.81415e-01,9.99999e-01,1.81415e-01,9.99999e-01
5.843602750e-01,1.87636e-01,9.99999e-01,1.87636e-01,9.99999e-01
5.872820764e-01,1.93941e-01,9.99999e-01,1.93941e-01,9.99999e-01
5.902184868e-01,2.00328e-01,9.99999e-01,2.00328e-01,9.99999e-01
5.931695792e-01,2.06792e-01,9.99999e-01,2.06792e-01,9.99999e-01
5.961354271e-01,2.13331e-01,9.99999e-01,2.13331e-01,9.99999e-01
5.991161043e-01,2.19941e-01,9.99999e-01,2.19941e-01,9.99999e-01
6.021116848e-01,2.26619e-01,9.99999e-01,2.26619e-01,9.99999e-01
6.051222432e-01,2.33363e-01,9.99999e-01,2.33363e-01,9.99999e-01
6.081478544e-01,2.40168e-01,9.99999e-01,2.40168e-01,9.99999e-01
6.111885937e-01,2.47031e-01,9.99999e-01,2.47031e-01,9.99999e-01
6.142445367e-01,2.53948e-01,9.99999e-01,2.53948e-01,9.99999e-01
6.173157594e-01,2.60917e-01,9.99999e-01,2.60917e-01,9.99999e-01
6.204023382e-01,2.67935e-01,9.99999e-01,2.67935e-01,9.99999e-01
6.235043498e-01,2.74996e-01,9.99999e-01,2.74996e-01,9.99999e-01
6.266218716e-01,2.82099e-01,9.99999e-01,2.82099e-01,9.99999e-01
6.297549810e-01,2.89239e-01,9.99999e-01,2.89239e-01,9.99999e-01
6.329037559e-01,2.96414e-01,9.99999e-01,2.96414e-01,9.99999e-01
6.360682746e-01,3.03620e-01,9.99999e-01,3.03620e-01,9.99999e-01
6.392486160e-01,3.10853e-01,9.99999e-01,3.10853e-01,9.99999e-01
6.424448591e-01,3.18111e-01,9.99999e-01,3.18111e-01,9.99999e-01
6.456570834e-01,3.25390e-01,9.99999e-01,3.25390e-01,9.99999e-01
6.488853688e-01,3.32686e-01,9.99999e-01,3.32686e-01,9.99999e-01
6.521297956e-01,3.39998e-01,9.99999e-01,3.39998e-01,9.99999e-01
6.553904446e-01,3.47321e-01,9.99999e-01,3.47321e-01,9.99999e-01
6.586673968e-01,3.54652e-01,9.99999e-01,3.54652e-01,9.99999e-01
6.619607338e-01,3.61988e-01,9.99999e-01,3.61988e-01,9.99999e-01
6.652705375e-01,3.69327e-01,9.99999e-01,3.69327e-01,9.99999e-01
6.685968902e-01,3.76666e-01,9.99999e-01,3.76666e-01,9.99999e-01
6.719398746e-01,3.84001e-01,9.99999e-01,3.84001e-01,9.99999e-01
6.752995740e-01,3.91330e-01,9.99999e-01,3.91330e-01,9.99999e-01
6.786760719e-01,3.98649e-01,9.99999e-01,3.98649e-01,9.99999e-01
6.820694522e-01,4.05957e-01,9.99999e-01,4.05957e-01,9.99999e-01
6.854797995e-01,4.13251e-01,9.99999e-01,4.13251e-01,9.99999e-01
6.889071985e-01,4.20528e-01,9.99999e-01,4.20528e-01,9.99999e-01
6.923517345e-01,4.27785e-01,9.99999e-01,4.27785e-01,9.99999e-01
6.958134932e-01,4.35020e-01,9.99999e-01,4.35020e-01,9.99999e-01
6.992925606e-01,4.42232e-01,9.99999e-01,4.42232e-01,9.99999e-01
7.027890234e-01,4.49417e-01,9.99999e-01,4.49417e-01,9.99999e-01
7.063029686e-01,4.56573e-01,9.99999e-01,4.56573e-01,9.99999e-01
7.098344834e-01,4.63699e-01,9.99999e-01,4.63699e-01,9.99999e-01
7.133836558e-01,4.70791e-01,9.99999e-01,4.70791e-01,9.99999e-01
7.169505741e-01,4.77849e-01,9.99999e-01,4.77849e-01,9.99999e-01
7.205353270e-01,4.84870e-01,9.99999e-01,4.84870e-01,9.99999e-01
7.241380036e-01,4.91853e-01,9.99999e-01,4.91853e-01,9.99999e-01
7.277586936e-01,4.98795e-01,9.99999e-01,4.98795e-01,9.99999e-01
7.313974871e-01,5.05696e-01,9.99999e-01,5.05696e-01,9.99999e-01
7.350544745e-01,5.12552e-01,9.99999e-01,5.12552e-01,9.99999e-01
7.387297469e-01,5.19363e-01,9.99999e-01,5.19363e-01,9.99999e-01
7.424233956e-01,5.26128e-01,9.99999e-01,5.26128e-01,9.99999e-01
7.461355126e-01,5.32845e-01,9.99999e-01,5.32845e-01,9.99999e-01
7.498661902e-01,5.39512e-01,9.99999e-01,5.39512e-01,9.99999e-01
7.536155211e-01,5.46128e-01,9.99999e-01,5.46128e-01,9.99999e-01
7.573835987e-01,5.52693e-01,9.99999e-01,5.52693e-01,9.99999e-01
7.611705167e-01,5.59204e-01,9.99999e-01,5.59204e-01,9.99999e-01
7.649763693e-01,5.65661e-01,9.99999e-01,5.65661e-01,9.99999e-01
7.688012511e-01,5.72063e-01,9.99999e-01,5.72063e-01,9.99999e-01
7.726452574e-01,5.78409e-01,9.99999e-01,5.78409e-01,9.99999e-01
7.765084837e-01,5.84698e-01,9.99999e-01,5.84698e-01,9.99999e-01
7.803910261e-01,5.76577e-01,9.75712e-01,5.90929e-01,9.99999e-01
7.842929812e-01,5.33397e-01,8.93311e-01,5.97101e-01,9.99999e-01
7.882144461e-01,5.34951e-01,8.86834e-01,6.03214e-01,9.99999e-01
7.921555184e-01,5.68401e-01,9.32924e-01,6.09267e-01,9.99999e-01
7.961162960e-01,5.87116e-01,9.54256e-01,6.15259e-01,9.99999e-01
8.000968774e-01,6.05659e-01,9.74996e-01,6.21191e-01,9.99999e-01
8.040973618e-01,6.18852e-01,9.86910e-01,6.27060e-01,9.99999e-01
8.081178486e-01,6.29072e-01,9.94002e-01,6.32868e-01,9.99999e-01
8.121584379e-01,6.37416e-01,9.98125e-01,6.38612e-01,9.99999e-01
8.162192301e-01,6.44028e-01,9.99585e-01,6.44295e-01,9.99999e-01
8.203003262e-01,6.49909e-01,9.99992e-01,6.49913e-01,9.99999e-01
8.244018279e-01,6.55469e-01,9.99999e-01,6.55469e-01,9.99999e-01
8.285238370e-01,6.60961e-01,9.99999e-01,6.60961e-01,9.99999e-01
8.326664562e-01,6.66389e-01,9.99999e-01,6.66389e-01,9.99999e-01
8.368297885e-01,6.71753e-01,9.99999e-01,6.71753e-01,9.99999e-01
8.410139374e-01,6.77053e-01,9.99999e-01,6.77053e-01,9.99999e-01
8.452190071e-01,6.82288e-01,9.99999e-01,6.82288e-01,9.99999e-01
8.494451021e-01,6.87460e-01,9.99999e-01,6.87460e-01,9.99999e-01
8.536923276e-01,6.92568e-01,9.99999e-01,6.92568e-01,9.99999e-01
8.579607893e-01,6.97611e-01,9.99999e-01,6.97611e-01,9.99999e-01
8.622505932e-01,7.02591e-01,9.99999e-01,7.02591e-01,9.99999e-01
8.665618462e-01,6.65792e-01,9.41039e-01,7.07507e-01,9.99999e-01
8.708946554e-01,5.34666e-01,7.50556e-01,7.12359e-01,9.99999e-01
8.752491287e-01,5.69348e-01,7.93906e-01,7.17147e-01,9.99999e-01
8.796253743e-01,6.36231e-01,8.81361e-01,7.21872e-01,9.99999e-01
8.840235012e-01,6.80636e-01,9.36824e-01,7.26534e-01,9.99999e-01
8.884436187e-01,7.12491e-01,9.74501e-01,7.31133e-01,9.99999e-01
8.928858368e-01,7.28046e-01,9.89635e-01,7.35670e-01,9.99999e-01
8.973502660e-01,7.38260e-01,9.97454e-01,7.40144e-01,9.99999e-01
9.018370173e-01,7.44347e-01,9.99718e-01,7.44557e-01,9.99999e-01
9.063462024e-01,7.43713e-01,9.93063e-01,7.48907e-01,9.99999e-01
9.108779334e-01,7.40937e-01,9.83723e-01,7.53197e-01,9.99999e-01
9.154323231e-01,7.54482e-01,9.96113e-01,7.57425e-01,9.99999e-01
9.200094847e-01,7.20166e-01,9.45603e-01,7.61593e-01,9.99999e-01
9.246095321e-01,7.06618e-01,9.22837e-01,7.65701e-01,9.99999e-01
9.292325798e-01,7.23247e-01,9.39587e-01,7.69750e-01,9.99999e-01
9.338787427e-01,7.28060e-01,9.40963e-01,7.73739e-01,9.99999e-01
9.385481364e-01,7.43715e-01,9.56337e-01,7.77669e-01,9.99999e-01
9.432408771e-01,7.60397e-01,9.72945e-01,7.81541e-01,9.99999e-01
9.479570815e-01,7.74427e-01,9.86083e-01,7.85356e-01,9.99999e-01
9.526968669e-01,7.83788e-01,9.93251e-01,7.89113e-01,9.99999e-01
9.574603512e-01,7.90520e-01,9.97107e-01,7.92813e-01,9.99999e-01
9.622476530e-01,7.95737e-01,9.99095e-01,7.96457e-01,9.99999e-01
9.670588912e-01,7.99828e-01,9.99728e-01,8.00046e-01,9.99999e-01
9.718941857e-01,8.03563e-01,9.99979e-01,8.03579e-01,9.99999e-01
9.767536566e-01,8.07057e-01,9.99999e-01,8.07057e-01,9.99999e-01
9.816374249e-01,8.10482e-01,9.99999e-01,8.10482e-01,9.99999e-01
9.865456120e-01,8.13853e-01,9.99999e-01,8.13853e-01,9.99999e-01
9.914783401e-01,8.17170e-01,9.99999e-01,8.17170e-01,9.99999e-01
9.964357318e-01,8.20436e-01,9.99999e-01,8.20436e-01,9.99999e-01
1.001417910e+00,8.23650e-01,9.99999e-01,8.23650e-01,9.99999e-01
1.006425000e+00,8.26812e-01,9.99999e-01,8.26812e-01,9.99999e-01
1.011457125e+00,8.29924e-01,9.99999e-01,8.29924e-01,9.99999e-01
1.016514411e+00,8.32985e-01,9.99999e-01,8.32985e-01,9.99999e-01
1.021596983e+00,8.35970e-01,9.99966e-01,8.35998e-01,9.99999e-01
1.026704968e+00,8.36700e-01,9.97305e-01,8.38961e-01,9.99999e-01
1.031838492e+00,8.14420e-01,9.67387e-01,8.41876e-01,9.99999e-01
1.036997685e+00,1.71947e-01,2.03549e-01,8.44743e-01,9.99999e-01
1.042182673e+00,1.70588e-01,2.01269e-01,8.47563e-01,9.99999e-01
1.047393587e+00,1.81158e-01,2.13042e-01,8.50336e-01,9.99999e-01
1.052630555e+00,1.14909e-02,1.34701e-02,8.53063e-01,9.99999e-01
1.057893707e+00,2.50589e-02,2.92831e-02,8.55746e-01,9.99999e-01
1.063183176e+00,6.49719e-02,7.56910e-02,8.58383e-01,9.99999e-01
1.068499092e+00,1.48683e-01,1.72691e-01,8.60976e-01,9.99999e-01
1.073841587e+00,2.83877e-01,3.28741e-01,8.63525e-01,9.99999e-01
1.079210795e+00,4.28744e-01,4.95067e-01,8.66032e-01,9.99999e-01
1.084606849e+00,5.90334e-01,6.79720e-01,8.68496e-01,9.99999e-01
1.090029883e+00,7.13125e-01,8.18819e-01,8.70918e-01,9.99999e-01
1.095480033e+00,7.91298e-01,9.06102e-01,8.73298e-01,9.99999e-01
1.100957433e+00,8.35054e-01,9.53651e-01,8.75638e-01,9.99999e-01
1.106462220e+00,8.60859e-01,9.80545e-01,8.77938e-01,9.99999e-01
1.111994531e+00,8.73815e-01,9.92747e-01,8.80199e-01,9.99999e-01
1.117554504e+00,8.80845e-01,9.98214e-01,8.82420e-01,9.99999e-01
1.123142276e+00,8.84499e-01,9.99881e-01,8.84603e-01,9.99999e-01
1.128757988e+00,8.86748e-01,9.99999e-01,8.86748e-01,9.99999e-01
1.134401778e+00,8.88856e-01,9.99999e-01,8.88856e-01,9.99999e-01
1.140073787e+00,8.90927e-01,9.99999e-01,8.90927e-01,9.99999e-01
1.145774156e+00,8.92962e-01,9.99999e-01,8.92962e-01,9.99999e-01
1.151503026e+00,8.94961e-01,9.99999e-01,8.94961e-01,9.99999e-01
1.157260541e+00,8.96925e-01,9.99999e-01,8.96925e-01,9.99999e-01
1.163046844e+00,8.98854e-01,9.99999e-01,8.98854e-01,9.99999e-01
1.168862078e+00,9.00749e-01,9.99999e-01,9.00749e-01,9.99999e-01
1.174706389e+00,9.02611e-01,9.99999e-01,9.02611e-01,9.99999e-01
1.180579921e+00,9.04440e-01,9.99999e-01,9.04440e-01,9.99999e-01
1.186482820e+00,9.06233e-01,9.99996e-01,9.06236e-01,9.99999e-01
1.192415234e+00,8.99322e-01,9.90442e-01,9.08000e-01,9.99999e-01
1.198377311e+00,5.19650e-01,5.71212e-01,9.09732e-01,9.99999e-01
1.204369197e+00,7.39917e-09,8.11815e-09,9.11434e-01,9.99999e-01
1.210391043e+00,1.22641e-30,1.34312e-30,9.13105e-01,9.99999e-01
1.216442998e+00,9.62300e-27,1.05199e-26,9.14746e-01,9.99999e-01
1.222525213e+00,2.29945e-26,2.50933e-26,9.16357e-01,9.99999e-01
1.228637839e+00,2.18145e-20,2.37646e-20,9.17940e-01,9.99999e-01
1.234781029e+00,1.52315e-13,1.65650e-13,9.19494e-01,9.99999e-01
1.240954934e+00,3.29571e-09,3.57833e-09,9.21019e-01,9.99999e-01
1.247159708e+00,4.54972e-06,4.93185e-06,9.22517e-01,9.99999e-01
1.253395507e+00,2.05541e-03,2.22450e-03,9.23988e-01,9.99999e-01
1.259662485e+00,2.13783e-02,2.31009e-02,9.25432e-01,9.99999e-01
1.265960797e+00,1.21265e-01,1.30836e-01,9.26850e-01,9.99999e-01
1.272290601e+00,3.72807e-01,4.01627e-01,9.28241e-01,9.99999e-01
1.278652054e+00,3.50108e-01,3.76618e-01,9.29608e-01,9.99999e-01
1.285045314e+00,1.58677e-02,1.70446e-02,9.30949e-01,9.99999e-01
1.291470541e+00,2.67495e-04,2.86929e-04,9.32265e-01,9.99999e-01
1.297927893e+00,1.28160e-02,1.37281e-02,9.33558e-01,9.99999e-01
1.304417533e+00,2.01594e-01,2.15648e-01,9.34827e-01,9.99999e-01
1.310939621e+00,5.38573e-02,5.75353e-02,9.36072e-01,9.99999e-01
1.317494319e+00,5.24696e-11,5.59798e-11,9.37294e-01,9.99999e-01
1.324081790e+00,7.79505e-08,8.30591e-08,9.38494e-01,9.99999e-01
1.330702199e+00,1.26621e-04,1.34750e-04,9.39671e-01,9.99999e-01
1.337355710e+00,1.15945e-04,1.23237e-04,9.40827e-01,9.99999e-01
1.344042489e+00,3.58361e-05,3.80442e-05,9.41961e-01,9.99999e-01
1.350762701e+00,8.45503e-05,8.96538e-05,9.43074e-01,9.99999e-01
1.357516515e+00,2.19067e-03,2.32022e-03,9.44167e-01,9.99999e-01
1.364304097e+00,1.99125e-02,2.10661e-02,9.45239e-01,9.99999e-01
1.371125618e+00,1.24190e-01,1.31239e-01,9.46291e-01,9.99999e-01
1.377981246e+00,1.83860e-01,1.94083e-01,9.47323e-01,9.99999e-01
1.384871152e+00,3.64893e-01,3.84771e-01,9.48336e-01,9.99999e-01
1.391795508e+00,3.92702e-01,4.13661e-01,9.49330e-01,9.99999e-01
1.398754485e+00,5.51895e-01,5.80755e-01,9.50306e-01,9.99999e-01
1.405748258e+00,6.36937e-01,6.69569e-01,9.51263e-01,9.99999e-01
1.412776999e+00,7.39141e-01,7.76243e-01,9.52202e-01,9.99999e-01
1.419840884e+00,6.77601e-01,7.10926e-01,9.53124e-01,9.99999e-01
1.426940089e+00,7.61343e-02,7.98029e-02,9.54028e-01,9.99999e-01
1.434074789e+00,0.00000e+00,0.00000e+00,9.54916e-01,9.99999e-01
1.441245163e+00,0.00000e+00,0.00000e+00,9.55786e-01,9.99999e-01
1.448451389e+00,0.00000e+00,0.00000e+00,9.56640e-01,9.99999e-01
1.455693646e+00,7.90110e-242,8.25199e-242,9.57478e-01,9.99999e-01
1.462972114e+00,1.76810e-117,1.84504e-117,9.58300e-01,9.99999e-01
1.470286975e+00,1.15520e-49,1.20445e-49,9.59107e-01,9.99999e-01
1.477638409e+00,8.73050e-32,9.09523e-32,9.59898e-01,9.99999e-01
1.485026601e+00,2.55171e-18,2.65616e-18,9.60674e-01,9.99999e-01
1.492451734e+00,1.33754e-15,1.39119e-15,9.61436e-01,9.99999e-01
1.499913993e+00,1.19599e-07,1.24299e-07,9.62183e-01,9.99999e-01
1.507413563e+00,1.84057e-06,1.91145e-06,9.62916e-01,9.99999e-01
1.514950631e+00,7.48385e-08,7.76626e-08,9.63635e-01,9.99999e-01
1.522525384e+00,4.81861e-23,4.99679e-23,9.64340e-01,9.99999e-01
1.530138011e+00,7.63491e-53,7.91155e-53,9.65032e-01,9.99999e-01
1.537788701e+00,1.72772e-39,1.78906e-39,9.65711e-01,9.99999e-01
1.545477645e+00,1.45931e-09,1.51008e-09,9.66377e-01,9.99999e-01
1.553205033e+00,1.43312e-06,1.48198e-06,9.67030e-01,9.99999e-01
1.560971058e+00,4.14650e-07,4.28503e-07,9.67670e-01,9.99999e-01
1.568775913e+00,1.06188e-131,1.09664e-131,9.68299e-01,9.99999e-01
1.576619793e+00,1.29105e-307,1.33246e-307,9.68915e-01,9.99999e-01
1.584502892e+00,4.14985e-168,4.28031e-168,9.69520e-01,9.99999e-01
1.592425406e+00,1.83726e-117,1.89386e-117,9.70113e-01,9.99999e-01
1.600387533e+00,1.12935e-188,1.16344e-188,9.70694e-01,9.99999e-01
1.608389471e+00,1.49508e-316,1.53931e-316,9.71265e-01,9.99999e-01
1.616431418e+00,1.52222e-318,1.56635e-318,9.71824e-01,9.99999e-01
1.624513575e+00,5.85082e-149,6.01705e-149,9.72373e-01,9.99999e-01
1.632636143e+00,6.06438e-111,6.23323e-111,9.72911e-01,9.99999e-01
1.640799324e+00,4.00555e-46,4.11484e-46,9.73439e-01,9.99999e-01
1.649003321e+00,4.24513e-46,4.35864e-46,9.73957e-01,9.99999e-01
1.657248337e+00,6.22571e-36,6.38885e-36,9.74464e-01,9.99999e-01
1.665534579e+00,3.68992e-36,3.78467e-36,9.74962e-01,9.99999e-01
1.673862252e+00,1.42433e-23,1.46017e-23,9.75451e-01,9.99999e-01
1.682231563e+00,9.74652e-17,9.98689e-17,9.75930e-01,9.99999e-01
1.690642721e+00,5.50121e-10,5.63417e-10,9.76400e-01,9.99999e-01
1.699095934e+00,1.63480e-06,1.67353e-06,9.76860e-01,9.99999e-01
1.707591414e+00,7.76616e-04,7.94644e-04,9.77312e-01,9.99999e-01
1.716129371e+00,1.91146e-02,1.95495e-02,9.77755e-01,9.99999e-01
1.724710018e+00,1.16079e-01,1.18667e-01,9.78190e-01,9.99999e-01
1.733333568e+00,2.48949e-01,2.54389e-01,9.78616e-01,9.99999e-01
1.742000236e+00,4.26849e-01,4.35989e-01,9.79034e-01,9.99999e-01
1.750710237e+00,1.85567e-02,1.89461e-02,9.79444e-01,9.99999e-01
1.759463788e+00,1.94844e-22,1.98852e-22,9.79846e-01,9.99999e-01
1.768261107e+00,1.22799e-23,1.25275e-23,9.80240e-01,9.99999e-01
1.777102413e+00,1.54305e-22,1.57354e-22,9.80626e-01,9.99999e-01
1.785987925e+00,1.30313e-21,1.32836e-21,9.81005e-01,9.99999e-01
1.794917864e+00,1.70156e-20,1.73385e-20,9.81377e-01,9.99999e-01
1.803892454e+00,4.87460e-20,4.96525e-20,9.81741e-01,9.99999e-01
1.812911916e+00,4.22015e-19,4.29707e-19,9.82099e-01,9.99999e-01
1.821976476e+00,2.66240e-19,2.70996e-19,9.82449e-01,9.99999e-01
1.831086358e+00,8.61135e-16,8.76211e-16,9.82793e-01,9.99999e-01
1.840241790e+00,2.09120e-13,2.12709e-13,9.83130e-01,9.99999e-01
1.849442999e+00,1.97209e-09,2.00526e-09,9.83460e-01,9.99999e-01
1.858690214e+00,1.21797e-08,1.23804e-08,9.83784e-01,9.99999e-01
1.867983665e+00,2.06437e-09,2.09772e-09,9.84102e-01,9.99999e-01
1.877323583e+00,7.33494e-42,7.45107e-42,9.84414e-01,9.99999e-01
