#,Wave/freq,Total,CO2,Rayleigh,CIA
4.000000000e-01,2.73972e-07,9.99999e-01,2.73972e-07,9.99999e-01
4.020000000e-01,3.69366e-07,9.99999e-01,3.69366e-07,9.99999e-01
4.040100000e-01,4.94898e-07,9.99999e-01,4.94898e-07,9.99999e-01
4.060300500e-01,6.59272e-07,9.99999e-01,6.59272e-07,9.99999e-01
4.080602003e-01,8.73279e-07,9.99999e-01,8.73279e-07,9.99999e-01
4.101005013e-01,1.15035e-06,9.99999e-01,1.15035e-06,9.99999e-01
4.121510038e-01,1.50711e-06,9.99999e-01,1.50711e-06,9.99999e-01
4.142117588e-01,1.96399e-06,9.99999e-01,1.96399e-06,9.99999e-01
4.162828176e-01,2.54603e-06,9.99999e-01,2.54603e-06,9.99999e-01
4.183642317e-01,3.28369e-06,9.99999e-01,3.28369e-06,9.99999e-01
4.204560528e-01,4.21384e-06,9.99999e-01,4.21384e-06,9.99999e-01
4.225583331e-01,5.38089e-06,9.99999e-01,5.38089e-06,9.99999e-01
4.246711247e-01,6.83805e-06,9.99999e-01,6.83805e-06,9.99999e-01
4.267944804e-01,8.64879e-06,9.99999e-01,8.64879e-06,9.99999e-01
4.289284528e-01,1.08884e-05,9.99999e-01,1.08884e-05,9.99999e-01
4.310730950e-01,1.36457e-05,9.99999e-01,1.36457e-05,9.99999e-01
4.332284605e-01,1.70252e-05,9.99999e-01,1.70252e-05,9.99999e-01
4.353946028e-01,2.11490e-05,9.99999e-01,2.11490e-05,9.99999e-01
4.375715758e-01,2.61593e-05,9.99999e-01,2.61593e-05,9.99999e-01
4.397594337e-01,3.22210e-05,9.99999e-01,3.22210e-05,9.99999e-01
4.419582309e-01,3.95243e-05,9.99999e-01,3.95243e-05,9.99999e-01
4.441680220e-01,4.82878e-05,9.99999e-01,4.82878e-05,9.99999e-01
4.463888621e-01,5.87614e-05,9.99999e-01,5.87614e-05,9.99999e-01
4.486208064e-01,7.12301e-05,9.99999e-01,7.12301e-05,9.99999e-01
4.508639105e-01,8.60168e-05,9.99999e-01,8.60168e-05,9.99999e-01
4.531182300e-01,1.03487e-04,9.99999e-01,1.03487e-04,9.99999e-01
4.553838212e-01,1.24051e-04,9.99999e-01,1.24051e-04,9.99999e-01
4.576607403e-01,1.48171e-04,9.99999e-01,1.48171e-04,9.99999e-01
4.599490440e-01,1.76360e-04,9.99999e-01,1.76360e-04,9.99999e-01
4.622487892e-01,2.09191e-04,9.99999e-01,2.09191e-04,9.99999e-01
4.645600332e-01,2.47298e-04,9.99999e-01,2.47298e-04,9.99999e-01
4.668828333e-01,2.91382e-04,9.99999e-01,2.91382e-04,9.99999e-01
4.692172475e-01,3.42215e-04,9.99999e-01,3.42215e-04,9.99999e-01
4.715633337e-01,4.00641e-04,9.99999e-01,4.00641e-04,9.99999e-01
4.739211504e-01,4.67584e-04,9.99999e-01,4.67584e-04,9.99999e-01
4.762907561e-01,5.44049e-04,9.99999e-01,5.44049e-04,9.99999e-01
4.786722099e-01,6.31127e-04,9.99999e-01,6.31127e-04,9.99999e-01
4.810655710e-01,7.30000e-04,9.99999e-01,7.30000e-04,9.99999e-01
4.834708988e-01,8.41937e-04,9.99999e-01,8.41937e-04,9.99999e-01
4.858882533e-01,9.68307e-04,9.99999e-01,9.68307e-04,9.99999e-01
4.883176946e-01,1.11057e-03,9.99999e-01,1.11057e-03,9.99999e-01
4.907592831e-01,1.27029e-03,9.99999e-01,1.27029e-03,9.99999e-01
4.932130795e-01,1.44914e-03,9.99999e-01,1.44914e-03,9.99999e-01
4.956791449e-01,1.64886e-03,9.99999e-01,1.64886e-03,9.99999e-01
4.981575406e-01,1.87134e-03,9.99999e-01,1.87134e-03,9.99999e-01
5.006483283e-01,2.11853e-03,9.99999e-01,2.11853e-03,9.99999e-01
5.031515699e-01,2.39250e-03,9.99999e-01,2.39250e-03,9.99999e-01
5.056673278e-01,2.69541e-03,9.99999e-01,2.69541e-03,9.99999e-01
5.081956644e-01,3.02954e-03,9.99999e-01,3.02954e-03,9.99999e-01
5.107366428e-01,3.39724e-03,9.99999e-01,3.39724e-03,9.99999e-01
5.132903260e-01,3.80095e-03,9.99999e-01,3.80095e-03,9.99999e-01
5.158567776e-01,4.24322e-03,9.99999e-01,4.24322e-03,9.99999e-01
5.184360615e-01,4.72666e-03,9.99999e-01,4.72666e-03,9.99999e-01
5.210282418e-01,5.25397e-03,9.99999e-01,5.25397e-03,9.99999e-01
5.236333830e-01,5.82792e-03,9.99999e-01,5.82792e-03,9.99999e-01
5.262515499e-01,6.45135e-03,9.99999e-01,6.45135e-03,9.99999e-01
5.288828077e-01,7.12714e-03,9.99999e-01,7.12714e-03,9.99999e-01
5.315272217e-01,7.85824e-03,9.99999e-01,7.85824e-03,9.99999e-01
5.341848578e-01,8.64765e-03,9.99999e-01,8.64765e-03,9.99999e-01
5.368557821e-01,9.49838e-03,9.99999e-01,9.49838e-03,9.99999e-01
5.395400610e-01,1.04135e-02,9.99999e-01,1.04135e-02,9.99999e-01
5.422377613e-01,1.13960e-02,9.99999e-01,1.13960e-02,9.99999e-01
5.449489501e-01,1.24491e-02,9.99999e-01,1.24491e-02,9.99999e-01
5.476736949e-01,1.35757e-02,9.99999e-01,1.35757e-02,9.99999e-01
5.504120634e-01,1.47790e-02,9.99999e-01,1.47790e-02,9.99999e-01
5.531641237e-01,1.60620e-02,9.99999e-01,1.60620e-02,9.99999e-01
5.559299443e-01,1.74277e-02,9.99999e-01,1.74277e-02,9.99999e-01
5.587095940e-01,1.88790e-02,9.99999e-01,1.88790e-02,9.99999e-01
5.615031420e-01,2.04189e-02,9.99999e-01,2.04189e-02,9.99999e-01
5.643106577e-01,2.20503e-02,9.99999e-01,2.20503e-02,9.99999e-01
5.671322110e-01,2.37758e-02,9.99999e-01,2.37758e-02,9.99999e-01
5.699678720e-01,2.55983e-02,9.99999e-01,2.55983e-02,9.99999e-01
5.728177114e-01,2.75203e-02,9.99999e-01,2.75203e-02,9.99999e-01
5.756818000e-01,2.95443e-02,9.99999e-01,2.95443e-02,9.99999e-01
5.785602090e-01,3.16727e-02,9.99999e-01,3.16727e-02,9.99999e-01
5.814530100e-01,3.39079e-02,9.99999e-01,3.39079e-02,9.99999e-01
5.843602750e-01,3.62519e-02,9.99999e-01,3.62519e-02,9.99999e-01
5.872820764e-01,3.87068e-02,9.99999e-01,3.87068e-02,9.99999e-01
5.902184868e-01,4.12745e-02,9.99999e-01,4.12745e-02,9.99999e-01
5.931695792e-01,4.39568e-02,9.99999e-01,4.39568e-02,9.99999e-01
5.961354271e-01,4.67552e-02,9.99999e-01,4.67552e-02,9.99999e-01
5.991161043e-01,4.96711e-02,9.99999e-01,4.96711e-02,9.99999e-01
6.021116848e-01,5.27059e-02,9.99999e-01,5.27059e-02,9.99999e-01
6.051222432e-01,5.58606e-02,9.99999e-01,5.58606e-02,9.99999e-01
6.081478544e-01,5.91361e-02,9.99999e-01,5.91361e-02,9.99999e-01
6.111885937e-01,6.25334e-02,9.99999e-01,6.25334e-02,9.99999e-01
6.142445367e-01,6.60529e-02,9.99999e-01,6.60529e-02,9.99999e-01
6.173157594e-01,6.96950e-02,9.99999e-01,6.96950e-02,9.99999e-01
6.204023382e-01,7.34601e-02,9.99999e-01,7.34601e-02,9.99999e-01
6.235043498e-01,7.73481e-02,9.99999e-01,7.73481e-02,9.99999e-01
6.266218716e-01,8.13590e-02,9.99999e-01,8.13590e-02,9.99999e-01
6.297549810e-01,8.54924e-02,9.99999e-01,8.54924e-02,9.99999e-01
6.329037559e-01,8.97480e-02,9.99999e-01,8.97480e-02,9.99999e-01
6.360682746e-01,9.41250e-02,9.99999e-01,9.41250e-02,9.99999e-01
6.392486160e-01,9.86227e-02,9.99999e-01,9.86227e-02,9.99999e-01
6.424448591e-01,1.03240e-01,9.99999e-01,1.03240e-01,9.99999e-01
6.456570834e-01,1.07976e-01,9.99999e-01,1.07976e-01,9.99999e-01
6.488853688e-01,1.12829e-01,9.99999e-01,1.12829e-01,9.99999e-01
6.521297956e-01,1.17798e-01,9.99999e-01,1.17798e-01,9.99999e-01
6.553904446e-01,1.22881e-01,9.99999e-01,1.22881e-01,9.99999e-01
6.586673968e-01,1.28077e-01,9.99999e-01,1.28077e-01,9.99999e-01
6.619607338e-01,1.33383e-01,9.99999e-01,1.33383e-01,9.99999e-01
6.652705375e-01,1.38798e-01,9.99999e-01,1.38798e-01,9.99999e-01
6.685968902e-01,1.44318e-01,9.99999e-01,1.44318e-01,9.99999e-01
6.719398746e-01,1.49943e-01,9.99999e-01,1.49943e-01,9.99999e-01
6.752995740e-01,1.55670e-01,9.99999e-01,1.55670e-01,9.99999e-01
6.786760719e-01,1.61496e-01,9.99999e-01,1.61496e-01,9.99999e-01
6.820694522e-01,1.67418e-01,9.99999e-01,1.67418e-01,9.99999e-01
6.854797995e-01,1.73434e-01,9.99999e-01,1.73434e-01,9.99999e-01
6.889071985e-01,1.79540e-01,9.99999e-01,1.79540e-01,9.99999e-01
6.923517345e-01,1.85735e-01,9.99999e-01,1.85735e-01,9.99999e-01
6.958134932e-01,1.92015e-01,9.99999e-01,1.92015e-01,9.99999e-01
6.992925606e-01,1.98377e-01,9.99999e-01,1.98377e-01,9.99999e-01
7.027890234e-01,2.04818e-01,9.99999e-01,2.04818e-01,9.99999e-01
7.063029686e-01,2.11334e-01,9.99999e-01,2.11334e-01,9.99999e-01
7.098344834e-01,2.17923e-01,9.99999e-01,2.17923e-01,9.99999e-01
7.133836558e-01,2.24581e-01,9.99999e-01,2.24581e-01,9.99999e-01
7.169505741e-01,2.31305e-01,9.99999e-01,2.31305e-01,9.99999e-01
7.205353270e-01,2.38092e-01,9.99999e-01,2.38092e-01,9.99999e-01
7.241380036e-01,2.44938e-01,9.99999e-01,2.44938e-01,9.99999e-01
7.277586936e-01,2.51839e-01,9.99999e-01,2.51839e-01,9.99999e-01
7.313974871e-01,2.58793e-01,9.99999e-01,2.58793e-01,9.99999e-01
7.350544745e-01,2.65796e-01,9.99999e-01,2.65796e-01,9.99999e-01
7.387297469e-01,2.72844e-01,9.99999e-01,2.72844e-01,9.99999e-01
7.424233956e-01,2.79935e-01,9.99999e-01,2.79935e-01,9.99999e-01
7.461355126e-01,2.87064e-01,9.99999e-01,2.87064e-01,9.99999e-01
7.498661902e-01,2.94229e-01,9.99999e-01,2.94229e-01,9.99999e-01
7.536155211e-01,3.01425e-01,9.99999e-01,3.01425e-01,9.99999e-01
7.573835987e-01,3.08651e-01,9.99999e-01,3.08651e-01,9.99999e-01
7.611705167e-01,3.15901e-01,9.99999e-01,3.15901e-01,9.99999e-01
7.649763693e-01,3.23174e-01,9.99999e-01,3.23174e-01,9.99999e-01
7.688012511e-01,3.30466e-01,9.99999e-01,3.30466e-01,9.99999e-01
7.726452574e-01,3.37773e-01,9.99999e-01,3.37773e-01,9.99999e-01
7.765084837e-01,3.45093e-01,9.99999e-01,3.45093e-01,9.99999e-01
7.803910261e-01,3.35048e-01,9.50702e-01,3.52422e-01,9.99999e-01
7.842929812e-01,2.89888e-01,8.05789e-01,3.59757e-01,9.99999e-01
7.882144461e-01,2.90945e-01,7.92559e-01,3.67096e-01,9.99999e-01
7.921555184e-01,3.26360e-01,8.71606e-01,3.74434e-01,9.99999e-01
7.961162960e-01,3.48447e-01,9.12712e-01,3.81771e-01,9.99999e-01
8.000968774e-01,3.70255e-01,9.51562e-01,3.89102e-01,9.99999e-01
8.040973618e-01,3.86405e-01,9.74724e-01,3.96424e-01,9.99999e-01
8.081178486e-01,3.98996e-01,9.88259e-01,4.03736e-01,9.99999e-01
8.121584379e-01,4.09558e-01,9.96407e-01,4.11034e-01,9.99999e-01
8.162192301e-01,4.17984e-01,9.99204e-01,4.18317e-01,9.99999e-01
8.203003262e-01,4.25576e-01,9.99988e-01,4.25580e-01,9.99999e-01
8.244018279e-01,4.32822e-01,9.99999e-01,4.32822e-01,9.99999e-01
8.285238370e-01,4.40041e-01,9.99999e-01,4.40041e-01,9.99999e-01
8.326664562e-01,4.47235e-01,9.99999e-01,4.47235e-01,9.99999e-01
8.368297885e-01,4.54400e-01,9.99999e-01,4.54400e-01,9.99999e-01
8.410139374e-01,4.61535e-01,9.99999e-01,4.61535e-01,9.99999e-01
8.452190071e-01,4.68638e-01,9.99999e-01,4.68638e-01,9.99999e-01
8.494451021e-01,4.75707e-01,9.99999e-01,4.75707e-01,9.99999e-01
8.536923276e-01,4.82739e-01,9.99999e-01,4.82739e-01,9.99999e-01
8.579607893e-01,4.89734e-01,9.99999e-01,4.89734e-01,9.99999e-01
8.622505932e-01,4.96688e-01,9.99999e-01,4.96688e-01,9.99999e-01
8.665618462e-01,4.55164e-01,9.03817e-01,5.03602e-01,9.99999e-01
8.708946554e-01,2.95344e-01,5.78570e-01,5.10472e-01,9.99999e-01
8.752491287e-01,3.32364e-01,6.42502e-01,5.17297e-01,9.99999e-01
8.796253743e-01,4.10434e-01,7.83156e-01,5.24076e-01,9.99999e-01
8.840235012e-01,4.67366e-01,8.80481e-01,5.30807e-01,9.99999e-01
8.884436187e-01,5.11278e-01,9.51232e-01,5.37490e-01,9.99999e-01
8.928858368e-01,5.33189e-01,9.79907e-01,5.44122e-01,9.99999e-01
8.973502660e-01,5.48013e-01,9.95115e-01,5.50702e-01,9.99999e-01
9.018370173e-01,5.56931e-01,9.99462e-01,5.57229e-01,9.99999e-01
9.063462024e-01,5.55662e-01,9.85734e-01,5.63703e-01,9.99999e-01
9.108779334e-01,5.52099e-01,9.68387e-01,5.70122e-01,9.99999e-01
9.154323231e-01,5.72216e-01,9.92593e-01,5.76485e-01,9.99999e-01
9.200094847e-01,5.22716e-01,8.96917e-01,5.82791e-01,9.99999e-01
9.246095321e-01,5.03327e-01,8.54485e-01,5.89040e-01,9.99999e-01
9.292325798e-01,5.25635e-01,8.83077e-01,5.95230e-01,9.99999e-01
9.338787427e-01,5.33883e-01,8.87789e-01,6.01361e-01,9.99999e-01
9.385481364e-01,5.56441e-01,9.16053e-01,6.07433e-01,9.99999e-01
9.432408771e-01,5.81445e-01,9.47837e-01,6.13444e-01,9.99999e-01
9.479570815e-01,6.02559e-01,9.72821e-01,6.19393e-01,9.99999e-01
9.526968669e-01,6.17054e-01,9.86841e-01,6.25282e-01,9.99999e-01
9.574603512e-01,6.27548e-01,9.94358e-01,6.31108e-01,9.99999e-01
9.622476530e-01,6.35752e-01,9.98240e-01,6.36872e-01,9.99999e-01
9.670588912e-01,6.42235e-01,9.99473e-01,6.42573e-01,9.99999e-01
9.718941857e-01,6.48188e-01,9.99963e-01,6.48211e-01,9.99999e-01
9.767536566e-01,6.53786e-01,9.99999e-01,6.53786e-01,9.99999e-01
9.816374249e-01,6.59297e-01,9.99999e-01,6.59297e-01,9.99999e-01
9.865456120e-01,6.64745e-01,9.99999e-01,6.64745e-01,9.99999e-01
9.914783401e-01,6.70128e-01,9.99999e-01,6.70128e-01,9.99999e-01
9.964357318e-01,6.75448e-01,9.99999e-01,6.75448e-01,9.99999e-01
1.001417910e+00,6.80703e-01,9.99999e-01,6.80703e-01,9.99999e-01
1.006425000e+00,6.85894e-01,9.99999e-01,6.85894e-01,9.99999e-01
1.011457125e+00,6.91021e-01,9.99999e-01,6.91021e-01,9.99999e-01
1.016514411e+00,6.96084e-01,9.99999e-01,6.96084e-01,9.99999e-01
1.021596983e+00,7.01022e-01,9.99911e-01,7.01083e-01,9.99999e-01
1.026704968e+00,7.02044e-01,9.94370e-01,7.06019e-01,9.99999e-01
1.031838492e+00,6.66914e-01,9.38138e-01,7.10890e-01,9.99999e-01
1.036997685e+00,7.55605e-02,1.05576e-01,7.15698e-01,9.99999e-01
1.042182673e+00,3.69272e-02,5.12563e-02,7.20442e-01,9.99999e-01
1.047393587e+00,5.31114e-02,7.32445e-02,7.25123e-01,9.99999e-01
1.052630555e+00,3.95987e-04,5.42640e-04,7.29741e-01,9.99999e-01
1.057893707e+00,1.24704e-03,1.69827e-03,7.34297e-01,9.99999e-01
1.063183176e+00,6.43444e-03,8.70941e-03,7.38790e-01,9.99999e-01
1.068499092e+00,2.50335e-02,3.36823e-02,7.43221e-01,9.99999e-01
1.073841587e+00,8.75624e-02,1.17126e-01,7.47591e-01,9.99999e-01
1.079210795e+00,1.93369e-01,2.57174e-01,7.51899e-01,9.99999e-01
1.084606849e+00,3.56580e-01,4.71576e-01,7.56146e-01,9.99999e-01
1.090029883e+00,5.13916e-01,6.75909e-01,7.60332e-01,9.99999e-01
1.095480033e+00,6.30409e-01,8.24647e-01,7.64458e-01,9.99999e-01
1.100957433e+00,7.00233e-01,9.11139e-01,7.68525e-01,9.99999e-01
1.106462220e+00,7.43418e-01,9.62313e-01,7.72532e-01,9.99999e-01
1.111994531e+00,7.65499e-01,9.85857e-01,7.76480e-01,9.99999e-01
1.117554504e+00,7.77680e-01,9.96552e-01,7.80370e-01,9.99999e-01
1.123142276e+00,7.84026e-01,9.99775e-01,7.84202e-01,9.99999e-01
1.128757988e+00,7.87976e-01,9.99999e-01,7.87976e-01,9.99999e-01
1.134401778e+00,7.91694e-01,9.99999e-01,7.91694e-01,9.99999e-01
1.140073787e+00,7.95355e-01,9.99999e-01,7.95355e-01,9.99999e-01
1.145774156e+00,7.98960e-01,9.99999e-01,7.98960e-01,9.99999e-01
1.151503026e+00,8.02510e-01,9.99999e-01,8.02510e-01,9.99999e-01
1.157260541e+00,8.06005e-01,9.99999e-01,8.06005e-01,9.99999e-01
1.163046844e+00,8.09446e-01,9.99999e-01,8.09446e-01,9.99999e-01
1.168862078e+00,8.12833e-01,9.99999e-01,8.12833e-01,9.99999e-01
1.174706389e+00,8.16167e-01,9.99999e-01,8.16167e-01,9.99999e-01
1.180579921e+00,8.19448e-01,9.99999e-01,8.19448e-01,9.99999e-01
1.186482820e+00,8.22667e-01,9.99985e-01,8.22678e-01,9.99999e-01
1.192415234e+00,8.09398e-01,9.80071e-01,8.25856e-01,9.99999e-01
1.198377311e+00,4.55260e-01,5.49179e-01,8.28983e-01,9.99999e-01
1.204369197e+00,2.35128e-15,2.82585e-15,8.32060e-01,9.99999e-01
1.210391043e+00,1.48816e-58,1.78204e-58,8.35087e-01,9.99999e-01
1.216442998e+00,7.88729e-51,9.41130e-51,8.38065e-01,9.99999e-01
1.222525213e+00,4.38928e-50,5.21914e-50,8.40994e-01,9.99999e-01
1.228637839e+00,8.82171e-39,1.04538e-38,8.43876e-01,9.99999e-01
1.234781029e+00,1.18364e-24,1.39793e-24,8.46710e-01,9.99999e-01
1.240954934e+00,1.54620e-16,1.82013e-16,8.49498e-01,9.99999e-01
1.247159708e+00,1.10627e-08,1.29808e-08,8.52239e-01,9.99999e-01
1.253395507e+00,9.80400e-06,1.14675e-05,8.54935e-01,9.99999e-01
1.259662485e+00,1.25412e-03,1.46239e-03,8.57585e-01,9.99999e-01
1.265960797e+00,2.07762e-02,2.41530e-02,8.60192e-01,9.99999e-01
1.272290601e+00,1.69843e-01,1.96861e-01,8.62754e-01,9.99999e-01
1.278652054e+00,1.42118e-01,1.64246e-01,8.65274e-01,9.99999e-01
1.285045314e+00,1.36988e-03,1.57865e-03,8.67751e-01,9.99999e-01
1.291470541e+00,1.78548e-07,2.05184e-07,8.70185e-01,9.99999e-01
1.297927893e+00,2.04488e-03,2.34349e-03,8.72579e-01,9.99999e-01
1.304417533e+00,4.45594e-02,5.09290e-02,8.74931e-01,9.99999e-01
1.310939621e+00,7.11865e-03,8.11479e-03,8.77243e-01,9.99999e-01
1.317494319e+00,1.15165e-20,1.30942e-20,8.79516e-01,9.99999e-01
1.324081790e+00,2.73328e-10,3.09983e-10,8.81749e-01,9.99999e-01
1.330702199e+00,3.26357e-08,3.69205e-08,8.83943e-01,9.99999e-01
1.337355710e+00,1.18217e-07,1.33413e-07,8.86100e-01,9.99999e-01
1.344042489e+00,2.14293e-09,2.41262e-09,8.88219e-01,9.99999e-01
1.350762701e+00,1.92050e-08,2.15714e-08,8.90301e-01,9.99999e-01
1.357516515e+00,1.46476e-05,1.64147e-05,8.92347e-01,9.99999e-01
1.364304097e+00,5.31017e-04,5.93741e-04,8.94357e-01,9.99999e-01
1.371125618e+00,1.94578e-02,2.17082e-02,8.96331e-01,9.99999e-01
1.377981246e+00,3.62227e-02,4.03249e-02,8.98271e-01,9.99999e-01
1.384871152e+00,1.39027e-01,1.54444e-01,9.00176e-01,9.99999e-01
1.391795508e+00,1.60900e-01,1.78371e-01,9.02048e-01,9.99999e-01
1.398754485e+00,3.10021e-01,3.42986e-01,9.03887e-01,9.99999e-01
1.405748258e+00,4.13452e-01,4.56503e-01,9.05693e-01,9.99999e-01
1.412776999e+00,5.52563e-01,6.08907e-01,9.07467e-01,9.99999e-01
1.419840884e+00,4.89596e-01,5.38486e-01,9.09209e-01,9.99999e-01
1.426940089e+00,3.32362e-02,3.64864e-02,9.10920e-01,9.99999e-01
1.434074789e+00,0.00000e+00,0.00000e+00,9.12600e-01,9.99999e-01
1.441245163e+00,0.00000e+00,0.00000e+00,9.14250e-01,9.99999e-01
1.448451389e+00,0.00000e+00,0.00000e+00,9.15870e-01,9.99999e-01
1.455693646e+00,0.00000e+00,0.00000e+00,9.17462e-01,9.99999e-01
1.462972114e+00,8.71043e-231,9.47791e-231,9.19024e-01,9.99999e-01
1.470286975e+00,2.74912e-96,2.98636e-96,9.20558e-01,9.99999e-01
1.477638409e+00,7.79196e-61,8.45055e-61,9.22065e-01,9.99999e-01
1.485026601e+00,3.06186e-34,3.31534e-34,9.23544e-01,9.99999e-01
1.492451734e+00,3.51444e-29,3.79941e-29,9.24996e-01,9.99999e-01
1.499913993e+00,3.60822e-13,3.89479e-13,9.26421e-01,9.99999e-01
1.507413563e+00,5.81090e-12,6.26295e-12,9.27821e-01,9.99999e-01
1.514950631e+00,2.24281e-13,2.41371e-13,9.29195e-01,9.99999e-01
1.522525384e+00,1.71554e-43,1.84359e-43,9.30544e-01,9.99999e-01
1.530138011e+00,1.08399e-102,1.16324e-102,9.31868e-01,9.99999e-01
1.537788701e+00,3.49087e-76,3.74088e-76,9.33167e-01,9.99999e-01
1.545477645e+00,9.38914e-17,1.00478e-16,9.34443e-01,9.99999e-01
1.553205033e+00,5.12445e-12,5.47662e-12,9.35696e-01,9.99999e-01
1.560971058e+00,1.64676e-12,1.75763e-12,9.36925e-01,9.99999e-01
1.568775913e+00,5.39653e-259,5.75242e-259,9.38131e-01,9.99999e-01
1.576619793e+00,0.00000e+00,0.00000e+00,9.39315e-01,9.99999e-01
1.584502892e+00,0.00000e+00,0.00000e+00,9.40478e-01,9.99999e-01
1.592425406e+00,7.01124e-231,7.44594e-231,9.41618e-01,9.99999e-01
1.600387533e+00,0.00000e+00,0.00000e+00,9.42738e-01,9.99999e-01
1.608389471e+00,0.00000e+00,0.00000e+00,9.43837e-01,9.99999e-01
1.616431418e+00,0.00000e+00,0.00000e+00,9.44915e-01,9.99999e-01
1.624513575e+00,3.17299e-293,3.35421e-293,9.45973e-01,9.99999e-01
1.632636143e+00,7.80716e-218,8.24399e-218,9.47011e-01,9.99999e-01
1.640799324e+00,2.88104e-89,3.03898e-89,9.48030e-01,9.99999e-01
1.649003321e+00,2.88613e-89,3.04113e-89,9.49030e-01,9.99999e-01
1.657248337e+00,3.63007e-69,3.82108e-69,9.50011e-01,9.99999e-01
1.665534579e+00,1.26138e-69,1.32640e-69,9.50974e-01,9.99999e-01
1.673862252e+00,1.14496e-44,1.20279e-44,9.51919e-01,9.99999e-01
1.682231563e+00,3.44374e-31,3.61416e-31,9.52846e-01,9.99999e-01
1.690642721e+00,1.07044e-17,1.12234e-17,9.53755e-01,9.99999e-01
1.699095934e+00,2.01221e-11,2.10780e-11,9.54648e-01,9.99999e-01
1.707591414e+00,2.94253e-06,3.07949e-06,9.55523e-01,9.99999e-01
1.716129371e+00,6.83037e-04,7.14187e-04,9.56382e-01,9.99999e-01
1.724710018e+00,1.64461e-02,1.71810e-02,9.57225e-01,9.99999e-01
1.733333568e+00,6.61261e-02,6.90214e-02,9.58052e-01,9.99999e-01
1.742000236e+00,1.96440e-01,2.04868e-01,9.58863e-01,9.99999e-01
1.750710237e+00,2.67540e-03,2.78786e-03,9.59659e-01,9.99999e-01
1.759463788e+00,1.14478e-42,1.19193e-42,9.60440e-01,9.99999e-01
1.768261107e+00,1.13944e-44,1.18543e-44,9.61206e-01,9.99999e-01
1.777102413e+00,2.54552e-43,2.64618e-43,9.61957e-01,9.99999e-01
1.785987925e+00,8.17197e-41,8.48863e-41,9.62695e-01,9.99999e-01
1.794917864e+00,5.58788e-39,5.80005e-39,9.63418e-01,9.99999e-01
1.803892454e+00,1.52957e-37,1.58648e-37,9.64127e-01,9.99999e-01
1.812911916e+00,4.71987e-36,4.89195e-36,9.64823e-01,9.99999e-01
1.821976476e+00,3.84693e-36,3.98436e-36,9.65506e-01,9.99999e-01
1.831086358e+00,3.50830e-29,3.63111e-29,9.66176e-01,9.99999e-01
1.840241790e+00,7.43539e-25,7.69045e-25,9.66833e-01,9.99999e-01
1.849442999e+00,2.35780e-17,2.43705e-17,9.67477e-01,9.99999e-01
1.858690214e+00,3.28586e-16,3.39410e-16,9.68109e-01,9.99999e-01
1.867983665e+00,5.80069e-17,5.98793e-17,9.68729e-01,9.99999e-01
1.877323583e+00,6.63177e-81,6.84155e-81,9.69337e-01,9.99999e-01
