#,Wave/freq,Total,CO2,Rayleigh,CIA
4.000000000e-01,9.36198e-25,9.99999e-01,9.36198e-25,9.99999e-01
4.020000000e-01,2.79560e-24,9.99999e-01,2.79560e-24,9.99999e-01
4.040100000e-01,8.16048e-24,9.99999e-01,8.16048e-24,9.99999e-01
4.060300500e-01,2.33220e-23,9.99999e-01,2.33220e-23,9.99999e-01
4.080602003e-01,6.52844e-23,9.99999e-01,6.52844e-23,9.99999e-01
4.101005013e-01,1.79070e-22,9.99999e-01,1.79070e-22,9.99999e-01
4.121510038e-01,4.81480e-22,9.99999e-01,4.81480e-22,9.99999e-01
4.142117588e-01,1.26955e-21,9.99999e-01,1.26955e-21,9.99999e-01
4.162828176e-01,3.28401e-21,9.99999e-01,3.28401e-21,9.99999e-01
4.183642317e-01,8.33694e-21,9.99999e-01,8.33694e-21,9.99999e-01
4.204560528e-01,2.07786e-20,9.99999e-01,2.07786e-20,9.99999e-01
4.225583331e-01,5.08619e-20,9.99999e-01,5.08619e-20,9.99999e-01
4.246711247e-01,1.22318e-19,9.99999e-01,1.22318e-19,9.99999e-01
4.267944804e-01,2.89107e-19,9.99999e-01,2.89107e-19,9.99999e-01
4.289284528e-01,6.71812e-19,9.99999e-01,6.71812e-19,9.99999e-01
4.310730950e-01,1.53534e-18,9.99999e-01,1.53534e-18,9.99999e-01
4.332284605e-01,3.45201e-18,9.99999e-01,3.45201e-18,9.99999e-01
4.353946028e-01,7.63814e-18,9.99999e-01,7.63814e-18,9.99999e-01
4.375715758e-01,1.66376e-17,9.99999e-01,1.66376e-17,9.99999e-01
4.397594337e-01,3.56875e-17,9.99999e-01,3.56875e-17,9.99999e-01
4.419582309e-01,7.54041e-17,9.99999e-01,7.54041e-17,9.99999e-01
4.441680220e-01,1.56984e-16,9.99999e-01,1.56984e-16,9.99999e-01
4.463888621e-01,3.22127e-16,9.99999e-01,3.22127e-16,9.99999e-01
4.486208064e-01,6.51676e-16,9.99999e-01,6.51676e-16,9.99999e-01
4.508639105e-01,1.30015e-15,9.99999e-01,1.30015e-15,9.99999e-01
4.531182300e-01,2.55875e-15,9.99999e-01,2.55875e-15,9.99999e-01
4.553838212e-01,4.96885e-15,9.99999e-01,4.96885e-15,9.99999e-01
4.576607403e-01,9.52336e-15,9.99999e-01,9.52336e-15,9.99999e-01
4.599490440e-01,1.80195e-14,9.99999e-01,1.80195e-14,9.99999e-01
4.622487892e-01,3.36687e-14,9.99999e-01,3.36687e-14,9.99999e-01
4.645600332e-01,6.21366e-14,9.99999e-01,6.21366e-14,9.99999e-01
4.668828333e-01,1.13295e-13,9.99999e-01,1.13295e-13,9.99999e-01
4.692172475e-01,2.04138e-13,9.99999e-01,2.04138e-13,9.99999e-01
4.715633337e-01,3.63566e-13,9.99999e-01,3.63566e-13,9.99999e-01
4.739211504e-01,6.40166e-13,9.99999e-01,6.40166e-13,9.99999e-01
4.762907561e-01,1.11468e-12,9.99999e-01,1.11468e-12,9.99999e-01
4.786722099e-01,1.91976e-12,9.99999e-01,1.91976e-12,9.99999e-01
4.810655710e-01,3.27101e-12,9.99999e-01,3.27101e-12,9.99999e-01
4.834708988e-01,5.51500e-12,9.99999e-01,5.51500e-12,9.99999e-01
4.858882533e-01,9.20297e-12,9.99999e-01,9.20297e-12,9.99999e-01
4.883176946e-01,1.52026e-11,9.99999e-01,1.52026e-11,9.99999e-01
4.907592831e-01,2.48657e-11,9.99999e-01,2.48657e-11,9.99999e-01
4.932130795e-01,4.02777e-11,9.99999e-01,4.02777e-11,9.99999e-01
4.956791449e-01,6.46235e-11,9.99999e-01,6.46235e-11,9.99999e-01
4.981575406e-01,1.02721e-10,9.99999e-01,1.02721e-10,9.99999e-01
5.006483283e-01,1.61791e-10,9.99999e-01,1.61791e-10,9.99999e-01
5.031515699e-01,2.52553e-10,9.99999e-01,2.52553e-10,9.99999e-01
5.056673278e-01,3.90778e-10,9.99999e-01,3.90778e-10,9.99999e-01
5.081956644e-01,5.99463e-10,9.99999e-01,5.99463e-10,9.99999e-01
5.107366428e-01,9.11852e-10,9.99999e-01,9.11852e-10,9.99999e-01
5.132903260e-01,1.37559e-09,9.99999e-01,1.37559e-09,9.99999e-01
5.158567776e-01,2.05838e-09,9.99999e-01,2.05838e-09,9.99999e-01
5.184360615e-01,3.05566e-09,9.99999e-01,3.05566e-09,9.99999e-01
5.210282418e-01,4.50085e-09,9.99999e-01,4.50085e-09,9.99999e-01
5.236333830e-01,6.57904e-09,9.99999e-01,6.57904e-09,9.99999e-01
5.262515499e-01,9.54497e-09,9.99999e-01,9.54497e-09,9.99999e-01
5.288828077e-01,1.37465e-08,9.99999e-01,1.37465e-08,9.99999e-01
5.315272217e-01,1.96555e-08,9.99999e-01,1.96555e-08,9.99999e-01
5.341848578e-01,2.79066e-08,9.99999e-01,2.79066e-08,9.99999e-01
5.368557821e-01,3.93480e-08,9.99999e-01,3.93480e-08,9.99999e-01
5.395400610e-01,5.51050e-08,9.99999e-01,5.51050e-08,9.99999e-01
5.422377613e-01,7.66603e-08,9.99999e-01,7.66603e-08,9.99999e-01
5.449489501e-01,1.05954e-07,9.99999e-01,1.05954e-07,9.99999e-01
5.476736949e-01,1.45509e-07,9.99999e-01,1.45509e-07,9.99999e-01
5.504120634e-01,1.98582e-07,9.99999e-01,1.98582e-07,9.99999e-01
5.531641237e-01,2.69353e-07,9.99999e-01,2.69353e-07,9.99999e-01
5.559299443e-01,3.63152e-07,9.99999e-01,3.63152e-07,9.99999e-01
5.587095940e-01,4.86736e-07,9.99999e-01,4.86736e-07,9.99999e-01
5.615031420e-01,6.48612e-07,9.99999e-01,6.48612e-07,9.99999e-01
5.643106577e-01,8.59436e-07,9.99999e-01,8.59436e-07,9.99999e-01
5.671322110e-01,1.13247e-06,9.99999e-01,1.13247e-06,9.99999e-01
5.699678720e-01,1.48414e-06,9.99999e-01,1.48414e-06,9.99999e-01
5.728177114e-01,1.93465e-06,9.99999e-01,1.93465e-06,9.99999e-01
5.756818000e-01,2.50875e-06,9.99999e-01,2.50875e-06,9.99999e-01
5.785602090e-01,3.23654e-06,9.99999e-01,3.23654e-06,9.99999e-01
5.814530100e-01,4.15452e-06,9.99999e-01,4.15452e-06,9.99999e-01
5.843602750e-01,5.30663e-06,9.99999e-01,5.30663e-06,9.99999e-01
5.872820764e-01,6.74553e-06,9.99999e-01,6.74553e-06,9.99999e-01
5.902184868e-01,8.53407e-06,9.99999e-01,8.53407e-06,9.99999e-01
5.931695792e-01,1.07468e-05,9.99999e-01,1.07468e-05,9.99999e-01
5.961354271e-01,1.34717e-05,9.99999e-01,1.34717e-05,9.99999e-01
5.991161043e-01,1.68124e-05,9.99999e-01,1.68124e-05,9.99999e-01
6.021116848e-01,2.08898e-05,9.99999e-01,2.08898e-05,9.99999e-01
6.051222432e-01,2.58450e-05,9.99999e-01,2.58450e-05,9.99999e-01
6.081478544e-01,3.18416e-05,9.99999e-01,3.18416e-05,9.99999e-01
6.111885937e-01,3.90680e-05,9.99999e-01,3.90680e-05,9.99999e-01
6.142445367e-01,4.77412e-05,9.99999e-01,4.77412e-05,9.99999e-01
6.173157594e-01,5.81094e-05,9.99999e-01,5.81094e-05,9.99999e-01
6.204023382e-01,7.04552e-05,9.99999e-01,7.04552e-05,9.99999e-01
6.235043498e-01,8.50995e-05,9.99999e-01,8.50995e-05,9.99999e-01
6.266218716e-01,1.02405e-04,9.99999e-01,1.02405e-04,9.99999e-01
6.297549810e-01,1.22780e-04,9.99999e-01,1.22780e-04,9.99999e-01
6.329037559e-01,1.46682e-04,9.99999e-01,1.46682e-04,9.99999e-01
6.360682746e-01,1.74622e-04,9.99999e-01,1.74622e-04,9.99999e-01
6.392486160e-01,2.07170e-04,9.99999e-01,2.07170e-04,9.99999e-01
6.424448591e-01,2.44957e-04,9.99999e-01,2.44957e-04,9.99999e-01
6.456570834e-01,2.88678e-04,9.99999e-01,2.88678e-04,9.99999e-01
6.488853688e-01,3.39101e-04,9.99999e-01,3.39101e-04,9.99999e-01
6.521297956e-01,3.97067e-04,9.99999e-01,3.97067e-04,9.99999e-01
6.553904446e-01,4.63495e-04,9.99999e-01,4.63495e-04,9.99999e-01
6.586673968e-01,5.39385e-04,9.99999e-01,5.39385e-04,9.99999e-01
6.619607338e-01,6.25823e-04,9.99999e-01,6.25823e-04,9.99999e-01
6.652705375e-01,7.23985e-04,9.99999e-01,7.23985e-04,9.99999e-01
6.685968902e-01,8.35137e-04,9.99999e-01,8.35137e-04,9.99999e-01
6.719398746e-01,9.60640e-04,9.99999e-01,9.60640e-04,9.99999e-01
6.752995740e-01,1.10195e-03,9.99999e-01,1.10195e-03,9.99999e-01
6.786760719e-01,1.26063e-03,9.99999e-01,1.26063e-03,9.99999e-01
6.820694522e-01,1.43833e-03,9.99999e-01,1.43833e-03,9.99999e-01
6.854797995e-01,1.63681e-03,9.99999e-01,1.63681e-03,9.99999e-01
6.889071985e-01,1.85792e-03,9.99999e-01,1.85792e-03,9.99999e-01
6.923517345e-01,2.10364e-03,9.99999e-01,2.10364e-03,9.99999e-01
6.958134932e-01,2.37601e-03,9.99999e-01,2.37601e-03,9.99999e-01
6.992925606e-01,2.67721e-03,9.99999e-01,2.67721e-03,9.99999e-01
7.027890234e-01,3.00949e-03,9.99999e-01,3.00949e-03,9.99999e-01
7.063029686e-01,3.37519e-03,9.99999e-01,3.37519e-03,9.99999e-01
7.098344834e-01,3.77677e-03,9.99999e-01,3.77677e-03,9.99999e-01
7.133836558e-01,4.21675e-03,9.99999e-01,4.21675e-03,9.99999e-01
7.169505741e-01,4.69776e-03,9.99999e-01,4.69776e-03,9.99999e-01
7.205353270e-01,5.22248e-03,9.99999e-01,5.22248e-03,9.99999e-01
7.241380036e-01,5.79368e-03,9.99999e-01,5.79368e-03,9.99999e-01
7.277586936e-01,6.41419e-03,9.99999e-01,6.41419e-03,9.99999e-01
7.313974871e-01,7.08689e-03,9.99999e-01,7.08689e-03,9.99999e-01
7.350544745e-01,7.81474e-03,9.99999e-01,7.81474e-03,9.99999e-01
7.387297469e-01,8.60072e-03,9.99999e-01,8.60072e-03,9.99999e-01
7.424233956e-01,9.44785e-03,9.99999e-01,9.44785e-03,9.99999e-01
7.461355126e-01,1.03592e-02,9.99999e-01,1.03592e-02,9.99999e-01
7.498661902e-01,1.13378e-02,9.99999e-01,1.13378e-02,9.99999e-01
7.536155211e-01,1.23867e-02,9.99999e-01,1.23867e-02,9.99999e-01
7.573835987e-01,1.35090e-02,9.99999e-01,1.35090e-02,9.99999e-01
7.611705167e-01,1.47078e-02,9.99999e-01,1.47078e-02,9.99999e-01
7.649763693e-01,1.59862e-02,9.99999e-01,1.59862e-02,9.99999e-01
7.688012511e-01,1.73470e-02,9.99999e-01,1.73470e-02,9.99999e-01
7.726452574e-01,1.87934e-02,9.99999e-01,1.87934e-02,9.99999e-01
7.765084837e-01,2.03281e-02,9.99999e-01,2.03281e-02,9.99999e-01
7.803910261e-01,1.91218e-02,8.70988e-01,2.19541e-02,9.99999e-01
7.842929812e-01,1.14369e-02,4.83094e-01,2.36742e-02,9.99999e-01
7.882144461e-01,1.19107e-02,4.67249e-01,2.54910e-02,9.99999e-01
7.921555184e-01,1.68344e-02,6.14232e-01,2.74073e-02,9.99999e-01
7.961162960e-01,2.11041e-02,7.17208e-01,2.94253e-02,9.99999e-01
8.000968774e-01,2.63282e-02,8.34552e-01,3.15477e-02,9.99999e-01
8.040973618e-01,3.07516e-02,9.10437e-01,3.37767e-02,9.99999e-01
8.081178486e-01,3.45852e-02,9.57655e-01,3.61144e-02,9.99999e-01
8.121584379e-01,3.80538e-02,9.86797e-01,3.85629e-02,9.99999e-01
8.162192301e-01,4.10036e-02,9.97068e-01,4.11241e-02,9.99999e-01
8.203003262e-01,4.37979e-02,9.99958e-01,4.37997e-02,9.99999e-01
8.244018279e-01,4.65914e-02,9.99999e-01,4.65914e-02,9.99999e-01
8.285238370e-01,4.95006e-02,9.99999e-01,4.95006e-02,9.99999e-01
8.326664562e-01,5.25285e-02,9.99999e-01,5.25285e-02,9.99999e-01
8.368297885e-01,5.56763e-02,9.99999e-01,5.56763e-02,9.99999e-01
8.410139374e-01,5.89449e-02,9.99999e-01,5.89449e-02,9.99999e-01
8.452190071e-01,6.23352e-02,9.99999e-01,6.23352e-02,9.99999e-01
8.494451021e-01,6.58476e-02,9.99999e-01,6.58476e-02,9.99999e-01
8.536923276e-01,6.94827e-02,9.99999e-01,6.94827e-02,9.99999e-01
8.579607893e-01,7.32407e-02,9.99999e-01,7.32407e-02,9.99999e-01
8.622505932e-01,7.71217e-02,9.99999e-01,7.71217e-02,9.99999e-01
8.665618462e-01,6.77422e-02,8.35029e-01,8.11255e-02,9.99999e-01
8.708946554e-01,1.48084e-02,1.73702e-01,8.52520e-02,9.99999e-01
8.752491287e-01,1.98762e-02,2.22079e-01,8.95005e-02,9.99999e-01
8.796253743e-01,3.99733e-02,4.25833e-01,9.38706e-02,9.99999e-01
8.840235012e-01,6.22315e-02,6.32681e-01,9.83614e-02,9.99999e-01
8.884436187e-01,8.57863e-02,8.33103e-01,1.02972e-01,9.99999e-01
8.928858368e-01,9.99745e-02,9.28258e-01,1.07701e-01,9.99999e-01
8.973502660e-01,1.10535e-01,9.82121e-01,1.12548e-01,9.99999e-01
9.018370173e-01,1.17277e-01,9.98016e-01,1.17510e-01,9.99999e-01
9.063462024e-01,1.16606e-01,9.51209e-01,1.22587e-01,9.99999e-01
9.108779334e-01,1.13650e-01,8.89446e-01,1.27776e-01,9.99999e-01
9.154323231e-01,1.29481e-01,9.72984e-01,1.33076e-01,9.99999e-01
9.200094847e-01,1.01332e-01,7.31722e-01,1.38484e-01,9.99999e-01
9.246095321e-01,8.16735e-02,5.67181e-01,1.43999e-01,9.99999e-01
9.292325798e-01,9.71148e-02,6.49085e-01,1.49618e-01,9.99999e-01
9.338787427e-01,1.01555e-01,6.53765e-01,1.55339e-01,9.99999e-01
9.385481364e-01,1.17376e-01,7.28323e-01,1.61159e-01,9.99999e-01
9.432408771e-01,1.37347e-01,8.22066e-01,1.67075e-01,9.99999e-01
9.479570815e-01,1.56479e-01,9.04052e-01,1.73086e-01,9.99999e-01
9.526968669e-01,1.70706e-01,9.52665e-01,1.79188e-01,9.99999e-01
9.574603512e-01,1.81567e-01,9.79445e-01,1.85378e-01,9.99999e-01
9.622476530e-01,1.90415e-01,9.93543e-01,1.91653e-01,9.99999e-01
9.670588912e-01,1.97627e-01,9.98063e-01,1.98010e-01,9.99999e-01
9.718941857e-01,2.04419e-01,9.99864e-01,2.04446e-01,9.99999e-01
9.767536566e-01,2.10958e-01,9.99999e-01,2.10958e-01,9.99999e-01
9.816374249e-01,2.17543e-01,9.99999e-01,2.17543e-01,9.99999e-01
9.865456120e-01,2.24197e-01,9.99999e-01,2.24197e-01,9.99999e-01
9.914783401e-01,2.30918e-01,9.99999e-01,2.30918e-01,9.99999e-01
9.964357318e-01,2.37701e-01,9.99999e-01,2.37701e-01,9.99999e-01
1.001417910e+00,2.44543e-01,9.99999e-01,2.44543e-01,9.99999e-01
1.006425000e+00,2.51442e-01,9.99999e-01,2.51442e-01,9.99999e-01
1.011457125e+00,2.58393e-01,9.99999e-01,2.58393e-01,9.99999e-01
1.016514411e+00,2.65393e-01,9.99999e-01,2.65393e-01,9.99999e-01
1.021596983e+00,2.72358e-01,9.99704e-01,2.72438e-01,9.99999e-01
1.026704968e+00,2.73970e-01,9.80122e-01,2.79527e-01,9.99999e-01
1.031838492e+00,2.47854e-01,8.64646e-01,2.86654e-01,9.99999e-01
1.036997685e+00,7.46194e-03,2.53966e-02,2.93817e-01,9.99999e-01
1.042182673e+00,7.52031e-05,2.49834e-04,3.01012e-01,9.99999e-01
1.047393587e+00,2.14378e-04,6.95502e-04,3.08235e-01,9.99999e-01
1.052630555e+00,1.74820e-10,5.54130e-10,3.15485e-01,9.99999e-01
1.057893707e+00,6.58475e-10,2.04016e-09,3.22756e-01,9.99999e-01
1.063183176e+00,1.90217e-07,5.76332e-07,3.30047e-01,9.99999e-01
1.068499092e+00,4.65758e-06,1.38062e-05,3.37353e-01,9.99999e-01
1.073841587e+00,2.15681e-04,6.25757e-04,3.44672e-01,9.99999e-01
1.079210795e+00,3.62021e-03,1.02846e-02,3.52001e-01,9.99999e-01
1.084606849e+00,2.52321e-02,7.02187e-02,3.59336e-01,9.99999e-01
1.090029883e+00,9.03138e-02,2.46305e-01,3.66674e-01,9.99999e-01
1.095480033e+00,1.86535e-01,4.98739e-01,3.74013e-01,9.99999e-01
1.100957433e+00,2.71771e-01,7.12653e-01,3.81350e-01,9.99999e-01
1.106462220e+00,3.37741e-01,8.68941e-01,3.88681e-01,9.99999e-01
1.111994531e+00,3.75860e-01,9.49129e-01,3.96004e-01,9.99999e-01
1.117554504e+00,3.98223e-01,9.87369e-01,4.03317e-01,9.99999e-01
1.123142276e+00,4.10275e-01,9.99169e-01,4.10616e-01,9.99999e-01
1.128757988e+00,4.17899e-01,9.99999e-01,4.17899e-01,9.99999e-01
1.134401778e+00,4.25164e-01,9.99999e-01,4.25164e-01,9.99999e-01
1.140073787e+00,4.32407e-01,9.99999e-01,4.32407e-01,9.99999e-01
1.145774156e+00,4.39628e-01,9.99999e-01,4.39628e-01,9.99999e-01
1.151503026e+00,4.46823e-01,9.99999e-01,4.46823e-01,9.99999e-01
1.157260541e+00,4.53990e-01,9.99999e-01,4.53990e-01,9.99999e-01
1.163046844e+00,4.61126e-01,9.99999e-01,4.61126e-01,9.99999e-01
1.168862078e+00,4.68231e-01,9.99999e-01,4.68231e-01,9.99999e-01
1.174706389e+00,4.75302e-01,9.99999e-01,4.75302e-01,9.99999e-01
1.180579921e+00,4.82337e-01,9.99999e-01,4.82337e-01,9.99999e-01
1.186482820e+00,4.89313e-01,9.99957e-01,4.89333e-01,9.99999e-01
1.192415234e+00,4.64054e-01,9.35045e-01,4.96290e-01,9.99999e-01
1.198377311e+00,2.39711e-01,4.76367e-01,5.03206e-01,9.99999e-01
1.204369197e+00,3.29226e-50,6.45441e-50,5.10079e-01,9.99999e-01
1.210391043e+00,2.54521e-208,4.92392e-208,5.16907e-01,9.99999e-01
1.216442998e+00,4.79562e-180,9.15738e-180,5.23688e-01,9.99999e-01
1.222525213e+00,2.54862e-177,4.80489e-177,5.30422e-01,9.99999e-01
1.228637839e+00,1.93379e-136,3.60038e-136,5.37108e-01,9.99999e-01
1.234781029e+00,3.04121e-84,5.59310e-84,5.43742e-01,9.99999e-01
1.240954934e+00,1.96497e-55,3.57056e-55,5.50326e-01,9.99999e-01
1.247159708e+00,8.31429e-26,1.49307e-25,5.56856e-01,9.99999e-01
1.253395507e+00,1.39297e-17,2.47273e-17,5.63333e-01,9.99999e-01
1.259662485e+00,4.55403e-10,7.99295e-10,5.69755e-01,9.99999e-01
1.265960797e+00,8.30791e-06,1.44204e-05,5.76122e-01,9.99999e-01
1.272290601e+00,2.27401e-03,3.90434e-03,5.82431e-01,9.99999e-01
1.278652054e+00,2.47756e-03,4.20865e-03,5.88683e-01,9.99999e-01
1.285045314e+00,1.43594e-07,2.41384e-07,5.94877e-01,9.99999e-01
1.291470541e+00,1.55708e-23,2.59076e-23,6.01011e-01,9.99999e-01
1.297927893e+00,1.79665e-07,2.95946e-07,6.07086e-01,9.99999e-01
1.304417533e+00,2.10920e-05,3.44021e-05,6.13100e-01,9.99999e-01
1.310939621e+00,4.90461e-06,7.92275e-06,6.19054e-01,9.99999e-01
1.317494319e+00,5.18494e-71,8.29662e-71,6.24946e-01,9.99999e-01
1.324081790e+00,3.13919e-45,4.97671e-45,6.30775e-01,9.99999e-01
1.330702199e+00,6.82628e-27,1.07240e-26,6.36543e-01,9.99999e-01
1.337355710e+00,3.45246e-24,5.37558e-24,6.42248e-01,9.99999e-01
1.344042489e+00,2.30452e-24,3.55697e-24,6.47890e-01,9.99999e-01
1.350762701e+00,2.96057e-27,4.53055e-27,6.53468e-01,9.99999e-01
1.357516515e+00,6.30967e-16,9.57486e-16,6.58983e-01,9.99999e-01
1.364304097e+00,7.13044e-12,1.07316e-11,6.64434e-01,9.99999e-01
1.371125618e+00,1.81776e-06,2.71379e-06,6.69821e-01,9.99999e-01
1.377981246e+00,9.29569e-06,1.37684e-05,6.75144e-01,9.99999e-01
1.384871152e+00,9.24120e-04,1.35819e-03,6.80403e-01,9.99999e-01
1.391795508e+00,1.70483e-03,2.48663e-03,6.85598e-01,9.99999e-01
1.398754485e+00,1.40903e-02,2.03992e-02,6.90729e-01,9.99999e-01
1.405748258e+00,4.22640e-02,6.07419e-02,6.95796e-01,9.99999e-01
1.412776999e+00,1.16358e-01,1.66037e-01,7.00798e-01,9.99999e-01
1.419840884e+00,1.21218e-01,1.71761e-01,7.05737e-01,9.99999e-01
1.426940089e+00,3.06019e-03,4.30641e-03,7.10612e-01,9.99999e-01
1.434074789e+00,0.00000e+00,0.00000e+00,7.15424e-01,9.99999e-01
1.441245163e+00,0.00000e+00,0.00000e+00,7.20172e-01,9.99999e-01
1.448451389e+00,0.00000e+00,0.00000e+00,7.24856e-01,9.99999e-01
1.455693646e+00,0.00000e+00,0.00000e+00,7.29478e-01,9.99999e-01
1.462972114e+00,0.00000e+00,0.00000e+00,7.34037e-01,9.99999e-01
1.470286975e+00,0.00000e+00,0.00000e+00,7.38534e-01,9.99999e-01
1.477638409e+00,1.20740e-216,1.62509e-216,7.42969e-01,9.99999e-01
1.485026601e+00,2.12290e-119,2.84060e-119,7.47342e-01,9.99999e-01
1.492451734e+00,1.83999e-101,2.44792e-101,7.51653e-01,9.99999e-01
1.499913993e+00,2.02464e-42,2.67843e-42,7.55904e-01,9.99999e-01
1.507413563e+00,4.36665e-41,5.74488e-41,7.60093e-01,9.99999e-01
1.514950631e+00,5.77377e-43,7.55508e-43,7.64223e-01,9.99999e-01
1.522525384e+00,3.47241e-153,4.51964e-153,7.68293e-01,9.99999e-01
1.530138011e+00,0.00000e+00,0.00000e+00,7.72303e-01,9.99999e-01
1.537788701e+00,7.20253e-273,9.27855e-273,7.76255e-01,9.99999e-01
1.545477645e+00,2.47016e-55,3.16627e-55,7.80148e-01,9.99999e-01
1.553205033e+00,1.47840e-40,1.88575e-40,7.83983e-01,9.99999e-01
1.560971058e+00,1.70887e-40,2.16927e-40,7.87761e-01,9.99999e-01
1.568775913e+00,0.00000e+00,0.00000e+00,7.91482e-01,9.99999e-01
1.576619793e+00,0.00000e+00,0.00000e+00,7.95146e-01,9.99999e-01
1.584502892e+00,0.00000e+00,0.00000e+00,7.98755e-01,9.99999e-01
1.592425406e+00,0.00000e+00,0.00000e+00,8.02308e-01,9.99999e-01
1.600387533e+00,0.00000e+00,0.00000e+00,8.05806e-01,9.99999e-01
1.608389471e+00,0.00000e+00,0.00000e+00,8.09250e-01,9.99999e-01
1.616431418e+00,0.00000e+00,0.00000e+00,8.12640e-01,9.99999e-01
1.624513575e+00,0.00000e+00,0.00000e+00,8.15977e-01,9.99999e-01
1.632636143e+00,0.00000e+00,0.00000e+00,8.19262e-01,9.99999e-01
1.640799324e+00,1.07509e-320,1.30680e-320,8.22494e-01,9.99999e-01
1.649003321e+00,1.07805e-320,1.30532e-320,8.25675e-01,9.99999e-01
1.657248337e+00,3.49887e-247,4.22158e-247,8.28805e-01,9.99999e-01
1.665534579e+00,7.40933e-249,8.90667e-249,8.31884e-01,9.99999e-01
1.673862252e+00,1.30016e-157,1.55724e-157,8.34914e-01,9.99999e-01
1.682231563e+00,3.13356e-108,3.73980e-108,8.37895e-01,9.99999e-01
1.690642721e+00,7.95473e-59,9.46058e-59,8.40827e-01,9.99999e-01
1.699095934e+00,7.29159e-37,8.64227e-37,8.43712e-01,9.99999e-01
1.707591414e+00,8.95194e-18,1.05746e-17,8.46549e-01,9.99999e-01
1.716129371e+00,8.24123e-11,9.70310e-11,8.49339e-01,9.99999e-01
1.724710018e+00,1.37172e-06,1.60984e-06,8.52083e-01,9.99999e-01
1.733333568e+00,8.75218e-05,1.02391e-04,8.54781e-01,9.99999e-01
1.742000236e+00,3.94514e-03,4.60109e-03,8.57435e-01,9.99999e-01
1.750710237e+00,9.61838e-07,1.11836e-06,8.60043e-01,9.99999e-01
1.759463788e+00,2.23334e-150,2.58906e-150,8.62609e-01,9.99999e-01
1.768261107e+00,1.73155e-157,2.00149e-157,8.65130e-01,9.99999e-01
1.777102413e+00,1.30645e-153,1.50581e-153,8.67610e-01,9.99999e-01
1.785987925e+00,1.97059e-143,2.26492e-143,8.70047e-01,9.99999e-01
1.794917864e+00,7.44747e-137,8.53634e-137,8.72443e-01,9.99999e-01
1.803892454e+00,2.16084e-131,2.47010e-131,8.74797e-01,9.99999e-01
1.812911916e+00,3.55290e-126,4.05068e-126,8.77112e-01,9.99999e-01
1.821976476e+00,2.80170e-126,3.18596e-126,8.79386e-01,9.99999e-01
1.831086358e+00,8.32693e-101,9.44501e-101,8.81622e-01,9.99999e-01
1.840241790e+00,1.43148e-85,1.61965e-85,8.83818e-01,9.99999e-01
1.849442999e+00,4.03044e-59,4.54914e-59,8.85977e-01,9.99999e-01
1.858690214e+00,9.00659e-56,1.01414e-55,8.88098e-01,9.99999e-01
1.867983665e+00,2.81573e-56,3.16309e-56,8.90182e-01,9.99999e-01
1.877323583e+00,3.68327e-290,4.12816e-290,8.92230e-01,9.99999e-01
