#,Wave/freq,Total,CO2,Rayleigh,CIA
4.000000000e-01,3.46690e-10,9.99999e-01,3.46690e-10,9.99999e-01
4.020000000e-01,5.33320e-10,9.99999e-01,5.33320e-10,9.99999e-01
4.040100000e-01,8.13116e-10,9.99999e-01,8.13116e-10,9.99999e-01
4.060300500e-01,1.22942e-09,9.99999e-01,1.22942e-09,9.99999e-01
4.080602003e-01,1.84374e-09,9.99999e-01,1.84374e-09,9.99999e-01
4.101005013e-01,2.74299e-09,9.99999e-01,2.74299e-09,9.99999e-01
4.121510038e-01,4.04893e-09,9.99999e-01,4.04893e-09,9.99999e-01
4.142117588e-01,5.93084e-09,9.99999e-01,5.93084e-09,9.99999e-01
4.162828176e-01,8.62219e-09,9.99999e-01,8.62219e-09,9.99999e-01
4.183642317e-01,1.24425e-08,9.99999e-01,1.24425e-08,9.99999e-01
4.204560528e-01,1.78260e-08,9.99999e-01,1.78260e-08,9.99999e-01
4.225583331e-01,2.53580e-08,9.99999e-01,2.53580e-08,9.99999e-01
4.246711247e-01,3.58222e-08,9.99999e-01,3.58222e-08,9.99999e-01
4.267944804e-01,5.02605e-08,9.99999e-01,5.02605e-08,9.99999e-01
4.289284528e-01,7.00480e-08,9.99999e-01,7.00480e-08,9.99999e-01
4.310730950e-01,9.69877e-08,9.99999e-01,9.69877e-08,9.99999e-01
4.332284605e-01,1.33428e-07,9.99999e-01,1.33428e-07,9.99999e-01
4.353946028e-01,1.82406e-07,9.99999e-01,1.82406e-07,9.99999e-01
4.375715758e-01,2.47828e-07,9.99999e-01,2.47828e-07,9.99999e-01
4.397594337e-01,3.34682e-07,9.99999e-01,3.34682e-07,9.99999e-01
4.419582309e-01,4.49301e-07,9.99999e-01,4.49301e-07,9.99999e-01
4.441680220e-01,5.99674e-07,9.99999e-01,5.99674e-07,9.99999e-01
4.463888621e-01,7.95824e-07,9.99999e-01,7.95824e-07,9.99999e-01
4.486208064e-01,1.05025e-06,9.99999e-01,1.05025e-06,9.99999e-01
4.508639105e-01,1.37843e-06,9.99999e-01,1.37843e-06,9.99999e-01
4.531182300e-01,1.79948e-06,9.99999e-01,1.79948e-06,9.99999e-01
4.553838212e-01,2.33680e-06,9.99999e-01,2.33680e-06,9.99999e-01
4.576607403e-01,3.01895e-06,9.99999e-01,3.01895e-06,9.99999e-01
4.599490440e-01,3.88054e-06,9.99999e-01,3.88054e-06,9.99999e-01
4.622487892e-01,4.96335e-06,9.99999e-01,4.96335e-06,9.99999e-01
4.645600332e-01,6.31752e-06,9.99999e-01,6.31752e-06,9.99999e-01
4.668828333e-01,8.00293e-06,9.99999e-01,8.00293e-06,9.99999e-01
4.692172475e-01,1.00907e-05,9.99999e-01,1.00907e-05,9.99999e-01
4.715633337e-01,1.26651e-05,9.99999e-01,1.26651e-05,9.99999e-01
4.739211504e-01,1.58250e-05,9.99999e-01,1.58250e-05,9.99999e-01
4.762907561e-01,1.96865e-05,9.99999e-01,1.96865e-05,9.99999e-01
4.786722099e-01,2.43848e-05,9.99999e-01,2.43848e-05,9.99999e-01
4.810655710e-01,3.00771e-05,9.99999e-01,3.00771e-05,9.99999e-01
4.834708988e-01,3.69446e-05,9.99999e-01,3.69446e-05,9.99999e-01
4.858882533e-01,4.51963e-05,9.99999e-01,4.51963e-05,9.99999e-01
4.883176946e-01,5.50713e-05,9.99999e-01,5.50713e-05,9.99999e-01
4.907592831e-01,6.68425e-05,9.99999e-01,6.68425e-05,9.99999e-01
4.932130795e-01,8.08199e-05,9.99999e-01,8.08199e-05,9.99999e-01
4.956791449e-01,9.73543e-05,9.99999e-01,9.73543e-05,9.99999e-01
4.981575406e-01,1.16841e-04,9.99999e-01,1.16841e-04,9.99999e-01
5.006483283e-01,1.39724e-04,9.99999e-01,1.39724e-04,9.99999e-01
5.031515699e-01,1.66498e-04,9.99999e-01,1.66498e-04,9.99999e-01
5.056673278e-01,1.97718e-04,9.99999e-01,1.97718e-04,9.99999e-01
5.081956644e-01,2.33996e-04,9.99999e-01,2.33996e-04,9.99999e-01
5.107366428e-01,2.76011e-04,9.99999e-01,2.76011e-04,9.99999e-01
5.132903260e-01,3.24509e-04,9.99999e-01,3.24509e-04,9.99999e-01
5.158567776e-01,3.80311e-04,9.99999e-01,3.80311e-04,9.99999e-01
5.184360615e-01,4.44313e-04,9.99999e-01,4.44313e-04,9.99999e-01
5.210282418e-01,5.17494e-04,9.99999e-01,5.17494e-04,9.99999e-01
5.236333830e-01,6.00917e-04,9.99999e-01,6.00917e-04,9.99999e-01
5.262515499e-01,6.95730e-04,9.99999e-01,6.95730e-04,9.99999e-01
5.288828077e-01,8.03175e-04,9.99999e-01,8.03175e-04,9.99999e-01
5.315272217e-01,9.24587e-04,9.99999e-01,9.24587e-04,9.99999e-01
5.341848578e-01,1.06140e-03,9.99999e-01,1.06140e-03,9.99999e-01
5.368557821e-01,1.21513e-03,9.99999e-01,1.21513e-03,9.99999e-01
5.395400610e-01,1.38743e-03,9.99999e-01,1.38743e-03,9.99999e-01
5.422377613e-01,1.58001e-03,9.99999e-01,1.58001e-03,9.99999e-01
5.449489501e-01,1.79470e-03,9.99999e-01,1.79470e-03,9.99999e-01
5.476736949e-01,2.03344e-03,9.99999e-01,2.03344e-03,9.99999e-01
5.504120634e-01,2.29827e-03,9.99999e-01,2.29827e-03,9.99999e-01
5.531641237e-01,2.59132e-03,9.99999e-01,2.59132e-03,9.99999e-01
5.559299443e-01,2.91481e-03,9.99999e-01,2.91481e-03,9.99999e-01
5.587095940e-01,3.27107e-03,9.99999e-01,3.27107e-03,9.99999e-01
5.615031420e-01,3.66253e-03,9.99999e-01,3.66253e-03,9.99999e-01
5.643106577e-01,4.09169e-03,9.99999e-01,4.09169e-03,9.99999e-01
5.671322110e-01,4.56114e-03,9.99999e-01,4.56114e-03,9.99999e-01
5.699678720e-01,5.07355e-03,9.99999e-01,5.07355e-03,9.99999e-01
5.728177114e-01,5.63168e-03,9.99999e-01,5.63168e-03,9.99999e-01
5.756818000e-01,6.23833e-03,9.99999e-01,6.23833e-03,9.99999e-01
5.785602090e-01,6.89638e-03,9.99999e-01,6.89638e-03,9.99999e-01
5.814530100e-01,7.60876e-03,9.99999e-01,7.60876e-03,9.99999e-01
5.843602750e-01,8.37844e-03,9.99999e-01,8.37844e-03,9.99999e-01
5.872820764e-01,9.20844e-03,9.99999e-01,9.20844e-03,9.99999e-01
5.902184868e-01,1.01018e-02,9.99999e-01,1.01018e-02,9.99999e-01
5.931695792e-01,1.10616e-02,9.99999e-01,1.10616e-02,9.99999e-01
5.961354271e-01,1.20908e-02,9.99999e-01,1.20908e-02,9.99999e-01
5.991161043e-01,1.31926e-02,9.99999e-01,1.31926e-02,9.99999e-01
6.021116848e-01,1.43701e-02,9.99999e-01,1.43701e-02,9.99999e-01
6.051222432e-01,1.56263e-02,9.99999e-01,1.56263e-02,9.99999e-01
6.081478544e-01,1.69641e-02,9.99999e-01,1.69641e-02,9.99999e-01
6.111885937e-01,1.83866e-02,9.99999e-01,1.83866e-02,9.99999e-01
6.142445367e-01,1.98968e-02,9.99999e-01,1.98968e-02,9.99999e-01
6.173157594e-01,2.14974e-02,9.99999e-01,2.14974e-02,9.99999e-01
6.204023382e-01,2.31913e-02,9.99999e-01,2.31913e-02,9.99999e-01
6.235043498e-01,2.49812e-02,9.99999e-01,2.49812e-02,9.99999e-01
6.266218716e-01,2.68698e-02,9.99999e-01,2.68698e-02,9.99999e-01
6.297549810e-01,2.88596e-02,9.99999e-01,2.88596e-02,9.99999e-01
6.329037559e-01,3.09531e-02,9.99999e-01,3.09531e-02,9.99999e-01
6.360682746e-01,3.31525e-02,9.99999e-01,3.31525e-02,9.99999e-01
6.392486160e-01,3.54601e-02,9.99999e-01,3.54601e-02,9.99999e-01
6.424448591e-01,3.78779e-02,9.99999e-01,3.78779e-02,9.99999e-01
6.456570834e-01,4.04079e-02,9.99999e-01,4.04079e-02,9.99999e-01
6.488853688e-01,4.30519e-02,9.99999e-01,4.30519e-02,9.99999e-01
6.521297956e-01,4.58115e-02,9.99999e-01,4.58115e-02,9.99999e-01
6.553904446e-01,4.86881e-02,9.99999e-01,4.86881e-02,9.99999e-01
6.586673968e-01,5.16832e-02,9.99999e-01,5.16832e-02,9.99999e-01
6.619607338e-01,5.47979e-02,9.99999e-01,5.47979e-02,9.99999e-01
6.652705375e-01,5.80332e-02,9.99999e-01,5.80332e-02,9.99999e-01
6.685968902e-01,6.13899e-02,9.99999e-01,6.13899e-02,9.99999e-01
6.719398746e-01,6.48687e-02,9.99999e-01,6.48687e-02,9.99999e-01
6.752995740e-01,6.84700e-02,9.99999e-01,6.84700e-02,9.99999e-01
6.786760719e-01,7.21942e-02,9.99999e-01,7.21942e-02,9.99999e-01
6.820694522e-01,7.60413e-02,9.99999e-01,7.60413e-02,9.99999e-01
6.854797995e-01,8.00114e-02,9.99999e-01,8.00114e-02,9.99999e-01
6.889071985e-01,8.41041e-02,9.99999e-01,8.41041e-02,9.99999e-01
6.923517345e-01,8.83191e-02,9.99999e-01,8.83191e-02,9.99999e-01
6.958134932e-01,9.26558e-02,9.99999e-01,9.26558e-02,9.99999e-01
6.992925606e-01,9.71135e-02,9.99999e-01,9.71135e-02,9.99999e-01
7.027890234e-01,1.01691e-01,9.99999e-01,1.01691e-01,9.99999e-01
7.063029686e-01,1.06388e-01,9.99999e-01,1.06388e-01,9.99999e-01
7.098344834e-01,1.11202e-01,9.99999e-01,1.11202e-01,9.99999e-01
7.133836558e-01,1.16133e-01,9.99999e-01,1.16133e-01,9.99999e-01
7.169505741e-01,1.21178e-01,9.99999e-01,1.21178e-01,9.99999e-01
7.205353270e-01,1.26337e-01,9.99999e-01,1.26337e-01,9.99999e-01
7.241380036e-01,1.31606e-01,9.99999e-01,1.31606e-01,9.99999e-01
7.277586936e-01,1.36985e-01,9.99999e-01,1.36985e-01,9.99999e-01
7.313974871e-01,1.42471e-01,9.99999e-01,1.42471e-01,9.99999e-01
7.350544745e-01,1.48061e-01,9.99999e-01,1.48061e-01,9.99999e-01
7.387297469e-01,1.53754e-01,9.99999e-01,1.53754e-01,9.99999e-01
7.424233956e-01,1.59547e-01,9.99999e-01,1.59547e-01,9.99999e-01
7.461355126e-01,1.65438e-01,9.99999e-01,1.65438e-01,9.99999e-01
7.498661902e-01,1.71423e-01,9.99999e-01,1.71423e-01,9.99999e-01
7.536155211e-01,1.77499e-01,9.99999e-01,1.77499e-01,9.99999e-01
7.573835987e-01,1.83665e-01,9.99999e-01,1.83665e-01,9.99999e-01
7.611705167e-01,1.89917e-01,9.99999e-01,1.89917e-01,9.99999e-01
7.649763693e-01,1.96252e-01,9.99999e-01,1.96252e-01,9.99999e-01
7.688012511e-01,2.02667e-01,9.99999e-01,2.02667e-01,9.99999e-01
7.726452574e-01,2.09159e-01,9.99999e-01,2.09159e-01,9.99999e-01
7.765084837e-01,2.15724e-01,9.99999e-01,2.15724e-01,9.99999e-01
7.803910261e-01,2.07552e-01,9.33408e-01,2.22359e-01,9.99999e-01
7.842929812e-01,1.68682e-01,7.36403e-01,2.29062e-01,9.99999e-01
7.882144461e-01,1.69922e-01,7.20531e-01,2.35828e-01,9.99999e-01
7.921555184e-01,1.99268e-01,8.21200e-01,2.42654e-01,9.99999e-01
7.961162960e-01,2.18791e-01,8.76783e-01,2.49538e-01,9.99999e-01
8.000968774e-01,2.38777e-01,9.30996e-01,2.56474e-01,9.99999e-01
8.040973618e-01,2.53918e-01,9.63774e-01,2.63461e-01,9.99999e-01
8.081178486e-01,2.65929e-01,9.83120e-01,2.70495e-01,9.99999e-01
8.121584379e-01,2.76135e-01,9.94821e-01,2.77572e-01,9.99999e-01
8.162192301e-01,2.84362e-01,9.98853e-01,2.84689e-01,9.99999e-01
8.203003262e-01,2.91837e-01,9.99984e-01,2.91842e-01,9.99999e-01
8.244018279e-01,2.99028e-01,9.99999e-01,2.99028e-01,9.99999e-01
8.285238370e-01,3.06245e-01,9.99999e-01,3.06245e-01,9.99999e-01
8.326664562e-01,3.13487e-01,9.99999e-01,3.13487e-01,9.99999e-01
8.368297885e-01,3.20753e-01,9.99999e-01,3.20753e-01,9.99999e-01
8.410139374e-01,3.28039e-01,9.99999e-01,3.28039e-01,9.99999e-01
8.452190071e-01,3.35341e-01,9.99999e-01,3.35341e-01,9.99999e-01
8.494451021e-01,3.42657e-01,9.99999e-01,3.42657e-01,9.99999e-01
8.536923276e-01,3.49983e-01,9.99999e-01,3.49983e-01,9.99999e-01
8.579607893e-01,3.57317e-01,9.99999e-01,3.57317e-01,9.99999e-01
8.622505932e-01,3.64655e-01,9.99999e-01,3.64655e-01,9.99999e-01
8.665618462e-01,3.29258e-01,8.85116e-01,3.71994e-01,9.99999e-01
8.708946554e-01,1.76163e-01,4.64404e-01,3.79331e-01,9.99999e-01
8.752491287e-01,2.06578e-01,5.34255e-01,3.86664e-01,9.99999e-01
8.796253743e-01,2.77862e-01,7.05252e-01,3.93990e-01,9.99999e-01
8.840235012e-01,3.34229e-01,8.32853e-01,4.01306e-01,9.99999e-01
8.884436187e-01,3.80221e-01,9.30526e-01,4.08609e-01,9.99999e-01
8.928858368e-01,4.03904e-01,9.71164e-01,4.15896e-01,9.99999e-01
8.973502660e-01,4.20189e-01,9.92963e-01,4.23166e-01,9.99999e-01
9.018370173e-01,4.30083e-01,9.99225e-01,4.30416e-01,9.99999e-01
9.063462024e-01,4.28737e-01,9.79649e-01,4.37643e-01,9.99999e-01
9.108779334e-01,4.24734e-01,9.54789e-01,4.44845e-01,9.99999e-01
9.154323231e-01,4.47200e-01,9.89336e-01,4.52020e-01,9.99999e-01
9.200094847e-01,3.95111e-01,8.60496e-01,4.59165e-01,9.99999e-01
9.246095321e-01,3.71943e-01,7.97682e-01,4.66279e-01,9.99999e-01
9.292325798e-01,3.96351e-01,8.37314e-01,4.73360e-01,9.99999e-01
9.338787427e-01,4.04988e-01,8.43013e-01,4.80404e-01,9.99999e-01
9.385481364e-01,4.29663e-01,8.81518e-01,4.87412e-01,9.99999e-01
9.432408771e-01,4.57652e-01,9.25708e-01,4.94380e-01,9.99999e-01
9.479570815e-01,4.81788e-01,9.61062e-01,5.01307e-01,9.99999e-01
9.526968669e-01,4.98583e-01,9.81091e-01,5.08192e-01,9.99999e-01
9.574603512e-01,5.10848e-01,9.91876e-01,5.15032e-01,9.99999e-01
9.622476530e-01,5.20503e-01,9.97463e-01,5.21827e-01,9.99999e-01
9.670588912e-01,5.28173e-01,9.99240e-01,5.28574e-01,9.99999e-01
9.718941857e-01,5.35245e-01,9.99947e-01,5.35273e-01,9.99999e-01
9.767536566e-01,5.41921e-01,9.99999e-01,5.41921e-01,9.99999e-01
9.816374249e-01,5.48519e-01,9.99999e-01,5.48519e-01,9.99999e-01
9.865456120e-01,5.55064e-01,9.99999e-01,5.55064e-01,9.99999e-01
9.914783401e-01,5.61556e-01,9.99999e-01,5.61556e-01,9.99999e-01
9.964357318e-01,5.67993e-01,9.99999e-01,5.67993e-01,9.99999e-01
1.001417910e+00,5.74375e-01,9.99999e-01,5.74375e-01,9.99999e-01
1.006425000e+00,5.80700e-01,9.99999e-01,5.80700e-01,9.99999e-01
1.011457125e+00,5.86968e-01,9.99999e-01,5.86968e-01,9.99999e-01
1.016514411e+00,5.93178e-01,9.99999e-01,5.93178e-01,9.99999e-01
1.021596983e+00,5.99253e-01,9.99873e-01,5.99329e-01,9.99999e-01
1.026704968e+00,6.00531e-01,9.91923e-01,6.05420e-01,9.99999e-01
1.031838492e+00,5.63804e-01,9.22075e-01,6.11451e-01,9.99999e-01
1.036997685e+00,4.61883e-02,7.48084e-02,6.17421e-01,9.99999e-01
1.042182673e+00,1.04956e-02,1.68380e-02,6.23330e-01,9.99999e-01
1.047393587e+00,1.97163e-02,3.13366e-02,6.29177e-01,9.99999e-01
1.052630555e+00,2.72920e-05,4.29821e-05,6.34962e-01,9.99999e-01
1.057893707e+00,9.92166e-05,1.54860e-04,6.40684e-01,9.99999e-01
1.063183176e+00,9.34553e-04,1.44591e-03,6.46343e-01,9.99999e-01
1.068499092e+00,5.42496e-03,8.32126e-03,6.51939e-01,9.99999e-01
1.073841587e+00,3.11788e-02,4.74223e-02,6.57471e-01,9.99999e-01
1.079210795e+00,9.66894e-02,1.45849e-01,6.62940e-01,9.99999e-01
1.084606849e+00,2.27822e-01,3.40875e-01,6.68345e-01,9.99999e-01
1.090029883e+00,3.83917e-01,5.69875e-01,6.73685e-01,9.99999e-01
1.095480033e+00,5.14591e-01,7.57908e-01,6.78962e-01,9.99999e-01
1.100957433e+00,5.98371e-01,8.74587e-01,6.84175e-01,9.99999e-01
1.106462220e+00,6.52202e-01,9.46148e-01,6.89323e-01,9.99999e-01
1.111994531e+00,6.80295e-01,9.79676e-01,6.94408e-01,9.99999e-01
1.117554504e+00,6.95953e-01,9.95031e-01,6.99428e-01,9.99999e-01
1.123142276e+00,7.04156e-01,9.99675e-01,7.04384e-01,9.99999e-01
1.128757988e+00,7.09277e-01,9.99999e-01,7.09277e-01,9.99999e-01
1.134401778e+00,7.14106e-01,9.99999e-01,7.14106e-01,9.99999e-01
1.140073787e+00,7.18871e-01,9.99999e-01,7.18871e-01,9.99999e-01
1.145774156e+00,7.23573e-01,9.99999e-01,7.23573e-01,9.99999e-01
1.151503026e+00,7.28212e-01,9.99999e-01,7.28212e-01,9.99999e-01
1.157260541e+00,7.32789e-01,9.99999e-01,7.32789e-01,9.99999e-01
1.163046844e+00,7.37303e-01,9.99999e-01,7.37303e-01,9.99999e-01
1.168862078e+00,7.41754e-01,9.99999e-01,7.41754e-01,9.99999e-01
1.174706389e+00,7.46144e-01,9.99999e-01,7.46144e-01,9.99999e-01
1.180579921e+00,7.50473e-01,9.99999e-01,7.50473e-01,9.99999e-01
1.186482820e+00,7.54725e-01,9.99980e-01,7.54740e-01,9.99999e-01
1.192415234e+00,7.37546e-01,9.71802e-01,7.58946e-01,9.99999e-01
1.198377311e+00,4.08527e-01,5.35357e-01,7.63093e-01,9.99999e-01
1.204369197e+00,3.84019e-21,5.00559e-21,7.67179e-01,9.99999e-01
1.210391043e+00,2.04655e-83,2.65370e-83,7.71206e-01,9.99999e-01
1.216442998e+00,2.79268e-72,3.60265e-72,7.75173e-01,9.99999e-01
1.222525213e+00,3.31615e-71,4.25647e-71,7.79083e-01,9.99999e-01
1.228637839e+00,4.79838e-55,6.12871e-55,7.82934e-01,9.99999e-01
1.234781029e+00,1.51573e-34,1.92663e-34,7.86727e-01,9.99999e-01
1.240954934e+00,4.81949e-23,6.09704e-23,7.90464e-01,9.99999e-01
1.247159708e+00,1.57593e-11,1.98444e-11,7.94143e-01,9.99999e-01
1.253395507e+00,9.46865e-08,1.18689e-07,7.97767e-01,9.99999e-01
1.259662485e+00,8.90624e-05,1.11142e-04,8.01335e-01,9.99999e-01
1.265960797e+00,4.88200e-03,6.06572e-03,8.04849e-01,9.99999e-01
1.272290601e+00,8.05359e-02,9.96352e-02,8.08308e-01,9.99999e-01
1.278652054e+00,6.85328e-02,8.44298e-02,8.11712e-01,9.99999e-01
1.285045314e+00,2.69836e-04,3.31061e-04,8.15064e-01,9.99999e-01
1.291470541e+00,3.18915e-10,3.89699e-10,8.18363e-01,9.99999e-01
1.297927893e+00,3.45405e-04,4.20400e-04,8.21609e-01,9.99999e-01
1.304417533e+00,1.18808e-02,1.44043e-02,8.24804e-01,9.99999e-01
1.310939621e+00,1.98561e-03,2.39823e-03,8.27948e-01,9.99999e-01
1.317494319e+00,4.10653e-29,4.94142e-29,8.31042e-01,9.99999e-01
1.324081790e+00,7.69590e-14,9.22675e-14,8.34085e-01,9.99999e-01
1.330702199e+00,2.33512e-11,2.78960e-11,8.37080e-01,9.99999e-01
1.337355710e+00,1.98447e-10,2.36239e-10,8.40025e-01,9.99999e-01
1.344042489e+00,1.16276e-12,1.37944e-12,8.42923e-01,9.99999e-01
1.350762701e+00,1.28639e-11,1.52096e-11,8.45773e-01,9.99999e-01
1.357516515e+00,2.23241e-07,2.63077e-07,8.48576e-01,9.99999e-01
1.364304097e+00,2.28831e-05,2.68792e-05,8.51332e-01,9.99999e-01
1.371125618e+00,3.92136e-03,4.59152e-03,8.54043e-01,9.99999e-01
1.377981246e+00,8.68480e-03,1.01374e-02,8.56709e-01,9.99999e-01
1.384871152e+00,5.92327e-02,6.89289e-02,8.59330e-01,9.99999e-01
1.391795508e+00,7.32442e-02,8.49791e-02,8.61907e-01,9.99999e-01
1.398754485e+00,1.85171e-01,2.14209e-01,8.64441e-01,9.99999e-01
1.405748258e+00,2.81403e-01,3.24597e-01,8.66932e-01,9.99999e-01
1.412776999e+00,4.25839e-01,4.89819e-01,8.69380e-01,9.99999e-01
1.419840884e+00,3.81396e-01,4.37487e-01,8.71787e-01,9.99999e-01
1.426940089e+00,1.89167e-02,2.16400e-02,8.74153e-01,9.99999e-01
1.434074789e+00,0.00000e+00,0.00000e+00,8.76479e-01,9.99999e-01
1.441245163e+00,0.00000e+00,0.00000e+00,8.78764e-01,9.99999e-01
1.448451389e+00,0.00000e+00,0.00000e+00,8.81010e-01,9.99999e-01
1.455693646e+00,0.00000e+00,0.00000e+00,8.83218e-01,9.99999e-01
1.462972114e+00,0.00000e+00,0.00000e+00,8.85387e-01,9.99999e-01
1.470286975e+00,8.24706e-138,9.29227e-138,8.87518e-01,9.99999e-01
1.477638409e+00,1.05409e-86,1.18488e-86,8.89613e-01,9.99999e-01
1.485026601e+00,2.15988e-48,2.42228e-48,8.91670e-01,9.99999e-01
1.492451734e+00,3.14007e-41,3.51359e-41,8.93692e-01,9.99999e-01
1.499913993e+00,4.67825e-18,5.22313e-18,8.95678e-01,9.99999e-01
1.507413563e+00,7.93310e-17,8.83783e-17,8.97630e-01,9.99999e-01
1.514950631e+00,2.74074e-18,3.04680e-18,8.99546e-01,9.99999e-01
1.522525384e+00,1.05542e-61,1.17082e-61,9.01429e-01,9.99999e-01
1.530138011e+00,4.79362e-147,5.30690e-147,9.03279e-01,9.99999e-01
1.537788701e+00,7.84560e-109,8.66825e-109,9.05096e-01,9.99999e-01
1.545477645e+00,3.69878e-23,4.07857e-23,9.06880e-01,9.99999e-01
1.553205033e+00,8.05839e-17,8.86869e-17,9.08633e-01,9.99999e-01
1.560971058e+00,3.32061e-17,3.64760e-17,9.10354e-01,9.99999e-01
1.568775913e+00,0.00000e+00,0.00000e+00,9.12044e-01,9.99999e-01
1.576619793e+00,0.00000e+00,0.00000e+00,9.13705e-01,9.99999e-01
1.584502892e+00,0.00000e+00,0.00000e+00,9.15335e-01,9.99999e-01
1.592425406e+00,0.00000e+00,0.00000e+00,9.16936e-01,9.99999e-01
1.600387533e+00,0.00000e+00,0.00000e+00,9.18508e-01,9.99999e-01
1.608389471e+00,0.00000e+00,0.00000e+00,9.20051e-01,9.99999e-01
1.616431418e+00,0.00000e+00,0.00000e+00,9.21567e-01,9.99999e-01
1.624513575e+00,0.00000e+00,0.00000e+00,9.23055e-01,9.99999e-01
1.632636143e+00,5.00921e-313,5.41819e-313,9.24516e-01,9.99999e-01
1.640799324e+00,1.08758e-127,1.17456e-127,9.25950e-01,9.99999e-01
1.649003321e+00,1.08883e-127,1.17412e-127,9.27358e-01,9.99999e-01
1.657248337e+00,1.01065e-98,1.08820e-98,9.28741e-01,9.99999e-01
1.665534579e+00,2.21899e-99,2.38575e-99,9.30098e-01,9.99999e-01
1.673862252e+00,1.94241e-63,2.08541e-63,9.31430e-01,9.99999e-01
1.682231563e+00,5.40871e-44,5.79875e-44,9.32738e-01,9.99999e-01
1.690642721e+00,1.55459e-24,1.66440e-24,9.34021e-01,9.99999e-01
1.699095934e+00,1.03271e-15,1.10417e-15,9.35282e-01,9.99999e-01
1.707591414e+00,2.92936e-08,3.12792e-08,9.36518e-01,9.99999e-01
1.716129371e+00,4.17364e-05,4.45077e-05,9.37732e-01,9.99999e-01
1.724710018e+00,3.05348e-03,3.25211e-03,9.38924e-01,9.99999e-01
1.733333568e+00,2.08176e-02,2.21442e-02,9.40094e-01,9.99999e-01
1.742000236e+00,1.00946e-01,1.07247e-01,9.41241e-01,9.99999e-01
1.750710237e+00,6.27231e-04,6.65589e-04,9.42368e-01,9.99999e-01
1.759463788e+00,1.39007e-60,1.47336e-60,9.43473e-01,9.99999e-01
1.768261107e+00,2.11698e-63,2.24123e-63,9.44558e-01,9.99999e-01
1.777102413e+00,1.03931e-61,1.09907e-61,9.45623e-01,9.99999e-01
1.785987925e+00,7.27666e-58,7.68659e-58,9.46668e-01,9.99999e-01
1.794917864e+00,2.90786e-55,3.06835e-55,9.47693e-01,9.99999e-01
1.803892454e+00,3.98969e-53,4.20542e-53,9.48700e-01,9.99999e-01
1.812911916e+00,4.74726e-51,4.99876e-51,9.49687e-01,9.99999e-01
1.821976476e+00,4.12164e-51,4.33557e-51,9.50656e-01,9.99999e-01
1.831086358e+00,4.46283e-41,4.68978e-41,9.51606e-01,9.99999e-01
1.840241790e+00,5.45199e-35,5.72364e-35,9.52539e-01,9.99999e-01
1.849442999e+00,2.40129e-24,2.51852e-24,9.53455e-01,9.99999e-01
1.858690214e+00,7.25821e-23,7.60537e-23,9.54353e-01,9.99999e-01
1.867983665e+00,1.61081e-23,1.68630e-23,9.55234e-01,9.99999e-01
1.877323583e+00,1.22398e-115,1.28019e-115,9.56098e-01,9.99999e-01
