#,Wave/freq,Total,CO2,Rayleigh,CIA
4.000000000e-01,5.04807e-14,9.99999e-01,5.04807e-14,9.99999e-01
4.020000000e-01,9.24803e-14,9.99999e-01,9.24803e-14,9.99999e-01
4.040100000e-01,1.67302e-13,9.99999e-01,1.67302e-13,9.99999e-01
4.060300500e-01,2.99136e-13,9.99999e-01,2.99136e-13,9.99999e-01
4.080602003e-01,5.28752e-13,9.99999e-01,5.28752e-13,9.99999e-01
4.101005013e-01,9.24162e-13,9.99999e-01,9.24162e-13,9.99999e-01
4.121510038e-01,1.59755e-12,9.99999e-01,1.59755e-12,9.99999e-01
4.142117588e-01,2.73190e-12,9.99999e-01,2.73190e-12,9.99999e-01
4.162828176e-01,4.62247e-12,9.99999e-01,4.62247e-12,9.99999e-01
4.183642317e-01,7.74053e-12,9.99999e-01,7.74053e-12,9.99999e-01
4.204560528e-01,1.28305e-11,9.99999e-01,1.28305e-11,9.99999e-01
4.225583331e-01,2.10564e-11,9.99999e-01,2.10564e-11,9.99999e-01
4.246711247e-01,3.42195e-11,9.99999e-01,3.42195e-11,9.99999e-01
4.267944804e-01,5.50805e-11,9.99999e-01,5.50805e-11,9.99999e-01
4.289284528e-01,8.78291e-11,9.99999e-01,8.78291e-11,9.99999e-01
4.310730950e-01,1.38764e-10,9.99999e-01,1.38764e-10,9.99999e-01
4.332284605e-01,2.17266e-10,9.99999e-01,2.17266e-10,9.99999e-01
4.353946028e-01,3.37178e-10,9.99999e-01,3.37178e-10,9.99999e-01
4.375715758e-01,5.18749e-10,9.99999e-01,5.18749e-10,9.99999e-01
4.397594337e-01,7.91335e-10,9.99999e-01,7.91335e-10,9.99999e-01
4.419582309e-01,1.19713e-09,9.99999e-01,1.19713e-09,9.99999e-01
4.441680220e-01,1.79626e-09,9.99999e-01,1.79626e-09,9.99999e-01
4.463888621e-01,2.67373e-09,9.99999e-01,2.67373e-09,9.99999e-01
4.486208064e-01,3.94869e-09,9.99999e-01,3.94869e-09,9.99999e-01
4.508639105e-01,5.78687e-09,9.99999e-01,5.78687e-09,9.99999e-01
4.531182300e-01,8.41697e-09,9.99999e-01,8.41697e-09,9.99999e-01
4.553838212e-01,1.21522e-08,9.99999e-01,1.21522e-08,9.99999e-01
4.576607403e-01,1.74181e-08,9.99999e-01,1.74181e-08,9.99999e-01
4.599490440e-01,2.47891e-08,9.99999e-01,2.47891e-08,9.99999e-01
4.622487892e-01,3.50343e-08,9.99999e-01,3.50343e-08,9.99999e-01
4.645600332e-01,4.91765e-08,9.99999e-01,4.91765e-08,9.99999e-01
4.668828333e-01,6.85668e-08,9.99999e-01,6.85668e-08,9.99999e-01
4.692172475e-01,9.49769e-08,9.99999e-01,9.49769e-08,9.99999e-01
4.715633337e-01,1.30716e-07,9.99999e-01,1.30716e-07,9.99999e-01
4.739211504e-01,1.78771e-07,9.99999e-01,1.78771e-07,9.99999e-01
4.762907561e-01,2.42986e-07,9.99999e-01,2.42986e-07,9.99999e-01
4.786722099e-01,3.28271e-07,9.99999e-01,3.28271e-07,9.99999e-01
4.810655710e-01,4.40862e-07,9.99999e-01,4.40862e-07,9.99999e-01
4.834708988e-01,5.88631e-07,9.99999e-01,5.88631e-07,9.99999e-01
4.858882533e-01,7.81456e-07,9.99999e-01,7.81456e-07,9.99999e-01
4.883176946e-01,1.03166e-06,9.99999e-01,1.03166e-06,9.99999e-01
4.907592831e-01,1.35451e-06,9.99999e-01,1.35451e-06,9.99999e-01
4.932130795e-01,1.76886e-06,9.99999e-01,1.76886e-06,9.99999e-01
4.956791449e-01,2.29782e-06,9.99999e-01,2.29782e-06,9.99999e-01
4.981575406e-01,2.96958e-06,9.99999e-01,2.96958e-06,9.99999e-01
5.006483283e-01,3.81832e-06,9.99999e-01,3.81832e-06,9.99999e-01
5.031515699e-01,4.88533e-06,9.99999e-01,4.88533e-06,9.99999e-01
5.056673278e-01,6.22016e-06,9.99999e-01,6.22016e-06,9.99999e-01
5.081956644e-01,7.88200e-06,9.99999e-01,7.88200e-06,9.99999e-01
5.107366428e-01,9.94124e-06,9.99999e-01,9.94124e-06,9.99999e-01
5.132903260e-01,1.24811e-05,9.99999e-01,1.24811e-05,9.99999e-01
5.158567776e-01,1.55996e-05,9.99999e-01,1.55996e-05,9.99999e-01
5.184360615e-01,1.94117e-05,9.99999e-01,1.94117e-05,9.99999e-01
5.210282418e-01,2.40511e-05,9.99999e-01,2.40511e-05,9.99999e-01
5.236333830e-01,2.96735e-05,9.99999e-01,2.96735e-05,9.99999e-01
5.262515499e-01,3.64587e-05,9.99999e-01,3.64587e-05,9.99999e-01
5.288828077e-01,4.46135e-05,9.99999e-01,4.46135e-05,9.99999e-01
5.315272217e-01,5.43751e-05,9.99999e-01,5.43751e-05,9.99999e-01
5.341848578e-01,6.60141e-05,9.99999e-01,6.60141e-05,9.99999e-01
5.368557821e-01,7.98379e-05,9.99999e-01,7.98379e-05,9.99999e-01
5.395400610e-01,9.61946e-05,9.99999e-01,9.61946e-05,9.99999e-01
5.422377613e-01,1.15476e-04,9.99999e-01,1.15476e-04,9.99999e-01
5.449489501e-01,1.38124e-04,9.99999e-01,1.38124e-04,9.99999e-01
5.476736949e-01,1.64630e-04,9.99999e-01,1.64630e-04,9.99999e-01
5.504120634e-01,1.95543e-04,9.99999e-01,1.95543e-04,9.99999e-01
5.531641237e-01,2.31472e-04,9.99999e-01,2.31472e-04,9.99999e-01
5.559299443e-01,2.73092e-04,9.99999e-01,2.73092e-04,9.99999e-01
5.587095940e-01,3.21145e-04,9.99999e-01,3.21145e-04,9.99999e-01
5.615031420e-01,3.76445e-04,9.99999e-01,3.76445e-04,9.99999e-01
5.643106577e-01,4.39886e-04,9.99999e-01,4.39886e-04,9.99999e-01
5.671322110e-01,5.12439e-04,9.99999e-01,5.12439e-04,9.99999e-01
5.699678720e-01,5.95162e-04,9.99999e-01,5.95162e-04,9.99999e-01
5.728177114e-01,6.89198e-04,9.99999e-01,6.89198e-04,9.99999e-01
5.756818000e-01,7.95783e-04,9.99999e-01,7.95783e-04,9.99999e-01
5.785602090e-01,9.16245e-04,9.99999e-01,9.16245e-04,9.99999e-01
5.814530100e-01,1.05201e-03,9.99999e-01,1.05201e-03,9.99999e-01
5.843602750e-01,1.20460e-03,9.99999e-01,1.20460e-03,9.99999e-01
5.872820764e-01,1.37563e-03,9.99999e-01,1.37563e-03,9.99999e-01
5.902184868e-01,1.56684e-03,9.99999e-01,1.56684e-03,9.99999e-01
5.931695792e-01,1.78004e-03,9.99999e-01,1.78004e-03,9.99999e-01
5.961354271e-01,2.01716e-03,9.99999e-01,2.01716e-03,9.99999e-01
5.991161043e-01,2.28023e-03,9.99999e-01,2.28023e-03,9.99999e-01
6.021116848e-01,2.57137e-03,9.99999e-01,2.57137e-03,9.99999e-01
6.051222432e-01,2.89281e-03,9.99999e-01,2.89281e-03,9.99999e-01
6.081478544e-01,3.24688e-03,9.99999e-01,3.24688e-03,9.99999e-01
6.111885937e-01,3.63597e-03,9.99999e-01,3.63597e-03,9.99999e-01
6.142445367e-01,4.06260e-03,9.99999e-01,4.06260e-03,9.99999e-01
6.173157594e-01,4.52935e-03,9.99999e-01,4.52935e-03,9.99999e-01
6.204023382e-01,5.03889e-03,9.99999e-01,5.03889e-03,9.99999e-01
6.235043498e-01,5.59397e-03,9.99999e-01,5.59397e-03,9.99999e-01
6.266218716e-01,6.19738e-03,9.99999e-01,6.19738e-03,9.99999e-01
6.297549810e-01,6.85200e-03,9.99999e-01,6.85200e-03,9.99999e-01
6.329037559e-01,7.56076e-03,9.99999e-01,7.56076e-03,9.99999e-01
6.360682746e-01,8.32662e-03,9.99999e-01,8.32662e-03,9.99999e-01
6.392486160e-01,9.15260e-03,9.99999e-01,9.15260e-03,9.99999e-01
6.424448591e-01,1.00417e-02,9.99999e-01,1.00417e-02,9.99999e-01
6.456570834e-01,1.09971e-02,9.99999e-01,1.09971e-02,9.99999e-01
6.488853688e-01,1.20218e-02,9.99999e-01,1.20218e-02,9.99999e-01
6.521297956e-01,1.31188e-02,9.99999e-01,1.31188e-02,9.99999e-01
6.553904446e-01,1.42912e-02,9.99999e-01,1.42912e-02,9.99999e-01
6.586673968e-01,1.55422e-02,9.99999e-01,1.55422e-02,9.99999e-01
6.619607338e-01,1.68746e-02,9.99999e-01,1.68746e-02,9.99999e-01
6.652705375e-01,1.82915e-02,9.99999e-01,1.82915e-02,9.99999e-01
6.685968902e-01,1.97959e-02,9.99999e-01,1.97959e-02,9.99999e-01
6.719398746e-01,2.13906e-02,9.99999e-01,2.13906e-02,9.99999e-01
6.752995740e-01,2.30783e-02,9.99999e-01,2.30783e-02,9.99999e-01
6.786760719e-01,2.48619e-02,9.99999e-01,2.48619e-02,9.99999e-01
6.820694522e-01,2.67440e-02,9.99999e-01,2.67440e-02,9.99999e-01
6.854797995e-01,2.87272e-02,9.99999e-01,2.87272e-02,9.99999e-01
6.889071985e-01,3.08138e-02,9.99999e-01,3.08138e-02,9.99999e-01
6.923517345e-01,3.30063e-02,9.99999e-01,3.30063e-02,9.99999e-01
6.958134932e-01,3.53068e-02,9.99999e-01,3.53068e-02,9.99999e-01
6.992925606e-01,3.77174e-02,9.99999e-01,3.77174e-02,9.99999e-01
7.027890234e-01,4.02400e-02,9.99999e-01,4.02400e-02,9.99999e-01
7.063029686e-01,4.28766e-02,9.99999e-01,4.28766e-02,9.99999e-01
7.098344834e-01,4.56286e-02,9.99999e-01,4.56286e-02,9.99999e-01
7.133836558e-01,4.84976e-02,9.99999e-01,4.84976e-02,9.99999e-01
7.169505741e-01,5.14850e-02,9.99999e-01,5.14850e-02,9.99999e-01
7.205353270e-01,5.45919e-02,9.99999e-01,5.45919e-02,9.99999e-01
7.241380036e-01,5.78193e-02,9.99999e-01,5.78193e-02,9.99999e-01
7.277586936e-01,6.11681e-02,9.99999e-01,6.11681e-02,9.99999e-01
7.313974871e-01,6.46389e-02,9.99999e-01,6.46389e-02,9.99999e-01
7.350544745e-01,6.82323e-02,9.99999e-01,6.82323e-02,9.99999e-01
7.387297469e-01,7.19484e-02,9.99999e-01,7.19484e-02,9.99999e-01
7.424233956e-01,7.57876e-02,9.99999e-01,7.57876e-02,9.99999e-01
7.461355126e-01,7.97496e-02,9.99999e-01,7.97496e-02,9.99999e-01
7.498661902e-01,8.38344e-02,9.99999e-01,8.38344e-02,9.99999e-01
7.536155211e-01,8.80415e-02,9.99999e-01,8.80415e-02,9.99999e-01
7.573835987e-01,9.23703e-02,9.99999e-01,9.23703e-02,9.99999e-01
7.611705167e-01,9.68201e-02,9.99999e-01,9.68201e-02,9.99999e-01
7.649763693e-01,1.01390e-01,9.99999e-01,1.01390e-01,9.99999e-01
7.688012511e-01,1.06079e-01,9.99999e-01,1.06079e-01,9.99999e-01
7.726452574e-01,1.10886e-01,9.99999e-01,1.10886e-01,9.99999e-01
7.765084837e-01,1.15809e-01,9.99999e-01,1.15809e-01,9.99999e-01
7.803910261e-01,1.11222e-01,9.20357e-01,1.20847e-01,9.99999e-01
7.842929812e-01,8.22951e-02,6.53146e-01,1.25998e-01,9.99999e-01
7.882144461e-01,8.39415e-02,6.39504e-01,1.31260e-01,9.99999e-01
7.921555184e-01,1.03901e-01,7.60441e-01,1.36632e-01,9.99999e-01
7.961162960e-01,1.17906e-01,8.29675e-01,1.42111e-01,9.99999e-01
8.000968774e-01,1.33476e-01,9.03730e-01,1.47695e-01,9.99999e-01
8.040973618e-01,1.45496e-01,9.48592e-01,1.53381e-01,9.99999e-01
8.081178486e-01,1.55373e-01,9.76157e-01,1.59168e-01,9.99999e-01
8.121584379e-01,1.63815e-01,9.92506e-01,1.65052e-01,9.99999e-01
8.162192301e-01,1.70747e-01,9.98339e-01,1.71031e-01,9.99999e-01
8.203003262e-01,1.77097e-01,9.99971e-01,1.77102e-01,9.99999e-01
8.244018279e-01,1.83262e-01,9.99999e-01,1.83262e-01,9.99999e-01
8.285238370e-01,1.89508e-01,9.99999e-01,1.89508e-01,9.99999e-01
8.326664562e-01,1.95838e-01,9.99999e-01,1.95838e-01,9.99999e-01
8.368297885e-01,2.02248e-01,9.99999e-01,2.02248e-01,9.99999e-01
8.410139374e-01,2.08735e-01,9.99999e-01,2.08735e-01,9.99999e-01
8.452190071e-01,2.15295e-01,9.99999e-01,2.15295e-01,9.99999e-01
8.494451021e-01,2.21926e-01,9.99999e-01,2.21926e-01,9.99999e-01
8.536923276e-01,2.28624e-01,9.99999e-01,2.28624e-01,9.99999e-01
8.579607893e-01,2.35386e-01,9.99999e-01,2.35386e-01,9.99999e-01
8.622505932e-01,2.42209e-01,9.99999e-01,2.42209e-01,9.99999e-01
8.665618462e-01,2.18324e-01,8.76488e-01,2.49089e-01,9.99999e-01
8.708946554e-01,9.03121e-02,3.52751e-01,2.56022e-01,9.99999e-01
8.752491287e-01,1.10097e-01,4.18609e-01,2.63006e-01,9.99999e-01
8.796253743e-01,1.65287e-01,6.12091e-01,2.70037e-01,9.99999e-01
8.840235012e-01,2.13919e-01,7.71960e-01,2.77111e-01,9.99999e-01
8.884436187e-01,2.56364e-01,9.01974e-01,2.84225e-01,9.99999e-01
8.928858368e-01,2.79461e-01,9.59107e-01,2.91376e-01,9.99999e-01
8.973502660e-01,2.95525e-01,9.89834e-01,2.98560e-01,9.99999e-01
9.018370173e-01,3.05430e-01,9.98871e-01,3.05775e-01,9.99999e-01
9.063462024e-01,3.04554e-01,9.72965e-01,3.13016e-01,9.99999e-01
9.108779334e-01,2.99939e-01,9.36488e-01,3.20280e-01,9.99999e-01
9.154323231e-01,3.22501e-01,9.84541e-01,3.27565e-01,9.99999e-01
9.200094847e-01,2.75797e-01,8.23602e-01,3.34866e-01,9.99999e-01
9.246095321e-01,2.48748e-01,7.26947e-01,3.42181e-01,9.99999e-01
9.292325798e-01,2.74055e-01,7.84118e-01,3.49507e-01,9.99999e-01
9.338787427e-01,2.80691e-01,7.86601e-01,3.56840e-01,9.99999e-01
9.385481364e-01,3.04869e-01,8.37143e-01,3.64178e-01,9.99999e-01
9.432408771e-01,3.32869e-01,8.95973e-01,3.71517e-01,9.99999e-01
9.479570815e-01,3.58147e-01,9.45342e-01,3.78854e-01,9.99999e-01
9.526968669e-01,3.75851e-01,9.73232e-01,3.86188e-01,9.99999e-01
9.574603512e-01,3.88968e-01,9.88447e-01,3.93514e-01,9.99999e-01
9.622476530e-01,3.99379e-01,9.96377e-01,4.00831e-01,9.99999e-01
9.670588912e-01,4.07690e-01,9.98910e-01,4.08135e-01,9.99999e-01
9.718941857e-01,4.15391e-01,9.99920e-01,4.15423e-01,9.99999e-01
9.767536566e-01,4.22695e-01,9.99999e-01,4.22695e-01,9.99999e-01
9.816374249e-01,4.29946e-01,9.99999e-01,4.29946e-01,9.99999e-01
9.865456120e-01,4.37174e-01,9.99999e-01,4.37174e-01,9.99999e-01
9.914783401e-01,4.44378e-01,9.99999e-01,4.44378e-01,9.99999e-01
9.964357318e-01,4.51555e-01,9.99999e-01,4.51555e-01,9.99999e-01
1.001417910e+00,4.58702e-01,9.99999e-01,4.58702e-01,9.99999e-01
1.006425000e+00,4.65818e-01,9.99999e-01,4.65818e-01,9.99999e-01
1.011457125e+00,4.72900e-01,9.99999e-01,4.72900e-01,9.99999e-01
1.016514411e+00,4.79948e-01,9.99999e-01,4.79948e-01,9.99999e-01
1.021596983e+00,4.86893e-01,9.99867e-01,4.86957e-01,9.99999e-01
1.026704968e+00,4.88633e-01,9.89278e-01,4.93928e-01,9.99999e-01
1.031838492e+00,4.57555e-01,9.13540e-01,5.00858e-01,9.99999e-01
1.036997685e+00,2.82498e-02,5.56377e-02,5.07746e-01,9.99999e-01
1.042182673e+00,2.27468e-03,4.42039e-03,5.14589e-01,9.99999e-01
1.047393587e+00,5.84672e-03,1.12138e-02,5.21386e-01,9.99999e-01
1.052630555e+00,1.03287e-06,1.95568e-06,5.28137e-01,9.99999e-01
1.057893707e+00,3.78522e-06,7.07730e-06,5.34839e-01,9.99999e-01
1.063183176e+00,8.25143e-05,1.52383e-04,5.41491e-01,9.99999e-01
1.068499092e+00,7.67647e-04,1.40058e-03,5.48092e-01,9.99999e-01
1.073841587e+00,8.03202e-03,1.44815e-02,5.54641e-01,9.99999e-01
1.079210795e+00,3.91828e-02,6.98275e-02,5.61136e-01,9.99999e-01
1.084606849e+00,1.25227e-01,2.20634e-01,5.67577e-01,9.99999e-01
1.090029883e+00,2.60284e-01,4.53485e-01,5.73962e-01,9.99999e-01
1.095480033e+00,3.92223e-01,6.75906e-01,5.80291e-01,9.99999e-01
1.100957433e+00,4.85220e-01,8.27225e-01,5.86563e-01,9.99999e-01
1.106462220e+00,5.47934e-01,9.24351e-01,5.92776e-01,9.99999e-01
1.111994531e+00,5.81701e-01,9.71231e-01,5.98931e-01,9.99999e-01
1.117554504e+00,6.00708e-01,9.92862e-01,6.05026e-01,9.99999e-01
1.123142276e+00,6.10772e-01,9.99526e-01,6.11061e-01,9.99999e-01
1.128757988e+00,6.17035e-01,9.99999e-01,6.17035e-01,9.99999e-01
1.134401778e+00,6.22948e-01,9.99999e-01,6.22948e-01,9.99999e-01
1.140073787e+00,6.28799e-01,9.99999e-01,6.28799e-01,9.99999e-01
1.145774156e+00,6.34588e-01,9.99999e-01,6.34588e-01,9.99999e-01
1.151503026e+00,6.40314e-01,9.99999e-01,6.40314e-01,9.99999e-01
1.157260541e+00,6.45977e-01,9.99999e-01,6.45977e-01,9.99999e-01
1.163046844e+00,6.51577e-01,9.99999e-01,6.51577e-01,9.99999e-01
1.168862078e+00,6.57114e-01,9.99999e-01,6.57114e-01,9.99999e-01
1.174706389e+00,6.62587e-01,9.99999e-01,6.62587e-01,9.99999e-01
1.180579921e+00,6.67995e-01,9.99999e-01,6.67995e-01,9.99999e-01
1.186482820e+00,6.73331e-01,9.99986e-01,6.73340e-01,9.99999e-01
1.192415234e+00,6.53929e-01,9.63613e-01,6.78621e-01,9.99999e-01
1.198377311e+00,3.57337e-01,5.22546e-01,6.83838e-01,9.99999e-01
1.204369197e+00,8.62823e-29,1.25230e-28,6.88991e-01,9.99999e-01
1.210391043e+00,2.81144e-116,4.05061e-116,6.94079e-01,9.99999e-01
1.216442998e+00,1.23809e-100,1.77096e-100,6.99104e-01,9.99999e-01
1.222525213e+00,4.00043e-99,5.68191e-99,7.04064e-01,9.99999e-01
1.228637839e+00,1.75128e-76,2.47021e-76,7.08961e-01,9.99999e-01
1.234781029e+00,1.27325e-47,1.78377e-47,7.13794e-01,9.99999e-01
1.240954934e+00,1.27446e-31,1.77362e-31,7.18563e-01,9.99999e-01
1.247159708e+00,3.11744e-20,4.31020e-20,7.23270e-01,9.99999e-01
1.253395507e+00,2.12951e-10,2.92550e-10,7.27913e-01,9.99999e-01
1.259662485e+00,1.43089e-06,1.95345e-06,7.32493e-01,9.99999e-01
1.265960797e+00,7.51342e-04,1.01944e-03,7.37011e-01,9.99999e-01
1.272290601e+00,2.40736e-02,3.24675e-02,7.41467e-01,9.99999e-01
1.278652054e+00,2.82183e-02,3.78331e-02,7.45861e-01,9.99999e-01
1.285045314e+00,4.26368e-05,5.68343e-05,7.50193e-01,9.99999e-01
1.291470541e+00,8.71103e-14,1.15460e-13,7.54464e-01,9.99999e-01
1.297927893e+00,4.58302e-06,6.04081e-06,7.58675e-01,9.99999e-01
1.304417533e+00,2.10935e-03,2.76518e-03,7.62825e-01,9.99999e-01
1.310939621e+00,5.65346e-04,7.37169e-04,7.66915e-01,9.99999e-01
1.317494319e+00,1.36351e-39,1.76862e-39,7.70946e-01,9.99999e-01
1.324081790e+00,5.13763e-26,6.62990e-26,7.74917e-01,9.99999e-01
1.330702199e+00,1.76803e-15,2.27011e-15,7.78830e-01,9.99999e-01
1.337355710e+00,3.29048e-14,4.20409e-14,7.82685e-01,9.99999e-01
1.344042489e+00,1.73903e-14,2.21115e-14,7.86482e-01,9.99999e-01
1.350762701e+00,8.66508e-16,1.09654e-15,7.90223e-01,9.99999e-01
1.357516515e+00,1.04177e-09,1.31221e-09,7.93906e-01,9.99999e-01
1.364304097e+00,3.81381e-07,4.78200e-07,7.97533e-01,9.99999e-01
1.371125618e+00,4.81067e-04,6.00503e-04,8.01105e-01,9.99999e-01
1.377981246e+00,1.33191e-03,1.65532e-03,8.04622e-01,9.99999e-01
1.384871152e+00,1.92989e-02,2.38823e-02,8.08084e-01,9.99999e-01
1.391795508e+00,2.58015e-02,3.17950e-02,8.11493e-01,9.99999e-01
1.398754485e+00,9.30119e-02,1.14146e-01,8.14848e-01,9.99999e-01
1.405748258e+00,1.67991e-01,2.05331e-01,8.18150e-01,9.99999e-01
1.412776999e+00,2.99491e-01,3.64610e-01,8.21400e-01,9.99999e-01
1.419840884e+00,2.85209e-01,3.45876e-01,8.24598e-01,9.99999e-01
1.426940089e+00,1.08479e-02,1.31054e-02,8.27746e-01,9.99999e-01
1.434074789e+00,0.00000e+00,0.00000e+00,8.30842e-01,9.99999e-01
1.441245163e+00,0.00000e+00,0.00000e+00,8.33889e-01,9.99999e-01
1.448451389e+00,0.00000e+00,0.00000e+00,8.36887e-01,9.99999e-01
1.455693646e+00,0.00000e+00,0.00000e+00,8.39835e-01,9.99999e-01
1.462972114e+00,0.00000e+00,0.00000e+00,8.42736e-01,9.99999e-01
1.470286975e+00,1.09147e-192,1.29078e-192,8.45589e-01,9.99999e-01
1.477638409e+00,6.79884e-121,8.01376e-121,8.48395e-01,9.99999e-01
1.485026601e+00,4.45165e-67,5.23012e-67,8.51154e-01,9.99999e-01
1.492451734e+00,4.07286e-57,4.76988e-57,8.53868e-01,9.99999e-01
1.499913993e+00,1.76691e-24,2.06285e-24,8.56537e-01,9.99999e-01
1.507413563e+00,3.14901e-23,3.66521e-23,8.59161e-01,9.99999e-01
1.514950631e+00,8.80432e-25,1.02169e-24,8.61741e-01,9.99999e-01
1.522525384e+00,8.98038e-86,1.03906e-85,8.64277e-01,9.99999e-01
1.530138011e+00,1.12648e-205,1.29963e-205,8.66771e-01,9.99999e-01
1.537788701e+00,5.49285e-152,6.31927e-152,8.69222e-01,9.99999e-01
1.545477645e+00,1.26664e-31,1.45318e-31,8.71632e-01,9.99999e-01
1.553205033e+00,3.93552e-23,4.50288e-23,8.74001e-01,9.99999e-01
1.560971058e+00,2.43130e-23,2.77441e-23,8.76329e-01,9.99999e-01
1.568775913e+00,0.00000e+00,0.00000e+00,8.78617e-01,9.99999e-01
1.576619793e+00,0.00000e+00,0.00000e+00,8.80866e-01,9.99999e-01
1.584502892e+00,0.00000e+00,0.00000e+00,8.83075e-01,9.99999e-01
1.592425406e+00,0.00000e+00,0.00000e+00,8.85247e-01,9.99999e-01
1.600387533e+00,0.00000e+00,0.00000e+00,8.87381e-01,9.99999e-01
1.608389471e+00,0.00000e+00,0.00000e+00,8.89478e-01,9.99999e-01
1.616431418e+00,0.00000e+00,0.00000e+00,8.91538e-01,9.99999e-01
1.624513575e+00,0.00000e+00,0.00000e+00,8.93562e-01,9.99999e-01
1.632636143e+00,0.00000e+00,0.00000e+00,8.95550e-01,9.99999e-01
1.640799324e+00,1.78987e-178,1.99427e-178,8.97504e-01,9.99999e-01
1.649003321e+00,1.79267e-178,1.99313e-178,8.99423e-01,9.99999e-01
1.657248337e+00,8.80443e-138,9.76849e-138,9.01308e-01,9.99999e-01
1.665534579e+00,1.04651e-138,1.15872e-138,9.03160e-01,9.99999e-01
1.673862252e+00,3.19811e-88,3.53391e-88,9.04979e-01,9.99999e-01
1.682231563e+00,6.73731e-61,7.43004e-61,9.06765e-01,9.99999e-01
1.690642721e+00,1.46943e-33,1.61739e-33,9.08520e-01,9.99999e-01
1.699095934e+00,2.47196e-21,2.71571e-21,9.10243e-01,9.99999e-01
1.707591414e+00,7.96408e-11,8.73315e-11,9.11936e-01,9.99999e-01
1.716129371e+00,1.12301e-06,1.22921e-06,9.13598e-01,9.99999e-01
1.724710018e+00,3.37415e-04,3.68667e-04,9.15230e-01,9.99999e-01
1.733333568e+00,4.63387e-03,5.05422e-03,9.16832e-01,9.99999e-01
1.742000236e+00,4.26517e-02,4.64410e-02,9.18406e-01,9.99999e-01
1.750710237e+00,1.07933e-04,1.17324e-04,9.19952e-01,9.99999e-01
1.759463788e+00,3.20257e-84,3.47550e-84,9.21469e-01,9.99999e-01
1.768261107e+00,3.70856e-88,4.01812e-88,9.22959e-01,9.99999e-01
1.777102413e+00,6.15258e-86,6.65559e-86,9.24421e-01,9.99999e-01
1.785987925e+00,2.20705e-80,2.38379e-80,9.25858e-01,9.99999e-01
1.794917864e+00,9.70547e-77,1.04667e-76,9.27267e-01,9.99999e-01
1.803892454e+00,1.01302e-73,1.09085e-73,9.28652e-01,9.99999e-01
1.812911916e+00,7.88979e-71,8.48354e-71,9.30010e-01,9.99999e-01
1.821976476e+00,6.83586e-71,7.33977e-71,9.31344e-01,9.99999e-01
1.831086358e+00,8.54610e-57,9.16320e-57,9.32654e-01,9.99999e-01
1.840241790e+00,2.42754e-48,2.59925e-48,9.33939e-01,9.99999e-01
1.849442999e+00,1.53036e-33,1.63639e-33,9.35200e-01,9.99999e-01
1.858690214e+00,1.32191e-31,1.41164e-31,9.36439e-01,9.99999e-01
1.867983665e+00,3.87321e-32,4.13074e-32,9.37654e-01,9.99999e-01
1.877323583e+00,1.49926e-161,1.59691e-161,9.38847e-01,9.99999e-01
