#,Wave/freq,Total,CO2,Rayleigh,CIA
4.000000000e-01,4.58921e-20,9.99999e-01,4.58921e-20,9.99999e-01
4.020000000e-01,1.10688e-19,9.99999e-01,1.10688e-19,9.99999e-01
4.040100000e-01,2.62135e-19,9.99999e-01,2.62135e-19,9.99999e-01
4.060300500e-01,6.10316e-19,9.99999e-01,6.10316e-19,9.99999e-01
4.080602003e-01,1.39745e-18,9.99999e-01,1.39745e-18,9.99999e-01
4.101005013e-01,3.14782e-18,9.99999e-01,3.14782e-18,9.99999e-01
4.121510038e-01,6.97778e-18,9.99999e-01,6.97778e-18,9.99999e-01
4.142117588e-01,1.52264e-17,9.99999e-01,1.52264e-17,9.99999e-01
4.162828176e-01,3.27176e-17,9.99999e-01,3.27176e-17,9.99999e-01
4.183642317e-01,6.92477e-17,9.99999e-01,6.92477e-17,9.99999e-01
4.204560528e-01,1.44410e-16,9.99999e-01,1.44410e-16,9.99999e-01
4.225583331e-01,2.96814e-16,9.99999e-01,2.96814e-16,9.99999e-01
4.246711247e-01,6.01439e-16,9.99999e-01,6.01439e-16,9.99999e-01
4.267944804e-01,1.20182e-15,9.99999e-01,1.20182e-15,9.99999e-01
4.289284528e-01,2.36892e-15,9.99999e-01,2.36892e-15,9.99999e-01
4.310730950e-01,4.60722e-15,9.99999e-01,4.60722e-15,9.99999e-01
4.332284605e-01,8.84345e-15,9.99999e-01,8.84345e-15,9.99999e-01
4.353946028e-01,1.67576e-14,9.99999e-01,1.67576e-14,9.99999e-01
4.375715758e-01,3.13557e-14,9.99999e-01,3.13557e-14,9.99999e-01
4.397594337e-01,5.79493e-14,9.99999e-01,5.79493e-14,9.99999e-01
4.419582309e-01,1.05806e-13,9.99999e-01,1.05806e-13,9.99999e-01
4.441680220e-01,1.90901e-13,9.99999e-01,1.90901e-13,9.99999e-01
4.463888621e-01,3.40443e-13,9.99999e-01,3.40443e-13,9.99999e-01
4.486208064e-01,6.00229e-13,9.99999e-01,6.00229e-13,9.99999e-01
4.508639105e-01,1.04647e-12,9.99999e-01,1.04647e-12,9.99999e-01
4.531182300e-01,1.80454e-12,9.99999e-01,1.80454e-12,9.99999e-01
4.553838212e-01,3.07845e-12,9.99999e-01,3.07845e-12,9.99999e-01
4.576607403e-01,5.19656e-12,9.99999e-01,5.19656e-12,9.99999e-01
4.599490440e-01,8.68177e-12,9.99999e-01,8.68177e-12,9.99999e-01
4.622487892e-01,1.43581e-11,9.99999e-01,1.43581e-11,9.99999e-01
4.645600332e-01,2.35111e-11,9.99999e-01,2.35111e-11,9.99999e-01
4.668828333e-01,3.81255e-11,9.99999e-01,3.81255e-11,9.99999e-01
4.692172475e-01,6.12369e-11,9.99999e-01,6.12369e-11,9.99999e-01
4.715633337e-01,9.74417e-11,9.99999e-01,9.74417e-11,9.99999e-01
4.739211504e-01,1.53636e-10,9.99999e-01,1.53636e-10,9.99999e-01
4.762907561e-01,2.40067e-10,9.99999e-01,2.40067e-10,9.99999e-01
4.786722099e-01,3.71831e-10,9.99999e-01,3.71831e-10,9.99999e-01
4.810655710e-01,5.70958e-10,9.99999e-01,5.70958e-10,9.99999e-01
4.834708988e-01,8.69329e-10,9.99999e-01,8.69329e-10,9.99999e-01
4.858882533e-01,1.31268e-09,9.99999e-01,1.31268e-09,9.99999e-01
4.883176946e-01,1.96606e-09,9.99999e-01,1.96606e-09,9.99999e-01
4.907592831e-01,2.92125e-09,9.99999e-01,2.92125e-09,9.99999e-01
4.932130795e-01,4.30671e-09,9.99999e-01,4.30671e-09,9.99999e-01
4.956791449e-01,6.30074e-09,9.99999e-01,6.30074e-09,9.99999e-01
4.981575406e-01,9.14901e-09,9.99999e-01,9.14901e-09,9.99999e-01
5.006483283e-01,1.31873e-08,9.99999e-01,1.31873e-08,9.99999e-01
5.031515699e-01,1.88714e-08,9.99999e-01,1.88714e-08,9.99999e-01
5.056673278e-01,2.68148e-08,9.99999e-01,2.68148e-08,9.99999e-01
5.081956644e-01,3.78385e-08,9.99999e-01,3.78385e-08,9.99999e-01
5.107366428e-01,5.30320e-08,9.99999e-01,5.30320e-08,9.99999e-01
5.132903260e-01,7.38323e-08,9.99999e-01,7.38323e-08,9.99999e-01
5.158567776e-01,1.02121e-07,9.99999e-01,1.02121e-07,9.99999e-01
5.184360615e-01,1.40347e-07,9.99999e-01,1.40347e-07,9.99999e-01
5.210282418e-01,1.91674e-07,9.99999e-01,1.91674e-07,9.99999e-01
5.236333830e-01,2.60165e-07,9.99999e-01,2.60165e-07,9.99999e-01
5.262515499e-01,3.51006e-07,9.99999e-01,3.51006e-07,9.99999e-01
5.288828077e-01,4.70771e-07,9.99999e-01,4.70771e-07,9.99999e-01
5.315272217e-01,6.27752e-07,9.99999e-01,6.27752e-07,9.99999e-01
5.341848578e-01,8.32332e-07,9.99999e-01,8.32332e-07,9.99999e-01
5.368557821e-01,1.09745e-06,9.99999e-01,1.09745e-06,9.99999e-01
5.395400610e-01,1.43914e-06,9.99999e-01,1.43914e-06,9.99999e-01
5.422377613e-01,1.87713e-06,9.99999e-01,1.87713e-06,9.99999e-01
5.449489501e-01,2.43561e-06,9.99999e-01,2.43561e-06,9.99999e-01
5.476736949e-01,3.14403e-06,9.99999e-01,3.14403e-06,9.99999e-01
5.504120634e-01,4.03808e-06,9.99999e-01,4.03808e-06,9.99999e-01
5.531641237e-01,5.16079e-06,9.99999e-01,5.16079e-06,9.99999e-01
5.559299443e-01,6.56376e-06,9.99999e-01,6.56376e-06,9.99999e-01
5.587095940e-01,8.30858e-06,9.99999e-01,8.30858e-06,9.99999e-01
5.615031420e-01,1.04684e-05,9.99999e-01,1.04684e-05,9.99999e-01
5.643106577e-01,1.31295e-05,9.99999e-01,1.31295e-05,9.99999e-01
5.671322110e-01,1.63936e-05,9.99999e-01,1.63936e-05,9.99999e-01
5.699678720e-01,2.03797e-05,9.99999e-01,2.03797e-05,9.99999e-01
5.728177114e-01,2.52262e-05,9.99999e-01,2.52262e-05,9.99999e-01
5.756818000e-01,3.10940e-05,9.99999e-01,3.10940e-05,9.99999e-01
5.785602090e-01,3.81687e-05,9.99999e-01,3.81687e-05,9.99999e-01
5.814530100e-01,4.66638e-05,9.99999e-01,4.66638e-05,9.99999e-01
5.843602750e-01,5.68236e-05,9.99999e-01,5.68236e-05,9.99999e-01
5.872820764e-01,6.89266e-05,9.99999e-01,6.89266e-05,9.99999e-01
5.902184868e-01,8.32893e-05,9.99999e-01,8.32893e-05,9.99999e-01
5.931695792e-01,1.00269e-04,9.99999e-01,1.00269e-04,9.99999e-01
5.961354271e-01,1.20269e-04,9.99999e-01,1.20269e-04,9.99999e-01
5.991161043e-01,1.43741e-04,9.99999e-01,1.43741e-04,9.99999e-01
6.021116848e-01,1.71190e-04,9.99999e-01,1.71190e-04,9.99999e-01
6.051222432e-01,2.03178e-04,9.99999e-01,2.03178e-04,9.99999e-01
6.081478544e-01,2.40328e-04,9.99999e-01,2.40328e-04,9.99999e-01
6.111885937e-01,2.83330e-04,9.99999e-01,2.83330e-04,9.99999e-01
6.142445367e-01,3.32942e-04,9.99999e-01,3.32942e-04,9.99999e-01
6.173157594e-01,3.89997e-04,9.99999e-01,3.89997e-04,9.99999e-01
6.204023382e-01,4.55403e-04,9.99999e-01,4.55403e-04,9.99999e-01
6.235043498e-01,5.30153e-04,9.99999e-01,5.30153e-04,9.99999e-01
6.266218716e-01,6.15321e-04,9.99999e-01,6.15321e-04,9.99999e-01
6.297549810e-01,7.12074e-04,9.99999e-01,7.12074e-04,9.99999e-01
6.329037559e-01,8.21667e-04,9.99999e-01,8.21667e-04,9.99999e-01
6.360682746e-01,9.45449e-04,9.99999e-01,9.45449e-04,9.99999e-01
6.392486160e-01,1.08487e-03,9.99999e-01,1.08487e-03,9.99999e-01
6.424448591e-01,1.24147e-03,9.99999e-01,1.24147e-03,9.99999e-01
6.456570834e-01,1.41689e-03,9.99999e-01,1.41689e-03,9.99999e-01
6.488853688e-01,1.61289e-03,9.99999e-01,1.61289e-03,9.99999e-01
6.521297956e-01,1.83131e-03,9.99999e-01,1.83131e-03,9.99999e-01
6.553904446e-01,2.07410e-03,9.99999e-01,2.07410e-03,9.99999e-01
6.586673968e-01,2.34330e-03,9.99999e-01,2.34330e-03,9.99999e-01
6.619607338e-01,2.64108e-03,9.99999e-01,2.64108e-03,9.99999e-01
6.652705375e-01,2.96966e-03,9.99999e-01,2.96966e-03,9.99999e-01
6.685968902e-01,3.33141e-03,9.99999e-01,3.33141e-03,9.99999e-01
6.719398746e-01,3.72874e-03,9.99999e-01,3.72874e-03,9.99999e-01
6.752995740e-01,4.16418e-03,9.99999e-01,4.16418e-03,9.99999e-01
6.786760719e-01,4.64034e-03,9.99999e-01,4.64034e-03,9.99999e-01
6.820694522e-01,5.15990e-03,9.99999e-01,5.15990e-03,9.99999e-01
6.854797995e-01,5.72561e-03,9.99999e-01,5.72561e-03,9.99999e-01
6.889071985e-01,6.34031e-03,9.99999e-01,6.34031e-03,9.99999e-01
6.923517345e-01,7.00688e-03,9.99999e-01,7.00688e-03,9.99999e-01
6.958134932e-01,7.72824e-03,9.99999e-01,7.72824e-03,9.99999e-01
6.992925606e-01,8.50739e-03,9.99999e-01,8.50739e-03,9.99999e-01
7.027890234e-01,9.34734e-03,9.99999e-01,9.34734e-03,9.99999e-01
7.063029686e-01,1.02511e-02,9.99999e-01,1.02511e-02,9.99999e-01
7.098344834e-01,1.12218e-02,9.99999e-01,1.12218e-02,9.99999e-01
7.133836558e-01,1.22625e-02,9.99999e-01,1.22625e-02,9.99999e-01
7.169505741e-01,1.33763e-02,9.99999e-01,1.33763e-02,9.99999e-01
7.205353270e-01,1.45662e-02,9.99999e-01,1.45662e-02,9.99999e-01
7.241380036e-01,1.58352e-02,9.99999e-01,1.58352e-02,9.99999e-01
7.277586936e-01,1.71864e-02,9.99999e-01,1.71864e-02,9.99999e-01
7.313974871e-01,1.86228e-02,9.99999e-01,1.86228e-02,9.99999e-01
7.350544745e-01,2.01472e-02,9.99999e-01,2.01472e-02,9.99999e-01
7.387297469e-01,2.17626e-02,9.99999e-01,2.17626e-02,9.99999e-01
7.424233956e-01,2.34718e-02,9.99999e-01,2.34718e-02,9.99999e-01
7.461355126e-01,2.52774e-02,9.99999e-01,2.52774e-02,9.99999e-01
7.498661902e-01,2.71820e-02,9.99999e-01,2.71820e-02,9.99999e-01
7.536155211e-01,2.91883e-02,9.99999e-01,2.91883e-02,9.99999e-01
7.573835987e-01,3.12986e-02,9.99999e-01,3.12986e-02,9.99999e-01
7.611705167e-01,3.35152e-02,9.99999e-01,3.35152e-02,9.99999e-01
7.649763693e-01,3.58403e-02,9.99999e-01,3.58403e-02,9.99999e-01
7.688012511e-01,3.82760e-02,9.99999e-01,3.82760e-02,9.99999e-01
7.726452574e-01,4.08241e-02,9.99999e-01,4.08241e-02,9.99999e-01
7.765084837e-01,4.34865e-02,9.99999e-01,4.34865e-02,9.99999e-01
7.803910261e-01,4.09945e-02,8.86084e-01,4.62648e-02,9.99999e-01
7.842929812e-01,2.71078e-02,5.51415e-01,4.91604e-02,9.99999e-01
7.882144461e-01,2.78276e-02,5.33356e-01,5.21746e-02,9.99999e-01
7.921555184e-01,3.72353e-02,6.73228e-01,5.53086e-02,9.99999e-01
7.961162960e-01,4.48262e-02,7.65431e-01,5.85633e-02,9.99999e-01
8.000968774e-01,5.35515e-02,8.64576e-01,6.19395e-02,9.99999e-01
8.040973618e-01,6.06946e-02,9.27513e-01,6.54379e-02,9.99999e-01
8.081178486e-01,6.66999e-02,9.65839e-01,6.90589e-02,9.99999e-01
8.121584379e-01,7.20350e-02,9.89453e-01,7.28028e-02,9.99999e-01
8.162192301e-01,7.64902e-02,9.97658e-01,7.66696e-02,9.99999e-01
8.203003262e-01,8.06569e-02,9.99968e-01,8.06594e-02,9.99999e-01
8.244018279e-01,8.47717e-02,9.99999e-01,8.47717e-02,9.99999e-01
8.285238370e-01,8.90063e-02,9.99999e-01,8.90063e-02,9.99999e-01
8.326664562e-01,9.33625e-02,9.99999e-01,9.33625e-02,9.99999e-01
8.368297885e-01,9.78395e-02,9.99999e-01,9.78395e-02,9.99999e-01
8.410139374e-01,1.02436e-01,9.99999e-01,1.02436e-01,9.99999e-01
8.452190071e-01,1.07152e-01,9.99999e-01,1.07152e-01,9.99999e-01
8.494451021e-01,1.11985e-01,9.99999e-01,1.11985e-01,9.99999e-01
8.536923276e-01,1.16934e-01,9.99999e-01,1.16934e-01,9.99999e-01
8.579607893e-01,1.21998e-01,9.99999e-01,1.21998e-01,9.99999e-01
8.622505932e-01,1.27174e-01,9.99999e-01,1.27174e-01,9.99999e-01
8.665618462e-01,1.11906e-01,8.44823e-01,1.32461e-01,9.99999e-01
8.708946554e-01,3.22064e-02,2.33621e-01,1.37857e-01,9.99999e-01
8.752491287e-01,4.20214e-02,2.93118e-01,1.43360e-01,9.99999e-01
8.796253743e-01,7.44605e-02,4.99845e-01,1.48967e-01,9.99999e-01
8.840235012e-01,1.06915e-01,6.91214e-01,1.54676e-01,9.99999e-01
8.884436187e-01,1.38622e-01,8.63768e-01,1.60485e-01,9.99999e-01
8.928858368e-01,1.56751e-01,9.42061e-01,1.66391e-01,9.99999e-01
8.973502660e-01,1.69924e-01,9.85688e-01,1.72391e-01,9.99999e-01
9.018370173e-01,1.78200e-01,9.98418e-01,1.78482e-01,9.99999e-01
9.063462024e-01,1.77216e-01,9.59674e-01,1.84662e-01,9.99999e-01
9.108779334e-01,1.73766e-01,9.10114e-01,1.90928e-01,9.99999e-01
9.154323231e-01,1.93012e-01,9.78388e-01,1.97276e-01,9.99999e-01
9.200094847e-01,1.55673e-01,7.64214e-01,2.03703e-01,9.99999e-01
9.246095321e-01,1.33033e-01,6.32866e-01,2.10207e-01,9.99999e-01
9.292325798e-01,1.52292e-01,7.02506e-01,2.16783e-01,9.99999e-01
9.338787427e-01,1.58428e-01,7.09073e-01,2.23430e-01,9.99999e-01
9.385481364e-01,1.78219e-01,7.74383e-01,2.30143e-01,9.99999e-01
9.432408771e-01,2.02415e-01,8.54366e-01,2.36919e-01,9.99999e-01
9.479570815e-01,2.24773e-01,9.22127e-01,2.43754e-01,9.99999e-01
9.526968669e-01,2.41075e-01,9.61812e-01,2.50646e-01,9.99999e-01
9.574603512e-01,2.53336e-01,9.83480e-01,2.57592e-01,9.99999e-01
9.622476530e-01,2.63217e-01,9.94824e-01,2.64586e-01,9.99999e-01
9.670588912e-01,2.71206e-01,9.98449e-01,2.71627e-01,9.99999e-01
9.718941857e-01,2.78681e-01,9.99893e-01,2.78710e-01,9.99999e-01
9.767536566e-01,2.85833e-01,9.99999e-01,2.85833e-01,9.99999e-01
9.816374249e-01,2.92992e-01,9.99999e-01,2.92992e-01,9.99999e-01
9.865456120e-01,3.00184e-01,9.99999e-01,3.00184e-01,9.99999e-01
9.914783401e-01,3.07404e-01,9.99999e-01,3.07404e-01,9.99999e-01
9.964357318e-01,3.14651e-01,9.99999e-01,3.14651e-01,9.99999e-01
1.001417910e+00,3.21920e-01,9.99999e-01,3.21920e-01,9.99999e-01
1.006425000e+00,3.29209e-01,9.99999e-01,3.29209e-01,9.99999e-01
1.011457125e+00,3.36513e-01,9.99999e-01,3.36513e-01,9.99999e-01
1.016514411e+00,3.43831e-01,9.99999e-01,3.43831e-01,9.99999e-01
1.021596983e+00,3.51068e-01,9.99741e-01,3.51159e-01,9.99999e-01
1.026704968e+00,3.52641e-01,9.83674e-01,3.58493e-01,9.99999e-01
1.031838492e+00,3.21393e-01,8.78528e-01,3.65831e-01,9.99999e-01
1.036997685e+00,1.26708e-02,3.39545e-02,3.73170e-01,9.99999e-01
1.042182673e+00,3.00531e-04,7.89815e-04,3.80507e-01,9.99999e-01
1.047393587e+00,8.62530e-04,2.22393e-03,3.87839e-01,9.99999e-01
1.052630555e+00,7.36697e-09,1.86428e-08,3.95164e-01,9.99999e-01
1.057893707e+00,2.82100e-08,7.00907e-08,4.02478e-01,9.99999e-01
1.063183176e+00,2.48426e-06,6.06244e-06,4.09778e-01,9.99999e-01
1.068499092e+00,4.05769e-05,9.72919e-05,4.17063e-01,9.99999e-01
1.073841587e+00,1.03511e-03,2.43940e-03,4.24330e-01,9.99999e-01
1.079210795e+00,1.01516e-02,2.35221e-02,4.31577e-01,9.99999e-01
1.084606849e+00,5.09499e-02,1.16112e-01,4.38800e-01,9.99999e-01
1.090029883e+00,1.43615e-01,3.22008e-01,4.45998e-01,9.99999e-01
1.095480033e+00,2.58588e-01,5.70622e-01,4.53168e-01,9.99999e-01
1.100957433e+00,3.50473e-01,7.61386e-01,4.60308e-01,9.99999e-01
1.106462220e+00,4.17544e-01,8.93300e-01,4.67417e-01,9.99999e-01
1.111994531e+00,4.55017e-01,9.58956e-01,4.74492e-01,9.99999e-01
1.117554504e+00,4.76659e-01,9.89883e-01,4.81530e-01,9.99999e-01
1.123142276e+00,4.88209e-01,9.99338e-01,4.88532e-01,9.99999e-01
1.128757988e+00,4.95493e-01,9.99999e-01,4.95493e-01,9.99999e-01
1.134401778e+00,5.02414e-01,9.99999e-01,5.02414e-01,9.99999e-01
1.140073787e+00,5.09291e-01,9.99999e-01,5.09291e-01,9.99999e-01
1.145774156e+00,5.16125e-01,9.99999e-01,5.16125e-01,9.99999e-01
1.151503026e+00,5.22912e-01,9.99999e-01,5.22912e-01,9.99999e-01
1.157260541e+00,5.29651e-01,9.99999e-01,5.29651e-01,9.99999e-01
1.163046844e+00,5.36342e-01,9.99999e-01,5.36342e-01,9.99999e-01
1.168862078e+00,5.42983e-01,9.99999e-01,5.42983e-01,9.99999e-01
1.174706389e+00,5.49572e-01,9.99999e-01,5.49572e-01,9.99999e-01
1.180579921e+00,5.56109e-01,9.99999e-01,5.56109e-01,9.99999e-01
1.186482820e+00,5.62570e-01,9.99959e-01,5.62592e-01,9.99999e-01
1.192415234e+00,5.37981e-01,9.45451e-01,5.69020e-01,9.99999e-01
1.198377311e+00,2.83408e-01,4.92546e-01,5.75393e-01,9.99999e-01
1.204369197e+00,7.36254e-41,1.26567e-40,5.81709e-01,9.99999e-01
1.210391043e+00,3.87650e-168,6.59305e-168,5.87968e-01,9.99999e-01
1.216442998e+00,2.23114e-145,3.75506e-145,5.94168e-01,9.99999e-01
1.222525213e+00,3.49539e-143,5.82263e-143,6.00310e-01,9.99999e-01
1.228637839e+00,2.85403e-110,4.70657e-110,6.06391e-01,9.99999e-01
1.234781029e+00,2.95395e-68,4.82346e-68,6.12413e-01,9.99999e-01
1.240954934e+00,4.84634e-45,7.83723e-45,6.18373e-01,9.99999e-01
1.247159708e+00,3.25358e-21,5.21179e-21,6.24272e-01,9.99999e-01
1.253395507e+00,1.89977e-14,3.01498e-14,6.30109e-01,9.99999e-01
1.259662485e+00,1.99681e-08,3.14021e-08,6.35884e-01,9.99999e-01
1.265960797e+00,5.98788e-05,9.33279e-05,6.41596e-01,9.99999e-01
1.272290601e+00,7.02032e-03,1.08465e-02,6.47245e-01,9.99999e-01
1.278652054e+00,6.89170e-03,1.05566e-02,6.52830e-01,9.99999e-01
1.285045314e+00,1.57124e-06,2.38663e-06,6.58353e-01,9.99999e-01
1.291470541e+00,2.62477e-19,3.95410e-19,6.63811e-01,9.99999e-01
1.297927893e+00,1.90295e-06,2.84359e-06,6.69205e-01,9.99999e-01
1.304417533e+00,1.55355e-04,2.30314e-04,6.74536e-01,9.99999e-01
1.310939621e+00,3.24937e-05,4.77987e-05,6.79802e-01,9.99999e-01
1.317494319e+00,1.41605e-57,2.06721e-57,6.85005e-01,9.99999e-01
1.324081790e+00,6.14537e-26,8.90449e-26,6.90143e-01,9.99999e-01
1.330702199e+00,6.36457e-22,9.15479e-22,6.95217e-01,9.99999e-01
1.337355710e+00,1.01338e-19,1.44721e-19,7.00227e-01,9.99999e-01
1.344042489e+00,1.31804e-23,1.86910e-23,7.05173e-01,9.99999e-01
1.350762701e+00,2.99833e-22,4.22266e-22,7.10055e-01,9.99999e-01
1.357516515e+00,3.22049e-13,4.50498e-13,7.14874e-01,9.99999e-01
1.364304097e+00,8.04098e-10,1.11738e-09,7.19629e-01,9.99999e-01
1.371125618e+00,2.08309e-05,2.87592e-05,7.24321e-01,9.99999e-01
1.377981246e+00,7.96232e-05,1.09230e-04,7.28950e-01,9.99999e-01
1.384871152e+00,3.45804e-03,4.71432e-03,7.33517e-01,9.99999e-01
1.391795508e+00,5.55097e-03,7.52142e-03,7.38021e-01,9.99999e-01
1.398754485e+00,3.22573e-02,4.34463e-02,7.42462e-01,9.99999e-01
1.405748258e+00,7.75491e-02,1.03836e-01,7.46842e-01,9.99999e-01
1.412776999e+00,1.76697e-01,2.35232e-01,7.51161e-01,9.99999e-01
1.419840884e+00,1.72841e-01,2.28801e-01,7.55418e-01,9.99999e-01
1.426940089e+00,5.00842e-03,6.59336e-03,7.59615e-01,9.99999e-01
1.434074789e+00,0.00000e+00,0.00000e+00,7.63752e-01,9.99999e-01
1.441245163e+00,0.00000e+00,0.00000e+00,7.67829e-01,9.99999e-01
1.448451389e+00,0.00000e+00,0.00000e+00,7.71846e-01,9.99999e-01
1.455693646e+00,0.00000e+00,0.00000e+00,7.75804e-01,9.99999e-01
1.462972114e+00,0.00000e+00,0.00000e+00,7.79704e-01,9.99999e-01
1.470286975e+00,2.76884e-279,3.53372e-279,7.83546e-01,9.99999e-01
1.477638409e+00,7.57745e-175,9.62423e-175,7.87330e-01,9.99999e-01
1.485026601e+00,1.46946e-96,1.85759e-96,7.91057e-01,9.99999e-01
1.492451734e+00,4.15139e-82,5.22365e-82,7.94728e-01,9.99999e-01
1.499913993e+00,1.37361e-34,1.72058e-34,7.98343e-01,9.99999e-01
1.507413563e+00,2.63858e-33,3.29040e-33,8.01902e-01,9.99999e-01
1.514950631e+00,4.99703e-35,6.20434e-35,8.05407e-01,9.99999e-01
1.522525384e+00,9.31405e-124,1.15151e-123,8.08857e-01,9.99999e-01
1.530138011e+00,3.32562e-298,4.09432e-298,8.12253e-01,9.99999e-01
1.537788701e+00,4.29517e-220,5.26629e-220,8.15597e-01,9.99999e-01
1.545477645e+00,5.53898e-45,6.76402e-45,8.18887e-01,9.99999e-01
1.553205033e+00,5.80059e-33,7.05559e-33,8.22125e-01,9.99999e-01
1.560971058e+00,4.99948e-33,6.05768e-33,8.25312e-01,9.99999e-01
1.568775913e+00,0.00000e+00,0.00000e+00,8.28448e-01,9.99999e-01
1.576619793e+00,0.00000e+00,0.00000e+00,8.31533e-01,9.99999e-01
1.584502892e+00,0.00000e+00,0.00000e+00,8.34569e-01,9.99999e-01
1.592425406e+00,0.00000e+00,0.00000e+00,8.37555e-01,9.99999e-01
1.600387533e+00,0.00000e+00,0.00000e+00,8.40493e-01,9.99999e-01
1.608389471e+00,0.00000e+00,0.00000e+00,8.43383e-01,9.99999e-01
1.616431418e+00,0.00000e+00,0.00000e+00,8.46225e-01,9.99999e-01
1.624513575e+00,0.00000e+00,0.00000e+00,8.49021e-01,9.99999e-01
1.632636143e+00,0.00000e+00,0.00000e+00,8.51770e-01,9.99999e-01
1.640799324e+00,1.30367e-258,1.52570e-258,8.54474e-01,9.99999e-01
1.649003321e+00,1.30663e-258,1.52442e-258,8.57132e-01,9.99999e-01
1.657248337e+00,2.01443e-199,2.34305e-199,8.59746e-01,9.99999e-01
1.665534579e+00,9.06871e-201,1.05167e-200,8.62316e-01,9.99999e-01
1.673862252e+00,2.54955e-127,2.94799e-127,8.64843e-01,9.99999e-01
1.682231563e+00,1.43853e-87,1.65857e-87,8.67327e-01,9.99999e-01
1.690642721e+00,8.50766e-48,9.78151e-48,8.69769e-01,9.99999e-01
1.699095934e+00,4.30690e-30,4.93814e-30,8.72169e-01,9.99999e-01
1.707591414e+00,9.67455e-15,1.10626e-14,8.74529e-01,9.99999e-01
1.716129371e+00,5.28971e-09,6.03263e-09,8.76848e-01,9.99999e-01
1.724710018e+00,1.48378e-05,1.68779e-05,8.79127e-01,9.99999e-01
1.733333568e+00,4.82532e-04,5.47481e-04,8.81367e-01,9.99999e-01
1.742000236e+00,1.10404e-02,1.24952e-02,8.83568e-01,9.99999e-01
1.750710237e+00,7.33569e-06,8.28206e-06,8.85731e-01,9.99999e-01
1.759463788e+00,1.68032e-121,1.89255e-121,8.87857e-01,9.99999e-01
1.768261107e+00,3.18522e-127,3.57912e-127,8.89945e-01,9.99999e-01
1.777102413e+00,4.37317e-124,4.90266e-124,8.91997e-01,9.99999e-01
1.785987925e+00,6.54383e-116,7.31961e-116,8.94013e-01,9.99999e-01
1.794917864e+00,1.29472e-110,1.44501e-110,8.95993e-01,9.99999e-01
1.803892454e+00,3.22000e-106,3.58598e-106,8.97939e-01,9.99999e-01
1.812911916e+00,5.09860e-102,5.66604e-102,8.99851e-01,9.99999e-01
1.821976476e+00,4.20456e-102,4.66277e-102,9.01728e-01,9.99999e-01
1.831086358e+00,1.35191e-81,1.49619e-81,9.03573e-01,9.99999e-01
1.840241790e+00,2.52711e-69,2.79120e-69,9.05384e-01,9.99999e-01
1.849442999e+00,5.70537e-48,6.28923e-48,9.07163e-01,9.99999e-01
1.858690214e+00,3.15947e-45,3.47610e-45,9.08911e-01,9.99999e-01
1.867983665e+00,9.55376e-46,1.04914e-45,9.10627e-01,9.99999e-01
1.877323583e+00,5.20654e-234,5.70696e-234,9.12313e-01,9.99999e-01
