#,Wave/freq,Total,CO2,Rayleigh,CIA
4.000000000e-01,2.04716e-07,9.99999e-01,2.04716e-07,9.99999e-01
4.020000000e-01,2.77594e-07,9.99999e-01,2.77594e-07,9.99999e-01
4.040100000e-01,3.74041e-07,9.99999e-01,3.74041e-07,9.99999e-01
4.060300500e-01,5.01037e-07,9.99999e-01,5.01037e-07,9.99999e-01
4.080602003e-01,6.67287e-07,9.99999e-01,6.67287e-07,9.99999e-01
4.101005013e-01,8.83685e-07,9.99999e-01,8.83685e-07,9.99999e-01
4.121510038e-01,1.16379e-06,9.99999e-01,1.16379e-06,9.99999e-01
4.142117588e-01,1.52436e-06,9.99999e-01,1.52436e-06,9.99999e-01
4.162828176e-01,1.98603e-06,9.99999e-01,1.98603e-06,9.99999e-01
4.183642317e-01,2.57403e-06,9.99999e-01,2.57403e-06,9.99999e-01
4.204560528e-01,3.31909e-06,9.99999e-01,3.31909e-06,9.99999e-01
4.225583331e-01,4.25836e-06,9.99999e-01,4.25836e-06,9.99999e-01
4.246711247e-01,5.43661e-06,9.99999e-01,5.43661e-06,9.99999e-01
4.267944804e-01,6.90746e-06,9.99999e-01,6.90746e-06,9.99999e-01
4.289284528e-01,8.73483e-06,9.99999e-01,8.73483e-06,9.99999e-01
4.310730950e-01,1.09945e-05,9.99999e-01,1.09945e-05,9.99999e-01
4.332284605e-01,1.37761e-05,9.99999e-01,1.37761e-05,9.99999e-01
4.353946028e-01,1.71846e-05,9.99999e-01,1.71846e-05,9.99999e-01
4.375715758e-01,2.13431e-05,9.99999e-01,2.13431e-05,9.99999e-01
4.397594337e-01,2.63947e-05,9.99999e-01,2.63947e-05,9.99999e-01
4.419582309e-01,3.25052e-05,9.99999e-01,3.25052e-05,9.99999e-01
4.441680220e-01,3.98661e-05,9.99999e-01,3.98661e-05,9.99999e-01
4.463888621e-01,4.86970e-05,9.99999e-01,4.86970e-05,9.99999e-01
4.486208064e-01,5.92495e-05,9.99999e-01,5.92495e-05,9.99999e-01
4.508639105e-01,7.18100e-05,9.99999e-01,7.18100e-05,9.99999e-01
4.531182300e-01,8.67033e-05,9.99999e-01,8.67033e-05,9.99999e-01
4.553838212e-01,1.04296e-04,9.99999e-01,1.04296e-04,9.99999e-01
4.576607403e-01,1.25002e-04,9.99999e-01,1.25002e-04,9.99999e-01
4.599490440e-01,1.49284e-04,9.99999e-01,1.49284e-04,9.99999e-01
4.622487892e-01,1.77659e-04,9.99999e-01,1.77659e-04,9.99999e-01
4.645600332e-01,2.10701e-04,9.99999e-01,2.10701e-04,9.99999e-01
4.668828333e-01,2.49048e-04,9.99999e-01,2.49048e-04,9.99999e-01
4.692172475e-01,2.93404e-04,9.99999e-01,2.93404e-04,9.99999e-01
4.715633337e-01,3.44542e-04,9.99999e-01,3.44542e-04,9.99999e-01
4.739211504e-01,4.03311e-04,9.99999e-01,4.03311e-04,9.99999e-01
4.762907561e-01,4.70638e-04,9.99999e-01,4.70638e-04,9.99999e-01
4.786722099e-01,5.47532e-04,9.99999e-01,5.47532e-04,9.99999e-01
4.810655710e-01,6.35088e-04,9.99999e-01,6.35088e-04,9.99999e-01
4.834708988e-01,7.34490e-04,9.99999e-01,7.34490e-04,9.99999e-01
4.858882533e-01,8.47014e-04,9.99999e-01,8.47014e-04,9.99999e-01
4.883176946e-01,9.74030e-04,9.99999e-01,9.74030e-04,9.99999e-01
4.907592831e-01,1.11701e-03,9.99999e-01,1.11701e-03,9.99999e-01
4.932130795e-01,1.27751e-03,9.99999e-01,1.27751e-03,9.99999e-01
4.956791449e-01,1.45720e-03,9.99999e-01,1.45720e-03,9.99999e-01
4.981575406e-01,1.65786e-03,9.99999e-01,1.65786e-03,9.99999e-01
5.006483283e-01,1.88134e-03,9.99999e-01,1.88134e-03,9.99999e-01
5.031515699e-01,2.12963e-03,9.99999e-01,2.12963e-03,9.99999e-01
5.056673278e-01,2.40479e-03,9.99999e-01,2.40479e-03,9.99999e-01
5.081956644e-01,2.70899e-03,9.99999e-01,2.70899e-03,9.99999e-01
5.107366428e-01,3.04450e-03,9.99999e-01,3.04450e-03,9.99999e-01
5.132903260e-01,3.41368e-03,9.99999e-01,3.41368e-03,9.99999e-01
5.158567776e-01,3.81898e-03,9.99999e-01,3.81898e-03,9.99999e-01
5.184360615e-01,4.26295e-03,9.99999e-01,4.26295e-03,9.99999e-01
5.210282418e-01,4.74820e-03,9.99999e-01,4.74820e-03,9.99999e-01
5.236333830e-01,5.27744e-03,9.99999e-01,5.27744e-03,9.99999e-01
5.262515499e-01,5.85344e-03,9.99999e-01,5.85344e-03,9.99999e-01
5.288828077e-01,6.47903e-03,9.99999e-01,6.47903e-03,9.99999e-01
5.315272217e-01,7.15712e-03,9.99999e-01,7.15712e-03,9.99999e-01
5.341848578e-01,7.89065e-03,9.99999e-01,7.89065e-03,9.99999e-01
5.368557821e-01,8.68260e-03,9.99999e-01,8.68260e-03,9.99999e-01
5.395400610e-01,9.53601e-03,9.99999e-01,9.53601e-03,9.99999e-01
5.422377613e-01,1.04539e-02,9.99999e-01,1.04539e-02,9.99999e-01
5.449489501e-01,1.14394e-02,9.99999e-01,1.14394e-02,9.99999e-01
5.476736949e-01,1.24955e-02,9.99999e-01,1.24955e-02,9.99999e-01
5.504120634e-01,1.36254e-02,9.99999e-01,1.36254e-02,9.99999e-01
5.531641237e-01,1.48320e-02,9.99999e-01,1.48320e-02,9.99999e-01
5.559299443e-01,1.61184e-02,9.99999e-01,1.61184e-02,9.99999e-01
5.587095940e-01,1.74877e-02,9.99999e-01,1.74877e-02,9.99999e-01
5.615031420e-01,1.89428e-02,9.99999e-01,1.89428e-02,9.99999e-01
5.643106577e-01,2.04865e-02,9.99999e-01,2.04865e-02,9.99999e-01
5.671322110e-01,2.21218e-02,9.99999e-01,2.21218e-02,9.99999e-01
5.699678720e-01,2.38514e-02,9.99999e-01,2.38514e-02,9.99999e-01
5.728177114e-01,2.56781e-02,9.99999e-01,2.56781e-02,9.99999e-01
5.756818000e-01,2.76044e-02,9.99999e-01,2.76044e-02,9.99999e-01
5.785602090e-01,2.96328e-02,9.99999e-01,2.96328e-02,9.99999e-01
5.814530100e-01,3.17657e-02,9.99999e-01,3.17657e-02,9.99999e-01
5.843602750e-01,3.40054e-02,9.99999e-01,3.40054e-02,9.99999e-01
5.872820764e-01,3.63542e-02,9.99999e-01,3.63542e-02,9.99999e-01
5.902184868e-01,3.88138e-02,9.99999e-01,3.88138e-02,9.99999e-01
5.931695792e-01,4.13864e-02,9.99999e-01,4.13864e-02,9.99999e-01
5.961354271e-01,4.40736e-02,9.99999e-01,4.40736e-02,9.99999e-01
5.991161043e-01,4.68769e-02,9.99999e-01,4.68769e-02,9.99999e-01
6.021116848e-01,4.97979e-02,9.99999e-01,4.97979e-02,9.99999e-01
6.051222432e-01,5.28377e-02,9.99999e-01,5.28377e-02,9.99999e-01
6.081478544e-01,5.59976e-02,9.99999e-01,5.59976e-02,9.99999e-01
6.111885937e-01,5.92783e-02,9.99999e-01,5.92783e-02,9.99999e-01
6.142445367e-01,6.26808e-02,9.99999e-01,6.26808e-02,9.99999e-01
6.173157594e-01,6.62055e-02,9.99999e-01,6.62055e-02,9.99999e-01
6.204023382e-01,6.98528e-02,9.99999e-01,6.98528e-02,9.99999e-01
6.235043498e-01,7.36231e-02,9.99999e-01,7.36231e-02,9.99999e-01
6.266218716e-01,7.75164e-02,9.99999e-01,7.75164e-02,9.99999e-01
6.297549810e-01,8.15325e-02,9.99999e-01,8.15325e-02,9.99999e-01
6.329037559e-01,8.56712e-02,9.99999e-01,8.56712e-02,9.99999e-01
6.360682746e-01,8.99319e-02,9.99999e-01,8.99319e-02,9.99999e-01
6.392486160e-01,9.43141e-02,9.99999e-01,9.43141e-02,9.99999e-01
6.424448591e-01,9.88169e-02,9.99999e-01,9.88169e-02,9.99999e-01
6.456570834e-01,1.03439e-01,9.99999e-01,1.03439e-01,9.99999e-01
6.488853688e-01,1.08180e-01,9.99999e-01,1.08180e-01,9.99999e-01
6.521297956e-01,1.13038e-01,9.99999e-01,1.13038e-01,9.99999e-01
6.553904446e-01,1.18012e-01,9.99999e-01,1.18012e-01,9.99999e-01
6.586673968e-01,1.23100e-01,9.99999e-01,1.23100e-01,9.99999e-01
6.619607338e-01,1.28301e-01,9.99999e-01,1.28301e-01,9.99999e-01
6.652705375e-01,1.33611e-01,9.99999e-01,1.33611e-01,9.99999e-01
6.685968902e-01,1.39030e-01,9.99999e-01,1.39030e-01,9.99999e-01
6.719398746e-01,1.44556e-01,9.99999e-01,1.44556e-01,9.99999e-01
6.752995740e-01,1.50185e-01,9.99999e-01,1.50185e-01,9.99999e-01
6.786760719e-01,1.55916e-01,9.99999e-01,1.55916e-01,9.99999e-01
6.820694522e-01,1.61746e-01,9.99999e-01,1.61746e-01,9.99999e-01
6.854797995e-01,1.67672e-01,9.99999e-01,1.67672e-01,9.99999e-01
6.889071985e-01,1.73692e-01,9.99999e-01,1.73692e-01,9.99999e-01
6.923517345e-01,1.79802e-01,9.99999e-01,1.79802e-01,9.99999e-01
6.958134932e-01,1.86001e-01,9.99999e-01,1.86001e-01,9.99999e-01
6.992925606e-01,1.92284e-01,9.99999e-01,1.92284e-01,9.99999e-01
7.027890234e-01,1.98650e-01,9.99999e-01,1.98650e-01,9.99999e-01
7.063029686e-01,2.05094e-01,9.99999e-01,2.05094e-01,9.99999e-01
7.098344834e-01,2.11613e-01,9.99999e-01,2.11613e-01,9.99999e-01
7.133836558e-01,2.18205e-01,9.99999e-01,2.18205e-01,9.99999e-01
7.169505741e-01,2.24866e-01,9.99999e-01,2.24866e-01,9.99999e-01
7.205353270e-01,2.31593e-01,9.99999e-01,2.31593e-01,9.99999e-01
7.241380036e-01,2.38382e-01,9.99999e-01,2.38382e-01,9.99999e-01
7.277586936e-01,2.45230e-01,9.99999e-01,2.45230e-01,9.99999e-01
7.313974871e-01,2.52134e-01,9.99999e-01,2.52134e-01,9.99999e-01
7.350544745e-01,2.59090e-01,9.99999e-01,2.59090e-01,9.99999e-01
7.387297469e-01,2.66095e-01,9.99999e-01,2.66095e-01,9.99999e-01
7.424233956e-01,2.73145e-01,9.99999e-01,2.73145e-01,9.99999e-01
7.461355126e-01,2.80237e-01,9.99999e-01,2.80237e-01,9.99999e-01
7.498661902e-01,2.87368e-01,9.99999e-01,2.87368e-01,9.99999e-01
7.536155211e-01,2.94534e-01,9.99999e-01,2.94534e-01,9.99999e-01
7.573835987e-01,3.01732e-01,9.99999e-01,3.01732e-01,9.99999e-01
7.611705167e-01,3.08959e-01,9.99999e-01,3.08959e-01,9.99999e-01
7.649763693e-01,3.16211e-01,9.99999e-01,3.16211e-01,9.99999e-01
7.688012511e-01,3.23484e-01,9.99999e-01,3.23484e-01,9.99999e-01
7.726452574e-01,3.30777e-01,9.99999e-01,3.30777e-01,9.99999e-01
7.765084837e-01,3.38084e-01,9.99999e-01,3.38084e-01,9.99999e-01
7.803910261e-01,3.29084e-01,9.52748e-01,3.45404e-01,9.99999e-01
7.842929812e-01,2.82610e-01,8.01199e-01,3.52734e-01,9.99999e-01
7.882144461e-01,2.84305e-01,7.89582e-01,3.60069e-01,9.99999e-01
7.921555184e-01,3.19520e-01,8.69660e-01,3.67408e-01,9.99999e-01
7.961162960e-01,3.41163e-01,9.10383e-01,3.74747e-01,9.99999e-01
8.000968774e-01,3.63126e-01,9.50384e-01,3.82083e-01,9.99999e-01
8.040973618e-01,3.79271e-01,9.73952e-01,3.89414e-01,9.99999e-01
8.081178486e-01,3.91962e-01,9.87967e-01,3.96736e-01,9.99999e-01
8.121584379e-01,4.02537e-01,9.96262e-01,4.04047e-01,9.99999e-01
8.162192301e-01,4.11005e-01,9.99173e-01,4.11345e-01,9.99999e-01
8.203003262e-01,4.18621e-01,9.99986e-01,4.18626e-01,9.99999e-01
8.244018279e-01,4.25889e-01,9.99999e-01,4.25889e-01,9.99999e-01
8.285238370e-01,4.33130e-01,9.99999e-01,4.33130e-01,9.99999e-01
8.326664562e-01,4.40348e-01,9.99999e-01,4.40348e-01,9.99999e-01
8.368297885e-01,4.47540e-01,9.99999e-01,4.47540e-01,9.99999e-01
8.410139374e-01,4.54704e-01,9.99999e-01,4.54704e-01,9.99999e-01
8.452190071e-01,4.61838e-01,9.99999e-01,4.61838e-01,9.99999e-01
8.494451021e-01,4.68940e-01,9.99999e-01,4.68940e-01,9.99999e-01
8.536923276e-01,4.76007e-01,9.99999e-01,4.76007e-01,9.99999e-01
8.579607893e-01,4.83038e-01,9.99999e-01,4.83038e-01,9.99999e-01
8.622505932e-01,4.90031e-01,9.99999e-01,4.90031e-01,9.99999e-01
8.665618462e-01,4.51091e-01,9.07657e-01,4.96984e-01,9.99999e-01
8.708946554e-01,2.88792e-01,5.73118e-01,5.03895e-01,9.99999e-01
8.752491287e-01,3.24659e-01,6.35635e-01,5.10763e-01,9.99999e-01
8.796253743e-01,4.02700e-01,7.78033e-01,5.17587e-01,9.99999e-01
8.840235012e-01,4.60107e-01,8.77456e-01,5.24364e-01,9.99999e-01
8.884436187e-01,5.04366e-01,9.49675e-01,5.31093e-01,9.99999e-01
8.928858368e-01,5.26644e-01,9.79304e-01,5.37773e-01,9.99999e-01
8.973502660e-01,5.41642e-01,9.94928e-01,5.44403e-01,9.99999e-01
9.018370173e-01,5.50672e-01,9.99439e-01,5.50981e-01,9.99999e-01
9.063462024e-01,5.49625e-01,9.85862e-01,5.57506e-01,9.99999e-01
9.108779334e-01,5.45689e-01,9.67570e-01,5.63978e-01,9.99999e-01
9.154323231e-01,5.65990e-01,9.92277e-01,5.70394e-01,9.99999e-01
9.200094847e-01,5.17414e-01,8.97112e-01,5.76755e-01,9.99999e-01
9.246095321e-01,4.96306e-01,8.51210e-01,5.83059e-01,9.99999e-01
9.292325798e-01,5.19840e-01,8.82123e-01,5.89305e-01,9.99999e-01
9.338787427e-01,5.27182e-01,8.85286e-01,5.95493e-01,9.99999e-01
9.385481364e-01,5.50000e-01,9.14196e-01,6.01621e-01,9.99999e-01
9.432408771e-01,5.75158e-01,9.46465e-01,6.07690e-01,9.99999e-01
9.479570815e-01,5.96624e-01,9.72177e-01,6.13698e-01,9.99999e-01
9.526968669e-01,6.11272e-01,9.86486e-01,6.19645e-01,9.99999e-01
9.574603512e-01,6.21902e-01,9.94198e-01,6.25531e-01,9.99999e-01
9.622476530e-01,6.30210e-01,9.98186e-01,6.31355e-01,9.99999e-01
9.670588912e-01,6.36770e-01,9.99456e-01,6.37116e-01,9.99999e-01
9.718941857e-01,6.42790e-01,9.99961e-01,6.42815e-01,9.99999e-01
9.767536566e-01,6.48450e-01,9.99999e-01,6.48450e-01,9.99999e-01
9.816374249e-01,6.54022e-01,9.99999e-01,6.54022e-01,9.99999e-01
9.865456120e-01,6.59531e-01,9.99999e-01,6.59531e-01,9.99999e-01
9.914783401e-01,6.64975e-01,9.99999e-01,6.64975e-01,9.99999e-01
9.964357318e-01,6.70356e-01,9.99999e-01,6.70356e-01,9.99999e-01
1.001417910e+00,6.75673e-01,9.99999e-01,6.75673e-01,9.99999e-01
1.006425000e+00,6.80925e-01,9.99999e-01,6.80925e-01,9.99999e-01
1.011457125e+00,6.86114e-01,9.99999e-01,6.86114e-01,9.99999e-01
1.016514411e+00,6.91238e-01,9.99999e-01,6.91238e-01,9.99999e-01
1.021596983e+00,6.96247e-01,9.99925e-01,6.96299e-01,9.99999e-01
1.026704968e+00,6.97408e-01,9.94456e-01,7.01295e-01,9.99999e-01
1.031838492e+00,6.65859e-01,9.42839e-01,7.06227e-01,9.99999e-01
1.036997685e+00,7.57450e-02,1.06519e-01,7.11096e-01,9.99999e-01
1.042182673e+00,3.44455e-02,4.81149e-02,7.15901e-01,9.99999e-01
1.047393587e+00,5.17856e-02,7.18603e-02,7.20643e-01,9.99999e-01
1.052630555e+00,3.54427e-04,4.88648e-04,7.25321e-01,9.99999e-01
1.057893707e+00,1.08957e-03,1.49270e-03,7.29937e-01,9.99999e-01
1.063183176e+00,5.82214e-03,7.92678e-03,7.34490e-01,9.99999e-01
1.068499092e+00,2.34287e-02,3.17040e-02,7.38980e-01,9.99999e-01
1.073841587e+00,8.30986e-02,1.11780e-01,7.43409e-01,9.99999e-01
1.079210795e+00,1.86714e-01,2.49693e-01,7.47775e-01,9.99999e-01
1.084606849e+00,3.48145e-01,4.62908e-01,7.52081e-01,9.99999e-01
1.090029883e+00,5.06569e-01,6.69776e-01,7.56325e-01,9.99999e-01
1.095480033e+00,6.24062e-01,8.20584e-01,7.60509e-01,9.99999e-01
1.100957433e+00,6.95073e-01,9.09028e-01,7.64633e-01,9.99999e-01
1.106462220e+00,7.38950e-01,9.61301e-01,7.68697e-01,9.99999e-01
1.111994531e+00,7.61478e-01,9.85474e-01,7.72701e-01,9.99999e-01
1.117554504e+00,7.73876e-01,9.96431e-01,7.76647e-01,9.99999e-01
1.123142276e+00,7.80351e-01,9.99764e-01,7.80534e-01,9.99999e-01
1.128757988e+00,7.84364e-01,9.99999e-01,7.84364e-01,9.99999e-01
1.134401778e+00,7.88136e-01,9.99999e-01,7.88136e-01,9.99999e-01
1.140073787e+00,7.91851e-01,9.99999e-01,7.91851e-01,9.99999e-01
1.145774156e+00,7.95510e-01,9.99999e-01,7.95510e-01,9.99999e-01
1.151503026e+00,7.99112e-01,9.99999e-01,7.99112e-01,9.99999e-01
1.157260541e+00,8.02660e-01,9.99999e-01,8.02660e-01,9.99999e-01
1.163046844e+00,8.06153e-01,9.99999e-01,8.06153e-01,9.99999e-01
1.168862078e+00,8.09591e-01,9.99999e-01,8.09591e-01,9.99999e-01
1.174706389e+00,8.12976e-01,9.99999e-01,8.12976e-01,9.99999e-01
1.180579921e+00,8.16308e-01,9.99999e-01,8.16308e-01,9.99999e-01
1.186482820e+00,8.19579e-01,9.99990e-01,8.19587e-01,9.99999e-01
1.192415234e+00,8.06782e-01,9.80515e-01,8.22814e-01,9.99999e-01
1.198377311e+00,4.54614e-01,5.50386e-01,8.25990e-01,9.99999e-01
1.204369197e+00,1.32420e-15,1.59712e-15,8.29115e-01,9.99999e-01
1.210391043e+00,1.26435e-59,1.51930e-59,8.32190e-01,9.99999e-01
1.216442998e+00,9.39682e-52,1.12508e-51,8.35215e-01,9.99999e-01
1.222525213e+00,5.40329e-51,6.44637e-51,8.38190e-01,9.99999e-01
1.228637839e+00,1.75899e-39,2.09125e-39,8.41118e-01,9.99999e-01
1.234781029e+00,4.43708e-25,5.25722e-25,8.43997e-01,9.99999e-01
1.240954934e+00,7.68956e-17,9.08040e-17,8.46830e-01,9.99999e-01
1.247159708e+00,8.32927e-09,9.80357e-09,8.49615e-01,9.99999e-01
1.253395507e+00,7.73924e-06,9.07983e-06,8.52355e-01,9.99999e-01
1.259662485e+00,1.09261e-03,1.27784e-03,8.55048e-01,9.99999e-01
1.265960797e+00,1.88306e-02,2.19548e-02,8.57697e-01,9.99999e-01
1.272290601e+00,1.63103e-01,1.89588e-01,8.60302e-01,9.99999e-01
1.278652054e+00,1.39654e-01,1.61850e-01,8.62863e-01,9.99999e-01
1.285045314e+00,1.73024e-03,1.99940e-03,8.65380e-01,9.99999e-01
1.291470541e+00,1.35258e-07,1.55853e-07,8.67855e-01,9.99999e-01
1.297927893e+00,6.94515e-04,7.98028e-04,8.70288e-01,9.99999e-01
1.304417533e+00,4.18121e-02,4.79122e-02,8.72680e-01,9.99999e-01
1.310939621e+00,9.90497e-03,1.13196e-02,8.75030e-01,9.99999e-01
1.317494319e+00,7.58658e-21,8.64723e-21,8.77341e-01,9.99999e-01
1.324081790e+00,4.34558e-14,4.94033e-14,8.79611e-01,9.99999e-01
1.330702199e+00,2.38043e-08,2.69938e-08,8.81843e-01,9.99999e-01
1.337355710e+00,5.95550e-08,6.73671e-08,8.84036e-01,9.99999e-01
1.344042489e+00,2.12703e-08,2.40020e-08,8.86191e-01,9.99999e-01
1.350762701e+00,1.34666e-08,1.51598e-08,8.88308e-01,9.99999e-01
1.357516515e+00,1.15318e-05,1.29514e-05,8.90389e-01,9.99999e-01
1.364304097e+00,4.52867e-04,5.07452e-04,8.92433e-01,9.99999e-01
1.371125618e+00,1.77933e-02,1.98932e-02,8.94441e-01,9.99999e-01
1.377981246e+00,3.37876e-02,3.76919e-02,8.96414e-01,9.99999e-01
1.384871152e+00,1.33325e-01,1.48411e-01,8.98353e-01,9.99999e-01
1.391795508e+00,1.54337e-01,1.71437e-01,9.00257e-01,9.99999e-01
1.398754485e+00,3.02170e-01,3.34953e-01,9.02127e-01,9.99999e-01
1.405748258e+00,4.04903e-01,4.47919e-01,9.03964e-01,9.99999e-01
1.412776999e+00,5.44682e-01,6.01347e-01,9.05769e-01,9.99999e-01
1.419840884e+00,4.89739e-01,5.39632e-01,9.07541e-01,9.99999e-01
1.426940089e+00,3.34342e-02,3.67699e-02,9.09282e-01,9.99999e-01
1.434074789e+00,0.00000e+00,0.00000e+00,9.10992e-01,9.99999e-01
1.441245163e+00,0.00000e+00,0.00000e+00,9.12671e-01,9.99999e-01
1.448451389e+00,0.00000e+00,0.00000e+00,9.14320e-01,9.99999e-01
1.455693646e+00,0.00000e+00,0.00000e+00,9.15939e-01,9.99999e-01
1.462972114e+00,3.91047e-235,4.26195e-235,9.17529e-01,9.99999e-01
1.470286975e+00,4.46797e-98,4.86129e-98,9.19090e-01,9.99999e-01
1.477638409e+00,5.98652e-62,6.50268e-62,9.20623e-01,9.99999e-01
1.485026601e+00,7.35039e-35,7.97110e-35,9.22128e-01,9.99999e-01
1.492451734e+00,1.03352e-29,1.11900e-29,9.23606e-01,9.99999e-01
1.499913993e+00,2.11741e-13,2.28895e-13,9.25057e-01,9.99999e-01
1.507413563e+00,3.60635e-12,3.89252e-12,9.26481e-01,9.99999e-01
1.514950631e+00,1.37757e-13,1.48464e-13,9.27880e-01,9.99999e-01
1.522525384e+00,2.81802e-44,3.03256e-44,9.29253e-01,9.99999e-01
1.530138011e+00,1.33424e-104,1.43374e-104,9.30600e-01,9.99999e-01
1.537788701e+00,1.37087e-77,1.47101e-77,9.31923e-01,9.99999e-01
1.545477645e+00,4.97464e-17,5.33060e-17,9.33222e-01,9.99999e-01
1.553205033e+00,3.09926e-12,3.31650e-12,9.34497e-01,9.99999e-01
1.560971058e+00,1.09012e-12,1.16497e-12,9.35748e-01,9.99999e-01
1.568775913e+00,7.05562e-264,7.53019e-264,9.36977e-01,9.99999e-01
1.576619793e+00,0.00000e+00,0.00000e+00,9.38182e-01,9.99999e-01
1.584502892e+00,0.00000e+00,0.00000e+00,9.39365e-01,9.99999e-01
1.592425406e+00,3.13398e-235,3.33215e-235,9.40527e-01,9.99999e-01
1.600387533e+00,0.00000e+00,0.00000e+00,9.41666e-01,9.99999e-01
1.608389471e+00,0.00000e+00,0.00000e+00,9.42785e-01,9.99999e-01
1.616431418e+00,0.00000e+00,0.00000e+00,9.43883e-01,9.99999e-01
1.624513575e+00,9.26798e-299,9.80778e-299,9.44960e-01,9.99999e-01
1.632636143e+00,6.19509e-222,6.54859e-222,9.46017e-01,9.99999e-01
1.640799324e+00,6.37195e-91,6.72817e-91,9.47055e-01,9.99999e-01
1.649003321e+00,6.38459e-91,6.73428e-91,9.48073e-01,9.99999e-01
1.657248337e+00,1.93117e-70,2.03479e-70,9.49072e-01,9.99999e-01
1.665534579e+00,6.60766e-71,6.95504e-71,9.50053e-01,9.99999e-01
1.673862252e+00,1.71486e-45,1.80318e-45,9.51015e-01,9.99999e-01
1.682231563e+00,9.58459e-32,1.00683e-31,9.51959e-01,9.99999e-01
1.690642721e+00,5.34205e-18,5.60618e-18,9.52885e-01,9.99999e-01
1.699095934e+00,1.26149e-11,1.32260e-11,9.53793e-01,9.99999e-01
1.707591414e+00,2.22207e-06,2.32754e-06,9.54685e-01,9.99999e-01
1.716129371e+00,5.79572e-04,6.06525e-04,9.55560e-01,9.99999e-01
1.724710018e+00,1.49116e-02,1.55911e-02,9.56418e-01,9.99999e-01
1.733333568e+00,6.26577e-02,6.54551e-02,9.57261e-01,9.99999e-01
1.742000236e+00,1.91764e-01,2.00153e-01,9.58087e-01,9.99999e-01
1.750710237e+00,2.56729e-03,2.67733e-03,9.58897e-01,9.99999e-01
1.759463788e+00,1.93894e-43,2.02037e-43,9.59693e-01,9.99999e-01
1.768261107e+00,1.77721e-45,1.85035e-45,9.60473e-01,9.99999e-01
1.777102413e+00,4.07255e-44,4.23678e-44,9.61238e-01,9.99999e-01
1.785987925e+00,1.48988e-41,1.54875e-41,9.61989e-01,9.99999e-01
1.794917864e+00,1.10808e-39,1.15098e-39,9.62726e-01,9.99999e-01
1.803892454e+00,3.25875e-38,3.38238e-38,9.63448e-01,9.99999e-01
1.812911916e+00,1.06646e-36,1.10610e-36,9.64157e-01,9.99999e-01
1.821976476e+00,8.68321e-37,8.99951e-37,9.64853e-01,9.99999e-01
1.831086358e+00,1.07533e-29,1.11371e-29,9.65535e-01,9.99999e-01
1.840241790e+00,2.60552e-25,2.69666e-25,9.66204e-01,9.99999e-01
1.849442999e+00,1.15779e-17,1.19748e-17,9.66860e-01,9.99999e-01
1.858690214e+00,1.63709e-16,1.69207e-16,9.67504e-01,9.99999e-01
1.867983665e+00,3.25985e-17,3.36714e-17,9.68136e-01,9.99999e-01
1.877323583e+00,2.11806e-82,2.18637e-82,9.68755e-01,9.99999e-01
