#,Wave/freq,Total,CO2,Rayleigh,CIA
4.000000000e-01,9.29175e-18,9.99999e-01,9.29175e-18,9.99999e-01
4.020000000e-01,2.01777e-17,9.99999e-01,2.01777e-17,9.99999e-01
4.040100000e-01,4.31163e-17,9.99999e-01,4.31163e-17,9.99999e-01
4.060300500e-01,9.07608e-17,9.99999e-01,9.07608e-17,9.99999e-01
4.080602003e-01,1.88265e-16,9.99999e-01,1.88265e-16,9.99999e-01
4.101005013e-01,3.84930e-16,9.99999e-01,3.84930e-16,9.99999e-01
4.121510038e-01,7.75994e-16,9.99999e-01,7.75994e-16,9.99999e-01
4.142117588e-01,1.54284e-15,9.99999e-01,1.54284e-15,9.99999e-01
4.162828176e-01,3.02614e-15,9.99999e-01,3.02614e-15,9.99999e-01
4.183642317e-01,5.85703e-15,9.99999e-01,5.85703e-15,9.99999e-01
4.204560528e-01,1.11892e-14,9.99999e-01,1.11892e-14,9.99999e-01
4.225583331e-01,2.11043e-14,9.99999e-01,2.11043e-14,9.99999e-01
4.246711247e-01,3.93096e-14,9.99999e-01,3.93096e-14,9.99999e-01
4.267944804e-01,7.23254e-14,9.99999e-01,7.23254e-14,9.99999e-01
4.289284528e-01,1.31478e-13,9.99999e-01,1.31478e-13,9.99999e-01
4.310730950e-01,2.36204e-13,9.99999e-01,2.36204e-13,9.99999e-01
4.332284605e-01,4.19465e-13,9.99999e-01,4.19465e-13,9.99999e-01
4.353946028e-01,7.36509e-13,9.99999e-01,7.36509e-13,9.99999e-01
4.375715758e-01,1.27889e-12,9.99999e-01,1.27889e-12,9.99999e-01
4.397594337e-01,2.19660e-12,9.99999e-01,2.19660e-12,9.99999e-01
4.419582309e-01,3.73276e-12,9.99999e-01,3.73276e-12,9.99999e-01
4.441680220e-01,6.27713e-12,9.99999e-01,6.27713e-12,9.99999e-01
4.463888621e-01,1.04480e-11,9.99999e-01,1.04480e-11,9.99999e-01
4.486208064e-01,1.72161e-11,9.99999e-01,1.72161e-11,9.99999e-01
4.508639105e-01,2.80900e-11,9.99999e-01,2.80900e-11,9.99999e-01
4.531182300e-01,4.53909e-11,9.99999e-01,4.53909e-11,9.99999e-01
4.553838212e-01,7.26556e-11,9.99999e-01,7.26556e-11,9.99999e-01
4.576607403e-01,1.15222e-10,9.99999e-01,1.15222e-10,9.99999e-01
4.599490440e-01,1.81069e-10,9.99999e-01,1.81069e-10,9.99999e-01
4.622487892e-01,2.82017e-10,9.99999e-01,2.82017e-10,9.99999e-01
4.645600332e-01,4.35418e-10,9.99999e-01,4.35418e-10,9.99999e-01
4.668828333e-01,6.66516e-10,9.99999e-01,6.66516e-10,9.99999e-01
4.692172475e-01,1.01173e-09,9.99999e-01,1.01173e-09,9.99999e-01
4.715633337e-01,1.52312e-09,9.99999e-01,1.52312e-09,9.99999e-01
4.739211504e-01,2.27456e-09,9.99999e-01,2.27456e-09,9.99999e-01
4.762907561e-01,3.36993e-09,9.99999e-01,3.36993e-09,9.99999e-01
4.786722099e-01,4.95418e-09,9.99999e-01,4.95418e-09,9.99999e-01
4.810655710e-01,7.22797e-09,9.99999e-01,7.22797e-09,9.99999e-01
4.834708988e-01,1.04670e-08,9.99999e-01,1.04670e-08,9.99999e-01
4.858882533e-01,1.50470e-08,9.99999e-01,1.50470e-08,9.99999e-01
4.883176946e-01,2.14765e-08,9.99999e-01,2.14765e-08,9.99999e-01
4.907592831e-01,3.04387e-08,9.99999e-01,3.04387e-08,9.99999e-01
4.932130795e-01,4.28448e-08,9.99999e-01,4.28448e-08,9.99999e-01
4.956791449e-01,5.99013e-08,9.99999e-01,5.99013e-08,9.99999e-01
4.981575406e-01,8.31954e-08,9.99999e-01,8.31954e-08,9.99999e-01
5.006483283e-01,1.14801e-07,9.99999e-01,1.14801e-07,9.99999e-01
5.031515699e-01,1.57409e-07,9.99999e-01,1.57409e-07,9.99999e-01
5.056673278e-01,2.14488e-07,9.99999e-01,2.14488e-07,9.99999e-01
5.081956644e-01,2.90486e-07,9.99999e-01,2.90486e-07,9.99999e-01
5.107366428e-01,3.91061e-07,9.99999e-01,3.91061e-07,9.99999e-01
5.132903260e-01,5.23376e-07,9.99999e-01,5.23376e-07,9.99999e-01
5.158567776e-01,6.96438e-07,9.99999e-01,6.96438e-07,9.99999e-01
5.184360615e-01,9.21512e-07,9.99999e-01,9.21512e-07,9.99999e-01
5.210282418e-01,1.21260e-06,9.99999e-01,1.21260e-06,9.99999e-01
5.236333830e-01,1.58700e-06,9.99999e-01,1.58700e-06,9.99999e-01
5.262515499e-01,2.06600e-06,9.99999e-01,2.06600e-06,9.99999e-01
5.288828077e-01,2.67560e-06,9.99999e-01,2.67560e-06,9.99999e-01
5.315272217e-01,3.44742e-06,9.99999e-01,3.44742e-06,9.99999e-01
5.341848578e-01,4.41969e-06,9.99999e-01,4.41969e-06,9.99999e-01
5.368557821e-01,5.63843e-06,9.99999e-01,5.63843e-06,9.99999e-01
5.395400610e-01,7.15873e-06,9.99999e-01,7.15873e-06,9.99999e-01
5.422377613e-01,9.04619e-06,9.99999e-01,9.04619e-06,9.99999e-01
5.449489501e-01,1.13786e-05,9.99999e-01,1.13786e-05,9.99999e-01
5.476736949e-01,1.42476e-05,9.99999e-01,1.42476e-05,9.99999e-01
5.504120634e-01,1.77610e-05,9.99999e-01,1.77610e-05,9.99999e-01
5.531641237e-01,2.20446e-05,9.99999e-01,2.20446e-05,9.99999e-01
5.559299443e-01,2.72448e-05,9.99999e-01,2.72448e-05,9.99999e-01
5.587095940e-01,3.35312e-05,9.99999e-01,3.35312e-05,9.99999e-01
5.615031420e-01,4.10991e-05,9.99999e-01,4.10991e-05,9.99999e-01
5.643106577e-01,5.01730e-05,9.99999e-01,5.01730e-05,9.99999e-01
5.671322110e-01,6.10093e-05,9.99999e-01,6.10093e-05,9.99999e-01
5.699678720e-01,7.39001e-05,9.99999e-01,7.39001e-05,9.99999e-01
5.728177114e-01,8.91763e-05,9.99999e-01,8.91763e-05,9.99999e-01
5.756818000e-01,1.07212e-04,9.99999e-01,1.07212e-04,9.99999e-01
5.785602090e-01,1.28427e-04,9.99999e-01,1.28427e-04,9.99999e-01
5.814530100e-01,1.53292e-04,9.99999e-01,1.53292e-04,9.99999e-01
5.843602750e-01,1.82332e-04,9.99999e-01,1.82332e-04,9.99999e-01
5.872820764e-01,2.16133e-04,9.99999e-01,2.16133e-04,9.99999e-01
5.902184868e-01,2.55340e-04,9.99999e-01,2.55340e-04,9.99999e-01
5.931695792e-01,3.00668e-04,9.99999e-01,3.00668e-04,9.99999e-01
5.961354271e-01,3.52902e-04,9.99999e-01,3.52902e-04,9.99999e-01
5.991161043e-01,4.12902e-04,9.99999e-01,4.12902e-04,9.99999e-01
6.021116848e-01,4.81606e-04,9.99999e-01,4.81606e-04,9.99999e-01
6.051222432e-01,5.60037e-04,9.99999e-01,5.60037e-04,9.99999e-01
6.081478544e-01,6.49304e-04,9.99999e-01,6.49304e-04,9.99999e-01
6.111885937e-01,7.50602e-04,9.99999e-01,7.50602e-04,9.99999e-01
6.142445367e-01,8.65223e-04,9.99999e-01,8.65223e-04,9.99999e-01
6.173157594e-01,9.94552e-04,9.99999e-01,9.94552e-04,9.99999e-01
6.204023382e-01,1.14007e-03,9.99999e-01,1.14007e-03,9.99999e-01
6.235043498e-01,1.30336e-03,9.99999e-01,1.30336e-03,9.99999e-01
6.266218716e-01,1.48610e-03,9.99999e-01,1.48610e-03,9.99999e-01
6.297549810e-01,1.69008e-03,9.99999e-01,1.69008e-03,9.99999e-01
6.329037559e-01,1.91718e-03,9.99999e-01,1.91718e-03,9.99999e-01
6.360682746e-01,2.16939e-03,9.99999e-01,2.16939e-03,9.99999e-01
6.392486160e-01,2.44879e-03,9.99999e-01,2.44879e-03,9.99999e-01
6.424448591e-01,2.75757e-03,9.99999e-01,2.75757e-03,9.99999e-01
6.456570834e-01,3.09801e-03,9.99999e-01,3.09801e-03,9.99999e-01
6.488853688e-01,3.47248e-03,9.99999e-01,3.47248e-03,9.99999e-01
6.521297956e-01,3.88346e-03,9.99999e-01,3.88346e-03,9.99999e-01
6.553904446e-01,4.33349e-03,9.99999e-01,4.33349e-03,9.99999e-01
6.586673968e-01,4.82520e-03,9.99999e-01,4.82520e-03,9.99999e-01
6.619607338e-01,5.36132e-03,9.99999e-01,5.36132e-03,9.99999e-01
6.652705375e-01,5.94462e-03,9.99999e-01,5.94462e-03,9.99999e-01
6.685968902e-01,6.57796e-03,9.99999e-01,6.57796e-03,9.99999e-01
6.719398746e-01,7.26422e-03,9.99999e-01,7.26422e-03,9.99999e-01
6.752995740e-01,8.00637e-03,9.99999e-01,8.00637e-03,9.99999e-01
6.786760719e-01,8.80741e-03,9.99999e-01,8.80741e-03,9.99999e-01
6.820694522e-01,9.67036e-03,9.99999e-01,9.67036e-03,9.99999e-01
6.854797995e-01,1.05983e-02,9.99999e-01,1.05983e-02,9.99999e-01
6.889071985e-01,1.15942e-02,9.99999e-01,1.15942e-02,9.99999e-01
6.923517345e-01,1.26613e-02,9.99999e-01,1.26613e-02,9.99999e-01
6.958134932e-01,1.38025e-02,9.99999e-01,1.38025e-02,9.99999e-01
6.992925606e-01,1.50210e-02,9.99999e-01,1.50210e-02,9.99999e-01
7.027890234e-01,1.63197e-02,9.99999e-01,1.63197e-02,9.99999e-01
7.063029686e-01,1.77018e-02,9.99999e-01,1.77018e-02,9.99999e-01
7.098344834e-01,1.91700e-02,9.99999e-01,1.91700e-02,9.99999e-01
7.133836558e-01,2.07274e-02,9.99999e-01,2.07274e-02,9.99999e-01
7.169505741e-01,2.23768e-02,9.99999e-01,2.23768e-02,9.99999e-01
7.205353270e-01,2.41209e-02,9.99999e-01,2.41209e-02,9.99999e-01
7.241380036e-01,2.59624e-02,9.99999e-01,2.59624e-02,9.99999e-01
7.277586936e-01,2.79039e-02,9.99999e-01,2.79039e-02,9.99999e-01
7.313974871e-01,2.99480e-02,9.99999e-01,2.99480e-02,9.99999e-01
7.350544745e-01,3.20969e-02,9.99999e-01,3.20969e-02,9.99999e-01
7.387297469e-01,3.43530e-02,9.99999e-01,3.43530e-02,9.99999e-01
7.424233956e-01,3.67183e-02,9.99999e-01,3.67183e-02,9.99999e-01
7.461355126e-01,3.91949e-02,9.99999e-01,3.91949e-02,9.99999e-01
7.498661902e-01,4.17846e-02,9.99999e-01,4.17846e-02,9.99999e-01
7.536155211e-01,4.44892e-02,9.99999e-01,4.44892e-02,9.99999e-01
7.573835987e-01,4.73103e-02,9.99999e-01,4.73103e-02,9.99999e-01
7.611705167e-01,5.02491e-02,9.99999e-01,5.02491e-02,9.99999e-01
7.649763693e-01,5.33070e-02,9.99999e-01,5.33070e-02,9.99999e-01
7.688012511e-01,5.64850e-02,9.99999e-01,5.64850e-02,9.99999e-01
7.726452574e-01,5.97841e-02,9.99999e-01,5.97841e-02,9.99999e-01
7.765084837e-01,6.32050e-02,9.99999e-01,6.32050e-02,9.99999e-01
7.803910261e-01,6.02635e-02,9.02848e-01,6.67482e-02,9.99999e-01
7.842929812e-01,4.12570e-02,5.85919e-01,7.04141e-02,9.99999e-01
7.882144461e-01,4.24045e-02,5.71465e-01,7.42029e-02,9.99999e-01
7.921555184e-01,5.51150e-02,7.05563e-01,7.81148e-02,9.99999e-01
7.961162960e-01,6.47424e-02,7.88105e-01,8.21494e-02,9.99999e-01
8.000968774e-01,7.58436e-02,8.78770e-01,8.63065e-02,9.99999e-01
8.040973618e-01,8.46883e-02,9.34897e-01,9.05856e-02,9.99999e-01
8.081178486e-01,9.21009e-02,9.69624e-01,9.49861e-02,9.99999e-01
8.121584379e-01,9.85578e-02,9.90460e-01,9.95070e-02,9.99999e-01
8.162192301e-01,1.03927e-01,9.97884e-01,1.04147e-01,9.99999e-01
8.203003262e-01,1.08902e-01,9.99965e-01,1.08906e-01,9.99999e-01
8.244018279e-01,1.13782e-01,9.99999e-01,1.13782e-01,9.99999e-01
8.285238370e-01,1.18773e-01,9.99999e-01,1.18773e-01,9.99999e-01
8.326664562e-01,1.23878e-01,9.99999e-01,1.23878e-01,9.99999e-01
8.368297885e-01,1.29095e-01,9.99999e-01,1.29095e-01,9.99999e-01
8.410139374e-01,1.34422e-01,9.99999e-01,1.34422e-01,9.99999e-01
8.452190071e-01,1.39858e-01,9.99999e-01,1.39858e-01,9.99999e-01
8.494451021e-01,1.45399e-01,9.99999e-01,1.45399e-01,9.99999e-01
8.536923276e-01,1.51044e-01,9.99999e-01,1.51044e-01,9.99999e-01
8.579607893e-01,1.56790e-01,9.99999e-01,1.56790e-01,9.99999e-01
8.622505932e-01,1.62634e-01,9.99999e-01,1.62634e-01,9.99999e-01
8.665618462e-01,1.45225e-01,8.61484e-01,1.68575e-01,9.99999e-01
8.708946554e-01,4.76508e-02,2.72900e-01,1.74609e-01,9.99999e-01
8.752491287e-01,6.03853e-02,3.34113e-01,1.80733e-01,9.99999e-01
8.796253743e-01,1.00502e-01,5.37604e-01,1.86944e-01,9.99999e-01
8.840235012e-01,1.39008e-01,7.19353e-01,1.93240e-01,9.99999e-01
8.884436187e-01,1.75041e-01,8.76880e-01,1.99618e-01,9.99999e-01
8.928858368e-01,1.95376e-01,9.48090e-01,2.06073e-01,9.99999e-01
8.973502660e-01,2.09855e-01,9.87069e-01,2.12604e-01,9.99999e-01
9.018370173e-01,2.18892e-01,9.98564e-01,2.19206e-01,9.99999e-01
9.063462024e-01,2.18084e-01,9.65497e-01,2.25878e-01,9.99999e-01
9.108779334e-01,2.13921e-01,9.19641e-01,2.32614e-01,9.99999e-01
9.154323231e-01,2.34714e-01,9.80376e-01,2.39412e-01,9.99999e-01
9.200094847e-01,1.94212e-01,7.88616e-01,2.46269e-01,9.99999e-01
9.246095321e-01,1.68635e-01,6.66063e-01,2.53181e-01,9.99999e-01
9.292325798e-01,1.90949e-01,7.34012e-01,2.60144e-01,9.99999e-01
9.338787427e-01,1.96865e-01,7.36889e-01,2.67156e-01,9.99999e-01
9.385481364e-01,2.18584e-01,7.97131e-01,2.74213e-01,9.99999e-01
9.432408771e-01,2.44518e-01,8.69207e-01,2.81311e-01,9.99999e-01
9.479570815e-01,2.68447e-01,9.30658e-01,2.88448e-01,9.99999e-01
9.526968669e-01,2.85550e-01,9.65939e-01,2.95619e-01,9.99999e-01
9.574603512e-01,2.98360e-01,9.85265e-01,3.02821e-01,9.99999e-01
9.622476530e-01,3.08618e-01,9.95376e-01,3.10052e-01,9.99999e-01
9.670588912e-01,3.16866e-01,9.98610e-01,3.17307e-01,9.99999e-01
9.718941857e-01,3.24552e-01,9.99900e-01,3.24584e-01,9.99999e-01
9.767536566e-01,3.31879e-01,9.99999e-01,3.31879e-01,9.99999e-01
9.816374249e-01,3.39189e-01,9.99999e-01,3.39189e-01,9.99999e-01
9.865456120e-01,3.46510e-01,9.99999e-01,3.46510e-01,9.99999e-01
9.914783401e-01,3.53841e-01,9.99999e-01,3.53841e-01,9.99999e-01
9.964357318e-01,3.61177e-01,9.99999e-01,3.61177e-01,9.99999e-01
1.001417910e+00,3.68516e-01,9.99999e-01,3.68516e-01,9.99999e-01
1.006425000e+00,3.75855e-01,9.99999e-01,3.75855e-01,9.99999e-01
1.011457125e+00,3.83190e-01,9.99999e-01,3.83190e-01,9.99999e-01
1.016514411e+00,3.90520e-01,9.99999e-01,3.90520e-01,9.99999e-01
1.021596983e+00,3.97770e-01,9.99822e-01,3.97840e-01,9.99999e-01
1.026704968e+00,3.99561e-01,9.86204e-01,4.05150e-01,9.99999e-01
1.031838492e+00,3.69724e-01,8.96418e-01,4.12445e-01,9.99999e-01
1.036997685e+00,1.74216e-02,4.15073e-02,4.19724e-01,9.99999e-01
1.042182673e+00,6.20397e-04,1.45298e-03,4.26983e-01,9.99999e-01
1.047393587e+00,1.80342e-03,4.15323e-03,4.34221e-01,9.99999e-01
1.052630555e+00,4.79043e-08,1.08519e-07,4.41436e-01,9.99999e-01
1.057893707e+00,1.77712e-07,3.96127e-07,4.48624e-01,9.99999e-01
1.063183176e+00,9.10735e-06,1.99817e-05,4.55783e-01,9.99999e-01
1.068499092e+00,1.22249e-04,2.64087e-04,4.62912e-01,9.99999e-01
1.073841587e+00,2.23027e-03,4.74516e-03,4.70009e-01,9.99999e-01
1.079210795e+00,1.68114e-02,3.52389e-02,4.77071e-01,9.99999e-01
1.084606849e+00,7.11662e-02,1.47008e-01,4.84096e-01,9.99999e-01
1.090029883e+00,1.79518e-01,3.65556e-01,4.91083e-01,9.99999e-01
1.095480033e+00,3.02371e-01,6.07135e-01,4.98030e-01,9.99999e-01
1.100957433e+00,3.96354e-01,7.84960e-01,5.04935e-01,9.99999e-01
1.106462220e+00,4.62889e-01,9.04439e-01,5.11796e-01,9.99999e-01
1.111994531e+00,4.99628e-01,9.63393e-01,5.18613e-01,9.99999e-01
1.117554504e+00,5.20605e-01,9.90906e-01,5.25382e-01,9.99999e-01
1.123142276e+00,5.31784e-01,9.99397e-01,5.32104e-01,9.99999e-01
1.128757988e+00,5.38777e-01,9.99999e-01,5.38777e-01,9.99999e-01
1.134401778e+00,5.45399e-01,9.99999e-01,5.45399e-01,9.99999e-01
1.140073787e+00,5.51969e-01,9.99999e-01,5.51969e-01,9.99999e-01
1.145774156e+00,5.58487e-01,9.99999e-01,5.58487e-01,9.99999e-01
1.151503026e+00,5.64950e-01,9.99999e-01,5.64950e-01,9.99999e-01
1.157260541e+00,5.71358e-01,9.99999e-01,5.71358e-01,9.99999e-01
1.163046844e+00,5.77710e-01,9.99999e-01,5.77710e-01,9.99999e-01
1.168862078e+00,5.84005e-01,9.99999e-01,5.84005e-01,9.99999e-01
1.174706389e+00,5.90243e-01,9.99999e-01,5.90243e-01,9.99999e-01
1.180579921e+00,5.96422e-01,9.99999e-01,5.96422e-01,9.99999e-01
1.186482820e+00,6.02529e-01,9.99979e-01,6.02541e-01,9.99999e-01
1.192415234e+00,5.80485e-01,9.53802e-01,6.08601e-01,9.99999e-01
1.198377311e+00,3.11375e-01,5.06629e-01,6.14600e-01,9.99999e-01
1.204369197e+00,3.04929e-36,4.91394e-36,6.20538e-01,9.99999e-01
1.210391043e+00,2.66812e-148,4.25936e-148,6.26414e-01,9.99999e-01
1.216442998e+00,2.91444e-128,4.60978e-128,6.32228e-01,9.99999e-01
1.222525213e+00,2.49471e-126,3.91032e-126,6.37980e-01,9.99999e-01
1.228637839e+00,2.38287e-97,3.70201e-97,6.43669e-01,9.99999e-01
1.234781029e+00,2.31093e-60,3.55914e-60,6.49295e-01,9.99999e-01
1.240954934e+00,6.43768e-40,9.83064e-40,6.54858e-01,9.99999e-01
1.247159708e+00,6.02872e-19,9.12948e-19,6.60356e-01,9.99999e-01
1.253395507e+00,6.43343e-13,9.66282e-13,6.65792e-01,9.99999e-01
1.259662485e+00,1.29552e-07,1.93026e-07,6.71163e-01,9.99999e-01
1.265960797e+00,1.47305e-04,2.17755e-04,6.76470e-01,9.99999e-01
1.272290601e+00,9.22577e-03,1.35332e-02,6.81713e-01,9.99999e-01
1.278652054e+00,1.18918e-02,1.73125e-02,6.86891e-01,9.99999e-01
1.285045314e+00,5.73419e-06,8.28632e-06,6.92006e-01,9.99999e-01
1.291470541e+00,3.31154e-17,4.75075e-17,6.97057e-01,9.99999e-01
1.297927893e+00,3.13306e-07,4.46277e-07,7.02044e-01,9.99999e-01
1.304417533e+00,4.13609e-04,5.85048e-04,7.06966e-01,9.99999e-01
1.310939621e+00,1.17318e-04,1.64813e-04,7.11825e-01,9.99999e-01
1.317494319e+00,4.16344e-50,5.80981e-50,7.16621e-01,9.99999e-01
1.324081790e+00,1.04799e-32,1.45280e-32,7.21353e-01,9.99999e-01
1.330702199e+00,1.82482e-19,2.51344e-19,7.26022e-01,9.99999e-01
1.337355710e+00,1.07359e-17,1.46940e-17,7.30628e-01,9.99999e-01
1.344042489e+00,6.36356e-18,8.65587e-18,7.35171e-01,9.99999e-01
1.350762701e+00,8.54844e-20,1.15574e-19,7.39653e-01,9.99999e-01
1.357516515e+00,6.83121e-12,9.18084e-12,7.44072e-01,9.99999e-01
1.364304097e+00,8.12839e-09,1.08606e-08,7.48429e-01,9.99999e-01
1.371125618e+00,6.73809e-05,8.95158e-05,7.52725e-01,9.99999e-01
1.377981246e+00,2.27687e-04,3.00791e-04,7.56961e-01,9.99999e-01
1.384871152e+00,6.62811e-03,8.70817e-03,7.61135e-01,9.99999e-01
1.391795508e+00,9.76021e-03,1.27543e-02,7.65250e-01,9.99999e-01
1.398754485e+00,4.80725e-02,6.24881e-02,7.69305e-01,9.99999e-01
1.405748258e+00,1.03262e-01,1.33534e-01,7.73300e-01,9.99999e-01
1.412776999e+00,2.14727e-01,2.76269e-01,7.77237e-01,9.99999e-01
1.419840884e+00,2.11451e-01,2.70703e-01,7.81116e-01,9.99999e-01
1.426940089e+00,6.65297e-03,8.47579e-03,7.84937e-01,9.99999e-01
1.434074789e+00,0.00000e+00,0.00000e+00,7.88700e-01,9.99999e-01
1.441245163e+00,0.00000e+00,0.00000e+00,7.92407e-01,9.99999e-01
1.448451389e+00,0.00000e+00,0.00000e+00,7.96057e-01,9.99999e-01
1.455693646e+00,0.00000e+00,0.00000e+00,7.99651e-01,9.99999e-01
1.462972114e+00,0.00000e+00,0.00000e+00,8.03191e-01,9.99999e-01
1.470286975e+00,3.73174e-246,4.62607e-246,8.06675e-01,9.99999e-01
1.477638409e+00,3.30960e-154,4.08539e-154,8.10106e-01,9.99999e-01
1.485026601e+00,2.78784e-85,3.42704e-85,8.13482e-01,9.99999e-01
1.492451734e+00,1.48885e-72,1.82277e-72,8.16806e-01,9.99999e-01
1.499913993e+00,1.01174e-30,1.23371e-30,8.20077e-01,9.99999e-01
1.507413563e+00,1.87973e-29,2.28317e-29,8.23297e-01,9.99999e-01
1.514950631e+00,4.15470e-31,5.02707e-31,8.26465e-01,9.99999e-01
1.522525384e+00,3.16035e-109,3.80957e-109,8.29582e-01,9.99999e-01
1.530138011e+00,8.19372e-263,9.84053e-263,8.32649e-01,9.99999e-01
1.537788701e+00,4.82807e-194,5.77750e-194,8.35667e-01,9.99999e-01
1.545477645e+00,7.14056e-40,8.51449e-40,8.38635e-01,9.99999e-01
1.553205033e+00,3.21619e-29,3.82171e-29,8.41556e-01,9.99999e-01
1.560971058e+00,2.52912e-29,2.99506e-29,8.44428e-01,9.99999e-01
1.568775913e+00,0.00000e+00,0.00000e+00,8.47253e-01,9.99999e-01
1.576619793e+00,0.00000e+00,0.00000e+00,8.50032e-01,9.99999e-01
1.584502892e+00,0.00000e+00,0.00000e+00,8.52764e-01,9.99999e-01
1.592425406e+00,0.00000e+00,0.00000e+00,8.55451e-01,9.99999e-01
1.600387533e+00,0.00000e+00,0.00000e+00,8.58093e-01,9.99999e-01
1.608389471e+00,0.00000e+00,0.00000e+00,8.60691e-01,9.99999e-01
1.616431418e+00,0.00000e+00,0.00000e+00,8.63245e-01,9.99999e-01
1.624513575e+00,0.00000e+00,0.00000e+00,8.65757e-01,9.99999e-01
1.632636143e+00,0.00000e+00,0.00000e+00,8.68225e-01,9.99999e-01
1.640799324e+00,5.92204e-228,6.80184e-228,8.70652e-01,9.99999e-01
1.649003321e+00,5.93391e-228,6.79685e-228,8.73037e-01,9.99999e-01
1.657248337e+00,7.64038e-176,8.72804e-176,8.75382e-01,9.99999e-01
1.665534579e+00,4.98336e-177,5.67783e-177,8.77686e-01,9.99999e-01
1.673862252e+00,2.30711e-112,2.62185e-112,8.79951e-01,9.99999e-01
1.682231563e+00,2.29565e-77,2.60225e-77,8.82176e-01,9.99999e-01
1.690642721e+00,2.38032e-42,2.69156e-42,8.84364e-01,9.99999e-01
1.699095934e+00,9.45358e-27,1.06638e-26,8.86513e-01,9.99999e-01
1.707591414e+00,3.00465e-13,3.38123e-13,8.88625e-01,9.99999e-01
1.716129371e+00,3.92103e-08,4.40218e-08,8.90700e-01,9.99999e-01
1.724710018e+00,4.60811e-05,5.16177e-05,8.92738e-01,9.99999e-01
1.733333568e+00,1.12465e-03,1.25696e-03,8.94741e-01,9.99999e-01
1.742000236e+00,1.85017e-02,2.06329e-02,8.96709e-01,9.99999e-01
1.750710237e+00,2.03406e-05,2.26348e-05,8.98642e-01,9.99999e-01
1.759463788e+00,3.06864e-107,3.40755e-107,9.00541e-01,9.99999e-01
1.768261107e+00,2.80727e-112,3.11087e-112,9.02407e-01,9.99999e-01
1.777102413e+00,1.69334e-109,1.87266e-109,9.04239e-01,9.99999e-01
1.785987925e+00,2.55978e-102,2.82524e-102,9.06039e-01,9.99999e-01
1.794917864e+00,1.17865e-97,1.29834e-97,9.07806e-01,9.99999e-01
1.803892454e+00,8.73383e-94,9.60243e-94,9.09542e-01,9.99999e-01
1.812911916e+00,4.35817e-90,4.78264e-90,9.11247e-01,9.99999e-01
1.821976476e+00,3.67175e-90,4.02197e-90,9.12922e-01,9.99999e-01
1.831086358e+00,4.16597e-72,4.55513e-72,9.14566e-01,9.99999e-01
1.840241790e+00,2.66605e-61,2.90996e-61,9.16181e-01,9.99999e-01
1.849442999e+00,1.85468e-42,2.02086e-42,9.17766e-01,9.99999e-01
1.858690214e+00,4.91703e-40,5.34852e-40,9.19323e-01,9.99999e-01
1.867983665e+00,1.53016e-40,1.66167e-40,9.20852e-01,9.99999e-01
1.877323583e+00,2.70082e-206,2.92819e-206,9.22353e-01,9.99999e-01
