#,Wave/freq,Total,CO2,Rayleigh,CIA
4.000000000e-01,2.30801e-02,9.99999e-01,2.30801e-02,9.99999e-01
4.020000000e-01,2.48657e-02,9.99999e-01,2.48657e-02,9.99999e-01
4.040100000e-01,2.67480e-02,9.99999e-01,2.67480e-02,9.99999e-01
4.060300500e-01,2.87313e-02,9.99999e-01,2.87313e-02,9.99999e-01
4.080602003e-01,3.08182e-02,9.99999e-01,3.08182e-02,9.99999e-01
4.101005013e-01,3.30109e-02,9.99999e-01,3.30109e-02,9.99999e-01
4.121510038e-01,3.53116e-02,9.99999e-01,3.53116e-02,9.99999e-01
4.142117588e-01,3.77224e-02,9.99999e-01,3.77224e-02,9.99999e-01
4.162828176e-01,4.02453e-02,9.99999e-01,4.02453e-02,9.99999e-01
4.183642317e-01,4.28820e-02,9.99999e-01,4.28820e-02,9.99999e-01
4.204560528e-01,4.56343e-02,9.99999e-01,4.56343e-02,9.99999e-01
4.225583331e-01,4.85036e-02,9.99999e-01,4.85036e-02,9.99999e-01
4.246711247e-01,5.14912e-02,9.99999e-01,5.14912e-02,9.99999e-01
4.267944804e-01,5.45983e-02,9.99999e-01,5.45983e-02,9.99999e-01
4.289284528e-01,5.78260e-02,9.99999e-01,5.78260e-02,9.99999e-01
4.310730950e-01,6.11750e-02,9.99999e-01,6.11750e-02,9.99999e-01
4.332284605e-01,6.46461e-02,9.99999e-01,6.46461e-02,9.99999e-01
4.353946028e-01,6.82397e-02,9.99999e-01,6.82397e-02,9.99999e-01
4.375715758e-01,7.19561e-02,9.99999e-01,7.19561e-02,9.99999e-01
4.397594337e-01,7.57955e-02,9.99999e-01,7.57955e-02,9.99999e-01
4.419582309e-01,7.97578e-02,9.99999e-01,7.97578e-02,9.99999e-01
4.441680220e-01,8.38428e-02,9.99999e-01,8.38428e-02,9.99999e-01
4.463888621e-01,8.80502e-02,9.99999e-01,8.80502e-02,9.99999e-01
4.486208064e-01,9.23792e-02,9.99999e-01,9.23792e-02,9.99999e-01
4.508639105e-01,9.68293e-02,9.99999e-01,9.68293e-02,9.99999e-01
4.531182300e-01,1.01399e-01,9.99999e-01,1.01399e-01,9.99999e-01
4.553838212e-01,1.06089e-01,9.99999e-01,1.06089e-01,9.99999e-01
4.576607403e-01,1.10896e-01,9.99999e-01,1.10896e-01,9.99999e-01
4.599490440e-01,1.15819e-01,9.99999e-01,1.15819e-01,9.99999e-01
4.622487892e-01,1.20857e-01,9.99999e-01,1.20857e-01,9.99999e-01
4.645600332e-01,1.26008e-01,9.99999e-01,1.26008e-01,9.99999e-01
4.668828333e-01,1.31271e-01,9.99999e-01,1.31271e-01,9.99999e-01
4.692172475e-01,1.36643e-01,9.99999e-01,1.36643e-01,9.99999e-01
4.715633337e-01,1.42122e-01,9.99999e-01,1.42122e-01,9.99999e-01
4.739211504e-01,1.47706e-01,9.99999e-01,1.47706e-01,9.99999e-01
4.762907561e-01,1.53393e-01,9.99999e-01,1.53393e-01,9.99999e-01
4.786722099e-01,1.59180e-01,9.99999e-01,1.59180e-01,9.99999e-01
4.810655710e-01,1.65064e-01,9.99999e-01,1.65064e-01,9.99999e-01
4.834708988e-01,1.71043e-01,9.99999e-01,1.71043e-01,9.99999e-01
4.858882533e-01,1.77114e-01,9.99999e-01,1.77114e-01,9.99999e-01
4.883176946e-01,1.83275e-01,9.99999e-01,1.83275e-01,9.99999e-01
4.907592831e-01,1.89521e-01,9.99999e-01,1.89521e-01,9.99999e-01
4.932130795e-01,1.95851e-01,9.99999e-01,1.95851e-01,9.99999e-01
4.956791449e-01,2.02261e-01,9.99999e-01,2.02261e-01,9.99999e-01
4.981575406e-01,2.08748e-01,9.99999e-01,2.08748e-01,9.99999e-01
5.006483283e-01,2.15309e-01,9.99999e-01,2.15309e-01,9.99999e-01
5.031515699e-01,2.21940e-01,9.99999e-01,2.21940e-01,9.99999e-01
5.056673278e-01,2.28638e-01,9.99999e-01,2.28638e-01,9.99999e-01
5.081956644e-01,2.35400e-01,9.99999e-01,2.35400e-01,9.99999e-01
5.107366428e-01,2.42223e-01,9.99999e-01,2.42223e-01,9.99999e-01
5.132903260e-01,2.49103e-01,9.99999e-01,2.49103e-01,9.99999e-01
5.158567776e-01,2.56036e-01,9.99999e-01,2.56036e-01,9.99999e-01
5.184360615e-01,2.63020e-01,9.99999e-01,2.63020e-01,9.99999e-01
5.210282418e-01,2.70051e-01,9.99999e-01,2.70051e-01,9.99999e-01
5.236333830e-01,2.77125e-01,9.99999e-01,2.77125e-01,9.99999e-01
5.262515499e-01,2.84240e-01,9.99999e-01,2.84240e-01,9.99999e-01
5.288828077e-01,2.91391e-01,9.99999e-01,2.91391e-01,9.99999e-01
5.315272217e-01,2.98575e-01,9.99999e-01,2.98575e-01,9.99999e-01
5.341848578e-01,3.05789e-01,9.99999e-01,3.05789e-01,9.99999e-01
5.368557821e-01,3.13030e-01,9.99999e-01,3.13030e-01,9.99999e-01
5.395400610e-01,3.20295e-01,9.99999e-01,3.20295e-01,9.99999e-01
5.422377613e-01,3.27579e-01,9.99999e-01,3.27579e-01,9.99999e-01
5.449489501e-01,3.34881e-01,9.99999e-01,3.34881e-01,9.99999e-01
5.476736949e-01,3.42196e-01,9.99999e-01,3.42196e-01,9.99999e-01
5.504120634e-01,3.49522e-01,9.99999e-01,3.49522e-01,9.99999e-01
5.531641237e-01,3.56855e-01,9.99999e-01,3.56855e-01,9.99999e-01
5.559299443e-01,3.64193e-01,9.99999e-01,3.64193e-01,9.99999e-01
5.587095940e-01,3.71532e-01,9.99999e-01,3.71532e-01,9.99999e-01
5.615031420e-01,3.78869e-01,9.99999e-01,3.78869e-01,9.99999e-01
5.643106577e-01,3.86203e-01,9.99999e-01,3.86203e-01,9.99999e-01
5.671322110e-01,3.93529e-01,9.99999e-01,3.93529e-01,9.99999e-01
5.699678720e-01,4.00845e-01,9.99999e-01,4.00845e-01,9.99999e-01
5.728177114e-01,4.08149e-01,9.99999e-01,4.08149e-01,9.99999e-01
5.756818000e-01,4.15438e-01,9.99999e-01,4.15438e-01,9.99999e-01
5.785602090e-01,4.22709e-01,9.99999e-01,4.22709e-01,9.99999e-01
5.814530100e-01,4.29960e-01,9.99999e-01,4.29960e-01,9.99999e-01
5.843602750e-01,4.37189e-01,9.99999e-01,4.37189e-01,9.99999e-01
5.872820764e-01,4.44393e-01,9.99999e-01,4.44393e-01,9.99999e-01
5.902184868e-01,4.51569e-01,9.99999e-01,4.51569e-01,9.99999e-01
5.931695792e-01,4.58716e-01,9.99999e-01,4.58716e-01,9.99999e-01
5.961354271e-01,4.65832e-01,9.99999e-01,4.65832e-01,9.99999e-01
5.991161043e-01,4.72915e-01,9.99999e-01,4.72915e-01,9.99999e-01
6.021116848e-01,4.79962e-01,9.99999e-01,4.79962e-01,9.99999e-01
6.051222432e-01,4.86972e-01,9.99999e-01,4.86972e-01,9.99999e-01
6.081478544e-01,4.93942e-01,9.99999e-01,4.93942e-01,9.99999e-01
6.111885937e-01,5.00872e-01,9.99999e-01,5.00872e-01,9.99999e-01
6.142445367e-01,5.07759e-01,9.99999e-01,5.07759e-01,9.99999e-01
6.173157594e-01,5.14603e-01,9.99999e-01,5.14603e-01,9.99999e-01
6.204023382e-01,5.21400e-01,9.99999e-01,5.21400e-01,9.99999e-01
6.235043498e-01,5.28151e-01,9.99999e-01,5.28151e-01,9.99999e-01
6.266218716e-01,5.34852e-01,9.99999e-01,5.34852e-01,9.99999e-01
6.297549810e-01,5.41504e-01,9.99999e-01,5.41504e-01,9.99999e-01
6.329037559e-01,5.48105e-01,9.99999e-01,5.48105e-01,9.99999e-01
6.360682746e-01,5.54654e-01,9.99999e-01,5.54654e-01,9.99999e-01
6.392486160e-01,5.61149e-01,9.99999e-01,5.61149e-01,9.99999e-01
6.424448591e-01,5.67590e-01,9.99999e-01,5.67590e-01,9.99999e-01
6.456570834e-01,5.73975e-01,9.99999e-01,5.73975e-01,9.99999e-01
6.488853688e-01,5.80304e-01,9.99999e-01,5.80304e-01,9.99999e-01
6.521297956e-01,5.86575e-01,9.99999e-01,5.86575e-01,9.99999e-01
6.553904446e-01,5.92789e-01,9.99999e-01,5.92789e-01,9.99999e-01
6.586673968e-01,5.98943e-01,9.99999e-01,5.98943e-01,9.99999e-01
6.619607338e-01,6.05038e-01,9.99999e-01,6.05038e-01,9.99999e-01
6.652705375e-01,6.11073e-01,9.99999e-01,6.11073e-01,9.99999e-01
6.685968902e-01,6.17047e-01,9.99999e-01,6.17047e-01,9.99999e-01
6.719398746e-01,6.22960e-01,9.99999e-01,6.22960e-01,9.99999e-01
6.752995740e-01,6.28811e-01,9.99999e-01,6.28811e-01,9.99999e-01
6.786760719e-01,6.34600e-01,9.99999e-01,6.34600e-01,9.99999e-01
6.820694522e-01,6.40326e-01,9.99999e-01,6.40326e-01,9.99999e-01
6.854797995e-01,6.45989e-01,9.99999e-01,6.45989e-01,9.99999e-01
6.889071985e-01,6.51589e-01,9.99999e-01,6.51589e-01,9.99999e-01
6.923517345e-01,6.57125e-01,9.99999e-01,6.57125e-01,9.99999e-01
6.958134932e-01,6.62598e-01,9.99999e-01,6.62598e-01,9.99999e-01
6.992925606e-01,6.68006e-01,9.99999e-01,6.68006e-01,9.99999e-01
7.027890234e-01,6.73351e-01,9.99999e-01,6.73351e-01,9.99999e-01
7.063029686e-01,6.78632e-01,9.99999e-01,6.78632e-01,9.99999e-01
7.098344834e-01,6.83848e-01,9.99999e-01,6.83848e-01,9.99999e-01
7.133836558e-01,6.89001e-01,9.99999e-01,6.89001e-01,9.99999e-01
7.169505741e-01,6.94089e-01,9.99999e-01,6.94089e-01,9.99999e-01
7.205353270e-01,6.99114e-01,9.99999e-01,6.99114e-01,9.99999e-01
7.241380036e-01,7.04074e-01,9.99999e-01,7.04074e-01,9.99999e-01
7.277586936e-01,7.08971e-01,9.99999e-01,7.08971e-01,9.99999e-01
7.313974871e-01,7.13804e-01,9.99999e-01,7.13804e-01,9.99999e-01
7.350544745e-01,7.18573e-01,9.99999e-01,7.18573e-01,9.99999e-01
7.387297469e-01,7.23279e-01,9.99999e-01,7.23279e-01,9.99999e-01
7.424233956e-01,7.27922e-01,9.99999e-01,7.27922e-01,9.99999e-01
7.461355126e-01,7.32503e-01,9.99999e-01,7.32503e-01,9.99999e-01
7.498661902e-01,7.37020e-01,9.99999e-01,7.37020e-01,9.99999e-01
7.536155211e-01,7.41476e-01,9.99999e-01,7.41476e-01,9.99999e-01
7.573835987e-01,7.45870e-01,9.99999e-01,7.45870e-01,9.99999e-01
7.611705167e-01,7.50202e-01,9.99999e-01,7.50202e-01,9.99999e-01
7.649763693e-01,7.54473e-01,9.99999e-01,7.54473e-01,9.99999e-01
7.688012511e-01,7.58683e-01,9.99999e-01,7.58683e-01,9.99999e-01
7.726452574e-01,7.62833e-01,9.99999e-01,7.62833e-01,9.99999e-01
7.765084837e-01,7.66923e-01,9.99999e-01,7.66923e-01,9.99999e-01
7.803910261e-01,7.60195e-01,9.86044e-01,7.70954e-01,9.99999e-01
7.842929812e-01,7.32955e-01,9.45839e-01,7.74925e-01,9.99999e-01
7.882144461e-01,7.33126e-01,9.41306e-01,7.78838e-01,9.99999e-01
7.921555184e-01,7.56060e-01,9.65971e-01,7.82693e-01,9.99999e-01
7.961162960e-01,7.68738e-01,9.77428e-01,7.86490e-01,9.99999e-01
8.000968774e-01,7.80488e-01,9.87671e-01,7.90230e-01,9.99999e-01
8.040973618e-01,7.88859e-01,9.93633e-01,7.93913e-01,9.99999e-01
8.081178486e-01,7.95195e-01,9.97058e-01,7.97541e-01,9.99999e-01
8.121584379e-01,8.00395e-01,9.99103e-01,8.01112e-01,9.99999e-01
8.162192301e-01,8.04470e-01,9.99801e-01,8.04629e-01,9.99999e-01
8.203003262e-01,8.08089e-01,9.99996e-01,8.08091e-01,9.99999e-01
8.244018279e-01,8.11500e-01,9.99999e-01,8.11500e-01,9.99999e-01
8.285238370e-01,8.14855e-01,9.99999e-01,8.14855e-01,9.99999e-01
8.326664562e-01,8.18157e-01,9.99999e-01,8.18157e-01,9.99999e-01
8.368297885e-01,8.21407e-01,9.99999e-01,8.21407e-01,9.99999e-01
8.410139374e-01,8.24605e-01,9.99999e-01,8.24605e-01,9.99999e-01
8.452190071e-01,8.27752e-01,9.99999e-01,8.27752e-01,9.99999e-01
8.494451021e-01,8.30849e-01,9.99999e-01,8.30849e-01,9.99999e-01
8.536923276e-01,8.33895e-01,9.99999e-01,8.33895e-01,9.99999e-01
8.579607893e-01,8.36893e-01,9.99999e-01,8.36893e-01,9.99999e-01
8.622505932e-01,8.39841e-01,9.99999e-01,8.39841e-01,9.99999e-01
8.665618462e-01,8.10257e-01,9.61452e-01,8.42742e-01,9.99999e-01
8.708946554e-01,7.31280e-01,8.64811e-01,8.45595e-01,9.99999e-01
8.752491287e-01,7.56630e-01,8.91831e-01,8.48401e-01,9.99999e-01
8.796253743e-01,8.00025e-01,9.39922e-01,8.51160e-01,9.99999e-01
8.840235012e-01,8.27046e-01,9.68580e-01,8.53874e-01,9.99999e-01
8.884436187e-01,8.45911e-01,9.87587e-01,8.56542e-01,9.99999e-01
8.928858368e-01,8.54828e-01,9.94950e-01,8.59166e-01,9.99999e-01
8.973502660e-01,8.60695e-01,9.98780e-01,8.61746e-01,9.99999e-01
9.018370173e-01,8.64167e-01,9.99865e-01,8.64282e-01,9.99999e-01
9.063462024e-01,8.63635e-01,9.96375e-01,8.66776e-01,9.99999e-01
9.108779334e-01,8.62280e-01,9.92007e-01,8.69227e-01,9.99999e-01
9.154323231e-01,8.70024e-01,9.98148e-01,8.71637e-01,9.99999e-01
9.200094847e-01,8.48781e-01,9.71138e-01,8.74005e-01,9.99999e-01
9.246095321e-01,8.42461e-01,9.61347e-01,8.76333e-01,9.99999e-01
9.292325798e-01,8.51323e-01,9.68930e-01,8.78621e-01,9.99999e-01
9.338787427e-01,8.54891e-01,9.70507e-01,8.80870e-01,9.99999e-01
9.385481364e-01,8.63903e-01,9.78284e-01,8.83080e-01,9.99999e-01
9.432408771e-01,8.73493e-01,9.86717e-01,8.85251e-01,9.99999e-01
9.479570815e-01,8.81306e-01,9.93148e-01,8.87385e-01,9.99999e-01
9.526968669e-01,8.86547e-01,9.96699e-01,8.89482e-01,9.99999e-01
9.574603512e-01,8.90285e-01,9.98589e-01,8.91542e-01,9.99999e-01
9.622476530e-01,8.93174e-01,9.99560e-01,8.93566e-01,9.99999e-01
9.670588912e-01,8.95437e-01,9.99868e-01,8.95554e-01,9.99999e-01
9.718941857e-01,8.97500e-01,9.99990e-01,8.97508e-01,9.99999e-01
9.767536566e-01,8.99427e-01,9.99999e-01,8.99427e-01,9.99999e-01
9.816374249e-01,9.01312e-01,9.99999e-01,9.01312e-01,9.99999e-01
9.865456120e-01,9.03164e-01,9.99999e-01,9.03164e-01,9.99999e-01
9.914783401e-01,9.04982e-01,9.99999e-01,9.04982e-01,9.99999e-01
9.964357318e-01,9.06769e-01,9.99999e-01,9.06769e-01,9.99999e-01
1.001417910e+00,9.08523e-01,9.99999e-01,9.08523e-01,9.99999e-01
1.006425000e+00,9.10247e-01,9.99999e-01,9.10247e-01,9.99999e-01
1.011457125e+00,9.11939e-01,9.99999e-01,9.11939e-01,9.99999e-01
1.016514411e+00,9.13601e-01,9.99999e-01,9.13601e-01,9.99999e-01
1.021596983e+00,9.15213e-01,9.99977e-01,9.15233e-01,9.99999e-01
1.026704968e+00,9.15537e-01,9.98583e-01,9.16836e-01,9.99999e-01
1.031838492e+00,8.95774e-01,9.75353e-01,9.18409e-01,9.99999e-01
1.036997685e+00,3.26044e-01,3.54413e-01,9.19955e-01,9.99999e-01
1.042182673e+00,4.08230e-01,4.43019e-01,9.21472e-01,9.99999e-01
1.047393587e+00,3.57592e-01,3.87439e-01,9.22962e-01,9.99999e-01
1.052630555e+00,8.38691e-02,9.07256e-02,9.24424e-01,9.99999e-01
1.057893707e+00,1.45283e-01,1.56916e-01,9.25860e-01,9.99999e-01
1.063183176e+00,2.43700e-01,2.62814e-01,9.27270e-01,9.99999e-01
1.068499092e+00,3.83361e-01,4.12813e-01,9.28654e-01,9.99999e-01
1.073841587e+00,5.34149e-01,5.74345e-01,9.30013e-01,9.99999e-01
1.079210795e+00,6.56628e-01,7.05030e-01,9.31347e-01,9.99999e-01
1.084606849e+00,7.71361e-01,8.27057e-01,9.32656e-01,9.99999e-01
1.090029883e+00,8.46418e-01,9.06285e-01,9.33941e-01,9.99999e-01
1.095480033e+00,8.91096e-01,9.52836e-01,9.35203e-01,9.99999e-01
1.100957433e+00,9.14916e-01,9.77012e-01,9.36441e-01,9.99999e-01
1.106462220e+00,9.28710e-01,9.90457e-01,9.37657e-01,9.99999e-01
1.111994531e+00,9.35520e-01,9.96453e-01,9.38850e-01,9.99999e-01
1.117554504e+00,9.39212e-01,9.99139e-01,9.40021e-01,9.99999e-01
1.123142276e+00,9.41117e-01,9.99943e-01,9.41170e-01,9.99999e-01
1.128757988e+00,9.42298e-01,9.99999e-01,9.42298e-01,9.99999e-01
1.134401778e+00,9.43404e-01,9.99999e-01,9.43404e-01,9.99999e-01
1.140073787e+00,9.44491e-01,9.99999e-01,9.44491e-01,9.99999e-01
1.145774156e+00,9.45557e-01,9.99999e-01,9.45557e-01,9.99999e-01
1.151503026e+00,9.46603e-01,9.99999e-01,9.46603e-01,9.99999e-01
1.157260541e+00,9.47629e-01,9.99999e-01,9.47629e-01,9.99999e-01
1.163046844e+00,9.48637e-01,9.99999e-01,9.48637e-01,9.99999e-01
1.168862078e+00,9.49625e-01,9.99999e-01,9.49625e-01,9.99999e-01
1.174706389e+00,9.50595e-01,9.99999e-01,9.50595e-01,9.99999e-01
1.180579921e+00,9.51547e-01,9.99999e-01,9.51547e-01,9.99999e-01
1.186482820e+00,9.52478e-01,9.99995e-01,9.52481e-01,9.99999e-01
1.192415234e+00,9.48499e-01,9.94861e-01,9.53397e-01,9.99999e-01
1.198377311e+00,5.71505e-01,5.98875e-01,9.54297e-01,9.99999e-01
1.204369197e+00,1.63934e-05,1.71627e-05,9.55179e-01,9.99999e-01
1.210391043e+00,2.70827e-16,2.83279e-16,9.56044e-01,9.99999e-01
1.216442998e+00,2.41397e-14,2.52271e-14,9.56894e-01,9.99999e-01
1.222525213e+00,4.11055e-14,4.29198e-14,9.57727e-01,9.99999e-01
1.228637839e+00,8.33224e-11,8.69259e-11,9.58544e-01,9.99999e-01
1.234781029e+00,9.22926e-08,9.62035e-08,9.59346e-01,9.99999e-01
1.240954934e+00,2.95891e-05,3.08177e-05,9.60133e-01,9.99999e-01
1.247159708e+00,2.84331e-03,2.95899e-03,9.60905e-01,9.99999e-01
1.253395507e+00,4.10447e-02,4.26810e-02,9.61662e-01,9.99999e-01
1.259662485e+00,1.62173e-01,1.68508e-01,9.62405e-01,9.99999e-01
1.265960797e+00,3.44539e-01,3.57727e-01,9.63134e-01,9.99999e-01
1.272290601e+00,6.33955e-01,6.57732e-01,9.63848e-01,9.99999e-01
1.278652054e+00,5.66567e-01,5.87390e-01,9.64550e-01,9.99999e-01
1.285045314e+00,5.18321e-02,5.36988e-02,9.65238e-01,9.99999e-01
1.291470541e+00,1.42694e-02,1.47729e-02,9.65912e-01,9.99999e-01
1.297927893e+00,1.18278e-01,1.22368e-01,9.66574e-01,9.99999e-01
1.304417533e+00,4.52233e-01,4.67557e-01,9.67224e-01,9.99999e-01
1.310939621e+00,9.16829e-02,9.47273e-02,9.67860e-01,9.99999e-01
1.317494319e+00,5.25783e-06,5.42891e-06,9.68485e-01,9.99999e-01
1.324081790e+00,4.87029e-04,5.02558e-04,9.69098e-01,9.99999e-01
1.330702199e+00,1.01625e-02,1.04801e-02,9.69699e-01,9.99999e-01
1.337355710e+00,9.78108e-03,1.00806e-02,9.70288e-01,9.99999e-01
1.344042489e+00,2.29510e-03,2.36397e-03,9.70867e-01,9.99999e-01
1.350762701e+00,8.54439e-03,8.79563e-03,9.71434e-01,9.99999e-01
1.357516515e+00,4.25843e-02,4.38114e-02,9.71990e-01,9.99999e-01
1.364304097e+00,1.41543e-01,1.45540e-01,9.72536e-01,9.99999e-01
1.371125618e+00,3.50989e-01,3.60702e-01,9.73071e-01,9.99999e-01
1.377981246e+00,4.32441e-01,4.44169e-01,9.73596e-01,9.99999e-01
1.384871152e+00,6.07773e-01,6.23926e-01,9.74110e-01,9.99999e-01
1.391795508e+00,6.30548e-01,6.46970e-01,9.74615e-01,9.99999e-01
1.398754485e+00,7.46299e-01,7.65348e-01,9.75110e-01,9.99999e-01
1.405748258e+00,8.00969e-01,8.21005e-01,9.75596e-01,9.99999e-01
1.412776999e+00,8.62113e-01,8.83246e-01,9.76072e-01,9.99999e-01
1.419840884e+00,8.06024e-01,8.25387e-01,9.76539e-01,9.99999e-01
1.426940089e+00,1.17814e-01,1.20588e-01,9.76997e-01,9.99999e-01
1.434074789e+00,5.25525e-222,5.37651e-222,9.77446e-01,9.99999e-01
1.441245163e+00,0.00000e+00,0.00000e+00,9.77887e-01,9.99999e-01
1.448451389e+00,4.60539e-269,4.70744e-269,9.78319e-01,9.99999e-01
1.455693646e+00,8.93360e-121,9.12763e-121,9.78742e-01,9.99999e-01
1.462972114e+00,2.95947e-59,3.02246e-59,9.79158e-01,9.99999e-01
1.470286975e+00,1.08967e-25,1.11240e-25,9.79565e-01,9.99999e-01
1.477638409e+00,8.46670e-17,8.63979e-17,9.79965e-01,9.99999e-01
1.485026601e+00,5.83632e-10,5.95325e-10,9.80357e-01,9.99999e-01
1.492451734e+00,1.75174e-08,1.78613e-08,9.80741e-01,9.99999e-01
1.499913993e+00,1.29286e-04,1.31774e-04,9.81118e-01,9.99999e-01
1.507413563e+00,1.31835e-03,1.34322e-03,9.81487e-01,9.99999e-01
1.514950631e+00,6.36669e-05,6.48438e-05,9.81849e-01,9.99999e-01
1.522525384e+00,1.60176e-12,1.63078e-12,9.82205e-01,9.99999e-01
1.530138011e+00,4.14411e-27,4.21769e-27,9.82553e-01,9.99999e-01
1.537788701e+00,1.66155e-20,1.69046e-20,9.82895e-01,9.99999e-01
1.545477645e+00,7.81286e-06,7.94611e-06,9.83230e-01,9.99999e-01
1.553205033e+00,1.07648e-03,1.09447e-03,9.83558e-01,9.99999e-01
1.560971058e+00,2.55074e-04,2.59253e-04,9.83880e-01,9.99999e-01
1.568775913e+00,2.71901e-66,2.76266e-66,9.84196e-01,9.99999e-01
1.576619793e+00,2.54507e-153,2.58512e-153,9.84506e-01,9.99999e-01
1.584502892e+00,2.64600e-84,2.68681e-84,9.84810e-01,9.99999e-01
1.592425406e+00,4.86930e-59,4.94290e-59,9.85107e-01,9.99999e-01
1.600387533e+00,1.77217e-94,1.79843e-94,9.85399e-01,9.99999e-01
1.608389471e+00,9.65040e-158,9.79053e-158,9.85686e-01,9.99999e-01
1.616431418e+00,9.97184e-159,1.01138e-158,9.85966e-01,9.99999e-01
1.624513575e+00,7.87139e-75,7.98119e-75,9.86242e-01,9.99999e-01
1.632636143e+00,5.87113e-56,5.95140e-56,9.86512e-01,9.99999e-01
1.640799324e+00,5.94781e-24,6.02751e-24,9.86776e-01,9.99999e-01
1.649003321e+00,7.83082e-24,7.93367e-24,9.87036e-01,9.99999e-01
1.657248337e+00,1.06093e-18,1.07458e-18,9.87290e-01,9.99999e-01
1.665534579e+00,7.32000e-19,7.41235e-19,9.87540e-01,9.99999e-01
1.673862252e+00,1.66117e-12,1.68171e-12,9.87784e-01,9.99999e-01
1.682231563e+00,4.10795e-09,4.15774e-09,9.88024e-01,9.99999e-01
1.690642721e+00,1.00613e-05,1.01809e-05,9.88259e-01,9.99999e-01
1.699095934e+00,8.96976e-04,9.07420e-04,9.88490e-01,9.99999e-01
1.707591414e+00,2.38545e-02,2.41267e-02,9.88716e-01,9.99999e-01
1.716129371e+00,1.32741e-01,1.34225e-01,9.88937e-01,9.99999e-01
1.724710018e+00,3.42635e-01,3.46391e-01,9.89155e-01,9.99999e-01
1.733333568e+00,5.00918e-01,5.06301e-01,9.89368e-01,9.99999e-01
1.742000236e+00,6.39293e-01,6.46026e-01,9.89577e-01,9.99999e-01
1.750710237e+00,6.18840e-02,6.25228e-02,9.89781e-01,9.99999e-01
1.759463788e+00,6.56765e-12,6.63410e-12,9.89982e-01,9.99999e-01
1.768261107e+00,8.26866e-13,8.35067e-13,9.90179e-01,9.99999e-01
1.777102413e+00,1.00371e-11,1.01347e-11,9.90372e-01,9.99999e-01
1.785987925e+00,1.32056e-11,1.33315e-11,9.90561e-01,9.99999e-01
1.794917864e+00,9.60100e-11,9.69065e-11,9.90747e-01,9.99999e-01
1.803892454e+00,5.92447e-11,5.97869e-11,9.90929e-01,9.99999e-01
1.812911916e+00,2.87097e-10,2.89673e-10,9.91107e-01,9.99999e-01
1.821976476e+00,1.70303e-10,1.71801e-10,9.91282e-01,9.99999e-01
1.831086358e+00,1.09604e-08,1.10549e-08,9.91454e-01,9.99999e-01
1.840241790e+00,2.53055e-07,2.55193e-07,9.91622e-01,9.99999e-01
1.849442999e+00,3.06460e-05,3.08997e-05,9.91786e-01,9.99999e-01
1.858690214e+00,1.14304e-04,1.15232e-04,9.91948e-01,9.99999e-01
1.867983665e+00,1.81759e-05,1.83205e-05,9.92106e-01,9.99999e-01
1.877323583e+00,1.21660e-21,1.22609e-21,9.92262e-01,9.99999e-01
