#,Wave/freq,Total,CO2,Rayleigh,CIA
4.000000000e-01,2.16428e-05,9.99999e-01,2.16428e-05,9.99999e-01
4.020000000e-01,2.67638e-05,9.99999e-01,2.67638e-05,9.99999e-01
4.040100000e-01,3.29507e-05,9.99999e-01,3.29507e-05,9.99999e-01
4.060300500e-01,4.04016e-05,9.99999e-01,4.04016e-05,9.99999e-01
4.080602003e-01,4.93382e-05,9.99999e-01,4.93382e-05,9.99999e-01
4.101005013e-01,6.00141e-05,9.99999e-01,6.00141e-05,9.99999e-01
4.121510038e-01,7.27182e-05,9.99999e-01,7.27182e-05,9.99999e-01
4.142117588e-01,8.77780e-05,9.99999e-01,8.77780e-05,9.99999e-01
4.162828176e-01,1.05564e-04,9.99999e-01,1.05564e-04,9.99999e-01
4.183642317e-01,1.26491e-04,9.99999e-01,1.26491e-04,9.99999e-01
4.204560528e-01,1.51027e-04,9.99999e-01,1.51027e-04,9.99999e-01
4.225583331e-01,1.79691e-04,9.99999e-01,1.79691e-04,9.99999e-01
4.246711247e-01,2.13063e-04,9.99999e-01,2.13063e-04,9.99999e-01
4.267944804e-01,2.51785e-04,9.99999e-01,2.51785e-04,9.99999e-01
4.289284528e-01,2.96564e-04,9.99999e-01,2.96564e-04,9.99999e-01
4.310730950e-01,3.48179e-04,9.99999e-01,3.48179e-04,9.99999e-01
4.332284605e-01,4.07484e-04,9.99999e-01,4.07484e-04,9.99999e-01
4.353946028e-01,4.75412e-04,9.99999e-01,4.75412e-04,9.99999e-01
4.375715758e-01,5.52975e-04,9.99999e-01,5.52975e-04,9.99999e-01
4.397594337e-01,6.41277e-04,9.99999e-01,6.41277e-04,9.99999e-01
4.419582309e-01,7.41505e-04,9.99999e-01,7.41505e-04,9.99999e-01
4.441680220e-01,8.54943e-04,9.99999e-01,8.54943e-04,9.99999e-01
4.463888621e-01,9.82967e-04,9.99999e-01,9.82967e-04,9.99999e-01
4.486208064e-01,1.12705e-03,9.99999e-01,1.12705e-03,9.99999e-01
4.508639105e-01,1.28877e-03,9.99999e-01,1.28877e-03,9.99999e-01
4.531182300e-01,1.46979e-03,9.99999e-01,1.46979e-03,9.99999e-01
4.553838212e-01,1.67190e-03,9.99999e-01,1.67190e-03,9.99999e-01
4.576607403e-01,1.89696e-03,9.99999e-01,1.89696e-03,9.99999e-01
4.599490440e-01,2.14696e-03,9.99999e-01,2.14696e-03,9.99999e-01
4.622487892e-01,2.42397e-03,9.99999e-01,2.42397e-03,9.99999e-01
4.645600332e-01,2.73016e-03,9.99999e-01,2.73016e-03,9.99999e-01
4.668828333e-01,3.06782e-03,9.99999e-01,3.06782e-03,9.99999e-01
4.692172475e-01,3.43931e-03,9.99999e-01,3.43931e-03,9.99999e-01
4.715633337e-01,3.84709e-03,9.99999e-01,3.84709e-03,9.99999e-01
4.739211504e-01,4.29370e-03,9.99999e-01,4.29370e-03,9.99999e-01
4.762907561e-01,4.78178e-03,9.99999e-01,4.78178e-03,9.99999e-01
4.786722099e-01,5.31402e-03,9.99999e-01,5.31402e-03,9.99999e-01
4.810655710e-01,5.89321e-03,9.99999e-01,5.89321e-03,9.99999e-01
4.834708988e-01,6.52218e-03,9.99999e-01,6.52218e-03,9.99999e-01
4.858882533e-01,7.20384e-03,9.99999e-01,7.20384e-03,9.99999e-01
4.883176946e-01,7.94113e-03,9.99999e-01,7.94113e-03,9.99999e-01
4.907592831e-01,8.73705e-03,9.99999e-01,8.73705e-03,9.99999e-01
4.932130795e-01,9.59463e-03,9.99999e-01,9.59463e-03,9.99999e-01
4.956791449e-01,1.05169e-02,9.99999e-01,1.05169e-02,9.99999e-01
4.981575406e-01,1.15070e-02,9.99999e-01,1.15070e-02,9.99999e-01
5.006483283e-01,1.25679e-02,9.99999e-01,1.25679e-02,9.99999e-01
5.031515699e-01,1.37027e-02,9.99999e-01,1.37027e-02,9.99999e-01
5.056673278e-01,1.49145e-02,9.99999e-01,1.49145e-02,9.99999e-01
5.081956644e-01,1.62063e-02,9.99999e-01,1.62063e-02,9.99999e-01
5.107366428e-01,1.75812e-02,9.99999e-01,1.75812e-02,9.99999e-01
5.132903260e-01,1.90420e-02,9.99999e-01,1.90420e-02,9.99999e-01
5.158567776e-01,2.05917e-02,9.99999e-01,2.05917e-02,9.99999e-01
5.184360615e-01,2.22331e-02,9.99999e-01,2.22331e-02,9.99999e-01
5.210282418e-01,2.39691e-02,9.99999e-01,2.39691e-02,9.99999e-01
5.236333830e-01,2.58022e-02,9.99999e-01,2.58022e-02,9.99999e-01
5.262515499e-01,2.77352e-02,9.99999e-01,2.77352e-02,9.99999e-01
5.288828077e-01,2.97704e-02,9.99999e-01,2.97704e-02,9.99999e-01
5.315272217e-01,3.19104e-02,9.99999e-01,3.19104e-02,9.99999e-01
5.341848578e-01,3.41572e-02,9.99999e-01,3.41572e-02,9.99999e-01
5.368557821e-01,3.65132e-02,9.99999e-01,3.65132e-02,9.99999e-01
5.395400610e-01,3.89803e-02,9.99999e-01,3.89803e-02,9.99999e-01
5.422377613e-01,4.15604e-02,9.99999e-01,4.15604e-02,9.99999e-01
5.449489501e-01,4.42552e-02,9.99999e-01,4.42552e-02,9.99999e-01
5.476736949e-01,4.70662e-02,9.99999e-01,4.70662e-02,9.99999e-01
5.504120634e-01,4.99950e-02,9.99999e-01,4.99950e-02,9.99999e-01
5.531641237e-01,5.30428e-02,9.99999e-01,5.30428e-02,9.99999e-01
5.559299443e-01,5.62106e-02,9.99999e-01,5.62106e-02,9.99999e-01
5.587095940e-01,5.94994e-02,9.99999e-01,5.94994e-02,9.99999e-01
5.615031420e-01,6.29098e-02,9.99999e-01,6.29098e-02,9.99999e-01
5.643106577e-01,6.64426e-02,9.99999e-01,6.64426e-02,9.99999e-01
5.671322110e-01,7.00981e-02,9.99999e-01,7.00981e-02,9.99999e-01
5.699678720e-01,7.38766e-02,9.99999e-01,7.38766e-02,9.99999e-01
5.728177114e-01,7.77779e-02,9.99999e-01,7.77779e-02,9.99999e-01
5.756818000e-01,8.18022e-02,9.99999e-01,8.18022e-02,9.99999e-01
5.785602090e-01,8.59489e-02,9.99999e-01,8.59489e-02,9.99999e-01
5.814530100e-01,9.02177e-02,9.99999e-01,9.02177e-02,9.99999e-01
5.843602750e-01,9.46079e-02,9.99999e-01,9.46079e-02,9.99999e-01
5.872820764e-01,9.91186e-02,9.99999e-01,9.91186e-02,9.99999e-01
5.902184868e-01,1.03749e-01,9.99999e-01,1.03749e-01,9.99999e-01
5.931695792e-01,1.08498e-01,9.99999e-01,1.08498e-01,9.99999e-01
5.961354271e-01,1.13364e-01,9.99999e-01,1.13364e-01,9.99999e-01
5.991161043e-01,1.18345e-01,9.99999e-01,1.18345e-01,9.99999e-01
6.021116848e-01,1.23440e-01,9.99999e-01,1.23440e-01,9.99999e-01
6.051222432e-01,1.28648e-01,9.99999e-01,1.28648e-01,9.99999e-01
6.081478544e-01,1.33966e-01,9.99999e-01,1.33966e-01,9.99999e-01
6.111885937e-01,1.39392e-01,9.99999e-01,1.39392e-01,9.99999e-01
6.142445367e-01,1.44925e-01,9.99999e-01,1.44925e-01,9.99999e-01
6.173157594e-01,1.50561e-01,9.99999e-01,1.50561e-01,9.99999e-01
6.204023382e-01,1.56298e-01,9.99999e-01,1.56298e-01,9.99999e-01
6.235043498e-01,1.62134e-01,9.99999e-01,1.62134e-01,9.99999e-01
6.266218716e-01,1.68067e-01,9.99999e-01,1.68067e-01,9.99999e-01
6.297549810e-01,1.74093e-01,9.99999e-01,1.74093e-01,9.99999e-01
6.329037559e-01,1.80209e-01,9.99999e-01,1.80209e-01,9.99999e-01
6.360682746e-01,1.86414e-01,9.99999e-01,1.86414e-01,9.99999e-01
6.392486160e-01,1.92703e-01,9.99999e-01,1.92703e-01,9.99999e-01
6.424448591e-01,1.99073e-01,9.99999e-01,1.99073e-01,9.99999e-01
6.456570834e-01,2.05522e-01,9.99999e-01,2.05522e-01,9.99999e-01
6.488853688e-01,2.12047e-01,9.99999e-01,2.12047e-01,9.99999e-01
6.521297956e-01,2.18643e-01,9.99999e-01,2.18643e-01,9.99999e-01
6.553904446e-01,2.25309e-01,9.99999e-01,2.25309e-01,9.99999e-01
6.586673968e-01,2.32040e-01,9.99999e-01,2.32040e-01,9.99999e-01
6.619607338e-01,2.38833e-01,9.99999e-01,2.38833e-01,9.99999e-01
6.652705375e-01,2.45685e-01,9.99999e-01,2.45685e-01,9.99999e-01
6.685968902e-01,2.52592e-01,9.99999e-01,2.52592e-01,9.99999e-01
6.719398746e-01,2.59551e-01,9.99999e-01,2.59551e-01,9.99999e-01
6.752995740e-01,2.66559e-01,9.99999e-01,2.66559e-01,9.99999e-01
6.786760719e-01,2.73612e-01,9.99999e-01,2.73612e-01,9.99999e-01
6.820694522e-01,2.80707e-01,9.99999e-01,2.80707e-01,9.99999e-01
6.854797995e-01,2.87841e-01,9.99999e-01,2.87841e-01,9.99999e-01
6.889071985e-01,2.95009e-01,9.99999e-01,2.95009e-01,9.99999e-01
6.923517345e-01,3.02209e-01,9.99999e-01,3.02209e-01,9.99999e-01
6.958134932e-01,3.09437e-01,9.99999e-01,3.09437e-01,9.99999e-01
6.992925606e-01,3.16690e-01,9.99999e-01,3.16690e-01,9.99999e-01
7.027890234e-01,3.23965e-01,9.99999e-01,3.23965e-01,9.99999e-01
7.063029686e-01,3.31259e-01,9.99999e-01,3.31259e-01,9.99999e-01
7.098344834e-01,3.38568e-01,9.99999e-01,3.38568e-01,9.99999e-01
7.133836558e-01,3.45888e-01,9.99999e-01,3.45888e-01,9.99999e-01
7.169505741e-01,3.53218e-01,9.99999e-01,3.53218e-01,9.99999e-01
7.205353270e-01,3.60554e-01,9.99999e-01,3.60554e-01,9.99999e-01
7.241380036e-01,3.67893e-01,9.99999e-01,3.67893e-01,9.99999e-01
7.277586936e-01,3.75232e-01,9.99999e-01,3.75232e-01,9.99999e-01
7.313974871e-01,3.82568e-01,9.99999e-01,3.82568e-01,9.99999e-01
7.350544745e-01,3.89898e-01,9.99999e-01,3.89898e-01,9.99999e-01
7.387297469e-01,3.97219e-01,9.99999e-01,3.97219e-01,9.99999e-01
7.424233956e-01,4.04530e-01,9.99999e-01,4.04530e-01,9.99999e-01
7.461355126e-01,4.11826e-01,9.99999e-01,4.11826e-01,9.99999e-01
7.498661902e-01,4.19107e-01,9.99999e-01,4.19107e-01,9.99999e-01
7.536155211e-01,4.26368e-01,9.99999e-01,4.26368e-01,9.99999e-01
7.573835987e-01,4.33608e-01,9.99999e-01,4.33608e-01,9.99999e-01
7.611705167e-01,4.40824e-01,9.99999e-01,4.40824e-01,9.99999e-01
7.649763693e-01,4.48015e-01,9.99999e-01,4.48015e-01,9.99999e-01
7.688012511e-01,4.55177e-01,9.99999e-01,4.55177e-01,9.99999e-01
7.726452574e-01,4.62308e-01,9.99999e-01,4.62308e-01,9.99999e-01
7.765084837e-01,4.69408e-01,9.99999e-01,4.69408e-01,9.99999e-01
7.803910261e-01,4.60122e-01,9.65682e-01,4.76472e-01,9.99999e-01
7.842929812e-01,4.13345e-01,8.54899e-01,4.83501e-01,9.99999e-01
7.882144461e-01,4.14856e-01,8.45796e-01,4.90491e-01,9.99999e-01
7.921555184e-01,4.51120e-01,9.06879e-01,4.97442e-01,9.99999e-01
7.961162960e-01,4.72320e-01,9.36492e-01,5.04350e-01,9.99999e-01
8.000968774e-01,4.93366e-01,9.65083e-01,5.11215e-01,9.99999e-01
8.040973618e-01,5.08574e-01,9.81734e-01,5.18036e-01,9.99999e-01
8.081178486e-01,5.20395e-01,9.91587e-01,5.24810e-01,9.99999e-01
8.121584379e-01,5.30147e-01,9.97387e-01,5.31536e-01,9.99999e-01
8.162192301e-01,5.37902e-01,9.99422e-01,5.38213e-01,9.99999e-01
8.203003262e-01,5.44834e-01,9.99990e-01,5.44839e-01,9.99999e-01
8.244018279e-01,5.51414e-01,9.99999e-01,5.51414e-01,9.99999e-01
8.285238370e-01,5.57935e-01,9.99999e-01,5.57935e-01,9.99999e-01
8.326664562e-01,5.64403e-01,9.99999e-01,5.64403e-01,9.99999e-01
8.368297885e-01,5.70816e-01,9.99999e-01,5.70816e-01,9.99999e-01
8.410139374e-01,5.77173e-01,9.99999e-01,5.77173e-01,9.99999e-01
8.452190071e-01,5.83473e-01,9.99999e-01,5.83473e-01,9.99999e-01
8.494451021e-01,5.89715e-01,9.99999e-01,5.89715e-01,9.99999e-01
8.536923276e-01,5.95899e-01,9.99999e-01,5.95899e-01,9.99999e-01
8.579607893e-01,6.02024e-01,9.99999e-01,6.02024e-01,9.99999e-01
8.622505932e-01,6.08089e-01,9.99999e-01,6.08089e-01,9.99999e-01
8.665618462e-01,5.67875e-01,9.24737e-01,6.14093e-01,9.99999e-01
8.708946554e-01,4.16768e-01,6.72167e-01,6.20036e-01,9.99999e-01
8.752491287e-01,4.54188e-01,7.25635e-01,6.25918e-01,9.99999e-01
8.796253743e-01,5.29600e-01,8.38323e-01,6.31737e-01,9.99999e-01
8.840235012e-01,5.81779e-01,9.12602e-01,6.37495e-01,9.99999e-01
8.884436187e-01,6.20393e-01,9.64557e-01,6.43189e-01,9.99999e-01
8.928858368e-01,6.39415e-01,9.85504e-01,6.48820e-01,9.99999e-01
8.973502660e-01,6.52068e-01,9.96453e-01,6.54388e-01,9.99999e-01
9.018370173e-01,6.59634e-01,9.99608e-01,6.59892e-01,9.99999e-01
9.063462024e-01,6.58748e-01,9.90101e-01,6.65333e-01,9.99999e-01
9.108779334e-01,6.55443e-01,9.77238e-01,6.70709e-01,9.99999e-01
9.154323231e-01,6.72368e-01,9.94594e-01,6.76022e-01,9.99999e-01
9.200094847e-01,6.30187e-01,9.25017e-01,6.81270e-01,9.99999e-01
9.246095321e-01,6.13319e-01,8.93459e-01,6.86454e-01,9.99999e-01
9.292325798e-01,6.33349e-01,9.15807e-01,6.91575e-01,9.99999e-01
9.338787427e-01,6.39659e-01,9.18217e-01,6.96631e-01,9.99999e-01
9.385481364e-01,6.58986e-01,9.39230e-01,7.01623e-01,9.99999e-01
9.432408771e-01,6.79921e-01,9.62310e-01,7.06551e-01,9.99999e-01
9.479570815e-01,6.97544e-01,9.80501e-01,7.11415e-01,9.99999e-01
9.526968669e-01,7.09446e-01,9.90546e-01,7.16216e-01,9.99999e-01
9.574603512e-01,7.18032e-01,9.95946e-01,7.20954e-01,9.99999e-01
9.622476530e-01,7.24709e-01,9.98733e-01,7.25628e-01,9.99999e-01
9.670588912e-01,7.29962e-01,9.99619e-01,7.30239e-01,9.99999e-01
9.718941857e-01,7.34768e-01,9.99972e-01,7.34788e-01,9.99999e-01
9.767536566e-01,7.39275e-01,9.99999e-01,7.39275e-01,9.99999e-01
9.816374249e-01,7.43699e-01,9.99999e-01,7.43699e-01,9.99999e-01
9.865456120e-01,7.48062e-01,9.99999e-01,7.48062e-01,9.99999e-01
9.914783401e-01,7.52363e-01,9.99999e-01,7.52363e-01,9.99999e-01
9.964357318e-01,7.56603e-01,9.99999e-01,7.56603e-01,9.99999e-01
1.001417910e+00,7.60783e-01,9.99999e-01,7.60783e-01,9.99999e-01
1.006425000e+00,7.64903e-01,9.99999e-01,7.64903e-01,9.99999e-01
1.011457125e+00,7.68963e-01,9.99999e-01,7.68963e-01,9.99999e-01
1.016514411e+00,7.72964e-01,9.99999e-01,7.72964e-01,9.99999e-01
1.021596983e+00,7.76866e-01,9.99948e-01,7.76905e-01,9.99999e-01
1.026704968e+00,7.77773e-01,9.96136e-01,7.80789e-01,9.99999e-01
1.031838492e+00,7.49874e-01,9.55721e-01,7.84615e-01,9.99999e-01
1.036997685e+00,1.16991e-01,1.48393e-01,7.88383e-01,9.99999e-01
1.042182673e+00,8.82302e-02,1.11388e-01,7.92094e-01,9.99999e-01
1.047393587e+00,1.07281e-01,1.34818e-01,7.95749e-01,9.99999e-01
1.052630555e+00,2.66954e-03,3.33964e-03,7.99348e-01,9.99999e-01
1.057893707e+00,6.88632e-03,8.57689e-03,8.02892e-01,9.99999e-01
1.063183176e+00,2.40531e-02,2.98284e-02,8.06382e-01,9.99999e-01
1.068499092e+00,7.01615e-02,8.66387e-02,8.09817e-01,9.99999e-01
1.073841587e+00,1.72938e-01,2.12664e-01,8.13198e-01,9.99999e-01
1.079210795e+00,3.06370e-01,3.75211e-01,8.16526e-01,9.99999e-01
1.084606849e+00,4.77590e-01,5.82567e-01,8.19802e-01,9.99999e-01
1.090029883e+00,6.21732e-01,7.55421e-01,8.23026e-01,9.99999e-01
1.095480033e+00,7.19502e-01,8.70858e-01,8.26198e-01,9.99999e-01
1.100957433e+00,7.75877e-01,9.35557e-01,8.29320e-01,9.99999e-01
1.106462220e+00,8.09766e-01,9.72819e-01,8.32391e-01,9.99999e-01
1.111994531e+00,8.26924e-01,9.89838e-01,8.35413e-01,9.99999e-01
1.117554504e+00,8.36295e-01,9.97506e-01,8.38385e-01,9.99999e-01
1.123142276e+00,8.41172e-01,9.99835e-01,8.41310e-01,9.99999e-01
1.128757988e+00,8.44186e-01,9.99999e-01,8.44186e-01,9.99999e-01
1.134401778e+00,8.47015e-01,9.99999e-01,8.47015e-01,9.99999e-01
1.140073787e+00,8.49798e-01,9.99999e-01,8.49798e-01,9.99999e-01
1.145774156e+00,8.52534e-01,9.99999e-01,8.52534e-01,9.99999e-01
1.151503026e+00,8.55225e-01,9.99999e-01,8.55225e-01,9.99999e-01
1.157260541e+00,8.57871e-01,9.99999e-01,8.57871e-01,9.99999e-01
1.163046844e+00,8.60472e-01,9.99999e-01,8.60472e-01,9.99999e-01
1.168862078e+00,8.63030e-01,9.99999e-01,8.63030e-01,9.99999e-01
1.174706389e+00,8.65545e-01,9.99999e-01,8.65545e-01,9.99999e-01
1.180579921e+00,8.68017e-01,9.99999e-01,8.68017e-01,9.99999e-01
1.186482820e+00,8.70442e-01,9.99993e-01,8.70447e-01,9.99999e-01
1.192415234e+00,8.60880e-01,9.86300e-01,8.72836e-01,9.99999e-01
1.198377311e+00,4.90812e-01,5.60809e-01,8.75184e-01,9.99999e-01
1.204369197e+00,1.45750e-11,1.66098e-11,8.77492e-01,9.99999e-01
1.210391043e+00,2.91971e-42,3.31876e-42,8.79760e-01,9.99999e-01
1.216442998e+00,9.00344e-37,1.02081e-36,8.81989e-01,9.99999e-01
1.222525213e+00,3.05064e-36,3.45024e-36,8.84179e-01,9.99999e-01
1.228637839e+00,4.51044e-28,5.08888e-28,8.86332e-01,9.99999e-01
1.234781029e+00,3.59938e-18,4.05132e-18,8.88447e-01,9.99999e-01
1.240954934e+00,2.83098e-12,3.17899e-12,8.90525e-01,9.99999e-01
1.247159708e+00,8.56212e-07,9.59269e-07,8.92567e-01,9.99999e-01
1.253395507e+00,2.12128e-04,2.37128e-04,8.94573e-01,9.99999e-01
1.259662485e+00,7.46177e-03,8.32281e-03,8.96544e-01,9.99999e-01
1.265960797e+00,5.61669e-02,6.25132e-02,8.98480e-01,9.99999e-01
1.272290601e+00,2.78011e-01,3.08770e-01,9.00381e-01,9.99999e-01
1.278652054e+00,2.38538e-01,2.64381e-01,9.02250e-01,9.99999e-01
1.285045314e+00,6.06347e-03,6.70674e-03,9.04085e-01,9.99999e-01
1.291470541e+00,1.22558e-05,1.35291e-05,9.05887e-01,9.99999e-01
1.297927893e+00,3.75180e-03,4.13349e-03,9.07657e-01,9.99999e-01
1.304417533e+00,1.07016e-01,1.17678e-01,9.09396e-01,9.99999e-01
1.310939621e+00,2.61610e-02,2.87135e-02,9.11104e-01,9.99999e-01
1.317494319e+00,5.47530e-15,5.99848e-15,9.12781e-01,9.99999e-01
1.324081790e+00,2.29789e-10,2.51292e-10,9.14428e-01,9.99999e-01
1.330702199e+00,3.95644e-06,4.31904e-06,9.16045e-01,9.99999e-01
1.337355710e+00,5.39449e-06,5.87870e-06,9.17633e-01,9.99999e-01
1.344042489e+00,1.66808e-06,1.81473e-06,9.19192e-01,9.99999e-01
1.350762701e+00,2.42421e-06,2.63294e-06,9.20723e-01,9.99999e-01
1.357516515e+00,2.49780e-04,2.70844e-04,9.22227e-01,9.99999e-01
1.364304097e+00,4.29948e-03,4.65461e-03,9.23703e-01,9.99999e-01
1.371125618e+00,5.63619e-02,6.09217e-02,9.25152e-01,9.99999e-01
1.377981246e+00,9.29543e-02,1.00320e-01,9.26575e-01,9.99999e-01
1.384871152e+00,2.43435e-01,2.62330e-01,9.27971e-01,9.99999e-01
1.391795508e+00,2.69760e-01,2.90269e-01,9.29342e-01,9.99999e-01
1.398754485e+00,4.33590e-01,4.65881e-01,9.30689e-01,9.99999e-01
1.405748258e+00,5.31117e-01,5.69862e-01,9.32010e-01,9.99999e-01
1.412776999e+00,6.54129e-01,7.00871e-01,9.33307e-01,9.99999e-01
1.419840884e+00,5.89992e-01,6.31290e-01,9.34580e-01,9.99999e-01
1.426940089e+00,5.32736e-02,5.69265e-02,9.35830e-01,9.99999e-01
1.434074789e+00,0.00000e+00,0.00000e+00,9.37057e-01,9.99999e-01
1.441245163e+00,0.00000e+00,0.00000e+00,9.38261e-01,9.99999e-01
1.448451389e+00,0.00000e+00,0.00000e+00,9.39443e-01,9.99999e-01
1.455693646e+00,0.00000e+00,0.00000e+00,9.40603e-01,9.99999e-01
1.462972114e+00,1.17404e-164,1.24666e-164,9.41741e-01,9.99999e-01
1.470286975e+00,4.46707e-69,4.73779e-69,9.42858e-01,9.99999e-01
1.477638409e+00,6.98885e-44,7.40379e-44,9.43955e-01,9.99999e-01
1.485026601e+00,5.81250e-25,6.15059e-25,9.45031e-01,9.99999e-01
1.492451734e+00,2.85826e-21,3.02113e-21,9.46087e-01,9.99999e-01
1.499913993e+00,5.78351e-10,6.10639e-10,9.47123e-01,9.99999e-01
1.507413563e+00,9.30617e-09,9.81518e-09,9.48140e-01,9.99999e-01
1.514950631e+00,3.72340e-10,3.92293e-10,9.49138e-01,9.99999e-01
1.522525384e+00,1.47437e-31,1.55178e-31,9.50117e-01,9.99999e-01
1.530138011e+00,1.29725e-73,1.36398e-73,9.51077e-01,9.99999e-01
1.537788701e+00,8.83928e-55,9.28475e-55,9.52020e-01,9.99999e-01
1.545477645e+00,1.47828e-12,1.55127e-12,9.52945e-01,9.99999e-01
1.553205033e+00,7.49382e-09,7.85637e-09,9.53853e-01,9.99999e-01
1.560971058e+00,2.26011e-09,2.36725e-09,9.54743e-01,9.99999e-01
1.568775913e+00,1.05897e-184,1.10815e-184,9.55617e-01,9.99999e-01
1.576619793e+00,0.00000e+00,0.00000e+00,9.56475e-01,9.99999e-01
1.584502892e+00,5.12301e-236,5.35143e-236,9.57316e-01,9.99999e-01
1.592425406e+00,1.05347e-164,1.09949e-164,9.58141e-01,9.99999e-01
1.600387533e+00,5.29768e-265,5.52446e-265,9.58950e-01,9.99999e-01
1.608389471e+00,0.00000e+00,0.00000e+00,9.59745e-01,9.99999e-01
1.616431418e+00,0.00000e+00,0.00000e+00,9.60524e-01,9.99999e-01
1.624513575e+00,5.00674e-209,5.20836e-209,9.61288e-01,9.99999e-01
1.632636143e+00,1.88597e-155,1.96039e-155,9.62038e-01,9.99999e-01
1.640799324e+00,4.35720e-64,4.52567e-64,9.62774e-01,9.99999e-01
1.649003321e+00,4.41156e-64,4.57870e-64,9.63496e-01,9.99999e-01
1.657248337e+00,8.72956e-50,9.05364e-50,9.64204e-01,9.99999e-01
1.665534579e+00,4.12049e-50,4.27039e-50,9.64898e-01,9.99999e-01
1.673862252e+00,2.29053e-32,2.37218e-32,9.65579e-01,9.99999e-01
1.682231563e+00,8.90404e-23,9.21506e-23,9.66248e-01,9.99999e-01
1.690642721e+00,3.27299e-13,3.38502e-13,9.66903e-01,9.99999e-01
1.699095934e+00,1.37879e-08,1.42504e-08,9.67546e-01,9.99999e-01
1.707591414e+00,6.76657e-05,6.98898e-05,9.68177e-01,9.99999e-01
1.716129371e+00,4.52307e-03,4.66875e-03,9.68796e-01,9.99999e-01
1.724710018e+00,5.04895e-02,5.20830e-02,9.69402e-01,9.99999e-01
1.733333568e+00,1.42607e-01,1.47018e-01,9.69998e-01,9.99999e-01
1.742000236e+00,3.08039e-01,3.17376e-01,9.70581e-01,9.99999e-01
1.750710237e+00,7.89319e-03,8.12763e-03,9.71154e-01,9.99999e-01
1.759463788e+00,6.94997e-31,7.15226e-31,9.71716e-01,9.99999e-01
1.768261107e+00,2.14585e-32,2.20705e-32,9.72266e-01,9.99999e-01
1.777102413e+00,3.22018e-31,3.31020e-31,9.72807e-01,9.99999e-01
1.785987925e+00,1.26559e-29,1.30026e-29,9.73337e-01,9.99999e-01
1.794917864e+00,3.05488e-28,3.13689e-28,9.73856e-01,9.99999e-01
1.803892454e+00,2.49665e-27,2.56233e-27,9.74366e-01,9.99999e-01
1.812911916e+00,3.49572e-26,3.58585e-26,9.74866e-01,9.99999e-01
1.821976476e+00,2.52586e-26,2.58967e-26,9.75356e-01,9.99999e-01
1.831086358e+00,2.22414e-21,2.27921e-21,9.75837e-01,9.99999e-01
1.840241790e+00,3.38016e-18,3.46218e-18,9.76309e-01,9.99999e-01
1.849442999e+00,9.52724e-13,9.75380e-13,9.76771e-01,9.99999e-01
1.858690214e+00,8.18330e-12,8.37401e-12,9.77225e-01,9.99999e-01
1.867983665e+00,1.41343e-12,1.44571e-12,9.77669e-01,9.99999e-01
1.877323583e+00,3.92347e-58,4.01129e-58,9.78106e-01,9.99999e-01
