#,Wave/freq,Total,CO2,Rayleigh,CIA
4.000000000e-01,1.92913e-12,9.99999e-01,1.92913e-12,9.99999e-01
4.020000000e-01,3.28843e-12,9.99999e-01,3.28843e-12,9.99999e-01
4.040100000e-01,5.54378e-12,9.99999e-01,5.54378e-12,9.99999e-01
4.060300500e-01,9.25004e-12,9.99999e-01,9.25004e-12,9.99999e-01
4.080602003e-01,1.52788e-11,9.99999e-01,1.52788e-11,9.99999e-01
4.101005013e-01,2.49880e-11,9.99999e-01,2.49880e-11,9.99999e-01
4.121510038e-01,4.04717e-11,9.99999e-01,4.04717e-11,9.99999e-01
4.142117588e-01,6.49286e-11,9.99999e-01,6.49286e-11,9.99999e-01
4.162828176e-01,1.03197e-10,9.99999e-01,1.03197e-10,9.99999e-01
4.183642317e-01,1.62525e-10,9.99999e-01,1.62525e-10,9.99999e-01
4.204560528e-01,2.53676e-10,9.99999e-01,2.53676e-10,9.99999e-01
4.225583331e-01,3.92481e-10,9.99999e-01,3.92481e-10,9.99999e-01
4.246711247e-01,6.02024e-10,9.99999e-01,6.02024e-10,9.99999e-01
4.267944804e-01,9.15671e-10,9.99999e-01,9.15671e-10,9.99999e-01
4.289284528e-01,1.38123e-09,9.99999e-01,1.38123e-09,9.99999e-01
4.310730950e-01,2.06666e-09,9.99999e-01,2.06666e-09,9.99999e-01
4.332284605e-01,3.06771e-09,9.99999e-01,3.06771e-09,9.99999e-01
4.353946028e-01,4.51825e-09,9.99999e-01,4.51825e-09,9.99999e-01
4.375715758e-01,6.60398e-09,9.99999e-01,6.60398e-09,9.99999e-01
4.397594337e-01,9.58042e-09,9.99999e-01,9.58042e-09,9.99999e-01
4.419582309e-01,1.37966e-08,9.99999e-01,1.37966e-08,9.99999e-01
4.441680220e-01,1.97256e-08,9.99999e-01,1.97256e-08,9.99999e-01
4.463888621e-01,2.80042e-08,9.99999e-01,2.80042e-08,9.99999e-01
4.486208064e-01,3.94829e-08,9.99999e-01,3.94829e-08,9.99999e-01
4.508639105e-01,5.52903e-08,9.99999e-01,5.52903e-08,9.99999e-01
4.531182300e-01,7.69129e-08,9.99999e-01,7.69129e-08,9.99999e-01
4.553838212e-01,1.06296e-07,9.99999e-01,1.06296e-07,9.99999e-01
4.576607403e-01,1.45969e-07,9.99999e-01,1.45969e-07,9.99999e-01
4.599490440e-01,1.99198e-07,9.99999e-01,1.99198e-07,9.99999e-01
4.622487892e-01,2.70172e-07,9.99999e-01,2.70172e-07,9.99999e-01
4.645600332e-01,3.64235e-07,9.99999e-01,3.64235e-07,9.99999e-01
4.668828333e-01,4.88158e-07,9.99999e-01,4.88158e-07,9.99999e-01
4.692172475e-01,6.50470e-07,9.99999e-01,6.50470e-07,9.99999e-01
4.715633337e-01,8.61849e-07,9.99999e-01,8.61849e-07,9.99999e-01
4.739211504e-01,1.13559e-06,9.99999e-01,1.13559e-06,9.99999e-01
4.762907561e-01,1.48815e-06,9.99999e-01,1.48815e-06,9.99999e-01
4.786722099e-01,1.93977e-06,9.99999e-01,1.93977e-06,9.99999e-01
4.810655710e-01,2.51525e-06,9.99999e-01,2.51525e-06,9.99999e-01
4.834708988e-01,3.24477e-06,9.99999e-01,3.24477e-06,9.99999e-01
4.858882533e-01,4.16487e-06,9.99999e-01,4.16487e-06,9.99999e-01
4.883176946e-01,5.31958e-06,9.99999e-01,5.31958e-06,9.99999e-01
4.907592831e-01,6.76168e-06,9.99999e-01,6.76168e-06,9.99999e-01
4.932130795e-01,8.55409e-06,9.99999e-01,8.55409e-06,9.99999e-01
4.956791449e-01,1.07715e-05,9.99999e-01,1.07715e-05,9.99999e-01
4.981575406e-01,1.35021e-05,9.99999e-01,1.35021e-05,9.99999e-01
5.006483283e-01,1.68495e-05,9.99999e-01,1.68495e-05,9.99999e-01
5.031515699e-01,2.09351e-05,9.99999e-01,2.09351e-05,9.99999e-01
5.056673278e-01,2.58999e-05,9.99999e-01,2.58999e-05,9.99999e-01
5.081956644e-01,3.19078e-05,9.99999e-01,3.19078e-05,9.99999e-01
5.107366428e-01,3.91477e-05,9.99999e-01,3.91477e-05,9.99999e-01
5.132903260e-01,4.78367e-05,9.99999e-01,4.78367e-05,9.99999e-01
5.158567776e-01,5.82233e-05,9.99999e-01,5.82233e-05,9.99999e-01
5.184360615e-01,7.05906e-05,9.99999e-01,7.05906e-05,9.99999e-01
5.210282418e-01,8.52598e-05,9.99999e-01,8.52598e-05,9.99999e-01
5.236333830e-01,1.02594e-04,9.99999e-01,1.02594e-04,9.99999e-01
5.262515499e-01,1.23002e-04,9.99999e-01,1.23002e-04,9.99999e-01
5.288828077e-01,1.46942e-04,9.99999e-01,1.46942e-04,9.99999e-01
5.315272217e-01,1.74926e-04,9.99999e-01,1.74926e-04,9.99999e-01
5.341848578e-01,2.07524e-04,9.99999e-01,2.07524e-04,9.99999e-01
5.368557821e-01,2.45366e-04,9.99999e-01,2.45366e-04,9.99999e-01
5.395400610e-01,2.89151e-04,9.99999e-01,2.89151e-04,9.99999e-01
5.422377613e-01,3.39646e-04,9.99999e-01,3.39646e-04,9.99999e-01
5.449489501e-01,3.97692e-04,9.99999e-01,3.97692e-04,9.99999e-01
5.476736949e-01,4.64210e-04,9.99999e-01,4.64210e-04,9.99999e-01
5.504120634e-01,5.40200e-04,9.99999e-01,5.40200e-04,9.99999e-01
5.531641237e-01,6.26751e-04,9.99999e-01,6.26751e-04,9.99999e-01
5.559299443e-01,7.25037e-04,9.99999e-01,7.25037e-04,9.99999e-01
5.587095940e-01,8.36327e-04,9.99999e-01,8.36327e-04,9.99999e-01
5.615031420e-01,9.61982e-04,9.99999e-01,9.61982e-04,9.99999e-01
5.643106577e-01,1.10346e-03,9.99999e-01,1.10346e-03,9.99999e-01
5.671322110e-01,1.26232e-03,9.99999e-01,1.26232e-03,9.99999e-01
5.699678720e-01,1.44022e-03,9.99999e-01,1.44022e-03,9.99999e-01
5.728177114e-01,1.63892e-03,9.99999e-01,1.63892e-03,9.99999e-01
5.756818000e-01,1.86027e-03,9.99999e-01,1.86027e-03,9.99999e-01
5.785602090e-01,2.10624e-03,9.99999e-01,2.10624e-03,9.99999e-01
5.814530100e-01,2.37890e-03,9.99999e-01,2.37890e-03,9.99999e-01
5.843602750e-01,2.68040e-03,9.99999e-01,2.68040e-03,9.99999e-01
5.872820764e-01,3.01300e-03,9.99999e-01,3.01300e-03,9.99999e-01
5.902184868e-01,3.37905e-03,9.99999e-01,3.37905e-03,9.99999e-01
5.931695792e-01,3.78100e-03,9.99999e-01,3.78100e-03,9.99999e-01
5.961354271e-01,4.22139e-03,9.99999e-01,4.22139e-03,9.99999e-01
5.991161043e-01,4.70282e-03,9.99999e-01,4.70282e-03,9.99999e-01
6.021116848e-01,5.22799e-03,9.99999e-01,5.22799e-03,9.99999e-01
6.051222432e-01,5.79967e-03,9.99999e-01,5.79967e-03,9.99999e-01
6.081478544e-01,6.42069e-03,9.99999e-01,6.42069e-03,9.99999e-01
6.111885937e-01,7.09394e-03,9.99999e-01,7.09394e-03,9.99999e-01
6.142445367e-01,7.82236e-03,9.99999e-01,7.82236e-03,9.99999e-01
6.173157594e-01,8.60894e-03,9.99999e-01,8.60894e-03,9.99999e-01
6.204023382e-01,9.45670e-03,9.99999e-01,9.45670e-03,9.99999e-01
6.235043498e-01,1.03687e-02,9.99999e-01,1.03687e-02,9.99999e-01
6.266218716e-01,1.13480e-02,9.99999e-01,1.13480e-02,9.99999e-01
6.297549810e-01,1.23976e-02,9.99999e-01,1.23976e-02,9.99999e-01
6.329037559e-01,1.35207e-02,9.99999e-01,1.35207e-02,9.99999e-01
6.360682746e-01,1.47203e-02,9.99999e-01,1.47203e-02,9.99999e-01
6.392486160e-01,1.59994e-02,9.99999e-01,1.59994e-02,9.99999e-01
6.424448591e-01,1.73611e-02,9.99999e-01,1.73611e-02,9.99999e-01
6.456570834e-01,1.88084e-02,9.99999e-01,1.88084e-02,9.99999e-01
6.488853688e-01,2.03440e-02,9.99999e-01,2.03440e-02,9.99999e-01
6.521297956e-01,2.19710e-02,9.99999e-01,2.19710e-02,9.99999e-01
6.553904446e-01,2.36920e-02,9.99999e-01,2.36920e-02,9.99999e-01
6.586673968e-01,2.55098e-02,9.99999e-01,2.55098e-02,9.99999e-01
6.619607338e-01,2.74271e-02,9.99999e-01,2.74271e-02,9.99999e-01
6.652705375e-01,2.94462e-02,9.99999e-01,2.94462e-02,9.99999e-01
6.685968902e-01,3.15696e-02,9.99999e-01,3.15696e-02,9.99999e-01
6.719398746e-01,3.37997e-02,9.99999e-01,3.37997e-02,9.99999e-01
6.752995740e-01,3.61385e-02,9.99999e-01,3.61385e-02,9.99999e-01
6.786760719e-01,3.85881e-02,9.99999e-01,3.85881e-02,9.99999e-01
6.820694522e-01,4.11505e-02,9.99999e-01,4.11505e-02,9.99999e-01
6.854797995e-01,4.38273e-02,9.99999e-01,4.38273e-02,9.99999e-01
6.889071985e-01,4.66201e-02,9.99999e-01,4.66201e-02,9.99999e-01
6.923517345e-01,4.95304e-02,9.99999e-01,4.95304e-02,9.99999e-01
6.958134932e-01,5.25596e-02,9.99999e-01,5.25596e-02,9.99999e-01
6.992925606e-01,5.57086e-02,9.99999e-01,5.57086e-02,9.99999e-01
7.027890234e-01,5.89784e-02,9.99999e-01,5.89784e-02,9.99999e-01
7.063029686e-01,6.23699e-02,9.99999e-01,6.23699e-02,9.99999e-01
7.098344834e-01,6.58836e-02,9.99999e-01,6.58836e-02,9.99999e-01
7.133836558e-01,6.95199e-02,9.99999e-01,6.95199e-02,9.99999e-01
7.169505741e-01,7.32792e-02,9.99999e-01,7.32792e-02,9.99999e-01
7.205353270e-01,7.71614e-02,9.99999e-01,7.71614e-02,9.99999e-01
7.241380036e-01,8.11665e-02,9.99999e-01,8.11665e-02,9.99999e-01
7.277586936e-01,8.52941e-02,9.99999e-01,8.52941e-02,9.99999e-01
7.313974871e-01,8.95439e-02,9.99999e-01,8.95439e-02,9.99999e-01
7.350544745e-01,9.39152e-02,9.99999e-01,9.39152e-02,9.99999e-01
7.387297469e-01,9.84072e-02,9.99999e-01,9.84072e-02,9.99999e-01
7.424233956e-01,1.03019e-01,9.99999e-01,1.03019e-01,9.99999e-01
7.461355126e-01,1.07749e-01,9.99999e-01,1.07749e-01,9.99999e-01
7.498661902e-01,1.12597e-01,9.99999e-01,1.12597e-01,9.99999e-01
7.536155211e-01,1.17560e-01,9.99999e-01,1.17560e-01,9.99999e-01
7.573835987e-01,1.22638e-01,9.99999e-01,1.22638e-01,9.99999e-01
7.611705167e-01,1.27829e-01,9.99999e-01,1.27829e-01,9.99999e-01
7.649763693e-01,1.33129e-01,9.99999e-01,1.33129e-01,9.99999e-01
7.688012511e-01,1.38539e-01,9.99999e-01,1.38539e-01,9.99999e-01
7.726452574e-01,1.44055e-01,9.99999e-01,1.44055e-01,9.99999e-01
7.765084837e-01,1.49675e-01,9.99999e-01,1.49675e-01,9.99999e-01
7.803910261e-01,1.43265e-01,9.21930e-01,1.55397e-01,9.99999e-01
7.842929812e-01,1.10842e-01,6.87529e-01,1.61218e-01,9.99999e-01
7.882144461e-01,1.12117e-01,6.70817e-01,1.67135e-01,9.99999e-01
7.921555184e-01,1.35820e-01,7.84418e-01,1.73147e-01,9.99999e-01
7.961162960e-01,1.52310e-01,8.49710e-01,1.79250e-01,9.99999e-01
8.000968774e-01,1.69728e-01,9.15269e-01,1.85440e-01,9.99999e-01
8.040973618e-01,1.83142e-01,9.55278e-01,1.91716e-01,9.99999e-01
8.081178486e-01,1.93939e-01,9.79124e-01,1.98074e-01,9.99999e-01
8.121584379e-01,2.03196e-01,9.93568e-01,2.04511e-01,9.99999e-01
8.162192301e-01,2.10724e-01,9.98575e-01,2.11024e-01,9.99999e-01
8.203003262e-01,2.17606e-01,9.99980e-01,2.17610e-01,9.99999e-01
8.244018279e-01,2.24265e-01,9.99999e-01,2.24265e-01,9.99999e-01
8.285238370e-01,2.30986e-01,9.99999e-01,2.30986e-01,9.99999e-01
8.326664562e-01,2.37769e-01,9.99999e-01,2.37769e-01,9.99999e-01
8.368297885e-01,2.44612e-01,9.99999e-01,2.44612e-01,9.99999e-01
8.410139374e-01,2.51511e-01,9.99999e-01,2.51511e-01,9.99999e-01
8.452190071e-01,2.58463e-01,9.99999e-01,2.58463e-01,9.99999e-01
8.494451021e-01,2.65463e-01,9.99999e-01,2.65463e-01,9.99999e-01
8.536923276e-01,2.72510e-01,9.99999e-01,2.72510e-01,9.99999e-01
8.579607893e-01,2.79598e-01,9.99999e-01,2.79598e-01,9.99999e-01
8.622505932e-01,2.86726e-01,9.99999e-01,2.86726e-01,9.99999e-01
8.665618462e-01,2.57051e-01,8.74654e-01,2.93889e-01,9.99999e-01
8.708946554e-01,1.18623e-01,3.93986e-01,3.01084e-01,9.99999e-01
8.752491287e-01,1.43056e-01,4.64002e-01,3.08308e-01,9.99999e-01
8.796253743e-01,2.05280e-01,6.50529e-01,3.15558e-01,9.99999e-01
8.840235012e-01,2.57485e-01,7.97588e-01,3.22830e-01,9.99999e-01
8.884436187e-01,3.01940e-01,9.14635e-01,3.30120e-01,9.99999e-01
8.928858368e-01,3.25401e-01,9.64360e-01,3.37427e-01,9.99999e-01
8.973502660e-01,3.41737e-01,9.91270e-01,3.44746e-01,9.99999e-01
9.018370173e-01,3.51736e-01,9.99036e-01,3.52075e-01,9.99999e-01
9.063462024e-01,3.50461e-01,9.75100e-01,3.59410e-01,9.99999e-01
9.108779334e-01,3.46323e-01,9.44305e-01,3.66748e-01,9.99999e-01
9.154323231e-01,3.69136e-01,9.86764e-01,3.74087e-01,9.99999e-01
9.200094847e-01,3.18718e-01,8.35600e-01,3.81424e-01,9.99999e-01
9.246095321e-01,2.93960e-01,7.56156e-01,3.88755e-01,9.99999e-01
9.292325798e-01,3.18484e-01,8.04092e-01,3.96078e-01,9.99999e-01
9.338787427e-01,3.26704e-01,8.09895e-01,4.03390e-01,9.99999e-01
9.385481364e-01,3.51379e-01,8.55582e-01,4.10689e-01,9.99999e-01
9.432408771e-01,3.79845e-01,9.08779e-01,4.17972e-01,9.99999e-01
9.479570815e-01,4.04819e-01,9.51985e-01,4.25237e-01,9.99999e-01
9.526968669e-01,4.22368e-01,9.76618e-01,4.32480e-01,9.99999e-01
9.574603512e-01,4.35276e-01,9.89936e-01,4.39700e-01,9.99999e-01
9.622476530e-01,4.45489e-01,9.96853e-01,4.46895e-01,9.99999e-01
9.670588912e-01,4.53634e-01,9.99058e-01,4.54062e-01,9.99999e-01
9.718941857e-01,4.61168e-01,9.99934e-01,4.61198e-01,9.99999e-01
9.767536566e-01,4.68303e-01,9.99999e-01,4.68303e-01,9.99999e-01
9.816374249e-01,4.75373e-01,9.99999e-01,4.75373e-01,9.99999e-01
9.865456120e-01,4.82407e-01,9.99999e-01,4.82407e-01,9.99999e-01
9.914783401e-01,4.89404e-01,9.99999e-01,4.89404e-01,9.99999e-01
9.964357318e-01,4.96360e-01,9.99999e-01,4.96360e-01,9.99999e-01
1.001417910e+00,5.03275e-01,9.99999e-01,5.03275e-01,9.99999e-01
1.006425000e+00,5.10148e-01,9.99999e-01,5.10148e-01,9.99999e-01
1.011457125e+00,5.16975e-01,9.99999e-01,5.16975e-01,9.99999e-01
1.016514411e+00,5.23756e-01,9.99999e-01,5.23756e-01,9.99999e-01
1.021596983e+00,5.30410e-01,9.99848e-01,5.30490e-01,9.99999e-01
1.026704968e+00,5.31848e-01,9.90084e-01,5.37175e-01,9.99999e-01
1.031838492e+00,4.95874e-01,9.11853e-01,5.43809e-01,9.99999e-01
1.036997685e+00,3.34723e-02,6.08153e-02,5.50392e-01,9.99999e-01
1.042182673e+00,4.22513e-03,7.58656e-03,5.56922e-01,9.99999e-01
1.047393587e+00,9.42388e-03,1.67268e-02,5.63398e-01,9.99999e-01
1.052630555e+00,3.85933e-06,6.77289e-06,5.69820e-01,9.99999e-01
1.057893707e+00,1.46154e-05,2.53657e-05,5.76185e-01,9.99999e-01
1.063183176e+00,2.22488e-04,3.81957e-04,5.82494e-01,9.99999e-01
1.068499092e+00,1.70281e-03,2.89227e-03,5.88746e-01,9.99999e-01
1.073841587e+00,1.41039e-02,2.37065e-02,5.94939e-01,9.99999e-01
1.079210795e+00,5.69751e-02,9.47889e-02,6.01073e-01,9.99999e-01
1.084606849e+00,1.61055e-01,2.65266e-01,6.07147e-01,9.99999e-01
1.090029883e+00,3.06157e-01,4.99309e-01,6.13161e-01,9.99999e-01
1.095480033e+00,4.39417e-01,7.09752e-01,6.19113e-01,9.99999e-01
1.100957433e+00,5.29452e-01,8.47117e-01,6.25005e-01,9.99999e-01
1.106462220e+00,5.89009e-01,9.33699e-01,6.30834e-01,9.99999e-01
1.111994531e+00,6.20602e-01,9.74868e-01,6.36601e-01,9.99999e-01
1.117554504e+00,6.38346e-01,9.93836e-01,6.42305e-01,9.99999e-01
1.123142276e+00,6.47685e-01,9.99596e-01,6.47946e-01,9.99999e-01
1.128757988e+00,6.53524e-01,9.99999e-01,6.53524e-01,9.99999e-01
1.134401778e+00,6.59038e-01,9.99999e-01,6.59038e-01,9.99999e-01
1.140073787e+00,6.64488e-01,9.99999e-01,6.64488e-01,9.99999e-01
1.145774156e+00,6.69875e-01,9.99999e-01,6.69875e-01,9.99999e-01
1.151503026e+00,6.75197e-01,9.99999e-01,6.75197e-01,9.99999e-01
1.157260541e+00,6.80456e-01,9.99999e-01,6.80456e-01,9.99999e-01
1.163046844e+00,6.85650e-01,9.99999e-01,6.85650e-01,9.99999e-01
1.168862078e+00,6.90780e-01,9.99999e-01,6.90780e-01,9.99999e-01
1.174706389e+00,6.95846e-01,9.99999e-01,6.95846e-01,9.99999e-01
1.180579921e+00,7.00848e-01,9.99999e-01,7.00848e-01,9.99999e-01
1.186482820e+00,7.05771e-01,9.99976e-01,7.05786e-01,9.99999e-01
1.192415234e+00,6.86344e-01,9.65781e-01,7.10661e-01,9.99999e-01
1.198377311e+00,3.76013e-01,5.25545e-01,7.15472e-01,9.99999e-01
1.204369197e+00,1.21312e-25,1.68438e-25,7.20219e-01,9.99999e-01
1.210391043e+00,9.44131e-103,1.30242e-102,7.24903e-01,9.99999e-01
1.216442998e+00,5.79317e-89,7.94101e-89,7.29524e-01,9.99999e-01
1.222525213e+00,1.23992e-87,1.68907e-87,7.34083e-01,9.99999e-01
1.228637839e+00,1.15342e-67,1.56168e-67,7.38579e-01,9.99999e-01
1.234781029e+00,3.06798e-42,4.12910e-42,7.43013e-01,9.99999e-01
1.240954934e+00,4.38607e-28,5.86854e-28,7.47385e-01,9.99999e-01
1.247159708e+00,9.70061e-14,1.29050e-13,7.51696e-01,9.99999e-01
1.253395507e+00,2.67484e-09,3.53839e-09,7.55946e-01,9.99999e-01
1.259662485e+00,1.21278e-05,1.59548e-05,7.60135e-01,9.99999e-01
1.265960797e+00,1.67683e-03,2.19404e-03,7.64264e-01,9.99999e-01
1.272290601e+00,4.54948e-02,5.92122e-02,7.68334e-01,9.99999e-01
1.278652054e+00,3.98549e-02,5.16025e-02,7.72344e-01,9.99999e-01
1.285045314e+00,8.10577e-05,1.04416e-04,7.76295e-01,9.99999e-01
1.291470541e+00,2.50916e-12,3.21610e-12,7.80187e-01,9.99999e-01
1.297927893e+00,9.81272e-05,1.25159e-04,7.84022e-01,9.99999e-01
1.304417533e+00,4.32048e-03,5.48424e-03,7.87799e-01,9.99999e-01
1.310939621e+00,7.65196e-04,9.66742e-04,7.91519e-01,9.99999e-01
1.317494319e+00,1.22062e-35,1.53502e-35,7.95183e-01,9.99999e-01
1.324081790e+00,1.33382e-16,1.66979e-16,7.98791e-01,9.99999e-01
1.330702199e+00,8.73755e-14,1.08900e-13,8.02343e-01,9.99999e-01
1.337355710e+00,1.03142e-12,1.27993e-12,8.05841e-01,9.99999e-01
1.344042489e+00,4.91991e-13,6.07932e-13,8.09284e-01,9.99999e-01
1.350762701e+00,4.59940e-14,5.65959e-14,8.12674e-01,9.99999e-01
1.357516515e+00,9.55740e-09,1.17123e-08,8.16010e-01,9.99999e-01
1.364304097e+00,2.07887e-06,2.53738e-06,8.19294e-01,9.99999e-01
1.371125618e+00,1.15515e-03,1.40440e-03,8.22526e-01,9.99999e-01
1.377981246e+00,2.90060e-03,3.51287e-03,8.25707e-01,9.99999e-01
1.384871152e+00,3.06848e-02,3.70215e-02,8.28836e-01,9.99999e-01
1.391795508e+00,3.99960e-02,4.80770e-02,8.31915e-01,9.99999e-01
1.398754485e+00,1.24020e-01,1.48537e-01,8.34945e-01,9.99999e-01
1.405748258e+00,2.08838e-01,2.49232e-01,8.37925e-01,9.99999e-01
1.412776999e+00,3.47677e-01,4.13480e-01,8.40857e-01,9.99999e-01
1.419840884e+00,3.17365e-01,3.76140e-01,8.43741e-01,9.99999e-01
1.426940089e+00,1.31815e-02,1.55703e-02,8.46577e-01,9.99999e-01
1.434074789e+00,0.00000e+00,0.00000e+00,8.49367e-01,9.99999e-01
1.441245163e+00,0.00000e+00,0.00000e+00,8.52110e-01,9.99999e-01
1.448451389e+00,0.00000e+00,0.00000e+00,8.54808e-01,9.99999e-01
1.455693646e+00,0.00000e+00,0.00000e+00,8.57461e-01,9.99999e-01
1.462972114e+00,0.00000e+00,0.00000e+00,8.60070e-01,9.99999e-01
1.470286975e+00,4.21450e-170,4.88561e-170,8.62634e-01,9.99999e-01
1.477638409e+00,8.03043e-107,9.28205e-107,8.65156e-01,9.99999e-01
1.485026601e+00,2.18139e-59,2.51418e-59,8.67634e-01,9.99999e-01
1.492451734e+00,1.40718e-50,1.61731e-50,8.70071e-01,9.99999e-01
1.499913993e+00,7.74720e-22,8.87964e-22,8.72466e-01,9.99999e-01
1.507413563e+00,1.34298e-20,1.53514e-20,8.74821e-01,9.99999e-01
1.514950631e+00,4.14162e-22,4.72176e-22,8.77135e-01,9.99999e-01
1.522525384e+00,7.25082e-76,8.24510e-76,8.79409e-01,9.99999e-01
1.530138011e+00,1.52834e-181,1.73351e-181,8.81644e-01,9.99999e-01
1.537788701e+00,3.18245e-134,3.60070e-134,8.83840e-01,9.99999e-01
1.545477645e+00,3.86372e-28,4.36086e-28,8.85999e-01,9.99999e-01
1.553205033e+00,1.56708e-20,1.76449e-20,8.88119e-01,9.99999e-01
1.560971058e+00,7.85558e-21,8.82447e-21,8.90203e-01,9.99999e-01
1.568775913e+00,0.00000e+00,0.00000e+00,8.92251e-01,9.99999e-01
1.576619793e+00,0.00000e+00,0.00000e+00,8.94262e-01,9.99999e-01
1.584502892e+00,0.00000e+00,0.00000e+00,8.96238e-01,9.99999e-01
1.592425406e+00,0.00000e+00,0.00000e+00,8.98180e-01,9.99999e-01
1.600387533e+00,0.00000e+00,0.00000e+00,9.00087e-01,9.99999e-01
1.608389471e+00,0.00000e+00,0.00000e+00,9.01960e-01,9.99999e-01
1.616431418e+00,0.00000e+00,0.00000e+00,9.03801e-01,9.99999e-01
1.624513575e+00,0.00000e+00,0.00000e+00,9.05608e-01,9.99999e-01
1.632636143e+00,0.00000e+00,0.00000e+00,9.07383e-01,9.99999e-01
1.640799324e+00,1.42789e-157,1.57061e-157,9.09127e-01,9.99999e-01
1.649003321e+00,1.42986e-157,1.56983e-157,9.10839e-01,9.99999e-01
1.657248337e+00,1.05107e-121,1.15183e-121,9.12521e-01,9.99999e-01
1.665534579e+00,1.60886e-122,1.75991e-122,9.14173e-01,9.99999e-01
1.673862252e+00,5.06381e-78,5.52941e-78,9.15794e-01,9.99999e-01
1.682231563e+00,6.10230e-54,6.65182e-54,9.17387e-01,9.99999e-01
1.690642721e+00,7.60336e-30,8.27395e-30,9.18951e-01,9.99999e-01
1.699095934e+00,5.10168e-19,5.54237e-19,9.20486e-01,9.99999e-01
1.707591414e+00,9.09959e-10,9.86945e-10,9.21994e-01,9.99999e-01
1.716129371e+00,5.07618e-06,5.49682e-06,9.23474e-01,9.99999e-01
1.724710018e+00,8.55824e-04,9.25287e-04,9.24927e-01,9.99999e-01
1.733333568e+00,8.60834e-03,9.29270e-03,9.26354e-01,9.99999e-01
1.742000236e+00,6.05731e-02,6.52899e-02,9.27755e-01,9.99999e-01
1.750710237e+00,2.18236e-04,2.34882e-04,9.29130e-01,9.99999e-01
1.759463788e+00,1.70392e-74,1.83122e-74,9.30480e-01,9.99999e-01
1.768261107e+00,5.73629e-78,6.15610e-78,9.31806e-01,9.99999e-01
1.777102413e+00,5.67764e-76,6.08466e-76,9.33106e-01,9.99999e-01
1.785987925e+00,4.08460e-71,4.37143e-71,9.34383e-01,9.99999e-01
1.794917864e+00,6.67093e-68,7.12982e-68,9.35637e-01,9.99999e-01
1.803892454e+00,3.03463e-65,3.23912e-65,9.36867e-01,9.99999e-01
1.812911916e+00,1.08364e-62,1.15517e-62,9.38075e-01,9.99999e-01
1.821976476e+00,9.45637e-63,1.00679e-62,9.39260e-01,9.99999e-01
1.831086358e+00,2.51600e-50,2.67538e-50,9.40423e-01,9.99999e-01
1.840241790e+00,7.59234e-43,8.06352e-43,9.41565e-01,9.99999e-01
1.849442999e+00,9.27541e-30,9.83934e-30,9.42685e-01,9.99999e-01
1.858690214e+00,5.28988e-28,5.60495e-28,9.43785e-01,9.99999e-01
1.867983665e+00,1.34436e-28,1.42280e-28,9.44864e-01,9.99999e-01
1.877323583e+00,1.18531e-142,1.25307e-142,9.45923e-01,9.99999e-01
