#,Wave/freq,Total,CO2,Rayleigh,CIA
4.000000000e-01,2.96918e-21,9.99999e-01,2.96918e-21,9.99999e-01
4.020000000e-01,7.56015e-21,9.99999e-01,7.56015e-21,9.99999e-01
4.040100000e-01,1.88790e-20,9.99999e-01,1.88790e-20,9.99999e-01
4.060300500e-01,4.62996e-20,9.99999e-01,4.62996e-20,9.99999e-01
4.080602003e-01,1.11553e-19,9.99999e-01,1.11553e-19,9.99999e-01
4.101005013e-01,2.64143e-19,9.99999e-01,2.64143e-19,9.99999e-01
4.121510038e-01,6.14899e-19,9.99999e-01,6.14899e-19,9.99999e-01
4.142117588e-01,1.40773e-18,9.99999e-01,1.40773e-18,9.99999e-01
4.162828176e-01,3.17053e-18,9.99999e-01,3.17053e-18,9.99999e-01
4.183642317e-01,7.02712e-18,9.99999e-01,7.02712e-18,9.99999e-01
4.204560528e-01,1.53319e-17,9.99999e-01,1.53319e-17,9.99999e-01
4.225583331e-01,3.29399e-17,9.99999e-01,3.29399e-17,9.99999e-01
4.246711247e-01,6.97089e-17,9.99999e-01,6.97089e-17,9.99999e-01
4.267944804e-01,1.45353e-16,9.99999e-01,1.45353e-16,9.99999e-01
4.289284528e-01,2.98713e-16,9.99999e-01,2.98713e-16,9.99999e-01
4.310730950e-01,6.05211e-16,9.99999e-01,6.05211e-16,9.99999e-01
4.332284605e-01,1.20921e-15,9.99999e-01,1.20921e-15,9.99999e-01
4.353946028e-01,2.38319e-15,9.99999e-01,2.38319e-15,9.99999e-01
4.375715758e-01,4.63443e-15,9.99999e-01,4.63443e-15,9.99999e-01
4.397594337e-01,8.89465e-15,9.99999e-01,8.89465e-15,9.99999e-01
4.419582309e-01,1.68526e-14,9.99999e-01,1.68526e-14,9.99999e-01
4.441680220e-01,3.15301e-14,9.99999e-01,3.15301e-14,9.99999e-01
4.463888621e-01,5.82652e-14,9.99999e-01,5.82652e-14,9.99999e-01
4.486208064e-01,1.06371e-13,9.99999e-01,1.06371e-13,9.99999e-01
4.508639105e-01,1.91901e-13,9.99999e-01,1.91901e-13,9.99999e-01
4.531182300e-01,3.42191e-13,9.99999e-01,3.42191e-13,9.99999e-01
4.553838212e-01,6.03250e-13,9.99999e-01,6.03250e-13,9.99999e-01
4.576607403e-01,1.05163e-12,9.99999e-01,1.05163e-12,9.99999e-01
4.599490440e-01,1.81326e-12,9.99999e-01,1.81326e-12,9.99999e-01
4.622487892e-01,3.09304e-12,9.99999e-01,3.09304e-12,9.99999e-01
4.645600332e-01,5.22070e-12,9.99999e-01,5.22070e-12,9.99999e-01
4.668828333e-01,8.72130e-12,9.99999e-01,8.72130e-12,9.99999e-01
4.692172475e-01,1.44222e-11,9.99999e-01,1.44222e-11,9.99999e-01
4.715633337e-01,2.36139e-11,9.99999e-01,2.36139e-11,9.99999e-01
4.739211504e-01,3.82890e-11,9.99999e-01,3.82890e-11,9.99999e-01
4.762907561e-01,6.14943e-11,9.99999e-01,6.14943e-11,9.99999e-01
4.786722099e-01,9.78432e-11,9.99999e-01,9.78432e-11,9.99999e-01
4.810655710e-01,1.54256e-10,9.99999e-01,1.54256e-10,9.99999e-01
4.834708988e-01,2.41018e-10,9.99999e-01,2.41018e-10,9.99999e-01
4.858882533e-01,3.73273e-10,9.99999e-01,3.73273e-10,9.99999e-01
4.883176946e-01,5.73130e-10,9.99999e-01,5.73130e-10,9.99999e-01
4.907592831e-01,8.72570e-10,9.99999e-01,8.72570e-10,9.99999e-01
4.932130795e-01,1.31747e-09,9.99999e-01,1.31747e-09,9.99999e-01
4.956791449e-01,1.97310e-09,9.99999e-01,1.97310e-09,9.99999e-01
4.981575406e-01,2.93151e-09,9.99999e-01,2.93151e-09,9.99999e-01
5.006483283e-01,4.32153e-09,9.99999e-01,4.32153e-09,9.99999e-01
5.031515699e-01,6.32200e-09,9.99999e-01,6.32200e-09,9.99999e-01
5.056673278e-01,9.17926e-09,9.99999e-01,9.17926e-09,9.99999e-01
5.081956644e-01,1.32301e-08,9.99999e-01,1.32301e-08,9.99999e-01
5.107366428e-01,1.89313e-08,9.99999e-01,1.89313e-08,9.99999e-01
5.132903260e-01,2.68984e-08,9.99999e-01,2.68984e-08,9.99999e-01
5.158567776e-01,3.79540e-08,9.99999e-01,3.79540e-08,9.99999e-01
5.184360615e-01,5.31907e-08,9.99999e-01,5.31907e-08,9.99999e-01
5.210282418e-01,7.40488e-08,9.99999e-01,7.40488e-08,9.99999e-01
5.236333830e-01,1.02415e-07,9.99999e-01,1.02415e-07,9.99999e-01
5.262515499e-01,1.40743e-07,9.99999e-01,1.40743e-07,9.99999e-01
5.288828077e-01,1.92203e-07,9.99999e-01,1.92203e-07,9.99999e-01
5.315272217e-01,2.60870e-07,9.99999e-01,2.60870e-07,9.99999e-01
5.341848578e-01,3.51937e-07,9.99999e-01,3.51937e-07,9.99999e-01
5.368557821e-01,4.71996e-07,9.99999e-01,4.71996e-07,9.99999e-01
5.395400610e-01,6.29353e-07,9.99999e-01,6.29353e-07,9.99999e-01
5.422377613e-01,8.34414e-07,9.99999e-01,8.34414e-07,9.99999e-01
5.449489501e-01,1.10014e-06,9.99999e-01,1.10014e-06,9.99999e-01
5.476736949e-01,1.44260e-06,9.99999e-01,1.44260e-06,9.99999e-01
5.504120634e-01,1.88155e-06,9.99999e-01,1.88155e-06,9.99999e-01
5.531641237e-01,2.44123e-06,9.99999e-01,2.44123e-06,9.99999e-01
5.559299443e-01,3.15114e-06,9.99999e-01,3.15114e-06,9.99999e-01
5.587095940e-01,4.04703e-06,9.99999e-01,4.04703e-06,9.99999e-01
5.615031420e-01,5.17201e-06,9.99999e-01,5.17201e-06,9.99999e-01
5.643106577e-01,6.57775e-06,9.99999e-01,6.57775e-06,9.99999e-01
5.671322110e-01,8.32594e-06,9.99999e-01,8.32594e-06,9.99999e-01
5.699678720e-01,1.04898e-05,9.99999e-01,1.04898e-05,9.99999e-01
5.728177114e-01,1.31559e-05,9.99999e-01,1.31559e-05,9.99999e-01
5.756818000e-01,1.64259e-05,9.99999e-01,1.64259e-05,9.99999e-01
5.785602090e-01,2.04190e-05,9.99999e-01,2.04190e-05,9.99999e-01
5.814530100e-01,2.52739e-05,9.99999e-01,2.52739e-05,9.99999e-01
5.843602750e-01,3.11516e-05,9.99999e-01,3.11516e-05,9.99999e-01
5.872820764e-01,3.82381e-05,9.99999e-01,3.82381e-05,9.99999e-01
5.902184868e-01,4.67469e-05,9.99999e-01,4.67469e-05,9.99999e-01
5.931695792e-01,5.69227e-05,9.99999e-01,5.69227e-05,9.99999e-01
5.961354271e-01,6.90445e-05,9.99999e-01,6.90445e-05,9.99999e-01
5.991161043e-01,8.34290e-05,9.99999e-01,8.34290e-05,9.99999e-01
6.021116848e-01,1.00434e-04,9.99999e-01,1.00434e-04,9.99999e-01
6.051222432e-01,1.20463e-04,9.99999e-01,1.20463e-04,9.99999e-01
6.081478544e-01,1.43968e-04,9.99999e-01,1.43968e-04,9.99999e-01
6.111885937e-01,1.71455e-04,9.99999e-01,1.71455e-04,9.99999e-01
6.142445367e-01,2.03486e-04,9.99999e-01,2.03486e-04,9.99999e-01
6.173157594e-01,2.40686e-04,9.99999e-01,2.40686e-04,9.99999e-01
6.204023382e-01,2.83744e-04,9.99999e-01,2.83744e-04,9.99999e-01
6.235043498e-01,3.33418e-04,9.99999e-01,3.33418e-04,9.99999e-01
6.266218716e-01,3.90543e-04,9.99999e-01,3.90543e-04,9.99999e-01
6.297549810e-01,4.56029e-04,9.99999e-01,4.56029e-04,9.99999e-01
6.329037559e-01,5.30866e-04,9.99999e-01,5.30866e-04,9.99999e-01
6.360682746e-01,6.16134e-04,9.99999e-01,6.16134e-04,9.99999e-01
6.392486160e-01,7.12995e-04,9.99999e-01,7.12995e-04,9.99999e-01
6.424448591e-01,8.22709e-04,9.99999e-01,8.22709e-04,9.99999e-01
6.456570834e-01,9.46624e-04,9.99999e-01,9.46624e-04,9.99999e-01
6.488853688e-01,1.08619e-03,9.99999e-01,1.08619e-03,9.99999e-01
6.521297956e-01,1.24295e-03,9.99999e-01,1.24295e-03,9.99999e-01
6.553904446e-01,1.41855e-03,9.99999e-01,1.41855e-03,9.99999e-01
6.586673968e-01,1.61474e-03,9.99999e-01,1.61474e-03,9.99999e-01
6.619607338e-01,1.83337e-03,9.99999e-01,1.83337e-03,9.99999e-01
6.652705375e-01,2.07639e-03,9.99999e-01,2.07639e-03,9.99999e-01
6.685968902e-01,2.34584e-03,9.99999e-01,2.34584e-03,9.99999e-01
6.719398746e-01,2.64388e-03,9.99999e-01,2.64388e-03,9.99999e-01
6.752995740e-01,2.97275e-03,9.99999e-01,2.97275e-03,9.99999e-01
6.786760719e-01,3.33480e-03,9.99999e-01,3.33480e-03,9.99999e-01
6.820694522e-01,3.73246e-03,9.99999e-01,3.73246e-03,9.99999e-01
6.854797995e-01,4.16825e-03,9.99999e-01,4.16825e-03,9.99999e-01
6.889071985e-01,4.64479e-03,9.99999e-01,4.64479e-03,9.99999e-01
6.923517345e-01,5.16475e-03,9.99999e-01,5.16475e-03,9.99999e-01
6.958134932e-01,5.73089e-03,9.99999e-01,5.73089e-03,9.99999e-01
6.992925606e-01,6.34604e-03,9.99999e-01,6.34604e-03,9.99999e-01
7.027890234e-01,7.01308e-03,9.99999e-01,7.01308e-03,9.99999e-01
7.063029686e-01,7.73495e-03,9.99999e-01,7.73495e-03,9.99999e-01
7.098344834e-01,8.51462e-03,9.99999e-01,8.51462e-03,9.99999e-01
7.133836558e-01,9.35513e-03,9.99999e-01,9.35513e-03,9.99999e-01
7.169505741e-01,1.02595e-02,9.99999e-01,1.02595e-02,9.99999e-01
7.205353270e-01,1.12308e-02,9.99999e-01,1.12308e-02,9.99999e-01
7.241380036e-01,1.22722e-02,9.99999e-01,1.22722e-02,9.99999e-01
7.277586936e-01,1.33866e-02,9.99999e-01,1.33866e-02,9.99999e-01
7.313974871e-01,1.45771e-02,9.99999e-01,1.45771e-02,9.99999e-01
7.350544745e-01,1.58469e-02,9.99999e-01,1.58469e-02,9.99999e-01
7.387297469e-01,1.71989e-02,9.99999e-01,1.71989e-02,9.99999e-01
7.424233956e-01,1.86360e-02,9.99999e-01,1.86360e-02,9.99999e-01
7.461355126e-01,2.01613e-02,9.99999e-01,2.01613e-02,9.99999e-01
7.498661902e-01,2.17775e-02,9.99999e-01,2.17775e-02,9.99999e-01
7.536155211e-01,2.34875e-02,9.99999e-01,2.34875e-02,9.99999e-01
7.573835987e-01,2.52939e-02,9.99999e-01,2.52939e-02,9.99999e-01
7.611705167e-01,2.71995e-02,9.99999e-01,2.71995e-02,9.99999e-01
7.649763693e-01,2.92067e-02,9.99999e-01,2.92067e-02,9.99999e-01
7.688012511e-01,3.13179e-02,9.99999e-01,3.13179e-02,9.99999e-01
7.726452574e-01,3.35355e-02,9.99999e-01,3.35355e-02,9.99999e-01
7.765084837e-01,3.58616e-02,9.99999e-01,3.58616e-02,9.99999e-01
7.803910261e-01,3.40990e-02,8.90352e-01,3.82983e-02,9.99999e-01
7.842929812e-01,2.16442e-02,5.29878e-01,4.08474e-02,9.99999e-01
7.882144461e-01,2.24746e-02,5.16527e-01,4.35109e-02,9.99999e-01
7.921555184e-01,3.04849e-02,6.58560e-01,4.62902e-02,9.99999e-01
7.961162960e-01,3.69218e-02,7.50645e-01,4.91868e-02,9.99999e-01
8.000968774e-01,4.46749e-02,8.55805e-01,5.22021e-02,9.99999e-01
8.040973618e-01,5.10170e-02,9.21930e-01,5.53371e-02,9.99999e-01
8.081178486e-01,5.64528e-02,9.63473e-01,5.85929e-02,9.99999e-01
8.121584379e-01,6.12560e-02,9.88472e-01,6.19703e-02,9.99999e-01
8.162192301e-01,6.53023e-02,9.97441e-01,6.54698e-02,9.99999e-01
8.203003262e-01,6.90889e-02,9.99956e-01,6.90919e-02,9.99999e-01
8.244018279e-01,7.28368e-02,9.99999e-01,7.28368e-02,9.99999e-01
8.285238370e-01,7.67048e-02,9.99999e-01,7.67048e-02,9.99999e-01
8.326664562e-01,8.06956e-02,9.99999e-01,8.06956e-02,9.99999e-01
8.368297885e-01,8.48091e-02,9.99999e-01,8.48091e-02,9.99999e-01
8.410139374e-01,8.90447e-02,9.99999e-01,8.90447e-02,9.99999e-01
8.452190071e-01,9.34020e-02,9.99999e-01,9.34020e-02,9.99999e-01
8.494451021e-01,9.78800e-02,9.99999e-01,9.78800e-02,9.99999e-01
8.536923276e-01,1.02478e-01,9.99999e-01,1.02478e-01,9.99999e-01
8.579607893e-01,1.07195e-01,9.99999e-01,1.07195e-01,9.99999e-01
8.622505932e-01,1.12029e-01,9.99999e-01,1.12029e-01,9.99999e-01
8.665618462e-01,9.97269e-02,8.52519e-01,1.16979e-01,9.99999e-01
8.708946554e-01,2.64933e-02,2.17081e-01,1.22043e-01,9.99999e-01
8.752491287e-01,3.44790e-02,2.71016e-01,1.27221e-01,9.99999e-01
8.796253743e-01,6.30983e-02,4.76181e-01,1.32509e-01,9.99999e-01
8.840235012e-01,9.28231e-02,6.73089e-01,1.37906e-01,9.99999e-01
8.884436187e-01,1.22381e-01,8.53363e-01,1.43410e-01,9.99999e-01
8.928858368e-01,1.39733e-01,9.37694e-01,1.49018e-01,9.99999e-01
8.973502660e-01,1.52311e-01,9.84378e-01,1.54728e-01,9.99999e-01
9.018370173e-01,1.60259e-01,9.98261e-01,1.60538e-01,9.99999e-01
9.063462024e-01,1.59643e-01,9.59134e-01,1.66444e-01,9.99999e-01
9.108779334e-01,1.55885e-01,9.03967e-01,1.72445e-01,9.99999e-01
9.154323231e-01,1.74308e-01,9.76312e-01,1.78537e-01,9.99999e-01
9.200094847e-01,1.40664e-01,7.61507e-01,1.84718e-01,9.99999e-01
9.246095321e-01,1.17173e-01,6.13523e-01,1.90984e-01,9.99999e-01
9.292325798e-01,1.36462e-01,6.91533e-01,1.97333e-01,9.99999e-01
9.338787427e-01,1.41270e-01,6.93312e-01,2.03761e-01,9.99999e-01
9.385481364e-01,1.60078e-01,7.61313e-01,2.10265e-01,9.99999e-01
9.432408771e-01,1.83093e-01,8.44359e-01,2.16842e-01,9.99999e-01
9.479570815e-01,2.04936e-01,9.16984e-01,2.23489e-01,9.99999e-01
9.526968669e-01,2.20778e-01,9.59057e-01,2.30203e-01,9.99999e-01
9.574603512e-01,2.32771e-01,9.82242e-01,2.36979e-01,9.99999e-01
9.622476530e-01,2.42455e-01,9.94418e-01,2.43816e-01,9.99999e-01
9.670588912e-01,2.50287e-01,9.98320e-01,2.50708e-01,9.99999e-01
9.718941857e-01,2.57623e-01,9.99878e-01,2.57654e-01,9.99999e-01
9.767536566e-01,2.64649e-01,9.99999e-01,2.64649e-01,9.99999e-01
9.816374249e-01,2.71690e-01,9.99999e-01,2.71690e-01,9.99999e-01
9.865456120e-01,2.78774e-01,9.99999e-01,2.78774e-01,9.99999e-01
9.914783401e-01,2.85897e-01,9.99999e-01,2.85897e-01,9.99999e-01
9.964357318e-01,2.93056e-01,9.99999e-01,2.93056e-01,9.99999e-01
1.001417910e+00,3.00248e-01,9.99999e-01,3.00248e-01,9.99999e-01
1.006425000e+00,3.07469e-01,9.99999e-01,3.07469e-01,9.99999e-01
1.011457125e+00,3.14716e-01,9.99999e-01,3.14716e-01,9.99999e-01
1.016514411e+00,3.21985e-01,9.99999e-01,3.21985e-01,9.99999e-01
1.021596983e+00,3.29206e-01,9.99794e-01,3.29274e-01,9.99999e-01
1.026704968e+00,3.31044e-01,9.83554e-01,3.36579e-01,9.99999e-01
1.031838492e+00,3.04157e-01,8.84441e-01,3.43897e-01,9.99999e-01
1.036997685e+00,1.15193e-02,3.27976e-02,3.51224e-01,9.99999e-01
1.042182673e+00,2.06630e-04,5.76278e-04,3.58559e-01,9.99999e-01
1.047393587e+00,6.24787e-04,1.70755e-03,3.65897e-01,9.99999e-01
1.052630555e+00,2.87412e-09,7.70055e-09,3.73236e-01,9.99999e-01
1.057893707e+00,1.05349e-08,2.76816e-08,3.80573e-01,9.99999e-01
1.063183176e+00,1.26937e-06,3.27237e-06,3.87905e-01,9.99999e-01
1.068499092e+00,2.32435e-05,5.88101e-05,3.95229e-01,9.99999e-01
1.073841587e+00,6.82507e-04,1.69549e-03,4.02543e-01,9.99999e-01
1.079210795e+00,7.71552e-03,1.88255e-02,4.09844e-01,9.99999e-01
1.084606849e+00,4.19798e-02,1.00640e-01,4.17129e-01,9.99999e-01
1.090029883e+00,1.26824e-01,2.98835e-01,4.24395e-01,9.99999e-01
1.095480033e+00,2.36888e-01,5.48806e-01,4.31641e-01,9.99999e-01
1.100957433e+00,3.27824e-01,7.46982e-01,4.38864e-01,9.99999e-01
1.106462220e+00,3.95175e-01,8.85919e-01,4.46062e-01,9.99999e-01
1.111994531e+00,4.33290e-01,9.56000e-01,4.53232e-01,9.99999e-01
1.117554504e+00,4.55318e-01,9.89021e-01,4.60372e-01,9.99999e-01
1.123142276e+00,4.67139e-01,9.99270e-01,4.67480e-01,9.99999e-01
1.128757988e+00,4.74555e-01,9.99999e-01,4.74555e-01,9.99999e-01
1.134401778e+00,4.81593e-01,9.99999e-01,4.81593e-01,9.99999e-01
1.140073787e+00,4.88594e-01,9.99999e-01,4.88594e-01,9.99999e-01
1.145774156e+00,4.95555e-01,9.99999e-01,4.95555e-01,9.99999e-01
1.151503026e+00,5.02476e-01,9.99999e-01,5.02476e-01,9.99999e-01
1.157260541e+00,5.09353e-01,9.99999e-01,5.09353e-01,9.99999e-01
1.163046844e+00,5.16185e-01,9.99999e-01,5.16185e-01,9.99999e-01
1.168862078e+00,5.22972e-01,9.99999e-01,5.22972e-01,9.99999e-01
1.174706389e+00,5.29711e-01,9.99999e-01,5.29711e-01,9.99999e-01
1.180579921e+00,5.36402e-01,9.99999e-01,5.36402e-01,9.99999e-01
1.186482820e+00,5.43030e-01,9.99978e-01,5.43042e-01,9.99999e-01
1.192415234e+00,5.19859e-01,9.45833e-01,5.49631e-01,9.99999e-01
1.198377311e+00,2.74618e-01,4.93769e-01,5.56167e-01,9.99999e-01
1.204369197e+00,3.25145e-43,5.77880e-43,5.62650e-01,9.99999e-01
1.210391043e+00,2.93812e-178,5.16295e-178,5.69078e-01,9.99999e-01
1.216442998e+00,4.14075e-154,7.19567e-154,5.75450e-01,9.99999e-01
1.222525213e+00,8.82478e-152,1.51689e-151,5.81765e-01,9.99999e-01
1.228637839e+00,7.31675e-117,1.24429e-116,5.88024e-01,9.99999e-01
1.234781029e+00,2.77809e-72,4.67516e-72,5.94223e-01,9.99999e-01
1.240954934e+00,1.13931e-47,1.89770e-47,6.00364e-01,9.99999e-01
1.247159708e+00,2.26761e-22,3.73917e-22,6.06445e-01,9.99999e-01
1.253395507e+00,2.89393e-15,4.72504e-15,6.12466e-01,9.99999e-01
1.259662485e+00,2.26248e-09,3.65845e-09,6.18426e-01,9.99999e-01
1.265960797e+00,3.27957e-05,5.25299e-05,6.24324e-01,9.99999e-01
1.272290601e+00,3.79469e-03,6.02178e-03,6.30161e-01,9.99999e-01
1.278652054e+00,5.46973e-03,8.60107e-03,6.35935e-01,9.99999e-01
1.285045314e+00,9.20141e-07,1.43403e-06,6.41647e-01,9.99999e-01
1.291470541e+00,2.24716e-20,3.47161e-20,6.47295e-01,9.99999e-01
1.297927893e+00,2.63349e-08,4.03364e-08,6.52880e-01,9.99999e-01
1.304417533e+00,9.16170e-05,1.39150e-04,6.58402e-01,9.99999e-01
1.310939621e+00,2.82025e-05,4.24826e-05,6.63859e-01,9.99999e-01
1.317494319e+00,6.23573e-60,9.31743e-60,6.69253e-01,9.99999e-01
1.324081790e+00,5.86035e-39,8.68735e-39,6.74583e-01,9.99999e-01
1.330702199e+00,3.52749e-23,5.18863e-23,6.79849e-01,9.99999e-01
1.337355710e+00,6.02117e-21,8.78937e-21,6.85051e-01,9.99999e-01
1.344042489e+00,3.87900e-21,5.62020e-21,6.90188e-01,9.99999e-01
1.350762701e+00,1.56096e-23,2.24514e-23,6.95262e-01,9.99999e-01
1.357516515e+00,6.44857e-14,9.20867e-14,7.00271e-01,9.99999e-01
1.364304097e+00,2.32123e-10,3.29150e-10,7.05217e-01,9.99999e-01
1.371125618e+00,1.08247e-05,1.52439e-05,7.10099e-01,9.99999e-01
1.377981246e+00,4.47478e-05,6.25915e-05,7.14917e-01,9.99999e-01
1.384871152e+00,2.46115e-03,3.41982e-03,7.19672e-01,9.99999e-01
1.391795508e+00,3.97869e-03,5.49266e-03,7.24363e-01,9.99999e-01
1.398754485e+00,2.58954e-02,3.55221e-02,7.28992e-01,9.99999e-01
1.405748258e+00,6.54796e-02,8.92630e-02,7.33557e-01,9.99999e-01
1.412776999e+00,1.57008e-01,2.12731e-01,7.38061e-01,9.99999e-01
1.419840884e+00,1.61741e-01,2.17833e-01,7.42502e-01,9.99999e-01
1.426940089e+00,4.47534e-03,5.99203e-03,7.46881e-01,9.99999e-01
1.434074789e+00,0.00000e+00,0.00000e+00,7.51199e-01,9.99999e-01
1.441245163e+00,0.00000e+00,0.00000e+00,7.55456e-01,9.99999e-01
1.448451389e+00,0.00000e+00,0.00000e+00,7.59653e-01,9.99999e-01
1.455693646e+00,0.00000e+00,0.00000e+00,7.63789e-01,9.99999e-01
1.462972114e+00,0.00000e+00,0.00000e+00,7.67865e-01,9.99999e-01
1.470286975e+00,3.51860e-296,4.55846e-296,7.71881e-01,9.99999e-01
1.477638409e+00,2.24941e-185,2.89932e-185,7.75839e-01,9.99999e-01
1.485026601e+00,2.59707e-102,3.33069e-102,7.79739e-01,9.99999e-01
1.492451734e+00,5.49993e-87,7.01897e-87,7.83580e-01,9.99999e-01
1.499913993e+00,1.46261e-36,1.85760e-36,7.87364e-01,9.99999e-01
1.507413563e+00,2.90825e-35,3.67624e-35,7.91091e-01,9.99999e-01
1.514950631e+00,5.00638e-37,6.29922e-37,7.94761e-01,9.99999e-01
1.522525384e+00,3.60731e-131,4.51831e-131,7.98375e-01,9.99999e-01
1.530138011e+00,2.90675e-316,3.62467e-316,8.01934e-01,9.99999e-01
1.537788701e+00,2.19485e-233,2.72503e-233,8.05438e-01,9.99999e-01
1.545477645e+00,1.36924e-47,1.69275e-47,8.08888e-01,9.99999e-01
1.553205033e+00,6.80287e-35,8.37498e-35,8.12284e-01,9.99999e-01
1.560971058e+00,6.70565e-35,8.22147e-35,8.15626e-01,9.99999e-01
1.568775913e+00,0.00000e+00,0.00000e+00,8.18916e-01,9.99999e-01
1.576619793e+00,0.00000e+00,0.00000e+00,8.22154e-01,9.99999e-01
1.584502892e+00,0.00000e+00,0.00000e+00,8.25340e-01,9.99999e-01
1.592425406e+00,0.00000e+00,0.00000e+00,8.28476e-01,9.99999e-01
1.600387533e+00,0.00000e+00,0.00000e+00,8.31561e-01,9.99999e-01
1.608389471e+00,0.00000e+00,0.00000e+00,8.34596e-01,9.99999e-01
1.616431418e+00,0.00000e+00,0.00000e+00,8.37582e-01,9.99999e-01
1.624513575e+00,0.00000e+00,0.00000e+00,8.40519e-01,9.99999e-01
1.632636143e+00,0.00000e+00,0.00000e+00,8.43408e-01,9.99999e-01
1.640799324e+00,3.00876e-274,3.55540e-274,8.46250e-01,9.99999e-01
1.649003321e+00,3.01603e-274,3.55225e-274,8.49045e-01,9.99999e-01
1.657248337e+00,1.88534e-211,2.21338e-211,8.51794e-01,9.99999e-01
1.665534579e+00,7.02014e-213,8.21551e-213,8.54497e-01,9.99999e-01
1.673862252e+00,5.98312e-135,6.98020e-135,8.57156e-01,9.99999e-01
1.682231563e+00,8.99231e-93,1.04590e-92,8.59769e-01,9.99999e-01
1.690642721e+00,1.41863e-50,1.64509e-50,8.62339e-01,9.99999e-01
1.699095934e+00,8.32483e-32,9.62556e-32,8.64865e-01,9.99999e-01
1.707591414e+00,1.64383e-15,1.89523e-15,8.67349e-01,9.99999e-01
1.716129371e+00,1.73482e-09,1.99453e-09,8.69791e-01,9.99999e-01
1.724710018e+00,7.43731e-06,8.52715e-06,8.72191e-01,9.99999e-01
1.733333568e+00,3.07029e-04,3.51071e-04,8.74550e-01,9.99999e-01
1.742000236e+00,8.53844e-03,9.73741e-03,8.76868e-01,9.99999e-01
1.750710237e+00,4.41086e-06,5.01720e-06,8.79147e-01,9.99999e-01
1.759463788e+00,8.95862e-129,1.01642e-128,8.81387e-01,9.99999e-01
1.768261107e+00,7.59395e-135,8.59444e-135,8.83588e-01,9.99999e-01
1.777102413e+00,1.59363e-131,1.79918e-131,8.85750e-01,9.99999e-01
1.785987925e+00,7.65577e-123,8.62257e-123,8.87875e-01,9.99999e-01
1.794917864e+00,3.18444e-117,3.57817e-117,8.89963e-01,9.99999e-01
1.803892454e+00,1.47016e-112,1.64813e-112,8.92015e-01,9.99999e-01
1.812911916e+00,4.19680e-108,4.69425e-108,8.94031e-01,9.99999e-01
1.821976476e+00,3.42228e-108,3.81946e-108,8.96011e-01,9.99999e-01
1.831086358e+00,1.96013e-86,2.18287e-86,8.97956e-01,9.99999e-01
1.840241790e+00,2.02739e-73,2.25299e-73,8.99868e-01,9.99999e-01
1.849442999e+00,8.74274e-51,9.69535e-51,9.01745e-01,9.99999e-01
1.858690214e+00,6.60186e-48,7.30625e-48,9.03589e-01,9.99999e-01
1.867983665e+00,2.13178e-48,2.35451e-48,9.05400e-01,9.99999e-01
1.877323583e+00,3.75992e-248,4.14462e-248,9.07179e-01,9.99999e-01
