#,Wave/freq,Total,CO2,Rayleigh,CIA
4.000000000e-01,1.95501e-06,9.99999e-01,1.95501e-06,9.99999e-01
4.020000000e-01,2.53530e-06,9.99999e-01,2.53530e-06,9.99999e-01
4.040100000e-01,3.27012e-06,9.99999e-01,3.27012e-06,9.99999e-01
4.060300500e-01,4.19677e-06,9.99999e-01,4.19677e-06,9.99999e-01
4.080602003e-01,5.35952e-06,9.99999e-01,5.35952e-06,9.99999e-01
4.101005013e-01,6.81143e-06,9.99999e-01,6.81143e-06,9.99999e-01
4.121510038e-01,8.61578e-06,9.99999e-01,8.61578e-06,9.99999e-01
4.142117588e-01,1.08476e-05,9.99999e-01,1.08476e-05,9.99999e-01
4.162828176e-01,1.35956e-05,9.99999e-01,1.35956e-05,9.99999e-01
4.183642317e-01,1.69640e-05,9.99999e-01,1.69640e-05,9.99999e-01
4.204560528e-01,2.10744e-05,9.99999e-01,2.10744e-05,9.99999e-01
4.225583331e-01,2.60689e-05,9.99999e-01,2.60689e-05,9.99999e-01
4.246711247e-01,3.21119e-05,9.99999e-01,3.21119e-05,9.99999e-01
4.267944804e-01,3.93931e-05,9.99999e-01,3.93931e-05,9.99999e-01
4.289284528e-01,4.81307e-05,9.99999e-01,4.81307e-05,9.99999e-01
4.310730950e-01,5.85740e-05,9.99999e-01,5.85740e-05,9.99999e-01
4.332284605e-01,7.10073e-05,9.99999e-01,7.10073e-05,9.99999e-01
4.353946028e-01,8.57532e-05,9.99999e-01,8.57532e-05,9.99999e-01
4.375715758e-01,1.03176e-04,9.99999e-01,1.03176e-04,9.99999e-01
4.397594337e-01,1.23686e-04,9.99999e-01,1.23686e-04,9.99999e-01
4.419582309e-01,1.47743e-04,9.99999e-01,1.47743e-04,9.99999e-01
4.441680220e-01,1.75860e-04,9.99999e-01,1.75860e-04,9.99999e-01
4.463888621e-01,2.08610e-04,9.99999e-01,2.08610e-04,9.99999e-01
4.486208064e-01,2.46625e-04,9.99999e-01,2.46625e-04,9.99999e-01
4.508639105e-01,2.90606e-04,9.99999e-01,2.90606e-04,9.99999e-01
4.531182300e-01,3.41321e-04,9.99999e-01,3.41321e-04,9.99999e-01
4.553838212e-01,3.99614e-04,9.99999e-01,3.99614e-04,9.99999e-01
4.576607403e-01,4.66409e-04,9.99999e-01,4.66409e-04,9.99999e-01
4.599490440e-01,5.42709e-04,9.99999e-01,5.42709e-04,9.99999e-01
4.622487892e-01,6.29604e-04,9.99999e-01,6.29604e-04,9.99999e-01
4.645600332e-01,7.28272e-04,9.99999e-01,7.28272e-04,9.99999e-01
4.668828333e-01,8.39985e-04,9.99999e-01,8.39985e-04,9.99999e-01
4.692172475e-01,9.66106e-04,9.99999e-01,9.66106e-04,9.99999e-01
4.715633337e-01,1.10810e-03,9.99999e-01,1.10810e-03,9.99999e-01
4.739211504e-01,1.26752e-03,9.99999e-01,1.26752e-03,9.99999e-01
4.762907561e-01,1.44603e-03,9.99999e-01,1.44603e-03,9.99999e-01
4.786722099e-01,1.64540e-03,9.99999e-01,1.64540e-03,9.99999e-01
4.810655710e-01,1.86749e-03,9.99999e-01,1.86749e-03,9.99999e-01
4.834708988e-01,2.11425e-03,9.99999e-01,2.11425e-03,9.99999e-01
4.858882533e-01,2.38777e-03,9.99999e-01,2.38777e-03,9.99999e-01
4.883176946e-01,2.69019e-03,9.99999e-01,2.69019e-03,9.99999e-01
4.907592831e-01,3.02379e-03,9.99999e-01,3.02379e-03,9.99999e-01
4.932130795e-01,3.39091e-03,9.99999e-01,3.39091e-03,9.99999e-01
4.956791449e-01,3.79401e-03,9.99999e-01,3.79401e-03,9.99999e-01
4.981575406e-01,4.23563e-03,9.99999e-01,4.23563e-03,9.99999e-01
5.006483283e-01,4.71837e-03,9.99999e-01,4.71837e-03,9.99999e-01
5.031515699e-01,5.24494e-03,9.99999e-01,5.24494e-03,9.99999e-01
5.056673278e-01,5.81810e-03,9.99999e-01,5.81810e-03,9.99999e-01
5.081956644e-01,6.44069e-03,9.99999e-01,6.44069e-03,9.99999e-01
5.107366428e-01,7.11559e-03,9.99999e-01,7.11559e-03,9.99999e-01
5.132903260e-01,7.84576e-03,9.99999e-01,7.84576e-03,9.99999e-01
5.158567776e-01,8.63419e-03,9.99999e-01,8.63419e-03,9.99999e-01
5.184360615e-01,9.48388e-03,9.99999e-01,9.48388e-03,9.99999e-01
5.210282418e-01,1.03979e-02,9.99999e-01,1.03979e-02,9.99999e-01
5.236333830e-01,1.13793e-02,9.99999e-01,1.13793e-02,9.99999e-01
5.262515499e-01,1.24312e-02,9.99999e-01,1.24312e-02,9.99999e-01
5.288828077e-01,1.35566e-02,9.99999e-01,1.35566e-02,9.99999e-01
5.315272217e-01,1.47586e-02,9.99999e-01,1.47586e-02,9.99999e-01
5.341848578e-01,1.60402e-02,9.99999e-01,1.60402e-02,9.99999e-01
5.368557821e-01,1.74045e-02,9.99999e-01,1.74045e-02,9.99999e-01
5.395400610e-01,1.88544e-02,9.99999e-01,1.88544e-02,9.99999e-01
5.422377613e-01,2.03929e-02,9.99999e-01,2.03929e-02,9.99999e-01
5.449489501e-01,2.20227e-02,9.99999e-01,2.20227e-02,9.99999e-01
5.476736949e-01,2.37467e-02,9.99999e-01,2.37467e-02,9.99999e-01
5.504120634e-01,2.55675e-02,9.99999e-01,2.55675e-02,9.99999e-01
5.531641237e-01,2.74879e-02,9.99999e-01,2.74879e-02,9.99999e-01
5.559299443e-01,2.95102e-02,9.99999e-01,2.95102e-02,9.99999e-01
5.587095940e-01,3.16369e-02,9.99999e-01,3.16369e-02,9.99999e-01
5.615031420e-01,3.38703e-02,9.99999e-01,3.38703e-02,9.99999e-01
5.643106577e-01,3.62125e-02,9.99999e-01,3.62125e-02,9.99999e-01
5.671322110e-01,3.86656e-02,9.99999e-01,3.86656e-02,9.99999e-01
5.699678720e-01,4.12314e-02,9.99999e-01,4.12314e-02,9.99999e-01
5.728177114e-01,4.39118e-02,9.99999e-01,4.39118e-02,9.99999e-01
5.756818000e-01,4.67082e-02,9.99999e-01,4.67082e-02,9.99999e-01
5.785602090e-01,4.96222e-02,9.99999e-01,4.96222e-02,9.99999e-01
5.814530100e-01,5.26550e-02,9.99999e-01,5.26550e-02,9.99999e-01
5.843602750e-01,5.58077e-02,9.99999e-01,5.58077e-02,9.99999e-01
5.872820764e-01,5.90813e-02,9.99999e-01,5.90813e-02,9.99999e-01
5.902184868e-01,6.24766e-02,9.99999e-01,6.24766e-02,9.99999e-01
5.931695792e-01,6.59940e-02,9.99999e-01,6.59940e-02,9.99999e-01
5.961354271e-01,6.96342e-02,9.99999e-01,6.96342e-02,9.99999e-01
5.991161043e-01,7.33972e-02,9.99999e-01,7.33972e-02,9.99999e-01
6.021116848e-01,7.72832e-02,9.99999e-01,7.72832e-02,9.99999e-01
6.051222432e-01,8.12921e-02,9.99999e-01,8.12921e-02,9.99999e-01
6.081478544e-01,8.54235e-02,9.99999e-01,8.54235e-02,9.99999e-01
6.111885937e-01,8.96771e-02,9.99999e-01,8.96771e-02,9.99999e-01
6.142445367e-01,9.40521e-02,9.99999e-01,9.40521e-02,9.99999e-01
6.173157594e-01,9.85478e-02,9.99999e-01,9.85478e-02,9.99999e-01
6.204023382e-01,1.03163e-01,9.99999e-01,1.03163e-01,9.99999e-01
6.235043498e-01,1.07897e-01,9.99999e-01,1.07897e-01,9.99999e-01
6.266218716e-01,1.12749e-01,9.99999e-01,1.12749e-01,9.99999e-01
6.297549810e-01,1.17716e-01,9.99999e-01,1.17716e-01,9.99999e-01
6.329037559e-01,1.22797e-01,9.99999e-01,1.22797e-01,9.99999e-01
6.360682746e-01,1.27991e-01,9.99999e-01,1.27991e-01,9.99999e-01
6.392486160e-01,1.33295e-01,9.99999e-01,1.33295e-01,9.99999e-01
6.424448591e-01,1.38708e-01,9.99999e-01,1.38708e-01,9.99999e-01
6.456570834e-01,1.44227e-01,9.99999e-01,1.44227e-01,9.99999e-01
6.488853688e-01,1.49850e-01,9.99999e-01,1.49850e-01,9.99999e-01
6.521297956e-01,1.55575e-01,9.99999e-01,1.55575e-01,9.99999e-01
6.553904446e-01,1.61399e-01,9.99999e-01,1.61399e-01,9.99999e-01
6.586673968e-01,1.67320e-01,9.99999e-01,1.67320e-01,9.99999e-01
6.619607338e-01,1.73334e-01,9.99999e-01,1.73334e-01,9.99999e-01
6.652705375e-01,1.79439e-01,9.99999e-01,1.79439e-01,9.99999e-01
6.685968902e-01,1.85633e-01,9.99999e-01,1.85633e-01,9.99999e-01
6.719398746e-01,1.91911e-01,9.99999e-01,1.91911e-01,9.99999e-01
6.752995740e-01,1.98272e-01,9.99999e-01,1.98272e-01,9.99999e-01
6.786760719e-01,2.04711e-01,9.99999e-01,2.04711e-01,9.99999e-01
6.820694522e-01,2.11227e-01,9.99999e-01,2.11227e-01,9.99999e-01
6.854797995e-01,2.17814e-01,9.99999e-01,2.17814e-01,9.99999e-01
6.889071985e-01,2.24471e-01,9.99999e-01,2.24471e-01,9.99999e-01
6.923517345e-01,2.31194e-01,9.99999e-01,2.31194e-01,9.99999e-01
6.958134932e-01,2.37980e-01,9.99999e-01,2.37980e-01,9.99999e-01
6.992925606e-01,2.44825e-01,9.99999e-01,2.44825e-01,9.99999e-01
7.027890234e-01,2.51725e-01,9.99999e-01,2.51725e-01,9.99999e-01
7.063029686e-01,2.58678e-01,9.99999e-01,2.58678e-01,9.99999e-01
7.098344834e-01,2.65680e-01,9.99999e-01,2.65680e-01,9.99999e-01
7.133836558e-01,2.72728e-01,9.99999e-01,2.72728e-01,9.99999e-01
7.169505741e-01,2.79818e-01,9.99999e-01,2.79818e-01,9.99999e-01
7.205353270e-01,2.86946e-01,9.99999e-01,2.86946e-01,9.99999e-01
7.241380036e-01,2.94111e-01,9.99999e-01,2.94111e-01,9.99999e-01
7.277586936e-01,3.01307e-01,9.99999e-01,3.01307e-01,9.99999e-01
7.313974871e-01,3.08532e-01,9.99999e-01,3.08532e-01,9.99999e-01
7.350544745e-01,3.15782e-01,9.99999e-01,3.15782e-01,9.99999e-01
7.387297469e-01,3.23054e-01,9.99999e-01,3.23054e-01,9.99999e-01
7.424233956e-01,3.30346e-01,9.99999e-01,3.30346e-01,9.99999e-01
7.461355126e-01,3.37653e-01,9.99999e-01,3.37653e-01,9.99999e-01
7.498661902e-01,3.44972e-01,9.99999e-01,3.44972e-01,9.99999e-01
7.536155211e-01,3.52301e-01,9.99999e-01,3.52301e-01,9.99999e-01
7.573835987e-01,3.59636e-01,9.99999e-01,3.59636e-01,9.99999e-01
7.611705167e-01,3.66975e-01,9.99999e-01,3.66975e-01,9.99999e-01
7.649763693e-01,3.74314e-01,9.99999e-01,3.74314e-01,9.99999e-01
7.688012511e-01,3.81650e-01,9.99999e-01,3.81650e-01,9.99999e-01
7.726452574e-01,3.88981e-01,9.99999e-01,3.88981e-01,9.99999e-01
7.765084837e-01,3.96304e-01,9.99999e-01,3.96304e-01,9.99999e-01
7.803910261e-01,3.86937e-01,9.58674e-01,4.03616e-01,9.99999e-01
7.842929812e-01,3.39701e-01,8.26695e-01,4.10915e-01,9.99999e-01
7.882144461e-01,3.41279e-01,8.16072e-01,4.18197e-01,9.99999e-01
7.921555184e-01,3.77566e-01,8.87426e-01,4.25461e-01,9.99999e-01
7.961162960e-01,3.99373e-01,9.22971e-01,4.32704e-01,9.99999e-01
8.000968774e-01,4.21221e-01,9.57488e-01,4.39923e-01,9.99999e-01
8.040973618e-01,4.37161e-01,9.77732e-01,4.47117e-01,9.99999e-01
8.081178486e-01,4.49614e-01,9.89722e-01,4.54282e-01,9.99999e-01
8.121584379e-01,4.59947e-01,9.96811e-01,4.61418e-01,9.99999e-01
8.162192301e-01,4.68191e-01,9.99295e-01,4.68521e-01,9.99999e-01
8.203003262e-01,4.75586e-01,9.99988e-01,4.75591e-01,9.99999e-01
8.244018279e-01,4.82624e-01,9.99999e-01,4.82624e-01,9.99999e-01
8.285238370e-01,4.89619e-01,9.99999e-01,4.89619e-01,9.99999e-01
8.326664562e-01,4.96574e-01,9.99999e-01,4.96574e-01,9.99999e-01
8.368297885e-01,5.03488e-01,9.99999e-01,5.03488e-01,9.99999e-01
8.410139374e-01,5.10359e-01,9.99999e-01,5.10359e-01,9.99999e-01
8.452190071e-01,5.17185e-01,9.99999e-01,5.17185e-01,9.99999e-01
8.494451021e-01,5.23965e-01,9.99999e-01,5.23965e-01,9.99999e-01
8.536923276e-01,5.30697e-01,9.99999e-01,5.30697e-01,9.99999e-01
8.579607893e-01,5.37380e-01,9.99999e-01,5.37380e-01,9.99999e-01
8.622505932e-01,5.44013e-01,9.99999e-01,5.44013e-01,9.99999e-01
8.665618462e-01,5.03783e-01,9.14979e-01,5.50594e-01,9.99999e-01
8.708946554e-01,3.44657e-01,6.18638e-01,5.57123e-01,9.99999e-01
8.752491287e-01,3.81878e-01,6.77572e-01,5.63597e-01,9.99999e-01
8.796253743e-01,4.59814e-01,8.06667e-01,5.70017e-01,9.99999e-01
8.840235012e-01,5.15476e-01,8.94331e-01,5.76381e-01,9.99999e-01
8.884436187e-01,5.57569e-01,9.56889e-01,5.82688e-01,9.99999e-01
8.928858368e-01,5.78521e-01,9.82312e-01,5.88938e-01,9.99999e-01
8.973502660e-01,5.92554e-01,9.95673e-01,5.95129e-01,9.99999e-01
9.018370173e-01,6.00974e-01,9.99522e-01,6.01261e-01,9.99999e-01
9.063462024e-01,5.99974e-01,9.87881e-01,6.07333e-01,9.99999e-01
9.108779334e-01,5.96326e-01,9.72251e-01,6.13345e-01,9.99999e-01
9.154323231e-01,6.15215e-01,9.93409e-01,6.19296e-01,9.99999e-01
9.200094847e-01,5.69030e-01,9.10178e-01,6.25185e-01,9.99999e-01
9.246095321e-01,5.49886e-01,8.71434e-01,6.31013e-01,9.99999e-01
9.292325798e-01,5.71919e-01,8.98145e-01,6.36778e-01,9.99999e-01
9.338787427e-01,5.78928e-01,9.01083e-01,6.42480e-01,9.99999e-01
9.385481364e-01,6.00316e-01,9.26242e-01,6.48119e-01,9.99999e-01
9.432408771e-01,6.23711e-01,9.54131e-01,6.53695e-01,9.99999e-01
9.479570815e-01,6.43522e-01,9.76206e-01,6.59207e-01,9.99999e-01
9.526968669e-01,6.56983e-01,9.88456e-01,6.64656e-01,9.99999e-01
9.574603512e-01,6.66722e-01,9.95047e-01,6.70040e-01,9.99999e-01
9.622476530e-01,6.74316e-01,9.98452e-01,6.75361e-01,9.99999e-01
9.670588912e-01,6.80302e-01,9.99535e-01,6.80617e-01,9.99999e-01
9.718941857e-01,6.85787e-01,9.99966e-01,6.85809e-01,9.99999e-01
9.767536566e-01,6.90938e-01,9.99999e-01,6.90938e-01,9.99999e-01
9.816374249e-01,6.96002e-01,9.99999e-01,6.96002e-01,9.99999e-01
9.865456120e-01,7.01002e-01,9.99999e-01,7.01002e-01,9.99999e-01
9.914783401e-01,7.05938e-01,9.99999e-01,7.05938e-01,9.99999e-01
9.964357318e-01,7.10810e-01,9.99999e-01,7.10810e-01,9.99999e-01
1.001417910e+00,7.15619e-01,9.99999e-01,7.15619e-01,9.99999e-01
1.006425000e+00,7.20365e-01,9.99999e-01,7.20365e-01,9.99999e-01
1.011457125e+00,7.25047e-01,9.99999e-01,7.25047e-01,9.99999e-01
1.016514411e+00,7.29666e-01,9.99999e-01,7.29666e-01,9.99999e-01
1.021596983e+00,7.34176e-01,9.99936e-01,7.34223e-01,9.99999e-01
1.026704968e+00,7.35213e-01,9.95256e-01,7.38717e-01,9.99999e-01
1.031838492e+00,7.04820e-01,9.48423e-01,7.43149e-01,9.99999e-01
1.036997685e+00,9.19744e-02,1.23039e-01,7.47519e-01,9.99999e-01
1.042182673e+00,5.39800e-02,7.17983e-02,7.51828e-01,9.99999e-01
1.047393587e+00,7.32018e-02,9.68180e-02,7.56076e-01,9.99999e-01
1.052630555e+00,9.22602e-04,1.21353e-03,7.60264e-01,9.99999e-01
1.057893707e+00,2.63500e-03,3.44719e-03,7.64391e-01,9.99999e-01
1.063183176e+00,1.14761e-02,1.49340e-02,7.68458e-01,9.99999e-01
1.068499092e+00,3.97045e-02,5.13996e-02,7.72466e-01,9.99999e-01
1.073841587e+00,1.18381e-01,1.52470e-01,7.76416e-01,9.99999e-01
1.079210795e+00,2.37077e-01,3.03825e-01,7.80306e-01,9.99999e-01
1.084606849e+00,4.05717e-01,5.17403e-01,7.84139e-01,9.99999e-01
1.090029883e+00,5.59390e-01,7.09962e-01,7.87915e-01,9.99999e-01
1.095480033e+00,6.68606e-01,8.44590e-01,7.91633e-01,9.99999e-01
1.100957433e+00,7.33105e-01,9.21802e-01,7.95295e-01,9.99999e-01
1.106462220e+00,7.72440e-01,9.66877e-01,7.98901e-01,9.99999e-01
1.111994531e+00,7.92496e-01,9.87591e-01,8.02452e-01,9.99999e-01
1.117554504e+00,8.03495e-01,9.96955e-01,8.05948e-01,9.99999e-01
1.123142276e+00,8.09228e-01,9.99799e-01,8.09390e-01,9.99999e-01
1.128757988e+00,8.12778e-01,9.99999e-01,8.12778e-01,9.99999e-01
1.134401778e+00,8.16113e-01,9.99999e-01,8.16113e-01,9.99999e-01
1.140073787e+00,8.19395e-01,9.99999e-01,8.19395e-01,9.99999e-01
1.145774156e+00,8.22625e-01,9.99999e-01,8.22625e-01,9.99999e-01
1.151503026e+00,8.25804e-01,9.99999e-01,8.25804e-01,9.99999e-01
1.157260541e+00,8.28932e-01,9.99999e-01,8.28932e-01,9.99999e-01
1.163046844e+00,8.32009e-01,9.99999e-01,8.32009e-01,9.99999e-01
1.168862078e+00,8.35037e-01,9.99999e-01,8.35037e-01,9.99999e-01
1.174706389e+00,8.38016e-01,9.99999e-01,8.38016e-01,9.99999e-01
1.180579921e+00,8.40946e-01,9.99999e-01,8.40946e-01,9.99999e-01
1.186482820e+00,8.43822e-01,9.99991e-01,8.43829e-01,9.99999e-01
1.192415234e+00,8.32480e-01,9.83246e-01,8.46664e-01,9.99999e-01
1.198377311e+00,4.71522e-01,5.55089e-01,8.49452e-01,9.99999e-01
1.204369197e+00,1.19741e-13,1.40509e-13,8.52194e-01,9.99999e-01
1.210391043e+00,3.21106e-51,3.75610e-51,8.54891e-01,9.99999e-01
1.216442998e+00,1.67758e-44,1.95626e-44,8.57542e-01,9.99999e-01
1.222525213e+00,7.46685e-44,8.68087e-44,8.60149e-01,9.99999e-01
1.228637839e+00,5.75524e-34,6.67109e-34,8.62713e-01,9.99999e-01
1.234781029e+00,9.80379e-22,1.13308e-21,8.65233e-01,9.99999e-01
1.240954934e+00,1.24181e-14,1.43113e-14,8.67710e-01,9.99999e-01
1.247159708e+00,7.72354e-08,8.87613e-08,8.70146e-01,9.99999e-01
1.253395507e+00,3.81198e-05,4.36883e-05,8.72540e-01,9.99999e-01
1.259662485e+00,2.74731e-03,3.14016e-03,8.74893e-01,9.99999e-01
1.265960797e+00,3.17274e-02,3.61687e-02,8.77206e-01,9.99999e-01
1.272290601e+00,2.10968e-01,2.39878e-01,8.79479e-01,9.99999e-01
1.278652054e+00,1.80142e-01,2.04309e-01,8.81712e-01,9.99999e-01
1.285045314e+00,3.12207e-03,3.53212e-03,8.83908e-01,9.99999e-01
1.291470541e+00,1.18454e-06,1.33685e-06,8.86065e-01,9.99999e-01
1.297927893e+00,1.54862e-03,1.74358e-03,8.88184e-01,9.99999e-01
1.304417533e+00,6.58296e-02,7.39435e-02,8.90267e-01,9.99999e-01
1.310939621e+00,1.56531e-02,1.75422e-02,8.92313e-01,9.99999e-01
1.317494319e+00,5.06588e-18,5.66448e-18,8.94324e-01,9.99999e-01
1.324081790e+00,2.71434e-12,3.02839e-12,8.96299e-01,9.99999e-01
1.330702199e+00,2.80744e-07,3.12549e-07,8.98239e-01,9.99999e-01
1.337355710e+00,5.23537e-07,5.81614e-07,9.00145e-01,9.99999e-01
1.344042489e+00,1.73199e-07,1.92013e-07,9.02018e-01,9.99999e-01
1.350762701e+00,1.64441e-07,1.81933e-07,9.03857e-01,9.99999e-01
1.357516515e+00,5.01187e-05,5.53392e-05,9.05663e-01,9.99999e-01
1.364304097e+00,1.33949e-03,1.47612e-03,9.07438e-01,9.99999e-01
1.371125618e+00,3.09916e-02,3.40874e-02,9.09180e-01,9.99999e-01
1.377981246e+00,5.50952e-02,6.04849e-02,9.10892e-01,9.99999e-01
1.384871152e+00,1.78364e-01,1.95452e-01,9.12573e-01,9.99999e-01
1.391795508e+00,2.02182e-01,2.21152e-01,9.14223e-01,9.99999e-01
1.398754485e+00,3.59952e-01,3.93027e-01,9.15844e-01,9.99999e-01
1.405748258e+00,4.61764e-01,5.03320e-01,9.17436e-01,9.99999e-01
1.412776999e+00,5.95246e-01,6.47710e-01,9.18999e-01,9.99999e-01
1.419840884e+00,5.34531e-01,5.80675e-01,9.20533e-01,9.99999e-01
1.426940089e+00,4.14642e-02,4.49701e-02,9.22040e-01,9.99999e-01
1.434074789e+00,0.00000e+00,0.00000e+00,9.23519e-01,9.99999e-01
1.441245163e+00,0.00000e+00,0.00000e+00,9.24972e-01,9.99999e-01
1.448451389e+00,0.00000e+00,0.00000e+00,9.26398e-01,9.99999e-01
1.455693646e+00,0.00000e+00,0.00000e+00,9.27798e-01,9.99999e-01
1.462972114e+00,5.07528e-201,5.46215e-201,9.29172e-01,9.99999e-01
1.470286975e+00,4.86306e-84,5.22616e-84,9.30522e-01,9.99999e-01
1.477638409e+00,3.32848e-53,3.57192e-53,9.31846e-01,9.99999e-01
1.485026601e+00,4.51107e-30,4.83425e-30,9.33146e-01,9.99999e-01
1.492451734e+00,1.25145e-25,1.33928e-25,9.34422e-01,9.99999e-01
1.499913993e+00,9.67447e-12,1.03395e-11,9.35675e-01,9.99999e-01
1.507413563e+00,1.60801e-10,1.71629e-10,9.36905e-01,9.99999e-01
1.514950631e+00,6.30975e-12,6.72600e-12,9.38112e-01,9.99999e-01
1.522525384e+00,4.03926e-38,4.30030e-38,9.39296e-01,9.99999e-01
1.530138011e+00,1.32639e-89,1.41036e-89,9.40459e-01,9.99999e-01
1.537788701e+00,1.50002e-66,1.59306e-66,9.41600e-01,9.99999e-01
1.545477645e+00,7.27601e-15,7.71810e-15,9.42720e-01,9.99999e-01
1.553205033e+00,1.33660e-10,1.41616e-10,9.43819e-01,9.99999e-01
1.560971058e+00,4.32399e-11,4.57615e-11,9.44897e-01,9.99999e-01
1.568775913e+00,1.48940e-225,1.57449e-225,9.45956e-01,9.99999e-01
1.576619793e+00,0.00000e+00,0.00000e+00,9.46994e-01,9.99999e-01
1.584502892e+00,2.33583e-288,2.46391e-288,9.48014e-01,9.99999e-01
1.592425406e+00,4.26669e-201,4.49591e-201,9.49014e-01,9.99999e-01
1.600387533e+00,9.88131e-324,9.88131e-324,9.49995e-01,9.99999e-01
1.608389471e+00,0.00000e+00,0.00000e+00,9.50958e-01,9.99999e-01
1.616431418e+00,0.00000e+00,0.00000e+00,9.51903e-01,9.99999e-01
1.624513575e+00,2.51913e-255,2.64383e-255,9.52831e-01,9.99999e-01
1.632636143e+00,9.39163e-190,9.84714e-190,9.53740e-01,9.99999e-01
1.640799324e+00,6.21380e-78,6.50909e-78,9.54633e-01,9.99999e-01
1.649003321e+00,6.24014e-78,6.53069e-78,9.55509e-01,9.99999e-01
1.657248337e+00,1.90910e-60,1.99619e-60,9.56368e-01,9.99999e-01
1.665534579e+00,7.63047e-61,7.97156e-61,9.57211e-01,9.99999e-01
1.673862252e+00,3.84273e-39,4.01104e-39,9.58038e-01,9.99999e-01
1.682231563e+00,2.07659e-27,2.16570e-27,9.58850e-01,9.99999e-01
1.690642721e+00,1.10174e-15,1.14807e-15,9.59646e-01,9.99999e-01
1.699095934e+00,3.68029e-10,3.83193e-10,9.60427e-01,9.99999e-01
1.707591414e+00,1.13127e-05,1.17694e-05,9.61194e-01,9.99999e-01
1.716129371e+00,1.54921e-03,1.61049e-03,9.61945e-01,9.99999e-01
1.724710018e+00,2.68305e-02,2.78705e-02,9.62683e-01,9.99999e-01
1.733333568e+00,9.31648e-02,9.67035e-02,9.63406e-01,9.99999e-01
1.742000236e+00,2.40843e-01,2.49807e-01,9.64116e-01,9.99999e-01
1.750710237e+00,4.34566e-03,4.50415e-03,9.64812e-01,9.99999e-01
1.759463788e+00,2.27724e-37,2.35862e-37,9.65495e-01,9.99999e-01
1.768261107e+00,3.81780e-39,3.95149e-39,9.66165e-01,9.99999e-01
1.777102413e+00,6.99594e-38,7.23601e-38,9.66822e-01,9.99999e-01
1.785987925e+00,8.77026e-36,9.06518e-36,9.67466e-01,9.99999e-01
1.794917864e+00,3.70982e-34,3.83206e-34,9.68099e-01,9.99999e-01
1.803892454e+00,6.04122e-33,6.23629e-33,9.68719e-01,9.99999e-01
1.812911916e+00,1.29149e-31,1.33236e-31,9.69327e-01,9.99999e-01
1.821976476e+00,1.00290e-31,1.03400e-31,9.69924e-01,9.99999e-01
1.831086358e+00,1.13360e-25,1.16805e-25,9.70509e-01,9.99999e-01
1.840241790e+00,7.15020e-22,7.36311e-22,9.71083e-01,9.99999e-01
1.849442999e+00,2.74412e-15,2.82419e-15,9.71646e-01,9.99999e-01
1.858690214e+00,3.04211e-14,3.12910e-14,9.72198e-01,9.99999e-01
1.867983665e+00,5.59380e-15,5.75056e-15,9.72740e-01,9.99999e-01
1.877323583e+00,1.17656e-70,1.20887e-70,9.73271e-01,9.99999e-01
