#,Wave/freq,Total,CO2,Rayleigh,CIA
4.000000000e-01,4.64336e-18,9.99999e-01,4.64336e-18,9.99999e-01
4.020000000e-01,1.02225e-17,9.99999e-01,1.02225e-17,9.99999e-01
4.040100000e-01,2.21391e-17,9.99999e-01,2.21391e-17,9.99999e-01
4.060300500e-01,4.72210e-17,9.99999e-01,4.72210e-17,9.99999e-01
4.080602003e-01,9.92227e-17,9.99999e-01,9.92227e-17,9.99999e-01
4.101005013e-01,2.05455e-16,9.99999e-01,2.05455e-16,9.99999e-01
4.121510038e-01,4.19354e-16,9.99999e-01,4.19354e-16,9.99999e-01
4.142117588e-01,8.43961e-16,9.99999e-01,8.43961e-16,9.99999e-01
4.162828176e-01,1.67519e-15,9.99999e-01,1.67519e-15,9.99999e-01
4.183642317e-01,3.28040e-15,9.99999e-01,3.28040e-15,9.99999e-01
4.204560528e-01,6.33903e-15,9.99999e-01,6.33903e-15,9.99999e-01
4.225583331e-01,1.20912e-14,9.99999e-01,1.20912e-14,9.99999e-01
4.246711247e-01,2.27706e-14,9.99999e-01,2.27706e-14,9.99999e-01
4.267944804e-01,4.23496e-14,9.99999e-01,4.23496e-14,9.99999e-01
4.289284528e-01,7.78040e-14,9.99999e-01,7.78040e-14,9.99999e-01
4.310730950e-01,1.41233e-13,9.99999e-01,1.41233e-13,9.99999e-01
4.332284605e-01,2.53372e-13,9.99999e-01,2.53372e-13,9.99999e-01
4.353946028e-01,4.49329e-13,9.99999e-01,4.49329e-13,9.99999e-01
4.375715758e-01,7.87875e-13,9.99999e-01,7.87875e-13,9.99999e-01
4.397594337e-01,1.36626e-12,9.99999e-01,1.36626e-12,9.99999e-01
4.419582309e-01,2.34361e-12,9.99999e-01,2.34361e-12,9.99999e-01
4.441680220e-01,3.97748e-12,9.99999e-01,3.97748e-12,9.99999e-01
4.463888621e-01,6.68028e-12,9.99999e-01,6.68028e-12,9.99999e-01
4.486208064e-01,1.11054e-11,9.99999e-01,1.11054e-11,9.99999e-01
4.508639105e-01,1.82772e-11,9.99999e-01,1.82772e-11,9.99999e-01
4.531182300e-01,2.97861e-11,9.99999e-01,2.97861e-11,9.99999e-01
4.553838212e-01,4.80760e-11,9.99999e-01,4.80760e-11,9.99999e-01
4.576607403e-01,7.68663e-11,9.99999e-01,7.68663e-11,9.99999e-01
4.599490440e-01,1.21764e-10,9.99999e-01,1.21764e-10,9.99999e-01
4.622487892e-01,1.91141e-10,9.99999e-01,1.91141e-10,9.99999e-01
4.645600332e-01,2.97386e-10,9.99999e-01,2.97386e-10,9.99999e-01
4.668828333e-01,4.58666e-10,9.99999e-01,4.58666e-10,9.99999e-01
4.692172475e-01,7.01382e-10,9.99999e-01,7.01382e-10,9.99999e-01
4.715633337e-01,1.06358e-09,9.99999e-01,1.06358e-09,9.99999e-01
4.739211504e-01,1.59961e-09,9.99999e-01,1.59961e-09,9.99999e-01
4.762907561e-01,2.38647e-09,9.99999e-01,2.38647e-09,9.99999e-01
4.786722099e-01,3.53237e-09,9.99999e-01,3.53237e-09,9.99999e-01
4.810655710e-01,5.18816e-09,9.99999e-01,5.18816e-09,9.99999e-01
4.834708988e-01,7.56244e-09,9.99999e-01,7.56244e-09,9.99999e-01
4.858882533e-01,1.09415e-08,9.99999e-01,1.09415e-08,9.99999e-01
4.883176946e-01,1.57154e-08,9.99999e-01,1.57154e-08,9.99999e-01
4.907592831e-01,2.24114e-08,9.99999e-01,2.24114e-08,9.99999e-01
4.932130795e-01,3.17370e-08,9.99999e-01,3.17370e-08,9.99999e-01
4.956791449e-01,4.46353e-08,9.99999e-01,4.46353e-08,9.99999e-01
4.981575406e-01,6.23542e-08,9.99999e-01,6.23542e-08,9.99999e-01
5.006483283e-01,8.65336e-08,9.99999e-01,8.65336e-08,9.99999e-01
5.031515699e-01,1.19314e-07,9.99999e-01,1.19314e-07,9.99999e-01
5.056673278e-01,1.63473e-07,9.99999e-01,1.63473e-07,9.99999e-01
5.081956644e-01,2.22585e-07,9.99999e-01,2.22585e-07,9.99999e-01
5.107366428e-01,3.01231e-07,9.99999e-01,3.01231e-07,9.99999e-01
5.132903260e-01,4.05236e-07,9.99999e-01,4.05236e-07,9.99999e-01
5.158567776e-01,5.41965e-07,9.99999e-01,5.41965e-07,9.99999e-01
5.184360615e-01,7.20678e-07,9.99999e-01,7.20678e-07,9.99999e-01
5.210282418e-01,9.52941e-07,9.99999e-01,9.52941e-07,9.99999e-01
5.236333830e-01,1.25312e-06,9.99999e-01,1.25312e-06,9.99999e-01
5.262515499e-01,1.63898e-06,9.99999e-01,1.63898e-06,9.99999e-01
5.288828077e-01,2.13231e-06,9.99999e-01,2.13231e-06,9.99999e-01
5.315272217e-01,2.75975e-06,9.99999e-01,2.75975e-06,9.99999e-01
5.341848578e-01,3.55366e-06,9.99999e-01,3.55366e-06,9.99999e-01
5.368557821e-01,4.55317e-06,9.99999e-01,4.55317e-06,9.99999e-01
5.395400610e-01,5.80530e-06,9.99999e-01,5.80530e-06,9.99999e-01
5.422377613e-01,7.36635e-06,9.99999e-01,7.36635e-06,9.99999e-01
5.449489501e-01,9.30330e-06,9.99999e-01,9.30330e-06,9.99999e-01
5.476736949e-01,1.16955e-05,9.99999e-01,1.16955e-05,9.99999e-01
5.504120634e-01,1.46365e-05,9.99999e-01,1.46365e-05,9.99999e-01
5.531641237e-01,1.82361e-05,9.99999e-01,1.82361e-05,9.99999e-01
5.559299443e-01,2.26225e-05,9.99999e-01,2.26225e-05,9.99999e-01
5.587095940e-01,2.79447e-05,9.99999e-01,2.79447e-05,9.99999e-01
5.615031420e-01,3.43753e-05,9.99999e-01,3.43753e-05,9.99999e-01
5.643106577e-01,4.21131e-05,9.99999e-01,4.21131e-05,9.99999e-01
5.671322110e-01,5.13861e-05,9.99999e-01,5.13861e-05,9.99999e-01
5.699678720e-01,6.24550e-05,9.99999e-01,6.24550e-05,9.99999e-01
5.728177114e-01,7.56162e-05,9.99999e-01,7.56162e-05,9.99999e-01
5.756818000e-01,9.12058e-05,9.99999e-01,9.12058e-05,9.99999e-01
5.785602090e-01,1.09603e-04,9.99999e-01,1.09603e-04,9.99999e-01
5.814530100e-01,1.31234e-04,9.99999e-01,1.31234e-04,9.99999e-01
5.843602750e-01,1.56575e-04,9.99999e-01,1.56575e-04,9.99999e-01
5.872820764e-01,1.86160e-04,9.99999e-01,1.86160e-04,9.99999e-01
5.902184868e-01,2.20580e-04,9.99999e-01,2.20580e-04,9.99999e-01
5.931695792e-01,2.60489e-04,9.99999e-01,2.60489e-04,9.99999e-01
5.961354271e-01,3.06610e-04,9.99999e-01,3.06610e-04,9.99999e-01
5.991161043e-01,3.59737e-04,9.99999e-01,3.59737e-04,9.99999e-01
6.021116848e-01,4.20739e-04,9.99999e-01,4.20739e-04,9.99999e-01
6.051222432e-01,4.90566e-04,9.99999e-01,4.90566e-04,9.99999e-01
6.081478544e-01,5.70249e-04,9.99999e-01,5.70249e-04,9.99999e-01
6.111885937e-01,6.60906e-04,9.99999e-01,6.60906e-04,9.99999e-01
6.142445367e-01,7.63748e-04,9.99999e-01,7.63748e-04,9.99999e-01
6.173157594e-01,8.80075e-04,9.99999e-01,8.80075e-04,9.99999e-01
6.204023382e-01,1.01128e-03,9.99999e-01,1.01128e-03,9.99999e-01
6.235043498e-01,1.15887e-03,9.99999e-01,1.15887e-03,9.99999e-01
6.266218716e-01,1.32442e-03,9.99999e-01,1.32442e-03,9.99999e-01
6.297549810e-01,1.50964e-03,9.99999e-01,1.50964e-03,9.99999e-01
6.329037559e-01,1.71632e-03,9.99999e-01,1.71632e-03,9.99999e-01
6.360682746e-01,1.94635e-03,9.99999e-01,1.94635e-03,9.99999e-01
6.392486160e-01,2.20174e-03,9.99999e-01,2.20174e-03,9.99999e-01
6.424448591e-01,2.48458e-03,9.99999e-01,2.48458e-03,9.99999e-01
6.456570834e-01,2.79707e-03,9.99999e-01,2.79707e-03,9.99999e-01
6.488853688e-01,3.14150e-03,9.99999e-01,3.14150e-03,9.99999e-01
6.521297956e-01,3.52026e-03,9.99999e-01,3.52026e-03,9.99999e-01
6.553904446e-01,3.93583e-03,9.99999e-01,3.93583e-03,9.99999e-01
6.586673968e-01,4.39076e-03,9.99999e-01,4.39076e-03,9.99999e-01
6.619607338e-01,4.88771e-03,9.99999e-01,4.88771e-03,9.99999e-01
6.652705375e-01,5.42940e-03,9.99999e-01,5.42940e-03,9.99999e-01
6.685968902e-01,6.01861e-03,9.99999e-01,6.01861e-03,9.99999e-01
6.719398746e-01,6.65819e-03,9.99999e-01,6.65819e-03,9.99999e-01
6.752995740e-01,7.35107e-03,9.99999e-01,7.35107e-03,9.99999e-01
6.786760719e-01,8.10019e-03,9.99999e-01,8.10019e-03,9.99999e-01
6.820694522e-01,8.90856e-03,9.99999e-01,8.90856e-03,9.99999e-01
6.854797995e-01,9.77922e-03,9.99999e-01,9.77922e-03,9.99999e-01
6.889071985e-01,1.07152e-02,9.99999e-01,1.07152e-02,9.99999e-01
6.923517345e-01,1.17196e-02,9.99999e-01,1.17196e-02,9.99999e-01
6.958134932e-01,1.27955e-02,9.99999e-01,1.27955e-02,9.99999e-01
6.992925606e-01,1.39459e-02,9.99999e-01,1.39459e-02,9.99999e-01
7.027890234e-01,1.51740e-02,9.99999e-01,1.51740e-02,9.99999e-01
7.063029686e-01,1.64826e-02,9.99999e-01,1.64826e-02,9.99999e-01
7.098344834e-01,1.78749e-02,9.99999e-01,1.78749e-02,9.99999e-01
7.133836558e-01,1.93538e-02,9.99999e-01,1.93538e-02,9.99999e-01
7.169505741e-01,2.09222e-02,9.99999e-01,2.09222e-02,9.99999e-01
7.205353270e-01,2.25829e-02,9.99999e-01,2.25829e-02,9.99999e-01
7.241380036e-01,2.43387e-02,9.99999e-01,2.43387e-02,9.99999e-01
7.277586936e-01,2.61922e-02,9.99999e-01,2.61922e-02,9.99999e-01
7.313974871e-01,2.81460e-02,9.99999e-01,2.81460e-02,9.99999e-01
7.350544745e-01,3.02026e-02,9.99999e-01,3.02026e-02,9.99999e-01
7.387297469e-01,3.23644e-02,9.99999e-01,3.23644e-02,9.99999e-01
7.424233956e-01,3.46336e-02,9.99999e-01,3.46336e-02,9.99999e-01
7.461355126e-01,3.70123e-02,9.99999e-01,3.70123e-02,9.99999e-01
7.498661902e-01,3.95025e-02,9.99999e-01,3.95025e-02,9.99999e-01
7.536155211e-01,4.21060e-02,9.99999e-01,4.21060e-02,9.99999e-01
7.573835987e-01,4.48247e-02,9.99999e-01,4.48247e-02,9.99999e-01
7.611705167e-01,4.76599e-02,9.99999e-01,4.76599e-02,9.99999e-01
7.649763693e-01,5.06131e-02,9.99999e-01,5.06131e-02,9.99999e-01
7.688012511e-01,5.36855e-02,9.99999e-01,5.36855e-02,9.99999e-01
7.726452574e-01,5.68781e-02,9.99999e-01,5.68781e-02,9.99999e-01
7.765084837e-01,6.01919e-02,9.99999e-01,6.01919e-02,9.99999e-01
7.803910261e-01,5.71745e-02,8.98580e-01,6.36276e-02,9.99999e-01
7.842929812e-01,3.91078e-02,5.82086e-01,6.71856e-02,9.99999e-01
7.882144461e-01,4.01128e-02,5.66033e-01,7.08664e-02,9.99999e-01
7.921555184e-01,5.23439e-02,7.01001e-01,7.46701e-02,9.99999e-01
7.961162960e-01,6.17483e-02,7.85632e-01,7.85968e-02,9.99999e-01
8.000968774e-01,7.24928e-02,8.77144e-01,8.26463e-02,9.99999e-01
8.040973618e-01,8.11074e-02,9.34219e-01,8.68183e-02,9.99999e-01
8.081178486e-01,8.83050e-02,9.69189e-01,9.11121e-02,9.99999e-01
8.121584379e-01,9.46095e-02,9.90393e-01,9.55272e-02,9.99999e-01
8.162192301e-01,9.98496e-02,9.97870e-01,1.00063e-01,9.99999e-01
8.203003262e-01,1.04714e-01,9.99968e-01,1.04717e-01,9.99999e-01
8.244018279e-01,1.09490e-01,9.99999e-01,1.09490e-01,9.99999e-01
8.285238370e-01,1.14380e-01,9.99999e-01,1.14380e-01,9.99999e-01
8.326664562e-01,1.19385e-01,9.99999e-01,1.19385e-01,9.99999e-01
8.368297885e-01,1.24504e-01,9.99999e-01,1.24504e-01,9.99999e-01
8.410139374e-01,1.29735e-01,9.99999e-01,1.29735e-01,9.99999e-01
8.452190071e-01,1.35075e-01,9.99999e-01,1.35075e-01,9.99999e-01
8.494451021e-01,1.40523e-01,9.99999e-01,1.40523e-01,9.99999e-01
8.536923276e-01,1.46077e-01,9.99999e-01,1.46077e-01,9.99999e-01
8.579607893e-01,1.51734e-01,9.99999e-01,1.51734e-01,9.99999e-01
8.622505932e-01,1.57492e-01,9.99999e-01,1.57492e-01,9.99999e-01
8.665618462e-01,1.39926e-01,8.56608e-01,1.63349e-01,9.99999e-01
8.708946554e-01,4.52290e-02,2.67152e-01,1.69301e-01,9.99999e-01
8.752491287e-01,5.76915e-02,3.29016e-01,1.75345e-01,9.99999e-01
8.796253743e-01,9.68037e-02,5.33411e-01,1.81480e-01,9.99999e-01
8.840235012e-01,1.34432e-01,7.16200e-01,1.87702e-01,9.99999e-01
8.884436187e-01,1.69895e-01,8.75708e-01,1.94008e-01,9.99999e-01
8.928858368e-01,1.89866e-01,9.47458e-01,2.00395e-01,9.99999e-01
8.973502660e-01,2.04167e-01,9.86981e-01,2.06860e-01,9.99999e-01
9.018370173e-01,2.13092e-01,9.98557e-01,2.13400e-01,9.99999e-01
9.063462024e-01,2.12170e-01,9.64360e-01,2.20011e-01,9.99999e-01
9.108779334e-01,2.08235e-01,9.18588e-01,2.26690e-01,9.99999e-01
9.154323231e-01,2.28828e-01,9.80265e-01,2.33434e-01,9.99999e-01
9.200094847e-01,1.88323e-01,7.83895e-01,2.40240e-01,9.99999e-01
9.246095321e-01,1.63610e-01,6.62110e-01,2.47103e-01,9.99999e-01
9.292325798e-01,1.85184e-01,7.29010e-01,2.54021e-01,9.99999e-01
9.338787427e-01,1.91435e-01,7.33493e-01,2.60991e-01,9.99999e-01
9.385481364e-01,2.12899e-01,7.94373e-01,2.68009e-01,9.99999e-01
9.432408771e-01,2.38672e-01,8.67673e-01,2.75071e-01,9.99999e-01
9.479570815e-01,2.62324e-01,9.29652e-01,2.82174e-01,9.99999e-01
9.526968669e-01,2.79331e-01,9.65491e-01,2.89315e-01,9.99999e-01
9.574603512e-01,2.92066e-01,9.85077e-01,2.96490e-01,9.99999e-01
9.622476530e-01,3.02275e-01,9.95321e-01,3.03696e-01,9.99999e-01
9.670588912e-01,3.10493e-01,9.98596e-01,3.10929e-01,9.99999e-01
9.718941857e-01,3.18156e-01,9.99900e-01,3.18187e-01,9.99999e-01
9.767536566e-01,3.25466e-01,9.99999e-01,3.25466e-01,9.99999e-01
9.816374249e-01,3.32763e-01,9.99999e-01,3.32763e-01,9.99999e-01
9.865456120e-01,3.40075e-01,9.99999e-01,3.40075e-01,9.99999e-01
9.914783401e-01,3.47398e-01,9.99999e-01,3.47398e-01,9.99999e-01
9.964357318e-01,3.54729e-01,9.99999e-01,3.54729e-01,9.99999e-01
1.001417910e+00,3.62066e-01,9.99999e-01,3.62066e-01,9.99999e-01
1.006425000e+00,3.69405e-01,9.99999e-01,3.69405e-01,9.99999e-01
1.011457125e+00,3.76743e-01,9.99999e-01,3.76743e-01,9.99999e-01
1.016514411e+00,3.84078e-01,9.99999e-01,3.84078e-01,9.99999e-01
1.021596983e+00,3.91329e-01,9.99801e-01,3.91407e-01,9.99999e-01
1.026704968e+00,3.93024e-01,9.85698e-01,3.98726e-01,9.99999e-01
1.031838492e+00,3.61848e-01,8.91176e-01,4.06034e-01,9.99999e-01
1.036997685e+00,1.64953e-02,3.99085e-02,4.13328e-01,9.99999e-01
1.042182673e+00,5.64983e-04,1.34326e-03,4.20604e-01,9.99999e-01
1.047393587e+00,1.62058e-03,3.78762e-03,4.27861e-01,9.99999e-01
1.052630555e+00,3.72833e-08,8.56896e-08,4.35096e-01,9.99999e-01
1.057893707e+00,1.40547e-07,3.17757e-07,4.42308e-01,9.99999e-01
1.063183176e+00,7.69090e-06,1.71102e-05,4.49492e-01,9.99999e-01
1.068499092e+00,1.05574e-04,2.31192e-04,4.56648e-01,9.99999e-01
1.073841587e+00,2.02343e-03,4.36297e-03,4.63773e-01,9.99999e-01
1.079210795e+00,1.57702e-02,3.34918e-02,4.70866e-01,9.99999e-01
1.084606849e+00,6.83340e-02,1.42981e-01,4.77923e-01,9.99999e-01
1.090029883e+00,1.74581e-01,3.60002e-01,4.84944e-01,9.99999e-01
1.095480033e+00,2.96545e-01,6.02823e-01,4.91926e-01,9.99999e-01
1.100957433e+00,3.90224e-01,7.82218e-01,4.98868e-01,9.99999e-01
1.106462220e+00,4.56816e-01,9.03212e-01,5.05768e-01,9.99999e-01
1.111994531e+00,4.93609e-01,9.62906e-01,5.12624e-01,9.99999e-01
1.117554504e+00,5.14667e-01,9.90820e-01,5.19435e-01,9.99999e-01
1.123142276e+00,5.25881e-01,9.99395e-01,5.26199e-01,9.99999e-01
1.128757988e+00,5.32915e-01,9.99999e-01,5.32915e-01,9.99999e-01
1.134401778e+00,5.39582e-01,9.99999e-01,5.39582e-01,9.99999e-01
1.140073787e+00,5.46198e-01,9.99999e-01,5.46198e-01,9.99999e-01
1.145774156e+00,5.52761e-01,9.99999e-01,5.52761e-01,9.99999e-01
1.151503026e+00,5.59272e-01,9.99999e-01,5.59272e-01,9.99999e-01
1.157260541e+00,5.65729e-01,9.99999e-01,5.65729e-01,9.99999e-01
1.163046844e+00,5.72130e-01,9.99999e-01,5.72130e-01,9.99999e-01
1.168862078e+00,5.78476e-01,9.99999e-01,5.78476e-01,9.99999e-01
1.174706389e+00,5.84764e-01,9.99999e-01,5.84764e-01,9.99999e-01
1.180579921e+00,5.90994e-01,9.99999e-01,5.90994e-01,9.99999e-01
1.186482820e+00,5.97150e-01,9.99972e-01,5.97166e-01,9.99999e-01
1.192415234e+00,5.74321e-01,9.51999e-01,6.03278e-01,9.99999e-01
1.198377311e+00,3.06820e-01,5.03537e-01,6.09330e-01,9.99999e-01
1.204369197e+00,7.43795e-37,1.20879e-36,6.15322e-01,9.99999e-01
1.210391043e+00,6.33261e-151,1.01933e-150,6.21253e-01,9.99999e-01
1.216442998e+00,1.58044e-130,2.52015e-130,6.27122e-01,9.99999e-01
1.222525213e+00,1.46806e-128,2.31947e-128,6.32928e-01,9.99999e-01
1.228637839e+00,4.64821e-99,7.27791e-99,6.38673e-01,9.99999e-01
1.234781029e+00,2.08277e-61,3.23234e-61,6.44354e-01,9.99999e-01
1.240954934e+00,1.36022e-40,2.09274e-40,6.49972e-01,9.99999e-01
1.247159708e+00,3.01555e-19,4.60018e-19,6.55527e-01,9.99999e-01
1.253395507e+00,4.09550e-13,6.19574e-13,6.61018e-01,9.99999e-01
1.259662485e+00,1.01966e-07,1.52999e-07,6.66445e-01,9.99999e-01
1.265960797e+00,1.34101e-04,1.99611e-04,6.71809e-01,9.99999e-01
1.272290601e+00,1.12781e-02,1.66562e-02,6.77108e-01,9.99999e-01
1.278652054e+00,1.09668e-02,1.60722e-02,6.82343e-01,9.99999e-01
1.285045314e+00,4.40817e-06,6.41174e-06,6.87514e-01,9.99999e-01
1.291470541e+00,1.74618e-17,2.52112e-17,6.92621e-01,9.99999e-01
1.297927893e+00,2.54717e-07,3.65100e-07,6.97664e-01,9.99999e-01
1.304417533e+00,3.66045e-04,5.20954e-04,7.02643e-01,9.99999e-01
1.310939621e+00,1.00637e-04,1.42232e-04,7.07558e-01,9.99999e-01
1.317494319e+00,5.78014e-51,8.11350e-51,7.12409e-01,9.99999e-01
1.324081790e+00,2.97051e-33,4.14183e-33,7.17197e-01,9.99999e-01
1.330702199e+00,8.61302e-20,1.19307e-19,7.21922e-01,9.99999e-01
1.337355710e+00,5.64043e-18,7.76294e-18,7.26583e-01,9.99999e-01
1.344042489e+00,3.32729e-18,4.55056e-18,7.31182e-01,9.99999e-01
1.350762701e+00,4.10473e-20,5.57921e-20,7.35717e-01,9.99999e-01
1.357516515e+00,4.60526e-12,6.22172e-12,7.40191e-01,9.99999e-01
1.364304097e+00,6.05248e-09,8.12847e-09,7.44603e-01,9.99999e-01
1.371125618e+00,5.82056e-05,7.77159e-05,7.48953e-01,9.99999e-01
1.377981246e+00,1.99423e-04,2.64753e-04,7.53242e-01,9.99999e-01
1.384871152e+00,6.09164e-03,8.04209e-03,7.57469e-01,9.99999e-01
1.391795508e+00,9.12211e-03,1.19770e-02,7.61637e-01,9.99999e-01
1.398754485e+00,4.57278e-02,5.97168e-02,7.65744e-01,9.99999e-01
1.405748258e+00,9.97673e-02,1.29603e-01,7.69792e-01,9.99999e-01
1.412776999e+00,2.09846e-01,2.71196e-01,7.73780e-01,9.99999e-01
1.419840884e+00,2.04569e-01,2.63040e-01,7.77710e-01,9.99999e-01
1.426940089e+00,6.35763e-03,8.13431e-03,7.81582e-01,9.99999e-01
1.434074789e+00,0.00000e+00,0.00000e+00,7.85395e-01,9.99999e-01
1.441245163e+00,0.00000e+00,0.00000e+00,7.89152e-01,9.99999e-01
1.448451389e+00,0.00000e+00,0.00000e+00,7.92852e-01,9.99999e-01
1.455693646e+00,0.00000e+00,0.00000e+00,7.96495e-01,9.99999e-01
1.462972114e+00,0.00000e+00,0.00000e+00,8.00083e-01,9.99999e-01
1.470286975e+00,1.49063e-250,1.85490e-250,8.03616e-01,9.99999e-01
1.477638409e+00,6.05900e-157,7.50718e-157,8.07094e-01,9.99999e-01
1.485026601e+00,8.92059e-87,1.10060e-86,8.10517e-01,9.99999e-01
1.492451734e+00,8.10953e-74,9.96393e-74,8.13888e-01,9.99999e-01
1.499913993e+00,3.10504e-31,3.79958e-31,8.17205e-01,9.99999e-01
1.507413563e+00,5.77520e-30,7.03888e-30,8.20470e-01,9.99999e-01
1.514950631e+00,1.25389e-31,1.52230e-31,8.23683e-01,9.99999e-01
1.522525384e+00,3.75554e-111,4.54200e-111,8.26845e-01,9.99999e-01
1.530138011e+00,1.74171e-267,2.09855e-267,8.29956e-01,9.99999e-01
1.537788701e+00,1.74655e-197,2.09665e-197,8.33017e-01,9.99999e-01
1.545477645e+00,1.50403e-40,1.79901e-40,8.36029e-01,9.99999e-01
1.553205033e+00,1.03699e-29,1.23600e-29,8.38992e-01,9.99999e-01
1.560971058e+00,8.08864e-30,9.60752e-30,8.41906e-01,9.99999e-01
1.568775913e+00,0.00000e+00,0.00000e+00,8.44773e-01,9.99999e-01
1.576619793e+00,0.00000e+00,0.00000e+00,8.47592e-01,9.99999e-01
1.584502892e+00,0.00000e+00,0.00000e+00,8.50365e-01,9.99999e-01
1.592425406e+00,0.00000e+00,0.00000e+00,8.53092e-01,9.99999e-01
1.600387533e+00,0.00000e+00,0.00000e+00,8.55774e-01,9.99999e-01
1.608389471e+00,0.00000e+00,0.00000e+00,8.58410e-01,9.99999e-01
1.616431418e+00,0.00000e+00,0.00000e+00,8.61003e-01,9.99999e-01
1.624513575e+00,0.00000e+00,0.00000e+00,8.63552e-01,9.99999e-01
1.632636143e+00,0.00000e+00,0.00000e+00,8.66058e-01,9.99999e-01
1.640799324e+00,5.09655e-232,5.86808e-232,8.68521e-01,9.99999e-01
1.649003321e+00,5.10696e-232,5.86371e-232,8.70943e-01,9.99999e-01
1.657248337e+00,5.79773e-179,6.63870e-179,8.73323e-01,9.99999e-01
1.665534579e+00,3.60779e-180,4.12007e-180,8.75663e-01,9.99999e-01
1.673862252e+00,2.41137e-114,2.74656e-114,8.77962e-01,9.99999e-01
1.682231563e+00,1.01841e-78,1.15700e-78,8.80222e-01,9.99999e-01
1.690642721e+00,4.50455e-43,5.10463e-43,8.82443e-01,9.99999e-01
1.699095934e+00,3.42163e-27,3.86788e-27,8.84626e-01,9.99999e-01
1.707591414e+00,1.91329e-13,2.15759e-13,8.86771e-01,9.99999e-01
1.716129371e+00,3.05553e-08,3.43751e-08,8.88878e-01,9.99999e-01
1.724710018e+00,4.04949e-05,4.54514e-05,8.90949e-01,9.99999e-01
1.733333568e+00,1.00807e-03,1.12888e-03,8.92983e-01,9.99999e-01
1.742000236e+00,1.72572e-02,1.92822e-02,8.94982e-01,9.99999e-01
1.750710237e+00,1.77061e-05,1.97404e-05,8.96945e-01,9.99999e-01
1.759463788e+00,3.92261e-109,4.36391e-109,8.98874e-01,9.99999e-01
1.768261107e+00,2.92543e-114,3.24770e-114,9.00769e-01,9.99999e-01
1.777102413e+00,1.95449e-111,2.16533e-111,9.02630e-01,9.99999e-01
1.785987925e+00,4.00855e-104,4.43199e-104,9.04459e-01,9.99999e-01
1.794917864e+00,2.24414e-99,2.47628e-99,9.06254e-01,9.99999e-01
1.803892454e+00,1.94587e-95,2.14299e-95,9.08018e-01,9.99999e-01
1.812911916e+00,1.13190e-91,1.24419e-91,9.09750e-01,9.99999e-01
1.821976476e+00,9.50449e-92,1.04279e-91,9.11452e-01,9.99999e-01
1.831086358e+00,2.28166e-73,2.49875e-73,9.13122e-01,9.99999e-01
1.840241790e+00,2.29159e-62,2.50511e-62,9.14763e-01,9.99999e-01
1.849442999e+00,3.43368e-43,3.74703e-43,9.16374e-01,9.99999e-01
1.858690214e+00,1.01655e-40,1.10741e-40,9.17956e-01,9.99999e-01
1.867983665e+00,3.09908e-41,3.37035e-41,9.19510e-01,9.99999e-01
1.877323583e+00,5.91881e-210,6.42626e-210,9.21035e-01,9.99999e-01
