#,Wave/freq,Total,CO2,Rayleigh,CIA
4.000000000e-01,3.02331e-07,9.99999e-01,3.02331e-07,9.99999e-01
4.020000000e-01,4.06811e-07,9.99999e-01,4.06811e-07,9.99999e-01
4.040100000e-01,5.44030e-07,9.99999e-01,5.44030e-07,9.99999e-01
4.060300500e-01,7.23369e-07,9.99999e-01,7.23369e-07,9.99999e-01
4.080602003e-01,9.56429e-07,9.99999e-01,9.56429e-07,9.99999e-01
4.101005013e-01,1.25762e-06,9.99999e-01,1.25762e-06,9.99999e-01
4.121510038e-01,1.64474e-06,9.99999e-01,1.64474e-06,9.99999e-01
4.142117588e-01,2.13966e-06,9.99999e-01,2.13966e-06,9.99999e-01
4.162828176e-01,2.76907e-06,9.99999e-01,2.76907e-06,9.99999e-01
4.183642317e-01,3.56543e-06,9.99999e-01,3.56543e-06,9.99999e-01
4.204560528e-01,4.56795e-06,9.99999e-01,4.56795e-06,9.99999e-01
4.225583331e-01,5.82378e-06,9.99999e-01,5.82378e-06,9.99999e-01
4.246711247e-01,7.38934e-06,9.99999e-01,7.38934e-06,9.99999e-01
4.267944804e-01,9.33175e-06,9.99999e-01,9.33175e-06,9.99999e-01
4.289284528e-01,1.17306e-05,9.99999e-01,1.17306e-05,9.99999e-01
4.310730950e-01,1.46795e-05,9.99999e-01,1.46795e-05,9.99999e-01
4.332284605e-01,1.82886e-05,9.99999e-01,1.82886e-05,9.99999e-01
4.353946028e-01,2.26864e-05,9.99999e-01,2.26864e-05,9.99999e-01
4.375715758e-01,2.80221e-05,9.99999e-01,2.80221e-05,9.99999e-01
4.397594337e-01,3.44686e-05,9.99999e-01,3.44686e-05,9.99999e-01
4.419582309e-01,4.22251e-05,9.99999e-01,4.22251e-05,9.99999e-01
4.441680220e-01,5.15200e-05,9.99999e-01,5.15200e-05,9.99999e-01
4.463888621e-01,6.26145e-05,9.99999e-01,6.26145e-05,9.99999e-01
4.486208064e-01,7.58056e-05,9.99999e-01,7.58056e-05,9.99999e-01
4.508639105e-01,9.14297e-05,9.99999e-01,9.14297e-05,9.99999e-01
4.531182300e-01,1.09867e-04,9.99999e-01,1.09867e-04,9.99999e-01
4.553838212e-01,1.31543e-04,9.99999e-01,1.31543e-04,9.99999e-01
4.576607403e-01,1.56937e-04,9.99999e-01,1.56937e-04,9.99999e-01
4.599490440e-01,1.86582e-04,9.99999e-01,1.86582e-04,9.99999e-01
4.622487892e-01,2.21070e-04,9.99999e-01,2.21070e-04,9.99999e-01
4.645600332e-01,2.61057e-04,9.99999e-01,2.61057e-04,9.99999e-01
4.668828333e-01,3.07265e-04,9.99999e-01,3.07265e-04,9.99999e-01
4.692172475e-01,3.60490e-04,9.99999e-01,3.60490e-04,9.99999e-01
4.715633337e-01,4.21602e-04,9.99999e-01,4.21602e-04,9.99999e-01
4.739211504e-01,4.91552e-04,9.99999e-01,4.91552e-04,9.99999e-01
4.762907561e-01,5.71372e-04,9.99999e-01,5.71372e-04,9.99999e-01
4.786722099e-01,6.62183e-04,9.99999e-01,6.62183e-04,9.99999e-01
4.810655710e-01,7.65194e-04,9.99999e-01,7.65194e-04,9.99999e-01
4.834708988e-01,8.81708e-04,9.99999e-01,8.81708e-04,9.99999e-01
4.858882533e-01,1.01312e-03,9.99999e-01,1.01312e-03,9.99999e-01
4.883176946e-01,1.16094e-03,9.99999e-01,1.16094e-03,9.99999e-01
4.907592831e-01,1.32674e-03,9.99999e-01,1.32674e-03,9.99999e-01
4.932130795e-01,1.51223e-03,9.99999e-01,1.51223e-03,9.99999e-01
4.956791449e-01,1.71920e-03,9.99999e-01,1.71920e-03,9.99999e-01
4.981575406e-01,1.94956e-03,9.99999e-01,1.94956e-03,9.99999e-01
5.006483283e-01,2.20529e-03,9.99999e-01,2.20529e-03,9.99999e-01
5.031515699e-01,2.48851e-03,9.99999e-01,2.48851e-03,9.99999e-01
5.056673278e-01,2.80141e-03,9.99999e-01,2.80141e-03,9.99999e-01
5.081956644e-01,3.14628e-03,9.99999e-01,3.14628e-03,9.99999e-01
5.107366428e-01,3.52551e-03,9.99999e-01,3.52551e-03,9.99999e-01
5.132903260e-01,3.94158e-03,9.99999e-01,3.94158e-03,9.99999e-01
5.158567776e-01,4.39705e-03,9.99999e-01,4.39705e-03,9.99999e-01
5.184360615e-01,4.89457e-03,9.99999e-01,4.89457e-03,9.99999e-01
5.210282418e-01,5.43687e-03,9.99999e-01,5.43687e-03,9.99999e-01
5.236333830e-01,6.02672e-03,9.99999e-01,6.02672e-03,9.99999e-01
5.262515499e-01,6.66699e-03,9.99999e-01,6.66699e-03,9.99999e-01
5.288828077e-01,7.36059e-03,9.99999e-01,7.36059e-03,9.99999e-01
5.315272217e-01,8.11048e-03,9.99999e-01,8.11048e-03,9.99999e-01
5.341848578e-01,8.91966e-03,9.99999e-01,8.91966e-03,9.99999e-01
5.368557821e-01,9.79115e-03,9.99999e-01,9.79115e-03,9.99999e-01
5.395400610e-01,1.07280e-02,9.99999e-01,1.07280e-02,9.99999e-01
5.422377613e-01,1.17333e-02,9.99999e-01,1.17333e-02,9.99999e-01
5.449489501e-01,1.28102e-02,9.99999e-01,1.28102e-02,9.99999e-01
5.476736949e-01,1.39616e-02,9.99999e-01,1.39616e-02,9.99999e-01
5.504120634e-01,1.51907e-02,9.99999e-01,1.51907e-02,9.99999e-01
5.531641237e-01,1.65005e-02,9.99999e-01,1.65005e-02,9.99999e-01
5.559299443e-01,1.78939e-02,9.99999e-01,1.78939e-02,9.99999e-01
5.587095940e-01,1.93740e-02,9.99999e-01,1.93740e-02,9.99999e-01
5.615031420e-01,2.09436e-02,9.99999e-01,2.09436e-02,9.99999e-01
5.643106577e-01,2.26055e-02,9.99999e-01,2.26055e-02,9.99999e-01
5.671322110e-01,2.43625e-02,9.99999e-01,2.43625e-02,9.99999e-01
5.699678720e-01,2.62173e-02,9.99999e-01,2.62173e-02,9.99999e-01
5.728177114e-01,2.81725e-02,9.99999e-01,2.81725e-02,9.99999e-01
5.756818000e-01,3.02305e-02,9.99999e-01,3.02305e-02,9.99999e-01
5.785602090e-01,3.23937e-02,9.99999e-01,3.23937e-02,9.99999e-01
5.814530100e-01,3.46643e-02,9.99999e-01,3.46643e-02,9.99999e-01
5.843602750e-01,3.70444e-02,9.99999e-01,3.70444e-02,9.99999e-01
5.872820764e-01,3.95361e-02,9.99999e-01,3.95361e-02,9.99999e-01
5.902184868e-01,4.21412e-02,9.99999e-01,4.21412e-02,9.99999e-01
5.931695792e-01,4.48614e-02,9.99999e-01,4.48614e-02,9.99999e-01
5.961354271e-01,4.76981e-02,9.99999e-01,4.76981e-02,9.99999e-01
5.991161043e-01,5.06529e-02,9.99999e-01,5.06529e-02,9.99999e-01
6.021116848e-01,5.37269e-02,9.99999e-01,5.37269e-02,9.99999e-01
6.051222432e-01,5.69211e-02,9.99999e-01,5.69211e-02,9.99999e-01
6.081478544e-01,6.02365e-02,9.99999e-01,6.02365e-02,9.99999e-01
6.111885937e-01,6.36738e-02,9.99999e-01,6.36738e-02,9.99999e-01
6.142445367e-01,6.72334e-02,9.99999e-01,6.72334e-02,9.99999e-01
6.173157594e-01,7.09159e-02,9.99999e-01,7.09159e-02,9.99999e-01
6.204023382e-01,7.47212e-02,9.99999e-01,7.47212e-02,9.99999e-01
6.235043498e-01,7.86496e-02,9.99999e-01,7.86496e-02,9.99999e-01
6.266218716e-01,8.27007e-02,9.99999e-01,8.27007e-02,9.99999e-01
6.297549810e-01,8.68742e-02,9.99999e-01,8.68742e-02,9.99999e-01
6.329037559e-01,9.11697e-02,9.99999e-01,9.11697e-02,9.99999e-01
6.360682746e-01,9.55864e-02,9.99999e-01,9.55864e-02,9.99999e-01
6.392486160e-01,1.00123e-01,9.99999e-01,1.00123e-01,9.99999e-01
6.424448591e-01,1.04780e-01,9.99999e-01,1.04780e-01,9.99999e-01
6.456570834e-01,1.09554e-01,9.99999e-01,1.09554e-01,9.99999e-01
6.488853688e-01,1.14446e-01,9.99999e-01,1.14446e-01,9.99999e-01
6.521297956e-01,1.19452e-01,9.99999e-01,1.19452e-01,9.99999e-01
6.553904446e-01,1.24572e-01,9.99999e-01,1.24572e-01,9.99999e-01
6.586673968e-01,1.29804e-01,9.99999e-01,1.29804e-01,9.99999e-01
6.619607338e-01,1.35146e-01,9.99999e-01,1.35146e-01,9.99999e-01
6.652705375e-01,1.40596e-01,9.99999e-01,1.40596e-01,9.99999e-01
6.685968902e-01,1.46151e-01,9.99999e-01,1.46151e-01,9.99999e-01
6.719398746e-01,1.51810e-01,9.99999e-01,1.51810e-01,9.99999e-01
6.752995740e-01,1.57569e-01,9.99999e-01,1.57569e-01,9.99999e-01
6.786760719e-01,1.63427e-01,9.99999e-01,1.63427e-01,9.99999e-01
6.820694522e-01,1.69380e-01,9.99999e-01,1.69380e-01,9.99999e-01
6.854797995e-01,1.75426e-01,9.99999e-01,1.75426e-01,9.99999e-01
6.889071985e-01,1.81562e-01,9.99999e-01,1.81562e-01,9.99999e-01
6.923517345e-01,1.87785e-01,9.99999e-01,1.87785e-01,9.99999e-01
6.958134932e-01,1.94092e-01,9.99999e-01,1.94092e-01,9.99999e-01
6.992925606e-01,2.00480e-01,9.99999e-01,2.00480e-01,9.99999e-01
7.027890234e-01,2.06946e-01,9.99999e-01,2.06946e-01,9.99999e-01
7.063029686e-01,2.13487e-01,9.99999e-01,2.13487e-01,9.99999e-01
7.098344834e-01,2.20099e-01,9.99999e-01,2.20099e-01,9.99999e-01
7.133836558e-01,2.26779e-01,9.99999e-01,2.26779e-01,9.99999e-01
7.169505741e-01,2.33524e-01,9.99999e-01,2.33524e-01,9.99999e-01
7.205353270e-01,2.40330e-01,9.99999e-01,2.40330e-01,9.99999e-01
7.241380036e-01,2.47194e-01,9.99999e-01,2.47194e-01,9.99999e-01
7.277586936e-01,2.54113e-01,9.99999e-01,2.54113e-01,9.99999e-01
7.313974871e-01,2.61084e-01,9.99999e-01,2.61084e-01,9.99999e-01
7.350544745e-01,2.68102e-01,9.99999e-01,2.68102e-01,9.99999e-01
7.387297469e-01,2.75164e-01,9.99999e-01,2.75164e-01,9.99999e-01
7.424233956e-01,2.82268e-01,9.99999e-01,2.82268e-01,9.99999e-01
7.461355126e-01,2.89409e-01,9.99999e-01,2.89409e-01,9.99999e-01
7.498661902e-01,2.96585e-01,9.99999e-01,2.96585e-01,9.99999e-01
7.536155211e-01,3.03791e-01,9.99999e-01,3.03791e-01,9.99999e-01
7.573835987e-01,3.11025e-01,9.99999e-01,3.11025e-01,9.99999e-01
7.611705167e-01,3.18283e-01,9.99999e-01,3.18283e-01,9.99999e-01
7.649763693e-01,3.25563e-01,9.99999e-01,3.25563e-01,9.99999e-01
7.688012511e-01,3.32860e-01,9.99999e-01,3.32860e-01,9.99999e-01
7.726452574e-01,3.40171e-01,9.99999e-01,3.40171e-01,9.99999e-01
7.765084837e-01,3.47495e-01,9.99999e-01,3.47495e-01,9.99999e-01
7.803910261e-01,3.38593e-01,9.54249e-01,3.54826e-01,9.99999e-01
7.842929812e-01,2.91643e-01,8.05282e-01,3.62163e-01,9.99999e-01
7.882144461e-01,2.93435e-01,7.94135e-01,3.69502e-01,9.99999e-01
7.921555184e-01,3.28891e-01,8.72759e-01,3.76840e-01,9.99999e-01
7.961162960e-01,3.50529e-01,9.12420e-01,3.84175e-01,9.99999e-01
8.000968774e-01,3.72538e-01,9.51556e-01,3.91503e-01,9.99999e-01
8.040973618e-01,3.88673e-01,9.74549e-01,3.98823e-01,9.99999e-01
8.081178486e-01,4.01362e-01,9.88258e-01,4.06131e-01,9.99999e-01
8.121584379e-01,4.11913e-01,9.96345e-01,4.13424e-01,9.99999e-01
8.162192301e-01,4.20360e-01,9.99191e-01,4.20700e-01,9.99999e-01
8.203003262e-01,4.27951e-01,9.99986e-01,4.27957e-01,9.99999e-01
8.244018279e-01,4.35192e-01,9.99999e-01,4.35192e-01,9.99999e-01
8.285238370e-01,4.42403e-01,9.99999e-01,4.42403e-01,9.99999e-01
8.326664562e-01,4.49587e-01,9.99999e-01,4.49587e-01,9.99999e-01
8.368297885e-01,4.56743e-01,9.99999e-01,4.56743e-01,9.99999e-01
8.410139374e-01,4.63867e-01,9.99999e-01,4.63867e-01,9.99999e-01
8.452190071e-01,4.70959e-01,9.99999e-01,4.70959e-01,9.99999e-01
8.494451021e-01,4.78016e-01,9.99999e-01,4.78016e-01,9.99999e-01
8.536923276e-01,4.85037e-01,9.99999e-01,4.85037e-01,9.99999e-01
8.579607893e-01,4.92018e-01,9.99999e-01,4.92018e-01,9.99999e-01
8.622505932e-01,4.98960e-01,9.99999e-01,4.98960e-01,9.99999e-01
8.665618462e-01,4.60172e-01,9.09683e-01,5.05859e-01,9.99999e-01
8.708946554e-01,2.97740e-01,5.80713e-01,5.12714e-01,9.99999e-01
8.752491287e-01,3.33728e-01,6.42371e-01,5.19525e-01,9.99999e-01
8.796253743e-01,4.11888e-01,7.82627e-01,5.26288e-01,9.99999e-01
8.840235012e-01,4.69152e-01,8.80203e-01,5.33004e-01,9.99999e-01
8.884436187e-01,5.13121e-01,9.50806e-01,5.39670e-01,9.99999e-01
8.928858368e-01,5.35245e-01,9.79790e-01,5.46285e-01,9.99999e-01
8.973502660e-01,5.50106e-01,9.95040e-01,5.52848e-01,9.99999e-01
9.018370173e-01,5.59051e-01,9.99451e-01,5.59358e-01,9.99999e-01
9.063462024e-01,5.58052e-01,9.86281e-01,5.65814e-01,9.99999e-01
9.108779334e-01,5.54098e-01,9.68339e-01,5.72214e-01,9.99999e-01
9.154323231e-01,5.74188e-01,9.92444e-01,5.78559e-01,9.99999e-01
9.200094847e-01,5.26156e-01,8.99648e-01,5.84846e-01,9.99999e-01
9.246095321e-01,5.05101e-01,8.54544e-01,5.91076e-01,9.99999e-01
9.292325798e-01,5.28601e-01,8.85062e-01,5.97247e-01,9.99999e-01
9.338787427e-01,5.35728e-01,8.87909e-01,6.03359e-01,9.99999e-01
9.385481364e-01,5.58346e-01,9.16207e-01,6.09410e-01,9.99999e-01
9.432408771e-01,5.83219e-01,9.47705e-01,6.15401e-01,9.99999e-01
9.479570815e-01,6.04462e-01,9.72850e-01,6.21331e-01,9.99999e-01
9.526968669e-01,6.18926e-01,9.86808e-01,6.27199e-01,9.99999e-01
9.574603512e-01,6.29420e-01,9.94336e-01,6.33005e-01,9.99999e-01
9.622476530e-01,6.37617e-01,9.98229e-01,6.38748e-01,9.99999e-01
9.670588912e-01,6.44086e-01,9.99468e-01,6.44429e-01,9.99999e-01
9.718941857e-01,6.50021e-01,9.99961e-01,6.50046e-01,9.99999e-01
9.767536566e-01,6.55600e-01,9.99999e-01,6.55600e-01,9.99999e-01
9.816374249e-01,6.61090e-01,9.99999e-01,6.61090e-01,9.99999e-01
9.865456120e-01,6.66517e-01,9.99999e-01,6.66517e-01,9.99999e-01
9.914783401e-01,6.71879e-01,9.99999e-01,6.71879e-01,9.99999e-01
9.964357318e-01,6.77178e-01,9.99999e-01,6.77178e-01,9.99999e-01
1.001417910e+00,6.82412e-01,9.99999e-01,6.82412e-01,9.99999e-01
1.006425000e+00,6.87582e-01,9.99999e-01,6.87582e-01,9.99999e-01
1.011457125e+00,6.92688e-01,9.99999e-01,6.92688e-01,9.99999e-01
1.016514411e+00,6.97730e-01,9.99999e-01,6.97730e-01,9.99999e-01
1.021596983e+00,7.02659e-01,9.99929e-01,7.02708e-01,9.99999e-01
1.026704968e+00,7.03821e-01,9.94626e-01,7.07623e-01,9.99999e-01
1.031838492e+00,6.73184e-01,9.44854e-01,7.12473e-01,9.99999e-01
1.036997685e+00,7.85623e-02,1.09531e-01,7.17260e-01,9.99999e-01
1.042182673e+00,3.71095e-02,5.13993e-02,7.21984e-01,9.99999e-01
1.047393587e+00,5.51345e-02,7.58754e-02,7.26644e-01,9.99999e-01
1.052630555e+00,4.17951e-04,5.71563e-04,7.31242e-01,9.99999e-01
1.057893707e+00,1.26266e-03,1.71609e-03,7.35777e-01,9.99999e-01
1.063183176e+00,6.52450e-03,8.81391e-03,7.40250e-01,9.99999e-01
1.068499092e+00,2.56621e-02,3.44614e-02,7.44661e-01,9.99999e-01
1.073841587e+00,8.82216e-02,1.17784e-01,7.49010e-01,9.99999e-01
1.079210795e+00,1.94414e-01,2.58083e-01,7.53298e-01,9.99999e-01
1.084606849e+00,3.57205e-01,4.71542e-01,7.57525e-01,9.99999e-01
1.090029883e+00,5.15181e-01,6.76363e-01,7.61691e-01,9.99999e-01
1.095480033e+00,6.31408e-01,8.24509e-01,7.65798e-01,9.99999e-01
1.100957433e+00,7.01434e-01,9.11136e-01,7.69845e-01,9.99999e-01
1.106462220e+00,7.44593e-01,9.62213e-01,7.73833e-01,9.99999e-01
1.111994531e+00,7.66735e-01,9.85821e-01,7.77762e-01,9.99999e-01
1.117554504e+00,7.78908e-01,9.96513e-01,7.81632e-01,9.99999e-01
1.123142276e+00,7.85265e-01,9.99769e-01,7.85446e-01,9.99999e-01
1.128757988e+00,7.89201e-01,9.99999e-01,7.89201e-01,9.99999e-01
1.134401778e+00,7.92900e-01,9.99999e-01,7.92900e-01,9.99999e-01
1.140073787e+00,7.96543e-01,9.99999e-01,7.96543e-01,9.99999e-01
1.145774156e+00,8.00130e-01,9.99999e-01,8.00130e-01,9.99999e-01
1.151503026e+00,8.03662e-01,9.99999e-01,8.03662e-01,9.99999e-01
1.157260541e+00,8.07139e-01,9.99999e-01,8.07139e-01,9.99999e-01
1.163046844e+00,8.10562e-01,9.99999e-01,8.10562e-01,9.99999e-01
1.168862078e+00,8.13932e-01,9.99999e-01,8.13932e-01,9.99999e-01
1.174706389e+00,8.17249e-01,9.99999e-01,8.17249e-01,9.99999e-01
1.180579921e+00,8.20513e-01,9.99999e-01,8.20513e-01,9.99999e-01
1.186482820e+00,8.23718e-01,9.99991e-01,8.23725e-01,9.99999e-01
1.192415234e+00,8.11278e-01,9.81122e-01,8.26887e-01,9.99999e-01
1.198377311e+00,4.57721e-01,5.51472e-01,8.29997e-01,9.99999e-01
1.204369197e+00,2.89051e-15,3.46976e-15,8.33058e-01,9.99999e-01
1.210391043e+00,3.61355e-58,4.32207e-58,8.36068e-01,9.99999e-01
1.216442998e+00,1.69574e-50,2.02106e-50,8.39031e-01,9.99999e-01
1.222525213e+00,9.32653e-50,1.10774e-49,8.41944e-01,9.99999e-01
1.228637839e+00,1.58535e-38,1.87657e-38,8.44810e-01,9.99999e-01
1.234781029e+00,1.68468e-24,1.98752e-24,8.47629e-01,9.99999e-01
1.240954934e+00,1.83583e-16,2.15878e-16,8.50401e-01,9.99999e-01
1.247159708e+00,1.22387e-08,1.43457e-08,8.53128e-01,9.99999e-01
1.253395507e+00,1.01276e-05,1.18339e-05,8.55809e-01,9.99999e-01
1.259662485e+00,1.27549e-03,1.48581e-03,8.58445e-01,9.99999e-01
1.265960797e+00,2.04618e-02,2.37641e-02,8.61037e-01,9.99999e-01
1.272290601e+00,1.50404e-01,1.74162e-01,8.63585e-01,9.99999e-01
1.278652054e+00,1.46284e-01,1.68901e-01,8.66091e-01,9.99999e-01
1.285045314e+00,1.92805e-03,2.21983e-03,8.68554e-01,9.99999e-01
1.291470541e+00,1.96402e-07,2.25496e-07,8.70975e-01,9.99999e-01
1.297927893e+00,7.91442e-04,9.06208e-04,8.73354e-01,9.99999e-01
1.304417533e+00,4.51136e-02,5.15176e-02,8.75694e-01,9.99999e-01
1.310939621e+00,1.08089e-02,1.23109e-02,8.77993e-01,9.99999e-01
1.317494319e+00,2.33304e-20,2.65042e-20,8.80252e-01,9.99999e-01
1.324081790e+00,8.84081e-14,1.00182e-13,8.82472e-01,9.99999e-01
1.330702199e+00,3.64540e-08,4.12070e-08,8.84654e-01,9.99999e-01
1.337355710e+00,8.62293e-08,9.72365e-08,8.86799e-01,9.99999e-01
1.344042489e+00,3.05793e-08,3.44011e-08,8.88906e-01,9.99999e-01
1.350762701e+00,2.05961e-08,2.31163e-08,8.90976e-01,9.99999e-01
1.357516515e+00,1.47156e-05,1.64787e-05,8.93010e-01,9.99999e-01
1.364304097e+00,5.43870e-04,6.07670e-04,8.95008e-01,9.99999e-01
1.371125618e+00,1.95120e-02,2.17532e-02,8.96971e-01,9.99999e-01
1.377981246e+00,3.67183e-02,4.08480e-02,8.98899e-01,9.99999e-01
1.384871152e+00,1.40092e-01,1.55520e-01,9.00794e-01,9.99999e-01
1.391795508e+00,1.61499e-01,1.78915e-01,9.02655e-01,9.99999e-01
1.398754485e+00,3.11248e-01,3.44116e-01,9.04483e-01,9.99999e-01
1.405748258e+00,4.13918e-01,4.56722e-01,9.06278e-01,9.99999e-01
1.412776999e+00,5.52823e-01,6.08807e-01,9.08041e-01,9.99999e-01
1.419840884e+00,4.98167e-01,5.47572e-01,9.09773e-01,9.99999e-01
1.426940089e+00,3.48630e-02,3.82490e-02,9.11474e-01,9.99999e-01
1.434074789e+00,0.00000e+00,0.00000e+00,9.13144e-01,9.99999e-01
1.441245163e+00,0.00000e+00,0.00000e+00,9.14785e-01,9.99999e-01
1.448451389e+00,0.00000e+00,0.00000e+00,9.16395e-01,9.99999e-01
1.455693646e+00,0.00000e+00,0.00000e+00,9.17977e-01,9.99999e-01
1.462972114e+00,3.19257e-229,3.47195e-229,9.19530e-01,9.99999e-01
1.470286975e+00,1.21000e-95,1.31371e-95,9.21055e-01,9.99999e-01
1.477638409e+00,1.96144e-60,2.12610e-60,9.22552e-01,9.99999e-01
1.485026601e+00,4.94432e-34,5.35086e-34,9.24023e-01,9.99999e-01
1.492451734e+00,5.23747e-29,5.65928e-29,9.25466e-01,9.99999e-01
1.499913993e+00,4.06836e-13,4.38929e-13,9.26883e-01,9.99999e-01
1.507413563e+00,6.96883e-12,7.50729e-12,9.28274e-01,9.99999e-01
1.514950631e+00,2.67265e-13,2.87493e-13,9.29640e-01,9.99999e-01
1.522525384e+00,3.28580e-43,3.52939e-43,9.30980e-01,9.99999e-01
1.530138011e+00,5.28089e-102,5.66438e-102,9.32296e-01,9.99999e-01
1.537788701e+00,1.11950e-75,1.19914e-75,9.33588e-01,9.99999e-01
1.545477645e+00,1.17998e-16,1.26221e-16,9.34856e-01,9.99999e-01
1.553205033e+00,5.91714e-12,6.32105e-12,9.36101e-01,9.99999e-01
1.560971058e+00,2.08140e-12,2.22058e-12,9.37323e-01,9.99999e-01
1.568775913e+00,3.08451e-257,3.28656e-257,9.38522e-01,9.99999e-01
1.576619793e+00,0.00000e+00,0.00000e+00,9.39699e-01,9.99999e-01
1.584502892e+00,0.00000e+00,0.00000e+00,9.40854e-01,9.99999e-01
1.592425406e+00,2.57427e-229,2.73280e-229,9.41988e-01,9.99999e-01
1.600387533e+00,0.00000e+00,0.00000e+00,9.43100e-01,9.99999e-01
1.608389471e+00,0.00000e+00,0.00000e+00,9.44192e-01,9.99999e-01
1.616431418e+00,0.00000e+00,0.00000e+00,9.45264e-01,9.99999e-01
1.624513575e+00,3.11019e-291,3.28663e-291,9.46315e-01,9.99999e-01
1.632636143e+00,2.33263e-216,2.46228e-216,9.47347e-01,9.99999e-01
1.640799324e+00,1.13520e-88,1.19701e-88,9.48360e-01,9.99999e-01
1.649003321e+00,1.13781e-88,1.19850e-88,9.49354e-01,9.99999e-01
1.657248337e+00,1.03985e-68,1.09420e-68,9.50329e-01,9.99999e-01
1.665534579e+00,3.65787e-69,3.84518e-69,9.51286e-01,9.99999e-01
1.673862252e+00,2.14324e-44,2.25077e-44,9.52225e-01,9.99999e-01
1.682231563e+00,5.39258e-31,5.65766e-31,9.53146e-01,9.99999e-01
1.690642721e+00,1.34109e-17,1.40568e-17,9.54050e-01,9.99999e-01
1.699095934e+00,2.24388e-11,2.34977e-11,9.54936e-01,9.99999e-01
1.707591414e+00,2.89328e-06,3.02705e-06,9.55807e-01,9.99999e-01
1.716129371e+00,6.81590e-04,7.12467e-04,9.56660e-01,9.99999e-01
1.724710018e+00,1.64221e-02,1.71510e-02,9.57498e-01,9.99999e-01
1.733333568e+00,6.70614e-02,6.99780e-02,9.58320e-01,9.99999e-01
1.742000236e+00,1.99635e-01,2.08143e-01,9.59126e-01,9.99999e-01
1.750710237e+00,2.82008e-03,2.93783e-03,9.59917e-01,9.99999e-01
1.759463788e+00,2.18342e-42,2.27276e-42,9.60693e-01,9.99999e-01
1.768261107e+00,2.22334e-44,2.31247e-44,9.61454e-01,9.99999e-01
1.777102413e+00,4.88879e-43,5.08083e-43,9.62201e-01,9.99999e-01
1.785987925e+00,1.48597e-40,1.54317e-40,9.62933e-01,9.99999e-01
1.794917864e+00,1.00211e-38,1.03991e-38,9.63652e-01,9.99999e-01
1.803892454e+00,2.66756e-37,2.76615e-37,9.64357e-01,9.99999e-01
1.812911916e+00,8.10067e-36,8.39404e-36,9.65049e-01,9.99999e-01
1.821976476e+00,6.54302e-36,6.77523e-36,9.65727e-01,9.99999e-01
1.831086358e+00,5.35245e-29,5.53858e-29,9.66392e-01,9.99999e-01
1.840241790e+00,1.01869e-24,1.05340e-24,9.67045e-01,9.99999e-01
1.849442999e+00,2.97555e-17,3.07491e-17,9.67685e-01,9.99999e-01
1.858690214e+00,4.01892e-16,4.15043e-16,9.68314e-01,9.99999e-01
1.867983665e+00,8.04120e-17,8.29905e-17,9.68930e-01,9.99999e-01
1.877323583e+00,2.29098e-80,2.36297e-80,9.69534e-01,9.99999e-01
