#,Wave/freq,Total,CO2,Rayleigh,CIA
4.000000000e-01,1.34648e-20,9.99999e-01,1.34648e-20,9.99999e-01
4.020000000e-01,3.32744e-20,9.99999e-01,3.32744e-20,9.99999e-01
4.040100000e-01,8.06950e-20,9.99999e-01,8.06950e-20,9.99999e-01
4.060300500e-01,1.92302e-19,9.99999e-01,1.92302e-19,9.99999e-01
4.080602003e-01,4.50476e-19,9.99999e-01,4.50476e-19,9.99999e-01
4.101005013e-01,1.03766e-18,9.99999e-01,1.03766e-18,9.99999e-01
4.121510038e-01,2.35117e-18,9.99999e-01,2.35117e-18,9.99999e-01
4.142117588e-01,5.24198e-18,9.99999e-01,5.24198e-18,9.99999e-01
4.162828176e-01,1.15034e-17,9.99999e-01,1.15034e-17,9.99999e-01
4.183642317e-01,2.48553e-17,9.99999e-01,2.48553e-17,9.99999e-01
4.204560528e-01,5.28932e-17,9.99999e-01,5.28932e-17,9.99999e-01
4.225583331e-01,1.10893e-16,9.99999e-01,1.10893e-16,9.99999e-01
4.246711247e-01,2.29116e-16,9.99999e-01,2.29116e-16,9.99999e-01
4.267944804e-01,4.66642e-16,9.99999e-01,4.66642e-16,9.99999e-01
4.289284528e-01,9.37150e-16,9.99999e-01,9.37150e-16,9.99999e-01
4.310730950e-01,1.85632e-15,9.99999e-01,1.85632e-15,9.99999e-01
4.332284605e-01,3.62772e-15,9.99999e-01,3.62772e-15,9.99999e-01
4.353946028e-01,6.99628e-15,9.99999e-01,6.99628e-15,9.99999e-01
4.375715758e-01,1.33188e-14,9.99999e-01,1.33188e-14,9.99999e-01
4.397594337e-01,2.50347e-14,9.99999e-01,2.50347e-14,9.99999e-01
4.419582309e-01,4.64734e-14,9.99999e-01,4.64734e-14,9.99999e-01
4.441680220e-01,8.52237e-14,9.99999e-01,8.52237e-14,9.99999e-01
4.463888621e-01,1.54424e-13,9.99999e-01,1.54424e-13,9.99999e-01
4.486208064e-01,2.76547e-13,9.99999e-01,2.76547e-13,9.99999e-01
4.508639105e-01,4.89581e-13,9.99999e-01,4.89581e-13,9.99999e-01
4.531182300e-01,8.57001e-13,9.99999e-01,8.57001e-13,9.99999e-01
4.553838212e-01,1.48366e-12,9.99999e-01,1.48366e-12,9.99999e-01
4.576607403e-01,2.54086e-12,9.99999e-01,2.54086e-12,9.99999e-01
4.599490440e-01,4.30537e-12,9.99999e-01,4.30537e-12,9.99999e-01
4.622487892e-01,7.21967e-12,9.99999e-01,7.21967e-12,9.99999e-01
4.645600332e-01,1.19836e-11,9.99999e-01,1.19836e-11,9.99999e-01
4.668828333e-01,1.96931e-11,9.99999e-01,1.96931e-11,9.99999e-01
4.692172475e-01,3.20463e-11,9.99999e-01,3.20463e-11,9.99999e-01
4.715633337e-01,5.16493e-11,9.99999e-01,5.16493e-11,9.99999e-01
4.739211504e-01,8.24626e-11,9.99999e-01,8.24626e-11,9.99999e-01
4.762907561e-01,1.30448e-10,9.99999e-01,1.30448e-10,9.99999e-01
4.786722099e-01,2.04494e-10,9.99999e-01,2.04494e-10,9.99999e-01
4.810655710e-01,3.17738e-10,9.99999e-01,3.17738e-10,9.99999e-01
4.834708988e-01,4.89414e-10,9.99999e-01,4.89414e-10,9.99999e-01
4.858882533e-01,7.47443e-10,9.99999e-01,7.47443e-10,9.99999e-01
4.883176946e-01,1.13200e-09,9.99999e-01,1.13200e-09,9.99999e-01
4.907592831e-01,1.70042e-09,9.99999e-01,1.70042e-09,9.99999e-01
4.932130795e-01,2.53381e-09,9.99999e-01,2.53381e-09,9.99999e-01
4.956791449e-01,3.74603e-09,9.99999e-01,3.74603e-09,9.99999e-01
4.981575406e-01,5.49559e-09,9.99999e-01,5.49559e-09,9.99999e-01
5.006483283e-01,8.00146e-09,9.99999e-01,8.00146e-09,9.99999e-01
5.031515699e-01,1.15638e-08,9.99999e-01,1.15638e-08,9.99999e-01
5.056673278e-01,1.65911e-08,9.99999e-01,1.65911e-08,9.99999e-01
5.081956644e-01,2.36348e-08,9.99999e-01,2.36348e-08,9.99999e-01
5.107366428e-01,3.34344e-08,9.99999e-01,3.34344e-08,9.99999e-01
5.132903260e-01,4.69742e-08,9.99999e-01,4.69742e-08,9.99999e-01
5.158567776e-01,6.55553e-08,9.99999e-01,6.55553e-08,9.99999e-01
5.184360615e-01,9.08861e-08,9.99999e-01,9.08861e-08,9.99999e-01
5.210282418e-01,1.25194e-07,9.99999e-01,1.25194e-07,9.99999e-01
5.236333830e-01,1.71366e-07,9.99999e-01,1.71366e-07,9.99999e-01
5.262515499e-01,2.33116e-07,9.99999e-01,2.33116e-07,9.99999e-01
5.288828077e-01,3.15194e-07,9.99999e-01,3.15194e-07,9.99999e-01
5.315272217e-01,4.23640e-07,9.99999e-01,4.23640e-07,9.99999e-01
5.341848578e-01,5.66083e-07,9.99999e-01,5.66083e-07,9.99999e-01
5.368557821e-01,7.52101e-07,9.99999e-01,7.52101e-07,9.99999e-01
5.395400610e-01,9.93653e-07,9.99999e-01,9.93653e-07,9.99999e-01
5.422377613e-01,1.30558e-06,9.99999e-01,1.30558e-06,9.99999e-01
5.449489501e-01,1.70621e-06,9.99999e-01,1.70621e-06,9.99999e-01
5.476736949e-01,2.21801e-06,9.99999e-01,2.21801e-06,9.99999e-01
5.504120634e-01,2.86843e-06,9.99999e-01,2.86843e-06,9.99999e-01
5.531641237e-01,3.69079e-06,9.99999e-01,3.69079e-06,9.99999e-01
5.559299443e-01,4.72534e-06,9.99999e-01,4.72534e-06,9.99999e-01
5.587095940e-01,6.02041e-06,9.99999e-01,6.02041e-06,9.99999e-01
5.615031420e-01,7.63381e-06,9.99999e-01,7.63381e-06,9.99999e-01
5.643106577e-01,9.63429e-06,9.99999e-01,9.63429e-06,9.99999e-01
5.671322110e-01,1.21032e-05,9.99999e-01,1.21032e-05,9.99999e-01
5.699678720e-01,1.51365e-05,9.99999e-01,1.51365e-05,9.99999e-01
5.728177114e-01,1.88466e-05,9.99999e-01,1.88466e-05,9.99999e-01
5.756818000e-01,2.33646e-05,9.99999e-01,2.33646e-05,9.99999e-01
5.785602090e-01,2.88431e-05,9.99999e-01,2.88431e-05,9.99999e-01
5.814530100e-01,3.54582e-05,9.99999e-01,3.54582e-05,9.99999e-01
5.843602750e-01,4.34131e-05,9.99999e-01,4.34131e-05,9.99999e-01
5.872820764e-01,5.29406e-05,9.99999e-01,5.29406e-05,9.99999e-01
5.902184868e-01,6.43064e-05,9.99999e-01,6.43064e-05,9.99999e-01
5.931695792e-01,7.78129e-05,9.99999e-01,7.78129e-05,9.99999e-01
5.961354271e-01,9.38023e-05,9.99999e-01,9.38023e-05,9.99999e-01
5.991161043e-01,1.12661e-04,9.99999e-01,1.12661e-04,9.99999e-01
6.021116848e-01,1.34822e-04,9.99999e-01,1.34822e-04,9.99999e-01
6.051222432e-01,1.60771e-04,9.99999e-01,1.60771e-04,9.99999e-01
6.081478544e-01,1.91048e-04,9.99999e-01,1.91048e-04,9.99999e-01
6.111885937e-01,2.26256e-04,9.99999e-01,2.26256e-04,9.99999e-01
6.142445367e-01,2.67058e-04,9.99999e-01,2.67058e-04,9.99999e-01
6.173157594e-01,3.14188e-04,9.99999e-01,3.14188e-04,9.99999e-01
6.204023382e-01,3.68450e-04,9.99999e-01,3.68450e-04,9.99999e-01
6.235043498e-01,4.30726e-04,9.99999e-01,4.30726e-04,9.99999e-01
6.266218716e-01,5.01977e-04,9.99999e-01,5.01977e-04,9.99999e-01
6.297549810e-01,5.83248e-04,9.99999e-01,5.83248e-04,9.99999e-01
6.329037559e-01,6.75672e-04,9.99999e-01,6.75672e-04,9.99999e-01
6.360682746e-01,7.80470e-04,9.99999e-01,7.80470e-04,9.99999e-01
6.392486160e-01,8.98959e-04,9.99999e-01,8.98959e-04,9.99999e-01
6.424448591e-01,1.03255e-03,9.99999e-01,1.03255e-03,9.99999e-01
6.456570834e-01,1.18275e-03,9.99999e-01,1.18275e-03,9.99999e-01
6.488853688e-01,1.35117e-03,9.99999e-01,1.35117e-03,9.99999e-01
6.521297956e-01,1.53953e-03,9.99999e-01,1.53953e-03,9.99999e-01
6.553904446e-01,1.74962e-03,9.99999e-01,1.74962e-03,9.99999e-01
6.586673968e-01,1.98336e-03,9.99999e-01,1.98336e-03,9.99999e-01
6.619607338e-01,2.24277e-03,9.99999e-01,2.24277e-03,9.99999e-01
6.652705375e-01,2.52996e-03,9.99999e-01,2.52996e-03,9.99999e-01
6.685968902e-01,2.84714e-03,9.99999e-01,2.84714e-03,9.99999e-01
6.719398746e-01,3.19661e-03,9.99999e-01,3.19661e-03,9.99999e-01
6.752995740e-01,3.58079e-03,9.99999e-01,3.58079e-03,9.99999e-01
6.786760719e-01,4.00215e-03,9.99999e-01,4.00215e-03,9.99999e-01
6.820694522e-01,4.46328e-03,9.99999e-01,4.46328e-03,9.99999e-01
6.854797995e-01,4.96683e-03,9.99999e-01,4.96683e-03,9.99999e-01
6.889071985e-01,5.51553e-03,9.99999e-01,5.51553e-03,9.99999e-01
6.923517345e-01,6.11219e-03,9.99999e-01,6.11219e-03,9.99999e-01
6.958134932e-01,6.75966e-03,9.99999e-01,6.75966e-03,9.99999e-01
6.992925606e-01,7.46086e-03,9.99999e-01,7.46086e-03,9.99999e-01
7.027890234e-01,8.21877e-03,9.99999e-01,8.21877e-03,9.99999e-01
7.063029686e-01,9.03638e-03,9.99999e-01,9.03638e-03,9.99999e-01
7.098344834e-01,9.91673e-03,9.99999e-01,9.91673e-03,9.99999e-01
7.133836558e-01,1.08629e-02,9.99999e-01,1.08629e-02,9.99999e-01
7.169505741e-01,1.18779e-02,9.99999e-01,1.18779e-02,9.99999e-01
7.205353270e-01,1.29649e-02,9.99999e-01,1.29649e-02,9.99999e-01
7.241380036e-01,1.41269e-02,9.99999e-01,1.41269e-02,9.99999e-01
7.277586936e-01,1.53669e-02,9.99999e-01,1.53669e-02,9.99999e-01
7.313974871e-01,1.66881e-02,9.99999e-01,1.66881e-02,9.99999e-01
7.350544745e-01,1.80933e-02,9.99999e-01,1.80933e-02,9.99999e-01
7.387297469e-01,1.95856e-02,9.99999e-01,1.95856e-02,9.99999e-01
7.424233956e-01,2.11678e-02,9.99999e-01,2.11678e-02,9.99999e-01
7.461355126e-01,2.28427e-02,9.99999e-01,2.28427e-02,9.99999e-01
7.498661902e-01,2.46131e-02,9.99999e-01,2.46131e-02,9.99999e-01
7.536155211e-01,2.64816e-02,9.99999e-01,2.64816e-02,9.99999e-01
7.573835987e-01,2.84509e-02,9.99999e-01,2.84509e-02,9.99999e-01
7.611705167e-01,3.05233e-02,9.99999e-01,3.05233e-02,9.99999e-01
7.649763693e-01,3.27012e-02,9.99999e-01,3.27012e-02,9.99999e-01
7.688012511e-01,3.49868e-02,9.99999e-01,3.49868e-02,9.99999e-01
7.726452574e-01,3.73823e-02,9.99999e-01,3.73823e-02,9.99999e-01
7.765084837e-01,3.98896e-02,9.99999e-01,3.98896e-02,9.99999e-01
7.803910261e-01,3.79645e-02,8.93062e-01,4.25104e-02,9.99999e-01
7.842929812e-01,2.44197e-02,5.39701e-01,4.52466e-02,9.99999e-01
7.882144461e-01,2.53175e-02,5.26354e-01,4.80996e-02,9.99999e-01
7.921555184e-01,3.40723e-02,6.67157e-01,5.10708e-02,9.99999e-01
7.961162960e-01,4.10224e-02,7.57410e-01,5.41614e-02,9.99999e-01
8.000968774e-01,4.93406e-02,8.60007e-01,5.73723e-02,9.99999e-01
8.040973618e-01,5.61080e-02,9.24279e-01,6.07045e-02,9.99999e-01
8.081178486e-01,6.18881e-02,9.64609e-01,6.41587e-02,9.99999e-01
8.121584379e-01,6.69787e-02,9.88830e-01,6.77353e-02,9.99999e-01
8.162192301e-01,7.12576e-02,9.97520e-01,7.14347e-02,9.99999e-01
8.203003262e-01,7.52540e-02,9.99957e-01,7.52571e-02,9.99999e-01
8.244018279e-01,7.92024e-02,9.99999e-01,7.92024e-02,9.99999e-01
8.285238370e-01,8.32705e-02,9.99999e-01,8.32705e-02,9.99999e-01
8.326664562e-01,8.74609e-02,9.99999e-01,8.74609e-02,9.99999e-01
8.368297885e-01,9.17732e-02,9.99999e-01,9.17732e-02,9.99999e-01
8.410139374e-01,9.62066e-02,9.99999e-01,9.62066e-02,9.99999e-01
8.452190071e-01,1.00760e-01,9.99999e-01,1.00760e-01,9.99999e-01
8.494451021e-01,1.05433e-01,9.99999e-01,1.05433e-01,9.99999e-01
8.536923276e-01,1.10224e-01,9.99999e-01,1.10224e-01,9.99999e-01
8.579607893e-01,1.15131e-01,9.99999e-01,1.15131e-01,9.99999e-01
8.622505932e-01,1.20153e-01,9.99999e-01,1.20153e-01,9.99999e-01
8.665618462e-01,1.07082e-01,8.54674e-01,1.25289e-01,9.99999e-01
8.708946554e-01,2.95649e-02,2.26487e-01,1.30537e-01,9.99999e-01
8.752491287e-01,3.82802e-02,2.81692e-01,1.35893e-01,9.99999e-01
8.796253743e-01,6.88233e-02,4.86872e-01,1.41358e-01,9.99999e-01
8.840235012e-01,1.00113e-01,6.81378e-01,1.46928e-01,9.99999e-01
8.884436187e-01,1.30865e-01,8.57569e-01,1.52600e-01,9.99999e-01
8.928858368e-01,1.48807e-01,9.39593e-01,1.58373e-01,9.99999e-01
8.973502660e-01,1.61758e-01,9.84860e-01,1.64244e-01,9.99999e-01
9.018370173e-01,1.69924e-01,9.98315e-01,1.70210e-01,9.99999e-01
9.063462024e-01,1.69292e-01,9.60416e-01,1.76269e-01,9.99999e-01
9.108779334e-01,1.65423e-01,9.06840e-01,1.82417e-01,9.99999e-01
9.154323231e-01,1.84320e-01,9.77035e-01,1.88652e-01,9.99999e-01
9.200094847e-01,1.49473e-01,7.66643e-01,1.94971e-01,9.99999e-01
9.246095321e-01,1.25439e-01,6.22930e-01,2.01370e-01,9.99999e-01
9.292325798e-01,1.45378e-01,6.99447e-01,2.07846e-01,9.99999e-01
9.338787427e-01,1.50335e-01,7.01199e-01,2.14397e-01,9.99999e-01
9.385481364e-01,1.69706e-01,7.67838e-01,2.21018e-01,9.99999e-01
9.432408771e-01,1.93289e-01,8.48846e-01,2.27708e-01,9.99999e-01
9.479570815e-01,2.15588e-01,9.19505e-01,2.34461e-01,9.99999e-01
9.526968669e-01,2.31703e-01,9.60322e-01,2.41276e-01,9.99999e-01
9.574603512e-01,2.43879e-01,9.82797e-01,2.48148e-01,9.99999e-01
9.622476530e-01,2.53695e-01,9.94594e-01,2.55074e-01,9.99999e-01
9.670588912e-01,2.61625e-01,9.98373e-01,2.62051e-01,9.99999e-01
9.718941857e-01,2.69044e-01,9.99882e-01,2.69076e-01,9.99999e-01
9.767536566e-01,2.76144e-01,9.99999e-01,2.76144e-01,9.99999e-01
9.816374249e-01,2.83253e-01,9.99999e-01,2.83253e-01,9.99999e-01
9.865456120e-01,2.90399e-01,9.99999e-01,2.90399e-01,9.99999e-01
9.914783401e-01,2.97579e-01,9.99999e-01,2.97579e-01,9.99999e-01
9.964357318e-01,3.04790e-01,9.99999e-01,3.04790e-01,9.99999e-01
1.001417910e+00,3.12027e-01,9.99999e-01,3.12027e-01,9.99999e-01
1.006425000e+00,3.19289e-01,9.99999e-01,3.19289e-01,9.99999e-01
1.011457125e+00,3.26571e-01,9.99999e-01,3.26571e-01,9.99999e-01
1.016514411e+00,3.33870e-01,9.99999e-01,3.33870e-01,9.99999e-01
1.021596983e+00,3.41116e-01,9.99802e-01,3.41183e-01,9.99999e-01
1.026704968e+00,3.42964e-01,9.84092e-01,3.48508e-01,9.99999e-01
1.031838492e+00,3.15672e-01,8.87116e-01,3.55840e-01,9.99999e-01
1.036997685e+00,1.24639e-02,3.43191e-02,3.63177e-01,9.99999e-01
1.042182673e+00,2.51960e-04,6.80022e-04,3.70516e-01,9.99999e-01
1.047393587e+00,7.62453e-04,2.01785e-03,3.77855e-01,9.99999e-01
1.052630555e+00,4.86560e-09,1.26317e-08,3.85189e-01,9.99999e-01
1.057893707e+00,1.78281e-08,4.54200e-08,3.92516e-01,9.99999e-01
1.063183176e+00,1.82568e-06,4.56608e-06,3.99834e-01,9.99999e-01
1.068499092e+00,3.16115e-05,7.76427e-05,4.07140e-01,9.99999e-01
1.073841587e+00,8.50515e-04,2.05225e-03,4.14431e-01,9.99999e-01
1.079210795e+00,8.91566e-03,2.11419e-02,4.21705e-01,9.99999e-01
1.084606849e+00,4.63004e-02,1.07937e-01,4.28959e-01,9.99999e-01
1.090029883e+00,1.35308e-01,3.10205e-01,4.36190e-01,9.99999e-01
1.095480033e+00,2.47924e-01,5.59146e-01,4.43398e-01,9.99999e-01
1.100957433e+00,3.39673e-01,7.53860e-01,4.50578e-01,9.99999e-01
1.106462220e+00,4.07060e-01,8.89302e-01,4.57730e-01,9.99999e-01
1.111994531e+00,4.45029e-01,9.57359e-01,4.64850e-01,9.99999e-01
1.117554504e+00,4.66917e-01,9.89362e-01,4.71937e-01,9.99999e-01
1.123142276e+00,4.78651e-01,9.99292e-01,4.78989e-01,9.99999e-01
1.128757988e+00,4.86004e-01,9.99999e-01,4.86004e-01,9.99999e-01
1.134401778e+00,4.92981e-01,9.99999e-01,4.92981e-01,9.99999e-01
1.140073787e+00,4.99916e-01,9.99999e-01,4.99916e-01,9.99999e-01
1.145774156e+00,5.06809e-01,9.99999e-01,5.06809e-01,9.99999e-01
1.151503026e+00,5.13659e-01,9.99999e-01,5.13659e-01,9.99999e-01
1.157260541e+00,5.20463e-01,9.99999e-01,5.20463e-01,9.99999e-01
1.163046844e+00,5.27220e-01,9.99999e-01,5.27220e-01,9.99999e-01
1.168862078e+00,5.33928e-01,9.99999e-01,5.33928e-01,9.99999e-01
1.174706389e+00,5.40587e-01,9.99999e-01,5.40587e-01,9.99999e-01
1.180579921e+00,5.47195e-01,9.99999e-01,5.47195e-01,9.99999e-01
1.186482820e+00,5.53740e-01,9.99979e-01,5.53751e-01,9.99999e-01
1.192415234e+00,5.30833e-01,9.47485e-01,5.60254e-01,9.99999e-01
1.198377311e+00,2.81315e-01,4.96407e-01,5.66702e-01,9.99999e-01
1.204369197e+00,6.63777e-42,1.15823e-41,5.73095e-01,9.99999e-01
1.210391043e+00,1.25141e-172,2.15972e-172,5.79432e-01,9.99999e-01
1.216442998e+00,2.97772e-149,5.08394e-149,5.85711e-01,9.99999e-01
1.222525213e+00,5.34728e-147,9.03358e-147,5.91933e-01,9.99999e-01
1.228637839e+00,3.39321e-113,5.67336e-113,5.98096e-01,9.99999e-01
1.234781029e+00,4.82535e-70,7.98636e-70,6.04199e-01,9.99999e-01
1.240954934e+00,3.24897e-46,5.32407e-46,6.10242e-01,9.99999e-01
1.247159708e+00,2.81622e-29,4.57011e-29,6.16225e-01,9.99999e-01
1.253395507e+00,7.94584e-15,1.27716e-14,6.22146e-01,9.99999e-01
1.259662485e+00,4.03156e-09,6.41962e-09,6.28005e-01,9.99999e-01
1.265960797e+00,4.30527e-05,6.79276e-05,6.33803e-01,9.99999e-01
1.272290601e+00,4.46945e-03,6.98857e-03,6.39537e-01,9.99999e-01
1.278652054e+00,6.33336e-03,9.81597e-03,6.45209e-01,9.99999e-01
1.285045314e+00,1.29710e-06,1.99303e-06,6.50818e-01,9.99999e-01
1.291470541e+00,8.81332e-20,1.34275e-19,6.56363e-01,9.99999e-01
1.297927893e+00,4.17768e-08,6.31217e-08,6.61844e-01,9.99999e-01
1.304417533e+00,1.21225e-04,1.81674e-04,6.67262e-01,9.99999e-01
1.310939621e+00,3.69564e-05,5.49443e-05,6.72616e-01,9.99999e-01
1.317494319e+00,4.37413e-58,6.45241e-58,6.77905e-01,9.99999e-01
1.324081790e+00,8.75896e-38,1.28218e-37,6.83131e-01,9.99999e-01
1.330702199e+00,1.75466e-22,2.54929e-22,6.88292e-01,9.99999e-01
1.337355710e+00,2.44856e-20,3.53129e-20,6.93389e-01,9.99999e-01
1.344042489e+00,1.55896e-20,2.23212e-20,6.98423e-01,9.99999e-01
1.350762701e+00,7.82814e-23,1.11291e-22,7.03392e-01,9.99999e-01
1.357516515e+00,1.54143e-13,2.17624e-13,7.08297e-01,9.99999e-01
1.364304097e+00,4.49858e-10,6.30813e-10,7.13139e-01,9.99999e-01
1.371125618e+00,1.52090e-05,2.11849e-05,7.17917e-01,9.99999e-01
1.377981246e+00,6.04999e-05,8.37215e-05,7.22632e-01,9.99999e-01
1.384871152e+00,2.96134e-03,4.07178e-03,7.27284e-01,9.99999e-01
1.391795508e+00,4.69394e-03,6.41359e-03,7.31873e-01,9.99999e-01
1.398754485e+00,2.90671e-02,3.94719e-02,7.36399e-01,9.99999e-01
1.405748258e+00,7.12520e-02,9.61741e-02,7.40863e-01,9.99999e-01
1.412776999e+00,1.66390e-01,2.23263e-01,7.45266e-01,9.99999e-01
1.419840884e+00,1.70293e-01,2.27176e-01,7.49606e-01,9.99999e-01
1.426940089e+00,4.81417e-03,6.38580e-03,7.53886e-01,9.99999e-01
1.434074789e+00,0.00000e+00,0.00000e+00,7.58105e-01,9.99999e-01
1.441245163e+00,0.00000e+00,0.00000e+00,7.62263e-01,9.99999e-01
1.448451389e+00,0.00000e+00,0.00000e+00,7.66361e-01,9.99999e-01
1.455693646e+00,0.00000e+00,0.00000e+00,7.70400e-01,9.99999e-01
1.462972114e+00,0.00000e+00,0.00000e+00,7.74379e-01,9.99999e-01
1.470286975e+00,8.81505e-287,1.13260e-286,7.78300e-01,9.99999e-01
1.477638409e+00,1.61488e-179,2.06463e-179,7.82163e-01,9.99999e-01
1.485026601e+00,4.11578e-99,5.23657e-99,7.85968e-01,9.99999e-01
1.492451734e+00,2.82853e-84,3.58170e-84,7.89716e-01,9.99999e-01
1.499913993e+00,1.82957e-35,2.30596e-35,7.93407e-01,9.99999e-01
1.507413563e+00,3.58763e-34,4.50118e-34,7.97042e-01,9.99999e-01
1.514950631e+00,6.48044e-36,8.09425e-36,8.00622e-01,9.99999e-01
1.522525384e+00,4.78760e-127,5.95364e-127,8.04146e-01,9.99999e-01
1.530138011e+00,3.22011e-306,3.98717e-306,8.07616e-01,9.99999e-01
1.537788701e+00,5.42652e-226,6.69089e-226,8.11031e-01,9.99999e-01
1.545477645e+00,3.85986e-46,4.73955e-46,8.14394e-01,9.99999e-01
1.553205033e+00,7.88018e-34,9.63696e-34,8.17703e-01,9.99999e-01
1.560971058e+00,7.48653e-34,9.11923e-34,8.20960e-01,9.99999e-01
1.568775913e+00,0.00000e+00,0.00000e+00,8.24165e-01,9.99999e-01
1.576619793e+00,0.00000e+00,0.00000e+00,8.27320e-01,9.99999e-01
1.584502892e+00,0.00000e+00,0.00000e+00,8.30423e-01,9.99999e-01
1.592425406e+00,0.00000e+00,0.00000e+00,8.33477e-01,9.99999e-01
1.600387533e+00,0.00000e+00,0.00000e+00,8.36481e-01,9.99999e-01
1.608389471e+00,0.00000e+00,0.00000e+00,8.39436e-01,9.99999e-01
1.616431418e+00,0.00000e+00,0.00000e+00,8.42343e-01,9.99999e-01
1.624513575e+00,0.00000e+00,0.00000e+00,8.45203e-01,9.99999e-01
1.632636143e+00,0.00000e+00,0.00000e+00,8.48015e-01,9.99999e-01
1.640799324e+00,1.50176e-265,1.76515e-265,8.50781e-01,9.99999e-01
1.649003321e+00,1.50527e-265,1.76364e-265,8.53501e-01,9.99999e-01
1.657248337e+00,9.25340e-205,1.08078e-204,8.56176e-01,9.99999e-01
1.665534579e+00,3.82892e-206,4.45842e-206,8.58806e-01,9.99999e-01
1.673862252e+00,1.04917e-130,1.21799e-130,8.61392e-01,9.99999e-01
1.682231563e+00,7.05823e-90,8.16986e-90,8.63934e-01,9.99999e-01
1.690642721e+00,4.97922e-49,5.74679e-49,8.66434e-01,9.99999e-01
1.699095934e+00,7.39283e-31,8.50835e-31,8.68891e-01,9.99999e-01
1.707591414e+00,4.36746e-15,5.01253e-15,8.71306e-01,9.99999e-01
1.716129371e+00,3.09795e-09,3.54586e-09,8.73680e-01,9.99999e-01
1.724710018e+00,1.03726e-05,1.18406e-05,8.76014e-01,9.99999e-01
1.733333568e+00,3.90593e-04,4.44711e-04,8.78307e-01,9.99999e-01
1.742000236e+00,9.87036e-03,1.12092e-02,8.80561e-01,9.99999e-01
1.750710237e+00,5.87270e-06,6.65253e-06,8.82776e-01,9.99999e-01
1.759463788e+00,9.95768e-125,1.12522e-124,8.84953e-01,9.99999e-01
1.768261107e+00,1.32042e-130,1.48848e-130,8.87092e-01,9.99999e-01
1.777102413e+00,2.18634e-127,2.45878e-127,8.89194e-01,9.99999e-01
1.785987925e+00,5.49605e-119,6.16660e-119,8.91259e-01,9.99999e-01
1.794917864e+00,1.51200e-113,1.69262e-113,8.93288e-01,9.99999e-01
1.803892454e+00,4.94883e-109,5.52768e-109,8.95281e-01,9.99999e-01
1.812911916e+00,1.01785e-104,1.13442e-104,8.97240e-01,9.99999e-01
1.821976476e+00,8.35195e-105,9.28857e-105,8.99163e-01,9.99999e-01
1.831086358e+00,9.63828e-84,1.06967e-83,9.01053e-01,9.99999e-01
1.840241790e+00,3.82955e-71,4.24134e-71,9.02909e-01,9.99999e-01
1.849442999e+00,3.19598e-49,3.53251e-49,9.04733e-01,9.99999e-01
1.858690214e+00,1.97731e-46,2.18120e-46,9.06524e-01,9.99999e-01
1.867983665e+00,6.37694e-47,7.02087e-47,9.08283e-01,9.99999e-01
1.877323583e+00,2.75992e-240,3.03284e-240,9.10010e-01,9.99999e-01
