#,Wave/freq,Total,CO2,Rayleigh,CIA
4.000000000e-01,3.12737e-11,9.99999e-01,3.12737e-11,9.99999e-01
4.020000000e-01,5.04528e-11,9.99999e-01,5.04528e-11,9.99999e-01
4.040100000e-01,8.05896e-11,9.99999e-01,8.05896e-11,9.99999e-01
4.060300500e-01,1.27542e-10,9.99999e-01,1.27542e-10,9.99999e-01
4.080602003e-01,2.00029e-10,9.99999e-01,2.00029e-10,9.99999e-01
4.101005013e-01,3.10935e-10,9.99999e-01,3.10935e-10,9.99999e-01
4.121510038e-01,4.79141e-10,9.99999e-01,4.79141e-10,9.99999e-01
4.142117588e-01,7.32061e-10,9.99999e-01,7.32061e-10,9.99999e-01
4.162828176e-01,1.10916e-09,9.99999e-01,1.10916e-09,9.99999e-01
4.183642317e-01,1.66678e-09,9.99999e-01,1.66678e-09,9.99999e-01
4.204560528e-01,2.48467e-09,9.99999e-01,2.48467e-09,9.99999e-01
4.225583331e-01,3.67480e-09,9.99999e-01,3.67480e-09,9.99999e-01
4.246711247e-01,5.39313e-09,9.99999e-01,5.39313e-09,9.99999e-01
4.267944804e-01,7.85520e-09,9.99999e-01,7.85520e-09,9.99999e-01
4.289284528e-01,1.13566e-08,9.99999e-01,1.13566e-08,9.99999e-01
4.310730950e-01,1.62996e-08,9.99999e-01,1.62996e-08,9.99999e-01
4.332284605e-01,2.32277e-08,9.99999e-01,2.32277e-08,9.99999e-01
4.353946028e-01,3.28697e-08,9.99999e-01,3.28697e-08,9.99999e-01
4.375715758e-01,4.61963e-08,9.99999e-01,4.61963e-08,9.99999e-01
4.397594337e-01,6.44911e-08,9.99999e-01,6.44911e-08,9.99999e-01
4.419582309e-01,8.94396e-08,9.99999e-01,8.94396e-08,9.99999e-01
4.441680220e-01,1.23241e-07,9.99999e-01,1.23241e-07,9.99999e-01
4.463888621e-01,1.68744e-07,9.99999e-01,1.68744e-07,9.99999e-01
4.486208064e-01,2.29619e-07,9.99999e-01,2.29619e-07,9.99999e-01
4.508639105e-01,3.10560e-07,9.99999e-01,3.10560e-07,9.99999e-01
4.531182300e-01,4.17533e-07,9.99999e-01,4.17533e-07,9.99999e-01
4.553838212e-01,5.58082e-07,9.99999e-01,5.58082e-07,9.99999e-01
4.576607403e-01,7.41680e-07,9.99999e-01,7.41680e-07,9.99999e-01
4.599490440e-01,9.80155e-07,9.99999e-01,9.80155e-07,9.99999e-01
4.622487892e-01,1.28820e-06,9.99999e-01,1.28820e-06,9.99999e-01
4.645600332e-01,1.68393e-06,9.99999e-01,1.68393e-06,9.99999e-01
4.668828333e-01,2.18962e-06,9.99999e-01,2.18962e-06,9.99999e-01
4.692172475e-01,2.83244e-06,9.99999e-01,2.83244e-06,9.99999e-01
4.715633337e-01,3.64539e-06,9.99999e-01,3.64539e-06,9.99999e-01
4.739211504e-01,4.66834e-06,9.99999e-01,4.66834e-06,9.99999e-01
4.762907561e-01,5.94922e-06,9.99999e-01,5.94922e-06,9.99999e-01
4.786722099e-01,7.54532e-06,9.99999e-01,7.54532e-06,9.99999e-01
4.810655710e-01,9.52480e-06,9.99999e-01,9.52480e-06,9.99999e-01
4.834708988e-01,1.19684e-05,9.99999e-01,1.19684e-05,9.99999e-01
4.858882533e-01,1.49712e-05,9.99999e-01,1.49712e-05,9.99999e-01
4.883176946e-01,1.86448e-05,9.99999e-01,1.86448e-05,9.99999e-01
4.907592831e-01,2.31194e-05,9.99999e-01,2.31194e-05,9.99999e-01
4.932130795e-01,2.85462e-05,9.99999e-01,2.85462e-05,9.99999e-01
4.956791449e-01,3.51005e-05,9.99999e-01,3.51005e-05,9.99999e-01
4.981575406e-01,4.29837e-05,9.99999e-01,4.29837e-05,9.99999e-01
5.006483283e-01,5.24273e-05,9.99999e-01,5.24273e-05,9.99999e-01
5.031515699e-01,6.36952e-05,9.99999e-01,6.36952e-05,9.99999e-01
5.056673278e-01,7.70878e-05,9.99999e-01,7.70878e-05,9.99999e-01
5.081956644e-01,9.29454e-05,9.99999e-01,9.29454e-05,9.99999e-01
5.107366428e-01,1.11652e-04,9.99999e-01,1.11652e-04,9.99999e-01
5.132903260e-01,1.33638e-04,9.99999e-01,1.33638e-04,9.99999e-01
5.158567776e-01,1.59387e-04,9.99999e-01,1.59387e-04,9.99999e-01
5.184360615e-01,1.89436e-04,9.99999e-01,1.89436e-04,9.99999e-01
5.210282418e-01,2.24384e-04,9.99999e-01,2.24384e-04,9.99999e-01
5.236333830e-01,2.64892e-04,9.99999e-01,2.64892e-04,9.99999e-01
5.262515499e-01,3.11690e-04,9.99999e-01,3.11690e-04,9.99999e-01
5.288828077e-01,3.65578e-04,9.99999e-01,3.65578e-04,9.99999e-01
5.315272217e-01,4.27435e-04,9.99999e-01,4.27435e-04,9.99999e-01
5.341848578e-01,4.98217e-04,9.99999e-01,4.98217e-04,9.99999e-01
5.368557821e-01,5.78966e-04,9.99999e-01,5.78966e-04,9.99999e-01
5.395400610e-01,6.70809e-04,9.99999e-01,6.70809e-04,9.99999e-01
5.422377613e-01,7.74963e-04,9.99999e-01,7.74963e-04,9.99999e-01
5.449489501e-01,8.92741e-04,9.99999e-01,8.92741e-04,9.99999e-01
5.476736949e-01,1.02555e-03,9.99999e-01,1.02555e-03,9.99999e-01
5.504120634e-01,1.17489e-03,9.99999e-01,1.17489e-03,9.99999e-01
5.531641237e-01,1.34237e-03,9.99999e-01,1.34237e-03,9.99999e-01
5.559299443e-01,1.52969e-03,9.99999e-01,1.52969e-03,9.99999e-01
5.587095940e-01,1.73866e-03,9.99999e-01,1.73866e-03,9.99999e-01
5.615031420e-01,1.97118e-03,9.99999e-01,1.97118e-03,9.99999e-01
5.643106577e-01,2.22927e-03,9.99999e-01,2.22927e-03,9.99999e-01
5.671322110e-01,2.51503e-03,9.99999e-01,2.51503e-03,9.99999e-01
5.699678720e-01,2.83067e-03,9.99999e-01,2.83067e-03,9.99999e-01
5.728177114e-01,3.17849e-03,9.99999e-01,3.17849e-03,9.99999e-01
5.756818000e-01,3.56089e-03,9.99999e-01,3.56089e-03,9.99999e-01
5.785602090e-01,3.98035e-03,9.99999e-01,3.98035e-03,9.99999e-01
5.814530100e-01,4.43944e-03,9.99999e-01,4.43944e-03,9.99999e-01
5.843602750e-01,4.94082e-03,9.99999e-01,4.94082e-03,9.99999e-01
5.872820764e-01,5.48722e-03,9.99999e-01,5.48722e-03,9.99999e-01
5.902184868e-01,6.08143e-03,9.99999e-01,6.08143e-03,9.99999e-01
5.931695792e-01,6.72632e-03,9.99999e-01,6.72632e-03,9.99999e-01
5.961354271e-01,7.42479e-03,9.99999e-01,7.42479e-03,9.99999e-01
5.991161043e-01,8.17981e-03,9.99999e-01,8.17981e-03,9.99999e-01
6.021116848e-01,8.99439e-03,9.99999e-01,8.99439e-03,9.99999e-01
6.051222432e-01,9.87156e-03,9.99999e-01,9.87156e-03,9.99999e-01
6.081478544e-01,1.08144e-02,9.99999e-01,1.08144e-02,9.99999e-01
6.111885937e-01,1.18259e-02,9.99999e-01,1.18259e-02,9.99999e-01
6.142445367e-01,1.29093e-02,9.99999e-01,1.29093e-02,9.99999e-01
6.173157594e-01,1.40675e-02,9.99999e-01,1.40675e-02,9.99999e-01
6.204023382e-01,1.53036e-02,9.99999e-01,1.53036e-02,9.99999e-01
6.235043498e-01,1.66206e-02,9.99999e-01,1.66206e-02,9.99999e-01
6.266218716e-01,1.80216e-02,9.99999e-01,1.80216e-02,9.99999e-01
6.297549810e-01,1.95095e-02,9.99999e-01,1.95095e-02,9.99999e-01
6.329037559e-01,2.10872e-02,9.99999e-01,2.10872e-02,9.99999e-01
6.360682746e-01,2.27574e-02,9.99999e-01,2.27574e-02,9.99999e-01
6.392486160e-01,2.45230e-02,9.99999e-01,2.45230e-02,9.99999e-01
6.424448591e-01,2.63867e-02,9.99999e-01,2.63867e-02,9.99999e-01
6.456570834e-01,2.83508e-02,9.99999e-01,2.83508e-02,9.99999e-01
6.488853688e-01,3.04181e-02,9.99999e-01,3.04181e-02,9.99999e-01
6.521297956e-01,3.25907e-02,9.99999e-01,3.25907e-02,9.99999e-01
6.553904446e-01,3.48709e-02,9.99999e-01,3.48709e-02,9.99999e-01
6.586673968e-01,3.72609e-02,9.99999e-01,3.72609e-02,9.99999e-01
6.619607338e-01,3.97626e-02,9.99999e-01,3.97626e-02,9.99999e-01
6.652705375e-01,4.23778e-02,9.99999e-01,4.23778e-02,9.99999e-01
6.685968902e-01,4.51082e-02,9.99999e-01,4.51082e-02,9.99999e-01
6.719398746e-01,4.79554e-02,9.99999e-01,4.79554e-02,9.99999e-01
6.752995740e-01,5.09207e-02,9.99999e-01,5.09207e-02,9.99999e-01
6.786760719e-01,5.40053e-02,9.99999e-01,5.40053e-02,9.99999e-01
6.820694522e-01,5.72103e-02,9.99999e-01,5.72103e-02,9.99999e-01
6.854797995e-01,6.05364e-02,9.99999e-01,6.05364e-02,9.99999e-01
6.889071985e-01,6.39845e-02,9.99999e-01,6.39845e-02,9.99999e-01
6.923517345e-01,6.75551e-02,9.99999e-01,6.75551e-02,9.99999e-01
6.958134932e-01,7.12484e-02,9.99999e-01,7.12484e-02,9.99999e-01
6.992925606e-01,7.50647e-02,9.99999e-01,7.50647e-02,9.99999e-01
7.027890234e-01,7.90039e-02,9.99999e-01,7.90039e-02,9.99999e-01
7.063029686e-01,8.30659e-02,9.99999e-01,8.30659e-02,9.99999e-01
7.098344834e-01,8.72503e-02,9.99999e-01,8.72503e-02,9.99999e-01
7.133836558e-01,9.15565e-02,9.99999e-01,9.15565e-02,9.99999e-01
7.169505741e-01,9.59839e-02,9.99999e-01,9.59839e-02,9.99999e-01
7.205353270e-01,1.00532e-01,9.99999e-01,1.00532e-01,9.99999e-01
7.241380036e-01,1.05199e-01,9.99999e-01,1.05199e-01,9.99999e-01
7.277586936e-01,1.09983e-01,9.99999e-01,1.09983e-01,9.99999e-01
7.313974871e-01,1.14885e-01,9.99999e-01,1.14885e-01,9.99999e-01
7.350544745e-01,1.19902e-01,9.99999e-01,1.19902e-01,9.99999e-01
7.387297469e-01,1.25032e-01,9.99999e-01,1.25032e-01,9.99999e-01
7.424233956e-01,1.30274e-01,9.99999e-01,1.30274e-01,9.99999e-01
7.461355126e-01,1.35625e-01,9.99999e-01,1.35625e-01,9.99999e-01
7.498661902e-01,1.41085e-01,9.99999e-01,1.41085e-01,9.99999e-01
7.536155211e-01,1.46649e-01,9.99999e-01,1.46649e-01,9.99999e-01
7.573835987e-01,1.52317e-01,9.99999e-01,1.52317e-01,9.99999e-01
7.611705167e-01,1.58085e-01,9.99999e-01,1.58085e-01,9.99999e-01
7.649763693e-01,1.63951e-01,9.99999e-01,1.63951e-01,9.99999e-01
7.688012511e-01,1.69912e-01,9.99999e-01,1.69912e-01,9.99999e-01
7.726452574e-01,1.75967e-01,9.99999e-01,1.75967e-01,9.99999e-01
7.765084837e-01,1.82110e-01,9.99999e-01,1.82110e-01,9.99999e-01
7.803910261e-01,1.74940e-01,9.28845e-01,1.88341e-01,9.99999e-01
7.842929812e-01,1.38753e-01,7.12812e-01,1.94655e-01,9.99999e-01
7.882144461e-01,1.40130e-01,6.96988e-01,2.01051e-01,9.99999e-01
7.921555184e-01,1.66851e-01,8.04011e-01,2.07523e-01,9.99999e-01
7.961162960e-01,1.84936e-01,8.63901e-01,2.14070e-01,9.99999e-01
8.000968774e-01,2.03825e-01,9.23587e-01,2.20688e-01,9.99999e-01
8.040973618e-01,2.18220e-01,9.59737e-01,2.27374e-01,9.99999e-01
8.081178486e-01,2.29734e-01,9.81244e-01,2.34125e-01,9.99999e-01
8.121584379e-01,2.39542e-01,9.94213e-01,2.40936e-01,9.99999e-01
8.162192301e-01,2.47489e-01,9.98719e-01,2.47806e-01,9.99999e-01
8.203003262e-01,2.54725e-01,9.99981e-01,2.54729e-01,9.99999e-01
8.244018279e-01,2.61704e-01,9.99999e-01,2.61704e-01,9.99999e-01
8.285238370e-01,2.68726e-01,9.99999e-01,2.68726e-01,9.99999e-01
8.326664562e-01,2.75793e-01,9.99999e-01,2.75793e-01,9.99999e-01
8.368297885e-01,2.82900e-01,9.99999e-01,2.82900e-01,9.99999e-01
8.410139374e-01,2.90044e-01,9.99999e-01,2.90044e-01,9.99999e-01
8.452190071e-01,2.97223e-01,9.99999e-01,2.97223e-01,9.99999e-01
8.494451021e-01,3.04432e-01,9.99999e-01,3.04432e-01,9.99999e-01
8.536923276e-01,3.11668e-01,9.99999e-01,3.11668e-01,9.99999e-01
8.579607893e-01,3.18928e-01,9.99999e-01,3.18928e-01,9.99999e-01
8.622505932e-01,3.26209e-01,9.99999e-01,3.26209e-01,9.99999e-01
8.665618462e-01,2.93932e-01,8.81333e-01,3.33508e-01,9.99999e-01
8.708946554e-01,1.46601e-01,4.30140e-01,3.40821e-01,9.99999e-01
8.752491287e-01,1.74049e-01,4.99932e-01,3.48145e-01,9.99999e-01
8.796253743e-01,2.41310e-01,6.78835e-01,3.55477e-01,9.99999e-01
8.840235012e-01,2.96065e-01,8.16024e-01,3.62814e-01,9.99999e-01
8.884436187e-01,3.41631e-01,9.22945e-01,3.70153e-01,9.99999e-01
8.928858368e-01,3.65385e-01,9.67931e-01,3.77491e-01,9.99999e-01
8.973502660e-01,3.81804e-01,9.92148e-01,3.84825e-01,9.99999e-01
9.018370173e-01,3.91813e-01,9.99133e-01,3.92153e-01,9.99999e-01
9.063462024e-01,3.90551e-01,9.77668e-01,3.99472e-01,9.99999e-01
9.108779334e-01,3.86375e-01,9.49840e-01,4.06778e-01,9.99999e-01
9.154323231e-01,4.09136e-01,9.88083e-01,4.14070e-01,9.99999e-01
9.200094847e-01,3.57836e-01,8.49270e-01,4.21345e-01,9.99999e-01
9.246095321e-01,3.33418e-01,7.77924e-01,4.28600e-01,9.99999e-01
9.292325798e-01,3.58270e-01,8.22036e-01,4.35832e-01,9.99999e-01
9.338787427e-01,3.66541e-01,8.27329e-01,4.43041e-01,9.99999e-01
9.385481364e-01,3.91376e-01,8.69293e-01,4.50223e-01,9.99999e-01
9.432408771e-01,4.19737e-01,9.17705e-01,4.57376e-01,9.99999e-01
9.479570815e-01,4.44434e-01,9.56804e-01,4.64498e-01,9.99999e-01
9.526968669e-01,4.61675e-01,9.78982e-01,4.71587e-01,9.99999e-01
9.574603512e-01,4.74314e-01,9.90959e-01,4.78641e-01,9.99999e-01
9.622476530e-01,4.84285e-01,9.97173e-01,4.85657e-01,9.99999e-01
9.670588912e-01,4.92219e-01,9.99153e-01,4.92636e-01,9.99999e-01
9.718941857e-01,4.99544e-01,9.99940e-01,4.99573e-01,9.99999e-01
9.767536566e-01,5.06469e-01,9.99999e-01,5.06469e-01,9.99999e-01
9.816374249e-01,5.13320e-01,9.99999e-01,5.13320e-01,9.99999e-01
9.865456120e-01,5.20126e-01,9.99999e-01,5.20126e-01,9.99999e-01
9.914783401e-01,5.26886e-01,9.99999e-01,5.26886e-01,9.99999e-01
9.964357318e-01,5.33597e-01,9.99999e-01,5.33597e-01,9.99999e-01
1.001417910e+00,5.40258e-01,9.99999e-01,5.40258e-01,9.99999e-01
1.006425000e+00,5.46869e-01,9.99999e-01,5.46869e-01,9.99999e-01
1.011457125e+00,5.53427e-01,9.99999e-01,5.53427e-01,9.99999e-01
1.016514411e+00,5.59933e-01,9.99999e-01,5.59933e-01,9.99999e-01
1.021596983e+00,5.66309e-01,9.99867e-01,5.66384e-01,9.99999e-01
1.026704968e+00,5.67703e-01,9.91136e-01,5.72779e-01,9.99999e-01
1.031838492e+00,5.31943e-01,9.18537e-01,5.79119e-01,9.99999e-01
1.036997685e+00,3.99163e-02,6.81862e-02,5.85401e-01,9.99999e-01
1.042182673e+00,6.81159e-03,1.15133e-02,5.91626e-01,9.99999e-01
1.047393587e+00,1.40374e-02,2.34821e-02,5.97791e-01,9.99999e-01
1.052630555e+00,1.09460e-05,1.81255e-05,6.03898e-01,9.99999e-01
1.057893707e+00,4.04515e-05,6.63200e-05,6.09944e-01,9.99999e-01
1.063183176e+00,4.75934e-04,7.72708e-04,6.15929e-01,9.99999e-01
1.068499092e+00,3.16254e-03,5.08566e-03,6.21854e-01,9.99999e-01
1.073841587e+00,2.15242e-02,3.42896e-02,6.27716e-01,9.99999e-01
1.079210795e+00,7.54919e-02,1.19163e-01,6.33517e-01,9.99999e-01
1.084606849e+00,1.93683e-01,3.02982e-01,6.39255e-01,9.99999e-01
1.090029883e+00,3.45479e-01,5.35685e-01,6.44929e-01,9.99999e-01
1.095480033e+00,4.78072e-01,7.34883e-01,6.50541e-01,9.99999e-01
1.100957433e+00,5.65286e-01,8.61599e-01,6.56090e-01,9.99999e-01
1.106462220e+00,6.22053e-01,9.40262e-01,6.61574e-01,9.99999e-01
1.111994531e+00,6.51927e-01,9.77409e-01,6.66995e-01,9.99999e-01
1.117554504e+00,6.68627e-01,9.94459e-01,6.72352e-01,9.99999e-01
1.123142276e+00,6.77399e-01,9.99637e-01,6.77645e-01,9.99999e-01
1.128757988e+00,6.82873e-01,9.99999e-01,6.82873e-01,9.99999e-01
1.134401778e+00,6.88038e-01,9.99999e-01,6.88038e-01,9.99999e-01
1.140073787e+00,6.93138e-01,9.99999e-01,6.93138e-01,9.99999e-01
1.145774156e+00,6.98174e-01,9.99999e-01,6.98174e-01,9.99999e-01
1.151503026e+00,7.03147e-01,9.99999e-01,7.03147e-01,9.99999e-01
1.157260541e+00,7.08055e-01,9.99999e-01,7.08055e-01,9.99999e-01
1.163046844e+00,7.12900e-01,9.99999e-01,7.12900e-01,9.99999e-01
1.168862078e+00,7.17682e-01,9.99999e-01,7.17682e-01,9.99999e-01
1.174706389e+00,7.22400e-01,9.99999e-01,7.22400e-01,9.99999e-01
1.180579921e+00,7.27055e-01,9.99999e-01,7.27055e-01,9.99999e-01
1.186482820e+00,7.31633e-01,9.99980e-01,7.31647e-01,9.99999e-01
1.192415234e+00,7.13558e-01,9.69275e-01,7.36176e-01,9.99999e-01
1.198377311e+00,3.93555e-01,5.31369e-01,7.40644e-01,9.99999e-01
1.204369197e+00,3.17269e-23,4.25836e-23,7.45049e-01,9.99999e-01
1.210391043e+00,2.29121e-92,3.05741e-92,7.49393e-01,9.99999e-01
1.216442998e+00,5.28935e-80,7.01807e-80,7.53675e-01,9.99999e-01
1.222525213e+00,8.24689e-79,1.08813e-78,7.57897e-01,9.99999e-01
1.228637839e+00,6.87835e-61,9.02601e-61,7.62058e-01,9.99999e-01
1.234781029e+00,4.16124e-38,5.43129e-38,7.66159e-01,9.99999e-01
1.240954934e+00,2.20733e-25,2.86591e-25,7.70201e-01,9.99999e-01
1.247159708e+00,1.49374e-12,1.92944e-12,7.74184e-01,9.99999e-01
1.253395507e+00,1.79370e-08,2.30521e-08,7.78107e-01,9.99999e-01
1.259662485e+00,3.49566e-05,4.47031e-05,7.81973e-01,9.99999e-01
1.265960797e+00,2.92901e-03,3.72751e-03,7.85781e-01,9.99999e-01
1.272290601e+00,6.16103e-02,7.80340e-02,7.89532e-01,9.99999e-01
1.278652054e+00,5.34180e-02,6.73426e-02,7.93226e-01,9.99999e-01
1.285045314e+00,1.54747e-04,1.94196e-04,7.96863e-01,9.99999e-01
1.291470541e+00,3.36044e-11,4.19821e-11,8.00446e-01,9.99999e-01
1.297927893e+00,1.89924e-04,2.36232e-04,8.03973e-01,9.99999e-01
1.304417533e+00,7.41543e-03,9.18381e-03,8.07445e-01,9.99999e-01
1.310939621e+00,1.28235e-03,1.58146e-03,8.10863e-01,9.99999e-01
1.317494319e+00,3.87435e-32,4.75830e-32,8.14228e-01,9.99999e-01
1.324081790e+00,5.32548e-21,6.51402e-21,8.17540e-01,9.99999e-01
1.330702199e+00,1.74745e-12,2.12896e-12,8.20800e-01,9.99999e-01
1.337355710e+00,1.42306e-11,1.72699e-11,8.24008e-01,9.99999e-01
1.344042489e+00,6.40668e-12,7.74535e-12,8.27164e-01,9.99999e-01
1.350762701e+00,9.35479e-13,1.12671e-12,8.30271e-01,9.99999e-01
1.357516515e+00,5.08047e-08,6.09661e-08,8.33327e-01,9.99999e-01
1.364304097e+00,7.45709e-06,8.91640e-06,8.36333e-01,9.99999e-01
1.371125618e+00,2.21012e-03,2.63331e-03,8.39291e-01,9.99999e-01
1.377981246e+00,5.20454e-03,6.17969e-03,8.42200e-01,9.99999e-01
1.384871152e+00,4.36040e-02,5.15985e-02,8.45062e-01,9.99999e-01
1.391795508e+00,5.51543e-02,6.50499e-02,8.47877e-01,9.99999e-01
1.398754485e+00,1.53620e-01,1.80592e-01,8.50645e-01,9.99999e-01
1.405748258e+00,2.44717e-01,2.86766e-01,8.53367e-01,9.99999e-01
1.412776999e+00,3.87243e-01,4.52363e-01,8.56044e-01,9.99999e-01
1.419840884e+00,3.51110e-01,4.08897e-01,8.58677e-01,9.99999e-01
1.426940089e+00,1.60069e-02,1.85853e-02,8.61265e-01,9.99999e-01
1.434074789e+00,0.00000e+00,0.00000e+00,8.63809e-01,9.99999e-01
1.441245163e+00,0.00000e+00,0.00000e+00,8.66311e-01,9.99999e-01
1.448451389e+00,0.00000e+00,0.00000e+00,8.68770e-01,9.99999e-01
1.455693646e+00,0.00000e+00,0.00000e+00,8.71187e-01,9.99999e-01
1.462972114e+00,0.00000e+00,0.00000e+00,8.73564e-01,9.99999e-01
1.470286975e+00,9.36166e-153,1.06880e-152,8.75899e-01,9.99999e-01
1.477638409e+00,5.14388e-96,5.85733e-96,8.78195e-01,9.99999e-01
1.485026601e+00,1.75412e-53,1.99229e-53,8.80451e-01,9.99999e-01
1.492451734e+00,1.46351e-45,1.65805e-45,8.82668e-01,9.99999e-01
1.499913993e+00,8.26394e-20,9.33940e-20,8.84846e-01,9.99999e-01
1.507413563e+00,1.42414e-18,1.60559e-18,8.86987e-01,9.99999e-01
1.514950631e+00,4.67269e-20,5.25558e-20,8.89091e-01,9.99999e-01
1.522525384e+00,2.93551e-68,3.29404e-68,8.91157e-01,9.99999e-01
1.530138011e+00,5.12233e-163,5.73488e-163,8.93188e-01,9.99999e-01
1.537788701e+00,1.37779e-120,1.53911e-120,8.95183e-01,9.99999e-01
1.545477645e+00,1.82946e-25,2.03921e-25,8.97143e-01,9.99999e-01
1.553205033e+00,1.52537e-18,1.69661e-18,8.99069e-01,9.99999e-01
1.560971058e+00,6.99937e-19,7.76878e-19,9.00960e-01,9.99999e-01
1.568775913e+00,0.00000e+00,0.00000e+00,9.02818e-01,9.99999e-01
1.576619793e+00,0.00000e+00,0.00000e+00,9.04643e-01,9.99999e-01
1.584502892e+00,0.00000e+00,0.00000e+00,9.06436e-01,9.99999e-01
1.592425406e+00,0.00000e+00,0.00000e+00,9.08196e-01,9.99999e-01
1.600387533e+00,0.00000e+00,0.00000e+00,9.09925e-01,9.99999e-01
1.608389471e+00,0.00000e+00,0.00000e+00,9.11623e-01,9.99999e-01
1.616431418e+00,0.00000e+00,0.00000e+00,9.13291e-01,9.99999e-01
1.624513575e+00,0.00000e+00,0.00000e+00,9.14929e-01,9.99999e-01
1.632636143e+00,0.00000e+00,0.00000e+00,9.16537e-01,9.99999e-01
1.640799324e+00,1.60576e-141,1.74897e-141,9.18116e-01,9.99999e-01
1.649003321e+00,1.60776e-141,1.74820e-141,9.19667e-01,9.99999e-01
1.657248337e+00,2.31917e-109,2.51758e-109,9.21189e-01,9.99999e-01
1.665534579e+00,4.30779e-110,4.66875e-110,9.22684e-01,9.99999e-01
1.673862252e+00,3.43550e-70,3.71746e-70,9.24152e-01,9.99999e-01
1.682231563e+00,1.34365e-48,1.45166e-48,9.25593e-01,9.99999e-01
1.690642721e+00,5.41064e-27,5.83667e-27,9.27007e-01,9.99999e-01
1.699095934e+00,3.00833e-17,3.24035e-17,9.28396e-01,9.99999e-01
1.707591414e+00,5.74958e-09,6.18394e-09,9.29760e-01,9.99999e-01
1.716129371e+00,1.54857e-05,1.66317e-05,9.31098e-01,9.99999e-01
1.724710018e+00,1.67631e-03,1.79782e-03,9.32412e-01,9.99999e-01
1.733333568e+00,1.37928e-02,1.47721e-02,9.33702e-01,9.99999e-01
1.742000236e+00,7.97223e-02,8.52673e-02,9.34968e-01,9.99999e-01
1.750710237e+00,3.84146e-04,4.10319e-04,9.36210e-01,9.99999e-01
1.759463788e+00,5.05139e-67,5.38855e-67,9.37430e-01,9.99999e-01
1.768261107e+00,3.83190e-70,4.08245e-70,9.38627e-01,9.99999e-01
1.777102413e+00,2.58619e-68,2.75184e-68,9.39802e-01,9.99999e-01
1.785987925e+00,5.35671e-64,5.69283e-64,9.40955e-01,9.99999e-01
1.794917864e+00,4.09944e-61,4.35144e-61,9.42087e-01,9.99999e-01
1.803892454e+00,9.82835e-59,1.04202e-58,9.43198e-01,9.99999e-01
1.812911916e+00,1.93923e-56,2.05364e-56,9.44288e-01,9.99999e-01
1.821976476e+00,1.69236e-56,1.79017e-56,9.45358e-01,9.99999e-01
1.831086358e+00,2.34107e-45,2.47364e-45,9.46408e-01,9.99999e-01
1.840241790e+00,1.24716e-38,1.31635e-38,9.47438e-01,9.99999e-01
1.849442999e+00,7.45175e-27,7.85677e-27,9.48449e-01,9.99999e-01
1.858690214e+00,2.99148e-25,3.15078e-25,9.49441e-01,9.99999e-01
1.867983665e+00,7.21918e-26,7.59581e-26,9.50414e-01,9.99999e-01
1.877323583e+00,3.80969e-128,4.00442e-128,9.51370e-01,9.99999e-01
