#,Wave/freq,Total,N2,Rayleigh,CIA
4.000000000e-01,7.64239e-02,9.99999e-01,7.64239e-02,9.99999e-01
4.020000000e-01,8.04104e-02,9.99999e-01,8.04104e-02,9.99999e-01
4.040100000e-01,8.45152e-02,9.99999e-01,8.45152e-02,9.99999e-01
4.060300500e-01,8.87423e-02,9.99999e-01,8.87423e-02,9.99999e-01
4.080602003e-01,9.30910e-02,9.99999e-01,9.30910e-02,9.99999e-01
4.101005013e-01,9.75605e-02,9.99999e-01,9.75605e-02,9.99999e-01
4.121510038e-01,1.02150e-01,9.99999e-01,1.02150e-01,9.99999e-01
4.142117588e-01,1.06858e-01,9.99999e-01,1.06858e-01,9.99999e-01
4.162828176e-01,1.11684e-01,9.99999e-01,1.11684e-01,9.99999e-01
4.183642317e-01,1.16626e-01,9.99999e-01,1.16626e-01,9.99999e-01
4.204560528e-01,1.21683e-01,9.99999e-01,1.21683e-01,9.99999e-01
4.225583331e-01,1.26852e-01,9.99999e-01,1.26852e-01,9.99999e-01
4.246711247e-01,1.32133e-01,9.99999e-01,1.32133e-01,9.99999e-01
4.267944804e-01,1.37522e-01,9.99999e-01,1.37522e-01,9.99999e-01
4.289284528e-01,1.43018e-01,9.99999e-01,1.43018e-01,9.99999e-01
4.310730950e-01,1.48619e-01,9.99999e-01,1.48619e-01,9.99999e-01
4.332284605e-01,1.54322e-01,9.99999e-01,1.54322e-01,9.99999e-01
4.353946028e-01,1.60125e-01,9.99999e-01,1.60125e-01,9.99999e-01
4.375715758e-01,1.66025e-01,9.99999e-01,1.66025e-01,9.99999e-01
4.397594337e-01,1.72019e-01,9.99999e-01,1.72019e-01,9.99999e-01
4.419582309e-01,1.78105e-01,9.99999e-01,1.78105e-01,9.99999e-01
4.441680220e-01,1.84279e-01,9.99999e-01,1.84279e-01,9.99999e-01
4.463888621e-01,1.90540e-01,9.99999e-01,1.90540e-01,9.99999e-01
4.486208064e-01,1.96883e-01,9.99999e-01,1.96883e-01,9.99999e-01
4.508639105e-01,2.03305e-01,9.99999e-01,2.03305e-01,9.99999e-01
4.531182300e-01,2.09804e-01,9.99999e-01,2.09804e-01,9.99999e-01
4.553838212e-01,2.16377e-01,9.99999e-01,2.16377e-01,9.99999e-01
4.576607403e-01,2.23019e-01,9.99999e-01,2.23019e-01,9.99999e-01
4.599490440e-01,2.29728e-01,9.99999e-01,2.29728e-01,9.99999e-01
4.622487892e-01,2.36500e-01,9.99999e-01,2.36500e-01,9.99999e-01
4.645600332e-01,2.43332e-01,9.99999e-01,2.43332e-01,9.99999e-01
4.668828333e-01,2.50221e-01,9.99999e-01,2.50221e-01,9.99999e-01
4.692172475e-01,2.57163e-01,9.99999e-01,2.57163e-01,9.99999e-01
4.715633337e-01,2.64154e-01,9.99999e-01,2.64154e-01,9.99999e-01
4.739211504e-01,2.71192e-01,9.99999e-01,2.71192e-01,9.99999e-01
4.762907561e-01,2.78273e-01,9.99999e-01,2.78273e-01,9.99999e-01
4.786722099e-01,2.85394e-01,9.99999e-01,2.85394e-01,9.99999e-01
4.810655710e-01,2.92551e-01,9.99999e-01,2.92551e-01,9.99999e-01
4.834708988e-01,2.99740e-01,9.99999e-01,2.99740e-01,9.99999e-01
4.858882533e-01,3.06959e-01,9.99999e-01,3.06959e-01,9.99999e-01
4.883176946e-01,3.14204e-01,9.99999e-01,3.14204e-01,9.99999e-01
4.907592831e-01,3.21472e-01,9.99999e-01,3.21472e-01,9.99999e-01
4.932130795e-01,3.28760e-01,9.99999e-01,3.28760e-01,9.99999e-01
4.956791449e-01,3.36063e-01,9.99999e-01,3.36063e-01,9.99999e-01
4.981575406e-01,3.43380e-01,9.99999e-01,3.43380e-01,9.99999e-01
5.006483283e-01,3.50708e-01,9.99999e-01,3.50708e-01,9.99999e-01
5.031515699e-01,3.58042e-01,9.99999e-01,3.58042e-01,9.99999e-01
5.056673278e-01,3.65380e-01,9.99999e-01,3.65380e-01,9.99999e-01
5.081956644e-01,3.72719e-01,9.99999e-01,3.72719e-01,9.99999e-01
5.107366428e-01,3.80056e-01,9.99999e-01,3.80056e-01,9.99999e-01
5.132903260e-01,3.87389e-01,9.99999e-01,3.87389e-01,9.99999e-01
5.158567776e-01,3.94713e-01,9.99999e-01,3.94713e-01,9.99999e-01
5.184360615e-01,4.02028e-01,9.99999e-01,4.02028e-01,9.99999e-01
5.210282418e-01,4.09330e-01,9.99999e-01,4.09330e-01,9.99999e-01
5.236333830e-01,4.16616e-01,9.99999e-01,4.16616e-01,9.99999e-01
5.262515499e-01,4.23884e-01,9.99999e-01,4.23884e-01,9.99999e-01
5.288828077e-01,4.31131e-01,9.99999e-01,4.31131e-01,9.99999e-01
5.315272217e-01,4.38356e-01,9.99999e-01,4.38356e-01,9.99999e-01
5.341848578e-01,4.45555e-01,9.99999e-01,4.45555e-01,9.99999e-01
5.368557821e-01,4.52727e-01,9.99999e-01,4.52727e-01,9.99999e-01
5.395400610e-01,4.59870e-01,9.99999e-01,4.59870e-01,9.99999e-01
5.422377613e-01,4.66980e-01,9.99999e-01,4.66980e-01,9.99999e-01
5.449489501e-01,4.74057e-01,9.99999e-01,4.74057e-01,9.99999e-01
5.476736949e-01,4.81098e-01,9.99999e-01,4.81098e-01,9.99999e-01
5.504120634e-01,4.88102e-01,9.99999e-01,4.88102e-01,9.99999e-01
5.531641237e-01,4.95066e-01,9.99999e-01,4.95066e-01,9.99999e-01
5.559299443e-01,5.01989e-01,9.99999e-01,5.01989e-01,9.99999e-01
5.587095940e-01,5.08870e-01,9.99999e-01,5.08870e-01,9.99999e-01
5.615031420e-01,5.15705e-01,9.99999e-01,5.15705e-01,9.99999e-01
5.643106577e-01,5.22495e-01,9.99999e-01,5.22495e-01,9.99999e-01
5.671322110e-01,5.29238e-01,9.99999e-01,5.29238e-01,9.99999e-01
5.699678720e-01,5.35932e-01,9.99999e-01,5.35932e-01,9.99999e-01
5.728177114e-01,5.42576e-01,9.99999e-01,5.42576e-01,9.99999e-01
5.756818000e-01,5.49168e-01,9.99999e-01,5.49168e-01,9.99999e-01
5.785602090e-01,5.55708e-01,9.99999e-01,5.55708e-01,9.99999e-01
5.814530100e-01,5.62195e-01,9.99999e-01,5.62195e-01,9.99999e-01
5.843602750e-01,5.68627e-01,9.99999e-01,5.68627e-01,9.99999e-01
5.872820764e-01,5.75003e-01,9.99999e-01,5.75003e-01,9.99999e-01
5.902184868e-01,5.81322e-01,9.99999e-01,5.81322e-01,9.99999e-01
5.931695792e-01,5.87585e-01,9.99999e-01,5.87585e-01,9.99999e-01
5.961354271e-01,5.93788e-01,9.99999e-01,5.93788e-01,9.99999e-01
5.991161043e-01,5.99933e-01,9.99999e-01,5.99933e-01,9.99999e-01
6.021116848e-01,6.06019e-01,9.99999e-01,6.06019e-01,9.99999e-01
6.051222432e-01,6.12044e-01,9.99999e-01,6.12044e-01,9.99999e-01
6.081478544e-01,6.18008e-01,9.99999e-01,6.18008e-01,9.99999e-01
6.111885937e-01,6.23911e-01,9.99999e-01,6.23911e-01,9.99999e-01
6.142445367e-01,6.29752e-01,9.99999e-01,6.29752e-01,9.99999e-01
6.173157594e-01,6.35530e-01,9.99999e-01,6.35530e-01,9.99999e-01
6.204023382e-01,6.41246e-01,9.99999e-01,6.41246e-01,9.99999e-01
6.235043498e-01,6.46899e-01,9.99999e-01,6.46899e-01,9.99999e-01
6.266218716e-01,6.52489e-01,9.99999e-01,6.52489e-01,9.99999e-01
6.297549810e-01,6.58015e-01,9.99999e-01,6.58015e-01,9.99999e-01
6.329037559e-01,6.63477e-01,9.99999e-01,6.63477e-01,9.99999e-01
6.360682746e-01,6.68875e-01,9.99999e-01,6.68875e-01,9.99999e-01
6.392486160e-01,6.74210e-01,9.99999e-01,6.74210e-01,9.99999e-01
6.424448591e-01,6.79480e-01,9.99999e-01,6.79480e-01,9.99999e-01
6.456570834e-01,6.84686e-01,9.99999e-01,6.84686e-01,9.99999e-01
6.488853688e-01,6.89828e-01,9.99999e-01,6.89828e-01,9.99999e-01
6.521297956e-01,6.94907e-01,9.99999e-01,6.94907e-01,9.99999e-01
6.553904446e-01,6.99921e-01,9.99999e-01,6.99921e-01,9.99999e-01
6.586673968e-01,7.04871e-01,9.99999e-01,7.04871e-01,9.99999e-01
6.619607338e-01,7.09757e-01,9.99999e-01,7.09757e-01,9.99999e-01
6.652705375e-01,7.14579e-01,9.99999e-01,7.14579e-01,9.99999e-01
6.685968902e-01,7.19339e-01,9.99999e-01,7.19339e-01,9.99999e-01
6.719398746e-01,7.24035e-01,9.99999e-01,7.24035e-01,9.99999e-01
6.752995740e-01,7.28667e-01,9.99999e-01,7.28667e-01,9.99999e-01
6.786760719e-01,7.33238e-01,9.99999e-01,7.33238e-01,9.99999e-01
6.820694522e-01,7.37745e-01,9.99999e-01,7.37745e-01,9.99999e-01
6.854797995e-01,7.42191e-01,9.99999e-01,7.42191e-01,9.99999e-01
6.889071985e-01,7.46575e-01,9.99999e-01,7.46575e-01,9.99999e-01
6.923517345e-01,7.50897e-01,9.99999e-01,7.50897e-01,9.99999e-01
6.958134932e-01,7.55158e-01,9.99999e-01,7.55158e-01,9.99999e-01
6.992925606e-01,7.59359e-01,9.99999e-01,7.59359e-01,9.99999e-01
7.027890234e-01,7.63499e-01,9.99999e-01,7.63499e-01,9.99999e-01
7.063029686e-01,7.67579e-01,9.99999e-01,7.67579e-01,9.99999e-01
7.098344834e-01,7.71600e-01,9.99999e-01,7.71600e-01,9.99999e-01
7.133836558e-01,7.75562e-01,9.99999e-01,7.75562e-01,9.99999e-01
7.169505741e-01,7.79466e-01,9.99999e-01,7.79466e-01,9.99999e-01
7.205353270e-01,7.83311e-01,9.99999e-01,7.83311e-01,9.99999e-01
7.241380036e-01,7.87099e-01,9.99999e-01,7.87099e-01,9.99999e-01
7.277586936e-01,7.90830e-01,9.99999e-01,7.90830e-01,9.99999e-01
7.313974871e-01,7.94504e-01,9.99999e-01,7.94504e-01,9.99999e-01
7.350544745e-01,7.98122e-01,9.99999e-01,7.98122e-01,9.99999e-01
7.387297469e-01,8.01685e-01,9.99999e-01,8.01685e-01,9.99999e-01
7.424233956e-01,8.05193e-01,9.99999e-01,8.05193e-01,9.99999e-01
7.461355126e-01,8.08646e-01,9.99999e-01,8.08646e-01,9.99999e-01
7.498661902e-01,8.12046e-01,9.99999e-01,8.12046e-01,9.99999e-01
7.536155211e-01,8.15392e-01,9.99999e-01,8.15392e-01,9.99999e-01
7.573835987e-01,8.18686e-01,9.99999e-01,8.18686e-01,9.99999e-01
7.611705167e-01,8.21927e-01,9.99999e-01,8.21927e-01,9.99999e-01
7.649763693e-01,8.25117e-01,9.99999e-01,8.25117e-01,9.99999e-01
7.688012511e-01,8.28256e-01,9.99999e-01,8.28256e-01,9.99999e-01
7.726452574e-01,8.31345e-01,9.99999e-01,8.31345e-01,9.99999e-01
7.765084837e-01,8.34384e-01,9.99999e-01,8.34384e-01,9.99999e-01
7.803910261e-01,8.37373e-01,9.99999e-01,8.37373e-01,9.99999e-01
7.842929812e-01,8.40314e-01,9.99999e-01,8.40314e-01,9.99999e-01
7.882144461e-01,8.43206e-01,9.99999e-01,8.43206e-01,9.99999e-01
7.921555184e-01,8.46052e-01,9.99999e-01,8.46052e-01,9.99999e-01
7.961162960e-01,8.48850e-01,9.99999e-01,8.48850e-01,9.99999e-01
8.000968774e-01,8.51602e-01,9.99999e-01,8.51602e-01,9.99999e-01
8.040973618e-01,8.54309e-01,9.99999e-01,8.54309e-01,9.99999e-01
8.081178486e-01,8.56970e-01,9.99999e-01,8.56970e-01,9.99999e-01
8.121584379e-01,8.59587e-01,9.99999e-01,8.59587e-01,9.99999e-01
8.162192301e-01,8.62159e-01,9.99999e-01,8.62159e-01,9.99999e-01
8.203003262e-01,8.64689e-01,9.99999e-01,8.64689e-01,9.99999e-01
8.244018279e-01,8.67175e-01,9.99999e-01,8.67175e-01,9.99999e-01
8.285238370e-01,8.69620e-01,9.99999e-01,8.69620e-01,9.99999e-01
8.326664562e-01,8.72023e-01,9.99999e-01,8.72023e-01,9.99999e-01
8.368297885e-01,8.74385e-01,9.99999e-01,8.74385e-01,9.99999e-01
8.410139374e-01,8.76706e-01,9.99999e-01,8.76706e-01,9.99999e-01
8.452190071e-01,8.78988e-01,9.99999e-01,8.78988e-01,9.99999e-01
8.494451021e-01,8.81230e-01,9.99999e-01,8.81230e-01,9.99999e-01
8.536923276e-01,8.83434e-01,9.99999e-01,8.83434e-01,9.99999e-01
8.579607893e-01,8.85599e-01,9.99999e-01,8.85599e-01,9.99999e-01
8.622505932e-01,8.87727e-01,9.99999e-01,8.87727e-01,9.99999e-01
8.665618462e-01,8.89818e-01,9.99999e-01,8.89818e-01,9.99999e-01
8.708946554e-01,8.91872e-01,9.99999e-01,8.91872e-01,9.99999e-01
8.752491287e-01,8.93890e-01,9.99999e-01,8.93890e-01,9.99999e-01
8.796253743e-01,8.95873e-01,9.99999e-01,8.95873e-01,9.99999e-01
8.840235012e-01,8.97820e-01,9.99999e-01,8.97820e-01,9.99999e-01
8.884436187e-01,8.99734e-01,9.99999e-01,8.99734e-01,9.99999e-01
8.928858368e-01,9.01614e-01,9.99999e-01,9.01614e-01,9.99999e-01
8.973502660e-01,9.03460e-01,9.99999e-01,9.03460e-01,9.99999e-01
9.018370173e-01,9.05274e-01,9.99999e-01,9.05274e-01,9.99999e-01
9.063462024e-01,9.07055e-01,9.99999e-01,9.07055e-01,9.99999e-01
9.108779334e-01,9.08804e-01,9.99999e-01,9.08804e-01,9.99999e-01
9.154323231e-01,9.10522e-01,9.99999e-01,9.10522e-01,9.99999e-01
9.200094847e-01,9.12210e-01,9.99999e-01,9.12210e-01,9.99999e-01
9.246095321e-01,9.13867e-01,9.99999e-01,9.13867e-01,9.99999e-01
9.292325798e-01,9.15494e-01,9.99999e-01,9.15494e-01,9.99999e-01
9.338787427e-01,9.17092e-01,9.99999e-01,9.17092e-01,9.99999e-01
9.385481364e-01,9.18661e-01,9.99999e-01,9.18661e-01,9.99999e-01
9.432408771e-01,9.20202e-01,9.99999e-01,9.20202e-01,9.99999e-01
9.479570815e-01,9.21715e-01,9.99999e-01,9.21715e-01,9.99999e-01
9.526968669e-01,9.23200e-01,9.99999e-01,9.23200e-01,9.99999e-01
9.574603512e-01,9.24659e-01,9.99999e-01,9.24659e-01,9.99999e-01
9.622476530e-01,9.26090e-01,9.99999e-01,9.26090e-01,9.99999e-01
9.670588912e-01,9.27496e-01,9.99999e-01,9.27496e-01,9.99999e-01
9.718941857e-01,9.28876e-01,9.99999e-01,9.28876e-01,9.99999e-01
9.767536566e-01,9.30230e-01,9.99999e-01,9.30230e-01,9.99999e-01
9.816374249e-01,9.31560e-01,9.99999e-01,9.31560e-01,9.99999e-01
9.865456120e-01,9.32866e-01,9.99999e-01,9.32866e-01,9.99999e-01
9.914783401e-01,9.34147e-01,9.99999e-01,9.34147e-01,9.99999e-01
9.964357318e-01,9.35405e-01,9.99999e-01,9.35405e-01,9.99999e-01
1.001417910e+00,9.36639e-01,9.99999e-01,9.36639e-01,9.99999e-01
1.006425000e+00,9.37851e-01,9.99999e-01,9.37851e-01,9.99999e-01
1.011457125e+00,9.39041e-01,9.99999e-01,9.39041e-01,9.99999e-01
1.016514411e+00,9.40208e-01,9.99999e-01,9.40208e-01,9.99999e-01
1.021596983e+00,9.41354e-01,9.99999e-01,9.41354e-01,9.99999e-01
1.026704968e+00,9.42478e-01,9.99999e-01,9.42478e-01,9.99999e-01
1.031838492e+00,9.43582e-01,9.99999e-01,9.43582e-01,9.99999e-01
1.036997685e+00,9.44664e-01,9.99999e-01,9.44664e-01,9.99999e-01
1.042182673e+00,9.45727e-01,9.99999e-01,9.45727e-01,9.99999e-01
1.047393587e+00,9.46770e-01,9.99999e-01,9.46770e-01,9.99999e-01
1.052630555e+00,9.47794e-01,9.99999e-01,9.47794e-01,9.99999e-01
1.057893707e+00,9.48798e-01,9.99999e-01,9.48798e-01,9.99999e-01
1.063183176e+00,9.49783e-01,9.99999e-01,9.49783e-01,9.99999e-01
1.068499092e+00,9.50751e-01,9.99999e-01,9.50751e-01,9.99999e-01
1.073841587e+00,9.51699e-01,9.99999e-01,9.51699e-01,9.99999e-01
1.079210795e+00,9.52630e-01,9.99999e-01,9.52631e-01,9.99999e-01
1.084606849e+00,9.53544e-01,9.99999e-01,9.53544e-01,9.99999e-01
1.090029883e+00,9.54440e-01,9.99999e-01,9.54440e-01,9.99999e-01
1.095480033e+00,9.55320e-01,9.99999e-01,9.55320e-01,9.99999e-01
1.100957433e+00,9.56183e-01,9.99999e-01,9.56183e-01,9.99999e-01
1.106462220e+00,9.57029e-01,9.99999e-01,9.57029e-01,9.99999e-01
1.111994531e+00,9.57860e-01,9.99999e-01,9.57860e-01,9.99999e-01
1.117554504e+00,9.58675e-01,9.99999e-01,9.58675e-01,9.99999e-01
1.123142276e+00,9.59474e-01,9.99999e-01,9.59474e-01,9.99999e-01
1.128757988e+00,9.60259e-01,9.99999e-01,9.60259e-01,9.99999e-01
1.134401778e+00,9.61028e-01,9.99999e-01,9.61028e-01,9.99999e-01
1.140073787e+00,9.61783e-01,9.99999e-01,9.61783e-01,9.99999e-01
1.145774156e+00,9.62524e-01,9.99999e-01,9.62524e-01,9.99999e-01
1.151503026e+00,9.63250e-01,9.99999e-01,9.63250e-01,9.99999e-01
1.157260541e+00,9.63963e-01,9.99999e-01,9.63963e-01,9.99999e-01
1.163046844e+00,9.64662e-01,9.99999e-01,9.64662e-01,9.99999e-01
1.168862078e+00,9.65348e-01,9.99999e-01,9.65348e-01,9.99999e-01
1.174706389e+00,9.66020e-01,9.99999e-01,9.66020e-01,9.99999e-01
1.180579921e+00,9.66680e-01,9.99999e-01,9.66680e-01,9.99999e-01
1.186482820e+00,9.67327e-01,9.99999e-01,9.67327e-01,9.99999e-01
1.192415234e+00,9.67962e-01,9.99999e-01,9.67962e-01,9.99999e-01
1.198377311e+00,9.68585e-01,9.99999e-01,9.68585e-01,9.99999e-01
1.204369197e+00,9.69196e-01,9.99999e-01,9.69196e-01,9.99999e-01
1.210391043e+00,9.69795e-01,9.99999e-01,9.69795e-01,9.99999e-01
1.216442998e+00,9.70383e-01,9.99999e-01,9.70383e-01,9.99999e-01
1.222525213e+00,9.70959e-01,9.99999e-01,9.70959e-01,9.99999e-01
1.228637839e+00,9.71524e-01,9.99999e-01,9.71524e-01,9.99999e-01
1.234781029e+00,9.72079e-01,9.99999e-01,9.72079e-01,9.99999e-01
1.240954934e+00,9.72623e-01,9.99999e-01,9.72623e-01,9.99999e-01
1.247159708e+00,9.73156e-01,9.99999e-01,9.73156e-01,9.99999e-01
1.253395507e+00,9.73679e-01,9.99999e-01,9.73679e-01,9.99999e-01
1.259662485e+00,9.74193e-01,9.99999e-01,9.74193e-01,9.99999e-01
1.265960797e+00,9.74696e-01,9.99999e-01,9.74696e-01,9.99999e-01
1.272290601e+00,9.75189e-01,9.99999e-01,9.75189e-01,9.99999e-01
1.278652054e+00,9.75673e-01,9.99999e-01,9.75673e-01,9.99999e-01
1.285045314e+00,9.76148e-01,9.99999e-01,9.76148e-01,9.99999e-01
1.291470541e+00,9.76614e-01,9.99999e-01,9.76614e-01,9.99999e-01
1.297927893e+00,9.77070e-01,9.99999e-01,9.77070e-01,9.99999e-01
1.304417533e+00,9.77518e-01,9.99999e-01,9.77518e-01,9.99999e-01
1.310939621e+00,9.77957e-01,9.99999e-01,9.77957e-01,9.99999e-01
1.317494319e+00,9.78388e-01,9.99999e-01,9.78388e-01,9.99999e-01
1.324081790e+00,9.78810e-01,9.99999e-01,9.78810e-01,9.99999e-01
1.330702199e+00,9.79224e-01,9.99999e-01,9.79224e-01,9.99999e-01
1.337355710e+00,9.79630e-01,9.99999e-01,9.79630e-01,9.99999e-01
1.344042489e+00,9.80029e-01,9.99999e-01,9.80029e-01,9.99999e-01
1.350762701e+00,9.80419e-01,9.99999e-01,9.80419e-01,9.99999e-01
1.357516515e+00,9.80802e-01,9.99999e-01,9.80802e-01,9.99999e-01
1.364304097e+00,9.81178e-01,9.99999e-01,9.81178e-01,9.99999e-01
1.371125618e+00,9.81546e-01,9.99999e-01,9.81546e-01,9.99999e-01
1.377981246e+00,9.81907e-01,9.99999e-01,9.81907e-01,9.99999e-01
1.384871152e+00,9.82262e-01,9.99999e-01,9.82262e-01,9.99999e-01
1.391795508e+00,9.82609e-01,9.99999e-01,9.82609e-01,9.99999e-01
1.398754485e+00,9.82949e-01,9.99999e-01,9.82949e-01,9.99999e-01
1.405748258e+00,9.83283e-01,9.99999e-01,9.83283e-01,9.99999e-01
1.412776999e+00,9.83610e-01,9.99998e-01,9.83611e-01,9.99999e-01
1.419840884e+00,9.83930e-01,9.99997e-01,9.83932e-01,9.99999e-01
1.426940089e+00,9.84244e-01,9.99997e-01,9.84247e-01,9.99999e-01
1.434074789e+00,9.84553e-01,9.99997e-01,9.84555e-01,9.99999e-01
1.441245163e+00,9.84857e-01,9.99998e-01,9.84858e-01,9.99999e-01
1.448451389e+00,9.85152e-01,9.99996e-01,9.85155e-01,9.99999e-01
1.455693646e+00,9.85445e-01,9.99998e-01,9.85446e-01,9.99999e-01
1.462972114e+00,9.85731e-01,9.99998e-01,9.85731e-01,9.99999e-01
1.470286975e+00,9.86011e-01,9.99998e-01,9.86011e-01,9.99999e-01
1.477638409e+00,9.86285e-01,9.99999e-01,9.86286e-01,9.99999e-01
1.485026601e+00,9.86554e-01,9.99999e-01,9.86555e-01,9.99999e-01
1.492451734e+00,9.86818e-01,9.99999e-01,9.86819e-01,9.99999e-01
1.499913993e+00,9.87077e-01,9.99999e-01,9.87077e-01,9.99999e-01
1.507413563e+00,9.87331e-01,9.99999e-01,9.87331e-01,9.99999e-01
1.514950631e+00,9.87579e-01,9.99999e-01,9.87579e-01,9.99999e-01
1.522525384e+00,9.87823e-01,9.99999e-01,9.87823e-01,9.99999e-01
1.530138011e+00,9.88062e-01,9.99999e-01,9.88062e-01,9.99999e-01
1.537788701e+00,9.88297e-01,9.99999e-01,9.88297e-01,9.99999e-01
1.545477645e+00,9.88527e-01,9.99999e-01,9.88527e-01,9.99999e-01
1.553205033e+00,9.88752e-01,9.99999e-01,9.88752e-01,9.99999e-01
1.560971058e+00,9.88973e-01,9.99999e-01,9.88973e-01,9.99999e-01
1.568775913e+00,9.89189e-01,9.99999e-01,9.89189e-01,9.99999e-01
1.576619793e+00,9.89402e-01,9.99999e-01,9.89402e-01,9.99999e-01
1.584502892e+00,9.89610e-01,9.99999e-01,9.89610e-01,9.99999e-01
1.592425406e+00,9.89814e-01,9.99999e-01,9.89814e-01,9.99999e-01
1.600387533e+00,9.90014e-01,9.99999e-01,9.90014e-01,9.99999e-01
1.608389471e+00,9.90211e-01,9.99999e-01,9.90211e-01,9.99999e-01
1.616431418e+00,9.90403e-01,9.99999e-01,9.90403e-01,9.99999e-01
1.624513575e+00,9.90592e-01,9.99999e-01,9.90592e-01,9.99999e-01
1.632636143e+00,9.90777e-01,9.99999e-01,9.90777e-01,9.99999e-01
1.640799324e+00,9.90958e-01,9.99999e-01,9.90958e-01,9.99999e-01
1.649003321e+00,9.91136e-01,9.99999e-01,9.91136e-01,9.99999e-01
1.657248337e+00,9.91310e-01,9.99999e-01,9.91310e-01,9.99999e-01
1.665534579e+00,9.91481e-01,9.99999e-01,9.91481e-01,9.99999e-01
1.673862252e+00,9.91649e-01,9.99999e-01,9.91649e-01,9.99999e-01
1.682231563e+00,9.91813e-01,9.99999e-01,9.91813e-01,9.99999e-01
1.690642721e+00,9.91974e-01,9.99999e-01,9.91974e-01,9.99999e-01
1.699095934e+00,9.92132e-01,9.99999e-01,9.92132e-01,9.99999e-01
1.707591414e+00,9.92287e-01,9.99999e-01,9.92287e-01,9.99999e-01
1.716129371e+00,9.92438e-01,9.99999e-01,9.92438e-01,9.99999e-01
1.724710018e+00,9.92587e-01,9.99999e-01,9.92587e-01,9.99999e-01
1.733333568e+00,9.92733e-01,9.99999e-01,9.92733e-01,9.99999e-01
1.742000236e+00,9.92876e-01,9.99999e-01,9.92876e-01,9.99999e-01
1.750710237e+00,9.93016e-01,9.99999e-01,9.93016e-01,9.99999e-01
1.759463788e+00,9.93154e-01,9.99999e-01,9.93154e-01,9.99999e-01
1.768261107e+00,9.93288e-01,9.99999e-01,9.93288e-01,9.99999e-01
1.777102413e+00,9.93420e-01,9.99999e-01,9.93420e-01,9.99999e-01
1.785987925e+00,9.93550e-01,9.99999e-01,9.93550e-01,9.99999e-01
1.794917864e+00,9.93677e-01,9.99999e-01,9.93677e-01,9.99999e-01
1.803892454e+00,9.93801e-01,9.99999e-01,9.93801e-01,9.99999e-01
1.812911916e+00,9.93924e-01,9.99999e-01,9.93924e-01,9.99999e-01
1.821976476e+00,9.94043e-01,9.99999e-01,9.94043e-01,9.99999e-01
1.831086358e+00,9.94160e-01,9.99999e-01,9.94160e-01,9.99999e-01
1.840241790e+00,9.94275e-01,9.99999e-01,9.94275e-01,9.99999e-01
1.849442999e+00,9.94388e-01,9.99999e-01,9.94388e-01,9.99999e-01
1.858690214e+00,9.94499e-01,9.99999e-01,9.94499e-01,9.99999e-01
1.867983665e+00,9.94607e-01,9.99999e-01,9.94607e-01,9.99999e-01
1.877323583e+00,9.94713e-01,9.99999e-01,9.94713e-01,9.99999e-01
