#,Wave/freq,Total,CO2,Rayleigh,CIA
4.000000000e-01,9.39276e-25,9.99999e-01,9.39276e-25,9.99999e-01
4.020000000e-01,2.80478e-24,9.99999e-01,2.80478e-24,9.99999e-01
4.040100000e-01,8.18674e-24,9.99999e-01,8.18674e-24,9.99999e-01
4.060300500e-01,2.33956e-23,9.99999e-01,2.33956e-23,9.99999e-01
4.080602003e-01,6.54862e-23,9.99999e-01,6.54862e-23,9.99999e-01
4.101005013e-01,1.79612e-22,9.99999e-01,1.79612e-22,9.99999e-01
4.121510038e-01,4.82910e-22,9.99999e-01,4.82910e-22,9.99999e-01
4.142117588e-01,1.27325e-21,9.99999e-01,1.27325e-21,9.99999e-01
4.162828176e-01,3.29339e-21,9.99999e-01,3.29339e-21,9.99999e-01
4.183642317e-01,8.36026e-21,9.99999e-01,8.36026e-21,9.99999e-01
4.204560528e-01,2.08356e-20,9.99999e-01,2.08356e-20,9.99999e-01
4.225583331e-01,5.09986e-20,9.99999e-01,5.09986e-20,9.99999e-01
4.246711247e-01,1.22640e-19,9.99999e-01,1.22640e-19,9.99999e-01
4.267944804e-01,2.89853e-19,9.99999e-01,2.89853e-19,9.99999e-01
4.289284528e-01,6.73513e-19,9.99999e-01,6.73513e-19,9.99999e-01
4.310730950e-01,1.53915e-18,9.99999e-01,1.53915e-18,9.99999e-01
4.332284605e-01,3.46040e-18,9.99999e-01,3.46040e-18,9.99999e-01
4.353946028e-01,7.65636e-18,9.99999e-01,7.65636e-18,9.99999e-01
4.375715758e-01,1.66765e-17,9.99999e-01,1.66765e-17,9.99999e-01
4.397594337e-01,3.57693e-17,9.99999e-01,3.57693e-17,9.99999e-01
4.419582309e-01,7.55734e-17,9.99999e-01,7.55734e-17,9.99999e-01
4.441680220e-01,1.57330e-16,9.99999e-01,1.57330e-16,9.99999e-01
4.463888621e-01,3.22822e-16,9.99999e-01,3.22822e-16,9.99999e-01
4.486208064e-01,6.53055e-16,9.99999e-01,6.53055e-16,9.99999e-01
4.508639105e-01,1.30284e-15,9.99999e-01,1.30284e-15,9.99999e-01
4.531182300e-01,2.56395e-15,9.99999e-01,2.56395e-15,9.99999e-01
4.553838212e-01,4.97875e-15,9.99999e-01,4.97875e-15,9.99999e-01
4.576607403e-01,9.54195e-15,9.99999e-01,9.54195e-15,9.99999e-01
4.599490440e-01,1.80540e-14,9.99999e-01,1.80540e-14,9.99999e-01
4.622487892e-01,3.37319e-14,9.99999e-01,3.37319e-14,9.99999e-01
4.645600332e-01,6.22509e-14,9.99999e-01,6.22509e-14,9.99999e-01
4.668828333e-01,1.13499e-13,9.99999e-01,1.13499e-13,9.99999e-01
4.692172475e-01,2.04498e-13,9.99999e-01,2.04498e-13,9.99999e-01
4.715633337e-01,3.64196e-13,9.99999e-01,3.64196e-13,9.99999e-01
4.739211504e-01,6.41253e-13,9.99999e-01,6.41253e-13,9.99999e-01
4.762907561e-01,1.11653e-12,9.99999e-01,1.11653e-12,9.99999e-01
4.786722099e-01,1.92289e-12,9.99999e-01,1.92289e-12,9.99999e-01
4.810655710e-01,3.27624e-12,9.99999e-01,3.27624e-12,9.99999e-01
4.834708988e-01,5.52365e-12,9.99999e-01,5.52365e-12,9.99999e-01
4.858882533e-01,9.21711e-12,9.99999e-01,9.21711e-12,9.99999e-01
4.883176946e-01,1.52255e-11,9.99999e-01,1.52255e-11,9.99999e-01
4.907592831e-01,2.49025e-11,9.99999e-01,2.49025e-11,9.99999e-01
4.932130795e-01,4.03360e-11,9.99999e-01,4.03360e-11,9.99999e-01
4.956791449e-01,6.47152e-11,9.99999e-01,6.47152e-11,9.99999e-01
4.981575406e-01,1.02864e-10,9.99999e-01,1.02864e-10,9.99999e-01
5.006483283e-01,1.62012e-10,9.99999e-01,1.62012e-10,9.99999e-01
5.031515699e-01,2.52890e-10,9.99999e-01,2.52890e-10,9.99999e-01
5.056673278e-01,3.91289e-10,9.99999e-01,3.91289e-10,9.99999e-01
5.081956644e-01,6.00233e-10,9.99999e-01,6.00233e-10,9.99999e-01
5.107366428e-01,9.13000e-10,9.99999e-01,9.13000e-10,9.99999e-01
5.132903260e-01,1.37728e-09,9.99999e-01,1.37728e-09,9.99999e-01
5.158567776e-01,2.06087e-09,9.99999e-01,2.06087e-09,9.99999e-01
5.184360615e-01,3.05928e-09,9.99999e-01,3.05928e-09,9.99999e-01
5.210282418e-01,4.50608e-09,9.99999e-01,4.50608e-09,9.99999e-01
5.236333830e-01,6.58654e-09,9.99999e-01,6.58654e-09,9.99999e-01
5.262515499e-01,9.55562e-09,9.99999e-01,9.55562e-09,9.99999e-01
5.288828077e-01,1.37616e-08,9.99999e-01,1.37616e-08,9.99999e-01
5.315272217e-01,1.96766e-08,9.99999e-01,1.96766e-08,9.99999e-01
5.341848578e-01,2.79359e-08,9.99999e-01,2.79359e-08,9.99999e-01
5.368557821e-01,3.93886e-08,9.99999e-01,3.93886e-08,9.99999e-01
5.395400610e-01,5.51607e-08,9.99999e-01,5.51607e-08,9.99999e-01
5.422377613e-01,7.67363e-08,9.99999e-01,7.67363e-08,9.99999e-01
5.449489501e-01,1.06057e-07,9.99999e-01,1.06057e-07,9.99999e-01
5.476736949e-01,1.45647e-07,9.99999e-01,1.45647e-07,9.99999e-01
5.504120634e-01,1.98767e-07,9.99999e-01,1.98767e-07,9.99999e-01
5.531641237e-01,2.69599e-07,9.99999e-01,2.69599e-07,9.99999e-01
5.559299443e-01,3.63478e-07,9.99999e-01,3.63478e-07,9.99999e-01
5.587095940e-01,4.87163e-07,9.99999e-01,4.87163e-07,9.99999e-01
5.615031420e-01,6.49170e-07,9.99999e-01,6.49170e-07,9.99999e-01
5.643106577e-01,8.60161e-07,9.99999e-01,8.60161e-07,9.99999e-01
5.671322110e-01,1.13341e-06,9.99999e-01,1.13341e-06,9.99999e-01
5.699678720e-01,1.48535e-06,9.99999e-01,1.48535e-06,9.99999e-01
5.728177114e-01,1.93619e-06,9.99999e-01,1.93619e-06,9.99999e-01
5.756818000e-01,2.51070e-06,9.99999e-01,2.51070e-06,9.99999e-01
5.785602090e-01,3.23902e-06,9.99999e-01,3.23902e-06,9.99999e-01
5.814530100e-01,4.15763e-06,9.99999e-01,4.15763e-06,9.99999e-01
5.843602750e-01,5.31052e-06,9.99999e-01,5.31052e-06,9.99999e-01
5.872820764e-01,6.75039e-06,9.99999e-01,6.75039e-06,9.99999e-01
5.902184868e-01,8.54009e-06,9.99999e-01,8.54009e-06,9.99999e-01
5.931695792e-01,1.07542e-05,9.99999e-01,1.07542e-05,9.99999e-01
5.961354271e-01,1.34808e-05,9.99999e-01,1.34808e-05,9.99999e-01
5.991161043e-01,1.68235e-05,9.99999e-01,1.68235e-05,9.99999e-01
6.021116848e-01,2.09034e-05,9.99999e-01,2.09034e-05,9.99999e-01
6.051222432e-01,2.58616e-05,9.99999e-01,2.58616e-05,9.99999e-01
6.081478544e-01,3.18615e-05,9.99999e-01,3.18615e-05,9.99999e-01
6.111885937e-01,3.90920e-05,9.99999e-01,3.90920e-05,9.99999e-01
6.142445367e-01,4.77700e-05,9.99999e-01,4.77700e-05,9.99999e-01
6.173157594e-01,5.81436e-05,9.99999e-01,5.81436e-05,9.99999e-01
6.204023382e-01,7.04959e-05,9.99999e-01,7.04959e-05,9.99999e-01
6.235043498e-01,8.51477e-05,9.99999e-01,8.51477e-05,9.99999e-01
6.266218716e-01,1.02462e-04,9.99999e-01,1.02462e-04,9.99999e-01
6.297549810e-01,1.22847e-04,9.99999e-01,1.22847e-04,9.99999e-01
6.329037559e-01,1.46760e-04,9.99999e-01,1.46760e-04,9.99999e-01
6.360682746e-01,1.74714e-04,9.99999e-01,1.74714e-04,9.99999e-01
6.392486160e-01,2.07277e-04,9.99999e-01,2.07277e-04,9.99999e-01
6.424448591e-01,2.45080e-04,9.99999e-01,2.45080e-04,9.99999e-01
6.456570834e-01,2.88820e-04,9.99999e-01,2.88820e-04,9.99999e-01
6.488853688e-01,3.39265e-04,9.99999e-01,3.39265e-04,9.99999e-01
6.521297956e-01,3.97255e-04,9.99999e-01,3.97255e-04,9.99999e-01
6.553904446e-01,4.63710e-04,9.99999e-01,4.63710e-04,9.99999e-01
6.586673968e-01,5.39630e-04,9.99999e-01,5.39630e-04,9.99999e-01
6.619607338e-01,6.26102e-04,9.99999e-01,6.26102e-04,9.99999e-01
6.652705375e-01,7.24302e-04,9.99999e-01,7.24302e-04,9.99999e-01
6.685968902e-01,8.35495e-04,9.99999e-01,8.35495e-04,9.99999e-01
6.719398746e-01,9.61044e-04,9.99999e-01,9.61044e-04,9.99999e-01
6.752995740e-01,1.10241e-03,9.99999e-01,1.10241e-03,9.99999e-01
6.786760719e-01,1.26114e-03,9.99999e-01,1.26114e-03,9.99999e-01
6.820694522e-01,1.43890e-03,9.99999e-01,1.43890e-03,9.99999e-01
6.854797995e-01,1.63744e-03,9.99999e-01,1.63744e-03,9.99999e-01
6.889071985e-01,1.85863e-03,9.99999e-01,1.85863e-03,9.99999e-01
6.923517345e-01,2.10442e-03,9.99999e-01,2.10442e-03,9.99999e-01
6.958134932e-01,2.37688e-03,9.99999e-01,2.37688e-03,9.99999e-01
6.992925606e-01,2.67817e-03,9.99999e-01,2.67817e-03,9.99999e-01
7.027890234e-01,3.01054e-03,9.99999e-01,3.01054e-03,9.99999e-01
7.063029686e-01,3.37635e-03,9.99999e-01,3.37635e-03,9.99999e-01
7.098344834e-01,3.77804e-03,9.99999e-01,3.77804e-03,9.99999e-01
7.133836558e-01,4.21815e-03,9.99999e-01,4.21815e-03,9.99999e-01
7.169505741e-01,4.69928e-03,9.99999e-01,4.69928e-03,9.99999e-01
7.205353270e-01,5.22414e-03,9.99999e-01,5.22414e-03,9.99999e-01
7.241380036e-01,5.79548e-03,9.99999e-01,5.79548e-03,9.99999e-01
7.277586936e-01,6.41614e-03,9.99999e-01,6.41614e-03,9.99999e-01
7.313974871e-01,7.08901e-03,9.99999e-01,7.08901e-03,9.99999e-01
7.350544745e-01,7.81704e-03,9.99999e-01,7.81704e-03,9.99999e-01
7.387297469e-01,8.60319e-03,9.99999e-01,8.60319e-03,9.99999e-01
7.424233956e-01,9.45051e-03,9.99999e-01,9.45051e-03,9.99999e-01
7.461355126e-01,1.03620e-02,9.99999e-01,1.03620e-02,9.99999e-01
7.498661902e-01,1.13408e-02,9.99999e-01,1.13408e-02,9.99999e-01
7.536155211e-01,1.23900e-02,9.99999e-01,1.23900e-02,9.99999e-01
7.573835987e-01,1.35125e-02,9.99999e-01,1.35125e-02,9.99999e-01
7.611705167e-01,1.47116e-02,9.99999e-01,1.47116e-02,9.99999e-01
7.649763693e-01,1.59902e-02,9.99999e-01,1.59902e-02,9.99999e-01
7.688012511e-01,1.73513e-02,9.99999e-01,1.73513e-02,9.99999e-01
7.726452574e-01,1.87979e-02,9.99999e-01,1.87979e-02,9.99999e-01
7.765084837e-01,2.03329e-02,9.99999e-01,2.03329e-02,9.99999e-01
7.803910261e-01,1.93492e-02,8.81141e-01,2.19592e-02,9.99999e-01
7.842929812e-01,1.13529e-02,4.79436e-01,2.36796e-02,9.99999e-01
7.882144461e-01,1.19449e-02,4.68489e-01,2.54967e-02,9.99999e-01
7.921555184e-01,1.68673e-02,6.15299e-01,2.74132e-02,9.99999e-01
7.961162960e-01,2.10279e-02,7.14464e-01,2.94316e-02,9.99999e-01
8.000968774e-01,2.62907e-02,8.33188e-01,3.15543e-02,9.99999e-01
8.040973618e-01,3.07008e-02,9.08749e-01,3.37836e-02,9.99999e-01
8.081178486e-01,3.45780e-02,9.57263e-01,3.61217e-02,9.99999e-01
8.121584379e-01,3.80462e-02,9.86404e-01,3.85705e-02,9.99999e-01
8.162192301e-01,4.10077e-02,9.96976e-01,4.11320e-02,9.99999e-01
8.203003262e-01,4.38057e-02,9.99946e-01,4.38080e-02,9.99999e-01
8.244018279e-01,4.66001e-02,9.99999e-01,4.66001e-02,9.99999e-01
8.285238370e-01,4.95096e-02,9.99999e-01,4.95096e-02,9.99999e-01
8.326664562e-01,5.25378e-02,9.99999e-01,5.25378e-02,9.99999e-01
8.368297885e-01,5.56860e-02,9.99999e-01,5.56860e-02,9.99999e-01
8.410139374e-01,5.89550e-02,9.99999e-01,5.89550e-02,9.99999e-01
8.452190071e-01,6.23456e-02,9.99999e-01,6.23456e-02,9.99999e-01
8.494451021e-01,6.58584e-02,9.99999e-01,6.58584e-02,9.99999e-01
8.536923276e-01,6.94939e-02,9.99999e-01,6.94939e-02,9.99999e-01
8.579607893e-01,7.32523e-02,9.99999e-01,7.32523e-02,9.99999e-01
8.622505932e-01,7.71336e-02,9.99999e-01,7.71336e-02,9.99999e-01
8.665618462e-01,6.88150e-02,8.48124e-01,8.11378e-02,9.99999e-01
8.708946554e-01,1.48817e-02,1.74535e-01,8.52646e-02,9.99999e-01
8.752491287e-01,1.96931e-02,2.20001e-01,8.95136e-02,9.99999e-01
8.796253743e-01,3.95799e-02,4.21583e-01,9.38840e-02,9.99999e-01
8.840235012e-01,6.19110e-02,6.29335e-01,9.83752e-02,9.99999e-01
8.884436187e-01,8.54521e-02,8.29744e-01,1.02986e-01,9.99999e-01
8.928858368e-01,9.98718e-02,9.27179e-01,1.07716e-01,9.99999e-01
8.973502660e-01,1.10488e-01,9.81570e-01,1.12562e-01,9.99999e-01
9.018370173e-01,1.17284e-01,9.97943e-01,1.17525e-01,9.99999e-01
9.063462024e-01,1.16889e-01,9.53403e-01,1.22602e-01,9.99999e-01
9.108779334e-01,1.13521e-01,8.88330e-01,1.27792e-01,9.99999e-01
9.154323231e-01,1.29373e-01,9.72060e-01,1.33092e-01,9.99999e-01
9.200094847e-01,1.02358e-01,7.39045e-01,1.38501e-01,9.99999e-01
9.246095321e-01,8.13471e-02,5.64849e-01,1.44016e-01,9.99999e-01
9.292325798e-01,9.76823e-02,6.52803e-01,1.49635e-01,9.99999e-01
9.338787427e-01,1.01343e-01,6.52324e-01,1.55356e-01,9.99999e-01
9.385481364e-01,1.17164e-01,7.26930e-01,1.61177e-01,9.99999e-01
9.432408771e-01,1.36961e-01,8.19664e-01,1.67093e-01,9.99999e-01
9.479570815e-01,1.56371e-01,9.03331e-01,1.73104e-01,9.99999e-01
9.526968669e-01,1.70622e-01,9.52096e-01,1.79206e-01,9.99999e-01
9.574603512e-01,1.81533e-01,9.79159e-01,1.85396e-01,9.99999e-01
9.622476530e-01,1.90414e-01,9.93438e-01,1.91672e-01,9.99999e-01
9.670588912e-01,1.97637e-01,9.98019e-01,1.98029e-01,9.99999e-01
9.718941857e-01,2.04436e-01,9.99854e-01,2.04466e-01,9.99999e-01
9.767536566e-01,2.10978e-01,9.99999e-01,2.10978e-01,9.99999e-01
9.816374249e-01,2.17563e-01,9.99999e-01,2.17563e-01,9.99999e-01
9.865456120e-01,2.24218e-01,9.99999e-01,2.24218e-01,9.99999e-01
9.914783401e-01,2.30938e-01,9.99999e-01,2.30938e-01,9.99999e-01
9.964357318e-01,2.37721e-01,9.99999e-01,2.37721e-01,9.99999e-01
1.001417910e+00,2.44564e-01,9.99999e-01,2.44564e-01,9.99999e-01
1.006425000e+00,2.51463e-01,9.99999e-01,2.51463e-01,9.99999e-01
1.011457125e+00,2.58414e-01,9.99999e-01,2.58414e-01,9.99999e-01
1.016514411e+00,2.65414e-01,9.99999e-01,2.65414e-01,9.99999e-01
1.021596983e+00,2.72400e-01,9.99780e-01,2.72460e-01,9.99999e-01
1.026704968e+00,2.74283e-01,9.81166e-01,2.79548e-01,9.99999e-01
1.031838492e+00,2.50992e-01,8.75526e-01,2.86676e-01,9.99999e-01
1.036997685e+00,7.79549e-03,2.65298e-02,2.93838e-01,9.99999e-01
1.042182673e+00,7.47330e-05,2.48255e-04,3.01033e-01,9.99999e-01
1.047393587e+00,2.22956e-04,7.23278e-04,3.08257e-01,9.99999e-01
1.052630555e+00,1.76827e-10,5.60455e-10,3.15507e-01,9.99999e-01
1.057893707e+00,6.40342e-10,1.98384e-09,3.22778e-01,9.99999e-01
1.063183176e+00,1.89402e-07,5.73824e-07,3.30069e-01,9.99999e-01
1.068499092e+00,4.66337e-06,1.38225e-05,3.37375e-01,9.99999e-01
1.073841587e+00,2.11642e-04,6.13998e-04,3.44694e-01,9.99999e-01
1.079210795e+00,3.57574e-03,1.01577e-02,3.52023e-01,9.99999e-01
1.084606849e+00,2.47610e-02,6.89033e-02,3.59358e-01,9.99999e-01
1.090029883e+00,8.95456e-02,2.44195e-01,3.66697e-01,9.99999e-01
1.095480033e+00,1.85390e-01,4.95647e-01,3.74036e-01,9.99999e-01
1.100957433e+00,2.70913e-01,7.10363e-01,3.81372e-01,9.99999e-01
1.106462220e+00,3.37182e-01,8.67452e-01,3.88703e-01,9.99999e-01
1.111994531e+00,3.75642e-01,9.48526e-01,3.96027e-01,9.99999e-01
1.117554504e+00,3.98124e-01,9.87070e-01,4.03339e-01,9.99999e-01
1.123142276e+00,4.10283e-01,9.99135e-01,4.10638e-01,9.99999e-01
1.128757988e+00,4.17921e-01,9.99999e-01,4.17921e-01,9.99999e-01
1.134401778e+00,4.25186e-01,9.99999e-01,4.25186e-01,9.99999e-01
1.140073787e+00,4.32429e-01,9.99999e-01,4.32429e-01,9.99999e-01
1.145774156e+00,4.39650e-01,9.99999e-01,4.39650e-01,9.99999e-01
1.151503026e+00,4.46844e-01,9.99999e-01,4.46844e-01,9.99999e-01
1.157260541e+00,4.54011e-01,9.99999e-01,4.54011e-01,9.99999e-01
1.163046844e+00,4.61148e-01,9.99999e-01,4.61148e-01,9.99999e-01
1.168862078e+00,4.68253e-01,9.99999e-01,4.68253e-01,9.99999e-01
1.174706389e+00,4.75323e-01,9.99999e-01,4.75323e-01,9.99999e-01
1.180579921e+00,4.82358e-01,9.99999e-01,4.82358e-01,9.99999e-01
1.186482820e+00,4.89346e-01,9.99983e-01,4.89355e-01,9.99999e-01
1.192415234e+00,4.66064e-01,9.39054e-01,4.96311e-01,9.99999e-01
1.198377311e+00,2.42941e-01,4.82767e-01,5.03227e-01,9.99999e-01
1.204369197e+00,3.44531e-50,6.75419e-50,5.10099e-01,9.99999e-01
1.210391043e+00,3.13887e-208,6.07216e-208,5.16927e-01,9.99999e-01
1.216442998e+00,5.73435e-180,1.09495e-179,5.23709e-01,9.99999e-01
1.222525213e+00,3.02083e-177,5.69491e-177,5.30443e-01,9.99999e-01
1.228637839e+00,2.21677e-136,4.12707e-136,5.37128e-01,9.99999e-01
1.234781029e+00,6.04388e-103,1.11149e-102,5.43762e-01,9.99999e-01
1.240954934e+00,2.03841e-55,3.70387e-55,5.50346e-01,9.99999e-01
1.247159708e+00,5.79457e-35,1.04055e-34,5.56876e-01,9.99999e-01
1.253395507e+00,1.32405e-17,2.35030e-17,5.63353e-01,9.99999e-01
1.259662485e+00,1.03134e-10,1.81008e-10,5.69775e-01,9.99999e-01
1.265960797e+00,7.41626e-06,1.28723e-05,5.76141e-01,9.99999e-01
1.272290601e+00,1.57011e-03,2.69569e-03,5.82450e-01,9.99999e-01
1.278652054e+00,2.57084e-03,4.36696e-03,5.88702e-01,9.99999e-01
1.285045314e+00,1.50970e-07,2.53776e-07,5.94895e-01,9.99999e-01
1.291470541e+00,1.59372e-23,2.65165e-23,6.01030e-01,9.99999e-01
1.297927893e+00,2.26684e-09,3.73386e-09,6.07104e-01,9.99999e-01
1.304417533e+00,2.05500e-05,3.35172e-05,6.13118e-01,9.99999e-01
1.310939621e+00,6.95898e-06,1.12410e-05,6.19072e-01,9.99999e-01
1.317494319e+00,9.30710e-70,1.48922e-69,6.24963e-01,9.99999e-01
1.324081790e+00,3.27576e-45,5.19308e-45,6.30793e-01,9.99999e-01
1.330702199e+00,6.97415e-27,1.09560e-26,6.36560e-01,9.99999e-01
1.337355710e+00,3.43050e-24,5.34125e-24,6.42265e-01,9.99999e-01
1.344042489e+00,2.35672e-24,3.63744e-24,6.47907e-01,9.99999e-01
1.350762701e+00,2.88716e-27,4.41810e-27,6.53485e-01,9.99999e-01
1.357516515e+00,6.24190e-16,9.47178e-16,6.58999e-01,9.99999e-01
1.364304097e+00,6.84433e-12,1.03007e-11,6.64450e-01,9.99999e-01
1.371125618e+00,1.74939e-06,2.61166e-06,6.69837e-01,9.99999e-01
1.377981246e+00,8.98355e-06,1.33058e-05,6.75160e-01,9.99999e-01
1.384871152e+00,9.21741e-04,1.35466e-03,6.80419e-01,9.99999e-01
1.391795508e+00,1.63747e-03,2.38833e-03,6.85614e-01,9.99999e-01
1.398754485e+00,1.39323e-02,2.01699e-02,6.90744e-01,9.99999e-01
1.405748258e+00,4.14784e-02,5.96116e-02,6.95811e-01,9.99999e-01
1.412776999e+00,1.14528e-01,1.63421e-01,7.00813e-01,9.99999e-01
1.419840884e+00,1.24803e-01,1.76837e-01,7.05752e-01,9.99999e-01
1.426940089e+00,3.09697e-03,4.35808e-03,7.10627e-01,9.99999e-01
1.434074789e+00,0.00000e+00,0.00000e+00,7.15438e-01,9.99999e-01
1.441245163e+00,0.00000e+00,0.00000e+00,7.20186e-01,9.99999e-01
1.448451389e+00,0.00000e+00,0.00000e+00,7.24870e-01,9.99999e-01
1.455693646e+00,0.00000e+00,0.00000e+00,7.29492e-01,9.99999e-01
1.462972114e+00,0.00000e+00,0.00000e+00,7.34051e-01,9.99999e-01
1.470286975e+00,0.00000e+00,0.00000e+00,7.38548e-01,9.99999e-01
1.477638409e+00,1.48572e-216,1.99967e-216,7.42982e-01,9.99999e-01
1.485026601e+00,2.38093e-119,3.18580e-119,7.47355e-01,9.99999e-01
1.492451734e+00,2.02609e-101,2.69547e-101,7.51666e-01,9.99999e-01
1.499913993e+00,2.10377e-42,2.78307e-42,7.55916e-01,9.99999e-01
1.507413563e+00,4.57497e-41,6.01885e-41,7.60106e-01,9.99999e-01
1.514950631e+00,6.00095e-43,7.85222e-43,7.64236e-01,9.99999e-01
1.522525384e+00,4.03178e-153,5.24762e-153,7.68305e-01,9.99999e-01
1.530138011e+00,0.00000e+00,0.00000e+00,7.72316e-01,9.99999e-01
1.537788701e+00,9.56781e-273,1.23254e-272,7.76267e-01,9.99999e-01
1.545477645e+00,2.60558e-55,3.33980e-55,7.80160e-01,9.99999e-01
1.553205033e+00,1.47996e-40,1.88771e-40,7.83995e-01,9.99999e-01
1.560971058e+00,1.80329e-40,2.28910e-40,7.87773e-01,9.99999e-01
1.568775913e+00,0.00000e+00,0.00000e+00,7.91493e-01,9.99999e-01
1.576619793e+00,0.00000e+00,0.00000e+00,7.95157e-01,9.99999e-01
1.584502892e+00,0.00000e+00,0.00000e+00,7.98766e-01,9.99999e-01
1.592425406e+00,0.00000e+00,0.00000e+00,8.02319e-01,9.99999e-01
1.600387533e+00,0.00000e+00,0.00000e+00,8.05817e-01,9.99999e-01
1.608389471e+00,0.00000e+00,0.00000e+00,8.09260e-01,9.99999e-01
1.616431418e+00,0.00000e+00,0.00000e+00,8.12650e-01,9.99999e-01
1.624513575e+00,0.00000e+00,0.00000e+00,8.15987e-01,9.99999e-01
1.632636143e+00,0.00000e+00,0.00000e+00,8.19271e-01,9.99999e-01
1.640799324e+00,1.46441e-320,1.78061e-320,8.22504e-01,9.99999e-01
1.649003321e+00,1.46886e-320,1.77864e-320,8.25684e-01,9.99999e-01
1.657248337e+00,4.48844e-247,5.41549e-247,8.28814e-01,9.99999e-01
1.665534579e+00,9.53505e-249,1.14619e-248,8.31894e-01,9.99999e-01
1.673862252e+00,1.51800e-157,1.81812e-157,8.34923e-01,9.99999e-01
1.682231563e+00,3.47282e-108,4.14464e-108,8.37904e-01,9.99999e-01
1.690642721e+00,8.39342e-59,9.98221e-59,8.40836e-01,9.99999e-01
1.699095934e+00,7.45197e-37,8.83227e-37,8.43720e-01,9.99999e-01
1.707591414e+00,9.04252e-18,1.06815e-17,8.46557e-01,9.99999e-01
1.716129371e+00,7.76352e-11,9.14057e-11,8.49347e-01,9.99999e-01
1.724710018e+00,1.23696e-06,1.45167e-06,8.52091e-01,9.99999e-01
1.733333568e+00,8.57227e-05,1.00285e-04,8.54789e-01,9.99999e-01
1.742000236e+00,3.96339e-03,4.62233e-03,8.57443e-01,9.99999e-01
1.750710237e+00,9.68425e-07,1.12601e-06,8.60051e-01,9.99999e-01
1.759463788e+00,2.56957e-150,2.97881e-150,8.62616e-01,9.99999e-01
1.768261107e+00,2.01216e-157,2.32582e-157,8.65138e-01,9.99999e-01
1.777102413e+00,1.50404e-153,1.73353e-153,8.67617e-01,9.99999e-01
1.785987925e+00,2.24954e-143,2.58551e-143,8.70054e-01,9.99999e-01
1.794917864e+00,8.46074e-137,9.69767e-137,8.72450e-01,9.99999e-01
1.803892454e+00,2.43580e-131,2.78439e-131,8.74804e-01,9.99999e-01
1.812911916e+00,3.98586e-126,4.54426e-126,8.77119e-01,9.99999e-01
1.821976476e+00,3.14193e-126,3.57284e-126,8.79393e-01,9.99999e-01
1.831086358e+00,9.11425e-101,1.03380e-100,8.81628e-01,9.99999e-01
1.840241790e+00,1.53967e-85,1.74206e-85,8.83825e-01,9.99999e-01
1.849442999e+00,4.20736e-59,4.74880e-59,8.85984e-01,9.99999e-01
1.858690214e+00,8.98606e-56,1.01182e-55,8.88105e-01,9.99999e-01
1.867983665e+00,2.96067e-56,3.32588e-56,8.90189e-01,9.99999e-01
1.877323583e+00,5.00104e-290,5.60505e-290,8.92236e-01,9.99999e-01
