#,Wave/freq,Total,CO2,Rayleigh,CIA
4.000000000e-01,2.68289e-06,9.99999e-01,2.68289e-06,9.99999e-01
4.020000000e-01,3.45756e-06,9.99999e-01,3.45756e-06,9.99999e-01
4.040100000e-01,4.43243e-06,9.99999e-01,4.43243e-06,9.99999e-01
4.060300500e-01,5.65437e-06,9.99999e-01,5.65437e-06,9.99999e-01
4.080602003e-01,7.17856e-06,9.99999e-01,7.17856e-06,9.99999e-01
4.101005013e-01,9.07076e-06,9.99999e-01,9.07076e-06,9.99999e-01
4.121510038e-01,1.14089e-05,9.99999e-01,1.14089e-05,9.99999e-01
4.142117588e-01,1.42848e-05,9.99999e-01,1.42848e-05,9.99999e-01
4.162828176e-01,1.78065e-05,9.99999e-01,1.78065e-05,9.99999e-01
4.183642317e-01,2.20999e-05,9.99999e-01,2.20999e-05,9.99999e-01
4.204560528e-01,2.73118e-05,9.99999e-01,2.73118e-05,9.99999e-01
4.225583331e-01,3.36119e-05,9.99999e-01,3.36119e-05,9.99999e-01
4.246711247e-01,4.11961e-05,9.99999e-01,4.11961e-05,9.99999e-01
4.267944804e-01,5.02891e-05,9.99999e-01,5.02891e-05,9.99999e-01
4.289284528e-01,6.11477e-05,9.99999e-01,6.11477e-05,9.99999e-01
4.310730950e-01,7.40644e-05,9.99999e-01,7.40644e-05,9.99999e-01
4.332284605e-01,8.93707e-05,9.99999e-01,8.93707e-05,9.99999e-01
4.353946028e-01,1.07441e-04,9.99999e-01,1.07441e-04,9.99999e-01
4.375715758e-01,1.28695e-04,9.99999e-01,1.28695e-04,9.99999e-01
4.397594337e-01,1.53606e-04,9.99999e-01,1.53606e-04,9.99999e-01
4.419582309e-01,1.82699e-04,9.99999e-01,1.82699e-04,9.99999e-01
4.441680220e-01,2.16559e-04,9.99999e-01,2.16559e-04,9.99999e-01
4.463888621e-01,2.55834e-04,9.99999e-01,2.55834e-04,9.99999e-01
4.486208064e-01,3.01238e-04,9.99999e-01,3.01238e-04,9.99999e-01
4.508639105e-01,3.53558e-04,9.99999e-01,3.53558e-04,9.99999e-01
4.531182300e-01,4.13654e-04,9.99999e-01,4.13654e-04,9.99999e-01
4.553838212e-01,4.82466e-04,9.99999e-01,4.82466e-04,9.99999e-01
4.576607403e-01,5.61017e-04,9.99999e-01,5.61017e-04,9.99999e-01
4.599490440e-01,6.50417e-04,9.99999e-01,6.50417e-04,9.99999e-01
4.622487892e-01,7.51864e-04,9.99999e-01,7.51864e-04,9.99999e-01
4.645600332e-01,8.66649e-04,9.99999e-01,8.66649e-04,9.99999e-01
4.668828333e-01,9.96159e-04,9.99999e-01,9.96159e-04,9.99999e-01
4.692172475e-01,1.14188e-03,9.99999e-01,1.14188e-03,9.99999e-01
4.715633337e-01,1.30538e-03,9.99999e-01,1.30538e-03,9.99999e-01
4.739211504e-01,1.48837e-03,9.99999e-01,1.48837e-03,9.99999e-01
4.762907561e-01,1.69260e-03,9.99999e-01,1.69260e-03,9.99999e-01
4.786722099e-01,1.91999e-03,9.99999e-01,1.91999e-03,9.99999e-01
4.810655710e-01,2.17250e-03,9.99999e-01,2.17250e-03,9.99999e-01
4.834708988e-01,2.45223e-03,9.99999e-01,2.45223e-03,9.99999e-01
4.858882533e-01,2.76137e-03,9.99999e-01,2.76137e-03,9.99999e-01
4.883176946e-01,3.10219e-03,9.99999e-01,3.10219e-03,9.99999e-01
4.907592831e-01,3.47708e-03,9.99999e-01,3.47708e-03,9.99999e-01
4.932130795e-01,3.88849e-03,9.99999e-01,3.88849e-03,9.99999e-01
4.956791449e-01,4.33899e-03,9.99999e-01,4.33899e-03,9.99999e-01
4.981575406e-01,4.83122e-03,9.99999e-01,4.83122e-03,9.99999e-01
5.006483283e-01,5.36787e-03,9.99999e-01,5.36787e-03,9.99999e-01
5.031515699e-01,5.95174e-03,9.99999e-01,5.95174e-03,9.99999e-01
5.056673278e-01,6.58568e-03,9.99999e-01,6.58568e-03,9.99999e-01
5.081956644e-01,7.27258e-03,9.99999e-01,7.27258e-03,9.99999e-01
5.107366428e-01,8.01540e-03,9.99999e-01,8.01540e-03,9.99999e-01
5.132903260e-01,8.81715e-03,9.99999e-01,8.81715e-03,9.99999e-01
5.158567776e-01,9.68084e-03,9.99999e-01,9.68084e-03,9.99999e-01
5.184360615e-01,1.06095e-02,9.99999e-01,1.06095e-02,9.99999e-01
5.210282418e-01,1.16063e-02,9.99999e-01,1.16063e-02,9.99999e-01
5.236333830e-01,1.26742e-02,9.99999e-01,1.26742e-02,9.99999e-01
5.262515499e-01,1.38163e-02,9.99999e-01,1.38163e-02,9.99999e-01
5.288828077e-01,1.50357e-02,9.99999e-01,1.50357e-02,9.99999e-01
5.315272217e-01,1.63354e-02,9.99999e-01,1.63354e-02,9.99999e-01
5.341848578e-01,1.77185e-02,9.99999e-01,1.77185e-02,9.99999e-01
5.368557821e-01,1.91877e-02,9.99999e-01,1.91877e-02,9.99999e-01
5.395400610e-01,2.07462e-02,9.99999e-01,2.07462e-02,9.99999e-01
5.422377613e-01,2.23966e-02,9.99999e-01,2.23966e-02,9.99999e-01
5.449489501e-01,2.41419e-02,9.99999e-01,2.41419e-02,9.99999e-01
5.476736949e-01,2.59845e-02,9.99999e-01,2.59845e-02,9.99999e-01
5.504120634e-01,2.79273e-02,9.99999e-01,2.79273e-02,9.99999e-01
5.531641237e-01,2.99725e-02,9.99999e-01,2.99725e-02,9.99999e-01
5.559299443e-01,3.21227e-02,9.99999e-01,3.21227e-02,9.99999e-01
5.587095940e-01,3.43800e-02,9.99999e-01,3.43800e-02,9.99999e-01
5.615031420e-01,3.67466e-02,9.99999e-01,3.67466e-02,9.99999e-01
5.643106577e-01,3.92246e-02,9.99999e-01,3.92246e-02,9.99999e-01
5.671322110e-01,4.18156e-02,9.99999e-01,4.18156e-02,9.99999e-01
5.699678720e-01,4.45216e-02,9.99999e-01,4.45216e-02,9.99999e-01
5.728177114e-01,4.73440e-02,9.99999e-01,4.73440e-02,9.99999e-01
5.756818000e-01,5.02842e-02,9.99999e-01,5.02842e-02,9.99999e-01
5.785602090e-01,5.33435e-02,9.99999e-01,5.33435e-02,9.99999e-01
5.814530100e-01,5.65229e-02,9.99999e-01,5.65229e-02,9.99999e-01
5.843602750e-01,5.98234e-02,9.99999e-01,5.98234e-02,9.99999e-01
5.872820764e-01,6.32457e-02,9.99999e-01,6.32457e-02,9.99999e-01
5.902184868e-01,6.67904e-02,9.99999e-01,6.67904e-02,9.99999e-01
5.931695792e-01,7.04577e-02,9.99999e-01,7.04577e-02,9.99999e-01
5.961354271e-01,7.42480e-02,9.99999e-01,7.42480e-02,9.99999e-01
5.991161043e-01,7.81613e-02,9.99999e-01,7.81613e-02,9.99999e-01
6.021116848e-01,8.21973e-02,9.99999e-01,8.21973e-02,9.99999e-01
6.051222432e-01,8.63559e-02,9.99999e-01,8.63559e-02,9.99999e-01
6.081478544e-01,9.06364e-02,9.99999e-01,9.06364e-02,9.99999e-01
6.111885937e-01,9.50383e-02,9.99999e-01,9.50383e-02,9.99999e-01
6.142445367e-01,9.95607e-02,9.99999e-01,9.95607e-02,9.99999e-01
6.173157594e-01,1.04202e-01,9.99999e-01,1.04202e-01,9.99999e-01
6.204023382e-01,1.08963e-01,9.99999e-01,1.08963e-01,9.99999e-01
6.235043498e-01,1.13840e-01,9.99999e-01,1.13840e-01,9.99999e-01
6.266218716e-01,1.18832e-01,9.99999e-01,1.18832e-01,9.99999e-01
6.297549810e-01,1.23939e-01,9.99999e-01,1.23939e-01,9.99999e-01
6.329037559e-01,1.29157e-01,9.99999e-01,1.29157e-01,9.99999e-01
6.360682746e-01,1.34485e-01,9.99999e-01,1.34485e-01,9.99999e-01
6.392486160e-01,1.39922e-01,9.99999e-01,1.39922e-01,9.99999e-01
6.424448591e-01,1.45465e-01,9.99999e-01,1.45465e-01,9.99999e-01
6.456570834e-01,1.51111e-01,9.99999e-01,1.51111e-01,9.99999e-01
6.488853688e-01,1.56858e-01,9.99999e-01,1.56858e-01,9.99999e-01
6.521297956e-01,1.62703e-01,9.99999e-01,1.62703e-01,9.99999e-01
6.553904446e-01,1.68645e-01,9.99999e-01,1.68645e-01,9.99999e-01
6.586673968e-01,1.74680e-01,9.99999e-01,1.74680e-01,9.99999e-01
6.619607338e-01,1.80805e-01,9.99999e-01,1.80805e-01,9.99999e-01
6.652705375e-01,1.87017e-01,9.99999e-01,1.87017e-01,9.99999e-01
6.685968902e-01,1.93314e-01,9.99999e-01,1.93314e-01,9.99999e-01
6.719398746e-01,1.99693e-01,9.99999e-01,1.99693e-01,9.99999e-01
6.752995740e-01,2.06149e-01,9.99999e-01,2.06149e-01,9.99999e-01
6.786760719e-01,2.12681e-01,9.99999e-01,2.12681e-01,9.99999e-01
6.820694522e-01,2.19284e-01,9.99999e-01,2.19284e-01,9.99999e-01
6.854797995e-01,2.25956e-01,9.99999e-01,2.25956e-01,9.99999e-01
6.889071985e-01,2.32693e-01,9.99999e-01,2.32693e-01,9.99999e-01
6.923517345e-01,2.39492e-01,9.99999e-01,2.39492e-01,9.99999e-01
6.958134932e-01,2.46350e-01,9.99999e-01,2.46350e-01,9.99999e-01
6.992925606e-01,2.53262e-01,9.99999e-01,2.53262e-01,9.99999e-01
7.027890234e-01,2.60226e-01,9.99999e-01,2.60226e-01,9.99999e-01
7.063029686e-01,2.67239e-01,9.99999e-01,2.67239e-01,9.99999e-01
7.098344834e-01,2.74296e-01,9.99999e-01,2.74296e-01,9.99999e-01
7.133836558e-01,2.81395e-01,9.99999e-01,2.81395e-01,9.99999e-01
7.169505741e-01,2.88532e-01,9.99999e-01,2.88532e-01,9.99999e-01
7.205353270e-01,2.95703e-01,9.99999e-01,2.95703e-01,9.99999e-01
7.241380036e-01,3.02906e-01,9.99999e-01,3.02906e-01,9.99999e-01
7.277586936e-01,3.10137e-01,9.99999e-01,3.10137e-01,9.99999e-01
7.313974871e-01,3.17392e-01,9.99999e-01,3.17392e-01,9.99999e-01
7.350544745e-01,3.24669e-01,9.99999e-01,3.24669e-01,9.99999e-01
7.387297469e-01,3.31964e-01,9.99999e-01,3.31964e-01,9.99999e-01
7.424233956e-01,3.39274e-01,9.99999e-01,3.39274e-01,9.99999e-01
7.461355126e-01,3.46596e-01,9.99999e-01,3.46596e-01,9.99999e-01
7.498661902e-01,3.53927e-01,9.99999e-01,3.53927e-01,9.99999e-01
7.536155211e-01,3.61263e-01,9.99999e-01,3.61263e-01,9.99999e-01
7.573835987e-01,3.68602e-01,9.99999e-01,3.68602e-01,9.99999e-01
7.611705167e-01,3.75940e-01,9.99999e-01,3.75940e-01,9.99999e-01
7.649763693e-01,3.83276e-01,9.99999e-01,3.83276e-01,9.99999e-01
7.688012511e-01,3.90605e-01,9.99999e-01,3.90605e-01,9.99999e-01
7.726452574e-01,3.97926e-01,9.99999e-01,3.97926e-01,9.99999e-01
7.765084837e-01,4.05235e-01,9.99999e-01,4.05235e-01,9.99999e-01
7.803910261e-01,3.96948e-01,9.62228e-01,4.12530e-01,9.99999e-01
7.842929812e-01,3.48019e-01,8.28992e-01,4.19809e-01,9.99999e-01
7.882144461e-01,3.50303e-01,8.20249e-01,4.27068e-01,9.99999e-01
7.921555184e-01,3.86655e-01,8.90281e-01,4.34306e-01,9.99999e-01
7.961162960e-01,4.08001e-01,9.24083e-01,4.41520e-01,9.99999e-01
8.000968774e-01,4.29962e-01,9.58221e-01,4.48708e-01,9.99999e-01
8.040973618e-01,4.45820e-01,9.77961e-01,4.55867e-01,9.99999e-01
8.081178486e-01,4.58320e-01,9.89901e-01,4.62995e-01,9.99999e-01
8.121584379e-01,4.68599e-01,9.96824e-01,4.70092e-01,9.99999e-01
8.162192301e-01,4.76818e-01,9.99297e-01,4.77153e-01,9.99999e-01
8.203003262e-01,4.84172e-01,9.99987e-01,4.84178e-01,9.99999e-01
8.244018279e-01,4.91164e-01,9.99999e-01,4.91164e-01,9.99999e-01
8.285238370e-01,4.98111e-01,9.99999e-01,4.98111e-01,9.99999e-01
8.326664562e-01,5.05015e-01,9.99999e-01,5.05015e-01,9.99999e-01
8.368297885e-01,5.11876e-01,9.99999e-01,5.11876e-01,9.99999e-01
8.410139374e-01,5.18692e-01,9.99999e-01,5.18692e-01,9.99999e-01
8.452190071e-01,5.25461e-01,9.99999e-01,5.25461e-01,9.99999e-01
8.494451021e-01,5.32183e-01,9.99999e-01,5.32183e-01,9.99999e-01
8.536923276e-01,5.38855e-01,9.99999e-01,5.38855e-01,9.99999e-01
8.579607893e-01,5.45476e-01,9.99999e-01,5.45476e-01,9.99999e-01
8.622505932e-01,5.52046e-01,9.99999e-01,5.52046e-01,9.99999e-01
8.665618462e-01,5.14483e-01,9.21084e-01,5.58563e-01,9.99999e-01
8.708946554e-01,3.53452e-01,6.25551e-01,5.65025e-01,9.99999e-01
8.752491287e-01,3.89731e-01,6.82024e-01,5.71433e-01,9.99999e-01
8.796253743e-01,4.67581e-01,8.09265e-01,5.77784e-01,9.99999e-01
8.840235012e-01,5.23311e-01,8.95959e-01,5.84079e-01,9.99999e-01
8.884436187e-01,5.65085e-01,9.57258e-01,5.90315e-01,9.99999e-01
8.928858368e-01,5.86089e-01,9.82556e-01,5.96493e-01,9.99999e-01
8.973502660e-01,6.00013e-01,9.95685e-01,6.02612e-01,9.99999e-01
9.018370173e-01,6.08380e-01,9.99521e-01,6.08671e-01,9.99999e-01
9.063462024e-01,6.07636e-01,9.88557e-01,6.14670e-01,9.99999e-01
9.108779334e-01,6.03668e-01,9.72704e-01,6.20607e-01,9.99999e-01
9.154323231e-01,6.22355e-01,9.93411e-01,6.26483e-01,9.99999e-01
9.200094847e-01,5.77733e-01,9.13706e-01,6.32296e-01,9.99999e-01
9.246095321e-01,5.57415e-01,8.73626e-01,6.38047e-01,9.99999e-01
9.292325798e-01,5.80336e-01,9.01513e-01,6.43736e-01,9.99999e-01
9.338787427e-01,5.86295e-01,9.02880e-01,6.49361e-01,9.99999e-01
9.385481364e-01,6.07525e-01,9.27629e-01,6.54922e-01,9.99999e-01
9.432408771e-01,6.30527e-01,9.54735e-01,6.60420e-01,9.99999e-01
9.479570815e-01,6.50304e-01,9.76644e-01,6.65855e-01,9.99999e-01
9.526968669e-01,6.63598e-01,9.88636e-01,6.71225e-01,9.99999e-01
9.574603512e-01,6.73230e-01,9.95119e-01,6.76531e-01,9.99999e-01
9.622476530e-01,6.80733e-01,9.98472e-01,6.81774e-01,9.99999e-01
9.670588912e-01,6.86636e-01,9.99539e-01,6.86952e-01,9.99999e-01
9.718941857e-01,6.92042e-01,9.99965e-01,6.92066e-01,9.99999e-01
9.767536566e-01,6.97116e-01,9.99999e-01,6.97116e-01,9.99999e-01
9.816374249e-01,7.02101e-01,9.99999e-01,7.02101e-01,9.99999e-01
9.865456120e-01,7.07024e-01,9.99999e-01,7.07024e-01,9.99999e-01
9.914783401e-01,7.11882e-01,9.99999e-01,7.11882e-01,9.99999e-01
9.964357318e-01,7.16677e-01,9.99999e-01,7.16677e-01,9.99999e-01
1.001417910e+00,7.21408e-01,9.99999e-01,7.21408e-01,9.99999e-01
1.006425000e+00,7.26076e-01,9.99999e-01,7.26076e-01,9.99999e-01
1.011457125e+00,7.30682e-01,9.99999e-01,7.30682e-01,9.99999e-01
1.016514411e+00,7.35224e-01,9.99999e-01,7.35224e-01,9.99999e-01
1.021596983e+00,7.39667e-01,9.99948e-01,7.39705e-01,9.99999e-01
1.026704968e+00,7.40808e-01,9.95544e-01,7.44123e-01,9.99999e-01
1.031838492e+00,7.14729e-01,9.54907e-01,7.48480e-01,9.99999e-01
1.036997685e+00,9.70349e-02,1.28903e-01,7.52775e-01,9.99999e-01
1.042182673e+00,5.68298e-02,7.50714e-02,7.57010e-01,9.99999e-01
1.047393587e+00,7.84564e-02,1.03071e-01,7.61184e-01,9.99999e-01
1.052630555e+00,1.06915e-03,1.39703e-03,7.65298e-01,9.99999e-01
1.057893707e+00,2.91665e-03,3.79104e-03,7.69352e-01,9.99999e-01
1.063183176e+00,1.24751e-02,1.61313e-02,7.73347e-01,9.99999e-01
1.068499092e+00,4.28528e-02,5.51314e-02,7.77283e-01,9.99999e-01
1.073841587e+00,1.23609e-01,1.58237e-01,7.81161e-01,9.99999e-01
1.079210795e+00,2.44234e-01,3.11134e-01,7.84981e-01,9.99999e-01
1.084606849e+00,4.12904e-01,5.23495e-01,7.88744e-01,9.99999e-01
1.090029883e+00,5.66386e-01,7.14727e-01,7.92450e-01,9.99999e-01
1.095480033e+00,6.74344e-01,8.47059e-01,7.96099e-01,9.99999e-01
1.100957433e+00,7.38210e-01,9.23116e-01,7.99693e-01,9.99999e-01
1.106462220e+00,7.77038e-01,9.67389e-01,8.03232e-01,9.99999e-01
1.111994531e+00,7.96865e-01,9.87788e-01,8.06716e-01,9.99999e-01
1.117554504e+00,8.07699e-01,9.96979e-01,8.10145e-01,9.99999e-01
1.123142276e+00,8.13358e-01,9.99798e-01,8.13522e-01,9.99999e-01
1.128757988e+00,8.16845e-01,9.99999e-01,8.16845e-01,9.99999e-01
1.134401778e+00,8.20115e-01,9.99999e-01,8.20115e-01,9.99999e-01
1.140073787e+00,8.23334e-01,9.99999e-01,8.23334e-01,9.99999e-01
1.145774156e+00,8.26502e-01,9.99999e-01,8.26502e-01,9.99999e-01
1.151503026e+00,8.29618e-01,9.99999e-01,8.29618e-01,9.99999e-01
1.157260541e+00,8.32685e-01,9.99999e-01,8.32685e-01,9.99999e-01
1.163046844e+00,8.35702e-01,9.99999e-01,8.35702e-01,9.99999e-01
1.168862078e+00,8.38670e-01,9.99999e-01,8.38670e-01,9.99999e-01
1.174706389e+00,8.41590e-01,9.99999e-01,8.41590e-01,9.99999e-01
1.180579921e+00,8.44461e-01,9.99999e-01,8.44461e-01,9.99999e-01
1.186482820e+00,8.47283e-01,9.99995e-01,8.47286e-01,9.99999e-01
1.192415234e+00,8.36821e-01,9.84420e-01,8.50064e-01,9.99999e-01
1.198377311e+00,4.75318e-01,5.57364e-01,8.52796e-01,9.99999e-01
1.204369197e+00,2.27274e-13,2.65668e-13,8.55482e-01,9.99999e-01
1.210391043e+00,5.03295e-50,5.86506e-50,8.58124e-01,9.99999e-01
1.216442998e+00,1.80292e-43,2.09466e-43,8.60721e-01,9.99999e-01
1.222525213e+00,7.72503e-43,8.94851e-43,8.63275e-01,9.99999e-01
1.228637839e+00,3.52574e-33,4.07230e-33,8.65786e-01,9.99999e-01
1.234781029e+00,1.62523e-25,1.87184e-25,8.68254e-01,9.99999e-01
1.240954934e+00,2.39158e-14,2.74679e-14,8.70680e-01,9.99999e-01
1.247159708e+00,2.20068e-09,2.52064e-09,8.73065e-01,9.99999e-01
1.253395507e+00,4.60038e-05,5.25512e-05,8.75409e-01,9.99999e-01
1.259662485e+00,2.04097e-03,2.32533e-03,8.77713e-01,9.99999e-01
1.265960797e+00,3.29225e-02,3.74129e-02,8.79977e-01,9.99999e-01
1.272290601e+00,1.94321e-01,2.20268e-01,8.82202e-01,9.99999e-01
1.278652054e+00,1.90480e-01,2.15380e-01,8.84389e-01,9.99999e-01
1.285045314e+00,3.56202e-03,4.01789e-03,8.86538e-01,9.99999e-01
1.291470541e+00,1.60023e-06,1.80074e-06,8.88649e-01,9.99999e-01
1.297927893e+00,1.66829e-03,1.87296e-03,8.90724e-01,9.99999e-01
1.304417533e+00,6.92862e-02,7.76087e-02,8.92762e-01,9.99999e-01
1.310939621e+00,1.76295e-02,1.97030e-02,8.94765e-01,9.99999e-01
1.317494319e+00,1.28266e-17,1.43037e-17,8.96732e-01,9.99999e-01
1.324081790e+00,4.75415e-12,5.29024e-12,8.98665e-01,9.99999e-01
1.330702199e+00,3.97889e-07,4.41822e-07,9.00563e-01,9.99999e-01
1.337355710e+00,6.90140e-07,7.64758e-07,9.02428e-01,9.99999e-01
1.344042489e+00,2.35897e-07,2.60872e-07,9.04260e-01,9.99999e-01
1.350762701e+00,2.25525e-07,2.48908e-07,9.06059e-01,9.99999e-01
1.357516515e+00,5.90728e-05,6.50705e-05,9.07827e-01,9.99999e-01
1.364304097e+00,1.52960e-03,1.68168e-03,9.09562e-01,9.99999e-01
1.371125618e+00,3.29030e-02,3.61069e-02,9.11267e-01,9.99999e-01
1.377981246e+00,5.86552e-02,6.42486e-02,9.12941e-01,9.99999e-01
1.384871152e+00,1.85009e-01,2.02287e-01,9.14585e-01,9.99999e-01
1.391795508e+00,2.08654e-01,2.27738e-01,9.16199e-01,9.99999e-01
1.398754485e+00,3.67780e-01,4.00726e-01,9.17785e-01,9.99999e-01
1.405748258e+00,4.68721e-01,5.09844e-01,9.19341e-01,9.99999e-01
1.412776999e+00,6.01102e-01,6.52754e-01,9.20870e-01,9.99999e-01
1.419840884e+00,5.48078e-01,5.94205e-01,9.22370e-01,9.99999e-01
1.426940089e+00,4.42160e-02,4.78609e-02,9.23844e-01,9.99999e-01
1.434074789e+00,0.00000e+00,0.00000e+00,9.25290e-01,9.99999e-01
1.441245163e+00,0.00000e+00,0.00000e+00,9.26711e-01,9.99999e-01
1.448451389e+00,0.00000e+00,0.00000e+00,9.28105e-01,9.99999e-01
1.455693646e+00,0.00000e+00,0.00000e+00,9.29474e-01,9.99999e-01
1.462972114e+00,3.62241e-196,3.89164e-196,9.30817e-01,9.99999e-01
1.470286975e+00,4.83167e-82,5.18343e-82,9.32136e-01,9.99999e-01
1.477638409e+00,5.83815e-52,6.25449e-52,9.33431e-01,9.99999e-01
1.485026601e+00,2.10667e-29,2.25384e-29,9.34702e-01,9.99999e-01
1.492451734e+00,4.62115e-25,4.93739e-25,9.35950e-01,9.99999e-01
1.499913993e+00,1.56394e-11,1.66878e-11,9.37174e-01,9.99999e-01
1.507413563e+00,2.78151e-10,2.96418e-10,9.38376e-01,9.99999e-01
1.514950631e+00,1.08737e-11,1.15732e-11,9.39556e-01,9.99999e-01
1.522525384e+00,3.03348e-37,3.22466e-37,9.40714e-01,9.99999e-01
1.530138011e+00,1.80064e-87,1.91181e-87,9.41850e-01,9.99999e-01
1.537788701e+00,5.57097e-65,5.90793e-65,9.42965e-01,9.99999e-01
1.545477645e+00,1.47843e-14,1.56604e-14,9.44059e-01,9.99999e-01
1.553205033e+00,2.22770e-10,2.35702e-10,9.45134e-01,9.99999e-01
1.560971058e+00,7.82517e-11,8.27020e-11,9.46188e-01,9.99999e-01
1.568775913e+00,4.21100e-220,4.44563e-220,9.47222e-01,9.99999e-01
1.576619793e+00,0.00000e+00,0.00000e+00,9.48237e-01,9.99999e-01
1.584502892e+00,2.24815e-281,2.36838e-281,9.49233e-01,9.99999e-01
1.592425406e+00,3.06240e-196,3.22287e-196,9.50210e-01,9.99999e-01
1.600387533e+00,5.52411e-316,5.80770e-316,9.51169e-01,9.99999e-01
1.608389471e+00,0.00000e+00,0.00000e+00,9.52110e-01,9.99999e-01
1.616431418e+00,0.00000e+00,0.00000e+00,9.53034e-01,9.99999e-01
1.624513575e+00,3.79449e-249,3.97770e-249,9.53940e-01,9.99999e-01
1.632636143e+00,3.54677e-185,3.71456e-185,9.54829e-01,9.99999e-01
1.640799324e+00,4.37632e-76,4.57917e-76,9.55701e-01,9.99999e-01
1.649003321e+00,4.40333e-76,4.60331e-76,9.56556e-01,9.99999e-01
1.657248337e+00,5.02145e-59,5.24489e-59,9.57396e-01,9.99999e-01
1.665534579e+00,2.07082e-59,2.16110e-59,9.58220e-01,9.99999e-01
1.673862252e+00,2.92276e-38,3.04762e-38,9.59028e-01,9.99999e-01
1.682231563e+00,8.50027e-27,8.85609e-27,9.59821e-01,9.99999e-01
1.690642721e+00,2.30737e-15,2.40201e-15,9.60598e-01,9.99999e-01
1.699095934e+00,5.69537e-10,5.92427e-10,9.61361e-01,9.99999e-01
1.707591414e+00,1.29777e-05,1.34887e-05,9.62110e-01,9.99999e-01
1.716129371e+00,1.72123e-03,1.78765e-03,9.62844e-01,9.99999e-01
1.724710018e+00,2.84266e-02,2.95015e-02,9.63565e-01,9.99999e-01
1.733333568e+00,9.82744e-02,1.01916e-01,9.64271e-01,9.99999e-01
1.742000236e+00,2.50099e-01,2.59179e-01,9.64964e-01,9.99999e-01
1.750710237e+00,4.82962e-03,5.00144e-03,9.65644e-01,9.99999e-01
1.759463788e+00,1.67667e-36,1.73512e-36,9.66312e-01,9.99999e-01
1.768261107e+00,3.03811e-38,3.14189e-38,9.66966e-01,9.99999e-01
1.777102413e+00,5.38111e-37,5.56125e-37,9.67608e-01,9.99999e-01
1.785987925e+00,5.73155e-35,5.91956e-35,9.68237e-01,9.99999e-01
1.794917864e+00,2.27938e-33,2.35265e-33,9.68855e-01,9.99999e-01
1.803892454e+00,3.39453e-32,3.50146e-32,9.69460e-01,9.99999e-01
1.812911916e+00,6.87498e-31,7.08720e-31,9.70054e-01,9.99999e-01
1.821976476e+00,5.24567e-31,5.40435e-31,9.70637e-01,9.99999e-01
1.831086358e+00,4.22348e-25,4.34868e-25,9.71209e-01,9.99999e-01
1.840241790e+00,2.10493e-21,2.16608e-21,9.71769e-01,9.99999e-01
1.849442999e+00,5.87734e-15,6.04466e-15,9.72319e-01,9.99999e-01
1.858690214e+00,6.20839e-14,6.38159e-14,9.72858e-01,9.99999e-01
1.867983665e+00,1.26886e-14,1.30355e-14,9.73387e-01,9.99999e-01
1.877323583e+00,5.50289e-69,5.65032e-69,9.73906e-01,9.99999e-01
