#,Wave/freq,Total,CO2,Rayleigh,CIA
4.000000000e-01,1.93742e-14,9.99999e-01,1.93742e-14,9.99999e-01
4.020000000e-01,3.61722e-14,9.99999e-01,3.61722e-14,9.99999e-01
4.040100000e-01,6.66622e-14,9.99999e-01,6.66622e-14,9.99999e-01
4.060300500e-01,1.21378e-13,9.99999e-01,1.21378e-13,9.99999e-01
4.080602003e-01,2.18404e-13,9.99999e-01,2.18404e-13,9.99999e-01
4.101005013e-01,3.88456e-13,9.99999e-01,3.88456e-13,9.99999e-01
4.121510038e-01,6.83099e-13,9.99999e-01,6.83099e-13,9.99999e-01
4.142117588e-01,1.18791e-12,9.99999e-01,1.18791e-12,9.99999e-01
4.162828176e-01,2.04331e-12,9.99999e-01,2.04331e-12,9.99999e-01
4.183642317e-01,3.47724e-12,9.99999e-01,3.47724e-12,9.99999e-01
4.204560528e-01,5.85563e-12,9.99999e-01,5.85563e-12,9.99999e-01
4.225583331e-01,9.75983e-12,9.99999e-01,9.75983e-12,9.99999e-01
4.246711247e-01,1.61038e-11,9.99999e-01,1.61038e-11,9.99999e-01
4.267944804e-01,2.63098e-11,9.99999e-01,2.63098e-11,9.99999e-01
4.289284528e-01,4.25693e-11,9.99999e-01,4.25693e-11,9.99999e-01
4.310730950e-01,6.82257e-11,9.99999e-01,6.82257e-11,9.99999e-01
4.332284605e-01,1.08331e-10,9.99999e-01,1.08331e-10,9.99999e-01
4.353946028e-01,1.70448e-10,9.99999e-01,1.70448e-10,9.99999e-01
4.375715758e-01,2.65792e-10,9.99999e-01,2.65792e-10,9.99999e-01
4.397594337e-01,4.10847e-10,9.99999e-01,4.10847e-10,9.99999e-01
4.419582309e-01,6.29627e-10,9.99999e-01,6.29627e-10,9.99999e-01
4.441680220e-01,9.56807e-10,9.99999e-01,9.56807e-10,9.99999e-01
4.463888621e-01,1.44203e-09,9.99999e-01,1.44203e-09,9.99999e-01
4.486208064e-01,2.15579e-09,9.99999e-01,2.15579e-09,9.99999e-01
4.508639105e-01,3.19735e-09,9.99999e-01,3.19735e-09,9.99999e-01
4.531182300e-01,4.70535e-09,9.99999e-01,4.70535e-09,9.99999e-01
4.553838212e-01,6.87193e-09,9.99999e-01,6.87193e-09,9.99999e-01
4.576607403e-01,9.96131e-09,9.99999e-01,9.96131e-09,9.99999e-01
4.599490440e-01,1.43341e-08,9.99999e-01,1.43341e-08,9.99999e-01
4.622487892e-01,2.04786e-08,9.99999e-01,2.04786e-08,9.99999e-01
4.645600332e-01,2.90517e-08,9.99999e-01,2.90517e-08,9.99999e-01
4.668828333e-01,4.09301e-08,9.99999e-01,4.09301e-08,9.99999e-01
4.692172475e-01,5.72760e-08,9.99999e-01,5.72760e-08,9.99999e-01
4.715633337e-01,7.96198e-08,9.99999e-01,7.96198e-08,9.99999e-01
4.739211504e-01,1.09962e-07,9.99999e-01,1.09962e-07,9.99999e-01
4.762907561e-01,1.50902e-07,9.99999e-01,1.50902e-07,9.99999e-01
4.786722099e-01,2.05794e-07,9.99999e-01,2.05794e-07,9.99999e-01
4.810655710e-01,2.78939e-07,9.99999e-01,2.78939e-07,9.99999e-01
4.834708988e-01,3.75818e-07,9.99999e-01,3.75818e-07,9.99999e-01
4.858882533e-01,5.03370e-07,9.99999e-01,5.03370e-07,9.99999e-01
4.883176946e-01,6.70333e-07,9.99999e-01,6.70333e-07,9.99999e-01
4.907592831e-01,8.87640e-07,9.99999e-01,8.87640e-07,9.99999e-01
4.932130795e-01,1.16889e-06,9.99999e-01,1.16889e-06,9.99999e-01
4.956791449e-01,1.53091e-06,9.99999e-01,1.53091e-06,9.99999e-01
4.981575406e-01,1.99440e-06,9.99999e-01,1.99440e-06,9.99999e-01
5.006483283e-01,2.58467e-06,9.99999e-01,2.58467e-06,9.99999e-01
5.031515699e-01,3.33253e-06,9.99999e-01,3.33253e-06,9.99999e-01
5.056673278e-01,4.27526e-06,9.99999e-01,4.27526e-06,9.99999e-01
5.081956644e-01,5.45776e-06,9.99999e-01,5.45776e-06,9.99999e-01
5.107366428e-01,6.93380e-06,9.99999e-01,6.93380e-06,9.99999e-01
5.132903260e-01,8.76748e-06,9.99999e-01,8.76748e-06,9.99999e-01
5.158567776e-01,1.10348e-05,9.99999e-01,1.10348e-05,9.99999e-01
5.184360615e-01,1.38256e-05,9.99999e-01,1.38256e-05,9.99999e-01
5.210282418e-01,1.72451e-05,9.99999e-01,1.72451e-05,9.99999e-01
5.236333830e-01,2.14168e-05,9.99999e-01,2.14168e-05,9.99999e-01
5.262515499e-01,2.64840e-05,9.99999e-01,2.64840e-05,9.99999e-01
5.288828077e-01,3.26130e-05,9.99999e-01,3.26130e-05,9.99999e-01
5.315272217e-01,3.99956e-05,9.99999e-01,3.99956e-05,9.99999e-01
5.341848578e-01,4.88522e-05,9.99999e-01,4.88522e-05,9.99999e-01
5.368557821e-01,5.94345e-05,9.99999e-01,5.94345e-05,9.99999e-01
5.395400610e-01,7.20298e-05,9.99999e-01,7.20298e-05,9.99999e-01
5.422377613e-01,8.69634e-05,9.99999e-01,8.69634e-05,9.99999e-01
5.449489501e-01,1.04603e-04,9.99999e-01,1.04603e-04,9.99999e-01
5.476736949e-01,1.25363e-04,9.99999e-01,1.25363e-04,9.99999e-01
5.504120634e-01,1.49706e-04,9.99999e-01,1.49706e-04,9.99999e-01
5.531641237e-01,1.78151e-04,9.99999e-01,1.78151e-04,9.99999e-01
5.559299443e-01,2.11273e-04,9.99999e-01,2.11273e-04,9.99999e-01
5.587095940e-01,2.49711e-04,9.99999e-01,2.49711e-04,9.99999e-01
5.615031420e-01,2.94169e-04,9.99999e-01,2.94169e-04,9.99999e-01
5.643106577e-01,3.45423e-04,9.99999e-01,3.45423e-04,9.99999e-01
5.671322110e-01,4.04322e-04,9.99999e-01,4.04322e-04,9.99999e-01
5.699678720e-01,4.71794e-04,9.99999e-01,4.71794e-04,9.99999e-01
5.728177114e-01,5.48851e-04,9.99999e-01,5.48851e-04,9.99999e-01
5.756818000e-01,6.36588e-04,9.99999e-01,6.36588e-04,9.99999e-01
5.785602090e-01,7.36190e-04,9.99999e-01,7.36190e-04,9.99999e-01
5.814530100e-01,8.48935e-04,9.99999e-01,8.48935e-04,9.99999e-01
5.843602750e-01,9.76196e-04,9.99999e-01,9.76196e-04,9.99999e-01
5.872820764e-01,1.11944e-03,9.99999e-01,1.11944e-03,9.99999e-01
5.902184868e-01,1.28024e-03,9.99999e-01,1.28024e-03,9.99999e-01
5.931695792e-01,1.46025e-03,9.99999e-01,1.46025e-03,9.99999e-01
5.961354271e-01,1.66126e-03,9.99999e-01,1.66126e-03,9.99999e-01
5.991161043e-01,1.88513e-03,9.99999e-01,1.88513e-03,9.99999e-01
6.021116848e-01,2.13383e-03,9.99999e-01,2.13383e-03,9.99999e-01
6.051222432e-01,2.40944e-03,9.99999e-01,2.40944e-03,9.99999e-01
6.081478544e-01,2.71412e-03,9.99999e-01,2.71412e-03,9.99999e-01
6.111885937e-01,3.05015e-03,9.99999e-01,3.05015e-03,9.99999e-01
6.142445367e-01,3.41989e-03,9.99999e-01,3.41989e-03,9.99999e-01
6.173157594e-01,3.82580e-03,9.99999e-01,3.82580e-03,9.99999e-01
6.204023382e-01,4.27041e-03,9.99999e-01,4.27041e-03,9.99999e-01
6.235043498e-01,4.75634e-03,9.99999e-01,4.75634e-03,9.99999e-01
6.266218716e-01,5.28631e-03,9.99999e-01,5.28631e-03,9.99999e-01
6.297549810e-01,5.86309e-03,9.99999e-01,5.86309e-03,9.99999e-01
6.329037559e-01,6.48950e-03,9.99999e-01,6.48950e-03,9.99999e-01
6.360682746e-01,7.16845e-03,9.99999e-01,7.16845e-03,9.99999e-01
6.392486160e-01,7.90289e-03,9.99999e-01,7.90289e-03,9.99999e-01
6.424448591e-01,8.69581e-03,9.99999e-01,8.69581e-03,9.99999e-01
6.456570834e-01,9.55023e-03,9.99999e-01,9.55023e-03,9.99999e-01
6.488853688e-01,1.04692e-02,9.99999e-01,1.04692e-02,9.99999e-01
6.521297956e-01,1.14558e-02,9.99999e-01,1.14558e-02,9.99999e-01
6.553904446e-01,1.25131e-02,9.99999e-01,1.25131e-02,9.99999e-01
6.586673968e-01,1.36441e-02,9.99999e-01,1.36441e-02,9.99999e-01
6.619607338e-01,1.48520e-02,9.99999e-01,1.48520e-02,9.99999e-01
6.652705375e-01,1.61398e-02,9.99999e-01,1.61398e-02,9.99999e-01
6.685968902e-01,1.75104e-02,9.99999e-01,1.75104e-02,9.99999e-01
6.719398746e-01,1.89668e-02,9.99999e-01,1.89668e-02,9.99999e-01
6.752995740e-01,2.05120e-02,9.99999e-01,2.05120e-02,9.99999e-01
6.786760719e-01,2.21488e-02,9.99999e-01,2.21488e-02,9.99999e-01
6.820694522e-01,2.38800e-02,9.99999e-01,2.38800e-02,9.99999e-01
6.854797995e-01,2.57082e-02,9.99999e-01,2.57082e-02,9.99999e-01
6.889071985e-01,2.76361e-02,9.99999e-01,2.76361e-02,9.99999e-01
6.923517345e-01,2.96662e-02,9.99999e-01,2.96662e-02,9.99999e-01
6.958134932e-01,3.18008e-02,9.99999e-01,3.18008e-02,9.99999e-01
6.992925606e-01,3.40423e-02,9.99999e-01,3.40423e-02,9.99999e-01
7.027890234e-01,3.63928e-02,9.99999e-01,3.63928e-02,9.99999e-01
7.063029686e-01,3.88543e-02,9.99999e-01,3.88543e-02,9.99999e-01
7.098344834e-01,4.14286e-02,9.99999e-01,4.14286e-02,9.99999e-01
7.133836558e-01,4.41177e-02,9.99999e-01,4.41177e-02,9.99999e-01
7.169505741e-01,4.69229e-02,9.99999e-01,4.69229e-02,9.99999e-01
7.205353270e-01,4.98457e-02,9.99999e-01,4.98457e-02,9.99999e-01
7.241380036e-01,5.28875e-02,9.99999e-01,5.28875e-02,9.99999e-01
7.277586936e-01,5.60493e-02,9.99999e-01,5.60493e-02,9.99999e-01
7.313974871e-01,5.93320e-02,9.99999e-01,5.93320e-02,9.99999e-01
7.350544745e-01,6.27364e-02,9.99999e-01,6.27364e-02,9.99999e-01
7.387297469e-01,6.62631e-02,9.99999e-01,6.62631e-02,9.99999e-01
7.424233956e-01,6.99124e-02,9.99999e-01,6.99124e-02,9.99999e-01
7.461355126e-01,7.36847e-02,9.99999e-01,7.36847e-02,9.99999e-01
7.498661902e-01,7.75799e-02,9.99999e-01,7.75799e-02,9.99999e-01
7.536155211e-01,8.15980e-02,9.99999e-01,8.15980e-02,9.99999e-01
7.573835987e-01,8.57386e-02,9.99999e-01,8.57386e-02,9.99999e-01
7.611705167e-01,9.00013e-02,9.99999e-01,9.00013e-02,9.99999e-01
7.649763693e-01,9.43855e-02,9.99999e-01,9.43855e-02,9.99999e-01
7.688012511e-01,9.88902e-02,9.99999e-01,9.88902e-02,9.99999e-01
7.726452574e-01,1.03515e-01,9.99999e-01,1.03515e-01,9.99999e-01
7.765084837e-01,1.08257e-01,9.99999e-01,1.08257e-01,9.99999e-01
7.803910261e-01,1.04139e-01,9.20631e-01,1.13117e-01,9.99999e-01
7.842929812e-01,7.60707e-02,6.44158e-01,1.18093e-01,9.99999e-01
7.882144461e-01,7.78147e-02,6.31700e-01,1.23183e-01,9.99999e-01
7.921555184e-01,9.68494e-02,7.54366e-01,1.28385e-01,9.99999e-01
7.961162960e-01,1.10211e-01,8.24327e-01,1.33698e-01,9.99999e-01
8.000968774e-01,1.25297e-01,9.00651e-01,1.39118e-01,9.99999e-01
8.040973618e-01,1.36940e-01,9.46729e-01,1.44645e-01,9.99999e-01
8.081178486e-01,1.46573e-01,9.75352e-01,1.50276e-01,9.99999e-01
8.121584379e-01,1.54794e-01,9.92210e-01,1.56009e-01,9.99999e-01
8.162192301e-01,1.61561e-01,9.98272e-01,1.61840e-01,9.99999e-01
8.203003262e-01,1.67763e-01,9.99969e-01,1.67768e-01,9.99999e-01
8.244018279e-01,1.73789e-01,9.99999e-01,1.73789e-01,9.99999e-01
8.285238370e-01,1.79901e-01,9.99999e-01,1.79901e-01,9.99999e-01
8.326664562e-01,1.86101e-01,9.99999e-01,1.86101e-01,9.99999e-01
8.368297885e-01,1.92386e-01,9.99999e-01,1.92386e-01,9.99999e-01
8.410139374e-01,1.98753e-01,9.99999e-01,1.98753e-01,9.99999e-01
8.452190071e-01,2.05198e-01,9.99999e-01,2.05198e-01,9.99999e-01
8.494451021e-01,2.11719e-01,9.99999e-01,2.11719e-01,9.99999e-01
8.536923276e-01,2.18312e-01,9.99999e-01,2.18312e-01,9.99999e-01
8.579607893e-01,2.24974e-01,9.99999e-01,2.24974e-01,9.99999e-01
8.622505932e-01,2.31702e-01,9.99999e-01,2.31702e-01,9.99999e-01
8.665618462e-01,2.09479e-01,8.78347e-01,2.38492e-01,9.99999e-01
8.708946554e-01,8.41270e-02,3.42898e-01,2.45341e-01,9.99999e-01
8.752491287e-01,1.02731e-01,4.07266e-01,2.52245e-01,9.99999e-01
8.796253743e-01,1.56053e-01,6.02051e-01,2.59202e-01,9.99999e-01
8.840235012e-01,2.03695e-01,7.65174e-01,2.66208e-01,9.99999e-01
8.884436187e-01,2.45514e-01,8.98465e-01,2.73259e-01,9.99999e-01
8.928858368e-01,2.68488e-01,9.57683e-01,2.80352e-01,9.99999e-01
8.973502660e-01,2.84444e-01,9.89426e-01,2.87483e-01,9.99999e-01
9.018370173e-01,2.94304e-01,9.98824e-01,2.94650e-01,9.99999e-01
9.063462024e-01,2.93562e-01,9.72547e-01,3.01848e-01,9.99999e-01
9.108779334e-01,2.88793e-01,9.34376e-01,3.09075e-01,9.99999e-01
9.154323231e-01,3.11236e-01,9.83904e-01,3.16327e-01,9.99999e-01
9.200094847e-01,2.65662e-01,8.20955e-01,3.23601e-01,9.99999e-01
9.246095321e-01,2.38010e-01,7.19292e-01,3.30894e-01,9.99999e-01
9.292325798e-01,2.63547e-01,7.79259e-01,3.38202e-01,9.99999e-01
9.338787427e-01,2.69685e-01,7.80515e-01,3.45522e-01,9.99999e-01
9.385481364e-01,2.93670e-01,8.32276e-01,3.52852e-01,9.99999e-01
9.432408771e-01,3.21452e-01,8.92456e-01,3.60187e-01,9.99999e-01
9.479570815e-01,3.46781e-01,9.43554e-01,3.67526e-01,9.99999e-01
9.526968669e-01,3.64486e-01,9.72312e-01,3.74865e-01,9.99999e-01
9.574603512e-01,3.77630e-01,9.88040e-01,3.82201e-01,9.99999e-01
9.622476530e-01,3.88070e-01,9.96247e-01,3.89531e-01,9.99999e-01
9.670588912e-01,3.96405e-01,9.98868e-01,3.96853e-01,9.99999e-01
9.718941857e-01,4.04131e-01,9.99916e-01,4.04165e-01,9.99999e-01
9.767536566e-01,4.11462e-01,9.99999e-01,4.11462e-01,9.99999e-01
9.816374249e-01,4.18743e-01,9.99999e-01,4.18743e-01,9.99999e-01
9.865456120e-01,4.26005e-01,9.99999e-01,4.26005e-01,9.99999e-01
9.914783401e-01,4.33246e-01,9.99999e-01,4.33246e-01,9.99999e-01
9.964357318e-01,4.40464e-01,9.99999e-01,4.40464e-01,9.99999e-01
1.001417910e+00,4.47656e-01,9.99999e-01,4.47656e-01,9.99999e-01
1.006425000e+00,4.54819e-01,9.99999e-01,4.54819e-01,9.99999e-01
1.011457125e+00,4.61952e-01,9.99999e-01,4.61952e-01,9.99999e-01
1.016514411e+00,4.69053e-01,9.99999e-01,4.69053e-01,9.99999e-01
1.021596983e+00,4.76060e-01,9.99874e-01,4.76120e-01,9.99999e-01
1.026704968e+00,4.77899e-01,9.89131e-01,4.83150e-01,9.99999e-01
1.031838492e+00,4.48303e-01,9.14637e-01,4.90143e-01,9.99999e-01
1.036997685e+00,2.71394e-02,5.45960e-02,4.97095e-01,9.99999e-01
1.042182673e+00,1.94133e-03,3.85181e-03,5.04006e-01,9.99999e-01
1.047393587e+00,5.17861e-03,1.01368e-02,5.10873e-01,9.99999e-01
1.052630555e+00,7.34366e-07,1.41853e-06,5.17696e-01,9.99999e-01
1.057893707e+00,2.65548e-06,5.06314e-06,5.24472e-01,9.99999e-01
1.063183176e+00,6.38266e-05,1.20155e-04,5.31201e-01,9.99999e-01
1.068499092e+00,6.24096e-04,1.16029e-03,5.37880e-01,9.99999e-01
1.073841587e+00,6.92613e-03,1.27199e-02,5.44509e-01,9.99999e-01
1.079210795e+00,3.55124e-02,6.44406e-02,5.51086e-01,9.99999e-01
1.084606849e+00,1.17110e-01,2.10021e-01,5.57611e-01,9.99999e-01
1.090029883e+00,2.49311e-01,4.41977e-01,5.64081e-01,9.99999e-01
1.095480033e+00,3.80559e-01,6.67065e-01,5.70497e-01,9.99999e-01
1.100957433e+00,4.74127e-01,8.21914e-01,5.76857e-01,9.99999e-01
1.106462220e+00,5.37572e-01,9.21826e-01,5.83159e-01,9.99999e-01
1.111994531e+00,5.71869e-01,9.70248e-01,5.89405e-01,9.99999e-01
1.117554504e+00,5.91179e-01,9.92591e-01,5.95591e-01,9.99999e-01
1.123142276e+00,6.01422e-01,9.99506e-01,6.01719e-01,9.99999e-01
1.128757988e+00,6.07787e-01,9.99999e-01,6.07787e-01,9.99999e-01
1.134401778e+00,6.13794e-01,9.99999e-01,6.13794e-01,9.99999e-01
1.140073787e+00,6.19740e-01,9.99999e-01,6.19740e-01,9.99999e-01
1.145774156e+00,6.25625e-01,9.99999e-01,6.25625e-01,9.99999e-01
1.151503026e+00,6.31448e-01,9.99999e-01,6.31448e-01,9.99999e-01
1.157260541e+00,6.37208e-01,9.99999e-01,6.37208e-01,9.99999e-01
1.163046844e+00,6.42906e-01,9.99999e-01,6.42906e-01,9.99999e-01
1.168862078e+00,6.48540e-01,9.99999e-01,6.48540e-01,9.99999e-01
1.174706389e+00,6.54111e-01,9.99999e-01,6.54111e-01,9.99999e-01
1.180579921e+00,6.59618e-01,9.99999e-01,6.59618e-01,9.99999e-01
1.186482820e+00,6.65056e-01,9.99990e-01,6.65062e-01,9.99999e-01
1.192415234e+00,6.45852e-01,9.63322e-01,6.70442e-01,9.99999e-01
1.198377311e+00,3.52785e-01,5.22058e-01,6.75758e-01,9.99999e-01
1.204369197e+00,1.29461e-29,1.90101e-29,6.81009e-01,9.99999e-01
1.210391043e+00,8.05539e-120,1.17392e-119,6.86197e-01,9.99999e-01
1.216442998e+00,1.08776e-103,1.57345e-103,6.91320e-01,9.99999e-01
1.222525213e+00,3.89605e-102,5.59471e-102,6.96379e-01,9.99999e-01
1.228637839e+00,8.59407e-79,1.22532e-78,7.01375e-01,9.99999e-01
1.234781029e+00,1.00927e-59,1.42894e-59,7.06306e-01,9.99999e-01
1.240954934e+00,1.50850e-32,2.12114e-32,7.11174e-01,9.99999e-01
1.247159708e+00,8.26350e-21,1.15415e-20,7.15978e-01,9.99999e-01
1.253395507e+00,1.09026e-10,1.51274e-10,7.20718e-01,9.99999e-01
1.259662485e+00,9.65791e-07,1.33140e-06,7.25396e-01,9.99999e-01
1.265960797e+00,6.03032e-04,8.26058e-04,7.30010e-01,9.99999e-01
1.272290601e+00,2.14078e-02,2.91437e-02,7.34562e-01,9.99999e-01
1.278652054e+00,2.58995e-02,3.50442e-02,7.39052e-01,9.99999e-01
1.285045314e+00,3.45416e-05,4.64593e-05,7.43479e-01,9.99999e-01
1.291470541e+00,3.61854e-14,4.83862e-14,7.47845e-01,9.99999e-01
1.297927893e+00,3.35439e-06,4.45973e-06,7.52149e-01,9.99999e-01
1.304417533e+00,1.74396e-03,2.30562e-03,7.56393e-01,9.99999e-01
1.310939621e+00,4.85928e-04,6.38895e-04,7.60576e-01,9.99999e-01
1.317494319e+00,9.31101e-41,1.21760e-40,7.64698e-01,9.99999e-01
1.324081790e+00,9.30664e-27,1.21060e-26,7.68761e-01,9.99999e-01
1.330702199e+00,6.38446e-16,8.26183e-16,7.72765e-01,9.99999e-01
1.337355710e+00,1.33329e-14,1.71658e-14,7.76710e-01,9.99999e-01
1.344042489e+00,7.24562e-15,9.28216e-15,7.80596e-01,9.99999e-01
1.350762701e+00,3.05484e-16,3.89436e-16,7.84425e-01,9.99999e-01
1.357516515e+00,5.84681e-10,7.41796e-10,7.88196e-01,9.99999e-01
1.364304097e+00,2.44220e-07,3.08394e-07,7.91910e-01,9.99999e-01
1.371125618e+00,3.81802e-04,4.79911e-04,7.95568e-01,9.99999e-01
1.377981246e+00,1.08463e-03,1.35719e-03,7.99170e-01,9.99999e-01
1.384871152e+00,1.70936e-02,2.12946e-02,8.02716e-01,9.99999e-01
1.391795508e+00,2.29574e-02,2.84757e-02,8.06208e-01,9.99999e-01
1.398754485e+00,8.62094e-02,1.06478e-01,8.09646e-01,9.99999e-01
1.405748258e+00,1.58542e-01,1.95002e-01,8.13030e-01,9.99999e-01
1.412776999e+00,2.87758e-01,3.52488e-01,8.16361e-01,9.99999e-01
1.419840884e+00,2.78038e-01,3.39220e-01,8.19639e-01,9.99999e-01
1.426940089e+00,1.03506e-02,1.25788e-02,8.22866e-01,9.99999e-01
1.434074789e+00,0.00000e+00,0.00000e+00,8.26041e-01,9.99999e-01
1.441245163e+00,0.00000e+00,0.00000e+00,8.29165e-01,9.99999e-01
1.448451389e+00,0.00000e+00,0.00000e+00,8.32239e-01,9.99999e-01
1.455693646e+00,0.00000e+00,0.00000e+00,8.35263e-01,9.99999e-01
1.462972114e+00,0.00000e+00,0.00000e+00,8.38238e-01,9.99999e-01
1.470286975e+00,1.34319e-198,1.59682e-198,8.41165e-01,9.99999e-01
1.477638409e+00,1.40987e-124,1.67038e-124,8.44043e-01,9.99999e-01
1.485026601e+00,4.32045e-69,5.10164e-69,8.46875e-01,9.99999e-01
1.492451734e+00,7.92026e-59,9.32167e-59,8.49660e-01,9.99999e-01
1.499913993e+00,3.60352e-25,4.22750e-25,8.52398e-01,9.99999e-01
1.507413563e+00,6.46726e-24,7.56323e-24,8.55091e-01,9.99999e-01
1.514950631e+00,1.75945e-25,2.05127e-25,8.57740e-01,9.99999e-01
1.522525384e+00,2.28778e-88,2.65915e-88,8.60343e-01,9.99999e-01
1.530138011e+00,5.33059e-212,6.17750e-212,8.62903e-01,9.99999e-01
1.537788701e+00,1.21669e-156,1.40589e-156,8.65420e-01,9.99999e-01
1.545477645e+00,1.54937e-32,1.78521e-32,8.67895e-01,9.99999e-01
1.553205033e+00,8.20799e-24,9.43092e-24,8.70327e-01,9.99999e-01
1.560971058e+00,5.38051e-24,6.16523e-24,8.72718e-01,9.99999e-01
1.568775913e+00,0.00000e+00,0.00000e+00,8.75068e-01,9.99999e-01
1.576619793e+00,0.00000e+00,0.00000e+00,8.77378e-01,9.99999e-01
1.584502892e+00,0.00000e+00,0.00000e+00,8.79648e-01,9.99999e-01
1.592425406e+00,0.00000e+00,0.00000e+00,8.81878e-01,9.99999e-01
1.600387533e+00,0.00000e+00,0.00000e+00,8.84071e-01,9.99999e-01
1.608389471e+00,0.00000e+00,0.00000e+00,8.86225e-01,9.99999e-01
1.616431418e+00,0.00000e+00,0.00000e+00,8.88342e-01,9.99999e-01
1.624513575e+00,0.00000e+00,0.00000e+00,8.90422e-01,9.99999e-01
1.632636143e+00,0.00000e+00,0.00000e+00,8.92466e-01,9.99999e-01
1.640799324e+00,6.04974e-184,6.76346e-184,8.94473e-01,9.99999e-01
1.649003321e+00,6.05951e-184,6.75948e-184,8.96446e-01,9.99999e-01
1.657248337e+00,5.41809e-142,6.03092e-142,8.98384e-01,9.99999e-01
1.665534579e+00,6.02219e-143,6.68918e-143,9.00287e-01,9.99999e-01
1.673862252e+00,6.83298e-91,7.57404e-91,9.02157e-01,9.99999e-01
1.682231563e+00,1.01768e-62,1.12576e-62,9.03994e-01,9.99999e-01
1.690642721e+00,1.56826e-34,1.73136e-34,9.05798e-01,9.99999e-01
1.699095934e+00,6.14138e-22,6.76684e-22,9.07570e-01,9.99999e-01
1.707591414e+00,4.23959e-11,4.66242e-11,9.09310e-01,9.99999e-01
1.716129371e+00,7.55329e-07,8.29103e-07,9.11019e-01,9.99999e-01
1.724710018e+00,2.62232e-04,2.87315e-04,9.12698e-01,9.99999e-01
1.733333568e+00,3.93948e-03,4.30852e-03,9.14346e-01,9.99999e-01
1.742000236e+00,3.89200e-02,4.24907e-02,9.15965e-01,9.99999e-01
1.750710237e+00,8.99779e-05,9.80627e-05,9.17554e-01,9.99999e-01
1.759463788e+00,9.13910e-87,9.94336e-87,9.19115e-01,9.99999e-01
1.768261107e+00,7.98464e-91,8.67285e-91,9.20647e-01,9.99999e-01
1.777102413e+00,1.52463e-88,1.65334e-88,9.22152e-01,9.99999e-01
1.785987925e+00,8.30471e-83,8.99138e-83,9.23629e-01,9.99999e-01
1.794917864e+00,4.73004e-79,5.11311e-79,9.25080e-01,9.99999e-01
1.803892454e+00,6.14137e-76,6.62854e-76,9.26504e-01,9.99999e-01
1.812911916e+00,5.86972e-73,6.32579e-73,9.27902e-01,9.99999e-01
1.821976476e+00,5.07375e-73,5.45990e-73,9.29275e-01,9.99999e-01
1.831086358e+00,1.73711e-58,1.86661e-58,9.30622e-01,9.99999e-01
1.840241790e+00,8.90386e-50,9.55405e-50,9.31945e-01,9.99999e-01
1.849442999e+00,1.57214e-34,1.68460e-34,9.33243e-01,9.99999e-01
1.858690214e+00,1.51026e-32,1.61608e-32,9.34517e-01,9.99999e-01
1.867983665e+00,4.60196e-33,4.91784e-33,9.35768e-01,9.99999e-01
1.877323583e+00,1.67095e-166,1.78330e-166,9.36996e-01,9.99999e-01
