#,Wave/freq,Total,CO2,Rayleigh,CIA
4.000000000e-01,2.41761e-27,9.99999e-01,2.41761e-27,9.99999e-01
4.020000000e-01,8.10794e-27,9.99999e-01,8.10794e-27,9.99999e-01
4.040100000e-01,2.65628e-26,9.99999e-01,2.65628e-26,9.99999e-01
4.060300500e-01,8.50076e-26,9.99999e-01,8.50076e-26,9.99999e-01
4.080602003e-01,2.65866e-25,9.99999e-01,2.65866e-25,9.99999e-01
4.101005013e-01,8.12993e-25,9.99999e-01,8.12993e-25,9.99999e-01
4.121510038e-01,2.43177e-24,9.99999e-01,2.43177e-24,9.99999e-01
4.142117588e-01,7.11802e-24,9.99999e-01,7.11802e-24,9.99999e-01
4.162828176e-01,2.03978e-23,9.99999e-01,2.03978e-23,9.99999e-01
4.183642317e-01,5.72498e-23,9.99999e-01,5.72498e-23,9.99999e-01
4.204560528e-01,1.57439e-22,9.99999e-01,1.57439e-22,9.99999e-01
4.225583331e-01,4.24399e-22,9.99999e-01,4.24399e-22,9.99999e-01
4.246711247e-01,1.12183e-21,9.99999e-01,1.12183e-21,9.99999e-01
4.267944804e-01,2.90901e-21,9.99999e-01,2.90901e-21,9.99999e-01
4.289284528e-01,7.40264e-21,9.99999e-01,7.40264e-21,9.99999e-01
4.310730950e-01,1.84934e-20,9.99999e-01,1.84934e-20,9.99999e-01
4.332284605e-01,4.53724e-20,9.99999e-01,4.53724e-20,9.99999e-01
4.353946028e-01,1.09362e-19,9.99999e-01,1.09362e-19,9.99999e-01
4.375715758e-01,2.59058e-19,9.99999e-01,2.59058e-19,9.99999e-01
4.397594337e-01,6.03293e-19,9.99999e-01,6.03293e-19,9.99999e-01
4.419582309e-01,1.38168e-18,9.99999e-01,1.38168e-18,9.99999e-01
4.441680220e-01,3.11300e-18,9.99999e-01,3.11300e-18,9.99999e-01
4.463888621e-01,6.90212e-18,9.99999e-01,6.90212e-18,9.99999e-01
4.486208064e-01,1.50645e-17,9.99999e-01,1.50645e-17,9.99999e-01
4.508639105e-01,3.23767e-17,9.99999e-01,3.23767e-17,9.99999e-01
4.531182300e-01,6.85403e-17,9.99999e-01,6.85403e-17,9.99999e-01
4.553838212e-01,1.42964e-16,9.99999e-01,1.42964e-16,9.99999e-01
4.576607403e-01,2.93900e-16,9.99999e-01,2.93900e-16,9.99999e-01
4.599490440e-01,5.95650e-16,9.99999e-01,5.95650e-16,9.99999e-01
4.622487892e-01,1.19048e-15,9.99999e-01,1.19048e-15,9.99999e-01
4.645600332e-01,2.34701e-15,9.99999e-01,2.34701e-15,9.99999e-01
4.668828333e-01,4.56544e-15,9.99999e-01,4.56544e-15,9.99999e-01
4.692172475e-01,8.76483e-15,9.99999e-01,8.76483e-15,9.99999e-01
4.715633337e-01,1.66115e-14,9.99999e-01,1.66115e-14,9.99999e-01
4.739211504e-01,3.10878e-14,9.99999e-01,3.10878e-14,9.99999e-01
4.762907561e-01,5.74639e-14,9.99999e-01,5.74639e-14,9.99999e-01
4.786722099e-01,1.04937e-13,9.99999e-01,1.04937e-13,9.99999e-01
4.810655710e-01,1.89365e-13,9.99999e-01,1.89365e-13,9.99999e-01
4.834708988e-01,3.37756e-13,9.99999e-01,3.37756e-13,9.99999e-01
4.858882533e-01,5.95586e-13,9.99999e-01,5.95586e-13,9.99999e-01
4.883176946e-01,1.03853e-12,9.99999e-01,1.03853e-12,9.99999e-01
4.907592831e-01,1.79112e-12,9.99999e-01,1.79112e-12,9.99999e-01
4.932130795e-01,3.05601e-12,9.99999e-01,3.05601e-12,9.99999e-01
4.956791449e-01,5.15943e-12,9.99999e-01,5.15943e-12,9.99999e-01
4.981575406e-01,8.62096e-12,9.99999e-01,8.62096e-12,9.99999e-01
5.006483283e-01,1.42596e-11,9.99999e-01,1.42596e-11,9.99999e-01
5.031515699e-01,2.33528e-11,9.99999e-01,2.33528e-11,9.99999e-01
5.056673278e-01,3.78740e-11,9.99999e-01,3.78740e-11,9.99999e-01
5.081956644e-01,6.08407e-11,9.99999e-01,6.08407e-11,9.99999e-01
5.107366428e-01,9.68237e-11,9.99999e-01,9.68237e-11,9.99999e-01
5.132903260e-01,1.52680e-10,9.99999e-01,1.52680e-10,9.99999e-01
5.158567776e-01,2.38604e-10,9.99999e-01,2.38604e-10,9.99999e-01
5.184360615e-01,3.69609e-10,9.99999e-01,3.69609e-10,9.99999e-01
5.210282418e-01,5.67614e-10,9.99999e-01,5.67614e-10,9.99999e-01
5.236333830e-01,8.64338e-10,9.99999e-01,8.64338e-10,9.99999e-01
5.262515499e-01,1.30529e-09,9.99999e-01,1.30529e-09,9.99999e-01
5.288828077e-01,1.95521e-09,9.99999e-01,1.95521e-09,9.99999e-01
5.315272217e-01,2.90545e-09,9.99999e-01,2.90545e-09,9.99999e-01
5.341848578e-01,4.28387e-09,9.99999e-01,4.28387e-09,9.99999e-01
5.368557821e-01,6.26799e-09,9.99999e-01,6.26799e-09,9.99999e-01
5.395400610e-01,9.10239e-09,9.99999e-01,9.10239e-09,9.99999e-01
5.422377613e-01,1.31215e-08,9.99999e-01,1.31215e-08,9.99999e-01
5.449489501e-01,1.87790e-08,9.99999e-01,1.87790e-08,9.99999e-01
5.476736949e-01,2.66861e-08,9.99999e-01,2.66861e-08,9.99999e-01
5.504120634e-01,3.76604e-08,9.99999e-01,3.76604e-08,9.99999e-01
5.531641237e-01,5.27874e-08,9.99999e-01,5.27874e-08,9.99999e-01
5.559299443e-01,7.34984e-08,9.99999e-01,7.34984e-08,9.99999e-01
5.587095940e-01,1.01669e-07,9.99999e-01,1.01669e-07,9.99999e-01
5.615031420e-01,1.39737e-07,9.99999e-01,1.39737e-07,9.99999e-01
5.643106577e-01,1.90857e-07,9.99999e-01,1.90857e-07,9.99999e-01
5.671322110e-01,2.59079e-07,9.99999e-01,2.59079e-07,9.99999e-01
5.699678720e-01,3.49569e-07,9.99999e-01,3.49569e-07,9.99999e-01
5.728177114e-01,4.68883e-07,9.99999e-01,4.68883e-07,9.99999e-01
5.756818000e-01,6.25282e-07,9.99999e-01,6.25282e-07,9.99999e-01
5.785602090e-01,8.29123e-07,9.99999e-01,8.29123e-07,9.99999e-01
5.814530100e-01,1.09331e-06,9.99999e-01,1.09331e-06,9.99999e-01
5.843602750e-01,1.43381e-06,9.99999e-01,1.43381e-06,9.99999e-01
5.872820764e-01,1.87032e-06,9.99999e-01,1.87032e-06,9.99999e-01
5.902184868e-01,2.42694e-06,9.99999e-01,2.42694e-06,9.99999e-01
5.931695792e-01,3.13305e-06,9.99999e-01,3.13305e-06,9.99999e-01
5.961354271e-01,4.02426e-06,9.99999e-01,4.02426e-06,9.99999e-01
5.991161043e-01,5.14348e-06,9.99999e-01,5.14348e-06,9.99999e-01
6.021116848e-01,6.54218e-06,9.99999e-01,6.54218e-06,9.99999e-01
6.051222432e-01,8.28180e-06,9.99999e-01,8.28180e-06,9.99999e-01
6.081478544e-01,1.04353e-05,9.99999e-01,1.04353e-05,9.99999e-01
6.111885937e-01,1.30888e-05,9.99999e-01,1.30888e-05,9.99999e-01
6.142445367e-01,1.63439e-05,9.99999e-01,1.63439e-05,9.99999e-01
6.173157594e-01,2.03190e-05,9.99999e-01,2.03190e-05,9.99999e-01
6.204023382e-01,2.51526e-05,9.99999e-01,2.51526e-05,9.99999e-01
6.235043498e-01,3.10051e-05,9.99999e-01,3.10051e-05,9.99999e-01
6.266218716e-01,3.80617e-05,9.99999e-01,3.80617e-05,9.99999e-01
6.297549810e-01,4.65355e-05,9.99999e-01,4.65355e-05,9.99999e-01
6.329037559e-01,5.66705e-05,9.99999e-01,5.66705e-05,9.99999e-01
6.360682746e-01,6.87446e-05,9.99999e-01,6.87446e-05,9.99999e-01
6.392486160e-01,8.30737e-05,9.99999e-01,8.30737e-05,9.99999e-01
6.424448591e-01,1.00015e-04,9.99999e-01,1.00015e-04,9.99999e-01
6.456570834e-01,1.19970e-04,9.99999e-01,1.19970e-04,9.99999e-01
6.488853688e-01,1.43391e-04,9.99999e-01,1.43391e-04,9.99999e-01
6.521297956e-01,1.70781e-04,9.99999e-01,1.70781e-04,9.99999e-01
6.553904446e-01,2.02702e-04,9.99999e-01,2.02702e-04,9.99999e-01
6.586673968e-01,2.39776e-04,9.99999e-01,2.39776e-04,9.99999e-01
6.619607338e-01,2.82692e-04,9.99999e-01,2.82692e-04,9.99999e-01
6.652705375e-01,3.32207e-04,9.99999e-01,3.32207e-04,9.99999e-01
6.685968902e-01,3.89153e-04,9.99999e-01,3.89153e-04,9.99999e-01
6.719398746e-01,4.54437e-04,9.99999e-01,4.54437e-04,9.99999e-01
6.752995740e-01,5.29050e-04,9.99999e-01,5.29050e-04,9.99999e-01
6.786760719e-01,6.14067e-04,9.99999e-01,6.14067e-04,9.99999e-01
6.820694522e-01,7.10651e-04,9.99999e-01,7.10651e-04,9.99999e-01
6.854797995e-01,8.20057e-04,9.99999e-01,8.20057e-04,9.99999e-01
6.889071985e-01,9.43634e-04,9.99999e-01,9.43634e-04,9.99999e-01
6.923517345e-01,1.08283e-03,9.99999e-01,1.08283e-03,9.99999e-01
6.958134932e-01,1.23918e-03,9.99999e-01,1.23918e-03,9.99999e-01
6.992925606e-01,1.41433e-03,9.99999e-01,1.41433e-03,9.99999e-01
7.027890234e-01,1.61003e-03,9.99999e-01,1.61003e-03,9.99999e-01
7.063029686e-01,1.82813e-03,9.99999e-01,1.82813e-03,9.99999e-01
7.098344834e-01,2.07057e-03,9.99999e-01,2.07057e-03,9.99999e-01
7.133836558e-01,2.33939e-03,9.99999e-01,2.33939e-03,9.99999e-01
7.169505741e-01,2.63675e-03,9.99999e-01,2.63675e-03,9.99999e-01
7.205353270e-01,2.96490e-03,9.99999e-01,2.96490e-03,9.99999e-01
7.241380036e-01,3.32617e-03,9.99999e-01,3.32617e-03,9.99999e-01
7.277586936e-01,3.72299e-03,9.99999e-01,3.72299e-03,9.99999e-01
7.313974871e-01,4.15789e-03,9.99999e-01,4.15789e-03,9.99999e-01
7.350544745e-01,4.63346e-03,9.99999e-01,4.63346e-03,9.99999e-01
7.387297469e-01,5.15240e-03,9.99999e-01,5.15240e-03,9.99999e-01
7.424233956e-01,5.71746e-03,9.99999e-01,5.71746e-03,9.99999e-01
7.461355126e-01,6.33146e-03,9.99999e-01,6.33146e-03,9.99999e-01
7.498661902e-01,6.99729e-03,9.99999e-01,6.99729e-03,9.99999e-01
7.536155211e-01,7.71788e-03,9.99999e-01,7.71788e-03,9.99999e-01
7.573835987e-01,8.49620e-03,9.99999e-01,8.49620e-03,9.99999e-01
7.611705167e-01,9.33529e-03,9.99999e-01,9.33529e-03,9.99999e-01
7.649763693e-01,1.02382e-02,9.99999e-01,1.02382e-02,9.99999e-01
7.688012511e-01,1.12079e-02,9.99999e-01,1.12079e-02,9.99999e-01
7.726452574e-01,1.22476e-02,9.99999e-01,1.22476e-02,9.99999e-01
7.765084837e-01,1.32048e-02,9.88357e-01,1.33604e-02,9.99999e-01
7.803910261e-01,7.30395e-03,5.02018e-01,1.45492e-02,9.99999e-01
7.842929812e-01,8.43715e-03,5.33420e-01,1.58171e-02,9.99999e-01
7.882144461e-01,8.71399e-03,5.07596e-01,1.71671e-02,9.99999e-01
7.921555184e-01,1.15858e-02,6.22814e-01,1.86023e-02,9.99999e-01
7.961162960e-01,1.51987e-02,7.55192e-01,2.01255e-02,9.99999e-01
8.000968774e-01,1.87916e-02,8.64393e-01,2.17397e-02,9.99999e-01
8.040973618e-01,2.19314e-02,9.35342e-01,2.34475e-02,9.99999e-01
8.081178486e-01,2.45946e-02,9.73975e-01,2.52517e-02,9.99999e-01
8.121584379e-01,2.69652e-02,9.93011e-01,2.71550e-02,9.99999e-01
8.162192301e-01,2.91460e-02,9.99526e-01,2.91598e-02,9.99999e-01
8.203003262e-01,3.12686e-02,9.99999e-01,3.12686e-02,9.99999e-01
8.244018279e-01,3.34838e-02,9.99999e-01,3.34838e-02,9.99999e-01
8.285238370e-01,3.58074e-02,9.99999e-01,3.58074e-02,9.99999e-01
8.326664562e-01,3.82415e-02,9.99999e-01,3.82415e-02,9.99999e-01
8.368297885e-01,4.07881e-02,9.99999e-01,4.07881e-02,9.99999e-01
8.410139374e-01,4.34489e-02,9.99999e-01,4.34489e-02,9.99999e-01
8.452190071e-01,4.62256e-02,9.99999e-01,4.62256e-02,9.99999e-01
8.494451021e-01,4.91195e-02,9.99999e-01,4.91195e-02,9.99999e-01
8.536923276e-01,5.21321e-02,9.99999e-01,5.21321e-02,9.99999e-01
8.579607893e-01,5.52644e-02,9.99999e-01,5.52644e-02,9.99999e-01
8.622505932e-01,5.82027e-02,9.94620e-01,5.85174e-02,9.99999e-01
8.665618462e-01,1.62361e-02,2.62330e-01,6.18920e-02,9.99999e-01
8.708946554e-01,9.03688e-03,1.38202e-01,6.53887e-02,9.99999e-01
8.752491287e-01,1.77082e-02,2.56611e-01,6.90080e-02,9.99999e-01
8.796253743e-01,3.65788e-02,5.02800e-01,7.27502e-02,9.99999e-01
8.840235012e-01,5.63845e-02,7.35943e-01,7.66153e-02,9.99999e-01
8.884436187e-01,7.13477e-02,8.85169e-01,8.06034e-02,9.99999e-01
8.928858368e-01,8.16469e-02,9.63793e-01,8.47140e-02,9.99999e-01
8.973502660e-01,8.83152e-02,9.92897e-01,8.89469e-02,9.99999e-01
9.018370173e-01,9.28178e-02,9.94816e-01,9.33014e-02,9.99999e-01
9.063462024e-01,8.48643e-02,8.67939e-01,9.77767e-02,9.99999e-01
9.108779334e-01,9.60109e-02,9.37863e-01,1.02372e-01,9.99999e-01
9.154323231e-01,9.94500e-02,9.28693e-01,1.07086e-01,9.99999e-01
9.200094847e-01,5.56005e-02,4.96799e-01,1.11917e-01,9.99999e-01
9.246095321e-01,7.14567e-02,6.11447e-01,1.16865e-01,9.99999e-01
9.292325798e-01,7.26563e-02,5.95900e-01,1.21927e-01,9.99999e-01
9.338787427e-01,8.16327e-02,6.42262e-01,1.27102e-01,9.99999e-01
9.385481364e-01,1.03471e-01,7.81574e-01,1.32387e-01,9.99999e-01
9.432408771e-01,1.18628e-01,8.60979e-01,1.37782e-01,9.99999e-01
9.479570815e-01,1.32206e-01,9.22692e-01,1.43283e-01,9.99999e-01
9.526968669e-01,1.43809e-01,9.65877e-01,1.48889e-01,9.99999e-01
9.574603512e-01,1.52732e-01,9.87936e-01,1.54597e-01,9.99999e-01
9.622476530e-01,1.59777e-01,9.96086e-01,1.60404e-01,9.99999e-01
9.670588912e-01,1.66208e-01,9.99393e-01,1.66309e-01,9.99999e-01
9.718941857e-01,1.72307e-01,9.99998e-01,1.72307e-01,9.99999e-01
9.767536566e-01,1.78397e-01,9.99999e-01,1.78397e-01,9.99999e-01
9.816374249e-01,1.84576e-01,9.99999e-01,1.84576e-01,9.99999e-01
9.865456120e-01,1.90840e-01,9.99999e-01,1.90840e-01,9.99999e-01
9.914783401e-01,1.97187e-01,9.99999e-01,1.97187e-01,9.99999e-01
9.964357318e-01,2.03614e-01,9.99999e-01,2.03614e-01,9.99999e-01
1.001417910e+00,2.10116e-01,9.99999e-01,2.10116e-01,9.99999e-01
1.006425000e+00,2.16692e-01,9.99999e-01,2.16692e-01,9.99999e-01
1.011457125e+00,2.23337e-01,9.99999e-01,2.23337e-01,9.99999e-01
1.016514411e+00,2.30048e-01,9.99995e-01,2.30049e-01,9.99999e-01
1.021596983e+00,2.35442e-01,9.94161e-01,2.36824e-01,9.99999e-01
1.026704968e+00,2.32782e-01,9.55357e-01,2.43659e-01,9.99999e-01
1.031838492e+00,6.47459e-02,2.58414e-01,2.50551e-01,9.99999e-01
1.036997685e+00,6.13974e-07,2.38441e-06,2.57495e-01,9.99999e-01
1.042182673e+00,1.51858e-04,5.74157e-04,2.64489e-01,9.99999e-01
1.047393587e+00,6.38208e-06,2.35042e-05,2.71529e-01,9.99999e-01
1.052630555e+00,3.26672e-11,1.17249e-10,2.78612e-01,9.99999e-01
1.057893707e+00,1.41076e-09,4.93730e-09,2.85735e-01,9.99999e-01
1.063183176e+00,2.69581e-07,9.20409e-07,2.92893e-01,9.99999e-01
1.068499092e+00,5.73100e-05,1.90980e-04,3.00084e-01,9.99999e-01
1.073841587e+00,6.16231e-04,2.00528e-03,3.07304e-01,9.99999e-01
1.079210795e+00,8.96128e-03,2.84891e-02,3.14550e-01,9.99999e-01
1.084606849e+00,3.92029e-02,1.21816e-01,3.21819e-01,9.99999e-01
1.090029883e+00,1.14861e-01,3.49008e-01,3.29108e-01,9.99999e-01
1.095480033e+00,1.98984e-01,5.91489e-01,3.36412e-01,9.99999e-01
1.100957433e+00,2.74788e-01,7.99429e-01,3.43730e-01,9.99999e-01
1.106462220e+00,3.20063e-01,9.11710e-01,3.51057e-01,9.99999e-01
1.111994531e+00,3.48887e-01,9.73479e-01,3.58392e-01,9.99999e-01
1.117554504e+00,3.64118e-01,9.95592e-01,3.65730e-01,9.99999e-01
1.123142276e+00,3.73060e-01,9.99974e-01,3.73069e-01,9.99999e-01
1.128757988e+00,3.80406e-01,9.99999e-01,3.80406e-01,9.99999e-01
1.134401778e+00,3.87738e-01,9.99999e-01,3.87738e-01,9.99999e-01
1.140073787e+00,3.95062e-01,9.99999e-01,3.95062e-01,9.99999e-01
1.145774156e+00,4.02377e-01,9.99999e-01,4.02377e-01,9.99999e-01
1.151503026e+00,4.09678e-01,9.99999e-01,4.09678e-01,9.99999e-01
1.157260541e+00,4.16963e-01,9.99999e-01,4.16963e-01,9.99999e-01
1.163046844e+00,4.24230e-01,9.99999e-01,4.24230e-01,9.99999e-01
1.168862078e+00,4.31476e-01,9.99999e-01,4.31476e-01,9.99999e-01
1.174706389e+00,4.38700e-01,9.99999e-01,4.38700e-01,9.99999e-01
1.180579921e+00,4.45898e-01,9.99999e-01,4.45898e-01,9.99999e-01
1.186482820e+00,4.49614e-01,9.92373e-01,4.53069e-01,9.99999e-01
1.192415234e+00,3.80853e-01,8.27563e-01,4.60210e-01,9.99999e-01
1.198377311e+00,2.60717e-02,5.57899e-02,4.67319e-01,9.99999e-01
1.204369197e+00,3.74363e-300,7.89139e-300,4.74394e-01,9.99999e-01
1.210391043e+00,1.12047e-227,2.32735e-227,4.81433e-01,9.99999e-01
1.216442998e+00,3.33086e-198,6.81945e-198,4.88435e-01,9.99999e-01
1.222525213e+00,1.14787e-152,2.31707e-152,4.95397e-01,9.99999e-01
1.228637839e+00,3.58142e-115,7.12978e-115,5.02318e-01,9.99999e-01
1.234781029e+00,2.04840e-75,4.02281e-75,5.09197e-01,9.99999e-01
1.240954934e+00,5.14937e-45,9.97880e-45,5.16030e-01,9.99999e-01
1.247159708e+00,2.03165e-20,3.88596e-20,5.22818e-01,9.99999e-01
1.253395507e+00,5.42088e-15,1.02366e-14,5.29558e-01,9.99999e-01
1.259662485e+00,5.99708e-08,1.11833e-07,5.36250e-01,9.99999e-01
1.265960797e+00,1.42340e-04,2.62188e-04,5.42891e-01,9.99999e-01
1.272290601e+00,2.70915e-03,4.93036e-03,5.49481e-01,9.99999e-01
1.278652054e+00,8.67339e-05,1.55991e-04,5.56019e-01,9.99999e-01
1.285045314e+00,6.05849e-19,1.07706e-18,5.62503e-01,9.99999e-01
1.291470541e+00,3.13077e-20,5.50289e-20,5.68932e-01,9.99999e-01
1.297927893e+00,1.65595e-06,2.87839e-06,5.75305e-01,9.99999e-01
1.304417533e+00,6.63191e-06,1.14024e-05,5.81622e-01,9.99999e-01
1.310939621e+00,7.10995e-10,1.20942e-09,5.87882e-01,9.99999e-01
1.317494319e+00,8.67429e-72,1.46011e-71,5.94083e-01,9.99999e-01
1.324081790e+00,2.54905e-30,4.24682e-30,6.00225e-01,9.99999e-01
1.330702199e+00,2.86417e-30,4.72396e-30,6.06308e-01,9.99999e-01
1.337355710e+00,5.04978e-27,8.24682e-27,6.12330e-01,9.99999e-01
1.344042489e+00,2.32208e-34,3.75564e-34,6.18291e-01,9.99999e-01
1.350762701e+00,1.81879e-21,2.91383e-21,6.24191e-01,9.99999e-01
1.357516515e+00,5.91215e-15,9.38393e-15,6.30029e-01,9.99999e-01
1.364304097e+00,6.93144e-08,1.09018e-07,6.35804e-01,9.99999e-01
1.371125618e+00,7.62817e-07,1.18908e-06,6.41517e-01,9.99999e-01
1.377981246e+00,2.79182e-04,4.31391e-04,6.47167e-01,9.99999e-01
1.384871152e+00,2.98634e-04,4.57498e-04,6.52754e-01,9.99999e-01
1.391795508e+00,5.54510e-03,8.42366e-03,6.58277e-01,9.99999e-01
1.398754485e+00,1.47906e-02,2.22839e-02,6.63736e-01,9.99999e-01
1.405748258e+00,6.00079e-02,8.96802e-02,6.69131e-01,9.99999e-01
1.412776999e+00,1.29771e-01,1.92406e-01,6.74463e-01,9.99999e-01
1.419840884e+00,1.01157e-02,1.48820e-02,6.79730e-01,9.99999e-01
1.426940089e+00,0.00000e+00,0.00000e+00,6.84933e-01,9.99999e-01
1.434074789e+00,0.00000e+00,0.00000e+00,6.90072e-01,9.99999e-01
1.441245163e+00,0.00000e+00,0.00000e+00,6.95147e-01,9.99999e-01
1.448451389e+00,0.00000e+00,0.00000e+00,7.00158e-01,9.99999e-01
1.455693646e+00,0.00000e+00,0.00000e+00,7.05105e-01,9.99999e-01
1.462972114e+00,0.00000e+00,0.00000e+00,7.09988e-01,9.99999e-01
1.470286975e+00,0.00000e+00,0.00000e+00,7.14808e-01,9.99999e-01
1.477638409e+00,8.88516e-172,1.23480e-171,7.19564e-01,9.99999e-01
1.485026601e+00,1.63880e-133,2.26274e-133,7.24257e-01,9.99999e-01
1.492451734e+00,8.94279e-68,1.22691e-67,7.28887e-01,9.99999e-01
1.499913993e+00,3.51722e-46,4.79541e-46,7.33454e-01,9.99999e-01
1.507413563e+00,1.68848e-46,2.28804e-46,7.37959e-01,9.99999e-01
1.514950631e+00,5.34629e-99,7.20133e-99,7.42401e-01,9.99999e-01
1.522525384e+00,1.13172e-277,1.51546e-277,7.46782e-01,9.99999e-01
1.530138011e+00,3.07423e-307,4.09296e-307,7.51102e-01,9.99999e-01
1.537788701e+00,4.06948e-132,5.38746e-132,7.55360e-01,9.99999e-01
1.545477645e+00,5.67210e-47,7.46763e-47,7.59558e-01,9.99999e-01
1.553205033e+00,6.48306e-45,8.48906e-45,7.63695e-01,9.99999e-01
1.560971058e+00,5.51933e-128,7.18876e-128,7.67773e-01,9.99999e-01
1.568775913e+00,0.00000e+00,0.00000e+00,7.71791e-01,9.99999e-01
1.576619793e+00,0.00000e+00,0.00000e+00,7.75750e-01,9.99999e-01
1.584502892e+00,0.00000e+00,0.00000e+00,7.79650e-01,9.99999e-01
1.592425406e+00,0.00000e+00,0.00000e+00,7.83493e-01,9.99999e-01
1.600387533e+00,0.00000e+00,0.00000e+00,7.87278e-01,9.99999e-01
1.608389471e+00,0.00000e+00,0.00000e+00,7.91006e-01,9.99999e-01
1.616431418e+00,0.00000e+00,0.00000e+00,7.94678e-01,9.99999e-01
1.624513575e+00,0.00000e+00,0.00000e+00,7.98293e-01,9.99999e-01
1.632636143e+00,0.00000e+00,0.00000e+00,8.01854e-01,9.99999e-01
1.640799324e+00,0.00000e+00,0.00000e+00,8.05359e-01,9.99999e-01
1.649003321e+00,4.21840e-280,5.21556e-280,8.08810e-01,9.99999e-01
1.657248337e+00,8.57499e-277,1.05576e-276,8.12207e-01,9.99999e-01
1.665534579e+00,4.64972e-195,5.70132e-195,8.15551e-01,9.99999e-01
1.673862252e+00,1.06682e-154,1.30284e-154,8.18842e-01,9.99999e-01
1.682231563e+00,6.66973e-82,8.11322e-82,8.22081e-01,9.99999e-01
1.690642721e+00,5.92609e-52,7.18080e-52,8.25268e-01,9.99999e-01
1.699095934e+00,7.19383e-25,8.68395e-25,8.28405e-01,9.99999e-01
1.707591414e+00,4.23268e-15,5.09047e-15,8.31491e-01,9.99999e-01
1.716129371e+00,1.65036e-08,1.97759e-08,8.34527e-01,9.99999e-01
1.724710018e+00,6.75190e-06,8.06182e-06,8.37514e-01,9.99999e-01
1.733333568e+00,1.01704e-03,1.21011e-03,8.40453e-01,9.99999e-01
1.742000236e+00,6.72714e-04,7.97675e-04,8.43343e-01,9.99999e-01
1.750710237e+00,2.23597e-22,2.64241e-22,8.46186e-01,9.99999e-01
1.759463788e+00,8.27544e-175,9.74747e-175,8.48982e-01,9.99999e-01
1.768261107e+00,5.82117e-172,6.83450e-172,8.51732e-01,9.99999e-01
1.777102413e+00,6.07150e-172,7.10584e-172,8.54436e-01,9.99999e-01
1.785987925e+00,3.85859e-153,4.50193e-153,8.57096e-01,9.99999e-01
1.794917864e+00,3.32245e-156,3.86461e-156,8.59710e-01,9.99999e-01
1.803892454e+00,3.44760e-141,3.99823e-141,8.62281e-01,9.99999e-01
1.812911916e+00,1.94004e-169,2.24331e-169,8.64808e-01,9.99999e-01
1.821976476e+00,2.31668e-122,2.67116e-122,8.67293e-01,9.99999e-01
1.831086358e+00,1.21998e-112,1.40270e-112,8.69736e-01,9.99999e-01
1.840241790e+00,1.13122e-66,1.29706e-66,8.72136e-01,9.99999e-01
1.849442999e+00,4.54447e-65,5.19666e-65,8.74496e-01,9.99999e-01
1.858690214e+00,2.32147e-62,2.64762e-62,8.76816e-01,9.99999e-01
1.867983665e+00,1.94458e-99,2.21202e-99,8.79096e-01,9.99999e-01
1.877323583e+00,0.00000e+00,0.00000e+00,8.81336e-01,9.99999e-01
