#,Wave/freq,Total,CO2,Rayleigh,CIA
4.000000000e-01,8.40879e-04,9.99999e-01,8.40879e-04,9.99999e-01
4.020000000e-01,9.67057e-04,9.99999e-01,9.67057e-04,9.99999e-01
4.040100000e-01,1.10917e-03,9.99999e-01,1.10917e-03,9.99999e-01
4.060300500e-01,1.26872e-03,9.99999e-01,1.26872e-03,9.99999e-01
4.080602003e-01,1.44738e-03,9.99999e-01,1.44738e-03,9.99999e-01
4.101005013e-01,1.64690e-03,9.99999e-01,1.64690e-03,9.99999e-01
4.121510038e-01,1.86915e-03,9.99999e-01,1.86915e-03,9.99999e-01
4.142117588e-01,2.11610e-03,9.99999e-01,2.11610e-03,9.99999e-01
4.162828176e-01,2.38981e-03,9.99999e-01,2.38981e-03,9.99999e-01
4.183642317e-01,2.69245e-03,9.99999e-01,2.69245e-03,9.99999e-01
4.204560528e-01,3.02627e-03,9.99999e-01,3.02627e-03,9.99999e-01
4.225583331e-01,3.39365e-03,9.99999e-01,3.39365e-03,9.99999e-01
4.246711247e-01,3.79701e-03,9.99999e-01,3.79701e-03,9.99999e-01
4.267944804e-01,4.23891e-03,9.99999e-01,4.23891e-03,9.99999e-01
4.289284528e-01,4.72195e-03,9.99999e-01,4.72195e-03,9.99999e-01
4.310730950e-01,5.24884e-03,9.99999e-01,5.24884e-03,9.99999e-01
4.332284605e-01,5.82234e-03,9.99999e-01,5.82234e-03,9.99999e-01
4.353946028e-01,6.44529e-03,9.99999e-01,6.44529e-03,9.99999e-01
4.375715758e-01,7.12058e-03,9.99999e-01,7.12058e-03,9.99999e-01
4.397594337e-01,7.85116e-03,9.99999e-01,7.85116e-03,9.99999e-01
4.419582309e-01,8.64000e-03,9.99999e-01,8.64000e-03,9.99999e-01
4.441680220e-01,9.49015e-03,9.99999e-01,9.49015e-03,9.99999e-01
4.463888621e-01,1.04046e-02,9.99999e-01,1.04046e-02,9.99999e-01
4.486208064e-01,1.13865e-02,9.99999e-01,1.13865e-02,9.99999e-01
4.508639105e-01,1.24389e-02,9.99999e-01,1.24389e-02,9.99999e-01
4.531182300e-01,1.35649e-02,9.99999e-01,1.35649e-02,9.99999e-01
4.553838212e-01,1.47674e-02,9.99999e-01,1.47674e-02,9.99999e-01
4.576607403e-01,1.60496e-02,9.99999e-01,1.60496e-02,9.99999e-01
4.599490440e-01,1.74145e-02,9.99999e-01,1.74145e-02,9.99999e-01
4.622487892e-01,1.88651e-02,9.99999e-01,1.88651e-02,9.99999e-01
4.645600332e-01,2.04041e-02,9.99999e-01,2.04041e-02,9.99999e-01
4.668828333e-01,2.20346e-02,9.99999e-01,2.20346e-02,9.99999e-01
4.692172475e-01,2.37593e-02,9.99999e-01,2.37593e-02,9.99999e-01
4.715633337e-01,2.55808e-02,9.99999e-01,2.55808e-02,9.99999e-01
4.739211504e-01,2.75019e-02,9.99999e-01,2.75019e-02,9.99999e-01
4.762907561e-01,2.95249e-02,9.99999e-01,2.95249e-02,9.99999e-01
4.786722099e-01,3.16524e-02,9.99999e-01,3.16524e-02,9.99999e-01
4.810655710e-01,3.38865e-02,9.99999e-01,3.38865e-02,9.99999e-01
4.834708988e-01,3.62295e-02,9.99999e-01,3.62295e-02,9.99999e-01
4.858882533e-01,3.86834e-02,9.99999e-01,3.86834e-02,9.99999e-01
4.883176946e-01,4.12500e-02,9.99999e-01,4.12500e-02,9.99999e-01
4.907592831e-01,4.39312e-02,9.99999e-01,4.39312e-02,9.99999e-01
4.932130795e-01,4.67285e-02,9.99999e-01,4.67285e-02,9.99999e-01
4.956791449e-01,4.96433e-02,9.99999e-01,4.96433e-02,9.99999e-01
4.981575406e-01,5.26770e-02,9.99999e-01,5.26770e-02,9.99999e-01
5.006483283e-01,5.58306e-02,9.99999e-01,5.58306e-02,9.99999e-01
5.031515699e-01,5.91050e-02,9.99999e-01,5.91050e-02,9.99999e-01
5.056673278e-01,6.25011e-02,9.99999e-01,6.25011e-02,9.99999e-01
5.081956644e-01,6.60195e-02,9.99999e-01,6.60195e-02,9.99999e-01
5.107366428e-01,6.96605e-02,9.99999e-01,6.96605e-02,9.99999e-01
5.132903260e-01,7.34244e-02,9.99999e-01,7.34244e-02,9.99999e-01
5.158567776e-01,7.73113e-02,9.99999e-01,7.73113e-02,9.99999e-01
5.184360615e-01,8.13210e-02,9.99999e-01,8.13210e-02,9.99999e-01
5.210282418e-01,8.54533e-02,9.99999e-01,8.54533e-02,9.99999e-01
5.236333830e-01,8.97077e-02,9.99999e-01,8.97077e-02,9.99999e-01
5.262515499e-01,9.40836e-02,9.99999e-01,9.40836e-02,9.99999e-01
5.288828077e-01,9.85802e-02,9.99999e-01,9.85802e-02,9.99999e-01
5.315272217e-01,1.03196e-01,9.99999e-01,1.03196e-01,9.99999e-01
5.341848578e-01,1.07931e-01,9.99999e-01,1.07931e-01,9.99999e-01
5.368557821e-01,1.12783e-01,9.99999e-01,1.12783e-01,9.99999e-01
5.395400610e-01,1.17751e-01,9.99999e-01,1.17751e-01,9.99999e-01
5.422377613e-01,1.22833e-01,9.99999e-01,1.22833e-01,9.99999e-01
5.449489501e-01,1.28028e-01,9.99999e-01,1.28028e-01,9.99999e-01
5.476736949e-01,1.33333e-01,9.99999e-01,1.33333e-01,9.99999e-01
5.504120634e-01,1.38747e-01,9.99999e-01,1.38747e-01,9.99999e-01
5.531641237e-01,1.44266e-01,9.99999e-01,1.44266e-01,9.99999e-01
5.559299443e-01,1.49890e-01,9.99999e-01,1.49890e-01,9.99999e-01
5.587095940e-01,1.55616e-01,9.99999e-01,1.55616e-01,9.99999e-01
5.615031420e-01,1.61441e-01,9.99999e-01,1.61441e-01,9.99999e-01
5.643106577e-01,1.67362e-01,9.99999e-01,1.67362e-01,9.99999e-01
5.671322110e-01,1.73377e-01,9.99999e-01,1.73377e-01,9.99999e-01
5.699678720e-01,1.79483e-01,9.99999e-01,1.79483e-01,9.99999e-01
5.728177114e-01,1.85677e-01,9.99999e-01,1.85677e-01,9.99999e-01
5.756818000e-01,1.91956e-01,9.99999e-01,1.91956e-01,9.99999e-01
5.785602090e-01,1.98317e-01,9.99999e-01,1.98317e-01,9.99999e-01
5.814530100e-01,2.04757e-01,9.99999e-01,2.04757e-01,9.99999e-01
5.843602750e-01,2.11273e-01,9.99999e-01,2.11273e-01,9.99999e-01
5.872820764e-01,2.17861e-01,9.99999e-01,2.17861e-01,9.99999e-01
5.902184868e-01,2.24519e-01,9.99999e-01,2.24519e-01,9.99999e-01
5.931695792e-01,2.31242e-01,9.99999e-01,2.31242e-01,9.99999e-01
5.961354271e-01,2.38028e-01,9.99999e-01,2.38028e-01,9.99999e-01
5.991161043e-01,2.44873e-01,9.99999e-01,2.44873e-01,9.99999e-01
6.021116848e-01,2.51774e-01,9.99999e-01,2.51774e-01,9.99999e-01
6.051222432e-01,2.58728e-01,9.99999e-01,2.58728e-01,9.99999e-01
6.081478544e-01,2.65730e-01,9.99999e-01,2.65730e-01,9.99999e-01
6.111885937e-01,2.72778e-01,9.99999e-01,2.72778e-01,9.99999e-01
6.142445367e-01,2.79868e-01,9.99999e-01,2.79868e-01,9.99999e-01
6.173157594e-01,2.86997e-01,9.99999e-01,2.86997e-01,9.99999e-01
6.204023382e-01,2.94162e-01,9.99999e-01,2.94162e-01,9.99999e-01
6.235043498e-01,3.01358e-01,9.99999e-01,3.01358e-01,9.99999e-01
6.266218716e-01,3.08583e-01,9.99999e-01,3.08583e-01,9.99999e-01
6.297549810e-01,3.15834e-01,9.99999e-01,3.15834e-01,9.99999e-01
6.329037559e-01,3.23106e-01,9.99999e-01,3.23106e-01,9.99999e-01
6.360682746e-01,3.30398e-01,9.99999e-01,3.30398e-01,9.99999e-01
6.392486160e-01,3.37705e-01,9.99999e-01,3.37705e-01,9.99999e-01
6.424448591e-01,3.45024e-01,9.99999e-01,3.45024e-01,9.99999e-01
6.456570834e-01,3.52353e-01,9.99999e-01,3.52353e-01,9.99999e-01
6.488853688e-01,3.59688e-01,9.99999e-01,3.59688e-01,9.99999e-01
6.521297956e-01,3.67027e-01,9.99999e-01,3.67027e-01,9.99999e-01
6.553904446e-01,3.74366e-01,9.99999e-01,3.74366e-01,9.99999e-01
6.586673968e-01,3.81702e-01,9.99999e-01,3.81702e-01,9.99999e-01
6.619607338e-01,3.89033e-01,9.99999e-01,3.89033e-01,9.99999e-01
6.652705375e-01,3.96356e-01,9.99999e-01,3.96356e-01,9.99999e-01
6.685968902e-01,4.03668e-01,9.99999e-01,4.03668e-01,9.99999e-01
6.719398746e-01,4.10966e-01,9.99999e-01,4.10966e-01,9.99999e-01
6.752995740e-01,4.18249e-01,9.99999e-01,4.18249e-01,9.99999e-01
6.786760719e-01,4.25512e-01,9.99999e-01,4.25512e-01,9.99999e-01
6.820694522e-01,4.32755e-01,9.99999e-01,4.32755e-01,9.99999e-01
6.854797995e-01,4.39974e-01,9.99999e-01,4.39974e-01,9.99999e-01
6.889071985e-01,4.47168e-01,9.99999e-01,4.47168e-01,9.99999e-01
6.923517345e-01,4.54333e-01,9.99999e-01,4.54333e-01,9.99999e-01
6.958134932e-01,4.61469e-01,9.99999e-01,4.61469e-01,9.99999e-01
6.992925606e-01,4.68572e-01,9.99999e-01,4.68572e-01,9.99999e-01
7.027890234e-01,4.75641e-01,9.99999e-01,4.75641e-01,9.99999e-01
7.063029686e-01,4.82674e-01,9.99999e-01,4.82674e-01,9.99999e-01
7.098344834e-01,4.89669e-01,9.99999e-01,4.89669e-01,9.99999e-01
7.133836558e-01,4.96624e-01,9.99999e-01,4.96624e-01,9.99999e-01
7.169505741e-01,5.03537e-01,9.99999e-01,5.03537e-01,9.99999e-01
7.205353270e-01,5.10408e-01,9.99999e-01,5.10408e-01,9.99999e-01
7.241380036e-01,5.17233e-01,9.99999e-01,5.17233e-01,9.99999e-01
7.277586936e-01,5.24013e-01,9.99999e-01,5.24013e-01,9.99999e-01
7.313974871e-01,5.30745e-01,9.99999e-01,5.30745e-01,9.99999e-01
7.350544745e-01,5.37427e-01,9.99999e-01,5.37427e-01,9.99999e-01
7.387297469e-01,5.44060e-01,9.99999e-01,5.44060e-01,9.99999e-01
7.424233956e-01,5.50641e-01,9.99999e-01,5.50641e-01,9.99999e-01
7.461355126e-01,5.57169e-01,9.99999e-01,5.57169e-01,9.99999e-01
7.498661902e-01,5.63643e-01,9.99999e-01,5.63643e-01,9.99999e-01
7.536155211e-01,5.70062e-01,9.99999e-01,5.70062e-01,9.99999e-01
7.573835987e-01,5.76426e-01,9.99999e-01,5.76426e-01,9.99999e-01
7.611705167e-01,5.82733e-01,9.99999e-01,5.82733e-01,9.99999e-01
7.649763693e-01,5.88982e-01,9.99999e-01,5.88982e-01,9.99999e-01
7.688012511e-01,5.95173e-01,9.99999e-01,5.95173e-01,9.99999e-01
7.726452574e-01,6.01304e-01,9.99999e-01,6.01304e-01,9.99999e-01
7.765084837e-01,6.06413e-01,9.98413e-01,6.07376e-01,9.99999e-01
7.803910261e-01,5.50672e-01,8.97754e-01,6.13388e-01,9.99999e-01
7.842929812e-01,5.73008e-01,9.25193e-01,6.19338e-01,9.99999e-01
7.882144461e-01,5.73683e-01,9.17558e-01,6.25227e-01,9.99999e-01
7.921555184e-01,5.96036e-01,9.44508e-01,6.31054e-01,9.99999e-01
7.961162960e-01,6.16207e-01,9.67632e-01,6.36819e-01,9.99999e-01
8.000968774e-01,6.31736e-01,9.83214e-01,6.42520e-01,9.99999e-01
8.040973618e-01,6.43158e-01,9.92283e-01,6.48159e-01,9.99999e-01
8.081178486e-01,6.51740e-01,9.96949e-01,6.53734e-01,9.99999e-01
8.121584379e-01,6.58712e-01,9.99188e-01,6.59246e-01,9.99999e-01
8.162192301e-01,6.64658e-01,9.99944e-01,6.64694e-01,9.99999e-01
8.203003262e-01,6.70078e-01,9.99999e-01,6.70078e-01,9.99999e-01
8.244018279e-01,6.75398e-01,9.99999e-01,6.75398e-01,9.99999e-01
8.285238370e-01,6.80654e-01,9.99999e-01,6.80654e-01,9.99999e-01
8.326664562e-01,6.85846e-01,9.99999e-01,6.85846e-01,9.99999e-01
8.368297885e-01,6.90974e-01,9.99999e-01,6.90974e-01,9.99999e-01
8.410139374e-01,6.96037e-01,9.99999e-01,6.96037e-01,9.99999e-01
8.452190071e-01,7.01037e-01,9.99999e-01,7.01037e-01,9.99999e-01
8.494451021e-01,7.05973e-01,9.99999e-01,7.05973e-01,9.99999e-01
8.536923276e-01,7.10845e-01,9.99999e-01,7.10845e-01,9.99999e-01
8.579607893e-01,7.15653e-01,9.99999e-01,7.15653e-01,9.99999e-01
8.622505932e-01,7.19928e-01,9.99346e-01,7.20398e-01,9.99999e-01
8.665618462e-01,5.45973e-01,7.52982e-01,7.25080e-01,9.99999e-01
8.708946554e-01,5.53395e-01,7.58388e-01,7.29699e-01,9.99999e-01
8.752491287e-01,6.21514e-01,8.46455e-01,7.34255e-01,9.99999e-01
8.796253743e-01,6.81425e-01,9.22403e-01,7.38749e-01,9.99999e-01
8.840235012e-01,7.17048e-01,9.64836e-01,7.43180e-01,9.99999e-01
8.884436187e-01,7.37049e-01,9.85951e-01,7.47550e-01,9.99999e-01
8.928858368e-01,7.48650e-01,9.95731e-01,7.51859e-01,9.99999e-01
8.973502660e-01,7.55483e-01,9.99174e-01,7.56106e-01,9.99999e-01
9.018370173e-01,7.59811e-01,9.99364e-01,7.60293e-01,9.99999e-01
9.063462024e-01,7.51729e-01,9.83397e-01,7.64420e-01,9.99999e-01
9.108779334e-01,7.62767e-01,9.92556e-01,7.68487e-01,9.99999e-01
9.154323231e-01,7.62636e-01,9.87236e-01,7.72495e-01,9.99999e-01
9.200094847e-01,7.12357e-01,9.17461e-01,7.76443e-01,9.99999e-01
9.246095321e-01,7.36649e-01,9.44017e-01,7.80334e-01,9.99999e-01
9.292325798e-01,7.34916e-01,9.37193e-01,7.84166e-01,9.99999e-01
9.338787427e-01,7.47505e-01,9.48680e-01,7.87941e-01,9.99999e-01
9.385481364e-01,7.69226e-01,9.71662e-01,7.91659e-01,9.99999e-01
9.432408771e-01,7.81579e-01,9.82721e-01,7.95321e-01,9.99999e-01
9.479570815e-01,7.91509e-01,9.90715e-01,7.98927e-01,9.99999e-01
9.526968669e-01,7.99260e-01,9.95990e-01,8.02477e-01,9.99999e-01
9.574603512e-01,8.04843e-01,9.98597e-01,8.05973e-01,9.99999e-01
9.622476530e-01,8.09047e-01,9.99546e-01,8.09414e-01,9.99999e-01
9.670588912e-01,8.12745e-01,9.99929e-01,8.12802e-01,9.99999e-01
9.718941857e-01,8.16136e-01,9.99999e-01,8.16136e-01,9.99999e-01
9.767536566e-01,8.19418e-01,9.99999e-01,8.19418e-01,9.99999e-01
9.816374249e-01,8.22648e-01,9.99999e-01,8.22648e-01,9.99999e-01
9.865456120e-01,8.25826e-01,9.99999e-01,8.25826e-01,9.99999e-01
9.914783401e-01,8.28954e-01,9.99999e-01,8.28954e-01,9.99999e-01
9.964357318e-01,8.32031e-01,9.99999e-01,8.32031e-01,9.99999e-01
1.001417910e+00,8.35059e-01,9.99999e-01,8.35059e-01,9.99999e-01
1.006425000e+00,8.38037e-01,9.99999e-01,8.38037e-01,9.99999e-01
1.011457125e+00,8.40967e-01,9.99999e-01,8.40967e-01,9.99999e-01
1.016514411e+00,8.43849e-01,9.99998e-01,8.43849e-01,9.99999e-01
1.021596983e+00,8.46109e-01,9.99320e-01,8.46684e-01,9.99999e-01
1.026704968e+00,8.44840e-01,9.94546e-01,8.49472e-01,9.99999e-01
1.031838492e+00,4.76990e-01,5.59706e-01,8.52214e-01,9.99999e-01
1.036997685e+00,1.16404e-01,1.36159e-01,8.54910e-01,9.99999e-01
1.042182673e+00,2.82420e-01,3.29330e-01,8.57561e-01,9.99999e-01
1.047393587e+00,3.76849e-02,4.38110e-02,8.60168e-01,9.99999e-01
1.052630555e+00,1.58792e-02,1.84057e-02,8.62731e-01,9.99999e-01
1.057893707e+00,4.09326e-02,4.73071e-02,8.65251e-01,9.99999e-01
1.063183176e+00,1.35134e-01,1.55733e-01,8.67728e-01,9.99999e-01
1.068499092e+00,2.60945e-01,2.99880e-01,8.70163e-01,9.99999e-01
1.073841587e+00,3.69858e-01,4.23878e-01,8.72557e-01,9.99999e-01
1.079210795e+00,5.55673e-01,6.35121e-01,8.74909e-01,9.99999e-01
1.084606849e+00,6.78773e-01,7.73775e-01,8.77222e-01,9.99999e-01
1.090029883e+00,7.75884e-01,8.82193e-01,8.79495e-01,9.99999e-01
1.095480033e+00,8.29120e-01,9.40334e-01,8.81728e-01,9.99999e-01
1.100957433e+00,8.61136e-01,9.74220e-01,8.83923e-01,9.99999e-01
1.106462220e+00,8.76626e-01,9.89330e-01,8.86080e-01,9.99999e-01
1.111994531e+00,8.85437e-01,9.96889e-01,8.88199e-01,9.99999e-01
1.117554504e+00,8.89827e-01,9.99488e-01,8.90282e-01,9.99999e-01
1.123142276e+00,8.92325e-01,9.99996e-01,8.92328e-01,9.99999e-01
1.128757988e+00,8.94338e-01,9.99999e-01,8.94338e-01,9.99999e-01
1.134401778e+00,8.96313e-01,9.99999e-01,8.96313e-01,9.99999e-01
1.140073787e+00,8.98253e-01,9.99999e-01,8.98253e-01,9.99999e-01
1.145774156e+00,9.00159e-01,9.99999e-01,9.00159e-01,9.99999e-01
1.151503026e+00,9.02031e-01,9.99999e-01,9.02031e-01,9.99999e-01
1.157260541e+00,9.03870e-01,9.99999e-01,9.03870e-01,9.99999e-01
1.163046844e+00,9.05676e-01,9.99999e-01,9.05676e-01,9.99999e-01
1.168862078e+00,9.07450e-01,9.99999e-01,9.07450e-01,9.99999e-01
1.174706389e+00,9.09193e-01,9.99999e-01,9.09193e-01,9.99999e-01
1.180579921e+00,9.10904e-01,9.99999e-01,9.10904e-01,9.99999e-01
1.186482820e+00,9.11764e-01,9.99100e-01,9.12584e-01,9.99999e-01
1.192415234e+00,8.89068e-01,9.72471e-01,9.14235e-01,9.99999e-01
1.198377311e+00,8.40727e-02,9.17968e-02,9.15855e-01,9.99999e-01
1.204369197e+00,1.13081e-36,1.23256e-36,9.17447e-01,9.99999e-01
1.210391043e+00,3.21616e-28,3.49959e-28,9.19010e-01,9.99999e-01
1.216442998e+00,7.22152e-25,7.84483e-25,9.20544e-01,9.99999e-01
1.222525213e+00,1.37919e-19,1.49579e-19,9.22051e-01,9.99999e-01
1.228637839e+00,2.67896e-15,2.90078e-15,9.23530e-01,9.99999e-01
1.234781029e+00,1.09405e-10,1.18278e-10,9.24982e-01,9.99999e-01
1.240954934e+00,9.04227e-07,9.76056e-07,9.26408e-01,9.99999e-01
1.247159708e+00,7.40380e-04,7.97988e-04,9.27808e-01,9.99999e-01
1.253395507e+00,1.01055e-02,1.08757e-02,9.29182e-01,9.99999e-01
1.259662485e+00,7.76225e-02,8.34173e-02,9.30531e-01,9.99999e-01
1.265960797e+00,2.82143e-01,3.02775e-01,9.31855e-01,9.99999e-01
1.272290601e+00,4.84719e-01,5.19440e-01,9.33155e-01,9.99999e-01
1.278652054e+00,1.10836e-01,1.18613e-01,9.34431e-01,9.99999e-01
1.285045314e+00,4.97226e-04,5.31403e-04,9.35684e-01,9.99999e-01
1.291470541e+00,1.35473e-03,1.44595e-03,9.36913e-01,9.99999e-01
1.297927893e+00,1.45511e-01,1.55109e-01,9.38120e-01,9.99999e-01
1.304417533e+00,1.74154e-01,1.85407e-01,9.39304e-01,9.99999e-01
1.310939621e+00,3.94414e-03,4.19381e-03,9.40467e-01,9.99999e-01
1.317494319e+00,4.68004e-10,4.97026e-10,9.41608e-01,9.99999e-01
1.324081790e+00,6.91149e-05,7.33137e-05,9.42727e-01,9.99999e-01
1.330702199e+00,8.82914e-05,9.35462e-05,9.43826e-01,9.99999e-01
1.337355710e+00,1.74574e-04,1.84753e-04,9.44905e-01,9.99999e-01
1.344042489e+00,4.02779e-05,4.25786e-05,9.45963e-01,9.99999e-01
1.350762701e+00,7.62159e-04,8.04812e-04,9.47002e-01,9.99999e-01
1.357516515e+00,1.27850e-02,1.34860e-02,9.48021e-01,9.99999e-01
1.364304097e+00,7.31588e-02,7.70887e-02,9.49021e-01,9.99999e-01
1.371125618e+00,1.83761e-01,1.93432e-01,9.50002e-01,9.99999e-01
1.377981246e+00,3.33086e-01,3.50261e-01,9.50965e-01,9.99999e-01
1.384871152e+00,3.84897e-01,4.04342e-01,9.51910e-01,9.99999e-01
1.391795508e+00,5.33452e-01,5.59856e-01,9.52837e-01,9.99999e-01
1.398754485e+00,6.03491e-01,6.32757e-01,9.53747e-01,9.99999e-01
1.405748258e+00,7.19248e-01,7.53423e-01,9.54639e-01,9.99999e-01
1.412776999e+00,7.87818e-01,8.24495e-01,9.55515e-01,9.99999e-01
1.419840884e+00,2.63436e-01,2.75453e-01,9.56374e-01,9.99999e-01
1.426940089e+00,6.62131e-61,6.91724e-61,9.57217e-01,9.99999e-01
1.434074789e+00,0.00000e+00,0.00000e+00,9.58044e-01,9.99999e-01
1.441245163e+00,0.00000e+00,0.00000e+00,9.58856e-01,9.99999e-01
1.448451389e+00,7.71683e-266,8.04128e-266,9.59652e-01,9.99999e-01
1.455693646e+00,1.54123e-141,1.60472e-141,9.60433e-01,9.99999e-01
1.462972114e+00,6.84469e-66,7.12099e-66,9.61199e-01,9.99999e-01
1.470286975e+00,9.21122e-44,9.57555e-44,9.61951e-01,9.99999e-01
1.477638409e+00,7.70024e-22,7.99868e-22,9.62688e-01,9.99999e-01
1.485026601e+00,8.78562e-17,9.11927e-17,9.63411e-01,9.99999e-01
1.492451734e+00,8.11456e-10,8.41653e-10,9.64121e-01,9.99999e-01
1.499913993e+00,2.65481e-06,2.75161e-06,9.64817e-01,9.99999e-01
1.507413563e+00,9.01291e-07,9.33496e-07,9.65500e-01,9.99999e-01
1.514950631e+00,2.09485e-13,2.16820e-13,9.66169e-01,9.99999e-01
1.522525384e+00,4.46856e-34,4.62188e-34,9.66826e-01,9.99999e-01
1.530138011e+00,1.74460e-37,1.80325e-37,9.67471e-01,9.99999e-01
1.537788701e+00,2.95561e-17,3.05298e-17,9.68103e-01,9.99999e-01
1.545477645e+00,8.02570e-07,8.28482e-07,9.68723e-01,9.99999e-01
1.553205033e+00,3.00762e-06,3.10277e-06,9.69331e-01,9.99999e-01
1.560971058e+00,8.83243e-17,9.10627e-17,9.69928e-01,9.99999e-01
1.568775913e+00,2.30812e-289,2.37824e-289,9.70513e-01,9.99999e-01
1.576619793e+00,3.67198e-250,3.78130e-250,9.71087e-01,9.99999e-01
1.584502892e+00,1.22392e-110,1.25963e-110,9.71650e-01,9.99999e-01
1.592425406e+00,1.21594e-110,1.25071e-110,9.72202e-01,9.99999e-01
1.600387533e+00,9.08853e-298,9.34319e-298,9.72743e-01,9.99999e-01
1.608389471e+00,0.00000e+00,0.00000e+00,9.73275e-01,9.99999e-01
1.616431418e+00,6.89855e-189,7.08418e-189,9.73795e-01,9.99999e-01
1.624513575e+00,8.11477e-115,8.32876e-115,9.74306e-01,9.99999e-01
1.632636143e+00,5.20433e-57,5.33882e-57,9.74807e-01,9.99999e-01
1.640799324e+00,2.76623e-43,2.83628e-43,9.75299e-01,9.99999e-01
1.649003321e+00,2.34038e-34,2.39847e-34,9.75781e-01,9.99999e-01
1.657248337e+00,1.00985e-33,1.03442e-33,9.76253e-01,9.99999e-01
1.665534579e+00,1.57168e-24,1.60914e-24,9.76717e-01,9.99999e-01
1.673862252e+00,8.61168e-20,8.81286e-20,9.77172e-01,9.99999e-01
1.682231563e+00,1.98128e-11,2.02664e-11,9.77617e-01,9.99999e-01
1.690642721e+00,1.56508e-07,1.60020e-07,9.78055e-01,9.99999e-01
1.699095934e+00,1.70415e-04,1.74162e-04,9.78483e-01,9.99999e-01
1.707591414e+00,7.91391e-03,8.08446e-03,9.78904e-01,9.99999e-01
1.716129371e+00,7.91667e-02,8.08387e-02,9.79316e-01,9.99999e-01
1.724710018e+00,2.15884e-01,2.20352e-01,9.79720e-01,9.99999e-01
1.733333568e+00,3.97286e-01,4.05345e-01,9.80117e-01,9.99999e-01
1.742000236e+00,1.54984e-01,1.58065e-01,9.80506e-01,9.99999e-01
1.750710237e+00,1.41567e-04,1.44325e-04,9.80887e-01,9.99999e-01
1.759463788e+00,5.21788e-22,5.31752e-22,9.81261e-01,9.99999e-01
1.768261107e+00,7.82669e-22,7.97316e-22,9.81628e-01,9.99999e-01
1.777102413e+00,1.68219e-21,1.71304e-21,9.81987e-01,9.99999e-01
1.785987925e+00,3.39080e-19,3.45175e-19,9.82340e-01,9.99999e-01
1.794917864e+00,1.18924e-19,1.21019e-19,9.82686e-01,9.99999e-01
1.803892454e+00,7.84085e-18,7.97624e-18,9.83025e-01,9.99999e-01
1.812911916e+00,4.30657e-21,4.37946e-21,9.83357e-01,9.99999e-01
1.821976476e+00,4.18905e-16,4.25853e-16,9.83683e-01,9.99999e-01
1.831086358e+00,2.89935e-14,2.94648e-14,9.84003e-01,9.99999e-01
1.840241790e+00,1.08041e-09,1.09762e-09,9.84317e-01,9.99999e-01
1.849442999e+00,1.65427e-08,1.68010e-08,9.84624e-01,9.99999e-01
1.858690214e+00,2.26903e-08,2.30375e-08,9.84925e-01,9.99999e-01
1.867983665e+00,1.75994e-13,1.78634e-13,9.85221e-01,9.99999e-01
1.877323583e+00,5.76789e-40,5.85269e-40,9.85511e-01,9.99999e-01
