#,Wave/freq,Total,CO2,Rayleigh,CIA
4.000000000e-01,6.89579e-03,9.99999e-01,6.89579e-03,9.99999e-01
4.020000000e-01,7.60893e-03,9.99999e-01,7.60893e-03,9.99999e-01
4.040100000e-01,8.37862e-03,9.99999e-01,8.37862e-03,9.99999e-01
4.060300500e-01,9.20863e-03,9.99999e-01,9.20863e-03,9.99999e-01
4.080602003e-01,1.01020e-02,9.99999e-01,1.01020e-02,9.99999e-01
4.101005013e-01,1.10618e-02,9.99999e-01,1.10618e-02,9.99999e-01
4.121510038e-01,1.20911e-02,9.99999e-01,1.20911e-02,9.99999e-01
4.142117588e-01,1.31929e-02,9.99999e-01,1.31929e-02,9.99999e-01
4.162828176e-01,1.43704e-02,9.99999e-01,1.43704e-02,9.99999e-01
4.183642317e-01,1.56265e-02,9.99999e-01,1.56265e-02,9.99999e-01
4.204560528e-01,1.69644e-02,9.99999e-01,1.69644e-02,9.99999e-01
4.225583331e-01,1.83869e-02,9.99999e-01,1.83869e-02,9.99999e-01
4.246711247e-01,1.98971e-02,9.99999e-01,1.98971e-02,9.99999e-01
4.267944804e-01,2.14977e-02,9.99999e-01,2.14977e-02,9.99999e-01
4.289284528e-01,2.31917e-02,9.99999e-01,2.31917e-02,9.99999e-01
4.310730950e-01,2.49816e-02,9.99999e-01,2.49816e-02,9.99999e-01
4.332284605e-01,2.68703e-02,9.99999e-01,2.68703e-02,9.99999e-01
4.353946028e-01,2.88601e-02,9.99999e-01,2.88601e-02,9.99999e-01
4.375715758e-01,3.09536e-02,9.99999e-01,3.09536e-02,9.99999e-01
4.397594337e-01,3.31530e-02,9.99999e-01,3.31530e-02,9.99999e-01
4.419582309e-01,3.54606e-02,9.99999e-01,3.54606e-02,9.99999e-01
4.441680220e-01,3.78785e-02,9.99999e-01,3.78785e-02,9.99999e-01
4.463888621e-01,4.04085e-02,9.99999e-01,4.04085e-02,9.99999e-01
4.486208064e-01,4.30525e-02,9.99999e-01,4.30525e-02,9.99999e-01
4.508639105e-01,4.58121e-02,9.99999e-01,4.58121e-02,9.99999e-01
4.531182300e-01,4.86888e-02,9.99999e-01,4.86888e-02,9.99999e-01
4.553838212e-01,5.16839e-02,9.99999e-01,5.16839e-02,9.99999e-01
4.576607403e-01,5.47987e-02,9.99999e-01,5.47987e-02,9.99999e-01
4.599490440e-01,5.80340e-02,9.99999e-01,5.80340e-02,9.99999e-01
4.622487892e-01,6.13907e-02,9.99999e-01,6.13907e-02,9.99999e-01
4.645600332e-01,6.48695e-02,9.99999e-01,6.48695e-02,9.99999e-01
4.668828333e-01,6.84709e-02,9.99999e-01,6.84709e-02,9.99999e-01
4.692172475e-01,7.21950e-02,9.99999e-01,7.21950e-02,9.99999e-01
4.715633337e-01,7.60422e-02,9.99999e-01,7.60422e-02,9.99999e-01
4.739211504e-01,8.00123e-02,9.99999e-01,8.00123e-02,9.99999e-01
4.762907561e-01,8.41050e-02,9.99999e-01,8.41050e-02,9.99999e-01
4.786722099e-01,8.83201e-02,9.99999e-01,8.83201e-02,9.99999e-01
4.810655710e-01,9.26568e-02,9.99999e-01,9.26568e-02,9.99999e-01
4.834708988e-01,9.71145e-02,9.99999e-01,9.71145e-02,9.99999e-01
4.858882533e-01,1.01692e-01,9.99999e-01,1.01692e-01,9.99999e-01
4.883176946e-01,1.06389e-01,9.99999e-01,1.06389e-01,9.99999e-01
4.907592831e-01,1.11203e-01,9.99999e-01,1.11203e-01,9.99999e-01
4.932130795e-01,1.16134e-01,9.99999e-01,1.16134e-01,9.99999e-01
4.956791449e-01,1.21179e-01,9.99999e-01,1.21179e-01,9.99999e-01
4.981575406e-01,1.26338e-01,9.99999e-01,1.26338e-01,9.99999e-01
5.006483283e-01,1.31607e-01,9.99999e-01,1.31607e-01,9.99999e-01
5.031515699e-01,1.36986e-01,9.99999e-01,1.36986e-01,9.99999e-01
5.056673278e-01,1.42472e-01,9.99999e-01,1.42472e-01,9.99999e-01
5.081956644e-01,1.48062e-01,9.99999e-01,1.48062e-01,9.99999e-01
5.107366428e-01,1.53756e-01,9.99999e-01,1.53756e-01,9.99999e-01
5.132903260e-01,1.59549e-01,9.99999e-01,1.59549e-01,9.99999e-01
5.158567776e-01,1.65439e-01,9.99999e-01,1.65439e-01,9.99999e-01
5.184360615e-01,1.71424e-01,9.99999e-01,1.71424e-01,9.99999e-01
5.210282418e-01,1.77501e-01,9.99999e-01,1.77501e-01,9.99999e-01
5.236333830e-01,1.83667e-01,9.99999e-01,1.83667e-01,9.99999e-01
5.262515499e-01,1.89919e-01,9.99999e-01,1.89919e-01,9.99999e-01
5.288828077e-01,1.96254e-01,9.99999e-01,1.96254e-01,9.99999e-01
5.315272217e-01,2.02669e-01,9.99999e-01,2.02669e-01,9.99999e-01
5.341848578e-01,2.09160e-01,9.99999e-01,2.09160e-01,9.99999e-01
5.368557821e-01,2.15725e-01,9.99999e-01,2.15725e-01,9.99999e-01
5.395400610e-01,2.22361e-01,9.99999e-01,2.22361e-01,9.99999e-01
5.422377613e-01,2.29063e-01,9.99999e-01,2.29063e-01,9.99999e-01
5.449489501e-01,2.35829e-01,9.99999e-01,2.35829e-01,9.99999e-01
5.476736949e-01,2.42656e-01,9.99999e-01,2.42656e-01,9.99999e-01
5.504120634e-01,2.49539e-01,9.99999e-01,2.49539e-01,9.99999e-01
5.531641237e-01,2.56476e-01,9.99999e-01,2.56476e-01,9.99999e-01
5.559299443e-01,2.63463e-01,9.99999e-01,2.63463e-01,9.99999e-01
5.587095940e-01,2.70497e-01,9.99999e-01,2.70497e-01,9.99999e-01
5.615031420e-01,2.77573e-01,9.99999e-01,2.77573e-01,9.99999e-01
5.643106577e-01,2.84690e-01,9.99999e-01,2.84690e-01,9.99999e-01
5.671322110e-01,2.91844e-01,9.99999e-01,2.91844e-01,9.99999e-01
5.699678720e-01,2.99030e-01,9.99999e-01,2.99030e-01,9.99999e-01
5.728177114e-01,3.06246e-01,9.99999e-01,3.06246e-01,9.99999e-01
5.756818000e-01,3.13489e-01,9.99999e-01,3.13489e-01,9.99999e-01
5.785602090e-01,3.20755e-01,9.99999e-01,3.20755e-01,9.99999e-01
5.814530100e-01,3.28040e-01,9.99999e-01,3.28040e-01,9.99999e-01
5.843602750e-01,3.35343e-01,9.99999e-01,3.35343e-01,9.99999e-01
5.872820764e-01,3.42659e-01,9.99999e-01,3.42659e-01,9.99999e-01
5.902184868e-01,3.49985e-01,9.99999e-01,3.49985e-01,9.99999e-01
5.931695792e-01,3.57318e-01,9.99999e-01,3.57318e-01,9.99999e-01
5.961354271e-01,3.64656e-01,9.99999e-01,3.64656e-01,9.99999e-01
5.991161043e-01,3.71995e-01,9.99999e-01,3.71995e-01,9.99999e-01
6.021116848e-01,3.79333e-01,9.99999e-01,3.79333e-01,9.99999e-01
6.051222432e-01,3.86666e-01,9.99999e-01,3.86666e-01,9.99999e-01
6.081478544e-01,3.93992e-01,9.99999e-01,3.93992e-01,9.99999e-01
6.111885937e-01,4.01307e-01,9.99999e-01,4.01307e-01,9.99999e-01
6.142445367e-01,4.08610e-01,9.99999e-01,4.08610e-01,9.99999e-01
6.173157594e-01,4.15898e-01,9.99999e-01,4.15898e-01,9.99999e-01
6.204023382e-01,4.23168e-01,9.99999e-01,4.23168e-01,9.99999e-01
6.235043498e-01,4.30418e-01,9.99999e-01,4.30418e-01,9.99999e-01
6.266218716e-01,4.37645e-01,9.99999e-01,4.37645e-01,9.99999e-01
6.297549810e-01,4.44847e-01,9.99999e-01,4.44847e-01,9.99999e-01
6.329037559e-01,4.52022e-01,9.99999e-01,4.52022e-01,9.99999e-01
6.360682746e-01,4.59167e-01,9.99999e-01,4.59167e-01,9.99999e-01
6.392486160e-01,4.66281e-01,9.99999e-01,4.66281e-01,9.99999e-01
6.424448591e-01,4.73361e-01,9.99999e-01,4.73361e-01,9.99999e-01
6.456570834e-01,4.80406e-01,9.99999e-01,4.80406e-01,9.99999e-01
6.488853688e-01,4.87413e-01,9.99999e-01,4.87413e-01,9.99999e-01
6.521297956e-01,4.94381e-01,9.99999e-01,4.94381e-01,9.99999e-01
6.553904446e-01,5.01309e-01,9.99999e-01,5.01309e-01,9.99999e-01
6.586673968e-01,5.08193e-01,9.99999e-01,5.08193e-01,9.99999e-01
6.619607338e-01,5.15033e-01,9.99999e-01,5.15033e-01,9.99999e-01
6.652705375e-01,5.21828e-01,9.99999e-01,5.21828e-01,9.99999e-01
6.685968902e-01,5.28575e-01,9.99999e-01,5.28575e-01,9.99999e-01
6.719398746e-01,5.35274e-01,9.99999e-01,5.35274e-01,9.99999e-01
6.752995740e-01,5.41923e-01,9.99999e-01,5.41923e-01,9.99999e-01
6.786760719e-01,5.48521e-01,9.99999e-01,5.48521e-01,9.99999e-01
6.820694522e-01,5.55066e-01,9.99999e-01,5.55066e-01,9.99999e-01
6.854797995e-01,5.61558e-01,9.99999e-01,5.61558e-01,9.99999e-01
6.889071985e-01,5.67995e-01,9.99999e-01,5.67995e-01,9.99999e-01
6.923517345e-01,5.74377e-01,9.99999e-01,5.74377e-01,9.99999e-01
6.958134932e-01,5.80702e-01,9.99999e-01,5.80702e-01,9.99999e-01
6.992925606e-01,5.86970e-01,9.99999e-01,5.86970e-01,9.99999e-01
7.027890234e-01,5.93179e-01,9.99999e-01,5.93179e-01,9.99999e-01
7.063029686e-01,5.99330e-01,9.99999e-01,5.99330e-01,9.99999e-01
7.098344834e-01,6.05421e-01,9.99999e-01,6.05421e-01,9.99999e-01
7.133836558e-01,6.11452e-01,9.99999e-01,6.11452e-01,9.99999e-01
7.169505741e-01,6.17423e-01,9.99999e-01,6.17423e-01,9.99999e-01
7.205353270e-01,6.23331e-01,9.99999e-01,6.23331e-01,9.99999e-01
7.241380036e-01,6.29178e-01,9.99999e-01,6.29178e-01,9.99999e-01
7.277586936e-01,6.34963e-01,9.99999e-01,6.34963e-01,9.99999e-01
7.313974871e-01,6.40685e-01,9.99999e-01,6.40685e-01,9.99999e-01
7.350544745e-01,6.46344e-01,9.99999e-01,6.46344e-01,9.99999e-01
7.387297469e-01,6.51940e-01,9.99999e-01,6.51940e-01,9.99999e-01
7.424233956e-01,6.57473e-01,9.99999e-01,6.57473e-01,9.99999e-01
7.461355126e-01,6.62941e-01,9.99999e-01,6.62941e-01,9.99999e-01
7.498661902e-01,6.68346e-01,9.99999e-01,6.68346e-01,9.99999e-01
7.536155211e-01,6.73687e-01,9.99999e-01,6.73687e-01,9.99999e-01
7.573835987e-01,6.78963e-01,9.99999e-01,6.78963e-01,9.99999e-01
7.611705167e-01,6.84176e-01,9.99999e-01,6.84176e-01,9.99999e-01
7.649763693e-01,6.89324e-01,9.99999e-01,6.89324e-01,9.99999e-01
7.688012511e-01,6.94409e-01,9.99999e-01,6.94409e-01,9.99999e-01
7.726452574e-01,6.99429e-01,9.99999e-01,6.99429e-01,9.99999e-01
7.765084837e-01,7.04385e-01,9.99999e-01,7.04385e-01,9.99999e-01
7.803910261e-01,6.98024e-01,9.84132e-01,7.09278e-01,9.99999e-01
7.842929812e-01,6.62798e-01,9.28149e-01,7.14107e-01,9.99999e-01
7.882144461e-01,6.64161e-01,9.23892e-01,7.18872e-01,9.99999e-01
7.921555184e-01,6.91471e-01,9.55631e-01,7.23574e-01,9.99999e-01
7.961162960e-01,7.06190e-01,9.69756e-01,7.28213e-01,9.99999e-01
8.000968774e-01,7.20739e-01,9.83553e-01,7.32790e-01,9.99999e-01
8.040973618e-01,7.30952e-01,9.91384e-01,7.37304e-01,9.99999e-01
8.081178486e-01,7.38839e-01,9.96068e-01,7.41755e-01,9.99999e-01
8.121584379e-01,7.45225e-01,9.98766e-01,7.46145e-01,9.99999e-01
8.162192301e-01,7.50269e-01,9.99726e-01,7.50474e-01,9.99999e-01
8.203003262e-01,7.54737e-01,9.99994e-01,7.54741e-01,9.99999e-01
8.244018279e-01,7.58947e-01,9.99999e-01,7.58947e-01,9.99999e-01
8.285238370e-01,7.63094e-01,9.99999e-01,7.63094e-01,9.99999e-01
8.326664562e-01,7.67180e-01,9.99999e-01,7.67180e-01,9.99999e-01
8.368297885e-01,7.71207e-01,9.99999e-01,7.71207e-01,9.99999e-01
8.410139374e-01,7.75174e-01,9.99999e-01,7.75174e-01,9.99999e-01
8.452190071e-01,7.79083e-01,9.99999e-01,7.79083e-01,9.99999e-01
8.494451021e-01,7.82935e-01,9.99999e-01,7.82935e-01,9.99999e-01
8.536923276e-01,7.86728e-01,9.99999e-01,7.86728e-01,9.99999e-01
8.579607893e-01,7.90464e-01,9.99999e-01,7.90464e-01,9.99999e-01
8.622505932e-01,7.94144e-01,9.99999e-01,7.94144e-01,9.99999e-01
8.665618462e-01,7.63818e-01,9.57443e-01,7.97768e-01,9.99999e-01
8.708946554e-01,6.62249e-01,8.26430e-01,8.01336e-01,9.99999e-01
8.752491287e-01,6.90940e-01,8.58471e-01,8.04850e-01,9.99999e-01
8.796253743e-01,7.43865e-01,9.20273e-01,8.08308e-01,9.99999e-01
8.840235012e-01,7.77702e-01,9.58099e-01,8.11713e-01,9.99999e-01
8.884436187e-01,8.01346e-01,9.83167e-01,8.15065e-01,9.99999e-01
8.928858368e-01,8.12792e-01,9.93191e-01,8.18364e-01,9.99999e-01
8.973502660e-01,8.20233e-01,9.98322e-01,8.21610e-01,9.99999e-01
9.018370173e-01,8.24652e-01,9.99814e-01,8.24805e-01,9.99999e-01
9.063462024e-01,8.24234e-01,9.95512e-01,8.27949e-01,9.99999e-01
9.108779334e-01,8.22155e-01,9.89304e-01,8.31043e-01,9.99999e-01
9.154323231e-01,8.31948e-01,9.97435e-01,8.34086e-01,9.99999e-01
9.200094847e-01,8.06735e-01,9.63747e-01,8.37080e-01,9.99999e-01
9.246095321e-01,7.96961e-01,9.48733e-01,8.40026e-01,9.99999e-01
9.292325798e-01,8.09342e-01,9.60159e-01,8.42923e-01,9.99999e-01
9.338787427e-01,8.12690e-01,9.60883e-01,8.45773e-01,9.99999e-01
9.385481364e-01,8.24129e-01,9.71190e-01,8.48576e-01,9.99999e-01
9.432408771e-01,8.36158e-01,9.82175e-01,8.51333e-01,9.99999e-01
9.479570815e-01,8.46246e-01,9.90869e-01,8.54044e-01,9.99999e-01
9.526968669e-01,8.52917e-01,9.95572e-01,8.56709e-01,9.99999e-01
9.574603512e-01,8.57701e-01,9.98102e-01,8.59330e-01,9.99999e-01
9.622476530e-01,8.61397e-01,9.99406e-01,8.61908e-01,9.99999e-01
9.670588912e-01,8.64287e-01,9.99821e-01,8.64441e-01,9.99999e-01
9.718941857e-01,8.66921e-01,9.99986e-01,8.66932e-01,9.99999e-01
9.767536566e-01,8.69381e-01,9.99999e-01,8.69381e-01,9.99999e-01
9.816374249e-01,8.71788e-01,9.99999e-01,8.71788e-01,9.99999e-01
9.865456120e-01,8.74154e-01,9.99999e-01,8.74154e-01,9.99999e-01
9.914783401e-01,8.76479e-01,9.99999e-01,8.76479e-01,9.99999e-01
9.964357318e-01,8.78765e-01,9.99999e-01,8.78765e-01,9.99999e-01
1.001417910e+00,8.81011e-01,9.99999e-01,8.81011e-01,9.99999e-01
1.006425000e+00,8.83218e-01,9.99999e-01,8.83218e-01,9.99999e-01
1.011457125e+00,8.85387e-01,9.99999e-01,8.85387e-01,9.99999e-01
1.016514411e+00,8.87519e-01,9.99999e-01,8.87519e-01,9.99999e-01
1.021596983e+00,8.89595e-01,9.99979e-01,8.89613e-01,9.99999e-01
1.026704968e+00,8.90124e-01,9.98264e-01,8.91671e-01,9.99999e-01
1.031838492e+00,8.73525e-01,9.77433e-01,8.93692e-01,9.99999e-01
1.036997685e+00,2.60922e-01,2.91312e-01,8.95679e-01,9.99999e-01
1.042182673e+00,3.06478e-01,3.41429e-01,8.97630e-01,9.99999e-01
1.047393587e+00,2.91275e-01,3.23801e-01,8.99547e-01,9.99999e-01
1.052630555e+00,4.36040e-02,4.83720e-02,9.01430e-01,9.99999e-01
1.057893707e+00,8.06665e-02,8.93039e-02,9.03279e-01,9.99999e-01
1.063183176e+00,1.57907e-01,1.74464e-01,9.05096e-01,9.99999e-01
1.068499092e+00,2.84442e-01,3.13648e-01,9.06881e-01,9.99999e-01
1.073841587e+00,4.35382e-01,4.79161e-01,9.08633e-01,9.99999e-01
1.079210795e+00,5.72789e-01,6.29192e-01,9.10354e-01,9.99999e-01
1.084606849e+00,7.07759e-01,7.76012e-01,9.12045e-01,9.99999e-01
1.090029883e+00,8.01528e-01,8.77228e-01,9.13705e-01,9.99999e-01
1.095480033e+00,8.58036e-01,9.37400e-01,9.15335e-01,9.99999e-01
1.100957433e+00,8.88870e-01,9.69391e-01,9.16936e-01,9.99999e-01
1.106462220e+00,9.06758e-01,9.87207e-01,9.18508e-01,9.99999e-01
1.111994531e+00,9.15674e-01,9.95242e-01,9.20051e-01,9.99999e-01
1.117554504e+00,9.20486e-01,9.98826e-01,9.21567e-01,9.99999e-01
1.123142276e+00,9.22983e-01,9.99921e-01,9.23055e-01,9.99999e-01
1.128757988e+00,9.24516e-01,9.99999e-01,9.24516e-01,9.99999e-01
1.134401778e+00,9.25950e-01,9.99999e-01,9.25950e-01,9.99999e-01
1.140073787e+00,9.27358e-01,9.99999e-01,9.27358e-01,9.99999e-01
1.145774156e+00,9.28741e-01,9.99999e-01,9.28741e-01,9.99999e-01
1.151503026e+00,9.30098e-01,9.99999e-01,9.30098e-01,9.99999e-01
1.157260541e+00,9.31430e-01,9.99999e-01,9.31430e-01,9.99999e-01
1.163046844e+00,9.32738e-01,9.99999e-01,9.32738e-01,9.99999e-01
1.168862078e+00,9.34022e-01,9.99999e-01,9.34022e-01,9.99999e-01
1.174706389e+00,9.35282e-01,9.99999e-01,9.35282e-01,9.99999e-01
1.180579921e+00,9.36519e-01,9.99999e-01,9.36519e-01,9.99999e-01
1.186482820e+00,9.37731e-01,9.99998e-01,9.37733e-01,9.99999e-01
1.192415234e+00,9.33139e-01,9.93837e-01,9.38924e-01,9.99999e-01
1.198377311e+00,5.53936e-01,5.89234e-01,9.40094e-01,9.99999e-01
1.204369197e+00,1.46233e-06,1.55362e-06,9.41242e-01,9.99999e-01
1.210391043e+00,8.75105e-21,9.28623e-21,9.42368e-01,9.99999e-01
1.216442998e+00,3.08829e-18,3.27332e-18,9.43474e-01,9.99999e-01
1.222525213e+00,5.79238e-18,6.13236e-18,9.44559e-01,9.99999e-01
1.228637839e+00,8.06088e-14,8.52440e-14,9.45623e-01,9.99999e-01
1.234781029e+00,5.84154e-11,6.17062e-11,9.46668e-01,9.99999e-01
1.240954934e+00,1.42101e-06,1.49944e-06,9.47694e-01,9.99999e-01
1.247159708e+00,2.44869e-04,2.58110e-04,9.48700e-01,9.99999e-01
1.253395507e+00,1.52592e-02,1.60676e-02,9.49687e-01,9.99999e-01
1.259662485e+00,7.51300e-02,7.90295e-02,9.50656e-01,9.99999e-01
1.265960797e+00,2.42633e-01,2.54972e-01,9.51607e-01,9.99999e-01
1.272290601e+00,5.21097e-01,5.47060e-01,9.52539e-01,9.99999e-01
1.278652054e+00,4.91761e-01,5.15767e-01,9.53455e-01,9.99999e-01
1.285045314e+00,4.25658e-02,4.46017e-02,9.54353e-01,9.99999e-01
1.291470541e+00,3.95647e-03,4.14188e-03,9.55234e-01,9.99999e-01
1.297927893e+00,4.27187e-02,4.46802e-02,9.56098e-01,9.99999e-01
1.304417533e+00,3.47662e-01,3.63303e-01,9.56947e-01,9.99999e-01
1.310939621e+00,1.04633e-01,1.09245e-01,9.57779e-01,9.99999e-01
1.317494319e+00,1.40640e-07,1.46715e-07,9.58595e-01,9.99999e-01
1.324081790e+00,1.23242e-05,1.28458e-05,9.59396e-01,9.99999e-01
1.330702199e+00,2.51541e-03,2.61972e-03,9.60182e-01,9.99999e-01
1.337355710e+00,1.73988e-03,1.81057e-03,9.60953e-01,9.99999e-01
1.344042489e+00,6.45819e-04,6.71532e-04,9.61709e-01,9.99999e-01
1.350762701e+00,1.90516e-03,1.97949e-03,9.62451e-01,9.99999e-01
1.357516515e+00,1.57163e-02,1.63170e-02,9.63179e-01,9.99999e-01
1.364304097e+00,7.51939e-02,7.80105e-02,9.63893e-01,9.99999e-01
1.371125618e+00,2.48722e-01,2.57851e-01,9.64593e-01,9.99999e-01
1.377981246e+00,3.29537e-01,3.41390e-01,9.65281e-01,9.99999e-01
1.384871152e+00,5.16074e-01,5.34263e-01,9.65955e-01,9.99999e-01
1.391795508e+00,5.41764e-01,5.60475e-01,9.66616e-01,9.99999e-01
1.398754485e+00,6.77836e-01,7.00776e-01,9.67264e-01,9.99999e-01
1.405748258e+00,7.44057e-01,7.68732e-01,9.67900e-01,9.99999e-01
1.412776999e+00,8.20428e-01,8.47090e-01,9.68524e-01,9.99999e-01
1.419840884e+00,7.67516e-01,7.91958e-01,9.69136e-01,9.99999e-01
1.426940089e+00,1.04581e-01,1.07845e-01,9.69736e-01,9.99999e-01
1.434074789e+00,2.85320e-292,2.94046e-292,9.70325e-01,9.99999e-01
1.441245163e+00,0.00000e+00,0.00000e+00,9.70903e-01,9.99999e-01
1.448451389e+00,0.00000e+00,0.00000e+00,9.71469e-01,9.99999e-01
1.455693646e+00,1.13105e-158,1.16360e-158,9.72025e-01,9.99999e-01
1.462972114e+00,1.74828e-77,1.79758e-77,9.72570e-01,9.99999e-01
1.470286975e+00,3.31283e-33,3.40439e-33,9.73104e-01,9.99999e-01
1.477638409e+00,1.62369e-21,1.66766e-21,9.73628e-01,9.99999e-01
1.485026601e+00,1.18479e-12,1.21624e-12,9.74142e-01,9.99999e-01
1.492451734e+00,9.36136e-11,9.60487e-11,9.74647e-01,9.99999e-01
1.499913993e+00,1.20437e-05,1.23507e-05,9.75141e-01,9.99999e-01
1.507413563e+00,1.67494e-04,1.71679e-04,9.75626e-01,9.99999e-01
1.514950631e+00,7.34856e-06,7.52847e-06,9.76102e-01,9.99999e-01
1.522525384e+00,8.05904e-16,8.25240e-16,9.76568e-01,9.99999e-01
1.530138011e+00,3.48801e-35,3.57003e-35,9.77026e-01,9.99999e-01
1.537788701e+00,1.79182e-26,1.83311e-26,9.77474e-01,9.99999e-01
1.545477645e+00,5.06224e-07,5.17656e-07,9.77914e-01,9.99999e-01
1.553205033e+00,1.29687e-04,1.32557e-04,9.78346e-01,9.99999e-01
1.560971058e+00,3.67601e-05,3.75575e-05,9.78769e-01,9.99999e-01
1.568775913e+00,9.06496e-87,9.25766e-87,9.79184e-01,9.99999e-01
1.576619793e+00,1.26349e-201,1.28981e-201,9.79591e-01,9.99999e-01
1.584502892e+00,1.53588e-110,1.56724e-110,9.79990e-01,9.99999e-01
1.592425406e+00,2.34680e-77,2.39376e-77,9.80381e-01,9.99999e-01
1.600387533e+00,5.74364e-124,5.85628e-124,9.80765e-01,9.99999e-01
1.608389471e+00,1.84876e-207,1.88429e-207,9.81141e-01,9.99999e-01
1.616431418e+00,9.24725e-209,9.42145e-209,9.81510e-01,9.99999e-01
1.624513575e+00,4.88575e-98,4.97594e-98,9.81872e-01,9.99999e-01
1.632636143e+00,3.38298e-73,3.44420e-73,9.82227e-01,9.99999e-01
1.640799324e+00,6.77786e-31,6.89805e-31,9.82575e-01,9.99999e-01
1.649003321e+00,8.25985e-31,8.40341e-31,9.82916e-01,9.99999e-01
1.657248337e+00,3.88755e-24,3.95377e-24,9.83251e-01,9.99999e-01
1.665534579e+00,2.79340e-24,2.84004e-24,9.83579e-01,9.99999e-01
1.673862252e+00,4.47824e-16,4.55151e-16,9.83900e-01,9.99999e-01
1.682231563e+00,1.48020e-11,1.50394e-11,9.84216e-01,9.99999e-01
1.690642721e+00,3.59649e-07,3.65302e-07,9.84525e-01,9.99999e-01
1.699095934e+00,1.10754e-04,1.12460e-04,9.84829e-01,9.99999e-01
1.707591414e+00,7.39507e-03,7.50672e-03,9.85126e-01,9.99999e-01
1.716129371e+00,6.97009e-02,7.07322e-02,9.85418e-01,9.99999e-01
1.724710018e+00,2.40177e-01,2.43660e-01,9.85704e-01,9.99999e-01
1.733333568e+00,4.01449e-01,4.07155e-01,9.85984e-01,9.99999e-01
1.742000236e+00,5.66407e-01,5.74298e-01,9.86259e-01,9.99999e-01
1.750710237e+00,4.25076e-02,4.30880e-02,9.86528e-01,9.99999e-01
1.759463788e+00,3.18959e-15,3.23227e-15,9.86793e-01,9.99999e-01
1.768261107e+00,3.31862e-16,3.36215e-16,9.87052e-01,9.99999e-01
1.777102413e+00,3.95666e-15,4.00752e-15,9.87306e-01,9.99999e-01
1.785987925e+00,8.89360e-15,9.00567e-15,9.87555e-01,9.99999e-01
1.794917864e+00,7.94187e-14,8.03996e-14,9.87799e-01,9.99999e-01
1.803892454e+00,7.90727e-14,8.00299e-14,9.88039e-01,9.99999e-01
1.812911916e+00,4.79268e-13,4.84954e-13,9.88274e-01,9.99999e-01
1.821976476e+00,2.64991e-13,2.68072e-13,9.88504e-01,9.99999e-01
1.831086358e+00,5.51569e-11,5.57856e-11,9.88730e-01,9.99999e-01
1.840241790e+00,2.78893e-09,2.82009e-09,9.88951e-01,9.99999e-01
1.849442999e+00,1.39112e-06,1.40635e-06,9.89168e-01,9.99999e-01
1.858690214e+00,6.33814e-06,6.40616e-06,9.89381e-01,9.99999e-01
1.867983665e+00,1.12223e-06,1.13403e-06,9.89590e-01,9.99999e-01
1.877323583e+00,5.30033e-28,5.35497e-28,9.89794e-01,9.99999e-01
