#,Wave/freq,Total,CO2,Rayleigh,CIA
4.000000000e-01,2.53698e-13,9.99999e-01,2.53698e-13,9.99999e-01
4.020000000e-01,4.49789e-13,9.99999e-01,4.49789e-13,9.99999e-01
4.040100000e-01,7.88665e-13,9.99999e-01,7.88665e-13,9.99999e-01
4.060300500e-01,1.36760e-12,9.99999e-01,1.36760e-12,9.99999e-01
4.080602003e-01,2.34587e-12,9.99999e-01,2.34587e-12,9.99999e-01
4.101005013e-01,3.98124e-12,9.99999e-01,3.98124e-12,9.99999e-01
4.121510038e-01,6.68646e-12,9.99999e-01,6.68646e-12,9.99999e-01
4.142117588e-01,1.11154e-11,9.99999e-01,1.11154e-11,9.99999e-01
4.162828176e-01,1.82935e-11,9.99999e-01,1.82935e-11,9.99999e-01
4.183642317e-01,2.98121e-11,9.99999e-01,2.98121e-11,9.99999e-01
4.204560528e-01,4.81171e-11,9.99999e-01,4.81171e-11,9.99999e-01
4.225583331e-01,7.69307e-11,9.99999e-01,7.69307e-11,9.99999e-01
4.246711247e-01,1.21864e-10,9.99999e-01,1.21864e-10,9.99999e-01
4.267944804e-01,1.91295e-10,9.99999e-01,1.91295e-10,9.99999e-01
4.289284528e-01,2.97621e-10,9.99999e-01,2.97621e-10,9.99999e-01
4.310730950e-01,4.59020e-10,9.99999e-01,4.59020e-10,9.99999e-01
4.332284605e-01,7.01914e-10,9.99999e-01,7.01914e-10,9.99999e-01
4.353946028e-01,1.06437e-09,9.99999e-01,1.06437e-09,9.99999e-01
4.375715758e-01,1.60077e-09,9.99999e-01,1.60077e-09,9.99999e-01
4.397594337e-01,2.38817e-09,9.99999e-01,2.38817e-09,9.99999e-01
4.419582309e-01,3.53485e-09,9.99999e-01,3.53485e-09,9.99999e-01
4.441680220e-01,5.19172e-09,9.99999e-01,5.19172e-09,9.99999e-01
4.463888621e-01,7.56753e-09,9.99999e-01,7.56753e-09,9.99999e-01
4.486208064e-01,1.09488e-08,9.99999e-01,1.09488e-08,9.99999e-01
4.508639105e-01,1.57256e-08,9.99999e-01,1.57256e-08,9.99999e-01
4.531182300e-01,2.24256e-08,9.99999e-01,2.24256e-08,9.99999e-01
4.553838212e-01,3.17567e-08,9.99999e-01,3.17567e-08,9.99999e-01
4.576607403e-01,4.46625e-08,9.99999e-01,4.46625e-08,9.99999e-01
4.599490440e-01,6.23914e-08,9.99999e-01,6.23914e-08,9.99999e-01
4.622487892e-01,8.65842e-08,9.99999e-01,8.65842e-08,9.99999e-01
4.645600332e-01,1.19383e-07,9.99999e-01,1.19383e-07,9.99999e-01
4.668828333e-01,1.63565e-07,9.99999e-01,1.63565e-07,9.99999e-01
4.692172475e-01,2.22708e-07,9.99999e-01,2.22708e-07,9.99999e-01
4.715633337e-01,3.01394e-07,9.99999e-01,3.01394e-07,9.99999e-01
4.739211504e-01,4.05450e-07,9.99999e-01,4.05450e-07,9.99999e-01
4.762907561e-01,5.42247e-07,9.99999e-01,5.42247e-07,9.99999e-01
4.786722099e-01,7.21044e-07,9.99999e-01,7.21044e-07,9.99999e-01
4.810655710e-01,9.53416e-07,9.99999e-01,9.53416e-07,9.99999e-01
4.834708988e-01,1.25374e-06,9.99999e-01,1.25374e-06,9.99999e-01
4.858882533e-01,1.63976e-06,9.99999e-01,1.63976e-06,9.99999e-01
4.883176946e-01,2.13331e-06,9.99999e-01,2.13331e-06,9.99999e-01
4.907592831e-01,2.76102e-06,9.99999e-01,2.76102e-06,9.99999e-01
4.932130795e-01,3.55526e-06,9.99999e-01,3.55526e-06,9.99999e-01
4.956791449e-01,4.55518e-06,9.99999e-01,4.55518e-06,9.99999e-01
4.981575406e-01,5.80782e-06,9.99999e-01,5.80782e-06,9.99999e-01
5.006483283e-01,7.36948e-06,9.99999e-01,7.36948e-06,9.99999e-01
5.031515699e-01,9.30717e-06,9.99999e-01,9.30717e-06,9.99999e-01
5.056673278e-01,1.17003e-05,9.99999e-01,1.17003e-05,9.99999e-01
5.081956644e-01,1.46424e-05,9.99999e-01,1.46424e-05,9.99999e-01
5.107366428e-01,1.82433e-05,9.99999e-01,1.82433e-05,9.99999e-01
5.132903260e-01,2.26312e-05,9.99999e-01,2.26312e-05,9.99999e-01
5.158567776e-01,2.79553e-05,9.99999e-01,2.79553e-05,9.99999e-01
5.184360615e-01,3.43880e-05,9.99999e-01,3.43880e-05,9.99999e-01
5.210282418e-01,4.21283e-05,9.99999e-01,4.21283e-05,9.99999e-01
5.236333830e-01,5.14043e-05,9.99999e-01,5.14043e-05,9.99999e-01
5.262515499e-01,6.24767e-05,9.99999e-01,6.24767e-05,9.99999e-01
5.288828077e-01,7.56420e-05,9.99999e-01,7.56420e-05,9.99999e-01
5.315272217e-01,9.12363e-05,9.99999e-01,9.12363e-05,9.99999e-01
5.341848578e-01,1.09639e-04,9.99999e-01,1.09639e-04,9.99999e-01
5.368557821e-01,1.31276e-04,9.99999e-01,1.31276e-04,9.99999e-01
5.395400610e-01,1.56625e-04,9.99999e-01,1.56625e-04,9.99999e-01
5.422377613e-01,1.86218e-04,9.99999e-01,1.86218e-04,9.99999e-01
5.449489501e-01,2.20647e-04,9.99999e-01,2.20647e-04,9.99999e-01
5.476736949e-01,2.60567e-04,9.99999e-01,2.60567e-04,9.99999e-01
5.504120634e-01,3.06700e-04,9.99999e-01,3.06700e-04,9.99999e-01
5.531641237e-01,3.59840e-04,9.99999e-01,3.59840e-04,9.99999e-01
5.559299443e-01,4.20857e-04,9.99999e-01,4.20857e-04,9.99999e-01
5.587095940e-01,4.90700e-04,9.99999e-01,4.90700e-04,9.99999e-01
5.615031420e-01,5.70402e-04,9.99999e-01,5.70402e-04,9.99999e-01
5.643106577e-01,6.61081e-04,9.99999e-01,6.61081e-04,9.99999e-01
5.671322110e-01,7.63945e-04,9.99999e-01,7.63945e-04,9.99999e-01
5.699678720e-01,8.80297e-04,9.99999e-01,8.80297e-04,9.99999e-01
5.728177114e-01,1.01153e-03,9.99999e-01,1.01153e-03,9.99999e-01
5.756818000e-01,1.15915e-03,9.99999e-01,1.15915e-03,9.99999e-01
5.785602090e-01,1.32474e-03,9.99999e-01,1.32474e-03,9.99999e-01
5.814530100e-01,1.50999e-03,9.99999e-01,1.50999e-03,9.99999e-01
5.843602750e-01,1.71671e-03,9.99999e-01,1.71671e-03,9.99999e-01
5.872820764e-01,1.94679e-03,9.99999e-01,1.94679e-03,9.99999e-01
5.902184868e-01,2.20222e-03,9.99999e-01,2.20222e-03,9.99999e-01
5.931695792e-01,2.48512e-03,9.99999e-01,2.48512e-03,9.99999e-01
5.961354271e-01,2.79766e-03,9.99999e-01,2.79766e-03,9.99999e-01
5.991161043e-01,3.14215e-03,9.99999e-01,3.14215e-03,9.99999e-01
6.021116848e-01,3.52098e-03,9.99999e-01,3.52098e-03,9.99999e-01
6.051222432e-01,3.93661e-03,9.99999e-01,3.93661e-03,9.99999e-01
6.081478544e-01,4.39162e-03,9.99999e-01,4.39162e-03,9.99999e-01
6.111885937e-01,4.88865e-03,9.99999e-01,4.88865e-03,9.99999e-01
6.142445367e-01,5.43042e-03,9.99999e-01,5.43042e-03,9.99999e-01
6.173157594e-01,6.01971e-03,9.99999e-01,6.01971e-03,9.99999e-01
6.204023382e-01,6.65939e-03,9.99999e-01,6.65939e-03,9.99999e-01
6.235043498e-01,7.35237e-03,9.99999e-01,7.35237e-03,9.99999e-01
6.266218716e-01,8.10159e-03,9.99999e-01,8.10159e-03,9.99999e-01
6.297549810e-01,8.91008e-03,9.99999e-01,8.91008e-03,9.99999e-01
6.329037559e-01,9.78084e-03,9.99999e-01,9.78084e-03,9.99999e-01
6.360682746e-01,1.07170e-02,9.99999e-01,1.07170e-02,9.99999e-01
6.392486160e-01,1.17215e-02,9.99999e-01,1.17215e-02,9.99999e-01
6.424448591e-01,1.27975e-02,9.99999e-01,1.27975e-02,9.99999e-01
6.456570834e-01,1.39481e-02,9.99999e-01,1.39481e-02,9.99999e-01
6.488853688e-01,1.51762e-02,9.99999e-01,1.51762e-02,9.99999e-01
6.521297956e-01,1.64851e-02,9.99999e-01,1.64851e-02,9.99999e-01
6.553904446e-01,1.78775e-02,9.99999e-01,1.78775e-02,9.99999e-01
6.586673968e-01,1.93566e-02,9.99999e-01,1.93566e-02,9.99999e-01
6.619607338e-01,2.09251e-02,9.99999e-01,2.09251e-02,9.99999e-01
6.652705375e-01,2.25860e-02,9.99999e-01,2.25860e-02,9.99999e-01
6.685968902e-01,2.43419e-02,9.99999e-01,2.43419e-02,9.99999e-01
6.719398746e-01,2.61956e-02,9.99999e-01,2.61956e-02,9.99999e-01
6.752995740e-01,2.81496e-02,9.99999e-01,2.81496e-02,9.99999e-01
6.786760719e-01,3.02064e-02,9.99999e-01,3.02064e-02,9.99999e-01
6.820694522e-01,3.23684e-02,9.99999e-01,3.23684e-02,9.99999e-01
6.854797995e-01,3.46377e-02,9.99999e-01,3.46377e-02,9.99999e-01
6.889071985e-01,3.70166e-02,9.99999e-01,3.70166e-02,9.99999e-01
6.923517345e-01,3.95071e-02,9.99999e-01,3.95071e-02,9.99999e-01
6.958134932e-01,4.21108e-02,9.99999e-01,4.21108e-02,9.99999e-01
6.992925606e-01,4.48297e-02,9.99999e-01,4.48297e-02,9.99999e-01
7.027890234e-01,4.76651e-02,9.99999e-01,4.76651e-02,9.99999e-01
7.063029686e-01,5.06185e-02,9.99999e-01,5.06185e-02,9.99999e-01
7.098344834e-01,5.36911e-02,9.99999e-01,5.36911e-02,9.99999e-01
7.133836558e-01,5.68840e-02,9.99999e-01,5.68840e-02,9.99999e-01
7.169505741e-01,6.01980e-02,9.99999e-01,6.01980e-02,9.99999e-01
7.205353270e-01,6.36339e-02,9.99999e-01,6.36339e-02,9.99999e-01
7.241380036e-01,6.71921e-02,9.99999e-01,6.71921e-02,9.99999e-01
7.277586936e-01,7.08731e-02,9.99999e-01,7.08731e-02,9.99999e-01
7.313974871e-01,7.46771e-02,9.99999e-01,7.46771e-02,9.99999e-01
7.350544745e-01,7.86040e-02,9.99999e-01,7.86040e-02,9.99999e-01
7.387297469e-01,8.26537e-02,9.99999e-01,8.26537e-02,9.99999e-01
7.424233956e-01,8.68259e-02,9.99999e-01,8.68259e-02,9.99999e-01
7.461355126e-01,9.11200e-02,9.99999e-01,9.11200e-02,9.99999e-01
7.498661902e-01,9.55353e-02,9.99999e-01,9.55353e-02,9.99999e-01
7.536155211e-01,1.00071e-01,9.99999e-01,1.00071e-01,9.99999e-01
7.573835987e-01,1.04726e-01,9.99999e-01,1.04726e-01,9.99999e-01
7.611705167e-01,1.09499e-01,9.99999e-01,1.09499e-01,9.99999e-01
7.649763693e-01,1.14389e-01,9.99999e-01,1.14389e-01,9.99999e-01
7.688012511e-01,1.19394e-01,9.99999e-01,1.19394e-01,9.99999e-01
7.726452574e-01,1.24513e-01,9.99999e-01,1.24513e-01,9.99999e-01
7.765084837e-01,1.28958e-01,9.93941e-01,1.29744e-01,9.99999e-01
7.803910261e-01,9.20405e-02,6.81353e-01,1.35085e-01,9.99999e-01
7.842929812e-01,1.03249e-01,7.34696e-01,1.40533e-01,9.99999e-01
7.882144461e-01,1.04351e-01,7.14303e-01,1.46087e-01,9.99999e-01
7.921555184e-01,1.20629e-01,7.94944e-01,1.51745e-01,9.99999e-01
7.961162960e-01,1.37752e-01,8.74597e-01,1.57503e-01,9.99999e-01
8.000968774e-01,1.52440e-01,9.33156e-01,1.63359e-01,9.99999e-01
8.040973618e-01,1.64030e-01,9.68807e-01,1.69311e-01,9.99999e-01
8.081178486e-01,1.73178e-01,9.87578e-01,1.75356e-01,9.99999e-01
8.121584379e-01,1.80890e-01,9.96683e-01,1.81491e-01,9.99999e-01
8.162192301e-01,1.87671e-01,9.99775e-01,1.87714e-01,9.99999e-01
8.203003262e-01,1.94020e-01,9.99999e-01,1.94020e-01,9.99999e-01
8.244018279e-01,2.00407e-01,9.99999e-01,2.00407e-01,9.99999e-01
8.285238370e-01,2.06872e-01,9.99999e-01,2.06872e-01,9.99999e-01
8.326664562e-01,2.13412e-01,9.99999e-01,2.13412e-01,9.99999e-01
8.368297885e-01,2.20023e-01,9.99999e-01,2.20023e-01,9.99999e-01
8.410139374e-01,2.26702e-01,9.99999e-01,2.26702e-01,9.99999e-01
8.452190071e-01,2.33446e-01,9.99999e-01,2.33446e-01,9.99999e-01
8.494451021e-01,2.40252e-01,9.99999e-01,2.40252e-01,9.99999e-01
8.536923276e-01,2.47116e-01,9.99999e-01,2.47116e-01,9.99999e-01
8.579607893e-01,2.54034e-01,9.99999e-01,2.54034e-01,9.99999e-01
8.622505932e-01,2.60320e-01,9.97378e-01,2.61004e-01,9.99999e-01
8.665618462e-01,1.14458e-01,4.27049e-01,2.68021e-01,9.99999e-01
8.708946554e-01,9.88719e-02,3.59425e-01,2.75083e-01,9.99999e-01
8.752491287e-01,1.44967e-01,5.13727e-01,2.82187e-01,9.99999e-01
8.796253743e-01,2.08287e-01,7.19899e-01,2.89327e-01,9.99999e-01
8.840235012e-01,2.56231e-01,8.64175e-01,2.96503e-01,9.99999e-01
8.884436187e-01,2.86637e-01,9.43787e-01,3.03709e-01,9.99999e-01
8.928858368e-01,3.05551e-01,9.82661e-01,3.10942e-01,9.99999e-01
8.973502660e-01,3.17128e-01,9.96628e-01,3.18200e-01,9.99999e-01
9.018370173e-01,3.24654e-01,9.97461e-01,3.25480e-01,9.99999e-01
9.063462024e-01,3.10919e-01,9.34317e-01,3.32776e-01,9.99999e-01
9.108779334e-01,3.29872e-01,9.69959e-01,3.40088e-01,9.99999e-01
9.154323231e-01,3.32658e-01,9.57534e-01,3.47411e-01,9.99999e-01
9.200094847e-01,2.51687e-01,7.09491e-01,3.54742e-01,9.99999e-01
9.246095321e-01,2.86350e-01,7.90849e-01,3.62079e-01,9.99999e-01
9.292325798e-01,2.85969e-01,7.74107e-01,3.69418e-01,9.99999e-01
9.338787427e-01,3.04426e-01,8.08016e-01,3.76756e-01,9.99999e-01
9.385481364e-01,3.41586e-01,8.89334e-01,3.84091e-01,9.99999e-01
9.432408771e-01,3.64534e-01,9.31311e-01,3.91420e-01,9.99999e-01
9.479570815e-01,3.83813e-01,9.62566e-01,3.98739e-01,9.99999e-01
9.526968669e-01,3.99425e-01,9.83691e-01,4.06047e-01,9.99999e-01
9.574603512e-01,4.10972e-01,9.94270e-01,4.13341e-01,9.99999e-01
9.622476530e-01,4.19837e-01,9.98145e-01,4.20617e-01,9.99999e-01
9.670588912e-01,4.27752e-01,9.99712e-01,4.27874e-01,9.99999e-01
9.718941857e-01,4.35109e-01,9.99998e-01,4.35109e-01,9.99999e-01
9.767536566e-01,4.42321e-01,9.99999e-01,4.42321e-01,9.99999e-01
9.816374249e-01,4.49505e-01,9.99999e-01,4.49505e-01,9.99999e-01
9.865456120e-01,4.56661e-01,9.99999e-01,4.56661e-01,9.99999e-01
9.914783401e-01,4.63786e-01,9.99999e-01,4.63786e-01,9.99999e-01
9.964357318e-01,4.70879e-01,9.99999e-01,4.70879e-01,9.99999e-01
1.001417910e+00,4.77936e-01,9.99999e-01,4.77936e-01,9.99999e-01
1.006425000e+00,4.84957e-01,9.99999e-01,4.84957e-01,9.99999e-01
1.011457125e+00,4.91939e-01,9.99999e-01,4.91939e-01,9.99999e-01
1.016514411e+00,4.98880e-01,9.99997e-01,4.98881e-01,9.99999e-01
1.021596983e+00,5.04378e-01,9.97226e-01,5.05780e-01,9.99999e-01
1.026704968e+00,5.01460e-01,9.78197e-01,5.12636e-01,9.99999e-01
1.031838492e+00,1.80862e-01,3.48180e-01,5.19447e-01,9.99999e-01
1.036997685e+00,4.55176e-04,8.65005e-04,5.26211e-01,9.99999e-01
1.042182673e+00,1.05612e-02,1.98173e-02,5.32927e-01,9.99999e-01
1.047393587e+00,5.86997e-04,1.08785e-03,5.39594e-01,9.99999e-01
1.052630555e+00,1.99173e-06,3.64645e-06,5.46209e-01,9.99999e-01
1.057893707e+00,1.56632e-05,2.83356e-05,5.52773e-01,9.99999e-01
1.063183176e+00,5.05440e-04,9.03727e-04,5.59284e-01,9.99999e-01
1.068499092e+00,7.45616e-03,1.31795e-02,5.65740e-01,9.99999e-01
1.073841587e+00,2.17831e-02,3.80728e-02,5.72142e-01,9.99999e-01
1.079210795e+00,9.80256e-02,1.69452e-01,5.78487e-01,9.99999e-01
1.084606849e+00,2.09182e-01,3.57714e-01,5.84775e-01,9.99999e-01
1.090029883e+00,3.55970e-01,6.02313e-01,5.91005e-01,9.99999e-01
1.095480033e+00,4.64821e-01,7.78363e-01,5.97177e-01,9.99999e-01
1.100957433e+00,5.42316e-01,8.98930e-01,6.03289e-01,9.99999e-01
1.106462220e+00,5.83196e-01,9.57091e-01,6.09341e-01,9.99999e-01
1.111994531e+00,6.07542e-01,9.87337e-01,6.15333e-01,9.99999e-01
1.117554504e+00,6.19965e-01,9.97909e-01,6.21263e-01,9.99999e-01
1.123142276e+00,6.27125e-01,9.99987e-01,6.27132e-01,9.99999e-01
1.128757988e+00,6.32939e-01,9.99999e-01,6.32939e-01,9.99999e-01
1.134401778e+00,6.38683e-01,9.99999e-01,6.38683e-01,9.99999e-01
1.140073787e+00,6.44364e-01,9.99999e-01,6.44364e-01,9.99999e-01
1.145774156e+00,6.49982e-01,9.99999e-01,6.49982e-01,9.99999e-01
1.151503026e+00,6.55537e-01,9.99999e-01,6.55537e-01,9.99999e-01
1.157260541e+00,6.61028e-01,9.99999e-01,6.61028e-01,9.99999e-01
1.163046844e+00,6.66455e-01,9.99999e-01,6.66455e-01,9.99999e-01
1.168862078e+00,6.71818e-01,9.99999e-01,6.71818e-01,9.99999e-01
1.174706389e+00,6.77118e-01,9.99999e-01,6.77118e-01,9.99999e-01
1.180579921e+00,6.82353e-01,9.99999e-01,6.82353e-01,9.99999e-01
1.186482820e+00,6.85012e-01,9.96346e-01,6.87524e-01,9.99999e-01
1.192415234e+00,6.29506e-01,9.08862e-01,6.92630e-01,9.99999e-01
1.198377311e+00,5.13908e-02,7.36602e-02,6.97673e-01,9.99999e-01
1.204369197e+00,3.09545e-143,4.40537e-143,7.02652e-01,9.99999e-01
1.210391043e+00,6.13690e-109,8.67323e-109,7.07567e-01,9.99999e-01
1.216442998e+00,5.45995e-95,7.66395e-95,7.12418e-01,9.99999e-01
1.222525213e+00,1.94570e-73,2.71289e-73,7.17206e-01,9.99999e-01
1.228637839e+00,1.08040e-55,1.49654e-55,7.21930e-01,9.99999e-01
1.234781029e+00,7.07343e-37,9.73507e-37,7.26591e-01,9.99999e-01
1.240954934e+00,1.94020e-22,2.65348e-22,7.31190e-01,9.99999e-01
1.247159708e+00,8.14269e-11,1.10675e-10,7.35726e-01,9.99999e-01
1.253395507e+00,6.15890e-08,8.32058e-08,7.40199e-01,9.99999e-01
1.259662485e+00,1.10515e-04,1.48420e-04,7.44611e-01,9.99999e-01
1.265960797e+00,9.84520e-03,1.31451e-02,7.48961e-01,9.99999e-01
1.272290601e+00,5.66086e-02,7.51525e-02,7.53249e-01,9.99999e-01
1.278652054e+00,4.01575e-03,5.30148e-03,7.57477e-01,9.99999e-01
1.285045314e+00,3.76745e-10,4.94647e-10,7.61644e-01,9.99999e-01
1.291470541e+00,1.28106e-10,1.67294e-10,7.65751e-01,9.99999e-01
1.297927893e+00,1.05175e-03,1.36626e-03,7.69799e-01,9.99999e-01
1.304417533e+00,2.45839e-03,3.17709e-03,7.73788e-01,9.99999e-01
1.310939621e+00,7.38273e-06,9.49282e-06,7.77717e-01,9.99999e-01
1.317494319e+00,3.70702e-35,4.74292e-35,7.81589e-01,9.99999e-01
1.324081790e+00,2.15080e-15,2.73847e-15,7.85402e-01,9.99999e-01
1.330702199e+00,2.69656e-15,3.41700e-15,7.89159e-01,9.99999e-01
1.337355710e+00,8.54622e-14,1.07790e-13,7.92858e-01,9.99999e-01
1.344042489e+00,2.70171e-17,3.39196e-17,7.96502e-01,9.99999e-01
1.350762701e+00,2.65255e-11,3.31532e-11,8.00089e-01,9.99999e-01
1.357516515e+00,8.46610e-08,1.05349e-07,8.03622e-01,9.99999e-01
1.364304097e+00,1.35023e-04,1.67294e-04,8.07100e-01,9.99999e-01
1.371125618e+00,1.11653e-03,1.37754e-03,8.10524e-01,9.99999e-01
1.377981246e+00,1.56833e-02,1.92694e-02,8.13894e-01,9.99999e-01
1.384871152e+00,2.05717e-02,2.51730e-02,8.17211e-01,9.99999e-01
1.391795508e+00,8.06494e-02,9.82958e-02,8.20476e-01,9.99999e-01
1.398754485e+00,1.30155e-01,1.58015e-01,8.23689e-01,9.99999e-01
1.405748258e+00,2.61252e-01,3.15960e-01,8.26851e-01,9.99999e-01
1.412776999e+00,3.78166e-01,4.55642e-01,8.29962e-01,9.99999e-01
1.419840884e+00,4.79889e-02,5.76081e-02,8.33023e-01,9.99999e-01
1.426940089e+00,1.79548e-242,2.14761e-242,8.36034e-01,9.99999e-01
1.434074789e+00,0.00000e+00,0.00000e+00,8.38997e-01,9.99999e-01
1.441245163e+00,0.00000e+00,0.00000e+00,8.41911e-01,9.99999e-01
1.448451389e+00,0.00000e+00,0.00000e+00,8.44778e-01,9.99999e-01
1.455693646e+00,0.00000e+00,0.00000e+00,8.47597e-01,9.99999e-01
1.462972114e+00,6.81808e-263,8.01777e-263,8.50370e-01,9.99999e-01
1.470286975e+00,6.64184e-173,7.78555e-173,8.53097e-01,9.99999e-01
1.477638409e+00,1.75032e-82,2.04530e-82,8.55778e-01,9.99999e-01
1.485026601e+00,3.51804e-64,4.09829e-64,8.58415e-01,9.99999e-01
1.492451734e+00,2.91862e-33,3.38977e-33,8.61007e-01,9.99999e-01
1.499913993e+00,1.53344e-22,1.77573e-22,8.63556e-01,9.99999e-01
1.507413563e+00,4.67333e-23,5.39607e-23,8.66062e-01,9.99999e-01
1.514950631e+00,4.86506e-48,5.60151e-48,8.68526e-01,9.99999e-01
1.522525384e+00,1.34145e-132,1.54022e-132,8.70947e-01,9.99999e-01
1.530138011e+00,1.37203e-146,1.57104e-146,8.73328e-01,9.99999e-01
1.537788701e+00,1.03783e-63,1.18518e-63,8.75667e-01,9.99999e-01
1.545477645e+00,3.39132e-23,3.86270e-23,8.77967e-01,9.99999e-01
1.553205033e+00,4.61643e-22,5.24458e-22,8.80226e-01,9.99999e-01
1.560971058e+00,9.25940e-62,1.04929e-61,8.82447e-01,9.99999e-01
1.568775913e+00,0.00000e+00,0.00000e+00,8.84630e-01,9.99999e-01
1.576619793e+00,0.00000e+00,0.00000e+00,8.86774e-01,9.99999e-01
1.584502892e+00,0.00000e+00,0.00000e+00,8.88882e-01,9.99999e-01
1.592425406e+00,0.00000e+00,0.00000e+00,8.90952e-01,9.99999e-01
1.600387533e+00,0.00000e+00,0.00000e+00,8.92987e-01,9.99999e-01
1.608389471e+00,0.00000e+00,0.00000e+00,8.94985e-01,9.99999e-01
1.616431418e+00,0.00000e+00,0.00000e+00,8.96949e-01,9.99999e-01
1.624513575e+00,0.00000e+00,0.00000e+00,8.98878e-01,9.99999e-01
1.632636143e+00,1.58839e-226,1.76336e-226,9.00772e-01,9.99999e-01
1.640799324e+00,3.41356e-171,3.78178e-171,9.02634e-01,9.99999e-01
1.649003321e+00,9.49705e-134,1.05002e-133,9.04462e-01,9.99999e-01
1.657248337e+00,3.53210e-132,3.89745e-132,9.06258e-01,9.99999e-01
1.665534579e+00,1.67931e-93,1.84942e-93,9.08021e-01,9.99999e-01
1.673862252e+00,2.11910e-74,2.32931e-74,9.09753e-01,9.99999e-01
1.682231563e+00,6.00123e-40,6.58423e-40,9.11455e-01,9.99999e-01
1.690642721e+00,1.05290e-25,1.15307e-25,9.13125e-01,9.99999e-01
1.699095934e+00,5.92060e-13,6.47226e-13,9.14766e-01,9.99999e-01
1.707591414e+00,4.65582e-08,5.08068e-08,9.16377e-01,9.99999e-01
1.716129371e+00,8.02205e-05,8.73900e-05,9.17959e-01,9.99999e-01
1.724710018e+00,2.57583e-03,2.80129e-03,9.19513e-01,9.99999e-01
1.733333568e+00,3.11276e-02,3.37962e-02,9.21038e-01,9.99999e-01
1.742000236e+00,1.35566e-02,1.46949e-02,9.22535e-01,9.99999e-01
1.750710237e+00,8.92406e-12,9.65800e-12,9.24006e-01,9.99999e-01
1.759463788e+00,6.44518e-84,6.96437e-84,9.25450e-01,9.99999e-01
1.768261107e+00,1.42250e-82,1.53474e-82,9.26867e-01,9.99999e-01
1.777102413e+00,1.52260e-82,1.64028e-82,9.28258e-01,9.99999e-01
1.785987925e+00,1.33653e-73,1.43770e-73,9.29624e-01,9.99999e-01
1.794917864e+00,4.52399e-75,4.85945e-75,9.30965e-01,9.99999e-01
1.803892454e+00,6.09889e-68,6.54190e-68,9.32282e-01,9.99999e-01
1.812911916e+00,2.60416e-81,2.78946e-81,9.33574e-01,9.99999e-01
1.821976476e+00,4.24636e-59,4.54233e-59,9.34842e-01,9.99999e-01
1.831086358e+00,2.96463e-54,3.16705e-54,9.36087e-01,9.99999e-01
1.840241790e+00,9.65904e-33,1.03051e-32,9.37309e-01,9.99999e-01
1.849442999e+00,1.41956e-31,1.51257e-31,9.38508e-01,9.99999e-01
1.858690214e+00,2.21760e-30,2.35994e-30,9.39686e-01,9.99999e-01
1.867983665e+00,3.00799e-48,3.19712e-48,9.40841e-01,9.99999e-01
1.877323583e+00,1.01359e-156,1.07603e-156,9.41975e-01,9.99999e-01
