#,Wave/freq,Total,CO2,Rayleigh,CIA
4.000000000e-01,3.09557e-06,9.99999e-01,3.09557e-06,9.99999e-01
4.020000000e-01,3.97813e-06,9.99999e-01,3.97813e-06,9.99999e-01
4.040100000e-01,5.08568e-06,9.99999e-01,5.08568e-06,9.99999e-01
4.060300500e-01,6.47011e-06,9.99999e-01,6.47011e-06,9.99999e-01
4.080602003e-01,8.19236e-06,9.99999e-01,8.19236e-06,9.99999e-01
4.101005013e-01,1.03248e-05,9.99999e-01,1.03248e-05,9.99999e-01
4.121510038e-01,1.29530e-05,9.99999e-01,1.29530e-05,9.99999e-01
4.142117588e-01,1.61775e-05,9.99999e-01,1.61775e-05,9.99999e-01
4.162828176e-01,2.01163e-05,9.99999e-01,2.01163e-05,9.99999e-01
4.183642317e-01,2.49066e-05,9.99999e-01,2.49066e-05,9.99999e-01
4.204560528e-01,3.07078e-05,9.99999e-01,3.07078e-05,9.99999e-01
4.225583331e-01,3.77040e-05,9.99999e-01,3.77040e-05,9.99999e-01
4.246711247e-01,4.61068e-05,9.99999e-01,4.61068e-05,9.99999e-01
4.267944804e-01,5.61586e-05,9.99999e-01,5.61586e-05,9.99999e-01
4.289284528e-01,6.81358e-05,9.99999e-01,6.81358e-05,9.99999e-01
4.310730950e-01,8.23525e-05,9.99999e-01,8.23525e-05,9.99999e-01
4.332284605e-01,9.91636e-05,9.99999e-01,9.91636e-05,9.99999e-01
4.353946028e-01,1.18969e-04,9.99999e-01,1.18969e-04,9.99999e-01
4.375715758e-01,1.42218e-04,9.99999e-01,1.42218e-04,9.99999e-01
4.397594337e-01,1.69411e-04,9.99999e-01,1.69411e-04,9.99999e-01
4.419582309e-01,2.01109e-04,9.99999e-01,2.01109e-04,9.99999e-01
4.441680220e-01,2.37929e-04,9.99999e-01,2.37929e-04,9.99999e-01
4.463888621e-01,2.80557e-04,9.99999e-01,2.80557e-04,9.99999e-01
4.486208064e-01,3.29747e-04,9.99999e-01,3.29747e-04,9.99999e-01
4.508639105e-01,3.86328e-04,9.99999e-01,3.86328e-04,9.99999e-01
4.531182300e-01,4.51203e-04,9.99999e-01,4.51203e-04,9.99999e-01
4.553838212e-01,5.25359e-04,9.99999e-01,5.25359e-04,9.99999e-01
4.576607403e-01,6.09868e-04,9.99999e-01,6.09868e-04,9.99999e-01
4.599490440e-01,7.05887e-04,9.99999e-01,7.05887e-04,9.99999e-01
4.622487892e-01,8.14667e-04,9.99999e-01,8.14667e-04,9.99999e-01
4.645600332e-01,9.37554e-04,9.99999e-01,9.37554e-04,9.99999e-01
4.668828333e-01,1.07599e-03,9.99999e-01,1.07599e-03,9.99999e-01
4.692172475e-01,1.23150e-03,9.99999e-01,1.23150e-03,9.99999e-01
4.715633337e-01,1.40575e-03,9.99999e-01,1.40575e-03,9.99999e-01
4.739211504e-01,1.60045e-03,9.99999e-01,1.60045e-03,9.99999e-01
4.762907561e-01,1.81746e-03,9.99999e-01,1.81746e-03,9.99999e-01
4.786722099e-01,2.05873e-03,9.99999e-01,2.05873e-03,9.99999e-01
4.810655710e-01,2.32628e-03,9.99999e-01,2.32628e-03,9.99999e-01
4.834708988e-01,2.62226e-03,9.99999e-01,2.62226e-03,9.99999e-01
4.858882533e-01,2.94893e-03,9.99999e-01,2.94893e-03,9.99999e-01
4.883176946e-01,3.30860e-03,9.99999e-01,3.30860e-03,9.99999e-01
4.907592831e-01,3.70371e-03,9.99999e-01,3.70371e-03,9.99999e-01
4.932130795e-01,4.13678e-03,9.99999e-01,4.13678e-03,9.99999e-01
4.956791449e-01,4.61041e-03,9.99999e-01,4.61041e-03,9.99999e-01
4.981575406e-01,5.12728e-03,9.99999e-01,5.12728e-03,9.99999e-01
5.006483283e-01,5.69013e-03,9.99999e-01,5.69013e-03,9.99999e-01
5.031515699e-01,6.30179e-03,9.99999e-01,6.30179e-03,9.99999e-01
5.056673278e-01,6.96514e-03,9.99999e-01,6.96514e-03,9.99999e-01
5.081956644e-01,7.68312e-03,9.99999e-01,7.68312e-03,9.99999e-01
5.107366428e-01,8.45869e-03,9.99999e-01,8.45869e-03,9.99999e-01
5.132903260e-01,9.29489e-03,9.99999e-01,9.29489e-03,9.99999e-01
5.158567776e-01,1.01947e-02,9.99999e-01,1.01947e-02,9.99999e-01
5.184360615e-01,1.11613e-02,9.99999e-01,1.11613e-02,9.99999e-01
5.210282418e-01,1.21977e-02,9.99999e-01,1.21977e-02,9.99999e-01
5.236333830e-01,1.33070e-02,9.99999e-01,1.33070e-02,9.99999e-01
5.262515499e-01,1.44922e-02,9.99999e-01,1.44922e-02,9.99999e-01
5.288828077e-01,1.57563e-02,9.99999e-01,1.57563e-02,9.99999e-01
5.315272217e-01,1.71025e-02,9.99999e-01,1.71025e-02,9.99999e-01
5.341848578e-01,1.85337e-02,9.99999e-01,1.85337e-02,9.99999e-01
5.368557821e-01,2.00527e-02,9.99999e-01,2.00527e-02,9.99999e-01
5.395400610e-01,2.16626e-02,9.99999e-01,2.16626e-02,9.99999e-01
5.422377613e-01,2.33660e-02,9.99999e-01,2.33660e-02,9.99999e-01
5.449489501e-01,2.51656e-02,9.99999e-01,2.51656e-02,9.99999e-01
5.476736949e-01,2.70643e-02,9.99999e-01,2.70643e-02,9.99999e-01
5.504120634e-01,2.90643e-02,9.99999e-01,2.90643e-02,9.99999e-01
5.531641237e-01,3.11683e-02,9.99999e-01,3.11683e-02,9.99999e-01
5.559299443e-01,3.33784e-02,9.99999e-01,3.33784e-02,9.99999e-01
5.587095940e-01,3.56969e-02,9.99999e-01,3.56969e-02,9.99999e-01
5.615031420e-01,3.81259e-02,9.99999e-01,3.81259e-02,9.99999e-01
5.643106577e-01,4.06672e-02,9.99999e-01,4.06672e-02,9.99999e-01
5.671322110e-01,4.33227e-02,9.99999e-01,4.33227e-02,9.99999e-01
5.699678720e-01,4.60939e-02,9.99999e-01,4.60939e-02,9.99999e-01
5.728177114e-01,4.89824e-02,9.99999e-01,4.89824e-02,9.99999e-01
5.756818000e-01,5.19894e-02,9.99999e-01,5.19894e-02,9.99999e-01
5.785602090e-01,5.51161e-02,9.99999e-01,5.51161e-02,9.99999e-01
5.814530100e-01,5.83635e-02,9.99999e-01,5.83635e-02,9.99999e-01
5.843602750e-01,6.17324e-02,9.99999e-01,6.17324e-02,9.99999e-01
5.872820764e-01,6.52234e-02,9.99999e-01,6.52234e-02,9.99999e-01
5.902184868e-01,6.88370e-02,9.99999e-01,6.88370e-02,9.99999e-01
5.931695792e-01,7.25735e-02,9.99999e-01,7.25735e-02,9.99999e-01
5.961354271e-01,7.64329e-02,9.99999e-01,7.64329e-02,9.99999e-01
5.991161043e-01,8.04152e-02,9.99999e-01,8.04152e-02,9.99999e-01
6.021116848e-01,8.45202e-02,9.99999e-01,8.45202e-02,9.99999e-01
6.051222432e-01,8.87474e-02,9.99999e-01,8.87474e-02,9.99999e-01
6.081478544e-01,9.30963e-02,9.99999e-01,9.30963e-02,9.99999e-01
6.111885937e-01,9.75660e-02,9.99999e-01,9.75660e-02,9.99999e-01
6.142445367e-01,1.02156e-01,9.99999e-01,1.02156e-01,9.99999e-01
6.173157594e-01,1.06864e-01,9.99999e-01,1.06864e-01,9.99999e-01
6.204023382e-01,1.11690e-01,9.99999e-01,1.11690e-01,9.99999e-01
6.235043498e-01,1.16632e-01,9.99999e-01,1.16632e-01,9.99999e-01
6.266218716e-01,1.21689e-01,9.99999e-01,1.21689e-01,9.99999e-01
6.297549810e-01,1.26859e-01,9.99999e-01,1.26859e-01,9.99999e-01
6.329037559e-01,1.32139e-01,9.99999e-01,1.32139e-01,9.99999e-01
6.360682746e-01,1.37529e-01,9.99999e-01,1.37529e-01,9.99999e-01
6.392486160e-01,1.43025e-01,9.99999e-01,1.43025e-01,9.99999e-01
6.424448591e-01,1.48626e-01,9.99999e-01,1.48626e-01,9.99999e-01
6.456570834e-01,1.54329e-01,9.99999e-01,1.54329e-01,9.99999e-01
6.488853688e-01,1.60132e-01,9.99999e-01,1.60132e-01,9.99999e-01
6.521297956e-01,1.66032e-01,9.99999e-01,1.66032e-01,9.99999e-01
6.553904446e-01,1.72026e-01,9.99999e-01,1.72026e-01,9.99999e-01
6.586673968e-01,1.78112e-01,9.99999e-01,1.78112e-01,9.99999e-01
6.619607338e-01,1.84287e-01,9.99999e-01,1.84287e-01,9.99999e-01
6.652705375e-01,1.90547e-01,9.99999e-01,1.90547e-01,9.99999e-01
6.685968902e-01,1.96890e-01,9.99999e-01,1.96890e-01,9.99999e-01
6.719398746e-01,2.03313e-01,9.99999e-01,2.03313e-01,9.99999e-01
6.752995740e-01,2.09812e-01,9.99999e-01,2.09812e-01,9.99999e-01
6.786760719e-01,2.16385e-01,9.99999e-01,2.16385e-01,9.99999e-01
6.820694522e-01,2.23027e-01,9.99999e-01,2.23027e-01,9.99999e-01
6.854797995e-01,2.29736e-01,9.99999e-01,2.29736e-01,9.99999e-01
6.889071985e-01,2.36508e-01,9.99999e-01,2.36508e-01,9.99999e-01
6.923517345e-01,2.43340e-01,9.99999e-01,2.43340e-01,9.99999e-01
6.958134932e-01,2.50229e-01,9.99999e-01,2.50229e-01,9.99999e-01
6.992925606e-01,2.57171e-01,9.99999e-01,2.57171e-01,9.99999e-01
7.027890234e-01,2.64163e-01,9.99999e-01,2.64163e-01,9.99999e-01
7.063029686e-01,2.71201e-01,9.99999e-01,2.71201e-01,9.99999e-01
7.098344834e-01,2.78282e-01,9.99999e-01,2.78282e-01,9.99999e-01
7.133836558e-01,2.85403e-01,9.99999e-01,2.85403e-01,9.99999e-01
7.169505741e-01,2.92559e-01,9.99999e-01,2.92559e-01,9.99999e-01
7.205353270e-01,2.99749e-01,9.99999e-01,2.99749e-01,9.99999e-01
7.241380036e-01,3.06968e-01,9.99999e-01,3.06968e-01,9.99999e-01
7.277586936e-01,3.14213e-01,9.99999e-01,3.14213e-01,9.99999e-01
7.313974871e-01,3.21481e-01,9.99999e-01,3.21481e-01,9.99999e-01
7.350544745e-01,3.28768e-01,9.99999e-01,3.28768e-01,9.99999e-01
7.387297469e-01,3.36072e-01,9.99999e-01,3.36072e-01,9.99999e-01
7.424233956e-01,3.43389e-01,9.99999e-01,3.43389e-01,9.99999e-01
7.461355126e-01,3.50716e-01,9.99999e-01,3.50716e-01,9.99999e-01
7.498661902e-01,3.58051e-01,9.99999e-01,3.58051e-01,9.99999e-01
7.536155211e-01,3.65389e-01,9.99999e-01,3.65389e-01,9.99999e-01
7.573835987e-01,3.72728e-01,9.99999e-01,3.72728e-01,9.99999e-01
7.611705167e-01,3.80065e-01,9.99999e-01,3.80065e-01,9.99999e-01
7.649763693e-01,3.87397e-01,9.99999e-01,3.87397e-01,9.99999e-01
7.688012511e-01,3.94722e-01,9.99999e-01,3.94722e-01,9.99999e-01
7.726452574e-01,4.02037e-01,9.99999e-01,4.02037e-01,9.99999e-01
7.765084837e-01,4.09338e-01,9.99999e-01,4.09338e-01,9.99999e-01
7.803910261e-01,4.01042e-01,9.62598e-01,4.16624e-01,9.99999e-01
7.842929812e-01,3.52113e-01,8.30664e-01,4.23893e-01,9.99999e-01
7.882144461e-01,3.54390e-01,8.21982e-01,4.31140e-01,9.99999e-01
7.921555184e-01,3.90769e-01,8.91423e-01,4.38365e-01,9.99999e-01
7.961162960e-01,4.12099e-01,9.24893e-01,4.45564e-01,9.99999e-01
8.000968774e-01,4.34028e-01,9.58676e-01,4.52736e-01,9.99999e-01
8.040973618e-01,4.49855e-01,9.78203e-01,4.59878e-01,9.99999e-01
8.081178486e-01,4.62325e-01,9.90013e-01,4.66989e-01,9.99999e-01
8.121584379e-01,4.72577e-01,9.96859e-01,4.74066e-01,9.99999e-01
8.162192301e-01,4.80773e-01,9.99304e-01,4.81107e-01,9.99999e-01
8.203003262e-01,4.88105e-01,9.99987e-01,4.88110e-01,9.99999e-01
8.244018279e-01,4.95075e-01,9.99999e-01,4.95075e-01,9.99999e-01
8.285238370e-01,5.01998e-01,9.99999e-01,5.01998e-01,9.99999e-01
8.326664562e-01,5.08878e-01,9.99999e-01,5.08878e-01,9.99999e-01
8.368297885e-01,5.15714e-01,9.99999e-01,5.15714e-01,9.99999e-01
8.410139374e-01,5.22504e-01,9.99999e-01,5.22504e-01,9.99999e-01
8.452190071e-01,5.29246e-01,9.99999e-01,5.29246e-01,9.99999e-01
8.494451021e-01,5.35940e-01,9.99999e-01,5.35940e-01,9.99999e-01
8.536923276e-01,5.42584e-01,9.99999e-01,5.42584e-01,9.99999e-01
8.579607893e-01,5.49176e-01,9.99999e-01,5.49176e-01,9.99999e-01
8.622505932e-01,5.55716e-01,9.99999e-01,5.55716e-01,9.99999e-01
8.665618462e-01,5.18112e-01,9.21575e-01,5.62203e-01,9.99999e-01
8.708946554e-01,3.57456e-01,6.28621e-01,5.68634e-01,9.99999e-01
8.752491287e-01,3.93781e-01,6.84823e-01,5.75010e-01,9.99999e-01
8.796253743e-01,4.71540e-01,8.11139e-01,5.81330e-01,9.99999e-01
8.840235012e-01,5.27099e-01,8.97048e-01,5.87592e-01,9.99999e-01
8.884436187e-01,5.68692e-01,9.57722e-01,5.93796e-01,9.99999e-01
8.928858368e-01,5.89592e-01,9.82749e-01,5.99941e-01,9.99999e-01
8.973502660e-01,6.03441e-01,9.95733e-01,6.06026e-01,9.99999e-01
9.018370173e-01,6.11762e-01,9.99526e-01,6.12051e-01,9.99999e-01
9.063462024e-01,6.11021e-01,9.88682e-01,6.18015e-01,9.99999e-01
9.108779334e-01,6.07075e-01,9.73004e-01,6.23918e-01,9.99999e-01
9.154323231e-01,6.25656e-01,9.93484e-01,6.29759e-01,9.99999e-01
9.200094847e-01,5.81230e-01,9.14548e-01,6.35537e-01,9.99999e-01
9.246095321e-01,5.61055e-01,8.74935e-01,6.41253e-01,9.99999e-01
9.292325798e-01,5.83858e-01,9.02538e-01,6.46906e-01,9.99999e-01
9.338787427e-01,5.89790e-01,9.03899e-01,6.52495e-01,9.99999e-01
9.385481364e-01,6.10909e-01,9.28402e-01,6.58021e-01,9.99999e-01
9.432408771e-01,6.33778e-01,9.55227e-01,6.63483e-01,9.99999e-01
9.479570815e-01,6.53432e-01,9.76901e-01,6.68882e-01,9.99999e-01
9.526968669e-01,6.66640e-01,9.88761e-01,6.74216e-01,9.99999e-01
9.574603512e-01,6.76207e-01,9.95173e-01,6.79486e-01,9.99999e-01
9.622476530e-01,6.83659e-01,9.98489e-01,6.84693e-01,9.99999e-01
9.670588912e-01,6.89521e-01,9.99544e-01,6.89835e-01,9.99999e-01
9.718941857e-01,6.94889e-01,9.99966e-01,6.94913e-01,9.99999e-01
9.767536566e-01,6.99926e-01,9.99999e-01,6.99926e-01,9.99999e-01
9.816374249e-01,7.04876e-01,9.99999e-01,7.04876e-01,9.99999e-01
9.865456120e-01,7.09763e-01,9.99999e-01,7.09763e-01,9.99999e-01
9.914783401e-01,7.14585e-01,9.99999e-01,7.14585e-01,9.99999e-01
9.964357318e-01,7.19344e-01,9.99999e-01,7.19344e-01,9.99999e-01
1.001417910e+00,7.24040e-01,9.99999e-01,7.24040e-01,9.99999e-01
1.006425000e+00,7.28673e-01,9.99999e-01,7.28673e-01,9.99999e-01
1.011457125e+00,7.33243e-01,9.99999e-01,7.33243e-01,9.99999e-01
1.016514411e+00,7.37751e-01,9.99999e-01,7.37751e-01,9.99999e-01
1.021596983e+00,7.42159e-01,9.99949e-01,7.42196e-01,9.99999e-01
1.026704968e+00,7.43291e-01,9.95593e-01,7.46580e-01,9.99999e-01
1.031838492e+00,7.17314e-01,9.55269e-01,7.50902e-01,9.99999e-01
1.036997685e+00,9.83257e-02,1.30204e-01,7.55163e-01,9.99999e-01
1.042182673e+00,5.85062e-02,7.70463e-02,7.59364e-01,9.99999e-01
1.047393587e+00,8.02232e-02,1.05072e-01,7.63504e-01,9.99999e-01
1.052630555e+00,1.13762e-03,1.48207e-03,7.67584e-01,9.99999e-01
1.057893707e+00,3.08709e-03,4.00087e-03,7.71605e-01,9.99999e-01
1.063183176e+00,1.30327e-02,1.68040e-02,7.75567e-01,9.99999e-01
1.068499092e+00,4.43206e-02,5.68599e-02,7.79470e-01,9.99999e-01
1.073841587e+00,1.26427e-01,1.61400e-01,7.83316e-01,9.99999e-01
1.079210795e+00,2.47987e-01,3.15062e-01,7.87103e-01,9.99999e-01
1.084606849e+00,4.16946e-01,5.27223e-01,7.90834e-01,9.99999e-01
1.090029883e+00,5.69966e-01,7.17381e-01,7.94508e-01,9.99999e-01
1.095480033e+00,6.77303e-01,8.48615e-01,7.98127e-01,9.99999e-01
1.100957433e+00,7.40710e-01,9.23936e-01,8.01689e-01,9.99999e-01
1.106462220e+00,7.79226e-01,9.67745e-01,8.05197e-01,9.99999e-01
1.111994531e+00,7.98885e-01,9.87923e-01,8.08651e-01,9.99999e-01
1.117554504e+00,8.09625e-01,9.97013e-01,8.12050e-01,9.99999e-01
1.123142276e+00,8.15235e-01,9.99801e-01,8.15396e-01,9.99999e-01
1.128757988e+00,8.18690e-01,9.99999e-01,8.18690e-01,9.99999e-01
1.134401778e+00,8.21931e-01,9.99999e-01,8.21931e-01,9.99999e-01
1.140073787e+00,8.25121e-01,9.99999e-01,8.25121e-01,9.99999e-01
1.145774156e+00,8.28260e-01,9.99999e-01,8.28260e-01,9.99999e-01
1.151503026e+00,8.31349e-01,9.99999e-01,8.31349e-01,9.99999e-01
1.157260541e+00,8.34387e-01,9.99999e-01,8.34387e-01,9.99999e-01
1.163046844e+00,8.37377e-01,9.99999e-01,8.37377e-01,9.99999e-01
1.168862078e+00,8.40317e-01,9.99999e-01,8.40317e-01,9.99999e-01
1.174706389e+00,8.43210e-01,9.99999e-01,8.43210e-01,9.99999e-01
1.180579921e+00,8.46055e-01,9.99999e-01,8.46055e-01,9.99999e-01
1.186482820e+00,8.48850e-01,9.99995e-01,8.48853e-01,9.99999e-01
1.192415234e+00,8.38482e-01,9.84588e-01,8.51605e-01,9.99999e-01
1.198377311e+00,4.76428e-01,5.57674e-01,8.54312e-01,9.99999e-01
1.204369197e+00,3.02214e-13,3.52653e-13,8.56973e-01,9.99999e-01
1.210391043e+00,1.71351e-49,1.99340e-49,8.59590e-01,9.99999e-01
1.216442998e+00,5.18791e-43,6.01731e-43,8.62162e-01,9.99999e-01
1.222525213e+00,2.18739e-42,2.52967e-42,8.64692e-01,9.99999e-01
1.228637839e+00,7.88776e-33,9.09588e-33,8.67178e-01,9.99999e-01
1.234781029e+00,2.97301e-25,3.41874e-25,8.69623e-01,9.99999e-01
1.240954934e+00,3.29990e-14,3.78417e-14,8.72026e-01,9.99999e-01
1.247159708e+00,2.70391e-09,3.09234e-09,8.74388e-01,9.99999e-01
1.253395507e+00,5.09320e-05,5.80945e-05,8.76709e-01,9.99999e-01
1.259662485e+00,2.17181e-03,2.47080e-03,8.78991e-01,9.99999e-01
1.265960797e+00,3.40639e-02,3.86548e-02,8.81233e-01,9.99999e-01
1.272290601e+00,1.97760e-01,2.23853e-01,8.83436e-01,9.99999e-01
1.278652054e+00,1.93615e-01,2.18626e-01,8.85602e-01,9.99999e-01
1.285045314e+00,3.70187e-03,4.17004e-03,8.87729e-01,9.99999e-01
1.291470541e+00,1.83760e-06,2.06513e-06,8.89820e-01,9.99999e-01
1.297927893e+00,1.75712e-03,1.97014e-03,8.91874e-01,9.99999e-01
1.304417533e+00,7.13182e-02,7.97838e-02,8.93892e-01,9.99999e-01
1.310939621e+00,1.81595e-02,2.02701e-02,8.95875e-01,9.99999e-01
1.317494319e+00,1.94061e-17,2.16146e-17,8.97823e-01,9.99999e-01
1.324081790e+00,6.18234e-12,6.87128e-12,8.99736e-01,9.99999e-01
1.330702199e+00,4.65390e-07,5.16173e-07,9.01616e-01,9.99999e-01
1.337355710e+00,7.92466e-07,8.77143e-07,9.03462e-01,9.99999e-01
1.344042489e+00,2.69708e-07,2.97929e-07,9.05276e-01,9.99999e-01
1.350762701e+00,2.64539e-07,2.91645e-07,9.07057e-01,9.99999e-01
1.357516515e+00,6.49434e-05,7.14600e-05,9.08806e-01,9.99999e-01
1.364304097e+00,1.63929e-03,1.80037e-03,9.10525e-01,9.99999e-01
1.371125618e+00,3.40929e-02,3.73739e-02,9.12212e-01,9.99999e-01
1.377981246e+00,6.05102e-02,6.62132e-02,9.13869e-01,9.99999e-01
1.384871152e+00,1.88463e-01,2.05859e-01,9.15496e-01,9.99999e-01
1.391795508e+00,2.12278e-01,2.31468e-01,9.17094e-01,9.99999e-01
1.398754485e+00,3.71887e-01,4.04813e-01,9.18663e-01,9.99999e-01
1.405748258e+00,4.72657e-01,5.13643e-01,9.20204e-01,9.99999e-01
1.412776999e+00,6.04505e-01,6.55846e-01,9.21717e-01,9.99999e-01
1.419840884e+00,5.51171e-01,5.97021e-01,9.23202e-01,9.99999e-01
1.426940089e+00,4.48478e-02,4.85019e-02,9.24660e-01,9.99999e-01
1.434074789e+00,0.00000e+00,0.00000e+00,9.26092e-01,9.99999e-01
1.441245163e+00,0.00000e+00,0.00000e+00,9.27498e-01,9.99999e-01
1.448451389e+00,0.00000e+00,0.00000e+00,9.28877e-01,9.99999e-01
1.455693646e+00,0.00000e+00,0.00000e+00,9.30232e-01,9.99999e-01
1.462972114e+00,5.21309e-194,5.59607e-194,9.31562e-01,9.99999e-01
1.470286975e+00,3.73302e-81,4.00166e-81,9.32867e-01,9.99999e-01
1.477638409e+00,2.08742e-51,2.23457e-51,9.34149e-01,9.99999e-01
1.485026601e+00,4.23103e-29,4.52320e-29,9.35406e-01,9.99999e-01
1.492451734e+00,8.38384e-25,8.95095e-25,9.36641e-01,9.99999e-01
1.499913993e+00,1.99095e-11,2.12288e-11,9.37853e-01,9.99999e-01
1.507413563e+00,3.53808e-10,3.76775e-10,9.39042e-01,9.99999e-01
1.514950631e+00,1.38505e-11,1.47313e-11,9.40209e-01,9.99999e-01
1.522525384e+00,7.43981e-37,7.90329e-37,9.41355e-01,9.99999e-01
1.530138011e+00,1.60484e-86,1.70279e-86,9.42479e-01,9.99999e-01
1.537788701e+00,2.78675e-64,2.95337e-64,9.43583e-01,9.99999e-01
1.545477645e+00,2.02698e-14,2.14571e-14,9.44666e-01,9.99999e-01
1.553205033e+00,2.82898e-10,2.99132e-10,9.45729e-01,9.99999e-01
1.560971058e+00,9.88956e-11,1.04456e-10,9.46771e-01,9.99999e-01
1.568775913e+00,1.12114e-217,1.18290e-217,9.47795e-01,9.99999e-01
1.576619793e+00,0.00000e+00,0.00000e+00,9.48799e-01,9.99999e-01
1.584502892e+00,2.88432e-278,3.03681e-278,9.49785e-01,9.99999e-01
1.592425406e+00,4.42755e-194,4.65689e-194,9.50752e-01,9.99999e-01
1.600387533e+00,1.72190e-312,1.80928e-312,9.51701e-01,9.99999e-01
1.608389471e+00,0.00000e+00,0.00000e+00,9.52632e-01,9.99999e-01
1.616431418e+00,0.00000e+00,0.00000e+00,9.53545e-01,9.99999e-01
1.624513575e+00,2.12797e-246,2.22954e-246,9.54442e-01,9.99999e-01
1.632636143e+00,3.85939e-183,4.03989e-183,9.55321e-01,9.99999e-01
1.640799324e+00,2.90406e-75,3.03713e-75,9.56184e-01,9.99999e-01
1.649003321e+00,2.92307e-75,3.05431e-75,9.57030e-01,9.99999e-01
1.657248337e+00,2.15622e-58,2.25108e-58,9.57861e-01,9.99999e-01
1.665534579e+00,8.98388e-59,9.37112e-59,9.58676e-01,9.99999e-01
1.673862252e+00,7.36822e-38,7.67942e-38,9.59475e-01,9.99999e-01
1.682231563e+00,1.59957e-26,1.66577e-26,9.60260e-01,9.99999e-01
1.690642721e+00,3.23155e-15,3.36259e-15,9.61029e-01,9.99999e-01
1.699095934e+00,7.05715e-10,7.33755e-10,9.61784e-01,9.99999e-01
1.707591414e+00,1.44183e-05,1.49796e-05,9.62525e-01,9.99999e-01
1.716129371e+00,1.83389e-03,1.90386e-03,9.63251e-01,9.99999e-01
1.724710018e+00,2.95194e-02,3.06229e-02,9.63964e-01,9.99999e-01
1.733333568e+00,1.00787e-01,1.04479e-01,9.64663e-01,9.99999e-01
1.742000236e+00,2.53760e-01,2.62868e-01,9.65348e-01,9.99999e-01
1.750710237e+00,4.99951e-03,5.17535e-03,9.66021e-01,9.99999e-01
1.759463788e+00,4.06397e-36,4.20404e-36,9.66681e-01,9.99999e-01
1.768261107e+00,7.64288e-38,7.90101e-38,9.67328e-01,9.99999e-01
1.777102413e+00,1.33621e-36,1.38043e-36,9.67963e-01,9.99999e-01
1.785987925e+00,1.32856e-34,1.37165e-34,9.68586e-01,9.99999e-01
1.794917864e+00,5.10782e-33,5.27016e-33,9.69197e-01,9.99999e-01
1.803892454e+00,7.31120e-32,7.53890e-32,9.69796e-01,9.99999e-01
1.812911916e+00,1.44308e-30,1.48713e-30,9.70383e-01,9.99999e-01
1.821976476e+00,1.09657e-30,1.12937e-30,9.70960e-01,9.99999e-01
1.831086358e+00,7.58824e-25,7.81064e-25,9.71525e-01,9.99999e-01
1.840241790e+00,3.47541e-21,3.57523e-21,9.72080e-01,9.99999e-01
1.849442999e+00,8.31092e-15,8.54484e-15,9.72624e-01,9.99999e-01
1.858690214e+00,8.65049e-14,8.88909e-14,9.73157e-01,9.99999e-01
1.867983665e+00,1.75984e-14,1.80741e-14,9.73680e-01,9.99999e-01
1.877323583e+00,3.05176e-68,3.13260e-68,9.74193e-01,9.99999e-01
