#,Wave/freq,Total,N2,O2,CO2,Rayleigh,CIA
4.000000000e-01,7.28294e-27,9.99999e-01,9.99999e-01,9.99999e-01,7.28294e-27,9.99999e-01
4.020000000e-01,2.39406e-26,9.99999e-01,9.99999e-01,9.99999e-01,2.39406e-26,9.99999e-01
4.040100000e-01,7.67733e-26,9.99999e-01,9.99999e-01,9.99999e-01,7.67733e-26,9.99999e-01
4.060300500e-01,2.40597e-25,9.99999e-01,9.99999e-01,9.99999e-01,2.40597e-25,9.99999e-01
4.080602003e-01,7.37174e-25,9.99999e-01,9.99999e-01,9.99999e-01,7.37174e-25,9.99999e-01
4.101005013e-01,2.20925e-24,9.99999e-01,9.99999e-01,9.99999e-01,2.20925e-24,9.99999e-01
4.121510038e-01,6.47896e-24,9.99999e-01,9.99999e-01,9.99999e-01,6.47896e-24,9.99999e-01
4.142117588e-01,1.86010e-23,9.99999e-01,9.99999e-01,9.99999e-01,1.86010e-23,9.99999e-01
4.162828176e-01,5.23020e-23,9.99999e-01,9.99999e-01,9.99999e-01,5.23020e-23,9.99999e-01
4.183642317e-01,1.44090e-22,9.99999e-01,9.99999e-01,9.99999e-01,1.44090e-22,9.99999e-01
4.204560528e-01,3.89094e-22,9.99999e-01,9.99999e-01,9.99999e-01,3.89094e-22,9.99999e-01
4.225583331e-01,1.03028e-21,9.99999e-01,9.99999e-01,9.99999e-01,1.03028e-21,9.99999e-01
4.246711247e-01,2.67608e-21,9.99999e-01,9.99999e-01,9.99999e-01,2.67608e-21,9.99999e-01
4.267944804e-01,6.82115e-21,9.99999e-01,9.99999e-01,9.99999e-01,6.82115e-21,9.99999e-01
4.289284528e-01,1.70682e-20,9.99999e-01,9.99999e-01,9.99999e-01,1.70682e-20,9.99999e-01
4.310730950e-01,4.19423e-20,9.99999e-01,9.99999e-01,9.99999e-01,4.19423e-20,9.99999e-01
4.332284605e-01,1.01252e-19,9.99999e-01,9.99999e-01,9.99999e-01,1.01252e-19,9.99999e-01
4.353946028e-01,2.40211e-19,9.99999e-01,9.99999e-01,9.99999e-01,2.40211e-19,9.99999e-01
4.375715758e-01,5.60238e-19,9.99999e-01,9.99999e-01,9.99999e-01,5.60238e-19,9.99999e-01
4.397594337e-01,1.28495e-18,9.99999e-01,9.99999e-01,9.99999e-01,1.28495e-18,9.99999e-01
4.419582309e-01,2.89922e-18,9.99999e-01,9.99999e-01,9.99999e-01,2.89922e-18,9.99999e-01
4.441680220e-01,6.43716e-18,9.99999e-01,9.99999e-01,9.99999e-01,6.43716e-18,9.99999e-01
4.463888621e-01,1.40691e-17,9.99999e-01,9.99999e-01,9.99999e-01,1.40691e-17,9.99999e-01
4.486208064e-01,3.02781e-17,9.99999e-01,9.99999e-01,9.99999e-01,3.02781e-17,9.99999e-01
4.508639105e-01,6.41826e-17,9.99999e-01,9.99999e-01,9.99999e-01,6.41826e-17,9.99999e-01
4.531182300e-01,1.34048e-16,9.99999e-01,9.99999e-01,9.99999e-01,1.34048e-16,9.99999e-01
4.553838212e-01,2.75923e-16,9.99999e-01,9.99999e-01,9.99999e-01,2.75923e-16,9.99999e-01
4.576607403e-01,5.59912e-16,9.99999e-01,9.99999e-01,9.99999e-01,5.59912e-16,9.99999e-01
4.599490440e-01,1.12042e-15,9.99999e-01,9.99999e-01,9.99999e-01,1.12042e-15,9.99999e-01
4.622487892e-01,2.21154e-15,9.99999e-01,9.99999e-01,9.99999e-01,2.21154e-15,9.99999e-01
4.645600332e-01,4.30698e-15,9.99999e-01,9.99999e-01,9.99999e-01,4.30698e-15,9.99999e-01
4.668828333e-01,8.27816e-15,9.99999e-01,9.99999e-01,9.99999e-01,8.27816e-15,9.99999e-01
4.692172475e-01,1.57069e-14,9.99999e-01,9.99999e-01,9.99999e-01,1.57069e-14,9.99999e-01
4.715633337e-01,2.94273e-14,9.99999e-01,9.99999e-01,9.99999e-01,2.94273e-14,9.99999e-01
4.739211504e-01,5.44536e-14,9.99999e-01,9.99999e-01,9.99999e-01,5.44536e-14,9.99999e-01
4.762907561e-01,9.95458e-14,9.99999e-01,9.99999e-01,9.99999e-01,9.95458e-14,9.99999e-01
4.786722099e-01,1.79822e-13,9.99999e-01,9.99999e-01,9.99999e-01,1.79822e-13,9.99999e-01
4.810655710e-01,3.21065e-13,9.99999e-01,9.99999e-01,9.99999e-01,3.21065e-13,9.99999e-01
4.834708988e-01,5.66720e-13,9.99999e-01,9.99999e-01,9.99999e-01,5.66720e-13,9.99999e-01
4.858882533e-01,9.89167e-13,9.99999e-01,9.99999e-01,9.99999e-01,9.89167e-13,9.99999e-01
4.883176946e-01,1.70763e-12,9.99999e-01,9.99999e-01,9.99999e-01,1.70763e-12,9.99999e-01
4.907592831e-01,2.91630e-12,9.99999e-01,9.99999e-01,9.99999e-01,2.91630e-12,9.99999e-01
4.932130795e-01,4.92811e-12,9.99999e-01,9.99999e-01,9.99999e-01,4.92811e-12,9.99999e-01
4.956791449e-01,8.24191e-12,9.99999e-01,9.99999e-01,9.99999e-01,8.24191e-12,9.99999e-01
4.981575406e-01,1.36447e-11,9.99999e-01,9.99999e-01,9.99999e-01,1.36447e-11,9.99999e-01
5.006483283e-01,2.23653e-11,9.99999e-01,9.99999e-01,9.99999e-01,2.23653e-11,9.99999e-01
5.031515699e-01,3.63034e-11,9.99999e-01,9.99999e-01,9.99999e-01,3.63034e-11,9.99999e-01
5.056673278e-01,5.83666e-11,9.99999e-01,9.99999e-01,9.99999e-01,5.83666e-11,9.99999e-01
5.081956644e-01,9.29625e-11,9.99999e-01,9.99999e-01,9.99999e-01,9.29625e-11,9.99999e-01
5.107366428e-01,1.46710e-10,9.99999e-01,9.99999e-01,9.99999e-01,1.46710e-10,9.99999e-01
5.132903260e-01,2.29454e-10,9.99999e-01,9.99999e-01,9.99999e-01,2.29454e-10,9.99999e-01
5.158567776e-01,3.55710e-10,9.99999e-01,9.99999e-01,9.99999e-01,3.55710e-10,9.99999e-01
5.184360615e-01,5.46682e-10,9.99999e-01,9.99999e-01,9.99999e-01,5.46682e-10,9.99999e-01
5.210282418e-01,8.33082e-10,9.99999e-01,9.99999e-01,9.99999e-01,8.33082e-10,9.99999e-01
5.236333830e-01,1.25900e-09,9.99999e-01,9.99999e-01,9.99999e-01,1.25900e-09,9.99999e-01
5.262515499e-01,1.88722e-09,9.99999e-01,9.99999e-01,9.99999e-01,1.88722e-09,9.99999e-01
5.288828077e-01,2.80638e-09,9.99999e-01,9.99999e-01,9.99999e-01,2.80638e-09,9.99999e-01
5.315272217e-01,4.14064e-09,9.99999e-01,9.99999e-01,9.99999e-01,4.14064e-09,9.99999e-01
5.341848578e-01,6.06249e-09,9.99999e-01,9.99999e-01,9.99999e-01,6.06249e-09,9.99999e-01
5.368557821e-01,8.80976e-09,9.99999e-01,9.99999e-01,9.99999e-01,8.80976e-09,9.99999e-01
5.395400610e-01,1.27078e-08,9.99999e-01,9.99999e-01,9.99999e-01,1.27078e-08,9.99999e-01
5.422377613e-01,1.81985e-08,9.99999e-01,9.99999e-01,9.99999e-01,1.81985e-08,9.99999e-01
5.449489501e-01,2.58773e-08,9.99999e-01,9.99999e-01,9.99999e-01,2.58773e-08,9.99999e-01
5.476736949e-01,3.65412e-08,9.99999e-01,9.99999e-01,9.99999e-01,3.65412e-08,9.99999e-01
5.504120634e-01,5.12490e-08,9.99999e-01,9.99999e-01,9.99999e-01,5.12490e-08,9.99999e-01
5.531641237e-01,7.13982e-08,9.99999e-01,9.99999e-01,9.99999e-01,7.13982e-08,9.99999e-01
5.559299443e-01,9.88200e-08,9.99999e-01,9.99999e-01,9.99999e-01,9.88200e-08,9.99999e-01
5.587095940e-01,1.35898e-07,9.99999e-01,9.99999e-01,9.99999e-01,1.35898e-07,9.99999e-01
5.615031420e-01,1.85716e-07,9.99999e-01,9.99999e-01,9.99999e-01,1.85716e-07,9.99999e-01
5.643106577e-01,2.52236e-07,9.99999e-01,9.99999e-01,9.99999e-01,2.52236e-07,9.99999e-01
5.671322110e-01,3.40516e-07,9.99999e-01,9.99999e-01,9.99999e-01,3.40516e-07,9.99999e-01
5.699678720e-01,4.56977e-07,9.99999e-01,9.99999e-01,9.99999e-01,4.56977e-07,9.99999e-01
5.728177114e-01,6.09715e-07,9.99999e-01,9.99999e-01,9.99999e-01,6.09715e-07,9.99999e-01
5.756818000e-01,8.08883e-07,9.99999e-01,9.99999e-01,9.99999e-01,8.08883e-07,9.99999e-01
5.785602090e-01,1.06714e-06,9.99999e-01,9.99999e-01,9.99999e-01,1.06714e-06,9.99999e-01
5.814530100e-01,1.40016e-06,9.99999e-01,9.99999e-01,9.99999e-01,1.40016e-06,9.99999e-01
5.843602750e-01,1.82728e-06,9.99999e-01,9.99999e-01,9.99999e-01,1.82728e-06,9.99999e-01
5.872820764e-01,2.37219e-06,9.99999e-01,9.99999e-01,9.99999e-01,2.37219e-06,9.99999e-01
5.902184868e-01,3.06375e-06,9.99999e-01,9.99999e-01,9.99999e-01,3.06375e-06,9.99999e-01
5.931695792e-01,3.93698e-06,9.99999e-01,9.99999e-01,9.99999e-01,3.93698e-06,9.99999e-01
5.961354271e-01,5.03411e-06,9.99999e-01,9.99999e-01,9.99999e-01,5.03411e-06,9.99999e-01
5.991161043e-01,6.40579e-06,9.99999e-01,9.99999e-01,9.99999e-01,6.40579e-06,9.99999e-01
6.021116848e-01,8.11252e-06,9.99999e-01,9.99999e-01,9.99999e-01,8.11252e-06,9.99999e-01
6.051222432e-01,1.02262e-05,9.99999e-01,9.99999e-01,9.99999e-01,1.02262e-05,9.99999e-01
6.081478544e-01,1.28317e-05,9.99999e-01,9.99999e-01,9.99999e-01,1.28317e-05,9.99999e-01
6.111885937e-01,1.60290e-05,9.99999e-01,9.99999e-01,9.99999e-01,1.60290e-05,9.99999e-01
6.142445367e-01,1.99352e-05,9.99999e-01,9.99999e-01,9.99999e-01,1.99352e-05,9.99999e-01
6.173157594e-01,2.46868e-05,9.99999e-01,9.99999e-01,9.99999e-01,2.46868e-05,9.99999e-01
6.204023382e-01,3.04422e-05,9.99999e-01,9.99999e-01,9.99999e-01,3.04422e-05,9.99999e-01
6.235043498e-01,3.73842e-05,9.99999e-01,9.99999e-01,9.99999e-01,3.73842e-05,9.99999e-01
6.266218716e-01,4.57234e-05,9.99999e-01,9.99999e-01,9.99999e-01,4.57234e-05,9.99999e-01
6.297549810e-01,5.57008e-05,9.99999e-01,9.99999e-01,9.99999e-01,5.57008e-05,9.99999e-01
6.329037559e-01,6.75914e-05,9.99999e-01,9.99999e-01,9.99999e-01,6.75914e-05,9.99999e-01
6.360682746e-01,8.17074e-05,9.99999e-01,9.99999e-01,9.99999e-01,8.17074e-05,9.99999e-01
6.392486160e-01,9.84021e-05,9.99999e-01,9.99999e-01,9.99999e-01,9.84021e-05,9.99999e-01
6.424448591e-01,1.18074e-04,9.99999e-01,9.99999e-01,9.99999e-01,1.18074e-04,9.99999e-01
6.456570834e-01,1.41168e-04,9.99999e-01,9.99999e-01,9.99999e-01,1.41168e-04,9.99999e-01
6.488853688e-01,1.68186e-04,9.99999e-01,9.99999e-01,9.99999e-01,1.68186e-04,9.99999e-01
6.521297956e-01,1.99682e-04,9.99999e-01,9.99999e-01,9.99999e-01,1.99682e-04,9.99999e-01
6.553904446e-01,2.36275e-04,9.99999e-01,9.99999e-01,9.99999e-01,2.36275e-04,9.99999e-01
6.586673968e-01,2.78645e-04,9.99999e-01,9.99999e-01,9.99999e-01,2.78645e-04,9.99999e-01
6.619607338e-01,3.27544e-04,9.99999e-01,9.99999e-01,9.99999e-01,3.27544e-04,9.99999e-01
6.652705375e-01,3.83797e-04,9.99999e-01,9.99999e-01,9.99999e-01,3.83797e-04,9.99999e-01
6.685968902e-01,4.48306e-04,9.99999e-01,9.99999e-01,9.99999e-01,4.48306e-04,9.99999e-01
6.719398746e-01,5.22052e-04,9.99999e-01,9.99999e-01,9.99999e-01,5.22052e-04,9.99999e-01
6.752995740e-01,6.06104e-04,9.99999e-01,9.99999e-01,9.99999e-01,6.06104e-04,9.99999e-01
6.786760719e-01,7.01617e-04,9.99999e-01,9.99999e-01,9.99999e-01,7.01617e-04,9.99999e-01
6.820694522e-01,8.09837e-04,9.99999e-01,9.99999e-01,9.99999e-01,8.09837e-04,9.99999e-01
6.854797995e-01,9.32104e-04,9.99999e-01,9.99999e-01,9.99999e-01,9.32104e-04,9.99999e-01
6.889071985e-01,1.06985e-03,9.99999e-01,9.99999e-01,9.99999e-01,1.06985e-03,9.99999e-01
6.923517345e-01,1.22462e-03,9.99999e-01,9.99999e-01,9.99999e-01,1.22462e-03,9.99999e-01
6.958134932e-01,1.39805e-03,9.99999e-01,9.99999e-01,9.99999e-01,1.39805e-03,9.99999e-01
6.992925606e-01,1.59186e-03,9.99999e-01,9.99999e-01,9.99999e-01,1.59186e-03,9.99999e-01
7.027890234e-01,1.80790e-03,9.99999e-01,9.99999e-01,9.99999e-01,1.80790e-03,9.99999e-01
7.063029686e-01,2.04810e-03,9.99999e-01,9.99999e-01,9.99999e-01,2.04810e-03,9.99999e-01
7.098344834e-01,2.31451e-03,9.99999e-01,9.99999e-01,9.99999e-01,2.31451e-03,9.99999e-01
7.133836558e-01,2.60926e-03,9.99999e-01,9.99999e-01,9.99999e-01,2.60926e-03,9.99999e-01
7.169505741e-01,2.93459e-03,9.99999e-01,9.99999e-01,9.99999e-01,2.93459e-03,9.99999e-01
7.205353270e-01,3.29284e-03,9.99999e-01,9.99999e-01,9.99999e-01,3.29284e-03,9.99999e-01
7.241380036e-01,3.68642e-03,9.99999e-01,9.99999e-01,9.99999e-01,3.68642e-03,9.99999e-01
7.277586936e-01,4.11785e-03,9.99999e-01,9.99999e-01,9.99999e-01,4.11785e-03,9.99999e-01
7.313974871e-01,4.58972e-03,9.99999e-01,9.99999e-01,9.99999e-01,4.58972e-03,9.99999e-01
7.350544745e-01,5.10472e-03,9.99999e-01,9.99999e-01,9.99999e-01,5.10472e-03,9.99999e-01
7.387297469e-01,5.66559e-03,9.99999e-01,9.99999e-01,9.99999e-01,5.66559e-03,9.99999e-01
7.424233956e-01,6.27515e-03,9.99999e-01,9.99999e-01,9.99999e-01,6.27515e-03,9.99999e-01
7.461355126e-01,6.93627e-03,9.99999e-01,9.99999e-01,9.99999e-01,6.93627e-03,9.99999e-01
7.498661902e-01,7.65190e-03,9.99999e-01,9.99999e-01,9.99999e-01,7.65190e-03,9.99999e-01
7.536155211e-01,8.42500e-03,9.99999e-01,9.99999e-01,9.99999e-01,8.42500e-03,9.99999e-01
7.573835987e-01,9.25860e-03,9.99999e-01,9.99999e-01,9.99999e-01,9.25860e-03,9.99999e-01
7.611705167e-01,1.01557e-02,9.99999e-01,9.99999e-01,9.99999e-01,1.01557e-02,9.99999e-01
7.649763693e-01,1.11195e-02,9.99999e-01,9.99999e-01,9.99999e-01,1.11195e-02,9.99999e-01
7.688012511e-01,1.21528e-02,9.99999e-01,9.99999e-01,9.99999e-01,1.21528e-02,9.99999e-01
7.726452574e-01,1.32590e-02,9.99999e-01,9.99999e-01,9.99999e-01,1.32590e-02,9.99999e-01
7.765084837e-01,1.44409e-02,9.99999e-01,9.99999e-01,9.99999e-01,1.44409e-02,9.99999e-01
7.803910261e-01,1.36978e-02,9.99999e-01,9.99999e-01,8.72373e-01,1.57018e-02,9.99999e-01
7.842929812e-01,7.82592e-03,9.99999e-01,9.99999e-01,4.59148e-01,1.70444e-02,9.99999e-01
7.882144461e-01,8.25926e-03,9.99999e-01,9.99999e-01,4.47124e-01,1.84720e-02,9.99999e-01
7.921555184e-01,1.19010e-02,9.99999e-01,9.99999e-01,5.95428e-01,1.99873e-02,9.99999e-01
7.961162960e-01,1.50985e-02,9.99999e-01,9.99999e-01,6.99223e-01,2.15933e-02,9.99999e-01
8.000968774e-01,1.91779e-02,9.99999e-01,9.99999e-01,8.23343e-01,2.32927e-02,9.99999e-01
8.040973618e-01,2.26651e-02,9.99999e-01,9.99999e-01,9.03411e-01,2.50883e-02,9.99999e-01
8.081178486e-01,2.57561e-02,9.99999e-01,9.99999e-01,9.54541e-01,2.69827e-02,9.99999e-01
8.121584379e-01,2.85614e-02,9.99999e-01,9.99999e-01,9.85606e-01,2.89785e-02,9.99999e-01
8.162192301e-01,3.09786e-02,9.99999e-01,9.99999e-01,9.96800e-01,3.10780e-02,9.99999e-01
8.203003262e-01,3.32819e-02,9.99999e-01,9.99999e-01,9.99946e-01,3.32836e-02,9.99999e-01
8.244018279e-01,3.55976e-02,9.99999e-01,9.99999e-01,9.99999e-01,3.55976e-02,9.99999e-01
8.285238370e-01,3.80219e-02,9.99999e-01,9.99999e-01,9.99999e-01,3.80219e-02,9.99999e-01
8.326664562e-01,4.05584e-02,9.99999e-01,9.99999e-01,9.99999e-01,4.05584e-02,9.99999e-01
8.368297885e-01,4.32091e-02,9.99999e-01,9.99999e-01,9.99999e-01,4.32091e-02,9.99999e-01
8.410139374e-01,4.59754e-02,9.99999e-01,9.99999e-01,9.99999e-01,4.59754e-02,9.99999e-01
8.452190071e-01,4.88590e-02,9.99999e-01,9.99999e-01,9.99999e-01,4.88590e-02,9.99999e-01
8.494451021e-01,5.18610e-02,9.99999e-01,9.99999e-01,9.99999e-01,5.18610e-02,9.99999e-01
8.536923276e-01,5.49827e-02,9.99999e-01,9.99999e-01,9.99999e-01,5.49827e-02,9.99999e-01
8.579607893e-01,5.82250e-02,9.99999e-01,9.99999e-01,9.99999e-01,5.82250e-02,9.99999e-01
8.622505932e-01,6.15888e-02,9.99999e-01,9.99999e-01,9.99999e-01,6.15888e-02,9.99999e-01
8.665618462e-01,5.46281e-02,9.99999e-01,9.99999e-01,8.39467e-01,6.50747e-02,9.99999e-01
8.708946554e-01,1.08175e-02,9.99999e-01,9.99999e-01,1.57498e-01,6.86831e-02,9.99999e-01
8.752491287e-01,1.45083e-02,9.99999e-01,9.99999e-01,2.00351e-01,7.24145e-02,9.99999e-01
8.796253743e-01,3.05186e-02,9.99999e-01,9.99999e-01,4.00145e-01,7.62687e-02,9.99999e-01
8.840235012e-01,4.90533e-02,9.99999e-01,9.99999e-01,6.11287e-01,8.02459e-02,9.99999e-01
8.884436187e-01,6.92048e-02,9.99999e-01,9.99999e-01,8.20489e-01,8.43458e-02,9.99999e-01
8.928858368e-01,8.17267e-02,9.99999e-01,9.99999e-01,9.22757e-01,8.85679e-02,9.99999e-01
8.973502660e-01,9.11010e-02,9.99999e-01,9.99999e-01,9.80511e-01,9.29116e-02,9.99999e-01
9.018370173e-01,9.71648e-02,9.99999e-01,9.99999e-01,9.97827e-01,9.73763e-02,9.99999e-01
9.063462024e-01,9.68286e-02,9.99999e-01,9.99999e-01,9.49662e-01,1.01961e-01,9.99999e-01
9.108779334e-01,9.40271e-02,9.99999e-01,9.99999e-01,8.81522e-01,1.06664e-01,9.99999e-01
9.154323231e-01,1.08196e-01,9.99999e-01,9.99999e-01,9.70495e-01,1.11486e-01,9.99999e-01
9.200094847e-01,8.45334e-02,9.99999e-01,9.99999e-01,7.26088e-01,1.16423e-01,9.99999e-01
9.246095321e-01,6.61117e-02,9.99999e-01,9.99999e-01,5.44241e-01,1.21475e-01,9.99999e-01
9.292325798e-01,8.02457e-02,9.99999e-01,9.99999e-01,6.33652e-01,1.26640e-01,9.99999e-01
9.338787427e-01,8.36957e-02,9.99999e-01,9.99999e-01,6.34463e-01,1.31916e-01,9.99999e-01
9.385481364e-01,9.77426e-02,9.99999e-01,9.99999e-01,7.11886e-01,1.37301e-01,9.99999e-01
9.432408771e-01,1.15582e-01,9.99999e-01,9.99999e-01,8.09436e-01,1.42793e-01,9.99999e-01
9.479570815e-01,1.33151e-01,9.99999e-01,9.99999e-01,8.97305e-01,1.48389e-01,9.99999e-01
9.526968669e-01,1.46245e-01,9.99999e-01,9.99999e-01,9.49096e-01,1.54088e-01,9.99999e-01
9.574603512e-01,1.56344e-01,9.99999e-01,9.99999e-01,9.77842e-01,1.59887e-01,9.99999e-01
9.622476530e-01,1.64626e-01,9.99999e-01,9.99999e-01,9.93023e-01,1.65783e-01,9.99999e-01
9.670588912e-01,1.71413e-01,9.99999e-01,9.99999e-01,9.97899e-01,1.71773e-01,9.99999e-01
9.718941857e-01,1.77829e-01,9.99999e-01,9.99999e-01,9.99848e-01,1.77855e-01,9.99999e-01
9.767536566e-01,1.84026e-01,9.99999e-01,9.99999e-01,9.99999e-01,1.84026e-01,9.99999e-01
9.816374249e-01,1.90283e-01,9.99999e-01,9.99999e-01,9.99999e-01,1.90283e-01,9.99999e-01
9.865456120e-01,1.96623e-01,9.99999e-01,9.99999e-01,9.99999e-01,1.96623e-01,9.99999e-01
9.914783401e-01,2.03042e-01,9.99999e-01,9.99999e-01,9.99999e-01,2.03042e-01,9.99999e-01
9.964357318e-01,2.09538e-01,9.99999e-01,9.99999e-01,9.99999e-01,2.09538e-01,9.99999e-01
1.001417910e+00,2.16108e-01,9.99999e-01,9.99999e-01,9.99999e-01,2.16108e-01,9.99999e-01
1.006425000e+00,2.22747e-01,9.99999e-01,9.99999e-01,9.99999e-01,2.22747e-01,9.99999e-01
1.011457125e+00,2.29453e-01,9.99999e-01,9.99999e-01,9.99999e-01,2.29453e-01,9.99999e-01
1.016514411e+00,2.36223e-01,9.99999e-01,9.99999e-01,9.99999e-01,2.36223e-01,9.99999e-01
1.021596983e+00,2.42991e-01,9.99999e-01,9.99999e-01,9.99742e-01,2.43053e-01,9.99999e-01
1.026704968e+00,2.44825e-01,9.99999e-01,9.99999e-01,9.79538e-01,2.49939e-01,9.99999e-01
1.031838492e+00,2.22646e-01,9.99999e-01,9.99999e-01,8.66733e-01,2.56879e-01,9.99999e-01
1.036997685e+00,6.23067e-03,9.99999e-01,9.99999e-01,2.36127e-02,2.63869e-01,9.99999e-01
1.042182673e+00,4.61994e-05,9.99999e-01,9.99999e-01,1.70537e-04,2.70905e-01,9.99999e-01
1.047393587e+00,1.32430e-04,9.99999e-01,9.99999e-01,4.76393e-04,2.77985e-01,9.99999e-01
1.052630555e+00,4.62340e-11,9.99999e-01,9.99999e-01,1.62165e-10,2.85104e-01,9.99999e-01
1.057893707e+00,1.70369e-10,9.99999e-01,9.99999e-01,5.82939e-10,2.92259e-01,9.99999e-01
1.063183176e+00,7.68871e-08,9.99999e-01,9.99999e-01,2.56763e-07,2.99447e-01,9.99999e-01
1.068499092e+00,2.17443e-06,9.99999e-01,9.99999e-01,7.09058e-06,3.06665e-01,9.99999e-01
1.073841587e+00,1.20991e-04,9.99999e-01,9.99999e-01,3.85433e-04,3.13909e-01,9.99999e-01
1.079210795e+00,2.46052e-03,9.99999e-01,9.99999e-01,7.66098e-03,3.21176e-01,9.99999e-01
1.084606849e+00,1.91241e-02,9.99999e-01,9.99999e-01,5.82229e-02,3.28463e-01,9.99999e-01
1.090029883e+00,7.48946e-02,9.99999e-01,9.99999e-01,2.23056e-01,3.35766e-01,9.99999e-01
1.095480033e+00,1.62586e-01,9.99999e-01,9.99999e-01,4.73897e-01,3.43083e-01,9.99999e-01
1.100957433e+00,2.43490e-01,9.99999e-01,9.99999e-01,6.94872e-01,3.50409e-01,9.99999e-01
1.106462220e+00,3.07515e-01,9.99999e-01,9.99999e-01,8.59598e-01,3.57743e-01,9.99999e-01
1.111994531e+00,3.45115e-01,9.99999e-01,9.99999e-01,9.45310e-01,3.65081e-01,9.99999e-01
1.117554504e+00,3.67317e-01,9.99999e-01,9.99999e-01,9.86295e-01,3.72420e-01,9.99999e-01
1.123142276e+00,3.79411e-01,9.99999e-01,9.99999e-01,9.99088e-01,3.79758e-01,9.99999e-01
1.128757988e+00,3.87090e-01,9.99999e-01,9.99999e-01,9.99999e-01,3.87090e-01,9.99999e-01
1.134401778e+00,3.94415e-01,9.99999e-01,9.99999e-01,9.99999e-01,3.94415e-01,9.99999e-01
1.140073787e+00,4.01731e-01,9.99999e-01,9.99999e-01,9.99999e-01,4.01731e-01,9.99999e-01
1.145774156e+00,4.09033e-01,9.99999e-01,9.99999e-01,9.99999e-01,4.09033e-01,9.99999e-01
1.151503026e+00,4.16320e-01,9.99999e-01,9.99999e-01,9.99999e-01,4.16320e-01,9.99999e-01
1.157260541e+00,4.23588e-01,9.99999e-01,9.99999e-01,9.99999e-01,4.23588e-01,9.99999e-01
1.163046844e+00,4.30837e-01,9.99999e-01,9.99999e-01,9.99999e-01,4.30837e-01,9.99999e-01
1.168862078e+00,4.38063e-01,9.99999e-01,9.99999e-01,9.99999e-01,4.38063e-01,9.99999e-01
1.174706389e+00,4.45263e-01,9.99999e-01,9.99999e-01,9.99999e-01,4.45263e-01,9.99999e-01
1.180579921e+00,4.52436e-01,9.99999e-01,9.99999e-01,9.99999e-01,4.52436e-01,9.99999e-01
1.186482820e+00,4.59568e-01,9.99999e-01,9.99999e-01,9.99973e-01,4.59580e-01,9.99999e-01
1.192415234e+00,4.35882e-01,9.99999e-01,9.99999e-01,9.33981e-01,4.66692e-01,9.99999e-01
1.198377311e+00,2.24987e-01,9.99999e-01,9.99999e-01,4.74886e-01,4.73770e-01,9.99999e-01
1.204369197e+00,1.69985e-53,9.99999e-01,9.99999e-01,3.53537e-53,4.80813e-01,9.99999e-01
1.210391043e+00,1.85580e-222,9.99999e-01,9.99999e-01,3.80429e-222,4.87818e-01,9.99999e-01
1.216442998e+00,3.07398e-192,9.99999e-01,9.99999e-01,6.21276e-192,4.94784e-01,9.99999e-01
1.222525213e+00,2.49583e-189,9.99999e-01,9.99999e-01,4.97465e-189,5.01708e-01,9.99999e-01
1.228637839e+00,1.19843e-145,9.99999e-01,9.99999e-01,2.35636e-145,5.08590e-01,9.99999e-01
