#,Wave/freq,Total,N2,O2,CO2,Rayleigh,CIA
4.000000000e-01,1.38920e-06,9.99999e-01,9.99999e-01,9.99999e-01,1.38920e-06,9.99999e-01
4.020000000e-01,1.81374e-06,9.99999e-01,9.99999e-01,9.99999e-01,1.81374e-06,9.99999e-01
4.040100000e-01,2.35496e-06,9.99999e-01,9.99999e-01,9.99999e-01,2.35496e-06,9.99999e-01
4.060300500e-01,3.04194e-06,9.99999e-01,9.99999e-01,9.99999e-01,3.04194e-06,9.99999e-01
4.080602003e-01,3.90951e-06,9.99999e-01,9.99999e-01,9.99999e-01,3.90951e-06,9.99999e-01
4.101005013e-01,4.99967e-06,9.99999e-01,9.99999e-01,9.99999e-01,4.99967e-06,9.99999e-01
4.121510038e-01,6.36283e-06,9.99999e-01,9.99999e-01,9.99999e-01,6.36283e-06,9.99999e-01
4.142117588e-01,8.05918e-06,9.99999e-01,9.99999e-01,9.99999e-01,8.05918e-06,9.99999e-01
4.162828176e-01,1.01602e-05,9.99999e-01,9.99999e-01,9.99999e-01,1.01602e-05,9.99999e-01
4.183642317e-01,1.27506e-05,9.99999e-01,9.99999e-01,9.99999e-01,1.27506e-05,9.99999e-01
4.204560528e-01,1.59297e-05,9.99999e-01,9.99999e-01,9.99999e-01,1.59297e-05,9.99999e-01
4.225583331e-01,1.98142e-05,9.99999e-01,9.99999e-01,9.99999e-01,1.98142e-05,9.99999e-01
4.246711247e-01,2.45399e-05,9.99999e-01,9.99999e-01,9.99999e-01,2.45399e-05,9.99999e-01
4.267944804e-01,3.02646e-05,9.99999e-01,9.99999e-01,9.99999e-01,3.02646e-05,9.99999e-01
4.289284528e-01,3.71704e-05,9.99999e-01,9.99999e-01,9.99999e-01,3.71704e-05,9.99999e-01
4.310730950e-01,4.54670e-05,9.99999e-01,9.99999e-01,9.99999e-01,4.54670e-05,9.99999e-01
4.332284605e-01,5.53946e-05,9.99999e-01,9.99999e-01,9.99999e-01,5.53946e-05,9.99999e-01
4.353946028e-01,6.72272e-05,9.99999e-01,9.99999e-01,9.99999e-01,6.72272e-05,9.99999e-01
4.375715758e-01,8.12758e-05,9.99999e-01,9.99999e-01,9.99999e-01,8.12758e-05,9.99999e-01
4.397594337e-01,9.78925e-05,9.99999e-01,9.99999e-01,9.99999e-01,9.78925e-05,9.99999e-01
4.419582309e-01,1.17474e-04,9.99999e-01,9.99999e-01,9.99999e-01,1.17474e-04,9.99999e-01
4.441680220e-01,1.40466e-04,9.99999e-01,9.99999e-01,9.99999e-01,1.40466e-04,9.99999e-01
4.463888621e-01,1.67365e-04,9.99999e-01,9.99999e-01,9.99999e-01,1.67365e-04,9.99999e-01
4.486208064e-01,1.98727e-04,9.99999e-01,9.99999e-01,9.99999e-01,1.98727e-04,9.99999e-01
4.508639105e-01,2.35167e-04,9.99999e-01,9.99999e-01,9.99999e-01,2.35167e-04,9.99999e-01
4.531182300e-01,2.77364e-04,9.99999e-01,9.99999e-01,9.99999e-01,2.77364e-04,9.99999e-01
4.553838212e-01,3.26069e-04,9.99999e-01,9.99999e-01,9.99999e-01,3.26069e-04,9.99999e-01
4.576607403e-01,3.82102e-04,9.99999e-01,9.99999e-01,9.99999e-01,3.82102e-04,9.99999e-01
4.599490440e-01,4.46365e-04,9.99999e-01,9.99999e-01,9.99999e-01,4.46365e-04,9.99999e-01
4.622487892e-01,5.19837e-04,9.99999e-01,9.99999e-01,9.99999e-01,5.19837e-04,9.99999e-01
4.645600332e-01,6.03583e-04,9.99999e-01,9.99999e-01,9.99999e-01,6.03583e-04,9.99999e-01
4.668828333e-01,6.98756e-04,9.99999e-01,9.99999e-01,9.99999e-01,6.98756e-04,9.99999e-01
4.692172475e-01,8.06599e-04,9.99999e-01,9.99999e-01,9.99999e-01,8.06599e-04,9.99999e-01
4.715633337e-01,9.28451e-04,9.99999e-01,9.99999e-01,9.99999e-01,9.28451e-04,9.99999e-01
4.739211504e-01,1.06574e-03,9.99999e-01,9.99999e-01,9.99999e-01,1.06574e-03,9.99999e-01
4.762907561e-01,1.22001e-03,9.99999e-01,9.99999e-01,9.99999e-01,1.22001e-03,9.99999e-01
4.786722099e-01,1.39289e-03,9.99999e-01,9.99999e-01,9.99999e-01,1.39289e-03,9.99999e-01
4.810655710e-01,1.58610e-03,9.99999e-01,9.99999e-01,9.99999e-01,1.58610e-03,9.99999e-01
4.834708988e-01,1.80149e-03,9.99999e-01,9.99999e-01,9.99999e-01,1.80149e-03,9.99999e-01
4.858882533e-01,2.04098e-03,9.99999e-01,9.99999e-01,9.99999e-01,2.04098e-03,9.99999e-01
4.883176946e-01,2.30662e-03,9.99999e-01,9.99999e-01,9.99999e-01,2.30662e-03,9.99999e-01
4.907592831e-01,2.60054e-03,9.99999e-01,9.99999e-01,9.99999e-01,2.60054e-03,9.99999e-01
4.932130795e-01,2.92498e-03,9.99999e-01,9.99999e-01,9.99999e-01,2.92498e-03,9.99999e-01
4.956791449e-01,3.28226e-03,9.99999e-01,9.99999e-01,9.99999e-01,3.28226e-03,9.99999e-01
4.981575406e-01,3.67481e-03,9.99999e-01,9.99999e-01,9.99999e-01,3.67481e-03,9.99999e-01
5.006483283e-01,4.10514e-03,9.99999e-01,9.99999e-01,9.99999e-01,4.10514e-03,9.99999e-01
5.031515699e-01,4.57584e-03,9.99999e-01,9.99999e-01,9.99999e-01,4.57584e-03,9.99999e-01
5.056673278e-01,5.08958e-03,9.99999e-01,9.99999e-01,9.99999e-01,5.08958e-03,9.99999e-01
5.081956644e-01,5.64912e-03,9.99999e-01,9.99999e-01,9.99999e-01,5.64912e-03,9.99999e-01
5.107366428e-01,6.25726e-03,9.99999e-01,9.99999e-01,9.99999e-01,6.25726e-03,9.99999e-01
5.132903260e-01,6.91690e-03,9.99999e-01,9.99999e-01,9.99999e-01,6.91690e-03,9.99999e-01
5.158567776e-01,7.63095e-03,9.99999e-01,9.99999e-01,9.99999e-01,7.63095e-03,9.99999e-01
5.184360615e-01,8.40239e-03,9.99999e-01,9.99999e-01,9.99999e-01,8.40239e-03,9.99999e-01
5.210282418e-01,9.23424e-03,9.99999e-01,9.99999e-01,9.99999e-01,9.23424e-03,9.99999e-01
5.236333830e-01,1.01295e-02,9.99999e-01,9.99999e-01,9.99999e-01,1.01295e-02,9.99999e-01
5.262515499e-01,1.10913e-02,9.99999e-01,9.99999e-01,9.99999e-01,1.10913e-02,9.99999e-01
5.288828077e-01,1.21227e-02,9.99999e-01,9.99999e-01,9.99999e-01,1.21227e-02,9.99999e-01
5.315272217e-01,1.32268e-02,9.99999e-01,9.99999e-01,9.99999e-01,1.32268e-02,9.99999e-01
5.341848578e-01,1.44065e-02,9.99999e-01,9.99999e-01,9.99999e-01,1.44065e-02,9.99999e-01
5.368557821e-01,1.56651e-02,9.99999e-01,9.99999e-01,9.99999e-01,1.56651e-02,9.99999e-01
5.395400610e-01,1.70054e-02,9.99999e-01,9.99999e-01,9.99999e-01,1.70054e-02,9.99999e-01
5.422377613e-01,1.84305e-02,9.99999e-01,9.99999e-01,9.99999e-01,1.84305e-02,9.99999e-01
5.449489501e-01,1.99433e-02,9.99999e-01,9.99999e-01,9.99999e-01,1.99433e-02,9.99999e-01
5.476736949e-01,2.15467e-02,9.99999e-01,9.99999e-01,9.99999e-01,2.15467e-02,9.99999e-01
5.504120634e-01,2.32435e-02,9.99999e-01,9.99999e-01,9.99999e-01,2.32435e-02,9.99999e-01
5.531641237e-01,2.50363e-02,9.99999e-01,9.99999e-01,9.99999e-01,2.50363e-02,9.99999e-01
5.559299443e-01,2.69279e-02,9.99999e-01,9.99999e-01,9.99999e-01,2.69279e-02,9.99999e-01
5.587095940e-01,2.89208e-02,9.99999e-01,9.99999e-01,9.99999e-01,2.89208e-02,9.99999e-01
5.615031420e-01,3.10174e-02,9.99999e-01,9.99999e-01,9.99999e-01,3.10174e-02,9.99999e-01
5.643106577e-01,3.32200e-02,9.99999e-01,9.99999e-01,9.99999e-01,3.32200e-02,9.99999e-01
5.671322110e-01,3.55308e-02,9.99999e-01,9.99999e-01,9.99999e-01,3.55308e-02,9.99999e-01
5.699678720e-01,3.79520e-02,9.99999e-01,9.99999e-01,9.99999e-01,3.79520e-02,9.99999e-01
5.728177114e-01,4.04854e-02,9.99999e-01,9.99999e-01,9.99999e-01,4.04854e-02,9.99999e-01
5.756818000e-01,4.31328e-02,9.99999e-01,9.99999e-01,9.99999e-01,4.31328e-02,9.99999e-01
5.785602090e-01,4.58958e-02,9.99999e-01,9.99999e-01,9.99999e-01,4.58958e-02,9.99999e-01
5.814530100e-01,4.87760e-02,9.99999e-01,9.99999e-01,9.99999e-01,4.87760e-02,9.99999e-01
5.843602750e-01,5.17747e-02,9.99999e-01,9.99999e-01,9.99999e-01,5.17747e-02,9.99999e-01
5.872820764e-01,5.48930e-02,9.99999e-01,9.99999e-01,9.99999e-01,5.48930e-02,9.99999e-01
5.902184868e-01,5.81319e-02,9.99999e-01,9.99999e-01,9.99999e-01,5.81319e-02,9.99999e-01
5.931695792e-01,6.14923e-02,9.99999e-01,9.99999e-01,9.99999e-01,6.14923e-02,9.99999e-01
5.961354271e-01,6.49747e-02,9.99999e-01,9.99999e-01,9.99999e-01,6.49747e-02,9.99999e-01
5.991161043e-01,6.85797e-02,9.99999e-01,9.99999e-01,9.99999e-01,6.85797e-02,9.99999e-01
6.021116848e-01,7.23075e-02,9.99999e-01,9.99999e-01,9.99999e-01,7.23075e-02,9.99999e-01
6.051222432e-01,7.61584e-02,9.99999e-01,9.99999e-01,9.99999e-01,7.61584e-02,9.99999e-01
6.081478544e-01,8.01321e-02,9.99999e-01,9.99999e-01,9.99999e-01,8.01321e-02,9.99999e-01
6.111885937e-01,8.42285e-02,9.99999e-01,9.99999e-01,9.99999e-01,8.42285e-02,9.99999e-01
6.142445367e-01,8.84471e-02,9.99999e-01,9.99999e-01,9.99999e-01,8.84471e-02,9.99999e-01
6.173157594e-01,9.27875e-02,9.99999e-01,9.99999e-01,9.99999e-01,9.27875e-02,9.99999e-01
6.204023382e-01,9.72487e-02,9.99999e-01,9.99999e-01,9.99999e-01,9.72487e-02,9.99999e-01
6.235043498e-01,1.01830e-01,9.99999e-01,9.99999e-01,9.99999e-01,1.01830e-01,9.99999e-01
6.266218716e-01,1.06530e-01,9.99999e-01,9.99999e-01,9.99999e-01,1.06530e-01,9.99999e-01
6.297549810e-01,1.11348e-01,9.99999e-01,9.99999e-01,9.99999e-01,1.11348e-01,9.99999e-01
6.329037559e-01,1.16282e-01,9.99999e-01,9.99999e-01,9.99999e-01,1.16282e-01,9.99999e-01
6.360682746e-01,1.21331e-01,9.99999e-01,9.99999e-01,9.99999e-01,1.21331e-01,9.99999e-01
6.392486160e-01,1.26493e-01,9.99999e-01,9.99999e-01,9.99999e-01,1.26493e-01,9.99999e-01
6.424448591e-01,1.31765e-01,9.99999e-01,9.99999e-01,9.99999e-01,1.31765e-01,9.99999e-01
6.456570834e-01,1.37147e-01,9.99999e-01,9.99999e-01,9.99999e-01,1.37147e-01,9.99999e-01
6.488853688e-01,1.42636e-01,9.99999e-01,9.99999e-01,9.99999e-01,1.42636e-01,9.99999e-01
6.521297956e-01,1.48230e-01,9.99999e-01,9.99999e-01,9.99999e-01,1.48230e-01,9.99999e-01
6.553904446e-01,1.53926e-01,9.99999e-01,9.99999e-01,9.99999e-01,1.53926e-01,9.99999e-01
6.586673968e-01,1.59722e-01,9.99999e-01,9.99999e-01,9.99999e-01,1.59722e-01,9.99999e-01
6.619607338e-01,1.65615e-01,9.99999e-01,9.99999e-01,9.99999e-01,1.65615e-01,9.99999e-01
6.652705375e-01,1.71603e-01,9.99999e-01,9.99999e-01,9.99999e-01,1.71603e-01,9.99999e-01
6.685968902e-01,1.77683e-01,9.99999e-01,9.99999e-01,9.99999e-01,1.77683e-01,9.99999e-01
6.719398746e-01,1.83851e-01,9.99999e-01,9.99999e-01,9.99999e-01,1.83851e-01,9.99999e-01
6.752995740e-01,1.90106e-01,9.99999e-01,9.99999e-01,9.99999e-01,1.90106e-01,9.99999e-01
6.786760719e-01,1.96443e-01,9.99999e-01,9.99999e-01,9.99999e-01,1.96443e-01,9.99999e-01
6.820694522e-01,2.02860e-01,9.99999e-01,9.99999e-01,9.99999e-01,2.02860e-01,9.99999e-01
6.854797995e-01,2.09354e-01,9.99999e-01,9.99999e-01,9.99999e-01,2.09354e-01,9.99999e-01
6.889071985e-01,2.15922e-01,9.99999e-01,9.99999e-01,9.99999e-01,2.15922e-01,9.99999e-01
6.923517345e-01,2.22559e-01,9.99999e-01,9.99999e-01,9.99999e-01,2.22559e-01,9.99999e-01
6.958134932e-01,2.29263e-01,9.99999e-01,9.99999e-01,9.99999e-01,2.29263e-01,9.99999e-01
6.992925606e-01,2.36031e-01,9.99999e-01,9.99999e-01,9.99999e-01,2.36031e-01,9.99999e-01
7.027890234e-01,2.42860e-01,9.99999e-01,9.99999e-01,9.99999e-01,2.42860e-01,9.99999e-01
7.063029686e-01,2.49745e-01,9.99999e-01,9.99999e-01,9.99999e-01,2.49745e-01,9.99999e-01
7.098344834e-01,2.56683e-01,9.99999e-01,9.99999e-01,9.99999e-01,2.56683e-01,9.99999e-01
7.133836558e-01,2.63671e-01,9.99999e-01,9.99999e-01,9.99999e-01,2.63671e-01,9.99999e-01
7.169505741e-01,2.70706e-01,9.99999e-01,9.99999e-01,9.99999e-01,2.70706e-01,9.99999e-01
7.205353270e-01,2.77784e-01,9.99999e-01,9.99999e-01,9.99999e-01,2.77784e-01,9.99999e-01
7.241380036e-01,2.84902e-01,9.99999e-01,9.99999e-01,9.99999e-01,2.84902e-01,9.99999e-01
7.277586936e-01,2.92057e-01,9.99999e-01,9.99999e-01,9.99999e-01,2.92057e-01,9.99999e-01
7.313974871e-01,2.99244e-01,9.99999e-01,9.99999e-01,9.99999e-01,2.99244e-01,9.99999e-01
7.350544745e-01,3.06461e-01,9.99999e-01,9.99999e-01,9.99999e-01,3.06461e-01,9.99999e-01
7.387297469e-01,3.13704e-01,9.99999e-01,9.99999e-01,9.99999e-01,3.13704e-01,9.99999e-01
7.424233956e-01,3.20971e-01,9.99999e-01,9.99999e-01,9.99999e-01,3.20971e-01,9.99999e-01
7.461355126e-01,3.28257e-01,9.99999e-01,9.99999e-01,9.99999e-01,3.28257e-01,9.99999e-01
7.498661902e-01,3.35560e-01,9.99999e-01,9.99999e-01,9.99999e-01,3.35560e-01,9.99999e-01
7.536155211e-01,3.42876e-01,9.99999e-01,9.99999e-01,9.99999e-01,3.42876e-01,9.99999e-01
7.573835987e-01,3.50203e-01,9.99999e-01,9.99999e-01,9.99999e-01,3.50203e-01,9.99999e-01
7.611705167e-01,3.57536e-01,9.99999e-01,9.99999e-01,9.99999e-01,3.57536e-01,9.99999e-01
7.649763693e-01,3.64874e-01,9.99999e-01,9.99999e-01,9.99999e-01,3.64874e-01,9.99999e-01
7.688012511e-01,3.72213e-01,9.99999e-01,9.99999e-01,9.99999e-01,3.72213e-01,9.99999e-01
7.726452574e-01,3.79551e-01,9.99999e-01,9.99999e-01,9.99999e-01,3.79551e-01,9.99999e-01
7.765084837e-01,3.86884e-01,9.99999e-01,9.99999e-01,9.99999e-01,3.86884e-01,9.99999e-01
7.803910261e-01,3.77371e-01,9.99999e-01,9.99999e-01,9.57287e-01,3.94209e-01,9.99999e-01
7.842929812e-01,3.31635e-01,9.99999e-01,9.99999e-01,8.25940e-01,4.01524e-01,9.99999e-01
7.882144461e-01,3.33022e-01,9.99999e-01,9.99999e-01,8.14580e-01,4.08827e-01,9.99999e-01
7.921555184e-01,3.68849e-01,9.99999e-01,9.99999e-01,8.86412e-01,4.16114e-01,9.99999e-01
7.961162960e-01,3.90628e-01,9.99999e-01,9.99999e-01,9.22632e-01,4.23384e-01,9.99999e-01
8.000968774e-01,4.12220e-01,9.99999e-01,9.99999e-01,9.57243e-01,4.30633e-01,9.99999e-01
8.040973618e-01,4.28079e-01,9.99999e-01,9.99999e-01,9.77663e-01,4.37859e-01,9.99999e-01
8.081178486e-01,4.40460e-01,9.99999e-01,9.99999e-01,9.89662e-01,4.45060e-01,9.99999e-01
8.121584379e-01,4.50793e-01,9.99999e-01,9.99999e-01,9.96812e-01,4.52234e-01,9.99999e-01
8.162192301e-01,4.59055e-01,9.99999e-01,9.99999e-01,9.99295e-01,4.59379e-01,9.99999e-01
8.203003262e-01,4.66487e-01,9.99999e-01,9.99999e-01,9.99989e-01,4.66492e-01,9.99999e-01
8.244018279e-01,4.73571e-01,9.99999e-01,9.99999e-01,9.99999e-01,4.73571e-01,9.99999e-01
8.285238370e-01,4.80615e-01,9.99999e-01,9.99999e-01,9.99999e-01,4.80615e-01,9.99999e-01
8.326664562e-01,4.87621e-01,9.99999e-01,9.99999e-01,9.99999e-01,4.87621e-01,9.99999e-01
8.368297885e-01,4.94588e-01,9.99999e-01,9.99999e-01,9.99999e-01,4.94588e-01,9.99999e-01
8.410139374e-01,5.01514e-01,9.99999e-01,9.99999e-01,9.99999e-01,5.01514e-01,9.99999e-01
8.452190071e-01,5.08397e-01,9.99999e-01,9.99999e-01,9.99999e-01,5.08397e-01,9.99999e-01
8.494451021e-01,5.15236e-01,9.99999e-01,9.99999e-01,9.99999e-01,5.15236e-01,9.99999e-01
8.536923276e-01,5.22029e-01,9.99999e-01,9.99999e-01,9.99999e-01,5.22029e-01,9.99999e-01
8.579607893e-01,5.28775e-01,9.99999e-01,9.99999e-01,9.99999e-01,5.28775e-01,9.99999e-01
8.622505932e-01,5.35472e-01,9.99999e-01,9.99999e-01,9.99999e-01,5.35472e-01,9.99999e-01
8.665618462e-01,4.94782e-01,9.99999e-01,9.99999e-01,9.12680e-01,5.42120e-01,9.99999e-01
8.708946554e-01,3.38128e-01,9.99999e-01,9.99999e-01,6.16217e-01,5.48716e-01,9.99999e-01
8.752491287e-01,3.75415e-01,9.99999e-01,9.99999e-01,6.76106e-01,5.55259e-01,9.99999e-01
8.796253743e-01,4.52683e-01,9.99999e-01,9.99999e-01,8.05843e-01,5.61750e-01,9.99999e-01
8.840235012e-01,5.07864e-01,9.99999e-01,9.99999e-01,8.93834e-01,5.68185e-01,9.99999e-01
8.884436187e-01,5.49733e-01,9.99999e-01,9.99999e-01,9.56780e-01,5.74565e-01,9.99999e-01
8.928858368e-01,5.70577e-01,9.99999e-01,9.99999e-01,9.82247e-01,5.80889e-01,9.99999e-01
8.973502660e-01,5.84615e-01,9.99999e-01,9.99999e-01,9.95673e-01,5.87155e-01,9.99999e-01
9.018370173e-01,5.93080e-01,9.99999e-01,9.99999e-01,9.99522e-01,5.93363e-01,9.99999e-01
9.063462024e-01,5.92099e-01,9.99999e-01,9.99999e-01,9.87634e-01,5.99512e-01,9.99999e-01
9.108779334e-01,5.88706e-01,9.99999e-01,9.99999e-01,9.72100e-01,6.05601e-01,9.99999e-01
9.154323231e-01,6.07604e-01,9.99999e-01,9.99999e-01,9.93416e-01,6.11631e-01,9.99999e-01
9.200094847e-01,5.61276e-01,9.99999e-01,9.99999e-01,9.08802e-01,6.17599e-01,9.99999e-01
9.246095321e-01,5.42880e-01,9.99999e-01,9.99999e-01,8.70689e-01,6.23506e-01,9.99999e-01
9.292325798e-01,5.64474e-01,9.99999e-01,9.99999e-01,8.96913e-01,6.29351e-01,9.99999e-01
9.338787427e-01,5.71929e-01,9.99999e-01,9.99999e-01,9.00485e-01,6.35134e-01,9.99999e-01
9.385481364e-01,5.93282e-01,9.99999e-01,9.99999e-01,9.25767e-01,6.40854e-01,9.99999e-01
9.432408771e-01,6.16716e-01,9.99999e-01,9.99999e-01,9.53913e-01,6.46512e-01,9.99999e-01
9.479570815e-01,6.36493e-01,9.99999e-01,9.99999e-01,9.76057e-01,6.52106e-01,9.99999e-01
9.526968669e-01,6.50007e-01,9.99999e-01,9.99999e-01,9.88399e-01,6.57636e-01,9.99999e-01
9.574603512e-01,6.59804e-01,9.99999e-01,9.99999e-01,9.95025e-01,6.63103e-01,9.99999e-01
9.622476530e-01,6.67467e-01,9.99999e-01,9.99999e-01,9.98446e-01,6.68505e-01,9.99999e-01
9.670588912e-01,6.73531e-01,9.99999e-01,9.99999e-01,9.99534e-01,6.73844e-01,9.99999e-01
9.718941857e-01,6.79097e-01,9.99999e-01,9.99999e-01,9.99967e-01,6.79119e-01,9.99999e-01
9.767536566e-01,6.84330e-01,9.99999e-01,9.99999e-01,9.99999e-01,6.84330e-01,9.99999e-01
9.816374249e-01,6.89476e-01,9.99999e-01,9.99999e-01,9.99999e-01,6.89476e-01,9.99999e-01
9.865456120e-01,6.94559e-01,9.99999e-01,9.99999e-01,9.99999e-01,6.94559e-01,9.99999e-01
9.914783401e-01,6.99577e-01,9.99999e-01,9.99999e-01,9.99999e-01,6.99577e-01,9.99999e-01
9.964357318e-01,7.04532e-01,9.99999e-01,9.99999e-01,9.99999e-01,7.04532e-01,9.99999e-01
1.001417910e+00,7.09422e-01,9.99999e-01,9.99999e-01,9.99999e-01,7.09422e-01,9.99999e-01
1.006425000e+00,7.14249e-01,9.99999e-01,9.99999e-01,9.99999e-01,7.14249e-01,9.99999e-01
1.011457125e+00,7.19013e-01,9.99999e-01,9.99999e-01,9.99999e-01,7.19013e-01,9.99999e-01
1.016514411e+00,7.23713e-01,9.99999e-01,9.99999e-01,9.99999e-01,7.23713e-01,9.99999e-01
1.021596983e+00,7.28299e-01,9.99999e-01,9.99999e-01,9.99929e-01,7.28350e-01,9.99999e-01
1.026704968e+00,7.29367e-01,9.99999e-01,9.99999e-01,9.95145e-01,7.32925e-01,9.99999e-01
1.031838492e+00,6.97485e-01,9.99999e-01,9.99999e-01,9.45823e-01,7.37437e-01,9.99999e-01
1.036997685e+00,8.96611e-02,9.99999e-01,9.99999e-01,1.20855e-01,7.41887e-01,9.99999e-01
1.042182673e+00,5.27860e-02,9.99999e-01,9.99999e-01,7.07325e-02,7.46275e-01,9.99999e-01
1.047393587e+00,7.10451e-02,9.99999e-01,9.99999e-01,9.46509e-02,7.50601e-01,9.99999e-01
1.052630555e+00,8.71587e-04,9.99999e-01,9.99999e-01,1.15462e-03,7.54867e-01,9.99999e-01
1.057893707e+00,2.53397e-03,9.99999e-01,9.99999e-01,3.33824e-03,7.59071e-01,9.99999e-01
1.063183176e+00,1.11062e-02,9.99999e-01,9.99999e-01,1.45518e-02,7.63216e-01,9.99999e-01
1.068499092e+00,3.84860e-02,9.99999e-01,9.99999e-01,5.01576e-02,7.67300e-01,9.99999e-01
1.073841587e+00,1.16135e-01,9.99999e-01,9.99999e-01,1.50565e-01,7.71325e-01,9.99999e-01
1.079210795e+00,2.33688e-01,9.99999e-01,9.99999e-01,3.01419e-01,7.75291e-01,9.99999e-01
1.084606849e+00,4.01625e-01,9.99999e-01,9.99999e-01,5.15433e-01,7.79199e-01,9.99999e-01
1.090029883e+00,5.54706e-01,9.99999e-01,9.99999e-01,7.08393e-01,7.83048e-01,9.99999e-01
1.095480033e+00,6.63939e-01,9.99999e-01,9.99999e-01,8.43804e-01,7.86840e-01,9.99999e-01
1.100957433e+00,7.28411e-01,9.99999e-01,9.99999e-01,9.21368e-01,7.90575e-01,9.99999e-01
1.106462220e+00,7.67821e-01,9.99999e-01,9.99999e-01,9.66720e-01,7.94253e-01,9.99999e-01
1.111994531e+00,7.87927e-01,9.99999e-01,9.99999e-01,9.87532e-01,7.97875e-01,9.99999e-01
1.117554504e+00,7.98998e-01,9.99999e-01,9.99999e-01,9.96950e-01,8.01441e-01,9.99999e-01
1.123142276e+00,8.04792e-01,9.99999e-01,9.99999e-01,9.99799e-01,8.04953e-01,9.99999e-01
1.128757988e+00,8.08410e-01,9.99999e-01,9.99999e-01,9.99999e-01,8.08410e-01,9.99999e-01
1.134401778e+00,8.11814e-01,9.99999e-01,9.99999e-01,9.99999e-01,8.11814e-01,9.99999e-01
1.140073787e+00,8.15164e-01,9.99999e-01,9.99999e-01,9.99999e-01,8.15164e-01,9.99999e-01
1.145774156e+00,8.18461e-01,9.99999e-01,9.99999e-01,9.99999e-01,8.18461e-01,9.99999e-01
1.151503026e+00,8.21706e-01,9.99999e-01,9.99999e-01,9.99999e-01,8.21706e-01,9.99999e-01
1.157260541e+00,8.24899e-01,9.99999e-01,9.99999e-01,9.99999e-01,8.24899e-01,9.99999e-01
1.163046844e+00,8.28042e-01,9.99999e-01,9.99999e-01,9.99999e-01,8.28042e-01,9.99999e-01
1.168862078e+00,8.31134e-01,9.99999e-01,9.99999e-01,9.99999e-01,8.31134e-01,9.99999e-01
1.174706389e+00,8.34176e-01,9.99999e-01,9.99999e-01,9.99999e-01,8.34176e-01,9.99999e-01
1.180579921e+00,8.37169e-01,9.99999e-01,9.99999e-01,9.99999e-01,8.37169e-01,9.99999e-01
1.186482820e+00,8.40104e-01,9.99999e-01,9.99999e-01,9.99989e-01,8.40113e-01,9.99999e-01
1.192415234e+00,8.28525e-01,9.99999e-01,9.99999e-01,9.82818e-01,8.43009e-01,9.99999e-01
1.198377311e+00,4.68742e-01,9.99999e-01,9.99999e-01,5.54161e-01,8.45857e-01,9.99999e-01
1.204369197e+00,9.57522e-14,9.99999e-01,9.99999e-01,1.12828e-13,8.48659e-01,9.99999e-01
1.210391043e+00,1.23058e-51,9.99999e-01,9.99999e-01,1.44533e-51,8.51414e-01,9.99999e-01
1.216442998e+00,7.33972e-45,9.99999e-01,9.99999e-01,8.59327e-45,8.54123e-01,9.99999e-01
1.222525213e+00,3.30629e-44,9.99999e-01,9.99999e-01,3.85894e-44,8.56788e-01,9.99999e-01
1.228637839e+00,3.05610e-34,9.99999e-01,9.99999e-01,3.55606e-34,8.59408e-01,9.99999e-01
