#,Wave/freq,Total,N2,O2,CO2,Rayleigh,CIA
4.000000000e-01,2.67640e-06,9.99999e-01,9.99999e-01,9.99999e-01,2.67640e-06,9.99999e-01
4.020000000e-01,3.44931e-06,9.99999e-01,9.99999e-01,9.99999e-01,3.44931e-06,9.99999e-01
4.040100000e-01,4.42207e-06,9.99999e-01,9.99999e-01,9.99999e-01,4.42207e-06,9.99999e-01
4.060300500e-01,5.64141e-06,9.99999e-01,9.99999e-01,9.99999e-01,5.64141e-06,9.99999e-01
4.080602003e-01,7.16244e-06,9.99999e-01,9.99999e-01,9.99999e-01,7.16244e-06,9.99999e-01
4.101005013e-01,9.05078e-06,9.99999e-01,9.99999e-01,9.99999e-01,9.05078e-06,9.99999e-01
4.121510038e-01,1.13842e-05,9.99999e-01,9.99999e-01,9.99999e-01,1.13842e-05,9.99999e-01
4.142117588e-01,1.42546e-05,9.99999e-01,9.99999e-01,9.99999e-01,1.42546e-05,9.99999e-01
4.162828176e-01,1.77695e-05,9.99999e-01,9.99999e-01,9.99999e-01,1.77695e-05,9.99999e-01
4.183642317e-01,2.20550e-05,9.99999e-01,9.99999e-01,9.99999e-01,2.20550e-05,9.99999e-01
4.204560528e-01,2.72574e-05,9.99999e-01,9.99999e-01,9.99999e-01,2.72574e-05,9.99999e-01
4.225583331e-01,3.35463e-05,9.99999e-01,9.99999e-01,9.99999e-01,3.35463e-05,9.99999e-01
4.246711247e-01,4.11172e-05,9.99999e-01,9.99999e-01,9.99999e-01,4.11172e-05,9.99999e-01
4.267944804e-01,5.01947e-05,9.99999e-01,9.99999e-01,9.99999e-01,5.01947e-05,9.99999e-01
4.289284528e-01,6.10352e-05,9.99999e-01,9.99999e-01,9.99999e-01,6.10352e-05,9.99999e-01
4.310730950e-01,7.39308e-05,9.99999e-01,9.99999e-01,9.99999e-01,7.39308e-05,9.99999e-01
4.332284605e-01,8.92127e-05,9.99999e-01,9.99999e-01,9.99999e-01,8.92127e-05,9.99999e-01
4.353946028e-01,1.07255e-04,9.99999e-01,9.99999e-01,9.99999e-01,1.07255e-04,9.99999e-01
4.375715758e-01,1.28477e-04,9.99999e-01,9.99999e-01,9.99999e-01,1.28477e-04,9.99999e-01
4.397594337e-01,1.53350e-04,9.99999e-01,9.99999e-01,9.99999e-01,1.53350e-04,9.99999e-01
4.419582309e-01,1.82401e-04,9.99999e-01,9.99999e-01,9.99999e-01,1.82401e-04,9.99999e-01
4.441680220e-01,2.16213e-04,9.99999e-01,9.99999e-01,9.99999e-01,2.16213e-04,9.99999e-01
4.463888621e-01,2.55433e-04,9.99999e-01,9.99999e-01,9.99999e-01,2.55433e-04,9.99999e-01
4.486208064e-01,3.00775e-04,9.99999e-01,9.99999e-01,9.99999e-01,3.00775e-04,9.99999e-01
4.508639105e-01,3.53025e-04,9.99999e-01,9.99999e-01,9.99999e-01,3.53025e-04,9.99999e-01
4.531182300e-01,4.13042e-04,9.99999e-01,9.99999e-01,9.99999e-01,4.13042e-04,9.99999e-01
4.553838212e-01,4.81767e-04,9.99999e-01,9.99999e-01,9.99999e-01,4.81767e-04,9.99999e-01
4.576607403e-01,5.60221e-04,9.99999e-01,9.99999e-01,9.99999e-01,5.60221e-04,9.99999e-01
4.599490440e-01,6.49512e-04,9.99999e-01,9.99999e-01,9.99999e-01,6.49512e-04,9.99999e-01
4.622487892e-01,7.50838e-04,9.99999e-01,9.99999e-01,9.99999e-01,7.50838e-04,9.99999e-01
4.645600332e-01,8.65490e-04,9.99999e-01,9.99999e-01,9.99999e-01,8.65490e-04,9.99999e-01
4.668828333e-01,9.94852e-04,9.99999e-01,9.99999e-01,9.99999e-01,9.94852e-04,9.99999e-01
4.692172475e-01,1.14041e-03,9.99999e-01,9.99999e-01,9.99999e-01,1.14041e-03,9.99999e-01
4.715633337e-01,1.30374e-03,9.99999e-01,9.99999e-01,9.99999e-01,1.30374e-03,9.99999e-01
4.739211504e-01,1.48653e-03,9.99999e-01,9.99999e-01,9.99999e-01,1.48653e-03,9.99999e-01
4.762907561e-01,1.69056e-03,9.99999e-01,9.99999e-01,9.99999e-01,1.69056e-03,9.99999e-01
4.786722099e-01,1.91771e-03,9.99999e-01,9.99999e-01,9.99999e-01,1.91771e-03,9.99999e-01
4.810655710e-01,2.16997e-03,9.99999e-01,9.99999e-01,9.99999e-01,2.16997e-03,9.99999e-01
4.834708988e-01,2.44944e-03,9.99999e-01,9.99999e-01,9.99999e-01,2.44944e-03,9.99999e-01
4.858882533e-01,2.75828e-03,9.99999e-01,9.99999e-01,9.99999e-01,2.75828e-03,9.99999e-01
4.883176946e-01,3.09879e-03,9.99999e-01,9.99999e-01,9.99999e-01,3.09879e-03,9.99999e-01
4.907592831e-01,3.47334e-03,9.99999e-01,9.99999e-01,9.99999e-01,3.47334e-03,9.99999e-01
4.932130795e-01,3.88440e-03,9.99999e-01,9.99999e-01,9.99999e-01,3.88440e-03,9.99999e-01
4.956791449e-01,4.33452e-03,9.99999e-01,9.99999e-01,9.99999e-01,4.33452e-03,9.99999e-01
4.981575406e-01,4.82633e-03,9.99999e-01,9.99999e-01,9.99999e-01,4.82633e-03,9.99999e-01
5.006483283e-01,5.36255e-03,9.99999e-01,9.99999e-01,9.99999e-01,5.36255e-03,9.99999e-01
5.031515699e-01,5.94596e-03,9.99999e-01,9.99999e-01,9.99999e-01,5.94596e-03,9.99999e-01
5.056673278e-01,6.57940e-03,9.99999e-01,9.99999e-01,9.99999e-01,6.57940e-03,9.99999e-01
5.081956644e-01,7.26578e-03,9.99999e-01,9.99999e-01,9.99999e-01,7.26578e-03,9.99999e-01
5.107366428e-01,8.00806e-03,9.99999e-01,9.99999e-01,9.99999e-01,8.00806e-03,9.99999e-01
5.132903260e-01,8.80923e-03,9.99999e-01,9.99999e-01,9.99999e-01,8.80923e-03,9.99999e-01
5.158567776e-01,9.67232e-03,9.99999e-01,9.99999e-01,9.99999e-01,9.67232e-03,9.99999e-01
5.184360615e-01,1.06004e-02,9.99999e-01,9.99999e-01,9.99999e-01,1.06004e-02,9.99999e-01
5.210282418e-01,1.15965e-02,9.99999e-01,9.99999e-01,9.99999e-01,1.15965e-02,9.99999e-01
5.236333830e-01,1.26637e-02,9.99999e-01,9.99999e-01,9.99999e-01,1.26637e-02,9.99999e-01
5.262515499e-01,1.38051e-02,9.99999e-01,9.99999e-01,9.99999e-01,1.38051e-02,9.99999e-01
5.288828077e-01,1.50238e-02,9.99999e-01,9.99999e-01,9.99999e-01,1.50238e-02,9.99999e-01
5.315272217e-01,1.63227e-02,9.99999e-01,9.99999e-01,9.99999e-01,1.63227e-02,9.99999e-01
5.341848578e-01,1.77049e-02,9.99999e-01,9.99999e-01,9.99999e-01,1.77049e-02,9.99999e-01
5.368557821e-01,1.91733e-02,9.99999e-01,9.99999e-01,9.99999e-01,1.91733e-02,9.99999e-01
5.395400610e-01,2.07309e-02,9.99999e-01,9.99999e-01,9.99999e-01,2.07309e-02,9.99999e-01
5.422377613e-01,2.23805e-02,9.99999e-01,9.99999e-01,9.99999e-01,2.23805e-02,9.99999e-01
5.449489501e-01,2.41248e-02,9.99999e-01,9.99999e-01,9.99999e-01,2.41248e-02,9.99999e-01
5.476736949e-01,2.59665e-02,9.99999e-01,9.99999e-01,9.99999e-01,2.59665e-02,9.99999e-01
5.504120634e-01,2.79083e-02,9.99999e-01,9.99999e-01,9.99999e-01,2.79083e-02,9.99999e-01
5.531641237e-01,2.99526e-02,9.99999e-01,9.99999e-01,9.99999e-01,2.99526e-02,9.99999e-01
5.559299443e-01,3.21017e-02,9.99999e-01,9.99999e-01,9.99999e-01,3.21017e-02,9.99999e-01
5.587095940e-01,3.43580e-02,9.99999e-01,9.99999e-01,9.99999e-01,3.43580e-02,9.99999e-01
5.615031420e-01,3.67236e-02,9.99999e-01,9.99999e-01,9.99999e-01,3.67236e-02,9.99999e-01
5.643106577e-01,3.92004e-02,9.99999e-01,9.99999e-01,9.99999e-01,3.92004e-02,9.99999e-01
5.671322110e-01,4.17904e-02,9.99999e-01,9.99999e-01,9.99999e-01,4.17904e-02,9.99999e-01
5.699678720e-01,4.44953e-02,9.99999e-01,9.99999e-01,9.99999e-01,4.44953e-02,9.99999e-01
5.728177114e-01,4.73166e-02,9.99999e-01,9.99999e-01,9.99999e-01,4.73166e-02,9.99999e-01
5.756818000e-01,5.02557e-02,9.99999e-01,9.99999e-01,9.99999e-01,5.02557e-02,9.99999e-01
5.785602090e-01,5.33138e-02,9.99999e-01,9.99999e-01,9.99999e-01,5.33138e-02,9.99999e-01
5.814530100e-01,5.64921e-02,9.99999e-01,9.99999e-01,9.99999e-01,5.64921e-02,9.99999e-01
5.843602750e-01,5.97915e-02,9.99999e-01,9.99999e-01,9.99999e-01,5.97915e-02,9.99999e-01
5.872820764e-01,6.32126e-02,9.99999e-01,9.99999e-01,9.99999e-01,6.32126e-02,9.99999e-01
5.902184868e-01,6.67561e-02,9.99999e-01,9.99999e-01,9.99999e-01,6.67561e-02,9.99999e-01
5.931695792e-01,7.04222e-02,9.99999e-01,9.99999e-01,9.99999e-01,7.04222e-02,9.99999e-01
5.961354271e-01,7.42114e-02,9.99999e-01,9.99999e-01,9.99999e-01,7.42114e-02,9.99999e-01
5.991161043e-01,7.81235e-02,9.99999e-01,9.99999e-01,9.99999e-01,7.81235e-02,9.99999e-01
6.021116848e-01,8.21584e-02,9.99999e-01,9.99999e-01,9.99999e-01,8.21584e-02,9.99999e-01
6.051222432e-01,8.63158e-02,9.99999e-01,9.99999e-01,9.99999e-01,8.63158e-02,9.99999e-01
6.081478544e-01,9.05951e-02,9.99999e-01,9.99999e-01,9.99999e-01,9.05951e-02,9.99999e-01
6.111885937e-01,9.49959e-02,9.99999e-01,9.99999e-01,9.99999e-01,9.49959e-02,9.99999e-01
6.142445367e-01,9.95171e-02,9.99999e-01,9.99999e-01,9.99999e-01,9.95171e-02,9.99999e-01
6.173157594e-01,1.04158e-01,9.99999e-01,9.99999e-01,9.99999e-01,1.04158e-01,9.99999e-01
6.204023382e-01,1.08917e-01,9.99999e-01,9.99999e-01,9.99999e-01,1.08917e-01,9.99999e-01
6.235043498e-01,1.13793e-01,9.99999e-01,9.99999e-01,9.99999e-01,1.13793e-01,9.99999e-01
6.266218716e-01,1.18784e-01,9.99999e-01,9.99999e-01,9.99999e-01,1.18784e-01,9.99999e-01
6.297549810e-01,1.23889e-01,9.99999e-01,9.99999e-01,9.99999e-01,1.23889e-01,9.99999e-01
6.329037559e-01,1.29107e-01,9.99999e-01,9.99999e-01,9.99999e-01,1.29107e-01,9.99999e-01
6.360682746e-01,1.34434e-01,9.99999e-01,9.99999e-01,9.99999e-01,1.34434e-01,9.99999e-01
6.392486160e-01,1.39870e-01,9.99999e-01,9.99999e-01,9.99999e-01,1.39870e-01,9.99999e-01
6.424448591e-01,1.45411e-01,9.99999e-01,9.99999e-01,9.99999e-01,1.45411e-01,9.99999e-01
6.456570834e-01,1.51056e-01,9.99999e-01,9.99999e-01,9.99999e-01,1.51056e-01,9.99999e-01
6.488853688e-01,1.56802e-01,9.99999e-01,9.99999e-01,9.99999e-01,1.56802e-01,9.99999e-01
6.521297956e-01,1.62647e-01,9.99999e-01,9.99999e-01,9.99999e-01,1.62647e-01,9.99999e-01
6.553904446e-01,1.68588e-01,9.99999e-01,9.99999e-01,9.99999e-01,1.68588e-01,9.99999e-01
6.586673968e-01,1.74622e-01,9.99999e-01,9.99999e-01,9.99999e-01,1.74622e-01,9.99999e-01
6.619607338e-01,1.80746e-01,9.99999e-01,9.99999e-01,9.99999e-01,1.80746e-01,9.99999e-01
6.652705375e-01,1.86958e-01,9.99999e-01,9.99999e-01,9.99999e-01,1.86958e-01,9.99999e-01
6.685968902e-01,1.93254e-01,9.99999e-01,9.99999e-01,9.99999e-01,1.93254e-01,9.99999e-01
6.719398746e-01,1.99632e-01,9.99999e-01,9.99999e-01,9.99999e-01,1.99632e-01,9.99999e-01
6.752995740e-01,2.06087e-01,9.99999e-01,9.99999e-01,9.99999e-01,2.06087e-01,9.99999e-01
6.786760719e-01,2.12618e-01,9.99999e-01,9.99999e-01,9.99999e-01,2.12618e-01,9.99999e-01
6.820694522e-01,2.19221e-01,9.99999e-01,9.99999e-01,9.99999e-01,2.19221e-01,9.99999e-01
6.854797995e-01,2.25892e-01,9.99999e-01,9.99999e-01,9.99999e-01,2.25892e-01,9.99999e-01
6.889071985e-01,2.32629e-01,9.99999e-01,9.99999e-01,9.99999e-01,2.32629e-01,9.99999e-01
6.923517345e-01,2.39427e-01,9.99999e-01,9.99999e-01,9.99999e-01,2.39427e-01,9.99999e-01
6.958134932e-01,2.46284e-01,9.99999e-01,9.99999e-01,9.99999e-01,2.46284e-01,9.99999e-01
6.992925606e-01,2.53196e-01,9.99999e-01,9.99999e-01,9.99999e-01,2.53196e-01,9.99999e-01
7.027890234e-01,2.60160e-01,9.99999e-01,9.99999e-01,9.99999e-01,2.60160e-01,9.99999e-01
7.063029686e-01,2.67172e-01,9.99999e-01,9.99999e-01,9.99999e-01,2.67172e-01,9.99999e-01
7.098344834e-01,2.74229e-01,9.99999e-01,9.99999e-01,9.99999e-01,2.74229e-01,9.99999e-01
7.133836558e-01,2.81327e-01,9.99999e-01,9.99999e-01,9.99999e-01,2.81327e-01,9.99999e-01
7.169505741e-01,2.88464e-01,9.99999e-01,9.99999e-01,9.99999e-01,2.88464e-01,9.99999e-01
7.205353270e-01,2.95635e-01,9.99999e-01,9.99999e-01,9.99999e-01,2.95635e-01,9.99999e-01
7.241380036e-01,3.02837e-01,9.99999e-01,9.99999e-01,9.99999e-01,3.02837e-01,9.99999e-01
7.277586936e-01,3.10068e-01,9.99999e-01,9.99999e-01,9.99999e-01,3.10068e-01,9.99999e-01
7.313974871e-01,3.17323e-01,9.99999e-01,9.99999e-01,9.99999e-01,3.17323e-01,9.99999e-01
7.350544745e-01,3.24600e-01,9.99999e-01,9.99999e-01,9.99999e-01,3.24600e-01,9.99999e-01
7.387297469e-01,3.31895e-01,9.99999e-01,9.99999e-01,9.99999e-01,3.31895e-01,9.99999e-01
7.424233956e-01,3.39205e-01,9.99999e-01,9.99999e-01,9.99999e-01,3.39205e-01,9.99999e-01
7.461355126e-01,3.46526e-01,9.99999e-01,9.99999e-01,9.99999e-01,3.46526e-01,9.99999e-01
7.498661902e-01,3.53857e-01,9.99999e-01,9.99999e-01,9.99999e-01,3.53857e-01,9.99999e-01
7.536155211e-01,3.61193e-01,9.99999e-01,9.99999e-01,9.99999e-01,3.61193e-01,9.99999e-01
7.573835987e-01,3.68532e-01,9.99999e-01,9.99999e-01,9.99999e-01,3.68532e-01,9.99999e-01
7.611705167e-01,3.75871e-01,9.99999e-01,9.99999e-01,9.99999e-01,3.75871e-01,9.99999e-01
7.649763693e-01,3.83206e-01,9.99999e-01,9.99999e-01,9.99999e-01,3.83206e-01,9.99999e-01
7.688012511e-01,3.90536e-01,9.99999e-01,9.99999e-01,9.99999e-01,3.90536e-01,9.99999e-01
7.726452574e-01,3.97856e-01,9.99999e-01,9.99999e-01,9.99999e-01,3.97856e-01,9.99999e-01
7.765084837e-01,4.05166e-01,9.99999e-01,9.99999e-01,9.99999e-01,4.05166e-01,9.99999e-01
7.803910261e-01,3.95505e-01,9.99999e-01,9.99999e-01,9.58891e-01,4.12461e-01,9.99999e-01
7.842929812e-01,3.49845e-01,9.99999e-01,9.99999e-01,8.33480e-01,4.19740e-01,9.99999e-01
7.882144461e-01,3.51142e-01,9.99999e-01,9.99999e-01,8.22346e-01,4.26999e-01,9.99999e-01
7.921555184e-01,3.87142e-01,9.99999e-01,9.99999e-01,8.91543e-01,4.34237e-01,9.99999e-01
7.961162960e-01,4.08912e-01,9.99999e-01,9.99999e-01,9.26290e-01,4.41451e-01,9.99999e-01
8.000968774e-01,4.30377e-01,9.99999e-01,9.99999e-01,9.59293e-01,4.48639e-01,9.99999e-01
8.040973618e-01,4.46116e-01,9.99999e-01,9.99999e-01,9.78756e-01,4.55799e-01,9.99999e-01
8.081178486e-01,4.58376e-01,9.99999e-01,9.99999e-01,9.90166e-01,4.62928e-01,9.99999e-01
8.121584379e-01,4.68601e-01,9.99999e-01,9.99999e-01,9.96972e-01,4.70024e-01,9.99999e-01
8.162192301e-01,4.76767e-01,9.99999e-01,9.99999e-01,9.99330e-01,4.77086e-01,9.99999e-01
8.203003262e-01,4.84107e-01,9.99999e-01,9.99999e-01,9.99990e-01,4.84111e-01,9.99999e-01
8.244018279e-01,4.91098e-01,9.99999e-01,9.99999e-01,9.99999e-01,4.91098e-01,9.99999e-01
8.285238370e-01,4.98045e-01,9.99999e-01,9.99999e-01,9.99999e-01,4.98045e-01,9.99999e-01
8.326664562e-01,5.04950e-01,9.99999e-01,9.99999e-01,9.99999e-01,5.04950e-01,9.99999e-01
8.368297885e-01,5.11811e-01,9.99999e-01,9.99999e-01,9.99999e-01,5.11811e-01,9.99999e-01
8.410139374e-01,5.18627e-01,9.99999e-01,9.99999e-01,9.99999e-01,5.18627e-01,9.99999e-01
8.452190071e-01,5.25397e-01,9.99999e-01,9.99999e-01,9.99999e-01,5.25397e-01,9.99999e-01
8.494451021e-01,5.32119e-01,9.99999e-01,9.99999e-01,9.99999e-01,5.32119e-01,9.99999e-01
8.536923276e-01,5.38792e-01,9.99999e-01,9.99999e-01,9.99999e-01,5.38792e-01,9.99999e-01
8.579607893e-01,5.45414e-01,9.99999e-01,9.99999e-01,9.99999e-01,5.45414e-01,9.99999e-01
8.622505932e-01,5.51984e-01,9.99999e-01,9.99999e-01,9.99999e-01,5.51984e-01,9.99999e-01
8.665618462e-01,5.10848e-01,9.99999e-01,9.99999e-01,9.14677e-01,5.58501e-01,9.99999e-01
8.708946554e-01,3.55911e-01,9.99999e-01,9.99999e-01,6.29971e-01,5.64964e-01,9.99999e-01
8.752491287e-01,3.93520e-01,9.99999e-01,9.99999e-01,6.88728e-01,5.71372e-01,9.99999e-01
8.796253743e-01,4.70441e-01,9.99999e-01,9.99999e-01,8.14300e-01,5.77724e-01,9.99999e-01
8.840235012e-01,5.24892e-01,9.99999e-01,9.99999e-01,8.98757e-01,5.84019e-01,9.99999e-01
8.884436187e-01,5.65985e-01,9.99999e-01,9.99999e-01,9.58879e-01,5.90256e-01,9.99999e-01
8.928858368e-01,5.86366e-01,9.99999e-01,9.99999e-01,9.83118e-01,5.96435e-01,9.99999e-01
8.973502660e-01,6.00078e-01,9.99999e-01,9.99999e-01,9.95889e-01,6.02554e-01,9.99999e-01
9.018370173e-01,6.08338e-01,9.99999e-01,9.99999e-01,9.99546e-01,6.08614e-01,9.99999e-01
9.063462024e-01,6.07359e-01,9.99999e-01,9.99999e-01,9.88196e-01,6.14613e-01,9.99999e-01
9.108779334e-01,6.04076e-01,9.99999e-01,9.99999e-01,9.73450e-01,6.20551e-01,9.99999e-01
9.154323231e-01,6.22510e-01,9.99999e-01,9.99999e-01,9.93747e-01,6.26427e-01,9.99999e-01
9.200094847e-01,5.76951e-01,9.99999e-01,9.99999e-01,9.12548e-01,6.32241e-01,9.99999e-01
9.246095321e-01,5.59256e-01,9.99999e-01,9.99999e-01,8.76586e-01,6.37993e-01,9.99999e-01
9.292325798e-01,5.80281e-01,9.99999e-01,9.99999e-01,9.01503e-01,6.43682e-01,9.99999e-01
9.338787427e-01,5.87674e-01,9.99999e-01,9.99999e-01,9.05077e-01,6.49307e-01,9.99999e-01
9.385481364e-01,6.08540e-01,9.99999e-01,9.99999e-01,9.29252e-01,6.54870e-01,9.99999e-01
9.432408771e-01,6.31397e-01,9.99999e-01,9.99999e-01,9.56128e-01,6.60368e-01,9.99999e-01
9.479570815e-01,6.50634e-01,9.99999e-01,9.99999e-01,9.77216e-01,6.65803e-01,9.99999e-01
9.526968669e-01,6.63769e-01,9.99999e-01,9.99999e-01,9.88966e-01,6.71174e-01,9.99999e-01
9.574603512e-01,6.73282e-01,9.99999e-01,9.99999e-01,9.95270e-01,6.76481e-01,9.99999e-01
9.622476530e-01,6.80718e-01,9.99999e-01,9.99999e-01,9.98523e-01,6.81724e-01,9.99999e-01
9.670588912e-01,6.86599e-01,9.99999e-01,9.99999e-01,9.99557e-01,6.86903e-01,9.99999e-01
9.718941857e-01,6.91996e-01,9.99999e-01,9.99999e-01,9.99968e-01,6.92017e-01,9.99999e-01
9.767536566e-01,6.97068e-01,9.99999e-01,9.99999e-01,9.99999e-01,6.97068e-01,9.99999e-01
9.816374249e-01,7.02054e-01,9.99999e-01,9.99999e-01,9.99999e-01,7.02054e-01,9.99999e-01
9.865456120e-01,7.06977e-01,9.99999e-01,9.99999e-01,9.99999e-01,7.06977e-01,9.99999e-01
9.914783401e-01,7.11836e-01,9.99999e-01,9.99999e-01,9.99999e-01,7.11836e-01,9.99999e-01
9.964357318e-01,7.16631e-01,9.99999e-01,9.99999e-01,9.99999e-01,7.16631e-01,9.99999e-01
1.001417910e+00,7.21363e-01,9.99999e-01,9.99999e-01,9.99999e-01,7.21363e-01,9.99999e-01
1.006425000e+00,7.26032e-01,9.99999e-01,9.99999e-01,9.99999e-01,7.26032e-01,9.99999e-01
1.011457125e+00,7.30638e-01,9.99999e-01,9.99999e-01,9.99999e-01,7.30638e-01,9.99999e-01
1.016514411e+00,7.35181e-01,9.99999e-01,9.99999e-01,9.99999e-01,7.35181e-01,9.99999e-01
1.021596983e+00,7.39612e-01,9.99999e-01,9.99999e-01,9.99931e-01,7.39662e-01,9.99999e-01
1.026704968e+00,7.40634e-01,9.99999e-01,9.99999e-01,9.95366e-01,7.44081e-01,9.99999e-01
1.031838492e+00,7.08883e-01,9.99999e-01,9.99999e-01,9.47148e-01,7.48439e-01,9.99999e-01
1.036997685e+00,9.50636e-02,9.99999e-01,9.99999e-01,1.26291e-01,7.52735e-01,9.99999e-01
1.042182673e+00,6.01995e-02,9.99999e-01,9.99999e-01,7.95269e-02,7.56970e-01,9.99999e-01
1.047393587e+00,7.84655e-02,9.99999e-01,9.99999e-01,1.03089e-01,7.61144e-01,9.99999e-01
1.052630555e+00,1.15213e-03,9.99999e-01,9.99999e-01,1.50554e-03,7.65259e-01,9.99999e-01
1.057893707e+00,3.27702e-03,9.99999e-01,9.99999e-01,4.25967e-03,7.69314e-01,9.99999e-01
1.063183176e+00,1.35321e-02,9.99999e-01,9.99999e-01,1.74989e-02,7.73309e-01,9.99999e-01
1.068499092e+00,4.47958e-02,9.99999e-01,9.99999e-01,5.76339e-02,7.77246e-01,9.99999e-01
1.073841587e+00,1.28622e-01,9.99999e-01,9.99999e-01,1.64663e-01,7.81124e-01,9.99999e-01
1.079210795e+00,2.50386e-01,9.99999e-01,9.99999e-01,3.18985e-01,7.84945e-01,9.99999e-01
1.084606849e+00,4.19774e-01,9.99999e-01,9.99999e-01,5.32229e-01,7.88708e-01,9.99999e-01
1.090029883e+00,5.70816e-01,9.99999e-01,9.99999e-01,7.20350e-01,7.92415e-01,9.99999e-01
1.095480033e+00,6.77320e-01,9.99999e-01,9.99999e-01,8.50835e-01,7.96065e-01,9.99999e-01
1.100957433e+00,7.39740e-01,9.99999e-01,9.99999e-01,9.25069e-01,7.99659e-01,9.99999e-01
1.106462220e+00,7.77763e-01,9.99999e-01,9.99999e-01,9.68331e-01,8.03198e-01,9.99999e-01
1.111994531e+00,7.97118e-01,9.99999e-01,9.99999e-01,9.88142e-01,8.06683e-01,9.99999e-01
1.117554504e+00,8.07766e-01,9.99999e-01,9.99999e-01,9.97102e-01,8.10113e-01,9.99999e-01
1.123142276e+00,8.13336e-01,9.99999e-01,9.99999e-01,9.99810e-01,8.13490e-01,9.99999e-01
1.128757988e+00,8.16813e-01,9.99999e-01,9.99999e-01,9.99999e-01,8.16813e-01,9.99999e-01
1.134401778e+00,8.20085e-01,9.99999e-01,9.99999e-01,9.99999e-01,8.20085e-01,9.99999e-01
1.140073787e+00,8.23304e-01,9.99999e-01,9.99999e-01,9.99999e-01,8.23304e-01,9.99999e-01
1.145774156e+00,8.26472e-01,9.99999e-01,9.99999e-01,9.99999e-01,8.26472e-01,9.99999e-01
1.151503026e+00,8.29589e-01,9.99999e-01,9.99999e-01,9.99999e-01,8.29589e-01,9.99999e-01
1.157260541e+00,8.32656e-01,9.99999e-01,9.99999e-01,9.99999e-01,8.32656e-01,9.99999e-01
1.163046844e+00,8.35673e-01,9.99999e-01,9.99999e-01,9.99999e-01,8.35673e-01,9.99999e-01
1.168862078e+00,8.38642e-01,9.99999e-01,9.99999e-01,9.99999e-01,8.38642e-01,9.99999e-01
1.174706389e+00,8.41562e-01,9.99999e-01,9.99999e-01,9.99999e-01,8.41562e-01,9.99999e-01
1.180579921e+00,8.44434e-01,9.99999e-01,9.99999e-01,9.99999e-01,8.44434e-01,9.99999e-01
1.186482820e+00,8.47251e-01,9.99999e-01,9.99999e-01,9.99989e-01,8.47259e-01,9.99999e-01
1.192415234e+00,8.36073e-01,9.99999e-01,9.99999e-01,9.83570e-01,8.50038e-01,9.99999e-01
1.198377311e+00,4.73673e-01,9.99999e-01,9.99999e-01,5.55452e-01,8.52770e-01,9.99999e-01
1.204369197e+00,3.46556e-13,9.99999e-01,9.99999e-01,4.05112e-13,8.55457e-01,9.99999e-01
1.210391043e+00,3.09069e-49,9.99999e-01,9.99999e-01,3.60178e-49,8.58099e-01,9.99999e-01
1.216442998e+00,8.63687e-43,9.99999e-01,9.99999e-01,1.00347e-42,8.60697e-01,9.99999e-01
1.222525213e+00,3.61643e-42,9.99999e-01,9.99999e-01,4.18931e-42,8.63251e-01,9.99999e-01
1.228637839e+00,1.15317e-32,9.99999e-01,9.99999e-01,1.33197e-32,8.65762e-01,9.99999e-01
