#,Wave/freq,Total,N2,O2,CO2,Rayleigh,CIA
4.000000000e-01,9.83665e-07,9.99999e-01,9.99999e-01,9.99999e-01,9.83665e-07,9.99999e-01
4.020000000e-01,1.29309e-06,9.99999e-01,9.99999e-01,9.99999e-01,1.29309e-06,9.99999e-01
4.040100000e-01,1.69020e-06,9.99999e-01,9.99999e-01,9.99999e-01,1.69020e-06,9.99999e-01
4.060300500e-01,2.19761e-06,9.99999e-01,9.99999e-01,9.99999e-01,2.19761e-06,9.99999e-01
4.080602003e-01,2.84257e-06,9.99999e-01,9.99999e-01,9.99999e-01,2.84257e-06,9.99999e-01
4.101005013e-01,3.65817e-06,9.99999e-01,9.99999e-01,9.99999e-01,3.65817e-06,9.99999e-01
4.121510038e-01,4.68438e-06,9.99999e-01,9.99999e-01,9.99999e-01,4.68438e-06,9.99999e-01
4.142117588e-01,5.96926e-06,9.99999e-01,9.99999e-01,9.99999e-01,5.96926e-06,9.99999e-01
4.162828176e-01,7.57023e-06,9.99999e-01,9.99999e-01,9.99999e-01,7.57023e-06,9.99999e-01
4.183642317e-01,9.55563e-06,9.99999e-01,9.99999e-01,9.99999e-01,9.55563e-06,9.99999e-01
4.204560528e-01,1.20064e-05,9.99999e-01,9.99999e-01,9.99999e-01,1.20064e-05,9.99999e-01
4.225583331e-01,1.50178e-05,9.99999e-01,9.99999e-01,9.99999e-01,1.50178e-05,9.99999e-01
4.246711247e-01,1.87016e-05,9.99999e-01,9.99999e-01,9.99999e-01,1.87016e-05,9.99999e-01
4.267944804e-01,2.31884e-05,9.99999e-01,9.99999e-01,9.99999e-01,2.31884e-05,9.99999e-01
4.289284528e-01,2.86298e-05,9.99999e-01,9.99999e-01,9.99999e-01,2.86298e-05,9.99999e-01
4.310730950e-01,3.52012e-05,9.99999e-01,9.99999e-01,9.99999e-01,3.52012e-05,9.99999e-01
4.332284605e-01,4.31047e-05,9.99999e-01,9.99999e-01,9.99999e-01,4.31047e-05,9.99999e-01
4.353946028e-01,5.25719e-05,9.99999e-01,9.99999e-01,9.99999e-01,5.25719e-05,9.99999e-01
4.375715758e-01,6.38674e-05,9.99999e-01,9.99999e-01,9.99999e-01,6.38674e-05,9.99999e-01
4.397594337e-01,7.72921e-05,9.99999e-01,9.99999e-01,9.99999e-01,7.72921e-05,9.99999e-01
4.419582309e-01,9.31868e-05,9.99999e-01,9.99999e-01,9.99999e-01,9.31868e-05,9.99999e-01
4.441680220e-01,1.11936e-04,9.99999e-01,9.99999e-01,9.99999e-01,1.11936e-04,9.99999e-01
4.463888621e-01,1.33972e-04,9.99999e-01,9.99999e-01,9.99999e-01,1.33972e-04,9.99999e-01
4.486208064e-01,1.59777e-04,9.99999e-01,9.99999e-01,9.99999e-01,1.59777e-04,9.99999e-01
4.508639105e-01,1.89891e-04,9.99999e-01,9.99999e-01,9.99999e-01,1.89891e-04,9.99999e-01
4.531182300e-01,2.24912e-04,9.99999e-01,9.99999e-01,9.99999e-01,2.24912e-04,9.99999e-01
4.553838212e-01,2.65503e-04,9.99999e-01,9.99999e-01,9.99999e-01,2.65503e-04,9.99999e-01
4.576607403e-01,3.12394e-04,9.99999e-01,9.99999e-01,9.99999e-01,3.12394e-04,9.99999e-01
4.599490440e-01,3.66388e-04,9.99999e-01,9.99999e-01,9.99999e-01,3.66388e-04,9.99999e-01
4.622487892e-01,4.28363e-04,9.99999e-01,9.99999e-01,9.99999e-01,4.28363e-04,9.99999e-01
4.645600332e-01,4.99277e-04,9.99999e-01,9.99999e-01,9.99999e-01,4.99277e-04,9.99999e-01
4.668828333e-01,5.80173e-04,9.99999e-01,9.99999e-01,9.99999e-01,5.80173e-04,9.99999e-01
4.692172475e-01,6.72180e-04,9.99999e-01,9.99999e-01,9.99999e-01,6.72180e-04,9.99999e-01
4.715633337e-01,7.76516e-04,9.99999e-01,9.99999e-01,9.99999e-01,7.76516e-04,9.99999e-01
4.739211504e-01,8.94494e-04,9.99999e-01,9.99999e-01,9.99999e-01,8.94494e-04,9.99999e-01
4.762907561e-01,1.02752e-03,9.99999e-01,9.99999e-01,9.99999e-01,1.02752e-03,9.99999e-01
4.786722099e-01,1.17711e-03,9.99999e-01,9.99999e-01,9.99999e-01,1.17711e-03,9.99999e-01
4.810655710e-01,1.34485e-03,9.99999e-01,9.99999e-01,9.99999e-01,1.34485e-03,9.99999e-01
4.834708988e-01,1.53246e-03,9.99999e-01,9.99999e-01,9.99999e-01,1.53246e-03,9.99999e-01
4.858882533e-01,1.74175e-03,9.99999e-01,9.99999e-01,9.99999e-01,1.74175e-03,9.99999e-01
4.883176946e-01,1.97462e-03,9.99999e-01,9.99999e-01,9.99999e-01,1.97462e-03,9.99999e-01
4.907592831e-01,2.23308e-03,9.99999e-01,9.99999e-01,9.99999e-01,2.23308e-03,9.99999e-01
4.932130795e-01,2.51924e-03,9.99999e-01,9.99999e-01,9.99999e-01,2.51924e-03,9.99999e-01
4.956791449e-01,2.83531e-03,9.99999e-01,9.99999e-01,9.99999e-01,2.83531e-03,9.99999e-01
4.981575406e-01,3.18360e-03,9.99999e-01,9.99999e-01,9.99999e-01,3.18360e-03,9.99999e-01
5.006483283e-01,3.56650e-03,9.99999e-01,9.99999e-01,9.99999e-01,3.56650e-03,9.99999e-01
5.031515699e-01,3.98650e-03,9.99999e-01,9.99999e-01,9.99999e-01,3.98650e-03,9.99999e-01
5.056673278e-01,4.44617e-03,9.99999e-01,9.99999e-01,9.99999e-01,4.44617e-03,9.99999e-01
5.081956644e-01,4.94816e-03,9.99999e-01,9.99999e-01,9.99999e-01,4.94816e-03,9.99999e-01
5.107366428e-01,5.49521e-03,9.99999e-01,9.99999e-01,9.99999e-01,5.49521e-03,9.99999e-01
5.132903260e-01,6.09011e-03,9.99999e-01,9.99999e-01,9.99999e-01,6.09011e-03,9.99999e-01
5.158567776e-01,6.73572e-03,9.99999e-01,9.99999e-01,9.99999e-01,6.73572e-03,9.99999e-01
5.184360615e-01,7.43497e-03,9.99999e-01,9.99999e-01,9.99999e-01,7.43497e-03,9.99999e-01
5.210282418e-01,8.19081e-03,9.99999e-01,9.99999e-01,9.99999e-01,8.19081e-03,9.99999e-01
5.236333830e-01,9.00624e-03,9.99999e-01,9.99999e-01,9.99999e-01,9.00624e-03,9.99999e-01
5.262515499e-01,9.88431e-03,9.99999e-01,9.99999e-01,9.99999e-01,9.88431e-03,9.99999e-01
5.288828077e-01,1.08281e-02,9.99999e-01,9.99999e-01,9.99999e-01,1.08281e-02,9.99999e-01
5.315272217e-01,1.18406e-02,9.99999e-01,9.99999e-01,9.99999e-01,1.18406e-02,9.99999e-01
5.341848578e-01,1.29250e-02,9.99999e-01,9.99999e-01,9.99999e-01,1.29250e-02,9.99999e-01
5.368557821e-01,1.40842e-02,9.99999e-01,9.99999e-01,9.99999e-01,1.40842e-02,9.99999e-01
5.395400610e-01,1.53215e-02,9.99999e-01,9.99999e-01,9.99999e-01,1.53215e-02,9.99999e-01
5.422377613e-01,1.66397e-02,9.99999e-01,9.99999e-01,9.99999e-01,1.66397e-02,9.99999e-01
5.449489501e-01,1.80419e-02,9.99999e-01,9.99999e-01,9.99999e-01,1.80419e-02,9.99999e-01
5.476736949e-01,1.95310e-02,9.99999e-01,9.99999e-01,9.99999e-01,1.95310e-02,9.99999e-01
5.504120634e-01,2.11099e-02,9.99999e-01,9.99999e-01,9.99999e-01,2.11099e-02,9.99999e-01
5.531641237e-01,2.27815e-02,9.99999e-01,9.99999e-01,9.99999e-01,2.27815e-02,9.99999e-01
5.559299443e-01,2.45485e-02,9.99999e-01,9.99999e-01,9.99999e-01,2.45485e-02,9.99999e-01
5.587095940e-01,2.64135e-02,9.99999e-01,9.99999e-01,9.99999e-01,2.64135e-02,9.99999e-01
5.615031420e-01,2.83791e-02,9.99999e-01,9.99999e-01,9.99999e-01,2.83791e-02,9.99999e-01
5.643106577e-01,3.04478e-02,9.99999e-01,9.99999e-01,9.99999e-01,3.04478e-02,9.99999e-01
5.671322110e-01,3.26219e-02,9.99999e-01,9.99999e-01,9.99999e-01,3.26219e-02,9.99999e-01
5.699678720e-01,3.49036e-02,9.99999e-01,9.99999e-01,9.99999e-01,3.49036e-02,9.99999e-01
5.728177114e-01,3.72952e-02,9.99999e-01,9.99999e-01,9.99999e-01,3.72952e-02,9.99999e-01
5.756818000e-01,3.97984e-02,9.99999e-01,9.99999e-01,9.99999e-01,3.97984e-02,9.99999e-01
5.785602090e-01,4.24153e-02,9.99999e-01,9.99999e-01,9.99999e-01,4.24153e-02,9.99999e-01
5.814530100e-01,4.51473e-02,9.99999e-01,9.99999e-01,9.99999e-01,4.51473e-02,9.99999e-01
5.843602750e-01,4.79961e-02,9.99999e-01,9.99999e-01,9.99999e-01,4.79961e-02,9.99999e-01
5.872820764e-01,5.09631e-02,9.99999e-01,9.99999e-01,9.99999e-01,5.09631e-02,9.99999e-01
5.902184868e-01,5.40494e-02,9.99999e-01,9.99999e-01,9.99999e-01,5.40494e-02,9.99999e-01
5.931695792e-01,5.72560e-02,9.99999e-01,9.99999e-01,9.99999e-01,5.72560e-02,9.99999e-01
5.961354271e-01,6.05839e-02,9.99999e-01,9.99999e-01,9.99999e-01,6.05839e-02,9.99999e-01
5.991161043e-01,6.40337e-02,9.99999e-01,9.99999e-01,9.99999e-01,6.40337e-02,9.99999e-01
6.021116848e-01,6.76060e-02,9.99999e-01,9.99999e-01,9.99999e-01,6.76060e-02,9.99999e-01
6.051222432e-01,7.13010e-02,9.99999e-01,9.99999e-01,9.99999e-01,7.13010e-02,9.99999e-01
6.081478544e-01,7.51190e-02,9.99999e-01,9.99999e-01,9.99999e-01,7.51190e-02,9.99999e-01
6.111885937e-01,7.90600e-02,9.99999e-01,9.99999e-01,9.99999e-01,7.90600e-02,9.99999e-01
6.142445367e-01,8.31237e-02,9.99999e-01,9.99999e-01,9.99999e-01,8.31237e-02,9.99999e-01
6.173157594e-01,8.73098e-02,9.99999e-01,9.99999e-01,9.99999e-01,8.73098e-02,9.99999e-01
6.204023382e-01,9.16177e-02,9.99999e-01,9.99999e-01,9.99999e-01,9.16177e-02,9.99999e-01
6.235043498e-01,9.60468e-02,9.99999e-01,9.99999e-01,9.99999e-01,9.60468e-02,9.99999e-01
6.266218716e-01,1.00596e-01,9.99999e-01,9.99999e-01,9.99999e-01,1.00596e-01,9.99999e-01
6.297549810e-01,1.05265e-01,9.99999e-01,9.99999e-01,9.99999e-01,1.05265e-01,9.99999e-01
6.329037559e-01,1.10051e-01,9.99999e-01,9.99999e-01,9.99999e-01,1.10051e-01,9.99999e-01
6.360682746e-01,1.14955e-01,9.99999e-01,9.99999e-01,9.99999e-01,1.14955e-01,9.99999e-01
6.392486160e-01,1.19973e-01,9.99999e-01,9.99999e-01,9.99999e-01,1.19973e-01,9.99999e-01
6.424448591e-01,1.25105e-01,9.99999e-01,9.99999e-01,9.99999e-01,1.25105e-01,9.99999e-01
6.456570834e-01,1.30348e-01,9.99999e-01,9.99999e-01,9.99999e-01,1.30348e-01,9.99999e-01
6.488853688e-01,1.35701e-01,9.99999e-01,9.99999e-01,9.99999e-01,1.35701e-01,9.99999e-01
6.521297956e-01,1.41162e-01,9.99999e-01,9.99999e-01,9.99999e-01,1.41162e-01,9.99999e-01
6.553904446e-01,1.46728e-01,9.99999e-01,9.99999e-01,9.99999e-01,1.46728e-01,9.99999e-01
6.586673968e-01,1.52397e-01,9.99999e-01,9.99999e-01,9.99999e-01,1.52397e-01,9.99999e-01
6.619607338e-01,1.58166e-01,9.99999e-01,9.99999e-01,9.99999e-01,1.58166e-01,9.99999e-01
6.652705375e-01,1.64034e-01,9.99999e-01,9.99999e-01,9.99999e-01,1.64034e-01,9.99999e-01
6.685968902e-01,1.69997e-01,9.99999e-01,9.99999e-01,9.99999e-01,1.69997e-01,9.99999e-01
6.719398746e-01,1.76052e-01,9.99999e-01,9.99999e-01,9.99999e-01,1.76052e-01,9.99999e-01
6.752995740e-01,1.82197e-01,9.99999e-01,9.99999e-01,9.99999e-01,1.82197e-01,9.99999e-01
6.786760719e-01,1.88429e-01,9.99999e-01,9.99999e-01,9.99999e-01,1.88429e-01,9.99999e-01
6.820694522e-01,1.94745e-01,9.99999e-01,9.99999e-01,9.99999e-01,1.94745e-01,9.99999e-01
6.854797995e-01,2.01141e-01,9.99999e-01,9.99999e-01,9.99999e-01,2.01141e-01,9.99999e-01
6.889071985e-01,2.07614e-01,9.99999e-01,9.99999e-01,9.99999e-01,2.07614e-01,9.99999e-01
6.923517345e-01,2.14163e-01,9.99999e-01,9.99999e-01,9.99999e-01,2.14163e-01,9.99999e-01
6.958134932e-01,2.20782e-01,9.99999e-01,9.99999e-01,9.99999e-01,2.20782e-01,9.99999e-01
6.992925606e-01,2.27469e-01,9.99999e-01,9.99999e-01,9.99999e-01,2.27469e-01,9.99999e-01
7.027890234e-01,2.34220e-01,9.99999e-01,9.99999e-01,9.99999e-01,2.34220e-01,9.99999e-01
7.063029686e-01,2.41032e-01,9.99999e-01,9.99999e-01,9.99999e-01,2.41032e-01,9.99999e-01
7.098344834e-01,2.47902e-01,9.99999e-01,9.99999e-01,9.99999e-01,2.47902e-01,9.99999e-01
7.133836558e-01,2.54827e-01,9.99999e-01,9.99999e-01,9.99999e-01,2.54827e-01,9.99999e-01
7.169505741e-01,2.61802e-01,9.99999e-01,9.99999e-01,9.99999e-01,2.61802e-01,9.99999e-01
7.205353270e-01,2.68825e-01,9.99999e-01,9.99999e-01,9.99999e-01,2.68825e-01,9.99999e-01
7.241380036e-01,2.75892e-01,9.99999e-01,9.99999e-01,9.99999e-01,2.75892e-01,9.99999e-01
7.277586936e-01,2.83000e-01,9.99999e-01,9.99999e-01,9.99999e-01,2.83000e-01,9.99999e-01
7.313974871e-01,2.90145e-01,9.99999e-01,9.99999e-01,9.99999e-01,2.90145e-01,9.99999e-01
7.350544745e-01,2.97323e-01,9.99999e-01,9.99999e-01,9.99999e-01,2.97323e-01,9.99999e-01
7.387297469e-01,3.04533e-01,9.99999e-01,9.99999e-01,9.99999e-01,3.04533e-01,9.99999e-01
7.424233956e-01,3.11770e-01,9.99999e-01,9.99999e-01,9.99999e-01,3.11770e-01,9.99999e-01
7.461355126e-01,3.19030e-01,9.99999e-01,9.99999e-01,9.99999e-01,3.19030e-01,9.99999e-01
7.498661902e-01,3.26311e-01,9.99999e-01,9.99999e-01,9.99999e-01,3.26311e-01,9.99999e-01
7.536155211e-01,3.33610e-01,9.99999e-01,9.99999e-01,9.99999e-01,3.33610e-01,9.99999e-01
7.573835987e-01,3.40923e-01,9.99999e-01,9.99999e-01,9.99999e-01,3.40923e-01,9.99999e-01
7.611705167e-01,3.48247e-01,9.99999e-01,9.99999e-01,9.99999e-01,3.48247e-01,9.99999e-01
7.649763693e-01,3.55579e-01,9.99999e-01,9.99999e-01,9.99999e-01,3.55579e-01,9.99999e-01
7.688012511e-01,3.62916e-01,9.99999e-01,9.99999e-01,9.99999e-01,3.62916e-01,9.99999e-01
7.726452574e-01,3.70255e-01,9.99999e-01,9.99999e-01,9.99999e-01,3.70255e-01,9.99999e-01
7.765084837e-01,3.77594e-01,9.99999e-01,9.99999e-01,9.99999e-01,3.77594e-01,9.99999e-01
7.803910261e-01,3.68927e-01,9.99999e-01,9.99999e-01,9.58431e-01,3.84928e-01,9.99999e-01
7.842929812e-01,3.22051e-01,9.99999e-01,9.99999e-01,8.21021e-01,3.92256e-01,9.99999e-01
7.882144461e-01,3.23975e-01,9.99999e-01,9.99999e-01,8.10800e-01,3.99574e-01,9.99999e-01
7.921555184e-01,3.59667e-01,9.99999e-01,9.99999e-01,8.83961e-01,4.06880e-01,9.99999e-01
7.961162960e-01,3.81123e-01,9.99999e-01,9.99999e-01,9.20205e-01,4.14172e-01,9.99999e-01
8.000968774e-01,4.02890e-01,9.99999e-01,9.99999e-01,9.55970e-01,4.21446e-01,9.99999e-01
8.040973618e-01,4.18786e-01,9.99999e-01,9.99999e-01,9.76872e-01,4.28701e-01,9.99999e-01
8.081178486e-01,4.31291e-01,9.99999e-01,9.99999e-01,9.89349e-01,4.35934e-01,9.99999e-01
8.121584379e-01,4.41670e-01,9.99999e-01,9.99999e-01,9.96678e-01,4.43142e-01,9.99999e-01
8.162192301e-01,4.49993e-01,9.99999e-01,9.99999e-01,9.99265e-01,4.50323e-01,9.99999e-01
8.203003262e-01,4.57470e-01,9.99999e-01,9.99999e-01,9.99987e-01,4.57476e-01,9.99999e-01
8.244018279e-01,4.64597e-01,9.99999e-01,9.99999e-01,9.99999e-01,4.64597e-01,9.99999e-01
8.285238370e-01,4.71686e-01,9.99999e-01,9.99999e-01,9.99999e-01,4.71686e-01,9.99999e-01
8.326664562e-01,4.78739e-01,9.99999e-01,9.99999e-01,9.99999e-01,4.78739e-01,9.99999e-01
8.368297885e-01,4.85755e-01,9.99999e-01,9.99999e-01,9.99999e-01,4.85755e-01,9.99999e-01
8.410139374e-01,4.92733e-01,9.99999e-01,9.99999e-01,9.99999e-01,4.92733e-01,9.99999e-01
8.452190071e-01,4.99670e-01,9.99999e-01,9.99999e-01,9.99999e-01,4.99670e-01,9.99999e-01
8.494451021e-01,5.06565e-01,9.99999e-01,9.99999e-01,9.99999e-01,5.06565e-01,9.99999e-01
8.536923276e-01,5.13416e-01,9.99999e-01,9.99999e-01,9.99999e-01,5.13416e-01,9.99999e-01
8.579607893e-01,5.20221e-01,9.99999e-01,9.99999e-01,9.99999e-01,5.20221e-01,9.99999e-01
8.622505932e-01,5.26980e-01,9.99999e-01,9.99999e-01,9.99999e-01,5.26980e-01,9.99999e-01
8.665618462e-01,4.88376e-01,9.99999e-01,9.99999e-01,9.15090e-01,5.33691e-01,9.99999e-01
8.708946554e-01,3.29200e-01,9.99999e-01,9.99999e-01,6.09233e-01,5.40351e-01,9.99999e-01
8.752491287e-01,3.65566e-01,9.99999e-01,9.99999e-01,6.68357e-01,5.46961e-01,9.99999e-01
8.796253743e-01,4.43000e-01,9.99999e-01,9.99999e-01,8.00334e-01,5.53519e-01,9.99999e-01
8.840235012e-01,4.98793e-01,9.99999e-01,9.99999e-01,8.90664e-01,5.60023e-01,9.99999e-01
8.884436187e-01,5.41113e-01,9.99999e-01,9.99999e-01,9.55230e-01,5.66474e-01,9.99999e-01
8.928858368e-01,5.62357e-01,9.99999e-01,9.99999e-01,9.81650e-01,5.72869e-01,9.99999e-01
8.973502660e-01,5.76597e-01,9.99999e-01,9.99999e-01,9.95492e-01,5.79207e-01,9.99999e-01
9.018370173e-01,5.85197e-01,9.99999e-01,9.99999e-01,9.99501e-01,5.85489e-01,9.99999e-01
9.063462024e-01,5.84383e-01,9.99999e-01,9.99999e-01,9.87613e-01,5.91713e-01,9.99999e-01
9.108779334e-01,5.80683e-01,9.99999e-01,9.99999e-01,9.71239e-01,5.97877e-01,9.99999e-01
9.154323231e-01,5.99833e-01,9.99999e-01,9.99999e-01,9.93128e-01,6.03983e-01,9.99999e-01
9.200094847e-01,5.53984e-01,9.99999e-01,9.99999e-01,9.08128e-01,6.10028e-01,9.99999e-01
9.246095321e-01,5.34149e-01,9.99999e-01,9.99999e-01,8.67107e-01,6.16013e-01,9.99999e-01
9.292325798e-01,5.56821e-01,9.99999e-01,9.99999e-01,8.95301e-01,6.21936e-01,9.99999e-01
9.338787427e-01,5.63598e-01,9.99999e-01,9.99999e-01,8.97737e-01,6.27798e-01,9.99999e-01
9.385481364e-01,5.85262e-01,9.99999e-01,9.99999e-01,9.23711e-01,6.33597e-01,9.99999e-01
9.432408771e-01,6.08926e-01,9.99999e-01,9.99999e-01,9.52437e-01,6.39334e-01,9.99999e-01
9.479570815e-01,6.29115e-01,9.99999e-01,9.99999e-01,9.75358e-01,6.45009e-01,9.99999e-01
9.526968669e-01,6.42831e-01,9.99999e-01,9.99999e-01,9.88029e-01,6.50619e-01,9.99999e-01
9.574603512e-01,6.52795e-01,9.99999e-01,9.99999e-01,9.94861e-01,6.56167e-01,9.99999e-01
9.622476530e-01,6.60588e-01,9.99999e-01,9.99999e-01,9.98393e-01,6.61651e-01,9.99999e-01
9.670588912e-01,6.66749e-01,9.99999e-01,9.99999e-01,9.99517e-01,6.67070e-01,9.99999e-01
9.718941857e-01,6.72403e-01,9.99999e-01,9.99999e-01,9.99965e-01,6.72426e-01,9.99999e-01
9.767536566e-01,6.77718e-01,9.99999e-01,9.99999e-01,9.99999e-01,6.77718e-01,9.99999e-01
9.816374249e-01,6.82946e-01,9.99999e-01,9.99999e-01,9.99999e-01,6.82946e-01,9.99999e-01
9.865456120e-01,6.88110e-01,9.99999e-01,9.99999e-01,9.99999e-01,6.88110e-01,9.99999e-01
9.914783401e-01,6.93209e-01,9.99999e-01,9.99999e-01,9.99999e-01,6.93209e-01,9.99999e-01
9.964357318e-01,6.98245e-01,9.99999e-01,9.99999e-01,9.99999e-01,6.98245e-01,9.99999e-01
1.001417910e+00,7.03216e-01,9.99999e-01,9.99999e-01,9.99999e-01,7.03216e-01,9.99999e-01
1.006425000e+00,7.08124e-01,9.99999e-01,9.99999e-01,9.99999e-01,7.08124e-01,9.99999e-01
1.011457125e+00,7.12968e-01,9.99999e-01,9.99999e-01,9.99999e-01,7.12968e-01,9.99999e-01
1.016514411e+00,7.17748e-01,9.99999e-01,9.99999e-01,9.99999e-01,7.17748e-01,9.99999e-01
1.021596983e+00,7.22421e-01,9.99999e-01,9.99999e-01,9.99938e-01,7.22465e-01,9.99999e-01
1.026704968e+00,7.23599e-01,9.99999e-01,9.99999e-01,9.95158e-01,7.27119e-01,9.99999e-01
1.031838492e+00,6.94668e-01,9.99999e-01,9.99999e-01,9.49374e-01,7.31711e-01,9.99999e-01
1.036997685e+00,8.86407e-02,9.99999e-01,9.99999e-01,1.20396e-01,7.36239e-01,9.99999e-01
1.042182673e+00,4.88310e-02,9.99999e-01,9.99999e-01,6.59249e-02,7.40706e-01,9.99999e-01
1.047393587e+00,6.84112e-02,9.99999e-01,9.99999e-01,9.18134e-02,7.45110e-01,9.99999e-01
1.052630555e+00,7.59241e-04,9.99999e-01,9.99999e-01,1.01306e-03,7.49453e-01,9.99999e-01
1.057893707e+00,2.17791e-03,9.99999e-01,9.99999e-01,2.88949e-03,7.53735e-01,9.99999e-01
1.063183176e+00,9.91855e-03,9.99999e-01,9.99999e-01,1.30859e-02,7.57956e-01,9.99999e-01
1.068499092e+00,3.55806e-02,9.99999e-01,9.99999e-01,4.66865e-02,7.62116e-01,9.99999e-01
1.073841587e+00,1.09536e-01,9.99999e-01,9.99999e-01,1.42956e-01,7.66216e-01,9.99999e-01
1.079210795e+00,2.24700e-01,9.99999e-01,9.99999e-01,2.91720e-01,7.70257e-01,9.99999e-01
1.084606849e+00,3.91253e-01,9.99999e-01,9.99999e-01,5.05339e-01,7.74239e-01,9.99999e-01
1.090029883e+00,5.45805e-01,9.99999e-01,9.99999e-01,7.01402e-01,7.78162e-01,9.99999e-01
1.095480033e+00,6.56452e-01,9.99999e-01,9.99999e-01,8.39423e-01,7.82027e-01,9.99999e-01
1.100957433e+00,7.22245e-01,9.99999e-01,9.99999e-01,9.19080e-01,7.85834e-01,9.99999e-01
1.106462220e+00,7.62479e-01,9.99999e-01,9.99999e-01,9.65671e-01,7.89584e-01,9.99999e-01
1.111994531e+00,7.83072e-01,9.99999e-01,9.99999e-01,9.87135e-01,7.93277e-01,9.99999e-01
1.117554504e+00,7.94391e-01,9.99999e-01,9.99999e-01,9.96833e-01,7.96914e-01,9.99999e-01
1.123142276e+00,8.00328e-01,9.99999e-01,9.99999e-01,9.99790e-01,8.00495e-01,9.99999e-01
1.128757988e+00,8.04022e-01,9.99999e-01,9.99999e-01,9.99999e-01,8.04022e-01,9.99999e-01
1.134401778e+00,8.07493e-01,9.99999e-01,9.99999e-01,9.99999e-01,8.07493e-01,9.99999e-01
1.140073787e+00,8.10911e-01,9.99999e-01,9.99999e-01,9.99999e-01,8.10911e-01,9.99999e-01
1.145774156e+00,8.14275e-01,9.99999e-01,9.99999e-01,9.99999e-01,8.14275e-01,9.99999e-01
1.151503026e+00,8.17586e-01,9.99999e-01,9.99999e-01,9.99999e-01,8.17586e-01,9.99999e-01
1.157260541e+00,8.20845e-01,9.99999e-01,9.99999e-01,9.99999e-01,8.20845e-01,9.99999e-01
1.163046844e+00,8.24052e-01,9.99999e-01,9.99999e-01,9.99999e-01,8.24052e-01,9.99999e-01
1.168862078e+00,8.27208e-01,9.99999e-01,9.99999e-01,9.99999e-01,8.27208e-01,9.99999e-01
1.174706389e+00,8.30314e-01,9.99999e-01,9.99999e-01,9.99999e-01,8.30314e-01,9.99999e-01
1.180579921e+00,8.33369e-01,9.99999e-01,9.99999e-01,9.99999e-01,8.33369e-01,9.99999e-01
1.186482820e+00,8.36369e-01,9.99999e-01,9.99999e-01,9.99992e-01,8.36375e-01,9.99999e-01
1.192415234e+00,8.25041e-01,9.99999e-01,9.99999e-01,9.82972e-01,8.39332e-01,9.99999e-01
1.198377311e+00,4.67191e-01,9.99999e-01,9.99999e-01,5.54699e-01,8.42241e-01,9.99999e-01
1.204369197e+00,4.89211e-14,9.99999e-01,9.99999e-01,5.78878e-14,8.45102e-01,9.99999e-01
1.210391043e+00,6.87622e-53,9.99999e-01,9.99999e-01,8.10955e-53,8.47916e-01,9.99999e-01
1.216442998e+00,6.09212e-46,9.99999e-01,9.99999e-01,7.16143e-46,8.50683e-01,9.99999e-01
1.222525213e+00,2.85114e-45,9.99999e-01,9.99999e-01,3.34089e-45,8.53405e-01,9.99999e-01
1.228637839e+00,4.61304e-35,9.99999e-01,9.99999e-01,5.38854e-35,8.56081e-01,9.99999e-01
