#,Wave/freq,Total,N2,O2,CO2,Rayleigh,CIA
4.000000000e-01,1.35169e-08,9.99999e-01,9.99999e-01,9.99999e-01,1.35169e-08,9.99999e-01
4.020000000e-01,1.93408e-08,9.99999e-01,9.99999e-01,9.99999e-01,1.93408e-08,9.99999e-01
4.040100000e-01,2.74685e-08,9.99999e-01,9.99999e-01,9.99999e-01,2.74685e-08,9.99999e-01
4.060300500e-01,3.87424e-08,9.99999e-01,9.99999e-01,9.99999e-01,3.87424e-08,9.99999e-01
4.080602003e-01,5.42736e-08,9.99999e-01,9.99999e-01,9.99999e-01,5.42736e-08,9.99999e-01
4.101005013e-01,7.55264e-08,9.99999e-01,9.99999e-01,9.99999e-01,7.55264e-08,9.99999e-01
4.121510038e-01,1.04418e-07,9.99999e-01,9.99999e-01,9.99999e-01,1.04418e-07,9.99999e-01
4.142117588e-01,1.43440e-07,9.99999e-01,9.99999e-01,9.99999e-01,1.43440e-07,9.99999e-01
4.162828176e-01,1.95814e-07,9.99999e-01,9.99999e-01,9.99999e-01,1.95814e-07,9.99999e-01
4.183642317e-01,2.65672e-07,9.99999e-01,9.99999e-01,9.99999e-01,2.65672e-07,9.99999e-01
4.204560528e-01,3.58287e-07,9.99999e-01,9.99999e-01,9.99999e-01,3.58287e-07,9.99999e-01
4.225583331e-01,4.80343e-07,9.99999e-01,9.99999e-01,9.99999e-01,4.80343e-07,9.99999e-01
4.246711247e-01,6.40260e-07,9.99999e-01,9.99999e-01,9.99999e-01,6.40260e-07,9.99999e-01
4.267944804e-01,8.48586e-07,9.99999e-01,9.99999e-01,9.99999e-01,8.48586e-07,9.99999e-01
4.289284528e-01,1.11846e-06,9.99999e-01,9.99999e-01,9.99999e-01,1.11846e-06,9.99999e-01
4.310730950e-01,1.46613e-06,9.99999e-01,9.99999e-01,9.99999e-01,1.46613e-06,9.99999e-01
4.332284605e-01,1.91164e-06,9.99999e-01,9.99999e-01,9.99999e-01,1.91164e-06,9.99999e-01
4.353946028e-01,2.47949e-06,9.99999e-01,9.99999e-01,9.99999e-01,2.47949e-06,9.99999e-01
4.375715758e-01,3.19954e-06,9.99999e-01,9.99999e-01,9.99999e-01,3.19954e-06,9.99999e-01
4.397594337e-01,4.10796e-06,9.99999e-01,9.99999e-01,9.99999e-01,4.10796e-06,9.99999e-01
4.419582309e-01,5.24832e-06,9.99999e-01,9.99999e-01,9.99999e-01,5.24832e-06,9.99999e-01
4.441680220e-01,6.67287e-06,9.99999e-01,9.99999e-01,9.99999e-01,6.67287e-06,9.99999e-01
4.463888621e-01,8.44395e-06,9.99999e-01,9.99999e-01,9.99999e-01,8.44395e-06,9.99999e-01
4.486208064e-01,1.06355e-05,9.99999e-01,9.99999e-01,9.99999e-01,1.06355e-05,9.99999e-01
4.508639105e-01,1.33350e-05,9.99999e-01,9.99999e-01,9.99999e-01,1.33350e-05,9.99999e-01
4.531182300e-01,1.66451e-05,9.99999e-01,9.99999e-01,9.99999e-01,1.66451e-05,9.99999e-01
4.553838212e-01,2.06860e-05,9.99999e-01,9.99999e-01,9.99999e-01,2.06860e-05,9.99999e-01
4.576607403e-01,2.55979e-05,9.99999e-01,9.99999e-01,9.99999e-01,2.55979e-05,9.99999e-01
4.599490440e-01,3.15431e-05,9.99999e-01,9.99999e-01,9.99999e-01,3.15431e-05,9.99999e-01
4.622487892e-01,3.87090e-05,9.99999e-01,9.99999e-01,9.99999e-01,3.87090e-05,9.99999e-01
4.645600332e-01,4.73111e-05,9.99999e-01,9.99999e-01,9.99999e-01,4.73111e-05,9.99999e-01
4.668828333e-01,5.75961e-05,9.99999e-01,9.99999e-01,9.99999e-01,5.75961e-05,9.99999e-01
4.692172475e-01,6.98451e-05,9.99999e-01,9.99999e-01,9.99999e-01,6.98451e-05,9.99999e-01
4.715633337e-01,8.43771e-05,9.99999e-01,9.99999e-01,9.99999e-01,8.43771e-05,9.99999e-01
4.739211504e-01,1.01553e-04,9.99999e-01,9.99999e-01,9.99999e-01,1.01553e-04,9.99999e-01
4.762907561e-01,1.21778e-04,9.99999e-01,9.99999e-01,9.99999e-01,1.21778e-04,9.99999e-01
4.786722099e-01,1.45509e-04,9.99999e-01,9.99999e-01,9.99999e-01,1.45509e-04,9.99999e-01
4.810655710e-01,1.73253e-04,9.99999e-01,9.99999e-01,9.99999e-01,1.73253e-04,9.99999e-01
4.834708988e-01,2.05578e-04,9.99999e-01,9.99999e-01,9.99999e-01,2.05578e-04,9.99999e-01
4.858882533e-01,2.43111e-04,9.99999e-01,9.99999e-01,9.99999e-01,2.43111e-04,9.99999e-01
4.883176946e-01,2.86546e-04,9.99999e-01,9.99999e-01,9.99999e-01,2.86546e-04,9.99999e-01
4.907592831e-01,3.36646e-04,9.99999e-01,9.99999e-01,9.99999e-01,3.36646e-04,9.99999e-01
4.932130795e-01,3.94249e-04,9.99999e-01,9.99999e-01,9.99999e-01,3.94249e-04,9.99999e-01
4.956791449e-01,4.60270e-04,9.99999e-01,9.99999e-01,9.99999e-01,4.60270e-04,9.99999e-01
4.981575406e-01,5.35705e-04,9.99999e-01,9.99999e-01,9.99999e-01,5.35705e-04,9.99999e-01
5.006483283e-01,6.21638e-04,9.99999e-01,9.99999e-01,9.99999e-01,6.21638e-04,9.99999e-01
5.031515699e-01,7.19239e-04,9.99999e-01,9.99999e-01,9.99999e-01,7.19239e-04,9.99999e-01
5.056673278e-01,8.29770e-04,9.99999e-01,9.99999e-01,9.99999e-01,8.29770e-04,9.99999e-01
5.081956644e-01,9.54588e-04,9.99999e-01,9.99999e-01,9.99999e-01,9.54588e-04,9.99999e-01
5.107366428e-01,1.09515e-03,9.99999e-01,9.99999e-01,9.99999e-01,1.09515e-03,9.99999e-01
5.132903260e-01,1.25300e-03,9.99999e-01,9.99999e-01,9.99999e-01,1.25300e-03,9.99999e-01
5.158567776e-01,1.42979e-03,9.99999e-01,9.99999e-01,9.99999e-01,1.42979e-03,9.99999e-01
5.184360615e-01,1.62728e-03,9.99999e-01,9.99999e-01,9.99999e-01,1.62728e-03,9.99999e-01
5.210282418e-01,1.84733e-03,9.99999e-01,9.99999e-01,9.99999e-01,1.84733e-03,9.99999e-01
5.236333830e-01,2.09188e-03,9.99999e-01,9.99999e-01,9.99999e-01,2.09188e-03,9.99999e-01
5.262515499e-01,2.36299e-03,9.99999e-01,9.99999e-01,9.99999e-01,2.36299e-03,9.99999e-01
5.288828077e-01,2.66283e-03,9.99999e-01,9.99999e-01,9.99999e-01,2.66283e-03,9.99999e-01
5.315272217e-01,2.99363e-03,9.99999e-01,9.99999e-01,9.99999e-01,2.99363e-03,9.99999e-01
5.341848578e-01,3.35776e-03,9.99999e-01,9.99999e-01,9.99999e-01,3.35776e-03,9.99999e-01
5.368557821e-01,3.75765e-03,9.99999e-01,9.99999e-01,9.99999e-01,3.75765e-03,9.99999e-01
5.395400610e-01,4.19583e-03,9.99999e-01,9.99999e-01,9.99999e-01,4.19583e-03,9.99999e-01
5.422377613e-01,4.67491e-03,9.99999e-01,9.99999e-01,9.99999e-01,4.67491e-03,9.99999e-01
5.449489501e-01,5.19758e-03,9.99999e-01,9.99999e-01,9.99999e-01,5.19758e-03,9.99999e-01
5.476736949e-01,5.76660e-03,9.99999e-01,9.99999e-01,9.99999e-01,5.76660e-03,9.99999e-01
5.504120634e-01,6.38480e-03,9.99999e-01,9.99999e-01,9.99999e-01,6.38480e-03,9.99999e-01
5.531641237e-01,7.05506e-03,9.99999e-01,9.99999e-01,9.99999e-01,7.05506e-03,9.99999e-01
5.559299443e-01,7.78033e-03,9.99999e-01,9.99999e-01,9.99999e-01,7.78033e-03,9.99999e-01
5.587095940e-01,8.56360e-03,9.99999e-01,9.99999e-01,9.99999e-01,8.56360e-03,9.99999e-01
5.615031420e-01,9.40787e-03,9.99999e-01,9.99999e-01,9.99999e-01,9.40787e-03,9.99999e-01
5.643106577e-01,1.03162e-02,9.99999e-01,9.99999e-01,9.99999e-01,1.03162e-02,9.99999e-01
5.671322110e-01,1.12917e-02,9.99999e-01,9.99999e-01,9.99999e-01,1.12917e-02,9.99999e-01
5.699678720e-01,1.23373e-02,9.99999e-01,9.99999e-01,9.99999e-01,1.23373e-02,9.99999e-01
5.728177114e-01,1.34562e-02,9.99999e-01,9.99999e-01,9.99999e-01,1.34562e-02,9.99999e-01
5.756818000e-01,1.46515e-02,9.99999e-01,9.99999e-01,9.99999e-01,1.46515e-02,9.99999e-01
5.785602090e-01,1.59261e-02,9.99999e-01,9.99999e-01,9.99999e-01,1.59261e-02,9.99999e-01
5.814530100e-01,1.72832e-02,9.99999e-01,9.99999e-01,9.99999e-01,1.72832e-02,9.99999e-01
5.843602750e-01,1.87255e-02,9.99999e-01,9.99999e-01,9.99999e-01,1.87255e-02,9.99999e-01
5.872820764e-01,2.02562e-02,9.99999e-01,9.99999e-01,9.99999e-01,2.02562e-02,9.99999e-01
5.902184868e-01,2.18780e-02,9.99999e-01,9.99999e-01,9.99999e-01,2.18780e-02,9.99999e-01
5.931695792e-01,2.35937e-02,9.99999e-01,9.99999e-01,9.99999e-01,2.35937e-02,9.99999e-01
5.961354271e-01,2.54061e-02,9.99999e-01,9.99999e-01,9.99999e-01,2.54061e-02,9.99999e-01
5.991161043e-01,2.73177e-02,9.99999e-01,9.99999e-01,9.99999e-01,2.73177e-02,9.99999e-01
6.021116848e-01,2.93311e-02,9.99999e-01,9.99999e-01,9.99999e-01,2.93311e-02,9.99999e-01
6.051222432e-01,3.14487e-02,9.99999e-01,9.99999e-01,9.99999e-01,3.14487e-02,9.99999e-01
6.081478544e-01,3.36728e-02,9.99999e-01,9.99999e-01,9.99999e-01,3.36728e-02,9.99999e-01
6.111885937e-01,3.60055e-02,9.99999e-01,9.99999e-01,9.99999e-01,3.60055e-02,9.99999e-01
6.142445367e-01,3.84489e-02,9.99999e-01,9.99999e-01,9.99999e-01,3.84489e-02,9.99999e-01
6.173157594e-01,4.10049e-02,9.99999e-01,9.99999e-01,9.99999e-01,4.10049e-02,9.99999e-01
6.204023382e-01,4.36753e-02,9.99999e-01,9.99999e-01,9.99999e-01,4.36753e-02,9.99999e-01
6.235043498e-01,4.64616e-02,9.99999e-01,9.99999e-01,9.99999e-01,4.64616e-02,9.99999e-01
6.266218716e-01,4.93654e-02,9.99999e-01,9.99999e-01,9.99999e-01,4.93654e-02,9.99999e-01
6.297549810e-01,5.23879e-02,9.99999e-01,9.99999e-01,9.99999e-01,5.23879e-02,9.99999e-01
6.329037559e-01,5.55302e-02,9.99999e-01,9.99999e-01,9.99999e-01,5.55302e-02,9.99999e-01
6.360682746e-01,5.87933e-02,9.99999e-01,9.99999e-01,9.99999e-01,5.87933e-02,9.99999e-01
6.392486160e-01,6.21780e-02,9.99999e-01,9.99999e-01,9.99999e-01,6.21780e-02,9.99999e-01
6.424448591e-01,6.56849e-02,9.99999e-01,9.99999e-01,9.99999e-01,6.56849e-02,9.99999e-01
6.456570834e-01,6.93144e-02,9.99999e-01,9.99999e-01,9.99999e-01,6.93144e-02,9.99999e-01
6.488853688e-01,7.30668e-02,9.99999e-01,9.99999e-01,9.99999e-01,7.30668e-02,9.99999e-01
6.521297956e-01,7.69421e-02,9.99999e-01,9.99999e-01,9.99999e-01,7.69421e-02,9.99999e-01
6.553904446e-01,8.09404e-02,9.99999e-01,9.99999e-01,9.99999e-01,8.09404e-02,9.99999e-01
6.586673968e-01,8.50612e-02,9.99999e-01,9.99999e-01,9.99999e-01,8.50612e-02,9.99999e-01
6.619607338e-01,8.93043e-02,9.99999e-01,9.99999e-01,9.99999e-01,8.93043e-02,9.99999e-01
6.652705375e-01,9.36688e-02,9.99999e-01,9.99999e-01,9.99999e-01,9.36688e-02,9.99999e-01
6.685968902e-01,9.81541e-02,9.99999e-01,9.99999e-01,9.99999e-01,9.81541e-02,9.99999e-01
6.719398746e-01,1.02759e-01,9.99999e-01,9.99999e-01,9.99999e-01,1.02759e-01,9.99999e-01
6.752995740e-01,1.07483e-01,9.99999e-01,9.99999e-01,9.99999e-01,1.07483e-01,9.99999e-01
6.786760719e-01,1.12324e-01,9.99999e-01,9.99999e-01,9.99999e-01,1.12324e-01,9.99999e-01
6.820694522e-01,1.17281e-01,9.99999e-01,9.99999e-01,9.99999e-01,1.17281e-01,9.99999e-01
6.854797995e-01,1.22353e-01,9.99999e-01,9.99999e-01,9.99999e-01,1.22353e-01,9.99999e-01
6.889071985e-01,1.27537e-01,9.99999e-01,9.99999e-01,9.99999e-01,1.27537e-01,9.99999e-01
6.923517345e-01,1.32832e-01,9.99999e-01,9.99999e-01,9.99999e-01,1.32832e-01,9.99999e-01
6.958134932e-01,1.38235e-01,9.99999e-01,9.99999e-01,9.99999e-01,1.38235e-01,9.99999e-01
6.992925606e-01,1.43745e-01,9.99999e-01,9.99999e-01,9.99999e-01,1.43745e-01,9.99999e-01
7.027890234e-01,1.49360e-01,9.99999e-01,9.99999e-01,9.99999e-01,1.49360e-01,9.99999e-01
7.063029686e-01,1.55076e-01,9.99999e-01,9.99999e-01,9.99999e-01,1.55076e-01,9.99999e-01
7.098344834e-01,1.60891e-01,9.99999e-01,9.99999e-01,9.99999e-01,1.60891e-01,9.99999e-01
7.133836558e-01,1.66804e-01,9.99999e-01,9.99999e-01,9.99999e-01,1.66804e-01,9.99999e-01
7.169505741e-01,1.72810e-01,9.99999e-01,9.99999e-01,9.99999e-01,1.72810e-01,9.99999e-01
7.205353270e-01,1.78908e-01,9.99999e-01,9.99999e-01,9.99999e-01,1.78908e-01,9.99999e-01
7.241380036e-01,1.85094e-01,9.99999e-01,9.99999e-01,9.99999e-01,1.85094e-01,9.99999e-01
7.277586936e-01,1.91365e-01,9.99999e-01,9.99999e-01,9.99999e-01,1.91365e-01,9.99999e-01
7.313974871e-01,1.97718e-01,9.99999e-01,9.99999e-01,9.99999e-01,1.97718e-01,9.99999e-01
7.350544745e-01,2.04151e-01,9.99999e-01,9.99999e-01,9.99999e-01,2.04151e-01,9.99999e-01
7.387297469e-01,2.10660e-01,9.99999e-01,9.99999e-01,9.99999e-01,2.10660e-01,9.99999e-01
7.424233956e-01,2.17242e-01,9.99999e-01,9.99999e-01,9.99999e-01,2.17242e-01,9.99999e-01
7.461355126e-01,2.23893e-01,9.99999e-01,9.99999e-01,9.99999e-01,2.23893e-01,9.99999e-01
7.498661902e-01,2.30610e-01,9.99999e-01,9.99999e-01,9.99999e-01,2.30610e-01,9.99999e-01
7.536155211e-01,2.37390e-01,9.99999e-01,9.99999e-01,9.99999e-01,2.37390e-01,9.99999e-01
7.573835987e-01,2.44230e-01,9.99999e-01,9.99999e-01,9.99999e-01,2.44230e-01,9.99999e-01
7.611705167e-01,2.51126e-01,9.99999e-01,9.99999e-01,9.99999e-01,2.51126e-01,9.99999e-01
7.649763693e-01,2.58075e-01,9.99999e-01,9.99999e-01,9.99999e-01,2.58075e-01,9.99999e-01
7.688012511e-01,2.65073e-01,9.99999e-01,9.99999e-01,9.99999e-01,2.65073e-01,9.99999e-01
7.726452574e-01,2.72116e-01,9.99999e-01,9.99999e-01,9.99999e-01,2.72116e-01,9.99999e-01
7.765084837e-01,2.79203e-01,9.99999e-01,9.99999e-01,9.99999e-01,2.79203e-01,9.99999e-01
7.803910261e-01,2.71032e-01,9.99999e-01,9.99999e-01,9.46577e-01,2.86328e-01,9.99999e-01
7.842929812e-01,2.27511e-01,9.99999e-01,9.99999e-01,7.75194e-01,2.93489e-01,9.99999e-01
7.882144461e-01,2.29312e-01,9.99999e-01,9.99999e-01,7.62636e-01,3.00683e-01,9.99999e-01
7.921555184e-01,2.62074e-01,9.99999e-01,9.99999e-01,8.51149e-01,3.07906e-01,9.99999e-01
7.961162960e-01,2.82753e-01,9.99999e-01,9.99999e-01,8.97190e-01,3.15154e-01,9.99999e-01
8.000968774e-01,3.04009e-01,9.99999e-01,9.99999e-01,9.42885e-01,3.22424e-01,9.99999e-01
8.040973618e-01,3.19807e-01,9.99999e-01,9.99999e-01,9.69952e-01,3.29714e-01,9.99999e-01
8.081178486e-01,3.32336e-01,9.99999e-01,9.99999e-01,9.86102e-01,3.37020e-01,9.99999e-01
8.121584379e-01,3.42851e-01,9.99999e-01,9.99999e-01,9.95680e-01,3.44339e-01,9.99999e-01
8.162192301e-01,3.51331e-01,9.99999e-01,9.99999e-01,9.99044e-01,3.51667e-01,9.99999e-01
8.203003262e-01,3.58996e-01,9.99999e-01,9.99999e-01,9.99984e-01,3.59002e-01,9.99999e-01
8.244018279e-01,3.66340e-01,9.99999e-01,9.99999e-01,9.99999e-01,3.66340e-01,9.99999e-01
8.285238370e-01,3.73679e-01,9.99999e-01,9.99999e-01,9.99999e-01,3.73679e-01,9.99999e-01
8.326664562e-01,3.81016e-01,9.99999e-01,9.99999e-01,9.99999e-01,3.81016e-01,9.99999e-01
8.368297885e-01,3.88347e-01,9.99999e-01,9.99999e-01,9.99999e-01,3.88347e-01,9.99999e-01
8.410139374e-01,3.95671e-01,9.99999e-01,9.99999e-01,9.99999e-01,3.95671e-01,9.99999e-01
8.452190071e-01,4.02984e-01,9.99999e-01,9.99999e-01,9.99999e-01,4.02984e-01,9.99999e-01
8.494451021e-01,4.10284e-01,9.99999e-01,9.99999e-01,9.99999e-01,4.10284e-01,9.99999e-01
8.536923276e-01,4.17568e-01,9.99999e-01,9.99999e-01,9.99999e-01,4.17568e-01,9.99999e-01
8.579607893e-01,4.24833e-01,9.99999e-01,9.99999e-01,9.99999e-01,4.24833e-01,9.99999e-01
8.622505932e-01,4.32078e-01,9.99999e-01,9.99999e-01,9.99999e-01,4.32078e-01,9.99999e-01
8.665618462e-01,3.95628e-01,9.99999e-01,9.99999e-01,9.00587e-01,4.39299e-01,9.99999e-01
8.708946554e-01,2.36170e-01,9.99999e-01,9.99999e-01,5.28941e-01,4.46495e-01,9.99999e-01
8.752491287e-01,2.69588e-01,9.99999e-01,9.99999e-01,5.94245e-01,4.53664e-01,9.99999e-01
8.796253743e-01,3.45075e-01,9.99999e-01,9.99999e-01,7.48858e-01,4.60802e-01,9.99999e-01
8.840235012e-01,4.02351e-01,9.99999e-01,9.99999e-01,8.59892e-01,4.67908e-01,9.99999e-01
8.884436187e-01,4.47470e-01,9.99999e-01,9.99999e-01,9.42080e-01,4.74981e-01,9.99999e-01
8.928858368e-01,4.70505e-01,9.99999e-01,9.99999e-01,9.76117e-01,4.82017e-01,9.99999e-01
8.973502660e-01,4.86150e-01,9.99999e-01,9.99999e-01,9.94140e-01,4.89015e-01,9.99999e-01
9.018370173e-01,4.95653e-01,9.99999e-01,9.99999e-01,9.99352e-01,4.95974e-01,9.99999e-01
9.063462024e-01,4.94698e-01,9.99999e-01,9.99999e-01,9.83706e-01,5.02892e-01,9.99999e-01
9.108779334e-01,4.90706e-01,9.99999e-01,9.99999e-01,9.62609e-01,5.09766e-01,9.99999e-01
9.154323231e-01,5.11988e-01,9.99999e-01,9.99999e-01,9.91079e-01,5.16596e-01,9.99999e-01
9.200094847e-01,4.62516e-01,9.99999e-01,9.99999e-01,8.83709e-01,5.23380e-01,9.99999e-01
9.246095321e-01,4.40108e-01,9.99999e-01,9.99999e-01,8.30209e-01,5.30117e-01,9.99999e-01
9.292325798e-01,4.64549e-01,9.99999e-01,9.99999e-01,8.65398e-01,5.36804e-01,9.99999e-01
9.338787427e-01,4.72145e-01,9.99999e-01,9.99999e-01,8.68805e-01,5.43441e-01,9.99999e-01
9.385481364e-01,4.95877e-01,9.99999e-01,9.99999e-01,9.01550e-01,5.50027e-01,9.99999e-01
9.432408771e-01,5.22265e-01,9.99999e-01,9.99999e-01,9.38379e-01,5.56560e-01,9.99999e-01
9.479570815e-01,5.44969e-01,9.99999e-01,9.99999e-01,9.67905e-01,5.63039e-01,9.99999e-01
9.526968669e-01,5.60578e-01,9.99999e-01,9.99999e-01,9.84395e-01,5.69464e-01,9.99999e-01
9.574603512e-01,5.71972e-01,9.99999e-01,9.99999e-01,9.93295e-01,5.75833e-01,9.99999e-01
9.622476530e-01,5.80925e-01,9.99999e-01,9.99999e-01,9.97903e-01,5.82145e-01,9.99999e-01
9.670588912e-01,5.88030e-01,9.99999e-01,9.99999e-01,9.99371e-01,5.88399e-01,9.99999e-01
9.718941857e-01,5.94569e-01,9.99999e-01,9.99999e-01,9.99955e-01,5.94596e-01,9.99999e-01
9.767536566e-01,6.00733e-01,9.99999e-01,9.99999e-01,9.99999e-01,6.00733e-01,9.99999e-01
9.816374249e-01,6.06810e-01,9.99999e-01,9.99999e-01,9.99999e-01,6.06810e-01,9.99999e-01
9.865456120e-01,6.12828e-01,9.99999e-01,9.99999e-01,9.99999e-01,6.12828e-01,9.99999e-01
9.914783401e-01,6.18784e-01,9.99999e-01,9.99999e-01,9.99999e-01,6.18784e-01,9.99999e-01
9.964357318e-01,6.24678e-01,9.99999e-01,9.99999e-01,9.99999e-01,6.24678e-01,9.99999e-01
1.001417910e+00,6.30511e-01,9.99999e-01,9.99999e-01,9.99999e-01,6.30511e-01,9.99999e-01
1.006425000e+00,6.36282e-01,9.99999e-01,9.99999e-01,9.99999e-01,6.36282e-01,9.99999e-01
1.011457125e+00,6.41989e-01,9.99999e-01,9.99999e-01,9.99999e-01,6.41989e-01,9.99999e-01
1.016514411e+00,6.47634e-01,9.99999e-01,9.99999e-01,9.99999e-01,6.47634e-01,9.99999e-01
1.021596983e+00,6.53159e-01,9.99999e-01,9.99999e-01,9.99914e-01,6.53215e-01,9.99999e-01
1.026704968e+00,6.54516e-01,9.99999e-01,9.99999e-01,9.93597e-01,6.58733e-01,9.99999e-01
1.031838492e+00,6.22320e-01,9.99999e-01,9.99999e-01,9.36964e-01,6.64187e-01,9.99999e-01
1.036997685e+00,6.23893e-02,9.99999e-01,9.99999e-01,9.31771e-02,6.69577e-01,9.99999e-01
1.042182673e+00,2.14953e-02,9.99999e-01,9.99999e-01,3.18494e-02,6.74903e-01,9.99999e-01
1.047393587e+00,3.58267e-02,9.99999e-01,9.99999e-01,5.26735e-02,6.80165e-01,9.99999e-01
1.052630555e+00,1.31320e-04,9.99999e-01,9.99999e-01,1.91607e-04,6.85363e-01,9.99999e-01
1.057893707e+00,4.30073e-04,9.99999e-01,9.99999e-01,6.22845e-04,6.90496e-01,9.99999e-01
1.063183176e+00,2.85319e-03,9.99999e-01,9.99999e-01,4.10196e-03,6.95566e-01,9.99999e-01
1.068499092e+00,1.33511e-02,9.99999e-01,9.99999e-01,1.90574e-02,7.00572e-01,9.99999e-01
1.073841587e+00,5.67964e-02,9.99999e-01,9.99999e-01,8.05036e-02,7.05513e-01,9.99999e-01
1.079210795e+00,1.44262e-01,9.99999e-01,9.99999e-01,2.03074e-01,7.10391e-01,9.99999e-01
1.084606849e+00,2.94254e-01,9.99999e-01,9.99999e-01,4.11426e-01,7.15206e-01,9.99999e-01
1.090029883e+00,4.53287e-01,9.99999e-01,9.99999e-01,6.29603e-01,7.19957e-01,9.99999e-01
1.095480033e+00,5.76704e-01,9.99999e-01,9.99999e-01,7.95843e-01,7.24644e-01,9.99999e-01
1.100957433e+00,6.53166e-01,9.99999e-01,9.99999e-01,8.95643e-01,7.29269e-01,9.99999e-01
1.106462220e+00,7.01111e-01,9.99999e-01,9.99999e-01,9.55411e-01,7.33831e-01,9.99999e-01
1.111994531e+00,7.25949e-01,9.99999e-01,9.99999e-01,9.83229e-01,7.38330e-01,9.99999e-01
1.117554504e+00,7.39706e-01,9.99999e-01,9.99999e-01,9.95876e-01,7.42768e-01,9.99999e-01
1.123142276e+00,7.46941e-01,9.99999e-01,9.99999e-01,9.99728e-01,7.47144e-01,9.99999e-01
1.128757988e+00,7.51458e-01,9.99999e-01,9.99999e-01,9.99999e-01,7.51458e-01,9.99999e-01
1.134401778e+00,7.55711e-01,9.99999e-01,9.99999e-01,9.99999e-01,7.55711e-01,9.99999e-01
1.140073787e+00,7.59904e-01,9.99999e-01,9.99999e-01,9.99999e-01,7.59904e-01,9.99999e-01
1.145774156e+00,7.64036e-01,9.99999e-01,9.99999e-01,9.99999e-01,7.64036e-01,9.99999e-01
1.151503026e+00,7.68109e-01,9.99999e-01,9.99999e-01,9.99999e-01,7.68109e-01,9.99999e-01
1.157260541e+00,7.72122e-01,9.99999e-01,9.99999e-01,9.99999e-01,7.72122e-01,9.99999e-01
1.163046844e+00,7.76076e-01,9.99999e-01,9.99999e-01,9.99999e-01,7.76076e-01,9.99999e-01
1.168862078e+00,7.79972e-01,9.99999e-01,9.99999e-01,9.99999e-01,7.79972e-01,9.99999e-01
1.174706389e+00,7.83810e-01,9.99999e-01,9.99999e-01,9.99999e-01,7.83810e-01,9.99999e-01
1.180579921e+00,7.87590e-01,9.99999e-01,9.99999e-01,9.99999e-01,7.87590e-01,9.99999e-01
1.186482820e+00,7.91305e-01,9.99999e-01,9.99999e-01,9.99988e-01,7.91314e-01,9.99999e-01
1.192415234e+00,7.77177e-01,9.99999e-01,9.99999e-01,9.77605e-01,7.94981e-01,9.99999e-01
1.198377311e+00,4.35627e-01,9.99999e-01,9.99999e-01,5.45494e-01,7.98592e-01,9.99999e-01
1.204369197e+00,1.08500e-17,9.99999e-01,9.99999e-01,1.35262e-17,8.02147e-01,9.99999e-01
1.210391043e+00,1.37393e-68,9.99999e-01,9.99999e-01,1.70537e-68,8.05648e-01,9.99999e-01
1.216442998e+00,1.73562e-59,9.99999e-01,9.99999e-01,2.14514e-59,8.09094e-01,9.99999e-01
1.222525213e+00,1.31017e-58,9.99999e-01,9.99999e-01,1.61255e-58,8.12487e-01,9.99999e-01
1.228637839e+00,2.36682e-45,9.99999e-01,9.99999e-01,2.90113e-45,8.15826e-01,9.99999e-01
