#,Wave/freq,Total,N2,O2,CO2,Rayleigh,CIA
4.000000000e-01,1.56058e-15,9.99999e-01,9.99999e-01,9.99999e-01,1.56058e-15,9.99999e-01
4.020000000e-01,3.06242e-15,9.99999e-01,9.99999e-01,9.99999e-01,3.06242e-15,9.99999e-01
4.040100000e-01,5.92586e-15,9.99999e-01,9.99999e-01,9.99999e-01,5.92586e-15,9.99999e-01
4.060300500e-01,1.13181e-14,9.99999e-01,9.99999e-01,9.99999e-01,1.13181e-14,9.99999e-01
4.080602003e-01,2.13426e-14,9.99999e-01,9.99999e-01,9.99999e-01,2.13426e-14,9.99999e-01
4.101005013e-01,3.97446e-14,9.99999e-01,9.99999e-01,9.99999e-01,3.97446e-14,9.99999e-01
4.121510038e-01,7.31099e-14,9.99999e-01,9.99999e-01,9.99999e-01,7.31099e-14,9.99999e-01
4.142117588e-01,1.32876e-13,9.99999e-01,9.99999e-01,9.99999e-01,1.32876e-13,9.99999e-01
4.162828176e-01,2.38665e-13,9.99999e-01,9.99999e-01,9.99999e-01,2.38665e-13,9.99999e-01
4.183642317e-01,4.23749e-13,9.99999e-01,9.99999e-01,9.99999e-01,4.23749e-13,9.99999e-01
4.204560528e-01,7.43882e-13,9.99999e-01,9.99999e-01,9.99999e-01,7.43882e-13,9.99999e-01
4.225583331e-01,1.29143e-12,9.99999e-01,9.99999e-01,9.99999e-01,1.29143e-12,9.99999e-01
4.246711247e-01,2.21773e-12,9.99999e-01,9.99999e-01,9.99999e-01,2.21773e-12,9.99999e-01
4.267944804e-01,3.76795e-12,9.99999e-01,9.99999e-01,9.99999e-01,3.76795e-12,9.99999e-01
4.289284528e-01,6.33513e-12,9.99999e-01,9.99999e-01,9.99999e-01,6.33513e-12,9.99999e-01
4.310730950e-01,1.05426e-11,9.99999e-01,9.99999e-01,9.99999e-01,1.05426e-11,9.99999e-01
4.332284605e-01,1.73689e-11,9.99999e-01,9.99999e-01,9.99999e-01,1.73689e-11,9.99999e-01
4.353946028e-01,2.83344e-11,9.99999e-01,9.99999e-01,9.99999e-01,2.83344e-11,9.99999e-01
4.375715758e-01,4.57780e-11,9.99999e-01,9.99999e-01,9.99999e-01,4.57780e-11,9.99999e-01
4.397594337e-01,7.32629e-11,9.99999e-01,9.99999e-01,9.99999e-01,7.32629e-11,9.99999e-01
4.419582309e-01,1.16166e-10,9.99999e-01,9.99999e-01,9.99999e-01,1.16166e-10,9.99999e-01
4.441680220e-01,1.82523e-10,9.99999e-01,9.99999e-01,9.99999e-01,1.82523e-10,9.99999e-01
4.463888621e-01,2.84237e-10,9.99999e-01,9.99999e-01,9.99999e-01,2.84237e-10,9.99999e-01
4.486208064e-01,4.38777e-10,9.99999e-01,9.99999e-01,9.99999e-01,4.38777e-10,9.99999e-01
4.508639105e-01,6.71556e-10,9.99999e-01,9.99999e-01,9.99999e-01,6.71556e-10,9.99999e-01
4.531182300e-01,1.01923e-09,9.99999e-01,9.99999e-01,9.99999e-01,1.01923e-09,9.99999e-01
4.553838212e-01,1.53419e-09,9.99999e-01,9.99999e-01,9.99999e-01,1.53419e-09,9.99999e-01
4.576607403e-01,2.29076e-09,9.99999e-01,9.99999e-01,9.99999e-01,2.29076e-09,9.99999e-01
4.599490440e-01,3.39345e-09,9.99999e-01,9.99999e-01,9.99999e-01,3.39345e-09,9.99999e-01
4.622487892e-01,4.98807e-09,9.99999e-01,9.99999e-01,9.99999e-01,4.98807e-09,9.99999e-01
4.645600332e-01,7.27644e-09,9.99999e-01,9.99999e-01,9.99999e-01,7.27644e-09,9.99999e-01
4.668828333e-01,1.05358e-08,9.99999e-01,9.99999e-01,9.99999e-01,1.05358e-08,9.99999e-01
4.692172475e-01,1.51439e-08,9.99999e-01,9.99999e-01,9.99999e-01,1.51439e-08,9.99999e-01
4.715633337e-01,2.16122e-08,9.99999e-01,9.99999e-01,9.99999e-01,2.16122e-08,9.99999e-01
4.739211504e-01,3.06272e-08,9.99999e-01,9.99999e-01,9.99999e-01,3.06272e-08,9.99999e-01
4.762907561e-01,4.31047e-08,9.99999e-01,9.99999e-01,9.99999e-01,4.31047e-08,9.99999e-01
4.786722099e-01,6.02575e-08,9.99999e-01,9.99999e-01,9.99999e-01,6.02575e-08,9.99999e-01
4.810655710e-01,8.36804e-08,9.99999e-01,9.99999e-01,9.99999e-01,8.36804e-08,9.99999e-01
4.834708988e-01,1.15457e-07,9.99999e-01,9.99999e-01,9.99999e-01,1.15457e-07,9.99999e-01
4.858882533e-01,1.58290e-07,9.99999e-01,9.99999e-01,9.99999e-01,1.58290e-07,9.99999e-01
4.883176946e-01,2.15666e-07,9.99999e-01,9.99999e-01,9.99999e-01,2.15666e-07,9.99999e-01
4.907592831e-01,2.92049e-07,9.99999e-01,9.99999e-01,9.99999e-01,2.92049e-07,9.99999e-01
4.932130795e-01,3.93124e-07,9.99999e-01,9.99999e-01,9.99999e-01,3.93124e-07,9.99999e-01
4.956791449e-01,5.26082e-07,9.99999e-01,9.99999e-01,9.99999e-01,5.26082e-07,9.99999e-01
4.981575406e-01,6.99968e-07,9.99999e-01,9.99999e-01,9.99999e-01,6.99968e-07,9.99999e-01
5.006483283e-01,9.26089e-07,9.99999e-01,9.99999e-01,9.99999e-01,9.26089e-07,9.99999e-01
5.031515699e-01,1.21850e-06,9.99999e-01,9.99999e-01,9.99999e-01,1.21850e-06,9.99999e-01
5.056673278e-01,1.59458e-06,9.99999e-01,9.99999e-01,9.99999e-01,1.59458e-06,9.99999e-01
5.081956644e-01,2.07567e-06,9.99999e-01,9.99999e-01,9.99999e-01,2.07567e-06,9.99999e-01
5.107366428e-01,2.68787e-06,9.99999e-01,9.99999e-01,9.99999e-01,2.68787e-06,9.99999e-01
5.132903260e-01,3.46291e-06,9.99999e-01,9.99999e-01,9.99999e-01,3.46291e-06,9.99999e-01
5.158567776e-01,4.43916e-06,9.99999e-01,9.99999e-01,9.99999e-01,4.43916e-06,9.99999e-01
5.184360615e-01,5.66278e-06,9.99999e-01,9.99999e-01,9.99999e-01,5.66278e-06,9.99999e-01
5.210282418e-01,7.18903e-06,9.99999e-01,9.99999e-01,9.99999e-01,7.18903e-06,9.99999e-01
5.236333830e-01,9.08373e-06,9.99999e-01,9.99999e-01,9.99999e-01,9.08373e-06,9.99999e-01
5.262515499e-01,1.14249e-05,9.99999e-01,9.99999e-01,9.99999e-01,1.14249e-05,9.99999e-01
5.288828077e-01,1.43044e-05,9.99999e-01,9.99999e-01,9.99999e-01,1.43044e-05,9.99999e-01
5.315272217e-01,1.78304e-05,9.99999e-01,9.99999e-01,9.99999e-01,1.78304e-05,9.99999e-01
5.341848578e-01,2.21291e-05,9.99999e-01,9.99999e-01,9.99999e-01,2.21291e-05,9.99999e-01
5.368557821e-01,2.73471e-05,9.99999e-01,9.99999e-01,9.99999e-01,2.73471e-05,9.99999e-01
5.395400610e-01,3.36546e-05,9.99999e-01,9.99999e-01,9.99999e-01,3.36546e-05,9.99999e-01
5.422377613e-01,4.12473e-05,9.99999e-01,9.99999e-01,9.99999e-01,4.12473e-05,9.99999e-01
5.449489501e-01,5.03504e-05,9.99999e-01,9.99999e-01,9.99999e-01,5.03504e-05,9.99999e-01
5.476736949e-01,6.12208e-05,9.99999e-01,9.99999e-01,9.99999e-01,6.12208e-05,9.99999e-01
5.504120634e-01,7.41512e-05,9.99999e-01,9.99999e-01,9.99999e-01,7.41512e-05,9.99999e-01
5.531641237e-01,8.94733e-05,9.99999e-01,9.99999e-01,9.99999e-01,8.94733e-05,9.99999e-01
5.559299443e-01,1.07562e-04,9.99999e-01,9.99999e-01,9.99999e-01,1.07562e-04,9.99999e-01
5.587095940e-01,1.28837e-04,9.99999e-01,9.99999e-01,9.99999e-01,1.28837e-04,9.99999e-01
5.615031420e-01,1.53772e-04,9.99999e-01,9.99999e-01,9.99999e-01,1.53772e-04,9.99999e-01
5.643106577e-01,1.82893e-04,9.99999e-01,9.99999e-01,9.99999e-01,1.82893e-04,9.99999e-01
5.671322110e-01,2.16784e-04,9.99999e-01,9.99999e-01,9.99999e-01,2.16784e-04,9.99999e-01
5.699678720e-01,2.56095e-04,9.99999e-01,9.99999e-01,9.99999e-01,2.56095e-04,9.99999e-01
5.728177114e-01,3.01539e-04,9.99999e-01,9.99999e-01,9.99999e-01,3.01539e-04,9.99999e-01
5.756818000e-01,3.53904e-04,9.99999e-01,9.99999e-01,9.99999e-01,3.53904e-04,9.99999e-01
5.785602090e-01,4.14050e-04,9.99999e-01,9.99999e-01,9.99999e-01,4.14050e-04,9.99999e-01
5.814530100e-01,4.82919e-04,9.99999e-01,9.99999e-01,9.99999e-01,4.82919e-04,9.99999e-01
5.843602750e-01,5.61534e-04,9.99999e-01,9.99999e-01,9.99999e-01,5.61534e-04,9.99999e-01
5.872820764e-01,6.51005e-04,9.99999e-01,9.99999e-01,9.99999e-01,6.51005e-04,9.99999e-01
5.902184868e-01,7.52530e-04,9.99999e-01,9.99999e-01,9.99999e-01,7.52530e-04,9.99999e-01
5.931695792e-01,8.67402e-04,9.99999e-01,9.99999e-01,9.99999e-01,8.67402e-04,9.99999e-01
5.961354271e-01,9.97007e-04,9.99999e-01,9.99999e-01,9.99999e-01,9.97007e-04,9.99999e-01
5.991161043e-01,1.14283e-03,9.99999e-01,9.99999e-01,9.99999e-01,1.14283e-03,9.99999e-01
6.021116848e-01,1.30645e-03,9.99999e-01,9.99999e-01,9.99999e-01,1.30645e-03,9.99999e-01
6.051222432e-01,1.48956e-03,9.99999e-01,9.99999e-01,9.99999e-01,1.48956e-03,9.99999e-01
6.081478544e-01,1.69393e-03,9.99999e-01,9.99999e-01,9.99999e-01,1.69393e-03,9.99999e-01
6.111885937e-01,1.92147e-03,9.99999e-01,9.99999e-01,9.99999e-01,1.92147e-03,9.99999e-01
6.142445367e-01,2.17414e-03,9.99999e-01,9.99999e-01,9.99999e-01,2.17414e-03,9.99999e-01
6.173157594e-01,2.45405e-03,9.99999e-01,9.99999e-01,9.99999e-01,2.45405e-03,9.99999e-01
6.204023382e-01,2.76337e-03,9.99999e-01,9.99999e-01,9.99999e-01,2.76337e-03,9.99999e-01
6.235043498e-01,3.10440e-03,9.99999e-01,9.99999e-01,9.99999e-01,3.10440e-03,9.99999e-01
6.266218716e-01,3.47950e-03,9.99999e-01,9.99999e-01,9.99999e-01,3.47950e-03,9.99999e-01
6.297549810e-01,3.89115e-03,9.99999e-01,9.99999e-01,9.99999e-01,3.89115e-03,9.99999e-01
6.329037559e-01,4.34190e-03,9.99999e-01,9.99999e-01,9.99999e-01,4.34190e-03,9.99999e-01
6.360682746e-01,4.83439e-03,9.99999e-01,9.99999e-01,9.99999e-01,4.83439e-03,9.99999e-01
6.392486160e-01,5.37133e-03,9.99999e-01,9.99999e-01,9.99999e-01,5.37133e-03,9.99999e-01
6.424448591e-01,5.95550e-03,9.99999e-01,9.99999e-01,9.99999e-01,5.95550e-03,9.99999e-01
6.456570834e-01,6.58975e-03,9.99999e-01,9.99999e-01,9.99999e-01,6.58975e-03,9.99999e-01
6.488853688e-01,7.27699e-03,9.99999e-01,9.99999e-01,9.99999e-01,7.27699e-03,9.99999e-01
6.521297956e-01,8.02017e-03,9.99999e-01,9.99999e-01,9.99999e-01,8.02017e-03,9.99999e-01
6.553904446e-01,8.82228e-03,9.99999e-01,9.99999e-01,9.99999e-01,8.82228e-03,9.99999e-01
6.586673968e-01,9.68636e-03,9.99999e-01,9.99999e-01,9.99999e-01,9.68636e-03,9.99999e-01
6.619607338e-01,1.06155e-02,9.99999e-01,9.99999e-01,9.99999e-01,1.06155e-02,9.99999e-01
6.652705375e-01,1.16127e-02,9.99999e-01,9.99999e-01,9.99999e-01,1.16127e-02,9.99999e-01
6.685968902e-01,1.26810e-02,9.99999e-01,9.99999e-01,9.99999e-01,1.26810e-02,9.99999e-01
6.719398746e-01,1.38236e-02,9.99999e-01,9.99999e-01,9.99999e-01,1.38236e-02,9.99999e-01
6.752995740e-01,1.50435e-02,9.99999e-01,9.99999e-01,9.99999e-01,1.50435e-02,9.99999e-01
6.786760719e-01,1.63437e-02,9.99999e-01,9.99999e-01,9.99999e-01,1.63437e-02,9.99999e-01
6.820694522e-01,1.77273e-02,9.99999e-01,9.99999e-01,9.99999e-01,1.77273e-02,9.99999e-01
6.854797995e-01,1.91971e-02,9.99999e-01,9.99999e-01,9.99999e-01,1.91971e-02,9.99999e-01
6.889071985e-01,2.07561e-02,9.99999e-01,9.99999e-01,9.99999e-01,2.07561e-02,9.99999e-01
6.923517345e-01,2.24071e-02,9.99999e-01,9.99999e-01,9.99999e-01,2.24071e-02,9.99999e-01
6.958134932e-01,2.41529e-02,9.99999e-01,9.99999e-01,9.99999e-01,2.41529e-02,9.99999e-01
6.992925606e-01,2.59962e-02,9.99999e-01,9.99999e-01,9.99999e-01,2.59962e-02,9.99999e-01
7.027890234e-01,2.79396e-02,9.99999e-01,9.99999e-01,9.99999e-01,2.79396e-02,9.99999e-01
7.063029686e-01,2.99855e-02,9.99999e-01,9.99999e-01,9.99999e-01,2.99855e-02,9.99999e-01
7.098344834e-01,3.21363e-02,9.99999e-01,9.99999e-01,9.99999e-01,3.21363e-02,9.99999e-01
7.133836558e-01,3.43943e-02,9.99999e-01,9.99999e-01,9.99999e-01,3.43943e-02,9.99999e-01
7.169505741e-01,3.67616e-02,9.99999e-01,9.99999e-01,9.99999e-01,3.67616e-02,9.99999e-01
7.205353270e-01,3.92402e-02,9.99999e-01,9.99999e-01,9.99999e-01,3.92402e-02,9.99999e-01
7.241380036e-01,4.18320e-02,9.99999e-01,9.99999e-01,9.99999e-01,4.18320e-02,9.99999e-01
7.277586936e-01,4.45386e-02,9.99999e-01,9.99999e-01,9.99999e-01,4.45386e-02,9.99999e-01
7.313974871e-01,4.73618e-02,9.99999e-01,9.99999e-01,9.99999e-01,4.73618e-02,9.99999e-01
7.350544745e-01,5.03027e-02,9.99999e-01,9.99999e-01,9.99999e-01,5.03027e-02,9.99999e-01
7.387297469e-01,5.33627e-02,9.99999e-01,9.99999e-01,9.99999e-01,5.33627e-02,9.99999e-01
7.424233956e-01,5.65429e-02,9.99999e-01,9.99999e-01,9.99999e-01,5.65429e-02,9.99999e-01
7.461355126e-01,5.98442e-02,9.99999e-01,9.99999e-01,9.99999e-01,5.98442e-02,9.99999e-01
7.498661902e-01,6.32672e-02,9.99999e-01,9.99999e-01,9.99999e-01,6.32672e-02,9.99999e-01
7.536155211e-01,6.68126e-02,9.99999e-01,9.99999e-01,9.99999e-01,6.68126e-02,9.99999e-01
7.573835987e-01,7.04807e-02,9.99999e-01,9.99999e-01,9.99999e-01,7.04807e-02,9.99999e-01
7.611705167e-01,7.42718e-02,9.99999e-01,9.99999e-01,9.99999e-01,7.42718e-02,9.99999e-01
7.649763693e-01,7.81858e-02,9.99999e-01,9.99999e-01,9.99999e-01,7.81858e-02,9.99999e-01
7.688012511e-01,8.22226e-02,9.99999e-01,9.99999e-01,9.99999e-01,8.22226e-02,9.99999e-01
7.726452574e-01,8.63819e-02,9.99999e-01,9.99999e-01,9.99999e-01,8.63819e-02,9.99999e-01
7.765084837e-01,9.06632e-02,9.99999e-01,9.99999e-01,9.99999e-01,9.06632e-02,9.99999e-01
7.803910261e-01,8.69781e-02,9.99999e-01,9.99999e-01,9.14924e-01,9.50658e-02,9.99999e-01
7.842929812e-01,6.26567e-02,9.99999e-01,9.99999e-01,6.29153e-01,9.95889e-02,9.99999e-01
7.882144461e-01,6.41568e-02,9.99999e-01,9.99999e-01,6.15522e-01,1.04231e-01,9.99999e-01
7.921555184e-01,8.08207e-02,9.99999e-01,9.99999e-01,7.41526e-01,1.08992e-01,9.99999e-01
7.961162960e-01,9.28342e-02,9.99999e-01,9.99999e-01,8.15263e-01,1.13870e-01,9.99999e-01
8.000968774e-01,1.06403e-01,9.99999e-01,9.99999e-01,8.95173e-01,1.18863e-01,9.99999e-01
8.040973618e-01,1.17012e-01,9.99999e-01,9.99999e-01,9.43870e-01,1.23970e-01,9.99999e-01
8.081178486e-01,1.25822e-01,9.99999e-01,9.99999e-01,9.73936e-01,1.29189e-01,9.99999e-01
8.121584379e-01,1.33415e-01,9.99999e-01,9.99999e-01,9.91797e-01,1.34519e-01,9.99999e-01
8.162192301e-01,1.39702e-01,9.99999e-01,9.99999e-01,9.98181e-01,1.39956e-01,9.99999e-01
8.203003262e-01,1.45495e-01,9.99999e-01,9.99999e-01,9.99968e-01,1.45499e-01,9.99999e-01
8.244018279e-01,1.51146e-01,9.99999e-01,9.99999e-01,9.99999e-01,1.51146e-01,9.99999e-01
8.285238370e-01,1.56893e-01,9.99999e-01,9.99999e-01,9.99999e-01,1.56893e-01,9.99999e-01
8.326664562e-01,1.62740e-01,9.99999e-01,9.99999e-01,9.99999e-01,1.62740e-01,9.99999e-01
8.368297885e-01,1.68682e-01,9.99999e-01,9.99999e-01,9.99999e-01,1.68682e-01,9.99999e-01
8.410139374e-01,1.74717e-01,9.99999e-01,9.99999e-01,9.99999e-01,1.74717e-01,9.99999e-01
8.452190071e-01,1.80843e-01,9.99999e-01,9.99999e-01,9.99999e-01,1.80843e-01,9.99999e-01
8.494451021e-01,1.87056e-01,9.99999e-01,9.99999e-01,9.99999e-01,1.87056e-01,9.99999e-01
8.536923276e-01,1.93353e-01,9.99999e-01,9.99999e-01,9.99999e-01,1.93353e-01,9.99999e-01
8.579607893e-01,1.99732e-01,9.99999e-01,9.99999e-01,9.99999e-01,1.99732e-01,9.99999e-01
8.622505932e-01,2.06189e-01,9.99999e-01,9.99999e-01,9.99999e-01,2.06189e-01,9.99999e-01
8.665618462e-01,1.85496e-01,9.99999e-01,9.99999e-01,8.72013e-01,2.12721e-01,9.99999e-01
8.708946554e-01,7.08833e-02,9.99999e-01,9.99999e-01,3.23188e-01,2.19325e-01,9.99999e-01
8.752491287e-01,8.75937e-02,9.99999e-01,9.99999e-01,3.87587e-01,2.25997e-01,9.99999e-01
8.796253743e-01,1.36257e-01,9.99999e-01,9.99999e-01,5.85461e-01,2.32735e-01,9.99999e-01
8.840235012e-01,1.80518e-01,9.99999e-01,9.99999e-01,7.53619e-01,2.39534e-01,9.99999e-01
8.884436187e-01,2.20089e-01,9.99999e-01,9.99999e-01,8.93247e-01,2.46392e-01,9.99999e-01
8.928858368e-01,2.41992e-01,9.99999e-01,9.99999e-01,9.55337e-01,2.53305e-01,9.99999e-01
8.973502660e-01,2.57374e-01,9.99999e-01,9.99999e-01,9.88875e-01,2.60269e-01,9.99999e-01
9.018370173e-01,2.66952e-01,9.99999e-01,9.99999e-01,9.98764e-01,2.67282e-01,9.99999e-01
9.063462024e-01,2.66265e-01,9.99999e-01,9.99999e-01,9.70566e-01,2.74340e-01,9.99999e-01
9.108779334e-01,2.61937e-01,9.99999e-01,9.99999e-01,9.30707e-01,2.81439e-01,9.99999e-01
9.154323231e-01,2.83695e-01,9.99999e-01,9.99999e-01,9.83085e-01,2.88576e-01,9.99999e-01
9.200094847e-01,2.40060e-01,9.99999e-01,9.99999e-01,8.11704e-01,2.95747e-01,9.99999e-01
9.246095321e-01,2.13770e-01,9.99999e-01,9.99999e-01,7.05626e-01,3.02950e-01,9.99999e-01
9.292325798e-01,2.37931e-01,9.99999e-01,9.99999e-01,7.67070e-01,3.10181e-01,9.99999e-01
9.338787427e-01,2.44217e-01,9.99999e-01,9.99999e-01,7.69339e-01,3.17437e-01,9.99999e-01
9.385481364e-01,2.67353e-01,9.99999e-01,9.99999e-01,8.23349e-01,3.24714e-01,9.99999e-01
9.432408771e-01,2.94395e-01,9.99999e-01,9.99999e-01,8.86707e-01,3.32009e-01,9.99999e-01
9.479570815e-01,3.19076e-01,9.99999e-01,9.99999e-01,9.40341e-01,3.39319e-01,9.99999e-01
9.526968669e-01,3.36500e-01,9.99999e-01,9.99999e-01,9.70743e-01,3.46641e-01,9.99999e-01
9.574603512e-01,3.49499e-01,9.99999e-01,9.99999e-01,9.87362e-01,3.53972e-01,9.99999e-01
9.622476530e-01,3.59876e-01,9.99999e-01,9.99999e-01,9.96035e-01,3.61308e-01,9.99999e-01
9.670588912e-01,3.68208e-01,9.99999e-01,9.99999e-01,9.98807e-01,3.68647e-01,9.99999e-01
9.718941857e-01,3.75953e-01,9.99999e-01,9.99999e-01,9.99913e-01,3.75986e-01,9.99999e-01
9.767536566e-01,3.83321e-01,9.99999e-01,9.99999e-01,9.99999e-01,3.83321e-01,9.99999e-01
9.816374249e-01,3.90650e-01,9.99999e-01,9.99999e-01,9.99999e-01,3.90650e-01,9.99999e-01
9.865456120e-01,3.97971e-01,9.99999e-01,9.99999e-01,9.99999e-01,3.97971e-01,9.99999e-01
9.914783401e-01,4.05280e-01,9.99999e-01,9.99999e-01,9.99999e-01,4.05280e-01,9.99999e-01
9.964357318e-01,4.12575e-01,9.99999e-01,9.99999e-01,9.99999e-01,4.12575e-01,9.99999e-01
1.001417910e+00,4.19854e-01,9.99999e-01,9.99999e-01,9.99999e-01,4.19854e-01,9.99999e-01
1.006425000e+00,4.27113e-01,9.99999e-01,9.99999e-01,9.99999e-01,4.27113e-01,9.99999e-01
1.011457125e+00,4.34351e-01,9.99999e-01,9.99999e-01,9.99999e-01,4.34351e-01,9.99999e-01
1.016514411e+00,4.41564e-01,9.99999e-01,9.99999e-01,9.99999e-01,4.41564e-01,9.99999e-01
1.021596983e+00,4.48687e-01,9.99999e-01,9.99999e-01,9.99856e-01,4.48752e-01,9.99999e-01
1.026704968e+00,4.50577e-01,9.99999e-01,9.99999e-01,9.88299e-01,4.55911e-01,9.99999e-01
1.031838492e+00,4.20621e-01,9.99999e-01,9.99999e-01,9.08390e-01,4.63039e-01,9.99999e-01
1.036997685e+00,2.37116e-02,9.99999e-01,9.99999e-01,5.04356e-02,4.70135e-01,9.99999e-01
1.042182673e+00,1.42476e-03,9.99999e-01,9.99999e-01,2.98569e-03,4.77196e-01,9.99999e-01
1.047393587e+00,3.88509e-03,9.99999e-01,9.99999e-01,8.02337e-03,4.84221e-01,9.99999e-01
1.052630555e+00,3.60314e-07,9.99999e-01,9.99999e-01,7.33526e-07,4.91207e-01,9.99999e-01
1.057893707e+00,1.32521e-06,9.99999e-01,9.99999e-01,2.66024e-06,4.98153e-01,9.99999e-01
1.063183176e+00,3.83215e-05,9.99999e-01,9.99999e-01,7.58754e-05,5.05058e-01,9.99999e-01
1.068499092e+00,4.06350e-04,9.99999e-01,9.99999e-01,7.93778e-04,5.11918e-01,9.99999e-01
1.073841587e+00,5.14367e-03,9.99999e-01,9.99999e-01,9.91581e-03,5.18734e-01,9.99999e-01
1.079210795e+00,2.90714e-02,9.99999e-01,9.99999e-01,5.53210e-02,5.25503e-01,9.99999e-01
1.084606849e+00,1.02281e-01,9.99999e-01,9.99999e-01,1.92176e-01,5.32224e-01,9.99999e-01
1.090029883e+00,2.27159e-01,9.99999e-01,9.99999e-01,4.21527e-01,5.38896e-01,9.99999e-01
1.095480033e+00,3.55526e-01,9.99999e-01,9.99999e-01,6.51722e-01,5.45517e-01,9.99999e-01
1.100957433e+00,4.48646e-01,9.99999e-01,9.99999e-01,8.12637e-01,5.52086e-01,9.99999e-01
1.106462220e+00,5.12537e-01,9.99999e-01,9.99999e-01,9.17534e-01,5.58603e-01,9.99999e-01
1.111994531e+00,5.47301e-01,9.99999e-01,9.99999e-01,9.68563e-01,5.65065e-01,9.99999e-01
1.117554504e+00,5.67009e-01,9.99999e-01,9.99999e-01,9.92190e-01,5.71472e-01,9.99999e-01
1.123142276e+00,5.77524e-01,9.99999e-01,9.99999e-01,9.99481e-01,5.77823e-01,9.99999e-01
1.128757988e+00,5.84117e-01,9.99999e-01,9.99999e-01,9.99999e-01,5.84117e-01,9.99999e-01
1.134401778e+00,5.90354e-01,9.99999e-01,9.99999e-01,9.99999e-01,5.90354e-01,9.99999e-01
1.140073787e+00,5.96531e-01,9.99999e-01,9.99999e-01,9.99999e-01,5.96531e-01,9.99999e-01
1.145774156e+00,6.02650e-01,9.99999e-01,9.99999e-01,9.99999e-01,6.02650e-01,9.99999e-01
1.151503026e+00,6.08708e-01,9.99999e-01,9.99999e-01,9.99999e-01,6.08708e-01,9.99999e-01
1.157260541e+00,6.14706e-01,9.99999e-01,9.99999e-01,9.99999e-01,6.14706e-01,9.99999e-01
1.163046844e+00,6.20643e-01,9.99999e-01,9.99999e-01,9.99999e-01,6.20643e-01,9.99999e-01
1.168862078e+00,6.26519e-01,9.99999e-01,9.99999e-01,9.99999e-01,6.26519e-01,9.99999e-01
1.174706389e+00,6.32332e-01,9.99999e-01,9.99999e-01,9.99999e-01,6.32332e-01,9.99999e-01
1.180579921e+00,6.38083e-01,9.99999e-01,9.99999e-01,9.99999e-01,6.38083e-01,9.99999e-01
1.186482820e+00,6.43761e-01,9.99999e-01,9.99999e-01,9.99985e-01,6.43770e-01,9.99999e-01
1.192415234e+00,6.23760e-01,9.99999e-01,9.99999e-01,9.60523e-01,6.49395e-01,9.99999e-01
1.198377311e+00,3.38938e-01,9.99999e-01,9.99999e-01,5.17497e-01,6.54956e-01,9.99999e-01
1.204369197e+00,2.71325e-31,9.99999e-01,9.99999e-01,4.10816e-31,6.60454e-01,9.99999e-01
1.210391043e+00,4.94215e-127,9.99999e-01,9.99999e-01,7.42188e-127,6.65888e-01,9.99999e-01
1.216442998e+00,6.53243e-110,9.99999e-01,9.99999e-01,9.73162e-110,6.71258e-01,9.99999e-01
1.222525213e+00,2.92083e-108,9.99999e-01,9.99999e-01,4.31715e-108,6.76564e-01,9.99999e-01
1.228637839e+00,1.70928e-83,9.99999e-01,9.99999e-01,2.50699e-83,6.81806e-01,9.99999e-01
