#,Wave/freq,Total,N2,O2,CO2,Rayleigh,CIA
4.000000000e-01,7.22170e-19,9.99999e-01,9.99999e-01,9.99999e-01,7.22170e-19,9.99999e-01
4.020000000e-01,1.64951e-18,9.99999e-01,9.99999e-01,9.99999e-01,1.64951e-18,9.99999e-01
4.040100000e-01,3.70344e-18,9.99999e-01,9.99999e-01,9.99999e-01,3.70344e-18,9.99999e-01
4.060300500e-01,8.18311e-18,9.99999e-01,9.99999e-01,9.99999e-01,8.18311e-18,9.99999e-01
4.080602003e-01,1.78004e-17,9.99999e-01,9.99999e-01,9.99999e-01,1.78004e-17,9.99999e-01
4.101005013e-01,3.81308e-17,9.99999e-01,9.99999e-01,9.99999e-01,3.81308e-17,9.99999e-01
4.121510038e-01,8.04612e-17,9.99999e-01,9.99999e-01,9.99999e-01,8.04612e-17,9.99999e-01
4.142117588e-01,1.67298e-16,9.99999e-01,9.99999e-01,9.99999e-01,1.67298e-16,9.99999e-01
4.162828176e-01,3.42859e-16,9.99999e-01,9.99999e-01,9.99999e-01,3.42859e-16,9.99999e-01
4.183642317e-01,6.92765e-16,9.99999e-01,9.99999e-01,9.99999e-01,6.92765e-16,9.99999e-01
4.204560528e-01,1.38045e-15,9.99999e-01,9.99999e-01,9.99999e-01,1.38045e-15,9.99999e-01
4.225583331e-01,2.71358e-15,9.99999e-01,9.99999e-01,9.99999e-01,2.71358e-15,9.99999e-01
4.246711247e-01,5.26341e-15,9.99999e-01,9.99999e-01,9.99999e-01,5.26341e-15,9.99999e-01
4.267944804e-01,1.00764e-14,9.99999e-01,9.99999e-01,9.99999e-01,1.00764e-14,9.99999e-01
4.289284528e-01,1.90448e-14,9.99999e-01,9.99999e-01,9.99999e-01,1.90448e-14,9.99999e-01
4.310730950e-01,3.55455e-14,9.99999e-01,9.99999e-01,9.99999e-01,3.55455e-14,9.99999e-01
4.332284605e-01,6.55300e-14,9.99999e-01,9.99999e-01,9.99999e-01,6.55300e-14,9.99999e-01
4.353946028e-01,1.19357e-13,9.99999e-01,9.99999e-01,9.99999e-01,1.19357e-13,9.99999e-01
4.375715758e-01,2.14839e-13,9.99999e-01,9.99999e-01,9.99999e-01,2.14839e-13,9.99999e-01
4.397594337e-01,3.82239e-13,9.99999e-01,9.99999e-01,9.99999e-01,3.82239e-13,9.99999e-01
4.419582309e-01,6.72379e-13,9.99999e-01,9.99999e-01,9.99999e-01,6.72379e-13,9.99999e-01
4.441680220e-01,1.16963e-12,9.99999e-01,9.99999e-01,9.99999e-01,1.16963e-12,9.99999e-01
4.463888621e-01,2.01249e-12,9.99999e-01,9.99999e-01,9.99999e-01,2.01249e-12,9.99999e-01
4.486208064e-01,3.42582e-12,9.99999e-01,9.99999e-01,9.99999e-01,3.42582e-12,9.99999e-01
4.508639105e-01,5.77074e-12,9.99999e-01,9.99999e-01,9.99999e-01,5.77074e-12,9.99999e-01
4.531182300e-01,9.62111e-12,9.99999e-01,9.99999e-01,9.99999e-01,9.62111e-12,9.99999e-01
4.553838212e-01,1.58794e-11,9.99999e-01,9.99999e-01,9.99999e-01,1.58794e-11,9.99999e-01
4.576607403e-01,2.59504e-11,9.99999e-01,9.99999e-01,9.99999e-01,2.59504e-11,9.99999e-01
4.599490440e-01,4.19992e-11,9.99999e-01,9.99999e-01,9.99999e-01,4.19992e-11,9.99999e-01
4.622487892e-01,6.73299e-11,9.99999e-01,9.99999e-01,9.99999e-01,6.73299e-11,9.99999e-01
4.645600332e-01,1.06936e-10,9.99999e-01,9.99999e-01,9.99999e-01,1.06936e-10,9.99999e-01
4.668828333e-01,1.68297e-10,9.99999e-01,9.99999e-01,9.99999e-01,1.68297e-10,9.99999e-01
4.692172475e-01,2.62503e-10,9.99999e-01,9.99999e-01,9.99999e-01,2.62503e-10,9.99999e-01
4.715633337e-01,4.05864e-10,9.99999e-01,9.99999e-01,9.99999e-01,4.05864e-10,9.99999e-01
4.739211504e-01,6.22140e-10,9.99999e-01,9.99999e-01,9.99999e-01,6.22140e-10,9.99999e-01
4.762907561e-01,9.45653e-10,9.99999e-01,9.99999e-01,9.99999e-01,9.45653e-10,9.99999e-01
4.786722099e-01,1.42555e-09,9.99999e-01,9.99999e-01,9.99999e-01,1.42555e-09,9.99999e-01
4.810655710e-01,2.13164e-09,9.99999e-01,9.99999e-01,9.99999e-01,2.13164e-09,9.99999e-01
4.834708988e-01,3.16223e-09,9.99999e-01,9.99999e-01,9.99999e-01,3.16223e-09,9.99999e-01
4.858882533e-01,4.65468e-09,9.99999e-01,9.99999e-01,9.99999e-01,4.65468e-09,9.99999e-01
4.883176946e-01,6.79938e-09,9.99999e-01,9.99999e-01,9.99999e-01,6.79938e-09,9.99999e-01
4.907592831e-01,9.85822e-09,9.99999e-01,9.99999e-01,9.99999e-01,9.85822e-09,9.99999e-01
4.932130795e-01,1.41886e-08,9.99999e-01,9.99999e-01,9.99999e-01,1.41886e-08,9.99999e-01
4.956791449e-01,2.02749e-08,9.99999e-01,9.99999e-01,9.99999e-01,2.02749e-08,9.99999e-01
4.981575406e-01,2.87684e-08,9.99999e-01,9.99999e-01,9.99999e-01,2.87684e-08,9.99999e-01
5.006483283e-01,4.05388e-08,9.99999e-01,9.99999e-01,9.99999e-01,4.05388e-08,9.99999e-01
5.031515699e-01,5.67393e-08,9.99999e-01,9.99999e-01,9.99999e-01,5.67393e-08,9.99999e-01
5.056673278e-01,7.88883e-08,9.99999e-01,9.99999e-01,9.99999e-01,7.88883e-08,9.99999e-01
5.081956644e-01,1.08972e-07,9.99999e-01,9.99999e-01,9.99999e-01,1.08972e-07,9.99999e-01
5.107366428e-01,1.49570e-07,9.99999e-01,9.99999e-01,9.99999e-01,1.49570e-07,9.99999e-01
5.132903260e-01,2.04013e-07,9.99999e-01,9.99999e-01,9.99999e-01,2.04013e-07,9.99999e-01
5.158567776e-01,2.76573e-07,9.99999e-01,9.99999e-01,9.99999e-01,2.76573e-07,9.99999e-01
5.184360615e-01,3.72692e-07,9.99999e-01,9.99999e-01,9.99999e-01,3.72692e-07,9.99999e-01
5.210282418e-01,4.99265e-07,9.99999e-01,9.99999e-01,9.99999e-01,4.99265e-07,9.99999e-01
5.236333830e-01,6.64974e-07,9.99999e-01,9.99999e-01,9.99999e-01,6.64974e-07,9.99999e-01
5.262515499e-01,8.80683e-07,9.99999e-01,9.99999e-01,9.99999e-01,8.80683e-07,9.99999e-01
5.288828077e-01,1.15991e-06,9.99999e-01,9.99999e-01,9.99999e-01,1.15991e-06,9.99999e-01
5.315272217e-01,1.51938e-06,9.99999e-01,9.99999e-01,9.99999e-01,1.51938e-06,9.99999e-01
5.341848578e-01,1.97967e-06,9.99999e-01,9.99999e-01,9.99999e-01,1.97967e-06,9.99999e-01
5.368557821e-01,2.56596e-06,9.99999e-01,9.99999e-01,9.99999e-01,2.56596e-06,9.99999e-01
5.395400610e-01,3.30888e-06,9.99999e-01,9.99999e-01,9.99999e-01,3.30888e-06,9.99999e-01
5.422377613e-01,4.24552e-06,9.99999e-01,9.99999e-01,9.99999e-01,4.24552e-06,9.99999e-01
5.449489501e-01,5.42054e-06,9.99999e-01,9.99999e-01,9.99999e-01,5.42054e-06,9.99999e-01
5.476736949e-01,6.88745e-06,9.99999e-01,9.99999e-01,9.99999e-01,6.88745e-06,9.99999e-01
5.504120634e-01,8.71002e-06,9.99999e-01,9.99999e-01,9.99999e-01,8.71002e-06,9.99999e-01
5.531641237e-01,1.09639e-05,9.99999e-01,9.99999e-01,9.99999e-01,1.09639e-05,9.99999e-01
5.559299443e-01,1.37385e-05,9.99999e-01,9.99999e-01,9.99999e-01,1.37385e-05,9.99999e-01
5.587095940e-01,1.71387e-05,9.99999e-01,9.99999e-01,9.99999e-01,1.71387e-05,9.99999e-01
5.615031420e-01,2.12872e-05,9.99999e-01,9.99999e-01,9.99999e-01,2.12872e-05,9.99999e-01
5.643106577e-01,2.63269e-05,9.99999e-01,9.99999e-01,9.99999e-01,2.63269e-05,9.99999e-01
5.671322110e-01,3.24233e-05,9.99999e-01,9.99999e-01,9.99999e-01,3.24233e-05,9.99999e-01
5.699678720e-01,3.97676e-05,9.99999e-01,9.99999e-01,9.99999e-01,3.97676e-05,9.99999e-01
5.728177114e-01,4.85791e-05,9.99999e-01,9.99999e-01,9.99999e-01,4.85791e-05,9.99999e-01
5.756818000e-01,5.91089e-05,9.99999e-01,9.99999e-01,9.99999e-01,5.91089e-05,9.99999e-01
5.785602090e-01,7.16429e-05,9.99999e-01,9.99999e-01,9.99999e-01,7.16429e-05,9.99999e-01
5.814530100e-01,8.65055e-05,9.99999e-01,9.99999e-01,9.99999e-01,8.65055e-05,9.99999e-01
5.843602750e-01,1.04063e-04,9.99999e-01,9.99999e-01,9.99999e-01,1.04063e-04,9.99999e-01
5.872820764e-01,1.24728e-04,9.99999e-01,9.99999e-01,9.99999e-01,1.24728e-04,9.99999e-01
5.902184868e-01,1.48963e-04,9.99999e-01,9.99999e-01,9.99999e-01,1.48963e-04,9.99999e-01
5.931695792e-01,1.77285e-04,9.99999e-01,9.99999e-01,9.99999e-01,1.77285e-04,9.99999e-01
5.961354271e-01,2.10266e-04,9.99999e-01,9.99999e-01,9.99999e-01,2.10266e-04,9.99999e-01
5.991161043e-01,2.48544e-04,9.99999e-01,9.99999e-01,9.99999e-01,2.48544e-04,9.99999e-01
6.021116848e-01,2.92822e-04,9.99999e-01,9.99999e-01,9.99999e-01,2.92822e-04,9.99999e-01
6.051222432e-01,3.43872e-04,9.99999e-01,9.99999e-01,9.99999e-01,3.43872e-04,9.99999e-01
6.081478544e-01,4.02542e-04,9.99999e-01,9.99999e-01,9.99999e-01,4.02542e-04,9.99999e-01
6.111885937e-01,4.69758e-04,9.99999e-01,9.99999e-01,9.99999e-01,4.69758e-04,9.99999e-01
6.142445367e-01,5.46529e-04,9.99999e-01,9.99999e-01,9.99999e-01,5.46529e-04,9.99999e-01
6.173157594e-01,6.33948e-04,9.99999e-01,9.99999e-01,9.99999e-01,6.33948e-04,9.99999e-01
6.204023382e-01,7.33197e-04,9.99999e-01,9.99999e-01,9.99999e-01,7.33197e-04,9.99999e-01
6.235043498e-01,8.45552e-04,9.99999e-01,9.99999e-01,9.99999e-01,8.45552e-04,9.99999e-01
6.266218716e-01,9.72382e-04,9.99999e-01,9.99999e-01,9.99999e-01,9.72382e-04,9.99999e-01
6.297549810e-01,1.11515e-03,9.99999e-01,9.99999e-01,9.99999e-01,1.11515e-03,9.99999e-01
6.329037559e-01,1.27543e-03,9.99999e-01,9.99999e-01,9.99999e-01,1.27543e-03,9.99999e-01
6.360682746e-01,1.45488e-03,9.99999e-01,9.99999e-01,9.99999e-01,1.45488e-03,9.99999e-01
6.392486160e-01,1.65527e-03,9.99999e-01,9.99999e-01,9.99999e-01,1.65527e-03,9.99999e-01
6.424448591e-01,1.87846e-03,9.99999e-01,9.99999e-01,9.99999e-01,1.87846e-03,9.99999e-01
6.456570834e-01,2.12644e-03,9.99999e-01,9.99999e-01,9.99999e-01,2.12644e-03,9.99999e-01
6.488853688e-01,2.40125e-03,9.99999e-01,9.99999e-01,9.99999e-01,2.40125e-03,9.99999e-01
6.521297956e-01,2.70508e-03,9.99999e-01,9.99999e-01,9.99999e-01,2.70508e-03,9.99999e-01
6.553904446e-01,3.04019e-03,9.99999e-01,9.99999e-01,9.99999e-01,3.04019e-03,9.99999e-01
6.586673968e-01,3.40895e-03,9.99999e-01,9.99999e-01,9.99999e-01,3.40895e-03,9.99999e-01
6.619607338e-01,3.81379e-03,9.99999e-01,9.99999e-01,9.99999e-01,3.81379e-03,9.99999e-01
6.652705375e-01,4.25727e-03,9.99999e-01,9.99999e-01,9.99999e-01,4.25727e-03,9.99999e-01
6.685968902e-01,4.74200e-03,9.99999e-01,9.99999e-01,9.99999e-01,4.74200e-03,9.99999e-01
6.719398746e-01,5.27069e-03,9.99999e-01,9.99999e-01,9.99999e-01,5.27069e-03,9.99999e-01
6.752995740e-01,5.84610e-03,9.99999e-01,9.99999e-01,9.99999e-01,5.84610e-03,9.99999e-01
6.786760719e-01,6.47107e-03,9.99999e-01,9.99999e-01,9.99999e-01,6.47107e-03,9.99999e-01
6.820694522e-01,7.14850e-03,9.99999e-01,9.99999e-01,9.99999e-01,7.14850e-03,9.99999e-01
6.854797995e-01,7.88132e-03,9.99999e-01,9.99999e-01,9.99999e-01,7.88132e-03,9.99999e-01
6.889071985e-01,8.67254e-03,9.99999e-01,9.99999e-01,9.99999e-01,8.67254e-03,9.99999e-01
6.923517345e-01,9.52518e-03,9.99999e-01,9.99999e-01,9.99999e-01,9.52518e-03,9.99999e-01
6.958134932e-01,1.04423e-02,9.99999e-01,9.99999e-01,9.99999e-01,1.04423e-02,9.99999e-01
6.992925606e-01,1.14269e-02,9.99999e-01,9.99999e-01,9.99999e-01,1.14269e-02,9.99999e-01
7.027890234e-01,1.24822e-02,9.99999e-01,9.99999e-01,9.99999e-01,1.24822e-02,9.99999e-01
7.063029686e-01,1.36111e-02,9.99999e-01,9.99999e-01,9.99999e-01,1.36111e-02,9.99999e-01
7.098344834e-01,1.48168e-02,9.99999e-01,9.99999e-01,9.99999e-01,1.48168e-02,9.99999e-01
7.133836558e-01,1.61022e-02,9.99999e-01,9.99999e-01,9.99999e-01,1.61022e-02,9.99999e-01
7.169505741e-01,1.74704e-02,9.99999e-01,9.99999e-01,9.99999e-01,1.74704e-02,9.99999e-01
7.205353270e-01,1.89244e-02,9.99999e-01,9.99999e-01,9.99999e-01,1.89244e-02,9.99999e-01
7.241380036e-01,2.04671e-02,9.99999e-01,9.99999e-01,9.99999e-01,2.04671e-02,9.99999e-01
7.277586936e-01,2.21012e-02,9.99999e-01,9.99999e-01,9.99999e-01,2.21012e-02,9.99999e-01
7.313974871e-01,2.38297e-02,9.99999e-01,9.99999e-01,9.99999e-01,2.38297e-02,9.99999e-01
7.350544745e-01,2.56551e-02,9.99999e-01,9.99999e-01,9.99999e-01,2.56551e-02,9.99999e-01
7.387297469e-01,2.75802e-02,9.99999e-01,9.99999e-01,9.99999e-01,2.75802e-02,9.99999e-01
7.424233956e-01,2.96073e-02,9.99999e-01,9.99999e-01,9.99999e-01,2.96073e-02,9.99999e-01
7.461355126e-01,3.17390e-02,9.99999e-01,9.99999e-01,9.99999e-01,3.17390e-02,9.99999e-01
7.498661902e-01,3.39774e-02,9.99999e-01,9.99999e-01,9.99999e-01,3.39774e-02,9.99999e-01
7.536155211e-01,3.63247e-02,9.99999e-01,9.99999e-01,9.99999e-01,3.63247e-02,9.99999e-01
7.573835987e-01,3.87831e-02,9.99999e-01,9.99999e-01,9.99999e-01,3.87831e-02,9.99999e-01
7.611705167e-01,4.13542e-02,9.99999e-01,9.99999e-01,9.99999e-01,4.13542e-02,9.99999e-01
7.649763693e-01,4.40400e-02,9.99999e-01,9.99999e-01,9.99999e-01,4.40400e-02,9.99999e-01
7.688012511e-01,4.68419e-02,9.99999e-01,9.99999e-01,9.99999e-01,4.68419e-02,9.99999e-01
7.726452574e-01,4.97614e-02,9.99999e-01,9.99999e-01,9.99999e-01,4.97614e-02,9.99999e-01
7.765084837e-01,5.27998e-02,9.99999e-01,9.99999e-01,9.99999e-01,5.27998e-02,9.99999e-01
7.803910261e-01,5.04043e-02,9.99999e-01,9.99999e-01,9.00748e-01,5.59582e-02,9.99999e-01
7.842929812e-01,3.38899e-02,9.99999e-01,9.99999e-01,5.72103e-01,5.92374e-02,9.99999e-01
7.882144461e-01,3.49737e-02,9.99999e-01,9.99999e-01,5.58342e-01,6.26384e-02,9.99999e-01
7.921555184e-01,4.59545e-02,9.99999e-01,9.99999e-01,6.94579e-01,6.61616e-02,9.99999e-01
7.961162960e-01,5.43899e-02,9.99999e-01,9.99999e-01,7.79142e-01,6.98075e-02,9.99999e-01
8.000968774e-01,6.42582e-02,9.99999e-01,9.99999e-01,8.73354e-01,7.35763e-02,9.99999e-01
8.040973618e-01,7.21839e-02,9.99999e-01,9.99999e-01,9.31789e-01,7.74680e-02,9.99999e-01
8.081178486e-01,7.88905e-02,9.99999e-01,9.99999e-01,9.68187e-01,8.14826e-02,9.99999e-01
8.121584379e-01,8.47617e-02,9.99999e-01,9.99999e-01,9.89977e-01,8.56198e-02,9.99999e-01
8.162192301e-01,8.96793e-02,9.99999e-01,9.99999e-01,9.97776e-01,8.98790e-02,9.99999e-01
8.203003262e-01,9.42563e-02,9.99999e-01,9.99999e-01,9.99962e-01,9.42597e-02,9.99999e-01
8.244018279e-01,9.87611e-02,9.99999e-01,9.99999e-01,9.99999e-01,9.87611e-02,9.99999e-01
8.285238370e-01,1.03382e-01,9.99999e-01,9.99999e-01,9.99999e-01,1.03382e-01,9.99999e-01
8.326664562e-01,1.08122e-01,9.99999e-01,9.99999e-01,9.99999e-01,1.08122e-01,9.99999e-01
8.368297885e-01,1.12978e-01,9.99999e-01,9.99999e-01,9.99999e-01,1.12978e-01,9.99999e-01
8.410139374e-01,1.17951e-01,9.99999e-01,9.99999e-01,9.99999e-01,1.17951e-01,9.99999e-01
8.452190071e-01,1.23037e-01,9.99999e-01,9.99999e-01,9.99999e-01,1.23037e-01,9.99999e-01
8.494451021e-01,1.28236e-01,9.99999e-01,9.99999e-01,9.99999e-01,1.28236e-01,9.99999e-01
8.536923276e-01,1.33546e-01,9.99999e-01,9.99999e-01,9.99999e-01,1.33546e-01,9.99999e-01
8.579607893e-01,1.38964e-01,9.99999e-01,9.99999e-01,9.99999e-01,1.38964e-01,9.99999e-01
8.622505932e-01,1.44488e-01,9.99999e-01,9.99999e-01,9.99999e-01,1.44488e-01,9.99999e-01
8.665618462e-01,1.29164e-01,9.99999e-01,9.99999e-01,8.60427e-01,1.50116e-01,9.99999e-01
8.708946554e-01,4.03370e-02,9.99999e-01,9.99999e-01,2.58827e-01,1.55845e-01,9.99999e-01
8.752491287e-01,5.14358e-02,9.99999e-01,9.99999e-01,3.18145e-01,1.61674e-01,9.99999e-01
8.796253743e-01,8.75546e-02,9.99999e-01,9.99999e-01,5.22405e-01,1.67599e-01,9.99999e-01
8.840235012e-01,1.22961e-01,9.99999e-01,9.99999e-01,7.08227e-01,1.73618e-01,9.99999e-01
8.884436187e-01,1.56574e-01,9.99999e-01,9.99999e-01,8.71175e-01,1.79727e-01,9.99999e-01
8.928858368e-01,1.75816e-01,9.99999e-01,9.99999e-01,9.45630e-01,1.85925e-01,9.99999e-01
8.973502660e-01,1.89596e-01,9.99999e-01,9.99999e-01,9.86414e-01,1.92207e-01,9.99999e-01
9.018370173e-01,1.98272e-01,9.99999e-01,9.99999e-01,9.98489e-01,1.98571e-01,9.99999e-01
9.063462024e-01,1.97676e-01,9.99999e-01,9.99999e-01,9.64205e-01,2.05015e-01,9.99999e-01
9.108779334e-01,1.93751e-01,9.99999e-01,9.99999e-01,9.15936e-01,2.11533e-01,9.99999e-01
9.154323231e-01,2.13626e-01,9.99999e-01,9.99999e-01,9.79374e-01,2.18124e-01,9.99999e-01
9.200094847e-01,1.75934e-01,9.99999e-01,9.99999e-01,7.82677e-01,2.24784e-01,9.99999e-01
9.246095321e-01,1.51270e-01,9.99999e-01,9.99999e-01,6.53405e-01,2.31510e-01,9.99999e-01
9.292325798e-01,1.72613e-01,9.99999e-01,9.99999e-01,7.24354e-01,2.38299e-01,9.99999e-01
9.338787427e-01,1.78102e-01,9.99999e-01,9.99999e-01,7.26512e-01,2.45146e-01,9.99999e-01
9.385481364e-01,1.98781e-01,9.99999e-01,9.99999e-01,7.88660e-01,2.52049e-01,9.99999e-01
9.432408771e-01,2.23586e-01,9.99999e-01,9.99999e-01,8.63251e-01,2.59005e-01,9.99999e-01
9.479570815e-01,2.46713e-01,9.99999e-01,9.99999e-01,9.27461e-01,2.66009e-01,9.99999e-01
9.526968669e-01,2.63316e-01,9.99999e-01,9.99999e-01,9.64320e-01,2.73059e-01,9.99999e-01
9.574603512e-01,2.75823e-01,9.99999e-01,9.99999e-01,9.84553e-01,2.80150e-01,9.99999e-01
9.622476530e-01,2.85888e-01,9.99999e-01,9.99999e-01,9.95149e-01,2.87281e-01,9.99999e-01
9.670588912e-01,2.94017e-01,9.99999e-01,9.99999e-01,9.98540e-01,2.94447e-01,9.99999e-01
9.718941857e-01,3.01612e-01,9.99999e-01,9.99999e-01,9.99894e-01,3.01644e-01,9.99999e-01
9.767536566e-01,3.08870e-01,9.99999e-01,9.99999e-01,9.99999e-01,3.08870e-01,9.99999e-01
9.816374249e-01,3.16122e-01,9.99999e-01,9.99999e-01,9.99999e-01,3.16122e-01,9.99999e-01
9.865456120e-01,3.23395e-01,9.99999e-01,9.99999e-01,9.99999e-01,3.23395e-01,9.99999e-01
9.914783401e-01,3.30687e-01,9.99999e-01,9.99999e-01,9.99999e-01,3.30687e-01,9.99999e-01
9.964357318e-01,3.37995e-01,9.99999e-01,9.99999e-01,9.99999e-01,3.37995e-01,9.99999e-01
1.001417910e+00,3.45315e-01,9.99999e-01,9.99999e-01,9.99999e-01,3.45315e-01,9.99999e-01
1.006425000e+00,3.52644e-01,9.99999e-01,9.99999e-01,9.99999e-01,3.52644e-01,9.99999e-01
1.011457125e+00,3.59980e-01,9.99999e-01,9.99999e-01,9.99999e-01,3.59980e-01,9.99999e-01
1.016514411e+00,3.67318e-01,9.99999e-01,9.99999e-01,9.99999e-01,3.67318e-01,9.99999e-01
1.021596983e+00,3.74590e-01,9.99999e-01,9.99999e-01,9.99821e-01,3.74657e-01,9.99999e-01
1.026704968e+00,3.76521e-01,9.99999e-01,9.99999e-01,9.85673e-01,3.81993e-01,9.99999e-01
1.031838492e+00,3.48282e-01,9.99999e-01,9.99999e-01,8.94581e-01,3.89324e-01,9.99999e-01
1.036997685e+00,1.56557e-02,9.99999e-01,9.99999e-01,3.94702e-02,3.96646e-01,9.99999e-01
1.042182673e+00,4.70053e-04,9.99999e-01,9.99999e-01,1.16362e-03,4.03958e-01,9.99999e-01
1.047393587e+00,1.39657e-03,9.99999e-01,9.99999e-01,3.39587e-03,4.11256e-01,9.99999e-01
1.052630555e+00,2.47701e-08,9.99999e-01,9.99999e-01,5.91825e-08,4.18537e-01,9.99999e-01
1.057893707e+00,9.12121e-08,9.99999e-01,9.99999e-01,2.14213e-07,4.25800e-01,9.99999e-01
1.063183176e+00,5.67343e-06,9.99999e-01,9.99999e-01,1.31013e-05,4.33042e-01,9.99999e-01
1.068499092e+00,8.20993e-05,9.99999e-01,9.99999e-01,1.86479e-04,4.40260e-01,9.99999e-01
1.073841587e+00,1.67277e-03,9.99999e-01,9.99999e-01,3.73842e-03,4.47452e-01,9.99999e-01
1.079210795e+00,1.38491e-02,9.99999e-01,9.99999e-01,3.04632e-02,4.54617e-01,9.99999e-01
1.084606849e+00,6.21379e-02,9.99999e-01,9.99999e-01,1.34570e-01,4.61751e-01,9.99999e-01
1.090029883e+00,1.63558e-01,9.99999e-01,9.99999e-01,3.48847e-01,4.68853e-01,9.99999e-01
1.095480033e+00,2.82221e-01,9.99999e-01,9.99999e-01,5.92999e-01,4.75921e-01,9.99999e-01
1.100957433e+00,3.74740e-01,9.99999e-01,9.99999e-01,7.75936e-01,4.82952e-01,9.99999e-01
1.106462220e+00,4.40984e-01,9.99999e-01,9.99999e-01,9.00067e-01,4.89945e-01,9.99999e-01
1.111994531e+00,4.77848e-01,9.99999e-01,9.99999e-01,9.61659e-01,4.96899e-01,9.99999e-01
1.117554504e+00,4.99002e-01,9.99999e-01,9.99999e-01,9.90454e-01,5.03811e-01,9.99999e-01
1.123142276e+00,5.10356e-01,9.99999e-01,9.99999e-01,9.99366e-01,5.10679e-01,9.99999e-01
1.128757988e+00,5.17503e-01,9.99999e-01,9.99999e-01,9.99999e-01,5.17503e-01,9.99999e-01
1.134401778e+00,5.24281e-01,9.99999e-01,9.99999e-01,9.99999e-01,5.24281e-01,9.99999e-01
1.140073787e+00,5.31011e-01,9.99999e-01,9.99999e-01,9.99999e-01,5.31011e-01,9.99999e-01
1.145774156e+00,5.37692e-01,9.99999e-01,9.99999e-01,9.99999e-01,5.37692e-01,9.99999e-01
1.151503026e+00,5.44322e-01,9.99999e-01,9.99999e-01,9.99999e-01,5.44322e-01,9.99999e-01
1.157260541e+00,5.50901e-01,9.99999e-01,9.99999e-01,9.99999e-01,5.50901e-01,9.99999e-01
1.163046844e+00,5.57427e-01,9.99999e-01,9.99999e-01,9.99999e-01,5.57427e-01,9.99999e-01
1.168862078e+00,5.63899e-01,9.99999e-01,9.99999e-01,9.99999e-01,5.63899e-01,9.99999e-01
1.174706389e+00,5.70316e-01,9.99999e-01,9.99999e-01,9.99999e-01,5.70316e-01,9.99999e-01
1.180579921e+00,5.76677e-01,9.99999e-01,9.99999e-01,9.99999e-01,5.76677e-01,9.99999e-01
1.186482820e+00,5.82971e-01,9.99999e-01,9.99999e-01,9.99981e-01,5.82982e-01,9.99999e-01
1.192415234e+00,5.61114e-01,9.99999e-01,9.99999e-01,9.52284e-01,5.89229e-01,9.99999e-01
1.198377311e+00,3.00179e-01,9.99999e-01,9.99999e-01,5.04148e-01,5.95417e-01,9.99999e-01
1.204369197e+00,7.79031e-38,9.99999e-01,9.99999e-01,1.29505e-37,6.01547e-01,9.99999e-01
1.210391043e+00,3.86591e-155,9.99999e-01,9.99999e-01,6.36242e-155,6.07616e-01,9.99999e-01
1.216442998e+00,3.67136e-134,9.99999e-01,9.99999e-01,5.98307e-134,6.13625e-01,9.99999e-01
1.222525213e+00,3.86386e-132,9.99999e-01,9.99999e-01,6.23632e-132,6.19573e-01,9.99999e-01
1.228637839e+00,8.34092e-102,9.99999e-01,9.99999e-01,1.33356e-101,6.25459e-01,9.99999e-01
