#,Wave/freq,Total,N2,O2,CO2,Rayleigh,CIA
4.000000000e-01,9.81942e-04,9.99999e-01,9.99999e-01,9.99999e-01,9.81942e-04,9.99999e-01
4.020000000e-01,1.12606e-03,9.99999e-01,9.99999e-01,9.99999e-01,1.12606e-03,9.99999e-01
4.040100000e-01,1.28766e-03,9.99999e-01,9.99999e-01,9.99999e-01,1.28766e-03,9.99999e-01
4.060300500e-01,1.46855e-03,9.99999e-01,9.99999e-01,9.99999e-01,1.46855e-03,9.99999e-01
4.080602003e-01,1.67051e-03,9.99999e-01,9.99999e-01,9.99999e-01,1.67051e-03,9.99999e-01
4.101005013e-01,1.89542e-03,9.99999e-01,9.99999e-01,9.99999e-01,1.89542e-03,9.99999e-01
4.121510038e-01,2.14525e-03,9.99999e-01,9.99999e-01,9.99999e-01,2.14525e-03,9.99999e-01
4.142117588e-01,2.42207e-03,9.99999e-01,9.99999e-01,9.99999e-01,2.42207e-03,9.99999e-01
4.162828176e-01,2.72807e-03,9.99999e-01,9.99999e-01,9.99999e-01,2.72807e-03,9.99999e-01
4.183642317e-01,3.06552e-03,9.99999e-01,9.99999e-01,9.99999e-01,3.06552e-03,9.99999e-01
4.204560528e-01,3.43678e-03,9.99999e-01,9.99999e-01,9.99999e-01,3.43678e-03,9.99999e-01
4.225583331e-01,3.84432e-03,9.99999e-01,9.99999e-01,9.99999e-01,3.84432e-03,9.99999e-01
4.246711247e-01,4.29067e-03,9.99999e-01,9.99999e-01,9.99999e-01,4.29067e-03,9.99999e-01
4.267944804e-01,4.77847e-03,9.99999e-01,9.99999e-01,9.99999e-01,4.77847e-03,9.99999e-01
4.289284528e-01,5.31041e-03,9.99999e-01,9.99999e-01,9.99999e-01,5.31041e-03,9.99999e-01
4.310730950e-01,5.88929e-03,9.99999e-01,9.99999e-01,9.99999e-01,5.88929e-03,9.99999e-01
4.332284605e-01,6.51793e-03,9.99999e-01,9.99999e-01,9.99999e-01,6.51793e-03,9.99999e-01
4.353946028e-01,7.19923e-03,9.99999e-01,9.99999e-01,9.99999e-01,7.19923e-03,9.99999e-01
4.375715758e-01,7.93615e-03,9.99999e-01,9.99999e-01,9.99999e-01,7.93615e-03,9.99999e-01
4.397594337e-01,8.73168e-03,9.99999e-01,9.99999e-01,9.99999e-01,8.73168e-03,9.99999e-01
4.419582309e-01,9.58885e-03,9.99999e-01,9.99999e-01,9.99999e-01,9.58885e-03,9.99999e-01
4.441680220e-01,1.05107e-02,9.99999e-01,9.99999e-01,9.99999e-01,1.05107e-02,9.99999e-01
4.463888621e-01,1.15003e-02,9.99999e-01,9.99999e-01,9.99999e-01,1.15003e-02,9.99999e-01
4.486208064e-01,1.25607e-02,9.99999e-01,9.99999e-01,9.99999e-01,1.25607e-02,9.99999e-01
4.508639105e-01,1.36951e-02,9.99999e-01,9.99999e-01,9.99999e-01,1.36951e-02,9.99999e-01
4.531182300e-01,1.49064e-02,9.99999e-01,9.99999e-01,9.99999e-01,1.49064e-02,9.99999e-01
4.553838212e-01,1.61977e-02,9.99999e-01,9.99999e-01,9.99999e-01,1.61977e-02,9.99999e-01
4.576607403e-01,1.75719e-02,9.99999e-01,9.99999e-01,9.99999e-01,1.75719e-02,9.99999e-01
4.599490440e-01,1.90322e-02,9.99999e-01,9.99999e-01,9.99999e-01,1.90322e-02,9.99999e-01
4.622487892e-01,2.05813e-02,9.99999e-01,9.99999e-01,9.99999e-01,2.05813e-02,9.99999e-01
4.645600332e-01,2.22222e-02,9.99999e-01,9.99999e-01,9.99999e-01,2.22222e-02,9.99999e-01
4.668828333e-01,2.39575e-02,9.99999e-01,9.99999e-01,9.99999e-01,2.39575e-02,9.99999e-01
4.692172475e-01,2.57900e-02,9.99999e-01,9.99999e-01,9.99999e-01,2.57900e-02,9.99999e-01
4.715633337e-01,2.77223e-02,9.99999e-01,9.99999e-01,9.99999e-01,2.77223e-02,9.99999e-01
4.739211504e-01,2.97569e-02,9.99999e-01,9.99999e-01,9.99999e-01,2.97569e-02,9.99999e-01
4.762907561e-01,3.18961e-02,9.99999e-01,9.99999e-01,9.99999e-01,3.18961e-02,9.99999e-01
4.786722099e-01,3.41423e-02,9.99999e-01,9.99999e-01,9.99999e-01,3.41423e-02,9.99999e-01
4.810655710e-01,3.64975e-02,9.99999e-01,9.99999e-01,9.99999e-01,3.64975e-02,9.99999e-01
4.834708988e-01,3.89639e-02,9.99999e-01,9.99999e-01,9.99999e-01,3.89639e-02,9.99999e-01
4.858882533e-01,4.15432e-02,9.99999e-01,9.99999e-01,9.99999e-01,4.15432e-02,9.99999e-01
4.883176946e-01,4.42373e-02,9.99999e-01,9.99999e-01,9.99999e-01,4.42373e-02,9.99999e-01
4.907592831e-01,4.70476e-02,9.99999e-01,9.99999e-01,9.99999e-01,4.70476e-02,9.99999e-01
4.932130795e-01,4.99756e-02,9.99999e-01,9.99999e-01,9.99999e-01,4.99756e-02,9.99999e-01
4.956791449e-01,5.30226e-02,9.99999e-01,9.99999e-01,9.99999e-01,5.30226e-02,9.99999e-01
4.981575406e-01,5.61896e-02,9.99999e-01,9.99999e-01,9.99999e-01,5.61896e-02,9.99999e-01
5.006483283e-01,5.94776e-02,9.99999e-01,9.99999e-01,9.99999e-01,5.94776e-02,9.99999e-01
5.031515699e-01,6.28873e-02,9.99999e-01,9.99999e-01,9.99999e-01,6.28873e-02,9.99999e-01
5.056673278e-01,6.64193e-02,9.99999e-01,9.99999e-01,9.99999e-01,6.64193e-02,9.99999e-01
5.081956644e-01,7.00740e-02,9.99999e-01,9.99999e-01,9.99999e-01,7.00740e-02,9.99999e-01
5.107366428e-01,7.38516e-02,9.99999e-01,9.99999e-01,9.99999e-01,7.38516e-02,9.99999e-01
5.132903260e-01,7.77522e-02,9.99999e-01,9.99999e-01,9.99999e-01,7.77522e-02,9.99999e-01
5.158567776e-01,8.17756e-02,9.99999e-01,9.99999e-01,9.99999e-01,8.17756e-02,9.99999e-01
5.184360615e-01,8.59215e-02,9.99999e-01,9.99999e-01,9.99999e-01,8.59215e-02,9.99999e-01
5.210282418e-01,9.01895e-02,9.99999e-01,9.99999e-01,9.99999e-01,9.01895e-02,9.99999e-01
5.236333830e-01,9.45789e-02,9.99999e-01,9.99999e-01,9.99999e-01,9.45789e-02,9.99999e-01
5.262515499e-01,9.90889e-02,9.99999e-01,9.99999e-01,9.99999e-01,9.90889e-02,9.99999e-01
5.288828077e-01,1.03718e-01,9.99999e-01,9.99999e-01,9.99999e-01,1.03718e-01,9.99999e-01
5.315272217e-01,1.08466e-01,9.99999e-01,9.99999e-01,9.99999e-01,1.08466e-01,9.99999e-01
5.341848578e-01,1.13331e-01,9.99999e-01,9.99999e-01,9.99999e-01,1.13331e-01,9.99999e-01
5.368557821e-01,1.18312e-01,9.99999e-01,9.99999e-01,9.99999e-01,1.18312e-01,9.99999e-01
5.395400610e-01,1.23407e-01,9.99999e-01,9.99999e-01,9.99999e-01,1.23407e-01,9.99999e-01
5.422377613e-01,1.28614e-01,9.99999e-01,9.99999e-01,9.99999e-01,1.28614e-01,9.99999e-01
5.449489501e-01,1.33931e-01,9.99999e-01,9.99999e-01,9.99999e-01,1.33931e-01,9.99999e-01
5.476736949e-01,1.39357e-01,9.99999e-01,9.99999e-01,9.99999e-01,1.39357e-01,9.99999e-01
5.504120634e-01,1.44888e-01,9.99999e-01,9.99999e-01,9.99999e-01,1.44888e-01,9.99999e-01
5.531641237e-01,1.50524e-01,9.99999e-01,9.99999e-01,9.99999e-01,1.50524e-01,9.99999e-01
5.559299443e-01,1.56261e-01,9.99999e-01,9.99999e-01,9.99999e-01,1.56261e-01,9.99999e-01
5.587095940e-01,1.62096e-01,9.99999e-01,9.99999e-01,9.99999e-01,1.62096e-01,9.99999e-01
5.615031420e-01,1.68028e-01,9.99999e-01,9.99999e-01,9.99999e-01,1.68028e-01,9.99999e-01
5.643106577e-01,1.74053e-01,9.99999e-01,9.99999e-01,9.99999e-01,1.74053e-01,9.99999e-01
5.671322110e-01,1.80169e-01,9.99999e-01,9.99999e-01,9.99999e-01,1.80169e-01,9.99999e-01
5.699678720e-01,1.86373e-01,9.99999e-01,9.99999e-01,9.99999e-01,1.86373e-01,9.99999e-01
5.728177114e-01,1.92661e-01,9.99999e-01,9.99999e-01,9.99999e-01,1.92661e-01,9.99999e-01
5.756818000e-01,1.99031e-01,9.99999e-01,9.99999e-01,9.99999e-01,1.99031e-01,9.99999e-01
5.785602090e-01,2.05480e-01,9.99999e-01,9.99999e-01,9.99999e-01,2.05480e-01,9.99999e-01
5.814530100e-01,2.12004e-01,9.99999e-01,9.99999e-01,9.99999e-01,2.12004e-01,9.99999e-01
5.843602750e-01,2.18600e-01,9.99999e-01,9.99999e-01,9.99999e-01,2.18600e-01,9.99999e-01
5.872820764e-01,2.25265e-01,9.99999e-01,9.99999e-01,9.99999e-01,2.25265e-01,9.99999e-01
5.902184868e-01,2.31996e-01,9.99999e-01,9.99999e-01,9.99999e-01,2.31996e-01,9.99999e-01
5.931695792e-01,2.38788e-01,9.99999e-01,9.99999e-01,9.99999e-01,2.38788e-01,9.99999e-01
5.961354271e-01,2.45640e-01,9.99999e-01,9.99999e-01,9.99999e-01,2.45640e-01,9.99999e-01
5.991161043e-01,2.52547e-01,9.99999e-01,9.99999e-01,9.99999e-01,2.52547e-01,9.99999e-01
6.021116848e-01,2.59506e-01,9.99999e-01,9.99999e-01,9.99999e-01,2.59506e-01,9.99999e-01
6.051222432e-01,2.66514e-01,9.99999e-01,9.99999e-01,9.99999e-01,2.66514e-01,9.99999e-01
6.081478544e-01,2.73566e-01,9.99999e-01,9.99999e-01,9.99999e-01,2.73566e-01,9.99999e-01
6.111885937e-01,2.80661e-01,9.99999e-01,9.99999e-01,9.99999e-01,2.80661e-01,9.99999e-01
6.142445367e-01,2.87794e-01,9.99999e-01,9.99999e-01,9.99999e-01,2.87794e-01,9.99999e-01
6.173157594e-01,2.94962e-01,9.99999e-01,9.99999e-01,9.99999e-01,2.94962e-01,9.99999e-01
6.204023382e-01,3.02162e-01,9.99999e-01,9.99999e-01,9.99999e-01,3.02162e-01,9.99999e-01
6.235043498e-01,3.09390e-01,9.99999e-01,9.99999e-01,9.99999e-01,3.09390e-01,9.99999e-01
6.266218716e-01,3.16643e-01,9.99999e-01,9.99999e-01,9.99999e-01,3.16643e-01,9.99999e-01
6.297549810e-01,3.23918e-01,9.99999e-01,9.99999e-01,9.99999e-01,3.23918e-01,9.99999e-01
6.329037559e-01,3.31211e-01,9.99999e-01,9.99999e-01,9.99999e-01,3.31211e-01,9.99999e-01
6.360682746e-01,3.38520e-01,9.99999e-01,9.99999e-01,9.99999e-01,3.38520e-01,9.99999e-01
6.392486160e-01,3.45841e-01,9.99999e-01,9.99999e-01,9.99999e-01,3.45841e-01,9.99999e-01
6.424448591e-01,3.53171e-01,9.99999e-01,9.99999e-01,9.99999e-01,3.53171e-01,9.99999e-01
6.456570834e-01,3.60506e-01,9.99999e-01,9.99999e-01,9.99999e-01,3.60506e-01,9.99999e-01
6.488853688e-01,3.67845e-01,9.99999e-01,9.99999e-01,9.99999e-01,3.67845e-01,9.99999e-01
6.521297956e-01,3.75184e-01,9.99999e-01,9.99999e-01,9.99999e-01,3.75184e-01,9.99999e-01
6.553904446e-01,3.82520e-01,9.99999e-01,9.99999e-01,9.99999e-01,3.82520e-01,9.99999e-01
6.586673968e-01,3.89850e-01,9.99999e-01,9.99999e-01,9.99999e-01,3.89850e-01,9.99999e-01
6.619607338e-01,3.97172e-01,9.99999e-01,9.99999e-01,9.99999e-01,3.97172e-01,9.99999e-01
6.652705375e-01,4.04482e-01,9.99999e-01,9.99999e-01,9.99999e-01,4.04482e-01,9.99999e-01
6.685968902e-01,4.11779e-01,9.99999e-01,9.99999e-01,9.99999e-01,4.11779e-01,9.99999e-01
6.719398746e-01,4.19059e-01,9.99999e-01,9.99999e-01,9.99999e-01,4.19059e-01,9.99999e-01
6.752995740e-01,4.26321e-01,9.99999e-01,9.99999e-01,9.99999e-01,4.26321e-01,9.99999e-01
6.786760719e-01,4.33561e-01,9.99999e-01,9.99999e-01,9.99999e-01,4.33561e-01,9.99999e-01
6.820694522e-01,4.40777e-01,9.99999e-01,9.99999e-01,9.99999e-01,4.40777e-01,9.99999e-01
6.854797995e-01,4.47968e-01,9.99999e-01,9.99999e-01,9.99999e-01,4.47968e-01,9.99999e-01
6.889071985e-01,4.55130e-01,9.99999e-01,9.99999e-01,9.99999e-01,4.55130e-01,9.99999e-01
6.923517345e-01,4.62262e-01,9.99999e-01,9.99999e-01,9.99999e-01,4.62262e-01,9.99999e-01
6.958134932e-01,4.69362e-01,9.99999e-01,9.99999e-01,9.99999e-01,4.69362e-01,9.99999e-01
6.992925606e-01,4.76427e-01,9.99999e-01,9.99999e-01,9.99999e-01,4.76427e-01,9.99999e-01
7.027890234e-01,4.83455e-01,9.99999e-01,9.99999e-01,9.99999e-01,4.83455e-01,9.99999e-01
7.063029686e-01,4.90446e-01,9.99999e-01,9.99999e-01,9.99999e-01,4.90446e-01,9.99999e-01
7.098344834e-01,4.97397e-01,9.99999e-01,9.99999e-01,9.99999e-01,4.97397e-01,9.99999e-01
7.133836558e-01,5.04305e-01,9.99999e-01,9.99999e-01,9.99999e-01,5.04305e-01,9.99999e-01
7.169505741e-01,5.11171e-01,9.99999e-01,9.99999e-01,9.99999e-01,5.11171e-01,9.99999e-01
7.205353270e-01,5.17992e-01,9.99999e-01,9.99999e-01,9.99999e-01,5.17992e-01,9.99999e-01
7.241380036e-01,5.24766e-01,9.99999e-01,9.99999e-01,9.99999e-01,5.24766e-01,9.99999e-01
7.277586936e-01,5.31492e-01,9.99999e-01,9.99999e-01,9.99999e-01,5.31492e-01,9.99999e-01
7.313974871e-01,5.38169e-01,9.99999e-01,9.99999e-01,9.99999e-01,5.38169e-01,9.99999e-01
7.350544745e-01,5.44796e-01,9.99999e-01,9.99999e-01,9.99999e-01,5.44796e-01,9.99999e-01
7.387297469e-01,5.51371e-01,9.99999e-01,9.99999e-01,9.99999e-01,5.51371e-01,9.99999e-01
7.424233956e-01,5.57893e-01,9.99999e-01,9.99999e-01,9.99999e-01,5.57893e-01,9.99999e-01
7.461355126e-01,5.64361e-01,9.99999e-01,9.99999e-01,9.99999e-01,5.64361e-01,9.99999e-01
7.498661902e-01,5.70775e-01,9.99999e-01,9.99999e-01,9.99999e-01,5.70775e-01,9.99999e-01
7.536155211e-01,5.77132e-01,9.99999e-01,9.99999e-01,9.99999e-01,5.77132e-01,9.99999e-01
7.573835987e-01,5.83432e-01,9.99999e-01,9.99999e-01,9.99999e-01,5.83432e-01,9.99999e-01
7.611705167e-01,5.89675e-01,9.99999e-01,9.99999e-01,9.99999e-01,5.89675e-01,9.99999e-01
7.649763693e-01,5.95859e-01,9.99999e-01,9.99999e-01,9.99999e-01,5.95859e-01,9.99999e-01
7.688012511e-01,6.01984e-01,9.99999e-01,9.99999e-01,9.99999e-01,6.01984e-01,9.99999e-01
7.726452574e-01,6.08049e-01,9.99999e-01,9.99999e-01,9.99999e-01,6.08049e-01,9.99999e-01
7.765084837e-01,6.14054e-01,9.99999e-01,9.99999e-01,9.99999e-01,6.14054e-01,9.99999e-01
7.803910261e-01,6.06059e-01,9.99999e-01,9.99999e-01,9.77517e-01,6.19998e-01,9.99999e-01
7.842929812e-01,5.65928e-01,9.99999e-01,9.99999e-01,9.04212e-01,6.25880e-01,9.99999e-01
7.882144461e-01,5.67201e-01,9.99999e-01,9.99999e-01,8.97896e-01,6.31700e-01,9.99999e-01
7.921555184e-01,5.99054e-01,9.99999e-01,9.99999e-01,9.39754e-01,6.37457e-01,9.99999e-01
7.961162960e-01,6.16897e-01,9.99999e-01,9.99999e-01,9.59176e-01,6.43152e-01,9.99999e-01
8.000968774e-01,6.34312e-01,9.99999e-01,9.99999e-01,9.77692e-01,6.48784e-01,9.99999e-01
8.040973618e-01,6.46737e-01,9.99999e-01,9.99999e-01,9.88362e-01,6.54352e-01,9.99999e-01
8.081178486e-01,6.56330e-01,9.99999e-01,9.99999e-01,9.94655e-01,6.59857e-01,9.99999e-01
8.121584379e-01,6.64193e-01,9.99999e-01,9.99999e-01,9.98338e-01,6.65298e-01,9.99999e-01
8.162192301e-01,6.70428e-01,9.99999e-01,9.99999e-01,9.99632e-01,6.70674e-01,9.99999e-01
8.203003262e-01,6.75983e-01,9.99999e-01,9.99999e-01,9.99993e-01,6.75987e-01,9.99999e-01
8.244018279e-01,6.81236e-01,9.99999e-01,9.99999e-01,9.99999e-01,6.81236e-01,9.99999e-01
8.285238370e-01,6.86421e-01,9.99999e-01,9.99999e-01,9.99999e-01,6.86421e-01,9.99999e-01
8.326664562e-01,6.91541e-01,9.99999e-01,9.99999e-01,9.99999e-01,6.91541e-01,9.99999e-01
8.368297885e-01,6.96598e-01,9.99999e-01,9.99999e-01,9.99999e-01,6.96598e-01,9.99999e-01
8.410139374e-01,7.01590e-01,9.99999e-01,9.99999e-01,9.99999e-01,7.01590e-01,9.99999e-01
8.452190071e-01,7.06519e-01,9.99999e-01,9.99999e-01,9.99999e-01,7.06519e-01,9.99999e-01
8.494451021e-01,7.11384e-01,9.99999e-01,9.99999e-01,9.99999e-01,7.11384e-01,9.99999e-01
8.536923276e-01,7.16185e-01,9.99999e-01,9.99999e-01,9.99999e-01,7.16185e-01,9.99999e-01
8.579607893e-01,7.20923e-01,9.99999e-01,9.99999e-01,9.99999e-01,7.20923e-01,9.99999e-01
8.622505932e-01,7.25598e-01,9.99999e-01,9.99999e-01,9.99999e-01,7.25598e-01,9.99999e-01
8.665618462e-01,6.89399e-01,9.99999e-01,9.99999e-01,9.44110e-01,7.30210e-01,9.99999e-01
8.708946554e-01,5.67913e-01,9.99999e-01,9.99999e-01,7.72924e-01,7.34759e-01,9.99999e-01
8.752491287e-01,6.01502e-01,9.99999e-01,9.99999e-01,8.13670e-01,7.39246e-01,9.99999e-01
8.796253743e-01,6.64511e-01,9.99999e-01,9.99999e-01,8.93555e-01,7.43670e-01,9.99999e-01
8.840235012e-01,7.05784e-01,9.99999e-01,9.99999e-01,9.43519e-01,7.48034e-01,9.99999e-01
8.884436187e-01,7.35283e-01,9.99999e-01,9.99999e-01,9.77333e-01,7.52335e-01,9.99999e-01
8.928858368e-01,7.49597e-01,9.99999e-01,9.99999e-01,9.90775e-01,7.56576e-01,9.99999e-01
8.973502660e-01,7.59041e-01,9.99999e-01,9.99999e-01,9.97744e-01,7.60756e-01,9.99999e-01
9.018370173e-01,7.64686e-01,9.99999e-01,9.99999e-01,9.99750e-01,7.64876e-01,9.99999e-01
9.063462024e-01,7.64105e-01,9.99999e-01,9.99999e-01,9.93715e-01,7.68937e-01,9.99999e-01
9.108779334e-01,7.61721e-01,9.99999e-01,9.99999e-01,9.85488e-01,7.72938e-01,9.99999e-01
9.154323231e-01,7.74208e-01,9.99999e-01,9.99999e-01,9.96559e-01,7.76880e-01,9.99999e-01
9.200094847e-01,7.42233e-01,9.99999e-01,9.99999e-01,9.50649e-01,7.80764e-01,9.99999e-01
9.246095321e-01,7.30380e-01,9.99999e-01,9.99999e-01,9.30906e-01,7.84590e-01,9.99999e-01
9.292325798e-01,7.45441e-01,9.99999e-01,9.99999e-01,9.45560e-01,7.88359e-01,9.99999e-01
9.338787427e-01,7.50217e-01,9.99999e-01,9.99999e-01,9.47159e-01,7.92070e-01,9.99999e-01
9.385481364e-01,7.64665e-01,9.99999e-01,9.99999e-01,9.60965e-01,7.95726e-01,9.99999e-01
9.432408771e-01,7.80067e-01,9.99999e-01,9.99999e-01,9.75906e-01,7.99325e-01,9.99999e-01
9.479570815e-01,7.92904e-01,9.99999e-01,9.99999e-01,9.87587e-01,8.02870e-01,9.99999e-01
9.526968669e-01,8.01513e-01,9.99999e-01,9.99999e-01,9.93990e-01,8.06359e-01,9.99999e-01
9.574603512e-01,8.07710e-01,9.99999e-01,9.99999e-01,9.97425e-01,8.09794e-01,9.99999e-01
9.622476530e-01,8.12523e-01,9.99999e-01,9.99999e-01,9.99195e-01,8.13176e-01,9.99999e-01
9.670588912e-01,8.16308e-01,9.99999e-01,9.99999e-01,9.99758e-01,8.16505e-01,9.99999e-01
9.718941857e-01,8.19767e-01,9.99999e-01,9.99999e-01,9.99982e-01,8.19781e-01,9.99999e-01
9.767536566e-01,8.23005e-01,9.99999e-01,9.99999e-01,9.99999e-01,8.23005e-01,9.99999e-01
9.816374249e-01,8.26177e-01,9.99999e-01,9.99999e-01,9.99999e-01,8.26177e-01,9.99999e-01
9.865456120e-01,8.29299e-01,9.99999e-01,9.99999e-01,9.99999e-01,8.29299e-01,9.99999e-01
9.914783401e-01,8.32371e-01,9.99999e-01,9.99999e-01,9.99999e-01,8.32371e-01,9.99999e-01
9.964357318e-01,8.35393e-01,9.99999e-01,9.99999e-01,9.99999e-01,8.35393e-01,9.99999e-01
1.001417910e+00,8.38366e-01,9.99999e-01,9.99999e-01,9.99999e-01,8.38366e-01,9.99999e-01
1.006425000e+00,8.41291e-01,9.99999e-01,9.99999e-01,9.99999e-01,8.41291e-01,9.99999e-01
1.011457125e+00,8.44167e-01,9.99999e-01,9.99999e-01,9.99999e-01,8.44167e-01,9.99999e-01
1.016514411e+00,8.46997e-01,9.99999e-01,9.99999e-01,9.99999e-01,8.46997e-01,9.99999e-01
1.021596983e+00,8.49753e-01,9.99999e-01,9.99999e-01,9.99968e-01,8.49780e-01,9.99999e-01
1.026704968e+00,8.50434e-01,9.99999e-01,9.99999e-01,9.97556e-01,8.52516e-01,9.99999e-01
1.031838492e+00,8.28099e-01,9.99999e-01,9.99999e-01,9.68301e-01,8.55207e-01,9.99999e-01
1.036997685e+00,1.91597e-01,9.99999e-01,9.99999e-01,2.23345e-01,8.57854e-01,9.99999e-01
1.042182673e+00,2.04027e-01,9.99999e-01,9.99999e-01,2.37115e-01,8.60456e-01,9.99999e-01
1.047393587e+00,2.06647e-01,9.99999e-01,9.99999e-01,2.39448e-01,8.63014e-01,9.99999e-01
1.052630555e+00,1.70511e-02,9.99999e-01,9.99999e-01,1.97002e-02,8.65529e-01,9.99999e-01
1.057893707e+00,3.58289e-02,9.99999e-01,9.99999e-01,4.12775e-02,8.68001e-01,9.99999e-01
1.063183176e+00,8.51239e-02,9.99999e-01,9.99999e-01,9.77950e-02,8.70432e-01,9.99999e-01
1.068499092e+00,1.80781e-01,9.99999e-01,9.99999e-01,2.07123e-01,8.72821e-01,9.99999e-01
1.073841587e+00,3.23585e-01,9.99999e-01,9.99999e-01,3.69739e-01,8.75169e-01,9.99999e-01
1.079210795e+00,4.68023e-01,9.99999e-01,9.99999e-01,5.33373e-01,8.77477e-01,9.99999e-01
1.084606849e+00,6.23478e-01,9.99999e-01,9.99999e-01,7.08702e-01,8.79745e-01,9.99999e-01
1.090029883e+00,7.37935e-01,9.99999e-01,9.99999e-01,8.36684e-01,8.81975e-01,9.99999e-01
1.095480033e+00,8.09795e-01,9.99999e-01,9.99999e-01,9.15886e-01,8.84165e-01,9.99999e-01
1.100957433e+00,8.49627e-01,9.99999e-01,9.99999e-01,9.58602e-01,8.86318e-01,9.99999e-01
1.106462220e+00,8.73031e-01,9.99999e-01,9.99999e-01,9.82663e-01,8.88433e-01,9.99999e-01
1.111994531e+00,8.84760e-01,9.99999e-01,9.99999e-01,9.93541e-01,8.90512e-01,9.99999e-01
1.117554504e+00,8.91140e-01,9.99999e-01,9.99999e-01,9.98415e-01,8.92554e-01,9.99999e-01
1.123142276e+00,8.94467e-01,9.99999e-01,9.99999e-01,9.99895e-01,8.94560e-01,9.99999e-01
1.128757988e+00,8.96531e-01,9.99999e-01,9.99999e-01,9.99999e-01,8.96531e-01,9.99999e-01
1.134401778e+00,8.98467e-01,9.99999e-01,9.99999e-01,9.99999e-01,8.98467e-01,9.99999e-01
1.140073787e+00,9.00369e-01,9.99999e-01,9.99999e-01,9.99999e-01,9.00369e-01,9.99999e-01
1.145774156e+00,9.02238e-01,9.99999e-01,9.99999e-01,9.99999e-01,9.02238e-01,9.99999e-01
1.151503026e+00,9.04073e-01,9.99999e-01,9.99999e-01,9.99999e-01,9.04073e-01,9.99999e-01
1.157260541e+00,9.05875e-01,9.99999e-01,9.99999e-01,9.99999e-01,9.05875e-01,9.99999e-01
1.163046844e+00,9.07646e-01,9.99999e-01,9.99999e-01,9.99999e-01,9.07646e-01,9.99999e-01
1.168862078e+00,9.09385e-01,9.99999e-01,9.99999e-01,9.99999e-01,9.09385e-01,9.99999e-01
1.174706389e+00,9.11093e-01,9.99999e-01,9.99999e-01,9.99999e-01,9.11093e-01,9.99999e-01
1.180579921e+00,9.12770e-01,9.99999e-01,9.99999e-01,9.99999e-01,9.12770e-01,9.99999e-01
1.186482820e+00,9.14414e-01,9.99999e-01,9.99999e-01,9.99995e-01,9.14417e-01,9.99999e-01
1.192415234e+00,9.08045e-01,9.99999e-01,9.99999e-01,9.91278e-01,9.16034e-01,9.99999e-01
1.198377311e+00,5.26835e-01,9.99999e-01,9.99999e-01,5.74130e-01,9.17623e-01,9.99999e-01
1.204369197e+00,3.75566e-08,9.99999e-01,9.99999e-01,4.08587e-08,9.19182e-01,9.99999e-01
1.210391043e+00,1.31658e-27,9.99999e-01,9.99999e-01,1.42995e-27,9.20713e-01,9.99999e-01
1.216442998e+00,3.97075e-24,9.99999e-01,9.99999e-01,4.30565e-24,9.22217e-01,9.99999e-01
1.222525213e+00,8.68887e-24,9.99999e-01,9.99999e-01,9.40666e-24,9.23693e-01,9.99999e-01
1.228637839e+00,2.24090e-18,9.99999e-01,9.99999e-01,2.42222e-18,9.25142e-01,9.99999e-01
