#,Wave/freq,Total,N2,O2,CO2,Rayleigh,CIA
4.000000000e-01,9.88392e-04,9.99999e-01,9.99999e-01,9.99999e-01,9.88392e-04,9.99999e-01
4.020000000e-01,1.13331e-03,9.99999e-01,9.99999e-01,9.99999e-01,1.13331e-03,9.99999e-01
4.040100000e-01,1.29578e-03,9.99999e-01,9.99999e-01,9.99999e-01,1.29578e-03,9.99999e-01
4.060300500e-01,1.47764e-03,9.99999e-01,9.99999e-01,9.99999e-01,1.47764e-03,9.99999e-01
4.080602003e-01,1.68064e-03,9.99999e-01,9.99999e-01,9.99999e-01,1.68064e-03,9.99999e-01
4.101005013e-01,1.90669e-03,9.99999e-01,9.99999e-01,9.99999e-01,1.90669e-03,9.99999e-01
4.121510038e-01,2.15775e-03,9.99999e-01,9.99999e-01,9.99999e-01,2.15775e-03,9.99999e-01
4.142117588e-01,2.43590e-03,9.99999e-01,9.99999e-01,9.99999e-01,2.43590e-03,9.99999e-01
4.162828176e-01,2.74334e-03,9.99999e-01,9.99999e-01,9.99999e-01,2.74334e-03,9.99999e-01
4.183642317e-01,3.08234e-03,9.99999e-01,9.99999e-01,9.99999e-01,3.08234e-03,9.99999e-01
4.204560528e-01,3.45527e-03,9.99999e-01,9.99999e-01,9.99999e-01,3.45527e-03,9.99999e-01
4.225583331e-01,3.86458e-03,9.99999e-01,9.99999e-01,9.99999e-01,3.86458e-03,9.99999e-01
4.246711247e-01,4.31284e-03,9.99999e-01,9.99999e-01,9.99999e-01,4.31284e-03,9.99999e-01
4.267944804e-01,4.80267e-03,9.99999e-01,9.99999e-01,9.99999e-01,4.80267e-03,9.99999e-01
4.289284528e-01,5.33677e-03,9.99999e-01,9.99999e-01,9.99999e-01,5.33677e-03,9.99999e-01
4.310730950e-01,5.91794e-03,9.99999e-01,9.99999e-01,9.99999e-01,5.91794e-03,9.99999e-01
4.332284605e-01,6.54901e-03,9.99999e-01,9.99999e-01,9.99999e-01,6.54901e-03,9.99999e-01
4.353946028e-01,7.23289e-03,9.99999e-01,9.99999e-01,9.99999e-01,7.23289e-03,9.99999e-01
4.375715758e-01,7.97252e-03,9.99999e-01,9.99999e-01,9.99999e-01,7.97252e-03,9.99999e-01
4.397594337e-01,8.77090e-03,9.99999e-01,9.99999e-01,9.99999e-01,8.77090e-03,9.99999e-01
4.419582309e-01,9.63107e-03,9.99999e-01,9.99999e-01,9.99999e-01,9.63107e-03,9.99999e-01
4.441680220e-01,1.05561e-02,9.99999e-01,9.99999e-01,9.99999e-01,1.05561e-02,9.99999e-01
4.463888621e-01,1.15489e-02,9.99999e-01,9.99999e-01,9.99999e-01,1.15489e-02,9.99999e-01
4.486208064e-01,1.26128e-02,9.99999e-01,9.99999e-01,9.99999e-01,1.26128e-02,9.99999e-01
4.508639105e-01,1.37507e-02,9.99999e-01,9.99999e-01,9.99999e-01,1.37507e-02,9.99999e-01
4.531182300e-01,1.49657e-02,9.99999e-01,9.99999e-01,9.99999e-01,1.49657e-02,9.99999e-01
4.553838212e-01,1.62609e-02,9.99999e-01,9.99999e-01,9.99999e-01,1.62609e-02,9.99999e-01
4.576607403e-01,1.76392e-02,9.99999e-01,9.99999e-01,9.99999e-01,1.76392e-02,9.99999e-01
4.599490440e-01,1.91036e-02,9.99999e-01,9.99999e-01,9.99999e-01,1.91036e-02,9.99999e-01
4.622487892e-01,2.06570e-02,9.99999e-01,9.99999e-01,9.99999e-01,2.06570e-02,9.99999e-01
4.645600332e-01,2.23023e-02,9.99999e-01,9.99999e-01,9.99999e-01,2.23023e-02,9.99999e-01
4.668828333e-01,2.40422e-02,9.99999e-01,9.99999e-01,9.99999e-01,2.40422e-02,9.99999e-01
4.692172475e-01,2.58793e-02,9.99999e-01,9.99999e-01,9.99999e-01,2.58793e-02,9.99999e-01
4.715633337e-01,2.78164e-02,9.99999e-01,9.99999e-01,9.99999e-01,2.78164e-02,9.99999e-01
4.739211504e-01,2.98559e-02,9.99999e-01,9.99999e-01,9.99999e-01,2.98559e-02,9.99999e-01
4.762907561e-01,3.20002e-02,9.99999e-01,9.99999e-01,9.99999e-01,3.20002e-02,9.99999e-01
4.786722099e-01,3.42515e-02,9.99999e-01,9.99999e-01,9.99999e-01,3.42515e-02,9.99999e-01
4.810655710e-01,3.66119e-02,9.99999e-01,9.99999e-01,9.99999e-01,3.66119e-02,9.99999e-01
4.834708988e-01,3.90836e-02,9.99999e-01,9.99999e-01,9.99999e-01,3.90836e-02,9.99999e-01
4.858882533e-01,4.16684e-02,9.99999e-01,9.99999e-01,9.99999e-01,4.16684e-02,9.99999e-01
4.883176946e-01,4.43679e-02,9.99999e-01,9.99999e-01,9.99999e-01,4.43679e-02,9.99999e-01
4.907592831e-01,4.71837e-02,9.99999e-01,9.99999e-01,9.99999e-01,4.71837e-02,9.99999e-01
4.932130795e-01,5.01174e-02,9.99999e-01,9.99999e-01,9.99999e-01,5.01174e-02,9.99999e-01
4.956791449e-01,5.31700e-02,9.99999e-01,9.99999e-01,9.99999e-01,5.31700e-02,9.99999e-01
4.981575406e-01,5.63427e-02,9.99999e-01,9.99999e-01,9.99999e-01,5.63427e-02,9.99999e-01
5.006483283e-01,5.96365e-02,9.99999e-01,9.99999e-01,9.99999e-01,5.96365e-02,9.99999e-01
5.031515699e-01,6.30520e-02,9.99999e-01,9.99999e-01,9.99999e-01,6.30520e-02,9.99999e-01
5.056673278e-01,6.65898e-02,9.99999e-01,9.99999e-01,9.99999e-01,6.65898e-02,9.99999e-01
5.081956644e-01,7.02503e-02,9.99999e-01,9.99999e-01,9.99999e-01,7.02503e-02,9.99999e-01
5.107366428e-01,7.40337e-02,9.99999e-01,9.99999e-01,9.99999e-01,7.40337e-02,9.99999e-01
5.132903260e-01,7.79401e-02,9.99999e-01,9.99999e-01,9.99999e-01,7.79401e-02,9.99999e-01
5.158567776e-01,8.19694e-02,9.99999e-01,9.99999e-01,9.99999e-01,8.19694e-02,9.99999e-01
5.184360615e-01,8.61211e-02,9.99999e-01,9.99999e-01,9.99999e-01,8.61211e-02,9.99999e-01
5.210282418e-01,9.03949e-02,9.99999e-01,9.99999e-01,9.99999e-01,9.03949e-02,9.99999e-01
5.236333830e-01,9.47900e-02,9.99999e-01,9.99999e-01,9.99999e-01,9.47900e-02,9.99999e-01
5.262515499e-01,9.93057e-02,9.99999e-01,9.99999e-01,9.99999e-01,9.93057e-02,9.99999e-01
5.288828077e-01,1.03941e-01,9.99999e-01,9.99999e-01,9.99999e-01,1.03941e-01,9.99999e-01
5.315272217e-01,1.08694e-01,9.99999e-01,9.99999e-01,9.99999e-01,1.08694e-01,9.99999e-01
5.341848578e-01,1.13565e-01,9.99999e-01,9.99999e-01,9.99999e-01,1.13565e-01,9.99999e-01
5.368557821e-01,1.18551e-01,9.99999e-01,9.99999e-01,9.99999e-01,1.18551e-01,9.99999e-01
5.395400610e-01,1.23651e-01,9.99999e-01,9.99999e-01,9.99999e-01,1.23651e-01,9.99999e-01
5.422377613e-01,1.28863e-01,9.99999e-01,9.99999e-01,9.99999e-01,1.28863e-01,9.99999e-01
5.449489501e-01,1.34186e-01,9.99999e-01,9.99999e-01,9.99999e-01,1.34186e-01,9.99999e-01
5.476736949e-01,1.39617e-01,9.99999e-01,9.99999e-01,9.99999e-01,1.39617e-01,9.99999e-01
5.504120634e-01,1.45153e-01,9.99999e-01,9.99999e-01,9.99999e-01,1.45153e-01,9.99999e-01
5.531641237e-01,1.50793e-01,9.99999e-01,9.99999e-01,9.99999e-01,1.50793e-01,9.99999e-01
5.559299443e-01,1.56535e-01,9.99999e-01,9.99999e-01,9.99999e-01,1.56535e-01,9.99999e-01
5.587095940e-01,1.62375e-01,9.99999e-01,9.99999e-01,9.99999e-01,1.62375e-01,9.99999e-01
5.615031420e-01,1.68312e-01,9.99999e-01,9.99999e-01,9.99999e-01,1.68312e-01,9.99999e-01
5.643106577e-01,1.74341e-01,9.99999e-01,9.99999e-01,9.99999e-01,1.74341e-01,9.99999e-01
5.671322110e-01,1.80461e-01,9.99999e-01,9.99999e-01,9.99999e-01,1.80461e-01,9.99999e-01
5.699678720e-01,1.86669e-01,9.99999e-01,9.99999e-01,9.99999e-01,1.86669e-01,9.99999e-01
5.728177114e-01,1.92962e-01,9.99999e-01,9.99999e-01,9.99999e-01,1.92962e-01,9.99999e-01
5.756818000e-01,1.99335e-01,9.99999e-01,9.99999e-01,9.99999e-01,1.99335e-01,9.99999e-01
5.785602090e-01,2.05788e-01,9.99999e-01,9.99999e-01,9.99999e-01,2.05788e-01,9.99999e-01
5.814530100e-01,2.12315e-01,9.99999e-01,9.99999e-01,9.99999e-01,2.12315e-01,9.99999e-01
5.843602750e-01,2.18915e-01,9.99999e-01,9.99999e-01,9.99999e-01,2.18915e-01,9.99999e-01
5.872820764e-01,2.25583e-01,9.99999e-01,9.99999e-01,9.99999e-01,2.25583e-01,9.99999e-01
5.902184868e-01,2.32316e-01,9.99999e-01,9.99999e-01,9.99999e-01,2.32316e-01,9.99999e-01
5.931695792e-01,2.39112e-01,9.99999e-01,9.99999e-01,9.99999e-01,2.39112e-01,9.99999e-01
5.961354271e-01,2.45966e-01,9.99999e-01,9.99999e-01,9.99999e-01,2.45966e-01,9.99999e-01
5.991161043e-01,2.52876e-01,9.99999e-01,9.99999e-01,9.99999e-01,2.52876e-01,9.99999e-01
6.021116848e-01,2.59837e-01,9.99999e-01,9.99999e-01,9.99999e-01,2.59837e-01,9.99999e-01
6.051222432e-01,2.66847e-01,9.99999e-01,9.99999e-01,9.99999e-01,2.66847e-01,9.99999e-01
6.081478544e-01,2.73902e-01,9.99999e-01,9.99999e-01,9.99999e-01,2.73902e-01,9.99999e-01
6.111885937e-01,2.80998e-01,9.99999e-01,9.99999e-01,9.99999e-01,2.80998e-01,9.99999e-01
6.142445367e-01,2.88133e-01,9.99999e-01,9.99999e-01,9.99999e-01,2.88133e-01,9.99999e-01
6.173157594e-01,2.95303e-01,9.99999e-01,9.99999e-01,9.99999e-01,2.95303e-01,9.99999e-01
6.204023382e-01,3.02504e-01,9.99999e-01,9.99999e-01,9.99999e-01,3.02504e-01,9.99999e-01
6.235043498e-01,3.09733e-01,9.99999e-01,9.99999e-01,9.99999e-01,3.09733e-01,9.99999e-01
6.266218716e-01,3.16988e-01,9.99999e-01,9.99999e-01,9.99999e-01,3.16988e-01,9.99999e-01
6.297549810e-01,3.24263e-01,9.99999e-01,9.99999e-01,9.99999e-01,3.24263e-01,9.99999e-01
6.329037559e-01,3.31558e-01,9.99999e-01,9.99999e-01,9.99999e-01,3.31558e-01,9.99999e-01
6.360682746e-01,3.38867e-01,9.99999e-01,9.99999e-01,9.99999e-01,3.38867e-01,9.99999e-01
6.392486160e-01,3.46188e-01,9.99999e-01,9.99999e-01,9.99999e-01,3.46188e-01,9.99999e-01
6.424448591e-01,3.53518e-01,9.99999e-01,9.99999e-01,9.99999e-01,3.53518e-01,9.99999e-01
6.456570834e-01,3.60854e-01,9.99999e-01,9.99999e-01,9.99999e-01,3.60854e-01,9.99999e-01
6.488853688e-01,3.68193e-01,9.99999e-01,9.99999e-01,9.99999e-01,3.68193e-01,9.99999e-01
6.521297956e-01,3.75532e-01,9.99999e-01,9.99999e-01,9.99999e-01,3.75532e-01,9.99999e-01
6.553904446e-01,3.82868e-01,9.99999e-01,9.99999e-01,9.99999e-01,3.82868e-01,9.99999e-01
6.586673968e-01,3.90197e-01,9.99999e-01,9.99999e-01,9.99999e-01,3.90197e-01,9.99999e-01
6.619607338e-01,3.97519e-01,9.99999e-01,9.99999e-01,9.99999e-01,3.97519e-01,9.99999e-01
6.652705375e-01,4.04829e-01,9.99999e-01,9.99999e-01,9.99999e-01,4.04829e-01,9.99999e-01
6.685968902e-01,4.12125e-01,9.99999e-01,9.99999e-01,9.99999e-01,4.12125e-01,9.99999e-01
6.719398746e-01,4.19404e-01,9.99999e-01,9.99999e-01,9.99999e-01,4.19404e-01,9.99999e-01
6.752995740e-01,4.26665e-01,9.99999e-01,9.99999e-01,9.99999e-01,4.26665e-01,9.99999e-01
6.786760719e-01,4.33904e-01,9.99999e-01,9.99999e-01,9.99999e-01,4.33904e-01,9.99999e-01
6.820694522e-01,4.41119e-01,9.99999e-01,9.99999e-01,9.99999e-01,4.41119e-01,9.99999e-01
6.854797995e-01,4.48308e-01,9.99999e-01,9.99999e-01,9.99999e-01,4.48308e-01,9.99999e-01
6.889071985e-01,4.55469e-01,9.99999e-01,9.99999e-01,9.99999e-01,4.55469e-01,9.99999e-01
6.923517345e-01,4.62599e-01,9.99999e-01,9.99999e-01,9.99999e-01,4.62599e-01,9.99999e-01
6.958134932e-01,4.69697e-01,9.99999e-01,9.99999e-01,9.99999e-01,4.69697e-01,9.99999e-01
6.992925606e-01,4.76761e-01,9.99999e-01,9.99999e-01,9.99999e-01,4.76761e-01,9.99999e-01
7.027890234e-01,4.83788e-01,9.99999e-01,9.99999e-01,9.99999e-01,4.83788e-01,9.99999e-01
7.063029686e-01,4.90776e-01,9.99999e-01,9.99999e-01,9.99999e-01,4.90776e-01,9.99999e-01
7.098344834e-01,4.97725e-01,9.99999e-01,9.99999e-01,9.99999e-01,4.97725e-01,9.99999e-01
7.133836558e-01,5.04632e-01,9.99999e-01,9.99999e-01,9.99999e-01,5.04632e-01,9.99999e-01
7.169505741e-01,5.11495e-01,9.99999e-01,9.99999e-01,9.99999e-01,5.11495e-01,9.99999e-01
7.205353270e-01,5.18314e-01,9.99999e-01,9.99999e-01,9.99999e-01,5.18314e-01,9.99999e-01
7.241380036e-01,5.25086e-01,9.99999e-01,9.99999e-01,9.99999e-01,5.25086e-01,9.99999e-01
7.277586936e-01,5.31810e-01,9.99999e-01,9.99999e-01,9.99999e-01,5.31810e-01,9.99999e-01
7.313974871e-01,5.38485e-01,9.99999e-01,9.99999e-01,9.99999e-01,5.38485e-01,9.99999e-01
7.350544745e-01,5.45109e-01,9.99999e-01,9.99999e-01,9.99999e-01,5.45109e-01,9.99999e-01
7.387297469e-01,5.51682e-01,9.99999e-01,9.99999e-01,9.99999e-01,5.51682e-01,9.99999e-01
7.424233956e-01,5.58201e-01,9.99999e-01,9.99999e-01,9.99999e-01,5.58201e-01,9.99999e-01
7.461355126e-01,5.64667e-01,9.99999e-01,9.99999e-01,9.99999e-01,5.64667e-01,9.99999e-01
7.498661902e-01,5.71077e-01,9.99999e-01,9.99999e-01,9.99999e-01,5.71077e-01,9.99999e-01
7.536155211e-01,5.77432e-01,9.99999e-01,9.99999e-01,9.99999e-01,5.77432e-01,9.99999e-01
7.573835987e-01,5.83730e-01,9.99999e-01,9.99999e-01,9.99999e-01,5.83730e-01,9.99999e-01
7.611705167e-01,5.89970e-01,9.99999e-01,9.99999e-01,9.99999e-01,5.89970e-01,9.99999e-01
7.649763693e-01,5.96151e-01,9.99999e-01,9.99999e-01,9.99999e-01,5.96151e-01,9.99999e-01
7.688012511e-01,6.02273e-01,9.99999e-01,9.99999e-01,9.99999e-01,6.02273e-01,9.99999e-01
7.726452574e-01,6.08336e-01,9.99999e-01,9.99999e-01,9.99999e-01,6.08336e-01,9.99999e-01
7.765084837e-01,6.14337e-01,9.99999e-01,9.99999e-01,9.99999e-01,6.14337e-01,9.99999e-01
7.803910261e-01,6.06345e-01,9.99999e-01,9.99999e-01,9.77537e-01,6.20278e-01,9.99999e-01
7.842929812e-01,5.66232e-01,9.99999e-01,9.99999e-01,9.04296e-01,6.26157e-01,9.99999e-01
7.882144461e-01,5.67504e-01,9.99999e-01,9.99999e-01,8.97985e-01,6.31974e-01,9.99999e-01
7.921555184e-01,5.99344e-01,9.99999e-01,9.99999e-01,9.39809e-01,6.37729e-01,9.99999e-01
7.961162960e-01,6.17178e-01,9.99999e-01,9.99999e-01,9.59214e-01,6.43420e-01,9.99999e-01
8.000968774e-01,6.34585e-01,9.99999e-01,9.99999e-01,9.77713e-01,6.49049e-01,9.99999e-01
8.040973618e-01,6.47004e-01,9.99999e-01,9.99999e-01,9.88373e-01,6.54614e-01,9.99999e-01
8.081178486e-01,6.56591e-01,9.99999e-01,9.99999e-01,9.94660e-01,6.60116e-01,9.99999e-01
8.121584379e-01,6.64450e-01,9.99999e-01,9.99999e-01,9.98340e-01,6.65554e-01,9.99999e-01
8.162192301e-01,6.70682e-01,9.99999e-01,9.99999e-01,9.99633e-01,6.70928e-01,9.99999e-01
8.203003262e-01,6.76234e-01,9.99999e-01,9.99999e-01,9.99993e-01,6.76238e-01,9.99999e-01
8.244018279e-01,6.81483e-01,9.99999e-01,9.99999e-01,9.99999e-01,6.81483e-01,9.99999e-01
8.285238370e-01,6.86665e-01,9.99999e-01,9.99999e-01,9.99999e-01,6.86665e-01,9.99999e-01
8.326664562e-01,6.91783e-01,9.99999e-01,9.99999e-01,9.99999e-01,6.91783e-01,9.99999e-01
8.368297885e-01,6.96836e-01,9.99999e-01,9.99999e-01,9.99999e-01,6.96836e-01,9.99999e-01
8.410139374e-01,7.01826e-01,9.99999e-01,9.99999e-01,9.99999e-01,7.01826e-01,9.99999e-01
8.452190071e-01,7.06751e-01,9.99999e-01,9.99999e-01,9.99999e-01,7.06751e-01,9.99999e-01
8.494451021e-01,7.11613e-01,9.99999e-01,9.99999e-01,9.99999e-01,7.11613e-01,9.99999e-01
8.536923276e-01,7.16411e-01,9.99999e-01,9.99999e-01,9.99999e-01,7.16411e-01,9.99999e-01
8.579607893e-01,7.21146e-01,9.99999e-01,9.99999e-01,9.99999e-01,7.21146e-01,9.99999e-01
8.622505932e-01,7.25818e-01,9.99999e-01,9.99999e-01,9.99999e-01,7.25818e-01,9.99999e-01
8.665618462e-01,6.89630e-01,9.99999e-01,9.99999e-01,9.44146e-01,7.30427e-01,9.99999e-01
8.708946554e-01,5.68211e-01,9.99999e-01,9.99999e-01,7.73104e-01,7.34973e-01,9.99999e-01
8.752491287e-01,6.01789e-01,9.99999e-01,9.99999e-01,8.13824e-01,7.39457e-01,9.99999e-01
8.796253743e-01,6.64767e-01,9.99999e-01,9.99999e-01,8.93649e-01,7.43879e-01,9.99999e-01
8.840235012e-01,7.06017e-01,9.99999e-01,9.99999e-01,9.43570e-01,7.48239e-01,9.99999e-01
8.884436187e-01,7.35496e-01,9.99999e-01,9.99999e-01,9.77354e-01,7.52538e-01,9.99999e-01
8.928858368e-01,7.49802e-01,9.99999e-01,9.99999e-01,9.90783e-01,7.56776e-01,9.99999e-01
8.973502660e-01,7.59239e-01,9.99999e-01,9.99999e-01,9.97747e-01,7.60953e-01,9.99999e-01
9.018370173e-01,7.64880e-01,9.99999e-01,9.99999e-01,9.99750e-01,7.65070e-01,9.99999e-01
9.063462024e-01,7.64299e-01,9.99999e-01,9.99999e-01,9.93721e-01,7.69128e-01,9.99999e-01
9.108779334e-01,7.61917e-01,9.99999e-01,9.99999e-01,9.85501e-01,7.73126e-01,9.99999e-01
9.154323231e-01,7.74395e-01,9.99999e-01,9.99999e-01,9.96562e-01,7.77065e-01,9.99999e-01
9.200094847e-01,7.42441e-01,9.99999e-01,9.99999e-01,9.50693e-01,7.80947e-01,9.99999e-01
9.246095321e-01,7.30597e-01,9.99999e-01,9.99999e-01,9.30969e-01,7.84770e-01,9.99999e-01
9.292325798e-01,7.45648e-01,9.99999e-01,9.99999e-01,9.45610e-01,7.88536e-01,9.99999e-01
9.338787427e-01,7.50421e-01,9.99999e-01,9.99999e-01,9.47207e-01,7.92245e-01,9.99999e-01
9.385481364e-01,7.64859e-01,9.99999e-01,9.99999e-01,9.61001e-01,7.95898e-01,9.99999e-01
9.432408771e-01,7.80250e-01,9.99999e-01,9.99999e-01,9.75929e-01,7.99495e-01,9.99999e-01
9.479570815e-01,7.93078e-01,9.99999e-01,9.99999e-01,9.87599e-01,8.03036e-01,9.99999e-01
9.526968669e-01,8.01681e-01,9.99999e-01,9.99999e-01,9.93995e-01,8.06523e-01,9.99999e-01
9.574603512e-01,8.07873e-01,9.99999e-01,9.99999e-01,9.97428e-01,8.09956e-01,9.99999e-01
9.622476530e-01,8.12682e-01,9.99999e-01,9.99999e-01,9.99196e-01,8.13335e-01,9.99999e-01
9.670588912e-01,8.16465e-01,9.99999e-01,9.99999e-01,9.99758e-01,8.16661e-01,9.99999e-01
9.718941857e-01,8.19921e-01,9.99999e-01,9.99999e-01,9.99982e-01,8.19935e-01,9.99999e-01
9.767536566e-01,8.23156e-01,9.99999e-01,9.99999e-01,9.99999e-01,8.23156e-01,9.99999e-01
9.816374249e-01,8.26327e-01,9.99999e-01,9.99999e-01,9.99999e-01,8.26327e-01,9.99999e-01
9.865456120e-01,8.29446e-01,9.99999e-01,9.99999e-01,9.99999e-01,8.29446e-01,9.99999e-01
9.914783401e-01,8.32515e-01,9.99999e-01,9.99999e-01,9.99999e-01,8.32515e-01,9.99999e-01
9.964357318e-01,8.35535e-01,9.99999e-01,9.99999e-01,9.99999e-01,8.35535e-01,9.99999e-01
1.001417910e+00,8.38506e-01,9.99999e-01,9.99999e-01,9.99999e-01,8.38506e-01,9.99999e-01
1.006425000e+00,8.41428e-01,9.99999e-01,9.99999e-01,9.99999e-01,8.41428e-01,9.99999e-01
1.011457125e+00,8.44303e-01,9.99999e-01,9.99999e-01,9.99999e-01,8.44303e-01,9.99999e-01
1.016514411e+00,8.47130e-01,9.99999e-01,9.99999e-01,9.99999e-01,8.47130e-01,9.99999e-01
1.021596983e+00,8.49884e-01,9.99999e-01,9.99999e-01,9.99968e-01,8.49910e-01,9.99999e-01
1.026704968e+00,8.50564e-01,9.99999e-01,9.99999e-01,9.97559e-01,8.52645e-01,9.99999e-01
1.031838492e+00,8.28239e-01,9.99999e-01,9.99999e-01,9.68322e-01,8.55334e-01,9.99999e-01
1.036997685e+00,1.91781e-01,9.99999e-01,9.99999e-01,2.23527e-01,8.57978e-01,9.99999e-01
1.042182673e+00,2.04317e-01,9.99999e-01,9.99999e-01,2.37418e-01,8.60578e-01,9.99999e-01
1.047393587e+00,2.06880e-01,9.99999e-01,9.99999e-01,2.39684e-01,8.63134e-01,9.99999e-01
1.052630555e+00,1.71056e-02,9.99999e-01,9.99999e-01,1.97605e-02,8.65647e-01,9.99999e-01
1.057893707e+00,3.59299e-02,9.99999e-01,9.99999e-01,4.13882e-02,8.68117e-01,9.99999e-01
1.063183176e+00,8.53065e-02,9.99999e-01,9.99999e-01,9.79918e-02,8.70546e-01,9.99999e-01
1.068499092e+00,1.81066e-01,9.99999e-01,9.99999e-01,2.07422e-01,8.72933e-01,9.99999e-01
1.073841587e+00,3.23922e-01,9.99999e-01,9.99999e-01,3.70078e-01,8.75279e-01,9.99999e-01
1.079210795e+00,4.68354e-01,9.99999e-01,9.99999e-01,5.33684e-01,8.77586e-01,9.99999e-01
1.084606849e+00,6.23754e-01,9.99999e-01,9.99999e-01,7.08930e-01,8.79852e-01,9.99999e-01
1.090029883e+00,7.38146e-01,9.99999e-01,9.99999e-01,8.36825e-01,8.82079e-01,9.99999e-01
1.095480033e+00,8.09957e-01,9.99999e-01,9.99999e-01,9.15962e-01,8.84268e-01,9.99999e-01
1.100957433e+00,8.49758e-01,9.99999e-01,9.99999e-01,9.58640e-01,8.86419e-01,9.99999e-01
1.106462220e+00,8.73143e-01,9.99999e-01,9.99999e-01,9.82679e-01,8.88533e-01,9.99999e-01
1.111994531e+00,8.84863e-01,9.99999e-01,9.99999e-01,9.93547e-01,8.90609e-01,9.99999e-01
1.117554504e+00,8.91237e-01,9.99999e-01,9.99999e-01,9.98417e-01,8.92650e-01,9.99999e-01
1.123142276e+00,8.94561e-01,9.99999e-01,9.99999e-01,9.99895e-01,8.94654e-01,9.99999e-01
1.128757988e+00,8.96623e-01,9.99999e-01,9.99999e-01,9.99999e-01,8.96623e-01,9.99999e-01
1.134401778e+00,8.98558e-01,9.99999e-01,9.99999e-01,9.99999e-01,8.98558e-01,9.99999e-01
1.140073787e+00,9.00458e-01,9.99999e-01,9.99999e-01,9.99999e-01,9.00458e-01,9.99999e-01
1.145774156e+00,9.02325e-01,9.99999e-01,9.99999e-01,9.99999e-01,9.02325e-01,9.99999e-01
1.151503026e+00,9.04159e-01,9.99999e-01,9.99999e-01,9.99999e-01,9.04159e-01,9.99999e-01
1.157260541e+00,9.05960e-01,9.99999e-01,9.99999e-01,9.99999e-01,9.05960e-01,9.99999e-01
1.163046844e+00,9.07729e-01,9.99999e-01,9.99999e-01,9.99999e-01,9.07729e-01,9.99999e-01
1.168862078e+00,9.09467e-01,9.99999e-01,9.99999e-01,9.99999e-01,9.09467e-01,9.99999e-01
1.174706389e+00,9.11173e-01,9.99999e-01,9.99999e-01,9.99999e-01,9.11173e-01,9.99999e-01
1.180579921e+00,9.12849e-01,9.99999e-01,9.99999e-01,9.99999e-01,9.12849e-01,9.99999e-01
1.186482820e+00,9.14491e-01,9.99999e-01,9.99999e-01,9.99995e-01,9.14494e-01,9.99999e-01
1.192415234e+00,9.08128e-01,9.99999e-01,9.99999e-01,9.91286e-01,9.16110e-01,9.99999e-01
1.198377311e+00,5.26907e-01,9.99999e-01,9.99999e-01,5.74162e-01,9.17697e-01,9.99999e-01
1.204369197e+00,3.80415e-08,9.99999e-01,9.99999e-01,4.13829e-08,9.19255e-01,9.99999e-01
1.210391043e+00,1.39120e-27,9.99999e-01,9.99999e-01,1.51088e-27,9.20785e-01,9.99999e-01
1.216442998e+00,4.16421e-24,9.99999e-01,9.99999e-01,4.51508e-24,9.22287e-01,9.99999e-01
1.222525213e+00,9.10607e-24,9.99999e-01,9.99999e-01,9.85758e-24,9.23762e-01,9.99999e-01
1.228637839e+00,2.32459e-18,9.99999e-01,9.99999e-01,2.51250e-18,9.25210e-01,9.99999e-01
