#,Wave/freq,Total,N2,O2,CO2,Rayleigh,CIA
4.000000000e-01,8.56369e-03,9.99999e-01,9.99999e-01,9.99999e-01,8.56369e-03,9.99999e-01
4.020000000e-01,9.40888e-03,9.99999e-01,9.99999e-01,9.99999e-01,9.40888e-03,9.99999e-01
4.040100000e-01,1.03173e-02,9.99999e-01,9.99999e-01,9.99999e-01,1.03173e-02,9.99999e-01
4.060300500e-01,1.12928e-02,9.99999e-01,9.99999e-01,9.99999e-01,1.12928e-02,9.99999e-01
4.080602003e-01,1.23386e-02,9.99999e-01,9.99999e-01,9.99999e-01,1.23386e-02,9.99999e-01
4.101005013e-01,1.34576e-02,9.99999e-01,9.99999e-01,9.99999e-01,1.34576e-02,9.99999e-01
4.121510038e-01,1.46529e-02,9.99999e-01,9.99999e-01,9.99999e-01,1.46529e-02,9.99999e-01
4.142117588e-01,1.59277e-02,9.99999e-01,9.99999e-01,9.99999e-01,1.59277e-02,9.99999e-01
4.162828176e-01,1.72848e-02,9.99999e-01,9.99999e-01,9.99999e-01,1.72848e-02,9.99999e-01
4.183642317e-01,1.87273e-02,9.99999e-01,9.99999e-01,9.99999e-01,1.87273e-02,9.99999e-01
4.204560528e-01,2.02580e-02,9.99999e-01,9.99999e-01,9.99999e-01,2.02580e-02,9.99999e-01
4.225583331e-01,2.18799e-02,9.99999e-01,9.99999e-01,9.99999e-01,2.18799e-02,9.99999e-01
4.246711247e-01,2.35958e-02,9.99999e-01,9.99999e-01,9.99999e-01,2.35958e-02,9.99999e-01
4.267944804e-01,2.54083e-02,9.99999e-01,9.99999e-01,9.99999e-01,2.54083e-02,9.99999e-01
4.289284528e-01,2.73200e-02,9.99999e-01,9.99999e-01,9.99999e-01,2.73200e-02,9.99999e-01
4.310730950e-01,2.93335e-02,9.99999e-01,9.99999e-01,9.99999e-01,2.93335e-02,9.99999e-01
4.332284605e-01,3.14512e-02,9.99999e-01,9.99999e-01,9.99999e-01,3.14512e-02,9.99999e-01
4.353946028e-01,3.36754e-02,9.99999e-01,9.99999e-01,9.99999e-01,3.36754e-02,9.99999e-01
4.375715758e-01,3.60082e-02,9.99999e-01,9.99999e-01,9.99999e-01,3.60082e-02,9.99999e-01
4.397594337e-01,3.84518e-02,9.99999e-01,9.99999e-01,9.99999e-01,3.84518e-02,9.99999e-01
4.419582309e-01,4.10079e-02,9.99999e-01,9.99999e-01,9.99999e-01,4.10079e-02,9.99999e-01
4.441680220e-01,4.36785e-02,9.99999e-01,9.99999e-01,9.99999e-01,4.36785e-02,9.99999e-01
4.463888621e-01,4.64649e-02,9.99999e-01,9.99999e-01,9.99999e-01,4.64649e-02,9.99999e-01
4.486208064e-01,4.93688e-02,9.99999e-01,9.99999e-01,9.99999e-01,4.93688e-02,9.99999e-01
4.508639105e-01,5.23915e-02,9.99999e-01,9.99999e-01,9.99999e-01,5.23915e-02,9.99999e-01
4.531182300e-01,5.55339e-02,9.99999e-01,9.99999e-01,9.99999e-01,5.55339e-02,9.99999e-01
4.553838212e-01,5.87972e-02,9.99999e-01,9.99999e-01,9.99999e-01,5.87972e-02,9.99999e-01
4.576607403e-01,6.21820e-02,9.99999e-01,9.99999e-01,9.99999e-01,6.21820e-02,9.99999e-01
4.599490440e-01,6.56890e-02,9.99999e-01,9.99999e-01,9.99999e-01,6.56890e-02,9.99999e-01
4.622487892e-01,6.93187e-02,9.99999e-01,9.99999e-01,9.99999e-01,6.93187e-02,9.99999e-01
4.645600332e-01,7.30712e-02,9.99999e-01,9.99999e-01,9.99999e-01,7.30712e-02,9.99999e-01
4.668828333e-01,7.69467e-02,9.99999e-01,9.99999e-01,9.99999e-01,7.69467e-02,9.99999e-01
4.692172475e-01,8.09451e-02,9.99999e-01,9.99999e-01,9.99999e-01,8.09451e-02,9.99999e-01
4.715633337e-01,8.50661e-02,9.99999e-01,9.99999e-01,9.99999e-01,8.50661e-02,9.99999e-01
4.739211504e-01,8.93092e-02,9.99999e-01,9.99999e-01,9.99999e-01,8.93092e-02,9.99999e-01
4.762907561e-01,9.36739e-02,9.99999e-01,9.99999e-01,9.99999e-01,9.36739e-02,9.99999e-01
4.786722099e-01,9.81594e-02,9.99999e-01,9.99999e-01,9.99999e-01,9.81594e-02,9.99999e-01
4.810655710e-01,1.02765e-01,9.99999e-01,9.99999e-01,9.99999e-01,1.02765e-01,9.99999e-01
4.834708988e-01,1.07489e-01,9.99999e-01,9.99999e-01,9.99999e-01,1.07489e-01,9.99999e-01
4.858882533e-01,1.12330e-01,9.99999e-01,9.99999e-01,9.99999e-01,1.12330e-01,9.99999e-01
4.883176946e-01,1.17287e-01,9.99999e-01,9.99999e-01,9.99999e-01,1.17287e-01,9.99999e-01
4.907592831e-01,1.22359e-01,9.99999e-01,9.99999e-01,9.99999e-01,1.22359e-01,9.99999e-01
4.932130795e-01,1.27543e-01,9.99999e-01,9.99999e-01,9.99999e-01,1.27543e-01,9.99999e-01
4.956791449e-01,1.32838e-01,9.99999e-01,9.99999e-01,9.99999e-01,1.32838e-01,9.99999e-01
4.981575406e-01,1.38241e-01,9.99999e-01,9.99999e-01,9.99999e-01,1.38241e-01,9.99999e-01
5.006483283e-01,1.43752e-01,9.99999e-01,9.99999e-01,9.99999e-01,1.43752e-01,9.99999e-01
5.031515699e-01,1.49366e-01,9.99999e-01,9.99999e-01,9.99999e-01,1.49366e-01,9.99999e-01
5.056673278e-01,1.55082e-01,9.99999e-01,9.99999e-01,9.99999e-01,1.55082e-01,9.99999e-01
5.081956644e-01,1.60898e-01,9.99999e-01,9.99999e-01,9.99999e-01,1.60898e-01,9.99999e-01
5.107366428e-01,1.66811e-01,9.99999e-01,9.99999e-01,9.99999e-01,1.66811e-01,9.99999e-01
5.132903260e-01,1.72817e-01,9.99999e-01,9.99999e-01,9.99999e-01,1.72817e-01,9.99999e-01
5.158567776e-01,1.78915e-01,9.99999e-01,9.99999e-01,9.99999e-01,1.78915e-01,9.99999e-01
5.184360615e-01,1.85101e-01,9.99999e-01,9.99999e-01,9.99999e-01,1.85101e-01,9.99999e-01
5.210282418e-01,1.91372e-01,9.99999e-01,9.99999e-01,9.99999e-01,1.91372e-01,9.99999e-01
5.236333830e-01,1.97726e-01,9.99999e-01,9.99999e-01,9.99999e-01,1.97726e-01,9.99999e-01
5.262515499e-01,2.04159e-01,9.99999e-01,9.99999e-01,9.99999e-01,2.04159e-01,9.99999e-01
5.288828077e-01,2.10668e-01,9.99999e-01,9.99999e-01,9.99999e-01,2.10668e-01,9.99999e-01
5.315272217e-01,2.17249e-01,9.99999e-01,9.99999e-01,9.99999e-01,2.17249e-01,9.99999e-01
5.341848578e-01,2.23901e-01,9.99999e-01,9.99999e-01,9.99999e-01,2.23901e-01,9.99999e-01
5.368557821e-01,2.30618e-01,9.99999e-01,9.99999e-01,9.99999e-01,2.30618e-01,9.99999e-01
5.395400610e-01,2.37398e-01,9.99999e-01,9.99999e-01,9.99999e-01,2.37398e-01,9.99999e-01
5.422377613e-01,2.44238e-01,9.99999e-01,9.99999e-01,9.99999e-01,2.44238e-01,9.99999e-01
5.449489501e-01,2.51134e-01,9.99999e-01,9.99999e-01,9.99999e-01,2.51134e-01,9.99999e-01
5.476736949e-01,2.58083e-01,9.99999e-01,9.99999e-01,9.99999e-01,2.58083e-01,9.99999e-01
5.504120634e-01,2.65081e-01,9.99999e-01,9.99999e-01,9.99999e-01,2.65081e-01,9.99999e-01
5.531641237e-01,2.72125e-01,9.99999e-01,9.99999e-01,9.99999e-01,2.72125e-01,9.99999e-01
5.559299443e-01,2.79211e-01,9.99999e-01,9.99999e-01,9.99999e-01,2.79211e-01,9.99999e-01
5.587095940e-01,2.86337e-01,9.99999e-01,9.99999e-01,9.99999e-01,2.86337e-01,9.99999e-01
5.615031420e-01,2.93498e-01,9.99999e-01,9.99999e-01,9.99999e-01,2.93498e-01,9.99999e-01
5.643106577e-01,3.00691e-01,9.99999e-01,9.99999e-01,9.99999e-01,3.00691e-01,9.99999e-01
5.671322110e-01,3.07914e-01,9.99999e-01,9.99999e-01,9.99999e-01,3.07914e-01,9.99999e-01
5.699678720e-01,3.15162e-01,9.99999e-01,9.99999e-01,9.99999e-01,3.15162e-01,9.99999e-01
5.728177114e-01,3.22433e-01,9.99999e-01,9.99999e-01,9.99999e-01,3.22433e-01,9.99999e-01
5.756818000e-01,3.29723e-01,9.99999e-01,9.99999e-01,9.99999e-01,3.29723e-01,9.99999e-01
5.785602090e-01,3.37028e-01,9.99999e-01,9.99999e-01,9.99999e-01,3.37028e-01,9.99999e-01
5.814530100e-01,3.44347e-01,9.99999e-01,9.99999e-01,9.99999e-01,3.44347e-01,9.99999e-01
5.843602750e-01,3.51675e-01,9.99999e-01,9.99999e-01,9.99999e-01,3.51675e-01,9.99999e-01
5.872820764e-01,3.59010e-01,9.99999e-01,9.99999e-01,9.99999e-01,3.59010e-01,9.99999e-01
5.902184868e-01,3.66348e-01,9.99999e-01,9.99999e-01,9.99999e-01,3.66348e-01,9.99999e-01
5.931695792e-01,3.73687e-01,9.99999e-01,9.99999e-01,9.99999e-01,3.73687e-01,9.99999e-01
5.961354271e-01,3.81024e-01,9.99999e-01,9.99999e-01,9.99999e-01,3.81024e-01,9.99999e-01
5.991161043e-01,3.88356e-01,9.99999e-01,9.99999e-01,9.99999e-01,3.88356e-01,9.99999e-01
6.021116848e-01,3.95679e-01,9.99999e-01,9.99999e-01,9.99999e-01,3.95679e-01,9.99999e-01
6.051222432e-01,4.02992e-01,9.99999e-01,9.99999e-01,9.99999e-01,4.02992e-01,9.99999e-01
6.081478544e-01,4.10292e-01,9.99999e-01,9.99999e-01,9.99999e-01,4.10292e-01,9.99999e-01
6.111885937e-01,4.17576e-01,9.99999e-01,9.99999e-01,9.99999e-01,4.17576e-01,9.99999e-01
6.142445367e-01,4.24842e-01,9.99999e-01,9.99999e-01,9.99999e-01,4.24842e-01,9.99999e-01
6.173157594e-01,4.32086e-01,9.99999e-01,9.99999e-01,9.99999e-01,4.32086e-01,9.99999e-01
6.204023382e-01,4.39308e-01,9.99999e-01,9.99999e-01,9.99999e-01,4.39308e-01,9.99999e-01
6.235043498e-01,4.46504e-01,9.99999e-01,9.99999e-01,9.99999e-01,4.46504e-01,9.99999e-01
6.266218716e-01,4.53672e-01,9.99999e-01,9.99999e-01,9.99999e-01,4.53672e-01,9.99999e-01
6.297549810e-01,4.60810e-01,9.99999e-01,9.99999e-01,9.99999e-01,4.60810e-01,9.99999e-01
6.329037559e-01,4.67916e-01,9.99999e-01,9.99999e-01,9.99999e-01,4.67916e-01,9.99999e-01
6.360682746e-01,4.74989e-01,9.99999e-01,9.99999e-01,9.99999e-01,4.74989e-01,9.99999e-01
6.392486160e-01,4.82025e-01,9.99999e-01,9.99999e-01,9.99999e-01,4.82025e-01,9.99999e-01
6.424448591e-01,4.89023e-01,9.99999e-01,9.99999e-01,9.99999e-01,4.89023e-01,9.99999e-01
6.456570834e-01,4.95982e-01,9.99999e-01,9.99999e-01,9.99999e-01,4.95982e-01,9.99999e-01
6.488853688e-01,5.02900e-01,9.99999e-01,9.99999e-01,9.99999e-01,5.02900e-01,9.99999e-01
6.521297956e-01,5.09774e-01,9.99999e-01,9.99999e-01,9.99999e-01,5.09774e-01,9.99999e-01
6.553904446e-01,5.16604e-01,9.99999e-01,9.99999e-01,9.99999e-01,5.16604e-01,9.99999e-01
6.586673968e-01,5.23388e-01,9.99999e-01,9.99999e-01,9.99999e-01,5.23388e-01,9.99999e-01
6.619607338e-01,5.30124e-01,9.99999e-01,9.99999e-01,9.99999e-01,5.30124e-01,9.99999e-01
6.652705375e-01,5.36812e-01,9.99999e-01,9.99999e-01,9.99999e-01,5.36812e-01,9.99999e-01
6.685968902e-01,5.43449e-01,9.99999e-01,9.99999e-01,9.99999e-01,5.43449e-01,9.99999e-01
6.719398746e-01,5.50034e-01,9.99999e-01,9.99999e-01,9.99999e-01,5.50034e-01,9.99999e-01
6.752995740e-01,5.56567e-01,9.99999e-01,9.99999e-01,9.99999e-01,5.56567e-01,9.99999e-01
6.786760719e-01,5.63047e-01,9.99999e-01,9.99999e-01,9.99999e-01,5.63047e-01,9.99999e-01
6.820694522e-01,5.69471e-01,9.99999e-01,9.99999e-01,9.99999e-01,5.69471e-01,9.99999e-01
6.854797995e-01,5.75840e-01,9.99999e-01,9.99999e-01,9.99999e-01,5.75840e-01,9.99999e-01
6.889071985e-01,5.82152e-01,9.99999e-01,9.99999e-01,9.99999e-01,5.82152e-01,9.99999e-01
6.923517345e-01,5.88407e-01,9.99999e-01,9.99999e-01,9.99999e-01,5.88407e-01,9.99999e-01
6.958134932e-01,5.94603e-01,9.99999e-01,9.99999e-01,9.99999e-01,5.94603e-01,9.99999e-01
6.992925606e-01,6.00740e-01,9.99999e-01,9.99999e-01,9.99999e-01,6.00740e-01,9.99999e-01
7.027890234e-01,6.06817e-01,9.99999e-01,9.99999e-01,9.99999e-01,6.06817e-01,9.99999e-01
7.063029686e-01,6.12834e-01,9.99999e-01,9.99999e-01,9.99999e-01,6.12834e-01,9.99999e-01
7.098344834e-01,6.18791e-01,9.99999e-01,9.99999e-01,9.99999e-01,6.18791e-01,9.99999e-01
7.133836558e-01,6.24685e-01,9.99999e-01,9.99999e-01,9.99999e-01,6.24685e-01,9.99999e-01
7.169505741e-01,6.30518e-01,9.99999e-01,9.99999e-01,9.99999e-01,6.30518e-01,9.99999e-01
7.205353270e-01,6.36288e-01,9.99999e-01,9.99999e-01,9.99999e-01,6.36288e-01,9.99999e-01
7.241380036e-01,6.41996e-01,9.99999e-01,9.99999e-01,9.99999e-01,6.41996e-01,9.99999e-01
7.277586936e-01,6.47640e-01,9.99999e-01,9.99999e-01,9.99999e-01,6.47640e-01,9.99999e-01
7.313974871e-01,6.53222e-01,9.99999e-01,9.99999e-01,9.99999e-01,6.53222e-01,9.99999e-01
7.350544745e-01,6.58739e-01,9.99999e-01,9.99999e-01,9.99999e-01,6.58739e-01,9.99999e-01
7.387297469e-01,6.64193e-01,9.99999e-01,9.99999e-01,9.99999e-01,6.64193e-01,9.99999e-01
7.424233956e-01,6.69583e-01,9.99999e-01,9.99999e-01,9.99999e-01,6.69583e-01,9.99999e-01
7.461355126e-01,6.74909e-01,9.99999e-01,9.99999e-01,9.99999e-01,6.74909e-01,9.99999e-01
7.498661902e-01,6.80171e-01,9.99999e-01,9.99999e-01,9.99999e-01,6.80171e-01,9.99999e-01
7.536155211e-01,6.85369e-01,9.99999e-01,9.99999e-01,9.99999e-01,6.85369e-01,9.99999e-01
7.573835987e-01,6.90502e-01,9.99999e-01,9.99999e-01,9.99999e-01,6.90502e-01,9.99999e-01
7.611705167e-01,6.95572e-01,9.99999e-01,9.99999e-01,9.99999e-01,6.95572e-01,9.99999e-01
7.649763693e-01,7.00577e-01,9.99999e-01,9.99999e-01,9.99999e-01,7.00577e-01,9.99999e-01
7.688012511e-01,7.05519e-01,9.99999e-01,9.99999e-01,9.99999e-01,7.05519e-01,9.99999e-01
7.726452574e-01,7.10397e-01,9.99999e-01,9.99999e-01,9.99999e-01,7.10397e-01,9.99999e-01
7.765084837e-01,7.15211e-01,9.99999e-01,9.99999e-01,9.99999e-01,7.15211e-01,9.99999e-01
7.803910261e-01,7.08450e-01,9.99999e-01,9.99999e-01,9.84010e-01,7.19962e-01,9.99999e-01
7.842929812e-01,6.75940e-01,9.99999e-01,9.99999e-01,9.32781e-01,7.24650e-01,9.99999e-01
7.882144461e-01,6.76809e-01,9.99999e-01,9.99999e-01,9.28057e-01,7.29274e-01,9.99999e-01
7.921555184e-01,7.03086e-01,9.99999e-01,9.99999e-01,9.58096e-01,7.33836e-01,9.99999e-01
7.961162960e-01,7.17502e-01,9.99999e-01,9.99999e-01,9.71783e-01,7.38336e-01,9.99999e-01
8.000968774e-01,7.31352e-01,9.99999e-01,9.99999e-01,9.84623e-01,7.42773e-01,9.99999e-01
8.040973618e-01,7.41173e-01,9.99999e-01,9.99999e-01,9.92001e-01,7.47149e-01,9.99999e-01
8.081178486e-01,7.48703e-01,9.99999e-01,9.99999e-01,9.96326e-01,7.51463e-01,9.99999e-01
8.121584379e-01,7.54856e-01,9.99999e-01,9.99999e-01,9.98861e-01,7.55716e-01,9.99999e-01
8.162192301e-01,7.59718e-01,9.99999e-01,9.99999e-01,9.99748e-01,7.59909e-01,9.99999e-01
8.203003262e-01,7.64038e-01,9.99999e-01,9.99999e-01,9.99995e-01,7.64041e-01,9.99999e-01
8.244018279e-01,7.68113e-01,9.99999e-01,9.99999e-01,9.99999e-01,7.68113e-01,9.99999e-01
8.285238370e-01,7.72127e-01,9.99999e-01,9.99999e-01,9.99999e-01,7.72127e-01,9.99999e-01
8.326664562e-01,7.76081e-01,9.99999e-01,9.99999e-01,9.99999e-01,7.76081e-01,9.99999e-01
8.368297885e-01,7.79977e-01,9.99999e-01,9.99999e-01,9.99999e-01,7.79977e-01,9.99999e-01
8.410139374e-01,7.83814e-01,9.99999e-01,9.99999e-01,9.99999e-01,7.83814e-01,9.99999e-01
8.452190071e-01,7.87595e-01,9.99999e-01,9.99999e-01,9.99999e-01,7.87595e-01,9.99999e-01
8.494451021e-01,7.91318e-01,9.99999e-01,9.99999e-01,9.99999e-01,7.91318e-01,9.99999e-01
8.536923276e-01,7.94985e-01,9.99999e-01,9.99999e-01,9.99999e-01,7.94985e-01,9.99999e-01
8.579607893e-01,7.98596e-01,9.99999e-01,9.99999e-01,9.99999e-01,7.98596e-01,9.99999e-01
8.622505932e-01,8.02151e-01,9.99999e-01,9.99999e-01,9.99999e-01,8.02151e-01,9.99999e-01
8.665618462e-01,7.71000e-01,9.99999e-01,9.99999e-01,9.56988e-01,8.05652e-01,9.99999e-01
8.708946554e-01,6.76168e-01,9.99999e-01,9.99999e-01,8.35705e-01,8.09098e-01,9.99999e-01
8.752491287e-01,7.04445e-01,9.99999e-01,9.99999e-01,8.67018e-01,8.12491e-01,9.99999e-01
8.796253743e-01,7.54991e-01,9.99999e-01,9.99999e-01,9.25426e-01,8.15830e-01,9.99999e-01
8.840235012e-01,7.87034e-01,9.99999e-01,9.99999e-01,9.60832e-01,8.19117e-01,9.99999e-01
8.884436187e-01,8.09518e-01,9.99999e-01,9.99999e-01,9.84393e-01,8.22351e-01,9.99999e-01
8.928858368e-01,8.20301e-01,9.99999e-01,9.99999e-01,9.93659e-01,8.25535e-01,9.99999e-01
8.973502660e-01,8.27387e-01,9.99999e-01,9.99999e-01,9.98454e-01,8.28667e-01,9.99999e-01
9.018370173e-01,8.31607e-01,9.99999e-01,9.99999e-01,9.99829e-01,8.31749e-01,9.99999e-01
9.063462024e-01,8.31147e-01,9.99999e-01,9.99999e-01,9.95646e-01,8.34781e-01,9.99999e-01
9.108779334e-01,8.29396e-01,9.99999e-01,9.99999e-01,9.90010e-01,8.37764e-01,9.99999e-01
9.154323231e-01,8.38716e-01,9.99999e-01,9.99999e-01,9.97641e-01,8.40698e-01,9.99999e-01
9.200094847e-01,8.14243e-01,9.99999e-01,9.99999e-01,9.65217e-01,8.43585e-01,9.99999e-01
9.246095321e-01,8.05774e-01,9.99999e-01,9.99999e-01,9.51974e-01,8.46424e-01,9.99999e-01
9.292325798e-01,8.17009e-01,9.99999e-01,9.99999e-01,9.62074e-01,8.49216e-01,9.99999e-01
9.338787427e-01,8.20729e-01,9.99999e-01,9.99999e-01,9.63339e-01,8.51962e-01,9.99999e-01
9.385481364e-01,8.31589e-01,9.99999e-01,9.99999e-01,9.73002e-01,8.54662e-01,9.99999e-01
9.432408771e-01,8.43086e-01,9.99999e-01,9.99999e-01,9.83399e-01,8.57318e-01,9.99999e-01
9.479570815e-01,8.52584e-01,9.99999e-01,9.99999e-01,9.91458e-01,8.59929e-01,9.99999e-01
9.526968669e-01,8.58934e-01,9.99999e-01,9.99999e-01,9.95869e-01,8.62496e-01,9.99999e-01
9.574603512e-01,8.63491e-01,9.99999e-01,9.99999e-01,9.98232e-01,8.65019e-01,9.99999e-01
9.622476530e-01,8.67022e-01,9.99999e-01,9.99999e-01,9.99448e-01,8.67500e-01,9.99999e-01
9.670588912e-01,8.69796e-01,9.99999e-01,9.99999e-01,9.99834e-01,8.69939e-01,9.99999e-01
9.718941857e-01,8.72327e-01,9.99999e-01,9.99999e-01,9.99987e-01,8.72337e-01,9.99999e-01
9.767536566e-01,8.74694e-01,9.99999e-01,9.99999e-01,9.99999e-01,8.74694e-01,9.99999e-01
9.816374249e-01,8.77010e-01,9.99999e-01,9.99999e-01,9.99999e-01,8.77010e-01,9.99999e-01
9.865456120e-01,8.79286e-01,9.99999e-01,9.99999e-01,9.99999e-01,8.79286e-01,9.99999e-01
9.914783401e-01,8.81523e-01,9.99999e-01,9.99999e-01,9.99999e-01,8.81523e-01,9.99999e-01
9.964357318e-01,8.83722e-01,9.99999e-01,9.99999e-01,9.99999e-01,8.83722e-01,9.99999e-01
1.001417910e+00,8.85882e-01,9.99999e-01,9.99999e-01,9.99999e-01,8.85882e-01,9.99999e-01
1.006425000e+00,8.88005e-01,9.99999e-01,9.99999e-01,9.99999e-01,8.88005e-01,9.99999e-01
1.011457125e+00,8.90091e-01,9.99999e-01,9.99999e-01,9.99999e-01,8.90091e-01,9.99999e-01
1.016514411e+00,8.92140e-01,9.99999e-01,9.99999e-01,9.99999e-01,8.92140e-01,9.99999e-01
1.021596983e+00,8.94134e-01,9.99999e-01,9.99999e-01,9.99977e-01,8.94154e-01,9.99999e-01
1.026704968e+00,8.94617e-01,9.99999e-01,9.99999e-01,9.98309e-01,8.96132e-01,9.99999e-01
1.031838492e+00,8.75728e-01,9.99999e-01,9.99999e-01,9.75116e-01,8.98075e-01,9.99999e-01
1.036997685e+00,2.73113e-01,9.99999e-01,9.99999e-01,3.03464e-01,8.99984e-01,9.99999e-01
1.042182673e+00,3.29180e-01,9.99999e-01,9.99999e-01,3.65001e-01,9.01859e-01,9.99999e-01
1.047393587e+00,3.03381e-01,9.99999e-01,9.99999e-01,3.35709e-01,9.03701e-01,9.99999e-01
1.052630555e+00,5.09295e-02,9.99999e-01,9.99999e-01,5.62439e-02,9.05510e-01,9.99999e-01
1.057893707e+00,9.35612e-02,9.99999e-01,9.99999e-01,1.03122e-01,9.07287e-01,9.99999e-01
1.063183176e+00,1.75811e-01,9.99999e-01,9.99999e-01,1.93405e-01,9.09033e-01,9.99999e-01
1.068499092e+00,3.05441e-01,9.99999e-01,9.99999e-01,3.35373e-01,9.10747e-01,9.99999e-01
1.073841587e+00,4.57937e-01,9.99999e-01,9.99999e-01,5.01886e-01,9.12430e-01,9.99999e-01
1.079210795e+00,5.91976e-01,9.99999e-01,9.99999e-01,6.47616e-01,9.14083e-01,9.99999e-01
1.084606849e+00,7.22447e-01,9.99999e-01,9.99999e-01,7.88949e-01,9.15707e-01,9.99999e-01
1.090029883e+00,8.11426e-01,9.99999e-01,9.99999e-01,8.84580e-01,9.17301e-01,9.99999e-01
1.095480033e+00,8.65023e-01,9.99999e-01,9.99999e-01,9.41401e-01,9.18866e-01,9.99999e-01
1.100957433e+00,8.94058e-01,9.99999e-01,9.99999e-01,9.71375e-01,9.20403e-01,9.99999e-01
1.106462220e+00,9.10909e-01,9.99999e-01,9.99999e-01,9.88064e-01,9.21912e-01,9.99999e-01
1.111994531e+00,9.19296e-01,9.99999e-01,9.99999e-01,9.95561e-01,9.23394e-01,9.99999e-01
1.117554504e+00,9.23844e-01,9.99999e-01,9.99999e-01,9.98913e-01,9.24849e-01,9.99999e-01
1.123142276e+00,9.26211e-01,9.99999e-01,9.99999e-01,9.99928e-01,9.26277e-01,9.99999e-01
1.128757988e+00,9.27679e-01,9.99999e-01,9.99999e-01,9.99999e-01,9.27679e-01,9.99999e-01
1.134401778e+00,9.29056e-01,9.99999e-01,9.99999e-01,9.99999e-01,9.29056e-01,9.99999e-01
1.140073787e+00,9.30407e-01,9.99999e-01,9.99999e-01,9.99999e-01,9.30407e-01,9.99999e-01
1.145774156e+00,9.31734e-01,9.99999e-01,9.99999e-01,9.99999e-01,9.31734e-01,9.99999e-01
1.151503026e+00,9.33036e-01,9.99999e-01,9.99999e-01,9.99999e-01,9.33036e-01,9.99999e-01
1.157260541e+00,9.34314e-01,9.99999e-01,9.99999e-01,9.99999e-01,9.34314e-01,9.99999e-01
1.163046844e+00,9.35569e-01,9.99999e-01,9.99999e-01,9.99999e-01,9.35569e-01,9.99999e-01
1.168862078e+00,9.36801e-01,9.99999e-01,9.99999e-01,9.99999e-01,9.36801e-01,9.99999e-01
1.174706389e+00,9.38009e-01,9.99999e-01,9.99999e-01,9.99999e-01,9.38009e-01,9.99999e-01
1.180579921e+00,9.39196e-01,9.99999e-01,9.99999e-01,9.99999e-01,9.39196e-01,9.99999e-01
1.186482820e+00,9.40358e-01,9.99999e-01,9.99999e-01,9.99996e-01,9.40360e-01,9.99999e-01
1.192415234e+00,9.35788e-01,9.99999e-01,9.99999e-01,9.93929e-01,9.41503e-01,9.99999e-01
1.198377311e+00,5.55739e-01,9.99999e-01,9.99999e-01,5.89565e-01,9.42625e-01,9.99999e-01
1.204369197e+00,2.64677e-06,9.99999e-01,9.99999e-01,2.80460e-06,9.43726e-01,9.99999e-01
1.210391043e+00,1.11662e-19,9.99999e-01,9.99999e-01,1.18185e-19,9.44806e-01,9.99999e-01
1.216442998e+00,2.79522e-17,9.99999e-01,9.99999e-01,2.95520e-17,9.45866e-01,9.99999e-01
1.222525213e+00,5.02042e-17,9.99999e-01,9.99999e-01,5.30191e-17,9.46906e-01,9.99999e-01
1.228637839e+00,4.41686e-13,9.99999e-01,9.99999e-01,4.65949e-13,9.47927e-01,9.99999e-01
