#,Wave/freq,Total,N2,O2,CO2,Rayleigh,CIA
4.000000000e-01,2.86227e-02,9.99999e-01,9.99999e-01,9.99999e-01,2.86227e-02,9.99999e-01
4.020000000e-01,3.07061e-02,9.99999e-01,9.99999e-01,9.99999e-01,3.07061e-02,9.99999e-01
4.040100000e-01,3.28932e-02,9.99999e-01,9.99999e-01,9.99999e-01,3.28932e-02,9.99999e-01
4.060300500e-01,3.51882e-02,9.99999e-01,9.99999e-01,9.99999e-01,3.51882e-02,9.99999e-01
4.080602003e-01,3.75932e-02,9.99999e-01,9.99999e-01,9.99999e-01,3.75932e-02,9.99999e-01
4.101005013e-01,4.01102e-02,9.99999e-01,9.99999e-01,9.99999e-01,4.01102e-02,9.99999e-01
4.121510038e-01,4.27409e-02,9.99999e-01,9.99999e-01,9.99999e-01,4.27409e-02,9.99999e-01
4.142117588e-01,4.54871e-02,9.99999e-01,9.99999e-01,9.99999e-01,4.54871e-02,9.99999e-01
4.162828176e-01,4.83502e-02,9.99999e-01,9.99999e-01,9.99999e-01,4.83502e-02,9.99999e-01
4.183642317e-01,5.13315e-02,9.99999e-01,9.99999e-01,9.99999e-01,5.13315e-02,9.99999e-01
4.204560528e-01,5.44324e-02,9.99999e-01,9.99999e-01,9.99999e-01,5.44324e-02,9.99999e-01
4.225583331e-01,5.76537e-02,9.99999e-01,9.99999e-01,9.99999e-01,5.76537e-02,9.99999e-01
4.246711247e-01,6.09964e-02,9.99999e-01,9.99999e-01,9.99999e-01,6.09964e-02,9.99999e-01
4.267944804e-01,6.44610e-02,9.99999e-01,9.99999e-01,9.99999e-01,6.44610e-02,9.99999e-01
4.289284528e-01,6.80482e-02,9.99999e-01,9.99999e-01,9.99999e-01,6.80482e-02,9.99999e-01
4.310730950e-01,7.17582e-02,9.99999e-01,9.99999e-01,9.99999e-01,7.17582e-02,9.99999e-01
4.332284605e-01,7.55911e-02,9.99999e-01,9.99999e-01,9.99999e-01,7.55911e-02,9.99999e-01
4.353946028e-01,7.95470e-02,9.99999e-01,9.99999e-01,9.99999e-01,7.95470e-02,9.99999e-01
4.375715758e-01,8.36256e-02,9.99999e-01,9.99999e-01,9.99999e-01,8.36256e-02,9.99999e-01
4.397594337e-01,8.78265e-02,9.99999e-01,9.99999e-01,9.99999e-01,8.78265e-02,9.99999e-01
4.419582309e-01,9.21492e-02,9.99999e-01,9.99999e-01,9.99999e-01,9.21492e-02,9.99999e-01
4.441680220e-01,9.65930e-02,9.99999e-01,9.99999e-01,9.99999e-01,9.65930e-02,9.99999e-01
4.463888621e-01,1.01157e-01,9.99999e-01,9.99999e-01,9.99999e-01,1.01157e-01,9.99999e-01
4.486208064e-01,1.05840e-01,9.99999e-01,9.99999e-01,9.99999e-01,1.05840e-01,9.99999e-01
4.508639105e-01,1.10641e-01,9.99999e-01,9.99999e-01,9.99999e-01,1.10641e-01,9.99999e-01
4.531182300e-01,1.15558e-01,9.99999e-01,9.99999e-01,9.99999e-01,1.15558e-01,9.99999e-01
4.553838212e-01,1.20590e-01,9.99999e-01,9.99999e-01,9.99999e-01,1.20590e-01,9.99999e-01
4.576607403e-01,1.25736e-01,9.99999e-01,9.99999e-01,9.99999e-01,1.25736e-01,9.99999e-01
4.599490440e-01,1.30992e-01,9.99999e-01,9.99999e-01,9.99999e-01,1.30992e-01,9.99999e-01
4.622487892e-01,1.36359e-01,9.99999e-01,9.99999e-01,9.99999e-01,1.36359e-01,9.99999e-01
4.645600332e-01,1.41832e-01,9.99999e-01,9.99999e-01,9.99999e-01,1.41832e-01,9.99999e-01
4.668828333e-01,1.47411e-01,9.99999e-01,9.99999e-01,9.99999e-01,1.47411e-01,9.99999e-01
4.692172475e-01,1.53092e-01,9.99999e-01,9.99999e-01,9.99999e-01,1.53092e-01,9.99999e-01
4.715633337e-01,1.58874e-01,9.99999e-01,9.99999e-01,9.99999e-01,1.58874e-01,9.99999e-01
4.739211504e-01,1.64753e-01,9.99999e-01,9.99999e-01,9.99999e-01,1.64753e-01,9.99999e-01
4.762907561e-01,1.70727e-01,9.99999e-01,9.99999e-01,9.99999e-01,1.70727e-01,9.99999e-01
4.786722099e-01,1.76794e-01,9.99999e-01,9.99999e-01,9.99999e-01,1.76794e-01,9.99999e-01
4.810655710e-01,1.82949e-01,9.99999e-01,9.99999e-01,9.99999e-01,1.82949e-01,9.99999e-01
4.834708988e-01,1.89192e-01,9.99999e-01,9.99999e-01,9.99999e-01,1.89192e-01,9.99999e-01
4.858882533e-01,1.95517e-01,9.99999e-01,9.99999e-01,9.99999e-01,1.95517e-01,9.99999e-01
4.883176946e-01,2.01923e-01,9.99999e-01,9.99999e-01,9.99999e-01,2.01923e-01,9.99999e-01
4.907592831e-01,2.08406e-01,9.99999e-01,9.99999e-01,9.99999e-01,2.08406e-01,9.99999e-01
4.932130795e-01,2.14963e-01,9.99999e-01,9.99999e-01,9.99999e-01,2.14963e-01,9.99999e-01
4.956791449e-01,2.21590e-01,9.99999e-01,9.99999e-01,9.99999e-01,2.21590e-01,9.99999e-01
4.981575406e-01,2.28285e-01,9.99999e-01,9.99999e-01,9.99999e-01,2.28285e-01,9.99999e-01
5.006483283e-01,2.35044e-01,9.99999e-01,9.99999e-01,9.99999e-01,2.35044e-01,9.99999e-01
5.031515699e-01,2.41864e-01,9.99999e-01,9.99999e-01,9.99999e-01,2.41864e-01,9.99999e-01
5.056673278e-01,2.48741e-01,9.99999e-01,9.99999e-01,9.99999e-01,2.48741e-01,9.99999e-01
5.081956644e-01,2.55671e-01,9.99999e-01,9.99999e-01,9.99999e-01,2.55671e-01,9.99999e-01
5.107366428e-01,2.62653e-01,9.99999e-01,9.99999e-01,9.99999e-01,2.62653e-01,9.99999e-01
5.132903260e-01,2.69681e-01,9.99999e-01,9.99999e-01,9.99999e-01,2.69681e-01,9.99999e-01
5.158567776e-01,2.76753e-01,9.99999e-01,9.99999e-01,9.99999e-01,2.76753e-01,9.99999e-01
5.184360615e-01,2.83866e-01,9.99999e-01,9.99999e-01,9.99999e-01,2.83866e-01,9.99999e-01
5.210282418e-01,2.91015e-01,9.99999e-01,9.99999e-01,9.99999e-01,2.91015e-01,9.99999e-01
5.236333830e-01,2.98198e-01,9.99999e-01,9.99999e-01,9.99999e-01,2.98198e-01,9.99999e-01
5.262515499e-01,3.05410e-01,9.99999e-01,9.99999e-01,9.99999e-01,3.05410e-01,9.99999e-01
5.288828077e-01,3.12650e-01,9.99999e-01,9.99999e-01,9.99999e-01,3.12650e-01,9.99999e-01
5.315272217e-01,3.19913e-01,9.99999e-01,9.99999e-01,9.99999e-01,3.19913e-01,9.99999e-01
5.341848578e-01,3.27197e-01,9.99999e-01,9.99999e-01,9.99999e-01,3.27197e-01,9.99999e-01
5.368557821e-01,3.34498e-01,9.99999e-01,9.99999e-01,9.99999e-01,3.34498e-01,9.99999e-01
5.395400610e-01,3.41812e-01,9.99999e-01,9.99999e-01,9.99999e-01,3.41812e-01,9.99999e-01
5.422377613e-01,3.49137e-01,9.99999e-01,9.99999e-01,9.99999e-01,3.49137e-01,9.99999e-01
5.449489501e-01,3.56470e-01,9.99999e-01,9.99999e-01,9.99999e-01,3.56470e-01,9.99999e-01
5.476736949e-01,3.63808e-01,9.99999e-01,9.99999e-01,9.99999e-01,3.63808e-01,9.99999e-01
5.504120634e-01,3.71147e-01,9.99999e-01,9.99999e-01,9.99999e-01,3.71147e-01,9.99999e-01
5.531641237e-01,3.78485e-01,9.99999e-01,9.99999e-01,9.99999e-01,3.78485e-01,9.99999e-01
5.559299443e-01,3.85818e-01,9.99999e-01,9.99999e-01,9.99999e-01,3.85818e-01,9.99999e-01
5.587095940e-01,3.93145e-01,9.99999e-01,9.99999e-01,9.99999e-01,3.93145e-01,9.99999e-01
5.615031420e-01,4.00462e-01,9.99999e-01,9.99999e-01,9.99999e-01,4.00462e-01,9.99999e-01
5.643106577e-01,4.07767e-01,9.99999e-01,9.99999e-01,9.99999e-01,4.07767e-01,9.99999e-01
5.671322110e-01,4.15056e-01,9.99999e-01,9.99999e-01,9.99999e-01,4.15056e-01,9.99999e-01
5.699678720e-01,4.22329e-01,9.99999e-01,9.99999e-01,9.99999e-01,4.22329e-01,9.99999e-01
5.728177114e-01,4.29581e-01,9.99999e-01,9.99999e-01,9.99999e-01,4.29581e-01,9.99999e-01
5.756818000e-01,4.36810e-01,9.99999e-01,9.99999e-01,9.99999e-01,4.36810e-01,9.99999e-01
5.785602090e-01,4.44015e-01,9.99999e-01,9.99999e-01,9.99999e-01,4.44015e-01,9.99999e-01
5.814530100e-01,4.51194e-01,9.99999e-01,9.99999e-01,9.99999e-01,4.51194e-01,9.99999e-01
5.843602750e-01,4.58342e-01,9.99999e-01,9.99999e-01,9.99999e-01,4.58342e-01,9.99999e-01
5.872820764e-01,4.65460e-01,9.99999e-01,9.99999e-01,9.99999e-01,4.65460e-01,9.99999e-01
5.902184868e-01,4.72544e-01,9.99999e-01,9.99999e-01,9.99999e-01,4.72544e-01,9.99999e-01
5.931695792e-01,4.79593e-01,9.99999e-01,9.99999e-01,9.99999e-01,4.79593e-01,9.99999e-01
5.961354271e-01,4.86605e-01,9.99999e-01,9.99999e-01,9.99999e-01,4.86605e-01,9.99999e-01
5.991161043e-01,4.93578e-01,9.99999e-01,9.99999e-01,9.99999e-01,4.93578e-01,9.99999e-01
6.021116848e-01,5.00510e-01,9.99999e-01,9.99999e-01,9.99999e-01,5.00510e-01,9.99999e-01
6.051222432e-01,5.07399e-01,9.99999e-01,9.99999e-01,9.99999e-01,5.07399e-01,9.99999e-01
6.081478544e-01,5.14245e-01,9.99999e-01,9.99999e-01,9.99999e-01,5.14245e-01,9.99999e-01
6.111885937e-01,5.21045e-01,9.99999e-01,9.99999e-01,9.99999e-01,5.21045e-01,9.99999e-01
6.142445367e-01,5.27798e-01,9.99999e-01,9.99999e-01,9.99999e-01,5.27798e-01,9.99999e-01
6.173157594e-01,5.34502e-01,9.99999e-01,9.99999e-01,9.99999e-01,5.34502e-01,9.99999e-01
6.204023382e-01,5.41157e-01,9.99999e-01,9.99999e-01,9.99999e-01,5.41157e-01,9.99999e-01
6.235043498e-01,5.47760e-01,9.99999e-01,9.99999e-01,9.99999e-01,5.47760e-01,9.99999e-01
6.266218716e-01,5.54312e-01,9.99999e-01,9.99999e-01,9.99999e-01,5.54312e-01,9.99999e-01
6.297549810e-01,5.60810e-01,9.99999e-01,9.99999e-01,9.99999e-01,5.60810e-01,9.99999e-01
6.329037559e-01,5.67253e-01,9.99999e-01,9.99999e-01,9.99999e-01,5.67253e-01,9.99999e-01
6.360682746e-01,5.73642e-01,9.99999e-01,9.99999e-01,9.99999e-01,5.73642e-01,9.99999e-01
6.392486160e-01,5.79973e-01,9.99999e-01,9.99999e-01,9.99999e-01,5.79973e-01,9.99999e-01
6.424448591e-01,5.86248e-01,9.99999e-01,9.99999e-01,9.99999e-01,5.86248e-01,9.99999e-01
6.456570834e-01,5.92464e-01,9.99999e-01,9.99999e-01,9.99999e-01,5.92464e-01,9.99999e-01
6.488853688e-01,5.98622e-01,9.99999e-01,9.99999e-01,9.99999e-01,5.98622e-01,9.99999e-01
6.521297956e-01,6.04720e-01,9.99999e-01,9.99999e-01,9.99999e-01,6.04720e-01,9.99999e-01
6.553904446e-01,6.10758e-01,9.99999e-01,9.99999e-01,9.99999e-01,6.10758e-01,9.99999e-01
6.586673968e-01,6.16736e-01,9.99999e-01,9.99999e-01,9.99999e-01,6.16736e-01,9.99999e-01
6.619607338e-01,6.22651e-01,9.99999e-01,9.99999e-01,9.99999e-01,6.22651e-01,9.99999e-01
6.652705375e-01,6.28506e-01,9.99999e-01,9.99999e-01,9.99999e-01,6.28506e-01,9.99999e-01
6.685968902e-01,6.34298e-01,9.99999e-01,9.99999e-01,9.99999e-01,6.34298e-01,9.99999e-01
6.719398746e-01,6.40027e-01,9.99999e-01,9.99999e-01,9.99999e-01,6.40027e-01,9.99999e-01
6.752995740e-01,6.45693e-01,9.99999e-01,9.99999e-01,9.99999e-01,6.45693e-01,9.99999e-01
6.786760719e-01,6.51297e-01,9.99999e-01,9.99999e-01,9.99999e-01,6.51297e-01,9.99999e-01
6.820694522e-01,6.56836e-01,9.99999e-01,9.99999e-01,9.99999e-01,6.56836e-01,9.99999e-01
6.854797995e-01,6.62312e-01,9.99999e-01,9.99999e-01,9.99999e-01,6.62312e-01,9.99999e-01
6.889071985e-01,6.67724e-01,9.99999e-01,9.99999e-01,9.99999e-01,6.67724e-01,9.99999e-01
6.923517345e-01,6.73072e-01,9.99999e-01,9.99999e-01,9.99999e-01,6.73072e-01,9.99999e-01
6.958134932e-01,6.78357e-01,9.99999e-01,9.99999e-01,9.99999e-01,6.78357e-01,9.99999e-01
6.992925606e-01,6.83577e-01,9.99999e-01,9.99999e-01,9.99999e-01,6.83577e-01,9.99999e-01
7.027890234e-01,6.88732e-01,9.99999e-01,9.99999e-01,9.99999e-01,6.88732e-01,9.99999e-01
7.063029686e-01,6.93824e-01,9.99999e-01,9.99999e-01,9.99999e-01,6.93824e-01,9.99999e-01
7.098344834e-01,6.98852e-01,9.99999e-01,9.99999e-01,9.99999e-01,6.98852e-01,9.99999e-01
7.133836558e-01,7.03816e-01,9.99999e-01,9.99999e-01,9.99999e-01,7.03816e-01,9.99999e-01
7.169505741e-01,7.08715e-01,9.99999e-01,9.99999e-01,9.99999e-01,7.08715e-01,9.99999e-01
7.205353270e-01,7.13552e-01,9.99999e-01,9.99999e-01,9.99999e-01,7.13552e-01,9.99999e-01
7.241380036e-01,7.18324e-01,9.99999e-01,9.99999e-01,9.99999e-01,7.18324e-01,9.99999e-01
7.277586936e-01,7.23034e-01,9.99999e-01,9.99999e-01,9.99999e-01,7.23034e-01,9.99999e-01
7.313974871e-01,7.27680e-01,9.99999e-01,9.99999e-01,9.99999e-01,7.27680e-01,9.99999e-01
7.350544745e-01,7.32264e-01,9.99999e-01,9.99999e-01,9.99999e-01,7.32264e-01,9.99999e-01
7.387297469e-01,7.36785e-01,9.99999e-01,9.99999e-01,9.99999e-01,7.36785e-01,9.99999e-01
7.424233956e-01,7.41244e-01,9.99999e-01,9.99999e-01,9.99999e-01,7.41244e-01,9.99999e-01
7.461355126e-01,7.45641e-01,9.99999e-01,9.99999e-01,9.99999e-01,7.45641e-01,9.99999e-01
7.498661902e-01,7.49976e-01,9.99999e-01,9.99999e-01,9.99999e-01,7.49976e-01,9.99999e-01
7.536155211e-01,7.54251e-01,9.99999e-01,9.99999e-01,9.99999e-01,7.54251e-01,9.99999e-01
7.573835987e-01,7.58464e-01,9.99999e-01,9.99999e-01,9.99999e-01,7.58464e-01,9.99999e-01
7.611705167e-01,7.62617e-01,9.99999e-01,9.99999e-01,9.99999e-01,7.62617e-01,9.99999e-01
7.649763693e-01,7.66710e-01,9.99999e-01,9.99999e-01,9.99999e-01,7.66710e-01,9.99999e-01
7.688012511e-01,7.70744e-01,9.99999e-01,9.99999e-01,9.99999e-01,7.70744e-01,9.99999e-01
7.726452574e-01,7.74719e-01,9.99999e-01,9.99999e-01,9.99999e-01,7.74719e-01,9.99999e-01
7.765084837e-01,7.78634e-01,9.99999e-01,9.99999e-01,9.99999e-01,7.78634e-01,9.99999e-01
7.803910261e-01,7.72845e-01,9.99999e-01,9.99999e-01,9.87671e-01,7.82492e-01,9.99999e-01
7.842929812e-01,7.46436e-01,9.99999e-01,9.99999e-01,9.49310e-01,7.86292e-01,9.99999e-01
7.882144461e-01,7.46986e-01,9.99999e-01,9.99999e-01,9.45509e-01,7.90035e-01,9.99999e-01
7.921555184e-01,7.68712e-01,9.99999e-01,9.99999e-01,9.68490e-01,7.93722e-01,9.99999e-01
7.961162960e-01,7.80535e-01,9.99999e-01,9.99999e-01,9.78908e-01,7.97352e-01,9.99999e-01
8.000968774e-01,7.91729e-01,9.99999e-01,9.99999e-01,9.88516e-01,8.00927e-01,9.99999e-01
8.040973618e-01,7.99656e-01,9.99999e-01,9.99999e-01,9.94044e-01,8.04446e-01,9.99999e-01
8.081178486e-01,8.05699e-01,9.99999e-01,9.99999e-01,9.97260e-01,8.07911e-01,9.99999e-01
8.121584379e-01,8.10637e-01,9.99999e-01,9.99999e-01,9.99154e-01,8.11322e-01,9.99999e-01
8.162192301e-01,8.14528e-01,9.99999e-01,9.99999e-01,9.99813e-01,8.14680e-01,9.99999e-01
8.203003262e-01,8.17983e-01,9.99999e-01,9.99999e-01,9.99996e-01,8.17985e-01,9.99999e-01
8.244018279e-01,8.21237e-01,9.99999e-01,9.99999e-01,9.99999e-01,8.21237e-01,9.99999e-01
8.285238370e-01,8.24438e-01,9.99999e-01,9.99999e-01,9.99999e-01,8.24438e-01,9.99999e-01
8.326664562e-01,8.27588e-01,9.99999e-01,9.99999e-01,9.99999e-01,8.27588e-01,9.99999e-01
8.368297885e-01,8.30687e-01,9.99999e-01,9.99999e-01,9.99999e-01,8.30687e-01,9.99999e-01
8.410139374e-01,8.33737e-01,9.99999e-01,9.99999e-01,9.99999e-01,8.33737e-01,9.99999e-01
8.452190071e-01,8.36737e-01,9.99999e-01,9.99999e-01,9.99999e-01,8.36737e-01,9.99999e-01
8.494451021e-01,8.39688e-01,9.99999e-01,9.99999e-01,9.99999e-01,8.39688e-01,9.99999e-01
8.536923276e-01,8.42591e-01,9.99999e-01,9.99999e-01,9.99999e-01,8.42591e-01,9.99999e-01
8.579607893e-01,8.45446e-01,9.99999e-01,9.99999e-01,9.99999e-01,8.45446e-01,9.99999e-01
8.622505932e-01,8.48255e-01,9.99999e-01,9.99999e-01,9.99999e-01,8.48255e-01,9.99999e-01
8.665618462e-01,8.21439e-01,9.99999e-01,9.99999e-01,9.65244e-01,8.51016e-01,9.99999e-01
8.708946554e-01,7.45895e-01,9.99999e-01,9.99999e-01,8.73686e-01,8.53733e-01,9.99999e-01
8.752491287e-01,7.69653e-01,9.99999e-01,9.99999e-01,8.98703e-01,8.56403e-01,9.99999e-01
8.796253743e-01,8.10770e-01,9.99999e-01,9.99999e-01,9.43820e-01,8.59030e-01,9.99999e-01
8.840235012e-01,8.36331e-01,9.99999e-01,9.99999e-01,9.70658e-01,8.61612e-01,9.99999e-01
8.884436187e-01,8.54100e-01,9.99999e-01,9.99999e-01,9.88368e-01,8.64151e-01,9.99999e-01
8.928858368e-01,8.62553e-01,9.99999e-01,9.99999e-01,9.95275e-01,8.66646e-01,9.99999e-01
8.973502660e-01,8.68103e-01,9.99999e-01,9.99999e-01,9.98852e-01,8.69100e-01,9.99999e-01
9.018370173e-01,8.71402e-01,9.99999e-01,9.99999e-01,9.99873e-01,8.71512e-01,9.99999e-01
9.063462024e-01,8.71013e-01,9.99999e-01,9.99999e-01,9.96716e-01,8.73882e-01,9.99999e-01
9.108779334e-01,8.69682e-01,9.99999e-01,9.99999e-01,9.92546e-01,8.76212e-01,9.99999e-01
9.154323231e-01,8.76966e-01,9.99999e-01,9.99999e-01,9.98250e-01,8.78502e-01,9.99999e-01
9.200094847e-01,8.57473e-01,9.99999e-01,9.99999e-01,9.73567e-01,8.80753e-01,9.99999e-01
9.246095321e-01,8.51144e-01,9.99999e-01,9.99999e-01,9.63961e-01,8.82965e-01,9.99999e-01
9.292325798e-01,8.59831e-01,9.99999e-01,9.99999e-01,9.71408e-01,8.85138e-01,9.99999e-01
9.338787427e-01,8.62889e-01,9.99999e-01,9.99999e-01,9.72516e-01,8.87274e-01,9.99999e-01
9.385481364e-01,8.71400e-01,9.99999e-01,9.99999e-01,9.79790e-01,8.89373e-01,9.99999e-01
9.432408771e-01,8.80391e-01,9.99999e-01,9.99999e-01,9.87610e-01,8.91435e-01,9.99999e-01
9.479570815e-01,8.87765e-01,9.99999e-01,9.99999e-01,9.93624e-01,8.93461e-01,9.99999e-01
9.526968669e-01,8.92695e-01,9.99999e-01,9.99999e-01,9.96921e-01,8.95451e-01,9.99999e-01
9.574603512e-01,8.96225e-01,9.99999e-01,9.99999e-01,9.98683e-01,8.97406e-01,9.99999e-01
9.622476530e-01,8.98958e-01,9.99999e-01,9.99999e-01,9.99589e-01,8.99327e-01,9.99999e-01
9.670588912e-01,9.01103e-01,9.99999e-01,9.99999e-01,9.99876e-01,9.01214e-01,9.99999e-01
9.718941857e-01,9.03059e-01,9.99999e-01,9.99999e-01,9.99990e-01,9.03067e-01,9.99999e-01
9.767536566e-01,9.04888e-01,9.99999e-01,9.99999e-01,9.99999e-01,9.04888e-01,9.99999e-01
9.816374249e-01,9.06676e-01,9.99999e-01,9.99999e-01,9.99999e-01,9.06676e-01,9.99999e-01
9.865456120e-01,9.08432e-01,9.99999e-01,9.99999e-01,9.99999e-01,9.08432e-01,9.99999e-01
9.914783401e-01,9.10157e-01,9.99999e-01,9.99999e-01,9.99999e-01,9.10157e-01,9.99999e-01
9.964357318e-01,9.11851e-01,9.99999e-01,9.99999e-01,9.99999e-01,9.11851e-01,9.99999e-01
1.001417910e+00,9.13515e-01,9.99999e-01,9.99999e-01,9.99999e-01,9.13515e-01,9.99999e-01
1.006425000e+00,9.15148e-01,9.99999e-01,9.99999e-01,9.99999e-01,9.15148e-01,9.99999e-01
1.011457125e+00,9.16752e-01,9.99999e-01,9.99999e-01,9.99999e-01,9.16752e-01,9.99999e-01
1.016514411e+00,9.18328e-01,9.99999e-01,9.99999e-01,9.99999e-01,9.18328e-01,9.99999e-01
1.021596983e+00,9.19858e-01,9.99999e-01,9.99999e-01,9.99981e-01,9.19874e-01,9.99999e-01
1.026704968e+00,9.20218e-01,9.99999e-01,9.99999e-01,9.98723e-01,9.21393e-01,9.99999e-01
1.031838492e+00,9.03497e-01,9.99999e-01,9.99999e-01,9.78991e-01,9.22884e-01,9.99999e-01
1.036997685e+00,3.47099e-01,9.99999e-01,9.99999e-01,3.75506e-01,9.24348e-01,9.99999e-01
1.042182673e+00,4.33032e-01,9.99999e-01,9.99999e-01,4.67745e-01,9.25786e-01,9.99999e-01
1.047393587e+00,3.81367e-01,9.99999e-01,9.99999e-01,4.11311e-01,9.27197e-01,9.99999e-01
1.052630555e+00,9.78326e-02,9.99999e-01,9.99999e-01,1.05357e-01,9.28582e-01,9.99999e-01
1.057893707e+00,1.64316e-01,9.99999e-01,9.99999e-01,1.76695e-01,9.29942e-01,9.99999e-01
1.063183176e+00,2.67546e-01,9.99999e-01,9.99999e-01,2.87289e-01,9.31277e-01,9.99999e-01
1.068499092e+00,4.10578e-01,9.99999e-01,9.99999e-01,4.40256e-01,9.32588e-01,9.99999e-01
1.073841587e+00,5.57016e-01,9.99999e-01,9.99999e-01,5.96457e-01,9.33875e-01,9.99999e-01
1.079210795e+00,6.75566e-01,9.99999e-01,9.99999e-01,7.22424e-01,9.35137e-01,9.99999e-01
1.084606849e+00,7.84542e-01,9.99999e-01,9.99999e-01,8.37847e-01,9.36377e-01,9.99999e-01
1.090029883e+00,8.55600e-01,9.99999e-01,9.99999e-01,9.12548e-01,9.37594e-01,9.99999e-01
1.095480033e+00,8.97464e-01,9.99999e-01,9.99999e-01,9.55980e-01,9.38788e-01,9.99999e-01
1.100957433e+00,9.19830e-01,9.99999e-01,9.99999e-01,9.78584e-01,9.39960e-01,9.99999e-01
1.106462220e+00,9.32731e-01,9.99999e-01,9.99999e-01,9.91095e-01,9.41110e-01,9.99999e-01
1.111994531e+00,9.39122e-01,9.99999e-01,9.99999e-01,9.96691e-01,9.42239e-01,9.99999e-01
1.117554504e+00,9.42585e-01,9.99999e-01,9.99999e-01,9.99192e-01,9.43347e-01,9.99999e-01
1.123142276e+00,9.44384e-01,9.99999e-01,9.99999e-01,9.99946e-01,9.44434e-01,9.99999e-01
1.128757988e+00,9.45501e-01,9.99999e-01,9.99999e-01,9.99999e-01,9.45501e-01,9.99999e-01
1.134401778e+00,9.46548e-01,9.99999e-01,9.99999e-01,9.99999e-01,9.46548e-01,9.99999e-01
1.140073787e+00,9.47576e-01,9.99999e-01,9.99999e-01,9.99999e-01,9.47576e-01,9.99999e-01
1.145774156e+00,9.48584e-01,9.99999e-01,9.99999e-01,9.99999e-01,9.48584e-01,9.99999e-01
1.151503026e+00,9.49574e-01,9.99999e-01,9.99999e-01,9.99999e-01,9.49574e-01,9.99999e-01
1.157260541e+00,9.50545e-01,9.99999e-01,9.99999e-01,9.99999e-01,9.50545e-01,9.99999e-01
1.163046844e+00,9.51498e-01,9.99999e-01,9.99999e-01,9.99999e-01,9.51498e-01,9.99999e-01
1.168862078e+00,9.52433e-01,9.99999e-01,9.99999e-01,9.99999e-01,9.52433e-01,9.99999e-01
1.174706389e+00,9.53350e-01,9.99999e-01,9.99999e-01,9.99999e-01,9.53350e-01,9.99999e-01
1.180579921e+00,9.54250e-01,9.99999e-01,9.99999e-01,9.99999e-01,9.54250e-01,9.99999e-01
1.186482820e+00,9.55131e-01,9.99999e-01,9.99999e-01,9.99997e-01,9.55133e-01,9.99999e-01
1.192415234e+00,9.51600e-01,9.99999e-01,9.99999e-01,9.95398e-01,9.55999e-01,9.99999e-01
1.198377311e+00,5.80522e-01,9.99999e-01,9.99999e-01,6.06701e-01,9.56849e-01,9.99999e-01
1.204369197e+00,2.87996e-05,9.99999e-01,9.99999e-01,3.00722e-05,9.57683e-01,9.99999e-01
1.210391043e+00,2.91681e-15,9.99999e-01,9.99999e-01,3.04309e-15,9.58502e-01,9.99999e-01
1.216442998e+00,1.91611e-13,9.99999e-01,9.99999e-01,1.99739e-13,9.59304e-01,9.99999e-01
1.222525213e+00,3.24980e-13,9.99999e-01,9.99999e-01,3.38488e-13,9.60092e-01,9.99999e-01
1.228637839e+00,4.17706e-10,9.99999e-01,9.99999e-01,4.34719e-10,9.60865e-01,9.99999e-01
