#,Wave/freq,Total,N2,O2,CO2,Rayleigh,CIA
4.000000000e-01,2.16992e-09,9.99999e-01,9.99999e-01,9.99999e-01,2.16992e-09,9.99999e-01
4.020000000e-01,3.21916e-09,9.99999e-01,9.99999e-01,9.99999e-01,3.21916e-09,9.99999e-01
4.040100000e-01,4.73680e-09,9.99999e-01,9.99999e-01,9.99999e-01,4.73680e-09,9.99999e-01
4.060300500e-01,6.91696e-09,9.99999e-01,9.99999e-01,9.99999e-01,6.91696e-09,9.99999e-01
4.080602003e-01,1.00253e-08,9.99999e-01,9.99999e-01,9.99999e-01,1.00253e-08,9.99999e-01
4.101005013e-01,1.44243e-08,9.99999e-01,9.99999e-01,9.99999e-01,1.44243e-08,9.99999e-01
4.121510038e-01,2.06050e-08,9.99999e-01,9.99999e-01,9.99999e-01,2.06050e-08,9.99999e-01
4.142117588e-01,2.92274e-08,9.99999e-01,9.99999e-01,9.99999e-01,2.92274e-08,9.99999e-01
4.162828176e-01,4.11727e-08,9.99999e-01,9.99999e-01,9.99999e-01,4.11727e-08,9.99999e-01
4.183642317e-01,5.76089e-08,9.99999e-01,9.99999e-01,9.99999e-01,5.76089e-08,9.99999e-01
4.204560528e-01,8.00733e-08,9.99999e-01,9.99999e-01,9.99999e-01,8.00733e-08,9.99999e-01
4.225583331e-01,1.10576e-07,9.99999e-01,9.99999e-01,9.99999e-01,1.10576e-07,9.99999e-01
4.246711247e-01,1.51728e-07,9.99999e-01,9.99999e-01,9.99999e-01,1.51728e-07,9.99999e-01
4.267944804e-01,2.06898e-07,9.99999e-01,9.99999e-01,9.99999e-01,2.06898e-07,9.99999e-01
4.289284528e-01,2.80406e-07,9.99999e-01,9.99999e-01,9.99999e-01,2.80406e-07,9.99999e-01
4.310730950e-01,3.77755e-07,9.99999e-01,9.99999e-01,9.99999e-01,3.77755e-07,9.99999e-01
4.332284605e-01,5.05913e-07,9.99999e-01,9.99999e-01,9.99999e-01,5.05913e-07,9.99999e-01
4.353946028e-01,6.73653e-07,9.99999e-01,9.99999e-01,9.99999e-01,6.73653e-07,9.99999e-01
4.375715758e-01,8.91949e-07,9.99999e-01,9.99999e-01,9.99999e-01,8.91949e-07,9.99999e-01
4.397594337e-01,1.17445e-06,9.99999e-01,9.99999e-01,9.99999e-01,1.17445e-06,9.99999e-01
4.419582309e-01,1.53805e-06,9.99999e-01,9.99999e-01,9.99999e-01,1.53805e-06,9.99999e-01
4.441680220e-01,2.00352e-06,9.99999e-01,9.99999e-01,9.99999e-01,2.00352e-06,9.99999e-01
4.463888621e-01,2.59625e-06,9.99999e-01,9.99999e-01,9.99999e-01,2.59625e-06,9.99999e-01
4.486208064e-01,3.34716e-06,9.99999e-01,9.99999e-01,9.99999e-01,3.34716e-06,9.99999e-01
4.508639105e-01,4.29366e-06,9.99999e-01,9.99999e-01,9.99999e-01,4.29366e-06,9.99999e-01
4.531182300e-01,5.48079e-06,9.99999e-01,9.99999e-01,9.99999e-01,5.48079e-06,9.99999e-01
4.553838212e-01,6.96248e-06,9.99999e-01,9.99999e-01,9.99999e-01,6.96248e-06,9.99999e-01
4.576607403e-01,8.80303e-06,9.99999e-01,9.99999e-01,9.99999e-01,8.80303e-06,9.99999e-01
4.599490440e-01,1.10787e-05,9.99999e-01,9.99999e-01,9.99999e-01,1.10787e-05,9.99999e-01
4.622487892e-01,1.38794e-05,9.99999e-01,9.99999e-01,9.99999e-01,1.38794e-05,9.99999e-01
4.645600332e-01,1.73110e-05,9.99999e-01,9.99999e-01,9.99999e-01,1.73110e-05,9.99999e-01
4.668828333e-01,2.14970e-05,9.99999e-01,9.99999e-01,9.99999e-01,2.14970e-05,9.99999e-01
4.692172475e-01,2.65812e-05,9.99999e-01,9.99999e-01,9.99999e-01,2.65812e-05,9.99999e-01
4.715633337e-01,3.27303e-05,9.99999e-01,9.99999e-01,9.99999e-01,3.27303e-05,9.99999e-01
4.739211504e-01,4.01366e-05,9.99999e-01,9.99999e-01,9.99999e-01,4.01366e-05,9.99999e-01
4.762907561e-01,4.90210e-05,9.99999e-01,9.99999e-01,9.99999e-01,4.90210e-05,9.99999e-01
4.786722099e-01,5.96359e-05,9.99999e-01,9.99999e-01,9.99999e-01,5.96359e-05,9.99999e-01
4.810655710e-01,7.22689e-05,9.99999e-01,9.99999e-01,9.99999e-01,7.22689e-05,9.99999e-01
4.834708988e-01,8.72464e-05,9.99999e-01,9.99999e-01,9.99999e-01,8.72464e-05,9.99999e-01
4.858882533e-01,1.04937e-04,9.99999e-01,9.99999e-01,9.99999e-01,1.04937e-04,9.99999e-01
4.883176946e-01,1.25755e-04,9.99999e-01,9.99999e-01,9.99999e-01,1.25755e-04,9.99999e-01
4.907592831e-01,1.50165e-04,9.99999e-01,9.99999e-01,9.99999e-01,1.50165e-04,9.99999e-01
4.932130795e-01,1.78686e-04,9.99999e-01,9.99999e-01,9.99999e-01,1.78686e-04,9.99999e-01
4.956791449e-01,2.11895e-04,9.99999e-01,9.99999e-01,9.99999e-01,2.11895e-04,9.99999e-01
4.981575406e-01,2.50432e-04,9.99999e-01,9.99999e-01,9.99999e-01,2.50432e-04,9.99999e-01
5.006483283e-01,2.95001e-04,9.99999e-01,9.99999e-01,9.99999e-01,2.95001e-04,9.99999e-01
5.031515699e-01,3.46381e-04,9.99999e-01,9.99999e-01,9.99999e-01,3.46381e-04,9.99999e-01
5.056673278e-01,4.05421e-04,9.99999e-01,9.99999e-01,9.99999e-01,4.05421e-04,9.99999e-01
5.081956644e-01,4.73052e-04,9.99999e-01,9.99999e-01,9.99999e-01,4.73052e-04,9.99999e-01
5.107366428e-01,5.50285e-04,9.99999e-01,9.99999e-01,9.99999e-01,5.50285e-04,9.99999e-01
5.132903260e-01,6.38218e-04,9.99999e-01,9.99999e-01,9.99999e-01,6.38218e-04,9.99999e-01
5.158567776e-01,7.38038e-04,9.99999e-01,9.99999e-01,9.99999e-01,7.38038e-04,9.99999e-01
5.184360615e-01,8.51024e-04,9.99999e-01,9.99999e-01,9.99999e-01,8.51024e-04,9.99999e-01
5.210282418e-01,9.78550e-04,9.99999e-01,9.99999e-01,9.99999e-01,9.78550e-04,9.99999e-01
5.236333830e-01,1.12209e-03,9.99999e-01,9.99999e-01,9.99999e-01,1.12209e-03,9.99999e-01
5.262515499e-01,1.28320e-03,9.99999e-01,9.99999e-01,9.99999e-01,1.28320e-03,9.99999e-01
5.288828077e-01,1.46357e-03,9.99999e-01,9.99999e-01,9.99999e-01,1.46357e-03,9.99999e-01
5.315272217e-01,1.66496e-03,9.99999e-01,9.99999e-01,9.99999e-01,1.66496e-03,9.99999e-01
5.341848578e-01,1.88925e-03,9.99999e-01,9.99999e-01,9.99999e-01,1.88925e-03,9.99999e-01
5.368557821e-01,2.13840e-03,9.99999e-01,9.99999e-01,9.99999e-01,2.13840e-03,9.99999e-01
5.395400610e-01,2.41449e-03,9.99999e-01,9.99999e-01,9.99999e-01,2.41449e-03,9.99999e-01
5.422377613e-01,2.71970e-03,9.99999e-01,9.99999e-01,9.99999e-01,2.71970e-03,9.99999e-01
5.449489501e-01,3.05630e-03,9.99999e-01,9.99999e-01,9.99999e-01,3.05630e-03,9.99999e-01
5.476736949e-01,3.42665e-03,9.99999e-01,9.99999e-01,9.99999e-01,3.42665e-03,9.99999e-01
5.504120634e-01,3.83320e-03,9.99999e-01,9.99999e-01,9.99999e-01,3.83320e-03,9.99999e-01
5.531641237e-01,4.27851e-03,9.99999e-01,9.99999e-01,9.99999e-01,4.27851e-03,9.99999e-01
5.559299443e-01,4.76519e-03,9.99999e-01,9.99999e-01,9.99999e-01,4.76519e-03,9.99999e-01
5.587095940e-01,5.29595e-03,9.99999e-01,9.99999e-01,9.99999e-01,5.29595e-03,9.99999e-01
5.615031420e-01,5.87357e-03,9.99999e-01,9.99999e-01,9.99999e-01,5.87357e-03,9.99999e-01
5.643106577e-01,6.50087e-03,9.99999e-01,9.99999e-01,9.99999e-01,6.50087e-03,9.99999e-01
5.671322110e-01,7.18077e-03,9.99999e-01,9.99999e-01,9.99999e-01,7.18077e-03,9.99999e-01
5.699678720e-01,7.91620e-03,9.99999e-01,9.99999e-01,9.99999e-01,7.91620e-03,9.99999e-01
5.728177114e-01,8.71016e-03,9.99999e-01,9.99999e-01,9.99999e-01,8.71016e-03,9.99999e-01
5.756818000e-01,9.56568e-03,9.99999e-01,9.99999e-01,9.99999e-01,9.56568e-03,9.99999e-01
5.785602090e-01,1.04858e-02,9.99999e-01,9.99999e-01,9.99999e-01,1.04858e-02,9.99999e-01
5.814530100e-01,1.14736e-02,9.99999e-01,9.99999e-01,9.99999e-01,1.14736e-02,9.99999e-01
5.843602750e-01,1.25321e-02,9.99999e-01,9.99999e-01,9.99999e-01,1.25321e-02,9.99999e-01
5.872820764e-01,1.36645e-02,9.99999e-01,9.99999e-01,9.99999e-01,1.36645e-02,9.99999e-01
5.902184868e-01,1.48738e-02,9.99999e-01,9.99999e-01,9.99999e-01,1.48738e-02,9.99999e-01
5.931695792e-01,1.61629e-02,9.99999e-01,9.99999e-01,9.99999e-01,1.61629e-02,9.99999e-01
5.961354271e-01,1.75350e-02,9.99999e-01,9.99999e-01,9.99999e-01,1.75350e-02,9.99999e-01
5.991161043e-01,1.89930e-02,9.99999e-01,9.99999e-01,9.99999e-01,1.89930e-02,9.99999e-01
6.021116848e-01,2.05398e-02,9.99999e-01,9.99999e-01,9.99999e-01,2.05398e-02,9.99999e-01
6.051222432e-01,2.21782e-02,9.99999e-01,9.99999e-01,9.99999e-01,2.21782e-02,9.99999e-01
6.081478544e-01,2.39110e-02,9.99999e-01,9.99999e-01,9.99999e-01,2.39110e-02,9.99999e-01
6.111885937e-01,2.57409e-02,9.99999e-01,9.99999e-01,9.99999e-01,2.57409e-02,9.99999e-01
6.142445367e-01,2.76706e-02,9.99999e-01,9.99999e-01,9.99999e-01,2.76706e-02,9.99999e-01
6.173157594e-01,2.97025e-02,9.99999e-01,9.99999e-01,9.99999e-01,2.97025e-02,9.99999e-01
6.204023382e-01,3.18389e-02,9.99999e-01,9.99999e-01,9.99999e-01,3.18389e-02,9.99999e-01
6.235043498e-01,3.40823e-02,9.99999e-01,9.99999e-01,9.99999e-01,3.40823e-02,9.99999e-01
6.266218716e-01,3.64347e-02,9.99999e-01,9.99999e-01,9.99999e-01,3.64347e-02,9.99999e-01
6.297549810e-01,3.88981e-02,9.99999e-01,9.99999e-01,9.99999e-01,3.88981e-02,9.99999e-01
6.329037559e-01,4.14745e-02,9.99999e-01,9.99999e-01,9.99999e-01,4.14745e-02,9.99999e-01
6.360682746e-01,4.41655e-02,9.99999e-01,9.99999e-01,9.99999e-01,4.41655e-02,9.99999e-01
6.392486160e-01,4.69728e-02,9.99999e-01,9.99999e-01,9.99999e-01,4.69728e-02,9.99999e-01
6.424448591e-01,4.98977e-02,9.99999e-01,9.99999e-01,9.99999e-01,4.98977e-02,9.99999e-01
6.456570834e-01,5.29416e-02,9.99999e-01,9.99999e-01,9.99999e-01,5.29416e-02,9.99999e-01
6.488853688e-01,5.61054e-02,9.99999e-01,9.99999e-01,9.99999e-01,5.61054e-02,9.99999e-01
6.521297956e-01,5.93903e-02,9.99999e-01,9.99999e-01,9.99999e-01,5.93903e-02,9.99999e-01
6.553904446e-01,6.27968e-02,9.99999e-01,9.99999e-01,9.99999e-01,6.27968e-02,9.99999e-01
6.586673968e-01,6.63256e-02,9.99999e-01,9.99999e-01,9.99999e-01,6.63256e-02,9.99999e-01
6.619607338e-01,6.99771e-02,9.99999e-01,9.99999e-01,9.99999e-01,6.99771e-02,9.99999e-01
6.652705375e-01,7.37515e-02,9.99999e-01,9.99999e-01,9.99999e-01,7.37515e-02,9.99999e-01
6.685968902e-01,7.76489e-02,9.99999e-01,9.99999e-01,9.99999e-01,7.76489e-02,9.99999e-01
6.719398746e-01,8.16691e-02,9.99999e-01,9.99999e-01,9.99999e-01,8.16691e-02,9.99999e-01
6.752995740e-01,8.58118e-02,9.99999e-01,9.99999e-01,9.99999e-01,8.58118e-02,9.99999e-01
6.786760719e-01,9.00767e-02,9.99999e-01,9.99999e-01,9.99999e-01,9.00767e-02,9.99999e-01
6.820694522e-01,9.44629e-02,9.99999e-01,9.99999e-01,9.99999e-01,9.44629e-02,9.99999e-01
6.854797995e-01,9.89697e-02,9.99999e-01,9.99999e-01,9.99999e-01,9.89697e-02,9.99999e-01
6.889071985e-01,1.03596e-01,9.99999e-01,9.99999e-01,9.99999e-01,1.03596e-01,9.99999e-01
6.923517345e-01,1.08341e-01,9.99999e-01,9.99999e-01,9.99999e-01,1.08341e-01,9.99999e-01
6.958134932e-01,1.13203e-01,9.99999e-01,9.99999e-01,9.99999e-01,1.13203e-01,9.99999e-01
6.992925606e-01,1.18181e-01,9.99999e-01,9.99999e-01,9.99999e-01,1.18181e-01,9.99999e-01
7.027890234e-01,1.23273e-01,9.99999e-01,9.99999e-01,9.99999e-01,1.23273e-01,9.99999e-01
7.063029686e-01,1.28477e-01,9.99999e-01,9.99999e-01,9.99999e-01,1.28477e-01,9.99999e-01
7.098344834e-01,1.33791e-01,9.99999e-01,9.99999e-01,9.99999e-01,1.33791e-01,9.99999e-01
7.133836558e-01,1.39214e-01,9.99999e-01,9.99999e-01,9.99999e-01,1.39214e-01,9.99999e-01
7.169505741e-01,1.44743e-01,9.99999e-01,9.99999e-01,9.99999e-01,1.44743e-01,9.99999e-01
7.205353270e-01,1.50375e-01,9.99999e-01,9.99999e-01,9.99999e-01,1.50375e-01,9.99999e-01
7.241380036e-01,1.56110e-01,9.99999e-01,9.99999e-01,9.99999e-01,1.56110e-01,9.99999e-01
7.277586936e-01,1.61943e-01,9.99999e-01,9.99999e-01,9.99999e-01,1.61943e-01,9.99999e-01
7.313974871e-01,1.67872e-01,9.99999e-01,9.99999e-01,9.99999e-01,1.67872e-01,9.99999e-01
7.350544745e-01,1.73895e-01,9.99999e-01,9.99999e-01,9.99999e-01,1.73895e-01,9.99999e-01
7.387297469e-01,1.80009e-01,9.99999e-01,9.99999e-01,9.99999e-01,1.80009e-01,9.99999e-01
7.424233956e-01,1.86210e-01,9.99999e-01,9.99999e-01,9.99999e-01,1.86210e-01,9.99999e-01
7.461355126e-01,1.92496e-01,9.99999e-01,9.99999e-01,9.99999e-01,1.92496e-01,9.99999e-01
7.498661902e-01,1.98864e-01,9.99999e-01,9.99999e-01,9.99999e-01,1.98864e-01,9.99999e-01
7.536155211e-01,2.05311e-01,9.99999e-01,9.99999e-01,9.99999e-01,2.05311e-01,9.99999e-01
7.573835987e-01,2.11833e-01,9.99999e-01,9.99999e-01,9.99999e-01,2.11833e-01,9.99999e-01
7.611705167e-01,2.18427e-01,9.99999e-01,9.99999e-01,9.99999e-01,2.18427e-01,9.99999e-01
7.649763693e-01,2.25090e-01,9.99999e-01,9.99999e-01,9.99999e-01,2.25090e-01,9.99999e-01
7.688012511e-01,2.31819e-01,9.99999e-01,9.99999e-01,9.99999e-01,2.31819e-01,9.99999e-01
7.726452574e-01,2.38611e-01,9.99999e-01,9.99999e-01,9.99999e-01,2.38611e-01,9.99999e-01
7.765084837e-01,2.45461e-01,9.99999e-01,9.99999e-01,9.99999e-01,2.45461e-01,9.99999e-01
7.803910261e-01,2.37054e-01,9.99999e-01,9.99999e-01,9.39323e-01,2.52366e-01,9.99999e-01
7.842929812e-01,1.96530e-01,9.99999e-01,9.99999e-01,7.57854e-01,2.59324e-01,9.99999e-01
7.882144461e-01,1.97884e-01,9.99999e-01,9.99999e-01,7.43000e-01,2.66330e-01,9.99999e-01
7.921555184e-01,2.28904e-01,9.99999e-01,9.99999e-01,8.37302e-01,2.73382e-01,9.99999e-01
7.961162960e-01,2.49120e-01,9.99999e-01,9.99999e-01,8.88203e-01,2.80476e-01,9.99999e-01
8.000968774e-01,2.69663e-01,9.99999e-01,9.99999e-01,9.37605e-01,2.87608e-01,9.99999e-01
8.040973618e-01,2.85131e-01,9.99999e-01,9.99999e-01,9.67284e-01,2.94775e-01,9.99999e-01
8.081178486e-01,2.97379e-01,9.99999e-01,9.99999e-01,9.84782e-01,3.01974e-01,9.99999e-01
8.121584379e-01,3.07756e-01,9.99999e-01,9.99999e-01,9.95324e-01,3.09201e-01,9.99999e-01
8.162192301e-01,3.16126e-01,9.99999e-01,9.99999e-01,9.98965e-01,3.16454e-01,9.99999e-01
8.203003262e-01,3.23724e-01,9.99999e-01,9.99999e-01,9.99985e-01,3.23728e-01,9.99999e-01
8.244018279e-01,3.31021e-01,9.99999e-01,9.99999e-01,9.99999e-01,3.31021e-01,9.99999e-01
8.285238370e-01,3.38329e-01,9.99999e-01,9.99999e-01,9.99999e-01,3.38329e-01,9.99999e-01
8.326664562e-01,3.45650e-01,9.99999e-01,9.99999e-01,9.99999e-01,3.45650e-01,9.99999e-01
8.368297885e-01,3.52979e-01,9.99999e-01,9.99999e-01,9.99999e-01,3.52979e-01,9.99999e-01
8.410139374e-01,3.60315e-01,9.99999e-01,9.99999e-01,9.99999e-01,3.60315e-01,9.99999e-01
8.452190071e-01,3.67654e-01,9.99999e-01,9.99999e-01,9.99999e-01,3.67654e-01,9.99999e-01
8.494451021e-01,3.74993e-01,9.99999e-01,9.99999e-01,9.99999e-01,3.74993e-01,9.99999e-01
8.536923276e-01,3.82329e-01,9.99999e-01,9.99999e-01,9.99999e-01,3.82329e-01,9.99999e-01
8.579607893e-01,3.89659e-01,9.99999e-01,9.99999e-01,9.99999e-01,3.89659e-01,9.99999e-01
8.622505932e-01,3.96981e-01,9.99999e-01,9.99999e-01,9.99999e-01,3.96981e-01,9.99999e-01
8.665618462e-01,3.60381e-01,9.99999e-01,9.99999e-01,8.91387e-01,4.04292e-01,9.99999e-01
8.708946554e-01,2.05126e-01,9.99999e-01,9.99999e-01,4.98375e-01,4.11589e-01,9.99999e-01
8.752491287e-01,2.37421e-01,9.99999e-01,9.99999e-01,5.66814e-01,4.18870e-01,9.99999e-01
8.796253743e-01,3.10813e-01,9.99999e-01,9.99999e-01,7.29382e-01,4.26132e-01,9.99999e-01
8.840235012e-01,3.67463e-01,9.99999e-01,9.99999e-01,8.47914e-01,4.33372e-01,9.99999e-01
8.884436187e-01,4.12895e-01,9.99999e-01,9.99999e-01,9.37142e-01,4.40589e-01,9.99999e-01
8.928858368e-01,4.36124e-01,9.99999e-01,9.99999e-01,9.73968e-01,4.47781e-01,9.99999e-01
8.973502660e-01,4.52055e-01,9.99999e-01,9.99999e-01,9.93650e-01,4.54944e-01,9.99999e-01
9.018370173e-01,4.61753e-01,9.99999e-01,9.99999e-01,9.99300e-01,4.62076e-01,9.99999e-01
9.063462024e-01,4.60588e-01,9.99999e-01,9.99999e-01,9.81693e-01,4.69177e-01,9.99999e-01
9.108779334e-01,4.56790e-01,9.99999e-01,9.99999e-01,9.59153e-01,4.76243e-01,9.99999e-01
9.154323231e-01,4.78615e-01,9.99999e-01,9.99999e-01,9.90362e-01,4.83273e-01,9.99999e-01
9.200094847e-01,4.27604e-01,9.99999e-01,9.99999e-01,8.72190e-01,4.90264e-01,9.99999e-01
9.246095321e-01,4.05530e-01,9.99999e-01,9.99999e-01,8.15600e-01,4.97216e-01,9.99999e-01
9.292325798e-01,4.29552e-01,9.99999e-01,9.99999e-01,8.52072e-01,5.04126e-01,9.99999e-01
9.338787427e-01,4.38034e-01,9.99999e-01,9.99999e-01,8.57221e-01,5.10992e-01,9.99999e-01
9.385481364e-01,4.62181e-01,9.99999e-01,9.99999e-01,8.92560e-01,5.17814e-01,9.99999e-01
9.432408771e-01,4.89339e-01,9.99999e-01,9.99999e-01,9.32803e-01,5.24590e-01,9.99999e-01
9.479570815e-01,5.12647e-01,9.99999e-01,9.99999e-01,9.64860e-01,5.31317e-01,9.99999e-01
9.526968669e-01,5.28821e-01,9.99999e-01,9.99999e-01,9.82945e-01,5.37996e-01,9.99999e-01
9.574603512e-01,5.40635e-01,9.99999e-01,9.99999e-01,9.92675e-01,5.44624e-01,9.99999e-01
9.622476530e-01,5.49940e-01,9.99999e-01,9.99999e-01,9.97712e-01,5.51200e-01,9.99999e-01
9.670588912e-01,5.57342e-01,9.99999e-01,9.99999e-01,9.99315e-01,5.57724e-01,9.99999e-01
9.718941857e-01,5.64167e-01,9.99999e-01,9.99999e-01,9.99952e-01,5.64193e-01,9.99999e-01
9.767536566e-01,5.70608e-01,9.99999e-01,9.99999e-01,9.99999e-01,5.70608e-01,9.99999e-01
9.816374249e-01,5.76967e-01,9.99999e-01,9.99999e-01,9.99999e-01,5.76967e-01,9.99999e-01
9.865456120e-01,5.83269e-01,9.99999e-01,9.99999e-01,9.99999e-01,5.83269e-01,9.99999e-01
9.914783401e-01,5.89513e-01,9.99999e-01,9.99999e-01,9.99999e-01,5.89513e-01,9.99999e-01
9.964357318e-01,5.95699e-01,9.99999e-01,9.99999e-01,9.99999e-01,5.95699e-01,9.99999e-01
1.001417910e+00,6.01825e-01,9.99999e-01,9.99999e-01,9.99999e-01,6.01825e-01,9.99999e-01
1.006425000e+00,6.07892e-01,9.99999e-01,9.99999e-01,9.99999e-01,6.07892e-01,9.99999e-01
1.011457125e+00,6.13898e-01,9.99999e-01,9.99999e-01,9.99999e-01,6.13898e-01,9.99999e-01
1.016514411e+00,6.19843e-01,9.99999e-01,9.99999e-01,9.99999e-01,6.19843e-01,9.99999e-01
1.021596983e+00,6.25658e-01,9.99999e-01,9.99999e-01,9.99888e-01,6.25727e-01,9.99999e-01
1.026704968e+00,6.26974e-01,9.99999e-01,9.99999e-01,9.92755e-01,6.31549e-01,9.99999e-01
1.031838492e+00,5.91341e-01,9.99999e-01,9.99999e-01,9.27872e-01,6.37308e-01,9.99999e-01
1.036997685e+00,5.34349e-02,9.99999e-01,9.99999e-01,8.31019e-02,6.43004e-01,9.99999e-01
1.042182673e+00,1.54942e-02,9.99999e-01,9.99999e-01,2.38873e-02,6.48638e-01,9.99999e-01
1.047393587e+00,2.69819e-02,9.99999e-01,9.99999e-01,4.12436e-02,6.54208e-01,9.99999e-01
1.052630555e+00,6.34399e-05,9.99999e-01,9.99999e-01,9.61627e-05,6.59714e-01,9.99999e-01
1.057893707e+00,2.21847e-04,9.99999e-01,9.99999e-01,3.33526e-04,6.65156e-01,9.99999e-01
1.063183176e+00,1.71805e-03,9.99999e-01,9.99999e-01,2.56220e-03,6.70535e-01,9.99999e-01
1.068499092e+00,8.83128e-03,9.99999e-01,9.99999e-01,1.30669e-02,6.75850e-01,9.99999e-01
1.073841587e+00,4.32478e-02,9.99999e-01,9.99999e-01,6.34969e-02,6.81100e-01,9.99999e-01
1.079210795e+00,1.20128e-01,9.99999e-01,9.99999e-01,1.75041e-01,6.86286e-01,9.99999e-01
1.084606849e+00,2.61701e-01,9.99999e-01,9.99999e-01,3.78504e-01,6.91409e-01,9.99999e-01
1.090029883e+00,4.19453e-01,9.99999e-01,9.99999e-01,6.02258e-01,6.96467e-01,9.99999e-01
1.095480033e+00,5.46348e-01,9.99999e-01,9.99999e-01,7.78870e-01,7.01461e-01,9.99999e-01
1.100957433e+00,6.26055e-01,9.99999e-01,9.99999e-01,8.86271e-01,7.06391e-01,9.99999e-01
1.106462220e+00,6.76651e-01,9.99999e-01,9.99999e-01,9.51343e-01,7.11258e-01,9.99999e-01
1.111994531e+00,7.02937e-01,9.99999e-01,9.99999e-01,9.81671e-01,7.16061e-01,9.99999e-01
1.117554504e+00,7.17570e-01,9.99999e-01,9.99999e-01,9.95518e-01,7.20800e-01,9.99999e-01
1.123142276e+00,7.25265e-01,9.99999e-01,9.99999e-01,9.99707e-01,7.25477e-01,9.99999e-01
1.128757988e+00,7.30090e-01,9.99999e-01,9.99999e-01,9.99999e-01,7.30090e-01,9.99999e-01
1.134401778e+00,7.34641e-01,9.99999e-01,9.99999e-01,9.99999e-01,7.34641e-01,9.99999e-01
1.140073787e+00,7.39129e-01,9.99999e-01,9.99999e-01,9.99999e-01,7.39129e-01,9.99999e-01
1.145774156e+00,7.43556e-01,9.99999e-01,9.99999e-01,9.99999e-01,7.43556e-01,9.99999e-01
1.151503026e+00,7.47921e-01,9.99999e-01,9.99999e-01,9.99999e-01,7.47921e-01,9.99999e-01
1.157260541e+00,7.52224e-01,9.99999e-01,9.99999e-01,9.99999e-01,7.52224e-01,9.99999e-01
1.163046844e+00,7.56466e-01,9.99999e-01,9.99999e-01,9.99999e-01,7.56466e-01,9.99999e-01
1.168862078e+00,7.60648e-01,9.99999e-01,9.99999e-01,9.99999e-01,7.60648e-01,9.99999e-01
1.174706389e+00,7.64770e-01,9.99999e-01,9.99999e-01,9.99999e-01,7.64770e-01,9.99999e-01
1.180579921e+00,7.68832e-01,9.99999e-01,9.99999e-01,9.99999e-01,7.68832e-01,9.99999e-01
1.186482820e+00,7.72821e-01,9.99999e-01,9.99999e-01,9.99982e-01,7.72834e-01,9.99999e-01
1.192415234e+00,7.57067e-01,9.99999e-01,9.99999e-01,9.74624e-01,7.76778e-01,9.99999e-01
1.198377311e+00,4.21654e-01,9.99999e-01,9.99999e-01,5.40122e-01,7.80663e-01,9.99999e-01
1.204369197e+00,2.97376e-19,9.99999e-01,9.99999e-01,3.79068e-19,7.84491e-01,9.99999e-01
1.210391043e+00,2.66637e-75,9.99999e-01,9.99999e-01,3.38260e-75,7.88261e-01,9.99999e-01
1.216442998e+00,2.80816e-65,9.99999e-01,9.99999e-01,3.54577e-65,7.91974e-01,9.99999e-01
1.222525213e+00,2.60034e-64,9.99999e-01,9.99999e-01,3.26827e-64,7.95631e-01,9.99999e-01
1.228637839e+00,9.61741e-50,9.99999e-01,9.99999e-01,1.20333e-49,7.99232e-01,9.99999e-01
