#,Wave/freq,Total,N2,O2,CO2,Rayleigh,CIA
4.000000000e-01,9.88570e-09,9.99999e-01,9.99999e-01,9.99999e-01,9.88570e-09,9.99999e-01
4.020000000e-01,1.42328e-08,9.99999e-01,9.99999e-01,9.99999e-01,1.42328e-08,9.99999e-01
4.040100000e-01,2.03368e-08,9.99999e-01,9.99999e-01,9.99999e-01,2.03368e-08,9.99999e-01
4.060300500e-01,2.88545e-08,9.99999e-01,9.99999e-01,9.99999e-01,2.88545e-08,9.99999e-01
4.080602003e-01,4.06577e-08,9.99999e-01,9.99999e-01,9.99999e-01,4.06577e-08,9.99999e-01
4.101005013e-01,5.69023e-08,9.99999e-01,9.99999e-01,9.99999e-01,5.69023e-08,9.99999e-01
4.121510038e-01,7.91105e-08,9.99999e-01,9.99999e-01,9.99999e-01,7.91105e-08,9.99999e-01
4.142117588e-01,1.09273e-07,9.99999e-01,9.99999e-01,9.99999e-01,1.09273e-07,9.99999e-01
4.162828176e-01,1.49975e-07,9.99999e-01,9.99999e-01,9.99999e-01,1.49975e-07,9.99999e-01
4.183642317e-01,2.04554e-07,9.99999e-01,9.99999e-01,9.99999e-01,2.04554e-07,9.99999e-01
4.204560528e-01,2.77292e-07,9.99999e-01,9.99999e-01,9.99999e-01,2.77292e-07,9.99999e-01
4.225583331e-01,3.73642e-07,9.99999e-01,9.99999e-01,9.99999e-01,3.73642e-07,9.99999e-01
4.246711247e-01,5.00513e-07,9.99999e-01,9.99999e-01,9.99999e-01,5.00513e-07,9.99999e-01
4.267944804e-01,6.66603e-07,9.99999e-01,9.99999e-01,9.99999e-01,6.66603e-07,9.99999e-01
4.289284528e-01,8.82798e-07,9.99999e-01,9.99999e-01,9.99999e-01,8.82798e-07,9.99999e-01
4.310730950e-01,1.16264e-06,9.99999e-01,9.99999e-01,9.99999e-01,1.16264e-06,9.99999e-01
4.332284605e-01,1.52289e-06,9.99999e-01,9.99999e-01,9.99999e-01,1.52289e-06,9.99999e-01
4.353946028e-01,1.98415e-06,9.99999e-01,9.99999e-01,9.99999e-01,1.98415e-06,9.99999e-01
4.375715758e-01,2.57165e-06,9.99999e-01,9.99999e-01,9.99999e-01,2.57165e-06,9.99999e-01
4.397594337e-01,3.31607e-06,9.99999e-01,9.99999e-01,9.99999e-01,3.31607e-06,9.99999e-01
4.419582309e-01,4.25456e-06,9.99999e-01,9.99999e-01,9.99999e-01,4.25456e-06,9.99999e-01
4.441680220e-01,5.43185e-06,9.99999e-01,9.99999e-01,9.99999e-01,5.43185e-06,9.99999e-01
4.463888621e-01,6.90154e-06,9.99999e-01,9.99999e-01,9.99999e-01,6.90154e-06,9.99999e-01
4.486208064e-01,8.72749e-06,9.99999e-01,9.99999e-01,9.99999e-01,8.72749e-06,9.99999e-01
4.508639105e-01,1.09855e-05,9.99999e-01,9.99999e-01,9.99999e-01,1.09855e-05,9.99999e-01
4.531182300e-01,1.37650e-05,9.99999e-01,9.99999e-01,9.99999e-01,1.37650e-05,9.99999e-01
4.553838212e-01,1.71711e-05,9.99999e-01,9.99999e-01,9.99999e-01,1.71711e-05,9.99999e-01
4.576607403e-01,2.13266e-05,9.99999e-01,9.99999e-01,9.99999e-01,2.13266e-05,9.99999e-01
4.599490440e-01,2.63747e-05,9.99999e-01,9.99999e-01,9.99999e-01,2.63747e-05,9.99999e-01
4.622487892e-01,3.24810e-05,9.99999e-01,9.99999e-01,9.99999e-01,3.24810e-05,9.99999e-01
4.645600332e-01,3.98370e-05,9.99999e-01,9.99999e-01,9.99999e-01,3.98370e-05,9.99999e-01
4.668828333e-01,4.86622e-05,9.99999e-01,9.99999e-01,9.99999e-01,4.86622e-05,9.99999e-01
4.692172475e-01,5.92079e-05,9.99999e-01,9.99999e-01,9.99999e-01,5.92079e-05,9.99999e-01
4.715633337e-01,7.17606e-05,9.99999e-01,9.99999e-01,9.99999e-01,7.17606e-05,9.99999e-01
4.739211504e-01,8.66448e-05,9.99999e-01,9.99999e-01,9.99999e-01,8.66448e-05,9.99999e-01
4.762907561e-01,1.04227e-04,9.99999e-01,9.99999e-01,9.99999e-01,1.04227e-04,9.99999e-01
4.786722099e-01,1.24921e-04,9.99999e-01,9.99999e-01,9.99999e-01,1.24921e-04,9.99999e-01
4.810655710e-01,1.49189e-04,9.99999e-01,9.99999e-01,9.99999e-01,1.49189e-04,9.99999e-01
4.834708988e-01,1.77548e-04,9.99999e-01,9.99999e-01,9.99999e-01,1.77548e-04,9.99999e-01
4.858882533e-01,2.10572e-04,9.99999e-01,9.99999e-01,9.99999e-01,2.10572e-04,9.99999e-01
4.883176946e-01,2.48899e-04,9.99999e-01,9.99999e-01,9.99999e-01,2.48899e-04,9.99999e-01
4.907592831e-01,2.93232e-04,9.99999e-01,9.99999e-01,9.99999e-01,2.93232e-04,9.99999e-01
4.932130795e-01,3.44344e-04,9.99999e-01,9.99999e-01,9.99999e-01,3.44344e-04,9.99999e-01
4.956791449e-01,4.03084e-04,9.99999e-01,9.99999e-01,9.99999e-01,4.03084e-04,9.99999e-01
4.981575406e-01,4.70378e-04,9.99999e-01,9.99999e-01,9.99999e-01,4.70378e-04,9.99999e-01
5.006483283e-01,5.47236e-04,9.99999e-01,9.99999e-01,9.99999e-01,5.47236e-04,9.99999e-01
5.031515699e-01,6.34751e-04,9.99999e-01,9.99999e-01,9.99999e-01,6.34751e-04,9.99999e-01
5.056673278e-01,7.34108e-04,9.99999e-01,9.99999e-01,9.99999e-01,7.34108e-04,9.99999e-01
5.081956644e-01,8.46582e-04,9.99999e-01,9.99999e-01,9.99999e-01,8.46582e-04,9.99999e-01
5.107366428e-01,9.73543e-04,9.99999e-01,9.99999e-01,9.99999e-01,9.73543e-04,9.99999e-01
5.132903260e-01,1.11646e-03,9.99999e-01,9.99999e-01,9.99999e-01,1.11646e-03,9.99999e-01
5.158567776e-01,1.27689e-03,9.99999e-01,9.99999e-01,9.99999e-01,1.27689e-03,9.99999e-01
5.184360615e-01,1.45652e-03,9.99999e-01,9.99999e-01,9.99999e-01,1.45652e-03,9.99999e-01
5.210282418e-01,1.65709e-03,9.99999e-01,9.99999e-01,9.99999e-01,1.65709e-03,9.99999e-01
5.236333830e-01,1.88049e-03,9.99999e-01,9.99999e-01,9.99999e-01,1.88049e-03,9.99999e-01
5.262515499e-01,2.12869e-03,9.99999e-01,9.99999e-01,9.99999e-01,2.12869e-03,9.99999e-01
5.288828077e-01,2.40374e-03,9.99999e-01,9.99999e-01,9.99999e-01,2.40374e-03,9.99999e-01
5.315272217e-01,2.70783e-03,9.99999e-01,9.99999e-01,9.99999e-01,2.70783e-03,9.99999e-01
5.341848578e-01,3.04323e-03,9.99999e-01,9.99999e-01,9.99999e-01,3.04323e-03,9.99999e-01
5.368557821e-01,3.41228e-03,9.99999e-01,9.99999e-01,9.99999e-01,3.41228e-03,9.99999e-01
5.395400610e-01,3.81745e-03,9.99999e-01,9.99999e-01,9.99999e-01,3.81745e-03,9.99999e-01
5.422377613e-01,4.26127e-03,9.99999e-01,9.99999e-01,9.99999e-01,4.26127e-03,9.99999e-01
5.449489501e-01,4.74637e-03,9.99999e-01,9.99999e-01,9.99999e-01,4.74637e-03,9.99999e-01
5.476736949e-01,5.27544e-03,9.99999e-01,9.99999e-01,9.99999e-01,5.27544e-03,9.99999e-01
5.504120634e-01,5.85127e-03,9.99999e-01,9.99999e-01,9.99999e-01,5.85127e-03,9.99999e-01
5.531641237e-01,6.47668e-03,9.99999e-01,9.99999e-01,9.99999e-01,6.47668e-03,9.99999e-01
5.559299443e-01,7.15457e-03,9.99999e-01,9.99999e-01,9.99999e-01,7.15457e-03,9.99999e-01
5.587095940e-01,7.88789e-03,9.99999e-01,9.99999e-01,9.99999e-01,7.88789e-03,9.99999e-01
5.615031420e-01,8.67963e-03,9.99999e-01,9.99999e-01,9.99999e-01,8.67963e-03,9.99999e-01
5.643106577e-01,9.53281e-03,9.99999e-01,9.99999e-01,9.99999e-01,9.53281e-03,9.99999e-01
5.671322110e-01,1.04505e-02,9.99999e-01,9.99999e-01,9.99999e-01,1.04505e-02,9.99999e-01
5.699678720e-01,1.14357e-02,9.99999e-01,9.99999e-01,9.99999e-01,1.14357e-02,9.99999e-01
5.728177114e-01,1.24916e-02,9.99999e-01,9.99999e-01,9.99999e-01,1.24916e-02,9.99999e-01
5.756818000e-01,1.36212e-02,9.99999e-01,9.99999e-01,9.99999e-01,1.36212e-02,9.99999e-01
5.785602090e-01,1.48275e-02,9.99999e-01,9.99999e-01,9.99999e-01,1.48275e-02,9.99999e-01
5.814530100e-01,1.61136e-02,9.99999e-01,9.99999e-01,9.99999e-01,1.61136e-02,9.99999e-01
5.843602750e-01,1.74826e-02,9.99999e-01,9.99999e-01,9.99999e-01,1.74826e-02,9.99999e-01
5.872820764e-01,1.89373e-02,9.99999e-01,9.99999e-01,9.99999e-01,1.89373e-02,9.99999e-01
5.902184868e-01,2.04808e-02,9.99999e-01,9.99999e-01,9.99999e-01,2.04808e-02,9.99999e-01
5.931695792e-01,2.21157e-02,9.99999e-01,9.99999e-01,9.99999e-01,2.21157e-02,9.99999e-01
5.961354271e-01,2.38450e-02,9.99999e-01,9.99999e-01,9.99999e-01,2.38450e-02,9.99999e-01
5.991161043e-01,2.56713e-02,9.99999e-01,9.99999e-01,9.99999e-01,2.56713e-02,9.99999e-01
6.021116848e-01,2.75972e-02,9.99999e-01,9.99999e-01,9.99999e-01,2.75972e-02,9.99999e-01
6.051222432e-01,2.96252e-02,9.99999e-01,9.99999e-01,9.99999e-01,2.96252e-02,9.99999e-01
6.081478544e-01,3.17578e-02,9.99999e-01,9.99999e-01,9.99999e-01,3.17578e-02,9.99999e-01
6.111885937e-01,3.39972e-02,9.99999e-01,9.99999e-01,9.99999e-01,3.39972e-02,9.99999e-01
6.142445367e-01,3.63455e-02,9.99999e-01,9.99999e-01,9.99999e-01,3.63455e-02,9.99999e-01
6.173157594e-01,3.88047e-02,9.99999e-01,9.99999e-01,9.99999e-01,3.88047e-02,9.99999e-01
6.204023382e-01,4.13769e-02,9.99999e-01,9.99999e-01,9.99999e-01,4.13769e-02,9.99999e-01
6.235043498e-01,4.40636e-02,9.99999e-01,9.99999e-01,9.99999e-01,4.40636e-02,9.99999e-01
6.266218716e-01,4.68666e-02,9.99999e-01,9.99999e-01,9.99999e-01,4.68666e-02,9.99999e-01
6.297549810e-01,4.97871e-02,9.99999e-01,9.99999e-01,9.99999e-01,4.97871e-02,9.99999e-01
6.329037559e-01,5.28265e-02,9.99999e-01,9.99999e-01,9.99999e-01,5.28265e-02,9.99999e-01
6.360682746e-01,5.59859e-02,9.99999e-01,9.99999e-01,9.99999e-01,5.59859e-02,9.99999e-01
6.392486160e-01,5.92662e-02,9.99999e-01,9.99999e-01,9.99999e-01,5.92662e-02,9.99999e-01
6.424448591e-01,6.26682e-02,9.99999e-01,9.99999e-01,9.99999e-01,6.26682e-02,9.99999e-01
6.456570834e-01,6.61925e-02,9.99999e-01,9.99999e-01,9.99999e-01,6.61925e-02,9.99999e-01
6.488853688e-01,6.98394e-02,9.99999e-01,9.99999e-01,9.99999e-01,6.98394e-02,9.99999e-01
6.521297956e-01,7.36093e-02,9.99999e-01,9.99999e-01,9.99999e-01,7.36093e-02,9.99999e-01
6.553904446e-01,7.75021e-02,9.99999e-01,9.99999e-01,9.99999e-01,7.75021e-02,9.99999e-01
6.586673968e-01,8.15178e-02,9.99999e-01,9.99999e-01,9.99999e-01,8.15178e-02,9.99999e-01
6.619607338e-01,8.56560e-02,9.99999e-01,9.99999e-01,9.99999e-01,8.56560e-02,9.99999e-01
6.652705375e-01,8.99163e-02,9.99999e-01,9.99999e-01,9.99999e-01,8.99163e-02,9.99999e-01
6.685968902e-01,9.42980e-02,9.99999e-01,9.99999e-01,9.99999e-01,9.42980e-02,9.99999e-01
6.719398746e-01,9.88004e-02,9.99999e-01,9.99999e-01,9.99999e-01,9.88004e-02,9.99999e-01
6.752995740e-01,1.03422e-01,9.99999e-01,9.99999e-01,9.99999e-01,1.03422e-01,9.99999e-01
6.786760719e-01,1.08163e-01,9.99999e-01,9.99999e-01,9.99999e-01,1.08163e-01,9.99999e-01
6.820694522e-01,1.13021e-01,9.99999e-01,9.99999e-01,9.99999e-01,1.13021e-01,9.99999e-01
6.854797995e-01,1.17994e-01,9.99999e-01,9.99999e-01,9.99999e-01,1.17994e-01,9.99999e-01
6.889071985e-01,1.23082e-01,9.99999e-01,9.99999e-01,9.99999e-01,1.23082e-01,9.99999e-01
6.923517345e-01,1.28282e-01,9.99999e-01,9.99999e-01,9.99999e-01,1.28282e-01,9.99999e-01
6.958134932e-01,1.33592e-01,9.99999e-01,9.99999e-01,9.99999e-01,1.33592e-01,9.99999e-01
6.992925606e-01,1.39011e-01,9.99999e-01,9.99999e-01,9.99999e-01,1.39011e-01,9.99999e-01
7.027890234e-01,1.44536e-01,9.99999e-01,9.99999e-01,9.99999e-01,1.44536e-01,9.99999e-01
7.063029686e-01,1.50165e-01,9.99999e-01,9.99999e-01,9.99999e-01,1.50165e-01,9.99999e-01
7.098344834e-01,1.55895e-01,9.99999e-01,9.99999e-01,9.99999e-01,1.55895e-01,9.99999e-01
7.133836558e-01,1.61725e-01,9.99999e-01,9.99999e-01,9.99999e-01,1.61725e-01,9.99999e-01
7.169505741e-01,1.67650e-01,9.99999e-01,9.99999e-01,9.99999e-01,1.67650e-01,9.99999e-01
7.205353270e-01,1.73670e-01,9.99999e-01,9.99999e-01,9.99999e-01,1.73670e-01,9.99999e-01
7.241380036e-01,1.79780e-01,9.99999e-01,9.99999e-01,9.99999e-01,1.79780e-01,9.99999e-01
7.277586936e-01,1.85978e-01,9.99999e-01,9.99999e-01,9.99999e-01,1.85978e-01,9.99999e-01
7.313974871e-01,1.92262e-01,9.99999e-01,9.99999e-01,9.99999e-01,1.92262e-01,9.99999e-01
7.350544745e-01,1.98627e-01,9.99999e-01,9.99999e-01,9.99999e-01,1.98627e-01,9.99999e-01
7.387297469e-01,2.05070e-01,9.99999e-01,9.99999e-01,9.99999e-01,2.05070e-01,9.99999e-01
7.424233956e-01,2.11590e-01,9.99999e-01,9.99999e-01,9.99999e-01,2.11590e-01,9.99999e-01
7.461355126e-01,2.18181e-01,9.99999e-01,9.99999e-01,9.99999e-01,2.18181e-01,9.99999e-01
7.498661902e-01,2.24842e-01,9.99999e-01,9.99999e-01,9.99999e-01,2.24842e-01,9.99999e-01
7.536155211e-01,2.31569e-01,9.99999e-01,9.99999e-01,9.99999e-01,2.31569e-01,9.99999e-01
7.573835987e-01,2.38358e-01,9.99999e-01,9.99999e-01,9.99999e-01,2.38358e-01,9.99999e-01
7.611705167e-01,2.45205e-01,9.99999e-01,9.99999e-01,9.99999e-01,2.45205e-01,9.99999e-01
7.649763693e-01,2.52109e-01,9.99999e-01,9.99999e-01,9.99999e-01,2.52109e-01,9.99999e-01
7.688012511e-01,2.59065e-01,9.99999e-01,9.99999e-01,9.99999e-01,2.59065e-01,9.99999e-01
7.726452574e-01,2.66070e-01,9.99999e-01,9.99999e-01,9.99999e-01,2.66070e-01,9.99999e-01
7.765084837e-01,2.73120e-01,9.99999e-01,9.99999e-01,9.99999e-01,2.73120e-01,9.99999e-01
7.803910261e-01,2.65181e-01,9.99999e-01,9.99999e-01,9.46358e-01,2.80212e-01,9.99999e-01
7.842929812e-01,2.21741e-01,9.99999e-01,9.99999e-01,7.71694e-01,2.87342e-01,9.99999e-01
7.882144461e-01,2.23640e-01,9.99999e-01,9.99999e-01,7.59365e-01,2.94508e-01,9.99999e-01
7.921555184e-01,2.56114e-01,9.99999e-01,9.99999e-01,8.48883e-01,3.01706e-01,9.99999e-01
7.961162960e-01,2.76611e-01,9.99999e-01,9.99999e-01,8.95377e-01,3.08933e-01,9.99999e-01
8.000968774e-01,2.97805e-01,9.99999e-01,9.99999e-01,9.41871e-01,3.16184e-01,9.99999e-01
8.040973618e-01,3.13553e-01,9.99999e-01,9.99999e-01,9.69378e-01,3.23458e-01,9.99999e-01
8.081178486e-01,3.26070e-01,9.99999e-01,9.99999e-01,9.85850e-01,3.30750e-01,9.99999e-01
8.121584379e-01,3.36568e-01,9.99999e-01,9.99999e-01,9.95591e-01,3.38058e-01,9.99999e-01
8.162192301e-01,3.45041e-01,9.99999e-01,9.99999e-01,9.99024e-01,3.45378e-01,9.99999e-01
8.203003262e-01,3.52702e-01,9.99999e-01,9.99999e-01,9.99984e-01,3.52707e-01,9.99999e-01
8.244018279e-01,3.60043e-01,9.99999e-01,9.99999e-01,9.99999e-01,3.60043e-01,9.99999e-01
8.285238370e-01,3.67381e-01,9.99999e-01,9.99999e-01,9.99999e-01,3.67381e-01,9.99999e-01
8.326664562e-01,3.74720e-01,9.99999e-01,9.99999e-01,9.99999e-01,3.74720e-01,9.99999e-01
8.368297885e-01,3.82057e-01,9.99999e-01,9.99999e-01,9.99999e-01,3.82057e-01,9.99999e-01
8.410139374e-01,3.89387e-01,9.99999e-01,9.99999e-01,9.99999e-01,3.89387e-01,9.99999e-01
8.452190071e-01,3.96709e-01,9.99999e-01,9.99999e-01,9.99999e-01,3.96709e-01,9.99999e-01
8.494451021e-01,4.04021e-01,9.99999e-01,9.99999e-01,9.99999e-01,4.04021e-01,9.99999e-01
8.536923276e-01,4.11318e-01,9.99999e-01,9.99999e-01,9.99999e-01,4.11318e-01,9.99999e-01
8.579607893e-01,4.18600e-01,9.99999e-01,9.99999e-01,9.99999e-01,4.18600e-01,9.99999e-01
8.622505932e-01,4.25863e-01,9.99999e-01,9.99999e-01,9.99999e-01,4.25863e-01,9.99999e-01
8.665618462e-01,3.90060e-01,9.99999e-01,9.99999e-01,9.00613e-01,4.33104e-01,9.99999e-01
8.708946554e-01,2.30577e-01,9.99999e-01,9.99999e-01,5.23656e-01,4.40322e-01,9.99999e-01
8.752491287e-01,2.63538e-01,9.99999e-01,9.99999e-01,5.88893e-01,4.47514e-01,9.99999e-01
8.796253743e-01,3.38702e-01,9.99999e-01,9.99999e-01,7.44925e-01,4.54678e-01,9.99999e-01
8.840235012e-01,3.96009e-01,9.99999e-01,9.99999e-01,8.57509e-01,4.61812e-01,9.99999e-01
8.884436187e-01,4.41240e-01,9.99999e-01,9.99999e-01,9.40983e-01,4.68914e-01,9.99999e-01
8.928858368e-01,4.64402e-01,9.99999e-01,9.99999e-01,9.75671e-01,4.75981e-01,9.99999e-01
8.973502660e-01,4.80124e-01,9.99999e-01,9.99999e-01,9.94019e-01,4.83012e-01,9.99999e-01
9.018370173e-01,4.89682e-01,9.99999e-01,9.99999e-01,9.99338e-01,4.90005e-01,9.99999e-01
9.063462024e-01,4.88766e-01,9.99999e-01,9.99999e-01,9.83514e-01,4.96959e-01,9.99999e-01
9.108779334e-01,4.84691e-01,9.99999e-01,9.99999e-01,9.61935e-01,5.03870e-01,9.99999e-01
9.154323231e-01,5.06088e-01,9.99999e-01,9.99999e-01,9.90893e-01,5.10738e-01,9.99999e-01
9.200094847e-01,4.56700e-01,9.99999e-01,9.99999e-01,8.82405e-01,5.17562e-01,9.99999e-01
9.246095321e-01,4.33856e-01,9.99999e-01,9.99999e-01,8.27432e-01,5.24339e-01,9.99999e-01
9.292325798e-01,4.58584e-01,9.99999e-01,9.99999e-01,8.63510e-01,5.31069e-01,9.99999e-01
9.338787427e-01,4.66033e-01,9.99999e-01,9.99999e-01,8.66635e-01,5.37749e-01,9.99999e-01
9.385481364e-01,4.89877e-01,9.99999e-01,9.99999e-01,8.99882e-01,5.44379e-01,9.99999e-01
9.432408771e-01,5.16389e-01,9.99999e-01,9.99999e-01,9.37257e-01,5.50957e-01,9.99999e-01
9.479570815e-01,5.39273e-01,9.99999e-01,9.99999e-01,9.67334e-01,5.57483e-01,9.99999e-01
9.526968669e-01,5.54992e-01,9.99999e-01,9.99999e-01,9.84107e-01,5.63954e-01,9.99999e-01
9.574603512e-01,5.66476e-01,9.99999e-01,9.99999e-01,9.93169e-01,5.70371e-01,9.99999e-01
9.622476530e-01,5.75500e-01,9.99999e-01,9.99999e-01,9.97863e-01,5.76732e-01,9.99999e-01
9.670588912e-01,5.82662e-01,9.99999e-01,9.99999e-01,9.99358e-01,5.83036e-01,9.99999e-01
9.718941857e-01,5.89255e-01,9.99999e-01,9.99999e-01,9.99953e-01,5.89282e-01,9.99999e-01
9.767536566e-01,5.95470e-01,9.99999e-01,9.99999e-01,9.99999e-01,5.95470e-01,9.99999e-01
9.816374249e-01,6.01599e-01,9.99999e-01,9.99999e-01,9.99999e-01,6.01599e-01,9.99999e-01
9.865456120e-01,6.07668e-01,9.99999e-01,9.99999e-01,9.99999e-01,6.07668e-01,9.99999e-01
9.914783401e-01,6.13677e-01,9.99999e-01,9.99999e-01,9.99999e-01,6.13677e-01,9.99999e-01
9.964357318e-01,6.19624e-01,9.99999e-01,9.99999e-01,9.99999e-01,6.19624e-01,9.99999e-01
1.001417910e+00,6.25510e-01,9.99999e-01,9.99999e-01,9.99999e-01,6.25510e-01,9.99999e-01
1.006425000e+00,6.31334e-01,9.99999e-01,9.99999e-01,9.99999e-01,6.31334e-01,9.99999e-01
1.011457125e+00,6.37095e-01,9.99999e-01,9.99999e-01,9.99999e-01,6.37095e-01,9.99999e-01
1.016514411e+00,6.42794e-01,9.99999e-01,9.99999e-01,9.99999e-01,6.42794e-01,9.99999e-01
1.021596983e+00,6.48375e-01,9.99999e-01,9.99999e-01,9.99915e-01,6.48430e-01,9.99999e-01
1.026704968e+00,6.49768e-01,9.99999e-01,9.99999e-01,9.93525e-01,6.54002e-01,9.99999e-01
1.031838492e+00,6.18181e-01,9.99999e-01,9.99999e-01,9.37332e-01,6.59511e-01,9.99999e-01
1.036997685e+00,6.12752e-02,9.99999e-01,9.99999e-01,9.21493e-02,6.64956e-01,9.99999e-01
1.042182673e+00,2.02261e-02,9.99999e-01,9.99999e-01,3.01730e-02,6.70337e-01,9.99999e-01
1.047393587e+00,3.43385e-02,9.99999e-01,9.99999e-01,5.08226e-02,6.75654e-01,9.99999e-01
1.052630555e+00,1.16250e-04,9.99999e-01,9.99999e-01,1.70729e-04,6.80906e-01,9.99999e-01
1.057893707e+00,3.81068e-04,9.99999e-01,9.99999e-01,5.55415e-04,6.86095e-01,9.99999e-01
1.063183176e+00,2.60298e-03,9.99999e-01,9.99999e-01,3.76578e-03,6.91220e-01,9.99999e-01
1.068499092e+00,1.24423e-02,9.99999e-01,9.99999e-01,1.78697e-02,6.96280e-01,9.99999e-01
1.073841587e+00,5.40776e-02,9.99999e-01,9.99999e-01,7.71130e-02,7.01277e-01,9.99999e-01
1.079210795e+00,1.39584e-01,9.99999e-01,9.99999e-01,1.97653e-01,7.06210e-01,9.99999e-01
1.084606849e+00,2.87950e-01,9.99999e-01,9.99999e-01,4.04948e-01,7.11078e-01,9.99999e-01
1.090029883e+00,4.47032e-01,9.99999e-01,9.99999e-01,6.24447e-01,7.15884e-01,9.99999e-01
1.095480033e+00,5.71126e-01,9.99999e-01,9.99999e-01,7.92541e-01,7.20626e-01,9.99999e-01
1.100957433e+00,6.48310e-01,9.99999e-01,9.99999e-01,8.93845e-01,7.25304e-01,9.99999e-01
1.106462220e+00,6.96784e-01,9.99999e-01,9.99999e-01,9.54602e-01,7.29920e-01,9.99999e-01
1.111994531e+00,7.21929e-01,9.99999e-01,9.99999e-01,9.82920e-01,7.34473e-01,9.99999e-01
1.117554504e+00,7.35857e-01,9.99999e-01,9.99999e-01,9.95795e-01,7.38964e-01,9.99999e-01
1.123142276e+00,7.43187e-01,9.99999e-01,9.99999e-01,9.99722e-01,7.43393e-01,9.99999e-01
1.128757988e+00,7.47760e-01,9.99999e-01,9.99999e-01,9.99999e-01,7.47760e-01,9.99999e-01
1.134401778e+00,7.52065e-01,9.99999e-01,9.99999e-01,9.99999e-01,7.52065e-01,9.99999e-01
1.140073787e+00,7.56310e-01,9.99999e-01,9.99999e-01,9.99999e-01,7.56310e-01,9.99999e-01
1.145774156e+00,7.60494e-01,9.99999e-01,9.99999e-01,9.99999e-01,7.60494e-01,9.99999e-01
1.151503026e+00,7.64618e-01,9.99999e-01,9.99999e-01,9.99999e-01,7.64618e-01,9.99999e-01
1.157260541e+00,7.68682e-01,9.99999e-01,9.99999e-01,9.99999e-01,7.68682e-01,9.99999e-01
1.163046844e+00,7.72687e-01,9.99999e-01,9.99999e-01,9.99999e-01,7.72687e-01,9.99999e-01
1.168862078e+00,7.76633e-01,9.99999e-01,9.99999e-01,9.99999e-01,7.76633e-01,9.99999e-01
1.174706389e+00,7.80520e-01,9.99999e-01,9.99999e-01,9.99999e-01,7.80520e-01,9.99999e-01
1.180579921e+00,7.84350e-01,9.99999e-01,9.99999e-01,9.99999e-01,7.84350e-01,9.99999e-01
1.186482820e+00,7.88114e-01,9.99999e-01,9.99999e-01,9.99989e-01,7.88122e-01,9.99999e-01
1.192415234e+00,7.73937e-01,9.99999e-01,9.99999e-01,9.77393e-01,7.91837e-01,9.99999e-01
1.198377311e+00,4.33703e-01,9.99999e-01,9.99999e-01,5.45197e-01,7.95496e-01,9.99999e-01
1.204369197e+00,5.87837e-18,9.99999e-01,9.99999e-01,7.35623e-18,7.99099e-01,9.99999e-01
1.210391043e+00,9.88267e-70,9.99999e-01,9.99999e-01,1.23126e-69,8.02647e-01,9.99999e-01
1.216442998e+00,1.79114e-60,9.99999e-01,9.99999e-01,2.22187e-60,8.06140e-01,9.99999e-01
1.222525213e+00,1.40013e-59,9.99999e-01,9.99999e-01,1.72945e-59,8.09579e-01,9.99999e-01
1.228637839e+00,4.23112e-46,9.99999e-01,9.99999e-01,5.20456e-46,8.12964e-01,9.99999e-01
