#,Wave/freq,Total,N2,O2,CO2,Rayleigh,CIA
4.000000000e-01,6.48716e-06,9.99999e-01,9.99999e-01,9.99999e-01,6.48716e-06,9.99999e-01
4.020000000e-01,8.21555e-06,9.99999e-01,9.99999e-01,9.99999e-01,8.21555e-06,9.99999e-01
4.040100000e-01,1.03535e-05,9.99999e-01,9.99999e-01,9.99999e-01,1.03535e-05,9.99999e-01
4.060300500e-01,1.29882e-05,9.99999e-01,9.99999e-01,9.99999e-01,1.29882e-05,9.99999e-01
4.080602003e-01,1.62207e-05,9.99999e-01,9.99999e-01,9.99999e-01,1.62207e-05,9.99999e-01
4.101005013e-01,2.01689e-05,9.99999e-01,9.99999e-01,9.99999e-01,2.01689e-05,9.99999e-01
4.121510038e-01,2.49705e-05,9.99999e-01,9.99999e-01,9.99999e-01,2.49705e-05,9.99999e-01
4.142117588e-01,3.07850e-05,9.99999e-01,9.99999e-01,9.99999e-01,3.07850e-05,9.99999e-01
4.162828176e-01,3.77968e-05,9.99999e-01,9.99999e-01,9.99999e-01,3.77968e-05,9.99999e-01
4.183642317e-01,4.62180e-05,9.99999e-01,9.99999e-01,9.99999e-01,4.62180e-05,9.99999e-01
4.204560528e-01,5.62914e-05,9.99999e-01,9.99999e-01,9.99999e-01,5.62914e-05,9.99999e-01
4.225583331e-01,6.82938e-05,9.99999e-01,9.99999e-01,9.99999e-01,6.82938e-05,9.99999e-01
4.246711247e-01,8.25397e-05,9.99999e-01,9.99999e-01,9.99999e-01,8.25397e-05,9.99999e-01
4.267944804e-01,9.93845e-05,9.99999e-01,9.99999e-01,9.99999e-01,9.93845e-05,9.99999e-01
4.289284528e-01,1.19229e-04,9.99999e-01,9.99999e-01,9.99999e-01,1.19229e-04,9.99999e-01
4.310730950e-01,1.42522e-04,9.99999e-01,9.99999e-01,9.99999e-01,1.42522e-04,9.99999e-01
4.332284605e-01,1.69767e-04,9.99999e-01,9.99999e-01,9.99999e-01,1.69767e-04,9.99999e-01
4.353946028e-01,2.01522e-04,9.99999e-01,9.99999e-01,9.99999e-01,2.01522e-04,9.99999e-01
4.375715758e-01,2.38408e-04,9.99999e-01,9.99999e-01,9.99999e-01,2.38408e-04,9.99999e-01
4.397594337e-01,2.81111e-04,9.99999e-01,9.99999e-01,9.99999e-01,2.81111e-04,9.99999e-01
4.419582309e-01,3.30386e-04,9.99999e-01,9.99999e-01,9.99999e-01,3.30386e-04,9.99999e-01
4.441680220e-01,3.87061e-04,9.99999e-01,9.99999e-01,9.99999e-01,3.87061e-04,9.99999e-01
4.463888621e-01,4.52043e-04,9.99999e-01,9.99999e-01,9.99999e-01,4.52043e-04,9.99999e-01
4.486208064e-01,5.26318e-04,9.99999e-01,9.99999e-01,9.99999e-01,5.26318e-04,9.99999e-01
4.508639105e-01,6.10958e-04,9.99999e-01,9.99999e-01,9.99999e-01,6.10958e-04,9.99999e-01
4.531182300e-01,7.07124e-04,9.99999e-01,9.99999e-01,9.99999e-01,7.07124e-04,9.99999e-01
4.553838212e-01,8.16067e-04,9.99999e-01,9.99999e-01,9.99999e-01,8.16067e-04,9.99999e-01
4.576607403e-01,9.39133e-04,9.99999e-01,9.99999e-01,9.99999e-01,9.39133e-04,9.99999e-01
4.599490440e-01,1.07776e-03,9.99999e-01,9.99999e-01,9.99999e-01,1.07776e-03,9.99999e-01
4.622487892e-01,1.23350e-03,9.99999e-01,9.99999e-01,9.99999e-01,1.23350e-03,9.99999e-01
4.645600332e-01,1.40798e-03,9.99999e-01,9.99999e-01,9.99999e-01,1.40798e-03,9.99999e-01
4.668828333e-01,1.60294e-03,9.99999e-01,9.99999e-01,9.99999e-01,1.60294e-03,9.99999e-01
4.692172475e-01,1.82024e-03,9.99999e-01,9.99999e-01,9.99999e-01,1.82024e-03,9.99999e-01
4.715633337e-01,2.06180e-03,9.99999e-01,9.99999e-01,9.99999e-01,2.06180e-03,9.99999e-01
4.739211504e-01,2.32968e-03,9.99999e-01,9.99999e-01,9.99999e-01,2.32968e-03,9.99999e-01
4.762907561e-01,2.62603e-03,9.99999e-01,9.99999e-01,9.99999e-01,2.62603e-03,9.99999e-01
4.786722099e-01,2.95308e-03,9.99999e-01,9.99999e-01,9.99999e-01,2.95308e-03,9.99999e-01
4.810655710e-01,3.31316e-03,9.99999e-01,9.99999e-01,9.99999e-01,3.31316e-03,9.99999e-01
4.834708988e-01,3.70872e-03,9.99999e-01,9.99999e-01,9.99999e-01,3.70872e-03,9.99999e-01
4.858882533e-01,4.14227e-03,9.99999e-01,9.99999e-01,9.99999e-01,4.14227e-03,9.99999e-01
4.883176946e-01,4.61640e-03,9.99999e-01,9.99999e-01,9.99999e-01,4.61640e-03,9.99999e-01
4.907592831e-01,5.13381e-03,9.99999e-01,9.99999e-01,9.99999e-01,5.13381e-03,9.99999e-01
4.932130795e-01,5.69723e-03,9.99999e-01,9.99999e-01,9.99999e-01,5.69723e-03,9.99999e-01
4.956791449e-01,6.30950e-03,9.99999e-01,9.99999e-01,9.99999e-01,6.30950e-03,9.99999e-01
4.981575406e-01,6.97350e-03,9.99999e-01,9.99999e-01,9.99999e-01,6.97350e-03,9.99999e-01
5.006483283e-01,7.69215e-03,9.99999e-01,9.99999e-01,9.99999e-01,7.69215e-03,9.99999e-01
5.031515699e-01,8.46844e-03,9.99999e-01,9.99999e-01,9.99999e-01,8.46844e-03,9.99999e-01
5.056673278e-01,9.30539e-03,9.99999e-01,9.99999e-01,9.99999e-01,9.30539e-03,9.99999e-01
5.081956644e-01,1.02060e-02,9.99999e-01,9.99999e-01,9.99999e-01,1.02060e-02,9.99999e-01
5.107366428e-01,1.11734e-02,9.99999e-01,9.99999e-01,9.99999e-01,1.11734e-02,9.99999e-01
5.132903260e-01,1.22107e-02,9.99999e-01,9.99999e-01,9.99999e-01,1.22107e-02,9.99999e-01
5.158567776e-01,1.33208e-02,9.99999e-01,9.99999e-01,9.99999e-01,1.33208e-02,9.99999e-01
5.184360615e-01,1.45070e-02,9.99999e-01,9.99999e-01,9.99999e-01,1.45070e-02,9.99999e-01
5.210282418e-01,1.57721e-02,9.99999e-01,9.99999e-01,9.99999e-01,1.57721e-02,9.99999e-01
5.236333830e-01,1.71193e-02,9.99999e-01,9.99999e-01,9.99999e-01,1.71193e-02,9.99999e-01
5.262515499e-01,1.85515e-02,9.99999e-01,9.99999e-01,9.99999e-01,1.85515e-02,9.99999e-01
5.288828077e-01,2.00717e-02,9.99999e-01,9.99999e-01,9.99999e-01,2.00717e-02,9.99999e-01
5.315272217e-01,2.16826e-02,9.99999e-01,9.99999e-01,9.99999e-01,2.16826e-02,9.99999e-01
5.341848578e-01,2.33872e-02,9.99999e-01,9.99999e-01,9.99999e-01,2.33872e-02,9.99999e-01
5.368557821e-01,2.51880e-02,9.99999e-01,9.99999e-01,9.99999e-01,2.51880e-02,9.99999e-01
5.395400610e-01,2.70879e-02,9.99999e-01,9.99999e-01,9.99999e-01,2.70879e-02,9.99999e-01
5.422377613e-01,2.90892e-02,9.99999e-01,9.99999e-01,9.99999e-01,2.90892e-02,9.99999e-01
5.449489501e-01,3.11944e-02,9.99999e-01,9.99999e-01,9.99999e-01,3.11944e-02,9.99999e-01
5.476736949e-01,3.34058e-02,9.99999e-01,9.99999e-01,9.99999e-01,3.34058e-02,9.99999e-01
5.504120634e-01,3.57256e-02,9.99999e-01,9.99999e-01,9.99999e-01,3.57256e-02,9.99999e-01
5.531641237e-01,3.81560e-02,9.99999e-01,9.99999e-01,9.99999e-01,3.81560e-02,9.99999e-01
5.559299443e-01,4.06986e-02,9.99999e-01,9.99999e-01,9.99999e-01,4.06986e-02,9.99999e-01
5.587095940e-01,4.33555e-02,9.99999e-01,9.99999e-01,9.99999e-01,4.33555e-02,9.99999e-01
5.615031420e-01,4.61281e-02,9.99999e-01,9.99999e-01,9.99999e-01,4.61281e-02,9.99999e-01
5.643106577e-01,4.90180e-02,9.99999e-01,9.99999e-01,9.99999e-01,4.90180e-02,9.99999e-01
5.671322110e-01,5.20265e-02,9.99999e-01,9.99999e-01,9.99999e-01,5.20265e-02,9.99999e-01
5.699678720e-01,5.51547e-02,9.99999e-01,9.99999e-01,9.99999e-01,5.51547e-02,9.99999e-01
5.728177114e-01,5.84035e-02,9.99999e-01,9.99999e-01,9.99999e-01,5.84035e-02,9.99999e-01
5.756818000e-01,6.17739e-02,9.99999e-01,9.99999e-01,9.99999e-01,6.17739e-02,9.99999e-01
5.785602090e-01,6.52664e-02,9.99999e-01,9.99999e-01,9.99999e-01,6.52664e-02,9.99999e-01
5.814530100e-01,6.88815e-02,9.99999e-01,9.99999e-01,9.99999e-01,6.88815e-02,9.99999e-01
5.843602750e-01,7.26194e-02,9.99999e-01,9.99999e-01,9.99999e-01,7.26194e-02,9.99999e-01
5.872820764e-01,7.64804e-02,9.99999e-01,9.99999e-01,9.99999e-01,7.64804e-02,9.99999e-01
5.902184868e-01,8.04642e-02,9.99999e-01,9.99999e-01,9.99999e-01,8.04642e-02,9.99999e-01
5.931695792e-01,8.45706e-02,9.99999e-01,9.99999e-01,9.99999e-01,8.45706e-02,9.99999e-01
5.961354271e-01,8.87993e-02,9.99999e-01,9.99999e-01,9.99999e-01,8.87993e-02,9.99999e-01
5.991161043e-01,9.31496e-02,9.99999e-01,9.99999e-01,9.99999e-01,9.31496e-02,9.99999e-01
6.021116848e-01,9.76208e-02,9.99999e-01,9.99999e-01,9.99999e-01,9.76208e-02,9.99999e-01
6.051222432e-01,1.02212e-01,9.99999e-01,9.99999e-01,9.99999e-01,1.02212e-01,9.99999e-01
6.081478544e-01,1.06922e-01,9.99999e-01,9.99999e-01,9.99999e-01,1.06922e-01,9.99999e-01
6.111885937e-01,1.11749e-01,9.99999e-01,9.99999e-01,9.99999e-01,1.11749e-01,9.99999e-01
6.142445367e-01,1.16693e-01,9.99999e-01,9.99999e-01,9.99999e-01,1.16693e-01,9.99999e-01
6.173157594e-01,1.21751e-01,9.99999e-01,9.99999e-01,9.99999e-01,1.21751e-01,9.99999e-01
6.204023382e-01,1.26922e-01,9.99999e-01,9.99999e-01,9.99999e-01,1.26922e-01,9.99999e-01
6.235043498e-01,1.32204e-01,9.99999e-01,9.99999e-01,9.99999e-01,1.32204e-01,9.99999e-01
6.266218716e-01,1.37595e-01,9.99999e-01,9.99999e-01,9.99999e-01,1.37595e-01,9.99999e-01
6.297549810e-01,1.43092e-01,9.99999e-01,9.99999e-01,9.99999e-01,1.43092e-01,9.99999e-01
6.329037559e-01,1.48694e-01,9.99999e-01,9.99999e-01,9.99999e-01,1.48694e-01,9.99999e-01
6.360682746e-01,1.54399e-01,9.99999e-01,9.99999e-01,9.99999e-01,1.54399e-01,9.99999e-01
6.392486160e-01,1.60203e-01,9.99999e-01,9.99999e-01,9.99999e-01,1.60203e-01,9.99999e-01
6.424448591e-01,1.66104e-01,9.99999e-01,9.99999e-01,9.99999e-01,1.66104e-01,9.99999e-01
6.456570834e-01,1.72099e-01,9.99999e-01,9.99999e-01,9.99999e-01,1.72099e-01,9.99999e-01
6.488853688e-01,1.78186e-01,9.99999e-01,9.99999e-01,9.99999e-01,1.78186e-01,9.99999e-01
6.521297956e-01,1.84362e-01,9.99999e-01,9.99999e-01,9.99999e-01,1.84362e-01,9.99999e-01
6.553904446e-01,1.90624e-01,9.99999e-01,9.99999e-01,9.99999e-01,1.90624e-01,9.99999e-01
6.586673968e-01,1.96968e-01,9.99999e-01,9.99999e-01,9.99999e-01,1.96968e-01,9.99999e-01
6.619607338e-01,2.03391e-01,9.99999e-01,9.99999e-01,9.99999e-01,2.03391e-01,9.99999e-01
6.652705375e-01,2.09891e-01,9.99999e-01,9.99999e-01,9.99999e-01,2.09891e-01,9.99999e-01
6.685968902e-01,2.16465e-01,9.99999e-01,9.99999e-01,9.99999e-01,2.16465e-01,9.99999e-01
6.719398746e-01,2.23108e-01,9.99999e-01,9.99999e-01,9.99999e-01,2.23108e-01,9.99999e-01
6.752995740e-01,2.29817e-01,9.99999e-01,9.99999e-01,9.99999e-01,2.29817e-01,9.99999e-01
6.786760719e-01,2.36590e-01,9.99999e-01,9.99999e-01,9.99999e-01,2.36590e-01,9.99999e-01
6.820694522e-01,2.43423e-01,9.99999e-01,9.99999e-01,9.99999e-01,2.43423e-01,9.99999e-01
6.854797995e-01,2.50313e-01,9.99999e-01,9.99999e-01,9.99999e-01,2.50313e-01,9.99999e-01
6.889071985e-01,2.57255e-01,9.99999e-01,9.99999e-01,9.99999e-01,2.57255e-01,9.99999e-01
6.923517345e-01,2.64248e-01,9.99999e-01,9.99999e-01,9.99999e-01,2.64248e-01,9.99999e-01
6.958134932e-01,2.71286e-01,9.99999e-01,9.99999e-01,9.99999e-01,2.71286e-01,9.99999e-01
6.992925606e-01,2.78368e-01,9.99999e-01,9.99999e-01,9.99999e-01,2.78368e-01,9.99999e-01
7.027890234e-01,2.85489e-01,9.99999e-01,9.99999e-01,9.99999e-01,2.85489e-01,9.99999e-01
7.063029686e-01,2.92646e-01,9.99999e-01,9.99999e-01,9.99999e-01,2.92646e-01,9.99999e-01
7.098344834e-01,2.99836e-01,9.99999e-01,9.99999e-01,9.99999e-01,2.99836e-01,9.99999e-01
7.133836558e-01,3.07055e-01,9.99999e-01,9.99999e-01,9.99999e-01,3.07055e-01,9.99999e-01
7.169505741e-01,3.14301e-01,9.99999e-01,9.99999e-01,9.99999e-01,3.14301e-01,9.99999e-01
7.205353270e-01,3.21569e-01,9.99999e-01,9.99999e-01,9.99999e-01,3.21569e-01,9.99999e-01
7.241380036e-01,3.28857e-01,9.99999e-01,9.99999e-01,9.99999e-01,3.28857e-01,9.99999e-01
7.277586936e-01,3.36161e-01,9.99999e-01,9.99999e-01,9.99999e-01,3.36161e-01,9.99999e-01
7.313974871e-01,3.43478e-01,9.99999e-01,9.99999e-01,9.99999e-01,3.43478e-01,9.99999e-01
7.350544745e-01,3.50805e-01,9.99999e-01,9.99999e-01,9.99999e-01,3.50805e-01,9.99999e-01
7.387297469e-01,3.58139e-01,9.99999e-01,9.99999e-01,9.99999e-01,3.58139e-01,9.99999e-01
7.424233956e-01,3.65477e-01,9.99999e-01,9.99999e-01,9.99999e-01,3.65477e-01,9.99999e-01
7.461355126e-01,3.72817e-01,9.99999e-01,9.99999e-01,9.99999e-01,3.72817e-01,9.99999e-01
7.498661902e-01,3.80154e-01,9.99999e-01,9.99999e-01,9.99999e-01,3.80154e-01,9.99999e-01
7.536155211e-01,3.87486e-01,9.99999e-01,9.99999e-01,9.99999e-01,3.87486e-01,9.99999e-01
7.573835987e-01,3.94811e-01,9.99999e-01,9.99999e-01,9.99999e-01,3.94811e-01,9.99999e-01
7.611705167e-01,4.02125e-01,9.99999e-01,9.99999e-01,9.99999e-01,4.02125e-01,9.99999e-01
7.649763693e-01,4.09427e-01,9.99999e-01,9.99999e-01,9.99999e-01,4.09427e-01,9.99999e-01
7.688012511e-01,4.16713e-01,9.99999e-01,9.99999e-01,9.99999e-01,4.16713e-01,9.99999e-01
7.726452574e-01,4.23980e-01,9.99999e-01,9.99999e-01,9.99999e-01,4.23980e-01,9.99999e-01
7.765084837e-01,4.31228e-01,9.99999e-01,9.99999e-01,9.99999e-01,4.31228e-01,9.99999e-01
7.803910261e-01,4.22424e-01,9.99999e-01,9.99999e-01,9.63442e-01,4.38452e-01,9.99999e-01
7.842929812e-01,3.75516e-01,9.99999e-01,9.99999e-01,8.42621e-01,4.45651e-01,9.99999e-01
7.882144461e-01,3.77347e-01,9.99999e-01,9.99999e-01,8.33322e-01,4.52823e-01,9.99999e-01
7.921555184e-01,4.13421e-01,9.99999e-01,9.99999e-01,8.98809e-01,4.59965e-01,9.99999e-01
7.961162960e-01,4.34690e-01,9.99999e-01,9.99999e-01,9.30663e-01,4.67075e-01,9.99999e-01
8.000968774e-01,4.56060e-01,9.99999e-01,9.99999e-01,9.61845e-01,4.74151e-01,9.99999e-01
8.040973618e-01,4.71564e-01,9.99999e-01,9.99999e-01,9.79991e-01,4.81192e-01,9.99999e-01
8.081178486e-01,4.83701e-01,9.99999e-01,9.99999e-01,9.90794e-01,4.88195e-01,9.99999e-01
8.121584379e-01,4.93738e-01,9.99999e-01,9.99999e-01,9.97130e-01,4.95159e-01,9.99999e-01
8.162192301e-01,5.01763e-01,9.99999e-01,9.99999e-01,9.99365e-01,5.02081e-01,9.99999e-01
8.203003262e-01,5.08956e-01,9.99999e-01,9.99999e-01,9.99989e-01,5.08961e-01,9.99999e-01
8.244018279e-01,5.15796e-01,9.99999e-01,9.99999e-01,9.99999e-01,5.15796e-01,9.99999e-01
8.285238370e-01,5.22585e-01,9.99999e-01,9.99999e-01,9.99999e-01,5.22585e-01,9.99999e-01
8.326664562e-01,5.29327e-01,9.99999e-01,9.99999e-01,9.99999e-01,5.29327e-01,9.99999e-01
8.368297885e-01,5.36021e-01,9.99999e-01,9.99999e-01,9.99999e-01,5.36021e-01,9.99999e-01
8.410139374e-01,5.42664e-01,9.99999e-01,9.99999e-01,9.99999e-01,5.42664e-01,9.99999e-01
8.452190071e-01,5.49256e-01,9.99999e-01,9.99999e-01,9.99999e-01,5.49256e-01,9.99999e-01
8.494451021e-01,5.55795e-01,9.99999e-01,9.99999e-01,9.99999e-01,5.55795e-01,9.99999e-01
8.536923276e-01,5.62281e-01,9.99999e-01,9.99999e-01,9.99999e-01,5.62281e-01,9.99999e-01
8.579607893e-01,5.68712e-01,9.99999e-01,9.99999e-01,9.99999e-01,5.68712e-01,9.99999e-01
8.622505932e-01,5.75087e-01,9.99999e-01,9.99999e-01,9.99999e-01,5.75087e-01,9.99999e-01
8.665618462e-01,5.35921e-01,9.99999e-01,9.99999e-01,9.21767e-01,5.81406e-01,9.99999e-01
8.708946554e-01,3.81523e-01,9.99999e-01,9.99999e-01,6.49215e-01,5.87667e-01,9.99999e-01
8.752491287e-01,4.18495e-01,9.99999e-01,9.99999e-01,7.04690e-01,5.93871e-01,9.99999e-01
8.796253743e-01,4.94763e-01,9.99999e-01,9.99999e-01,8.24584e-01,6.00015e-01,9.99999e-01
8.840235012e-01,5.48369e-01,9.99999e-01,9.99999e-01,9.04750e-01,6.06099e-01,9.99999e-01
8.884436187e-01,5.88374e-01,9.99999e-01,9.99999e-01,9.61201e-01,6.12124e-01,9.99999e-01
8.928858368e-01,6.08279e-01,9.99999e-01,9.99999e-01,9.84130e-01,6.18087e-01,9.99999e-01
8.973502660e-01,6.21559e-01,9.99999e-01,9.99999e-01,9.96105e-01,6.23989e-01,9.99999e-01
9.018370173e-01,6.29558e-01,9.99999e-01,9.99999e-01,9.99569e-01,6.29829e-01,9.99999e-01
9.063462024e-01,6.28790e-01,9.99999e-01,9.99999e-01,9.89275e-01,6.35607e-01,9.99999e-01
9.108779334e-01,6.25355e-01,9.99999e-01,9.99999e-01,9.75103e-01,6.41322e-01,9.99999e-01
9.154323231e-01,6.43132e-01,9.99999e-01,9.99999e-01,9.94061e-01,6.46974e-01,9.99999e-01
9.200094847e-01,5.99835e-01,9.99999e-01,9.99999e-01,9.19198e-01,6.52562e-01,9.99999e-01
9.246095321e-01,5.81771e-01,9.99999e-01,9.99999e-01,8.84032e-01,6.58088e-01,9.99999e-01
9.292325798e-01,6.02960e-01,9.99999e-01,9.99999e-01,9.08688e-01,6.63549e-01,9.99999e-01
9.338787427e-01,6.09354e-01,9.99999e-01,9.99999e-01,9.10915e-01,6.68947e-01,9.99999e-01
9.385481364e-01,6.29588e-01,9.99999e-01,9.99999e-01,9.33717e-01,6.74280e-01,9.99999e-01
9.432408771e-01,6.51539e-01,9.99999e-01,9.99999e-01,9.58780e-01,6.79550e-01,9.99999e-01
9.479570815e-01,6.70157e-01,9.99999e-01,9.99999e-01,9.78681e-01,6.84755e-01,9.99999e-01
9.526968669e-01,6.82758e-01,9.99999e-01,9.99999e-01,9.89651e-01,6.89896e-01,9.99999e-01
9.574603512e-01,6.91889e-01,9.99999e-01,9.99999e-01,9.95560e-01,6.94974e-01,9.99999e-01
9.622476530e-01,6.99016e-01,9.99999e-01,9.99999e-01,9.98612e-01,6.99987e-01,9.99999e-01
9.670588912e-01,7.04643e-01,9.99999e-01,9.99999e-01,9.99583e-01,7.04936e-01,9.99999e-01
9.718941857e-01,7.09800e-01,9.99999e-01,9.99999e-01,9.99969e-01,7.09821e-01,9.99999e-01
9.767536566e-01,7.14643e-01,9.99999e-01,9.99999e-01,9.99999e-01,7.14643e-01,9.99999e-01
9.816374249e-01,7.19402e-01,9.99999e-01,9.99999e-01,9.99999e-01,7.19402e-01,9.99999e-01
9.865456120e-01,7.24097e-01,9.99999e-01,9.99999e-01,9.99999e-01,7.24097e-01,9.99999e-01
9.914783401e-01,7.28729e-01,9.99999e-01,9.99999e-01,9.99999e-01,7.28729e-01,9.99999e-01
9.964357318e-01,7.33298e-01,9.99999e-01,9.99999e-01,9.99999e-01,7.33298e-01,9.99999e-01
1.001417910e+00,7.37805e-01,9.99999e-01,9.99999e-01,9.99999e-01,7.37805e-01,9.99999e-01
1.006425000e+00,7.42250e-01,9.99999e-01,9.99999e-01,9.99999e-01,7.42250e-01,9.99999e-01
1.011457125e+00,7.46633e-01,9.99999e-01,9.99999e-01,9.99999e-01,7.46633e-01,9.99999e-01
1.016514411e+00,7.50954e-01,9.99999e-01,9.99999e-01,9.99999e-01,7.50954e-01,9.99999e-01
1.021596983e+00,7.55175e-01,9.99999e-01,9.99999e-01,9.99946e-01,7.55215e-01,9.99999e-01
1.026704968e+00,7.56236e-01,9.99999e-01,9.99999e-01,9.95814e-01,7.59414e-01,9.99999e-01
1.031838492e+00,7.28635e-01,9.99999e-01,9.99999e-01,9.54267e-01,7.63554e-01,9.99999e-01
1.036997685e+00,1.05597e-01,9.99999e-01,9.99999e-01,1.37562e-01,7.67633e-01,9.99999e-01
1.042182673e+00,7.12209e-02,9.99999e-01,9.99999e-01,9.22963e-02,7.71653e-01,9.99999e-01
1.047393587e+00,9.14859e-02,9.99999e-01,9.99999e-01,1.17953e-01,7.75615e-01,9.99999e-01
1.052630555e+00,1.70320e-03,9.99999e-01,9.99999e-01,2.18494e-03,7.79517e-01,9.99999e-01
1.057893707e+00,4.55369e-03,9.99999e-01,9.99999e-01,5.81300e-03,7.83362e-01,9.99999e-01
1.063183176e+00,1.75013e-02,9.99999e-01,9.99999e-01,2.22338e-02,7.87149e-01,9.99999e-01
1.068499092e+00,5.51228e-02,9.99999e-01,9.99999e-01,6.96981e-02,7.90879e-01,9.99999e-01
1.073841587e+00,1.46808e-01,9.99999e-01,9.99999e-01,1.84768e-01,7.94553e-01,9.99999e-01
1.079210795e+00,2.73951e-01,9.99999e-01,9.99999e-01,3.43223e-01,7.98170e-01,9.99999e-01
1.084606849e+00,4.44101e-01,9.99999e-01,9.99999e-01,5.53927e-01,8.01732e-01,9.99999e-01
1.090029883e+00,5.92567e-01,9.99999e-01,9.99999e-01,7.35889e-01,8.05239e-01,9.99999e-01
1.095480033e+00,6.95145e-01,9.99999e-01,9.99999e-01,8.59590e-01,8.08692e-01,9.99999e-01
1.100957433e+00,7.54996e-01,9.99999e-01,9.99999e-01,9.29693e-01,8.12091e-01,9.99999e-01
1.106462220e+00,7.91200e-01,9.99999e-01,9.99999e-01,9.70277e-01,8.15437e-01,9.99999e-01
1.111994531e+00,8.09625e-01,9.99999e-01,9.99999e-01,9.88879e-01,8.18729e-01,9.99999e-01
1.117554504e+00,8.19723e-01,9.99999e-01,9.99999e-01,9.97264e-01,8.21970e-01,9.99999e-01
1.123142276e+00,8.25011e-01,9.99999e-01,9.99999e-01,9.99819e-01,8.25159e-01,9.99999e-01
1.128757988e+00,8.28298e-01,9.99999e-01,9.99999e-01,9.99999e-01,8.28298e-01,9.99999e-01
1.134401778e+00,8.31386e-01,9.99999e-01,9.99999e-01,9.99999e-01,8.31386e-01,9.99999e-01
1.140073787e+00,8.34424e-01,9.99999e-01,9.99999e-01,9.99999e-01,8.34424e-01,9.99999e-01
1.145774156e+00,8.37412e-01,9.99999e-01,9.99999e-01,9.99999e-01,8.37412e-01,9.99999e-01
1.151503026e+00,8.40353e-01,9.99999e-01,9.99999e-01,9.99999e-01,8.40353e-01,9.99999e-01
1.157260541e+00,8.43245e-01,9.99999e-01,9.99999e-01,9.99999e-01,8.43245e-01,9.99999e-01
1.163046844e+00,8.46089e-01,9.99999e-01,9.99999e-01,9.99999e-01,8.46089e-01,9.99999e-01
1.168862078e+00,8.48887e-01,9.99999e-01,9.99999e-01,9.99999e-01,8.48887e-01,9.99999e-01
1.174706389e+00,8.51638e-01,9.99999e-01,9.99999e-01,9.99999e-01,8.51638e-01,9.99999e-01
1.180579921e+00,8.54344e-01,9.99999e-01,9.99999e-01,9.99999e-01,8.54344e-01,9.99999e-01
1.186482820e+00,8.57000e-01,9.99999e-01,9.99999e-01,9.99993e-01,8.57005e-01,9.99999e-01
1.192415234e+00,8.46923e-01,9.99999e-01,9.99999e-01,9.85227e-01,8.59621e-01,9.99999e-01
1.198377311e+00,4.81782e-01,9.99999e-01,9.99999e-01,5.58786e-01,8.62193e-01,9.99999e-01
1.204369197e+00,1.98258e-12,9.99999e-01,9.99999e-01,2.29274e-12,8.64722e-01,9.99999e-01
1.210391043e+00,5.54466e-46,9.99999e-01,9.99999e-01,6.39368e-46,8.67208e-01,9.99999e-01
1.216442998e+00,5.54391e-40,9.99999e-01,9.99999e-01,6.37485e-40,8.69652e-01,9.99999e-01
1.222525213e+00,2.10232e-39,9.99999e-01,9.99999e-01,2.41076e-39,8.72055e-01,9.99999e-01
1.228637839e+00,1.59813e-30,9.99999e-01,9.99999e-01,1.82765e-30,8.74416e-01,9.99999e-01
