#,Wave/freq,Total,N2,O2,CO2,Rayleigh,CIA
4.000000000e-01,1.72491e-15,9.99999e-01,9.99999e-01,9.99999e-01,1.72491e-15,9.99999e-01
4.020000000e-01,3.37812e-15,9.99999e-01,9.99999e-01,9.99999e-01,3.37812e-15,9.99999e-01
4.040100000e-01,6.52408e-15,9.99999e-01,9.99999e-01,9.99999e-01,6.52408e-15,9.99999e-01
4.060300500e-01,1.24371e-14,9.99999e-01,9.99999e-01,9.99999e-01,1.24371e-14,9.99999e-01
4.080602003e-01,2.34089e-14,9.99999e-01,9.99999e-01,9.99999e-01,2.34089e-14,9.99999e-01
4.101005013e-01,4.35131e-14,9.99999e-01,9.99999e-01,9.99999e-01,4.35131e-14,9.99999e-01
4.121510038e-01,7.98988e-14,9.99999e-01,9.99999e-01,9.99999e-01,7.98988e-14,9.99999e-01
4.142117588e-01,1.44960e-13,9.99999e-01,9.99999e-01,9.99999e-01,1.44960e-13,9.99999e-01
4.162828176e-01,2.59923e-13,9.99999e-01,9.99999e-01,9.99999e-01,2.59923e-13,9.99999e-01
4.183642317e-01,4.60715e-13,9.99999e-01,9.99999e-01,9.99999e-01,4.60715e-13,9.99999e-01
4.204560528e-01,8.07440e-13,9.99999e-01,9.99999e-01,9.99999e-01,8.07440e-13,9.99999e-01
4.225583331e-01,1.39951e-12,9.99999e-01,9.99999e-01,9.99999e-01,1.39951e-12,9.99999e-01
4.246711247e-01,2.39950e-12,9.99999e-01,9.99999e-01,9.99999e-01,2.39950e-12,9.99999e-01
4.267944804e-01,4.07045e-12,9.99999e-01,9.99999e-01,9.99999e-01,4.07045e-12,9.99999e-01
4.289284528e-01,6.83330e-12,9.99999e-01,9.99999e-01,9.99999e-01,6.83330e-12,9.99999e-01
4.310730950e-01,1.13547e-11,9.99999e-01,9.99999e-01,9.99999e-01,1.13547e-11,9.99999e-01
4.332284605e-01,1.86793e-11,9.99999e-01,9.99999e-01,9.99999e-01,1.86793e-11,9.99999e-01
4.353946028e-01,3.04284e-11,9.99999e-01,9.99999e-01,9.99999e-01,3.04284e-11,9.99999e-01
4.375715758e-01,4.90919e-11,9.99999e-01,9.99999e-01,9.99999e-01,4.90919e-11,9.99999e-01
4.397594337e-01,7.84582e-11,9.99999e-01,9.99999e-01,9.99999e-01,7.84582e-11,9.99999e-01
4.419582309e-01,1.24235e-10,9.99999e-01,9.99999e-01,9.99999e-01,1.24235e-10,9.99999e-01
4.441680220e-01,1.94943e-10,9.99999e-01,9.99999e-01,9.99999e-01,1.94943e-10,9.99999e-01
4.463888621e-01,3.03184e-10,9.99999e-01,9.99999e-01,9.99999e-01,3.03184e-10,9.99999e-01
4.486208064e-01,4.67429e-10,9.99999e-01,9.99999e-01,9.99999e-01,4.67429e-10,9.99999e-01
4.508639105e-01,7.14516e-10,9.99999e-01,9.99999e-01,9.99999e-01,7.14516e-10,9.99999e-01
4.531182300e-01,1.08310e-09,9.99999e-01,9.99999e-01,9.99999e-01,1.08310e-09,9.99999e-01
4.553838212e-01,1.62838e-09,9.99999e-01,9.99999e-01,9.99999e-01,1.62838e-09,9.99999e-01
4.576607403e-01,2.42854e-09,9.99999e-01,9.99999e-01,9.99999e-01,2.42854e-09,9.99999e-01
4.599490440e-01,3.59340e-09,9.99999e-01,9.99999e-01,9.99999e-01,3.59340e-09,9.99999e-01
4.622487892e-01,5.27601e-09,9.99999e-01,9.99999e-01,9.99999e-01,5.27601e-09,9.99999e-01
4.645600332e-01,7.68795e-09,9.99999e-01,9.99999e-01,9.99999e-01,7.68795e-09,9.99999e-01
4.668828333e-01,1.11195e-08,9.99999e-01,9.99999e-01,9.99999e-01,1.11195e-08,9.99999e-01
4.692172475e-01,1.59660e-08,9.99999e-01,9.99999e-01,9.99999e-01,1.59660e-08,9.99999e-01
4.715633337e-01,2.27615e-08,9.99999e-01,9.99999e-01,9.99999e-01,2.27615e-08,9.99999e-01
4.739211504e-01,3.22230e-08,9.99999e-01,9.99999e-01,9.99999e-01,3.22230e-08,9.99999e-01
4.762907561e-01,4.53052e-08,9.99999e-01,9.99999e-01,9.99999e-01,4.53052e-08,9.99999e-01
4.786722099e-01,6.32714e-08,9.99999e-01,9.99999e-01,9.99999e-01,6.32714e-08,9.99999e-01
4.810655710e-01,8.77811e-08,9.99999e-01,9.99999e-01,9.99999e-01,8.77811e-08,9.99999e-01
4.834708988e-01,1.21000e-07,9.99999e-01,9.99999e-01,9.99999e-01,1.21000e-07,9.99999e-01
4.858882533e-01,1.65737e-07,9.99999e-01,9.99999e-01,9.99999e-01,1.65737e-07,9.99999e-01
4.883176946e-01,2.25607e-07,9.99999e-01,9.99999e-01,9.99999e-01,2.25607e-07,9.99999e-01
4.907592831e-01,3.05239e-07,9.99999e-01,9.99999e-01,9.99999e-01,3.05239e-07,9.99999e-01
4.932130795e-01,4.10520e-07,9.99999e-01,9.99999e-01,9.99999e-01,4.10520e-07,9.99999e-01
4.956791449e-01,5.48892e-07,9.99999e-01,9.99999e-01,9.99999e-01,5.48892e-07,9.99999e-01
4.981575406e-01,7.29705e-07,9.99999e-01,9.99999e-01,9.99999e-01,7.29705e-07,9.99999e-01
5.006483283e-01,9.64640e-07,9.99999e-01,9.99999e-01,9.99999e-01,9.64640e-07,9.99999e-01
5.031515699e-01,1.26820e-06,9.99999e-01,9.99999e-01,9.99999e-01,1.26820e-06,9.99999e-01
5.056673278e-01,1.65831e-06,9.99999e-01,9.99999e-01,9.99999e-01,1.65831e-06,9.99999e-01
5.081956644e-01,2.15696e-06,9.99999e-01,9.99999e-01,9.99999e-01,2.15696e-06,9.99999e-01
5.107366428e-01,2.79102e-06,9.99999e-01,9.99999e-01,9.99999e-01,2.79102e-06,9.99999e-01
5.132903260e-01,3.59312e-06,9.99999e-01,9.99999e-01,9.99999e-01,3.59312e-06,9.99999e-01
5.158567776e-01,4.60273e-06,9.99999e-01,9.99999e-01,9.99999e-01,4.60273e-06,9.99999e-01
5.184360615e-01,5.86724e-06,9.99999e-01,9.99999e-01,9.99999e-01,5.86724e-06,9.99999e-01
5.210282418e-01,7.44338e-06,9.99999e-01,9.99999e-01,9.99999e-01,7.44338e-06,9.99999e-01
5.236333830e-01,9.39865e-06,9.99999e-01,9.99999e-01,9.99999e-01,9.39865e-06,9.99999e-01
5.262515499e-01,1.18130e-05,9.99999e-01,9.99999e-01,9.99999e-01,1.18130e-05,9.99999e-01
5.288828077e-01,1.47806e-05,9.99999e-01,9.99999e-01,9.99999e-01,1.47806e-05,9.99999e-01
5.315272217e-01,1.84121e-05,9.99999e-01,9.99999e-01,9.99999e-01,1.84121e-05,9.99999e-01
5.341848578e-01,2.28365e-05,9.99999e-01,9.99999e-01,9.99999e-01,2.28365e-05,9.99999e-01
5.368557821e-01,2.82038e-05,9.99999e-01,9.99999e-01,9.99999e-01,2.82038e-05,9.99999e-01
5.395400610e-01,3.46877e-05,9.99999e-01,9.99999e-01,9.99999e-01,3.46877e-05,9.99999e-01
5.422377613e-01,4.24882e-05,9.99999e-01,9.99999e-01,9.99999e-01,4.24882e-05,9.99999e-01
5.449489501e-01,5.18347e-05,9.99999e-01,9.99999e-01,9.99999e-01,5.18347e-05,9.99999e-01
5.476736949e-01,6.29894e-05,9.99999e-01,9.99999e-01,9.99999e-01,6.29894e-05,9.99999e-01
5.504120634e-01,7.62504e-05,9.99999e-01,9.99999e-01,9.99999e-01,7.62504e-05,9.99999e-01
5.531641237e-01,9.19556e-05,9.99999e-01,9.99999e-01,9.99999e-01,9.19556e-05,9.99999e-01
5.559299443e-01,1.10486e-04,9.99999e-01,9.99999e-01,9.99999e-01,1.10486e-04,9.99999e-01
5.587095940e-01,1.32270e-04,9.99999e-01,9.99999e-01,9.99999e-01,1.32270e-04,9.99999e-01
5.615031420e-01,1.57788e-04,9.99999e-01,9.99999e-01,9.99999e-01,1.57788e-04,9.99999e-01
5.643106577e-01,1.87573e-04,9.99999e-01,9.99999e-01,9.99999e-01,1.87573e-04,9.99999e-01
5.671322110e-01,2.22221e-04,9.99999e-01,9.99999e-01,9.99999e-01,2.22221e-04,9.99999e-01
5.699678720e-01,2.62388e-04,9.99999e-01,9.99999e-01,9.99999e-01,2.62388e-04,9.99999e-01
5.728177114e-01,3.08801e-04,9.99999e-01,9.99999e-01,9.99999e-01,3.08801e-04,9.99999e-01
5.756818000e-01,3.62257e-04,9.99999e-01,9.99999e-01,9.99999e-01,3.62257e-04,9.99999e-01
5.785602090e-01,4.23628e-04,9.99999e-01,9.99999e-01,9.99999e-01,4.23628e-04,9.99999e-01
5.814530100e-01,4.93867e-04,9.99999e-01,9.99999e-01,9.99999e-01,4.93867e-04,9.99999e-01
5.843602750e-01,5.74010e-04,9.99999e-01,9.99999e-01,9.99999e-01,5.74010e-04,9.99999e-01
5.872820764e-01,6.65179e-04,9.99999e-01,9.99999e-01,9.99999e-01,6.65179e-04,9.99999e-01
5.902184868e-01,7.68588e-04,9.99999e-01,9.99999e-01,9.99999e-01,7.68588e-04,9.99999e-01
5.931695792e-01,8.85541e-04,9.99999e-01,9.99999e-01,9.99999e-01,8.85541e-04,9.99999e-01
5.961354271e-01,1.01744e-03,9.99999e-01,9.99999e-01,9.99999e-01,1.01744e-03,9.99999e-01
5.991161043e-01,1.16578e-03,9.99999e-01,9.99999e-01,9.99999e-01,1.16578e-03,9.99999e-01
6.021116848e-01,1.33217e-03,9.99999e-01,9.99999e-01,9.99999e-01,1.33217e-03,9.99999e-01
6.051222432e-01,1.51830e-03,9.99999e-01,9.99999e-01,9.99999e-01,1.51830e-03,9.99999e-01
6.081478544e-01,1.72596e-03,9.99999e-01,9.99999e-01,9.99999e-01,1.72596e-03,9.99999e-01
6.111885937e-01,1.95707e-03,9.99999e-01,9.99999e-01,9.99999e-01,1.95707e-03,9.99999e-01
6.142445367e-01,2.21363e-03,9.99999e-01,9.99999e-01,9.99999e-01,2.21363e-03,9.99999e-01
6.173157594e-01,2.49773e-03,9.99999e-01,9.99999e-01,9.99999e-01,2.49773e-03,9.99999e-01
6.204023382e-01,2.81158e-03,9.99999e-01,9.99999e-01,9.99999e-01,2.81158e-03,9.99999e-01
6.235043498e-01,3.15748e-03,9.99999e-01,9.99999e-01,9.99999e-01,3.15748e-03,9.99999e-01
6.266218716e-01,3.53781e-03,9.99999e-01,9.99999e-01,9.99999e-01,3.53781e-03,9.99999e-01
6.297549810e-01,3.95506e-03,9.99999e-01,9.99999e-01,9.99999e-01,3.95506e-03,9.99999e-01
6.329037559e-01,4.41179e-03,9.99999e-01,9.99999e-01,9.99999e-01,4.41179e-03,9.99999e-01
6.360682746e-01,4.91066e-03,9.99999e-01,9.99999e-01,9.99999e-01,4.91066e-03,9.99999e-01
6.392486160e-01,5.45438e-03,9.99999e-01,9.99999e-01,9.99999e-01,5.45438e-03,9.99999e-01
6.424448591e-01,6.04575e-03,9.99999e-01,9.99999e-01,9.99999e-01,6.04575e-03,9.99999e-01
6.456570834e-01,6.68763e-03,9.99999e-01,9.99999e-01,9.99999e-01,6.68763e-03,9.99999e-01
6.488853688e-01,7.38292e-03,9.99999e-01,9.99999e-01,9.99999e-01,7.38292e-03,9.99999e-01
6.521297956e-01,8.13460e-03,9.99999e-01,9.99999e-01,9.99999e-01,8.13460e-03,9.99999e-01
6.553904446e-01,8.94566e-03,9.99999e-01,9.99999e-01,9.99999e-01,8.94566e-03,9.99999e-01
6.586673968e-01,9.81913e-03,9.99999e-01,9.99999e-01,9.99999e-01,9.81913e-03,9.99999e-01
6.619607338e-01,1.07581e-02,9.99999e-01,9.99999e-01,9.99999e-01,1.07581e-02,9.99999e-01
6.652705375e-01,1.17656e-02,9.99999e-01,9.99999e-01,9.99999e-01,1.17656e-02,9.99999e-01
6.685968902e-01,1.28447e-02,9.99999e-01,9.99999e-01,9.99999e-01,1.28447e-02,9.99999e-01
6.719398746e-01,1.39985e-02,9.99999e-01,9.99999e-01,9.99999e-01,1.39985e-02,9.99999e-01
6.752995740e-01,1.52300e-02,9.99999e-01,9.99999e-01,9.99999e-01,1.52300e-02,9.99999e-01
6.786760719e-01,1.65423e-02,9.99999e-01,9.99999e-01,9.99999e-01,1.65423e-02,9.99999e-01
6.820694522e-01,1.79384e-02,9.99999e-01,9.99999e-01,9.99999e-01,1.79384e-02,9.99999e-01
6.854797995e-01,1.94212e-02,9.99999e-01,9.99999e-01,9.99999e-01,1.94212e-02,9.99999e-01
6.889071985e-01,2.09935e-02,9.99999e-01,9.99999e-01,9.99999e-01,2.09935e-02,9.99999e-01
6.923517345e-01,2.26584e-02,9.99999e-01,9.99999e-01,9.99999e-01,2.26584e-02,9.99999e-01
6.958134932e-01,2.44184e-02,9.99999e-01,9.99999e-01,9.99999e-01,2.44184e-02,9.99999e-01
6.992925606e-01,2.62763e-02,9.99999e-01,9.99999e-01,9.99999e-01,2.62763e-02,9.99999e-01
7.027890234e-01,2.82346e-02,9.99999e-01,9.99999e-01,9.99999e-01,2.82346e-02,9.99999e-01
7.063029686e-01,3.02958e-02,9.99999e-01,9.99999e-01,9.99999e-01,3.02958e-02,9.99999e-01
7.098344834e-01,3.24622e-02,9.99999e-01,9.99999e-01,9.99999e-01,3.24622e-02,9.99999e-01
7.133836558e-01,3.47362e-02,9.99999e-01,9.99999e-01,9.99999e-01,3.47362e-02,9.99999e-01
7.169505741e-01,3.71198e-02,9.99999e-01,9.99999e-01,9.99999e-01,3.71198e-02,9.99999e-01
7.205353270e-01,3.96150e-02,9.99999e-01,9.99999e-01,9.99999e-01,3.96150e-02,9.99999e-01
7.241380036e-01,4.22236e-02,9.99999e-01,9.99999e-01,9.99999e-01,4.22236e-02,9.99999e-01
7.277586936e-01,4.49473e-02,9.99999e-01,9.99999e-01,9.99999e-01,4.49473e-02,9.99999e-01
7.313974871e-01,4.77877e-02,9.99999e-01,9.99999e-01,9.99999e-01,4.77877e-02,9.99999e-01
7.350544745e-01,5.07462e-02,9.99999e-01,9.99999e-01,9.99999e-01,5.07462e-02,9.99999e-01
7.387297469e-01,5.38238e-02,9.99999e-01,9.99999e-01,9.99999e-01,5.38238e-02,9.99999e-01
7.424233956e-01,5.70218e-02,9.99999e-01,9.99999e-01,9.99999e-01,5.70218e-02,9.99999e-01
7.461355126e-01,6.03410e-02,9.99999e-01,9.99999e-01,9.99999e-01,6.03410e-02,9.99999e-01
7.498661902e-01,6.37820e-02,9.99999e-01,9.99999e-01,9.99999e-01,6.37820e-02,9.99999e-01
7.536155211e-01,6.73455e-02,9.99999e-01,9.99999e-01,9.99999e-01,6.73455e-02,9.99999e-01
7.573835987e-01,7.10317e-02,9.99999e-01,9.99999e-01,9.99999e-01,7.10317e-02,9.99999e-01
7.611705167e-01,7.48409e-02,9.99999e-01,9.99999e-01,9.99999e-01,7.48409e-02,9.99999e-01
7.649763693e-01,7.87730e-02,9.99999e-01,9.99999e-01,9.99999e-01,7.87730e-02,9.99999e-01
7.688012511e-01,8.28279e-02,9.99999e-01,9.99999e-01,9.99999e-01,8.28279e-02,9.99999e-01
7.726452574e-01,8.70052e-02,9.99999e-01,9.99999e-01,9.99999e-01,8.70052e-02,9.99999e-01
7.765084837e-01,9.13044e-02,9.99999e-01,9.99999e-01,9.99999e-01,9.13044e-02,9.99999e-01
7.803910261e-01,8.71398e-02,9.99999e-01,9.99999e-01,9.10314e-01,9.57249e-02,9.99999e-01
7.842929812e-01,6.33682e-02,9.99999e-01,9.99999e-01,6.32002e-01,1.00266e-01,9.99999e-01
7.882144461e-01,6.46029e-02,9.99999e-01,9.99999e-01,6.15701e-01,1.04926e-01,9.99999e-01
7.921555184e-01,8.13568e-02,9.99999e-01,9.99999e-01,7.41604e-01,1.09704e-01,9.99999e-01
7.961162960e-01,9.36299e-02,9.99999e-01,9.99999e-01,8.17023e-01,1.14599e-01,9.99999e-01
8.000968774e-01,1.07173e-01,9.99999e-01,9.99999e-01,8.96029e-01,1.19609e-01,9.99999e-01
8.040973618e-01,1.17833e-01,9.99999e-01,9.99999e-01,9.44684e-01,1.24733e-01,9.99999e-01
8.081178486e-01,1.26609e-01,9.99999e-01,9.99999e-01,9.74156e-01,1.29968e-01,9.99999e-01
8.121584379e-01,1.34227e-01,9.99999e-01,9.99999e-01,9.91970e-01,1.35313e-01,9.99999e-01
8.162192301e-01,1.40516e-01,9.99999e-01,9.99999e-01,9.98221e-01,1.40766e-01,9.99999e-01
8.203003262e-01,1.46321e-01,9.99999e-01,9.99999e-01,9.99973e-01,1.46325e-01,9.99999e-01
8.244018279e-01,1.51986e-01,9.99999e-01,9.99999e-01,9.99999e-01,1.51986e-01,9.99999e-01
8.285238370e-01,1.57749e-01,9.99999e-01,9.99999e-01,9.99999e-01,1.57749e-01,9.99999e-01
8.326664562e-01,1.63609e-01,9.99999e-01,9.99999e-01,9.99999e-01,1.63609e-01,9.99999e-01
8.368297885e-01,1.69566e-01,9.99999e-01,9.99999e-01,9.99999e-01,1.69566e-01,9.99999e-01
8.410139374e-01,1.75614e-01,9.99999e-01,9.99999e-01,9.99999e-01,1.75614e-01,9.99999e-01
8.452190071e-01,1.81753e-01,9.99999e-01,9.99999e-01,9.99999e-01,1.81753e-01,9.99999e-01
8.494451021e-01,1.87979e-01,9.99999e-01,9.99999e-01,9.99999e-01,1.87979e-01,9.99999e-01
8.536923276e-01,1.94288e-01,9.99999e-01,9.99999e-01,9.99999e-01,1.94288e-01,9.99999e-01
8.579607893e-01,2.00679e-01,9.99999e-01,9.99999e-01,9.99999e-01,2.00679e-01,9.99999e-01
8.622505932e-01,2.07147e-01,9.99999e-01,9.99999e-01,9.99999e-01,2.07147e-01,9.99999e-01
8.665618462e-01,1.84993e-01,9.99999e-01,9.99999e-01,8.65707e-01,2.13690e-01,9.99999e-01
8.708946554e-01,7.12947e-02,9.99999e-01,9.99999e-01,3.23619e-01,2.20304e-01,9.99999e-01
8.752491287e-01,8.85899e-02,9.99999e-01,9.99999e-01,3.90287e-01,2.26986e-01,9.99999e-01
8.796253743e-01,1.37600e-01,9.99999e-01,9.99999e-01,5.88704e-01,2.33733e-01,9.99999e-01
8.840235012e-01,1.81782e-01,9.99999e-01,9.99999e-01,7.55720e-01,2.40541e-01,9.99999e-01
8.884436187e-01,2.21403e-01,9.99999e-01,9.99999e-01,8.94890e-01,2.47407e-01,9.99999e-01
8.928858368e-01,2.43104e-01,9.99999e-01,9.99999e-01,9.55868e-01,2.54328e-01,9.99999e-01
8.973502660e-01,2.58456e-01,9.99999e-01,9.99999e-01,9.89116e-01,2.61300e-01,9.99999e-01
9.018370173e-01,2.67996e-01,9.99999e-01,9.99999e-01,9.98795e-01,2.68319e-01,9.99999e-01
9.063462024e-01,2.67065e-01,9.99999e-01,9.99999e-01,9.69792e-01,2.75383e-01,9.99999e-01
9.108779334e-01,2.63096e-01,9.99999e-01,9.99999e-01,9.31350e-01,2.82488e-01,9.99999e-01
9.154323231e-01,2.84848e-01,9.99999e-01,9.99999e-01,9.83485e-01,2.89631e-01,9.99999e-01
9.200094847e-01,2.40057e-01,9.99999e-01,9.99999e-01,8.08797e-01,2.96807e-01,9.99999e-01
9.246095321e-01,2.15097e-01,9.99999e-01,9.99999e-01,7.07523e-01,3.04014e-01,9.99999e-01
9.292325798e-01,2.38344e-01,9.99999e-01,9.99999e-01,7.65765e-01,3.11249e-01,9.99999e-01
9.338787427e-01,2.45467e-01,9.99999e-01,9.99999e-01,7.70675e-01,3.18508e-01,9.99999e-01
9.385481364e-01,2.68589e-01,9.99999e-01,9.99999e-01,8.24427e-01,3.25788e-01,9.99999e-01
9.432408771e-01,2.95782e-01,9.99999e-01,9.99999e-01,8.88006e-01,3.33086e-01,9.99999e-01
9.479570815e-01,3.20240e-01,9.99999e-01,9.99999e-01,9.40782e-01,3.40398e-01,9.99999e-01
9.526968669e-01,3.37653e-01,9.99999e-01,9.99999e-01,9.71043e-01,3.47721e-01,9.99999e-01
9.574603512e-01,3.50617e-01,9.99999e-01,9.99999e-01,9.87505e-01,3.55053e-01,9.99999e-01
9.622476530e-01,3.60972e-01,9.99999e-01,9.99999e-01,9.96086e-01,3.62390e-01,9.99999e-01
9.670588912e-01,3.69295e-01,9.99999e-01,9.99999e-01,9.98826e-01,3.69729e-01,9.99999e-01
9.718941857e-01,3.77036e-01,9.99999e-01,9.99999e-01,9.99917e-01,3.77067e-01,9.99999e-01
9.767536566e-01,3.84402e-01,9.99999e-01,9.99999e-01,9.99999e-01,3.84402e-01,9.99999e-01
9.816374249e-01,3.91730e-01,9.99999e-01,9.99999e-01,9.99999e-01,3.91730e-01,9.99999e-01
9.865456120e-01,3.99049e-01,9.99999e-01,9.99999e-01,9.99999e-01,3.99049e-01,9.99999e-01
9.914783401e-01,4.06356e-01,9.99999e-01,9.99999e-01,9.99999e-01,4.06356e-01,9.99999e-01
9.964357318e-01,4.13649e-01,9.99999e-01,9.99999e-01,9.99999e-01,4.13649e-01,9.99999e-01
1.001417910e+00,4.20925e-01,9.99999e-01,9.99999e-01,9.99999e-01,4.20925e-01,9.99999e-01
1.006425000e+00,4.28181e-01,9.99999e-01,9.99999e-01,9.99999e-01,4.28181e-01,9.99999e-01
1.011457125e+00,4.35415e-01,9.99999e-01,9.99999e-01,9.99999e-01,4.35415e-01,9.99999e-01
1.016514411e+00,4.42625e-01,9.99999e-01,9.99999e-01,9.99999e-01,4.42625e-01,9.99999e-01
1.021596983e+00,4.49732e-01,9.99999e-01,9.99999e-01,9.99828e-01,4.49809e-01,9.99999e-01
1.026704968e+00,4.51452e-01,9.99999e-01,9.99999e-01,9.87938e-01,4.56963e-01,9.99999e-01
1.031838492e+00,4.18589e-01,9.99999e-01,9.99999e-01,9.01962e-01,4.64087e-01,9.99999e-01
1.036997685e+00,2.31002e-02,9.99999e-01,9.99999e-01,4.90264e-02,4.71178e-01,9.99999e-01
1.042182673e+00,1.46456e-03,9.99999e-01,9.99999e-01,3.06244e-03,4.78234e-01,9.99999e-01
1.047393587e+00,3.84725e-03,9.99999e-01,9.99999e-01,7.92832e-03,4.85253e-01,9.99999e-01
1.052630555e+00,3.69288e-07,9.99999e-01,9.99999e-01,7.50229e-07,4.92234e-01,9.99999e-01
1.057893707e+00,1.40185e-06,9.99999e-01,9.99999e-01,2.80833e-06,4.99174e-01,9.99999e-01
1.063183176e+00,3.97422e-05,9.99999e-01,9.99999e-01,7.85307e-05,5.06071e-01,9.99999e-01
1.068499092e+00,4.14469e-04,9.99999e-01,9.99999e-01,8.08047e-04,5.12926e-01,9.99999e-01
1.073841587e+00,5.26829e-03,9.99999e-01,9.99999e-01,1.01365e-02,5.19734e-01,9.99999e-01
1.079210795e+00,2.95492e-02,9.99999e-01,9.99999e-01,5.61241e-02,5.26497e-01,9.99999e-01
1.084606849e+00,1.03755e-01,9.99999e-01,9.99999e-01,1.94586e-01,5.33210e-01,9.99999e-01
1.090029883e+00,2.28881e-01,9.99999e-01,9.99999e-01,4.23952e-01,5.39875e-01,9.99999e-01
1.095480033e+00,3.57460e-01,9.99999e-01,9.99999e-01,6.54102e-01,5.46488e-01,9.99999e-01
1.100957433e+00,4.50229e-01,9.99999e-01,9.99999e-01,8.14083e-01,5.53050e-01,9.99999e-01
1.106462220e+00,5.13870e-01,9.99999e-01,9.99999e-01,9.18349e-01,5.59558e-01,9.99999e-01
1.111994531e+00,5.48399e-01,9.99999e-01,9.99999e-01,9.68880e-01,5.66013e-01,9.99999e-01
1.117554504e+00,5.68018e-01,9.99999e-01,9.99999e-01,9.92324e-01,5.72412e-01,9.99999e-01
1.123142276e+00,5.78463e-01,9.99999e-01,9.99999e-01,9.99495e-01,5.78754e-01,9.99999e-01
1.128757988e+00,5.85040e-01,9.99999e-01,9.99999e-01,9.99999e-01,5.85040e-01,9.99999e-01
1.134401778e+00,5.91268e-01,9.99999e-01,9.99999e-01,9.99999e-01,5.91268e-01,9.99999e-01
1.140073787e+00,5.97437e-01,9.99999e-01,9.99999e-01,9.99999e-01,5.97437e-01,9.99999e-01
1.145774156e+00,6.03547e-01,9.99999e-01,9.99999e-01,9.99999e-01,6.03547e-01,9.99999e-01
1.151503026e+00,6.09596e-01,9.99999e-01,9.99999e-01,9.99999e-01,6.09596e-01,9.99999e-01
1.157260541e+00,6.15585e-01,9.99999e-01,9.99999e-01,9.99999e-01,6.15585e-01,9.99999e-01
1.163046844e+00,6.21513e-01,9.99999e-01,9.99999e-01,9.99999e-01,6.21513e-01,9.99999e-01
1.168862078e+00,6.27379e-01,9.99999e-01,9.99999e-01,9.99999e-01,6.27379e-01,9.99999e-01
1.174706389e+00,6.33183e-01,9.99999e-01,9.99999e-01,9.99999e-01,6.33183e-01,9.99999e-01
1.180579921e+00,6.38925e-01,9.99999e-01,9.99999e-01,9.99999e-01,6.38925e-01,9.99999e-01
1.186482820e+00,6.44588e-01,9.99999e-01,9.99999e-01,9.99975e-01,6.44603e-01,9.99999e-01
1.192415234e+00,6.23557e-01,9.99999e-01,9.99999e-01,9.58995e-01,6.50219e-01,9.99999e-01
1.198377311e+00,3.37563e-01,9.99999e-01,9.99999e-01,5.14758e-01,6.55771e-01,9.99999e-01
1.204369197e+00,3.22179e-31,9.99999e-01,9.99999e-01,4.87221e-31,6.61259e-01,9.99999e-01
1.210391043e+00,1.04208e-126,9.99999e-01,9.99999e-01,1.56309e-126,6.66683e-01,9.99999e-01
1.216442998e+00,1.24182e-109,9.99999e-01,9.99999e-01,1.84782e-109,6.72044e-01,9.99999e-01
1.222525213e+00,5.50232e-108,9.99999e-01,9.99999e-01,8.12341e-108,6.77340e-01,9.99999e-01
1.228637839e+00,2.77707e-83,9.99999e-01,9.99999e-01,4.06853e-83,6.82573e-01,9.99999e-01
