#,Wave/freq,Total,N2,O2,CO2,Rayleigh,CIA
4.000000000e-01,5.95065e-09,9.99999e-01,9.99999e-01,9.99999e-01,5.95065e-09,9.99999e-01
4.020000000e-01,8.65374e-09,9.99999e-01,9.99999e-01,9.99999e-01,8.65374e-09,9.99999e-01
4.040100000e-01,1.24872e-08,9.99999e-01,9.99999e-01,9.99999e-01,1.24872e-08,9.99999e-01
4.060300500e-01,1.78887e-08,9.99999e-01,9.99999e-01,9.99999e-01,1.78887e-08,9.99999e-01
4.080602003e-01,2.54454e-08,9.99999e-01,9.99999e-01,9.99999e-01,2.54454e-08,9.99999e-01
4.101005013e-01,3.59432e-08,9.99999e-01,9.99999e-01,9.99999e-01,3.59432e-08,9.99999e-01
4.121510038e-01,5.04269e-08,9.99999e-01,9.99999e-01,9.99999e-01,5.04269e-08,9.99999e-01
4.142117588e-01,7.02753e-08,9.99999e-01,9.99999e-01,9.99999e-01,7.02753e-08,9.99999e-01
4.162828176e-01,9.72962e-08,9.99999e-01,9.99999e-01,9.99999e-01,9.72962e-08,9.99999e-01
4.183642317e-01,1.33844e-07,9.99999e-01,9.99999e-01,9.99999e-01,1.33844e-07,9.99999e-01
4.204560528e-01,1.82964e-07,9.99999e-01,9.99999e-01,9.99999e-01,1.82964e-07,9.99999e-01
4.225583331e-01,2.48571e-07,9.99999e-01,9.99999e-01,9.99999e-01,2.48571e-07,9.99999e-01
4.246711247e-01,3.35665e-07,9.99999e-01,9.99999e-01,9.99999e-01,3.35665e-07,9.99999e-01
4.267944804e-01,4.50594e-07,9.99999e-01,9.99999e-01,9.99999e-01,4.50594e-07,9.99999e-01
4.289284528e-01,6.01366e-07,9.99999e-01,9.99999e-01,9.99999e-01,6.01366e-07,9.99999e-01
4.310730950e-01,7.98025e-07,9.99999e-01,9.99999e-01,9.99999e-01,7.98025e-07,9.99999e-01
4.332284605e-01,1.05309e-06,9.99999e-01,9.99999e-01,9.99999e-01,1.05309e-06,9.99999e-01
4.353946028e-01,1.38210e-06,9.99999e-01,9.99999e-01,9.99999e-01,1.38210e-06,9.99999e-01
4.375715758e-01,1.80417e-06,9.99999e-01,9.99999e-01,9.99999e-01,1.80417e-06,9.99999e-01
4.397594337e-01,2.34277e-06,9.99999e-01,9.99999e-01,9.99999e-01,2.34277e-06,9.99999e-01
4.419582309e-01,3.02650e-06,9.99999e-01,9.99999e-01,9.99999e-01,3.02650e-06,9.99999e-01
4.441680220e-01,3.89006e-06,9.99999e-01,9.99999e-01,9.99999e-01,3.89006e-06,9.99999e-01
4.463888621e-01,4.97529e-06,9.99999e-01,9.99999e-01,9.99999e-01,4.97529e-06,9.99999e-01
4.486208064e-01,6.33241e-06,9.99999e-01,9.99999e-01,9.99999e-01,6.33241e-06,9.99999e-01
4.508639105e-01,8.02142e-06,9.99999e-01,9.99999e-01,9.99999e-01,8.02142e-06,9.99999e-01
4.531182300e-01,1.01136e-05,9.99999e-01,9.99999e-01,9.99999e-01,1.01136e-05,9.99999e-01
4.553838212e-01,1.26932e-05,9.99999e-01,9.99999e-01,9.99999e-01,1.26932e-05,9.99999e-01
4.576607403e-01,1.58594e-05,9.99999e-01,9.99999e-01,9.99999e-01,1.58594e-05,9.99999e-01
4.599490440e-01,1.97285e-05,9.99999e-01,9.99999e-01,9.99999e-01,1.97285e-05,9.99999e-01
4.622487892e-01,2.44358e-05,9.99999e-01,9.99999e-01,9.99999e-01,2.44358e-05,9.99999e-01
4.645600332e-01,3.01387e-05,9.99999e-01,9.99999e-01,9.99999e-01,3.01387e-05,9.99999e-01
4.668828333e-01,3.70189e-05,9.99999e-01,9.99999e-01,9.99999e-01,3.70189e-05,9.99999e-01
4.692172475e-01,4.52853e-05,9.99999e-01,9.99999e-01,9.99999e-01,4.52853e-05,9.99999e-01
4.715633337e-01,5.51777e-05,9.99999e-01,9.99999e-01,9.99999e-01,5.51777e-05,9.99999e-01
4.739211504e-01,6.69690e-05,9.99999e-01,9.99999e-01,9.99999e-01,6.69690e-05,9.99999e-01
4.762907561e-01,8.09698e-05,9.99999e-01,9.99999e-01,9.99999e-01,8.09698e-05,9.99999e-01
4.786722099e-01,9.75313e-05,9.99999e-01,9.99999e-01,9.99999e-01,9.75313e-05,9.99999e-01
4.810655710e-01,1.17049e-04,9.99999e-01,9.99999e-01,9.99999e-01,1.17049e-04,9.99999e-01
4.834708988e-01,1.39968e-04,9.99999e-01,9.99999e-01,9.99999e-01,1.39968e-04,9.99999e-01
4.858882533e-01,1.66784e-04,9.99999e-01,9.99999e-01,9.99999e-01,1.66784e-04,9.99999e-01
4.883176946e-01,1.98050e-04,9.99999e-01,9.99999e-01,9.99999e-01,1.98050e-04,9.99999e-01
4.907592831e-01,2.34381e-04,9.99999e-01,9.99999e-01,9.99999e-01,2.34381e-04,9.99999e-01
4.932130795e-01,2.76456e-04,9.99999e-01,9.99999e-01,9.99999e-01,2.76456e-04,9.99999e-01
4.956791449e-01,3.25022e-04,9.99999e-01,9.99999e-01,9.99999e-01,3.25022e-04,9.99999e-01
4.981575406e-01,3.80900e-04,9.99999e-01,9.99999e-01,9.99999e-01,3.80900e-04,9.99999e-01
5.006483283e-01,4.44988e-04,9.99999e-01,9.99999e-01,9.99999e-01,4.44988e-04,9.99999e-01
5.031515699e-01,5.18265e-04,9.99999e-01,9.99999e-01,9.99999e-01,5.18265e-04,9.99999e-01
5.056673278e-01,6.01794e-04,9.99999e-01,9.99999e-01,9.99999e-01,6.01794e-04,9.99999e-01
5.081956644e-01,6.96725e-04,9.99999e-01,9.99999e-01,9.99999e-01,6.96725e-04,9.99999e-01
5.107366428e-01,8.04301e-04,9.99999e-01,9.99999e-01,9.99999e-01,8.04301e-04,9.99999e-01
5.132903260e-01,9.25858e-04,9.99999e-01,9.99999e-01,9.99999e-01,9.25858e-04,9.99999e-01
5.158567776e-01,1.06283e-03,9.99999e-01,9.99999e-01,9.99999e-01,1.06283e-03,9.99999e-01
5.184360615e-01,1.21674e-03,9.99999e-01,9.99999e-01,9.99999e-01,1.21674e-03,9.99999e-01
5.210282418e-01,1.38922e-03,9.99999e-01,9.99999e-01,9.99999e-01,1.38922e-03,9.99999e-01
5.236333830e-01,1.58201e-03,9.99999e-01,9.99999e-01,9.99999e-01,1.58201e-03,9.99999e-01
5.262515499e-01,1.79693e-03,9.99999e-01,9.99999e-01,9.99999e-01,1.79693e-03,9.99999e-01
5.288828077e-01,2.03592e-03,9.99999e-01,9.99999e-01,9.99999e-01,2.03592e-03,9.99999e-01
5.315272217e-01,2.30102e-03,9.99999e-01,9.99999e-01,9.99999e-01,2.30102e-03,9.99999e-01
5.341848578e-01,2.59435e-03,9.99999e-01,9.99999e-01,9.99999e-01,2.59435e-03,9.99999e-01
5.368557821e-01,2.91815e-03,9.99999e-01,9.99999e-01,9.99999e-01,2.91815e-03,9.99999e-01
5.395400610e-01,3.27475e-03,9.99999e-01,9.99999e-01,9.99999e-01,3.27475e-03,9.99999e-01
5.422377613e-01,3.66657e-03,9.99999e-01,9.99999e-01,9.99999e-01,3.66657e-03,9.99999e-01
5.449489501e-01,4.09611e-03,9.99999e-01,9.99999e-01,9.99999e-01,4.09611e-03,9.99999e-01
5.476736949e-01,4.56597e-03,9.99999e-01,9.99999e-01,9.99999e-01,4.56597e-03,9.99999e-01
5.504120634e-01,5.07883e-03,9.99999e-01,9.99999e-01,9.99999e-01,5.07883e-03,9.99999e-01
5.531641237e-01,5.63742e-03,9.99999e-01,9.99999e-01,9.99999e-01,5.63742e-03,9.99999e-01
5.559299443e-01,6.24456e-03,9.99999e-01,9.99999e-01,9.99999e-01,6.24456e-03,9.99999e-01
5.587095940e-01,6.90313e-03,9.99999e-01,9.99999e-01,9.99999e-01,6.90313e-03,9.99999e-01
5.615031420e-01,7.61606e-03,9.99999e-01,9.99999e-01,9.99999e-01,7.61606e-03,9.99999e-01
5.643106577e-01,8.38632e-03,9.99999e-01,9.99999e-01,9.99999e-01,8.38632e-03,9.99999e-01
5.671322110e-01,9.21693e-03,9.99999e-01,9.99999e-01,9.99999e-01,9.21693e-03,9.99999e-01
5.699678720e-01,1.01109e-02,9.99999e-01,9.99999e-01,9.99999e-01,1.01109e-02,9.99999e-01
5.728177114e-01,1.10714e-02,9.99999e-01,9.99999e-01,9.99999e-01,1.10714e-02,9.99999e-01
5.756818000e-01,1.21013e-02,9.99999e-01,9.99999e-01,9.99999e-01,1.21013e-02,9.99999e-01
5.785602090e-01,1.32039e-02,9.99999e-01,9.99999e-01,9.99999e-01,1.32039e-02,9.99999e-01
5.814530100e-01,1.43821e-02,9.99999e-01,9.99999e-01,9.99999e-01,1.43821e-02,9.99999e-01
5.843602750e-01,1.56390e-02,9.99999e-01,9.99999e-01,9.99999e-01,1.56390e-02,9.99999e-01
5.872820764e-01,1.69777e-02,9.99999e-01,9.99999e-01,9.99999e-01,1.69777e-02,9.99999e-01
5.902184868e-01,1.84011e-02,9.99999e-01,9.99999e-01,9.99999e-01,1.84011e-02,9.99999e-01
5.931695792e-01,1.99121e-02,9.99999e-01,9.99999e-01,9.99999e-01,1.99121e-02,9.99999e-01
5.961354271e-01,2.15136e-02,9.99999e-01,9.99999e-01,9.99999e-01,2.15136e-02,9.99999e-01
5.991161043e-01,2.32085e-02,9.99999e-01,9.99999e-01,9.99999e-01,2.32085e-02,9.99999e-01
6.021116848e-01,2.49994e-02,9.99999e-01,9.99999e-01,9.99999e-01,2.49994e-02,9.99999e-01
6.051222432e-01,2.68889e-02,9.99999e-01,9.99999e-01,9.99999e-01,2.68889e-02,9.99999e-01
6.081478544e-01,2.88798e-02,9.99999e-01,9.99999e-01,9.99999e-01,2.88798e-02,9.99999e-01
6.111885937e-01,3.09742e-02,9.99999e-01,9.99999e-01,9.99999e-01,3.09742e-02,9.99999e-01
6.142445367e-01,3.31747e-02,9.99999e-01,9.99999e-01,9.99999e-01,3.31747e-02,9.99999e-01
6.173157594e-01,3.54834e-02,9.99999e-01,9.99999e-01,9.99999e-01,3.54834e-02,9.99999e-01
6.204023382e-01,3.79023e-02,9.99999e-01,9.99999e-01,9.99999e-01,3.79023e-02,9.99999e-01
6.235043498e-01,4.04334e-02,9.99999e-01,9.99999e-01,9.99999e-01,4.04334e-02,9.99999e-01
6.266218716e-01,4.30785e-02,9.99999e-01,9.99999e-01,9.99999e-01,4.30785e-02,9.99999e-01
6.297549810e-01,4.58392e-02,9.99999e-01,9.99999e-01,9.99999e-01,4.58392e-02,9.99999e-01
6.329037559e-01,4.87171e-02,9.99999e-01,9.99999e-01,9.99999e-01,4.87171e-02,9.99999e-01
6.360682746e-01,5.17134e-02,9.99999e-01,9.99999e-01,9.99999e-01,5.17134e-02,9.99999e-01
6.392486160e-01,5.48293e-02,9.99999e-01,9.99999e-01,9.99999e-01,5.48293e-02,9.99999e-01
6.424448591e-01,5.80657e-02,9.99999e-01,9.99999e-01,9.99999e-01,5.80657e-02,9.99999e-01
6.456570834e-01,6.14236e-02,9.99999e-01,9.99999e-01,9.99999e-01,6.14236e-02,9.99999e-01
6.488853688e-01,6.49036e-02,9.99999e-01,9.99999e-01,9.99999e-01,6.49036e-02,9.99999e-01
6.521297956e-01,6.85062e-02,9.99999e-01,9.99999e-01,9.99999e-01,6.85062e-02,9.99999e-01
6.553904446e-01,7.22315e-02,9.99999e-01,9.99999e-01,9.99999e-01,7.22315e-02,9.99999e-01
6.586673968e-01,7.60799e-02,9.99999e-01,9.99999e-01,9.99999e-01,7.60799e-02,9.99999e-01
6.619607338e-01,8.00511e-02,9.99999e-01,9.99999e-01,9.99999e-01,8.00511e-02,9.99999e-01
6.652705375e-01,8.41451e-02,9.99999e-01,9.99999e-01,9.99999e-01,8.41451e-02,9.99999e-01
6.685968902e-01,8.83613e-02,9.99999e-01,9.99999e-01,9.99999e-01,8.83613e-02,9.99999e-01
6.719398746e-01,9.26992e-02,9.99999e-01,9.99999e-01,9.99999e-01,9.26992e-02,9.99999e-01
6.752995740e-01,9.71580e-02,9.99999e-01,9.99999e-01,9.99999e-01,9.71580e-02,9.99999e-01
6.786760719e-01,1.01737e-01,9.99999e-01,9.99999e-01,9.99999e-01,1.01737e-01,9.99999e-01
6.820694522e-01,1.06435e-01,9.99999e-01,9.99999e-01,9.99999e-01,1.06435e-01,9.99999e-01
6.854797995e-01,1.11250e-01,9.99999e-01,9.99999e-01,9.99999e-01,1.11250e-01,9.99999e-01
6.889071985e-01,1.16182e-01,9.99999e-01,9.99999e-01,9.99999e-01,1.16182e-01,9.99999e-01
6.923517345e-01,1.21228e-01,9.99999e-01,9.99999e-01,9.99999e-01,1.21228e-01,9.99999e-01
6.958134932e-01,1.26388e-01,9.99999e-01,9.99999e-01,9.99999e-01,1.26388e-01,9.99999e-01
6.992925606e-01,1.31659e-01,9.99999e-01,9.99999e-01,9.99999e-01,1.31659e-01,9.99999e-01
7.027890234e-01,1.37038e-01,9.99999e-01,9.99999e-01,9.99999e-01,1.37038e-01,9.99999e-01
7.063029686e-01,1.42525e-01,9.99999e-01,9.99999e-01,9.99999e-01,1.42525e-01,9.99999e-01
7.098344834e-01,1.48117e-01,9.99999e-01,9.99999e-01,9.99999e-01,1.48117e-01,9.99999e-01
7.133836558e-01,1.53811e-01,9.99999e-01,9.99999e-01,9.99999e-01,1.53811e-01,9.99999e-01
7.169505741e-01,1.59605e-01,9.99999e-01,9.99999e-01,9.99999e-01,1.59605e-01,9.99999e-01
7.205353270e-01,1.65496e-01,9.99999e-01,9.99999e-01,9.99999e-01,1.65496e-01,9.99999e-01
7.241380036e-01,1.71482e-01,9.99999e-01,9.99999e-01,9.99999e-01,1.71482e-01,9.99999e-01
7.277586936e-01,1.77560e-01,9.99999e-01,9.99999e-01,9.99999e-01,1.77560e-01,9.99999e-01
7.313974871e-01,1.83727e-01,9.99999e-01,9.99999e-01,9.99999e-01,1.83727e-01,9.99999e-01
7.350544745e-01,1.89979e-01,9.99999e-01,9.99999e-01,9.99999e-01,1.89979e-01,9.99999e-01
7.387297469e-01,1.96315e-01,9.99999e-01,9.99999e-01,9.99999e-01,1.96315e-01,9.99999e-01
7.424233956e-01,2.02731e-01,9.99999e-01,9.99999e-01,9.99999e-01,2.02731e-01,9.99999e-01
7.461355126e-01,2.09223e-01,9.99999e-01,9.99999e-01,9.99999e-01,2.09223e-01,9.99999e-01
7.498661902e-01,2.15789e-01,9.99999e-01,9.99999e-01,9.99999e-01,2.15789e-01,9.99999e-01
7.536155211e-01,2.22425e-01,9.99999e-01,9.99999e-01,9.99999e-01,2.22425e-01,9.99999e-01
7.573835987e-01,2.29128e-01,9.99999e-01,9.99999e-01,9.99999e-01,2.29128e-01,9.99999e-01
7.611705167e-01,2.35895e-01,9.99999e-01,9.99999e-01,9.99999e-01,2.35895e-01,9.99999e-01
7.649763693e-01,2.42722e-01,9.99999e-01,9.99999e-01,9.99999e-01,2.42722e-01,9.99999e-01
7.688012511e-01,2.49606e-01,9.99999e-01,9.99999e-01,9.99999e-01,2.49606e-01,9.99999e-01
7.726452574e-01,2.56543e-01,9.99999e-01,9.99999e-01,9.99999e-01,2.56543e-01,9.99999e-01
7.765084837e-01,2.63531e-01,9.99999e-01,9.99999e-01,9.99999e-01,2.63531e-01,9.99999e-01
7.803910261e-01,2.55300e-01,9.99999e-01,9.99999e-01,9.43583e-01,2.70565e-01,9.99999e-01
7.842929812e-01,2.13012e-01,9.99999e-01,9.99999e-01,7.67219e-01,2.77642e-01,9.99999e-01
7.882144461e-01,2.14645e-01,9.99999e-01,9.99999e-01,7.53778e-01,2.84759e-01,9.99999e-01
7.921555184e-01,2.46648e-01,9.99999e-01,9.99999e-01,8.44936e-01,2.91913e-01,9.99999e-01
7.961162960e-01,2.67119e-01,9.99999e-01,9.99999e-01,8.93077e-01,2.99099e-01,9.99999e-01
8.000968774e-01,2.88086e-01,9.99999e-01,9.99999e-01,9.40485e-01,3.06316e-01,9.99999e-01
8.040973618e-01,3.03754e-01,9.99999e-01,9.99999e-01,9.68729e-01,3.13559e-01,9.99999e-01
8.081178486e-01,3.16174e-01,9.99999e-01,9.99999e-01,9.85502e-01,3.20825e-01,9.99999e-01
8.121584379e-01,3.26638e-01,9.99999e-01,9.99999e-01,9.95511e-01,3.28111e-01,9.99999e-01
8.162192301e-01,3.35080e-01,9.99999e-01,9.99999e-01,9.99007e-01,3.35413e-01,9.99999e-01
8.203003262e-01,3.42724e-01,9.99999e-01,9.99999e-01,9.99985e-01,3.42729e-01,9.99999e-01
8.244018279e-01,3.50055e-01,9.99999e-01,9.99999e-01,9.99999e-01,3.50055e-01,9.99999e-01
8.285238370e-01,3.57389e-01,9.99999e-01,9.99999e-01,9.99999e-01,3.57389e-01,9.99999e-01
8.326664562e-01,3.64727e-01,9.99999e-01,9.99999e-01,9.99999e-01,3.64727e-01,9.99999e-01
8.368297885e-01,3.72066e-01,9.99999e-01,9.99999e-01,9.99999e-01,3.72066e-01,9.99999e-01
8.410139374e-01,3.79403e-01,9.99999e-01,9.99999e-01,9.99999e-01,3.79403e-01,9.99999e-01
8.452190071e-01,3.86736e-01,9.99999e-01,9.99999e-01,9.99999e-01,3.86736e-01,9.99999e-01
8.494451021e-01,3.94062e-01,9.99999e-01,9.99999e-01,9.99999e-01,3.94062e-01,9.99999e-01
8.536923276e-01,4.01378e-01,9.99999e-01,9.99999e-01,9.99999e-01,4.01378e-01,9.99999e-01
8.579607893e-01,4.08681e-01,9.99999e-01,9.99999e-01,9.99999e-01,4.08681e-01,9.99999e-01
8.622505932e-01,4.15968e-01,9.99999e-01,9.99999e-01,9.99999e-01,4.15968e-01,9.99999e-01
8.665618462e-01,3.79572e-01,9.99999e-01,9.99999e-01,8.96829e-01,4.23238e-01,9.99999e-01
8.708946554e-01,2.21700e-01,9.99999e-01,9.99999e-01,5.14997e-01,4.30488e-01,9.99999e-01
8.752491287e-01,2.54579e-01,9.99999e-01,9.99999e-01,5.81610e-01,4.37714e-01,9.99999e-01
8.796253743e-01,3.29196e-01,9.99999e-01,9.99999e-01,7.39906e-01,4.44916e-01,9.99999e-01
8.840235012e-01,3.86263e-01,9.99999e-01,9.99999e-01,8.54392e-01,4.52091e-01,9.99999e-01
8.884436187e-01,4.31579e-01,9.99999e-01,9.99999e-01,9.39776e-01,4.59236e-01,9.99999e-01
8.928858368e-01,4.54747e-01,9.99999e-01,9.99999e-01,9.75120e-01,4.66349e-01,9.99999e-01
8.973502660e-01,4.70547e-01,9.99999e-01,9.99999e-01,9.93911e-01,4.73429e-01,9.99999e-01
9.018370173e-01,4.80151e-01,9.99999e-01,9.99999e-01,9.99327e-01,4.80474e-01,9.99999e-01
9.063462024e-01,4.79118e-01,9.99999e-01,9.99999e-01,9.82845e-01,4.87481e-01,9.99999e-01
9.108779334e-01,4.75182e-01,9.99999e-01,9.99999e-01,9.61034e-01,4.94448e-01,9.99999e-01
9.154323231e-01,4.96732e-01,9.99999e-01,9.99999e-01,9.90737e-01,5.01375e-01,9.99999e-01
9.200094847e-01,4.46608e-01,9.99999e-01,9.99999e-01,8.78700e-01,5.08259e-01,9.99999e-01
9.246095321e-01,4.24211e-01,9.99999e-01,9.99999e-01,8.23552e-01,5.15099e-01,9.99999e-01
9.292325798e-01,4.48566e-01,9.99999e-01,9.99999e-01,8.59496e-01,5.21893e-01,9.99999e-01
9.338787427e-01,4.56501e-01,9.99999e-01,9.99999e-01,8.63537e-01,5.28640e-01,9.99999e-01
9.385481364e-01,4.80451e-01,9.99999e-01,9.99999e-01,8.97471e-01,5.35338e-01,9.99999e-01
9.432408771e-01,5.07213e-01,9.99999e-01,9.99999e-01,9.35839e-01,5.41987e-01,9.99999e-01
9.479570815e-01,5.30220e-01,9.99999e-01,9.99999e-01,9.66524e-01,5.48584e-01,9.99999e-01
9.526968669e-01,5.46099e-01,9.99999e-01,9.99999e-01,9.83733e-01,5.55129e-01,9.99999e-01
9.574603512e-01,5.57695e-01,9.99999e-01,9.99999e-01,9.93011e-01,5.61620e-01,9.99999e-01
9.622476530e-01,5.66816e-01,9.99999e-01,9.99999e-01,9.97815e-01,5.68057e-01,9.99999e-01
9.670588912e-01,5.74062e-01,9.99999e-01,9.99999e-01,9.99345e-01,5.74438e-01,9.99999e-01
9.718941857e-01,5.80736e-01,9.99999e-01,9.99999e-01,9.99953e-01,5.80762e-01,9.99999e-01
9.767536566e-01,5.87030e-01,9.99999e-01,9.99999e-01,9.99999e-01,5.87030e-01,9.99999e-01
9.816374249e-01,5.93239e-01,9.99999e-01,9.99999e-01,9.99999e-01,5.93239e-01,9.99999e-01
9.865456120e-01,5.99389e-01,9.99999e-01,9.99999e-01,9.99999e-01,5.99389e-01,9.99999e-01
9.914783401e-01,6.05480e-01,9.99999e-01,9.99999e-01,9.99999e-01,6.05480e-01,9.99999e-01
9.964357318e-01,6.11510e-01,9.99999e-01,9.99999e-01,9.99999e-01,6.11510e-01,9.99999e-01
1.001417910e+00,6.17480e-01,9.99999e-01,9.99999e-01,9.99999e-01,6.17480e-01,9.99999e-01
1.006425000e+00,6.23388e-01,9.99999e-01,9.99999e-01,9.99999e-01,6.23388e-01,9.99999e-01
1.011457125e+00,6.29235e-01,9.99999e-01,9.99999e-01,9.99999e-01,6.29235e-01,9.99999e-01
1.016514411e+00,6.35019e-01,9.99999e-01,9.99999e-01,9.99999e-01,6.35019e-01,9.99999e-01
1.021596983e+00,6.40680e-01,9.99999e-01,9.99999e-01,9.99905e-01,6.40740e-01,9.99999e-01
1.026704968e+00,6.42030e-01,9.99999e-01,9.99999e-01,9.93240e-01,6.46399e-01,9.99999e-01
1.031838492e+00,6.08453e-01,9.99999e-01,9.99999e-01,9.33218e-01,6.51994e-01,9.99999e-01
1.036997685e+00,5.82835e-02,9.99999e-01,9.99999e-01,8.86406e-02,6.57526e-01,9.99999e-01
1.042182673e+00,1.85234e-02,9.99999e-01,9.99999e-01,2.79390e-02,6.62994e-01,9.99999e-01
1.047393587e+00,3.15803e-02,9.99999e-01,9.99999e-01,4.72478e-02,6.68398e-01,9.99999e-01
1.052630555e+00,9.46492e-05,9.99999e-01,9.99999e-01,1.40484e-04,6.73738e-01,9.99999e-01
1.057893707e+00,3.18762e-04,9.99999e-01,9.99999e-01,4.69449e-04,6.79014e-01,9.99999e-01
1.063183176e+00,2.26780e-03,9.99999e-01,9.99999e-01,3.31440e-03,6.84226e-01,9.99999e-01
1.068499092e+00,1.10875e-02,9.99999e-01,9.99999e-01,1.60834e-02,6.89374e-01,9.99999e-01
1.073841587e+00,5.02169e-02,9.99999e-01,9.99999e-01,7.23109e-02,6.94457e-01,9.99999e-01
1.079210795e+00,1.32801e-01,9.99999e-01,9.99999e-01,1.89858e-01,6.99477e-01,9.99999e-01
1.084606849e+00,2.79038e-01,9.99999e-01,9.99999e-01,3.96117e-01,7.04433e-01,9.99999e-01
1.090029883e+00,4.37700e-01,9.99999e-01,9.99999e-01,6.17065e-01,7.09325e-01,9.99999e-01
1.095480033e+00,5.62804e-01,9.99999e-01,9.99999e-01,7.88071e-01,7.14153e-01,9.99999e-01
1.100957433e+00,6.40826e-01,9.99999e-01,9.99999e-01,8.91375e-01,7.18918e-01,9.99999e-01
1.106462220e+00,6.90008e-01,9.99999e-01,9.99999e-01,9.53550e-01,7.23619e-01,9.99999e-01
1.111994531e+00,7.15527e-01,9.99999e-01,9.99999e-01,9.82517e-01,7.28258e-01,9.99999e-01
1.117554504e+00,7.29690e-01,9.99999e-01,9.99999e-01,9.95709e-01,7.32834e-01,9.99999e-01
1.123142276e+00,7.37139e-01,9.99999e-01,9.99999e-01,9.99718e-01,7.37347e-01,9.99999e-01
1.128757988e+00,7.41798e-01,9.99999e-01,9.99999e-01,9.99999e-01,7.41798e-01,9.99999e-01
1.134401778e+00,7.46187e-01,9.99999e-01,9.99999e-01,9.99999e-01,7.46187e-01,9.99999e-01
1.140073787e+00,7.50515e-01,9.99999e-01,9.99999e-01,9.99999e-01,7.50515e-01,9.99999e-01
1.145774156e+00,7.54782e-01,9.99999e-01,9.99999e-01,9.99999e-01,7.54782e-01,9.99999e-01
1.151503026e+00,7.58988e-01,9.99999e-01,9.99999e-01,9.99999e-01,7.58988e-01,9.99999e-01
1.157260541e+00,7.63133e-01,9.99999e-01,9.99999e-01,9.99999e-01,7.63133e-01,9.99999e-01
1.163046844e+00,7.67219e-01,9.99999e-01,9.99999e-01,9.99999e-01,7.67219e-01,9.99999e-01
1.168862078e+00,7.71245e-01,9.99999e-01,9.99999e-01,9.99999e-01,7.71245e-01,9.99999e-01
1.174706389e+00,7.75212e-01,9.99999e-01,9.99999e-01,9.99999e-01,7.75212e-01,9.99999e-01
1.180579921e+00,7.79121e-01,9.99999e-01,9.99999e-01,9.99999e-01,7.79121e-01,9.99999e-01
1.186482820e+00,7.82961e-01,9.99999e-01,9.99999e-01,9.99986e-01,7.82971e-01,9.99999e-01
1.192415234e+00,7.68162e-01,9.99999e-01,9.99999e-01,9.76355e-01,7.86764e-01,9.99999e-01
1.198377311e+00,4.29466e-01,9.99999e-01,9.99999e-01,5.43284e-01,7.90500e-01,9.99999e-01
1.204369197e+00,2.16043e-18,9.99999e-01,9.99999e-01,2.72033e-18,7.94179e-01,9.99999e-01
1.210391043e+00,1.34056e-71,9.99999e-01,9.99999e-01,1.68032e-71,7.97803e-01,9.99999e-01
1.216442998e+00,4.38292e-62,9.99999e-01,9.99999e-01,5.46927e-62,8.01370e-01,9.99999e-01
1.222525213e+00,3.62677e-61,9.99999e-01,9.99999e-01,4.50596e-61,8.04883e-01,9.99999e-01
1.228637839e+00,2.53566e-47,9.99999e-01,9.99999e-01,3.13686e-47,8.08341e-01,9.99999e-01
