#,Wave/freq,Total,N2,O2,CO2,Rayleigh,CIA
4.000000000e-01,8.59031e-07,9.99999e-01,9.99999e-01,9.99999e-01,8.59031e-07,9.99999e-01
4.020000000e-01,1.13228e-06,9.99999e-01,9.99999e-01,9.99999e-01,1.13228e-06,9.99999e-01
4.040100000e-01,1.48389e-06,9.99999e-01,9.99999e-01,9.99999e-01,1.48389e-06,9.99999e-01
4.060300500e-01,1.93433e-06,9.99999e-01,9.99999e-01,9.99999e-01,1.93433e-06,9.99999e-01
4.080602003e-01,2.50834e-06,9.99999e-01,9.99999e-01,9.99999e-01,2.50834e-06,9.99999e-01
4.101005013e-01,3.23603e-06,9.99999e-01,9.99999e-01,9.99999e-01,3.23603e-06,9.99999e-01
4.121510038e-01,4.15387e-06,9.99999e-01,9.99999e-01,9.99999e-01,4.15387e-06,9.99999e-01
4.142117588e-01,5.30581e-06,9.99999e-01,9.99999e-01,9.99999e-01,5.30581e-06,9.99999e-01
4.162828176e-01,6.74452e-06,9.99999e-01,9.99999e-01,9.99999e-01,6.74452e-06,9.99999e-01
4.183642317e-01,8.53281e-06,9.99999e-01,9.99999e-01,9.99999e-01,8.53281e-06,9.99999e-01
4.204560528e-01,1.07452e-05,9.99999e-01,9.99999e-01,9.99999e-01,1.07452e-05,9.99999e-01
4.225583331e-01,1.34698e-05,9.99999e-01,9.99999e-01,9.99999e-01,1.34698e-05,9.99999e-01
4.246711247e-01,1.68100e-05,9.99999e-01,9.99999e-01,9.99999e-01,1.68100e-05,9.99999e-01
4.267944804e-01,2.08870e-05,9.99999e-01,9.99999e-01,9.99999e-01,2.08870e-05,9.99999e-01
4.289284528e-01,2.58416e-05,9.99999e-01,9.99999e-01,9.99999e-01,2.58416e-05,9.99999e-01
4.310730950e-01,3.18374e-05,9.99999e-01,9.99999e-01,9.99999e-01,3.18374e-05,9.99999e-01
4.332284605e-01,3.90630e-05,9.99999e-01,9.99999e-01,9.99999e-01,3.90630e-05,9.99999e-01
4.353946028e-01,4.77352e-05,9.99999e-01,9.99999e-01,9.99999e-01,4.77352e-05,9.99999e-01
4.375715758e-01,5.81022e-05,9.99999e-01,9.99999e-01,9.99999e-01,5.81022e-05,9.99999e-01
4.397594337e-01,7.04467e-05,9.99999e-01,9.99999e-01,9.99999e-01,7.04467e-05,9.99999e-01
4.419582309e-01,8.50894e-05,9.99999e-01,9.99999e-01,9.99999e-01,8.50894e-05,9.99999e-01
4.441680220e-01,1.02393e-04,9.99999e-01,9.99999e-01,9.99999e-01,1.02393e-04,9.99999e-01
4.463888621e-01,1.22766e-04,9.99999e-01,9.99999e-01,9.99999e-01,1.22766e-04,9.99999e-01
4.486208064e-01,1.46665e-04,9.99999e-01,9.99999e-01,9.99999e-01,1.46665e-04,9.99999e-01
4.508639105e-01,1.74603e-04,9.99999e-01,9.99999e-01,9.99999e-01,1.74603e-04,9.99999e-01
4.531182300e-01,2.07148e-04,9.99999e-01,9.99999e-01,9.99999e-01,2.07148e-04,9.99999e-01
4.553838212e-01,2.44931e-04,9.99999e-01,9.99999e-01,9.99999e-01,2.44931e-04,9.99999e-01
4.576607403e-01,2.88648e-04,9.99999e-01,9.99999e-01,9.99999e-01,2.88648e-04,9.99999e-01
4.599490440e-01,3.39067e-04,9.99999e-01,9.99999e-01,9.99999e-01,3.39067e-04,9.99999e-01
4.622487892e-01,3.97028e-04,9.99999e-01,9.99999e-01,9.99999e-01,3.97028e-04,9.99999e-01
4.645600332e-01,4.63450e-04,9.99999e-01,9.99999e-01,9.99999e-01,4.63450e-04,9.99999e-01
4.668828333e-01,5.39334e-04,9.99999e-01,9.99999e-01,9.99999e-01,5.39334e-04,9.99999e-01
4.692172475e-01,6.25765e-04,9.99999e-01,9.99999e-01,9.99999e-01,6.25765e-04,9.99999e-01
4.715633337e-01,7.23919e-04,9.99999e-01,9.99999e-01,9.99999e-01,7.23919e-04,9.99999e-01
4.739211504e-01,8.35063e-04,9.99999e-01,9.99999e-01,9.99999e-01,8.35063e-04,9.99999e-01
4.762907561e-01,9.60556e-04,9.99999e-01,9.99999e-01,9.99999e-01,9.60556e-04,9.99999e-01
4.786722099e-01,1.10186e-03,9.99999e-01,9.99999e-01,9.99999e-01,1.10186e-03,9.99999e-01
4.810655710e-01,1.26052e-03,9.99999e-01,9.99999e-01,9.99999e-01,1.26052e-03,9.99999e-01
4.834708988e-01,1.43821e-03,9.99999e-01,9.99999e-01,9.99999e-01,1.43821e-03,9.99999e-01
4.858882533e-01,1.63667e-03,9.99999e-01,9.99999e-01,9.99999e-01,1.63667e-03,9.99999e-01
4.883176946e-01,1.85778e-03,9.99999e-01,9.99999e-01,9.99999e-01,1.85778e-03,9.99999e-01
4.907592831e-01,2.10348e-03,9.99999e-01,9.99999e-01,9.99999e-01,2.10348e-03,9.99999e-01
4.932130795e-01,2.37583e-03,9.99999e-01,9.99999e-01,9.99999e-01,2.37583e-03,9.99999e-01
4.956791449e-01,2.67701e-03,9.99999e-01,9.99999e-01,9.99999e-01,2.67701e-03,9.99999e-01
4.981575406e-01,3.00926e-03,9.99999e-01,9.99999e-01,9.99999e-01,3.00926e-03,9.99999e-01
5.006483283e-01,3.37495e-03,9.99999e-01,9.99999e-01,9.99999e-01,3.37495e-03,9.99999e-01
5.031515699e-01,3.77650e-03,9.99999e-01,9.99999e-01,9.99999e-01,3.77650e-03,9.99999e-01
5.056673278e-01,4.21646e-03,9.99999e-01,9.99999e-01,9.99999e-01,4.21646e-03,9.99999e-01
5.081956644e-01,4.69744e-03,9.99999e-01,9.99999e-01,9.99999e-01,4.69744e-03,9.99999e-01
5.107366428e-01,5.22213e-03,9.99999e-01,9.99999e-01,9.99999e-01,5.22213e-03,9.99999e-01
5.132903260e-01,5.79330e-03,9.99999e-01,9.99999e-01,9.99999e-01,5.79330e-03,9.99999e-01
5.158567776e-01,6.41378e-03,9.99999e-01,9.99999e-01,9.99999e-01,6.41378e-03,9.99999e-01
5.184360615e-01,7.08645e-03,9.99999e-01,9.99999e-01,9.99999e-01,7.08645e-03,9.99999e-01
5.210282418e-01,7.81427e-03,9.99999e-01,9.99999e-01,9.99999e-01,7.81427e-03,9.99999e-01
5.236333830e-01,8.60021e-03,9.99999e-01,9.99999e-01,9.99999e-01,8.60021e-03,9.99999e-01
5.262515499e-01,9.44729e-03,9.99999e-01,9.99999e-01,9.99999e-01,9.44729e-03,9.99999e-01
5.288828077e-01,1.03586e-02,9.99999e-01,9.99999e-01,9.99999e-01,1.03586e-02,9.99999e-01
5.315272217e-01,1.13371e-02,9.99999e-01,9.99999e-01,9.99999e-01,1.13371e-02,9.99999e-01
5.341848578e-01,1.23860e-02,9.99999e-01,9.99999e-01,9.99999e-01,1.23860e-02,9.99999e-01
5.368557821e-01,1.35083e-02,9.99999e-01,9.99999e-01,9.99999e-01,1.35083e-02,9.99999e-01
5.395400610e-01,1.47071e-02,9.99999e-01,9.99999e-01,9.99999e-01,1.47071e-02,9.99999e-01
5.422377613e-01,1.59853e-02,9.99999e-01,9.99999e-01,9.99999e-01,1.59853e-02,9.99999e-01
5.449489501e-01,1.73461e-02,9.99999e-01,9.99999e-01,9.99999e-01,1.73461e-02,9.99999e-01
5.476736949e-01,1.87924e-02,9.99999e-01,9.99999e-01,9.99999e-01,1.87924e-02,9.99999e-01
5.504120634e-01,2.03271e-02,9.99999e-01,9.99999e-01,9.99999e-01,2.03271e-02,9.99999e-01
5.531641237e-01,2.19531e-02,9.99999e-01,9.99999e-01,9.99999e-01,2.19531e-02,9.99999e-01
5.559299443e-01,2.36731e-02,9.99999e-01,9.99999e-01,9.99999e-01,2.36731e-02,9.99999e-01
5.587095940e-01,2.54899e-02,9.99999e-01,9.99999e-01,9.99999e-01,2.54899e-02,9.99999e-01
5.615031420e-01,2.74060e-02,9.99999e-01,9.99999e-01,9.99999e-01,2.74060e-02,9.99999e-01
5.643106577e-01,2.94240e-02,9.99999e-01,9.99999e-01,9.99999e-01,2.94240e-02,9.99999e-01
5.671322110e-01,3.15463e-02,9.99999e-01,9.99999e-01,9.99999e-01,3.15463e-02,9.99999e-01
5.699678720e-01,3.37752e-02,9.99999e-01,9.99999e-01,9.99999e-01,3.37752e-02,9.99999e-01
5.728177114e-01,3.61129e-02,9.99999e-01,9.99999e-01,9.99999e-01,3.61129e-02,9.99999e-01
5.756818000e-01,3.85613e-02,9.99999e-01,9.99999e-01,9.99999e-01,3.85613e-02,9.99999e-01
5.785602090e-01,4.11225e-02,9.99999e-01,9.99999e-01,9.99999e-01,4.11225e-02,9.99999e-01
5.814530100e-01,4.37980e-02,9.99999e-01,9.99999e-01,9.99999e-01,4.37980e-02,9.99999e-01
5.843602750e-01,4.65896e-02,9.99999e-01,9.99999e-01,9.99999e-01,4.65896e-02,9.99999e-01
5.872820764e-01,4.94987e-02,9.99999e-01,9.99999e-01,9.99999e-01,4.94987e-02,9.99999e-01
5.902184868e-01,5.25265e-02,9.99999e-01,9.99999e-01,9.99999e-01,5.25265e-02,9.99999e-01
5.931695792e-01,5.56742e-02,9.99999e-01,9.99999e-01,9.99999e-01,5.56742e-02,9.99999e-01
5.961354271e-01,5.89428e-02,9.99999e-01,9.99999e-01,9.99999e-01,5.89428e-02,9.99999e-01
5.991161043e-01,6.23330e-02,9.99999e-01,9.99999e-01,9.99999e-01,6.23330e-02,9.99999e-01
6.021116848e-01,6.58454e-02,9.99999e-01,9.99999e-01,9.99999e-01,6.58454e-02,9.99999e-01
6.051222432e-01,6.94804e-02,9.99999e-01,9.99999e-01,9.99999e-01,6.94804e-02,9.99999e-01
6.081478544e-01,7.32383e-02,9.99999e-01,9.99999e-01,9.99999e-01,7.32383e-02,9.99999e-01
6.111885937e-01,7.71192e-02,9.99999e-01,9.99999e-01,9.99999e-01,7.71192e-02,9.99999e-01
6.142445367e-01,8.11230e-02,9.99999e-01,9.99999e-01,9.99999e-01,8.11230e-02,9.99999e-01
6.173157594e-01,8.52493e-02,9.99999e-01,9.99999e-01,9.99999e-01,8.52493e-02,9.99999e-01
6.204023382e-01,8.94978e-02,9.99999e-01,9.99999e-01,9.99999e-01,8.94978e-02,9.99999e-01
6.235043498e-01,9.38678e-02,9.99999e-01,9.99999e-01,9.99999e-01,9.38678e-02,9.99999e-01
6.266218716e-01,9.83585e-02,9.99999e-01,9.99999e-01,9.99999e-01,9.83585e-02,9.99999e-01
6.297549810e-01,1.02969e-01,9.99999e-01,9.99999e-01,9.99999e-01,1.02969e-01,9.99999e-01
6.329037559e-01,1.07698e-01,9.99999e-01,9.99999e-01,9.99999e-01,1.07698e-01,9.99999e-01
6.360682746e-01,1.12544e-01,9.99999e-01,9.99999e-01,9.99999e-01,1.12544e-01,9.99999e-01
6.392486160e-01,1.17507e-01,9.99999e-01,9.99999e-01,9.99999e-01,1.17507e-01,9.99999e-01
6.424448591e-01,1.22583e-01,9.99999e-01,9.99999e-01,9.99999e-01,1.22583e-01,9.99999e-01
6.456570834e-01,1.27772e-01,9.99999e-01,9.99999e-01,9.99999e-01,1.27772e-01,9.99999e-01
6.488853688e-01,1.33072e-01,9.99999e-01,9.99999e-01,9.99999e-01,1.33072e-01,9.99999e-01
6.521297956e-01,1.38481e-01,9.99999e-01,9.99999e-01,9.99999e-01,1.38481e-01,9.99999e-01
6.553904446e-01,1.43995e-01,9.99999e-01,9.99999e-01,9.99999e-01,1.43995e-01,9.99999e-01
6.586673968e-01,1.49614e-01,9.99999e-01,9.99999e-01,9.99999e-01,1.49614e-01,9.99999e-01
6.619607338e-01,1.55335e-01,9.99999e-01,9.99999e-01,9.99999e-01,1.55335e-01,9.99999e-01
6.652705375e-01,1.61155e-01,9.99999e-01,9.99999e-01,9.99999e-01,1.61155e-01,9.99999e-01
6.685968902e-01,1.67072e-01,9.99999e-01,9.99999e-01,9.99999e-01,1.67072e-01,9.99999e-01
6.719398746e-01,1.73082e-01,9.99999e-01,9.99999e-01,9.99999e-01,1.73082e-01,9.99999e-01
6.752995740e-01,1.79184e-01,9.99999e-01,9.99999e-01,9.99999e-01,1.79184e-01,9.99999e-01
6.786760719e-01,1.85374e-01,9.99999e-01,9.99999e-01,9.99999e-01,1.85374e-01,9.99999e-01
6.820694522e-01,1.91649e-01,9.99999e-01,9.99999e-01,9.99999e-01,1.91649e-01,9.99999e-01
6.854797995e-01,1.98006e-01,9.99999e-01,9.99999e-01,9.99999e-01,1.98006e-01,9.99999e-01
6.889071985e-01,2.04442e-01,9.99999e-01,9.99999e-01,9.99999e-01,2.04442e-01,9.99999e-01
6.923517345e-01,2.10954e-01,9.99999e-01,9.99999e-01,9.99999e-01,2.10954e-01,9.99999e-01
6.958134932e-01,2.17539e-01,9.99999e-01,9.99999e-01,9.99999e-01,2.17539e-01,9.99999e-01
6.992925606e-01,2.24193e-01,9.99999e-01,9.99999e-01,9.99999e-01,2.24193e-01,9.99999e-01
7.027890234e-01,2.30914e-01,9.99999e-01,9.99999e-01,9.99999e-01,2.30914e-01,9.99999e-01
7.063029686e-01,2.37696e-01,9.99999e-01,9.99999e-01,9.99999e-01,2.37696e-01,9.99999e-01
7.098344834e-01,2.44539e-01,9.99999e-01,9.99999e-01,9.99999e-01,2.44539e-01,9.99999e-01
7.133836558e-01,2.51437e-01,9.99999e-01,9.99999e-01,9.99999e-01,2.51437e-01,9.99999e-01
7.169505741e-01,2.58388e-01,9.99999e-01,9.99999e-01,9.99999e-01,2.58388e-01,9.99999e-01
7.205353270e-01,2.65388e-01,9.99999e-01,9.99999e-01,9.99999e-01,2.65388e-01,9.99999e-01
7.241380036e-01,2.72434e-01,9.99999e-01,9.99999e-01,9.99999e-01,2.72434e-01,9.99999e-01
7.277586936e-01,2.79522e-01,9.99999e-01,9.99999e-01,9.99999e-01,2.79522e-01,9.99999e-01
7.313974871e-01,2.86649e-01,9.99999e-01,9.99999e-01,9.99999e-01,2.86649e-01,9.99999e-01
7.350544745e-01,2.93812e-01,9.99999e-01,9.99999e-01,9.99999e-01,2.93812e-01,9.99999e-01
7.387297469e-01,3.01007e-01,9.99999e-01,9.99999e-01,9.99999e-01,3.01007e-01,9.99999e-01
7.424233956e-01,3.08231e-01,9.99999e-01,9.99999e-01,9.99999e-01,3.08231e-01,9.99999e-01
7.461355126e-01,3.15480e-01,9.99999e-01,9.99999e-01,9.99999e-01,3.15480e-01,9.99999e-01
7.498661902e-01,3.22752e-01,9.99999e-01,9.99999e-01,9.99999e-01,3.22752e-01,9.99999e-01
7.536155211e-01,3.30042e-01,9.99999e-01,9.99999e-01,9.99999e-01,3.30042e-01,9.99999e-01
7.573835987e-01,3.37349e-01,9.99999e-01,9.99999e-01,9.99999e-01,3.37349e-01,9.99999e-01
7.611705167e-01,3.44668e-01,9.99999e-01,9.99999e-01,9.99999e-01,3.44668e-01,9.99999e-01
7.649763693e-01,3.51996e-01,9.99999e-01,9.99999e-01,9.99999e-01,3.51996e-01,9.99999e-01
7.688012511e-01,3.59331e-01,9.99999e-01,9.99999e-01,9.99999e-01,3.59331e-01,9.99999e-01
7.726452574e-01,3.66670e-01,9.99999e-01,9.99999e-01,9.99999e-01,3.66670e-01,9.99999e-01
7.765084837e-01,3.74009e-01,9.99999e-01,9.99999e-01,9.99999e-01,3.74009e-01,9.99999e-01
7.803910261e-01,3.65401e-01,9.99999e-01,9.99999e-01,9.58188e-01,3.81345e-01,9.99999e-01
7.842929812e-01,3.18499e-01,9.99999e-01,9.99999e-01,8.19443e-01,3.88677e-01,9.99999e-01
7.882144461e-01,3.20455e-01,9.99999e-01,9.99999e-01,8.09230e-01,3.96000e-01,9.99999e-01
7.921555184e-01,3.56093e-01,9.99999e-01,9.99999e-01,8.82920e-01,4.03312e-01,9.99999e-01
7.961162960e-01,3.77530e-01,9.99999e-01,9.99999e-01,9.19433e-01,4.10611e-01,9.99999e-01
8.000968774e-01,3.99315e-01,9.99999e-01,9.99999e-01,9.55539e-01,4.17895e-01,9.99999e-01
8.040973618e-01,4.15227e-01,9.99999e-01,9.99999e-01,9.76637e-01,4.25159e-01,9.99999e-01
8.081178486e-01,4.27752e-01,9.99999e-01,9.99999e-01,9.89243e-01,4.32403e-01,9.99999e-01
8.121584379e-01,4.38148e-01,9.99999e-01,9.99999e-01,9.96643e-01,4.39623e-01,9.99999e-01
8.162192301e-01,4.46487e-01,9.99999e-01,9.99999e-01,9.99257e-01,4.46818e-01,9.99999e-01
8.203003262e-01,4.53980e-01,9.99999e-01,9.99999e-01,9.99987e-01,4.53985e-01,9.99999e-01
8.244018279e-01,4.61122e-01,9.99999e-01,9.99999e-01,9.99999e-01,4.61122e-01,9.99999e-01
8.285238370e-01,4.68227e-01,9.99999e-01,9.99999e-01,9.99999e-01,4.68227e-01,9.99999e-01
8.326664562e-01,4.75298e-01,9.99999e-01,9.99999e-01,9.99999e-01,4.75298e-01,9.99999e-01
8.368297885e-01,4.82332e-01,9.99999e-01,9.99999e-01,9.99999e-01,4.82332e-01,9.99999e-01
8.410139374e-01,4.89329e-01,9.99999e-01,9.99999e-01,9.99999e-01,4.89329e-01,9.99999e-01
8.452190071e-01,4.96286e-01,9.99999e-01,9.99999e-01,9.99999e-01,4.96286e-01,9.99999e-01
8.494451021e-01,5.03202e-01,9.99999e-01,9.99999e-01,9.99999e-01,5.03202e-01,9.99999e-01
8.536923276e-01,5.10074e-01,9.99999e-01,9.99999e-01,9.99999e-01,5.10074e-01,9.99999e-01
8.579607893e-01,5.16902e-01,9.99999e-01,9.99999e-01,9.99999e-01,5.16902e-01,9.99999e-01
8.622505932e-01,5.23684e-01,9.99999e-01,9.99999e-01,9.99999e-01,5.23684e-01,9.99999e-01
8.665618462e-01,4.85240e-01,9.99999e-01,9.99999e-01,9.14825e-01,5.30418e-01,9.99999e-01
8.708946554e-01,3.25745e-01,9.99999e-01,9.99999e-01,6.06485e-01,5.37103e-01,9.99999e-01
8.752491287e-01,3.62005e-01,9.99999e-01,9.99999e-01,6.65770e-01,5.43738e-01,9.99999e-01
8.796253743e-01,4.39470e-01,9.99999e-01,9.99999e-01,7.98568e-01,5.50322e-01,9.99999e-01
8.840235012e-01,4.95396e-01,9.99999e-01,9.99999e-01,8.89636e-01,5.56852e-01,9.99999e-01
8.884436187e-01,5.37855e-01,9.99999e-01,9.99999e-01,9.54778e-01,5.63329e-01,9.99999e-01
8.928858368e-01,5.59192e-01,9.99999e-01,9.99999e-01,9.81466e-01,5.69751e-01,9.99999e-01
8.973502660e-01,5.73493e-01,9.99999e-01,9.99999e-01,9.95444e-01,5.76118e-01,9.99999e-01
9.018370173e-01,5.82134e-01,9.99999e-01,9.99999e-01,9.99496e-01,5.82427e-01,9.99999e-01
9.063462024e-01,5.81327e-01,9.99999e-01,9.99999e-01,9.87509e-01,5.88679e-01,9.99999e-01
9.108779334e-01,5.77595e-01,9.99999e-01,9.99999e-01,9.70954e-01,5.94873e-01,9.99999e-01
9.154323231e-01,5.96834e-01,9.99999e-01,9.99999e-01,9.93055e-01,6.01007e-01,9.99999e-01
9.200094847e-01,5.50876e-01,9.99999e-01,9.99999e-01,9.07415e-01,6.07082e-01,9.99999e-01
9.246095321e-01,5.30866e-01,9.99999e-01,9.99999e-01,8.65876e-01,6.13097e-01,9.99999e-01
9.292325798e-01,5.53675e-01,9.99999e-01,9.99999e-01,8.94394e-01,6.19050e-01,9.99999e-01
9.338787427e-01,5.60437e-01,9.99999e-01,9.99999e-01,8.96782e-01,6.24942e-01,9.99999e-01
9.385481364e-01,5.82193e-01,9.99999e-01,9.99999e-01,9.22985e-01,6.30772e-01,9.99999e-01
9.432408771e-01,6.05963e-01,9.99999e-01,9.99999e-01,9.51964e-01,6.36539e-01,9.99999e-01
9.479570815e-01,6.26263e-01,9.99999e-01,9.99999e-01,9.75116e-01,6.42244e-01,9.99999e-01
9.526968669e-01,6.40053e-01,9.99999e-01,9.99999e-01,9.87909e-01,6.47886e-01,9.99999e-01
9.574603512e-01,6.50073e-01,9.99999e-01,9.99999e-01,9.94809e-01,6.53464e-01,9.99999e-01
9.622476530e-01,6.57910e-01,9.99999e-01,9.99999e-01,9.98376e-01,6.58979e-01,9.99999e-01
9.670588912e-01,6.64107e-01,9.99999e-01,9.99999e-01,9.99512e-01,6.64430e-01,9.99999e-01
9.718941857e-01,6.69794e-01,9.99999e-01,9.99999e-01,9.99964e-01,6.69818e-01,9.99999e-01
9.767536566e-01,6.75141e-01,9.99999e-01,9.99999e-01,9.99999e-01,6.75141e-01,9.99999e-01
9.816374249e-01,6.80400e-01,9.99999e-01,9.99999e-01,9.99999e-01,6.80400e-01,9.99999e-01
9.865456120e-01,6.85595e-01,9.99999e-01,9.99999e-01,9.99999e-01,6.85595e-01,9.99999e-01
9.914783401e-01,6.90726e-01,9.99999e-01,9.99999e-01,9.99999e-01,6.90726e-01,9.99999e-01
9.964357318e-01,6.95792e-01,9.99999e-01,9.99999e-01,9.99999e-01,6.95792e-01,9.99999e-01
1.001417910e+00,7.00795e-01,9.99999e-01,9.99999e-01,9.99999e-01,7.00795e-01,9.99999e-01
1.006425000e+00,7.05734e-01,9.99999e-01,9.99999e-01,9.99999e-01,7.05734e-01,9.99999e-01
1.011457125e+00,7.10609e-01,9.99999e-01,9.99999e-01,9.99999e-01,7.10609e-01,9.99999e-01
1.016514411e+00,7.15421e-01,9.99999e-01,9.99999e-01,9.99999e-01,7.15421e-01,9.99999e-01
1.021596983e+00,7.20124e-01,9.99999e-01,9.99999e-01,9.99937e-01,7.20169e-01,9.99999e-01
1.026704968e+00,7.21315e-01,9.99999e-01,9.99999e-01,9.95118e-01,7.24853e-01,9.99999e-01
1.031838492e+00,6.92448e-01,9.99999e-01,9.99999e-01,9.49240e-01,7.29475e-01,9.99999e-01
1.036997685e+00,8.76841e-02,9.99999e-01,9.99999e-01,1.19455e-01,7.34034e-01,9.99999e-01
1.042182673e+00,4.75195e-02,9.99999e-01,9.99999e-01,6.43432e-02,7.38531e-01,9.99999e-01
1.047393587e+00,6.70704e-02,9.99999e-01,9.99999e-01,9.02738e-02,7.42966e-01,9.99999e-01
1.052630555e+00,7.17499e-04,9.99999e-01,9.99999e-01,9.60071e-04,7.47339e-01,9.99999e-01
1.057893707e+00,2.06499e-03,9.99999e-01,9.99999e-01,2.74728e-03,7.51650e-01,9.99999e-01
1.063183176e+00,9.52237e-03,9.99999e-01,9.99999e-01,1.25974e-02,7.55901e-01,9.99999e-01
1.068499092e+00,3.44895e-02,9.99999e-01,9.99999e-01,4.53755e-02,7.60091e-01,9.99999e-01
1.073841587e+00,1.07239e-01,9.99999e-01,9.99999e-01,1.40324e-01,7.64221e-01,9.99999e-01
1.079210795e+00,2.21509e-01,9.99999e-01,9.99999e-01,2.88314e-01,7.68290e-01,9.99999e-01
1.084606849e+00,3.87661e-01,9.99999e-01,9.99999e-01,5.01956e-01,7.72301e-01,9.99999e-01
1.090029883e+00,5.42569e-01,9.99999e-01,9.99999e-01,6.98958e-01,7.76253e-01,9.99999e-01
1.095480033e+00,6.53733e-01,9.99999e-01,9.99999e-01,8.37962e-01,7.80146e-01,9.99999e-01
1.100957433e+00,7.19935e-01,9.99999e-01,9.99999e-01,9.18306e-01,7.83981e-01,9.99999e-01
1.106462220e+00,7.60450e-01,9.99999e-01,9.99999e-01,9.65332e-01,7.87759e-01,9.99999e-01
1.111994531e+00,7.81196e-01,9.99999e-01,9.99999e-01,9.87006e-01,7.91480e-01,9.99999e-01
1.117554504e+00,7.92601e-01,9.99999e-01,9.99999e-01,9.96801e-01,7.95144e-01,9.99999e-01
1.123142276e+00,7.98584e-01,9.99999e-01,9.99999e-01,9.99788e-01,7.98753e-01,9.99999e-01
1.128757988e+00,8.02306e-01,9.99999e-01,9.99999e-01,9.99999e-01,8.02306e-01,9.99999e-01
1.134401778e+00,8.05804e-01,9.99999e-01,9.99999e-01,9.99999e-01,8.05804e-01,9.99999e-01
1.140073787e+00,8.09248e-01,9.99999e-01,9.99999e-01,9.99999e-01,8.09248e-01,9.99999e-01
1.145774156e+00,8.12638e-01,9.99999e-01,9.99999e-01,9.99999e-01,8.12638e-01,9.99999e-01
1.151503026e+00,8.15975e-01,9.99999e-01,9.99999e-01,9.99999e-01,8.15975e-01,9.99999e-01
1.157260541e+00,8.19259e-01,9.99999e-01,9.99999e-01,9.99999e-01,8.19259e-01,9.99999e-01
1.163046844e+00,8.22492e-01,9.99999e-01,9.99999e-01,9.99999e-01,8.22492e-01,9.99999e-01
1.168862078e+00,8.25673e-01,9.99999e-01,9.99999e-01,9.99999e-01,8.25673e-01,9.99999e-01
1.174706389e+00,8.28803e-01,9.99999e-01,9.99999e-01,9.99999e-01,8.28803e-01,9.99999e-01
1.180579921e+00,8.31882e-01,9.99999e-01,9.99999e-01,9.99999e-01,8.31882e-01,9.99999e-01
1.186482820e+00,8.34907e-01,9.99999e-01,9.99999e-01,9.99992e-01,8.34912e-01,9.99999e-01
1.192415234e+00,8.23520e-01,9.99999e-01,9.99999e-01,9.82844e-01,8.37893e-01,9.99999e-01
1.198377311e+00,4.66221e-01,9.99999e-01,9.99999e-01,5.54480e-01,8.40826e-01,9.99999e-01
1.204369197e+00,3.75541e-14,9.99999e-01,9.99999e-01,4.45107e-14,8.43710e-01,9.99999e-01
1.210391043e+00,2.20477e-53,9.99999e-01,9.99999e-01,2.60443e-53,8.46547e-01,9.99999e-01
1.216442998e+00,2.28377e-46,9.99999e-01,9.99999e-01,2.68888e-46,8.49337e-01,9.99999e-01
1.222525213e+00,1.08487e-45,9.99999e-01,9.99999e-01,1.27320e-45,8.52081e-01,9.99999e-01
1.228637839e+00,2.18629e-35,9.99999e-01,9.99999e-01,2.55772e-35,8.54779e-01,9.99999e-01
