#,Wave/freq,Total,N2,O2,CO2,Rayleigh,CIA
4.000000000e-01,3.55049e-09,9.99999e-01,9.99999e-01,9.99999e-01,3.55049e-09,9.99999e-01
4.020000000e-01,5.21627e-09,9.99999e-01,9.99999e-01,9.99999e-01,5.21627e-09,9.99999e-01
4.040100000e-01,7.60262e-09,9.99999e-01,9.99999e-01,9.99999e-01,7.60262e-09,9.99999e-01
4.060300500e-01,1.09985e-08,9.99999e-01,9.99999e-01,9.99999e-01,1.09985e-08,9.99999e-01
4.080602003e-01,1.57957e-08,9.99999e-01,9.99999e-01,9.99999e-01,1.57957e-08,9.99999e-01
4.101005013e-01,2.25235e-08,9.99999e-01,9.99999e-01,9.99999e-01,2.25235e-08,9.99999e-01
4.121510038e-01,3.18926e-08,9.99999e-01,9.99999e-01,9.99999e-01,3.18926e-08,9.99999e-01
4.142117588e-01,4.48498e-08,9.99999e-01,9.99999e-01,9.99999e-01,4.48498e-08,9.99999e-01
4.162828176e-01,6.26479e-08,9.99999e-01,9.99999e-01,9.99999e-01,6.26479e-08,9.99999e-01
4.183642317e-01,8.69332e-08,9.99999e-01,9.99999e-01,9.99999e-01,8.69332e-08,9.99999e-01
4.204560528e-01,1.19854e-07,9.99999e-01,9.99999e-01,9.99999e-01,1.19854e-07,9.99999e-01
4.225583331e-01,1.64198e-07,9.99999e-01,9.99999e-01,9.99999e-01,1.64198e-07,9.99999e-01
4.246711247e-01,2.23553e-07,9.99999e-01,9.99999e-01,9.99999e-01,2.23553e-07,9.99999e-01
4.267944804e-01,3.02515e-07,9.99999e-01,9.99999e-01,9.99999e-01,3.02515e-07,9.99999e-01
4.289284528e-01,4.06929e-07,9.99999e-01,9.99999e-01,9.99999e-01,4.06929e-07,9.99999e-01
4.310730950e-01,5.44185e-07,9.99999e-01,9.99999e-01,9.99999e-01,5.44185e-07,9.99999e-01
4.332284605e-01,7.23571e-07,9.99999e-01,9.99999e-01,9.99999e-01,7.23571e-07,9.99999e-01
4.353946028e-01,9.56691e-07,9.99999e-01,9.99999e-01,9.99999e-01,9.56691e-07,9.99999e-01
4.375715758e-01,1.25796e-06,9.99999e-01,9.99999e-01,9.99999e-01,1.25796e-06,9.99999e-01
4.397594337e-01,1.64518e-06,9.99999e-01,9.99999e-01,9.99999e-01,1.64518e-06,9.99999e-01
4.419582309e-01,2.14021e-06,9.99999e-01,9.99999e-01,9.99999e-01,2.14021e-06,9.99999e-01
4.441680220e-01,2.76977e-06,9.99999e-01,9.99999e-01,9.99999e-01,2.76977e-06,9.99999e-01
4.463888621e-01,3.56631e-06,9.99999e-01,9.99999e-01,9.99999e-01,3.56631e-06,9.99999e-01
4.486208064e-01,4.56906e-06,9.99999e-01,9.99999e-01,9.99999e-01,4.56906e-06,9.99999e-01
4.508639105e-01,5.82517e-06,9.99999e-01,9.99999e-01,9.99999e-01,5.82517e-06,9.99999e-01
4.531182300e-01,7.39106e-06,9.99999e-01,9.99999e-01,9.99999e-01,7.39106e-06,9.99999e-01
4.553838212e-01,9.33388e-06,9.99999e-01,9.99999e-01,9.99999e-01,9.33388e-06,9.99999e-01
4.576607403e-01,1.17332e-05,9.99999e-01,9.99999e-01,9.99999e-01,1.17332e-05,9.99999e-01
4.599490440e-01,1.46827e-05,9.99999e-01,9.99999e-01,9.99999e-01,1.46827e-05,9.99999e-01
4.622487892e-01,1.82926e-05,9.99999e-01,9.99999e-01,9.99999e-01,1.82926e-05,9.99999e-01
4.645600332e-01,2.26912e-05,9.99999e-01,9.99999e-01,9.99999e-01,2.26912e-05,9.99999e-01
4.668828333e-01,2.80279e-05,9.99999e-01,9.99999e-01,9.99999e-01,2.80279e-05,9.99999e-01
4.692172475e-01,3.44756e-05,9.99999e-01,9.99999e-01,9.99999e-01,3.44756e-05,9.99999e-01
4.715633337e-01,4.22334e-05,9.99999e-01,9.99999e-01,9.99999e-01,4.22334e-05,9.99999e-01
4.739211504e-01,5.15301e-05,9.99999e-01,9.99999e-01,9.99999e-01,5.15301e-05,9.99999e-01
4.762907561e-01,6.26265e-05,9.99999e-01,9.99999e-01,9.99999e-01,6.26265e-05,9.99999e-01
4.786722099e-01,7.58198e-05,9.99999e-01,9.99999e-01,9.99999e-01,7.58198e-05,9.99999e-01
4.810655710e-01,9.14465e-05,9.99999e-01,9.99999e-01,9.99999e-01,9.14465e-05,9.99999e-01
4.834708988e-01,1.09886e-04,9.99999e-01,9.99999e-01,9.99999e-01,1.09886e-04,9.99999e-01
4.858882533e-01,1.31566e-04,9.99999e-01,9.99999e-01,9.99999e-01,1.31566e-04,9.99999e-01
4.883176946e-01,1.56965e-04,9.99999e-01,9.99999e-01,9.99999e-01,1.56965e-04,9.99999e-01
4.907592831e-01,1.86614e-04,9.99999e-01,9.99999e-01,9.99999e-01,1.86614e-04,9.99999e-01
4.932130795e-01,2.21107e-04,9.99999e-01,9.99999e-01,9.99999e-01,2.21107e-04,9.99999e-01
4.956791449e-01,2.61099e-04,9.99999e-01,9.99999e-01,9.99999e-01,2.61099e-04,9.99999e-01
4.981575406e-01,3.07314e-04,9.99999e-01,9.99999e-01,9.99999e-01,3.07314e-04,9.99999e-01
5.006483283e-01,3.60546e-04,9.99999e-01,9.99999e-01,9.99999e-01,3.60546e-04,9.99999e-01
5.031515699e-01,4.21667e-04,9.99999e-01,9.99999e-01,9.99999e-01,4.21667e-04,9.99999e-01
5.056673278e-01,4.91626e-04,9.99999e-01,9.99999e-01,9.99999e-01,4.91626e-04,9.99999e-01
5.081956644e-01,5.71457e-04,9.99999e-01,9.99999e-01,9.99999e-01,5.71457e-04,9.99999e-01
5.107366428e-01,6.62279e-04,9.99999e-01,9.99999e-01,9.99999e-01,6.62279e-04,9.99999e-01
5.132903260e-01,7.65303e-04,9.99999e-01,9.99999e-01,9.99999e-01,7.65303e-04,9.99999e-01
5.158567776e-01,8.81831e-04,9.99999e-01,9.99999e-01,9.99999e-01,8.81831e-04,9.99999e-01
5.184360615e-01,1.01326e-03,9.99999e-01,9.99999e-01,9.99999e-01,1.01326e-03,9.99999e-01
5.210282418e-01,1.16109e-03,9.99999e-01,9.99999e-01,9.99999e-01,1.16109e-03,9.99999e-01
5.236333830e-01,1.32691e-03,9.99999e-01,9.99999e-01,9.99999e-01,1.32691e-03,9.99999e-01
5.262515499e-01,1.51242e-03,9.99999e-01,9.99999e-01,9.99999e-01,1.51242e-03,9.99999e-01
5.288828077e-01,1.71942e-03,9.99999e-01,9.99999e-01,9.99999e-01,1.71942e-03,9.99999e-01
5.315272217e-01,1.94980e-03,9.99999e-01,9.99999e-01,9.99999e-01,1.94980e-03,9.99999e-01
5.341848578e-01,2.20556e-03,9.99999e-01,9.99999e-01,9.99999e-01,2.20556e-03,9.99999e-01
5.368557821e-01,2.48881e-03,9.99999e-01,9.99999e-01,9.99999e-01,2.48881e-03,9.99999e-01
5.395400610e-01,2.80173e-03,9.99999e-01,9.99999e-01,9.99999e-01,2.80173e-03,9.99999e-01
5.422377613e-01,3.14663e-03,9.99999e-01,9.99999e-01,9.99999e-01,3.14663e-03,9.99999e-01
5.449489501e-01,3.52590e-03,9.99999e-01,9.99999e-01,9.99999e-01,3.52590e-03,9.99999e-01
5.476736949e-01,3.94201e-03,9.99999e-01,9.99999e-01,9.99999e-01,3.94201e-03,9.99999e-01
5.504120634e-01,4.39752e-03,9.99999e-01,9.99999e-01,9.99999e-01,4.39752e-03,9.99999e-01
5.531641237e-01,4.89509e-03,9.99999e-01,9.99999e-01,9.99999e-01,4.89509e-03,9.99999e-01
5.559299443e-01,5.43743e-03,9.99999e-01,9.99999e-01,9.99999e-01,5.43743e-03,9.99999e-01
5.587095940e-01,6.02733e-03,9.99999e-01,9.99999e-01,9.99999e-01,6.02733e-03,9.99999e-01
5.615031420e-01,6.66765e-03,9.99999e-01,9.99999e-01,9.99999e-01,6.66765e-03,9.99999e-01
5.643106577e-01,7.36131e-03,9.99999e-01,9.99999e-01,9.99999e-01,7.36131e-03,9.99999e-01
5.671322110e-01,8.11125e-03,9.99999e-01,9.99999e-01,9.99999e-01,8.11125e-03,9.99999e-01
5.699678720e-01,8.92049e-03,9.99999e-01,9.99999e-01,9.99999e-01,8.92049e-03,9.99999e-01
5.728177114e-01,9.79205e-03,9.99999e-01,9.99999e-01,9.99999e-01,9.79205e-03,9.99999e-01
5.756818000e-01,1.07290e-02,9.99999e-01,9.99999e-01,9.99999e-01,1.07290e-02,9.99999e-01
5.785602090e-01,1.17344e-02,9.99999e-01,9.99999e-01,9.99999e-01,1.17344e-02,9.99999e-01
5.814530100e-01,1.28113e-02,9.99999e-01,9.99999e-01,9.99999e-01,1.28113e-02,9.99999e-01
5.843602750e-01,1.39628e-02,9.99999e-01,9.99999e-01,9.99999e-01,1.39628e-02,9.99999e-01
5.872820764e-01,1.51920e-02,9.99999e-01,9.99999e-01,9.99999e-01,1.51920e-02,9.99999e-01
5.902184868e-01,1.65018e-02,9.99999e-01,9.99999e-01,9.99999e-01,1.65018e-02,9.99999e-01
5.931695792e-01,1.78953e-02,9.99999e-01,9.99999e-01,9.99999e-01,1.78953e-02,9.99999e-01
5.961354271e-01,1.93755e-02,9.99999e-01,9.99999e-01,9.99999e-01,1.93755e-02,9.99999e-01
5.991161043e-01,2.09452e-02,9.99999e-01,9.99999e-01,9.99999e-01,2.09452e-02,9.99999e-01
6.021116848e-01,2.26072e-02,9.99999e-01,9.99999e-01,9.99999e-01,2.26072e-02,9.99999e-01
6.051222432e-01,2.43643e-02,9.99999e-01,9.99999e-01,9.99999e-01,2.43643e-02,9.99999e-01
6.081478544e-01,2.62192e-02,9.99999e-01,9.99999e-01,9.99999e-01,2.62192e-02,9.99999e-01
6.111885937e-01,2.81745e-02,9.99999e-01,9.99999e-01,9.99999e-01,2.81745e-02,9.99999e-01
6.142445367e-01,3.02326e-02,9.99999e-01,9.99999e-01,9.99999e-01,3.02326e-02,9.99999e-01
6.173157594e-01,3.23958e-02,9.99999e-01,9.99999e-01,9.99999e-01,3.23958e-02,9.99999e-01
6.204023382e-01,3.46666e-02,9.99999e-01,9.99999e-01,9.99999e-01,3.46666e-02,9.99999e-01
6.235043498e-01,3.70468e-02,9.99999e-01,9.99999e-01,9.99999e-01,3.70468e-02,9.99999e-01
6.266218716e-01,3.95387e-02,9.99999e-01,9.99999e-01,9.99999e-01,3.95387e-02,9.99999e-01
6.297549810e-01,4.21438e-02,9.99999e-01,9.99999e-01,9.99999e-01,4.21438e-02,9.99999e-01
6.329037559e-01,4.48641e-02,9.99999e-01,9.99999e-01,9.99999e-01,4.48641e-02,9.99999e-01
6.360682746e-01,4.77010e-02,9.99999e-01,9.99999e-01,9.99999e-01,4.77010e-02,9.99999e-01
6.392486160e-01,5.06559e-02,9.99999e-01,9.99999e-01,9.99999e-01,5.06559e-02,9.99999e-01
6.424448591e-01,5.37300e-02,9.99999e-01,9.99999e-01,9.99999e-01,5.37300e-02,9.99999e-01
6.456570834e-01,5.69243e-02,9.99999e-01,9.99999e-01,9.99999e-01,5.69243e-02,9.99999e-01
6.488853688e-01,6.02398e-02,9.99999e-01,9.99999e-01,9.99999e-01,6.02398e-02,9.99999e-01
6.521297956e-01,6.36772e-02,9.99999e-01,9.99999e-01,9.99999e-01,6.36772e-02,9.99999e-01
6.553904446e-01,6.72370e-02,9.99999e-01,9.99999e-01,9.99999e-01,6.72370e-02,9.99999e-01
6.586673968e-01,7.09196e-02,9.99999e-01,9.99999e-01,9.99999e-01,7.09196e-02,9.99999e-01
6.619607338e-01,7.47251e-02,9.99999e-01,9.99999e-01,9.99999e-01,7.47251e-02,9.99999e-01
6.652705375e-01,7.86535e-02,9.99999e-01,9.99999e-01,9.99999e-01,7.86535e-02,9.99999e-01
6.685968902e-01,8.27047e-02,9.99999e-01,9.99999e-01,9.99999e-01,8.27047e-02,9.99999e-01
6.719398746e-01,8.68784e-02,9.99999e-01,9.99999e-01,9.99999e-01,8.68784e-02,9.99999e-01
6.752995740e-01,9.11740e-02,9.99999e-01,9.99999e-01,9.99999e-01,9.11740e-02,9.99999e-01
6.786760719e-01,9.55908e-02,9.99999e-01,9.99999e-01,9.99999e-01,9.55908e-02,9.99999e-01
6.820694522e-01,1.00128e-01,9.99999e-01,9.99999e-01,9.99999e-01,1.00128e-01,9.99999e-01
6.854797995e-01,1.04784e-01,9.99999e-01,9.99999e-01,9.99999e-01,1.04784e-01,9.99999e-01
6.889071985e-01,1.09559e-01,9.99999e-01,9.99999e-01,9.99999e-01,1.09559e-01,9.99999e-01
6.923517345e-01,1.14451e-01,9.99999e-01,9.99999e-01,9.99999e-01,1.14451e-01,9.99999e-01
6.958134932e-01,1.19457e-01,9.99999e-01,9.99999e-01,9.99999e-01,1.19457e-01,9.99999e-01
6.992925606e-01,1.24578e-01,9.99999e-01,9.99999e-01,9.99999e-01,1.24578e-01,9.99999e-01
7.027890234e-01,1.29810e-01,9.99999e-01,9.99999e-01,9.99999e-01,1.29810e-01,9.99999e-01
7.063029686e-01,1.35152e-01,9.99999e-01,9.99999e-01,9.99999e-01,1.35152e-01,9.99999e-01
7.098344834e-01,1.40601e-01,9.99999e-01,9.99999e-01,9.99999e-01,1.40601e-01,9.99999e-01
7.133836558e-01,1.46157e-01,9.99999e-01,9.99999e-01,9.99999e-01,1.46157e-01,9.99999e-01
7.169505741e-01,1.51815e-01,9.99999e-01,9.99999e-01,9.99999e-01,1.51815e-01,9.99999e-01
7.205353270e-01,1.57575e-01,9.99999e-01,9.99999e-01,9.99999e-01,1.57575e-01,9.99999e-01
7.241380036e-01,1.63433e-01,9.99999e-01,9.99999e-01,9.99999e-01,1.63433e-01,9.99999e-01
7.277586936e-01,1.69386e-01,9.99999e-01,9.99999e-01,9.99999e-01,1.69386e-01,9.99999e-01
7.313974871e-01,1.75432e-01,9.99999e-01,9.99999e-01,9.99999e-01,1.75432e-01,9.99999e-01
7.350544745e-01,1.81568e-01,9.99999e-01,9.99999e-01,9.99999e-01,1.81568e-01,9.99999e-01
7.387297469e-01,1.87791e-01,9.99999e-01,9.99999e-01,9.99999e-01,1.87791e-01,9.99999e-01
7.424233956e-01,1.94098e-01,9.99999e-01,9.99999e-01,9.99999e-01,1.94098e-01,9.99999e-01
7.461355126e-01,2.00487e-01,9.99999e-01,9.99999e-01,9.99999e-01,2.00487e-01,9.99999e-01
7.498661902e-01,2.06953e-01,9.99999e-01,9.99999e-01,9.99999e-01,2.06953e-01,9.99999e-01
7.536155211e-01,2.13493e-01,9.99999e-01,9.99999e-01,9.99999e-01,2.13493e-01,9.99999e-01
7.573835987e-01,2.20105e-01,9.99999e-01,9.99999e-01,9.99999e-01,2.20105e-01,9.99999e-01
7.611705167e-01,2.26785e-01,9.99999e-01,9.99999e-01,9.99999e-01,2.26785e-01,9.99999e-01
7.649763693e-01,2.33530e-01,9.99999e-01,9.99999e-01,9.99999e-01,2.33530e-01,9.99999e-01
7.688012511e-01,2.40337e-01,9.99999e-01,9.99999e-01,9.99999e-01,2.40337e-01,9.99999e-01
7.726452574e-01,2.47201e-01,9.99999e-01,9.99999e-01,9.99999e-01,2.47201e-01,9.99999e-01
7.765084837e-01,2.54120e-01,9.99999e-01,9.99999e-01,9.99999e-01,2.54120e-01,9.99999e-01
7.803910261e-01,2.45725e-01,9.99999e-01,9.99999e-01,9.41149e-01,2.61090e-01,9.99999e-01
7.842929812e-01,2.04440e-01,9.99999e-01,9.99999e-01,7.62526e-01,2.68109e-01,9.99999e-01
7.882144461e-01,2.05884e-01,9.99999e-01,9.99999e-01,7.48202e-01,2.75171e-01,9.99999e-01
7.921555184e-01,2.37390e-01,9.99999e-01,9.99999e-01,8.40987e-01,2.82275e-01,9.99999e-01
7.961162960e-01,2.57765e-01,9.99999e-01,9.99999e-01,8.90638e-01,2.89416e-01,9.99999e-01
8.000968774e-01,2.78509e-01,9.99999e-01,9.99999e-01,9.39031e-01,2.96592e-01,9.99999e-01
8.040973618e-01,2.94082e-01,9.99999e-01,9.99999e-01,9.68016e-01,3.03798e-01,9.99999e-01
8.081178486e-01,3.06410e-01,9.99999e-01,9.99999e-01,9.85139e-01,3.11032e-01,9.99999e-01
8.121584379e-01,3.16834e-01,9.99999e-01,9.99999e-01,9.95421e-01,3.18291e-01,9.99999e-01
8.162192301e-01,3.25240e-01,9.99999e-01,9.99999e-01,9.98987e-01,3.25570e-01,9.99999e-01
8.203003262e-01,3.32862e-01,9.99999e-01,9.99999e-01,9.99985e-01,3.32867e-01,9.99999e-01
8.244018279e-01,3.40179e-01,9.99999e-01,9.99999e-01,9.99999e-01,3.40179e-01,9.99999e-01
8.285238370e-01,3.47502e-01,9.99999e-01,9.99999e-01,9.99999e-01,3.47502e-01,9.99999e-01
8.326664562e-01,3.54833e-01,9.99999e-01,9.99999e-01,9.99999e-01,3.54833e-01,9.99999e-01
8.368297885e-01,3.62170e-01,9.99999e-01,9.99999e-01,9.99999e-01,3.62170e-01,9.99999e-01
8.410139374e-01,3.69509e-01,9.99999e-01,9.99999e-01,9.99999e-01,3.69509e-01,9.99999e-01
8.452190071e-01,3.76847e-01,9.99999e-01,9.99999e-01,9.99999e-01,3.76847e-01,9.99999e-01
8.494451021e-01,3.84182e-01,9.99999e-01,9.99999e-01,9.99999e-01,3.84182e-01,9.99999e-01
8.536923276e-01,3.91511e-01,9.99999e-01,9.99999e-01,9.99999e-01,3.91511e-01,9.99999e-01
8.579607893e-01,3.98830e-01,9.99999e-01,9.99999e-01,9.99999e-01,3.98830e-01,9.99999e-01
8.622505932e-01,4.06138e-01,9.99999e-01,9.99999e-01,9.99999e-01,4.06138e-01,9.99999e-01
8.665618462e-01,3.69453e-01,9.99999e-01,9.99999e-01,8.93626e-01,4.13431e-01,9.99999e-01
8.708946554e-01,2.13042e-01,9.99999e-01,9.99999e-01,5.06389e-01,4.20707e-01,9.99999e-01
8.752491287e-01,2.45699e-01,9.99999e-01,9.99999e-01,5.74111e-01,4.27964e-01,9.99999e-01
8.796253743e-01,3.19706e-01,9.99999e-01,9.99999e-01,7.34619e-01,4.35199e-01,9.99999e-01
8.840235012e-01,3.76554e-01,9.99999e-01,9.99999e-01,8.51142e-01,4.42410e-01,9.99999e-01
8.884436187e-01,4.21949e-01,9.99999e-01,9.99999e-01,9.38510e-01,4.49594e-01,9.99999e-01
8.928858368e-01,4.45126e-01,9.99999e-01,9.99999e-01,9.74550e-01,4.56750e-01,9.99999e-01
8.973502660e-01,4.60992e-01,9.99999e-01,9.99999e-01,9.93786e-01,4.63874e-01,9.99999e-01
9.018370173e-01,4.70644e-01,9.99999e-01,9.99999e-01,9.99314e-01,4.70966e-01,9.99999e-01
9.063462024e-01,4.69524e-01,9.99999e-01,9.99999e-01,9.82220e-01,4.78023e-01,9.99999e-01
9.108779334e-01,4.65686e-01,9.99999e-01,9.99999e-01,9.60091e-01,4.85044e-01,9.99999e-01
9.154323231e-01,4.87381e-01,9.99999e-01,9.99999e-01,9.90560e-01,4.92025e-01,9.99999e-01
9.200094847e-01,4.36690e-01,9.99999e-01,9.99999e-01,8.75189e-01,4.98966e-01,9.99999e-01
9.246095321e-01,4.14573e-01,9.99999e-01,9.99999e-01,8.19531e-01,5.05866e-01,9.99999e-01
9.292325798e-01,4.38676e-01,9.99999e-01,9.99999e-01,8.55584e-01,5.12721e-01,9.99999e-01
9.338787427e-01,4.46974e-01,9.99999e-01,9.99999e-01,8.60341e-01,5.19531e-01,9.99999e-01
9.385481364e-01,4.71024e-01,9.99999e-01,9.99999e-01,8.94980e-01,5.26295e-01,9.99999e-01
9.432408771e-01,4.98003e-01,9.99999e-01,9.99999e-01,9.34321e-01,5.33010e-01,9.99999e-01
9.479570815e-01,5.21156e-01,9.99999e-01,9.99999e-01,9.65682e-01,5.39676e-01,9.99999e-01
9.526968669e-01,5.37190e-01,9.99999e-01,9.99999e-01,9.83338e-01,5.46291e-01,9.99999e-01
9.574603512e-01,5.48898e-01,9.99999e-01,9.99999e-01,9.92844e-01,5.52854e-01,9.99999e-01
9.622476530e-01,5.58114e-01,9.99999e-01,9.99999e-01,9.97764e-01,5.59364e-01,9.99999e-01
9.670588912e-01,5.65442e-01,9.99999e-01,9.99999e-01,9.99330e-01,5.65820e-01,9.99999e-01
9.718941857e-01,5.72194e-01,9.99999e-01,9.99999e-01,9.99953e-01,5.72221e-01,9.99999e-01
9.767536566e-01,5.78565e-01,9.99999e-01,9.99999e-01,9.99999e-01,5.78565e-01,9.99999e-01
9.816374249e-01,5.84853e-01,9.99999e-01,9.99999e-01,9.99999e-01,5.84853e-01,9.99999e-01
9.865456120e-01,5.91082e-01,9.99999e-01,9.99999e-01,9.99999e-01,5.91082e-01,9.99999e-01
9.914783401e-01,5.97253e-01,9.99999e-01,9.99999e-01,9.99999e-01,5.97253e-01,9.99999e-01
9.964357318e-01,6.03365e-01,9.99999e-01,9.99999e-01,9.99999e-01,6.03365e-01,9.99999e-01
1.001417910e+00,6.09416e-01,9.99999e-01,9.99999e-01,9.99999e-01,6.09416e-01,9.99999e-01
1.006425000e+00,6.15407e-01,9.99999e-01,9.99999e-01,9.99999e-01,6.15407e-01,9.99999e-01
1.011457125e+00,6.21337e-01,9.99999e-01,9.99999e-01,9.99999e-01,6.21337e-01,9.99999e-01
1.016514411e+00,6.27205e-01,9.99999e-01,9.99999e-01,9.99999e-01,6.27205e-01,9.99999e-01
1.021596983e+00,6.32944e-01,9.99999e-01,9.99999e-01,9.99894e-01,6.33010e-01,9.99999e-01
1.026704968e+00,6.34267e-01,9.99999e-01,9.99999e-01,9.92975e-01,6.38754e-01,9.99999e-01
1.031838492e+00,5.99329e-01,9.99999e-01,9.99999e-01,9.30006e-01,6.44434e-01,9.99999e-01
1.036997685e+00,5.56045e-02,9.99999e-01,9.99999e-01,8.55385e-02,6.50052e-01,9.99999e-01
1.042182673e+00,1.69170e-02,9.99999e-01,9.99999e-01,2.58036e-02,6.55605e-01,9.99999e-01
1.047393587e+00,2.90820e-02,9.99999e-01,9.99999e-01,4.39905e-02,6.61096e-01,9.99999e-01
1.052630555e+00,7.69883e-05,9.99999e-01,9.99999e-01,1.15507e-04,6.66522e-01,9.99999e-01
1.057893707e+00,2.65131e-04,9.99999e-01,9.99999e-01,3.94608e-04,6.71884e-01,9.99999e-01
1.063183176e+00,1.96867e-03,9.99999e-01,9.99999e-01,2.90714e-03,6.77183e-01,9.99999e-01
1.068499092e+00,9.86468e-03,9.99999e-01,9.99999e-01,1.44555e-02,6.82417e-01,9.99999e-01
1.073841587e+00,4.65401e-02,9.99999e-01,9.99999e-01,6.76860e-02,6.87587e-01,9.99999e-01
1.079210795e+00,1.26191e-01,9.99999e-01,9.99999e-01,1.82174e-01,6.92693e-01,9.99999e-01
1.084606849e+00,2.70109e-01,9.99999e-01,9.99999e-01,3.87122e-01,6.97735e-01,9.99999e-01
1.090029883e+00,4.28312e-01,9.99999e-01,9.99999e-01,6.09511e-01,7.02713e-01,9.99999e-01
1.095480033e+00,5.54372e-01,9.99999e-01,9.99999e-01,7.83422e-01,7.07627e-01,9.99999e-01
1.100957433e+00,6.33248e-01,9.99999e-01,9.99999e-01,8.88795e-01,7.12478e-01,9.99999e-01
1.106462220e+00,6.83154e-01,9.99999e-01,9.99999e-01,9.52443e-01,7.17265e-01,9.99999e-01
1.111994531e+00,7.09060e-01,9.99999e-01,9.99999e-01,9.82093e-01,7.21988e-01,9.99999e-01
1.117554504e+00,7.23464e-01,9.99999e-01,9.99999e-01,9.95616e-01,7.26649e-01,9.99999e-01
1.123142276e+00,7.31037e-01,9.99999e-01,9.99999e-01,9.99713e-01,7.31246e-01,9.99999e-01
1.128757988e+00,7.35781e-01,9.99999e-01,9.99999e-01,9.99999e-01,7.35781e-01,9.99999e-01
1.134401778e+00,7.40254e-01,9.99999e-01,9.99999e-01,9.99999e-01,7.40254e-01,9.99999e-01
1.140073787e+00,7.44665e-01,9.99999e-01,9.99999e-01,9.99999e-01,7.44665e-01,9.99999e-01
1.145774156e+00,7.49014e-01,9.99999e-01,9.99999e-01,9.99999e-01,7.49014e-01,9.99999e-01
1.151503026e+00,7.53302e-01,9.99999e-01,9.99999e-01,9.99999e-01,7.53302e-01,9.99999e-01
1.157260541e+00,7.57529e-01,9.99999e-01,9.99999e-01,9.99999e-01,7.57529e-01,9.99999e-01
1.163046844e+00,7.61696e-01,9.99999e-01,9.99999e-01,9.99999e-01,7.61696e-01,9.99999e-01
1.168862078e+00,7.65802e-01,9.99999e-01,9.99999e-01,9.99999e-01,7.65802e-01,9.99999e-01
1.174706389e+00,7.69849e-01,9.99999e-01,9.99999e-01,9.99999e-01,7.69849e-01,9.99999e-01
1.180579921e+00,7.73837e-01,9.99999e-01,9.99999e-01,9.99999e-01,7.73837e-01,9.99999e-01
1.186482820e+00,7.77754e-01,9.99999e-01,9.99999e-01,9.99984e-01,7.77766e-01,9.99999e-01
1.192415234e+00,7.62410e-01,9.99999e-01,9.99999e-01,9.75402e-01,7.81636e-01,9.99999e-01
1.198377311e+00,4.25331e-01,9.99999e-01,9.99999e-01,5.41512e-01,7.85449e-01,9.99999e-01
1.204369197e+00,7.80427e-19,9.99999e-01,9.99999e-01,9.88877e-19,7.89205e-01,9.99999e-01
1.210391043e+00,1.69095e-73,9.99999e-01,9.99999e-01,2.13260e-73,7.92904e-01,9.99999e-01
1.216442998e+00,1.00708e-63,9.99999e-01,9.99999e-01,1.26431e-63,7.96547e-01,9.99999e-01
1.222525213e+00,8.83110e-63,9.99999e-01,9.99999e-01,1.10370e-62,8.00134e-01,9.99999e-01
1.228637839e+00,1.45087e-48,9.99999e-01,9.99999e-01,1.80532e-48,8.03665e-01,9.99999e-01
