#,Wave/freq,Total,N2,O2,CO2,Rayleigh,CIA
4.000000000e-01,2.62326e-05,9.99999e-01,9.99999e-01,9.99999e-01,2.62326e-05,9.99999e-01
4.020000000e-01,3.23165e-05,9.99999e-01,9.99999e-01,9.99999e-01,3.23165e-05,9.99999e-01
4.040100000e-01,3.96391e-05,9.99999e-01,9.99999e-01,9.99999e-01,3.96391e-05,9.99999e-01
4.060300500e-01,4.84253e-05,9.99999e-01,9.99999e-01,9.99999e-01,4.84253e-05,9.99999e-01
4.080602003e-01,5.89254e-05,9.99999e-01,9.99999e-01,9.99999e-01,5.89254e-05,9.99999e-01
4.101005013e-01,7.14249e-05,9.99999e-01,9.99999e-01,9.99999e-01,7.14249e-05,9.99999e-01
4.121510038e-01,8.62475e-05,9.99999e-01,9.99999e-01,9.99999e-01,8.62475e-05,9.99999e-01
4.142117588e-01,1.03759e-04,9.99999e-01,9.99999e-01,9.99999e-01,1.03759e-04,9.99999e-01
4.162828176e-01,1.24371e-04,9.99999e-01,9.99999e-01,9.99999e-01,1.24371e-04,9.99999e-01
4.183642317e-01,1.48545e-04,9.99999e-01,9.99999e-01,9.99999e-01,1.48545e-04,9.99999e-01
4.204560528e-01,1.76796e-04,9.99999e-01,9.99999e-01,9.99999e-01,1.76796e-04,9.99999e-01
4.225583331e-01,2.09698e-04,9.99999e-01,9.99999e-01,9.99999e-01,2.09698e-04,9.99999e-01
4.246711247e-01,2.47886e-04,9.99999e-01,9.99999e-01,9.99999e-01,2.47886e-04,9.99999e-01
4.267944804e-01,2.92062e-04,9.99999e-01,9.99999e-01,9.99999e-01,2.92062e-04,9.99999e-01
4.289284528e-01,3.42997e-04,9.99999e-01,9.99999e-01,9.99999e-01,3.42997e-04,9.99999e-01
4.310730950e-01,4.01538e-04,9.99999e-01,9.99999e-01,9.99999e-01,4.01538e-04,9.99999e-01
4.332284605e-01,4.68610e-04,9.99999e-01,9.99999e-01,9.99999e-01,4.68610e-04,9.99999e-01
4.353946028e-01,5.45220e-04,9.99999e-01,9.99999e-01,9.99999e-01,5.45220e-04,9.99999e-01
4.375715758e-01,6.32459e-04,9.99999e-01,9.99999e-01,9.99999e-01,6.32459e-04,9.99999e-01
4.397594337e-01,7.31509e-04,9.99999e-01,9.99999e-01,9.99999e-01,7.31509e-04,9.99999e-01
4.419582309e-01,8.43644e-04,9.99999e-01,9.99999e-01,9.99999e-01,8.43644e-04,9.99999e-01
4.441680220e-01,9.70231e-04,9.99999e-01,9.99999e-01,9.99999e-01,9.70231e-04,9.99999e-01
4.463888621e-01,1.11274e-03,9.99999e-01,9.99999e-01,9.99999e-01,1.11274e-03,9.99999e-01
4.486208064e-01,1.27272e-03,9.99999e-01,9.99999e-01,9.99999e-01,1.27272e-03,9.99999e-01
4.508639105e-01,1.45185e-03,9.99999e-01,9.99999e-01,9.99999e-01,1.45185e-03,9.99999e-01
4.531182300e-01,1.65189e-03,9.99999e-01,9.99999e-01,9.99999e-01,1.65189e-03,9.99999e-01
4.553838212e-01,1.87470e-03,9.99999e-01,9.99999e-01,9.99999e-01,1.87470e-03,9.99999e-01
4.576607403e-01,2.12226e-03,9.99999e-01,9.99999e-01,9.99999e-01,2.12226e-03,9.99999e-01
4.599490440e-01,2.39663e-03,9.99999e-01,9.99999e-01,9.99999e-01,2.39663e-03,9.99999e-01
4.622487892e-01,2.69998e-03,9.99999e-01,9.99999e-01,9.99999e-01,2.69998e-03,9.99999e-01
4.645600332e-01,3.03457e-03,9.99999e-01,9.99999e-01,9.99999e-01,3.03457e-03,9.99999e-01
4.668828333e-01,3.40277e-03,9.99999e-01,9.99999e-01,9.99999e-01,3.40277e-03,9.99999e-01
4.692172475e-01,3.80702e-03,9.99999e-01,9.99999e-01,9.99999e-01,3.80702e-03,9.99999e-01
4.715633337e-01,4.24986e-03,9.99999e-01,9.99999e-01,9.99999e-01,4.24986e-03,9.99999e-01
4.739211504e-01,4.73391e-03,9.99999e-01,9.99999e-01,9.99999e-01,4.73391e-03,9.99999e-01
4.762907561e-01,5.26187e-03,9.99999e-01,9.99999e-01,9.99999e-01,5.26187e-03,9.99999e-01
4.786722099e-01,5.83651e-03,9.99999e-01,9.99999e-01,9.99999e-01,5.83651e-03,9.99999e-01
4.810655710e-01,6.46066e-03,9.99999e-01,9.99999e-01,9.99999e-01,6.46066e-03,9.99999e-01
4.834708988e-01,7.13722e-03,9.99999e-01,9.99999e-01,9.99999e-01,7.13722e-03,9.99999e-01
4.858882533e-01,7.86914e-03,9.99999e-01,9.99999e-01,9.99999e-01,7.86914e-03,9.99999e-01
4.883176946e-01,8.65941e-03,9.99999e-01,9.99999e-01,9.99999e-01,8.65941e-03,9.99999e-01
4.907592831e-01,9.51104e-03,9.99999e-01,9.99999e-01,9.99999e-01,9.51104e-03,9.99999e-01
4.932130795e-01,1.04271e-02,9.99999e-01,9.99999e-01,9.99999e-01,1.04271e-02,9.99999e-01
4.956791449e-01,1.14106e-02,9.99999e-01,9.99999e-01,9.99999e-01,1.14106e-02,9.99999e-01
4.981575406e-01,1.24647e-02,9.99999e-01,9.99999e-01,9.99999e-01,1.24647e-02,9.99999e-01
5.006483283e-01,1.35924e-02,9.99999e-01,9.99999e-01,9.99999e-01,1.35924e-02,9.99999e-01
5.031515699e-01,1.47968e-02,9.99999e-01,9.99999e-01,9.99999e-01,1.47968e-02,9.99999e-01
5.056673278e-01,1.60810e-02,9.99999e-01,9.99999e-01,9.99999e-01,1.60810e-02,9.99999e-01
5.081956644e-01,1.74479e-02,9.99999e-01,9.99999e-01,9.99999e-01,1.74479e-02,9.99999e-01
5.107366428e-01,1.89005e-02,9.99999e-01,9.99999e-01,9.99999e-01,1.89005e-02,9.99999e-01
5.132903260e-01,2.04417e-02,9.99999e-01,9.99999e-01,9.99999e-01,2.04417e-02,9.99999e-01
5.158567776e-01,2.20743e-02,9.99999e-01,9.99999e-01,9.99999e-01,2.20743e-02,9.99999e-01
5.184360615e-01,2.38013e-02,9.99999e-01,9.99999e-01,9.99999e-01,2.38013e-02,9.99999e-01
5.210282418e-01,2.56251e-02,9.99999e-01,9.99999e-01,9.99999e-01,2.56251e-02,9.99999e-01
5.236333830e-01,2.75486e-02,9.99999e-01,9.99999e-01,9.99999e-01,2.75486e-02,9.99999e-01
5.262515499e-01,2.95741e-02,9.99999e-01,9.99999e-01,9.99999e-01,2.95741e-02,9.99999e-01
5.288828077e-01,3.17040e-02,9.99999e-01,9.99999e-01,9.99999e-01,3.17040e-02,9.99999e-01
5.315272217e-01,3.39407e-02,9.99999e-01,9.99999e-01,9.99999e-01,3.39407e-02,9.99999e-01
5.341848578e-01,3.62863e-02,9.99999e-01,9.99999e-01,9.99999e-01,3.62863e-02,9.99999e-01
5.368557821e-01,3.87428e-02,9.99999e-01,9.99999e-01,9.99999e-01,3.87428e-02,9.99999e-01
5.395400610e-01,4.13122e-02,9.99999e-01,9.99999e-01,9.99999e-01,4.13122e-02,9.99999e-01
5.422377613e-01,4.39961e-02,9.99999e-01,9.99999e-01,9.99999e-01,4.39961e-02,9.99999e-01
5.449489501e-01,4.67961e-02,9.99999e-01,9.99999e-01,9.99999e-01,4.67961e-02,9.99999e-01
5.476736949e-01,4.97138e-02,9.99999e-01,9.99999e-01,9.99999e-01,4.97138e-02,9.99999e-01
5.504120634e-01,5.27502e-02,9.99999e-01,9.99999e-01,9.99999e-01,5.27502e-02,9.99999e-01
5.531641237e-01,5.59067e-02,9.99999e-01,9.99999e-01,9.99999e-01,5.59067e-02,9.99999e-01
5.559299443e-01,5.91840e-02,9.99999e-01,9.99999e-01,9.99999e-01,5.91840e-02,9.99999e-01
5.587095940e-01,6.25830e-02,9.99999e-01,9.99999e-01,9.99999e-01,6.25830e-02,9.99999e-01
5.615031420e-01,6.61042e-02,9.99999e-01,9.99999e-01,9.99999e-01,6.61042e-02,9.99999e-01
5.643106577e-01,6.97481e-02,9.99999e-01,9.99999e-01,9.99999e-01,6.97481e-02,9.99999e-01
5.671322110e-01,7.35150e-02,9.99999e-01,9.99999e-01,9.99999e-01,7.35150e-02,9.99999e-01
5.699678720e-01,7.74048e-02,9.99999e-01,9.99999e-01,9.99999e-01,7.74048e-02,9.99999e-01
5.728177114e-01,8.14174e-02,9.99999e-01,9.99999e-01,9.99999e-01,8.14174e-02,9.99999e-01
5.756818000e-01,8.55526e-02,9.99999e-01,9.99999e-01,9.99999e-01,8.55526e-02,9.99999e-01
5.785602090e-01,8.98099e-02,9.99999e-01,9.99999e-01,9.99999e-01,8.98099e-02,9.99999e-01
5.814530100e-01,9.41887e-02,9.99999e-01,9.99999e-01,9.99999e-01,9.41887e-02,9.99999e-01
5.843602750e-01,9.86881e-02,9.99999e-01,9.99999e-01,9.99999e-01,9.86881e-02,9.99999e-01
5.872820764e-01,1.03307e-01,9.99999e-01,9.99999e-01,9.99999e-01,1.03307e-01,9.99999e-01
5.902184868e-01,1.08045e-01,9.99999e-01,9.99999e-01,9.99999e-01,1.08045e-01,9.99999e-01
5.931695792e-01,1.12900e-01,9.99999e-01,9.99999e-01,9.99999e-01,1.12900e-01,9.99999e-01
5.961354271e-01,1.17870e-01,9.99999e-01,9.99999e-01,9.99999e-01,1.17870e-01,9.99999e-01
5.991161043e-01,1.22955e-01,9.99999e-01,9.99999e-01,9.99999e-01,1.22955e-01,9.99999e-01
6.021116848e-01,1.28152e-01,9.99999e-01,9.99999e-01,9.99999e-01,1.28152e-01,9.99999e-01
6.051222432e-01,1.33460e-01,9.99999e-01,9.99999e-01,9.99999e-01,1.33460e-01,9.99999e-01
6.081478544e-01,1.38876e-01,9.99999e-01,9.99999e-01,9.99999e-01,1.38876e-01,9.99999e-01
6.111885937e-01,1.44398e-01,9.99999e-01,9.99999e-01,9.99999e-01,1.44398e-01,9.99999e-01
6.142445367e-01,1.50025e-01,9.99999e-01,9.99999e-01,9.99999e-01,1.50025e-01,9.99999e-01
6.173157594e-01,1.55753e-01,9.99999e-01,9.99999e-01,9.99999e-01,1.55753e-01,9.99999e-01
6.204023382e-01,1.61580e-01,9.99999e-01,9.99999e-01,9.99999e-01,1.61580e-01,9.99999e-01
6.235043498e-01,1.67503e-01,9.99999e-01,9.99999e-01,9.99999e-01,1.67503e-01,9.99999e-01
6.266218716e-01,1.73521e-01,9.99999e-01,9.99999e-01,9.99999e-01,1.73521e-01,9.99999e-01
6.297549810e-01,1.79629e-01,9.99999e-01,9.99999e-01,9.99999e-01,1.79629e-01,9.99999e-01
6.329037559e-01,1.85825e-01,9.99999e-01,9.99999e-01,9.99999e-01,1.85825e-01,9.99999e-01
6.360682746e-01,1.92106e-01,9.99999e-01,9.99999e-01,9.99999e-01,1.92106e-01,9.99999e-01
6.392486160e-01,1.98469e-01,9.99999e-01,9.99999e-01,9.99999e-01,1.98469e-01,9.99999e-01
6.424448591e-01,2.04911e-01,9.99999e-01,9.99999e-01,9.99999e-01,2.04911e-01,9.99999e-01
6.456570834e-01,2.11428e-01,9.99999e-01,9.99999e-01,9.99999e-01,2.11428e-01,9.99999e-01
6.488853688e-01,2.18018e-01,9.99999e-01,9.99999e-01,9.99999e-01,2.18018e-01,9.99999e-01
6.521297956e-01,2.24677e-01,9.99999e-01,9.99999e-01,9.99999e-01,2.24677e-01,9.99999e-01
6.553904446e-01,2.31402e-01,9.99999e-01,9.99999e-01,9.99999e-01,2.31402e-01,9.99999e-01
6.586673968e-01,2.38190e-01,9.99999e-01,9.99999e-01,9.99999e-01,2.38190e-01,9.99999e-01
6.619607338e-01,2.45036e-01,9.99999e-01,9.99999e-01,9.99999e-01,2.45036e-01,9.99999e-01
6.652705375e-01,2.51938e-01,9.99999e-01,9.99999e-01,9.99999e-01,2.51938e-01,9.99999e-01
6.685968902e-01,2.58893e-01,9.99999e-01,9.99999e-01,9.99999e-01,2.58893e-01,9.99999e-01
6.719398746e-01,2.65896e-01,9.99999e-01,9.99999e-01,9.99999e-01,2.65896e-01,9.99999e-01
6.752995740e-01,2.72945e-01,9.99999e-01,9.99999e-01,9.99999e-01,2.72945e-01,9.99999e-01
6.786760719e-01,2.80037e-01,9.99999e-01,9.99999e-01,9.99999e-01,2.80037e-01,9.99999e-01
6.820694522e-01,2.87166e-01,9.99999e-01,9.99999e-01,9.99999e-01,2.87166e-01,9.99999e-01
6.854797995e-01,2.94332e-01,9.99999e-01,9.99999e-01,9.99999e-01,2.94332e-01,9.99999e-01
6.889071985e-01,3.01529e-01,9.99999e-01,9.99999e-01,9.99999e-01,3.01529e-01,9.99999e-01
6.923517345e-01,3.08754e-01,9.99999e-01,9.99999e-01,9.99999e-01,3.08754e-01,9.99999e-01
6.958134932e-01,3.16005e-01,9.99999e-01,9.99999e-01,9.99999e-01,3.16005e-01,9.99999e-01
6.992925606e-01,3.23279e-01,9.99999e-01,9.99999e-01,9.99999e-01,3.23279e-01,9.99999e-01
7.027890234e-01,3.30570e-01,9.99999e-01,9.99999e-01,9.99999e-01,3.30570e-01,9.99999e-01
7.063029686e-01,3.37878e-01,9.99999e-01,9.99999e-01,9.99999e-01,3.37878e-01,9.99999e-01
7.098344834e-01,3.45198e-01,9.99999e-01,9.99999e-01,9.99999e-01,3.45198e-01,9.99999e-01
7.133836558e-01,3.52527e-01,9.99999e-01,9.99999e-01,9.99999e-01,3.52527e-01,9.99999e-01
7.169505741e-01,3.59862e-01,9.99999e-01,9.99999e-01,9.99999e-01,3.59862e-01,9.99999e-01
7.205353270e-01,3.67201e-01,9.99999e-01,9.99999e-01,9.99999e-01,3.67201e-01,9.99999e-01
7.241380036e-01,3.74540e-01,9.99999e-01,9.99999e-01,9.99999e-01,3.74540e-01,9.99999e-01
7.277586936e-01,3.81876e-01,9.99999e-01,9.99999e-01,9.99999e-01,3.81876e-01,9.99999e-01
7.313974871e-01,3.89207e-01,9.99999e-01,9.99999e-01,9.99999e-01,3.89207e-01,9.99999e-01
7.350544745e-01,3.96529e-01,9.99999e-01,9.99999e-01,9.99999e-01,3.96529e-01,9.99999e-01
7.387297469e-01,4.03841e-01,9.99999e-01,9.99999e-01,9.99999e-01,4.03841e-01,9.99999e-01
7.424233956e-01,4.11139e-01,9.99999e-01,9.99999e-01,9.99999e-01,4.11139e-01,9.99999e-01
7.461355126e-01,4.18421e-01,9.99999e-01,9.99999e-01,9.99999e-01,4.18421e-01,9.99999e-01
7.498661902e-01,4.25684e-01,9.99999e-01,9.99999e-01,9.99999e-01,4.25684e-01,9.99999e-01
7.536155211e-01,4.32926e-01,9.99999e-01,9.99999e-01,9.99999e-01,4.32926e-01,9.99999e-01
7.573835987e-01,4.40145e-01,9.99999e-01,9.99999e-01,9.99999e-01,4.40145e-01,9.99999e-01
7.611705167e-01,4.47338e-01,9.99999e-01,9.99999e-01,9.99999e-01,4.47338e-01,9.99999e-01
7.649763693e-01,4.54502e-01,9.99999e-01,9.99999e-01,9.99999e-01,4.54502e-01,9.99999e-01
7.688012511e-01,4.61637e-01,9.99999e-01,9.99999e-01,9.99999e-01,4.61637e-01,9.99999e-01
7.726452574e-01,4.68740e-01,9.99999e-01,9.99999e-01,9.99999e-01,4.68740e-01,9.99999e-01
7.765084837e-01,4.75808e-01,9.99999e-01,9.99999e-01,9.99999e-01,4.75808e-01,9.99999e-01
7.803910261e-01,4.66528e-01,9.99999e-01,9.99999e-01,9.66217e-01,4.82840e-01,9.99999e-01
7.842929812e-01,4.21097e-01,9.99999e-01,9.99999e-01,8.59673e-01,4.89834e-01,9.99999e-01
7.882144461e-01,4.22497e-01,9.99999e-01,9.99999e-01,8.50456e-01,4.96788e-01,9.99999e-01
7.921555184e-01,4.58302e-01,9.99999e-01,9.99999e-01,9.09869e-01,5.03700e-01,9.99999e-01
7.961162960e-01,4.79301e-01,9.99999e-01,9.99999e-01,9.38755e-01,5.10570e-01,9.99999e-01
8.000968774e-01,4.99972e-01,9.99999e-01,9.99999e-01,9.66325e-01,5.17394e-01,9.99999e-01
8.040973618e-01,5.14958e-01,9.99999e-01,9.99999e-01,9.82419e-01,5.24173e-01,9.99999e-01
8.081178486e-01,5.26598e-01,9.99999e-01,9.99999e-01,9.91890e-01,5.30903e-01,9.99999e-01
8.121584379e-01,5.36236e-01,9.99999e-01,9.99999e-01,9.97490e-01,5.37585e-01,9.99999e-01
8.162192301e-01,5.43915e-01,9.99999e-01,9.99999e-01,9.99445e-01,5.44216e-01,9.99999e-01
8.203003262e-01,5.50791e-01,9.99999e-01,9.99999e-01,9.99991e-01,5.50796e-01,9.99999e-01
8.244018279e-01,5.57323e-01,9.99999e-01,9.99999e-01,9.99999e-01,5.57323e-01,9.99999e-01
8.285238370e-01,5.63796e-01,9.99999e-01,9.99999e-01,9.99999e-01,5.63796e-01,9.99999e-01
8.326664562e-01,5.70214e-01,9.99999e-01,9.99999e-01,9.99999e-01,5.70214e-01,9.99999e-01
8.368297885e-01,5.76576e-01,9.99999e-01,9.99999e-01,9.99999e-01,5.76576e-01,9.99999e-01
8.410139374e-01,5.82881e-01,9.99999e-01,9.99999e-01,9.99999e-01,5.82881e-01,9.99999e-01
8.452190071e-01,5.89129e-01,9.99999e-01,9.99999e-01,9.99999e-01,5.89129e-01,9.99999e-01
8.494451021e-01,5.95319e-01,9.99999e-01,9.99999e-01,9.99999e-01,5.95319e-01,9.99999e-01
8.536923276e-01,6.01449e-01,9.99999e-01,9.99999e-01,9.99999e-01,6.01449e-01,9.99999e-01
8.579607893e-01,6.07519e-01,9.99999e-01,9.99999e-01,9.99999e-01,6.07519e-01,9.99999e-01
8.622505932e-01,6.13529e-01,9.99999e-01,9.99999e-01,9.99999e-01,6.13529e-01,9.99999e-01
8.665618462e-01,5.73208e-01,9.99999e-01,9.99999e-01,9.25307e-01,6.19478e-01,9.99999e-01
8.708946554e-01,4.25845e-01,9.99999e-01,9.99999e-01,6.80953e-01,6.25366e-01,9.99999e-01
8.752491287e-01,4.63186e-01,9.99999e-01,9.99999e-01,7.33828e-01,6.31191e-01,9.99999e-01
8.796253743e-01,5.37394e-01,9.99999e-01,9.99999e-01,8.43693e-01,6.36954e-01,9.99999e-01
8.840235012e-01,5.88443e-01,9.99999e-01,9.99999e-01,9.15644e-01,6.42655e-01,9.99999e-01
8.884436187e-01,6.26173e-01,9.99999e-01,9.99999e-01,9.65880e-01,6.48292e-01,9.99999e-01
8.928858368e-01,6.44737e-01,9.99999e-01,9.99999e-01,9.86039e-01,6.53866e-01,9.99999e-01
8.973502660e-01,6.57130e-01,9.99999e-01,9.99999e-01,9.96594e-01,6.59376e-01,9.99999e-01
9.018370173e-01,6.64573e-01,9.99999e-01,9.99999e-01,9.99624e-01,6.64822e-01,9.99999e-01
9.063462024e-01,6.63751e-01,9.99999e-01,9.99999e-01,9.90370e-01,6.70205e-01,9.99999e-01
9.108779334e-01,6.60699e-01,9.99999e-01,9.99999e-01,9.78054e-01,6.75523e-01,9.99999e-01
9.154323231e-01,6.77245e-01,9.99999e-01,9.99999e-01,9.94810e-01,6.80778e-01,9.99999e-01
9.200094847e-01,6.35897e-01,9.99999e-01,9.99999e-01,9.27005e-01,6.85968e-01,9.99999e-01
9.246095321e-01,6.19957e-01,9.99999e-01,9.99999e-01,8.97065e-01,6.91094e-01,9.99999e-01
9.292325798e-01,6.39319e-01,9.99999e-01,9.99999e-01,9.18354e-01,6.96157e-01,9.99999e-01
9.338787427e-01,6.45766e-01,9.99999e-01,9.99999e-01,9.21003e-01,7.01155e-01,9.99999e-01
9.385481364e-01,6.64660e-01,9.99999e-01,9.99999e-01,9.41326e-01,7.06089e-01,9.99999e-01
9.432408771e-01,6.85132e-01,9.99999e-01,9.99999e-01,9.63671e-01,7.10959e-01,9.99999e-01
9.479570815e-01,7.02307e-01,9.99999e-01,9.99999e-01,9.81195e-01,7.15766e-01,9.99999e-01
9.526968669e-01,7.13947e-01,9.99999e-01,9.99999e-01,9.90891e-01,7.20510e-01,9.99999e-01
9.574603512e-01,7.22359e-01,9.99999e-01,9.99999e-01,9.96095e-01,7.25190e-01,9.99999e-01
9.622476530e-01,7.28918e-01,9.99999e-01,9.99999e-01,9.98780e-01,7.29807e-01,9.99999e-01
9.670588912e-01,7.34094e-01,9.99999e-01,9.99999e-01,9.99634e-01,7.34362e-01,9.99999e-01
9.718941857e-01,7.38835e-01,9.99999e-01,9.99999e-01,9.99973e-01,7.38854e-01,9.99999e-01
9.767536566e-01,7.43284e-01,9.99999e-01,9.99999e-01,9.99999e-01,7.43284e-01,9.99999e-01
9.816374249e-01,7.47653e-01,9.99999e-01,9.99999e-01,9.99999e-01,7.47653e-01,9.99999e-01
9.865456120e-01,7.51960e-01,9.99999e-01,9.99999e-01,9.99999e-01,7.51960e-01,9.99999e-01
9.914783401e-01,7.56206e-01,9.99999e-01,9.99999e-01,9.99999e-01,7.56206e-01,9.99999e-01
9.964357318e-01,7.60392e-01,9.99999e-01,9.99999e-01,9.99999e-01,7.60392e-01,9.99999e-01
1.001417910e+00,7.64517e-01,9.99999e-01,9.99999e-01,9.99999e-01,7.64517e-01,9.99999e-01
1.006425000e+00,7.68583e-01,9.99999e-01,9.99999e-01,9.99999e-01,7.68583e-01,9.99999e-01
1.011457125e+00,7.72589e-01,9.99999e-01,9.99999e-01,9.99999e-01,7.72589e-01,9.99999e-01
1.016514411e+00,7.76536e-01,9.99999e-01,9.99999e-01,9.99999e-01,7.76536e-01,9.99999e-01
1.021596983e+00,7.80385e-01,9.99999e-01,9.99999e-01,9.99948e-01,7.80425e-01,9.99999e-01
1.026704968e+00,7.81305e-01,9.99999e-01,9.99999e-01,9.96236e-01,7.84256e-01,9.99999e-01
1.031838492e+00,7.52949e-01,9.99999e-01,9.99999e-01,9.55481e-01,7.88030e-01,9.99999e-01
1.036997685e+00,1.20738e-01,9.99999e-01,9.99999e-01,1.52495e-01,7.91747e-01,9.99999e-01
1.042182673e+00,9.52417e-02,9.99999e-01,9.99999e-01,1.19739e-01,7.95407e-01,9.99999e-01
1.047393587e+00,1.13008e-01,9.99999e-01,9.99999e-01,1.41435e-01,7.99011e-01,9.99999e-01
1.052630555e+00,3.14281e-03,9.99999e-01,9.99999e-01,3.91598e-03,8.02561e-01,9.99999e-01
1.057893707e+00,8.02879e-03,9.99999e-01,9.99999e-01,9.96059e-03,8.06055e-01,9.99999e-01
1.063183176e+00,2.70164e-02,9.99999e-01,9.99999e-01,3.33743e-02,8.09495e-01,9.99999e-01
1.068499092e+00,7.63904e-02,9.99999e-01,9.99999e-01,9.39748e-02,8.12881e-01,9.99999e-01
1.073841587e+00,1.83101e-01,9.99999e-01,9.99999e-01,2.24330e-01,8.16214e-01,9.99999e-01
1.079210795e+00,3.18071e-01,9.99999e-01,9.99999e-01,3.88130e-01,8.19495e-01,9.99999e-01
1.084606849e+00,4.88642e-01,9.99999e-01,9.99999e-01,5.93931e-01,8.22724e-01,9.99999e-01
1.090029883e+00,6.30162e-01,9.99999e-01,9.99999e-01,7.62999e-01,8.25901e-01,9.99999e-01
1.095480033e+00,7.25591e-01,9.99999e-01,9.99999e-01,8.75231e-01,8.29027e-01,9.99999e-01
1.100957433e+00,7.80361e-01,9.99999e-01,9.99999e-01,9.37816e-01,8.32103e-01,9.99999e-01
1.106462220e+00,8.13254e-01,9.99999e-01,9.99999e-01,9.73804e-01,8.35130e-01,9.99999e-01
1.111994531e+00,8.29903e-01,9.99999e-01,9.99999e-01,9.90210e-01,8.38107e-01,9.99999e-01
1.117554504e+00,8.39020e-01,9.99999e-01,9.99999e-01,9.97602e-01,8.41036e-01,9.99999e-01
1.123142276e+00,8.43784e-01,9.99999e-01,9.99999e-01,9.99842e-01,8.43917e-01,9.99999e-01
1.128757988e+00,8.46750e-01,9.99999e-01,9.99999e-01,9.99999e-01,8.46750e-01,9.99999e-01
1.134401778e+00,8.49537e-01,9.99999e-01,9.99999e-01,9.99999e-01,8.49537e-01,9.99999e-01
1.140073787e+00,8.52278e-01,9.99999e-01,9.99999e-01,9.99999e-01,8.52278e-01,9.99999e-01
1.145774156e+00,8.54973e-01,9.99999e-01,9.99999e-01,9.99999e-01,8.54973e-01,9.99999e-01
1.151503026e+00,8.57623e-01,9.99999e-01,9.99999e-01,9.99999e-01,8.57623e-01,9.99999e-01
1.157260541e+00,8.60229e-01,9.99999e-01,9.99999e-01,9.99999e-01,8.60229e-01,9.99999e-01
1.163046844e+00,8.62791e-01,9.99999e-01,9.99999e-01,9.99999e-01,8.62791e-01,9.99999e-01
1.168862078e+00,8.65310e-01,9.99999e-01,9.99999e-01,9.99999e-01,8.65310e-01,9.99999e-01
1.174706389e+00,8.67786e-01,9.99999e-01,9.99999e-01,9.99999e-01,8.67786e-01,9.99999e-01
1.180579921e+00,8.70220e-01,9.99999e-01,9.99999e-01,9.99999e-01,8.70220e-01,9.99999e-01
1.186482820e+00,8.72607e-01,9.99999e-01,9.99999e-01,9.99992e-01,8.72613e-01,9.99999e-01
1.192415234e+00,8.63262e-01,9.99999e-01,9.99999e-01,9.86625e-01,8.74965e-01,9.99999e-01
1.198377311e+00,4.92480e-01,9.99999e-01,9.99999e-01,5.61374e-01,8.77276e-01,9.99999e-01
1.204369197e+00,3.06443e-11,9.99999e-01,9.99999e-01,3.48410e-11,8.79548e-01,9.99999e-01
1.210391043e+00,7.12300e-41,9.99999e-01,9.99999e-01,8.07797e-41,8.81780e-01,9.99999e-01
1.216442998e+00,1.41797e-35,9.99999e-01,9.99999e-01,1.60408e-35,8.83975e-01,9.99999e-01
1.222525213e+00,4.60401e-35,9.99999e-01,9.99999e-01,5.19563e-35,8.86130e-01,9.99999e-01
1.228637839e+00,3.69663e-27,9.99999e-01,9.99999e-01,4.16170e-27,8.88249e-01,9.99999e-01
