#,Wave/freq,Total,N2,O2,CO2,Rayleigh,CIA
4.000000000e-01,6.31609e-03,9.99999e-01,9.99999e-01,9.99999e-01,6.31609e-03,9.99999e-01
4.020000000e-01,6.98134e-03,9.99999e-01,9.99999e-01,9.99999e-01,6.98134e-03,9.99999e-01
4.040100000e-01,7.70063e-03,9.99999e-01,9.99999e-01,9.99999e-01,7.70063e-03,9.99999e-01
4.060300500e-01,8.47760e-03,9.99999e-01,9.99999e-01,9.99999e-01,8.47760e-03,9.99999e-01
4.080602003e-01,9.31525e-03,9.99999e-01,9.99999e-01,9.99999e-01,9.31525e-03,9.99999e-01
4.101005013e-01,1.02166e-02,9.99999e-01,9.99999e-01,9.99999e-01,1.02166e-02,9.99999e-01
4.121510038e-01,1.11848e-02,9.99999e-01,9.99999e-01,9.99999e-01,1.11848e-02,9.99999e-01
4.142117588e-01,1.22229e-02,9.99999e-01,9.99999e-01,9.99999e-01,1.22229e-02,9.99999e-01
4.162828176e-01,1.33339e-02,9.99999e-01,9.99999e-01,9.99999e-01,1.33339e-02,9.99999e-01
4.183642317e-01,1.45209e-02,9.99999e-01,9.99999e-01,9.99999e-01,1.45209e-02,9.99999e-01
4.204560528e-01,1.57870e-02,9.99999e-01,9.99999e-01,9.99999e-01,1.57870e-02,9.99999e-01
4.225583331e-01,1.71351e-02,9.99999e-01,9.99999e-01,9.99999e-01,1.71351e-02,9.99999e-01
4.246711247e-01,1.85683e-02,9.99999e-01,9.99999e-01,9.99999e-01,1.85683e-02,9.99999e-01
4.267944804e-01,2.00894e-02,9.99999e-01,9.99999e-01,9.99999e-01,2.00894e-02,9.99999e-01
4.289284528e-01,2.17014e-02,9.99999e-01,9.99999e-01,9.99999e-01,2.17014e-02,9.99999e-01
4.310730950e-01,2.34070e-02,9.99999e-01,9.99999e-01,9.99999e-01,2.34070e-02,9.99999e-01
4.332284605e-01,2.52090e-02,9.99999e-01,9.99999e-01,9.99999e-01,2.52090e-02,9.99999e-01
4.353946028e-01,2.71100e-02,9.99999e-01,9.99999e-01,9.99999e-01,2.71100e-02,9.99999e-01
4.375715758e-01,2.91125e-02,9.99999e-01,9.99999e-01,9.99999e-01,2.91125e-02,9.99999e-01
4.397594337e-01,3.12189e-02,9.99999e-01,9.99999e-01,9.99999e-01,3.12189e-02,9.99999e-01
4.419582309e-01,3.34315e-02,9.99999e-01,9.99999e-01,9.99999e-01,3.34315e-02,9.99999e-01
4.441680220e-01,3.57526e-02,9.99999e-01,9.99999e-01,9.99999e-01,3.57526e-02,9.99999e-01
4.463888621e-01,3.81842e-02,9.99999e-01,9.99999e-01,9.99999e-01,3.81842e-02,9.99999e-01
4.486208064e-01,4.07282e-02,9.99999e-01,9.99999e-01,9.99999e-01,4.07282e-02,9.99999e-01
4.508639105e-01,4.33863e-02,9.99999e-01,9.99999e-01,9.99999e-01,4.33863e-02,9.99999e-01
4.531182300e-01,4.61603e-02,9.99999e-01,9.99999e-01,9.99999e-01,4.61603e-02,9.99999e-01
4.553838212e-01,4.90515e-02,9.99999e-01,9.99999e-01,9.99999e-01,4.90515e-02,9.99999e-01
4.576607403e-01,5.20613e-02,9.99999e-01,9.99999e-01,9.99999e-01,5.20613e-02,9.99999e-01
4.599490440e-01,5.51909e-02,9.99999e-01,9.99999e-01,9.99999e-01,5.51909e-02,9.99999e-01
4.622487892e-01,5.84411e-02,9.99999e-01,9.99999e-01,9.99999e-01,5.84411e-02,9.99999e-01
4.645600332e-01,6.18129e-02,9.99999e-01,9.99999e-01,9.99999e-01,6.18129e-02,9.99999e-01
4.668828333e-01,6.53067e-02,9.99999e-01,9.99999e-01,9.99999e-01,6.53067e-02,9.99999e-01
4.692172475e-01,6.89232e-02,9.99999e-01,9.99999e-01,9.99999e-01,6.89232e-02,9.99999e-01
4.715633337e-01,7.26626e-02,9.99999e-01,9.99999e-01,9.99999e-01,7.26626e-02,9.99999e-01
4.739211504e-01,7.65249e-02,9.99999e-01,9.99999e-01,9.99999e-01,7.65249e-02,9.99999e-01
4.762907561e-01,8.05101e-02,9.99999e-01,9.99999e-01,9.99999e-01,8.05101e-02,9.99999e-01
4.786722099e-01,8.46179e-02,9.99999e-01,9.99999e-01,9.99999e-01,8.46179e-02,9.99999e-01
4.810655710e-01,8.88480e-02,9.99999e-01,9.99999e-01,9.99999e-01,8.88480e-02,9.99999e-01
4.834708988e-01,9.31997e-02,9.99999e-01,9.99999e-01,9.99999e-01,9.31997e-02,9.99999e-01
4.858882533e-01,9.76722e-02,9.99999e-01,9.99999e-01,9.99999e-01,9.76722e-02,9.99999e-01
4.883176946e-01,1.02265e-01,9.99999e-01,9.99999e-01,9.99999e-01,1.02265e-01,9.99999e-01
4.907592831e-01,1.06976e-01,9.99999e-01,9.99999e-01,9.99999e-01,1.06976e-01,9.99999e-01
4.932130795e-01,1.11805e-01,9.99999e-01,9.99999e-01,9.99999e-01,1.11805e-01,9.99999e-01
4.956791449e-01,1.16750e-01,9.99999e-01,9.99999e-01,9.99999e-01,1.16750e-01,9.99999e-01
4.981575406e-01,1.21809e-01,9.99999e-01,9.99999e-01,9.99999e-01,1.21809e-01,9.99999e-01
5.006483283e-01,1.26981e-01,9.99999e-01,9.99999e-01,9.99999e-01,1.26981e-01,9.99999e-01
5.031515699e-01,1.32264e-01,9.99999e-01,9.99999e-01,9.99999e-01,1.32264e-01,9.99999e-01
5.056673278e-01,1.37656e-01,9.99999e-01,9.99999e-01,9.99999e-01,1.37656e-01,9.99999e-01
5.081956644e-01,1.43155e-01,9.99999e-01,9.99999e-01,9.99999e-01,1.43155e-01,9.99999e-01
5.107366428e-01,1.48759e-01,9.99999e-01,9.99999e-01,9.99999e-01,1.48759e-01,9.99999e-01
5.132903260e-01,1.54464e-01,9.99999e-01,9.99999e-01,9.99999e-01,1.54464e-01,9.99999e-01
5.158567776e-01,1.60269e-01,9.99999e-01,9.99999e-01,9.99999e-01,1.60269e-01,9.99999e-01
5.184360615e-01,1.66171e-01,9.99999e-01,9.99999e-01,9.99999e-01,1.66171e-01,9.99999e-01
5.210282418e-01,1.72168e-01,9.99999e-01,9.99999e-01,9.99999e-01,1.72168e-01,9.99999e-01
5.236333830e-01,1.78256e-01,9.99999e-01,9.99999e-01,9.99999e-01,1.78256e-01,9.99999e-01
5.262515499e-01,1.84433e-01,9.99999e-01,9.99999e-01,9.99999e-01,1.84433e-01,9.99999e-01
5.288828077e-01,1.90695e-01,9.99999e-01,9.99999e-01,9.99999e-01,1.90695e-01,9.99999e-01
5.315272217e-01,1.97040e-01,9.99999e-01,9.99999e-01,9.99999e-01,1.97040e-01,9.99999e-01
5.341848578e-01,2.03465e-01,9.99999e-01,9.99999e-01,9.99999e-01,2.03465e-01,9.99999e-01
5.368557821e-01,2.09965e-01,9.99999e-01,9.99999e-01,9.99999e-01,2.09965e-01,9.99999e-01
5.395400610e-01,2.16540e-01,9.99999e-01,9.99999e-01,9.99999e-01,2.16540e-01,9.99999e-01
5.422377613e-01,2.23183e-01,9.99999e-01,9.99999e-01,9.99999e-01,2.23183e-01,9.99999e-01
5.449489501e-01,2.29894e-01,9.99999e-01,9.99999e-01,9.99999e-01,2.29894e-01,9.99999e-01
5.476736949e-01,2.36668e-01,9.99999e-01,9.99999e-01,9.99999e-01,2.36668e-01,9.99999e-01
5.504120634e-01,2.43501e-01,9.99999e-01,9.99999e-01,9.99999e-01,2.43501e-01,9.99999e-01
5.531641237e-01,2.50391e-01,9.99999e-01,9.99999e-01,9.99999e-01,2.50391e-01,9.99999e-01
5.559299443e-01,2.57335e-01,9.99999e-01,9.99999e-01,9.99999e-01,2.57335e-01,9.99999e-01
5.587095940e-01,2.64327e-01,9.99999e-01,9.99999e-01,9.99999e-01,2.64327e-01,9.99999e-01
5.615031420e-01,2.71367e-01,9.99999e-01,9.99999e-01,9.99999e-01,2.71367e-01,9.99999e-01
5.643106577e-01,2.78449e-01,9.99999e-01,9.99999e-01,9.99999e-01,2.78449e-01,9.99999e-01
5.671322110e-01,2.85570e-01,9.99999e-01,9.99999e-01,9.99999e-01,2.85570e-01,9.99999e-01
5.699678720e-01,2.92728e-01,9.99999e-01,9.99999e-01,9.99999e-01,2.92728e-01,9.99999e-01
5.728177114e-01,2.99918e-01,9.99999e-01,9.99999e-01,9.99999e-01,2.99918e-01,9.99999e-01
5.756818000e-01,3.07137e-01,9.99999e-01,9.99999e-01,9.99999e-01,3.07137e-01,9.99999e-01
5.785602090e-01,3.14383e-01,9.99999e-01,9.99999e-01,9.99999e-01,3.14383e-01,9.99999e-01
5.814530100e-01,3.21652e-01,9.99999e-01,9.99999e-01,9.99999e-01,3.21652e-01,9.99999e-01
5.843602750e-01,3.28939e-01,9.99999e-01,9.99999e-01,9.99999e-01,3.28939e-01,9.99999e-01
5.872820764e-01,3.36244e-01,9.99999e-01,9.99999e-01,9.99999e-01,3.36244e-01,9.99999e-01
5.902184868e-01,3.43561e-01,9.99999e-01,9.99999e-01,9.99999e-01,3.43561e-01,9.99999e-01
5.931695792e-01,3.50888e-01,9.99999e-01,9.99999e-01,9.99999e-01,3.50888e-01,9.99999e-01
5.961354271e-01,3.58223e-01,9.99999e-01,9.99999e-01,9.99999e-01,3.58223e-01,9.99999e-01
5.991161043e-01,3.65561e-01,9.99999e-01,9.99999e-01,9.99999e-01,3.65561e-01,9.99999e-01
6.021116848e-01,3.72900e-01,9.99999e-01,9.99999e-01,9.99999e-01,3.72900e-01,9.99999e-01
6.051222432e-01,3.80237e-01,9.99999e-01,9.99999e-01,9.99999e-01,3.80237e-01,9.99999e-01
6.081478544e-01,3.87569e-01,9.99999e-01,9.99999e-01,9.99999e-01,3.87569e-01,9.99999e-01
6.111885937e-01,3.94894e-01,9.99999e-01,9.99999e-01,9.99999e-01,3.94894e-01,9.99999e-01
6.142445367e-01,4.02208e-01,9.99999e-01,9.99999e-01,9.99999e-01,4.02208e-01,9.99999e-01
6.173157594e-01,4.09509e-01,9.99999e-01,9.99999e-01,9.99999e-01,4.09509e-01,9.99999e-01
6.204023382e-01,4.16795e-01,9.99999e-01,9.99999e-01,9.99999e-01,4.16795e-01,9.99999e-01
6.235043498e-01,4.24063e-01,9.99999e-01,9.99999e-01,9.99999e-01,4.24063e-01,9.99999e-01
6.266218716e-01,4.31310e-01,9.99999e-01,9.99999e-01,9.99999e-01,4.31310e-01,9.99999e-01
6.297549810e-01,4.38534e-01,9.99999e-01,9.99999e-01,9.99999e-01,4.38534e-01,9.99999e-01
6.329037559e-01,4.45733e-01,9.99999e-01,9.99999e-01,9.99999e-01,4.45733e-01,9.99999e-01
6.360682746e-01,4.52904e-01,9.99999e-01,9.99999e-01,9.99999e-01,4.52904e-01,9.99999e-01
6.392486160e-01,4.60045e-01,9.99999e-01,9.99999e-01,9.99999e-01,4.60045e-01,9.99999e-01
6.424448591e-01,4.67155e-01,9.99999e-01,9.99999e-01,9.99999e-01,4.67155e-01,9.99999e-01
6.456570834e-01,4.74231e-01,9.99999e-01,9.99999e-01,9.99999e-01,4.74231e-01,9.99999e-01
6.488853688e-01,4.81272e-01,9.99999e-01,9.99999e-01,9.99999e-01,4.81272e-01,9.99999e-01
6.521297956e-01,4.88274e-01,9.99999e-01,9.99999e-01,9.99999e-01,4.88274e-01,9.99999e-01
6.553904446e-01,4.95237e-01,9.99999e-01,9.99999e-01,9.99999e-01,4.95237e-01,9.99999e-01
6.586673968e-01,5.02159e-01,9.99999e-01,9.99999e-01,9.99999e-01,5.02159e-01,9.99999e-01
6.619607338e-01,5.09039e-01,9.99999e-01,9.99999e-01,9.99999e-01,5.09039e-01,9.99999e-01
6.652705375e-01,5.15873e-01,9.99999e-01,9.99999e-01,9.99999e-01,5.15873e-01,9.99999e-01
6.685968902e-01,5.22662e-01,9.99999e-01,9.99999e-01,9.99999e-01,5.22662e-01,9.99999e-01
6.719398746e-01,5.29404e-01,9.99999e-01,9.99999e-01,9.99999e-01,5.29404e-01,9.99999e-01
6.752995740e-01,5.36096e-01,9.99999e-01,9.99999e-01,9.99999e-01,5.36096e-01,9.99999e-01
6.786760719e-01,5.42739e-01,9.99999e-01,9.99999e-01,9.99999e-01,5.42739e-01,9.99999e-01
6.820694522e-01,5.49330e-01,9.99999e-01,9.99999e-01,9.99999e-01,5.49330e-01,9.99999e-01
6.854797995e-01,5.55869e-01,9.99999e-01,9.99999e-01,9.99999e-01,5.55869e-01,9.99999e-01
6.889071985e-01,5.62354e-01,9.99999e-01,9.99999e-01,9.99999e-01,5.62354e-01,9.99999e-01
6.923517345e-01,5.68784e-01,9.99999e-01,9.99999e-01,9.99999e-01,5.68784e-01,9.99999e-01
6.958134932e-01,5.75159e-01,9.99999e-01,9.99999e-01,9.99999e-01,5.75159e-01,9.99999e-01
6.992925606e-01,5.81477e-01,9.99999e-01,9.99999e-01,9.99999e-01,5.81477e-01,9.99999e-01
7.027890234e-01,5.87738e-01,9.99999e-01,9.99999e-01,9.99999e-01,5.87738e-01,9.99999e-01
7.063029686e-01,5.93941e-01,9.99999e-01,9.99999e-01,9.99999e-01,5.93941e-01,9.99999e-01
7.098344834e-01,6.00084e-01,9.99999e-01,9.99999e-01,9.99999e-01,6.00084e-01,9.99999e-01
7.133836558e-01,6.06168e-01,9.99999e-01,9.99999e-01,9.99999e-01,6.06168e-01,9.99999e-01
7.169505741e-01,6.12192e-01,9.99999e-01,9.99999e-01,9.99999e-01,6.12192e-01,9.99999e-01
7.205353270e-01,6.18154e-01,9.99999e-01,9.99999e-01,9.99999e-01,6.18154e-01,9.99999e-01
7.241380036e-01,6.24055e-01,9.99999e-01,9.99999e-01,9.99999e-01,6.24055e-01,9.99999e-01
7.277586936e-01,6.29895e-01,9.99999e-01,9.99999e-01,9.99999e-01,6.29895e-01,9.99999e-01
7.313974871e-01,6.35672e-01,9.99999e-01,9.99999e-01,9.99999e-01,6.35672e-01,9.99999e-01
7.350544745e-01,6.41386e-01,9.99999e-01,9.99999e-01,9.99999e-01,6.41386e-01,9.99999e-01
7.387297469e-01,6.47038e-01,9.99999e-01,9.99999e-01,9.99999e-01,6.47038e-01,9.99999e-01
7.424233956e-01,6.52626e-01,9.99999e-01,9.99999e-01,9.99999e-01,6.52626e-01,9.99999e-01
7.461355126e-01,6.58150e-01,9.99999e-01,9.99999e-01,9.99999e-01,6.58150e-01,9.99999e-01
7.498661902e-01,6.63611e-01,9.99999e-01,9.99999e-01,9.99999e-01,6.63611e-01,9.99999e-01
7.536155211e-01,6.69008e-01,9.99999e-01,9.99999e-01,9.99999e-01,6.69008e-01,9.99999e-01
7.573835987e-01,6.74340e-01,9.99999e-01,9.99999e-01,9.99999e-01,6.74340e-01,9.99999e-01
7.611705167e-01,6.79609e-01,9.99999e-01,9.99999e-01,9.99999e-01,6.79609e-01,9.99999e-01
7.649763693e-01,6.84814e-01,9.99999e-01,9.99999e-01,9.99999e-01,6.84814e-01,9.99999e-01
7.688012511e-01,6.89954e-01,9.99999e-01,9.99999e-01,9.99999e-01,6.89954e-01,9.99999e-01
7.726452574e-01,6.95031e-01,9.99999e-01,9.99999e-01,9.99999e-01,6.95031e-01,9.99999e-01
7.765084837e-01,7.00043e-01,9.99999e-01,9.99999e-01,9.99999e-01,7.00043e-01,9.99999e-01
7.803910261e-01,6.92483e-01,9.99999e-01,9.99999e-01,9.82256e-01,7.04992e-01,9.99999e-01
7.842929812e-01,6.59564e-01,9.99999e-01,9.99999e-01,9.29125e-01,7.09876e-01,9.99999e-01
7.882144461e-01,6.60106e-01,9.99999e-01,9.99999e-01,9.23615e-01,7.14698e-01,9.99999e-01
7.921555184e-01,6.87365e-01,9.99999e-01,9.99999e-01,9.55395e-01,7.19455e-01,9.99999e-01
7.961162960e-01,7.02571e-01,9.99999e-01,9.99999e-01,9.70200e-01,7.24150e-01,9.99999e-01
8.000968774e-01,7.16915e-01,9.99999e-01,9.99999e-01,9.83717e-01,7.28781e-01,9.99999e-01
8.040973618e-01,7.27165e-01,9.99999e-01,9.99999e-01,9.91565e-01,7.33350e-01,9.99999e-01
8.081178486e-01,7.34984e-01,9.99999e-01,9.99999e-01,9.96108e-01,7.37856e-01,9.99999e-01
8.121584379e-01,7.41414e-01,9.99999e-01,9.99999e-01,9.98806e-01,7.42300e-01,9.99999e-01
8.162192301e-01,7.46485e-01,9.99999e-01,9.99999e-01,9.99736e-01,7.46682e-01,9.99999e-01
8.203003262e-01,7.51000e-01,9.99999e-01,9.99999e-01,9.99995e-01,7.51003e-01,9.99999e-01
8.244018279e-01,7.55263e-01,9.99999e-01,9.99999e-01,9.99999e-01,7.55263e-01,9.99999e-01
8.285238370e-01,7.59462e-01,9.99999e-01,9.99999e-01,9.99999e-01,7.59462e-01,9.99999e-01
8.326664562e-01,7.63600e-01,9.99999e-01,9.99999e-01,9.99999e-01,7.63600e-01,9.99999e-01
8.368297885e-01,7.67679e-01,9.99999e-01,9.99999e-01,9.99999e-01,7.67679e-01,9.99999e-01
8.410139374e-01,7.71699e-01,9.99999e-01,9.99999e-01,9.99999e-01,7.71699e-01,9.99999e-01
8.452190071e-01,7.75659e-01,9.99999e-01,9.99999e-01,9.99999e-01,7.75659e-01,9.99999e-01
8.494451021e-01,7.79561e-01,9.99999e-01,9.99999e-01,9.99999e-01,7.79561e-01,9.99999e-01
8.536923276e-01,7.83405e-01,9.99999e-01,9.99999e-01,9.99999e-01,7.83405e-01,9.99999e-01
8.579607893e-01,7.87192e-01,9.99999e-01,9.99999e-01,9.99999e-01,7.87192e-01,9.99999e-01
8.622505932e-01,7.90921e-01,9.99999e-01,9.99999e-01,9.99999e-01,7.90921e-01,9.99999e-01
8.665618462e-01,7.57395e-01,9.99999e-01,9.99999e-01,9.53184e-01,7.94594e-01,9.99999e-01
8.708946554e-01,6.59818e-01,9.99999e-01,9.99999e-01,8.26621e-01,7.98211e-01,9.99999e-01
8.752491287e-01,6.89460e-01,9.99999e-01,9.99999e-01,8.59919e-01,8.01772e-01,9.99999e-01
8.796253743e-01,7.41930e-01,9.99999e-01,9.99999e-01,9.21333e-01,8.05279e-01,9.99999e-01
8.840235012e-01,7.75261e-01,9.99999e-01,9.99999e-01,9.58614e-01,8.08731e-01,9.99999e-01
8.884436187e-01,7.98790e-01,9.99999e-01,9.99999e-01,9.83574e-01,8.12129e-01,9.99999e-01
8.928858368e-01,8.10017e-01,9.99999e-01,9.99999e-01,9.93306e-01,8.15474e-01,9.99999e-01
8.973502660e-01,8.17439e-01,9.99999e-01,9.99999e-01,9.98378e-01,8.18767e-01,9.99999e-01
9.018370173e-01,8.21860e-01,9.99999e-01,9.99999e-01,9.99821e-01,8.22007e-01,9.99999e-01
9.063462024e-01,8.21296e-01,9.99999e-01,9.99999e-01,9.95273e-01,8.25195e-01,9.99999e-01
9.108779334e-01,8.19577e-01,9.99999e-01,9.99999e-01,9.89429e-01,8.28333e-01,9.99999e-01
9.154323231e-01,8.29369e-01,9.99999e-01,9.99999e-01,9.97531e-01,8.31420e-01,9.99999e-01
9.200094847e-01,8.03266e-01,9.99999e-01,9.99999e-01,9.62619e-01,8.34458e-01,9.99999e-01
9.246095321e-01,7.94891e-01,9.99999e-01,9.99999e-01,9.49184e-01,8.37446e-01,9.99999e-01
9.292325798e-01,8.06270e-01,9.99999e-01,9.99999e-01,9.59404e-01,8.40386e-01,9.99999e-01
9.338787427e-01,8.10550e-01,9.99999e-01,9.99999e-01,9.61189e-01,8.43277e-01,9.99999e-01
9.385481364e-01,8.21911e-01,9.99999e-01,9.99999e-01,9.71386e-01,8.46121e-01,9.99999e-01
9.432408771e-01,8.34020e-01,9.99999e-01,9.99999e-01,9.82449e-01,8.48918e-01,9.99999e-01
9.479570815e-01,8.43958e-01,9.99999e-01,9.99999e-01,9.90945e-01,8.51669e-01,9.99999e-01
9.526968669e-01,8.50643e-01,9.99999e-01,9.99999e-01,9.95631e-01,8.54375e-01,9.99999e-01
9.574603512e-01,8.55434e-01,9.99999e-01,9.99999e-01,9.98131e-01,8.57035e-01,9.99999e-01
9.622476530e-01,8.59150e-01,9.99999e-01,9.99999e-01,9.99417e-01,8.59650e-01,9.99999e-01
9.670588912e-01,8.62072e-01,9.99999e-01,9.99999e-01,9.99825e-01,8.62222e-01,9.99999e-01
9.718941857e-01,8.64740e-01,9.99999e-01,9.99999e-01,9.99987e-01,8.64751e-01,9.99999e-01
9.767536566e-01,8.67236e-01,9.99999e-01,9.99999e-01,9.99999e-01,8.67236e-01,9.99999e-01
9.816374249e-01,8.69680e-01,9.99999e-01,9.99999e-01,9.99999e-01,8.69680e-01,9.99999e-01
9.865456120e-01,8.72082e-01,9.99999e-01,9.99999e-01,9.99999e-01,8.72082e-01,9.99999e-01
9.914783401e-01,8.74443e-01,9.99999e-01,9.99999e-01,9.99999e-01,8.74443e-01,9.99999e-01
9.964357318e-01,8.76763e-01,9.99999e-01,9.99999e-01,9.99999e-01,8.76763e-01,9.99999e-01
1.001417910e+00,8.79044e-01,9.99999e-01,9.99999e-01,9.99999e-01,8.79044e-01,9.99999e-01
1.006425000e+00,8.81285e-01,9.99999e-01,9.99999e-01,9.99999e-01,8.81285e-01,9.99999e-01
1.011457125e+00,8.83488e-01,9.99999e-01,9.99999e-01,9.99999e-01,8.83488e-01,9.99999e-01
1.016514411e+00,8.85652e-01,9.99999e-01,9.99999e-01,9.99999e-01,8.85652e-01,9.99999e-01
1.021596983e+00,8.87754e-01,9.99999e-01,9.99999e-01,9.99971e-01,8.87779e-01,9.99999e-01
1.026704968e+00,8.88228e-01,9.99999e-01,9.99999e-01,9.98155e-01,8.89869e-01,9.99999e-01
1.031838492e+00,8.66438e-01,9.99999e-01,9.99999e-01,9.71428e-01,8.91922e-01,9.99999e-01
1.036997685e+00,2.56904e-01,9.99999e-01,9.99999e-01,2.87384e-01,8.93939e-01,9.99999e-01
1.042182673e+00,3.08767e-01,9.99999e-01,9.99999e-01,3.44636e-01,8.95921e-01,9.99999e-01
1.047393587e+00,2.83979e-01,9.99999e-01,9.99999e-01,3.16282e-01,8.97868e-01,9.99999e-01
1.052630555e+00,4.33949e-02,9.99999e-01,9.99999e-01,4.82282e-02,8.99781e-01,9.99999e-01
1.057893707e+00,8.22230e-02,9.99999e-01,9.99999e-01,9.11906e-02,9.01660e-01,9.99999e-01
1.063183176e+00,1.59170e-01,9.99999e-01,9.99999e-01,1.76169e-01,9.03505e-01,9.99999e-01
1.068499092e+00,2.83367e-01,9.99999e-01,9.99999e-01,3.13003e-01,9.05318e-01,9.99999e-01
1.073841587e+00,4.37128e-01,9.99999e-01,9.99999e-01,4.81897e-01,9.07098e-01,9.99999e-01
1.079210795e+00,5.73371e-01,9.99999e-01,9.99999e-01,6.30877e-01,9.08847e-01,9.99999e-01
1.084606849e+00,7.08421e-01,9.99999e-01,9.99999e-01,7.78002e-01,9.10564e-01,9.99999e-01
1.090029883e+00,8.00992e-01,9.99999e-01,9.99999e-01,8.78038e-01,9.12251e-01,9.99999e-01
1.095480033e+00,8.57305e-01,9.99999e-01,9.99999e-01,9.38065e-01,9.13907e-01,9.99999e-01
1.100957433e+00,8.87792e-01,9.99999e-01,9.99999e-01,9.69698e-01,9.15534e-01,9.99999e-01
1.106462220e+00,9.05557e-01,9.99999e-01,9.99999e-01,9.87379e-01,9.17131e-01,9.99999e-01
1.111994531e+00,9.14387e-01,9.99999e-01,9.99999e-01,9.95305e-01,9.18700e-01,9.99999e-01
1.117554504e+00,9.19188e-01,9.99999e-01,9.99999e-01,9.98856e-01,9.20240e-01,9.99999e-01
1.123142276e+00,9.21683e-01,9.99999e-01,9.99999e-01,9.99924e-01,9.21752e-01,9.99999e-01
1.128757988e+00,9.23236e-01,9.99999e-01,9.99999e-01,9.99999e-01,9.23236e-01,9.99999e-01
1.134401778e+00,9.24694e-01,9.99999e-01,9.99999e-01,9.99999e-01,9.24694e-01,9.99999e-01
1.140073787e+00,9.26125e-01,9.99999e-01,9.99999e-01,9.99999e-01,9.26125e-01,9.99999e-01
1.145774156e+00,9.27530e-01,9.99999e-01,9.99999e-01,9.99999e-01,9.27530e-01,9.99999e-01
1.151503026e+00,9.28910e-01,9.99999e-01,9.99999e-01,9.99999e-01,9.28910e-01,9.99999e-01
1.157260541e+00,9.30264e-01,9.99999e-01,9.99999e-01,9.99999e-01,9.30264e-01,9.99999e-01
1.163046844e+00,9.31593e-01,9.99999e-01,9.99999e-01,9.99999e-01,9.31593e-01,9.99999e-01
1.168862078e+00,9.32898e-01,9.99999e-01,9.99999e-01,9.99999e-01,9.32898e-01,9.99999e-01
1.174706389e+00,9.34178e-01,9.99999e-01,9.99999e-01,9.99999e-01,9.34178e-01,9.99999e-01
1.180579921e+00,9.35436e-01,9.99999e-01,9.99999e-01,9.99999e-01,9.35436e-01,9.99999e-01
1.186482820e+00,9.36666e-01,9.99999e-01,9.99999e-01,9.99995e-01,9.36670e-01,9.99999e-01
1.192415234e+00,9.31644e-01,9.99999e-01,9.99999e-01,9.93349e-01,9.37881e-01,9.99999e-01
1.198377311e+00,5.48988e-01,9.99999e-01,9.99999e-01,5.84608e-01,9.39070e-01,9.99999e-01
1.204369197e+00,1.44946e-06,9.99999e-01,9.99999e-01,1.54159e-06,9.40236e-01,9.99999e-01
1.210391043e+00,8.50042e-21,9.99999e-01,9.99999e-01,9.02972e-21,9.41382e-01,9.99999e-01
1.216442998e+00,3.01475e-18,9.99999e-01,9.99999e-01,3.19865e-18,9.42505e-01,9.99999e-01
1.222525213e+00,5.53129e-18,9.99999e-01,9.99999e-01,5.86185e-18,9.43608e-01,9.99999e-01
1.228637839e+00,7.81432e-14,9.99999e-01,9.99999e-01,8.27181e-14,9.44691e-01,9.99999e-01
