#,Wave/freq,Total,N2,O2,CO2,Rayleigh,CIA
4.000000000e-01,1.77365e-06,9.99999e-01,9.99999e-01,9.99999e-01,1.77365e-06,9.99999e-01
4.020000000e-01,2.30454e-06,9.99999e-01,9.99999e-01,9.99999e-01,2.30454e-06,9.99999e-01
4.040100000e-01,2.97808e-06,9.99999e-01,9.99999e-01,9.99999e-01,2.97808e-06,9.99999e-01
4.060300500e-01,3.82904e-06,9.99999e-01,9.99999e-01,9.99999e-01,3.82904e-06,9.99999e-01
4.080602003e-01,4.89877e-06,9.99999e-01,9.99999e-01,9.99999e-01,4.89877e-06,9.99999e-01
4.101005013e-01,6.23693e-06,9.99999e-01,9.99999e-01,9.99999e-01,6.23693e-06,9.99999e-01
4.121510038e-01,7.90284e-06,9.99999e-01,9.99999e-01,9.99999e-01,7.90284e-06,9.99999e-01
4.142117588e-01,9.96700e-06,9.99999e-01,9.99999e-01,9.99999e-01,9.96700e-06,9.99999e-01
4.162828176e-01,1.25128e-05,9.99999e-01,9.99999e-01,9.99999e-01,1.25128e-05,9.99999e-01
4.183642317e-01,1.56385e-05,9.99999e-01,9.99999e-01,9.99999e-01,1.56385e-05,9.99999e-01
4.204560528e-01,1.94590e-05,9.99999e-01,9.99999e-01,9.99999e-01,1.94590e-05,9.99999e-01
4.225583331e-01,2.41086e-05,9.99999e-01,9.99999e-01,9.99999e-01,2.41086e-05,9.99999e-01
4.246711247e-01,2.97431e-05,9.99999e-01,9.99999e-01,9.99999e-01,2.97431e-05,9.99999e-01
4.267944804e-01,3.65425e-05,9.99999e-01,9.99999e-01,9.99999e-01,3.65425e-05,9.99999e-01
4.289284528e-01,4.47140e-05,9.99999e-01,9.99999e-01,9.99999e-01,4.47140e-05,9.99999e-01
4.310730950e-01,5.44952e-05,9.99999e-01,9.99999e-01,9.99999e-01,5.44952e-05,9.99999e-01
4.332284605e-01,6.61570e-05,9.99999e-01,9.99999e-01,9.99999e-01,6.61570e-05,9.99999e-01
4.353946028e-01,8.00073e-05,9.99999e-01,9.99999e-01,9.99999e-01,8.00073e-05,9.99999e-01
4.375715758e-01,9.63947e-05,9.99999e-01,9.99999e-01,9.99999e-01,9.63947e-05,9.99999e-01
4.397594337e-01,1.15712e-04,9.99999e-01,9.99999e-01,9.99999e-01,1.15712e-04,9.99999e-01
4.419582309e-01,1.38400e-04,9.99999e-01,9.99999e-01,9.99999e-01,1.38400e-04,9.99999e-01
4.441680220e-01,1.64952e-04,9.99999e-01,9.99999e-01,9.99999e-01,1.64952e-04,9.99999e-01
4.463888621e-01,1.95918e-04,9.99999e-01,9.99999e-01,9.99999e-01,1.95918e-04,9.99999e-01
4.486208064e-01,2.31908e-04,9.99999e-01,9.99999e-01,9.99999e-01,2.31908e-04,9.99999e-01
4.508639105e-01,2.73596e-04,9.99999e-01,9.99999e-01,9.99999e-01,2.73596e-04,9.99999e-01
4.531182300e-01,3.21725e-04,9.99999e-01,9.99999e-01,9.99999e-01,3.21725e-04,9.99999e-01
4.553838212e-01,3.77113e-04,9.99999e-01,9.99999e-01,9.99999e-01,3.77113e-04,9.99999e-01
4.576607403e-01,4.40651e-04,9.99999e-01,9.99999e-01,9.99999e-01,4.40651e-04,9.99999e-01
4.599490440e-01,5.13312e-04,9.99999e-01,9.99999e-01,9.99999e-01,5.13312e-04,9.99999e-01
4.622487892e-01,5.96156e-04,9.99999e-01,9.99999e-01,9.99999e-01,5.96156e-04,9.99999e-01
4.645600332e-01,6.90327e-04,9.99999e-01,9.99999e-01,9.99999e-01,6.90327e-04,9.99999e-01
4.668828333e-01,7.97060e-04,9.99999e-01,9.99999e-01,9.99999e-01,7.97060e-04,9.99999e-01
4.692172475e-01,9.17686e-04,9.99999e-01,9.99999e-01,9.99999e-01,9.17686e-04,9.99999e-01
4.715633337e-01,1.05363e-03,9.99999e-01,9.99999e-01,9.99999e-01,1.05363e-03,9.99999e-01
4.739211504e-01,1.20642e-03,9.99999e-01,9.99999e-01,9.99999e-01,1.20642e-03,9.99999e-01
4.762907561e-01,1.37767e-03,9.99999e-01,9.99999e-01,9.99999e-01,1.37767e-03,9.99999e-01
4.786722099e-01,1.56911e-03,9.99999e-01,9.99999e-01,9.99999e-01,1.56911e-03,9.99999e-01
4.810655710e-01,1.78257e-03,9.99999e-01,9.99999e-01,9.99999e-01,1.78257e-03,9.99999e-01
4.834708988e-01,2.01997e-03,9.99999e-01,9.99999e-01,9.99999e-01,2.01997e-03,9.99999e-01
4.858882533e-01,2.28335e-03,9.99999e-01,9.99999e-01,9.99999e-01,2.28335e-03,9.99999e-01
4.883176946e-01,2.57482e-03,9.99999e-01,9.99999e-01,9.99999e-01,2.57482e-03,9.99999e-01
4.907592831e-01,2.89662e-03,9.99999e-01,9.99999e-01,9.99999e-01,2.89662e-03,9.99999e-01
4.932130795e-01,3.25106e-03,9.99999e-01,9.99999e-01,9.99999e-01,3.25106e-03,9.99999e-01
4.956791449e-01,3.64056e-03,9.99999e-01,9.99999e-01,9.99999e-01,3.64056e-03,9.99999e-01
4.981575406e-01,4.06763e-03,9.99999e-01,9.99999e-01,9.99999e-01,4.06763e-03,9.99999e-01
5.006483283e-01,4.53485e-03,9.99999e-01,9.99999e-01,9.99999e-01,4.53485e-03,9.99999e-01
5.031515699e-01,5.04489e-03,9.99999e-01,9.99999e-01,9.99999e-01,5.04489e-03,9.99999e-01
5.056673278e-01,5.60049e-03,9.99999e-01,9.99999e-01,9.99999e-01,5.60049e-03,9.99999e-01
5.081956644e-01,6.20446e-03,9.99999e-01,9.99999e-01,9.99999e-01,6.20446e-03,9.99999e-01
5.107366428e-01,6.85968e-03,9.99999e-01,9.99999e-01,9.99999e-01,6.85968e-03,9.99999e-01
5.132903260e-01,7.56906e-03,9.99999e-01,9.99999e-01,9.99999e-01,7.56906e-03,9.99999e-01
5.158567776e-01,8.33558e-03,9.99999e-01,9.99999e-01,9.99999e-01,8.33558e-03,9.99999e-01
5.184360615e-01,9.16226e-03,9.99999e-01,9.99999e-01,9.99999e-01,9.16226e-03,9.99999e-01
5.210282418e-01,1.00521e-02,9.99999e-01,9.99999e-01,9.99999e-01,1.00521e-02,9.99999e-01
5.236333830e-01,1.10083e-02,9.99999e-01,9.99999e-01,9.99999e-01,1.10083e-02,9.99999e-01
5.262515499e-01,1.20337e-02,9.99999e-01,9.99999e-01,9.99999e-01,1.20337e-02,9.99999e-01
5.288828077e-01,1.31316e-02,9.99999e-01,9.99999e-01,9.99999e-01,1.31316e-02,9.99999e-01
5.315272217e-01,1.43049e-02,9.99999e-01,9.99999e-01,9.99999e-01,1.43049e-02,9.99999e-01
5.341848578e-01,1.55567e-02,9.99999e-01,9.99999e-01,9.99999e-01,1.55567e-02,9.99999e-01
5.368557821e-01,1.68901e-02,9.99999e-01,9.99999e-01,9.99999e-01,1.68901e-02,9.99999e-01
5.395400610e-01,1.83080e-02,9.99999e-01,9.99999e-01,9.99999e-01,1.83080e-02,9.99999e-01
5.422377613e-01,1.98133e-02,9.99999e-01,9.99999e-01,9.99999e-01,1.98133e-02,9.99999e-01
5.449489501e-01,2.14090e-02,9.99999e-01,9.99999e-01,9.99999e-01,2.14090e-02,9.99999e-01
5.476736949e-01,2.30979e-02,9.99999e-01,9.99999e-01,9.99999e-01,2.30979e-02,9.99999e-01
5.504120634e-01,2.48826e-02,9.99999e-01,9.99999e-01,9.99999e-01,2.48826e-02,9.99999e-01
5.531641237e-01,2.67658e-02,9.99999e-01,9.99999e-01,9.99999e-01,2.67658e-02,9.99999e-01
5.559299443e-01,2.87501e-02,9.99999e-01,9.99999e-01,9.99999e-01,2.87501e-02,9.99999e-01
5.587095940e-01,3.08379e-02,9.99999e-01,9.99999e-01,9.99999e-01,3.08379e-02,9.99999e-01
5.615031420e-01,3.30316e-02,9.99999e-01,9.99999e-01,9.99999e-01,3.30316e-02,9.99999e-01
5.643106577e-01,3.53333e-02,9.99999e-01,9.99999e-01,9.99999e-01,3.53333e-02,9.99999e-01
5.671322110e-01,3.77452e-02,9.99999e-01,9.99999e-01,9.99999e-01,3.77452e-02,9.99999e-01
5.699678720e-01,4.02691e-02,9.99999e-01,9.99999e-01,9.99999e-01,4.02691e-02,9.99999e-01
5.728177114e-01,4.29069e-02,9.99999e-01,9.99999e-01,9.99999e-01,4.29069e-02,9.99999e-01
5.756818000e-01,4.56602e-02,9.99999e-01,9.99999e-01,9.99999e-01,4.56602e-02,9.99999e-01
5.785602090e-01,4.85306e-02,9.99999e-01,9.99999e-01,9.99999e-01,4.85306e-02,9.99999e-01
5.814530100e-01,5.15193e-02,9.99999e-01,9.99999e-01,9.99999e-01,5.15193e-02,9.99999e-01
5.843602750e-01,5.46276e-02,9.99999e-01,9.99999e-01,9.99999e-01,5.46276e-02,9.99999e-01
5.872820764e-01,5.78564e-02,9.99999e-01,9.99999e-01,9.99999e-01,5.78564e-02,9.99999e-01
5.902184868e-01,6.12065e-02,9.99999e-01,9.99999e-01,9.99999e-01,6.12065e-02,9.99999e-01
5.931695792e-01,6.46787e-02,9.99999e-01,9.99999e-01,9.99999e-01,6.46787e-02,9.99999e-01
5.961354271e-01,6.82734e-02,9.99999e-01,9.99999e-01,9.99999e-01,6.82734e-02,9.99999e-01
5.991161043e-01,7.19910e-02,9.99999e-01,9.99999e-01,9.99999e-01,7.19910e-02,9.99999e-01
6.021116848e-01,7.58315e-02,9.99999e-01,9.99999e-01,9.99999e-01,7.58315e-02,9.99999e-01
6.051222432e-01,7.97950e-02,9.99999e-01,9.99999e-01,9.99999e-01,7.97950e-02,9.99999e-01
6.081478544e-01,8.38811e-02,9.99999e-01,9.99999e-01,9.99999e-01,8.38811e-02,9.99999e-01
6.111885937e-01,8.80896e-02,9.99999e-01,9.99999e-01,9.99999e-01,8.80896e-02,9.99999e-01
6.142445367e-01,9.24198e-02,9.99999e-01,9.99999e-01,9.99999e-01,9.24198e-02,9.99999e-01
6.173157594e-01,9.68710e-02,9.99999e-01,9.99999e-01,9.99999e-01,9.68710e-02,9.99999e-01
6.204023382e-01,1.01442e-01,9.99999e-01,9.99999e-01,9.99999e-01,1.01442e-01,9.99999e-01
6.235043498e-01,1.06132e-01,9.99999e-01,9.99999e-01,9.99999e-01,1.06132e-01,9.99999e-01
6.266218716e-01,1.10941e-01,9.99999e-01,9.99999e-01,9.99999e-01,1.10941e-01,9.99999e-01
6.297549810e-01,1.15865e-01,9.99999e-01,9.99999e-01,9.99999e-01,1.15865e-01,9.99999e-01
6.329037559e-01,1.20904e-01,9.99999e-01,9.99999e-01,9.99999e-01,1.20904e-01,9.99999e-01
6.360682746e-01,1.26057e-01,9.99999e-01,9.99999e-01,9.99999e-01,1.26057e-01,9.99999e-01
6.392486160e-01,1.31320e-01,9.99999e-01,9.99999e-01,9.99999e-01,1.31320e-01,9.99999e-01
6.424448591e-01,1.36693e-01,9.99999e-01,9.99999e-01,9.99999e-01,1.36693e-01,9.99999e-01
6.456570834e-01,1.42173e-01,9.99999e-01,9.99999e-01,9.99999e-01,1.42173e-01,9.99999e-01
6.488853688e-01,1.47758e-01,9.99999e-01,9.99999e-01,9.99999e-01,1.47758e-01,9.99999e-01
6.521297956e-01,1.53446e-01,9.99999e-01,9.99999e-01,9.99999e-01,1.53446e-01,9.99999e-01
6.553904446e-01,1.59234e-01,9.99999e-01,9.99999e-01,9.99999e-01,1.59234e-01,9.99999e-01
6.586673968e-01,1.65119e-01,9.99999e-01,9.99999e-01,9.99999e-01,1.65119e-01,9.99999e-01
6.619607338e-01,1.71099e-01,9.99999e-01,9.99999e-01,9.99999e-01,1.71099e-01,9.99999e-01
6.652705375e-01,1.77171e-01,9.99999e-01,9.99999e-01,9.99999e-01,1.77171e-01,9.99999e-01
6.685968902e-01,1.83332e-01,9.99999e-01,9.99999e-01,9.99999e-01,1.83332e-01,9.99999e-01
6.719398746e-01,1.89579e-01,9.99999e-01,9.99999e-01,9.99999e-01,1.89579e-01,9.99999e-01
6.752995740e-01,1.95910e-01,9.99999e-01,9.99999e-01,9.99999e-01,1.95910e-01,9.99999e-01
6.786760719e-01,2.02321e-01,9.99999e-01,9.99999e-01,9.99999e-01,2.02321e-01,9.99999e-01
6.820694522e-01,2.08808e-01,9.99999e-01,9.99999e-01,9.99999e-01,2.08808e-01,9.99999e-01
6.854797995e-01,2.15369e-01,9.99999e-01,9.99999e-01,9.99999e-01,2.15369e-01,9.99999e-01
6.889071985e-01,2.22001e-01,9.99999e-01,9.99999e-01,9.99999e-01,2.22001e-01,9.99999e-01
6.923517345e-01,2.28700e-01,9.99999e-01,9.99999e-01,9.99999e-01,2.28700e-01,9.99999e-01
6.958134932e-01,2.35463e-01,9.99999e-01,9.99999e-01,9.99999e-01,2.35463e-01,9.99999e-01
6.992925606e-01,2.42286e-01,9.99999e-01,9.99999e-01,9.99999e-01,2.42286e-01,9.99999e-01
7.027890234e-01,2.49166e-01,9.99999e-01,9.99999e-01,9.99999e-01,2.49166e-01,9.99999e-01
7.063029686e-01,2.56101e-01,9.99999e-01,9.99999e-01,9.99999e-01,2.56101e-01,9.99999e-01
7.098344834e-01,2.63085e-01,9.99999e-01,9.99999e-01,9.99999e-01,2.63085e-01,9.99999e-01
7.133836558e-01,2.70116e-01,9.99999e-01,9.99999e-01,9.99999e-01,2.70116e-01,9.99999e-01
7.169505741e-01,2.77191e-01,9.99999e-01,9.99999e-01,9.99999e-01,2.77191e-01,9.99999e-01
7.205353270e-01,2.84305e-01,9.99999e-01,9.99999e-01,9.99999e-01,2.84305e-01,9.99999e-01
7.241380036e-01,2.91457e-01,9.99999e-01,9.99999e-01,9.99999e-01,2.91457e-01,9.99999e-01
7.277586936e-01,2.98642e-01,9.99999e-01,9.99999e-01,9.99999e-01,2.98642e-01,9.99999e-01
7.313974871e-01,3.05856e-01,9.99999e-01,9.99999e-01,9.99999e-01,3.05856e-01,9.99999e-01
7.350544745e-01,3.13097e-01,9.99999e-01,9.99999e-01,9.99999e-01,3.13097e-01,9.99999e-01
7.387297469e-01,3.20362e-01,9.99999e-01,9.99999e-01,9.99999e-01,3.20362e-01,9.99999e-01
7.424233956e-01,3.27647e-01,9.99999e-01,9.99999e-01,9.99999e-01,3.27647e-01,9.99999e-01
7.461355126e-01,3.34948e-01,9.99999e-01,9.99999e-01,9.99999e-01,3.34948e-01,9.99999e-01
7.498661902e-01,3.42264e-01,9.99999e-01,9.99999e-01,9.99999e-01,3.42264e-01,9.99999e-01
7.536155211e-01,3.49589e-01,9.99999e-01,9.99999e-01,9.99999e-01,3.49589e-01,9.99999e-01
7.573835987e-01,3.56923e-01,9.99999e-01,9.99999e-01,9.99999e-01,3.56923e-01,9.99999e-01
7.611705167e-01,3.64260e-01,9.99999e-01,9.99999e-01,9.99999e-01,3.64260e-01,9.99999e-01
7.649763693e-01,3.71599e-01,9.99999e-01,9.99999e-01,9.99999e-01,3.71599e-01,9.99999e-01
7.688012511e-01,3.78937e-01,9.99999e-01,9.99999e-01,9.99999e-01,3.78937e-01,9.99999e-01
7.726452574e-01,3.86270e-01,9.99999e-01,9.99999e-01,9.99999e-01,3.86270e-01,9.99999e-01
7.765084837e-01,3.93597e-01,9.99999e-01,9.99999e-01,9.99999e-01,3.93597e-01,9.99999e-01
7.803910261e-01,3.84188e-01,9.99999e-01,9.99999e-01,9.58281e-01,4.00913e-01,9.99999e-01
7.842929812e-01,3.38223e-01,9.99999e-01,9.99999e-01,8.28538e-01,4.08217e-01,9.99999e-01
7.882144461e-01,3.39682e-01,9.99999e-01,9.99999e-01,8.17514e-01,4.15505e-01,9.99999e-01
7.921555184e-01,3.75581e-01,9.99999e-01,9.99999e-01,8.88367e-01,4.22776e-01,9.99999e-01
7.961162960e-01,3.97299e-01,9.99999e-01,9.99999e-01,9.23893e-01,4.30027e-01,9.99999e-01
8.000968774e-01,4.18878e-01,9.99999e-01,9.99999e-01,9.57970e-01,4.37256e-01,9.99999e-01
8.040973618e-01,4.34695e-01,9.99999e-01,9.99999e-01,9.78030e-01,4.44459e-01,9.99999e-01
8.081178486e-01,4.47047e-01,9.99999e-01,9.99999e-01,9.89841e-01,4.51635e-01,9.99999e-01
8.121584379e-01,4.57343e-01,9.99999e-01,9.99999e-01,9.96861e-01,4.58782e-01,9.99999e-01
8.162192301e-01,4.65575e-01,9.99999e-01,9.99999e-01,9.99306e-01,4.65898e-01,9.99999e-01
8.203003262e-01,4.72975e-01,9.99999e-01,9.99999e-01,9.99989e-01,4.72980e-01,9.99999e-01
8.244018279e-01,4.80027e-01,9.99999e-01,9.99999e-01,9.99999e-01,4.80027e-01,9.99999e-01
8.285238370e-01,4.87036e-01,9.99999e-01,9.99999e-01,9.99999e-01,4.87036e-01,9.99999e-01
8.326664562e-01,4.94007e-01,9.99999e-01,9.99999e-01,9.99999e-01,4.94007e-01,9.99999e-01
8.368297885e-01,5.00936e-01,9.99999e-01,9.99999e-01,9.99999e-01,5.00936e-01,9.99999e-01
8.410139374e-01,5.07823e-01,9.99999e-01,9.99999e-01,9.99999e-01,5.07823e-01,9.99999e-01
8.452190071e-01,5.14666e-01,9.99999e-01,9.99999e-01,9.99999e-01,5.14666e-01,9.99999e-01
8.494451021e-01,5.21463e-01,9.99999e-01,9.99999e-01,9.99999e-01,5.21463e-01,9.99999e-01
8.536923276e-01,5.28213e-01,9.99999e-01,9.99999e-01,9.99999e-01,5.28213e-01,9.99999e-01
8.579607893e-01,5.34914e-01,9.99999e-01,9.99999e-01,9.99999e-01,5.34914e-01,9.99999e-01
8.622505932e-01,5.41566e-01,9.99999e-01,9.99999e-01,9.99999e-01,5.41566e-01,9.99999e-01
8.665618462e-01,5.01092e-01,9.99999e-01,9.99999e-01,9.14124e-01,5.48166e-01,9.99999e-01
8.708946554e-01,3.44651e-01,9.99999e-01,9.99999e-01,6.21312e-01,5.54714e-01,9.99999e-01
8.752491287e-01,3.81918e-01,9.99999e-01,9.99999e-01,6.80527e-01,5.61209e-01,9.99999e-01
8.796253743e-01,4.59097e-01,9.99999e-01,9.99999e-01,8.08769e-01,5.67649e-01,9.99999e-01
8.840235012e-01,5.14072e-01,9.99999e-01,9.99999e-01,8.95542e-01,5.74034e-01,9.99999e-01
8.884436187e-01,5.55682e-01,9.99999e-01,9.99999e-01,9.57473e-01,5.80362e-01,9.99999e-01
8.928858368e-01,5.76390e-01,9.99999e-01,9.99999e-01,9.82539e-01,5.86633e-01,9.99999e-01
8.973502660e-01,5.90321e-01,9.99999e-01,9.99999e-01,9.95741e-01,5.92846e-01,9.99999e-01
9.018370173e-01,5.98719e-01,9.99999e-01,9.99999e-01,9.99530e-01,5.99000e-01,9.99999e-01
9.063462024e-01,5.97772e-01,9.99999e-01,9.99999e-01,9.87897e-01,6.05094e-01,9.99999e-01
9.108779334e-01,5.94368e-01,9.99999e-01,9.99999e-01,9.72573e-01,6.11129e-01,9.99999e-01
9.154323231e-01,6.13101e-01,9.99999e-01,9.99999e-01,9.93516e-01,6.17102e-01,9.99999e-01
9.200094847e-01,5.67226e-01,9.99999e-01,9.99999e-01,9.10453e-01,6.23014e-01,9.99999e-01
9.246095321e-01,5.48862e-01,9.99999e-01,9.99999e-01,8.72782e-01,6.28865e-01,9.99999e-01
9.292325798e-01,5.70413e-01,9.99999e-01,9.99999e-01,8.98779e-01,6.34653e-01,9.99999e-01
9.338787427e-01,5.77699e-01,9.99999e-01,9.99999e-01,9.02121e-01,6.40378e-01,9.99999e-01
9.385481364e-01,5.98893e-01,9.99999e-01,9.99999e-01,9.27020e-01,6.46041e-01,9.99999e-01
9.432408771e-01,6.22110e-01,9.99999e-01,9.99999e-01,9.54682e-01,6.51640e-01,9.99999e-01
9.479570815e-01,6.41714e-01,9.99999e-01,9.99999e-01,9.76472e-01,6.57176e-01,9.99999e-01
9.526968669e-01,6.55092e-01,9.99999e-01,9.99999e-01,9.88596e-01,6.62648e-01,9.99999e-01
9.574603512e-01,6.64789e-01,9.99999e-01,9.99999e-01,9.95109e-01,6.68056e-01,9.99999e-01
9.622476530e-01,6.72372e-01,9.99999e-01,9.99999e-01,9.98472e-01,6.73400e-01,9.99999e-01
9.670588912e-01,6.78370e-01,9.99999e-01,9.99999e-01,9.99542e-01,6.78680e-01,9.99999e-01
9.718941857e-01,6.83874e-01,9.99999e-01,9.99999e-01,9.99967e-01,6.83896e-01,9.99999e-01
9.767536566e-01,6.89048e-01,9.99999e-01,9.99999e-01,9.99999e-01,6.89048e-01,9.99999e-01
9.816374249e-01,6.94136e-01,9.99999e-01,9.99999e-01,9.99999e-01,6.94136e-01,9.99999e-01
9.865456120e-01,6.99160e-01,9.99999e-01,9.99999e-01,9.99999e-01,6.99160e-01,9.99999e-01
9.914783401e-01,7.04120e-01,9.99999e-01,9.99999e-01,9.99999e-01,7.04120e-01,9.99999e-01
9.964357318e-01,7.09016e-01,9.99999e-01,9.99999e-01,9.99999e-01,7.09016e-01,9.99999e-01
1.001417910e+00,7.13848e-01,9.99999e-01,9.99999e-01,9.99999e-01,7.13848e-01,9.99999e-01
1.006425000e+00,7.18617e-01,9.99999e-01,9.99999e-01,9.99999e-01,7.18617e-01,9.99999e-01
1.011457125e+00,7.23322e-01,9.99999e-01,9.99999e-01,9.99999e-01,7.23322e-01,9.99999e-01
1.016514411e+00,7.27965e-01,9.99999e-01,9.99999e-01,9.99999e-01,7.27965e-01,9.99999e-01
1.021596983e+00,7.32496e-01,9.99999e-01,9.99999e-01,9.99932e-01,7.32545e-01,9.99999e-01
1.026704968e+00,7.33564e-01,9.99999e-01,9.99999e-01,9.95254e-01,7.37062e-01,9.99999e-01
1.031838492e+00,7.02328e-01,9.99999e-01,9.99999e-01,9.47150e-01,7.41517e-01,9.99999e-01
1.036997685e+00,9.19673e-02,9.99999e-01,9.99999e-01,1.23295e-01,7.45910e-01,9.99999e-01
1.042182673e+00,5.53274e-02,9.99999e-01,9.99999e-01,7.37461e-02,7.50242e-01,9.99999e-01
1.047393587e+00,7.39385e-02,9.99999e-01,9.99999e-01,9.79950e-02,7.54512e-01,9.99999e-01
1.052630555e+00,9.68282e-04,9.99999e-01,9.99999e-01,1.27620e-03,7.58722e-01,9.99999e-01
1.057893707e+00,2.77878e-03,9.99999e-01,9.99999e-01,3.64253e-03,7.62871e-01,9.99999e-01
1.063183176e+00,1.19291e-02,9.99999e-01,9.99999e-01,1.55537e-02,7.66961e-01,9.99999e-01
1.068499092e+00,4.07349e-02,9.99999e-01,9.99999e-01,5.28345e-02,7.70991e-01,9.99999e-01
1.073841587e+00,1.20514e-01,9.99999e-01,9.99999e-01,1.55509e-01,7.74962e-01,9.99999e-01
1.079210795e+00,2.39623e-01,9.99999e-01,9.99999e-01,3.07652e-01,7.78874e-01,9.99999e-01
1.084606849e+00,4.08056e-01,9.99999e-01,9.99999e-01,5.21325e-01,7.82728e-01,9.99999e-01
1.090029883e+00,5.60532e-01,9.99999e-01,9.99999e-01,7.12669e-01,7.86525e-01,9.99999e-01
1.095480033e+00,6.68782e-01,9.99999e-01,9.99999e-01,8.46276e-01,7.90264e-01,9.99999e-01
1.100957433e+00,7.32560e-01,9.99999e-01,9.99999e-01,9.22680e-01,7.93947e-01,9.99999e-01
1.106462220e+00,7.71478e-01,9.99999e-01,9.99999e-01,9.67280e-01,7.97574e-01,9.99999e-01
1.111994531e+00,7.91327e-01,9.99999e-01,9.99999e-01,9.87744e-01,8.01145e-01,9.99999e-01
1.117554504e+00,8.02247e-01,9.99999e-01,9.99999e-01,9.96999e-01,8.04661e-01,9.99999e-01
1.123142276e+00,8.07964e-01,9.99999e-01,9.99999e-01,9.99802e-01,8.08123e-01,9.99999e-01
1.128757988e+00,8.11531e-01,9.99999e-01,9.99999e-01,9.99999e-01,8.11531e-01,9.99999e-01
1.134401778e+00,8.14885e-01,9.99999e-01,9.99999e-01,9.99999e-01,8.14885e-01,9.99999e-01
1.140073787e+00,8.18187e-01,9.99999e-01,9.99999e-01,9.99999e-01,8.18187e-01,9.99999e-01
1.145774156e+00,8.21436e-01,9.99999e-01,9.99999e-01,9.99999e-01,8.21436e-01,9.99999e-01
1.151503026e+00,8.24634e-01,9.99999e-01,9.99999e-01,9.99999e-01,8.24634e-01,9.99999e-01
1.157260541e+00,8.27781e-01,9.99999e-01,9.99999e-01,9.99999e-01,8.27781e-01,9.99999e-01
1.163046844e+00,8.30877e-01,9.99999e-01,9.99999e-01,9.99999e-01,8.30877e-01,9.99999e-01
1.168862078e+00,8.33923e-01,9.99999e-01,9.99999e-01,9.99999e-01,8.33923e-01,9.99999e-01
1.174706389e+00,8.36920e-01,9.99999e-01,9.99999e-01,9.99999e-01,8.36920e-01,9.99999e-01
1.180579921e+00,8.39868e-01,9.99999e-01,9.99999e-01,9.99999e-01,8.39868e-01,9.99999e-01
1.186482820e+00,8.42760e-01,9.99999e-01,9.99999e-01,9.99990e-01,8.42768e-01,9.99999e-01
1.192415234e+00,8.31420e-01,9.99999e-01,9.99999e-01,9.83206e-01,8.45621e-01,9.99999e-01
1.198377311e+00,4.70793e-01,9.99999e-01,9.99999e-01,5.54901e-01,8.48426e-01,9.99999e-01
1.204369197e+00,1.54897e-13,9.99999e-01,9.99999e-01,1.81978e-13,8.51185e-01,9.99999e-01
1.210391043e+00,9.70986e-51,9.99999e-01,9.99999e-01,1.13712e-50,8.53899e-01,9.99999e-01
1.216442998e+00,4.36270e-44,9.99999e-01,9.99999e-01,5.09324e-44,8.56567e-01,9.99999e-01
1.222525213e+00,1.91214e-43,9.99999e-01,9.99999e-01,2.22551e-43,8.59190e-01,9.99999e-01
1.228637839e+00,1.18770e-33,9.99999e-01,9.99999e-01,1.37821e-33,8.61770e-01,9.99999e-01
