#,Wave/freq,Total,N2,O2,CO2,Rayleigh,CIA
4.000000000e-01,1.13341e-12,9.99999e-01,9.99999e-01,9.99999e-01,1.13341e-12,9.99999e-01
4.020000000e-01,1.95246e-12,9.99999e-01,9.99999e-01,9.99999e-01,1.95246e-12,9.99999e-01
4.040100000e-01,3.32561e-12,9.99999e-01,9.99999e-01,9.99999e-01,3.32561e-12,9.99999e-01
4.060300500e-01,5.60523e-12,9.99999e-01,9.99999e-01,9.99999e-01,5.60523e-12,9.99999e-01
4.080602003e-01,9.35053e-12,9.99999e-01,9.99999e-01,9.99999e-01,9.35053e-12,9.99999e-01
4.101005013e-01,1.54415e-11,9.99999e-01,9.99999e-01,9.99999e-01,1.54415e-11,9.99999e-01
4.121510038e-01,2.52488e-11,9.99999e-01,9.99999e-01,9.99999e-01,2.52488e-11,9.99999e-01
4.142117588e-01,4.08857e-11,9.99999e-01,9.99999e-01,9.99999e-01,4.08857e-11,9.99999e-01
4.162828176e-01,6.55797e-11,9.99999e-01,9.99999e-01,9.99999e-01,6.55797e-11,9.99999e-01
4.183642317e-01,1.04211e-10,9.99999e-01,9.99999e-01,9.99999e-01,1.04211e-10,9.99999e-01
4.204560528e-01,1.64091e-10,9.99999e-01,9.99999e-01,9.99999e-01,1.64091e-10,9.99999e-01
4.225583331e-01,2.56071e-10,9.99999e-01,9.99999e-01,9.99999e-01,2.56071e-10,9.99999e-01
4.246711247e-01,3.96113e-10,9.99999e-01,9.99999e-01,9.99999e-01,3.96113e-10,9.99999e-01
4.267944804e-01,6.07485e-10,9.99999e-01,9.99999e-01,9.99999e-01,6.07485e-10,9.99999e-01
4.289284528e-01,9.23812e-10,9.99999e-01,9.99999e-01,9.99999e-01,9.23812e-10,9.99999e-01
4.310730950e-01,1.39327e-09,9.99999e-01,9.99999e-01,9.99999e-01,1.39327e-09,9.99999e-01
4.332284605e-01,2.08431e-09,9.99999e-01,9.99999e-01,9.99999e-01,2.08431e-09,9.99999e-01
4.353946028e-01,3.09339e-09,9.99999e-01,9.99999e-01,9.99999e-01,3.09339e-09,9.99999e-01
4.375715758e-01,4.55533e-09,9.99999e-01,9.99999e-01,9.99999e-01,4.55533e-09,9.99999e-01
4.397594337e-01,6.65709e-09,9.99999e-01,9.99999e-01,9.99999e-01,6.65709e-09,9.99999e-01
4.419582309e-01,9.65595e-09,9.99999e-01,9.99999e-01,9.99999e-01,9.65595e-09,9.99999e-01
4.441680220e-01,1.39032e-08,9.99999e-01,9.99999e-01,9.99999e-01,1.39032e-08,9.99999e-01
4.463888621e-01,1.98750e-08,9.99999e-01,9.99999e-01,9.99999e-01,1.98750e-08,9.99999e-01
4.486208064e-01,2.82121e-08,9.99999e-01,9.99999e-01,9.99999e-01,2.82121e-08,9.99999e-01
4.508639105e-01,3.97702e-08,9.99999e-01,9.99999e-01,9.99999e-01,3.97702e-08,9.99999e-01
4.531182300e-01,5.56846e-08,9.99999e-01,9.99999e-01,9.99999e-01,5.56846e-08,9.99999e-01
4.553838212e-01,7.74506e-08,9.99999e-01,9.99999e-01,9.99999e-01,7.74506e-08,9.99999e-01
4.576607403e-01,1.07025e-07,9.99999e-01,9.99999e-01,9.99999e-01,1.07025e-07,9.99999e-01
4.599490440e-01,1.46950e-07,9.99999e-01,9.99999e-01,9.99999e-01,1.46950e-07,9.99999e-01
4.622487892e-01,2.00509e-07,9.99999e-01,9.99999e-01,9.99999e-01,2.00509e-07,9.99999e-01
4.645600332e-01,2.71916e-07,9.99999e-01,9.99999e-01,9.99999e-01,2.71916e-07,9.99999e-01
4.668828333e-01,3.66539e-07,9.99999e-01,9.99999e-01,9.99999e-01,3.66539e-07,9.99999e-01
4.692172475e-01,4.91185e-07,9.99999e-01,9.99999e-01,9.99999e-01,4.91185e-07,9.99999e-01
4.715633337e-01,6.54423e-07,9.99999e-01,9.99999e-01,9.99999e-01,6.54423e-07,9.99999e-01
4.739211504e-01,8.66983e-07,9.99999e-01,9.99999e-01,9.99999e-01,8.66983e-07,9.99999e-01
4.762907561e-01,1.14222e-06,9.99999e-01,9.99999e-01,9.99999e-01,1.14222e-06,9.99999e-01
4.786722099e-01,1.49666e-06,9.99999e-01,9.99999e-01,9.99999e-01,1.49666e-06,9.99999e-01
4.810655710e-01,1.95065e-06,9.99999e-01,9.99999e-01,9.99999e-01,1.95065e-06,9.99999e-01
4.834708988e-01,2.52908e-06,9.99999e-01,9.99999e-01,9.99999e-01,2.52908e-06,9.99999e-01
4.858882533e-01,3.26226e-06,9.99999e-01,9.99999e-01,9.99999e-01,3.26226e-06,9.99999e-01
4.883176946e-01,4.18687e-06,9.99999e-01,9.99999e-01,9.99999e-01,4.18687e-06,9.99999e-01
4.907592831e-01,5.34713e-06,9.99999e-01,9.99999e-01,9.99999e-01,5.34713e-06,9.99999e-01
4.932130795e-01,6.79600e-06,9.99999e-01,9.99999e-01,9.99999e-01,6.79600e-06,9.99999e-01
4.956791449e-01,8.59665e-06,9.99999e-01,9.99999e-01,9.99999e-01,8.59665e-06,9.99999e-01
4.981575406e-01,1.08240e-05,9.99999e-01,9.99999e-01,9.99999e-01,1.08240e-05,9.99999e-01
5.006483283e-01,1.35666e-05,9.99999e-01,9.99999e-01,9.99999e-01,1.35666e-05,9.99999e-01
5.031515699e-01,1.69285e-05,9.99999e-01,9.99999e-01,9.99999e-01,1.69285e-05,9.99999e-01
5.056673278e-01,2.10312e-05,9.99999e-01,9.99999e-01,9.99999e-01,2.10312e-05,9.99999e-01
5.081956644e-01,2.60165e-05,9.99999e-01,9.99999e-01,9.99999e-01,2.60165e-05,9.99999e-01
5.107366428e-01,3.20486e-05,9.99999e-01,9.99999e-01,9.99999e-01,3.20486e-05,9.99999e-01
5.132903260e-01,3.93170e-05,9.99999e-01,9.99999e-01,9.99999e-01,3.93170e-05,9.99999e-01
5.158567776e-01,4.80395e-05,9.99999e-01,9.99999e-01,9.99999e-01,4.80395e-05,9.99999e-01
5.184360615e-01,5.84653e-05,9.99999e-01,9.99999e-01,9.99999e-01,5.84653e-05,9.99999e-01
5.210282418e-01,7.08781e-05,9.99999e-01,9.99999e-01,9.99999e-01,7.08781e-05,9.99999e-01
5.236333830e-01,8.56002e-05,9.99999e-01,9.99999e-01,9.99999e-01,8.56002e-05,9.99999e-01
5.262515499e-01,1.02996e-04,9.99999e-01,9.99999e-01,9.99999e-01,1.02996e-04,9.99999e-01
5.288828077e-01,1.23474e-04,9.99999e-01,9.99999e-01,9.99999e-01,1.23474e-04,9.99999e-01
5.315272217e-01,1.47495e-04,9.99999e-01,9.99999e-01,9.99999e-01,1.47495e-04,9.99999e-01
5.341848578e-01,1.75571e-04,9.99999e-01,9.99999e-01,9.99999e-01,1.75571e-04,9.99999e-01
5.368557821e-01,2.08273e-04,9.99999e-01,9.99999e-01,9.99999e-01,2.08273e-04,9.99999e-01
5.395400610e-01,2.46235e-04,9.99999e-01,9.99999e-01,9.99999e-01,2.46235e-04,9.99999e-01
5.422377613e-01,2.90155e-04,9.99999e-01,9.99999e-01,9.99999e-01,2.90155e-04,9.99999e-01
5.449489501e-01,3.40801e-04,9.99999e-01,9.99999e-01,9.99999e-01,3.40801e-04,9.99999e-01
5.476736949e-01,3.99019e-04,9.99999e-01,9.99999e-01,9.99999e-01,3.99019e-04,9.99999e-01
5.504120634e-01,4.65728e-04,9.99999e-01,9.99999e-01,9.99999e-01,4.65728e-04,9.99999e-01
5.531641237e-01,5.41932e-04,9.99999e-01,9.99999e-01,9.99999e-01,5.41932e-04,9.99999e-01
5.559299443e-01,6.28720e-04,9.99999e-01,9.99999e-01,9.99999e-01,6.28720e-04,9.99999e-01
5.587095940e-01,7.27270e-04,9.99999e-01,9.99999e-01,9.99999e-01,7.27270e-04,9.99999e-01
5.615031420e-01,8.38851e-04,9.99999e-01,9.99999e-01,9.99999e-01,8.38851e-04,9.99999e-01
5.643106577e-01,9.64828e-04,9.99999e-01,9.99999e-01,9.99999e-01,9.64828e-04,9.99999e-01
5.671322110e-01,1.10666e-03,9.99999e-01,9.99999e-01,9.99999e-01,1.10666e-03,9.99999e-01
5.699678720e-01,1.26591e-03,9.99999e-01,9.99999e-01,9.99999e-01,1.26591e-03,9.99999e-01
5.728177114e-01,1.44423e-03,9.99999e-01,9.99999e-01,9.99999e-01,1.44423e-03,9.99999e-01
5.756818000e-01,1.64339e-03,9.99999e-01,9.99999e-01,9.99999e-01,1.64339e-03,9.99999e-01
5.785602090e-01,1.86525e-03,9.99999e-01,9.99999e-01,9.99999e-01,1.86525e-03,9.99999e-01
5.814530100e-01,2.11177e-03,9.99999e-01,9.99999e-01,9.99999e-01,2.11177e-03,9.99999e-01
5.843602750e-01,2.38502e-03,9.99999e-01,9.99999e-01,9.99999e-01,2.38502e-03,9.99999e-01
5.872820764e-01,2.68716e-03,9.99999e-01,9.99999e-01,9.99999e-01,2.68716e-03,9.99999e-01
5.902184868e-01,3.02044e-03,9.99999e-01,9.99999e-01,9.99999e-01,3.02044e-03,9.99999e-01
5.931695792e-01,3.38724e-03,9.99999e-01,9.99999e-01,9.99999e-01,3.38724e-03,9.99999e-01
5.961354271e-01,3.78998e-03,9.99999e-01,9.99999e-01,9.99999e-01,3.78998e-03,9.99999e-01
5.991161043e-01,4.23122e-03,9.99999e-01,9.99999e-01,9.99999e-01,4.23122e-03,9.99999e-01
6.021116848e-01,4.71355e-03,9.99999e-01,9.99999e-01,9.99999e-01,4.71355e-03,9.99999e-01
6.051222432e-01,5.23969e-03,9.99999e-01,9.99999e-01,9.99999e-01,5.23969e-03,9.99999e-01
6.081478544e-01,5.81239e-03,9.99999e-01,9.99999e-01,9.99999e-01,5.81239e-03,9.99999e-01
6.111885937e-01,6.43449e-03,9.99999e-01,9.99999e-01,9.99999e-01,6.43449e-03,9.99999e-01
6.142445367e-01,7.10889e-03,9.99999e-01,9.99999e-01,9.99999e-01,7.10889e-03,9.99999e-01
6.173157594e-01,7.83852e-03,9.99999e-01,9.99999e-01,9.99999e-01,7.83852e-03,9.99999e-01
6.204023382e-01,8.62637e-03,9.99999e-01,9.99999e-01,9.99999e-01,8.62637e-03,9.99999e-01
6.235043498e-01,9.47546e-03,9.99999e-01,9.99999e-01,9.99999e-01,9.47546e-03,9.99999e-01
6.266218716e-01,1.03889e-02,9.99999e-01,9.99999e-01,9.99999e-01,1.03889e-02,9.99999e-01
6.297549810e-01,1.13696e-02,9.99999e-01,9.99999e-01,9.99999e-01,1.13696e-02,9.99999e-01
6.329037559e-01,1.24208e-02,9.99999e-01,9.99999e-01,9.99999e-01,1.24208e-02,9.99999e-01
6.360682746e-01,1.35455e-02,9.99999e-01,9.99999e-01,9.99999e-01,1.35455e-02,9.99999e-01
6.392486160e-01,1.47467e-02,9.99999e-01,9.99999e-01,9.99999e-01,1.47467e-02,9.99999e-01
6.424448591e-01,1.60276e-02,9.99999e-01,9.99999e-01,9.99999e-01,1.60276e-02,9.99999e-01
6.456570834e-01,1.73911e-02,9.99999e-01,9.99999e-01,9.99999e-01,1.73911e-02,9.99999e-01
6.488853688e-01,1.88402e-02,9.99999e-01,9.99999e-01,9.99999e-01,1.88402e-02,9.99999e-01
6.521297956e-01,2.03778e-02,9.99999e-01,9.99999e-01,9.99999e-01,2.03778e-02,9.99999e-01
6.553904446e-01,2.20067e-02,9.99999e-01,9.99999e-01,9.99999e-01,2.20067e-02,9.99999e-01
6.586673968e-01,2.37298e-02,9.99999e-01,9.99999e-01,9.99999e-01,2.37298e-02,9.99999e-01
6.619607338e-01,2.55497e-02,9.99999e-01,9.99999e-01,9.99999e-01,2.55497e-02,9.99999e-01
6.652705375e-01,2.74690e-02,9.99999e-01,9.99999e-01,9.99999e-01,2.74690e-02,9.99999e-01
6.685968902e-01,2.94904e-02,9.99999e-01,9.99999e-01,9.99999e-01,2.94904e-02,9.99999e-01
6.719398746e-01,3.16161e-02,9.99999e-01,9.99999e-01,9.99999e-01,3.16161e-02,9.99999e-01
6.752995740e-01,3.38484e-02,9.99999e-01,9.99999e-01,9.99999e-01,3.38484e-02,9.99999e-01
6.786760719e-01,3.61896e-02,9.99999e-01,9.99999e-01,9.99999e-01,3.61896e-02,9.99999e-01
6.820694522e-01,3.86416e-02,9.99999e-01,9.99999e-01,9.99999e-01,3.86416e-02,9.99999e-01
6.854797995e-01,4.12064e-02,9.99999e-01,9.99999e-01,9.99999e-01,4.12064e-02,9.99999e-01
6.889071985e-01,4.38856e-02,9.99999e-01,9.99999e-01,9.99999e-01,4.38856e-02,9.99999e-01
6.923517345e-01,4.66809e-02,9.99999e-01,9.99999e-01,9.99999e-01,4.66809e-02,9.99999e-01
6.958134932e-01,4.95938e-02,9.99999e-01,9.99999e-01,9.99999e-01,4.95938e-02,9.99999e-01
6.992925606e-01,5.26255e-02,9.99999e-01,9.99999e-01,9.99999e-01,5.26255e-02,9.99999e-01
7.027890234e-01,5.57770e-02,9.99999e-01,9.99999e-01,9.99999e-01,5.57770e-02,9.99999e-01
7.063029686e-01,5.90495e-02,9.99999e-01,9.99999e-01,9.99999e-01,5.90495e-02,9.99999e-01
7.098344834e-01,6.24435e-02,9.99999e-01,9.99999e-01,9.99999e-01,6.24435e-02,9.99999e-01
7.133836558e-01,6.59598e-02,9.99999e-01,9.99999e-01,9.99999e-01,6.59598e-02,9.99999e-01
7.169505741e-01,6.95988e-02,9.99999e-01,9.99999e-01,9.99999e-01,6.95988e-02,9.99999e-01
7.205353270e-01,7.33607e-02,9.99999e-01,9.99999e-01,9.99999e-01,7.33607e-02,9.99999e-01
7.241380036e-01,7.72455e-02,9.99999e-01,9.99999e-01,9.99999e-01,7.72455e-02,9.99999e-01
7.277586936e-01,8.12532e-02,9.99999e-01,9.99999e-01,9.99999e-01,8.12532e-02,9.99999e-01
7.313974871e-01,8.53835e-02,9.99999e-01,9.99999e-01,9.99999e-01,8.53835e-02,9.99999e-01
7.350544745e-01,8.96359e-02,9.99999e-01,9.99999e-01,9.99999e-01,8.96359e-02,9.99999e-01
7.387297469e-01,9.40097e-02,9.99999e-01,9.99999e-01,9.99999e-01,9.40097e-02,9.99999e-01
7.424233956e-01,9.85043e-02,9.99999e-01,9.99999e-01,9.99999e-01,9.85043e-02,9.99999e-01
7.461355126e-01,1.03119e-01,9.99999e-01,9.99999e-01,9.99999e-01,1.03119e-01,9.99999e-01
7.498661902e-01,1.07851e-01,9.99999e-01,9.99999e-01,9.99999e-01,1.07851e-01,9.99999e-01
7.536155211e-01,1.12702e-01,9.99999e-01,9.99999e-01,9.99999e-01,1.12702e-01,9.99999e-01
7.573835987e-01,1.17668e-01,9.99999e-01,9.99999e-01,9.99999e-01,1.17668e-01,9.99999e-01
7.611705167e-01,1.22748e-01,9.99999e-01,9.99999e-01,9.99999e-01,1.22748e-01,9.99999e-01
7.649763693e-01,1.27940e-01,9.99999e-01,9.99999e-01,9.99999e-01,1.27940e-01,9.99999e-01
7.688012511e-01,1.33244e-01,9.99999e-01,9.99999e-01,9.99999e-01,1.33244e-01,9.99999e-01
7.726452574e-01,1.38655e-01,9.99999e-01,9.99999e-01,9.99999e-01,1.38655e-01,9.99999e-01
7.765084837e-01,1.44174e-01,9.99999e-01,9.99999e-01,9.99999e-01,1.44174e-01,9.99999e-01
7.803910261e-01,1.38278e-01,9.99999e-01,9.99999e-01,9.23110e-01,1.49796e-01,9.99999e-01
7.842929812e-01,1.06745e-01,9.99999e-01,9.99999e-01,6.86376e-01,1.55520e-01,9.99999e-01
7.882144461e-01,1.08167e-01,9.99999e-01,9.99999e-01,6.70414e-01,1.61343e-01,9.99999e-01
7.921555184e-01,1.31158e-01,9.99999e-01,9.99999e-01,7.84141e-01,1.67263e-01,9.99999e-01
7.961162960e-01,1.47122e-01,9.99999e-01,9.99999e-01,8.49062e-01,1.73276e-01,9.99999e-01
8.000968774e-01,1.64125e-01,9.99999e-01,9.99999e-01,9.14955e-01,1.79381e-01,9.99999e-01
8.040973618e-01,1.77229e-01,9.99999e-01,9.99999e-01,9.55035e-01,1.85573e-01,9.99999e-01
8.081178486e-01,1.87831e-01,9.99999e-01,9.99999e-01,9.79044e-01,1.91851e-01,9.99999e-01
8.121584379e-01,1.96925e-01,9.99999e-01,9.99999e-01,9.93513e-01,1.98211e-01,9.99999e-01
8.162192301e-01,2.04356e-01,9.99999e-01,9.99999e-01,9.98563e-01,2.04649e-01,9.99999e-01
8.203003262e-01,2.11160e-01,9.99999e-01,9.99999e-01,9.99979e-01,2.11164e-01,9.99999e-01
8.244018279e-01,2.17751e-01,9.99999e-01,9.99999e-01,9.99999e-01,2.17751e-01,9.99999e-01
8.285238370e-01,2.24407e-01,9.99999e-01,9.99999e-01,9.99999e-01,2.24407e-01,9.99999e-01
8.326664562e-01,2.31130e-01,9.99999e-01,9.99999e-01,9.99999e-01,2.31130e-01,9.99999e-01
8.368297885e-01,2.37915e-01,9.99999e-01,9.99999e-01,9.99999e-01,2.37915e-01,9.99999e-01
8.410139374e-01,2.44759e-01,9.99999e-01,9.99999e-01,9.99999e-01,2.44759e-01,9.99999e-01
8.452190071e-01,2.51659e-01,9.99999e-01,9.99999e-01,9.99999e-01,2.51659e-01,9.99999e-01
8.494451021e-01,2.58612e-01,9.99999e-01,9.99999e-01,9.99999e-01,2.58612e-01,9.99999e-01
8.536923276e-01,2.65613e-01,9.99999e-01,9.99999e-01,9.99999e-01,2.65613e-01,9.99999e-01
8.579607893e-01,2.72660e-01,9.99999e-01,9.99999e-01,9.99999e-01,2.72660e-01,9.99999e-01
8.622505932e-01,2.79750e-01,9.99999e-01,9.99999e-01,9.99999e-01,2.79750e-01,9.99999e-01
8.665618462e-01,2.51429e-01,9.99999e-01,9.99999e-01,8.76430e-01,2.86878e-01,9.99999e-01
8.708946554e-01,1.15659e-01,9.99999e-01,9.99999e-01,3.93343e-01,2.94042e-01,9.99999e-01
8.752491287e-01,1.39379e-01,9.99999e-01,9.99999e-01,4.62689e-01,3.01238e-01,9.99999e-01
8.796253743e-01,2.00280e-01,9.99999e-01,9.99999e-01,6.49285e-01,3.08462e-01,9.99999e-01
8.840235012e-01,2.51550e-01,9.99999e-01,9.99999e-01,7.96769e-01,3.15713e-01,9.99999e-01
8.884436187e-01,2.95235e-01,9.99999e-01,9.99999e-01,9.14082e-01,3.22985e-01,9.99999e-01
8.928858368e-01,3.18442e-01,9.99999e-01,9.99999e-01,9.64170e-01,3.30276e-01,9.99999e-01
8.973502660e-01,3.34613e-01,9.99999e-01,9.99999e-01,9.91202e-01,3.37583e-01,9.99999e-01
9.018370173e-01,3.44567e-01,9.99999e-01,9.99999e-01,9.99027e-01,3.44902e-01,9.99999e-01
9.063462024e-01,3.43515e-01,9.99999e-01,9.99999e-01,9.75255e-01,3.52231e-01,9.99999e-01
9.108779334e-01,3.39454e-01,9.99999e-01,9.99999e-01,9.44063e-01,3.59566e-01,9.99999e-01
9.154323231e-01,3.62004e-01,9.99999e-01,9.99999e-01,9.86643e-01,3.66905e-01,9.99999e-01
9.200094847e-01,3.12958e-01,9.99999e-01,9.99999e-01,8.36240e-01,3.74244e-01,9.99999e-01
9.246095321e-01,2.88225e-01,9.99999e-01,9.99999e-01,7.55344e-01,3.81580e-01,9.99999e-01
9.292325798e-01,3.12768e-01,9.99999e-01,9.99999e-01,8.04214e-01,3.88911e-01,9.99999e-01
9.338787427e-01,3.20668e-01,9.99999e-01,9.99999e-01,8.09288e-01,3.96234e-01,9.99999e-01
9.385481364e-01,3.45083e-01,9.99999e-01,9.99999e-01,8.55125e-01,4.03546e-01,9.99999e-01
9.432408771e-01,3.73208e-01,9.99999e-01,9.99999e-01,9.08391e-01,4.10845e-01,9.99999e-01
9.479570815e-01,3.97981e-01,9.99999e-01,9.99999e-01,9.51815e-01,4.18127e-01,9.99999e-01
9.526968669e-01,4.15401e-01,9.99999e-01,9.99999e-01,9.76513e-01,4.25391e-01,9.99999e-01
9.574603512e-01,4.28259e-01,9.99999e-01,9.99999e-01,9.89886e-01,4.32634e-01,9.99999e-01
9.622476530e-01,4.38463e-01,9.99999e-01,9.99999e-01,9.96836e-01,4.39854e-01,9.99999e-01
9.670588912e-01,4.46624e-01,9.99999e-01,9.99999e-01,9.99052e-01,4.47048e-01,9.99999e-01
9.718941857e-01,4.54184e-01,9.99999e-01,9.99999e-01,9.99933e-01,4.54214e-01,9.99999e-01
9.767536566e-01,4.61350e-01,9.99999e-01,9.99999e-01,9.99999e-01,4.61350e-01,9.99999e-01
9.816374249e-01,4.68454e-01,9.99999e-01,9.99999e-01,9.99999e-01,4.68454e-01,9.99999e-01
9.865456120e-01,4.75523e-01,9.99999e-01,9.99999e-01,9.99999e-01,4.75523e-01,9.99999e-01
9.914783401e-01,4.82557e-01,9.99999e-01,9.99999e-01,9.99999e-01,4.82557e-01,9.99999e-01
9.964357318e-01,4.89552e-01,9.99999e-01,9.99999e-01,9.99999e-01,4.89552e-01,9.99999e-01
1.001417910e+00,4.96508e-01,9.99999e-01,9.99999e-01,9.99999e-01,4.96508e-01,9.99999e-01
1.006425000e+00,5.03422e-01,9.99999e-01,9.99999e-01,9.99999e-01,5.03422e-01,9.99999e-01
1.011457125e+00,5.10294e-01,9.99999e-01,9.99999e-01,9.99999e-01,5.10294e-01,9.99999e-01
1.016514411e+00,5.17120e-01,9.99999e-01,9.99999e-01,9.99999e-01,5.17120e-01,9.99999e-01
1.021596983e+00,5.23825e-01,9.99999e-01,9.99999e-01,9.99856e-01,5.23900e-01,9.99999e-01
1.026704968e+00,5.25415e-01,9.99999e-01,9.99999e-01,9.90166e-01,5.30633e-01,9.99999e-01
1.031838492e+00,4.90900e-01,9.99999e-01,9.99999e-01,9.13614e-01,5.37317e-01,9.99999e-01
1.036997685e+00,3.33397e-02,9.99999e-01,9.99999e-01,6.12919e-02,5.43950e-01,9.99999e-01
1.042182673e+00,4.12201e-03,9.99999e-01,9.99999e-01,7.48732e-03,5.50532e-01,9.99999e-01
1.047393587e+00,9.31598e-03,9.99999e-01,9.99999e-01,1.67234e-02,5.57061e-01,9.99999e-01
1.052630555e+00,3.75088e-06,9.99999e-01,9.99999e-01,6.65596e-06,5.63536e-01,9.99999e-01
1.057893707e+00,1.40661e-05,9.99999e-01,9.99999e-01,2.46793e-05,5.69956e-01,9.99999e-01
1.063183176e+00,2.15935e-04,9.99999e-01,9.99999e-01,3.74678e-04,5.76320e-01,9.99999e-01
1.068499092e+00,1.66558e-03,9.99999e-01,9.99999e-01,2.85873e-03,5.82628e-01,9.99999e-01
1.073841587e+00,1.38117e-02,9.99999e-01,9.99999e-01,2.34543e-02,5.88878e-01,9.99999e-01
1.079210795e+00,5.60210e-02,9.99999e-01,9.99999e-01,9.41417e-02,5.95070e-01,9.99999e-01
1.084606849e+00,1.58696e-01,9.99999e-01,9.99999e-01,2.63965e-01,6.01203e-01,9.99999e-01
1.090029883e+00,3.02515e-01,9.99999e-01,9.99999e-01,4.98151e-01,6.07276e-01,9.99999e-01
1.095480033e+00,4.34689e-01,9.99999e-01,9.99999e-01,7.08784e-01,6.13288e-01,9.99999e-01
1.100957433e+00,5.24238e-01,9.99999e-01,9.99999e-01,8.46583e-01,6.19240e-01,9.99999e-01
1.106462220e+00,5.83503e-01,9.99999e-01,9.99999e-01,9.33410e-01,6.25129e-01,9.99999e-01
1.111994531e+00,6.15031e-01,9.99999e-01,9.99999e-01,9.74757e-01,6.30957e-01,9.99999e-01
1.117554504e+00,6.32772e-01,9.99999e-01,9.99999e-01,9.93794e-01,6.36723e-01,9.99999e-01
1.123142276e+00,6.42165e-01,9.99999e-01,9.99999e-01,9.99592e-01,6.42426e-01,9.99999e-01
1.128757988e+00,6.48066e-01,9.99999e-01,9.99999e-01,9.99999e-01,6.48066e-01,9.99999e-01
1.134401778e+00,6.53642e-01,9.99999e-01,9.99999e-01,9.99999e-01,6.53642e-01,9.99999e-01
1.140073787e+00,6.59155e-01,9.99999e-01,9.99999e-01,9.99999e-01,6.59155e-01,9.99999e-01
1.145774156e+00,6.64604e-01,9.99999e-01,9.99999e-01,9.99999e-01,6.64604e-01,9.99999e-01
1.151503026e+00,6.69989e-01,9.99999e-01,9.99999e-01,9.99999e-01,6.69989e-01,9.99999e-01
1.157260541e+00,6.75310e-01,9.99999e-01,9.99999e-01,9.99999e-01,6.75310e-01,9.99999e-01
1.163046844e+00,6.80567e-01,9.99999e-01,9.99999e-01,9.99999e-01,6.80567e-01,9.99999e-01
1.168862078e+00,6.85760e-01,9.99999e-01,9.99999e-01,9.99999e-01,6.85760e-01,9.99999e-01
1.174706389e+00,6.90889e-01,9.99999e-01,9.99999e-01,9.99999e-01,6.90889e-01,9.99999e-01
1.180579921e+00,6.95954e-01,9.99999e-01,9.99999e-01,9.99999e-01,6.95954e-01,9.99999e-01
1.186482820e+00,7.00940e-01,9.99999e-01,9.99999e-01,9.99979e-01,7.00954e-01,9.99999e-01
1.192415234e+00,6.81988e-01,9.99999e-01,9.99999e-01,9.66136e-01,7.05891e-01,9.99999e-01
1.198377311e+00,3.74089e-01,9.99999e-01,9.99999e-01,5.26319e-01,7.10764e-01,9.99999e-01
1.204369197e+00,1.08003e-25,9.99999e-01,9.99999e-01,1.50932e-25,7.15574e-01,9.99999e-01
1.210391043e+00,5.75288e-103,9.99999e-01,9.99999e-01,7.98656e-103,7.20320e-01,9.99999e-01
1.216442998e+00,3.78460e-89,9.99999e-01,9.99999e-01,5.22012e-89,7.25002e-01,9.99999e-01
1.222525213e+00,8.14260e-88,9.99999e-01,9.99999e-01,1.11600e-87,7.29622e-01,9.99999e-01
1.228637839e+00,8.33943e-68,9.99999e-01,9.99999e-01,1.13588e-67,7.34179e-01,9.99999e-01
