#,Wave/freq,Total,N2,O2,CO2,Rayleigh,CIA
4.000000000e-01,7.30891e-10,9.99999e-01,9.99999e-01,9.99999e-01,7.30891e-10,9.99999e-01
4.020000000e-01,1.10789e-09,9.99999e-01,9.99999e-01,9.99999e-01,1.10789e-09,9.99999e-01
4.040100000e-01,1.66491e-09,9.99999e-01,9.99999e-01,9.99999e-01,1.66491e-09,9.99999e-01
4.060300500e-01,2.48193e-09,9.99999e-01,9.99999e-01,9.99999e-01,2.48193e-09,9.99999e-01
4.080602003e-01,3.67082e-09,9.99999e-01,9.99999e-01,9.99999e-01,3.67082e-09,9.99999e-01
4.101005013e-01,5.38741e-09,9.99999e-01,9.99999e-01,9.99999e-01,5.38741e-09,9.99999e-01
4.121510038e-01,7.84704e-09,9.99999e-01,9.99999e-01,9.99999e-01,7.84704e-09,9.99999e-01
4.142117588e-01,1.13450e-08,9.99999e-01,9.99999e-01,9.99999e-01,1.13450e-08,9.99999e-01
4.162828176e-01,1.62833e-08,9.99999e-01,9.99999e-01,9.99999e-01,1.62833e-08,9.99999e-01
4.183642317e-01,2.32049e-08,9.99999e-01,9.99999e-01,9.99999e-01,2.32049e-08,9.99999e-01
4.204560528e-01,3.28382e-08,9.99999e-01,9.99999e-01,9.99999e-01,3.28382e-08,9.99999e-01
4.225583331e-01,4.61529e-08,9.99999e-01,9.99999e-01,9.99999e-01,4.61529e-08,9.99999e-01
4.246711247e-01,6.44316e-08,9.99999e-01,9.99999e-01,9.99999e-01,6.44316e-08,9.99999e-01
4.267944804e-01,8.93588e-08,9.99999e-01,9.99999e-01,9.99999e-01,8.93588e-08,9.99999e-01
4.289284528e-01,1.23132e-07,9.99999e-01,9.99999e-01,9.99999e-01,1.23132e-07,9.99999e-01
4.310730950e-01,1.68598e-07,9.99999e-01,9.99999e-01,9.99999e-01,1.68598e-07,9.99999e-01
4.332284605e-01,2.29424e-07,9.99999e-01,9.99999e-01,9.99999e-01,2.29424e-07,9.99999e-01
4.353946028e-01,3.10300e-07,9.99999e-01,9.99999e-01,9.99999e-01,3.10300e-07,9.99999e-01
4.375715758e-01,4.17192e-07,9.99999e-01,9.99999e-01,9.99999e-01,4.17192e-07,9.99999e-01
4.397594337e-01,5.57635e-07,9.99999e-01,9.99999e-01,9.99999e-01,5.57635e-07,9.99999e-01
4.419582309e-01,7.41097e-07,9.99999e-01,9.99999e-01,9.99999e-01,7.41097e-07,9.99999e-01
4.441680220e-01,9.79400e-07,9.99999e-01,9.99999e-01,9.99999e-01,9.79400e-07,9.99999e-01
4.463888621e-01,1.28722e-06,9.99999e-01,9.99999e-01,9.99999e-01,1.28722e-06,9.99999e-01
4.486208064e-01,1.68268e-06,9.99999e-01,9.99999e-01,9.99999e-01,1.68268e-06,9.99999e-01
4.508639105e-01,2.18803e-06,9.99999e-01,9.99999e-01,9.99999e-01,2.18803e-06,9.99999e-01
4.531182300e-01,2.83042e-06,9.99999e-01,9.99999e-01,9.99999e-01,2.83042e-06,9.99999e-01
4.553838212e-01,3.64285e-06,9.99999e-01,9.99999e-01,9.99999e-01,3.64285e-06,9.99999e-01
4.576607403e-01,4.66515e-06,9.99999e-01,9.99999e-01,9.99999e-01,4.66515e-06,9.99999e-01
4.599490440e-01,5.94524e-06,9.99999e-01,9.99999e-01,9.99999e-01,5.94524e-06,9.99999e-01
4.622487892e-01,7.54036e-06,9.99999e-01,9.99999e-01,9.99999e-01,7.54036e-06,9.99999e-01
4.645600332e-01,9.51867e-06,9.99999e-01,9.99999e-01,9.99999e-01,9.51867e-06,9.99999e-01
4.668828333e-01,1.19608e-05,9.99999e-01,9.99999e-01,9.99999e-01,1.19608e-05,9.99999e-01
4.692172475e-01,1.49620e-05,9.99999e-01,9.99999e-01,9.99999e-01,1.49620e-05,9.99999e-01
4.715633337e-01,1.86335e-05,9.99999e-01,9.99999e-01,9.99999e-01,1.86335e-05,9.99999e-01
4.739211504e-01,2.31056e-05,9.99999e-01,9.99999e-01,9.99999e-01,2.31056e-05,9.99999e-01
4.762907561e-01,2.85296e-05,9.99999e-01,9.99999e-01,9.99999e-01,2.85296e-05,9.99999e-01
4.786722099e-01,3.50804e-05,9.99999e-01,9.99999e-01,9.99999e-01,3.50804e-05,9.99999e-01
4.810655710e-01,4.29597e-05,9.99999e-01,9.99999e-01,9.99999e-01,4.29597e-05,9.99999e-01
4.834708988e-01,5.23985e-05,9.99999e-01,9.99999e-01,9.99999e-01,5.23985e-05,9.99999e-01
4.858882533e-01,6.36609e-05,9.99999e-01,9.99999e-01,9.99999e-01,6.36609e-05,9.99999e-01
4.883176946e-01,7.70472e-05,9.99999e-01,9.99999e-01,9.99999e-01,7.70472e-05,9.99999e-01
4.907592831e-01,9.28974e-05,9.99999e-01,9.99999e-01,9.99999e-01,9.28974e-05,9.99999e-01
4.932130795e-01,1.11595e-04,9.99999e-01,9.99999e-01,9.99999e-01,1.11595e-04,9.99999e-01
4.956791449e-01,1.33572e-04,9.99999e-01,9.99999e-01,9.99999e-01,1.33572e-04,9.99999e-01
4.981575406e-01,1.59309e-04,9.99999e-01,9.99999e-01,9.99999e-01,1.59309e-04,9.99999e-01
5.006483283e-01,1.89346e-04,9.99999e-01,9.99999e-01,9.99999e-01,1.89346e-04,9.99999e-01
5.031515699e-01,2.24279e-04,9.99999e-01,9.99999e-01,9.99999e-01,2.24279e-04,9.99999e-01
5.056673278e-01,2.64771e-04,9.99999e-01,9.99999e-01,9.99999e-01,2.64771e-04,9.99999e-01
5.081956644e-01,3.11550e-04,9.99999e-01,9.99999e-01,9.99999e-01,3.11550e-04,9.99999e-01
5.107366428e-01,3.65417e-04,9.99999e-01,9.99999e-01,9.99999e-01,3.65417e-04,9.99999e-01
5.132903260e-01,4.27250e-04,9.99999e-01,9.99999e-01,9.99999e-01,4.27250e-04,9.99999e-01
5.158567776e-01,4.98006e-04,9.99999e-01,9.99999e-01,9.99999e-01,4.98006e-04,9.99999e-01
5.184360615e-01,5.78726e-04,9.99999e-01,9.99999e-01,9.99999e-01,5.78726e-04,9.99999e-01
5.210282418e-01,6.70536e-04,9.99999e-01,9.99999e-01,9.99999e-01,6.70536e-04,9.99999e-01
5.236333830e-01,7.74654e-04,9.99999e-01,9.99999e-01,9.99999e-01,7.74654e-04,9.99999e-01
5.262515499e-01,8.92392e-04,9.99999e-01,9.99999e-01,9.99999e-01,8.92392e-04,9.99999e-01
5.288828077e-01,1.02516e-03,9.99999e-01,9.99999e-01,9.99999e-01,1.02516e-03,9.99999e-01
5.315272217e-01,1.17445e-03,9.99999e-01,9.99999e-01,9.99999e-01,1.17445e-03,9.99999e-01
5.341848578e-01,1.34188e-03,9.99999e-01,9.99999e-01,9.99999e-01,1.34188e-03,9.99999e-01
5.368557821e-01,1.52914e-03,9.99999e-01,9.99999e-01,9.99999e-01,1.52914e-03,9.99999e-01
5.395400610e-01,1.73804e-03,9.99999e-01,9.99999e-01,9.99999e-01,1.73804e-03,9.99999e-01
5.422377613e-01,1.97050e-03,9.99999e-01,9.99999e-01,9.99999e-01,1.97050e-03,9.99999e-01
5.449489501e-01,2.22851e-03,9.99999e-01,9.99999e-01,9.99999e-01,2.22851e-03,9.99999e-01
5.476736949e-01,2.51419e-03,9.99999e-01,9.99999e-01,9.99999e-01,2.51419e-03,9.99999e-01
5.504120634e-01,2.82974e-03,9.99999e-01,9.99999e-01,9.99999e-01,2.82974e-03,9.99999e-01
5.531641237e-01,3.17747e-03,9.99999e-01,9.99999e-01,9.99999e-01,3.17747e-03,9.99999e-01
5.559299443e-01,3.55977e-03,9.99999e-01,9.99999e-01,9.99999e-01,3.55977e-03,9.99999e-01
5.587095940e-01,3.97912e-03,9.99999e-01,9.99999e-01,9.99999e-01,3.97912e-03,9.99999e-01
5.615031420e-01,4.43810e-03,9.99999e-01,9.99999e-01,9.99999e-01,4.43810e-03,9.99999e-01
5.643106577e-01,4.93936e-03,9.99999e-01,9.99999e-01,9.99999e-01,4.93936e-03,9.99999e-01
5.671322110e-01,5.48563e-03,9.99999e-01,9.99999e-01,9.99999e-01,5.48563e-03,9.99999e-01
5.699678720e-01,6.07970e-03,9.99999e-01,9.99999e-01,9.99999e-01,6.07970e-03,9.99999e-01
5.728177114e-01,6.72444e-03,9.99999e-01,9.99999e-01,9.99999e-01,6.72444e-03,9.99999e-01
5.756818000e-01,7.42276e-03,9.99999e-01,9.99999e-01,9.99999e-01,7.42276e-03,9.99999e-01
5.785602090e-01,8.17762e-03,9.99999e-01,9.99999e-01,9.99999e-01,8.17762e-03,9.99999e-01
5.814530100e-01,8.99203e-03,9.99999e-01,9.99999e-01,9.99999e-01,8.99203e-03,9.99999e-01
5.843602750e-01,9.86902e-03,9.99999e-01,9.99999e-01,9.99999e-01,9.86902e-03,9.99999e-01
5.872820764e-01,1.08117e-02,9.99999e-01,9.99999e-01,9.99999e-01,1.08117e-02,9.99999e-01
5.902184868e-01,1.18230e-02,9.99999e-01,9.99999e-01,9.99999e-01,1.18230e-02,9.99999e-01
5.931695792e-01,1.29061e-02,9.99999e-01,9.99999e-01,9.99999e-01,1.29061e-02,9.99999e-01
5.961354271e-01,1.40641e-02,9.99999e-01,9.99999e-01,9.99999e-01,1.40641e-02,9.99999e-01
5.991161043e-01,1.53000e-02,9.99999e-01,9.99999e-01,9.99999e-01,1.53000e-02,9.99999e-01
6.021116848e-01,1.66169e-02,9.99999e-01,9.99999e-01,9.99999e-01,1.66169e-02,9.99999e-01
6.051222432e-01,1.80176e-02,9.99999e-01,9.99999e-01,9.99999e-01,1.80176e-02,9.99999e-01
6.081478544e-01,1.95053e-02,9.99999e-01,9.99999e-01,9.99999e-01,1.95053e-02,9.99999e-01
6.111885937e-01,2.10827e-02,9.99999e-01,9.99999e-01,9.99999e-01,2.10827e-02,9.99999e-01
6.142445367e-01,2.27527e-02,9.99999e-01,9.99999e-01,9.99999e-01,2.27527e-02,9.99999e-01
6.173157594e-01,2.45180e-02,9.99999e-01,9.99999e-01,9.99999e-01,2.45180e-02,9.99999e-01
6.204023382e-01,2.63813e-02,9.99999e-01,9.99999e-01,9.99999e-01,2.63813e-02,9.99999e-01
6.235043498e-01,2.83452e-02,9.99999e-01,9.99999e-01,9.99999e-01,2.83452e-02,9.99999e-01
6.266218716e-01,3.04121e-02,9.99999e-01,9.99999e-01,9.99999e-01,3.04121e-02,9.99999e-01
6.297549810e-01,3.25845e-02,9.99999e-01,9.99999e-01,9.99999e-01,3.25845e-02,9.99999e-01
6.329037559e-01,3.48644e-02,9.99999e-01,9.99999e-01,9.99999e-01,3.48644e-02,9.99999e-01
6.360682746e-01,3.72541e-02,9.99999e-01,9.99999e-01,9.99999e-01,3.72541e-02,9.99999e-01
6.392486160e-01,3.97555e-02,9.99999e-01,9.99999e-01,9.99999e-01,3.97555e-02,9.99999e-01
6.424448591e-01,4.23704e-02,9.99999e-01,9.99999e-01,9.99999e-01,4.23704e-02,9.99999e-01
6.456570834e-01,4.51005e-02,9.99999e-01,9.99999e-01,9.99999e-01,4.51005e-02,9.99999e-01
6.488853688e-01,4.79473e-02,9.99999e-01,9.99999e-01,9.99999e-01,4.79473e-02,9.99999e-01
6.521297956e-01,5.09123e-02,9.99999e-01,9.99999e-01,9.99999e-01,5.09123e-02,9.99999e-01
6.553904446e-01,5.39965e-02,9.99999e-01,9.99999e-01,9.99999e-01,5.39965e-02,9.99999e-01
6.586673968e-01,5.72012e-02,9.99999e-01,9.99999e-01,9.99999e-01,5.72012e-02,9.99999e-01
6.619607338e-01,6.05270e-02,9.99999e-01,9.99999e-01,9.99999e-01,6.05270e-02,9.99999e-01
6.652705375e-01,6.39748e-02,9.99999e-01,9.99999e-01,9.99999e-01,6.39748e-02,9.99999e-01
6.685968902e-01,6.75450e-02,9.99999e-01,9.99999e-01,9.99999e-01,6.75450e-02,9.99999e-01
6.719398746e-01,7.12379e-02,9.99999e-01,9.99999e-01,9.99999e-01,7.12379e-02,9.99999e-01
6.752995740e-01,7.50539e-02,9.99999e-01,9.99999e-01,9.99999e-01,7.50539e-02,9.99999e-01
6.786760719e-01,7.89928e-02,9.99999e-01,9.99999e-01,9.99999e-01,7.89928e-02,9.99999e-01
6.820694522e-01,8.30544e-02,9.99999e-01,9.99999e-01,9.99999e-01,8.30544e-02,9.99999e-01
6.854797995e-01,8.72384e-02,9.99999e-01,9.99999e-01,9.99999e-01,8.72384e-02,9.99999e-01
6.889071985e-01,9.15443e-02,9.99999e-01,9.99999e-01,9.99999e-01,9.15443e-02,9.99999e-01
6.923517345e-01,9.59714e-02,9.99999e-01,9.99999e-01,9.99999e-01,9.59714e-02,9.99999e-01
6.958134932e-01,1.00519e-01,9.99999e-01,9.99999e-01,9.99999e-01,1.00519e-01,9.99999e-01
6.992925606e-01,1.05185e-01,9.99999e-01,9.99999e-01,9.99999e-01,1.05185e-01,9.99999e-01
7.027890234e-01,1.09970e-01,9.99999e-01,9.99999e-01,9.99999e-01,1.09970e-01,9.99999e-01
7.063029686e-01,1.14871e-01,9.99999e-01,9.99999e-01,9.99999e-01,1.14871e-01,9.99999e-01
7.098344834e-01,1.19888e-01,9.99999e-01,9.99999e-01,9.99999e-01,1.19888e-01,9.99999e-01
7.133836558e-01,1.25017e-01,9.99999e-01,9.99999e-01,9.99999e-01,1.25017e-01,9.99999e-01
7.169505741e-01,1.30259e-01,9.99999e-01,9.99999e-01,9.99999e-01,1.30259e-01,9.99999e-01
7.205353270e-01,1.35610e-01,9.99999e-01,9.99999e-01,9.99999e-01,1.35610e-01,9.99999e-01
7.241380036e-01,1.41069e-01,9.99999e-01,9.99999e-01,9.99999e-01,1.41069e-01,9.99999e-01
7.277586936e-01,1.46633e-01,9.99999e-01,9.99999e-01,9.99999e-01,1.46633e-01,9.99999e-01
7.313974871e-01,1.52301e-01,9.99999e-01,9.99999e-01,9.99999e-01,1.52301e-01,9.99999e-01
7.350544745e-01,1.58069e-01,9.99999e-01,9.99999e-01,9.99999e-01,1.58069e-01,9.99999e-01
7.387297469e-01,1.63934e-01,9.99999e-01,9.99999e-01,9.99999e-01,1.63934e-01,9.99999e-01
7.424233956e-01,1.69896e-01,9.99999e-01,9.99999e-01,9.99999e-01,1.69896e-01,9.99999e-01
7.461355126e-01,1.75950e-01,9.99999e-01,9.99999e-01,9.99999e-01,1.75950e-01,9.99999e-01
7.498661902e-01,1.82093e-01,9.99999e-01,9.99999e-01,9.99999e-01,1.82093e-01,9.99999e-01
7.536155211e-01,1.88324e-01,9.99999e-01,9.99999e-01,9.99999e-01,1.88324e-01,9.99999e-01
7.573835987e-01,1.94638e-01,9.99999e-01,9.99999e-01,9.99999e-01,1.94638e-01,9.99999e-01
7.611705167e-01,2.01033e-01,9.99999e-01,9.99999e-01,9.99999e-01,2.01033e-01,9.99999e-01
7.649763693e-01,2.07505e-01,9.99999e-01,9.99999e-01,9.99999e-01,2.07505e-01,9.99999e-01
7.688012511e-01,2.14052e-01,9.99999e-01,9.99999e-01,9.99999e-01,2.14052e-01,9.99999e-01
7.726452574e-01,2.20670e-01,9.99999e-01,9.99999e-01,9.99999e-01,2.20670e-01,9.99999e-01
7.765084837e-01,2.27356e-01,9.99999e-01,9.99999e-01,9.99999e-01,2.27356e-01,9.99999e-01
7.803910261e-01,2.19419e-01,9.99999e-01,9.99999e-01,9.37262e-01,2.34106e-01,9.99999e-01
7.842929812e-01,1.79916e-01,9.99999e-01,9.99999e-01,7.46793e-01,2.40917e-01,9.99999e-01
7.882144461e-01,1.81365e-01,9.99999e-01,9.99999e-01,7.31938e-01,2.47787e-01,9.99999e-01
7.921555184e-01,2.11266e-01,9.99999e-01,9.99999e-01,8.29435e-01,2.54710e-01,9.99999e-01
7.961162960e-01,2.30896e-01,9.99999e-01,9.99999e-01,8.82342e-01,2.61685e-01,9.99999e-01
8.000968774e-01,2.51043e-01,9.99999e-01,9.99999e-01,9.34263e-01,2.68707e-01,9.99999e-01
8.040973618e-01,2.66250e-01,9.99999e-01,9.99999e-01,9.65468e-01,2.75773e-01,9.99999e-01
8.081178486e-01,2.78338e-01,9.99999e-01,9.99999e-01,9.83942e-01,2.82880e-01,9.99999e-01
8.121584379e-01,2.88589e-01,9.99999e-01,9.99999e-01,9.95051e-01,2.90024e-01,9.99999e-01
8.162192301e-01,2.96877e-01,9.99999e-01,9.99999e-01,9.98904e-01,2.97203e-01,9.99999e-01
8.203003262e-01,3.04407e-01,9.99999e-01,9.99999e-01,9.99984e-01,3.04412e-01,9.99999e-01
8.244018279e-01,3.11648e-01,9.99999e-01,9.99999e-01,9.99999e-01,3.11648e-01,9.99999e-01
8.285238370e-01,3.18908e-01,9.99999e-01,9.99999e-01,9.99999e-01,3.18908e-01,9.99999e-01
8.326664562e-01,3.26189e-01,9.99999e-01,9.99999e-01,9.99999e-01,3.26189e-01,9.99999e-01
8.368297885e-01,3.33487e-01,9.99999e-01,9.99999e-01,9.99999e-01,3.33487e-01,9.99999e-01
8.410139374e-01,3.40800e-01,9.99999e-01,9.99999e-01,9.99999e-01,3.40800e-01,9.99999e-01
8.452190071e-01,3.48124e-01,9.99999e-01,9.99999e-01,9.99999e-01,3.48124e-01,9.99999e-01
8.494451021e-01,3.55456e-01,9.99999e-01,9.99999e-01,9.99999e-01,3.55456e-01,9.99999e-01
8.536923276e-01,3.62793e-01,9.99999e-01,9.99999e-01,9.99999e-01,3.62793e-01,9.99999e-01
8.579607893e-01,3.70132e-01,9.99999e-01,9.99999e-01,9.99999e-01,3.70132e-01,9.99999e-01
8.622505932e-01,3.77470e-01,9.99999e-01,9.99999e-01,9.99999e-01,3.77470e-01,9.99999e-01
8.665618462e-01,3.42318e-01,9.99999e-01,9.99999e-01,8.89588e-01,3.84805e-01,9.99999e-01
8.708946554e-01,1.88767e-01,9.99999e-01,9.99999e-01,4.81386e-01,3.92133e-01,9.99999e-01
8.752491287e-01,2.19738e-01,9.99999e-01,9.99999e-01,5.50100e-01,3.99451e-01,9.99999e-01
8.796253743e-01,2.91628e-01,9.99999e-01,9.99999e-01,7.16957e-01,4.06758e-01,9.99999e-01
8.840235012e-01,3.47882e-01,9.99999e-01,9.99999e-01,8.40193e-01,4.14050e-01,9.99999e-01
8.884436187e-01,3.93393e-01,9.99999e-01,9.99999e-01,9.33705e-01,4.21324e-01,9.99999e-01
8.928858368e-01,4.16800e-01,9.99999e-01,9.99999e-01,9.72515e-01,4.28579e-01,9.99999e-01
8.973502660e-01,4.32886e-01,9.99999e-01,9.99999e-01,9.93284e-01,4.35812e-01,9.99999e-01
9.018370173e-01,4.42693e-01,9.99999e-01,9.99999e-01,9.99259e-01,4.43021e-01,9.99999e-01
9.063462024e-01,4.41567e-01,9.99999e-01,9.99999e-01,9.80816e-01,4.50203e-01,9.99999e-01
9.108779334e-01,4.37659e-01,9.99999e-01,9.99999e-01,9.56932e-01,4.57356e-01,9.99999e-01
9.154323231e-01,4.59740e-01,9.99999e-01,9.99999e-01,9.89799e-01,4.64478e-01,9.99999e-01
9.200094847e-01,4.08837e-01,9.99999e-01,9.99999e-01,8.66974e-01,4.71567e-01,9.99999e-01
9.246095321e-01,3.86015e-01,9.99999e-01,9.99999e-01,8.06514e-01,4.78621e-01,9.99999e-01
9.292325798e-01,4.10415e-01,9.99999e-01,9.99999e-01,8.45105e-01,4.85638e-01,9.99999e-01
9.338787427e-01,4.18749e-01,9.99999e-01,9.99999e-01,8.50050e-01,4.92616e-01,9.99999e-01
9.385481364e-01,4.43110e-01,9.99999e-01,9.99999e-01,8.87010e-01,4.99554e-01,9.99999e-01
9.432408771e-01,4.70589e-01,9.99999e-01,9.99999e-01,9.29191e-01,5.06449e-01,9.99999e-01
9.479570815e-01,4.94284e-01,9.99999e-01,9.99999e-01,9.62950e-01,5.13301e-01,9.99999e-01
9.526968669e-01,5.10746e-01,9.99999e-01,9.99999e-01,9.82000e-01,5.20108e-01,9.99999e-01
9.574603512e-01,5.22792e-01,9.99999e-01,9.99999e-01,9.92265e-01,5.26867e-01,9.99999e-01
9.622476530e-01,5.32289e-01,9.99999e-01,9.99999e-01,9.97583e-01,5.33578e-01,9.99999e-01
9.670588912e-01,5.39849e-01,9.99999e-01,9.99999e-01,9.99276e-01,5.40240e-01,9.99999e-01
9.718941857e-01,5.46823e-01,9.99999e-01,9.99999e-01,9.99949e-01,5.46851e-01,9.99999e-01
9.767536566e-01,5.53409e-01,9.99999e-01,9.99999e-01,9.99999e-01,5.53409e-01,9.99999e-01
9.816374249e-01,5.59915e-01,9.99999e-01,9.99999e-01,9.99999e-01,5.59915e-01,9.99999e-01
9.865456120e-01,5.66366e-01,9.99999e-01,9.99999e-01,9.99999e-01,5.66366e-01,9.99999e-01
9.914783401e-01,5.72762e-01,9.99999e-01,9.99999e-01,9.99999e-01,5.72762e-01,9.99999e-01
9.964357318e-01,5.79101e-01,9.99999e-01,9.99999e-01,9.99999e-01,5.79101e-01,9.99999e-01
1.001417910e+00,5.85384e-01,9.99999e-01,9.99999e-01,9.99999e-01,5.85384e-01,9.99999e-01
1.006425000e+00,5.91608e-01,9.99999e-01,9.99999e-01,9.99999e-01,5.91608e-01,9.99999e-01
1.011457125e+00,5.97774e-01,9.99999e-01,9.99999e-01,9.99999e-01,5.97774e-01,9.99999e-01
1.016514411e+00,6.03881e-01,9.99999e-01,9.99999e-01,9.99999e-01,6.03881e-01,9.99999e-01
1.021596983e+00,6.09858e-01,9.99999e-01,9.99999e-01,9.99886e-01,6.09927e-01,9.99999e-01
1.026704968e+00,6.11239e-01,9.99999e-01,9.99999e-01,9.92410e-01,6.15913e-01,9.99999e-01
1.031838492e+00,5.76053e-01,9.99999e-01,9.99999e-01,9.26371e-01,6.21837e-01,9.99999e-01
1.036997685e+00,4.98546e-02,9.99999e-01,9.99999e-01,7.94241e-02,6.27700e-01,9.99999e-01
1.042182673e+00,1.26819e-02,9.99999e-01,9.99999e-01,2.00187e-02,6.33501e-01,9.99999e-01
1.047393587e+00,2.31368e-02,9.99999e-01,9.99999e-01,3.61943e-02,6.39239e-01,9.99999e-01
1.052630555e+00,4.17586e-05,9.99999e-01,9.99999e-01,6.47507e-05,6.44914e-01,9.99999e-01
1.057893707e+00,1.47811e-04,9.99999e-01,9.99999e-01,2.27217e-04,6.50526e-01,9.99999e-01
1.063183176e+00,1.26274e-03,9.99999e-01,9.99999e-01,1.92469e-03,6.56074e-01,9.99999e-01
1.068499092e+00,6.92250e-03,9.99999e-01,9.99999e-01,1.04639e-02,6.61559e-01,9.99999e-01
1.073841587e+00,3.66084e-02,9.99999e-01,9.99999e-01,5.48868e-02,6.66980e-01,9.99999e-01
1.079210795e+00,1.07422e-01,9.99999e-01,9.99999e-01,1.59774e-01,6.72337e-01,9.99999e-01
1.084606849e+00,2.43270e-01,9.99999e-01,9.99999e-01,3.59001e-01,6.77630e-01,9.99999e-01
1.090029883e+00,4.00017e-01,9.99999e-01,9.99999e-01,5.85796e-01,6.82859e-01,9.99999e-01
1.095480033e+00,5.28528e-01,9.99999e-01,9.99999e-01,7.68182e-01,6.88023e-01,9.99999e-01
1.100957433e+00,6.10199e-01,9.99999e-01,9.99999e-01,8.80359e-01,6.93124e-01,9.99999e-01
1.106462220e+00,6.62338e-01,9.99999e-01,9.99999e-01,9.48689e-01,6.98161e-01,9.99999e-01
1.111994531e+00,6.89531e-01,9.99999e-01,9.99999e-01,9.80654e-01,7.03133e-01,9.99999e-01
1.117554504e+00,7.04687e-01,9.99999e-01,9.99999e-01,9.95261e-01,7.08042e-01,9.99999e-01
1.123142276e+00,7.12666e-01,9.99999e-01,9.99999e-01,9.99689e-01,7.12887e-01,9.99999e-01
1.128757988e+00,7.17668e-01,9.99999e-01,9.99999e-01,9.99999e-01,7.17668e-01,9.99999e-01
1.134401778e+00,7.22387e-01,9.99999e-01,9.99999e-01,9.99999e-01,7.22387e-01,9.99999e-01
1.140073787e+00,7.27042e-01,9.99999e-01,9.99999e-01,9.99999e-01,7.27042e-01,9.99999e-01
1.145774156e+00,7.31634e-01,9.99999e-01,9.99999e-01,9.99999e-01,7.31634e-01,9.99999e-01
1.151503026e+00,7.36164e-01,9.99999e-01,9.99999e-01,9.99999e-01,7.36164e-01,9.99999e-01
1.157260541e+00,7.40631e-01,9.99999e-01,9.99999e-01,9.99999e-01,7.40631e-01,9.99999e-01
1.163046844e+00,7.45037e-01,9.99999e-01,9.99999e-01,9.99999e-01,7.45037e-01,9.99999e-01
1.168862078e+00,7.49381e-01,9.99999e-01,9.99999e-01,9.99999e-01,7.49381e-01,9.99999e-01
1.174706389e+00,7.53663e-01,9.99999e-01,9.99999e-01,9.99999e-01,7.53663e-01,9.99999e-01
1.180579921e+00,7.57885e-01,9.99999e-01,9.99999e-01,9.99999e-01,7.57885e-01,9.99999e-01
1.186482820e+00,7.62034e-01,9.99999e-01,9.99999e-01,9.99982e-01,7.62047e-01,9.99999e-01
1.192415234e+00,7.45851e-01,9.99999e-01,9.99999e-01,9.73506e-01,7.66148e-01,9.99999e-01
1.198377311e+00,4.14641e-01,9.99999e-01,9.99999e-01,5.38362e-01,7.70190e-01,9.99999e-01
1.204369197e+00,3.50781e-20,9.99999e-01,9.99999e-01,4.53105e-20,7.74173e-01,9.99999e-01
1.210391043e+00,2.75466e-79,9.99999e-01,9.99999e-01,3.54025e-79,7.78097e-01,9.99999e-01
1.216442998e+00,1.02116e-68,9.99999e-01,9.99999e-01,1.30589e-68,7.81962e-01,9.99999e-01
1.222525213e+00,1.06818e-67,9.99999e-01,9.99999e-01,1.35940e-67,7.85770e-01,9.99999e-01
1.228637839e+00,2.38909e-52,9.99999e-01,9.99999e-01,3.02599e-52,7.89521e-01,9.99999e-01
