#,Wave/freq,Total,N2,O2,CO2,Rayleigh,CIA
4.000000000e-01,4.99962e-04,9.99999e-01,9.99999e-01,9.99999e-01,4.99962e-04,9.99999e-01
4.020000000e-01,5.81042e-04,9.99999e-01,9.99999e-01,9.99999e-01,5.81042e-04,9.99999e-01
4.040100000e-01,6.73166e-04,9.99999e-01,9.99999e-01,9.99999e-01,6.73166e-04,9.99999e-01
4.060300500e-01,7.77633e-04,9.99999e-01,9.99999e-01,9.99999e-01,7.77633e-04,9.99999e-01
4.080602003e-01,8.95756e-04,9.99999e-01,9.99999e-01,9.99999e-01,8.95756e-04,9.99999e-01
4.101005013e-01,1.02894e-03,9.99999e-01,9.99999e-01,9.99999e-01,1.02894e-03,9.99999e-01
4.121510038e-01,1.17870e-03,9.99999e-01,9.99999e-01,9.99999e-01,1.17870e-03,9.99999e-01
4.142117588e-01,1.34664e-03,9.99999e-01,9.99999e-01,9.99999e-01,1.34664e-03,9.99999e-01
4.162828176e-01,1.53446e-03,9.99999e-01,9.99999e-01,9.99999e-01,1.53446e-03,9.99999e-01
4.183642317e-01,1.74397e-03,9.99999e-01,9.99999e-01,9.99999e-01,1.74397e-03,9.99999e-01
4.204560528e-01,1.97709e-03,9.99999e-01,9.99999e-01,9.99999e-01,1.97709e-03,9.99999e-01
4.225583331e-01,2.23582e-03,9.99999e-01,9.99999e-01,9.99999e-01,2.23582e-03,9.99999e-01
4.246711247e-01,2.52227e-03,9.99999e-01,9.99999e-01,9.99999e-01,2.52227e-03,9.99999e-01
4.267944804e-01,2.83865e-03,9.99999e-01,9.99999e-01,9.99999e-01,2.83865e-03,9.99999e-01
4.289284528e-01,3.18728e-03,9.99999e-01,9.99999e-01,9.99999e-01,3.18728e-03,9.99999e-01
4.310730950e-01,3.57054e-03,9.99999e-01,9.99999e-01,9.99999e-01,3.57054e-03,9.99999e-01
4.332284605e-01,3.99092e-03,9.99999e-01,9.99999e-01,9.99999e-01,3.99092e-03,9.99999e-01
4.353946028e-01,4.45100e-03,9.99999e-01,9.99999e-01,9.99999e-01,4.45100e-03,9.99999e-01
4.375715758e-01,4.95344e-03,9.99999e-01,9.99999e-01,9.99999e-01,4.95344e-03,9.99999e-01
4.397594337e-01,5.50095e-03,9.99999e-01,9.99999e-01,9.99999e-01,5.50095e-03,9.99999e-01
4.419582309e-01,6.09635e-03,9.99999e-01,9.99999e-01,9.99999e-01,6.09635e-03,9.99999e-01
4.441680220e-01,6.74249e-03,9.99999e-01,9.99999e-01,9.99999e-01,6.74249e-03,9.99999e-01
4.463888621e-01,7.44229e-03,9.99999e-01,9.99999e-01,9.99999e-01,7.44229e-03,9.99999e-01
4.486208064e-01,8.19871e-03,9.99999e-01,9.99999e-01,9.99999e-01,8.19871e-03,9.99999e-01
4.508639105e-01,9.01476e-03,9.99999e-01,9.99999e-01,9.99999e-01,9.01476e-03,9.99999e-01
4.531182300e-01,9.89348e-03,9.99999e-01,9.99999e-01,9.99999e-01,9.89348e-03,9.99999e-01
4.553838212e-01,1.08379e-02,9.99999e-01,9.99999e-01,9.99999e-01,1.08379e-02,9.99999e-01
4.576607403e-01,1.18511e-02,9.99999e-01,9.99999e-01,9.99999e-01,1.18511e-02,9.99999e-01
4.599490440e-01,1.29362e-02,9.99999e-01,9.99999e-01,9.99999e-01,1.29362e-02,9.99999e-01
4.622487892e-01,1.40963e-02,9.99999e-01,9.99999e-01,9.99999e-01,1.40963e-02,9.99999e-01
4.645600332e-01,1.53343e-02,9.99999e-01,9.99999e-01,9.99999e-01,1.53343e-02,9.99999e-01
4.668828333e-01,1.66534e-02,9.99999e-01,9.99999e-01,9.99999e-01,1.66534e-02,9.99999e-01
4.692172475e-01,1.80564e-02,9.99999e-01,9.99999e-01,9.99999e-01,1.80564e-02,9.99999e-01
4.715633337e-01,1.95464e-02,9.99999e-01,9.99999e-01,9.99999e-01,1.95464e-02,9.99999e-01
4.739211504e-01,2.11263e-02,9.99999e-01,9.99999e-01,9.99999e-01,2.11263e-02,9.99999e-01
4.762907561e-01,2.27988e-02,9.99999e-01,9.99999e-01,9.99999e-01,2.27988e-02,9.99999e-01
4.786722099e-01,2.45667e-02,9.99999e-01,9.99999e-01,9.99999e-01,2.45667e-02,9.99999e-01
4.810655710e-01,2.64327e-02,9.99999e-01,9.99999e-01,9.99999e-01,2.64327e-02,9.99999e-01
4.834708988e-01,2.83994e-02,9.99999e-01,9.99999e-01,9.99999e-01,2.83994e-02,9.99999e-01
4.858882533e-01,3.04691e-02,9.99999e-01,9.99999e-01,9.99999e-01,3.04691e-02,9.99999e-01
4.883176946e-01,3.26443e-02,9.99999e-01,9.99999e-01,9.99999e-01,3.26443e-02,9.99999e-01
4.907592831e-01,3.49272e-02,9.99999e-01,9.99999e-01,9.99999e-01,3.49272e-02,9.99999e-01
4.932130795e-01,3.73198e-02,9.99999e-01,9.99999e-01,9.99999e-01,3.73198e-02,9.99999e-01
4.956791449e-01,3.98242e-02,9.99999e-01,9.99999e-01,9.99999e-01,3.98242e-02,9.99999e-01
4.981575406e-01,4.24422e-02,9.99999e-01,9.99999e-01,9.99999e-01,4.24422e-02,9.99999e-01
5.006483283e-01,4.51754e-02,9.99999e-01,9.99999e-01,9.99999e-01,4.51754e-02,9.99999e-01
5.031515699e-01,4.80254e-02,9.99999e-01,9.99999e-01,9.99999e-01,4.80254e-02,9.99999e-01
5.056673278e-01,5.09936e-02,9.99999e-01,9.99999e-01,9.99999e-01,5.09936e-02,9.99999e-01
5.081956644e-01,5.40810e-02,9.99999e-01,9.99999e-01,9.99999e-01,5.40810e-02,9.99999e-01
5.107366428e-01,5.72889e-02,9.99999e-01,9.99999e-01,9.99999e-01,5.72889e-02,9.99999e-01
5.132903260e-01,6.06180e-02,9.99999e-01,9.99999e-01,9.99999e-01,6.06180e-02,9.99999e-01
5.158567776e-01,6.40691e-02,9.99999e-01,9.99999e-01,9.99999e-01,6.40691e-02,9.99999e-01
5.184360615e-01,6.76426e-02,9.99999e-01,9.99999e-01,9.99999e-01,6.76426e-02,9.99999e-01
5.210282418e-01,7.13388e-02,9.99999e-01,9.99999e-01,9.99999e-01,7.13388e-02,9.99999e-01
5.236333830e-01,7.51581e-02,9.99999e-01,9.99999e-01,9.99999e-01,7.51581e-02,9.99999e-01
5.262515499e-01,7.91003e-02,9.99999e-01,9.99999e-01,9.99999e-01,7.91003e-02,9.99999e-01
5.288828077e-01,8.31652e-02,9.99999e-01,9.99999e-01,9.99999e-01,8.31652e-02,9.99999e-01
5.315272217e-01,8.73525e-02,9.99999e-01,9.99999e-01,9.99999e-01,8.73525e-02,9.99999e-01
5.341848578e-01,9.16617e-02,9.99999e-01,9.99999e-01,9.99999e-01,9.16617e-02,9.99999e-01
5.368557821e-01,9.60920e-02,9.99999e-01,9.99999e-01,9.99999e-01,9.60920e-02,9.99999e-01
5.395400610e-01,1.00643e-01,9.99999e-01,9.99999e-01,9.99999e-01,1.00643e-01,9.99999e-01
5.422377613e-01,1.05312e-01,9.99999e-01,9.99999e-01,9.99999e-01,1.05312e-01,9.99999e-01
5.449489501e-01,1.10100e-01,9.99999e-01,9.99999e-01,9.99999e-01,1.10100e-01,9.99999e-01
5.476736949e-01,1.15004e-01,9.99999e-01,9.99999e-01,9.99999e-01,1.15004e-01,9.99999e-01
5.504120634e-01,1.20024e-01,9.99999e-01,9.99999e-01,9.99999e-01,1.20024e-01,9.99999e-01
5.531641237e-01,1.25157e-01,9.99999e-01,9.99999e-01,9.99999e-01,1.25157e-01,9.99999e-01
5.559299443e-01,1.30401e-01,9.99999e-01,9.99999e-01,9.99999e-01,1.30401e-01,9.99999e-01
5.587095940e-01,1.35756e-01,9.99999e-01,9.99999e-01,9.99999e-01,1.35756e-01,9.99999e-01
5.615031420e-01,1.41217e-01,9.99999e-01,9.99999e-01,9.99999e-01,1.41217e-01,9.99999e-01
5.643106577e-01,1.46784e-01,9.99999e-01,9.99999e-01,9.99999e-01,1.46784e-01,9.99999e-01
5.671322110e-01,1.52454e-01,9.99999e-01,9.99999e-01,9.99999e-01,1.52454e-01,9.99999e-01
5.699678720e-01,1.58225e-01,9.99999e-01,9.99999e-01,9.99999e-01,1.58225e-01,9.99999e-01
5.728177114e-01,1.64093e-01,9.99999e-01,9.99999e-01,9.99999e-01,1.64093e-01,9.99999e-01
5.756818000e-01,1.70057e-01,9.99999e-01,9.99999e-01,9.99999e-01,1.70057e-01,9.99999e-01
5.785602090e-01,1.76113e-01,9.99999e-01,9.99999e-01,9.99999e-01,1.76113e-01,9.99999e-01
5.814530100e-01,1.82259e-01,9.99999e-01,9.99999e-01,9.99999e-01,1.82259e-01,9.99999e-01
5.843602750e-01,1.88492e-01,9.99999e-01,9.99999e-01,9.99999e-01,1.88492e-01,9.99999e-01
5.872820764e-01,1.94808e-01,9.99999e-01,9.99999e-01,9.99999e-01,1.94808e-01,9.99999e-01
5.902184868e-01,2.01206e-01,9.99999e-01,9.99999e-01,9.99999e-01,2.01206e-01,9.99999e-01
5.931695792e-01,2.07680e-01,9.99999e-01,9.99999e-01,9.99999e-01,2.07680e-01,9.99999e-01
5.961354271e-01,2.14229e-01,9.99999e-01,9.99999e-01,9.99999e-01,2.14229e-01,9.99999e-01
5.991161043e-01,2.20849e-01,9.99999e-01,9.99999e-01,9.99999e-01,2.20849e-01,9.99999e-01
6.021116848e-01,2.27536e-01,9.99999e-01,9.99999e-01,9.99999e-01,2.27536e-01,9.99999e-01
6.051222432e-01,2.34288e-01,9.99999e-01,9.99999e-01,9.99999e-01,2.34288e-01,9.99999e-01
6.081478544e-01,2.41101e-01,9.99999e-01,9.99999e-01,9.99999e-01,2.41101e-01,9.99999e-01
6.111885937e-01,2.47972e-01,9.99999e-01,9.99999e-01,9.99999e-01,2.47972e-01,9.99999e-01
6.142445367e-01,2.54897e-01,9.99999e-01,9.99999e-01,9.99999e-01,2.54897e-01,9.99999e-01
6.173157594e-01,2.61873e-01,9.99999e-01,9.99999e-01,9.99999e-01,2.61873e-01,9.99999e-01
6.204023382e-01,2.68896e-01,9.99999e-01,9.99999e-01,9.99999e-01,2.68896e-01,9.99999e-01
6.235043498e-01,2.75963e-01,9.99999e-01,9.99999e-01,9.99999e-01,2.75963e-01,9.99999e-01
6.266218716e-01,2.83071e-01,9.99999e-01,9.99999e-01,9.99999e-01,2.83071e-01,9.99999e-01
6.297549810e-01,2.90217e-01,9.99999e-01,9.99999e-01,9.99999e-01,2.90217e-01,9.99999e-01
6.329037559e-01,2.97396e-01,9.99999e-01,9.99999e-01,9.99999e-01,2.97396e-01,9.99999e-01
6.360682746e-01,3.04606e-01,9.99999e-01,9.99999e-01,9.99999e-01,3.04606e-01,9.99999e-01
6.392486160e-01,3.11843e-01,9.99999e-01,9.99999e-01,9.99999e-01,3.11843e-01,9.99999e-01
6.424448591e-01,3.19103e-01,9.99999e-01,9.99999e-01,9.99999e-01,3.19103e-01,9.99999e-01
6.456570834e-01,3.26385e-01,9.99999e-01,9.99999e-01,9.99999e-01,3.26385e-01,9.99999e-01
6.488853688e-01,3.33684e-01,9.99999e-01,9.99999e-01,9.99999e-01,3.33684e-01,9.99999e-01
6.521297956e-01,3.40997e-01,9.99999e-01,9.99999e-01,9.99999e-01,3.40997e-01,9.99999e-01
6.553904446e-01,3.48321e-01,9.99999e-01,9.99999e-01,9.99999e-01,3.48321e-01,9.99999e-01
6.586673968e-01,3.55653e-01,9.99999e-01,9.99999e-01,9.99999e-01,3.55653e-01,9.99999e-01
6.619607338e-01,3.62990e-01,9.99999e-01,9.99999e-01,9.99999e-01,3.62990e-01,9.99999e-01
6.652705375e-01,3.70329e-01,9.99999e-01,9.99999e-01,9.99999e-01,3.70329e-01,9.99999e-01
6.685968902e-01,3.77667e-01,9.99999e-01,9.99999e-01,9.99999e-01,3.77667e-01,9.99999e-01
6.719398746e-01,3.85002e-01,9.99999e-01,9.99999e-01,9.99999e-01,3.85002e-01,9.99999e-01
6.752995740e-01,3.92329e-01,9.99999e-01,9.99999e-01,9.99999e-01,3.92329e-01,9.99999e-01
6.786760719e-01,3.99648e-01,9.99999e-01,9.99999e-01,9.99999e-01,3.99648e-01,9.99999e-01
6.820694522e-01,4.06954e-01,9.99999e-01,9.99999e-01,9.99999e-01,4.06954e-01,9.99999e-01
6.854797995e-01,4.14245e-01,9.99999e-01,9.99999e-01,9.99999e-01,4.14245e-01,9.99999e-01
6.889071985e-01,4.21519e-01,9.99999e-01,9.99999e-01,9.99999e-01,4.21519e-01,9.99999e-01
6.923517345e-01,4.28774e-01,9.99999e-01,9.99999e-01,9.99999e-01,4.28774e-01,9.99999e-01
6.958134932e-01,4.36006e-01,9.99999e-01,9.99999e-01,9.99999e-01,4.36006e-01,9.99999e-01
6.992925606e-01,4.43214e-01,9.99999e-01,9.99999e-01,9.99999e-01,4.43214e-01,9.99999e-01
7.027890234e-01,4.50395e-01,9.99999e-01,9.99999e-01,9.99999e-01,4.50395e-01,9.99999e-01
7.063029686e-01,4.57548e-01,9.99999e-01,9.99999e-01,9.99999e-01,4.57548e-01,9.99999e-01
7.098344834e-01,4.64669e-01,9.99999e-01,9.99999e-01,9.99999e-01,4.64669e-01,9.99999e-01
7.133836558e-01,4.71757e-01,9.99999e-01,9.99999e-01,9.99999e-01,4.71757e-01,9.99999e-01
7.169505741e-01,4.78810e-01,9.99999e-01,9.99999e-01,9.99999e-01,4.78810e-01,9.99999e-01
7.205353270e-01,4.85826e-01,9.99999e-01,9.99999e-01,9.99999e-01,4.85826e-01,9.99999e-01
7.241380036e-01,4.92803e-01,9.99999e-01,9.99999e-01,9.99999e-01,4.92803e-01,9.99999e-01
7.277586936e-01,4.99740e-01,9.99999e-01,9.99999e-01,9.99999e-01,4.99740e-01,9.99999e-01
7.313974871e-01,5.06634e-01,9.99999e-01,9.99999e-01,9.99999e-01,5.06634e-01,9.99999e-01
7.350544745e-01,5.13485e-01,9.99999e-01,9.99999e-01,9.99999e-01,5.13485e-01,9.99999e-01
7.387297469e-01,5.20290e-01,9.99999e-01,9.99999e-01,9.99999e-01,5.20290e-01,9.99999e-01
7.424233956e-01,5.27048e-01,9.99999e-01,9.99999e-01,9.99999e-01,5.27048e-01,9.99999e-01
7.461355126e-01,5.33758e-01,9.99999e-01,9.99999e-01,9.99999e-01,5.33758e-01,9.99999e-01
7.498661902e-01,5.40418e-01,9.99999e-01,9.99999e-01,9.99999e-01,5.40418e-01,9.99999e-01
7.536155211e-01,5.47027e-01,9.99999e-01,9.99999e-01,9.99999e-01,5.47027e-01,9.99999e-01
7.573835987e-01,5.53585e-01,9.99999e-01,9.99999e-01,9.99999e-01,5.53585e-01,9.99999e-01
7.611705167e-01,5.60089e-01,9.99999e-01,9.99999e-01,9.99999e-01,5.60089e-01,9.99999e-01
7.649763693e-01,5.66538e-01,9.99999e-01,9.99999e-01,9.99999e-01,5.66538e-01,9.99999e-01
7.688012511e-01,5.72933e-01,9.99999e-01,9.99999e-01,9.99999e-01,5.72933e-01,9.99999e-01
7.726452574e-01,5.79271e-01,9.99999e-01,9.99999e-01,9.99999e-01,5.79271e-01,9.99999e-01
7.765084837e-01,5.85552e-01,9.99999e-01,9.99999e-01,9.99999e-01,5.85552e-01,9.99999e-01
7.803910261e-01,5.76528e-01,9.99999e-01,9.99999e-01,9.74235e-01,5.91775e-01,9.99999e-01
7.842929812e-01,5.35903e-01,9.99999e-01,9.99999e-01,8.96250e-01,5.97939e-01,9.99999e-01
7.882144461e-01,5.36763e-01,9.99999e-01,9.99999e-01,8.88615e-01,6.04044e-01,9.99999e-01
7.921555184e-01,5.69803e-01,9.99999e-01,9.99999e-01,9.33966e-01,6.10089e-01,9.99999e-01
7.961162960e-01,5.88726e-01,9.99999e-01,9.99999e-01,9.55610e-01,6.16073e-01,9.99999e-01
8.000968774e-01,6.06859e-01,9.99999e-01,9.99999e-01,9.75663e-01,6.21996e-01,9.99999e-01
8.040973618e-01,6.19921e-01,9.99999e-01,9.99999e-01,9.87360e-01,6.27857e-01,9.99999e-01
8.081178486e-01,6.29957e-01,9.99999e-01,9.99999e-01,9.94163e-01,6.33656e-01,9.99999e-01
8.121584379e-01,6.38245e-01,9.99999e-01,9.99999e-01,9.98206e-01,6.39392e-01,9.99999e-01
8.162192301e-01,6.44810e-01,9.99999e-01,9.99999e-01,9.99603e-01,6.45065e-01,9.99999e-01
8.203003262e-01,6.50672e-01,9.99999e-01,9.99999e-01,9.99994e-01,6.50676e-01,9.99999e-01
8.244018279e-01,6.56222e-01,9.99999e-01,9.99999e-01,9.99999e-01,6.56222e-01,9.99999e-01
8.285238370e-01,6.61705e-01,9.99999e-01,9.99999e-01,9.99999e-01,6.61705e-01,9.99999e-01
8.326664562e-01,6.67125e-01,9.99999e-01,9.99999e-01,9.99999e-01,6.67125e-01,9.99999e-01
8.368297885e-01,6.72480e-01,9.99999e-01,9.99999e-01,9.99999e-01,6.72480e-01,9.99999e-01
8.410139374e-01,6.77771e-01,9.99999e-01,9.99999e-01,9.99999e-01,6.77771e-01,9.99999e-01
8.452190071e-01,6.82998e-01,9.99999e-01,9.99999e-01,9.99999e-01,6.82998e-01,9.99999e-01
8.494451021e-01,6.88161e-01,9.99999e-01,9.99999e-01,9.99999e-01,6.88161e-01,9.99999e-01
8.536923276e-01,6.93260e-01,9.99999e-01,9.99999e-01,9.99999e-01,6.93260e-01,9.99999e-01
8.579607893e-01,6.98295e-01,9.99999e-01,9.99999e-01,9.99999e-01,6.98295e-01,9.99999e-01
8.622505932e-01,7.03266e-01,9.99999e-01,9.99999e-01,9.99999e-01,7.03266e-01,9.99999e-01
8.665618462e-01,6.64204e-01,9.99999e-01,9.99999e-01,9.37912e-01,7.08173e-01,9.99999e-01
8.708946554e-01,5.38131e-01,9.99999e-01,9.99999e-01,7.54724e-01,7.13016e-01,9.99999e-01
8.752491287e-01,5.73408e-01,9.99999e-01,9.99999e-01,7.98845e-01,7.17796e-01,9.99999e-01
8.796253743e-01,6.39158e-01,9.99999e-01,9.99999e-01,8.84632e-01,7.22512e-01,9.99999e-01
8.840235012e-01,6.82503e-01,9.99999e-01,9.99999e-01,9.38578e-01,7.27166e-01,9.99999e-01
8.884436187e-01,7.13784e-01,9.99999e-01,9.99999e-01,9.75438e-01,7.31756e-01,9.99999e-01
8.928858368e-01,7.28896e-01,9.99999e-01,9.99999e-01,9.89965e-01,7.36284e-01,9.99999e-01
8.973502660e-01,7.38946e-01,9.99999e-01,9.99999e-01,9.97564e-01,7.40750e-01,9.99999e-01
9.018370173e-01,7.44955e-01,9.99999e-01,9.99999e-01,9.99731e-01,7.45154e-01,9.99999e-01
9.063462024e-01,7.44212e-01,9.99999e-01,9.99999e-01,9.92949e-01,7.49496e-01,9.99999e-01
9.108779334e-01,7.41850e-01,9.99999e-01,9.99999e-01,9.84175e-01,7.53778e-01,9.99999e-01
9.154323231e-01,7.55188e-01,9.99999e-01,9.99999e-01,9.96292e-01,7.57998e-01,9.99999e-01
9.200094847e-01,7.20555e-01,9.99999e-01,9.99999e-01,9.45414e-01,7.62158e-01,9.99999e-01
9.246095321e-01,7.08613e-01,9.99999e-01,9.99999e-01,9.24771e-01,7.66257e-01,9.99999e-01
9.292325798e-01,7.24055e-01,9.99999e-01,9.99999e-01,9.39967e-01,7.70298e-01,9.99999e-01
9.338787427e-01,7.29691e-01,9.99999e-01,9.99999e-01,9.42413e-01,7.74279e-01,9.99999e-01
9.385481364e-01,7.45043e-01,9.99999e-01,9.99999e-01,9.57391e-01,7.78201e-01,9.99999e-01
9.432408771e-01,7.61550e-01,9.99999e-01,9.99999e-01,9.73767e-01,7.82065e-01,9.99999e-01
9.479570815e-01,7.75215e-01,9.99999e-01,9.99999e-01,9.86438e-01,7.85872e-01,9.99999e-01
9.526968669e-01,7.84448e-01,9.99999e-01,9.99999e-01,9.93448e-01,7.89621e-01,9.99999e-01
9.574603512e-01,7.91090e-01,9.99999e-01,9.99999e-01,9.97195e-01,7.93314e-01,9.99999e-01
9.622476530e-01,7.96254e-01,9.99999e-01,9.99999e-01,9.99125e-01,7.96950e-01,9.99999e-01
9.670588912e-01,8.00322e-01,9.99999e-01,9.99999e-01,9.99738e-01,8.00531e-01,9.99999e-01
9.718941857e-01,8.04042e-01,9.99999e-01,9.99999e-01,9.99981e-01,8.04057e-01,9.99999e-01
9.767536566e-01,8.07528e-01,9.99999e-01,9.99999e-01,9.99999e-01,8.07528e-01,9.99999e-01
9.816374249e-01,8.10945e-01,9.99999e-01,9.99999e-01,9.99999e-01,8.10945e-01,9.99999e-01
9.865456120e-01,8.14309e-01,9.99999e-01,9.99999e-01,9.99999e-01,8.14309e-01,9.99999e-01
9.914783401e-01,8.17619e-01,9.99999e-01,9.99999e-01,9.99999e-01,8.17619e-01,9.99999e-01
9.964357318e-01,8.20878e-01,9.99999e-01,9.99999e-01,9.99999e-01,8.20878e-01,9.99999e-01
1.001417910e+00,8.24084e-01,9.99999e-01,9.99999e-01,9.99999e-01,8.24084e-01,9.99999e-01
1.006425000e+00,8.27240e-01,9.99999e-01,9.99999e-01,9.99999e-01,8.27240e-01,9.99999e-01
1.011457125e+00,8.30345e-01,9.99999e-01,9.99999e-01,9.99999e-01,8.30345e-01,9.99999e-01
1.016514411e+00,8.33400e-01,9.99999e-01,9.99999e-01,9.99999e-01,8.33400e-01,9.99999e-01
1.021596983e+00,8.36371e-01,9.99999e-01,9.99999e-01,9.99958e-01,8.36405e-01,9.99999e-01
1.026704968e+00,8.37049e-01,9.99999e-01,9.99999e-01,9.97243e-01,8.39361e-01,9.99999e-01
1.031838492e+00,8.10788e-01,9.99999e-01,9.99999e-01,9.62622e-01,8.42270e-01,9.99999e-01
1.036997685e+00,1.72166e-01,9.99999e-01,9.99999e-01,2.03715e-01,8.45130e-01,9.99999e-01
1.042182673e+00,1.77490e-01,9.99999e-01,9.99999e-01,2.09318e-01,8.47944e-01,9.99999e-01
1.047393587e+00,1.81933e-01,9.99999e-01,9.99999e-01,2.13860e-01,8.50711e-01,9.99999e-01
1.052630555e+00,1.22623e-02,9.99999e-01,9.99999e-01,1.43682e-02,8.53432e-01,9.99999e-01
1.057893707e+00,2.72211e-02,9.99999e-01,9.99999e-01,3.17963e-02,8.56108e-01,9.99999e-01
1.063183176e+00,6.88038e-02,9.99999e-01,9.99999e-01,8.01218e-02,8.58739e-01,9.99999e-01
1.068499092e+00,1.53595e-01,9.99999e-01,9.99999e-01,1.78323e-01,8.61326e-01,9.99999e-01
1.073841587e+00,2.91748e-01,9.99999e-01,9.99999e-01,3.37722e-01,8.63870e-01,9.99999e-01
1.079210795e+00,4.36050e-01,9.99999e-01,9.99999e-01,5.03306e-01,8.66370e-01,9.99999e-01
1.084606849e+00,5.96672e-01,9.99999e-01,9.99999e-01,6.86754e-01,8.68829e-01,9.99999e-01
1.090029883e+00,7.16932e-01,9.99999e-01,9.99999e-01,8.22882e-01,8.71245e-01,9.99999e-01
1.095480033e+00,7.93737e-01,9.99999e-01,9.99999e-01,9.08559e-01,8.73620e-01,9.99999e-01
1.100957433e+00,8.36426e-01,9.99999e-01,9.99999e-01,9.54872e-01,8.75955e-01,9.99999e-01
1.106462220e+00,8.61662e-01,9.99999e-01,9.99999e-01,9.81112e-01,8.78249e-01,9.99999e-01
1.111994531e+00,8.74305e-01,9.99999e-01,9.99999e-01,9.92958e-01,8.80504e-01,9.99999e-01
1.117554504e+00,8.81205e-01,9.99999e-01,9.99999e-01,9.98282e-01,8.82720e-01,9.99999e-01
1.123142276e+00,8.84799e-01,9.99999e-01,9.99999e-01,9.99887e-01,8.84898e-01,9.99999e-01
1.128757988e+00,8.87038e-01,9.99999e-01,9.99999e-01,9.99999e-01,8.87038e-01,9.99999e-01
1.134401778e+00,8.89141e-01,9.99999e-01,9.99999e-01,9.99999e-01,8.89141e-01,9.99999e-01
1.140073787e+00,8.91207e-01,9.99999e-01,9.99999e-01,9.99999e-01,8.91207e-01,9.99999e-01
1.145774156e+00,8.93237e-01,9.99999e-01,9.99999e-01,9.99999e-01,8.93237e-01,9.99999e-01
1.151503026e+00,8.95231e-01,9.99999e-01,9.99999e-01,9.99999e-01,8.95231e-01,9.99999e-01
1.157260541e+00,8.97190e-01,9.99999e-01,9.99999e-01,9.99999e-01,8.97190e-01,9.99999e-01
1.163046844e+00,8.99115e-01,9.99999e-01,9.99999e-01,9.99999e-01,8.99115e-01,9.99999e-01
1.168862078e+00,9.01005e-01,9.99999e-01,9.99999e-01,9.99999e-01,9.01005e-01,9.99999e-01
1.174706389e+00,9.02862e-01,9.99999e-01,9.99999e-01,9.99999e-01,9.02862e-01,9.99999e-01
1.180579921e+00,9.04687e-01,9.99999e-01,9.99999e-01,9.99999e-01,9.04687e-01,9.99999e-01
1.186482820e+00,9.06473e-01,9.99999e-01,9.99999e-01,9.99993e-01,9.06478e-01,9.99999e-01
1.192415234e+00,8.99266e-01,9.99999e-01,9.99999e-01,9.90120e-01,9.08238e-01,9.99999e-01
1.198377311e+00,5.18439e-01,9.99999e-01,9.99999e-01,5.69733e-01,9.09966e-01,9.99999e-01
1.204369197e+00,9.95163e-09,9.99999e-01,9.99999e-01,1.09159e-08,9.11664e-01,9.99999e-01
1.210391043e+00,4.38521e-30,9.99999e-01,9.99999e-01,4.80133e-30,9.13331e-01,9.99999e-01
1.216442998e+00,2.89089e-26,9.99999e-01,9.99999e-01,3.15955e-26,9.14968e-01,9.99999e-01
1.222525213e+00,6.79141e-26,9.99999e-01,9.99999e-01,7.40955e-26,9.16575e-01,9.99999e-01
1.228637839e+00,5.03965e-20,9.99999e-01,9.99999e-01,5.48889e-20,9.18154e-01,9.99999e-01
