#,Wave/freq,Total,N2,O2,CO2,Rayleigh,CIA
4.000000000e-01,1.40885e-03,9.99999e-01,9.99999e-01,9.99999e-01,1.40885e-03,9.99999e-01
4.020000000e-01,1.60414e-03,9.99999e-01,9.99999e-01,9.99999e-01,1.60414e-03,9.99999e-01
4.040100000e-01,1.82156e-03,9.99999e-01,9.99999e-01,9.99999e-01,1.82156e-03,9.99999e-01
4.060300500e-01,2.06328e-03,9.99999e-01,9.99999e-01,9.99999e-01,2.06328e-03,9.99999e-01
4.080602003e-01,2.33132e-03,9.99999e-01,9.99999e-01,9.99999e-01,2.33132e-03,9.99999e-01
4.101005013e-01,2.62784e-03,9.99999e-01,9.99999e-01,9.99999e-01,2.62784e-03,9.99999e-01
4.121510038e-01,2.95507e-03,9.99999e-01,9.99999e-01,9.99999e-01,2.95507e-03,9.99999e-01
4.142117588e-01,3.31536e-03,9.99999e-01,9.99999e-01,9.99999e-01,3.31536e-03,9.99999e-01
4.162828176e-01,3.71113e-03,9.99999e-01,9.99999e-01,9.99999e-01,3.71113e-03,9.99999e-01
4.183642317e-01,4.14490e-03,9.99999e-01,9.99999e-01,9.99999e-01,4.14490e-03,9.99999e-01
4.204560528e-01,4.61928e-03,9.99999e-01,9.99999e-01,9.99999e-01,4.61928e-03,9.99999e-01
4.225583331e-01,5.13694e-03,9.99999e-01,9.99999e-01,9.99999e-01,5.13694e-03,9.99999e-01
4.246711247e-01,5.70064e-03,9.99999e-01,9.99999e-01,9.99999e-01,5.70064e-03,9.99999e-01
4.267944804e-01,6.31320e-03,9.99999e-01,9.99999e-01,9.99999e-01,6.31320e-03,9.99999e-01
4.289284528e-01,6.97751e-03,9.99999e-01,9.99999e-01,9.99999e-01,6.97751e-03,9.99999e-01
4.310730950e-01,7.69649e-03,9.99999e-01,9.99999e-01,9.99999e-01,7.69649e-03,9.99999e-01
4.332284605e-01,8.47312e-03,9.99999e-01,9.99999e-01,9.99999e-01,8.47312e-03,9.99999e-01
4.353946028e-01,9.31043e-03,9.99999e-01,9.99999e-01,9.99999e-01,9.31043e-03,9.99999e-01
4.375715758e-01,1.02115e-02,9.99999e-01,9.99999e-01,9.99999e-01,1.02115e-02,9.99999e-01
4.397594337e-01,1.11793e-02,9.99999e-01,9.99999e-01,9.99999e-01,1.11793e-02,9.99999e-01
4.419582309e-01,1.22169e-02,9.99999e-01,9.99999e-01,9.99999e-01,1.22169e-02,9.99999e-01
4.441680220e-01,1.33275e-02,9.99999e-01,9.99999e-01,9.99999e-01,1.33275e-02,9.99999e-01
4.463888621e-01,1.45141e-02,9.99999e-01,9.99999e-01,9.99999e-01,1.45141e-02,9.99999e-01
4.486208064e-01,1.57797e-02,9.99999e-01,9.99999e-01,9.99999e-01,1.57797e-02,9.99999e-01
4.508639105e-01,1.71274e-02,9.99999e-01,9.99999e-01,9.99999e-01,1.71274e-02,9.99999e-01
4.531182300e-01,1.85601e-02,9.99999e-01,9.99999e-01,9.99999e-01,1.85601e-02,9.99999e-01
4.553838212e-01,2.00807e-02,9.99999e-01,9.99999e-01,9.99999e-01,2.00807e-02,9.99999e-01
4.576607403e-01,2.16922e-02,9.99999e-01,9.99999e-01,9.99999e-01,2.16922e-02,9.99999e-01
4.599490440e-01,2.33973e-02,9.99999e-01,9.99999e-01,9.99999e-01,2.33973e-02,9.99999e-01
4.622487892e-01,2.51988e-02,9.99999e-01,9.99999e-01,9.99999e-01,2.51988e-02,9.99999e-01
4.645600332e-01,2.70992e-02,9.99999e-01,9.99999e-01,9.99999e-01,2.70992e-02,9.99999e-01
4.668828333e-01,2.91011e-02,9.99999e-01,9.99999e-01,9.99999e-01,2.91011e-02,9.99999e-01
4.692172475e-01,3.12069e-02,9.99999e-01,9.99999e-01,9.99999e-01,3.12069e-02,9.99999e-01
4.715633337e-01,3.34189e-02,9.99999e-01,9.99999e-01,9.99999e-01,3.34189e-02,9.99999e-01
4.739211504e-01,3.57394e-02,9.99999e-01,9.99999e-01,9.99999e-01,3.57394e-02,9.99999e-01
4.762907561e-01,3.81704e-02,9.99999e-01,9.99999e-01,9.99999e-01,3.81704e-02,9.99999e-01
4.786722099e-01,4.07137e-02,9.99999e-01,9.99999e-01,9.99999e-01,4.07137e-02,9.99999e-01
4.810655710e-01,4.33713e-02,9.99999e-01,9.99999e-01,9.99999e-01,4.33713e-02,9.99999e-01
4.834708988e-01,4.61446e-02,9.99999e-01,9.99999e-01,9.99999e-01,4.61446e-02,9.99999e-01
4.858882533e-01,4.90352e-02,9.99999e-01,9.99999e-01,9.99999e-01,4.90352e-02,9.99999e-01
4.883176946e-01,5.20443e-02,9.99999e-01,9.99999e-01,9.99999e-01,5.20443e-02,9.99999e-01
4.907592831e-01,5.51732e-02,9.99999e-01,9.99999e-01,9.99999e-01,5.51732e-02,9.99999e-01
4.932130795e-01,5.84228e-02,9.99999e-01,9.99999e-01,9.99999e-01,5.84228e-02,9.99999e-01
4.956791449e-01,6.17938e-02,9.99999e-01,9.99999e-01,9.99999e-01,6.17938e-02,9.99999e-01
4.981575406e-01,6.52870e-02,9.99999e-01,9.99999e-01,9.99999e-01,6.52870e-02,9.99999e-01
5.006483283e-01,6.89028e-02,9.99999e-01,9.99999e-01,9.99999e-01,6.89028e-02,9.99999e-01
5.031515699e-01,7.26415e-02,9.99999e-01,9.99999e-01,9.99999e-01,7.26415e-02,9.99999e-01
5.056673278e-01,7.65031e-02,9.99999e-01,9.99999e-01,9.99999e-01,7.65031e-02,9.99999e-01
5.081956644e-01,8.04876e-02,9.99999e-01,9.99999e-01,9.99999e-01,8.04876e-02,9.99999e-01
5.107366428e-01,8.45948e-02,9.99999e-01,9.99999e-01,9.99999e-01,8.45948e-02,9.99999e-01
5.132903260e-01,8.88242e-02,9.99999e-01,9.99999e-01,9.99999e-01,8.88242e-02,9.99999e-01
5.158567776e-01,9.31752e-02,9.99999e-01,9.99999e-01,9.99999e-01,9.31752e-02,9.99999e-01
5.184360615e-01,9.76471e-02,9.99999e-01,9.99999e-01,9.99999e-01,9.76471e-02,9.99999e-01
5.210282418e-01,1.02239e-01,9.99999e-01,9.99999e-01,9.99999e-01,1.02239e-01,9.99999e-01
5.236333830e-01,1.06949e-01,9.99999e-01,9.99999e-01,9.99999e-01,1.06949e-01,9.99999e-01
5.262515499e-01,1.11778e-01,9.99999e-01,9.99999e-01,9.99999e-01,1.11778e-01,9.99999e-01
5.288828077e-01,1.16722e-01,9.99999e-01,9.99999e-01,9.99999e-01,1.16722e-01,9.99999e-01
5.315272217e-01,1.21781e-01,9.99999e-01,9.99999e-01,9.99999e-01,1.21781e-01,9.99999e-01
5.341848578e-01,1.26952e-01,9.99999e-01,9.99999e-01,9.99999e-01,1.26952e-01,9.99999e-01
5.368557821e-01,1.32235e-01,9.99999e-01,9.99999e-01,9.99999e-01,1.32235e-01,9.99999e-01
5.395400610e-01,1.37626e-01,9.99999e-01,9.99999e-01,9.99999e-01,1.37626e-01,9.99999e-01
5.422377613e-01,1.43124e-01,9.99999e-01,9.99999e-01,9.99999e-01,1.43124e-01,9.99999e-01
5.449489501e-01,1.48727e-01,9.99999e-01,9.99999e-01,9.99999e-01,1.48727e-01,9.99999e-01
5.476736949e-01,1.54432e-01,9.99999e-01,9.99999e-01,9.99999e-01,1.54432e-01,9.99999e-01
5.504120634e-01,1.60237e-01,9.99999e-01,9.99999e-01,9.99999e-01,1.60237e-01,9.99999e-01
5.531641237e-01,1.66138e-01,9.99999e-01,9.99999e-01,9.99999e-01,1.66138e-01,9.99999e-01
5.559299443e-01,1.72134e-01,9.99999e-01,9.99999e-01,9.99999e-01,1.72134e-01,9.99999e-01
5.587095940e-01,1.78222e-01,9.99999e-01,9.99999e-01,9.99999e-01,1.78222e-01,9.99999e-01
5.615031420e-01,1.84398e-01,9.99999e-01,9.99999e-01,9.99999e-01,1.84398e-01,9.99999e-01
5.643106577e-01,1.90660e-01,9.99999e-01,9.99999e-01,9.99999e-01,1.90660e-01,9.99999e-01
5.671322110e-01,1.97005e-01,9.99999e-01,9.99999e-01,9.99999e-01,1.97005e-01,9.99999e-01
5.699678720e-01,2.03429e-01,9.99999e-01,9.99999e-01,9.99999e-01,2.03429e-01,9.99999e-01
5.728177114e-01,2.09929e-01,9.99999e-01,9.99999e-01,9.99999e-01,2.09929e-01,9.99999e-01
5.756818000e-01,2.16503e-01,9.99999e-01,9.99999e-01,9.99999e-01,2.16503e-01,9.99999e-01
5.785602090e-01,2.23146e-01,9.99999e-01,9.99999e-01,9.99999e-01,2.23146e-01,9.99999e-01
5.814530100e-01,2.29857e-01,9.99999e-01,9.99999e-01,9.99999e-01,2.29857e-01,9.99999e-01
5.843602750e-01,2.36630e-01,9.99999e-01,9.99999e-01,9.99999e-01,2.36630e-01,9.99999e-01
5.872820764e-01,2.43463e-01,9.99999e-01,9.99999e-01,9.99999e-01,2.43463e-01,9.99999e-01
5.902184868e-01,2.50353e-01,9.99999e-01,9.99999e-01,9.99999e-01,2.50353e-01,9.99999e-01
5.931695792e-01,2.57296e-01,9.99999e-01,9.99999e-01,9.99999e-01,2.57296e-01,9.99999e-01
5.961354271e-01,2.64288e-01,9.99999e-01,9.99999e-01,9.99999e-01,2.64288e-01,9.99999e-01
5.991161043e-01,2.71327e-01,9.99999e-01,9.99999e-01,9.99999e-01,2.71327e-01,9.99999e-01
6.021116848e-01,2.78409e-01,9.99999e-01,9.99999e-01,9.99999e-01,2.78409e-01,9.99999e-01
6.051222432e-01,2.85530e-01,9.99999e-01,9.99999e-01,9.99999e-01,2.85530e-01,9.99999e-01
6.081478544e-01,2.92688e-01,9.99999e-01,9.99999e-01,9.99999e-01,2.92688e-01,9.99999e-01
6.111885937e-01,2.99878e-01,9.99999e-01,9.99999e-01,9.99999e-01,2.99878e-01,9.99999e-01
6.142445367e-01,3.07097e-01,9.99999e-01,9.99999e-01,9.99999e-01,3.07097e-01,9.99999e-01
6.173157594e-01,3.14343e-01,9.99999e-01,9.99999e-01,9.99999e-01,3.14343e-01,9.99999e-01
6.204023382e-01,3.21611e-01,9.99999e-01,9.99999e-01,9.99999e-01,3.21611e-01,9.99999e-01
6.235043498e-01,3.28899e-01,9.99999e-01,9.99999e-01,9.99999e-01,3.28899e-01,9.99999e-01
6.266218716e-01,3.36203e-01,9.99999e-01,9.99999e-01,9.99999e-01,3.36203e-01,9.99999e-01
6.297549810e-01,3.43520e-01,9.99999e-01,9.99999e-01,9.99999e-01,3.43520e-01,9.99999e-01
6.329037559e-01,3.50848e-01,9.99999e-01,9.99999e-01,9.99999e-01,3.50848e-01,9.99999e-01
6.360682746e-01,3.58182e-01,9.99999e-01,9.99999e-01,9.99999e-01,3.58182e-01,9.99999e-01
6.392486160e-01,3.65520e-01,9.99999e-01,9.99999e-01,9.99999e-01,3.65520e-01,9.99999e-01
6.424448591e-01,3.72859e-01,9.99999e-01,9.99999e-01,9.99999e-01,3.72859e-01,9.99999e-01
6.456570834e-01,3.80196e-01,9.99999e-01,9.99999e-01,9.99999e-01,3.80196e-01,9.99999e-01
6.488853688e-01,3.87529e-01,9.99999e-01,9.99999e-01,9.99999e-01,3.87529e-01,9.99999e-01
6.521297956e-01,3.94853e-01,9.99999e-01,9.99999e-01,9.99999e-01,3.94853e-01,9.99999e-01
6.553904446e-01,4.02168e-01,9.99999e-01,9.99999e-01,9.99999e-01,4.02168e-01,9.99999e-01
6.586673968e-01,4.09469e-01,9.99999e-01,9.99999e-01,9.99999e-01,4.09469e-01,9.99999e-01
6.619607338e-01,4.16755e-01,9.99999e-01,9.99999e-01,9.99999e-01,4.16755e-01,9.99999e-01
6.652705375e-01,4.24022e-01,9.99999e-01,9.99999e-01,9.99999e-01,4.24022e-01,9.99999e-01
6.685968902e-01,4.31270e-01,9.99999e-01,9.99999e-01,9.99999e-01,4.31270e-01,9.99999e-01
6.719398746e-01,4.38494e-01,9.99999e-01,9.99999e-01,9.99999e-01,4.38494e-01,9.99999e-01
6.752995740e-01,4.45693e-01,9.99999e-01,9.99999e-01,9.99999e-01,4.45693e-01,9.99999e-01
6.786760719e-01,4.52864e-01,9.99999e-01,9.99999e-01,9.99999e-01,4.52864e-01,9.99999e-01
6.820694522e-01,4.60006e-01,9.99999e-01,9.99999e-01,9.99999e-01,4.60006e-01,9.99999e-01
6.854797995e-01,4.67116e-01,9.99999e-01,9.99999e-01,9.99999e-01,4.67116e-01,9.99999e-01
6.889071985e-01,4.74192e-01,9.99999e-01,9.99999e-01,9.99999e-01,4.74192e-01,9.99999e-01
6.923517345e-01,4.81233e-01,9.99999e-01,9.99999e-01,9.99999e-01,4.81233e-01,9.99999e-01
6.958134932e-01,4.88235e-01,9.99999e-01,9.99999e-01,9.99999e-01,4.88235e-01,9.99999e-01
6.992925606e-01,4.95199e-01,9.99999e-01,9.99999e-01,9.99999e-01,4.95199e-01,9.99999e-01
7.027890234e-01,5.02121e-01,9.99999e-01,9.99999e-01,9.99999e-01,5.02121e-01,9.99999e-01
7.063029686e-01,5.09001e-01,9.99999e-01,9.99999e-01,9.99999e-01,5.09001e-01,9.99999e-01
7.098344834e-01,5.15836e-01,9.99999e-01,9.99999e-01,9.99999e-01,5.15836e-01,9.99999e-01
7.133836558e-01,5.22625e-01,9.99999e-01,9.99999e-01,9.99999e-01,5.22625e-01,9.99999e-01
7.169505741e-01,5.29366e-01,9.99999e-01,9.99999e-01,9.99999e-01,5.29366e-01,9.99999e-01
7.205353270e-01,5.36059e-01,9.99999e-01,9.99999e-01,9.99999e-01,5.36059e-01,9.99999e-01
7.241380036e-01,5.42702e-01,9.99999e-01,9.99999e-01,9.99999e-01,5.42702e-01,9.99999e-01
7.277586936e-01,5.49294e-01,9.99999e-01,9.99999e-01,9.99999e-01,5.49294e-01,9.99999e-01
7.313974871e-01,5.55833e-01,9.99999e-01,9.99999e-01,9.99999e-01,5.55833e-01,9.99999e-01
7.350544745e-01,5.62318e-01,9.99999e-01,9.99999e-01,9.99999e-01,5.62318e-01,9.99999e-01
7.387297469e-01,5.68749e-01,9.99999e-01,9.99999e-01,9.99999e-01,5.68749e-01,9.99999e-01
7.424233956e-01,5.75124e-01,9.99999e-01,9.99999e-01,9.99999e-01,5.75124e-01,9.99999e-01
7.461355126e-01,5.81442e-01,9.99999e-01,9.99999e-01,9.99999e-01,5.81442e-01,9.99999e-01
7.498661902e-01,5.87704e-01,9.99999e-01,9.99999e-01,9.99999e-01,5.87704e-01,9.99999e-01
7.536155211e-01,5.93906e-01,9.99999e-01,9.99999e-01,9.99999e-01,5.93906e-01,9.99999e-01
7.573835987e-01,6.00050e-01,9.99999e-01,9.99999e-01,9.99999e-01,6.00050e-01,9.99999e-01
7.611705167e-01,6.06134e-01,9.99999e-01,9.99999e-01,9.99999e-01,6.06134e-01,9.99999e-01
7.649763693e-01,6.12158e-01,9.99999e-01,9.99999e-01,9.99999e-01,6.12158e-01,9.99999e-01
7.688012511e-01,6.18121e-01,9.99999e-01,9.99999e-01,9.99999e-01,6.18121e-01,9.99999e-01
7.726452574e-01,6.24023e-01,9.99999e-01,9.99999e-01,9.99999e-01,6.24023e-01,9.99999e-01
7.765084837e-01,6.29863e-01,9.99999e-01,9.99999e-01,9.99999e-01,6.29863e-01,9.99999e-01
7.803910261e-01,6.22115e-01,9.99999e-01,9.99999e-01,9.78722e-01,6.35640e-01,9.99999e-01
7.842929812e-01,5.82871e-01,9.99999e-01,9.99999e-01,9.08811e-01,6.41355e-01,9.99999e-01
7.882144461e-01,5.84144e-01,9.99999e-01,9.99999e-01,9.02840e-01,6.47006e-01,9.99999e-01
7.921555184e-01,6.15267e-01,9.99999e-01,9.99999e-01,9.42800e-01,6.52595e-01,9.99999e-01
7.961162960e-01,6.32605e-01,9.99999e-01,9.99999e-01,9.61230e-01,6.58120e-01,9.99999e-01
8.000968774e-01,6.49534e-01,9.99999e-01,9.99999e-01,9.78830e-01,6.63581e-01,9.99999e-01
8.040973618e-01,6.61588e-01,9.99999e-01,9.99999e-01,9.88953e-01,6.68978e-01,9.99999e-01
8.081178486e-01,6.70893e-01,9.99999e-01,9.99999e-01,9.94930e-01,6.74311e-01,9.99999e-01
8.121584379e-01,6.78509e-01,9.99999e-01,9.99999e-01,9.98422e-01,6.79580e-01,9.99999e-01
8.162192301e-01,6.84547e-01,9.99999e-01,9.99999e-01,9.99651e-01,6.84785e-01,9.99999e-01
8.203003262e-01,6.89922e-01,9.99999e-01,9.99999e-01,9.99993e-01,6.89926e-01,9.99999e-01
8.244018279e-01,6.95003e-01,9.99999e-01,9.99999e-01,9.99999e-01,6.95003e-01,9.99999e-01
8.285238370e-01,7.00016e-01,9.99999e-01,9.99999e-01,9.99999e-01,7.00016e-01,9.99999e-01
8.326664562e-01,7.04965e-01,9.99999e-01,9.99999e-01,9.99999e-01,7.04965e-01,9.99999e-01
8.368297885e-01,7.09850e-01,9.99999e-01,9.99999e-01,9.99999e-01,7.09850e-01,9.99999e-01
8.410139374e-01,7.14671e-01,9.99999e-01,9.99999e-01,9.99999e-01,7.14671e-01,9.99999e-01
8.452190071e-01,7.19429e-01,9.99999e-01,9.99999e-01,9.99999e-01,7.19429e-01,9.99999e-01
8.494451021e-01,7.24124e-01,9.99999e-01,9.99999e-01,9.99999e-01,7.24124e-01,9.99999e-01
8.536923276e-01,7.28755e-01,9.99999e-01,9.99999e-01,9.99999e-01,7.28755e-01,9.99999e-01
8.579607893e-01,7.33324e-01,9.99999e-01,9.99999e-01,9.99999e-01,7.33324e-01,9.99999e-01
8.622505932e-01,7.37831e-01,9.99999e-01,9.99999e-01,9.99999e-01,7.37831e-01,9.99999e-01
8.665618462e-01,7.02473e-01,9.99999e-01,9.99999e-01,9.46377e-01,7.42275e-01,9.99999e-01
8.708946554e-01,5.84585e-01,9.99999e-01,9.99999e-01,7.82934e-01,7.46658e-01,9.99999e-01
8.752491287e-01,6.17431e-01,9.99999e-01,9.99999e-01,8.22167e-01,7.50979e-01,9.99999e-01
8.796253743e-01,6.78731e-01,9.99999e-01,9.99999e-01,8.98696e-01,7.55239e-01,9.99999e-01
8.840235012e-01,7.18688e-01,9.99999e-01,9.99999e-01,9.46340e-01,7.59438e-01,9.99999e-01
8.884436187e-01,7.47142e-01,9.99999e-01,9.99999e-01,9.78475e-01,7.63578e-01,9.99999e-01
8.928858368e-01,7.60938e-01,9.99999e-01,9.99999e-01,9.91246e-01,7.67657e-01,9.99999e-01
8.973502660e-01,7.70025e-01,9.99999e-01,9.99999e-01,9.97858e-01,7.71677e-01,9.99999e-01
9.018370173e-01,7.75454e-01,9.99999e-01,9.99999e-01,9.99763e-01,7.75637e-01,9.99999e-01
9.063462024e-01,7.74906e-01,9.99999e-01,9.99999e-01,9.94055e-01,7.79540e-01,9.99999e-01
9.108779334e-01,7.72597e-01,9.99999e-01,9.99999e-01,9.86230e-01,7.83384e-01,9.99999e-01
9.154323231e-01,7.84599e-01,9.99999e-01,9.99999e-01,9.96732e-01,7.87171e-01,9.99999e-01
9.200094847e-01,7.53823e-01,9.99999e-01,9.99999e-01,9.53119e-01,7.90900e-01,9.99999e-01
9.246095321e-01,7.42408e-01,9.99999e-01,9.99999e-01,9.34347e-01,7.94574e-01,9.99999e-01
9.292325798e-01,7.56959e-01,9.99999e-01,9.99999e-01,9.48343e-01,7.98191e-01,9.99999e-01
9.338787427e-01,7.61513e-01,9.99999e-01,9.99999e-01,9.49809e-01,8.01753e-01,9.99999e-01
9.385481364e-01,7.75420e-01,9.99999e-01,9.99999e-01,9.62944e-01,8.05259e-01,9.99999e-01
9.432408771e-01,7.90216e-01,9.99999e-01,9.99999e-01,9.77128e-01,8.08712e-01,9.99999e-01
9.479570815e-01,8.02549e-01,9.99999e-01,9.99999e-01,9.88225e-01,8.12110e-01,9.99999e-01
9.526968669e-01,8.10807e-01,9.99999e-01,9.99999e-01,9.94298e-01,8.15456e-01,9.99999e-01
9.574603512e-01,8.16749e-01,9.99999e-01,9.99999e-01,9.97557e-01,8.18748e-01,9.99999e-01
9.622476530e-01,8.21362e-01,9.99999e-01,9.99999e-01,9.99237e-01,8.21989e-01,9.99999e-01
9.670588912e-01,8.24989e-01,9.99999e-01,9.99999e-01,9.99770e-01,8.25178e-01,9.99999e-01
9.718941857e-01,8.28302e-01,9.99999e-01,9.99999e-01,9.99983e-01,8.28316e-01,9.99999e-01
9.767536566e-01,8.31403e-01,9.99999e-01,9.99999e-01,9.99999e-01,8.31403e-01,9.99999e-01
9.816374249e-01,8.34441e-01,9.99999e-01,9.99999e-01,9.99999e-01,8.34441e-01,9.99999e-01
9.865456120e-01,8.37430e-01,9.99999e-01,9.99999e-01,9.99999e-01,8.37430e-01,9.99999e-01
9.914783401e-01,8.40369e-01,9.99999e-01,9.99999e-01,9.99999e-01,8.40369e-01,9.99999e-01
9.964357318e-01,8.43261e-01,9.99999e-01,9.99999e-01,9.99999e-01,8.43261e-01,9.99999e-01
1.001417910e+00,8.46106e-01,9.99999e-01,9.99999e-01,9.99999e-01,8.46106e-01,9.99999e-01
1.006425000e+00,8.48903e-01,9.99999e-01,9.99999e-01,9.99999e-01,8.48903e-01,9.99999e-01
1.011457125e+00,8.51654e-01,9.99999e-01,9.99999e-01,9.99999e-01,8.51654e-01,9.99999e-01
1.016514411e+00,8.54360e-01,9.99999e-01,9.99999e-01,9.99999e-01,8.54360e-01,9.99999e-01
1.021596983e+00,8.56995e-01,9.99999e-01,9.99999e-01,9.99970e-01,8.57020e-01,9.99999e-01
1.026704968e+00,8.57651e-01,9.99999e-01,9.99999e-01,9.97690e-01,8.59636e-01,9.99999e-01
1.031838492e+00,8.36174e-01,9.99999e-01,9.99999e-01,9.69805e-01,8.62208e-01,9.99999e-01
1.036997685e+00,2.02385e-01,9.99999e-01,9.99999e-01,2.34042e-01,8.64737e-01,9.99999e-01
1.042182673e+00,2.20559e-01,9.99999e-01,9.99999e-01,2.54328e-01,8.67223e-01,9.99999e-01
1.047393587e+00,2.20220e-01,9.99999e-01,9.99999e-01,2.53223e-01,8.69666e-01,9.99999e-01
1.052630555e+00,2.03584e-02,9.99999e-01,9.99999e-01,2.33450e-02,8.72068e-01,9.99999e-01
1.057893707e+00,4.18223e-02,9.99999e-01,9.99999e-01,4.78280e-02,8.74430e-01,9.99999e-01
1.063183176e+00,9.57843e-02,9.99999e-01,9.99999e-01,1.09249e-01,8.76750e-01,9.99999e-01
1.068499092e+00,1.97214e-01,9.99999e-01,9.99999e-01,2.24353e-01,8.79031e-01,9.99999e-01
1.073841587e+00,3.42617e-01,9.99999e-01,9.99999e-01,3.88775e-01,8.81273e-01,9.99999e-01
1.079210795e+00,4.86535e-01,9.99999e-01,9.99999e-01,5.50706e-01,8.83475e-01,9.99999e-01
1.084606849e+00,6.38826e-01,9.99999e-01,9.99999e-01,7.21315e-01,8.85640e-01,9.99999e-01
1.090029883e+00,7.49644e-01,9.99999e-01,9.99999e-01,8.44414e-01,8.87767e-01,9.99999e-01
1.095480033e+00,8.18702e-01,9.99999e-01,9.99999e-01,9.20037e-01,8.89857e-01,9.99999e-01
1.100957433e+00,8.56855e-01,9.99999e-01,9.99999e-01,9.60695e-01,8.91911e-01,9.99999e-01
1.106462220e+00,8.79222e-01,9.99999e-01,9.99999e-01,9.83548e-01,8.93928e-01,9.99999e-01
1.111994531e+00,8.90421e-01,9.99999e-01,9.99999e-01,9.93872e-01,8.95910e-01,9.99999e-01
1.117554504e+00,8.96508e-01,9.99999e-01,9.99999e-01,9.98496e-01,8.97857e-01,9.99999e-01
1.123142276e+00,8.99681e-01,9.99999e-01,9.99999e-01,9.99900e-01,8.99770e-01,9.99999e-01
1.128757988e+00,9.01649e-01,9.99999e-01,9.99999e-01,9.99999e-01,9.01649e-01,9.99999e-01
1.134401778e+00,9.03495e-01,9.99999e-01,9.99999e-01,9.99999e-01,9.03495e-01,9.99999e-01
1.140073787e+00,9.05308e-01,9.99999e-01,9.99999e-01,9.99999e-01,9.05308e-01,9.99999e-01
1.145774156e+00,9.07089e-01,9.99999e-01,9.99999e-01,9.99999e-01,9.07089e-01,9.99999e-01
1.151503026e+00,9.08837e-01,9.99999e-01,9.99999e-01,9.99999e-01,9.08837e-01,9.99999e-01
1.157260541e+00,9.10555e-01,9.99999e-01,9.99999e-01,9.99999e-01,9.10555e-01,9.99999e-01
1.163046844e+00,9.12242e-01,9.99999e-01,9.99999e-01,9.99999e-01,9.12242e-01,9.99999e-01
1.168862078e+00,9.13898e-01,9.99999e-01,9.99999e-01,9.99999e-01,9.13898e-01,9.99999e-01
1.174706389e+00,9.15525e-01,9.99999e-01,9.99999e-01,9.99999e-01,9.15525e-01,9.99999e-01
1.180579921e+00,9.17122e-01,9.99999e-01,9.99999e-01,9.99999e-01,9.17122e-01,9.99999e-01
1.186482820e+00,9.18688e-01,9.99999e-01,9.99999e-01,9.99996e-01,9.18691e-01,9.99999e-01
1.192415234e+00,9.12646e-01,9.99999e-01,9.99999e-01,9.91756e-01,9.20231e-01,9.99999e-01
1.198377311e+00,5.31077e-01,9.99999e-01,9.99999e-01,5.76165e-01,9.21744e-01,9.99999e-01
1.204369197e+00,7.63177e-08,9.99999e-01,9.99999e-01,8.26638e-08,9.23228e-01,9.99999e-01
1.210391043e+00,2.76572e-26,9.99999e-01,9.99999e-01,2.99098e-26,9.24686e-01,9.99999e-01
1.216442998e+00,5.49682e-23,9.99999e-01,9.99999e-01,5.93533e-23,9.26117e-01,9.99999e-01
1.222525213e+00,1.15922e-22,9.99999e-01,9.99999e-01,1.24980e-22,9.27522e-01,9.99999e-01
1.228637839e+00,1.70071e-17,9.99999e-01,9.99999e-01,1.83088e-17,9.28902e-01,9.99999e-01
