#,Wave/freq,Total,N2,O2,CO2,Rayleigh,CIA
4.000000000e-01,1.10026e-04,9.99999e-01,9.99999e-01,9.99999e-01,1.10026e-04,9.99999e-01
4.020000000e-01,1.31754e-04,9.99999e-01,9.99999e-01,9.99999e-01,1.31754e-04,9.99999e-01
4.040100000e-01,1.57184e-04,9.99999e-01,9.99999e-01,9.99999e-01,1.57184e-04,9.99999e-01
4.060300500e-01,1.86870e-04,9.99999e-01,9.99999e-01,9.99999e-01,1.86870e-04,9.99999e-01
4.080602003e-01,2.21404e-04,9.99999e-01,9.99999e-01,9.99999e-01,2.21404e-04,9.99999e-01
4.101005013e-01,2.61443e-04,9.99999e-01,9.99999e-01,9.99999e-01,2.61443e-04,9.99999e-01
4.121510038e-01,3.07711e-04,9.99999e-01,9.99999e-01,9.99999e-01,3.07711e-04,9.99999e-01
4.142117588e-01,3.61003e-04,9.99999e-01,9.99999e-01,9.99999e-01,3.61003e-04,9.99999e-01
4.162828176e-01,4.22191e-04,9.99999e-01,9.99999e-01,9.99999e-01,4.22191e-04,9.99999e-01
4.183642317e-01,4.92224e-04,9.99999e-01,9.99999e-01,9.99999e-01,4.92224e-04,9.99999e-01
4.204560528e-01,5.72139e-04,9.99999e-01,9.99999e-01,9.99999e-01,5.72139e-04,9.99999e-01
4.225583331e-01,6.63053e-04,9.99999e-01,9.99999e-01,9.99999e-01,6.63053e-04,9.99999e-01
4.246711247e-01,7.66180e-04,9.99999e-01,9.99999e-01,9.99999e-01,7.66180e-04,9.99999e-01
4.267944804e-01,8.82822e-04,9.99999e-01,9.99999e-01,9.99999e-01,8.82822e-04,9.99999e-01
4.289284528e-01,1.01438e-03,9.99999e-01,9.99999e-01,9.99999e-01,1.01438e-03,9.99999e-01
4.310730950e-01,1.16234e-03,9.99999e-01,9.99999e-01,9.99999e-01,1.16234e-03,9.99999e-01
4.332284605e-01,1.32832e-03,9.99999e-01,9.99999e-01,9.99999e-01,1.32832e-03,9.99999e-01
4.353946028e-01,1.51399e-03,9.99999e-01,9.99999e-01,9.99999e-01,1.51399e-03,9.99999e-01
4.375715758e-01,1.72117e-03,9.99999e-01,9.99999e-01,9.99999e-01,1.72117e-03,9.99999e-01
4.397594337e-01,1.95174e-03,9.99999e-01,9.99999e-01,9.99999e-01,1.95174e-03,9.99999e-01
4.419582309e-01,2.20772e-03,9.99999e-01,9.99999e-01,9.99999e-01,2.20772e-03,9.99999e-01
4.441680220e-01,2.49119e-03,9.99999e-01,9.99999e-01,9.99999e-01,2.49119e-03,9.99999e-01
4.463888621e-01,2.80436e-03,9.99999e-01,9.99999e-01,9.99999e-01,2.80436e-03,9.99999e-01
4.486208064e-01,3.14953e-03,9.99999e-01,9.99999e-01,9.99999e-01,3.14953e-03,9.99999e-01
4.508639105e-01,3.52908e-03,9.99999e-01,9.99999e-01,9.99999e-01,3.52908e-03,9.99999e-01
4.531182300e-01,3.94549e-03,9.99999e-01,9.99999e-01,9.99999e-01,3.94549e-03,9.99999e-01
4.553838212e-01,4.40133e-03,9.99999e-01,9.99999e-01,9.99999e-01,4.40133e-03,9.99999e-01
4.576607403e-01,4.89925e-03,9.99999e-01,9.99999e-01,9.99999e-01,4.89925e-03,9.99999e-01
4.599490440e-01,5.44196e-03,9.99999e-01,9.99999e-01,9.99999e-01,5.44196e-03,9.99999e-01
4.622487892e-01,6.03225e-03,9.99999e-01,9.99999e-01,9.99999e-01,6.03225e-03,9.99999e-01
4.645600332e-01,6.67299e-03,9.99999e-01,9.99999e-01,9.99999e-01,6.67299e-03,9.99999e-01
4.668828333e-01,7.36708e-03,9.99999e-01,9.99999e-01,9.99999e-01,7.36708e-03,9.99999e-01
4.692172475e-01,8.11749e-03,9.99999e-01,9.99999e-01,9.99999e-01,8.11749e-03,9.99999e-01
4.715633337e-01,8.92721e-03,9.99999e-01,9.99999e-01,9.99999e-01,8.92721e-03,9.99999e-01
4.739211504e-01,9.79928e-03,9.99999e-01,9.99999e-01,9.99999e-01,9.79928e-03,9.99999e-01
4.762907561e-01,1.07368e-02,9.99999e-01,9.99999e-01,9.99999e-01,1.07368e-02,9.99999e-01
4.786722099e-01,1.17427e-02,9.99999e-01,9.99999e-01,9.99999e-01,1.17427e-02,9.99999e-01
4.810655710e-01,1.28202e-02,9.99999e-01,9.99999e-01,9.99999e-01,1.28202e-02,9.99999e-01
4.834708988e-01,1.39723e-02,9.99999e-01,9.99999e-01,9.99999e-01,1.39723e-02,9.99999e-01
4.858882533e-01,1.52021e-02,9.99999e-01,9.99999e-01,9.99999e-01,1.52021e-02,9.99999e-01
4.883176946e-01,1.65126e-02,9.99999e-01,9.99999e-01,9.99999e-01,1.65126e-02,9.99999e-01
4.907592831e-01,1.79068e-02,9.99999e-01,9.99999e-01,9.99999e-01,1.79068e-02,9.99999e-01
4.932130795e-01,1.93877e-02,9.99999e-01,9.99999e-01,9.99999e-01,1.93877e-02,9.99999e-01
4.956791449e-01,2.09581e-02,9.99999e-01,9.99999e-01,9.99999e-01,2.09581e-02,9.99999e-01
4.981575406e-01,2.26209e-02,9.99999e-01,9.99999e-01,9.99999e-01,2.26209e-02,9.99999e-01
5.006483283e-01,2.43788e-02,9.99999e-01,9.99999e-01,9.99999e-01,2.43788e-02,9.99999e-01
5.031515699e-01,2.62345e-02,9.99999e-01,9.99999e-01,9.99999e-01,2.62345e-02,9.99999e-01
5.056673278e-01,2.81905e-02,9.99999e-01,9.99999e-01,9.99999e-01,2.81905e-02,9.99999e-01
5.081956644e-01,3.02495e-02,9.99999e-01,9.99999e-01,9.99999e-01,3.02495e-02,9.99999e-01
5.107366428e-01,3.24136e-02,9.99999e-01,9.99999e-01,9.99999e-01,3.24136e-02,9.99999e-01
5.132903260e-01,3.46852e-02,9.99999e-01,9.99999e-01,9.99999e-01,3.46852e-02,9.99999e-01
5.158567776e-01,3.70663e-02,9.99999e-01,9.99999e-01,9.99999e-01,3.70663e-02,9.99999e-01
5.184360615e-01,3.95591e-02,9.99999e-01,9.99999e-01,9.99999e-01,3.95591e-02,9.99999e-01
5.210282418e-01,4.21652e-02,9.99999e-01,9.99999e-01,9.99999e-01,4.21652e-02,9.99999e-01
5.236333830e-01,4.48864e-02,9.99999e-01,9.99999e-01,9.99999e-01,4.48864e-02,9.99999e-01
5.262515499e-01,4.77242e-02,9.99999e-01,9.99999e-01,9.99999e-01,4.77242e-02,9.99999e-01
5.288828077e-01,5.06800e-02,9.99999e-01,9.99999e-01,9.99999e-01,5.06800e-02,9.99999e-01
5.315272217e-01,5.37551e-02,9.99999e-01,9.99999e-01,9.99999e-01,5.37551e-02,9.99999e-01
5.341848578e-01,5.69504e-02,9.99999e-01,9.99999e-01,9.99999e-01,5.69504e-02,9.99999e-01
5.368557821e-01,6.02669e-02,9.99999e-01,9.99999e-01,9.99999e-01,6.02669e-02,9.99999e-01
5.395400610e-01,6.37052e-02,9.99999e-01,9.99999e-01,9.99999e-01,6.37052e-02,9.99999e-01
5.422377613e-01,6.72660e-02,9.99999e-01,9.99999e-01,9.99999e-01,6.72660e-02,9.99999e-01
5.449489501e-01,7.09495e-02,9.99999e-01,9.99999e-01,9.99999e-01,7.09495e-02,9.99999e-01
5.476736949e-01,7.47560e-02,9.99999e-01,9.99999e-01,9.99999e-01,7.47560e-02,9.99999e-01
5.504120634e-01,7.86854e-02,9.99999e-01,9.99999e-01,9.99999e-01,7.86854e-02,9.99999e-01
5.531641237e-01,8.27377e-02,9.99999e-01,9.99999e-01,9.99999e-01,8.27377e-02,9.99999e-01
5.559299443e-01,8.69123e-02,9.99999e-01,9.99999e-01,9.99999e-01,8.69123e-02,9.99999e-01
5.587095940e-01,9.12089e-02,9.99999e-01,9.99999e-01,9.99999e-01,9.12089e-02,9.99999e-01
5.615031420e-01,9.56266e-02,9.99999e-01,9.99999e-01,9.99999e-01,9.56266e-02,9.99999e-01
5.643106577e-01,1.00165e-01,9.99999e-01,9.99999e-01,9.99999e-01,1.00165e-01,9.99999e-01
5.671322110e-01,1.04822e-01,9.99999e-01,9.99999e-01,9.99999e-01,1.04822e-01,9.99999e-01
5.699678720e-01,1.09598e-01,9.99999e-01,9.99999e-01,9.99999e-01,1.09598e-01,9.99999e-01
5.728177114e-01,1.14490e-01,9.99999e-01,9.99999e-01,9.99999e-01,1.14490e-01,9.99999e-01
5.756818000e-01,1.19498e-01,9.99999e-01,9.99999e-01,9.99999e-01,1.19498e-01,9.99999e-01
5.785602090e-01,1.24619e-01,9.99999e-01,9.99999e-01,9.99999e-01,1.24619e-01,9.99999e-01
5.814530100e-01,1.29852e-01,9.99999e-01,9.99999e-01,9.99999e-01,1.29852e-01,9.99999e-01
5.843602750e-01,1.35195e-01,9.99999e-01,9.99999e-01,9.99999e-01,1.35195e-01,9.99999e-01
5.872820764e-01,1.40646e-01,9.99999e-01,9.99999e-01,9.99999e-01,1.40646e-01,9.99999e-01
5.902184868e-01,1.46202e-01,9.99999e-01,9.99999e-01,9.99999e-01,1.46202e-01,9.99999e-01
5.931695792e-01,1.51861e-01,9.99999e-01,9.99999e-01,9.99999e-01,1.51861e-01,9.99999e-01
5.961354271e-01,1.57621e-01,9.99999e-01,9.99999e-01,9.99999e-01,1.57621e-01,9.99999e-01
5.991161043e-01,1.63480e-01,9.99999e-01,9.99999e-01,9.99999e-01,1.63480e-01,9.99999e-01
6.021116848e-01,1.69434e-01,9.99999e-01,9.99999e-01,9.99999e-01,1.69434e-01,9.99999e-01
6.051222432e-01,1.75481e-01,9.99999e-01,9.99999e-01,9.99999e-01,1.75481e-01,9.99999e-01
6.081478544e-01,1.81618e-01,9.99999e-01,9.99999e-01,9.99999e-01,1.81618e-01,9.99999e-01
6.111885937e-01,1.87841e-01,9.99999e-01,9.99999e-01,9.99999e-01,1.87841e-01,9.99999e-01
6.142445367e-01,1.94149e-01,9.99999e-01,9.99999e-01,9.99999e-01,1.94149e-01,9.99999e-01
6.173157594e-01,2.00538e-01,9.99999e-01,9.99999e-01,9.99999e-01,2.00538e-01,9.99999e-01
6.204023382e-01,2.07005e-01,9.99999e-01,9.99999e-01,9.99999e-01,2.07005e-01,9.99999e-01
6.235043498e-01,2.13546e-01,9.99999e-01,9.99999e-01,9.99999e-01,2.13546e-01,9.99999e-01
6.266218716e-01,2.20158e-01,9.99999e-01,9.99999e-01,9.99999e-01,2.20158e-01,9.99999e-01
6.297549810e-01,2.26839e-01,9.99999e-01,9.99999e-01,9.99999e-01,2.26839e-01,9.99999e-01
6.329037559e-01,2.33585e-01,9.99999e-01,9.99999e-01,9.99999e-01,2.33585e-01,9.99999e-01
6.360682746e-01,2.40391e-01,9.99999e-01,9.99999e-01,9.99999e-01,2.40391e-01,9.99999e-01
6.392486160e-01,2.47256e-01,9.99999e-01,9.99999e-01,9.99999e-01,2.47256e-01,9.99999e-01
6.424448591e-01,2.54176e-01,9.99999e-01,9.99999e-01,9.99999e-01,2.54176e-01,9.99999e-01
6.456570834e-01,2.61146e-01,9.99999e-01,9.99999e-01,9.99999e-01,2.61146e-01,9.99999e-01
6.488853688e-01,2.68165e-01,9.99999e-01,9.99999e-01,9.99999e-01,2.68165e-01,9.99999e-01
6.521297956e-01,2.75228e-01,9.99999e-01,9.99999e-01,9.99999e-01,2.75228e-01,9.99999e-01
6.553904446e-01,2.82332e-01,9.99999e-01,9.99999e-01,9.99999e-01,2.82332e-01,9.99999e-01
6.586673968e-01,2.89474e-01,9.99999e-01,9.99999e-01,9.99999e-01,2.89474e-01,9.99999e-01
6.619607338e-01,2.96649e-01,9.99999e-01,9.99999e-01,9.99999e-01,2.96649e-01,9.99999e-01
6.652705375e-01,3.03856e-01,9.99999e-01,9.99999e-01,9.99999e-01,3.03856e-01,9.99999e-01
6.685968902e-01,3.11090e-01,9.99999e-01,9.99999e-01,9.99999e-01,3.11090e-01,9.99999e-01
6.719398746e-01,3.18349e-01,9.99999e-01,9.99999e-01,9.99999e-01,3.18349e-01,9.99999e-01
6.752995740e-01,3.25628e-01,9.99999e-01,9.99999e-01,9.99999e-01,3.25628e-01,9.99999e-01
6.786760719e-01,3.32926e-01,9.99999e-01,9.99999e-01,9.99999e-01,3.32926e-01,9.99999e-01
6.820694522e-01,3.40237e-01,9.99999e-01,9.99999e-01,9.99999e-01,3.40237e-01,9.99999e-01
6.854797995e-01,3.47560e-01,9.99999e-01,9.99999e-01,9.99999e-01,3.47560e-01,9.99999e-01
6.889071985e-01,3.54892e-01,9.99999e-01,9.99999e-01,9.99999e-01,3.54892e-01,9.99999e-01
6.923517345e-01,3.62229e-01,9.99999e-01,9.99999e-01,9.99999e-01,3.62229e-01,9.99999e-01
6.958134932e-01,3.69568e-01,9.99999e-01,9.99999e-01,9.99999e-01,3.69568e-01,9.99999e-01
6.992925606e-01,3.76906e-01,9.99999e-01,9.99999e-01,9.99999e-01,3.76906e-01,9.99999e-01
7.027890234e-01,3.84241e-01,9.99999e-01,9.99999e-01,9.99999e-01,3.84241e-01,9.99999e-01
7.063029686e-01,3.91569e-01,9.99999e-01,9.99999e-01,9.99999e-01,3.91569e-01,9.99999e-01
7.098344834e-01,3.98889e-01,9.99999e-01,9.99999e-01,9.99999e-01,3.98889e-01,9.99999e-01
7.133836558e-01,4.06196e-01,9.99999e-01,9.99999e-01,9.99999e-01,4.06196e-01,9.99999e-01
7.169505741e-01,4.13489e-01,9.99999e-01,9.99999e-01,9.99999e-01,4.13489e-01,9.99999e-01
7.205353270e-01,4.20765e-01,9.99999e-01,9.99999e-01,9.99999e-01,4.20765e-01,9.99999e-01
7.241380036e-01,4.28022e-01,9.99999e-01,9.99999e-01,9.99999e-01,4.28022e-01,9.99999e-01
7.277586936e-01,4.35257e-01,9.99999e-01,9.99999e-01,9.99999e-01,4.35257e-01,9.99999e-01
7.313974871e-01,4.42467e-01,9.99999e-01,9.99999e-01,9.99999e-01,4.42467e-01,9.99999e-01
7.350544745e-01,4.49651e-01,9.99999e-01,9.99999e-01,9.99999e-01,4.49651e-01,9.99999e-01
7.387297469e-01,4.56807e-01,9.99999e-01,9.99999e-01,9.99999e-01,4.56807e-01,9.99999e-01
7.424233956e-01,4.63931e-01,9.99999e-01,9.99999e-01,9.99999e-01,4.63931e-01,9.99999e-01
7.461355126e-01,4.71023e-01,9.99999e-01,9.99999e-01,9.99999e-01,4.71023e-01,9.99999e-01
7.498661902e-01,4.78080e-01,9.99999e-01,9.99999e-01,9.99999e-01,4.78080e-01,9.99999e-01
7.536155211e-01,4.85100e-01,9.99999e-01,9.99999e-01,9.99999e-01,4.85100e-01,9.99999e-01
7.573835987e-01,4.92081e-01,9.99999e-01,9.99999e-01,9.99999e-01,4.92081e-01,9.99999e-01
7.611705167e-01,4.99022e-01,9.99999e-01,9.99999e-01,9.99999e-01,4.99022e-01,9.99999e-01
7.649763693e-01,5.05921e-01,9.99999e-01,9.99999e-01,9.99999e-01,5.05921e-01,9.99999e-01
7.688012511e-01,5.12776e-01,9.99999e-01,9.99999e-01,9.99999e-01,5.12776e-01,9.99999e-01
7.726452574e-01,5.19586e-01,9.99999e-01,9.99999e-01,9.99999e-01,5.19586e-01,9.99999e-01
7.765084837e-01,5.26349e-01,9.99999e-01,9.99999e-01,9.99999e-01,5.26349e-01,9.99999e-01
7.803910261e-01,5.17398e-01,9.99999e-01,9.99999e-01,9.70611e-01,5.33064e-01,9.99999e-01
7.842929812e-01,4.73295e-01,9.99999e-01,9.99999e-01,8.76911e-01,5.39729e-01,9.99999e-01
7.882144461e-01,4.74655e-01,9.99999e-01,9.99999e-01,8.68783e-01,5.46344e-01,9.99999e-01
7.921555184e-01,5.09539e-01,9.99999e-01,9.99999e-01,9.21563e-01,5.52907e-01,9.99999e-01
7.961162960e-01,5.29641e-01,9.99999e-01,9.99999e-01,9.46774e-01,5.59416e-01,9.99999e-01
8.000968774e-01,5.49352e-01,9.99999e-01,9.99999e-01,9.70805e-01,5.65872e-01,9.99999e-01
8.040973618e-01,5.63553e-01,9.99999e-01,9.99999e-01,9.84764e-01,5.72272e-01,9.99999e-01
8.081178486e-01,5.74556e-01,9.99999e-01,9.99999e-01,9.92983e-01,5.78616e-01,9.99999e-01
8.121584379e-01,5.83631e-01,9.99999e-01,9.99999e-01,9.97825e-01,5.84903e-01,9.99999e-01
8.162192301e-01,5.90848e-01,9.99999e-01,9.99999e-01,9.99519e-01,5.91132e-01,9.99999e-01
8.203003262e-01,5.97298e-01,9.99999e-01,9.99999e-01,9.99992e-01,5.97302e-01,9.99999e-01
8.244018279e-01,6.03413e-01,9.99999e-01,9.99999e-01,9.99999e-01,6.03413e-01,9.99999e-01
8.285238370e-01,6.09464e-01,9.99999e-01,9.99999e-01,9.99999e-01,6.09464e-01,9.99999e-01
8.326664562e-01,6.15455e-01,9.99999e-01,9.99999e-01,9.99999e-01,6.15455e-01,9.99999e-01
8.368297885e-01,6.21384e-01,9.99999e-01,9.99999e-01,9.99999e-01,6.21384e-01,9.99999e-01
8.410139374e-01,6.27251e-01,9.99999e-01,9.99999e-01,9.99999e-01,6.27251e-01,9.99999e-01
8.452190071e-01,6.33057e-01,9.99999e-01,9.99999e-01,9.99999e-01,6.33057e-01,9.99999e-01
8.494451021e-01,6.38799e-01,9.99999e-01,9.99999e-01,9.99999e-01,6.38799e-01,9.99999e-01
8.536923276e-01,6.44479e-01,9.99999e-01,9.99999e-01,9.99999e-01,6.44479e-01,9.99999e-01
8.579607893e-01,6.50096e-01,9.99999e-01,9.99999e-01,9.99999e-01,6.50096e-01,9.99999e-01
8.622505932e-01,6.55650e-01,9.99999e-01,9.99999e-01,9.99999e-01,6.55650e-01,9.99999e-01
8.665618462e-01,6.16288e-01,9.99999e-01,9.99999e-01,9.32160e-01,6.61139e-01,9.99999e-01
8.708946554e-01,4.76995e-01,9.99999e-01,9.99999e-01,7.15601e-01,6.66565e-01,9.99999e-01
8.752491287e-01,5.13506e-01,9.99999e-01,9.99999e-01,7.64228e-01,6.71927e-01,9.99999e-01
8.796253743e-01,5.84453e-01,9.99999e-01,9.99999e-01,8.63011e-01,6.77225e-01,9.99999e-01
8.840235012e-01,6.32338e-01,9.99999e-01,9.99999e-01,9.26558e-01,6.82459e-01,9.99999e-01
8.884436187e-01,6.67269e-01,9.99999e-01,9.99999e-01,9.70391e-01,6.87628e-01,9.99999e-01
8.928858368e-01,6.84359e-01,9.99999e-01,9.99999e-01,9.87909e-01,6.92734e-01,9.99999e-01
8.973502660e-01,6.95717e-01,9.99999e-01,9.99999e-01,9.97048e-01,6.97775e-01,9.99999e-01
9.018370173e-01,7.02524e-01,9.99999e-01,9.99999e-01,9.99674e-01,7.02753e-01,9.99999e-01
9.063462024e-01,7.01788e-01,9.99999e-01,9.99999e-01,9.91692e-01,7.07667e-01,9.99999e-01
9.108779334e-01,6.98970e-01,9.99999e-01,9.99999e-01,9.80986e-01,7.12517e-01,9.99999e-01
9.154323231e-01,7.14076e-01,9.99999e-01,9.99999e-01,9.95500e-01,7.17303e-01,9.99999e-01
9.200094847e-01,6.75942e-01,9.99999e-01,9.99999e-01,9.36174e-01,7.22026e-01,9.99999e-01
9.246095321e-01,6.61495e-01,9.99999e-01,9.99999e-01,9.10289e-01,7.26686e-01,9.99999e-01
9.292325798e-01,6.79365e-01,9.99999e-01,9.99999e-01,9.29003e-01,7.31283e-01,9.99999e-01
9.338787427e-01,6.85228e-01,9.99999e-01,9.99999e-01,9.31246e-01,7.35818e-01,9.99999e-01
9.385481364e-01,7.02567e-01,9.99999e-01,9.99999e-01,9.49042e-01,7.40290e-01,9.99999e-01
9.432408771e-01,7.21237e-01,9.99999e-01,9.99999e-01,9.68493e-01,7.44700e-01,9.99999e-01
9.479570815e-01,7.36854e-01,9.99999e-01,9.99999e-01,9.83719e-01,7.49049e-01,9.99999e-01
9.526968669e-01,7.47397e-01,9.99999e-01,9.99999e-01,9.92115e-01,7.53336e-01,9.99999e-01
9.574603512e-01,7.55004e-01,9.99999e-01,9.99999e-01,9.96621e-01,7.57563e-01,9.99999e-01
9.622476530e-01,7.60925e-01,9.99999e-01,9.99999e-01,9.98944e-01,7.61729e-01,9.99999e-01
9.670588912e-01,7.65593e-01,9.99999e-01,9.99999e-01,9.99683e-01,7.65835e-01,9.99999e-01
9.718941857e-01,7.69864e-01,9.99999e-01,9.99999e-01,9.99977e-01,7.69881e-01,9.99999e-01
9.767536566e-01,7.73868e-01,9.99999e-01,9.99999e-01,9.99999e-01,7.73868e-01,9.99999e-01
9.816374249e-01,7.77797e-01,9.99999e-01,9.99999e-01,9.99999e-01,7.77797e-01,9.99999e-01
9.865456120e-01,7.81667e-01,9.99999e-01,9.99999e-01,9.99999e-01,7.81667e-01,9.99999e-01
9.914783401e-01,7.85480e-01,9.99999e-01,9.99999e-01,9.99999e-01,7.85480e-01,9.99999e-01
9.964357318e-01,7.89235e-01,9.99999e-01,9.99999e-01,9.99999e-01,7.89235e-01,9.99999e-01
1.001417910e+00,7.92933e-01,9.99999e-01,9.99999e-01,9.99999e-01,7.92933e-01,9.99999e-01
1.006425000e+00,7.96576e-01,9.99999e-01,9.99999e-01,9.99999e-01,7.96576e-01,9.99999e-01
1.011457125e+00,8.00162e-01,9.99999e-01,9.99999e-01,9.99999e-01,8.00162e-01,9.99999e-01
1.016514411e+00,8.03693e-01,9.99999e-01,9.99999e-01,9.99999e-01,8.03693e-01,9.99999e-01
1.021596983e+00,8.07135e-01,9.99999e-01,9.99999e-01,9.99956e-01,8.07170e-01,9.99999e-01
1.026704968e+00,8.07967e-01,9.99999e-01,9.99999e-01,9.96760e-01,8.10593e-01,9.99999e-01
1.031838492e+00,7.81658e-01,9.99999e-01,9.99999e-01,9.60312e-01,8.13962e-01,9.99999e-01
1.036997685e+00,1.42660e-01,9.99999e-01,9.99999e-01,1.74555e-01,8.17278e-01,9.99999e-01
1.042182673e+00,1.28166e-01,9.99999e-01,9.99999e-01,1.56196e-01,8.20542e-01,9.99999e-01
1.047393587e+00,1.42712e-01,9.99999e-01,9.99999e-01,1.73246e-01,8.23754e-01,9.99999e-01
1.052630555e+00,6.03482e-03,9.99999e-01,9.99999e-01,7.29799e-03,8.26915e-01,9.99999e-01
1.057893707e+00,1.43458e-02,9.99999e-01,9.99999e-01,1.72836e-02,8.30025e-01,9.99999e-01
1.063183176e+00,4.22271e-02,9.99999e-01,9.99999e-01,5.06876e-02,8.33085e-01,9.99999e-01
1.068499092e+00,1.07178e-01,9.99999e-01,9.99999e-01,1.28188e-01,8.36095e-01,9.99999e-01
1.073841587e+00,2.29141e-01,9.99999e-01,9.99999e-01,2.73094e-01,8.39057e-01,9.99999e-01
1.079210795e+00,3.70323e-01,9.99999e-01,9.99999e-01,4.39829e-01,8.41970e-01,9.99999e-01
1.084606849e+00,5.38010e-01,9.99999e-01,9.99999e-01,6.36821e-01,8.44836e-01,9.99999e-01
1.090029883e+00,6.70752e-01,9.99999e-01,9.99999e-01,7.91303e-01,8.47654e-01,9.99999e-01
1.095480033e+00,7.57797e-01,9.99999e-01,9.99999e-01,8.91078e-01,8.50426e-01,9.99999e-01
1.100957433e+00,8.07067e-01,9.99999e-01,9.99999e-01,9.45982e-01,8.53152e-01,9.99999e-01
1.106462220e+00,8.36404e-01,9.99999e-01,9.99999e-01,9.77298e-01,8.55833e-01,9.99999e-01
1.111994531e+00,8.51194e-01,9.99999e-01,9.99999e-01,9.91526e-01,8.58468e-01,9.99999e-01
1.117554504e+00,8.59273e-01,9.99999e-01,9.99999e-01,9.97923e-01,8.61060e-01,9.99999e-01
1.123142276e+00,8.63490e-01,9.99999e-01,9.99999e-01,9.99863e-01,8.63608e-01,9.99999e-01
1.128757988e+00,8.66113e-01,9.99999e-01,9.99999e-01,9.99999e-01,8.66113e-01,9.99999e-01
1.134401778e+00,8.68575e-01,9.99999e-01,9.99999e-01,9.99999e-01,8.68575e-01,9.99999e-01
1.140073787e+00,8.70996e-01,9.99999e-01,9.99999e-01,9.99999e-01,8.70996e-01,9.99999e-01
1.145774156e+00,8.73376e-01,9.99999e-01,9.99999e-01,9.99999e-01,8.73376e-01,9.99999e-01
1.151503026e+00,8.75714e-01,9.99999e-01,9.99999e-01,9.99999e-01,8.75714e-01,9.99999e-01
1.157260541e+00,8.78013e-01,9.99999e-01,9.99999e-01,9.99999e-01,8.78013e-01,9.99999e-01
1.163046844e+00,8.80272e-01,9.99999e-01,9.99999e-01,9.99999e-01,8.80272e-01,9.99999e-01
1.168862078e+00,8.82492e-01,9.99999e-01,9.99999e-01,9.99999e-01,8.82492e-01,9.99999e-01
1.174706389e+00,8.84674e-01,9.99999e-01,9.99999e-01,9.99999e-01,8.84674e-01,9.99999e-01
1.180579921e+00,8.86818e-01,9.99999e-01,9.99999e-01,9.99999e-01,8.86818e-01,9.99999e-01
1.186482820e+00,8.88919e-01,9.99999e-01,9.99999e-01,9.99993e-01,8.88924e-01,9.99999e-01
1.192415234e+00,8.80714e-01,9.99999e-01,9.99999e-01,9.88461e-01,8.90994e-01,9.99999e-01
1.198377311e+00,5.04980e-01,9.99999e-01,9.99999e-01,5.65470e-01,8.93028e-01,9.99999e-01
1.204369197e+00,5.11333e-10,9.99999e-01,9.99999e-01,5.71305e-10,8.95026e-01,9.99999e-01
1.210391043e+00,1.26987e-35,9.99999e-01,9.99999e-01,1.41571e-35,8.96988e-01,9.99999e-01
1.216442998e+00,4.81286e-31,9.99999e-01,9.99999e-01,5.35406e-31,8.98917e-01,9.99999e-01
1.222525213e+00,1.33323e-30,9.99999e-01,9.99999e-01,1.48003e-30,9.00811e-01,9.99999e-01
1.228637839e+00,1.08474e-23,9.99999e-01,9.99999e-01,1.20170e-23,9.02671e-01,9.99999e-01
