#,Wave/freq,Total,N2,O2,CO2,Rayleigh,CIA
4.000000000e-01,3.50990e-07,9.99999e-01,9.99999e-01,9.99999e-01,3.50990e-07,9.99999e-01
4.020000000e-01,4.70894e-07,9.99999e-01,9.99999e-01,9.99999e-01,4.70894e-07,9.99999e-01
4.040100000e-01,6.27912e-07,9.99999e-01,9.99999e-01,9.99999e-01,6.27912e-07,9.99999e-01
4.060300500e-01,8.32541e-07,9.99999e-01,9.99999e-01,9.99999e-01,8.32541e-07,9.99999e-01
4.080602003e-01,1.09772e-06,9.99999e-01,9.99999e-01,9.99999e-01,1.09772e-06,9.99999e-01
4.101005013e-01,1.43949e-06,9.99999e-01,9.99999e-01,9.99999e-01,1.43949e-06,9.99999e-01
4.121510038e-01,1.87758e-06,9.99999e-01,9.99999e-01,9.99999e-01,1.87758e-06,9.99999e-01
4.142117588e-01,2.43617e-06,9.99999e-01,9.99999e-01,9.99999e-01,2.43617e-06,9.99999e-01
4.162828176e-01,3.14474e-06,9.99999e-01,9.99999e-01,9.99999e-01,3.14474e-06,9.99999e-01
4.183642317e-01,4.03897e-06,9.99999e-01,9.99999e-01,9.99999e-01,4.03897e-06,9.99999e-01
4.204560528e-01,5.16191e-06,9.99999e-01,9.99999e-01,9.99999e-01,5.16191e-06,9.99999e-01
4.225583331e-01,6.56517e-06,9.99999e-01,9.99999e-01,9.99999e-01,6.56517e-06,9.99999e-01
4.246711247e-01,8.31032e-06,9.99999e-01,9.99999e-01,9.99999e-01,8.31032e-06,9.99999e-01
4.267944804e-01,1.04705e-05,9.99999e-01,9.99999e-01,9.99999e-01,1.04705e-05,9.99999e-01
4.289284528e-01,1.31322e-05,9.99999e-01,9.99999e-01,9.99999e-01,1.31322e-05,9.99999e-01
4.310730950e-01,1.63969e-05,9.99999e-01,9.99999e-01,9.99999e-01,1.63969e-05,9.99999e-01
4.332284605e-01,2.03836e-05,9.99999e-01,9.99999e-01,9.99999e-01,2.03836e-05,9.99999e-01
4.353946028e-01,2.52310e-05,9.99999e-01,9.99999e-01,9.99999e-01,2.52310e-05,9.99999e-01
4.375715758e-01,3.10998e-05,9.99999e-01,9.99999e-01,9.99999e-01,3.10998e-05,9.99999e-01
4.397594337e-01,3.81757e-05,9.99999e-01,9.99999e-01,9.99999e-01,3.81757e-05,9.99999e-01
4.419582309e-01,4.66721e-05,9.99999e-01,9.99999e-01,9.99999e-01,4.66721e-05,9.99999e-01
4.441680220e-01,5.68335e-05,9.99999e-01,9.99999e-01,9.99999e-01,5.68335e-05,9.99999e-01
4.463888621e-01,6.89385e-05,9.99999e-01,9.99999e-01,9.99999e-01,6.89385e-05,9.99999e-01
4.486208064e-01,8.33033e-05,9.99999e-01,9.99999e-01,9.99999e-01,8.33033e-05,9.99999e-01
4.508639105e-01,1.00286e-04,9.99999e-01,9.99999e-01,9.99999e-01,1.00286e-04,9.99999e-01
4.531182300e-01,1.20289e-04,9.99999e-01,9.99999e-01,9.99999e-01,1.20289e-04,9.99999e-01
4.553838212e-01,1.43764e-04,9.99999e-01,9.99999e-01,9.99999e-01,1.43764e-04,9.99999e-01
4.576607403e-01,1.71217e-04,9.99999e-01,9.99999e-01,9.99999e-01,1.71217e-04,9.99999e-01
4.599490440e-01,2.03209e-04,9.99999e-01,9.99999e-01,9.99999e-01,2.03209e-04,9.99999e-01
4.622487892e-01,2.40364e-04,9.99999e-01,9.99999e-01,9.99999e-01,2.40364e-04,9.99999e-01
4.645600332e-01,2.83372e-04,9.99999e-01,9.99999e-01,9.99999e-01,2.83372e-04,9.99999e-01
4.668828333e-01,3.32990e-04,9.99999e-01,9.99999e-01,9.99999e-01,3.32990e-04,9.99999e-01
4.692172475e-01,3.90052e-04,9.99999e-01,9.99999e-01,9.99999e-01,3.90052e-04,9.99999e-01
4.715633337e-01,4.55466e-04,9.99999e-01,9.99999e-01,9.99999e-01,4.55466e-04,9.99999e-01
4.739211504e-01,5.30224e-04,9.99999e-01,9.99999e-01,9.99999e-01,5.30224e-04,9.99999e-01
4.762907561e-01,6.15403e-04,9.99999e-01,9.99999e-01,9.99999e-01,6.15403e-04,9.99999e-01
4.786722099e-01,7.12167e-04,9.99999e-01,9.99999e-01,9.99999e-01,7.12167e-04,9.99999e-01
4.810655710e-01,8.21771e-04,9.99999e-01,9.99999e-01,9.99999e-01,8.21771e-04,9.99999e-01
4.834708988e-01,9.45567e-04,9.99999e-01,9.99999e-01,9.99999e-01,9.45567e-04,9.99999e-01
4.858882533e-01,1.08500e-03,9.99999e-01,9.99999e-01,9.99999e-01,1.08500e-03,9.99999e-01
4.883176946e-01,1.24162e-03,9.99999e-01,9.99999e-01,9.99999e-01,1.24162e-03,9.99999e-01
4.907592831e-01,1.41706e-03,9.99999e-01,9.99999e-01,9.99999e-01,1.41706e-03,9.99999e-01
4.932130795e-01,1.61308e-03,9.99999e-01,9.99999e-01,9.99999e-01,1.61308e-03,9.99999e-01
4.956791449e-01,1.83152e-03,9.99999e-01,9.99999e-01,9.99999e-01,1.83152e-03,9.99999e-01
4.981575406e-01,2.07433e-03,9.99999e-01,9.99999e-01,9.99999e-01,2.07433e-03,9.99999e-01
5.006483283e-01,2.34356e-03,9.99999e-01,9.99999e-01,9.99999e-01,2.34356e-03,9.99999e-01
5.031515699e-01,2.64136e-03,9.99999e-01,9.99999e-01,9.99999e-01,2.64136e-03,9.99999e-01
5.056673278e-01,2.96997e-03,9.99999e-01,9.99999e-01,9.99999e-01,2.96997e-03,9.99999e-01
5.081956644e-01,3.33175e-03,9.99999e-01,9.99999e-01,9.99999e-01,3.33175e-03,9.99999e-01
5.107366428e-01,3.72911e-03,9.99999e-01,9.99999e-01,9.99999e-01,3.72911e-03,9.99999e-01
5.132903260e-01,4.16459e-03,9.99999e-01,9.99999e-01,9.99999e-01,4.16459e-03,9.99999e-01
5.158567776e-01,4.64078e-03,9.99999e-01,9.99999e-01,9.99999e-01,4.64078e-03,9.99999e-01
5.184360615e-01,5.16038e-03,9.99999e-01,9.99999e-01,9.99999e-01,5.16038e-03,9.99999e-01
5.210282418e-01,5.72614e-03,9.99999e-01,9.99999e-01,9.99999e-01,5.72614e-03,9.99999e-01
5.236333830e-01,6.34089e-03,9.99999e-01,9.99999e-01,9.99999e-01,6.34089e-03,9.99999e-01
5.262515499e-01,7.00750e-03,9.99999e-01,9.99999e-01,9.99999e-01,7.00750e-03,9.99999e-01
5.288828077e-01,7.72891e-03,9.99999e-01,9.99999e-01,9.99999e-01,7.72891e-03,9.99999e-01
5.315272217e-01,8.50811e-03,9.99999e-01,9.99999e-01,9.99999e-01,8.50811e-03,9.99999e-01
5.341848578e-01,9.34812e-03,9.99999e-01,9.99999e-01,9.99999e-01,9.34812e-03,9.99999e-01
5.368557821e-01,1.02520e-02,9.99999e-01,9.99999e-01,9.99999e-01,1.02520e-02,9.99999e-01
5.395400610e-01,1.12227e-02,9.99999e-01,9.99999e-01,9.99999e-01,1.12227e-02,9.99999e-01
5.422377613e-01,1.22635e-02,9.99999e-01,9.99999e-01,9.99999e-01,1.22635e-02,9.99999e-01
5.449489501e-01,1.33773e-02,9.99999e-01,9.99999e-01,9.99999e-01,1.33773e-02,9.99999e-01
5.476736949e-01,1.45673e-02,9.99999e-01,9.99999e-01,9.99999e-01,1.45673e-02,9.99999e-01
5.504120634e-01,1.58364e-02,9.99999e-01,9.99999e-01,9.99999e-01,1.58364e-02,9.99999e-01
5.531641237e-01,1.71877e-02,9.99999e-01,9.99999e-01,9.99999e-01,1.71877e-02,9.99999e-01
5.559299443e-01,1.86241e-02,9.99999e-01,9.99999e-01,9.99999e-01,1.86241e-02,9.99999e-01
5.587095940e-01,2.01486e-02,9.99999e-01,9.99999e-01,9.99999e-01,2.01486e-02,9.99999e-01
5.615031420e-01,2.17641e-02,9.99999e-01,9.99999e-01,9.99999e-01,2.17641e-02,9.99999e-01
5.643106577e-01,2.34733e-02,9.99999e-01,9.99999e-01,9.99999e-01,2.34733e-02,9.99999e-01
5.671322110e-01,2.52790e-02,9.99999e-01,9.99999e-01,9.99999e-01,2.52790e-02,9.99999e-01
5.699678720e-01,2.71838e-02,9.99999e-01,9.99999e-01,9.99999e-01,2.71838e-02,9.99999e-01
5.728177114e-01,2.91901e-02,9.99999e-01,9.99999e-01,9.99999e-01,2.91901e-02,9.99999e-01
5.756818000e-01,3.13005e-02,9.99999e-01,9.99999e-01,9.99999e-01,3.13005e-02,9.99999e-01
5.785602090e-01,3.35172e-02,9.99999e-01,9.99999e-01,9.99999e-01,3.35172e-02,9.99999e-01
5.814530100e-01,3.58424e-02,9.99999e-01,9.99999e-01,9.99999e-01,3.58424e-02,9.99999e-01
5.843602750e-01,3.82782e-02,9.99999e-01,9.99999e-01,9.99999e-01,3.82782e-02,9.99999e-01
5.872820764e-01,4.08265e-02,9.99999e-01,9.99999e-01,9.99999e-01,4.08265e-02,9.99999e-01
5.902184868e-01,4.34890e-02,9.99999e-01,9.99999e-01,9.99999e-01,4.34890e-02,9.99999e-01
5.931695792e-01,4.62673e-02,9.99999e-01,9.99999e-01,9.99999e-01,4.62673e-02,9.99999e-01
5.961354271e-01,4.91630e-02,9.99999e-01,9.99999e-01,9.99999e-01,4.91630e-02,9.99999e-01
5.991161043e-01,5.21774e-02,9.99999e-01,9.99999e-01,9.99999e-01,5.21774e-02,9.99999e-01
6.021116848e-01,5.53114e-02,9.99999e-01,9.99999e-01,9.99999e-01,5.53114e-02,9.99999e-01
6.051222432e-01,5.85663e-02,9.99999e-01,9.99999e-01,9.99999e-01,5.85663e-02,9.99999e-01
6.081478544e-01,6.19426e-02,9.99999e-01,9.99999e-01,9.99999e-01,6.19426e-02,9.99999e-01
6.111885937e-01,6.54411e-02,9.99999e-01,9.99999e-01,9.99999e-01,6.54411e-02,9.99999e-01
6.142445367e-01,6.90622e-02,9.99999e-01,9.99999e-01,9.99999e-01,6.90622e-02,9.99999e-01
6.173157594e-01,7.28062e-02,9.99999e-01,9.99999e-01,9.99999e-01,7.28062e-02,9.99999e-01
6.204023382e-01,7.66732e-02,9.99999e-01,9.99999e-01,9.99999e-01,7.66732e-02,9.99999e-01
6.235043498e-01,8.06630e-02,9.99999e-01,9.99999e-01,9.99999e-01,8.06630e-02,9.99999e-01
6.266218716e-01,8.47755e-02,9.99999e-01,9.99999e-01,9.99999e-01,8.47755e-02,9.99999e-01
6.297549810e-01,8.90102e-02,9.99999e-01,9.99999e-01,9.99999e-01,8.90102e-02,9.99999e-01
6.329037559e-01,9.33664e-02,9.99999e-01,9.99999e-01,9.99999e-01,9.33664e-02,9.99999e-01
6.360682746e-01,9.78435e-02,9.99999e-01,9.99999e-01,9.99999e-01,9.78435e-02,9.99999e-01
6.392486160e-01,1.02440e-01,9.99999e-01,9.99999e-01,9.99999e-01,1.02440e-01,9.99999e-01
6.424448591e-01,1.07156e-01,9.99999e-01,9.99999e-01,9.99999e-01,1.07156e-01,9.99999e-01
6.456570834e-01,1.11989e-01,9.99999e-01,9.99999e-01,9.99999e-01,1.11989e-01,9.99999e-01
6.488853688e-01,1.16939e-01,9.99999e-01,9.99999e-01,9.99999e-01,1.16939e-01,9.99999e-01
6.521297956e-01,1.22002e-01,9.99999e-01,9.99999e-01,9.99999e-01,1.22002e-01,9.99999e-01
6.553904446e-01,1.27179e-01,9.99999e-01,9.99999e-01,9.99999e-01,1.27179e-01,9.99999e-01
6.586673968e-01,1.32466e-01,9.99999e-01,9.99999e-01,9.99999e-01,1.32466e-01,9.99999e-01
6.619607338e-01,1.37862e-01,9.99999e-01,9.99999e-01,9.99999e-01,1.37862e-01,9.99999e-01
6.652705375e-01,1.43365e-01,9.99999e-01,9.99999e-01,9.99999e-01,1.43365e-01,9.99999e-01
6.685968902e-01,1.48972e-01,9.99999e-01,9.99999e-01,9.99999e-01,1.48972e-01,9.99999e-01
6.719398746e-01,1.54682e-01,9.99999e-01,9.99999e-01,9.99999e-01,1.54682e-01,9.99999e-01
6.752995740e-01,1.60490e-01,9.99999e-01,9.99999e-01,9.99999e-01,1.60490e-01,9.99999e-01
6.786760719e-01,1.66396e-01,9.99999e-01,9.99999e-01,9.99999e-01,1.66396e-01,9.99999e-01
6.820694522e-01,1.72396e-01,9.99999e-01,9.99999e-01,9.99999e-01,1.72396e-01,9.99999e-01
6.854797995e-01,1.78488e-01,9.99999e-01,9.99999e-01,9.99999e-01,1.78488e-01,9.99999e-01
6.889071985e-01,1.84668e-01,9.99999e-01,9.99999e-01,9.99999e-01,1.84668e-01,9.99999e-01
6.923517345e-01,1.90933e-01,9.99999e-01,9.99999e-01,9.99999e-01,1.90933e-01,9.99999e-01
6.958134932e-01,1.97281e-01,9.99999e-01,9.99999e-01,9.99999e-01,1.97281e-01,9.99999e-01
6.992925606e-01,2.03709e-01,9.99999e-01,9.99999e-01,9.99999e-01,2.03709e-01,9.99999e-01
7.027890234e-01,2.10212e-01,9.99999e-01,9.99999e-01,9.99999e-01,2.10212e-01,9.99999e-01
7.063029686e-01,2.16789e-01,9.99999e-01,9.99999e-01,9.99999e-01,2.16789e-01,9.99999e-01
7.098344834e-01,2.23436e-01,9.99999e-01,9.99999e-01,9.99999e-01,2.23436e-01,9.99999e-01
7.133836558e-01,2.30149e-01,9.99999e-01,9.99999e-01,9.99999e-01,2.30149e-01,9.99999e-01
7.169505741e-01,2.36925e-01,9.99999e-01,9.99999e-01,9.99999e-01,2.36925e-01,9.99999e-01
7.205353270e-01,2.43760e-01,9.99999e-01,9.99999e-01,9.99999e-01,2.43760e-01,9.99999e-01
7.241380036e-01,2.50653e-01,9.99999e-01,9.99999e-01,9.99999e-01,2.50653e-01,9.99999e-01
7.277586936e-01,2.57598e-01,9.99999e-01,9.99999e-01,9.99999e-01,2.57598e-01,9.99999e-01
7.313974871e-01,2.64592e-01,9.99999e-01,9.99999e-01,9.99999e-01,2.64592e-01,9.99999e-01
7.350544745e-01,2.71633e-01,9.99999e-01,9.99999e-01,9.99999e-01,2.71633e-01,9.99999e-01
7.387297469e-01,2.78717e-01,9.99999e-01,9.99999e-01,9.99999e-01,2.78717e-01,9.99999e-01
7.424233956e-01,2.85840e-01,9.99999e-01,9.99999e-01,9.99999e-01,2.85840e-01,9.99999e-01
7.461355126e-01,2.92999e-01,9.99999e-01,9.99999e-01,9.99999e-01,2.92999e-01,9.99999e-01
7.498661902e-01,3.00190e-01,9.99999e-01,9.99999e-01,9.99999e-01,3.00190e-01,9.99999e-01
7.536155211e-01,3.07411e-01,9.99999e-01,9.99999e-01,9.99999e-01,3.07411e-01,9.99999e-01
7.573835987e-01,3.14657e-01,9.99999e-01,9.99999e-01,9.99999e-01,3.14657e-01,9.99999e-01
7.611705167e-01,3.21926e-01,9.99999e-01,9.99999e-01,9.99999e-01,3.21926e-01,9.99999e-01
7.649763693e-01,3.29215e-01,9.99999e-01,9.99999e-01,9.99999e-01,3.29215e-01,9.99999e-01
7.688012511e-01,3.36520e-01,9.99999e-01,9.99999e-01,9.99999e-01,3.36520e-01,9.99999e-01
7.726452574e-01,3.43838e-01,9.99999e-01,9.99999e-01,9.99999e-01,3.43838e-01,9.99999e-01
7.765084837e-01,3.51165e-01,9.99999e-01,9.99999e-01,9.99999e-01,3.51165e-01,9.99999e-01
7.803910261e-01,3.42519e-01,9.99999e-01,9.99999e-01,9.55421e-01,3.58500e-01,9.99999e-01
7.842929812e-01,2.96223e-01,9.99999e-01,9.99999e-01,8.09712e-01,3.65838e-01,9.99999e-01
7.882144461e-01,2.98102e-01,9.99999e-01,9.99999e-01,7.98821e-01,3.73177e-01,9.99999e-01
7.921555184e-01,3.33304e-01,9.99999e-01,9.99999e-01,8.75931e-01,3.80514e-01,9.99999e-01
7.961162960e-01,3.54738e-01,9.99999e-01,9.99999e-01,9.14634e-01,3.87846e-01,9.99999e-01
8.000968774e-01,3.76525e-01,9.99999e-01,9.99999e-01,9.52815e-01,3.95170e-01,9.99999e-01
8.040973618e-01,3.92508e-01,9.99999e-01,9.99999e-01,9.75213e-01,4.02484e-01,9.99999e-01
8.081178486e-01,4.05102e-01,9.99999e-01,9.99999e-01,9.88570e-01,4.09785e-01,9.99999e-01
8.121584379e-01,4.15586e-01,9.99999e-01,9.99999e-01,9.96440e-01,4.17070e-01,9.99999e-01
8.162192301e-01,4.24003e-01,9.99999e-01,9.99999e-01,9.99212e-01,4.24337e-01,9.99999e-01
8.203003262e-01,4.31578e-01,9.99999e-01,9.99999e-01,9.99987e-01,4.31583e-01,9.99999e-01
8.244018279e-01,4.38806e-01,9.99999e-01,9.99999e-01,9.99999e-01,4.38806e-01,9.99999e-01
8.285238370e-01,4.46004e-01,9.99999e-01,9.99999e-01,9.99999e-01,4.46004e-01,9.99999e-01
8.326664562e-01,4.53174e-01,9.99999e-01,9.99999e-01,9.99999e-01,4.53174e-01,9.99999e-01
8.368297885e-01,4.60315e-01,9.99999e-01,9.99999e-01,9.99999e-01,4.60315e-01,9.99999e-01
8.410139374e-01,4.67423e-01,9.99999e-01,9.99999e-01,9.99999e-01,4.67423e-01,9.99999e-01
8.452190071e-01,4.74498e-01,9.99999e-01,9.99999e-01,9.99999e-01,4.74498e-01,9.99999e-01
8.494451021e-01,4.81537e-01,9.99999e-01,9.99999e-01,9.99999e-01,4.81537e-01,9.99999e-01
8.536923276e-01,4.88538e-01,9.99999e-01,9.99999e-01,9.99999e-01,4.88538e-01,9.99999e-01
8.579607893e-01,4.95500e-01,9.99999e-01,9.99999e-01,9.99999e-01,4.95500e-01,9.99999e-01
8.622505932e-01,5.02420e-01,9.99999e-01,9.99999e-01,9.99999e-01,5.02420e-01,9.99999e-01
8.665618462e-01,4.64056e-01,9.99999e-01,9.99999e-01,9.11167e-01,5.09298e-01,9.99999e-01
8.708946554e-01,3.03818e-01,9.99999e-01,9.99999e-01,5.88644e-01,5.16131e-01,9.99999e-01
8.752491287e-01,3.39715e-01,9.99999e-01,9.99999e-01,6.49652e-01,5.22918e-01,9.99999e-01
8.796253743e-01,4.17177e-01,9.99999e-01,9.99999e-01,7.87635e-01,5.29657e-01,9.99999e-01
8.840235012e-01,4.73692e-01,9.99999e-01,9.99999e-01,8.83180e-01,5.36348e-01,9.99999e-01
8.884436187e-01,5.16964e-01,9.99999e-01,9.99999e-01,9.52071e-01,5.42989e-01,9.99999e-01
8.928858368e-01,5.38764e-01,9.99999e-01,9.99999e-01,9.80323e-01,5.49578e-01,9.99999e-01
8.973502660e-01,5.53429e-01,9.99999e-01,9.99999e-01,9.95169e-01,5.56115e-01,9.99999e-01
9.018370173e-01,5.62298e-01,9.99999e-01,9.99999e-01,9.99465e-01,5.62598e-01,9.99999e-01
9.063462024e-01,5.61435e-01,9.99999e-01,9.99999e-01,9.86659e-01,5.69026e-01,9.99999e-01
9.108779334e-01,5.57655e-01,9.99999e-01,9.99999e-01,9.69162e-01,5.75399e-01,9.99999e-01
9.154323231e-01,5.77434e-01,9.99999e-01,9.99999e-01,9.92640e-01,5.81715e-01,9.99999e-01
9.200094847e-01,5.30370e-01,9.99999e-01,9.99999e-01,9.02029e-01,5.87973e-01,9.99999e-01
9.246095321e-01,5.09859e-01,9.99999e-01,9.99999e-01,8.58097e-01,5.94174e-01,9.99999e-01
9.292325798e-01,5.33057e-01,9.99999e-01,9.99999e-01,8.87961e-01,6.00315e-01,9.99999e-01
9.338787427e-01,5.40113e-01,9.99999e-01,9.99999e-01,8.90692e-01,6.06397e-01,9.99999e-01
9.385481364e-01,5.62408e-01,9.99999e-01,9.99999e-01,9.18339e-01,6.12418e-01,9.99999e-01
9.432408771e-01,5.86875e-01,9.99999e-01,9.99999e-01,9.49054e-01,6.18378e-01,9.99999e-01
9.479570815e-01,6.07775e-01,9.99999e-01,9.99999e-01,9.73565e-01,6.24277e-01,9.99999e-01
9.526968669e-01,6.22022e-01,9.99999e-01,9.99999e-01,9.87157e-01,6.30114e-01,9.99999e-01
9.574603512e-01,6.32383e-01,9.99999e-01,9.99999e-01,9.94486e-01,6.35889e-01,9.99999e-01
9.622476530e-01,6.40495e-01,9.99999e-01,9.99999e-01,9.98276e-01,6.41601e-01,9.99999e-01
9.670588912e-01,6.46915e-01,9.99999e-01,9.99999e-01,9.99482e-01,6.47250e-01,9.99999e-01
9.718941857e-01,6.52811e-01,9.99999e-01,9.99999e-01,9.99962e-01,6.52835e-01,9.99999e-01
9.767536566e-01,6.58357e-01,9.99999e-01,9.99999e-01,9.99999e-01,6.58357e-01,9.99999e-01
9.816374249e-01,6.63816e-01,9.99999e-01,9.99999e-01,9.99999e-01,6.63816e-01,9.99999e-01
9.865456120e-01,6.69210e-01,9.99999e-01,9.99999e-01,9.99999e-01,6.69210e-01,9.99999e-01
9.914783401e-01,6.74541e-01,9.99999e-01,9.99999e-01,9.99999e-01,6.74541e-01,9.99999e-01
9.964357318e-01,6.79807e-01,9.99999e-01,9.99999e-01,9.99999e-01,6.79807e-01,9.99999e-01
1.001417910e+00,6.85009e-01,9.99999e-01,9.99999e-01,9.99999e-01,6.85009e-01,9.99999e-01
1.006425000e+00,6.90147e-01,9.99999e-01,9.99999e-01,9.99999e-01,6.90147e-01,9.99999e-01
1.011457125e+00,6.95221e-01,9.99999e-01,9.99999e-01,9.99999e-01,6.95221e-01,9.99999e-01
1.016514411e+00,7.00231e-01,9.99999e-01,9.99999e-01,9.99999e-01,7.00231e-01,9.99999e-01
1.021596983e+00,7.05130e-01,9.99999e-01,9.99999e-01,9.99932e-01,7.05177e-01,9.99999e-01
1.026704968e+00,7.06352e-01,9.99999e-01,9.99999e-01,9.94777e-01,7.10060e-01,9.99999e-01
1.031838492e+00,6.76378e-01,9.99999e-01,9.99999e-01,9.46143e-01,7.14878e-01,9.99999e-01
1.036997685e+00,8.09035e-02,9.99999e-01,9.99999e-01,1.12423e-01,7.19634e-01,9.99999e-01
1.042182673e+00,3.99482e-02,9.99999e-01,9.99999e-01,5.51522e-02,7.24326e-01,9.99999e-01
1.047393587e+00,5.83822e-02,9.99999e-01,9.99999e-01,8.00902e-02,7.28955e-01,9.99999e-01
1.052630555e+00,4.92859e-04,9.99999e-01,9.99999e-01,6.71907e-04,7.33521e-01,9.99999e-01
1.057893707e+00,1.46861e-03,9.99999e-01,9.99999e-01,1.98992e-03,7.38025e-01,9.99999e-01
1.063183176e+00,7.32101e-03,9.99999e-01,9.99999e-01,9.86038e-03,7.42466e-01,9.99999e-01
1.068499092e+00,2.80592e-02,9.99999e-01,9.99999e-01,3.75702e-02,7.46846e-01,9.99999e-01
1.073841587e+00,9.34950e-02,9.99999e-01,9.99999e-01,1.24467e-01,7.51165e-01,9.99999e-01
1.079210795e+00,2.01887e-01,9.99999e-01,9.99999e-01,2.67250e-01,7.55422e-01,9.99999e-01
1.084606849e+00,3.65346e-01,9.99999e-01,9.99999e-01,4.80959e-01,7.59619e-01,9.99999e-01
1.090029883e+00,5.21974e-01,9.99999e-01,9.99999e-01,6.83429e-01,7.63756e-01,9.99999e-01
1.095480033e+00,6.36341e-01,9.99999e-01,9.99999e-01,8.28750e-01,7.67832e-01,9.99999e-01
1.100957433e+00,7.05011e-01,9.99999e-01,9.99999e-01,9.13404e-01,7.71849e-01,9.99999e-01
1.106462220e+00,7.47261e-01,9.99999e-01,9.99999e-01,9.63203e-01,7.75808e-01,9.99999e-01
1.111994531e+00,7.68947e-01,9.99999e-01,9.99999e-01,9.86198e-01,7.79707e-01,9.99999e-01
1.117554504e+00,7.80890e-01,9.99999e-01,9.99999e-01,9.96605e-01,7.83549e-01,9.99999e-01
1.123142276e+00,7.87157e-01,9.99999e-01,9.99999e-01,9.99775e-01,7.87334e-01,9.99999e-01
1.128757988e+00,7.91061e-01,9.99999e-01,9.99999e-01,9.99999e-01,7.91061e-01,9.99999e-01
1.134401778e+00,7.94732e-01,9.99999e-01,9.99999e-01,9.99999e-01,7.94732e-01,9.99999e-01
1.140073787e+00,7.98346e-01,9.99999e-01,9.99999e-01,9.99999e-01,7.98346e-01,9.99999e-01
1.145774156e+00,8.01906e-01,9.99999e-01,9.99999e-01,9.99999e-01,8.01906e-01,9.99999e-01
1.151503026e+00,8.05410e-01,9.99999e-01,9.99999e-01,9.99999e-01,8.05410e-01,9.99999e-01
1.157260541e+00,8.08860e-01,9.99999e-01,9.99999e-01,9.99999e-01,8.08860e-01,9.99999e-01
1.163046844e+00,8.12256e-01,9.99999e-01,9.99999e-01,9.99999e-01,8.12256e-01,9.99999e-01
1.168862078e+00,8.15600e-01,9.99999e-01,9.99999e-01,9.99999e-01,8.15600e-01,9.99999e-01
1.174706389e+00,8.18890e-01,9.99999e-01,9.99999e-01,9.99999e-01,8.18890e-01,9.99999e-01
1.180579921e+00,8.22128e-01,9.99999e-01,9.99999e-01,9.99999e-01,8.22128e-01,9.99999e-01
1.186482820e+00,8.25308e-01,9.99999e-01,9.99999e-01,9.99991e-01,8.25315e-01,9.99999e-01
1.192415234e+00,8.13246e-01,9.99999e-01,9.99999e-01,9.81646e-01,8.28451e-01,9.99999e-01
1.198377311e+00,4.59323e-01,9.99999e-01,9.99999e-01,5.52378e-01,8.31536e-01,9.99999e-01
1.204369197e+00,6.47882e-15,9.99999e-01,9.99999e-01,7.76305e-15,8.34572e-01,9.99999e-01
1.210391043e+00,1.16022e-56,9.99999e-01,9.99999e-01,1.38524e-56,8.37558e-01,9.99999e-01
1.216442998e+00,3.38611e-49,9.99999e-01,9.99999e-01,4.02871e-49,8.40496e-01,9.99999e-01
1.222525213e+00,1.77741e-48,9.99999e-01,9.99999e-01,2.10747e-48,8.43385e-01,9.99999e-01
1.228637839e+00,1.54085e-37,9.99999e-01,9.99999e-01,1.82084e-37,8.46228e-01,9.99999e-01
