#,Wave/freq,Total,N2,O2,CO2,Rayleigh,CIA
4.000000000e-01,1.02781e-06,9.99999e-01,9.99999e-01,9.99999e-01,1.02781e-06,9.99999e-01
4.020000000e-01,1.34994e-06,9.99999e-01,9.99999e-01,9.99999e-01,1.34994e-06,9.99999e-01
4.040100000e-01,1.76301e-06,9.99999e-01,9.99999e-01,9.99999e-01,1.76301e-06,9.99999e-01
4.060300500e-01,2.29036e-06,9.99999e-01,9.99999e-01,9.99999e-01,2.29036e-06,9.99999e-01
4.080602003e-01,2.96013e-06,9.99999e-01,9.99999e-01,9.99999e-01,2.96013e-06,9.99999e-01
4.101005013e-01,3.80641e-06,9.99999e-01,9.99999e-01,9.99999e-01,3.80641e-06,9.99999e-01
4.121510038e-01,4.87039e-06,9.99999e-01,9.99999e-01,9.99999e-01,4.87039e-06,9.99999e-01
4.142117588e-01,6.20151e-06,9.99999e-01,9.99999e-01,9.99999e-01,6.20151e-06,9.99999e-01
4.162828176e-01,7.85885e-06,9.99999e-01,9.99999e-01,9.99999e-01,7.85885e-06,9.99999e-01
4.183642317e-01,9.91261e-06,9.99999e-01,9.99999e-01,9.99999e-01,9.91261e-06,9.99999e-01
4.204560528e-01,1.24459e-05,9.99999e-01,9.99999e-01,9.99999e-01,1.24459e-05,9.99999e-01
4.225583331e-01,1.55565e-05,9.99999e-01,9.99999e-01,9.99999e-01,1.55565e-05,9.99999e-01
4.246711247e-01,1.93590e-05,9.99999e-01,9.99999e-01,9.99999e-01,1.93590e-05,9.99999e-01
4.267944804e-01,2.39871e-05,9.99999e-01,9.99999e-01,9.99999e-01,2.39871e-05,9.99999e-01
4.289284528e-01,2.95962e-05,9.99999e-01,9.99999e-01,9.99999e-01,2.95962e-05,9.99999e-01
4.310730950e-01,3.63655e-05,9.99999e-01,9.99999e-01,9.99999e-01,3.63655e-05,9.99999e-01
4.332284605e-01,4.45018e-05,9.99999e-01,9.99999e-01,9.99999e-01,4.45018e-05,9.99999e-01
4.353946028e-01,5.42416e-05,9.99999e-01,9.99999e-01,9.99999e-01,5.42416e-05,9.99999e-01
4.375715758e-01,6.58552e-05,9.99999e-01,9.99999e-01,9.99999e-01,6.58552e-05,9.99999e-01
4.397594337e-01,7.96495e-05,9.99999e-01,9.99999e-01,9.99999e-01,7.96495e-05,9.99999e-01
4.419582309e-01,9.59721e-05,9.99999e-01,9.99999e-01,9.99999e-01,9.59721e-05,9.99999e-01
4.441680220e-01,1.15215e-04,9.99999e-01,9.99999e-01,9.99999e-01,1.15215e-04,9.99999e-01
4.463888621e-01,1.37817e-04,9.99999e-01,9.99999e-01,9.99999e-01,1.37817e-04,9.99999e-01
4.486208064e-01,1.64271e-04,9.99999e-01,9.99999e-01,9.99999e-01,1.64271e-04,9.99999e-01
4.508639105e-01,1.95125e-04,9.99999e-01,9.99999e-01,9.99999e-01,1.95125e-04,9.99999e-01
4.531182300e-01,2.30987e-04,9.99999e-01,9.99999e-01,9.99999e-01,2.30987e-04,9.99999e-01
4.553838212e-01,2.72531e-04,9.99999e-01,9.99999e-01,9.99999e-01,2.72531e-04,9.99999e-01
4.576607403e-01,3.20498e-04,9.99999e-01,9.99999e-01,9.99999e-01,3.20498e-04,9.99999e-01
4.599490440e-01,3.75703e-04,9.99999e-01,9.99999e-01,9.99999e-01,3.75703e-04,9.99999e-01
4.622487892e-01,4.39036e-04,9.99999e-01,9.99999e-01,9.99999e-01,4.39036e-04,9.99999e-01
4.645600332e-01,5.11468e-04,9.99999e-01,9.99999e-01,9.99999e-01,5.11468e-04,9.99999e-01
4.668828333e-01,5.94056e-04,9.99999e-01,9.99999e-01,9.99999e-01,5.94056e-04,9.99999e-01
4.692172475e-01,6.87943e-04,9.99999e-01,9.99999e-01,9.99999e-01,6.87943e-04,9.99999e-01
4.715633337e-01,7.94362e-04,9.99999e-01,9.99999e-01,9.99999e-01,7.94362e-04,9.99999e-01
4.739211504e-01,9.14642e-04,9.99999e-01,9.99999e-01,9.99999e-01,9.14642e-04,9.99999e-01
4.762907561e-01,1.05020e-03,9.99999e-01,9.99999e-01,9.99999e-01,1.05020e-03,9.99999e-01
4.786722099e-01,1.20257e-03,9.99999e-01,9.99999e-01,9.99999e-01,1.20257e-03,9.99999e-01
4.810655710e-01,1.37337e-03,9.99999e-01,9.99999e-01,9.99999e-01,1.37337e-03,9.99999e-01
4.834708988e-01,1.56431e-03,9.99999e-01,9.99999e-01,9.99999e-01,1.56431e-03,9.99999e-01
4.858882533e-01,1.77722e-03,9.99999e-01,9.99999e-01,9.99999e-01,1.77722e-03,9.99999e-01
4.883176946e-01,2.01403e-03,9.99999e-01,9.99999e-01,9.99999e-01,2.01403e-03,9.99999e-01
4.907592831e-01,2.27676e-03,9.99999e-01,9.99999e-01,9.99999e-01,2.27676e-03,9.99999e-01
4.932130795e-01,2.56753e-03,9.99999e-01,9.99999e-01,9.99999e-01,2.56753e-03,9.99999e-01
4.956791449e-01,2.88858e-03,9.99999e-01,9.99999e-01,9.99999e-01,2.88858e-03,9.99999e-01
4.981575406e-01,3.24222e-03,9.99999e-01,9.99999e-01,9.99999e-01,3.24222e-03,9.99999e-01
5.006483283e-01,3.63086e-03,9.99999e-01,9.99999e-01,9.99999e-01,3.63086e-03,9.99999e-01
5.031515699e-01,4.05700e-03,9.99999e-01,9.99999e-01,9.99999e-01,4.05700e-03,9.99999e-01
5.056673278e-01,4.52324e-03,9.99999e-01,9.99999e-01,9.99999e-01,4.52324e-03,9.99999e-01
5.081956644e-01,5.03222e-03,9.99999e-01,9.99999e-01,9.99999e-01,5.03222e-03,9.99999e-01
5.107366428e-01,5.58671e-03,9.99999e-01,9.99999e-01,9.99999e-01,5.58671e-03,9.99999e-01
5.132903260e-01,6.18949e-03,9.99999e-01,9.99999e-01,9.99999e-01,6.18949e-03,9.99999e-01
5.158567776e-01,6.84345e-03,9.99999e-01,9.99999e-01,9.99999e-01,6.84345e-03,9.99999e-01
5.184360615e-01,7.55151e-03,9.99999e-01,9.99999e-01,9.99999e-01,7.55151e-03,9.99999e-01
5.210282418e-01,8.31664e-03,9.99999e-01,9.99999e-01,9.99999e-01,8.31664e-03,9.99999e-01
5.236333830e-01,9.14185e-03,9.99999e-01,9.99999e-01,9.99999e-01,9.14185e-03,9.99999e-01
5.262515499e-01,1.00302e-02,9.99999e-01,9.99999e-01,9.99999e-01,1.00302e-02,9.99999e-01
5.288828077e-01,1.09847e-02,9.99999e-01,9.99999e-01,9.99999e-01,1.09847e-02,9.99999e-01
5.315272217e-01,1.20085e-02,9.99999e-01,9.99999e-01,9.99999e-01,1.20085e-02,9.99999e-01
5.341848578e-01,1.31046e-02,9.99999e-01,9.99999e-01,9.99999e-01,1.31046e-02,9.99999e-01
5.368557821e-01,1.42760e-02,9.99999e-01,9.99999e-01,9.99999e-01,1.42760e-02,9.99999e-01
5.395400610e-01,1.55260e-02,9.99999e-01,9.99999e-01,9.99999e-01,1.55260e-02,9.99999e-01
5.422377613e-01,1.68574e-02,9.99999e-01,9.99999e-01,9.99999e-01,1.68574e-02,9.99999e-01
5.449489501e-01,1.82732e-02,9.99999e-01,9.99999e-01,9.99999e-01,1.82732e-02,9.99999e-01
5.476736949e-01,1.97765e-02,9.99999e-01,9.99999e-01,9.99999e-01,1.97765e-02,9.99999e-01
5.504120634e-01,2.13700e-02,9.99999e-01,9.99999e-01,9.99999e-01,2.13700e-02,9.99999e-01
5.531641237e-01,2.30566e-02,9.99999e-01,9.99999e-01,9.99999e-01,2.30566e-02,9.99999e-01
5.559299443e-01,2.48390e-02,9.99999e-01,9.99999e-01,9.99999e-01,2.48390e-02,9.99999e-01
5.587095940e-01,2.67198e-02,9.99999e-01,9.99999e-01,9.99999e-01,2.67198e-02,9.99999e-01
5.615031420e-01,2.87017e-02,9.99999e-01,9.99999e-01,9.99999e-01,2.87017e-02,9.99999e-01
5.643106577e-01,3.07870e-02,9.99999e-01,9.99999e-01,9.99999e-01,3.07870e-02,9.99999e-01
5.671322110e-01,3.29781e-02,9.99999e-01,9.99999e-01,9.99999e-01,3.29781e-02,9.99999e-01
5.699678720e-01,3.52772e-02,9.99999e-01,9.99999e-01,9.99999e-01,3.52772e-02,9.99999e-01
5.728177114e-01,3.76864e-02,9.99999e-01,9.99999e-01,9.99999e-01,3.76864e-02,9.99999e-01
5.756818000e-01,4.02077e-02,9.99999e-01,9.99999e-01,9.99999e-01,4.02077e-02,9.99999e-01
5.785602090e-01,4.28428e-02,9.99999e-01,9.99999e-01,9.99999e-01,4.28428e-02,9.99999e-01
5.814530100e-01,4.55933e-02,9.99999e-01,9.99999e-01,9.99999e-01,4.55933e-02,9.99999e-01
5.843602750e-01,4.84609e-02,9.99999e-01,9.99999e-01,9.99999e-01,4.84609e-02,9.99999e-01
5.872820764e-01,5.14468e-02,9.99999e-01,9.99999e-01,9.99999e-01,5.14468e-02,9.99999e-01
5.902184868e-01,5.45521e-02,9.99999e-01,9.99999e-01,9.99999e-01,5.45521e-02,9.99999e-01
5.931695792e-01,5.77781e-02,9.99999e-01,9.99999e-01,9.99999e-01,5.77781e-02,9.99999e-01
5.961354271e-01,6.11253e-02,9.99999e-01,9.99999e-01,9.99999e-01,6.11253e-02,9.99999e-01
5.991161043e-01,6.45946e-02,9.99999e-01,9.99999e-01,9.99999e-01,6.45946e-02,9.99999e-01
6.021116848e-01,6.81864e-02,9.99999e-01,9.99999e-01,9.99999e-01,6.81864e-02,9.99999e-01
6.051222432e-01,7.19010e-02,9.99999e-01,9.99999e-01,9.99999e-01,7.19010e-02,9.99999e-01
6.081478544e-01,7.57386e-02,9.99999e-01,9.99999e-01,9.99999e-01,7.57386e-02,9.99999e-01
6.111885937e-01,7.96992e-02,9.99999e-01,9.99999e-01,9.99999e-01,7.96992e-02,9.99999e-01
6.142445367e-01,8.37824e-02,9.99999e-01,9.99999e-01,9.99999e-01,8.37824e-02,9.99999e-01
6.173157594e-01,8.79879e-02,9.99999e-01,9.99999e-01,9.99999e-01,8.79879e-02,9.99999e-01
6.204023382e-01,9.23152e-02,9.99999e-01,9.99999e-01,9.99999e-01,9.23152e-02,9.99999e-01
6.235043498e-01,9.67636e-02,9.99999e-01,9.99999e-01,9.99999e-01,9.67636e-02,9.99999e-01
6.266218716e-01,1.01332e-01,9.99999e-01,9.99999e-01,9.99999e-01,1.01332e-01,9.99999e-01
6.297549810e-01,1.06019e-01,9.99999e-01,9.99999e-01,9.99999e-01,1.06019e-01,9.99999e-01
6.329037559e-01,1.10825e-01,9.99999e-01,9.99999e-01,9.99999e-01,1.10825e-01,9.99999e-01
6.360682746e-01,1.15746e-01,9.99999e-01,9.99999e-01,9.99999e-01,1.15746e-01,9.99999e-01
6.392486160e-01,1.20783e-01,9.99999e-01,9.99999e-01,9.99999e-01,1.20783e-01,9.99999e-01
6.424448591e-01,1.25933e-01,9.99999e-01,9.99999e-01,9.99999e-01,1.25933e-01,9.99999e-01
6.456570834e-01,1.31194e-01,9.99999e-01,9.99999e-01,9.99999e-01,1.31194e-01,9.99999e-01
6.488853688e-01,1.36564e-01,9.99999e-01,9.99999e-01,9.99999e-01,1.36564e-01,9.99999e-01
6.521297956e-01,1.42041e-01,9.99999e-01,9.99999e-01,9.99999e-01,1.42041e-01,9.99999e-01
6.553904446e-01,1.47624e-01,9.99999e-01,9.99999e-01,9.99999e-01,1.47624e-01,9.99999e-01
6.586673968e-01,1.53309e-01,9.99999e-01,9.99999e-01,9.99999e-01,1.53309e-01,9.99999e-01
6.619607338e-01,1.59095e-01,9.99999e-01,9.99999e-01,9.99999e-01,1.59095e-01,9.99999e-01
6.652705375e-01,1.64977e-01,9.99999e-01,9.99999e-01,9.99999e-01,1.64977e-01,9.99999e-01
6.685968902e-01,1.70955e-01,9.99999e-01,9.99999e-01,9.99999e-01,1.70955e-01,9.99999e-01
6.719398746e-01,1.77025e-01,9.99999e-01,9.99999e-01,9.99999e-01,1.77025e-01,9.99999e-01
6.752995740e-01,1.83184e-01,9.99999e-01,9.99999e-01,9.99999e-01,1.83184e-01,9.99999e-01
6.786760719e-01,1.89430e-01,9.99999e-01,9.99999e-01,9.99999e-01,1.89430e-01,9.99999e-01
6.820694522e-01,1.95758e-01,9.99999e-01,9.99999e-01,9.99999e-01,1.95758e-01,9.99999e-01
6.854797995e-01,2.02167e-01,9.99999e-01,9.99999e-01,9.99999e-01,2.02167e-01,9.99999e-01
6.889071985e-01,2.08653e-01,9.99999e-01,9.99999e-01,9.99999e-01,2.08653e-01,9.99999e-01
6.923517345e-01,2.15212e-01,9.99999e-01,9.99999e-01,9.99999e-01,2.15212e-01,9.99999e-01
6.958134932e-01,2.21842e-01,9.99999e-01,9.99999e-01,9.99999e-01,2.21842e-01,9.99999e-01
6.992925606e-01,2.28540e-01,9.99999e-01,9.99999e-01,9.99999e-01,2.28540e-01,9.99999e-01
7.027890234e-01,2.35301e-01,9.99999e-01,9.99999e-01,9.99999e-01,2.35301e-01,9.99999e-01
7.063029686e-01,2.42123e-01,9.99999e-01,9.99999e-01,9.99999e-01,2.42123e-01,9.99999e-01
7.098344834e-01,2.49002e-01,9.99999e-01,9.99999e-01,9.99999e-01,2.49002e-01,9.99999e-01
7.133836558e-01,2.55935e-01,9.99999e-01,9.99999e-01,9.99999e-01,2.55935e-01,9.99999e-01
7.169505741e-01,2.62918e-01,9.99999e-01,9.99999e-01,9.99999e-01,2.62918e-01,9.99999e-01
7.205353270e-01,2.69948e-01,9.99999e-01,9.99999e-01,9.99999e-01,2.69948e-01,9.99999e-01
7.241380036e-01,2.77022e-01,9.99999e-01,9.99999e-01,9.99999e-01,2.77022e-01,9.99999e-01
7.277586936e-01,2.84136e-01,9.99999e-01,9.99999e-01,9.99999e-01,2.84136e-01,9.99999e-01
7.313974871e-01,2.91286e-01,9.99999e-01,9.99999e-01,9.99999e-01,2.91286e-01,9.99999e-01
7.350544745e-01,2.98470e-01,9.99999e-01,9.99999e-01,9.99999e-01,2.98470e-01,9.99999e-01
7.387297469e-01,3.05684e-01,9.99999e-01,9.99999e-01,9.99999e-01,3.05684e-01,9.99999e-01
7.424233956e-01,3.12925e-01,9.99999e-01,9.99999e-01,9.99999e-01,3.12925e-01,9.99999e-01
7.461355126e-01,3.20189e-01,9.99999e-01,9.99999e-01,9.99999e-01,3.20189e-01,9.99999e-01
7.498661902e-01,3.27473e-01,9.99999e-01,9.99999e-01,9.99999e-01,3.27473e-01,9.99999e-01
7.536155211e-01,3.34774e-01,9.99999e-01,9.99999e-01,9.99999e-01,3.34774e-01,9.99999e-01
7.573835987e-01,3.42089e-01,9.99999e-01,9.99999e-01,9.99999e-01,3.42089e-01,9.99999e-01
7.611705167e-01,3.49415e-01,9.99999e-01,9.99999e-01,9.99999e-01,3.49415e-01,9.99999e-01
7.649763693e-01,3.56748e-01,9.99999e-01,9.99999e-01,9.99999e-01,3.56748e-01,9.99999e-01
7.688012511e-01,3.64086e-01,9.99999e-01,9.99999e-01,9.99999e-01,3.64086e-01,9.99999e-01
7.726452574e-01,3.71425e-01,9.99999e-01,9.99999e-01,9.99999e-01,3.71425e-01,9.99999e-01
7.765084837e-01,3.78762e-01,9.99999e-01,9.99999e-01,9.99999e-01,3.78762e-01,9.99999e-01
7.803910261e-01,3.69796e-01,9.99999e-01,9.99999e-01,9.57782e-01,3.86096e-01,9.99999e-01
7.842929812e-01,3.23353e-01,9.99999e-01,9.99999e-01,8.21896e-01,3.93422e-01,9.99999e-01
7.882144461e-01,3.25084e-01,9.99999e-01,9.99999e-01,8.11212e-01,4.00739e-01,9.99999e-01
7.921555184e-01,3.60797e-01,9.99999e-01,9.99999e-01,8.84212e-01,4.08043e-01,9.99999e-01
7.961162960e-01,3.82371e-01,9.99999e-01,9.99999e-01,9.20639e-01,4.15332e-01,9.99999e-01
8.000968774e-01,4.04088e-01,9.99999e-01,9.99999e-01,9.56186e-01,4.22603e-01,9.99999e-01
8.040973618e-01,4.19981e-01,9.99999e-01,9.99999e-01,9.77029e-01,4.29855e-01,9.99999e-01
8.081178486e-01,4.32452e-01,9.99999e-01,9.99999e-01,9.89402e-01,4.37084e-01,9.99999e-01
8.121584379e-01,4.42825e-01,9.99999e-01,9.99999e-01,9.96708e-01,4.44288e-01,9.99999e-01
8.162192301e-01,4.51136e-01,9.99999e-01,9.99999e-01,9.99272e-01,4.51465e-01,9.99999e-01
8.203003262e-01,4.58607e-01,9.99999e-01,9.99999e-01,9.99988e-01,4.58612e-01,9.99999e-01
8.244018279e-01,4.65729e-01,9.99999e-01,9.99999e-01,9.99999e-01,4.65729e-01,9.99999e-01
8.285238370e-01,4.72812e-01,9.99999e-01,9.99999e-01,9.99999e-01,4.72812e-01,9.99999e-01
8.326664562e-01,4.79859e-01,9.99999e-01,9.99999e-01,9.99999e-01,4.79859e-01,9.99999e-01
8.368297885e-01,4.86870e-01,9.99999e-01,9.99999e-01,9.99999e-01,4.86870e-01,9.99999e-01
8.410139374e-01,4.93841e-01,9.99999e-01,9.99999e-01,9.99999e-01,4.93841e-01,9.99999e-01
8.452190071e-01,5.00771e-01,9.99999e-01,9.99999e-01,9.99999e-01,5.00771e-01,9.99999e-01
8.494451021e-01,5.07659e-01,9.99999e-01,9.99999e-01,9.99999e-01,5.07659e-01,9.99999e-01
8.536923276e-01,5.14503e-01,9.99999e-01,9.99999e-01,9.99999e-01,5.14503e-01,9.99999e-01
8.579607893e-01,5.21301e-01,9.99999e-01,9.99999e-01,9.99999e-01,5.21301e-01,9.99999e-01
8.622505932e-01,5.28052e-01,9.99999e-01,9.99999e-01,9.99999e-01,5.28052e-01,9.99999e-01
8.665618462e-01,4.88728e-01,9.99999e-01,9.99999e-01,9.13927e-01,5.34755e-01,9.99999e-01
8.708946554e-01,3.30303e-01,9.99999e-01,9.99999e-01,6.10081e-01,5.41408e-01,9.99999e-01
8.752491287e-01,3.66972e-01,9.99999e-01,9.99999e-01,6.69645e-01,5.48009e-01,9.99999e-01
8.796253743e-01,4.44374e-01,9.99999e-01,9.99999e-01,8.01311e-01,5.54559e-01,9.99999e-01
8.840235012e-01,5.00021e-01,9.99999e-01,9.99999e-01,8.91215e-01,5.61055e-01,9.99999e-01
8.884436187e-01,5.42269e-01,9.99999e-01,9.99999e-01,9.55546e-01,5.67496e-01,9.99999e-01
8.928858368e-01,5.63415e-01,9.99999e-01,9.99999e-01,9.81759e-01,5.73882e-01,9.99999e-01
8.973502660e-01,5.77620e-01,9.99999e-01,9.99999e-01,9.95532e-01,5.80212e-01,9.99999e-01
9.018370173e-01,5.86195e-01,9.99999e-01,9.99999e-01,9.99506e-01,5.86484e-01,9.99999e-01
9.063462024e-01,5.85316e-01,9.99999e-01,9.99999e-01,9.87543e-01,5.92699e-01,9.99999e-01
9.108779334e-01,5.81720e-01,9.99999e-01,9.99999e-01,9.71387e-01,5.98854e-01,9.99999e-01
9.154323231e-01,6.00833e-01,9.99999e-01,9.99999e-01,9.93194e-01,6.04950e-01,9.99999e-01
9.200094847e-01,5.54712e-01,9.99999e-01,9.99999e-01,9.07895e-01,6.10986e-01,9.99999e-01
9.246095321e-01,5.35330e-01,9.99999e-01,9.99999e-01,8.67688e-01,6.16961e-01,9.99999e-01
9.292325798e-01,5.57663e-01,9.99999e-01,9.99999e-01,8.95304e-01,6.22874e-01,9.99999e-01
9.338787427e-01,5.64703e-01,9.99999e-01,9.99999e-01,8.98169e-01,6.28726e-01,9.99999e-01
9.385481364e-01,5.86314e-01,9.99999e-01,9.99999e-01,9.24034e-01,6.34516e-01,9.99999e-01
9.432408771e-01,6.09969e-01,9.99999e-01,9.99999e-01,9.52715e-01,6.40243e-01,9.99999e-01
9.479570815e-01,6.30064e-01,9.99999e-01,9.99999e-01,9.75471e-01,6.45907e-01,9.99999e-01
9.526968669e-01,6.43751e-01,9.99999e-01,9.99999e-01,9.88094e-01,6.51507e-01,9.99999e-01
9.574603512e-01,6.53688e-01,9.99999e-01,9.99999e-01,9.94891e-01,6.57045e-01,9.99999e-01
9.622476530e-01,6.61461e-01,9.99999e-01,9.99999e-01,9.98403e-01,6.62518e-01,9.99999e-01
9.670588912e-01,6.67608e-01,9.99999e-01,9.99999e-01,9.99521e-01,6.67928e-01,9.99999e-01
9.718941857e-01,6.73251e-01,9.99999e-01,9.99999e-01,9.99965e-01,6.73274e-01,9.99999e-01
9.767536566e-01,6.78555e-01,9.99999e-01,9.99999e-01,9.99999e-01,6.78555e-01,9.99999e-01
9.816374249e-01,6.83773e-01,9.99999e-01,9.99999e-01,9.99999e-01,6.83773e-01,9.99999e-01
9.865456120e-01,6.88926e-01,9.99999e-01,9.99999e-01,9.99999e-01,6.88926e-01,9.99999e-01
9.914783401e-01,6.94016e-01,9.99999e-01,9.99999e-01,9.99999e-01,6.94016e-01,9.99999e-01
9.964357318e-01,6.99041e-01,9.99999e-01,9.99999e-01,9.99999e-01,6.99041e-01,9.99999e-01
1.001417910e+00,7.04002e-01,9.99999e-01,9.99999e-01,9.99999e-01,7.04002e-01,9.99999e-01
1.006425000e+00,7.08900e-01,9.99999e-01,9.99999e-01,9.99999e-01,7.08900e-01,9.99999e-01
1.011457125e+00,7.13734e-01,9.99999e-01,9.99999e-01,9.99999e-01,7.13734e-01,9.99999e-01
1.016514411e+00,7.18504e-01,9.99999e-01,9.99999e-01,9.99999e-01,7.18504e-01,9.99999e-01
1.021596983e+00,7.23164e-01,9.99999e-01,9.99999e-01,9.99935e-01,7.23211e-01,9.99999e-01
1.026704968e+00,7.24307e-01,9.99999e-01,9.99999e-01,9.95125e-01,7.27855e-01,9.99999e-01
1.031838492e+00,6.94229e-01,9.99999e-01,9.99999e-01,9.47835e-01,7.32436e-01,9.99999e-01
1.036997685e+00,8.83632e-02,9.99999e-01,9.99999e-01,1.19903e-01,7.36955e-01,9.99999e-01
1.042182673e+00,4.94331e-02,9.99999e-01,9.99999e-01,6.66742e-02,7.41411e-01,9.99999e-01
1.047393587e+00,6.84947e-02,9.99999e-01,9.99999e-01,9.18398e-02,7.45806e-01,9.99999e-01
1.052630555e+00,7.71190e-04,9.99999e-01,9.99999e-01,1.02806e-03,7.50139e-01,9.99999e-01
1.057893707e+00,2.22991e-03,9.99999e-01,9.99999e-01,2.95583e-03,7.54411e-01,9.99999e-01
1.063183176e+00,1.00866e-02,9.99999e-01,9.99999e-01,1.32959e-02,7.58622e-01,9.99999e-01
1.068499092e+00,3.59272e-02,9.99999e-01,9.99999e-01,4.71008e-02,7.62773e-01,9.99999e-01
1.073841587e+00,1.10495e-01,9.99999e-01,9.99999e-01,1.44087e-01,7.66864e-01,9.99999e-01
1.079210795e+00,2.25992e-01,9.99999e-01,9.99999e-01,2.93155e-01,7.70896e-01,9.99999e-01
1.084606849e+00,3.92854e-01,9.99999e-01,9.99999e-01,5.06994e-01,7.74868e-01,9.99999e-01
1.090029883e+00,5.47085e-01,9.99999e-01,9.99999e-01,7.02487e-01,7.78782e-01,9.99999e-01
1.095480033e+00,6.57540e-01,9.99999e-01,9.99999e-01,8.40158e-01,7.82637e-01,9.99999e-01
1.100957433e+00,7.23099e-01,9.99999e-01,9.99999e-01,9.19464e-01,7.86435e-01,9.99999e-01
1.106462220e+00,7.63197e-01,9.99999e-01,9.99999e-01,9.65856e-01,7.90176e-01,9.99999e-01
1.111994531e+00,7.83703e-01,9.99999e-01,9.99999e-01,9.87204e-01,7.93860e-01,9.99999e-01
1.117554504e+00,7.94983e-01,9.99999e-01,9.99999e-01,9.96858e-01,7.97488e-01,9.99999e-01
1.123142276e+00,8.00895e-01,9.99999e-01,9.99999e-01,9.99792e-01,8.01061e-01,9.99999e-01
1.128757988e+00,8.04578e-01,9.99999e-01,9.99999e-01,9.99999e-01,8.04578e-01,9.99999e-01
1.134401778e+00,8.08041e-01,9.99999e-01,9.99999e-01,9.99999e-01,8.08041e-01,9.99999e-01
1.140073787e+00,8.11450e-01,9.99999e-01,9.99999e-01,9.99999e-01,8.11450e-01,9.99999e-01
1.145774156e+00,8.14806e-01,9.99999e-01,9.99999e-01,9.99999e-01,8.14806e-01,9.99999e-01
1.151503026e+00,8.18109e-01,9.99999e-01,9.99999e-01,9.99999e-01,8.18109e-01,9.99999e-01
1.157260541e+00,8.21360e-01,9.99999e-01,9.99999e-01,9.99999e-01,8.21360e-01,9.99999e-01
1.163046844e+00,8.24559e-01,9.99999e-01,9.99999e-01,9.99999e-01,8.24559e-01,9.99999e-01
1.168862078e+00,8.27706e-01,9.99999e-01,9.99999e-01,9.99999e-01,8.27706e-01,9.99999e-01
1.174706389e+00,8.30804e-01,9.99999e-01,9.99999e-01,9.99999e-01,8.30804e-01,9.99999e-01
1.180579921e+00,8.33851e-01,9.99999e-01,9.99999e-01,9.99999e-01,8.33851e-01,9.99999e-01
1.186482820e+00,8.36842e-01,9.99999e-01,9.99999e-01,9.99991e-01,8.36849e-01,9.99999e-01
1.192415234e+00,8.25360e-01,9.99999e-01,9.99999e-01,9.82807e-01,8.39799e-01,9.99999e-01
1.198377311e+00,4.67144e-01,9.99999e-01,9.99999e-01,5.54341e-01,8.42700e-01,9.99999e-01
1.204369197e+00,5.32398e-14,9.99999e-01,9.99999e-01,6.29643e-14,8.45553e-01,9.99999e-01
1.210391043e+00,9.87948e-53,9.99999e-01,9.99999e-01,1.16454e-52,8.48360e-01,9.99999e-01
1.216442998e+00,8.32966e-46,9.99999e-01,9.99999e-01,9.78670e-46,8.51120e-01,9.99999e-01
1.222525213e+00,3.87931e-45,9.99999e-01,9.99999e-01,4.54339e-45,8.53835e-01,9.99999e-01
1.228637839e+00,5.84468e-35,9.99999e-01,9.99999e-01,6.82388e-35,8.56504e-01,9.99999e-01
