#,Wave/freq,Total,N2,O2,CO2,Rayleigh,CIA
4.000000000e-01,3.06690e-03,9.99999e-01,9.99999e-01,9.99999e-01,3.06690e-03,9.99999e-01
4.020000000e-01,3.43870e-03,9.99999e-01,9.99999e-01,9.99999e-01,3.43870e-03,9.99999e-01
4.040100000e-01,3.84642e-03,9.99999e-01,9.99999e-01,9.99999e-01,3.84642e-03,9.99999e-01
4.060300500e-01,4.29297e-03,9.99999e-01,9.99999e-01,9.99999e-01,4.29297e-03,9.99999e-01
4.080602003e-01,4.78098e-03,9.99999e-01,9.99999e-01,9.99999e-01,4.78098e-03,9.99999e-01
4.101005013e-01,5.31315e-03,9.99999e-01,9.99999e-01,9.99999e-01,5.31315e-03,9.99999e-01
4.121510038e-01,5.89226e-03,9.99999e-01,9.99999e-01,9.99999e-01,5.89226e-03,9.99999e-01
4.142117588e-01,6.52115e-03,9.99999e-01,9.99999e-01,9.99999e-01,6.52115e-03,9.99999e-01
4.162828176e-01,7.20272e-03,9.99999e-01,9.99999e-01,9.99999e-01,7.20272e-03,9.99999e-01
4.183642317e-01,7.93993e-03,9.99999e-01,9.99999e-01,9.99999e-01,7.93993e-03,9.99999e-01
4.204560528e-01,8.73575e-03,9.99999e-01,9.99999e-01,9.99999e-01,8.73575e-03,9.99999e-01
4.225583331e-01,9.59323e-03,9.99999e-01,9.99999e-01,9.99999e-01,9.59323e-03,9.99999e-01
4.246711247e-01,1.05154e-02,9.99999e-01,9.99999e-01,9.99999e-01,1.05154e-02,9.99999e-01
4.267944804e-01,1.15053e-02,9.99999e-01,9.99999e-01,9.99999e-01,1.15053e-02,9.99999e-01
4.289284528e-01,1.25661e-02,9.99999e-01,9.99999e-01,9.99999e-01,1.25661e-02,9.99999e-01
4.310730950e-01,1.37008e-02,9.99999e-01,9.99999e-01,9.99999e-01,1.37008e-02,9.99999e-01
4.332284605e-01,1.49125e-02,9.99999e-01,9.99999e-01,9.99999e-01,1.49125e-02,9.99999e-01
4.353946028e-01,1.62042e-02,9.99999e-01,9.99999e-01,9.99999e-01,1.62042e-02,9.99999e-01
4.375715758e-01,1.75789e-02,9.99999e-01,9.99999e-01,9.99999e-01,1.75789e-02,9.99999e-01
4.397594337e-01,1.90396e-02,9.99999e-01,9.99999e-01,9.99999e-01,1.90396e-02,9.99999e-01
4.419582309e-01,2.05892e-02,9.99999e-01,9.99999e-01,9.99999e-01,2.05892e-02,9.99999e-01
4.441680220e-01,2.22305e-02,9.99999e-01,9.99999e-01,9.99999e-01,2.22305e-02,9.99999e-01
4.463888621e-01,2.39663e-02,9.99999e-01,9.99999e-01,9.99999e-01,2.39663e-02,9.99999e-01
4.486208064e-01,2.57993e-02,9.99999e-01,9.99999e-01,9.99999e-01,2.57993e-02,9.99999e-01
4.508639105e-01,2.77321e-02,9.99999e-01,9.99999e-01,9.99999e-01,2.77321e-02,9.99999e-01
4.531182300e-01,2.97671e-02,9.99999e-01,9.99999e-01,9.99999e-01,2.97671e-02,9.99999e-01
4.553838212e-01,3.19069e-02,9.99999e-01,9.99999e-01,9.99999e-01,3.19069e-02,9.99999e-01
4.576607403e-01,3.41536e-02,9.99999e-01,9.99999e-01,9.99999e-01,3.41536e-02,9.99999e-01
4.599490440e-01,3.65094e-02,9.99999e-01,9.99999e-01,9.99999e-01,3.65094e-02,9.99999e-01
4.622487892e-01,3.89763e-02,9.99999e-01,9.99999e-01,9.99999e-01,3.89763e-02,9.99999e-01
4.645600332e-01,4.15562e-02,9.99999e-01,9.99999e-01,9.99999e-01,4.15562e-02,9.99999e-01
4.668828333e-01,4.42508e-02,9.99999e-01,9.99999e-01,9.99999e-01,4.42508e-02,9.99999e-01
4.692172475e-01,4.70617e-02,9.99999e-01,9.99999e-01,9.99999e-01,4.70617e-02,9.99999e-01
4.715633337e-01,4.99903e-02,9.99999e-01,9.99999e-01,9.99999e-01,4.99903e-02,9.99999e-01
4.739211504e-01,5.30379e-02,9.99999e-01,9.99999e-01,9.99999e-01,5.30379e-02,9.99999e-01
4.762907561e-01,5.62055e-02,9.99999e-01,9.99999e-01,9.99999e-01,5.62055e-02,9.99999e-01
4.786722099e-01,5.94941e-02,9.99999e-01,9.99999e-01,9.99999e-01,5.94941e-02,9.99999e-01
4.810655710e-01,6.29044e-02,9.99999e-01,9.99999e-01,9.99999e-01,6.29044e-02,9.99999e-01
4.834708988e-01,6.64370e-02,9.99999e-01,9.99999e-01,9.99999e-01,6.64370e-02,9.99999e-01
4.858882533e-01,7.00923e-02,9.99999e-01,9.99999e-01,9.99999e-01,7.00923e-02,9.99999e-01
4.883176946e-01,7.38705e-02,9.99999e-01,9.99999e-01,9.99999e-01,7.38705e-02,9.99999e-01
4.907592831e-01,7.77717e-02,9.99999e-01,9.99999e-01,9.99999e-01,7.77717e-02,9.99999e-01
4.932130795e-01,8.17957e-02,9.99999e-01,9.99999e-01,9.99999e-01,8.17957e-02,9.99999e-01
4.956791449e-01,8.59423e-02,9.99999e-01,9.99999e-01,9.99999e-01,8.59423e-02,9.99999e-01
4.981575406e-01,9.02109e-02,9.99999e-01,9.99999e-01,9.99999e-01,9.02109e-02,9.99999e-01
5.006483283e-01,9.46009e-02,9.99999e-01,9.99999e-01,9.99999e-01,9.46009e-02,9.99999e-01
5.031515699e-01,9.91114e-02,9.99999e-01,9.99999e-01,9.99999e-01,9.91114e-02,9.99999e-01
5.056673278e-01,1.03742e-01,9.99999e-01,9.99999e-01,9.99999e-01,1.03742e-01,9.99999e-01
5.081956644e-01,1.08490e-01,9.99999e-01,9.99999e-01,9.99999e-01,1.08490e-01,9.99999e-01
5.107366428e-01,1.13356e-01,9.99999e-01,9.99999e-01,9.99999e-01,1.13356e-01,9.99999e-01
5.132903260e-01,1.18337e-01,9.99999e-01,9.99999e-01,9.99999e-01,1.18337e-01,9.99999e-01
5.158567776e-01,1.23432e-01,9.99999e-01,9.99999e-01,9.99999e-01,1.23432e-01,9.99999e-01
5.184360615e-01,1.28640e-01,9.99999e-01,9.99999e-01,9.99999e-01,1.28640e-01,9.99999e-01
5.210282418e-01,1.33958e-01,9.99999e-01,9.99999e-01,9.99999e-01,1.33958e-01,9.99999e-01
5.236333830e-01,1.39384e-01,9.99999e-01,9.99999e-01,9.99999e-01,1.39384e-01,9.99999e-01
5.262515499e-01,1.44916e-01,9.99999e-01,9.99999e-01,9.99999e-01,1.44916e-01,9.99999e-01
5.288828077e-01,1.50552e-01,9.99999e-01,9.99999e-01,9.99999e-01,1.50552e-01,9.99999e-01
5.315272217e-01,1.56289e-01,9.99999e-01,9.99999e-01,9.99999e-01,1.56289e-01,9.99999e-01
5.341848578e-01,1.62125e-01,9.99999e-01,9.99999e-01,9.99999e-01,1.62125e-01,9.99999e-01
5.368557821e-01,1.68057e-01,9.99999e-01,9.99999e-01,9.99999e-01,1.68057e-01,9.99999e-01
5.395400610e-01,1.74083e-01,9.99999e-01,9.99999e-01,9.99999e-01,1.74083e-01,9.99999e-01
5.422377613e-01,1.80200e-01,9.99999e-01,9.99999e-01,9.99999e-01,1.80200e-01,9.99999e-01
5.449489501e-01,1.86404e-01,9.99999e-01,9.99999e-01,9.99999e-01,1.86404e-01,9.99999e-01
5.476736949e-01,1.92693e-01,9.99999e-01,9.99999e-01,9.99999e-01,1.92693e-01,9.99999e-01
5.504120634e-01,1.99063e-01,9.99999e-01,9.99999e-01,9.99999e-01,1.99063e-01,9.99999e-01
5.531641237e-01,2.05512e-01,9.99999e-01,9.99999e-01,9.99999e-01,2.05512e-01,9.99999e-01
5.559299443e-01,2.12036e-01,9.99999e-01,9.99999e-01,9.99999e-01,2.12036e-01,9.99999e-01
5.587095940e-01,2.18633e-01,9.99999e-01,9.99999e-01,9.99999e-01,2.18633e-01,9.99999e-01
5.615031420e-01,2.25298e-01,9.99999e-01,9.99999e-01,9.99999e-01,2.25298e-01,9.99999e-01
5.643106577e-01,2.32029e-01,9.99999e-01,9.99999e-01,9.99999e-01,2.32029e-01,9.99999e-01
5.671322110e-01,2.38822e-01,9.99999e-01,9.99999e-01,9.99999e-01,2.38822e-01,9.99999e-01
5.699678720e-01,2.45674e-01,9.99999e-01,9.99999e-01,9.99999e-01,2.45674e-01,9.99999e-01
5.728177114e-01,2.52581e-01,9.99999e-01,9.99999e-01,9.99999e-01,2.52581e-01,9.99999e-01
5.756818000e-01,2.59540e-01,9.99999e-01,9.99999e-01,9.99999e-01,2.59540e-01,9.99999e-01
5.785602090e-01,2.66548e-01,9.99999e-01,9.99999e-01,9.99999e-01,2.66548e-01,9.99999e-01
5.814530100e-01,2.73601e-01,9.99999e-01,9.99999e-01,9.99999e-01,2.73601e-01,9.99999e-01
5.843602750e-01,2.80696e-01,9.99999e-01,9.99999e-01,9.99999e-01,2.80696e-01,9.99999e-01
5.872820764e-01,2.87829e-01,9.99999e-01,9.99999e-01,9.99999e-01,2.87829e-01,9.99999e-01
5.902184868e-01,2.94998e-01,9.99999e-01,9.99999e-01,9.99999e-01,2.94998e-01,9.99999e-01
5.931695792e-01,3.02198e-01,9.99999e-01,9.99999e-01,9.99999e-01,3.02198e-01,9.99999e-01
5.961354271e-01,3.09426e-01,9.99999e-01,9.99999e-01,9.99999e-01,3.09426e-01,9.99999e-01
5.991161043e-01,3.16679e-01,9.99999e-01,9.99999e-01,9.99999e-01,3.16679e-01,9.99999e-01
6.021116848e-01,3.23954e-01,9.99999e-01,9.99999e-01,9.99999e-01,3.23954e-01,9.99999e-01
6.051222432e-01,3.31247e-01,9.99999e-01,9.99999e-01,9.99999e-01,3.31247e-01,9.99999e-01
6.081478544e-01,3.38556e-01,9.99999e-01,9.99999e-01,9.99999e-01,3.38556e-01,9.99999e-01
6.111885937e-01,3.45877e-01,9.99999e-01,9.99999e-01,9.99999e-01,3.45877e-01,9.99999e-01
6.142445367e-01,3.53207e-01,9.99999e-01,9.99999e-01,9.99999e-01,3.53207e-01,9.99999e-01
6.173157594e-01,3.60543e-01,9.99999e-01,9.99999e-01,9.99999e-01,3.60543e-01,9.99999e-01
6.204023382e-01,3.67881e-01,9.99999e-01,9.99999e-01,9.99999e-01,3.67881e-01,9.99999e-01
6.235043498e-01,3.75220e-01,9.99999e-01,9.99999e-01,9.99999e-01,3.75220e-01,9.99999e-01
6.266218716e-01,3.82556e-01,9.99999e-01,9.99999e-01,9.99999e-01,3.82556e-01,9.99999e-01
6.297549810e-01,3.89886e-01,9.99999e-01,9.99999e-01,9.99999e-01,3.89886e-01,9.99999e-01
6.329037559e-01,3.97208e-01,9.99999e-01,9.99999e-01,9.99999e-01,3.97208e-01,9.99999e-01
6.360682746e-01,4.04518e-01,9.99999e-01,9.99999e-01,9.99999e-01,4.04518e-01,9.99999e-01
6.392486160e-01,4.11815e-01,9.99999e-01,9.99999e-01,9.99999e-01,4.11815e-01,9.99999e-01
6.424448591e-01,4.19095e-01,9.99999e-01,9.99999e-01,9.99999e-01,4.19095e-01,9.99999e-01
6.456570834e-01,4.26357e-01,9.99999e-01,9.99999e-01,9.99999e-01,4.26357e-01,9.99999e-01
6.488853688e-01,4.33597e-01,9.99999e-01,9.99999e-01,9.99999e-01,4.33597e-01,9.99999e-01
6.521297956e-01,4.40813e-01,9.99999e-01,9.99999e-01,9.99999e-01,4.40813e-01,9.99999e-01
6.553904446e-01,4.48003e-01,9.99999e-01,9.99999e-01,9.99999e-01,4.48003e-01,9.99999e-01
6.586673968e-01,4.55165e-01,9.99999e-01,9.99999e-01,9.99999e-01,4.55165e-01,9.99999e-01
6.619607338e-01,4.62297e-01,9.99999e-01,9.99999e-01,9.99999e-01,4.62297e-01,9.99999e-01
6.652705375e-01,4.69396e-01,9.99999e-01,9.99999e-01,9.99999e-01,4.69396e-01,9.99999e-01
6.685968902e-01,4.76461e-01,9.99999e-01,9.99999e-01,9.99999e-01,4.76461e-01,9.99999e-01
6.719398746e-01,4.83490e-01,9.99999e-01,9.99999e-01,9.99999e-01,4.83490e-01,9.99999e-01
6.752995740e-01,4.90480e-01,9.99999e-01,9.99999e-01,9.99999e-01,4.90480e-01,9.99999e-01
6.786760719e-01,4.97431e-01,9.99999e-01,9.99999e-01,9.99999e-01,4.97431e-01,9.99999e-01
6.820694522e-01,5.04339e-01,9.99999e-01,9.99999e-01,9.99999e-01,5.04339e-01,9.99999e-01
6.854797995e-01,5.11205e-01,9.99999e-01,9.99999e-01,9.99999e-01,5.11205e-01,9.99999e-01
6.889071985e-01,5.18025e-01,9.99999e-01,9.99999e-01,9.99999e-01,5.18025e-01,9.99999e-01
6.923517345e-01,5.24799e-01,9.99999e-01,9.99999e-01,9.99999e-01,5.24799e-01,9.99999e-01
6.958134932e-01,5.31525e-01,9.99999e-01,9.99999e-01,9.99999e-01,5.31525e-01,9.99999e-01
6.992925606e-01,5.38202e-01,9.99999e-01,9.99999e-01,9.99999e-01,5.38202e-01,9.99999e-01
7.027890234e-01,5.44829e-01,9.99999e-01,9.99999e-01,9.99999e-01,5.44829e-01,9.99999e-01
7.063029686e-01,5.51403e-01,9.99999e-01,9.99999e-01,9.99999e-01,5.51403e-01,9.99999e-01
7.098344834e-01,5.57925e-01,9.99999e-01,9.99999e-01,9.99999e-01,5.57925e-01,9.99999e-01
7.133836558e-01,5.64393e-01,9.99999e-01,9.99999e-01,9.99999e-01,5.64393e-01,9.99999e-01
7.169505741e-01,5.70806e-01,9.99999e-01,9.99999e-01,9.99999e-01,5.70806e-01,9.99999e-01
7.205353270e-01,5.77163e-01,9.99999e-01,9.99999e-01,9.99999e-01,5.77163e-01,9.99999e-01
7.241380036e-01,5.83463e-01,9.99999e-01,9.99999e-01,9.99999e-01,5.83463e-01,9.99999e-01
7.277586936e-01,5.89706e-01,9.99999e-01,9.99999e-01,9.99999e-01,5.89706e-01,9.99999e-01
7.313974871e-01,5.95890e-01,9.99999e-01,9.99999e-01,9.99999e-01,5.95890e-01,9.99999e-01
7.350544745e-01,6.02014e-01,9.99999e-01,9.99999e-01,9.99999e-01,6.02014e-01,9.99999e-01
7.387297469e-01,6.08079e-01,9.99999e-01,9.99999e-01,9.99999e-01,6.08079e-01,9.99999e-01
7.424233956e-01,6.14084e-01,9.99999e-01,9.99999e-01,9.99999e-01,6.14084e-01,9.99999e-01
7.461355126e-01,6.20027e-01,9.99999e-01,9.99999e-01,9.99999e-01,6.20027e-01,9.99999e-01
7.498661902e-01,6.25909e-01,9.99999e-01,9.99999e-01,9.99999e-01,6.25909e-01,9.99999e-01
7.536155211e-01,6.31728e-01,9.99999e-01,9.99999e-01,9.99999e-01,6.31728e-01,9.99999e-01
7.573835987e-01,6.37485e-01,9.99999e-01,9.99999e-01,9.99999e-01,6.37485e-01,9.99999e-01
7.611705167e-01,6.43180e-01,9.99999e-01,9.99999e-01,9.99999e-01,6.43180e-01,9.99999e-01
7.649763693e-01,6.48811e-01,9.99999e-01,9.99999e-01,9.99999e-01,6.48811e-01,9.99999e-01
7.688012511e-01,6.54379e-01,9.99999e-01,9.99999e-01,9.99999e-01,6.54379e-01,9.99999e-01
7.726452574e-01,6.59884e-01,9.99999e-01,9.99999e-01,9.99999e-01,6.59884e-01,9.99999e-01
7.765084837e-01,6.65324e-01,9.99999e-01,9.99999e-01,9.99999e-01,6.65324e-01,9.99999e-01
7.803910261e-01,6.57669e-01,9.99999e-01,9.99999e-01,9.80569e-01,6.70701e-01,9.99999e-01
7.842929812e-01,6.21425e-01,9.99999e-01,9.99999e-01,9.19249e-01,6.76013e-01,9.99999e-01
7.882144461e-01,6.22352e-01,9.99999e-01,9.99999e-01,9.13527e-01,6.81262e-01,9.99999e-01
7.921555184e-01,6.51650e-01,9.99999e-01,9.99999e-01,9.49308e-01,6.86446e-01,9.99999e-01
7.961162960e-01,6.67959e-01,9.99999e-01,9.99999e-01,9.65862e-01,6.91567e-01,9.99999e-01
8.000968774e-01,6.83639e-01,9.99999e-01,9.99999e-01,9.81361e-01,6.96623e-01,9.99999e-01
8.040973618e-01,6.94814e-01,9.99999e-01,9.99999e-01,9.90306e-01,7.01615e-01,9.99999e-01
8.081178486e-01,7.03393e-01,9.99999e-01,9.99999e-01,9.95540e-01,7.06543e-01,9.99999e-01
8.121584379e-01,7.10427e-01,9.99999e-01,9.99999e-01,9.98620e-01,7.11408e-01,9.99999e-01
8.162192301e-01,7.15991e-01,9.99999e-01,9.99999e-01,9.99695e-01,7.16209e-01,9.99999e-01
8.203003262e-01,7.20943e-01,9.99999e-01,9.99999e-01,9.99994e-01,7.20946e-01,9.99999e-01
8.244018279e-01,7.25621e-01,9.99999e-01,9.99999e-01,9.99999e-01,7.25621e-01,9.99999e-01
8.285238370e-01,7.30232e-01,9.99999e-01,9.99999e-01,9.99999e-01,7.30232e-01,9.99999e-01
8.326664562e-01,7.34781e-01,9.99999e-01,9.99999e-01,9.99999e-01,7.34781e-01,9.99999e-01
8.368297885e-01,7.39268e-01,9.99999e-01,9.99999e-01,9.99999e-01,7.39268e-01,9.99999e-01
8.410139374e-01,7.43692e-01,9.99999e-01,9.99999e-01,9.99999e-01,7.43692e-01,9.99999e-01
8.452190071e-01,7.48055e-01,9.99999e-01,9.99999e-01,9.99999e-01,7.48055e-01,9.99999e-01
8.494451021e-01,7.52356e-01,9.99999e-01,9.99999e-01,9.99999e-01,7.52356e-01,9.99999e-01
8.536923276e-01,7.56597e-01,9.99999e-01,9.99999e-01,9.99999e-01,7.56597e-01,9.99999e-01
8.579607893e-01,7.60777e-01,9.99999e-01,9.99999e-01,9.99999e-01,7.60777e-01,9.99999e-01
8.622505932e-01,7.64897e-01,9.99999e-01,9.99999e-01,9.99999e-01,7.64897e-01,9.99999e-01
8.665618462e-01,7.30398e-01,9.99999e-01,9.99999e-01,9.49855e-01,7.68957e-01,9.99999e-01
8.708946554e-01,6.22369e-01,9.99999e-01,9.99999e-01,8.05178e-01,7.72957e-01,9.99999e-01
8.752491287e-01,6.53725e-01,9.99999e-01,9.99999e-01,8.41454e-01,7.76899e-01,9.99999e-01
8.796253743e-01,7.10776e-01,9.99999e-01,9.99999e-01,9.10336e-01,7.80783e-01,9.99999e-01
8.840235012e-01,7.47473e-01,9.99999e-01,9.99999e-01,9.52669e-01,7.84609e-01,9.99999e-01
8.884436187e-01,7.73481e-01,9.99999e-01,9.99999e-01,9.81105e-01,7.88377e-01,9.99999e-01
8.928858368e-01,7.85998e-01,9.99999e-01,9.99999e-01,9.92310e-01,7.92088e-01,9.99999e-01
8.973502660e-01,7.94254e-01,9.99999e-01,9.99999e-01,9.98127e-01,7.95744e-01,9.99999e-01
9.018370173e-01,7.99178e-01,9.99999e-01,9.99999e-01,9.99793e-01,7.99343e-01,9.99999e-01
9.063462024e-01,7.98623e-01,9.99999e-01,9.99999e-01,9.94688e-01,8.02887e-01,9.99999e-01
9.108779334e-01,7.96608e-01,9.99999e-01,9.99999e-01,9.87885e-01,8.06376e-01,9.99999e-01
9.154323231e-01,8.07499e-01,9.99999e-01,9.99999e-01,9.97144e-01,8.09811e-01,9.99999e-01
9.200094847e-01,7.79063e-01,9.99999e-01,9.99999e-01,9.58029e-01,8.13193e-01,9.99999e-01
9.246095321e-01,7.69164e-01,9.99999e-01,9.99999e-01,9.42001e-01,8.16521e-01,9.99999e-01
9.292325798e-01,7.82141e-01,9.99999e-01,9.99999e-01,9.54067e-01,8.19797e-01,9.99999e-01
9.338787427e-01,7.86547e-01,9.99999e-01,9.99999e-01,9.55682e-01,8.23021e-01,9.99999e-01
9.385481364e-01,7.99184e-01,9.99999e-01,9.99999e-01,9.67309e-01,8.26193e-01,9.99999e-01
9.432408771e-01,8.12634e-01,9.99999e-01,9.99999e-01,9.79886e-01,8.29315e-01,9.99999e-01
9.479570815e-01,8.23758e-01,9.99999e-01,9.99999e-01,9.89634e-01,8.32386e-01,9.99999e-01
9.526968669e-01,8.31222e-01,9.99999e-01,9.99999e-01,9.94988e-01,8.35408e-01,9.99999e-01
9.574603512e-01,8.36583e-01,9.99999e-01,9.99999e-01,9.97854e-01,8.38381e-01,9.99999e-01
9.622476530e-01,8.40742e-01,9.99999e-01,9.99999e-01,9.99330e-01,8.41305e-01,9.99999e-01
9.670588912e-01,8.44012e-01,9.99999e-01,9.99999e-01,9.99799e-01,8.44182e-01,9.99999e-01
9.718941857e-01,8.46999e-01,9.99999e-01,9.99999e-01,9.99985e-01,8.47011e-01,9.99999e-01
9.767536566e-01,8.49793e-01,9.99999e-01,9.99999e-01,9.99999e-01,8.49793e-01,9.99999e-01
9.816374249e-01,8.52530e-01,9.99999e-01,9.99999e-01,9.99999e-01,8.52530e-01,9.99999e-01
9.865456120e-01,8.55221e-01,9.99999e-01,9.99999e-01,9.99999e-01,8.55221e-01,9.99999e-01
9.914783401e-01,8.57867e-01,9.99999e-01,9.99999e-01,9.99999e-01,8.57867e-01,9.99999e-01
9.964357318e-01,8.60468e-01,9.99999e-01,9.99999e-01,9.99999e-01,8.60468e-01,9.99999e-01
1.001417910e+00,8.63026e-01,9.99999e-01,9.99999e-01,9.99999e-01,8.63026e-01,9.99999e-01
1.006425000e+00,8.65541e-01,9.99999e-01,9.99999e-01,9.99999e-01,8.65541e-01,9.99999e-01
1.011457125e+00,8.68013e-01,9.99999e-01,9.99999e-01,9.99999e-01,8.68013e-01,9.99999e-01
1.016514411e+00,8.70444e-01,9.99999e-01,9.99999e-01,9.99999e-01,8.70444e-01,9.99999e-01
1.021596983e+00,8.72808e-01,9.99999e-01,9.99999e-01,9.99971e-01,8.72833e-01,9.99999e-01
1.026704968e+00,8.73373e-01,9.99999e-01,9.99999e-01,9.97933e-01,8.75181e-01,9.99999e-01
1.031838492e+00,8.51811e-01,9.99999e-01,9.99999e-01,9.70737e-01,8.77488e-01,9.99999e-01
1.036997685e+00,2.27910e-01,9.99999e-01,9.99999e-01,2.59060e-01,8.79757e-01,9.99999e-01
1.042182673e+00,2.62299e-01,9.99999e-01,9.99999e-01,2.97395e-01,8.81986e-01,9.99999e-01
1.047393587e+00,2.51017e-01,9.99999e-01,9.99999e-01,2.83899e-01,8.84176e-01,9.99999e-01
1.052630555e+00,2.99867e-02,9.99999e-01,9.99999e-01,3.38324e-02,8.86329e-01,9.99999e-01
1.057893707e+00,5.91537e-02,9.99999e-01,9.99999e-01,6.65812e-02,8.88444e-01,9.99999e-01
1.063183176e+00,1.24372e-01,9.99999e-01,9.99999e-01,1.39661e-01,8.90522e-01,9.99999e-01
1.068499092e+00,2.37881e-01,9.99999e-01,9.99999e-01,2.66514e-01,8.92564e-01,9.99999e-01
1.073841587e+00,3.88572e-01,9.99999e-01,9.99999e-01,4.34367e-01,8.94570e-01,9.99999e-01
1.079210795e+00,5.29662e-01,9.99999e-01,9.99999e-01,5.90783e-01,8.96540e-01,9.99999e-01
1.084606849e+00,6.73958e-01,9.99999e-01,9.99999e-01,7.50111e-01,8.98477e-01,9.99999e-01
1.090029883e+00,7.75823e-01,9.99999e-01,9.99999e-01,8.61662e-01,9.00378e-01,9.99999e-01
1.095480033e+00,8.38482e-01,9.99999e-01,9.99999e-01,9.29326e-01,9.02247e-01,9.99999e-01
1.100957433e+00,8.72756e-01,9.99999e-01,9.99999e-01,9.65349e-01,9.04082e-01,9.99999e-01
1.106462220e+00,8.92776e-01,9.99999e-01,9.99999e-01,9.85529e-01,9.05884e-01,9.99999e-01
1.111994531e+00,9.02766e-01,9.99999e-01,9.99999e-01,9.94613e-01,9.07655e-01,9.99999e-01
1.117554504e+00,9.08196e-01,9.99999e-01,9.99999e-01,9.98682e-01,9.09393e-01,9.99999e-01
1.123142276e+00,9.11022e-01,9.99999e-01,9.99999e-01,9.99913e-01,9.11101e-01,9.99999e-01
1.128757988e+00,9.12778e-01,9.99999e-01,9.99999e-01,9.99999e-01,9.12778e-01,9.99999e-01
1.134401778e+00,9.14425e-01,9.99999e-01,9.99999e-01,9.99999e-01,9.14425e-01,9.99999e-01
1.140073787e+00,9.16042e-01,9.99999e-01,9.99999e-01,9.99999e-01,9.16042e-01,9.99999e-01
1.145774156e+00,9.17630e-01,9.99999e-01,9.99999e-01,9.99999e-01,9.17630e-01,9.99999e-01
1.151503026e+00,9.19190e-01,9.99999e-01,9.99999e-01,9.99999e-01,9.19190e-01,9.99999e-01
1.157260541e+00,9.20721e-01,9.99999e-01,9.99999e-01,9.99999e-01,9.20721e-01,9.99999e-01
1.163046844e+00,9.22224e-01,9.99999e-01,9.99999e-01,9.99999e-01,9.22224e-01,9.99999e-01
1.168862078e+00,9.23700e-01,9.99999e-01,9.99999e-01,9.99999e-01,9.23700e-01,9.99999e-01
1.174706389e+00,9.25149e-01,9.99999e-01,9.99999e-01,9.99999e-01,9.25149e-01,9.99999e-01
1.180579921e+00,9.26572e-01,9.99999e-01,9.99999e-01,9.99999e-01,9.26572e-01,9.99999e-01
1.186482820e+00,9.27966e-01,9.99999e-01,9.99999e-01,9.99995e-01,9.27969e-01,9.99999e-01
1.192415234e+00,9.22452e-01,9.99999e-01,9.99999e-01,9.92587e-01,9.29340e-01,9.99999e-01
1.198377311e+00,5.39886e-01,9.99999e-01,9.99999e-01,5.80094e-01,9.30686e-01,9.99999e-01
1.204369197e+00,3.51036e-07,9.99999e-01,9.99999e-01,3.76645e-07,9.32008e-01,9.99999e-01
1.210391043e+00,1.93714e-23,9.99999e-01,9.99999e-01,2.07557e-23,9.33305e-01,9.99999e-01
1.216442998e+00,1.57186e-20,9.99999e-01,9.99999e-01,1.68189e-20,9.34578e-01,9.99999e-01
1.222525213e+00,3.07255e-20,9.99999e-01,9.99999e-01,3.28324e-20,9.35828e-01,9.99999e-01
1.228637839e+00,1.33931e-15,9.99999e-01,9.99999e-01,1.42927e-15,9.37055e-01,9.99999e-01
