#,Wave/freq,Total,N2,O2,CO2,Rayleigh,CIA
4.000000000e-01,5.98872e-17,9.99999e-01,9.99999e-01,9.99999e-01,5.98872e-17,9.99999e-01
4.020000000e-01,1.25345e-16,9.99999e-01,9.99999e-01,9.99999e-01,1.25345e-16,9.99999e-01
4.040100000e-01,2.58349e-16,9.99999e-01,9.99999e-01,9.99999e-01,2.58349e-16,9.99999e-01
4.060300500e-01,5.24934e-16,9.99999e-01,9.99999e-01,9.99999e-01,5.24934e-16,9.99999e-01
4.080602003e-01,1.05177e-15,9.99999e-01,9.99999e-01,9.99999e-01,1.05177e-15,9.99999e-01
4.101005013e-01,2.07862e-15,9.99999e-01,9.99999e-01,9.99999e-01,2.07862e-15,9.99999e-01
4.121510038e-01,4.05308e-15,9.99999e-01,9.99999e-01,9.99999e-01,4.05308e-15,9.99999e-01
4.142117588e-01,7.79951e-15,9.99999e-01,9.99999e-01,9.99999e-01,7.79951e-15,9.99999e-01
4.162828176e-01,1.48161e-14,9.99999e-01,9.99999e-01,9.99999e-01,1.48161e-14,9.99999e-01
4.183642317e-01,2.77905e-14,9.99999e-01,9.99999e-01,9.99999e-01,2.77905e-14,9.99999e-01
4.204560528e-01,5.14829e-14,9.99999e-01,9.99999e-01,9.99999e-01,5.14829e-14,9.99999e-01
4.225583331e-01,9.42194e-14,9.99999e-01,9.99999e-01,9.99999e-01,9.42194e-14,9.99999e-01
4.246711247e-01,1.70386e-13,9.99999e-01,9.99999e-01,9.99999e-01,1.70386e-13,9.99999e-01
4.267944804e-01,3.04540e-13,9.99999e-01,9.99999e-01,9.99999e-01,3.04540e-13,9.99999e-01
4.289284528e-01,5.38112e-13,9.99999e-01,9.99999e-01,9.99999e-01,5.38112e-13,9.99999e-01
4.310730950e-01,9.40197e-13,9.99999e-01,9.99999e-01,9.99999e-01,9.40197e-13,9.99999e-01
4.332284605e-01,1.62472e-12,9.99999e-01,9.99999e-01,9.99999e-01,1.62472e-12,9.99999e-01
4.353946028e-01,2.77743e-12,9.99999e-01,9.99999e-01,9.99999e-01,2.77743e-12,9.99999e-01
4.375715758e-01,4.69797e-12,9.99999e-01,9.99999e-01,9.99999e-01,4.69797e-12,9.99999e-01
4.397594337e-01,7.86445e-12,9.99999e-01,9.99999e-01,9.99999e-01,7.86445e-12,9.99999e-01
4.419582309e-01,1.30319e-11,9.99999e-01,9.99999e-01,9.99999e-01,1.30319e-11,9.99999e-01
4.441680220e-01,2.13802e-11,9.99999e-01,9.99999e-01,9.99999e-01,2.13802e-11,9.99999e-01
4.463888621e-01,3.47353e-11,9.99999e-01,9.99999e-01,9.99999e-01,3.47353e-11,9.99999e-01
4.486208064e-01,5.58941e-11,9.99999e-01,9.99999e-01,9.99999e-01,5.58941e-11,9.99999e-01
4.508639105e-01,8.91007e-11,9.99999e-01,9.99999e-01,9.99999e-01,8.91007e-11,9.99999e-01
4.531182300e-01,1.40733e-10,9.99999e-01,9.99999e-01,9.99999e-01,1.40733e-10,9.99999e-01
4.553838212e-01,2.20287e-10,9.99999e-01,9.99999e-01,9.99999e-01,2.20287e-10,9.99999e-01
4.576607403e-01,3.41774e-10,9.99999e-01,9.99999e-01,9.99999e-01,3.41774e-10,9.99999e-01
4.599490440e-01,5.25680e-10,9.99999e-01,9.99999e-01,9.99999e-01,5.25680e-10,9.99999e-01
4.622487892e-01,8.01697e-10,9.99999e-01,9.99999e-01,9.99999e-01,8.01697e-10,9.99999e-01
4.645600332e-01,1.21249e-09,9.99999e-01,9.99999e-01,9.99999e-01,1.21249e-09,9.99999e-01
4.668828333e-01,1.81885e-09,9.99999e-01,9.99999e-01,9.99999e-01,1.81885e-09,9.99999e-01
4.692172475e-01,2.70669e-09,9.99999e-01,9.99999e-01,9.99999e-01,2.70669e-09,9.99999e-01
4.715633337e-01,3.99640e-09,9.99999e-01,9.99999e-01,9.99999e-01,3.99640e-09,9.99999e-01
4.739211504e-01,5.85541e-09,9.99999e-01,9.99999e-01,9.99999e-01,5.85541e-09,9.99999e-01
4.762907561e-01,8.51468e-09,9.99999e-01,9.99999e-01,9.99999e-01,8.51468e-09,9.99999e-01
4.786722099e-01,1.22904e-08,9.99999e-01,9.99999e-01,9.99999e-01,1.22904e-08,9.99999e-01
4.810655710e-01,1.76124e-08,9.99999e-01,9.99999e-01,9.99999e-01,1.76124e-08,9.99999e-01
4.834708988e-01,2.50601e-08,9.99999e-01,9.99999e-01,9.99999e-01,2.50601e-08,9.99999e-01
4.858882533e-01,3.54096e-08,9.99999e-01,9.99999e-01,9.99999e-01,3.54096e-08,9.99999e-01
4.883176946e-01,4.96929e-08,9.99999e-01,9.99999e-01,9.99999e-01,4.96929e-08,9.99999e-01
4.907592831e-01,6.92725e-08,9.99999e-01,9.99999e-01,9.99999e-01,6.92725e-08,9.99999e-01
4.932130795e-01,9.59351e-08,9.99999e-01,9.99999e-01,9.99999e-01,9.59351e-08,9.99999e-01
4.956791449e-01,1.32008e-07,9.99999e-01,9.99999e-01,9.99999e-01,1.32008e-07,9.99999e-01
4.981575406e-01,1.80504e-07,9.99999e-01,9.99999e-01,9.99999e-01,1.80504e-07,9.99999e-01
5.006483283e-01,2.45294e-07,9.99999e-01,9.99999e-01,9.99999e-01,2.45294e-07,9.99999e-01
5.031515699e-01,3.31327e-07,9.99999e-01,9.99999e-01,9.99999e-01,3.31327e-07,9.99999e-01
5.056673278e-01,4.44885e-07,9.99999e-01,9.99999e-01,9.99999e-01,4.44885e-07,9.99999e-01
5.081956644e-01,5.93897e-07,9.99999e-01,9.99999e-01,9.99999e-01,5.93897e-07,9.99999e-01
5.107366428e-01,7.88307e-07,9.99999e-01,9.99999e-01,9.99999e-01,7.88307e-07,9.99999e-01
5.132903260e-01,1.04052e-06,9.99999e-01,9.99999e-01,9.99999e-01,1.04052e-06,9.99999e-01
5.158567776e-01,1.36592e-06,9.99999e-01,9.99999e-01,9.99999e-01,1.36592e-06,9.99999e-01
5.184360615e-01,1.78347e-06,9.99999e-01,9.99999e-01,9.99999e-01,1.78347e-06,9.99999e-01
5.210282418e-01,2.31642e-06,9.99999e-01,9.99999e-01,9.99999e-01,2.31642e-06,9.99999e-01
5.236333830e-01,2.99313e-06,9.99999e-01,9.99999e-01,9.99999e-01,2.99313e-06,9.99999e-01
5.262515499e-01,3.84801e-06,9.99999e-01,9.99999e-01,9.99999e-01,3.84801e-06,9.99999e-01
5.288828077e-01,4.92256e-06,9.99999e-01,9.99999e-01,9.99999e-01,4.92256e-06,9.99999e-01
5.315272217e-01,6.26662e-06,9.99999e-01,9.99999e-01,9.99999e-01,6.26662e-06,9.99999e-01
5.341848578e-01,7.93971e-06,9.99999e-01,9.99999e-01,9.99999e-01,7.93971e-06,9.99999e-01
5.368557821e-01,1.00126e-05,9.99999e-01,9.99999e-01,9.99999e-01,1.00126e-05,9.99999e-01
5.395400610e-01,1.25689e-05,9.99999e-01,9.99999e-01,9.99999e-01,1.25689e-05,9.99999e-01
5.422377613e-01,1.57072e-05,9.99999e-01,9.99999e-01,9.99999e-01,1.57072e-05,9.99999e-01
5.449489501e-01,1.95428e-05,9.99999e-01,9.99999e-01,9.99999e-01,1.95428e-05,9.99999e-01
5.476736949e-01,2.42104e-05,9.99999e-01,9.99999e-01,9.99999e-01,2.42104e-05,9.99999e-01
5.504120634e-01,2.98662e-05,9.99999e-01,9.99999e-01,9.99999e-01,2.98662e-05,9.99999e-01
5.531641237e-01,3.66907e-05,9.99999e-01,9.99999e-01,9.99999e-01,3.66907e-05,9.99999e-01
5.559299443e-01,4.48918e-05,9.99999e-01,9.99999e-01,9.99999e-01,4.48918e-05,9.99999e-01
5.587095940e-01,5.47076e-05,9.99999e-01,9.99999e-01,9.99999e-01,5.47076e-05,9.99999e-01
5.615031420e-01,6.64097e-05,9.99999e-01,9.99999e-01,9.99999e-01,6.64097e-05,9.99999e-01
5.643106577e-01,8.03069e-05,9.99999e-01,9.99999e-01,9.99999e-01,8.03069e-05,9.99999e-01
5.671322110e-01,9.67485e-05,9.99999e-01,9.99999e-01,9.99999e-01,9.67485e-05,9.99999e-01
5.699678720e-01,1.16128e-04,9.99999e-01,9.99999e-01,9.99999e-01,1.16128e-04,9.99999e-01
5.728177114e-01,1.38888e-04,9.99999e-01,9.99999e-01,9.99999e-01,1.38888e-04,9.99999e-01
5.756818000e-01,1.65522e-04,9.99999e-01,9.99999e-01,9.99999e-01,1.65522e-04,9.99999e-01
5.785602090e-01,1.96582e-04,9.99999e-01,9.99999e-01,9.99999e-01,1.96582e-04,9.99999e-01
5.814530100e-01,2.32678e-04,9.99999e-01,9.99999e-01,9.99999e-01,2.32678e-04,9.99999e-01
5.843602750e-01,2.74487e-04,9.99999e-01,9.99999e-01,9.99999e-01,2.74487e-04,9.99999e-01
5.872820764e-01,3.22752e-04,9.99999e-01,9.99999e-01,9.99999e-01,3.22752e-04,9.99999e-01
5.902184868e-01,3.78292e-04,9.99999e-01,9.99999e-01,9.99999e-01,3.78292e-04,9.99999e-01
5.931695792e-01,4.42002e-04,9.99999e-01,9.99999e-01,9.99999e-01,4.42002e-04,9.99999e-01
5.961354271e-01,5.14855e-04,9.99999e-01,9.99999e-01,9.99999e-01,5.14855e-04,9.99999e-01
5.991161043e-01,5.97912e-04,9.99999e-01,9.99999e-01,9.99999e-01,5.97912e-04,9.99999e-01
6.021116848e-01,6.92320e-04,9.99999e-01,9.99999e-01,9.99999e-01,6.92320e-04,9.99999e-01
6.051222432e-01,7.99316e-04,9.99999e-01,9.99999e-01,9.99999e-01,7.99316e-04,9.99999e-01
6.081478544e-01,9.20233e-04,9.99999e-01,9.99999e-01,9.99999e-01,9.20233e-04,9.99999e-01
6.111885937e-01,1.05650e-03,9.99999e-01,9.99999e-01,9.99999e-01,1.05650e-03,9.99999e-01
6.142445367e-01,1.20963e-03,9.99999e-01,9.99999e-01,9.99999e-01,1.20963e-03,9.99999e-01
6.173157594e-01,1.38127e-03,9.99999e-01,9.99999e-01,9.99999e-01,1.38127e-03,9.99999e-01
6.204023382e-01,1.57313e-03,9.99999e-01,9.99999e-01,9.99999e-01,1.57313e-03,9.99999e-01
6.235043498e-01,1.78705e-03,9.99999e-01,9.99999e-01,9.99999e-01,1.78705e-03,9.99999e-01
6.266218716e-01,2.02495e-03,9.99999e-01,9.99999e-01,9.99999e-01,2.02495e-03,9.99999e-01
6.297549810e-01,2.28886e-03,9.99999e-01,9.99999e-01,9.99999e-01,2.28886e-03,9.99999e-01
6.329037559e-01,2.58091e-03,9.99999e-01,9.99999e-01,9.99999e-01,2.58091e-03,9.99999e-01
6.360682746e-01,2.90333e-03,9.99999e-01,9.99999e-01,9.99999e-01,2.90333e-03,9.99999e-01
6.392486160e-01,3.25845e-03,9.99999e-01,9.99999e-01,9.99999e-01,3.25845e-03,9.99999e-01
6.424448591e-01,3.64867e-03,9.99999e-01,9.99999e-01,9.99999e-01,3.64867e-03,9.99999e-01
6.456570834e-01,4.07651e-03,9.99999e-01,9.99999e-01,9.99999e-01,4.07651e-03,9.99999e-01
6.488853688e-01,4.54455e-03,9.99999e-01,9.99999e-01,9.99999e-01,4.54455e-03,9.99999e-01
6.521297956e-01,5.05547e-03,9.99999e-01,9.99999e-01,9.99999e-01,5.05547e-03,9.99999e-01
6.553904446e-01,5.61200e-03,9.99999e-01,9.99999e-01,9.99999e-01,5.61200e-03,9.99999e-01
6.586673968e-01,6.21697e-03,9.99999e-01,9.99999e-01,9.99999e-01,6.21697e-03,9.99999e-01
6.619607338e-01,6.87323e-03,9.99999e-01,9.99999e-01,9.99999e-01,6.87323e-03,9.99999e-01
6.652705375e-01,7.58372e-03,9.99999e-01,9.99999e-01,9.99999e-01,7.58372e-03,9.99999e-01
6.685968902e-01,8.35141e-03,9.99999e-01,9.99999e-01,9.99999e-01,8.35141e-03,9.99999e-01
6.719398746e-01,9.17931e-03,9.99999e-01,9.99999e-01,9.99999e-01,9.17931e-03,9.99999e-01
6.752995740e-01,1.00705e-02,9.99999e-01,9.99999e-01,9.99999e-01,1.00705e-02,9.99999e-01
6.786760719e-01,1.10279e-02,9.99999e-01,9.99999e-01,9.99999e-01,1.10279e-02,9.99999e-01
6.820694522e-01,1.20548e-02,9.99999e-01,9.99999e-01,9.99999e-01,1.20548e-02,9.99999e-01
6.854797995e-01,1.31541e-02,9.99999e-01,9.99999e-01,9.99999e-01,1.31541e-02,9.99999e-01
6.889071985e-01,1.43290e-02,9.99999e-01,9.99999e-01,9.99999e-01,1.43290e-02,9.99999e-01
6.923517345e-01,1.55824e-02,9.99999e-01,9.99999e-01,9.99999e-01,1.55824e-02,9.99999e-01
6.958134932e-01,1.69174e-02,9.99999e-01,9.99999e-01,9.99999e-01,1.69174e-02,9.99999e-01
6.992925606e-01,1.83370e-02,9.99999e-01,9.99999e-01,9.99999e-01,1.83370e-02,9.99999e-01
7.027890234e-01,1.98442e-02,9.99999e-01,9.99999e-01,9.99999e-01,1.98442e-02,9.99999e-01
7.063029686e-01,2.14417e-02,9.99999e-01,9.99999e-01,9.99999e-01,2.14417e-02,9.99999e-01
7.098344834e-01,2.31324e-02,9.99999e-01,9.99999e-01,9.99999e-01,2.31324e-02,9.99999e-01
7.133836558e-01,2.49190e-02,9.99999e-01,9.99999e-01,9.99999e-01,2.49190e-02,9.99999e-01
7.169505741e-01,2.68042e-02,9.99999e-01,9.99999e-01,9.99999e-01,2.68042e-02,9.99999e-01
7.205353270e-01,2.87906e-02,9.99999e-01,9.99999e-01,9.99999e-01,2.87906e-02,9.99999e-01
7.241380036e-01,3.08805e-02,9.99999e-01,9.99999e-01,9.99999e-01,3.08805e-02,9.99999e-01
7.277586936e-01,3.30763e-02,9.99999e-01,9.99999e-01,9.99999e-01,3.30763e-02,9.99999e-01
7.313974871e-01,3.53801e-02,9.99999e-01,9.99999e-01,9.99999e-01,3.53801e-02,9.99999e-01
7.350544745e-01,3.77942e-02,9.99999e-01,9.99999e-01,9.99999e-01,3.77942e-02,9.99999e-01
7.387297469e-01,4.03204e-02,9.99999e-01,9.99999e-01,9.99999e-01,4.03204e-02,9.99999e-01
7.424233956e-01,4.29605e-02,9.99999e-01,9.99999e-01,9.99999e-01,4.29605e-02,9.99999e-01
7.461355126e-01,4.57161e-02,9.99999e-01,9.99999e-01,9.99999e-01,4.57161e-02,9.99999e-01
7.498661902e-01,4.85888e-02,9.99999e-01,9.99999e-01,9.99999e-01,4.85888e-02,9.99999e-01
7.536155211e-01,5.15799e-02,9.99999e-01,9.99999e-01,9.99999e-01,5.15799e-02,9.99999e-01
7.573835987e-01,5.46905e-02,9.99999e-01,9.99999e-01,9.99999e-01,5.46905e-02,9.99999e-01
7.611705167e-01,5.79217e-02,9.99999e-01,9.99999e-01,9.99999e-01,5.79217e-02,9.99999e-01
7.649763693e-01,6.12743e-02,9.99999e-01,9.99999e-01,9.99999e-01,6.12743e-02,9.99999e-01
7.688012511e-01,6.47489e-02,9.99999e-01,9.99999e-01,9.99999e-01,6.47489e-02,9.99999e-01
7.726452574e-01,6.83461e-02,9.99999e-01,9.99999e-01,9.99999e-01,6.83461e-02,9.99999e-01
7.765084837e-01,7.20661e-02,9.99999e-01,9.99999e-01,9.99999e-01,7.20661e-02,9.99999e-01
7.803910261e-01,6.88306e-02,9.99999e-01,9.99999e-01,9.06750e-01,7.59091e-02,9.99999e-01
7.842929812e-01,4.83181e-02,9.99999e-01,9.99999e-01,6.04921e-01,7.98749e-02,9.99999e-01
7.882144461e-01,4.95445e-02,9.99999e-01,9.99999e-01,5.90072e-01,8.39635e-02,9.99999e-01
7.921555184e-01,6.35665e-02,9.99999e-01,9.99999e-01,7.20918e-01,8.81744e-02,9.99999e-01
7.961162960e-01,7.40256e-02,9.99999e-01,9.99999e-01,8.00215e-01,9.25070e-02,9.99999e-01
8.000968774e-01,8.59142e-02,9.99999e-01,9.99999e-01,8.86073e-01,9.69606e-02,9.99999e-01
8.040973618e-01,9.53406e-02,9.99999e-01,9.99999e-01,9.38999e-01,1.01534e-01,9.99999e-01
8.081178486e-01,1.03205e-01,9.99999e-01,9.99999e-01,9.71552e-01,1.06227e-01,9.99999e-01
8.121584379e-01,1.10048e-01,9.99999e-01,9.99999e-01,9.91086e-01,1.11037e-01,9.99999e-01
8.162192301e-01,1.15735e-01,9.99999e-01,9.99999e-01,9.98024e-01,1.15964e-01,9.99999e-01
8.203003262e-01,1.21002e-01,9.99999e-01,9.99999e-01,9.99968e-01,1.21005e-01,9.99999e-01
8.244018279e-01,1.26160e-01,9.99999e-01,9.99999e-01,9.99999e-01,1.26160e-01,9.99999e-01
8.285238370e-01,1.31426e-01,9.99999e-01,9.99999e-01,9.99999e-01,1.31426e-01,9.99999e-01
8.326664562e-01,1.36801e-01,9.99999e-01,9.99999e-01,9.99999e-01,1.36801e-01,9.99999e-01
8.368297885e-01,1.42283e-01,9.99999e-01,9.99999e-01,9.99999e-01,1.42283e-01,9.99999e-01
8.410139374e-01,1.47870e-01,9.99999e-01,9.99999e-01,9.99999e-01,1.47870e-01,9.99999e-01
8.452190071e-01,1.53560e-01,9.99999e-01,9.99999e-01,9.99999e-01,1.53560e-01,9.99999e-01
8.494451021e-01,1.59349e-01,9.99999e-01,9.99999e-01,9.99999e-01,1.59349e-01,9.99999e-01
8.536923276e-01,1.65237e-01,9.99999e-01,9.99999e-01,9.99999e-01,1.65237e-01,9.99999e-01
8.579607893e-01,1.71218e-01,9.99999e-01,9.99999e-01,9.99999e-01,1.71218e-01,9.99999e-01
8.622505932e-01,1.77292e-01,9.99999e-01,9.99999e-01,9.99999e-01,1.77292e-01,9.99999e-01
8.665618462e-01,1.58552e-01,9.99999e-01,9.99999e-01,8.64254e-01,1.83455e-01,9.99999e-01
8.708946554e-01,5.56924e-02,9.99999e-01,9.99999e-01,2.93575e-01,1.89704e-01,9.99999e-01
8.752491287e-01,6.99655e-02,9.99999e-01,9.99999e-01,3.56900e-01,1.96036e-01,9.99999e-01
8.796253743e-01,1.13089e-01,9.99999e-01,9.99999e-01,5.58606e-01,2.02449e-01,9.99999e-01
8.840235012e-01,1.53472e-01,9.99999e-01,9.99999e-01,7.34532e-01,2.08938e-01,9.99999e-01
8.884436187e-01,1.90588e-01,9.99999e-01,9.99999e-01,8.84394e-01,2.15500e-01,9.99999e-01
8.928858368e-01,2.11331e-01,9.99999e-01,9.99999e-01,9.51366e-01,2.22134e-01,9.99999e-01
8.973502660e-01,2.26069e-01,9.99999e-01,9.99999e-01,9.87918e-01,2.28834e-01,9.99999e-01
9.018370173e-01,2.35282e-01,9.99999e-01,9.99999e-01,9.98659e-01,2.35598e-01,9.99999e-01
9.063462024e-01,2.34536e-01,9.99999e-01,9.99999e-01,9.67468e-01,2.42422e-01,9.99999e-01
9.108779334e-01,2.30505e-01,9.99999e-01,9.99999e-01,9.24595e-01,2.49304e-01,9.99999e-01
9.154323231e-01,2.51540e-01,9.99999e-01,9.99999e-01,9.81660e-01,2.56239e-01,9.99999e-01
9.200094847e-01,2.09949e-01,9.99999e-01,9.99999e-01,7.97605e-01,2.63224e-01,9.99999e-01
9.246095321e-01,1.84697e-01,9.99999e-01,9.99999e-01,6.83412e-01,2.70256e-01,9.99999e-01
9.292325798e-01,2.07382e-01,9.99999e-01,9.99999e-01,7.47774e-01,2.77332e-01,9.99999e-01
9.338787427e-01,2.13650e-01,9.99999e-01,9.99999e-01,7.51104e-01,2.84447e-01,9.99999e-01
9.385481364e-01,2.35808e-01,9.99999e-01,9.99999e-01,8.08671e-01,2.91599e-01,9.99999e-01
9.432408771e-01,2.62072e-01,9.99999e-01,9.99999e-01,8.77125e-01,2.98785e-01,9.99999e-01
9.479570815e-01,2.86099e-01,9.99999e-01,9.99999e-01,9.34964e-01,3.06000e-01,9.99999e-01
9.526968669e-01,3.03249e-01,9.99999e-01,9.99999e-01,9.68100e-01,3.13242e-01,9.99999e-01
9.574603512e-01,3.16088e-01,9.99999e-01,9.99999e-01,9.86212e-01,3.20507e-01,9.99999e-01
9.622476530e-01,3.26374e-01,9.99999e-01,9.99999e-01,9.95675e-01,3.27792e-01,9.99999e-01
9.670588912e-01,3.34658e-01,9.99999e-01,9.99999e-01,9.98701e-01,3.35094e-01,9.99999e-01
9.718941857e-01,3.42377e-01,9.99999e-01,9.99999e-01,9.99906e-01,3.42409e-01,9.99999e-01
9.767536566e-01,3.49735e-01,9.99999e-01,9.99999e-01,9.99999e-01,3.49735e-01,9.99999e-01
9.816374249e-01,3.57068e-01,9.99999e-01,9.99999e-01,9.99999e-01,3.57068e-01,9.99999e-01
9.865456120e-01,3.64406e-01,9.99999e-01,9.99999e-01,9.99999e-01,3.64406e-01,9.99999e-01
9.914783401e-01,3.71745e-01,9.99999e-01,9.99999e-01,9.99999e-01,3.71745e-01,9.99999e-01
9.964357318e-01,3.79083e-01,9.99999e-01,9.99999e-01,9.99999e-01,3.79083e-01,9.99999e-01
1.001417910e+00,3.86416e-01,9.99999e-01,9.99999e-01,9.99999e-01,3.86416e-01,9.99999e-01
1.006425000e+00,3.93742e-01,9.99999e-01,9.99999e-01,9.99999e-01,3.93742e-01,9.99999e-01
1.011457125e+00,4.01058e-01,9.99999e-01,9.99999e-01,9.99999e-01,4.01058e-01,9.99999e-01
1.016514411e+00,4.08362e-01,9.99999e-01,9.99999e-01,9.99999e-01,4.08362e-01,9.99999e-01
1.021596983e+00,4.15580e-01,9.99999e-01,9.99999e-01,9.99830e-01,4.15650e-01,9.99999e-01
1.026704968e+00,4.17429e-01,9.99999e-01,9.99999e-01,9.87013e-01,4.22921e-01,9.99999e-01
1.031838492e+00,3.87154e-01,9.99999e-01,9.99999e-01,8.99999e-01,4.30171e-01,9.99999e-01
1.036997685e+00,1.95781e-02,9.99999e-01,9.99999e-01,4.47603e-02,4.37399e-01,9.99999e-01
1.042182673e+00,8.81398e-04,9.99999e-01,9.99999e-01,1.98244e-03,4.44602e-01,9.99999e-01
1.047393587e+00,2.48359e-03,9.99999e-01,9.99999e-01,5.49738e-03,4.51778e-01,9.99999e-01
1.052630555e+00,1.14263e-07,9.99999e-01,9.99999e-01,2.48981e-07,4.58924e-01,9.99999e-01
1.057893707e+00,4.26247e-07,9.99999e-01,9.99999e-01,9.14617e-07,4.66039e-01,9.99999e-01
1.063183176e+00,1.69009e-05,9.99999e-01,9.99999e-01,3.57222e-05,4.73120e-01,9.99999e-01
1.068499092e+00,2.04570e-04,9.99999e-01,9.99999e-01,4.26039e-04,4.80166e-01,9.99999e-01
1.073841587e+00,3.19689e-03,9.99999e-01,9.99999e-01,6.56209e-03,4.87175e-01,9.99999e-01
1.079210795e+00,2.12321e-02,9.99999e-01,9.99999e-01,4.29672e-02,4.94145e-01,9.99999e-01
1.084606849e+00,8.29861e-02,9.99999e-01,9.99999e-01,1.65617e-01,5.01073e-01,9.99999e-01
1.090029883e+00,1.97799e-01,9.99999e-01,9.99999e-01,3.89399e-01,5.07959e-01,9.99999e-01
1.095480033e+00,3.22606e-01,9.99999e-01,9.99999e-01,6.26660e-01,5.14801e-01,9.99999e-01
1.100957433e+00,4.15830e-01,9.99999e-01,9.99999e-01,7.97224e-01,5.21597e-01,9.99999e-01
1.106462220e+00,4.80959e-01,9.99999e-01,9.99999e-01,9.10309e-01,5.28346e-01,9.99999e-01
1.111994531e+00,5.16703e-01,9.99999e-01,9.99999e-01,9.65716e-01,5.35047e-01,9.99999e-01
1.117554504e+00,5.37093e-01,9.99999e-01,9.99999e-01,9.91499e-01,5.41697e-01,9.99999e-01
1.123142276e+00,5.47989e-01,9.99999e-01,9.99999e-01,9.99437e-01,5.48297e-01,9.99999e-01
1.128757988e+00,5.54844e-01,9.99999e-01,9.99999e-01,9.99999e-01,5.54844e-01,9.99999e-01
1.134401778e+00,5.61337e-01,9.99999e-01,9.99999e-01,9.99999e-01,5.61337e-01,9.99999e-01
1.140073787e+00,5.67776e-01,9.99999e-01,9.99999e-01,9.99999e-01,5.67776e-01,9.99999e-01
1.145774156e+00,5.74160e-01,9.99999e-01,9.99999e-01,9.99999e-01,5.74160e-01,9.99999e-01
1.151503026e+00,5.80487e-01,9.99999e-01,9.99999e-01,9.99999e-01,5.80487e-01,9.99999e-01
1.157260541e+00,5.86757e-01,9.99999e-01,9.99999e-01,9.99999e-01,5.86757e-01,9.99999e-01
1.163046844e+00,5.92969e-01,9.99999e-01,9.99999e-01,9.99999e-01,5.92969e-01,9.99999e-01
1.168862078e+00,5.99122e-01,9.99999e-01,9.99999e-01,9.99999e-01,5.99122e-01,9.99999e-01
1.174706389e+00,6.05215e-01,9.99999e-01,9.99999e-01,9.99999e-01,6.05215e-01,9.99999e-01
1.180579921e+00,6.11248e-01,9.99999e-01,9.99999e-01,9.99999e-01,6.11248e-01,9.99999e-01
1.186482820e+00,6.17208e-01,9.99999e-01,9.99999e-01,9.99979e-01,6.17220e-01,9.99999e-01
1.192415234e+00,5.95874e-01,9.99999e-01,9.99999e-01,9.56257e-01,6.23131e-01,9.99999e-01
1.198377311e+00,3.21153e-01,9.99999e-01,9.99999e-01,5.10592e-01,6.28980e-01,9.99999e-01
1.204369197e+00,4.44129e-34,9.99999e-01,9.99999e-01,6.99671e-34,6.34767e-01,9.99999e-01
1.210391043e+00,5.37648e-139,9.99999e-01,9.99999e-01,8.39429e-139,6.40491e-01,9.99999e-01
1.216442998e+00,3.10560e-120,9.99999e-01,9.99999e-01,4.80629e-120,6.46153e-01,9.99999e-01
1.222525213e+00,2.00176e-118,9.99999e-01,9.99999e-01,3.07136e-118,6.51751e-01,9.99999e-01
1.228637839e+00,2.73846e-91,9.99999e-01,9.99999e-01,4.16631e-91,6.57285e-01,9.99999e-01
