#,Wave/freq,Total,N2,O2,CO2,Rayleigh,CIA
4.000000000e-01,2.58504e-15,9.99999e-01,9.99999e-01,9.99999e-01,2.58504e-15,9.99999e-01
4.020000000e-01,5.02228e-15,9.99999e-01,9.99999e-01,9.99999e-01,5.02228e-15,9.99999e-01
4.040100000e-01,9.62374e-15,9.99999e-01,9.99999e-01,9.99999e-01,9.62374e-15,9.99999e-01
4.060300500e-01,1.82057e-14,9.99999e-01,9.99999e-01,9.99999e-01,1.82057e-14,9.99999e-01
4.080602003e-01,3.40097e-14,9.99999e-01,9.99999e-01,9.99999e-01,3.40097e-14,9.99999e-01
4.101005013e-01,6.27533e-14,9.99999e-01,9.99999e-01,9.99999e-01,6.27533e-14,9.99999e-01
4.121510038e-01,1.14397e-13,9.99999e-01,9.99999e-01,9.99999e-01,1.14397e-13,9.99999e-01
4.142117588e-01,2.06084e-13,9.99999e-01,9.99999e-01,9.99999e-01,2.06084e-13,9.99999e-01
4.162828176e-01,3.66964e-13,9.99999e-01,9.99999e-01,9.99999e-01,3.66964e-13,9.99999e-01
4.183642317e-01,6.46031e-13,9.99999e-01,9.99999e-01,9.99999e-01,6.46031e-13,9.99999e-01
4.204560528e-01,1.12468e-12,9.99999e-01,9.99999e-01,9.99999e-01,1.12468e-12,9.99999e-01
4.225583331e-01,1.93666e-12,9.99999e-01,9.99999e-01,9.99999e-01,1.93666e-12,9.99999e-01
4.246711247e-01,3.29923e-12,9.99999e-01,9.99999e-01,9.99999e-01,3.29923e-12,9.99999e-01
4.267944804e-01,5.56163e-12,9.99999e-01,9.99999e-01,9.99999e-01,5.56163e-12,9.99999e-01
4.289284528e-01,9.27923e-12,9.99999e-01,9.99999e-01,9.99999e-01,9.27923e-12,9.99999e-01
4.310730950e-01,1.53261e-11,9.99999e-01,9.99999e-01,9.99999e-01,1.53261e-11,9.99999e-01
4.332284605e-01,2.50637e-11,9.99999e-01,9.99999e-01,9.99999e-01,2.50637e-11,9.99999e-01
4.353946028e-01,4.05920e-11,9.99999e-01,9.99999e-01,9.99999e-01,4.05920e-11,9.99999e-01
4.375715758e-01,6.51178e-11,9.99999e-01,9.99999e-01,9.99999e-01,6.51178e-11,9.99999e-01
4.397594337e-01,1.03491e-10,9.99999e-01,9.99999e-01,9.99999e-01,1.03491e-10,9.99999e-01
4.419582309e-01,1.62980e-10,9.99999e-01,9.99999e-01,9.99999e-01,1.62980e-10,9.99999e-01
4.441680220e-01,2.54372e-10,9.99999e-01,9.99999e-01,9.99999e-01,2.54372e-10,9.99999e-01
4.463888621e-01,3.93537e-10,9.99999e-01,9.99999e-01,9.99999e-01,3.93537e-10,9.99999e-01
4.486208064e-01,6.03612e-10,9.99999e-01,9.99999e-01,9.99999e-01,6.03612e-10,9.99999e-01
4.508639105e-01,9.18037e-10,9.99999e-01,9.99999e-01,9.99999e-01,9.18037e-10,9.99999e-01
4.531182300e-01,1.38473e-09,9.99999e-01,9.99999e-01,9.99999e-01,1.38473e-09,9.99999e-01
4.553838212e-01,2.07179e-09,9.99999e-01,9.99999e-01,9.99999e-01,2.07179e-09,9.99999e-01
4.576607403e-01,3.07518e-09,9.99999e-01,9.99999e-01,9.99999e-01,3.07518e-09,9.99999e-01
4.599490440e-01,4.52903e-09,9.99999e-01,9.99999e-01,9.99999e-01,4.52903e-09,9.99999e-01
4.622487892e-01,6.61942e-09,9.99999e-01,9.99999e-01,9.99999e-01,6.61942e-09,9.99999e-01
4.645600332e-01,9.60239e-09,9.99999e-01,9.99999e-01,9.99999e-01,9.60239e-09,9.99999e-01
4.668828333e-01,1.38276e-08,9.99999e-01,9.99999e-01,9.99999e-01,1.38276e-08,9.99999e-01
4.692172475e-01,1.97691e-08,9.99999e-01,9.99999e-01,9.99999e-01,1.97691e-08,9.99999e-01
4.715633337e-01,2.80647e-08,9.99999e-01,9.99999e-01,9.99999e-01,2.80647e-08,9.99999e-01
4.739211504e-01,3.95665e-08,9.99999e-01,9.99999e-01,9.99999e-01,3.95665e-08,9.99999e-01
4.762907561e-01,5.54050e-08,9.99999e-01,9.99999e-01,9.99999e-01,5.54050e-08,9.99999e-01
4.786722099e-01,7.70693e-08,9.99999e-01,9.99999e-01,9.99999e-01,7.70693e-08,9.99999e-01
4.810655710e-01,1.06508e-07,9.99999e-01,9.99999e-01,9.99999e-01,1.06508e-07,9.99999e-01
4.834708988e-01,1.46255e-07,9.99999e-01,9.99999e-01,9.99999e-01,1.46255e-07,9.99999e-01
4.858882533e-01,1.99579e-07,9.99999e-01,9.99999e-01,9.99999e-01,1.99579e-07,9.99999e-01
4.883176946e-01,2.70679e-07,9.99999e-01,9.99999e-01,9.99999e-01,2.70679e-07,9.99999e-01
4.907592831e-01,3.64906e-07,9.99999e-01,9.99999e-01,9.99999e-01,3.64906e-07,9.99999e-01
4.932130795e-01,4.89039e-07,9.99999e-01,9.99999e-01,9.99999e-01,4.89039e-07,9.99999e-01
4.956791449e-01,6.51620e-07,9.99999e-01,9.99999e-01,9.99999e-01,6.51620e-07,9.99999e-01
4.981575406e-01,8.63343e-07,9.99999e-01,9.99999e-01,9.99999e-01,8.63343e-07,9.99999e-01
5.006483283e-01,1.13752e-06,9.99999e-01,9.99999e-01,9.99999e-01,1.13752e-06,9.99999e-01
5.031515699e-01,1.49062e-06,9.99999e-01,9.99999e-01,9.99999e-01,1.49062e-06,9.99999e-01
5.056673278e-01,1.94294e-06,9.99999e-01,9.99999e-01,9.99999e-01,1.94294e-06,9.99999e-01
5.081956644e-01,2.51928e-06,9.99999e-01,9.99999e-01,9.99999e-01,2.51928e-06,9.99999e-01
5.107366428e-01,3.24986e-06,9.99999e-01,9.99999e-01,9.99999e-01,3.24986e-06,9.99999e-01
5.132903260e-01,4.17127e-06,9.99999e-01,9.99999e-01,9.99999e-01,4.17127e-06,9.99999e-01
5.158567776e-01,5.32760e-06,9.99999e-01,9.99999e-01,9.99999e-01,5.32760e-06,9.99999e-01
5.184360615e-01,6.77167e-06,9.99999e-01,9.99999e-01,9.99999e-01,6.77167e-06,9.99999e-01
5.210282418e-01,8.56648e-06,9.99999e-01,9.99999e-01,9.99999e-01,8.56648e-06,9.99999e-01
5.236333830e-01,1.07868e-05,9.99999e-01,9.99999e-01,9.99999e-01,1.07868e-05,9.99999e-01
5.262515499e-01,1.35209e-05,9.99999e-01,9.99999e-01,9.99999e-01,1.35209e-05,9.99999e-01
5.288828077e-01,1.68725e-05,9.99999e-01,9.99999e-01,9.99999e-01,1.68725e-05,9.99999e-01
5.315272217e-01,2.09631e-05,9.99999e-01,9.99999e-01,9.99999e-01,2.09631e-05,9.99999e-01
5.341848578e-01,2.59339e-05,9.99999e-01,9.99999e-01,9.99999e-01,2.59339e-05,9.99999e-01
5.368557821e-01,3.19488e-05,9.99999e-01,9.99999e-01,9.99999e-01,3.19488e-05,9.99999e-01
5.395400610e-01,3.91970e-05,9.99999e-01,9.99999e-01,9.99999e-01,3.91970e-05,9.99999e-01
5.422377613e-01,4.78958e-05,9.99999e-01,9.99999e-01,9.99999e-01,4.78958e-05,9.99999e-01
5.449489501e-01,5.82937e-05,9.99999e-01,9.99999e-01,9.99999e-01,5.82937e-05,9.99999e-01
5.476736949e-01,7.06743e-05,9.99999e-01,9.99999e-01,9.99999e-01,7.06743e-05,9.99999e-01
5.504120634e-01,8.53589e-05,9.99999e-01,9.99999e-01,9.99999e-01,8.53589e-05,9.99999e-01
5.531641237e-01,1.02711e-04,9.99999e-01,9.99999e-01,9.99999e-01,1.02711e-04,9.99999e-01
5.559299443e-01,1.23139e-04,9.99999e-01,9.99999e-01,9.99999e-01,1.23139e-04,9.99999e-01
5.587095940e-01,1.47103e-04,9.99999e-01,9.99999e-01,9.99999e-01,1.47103e-04,9.99999e-01
5.615031420e-01,1.75114e-04,9.99999e-01,9.99999e-01,9.99999e-01,1.75114e-04,9.99999e-01
5.643106577e-01,2.07742e-04,9.99999e-01,9.99999e-01,9.99999e-01,2.07742e-04,9.99999e-01
5.671322110e-01,2.45619e-04,9.99999e-01,9.99999e-01,9.99999e-01,2.45619e-04,9.99999e-01
5.699678720e-01,2.89443e-04,9.99999e-01,9.99999e-01,9.99999e-01,2.89443e-04,9.99999e-01
5.728177114e-01,3.39982e-04,9.99999e-01,9.99999e-01,9.99999e-01,3.39982e-04,9.99999e-01
5.756818000e-01,3.98078e-04,9.99999e-01,9.99999e-01,9.99999e-01,3.98078e-04,9.99999e-01
5.785602090e-01,4.64652e-04,9.99999e-01,9.99999e-01,9.99999e-01,4.64652e-04,9.99999e-01
5.814530100e-01,5.40705e-04,9.99999e-01,9.99999e-01,9.99999e-01,5.40705e-04,9.99999e-01
5.843602750e-01,6.27325e-04,9.99999e-01,9.99999e-01,9.99999e-01,6.27325e-04,9.99999e-01
5.872820764e-01,7.25688e-04,9.99999e-01,9.99999e-01,9.99999e-01,7.25688e-04,9.99999e-01
5.902184868e-01,8.37062e-04,9.99999e-01,9.99999e-01,9.99999e-01,8.37062e-04,9.99999e-01
5.931695792e-01,9.62811e-04,9.99999e-01,9.99999e-01,9.99999e-01,9.62811e-04,9.99999e-01
5.961354271e-01,1.10439e-03,9.99999e-01,9.99999e-01,9.99999e-01,1.10439e-03,9.99999e-01
5.991161043e-01,1.26337e-03,9.99999e-01,9.99999e-01,9.99999e-01,1.26337e-03,9.99999e-01
6.021116848e-01,1.44139e-03,9.99999e-01,9.99999e-01,9.99999e-01,1.44139e-03,9.99999e-01
6.051222432e-01,1.64022e-03,9.99999e-01,9.99999e-01,9.99999e-01,1.64022e-03,9.99999e-01
6.081478544e-01,1.86172e-03,9.99999e-01,9.99999e-01,9.99999e-01,1.86172e-03,9.99999e-01
6.111885937e-01,2.10785e-03,9.99999e-01,9.99999e-01,9.99999e-01,2.10785e-03,9.99999e-01
6.142445367e-01,2.38068e-03,9.99999e-01,9.99999e-01,9.99999e-01,2.38068e-03,9.99999e-01
6.173157594e-01,2.68237e-03,9.99999e-01,9.99999e-01,9.99999e-01,2.68237e-03,9.99999e-01
6.204023382e-01,3.01517e-03,9.99999e-01,9.99999e-01,9.99999e-01,3.01517e-03,9.99999e-01
6.235043498e-01,3.38143e-03,9.99999e-01,9.99999e-01,9.99999e-01,3.38143e-03,9.99999e-01
6.266218716e-01,3.78362e-03,9.99999e-01,9.99999e-01,9.99999e-01,3.78362e-03,9.99999e-01
6.297549810e-01,4.22425e-03,9.99999e-01,9.99999e-01,9.99999e-01,4.22425e-03,9.99999e-01
6.329037559e-01,4.70595e-03,9.99999e-01,9.99999e-01,9.99999e-01,4.70595e-03,9.99999e-01
6.360682746e-01,5.23140e-03,9.99999e-01,9.99999e-01,9.99999e-01,5.23140e-03,9.99999e-01
6.392486160e-01,5.80338e-03,9.99999e-01,9.99999e-01,9.99999e-01,5.80338e-03,9.99999e-01
6.424448591e-01,6.42471e-03,9.99999e-01,9.99999e-01,9.99999e-01,6.42471e-03,9.99999e-01
6.456570834e-01,7.09830e-03,9.99999e-01,9.99999e-01,9.99999e-01,7.09830e-03,9.99999e-01
6.488853688e-01,7.82707e-03,9.99999e-01,9.99999e-01,9.99999e-01,7.82707e-03,9.99999e-01
6.521297956e-01,8.61402e-03,9.99999e-01,9.99999e-01,9.99999e-01,8.61402e-03,9.99999e-01
6.553904446e-01,9.46217e-03,9.99999e-01,9.99999e-01,9.99999e-01,9.46217e-03,9.99999e-01
6.586673968e-01,1.03746e-02,9.99999e-01,9.99999e-01,9.99999e-01,1.03746e-02,9.99999e-01
6.619607338e-01,1.13543e-02,9.99999e-01,9.99999e-01,9.99999e-01,1.13543e-02,9.99999e-01
6.652705375e-01,1.24044e-02,9.99999e-01,9.99999e-01,9.99999e-01,1.24044e-02,9.99999e-01
6.685968902e-01,1.35279e-02,9.99999e-01,9.99999e-01,9.99999e-01,1.35279e-02,9.99999e-01
6.719398746e-01,1.47280e-02,9.99999e-01,9.99999e-01,9.99999e-01,1.47280e-02,9.99999e-01
6.752995740e-01,1.60077e-02,9.99999e-01,9.99999e-01,9.99999e-01,1.60077e-02,9.99999e-01
6.786760719e-01,1.73699e-02,9.99999e-01,9.99999e-01,9.99999e-01,1.73699e-02,9.99999e-01
6.820694522e-01,1.88176e-02,9.99999e-01,9.99999e-01,9.99999e-01,1.88176e-02,9.99999e-01
6.854797995e-01,2.03539e-02,9.99999e-01,9.99999e-01,9.99999e-01,2.03539e-02,9.99999e-01
6.889071985e-01,2.19814e-02,9.99999e-01,9.99999e-01,9.99999e-01,2.19814e-02,9.99999e-01
6.923517345e-01,2.37030e-02,9.99999e-01,9.99999e-01,9.99999e-01,2.37030e-02,9.99999e-01
6.958134932e-01,2.55214e-02,9.99999e-01,9.99999e-01,9.99999e-01,2.55214e-02,9.99999e-01
6.992925606e-01,2.74393e-02,9.99999e-01,9.99999e-01,9.99999e-01,2.74393e-02,9.99999e-01
7.027890234e-01,2.94591e-02,9.99999e-01,9.99999e-01,9.99999e-01,2.94591e-02,9.99999e-01
7.063029686e-01,3.15832e-02,9.99999e-01,9.99999e-01,9.99999e-01,3.15832e-02,9.99999e-01
7.098344834e-01,3.38139e-02,9.99999e-01,9.99999e-01,9.99999e-01,3.38139e-02,9.99999e-01
7.133836558e-01,3.61534e-02,9.99999e-01,9.99999e-01,9.99999e-01,3.61534e-02,9.99999e-01
7.169505741e-01,3.86037e-02,9.99999e-01,9.99999e-01,9.99999e-01,3.86037e-02,9.99999e-01
7.205353270e-01,4.11668e-02,9.99999e-01,9.99999e-01,9.99999e-01,4.11668e-02,9.99999e-01
7.241380036e-01,4.38443e-02,9.99999e-01,9.99999e-01,9.99999e-01,4.38443e-02,9.99999e-01
7.277586936e-01,4.66378e-02,9.99999e-01,9.99999e-01,9.99999e-01,4.66378e-02,9.99999e-01
7.313974871e-01,4.95489e-02,9.99999e-01,9.99999e-01,9.99999e-01,4.95489e-02,9.99999e-01
7.350544745e-01,5.25788e-02,9.99999e-01,9.99999e-01,9.99999e-01,5.25788e-02,9.99999e-01
7.387297469e-01,5.57285e-02,9.99999e-01,9.99999e-01,9.99999e-01,5.57285e-02,9.99999e-01
7.424233956e-01,5.89991e-02,9.99999e-01,9.99999e-01,9.99999e-01,5.89991e-02,9.99999e-01
7.461355126e-01,6.23914e-02,9.99999e-01,9.99999e-01,9.99999e-01,6.23914e-02,9.99999e-01
7.498661902e-01,6.59058e-02,9.99999e-01,9.99999e-01,9.99999e-01,6.59058e-02,9.99999e-01
7.536155211e-01,6.95429e-02,9.99999e-01,9.99999e-01,9.99999e-01,6.95429e-02,9.99999e-01
7.573835987e-01,7.33029e-02,9.99999e-01,9.99999e-01,9.99999e-01,7.33029e-02,9.99999e-01
7.611705167e-01,7.71859e-02,9.99999e-01,9.99999e-01,9.99999e-01,7.71859e-02,9.99999e-01
7.649763693e-01,8.11917e-02,9.99999e-01,9.99999e-01,9.99999e-01,8.11917e-02,9.99999e-01
7.688012511e-01,8.53202e-02,9.99999e-01,9.99999e-01,9.99999e-01,8.53202e-02,9.99999e-01
7.726452574e-01,8.95707e-02,9.99999e-01,9.99999e-01,9.99999e-01,8.95707e-02,9.99999e-01
7.765084837e-01,9.39428e-02,9.99999e-01,9.99999e-01,9.99999e-01,9.39428e-02,9.99999e-01
7.803910261e-01,8.96443e-02,9.99999e-01,9.99999e-01,9.10690e-01,9.84355e-02,9.99999e-01
7.842929812e-01,6.54762e-02,9.99999e-01,9.99999e-01,6.35394e-01,1.03048e-01,9.99999e-01
7.882144461e-01,6.67023e-02,9.99999e-01,9.99999e-01,6.18879e-01,1.07779e-01,9.99999e-01
7.921555184e-01,8.38096e-02,9.99999e-01,9.99999e-01,7.44130e-01,1.12627e-01,9.99999e-01
7.961162960e-01,9.63177e-02,9.99999e-01,9.99999e-01,8.19085e-01,1.17592e-01,9.99999e-01
8.000968774e-01,1.10064e-01,9.99999e-01,9.99999e-01,8.97236e-01,1.22670e-01,9.99999e-01
8.040973618e-01,1.20877e-01,9.99999e-01,9.99999e-01,9.45373e-01,1.27861e-01,9.99999e-01
8.081178486e-01,1.29763e-01,9.99999e-01,9.99999e-01,9.74470e-01,1.33163e-01,9.99999e-01
8.121584379e-01,1.37475e-01,9.99999e-01,9.99999e-01,9.92079e-01,1.38573e-01,9.99999e-01
8.162192301e-01,1.43837e-01,9.99999e-01,9.99999e-01,9.98245e-01,1.44090e-01,9.99999e-01
8.203003262e-01,1.49706e-01,9.99999e-01,9.99999e-01,9.99974e-01,1.49710e-01,9.99999e-01
8.244018279e-01,1.55433e-01,9.99999e-01,9.99999e-01,9.99999e-01,1.55433e-01,9.99999e-01
8.285238370e-01,1.61254e-01,9.99999e-01,9.99999e-01,9.99999e-01,1.61254e-01,9.99999e-01
8.326664562e-01,1.67173e-01,9.99999e-01,9.99999e-01,9.99999e-01,1.67173e-01,9.99999e-01
8.368297885e-01,1.73185e-01,9.99999e-01,9.99999e-01,9.99999e-01,1.73185e-01,9.99999e-01
8.410139374e-01,1.79288e-01,9.99999e-01,9.99999e-01,9.99999e-01,1.79288e-01,9.99999e-01
8.452190071e-01,1.85479e-01,9.99999e-01,9.99999e-01,9.99999e-01,1.85479e-01,9.99999e-01
8.494451021e-01,1.91756e-01,9.99999e-01,9.99999e-01,9.99999e-01,1.91756e-01,9.99999e-01
8.536923276e-01,1.98114e-01,9.99999e-01,9.99999e-01,9.99999e-01,1.98114e-01,9.99999e-01
8.579607893e-01,2.04552e-01,9.99999e-01,9.99999e-01,9.99999e-01,2.04552e-01,9.99999e-01
8.622505932e-01,2.11065e-01,9.99999e-01,9.99999e-01,9.99999e-01,2.11065e-01,9.99999e-01
8.665618462e-01,1.88441e-01,9.99999e-01,9.99999e-01,8.65792e-01,2.17651e-01,9.99999e-01
8.708946554e-01,7.34545e-02,9.99999e-01,9.99999e-01,3.27474e-01,2.24306e-01,9.99999e-01
8.752491287e-01,9.11525e-02,9.99999e-01,9.99999e-01,3.94552e-01,2.31028e-01,9.99999e-01
8.796253743e-01,1.40895e-01,9.99999e-01,9.99999e-01,5.92466e-01,2.37812e-01,9.99999e-01
8.840235012e-01,1.85530e-01,9.99999e-01,9.99999e-01,7.58333e-01,2.44655e-01,9.99999e-01
8.884436187e-01,2.25436e-01,9.99999e-01,9.99999e-01,8.96172e-01,2.51554e-01,9.99999e-01
8.928858368e-01,2.47241e-01,9.99999e-01,9.99999e-01,9.56422e-01,2.58506e-01,9.99999e-01
8.973502660e-01,2.62656e-01,9.99999e-01,9.99999e-01,9.89262e-01,2.65507e-01,9.99999e-01
9.018370173e-01,2.72230e-01,9.99999e-01,9.99999e-01,9.98812e-01,2.72554e-01,9.99999e-01
9.063462024e-01,2.71271e-01,9.99999e-01,9.99999e-01,9.70064e-01,2.79642e-01,9.99999e-01
9.108779334e-01,2.67320e-01,9.99999e-01,9.99999e-01,9.32174e-01,2.86770e-01,9.99999e-01
9.154323231e-01,2.89146e-01,9.99999e-01,9.99999e-01,9.83710e-01,2.93933e-01,9.99999e-01
9.200094847e-01,2.43958e-01,9.99999e-01,9.99999e-01,8.10144e-01,3.01129e-01,9.99999e-01
9.246095321e-01,2.19085e-01,9.99999e-01,9.99999e-01,7.10501e-01,3.08353e-01,9.99999e-01
9.292325798e-01,2.42364e-01,9.99999e-01,9.99999e-01,7.67939e-01,3.15603e-01,9.99999e-01
9.338787427e-01,2.49610e-01,9.99999e-01,9.99999e-01,7.73084e-01,3.22875e-01,9.99999e-01
9.385481364e-01,2.72833e-01,9.99999e-01,9.99999e-01,8.26350e-01,3.30166e-01,9.99999e-01
9.432408771e-01,3.00123e-01,9.99999e-01,9.99999e-01,8.89327e-01,3.37472e-01,9.99999e-01
9.479570815e-01,3.24617e-01,9.99999e-01,9.99999e-01,9.41485e-01,3.44792e-01,9.99999e-01
9.526968669e-01,3.42050e-01,9.99999e-01,9.99999e-01,9.71400e-01,3.52120e-01,9.99999e-01
9.574603512e-01,3.55021e-01,9.99999e-01,9.99999e-01,9.87661e-01,3.59455e-01,9.99999e-01
9.622476530e-01,3.65377e-01,9.99999e-01,9.99999e-01,9.96136e-01,3.66794e-01,9.99999e-01
9.670588912e-01,3.73700e-01,9.99999e-01,9.99999e-01,9.98842e-01,3.74133e-01,9.99999e-01
9.718941857e-01,3.81438e-01,9.99999e-01,9.99999e-01,9.99918e-01,3.81469e-01,9.99999e-01
9.767536566e-01,3.88800e-01,9.99999e-01,9.99999e-01,9.99999e-01,3.88800e-01,9.99999e-01
9.816374249e-01,3.96124e-01,9.99999e-01,9.99999e-01,9.99999e-01,3.96124e-01,9.99999e-01
9.865456120e-01,4.03436e-01,9.99999e-01,9.99999e-01,9.99999e-01,4.03436e-01,9.99999e-01
9.914783401e-01,4.10735e-01,9.99999e-01,9.99999e-01,9.99999e-01,4.10735e-01,9.99999e-01
9.964357318e-01,4.18018e-01,9.99999e-01,9.99999e-01,9.99999e-01,4.18018e-01,9.99999e-01
1.001417910e+00,4.25282e-01,9.99999e-01,9.99999e-01,9.99999e-01,4.25282e-01,9.99999e-01
1.006425000e+00,4.32525e-01,9.99999e-01,9.99999e-01,9.99999e-01,4.32525e-01,9.99999e-01
1.011457125e+00,4.39745e-01,9.99999e-01,9.99999e-01,9.99999e-01,4.39745e-01,9.99999e-01
1.016514411e+00,4.46940e-01,9.99999e-01,9.99999e-01,9.99999e-01,4.46940e-01,9.99999e-01
1.021596983e+00,4.54027e-01,9.99999e-01,9.99999e-01,9.99826e-01,4.54106e-01,9.99999e-01
1.026704968e+00,4.55728e-01,9.99999e-01,9.99999e-01,9.88044e-01,4.61242e-01,9.99999e-01
1.031838492e+00,4.22512e-01,9.99999e-01,9.99999e-01,9.02134e-01,4.68347e-01,9.99999e-01
1.036997685e+00,2.35558e-02,9.99999e-01,9.99999e-01,4.95476e-02,4.75417e-01,9.99999e-01
1.042182673e+00,1.55953e-03,9.99999e-01,9.99999e-01,3.23252e-03,4.82451e-01,9.99999e-01
1.047393587e+00,4.05448e-03,9.99999e-01,9.99999e-01,8.28380e-03,4.89447e-01,9.99999e-01
1.052630555e+00,4.25409e-07,9.99999e-01,9.99999e-01,8.56981e-07,4.96403e-01,9.99999e-01
1.057893707e+00,1.61895e-06,9.99999e-01,9.99999e-01,3.21655e-06,5.03318e-01,9.99999e-01
1.063183176e+00,4.41064e-05,9.99999e-01,9.99999e-01,8.64509e-05,5.10190e-01,9.99999e-01
1.068499092e+00,4.51419e-04,9.99999e-01,9.99999e-01,8.73121e-04,5.17017e-01,9.99999e-01
1.073841587e+00,5.59619e-03,9.99999e-01,9.99999e-01,1.06838e-02,5.23798e-01,9.99999e-01
1.079210795e+00,3.07559e-02,9.99999e-01,9.99999e-01,5.79718e-02,5.30532e-01,9.99999e-01
1.084606849e+00,1.06593e-01,9.99999e-01,9.99999e-01,1.98418e-01,5.37216e-01,9.99999e-01
1.090029883e+00,2.32943e-01,9.99999e-01,9.99999e-01,4.28322e-01,5.43850e-01,9.99999e-01
1.095480033e+00,3.61907e-01,9.99999e-01,9.99999e-01,6.57496e-01,5.50432e-01,9.99999e-01
1.100957433e+00,4.54558e-01,9.99999e-01,9.99999e-01,8.16137e-01,5.56962e-01,9.99999e-01
1.106462220e+00,5.17983e-01,9.99999e-01,9.99999e-01,9.19325e-01,5.63438e-01,9.99999e-01
1.111994531e+00,5.52344e-01,9.99999e-01,9.99999e-01,9.69262e-01,5.69859e-01,9.99999e-01
1.117554504e+00,5.71860e-01,9.99999e-01,9.99999e-01,9.92425e-01,5.76225e-01,9.99999e-01
1.123142276e+00,5.82244e-01,9.99999e-01,9.99999e-01,9.99502e-01,5.82533e-01,9.99999e-01
1.128757988e+00,5.88784e-01,9.99999e-01,9.99999e-01,9.99999e-01,5.88784e-01,9.99999e-01
1.134401778e+00,5.94977e-01,9.99999e-01,9.99999e-01,9.99999e-01,5.94977e-01,9.99999e-01
1.140073787e+00,6.01111e-01,9.99999e-01,9.99999e-01,9.99999e-01,6.01111e-01,9.99999e-01
1.145774156e+00,6.07184e-01,9.99999e-01,9.99999e-01,9.99999e-01,6.07184e-01,9.99999e-01
1.151503026e+00,6.13198e-01,9.99999e-01,9.99999e-01,9.99999e-01,6.13198e-01,9.99999e-01
1.157260541e+00,6.19150e-01,9.99999e-01,9.99999e-01,9.99999e-01,6.19150e-01,9.99999e-01
1.163046844e+00,6.25041e-01,9.99999e-01,9.99999e-01,9.99999e-01,6.25041e-01,9.99999e-01
1.168862078e+00,6.30870e-01,9.99999e-01,9.99999e-01,9.99999e-01,6.30870e-01,9.99999e-01
1.174706389e+00,6.36636e-01,9.99999e-01,9.99999e-01,9.99999e-01,6.36636e-01,9.99999e-01
1.180579921e+00,6.42340e-01,9.99999e-01,9.99999e-01,9.99999e-01,6.42340e-01,9.99999e-01
1.186482820e+00,6.47965e-01,9.99999e-01,9.99999e-01,9.99975e-01,6.47981e-01,9.99999e-01
1.192415234e+00,6.26964e-01,9.99999e-01,9.99999e-01,9.59308e-01,6.53558e-01,9.99999e-01
1.198377311e+00,3.39559e-01,9.99999e-01,9.99999e-01,5.15207e-01,6.59072e-01,9.99999e-01
1.204369197e+00,7.09056e-31,9.99999e-01,9.99999e-01,1.06702e-30,6.64522e-01,9.99999e-01
1.210391043e+00,3.10263e-125,9.99999e-01,9.99999e-01,4.63142e-125,6.69908e-01,9.99999e-01
1.216442998e+00,2.31932e-108,9.99999e-01,9.99999e-01,3.43486e-108,6.75230e-01,9.99999e-01
1.222525213e+00,9.82976e-107,9.99999e-01,9.99999e-01,1.44451e-106,6.80488e-01,9.99999e-01
1.228637839e+00,2.53522e-82,9.99999e-01,9.99999e-01,3.69737e-82,6.85682e-01,9.99999e-01
