#,Wave/freq,Total,N2,O2,CO2,Rayleigh,CIA
4.000000000e-01,2.65886e-03,9.99999e-01,9.99999e-01,9.99999e-01,2.65886e-03,9.99999e-01
4.020000000e-01,2.98962e-03,9.99999e-01,9.99999e-01,9.99999e-01,2.98962e-03,9.99999e-01
4.040100000e-01,3.35334e-03,9.99999e-01,9.99999e-01,9.99999e-01,3.35334e-03,9.99999e-01
4.060300500e-01,3.75281e-03,9.99999e-01,9.99999e-01,9.99999e-01,3.75281e-03,9.99999e-01
4.080602003e-01,4.19053e-03,9.99999e-01,9.99999e-01,9.99999e-01,4.19053e-03,9.99999e-01
4.101005013e-01,4.66912e-03,9.99999e-01,9.99999e-01,9.99999e-01,4.66912e-03,9.99999e-01
4.121510038e-01,5.19126e-03,9.99999e-01,9.99999e-01,9.99999e-01,5.19126e-03,9.99999e-01
4.142117588e-01,5.75973e-03,9.99999e-01,9.99999e-01,9.99999e-01,5.75973e-03,9.99999e-01
4.162828176e-01,6.37734e-03,9.99999e-01,9.99999e-01,9.99999e-01,6.37734e-03,9.99999e-01
4.183642317e-01,7.04699e-03,9.99999e-01,9.99999e-01,9.99999e-01,7.04699e-03,9.99999e-01
4.204560528e-01,7.77160e-03,9.99999e-01,9.99999e-01,9.99999e-01,7.77160e-03,9.99999e-01
4.225583331e-01,8.55418e-03,9.99999e-01,9.99999e-01,9.99999e-01,8.55418e-03,9.99999e-01
4.246711247e-01,9.39773e-03,9.99999e-01,9.99999e-01,9.99999e-01,9.39773e-03,9.99999e-01
4.267944804e-01,1.03053e-02,9.99999e-01,9.99999e-01,9.99999e-01,1.03053e-02,9.99999e-01
4.289284528e-01,1.12800e-02,9.99999e-01,9.99999e-01,9.99999e-01,1.12800e-02,9.99999e-01
4.310730950e-01,1.23248e-02,9.99999e-01,9.99999e-01,9.99999e-01,1.23248e-02,9.99999e-01
4.332284605e-01,1.34428e-02,9.99999e-01,9.99999e-01,9.99999e-01,1.34428e-02,9.99999e-01
4.353946028e-01,1.46372e-02,9.99999e-01,9.99999e-01,9.99999e-01,1.46372e-02,9.99999e-01
4.375715758e-01,1.59109e-02,9.99999e-01,9.99999e-01,9.99999e-01,1.59109e-02,9.99999e-01
4.397594337e-01,1.72670e-02,9.99999e-01,9.99999e-01,9.99999e-01,1.72670e-02,9.99999e-01
4.419582309e-01,1.87083e-02,9.99999e-01,9.99999e-01,9.99999e-01,1.87083e-02,9.99999e-01
4.441680220e-01,2.02380e-02,9.99999e-01,9.99999e-01,9.99999e-01,2.02380e-02,9.99999e-01
4.463888621e-01,2.18587e-02,9.99999e-01,9.99999e-01,9.99999e-01,2.18587e-02,9.99999e-01
4.486208064e-01,2.35733e-02,9.99999e-01,9.99999e-01,9.99999e-01,2.35733e-02,9.99999e-01
4.508639105e-01,2.53846e-02,9.99999e-01,9.99999e-01,9.99999e-01,2.53846e-02,9.99999e-01
4.531182300e-01,2.72950e-02,9.99999e-01,9.99999e-01,9.99999e-01,2.72950e-02,9.99999e-01
4.553838212e-01,2.93072e-02,9.99999e-01,9.99999e-01,9.99999e-01,2.93072e-02,9.99999e-01
4.576607403e-01,3.14236e-02,9.99999e-01,9.99999e-01,9.99999e-01,3.14236e-02,9.99999e-01
4.599490440e-01,3.36464e-02,9.99999e-01,9.99999e-01,9.99999e-01,3.36464e-02,9.99999e-01
4.622487892e-01,3.59778e-02,9.99999e-01,9.99999e-01,9.99999e-01,3.59778e-02,9.99999e-01
4.645600332e-01,3.84200e-02,9.99999e-01,9.99999e-01,9.99999e-01,3.84200e-02,9.99999e-01
4.668828333e-01,4.09747e-02,9.99999e-01,9.99999e-01,9.99999e-01,4.09747e-02,9.99999e-01
4.692172475e-01,4.36437e-02,9.99999e-01,9.99999e-01,9.99999e-01,4.36437e-02,9.99999e-01
4.715633337e-01,4.64287e-02,9.99999e-01,9.99999e-01,9.99999e-01,4.64287e-02,9.99999e-01
4.739211504e-01,4.93311e-02,9.99999e-01,9.99999e-01,9.99999e-01,4.93311e-02,9.99999e-01
4.762907561e-01,5.23522e-02,9.99999e-01,9.99999e-01,9.99999e-01,5.23522e-02,9.99999e-01
4.786722099e-01,5.54931e-02,9.99999e-01,9.99999e-01,9.99999e-01,5.54931e-02,9.99999e-01
4.810655710e-01,5.87548e-02,9.99999e-01,9.99999e-01,9.99999e-01,5.87548e-02,9.99999e-01
4.834708988e-01,6.21381e-02,9.99999e-01,9.99999e-01,9.99999e-01,6.21381e-02,9.99999e-01
4.858882533e-01,6.56435e-02,9.99999e-01,9.99999e-01,9.99999e-01,6.56435e-02,9.99999e-01
4.883176946e-01,6.92716e-02,9.99999e-01,9.99999e-01,9.99999e-01,6.92716e-02,9.99999e-01
4.907592831e-01,7.30226e-02,9.99999e-01,9.99999e-01,9.99999e-01,7.30226e-02,9.99999e-01
4.932130795e-01,7.68966e-02,9.99999e-01,9.99999e-01,9.99999e-01,7.68966e-02,9.99999e-01
4.956791449e-01,8.08934e-02,9.99999e-01,9.99999e-01,9.99999e-01,8.08934e-02,9.99999e-01
4.981575406e-01,8.50128e-02,9.99999e-01,9.99999e-01,9.99999e-01,8.50128e-02,9.99999e-01
5.006483283e-01,8.92544e-02,9.99999e-01,9.99999e-01,9.99999e-01,8.92544e-02,9.99999e-01
5.031515699e-01,9.36176e-02,9.99999e-01,9.99999e-01,9.99999e-01,9.36176e-02,9.99999e-01
5.056673278e-01,9.81015e-02,9.99999e-01,9.99999e-01,9.99999e-01,9.81015e-02,9.99999e-01
5.081956644e-01,1.02705e-01,9.99999e-01,9.99999e-01,9.99999e-01,1.02705e-01,9.99999e-01
5.107366428e-01,1.07428e-01,9.99999e-01,9.99999e-01,9.99999e-01,1.07428e-01,9.99999e-01
5.132903260e-01,1.12267e-01,9.99999e-01,9.99999e-01,9.99999e-01,1.12267e-01,9.99999e-01
5.158567776e-01,1.17223e-01,9.99999e-01,9.99999e-01,9.99999e-01,1.17223e-01,9.99999e-01
5.184360615e-01,1.22293e-01,9.99999e-01,9.99999e-01,9.99999e-01,1.22293e-01,9.99999e-01
5.210282418e-01,1.27476e-01,9.99999e-01,9.99999e-01,9.99999e-01,1.27476e-01,9.99999e-01
5.236333830e-01,1.32770e-01,9.99999e-01,9.99999e-01,9.99999e-01,1.32770e-01,9.99999e-01
5.262515499e-01,1.38172e-01,9.99999e-01,9.99999e-01,9.99999e-01,1.38172e-01,9.99999e-01
5.288828077e-01,1.43681e-01,9.99999e-01,9.99999e-01,9.99999e-01,1.43681e-01,9.99999e-01
5.315272217e-01,1.49294e-01,9.99999e-01,9.99999e-01,9.99999e-01,1.49294e-01,9.99999e-01
5.341848578e-01,1.55009e-01,9.99999e-01,9.99999e-01,9.99999e-01,1.55009e-01,9.99999e-01
5.368557821e-01,1.60823e-01,9.99999e-01,9.99999e-01,9.99999e-01,1.60823e-01,9.99999e-01
5.395400610e-01,1.66735e-01,9.99999e-01,9.99999e-01,9.99999e-01,1.66735e-01,9.99999e-01
5.422377613e-01,1.72740e-01,9.99999e-01,9.99999e-01,9.99999e-01,1.72740e-01,9.99999e-01
5.449489501e-01,1.78837e-01,9.99999e-01,9.99999e-01,9.99999e-01,1.78837e-01,9.99999e-01
5.476736949e-01,1.85021e-01,9.99999e-01,9.99999e-01,9.99999e-01,1.85021e-01,9.99999e-01
5.504120634e-01,1.91292e-01,9.99999e-01,9.99999e-01,9.99999e-01,1.91292e-01,9.99999e-01
5.531641237e-01,1.97644e-01,9.99999e-01,9.99999e-01,9.99999e-01,1.97644e-01,9.99999e-01
5.559299443e-01,2.04076e-01,9.99999e-01,9.99999e-01,9.99999e-01,2.04076e-01,9.99999e-01
5.587095940e-01,2.10584e-01,9.99999e-01,9.99999e-01,9.99999e-01,2.10584e-01,9.99999e-01
5.615031420e-01,2.17165e-01,9.99999e-01,9.99999e-01,9.99999e-01,2.17165e-01,9.99999e-01
5.643106577e-01,2.23815e-01,9.99999e-01,9.99999e-01,9.99999e-01,2.23815e-01,9.99999e-01
5.671322110e-01,2.30532e-01,9.99999e-01,9.99999e-01,9.99999e-01,2.30532e-01,9.99999e-01
5.699678720e-01,2.37311e-01,9.99999e-01,9.99999e-01,9.99999e-01,2.37311e-01,9.99999e-01
5.728177114e-01,2.44151e-01,9.99999e-01,9.99999e-01,9.99999e-01,2.44151e-01,9.99999e-01
5.756818000e-01,2.51046e-01,9.99999e-01,9.99999e-01,9.99999e-01,2.51046e-01,9.99999e-01
5.785602090e-01,2.57994e-01,9.99999e-01,9.99999e-01,9.99999e-01,2.57994e-01,9.99999e-01
5.814530100e-01,2.64991e-01,9.99999e-01,9.99999e-01,9.99999e-01,2.64991e-01,9.99999e-01
5.843602750e-01,2.72035e-01,9.99999e-01,9.99999e-01,9.99999e-01,2.72035e-01,9.99999e-01
5.872820764e-01,2.79120e-01,9.99999e-01,9.99999e-01,9.99999e-01,2.79120e-01,9.99999e-01
5.902184868e-01,2.86246e-01,9.99999e-01,9.99999e-01,9.99999e-01,2.86246e-01,9.99999e-01
5.931695792e-01,2.93406e-01,9.99999e-01,9.99999e-01,9.99999e-01,2.93406e-01,9.99999e-01
5.961354271e-01,3.00599e-01,9.99999e-01,9.99999e-01,9.99999e-01,3.00599e-01,9.99999e-01
5.991161043e-01,3.07822e-01,9.99999e-01,9.99999e-01,9.99999e-01,3.07822e-01,9.99999e-01
6.021116848e-01,3.15070e-01,9.99999e-01,9.99999e-01,9.99999e-01,3.15070e-01,9.99999e-01
6.051222432e-01,3.22340e-01,9.99999e-01,9.99999e-01,9.99999e-01,3.22340e-01,9.99999e-01
6.081478544e-01,3.29630e-01,9.99999e-01,9.99999e-01,9.99999e-01,3.29630e-01,9.99999e-01
6.111885937e-01,3.36935e-01,9.99999e-01,9.99999e-01,9.99999e-01,3.36935e-01,9.99999e-01
6.142445367e-01,3.44254e-01,9.99999e-01,9.99999e-01,9.99999e-01,3.44254e-01,9.99999e-01
6.173157594e-01,3.51582e-01,9.99999e-01,9.99999e-01,9.99999e-01,3.51582e-01,9.99999e-01
6.204023382e-01,3.58917e-01,9.99999e-01,9.99999e-01,9.99999e-01,3.58917e-01,9.99999e-01
6.235043498e-01,3.66255e-01,9.99999e-01,9.99999e-01,9.99999e-01,3.66255e-01,9.99999e-01
6.266218716e-01,3.73594e-01,9.99999e-01,9.99999e-01,9.99999e-01,3.73594e-01,9.99999e-01
6.297549810e-01,3.80931e-01,9.99999e-01,9.99999e-01,9.99999e-01,3.80931e-01,9.99999e-01
6.329037559e-01,3.88262e-01,9.99999e-01,9.99999e-01,9.99999e-01,3.88262e-01,9.99999e-01
6.360682746e-01,3.95586e-01,9.99999e-01,9.99999e-01,9.99999e-01,3.95586e-01,9.99999e-01
6.392486160e-01,4.02899e-01,9.99999e-01,9.99999e-01,9.99999e-01,4.02899e-01,9.99999e-01
6.424448591e-01,4.10199e-01,9.99999e-01,9.99999e-01,9.99999e-01,4.10199e-01,9.99999e-01
6.456570834e-01,4.17483e-01,9.99999e-01,9.99999e-01,9.99999e-01,4.17483e-01,9.99999e-01
6.488853688e-01,4.24749e-01,9.99999e-01,9.99999e-01,9.99999e-01,4.24749e-01,9.99999e-01
6.521297956e-01,4.31994e-01,9.99999e-01,9.99999e-01,9.99999e-01,4.31994e-01,9.99999e-01
6.553904446e-01,4.39216e-01,9.99999e-01,9.99999e-01,9.99999e-01,4.39216e-01,9.99999e-01
6.586673968e-01,4.46412e-01,9.99999e-01,9.99999e-01,9.99999e-01,4.46412e-01,9.99999e-01
6.619607338e-01,4.53581e-01,9.99999e-01,9.99999e-01,9.99999e-01,4.53581e-01,9.99999e-01
6.652705375e-01,4.60719e-01,9.99999e-01,9.99999e-01,9.99999e-01,4.60719e-01,9.99999e-01
6.685968902e-01,4.67826e-01,9.99999e-01,9.99999e-01,9.99999e-01,4.67826e-01,9.99999e-01
6.719398746e-01,4.74899e-01,9.99999e-01,9.99999e-01,9.99999e-01,4.74899e-01,9.99999e-01
6.752995740e-01,4.81936e-01,9.99999e-01,9.99999e-01,9.99999e-01,4.81936e-01,9.99999e-01
6.786760719e-01,4.88935e-01,9.99999e-01,9.99999e-01,9.99999e-01,4.88935e-01,9.99999e-01
6.820694522e-01,4.95894e-01,9.99999e-01,9.99999e-01,9.99999e-01,4.95894e-01,9.99999e-01
6.854797995e-01,5.02812e-01,9.99999e-01,9.99999e-01,9.99999e-01,5.02812e-01,9.99999e-01
6.889071985e-01,5.09687e-01,9.99999e-01,9.99999e-01,9.99999e-01,5.09687e-01,9.99999e-01
6.923517345e-01,5.16518e-01,9.99999e-01,9.99999e-01,9.99999e-01,5.16518e-01,9.99999e-01
6.958134932e-01,5.23302e-01,9.99999e-01,9.99999e-01,9.99999e-01,5.23302e-01,9.99999e-01
6.992925606e-01,5.30039e-01,9.99999e-01,9.99999e-01,9.99999e-01,5.30039e-01,9.99999e-01
7.027890234e-01,5.36727e-01,9.99999e-01,9.99999e-01,9.99999e-01,5.36727e-01,9.99999e-01
7.063029686e-01,5.43365e-01,9.99999e-01,9.99999e-01,9.99999e-01,5.43365e-01,9.99999e-01
7.098344834e-01,5.49951e-01,9.99999e-01,9.99999e-01,9.99999e-01,5.49951e-01,9.99999e-01
7.133836558e-01,5.56485e-01,9.99999e-01,9.99999e-01,9.99999e-01,5.56485e-01,9.99999e-01
7.169505741e-01,5.62965e-01,9.99999e-01,9.99999e-01,9.99999e-01,5.62965e-01,9.99999e-01
7.205353270e-01,5.69390e-01,9.99999e-01,9.99999e-01,9.99999e-01,5.69390e-01,9.99999e-01
7.241380036e-01,5.75759e-01,9.99999e-01,9.99999e-01,9.99999e-01,5.75759e-01,9.99999e-01
7.277586936e-01,5.82072e-01,9.99999e-01,9.99999e-01,9.99999e-01,5.82072e-01,9.99999e-01
7.313974871e-01,5.88327e-01,9.99999e-01,9.99999e-01,9.99999e-01,5.88327e-01,9.99999e-01
7.350544745e-01,5.94524e-01,9.99999e-01,9.99999e-01,9.99999e-01,5.94524e-01,9.99999e-01
7.387297469e-01,6.00662e-01,9.99999e-01,9.99999e-01,9.99999e-01,6.00662e-01,9.99999e-01
7.424233956e-01,6.06740e-01,9.99999e-01,9.99999e-01,9.99999e-01,6.06740e-01,9.99999e-01
7.461355126e-01,6.12758e-01,9.99999e-01,9.99999e-01,9.99999e-01,6.12758e-01,9.99999e-01
7.498661902e-01,6.18715e-01,9.99999e-01,9.99999e-01,9.99999e-01,6.18715e-01,9.99999e-01
7.536155211e-01,6.24610e-01,9.99999e-01,9.99999e-01,9.99999e-01,6.24610e-01,9.99999e-01
7.573835987e-01,6.30444e-01,9.99999e-01,9.99999e-01,9.99999e-01,6.30444e-01,9.99999e-01
7.611705167e-01,6.36215e-01,9.99999e-01,9.99999e-01,9.99999e-01,6.36215e-01,9.99999e-01
7.649763693e-01,6.41923e-01,9.99999e-01,9.99999e-01,9.99999e-01,6.41923e-01,9.99999e-01
7.688012511e-01,6.47569e-01,9.99999e-01,9.99999e-01,9.99999e-01,6.47569e-01,9.99999e-01
7.726452574e-01,6.53151e-01,9.99999e-01,9.99999e-01,9.99999e-01,6.53151e-01,9.99999e-01
7.765084837e-01,6.58669e-01,9.99999e-01,9.99999e-01,9.99999e-01,6.58669e-01,9.99999e-01
7.803910261e-01,6.50603e-01,9.99999e-01,9.99999e-01,9.79640e-01,6.64124e-01,9.99999e-01
7.842929812e-01,6.14368e-01,9.99999e-01,9.99999e-01,9.17631e-01,6.69515e-01,9.99999e-01
7.882144461e-01,6.15100e-01,9.99999e-01,9.99999e-01,9.11472e-01,6.74842e-01,9.99999e-01
7.921555184e-01,6.44767e-01,9.99999e-01,9.99999e-01,9.48040e-01,6.80104e-01,9.99999e-01
7.961162960e-01,6.61425e-01,9.99999e-01,9.99999e-01,9.65156e-01,6.85303e-01,9.99999e-01
8.000968774e-01,6.77283e-01,9.99999e-01,9.99999e-01,9.80947e-01,6.90437e-01,9.99999e-01
8.040973618e-01,6.88632e-01,9.99999e-01,9.99999e-01,9.90114e-01,6.95508e-01,9.99999e-01
8.081178486e-01,6.97321e-01,9.99999e-01,9.99999e-01,9.95440e-01,7.00514e-01,9.99999e-01
8.121584379e-01,7.04468e-01,9.99999e-01,9.99999e-01,9.98597e-01,7.05457e-01,9.99999e-01
8.162192301e-01,7.10115e-01,9.99999e-01,9.99999e-01,9.99689e-01,7.10335e-01,9.99999e-01
8.203003262e-01,7.15147e-01,9.99999e-01,9.99999e-01,9.99995e-01,7.15150e-01,9.99999e-01
8.244018279e-01,7.19902e-01,9.99999e-01,9.99999e-01,9.99999e-01,7.19902e-01,9.99999e-01
8.285238370e-01,7.24590e-01,9.99999e-01,9.99999e-01,9.99999e-01,7.24590e-01,9.99999e-01
8.326664562e-01,7.29216e-01,9.99999e-01,9.99999e-01,9.99999e-01,7.29216e-01,9.99999e-01
8.368297885e-01,7.33778e-01,9.99999e-01,9.99999e-01,9.99999e-01,7.33778e-01,9.99999e-01
8.410139374e-01,7.38279e-01,9.99999e-01,9.99999e-01,9.99999e-01,7.38279e-01,9.99999e-01
8.452190071e-01,7.42717e-01,9.99999e-01,9.99999e-01,9.99999e-01,7.42717e-01,9.99999e-01
8.494451021e-01,7.47093e-01,9.99999e-01,9.99999e-01,9.99999e-01,7.47093e-01,9.99999e-01
8.536923276e-01,7.51408e-01,9.99999e-01,9.99999e-01,9.99999e-01,7.51408e-01,9.99999e-01
8.579607893e-01,7.55662e-01,9.99999e-01,9.99999e-01,9.99999e-01,7.55662e-01,9.99999e-01
8.622505932e-01,7.59856e-01,9.99999e-01,9.99999e-01,9.99999e-01,7.59856e-01,9.99999e-01
8.665618462e-01,7.24210e-01,9.99999e-01,9.99999e-01,9.47932e-01,7.63989e-01,9.99999e-01
8.708946554e-01,6.15300e-01,9.99999e-01,9.99999e-01,8.01107e-01,7.68062e-01,9.99999e-01
8.752491287e-01,6.47255e-01,9.99999e-01,9.99999e-01,8.38330e-01,7.72076e-01,9.99999e-01
8.796253743e-01,7.05041e-01,9.99999e-01,9.99999e-01,9.08521e-01,7.76031e-01,9.99999e-01
8.840235012e-01,7.42238e-01,9.99999e-01,9.99999e-01,9.51675e-01,7.79927e-01,9.99999e-01
8.884436187e-01,7.68673e-01,9.99999e-01,9.99999e-01,9.80742e-01,7.83766e-01,9.99999e-01
8.928858368e-01,7.81368e-01,9.99999e-01,9.99999e-01,9.92154e-01,7.87547e-01,9.99999e-01
8.973502660e-01,7.89765e-01,9.99999e-01,9.99999e-01,9.98095e-01,7.91271e-01,9.99999e-01
9.018370173e-01,7.94772e-01,9.99999e-01,9.99999e-01,9.99790e-01,7.94938e-01,9.99999e-01
9.063462024e-01,7.94158e-01,9.99999e-01,9.99999e-01,9.94499e-01,7.98550e-01,9.99999e-01
9.108779334e-01,7.92178e-01,9.99999e-01,9.99999e-01,9.87621e-01,8.02106e-01,9.99999e-01
9.154323231e-01,8.03271e-01,9.99999e-01,9.99999e-01,9.97099e-01,8.05608e-01,9.99999e-01
9.200094847e-01,7.74069e-01,9.99999e-01,9.99999e-01,9.56757e-01,8.09055e-01,9.99999e-01
9.246095321e-01,7.64300e-01,9.99999e-01,9.99999e-01,9.40736e-01,8.12448e-01,9.99999e-01
9.292325798e-01,7.77266e-01,9.99999e-01,9.99999e-01,9.52779e-01,8.15788e-01,9.99999e-01
9.338787427e-01,7.81976e-01,9.99999e-01,9.99999e-01,9.54705e-01,8.19075e-01,9.99999e-01
9.385481364e-01,7.94820e-01,9.99999e-01,9.99999e-01,9.66568e-01,8.22311e-01,9.99999e-01
9.432408771e-01,8.08538e-01,9.99999e-01,9.99999e-01,9.79458e-01,8.25494e-01,9.99999e-01
9.479570815e-01,8.19843e-01,9.99999e-01,9.99999e-01,9.89399e-01,8.28627e-01,9.99999e-01
9.526968669e-01,8.27452e-01,9.99999e-01,9.99999e-01,9.94880e-01,8.31710e-01,9.99999e-01
9.574603512e-01,8.32914e-01,9.99999e-01,9.99999e-01,9.97809e-01,8.34743e-01,9.99999e-01
9.622476530e-01,8.37154e-01,9.99999e-01,9.99999e-01,9.99316e-01,8.37726e-01,9.99999e-01
9.670588912e-01,8.40489e-01,9.99999e-01,9.99999e-01,9.99795e-01,8.40661e-01,9.99999e-01
9.718941857e-01,8.43536e-01,9.99999e-01,9.99999e-01,9.99985e-01,8.43548e-01,9.99999e-01
9.767536566e-01,8.46388e-01,9.99999e-01,9.99999e-01,9.99999e-01,8.46388e-01,9.99999e-01
9.816374249e-01,8.49181e-01,9.99999e-01,9.99999e-01,9.99999e-01,8.49181e-01,9.99999e-01
9.865456120e-01,8.51927e-01,9.99999e-01,9.99999e-01,9.99999e-01,8.51927e-01,9.99999e-01
9.914783401e-01,8.54628e-01,9.99999e-01,9.99999e-01,9.99999e-01,8.54628e-01,9.99999e-01
9.964357318e-01,8.57284e-01,9.99999e-01,9.99999e-01,9.99999e-01,8.57284e-01,9.99999e-01
1.001417910e+00,8.59896e-01,9.99999e-01,9.99999e-01,9.99999e-01,8.59896e-01,9.99999e-01
1.006425000e+00,8.62463e-01,9.99999e-01,9.99999e-01,9.99999e-01,8.62463e-01,9.99999e-01
1.011457125e+00,8.64988e-01,9.99999e-01,9.99999e-01,9.99999e-01,8.64988e-01,9.99999e-01
1.016514411e+00,8.67469e-01,9.99999e-01,9.99999e-01,9.99999e-01,8.67469e-01,9.99999e-01
1.021596983e+00,8.69882e-01,9.99999e-01,9.99999e-01,9.99968e-01,8.69909e-01,9.99999e-01
1.026704968e+00,8.70436e-01,9.99999e-01,9.99999e-01,9.97854e-01,8.72307e-01,9.99999e-01
1.031838492e+00,8.47348e-01,9.99999e-01,9.99999e-01,9.68769e-01,8.74664e-01,9.99999e-01
1.036997685e+00,2.21773e-01,9.99999e-01,9.99999e-01,2.52883e-01,8.76980e-01,9.99999e-01
1.042182673e+00,2.54804e-01,9.99999e-01,9.99999e-01,2.89794e-01,8.79257e-01,9.99999e-01
1.047393587e+00,2.43382e-01,9.99999e-01,9.99999e-01,2.76101e-01,8.81495e-01,9.99999e-01
1.052630555e+00,2.78757e-02,9.99999e-01,9.99999e-01,3.15445e-02,8.83694e-01,9.99999e-01
1.057893707e+00,5.58389e-02,9.99999e-01,9.99999e-01,6.30339e-02,8.85855e-01,9.99999e-01
1.063183176e+00,1.18898e-01,9.99999e-01,9.99999e-01,1.33897e-01,8.87978e-01,9.99999e-01
1.068499092e+00,2.29693e-01,9.99999e-01,9.99999e-01,2.58063e-01,8.90064e-01,9.99999e-01
1.073841587e+00,3.80361e-01,9.99999e-01,9.99999e-01,4.26359e-01,8.92114e-01,9.99999e-01
1.079210795e+00,5.21922e-01,9.99999e-01,9.99999e-01,5.83721e-01,8.94128e-01,9.99999e-01
1.084606849e+00,6.67912e-01,9.99999e-01,9.99999e-01,7.45348e-01,8.96107e-01,9.99999e-01
1.090029883e+00,7.71179e-01,9.99999e-01,9.99999e-01,8.58725e-01,8.98050e-01,9.99999e-01
1.095480033e+00,8.35006e-01,9.99999e-01,9.99999e-01,9.27825e-01,8.99960e-01,9.99999e-01
1.100957433e+00,8.69900e-01,9.99999e-01,9.99999e-01,9.64587e-01,9.01836e-01,9.99999e-01
1.106462220e+00,8.90323e-01,9.99999e-01,9.99999e-01,9.85220e-01,9.03678e-01,9.99999e-01
1.111994531e+00,9.00506e-01,9.99999e-01,9.99999e-01,9.94498e-01,9.05488e-01,9.99999e-01
1.117554504e+00,9.06048e-01,9.99999e-01,9.99999e-01,9.98658e-01,9.07265e-01,9.99999e-01
1.123142276e+00,9.08931e-01,9.99999e-01,9.99999e-01,9.99911e-01,9.09011e-01,9.99999e-01
1.128757988e+00,9.10725e-01,9.99999e-01,9.99999e-01,9.99999e-01,9.10725e-01,9.99999e-01
1.134401778e+00,9.12409e-01,9.99999e-01,9.99999e-01,9.99999e-01,9.12409e-01,9.99999e-01
1.140073787e+00,9.14063e-01,9.99999e-01,9.99999e-01,9.99999e-01,9.14063e-01,9.99999e-01
1.145774156e+00,9.15686e-01,9.99999e-01,9.99999e-01,9.99999e-01,9.15686e-01,9.99999e-01
1.151503026e+00,9.17281e-01,9.99999e-01,9.99999e-01,9.99999e-01,9.17281e-01,9.99999e-01
1.157260541e+00,9.18847e-01,9.99999e-01,9.99999e-01,9.99999e-01,9.18847e-01,9.99999e-01
1.163046844e+00,9.20384e-01,9.99999e-01,9.99999e-01,9.99999e-01,9.20384e-01,9.99999e-01
1.168862078e+00,9.21893e-01,9.99999e-01,9.99999e-01,9.99999e-01,9.21893e-01,9.99999e-01
1.174706389e+00,9.23376e-01,9.99999e-01,9.99999e-01,9.99999e-01,9.23376e-01,9.99999e-01
1.180579921e+00,9.24831e-01,9.99999e-01,9.99999e-01,9.99999e-01,9.24831e-01,9.99999e-01
1.186482820e+00,9.26255e-01,9.99999e-01,9.99999e-01,9.99995e-01,9.26259e-01,9.99999e-01
1.192415234e+00,9.20507e-01,9.99999e-01,9.99999e-01,9.92287e-01,9.27662e-01,9.99999e-01
1.198377311e+00,5.37257e-01,9.99999e-01,9.99999e-01,5.78293e-01,9.29039e-01,9.99999e-01
1.204369197e+00,2.64810e-07,9.99999e-01,9.99999e-01,2.84622e-07,9.30390e-01,9.99999e-01
1.210391043e+00,5.78143e-24,9.99999e-01,9.99999e-01,6.20513e-24,9.31717e-01,9.99999e-01
1.216442998e+00,5.53380e-21,9.99999e-01,9.99999e-01,5.93106e-21,9.33020e-01,9.99999e-01
1.222525213e+00,1.09588e-20,9.99999e-01,9.99999e-01,1.17294e-20,9.34298e-01,9.99999e-01
1.228637839e+00,5.95937e-16,9.99999e-01,9.99999e-01,6.36988e-16,9.35553e-01,9.99999e-01
