#,Wave/freq,Total,N2,O2,CO2,Rayleigh,CIA
4.000000000e-01,4.45075e-05,9.99999e-01,9.99999e-01,9.99999e-01,4.45075e-05,9.99999e-01
4.020000000e-01,5.42598e-05,9.99999e-01,9.99999e-01,9.99999e-01,5.42598e-05,9.99999e-01
4.040100000e-01,6.58768e-05,9.99999e-01,9.99999e-01,9.99999e-01,6.58768e-05,9.99999e-01
4.060300500e-01,7.96752e-05,9.99999e-01,9.99999e-01,9.99999e-01,7.96752e-05,9.99999e-01
4.080602003e-01,9.60024e-05,9.99999e-01,9.99999e-01,9.99999e-01,9.60024e-05,9.99999e-01
4.101005013e-01,1.15250e-04,9.99999e-01,9.99999e-01,9.99999e-01,1.15250e-04,9.99999e-01
4.121510038e-01,1.37859e-04,9.99999e-01,9.99999e-01,9.99999e-01,1.37859e-04,9.99999e-01
4.142117588e-01,1.64320e-04,9.99999e-01,9.99999e-01,9.99999e-01,1.64320e-04,9.99999e-01
4.162828176e-01,1.95182e-04,9.99999e-01,9.99999e-01,9.99999e-01,1.95182e-04,9.99999e-01
4.183642317e-01,2.31053e-04,9.99999e-01,9.99999e-01,9.99999e-01,2.31053e-04,9.99999e-01
4.204560528e-01,2.72608e-04,9.99999e-01,9.99999e-01,9.99999e-01,2.72608e-04,9.99999e-01
4.225583331e-01,3.20586e-04,9.99999e-01,9.99999e-01,9.99999e-01,3.20586e-04,9.99999e-01
4.246711247e-01,3.75804e-04,9.99999e-01,9.99999e-01,9.99999e-01,3.75804e-04,9.99999e-01
4.267944804e-01,4.39151e-04,9.99999e-01,9.99999e-01,9.99999e-01,4.39151e-04,9.99999e-01
4.289284528e-01,5.11601e-04,9.99999e-01,9.99999e-01,9.99999e-01,5.11601e-04,9.99999e-01
4.310730950e-01,5.94207e-04,9.99999e-01,9.99999e-01,9.99999e-01,5.94207e-04,9.99999e-01
4.332284605e-01,6.88114e-04,9.99999e-01,9.99999e-01,9.99999e-01,6.88114e-04,9.99999e-01
4.353946028e-01,7.94556e-04,9.99999e-01,9.99999e-01,9.99999e-01,7.94556e-04,9.99999e-01
4.375715758e-01,9.14860e-04,9.99999e-01,9.99999e-01,9.99999e-01,9.14860e-04,9.99999e-01
4.397594337e-01,1.05045e-03,9.99999e-01,9.99999e-01,9.99999e-01,1.05045e-03,9.99999e-01
4.419582309e-01,1.20285e-03,9.99999e-01,9.99999e-01,9.99999e-01,1.20285e-03,9.99999e-01
4.441680220e-01,1.37367e-03,9.99999e-01,9.99999e-01,9.99999e-01,1.37367e-03,9.99999e-01
4.463888621e-01,1.56465e-03,9.99999e-01,9.99999e-01,9.99999e-01,1.56465e-03,9.99999e-01
4.486208064e-01,1.77760e-03,9.99999e-01,9.99999e-01,9.99999e-01,1.77760e-03,9.99999e-01
4.508639105e-01,2.01445e-03,9.99999e-01,9.99999e-01,9.99999e-01,2.01445e-03,9.99999e-01
4.531182300e-01,2.27723e-03,9.99999e-01,9.99999e-01,9.99999e-01,2.27723e-03,9.99999e-01
4.553838212e-01,2.56806e-03,9.99999e-01,9.99999e-01,9.99999e-01,2.56806e-03,9.99999e-01
4.576607403e-01,2.88916e-03,9.99999e-01,9.99999e-01,9.99999e-01,2.88916e-03,9.99999e-01
4.599490440e-01,3.24285e-03,9.99999e-01,9.99999e-01,9.99999e-01,3.24285e-03,9.99999e-01
4.622487892e-01,3.63156e-03,9.99999e-01,9.99999e-01,9.99999e-01,3.63156e-03,9.99999e-01
4.645600332e-01,4.05777e-03,9.99999e-01,9.99999e-01,9.99999e-01,4.05777e-03,9.99999e-01
4.668828333e-01,4.52407e-03,9.99999e-01,9.99999e-01,9.99999e-01,4.52407e-03,9.99999e-01
4.692172475e-01,5.03313e-03,9.99999e-01,9.99999e-01,9.99999e-01,5.03313e-03,9.99999e-01
4.715633337e-01,5.58770e-03,9.99999e-01,9.99999e-01,9.99999e-01,5.58770e-03,9.99999e-01
4.739211504e-01,6.19057e-03,9.99999e-01,9.99999e-01,9.99999e-01,6.19057e-03,9.99999e-01
4.762907561e-01,6.84462e-03,9.99999e-01,9.99999e-01,9.99999e-01,6.84462e-03,9.99999e-01
4.786722099e-01,7.55277e-03,9.99999e-01,9.99999e-01,9.99999e-01,7.55277e-03,9.99999e-01
4.810655710e-01,8.31800e-03,9.99999e-01,9.99999e-01,9.99999e-01,8.31800e-03,9.99999e-01
4.834708988e-01,9.14332e-03,9.99999e-01,9.99999e-01,9.99999e-01,9.14332e-03,9.99999e-01
4.858882533e-01,1.00318e-02,9.99999e-01,9.99999e-01,9.99999e-01,1.00318e-02,9.99999e-01
4.883176946e-01,1.09864e-02,9.99999e-01,9.99999e-01,9.99999e-01,1.09864e-02,9.99999e-01
4.907592831e-01,1.20103e-02,9.99999e-01,9.99999e-01,9.99999e-01,1.20103e-02,9.99999e-01
4.932130795e-01,1.31065e-02,9.99999e-01,9.99999e-01,9.99999e-01,1.31065e-02,9.99999e-01
4.956791449e-01,1.42781e-02,9.99999e-01,9.99999e-01,9.99999e-01,1.42781e-02,9.99999e-01
4.981575406e-01,1.55282e-02,9.99999e-01,9.99999e-01,9.99999e-01,1.55282e-02,9.99999e-01
5.006483283e-01,1.68597e-02,9.99999e-01,9.99999e-01,9.99999e-01,1.68597e-02,9.99999e-01
5.031515699e-01,1.82757e-02,9.99999e-01,9.99999e-01,9.99999e-01,1.82757e-02,9.99999e-01
5.056673278e-01,1.97791e-02,9.99999e-01,9.99999e-01,9.99999e-01,1.97791e-02,9.99999e-01
5.081956644e-01,2.13728e-02,9.99999e-01,9.99999e-01,9.99999e-01,2.13728e-02,9.99999e-01
5.107366428e-01,2.30595e-02,9.99999e-01,9.99999e-01,9.99999e-01,2.30595e-02,9.99999e-01
5.132903260e-01,2.48421e-02,9.99999e-01,9.99999e-01,9.99999e-01,2.48421e-02,9.99999e-01
5.158567776e-01,2.67231e-02,9.99999e-01,9.99999e-01,9.99999e-01,2.67231e-02,9.99999e-01
5.184360615e-01,2.87052e-02,9.99999e-01,9.99999e-01,9.99999e-01,2.87052e-02,9.99999e-01
5.210282418e-01,3.07907e-02,9.99999e-01,9.99999e-01,9.99999e-01,3.07907e-02,9.99999e-01
5.236333830e-01,3.29820e-02,9.99999e-01,9.99999e-01,9.99999e-01,3.29820e-02,9.99999e-01
5.262515499e-01,3.52813e-02,9.99999e-01,9.99999e-01,9.99999e-01,3.52813e-02,9.99999e-01
5.288828077e-01,3.76907e-02,9.99999e-01,9.99999e-01,9.99999e-01,3.76907e-02,9.99999e-01
5.315272217e-01,4.02121e-02,9.99999e-01,9.99999e-01,9.99999e-01,4.02121e-02,9.99999e-01
5.341848578e-01,4.28474e-02,9.99999e-01,9.99999e-01,9.99999e-01,4.28474e-02,9.99999e-01
5.368557821e-01,4.55981e-02,9.99999e-01,9.99999e-01,9.99999e-01,4.55981e-02,9.99999e-01
5.395400610e-01,4.84659e-02,9.99999e-01,9.99999e-01,9.99999e-01,4.84659e-02,9.99999e-01
5.422377613e-01,5.14520e-02,9.99999e-01,9.99999e-01,9.99999e-01,5.14520e-02,9.99999e-01
5.449489501e-01,5.45576e-02,9.99999e-01,9.99999e-01,9.99999e-01,5.45576e-02,9.99999e-01
5.476736949e-01,5.77837e-02,9.99999e-01,9.99999e-01,9.99999e-01,5.77837e-02,9.99999e-01
5.504120634e-01,6.11312e-02,9.99999e-01,9.99999e-01,9.99999e-01,6.11312e-02,9.99999e-01
5.531641237e-01,6.46007e-02,9.99999e-01,9.99999e-01,9.99999e-01,6.46007e-02,9.99999e-01
5.559299443e-01,6.81927e-02,9.99999e-01,9.99999e-01,9.99999e-01,6.81927e-02,9.99999e-01
5.587095940e-01,7.19075e-02,9.99999e-01,9.99999e-01,9.99999e-01,7.19075e-02,9.99999e-01
5.615031420e-01,7.57453e-02,9.99999e-01,9.99999e-01,9.99999e-01,7.57453e-02,9.99999e-01
5.643106577e-01,7.97060e-02,9.99999e-01,9.99999e-01,9.99999e-01,7.97060e-02,9.99999e-01
5.671322110e-01,8.37895e-02,9.99999e-01,9.99999e-01,9.99999e-01,8.37895e-02,9.99999e-01
5.699678720e-01,8.79952e-02,9.99999e-01,9.99999e-01,9.99999e-01,8.79952e-02,9.99999e-01
5.728177114e-01,9.23227e-02,9.99999e-01,9.99999e-01,9.99999e-01,9.23227e-02,9.99999e-01
5.756818000e-01,9.67713e-02,9.99999e-01,9.99999e-01,9.99999e-01,9.67713e-02,9.99999e-01
5.785602090e-01,1.01340e-01,9.99999e-01,9.99999e-01,9.99999e-01,1.01340e-01,9.99999e-01
5.814530100e-01,1.06028e-01,9.99999e-01,9.99999e-01,9.99999e-01,1.06028e-01,9.99999e-01
5.843602750e-01,1.10833e-01,9.99999e-01,9.99999e-01,9.99999e-01,1.10833e-01,9.99999e-01
5.872820764e-01,1.15755e-01,9.99999e-01,9.99999e-01,9.99999e-01,1.15755e-01,9.99999e-01
5.902184868e-01,1.20792e-01,9.99999e-01,9.99999e-01,9.99999e-01,1.20792e-01,9.99999e-01
5.931695792e-01,1.25941e-01,9.99999e-01,9.99999e-01,9.99999e-01,1.25941e-01,9.99999e-01
5.961354271e-01,1.31203e-01,9.99999e-01,9.99999e-01,9.99999e-01,1.31203e-01,9.99999e-01
5.991161043e-01,1.36573e-01,9.99999e-01,9.99999e-01,9.99999e-01,1.36573e-01,9.99999e-01
6.021116848e-01,1.42051e-01,9.99999e-01,9.99999e-01,9.99999e-01,1.42051e-01,9.99999e-01
6.051222432e-01,1.47634e-01,9.99999e-01,9.99999e-01,9.99999e-01,1.47634e-01,9.99999e-01
6.081478544e-01,1.53319e-01,9.99999e-01,9.99999e-01,9.99999e-01,1.53319e-01,9.99999e-01
6.111885937e-01,1.59105e-01,9.99999e-01,9.99999e-01,9.99999e-01,1.59105e-01,9.99999e-01
6.142445367e-01,1.64988e-01,9.99999e-01,9.99999e-01,9.99999e-01,1.64988e-01,9.99999e-01
6.173157594e-01,1.70966e-01,9.99999e-01,9.99999e-01,9.99999e-01,1.70966e-01,9.99999e-01
6.204023382e-01,1.77036e-01,9.99999e-01,9.99999e-01,9.99999e-01,1.77036e-01,9.99999e-01
6.235043498e-01,1.83195e-01,9.99999e-01,9.99999e-01,9.99999e-01,1.83195e-01,9.99999e-01
6.266218716e-01,1.89440e-01,9.99999e-01,9.99999e-01,9.99999e-01,1.89440e-01,9.99999e-01
6.297549810e-01,1.95769e-01,9.99999e-01,9.99999e-01,9.99999e-01,1.95769e-01,9.99999e-01
6.329037559e-01,2.02178e-01,9.99999e-01,9.99999e-01,9.99999e-01,2.02178e-01,9.99999e-01
6.360682746e-01,2.08664e-01,9.99999e-01,9.99999e-01,9.99999e-01,2.08664e-01,9.99999e-01
6.392486160e-01,2.15224e-01,9.99999e-01,9.99999e-01,9.99999e-01,2.15224e-01,9.99999e-01
6.424448591e-01,2.21854e-01,9.99999e-01,9.99999e-01,9.99999e-01,2.21854e-01,9.99999e-01
6.456570834e-01,2.28551e-01,9.99999e-01,9.99999e-01,9.99999e-01,2.28551e-01,9.99999e-01
6.488853688e-01,2.35313e-01,9.99999e-01,9.99999e-01,9.99999e-01,2.35313e-01,9.99999e-01
6.521297956e-01,2.42135e-01,9.99999e-01,9.99999e-01,9.99999e-01,2.42135e-01,9.99999e-01
6.553904446e-01,2.49014e-01,9.99999e-01,9.99999e-01,9.99999e-01,2.49014e-01,9.99999e-01
6.586673968e-01,2.55947e-01,9.99999e-01,9.99999e-01,9.99999e-01,2.55947e-01,9.99999e-01
6.619607338e-01,2.62930e-01,9.99999e-01,9.99999e-01,9.99999e-01,2.62930e-01,9.99999e-01
6.652705375e-01,2.69960e-01,9.99999e-01,9.99999e-01,9.99999e-01,2.69960e-01,9.99999e-01
6.685968902e-01,2.77034e-01,9.99999e-01,9.99999e-01,9.99999e-01,2.77034e-01,9.99999e-01
6.719398746e-01,2.84148e-01,9.99999e-01,9.99999e-01,9.99999e-01,2.84148e-01,9.99999e-01
6.752995740e-01,2.91298e-01,9.99999e-01,9.99999e-01,9.99999e-01,2.91298e-01,9.99999e-01
6.786760719e-01,2.98482e-01,9.99999e-01,9.99999e-01,9.99999e-01,2.98482e-01,9.99999e-01
6.820694522e-01,3.05696e-01,9.99999e-01,9.99999e-01,9.99999e-01,3.05696e-01,9.99999e-01
6.854797995e-01,3.12937e-01,9.99999e-01,9.99999e-01,9.99999e-01,3.12937e-01,9.99999e-01
6.889071985e-01,3.20201e-01,9.99999e-01,9.99999e-01,9.99999e-01,3.20201e-01,9.99999e-01
6.923517345e-01,3.27486e-01,9.99999e-01,9.99999e-01,9.99999e-01,3.27486e-01,9.99999e-01
6.958134932e-01,3.34787e-01,9.99999e-01,9.99999e-01,9.99999e-01,3.34787e-01,9.99999e-01
6.992925606e-01,3.42102e-01,9.99999e-01,9.99999e-01,9.99999e-01,3.42102e-01,9.99999e-01
7.027890234e-01,3.49427e-01,9.99999e-01,9.99999e-01,9.99999e-01,3.49427e-01,9.99999e-01
7.063029686e-01,3.56760e-01,9.99999e-01,9.99999e-01,9.99999e-01,3.56760e-01,9.99999e-01
7.098344834e-01,3.64098e-01,9.99999e-01,9.99999e-01,9.99999e-01,3.64098e-01,9.99999e-01
7.133836558e-01,3.71437e-01,9.99999e-01,9.99999e-01,9.99999e-01,3.71437e-01,9.99999e-01
7.169505741e-01,3.78775e-01,9.99999e-01,9.99999e-01,9.99999e-01,3.78775e-01,9.99999e-01
7.205353270e-01,3.86108e-01,9.99999e-01,9.99999e-01,9.99999e-01,3.86108e-01,9.99999e-01
7.241380036e-01,3.93435e-01,9.99999e-01,9.99999e-01,9.99999e-01,3.93435e-01,9.99999e-01
7.277586936e-01,4.00751e-01,9.99999e-01,9.99999e-01,9.99999e-01,4.00751e-01,9.99999e-01
7.313974871e-01,4.08055e-01,9.99999e-01,9.99999e-01,9.99999e-01,4.08055e-01,9.99999e-01
7.350544745e-01,4.15344e-01,9.99999e-01,9.99999e-01,9.99999e-01,4.15344e-01,9.99999e-01
7.387297469e-01,4.22616e-01,9.99999e-01,9.99999e-01,9.99999e-01,4.22616e-01,9.99999e-01
7.424233956e-01,4.29867e-01,9.99999e-01,9.99999e-01,9.99999e-01,4.29867e-01,9.99999e-01
7.461355126e-01,4.37096e-01,9.99999e-01,9.99999e-01,9.99999e-01,4.37096e-01,9.99999e-01
7.498661902e-01,4.44300e-01,9.99999e-01,9.99999e-01,9.99999e-01,4.44300e-01,9.99999e-01
7.536155211e-01,4.51477e-01,9.99999e-01,9.99999e-01,9.99999e-01,4.51477e-01,9.99999e-01
7.573835987e-01,4.58625e-01,9.99999e-01,9.99999e-01,9.99999e-01,4.58625e-01,9.99999e-01
7.611705167e-01,4.65741e-01,9.99999e-01,9.99999e-01,9.99999e-01,4.65741e-01,9.99999e-01
7.649763693e-01,4.72824e-01,9.99999e-01,9.99999e-01,9.99999e-01,4.72824e-01,9.99999e-01
7.688012511e-01,4.79871e-01,9.99999e-01,9.99999e-01,9.99999e-01,4.79871e-01,9.99999e-01
7.726452574e-01,4.86882e-01,9.99999e-01,9.99999e-01,9.99999e-01,4.86882e-01,9.99999e-01
7.765084837e-01,4.93853e-01,9.99999e-01,9.99999e-01,9.99999e-01,4.93853e-01,9.99999e-01
7.803910261e-01,4.85340e-01,9.99999e-01,9.99999e-01,9.69160e-01,5.00783e-01,9.99999e-01
7.842929812e-01,4.39281e-01,9.99999e-01,9.99999e-01,8.65285e-01,5.07671e-01,9.99999e-01
7.882144461e-01,4.41108e-01,9.99999e-01,9.99999e-01,8.57327e-01,5.14515e-01,9.99999e-01
7.921555184e-01,4.76649e-01,9.99999e-01,9.99999e-01,9.14322e-01,5.21313e-01,9.99999e-01
7.961162960e-01,4.97106e-01,9.99999e-01,9.99999e-01,9.41374e-01,5.28064e-01,9.99999e-01
8.000968774e-01,5.17571e-01,9.99999e-01,9.99999e-01,9.67843e-01,5.34766e-01,9.99999e-01
8.040973618e-01,5.32292e-01,9.99999e-01,9.99999e-01,9.83141e-01,5.41419e-01,9.99999e-01
8.081178486e-01,5.43781e-01,9.99999e-01,9.99999e-01,9.92262e-01,5.48021e-01,9.99999e-01
8.121584379e-01,5.53230e-01,9.99999e-01,9.99999e-01,9.97583e-01,5.54570e-01,9.99999e-01
8.162192301e-01,5.60766e-01,9.99999e-01,9.99999e-01,9.99465e-01,5.61066e-01,9.99999e-01
8.203003262e-01,5.67502e-01,9.99999e-01,9.99999e-01,9.99990e-01,5.67507e-01,9.99999e-01
8.244018279e-01,5.73893e-01,9.99999e-01,9.99999e-01,9.99999e-01,5.73893e-01,9.99999e-01
8.285238370e-01,5.80223e-01,9.99999e-01,9.99999e-01,9.99999e-01,5.80223e-01,9.99999e-01
8.326664562e-01,5.86495e-01,9.99999e-01,9.99999e-01,9.99999e-01,5.86495e-01,9.99999e-01
8.368297885e-01,5.92709e-01,9.99999e-01,9.99999e-01,9.99999e-01,5.92709e-01,9.99999e-01
8.410139374e-01,5.98865e-01,9.99999e-01,9.99999e-01,9.99999e-01,5.98865e-01,9.99999e-01
8.452190071e-01,6.04960e-01,9.99999e-01,9.99999e-01,9.99999e-01,6.04960e-01,9.99999e-01
8.494451021e-01,6.10996e-01,9.99999e-01,9.99999e-01,9.99999e-01,6.10996e-01,9.99999e-01
8.536923276e-01,6.16971e-01,9.99999e-01,9.99999e-01,9.99999e-01,6.16971e-01,9.99999e-01
8.579607893e-01,6.22884e-01,9.99999e-01,9.99999e-01,9.99999e-01,6.22884e-01,9.99999e-01
8.622505932e-01,6.28736e-01,9.99999e-01,9.99999e-01,9.99999e-01,6.28736e-01,9.99999e-01
8.665618462e-01,5.90283e-01,9.99999e-01,9.99999e-01,9.30274e-01,6.34525e-01,9.99999e-01
8.708946554e-01,4.44002e-01,9.99999e-01,9.99999e-01,6.93480e-01,6.40252e-01,9.99999e-01
8.752491287e-01,4.80534e-01,9.99999e-01,9.99999e-01,7.43956e-01,6.45916e-01,9.99999e-01
8.796253743e-01,5.53792e-01,9.99999e-01,9.99999e-01,8.50004e-01,6.51517e-01,9.99999e-01
8.840235012e-01,6.04017e-01,9.99999e-01,9.99999e-01,9.19279e-01,6.57054e-01,9.99999e-01
8.884436187e-01,6.40823e-01,9.99999e-01,9.99999e-01,9.67238e-01,6.62528e-01,9.99999e-01
8.928858368e-01,6.59016e-01,9.99999e-01,9.99999e-01,9.86643e-01,6.67937e-01,9.99999e-01
8.973502660e-01,6.71074e-01,9.99999e-01,9.99999e-01,9.96718e-01,6.73283e-01,9.99999e-01
9.018370173e-01,6.78318e-01,9.99999e-01,9.99999e-01,9.99636e-01,6.78564e-01,9.99999e-01
9.063462024e-01,6.77656e-01,9.99999e-01,9.99999e-01,9.91040e-01,6.83782e-01,9.99999e-01
9.108779334e-01,6.74493e-01,9.99999e-01,9.99999e-01,9.79037e-01,6.88935e-01,9.99999e-01
9.154323231e-01,6.90549e-01,9.99999e-01,9.99999e-01,9.94991e-01,6.94024e-01,9.99999e-01
9.200094847e-01,6.50940e-01,9.99999e-01,9.99999e-01,9.31177e-01,6.99049e-01,9.99999e-01
9.246095321e-01,6.34722e-01,9.99999e-01,9.99999e-01,9.01580e-01,7.04011e-01,9.99999e-01
9.292325798e-01,6.54179e-01,9.99999e-01,9.99999e-01,9.22797e-01,7.08908e-01,9.99999e-01
9.338787427e-01,6.59884e-01,9.99999e-01,9.99999e-01,9.24540e-01,7.13742e-01,9.99999e-01
9.385481364e-01,6.78284e-01,9.99999e-01,9.99999e-01,9.44011e-01,7.18512e-01,9.99999e-01
9.432408771e-01,6.98070e-01,9.99999e-01,9.99999e-01,9.65225e-01,7.23219e-01,9.99999e-01
9.479570815e-01,7.14810e-01,9.99999e-01,9.99999e-01,9.82066e-01,7.27863e-01,9.99999e-01
9.526968669e-01,7.26070e-01,9.99999e-01,9.99999e-01,9.91297e-01,7.32444e-01,9.99999e-01
9.574603512e-01,7.34212e-01,9.99999e-01,9.99999e-01,9.96267e-01,7.36963e-01,9.99999e-01
9.622476530e-01,7.40554e-01,9.99999e-01,9.99999e-01,9.98833e-01,7.41419e-01,9.99999e-01
9.670588912e-01,7.45552e-01,9.99999e-01,9.99999e-01,9.99649e-01,7.45814e-01,9.99999e-01
9.718941857e-01,7.50128e-01,9.99999e-01,9.99999e-01,9.99974e-01,7.50147e-01,9.99999e-01
9.767536566e-01,7.54418e-01,9.99999e-01,9.99999e-01,9.99999e-01,7.54418e-01,9.99999e-01
9.816374249e-01,7.58630e-01,9.99999e-01,9.99999e-01,9.99999e-01,7.58630e-01,9.99999e-01
9.865456120e-01,7.62780e-01,9.99999e-01,9.99999e-01,9.99999e-01,7.62780e-01,9.99999e-01
9.914783401e-01,7.66871e-01,9.99999e-01,9.99999e-01,9.99999e-01,7.66871e-01,9.99999e-01
9.964357318e-01,7.70902e-01,9.99999e-01,9.99999e-01,9.99999e-01,7.70902e-01,9.99999e-01
1.001417910e+00,7.74875e-01,9.99999e-01,9.99999e-01,9.99999e-01,7.74875e-01,9.99999e-01
1.006425000e+00,7.78788e-01,9.99999e-01,9.99999e-01,9.99999e-01,7.78788e-01,9.99999e-01
1.011457125e+00,7.82644e-01,9.99999e-01,9.99999e-01,9.99999e-01,7.82644e-01,9.99999e-01
1.016514411e+00,7.86442e-01,9.99999e-01,9.99999e-01,9.99999e-01,7.86442e-01,9.99999e-01
1.021596983e+00,7.90148e-01,9.99999e-01,9.99999e-01,9.99956e-01,7.90182e-01,9.99999e-01
1.026704968e+00,7.91097e-01,9.99999e-01,9.99999e-01,9.96511e-01,7.93866e-01,9.99999e-01
1.031838492e+00,7.65977e-01,9.99999e-01,9.99999e-01,9.60479e-01,7.97494e-01,9.99999e-01
1.036997685e+00,1.29701e-01,9.99999e-01,9.99999e-01,1.61910e-01,8.01067e-01,9.99999e-01
1.042182673e+00,1.05499e-01,9.99999e-01,9.99999e-01,1.31122e-01,8.04584e-01,9.99999e-01
1.047393587e+00,1.24474e-01,9.99999e-01,9.99999e-01,1.54043e-01,8.08047e-01,9.99999e-01
1.052630555e+00,4.00719e-03,9.99999e-01,9.99999e-01,4.93826e-03,8.11456e-01,9.99999e-01
1.057893707e+00,9.80081e-03,9.99999e-01,9.99999e-01,1.20283e-02,8.14812e-01,9.99999e-01
1.063183176e+00,3.16031e-02,9.99999e-01,9.99999e-01,3.86291e-02,8.18115e-01,9.99999e-01
1.068499092e+00,8.66103e-02,9.99999e-01,9.99999e-01,1.05447e-01,8.21365e-01,9.99999e-01
1.073841587e+00,1.98154e-01,9.99999e-01,9.99999e-01,2.40314e-01,8.24564e-01,9.99999e-01
1.079210795e+00,3.35730e-01,9.99999e-01,9.99999e-01,4.05612e-01,8.27712e-01,9.99999e-01
1.084606849e+00,5.05322e-01,9.99999e-01,9.99999e-01,6.08229e-01,8.30809e-01,9.99999e-01
1.090029883e+00,6.44377e-01,9.99999e-01,9.99999e-01,7.72766e-01,8.33856e-01,9.99999e-01
1.095480033e+00,7.36909e-01,9.99999e-01,9.99999e-01,8.80569e-01,8.36854e-01,9.99999e-01
1.100957433e+00,7.89909e-01,9.99999e-01,9.99999e-01,9.40587e-01,8.39804e-01,9.99999e-01
1.106462220e+00,8.21606e-01,9.99999e-01,9.99999e-01,9.74962e-01,8.42705e-01,9.99999e-01
1.111994531e+00,8.37651e-01,9.99999e-01,9.99999e-01,9.90647e-01,8.45558e-01,9.99999e-01
1.117554504e+00,8.46412e-01,9.99999e-01,9.99999e-01,9.97697e-01,8.48365e-01,9.99999e-01
1.123142276e+00,8.50995e-01,9.99999e-01,9.99999e-01,9.99847e-01,8.51125e-01,9.99999e-01
1.128757988e+00,8.53839e-01,9.99999e-01,9.99999e-01,9.99999e-01,8.53839e-01,9.99999e-01
1.134401778e+00,8.56508e-01,9.99999e-01,9.99999e-01,9.99999e-01,8.56508e-01,9.99999e-01
1.140073787e+00,8.59133e-01,9.99999e-01,9.99999e-01,9.99999e-01,8.59133e-01,9.99999e-01
1.145774156e+00,8.61713e-01,9.99999e-01,9.99999e-01,9.99999e-01,8.61713e-01,9.99999e-01
1.151503026e+00,8.64250e-01,9.99999e-01,9.99999e-01,9.99999e-01,8.64250e-01,9.99999e-01
1.157260541e+00,8.66744e-01,9.99999e-01,9.99999e-01,9.99999e-01,8.66744e-01,9.99999e-01
1.163046844e+00,8.69196e-01,9.99999e-01,9.99999e-01,9.99999e-01,8.69196e-01,9.99999e-01
1.168862078e+00,8.71606e-01,9.99999e-01,9.99999e-01,9.99999e-01,8.71606e-01,9.99999e-01
1.174706389e+00,8.73975e-01,9.99999e-01,9.99999e-01,9.99999e-01,8.73975e-01,9.99999e-01
1.180579921e+00,8.76304e-01,9.99999e-01,9.99999e-01,9.99999e-01,8.76304e-01,9.99999e-01
1.186482820e+00,8.78588e-01,9.99999e-01,9.99999e-01,9.99995e-01,8.78592e-01,9.99999e-01
1.192415234e+00,8.69981e-01,9.99999e-01,9.99999e-01,9.87670e-01,8.80841e-01,9.99999e-01
1.198377311e+00,4.97846e-01,9.99999e-01,9.99999e-01,5.63779e-01,8.83052e-01,9.99999e-01
1.204369197e+00,8.68571e-11,9.99999e-01,9.99999e-01,9.81187e-11,8.85224e-01,9.99999e-01
1.210391043e+00,6.25551e-39,9.99999e-01,9.99999e-01,7.04959e-39,8.87358e-01,9.99999e-01
1.216442998e+00,6.73986e-34,9.99999e-01,9.99999e-01,7.57751e-34,8.89455e-01,9.99999e-01
1.222525213e+00,2.06315e-33,9.99999e-01,9.99999e-01,2.31421e-33,8.91516e-01,9.99999e-01
1.228637839e+00,7.10681e-26,9.99999e-01,9.99999e-01,7.95354e-26,8.93540e-01,9.99999e-01
