#,Wave/freq,Total,N2,O2,CO2,Rayleigh,CIA
4.000000000e-01,1.56830e-06,9.99999e-01,9.99999e-01,9.99999e-01,1.56830e-06,9.99999e-01
4.020000000e-01,2.04268e-06,9.99999e-01,9.99999e-01,9.99999e-01,2.04268e-06,9.99999e-01
4.040100000e-01,2.64599e-06,9.99999e-01,9.99999e-01,9.99999e-01,2.64599e-06,9.99999e-01
4.060300500e-01,3.41001e-06,9.99999e-01,9.99999e-01,9.99999e-01,3.41001e-06,9.99999e-01
4.080602003e-01,4.37267e-06,9.99999e-01,9.99999e-01,9.99999e-01,4.37267e-06,9.99999e-01
4.101005013e-01,5.57963e-06,9.99999e-01,9.99999e-01,9.99999e-01,5.57963e-06,9.99999e-01
4.121510038e-01,7.08554e-06,9.99999e-01,9.99999e-01,9.99999e-01,7.08554e-06,9.99999e-01
4.142117588e-01,8.95552e-06,9.99999e-01,9.99999e-01,9.99999e-01,8.95552e-06,9.99999e-01
4.162828176e-01,1.12668e-05,9.99999e-01,9.99999e-01,9.99999e-01,1.12668e-05,9.99999e-01
4.183642317e-01,1.41104e-05,9.99999e-01,9.99999e-01,9.99999e-01,1.41104e-05,9.99999e-01
4.204560528e-01,1.75933e-05,9.99999e-01,9.99999e-01,9.99999e-01,1.75933e-05,9.99999e-01
4.225583331e-01,2.18406e-05,9.99999e-01,9.99999e-01,9.99999e-01,2.18406e-05,9.99999e-01
4.246711247e-01,2.69976e-05,9.99999e-01,9.99999e-01,9.99999e-01,2.69976e-05,9.99999e-01
4.267944804e-01,3.32328e-05,9.99999e-01,9.99999e-01,9.99999e-01,3.32328e-05,9.99999e-01
4.289284528e-01,4.07406e-05,9.99999e-01,9.99999e-01,9.99999e-01,4.07406e-05,9.99999e-01
4.310730950e-01,4.97440e-05,9.99999e-01,9.99999e-01,9.99999e-01,4.97440e-05,9.99999e-01
4.332284605e-01,6.04979e-05,9.99999e-01,9.99999e-01,9.99999e-01,6.04979e-05,9.99999e-01
4.353946028e-01,7.32928e-05,9.99999e-01,9.99999e-01,9.99999e-01,7.32928e-05,9.99999e-01
4.375715758e-01,8.84579e-05,9.99999e-01,9.99999e-01,9.99999e-01,8.84579e-05,9.99999e-01
4.397594337e-01,1.06365e-04,9.99999e-01,9.99999e-01,9.99999e-01,1.06365e-04,9.99999e-01
4.419582309e-01,1.27432e-04,9.99999e-01,9.99999e-01,9.99999e-01,1.27432e-04,9.99999e-01
4.441680220e-01,1.52128e-04,9.99999e-01,9.99999e-01,9.99999e-01,1.52128e-04,9.99999e-01
4.463888621e-01,1.80976e-04,9.99999e-01,9.99999e-01,9.99999e-01,1.80976e-04,9.99999e-01
4.486208064e-01,2.14557e-04,9.99999e-01,9.99999e-01,9.99999e-01,2.14557e-04,9.99999e-01
4.508639105e-01,2.53515e-04,9.99999e-01,9.99999e-01,9.99999e-01,2.53515e-04,9.99999e-01
4.531182300e-01,2.98561e-04,9.99999e-01,9.99999e-01,9.99999e-01,2.98561e-04,9.99999e-01
4.553838212e-01,3.50477e-04,9.99999e-01,9.99999e-01,9.99999e-01,3.50477e-04,9.99999e-01
4.576607403e-01,4.10120e-04,9.99999e-01,9.99999e-01,9.99999e-01,4.10120e-04,9.99999e-01
4.599490440e-01,4.78426e-04,9.99999e-01,9.99999e-01,9.99999e-01,4.78426e-04,9.99999e-01
4.622487892e-01,5.56412e-04,9.99999e-01,9.99999e-01,9.99999e-01,5.56412e-04,9.99999e-01
4.645600332e-01,6.45183e-04,9.99999e-01,9.99999e-01,9.99999e-01,6.45183e-04,9.99999e-01
4.668828333e-01,7.45933e-04,9.99999e-01,9.99999e-01,9.99999e-01,7.45933e-04,9.99999e-01
4.692172475e-01,8.59947e-04,9.99999e-01,9.99999e-01,9.99999e-01,8.59947e-04,9.99999e-01
4.715633337e-01,9.88606e-04,9.99999e-01,9.99999e-01,9.99999e-01,9.88606e-04,9.99999e-01
4.739211504e-01,1.13339e-03,9.99999e-01,9.99999e-01,9.99999e-01,1.13339e-03,9.99999e-01
4.762907561e-01,1.29587e-03,9.99999e-01,9.99999e-01,9.99999e-01,1.29587e-03,9.99999e-01
4.786722099e-01,1.47773e-03,9.99999e-01,9.99999e-01,9.99999e-01,1.47773e-03,9.99999e-01
4.810655710e-01,1.68075e-03,9.99999e-01,9.99999e-01,9.99999e-01,1.68075e-03,9.99999e-01
4.834708988e-01,1.90681e-03,9.99999e-01,9.99999e-01,9.99999e-01,1.90681e-03,9.99999e-01
4.858882533e-01,2.15788e-03,9.99999e-01,9.99999e-01,9.99999e-01,2.15788e-03,9.99999e-01
4.883176946e-01,2.43606e-03,9.99999e-01,9.99999e-01,9.99999e-01,2.43606e-03,9.99999e-01
4.907592831e-01,2.74351e-03,9.99999e-01,9.99999e-01,9.99999e-01,2.74351e-03,9.99999e-01
4.932130795e-01,3.08252e-03,9.99999e-01,9.99999e-01,9.99999e-01,3.08252e-03,9.99999e-01
4.956791449e-01,3.45547e-03,9.99999e-01,9.99999e-01,9.99999e-01,3.45547e-03,9.99999e-01
4.981575406e-01,3.86480e-03,9.99999e-01,9.99999e-01,9.99999e-01,3.86480e-03,9.99999e-01
5.006483283e-01,4.31308e-03,9.99999e-01,9.99999e-01,9.99999e-01,4.31308e-03,9.99999e-01
5.031515699e-01,4.80293e-03,9.99999e-01,9.99999e-01,9.99999e-01,4.80293e-03,9.99999e-01
5.056673278e-01,5.33706e-03,9.99999e-01,9.99999e-01,9.99999e-01,5.33706e-03,9.99999e-01
5.081956644e-01,5.91825e-03,9.99999e-01,9.99999e-01,9.99999e-01,5.91825e-03,9.99999e-01
5.107366428e-01,6.54935e-03,9.99999e-01,9.99999e-01,9.99999e-01,6.54935e-03,9.99999e-01
5.132903260e-01,7.23326e-03,9.99999e-01,9.99999e-01,9.99999e-01,7.23326e-03,9.99999e-01
5.158567776e-01,7.97292e-03,9.99999e-01,9.99999e-01,9.99999e-01,7.97292e-03,9.99999e-01
5.184360615e-01,8.77133e-03,9.99999e-01,9.99999e-01,9.99999e-01,8.77133e-03,9.99999e-01
5.210282418e-01,9.63153e-03,9.99999e-01,9.99999e-01,9.99999e-01,9.63153e-03,9.99999e-01
5.236333830e-01,1.05566e-02,9.99999e-01,9.99999e-01,9.99999e-01,1.05566e-02,9.99999e-01
5.262515499e-01,1.15495e-02,9.99999e-01,9.99999e-01,9.99999e-01,1.15495e-02,9.99999e-01
5.288828077e-01,1.26134e-02,9.99999e-01,9.99999e-01,9.99999e-01,1.26134e-02,9.99999e-01
5.315272217e-01,1.37513e-02,9.99999e-01,9.99999e-01,9.99999e-01,1.37513e-02,9.99999e-01
5.341848578e-01,1.49664e-02,9.99999e-01,9.99999e-01,9.99999e-01,1.49664e-02,9.99999e-01
5.368557821e-01,1.62616e-02,9.99999e-01,9.99999e-01,9.99999e-01,1.62616e-02,9.99999e-01
5.395400610e-01,1.76399e-02,9.99999e-01,9.99999e-01,9.99999e-01,1.76399e-02,9.99999e-01
5.422377613e-01,1.91044e-02,9.99999e-01,9.99999e-01,9.99999e-01,1.91044e-02,9.99999e-01
5.449489501e-01,2.06578e-02,9.99999e-01,9.99999e-01,9.99999e-01,2.06578e-02,9.99999e-01
5.476736949e-01,2.23032e-02,9.99999e-01,9.99999e-01,9.99999e-01,2.23032e-02,9.99999e-01
5.504120634e-01,2.40431e-02,9.99999e-01,9.99999e-01,9.99999e-01,2.40431e-02,9.99999e-01
5.531641237e-01,2.58803e-02,9.99999e-01,9.99999e-01,9.99999e-01,2.58803e-02,9.99999e-01
5.559299443e-01,2.78174e-02,9.99999e-01,9.99999e-01,9.99999e-01,2.78174e-02,9.99999e-01
5.587095940e-01,2.98570e-02,9.99999e-01,9.99999e-01,9.99999e-01,2.98570e-02,9.99999e-01
5.615031420e-01,3.20013e-02,9.99999e-01,9.99999e-01,9.99999e-01,3.20013e-02,9.99999e-01
5.643106577e-01,3.42526e-02,9.99999e-01,9.99999e-01,9.99999e-01,3.42526e-02,9.99999e-01
5.671322110e-01,3.66132e-02,9.99999e-01,9.99999e-01,9.99999e-01,3.66132e-02,9.99999e-01
5.699678720e-01,3.90849e-02,9.99999e-01,9.99999e-01,9.99999e-01,3.90849e-02,9.99999e-01
5.728177114e-01,4.16697e-02,9.99999e-01,9.99999e-01,9.99999e-01,4.16697e-02,9.99999e-01
5.756818000e-01,4.43693e-02,9.99999e-01,9.99999e-01,9.99999e-01,4.43693e-02,9.99999e-01
5.785602090e-01,4.71852e-02,9.99999e-01,9.99999e-01,9.99999e-01,4.71852e-02,9.99999e-01
5.814530100e-01,5.01189e-02,9.99999e-01,9.99999e-01,9.99999e-01,5.01189e-02,9.99999e-01
5.843602750e-01,5.31716e-02,9.99999e-01,9.99999e-01,9.99999e-01,5.31716e-02,9.99999e-01
5.872820764e-01,5.63444e-02,9.99999e-01,9.99999e-01,9.99999e-01,5.63444e-02,9.99999e-01
5.902184868e-01,5.96382e-02,9.99999e-01,9.99999e-01,9.99999e-01,5.96382e-02,9.99999e-01
5.931695792e-01,6.30538e-02,9.99999e-01,9.99999e-01,9.99999e-01,6.30538e-02,9.99999e-01
5.961354271e-01,6.65916e-02,9.99999e-01,9.99999e-01,9.99999e-01,6.65916e-02,9.99999e-01
5.991161043e-01,7.02522e-02,9.99999e-01,9.99999e-01,9.99999e-01,7.02522e-02,9.99999e-01
6.021116848e-01,7.40357e-02,9.99999e-01,9.99999e-01,9.99999e-01,7.40357e-02,9.99999e-01
6.051222432e-01,7.79422e-02,9.99999e-01,9.99999e-01,9.99999e-01,7.79422e-02,9.99999e-01
6.081478544e-01,8.19715e-02,9.99999e-01,9.99999e-01,9.99999e-01,8.19715e-02,9.99999e-01
6.111885937e-01,8.61233e-02,9.99999e-01,9.99999e-01,9.99999e-01,8.61233e-02,9.99999e-01
6.142445367e-01,9.03971e-02,9.99999e-01,9.99999e-01,9.99999e-01,9.03971e-02,9.99999e-01
6.173157594e-01,9.47923e-02,9.99999e-01,9.99999e-01,9.99999e-01,9.47923e-02,9.99999e-01
6.204023382e-01,9.93081e-02,9.99999e-01,9.99999e-01,9.99999e-01,9.93081e-02,9.99999e-01
6.235043498e-01,1.03943e-01,9.99999e-01,9.99999e-01,9.99999e-01,1.03943e-01,9.99999e-01
6.266218716e-01,1.08697e-01,9.99999e-01,9.99999e-01,9.99999e-01,1.08697e-01,9.99999e-01
6.297549810e-01,1.13568e-01,9.99999e-01,9.99999e-01,9.99999e-01,1.13568e-01,9.99999e-01
6.329037559e-01,1.18554e-01,9.99999e-01,9.99999e-01,9.99999e-01,1.18554e-01,9.99999e-01
6.360682746e-01,1.23654e-01,9.99999e-01,9.99999e-01,9.99999e-01,1.23654e-01,9.99999e-01
6.392486160e-01,1.28866e-01,9.99999e-01,9.99999e-01,9.99999e-01,1.28866e-01,9.99999e-01
6.424448591e-01,1.34189e-01,9.99999e-01,9.99999e-01,9.99999e-01,1.34189e-01,9.99999e-01
6.456570834e-01,1.39619e-01,9.99999e-01,9.99999e-01,9.99999e-01,1.39619e-01,9.99999e-01
6.488853688e-01,1.45156e-01,9.99999e-01,9.99999e-01,9.99999e-01,1.45156e-01,9.99999e-01
6.521297956e-01,1.50796e-01,9.99999e-01,9.99999e-01,9.99999e-01,1.50796e-01,9.99999e-01
6.553904446e-01,1.56538e-01,9.99999e-01,9.99999e-01,9.99999e-01,1.56538e-01,9.99999e-01
6.586673968e-01,1.62378e-01,9.99999e-01,9.99999e-01,9.99999e-01,1.62378e-01,9.99999e-01
6.619607338e-01,1.68315e-01,9.99999e-01,9.99999e-01,9.99999e-01,1.68315e-01,9.99999e-01
6.652705375e-01,1.74344e-01,9.99999e-01,9.99999e-01,9.99999e-01,1.74344e-01,9.99999e-01
6.685968902e-01,1.80465e-01,9.99999e-01,9.99999e-01,9.99999e-01,1.80465e-01,9.99999e-01
6.719398746e-01,1.86672e-01,9.99999e-01,9.99999e-01,9.99999e-01,1.86672e-01,9.99999e-01
6.752995740e-01,1.92965e-01,9.99999e-01,9.99999e-01,9.99999e-01,1.92965e-01,9.99999e-01
6.786760719e-01,1.99339e-01,9.99999e-01,9.99999e-01,9.99999e-01,1.99339e-01,9.99999e-01
6.820694522e-01,2.05791e-01,9.99999e-01,9.99999e-01,9.99999e-01,2.05791e-01,9.99999e-01
6.854797995e-01,2.12319e-01,9.99999e-01,9.99999e-01,9.99999e-01,2.12319e-01,9.99999e-01
6.889071985e-01,2.18918e-01,9.99999e-01,9.99999e-01,9.99999e-01,2.18918e-01,9.99999e-01
6.923517345e-01,2.25586e-01,9.99999e-01,9.99999e-01,9.99999e-01,2.25586e-01,9.99999e-01
6.958134932e-01,2.32320e-01,9.99999e-01,9.99999e-01,9.99999e-01,2.32320e-01,9.99999e-01
6.992925606e-01,2.39116e-01,9.99999e-01,9.99999e-01,9.99999e-01,2.39116e-01,9.99999e-01
7.027890234e-01,2.45970e-01,9.99999e-01,9.99999e-01,9.99999e-01,2.45970e-01,9.99999e-01
7.063029686e-01,2.52879e-01,9.99999e-01,9.99999e-01,9.99999e-01,2.52879e-01,9.99999e-01
7.098344834e-01,2.59841e-01,9.99999e-01,9.99999e-01,9.99999e-01,2.59841e-01,9.99999e-01
7.133836558e-01,2.66851e-01,9.99999e-01,9.99999e-01,9.99999e-01,2.66851e-01,9.99999e-01
7.169505741e-01,2.73906e-01,9.99999e-01,9.99999e-01,9.99999e-01,2.73906e-01,9.99999e-01
7.205353270e-01,2.81002e-01,9.99999e-01,9.99999e-01,9.99999e-01,2.81002e-01,9.99999e-01
7.241380036e-01,2.88137e-01,9.99999e-01,9.99999e-01,9.99999e-01,2.88137e-01,9.99999e-01
7.277586936e-01,2.95307e-01,9.99999e-01,9.99999e-01,9.99999e-01,2.95307e-01,9.99999e-01
7.313974871e-01,3.02508e-01,9.99999e-01,9.99999e-01,9.99999e-01,3.02508e-01,9.99999e-01
7.350544745e-01,3.09737e-01,9.99999e-01,9.99999e-01,9.99999e-01,3.09737e-01,9.99999e-01
7.387297469e-01,3.16991e-01,9.99999e-01,9.99999e-01,9.99999e-01,3.16991e-01,9.99999e-01
7.424233956e-01,3.24267e-01,9.99999e-01,9.99999e-01,9.99999e-01,3.24267e-01,9.99999e-01
7.461355126e-01,3.31561e-01,9.99999e-01,9.99999e-01,9.99999e-01,3.31561e-01,9.99999e-01
7.498661902e-01,3.38871e-01,9.99999e-01,9.99999e-01,9.99999e-01,3.38871e-01,9.99999e-01
7.536155211e-01,3.46192e-01,9.99999e-01,9.99999e-01,9.99999e-01,3.46192e-01,9.99999e-01
7.573835987e-01,3.53522e-01,9.99999e-01,9.99999e-01,9.99999e-01,3.53522e-01,9.99999e-01
7.611705167e-01,3.60858e-01,9.99999e-01,9.99999e-01,9.99999e-01,3.60858e-01,9.99999e-01
7.649763693e-01,3.68197e-01,9.99999e-01,9.99999e-01,9.99999e-01,3.68197e-01,9.99999e-01
7.688012511e-01,3.75536e-01,9.99999e-01,9.99999e-01,9.99999e-01,3.75536e-01,9.99999e-01
7.726452574e-01,3.82871e-01,9.99999e-01,9.99999e-01,9.99999e-01,3.82871e-01,9.99999e-01
7.765084837e-01,3.90201e-01,9.99999e-01,9.99999e-01,9.99999e-01,3.90201e-01,9.99999e-01
7.803910261e-01,3.80546e-01,9.99999e-01,9.99999e-01,9.57294e-01,3.97522e-01,9.99999e-01
7.842929812e-01,3.34987e-01,9.99999e-01,9.99999e-01,8.27470e-01,4.04832e-01,9.99999e-01
7.882144461e-01,3.36284e-01,9.99999e-01,9.99999e-01,8.15969e-01,4.12128e-01,9.99999e-01
7.921555184e-01,3.72151e-01,9.99999e-01,9.99999e-01,8.87325e-01,4.19408e-01,9.99999e-01
7.961162960e-01,3.93976e-01,9.99999e-01,9.99999e-01,9.23378e-01,4.26668e-01,9.99999e-01
8.000968774e-01,4.15531e-01,9.99999e-01,9.99999e-01,9.57648e-01,4.33907e-01,9.99999e-01
8.040973618e-01,4.31371e-01,9.99999e-01,9.99999e-01,9.77893e-01,4.41123e-01,9.99999e-01
8.081178486e-01,4.43722e-01,9.99999e-01,9.99999e-01,9.89762e-01,4.48312e-01,9.99999e-01
8.121584379e-01,4.54038e-01,9.99999e-01,9.99999e-01,9.96849e-01,4.55473e-01,9.99999e-01
8.162192301e-01,4.62281e-01,9.99999e-01,9.99999e-01,9.99303e-01,4.62603e-01,9.99999e-01
8.203003262e-01,4.69696e-01,9.99999e-01,9.99999e-01,9.99989e-01,4.69701e-01,9.99999e-01
8.244018279e-01,4.76764e-01,9.99999e-01,9.99999e-01,9.99999e-01,4.76764e-01,9.99999e-01
8.285238370e-01,4.83791e-01,9.99999e-01,9.99999e-01,9.99999e-01,4.83791e-01,9.99999e-01
8.326664562e-01,4.90780e-01,9.99999e-01,9.99999e-01,9.99999e-01,4.90780e-01,9.99999e-01
8.368297885e-01,4.97729e-01,9.99999e-01,9.99999e-01,9.99999e-01,4.97729e-01,9.99999e-01
8.410139374e-01,5.04635e-01,9.99999e-01,9.99999e-01,9.99999e-01,5.04635e-01,9.99999e-01
8.452190071e-01,5.11499e-01,9.99999e-01,9.99999e-01,9.99999e-01,5.11499e-01,9.99999e-01
8.494451021e-01,5.18317e-01,9.99999e-01,9.99999e-01,9.99999e-01,5.18317e-01,9.99999e-01
8.536923276e-01,5.25089e-01,9.99999e-01,9.99999e-01,9.99999e-01,5.25089e-01,9.99999e-01
8.579607893e-01,5.31813e-01,9.99999e-01,9.99999e-01,9.99999e-01,5.31813e-01,9.99999e-01
8.622505932e-01,5.38488e-01,9.99999e-01,9.99999e-01,9.99999e-01,5.38488e-01,9.99999e-01
8.665618462e-01,4.97435e-01,9.99999e-01,9.99999e-01,9.12536e-01,5.45112e-01,9.99999e-01
8.708946554e-01,3.41338e-01,9.99999e-01,9.99999e-01,6.18719e-01,5.51685e-01,9.99999e-01
8.752491287e-01,3.78798e-01,9.99999e-01,9.99999e-01,6.78600e-01,5.58204e-01,9.99999e-01
8.796253743e-01,4.56002e-01,9.99999e-01,9.99999e-01,8.07553e-01,5.64670e-01,9.99999e-01
8.840235012e-01,5.11022e-01,9.99999e-01,9.99999e-01,8.94833e-01,5.71081e-01,9.99999e-01
8.884436187e-01,5.52759e-01,9.99999e-01,9.99999e-01,9.57265e-01,5.77435e-01,9.99999e-01
8.928858368e-01,5.73477e-01,9.99999e-01,9.99999e-01,9.82430e-01,5.83733e-01,9.99999e-01
8.973502660e-01,5.87450e-01,9.99999e-01,9.99999e-01,9.95722e-01,5.89973e-01,9.99999e-01
9.018370173e-01,5.95873e-01,9.99999e-01,9.99999e-01,9.99528e-01,5.96154e-01,9.99999e-01
9.063462024e-01,5.94868e-01,9.99999e-01,9.99999e-01,9.87699e-01,6.02276e-01,9.99999e-01
9.108779334e-01,5.91531e-01,9.99999e-01,9.99999e-01,9.72371e-01,6.08339e-01,9.99999e-01
9.154323231e-01,6.10344e-01,9.99999e-01,9.99999e-01,9.93494e-01,6.14340e-01,9.99999e-01
9.200094847e-01,5.64022e-01,9.99999e-01,9.99999e-01,9.09299e-01,6.20281e-01,9.99999e-01
9.246095321e-01,5.45916e-01,9.99999e-01,9.99999e-01,8.71847e-01,6.26160e-01,9.99999e-01
9.292325798e-01,5.67292e-01,9.99999e-01,9.99999e-01,8.97646e-01,6.31977e-01,9.99999e-01
9.338787427e-01,5.74840e-01,9.99999e-01,9.99999e-01,9.01381e-01,6.37732e-01,9.99999e-01
9.385481364e-01,5.96095e-01,9.99999e-01,9.99999e-01,9.26443e-01,6.43423e-01,9.99999e-01
9.432408771e-01,6.19430e-01,9.99999e-01,9.99999e-01,9.54360e-01,6.49052e-01,9.99999e-01
9.479570815e-01,6.39093e-01,9.99999e-01,9.99999e-01,9.76284e-01,6.54617e-01,9.99999e-01
9.526968669e-01,6.52537e-01,9.99999e-01,9.99999e-01,9.88514e-01,6.60119e-01,9.99999e-01
9.574603512e-01,6.62279e-01,9.99999e-01,9.99999e-01,9.95075e-01,6.65557e-01,9.99999e-01
9.622476530e-01,6.69899e-01,9.99999e-01,9.99999e-01,9.98462e-01,6.70931e-01,9.99999e-01
9.670588912e-01,6.75929e-01,9.99999e-01,9.99999e-01,9.99539e-01,6.76240e-01,9.99999e-01
9.718941857e-01,6.81464e-01,9.99999e-01,9.99999e-01,9.99967e-01,6.81486e-01,9.99999e-01
9.767536566e-01,6.86668e-01,9.99999e-01,9.99999e-01,9.99999e-01,6.86668e-01,9.99999e-01
9.816374249e-01,6.91785e-01,9.99999e-01,9.99999e-01,9.99999e-01,6.91785e-01,9.99999e-01
9.865456120e-01,6.96839e-01,9.99999e-01,9.99999e-01,9.99999e-01,6.96839e-01,9.99999e-01
9.914783401e-01,7.01828e-01,9.99999e-01,9.99999e-01,9.99999e-01,7.01828e-01,9.99999e-01
9.964357318e-01,7.06754e-01,9.99999e-01,9.99999e-01,9.99999e-01,7.06754e-01,9.99999e-01
1.001417910e+00,7.11615e-01,9.99999e-01,9.99999e-01,9.99999e-01,7.11615e-01,9.99999e-01
1.006425000e+00,7.16414e-01,9.99999e-01,9.99999e-01,9.99999e-01,7.16414e-01,9.99999e-01
1.011457125e+00,7.21149e-01,9.99999e-01,9.99999e-01,9.99999e-01,7.21149e-01,9.99999e-01
1.016514411e+00,7.25820e-01,9.99999e-01,9.99999e-01,9.99999e-01,7.25820e-01,9.99999e-01
1.021596983e+00,7.30377e-01,9.99999e-01,9.99999e-01,9.99928e-01,7.30429e-01,9.99999e-01
1.026704968e+00,7.31424e-01,9.99999e-01,9.99999e-01,9.95167e-01,7.34975e-01,9.99999e-01
1.031838492e+00,6.99144e-01,9.99999e-01,9.99999e-01,9.45479e-01,7.39459e-01,9.99999e-01
1.036997685e+00,9.03708e-02,9.99999e-01,9.99999e-01,1.21485e-01,7.43881e-01,9.99999e-01
1.042182673e+00,5.41510e-02,9.99999e-01,9.99999e-01,7.23710e-02,7.48241e-01,9.99999e-01
1.047393587e+00,7.22072e-02,9.99999e-01,9.99999e-01,9.59513e-02,7.52540e-01,9.99999e-01
1.052630555e+00,9.16517e-04,9.99999e-01,9.99999e-01,1.21108e-03,7.56778e-01,9.99999e-01
1.057893707e+00,2.66358e-03,9.99999e-01,9.99999e-01,3.50031e-03,7.60955e-01,9.99999e-01
1.063183176e+00,1.15349e-02,9.99999e-01,9.99999e-01,1.50768e-02,7.65072e-01,9.99999e-01
1.068499092e+00,3.95737e-02,9.99999e-01,9.99999e-01,5.14525e-02,7.69130e-01,9.99999e-01
1.073841587e+00,1.18436e-01,9.99999e-01,9.99999e-01,1.53190e-01,7.73128e-01,9.99999e-01
1.079210795e+00,2.36795e-01,9.99999e-01,9.99999e-01,3.04728e-01,7.77067e-01,9.99999e-01
1.084606849e+00,4.05094e-01,9.99999e-01,9.99999e-01,5.18719e-01,7.80949e-01,9.99999e-01
1.090029883e+00,5.57741e-01,9.99999e-01,9.99999e-01,7.10704e-01,7.84772e-01,9.99999e-01
1.095480033e+00,6.66476e-01,9.99999e-01,9.99999e-01,8.45204e-01,7.88538e-01,9.99999e-01
1.100957433e+00,7.30531e-01,9.99999e-01,9.99999e-01,9.22099e-01,7.92247e-01,9.99999e-01
1.106462220e+00,7.69674e-01,9.99999e-01,9.99999e-01,9.67048e-01,7.95899e-01,9.99999e-01
1.111994531e+00,7.89628e-01,9.99999e-01,9.99999e-01,9.87655e-01,7.99496e-01,9.99999e-01
1.117554504e+00,8.00616e-01,9.99999e-01,9.99999e-01,9.96983e-01,8.03038e-01,9.99999e-01
1.123142276e+00,8.06366e-01,9.99999e-01,9.99999e-01,9.99802e-01,8.06525e-01,9.99999e-01
1.128757988e+00,8.09958e-01,9.99999e-01,9.99999e-01,9.99999e-01,8.09958e-01,9.99999e-01
1.134401778e+00,8.13337e-01,9.99999e-01,9.99999e-01,9.99999e-01,8.13337e-01,9.99999e-01
1.140073787e+00,8.16663e-01,9.99999e-01,9.99999e-01,9.99999e-01,8.16663e-01,9.99999e-01
1.145774156e+00,8.19936e-01,9.99999e-01,9.99999e-01,9.99999e-01,8.19936e-01,9.99999e-01
1.151503026e+00,8.23158e-01,9.99999e-01,9.99999e-01,9.99999e-01,8.23158e-01,9.99999e-01
1.157260541e+00,8.26328e-01,9.99999e-01,9.99999e-01,9.99999e-01,8.26328e-01,9.99999e-01
1.163046844e+00,8.29448e-01,9.99999e-01,9.99999e-01,9.99999e-01,8.29448e-01,9.99999e-01
1.168862078e+00,8.32517e-01,9.99999e-01,9.99999e-01,9.99999e-01,8.32517e-01,9.99999e-01
1.174706389e+00,8.35537e-01,9.99999e-01,9.99999e-01,9.99999e-01,8.35537e-01,9.99999e-01
1.180579921e+00,8.38507e-01,9.99999e-01,9.99999e-01,9.99999e-01,8.38507e-01,9.99999e-01
1.186482820e+00,8.41421e-01,9.99999e-01,9.99999e-01,9.99989e-01,8.41430e-01,9.99999e-01
1.192415234e+00,8.29849e-01,9.99999e-01,9.99999e-01,9.82878e-01,8.44304e-01,9.99999e-01
1.198377311e+00,4.69487e-01,9.99999e-01,9.99999e-01,5.54207e-01,8.47131e-01,9.99999e-01
1.204369197e+00,1.21395e-13,9.99999e-01,9.99999e-01,1.42832e-13,8.49912e-01,9.99999e-01
1.210391043e+00,3.40945e-51,9.99999e-01,9.99999e-01,3.99866e-51,8.52646e-01,9.99999e-01
1.216442998e+00,1.76830e-44,9.99999e-01,9.99999e-01,2.06737e-44,8.55335e-01,9.99999e-01
1.222525213e+00,7.85870e-44,9.99999e-01,9.99999e-01,9.15953e-44,8.57979e-01,9.99999e-01
1.228637839e+00,5.96521e-34,9.99999e-01,9.99999e-01,6.93162e-34,8.60579e-01,9.99999e-01
