#,Wave/freq,Total,N2,O2,CO2,Rayleigh,CIA
4.000000000e-01,1.30605e-20,9.99999e-01,9.99999e-01,9.99999e-01,1.30605e-20,9.99999e-01
4.020000000e-01,3.22937e-20,9.99999e-01,9.99999e-01,9.99999e-01,3.22937e-20,9.99999e-01
4.040100000e-01,7.83629e-20,9.99999e-01,9.99999e-01,9.99999e-01,7.83629e-20,9.99999e-01
4.060300500e-01,1.86853e-19,9.99999e-01,9.99999e-01,9.99999e-01,1.86853e-19,9.99999e-01
4.080602003e-01,4.37959e-19,9.99999e-01,9.99999e-01,9.99999e-01,4.37959e-19,9.99999e-01
4.101005013e-01,1.00939e-18,9.99999e-01,9.99999e-01,9.99999e-01,1.00939e-18,9.99999e-01
4.121510038e-01,2.28836e-18,9.99999e-01,9.99999e-01,9.99999e-01,2.28836e-18,9.99999e-01
4.142117588e-01,5.10468e-18,9.99999e-01,9.99999e-01,9.99999e-01,5.10468e-18,9.99999e-01
4.162828176e-01,1.12080e-17,9.99999e-01,9.99999e-01,9.99999e-01,1.12080e-17,9.99999e-01
4.183642317e-01,2.42294e-17,9.99999e-01,9.99999e-01,9.99999e-01,2.42294e-17,9.99999e-01
4.204560528e-01,5.15873e-17,9.99999e-01,9.99999e-01,9.99999e-01,5.15873e-17,9.99999e-01
4.225583331e-01,1.08208e-16,9.99999e-01,9.99999e-01,9.99999e-01,1.08208e-16,9.99999e-01
4.246711247e-01,2.23678e-16,9.99999e-01,9.99999e-01,9.99999e-01,2.23678e-16,9.99999e-01
4.267944804e-01,4.55782e-16,9.99999e-01,9.99999e-01,9.99999e-01,4.55782e-16,9.99999e-01
4.289284528e-01,9.15766e-16,9.99999e-01,9.99999e-01,9.99999e-01,9.15766e-16,9.99999e-01
4.310730950e-01,1.81479e-15,9.99999e-01,9.99999e-01,9.99999e-01,1.81479e-15,9.99999e-01
4.332284605e-01,3.54815e-15,9.99999e-01,9.99999e-01,9.99999e-01,3.54815e-15,9.99999e-01
4.353946028e-01,6.84581e-15,9.99999e-01,9.99999e-01,9.99999e-01,6.84581e-15,9.99999e-01
4.375715758e-01,1.30380e-14,9.99999e-01,9.99999e-01,9.99999e-01,1.30380e-14,9.99999e-01
4.397594337e-01,2.45171e-14,9.99999e-01,9.99999e-01,9.99999e-01,2.45171e-14,9.99999e-01
4.419582309e-01,4.55314e-14,9.99999e-01,9.99999e-01,9.99999e-01,4.55314e-14,9.99999e-01
4.441680220e-01,8.35300e-14,9.99999e-01,9.99999e-01,9.99999e-01,8.35300e-14,9.99999e-01
4.463888621e-01,1.51415e-13,9.99999e-01,9.99999e-01,9.99999e-01,1.51415e-13,9.99999e-01
4.486208064e-01,2.71264e-13,9.99999e-01,9.99999e-01,9.99999e-01,2.71264e-13,9.99999e-01
4.508639105e-01,4.80412e-13,9.99999e-01,9.99999e-01,9.99999e-01,4.80412e-13,9.99999e-01
4.531182300e-01,8.41264e-13,9.99999e-01,9.99999e-01,9.99999e-01,8.41264e-13,9.99999e-01
4.553838212e-01,1.45695e-12,9.99999e-01,9.99999e-01,9.99999e-01,1.45695e-12,9.99999e-01
4.576607403e-01,2.49601e-12,9.99999e-01,9.99999e-01,9.99999e-01,2.49601e-12,9.99999e-01
4.599490440e-01,4.23086e-12,9.99999e-01,9.99999e-01,9.99999e-01,4.23086e-12,9.99999e-01
4.622487892e-01,7.09717e-12,9.99999e-01,9.99999e-01,9.99999e-01,7.09717e-12,9.99999e-01
4.645600332e-01,1.17843e-11,9.99999e-01,9.99999e-01,9.99999e-01,1.17843e-11,9.99999e-01
4.668828333e-01,1.93719e-11,9.99999e-01,9.99999e-01,9.99999e-01,1.93719e-11,9.99999e-01
4.692172475e-01,3.15339e-11,9.99999e-01,9.99999e-01,9.99999e-01,3.15339e-11,9.99999e-01
4.715633337e-01,5.08397e-11,9.99999e-01,9.99999e-01,9.99999e-01,5.08397e-11,9.99999e-01
4.739211504e-01,8.11953e-11,9.99999e-01,9.99999e-01,9.99999e-01,8.11953e-11,9.99999e-01
4.762907561e-01,1.28482e-10,9.99999e-01,9.99999e-01,9.99999e-01,1.28482e-10,9.99999e-01
4.786722099e-01,2.01473e-10,9.99999e-01,9.99999e-01,9.99999e-01,2.01473e-10,9.99999e-01
4.810655710e-01,3.13136e-10,9.99999e-01,9.99999e-01,9.99999e-01,3.13136e-10,9.99999e-01
4.834708988e-01,4.82465e-10,9.99999e-01,9.99999e-01,9.99999e-01,4.82465e-10,9.99999e-01
4.858882533e-01,7.37039e-10,9.99999e-01,9.99999e-01,9.99999e-01,7.37039e-10,9.99999e-01
4.883176946e-01,1.11656e-09,9.99999e-01,9.99999e-01,9.99999e-01,1.11656e-09,9.99999e-01
4.907592831e-01,1.67767e-09,9.99999e-01,9.99999e-01,9.99999e-01,1.67767e-09,9.99999e-01
4.932130795e-01,2.50058e-09,9.99999e-01,9.99999e-01,9.99999e-01,2.50058e-09,9.99999e-01
4.956791449e-01,3.69786e-09,9.99999e-01,9.99999e-01,9.99999e-01,3.69786e-09,9.99999e-01
4.981575406e-01,5.42631e-09,9.99999e-01,9.99999e-01,9.99999e-01,5.42631e-09,9.99999e-01
5.006483283e-01,7.90257e-09,9.99999e-01,9.99999e-01,9.99999e-01,7.90257e-09,9.99999e-01
5.031515699e-01,1.14237e-08,9.99999e-01,9.99999e-01,9.99999e-01,1.14237e-08,9.99999e-01
5.056673278e-01,1.63940e-08,9.99999e-01,9.99999e-01,9.99999e-01,1.63940e-08,9.99999e-01
5.081956644e-01,2.33596e-08,9.99999e-01,9.99999e-01,9.99999e-01,2.33596e-08,9.99999e-01
5.107366428e-01,3.30527e-08,9.99999e-01,9.99999e-01,9.99999e-01,3.30527e-08,9.99999e-01
5.132903260e-01,4.64484e-08,9.99999e-01,9.99999e-01,9.99999e-01,4.64484e-08,9.99999e-01
5.158567776e-01,6.48360e-08,9.99999e-01,9.99999e-01,9.99999e-01,6.48360e-08,9.99999e-01
5.184360615e-01,8.99085e-08,9.99999e-01,9.99999e-01,9.99999e-01,8.99085e-08,9.99999e-01
5.210282418e-01,1.23874e-07,9.99999e-01,9.99999e-01,9.99999e-01,1.23874e-07,9.99999e-01
5.236333830e-01,1.69594e-07,9.99999e-01,9.99999e-01,9.99999e-01,1.69594e-07,9.99999e-01
5.262515499e-01,2.30753e-07,9.99999e-01,9.99999e-01,9.99999e-01,2.30753e-07,9.99999e-01
5.288828077e-01,3.12062e-07,9.99999e-01,9.99999e-01,9.99999e-01,3.12062e-07,9.99999e-01
5.315272217e-01,4.19514e-07,9.99999e-01,9.99999e-01,9.99999e-01,4.19514e-07,9.99999e-01
5.341848578e-01,5.60677e-07,9.99999e-01,9.99999e-01,9.99999e-01,5.60677e-07,9.99999e-01
5.368557821e-01,7.45060e-07,9.99999e-01,9.99999e-01,9.99999e-01,7.45060e-07,9.99999e-01
5.395400610e-01,9.84534e-07,9.99999e-01,9.99999e-01,9.99999e-01,9.84534e-07,9.99999e-01
5.422377613e-01,1.29384e-06,9.99999e-01,9.99999e-01,9.99999e-01,1.29384e-06,9.99999e-01
5.449489501e-01,1.69116e-06,9.99999e-01,9.99999e-01,9.99999e-01,1.69116e-06,9.99999e-01
5.476736949e-01,2.19883e-06,9.99999e-01,9.99999e-01,9.99999e-01,2.19883e-06,9.99999e-01
5.504120634e-01,2.84412e-06,9.99999e-01,9.99999e-01,9.99999e-01,2.84412e-06,9.99999e-01
5.531641237e-01,3.66012e-06,9.99999e-01,9.99999e-01,9.99999e-01,3.66012e-06,9.99999e-01
5.559299443e-01,4.68684e-06,9.99999e-01,9.99999e-01,9.99999e-01,4.68684e-06,9.99999e-01
5.587095940e-01,5.97233e-06,9.99999e-01,9.99999e-01,9.99999e-01,5.97233e-06,9.99999e-01
5.615031420e-01,7.57404e-06,9.99999e-01,9.99999e-01,9.99999e-01,7.57404e-06,9.99999e-01
5.643106577e-01,9.56035e-06,9.99999e-01,9.99999e-01,9.99999e-01,9.56035e-06,9.99999e-01
5.671322110e-01,1.20122e-05,9.99999e-01,9.99999e-01,9.99999e-01,1.20122e-05,9.99999e-01
5.699678720e-01,1.50249e-05,9.99999e-01,9.99999e-01,9.99999e-01,1.50249e-05,9.99999e-01
5.728177114e-01,1.87103e-05,9.99999e-01,9.99999e-01,9.99999e-01,1.87103e-05,9.99999e-01
5.756818000e-01,2.31990e-05,9.99999e-01,9.99999e-01,9.99999e-01,2.31990e-05,9.99999e-01
5.785602090e-01,2.86426e-05,9.99999e-01,9.99999e-01,9.99999e-01,2.86426e-05,9.99999e-01
5.814530100e-01,3.52167e-05,9.99999e-01,9.99999e-01,9.99999e-01,3.52167e-05,9.99999e-01
5.843602750e-01,4.31232e-05,9.99999e-01,9.99999e-01,9.99999e-01,4.31232e-05,9.99999e-01
5.872820764e-01,5.25940e-05,9.99999e-01,9.99999e-01,9.99999e-01,5.25940e-05,9.99999e-01
5.902184868e-01,6.38937e-05,9.99999e-01,9.99999e-01,9.99999e-01,6.38937e-05,9.99999e-01
5.931695792e-01,7.73234e-05,9.99999e-01,9.99999e-01,9.99999e-01,7.73234e-05,9.99999e-01
5.961354271e-01,9.32238e-05,9.99999e-01,9.99999e-01,9.99999e-01,9.32238e-05,9.99999e-01
5.991161043e-01,1.11980e-04,9.99999e-01,9.99999e-01,9.99999e-01,1.11980e-04,9.99999e-01
6.021116848e-01,1.34023e-04,9.99999e-01,9.99999e-01,9.99999e-01,1.34023e-04,9.99999e-01
6.051222432e-01,1.59836e-04,9.99999e-01,9.99999e-01,9.99999e-01,1.59836e-04,9.99999e-01
6.081478544e-01,1.89960e-04,9.99999e-01,9.99999e-01,9.99999e-01,1.89960e-04,9.99999e-01
6.111885937e-01,2.24993e-04,9.99999e-01,9.99999e-01,9.99999e-01,2.24993e-04,9.99999e-01
6.142445367e-01,2.65596e-04,9.99999e-01,9.99999e-01,9.99999e-01,2.65596e-04,9.99999e-01
6.173157594e-01,3.12502e-04,9.99999e-01,9.99999e-01,9.99999e-01,3.12502e-04,9.99999e-01
6.204023382e-01,3.66512e-04,9.99999e-01,9.99999e-01,9.99999e-01,3.66512e-04,9.99999e-01
6.235043498e-01,4.28505e-04,9.99999e-01,9.99999e-01,9.99999e-01,4.28505e-04,9.99999e-01
6.266218716e-01,4.99439e-04,9.99999e-01,9.99999e-01,9.99999e-01,4.99439e-04,9.99999e-01
6.297549810e-01,5.80358e-04,9.99999e-01,9.99999e-01,9.99999e-01,5.80358e-04,9.99999e-01
6.329037559e-01,6.72390e-04,9.99999e-01,9.99999e-01,9.99999e-01,6.72390e-04,9.99999e-01
6.360682746e-01,7.76754e-04,9.99999e-01,9.99999e-01,9.99999e-01,7.76754e-04,9.99999e-01
6.392486160e-01,8.94763e-04,9.99999e-01,9.99999e-01,9.99999e-01,8.94763e-04,9.99999e-01
6.424448591e-01,1.02783e-03,9.99999e-01,9.99999e-01,9.99999e-01,1.02783e-03,9.99999e-01
6.456570834e-01,1.17745e-03,9.99999e-01,9.99999e-01,9.99999e-01,1.17745e-03,9.99999e-01
6.488853688e-01,1.34523e-03,9.99999e-01,9.99999e-01,9.99999e-01,1.34523e-03,9.99999e-01
6.521297956e-01,1.53289e-03,9.99999e-01,9.99999e-01,9.99999e-01,1.53289e-03,9.99999e-01
6.553904446e-01,1.74222e-03,9.99999e-01,9.99999e-01,9.99999e-01,1.74222e-03,9.99999e-01
6.586673968e-01,1.97514e-03,9.99999e-01,9.99999e-01,9.99999e-01,1.97514e-03,9.99999e-01
6.619607338e-01,2.23366e-03,9.99999e-01,9.99999e-01,9.99999e-01,2.23366e-03,9.99999e-01
6.652705375e-01,2.51989e-03,9.99999e-01,9.99999e-01,9.99999e-01,2.51989e-03,9.99999e-01
6.685968902e-01,2.83603e-03,9.99999e-01,9.99999e-01,9.99999e-01,2.83603e-03,9.99999e-01
6.719398746e-01,3.18438e-03,9.99999e-01,9.99999e-01,9.99999e-01,3.18438e-03,9.99999e-01
6.752995740e-01,3.56736e-03,9.99999e-01,9.99999e-01,9.99999e-01,3.56736e-03,9.99999e-01
6.786760719e-01,3.98744e-03,9.99999e-01,9.99999e-01,9.99999e-01,3.98744e-03,9.99999e-01
6.820694522e-01,4.44720e-03,9.99999e-01,9.99999e-01,9.99999e-01,4.44720e-03,9.99999e-01
6.854797995e-01,4.94928e-03,9.99999e-01,9.99999e-01,9.99999e-01,4.94928e-03,9.99999e-01
6.889071985e-01,5.49643e-03,9.99999e-01,9.99999e-01,9.99999e-01,5.49643e-03,9.99999e-01
6.923517345e-01,6.09144e-03,9.99999e-01,9.99999e-01,9.99999e-01,6.09144e-03,9.99999e-01
6.958134932e-01,6.73716e-03,9.99999e-01,9.99999e-01,9.99999e-01,6.73716e-03,9.99999e-01
6.992925606e-01,7.43653e-03,9.99999e-01,9.99999e-01,9.99999e-01,7.43653e-03,9.99999e-01
7.027890234e-01,8.19249e-03,9.99999e-01,9.99999e-01,9.99999e-01,8.19249e-03,9.99999e-01
7.063029686e-01,9.00805e-03,9.99999e-01,9.99999e-01,9.99999e-01,9.00805e-03,9.99999e-01
7.098344834e-01,9.88626e-03,9.99999e-01,9.99999e-01,9.99999e-01,9.88626e-03,9.99999e-01
7.133836558e-01,1.08302e-02,9.99999e-01,9.99999e-01,9.99999e-01,1.08302e-02,9.99999e-01
7.169505741e-01,1.18428e-02,9.99999e-01,9.99999e-01,9.99999e-01,1.18428e-02,9.99999e-01
7.205353270e-01,1.29274e-02,9.99999e-01,9.99999e-01,9.99999e-01,1.29274e-02,9.99999e-01
7.241380036e-01,1.40868e-02,9.99999e-01,9.99999e-01,9.99999e-01,1.40868e-02,9.99999e-01
7.277586936e-01,1.53242e-02,9.99999e-01,9.99999e-01,9.99999e-01,1.53242e-02,9.99999e-01
7.313974871e-01,1.66426e-02,9.99999e-01,9.99999e-01,9.99999e-01,1.66426e-02,9.99999e-01
7.350544745e-01,1.80450e-02,9.99999e-01,9.99999e-01,9.99999e-01,1.80450e-02,9.99999e-01
7.387297469e-01,1.95343e-02,9.99999e-01,9.99999e-01,9.99999e-01,1.95343e-02,9.99999e-01
7.424233956e-01,2.11134e-02,9.99999e-01,9.99999e-01,9.99999e-01,2.11134e-02,9.99999e-01
7.461355126e-01,2.27852e-02,9.99999e-01,9.99999e-01,9.99999e-01,2.27852e-02,9.99999e-01
7.498661902e-01,2.45524e-02,9.99999e-01,9.99999e-01,9.99999e-01,2.45524e-02,9.99999e-01
7.536155211e-01,2.64176e-02,9.99999e-01,9.99999e-01,9.99999e-01,2.64176e-02,9.99999e-01
7.573835987e-01,2.83834e-02,9.99999e-01,9.99999e-01,9.99999e-01,2.83834e-02,9.99999e-01
7.611705167e-01,3.04523e-02,9.99999e-01,9.99999e-01,9.99999e-01,3.04523e-02,9.99999e-01
7.649763693e-01,3.26266e-02,9.99999e-01,9.99999e-01,9.99999e-01,3.26266e-02,9.99999e-01
7.688012511e-01,3.49086e-02,9.99999e-01,9.99999e-01,9.99999e-01,3.49086e-02,9.99999e-01
7.726452574e-01,3.73004e-02,9.99999e-01,9.99999e-01,9.99999e-01,3.73004e-02,9.99999e-01
7.765084837e-01,3.98039e-02,9.99999e-01,9.99999e-01,9.99999e-01,3.98039e-02,9.99999e-01
7.803910261e-01,3.76738e-02,9.99999e-01,9.99999e-01,8.88092e-01,4.24210e-02,9.99999e-01
7.842929812e-01,2.47046e-02,9.99999e-01,9.99999e-01,5.47126e-01,4.51533e-02,9.99999e-01
7.882144461e-01,2.54669e-02,9.99999e-01,9.99999e-01,5.30534e-01,4.80024e-02,9.99999e-01
7.921555184e-01,3.41899e-02,9.99999e-01,9.99999e-01,6.70789e-01,5.09696e-02,9.99999e-01
7.961162960e-01,4.12196e-02,9.99999e-01,9.99999e-01,7.62532e-01,5.40561e-02,9.99999e-01
8.000968774e-01,4.94139e-02,9.99999e-01,9.99999e-01,8.62927e-01,5.72630e-02,9.99999e-01
8.040973618e-01,5.61325e-02,9.99999e-01,9.99999e-01,9.26414e-01,6.05912e-02,9.99999e-01
8.081178486e-01,6.18251e-02,9.99999e-01,9.99999e-01,9.65395e-01,6.40412e-02,9.99999e-01
8.121584379e-01,6.68859e-02,9.99999e-01,9.99999e-01,9.89234e-01,6.76138e-02,9.99999e-01
8.162192301e-01,7.11388e-02,9.99999e-01,9.99999e-01,9.97612e-01,7.13091e-02,9.99999e-01
8.203003262e-01,7.51248e-02,9.99999e-01,9.99999e-01,9.99965e-01,7.51273e-02,9.99999e-01
8.244018279e-01,7.90686e-02,9.99999e-01,9.99999e-01,9.99999e-01,7.90686e-02,9.99999e-01
8.285238370e-01,8.31325e-02,9.99999e-01,9.99999e-01,9.99999e-01,8.31325e-02,9.99999e-01
8.326664562e-01,8.73189e-02,9.99999e-01,9.99999e-01,9.99999e-01,8.73189e-02,9.99999e-01
8.368297885e-01,9.16271e-02,9.99999e-01,9.99999e-01,9.99999e-01,9.16271e-02,9.99999e-01
8.410139374e-01,9.60564e-02,9.99999e-01,9.99999e-01,9.99999e-01,9.60564e-02,9.99999e-01
8.452190071e-01,1.00606e-01,9.99999e-01,9.99999e-01,9.99999e-01,1.00606e-01,9.99999e-01
8.494451021e-01,1.05275e-01,9.99999e-01,9.99999e-01,9.99999e-01,1.05275e-01,9.99999e-01
8.536923276e-01,1.10062e-01,9.99999e-01,9.99999e-01,9.99999e-01,1.10062e-01,9.99999e-01
8.579607893e-01,1.14965e-01,9.99999e-01,9.99999e-01,9.99999e-01,1.14965e-01,9.99999e-01
8.622505932e-01,1.19984e-01,9.99999e-01,9.99999e-01,9.99999e-01,1.19984e-01,9.99999e-01
8.665618462e-01,1.06072e-01,9.99999e-01,9.99999e-01,8.47791e-01,1.25116e-01,9.99999e-01
8.708946554e-01,3.00786e-02,9.99999e-01,9.99999e-01,2.30736e-01,1.30359e-01,9.99999e-01
8.752491287e-01,3.91997e-02,9.99999e-01,9.99999e-01,2.88843e-01,1.35713e-01,9.99999e-01
8.796253743e-01,6.99069e-02,9.99999e-01,9.99999e-01,4.95184e-01,1.41174e-01,9.99999e-01
8.840235012e-01,1.00902e-01,9.99999e-01,9.99999e-01,6.87628e-01,1.46740e-01,9.99999e-01
8.884436187e-01,1.31320e-01,9.99999e-01,9.99999e-01,8.61627e-01,1.52409e-01,9.99999e-01
8.928858368e-01,1.48873e-01,9.99999e-01,9.99999e-01,9.41169e-01,1.58179e-01,9.99999e-01
8.973502660e-01,1.61654e-01,9.99999e-01,9.99999e-01,9.85415e-01,1.64046e-01,9.99999e-01
9.018370173e-01,1.69735e-01,9.99999e-01,9.99999e-01,9.98383e-01,1.70010e-01,9.99999e-01
9.063462024e-01,1.68989e-01,9.99999e-01,9.99999e-01,9.59807e-01,1.76065e-01,9.99999e-01
9.108779334e-01,1.65614e-01,9.99999e-01,9.99999e-01,9.08916e-01,1.82210e-01,9.99999e-01
9.154323231e-01,1.84282e-01,9.99999e-01,9.99999e-01,9.77919e-01,1.88442e-01,9.99999e-01
9.200094847e-01,1.48929e-01,9.99999e-01,9.99999e-01,7.64687e-01,1.94758e-01,9.99999e-01
9.246095321e-01,1.26560e-01,9.99999e-01,9.99999e-01,6.29168e-01,2.01155e-01,9.99999e-01
9.292325798e-01,1.45556e-01,9.99999e-01,9.99999e-01,7.01038e-01,2.07628e-01,9.99999e-01
9.338787427e-01,1.51233e-01,9.99999e-01,9.99999e-01,7.06115e-01,2.14177e-01,9.99999e-01
9.385481364e-01,1.70445e-01,9.99999e-01,9.99999e-01,7.71957e-01,2.20796e-01,9.99999e-01
9.432408771e-01,1.93925e-01,9.99999e-01,9.99999e-01,8.52483e-01,2.27483e-01,9.99999e-01
9.479570815e-01,2.15770e-01,9.99999e-01,9.99999e-01,9.21172e-01,2.34234e-01,9.99999e-01
9.526968669e-01,2.31713e-01,9.99999e-01,9.99999e-01,9.61277e-01,2.41047e-01,9.99999e-01
9.574603512e-01,2.43761e-01,9.99999e-01,9.99999e-01,9.83235e-01,2.47917e-01,9.99999e-01
9.622476530e-01,2.53502e-01,9.99999e-01,9.99999e-01,9.94741e-01,2.54842e-01,9.99999e-01
9.670588912e-01,2.61405e-01,9.99999e-01,9.99999e-01,9.98423e-01,2.61817e-01,9.99999e-01
9.718941857e-01,2.68811e-01,9.99999e-01,9.99999e-01,9.99889e-01,2.68840e-01,9.99999e-01
9.767536566e-01,2.75907e-01,9.99999e-01,9.99999e-01,9.99999e-01,2.75907e-01,9.99999e-01
9.816374249e-01,2.83015e-01,9.99999e-01,9.99999e-01,9.99999e-01,2.83015e-01,9.99999e-01
9.865456120e-01,2.90160e-01,9.99999e-01,9.99999e-01,9.99999e-01,2.90160e-01,9.99999e-01
9.914783401e-01,2.97339e-01,9.99999e-01,9.99999e-01,9.99999e-01,2.97339e-01,9.99999e-01
9.964357318e-01,3.04548e-01,9.99999e-01,9.99999e-01,9.99999e-01,3.04548e-01,9.99999e-01
1.001417910e+00,3.11785e-01,9.99999e-01,9.99999e-01,9.99999e-01,3.11785e-01,9.99999e-01
1.006425000e+00,3.19046e-01,9.99999e-01,9.99999e-01,9.99999e-01,3.19046e-01,9.99999e-01
1.011457125e+00,3.26327e-01,9.99999e-01,9.99999e-01,9.99999e-01,3.26327e-01,9.99999e-01
1.016514411e+00,3.33626e-01,9.99999e-01,9.99999e-01,9.99999e-01,3.33626e-01,9.99999e-01
1.021596983e+00,3.40858e-01,9.99999e-01,9.99999e-01,9.99761e-01,3.40939e-01,9.99999e-01
1.026704968e+00,3.42613e-01,9.99999e-01,9.99999e-01,9.83775e-01,3.48263e-01,9.99999e-01
1.031838492e+00,3.13238e-01,9.99999e-01,9.99999e-01,8.80882e-01,3.55595e-01,9.99999e-01
1.036997685e+00,1.23325e-02,9.99999e-01,9.99999e-01,3.39803e-02,3.62932e-01,9.99999e-01
1.042182673e+00,2.76265e-04,9.99999e-01,9.99999e-01,7.46114e-04,3.70271e-01,9.99999e-01
1.047393587e+00,8.06781e-04,9.99999e-01,9.99999e-01,2.13655e-03,3.77609e-01,9.99999e-01
1.052630555e+00,6.17511e-09,9.99999e-01,9.99999e-01,1.60416e-08,3.84944e-01,9.99999e-01
1.057893707e+00,2.33321e-08,9.99999e-01,9.99999e-01,5.94795e-08,3.92271e-01,9.99999e-01
1.063183176e+00,2.17339e-06,9.99999e-01,9.99999e-01,5.43904e-06,3.99590e-01,9.99999e-01
1.068499092e+00,3.62972e-05,9.99999e-01,9.99999e-01,8.92049e-05,4.06896e-01,9.99999e-01
1.073841587e+00,9.46664e-04,9.99999e-01,9.99999e-01,2.28559e-03,4.14188e-01,9.99999e-01
1.079210795e+00,9.52391e-03,9.99999e-01,9.99999e-01,2.25973e-02,4.21462e-01,9.99999e-01
1.084606849e+00,4.84645e-02,9.99999e-01,9.99999e-01,1.13046e-01,4.28717e-01,9.99999e-01
1.090029883e+00,1.38467e-01,9.99999e-01,9.99999e-01,3.17621e-01,4.35949e-01,9.99999e-01
1.095480033e+00,2.51017e-01,9.99999e-01,9.99999e-01,5.66428e-01,4.43157e-01,9.99999e-01
1.100957433e+00,3.41667e-01,9.99999e-01,9.99999e-01,7.58688e-01,4.50339e-01,9.99999e-01
1.106462220e+00,4.08022e-01,9.99999e-01,9.99999e-01,8.91869e-01,4.57491e-01,9.99999e-01
1.111994531e+00,4.45279e-01,9.99999e-01,9.99999e-01,9.58386e-01,4.64613e-01,9.99999e-01
1.117554504e+00,4.66844e-01,9.99999e-01,9.99999e-01,9.89703e-01,4.71701e-01,9.99999e-01
1.123142276e+00,4.78430e-01,9.99999e-01,9.99999e-01,9.99323e-01,4.78754e-01,9.99999e-01
1.128757988e+00,4.85770e-01,9.99999e-01,9.99999e-01,9.99999e-01,4.85770e-01,9.99999e-01
1.134401778e+00,4.92748e-01,9.99999e-01,9.99999e-01,9.99999e-01,4.92748e-01,9.99999e-01
1.140073787e+00,4.99685e-01,9.99999e-01,9.99999e-01,9.99999e-01,4.99685e-01,9.99999e-01
1.145774156e+00,5.06580e-01,9.99999e-01,9.99999e-01,9.99999e-01,5.06580e-01,9.99999e-01
1.151503026e+00,5.13431e-01,9.99999e-01,9.99999e-01,9.99999e-01,5.13431e-01,9.99999e-01
1.157260541e+00,5.20236e-01,9.99999e-01,9.99999e-01,9.99999e-01,5.20236e-01,9.99999e-01
1.163046844e+00,5.26995e-01,9.99999e-01,9.99999e-01,9.99999e-01,5.26995e-01,9.99999e-01
1.168862078e+00,5.33705e-01,9.99999e-01,9.99999e-01,9.99999e-01,5.33705e-01,9.99999e-01
1.174706389e+00,5.40365e-01,9.99999e-01,9.99999e-01,9.99999e-01,5.40365e-01,9.99999e-01
1.180579921e+00,5.46975e-01,9.99999e-01,9.99999e-01,9.99999e-01,5.46975e-01,9.99999e-01
1.186482820e+00,5.53514e-01,9.99999e-01,9.99999e-01,9.99965e-01,5.53533e-01,9.99999e-01
1.192415234e+00,5.29792e-01,9.99999e-01,9.99999e-01,9.45993e-01,5.60037e-01,9.99999e-01
1.198377311e+00,2.79694e-01,9.99999e-01,9.99999e-01,4.93734e-01,5.66488e-01,9.99999e-01
1.204369197e+00,2.90849e-41,9.99999e-01,9.99999e-01,5.07694e-41,5.72882e-01,9.99999e-01
1.210391043e+00,7.19705e-170,9.99999e-01,9.99999e-01,1.24254e-169,5.79221e-01,9.99999e-01
1.216442998e+00,7.18070e-147,9.99999e-01,9.99999e-01,1.22642e-146,5.85502e-01,9.99999e-01
1.222525213e+00,1.18296e-144,9.99999e-01,9.99999e-01,1.99916e-144,5.91726e-01,9.99999e-01
1.228637839e+00,2.12214e-111,9.99999e-01,9.99999e-01,3.54937e-111,5.97891e-01,9.99999e-01
