#,Wave/freq,Total,N2,O2,CO2,Rayleigh,CIA
4.000000000e-01,7.66185e-04,9.99999e-01,9.99999e-01,9.99999e-01,7.66185e-04,9.99999e-01
4.020000000e-01,8.82953e-04,9.99999e-01,9.99999e-01,9.99999e-01,8.82953e-04,9.99999e-01
4.040100000e-01,1.01453e-03,9.99999e-01,9.99999e-01,9.99999e-01,1.01453e-03,9.99999e-01
4.060300500e-01,1.16251e-03,9.99999e-01,9.99999e-01,9.99999e-01,1.16251e-03,9.99999e-01
4.080602003e-01,1.32850e-03,9.99999e-01,9.99999e-01,9.99999e-01,1.32850e-03,9.99999e-01
4.101005013e-01,1.51420e-03,9.99999e-01,9.99999e-01,9.99999e-01,1.51420e-03,9.99999e-01
4.121510038e-01,1.72140e-03,9.99999e-01,9.99999e-01,9.99999e-01,1.72140e-03,9.99999e-01
4.142117588e-01,1.95200e-03,9.99999e-01,9.99999e-01,9.99999e-01,1.95200e-03,9.99999e-01
4.162828176e-01,2.20800e-03,9.99999e-01,9.99999e-01,9.99999e-01,2.20800e-03,9.99999e-01
4.183642317e-01,2.49151e-03,9.99999e-01,9.99999e-01,9.99999e-01,2.49151e-03,9.99999e-01
4.204560528e-01,2.80471e-03,9.99999e-01,9.99999e-01,9.99999e-01,2.80471e-03,9.99999e-01
4.225583331e-01,3.14991e-03,9.99999e-01,9.99999e-01,9.99999e-01,3.14991e-03,9.99999e-01
4.246711247e-01,3.52950e-03,9.99999e-01,9.99999e-01,9.99999e-01,3.52950e-03,9.99999e-01
4.267944804e-01,3.94596e-03,9.99999e-01,9.99999e-01,9.99999e-01,3.94596e-03,9.99999e-01
4.289284528e-01,4.40184e-03,9.99999e-01,9.99999e-01,9.99999e-01,4.40184e-03,9.99999e-01
4.310730950e-01,4.89980e-03,9.99999e-01,9.99999e-01,9.99999e-01,4.89980e-03,9.99999e-01
4.332284605e-01,5.44256e-03,9.99999e-01,9.99999e-01,9.99999e-01,5.44256e-03,9.99999e-01
4.353946028e-01,6.03290e-03,9.99999e-01,9.99999e-01,9.99999e-01,6.03290e-03,9.99999e-01
4.375715758e-01,6.67370e-03,9.99999e-01,9.99999e-01,9.99999e-01,6.67370e-03,9.99999e-01
4.397594337e-01,7.36785e-03,9.99999e-01,9.99999e-01,9.99999e-01,7.36785e-03,9.99999e-01
4.419582309e-01,8.11832e-03,9.99999e-01,9.99999e-01,9.99999e-01,8.11832e-03,9.99999e-01
4.441680220e-01,8.92810e-03,9.99999e-01,9.99999e-01,9.99999e-01,8.92810e-03,9.99999e-01
4.463888621e-01,9.80024e-03,9.99999e-01,9.99999e-01,9.99999e-01,9.80024e-03,9.99999e-01
4.486208064e-01,1.07378e-02,9.99999e-01,9.99999e-01,9.99999e-01,1.07378e-02,9.99999e-01
4.508639105e-01,1.17438e-02,9.99999e-01,9.99999e-01,9.99999e-01,1.17438e-02,9.99999e-01
4.531182300e-01,1.28214e-02,9.99999e-01,9.99999e-01,9.99999e-01,1.28214e-02,9.99999e-01
4.553838212e-01,1.39736e-02,9.99999e-01,9.99999e-01,9.99999e-01,1.39736e-02,9.99999e-01
4.576607403e-01,1.52035e-02,9.99999e-01,9.99999e-01,9.99999e-01,1.52035e-02,9.99999e-01
4.599490440e-01,1.65141e-02,9.99999e-01,9.99999e-01,9.99999e-01,1.65141e-02,9.99999e-01
4.622487892e-01,1.79084e-02,9.99999e-01,9.99999e-01,9.99999e-01,1.79084e-02,9.99999e-01
4.645600332e-01,1.93893e-02,9.99999e-01,9.99999e-01,9.99999e-01,1.93893e-02,9.99999e-01
4.668828333e-01,2.09598e-02,9.99999e-01,9.99999e-01,9.99999e-01,2.09598e-02,9.99999e-01
4.692172475e-01,2.26227e-02,9.99999e-01,9.99999e-01,9.99999e-01,2.26227e-02,9.99999e-01
4.715633337e-01,2.43807e-02,9.99999e-01,9.99999e-01,9.99999e-01,2.43807e-02,9.99999e-01
4.739211504e-01,2.62365e-02,9.99999e-01,9.99999e-01,9.99999e-01,2.62365e-02,9.99999e-01
4.762907561e-01,2.81927e-02,9.99999e-01,9.99999e-01,9.99999e-01,2.81927e-02,9.99999e-01
4.786722099e-01,3.02517e-02,9.99999e-01,9.99999e-01,9.99999e-01,3.02517e-02,9.99999e-01
4.810655710e-01,3.24159e-02,9.99999e-01,9.99999e-01,9.99999e-01,3.24159e-02,9.99999e-01
4.834708988e-01,3.46876e-02,9.99999e-01,9.99999e-01,9.99999e-01,3.46876e-02,9.99999e-01
4.858882533e-01,3.70689e-02,9.99999e-01,9.99999e-01,9.99999e-01,3.70689e-02,9.99999e-01
4.883176946e-01,3.95618e-02,9.99999e-01,9.99999e-01,9.99999e-01,3.95618e-02,9.99999e-01
4.907592831e-01,4.21680e-02,9.99999e-01,9.99999e-01,9.99999e-01,4.21680e-02,9.99999e-01
4.932130795e-01,4.48893e-02,9.99999e-01,9.99999e-01,9.99999e-01,4.48893e-02,9.99999e-01
4.956791449e-01,4.77272e-02,9.99999e-01,9.99999e-01,9.99999e-01,4.77272e-02,9.99999e-01
4.981575406e-01,5.06832e-02,9.99999e-01,9.99999e-01,9.99999e-01,5.06832e-02,9.99999e-01
5.006483283e-01,5.37584e-02,9.99999e-01,9.99999e-01,9.99999e-01,5.37584e-02,9.99999e-01
5.031515699e-01,5.69538e-02,9.99999e-01,9.99999e-01,9.99999e-01,5.69538e-02,9.99999e-01
5.056673278e-01,6.02705e-02,9.99999e-01,9.99999e-01,9.99999e-01,6.02705e-02,9.99999e-01
5.081956644e-01,6.37089e-02,9.99999e-01,9.99999e-01,9.99999e-01,6.37089e-02,9.99999e-01
5.107366428e-01,6.72698e-02,9.99999e-01,9.99999e-01,9.99999e-01,6.72698e-02,9.99999e-01
5.132903260e-01,7.09535e-02,9.99999e-01,9.99999e-01,9.99999e-01,7.09535e-02,9.99999e-01
5.158567776e-01,7.47601e-02,9.99999e-01,9.99999e-01,9.99999e-01,7.47601e-02,9.99999e-01
5.184360615e-01,7.86897e-02,9.99999e-01,9.99999e-01,9.99999e-01,7.86897e-02,9.99999e-01
5.210282418e-01,8.27420e-02,9.99999e-01,9.99999e-01,9.99999e-01,8.27420e-02,9.99999e-01
5.236333830e-01,8.69168e-02,9.99999e-01,9.99999e-01,9.99999e-01,8.69168e-02,9.99999e-01
5.262515499e-01,9.12135e-02,9.99999e-01,9.99999e-01,9.99999e-01,9.12135e-02,9.99999e-01
5.288828077e-01,9.56314e-02,9.99999e-01,9.99999e-01,9.99999e-01,9.56314e-02,9.99999e-01
5.315272217e-01,1.00170e-01,9.99999e-01,9.99999e-01,9.99999e-01,1.00170e-01,9.99999e-01
5.341848578e-01,1.04827e-01,9.99999e-01,9.99999e-01,9.99999e-01,1.04827e-01,9.99999e-01
5.368557821e-01,1.09603e-01,9.99999e-01,9.99999e-01,9.99999e-01,1.09603e-01,9.99999e-01
5.395400610e-01,1.14495e-01,9.99999e-01,9.99999e-01,9.99999e-01,1.14495e-01,9.99999e-01
5.422377613e-01,1.19503e-01,9.99999e-01,9.99999e-01,9.99999e-01,1.19503e-01,9.99999e-01
5.449489501e-01,1.24624e-01,9.99999e-01,9.99999e-01,9.99999e-01,1.24624e-01,9.99999e-01
5.476736949e-01,1.29858e-01,9.99999e-01,9.99999e-01,9.99999e-01,1.29858e-01,9.99999e-01
5.504120634e-01,1.35201e-01,9.99999e-01,9.99999e-01,9.99999e-01,1.35201e-01,9.99999e-01
5.531641237e-01,1.40651e-01,9.99999e-01,9.99999e-01,9.99999e-01,1.40651e-01,9.99999e-01
5.559299443e-01,1.46208e-01,9.99999e-01,9.99999e-01,9.99999e-01,1.46208e-01,9.99999e-01
5.587095940e-01,1.51867e-01,9.99999e-01,9.99999e-01,9.99999e-01,1.51867e-01,9.99999e-01
5.615031420e-01,1.57628e-01,9.99999e-01,9.99999e-01,9.99999e-01,1.57628e-01,9.99999e-01
5.643106577e-01,1.63486e-01,9.99999e-01,9.99999e-01,9.99999e-01,1.63486e-01,9.99999e-01
5.671322110e-01,1.69440e-01,9.99999e-01,9.99999e-01,9.99999e-01,1.69440e-01,9.99999e-01
5.699678720e-01,1.75487e-01,9.99999e-01,9.99999e-01,9.99999e-01,1.75487e-01,9.99999e-01
5.728177114e-01,1.81624e-01,9.99999e-01,9.99999e-01,9.99999e-01,1.81624e-01,9.99999e-01
5.756818000e-01,1.87848e-01,9.99999e-01,9.99999e-01,9.99999e-01,1.87848e-01,9.99999e-01
5.785602090e-01,1.94156e-01,9.99999e-01,9.99999e-01,9.99999e-01,1.94156e-01,9.99999e-01
5.814530100e-01,2.00545e-01,9.99999e-01,9.99999e-01,9.99999e-01,2.00545e-01,9.99999e-01
5.843602750e-01,2.07012e-01,9.99999e-01,9.99999e-01,9.99999e-01,2.07012e-01,9.99999e-01
5.872820764e-01,2.13553e-01,9.99999e-01,9.99999e-01,9.99999e-01,2.13553e-01,9.99999e-01
5.902184868e-01,2.20165e-01,9.99999e-01,9.99999e-01,9.99999e-01,2.20165e-01,9.99999e-01
5.931695792e-01,2.26846e-01,9.99999e-01,9.99999e-01,9.99999e-01,2.26846e-01,9.99999e-01
5.961354271e-01,2.33592e-01,9.99999e-01,9.99999e-01,9.99999e-01,2.33592e-01,9.99999e-01
5.991161043e-01,2.40399e-01,9.99999e-01,9.99999e-01,9.99999e-01,2.40399e-01,9.99999e-01
6.021116848e-01,2.47264e-01,9.99999e-01,9.99999e-01,9.99999e-01,2.47264e-01,9.99999e-01
6.051222432e-01,2.54183e-01,9.99999e-01,9.99999e-01,9.99999e-01,2.54183e-01,9.99999e-01
6.081478544e-01,2.61154e-01,9.99999e-01,9.99999e-01,9.99999e-01,2.61154e-01,9.99999e-01
6.111885937e-01,2.68172e-01,9.99999e-01,9.99999e-01,9.99999e-01,2.68172e-01,9.99999e-01
6.142445367e-01,2.75235e-01,9.99999e-01,9.99999e-01,9.99999e-01,2.75235e-01,9.99999e-01
6.173157594e-01,2.82340e-01,9.99999e-01,9.99999e-01,9.99999e-01,2.82340e-01,9.99999e-01
6.204023382e-01,2.89481e-01,9.99999e-01,9.99999e-01,9.99999e-01,2.89481e-01,9.99999e-01
6.235043498e-01,2.96657e-01,9.99999e-01,9.99999e-01,9.99999e-01,2.96657e-01,9.99999e-01
6.266218716e-01,3.03864e-01,9.99999e-01,9.99999e-01,9.99999e-01,3.03864e-01,9.99999e-01
6.297549810e-01,3.11098e-01,9.99999e-01,9.99999e-01,9.99999e-01,3.11098e-01,9.99999e-01
6.329037559e-01,3.18357e-01,9.99999e-01,9.99999e-01,9.99999e-01,3.18357e-01,9.99999e-01
6.360682746e-01,3.25636e-01,9.99999e-01,9.99999e-01,9.99999e-01,3.25636e-01,9.99999e-01
6.392486160e-01,3.32933e-01,9.99999e-01,9.99999e-01,9.99999e-01,3.32933e-01,9.99999e-01
6.424448591e-01,3.40245e-01,9.99999e-01,9.99999e-01,9.99999e-01,3.40245e-01,9.99999e-01
6.456570834e-01,3.47568e-01,9.99999e-01,9.99999e-01,9.99999e-01,3.47568e-01,9.99999e-01
6.488853688e-01,3.54900e-01,9.99999e-01,9.99999e-01,9.99999e-01,3.54900e-01,9.99999e-01
6.521297956e-01,3.62236e-01,9.99999e-01,9.99999e-01,9.99999e-01,3.62236e-01,9.99999e-01
6.553904446e-01,3.69575e-01,9.99999e-01,9.99999e-01,9.99999e-01,3.69575e-01,9.99999e-01
6.586673968e-01,3.76914e-01,9.99999e-01,9.99999e-01,9.99999e-01,3.76914e-01,9.99999e-01
6.619607338e-01,3.84249e-01,9.99999e-01,9.99999e-01,9.99999e-01,3.84249e-01,9.99999e-01
6.652705375e-01,3.91577e-01,9.99999e-01,9.99999e-01,9.99999e-01,3.91577e-01,9.99999e-01
6.685968902e-01,3.98896e-01,9.99999e-01,9.99999e-01,9.99999e-01,3.98896e-01,9.99999e-01
6.719398746e-01,4.06204e-01,9.99999e-01,9.99999e-01,9.99999e-01,4.06204e-01,9.99999e-01
6.752995740e-01,4.13497e-01,9.99999e-01,9.99999e-01,9.99999e-01,4.13497e-01,9.99999e-01
6.786760719e-01,4.20773e-01,9.99999e-01,9.99999e-01,9.99999e-01,4.20773e-01,9.99999e-01
6.820694522e-01,4.28030e-01,9.99999e-01,9.99999e-01,9.99999e-01,4.28030e-01,9.99999e-01
6.854797995e-01,4.35265e-01,9.99999e-01,9.99999e-01,9.99999e-01,4.35265e-01,9.99999e-01
6.889071985e-01,4.42475e-01,9.99999e-01,9.99999e-01,9.99999e-01,4.42475e-01,9.99999e-01
6.923517345e-01,4.49659e-01,9.99999e-01,9.99999e-01,9.99999e-01,4.49659e-01,9.99999e-01
6.958134932e-01,4.56814e-01,9.99999e-01,9.99999e-01,9.99999e-01,4.56814e-01,9.99999e-01
6.992925606e-01,4.63939e-01,9.99999e-01,9.99999e-01,9.99999e-01,4.63939e-01,9.99999e-01
7.027890234e-01,4.71030e-01,9.99999e-01,9.99999e-01,9.99999e-01,4.71030e-01,9.99999e-01
7.063029686e-01,4.78087e-01,9.99999e-01,9.99999e-01,9.99999e-01,4.78087e-01,9.99999e-01
7.098344834e-01,4.85107e-01,9.99999e-01,9.99999e-01,9.99999e-01,4.85107e-01,9.99999e-01
7.133836558e-01,4.92088e-01,9.99999e-01,9.99999e-01,9.99999e-01,4.92088e-01,9.99999e-01
7.169505741e-01,4.99029e-01,9.99999e-01,9.99999e-01,9.99999e-01,4.99029e-01,9.99999e-01
7.205353270e-01,5.05928e-01,9.99999e-01,9.99999e-01,9.99999e-01,5.05928e-01,9.99999e-01
7.241380036e-01,5.12783e-01,9.99999e-01,9.99999e-01,9.99999e-01,5.12783e-01,9.99999e-01
7.277586936e-01,5.19593e-01,9.99999e-01,9.99999e-01,9.99999e-01,5.19593e-01,9.99999e-01
7.313974871e-01,5.26356e-01,9.99999e-01,9.99999e-01,9.99999e-01,5.26356e-01,9.99999e-01
7.350544745e-01,5.33071e-01,9.99999e-01,9.99999e-01,9.99999e-01,5.33071e-01,9.99999e-01
7.387297469e-01,5.39736e-01,9.99999e-01,9.99999e-01,9.99999e-01,5.39736e-01,9.99999e-01
7.424233956e-01,5.46351e-01,9.99999e-01,9.99999e-01,9.99999e-01,5.46351e-01,9.99999e-01
7.461355126e-01,5.52914e-01,9.99999e-01,9.99999e-01,9.99999e-01,5.52914e-01,9.99999e-01
7.498661902e-01,5.59423e-01,9.99999e-01,9.99999e-01,9.99999e-01,5.59423e-01,9.99999e-01
7.536155211e-01,5.65878e-01,9.99999e-01,9.99999e-01,9.99999e-01,5.65878e-01,9.99999e-01
7.573835987e-01,5.72279e-01,9.99999e-01,9.99999e-01,9.99999e-01,5.72279e-01,9.99999e-01
7.611705167e-01,5.78622e-01,9.99999e-01,9.99999e-01,9.99999e-01,5.78622e-01,9.99999e-01
7.649763693e-01,5.84909e-01,9.99999e-01,9.99999e-01,9.99999e-01,5.84909e-01,9.99999e-01
7.688012511e-01,5.91138e-01,9.99999e-01,9.99999e-01,9.99999e-01,5.91138e-01,9.99999e-01
7.726452574e-01,5.97309e-01,9.99999e-01,9.99999e-01,9.99999e-01,5.97309e-01,9.99999e-01
7.765084837e-01,6.03420e-01,9.99999e-01,9.99999e-01,9.99999e-01,6.03420e-01,9.99999e-01
7.803910261e-01,5.94303e-01,9.99999e-01,9.99999e-01,9.75113e-01,6.09471e-01,9.99999e-01
7.842929812e-01,5.55080e-01,9.99999e-01,9.99999e-01,9.01893e-01,6.15461e-01,9.99999e-01
7.882144461e-01,5.55714e-01,9.99999e-01,9.99999e-01,8.94307e-01,6.21390e-01,9.99999e-01
7.921555184e-01,5.88043e-01,9.99999e-01,9.99999e-01,9.37482e-01,6.27257e-01,9.99999e-01
7.961162960e-01,6.06573e-01,9.99999e-01,9.99999e-01,9.58155e-01,6.33063e-01,9.99999e-01
8.000968774e-01,6.24146e-01,9.99999e-01,9.99999e-01,9.77051e-01,6.38806e-01,9.99999e-01
8.040973618e-01,6.36819e-01,9.99999e-01,9.99999e-01,9.88104e-01,6.44485e-01,9.99999e-01
8.081178486e-01,6.46526e-01,9.99999e-01,9.99999e-01,9.94499e-01,6.50102e-01,9.99999e-01
8.121584379e-01,6.54553e-01,9.99999e-01,9.99999e-01,9.98318e-01,6.55655e-01,9.99999e-01
8.162192301e-01,6.60899e-01,9.99999e-01,9.99999e-01,9.99627e-01,6.61145e-01,9.99999e-01
8.203003262e-01,6.66568e-01,9.99999e-01,9.99999e-01,9.99994e-01,6.66571e-01,9.99999e-01
8.244018279e-01,6.71933e-01,9.99999e-01,9.99999e-01,9.99999e-01,6.71933e-01,9.99999e-01
8.285238370e-01,6.77231e-01,9.99999e-01,9.99999e-01,9.99999e-01,6.77231e-01,9.99999e-01
8.326664562e-01,6.82464e-01,9.99999e-01,9.99999e-01,9.99999e-01,6.82464e-01,9.99999e-01
8.368297885e-01,6.87634e-01,9.99999e-01,9.99999e-01,9.99999e-01,6.87634e-01,9.99999e-01
8.410139374e-01,6.92739e-01,9.99999e-01,9.99999e-01,9.99999e-01,6.92739e-01,9.99999e-01
8.452190071e-01,6.97781e-01,9.99999e-01,9.99999e-01,9.99999e-01,6.97781e-01,9.99999e-01
8.494451021e-01,7.02758e-01,9.99999e-01,9.99999e-01,9.99999e-01,7.02758e-01,9.99999e-01
8.536923276e-01,7.07672e-01,9.99999e-01,9.99999e-01,9.99999e-01,7.07672e-01,9.99999e-01
8.579607893e-01,7.12522e-01,9.99999e-01,9.99999e-01,9.99999e-01,7.12522e-01,9.99999e-01
8.622505932e-01,7.17308e-01,9.99999e-01,9.99999e-01,9.99999e-01,7.17308e-01,9.99999e-01
8.665618462e-01,6.78225e-01,9.99999e-01,9.99999e-01,9.39329e-01,7.22031e-01,9.99999e-01
8.708946554e-01,5.56840e-01,9.99999e-01,9.99999e-01,7.66268e-01,7.26691e-01,9.99999e-01
8.752491287e-01,5.91659e-01,9.99999e-01,9.99999e-01,8.09064e-01,7.31288e-01,9.99999e-01
8.796253743e-01,6.55562e-01,9.99999e-01,9.99999e-01,8.90924e-01,7.35822e-01,9.99999e-01
8.840235012e-01,6.97393e-01,9.99999e-01,9.99999e-01,9.42047e-01,7.40294e-01,9.99999e-01
8.884436187e-01,7.27488e-01,9.99999e-01,9.99999e-01,9.76880e-01,7.44705e-01,9.99999e-01
8.928858368e-01,7.41981e-01,9.99999e-01,9.99999e-01,9.90557e-01,7.49053e-01,9.99999e-01
8.973502660e-01,7.51618e-01,9.99999e-01,9.99999e-01,9.97713e-01,7.53341e-01,9.99999e-01
9.018370173e-01,7.57377e-01,9.99999e-01,9.99999e-01,9.99748e-01,7.57567e-01,9.99999e-01
9.063462024e-01,7.56617e-01,9.99999e-01,9.99999e-01,9.93283e-01,7.61733e-01,9.99999e-01
9.108779334e-01,7.54419e-01,9.99999e-01,9.99999e-01,9.85088e-01,7.65839e-01,9.99999e-01
9.154323231e-01,7.67210e-01,9.99999e-01,9.99999e-01,9.96524e-01,7.69885e-01,9.99999e-01
9.200094847e-01,7.33608e-01,9.99999e-01,9.99999e-01,9.47969e-01,7.73872e-01,9.99999e-01
9.246095321e-01,7.22531e-01,9.99999e-01,9.99999e-01,9.28940e-01,7.77801e-01,9.99999e-01
9.292325798e-01,7.37141e-01,9.99999e-01,9.99999e-01,9.43032e-01,7.81671e-01,9.99999e-01
9.338787427e-01,7.42768e-01,9.99999e-01,9.99999e-01,9.45618e-01,7.85484e-01,9.99999e-01
9.385481364e-01,7.57493e-01,9.99999e-01,9.99999e-01,9.59776e-01,7.89239e-01,9.99999e-01
9.432408771e-01,7.73331e-01,9.99999e-01,9.99999e-01,9.75273e-01,7.92937e-01,9.99999e-01
9.479570815e-01,7.86394e-01,9.99999e-01,9.99999e-01,9.87212e-01,7.96579e-01,9.99999e-01
9.526968669e-01,7.95229e-01,9.99999e-01,9.99999e-01,9.93829e-01,8.00166e-01,9.99999e-01
9.574603512e-01,8.01576e-01,9.99999e-01,9.99999e-01,9.97360e-01,8.03697e-01,9.99999e-01
9.622476530e-01,8.06510e-01,9.99999e-01,9.99999e-01,9.99177e-01,8.07174e-01,9.99999e-01
9.670588912e-01,8.10397e-01,9.99999e-01,9.99999e-01,9.99753e-01,8.10596e-01,9.99999e-01
9.718941857e-01,8.13952e-01,9.99999e-01,9.99999e-01,9.99982e-01,8.13966e-01,9.99999e-01
9.767536566e-01,8.17282e-01,9.99999e-01,9.99999e-01,9.99999e-01,8.17282e-01,9.99999e-01
9.816374249e-01,8.20545e-01,9.99999e-01,9.99999e-01,9.99999e-01,8.20545e-01,9.99999e-01
9.865456120e-01,8.23757e-01,9.99999e-01,9.99999e-01,9.99999e-01,8.23757e-01,9.99999e-01
9.914783401e-01,8.26918e-01,9.99999e-01,9.99999e-01,9.99999e-01,8.26918e-01,9.99999e-01
9.964357318e-01,8.30028e-01,9.99999e-01,9.99999e-01,9.99999e-01,8.30028e-01,9.99999e-01
1.001417910e+00,8.33088e-01,9.99999e-01,9.99999e-01,9.99999e-01,8.33088e-01,9.99999e-01
1.006425000e+00,8.36098e-01,9.99999e-01,9.99999e-01,9.99999e-01,8.36098e-01,9.99999e-01
1.011457125e+00,8.39060e-01,9.99999e-01,9.99999e-01,9.99999e-01,8.39060e-01,9.99999e-01
1.016514411e+00,8.41973e-01,9.99999e-01,9.99999e-01,9.99999e-01,8.41973e-01,9.99999e-01
1.021596983e+00,8.44804e-01,9.99999e-01,9.99999e-01,9.99958e-01,8.44839e-01,9.99999e-01
1.026704968e+00,8.45429e-01,9.99999e-01,9.99999e-01,9.97370e-01,8.47657e-01,9.99999e-01
1.031838492e+00,8.18827e-01,9.99999e-01,9.99999e-01,9.62839e-01,8.50429e-01,9.99999e-01
1.036997685e+00,1.82194e-01,9.99999e-01,9.99999e-01,2.13553e-01,8.53155e-01,9.99999e-01
1.042182673e+00,1.94958e-01,9.99999e-01,9.99999e-01,2.27799e-01,8.55835e-01,9.99999e-01
1.047393587e+00,1.94764e-01,9.99999e-01,9.99999e-01,2.26873e-01,8.58471e-01,9.99999e-01
1.052630555e+00,1.50482e-02,9.99999e-01,9.99999e-01,1.74763e-02,8.61063e-01,9.99999e-01
1.057893707e+00,3.27848e-02,9.99999e-01,9.99999e-01,3.79625e-02,8.63611e-01,9.99999e-01
1.063183176e+00,7.92037e-02,9.99999e-01,9.99999e-01,9.14470e-02,8.66116e-01,9.99999e-01
1.068499092e+00,1.70079e-01,9.99999e-01,9.99999e-01,1.95813e-01,8.68578e-01,9.99999e-01
1.073841587e+00,3.12599e-01,9.99999e-01,9.99999e-01,3.58896e-01,8.70999e-01,9.99999e-01
1.079210795e+00,4.56819e-01,9.99999e-01,9.99999e-01,5.23048e-01,8.73378e-01,9.99999e-01
1.084606849e+00,6.14520e-01,9.99999e-01,9.99999e-01,7.01733e-01,8.75717e-01,9.99999e-01
1.090029883e+00,7.30588e-01,9.99999e-01,9.99999e-01,8.32089e-01,8.78015e-01,9.99999e-01
1.095480033e+00,8.04230e-01,9.99999e-01,9.99999e-01,9.13612e-01,8.80275e-01,9.99999e-01
1.100957433e+00,8.44917e-01,9.99999e-01,9.99999e-01,9.57418e-01,8.82495e-01,9.99999e-01
1.106462220e+00,8.68934e-01,9.99999e-01,9.99999e-01,9.82205e-01,8.84676e-01,9.99999e-01
1.111994531e+00,8.80939e-01,9.99999e-01,9.99999e-01,9.93368e-01,8.86820e-01,9.99999e-01
1.117554504e+00,8.87493e-01,9.99999e-01,9.99999e-01,9.98386e-01,8.88927e-01,9.99999e-01
1.123142276e+00,8.90903e-01,9.99999e-01,9.99999e-01,9.99894e-01,8.90996e-01,9.99999e-01
1.128757988e+00,8.93030e-01,9.99999e-01,9.99999e-01,9.99999e-01,8.93030e-01,9.99999e-01
1.134401778e+00,8.95028e-01,9.99999e-01,9.99999e-01,9.99999e-01,8.95028e-01,9.99999e-01
1.140073787e+00,8.96990e-01,9.99999e-01,9.99999e-01,9.99999e-01,8.96990e-01,9.99999e-01
1.145774156e+00,8.98919e-01,9.99999e-01,9.99999e-01,9.99999e-01,8.98919e-01,9.99999e-01
1.151503026e+00,9.00813e-01,9.99999e-01,9.99999e-01,9.99999e-01,9.00813e-01,9.99999e-01
1.157260541e+00,9.02673e-01,9.99999e-01,9.99999e-01,9.99999e-01,9.02673e-01,9.99999e-01
1.163046844e+00,9.04501e-01,9.99999e-01,9.99999e-01,9.99999e-01,9.04501e-01,9.99999e-01
1.168862078e+00,9.06296e-01,9.99999e-01,9.99999e-01,9.99999e-01,9.06296e-01,9.99999e-01
1.174706389e+00,9.08059e-01,9.99999e-01,9.99999e-01,9.99999e-01,9.08059e-01,9.99999e-01
1.180579921e+00,9.09790e-01,9.99999e-01,9.99999e-01,9.99999e-01,9.09790e-01,9.99999e-01
1.186482820e+00,9.11485e-01,9.99999e-01,9.99999e-01,9.99993e-01,9.11491e-01,9.99999e-01
1.192415234e+00,9.04524e-01,9.99999e-01,9.99999e-01,9.90541e-01,9.13161e-01,9.99999e-01
1.198377311e+00,5.22330e-01,9.99999e-01,9.99999e-01,5.70976e-01,9.14801e-01,9.99999e-01
1.204369197e+00,2.29735e-08,9.99999e-01,9.99999e-01,2.50690e-08,9.16411e-01,9.99999e-01
1.210391043e+00,1.59526e-28,9.99999e-01,9.99999e-01,1.73777e-28,9.17993e-01,9.99999e-01
1.216442998e+00,6.42532e-25,9.99999e-01,9.99999e-01,6.98749e-25,9.19546e-01,9.99999e-01
1.222525213e+00,1.44249e-24,9.99999e-01,9.99999e-01,1.56610e-24,9.21070e-01,9.99999e-01
1.228637839e+00,5.47196e-19,9.99999e-01,9.99999e-01,5.93122e-19,9.22567e-01,9.99999e-01
