#,Wave/freq,Total,N2,O2,CO2,Rayleigh,CIA
4.000000000e-01,6.45165e-03,9.99999e-01,9.99999e-01,9.99999e-01,6.45165e-03,9.99999e-01
4.020000000e-01,7.12819e-03,9.99999e-01,9.99999e-01,9.99999e-01,7.12819e-03,9.99999e-01
4.040100000e-01,7.85937e-03,9.99999e-01,9.99999e-01,9.99999e-01,7.85937e-03,9.99999e-01
4.060300500e-01,8.64887e-03,9.99999e-01,9.99999e-01,9.99999e-01,8.64887e-03,9.99999e-01
4.080602003e-01,9.49969e-03,9.99999e-01,9.99999e-01,9.99999e-01,9.49969e-03,9.99999e-01
4.101005013e-01,1.04149e-02,9.99999e-01,9.99999e-01,9.99999e-01,1.04149e-02,9.99999e-01
4.121510038e-01,1.13975e-02,9.99999e-01,9.99999e-01,9.99999e-01,1.13975e-02,9.99999e-01
4.142117588e-01,1.24507e-02,9.99999e-01,9.99999e-01,9.99999e-01,1.24507e-02,9.99999e-01
4.162828176e-01,1.35775e-02,9.99999e-01,9.99999e-01,9.99999e-01,1.35775e-02,9.99999e-01
4.183642317e-01,1.47809e-02,9.99999e-01,9.99999e-01,9.99999e-01,1.47809e-02,9.99999e-01
4.204560528e-01,1.60640e-02,9.99999e-01,9.99999e-01,9.99999e-01,1.60640e-02,9.99999e-01
4.225583331e-01,1.74298e-02,9.99999e-01,9.99999e-01,9.99999e-01,1.74298e-02,9.99999e-01
4.246711247e-01,1.88812e-02,9.99999e-01,9.99999e-01,9.99999e-01,1.88812e-02,9.99999e-01
4.267944804e-01,2.04213e-02,9.99999e-01,9.99999e-01,9.99999e-01,2.04213e-02,9.99999e-01
4.289284528e-01,2.20528e-02,9.99999e-01,9.99999e-01,9.99999e-01,2.20528e-02,9.99999e-01
4.310730950e-01,2.37785e-02,9.99999e-01,9.99999e-01,9.99999e-01,2.37785e-02,9.99999e-01
4.332284605e-01,2.56011e-02,9.99999e-01,9.99999e-01,9.99999e-01,2.56011e-02,9.99999e-01
4.353946028e-01,2.75232e-02,9.99999e-01,9.99999e-01,9.99999e-01,2.75232e-02,9.99999e-01
4.375715758e-01,2.95474e-02,9.99999e-01,9.99999e-01,9.99999e-01,2.95474e-02,9.99999e-01
4.397594337e-01,3.16760e-02,9.99999e-01,9.99999e-01,9.99999e-01,3.16760e-02,9.99999e-01
4.419582309e-01,3.39113e-02,9.99999e-01,9.99999e-01,9.99999e-01,3.39113e-02,9.99999e-01
4.441680220e-01,3.62555e-02,9.99999e-01,9.99999e-01,9.99999e-01,3.62555e-02,9.99999e-01
4.463888621e-01,3.87106e-02,9.99999e-01,9.99999e-01,9.99999e-01,3.87106e-02,9.99999e-01
4.486208064e-01,4.12784e-02,9.99999e-01,9.99999e-01,9.99999e-01,4.12784e-02,9.99999e-01
4.508639105e-01,4.39609e-02,9.99999e-01,9.99999e-01,9.99999e-01,4.39609e-02,9.99999e-01
4.531182300e-01,4.67594e-02,9.99999e-01,9.99999e-01,9.99999e-01,4.67594e-02,9.99999e-01
4.553838212e-01,4.96755e-02,9.99999e-01,9.99999e-01,9.99999e-01,4.96755e-02,9.99999e-01
4.576607403e-01,5.27105e-02,9.99999e-01,9.99999e-01,9.99999e-01,5.27105e-02,9.99999e-01
4.599490440e-01,5.58653e-02,9.99999e-01,9.99999e-01,9.99999e-01,5.58653e-02,9.99999e-01
4.622487892e-01,5.91411e-02,9.99999e-01,9.99999e-01,9.99999e-01,5.91411e-02,9.99999e-01
4.645600332e-01,6.25385e-02,9.99999e-01,9.99999e-01,9.99999e-01,6.25385e-02,9.99999e-01
4.668828333e-01,6.60582e-02,9.99999e-01,9.99999e-01,9.99999e-01,6.60582e-02,9.99999e-01
4.692172475e-01,6.97005e-02,9.99999e-01,9.99999e-01,9.99999e-01,6.97005e-02,9.99999e-01
4.715633337e-01,7.34658e-02,9.99999e-01,9.99999e-01,9.99999e-01,7.34658e-02,9.99999e-01
4.739211504e-01,7.73540e-02,9.99999e-01,9.99999e-01,9.99999e-01,7.73540e-02,9.99999e-01
4.762907561e-01,8.13651e-02,9.99999e-01,9.99999e-01,9.99999e-01,8.13651e-02,9.99999e-01
4.786722099e-01,8.54987e-02,9.99999e-01,9.99999e-01,9.99999e-01,8.54987e-02,9.99999e-01
4.810655710e-01,8.97544e-02,9.99999e-01,9.99999e-01,9.99999e-01,8.97544e-02,9.99999e-01
4.834708988e-01,9.41316e-02,9.99999e-01,9.99999e-01,9.99999e-01,9.41316e-02,9.99999e-01
4.858882533e-01,9.86295e-02,9.99999e-01,9.99999e-01,9.99999e-01,9.86295e-02,9.99999e-01
4.883176946e-01,1.03247e-01,9.99999e-01,9.99999e-01,9.99999e-01,1.03247e-01,9.99999e-01
4.907592831e-01,1.07983e-01,9.99999e-01,9.99999e-01,9.99999e-01,1.07983e-01,9.99999e-01
4.932130795e-01,1.12837e-01,9.99999e-01,9.99999e-01,9.99999e-01,1.12837e-01,9.99999e-01
4.956791449e-01,1.17806e-01,9.99999e-01,9.99999e-01,9.99999e-01,1.17806e-01,9.99999e-01
4.981575406e-01,1.22889e-01,9.99999e-01,9.99999e-01,9.99999e-01,1.22889e-01,9.99999e-01
5.006483283e-01,1.28085e-01,9.99999e-01,9.99999e-01,9.99999e-01,1.28085e-01,9.99999e-01
5.031515699e-01,1.33391e-01,9.99999e-01,9.99999e-01,9.99999e-01,1.33391e-01,9.99999e-01
5.056673278e-01,1.38806e-01,9.99999e-01,9.99999e-01,9.99999e-01,1.38806e-01,9.99999e-01
5.081956644e-01,1.44327e-01,9.99999e-01,9.99999e-01,9.99999e-01,1.44327e-01,9.99999e-01
5.107366428e-01,1.49952e-01,9.99999e-01,9.99999e-01,9.99999e-01,1.49952e-01,9.99999e-01
5.132903260e-01,1.55679e-01,9.99999e-01,9.99999e-01,9.99999e-01,1.55679e-01,9.99999e-01
5.158567776e-01,1.61504e-01,9.99999e-01,9.99999e-01,9.99999e-01,1.61504e-01,9.99999e-01
5.184360615e-01,1.67427e-01,9.99999e-01,9.99999e-01,9.99999e-01,1.67427e-01,9.99999e-01
5.210282418e-01,1.73443e-01,9.99999e-01,9.99999e-01,9.99999e-01,1.73443e-01,9.99999e-01
5.236333830e-01,1.79550e-01,9.99999e-01,9.99999e-01,9.99999e-01,1.79550e-01,9.99999e-01
5.262515499e-01,1.85745e-01,9.99999e-01,9.99999e-01,9.99999e-01,1.85745e-01,9.99999e-01
5.288828077e-01,1.92025e-01,9.99999e-01,9.99999e-01,9.99999e-01,1.92025e-01,9.99999e-01
5.315272217e-01,1.98387e-01,9.99999e-01,9.99999e-01,9.99999e-01,1.98387e-01,9.99999e-01
5.341848578e-01,2.04828e-01,9.99999e-01,9.99999e-01,9.99999e-01,2.04828e-01,9.99999e-01
5.368557821e-01,2.11344e-01,9.99999e-01,9.99999e-01,9.99999e-01,2.11344e-01,9.99999e-01
5.395400610e-01,2.17933e-01,9.99999e-01,9.99999e-01,9.99999e-01,2.17933e-01,9.99999e-01
5.422377613e-01,2.24591e-01,9.99999e-01,9.99999e-01,9.99999e-01,2.24591e-01,9.99999e-01
5.449489501e-01,2.31315e-01,9.99999e-01,9.99999e-01,9.99999e-01,2.31315e-01,9.99999e-01
5.476736949e-01,2.38102e-01,9.99999e-01,9.99999e-01,9.99999e-01,2.38102e-01,9.99999e-01
5.504120634e-01,2.44948e-01,9.99999e-01,9.99999e-01,9.99999e-01,2.44948e-01,9.99999e-01
5.531641237e-01,2.51849e-01,9.99999e-01,9.99999e-01,9.99999e-01,2.51849e-01,9.99999e-01
5.559299443e-01,2.58803e-01,9.99999e-01,9.99999e-01,9.99999e-01,2.58803e-01,9.99999e-01
5.587095940e-01,2.65806e-01,9.99999e-01,9.99999e-01,9.99999e-01,2.65806e-01,9.99999e-01
5.615031420e-01,2.72855e-01,9.99999e-01,9.99999e-01,9.99999e-01,2.72855e-01,9.99999e-01
5.643106577e-01,2.79945e-01,9.99999e-01,9.99999e-01,9.99999e-01,2.79945e-01,9.99999e-01
5.671322110e-01,2.87075e-01,9.99999e-01,9.99999e-01,9.99999e-01,2.87075e-01,9.99999e-01
5.699678720e-01,2.94239e-01,9.99999e-01,9.99999e-01,9.99999e-01,2.94239e-01,9.99999e-01
5.728177114e-01,3.01436e-01,9.99999e-01,9.99999e-01,9.99999e-01,3.01436e-01,9.99999e-01
5.756818000e-01,3.08661e-01,9.99999e-01,9.99999e-01,9.99999e-01,3.08661e-01,9.99999e-01
5.785602090e-01,3.15912e-01,9.99999e-01,9.99999e-01,9.99999e-01,3.15912e-01,9.99999e-01
5.814530100e-01,3.23185e-01,9.99999e-01,9.99999e-01,9.99999e-01,3.23185e-01,9.99999e-01
5.843602750e-01,3.30477e-01,9.99999e-01,9.99999e-01,9.99999e-01,3.30477e-01,9.99999e-01
5.872820764e-01,3.37784e-01,9.99999e-01,9.99999e-01,9.99999e-01,3.37784e-01,9.99999e-01
5.902184868e-01,3.45103e-01,9.99999e-01,9.99999e-01,9.99999e-01,3.45103e-01,9.99999e-01
5.931695792e-01,3.52433e-01,9.99999e-01,9.99999e-01,9.99999e-01,3.52433e-01,9.99999e-01
5.961354271e-01,3.59768e-01,9.99999e-01,9.99999e-01,9.99999e-01,3.59768e-01,9.99999e-01
5.991161043e-01,3.67106e-01,9.99999e-01,9.99999e-01,9.99999e-01,3.67106e-01,9.99999e-01
6.021116848e-01,3.74445e-01,9.99999e-01,9.99999e-01,9.99999e-01,3.74445e-01,9.99999e-01
6.051222432e-01,3.81782e-01,9.99999e-01,9.99999e-01,9.99999e-01,3.81782e-01,9.99999e-01
6.081478544e-01,3.89113e-01,9.99999e-01,9.99999e-01,9.99999e-01,3.89113e-01,9.99999e-01
6.111885937e-01,3.96435e-01,9.99999e-01,9.99999e-01,9.99999e-01,3.96435e-01,9.99999e-01
6.142445367e-01,4.03747e-01,9.99999e-01,9.99999e-01,9.99999e-01,4.03747e-01,9.99999e-01
6.173157594e-01,4.11045e-01,9.99999e-01,9.99999e-01,9.99999e-01,4.11045e-01,9.99999e-01
6.204023382e-01,4.18327e-01,9.99999e-01,9.99999e-01,9.99999e-01,4.18327e-01,9.99999e-01
6.235043498e-01,4.25591e-01,9.99999e-01,9.99999e-01,9.99999e-01,4.25591e-01,9.99999e-01
6.266218716e-01,4.32833e-01,9.99999e-01,9.99999e-01,9.99999e-01,4.32833e-01,9.99999e-01
6.297549810e-01,4.40052e-01,9.99999e-01,9.99999e-01,9.99999e-01,4.40052e-01,9.99999e-01
6.329037559e-01,4.47245e-01,9.99999e-01,9.99999e-01,9.99999e-01,4.47245e-01,9.99999e-01
6.360682746e-01,4.54411e-01,9.99999e-01,9.99999e-01,9.99999e-01,4.54411e-01,9.99999e-01
6.392486160e-01,4.61546e-01,9.99999e-01,9.99999e-01,9.99999e-01,4.61546e-01,9.99999e-01
6.424448591e-01,4.68648e-01,9.99999e-01,9.99999e-01,9.99999e-01,4.68648e-01,9.99999e-01
6.456570834e-01,4.75717e-01,9.99999e-01,9.99999e-01,9.99999e-01,4.75717e-01,9.99999e-01
6.488853688e-01,4.82750e-01,9.99999e-01,9.99999e-01,9.99999e-01,4.82750e-01,9.99999e-01
6.521297956e-01,4.89744e-01,9.99999e-01,9.99999e-01,9.99999e-01,4.89744e-01,9.99999e-01
6.553904446e-01,4.96699e-01,9.99999e-01,9.99999e-01,9.99999e-01,4.96699e-01,9.99999e-01
6.586673968e-01,5.03612e-01,9.99999e-01,9.99999e-01,9.99999e-01,5.03612e-01,9.99999e-01
6.619607338e-01,5.10482e-01,9.99999e-01,9.99999e-01,9.99999e-01,5.10482e-01,9.99999e-01
6.652705375e-01,5.17307e-01,9.99999e-01,9.99999e-01,9.99999e-01,5.17307e-01,9.99999e-01
6.685968902e-01,5.24086e-01,9.99999e-01,9.99999e-01,9.99999e-01,5.24086e-01,9.99999e-01
6.719398746e-01,5.30817e-01,9.99999e-01,9.99999e-01,9.99999e-01,5.30817e-01,9.99999e-01
6.752995740e-01,5.37500e-01,9.99999e-01,9.99999e-01,9.99999e-01,5.37500e-01,9.99999e-01
6.786760719e-01,5.44131e-01,9.99999e-01,9.99999e-01,9.99999e-01,5.44131e-01,9.99999e-01
6.820694522e-01,5.50712e-01,9.99999e-01,9.99999e-01,9.99999e-01,5.50712e-01,9.99999e-01
6.854797995e-01,5.57239e-01,9.99999e-01,9.99999e-01,9.99999e-01,5.57239e-01,9.99999e-01
6.889071985e-01,5.63713e-01,9.99999e-01,9.99999e-01,9.99999e-01,5.63713e-01,9.99999e-01
6.923517345e-01,5.70132e-01,9.99999e-01,9.99999e-01,9.99999e-01,5.70132e-01,9.99999e-01
6.958134932e-01,5.76495e-01,9.99999e-01,9.99999e-01,9.99999e-01,5.76495e-01,9.99999e-01
6.992925606e-01,5.82801e-01,9.99999e-01,9.99999e-01,9.99999e-01,5.82801e-01,9.99999e-01
7.027890234e-01,5.89049e-01,9.99999e-01,9.99999e-01,9.99999e-01,5.89049e-01,9.99999e-01
7.063029686e-01,5.95239e-01,9.99999e-01,9.99999e-01,9.99999e-01,5.95239e-01,9.99999e-01
7.098344834e-01,6.01370e-01,9.99999e-01,9.99999e-01,9.99999e-01,6.01370e-01,9.99999e-01
7.133836558e-01,6.07442e-01,9.99999e-01,9.99999e-01,9.99999e-01,6.07442e-01,9.99999e-01
7.169505741e-01,6.13452e-01,9.99999e-01,9.99999e-01,9.99999e-01,6.13452e-01,9.99999e-01
7.205353270e-01,6.19402e-01,9.99999e-01,9.99999e-01,9.99999e-01,6.19402e-01,9.99999e-01
7.241380036e-01,6.25290e-01,9.99999e-01,9.99999e-01,9.99999e-01,6.25290e-01,9.99999e-01
7.277586936e-01,6.31117e-01,9.99999e-01,9.99999e-01,9.99999e-01,6.31117e-01,9.99999e-01
7.313974871e-01,6.36881e-01,9.99999e-01,9.99999e-01,9.99999e-01,6.36881e-01,9.99999e-01
7.350544745e-01,6.42582e-01,9.99999e-01,9.99999e-01,9.99999e-01,6.42582e-01,9.99999e-01
7.387297469e-01,6.48220e-01,9.99999e-01,9.99999e-01,9.99999e-01,6.48220e-01,9.99999e-01
7.424233956e-01,6.53794e-01,9.99999e-01,9.99999e-01,9.99999e-01,6.53794e-01,9.99999e-01
7.461355126e-01,6.59305e-01,9.99999e-01,9.99999e-01,9.99999e-01,6.59305e-01,9.99999e-01
7.498661902e-01,6.64753e-01,9.99999e-01,9.99999e-01,9.99999e-01,6.64753e-01,9.99999e-01
7.536155211e-01,6.70136e-01,9.99999e-01,9.99999e-01,9.99999e-01,6.70136e-01,9.99999e-01
7.573835987e-01,6.75455e-01,9.99999e-01,9.99999e-01,9.99999e-01,6.75455e-01,9.99999e-01
7.611705167e-01,6.80711e-01,9.99999e-01,9.99999e-01,9.99999e-01,6.80711e-01,9.99999e-01
7.649763693e-01,6.85902e-01,9.99999e-01,9.99999e-01,9.99999e-01,6.85902e-01,9.99999e-01
7.688012511e-01,6.91029e-01,9.99999e-01,9.99999e-01,9.99999e-01,6.91029e-01,9.99999e-01
7.726452574e-01,6.96092e-01,9.99999e-01,9.99999e-01,9.99999e-01,6.96092e-01,9.99999e-01
7.765084837e-01,7.01091e-01,9.99999e-01,9.99999e-01,9.99999e-01,7.01091e-01,9.99999e-01
7.803910261e-01,6.93481e-01,9.99999e-01,9.99999e-01,9.82231e-01,7.06026e-01,9.99999e-01
7.842929812e-01,6.60748e-01,9.99999e-01,9.99999e-01,9.29456e-01,7.10897e-01,9.99999e-01
7.882144461e-01,6.61243e-01,9.99999e-01,9.99999e-01,9.23904e-01,7.15705e-01,9.99999e-01
7.921555184e-01,6.88438e-01,9.99999e-01,9.99999e-01,9.55566e-01,7.20449e-01,9.99999e-01
7.961162960e-01,7.03628e-01,9.99999e-01,9.99999e-01,9.70346e-01,7.25130e-01,9.99999e-01
8.000968774e-01,7.17921e-01,9.99999e-01,9.99999e-01,9.83792e-01,7.29748e-01,9.99999e-01
8.040973618e-01,7.28143e-01,9.99999e-01,9.99999e-01,9.91608e-01,7.34304e-01,9.99999e-01
8.081178486e-01,7.35935e-01,9.99999e-01,9.99999e-01,9.96126e-01,7.38797e-01,9.99999e-01
8.121584379e-01,7.42346e-01,9.99999e-01,9.99999e-01,9.98813e-01,7.43228e-01,9.99999e-01
8.162192301e-01,7.47401e-01,9.99999e-01,9.99999e-01,9.99737e-01,7.47597e-01,9.99999e-01
8.203003262e-01,7.51902e-01,9.99999e-01,9.99999e-01,9.99995e-01,7.51905e-01,9.99999e-01
8.244018279e-01,7.56152e-01,9.99999e-01,9.99999e-01,9.99999e-01,7.56152e-01,9.99999e-01
8.285238370e-01,7.60338e-01,9.99999e-01,9.99999e-01,9.99999e-01,7.60338e-01,9.99999e-01
8.326664562e-01,7.64464e-01,9.99999e-01,9.99999e-01,9.99999e-01,7.64464e-01,9.99999e-01
8.368297885e-01,7.68531e-01,9.99999e-01,9.99999e-01,9.99999e-01,7.68531e-01,9.99999e-01
8.410139374e-01,7.72538e-01,9.99999e-01,9.99999e-01,9.99999e-01,7.72538e-01,9.99999e-01
8.452190071e-01,7.76486e-01,9.99999e-01,9.99999e-01,9.99999e-01,7.76486e-01,9.99999e-01
8.494451021e-01,7.80376e-01,9.99999e-01,9.99999e-01,9.99999e-01,7.80376e-01,9.99999e-01
8.536923276e-01,7.84207e-01,9.99999e-01,9.99999e-01,9.99999e-01,7.84207e-01,9.99999e-01
8.579607893e-01,7.87982e-01,9.99999e-01,9.99999e-01,9.99999e-01,7.87982e-01,9.99999e-01
8.622505932e-01,7.91699e-01,9.99999e-01,9.99999e-01,9.99999e-01,7.91699e-01,9.99999e-01
8.665618462e-01,7.58074e-01,9.99999e-01,9.99999e-01,9.53119e-01,7.95360e-01,9.99999e-01
8.708946554e-01,6.60965e-01,9.99999e-01,9.99999e-01,8.27275e-01,7.98965e-01,9.99999e-01
8.752491287e-01,6.90586e-01,9.99999e-01,9.99999e-01,8.60527e-01,8.02515e-01,9.99999e-01
8.796253743e-01,7.42899e-01,9.99999e-01,9.99999e-01,9.21699e-01,8.06010e-01,9.99999e-01
8.840235012e-01,7.76111e-01,9.99999e-01,9.99999e-01,9.58811e-01,8.09451e-01,9.99999e-01
8.884436187e-01,7.99557e-01,9.99999e-01,9.99999e-01,9.83660e-01,8.12838e-01,9.99999e-01
8.928858368e-01,8.10738e-01,9.99999e-01,9.99999e-01,9.93341e-01,8.16172e-01,9.99999e-01
8.973502660e-01,8.18133e-01,9.99999e-01,9.99999e-01,9.98388e-01,8.19453e-01,9.99999e-01
9.018370173e-01,8.22537e-01,9.99999e-01,9.99999e-01,9.99822e-01,8.22683e-01,9.99999e-01
9.063462024e-01,8.21964e-01,9.99999e-01,9.99999e-01,9.95281e-01,8.25860e-01,9.99999e-01
9.108779334e-01,8.20267e-01,9.99999e-01,9.99999e-01,9.89479e-01,8.28987e-01,9.99999e-01
9.154323231e-01,8.30024e-01,9.99999e-01,9.99999e-01,9.97547e-01,8.32064e-01,9.99999e-01
9.200094847e-01,8.03950e-01,9.99999e-01,9.99999e-01,9.62708e-01,8.35091e-01,9.99999e-01
9.246095321e-01,7.95676e-01,9.99999e-01,9.99999e-01,9.49414e-01,8.38069e-01,9.99999e-01
9.292325798e-01,8.06966e-01,9.99999e-01,9.99999e-01,9.59533e-01,8.40999e-01,9.99999e-01
9.338787427e-01,8.11277e-01,9.99999e-01,9.99999e-01,9.61365e-01,8.43880e-01,9.99999e-01
9.385481364e-01,8.22595e-01,9.99999e-01,9.99999e-01,9.71514e-01,8.46714e-01,9.99999e-01
9.432408771e-01,8.34664e-01,9.99999e-01,9.99999e-01,9.82533e-01,8.49502e-01,9.99999e-01
9.479570815e-01,8.44562e-01,9.99999e-01,9.99999e-01,9.90986e-01,8.52243e-01,9.99999e-01
9.526968669e-01,8.51222e-01,9.99999e-01,9.99999e-01,9.95652e-01,8.54939e-01,9.99999e-01
9.574603512e-01,8.55995e-01,9.99999e-01,9.99999e-01,9.98140e-01,8.57589e-01,9.99999e-01
9.622476530e-01,8.59698e-01,9.99999e-01,9.99999e-01,9.99420e-01,8.60196e-01,9.99999e-01
9.670588912e-01,8.62609e-01,9.99999e-01,9.99999e-01,9.99826e-01,8.62758e-01,9.99999e-01
9.718941857e-01,8.65267e-01,9.99999e-01,9.99999e-01,9.99987e-01,8.65278e-01,9.99999e-01
9.767536566e-01,8.67754e-01,9.99999e-01,9.99999e-01,9.99999e-01,8.67754e-01,9.99999e-01
9.816374249e-01,8.70189e-01,9.99999e-01,9.99999e-01,9.99999e-01,8.70189e-01,9.99999e-01
9.865456120e-01,8.72582e-01,9.99999e-01,9.99999e-01,9.99999e-01,8.72582e-01,9.99999e-01
9.914783401e-01,8.74935e-01,9.99999e-01,9.99999e-01,9.99999e-01,8.74935e-01,9.99999e-01
9.964357318e-01,8.77247e-01,9.99999e-01,9.99999e-01,9.99999e-01,8.77247e-01,9.99999e-01
1.001417910e+00,8.79519e-01,9.99999e-01,9.99999e-01,9.99999e-01,8.79519e-01,9.99999e-01
1.006425000e+00,8.81752e-01,9.99999e-01,9.99999e-01,9.99999e-01,8.81752e-01,9.99999e-01
1.011457125e+00,8.83947e-01,9.99999e-01,9.99999e-01,9.99999e-01,8.83947e-01,9.99999e-01
1.016514411e+00,8.86103e-01,9.99999e-01,9.99999e-01,9.99999e-01,8.86103e-01,9.99999e-01
1.021596983e+00,8.88197e-01,9.99999e-01,9.99999e-01,9.99971e-01,8.88222e-01,9.99999e-01
1.026704968e+00,8.88664e-01,9.99999e-01,9.99999e-01,9.98157e-01,8.90304e-01,9.99999e-01
1.031838492e+00,8.66660e-01,9.99999e-01,9.99999e-01,9.71210e-01,8.92350e-01,9.99999e-01
1.036997685e+00,2.57708e-01,9.99999e-01,9.99999e-01,2.88148e-01,8.94359e-01,9.99999e-01
1.042182673e+00,3.10374e-01,9.99999e-01,9.99999e-01,3.46270e-01,8.96334e-01,9.99999e-01
1.047393587e+00,2.84765e-01,9.99999e-01,9.99999e-01,3.17013e-01,8.98274e-01,9.99999e-01
1.052630555e+00,4.38721e-02,9.99999e-01,9.99999e-01,4.87370e-02,9.00179e-01,9.99999e-01
1.057893707e+00,8.30998e-02,9.99999e-01,9.99999e-01,9.21231e-02,9.02051e-01,9.99999e-01
1.063183176e+00,1.60403e-01,9.99999e-01,9.99999e-01,1.77459e-01,9.03890e-01,9.99999e-01
1.068499092e+00,2.84813e-01,9.99999e-01,9.99999e-01,3.14468e-01,9.05695e-01,9.99999e-01
1.073841587e+00,4.38758e-01,9.99999e-01,9.99999e-01,4.83495e-01,9.07469e-01,9.99999e-01
1.079210795e+00,5.74777e-01,9.99999e-01,9.99999e-01,6.32171e-01,9.09211e-01,9.99999e-01
1.084606849e+00,7.09537e-01,9.99999e-01,9.99999e-01,7.78921e-01,9.10922e-01,9.99999e-01
1.090029883e+00,8.01774e-01,9.99999e-01,9.99999e-01,8.78557e-01,9.12602e-01,9.99999e-01
1.095480033e+00,8.57889e-01,9.99999e-01,9.99999e-01,9.38350e-01,9.14252e-01,9.99999e-01
1.100957433e+00,8.88249e-01,9.99999e-01,9.99999e-01,9.69837e-01,9.15873e-01,9.99999e-01
1.106462220e+00,9.05942e-01,9.99999e-01,9.99999e-01,9.87440e-01,9.17464e-01,9.99999e-01
1.111994531e+00,9.14733e-01,9.99999e-01,9.99999e-01,9.95327e-01,9.19026e-01,9.99999e-01
1.117554504e+00,9.19514e-01,9.99999e-01,9.99999e-01,9.98863e-01,9.20560e-01,9.99999e-01
1.123142276e+00,9.21998e-01,9.99999e-01,9.99999e-01,9.99925e-01,9.22067e-01,9.99999e-01
1.128757988e+00,9.23546e-01,9.99999e-01,9.99999e-01,9.99999e-01,9.23546e-01,9.99999e-01
1.134401778e+00,9.24998e-01,9.99999e-01,9.99999e-01,9.99999e-01,9.24998e-01,9.99999e-01
1.140073787e+00,9.26423e-01,9.99999e-01,9.99999e-01,9.99999e-01,9.26423e-01,9.99999e-01
1.145774156e+00,9.27823e-01,9.99999e-01,9.99999e-01,9.99999e-01,9.27823e-01,9.99999e-01
1.151503026e+00,9.29197e-01,9.99999e-01,9.99999e-01,9.99999e-01,9.29197e-01,9.99999e-01
1.157260541e+00,9.30546e-01,9.99999e-01,9.99999e-01,9.99999e-01,9.30546e-01,9.99999e-01
1.163046844e+00,9.31870e-01,9.99999e-01,9.99999e-01,9.99999e-01,9.31870e-01,9.99999e-01
1.168862078e+00,9.33169e-01,9.99999e-01,9.99999e-01,9.99999e-01,9.33169e-01,9.99999e-01
1.174706389e+00,9.34445e-01,9.99999e-01,9.99999e-01,9.99999e-01,9.34445e-01,9.99999e-01
1.180579921e+00,9.35697e-01,9.99999e-01,9.99999e-01,9.99999e-01,9.35697e-01,9.99999e-01
1.186482820e+00,9.36923e-01,9.99999e-01,9.99999e-01,9.99995e-01,9.36927e-01,9.99999e-01
1.192415234e+00,9.31897e-01,9.99999e-01,9.99999e-01,9.93351e-01,9.38133e-01,9.99999e-01
1.198377311e+00,5.49119e-01,9.99999e-01,9.99999e-01,5.84594e-01,9.39317e-01,9.99999e-01
1.204369197e+00,1.51082e-06,9.99999e-01,9.99999e-01,1.60643e-06,9.40479e-01,9.99999e-01
1.210391043e+00,1.01569e-20,9.99999e-01,9.99999e-01,1.07866e-20,9.41620e-01,9.99999e-01
1.216442998e+00,3.51652e-18,9.99999e-01,9.99999e-01,3.73011e-18,9.42739e-01,9.99999e-01
1.222525213e+00,6.44002e-18,9.99999e-01,9.99999e-01,6.82321e-18,9.43838e-01,9.99999e-01
1.228637839e+00,8.79953e-14,9.99999e-01,9.99999e-01,9.31249e-14,9.44916e-01,9.99999e-01
