#,Wave/freq,Total,N2,O2,CO2,Rayleigh,CIA
4.000000000e-01,2.83703e-04,9.99999e-01,9.99999e-01,9.99999e-01,2.83703e-04,9.99999e-01
4.020000000e-01,3.33428e-04,9.99999e-01,9.99999e-01,9.99999e-01,3.33428e-04,9.99999e-01
4.040100000e-01,3.90554e-04,9.99999e-01,9.99999e-01,9.99999e-01,3.90554e-04,9.99999e-01
4.060300500e-01,4.56041e-04,9.99999e-01,9.99999e-01,9.99999e-01,4.56041e-04,9.99999e-01
4.080602003e-01,5.30880e-04,9.99999e-01,9.99999e-01,9.99999e-01,5.30880e-04,9.99999e-01
4.101005013e-01,6.16149e-04,9.99999e-01,9.99999e-01,9.99999e-01,6.16149e-04,9.99999e-01
4.121510038e-01,7.13013e-04,9.99999e-01,9.99999e-01,9.99999e-01,7.13013e-04,9.99999e-01
4.142117588e-01,8.22729e-04,9.99999e-01,9.99999e-01,9.99999e-01,8.22729e-04,9.99999e-01
4.162828176e-01,9.46647e-04,9.99999e-01,9.99999e-01,9.99999e-01,9.46647e-04,9.99999e-01
4.183642317e-01,1.08622e-03,9.99999e-01,9.99999e-01,9.99999e-01,1.08622e-03,9.99999e-01
4.204560528e-01,1.24298e-03,9.99999e-01,9.99999e-01,9.99999e-01,1.24298e-03,9.99999e-01
4.225583331e-01,1.41859e-03,9.99999e-01,9.99999e-01,9.99999e-01,1.41859e-03,9.99999e-01
4.246711247e-01,1.61478e-03,9.99999e-01,9.99999e-01,9.99999e-01,1.61478e-03,9.99999e-01
4.267944804e-01,1.83341e-03,9.99999e-01,9.99999e-01,9.99999e-01,1.83341e-03,9.99999e-01
4.289284528e-01,2.07643e-03,9.99999e-01,9.99999e-01,9.99999e-01,2.07643e-03,9.99999e-01
4.310730950e-01,2.34589e-03,9.99999e-01,9.99999e-01,9.99999e-01,2.34589e-03,9.99999e-01
4.332284605e-01,2.64393e-03,9.99999e-01,9.99999e-01,9.99999e-01,2.64393e-03,9.99999e-01
4.353946028e-01,2.97281e-03,9.99999e-01,9.99999e-01,9.99999e-01,2.97281e-03,9.99999e-01
4.375715758e-01,3.33486e-03,9.99999e-01,9.99999e-01,9.99999e-01,3.33486e-03,9.99999e-01
4.397594337e-01,3.73253e-03,9.99999e-01,9.99999e-01,9.99999e-01,3.73253e-03,9.99999e-01
4.419582309e-01,4.16833e-03,9.99999e-01,9.99999e-01,9.99999e-01,4.16833e-03,9.99999e-01
4.441680220e-01,4.64487e-03,9.99999e-01,9.99999e-01,9.99999e-01,4.64487e-03,9.99999e-01
4.463888621e-01,5.16484e-03,9.99999e-01,9.99999e-01,9.99999e-01,5.16484e-03,9.99999e-01
4.486208064e-01,5.73099e-03,9.99999e-01,9.99999e-01,9.99999e-01,5.73099e-03,9.99999e-01
4.508639105e-01,6.34615e-03,9.99999e-01,9.99999e-01,9.99999e-01,6.34615e-03,9.99999e-01
4.531182300e-01,7.01320e-03,9.99999e-01,9.99999e-01,9.99999e-01,7.01320e-03,9.99999e-01
4.553838212e-01,7.73508e-03,9.99999e-01,9.99999e-01,9.99999e-01,7.73508e-03,9.99999e-01
4.576607403e-01,8.51477e-03,9.99999e-01,9.99999e-01,9.99999e-01,8.51477e-03,9.99999e-01
4.599490440e-01,9.35528e-03,9.99999e-01,9.99999e-01,9.99999e-01,9.35528e-03,9.99999e-01
4.622487892e-01,1.02597e-02,9.99999e-01,9.99999e-01,9.99999e-01,1.02597e-02,9.99999e-01
4.645600332e-01,1.12310e-02,9.99999e-01,9.99999e-01,9.99999e-01,1.12310e-02,9.99999e-01
4.668828333e-01,1.22723e-02,9.99999e-01,9.99999e-01,9.99999e-01,1.22723e-02,9.99999e-01
4.692172475e-01,1.33868e-02,9.99999e-01,9.99999e-01,9.99999e-01,1.33868e-02,9.99999e-01
4.715633337e-01,1.45774e-02,9.99999e-01,9.99999e-01,9.99999e-01,1.45774e-02,9.99999e-01
4.739211504e-01,1.58471e-02,9.99999e-01,9.99999e-01,9.99999e-01,1.58471e-02,9.99999e-01
4.762907561e-01,1.71991e-02,9.99999e-01,9.99999e-01,9.99999e-01,1.71991e-02,9.99999e-01
4.786722099e-01,1.86363e-02,9.99999e-01,9.99999e-01,9.99999e-01,1.86363e-02,9.99999e-01
4.810655710e-01,2.01616e-02,9.99999e-01,9.99999e-01,9.99999e-01,2.01616e-02,9.99999e-01
4.834708988e-01,2.17778e-02,9.99999e-01,9.99999e-01,9.99999e-01,2.17778e-02,9.99999e-01
4.858882533e-01,2.34878e-02,9.99999e-01,9.99999e-01,9.99999e-01,2.34878e-02,9.99999e-01
4.883176946e-01,2.52943e-02,9.99999e-01,9.99999e-01,9.99999e-01,2.52943e-02,9.99999e-01
4.907592831e-01,2.71998e-02,9.99999e-01,9.99999e-01,9.99999e-01,2.71998e-02,9.99999e-01
4.932130795e-01,2.92070e-02,9.99999e-01,9.99999e-01,9.99999e-01,2.92070e-02,9.99999e-01
4.956791449e-01,3.13183e-02,9.99999e-01,9.99999e-01,9.99999e-01,3.13183e-02,9.99999e-01
4.981575406e-01,3.35359e-02,9.99999e-01,9.99999e-01,9.99999e-01,3.35359e-02,9.99999e-01
5.006483283e-01,3.58620e-02,9.99999e-01,9.99999e-01,9.99999e-01,3.58620e-02,9.99999e-01
5.031515699e-01,3.82987e-02,9.99999e-01,9.99999e-01,9.99999e-01,3.82987e-02,9.99999e-01
5.056673278e-01,4.08479e-02,9.99999e-01,9.99999e-01,9.99999e-01,4.08479e-02,9.99999e-01
5.081956644e-01,4.35113e-02,9.99999e-01,9.99999e-01,9.99999e-01,4.35113e-02,9.99999e-01
5.107366428e-01,4.62907e-02,9.99999e-01,9.99999e-01,9.99999e-01,4.62907e-02,9.99999e-01
5.132903260e-01,4.91873e-02,9.99999e-01,9.99999e-01,9.99999e-01,4.91873e-02,9.99999e-01
5.158567776e-01,5.22026e-02,9.99999e-01,9.99999e-01,9.99999e-01,5.22026e-02,9.99999e-01
5.184360615e-01,5.53377e-02,9.99999e-01,9.99999e-01,9.99999e-01,5.53377e-02,9.99999e-01
5.210282418e-01,5.85935e-02,9.99999e-01,9.99999e-01,9.99999e-01,5.85935e-02,9.99999e-01
5.236333830e-01,6.19709e-02,9.99999e-01,9.99999e-01,9.99999e-01,6.19709e-02,9.99999e-01
5.262515499e-01,6.54704e-02,9.99999e-01,9.99999e-01,9.99999e-01,6.54704e-02,9.99999e-01
5.288828077e-01,6.90925e-02,9.99999e-01,9.99999e-01,9.99999e-01,6.90925e-02,9.99999e-01
5.315272217e-01,7.28375e-02,9.99999e-01,9.99999e-01,9.99999e-01,7.28375e-02,9.99999e-01
5.341848578e-01,7.67055e-02,9.99999e-01,9.99999e-01,9.99999e-01,7.67055e-02,9.99999e-01
5.368557821e-01,8.06963e-02,9.99999e-01,9.99999e-01,9.99999e-01,8.06963e-02,9.99999e-01
5.395400610e-01,8.48098e-02,9.99999e-01,9.99999e-01,9.99999e-01,8.48098e-02,9.99999e-01
5.422377613e-01,8.90455e-02,9.99999e-01,9.99999e-01,9.99999e-01,8.90455e-02,9.99999e-01
5.449489501e-01,9.34027e-02,9.99999e-01,9.99999e-01,9.99999e-01,9.34027e-02,9.99999e-01
5.476736949e-01,9.78808e-02,9.99999e-01,9.99999e-01,9.99999e-01,9.78808e-02,9.99999e-01
5.504120634e-01,1.02479e-01,9.99999e-01,9.99999e-01,9.99999e-01,1.02479e-01,9.99999e-01
5.531641237e-01,1.07195e-01,9.99999e-01,9.99999e-01,9.99999e-01,1.07195e-01,9.99999e-01
5.559299443e-01,1.12030e-01,9.99999e-01,9.99999e-01,9.99999e-01,1.12030e-01,9.99999e-01
5.587095940e-01,1.16980e-01,9.99999e-01,9.99999e-01,9.99999e-01,1.16980e-01,9.99999e-01
5.615031420e-01,1.22044e-01,9.99999e-01,9.99999e-01,9.99999e-01,1.22044e-01,9.99999e-01
5.643106577e-01,1.27222e-01,9.99999e-01,9.99999e-01,9.99999e-01,1.27222e-01,9.99999e-01
5.671322110e-01,1.32510e-01,9.99999e-01,9.99999e-01,9.99999e-01,1.32510e-01,9.99999e-01
5.699678720e-01,1.37907e-01,9.99999e-01,9.99999e-01,9.99999e-01,1.37907e-01,9.99999e-01
5.728177114e-01,1.43411e-01,9.99999e-01,9.99999e-01,9.99999e-01,1.43411e-01,9.99999e-01
5.756818000e-01,1.49019e-01,9.99999e-01,9.99999e-01,9.99999e-01,1.49019e-01,9.99999e-01
5.785602090e-01,1.54729e-01,9.99999e-01,9.99999e-01,9.99999e-01,1.54729e-01,9.99999e-01
5.814530100e-01,1.60539e-01,9.99999e-01,9.99999e-01,9.99999e-01,1.60539e-01,9.99999e-01
5.843602750e-01,1.66445e-01,9.99999e-01,9.99999e-01,9.99999e-01,1.66445e-01,9.99999e-01
5.872820764e-01,1.72446e-01,9.99999e-01,9.99999e-01,9.99999e-01,1.72446e-01,9.99999e-01
5.902184868e-01,1.78538e-01,9.99999e-01,9.99999e-01,9.99999e-01,1.78538e-01,9.99999e-01
5.931695792e-01,1.84719e-01,9.99999e-01,9.99999e-01,9.99999e-01,1.84719e-01,9.99999e-01
5.961354271e-01,1.90985e-01,9.99999e-01,9.99999e-01,9.99999e-01,1.90985e-01,9.99999e-01
5.991161043e-01,1.97334e-01,9.99999e-01,9.99999e-01,9.99999e-01,1.97334e-01,9.99999e-01
6.021116848e-01,2.03762e-01,9.99999e-01,9.99999e-01,9.99999e-01,2.03762e-01,9.99999e-01
6.051222432e-01,2.10266e-01,9.99999e-01,9.99999e-01,9.99999e-01,2.10266e-01,9.99999e-01
6.081478544e-01,2.16844e-01,9.99999e-01,9.99999e-01,9.99999e-01,2.16844e-01,9.99999e-01
6.111885937e-01,2.23491e-01,9.99999e-01,9.99999e-01,9.99999e-01,2.23491e-01,9.99999e-01
6.142445367e-01,2.30204e-01,9.99999e-01,9.99999e-01,9.99999e-01,2.30204e-01,9.99999e-01
6.173157594e-01,2.36981e-01,9.99999e-01,9.99999e-01,9.99999e-01,2.36981e-01,9.99999e-01
6.204023382e-01,2.43817e-01,9.99999e-01,9.99999e-01,9.99999e-01,2.43817e-01,9.99999e-01
6.235043498e-01,2.50710e-01,9.99999e-01,9.99999e-01,9.99999e-01,2.50710e-01,9.99999e-01
6.266218716e-01,2.57655e-01,9.99999e-01,9.99999e-01,9.99999e-01,2.57655e-01,9.99999e-01
6.297549810e-01,2.64650e-01,9.99999e-01,9.99999e-01,9.99999e-01,2.64650e-01,9.99999e-01
6.329037559e-01,2.71691e-01,9.99999e-01,9.99999e-01,9.99999e-01,2.71691e-01,9.99999e-01
6.360682746e-01,2.78775e-01,9.99999e-01,9.99999e-01,9.99999e-01,2.78775e-01,9.99999e-01
6.392486160e-01,2.85898e-01,9.99999e-01,9.99999e-01,9.99999e-01,2.85898e-01,9.99999e-01
6.424448591e-01,2.93058e-01,9.99999e-01,9.99999e-01,9.99999e-01,2.93058e-01,9.99999e-01
6.456570834e-01,3.00249e-01,9.99999e-01,9.99999e-01,9.99999e-01,3.00249e-01,9.99999e-01
6.488853688e-01,3.07470e-01,9.99999e-01,9.99999e-01,9.99999e-01,3.07470e-01,9.99999e-01
6.521297956e-01,3.14717e-01,9.99999e-01,9.99999e-01,9.99999e-01,3.14717e-01,9.99999e-01
6.553904446e-01,3.21986e-01,9.99999e-01,9.99999e-01,9.99999e-01,3.21986e-01,9.99999e-01
6.586673968e-01,3.29275e-01,9.99999e-01,9.99999e-01,9.99999e-01,3.29275e-01,9.99999e-01
6.619607338e-01,3.36580e-01,9.99999e-01,9.99999e-01,9.99999e-01,3.36580e-01,9.99999e-01
6.652705375e-01,3.43898e-01,9.99999e-01,9.99999e-01,9.99999e-01,3.43898e-01,9.99999e-01
6.685968902e-01,3.51226e-01,9.99999e-01,9.99999e-01,9.99999e-01,3.51226e-01,9.99999e-01
6.719398746e-01,3.58560e-01,9.99999e-01,9.99999e-01,9.99999e-01,3.58560e-01,9.99999e-01
6.752995740e-01,3.65898e-01,9.99999e-01,9.99999e-01,9.99999e-01,3.65898e-01,9.99999e-01
6.786760719e-01,3.73237e-01,9.99999e-01,9.99999e-01,9.99999e-01,3.73237e-01,9.99999e-01
6.820694522e-01,3.80574e-01,9.99999e-01,9.99999e-01,9.99999e-01,3.80574e-01,9.99999e-01
6.854797995e-01,3.87906e-01,9.99999e-01,9.99999e-01,9.99999e-01,3.87906e-01,9.99999e-01
6.889071985e-01,3.95230e-01,9.99999e-01,9.99999e-01,9.99999e-01,3.95230e-01,9.99999e-01
6.923517345e-01,4.02544e-01,9.99999e-01,9.99999e-01,9.99999e-01,4.02544e-01,9.99999e-01
6.958134932e-01,4.09845e-01,9.99999e-01,9.99999e-01,9.99999e-01,4.09845e-01,9.99999e-01
6.992925606e-01,4.17130e-01,9.99999e-01,9.99999e-01,9.99999e-01,4.17130e-01,9.99999e-01
7.027890234e-01,4.24397e-01,9.99999e-01,9.99999e-01,9.99999e-01,4.24397e-01,9.99999e-01
7.063029686e-01,4.31643e-01,9.99999e-01,9.99999e-01,9.99999e-01,4.31643e-01,9.99999e-01
7.098344834e-01,4.38865e-01,9.99999e-01,9.99999e-01,9.99999e-01,4.38865e-01,9.99999e-01
7.133836558e-01,4.46063e-01,9.99999e-01,9.99999e-01,9.99999e-01,4.46063e-01,9.99999e-01
7.169505741e-01,4.53233e-01,9.99999e-01,9.99999e-01,9.99999e-01,4.53233e-01,9.99999e-01
7.205353270e-01,4.60373e-01,9.99999e-01,9.99999e-01,9.99999e-01,4.60373e-01,9.99999e-01
7.241380036e-01,4.67481e-01,9.99999e-01,9.99999e-01,9.99999e-01,4.67481e-01,9.99999e-01
7.277586936e-01,4.74556e-01,9.99999e-01,9.99999e-01,9.99999e-01,4.74556e-01,9.99999e-01
7.313974871e-01,4.81594e-01,9.99999e-01,9.99999e-01,9.99999e-01,4.81594e-01,9.99999e-01
7.350544745e-01,4.88595e-01,9.99999e-01,9.99999e-01,9.99999e-01,4.88595e-01,9.99999e-01
7.387297469e-01,4.95557e-01,9.99999e-01,9.99999e-01,9.99999e-01,4.95557e-01,9.99999e-01
7.424233956e-01,5.02477e-01,9.99999e-01,9.99999e-01,9.99999e-01,5.02477e-01,9.99999e-01
7.461355126e-01,5.09354e-01,9.99999e-01,9.99999e-01,9.99999e-01,5.09354e-01,9.99999e-01
7.498661902e-01,5.16187e-01,9.99999e-01,9.99999e-01,9.99999e-01,5.16187e-01,9.99999e-01
7.536155211e-01,5.22973e-01,9.99999e-01,9.99999e-01,9.99999e-01,5.22973e-01,9.99999e-01
7.573835987e-01,5.29713e-01,9.99999e-01,9.99999e-01,9.99999e-01,5.29713e-01,9.99999e-01
7.611705167e-01,5.36403e-01,9.99999e-01,9.99999e-01,9.99999e-01,5.36403e-01,9.99999e-01
7.649763693e-01,5.43043e-01,9.99999e-01,9.99999e-01,9.99999e-01,5.43043e-01,9.99999e-01
7.688012511e-01,5.49632e-01,9.99999e-01,9.99999e-01,9.99999e-01,5.49632e-01,9.99999e-01
7.726452574e-01,5.56168e-01,9.99999e-01,9.99999e-01,9.99999e-01,5.56168e-01,9.99999e-01
7.765084837e-01,5.62651e-01,9.99999e-01,9.99999e-01,9.99999e-01,5.62651e-01,9.99999e-01
7.803910261e-01,5.54384e-01,9.99999e-01,9.99999e-01,9.74177e-01,5.69079e-01,9.99999e-01
7.842929812e-01,5.11150e-01,9.99999e-01,9.99999e-01,8.88260e-01,5.75451e-01,9.99999e-01
7.882144461e-01,5.12706e-01,9.99999e-01,9.99999e-01,8.81291e-01,5.81767e-01,9.99999e-01
7.921555184e-01,5.46545e-01,9.99999e-01,9.99999e-01,9.29458e-01,5.88025e-01,9.99999e-01
7.961162960e-01,5.65684e-01,9.99999e-01,9.99999e-01,9.51969e-01,5.94225e-01,9.99999e-01
8.000968774e-01,5.84588e-01,9.99999e-01,9.99999e-01,9.73719e-01,6.00365e-01,9.99999e-01
8.040973618e-01,5.98112e-01,9.99999e-01,9.99999e-01,9.86255e-01,6.06446e-01,9.99999e-01
8.081178486e-01,6.08604e-01,9.99999e-01,9.99999e-01,9.93692e-01,6.12467e-01,9.99999e-01
8.121584379e-01,6.17211e-01,9.99999e-01,9.99999e-01,9.98033e-01,6.18427e-01,9.99999e-01
8.162192301e-01,6.24054e-01,9.99999e-01,9.99999e-01,9.99565e-01,6.24325e-01,9.99999e-01
8.203003262e-01,6.30157e-01,9.99999e-01,9.99999e-01,9.99992e-01,6.30162e-01,9.99999e-01
8.244018279e-01,6.35936e-01,9.99999e-01,9.99999e-01,9.99999e-01,6.35936e-01,9.99999e-01
8.285238370e-01,6.41647e-01,9.99999e-01,9.99999e-01,9.99999e-01,6.41647e-01,9.99999e-01
8.326664562e-01,6.47296e-01,9.99999e-01,9.99999e-01,9.99999e-01,6.47296e-01,9.99999e-01
8.368297885e-01,6.52881e-01,9.99999e-01,9.99999e-01,9.99999e-01,6.52881e-01,9.99999e-01
8.410139374e-01,6.58403e-01,9.99999e-01,9.99999e-01,9.99999e-01,6.58403e-01,9.99999e-01
8.452190071e-01,6.63860e-01,9.99999e-01,9.99999e-01,9.99999e-01,6.63860e-01,9.99999e-01
8.494451021e-01,6.69254e-01,9.99999e-01,9.99999e-01,9.99999e-01,6.69254e-01,9.99999e-01
8.536923276e-01,6.74584e-01,9.99999e-01,9.99999e-01,9.99999e-01,6.74584e-01,9.99999e-01
8.579607893e-01,6.79850e-01,9.99999e-01,9.99999e-01,9.99999e-01,6.79850e-01,9.99999e-01
8.622505932e-01,6.85052e-01,9.99999e-01,9.99999e-01,9.99999e-01,6.85052e-01,9.99999e-01
8.665618462e-01,6.47595e-01,9.99999e-01,9.99999e-01,9.38285e-01,6.90189e-01,9.99999e-01
8.708946554e-01,5.14282e-01,9.99999e-01,9.99999e-01,7.39694e-01,6.95263e-01,9.99999e-01
8.752491287e-01,5.49518e-01,9.99999e-01,9.99999e-01,7.84720e-01,7.00272e-01,9.99999e-01
8.796253743e-01,6.17579e-01,9.99999e-01,9.99999e-01,8.75727e-01,7.05218e-01,9.99999e-01
8.840235012e-01,6.63010e-01,9.99999e-01,9.99999e-01,9.33684e-01,7.10100e-01,9.99999e-01
8.884436187e-01,6.95797e-01,9.99999e-01,9.99999e-01,9.73253e-01,7.14918e-01,9.99999e-01
8.928858368e-01,7.11836e-01,9.99999e-01,9.99999e-01,9.89110e-01,7.19672e-01,9.99999e-01
8.973502660e-01,7.22431e-01,9.99999e-01,9.99999e-01,9.97330e-01,7.24364e-01,9.99999e-01
9.018370173e-01,7.28777e-01,9.99999e-01,9.99999e-01,9.99704e-01,7.28992e-01,9.99999e-01
9.063462024e-01,7.28165e-01,9.99999e-01,9.99999e-01,9.92647e-01,7.33558e-01,9.99999e-01
9.108779334e-01,7.25432e-01,9.99999e-01,9.99999e-01,9.82887e-01,7.38061e-01,9.99999e-01
9.154323231e-01,7.39478e-01,9.99999e-01,9.99999e-01,9.95925e-01,7.42503e-01,9.99999e-01
9.200094847e-01,7.04113e-01,9.99999e-01,9.99999e-01,9.42735e-01,7.46882e-01,9.99999e-01
9.246095321e-01,6.90349e-01,9.99999e-01,9.99999e-01,9.18995e-01,7.51200e-01,9.99999e-01
9.292325798e-01,7.07385e-01,9.99999e-01,9.99999e-01,9.36366e-01,7.55457e-01,9.99999e-01
9.338787427e-01,7.12547e-01,9.99999e-01,9.99999e-01,9.37989e-01,7.59653e-01,9.99999e-01
9.385481364e-01,7.28741e-01,9.99999e-01,9.99999e-01,9.54111e-01,7.63789e-01,9.99999e-01
9.432408771e-01,7.46054e-01,9.99999e-01,9.99999e-01,9.71594e-01,7.67865e-01,9.99999e-01
9.479570815e-01,7.60586e-01,9.99999e-01,9.99999e-01,9.85364e-01,7.71882e-01,9.99999e-01
9.526968669e-01,7.70336e-01,9.99999e-01,9.99999e-01,9.92905e-01,7.75840e-01,9.99999e-01
9.574603512e-01,7.77369e-01,9.99999e-01,9.99999e-01,9.96959e-01,7.79739e-01,9.99999e-01
9.622476530e-01,7.82836e-01,9.99999e-01,9.99999e-01,9.99049e-01,7.83581e-01,9.99999e-01
9.670588912e-01,7.87140e-01,9.99999e-01,9.99999e-01,9.99714e-01,7.87364e-01,9.99999e-01
9.718941857e-01,7.91075e-01,9.99999e-01,9.99999e-01,9.99979e-01,7.91091e-01,9.99999e-01
9.767536566e-01,7.94761e-01,9.99999e-01,9.99999e-01,9.99999e-01,7.94761e-01,9.99999e-01
9.816374249e-01,7.98376e-01,9.99999e-01,9.99999e-01,9.99999e-01,7.98376e-01,9.99999e-01
9.865456120e-01,8.01935e-01,9.99999e-01,9.99999e-01,9.99999e-01,8.01935e-01,9.99999e-01
9.914783401e-01,8.05439e-01,9.99999e-01,9.99999e-01,9.99999e-01,8.05439e-01,9.99999e-01
9.964357318e-01,8.08888e-01,9.99999e-01,9.99999e-01,9.99999e-01,8.08888e-01,9.99999e-01
1.001417910e+00,8.12284e-01,9.99999e-01,9.99999e-01,9.99999e-01,8.12284e-01,9.99999e-01
1.006425000e+00,8.15627e-01,9.99999e-01,9.99999e-01,9.99999e-01,8.15627e-01,9.99999e-01
1.011457125e+00,8.18917e-01,9.99999e-01,9.99999e-01,9.99999e-01,8.18917e-01,9.99999e-01
1.016514411e+00,8.22155e-01,9.99999e-01,9.99999e-01,9.99999e-01,8.22155e-01,9.99999e-01
1.021596983e+00,8.25311e-01,9.99999e-01,9.99999e-01,9.99963e-01,8.25341e-01,9.99999e-01
1.026704968e+00,8.26108e-01,9.99999e-01,9.99999e-01,9.97141e-01,8.28476e-01,9.99999e-01
1.031838492e+00,8.02695e-01,9.99999e-01,9.99999e-01,9.65286e-01,8.31561e-01,9.99999e-01
1.036997685e+00,1.61844e-01,9.99999e-01,9.99999e-01,1.93919e-01,8.34596e-01,9.99999e-01
1.042182673e+00,1.55973e-01,9.99999e-01,9.99999e-01,1.86218e-01,8.37582e-01,9.99999e-01
1.047393587e+00,1.68068e-01,9.99999e-01,9.99999e-01,1.99956e-01,8.40520e-01,9.99999e-01
1.052630555e+00,9.41130e-03,9.99999e-01,9.99999e-01,1.11586e-02,8.43409e-01,9.99999e-01
1.057893707e+00,2.10789e-02,9.99999e-01,9.99999e-01,2.49086e-02,8.46251e-01,9.99999e-01
1.063183176e+00,5.68351e-02,9.99999e-01,9.99999e-01,6.69399e-02,8.49046e-01,9.99999e-01
1.068499092e+00,1.34335e-01,9.99999e-01,9.99999e-01,1.57708e-01,8.51795e-01,9.99999e-01
1.073841587e+00,2.65479e-01,9.99999e-01,9.99999e-01,3.10683e-01,8.54498e-01,9.99999e-01
1.079210795e+00,4.09330e-01,9.99999e-01,9.99999e-01,4.77544e-01,8.57156e-01,9.99999e-01
1.084606849e+00,5.72920e-01,9.99999e-01,9.99999e-01,6.66363e-01,8.59770e-01,9.99999e-01
1.090029883e+00,6.98805e-01,9.99999e-01,9.99999e-01,8.10358e-01,8.62339e-01,9.99999e-01
1.095480033e+00,7.79683e-01,9.99999e-01,9.99999e-01,9.01507e-01,8.64866e-01,9.99999e-01
1.100957433e+00,8.25124e-01,9.99999e-01,9.99999e-01,9.51316e-01,8.67350e-01,9.99999e-01
1.106462220e+00,8.52011e-01,9.99999e-01,9.99999e-01,9.79558e-01,8.69791e-01,9.99999e-01
1.111994531e+00,8.65542e-01,9.99999e-01,9.99999e-01,9.92376e-01,8.72191e-01,9.99999e-01
1.117554504e+00,8.72912e-01,9.99999e-01,9.99999e-01,9.98126e-01,8.74550e-01,9.99999e-01
1.123142276e+00,8.76760e-01,9.99999e-01,9.99999e-01,9.99875e-01,8.76869e-01,9.99999e-01
1.128757988e+00,8.79148e-01,9.99999e-01,9.99999e-01,9.99999e-01,8.79148e-01,9.99999e-01
1.134401778e+00,8.81387e-01,9.99999e-01,9.99999e-01,9.99999e-01,8.81387e-01,9.99999e-01
1.140073787e+00,8.83588e-01,9.99999e-01,9.99999e-01,9.99999e-01,8.83588e-01,9.99999e-01
1.145774156e+00,8.85751e-01,9.99999e-01,9.99999e-01,9.99999e-01,8.85751e-01,9.99999e-01
1.151503026e+00,8.87876e-01,9.99999e-01,9.99999e-01,9.99999e-01,8.87876e-01,9.99999e-01
1.157260541e+00,8.89964e-01,9.99999e-01,9.99999e-01,9.99999e-01,8.89964e-01,9.99999e-01
1.163046844e+00,8.92015e-01,9.99999e-01,9.99999e-01,9.99999e-01,8.92015e-01,9.99999e-01
1.168862078e+00,8.94031e-01,9.99999e-01,9.99999e-01,9.99999e-01,8.94031e-01,9.99999e-01
1.174706389e+00,8.96011e-01,9.99999e-01,9.99999e-01,9.99999e-01,8.96011e-01,9.99999e-01
1.180579921e+00,8.97957e-01,9.99999e-01,9.99999e-01,9.99999e-01,8.97957e-01,9.99999e-01
1.186482820e+00,8.99864e-01,9.99999e-01,9.99999e-01,9.99995e-01,8.99868e-01,9.99999e-01
1.192415234e+00,8.92588e-01,9.99999e-01,9.99999e-01,9.89844e-01,9.01745e-01,9.99999e-01
1.198377311e+00,5.14410e-01,9.99999e-01,9.99999e-01,5.69296e-01,9.03589e-01,9.99999e-01
1.204369197e+00,3.28755e-09,9.99999e-01,9.99999e-01,3.63104e-09,9.05400e-01,9.99999e-01
1.210391043e+00,3.76397e-32,9.99999e-01,9.99999e-01,4.14909e-32,9.07179e-01,9.99999e-01
1.216442998e+00,4.76470e-28,9.99999e-01,9.99999e-01,5.24211e-28,9.08927e-01,9.99999e-01
1.222525213e+00,1.18992e-27,9.99999e-01,9.99999e-01,1.30668e-27,9.10643e-01,9.99999e-01
1.228637839e+00,2.16095e-21,9.99999e-01,9.99999e-01,2.36861e-21,9.12328e-01,9.99999e-01
