#,Wave/freq,Total,N2,O2,CO2,Rayleigh,CIA
4.000000000e-01,1.36910e-20,9.99999e-01,9.99999e-01,9.99999e-01,1.36910e-20,9.99999e-01
4.020000000e-01,3.38221e-20,9.99999e-01,9.99999e-01,9.99999e-01,3.38221e-20,9.99999e-01
4.040100000e-01,8.19968e-20,9.99999e-01,9.99999e-01,9.99999e-01,8.19968e-20,9.99999e-01
4.060300500e-01,1.95342e-19,9.99999e-01,9.99999e-01,9.99999e-01,1.95342e-19,9.99999e-01
4.080602003e-01,4.57456e-19,9.99999e-01,9.99999e-01,9.99999e-01,4.57456e-19,9.99999e-01
4.101005013e-01,1.05342e-18,9.99999e-01,9.99999e-01,9.99999e-01,1.05342e-18,9.99999e-01
4.121510038e-01,2.38617e-18,9.99999e-01,9.99999e-01,9.99999e-01,2.38617e-18,9.99999e-01
4.142117588e-01,5.31845e-18,9.99999e-01,9.99999e-01,9.99999e-01,5.31845e-18,9.99999e-01
4.162828176e-01,1.16679e-17,9.99999e-01,9.99999e-01,9.99999e-01,1.16679e-17,9.99999e-01
4.183642317e-01,2.52036e-17,9.99999e-01,9.99999e-01,9.99999e-01,2.52036e-17,9.99999e-01
4.204560528e-01,5.36198e-17,9.99999e-01,9.99999e-01,9.99999e-01,5.36198e-17,9.99999e-01
4.225583331e-01,1.12386e-16,9.99999e-01,9.99999e-01,9.99999e-01,1.12386e-16,9.99999e-01
4.246711247e-01,2.32140e-16,9.99999e-01,9.99999e-01,9.99999e-01,2.32140e-16,9.99999e-01
4.267944804e-01,4.72677e-16,9.99999e-01,9.99999e-01,9.99999e-01,4.72677e-16,9.99999e-01
4.289284528e-01,9.49029e-16,9.99999e-01,9.99999e-01,9.99999e-01,9.49029e-16,9.99999e-01
4.310730950e-01,1.87938e-15,9.99999e-01,9.99999e-01,9.99999e-01,1.87938e-15,9.99999e-01
4.332284605e-01,3.67189e-15,9.99999e-01,9.99999e-01,9.99999e-01,3.67189e-15,9.99999e-01
4.353946028e-01,7.07977e-15,9.99999e-01,9.99999e-01,9.99999e-01,7.07977e-15,9.99999e-01
4.375715758e-01,1.34746e-14,9.99999e-01,9.99999e-01,9.99999e-01,1.34746e-14,9.99999e-01
4.397594337e-01,2.53217e-14,9.99999e-01,9.99999e-01,9.99999e-01,2.53217e-14,9.99999e-01
4.419582309e-01,4.69957e-14,9.99999e-01,9.99999e-01,9.99999e-01,4.69957e-14,9.99999e-01
4.441680220e-01,8.61624e-14,9.99999e-01,9.99999e-01,9.99999e-01,8.61624e-14,9.99999e-01
4.463888621e-01,1.56091e-13,9.99999e-01,9.99999e-01,9.99999e-01,1.56091e-13,9.99999e-01
4.486208064e-01,2.79473e-13,9.99999e-01,9.99999e-01,9.99999e-01,2.79473e-13,9.99999e-01
4.508639105e-01,4.94659e-13,9.99999e-01,9.99999e-01,9.99999e-01,4.94659e-13,9.99999e-01
4.531182300e-01,8.65713e-13,9.99999e-01,9.99999e-01,9.99999e-01,8.65713e-13,9.99999e-01
4.553838212e-01,1.49844e-12,9.99999e-01,9.99999e-01,9.99999e-01,1.49844e-12,9.99999e-01
4.576607403e-01,2.56567e-12,9.99999e-01,9.99999e-01,9.99999e-01,2.56567e-12,9.99999e-01
4.599490440e-01,4.34658e-12,9.99999e-01,9.99999e-01,9.99999e-01,4.34658e-12,9.99999e-01
4.622487892e-01,7.28740e-12,9.99999e-01,9.99999e-01,9.99999e-01,7.28740e-12,9.99999e-01
4.645600332e-01,1.20938e-11,9.99999e-01,9.99999e-01,9.99999e-01,1.20938e-11,9.99999e-01
4.668828333e-01,1.98706e-11,9.99999e-01,9.99999e-01,9.99999e-01,1.98706e-11,9.99999e-01
4.692172475e-01,3.23294e-11,9.99999e-01,9.99999e-01,9.99999e-01,3.23294e-11,9.99999e-01
4.715633337e-01,5.20966e-11,9.99999e-01,9.99999e-01,9.99999e-01,5.20966e-11,9.99999e-01
4.739211504e-01,8.31625e-11,9.99999e-01,9.99999e-01,9.99999e-01,8.31625e-11,9.99999e-01
4.762907561e-01,1.31533e-10,9.99999e-01,9.99999e-01,9.99999e-01,1.31533e-10,9.99999e-01
4.786722099e-01,2.06162e-10,9.99999e-01,9.99999e-01,9.99999e-01,2.06162e-10,9.99999e-01
4.810655710e-01,3.20277e-10,9.99999e-01,9.99999e-01,9.99999e-01,3.20277e-10,9.99999e-01
4.834708988e-01,4.93248e-10,9.99999e-01,9.99999e-01,9.99999e-01,4.93248e-10,9.99999e-01
4.858882533e-01,7.53183e-10,9.99999e-01,9.99999e-01,9.99999e-01,7.53183e-10,9.99999e-01
4.883176946e-01,1.14052e-09,9.99999e-01,9.99999e-01,9.99999e-01,1.14052e-09,9.99999e-01
4.907592831e-01,1.71297e-09,9.99999e-01,9.99999e-01,9.99999e-01,1.71297e-09,9.99999e-01
4.932130795e-01,2.55214e-09,9.99999e-01,9.99999e-01,9.99999e-01,2.55214e-09,9.99999e-01
4.956791449e-01,3.77258e-09,9.99999e-01,9.99999e-01,9.99999e-01,3.77258e-09,9.99999e-01
4.981575406e-01,5.53377e-09,9.99999e-01,9.99999e-01,9.99999e-01,5.53377e-09,9.99999e-01
5.006483283e-01,8.05595e-09,9.99999e-01,9.99999e-01,9.99999e-01,8.05595e-09,9.99999e-01
5.031515699e-01,1.16410e-08,9.99999e-01,9.99999e-01,9.99999e-01,1.16410e-08,9.99999e-01
5.056673278e-01,1.66996e-08,9.99999e-01,9.99999e-01,9.99999e-01,1.66996e-08,9.99999e-01
5.081956644e-01,2.37864e-08,9.99999e-01,9.99999e-01,9.99999e-01,2.37864e-08,9.99999e-01
5.107366428e-01,3.36445e-08,9.99999e-01,9.99999e-01,9.99999e-01,3.36445e-08,9.99999e-01
5.132903260e-01,4.72636e-08,9.99999e-01,9.99999e-01,9.99999e-01,4.72636e-08,9.99999e-01
5.158567776e-01,6.59512e-08,9.99999e-01,9.99999e-01,9.99999e-01,6.59512e-08,9.99999e-01
5.184360615e-01,9.14241e-08,9.99999e-01,9.99999e-01,9.99999e-01,9.14241e-08,9.99999e-01
5.210282418e-01,1.25921e-07,9.99999e-01,9.99999e-01,9.99999e-01,1.25921e-07,9.99999e-01
5.236333830e-01,1.72341e-07,9.99999e-01,9.99999e-01,9.99999e-01,1.72341e-07,9.99999e-01
5.262515499e-01,2.34415e-07,9.99999e-01,9.99999e-01,9.99999e-01,2.34415e-07,9.99999e-01
5.288828077e-01,3.16916e-07,9.99999e-01,9.99999e-01,9.99999e-01,3.16916e-07,9.99999e-01
5.315272217e-01,4.25909e-07,9.99999e-01,9.99999e-01,9.99999e-01,4.25909e-07,9.99999e-01
5.341848578e-01,5.69055e-07,9.99999e-01,9.99999e-01,9.99999e-01,5.69055e-07,9.99999e-01
5.368557821e-01,7.55971e-07,9.99999e-01,9.99999e-01,9.99999e-01,7.55971e-07,9.99999e-01
5.395400610e-01,9.98665e-07,9.99999e-01,9.99999e-01,9.99999e-01,9.98665e-07,9.99999e-01
5.422377613e-01,1.31204e-06,9.99999e-01,9.99999e-01,9.99999e-01,1.31204e-06,9.99999e-01
5.449489501e-01,1.71448e-06,9.99999e-01,9.99999e-01,9.99999e-01,1.71448e-06,9.99999e-01
5.476736949e-01,2.22855e-06,9.99999e-01,9.99999e-01,9.99999e-01,2.22855e-06,9.99999e-01
5.504120634e-01,2.88179e-06,9.99999e-01,9.99999e-01,9.99999e-01,2.88179e-06,9.99999e-01
5.531641237e-01,3.70764e-06,9.99999e-01,9.99999e-01,9.99999e-01,3.70764e-06,9.99999e-01
5.559299443e-01,4.74648e-06,9.99999e-01,9.99999e-01,9.99999e-01,4.74648e-06,9.99999e-01
5.587095940e-01,6.04681e-06,9.99999e-01,9.99999e-01,9.99999e-01,6.04681e-06,9.99999e-01
5.615031420e-01,7.66662e-06,9.99999e-01,9.99999e-01,9.99999e-01,7.66662e-06,9.99999e-01
5.643106577e-01,9.67488e-06,9.99999e-01,9.99999e-01,9.99999e-01,9.67488e-06,9.99999e-01
5.671322110e-01,1.21532e-05,9.99999e-01,9.99999e-01,9.99999e-01,1.21532e-05,9.99999e-01
5.699678720e-01,1.51978e-05,9.99999e-01,9.99999e-01,9.99999e-01,1.51978e-05,9.99999e-01
5.728177114e-01,1.89214e-05,9.99999e-01,9.99999e-01,9.99999e-01,1.89214e-05,9.99999e-01
5.756818000e-01,2.34555e-05,9.99999e-01,9.99999e-01,9.99999e-01,2.34555e-05,9.99999e-01
5.785602090e-01,2.89530e-05,9.99999e-01,9.99999e-01,9.99999e-01,2.89530e-05,9.99999e-01
5.814530100e-01,3.55907e-05,9.99999e-01,9.99999e-01,9.99999e-01,3.55907e-05,9.99999e-01
5.843602750e-01,4.35721e-05,9.99999e-01,9.99999e-01,9.99999e-01,4.35721e-05,9.99999e-01
5.872820764e-01,5.31307e-05,9.99999e-01,9.99999e-01,9.99999e-01,5.31307e-05,9.99999e-01
5.902184868e-01,6.45328e-05,9.99999e-01,9.99999e-01,9.99999e-01,6.45328e-05,9.99999e-01
5.931695792e-01,7.80814e-05,9.99999e-01,9.99999e-01,9.99999e-01,7.80814e-05,9.99999e-01
5.961354271e-01,9.41195e-05,9.99999e-01,9.99999e-01,9.99999e-01,9.41195e-05,9.99999e-01
5.991161043e-01,1.13034e-04,9.99999e-01,9.99999e-01,9.99999e-01,1.13034e-04,9.99999e-01
6.021116848e-01,1.35260e-04,9.99999e-01,9.99999e-01,9.99999e-01,1.35260e-04,9.99999e-01
6.051222432e-01,1.61283e-04,9.99999e-01,9.99999e-01,9.99999e-01,1.61283e-04,9.99999e-01
6.081478544e-01,1.91645e-04,9.99999e-01,9.99999e-01,9.99999e-01,1.91645e-04,9.99999e-01
6.111885937e-01,2.26948e-04,9.99999e-01,9.99999e-01,9.99999e-01,2.26948e-04,9.99999e-01
6.142445367e-01,2.67859e-04,9.99999e-01,9.99999e-01,9.99999e-01,2.67859e-04,9.99999e-01
6.173157594e-01,3.15111e-04,9.99999e-01,9.99999e-01,9.99999e-01,3.15111e-04,9.99999e-01
6.204023382e-01,3.69512e-04,9.99999e-01,9.99999e-01,9.99999e-01,3.69512e-04,9.99999e-01
6.235043498e-01,4.31942e-04,9.99999e-01,9.99999e-01,9.99999e-01,4.31942e-04,9.99999e-01
6.266218716e-01,5.03367e-04,9.99999e-01,9.99999e-01,9.99999e-01,5.03367e-04,9.99999e-01
6.297549810e-01,5.84831e-04,9.99999e-01,9.99999e-01,9.99999e-01,5.84831e-04,9.99999e-01
6.329037559e-01,6.77469e-04,9.99999e-01,9.99999e-01,9.99999e-01,6.77469e-04,9.99999e-01
6.360682746e-01,7.82506e-04,9.99999e-01,9.99999e-01,9.99999e-01,7.82506e-04,9.99999e-01
6.392486160e-01,9.01257e-04,9.99999e-01,9.99999e-01,9.99999e-01,9.01257e-04,9.99999e-01
6.424448591e-01,1.03514e-03,9.99999e-01,9.99999e-01,9.99999e-01,1.03514e-03,9.99999e-01
6.456570834e-01,1.18566e-03,9.99999e-01,9.99999e-01,9.99999e-01,1.18566e-03,9.99999e-01
6.488853688e-01,1.35443e-03,9.99999e-01,9.99999e-01,9.99999e-01,1.35443e-03,9.99999e-01
6.521297956e-01,1.54316e-03,9.99999e-01,9.99999e-01,9.99999e-01,1.54316e-03,9.99999e-01
6.553904446e-01,1.75366e-03,9.99999e-01,9.99999e-01,9.99999e-01,1.75366e-03,9.99999e-01
6.586673968e-01,1.98786e-03,9.99999e-01,9.99999e-01,9.99999e-01,1.98786e-03,9.99999e-01
6.619607338e-01,2.24775e-03,9.99999e-01,9.99999e-01,9.99999e-01,2.24775e-03,9.99999e-01
6.652705375e-01,2.53547e-03,9.99999e-01,9.99999e-01,9.99999e-01,2.53547e-03,9.99999e-01
6.685968902e-01,2.85322e-03,9.99999e-01,9.99999e-01,9.99999e-01,2.85322e-03,9.99999e-01
6.719398746e-01,3.20330e-03,9.99999e-01,9.99999e-01,9.99999e-01,3.20330e-03,9.99999e-01
6.752995740e-01,3.58814e-03,9.99999e-01,9.99999e-01,9.99999e-01,3.58814e-03,9.99999e-01
6.786760719e-01,4.01020e-03,9.99999e-01,9.99999e-01,9.99999e-01,4.01020e-03,9.99999e-01
6.820694522e-01,4.47208e-03,9.99999e-01,9.99999e-01,9.99999e-01,4.47208e-03,9.99999e-01
6.854797995e-01,4.97643e-03,9.99999e-01,9.99999e-01,9.99999e-01,4.97643e-03,9.99999e-01
6.889071985e-01,5.52598e-03,9.99999e-01,9.99999e-01,9.99999e-01,5.52598e-03,9.99999e-01
6.923517345e-01,6.12354e-03,9.99999e-01,9.99999e-01,9.99999e-01,6.12354e-03,9.99999e-01
6.958134932e-01,6.77196e-03,9.99999e-01,9.99999e-01,9.99999e-01,6.77196e-03,9.99999e-01
6.992925606e-01,7.47418e-03,9.99999e-01,9.99999e-01,9.99999e-01,7.47418e-03,9.99999e-01
7.027890234e-01,8.23314e-03,9.99999e-01,9.99999e-01,9.99999e-01,8.23314e-03,9.99999e-01
7.063029686e-01,9.05187e-03,9.99999e-01,9.99999e-01,9.99999e-01,9.05187e-03,9.99999e-01
7.098344834e-01,9.93340e-03,9.99999e-01,9.99999e-01,9.99999e-01,9.93340e-03,9.99999e-01
7.133836558e-01,1.08808e-02,9.99999e-01,9.99999e-01,9.99999e-01,1.08808e-02,9.99999e-01
7.169505741e-01,1.18971e-02,9.99999e-01,9.99999e-01,9.99999e-01,1.18971e-02,9.99999e-01
7.205353270e-01,1.29854e-02,9.99999e-01,9.99999e-01,9.99999e-01,1.29854e-02,9.99999e-01
7.241380036e-01,1.41488e-02,9.99999e-01,9.99999e-01,9.99999e-01,1.41488e-02,9.99999e-01
7.277586936e-01,1.53903e-02,9.99999e-01,9.99999e-01,9.99999e-01,1.53903e-02,9.99999e-01
7.313974871e-01,1.67130e-02,9.99999e-01,9.99999e-01,9.99999e-01,1.67130e-02,9.99999e-01
7.350544745e-01,1.81198e-02,9.99999e-01,9.99999e-01,9.99999e-01,1.81198e-02,9.99999e-01
7.387297469e-01,1.96137e-02,9.99999e-01,9.99999e-01,9.99999e-01,1.96137e-02,9.99999e-01
7.424233956e-01,2.11975e-02,9.99999e-01,9.99999e-01,9.99999e-01,2.11975e-02,9.99999e-01
7.461355126e-01,2.28742e-02,9.99999e-01,9.99999e-01,9.99999e-01,2.28742e-02,9.99999e-01
7.498661902e-01,2.46463e-02,9.99999e-01,9.99999e-01,9.99999e-01,2.46463e-02,9.99999e-01
7.536155211e-01,2.65167e-02,9.99999e-01,9.99999e-01,9.99999e-01,2.65167e-02,9.99999e-01
7.573835987e-01,2.84878e-02,9.99999e-01,9.99999e-01,9.99999e-01,2.84878e-02,9.99999e-01
7.611705167e-01,3.05621e-02,9.99999e-01,9.99999e-01,9.99999e-01,3.05621e-02,9.99999e-01
7.649763693e-01,3.27419e-02,9.99999e-01,9.99999e-01,9.99999e-01,3.27419e-02,9.99999e-01
7.688012511e-01,3.50295e-02,9.99999e-01,9.99999e-01,9.99999e-01,3.50295e-02,9.99999e-01
7.726452574e-01,3.74270e-02,9.99999e-01,9.99999e-01,9.99999e-01,3.74270e-02,9.99999e-01
7.765084837e-01,3.99364e-02,9.99999e-01,9.99999e-01,9.99999e-01,3.99364e-02,9.99999e-01
7.803910261e-01,3.79910e-02,9.99999e-01,9.99999e-01,8.92659e-01,4.25593e-02,9.99999e-01
7.842929812e-01,2.47185e-02,9.99999e-01,9.99999e-01,5.45691e-01,4.52976e-02,9.99999e-01
7.882144461e-01,2.55884e-02,9.99999e-01,9.99999e-01,5.31401e-01,4.81528e-02,9.99999e-01
7.921555184e-01,3.43330e-02,9.99999e-01,9.99999e-01,6.71535e-01,5.11261e-02,9.99999e-01
7.961162960e-01,4.12877e-02,9.99999e-01,9.99999e-01,7.61499e-01,5.42189e-02,9.99999e-01
8.000968774e-01,4.95342e-02,9.99999e-01,9.99999e-01,8.62483e-01,5.74320e-02,9.99999e-01
8.040973618e-01,5.62585e-02,9.99999e-01,9.99999e-01,9.25813e-01,6.07665e-02,9.99999e-01
8.081178486e-01,6.19929e-02,9.99999e-01,9.99999e-01,9.65277e-01,6.42228e-02,9.99999e-01
8.121584379e-01,6.70616e-02,9.99999e-01,9.99999e-01,9.89083e-01,6.78017e-02,9.99999e-01
8.162192301e-01,7.13302e-02,9.99999e-01,9.99999e-01,9.97578e-01,7.15034e-02,9.99999e-01
8.203003262e-01,7.53251e-02,9.99999e-01,9.99999e-01,9.99960e-01,7.53280e-02,9.99999e-01
8.244018279e-01,7.92755e-02,9.99999e-01,9.99999e-01,9.99999e-01,7.92755e-02,9.99999e-01
8.285238370e-01,8.33459e-02,9.99999e-01,9.99999e-01,9.99999e-01,8.33459e-02,9.99999e-01
8.326664562e-01,8.75385e-02,9.99999e-01,9.99999e-01,9.99999e-01,8.75385e-02,9.99999e-01
8.368297885e-01,9.18530e-02,9.99999e-01,9.99999e-01,9.99999e-01,9.18530e-02,9.99999e-01
8.410139374e-01,9.62886e-02,9.99999e-01,9.99999e-01,9.99999e-01,9.62886e-02,9.99999e-01
8.452190071e-01,1.00844e-01,9.99999e-01,9.99999e-01,9.99999e-01,1.00844e-01,9.99999e-01
8.494451021e-01,1.05519e-01,9.99999e-01,9.99999e-01,9.99999e-01,1.05519e-01,9.99999e-01
8.536923276e-01,1.10312e-01,9.99999e-01,9.99999e-01,9.99999e-01,1.10312e-01,9.99999e-01
8.579607893e-01,1.15222e-01,9.99999e-01,9.99999e-01,9.99999e-01,1.15222e-01,9.99999e-01
8.622505932e-01,1.20246e-01,9.99999e-01,9.99999e-01,9.99999e-01,1.20246e-01,9.99999e-01
8.665618462e-01,1.07018e-01,9.99999e-01,9.99999e-01,8.53518e-01,1.25384e-01,9.99999e-01
8.708946554e-01,3.02362e-02,9.99999e-01,9.99999e-01,2.31458e-01,1.30633e-01,9.99999e-01
8.752491287e-01,3.91650e-02,9.99999e-01,9.99999e-01,2.87994e-01,1.35992e-01,9.99999e-01
8.796253743e-01,6.98068e-02,9.99999e-01,9.99999e-01,4.93478e-01,1.41459e-01,9.99999e-01
8.840235012e-01,1.00918e-01,9.99999e-01,9.99999e-01,6.86375e-01,1.47030e-01,9.99999e-01
8.884436187e-01,1.31391e-01,9.99999e-01,9.99999e-01,8.60426e-01,1.52705e-01,9.99999e-01
8.928858368e-01,1.49094e-01,9.99999e-01,9.99999e-01,9.40777e-01,1.58480e-01,9.99999e-01
8.973502660e-01,1.61922e-01,9.99999e-01,9.99999e-01,9.85209e-01,1.64352e-01,9.99999e-01
9.018370173e-01,1.70040e-01,9.99999e-01,9.99999e-01,9.98356e-01,1.70320e-01,9.99999e-01
9.063462024e-01,1.69449e-01,9.99999e-01,9.99999e-01,9.60703e-01,1.76380e-01,9.99999e-01
9.108779334e-01,1.65838e-01,9.99999e-01,9.99999e-01,9.08549e-01,1.82530e-01,9.99999e-01
9.154323231e-01,1.84534e-01,9.99999e-01,9.99999e-01,9.77576e-01,1.88767e-01,9.99999e-01
9.200094847e-01,1.49853e-01,9.99999e-01,9.99999e-01,7.68137e-01,1.95087e-01,9.99999e-01
9.246095321e-01,1.26614e-01,9.99999e-01,9.99999e-01,6.28398e-01,2.01487e-01,9.99999e-01
9.292325798e-01,1.46192e-01,9.99999e-01,9.99999e-01,7.02963e-01,2.07965e-01,9.99999e-01
9.338787427e-01,1.51377e-01,9.99999e-01,9.99999e-01,7.05666e-01,2.14517e-01,9.99999e-01
9.385481364e-01,1.70623e-01,9.99999e-01,9.99999e-01,7.71561e-01,2.21140e-01,9.99999e-01
9.432408771e-01,1.94044e-01,9.99999e-01,9.99999e-01,8.51703e-01,2.27830e-01,9.99999e-01
9.479570815e-01,2.16045e-01,9.99999e-01,9.99999e-01,9.20964e-01,2.34585e-01,9.99999e-01
9.526968669e-01,2.32007e-01,9.99999e-01,9.99999e-01,9.61086e-01,2.41401e-01,9.99999e-01
9.574603512e-01,2.44087e-01,9.99999e-01,9.99999e-01,9.83138e-01,2.48274e-01,9.99999e-01
9.622476530e-01,2.53850e-01,9.99999e-01,9.99999e-01,9.94704e-01,2.55201e-01,9.99999e-01
9.670588912e-01,2.61762e-01,9.99999e-01,9.99999e-01,9.98408e-01,2.62179e-01,9.99999e-01
9.718941857e-01,2.69174e-01,9.99999e-01,9.99999e-01,9.99885e-01,2.69204e-01,9.99999e-01
9.767536566e-01,2.76274e-01,9.99999e-01,9.99999e-01,9.99999e-01,2.76274e-01,9.99999e-01
9.816374249e-01,2.83383e-01,9.99999e-01,9.99999e-01,9.99999e-01,2.83383e-01,9.99999e-01
9.865456120e-01,2.90530e-01,9.99999e-01,9.99999e-01,9.99999e-01,2.90530e-01,9.99999e-01
9.914783401e-01,2.97711e-01,9.99999e-01,9.99999e-01,9.99999e-01,2.97711e-01,9.99999e-01
9.964357318e-01,3.04922e-01,9.99999e-01,9.99999e-01,9.99999e-01,3.04922e-01,9.99999e-01
1.001417910e+00,3.12160e-01,9.99999e-01,9.99999e-01,9.99999e-01,3.12160e-01,9.99999e-01
1.006425000e+00,3.19422e-01,9.99999e-01,9.99999e-01,9.99999e-01,3.19422e-01,9.99999e-01
1.011457125e+00,3.26704e-01,9.99999e-01,9.99999e-01,9.99999e-01,3.26704e-01,9.99999e-01
1.016514411e+00,3.34003e-01,9.99999e-01,9.99999e-01,9.99999e-01,3.34003e-01,9.99999e-01
1.021596983e+00,3.41247e-01,9.99999e-01,9.99999e-01,9.99795e-01,3.41317e-01,9.99999e-01
1.026704968e+00,3.43135e-01,9.99999e-01,9.99999e-01,9.84206e-01,3.48642e-01,9.99999e-01
1.031838492e+00,3.15599e-01,9.99999e-01,9.99999e-01,8.86576e-01,3.55974e-01,9.99999e-01
1.036997685e+00,1.26520e-02,9.99999e-01,9.99999e-01,3.48240e-02,3.63311e-01,9.99999e-01
1.042182673e+00,2.76139e-04,9.99999e-01,9.99999e-01,7.45010e-04,3.70650e-01,9.99999e-01
1.047393587e+00,8.26933e-04,9.99999e-01,9.99999e-01,2.18772e-03,3.77988e-01,9.99999e-01
1.052630555e+00,6.30869e-09,9.99999e-01,9.99999e-01,1.63725e-08,3.85322e-01,9.99999e-01
1.057893707e+00,2.33303e-08,9.99999e-01,9.99999e-01,5.94176e-08,3.92650e-01,9.99999e-01
1.063183176e+00,2.18454e-06,9.99999e-01,9.99999e-01,5.46178e-06,3.99968e-01,9.99999e-01
1.068499092e+00,3.66434e-05,9.99999e-01,9.99999e-01,8.99724e-05,4.07273e-01,9.99999e-01
1.073841587e+00,9.44676e-04,9.99999e-01,9.99999e-01,2.27872e-03,4.14564e-01,9.99999e-01
1.079210795e+00,9.50754e-03,9.99999e-01,9.99999e-01,2.25384e-02,4.21837e-01,9.99999e-01
1.084606849e+00,4.82212e-02,9.99999e-01,9.99999e-01,1.12380e-01,4.29091e-01,9.99999e-01
1.090029883e+00,1.38253e-01,9.99999e-01,9.99999e-01,3.16860e-01,4.36322e-01,9.99999e-01
1.095480033e+00,2.50720e-01,9.99999e-01,9.99999e-01,5.65284e-01,4.43529e-01,9.99999e-01
1.100957433e+00,3.41613e-01,9.99999e-01,9.99999e-01,7.57945e-01,4.50709e-01,9.99999e-01
1.106462220e+00,4.08116e-01,9.99999e-01,9.99999e-01,8.91355e-01,4.57860e-01,9.99999e-01
1.111994531e+00,4.45535e-01,9.99999e-01,9.99999e-01,9.58180e-01,4.64980e-01,9.99999e-01
1.117554504e+00,4.67154e-01,9.99999e-01,9.99999e-01,9.89593e-01,4.72066e-01,9.99999e-01
1.123142276e+00,4.78787e-01,9.99999e-01,9.99999e-01,9.99310e-01,4.79118e-01,9.99999e-01
1.128757988e+00,4.86132e-01,9.99999e-01,9.99999e-01,9.99999e-01,4.86132e-01,9.99999e-01
1.134401778e+00,4.93107e-01,9.99999e-01,9.99999e-01,9.99999e-01,4.93107e-01,9.99999e-01
1.140073787e+00,5.00042e-01,9.99999e-01,9.99999e-01,9.99999e-01,5.00042e-01,9.99999e-01
1.145774156e+00,5.06935e-01,9.99999e-01,9.99999e-01,9.99999e-01,5.06935e-01,9.99999e-01
1.151503026e+00,5.13783e-01,9.99999e-01,9.99999e-01,9.99999e-01,5.13783e-01,9.99999e-01
1.157260541e+00,5.20586e-01,9.99999e-01,9.99999e-01,9.99999e-01,5.20586e-01,9.99999e-01
1.163046844e+00,5.27342e-01,9.99999e-01,9.99999e-01,9.99999e-01,5.27342e-01,9.99999e-01
1.168862078e+00,5.34050e-01,9.99999e-01,9.99999e-01,9.99999e-01,5.34050e-01,9.99999e-01
1.174706389e+00,5.40708e-01,9.99999e-01,9.99999e-01,9.99999e-01,5.40708e-01,9.99999e-01
1.180579921e+00,5.47315e-01,9.99999e-01,9.99999e-01,9.99999e-01,5.47315e-01,9.99999e-01
1.186482820e+00,5.53857e-01,9.99999e-01,9.99999e-01,9.99976e-01,5.53870e-01,9.99999e-01
1.192415234e+00,5.31030e-01,9.99999e-01,9.99999e-01,9.47638e-01,5.60372e-01,9.99999e-01
1.198377311e+00,2.81546e-01,9.99999e-01,9.99999e-01,4.96712e-01,5.66819e-01,9.99999e-01
1.204369197e+00,3.22243e-41,9.99999e-01,9.99999e-01,5.62170e-41,5.73211e-01,9.99999e-01
1.210391043e+00,1.13244e-169,9.99999e-01,9.99999e-01,1.95400e-169,5.79547e-01,9.99999e-01
1.216442998e+00,1.05967e-146,9.99999e-01,9.99999e-01,1.80885e-146,5.85825e-01,9.99999e-01
1.222525213e+00,1.73734e-144,9.99999e-01,9.99999e-01,2.93447e-144,5.92046e-01,9.99999e-01
1.228637839e+00,2.85145e-111,9.99999e-01,9.99999e-01,4.76665e-111,5.98207e-01,9.99999e-01
