#,Wave/freq,Total,N2,O2,CO2,Rayleigh,CIA
4.000000000e-01,8.36123e-09,9.99999e-01,9.99999e-01,9.99999e-01,8.36123e-09,9.99999e-01
4.020000000e-01,1.20778e-08,9.99999e-01,9.99999e-01,9.99999e-01,1.20778e-08,9.99999e-01
4.040100000e-01,1.73136e-08,9.99999e-01,9.99999e-01,9.99999e-01,1.73136e-08,9.99999e-01
4.060300500e-01,2.46433e-08,9.99999e-01,9.99999e-01,9.99999e-01,2.46433e-08,9.99999e-01
4.080602003e-01,3.48322e-08,9.99999e-01,9.99999e-01,9.99999e-01,3.48322e-08,9.99999e-01
4.101005013e-01,4.88985e-08,9.99999e-01,9.99999e-01,9.99999e-01,4.88985e-08,9.99999e-01
4.121510038e-01,6.81867e-08,9.99999e-01,9.99999e-01,9.99999e-01,6.81867e-08,9.99999e-01
4.142117588e-01,9.44609e-08,9.99999e-01,9.99999e-01,9.99999e-01,9.44609e-08,9.99999e-01
4.162828176e-01,1.30019e-07,9.99999e-01,9.99999e-01,9.99999e-01,1.30019e-07,9.99999e-01
4.183642317e-01,1.77838e-07,9.99999e-01,9.99999e-01,9.99999e-01,1.77838e-07,9.99999e-01
4.204560528e-01,2.41742e-07,9.99999e-01,9.99999e-01,9.99999e-01,2.41742e-07,9.99999e-01
4.225583331e-01,3.26624e-07,9.99999e-01,9.99999e-01,9.99999e-01,3.26624e-07,9.99999e-01
4.246711247e-01,4.38694e-07,9.99999e-01,9.99999e-01,9.99999e-01,4.38694e-07,9.99999e-01
4.267944804e-01,5.85793e-07,9.99999e-01,9.99999e-01,9.99999e-01,5.85793e-07,9.99999e-01
4.289284528e-01,7.77762e-07,9.99999e-01,9.99999e-01,9.99999e-01,7.77762e-07,9.99999e-01
4.310730950e-01,1.02688e-06,9.99999e-01,9.99999e-01,9.99999e-01,1.02688e-06,9.99999e-01
4.332284605e-01,1.34836e-06,9.99999e-01,9.99999e-01,9.99999e-01,1.34836e-06,9.99999e-01
4.353946028e-01,1.76099e-06,9.99999e-01,9.99999e-01,9.99999e-01,1.76099e-06,9.99999e-01
4.375715758e-01,2.28779e-06,9.99999e-01,9.99999e-01,9.99999e-01,2.28779e-06,9.99999e-01
4.397594337e-01,2.95687e-06,9.99999e-01,9.99999e-01,9.99999e-01,2.95687e-06,9.99999e-01
4.419582309e-01,3.80230e-06,9.99999e-01,9.99999e-01,9.99999e-01,3.80230e-06,9.99999e-01
4.441680220e-01,4.86524e-06,9.99999e-01,9.99999e-01,9.99999e-01,4.86524e-06,9.99999e-01
4.463888621e-01,6.19508e-06,9.99999e-01,9.99999e-01,9.99999e-01,6.19508e-06,9.99999e-01
4.486208064e-01,7.85086e-06,9.99999e-01,9.99999e-01,9.99999e-01,7.85086e-06,9.99999e-01
4.508639105e-01,9.90273e-06,9.99999e-01,9.99999e-01,9.99999e-01,9.90273e-06,9.99999e-01
4.531182300e-01,1.24337e-05,9.99999e-01,9.99999e-01,9.99999e-01,1.24337e-05,9.99999e-01
4.553838212e-01,1.55416e-05,9.99999e-01,9.99999e-01,9.99999e-01,1.55416e-05,9.99999e-01
4.576607403e-01,1.93408e-05,9.99999e-01,9.99999e-01,9.99999e-01,1.93408e-05,9.99999e-01
4.599490440e-01,2.39651e-05,9.99999e-01,9.99999e-01,9.99999e-01,2.39651e-05,9.99999e-01
4.622487892e-01,2.95695e-05,9.99999e-01,9.99999e-01,9.99999e-01,2.95695e-05,9.99999e-01
4.645600332e-01,3.63334e-05,9.99999e-01,9.99999e-01,9.99999e-01,3.63334e-05,9.99999e-01
4.668828333e-01,4.44632e-05,9.99999e-01,9.99999e-01,9.99999e-01,4.44632e-05,9.99999e-01
4.692172475e-01,5.41955e-05,9.99999e-01,9.99999e-01,9.99999e-01,5.41955e-05,9.99999e-01
4.715633337e-01,6.58003e-05,9.99999e-01,9.99999e-01,9.99999e-01,6.58003e-05,9.99999e-01
4.739211504e-01,7.95845e-05,9.99999e-01,9.99999e-01,9.99999e-01,7.95845e-05,9.99999e-01
4.762907561e-01,9.58953e-05,9.99999e-01,9.99999e-01,9.99999e-01,9.58953e-05,9.99999e-01
4.786722099e-01,1.15124e-04,9.99999e-01,9.99999e-01,9.99999e-01,1.15124e-04,9.99999e-01
4.810655710e-01,1.37711e-04,9.99999e-01,9.99999e-01,9.99999e-01,1.37711e-04,9.99999e-01
4.834708988e-01,1.64147e-04,9.99999e-01,9.99999e-01,9.99999e-01,1.64147e-04,9.99999e-01
4.858882533e-01,1.94981e-04,9.99999e-01,9.99999e-01,9.99999e-01,1.94981e-04,9.99999e-01
4.883176946e-01,2.30820e-04,9.99999e-01,9.99999e-01,9.99999e-01,2.30820e-04,9.99999e-01
4.907592831e-01,2.72338e-04,9.99999e-01,9.99999e-01,9.99999e-01,2.72338e-04,9.99999e-01
4.932130795e-01,3.20275e-04,9.99999e-01,9.99999e-01,9.99999e-01,3.20275e-04,9.99999e-01
4.956791449e-01,3.75446e-04,9.99999e-01,9.99999e-01,9.99999e-01,3.75446e-04,9.99999e-01
4.981575406e-01,4.38742e-04,9.99999e-01,9.99999e-01,9.99999e-01,4.38742e-04,9.99999e-01
5.006483283e-01,5.11133e-04,9.99999e-01,9.99999e-01,9.99999e-01,5.11133e-04,9.99999e-01
5.031515699e-01,5.93675e-04,9.99999e-01,9.99999e-01,9.99999e-01,5.93675e-04,9.99999e-01
5.056673278e-01,6.87510e-04,9.99999e-01,9.99999e-01,9.99999e-01,6.87510e-04,9.99999e-01
5.081956644e-01,7.93872e-04,9.99999e-01,9.99999e-01,9.99999e-01,7.93872e-04,9.99999e-01
5.107366428e-01,9.14088e-04,9.99999e-01,9.99999e-01,9.99999e-01,9.14088e-04,9.99999e-01
5.132903260e-01,1.04958e-03,9.99999e-01,9.99999e-01,9.99999e-01,1.04958e-03,9.99999e-01
5.158567776e-01,1.20187e-03,9.99999e-01,9.99999e-01,9.99999e-01,1.20187e-03,9.99999e-01
5.184360615e-01,1.37258e-03,9.99999e-01,9.99999e-01,9.99999e-01,1.37258e-03,9.99999e-01
5.210282418e-01,1.56343e-03,9.99999e-01,9.99999e-01,9.99999e-01,1.56343e-03,9.99999e-01
5.236333830e-01,1.77625e-03,9.99999e-01,9.99999e-01,9.99999e-01,1.77625e-03,9.99999e-01
5.262515499e-01,2.01295e-03,9.99999e-01,9.99999e-01,9.99999e-01,2.01295e-03,9.99999e-01
5.288828077e-01,2.27556e-03,9.99999e-01,9.99999e-01,9.99999e-01,2.27556e-03,9.99999e-01
5.315272217e-01,2.56621e-03,9.99999e-01,9.99999e-01,9.99999e-01,2.56621e-03,9.99999e-01
5.341848578e-01,2.88712e-03,9.99999e-01,9.99999e-01,9.99999e-01,2.88712e-03,9.99999e-01
5.368557821e-01,3.24061e-03,9.99999e-01,9.99999e-01,9.99999e-01,3.24061e-03,9.99999e-01
5.395400610e-01,3.62910e-03,9.99999e-01,9.99999e-01,9.99999e-01,3.62910e-03,9.99999e-01
5.422377613e-01,4.05507e-03,9.99999e-01,9.99999e-01,9.99999e-01,4.05507e-03,9.99999e-01
5.449489501e-01,4.52112e-03,9.99999e-01,9.99999e-01,9.99999e-01,4.52112e-03,9.99999e-01
5.476736949e-01,5.02992e-03,9.99999e-01,9.99999e-01,9.99999e-01,5.02992e-03,9.99999e-01
5.504120634e-01,5.58420e-03,9.99999e-01,9.99999e-01,9.99999e-01,5.58420e-03,9.99999e-01
5.531641237e-01,6.18677e-03,9.99999e-01,9.99999e-01,9.99999e-01,6.18677e-03,9.99999e-01
5.559299443e-01,6.84050e-03,9.99999e-01,9.99999e-01,9.99999e-01,6.84050e-03,9.99999e-01
5.587095940e-01,7.54832e-03,9.99999e-01,9.99999e-01,9.99999e-01,7.54832e-03,9.99999e-01
5.615031420e-01,8.31320e-03,9.99999e-01,9.99999e-01,9.99999e-01,8.31320e-03,9.99999e-01
5.643106577e-01,9.13814e-03,9.99999e-01,9.99999e-01,9.99999e-01,9.13814e-03,9.99999e-01
5.671322110e-01,1.00262e-02,9.99999e-01,9.99999e-01,9.99999e-01,1.00262e-02,9.99999e-01
5.699678720e-01,1.09804e-02,9.99999e-01,9.99999e-01,9.99999e-01,1.09804e-02,9.99999e-01
5.728177114e-01,1.20039e-02,9.99999e-01,9.99999e-01,9.99999e-01,1.20039e-02,9.99999e-01
5.756818000e-01,1.30996e-02,9.99999e-01,9.99999e-01,9.99999e-01,1.30996e-02,9.99999e-01
5.785602090e-01,1.42708e-02,9.99999e-01,9.99999e-01,9.99999e-01,1.42708e-02,9.99999e-01
5.814530100e-01,1.55204e-02,9.99999e-01,9.99999e-01,9.99999e-01,1.55204e-02,9.99999e-01
5.843602750e-01,1.68514e-02,9.99999e-01,9.99999e-01,9.99999e-01,1.68514e-02,9.99999e-01
5.872820764e-01,1.82669e-02,9.99999e-01,9.99999e-01,9.99999e-01,1.82669e-02,9.99999e-01
5.902184868e-01,1.97698e-02,9.99999e-01,9.99999e-01,9.99999e-01,1.97698e-02,9.99999e-01
5.931695792e-01,2.13629e-02,9.99999e-01,9.99999e-01,9.99999e-01,2.13629e-02,9.99999e-01
5.961354271e-01,2.30490e-02,9.99999e-01,9.99999e-01,9.99999e-01,2.30490e-02,9.99999e-01
5.991161043e-01,2.48310e-02,9.99999e-01,9.99999e-01,9.99999e-01,2.48310e-02,9.99999e-01
6.021116848e-01,2.67114e-02,9.99999e-01,9.99999e-01,9.99999e-01,2.67114e-02,9.99999e-01
6.051222432e-01,2.86929e-02,9.99999e-01,9.99999e-01,9.99999e-01,2.86929e-02,9.99999e-01
6.081478544e-01,3.07777e-02,9.99999e-01,9.99999e-01,9.99999e-01,3.07777e-02,9.99999e-01
6.111885937e-01,3.29684e-02,9.99999e-01,9.99999e-01,9.99999e-01,3.29684e-02,9.99999e-01
6.142445367e-01,3.52670e-02,9.99999e-01,9.99999e-01,9.99999e-01,3.52670e-02,9.99999e-01
6.173157594e-01,3.76758e-02,9.99999e-01,9.99999e-01,9.99999e-01,3.76758e-02,9.99999e-01
6.204023382e-01,4.01965e-02,9.99999e-01,9.99999e-01,9.99999e-01,4.01965e-02,9.99999e-01
6.235043498e-01,4.28311e-02,9.99999e-01,9.99999e-01,9.99999e-01,4.28311e-02,9.99999e-01
6.266218716e-01,4.55811e-02,9.99999e-01,9.99999e-01,9.99999e-01,4.55811e-02,9.99999e-01
6.297549810e-01,4.84482e-02,9.99999e-01,9.99999e-01,9.99999e-01,4.84482e-02,9.99999e-01
6.329037559e-01,5.14335e-02,9.99999e-01,9.99999e-01,9.99999e-01,5.14335e-02,9.99999e-01
6.360682746e-01,5.45384e-02,9.99999e-01,9.99999e-01,9.99999e-01,5.45384e-02,9.99999e-01
6.392486160e-01,5.77638e-02,9.99999e-01,9.99999e-01,9.99999e-01,5.77638e-02,9.99999e-01
6.424448591e-01,6.11105e-02,9.99999e-01,9.99999e-01,9.99999e-01,6.11105e-02,9.99999e-01
6.456570834e-01,6.45793e-02,9.99999e-01,9.99999e-01,9.99999e-01,6.45793e-02,9.99999e-01
6.488853688e-01,6.81706e-02,9.99999e-01,9.99999e-01,9.99999e-01,6.81706e-02,9.99999e-01
6.521297956e-01,7.18847e-02,9.99999e-01,9.99999e-01,9.99999e-01,7.18847e-02,9.99999e-01
6.553904446e-01,7.57217e-02,9.99999e-01,9.99999e-01,9.99999e-01,7.57217e-02,9.99999e-01
6.586673968e-01,7.96817e-02,9.99999e-01,9.99999e-01,9.99999e-01,7.96817e-02,9.99999e-01
6.619607338e-01,8.37644e-02,9.99999e-01,9.99999e-01,9.99999e-01,8.37644e-02,9.99999e-01
6.652705375e-01,8.79694e-02,9.99999e-01,9.99999e-01,9.99999e-01,8.79694e-02,9.99999e-01
6.685968902e-01,9.22962e-02,9.99999e-01,9.99999e-01,9.99999e-01,9.22962e-02,9.99999e-01
6.719398746e-01,9.67440e-02,9.99999e-01,9.99999e-01,9.99999e-01,9.67440e-02,9.99999e-01
6.752995740e-01,1.01312e-01,9.99999e-01,9.99999e-01,9.99999e-01,1.01312e-01,9.99999e-01
6.786760719e-01,1.05999e-01,9.99999e-01,9.99999e-01,9.99999e-01,1.05999e-01,9.99999e-01
6.820694522e-01,1.10804e-01,9.99999e-01,9.99999e-01,9.99999e-01,1.10804e-01,9.99999e-01
6.854797995e-01,1.15725e-01,9.99999e-01,9.99999e-01,9.99999e-01,1.15725e-01,9.99999e-01
6.889071985e-01,1.20761e-01,9.99999e-01,9.99999e-01,9.99999e-01,1.20761e-01,9.99999e-01
6.923517345e-01,1.25910e-01,9.99999e-01,9.99999e-01,9.99999e-01,1.25910e-01,9.99999e-01
6.958134932e-01,1.31171e-01,9.99999e-01,9.99999e-01,9.99999e-01,1.31171e-01,9.99999e-01
6.992925606e-01,1.36540e-01,9.99999e-01,9.99999e-01,9.99999e-01,1.36540e-01,9.99999e-01
7.027890234e-01,1.42017e-01,9.99999e-01,9.99999e-01,9.99999e-01,1.42017e-01,9.99999e-01
7.063029686e-01,1.47600e-01,9.99999e-01,9.99999e-01,9.99999e-01,1.47600e-01,9.99999e-01
7.098344834e-01,1.53284e-01,9.99999e-01,9.99999e-01,9.99999e-01,1.53284e-01,9.99999e-01
7.133836558e-01,1.59069e-01,9.99999e-01,9.99999e-01,9.99999e-01,1.59069e-01,9.99999e-01
7.169505741e-01,1.64952e-01,9.99999e-01,9.99999e-01,9.99999e-01,1.64952e-01,9.99999e-01
7.205353270e-01,1.70929e-01,9.99999e-01,9.99999e-01,9.99999e-01,1.70929e-01,9.99999e-01
7.241380036e-01,1.76999e-01,9.99999e-01,9.99999e-01,9.99999e-01,1.76999e-01,9.99999e-01
7.277586936e-01,1.83157e-01,9.99999e-01,9.99999e-01,9.99999e-01,1.83157e-01,9.99999e-01
7.313974871e-01,1.89402e-01,9.99999e-01,9.99999e-01,9.99999e-01,1.89402e-01,9.99999e-01
7.350544745e-01,1.95731e-01,9.99999e-01,9.99999e-01,9.99999e-01,1.95731e-01,9.99999e-01
7.387297469e-01,2.02139e-01,9.99999e-01,9.99999e-01,9.99999e-01,2.02139e-01,9.99999e-01
7.424233956e-01,2.08624e-01,9.99999e-01,9.99999e-01,9.99999e-01,2.08624e-01,9.99999e-01
7.461355126e-01,2.15184e-01,9.99999e-01,9.99999e-01,9.99999e-01,2.15184e-01,9.99999e-01
7.498661902e-01,2.21814e-01,9.99999e-01,9.99999e-01,9.99999e-01,2.21814e-01,9.99999e-01
7.536155211e-01,2.28511e-01,9.99999e-01,9.99999e-01,9.99999e-01,2.28511e-01,9.99999e-01
7.573835987e-01,2.35272e-01,9.99999e-01,9.99999e-01,9.99999e-01,2.35272e-01,9.99999e-01
7.611705167e-01,2.42093e-01,9.99999e-01,9.99999e-01,9.99999e-01,2.42093e-01,9.99999e-01
7.649763693e-01,2.48972e-01,9.99999e-01,9.99999e-01,9.99999e-01,2.48972e-01,9.99999e-01
7.688012511e-01,2.55905e-01,9.99999e-01,9.99999e-01,9.99999e-01,2.55905e-01,9.99999e-01
7.726452574e-01,2.62888e-01,9.99999e-01,9.99999e-01,9.99999e-01,2.62888e-01,9.99999e-01
7.765084837e-01,2.69917e-01,9.99999e-01,9.99999e-01,9.99999e-01,2.69917e-01,9.99999e-01
7.803910261e-01,2.61286e-01,9.99999e-01,9.99999e-01,9.43300e-01,2.76991e-01,9.99999e-01
7.842929812e-01,2.19112e-01,9.99999e-01,9.99999e-01,7.71237e-01,2.84105e-01,9.99999e-01
7.882144461e-01,2.20547e-01,9.99999e-01,9.99999e-01,7.57230e-01,2.91255e-01,9.99999e-01
7.921555184e-01,2.52876e-01,9.99999e-01,9.99999e-01,8.47327e-01,2.98439e-01,9.99999e-01
7.961162960e-01,2.73611e-01,9.99999e-01,9.99999e-01,8.95170e-01,3.05653e-01,9.99999e-01
8.000968774e-01,2.94629e-01,9.99999e-01,9.99999e-01,9.41627e-01,3.12893e-01,9.99999e-01
8.040973618e-01,3.10361e-01,9.99999e-01,9.99999e-01,9.69400e-01,3.20157e-01,9.99999e-01
8.081178486e-01,3.22788e-01,9.99999e-01,9.99999e-01,9.85788e-01,3.27441e-01,9.99999e-01
8.121584379e-01,3.33278e-01,9.99999e-01,9.99999e-01,9.95623e-01,3.34743e-01,9.99999e-01
8.162192301e-01,3.41726e-01,9.99999e-01,9.99999e-01,9.99031e-01,3.42058e-01,9.99999e-01
8.203003262e-01,3.49378e-01,9.99999e-01,9.99999e-01,9.99986e-01,3.49383e-01,9.99999e-01
8.244018279e-01,3.56716e-01,9.99999e-01,9.99999e-01,9.99999e-01,3.56716e-01,9.99999e-01
8.285238370e-01,3.64054e-01,9.99999e-01,9.99999e-01,9.99999e-01,3.64054e-01,9.99999e-01
8.326664562e-01,3.71393e-01,9.99999e-01,9.99999e-01,9.99999e-01,3.71393e-01,9.99999e-01
8.368297885e-01,3.78731e-01,9.99999e-01,9.99999e-01,9.99999e-01,3.78731e-01,9.99999e-01
8.410139374e-01,3.86064e-01,9.99999e-01,9.99999e-01,9.99999e-01,3.86064e-01,9.99999e-01
8.452190071e-01,3.93390e-01,9.99999e-01,9.99999e-01,9.99999e-01,3.93390e-01,9.99999e-01
8.494451021e-01,4.00707e-01,9.99999e-01,9.99999e-01,9.99999e-01,4.00707e-01,9.99999e-01
8.536923276e-01,4.08011e-01,9.99999e-01,9.99999e-01,9.99999e-01,4.08011e-01,9.99999e-01
8.579607893e-01,4.15300e-01,9.99999e-01,9.99999e-01,9.99999e-01,4.15300e-01,9.99999e-01
8.622505932e-01,4.22572e-01,9.99999e-01,9.99999e-01,9.99999e-01,4.22572e-01,9.99999e-01
8.665618462e-01,3.85093e-01,9.99999e-01,9.99999e-01,8.95932e-01,4.29823e-01,9.99999e-01
8.708946554e-01,2.27525e-01,9.99999e-01,9.99999e-01,5.20590e-01,4.37052e-01,9.99999e-01
8.752491287e-01,2.61057e-01,9.99999e-01,9.99999e-01,5.87625e-01,4.44257e-01,9.99999e-01
8.796253743e-01,3.36050e-01,9.99999e-01,9.99999e-01,7.44406e-01,4.51434e-01,9.99999e-01
8.840235012e-01,3.93072e-01,9.99999e-01,9.99999e-01,8.57146e-01,4.58582e-01,9.99999e-01
8.884436187e-01,4.38282e-01,9.99999e-01,9.99999e-01,9.41127e-01,4.65698e-01,9.99999e-01
8.928858368e-01,4.61272e-01,9.99999e-01,9.99999e-01,9.75656e-01,4.72781e-01,9.99999e-01
8.973502660e-01,4.76979e-01,9.99999e-01,9.99999e-01,9.94059e-01,4.79829e-01,9.99999e-01
9.018370173e-01,4.86521e-01,9.99999e-01,9.99999e-01,9.99344e-01,4.86839e-01,9.99999e-01
9.063462024e-01,4.85408e-01,9.99999e-01,9.99999e-01,9.82983e-01,4.93811e-01,9.99999e-01
9.108779334e-01,4.81617e-01,9.99999e-01,9.99999e-01,9.61807e-01,5.00741e-01,9.99999e-01
9.154323231e-01,5.03048e-01,9.99999e-01,9.99999e-01,9.90973e-01,5.07630e-01,9.99999e-01
9.200094847e-01,4.52604e-01,9.99999e-01,9.99999e-01,8.79741e-01,5.14474e-01,9.99999e-01
9.246095321e-01,4.30926e-01,9.99999e-01,9.99999e-01,8.26681e-01,5.21272e-01,9.99999e-01
9.292325798e-01,4.54805e-01,9.99999e-01,9.99999e-01,8.61335e-01,5.28023e-01,9.99999e-01
9.338787427e-01,4.63062e-01,9.99999e-01,9.99999e-01,8.65979e-01,5.34726e-01,9.99999e-01
9.385481364e-01,4.86881e-01,9.99999e-01,9.99999e-01,8.99334e-01,5.41379e-01,9.99999e-01
9.432408771e-01,5.13522e-01,9.99999e-01,9.99999e-01,9.37115e-01,5.47981e-01,9.99999e-01
9.479570815e-01,5.36324e-01,9.99999e-01,9.99999e-01,9.67167e-01,5.54530e-01,9.99999e-01
9.526968669e-01,5.52087e-01,9.99999e-01,9.99999e-01,9.84065e-01,5.61027e-01,9.99999e-01
9.574603512e-01,5.63586e-01,9.99999e-01,9.99999e-01,9.93158e-01,5.67468e-01,9.99999e-01
9.622476530e-01,5.72629e-01,9.99999e-01,9.99999e-01,9.97862e-01,5.73855e-01,9.99999e-01
9.670588912e-01,5.79814e-01,9.99999e-01,9.99999e-01,9.99360e-01,5.80185e-01,9.99999e-01
9.718941857e-01,5.86431e-01,9.99999e-01,9.99999e-01,9.99955e-01,5.86457e-01,9.99999e-01
9.767536566e-01,5.92672e-01,9.99999e-01,9.99999e-01,9.99999e-01,5.92672e-01,9.99999e-01
9.816374249e-01,5.98828e-01,9.99999e-01,9.99999e-01,9.99999e-01,5.98828e-01,9.99999e-01
9.865456120e-01,6.04924e-01,9.99999e-01,9.99999e-01,9.99999e-01,6.04924e-01,9.99999e-01
9.914783401e-01,6.10960e-01,9.99999e-01,9.99999e-01,9.99999e-01,6.10960e-01,9.99999e-01
9.964357318e-01,6.16935e-01,9.99999e-01,9.99999e-01,9.99999e-01,6.16935e-01,9.99999e-01
1.001417910e+00,6.22849e-01,9.99999e-01,9.99999e-01,9.99999e-01,6.22849e-01,9.99999e-01
1.006425000e+00,6.28701e-01,9.99999e-01,9.99999e-01,9.99999e-01,6.28701e-01,9.99999e-01
1.011457125e+00,6.34491e-01,9.99999e-01,9.99999e-01,9.99999e-01,6.34491e-01,9.99999e-01
1.016514411e+00,6.40218e-01,9.99999e-01,9.99999e-01,9.99999e-01,6.40218e-01,9.99999e-01
1.021596983e+00,6.45818e-01,9.99999e-01,9.99999e-01,9.99899e-01,6.45882e-01,9.99999e-01
1.026704968e+00,6.47107e-01,9.99999e-01,9.99999e-01,9.93282e-01,6.51483e-01,9.99999e-01
1.031838492e+00,6.12361e-01,9.99999e-01,9.99999e-01,9.32026e-01,6.57021e-01,9.99999e-01
1.036997685e+00,5.91238e-02,9.99999e-01,9.99999e-01,8.92441e-02,6.62495e-01,9.99999e-01
1.042182673e+00,1.98234e-02,9.99999e-01,9.99999e-01,2.96800e-02,6.67905e-01,9.99999e-01
1.047393587e+00,3.29558e-02,9.99999e-01,9.99999e-01,4.89502e-02,6.73251e-01,9.99999e-01
1.052630555e+00,1.07758e-04,9.99999e-01,9.99999e-01,1.58810e-04,6.78533e-01,9.99999e-01
1.057893707e+00,3.64711e-04,9.99999e-01,9.99999e-01,5.33398e-04,6.83750e-01,9.99999e-01
1.063183176e+00,2.51044e-03,9.99999e-01,9.99999e-01,3.64410e-03,6.88904e-01,9.99999e-01
1.068499092e+00,1.19652e-02,9.99999e-01,9.99999e-01,1.72411e-02,6.93994e-01,9.99999e-01
1.073841587e+00,5.30284e-02,9.99999e-01,9.99999e-01,7.58610e-02,6.99019e-01,9.99999e-01
1.079210795e+00,1.37756e-01,9.99999e-01,9.99999e-01,1.95681e-01,7.03981e-01,9.99999e-01
1.084606849e+00,2.85904e-01,9.99999e-01,9.99999e-01,4.03318e-01,7.08879e-01,9.99999e-01
1.090029883e+00,4.44494e-01,9.99999e-01,9.99999e-01,6.22790e-01,7.13713e-01,9.99999e-01
1.095480033e+00,5.68912e-01,9.99999e-01,9.99999e-01,7.91822e-01,7.18483e-01,9.99999e-01
1.100957433e+00,6.46104e-01,9.99999e-01,9.99999e-01,8.93406e-01,7.23191e-01,9.99999e-01
1.106462220e+00,6.94709e-01,9.99999e-01,9.99999e-01,9.54485e-01,7.27835e-01,9.99999e-01
1.111994531e+00,7.19874e-01,9.99999e-01,9.99999e-01,9.82874e-01,7.32417e-01,9.99999e-01
1.117554504e+00,7.33847e-01,9.99999e-01,9.99999e-01,9.95809e-01,7.36935e-01,9.99999e-01
1.123142276e+00,7.41189e-01,9.99999e-01,9.99999e-01,9.99725e-01,7.41392e-01,9.99999e-01
1.128757988e+00,7.45787e-01,9.99999e-01,9.99999e-01,9.99999e-01,7.45787e-01,9.99999e-01
1.134401778e+00,7.50121e-01,9.99999e-01,9.99999e-01,9.99999e-01,7.50121e-01,9.99999e-01
1.140073787e+00,7.54393e-01,9.99999e-01,9.99999e-01,9.99999e-01,7.54393e-01,9.99999e-01
1.145774156e+00,7.58604e-01,9.99999e-01,9.99999e-01,9.99999e-01,7.58604e-01,9.99999e-01
1.151503026e+00,7.62755e-01,9.99999e-01,9.99999e-01,9.99999e-01,7.62755e-01,9.99999e-01
1.157260541e+00,7.66847e-01,9.99999e-01,9.99999e-01,9.99999e-01,7.66847e-01,9.99999e-01
1.163046844e+00,7.70878e-01,9.99999e-01,9.99999e-01,9.99999e-01,7.70878e-01,9.99999e-01
1.168862078e+00,7.74851e-01,9.99999e-01,9.99999e-01,9.99999e-01,7.74851e-01,9.99999e-01
1.174706389e+00,7.78765e-01,9.99999e-01,9.99999e-01,9.99999e-01,7.78765e-01,9.99999e-01
1.180579921e+00,7.82621e-01,9.99999e-01,9.99999e-01,9.99999e-01,7.82621e-01,9.99999e-01
1.186482820e+00,7.86407e-01,9.99999e-01,9.99999e-01,9.99984e-01,7.86419e-01,9.99999e-01
1.192415234e+00,7.71541e-01,9.99999e-01,9.99999e-01,9.76436e-01,7.90160e-01,9.99999e-01
1.198377311e+00,4.31245e-01,9.99999e-01,9.99999e-01,5.43236e-01,7.93844e-01,9.99999e-01
1.204369197e+00,4.19726e-18,9.99999e-01,9.99999e-01,5.26320e-18,7.97473e-01,9.99999e-01
1.210391043e+00,2.32412e-70,9.99999e-01,9.99999e-01,2.90136e-70,8.01045e-01,9.99999e-01
1.216442998e+00,5.13771e-61,9.99999e-01,9.99999e-01,6.38571e-61,8.04563e-01,9.99999e-01
1.222525213e+00,4.09376e-60,9.99999e-01,9.99999e-01,5.06636e-60,8.08026e-01,9.99999e-01
1.228637839e+00,1.63711e-46,9.99999e-01,9.99999e-01,2.01754e-46,8.11436e-01,9.99999e-01
