#,Wave/freq,Total,N2,O2,CO2,Rayleigh,CIA
4.000000000e-01,5.37746e-07,9.99999e-01,9.99999e-01,9.99999e-01,5.37746e-07,9.99999e-01
4.020000000e-01,7.15389e-07,9.99999e-01,9.99999e-01,9.99999e-01,7.15389e-07,9.99999e-01
4.040100000e-01,9.46085e-07,9.99999e-01,9.99999e-01,9.99999e-01,9.46085e-07,9.99999e-01
4.060300500e-01,1.24429e-06,9.99999e-01,9.99999e-01,9.99999e-01,1.24429e-06,9.99999e-01
4.080602003e-01,1.62765e-06,9.99999e-01,9.99999e-01,9.99999e-01,1.62765e-06,9.99999e-01
4.101005013e-01,2.11786e-06,9.99999e-01,9.99999e-01,9.99999e-01,2.11786e-06,9.99999e-01
4.121510038e-01,2.74141e-06,9.99999e-01,9.99999e-01,9.99999e-01,2.74141e-06,9.99999e-01
4.142117588e-01,3.53051e-06,9.99999e-01,9.99999e-01,9.99999e-01,3.53051e-06,9.99999e-01
4.162828176e-01,4.52409e-06,9.99999e-01,9.99999e-01,9.99999e-01,4.52409e-06,9.99999e-01
4.183642317e-01,5.76897e-06,9.99999e-01,9.99999e-01,9.99999e-01,5.76897e-06,9.99999e-01
4.204560528e-01,7.32115e-06,9.99999e-01,9.99999e-01,9.99999e-01,7.32115e-06,9.99999e-01
4.225583331e-01,9.24733e-06,9.99999e-01,9.99999e-01,9.99999e-01,9.24733e-06,9.99999e-01
4.246711247e-01,1.16265e-05,9.99999e-01,9.99999e-01,9.99999e-01,1.16265e-05,9.99999e-01
4.267944804e-01,1.45519e-05,9.99999e-01,9.99999e-01,9.99999e-01,1.45519e-05,9.99999e-01
4.289284528e-01,1.81328e-05,9.99999e-01,9.99999e-01,9.99999e-01,1.81328e-05,9.99999e-01
4.310730950e-01,2.24968e-05,9.99999e-01,9.99999e-01,9.99999e-01,2.24968e-05,9.99999e-01
4.332284605e-01,2.77925e-05,9.99999e-01,9.99999e-01,9.99999e-01,2.77925e-05,9.99999e-01
4.353946028e-01,3.41918e-05,9.99999e-01,9.99999e-01,9.99999e-01,3.41918e-05,9.99999e-01
4.375715758e-01,4.18927e-05,9.99999e-01,9.99999e-01,9.99999e-01,4.18927e-05,9.99999e-01
4.397594337e-01,5.11224e-05,9.99999e-01,9.99999e-01,9.99999e-01,5.11224e-05,9.99999e-01
4.419582309e-01,6.21409e-05,9.99999e-01,9.99999e-01,9.99999e-01,6.21409e-05,9.99999e-01
4.441680220e-01,7.52434e-05,9.99999e-01,9.99999e-01,9.99999e-01,7.52434e-05,9.99999e-01
4.463888621e-01,9.07650e-05,9.99999e-01,9.99999e-01,9.99999e-01,9.07650e-05,9.99999e-01
4.486208064e-01,1.09084e-04,9.99999e-01,9.99999e-01,9.99999e-01,1.09084e-04,9.99999e-01
4.508639105e-01,1.30624e-04,9.99999e-01,9.99999e-01,9.99999e-01,1.30624e-04,9.99999e-01
4.531182300e-01,1.55863e-04,9.99999e-01,9.99999e-01,9.99999e-01,1.55863e-04,9.99999e-01
4.553838212e-01,1.85329e-04,9.99999e-01,9.99999e-01,9.99999e-01,1.85329e-04,9.99999e-01
4.576607403e-01,2.19615e-04,9.99999e-01,9.99999e-01,9.99999e-01,2.19615e-04,9.99999e-01
4.599490440e-01,2.59372e-04,9.99999e-01,9.99999e-01,9.99999e-01,2.59372e-04,9.99999e-01
4.622487892e-01,3.05321e-04,9.99999e-01,9.99999e-01,9.99999e-01,3.05321e-04,9.99999e-01
4.645600332e-01,3.58255e-04,9.99999e-01,9.99999e-01,9.99999e-01,3.58255e-04,9.99999e-01
4.668828333e-01,4.19039e-04,9.99999e-01,9.99999e-01,9.99999e-01,4.19039e-04,9.99999e-01
4.692172475e-01,4.88623e-04,9.99999e-01,9.99999e-01,9.99999e-01,4.88623e-04,9.99999e-01
4.715633337e-01,5.68035e-04,9.99999e-01,9.99999e-01,9.99999e-01,5.68035e-04,9.99999e-01
4.739211504e-01,6.58391e-04,9.99999e-01,9.99999e-01,9.99999e-01,6.58391e-04,9.99999e-01
4.762907561e-01,7.60898e-04,9.99999e-01,9.99999e-01,9.99999e-01,7.60898e-04,9.99999e-01
4.786722099e-01,8.76856e-04,9.99999e-01,9.99999e-01,9.99999e-01,8.76856e-04,9.99999e-01
4.810655710e-01,1.00766e-03,9.99999e-01,9.99999e-01,9.99999e-01,1.00766e-03,9.99999e-01
4.834708988e-01,1.15480e-03,9.99999e-01,9.99999e-01,9.99999e-01,1.15480e-03,9.99999e-01
4.858882533e-01,1.31986e-03,9.99999e-01,9.99999e-01,9.99999e-01,1.31986e-03,9.99999e-01
4.883176946e-01,1.50454e-03,9.99999e-01,9.99999e-01,9.99999e-01,1.50454e-03,9.99999e-01
4.907592831e-01,1.71064e-03,9.99999e-01,9.99999e-01,9.99999e-01,1.71064e-03,9.99999e-01
4.932130795e-01,1.94004e-03,9.99999e-01,9.99999e-01,9.99999e-01,1.94004e-03,9.99999e-01
4.956791449e-01,2.19474e-03,9.99999e-01,9.99999e-01,9.99999e-01,2.19474e-03,9.99999e-01
4.981575406e-01,2.47683e-03,9.99999e-01,9.99999e-01,9.99999e-01,2.47683e-03,9.99999e-01
5.006483283e-01,2.78852e-03,9.99999e-01,9.99999e-01,9.99999e-01,2.78852e-03,9.99999e-01
5.031515699e-01,3.13209e-03,9.99999e-01,9.99999e-01,9.99999e-01,3.13209e-03,9.99999e-01
5.056673278e-01,3.50992e-03,9.99999e-01,9.99999e-01,9.99999e-01,3.50992e-03,9.99999e-01
5.081956644e-01,3.92449e-03,9.99999e-01,9.99999e-01,9.99999e-01,3.92449e-03,9.99999e-01
5.107366428e-01,4.37837e-03,9.99999e-01,9.99999e-01,9.99999e-01,4.37837e-03,9.99999e-01
5.132903260e-01,4.87419e-03,9.99999e-01,9.99999e-01,9.99999e-01,4.87419e-03,9.99999e-01
5.158567776e-01,5.41467e-03,9.99999e-01,9.99999e-01,9.99999e-01,5.41467e-03,9.99999e-01
5.184360615e-01,6.00260e-03,9.99999e-01,9.99999e-01,9.99999e-01,6.00260e-03,9.99999e-01
5.210282418e-01,6.64084e-03,9.99999e-01,9.99999e-01,9.99999e-01,6.64084e-03,9.99999e-01
5.236333830e-01,7.33228e-03,9.99999e-01,9.99999e-01,9.99999e-01,7.33228e-03,9.99999e-01
5.262515499e-01,8.07990e-03,9.99999e-01,9.99999e-01,9.99999e-01,8.07990e-03,9.99999e-01
5.288828077e-01,8.88669e-03,9.99999e-01,9.99999e-01,9.99999e-01,8.88669e-03,9.99999e-01
5.315272217e-01,9.75568e-03,9.99999e-01,9.99999e-01,9.99999e-01,9.75568e-03,9.99999e-01
5.341848578e-01,1.06899e-02,9.99999e-01,9.99999e-01,9.99999e-01,1.06899e-02,9.99999e-01
5.368557821e-01,1.16925e-02,9.99999e-01,9.99999e-01,9.99999e-01,1.16925e-02,9.99999e-01
5.395400610e-01,1.27665e-02,9.99999e-01,9.99999e-01,9.99999e-01,1.27665e-02,9.99999e-01
5.422377613e-01,1.39149e-02,9.99999e-01,9.99999e-01,9.99999e-01,1.39149e-02,9.99999e-01
5.449489501e-01,1.51409e-02,9.99999e-01,9.99999e-01,9.99999e-01,1.51409e-02,9.99999e-01
5.476736949e-01,1.64474e-02,9.99999e-01,9.99999e-01,9.99999e-01,1.64474e-02,9.99999e-01
5.504120634e-01,1.78375e-02,9.99999e-01,9.99999e-01,9.99999e-01,1.78375e-02,9.99999e-01
5.531641237e-01,1.93141e-02,9.99999e-01,9.99999e-01,9.99999e-01,1.93141e-02,9.99999e-01
5.559299443e-01,2.08801e-02,9.99999e-01,9.99999e-01,9.99999e-01,2.08801e-02,9.99999e-01
5.587095940e-01,2.25384e-02,9.99999e-01,9.99999e-01,9.99999e-01,2.25384e-02,9.99999e-01
5.615031420e-01,2.42916e-02,9.99999e-01,9.99999e-01,9.99999e-01,2.42916e-02,9.99999e-01
5.643106577e-01,2.61425e-02,9.99999e-01,9.99999e-01,9.99999e-01,2.61425e-02,9.99999e-01
5.671322110e-01,2.80937e-02,9.99999e-01,9.99999e-01,9.99999e-01,2.80937e-02,9.99999e-01
5.699678720e-01,3.01476e-02,9.99999e-01,9.99999e-01,9.99999e-01,3.01476e-02,9.99999e-01
5.728177114e-01,3.23066e-02,9.99999e-01,9.99999e-01,9.99999e-01,3.23066e-02,9.99999e-01
5.756818000e-01,3.45729e-02,9.99999e-01,9.99999e-01,9.99999e-01,3.45729e-02,9.99999e-01
5.785602090e-01,3.69488e-02,9.99999e-01,9.99999e-01,9.99999e-01,3.69488e-02,9.99999e-01
5.814530100e-01,3.94361e-02,9.99999e-01,9.99999e-01,9.99999e-01,3.94361e-02,9.99999e-01
5.843602750e-01,4.20366e-02,9.99999e-01,9.99999e-01,9.99999e-01,4.20366e-02,9.99999e-01
5.872820764e-01,4.47522e-02,9.99999e-01,9.99999e-01,9.99999e-01,4.47522e-02,9.99999e-01
5.902184868e-01,4.75844e-02,9.99999e-01,9.99999e-01,9.99999e-01,4.75844e-02,9.99999e-01
5.931695792e-01,5.05345e-02,9.99999e-01,9.99999e-01,9.99999e-01,5.05345e-02,9.99999e-01
5.961354271e-01,5.36038e-02,9.99999e-01,9.99999e-01,9.99999e-01,5.36038e-02,9.99999e-01
5.991161043e-01,5.67932e-02,9.99999e-01,9.99999e-01,9.99999e-01,5.67932e-02,9.99999e-01
6.021116848e-01,6.01039e-02,9.99999e-01,9.99999e-01,9.99999e-01,6.01039e-02,9.99999e-01
6.051222432e-01,6.35363e-02,9.99999e-01,9.99999e-01,9.99999e-01,6.35363e-02,9.99999e-01
6.081478544e-01,6.70912e-02,9.99999e-01,9.99999e-01,9.99999e-01,6.70912e-02,9.99999e-01
6.111885937e-01,7.07688e-02,9.99999e-01,9.99999e-01,9.99999e-01,7.07688e-02,9.99999e-01
6.142445367e-01,7.45693e-02,9.99999e-01,9.99999e-01,9.99999e-01,7.45693e-02,9.99999e-01
6.173157594e-01,7.84928e-02,9.99999e-01,9.99999e-01,9.99999e-01,7.84928e-02,9.99999e-01
6.204023382e-01,8.25391e-02,9.99999e-01,9.99999e-01,9.99999e-01,8.25391e-02,9.99999e-01
6.235043498e-01,8.67078e-02,9.99999e-01,9.99999e-01,9.99999e-01,8.67078e-02,9.99999e-01
6.266218716e-01,9.09985e-02,9.99999e-01,9.99999e-01,9.99999e-01,9.09985e-02,9.99999e-01
6.297549810e-01,9.54105e-02,9.99999e-01,9.99999e-01,9.99999e-01,9.54105e-02,9.99999e-01
6.329037559e-01,9.99428e-02,9.99999e-01,9.99999e-01,9.99999e-01,9.99428e-02,9.99999e-01
6.360682746e-01,1.04594e-01,9.99999e-01,9.99999e-01,9.99999e-01,1.04594e-01,9.99999e-01
6.392486160e-01,1.09364e-01,9.99999e-01,9.99999e-01,9.99999e-01,1.09364e-01,9.99999e-01
6.424448591e-01,1.14251e-01,9.99999e-01,9.99999e-01,9.99999e-01,1.14251e-01,9.99999e-01
6.456570834e-01,1.19253e-01,9.99999e-01,9.99999e-01,9.99999e-01,1.19253e-01,9.99999e-01
6.488853688e-01,1.24369e-01,9.99999e-01,9.99999e-01,9.99999e-01,1.24369e-01,9.99999e-01
6.521297956e-01,1.29597e-01,9.99999e-01,9.99999e-01,9.99999e-01,1.29597e-01,9.99999e-01
6.553904446e-01,1.34934e-01,9.99999e-01,9.99999e-01,9.99999e-01,1.34934e-01,9.99999e-01
6.586673968e-01,1.40380e-01,9.99999e-01,9.99999e-01,9.99999e-01,1.40380e-01,9.99999e-01
6.619607338e-01,1.45931e-01,9.99999e-01,9.99999e-01,9.99999e-01,1.45931e-01,9.99999e-01
6.652705375e-01,1.51585e-01,9.99999e-01,9.99999e-01,9.99999e-01,1.51585e-01,9.99999e-01
6.685968902e-01,1.57341e-01,9.99999e-01,9.99999e-01,9.99999e-01,1.57341e-01,9.99999e-01
6.719398746e-01,1.63195e-01,9.99999e-01,9.99999e-01,9.99999e-01,1.63195e-01,9.99999e-01
6.752995740e-01,1.69144e-01,9.99999e-01,9.99999e-01,9.99999e-01,1.69144e-01,9.99999e-01
6.786760719e-01,1.75187e-01,9.99999e-01,9.99999e-01,9.99999e-01,1.75187e-01,9.99999e-01
6.820694522e-01,1.81319e-01,9.99999e-01,9.99999e-01,9.99999e-01,1.81319e-01,9.99999e-01
6.854797995e-01,1.87539e-01,9.99999e-01,9.99999e-01,9.99999e-01,1.87539e-01,9.99999e-01
6.889071985e-01,1.93843e-01,9.99999e-01,9.99999e-01,9.99999e-01,1.93843e-01,9.99999e-01
6.923517345e-01,2.00228e-01,9.99999e-01,9.99999e-01,9.99999e-01,2.00228e-01,9.99999e-01
6.958134932e-01,2.06690e-01,9.99999e-01,9.99999e-01,9.99999e-01,2.06690e-01,9.99999e-01
6.992925606e-01,2.13228e-01,9.99999e-01,9.99999e-01,9.99999e-01,2.13228e-01,9.99999e-01
7.027890234e-01,2.19837e-01,9.99999e-01,9.99999e-01,9.99999e-01,2.19837e-01,9.99999e-01
7.063029686e-01,2.26515e-01,9.99999e-01,9.99999e-01,9.99999e-01,2.26515e-01,9.99999e-01
7.098344834e-01,2.33257e-01,9.99999e-01,9.99999e-01,9.99999e-01,2.33257e-01,9.99999e-01
7.133836558e-01,2.40061e-01,9.99999e-01,9.99999e-01,9.99999e-01,2.40061e-01,9.99999e-01
7.169505741e-01,2.46923e-01,9.99999e-01,9.99999e-01,9.99999e-01,2.46923e-01,9.99999e-01
7.205353270e-01,2.53840e-01,9.99999e-01,9.99999e-01,9.99999e-01,2.53840e-01,9.99999e-01
7.241380036e-01,2.60809e-01,9.99999e-01,9.99999e-01,9.99999e-01,2.60809e-01,9.99999e-01
7.277586936e-01,2.67825e-01,9.99999e-01,9.99999e-01,9.99999e-01,2.67825e-01,9.99999e-01
7.313974871e-01,2.74886e-01,9.99999e-01,9.99999e-01,9.99999e-01,2.74886e-01,9.99999e-01
7.350544745e-01,2.81988e-01,9.99999e-01,9.99999e-01,9.99999e-01,2.81988e-01,9.99999e-01
7.387297469e-01,2.89128e-01,9.99999e-01,9.99999e-01,9.99999e-01,2.89128e-01,9.99999e-01
7.424233956e-01,2.96302e-01,9.99999e-01,9.99999e-01,9.99999e-01,2.96302e-01,9.99999e-01
7.461355126e-01,3.03507e-01,9.99999e-01,9.99999e-01,9.99999e-01,3.03507e-01,9.99999e-01
7.498661902e-01,3.10740e-01,9.99999e-01,9.99999e-01,9.99999e-01,3.10740e-01,9.99999e-01
7.536155211e-01,3.17998e-01,9.99999e-01,9.99999e-01,9.99999e-01,3.17998e-01,9.99999e-01
7.573835987e-01,3.25276e-01,9.99999e-01,9.99999e-01,9.99999e-01,3.25276e-01,9.99999e-01
7.611705167e-01,3.32573e-01,9.99999e-01,9.99999e-01,9.99999e-01,3.32573e-01,9.99999e-01
7.649763693e-01,3.39884e-01,9.99999e-01,9.99999e-01,9.99999e-01,3.39884e-01,9.99999e-01
7.688012511e-01,3.47206e-01,9.99999e-01,9.99999e-01,9.99999e-01,3.47206e-01,9.99999e-01
7.726452574e-01,3.54538e-01,9.99999e-01,9.99999e-01,9.99999e-01,3.54538e-01,9.99999e-01
7.765084837e-01,3.61874e-01,9.99999e-01,9.99999e-01,9.99999e-01,3.61874e-01,9.99999e-01
7.803910261e-01,3.52952e-01,9.99999e-01,9.99999e-01,9.55957e-01,3.69213e-01,9.99999e-01
7.842929812e-01,3.06783e-01,9.99999e-01,9.99999e-01,8.14716e-01,3.76552e-01,9.99999e-01
7.882144461e-01,3.08513e-01,9.99999e-01,9.99999e-01,8.03655e-01,3.83887e-01,9.99999e-01
7.921555184e-01,3.43942e-01,9.99999e-01,9.99999e-01,8.79161e-01,3.91215e-01,9.99999e-01
7.961162960e-01,3.65503e-01,9.99999e-01,9.99999e-01,9.17114e-01,3.98535e-01,9.99999e-01
8.000968774e-01,3.87253e-01,9.99999e-01,9.99999e-01,9.54193e-01,4.05843e-01,9.99999e-01
8.040973618e-01,4.03213e-01,9.99999e-01,9.99999e-01,9.75978e-01,4.13137e-01,9.99999e-01
8.081178486e-01,4.15752e-01,9.99999e-01,9.99999e-01,9.88910e-01,4.20414e-01,9.99999e-01
8.121584379e-01,4.26200e-01,9.99999e-01,9.99999e-01,9.96556e-01,4.27672e-01,9.99999e-01
8.162192301e-01,4.34577e-01,9.99999e-01,9.99999e-01,9.99238e-01,4.34908e-01,9.99999e-01
8.203003262e-01,4.42115e-01,9.99999e-01,9.99999e-01,9.99987e-01,4.42120e-01,9.99999e-01
8.244018279e-01,4.49305e-01,9.99999e-01,9.99999e-01,9.99999e-01,4.49305e-01,9.99999e-01
8.285238370e-01,4.56462e-01,9.99999e-01,9.99999e-01,9.99999e-01,4.56462e-01,9.99999e-01
8.326664562e-01,4.63588e-01,9.99999e-01,9.99999e-01,9.99999e-01,4.63588e-01,9.99999e-01
8.368297885e-01,4.70681e-01,9.99999e-01,9.99999e-01,9.99999e-01,4.70681e-01,9.99999e-01
8.410139374e-01,4.77740e-01,9.99999e-01,9.99999e-01,9.99999e-01,4.77740e-01,9.99999e-01
8.452190071e-01,4.84761e-01,9.99999e-01,9.99999e-01,9.99999e-01,4.84761e-01,9.99999e-01
8.494451021e-01,4.91745e-01,9.99999e-01,9.99999e-01,9.99999e-01,4.91745e-01,9.99999e-01
8.536923276e-01,4.98687e-01,9.99999e-01,9.99999e-01,9.99999e-01,4.98687e-01,9.99999e-01
8.579607893e-01,5.05588e-01,9.99999e-01,9.99999e-01,9.99999e-01,5.05588e-01,9.99999e-01
8.622505932e-01,5.12446e-01,9.99999e-01,9.99999e-01,9.99999e-01,5.12446e-01,9.99999e-01
8.665618462e-01,4.73341e-01,9.99999e-01,9.99999e-01,9.11571e-01,5.19258e-01,9.99999e-01
8.708946554e-01,3.14046e-01,9.99999e-01,9.99999e-01,5.97018e-01,5.26023e-01,9.99999e-01
8.752491287e-01,3.50406e-01,9.99999e-01,9.99999e-01,6.57742e-01,5.32741e-01,9.99999e-01
8.796253743e-01,4.27886e-01,9.99999e-01,9.99999e-01,7.93250e-01,5.39408e-01,9.99999e-01
8.840235012e-01,4.84040e-01,9.99999e-01,9.99999e-01,8.86477e-01,5.46026e-01,9.99999e-01
8.884436187e-01,5.26918e-01,9.99999e-01,9.99999e-01,9.53540e-01,5.52591e-01,9.99999e-01
8.928858368e-01,5.48436e-01,9.99999e-01,9.99999e-01,9.80919e-01,5.59103e-01,9.99999e-01
8.973502660e-01,5.62919e-01,9.99999e-01,9.99999e-01,9.95327e-01,5.65561e-01,9.99999e-01
9.018370173e-01,5.71669e-01,9.99999e-01,9.99999e-01,9.99483e-01,5.71964e-01,9.99999e-01
9.063462024e-01,5.70766e-01,9.99999e-01,9.99999e-01,9.86953e-01,5.78311e-01,9.99999e-01
9.108779334e-01,5.67107e-01,9.99999e-01,9.99999e-01,9.70075e-01,5.84600e-01,9.99999e-01
9.154323231e-01,5.86627e-01,9.99999e-01,9.99999e-01,9.92882e-01,5.90832e-01,9.99999e-01
9.200094847e-01,5.39746e-01,9.99999e-01,9.99999e-01,9.04089e-01,5.97005e-01,9.99999e-01
9.246095321e-01,5.19883e-01,9.99999e-01,9.99999e-01,8.61990e-01,6.03119e-01,9.99999e-01
9.292325798e-01,5.42597e-01,9.99999e-01,9.99999e-01,8.90709e-01,6.09173e-01,9.99999e-01
9.338787427e-01,5.49786e-01,9.99999e-01,9.99999e-01,8.93718e-01,6.15167e-01,9.99999e-01
9.385481364e-01,5.71810e-01,9.99999e-01,9.99999e-01,9.20642e-01,6.21099e-01,9.99999e-01
9.432408771e-01,5.95979e-01,9.99999e-01,9.99999e-01,9.50571e-01,6.26969e-01,9.99999e-01
9.479570815e-01,6.16541e-01,9.99999e-01,9.99999e-01,9.74340e-01,6.32778e-01,9.99999e-01
9.526968669e-01,6.30570e-01,9.99999e-01,9.99999e-01,9.87543e-01,6.38524e-01,9.99999e-01
9.574603512e-01,6.40763e-01,9.99999e-01,9.99999e-01,9.94653e-01,6.44207e-01,9.99999e-01
9.622476530e-01,6.48741e-01,9.99999e-01,9.99999e-01,9.98329e-01,6.49826e-01,9.99999e-01
9.670588912e-01,6.55055e-01,9.99999e-01,9.99999e-01,9.99498e-01,6.55383e-01,9.99999e-01
9.718941857e-01,6.60852e-01,9.99999e-01,9.99999e-01,9.99964e-01,6.60876e-01,9.99999e-01
9.767536566e-01,6.66305e-01,9.99999e-01,9.99999e-01,9.99999e-01,6.66305e-01,9.99999e-01
9.816374249e-01,6.71670e-01,9.99999e-01,9.99999e-01,9.99999e-01,6.71670e-01,9.99999e-01
9.865456120e-01,6.76971e-01,9.99999e-01,9.99999e-01,9.99999e-01,6.76971e-01,9.99999e-01
9.914783401e-01,6.82207e-01,9.99999e-01,9.99999e-01,9.99999e-01,6.82207e-01,9.99999e-01
9.964357318e-01,6.87380e-01,9.99999e-01,9.99999e-01,9.99999e-01,6.87380e-01,9.99999e-01
1.001417910e+00,6.92489e-01,9.99999e-01,9.99999e-01,9.99999e-01,6.92489e-01,9.99999e-01
1.006425000e+00,6.97533e-01,9.99999e-01,9.99999e-01,9.99999e-01,6.97533e-01,9.99999e-01
1.011457125e+00,7.02514e-01,9.99999e-01,9.99999e-01,9.99999e-01,7.02514e-01,9.99999e-01
1.016514411e+00,7.07431e-01,9.99999e-01,9.99999e-01,9.99999e-01,7.07431e-01,9.99999e-01
1.021596983e+00,7.12235e-01,9.99999e-01,9.99999e-01,9.99931e-01,7.12284e-01,9.99999e-01
1.026704968e+00,7.13409e-01,9.99999e-01,9.99999e-01,9.94890e-01,7.17073e-01,9.99999e-01
1.031838492e+00,6.82774e-01,9.99999e-01,9.99999e-01,9.45933e-01,7.21799e-01,9.99999e-01
1.036997685e+00,8.34350e-02,9.99999e-01,9.99999e-01,1.14851e-01,7.26462e-01,9.99999e-01
1.042182673e+00,4.35386e-02,9.99999e-01,9.99999e-01,5.95551e-02,7.31062e-01,9.99999e-01
1.047393587e+00,6.20219e-02,9.99999e-01,9.99999e-01,8.43146e-02,7.35600e-01,9.99999e-01
1.052630555e+00,5.87327e-04,9.99999e-01,9.99999e-01,7.93603e-04,7.40075e-01,9.99999e-01
1.057893707e+00,1.73832e-03,9.99999e-01,9.99999e-01,2.33491e-03,7.44488e-01,9.99999e-01
1.063183176e+00,8.32658e-03,9.99999e-01,9.99999e-01,1.11193e-02,7.48840e-01,9.99999e-01
1.068499092e+00,3.09409e-02,9.99999e-01,9.99999e-01,4.10831e-02,7.53130e-01,9.99999e-01
1.073841587e+00,9.99964e-02,9.99999e-01,9.99999e-01,1.32033e-01,7.57360e-01,9.99999e-01
1.079210795e+00,2.11244e-01,9.99999e-01,9.99999e-01,2.77395e-01,7.61529e-01,9.99999e-01
1.084606849e+00,3.76245e-01,9.99999e-01,9.99999e-01,4.91413e-01,7.65638e-01,9.99999e-01
1.090029883e+00,5.31920e-01,9.99999e-01,9.99999e-01,6.91085e-01,7.69687e-01,9.99999e-01
1.095480033e+00,6.44784e-01,9.99999e-01,9.99999e-01,8.33401e-01,7.73677e-01,9.99999e-01
1.100957433e+00,7.12194e-01,9.99999e-01,9.99999e-01,9.15876e-01,7.77608e-01,9.99999e-01
1.106462220e+00,7.53580e-01,9.99999e-01,9.99999e-01,9.64296e-01,7.81481e-01,9.99999e-01
1.111994531e+00,7.74784e-01,9.99999e-01,9.99999e-01,9.86612e-01,7.85297e-01,9.99999e-01
1.117554504e+00,7.86461e-01,9.99999e-01,9.99999e-01,9.96712e-01,7.89055e-01,9.99999e-01
1.123142276e+00,7.92585e-01,9.99999e-01,9.99999e-01,9.99783e-01,7.92756e-01,9.99999e-01
1.128757988e+00,7.96401e-01,9.99999e-01,9.99999e-01,9.99999e-01,7.96401e-01,9.99999e-01
1.134401778e+00,7.99990e-01,9.99999e-01,9.99999e-01,9.99999e-01,7.99990e-01,9.99999e-01
1.140073787e+00,8.03524e-01,9.99999e-01,9.99999e-01,9.99999e-01,8.03524e-01,9.99999e-01
1.145774156e+00,8.07003e-01,9.99999e-01,9.99999e-01,9.99999e-01,8.07003e-01,9.99999e-01
1.151503026e+00,8.10429e-01,9.99999e-01,9.99999e-01,9.99999e-01,8.10429e-01,9.99999e-01
1.157260541e+00,8.13800e-01,9.99999e-01,9.99999e-01,9.99999e-01,8.13800e-01,9.99999e-01
1.163046844e+00,8.17119e-01,9.99999e-01,9.99999e-01,9.99999e-01,8.17119e-01,9.99999e-01
1.168862078e+00,8.20386e-01,9.99999e-01,9.99999e-01,9.99999e-01,8.20386e-01,9.99999e-01
1.174706389e+00,8.23600e-01,9.99999e-01,9.99999e-01,9.99999e-01,8.23600e-01,9.99999e-01
1.180579921e+00,8.26763e-01,9.99999e-01,9.99999e-01,9.99999e-01,8.26763e-01,9.99999e-01
1.186482820e+00,8.29869e-01,9.99999e-01,9.99999e-01,9.99990e-01,8.29876e-01,9.99999e-01
1.192415234e+00,8.17943e-01,9.99999e-01,9.99999e-01,9.81996e-01,8.32938e-01,9.99999e-01
1.198377311e+00,4.62214e-01,9.99999e-01,9.99999e-01,5.52919e-01,8.35951e-01,9.99999e-01
1.204369197e+00,1.49375e-14,9.99999e-01,9.99999e-01,1.78057e-14,8.38915e-01,9.99999e-01
1.210391043e+00,4.19885e-55,9.99999e-01,9.99999e-01,4.98776e-55,8.41831e-01,9.99999e-01
1.216442998e+00,7.48946e-48,9.99999e-01,9.99999e-01,8.86642e-48,8.44698e-01,9.99999e-01
1.222525213e+00,3.74905e-47,9.99999e-01,9.99999e-01,4.42355e-47,8.47519e-01,9.99999e-01
1.228637839e+00,1.62157e-36,9.99999e-01,9.99999e-01,1.90707e-36,8.50293e-01,9.99999e-01
