#,Wave/freq,Total,N2,O2,CO2,Rayleigh,CIA
4.000000000e-01,2.40049e-04,9.99999e-01,9.99999e-01,9.99999e-01,2.40049e-04,9.99999e-01
4.020000000e-01,2.83056e-04,9.99999e-01,9.99999e-01,9.99999e-01,2.83056e-04,9.99999e-01
4.040100000e-01,3.32627e-04,9.99999e-01,9.99999e-01,9.99999e-01,3.32627e-04,9.99999e-01
4.060300500e-01,3.89634e-04,9.99999e-01,9.99999e-01,9.99999e-01,3.89634e-04,9.99999e-01
4.080602003e-01,4.54988e-04,9.99999e-01,9.99999e-01,9.99999e-01,4.54988e-04,9.99999e-01
4.101005013e-01,5.29679e-04,9.99999e-01,9.99999e-01,9.99999e-01,5.29679e-04,9.99999e-01
4.121510038e-01,6.14783e-04,9.99999e-01,9.99999e-01,9.99999e-01,6.14783e-04,9.99999e-01
4.142117588e-01,7.11463e-04,9.99999e-01,9.99999e-01,9.99999e-01,7.11463e-04,9.99999e-01
4.162828176e-01,8.20975e-04,9.99999e-01,9.99999e-01,9.99999e-01,8.20975e-04,9.99999e-01
4.183642317e-01,9.44669e-04,9.99999e-01,9.99999e-01,9.99999e-01,9.44669e-04,9.99999e-01
4.204560528e-01,1.08399e-03,9.99999e-01,9.99999e-01,9.99999e-01,1.08399e-03,9.99999e-01
4.225583331e-01,1.24048e-03,9.99999e-01,9.99999e-01,9.99999e-01,1.24048e-03,9.99999e-01
4.246711247e-01,1.41579e-03,9.99999e-01,9.99999e-01,9.99999e-01,1.41579e-03,9.99999e-01
4.267944804e-01,1.61166e-03,9.99999e-01,9.99999e-01,9.99999e-01,1.61166e-03,9.99999e-01
4.289284528e-01,1.82994e-03,9.99999e-01,9.99999e-01,9.99999e-01,1.82994e-03,9.99999e-01
4.310730950e-01,2.07258e-03,9.99999e-01,9.99999e-01,9.99999e-01,2.07258e-03,9.99999e-01
4.332284605e-01,2.34162e-03,9.99999e-01,9.99999e-01,9.99999e-01,2.34162e-03,9.99999e-01
4.353946028e-01,2.63922e-03,9.99999e-01,9.99999e-01,9.99999e-01,2.63922e-03,9.99999e-01
4.375715758e-01,2.96762e-03,9.99999e-01,9.99999e-01,9.99999e-01,2.96762e-03,9.99999e-01
4.397594337e-01,3.32915e-03,9.99999e-01,9.99999e-01,9.99999e-01,3.32915e-03,9.99999e-01
4.419582309e-01,3.72627e-03,9.99999e-01,9.99999e-01,9.99999e-01,3.72627e-03,9.99999e-01
4.441680220e-01,4.16148e-03,9.99999e-01,9.99999e-01,9.99999e-01,4.16148e-03,9.99999e-01
4.463888621e-01,4.63738e-03,9.99999e-01,9.99999e-01,9.99999e-01,4.63738e-03,9.99999e-01
4.486208064e-01,5.15668e-03,9.99999e-01,9.99999e-01,9.99999e-01,5.15668e-03,9.99999e-01
4.508639105e-01,5.72211e-03,9.99999e-01,9.99999e-01,9.99999e-01,5.72211e-03,9.99999e-01
4.531182300e-01,6.33651e-03,9.99999e-01,9.99999e-01,9.99999e-01,6.33651e-03,9.99999e-01
4.553838212e-01,7.00276e-03,9.99999e-01,9.99999e-01,9.99999e-01,7.00276e-03,9.99999e-01
4.576607403e-01,7.72379e-03,9.99999e-01,9.99999e-01,9.99999e-01,7.72379e-03,9.99999e-01
4.599490440e-01,8.50258e-03,9.99999e-01,9.99999e-01,9.99999e-01,8.50258e-03,9.99999e-01
4.622487892e-01,9.34216e-03,9.99999e-01,9.99999e-01,9.99999e-01,9.34216e-03,9.99999e-01
4.645600332e-01,1.02456e-02,9.99999e-01,9.99999e-01,9.99999e-01,1.02456e-02,9.99999e-01
4.668828333e-01,1.12159e-02,9.99999e-01,9.99999e-01,9.99999e-01,1.12159e-02,9.99999e-01
4.692172475e-01,1.22561e-02,9.99999e-01,9.99999e-01,9.99999e-01,1.22561e-02,9.99999e-01
4.715633337e-01,1.33694e-02,9.99999e-01,9.99999e-01,9.99999e-01,1.33694e-02,9.99999e-01
4.739211504e-01,1.45589e-02,9.99999e-01,9.99999e-01,9.99999e-01,1.45589e-02,9.99999e-01
4.762907561e-01,1.58274e-02,9.99999e-01,9.99999e-01,9.99999e-01,1.58274e-02,9.99999e-01
4.786722099e-01,1.71781e-02,9.99999e-01,9.99999e-01,9.99999e-01,1.71781e-02,9.99999e-01
4.810655710e-01,1.86140e-02,9.99999e-01,9.99999e-01,9.99999e-01,1.86140e-02,9.99999e-01
4.834708988e-01,2.01379e-02,9.99999e-01,9.99999e-01,9.99999e-01,2.01379e-02,9.99999e-01
4.858882533e-01,2.17528e-02,9.99999e-01,9.99999e-01,9.99999e-01,2.17528e-02,9.99999e-01
4.883176946e-01,2.34613e-02,9.99999e-01,9.99999e-01,9.99999e-01,2.34613e-02,9.99999e-01
4.907592831e-01,2.52663e-02,9.99999e-01,9.99999e-01,9.99999e-01,2.52663e-02,9.99999e-01
4.932130795e-01,2.71704e-02,9.99999e-01,9.99999e-01,9.99999e-01,2.71704e-02,9.99999e-01
4.956791449e-01,2.91760e-02,9.99999e-01,9.99999e-01,9.99999e-01,2.91760e-02,9.99999e-01
4.981575406e-01,3.12857e-02,9.99999e-01,9.99999e-01,9.99999e-01,3.12857e-02,9.99999e-01
5.006483283e-01,3.35017e-02,9.99999e-01,9.99999e-01,9.99999e-01,3.35017e-02,9.99999e-01
5.031515699e-01,3.58262e-02,9.99999e-01,9.99999e-01,9.99999e-01,3.58262e-02,9.99999e-01
5.056673278e-01,3.82612e-02,9.99999e-01,9.99999e-01,9.99999e-01,3.82612e-02,9.99999e-01
5.081956644e-01,4.08087e-02,9.99999e-01,9.99999e-01,9.99999e-01,4.08087e-02,9.99999e-01
5.107366428e-01,4.34704e-02,9.99999e-01,9.99999e-01,9.99999e-01,4.34704e-02,9.99999e-01
5.132903260e-01,4.62480e-02,9.99999e-01,9.99999e-01,9.99999e-01,4.62480e-02,9.99999e-01
5.158567776e-01,4.91428e-02,9.99999e-01,9.99999e-01,9.99999e-01,4.91428e-02,9.99999e-01
5.184360615e-01,5.21563e-02,9.99999e-01,9.99999e-01,9.99999e-01,5.21563e-02,9.99999e-01
5.210282418e-01,5.52896e-02,9.99999e-01,9.99999e-01,9.99999e-01,5.52896e-02,9.99999e-01
5.236333830e-01,5.85436e-02,9.99999e-01,9.99999e-01,9.99999e-01,5.85436e-02,9.99999e-01
5.262515499e-01,6.19191e-02,9.99999e-01,9.99999e-01,9.99999e-01,6.19191e-02,9.99999e-01
5.288828077e-01,6.54168e-02,9.99999e-01,9.99999e-01,9.99999e-01,6.54168e-02,9.99999e-01
5.315272217e-01,6.90370e-02,9.99999e-01,9.99999e-01,9.99999e-01,6.90370e-02,9.99999e-01
5.341848578e-01,7.27802e-02,9.99999e-01,9.99999e-01,9.99999e-01,7.27802e-02,9.99999e-01
5.368557821e-01,7.66463e-02,9.99999e-01,9.99999e-01,9.99999e-01,7.66463e-02,9.99999e-01
5.395400610e-01,8.06353e-02,9.99999e-01,9.99999e-01,9.99999e-01,8.06353e-02,9.99999e-01
5.422377613e-01,8.47470e-02,9.99999e-01,9.99999e-01,9.99999e-01,8.47470e-02,9.99999e-01
5.449489501e-01,8.89808e-02,9.99999e-01,9.99999e-01,9.99999e-01,8.89808e-02,9.99999e-01
5.476736949e-01,9.33362e-02,9.99999e-01,9.99999e-01,9.99999e-01,9.33362e-02,9.99999e-01
5.504120634e-01,9.78125e-02,9.99999e-01,9.99999e-01,9.99999e-01,9.78125e-02,9.99999e-01
5.531641237e-01,1.02409e-01,9.99999e-01,9.99999e-01,9.99999e-01,1.02409e-01,9.99999e-01
5.559299443e-01,1.07124e-01,9.99999e-01,9.99999e-01,9.99999e-01,1.07124e-01,9.99999e-01
5.587095940e-01,1.11956e-01,9.99999e-01,9.99999e-01,9.99999e-01,1.11956e-01,9.99999e-01
5.615031420e-01,1.16904e-01,9.99999e-01,9.99999e-01,9.99999e-01,1.16904e-01,9.99999e-01
5.643106577e-01,1.21967e-01,9.99999e-01,9.99999e-01,9.99999e-01,1.21967e-01,9.99999e-01
5.671322110e-01,1.27143e-01,9.99999e-01,9.99999e-01,9.99999e-01,1.27143e-01,9.99999e-01
5.699678720e-01,1.32430e-01,9.99999e-01,9.99999e-01,9.99999e-01,1.32430e-01,9.99999e-01
5.728177114e-01,1.37825e-01,9.99999e-01,9.99999e-01,9.99999e-01,1.37825e-01,9.99999e-01
5.756818000e-01,1.43327e-01,9.99999e-01,9.99999e-01,9.99999e-01,1.43327e-01,9.99999e-01
5.785602090e-01,1.48934e-01,9.99999e-01,9.99999e-01,9.99999e-01,1.48934e-01,9.99999e-01
5.814530100e-01,1.54642e-01,9.99999e-01,9.99999e-01,9.99999e-01,1.54642e-01,9.99999e-01
5.843602750e-01,1.60450e-01,9.99999e-01,9.99999e-01,9.99999e-01,1.60450e-01,9.99999e-01
5.872820764e-01,1.66356e-01,9.99999e-01,9.99999e-01,9.99999e-01,1.66356e-01,9.99999e-01
5.902184868e-01,1.72355e-01,9.99999e-01,9.99999e-01,9.99999e-01,1.72355e-01,9.99999e-01
5.931695792e-01,1.78446e-01,9.99999e-01,9.99999e-01,9.99999e-01,1.78446e-01,9.99999e-01
5.961354271e-01,1.84625e-01,9.99999e-01,9.99999e-01,9.99999e-01,1.84625e-01,9.99999e-01
5.991161043e-01,1.90890e-01,9.99999e-01,9.99999e-01,9.99999e-01,1.90890e-01,9.99999e-01
6.021116848e-01,1.97238e-01,9.99999e-01,9.99999e-01,9.99999e-01,1.97238e-01,9.99999e-01
6.051222432e-01,2.03665e-01,9.99999e-01,9.99999e-01,9.99999e-01,2.03665e-01,9.99999e-01
6.081478544e-01,2.10168e-01,9.99999e-01,9.99999e-01,9.99999e-01,2.10168e-01,9.99999e-01
6.111885937e-01,2.16744e-01,9.99999e-01,9.99999e-01,9.99999e-01,2.16744e-01,9.99999e-01
6.142445367e-01,2.23390e-01,9.99999e-01,9.99999e-01,9.99999e-01,2.23390e-01,9.99999e-01
6.173157594e-01,2.30103e-01,9.99999e-01,9.99999e-01,9.99999e-01,2.30103e-01,9.99999e-01
6.204023382e-01,2.36878e-01,9.99999e-01,9.99999e-01,9.99999e-01,2.36878e-01,9.99999e-01
6.235043498e-01,2.43714e-01,9.99999e-01,9.99999e-01,9.99999e-01,2.43714e-01,9.99999e-01
6.266218716e-01,2.50605e-01,9.99999e-01,9.99999e-01,9.99999e-01,2.50605e-01,9.99999e-01
6.297549810e-01,2.57550e-01,9.99999e-01,9.99999e-01,9.99999e-01,2.57550e-01,9.99999e-01
6.329037559e-01,2.64544e-01,9.99999e-01,9.99999e-01,9.99999e-01,2.64544e-01,9.99999e-01
6.360682746e-01,2.71585e-01,9.99999e-01,9.99999e-01,9.99999e-01,2.71585e-01,9.99999e-01
6.392486160e-01,2.78668e-01,9.99999e-01,9.99999e-01,9.99999e-01,2.78668e-01,9.99999e-01
6.424448591e-01,2.85791e-01,9.99999e-01,9.99999e-01,9.99999e-01,2.85791e-01,9.99999e-01
6.456570834e-01,2.92950e-01,9.99999e-01,9.99999e-01,9.99999e-01,2.92950e-01,9.99999e-01
6.488853688e-01,3.00141e-01,9.99999e-01,9.99999e-01,9.99999e-01,3.00141e-01,9.99999e-01
6.521297956e-01,3.07361e-01,9.99999e-01,9.99999e-01,9.99999e-01,3.07361e-01,9.99999e-01
6.553904446e-01,3.14608e-01,9.99999e-01,9.99999e-01,9.99999e-01,3.14608e-01,9.99999e-01
6.586673968e-01,3.21877e-01,9.99999e-01,9.99999e-01,9.99999e-01,3.21877e-01,9.99999e-01
6.619607338e-01,3.29165e-01,9.99999e-01,9.99999e-01,9.99999e-01,3.29165e-01,9.99999e-01
6.652705375e-01,3.36470e-01,9.99999e-01,9.99999e-01,9.99999e-01,3.36470e-01,9.99999e-01
6.685968902e-01,3.43788e-01,9.99999e-01,9.99999e-01,9.99999e-01,3.43788e-01,9.99999e-01
6.719398746e-01,3.51115e-01,9.99999e-01,9.99999e-01,9.99999e-01,3.51115e-01,9.99999e-01
6.752995740e-01,3.58450e-01,9.99999e-01,9.99999e-01,9.99999e-01,3.58450e-01,9.99999e-01
6.786760719e-01,3.65788e-01,9.99999e-01,9.99999e-01,9.99999e-01,3.65788e-01,9.99999e-01
6.820694522e-01,3.73127e-01,9.99999e-01,9.99999e-01,9.99999e-01,3.73127e-01,9.99999e-01
6.854797995e-01,3.80464e-01,9.99999e-01,9.99999e-01,9.99999e-01,3.80464e-01,9.99999e-01
6.889071985e-01,3.87796e-01,9.99999e-01,9.99999e-01,9.99999e-01,3.87796e-01,9.99999e-01
6.923517345e-01,3.95120e-01,9.99999e-01,9.99999e-01,9.99999e-01,3.95120e-01,9.99999e-01
6.958134932e-01,4.02434e-01,9.99999e-01,9.99999e-01,9.99999e-01,4.02434e-01,9.99999e-01
6.992925606e-01,4.09735e-01,9.99999e-01,9.99999e-01,9.99999e-01,4.09735e-01,9.99999e-01
7.027890234e-01,4.17020e-01,9.99999e-01,9.99999e-01,9.99999e-01,4.17020e-01,9.99999e-01
7.063029686e-01,4.24287e-01,9.99999e-01,9.99999e-01,9.99999e-01,4.24287e-01,9.99999e-01
7.098344834e-01,4.31534e-01,9.99999e-01,9.99999e-01,9.99999e-01,4.31534e-01,9.99999e-01
7.133836558e-01,4.38757e-01,9.99999e-01,9.99999e-01,9.99999e-01,4.38757e-01,9.99999e-01
7.169505741e-01,4.45955e-01,9.99999e-01,9.99999e-01,9.99999e-01,4.45955e-01,9.99999e-01
7.205353270e-01,4.53125e-01,9.99999e-01,9.99999e-01,9.99999e-01,4.53125e-01,9.99999e-01
7.241380036e-01,4.60266e-01,9.99999e-01,9.99999e-01,9.99999e-01,4.60266e-01,9.99999e-01
7.277586936e-01,4.67375e-01,9.99999e-01,9.99999e-01,9.99999e-01,4.67375e-01,9.99999e-01
7.313974871e-01,4.74450e-01,9.99999e-01,9.99999e-01,9.99999e-01,4.74450e-01,9.99999e-01
7.350544745e-01,4.81489e-01,9.99999e-01,9.99999e-01,9.99999e-01,4.81489e-01,9.99999e-01
7.387297469e-01,4.88490e-01,9.99999e-01,9.99999e-01,9.99999e-01,4.88490e-01,9.99999e-01
7.424233956e-01,4.95452e-01,9.99999e-01,9.99999e-01,9.99999e-01,4.95452e-01,9.99999e-01
7.461355126e-01,5.02373e-01,9.99999e-01,9.99999e-01,9.99999e-01,5.02373e-01,9.99999e-01
7.498661902e-01,5.09251e-01,9.99999e-01,9.99999e-01,9.99999e-01,5.09251e-01,9.99999e-01
7.536155211e-01,5.16084e-01,9.99999e-01,9.99999e-01,9.99999e-01,5.16084e-01,9.99999e-01
7.573835987e-01,5.22871e-01,9.99999e-01,9.99999e-01,9.99999e-01,5.22871e-01,9.99999e-01
7.611705167e-01,5.29611e-01,9.99999e-01,9.99999e-01,9.99999e-01,5.29611e-01,9.99999e-01
7.649763693e-01,5.36303e-01,9.99999e-01,9.99999e-01,9.99999e-01,5.36303e-01,9.99999e-01
7.688012511e-01,5.42944e-01,9.99999e-01,9.99999e-01,9.99999e-01,5.42944e-01,9.99999e-01
7.726452574e-01,5.49533e-01,9.99999e-01,9.99999e-01,9.99999e-01,5.49533e-01,9.99999e-01
7.765084837e-01,5.56070e-01,9.99999e-01,9.99999e-01,9.99999e-01,5.56070e-01,9.99999e-01
7.803910261e-01,5.47915e-01,9.99999e-01,9.99999e-01,9.73978e-01,5.62554e-01,9.99999e-01
7.842929812e-01,5.04128e-01,9.99999e-01,9.99999e-01,8.86016e-01,5.68982e-01,9.99999e-01
7.882144461e-01,5.05809e-01,9.99999e-01,9.99999e-01,8.79124e-01,5.75355e-01,9.99999e-01
7.921555184e-01,5.39858e-01,9.99999e-01,9.99999e-01,9.28113e-01,5.81672e-01,9.99999e-01
7.961162960e-01,5.59091e-01,9.99999e-01,9.99999e-01,9.50946e-01,5.87931e-01,9.99999e-01
8.000968774e-01,5.78187e-01,9.99999e-01,9.99999e-01,9.73162e-01,5.94132e-01,9.99999e-01
8.040973618e-01,5.91838e-01,9.99999e-01,9.99999e-01,9.85947e-01,6.00273e-01,9.99999e-01
8.081178486e-01,6.02449e-01,9.99999e-01,9.99999e-01,9.93557e-01,6.06355e-01,9.99999e-01
8.121584379e-01,6.11145e-01,9.99999e-01,9.99999e-01,9.97987e-01,6.12377e-01,9.99999e-01
8.162192301e-01,6.18063e-01,9.99999e-01,9.99999e-01,9.99554e-01,6.18338e-01,9.99999e-01
8.203003262e-01,6.24232e-01,9.99999e-01,9.99999e-01,9.99992e-01,6.24237e-01,9.99999e-01
8.244018279e-01,6.30074e-01,9.99999e-01,9.99999e-01,9.99999e-01,6.30074e-01,9.99999e-01
8.285238370e-01,6.35850e-01,9.99999e-01,9.99999e-01,9.99999e-01,6.35850e-01,9.99999e-01
8.326664562e-01,6.41562e-01,9.99999e-01,9.99999e-01,9.99999e-01,6.41562e-01,9.99999e-01
8.368297885e-01,6.47211e-01,9.99999e-01,9.99999e-01,9.99999e-01,6.47211e-01,9.99999e-01
8.410139374e-01,6.52797e-01,9.99999e-01,9.99999e-01,9.99999e-01,6.52797e-01,9.99999e-01
8.452190071e-01,6.58320e-01,9.99999e-01,9.99999e-01,9.99999e-01,6.58320e-01,9.99999e-01
8.494451021e-01,6.63779e-01,9.99999e-01,9.99999e-01,9.99999e-01,6.63779e-01,9.99999e-01
8.536923276e-01,6.69174e-01,9.99999e-01,9.99999e-01,9.99999e-01,6.69174e-01,9.99999e-01
8.579607893e-01,6.74504e-01,9.99999e-01,9.99999e-01,9.99999e-01,6.74504e-01,9.99999e-01
8.622505932e-01,6.79771e-01,9.99999e-01,9.99999e-01,9.99999e-01,6.79771e-01,9.99999e-01
8.665618462e-01,6.42531e-01,9.99999e-01,9.99999e-01,9.38037e-01,6.84974e-01,9.99999e-01
8.708946554e-01,5.07484e-01,9.99999e-01,9.99999e-01,7.35364e-01,6.90112e-01,9.99999e-01
8.752491287e-01,5.42766e-01,9.99999e-01,9.99999e-01,7.80748e-01,6.95187e-01,9.99999e-01
8.796253743e-01,6.11426e-01,9.99999e-01,9.99999e-01,8.73219e-01,7.00197e-01,9.99999e-01
8.840235012e-01,6.57410e-01,9.99999e-01,9.99999e-01,9.32306e-01,7.05144e-01,9.99999e-01
8.884436187e-01,6.90604e-01,9.99999e-01,9.99999e-01,9.72644e-01,7.10027e-01,9.99999e-01
8.928858368e-01,7.06891e-01,9.99999e-01,9.99999e-01,9.88871e-01,7.14846e-01,9.99999e-01
8.973502660e-01,7.17635e-01,9.99999e-01,9.99999e-01,9.97266e-01,7.19601e-01,9.99999e-01
9.018370173e-01,7.24075e-01,9.99999e-01,9.99999e-01,9.99697e-01,7.24294e-01,9.99999e-01
9.063462024e-01,7.23486e-01,9.99999e-01,9.99999e-01,9.92540e-01,7.28923e-01,9.99999e-01
9.108779334e-01,7.20670e-01,9.99999e-01,9.99999e-01,9.82521e-01,7.33490e-01,9.99999e-01
9.154323231e-01,7.34915e-01,9.99999e-01,9.99999e-01,9.95827e-01,7.37994e-01,9.99999e-01
9.200094847e-01,6.99246e-01,9.99999e-01,9.99999e-01,9.41825e-01,7.42436e-01,9.99999e-01
9.246095321e-01,6.85087e-01,9.99999e-01,9.99999e-01,9.17342e-01,7.46817e-01,9.99999e-01
9.292325798e-01,7.02490e-01,9.99999e-01,9.99999e-01,9.35236e-01,7.51136e-01,9.99999e-01
9.338787427e-01,7.07596e-01,9.99999e-01,9.99999e-01,9.36724e-01,7.55393e-01,9.99999e-01
9.385481364e-01,7.24016e-01,9.99999e-01,9.99999e-01,9.53165e-01,7.59591e-01,9.99999e-01
9.432408771e-01,7.41556e-01,9.99999e-01,9.99999e-01,9.70968e-01,7.63727e-01,9.99999e-01
9.479570815e-01,7.56330e-01,9.99999e-01,9.99999e-01,9.85055e-01,7.67804e-01,9.99999e-01
9.526968669e-01,7.66228e-01,9.99999e-01,9.99999e-01,9.92751e-01,7.71822e-01,9.99999e-01
9.574603512e-01,7.73371e-01,9.99999e-01,9.99999e-01,9.96892e-01,7.75781e-01,9.99999e-01
9.622476530e-01,7.78924e-01,9.99999e-01,9.99999e-01,9.99028e-01,7.79681e-01,9.99999e-01
9.670588912e-01,7.83295e-01,9.99999e-01,9.99999e-01,9.99707e-01,7.83523e-01,9.99999e-01
9.718941857e-01,7.87291e-01,9.99999e-01,9.99999e-01,9.99978e-01,7.87308e-01,9.99999e-01
9.767536566e-01,7.91035e-01,9.99999e-01,9.99999e-01,9.99999e-01,7.91035e-01,9.99999e-01
9.816374249e-01,7.94707e-01,9.99999e-01,9.99999e-01,9.99999e-01,7.94707e-01,9.99999e-01
9.865456120e-01,7.98322e-01,9.99999e-01,9.99999e-01,9.99999e-01,7.98322e-01,9.99999e-01
9.914783401e-01,8.01882e-01,9.99999e-01,9.99999e-01,9.99999e-01,8.01882e-01,9.99999e-01
9.964357318e-01,8.05386e-01,9.99999e-01,9.99999e-01,9.99999e-01,8.05386e-01,9.99999e-01
1.001417910e+00,8.08837e-01,9.99999e-01,9.99999e-01,9.99999e-01,8.08837e-01,9.99999e-01
1.006425000e+00,8.12233e-01,9.99999e-01,9.99999e-01,9.99999e-01,8.12233e-01,9.99999e-01
1.011457125e+00,8.15577e-01,9.99999e-01,9.99999e-01,9.99999e-01,8.15577e-01,9.99999e-01
1.016514411e+00,8.18868e-01,9.99999e-01,9.99999e-01,9.99999e-01,8.18868e-01,9.99999e-01
1.021596983e+00,8.22077e-01,9.99999e-01,9.99999e-01,9.99964e-01,8.22106e-01,9.99999e-01
1.026704968e+00,8.22900e-01,9.99999e-01,9.99999e-01,9.97100e-01,8.25293e-01,9.99999e-01
1.031838492e+00,7.99842e-01,9.99999e-01,9.99999e-01,9.65491e-01,8.28429e-01,9.99999e-01
1.036997685e+00,1.58770e-01,9.99999e-01,9.99999e-01,1.90940e-01,8.31515e-01,9.99999e-01
1.042182673e+00,1.50309e-01,9.99999e-01,9.99999e-01,1.80108e-01,8.34551e-01,9.99999e-01
1.047393587e+00,1.63898e-01,9.99999e-01,9.99999e-01,1.95690e-01,8.37538e-01,9.99999e-01
1.052630555e+00,8.70718e-03,9.99999e-01,9.99999e-01,1.03598e-02,8.40476e-01,9.99999e-01
1.057893707e+00,1.95968e-02,9.99999e-01,9.99999e-01,2.32364e-02,8.43366e-01,9.99999e-01
1.063183176e+00,5.37940e-02,9.99999e-01,9.99999e-01,6.35706e-02,8.46208e-01,9.99999e-01
1.068499092e+00,1.29121e-01,9.99999e-01,9.99999e-01,1.52085e-01,8.49004e-01,9.99999e-01
1.073841587e+00,2.58349e-01,9.99999e-01,9.99999e-01,3.03314e-01,8.51754e-01,9.99999e-01
1.079210795e+00,4.01895e-01,9.99999e-01,9.99999e-01,4.70351e-01,8.54458e-01,9.99999e-01
1.084606849e+00,5.66254e-01,9.99999e-01,9.99999e-01,6.60649e-01,8.57116e-01,9.99999e-01
1.090029883e+00,6.93614e-01,9.99999e-01,9.99999e-01,8.06780e-01,8.59731e-01,9.99999e-01
1.095480033e+00,7.75645e-01,9.99999e-01,9.99999e-01,8.99505e-01,8.62301e-01,9.99999e-01
1.100957433e+00,8.21844e-01,9.99999e-01,9.99999e-01,9.50296e-01,8.64828e-01,9.99999e-01
1.106462220e+00,8.49201e-01,9.99999e-01,9.99999e-01,9.79117e-01,8.67312e-01,9.99999e-01
1.111994531e+00,8.62980e-01,9.99999e-01,9.99999e-01,9.92210e-01,8.69755e-01,9.99999e-01
1.117554504e+00,8.70484e-01,9.99999e-01,9.99999e-01,9.98083e-01,8.72155e-01,9.99999e-01
1.123142276e+00,8.74404e-01,9.99999e-01,9.99999e-01,9.99872e-01,8.74515e-01,9.99999e-01
1.128757988e+00,8.76834e-01,9.99999e-01,9.99999e-01,9.99999e-01,8.76834e-01,9.99999e-01
1.134401778e+00,8.79114e-01,9.99999e-01,9.99999e-01,9.99999e-01,8.79114e-01,9.99999e-01
1.140073787e+00,8.81354e-01,9.99999e-01,9.99999e-01,9.99999e-01,8.81354e-01,9.99999e-01
1.145774156e+00,8.83555e-01,9.99999e-01,9.99999e-01,9.99999e-01,8.83555e-01,9.99999e-01
1.151503026e+00,8.85718e-01,9.99999e-01,9.99999e-01,9.99999e-01,8.85718e-01,9.99999e-01
1.157260541e+00,8.87844e-01,9.99999e-01,9.99999e-01,9.99999e-01,8.87844e-01,9.99999e-01
1.163046844e+00,8.89933e-01,9.99999e-01,9.99999e-01,9.99999e-01,8.89933e-01,9.99999e-01
1.168862078e+00,8.91985e-01,9.99999e-01,9.99999e-01,9.99999e-01,8.91985e-01,9.99999e-01
1.174706389e+00,8.94001e-01,9.99999e-01,9.99999e-01,9.99999e-01,8.94001e-01,9.99999e-01
1.180579921e+00,8.95982e-01,9.99999e-01,9.99999e-01,9.99999e-01,8.95982e-01,9.99999e-01
1.186482820e+00,8.97925e-01,9.99999e-01,9.99999e-01,9.99995e-01,8.97928e-01,9.99999e-01
1.192415234e+00,8.90591e-01,9.99999e-01,9.99999e-01,9.89721e-01,8.99839e-01,9.99999e-01
1.198377311e+00,5.13048e-01,9.99999e-01,9.99999e-01,5.68968e-01,9.01717e-01,9.99999e-01
1.204369197e+00,2.37020e-09,9.99999e-01,9.99999e-01,2.62317e-09,9.03562e-01,9.99999e-01
1.210391043e+00,9.23247e-33,9.99999e-01,9.99999e-01,1.01974e-32,9.05373e-01,9.99999e-01
1.216442998e+00,1.41713e-28,9.99999e-01,9.99999e-01,1.56217e-28,9.07153e-01,9.99999e-01
1.222525213e+00,3.60395e-28,9.99999e-01,9.99999e-01,3.96517e-28,9.08901e-01,9.99999e-01
1.228637839e+00,8.52484e-22,9.99999e-01,9.99999e-01,9.36160e-22,9.10617e-01,9.99999e-01
