#,Wave/freq,Total,N2,O2,CO2,Rayleigh,CIA
4.000000000e-01,1.24943e-12,9.99999e-01,9.99999e-01,9.99999e-01,1.24943e-12,9.99999e-01
4.020000000e-01,2.14819e-12,9.99999e-01,9.99999e-01,9.99999e-01,2.14819e-12,9.99999e-01
4.040100000e-01,3.65210e-12,9.99999e-01,9.99999e-01,9.99999e-01,3.65210e-12,9.99999e-01
4.060300500e-01,6.14413e-12,9.99999e-01,9.99999e-01,9.99999e-01,6.14413e-12,9.99999e-01
4.080602003e-01,1.02310e-11,9.99999e-01,9.99999e-01,9.99999e-01,1.02310e-11,9.99999e-01
4.101005013e-01,1.68654e-11,9.99999e-01,9.99999e-01,9.99999e-01,1.68654e-11,9.99999e-01
4.121510038e-01,2.75290e-11,9.99999e-01,9.99999e-01,9.99999e-01,2.75290e-11,9.99999e-01
4.142117588e-01,4.45022e-11,9.99999e-01,9.99999e-01,9.99999e-01,4.45022e-11,9.99999e-01
4.162828176e-01,7.12609e-11,9.99999e-01,9.99999e-01,9.99999e-01,7.12609e-11,9.99999e-01
4.183642317e-01,1.13053e-10,9.99999e-01,9.99999e-01,9.99999e-01,1.13053e-10,9.99999e-01
4.204560528e-01,1.77728e-10,9.99999e-01,9.99999e-01,9.99999e-01,1.77728e-10,9.99999e-01
4.225583331e-01,2.76915e-10,9.99999e-01,9.99999e-01,9.99999e-01,2.76915e-10,9.99999e-01
4.246711247e-01,4.27695e-10,9.99999e-01,9.99999e-01,9.99999e-01,4.27695e-10,9.99999e-01
4.267944804e-01,6.54926e-10,9.99999e-01,9.99999e-01,9.99999e-01,6.54926e-10,9.99999e-01
4.289284528e-01,9.94478e-10,9.99999e-01,9.99999e-01,9.99999e-01,9.94478e-10,9.99999e-01
4.310730950e-01,1.49767e-09,9.99999e-01,9.99999e-01,9.99999e-01,1.49767e-09,9.99999e-01
4.332284605e-01,2.23729e-09,9.99999e-01,9.99999e-01,9.99999e-01,2.23729e-09,9.99999e-01
4.353946028e-01,3.31579e-09,9.99999e-01,9.99999e-01,9.99999e-01,3.31579e-09,9.99999e-01
4.375715758e-01,4.87614e-09,9.99999e-01,9.99999e-01,9.99999e-01,4.87614e-09,9.99999e-01
4.397594337e-01,7.11635e-09,9.99999e-01,9.99999e-01,9.99999e-01,7.11635e-09,9.99999e-01
4.419582309e-01,1.03085e-08,9.99999e-01,9.99999e-01,9.99999e-01,1.03085e-08,9.99999e-01
4.441680220e-01,1.48236e-08,9.99999e-01,9.99999e-01,9.99999e-01,1.48236e-08,9.99999e-01
4.463888621e-01,2.11640e-08,9.99999e-01,9.99999e-01,9.99999e-01,2.11640e-08,9.99999e-01
4.486208064e-01,3.00045e-08,9.99999e-01,9.99999e-01,9.99999e-01,3.00045e-08,9.99999e-01
4.508639105e-01,4.22455e-08,9.99999e-01,9.99999e-01,9.99999e-01,4.22455e-08,9.99999e-01
4.531182300e-01,5.90799e-08,9.99999e-01,9.99999e-01,9.99999e-01,5.90799e-08,9.99999e-01
4.553838212e-01,8.20770e-08,9.99999e-01,9.99999e-01,9.99999e-01,8.20770e-08,9.99999e-01
4.576607403e-01,1.13288e-07,9.99999e-01,9.99999e-01,9.99999e-01,1.13288e-07,9.99999e-01
4.599490440e-01,1.55375e-07,9.99999e-01,9.99999e-01,9.99999e-01,1.55375e-07,9.99999e-01
4.622487892e-01,2.11771e-07,9.99999e-01,9.99999e-01,9.99999e-01,2.11771e-07,9.99999e-01
4.645600332e-01,2.86878e-07,9.99999e-01,9.99999e-01,9.99999e-01,2.86878e-07,9.99999e-01
4.668828333e-01,3.86300e-07,9.99999e-01,9.99999e-01,9.99999e-01,3.86300e-07,9.99999e-01
4.692172475e-01,5.17129e-07,9.99999e-01,9.99999e-01,9.99999e-01,5.17129e-07,9.99999e-01
4.715633337e-01,6.88289e-07,9.99999e-01,9.99999e-01,9.99999e-01,6.88289e-07,9.99999e-01
4.739211504e-01,9.10941e-07,9.99999e-01,9.99999e-01,9.99999e-01,9.10941e-07,9.99999e-01
4.762907561e-01,1.19896e-06,9.99999e-01,9.99999e-01,9.99999e-01,1.19896e-06,9.99999e-01
4.786722099e-01,1.56951e-06,9.99999e-01,9.99999e-01,9.99999e-01,1.56951e-06,9.99999e-01
4.810655710e-01,2.04367e-06,9.99999e-01,9.99999e-01,9.99999e-01,2.04367e-06,9.99999e-01
4.834708988e-01,2.64725e-06,9.99999e-01,9.99999e-01,9.99999e-01,2.64725e-06,9.99999e-01
4.858882533e-01,3.41160e-06,9.99999e-01,9.99999e-01,9.99999e-01,3.41160e-06,9.99999e-01
4.883176946e-01,4.37468e-06,9.99999e-01,9.99999e-01,9.99999e-01,4.37468e-06,9.99999e-01
4.907592831e-01,5.58214e-06,9.99999e-01,9.99999e-01,9.99999e-01,5.58214e-06,9.99999e-01
4.932130795e-01,7.08866e-06,9.99999e-01,9.99999e-01,9.99999e-01,7.08866e-06,9.99999e-01
4.956791449e-01,8.95939e-06,9.99999e-01,9.99999e-01,9.99999e-01,8.95939e-06,9.99999e-01
4.981575406e-01,1.12715e-05,9.99999e-01,9.99999e-01,9.99999e-01,1.12715e-05,9.99999e-01
5.006483283e-01,1.41162e-05,9.99999e-01,9.99999e-01,9.99999e-01,1.41162e-05,9.99999e-01
5.031515699e-01,1.76005e-05,9.99999e-01,9.99999e-01,9.99999e-01,1.76005e-05,9.99999e-01
5.056673278e-01,2.18493e-05,9.99999e-01,9.99999e-01,9.99999e-01,2.18493e-05,9.99999e-01
5.081956644e-01,2.70081e-05,9.99999e-01,9.99999e-01,9.99999e-01,2.70081e-05,9.99999e-01
5.107366428e-01,3.32456e-05,9.99999e-01,9.99999e-01,9.99999e-01,3.32456e-05,9.99999e-01
5.132903260e-01,4.07559e-05,9.99999e-01,9.99999e-01,9.99999e-01,4.07559e-05,9.99999e-01
5.158567776e-01,4.97623e-05,9.99999e-01,9.99999e-01,9.99999e-01,4.97623e-05,9.99999e-01
5.184360615e-01,6.05197e-05,9.99999e-01,9.99999e-01,9.99999e-01,6.05197e-05,9.99999e-01
5.210282418e-01,7.33188e-05,9.99999e-01,9.99999e-01,9.99999e-01,7.33188e-05,9.99999e-01
5.236333830e-01,8.84886e-05,9.99999e-01,9.99999e-01,9.99999e-01,8.84886e-05,9.99999e-01
5.262515499e-01,1.06401e-04,9.99999e-01,9.99999e-01,9.99999e-01,1.06401e-04,9.99999e-01
5.288828077e-01,1.27475e-04,9.99999e-01,9.99999e-01,9.99999e-01,1.27475e-04,9.99999e-01
5.315272217e-01,1.52178e-04,9.99999e-01,9.99999e-01,9.99999e-01,1.52178e-04,9.99999e-01
5.341848578e-01,1.81034e-04,9.99999e-01,9.99999e-01,9.99999e-01,1.81034e-04,9.99999e-01
5.368557821e-01,2.14624e-04,9.99999e-01,9.99999e-01,9.99999e-01,2.14624e-04,9.99999e-01
5.395400610e-01,2.53593e-04,9.99999e-01,9.99999e-01,9.99999e-01,2.53593e-04,9.99999e-01
5.422377613e-01,2.98651e-04,9.99999e-01,9.99999e-01,9.99999e-01,2.98651e-04,9.99999e-01
5.449489501e-01,3.50581e-04,9.99999e-01,9.99999e-01,9.99999e-01,3.50581e-04,9.99999e-01
5.476736949e-01,4.10239e-04,9.99999e-01,9.99999e-01,9.99999e-01,4.10239e-04,9.99999e-01
5.504120634e-01,4.78562e-04,9.99999e-01,9.99999e-01,9.99999e-01,4.78562e-04,9.99999e-01
5.531641237e-01,5.56567e-04,9.99999e-01,9.99999e-01,9.99999e-01,5.56567e-04,9.99999e-01
5.559299443e-01,6.45359e-04,9.99999e-01,9.99999e-01,9.99999e-01,6.45359e-04,9.99999e-01
5.587095940e-01,7.46132e-04,9.99999e-01,9.99999e-01,9.99999e-01,7.46132e-04,9.99999e-01
5.615031420e-01,8.60172e-04,9.99999e-01,9.99999e-01,9.99999e-01,8.60172e-04,9.99999e-01
5.643106577e-01,9.88860e-04,9.99999e-01,9.99999e-01,9.99999e-01,9.88860e-04,9.99999e-01
5.671322110e-01,1.13367e-03,9.99999e-01,9.99999e-01,9.99999e-01,1.13367e-03,9.99999e-01
5.699678720e-01,1.29619e-03,9.99999e-01,9.99999e-01,9.99999e-01,1.29619e-03,9.99999e-01
5.728177114e-01,1.47809e-03,9.99999e-01,9.99999e-01,9.99999e-01,1.47809e-03,9.99999e-01
5.756818000e-01,1.68115e-03,9.99999e-01,9.99999e-01,9.99999e-01,1.68115e-03,9.99999e-01
5.785602090e-01,1.90725e-03,9.99999e-01,9.99999e-01,9.99999e-01,1.90725e-03,9.99999e-01
5.814530100e-01,2.15837e-03,9.99999e-01,9.99999e-01,9.99999e-01,2.15837e-03,9.99999e-01
5.843602750e-01,2.43660e-03,9.99999e-01,9.99999e-01,9.99999e-01,2.43660e-03,9.99999e-01
5.872820764e-01,2.74411e-03,9.99999e-01,9.99999e-01,9.99999e-01,2.74411e-03,9.99999e-01
5.902184868e-01,3.08319e-03,9.99999e-01,9.99999e-01,9.99999e-01,3.08319e-03,9.99999e-01
5.931695792e-01,3.45619e-03,9.99999e-01,9.99999e-01,9.99999e-01,3.45619e-03,9.99999e-01
5.961354271e-01,3.86560e-03,9.99999e-01,9.99999e-01,9.99999e-01,3.86560e-03,9.99999e-01
5.991161043e-01,4.31395e-03,9.99999e-01,9.99999e-01,9.99999e-01,4.31395e-03,9.99999e-01
6.021116848e-01,4.80388e-03,9.99999e-01,9.99999e-01,9.99999e-01,4.80388e-03,9.99999e-01
6.051222432e-01,5.33810e-03,9.99999e-01,9.99999e-01,9.99999e-01,5.33810e-03,9.99999e-01
6.081478544e-01,5.91938e-03,9.99999e-01,9.99999e-01,9.99999e-01,5.91938e-03,9.99999e-01
6.111885937e-01,6.55058e-03,9.99999e-01,9.99999e-01,9.99999e-01,6.55058e-03,9.99999e-01
6.142445367e-01,7.23458e-03,9.99999e-01,9.99999e-01,9.99999e-01,7.23458e-03,9.99999e-01
6.173157594e-01,7.97435e-03,9.99999e-01,9.99999e-01,9.99999e-01,7.97435e-03,9.99999e-01
6.204023382e-01,8.77287e-03,9.99999e-01,9.99999e-01,9.99999e-01,8.77287e-03,9.99999e-01
6.235043498e-01,9.63319e-03,9.99999e-01,9.99999e-01,9.99999e-01,9.63319e-03,9.99999e-01
6.266218716e-01,1.05583e-02,9.99999e-01,9.99999e-01,9.99999e-01,1.05583e-02,9.99999e-01
6.297549810e-01,1.15514e-02,9.99999e-01,9.99999e-01,9.99999e-01,1.15514e-02,9.99999e-01
6.329037559e-01,1.26154e-02,9.99999e-01,9.99999e-01,9.99999e-01,1.26154e-02,9.99999e-01
6.360682746e-01,1.37535e-02,9.99999e-01,9.99999e-01,9.99999e-01,1.37535e-02,9.99999e-01
6.392486160e-01,1.49687e-02,9.99999e-01,9.99999e-01,9.99999e-01,1.49687e-02,9.99999e-01
6.424448591e-01,1.62641e-02,9.99999e-01,9.99999e-01,9.99999e-01,1.62641e-02,9.99999e-01
6.456570834e-01,1.76426e-02,9.99999e-01,9.99999e-01,9.99999e-01,1.76426e-02,9.99999e-01
6.488853688e-01,1.91072e-02,9.99999e-01,9.99999e-01,9.99999e-01,1.91072e-02,9.99999e-01
6.521297956e-01,2.06608e-02,9.99999e-01,9.99999e-01,9.99999e-01,2.06608e-02,9.99999e-01
6.553904446e-01,2.23063e-02,9.99999e-01,9.99999e-01,9.99999e-01,2.23063e-02,9.99999e-01
6.586673968e-01,2.40464e-02,9.99999e-01,9.99999e-01,9.99999e-01,2.40464e-02,9.99999e-01
6.619607338e-01,2.58838e-02,9.99999e-01,9.99999e-01,9.99999e-01,2.58838e-02,9.99999e-01
6.652705375e-01,2.78211e-02,9.99999e-01,9.99999e-01,9.99999e-01,2.78211e-02,9.99999e-01
6.685968902e-01,2.98609e-02,9.99999e-01,9.99999e-01,9.99999e-01,2.98609e-02,9.99999e-01
6.719398746e-01,3.20054e-02,9.99999e-01,9.99999e-01,9.99999e-01,3.20054e-02,9.99999e-01
6.752995740e-01,3.42569e-02,9.99999e-01,9.99999e-01,9.99999e-01,3.42569e-02,9.99999e-01
6.786760719e-01,3.66177e-02,9.99999e-01,9.99999e-01,9.99999e-01,3.66177e-02,9.99999e-01
6.820694522e-01,3.90896e-02,9.99999e-01,9.99999e-01,9.99999e-01,3.90896e-02,9.99999e-01
6.854797995e-01,4.16746e-02,9.99999e-01,9.99999e-01,9.99999e-01,4.16746e-02,9.99999e-01
6.889071985e-01,4.43744e-02,9.99999e-01,9.99999e-01,9.99999e-01,4.43744e-02,9.99999e-01
6.923517345e-01,4.71906e-02,9.99999e-01,9.99999e-01,9.99999e-01,4.71906e-02,9.99999e-01
6.958134932e-01,5.01245e-02,9.99999e-01,9.99999e-01,9.99999e-01,5.01245e-02,9.99999e-01
6.992925606e-01,5.31774e-02,9.99999e-01,9.99999e-01,9.99999e-01,5.31774e-02,9.99999e-01
7.027890234e-01,5.63504e-02,9.99999e-01,9.99999e-01,9.99999e-01,5.63504e-02,9.99999e-01
7.063029686e-01,5.96444e-02,9.99999e-01,9.99999e-01,9.99999e-01,5.96444e-02,9.99999e-01
7.098344834e-01,6.30602e-02,9.99999e-01,9.99999e-01,9.99999e-01,6.30602e-02,9.99999e-01
7.133836558e-01,6.65983e-02,9.99999e-01,9.99999e-01,9.99999e-01,6.65983e-02,9.99999e-01
7.169505741e-01,7.02591e-02,9.99999e-01,9.99999e-01,9.99999e-01,7.02591e-02,9.99999e-01
7.205353270e-01,7.40429e-02,9.99999e-01,9.99999e-01,9.99999e-01,7.40429e-02,9.99999e-01
7.241380036e-01,7.79496e-02,9.99999e-01,9.99999e-01,9.99999e-01,7.79496e-02,9.99999e-01
7.277586936e-01,8.19791e-02,9.99999e-01,9.99999e-01,9.99999e-01,8.19791e-02,9.99999e-01
7.313974871e-01,8.61311e-02,9.99999e-01,9.99999e-01,9.99999e-01,8.61311e-02,9.99999e-01
7.350544745e-01,9.04052e-02,9.99999e-01,9.99999e-01,9.99999e-01,9.04052e-02,9.99999e-01
7.387297469e-01,9.48006e-02,9.99999e-01,9.99999e-01,9.99999e-01,9.48006e-02,9.99999e-01
7.424233956e-01,9.93166e-02,9.99999e-01,9.99999e-01,9.99999e-01,9.93166e-02,9.99999e-01
7.461355126e-01,1.03952e-01,9.99999e-01,9.99999e-01,9.99999e-01,1.03952e-01,9.99999e-01
7.498661902e-01,1.08706e-01,9.99999e-01,9.99999e-01,9.99999e-01,1.08706e-01,9.99999e-01
7.536155211e-01,1.13577e-01,9.99999e-01,9.99999e-01,9.99999e-01,1.13577e-01,9.99999e-01
7.573835987e-01,1.18563e-01,9.99999e-01,9.99999e-01,9.99999e-01,1.18563e-01,9.99999e-01
7.611705167e-01,1.23663e-01,9.99999e-01,9.99999e-01,9.99999e-01,1.23663e-01,9.99999e-01
7.649763693e-01,1.28876e-01,9.99999e-01,9.99999e-01,9.99999e-01,1.28876e-01,9.99999e-01
7.688012511e-01,1.34199e-01,9.99999e-01,9.99999e-01,9.99999e-01,1.34199e-01,9.99999e-01
7.726452574e-01,1.39630e-01,9.99999e-01,9.99999e-01,9.99999e-01,1.39630e-01,9.99999e-01
7.765084837e-01,1.45166e-01,9.99999e-01,9.99999e-01,9.99999e-01,1.45166e-01,9.99999e-01
7.803910261e-01,1.39410e-01,9.99999e-01,9.99999e-01,9.24424e-01,1.50807e-01,9.99999e-01
7.842929812e-01,1.07508e-01,9.99999e-01,9.99999e-01,6.86741e-01,1.56549e-01,9.99999e-01
7.882144461e-01,1.09033e-01,9.99999e-01,9.99999e-01,6.71432e-01,1.62389e-01,9.99999e-01
7.921555184e-01,1.32124e-01,9.99999e-01,9.99999e-01,7.84928e-01,1.68326e-01,9.99999e-01
7.961162960e-01,1.48072e-01,9.99999e-01,9.99999e-01,8.49251e-01,1.74356e-01,9.99999e-01
8.000968774e-01,1.65158e-01,9.99999e-01,9.99999e-01,9.15124e-01,1.80476e-01,9.99999e-01
8.040973618e-01,1.78294e-01,9.99999e-01,9.99999e-01,9.55055e-01,1.86684e-01,9.99999e-01
8.081178486e-01,1.88941e-01,9.99999e-01,9.99999e-01,9.79086e-01,1.92977e-01,9.99999e-01
8.121584379e-01,1.98056e-01,9.99999e-01,9.99999e-01,9.93502e-01,1.99351e-01,9.99999e-01
8.162192301e-01,2.05507e-01,9.99999e-01,9.99999e-01,9.98561e-01,2.05803e-01,9.99999e-01
8.203003262e-01,2.12326e-01,9.99999e-01,9.99999e-01,9.99978e-01,2.12331e-01,9.99999e-01
8.244018279e-01,2.18930e-01,9.99999e-01,9.99999e-01,9.99999e-01,2.18930e-01,9.99999e-01
8.285238370e-01,2.25599e-01,9.99999e-01,9.99999e-01,9.99999e-01,2.25599e-01,9.99999e-01
8.326664562e-01,2.32332e-01,9.99999e-01,9.99999e-01,9.99999e-01,2.32332e-01,9.99999e-01
8.368297885e-01,2.39128e-01,9.99999e-01,9.99999e-01,9.99999e-01,2.39128e-01,9.99999e-01
8.410139374e-01,2.45983e-01,9.99999e-01,9.99999e-01,9.99999e-01,2.45983e-01,9.99999e-01
8.452190071e-01,2.52892e-01,9.99999e-01,9.99999e-01,9.99999e-01,2.52892e-01,9.99999e-01
8.494451021e-01,2.59854e-01,9.99999e-01,9.99999e-01,9.99999e-01,2.59854e-01,9.99999e-01
8.536923276e-01,2.66864e-01,9.99999e-01,9.99999e-01,9.99999e-01,2.66864e-01,9.99999e-01
8.579607893e-01,2.73919e-01,9.99999e-01,9.99999e-01,9.99999e-01,2.73919e-01,9.99999e-01
8.622505932e-01,2.81015e-01,9.99999e-01,9.99999e-01,9.99999e-01,2.81015e-01,9.99999e-01
8.665618462e-01,2.53056e-01,9.99999e-01,9.99999e-01,8.78208e-01,2.88150e-01,9.99999e-01
8.708946554e-01,1.16546e-01,9.99999e-01,9.99999e-01,3.94643e-01,2.95320e-01,9.99999e-01
8.752491287e-01,1.40192e-01,9.99999e-01,9.99999e-01,4.63410e-01,3.02521e-01,9.99999e-01
8.796253743e-01,2.01238e-01,9.99999e-01,9.99999e-01,6.49676e-01,3.09751e-01,9.99999e-01
8.840235012e-01,2.52663e-01,9.99999e-01,9.99999e-01,7.97031e-01,3.17005e-01,9.99999e-01
8.884436187e-01,2.96422e-01,9.99999e-01,9.99999e-01,9.14089e-01,3.24281e-01,9.99999e-01
8.928858368e-01,3.19702e-01,9.99999e-01,9.99999e-01,9.64192e-01,3.31575e-01,9.99999e-01
8.973502660e-01,3.35899e-01,9.99999e-01,9.99999e-01,9.91189e-01,3.38884e-01,9.99999e-01
9.018370173e-01,3.45868e-01,9.99999e-01,9.99999e-01,9.99025e-01,3.46206e-01,9.99999e-01
9.063462024e-01,3.44880e-01,9.99999e-01,9.99999e-01,9.75515e-01,3.53536e-01,9.99999e-01
9.108779334e-01,3.40721e-01,9.99999e-01,9.99999e-01,9.44159e-01,3.60872e-01,9.99999e-01
9.154323231e-01,3.63282e-01,9.99999e-01,9.99999e-01,9.86613e-01,3.68211e-01,9.99999e-01
9.200094847e-01,3.14506e-01,9.99999e-01,9.99999e-01,8.37456e-01,3.75549e-01,9.99999e-01
9.246095321e-01,2.89391e-01,9.99999e-01,9.99999e-01,7.55816e-01,3.82885e-01,9.99999e-01
9.292325798e-01,3.14219e-01,9.99999e-01,9.99999e-01,8.05246e-01,3.90215e-01,9.99999e-01
9.338787427e-01,3.21883e-01,9.99999e-01,9.99999e-01,8.09694e-01,3.97536e-01,9.99999e-01
9.385481364e-01,3.46330e-01,9.99999e-01,9.99999e-01,8.55460e-01,4.04846e-01,9.99999e-01
9.432408771e-01,3.74438e-01,9.99999e-01,9.99999e-01,9.08517e-01,4.12142e-01,9.99999e-01
9.479570815e-01,3.99258e-01,9.99999e-01,9.99999e-01,9.51924e-01,4.19421e-01,9.99999e-01
9.526968669e-01,4.16676e-01,9.99999e-01,9.99999e-01,9.76548e-01,4.26682e-01,9.99999e-01
9.574603512e-01,4.29538e-01,9.99999e-01,9.99999e-01,9.89898e-01,4.33921e-01,9.99999e-01
9.622476530e-01,4.39742e-01,9.99999e-01,9.99999e-01,9.96838e-01,4.41136e-01,9.99999e-01
9.670588912e-01,4.47900e-01,9.99999e-01,9.99999e-01,9.99052e-01,4.48325e-01,9.99999e-01
9.718941857e-01,4.55456e-01,9.99999e-01,9.99999e-01,9.99932e-01,4.55486e-01,9.99999e-01
9.767536566e-01,4.62616e-01,9.99999e-01,9.99999e-01,9.99999e-01,4.62616e-01,9.99999e-01
9.816374249e-01,4.69714e-01,9.99999e-01,9.99999e-01,9.99999e-01,4.69714e-01,9.99999e-01
9.865456120e-01,4.76777e-01,9.99999e-01,9.99999e-01,9.99999e-01,4.76777e-01,9.99999e-01
9.914783401e-01,4.83804e-01,9.99999e-01,9.99999e-01,9.99999e-01,4.83804e-01,9.99999e-01
9.964357318e-01,4.90793e-01,9.99999e-01,9.99999e-01,9.99999e-01,4.90793e-01,9.99999e-01
1.001417910e+00,4.97741e-01,9.99999e-01,9.99999e-01,9.99999e-01,4.97741e-01,9.99999e-01
1.006425000e+00,5.04648e-01,9.99999e-01,9.99999e-01,9.99999e-01,5.04648e-01,9.99999e-01
1.011457125e+00,5.11512e-01,9.99999e-01,9.99999e-01,9.99999e-01,5.11512e-01,9.99999e-01
1.016514411e+00,5.18330e-01,9.99999e-01,9.99999e-01,9.99999e-01,5.18330e-01,9.99999e-01
1.021596983e+00,5.25032e-01,9.99999e-01,9.99999e-01,9.99865e-01,5.25102e-01,9.99999e-01
1.026704968e+00,5.26660e-01,9.99999e-01,9.99999e-01,9.90286e-01,5.31826e-01,9.99999e-01
1.031838492e+00,4.92987e-01,9.99999e-01,9.99999e-01,9.15480e-01,5.38500e-01,9.99999e-01
1.036997685e+00,3.38164e-02,9.99999e-01,9.99999e-01,6.20342e-02,5.45125e-01,9.99999e-01
1.042182673e+00,4.17380e-03,9.99999e-01,9.99999e-01,7.56538e-03,5.51697e-01,9.99999e-01
1.047393587e+00,9.49753e-03,9.99999e-01,9.99999e-01,1.70140e-02,5.58217e-01,9.99999e-01
1.052630555e+00,3.89758e-06,9.99999e-01,9.99999e-01,6.90225e-06,5.64682e-01,9.99999e-01
1.057893707e+00,1.44795e-05,9.99999e-01,9.99999e-01,2.53540e-05,5.71093e-01,9.99999e-01
1.063183176e+00,2.20792e-04,9.99999e-01,9.99999e-01,3.82358e-04,5.77447e-01,9.99999e-01
1.068499092e+00,1.70166e-03,9.99999e-01,9.99999e-01,2.91508e-03,5.83745e-01,9.99999e-01
1.073841587e+00,1.39819e-02,9.99999e-01,9.99999e-01,2.36987e-02,5.89984e-01,9.99999e-01
1.079210795e+00,5.64689e-02,9.99999e-01,9.99999e-01,9.47200e-02,5.96166e-01,9.99999e-01
1.084606849e+00,1.59428e-01,9.99999e-01,9.99999e-01,2.64703e-01,6.02288e-01,9.99999e-01
1.090029883e+00,3.03563e-01,9.99999e-01,9.99999e-01,4.98993e-01,6.08350e-01,9.99999e-01
1.095480033e+00,4.35729e-01,9.99999e-01,9.99999e-01,7.09249e-01,6.14351e-01,9.99999e-01
1.100957433e+00,5.25308e-01,9.99999e-01,9.99999e-01,8.46871e-01,6.20292e-01,9.99999e-01
1.106462220e+00,5.84534e-01,9.99999e-01,9.99999e-01,9.33504e-01,6.26171e-01,9.99999e-01
1.111994531e+00,6.16059e-01,9.99999e-01,9.99999e-01,9.74794e-01,6.31988e-01,9.99999e-01
1.117554504e+00,6.33783e-01,9.99999e-01,9.99999e-01,9.93791e-01,6.37742e-01,9.99999e-01
1.123142276e+00,6.43171e-01,9.99999e-01,9.99999e-01,9.99591e-01,6.43434e-01,9.99999e-01
1.128757988e+00,6.49062e-01,9.99999e-01,9.99999e-01,9.99999e-01,6.49062e-01,9.99999e-01
1.134401778e+00,6.54628e-01,9.99999e-01,9.99999e-01,9.99999e-01,6.54628e-01,9.99999e-01
1.140073787e+00,6.60129e-01,9.99999e-01,9.99999e-01,9.99999e-01,6.60129e-01,9.99999e-01
1.145774156e+00,6.65567e-01,9.99999e-01,9.99999e-01,9.99999e-01,6.65567e-01,9.99999e-01
1.151503026e+00,6.70940e-01,9.99999e-01,9.99999e-01,9.99999e-01,6.70940e-01,9.99999e-01
1.157260541e+00,6.76250e-01,9.99999e-01,9.99999e-01,9.99999e-01,6.76250e-01,9.99999e-01
1.163046844e+00,6.81496e-01,9.99999e-01,9.99999e-01,9.99999e-01,6.81496e-01,9.99999e-01
1.168862078e+00,6.86677e-01,9.99999e-01,9.99999e-01,9.99999e-01,6.86677e-01,9.99999e-01
1.174706389e+00,6.91795e-01,9.99999e-01,9.99999e-01,9.99999e-01,6.91795e-01,9.99999e-01
1.180579921e+00,6.96848e-01,9.99999e-01,9.99999e-01,9.99999e-01,6.96848e-01,9.99999e-01
1.186482820e+00,7.01825e-01,9.99999e-01,9.99999e-01,9.99981e-01,7.01837e-01,9.99999e-01
1.192415234e+00,6.83148e-01,9.99999e-01,9.99999e-01,9.66587e-01,7.06763e-01,9.99999e-01
1.198377311e+00,3.75181e-01,9.99999e-01,9.99999e-01,5.27217e-01,7.11624e-01,9.99999e-01
1.204369197e+00,1.31087e-25,9.99999e-01,9.99999e-01,1.82974e-25,7.16423e-01,9.99999e-01
1.210391043e+00,1.32483e-102,9.99999e-01,9.99999e-01,1.83708e-102,7.21157e-01,9.99999e-01
1.216442998e+00,7.77074e-89,9.99999e-01,9.99999e-01,1.07060e-88,7.25829e-01,9.99999e-01
1.222525213e+00,1.65383e-87,9.99999e-01,9.99999e-01,2.26416e-87,7.30438e-01,9.99999e-01
1.228637839e+00,1.43749e-67,9.99999e-01,9.99999e-01,1.95581e-67,7.34984e-01,9.99999e-01
