#,Wave/freq,Total,N2,O2,CO2,Rayleigh,CIA
4.000000000e-01,1.14635e-15,9.99999e-01,9.99999e-01,9.99999e-01,1.14635e-15,9.99999e-01
4.020000000e-01,2.26323e-15,9.99999e-01,9.99999e-01,9.99999e-01,2.26323e-15,9.99999e-01
4.040100000e-01,4.40564e-15,9.99999e-01,9.99999e-01,9.99999e-01,4.40564e-15,9.99999e-01
4.060300500e-01,8.46399e-15,9.99999e-01,9.99999e-01,9.99999e-01,8.46399e-15,9.99999e-01
4.080602003e-01,1.60524e-14,9.99999e-01,9.99999e-01,9.99999e-01,1.60524e-14,9.99999e-01
4.101005013e-01,3.00618e-14,9.99999e-01,9.99999e-01,9.99999e-01,3.00618e-14,9.99999e-01
4.121510038e-01,5.56043e-14,9.99999e-01,9.99999e-01,9.99999e-01,5.56043e-14,9.99999e-01
4.142117588e-01,1.01607e-13,9.99999e-01,9.99999e-01,9.99999e-01,1.01607e-13,9.99999e-01
4.162828176e-01,1.83472e-13,9.99999e-01,9.99999e-01,9.99999e-01,1.83472e-13,9.99999e-01
4.183642317e-01,3.27451e-13,9.99999e-01,9.99999e-01,9.99999e-01,3.27451e-13,9.99999e-01
4.204560528e-01,5.77768e-13,9.99999e-01,9.99999e-01,9.99999e-01,5.77768e-13,9.99999e-01
4.225583331e-01,1.00807e-12,9.99999e-01,9.99999e-01,9.99999e-01,1.00807e-12,9.99999e-01
4.246711247e-01,1.73960e-12,9.99999e-01,9.99999e-01,9.99999e-01,1.73960e-12,9.99999e-01
4.267944804e-01,2.96982e-12,9.99999e-01,9.99999e-01,9.99999e-01,2.96982e-12,9.99999e-01
4.289284528e-01,5.01675e-12,9.99999e-01,9.99999e-01,9.99999e-01,5.01675e-12,9.99999e-01
4.310730950e-01,8.38720e-12,9.99999e-01,9.99999e-01,9.99999e-01,8.38720e-12,9.99999e-01
4.332284605e-01,1.38804e-11,9.99999e-01,9.99999e-01,9.99999e-01,1.38804e-11,9.99999e-01
4.353946028e-01,2.27440e-11,9.99999e-01,9.99999e-01,9.99999e-01,2.27440e-11,9.99999e-01
4.375715758e-01,3.69059e-11,9.99999e-01,9.99999e-01,9.99999e-01,3.69059e-11,9.99999e-01
4.397594337e-01,5.93159e-11,9.99999e-01,9.99999e-01,9.99999e-01,5.93159e-11,9.99999e-01
4.419582309e-01,9.44445e-11,9.99999e-01,9.99999e-01,9.99999e-01,9.44445e-11,9.99999e-01
4.441680220e-01,1.49002e-10,9.99999e-01,9.99999e-01,9.99999e-01,1.49002e-10,9.99999e-01
4.463888621e-01,2.32968e-10,9.99999e-01,9.99999e-01,9.99999e-01,2.32968e-10,9.99999e-01
4.486208064e-01,3.61048e-10,9.99999e-01,9.99999e-01,9.99999e-01,3.61048e-10,9.99999e-01
4.508639105e-01,5.54724e-10,9.99999e-01,9.99999e-01,9.99999e-01,5.54724e-10,9.99999e-01
4.531182300e-01,8.45092e-10,9.99999e-01,9.99999e-01,9.99999e-01,8.45092e-10,9.99999e-01
4.553838212e-01,1.27679e-09,9.99999e-01,9.99999e-01,9.99999e-01,1.27679e-09,9.99999e-01
4.576607403e-01,1.91336e-09,9.99999e-01,9.99999e-01,9.99999e-01,1.91336e-09,9.99999e-01
4.599490440e-01,2.84448e-09,9.99999e-01,9.99999e-01,9.99999e-01,2.84448e-09,9.99999e-01
4.622487892e-01,4.19573e-09,9.99999e-01,9.99999e-01,9.99999e-01,4.19573e-09,9.99999e-01
4.645600332e-01,6.14154e-09,9.99999e-01,9.99999e-01,9.99999e-01,6.14154e-09,9.99999e-01
4.668828333e-01,8.92235e-09,9.99999e-01,9.99999e-01,9.99999e-01,8.92235e-09,9.99999e-01
4.692172475e-01,1.28670e-08,9.99999e-01,9.99999e-01,9.99999e-01,1.28670e-08,9.99999e-01
4.715633337e-01,1.84219e-08,9.99999e-01,9.99999e-01,9.99999e-01,1.84219e-08,9.99999e-01
4.739211504e-01,2.61887e-08,9.99999e-01,9.99999e-01,9.99999e-01,2.61887e-08,9.99999e-01
4.762907561e-01,3.69721e-08,9.99999e-01,9.99999e-01,9.99999e-01,3.69721e-08,9.99999e-01
4.786722099e-01,5.18415e-08,9.99999e-01,9.99999e-01,9.99999e-01,5.18415e-08,9.99999e-01
4.810655710e-01,7.22072e-08,9.99999e-01,9.99999e-01,9.99999e-01,7.22072e-08,9.99999e-01
4.834708988e-01,9.99174e-08,9.99999e-01,9.99999e-01,9.99999e-01,9.99174e-08,9.99999e-01
4.858882533e-01,1.37378e-07,9.99999e-01,9.99999e-01,9.99999e-01,1.37378e-07,9.99999e-01
4.883176946e-01,1.87698e-07,9.99999e-01,9.99999e-01,9.99999e-01,1.87698e-07,9.99999e-01
4.907592831e-01,2.54873e-07,9.99999e-01,9.99999e-01,9.99999e-01,2.54873e-07,9.99999e-01
4.932130795e-01,3.44006e-07,9.99999e-01,9.99999e-01,9.99999e-01,3.44006e-07,9.99999e-01
4.956791449e-01,4.61567e-07,9.99999e-01,9.99999e-01,9.99999e-01,4.61567e-07,9.99999e-01
4.981575406e-01,6.15718e-07,9.99999e-01,9.99999e-01,9.99999e-01,6.15718e-07,9.99999e-01
5.006483283e-01,8.16690e-07,9.99999e-01,9.99999e-01,9.99999e-01,8.16690e-07,9.99999e-01
5.031515699e-01,1.07723e-06,9.99999e-01,9.99999e-01,9.99999e-01,1.07723e-06,9.99999e-01
5.056673278e-01,1.41314e-06,9.99999e-01,9.99999e-01,9.99999e-01,1.41314e-06,9.99999e-01
5.081956644e-01,1.84389e-06,9.99999e-01,9.99999e-01,9.99999e-01,1.84389e-06,9.99999e-01
5.107366428e-01,2.39332e-06,9.99999e-01,9.99999e-01,9.99999e-01,2.39332e-06,9.99999e-01
5.132903260e-01,3.09050e-06,9.99999e-01,9.99999e-01,9.99999e-01,3.09050e-06,9.99999e-01
5.158567776e-01,3.97067e-06,9.99999e-01,9.99999e-01,9.99999e-01,3.97067e-06,9.99999e-01
5.184360615e-01,5.07633e-06,9.99999e-01,9.99999e-01,9.99999e-01,5.07633e-06,9.99999e-01
5.210282418e-01,6.45845e-06,9.99999e-01,9.99999e-01,9.99999e-01,6.45845e-06,9.99999e-01
5.236333830e-01,8.17789e-06,9.99999e-01,9.99999e-01,9.99999e-01,8.17789e-06,9.99999e-01
5.262515499e-01,1.03069e-05,9.99999e-01,9.99999e-01,9.99999e-01,1.03069e-05,9.99999e-01
5.288828077e-01,1.29310e-05,9.99999e-01,9.99999e-01,9.99999e-01,1.29310e-05,9.99999e-01
5.315272217e-01,1.61506e-05,9.99999e-01,9.99999e-01,9.99999e-01,1.61506e-05,9.99999e-01
5.341848578e-01,2.00835e-05,9.99999e-01,9.99999e-01,9.99999e-01,2.00835e-05,9.99999e-01
5.368557821e-01,2.48668e-05,9.99999e-01,9.99999e-01,9.99999e-01,2.48668e-05,9.99999e-01
5.395400610e-01,3.06597e-05,9.99999e-01,9.99999e-01,9.99999e-01,3.06597e-05,9.99999e-01
5.422377613e-01,3.76461e-05,9.99999e-01,9.99999e-01,9.99999e-01,3.76461e-05,9.99999e-01
5.449489501e-01,4.60373e-05,9.99999e-01,9.99999e-01,9.99999e-01,4.60373e-05,9.99999e-01
5.476736949e-01,5.60757e-05,9.99999e-01,9.99999e-01,9.99999e-01,5.60757e-05,9.99999e-01
5.504120634e-01,6.80372e-05,9.99999e-01,9.99999e-01,9.99999e-01,6.80372e-05,9.99999e-01
5.531641237e-01,8.22357e-05,9.99999e-01,9.99999e-01,9.99999e-01,8.22357e-05,9.99999e-01
5.559299443e-01,9.90257e-05,9.99999e-01,9.99999e-01,9.99999e-01,9.90257e-05,9.99999e-01
5.587095940e-01,1.18807e-04,9.99999e-01,9.99999e-01,9.99999e-01,1.18807e-04,9.99999e-01
5.615031420e-01,1.42028e-04,9.99999e-01,9.99999e-01,9.99999e-01,1.42028e-04,9.99999e-01
5.643106577e-01,1.69190e-04,9.99999e-01,9.99999e-01,9.99999e-01,1.69190e-04,9.99999e-01
5.671322110e-01,2.00850e-04,9.99999e-01,9.99999e-01,9.99999e-01,2.00850e-04,9.99999e-01
5.699678720e-01,2.37629e-04,9.99999e-01,9.99999e-01,9.99999e-01,2.37629e-04,9.99999e-01
5.728177114e-01,2.80211e-04,9.99999e-01,9.99999e-01,9.99999e-01,2.80211e-04,9.99999e-01
5.756818000e-01,3.29349e-04,9.99999e-01,9.99999e-01,9.99999e-01,3.29349e-04,9.99999e-01
5.785602090e-01,3.85870e-04,9.99999e-01,9.99999e-01,9.99999e-01,3.85870e-04,9.99999e-01
5.814530100e-01,4.50679e-04,9.99999e-01,9.99999e-01,9.99999e-01,4.50679e-04,9.99999e-01
5.843602750e-01,5.24761e-04,9.99999e-01,9.99999e-01,9.99999e-01,5.24761e-04,9.99999e-01
5.872820764e-01,6.09187e-04,9.99999e-01,9.99999e-01,9.99999e-01,6.09187e-04,9.99999e-01
5.902184868e-01,7.05114e-04,9.99999e-01,9.99999e-01,9.99999e-01,7.05114e-04,9.99999e-01
5.931695792e-01,8.13793e-04,9.99999e-01,9.99999e-01,9.99999e-01,8.13793e-04,9.99999e-01
5.961354271e-01,9.36568e-04,9.99999e-01,9.99999e-01,9.99999e-01,9.36568e-04,9.99999e-01
5.991161043e-01,1.07488e-03,9.99999e-01,9.99999e-01,9.99999e-01,1.07488e-03,9.99999e-01
6.021116848e-01,1.23026e-03,9.99999e-01,9.99999e-01,9.99999e-01,1.23026e-03,9.99999e-01
6.051222432e-01,1.40435e-03,9.99999e-01,9.99999e-01,9.99999e-01,1.40435e-03,9.99999e-01
6.081478544e-01,1.59890e-03,9.99999e-01,9.99999e-01,9.99999e-01,1.59890e-03,9.99999e-01
6.111885937e-01,1.81573e-03,9.99999e-01,9.99999e-01,9.99999e-01,1.81573e-03,9.99999e-01
6.142445367e-01,2.05680e-03,9.99999e-01,9.99999e-01,9.99999e-01,2.05680e-03,9.99999e-01
6.173157594e-01,2.32415e-03,9.99999e-01,9.99999e-01,9.99999e-01,2.32415e-03,9.99999e-01
6.204023382e-01,2.61991e-03,9.99999e-01,9.99999e-01,9.99999e-01,2.61991e-03,9.99999e-01
6.235043498e-01,2.94633e-03,9.99999e-01,9.99999e-01,9.99999e-01,2.94633e-03,9.99999e-01
6.266218716e-01,3.30575e-03,9.99999e-01,9.99999e-01,9.99999e-01,3.30575e-03,9.99999e-01
6.297549810e-01,3.70059e-03,9.99999e-01,9.99999e-01,9.99999e-01,3.70059e-03,9.99999e-01
6.329037559e-01,4.13336e-03,9.99999e-01,9.99999e-01,9.99999e-01,4.13336e-03,9.99999e-01
6.360682746e-01,4.60667e-03,9.99999e-01,9.99999e-01,9.99999e-01,4.60667e-03,9.99999e-01
6.392486160e-01,5.12320e-03,9.99999e-01,9.99999e-01,9.99999e-01,5.12320e-03,9.99999e-01
6.424448591e-01,5.68569e-03,9.99999e-01,9.99999e-01,9.99999e-01,5.68569e-03,9.99999e-01
6.456570834e-01,6.29697e-03,9.99999e-01,9.99999e-01,9.99999e-01,6.29697e-03,9.99999e-01
6.488853688e-01,6.95992e-03,9.99999e-01,9.99999e-01,9.99999e-01,6.95992e-03,9.99999e-01
6.521297956e-01,7.67747e-03,9.99999e-01,9.99999e-01,9.99999e-01,7.67747e-03,9.99999e-01
6.553904446e-01,8.45260e-03,9.99999e-01,9.99999e-01,9.99999e-01,8.45260e-03,9.99999e-01
6.586673968e-01,9.28833e-03,9.99999e-01,9.99999e-01,9.99999e-01,9.28833e-03,9.99999e-01
6.619607338e-01,1.01877e-02,9.99999e-01,9.99999e-01,9.99999e-01,1.01877e-02,9.99999e-01
6.652705375e-01,1.11538e-02,9.99999e-01,9.99999e-01,9.99999e-01,1.11538e-02,9.99999e-01
6.685968902e-01,1.21896e-02,9.99999e-01,9.99999e-01,9.99999e-01,1.21896e-02,9.99999e-01
6.719398746e-01,1.32983e-02,9.99999e-01,9.99999e-01,9.99999e-01,1.32983e-02,9.99999e-01
6.752995740e-01,1.44829e-02,9.99999e-01,9.99999e-01,9.99999e-01,1.44829e-02,9.99999e-01
6.786760719e-01,1.57465e-02,9.99999e-01,9.99999e-01,9.99999e-01,1.57465e-02,9.99999e-01
6.820694522e-01,1.70920e-02,9.99999e-01,9.99999e-01,9.99999e-01,1.70920e-02,9.99999e-01
6.854797995e-01,1.85225e-02,9.99999e-01,9.99999e-01,9.99999e-01,1.85225e-02,9.99999e-01
6.889071985e-01,2.00409e-02,9.99999e-01,9.99999e-01,9.99999e-01,2.00409e-02,9.99999e-01
6.923517345e-01,2.16500e-02,9.99999e-01,9.99999e-01,9.99999e-01,2.16500e-02,9.99999e-01
6.958134932e-01,2.33527e-02,9.99999e-01,9.99999e-01,9.99999e-01,2.33527e-02,9.99999e-01
6.992925606e-01,2.51517e-02,9.99999e-01,9.99999e-01,9.99999e-01,2.51517e-02,9.99999e-01
7.027890234e-01,2.70495e-02,9.99999e-01,9.99999e-01,9.99999e-01,2.70495e-02,9.99999e-01
7.063029686e-01,2.90488e-02,9.99999e-01,9.99999e-01,9.99999e-01,2.90488e-02,9.99999e-01
7.098344834e-01,3.11520e-02,9.99999e-01,9.99999e-01,9.99999e-01,3.11520e-02,9.99999e-01
7.133836558e-01,3.33613e-02,9.99999e-01,9.99999e-01,9.99999e-01,3.33613e-02,9.99999e-01
7.169505741e-01,3.56790e-02,9.99999e-01,9.99999e-01,9.99999e-01,3.56790e-02,9.99999e-01
7.205353270e-01,3.81071e-02,9.99999e-01,9.99999e-01,9.99999e-01,3.81071e-02,9.99999e-01
7.241380036e-01,4.06475e-02,9.99999e-01,9.99999e-01,9.99999e-01,4.06475e-02,9.99999e-01
7.277586936e-01,4.33021e-02,9.99999e-01,9.99999e-01,9.99999e-01,4.33021e-02,9.99999e-01
7.313974871e-01,4.60725e-02,9.99999e-01,9.99999e-01,9.99999e-01,4.60725e-02,9.99999e-01
7.350544745e-01,4.89601e-02,9.99999e-01,9.99999e-01,9.99999e-01,4.89601e-02,9.99999e-01
7.387297469e-01,5.19662e-02,9.99999e-01,9.99999e-01,9.99999e-01,5.19662e-02,9.99999e-01
7.424233956e-01,5.50920e-02,9.99999e-01,9.99999e-01,9.99999e-01,5.50920e-02,9.99999e-01
7.461355126e-01,5.83385e-02,9.99999e-01,9.99999e-01,9.99999e-01,5.83385e-02,9.99999e-01
7.498661902e-01,6.17065e-02,9.99999e-01,9.99999e-01,9.99999e-01,6.17065e-02,9.99999e-01
7.536155211e-01,6.51965e-02,9.99999e-01,9.99999e-01,9.99999e-01,6.51965e-02,9.99999e-01
7.573835987e-01,6.88092e-02,9.99999e-01,9.99999e-01,9.99999e-01,6.88092e-02,9.99999e-01
7.611705167e-01,7.25447e-02,9.99999e-01,9.99999e-01,9.99999e-01,7.25447e-02,9.99999e-01
7.649763693e-01,7.64032e-02,9.99999e-01,9.99999e-01,9.99999e-01,7.64032e-02,9.99999e-01
7.688012511e-01,8.03846e-02,9.99999e-01,9.99999e-01,9.99999e-01,8.03846e-02,9.99999e-01
7.726452574e-01,8.44887e-02,9.99999e-01,9.99999e-01,9.99999e-01,8.44887e-02,9.99999e-01
7.765084837e-01,8.87150e-02,9.99999e-01,9.99999e-01,9.99999e-01,8.87150e-02,9.99999e-01
7.803910261e-01,8.43165e-02,9.99999e-01,9.99999e-01,9.06015e-01,9.30629e-02,9.99999e-01
7.842929812e-01,6.14682e-02,9.99999e-01,9.99999e-01,6.30237e-01,9.75317e-02,9.99999e-01
7.882144461e-01,6.24988e-02,9.99999e-01,9.99999e-01,6.12010e-01,1.02120e-01,9.99999e-01
7.921555184e-01,7.89058e-02,9.99999e-01,9.99999e-01,7.38624e-01,1.06828e-01,9.99999e-01
7.961162960e-01,9.11065e-02,9.99999e-01,9.99999e-01,8.15977e-01,1.11653e-01,9.99999e-01
8.000968774e-01,1.04379e-01,9.99999e-01,9.99999e-01,8.95228e-01,1.16594e-01,9.99999e-01
8.040973618e-01,1.14893e-01,9.99999e-01,9.99999e-01,9.44451e-01,1.21650e-01,9.99999e-01
8.081178486e-01,1.23516e-01,9.99999e-01,9.99999e-01,9.73949e-01,1.26819e-01,9.99999e-01
8.121584379e-01,1.31041e-01,9.99999e-01,9.99999e-01,9.91993e-01,1.32099e-01,9.99999e-01
8.162192301e-01,1.37243e-01,9.99999e-01,9.99999e-01,9.98224e-01,1.37488e-01,9.99999e-01
8.203003262e-01,1.42980e-01,9.99999e-01,9.99999e-01,9.99976e-01,1.42983e-01,9.99999e-01
8.244018279e-01,1.48583e-01,9.99999e-01,9.99999e-01,9.99999e-01,1.48583e-01,9.99999e-01
8.285238370e-01,1.54286e-01,9.99999e-01,9.99999e-01,9.99999e-01,1.54286e-01,9.99999e-01
8.326664562e-01,1.60088e-01,9.99999e-01,9.99999e-01,9.99999e-01,1.60088e-01,9.99999e-01
8.368297885e-01,1.65987e-01,9.99999e-01,9.99999e-01,9.99999e-01,1.65987e-01,9.99999e-01
8.410139374e-01,1.71981e-01,9.99999e-01,9.99999e-01,9.99999e-01,1.71981e-01,9.99999e-01
8.452190071e-01,1.78066e-01,9.99999e-01,9.99999e-01,9.99999e-01,1.78066e-01,9.99999e-01
8.494451021e-01,1.84240e-01,9.99999e-01,9.99999e-01,9.99999e-01,1.84240e-01,9.99999e-01
8.536923276e-01,1.90500e-01,9.99999e-01,9.99999e-01,9.99999e-01,1.90500e-01,9.99999e-01
8.579607893e-01,1.96842e-01,9.99999e-01,9.99999e-01,9.99999e-01,1.96842e-01,9.99999e-01
8.622505932e-01,2.03264e-01,9.99999e-01,9.99999e-01,9.99999e-01,2.03264e-01,9.99999e-01
8.665618462e-01,1.80463e-01,9.99999e-01,9.99999e-01,8.60318e-01,2.09763e-01,9.99999e-01
8.708946554e-01,6.90928e-02,9.99999e-01,9.99999e-01,3.19379e-01,2.16335e-01,9.99999e-01
8.752491287e-01,8.63735e-02,9.99999e-01,9.99999e-01,3.87366e-01,2.22976e-01,9.99999e-01
8.796253743e-01,1.34762e-01,9.99999e-01,9.99999e-01,5.86724e-01,2.29685e-01,9.99999e-01
8.840235012e-01,1.78378e-01,9.99999e-01,9.99999e-01,7.54380e-01,2.36457e-01,9.99999e-01
8.884436187e-01,2.17648e-01,9.99999e-01,9.99999e-01,8.94608e-01,2.43288e-01,9.99999e-01
8.928858368e-01,2.39092e-01,9.99999e-01,9.99999e-01,9.55693e-01,2.50177e-01,9.99999e-01
8.973502660e-01,2.54322e-01,9.99999e-01,9.99999e-01,9.89124e-01,2.57118e-01,9.99999e-01
9.018370173e-01,2.63793e-01,9.99999e-01,9.99999e-01,9.98801e-01,2.64110e-01,9.99999e-01
9.063462024e-01,2.62702e-01,9.99999e-01,9.99999e-01,9.68850e-01,2.71148e-01,9.99999e-01
9.108779334e-01,2.58998e-01,9.99999e-01,9.99999e-01,9.30881e-01,2.78228e-01,9.99999e-01
9.154323231e-01,2.80658e-01,9.99999e-01,9.99999e-01,9.83561e-01,2.85349e-01,9.99999e-01
9.200094847e-01,2.35358e-01,9.99999e-01,9.99999e-01,8.04628e-01,2.92505e-01,9.99999e-01
9.246095321e-01,2.11427e-01,9.99999e-01,9.99999e-01,7.05475e-01,2.99694e-01,9.99999e-01
9.292325798e-01,2.33896e-01,9.99999e-01,9.99999e-01,7.62091e-01,3.06913e-01,9.99999e-01
9.338787427e-01,2.41552e-01,9.99999e-01,9.99999e-01,7.68886e-01,3.14158e-01,9.99999e-01
9.385481364e-01,2.64520e-01,9.99999e-01,9.99999e-01,8.22958e-01,3.21426e-01,9.99999e-01
9.432408771e-01,2.91660e-01,9.99999e-01,9.99999e-01,8.87276e-01,3.28713e-01,9.99999e-01
9.479570815e-01,3.15949e-01,9.99999e-01,9.99999e-01,9.40277e-01,3.36017e-01,9.99999e-01
9.526968669e-01,3.33327e-01,9.99999e-01,9.99999e-01,9.70854e-01,3.43334e-01,9.99999e-01
9.574603512e-01,3.46255e-01,9.99999e-01,9.99999e-01,9.87434e-01,3.50661e-01,9.99999e-01
9.622476530e-01,3.56588e-01,9.99999e-01,9.99999e-01,9.96070e-01,3.57995e-01,9.99999e-01
9.670588912e-01,3.64904e-01,9.99999e-01,9.99999e-01,9.98823e-01,3.65333e-01,9.99999e-01
9.718941857e-01,3.72642e-01,9.99999e-01,9.99999e-01,9.99919e-01,3.72672e-01,9.99999e-01
9.767536566e-01,3.80009e-01,9.99999e-01,9.99999e-01,9.99999e-01,3.80009e-01,9.99999e-01
9.816374249e-01,3.87342e-01,9.99999e-01,9.99999e-01,9.99999e-01,3.87342e-01,9.99999e-01
9.865456120e-01,3.94667e-01,9.99999e-01,9.99999e-01,9.99999e-01,3.94667e-01,9.99999e-01
9.914783401e-01,4.01981e-01,9.99999e-01,9.99999e-01,9.99999e-01,4.01981e-01,9.99999e-01
9.964357318e-01,4.09283e-01,9.99999e-01,9.99999e-01,9.99999e-01,4.09283e-01,9.99999e-01
1.001417910e+00,4.16569e-01,9.99999e-01,9.99999e-01,9.99999e-01,4.16569e-01,9.99999e-01
1.006425000e+00,4.23838e-01,9.99999e-01,9.99999e-01,9.99999e-01,4.23838e-01,9.99999e-01
1.011457125e+00,4.31085e-01,9.99999e-01,9.99999e-01,9.99999e-01,4.31085e-01,9.99999e-01
1.016514411e+00,4.38310e-01,9.99999e-01,9.99999e-01,9.99999e-01,4.38310e-01,9.99999e-01
1.021596983e+00,4.45421e-01,9.99999e-01,9.99999e-01,9.99801e-01,4.45510e-01,9.99999e-01
1.026704968e+00,4.47024e-01,9.99999e-01,9.99999e-01,9.87500e-01,4.52682e-01,9.99999e-01
1.031838492e+00,4.12365e-01,9.99999e-01,9.99999e-01,8.96788e-01,4.59824e-01,9.99999e-01
1.036997685e+00,2.20753e-02,9.99999e-01,9.99999e-01,4.72769e-02,4.66935e-01,9.99999e-01
1.042182673e+00,1.38813e-03,9.99999e-01,9.99999e-01,2.92846e-03,4.74012e-01,9.99999e-01
1.047393587e+00,3.58069e-03,9.99999e-01,9.99999e-01,7.44342e-03,4.81054e-01,9.99999e-01
1.052630555e+00,3.17309e-07,9.99999e-01,9.99999e-01,6.50145e-07,4.88058e-01,9.99999e-01
1.057893707e+00,1.23153e-06,9.99999e-01,9.99999e-01,2.48783e-06,4.95022e-01,9.99999e-01
1.063183176e+00,3.60929e-05,9.99999e-01,9.99999e-01,7.19060e-05,5.01945e-01,9.99999e-01
1.068499092e+00,3.79741e-04,9.99999e-01,9.99999e-01,7.46307e-04,5.08826e-01,9.99999e-01
1.073841587e+00,4.99326e-03,9.99999e-01,9.99999e-01,9.68320e-03,5.15662e-01,9.99999e-01
1.079210795e+00,2.85332e-02,9.99999e-01,9.99999e-01,5.46139e-02,5.22452e-01,9.99999e-01
1.084606849e+00,1.01609e-01,9.99999e-01,9.99999e-01,1.92007e-01,5.29195e-01,9.99999e-01
1.090029883e+00,2.25433e-01,9.99999e-01,9.99999e-01,4.20669e-01,5.35889e-01,9.99999e-01
1.095480033e+00,3.53722e-01,9.99999e-01,9.99999e-01,6.51982e-01,5.42534e-01,9.99999e-01
1.100957433e+00,4.46283e-01,9.99999e-01,9.99999e-01,8.12714e-01,5.49126e-01,9.99999e-01
1.106462220e+00,5.10014e-01,9.99999e-01,9.99999e-01,9.17840e-01,5.55667e-01,9.99999e-01
1.111994531e+00,5.44546e-01,9.99999e-01,9.99999e-01,9.68677e-01,5.62154e-01,9.99999e-01
1.117554504e+00,5.64216e-01,9.99999e-01,9.99999e-01,9.92314e-01,5.68586e-01,9.99999e-01
1.123142276e+00,5.74674e-01,9.99999e-01,9.99999e-01,9.99498e-01,5.74962e-01,9.99999e-01
1.128757988e+00,5.81282e-01,9.99999e-01,9.99999e-01,9.99999e-01,5.81282e-01,9.99999e-01
1.134401778e+00,5.87545e-01,9.99999e-01,9.99999e-01,9.99999e-01,5.87545e-01,9.99999e-01
1.140073787e+00,5.93749e-01,9.99999e-01,9.99999e-01,9.99999e-01,5.93749e-01,9.99999e-01
1.145774156e+00,5.99895e-01,9.99999e-01,9.99999e-01,9.99999e-01,5.99895e-01,9.99999e-01
1.151503026e+00,6.05980e-01,9.99999e-01,9.99999e-01,9.99999e-01,6.05980e-01,9.99999e-01
1.157260541e+00,6.12006e-01,9.99999e-01,9.99999e-01,9.99999e-01,6.12006e-01,9.99999e-01
1.163046844e+00,6.17970e-01,9.99999e-01,9.99999e-01,9.99999e-01,6.17970e-01,9.99999e-01
1.168862078e+00,6.23873e-01,9.99999e-01,9.99999e-01,9.99999e-01,6.23873e-01,9.99999e-01
1.174706389e+00,6.29715e-01,9.99999e-01,9.99999e-01,9.99999e-01,6.29715e-01,9.99999e-01
1.180579921e+00,6.35494e-01,9.99999e-01,9.99999e-01,9.99999e-01,6.35494e-01,9.99999e-01
1.186482820e+00,6.41190e-01,9.99999e-01,9.99999e-01,9.99968e-01,6.41210e-01,9.99999e-01
1.192415234e+00,6.19274e-01,9.99999e-01,9.99999e-01,9.57349e-01,6.46863e-01,9.99999e-01
1.198377311e+00,3.33792e-01,9.99999e-01,9.99999e-01,5.11594e-01,6.52453e-01,9.99999e-01
1.204369197e+00,1.41651e-31,9.99999e-01,9.99999e-01,2.15282e-31,6.57980e-01,9.99999e-01
1.210391043e+00,3.08066e-128,9.99999e-01,9.99999e-01,4.64345e-128,6.63442e-01,9.99999e-01
1.216442998e+00,5.94275e-111,9.99999e-01,9.99999e-01,8.88513e-111,6.68841e-01,9.99999e-01
1.222525213e+00,2.76119e-109,9.99999e-01,9.99999e-01,4.09564e-109,6.74176e-01,9.99999e-01
1.228637839e+00,2.79769e-84,9.99999e-01,9.99999e-01,4.11759e-84,6.79447e-01,9.99999e-01
