#,Wave/freq,Total,N2,O2,CO2,Rayleigh,CIA
4.000000000e-01,4.91391e-05,9.99999e-01,9.99999e-01,9.99999e-01,4.91391e-05,9.99999e-01
4.020000000e-01,5.97891e-05,9.99999e-01,9.99999e-01,9.99999e-01,5.97891e-05,9.99999e-01
4.040100000e-01,7.24510e-05,9.99999e-01,9.99999e-01,9.99999e-01,7.24510e-05,9.99999e-01
4.060300500e-01,8.74619e-05,9.99999e-01,9.99999e-01,9.99999e-01,8.74619e-05,9.99999e-01
4.080602003e-01,1.05191e-04,9.99999e-01,9.99999e-01,9.99999e-01,1.05191e-04,9.99999e-01
4.101005013e-01,1.26053e-04,9.99999e-01,9.99999e-01,9.99999e-01,1.26053e-04,9.99999e-01
4.121510038e-01,1.50514e-04,9.99999e-01,9.99999e-01,9.99999e-01,1.50514e-04,9.99999e-01
4.142117588e-01,1.79093e-04,9.99999e-01,9.99999e-01,9.99999e-01,1.79093e-04,9.99999e-01
4.162828176e-01,2.12369e-04,9.99999e-01,9.99999e-01,9.99999e-01,2.12369e-04,9.99999e-01
4.183642317e-01,2.50980e-04,9.99999e-01,9.99999e-01,9.99999e-01,2.50980e-04,9.99999e-01
4.204560528e-01,2.95635e-04,9.99999e-01,9.99999e-01,9.99999e-01,2.95635e-04,9.99999e-01
4.225583331e-01,3.47110e-04,9.99999e-01,9.99999e-01,9.99999e-01,3.47110e-04,9.99999e-01
4.246711247e-01,4.06258e-04,9.99999e-01,9.99999e-01,9.99999e-01,4.06258e-04,9.99999e-01
4.267944804e-01,4.74008e-04,9.99999e-01,9.99999e-01,9.99999e-01,4.74008e-04,9.99999e-01
4.289284528e-01,5.51375e-04,9.99999e-01,9.99999e-01,9.99999e-01,5.51375e-04,9.99999e-01
4.310730950e-01,6.39458e-04,9.99999e-01,9.99999e-01,9.99999e-01,6.39458e-04,9.99999e-01
4.332284605e-01,7.39444e-04,9.99999e-01,9.99999e-01,9.99999e-01,7.39444e-04,9.99999e-01
4.353946028e-01,8.52613e-04,9.99999e-01,9.99999e-01,9.99999e-01,8.52613e-04,9.99999e-01
4.375715758e-01,9.80341e-04,9.99999e-01,9.99999e-01,9.99999e-01,9.80341e-04,9.99999e-01
4.397594337e-01,1.12410e-03,9.99999e-01,9.99999e-01,9.99999e-01,1.12410e-03,9.99999e-01
4.419582309e-01,1.28546e-03,9.99999e-01,9.99999e-01,9.99999e-01,1.28546e-03,9.99999e-01
4.441680220e-01,1.46609e-03,9.99999e-01,9.99999e-01,9.99999e-01,1.46609e-03,9.99999e-01
4.463888621e-01,1.66777e-03,9.99999e-01,9.99999e-01,9.99999e-01,1.66777e-03,9.99999e-01
4.486208064e-01,1.89237e-03,9.99999e-01,9.99999e-01,9.99999e-01,1.89237e-03,9.99999e-01
4.508639105e-01,2.14187e-03,9.99999e-01,9.99999e-01,9.99999e-01,2.14187e-03,9.99999e-01
4.531182300e-01,2.41833e-03,9.99999e-01,9.99999e-01,9.99999e-01,2.41833e-03,9.99999e-01
4.553838212e-01,2.72395e-03,9.99999e-01,9.99999e-01,9.99999e-01,2.72395e-03,9.99999e-01
4.576607403e-01,3.06097e-03,9.99999e-01,9.99999e-01,9.99999e-01,3.06097e-03,9.99999e-01
4.599490440e-01,3.43178e-03,9.99999e-01,9.99999e-01,9.99999e-01,3.43178e-03,9.99999e-01
4.622487892e-01,3.83884e-03,9.99999e-01,9.99999e-01,9.99999e-01,3.83884e-03,9.99999e-01
4.645600332e-01,4.28467e-03,9.99999e-01,9.99999e-01,9.99999e-01,4.28467e-03,9.99999e-01
4.668828333e-01,4.77192e-03,9.99999e-01,9.99999e-01,9.99999e-01,4.77192e-03,9.99999e-01
4.692172475e-01,5.30328e-03,9.99999e-01,9.99999e-01,9.99999e-01,5.30328e-03,9.99999e-01
4.715633337e-01,5.88153e-03,9.99999e-01,9.99999e-01,9.99999e-01,5.88153e-03,9.99999e-01
4.739211504e-01,6.50952e-03,9.99999e-01,9.99999e-01,9.99999e-01,6.50952e-03,9.99999e-01
4.762907561e-01,7.19013e-03,9.99999e-01,9.99999e-01,9.99999e-01,7.19013e-03,9.99999e-01
4.786722099e-01,7.92631e-03,9.99999e-01,9.99999e-01,9.99999e-01,7.92631e-03,9.99999e-01
4.810655710e-01,8.72107e-03,9.99999e-01,9.99999e-01,9.99999e-01,8.72107e-03,9.99999e-01
4.834708988e-01,9.57742e-03,9.99999e-01,9.99999e-01,9.99999e-01,9.57742e-03,9.99999e-01
4.858882533e-01,1.04984e-02,9.99999e-01,9.99999e-01,9.99999e-01,1.04984e-02,9.99999e-01
4.883176946e-01,1.14871e-02,9.99999e-01,9.99999e-01,9.99999e-01,1.14871e-02,9.99999e-01
4.907592831e-01,1.25466e-02,9.99999e-01,9.99999e-01,9.99999e-01,1.25466e-02,9.99999e-01
4.932130795e-01,1.36800e-02,9.99999e-01,9.99999e-01,9.99999e-01,1.36800e-02,9.99999e-01
4.956791449e-01,1.48903e-02,9.99999e-01,9.99999e-01,9.99999e-01,1.48903e-02,9.99999e-01
4.981575406e-01,1.61805e-02,9.99999e-01,9.99999e-01,9.99999e-01,1.61805e-02,9.99999e-01
5.006483283e-01,1.75537e-02,9.99999e-01,9.99999e-01,9.99999e-01,1.75537e-02,9.99999e-01
5.031515699e-01,1.90129e-02,9.99999e-01,9.99999e-01,9.99999e-01,1.90129e-02,9.99999e-01
5.056673278e-01,2.05608e-02,9.99999e-01,9.99999e-01,9.99999e-01,2.05608e-02,9.99999e-01
5.081956644e-01,2.22005e-02,9.99999e-01,9.99999e-01,9.99999e-01,2.22005e-02,9.99999e-01
5.107366428e-01,2.39346e-02,9.99999e-01,9.99999e-01,9.99999e-01,2.39346e-02,9.99999e-01
5.132903260e-01,2.57658e-02,9.99999e-01,9.99999e-01,9.99999e-01,2.57658e-02,9.99999e-01
5.158567776e-01,2.76968e-02,9.99999e-01,9.99999e-01,9.99999e-01,2.76968e-02,9.99999e-01
5.184360615e-01,2.97300e-02,9.99999e-01,9.99999e-01,9.99999e-01,2.97300e-02,9.99999e-01
5.210282418e-01,3.18679e-02,9.99999e-01,9.99999e-01,9.99999e-01,3.18679e-02,9.99999e-01
5.236333830e-01,3.41127e-02,9.99999e-01,9.99999e-01,9.99999e-01,3.41127e-02,9.99999e-01
5.262515499e-01,3.64666e-02,9.99999e-01,9.99999e-01,9.99999e-01,3.64666e-02,9.99999e-01
5.288828077e-01,3.89315e-02,9.99999e-01,9.99999e-01,9.99999e-01,3.89315e-02,9.99999e-01
5.315272217e-01,4.15093e-02,9.99999e-01,9.99999e-01,9.99999e-01,4.15093e-02,9.99999e-01
5.341848578e-01,4.42019e-02,9.99999e-01,9.99999e-01,9.99999e-01,4.42019e-02,9.99999e-01
5.368557821e-01,4.70107e-02,9.99999e-01,9.99999e-01,9.99999e-01,4.70107e-02,9.99999e-01
5.395400610e-01,4.99372e-02,9.99999e-01,9.99999e-01,9.99999e-01,4.99372e-02,9.99999e-01
5.422377613e-01,5.29826e-02,9.99999e-01,9.99999e-01,9.99999e-01,5.29826e-02,9.99999e-01
5.449489501e-01,5.61481e-02,9.99999e-01,9.99999e-01,9.99999e-01,5.61481e-02,9.99999e-01
5.476736949e-01,5.94345e-02,9.99999e-01,9.99999e-01,9.99999e-01,5.94345e-02,9.99999e-01
5.504120634e-01,6.28427e-02,9.99999e-01,9.99999e-01,9.99999e-01,6.28427e-02,9.99999e-01
5.531641237e-01,6.63731e-02,9.99999e-01,9.99999e-01,9.99999e-01,6.63731e-02,9.99999e-01
5.559299443e-01,7.00262e-02,9.99999e-01,9.99999e-01,9.99999e-01,7.00262e-02,9.99999e-01
5.587095940e-01,7.38022e-02,9.99999e-01,9.99999e-01,9.99999e-01,7.38022e-02,9.99999e-01
5.615031420e-01,7.77012e-02,9.99999e-01,9.99999e-01,9.99999e-01,7.77012e-02,9.99999e-01
5.643106577e-01,8.17231e-02,9.99999e-01,9.99999e-01,9.99999e-01,8.17231e-02,9.99999e-01
5.671322110e-01,8.58675e-02,9.99999e-01,9.99999e-01,9.99999e-01,8.58675e-02,9.99999e-01
5.699678720e-01,9.01339e-02,9.99999e-01,9.99999e-01,9.99999e-01,9.01339e-02,9.99999e-01
5.728177114e-01,9.45217e-02,9.99999e-01,9.99999e-01,9.99999e-01,9.45217e-02,9.99999e-01
5.756818000e-01,9.90302e-02,9.99999e-01,9.99999e-01,9.99999e-01,9.90302e-02,9.99999e-01
5.785602090e-01,1.03658e-01,9.99999e-01,9.99999e-01,9.99999e-01,1.03658e-01,9.99999e-01
5.814530100e-01,1.08405e-01,9.99999e-01,9.99999e-01,9.99999e-01,1.08405e-01,9.99999e-01
5.843602750e-01,1.13268e-01,9.99999e-01,9.99999e-01,9.99999e-01,1.13268e-01,9.99999e-01
5.872820764e-01,1.18247e-01,9.99999e-01,9.99999e-01,9.99999e-01,1.18247e-01,9.99999e-01
5.902184868e-01,1.23341e-01,9.99999e-01,9.99999e-01,9.99999e-01,1.23341e-01,9.99999e-01
5.931695792e-01,1.28546e-01,9.99999e-01,9.99999e-01,9.99999e-01,1.28546e-01,9.99999e-01
5.961354271e-01,1.33862e-01,9.99999e-01,9.99999e-01,9.99999e-01,1.33862e-01,9.99999e-01
5.991161043e-01,1.39286e-01,9.99999e-01,9.99999e-01,9.99999e-01,1.39286e-01,9.99999e-01
6.021116848e-01,1.44817e-01,9.99999e-01,9.99999e-01,9.99999e-01,1.44817e-01,9.99999e-01
6.051222432e-01,1.50451e-01,9.99999e-01,9.99999e-01,9.99999e-01,1.50451e-01,9.99999e-01
6.081478544e-01,1.56186e-01,9.99999e-01,9.99999e-01,9.99999e-01,1.56186e-01,9.99999e-01
6.111885937e-01,1.62021e-01,9.99999e-01,9.99999e-01,9.99999e-01,1.62021e-01,9.99999e-01
6.142445367e-01,1.67951e-01,9.99999e-01,9.99999e-01,9.99999e-01,1.67951e-01,9.99999e-01
6.173157594e-01,1.73975e-01,9.99999e-01,9.99999e-01,9.99999e-01,1.73975e-01,9.99999e-01
6.204023382e-01,1.80090e-01,9.99999e-01,9.99999e-01,9.99999e-01,1.80090e-01,9.99999e-01
6.235043498e-01,1.86293e-01,9.99999e-01,9.99999e-01,9.99999e-01,1.86293e-01,9.99999e-01
6.266218716e-01,1.92580e-01,9.99999e-01,9.99999e-01,9.99999e-01,1.92580e-01,9.99999e-01
6.297549810e-01,1.98949e-01,9.99999e-01,9.99999e-01,9.99999e-01,1.98949e-01,9.99999e-01
6.329037559e-01,2.05397e-01,9.99999e-01,9.99999e-01,9.99999e-01,2.05397e-01,9.99999e-01
6.360682746e-01,2.11920e-01,9.99999e-01,9.99999e-01,9.99999e-01,2.11920e-01,9.99999e-01
6.392486160e-01,2.18515e-01,9.99999e-01,9.99999e-01,9.99999e-01,2.18515e-01,9.99999e-01
6.424448591e-01,2.25179e-01,9.99999e-01,9.99999e-01,9.99999e-01,2.25179e-01,9.99999e-01
6.456570834e-01,2.31909e-01,9.99999e-01,9.99999e-01,9.99999e-01,2.31909e-01,9.99999e-01
6.488853688e-01,2.38701e-01,9.99999e-01,9.99999e-01,9.99999e-01,2.38701e-01,9.99999e-01
6.521297956e-01,2.45552e-01,9.99999e-01,9.99999e-01,9.99999e-01,2.45552e-01,9.99999e-01
6.553904446e-01,2.52458e-01,9.99999e-01,9.99999e-01,9.99999e-01,2.52458e-01,9.99999e-01
6.586673968e-01,2.59416e-01,9.99999e-01,9.99999e-01,9.99999e-01,2.59416e-01,9.99999e-01
6.619607338e-01,2.66423e-01,9.99999e-01,9.99999e-01,9.99999e-01,2.66423e-01,9.99999e-01
6.652705375e-01,2.73476e-01,9.99999e-01,9.99999e-01,9.99999e-01,2.73476e-01,9.99999e-01
6.685968902e-01,2.80570e-01,9.99999e-01,9.99999e-01,9.99999e-01,2.80570e-01,9.99999e-01
6.719398746e-01,2.87702e-01,9.99999e-01,9.99999e-01,9.99999e-01,2.87702e-01,9.99999e-01
6.752995740e-01,2.94870e-01,9.99999e-01,9.99999e-01,9.99999e-01,2.94870e-01,9.99999e-01
6.786760719e-01,3.02069e-01,9.99999e-01,9.99999e-01,9.99999e-01,3.02069e-01,9.99999e-01
6.820694522e-01,3.09297e-01,9.99999e-01,9.99999e-01,9.99999e-01,3.09297e-01,9.99999e-01
6.854797995e-01,3.16550e-01,9.99999e-01,9.99999e-01,9.99999e-01,3.16550e-01,9.99999e-01
6.889071985e-01,3.23824e-01,9.99999e-01,9.99999e-01,9.99999e-01,3.23824e-01,9.99999e-01
6.923517345e-01,3.31118e-01,9.99999e-01,9.99999e-01,9.99999e-01,3.31118e-01,9.99999e-01
6.958134932e-01,3.38426e-01,9.99999e-01,9.99999e-01,9.99999e-01,3.38426e-01,9.99999e-01
6.992925606e-01,3.45747e-01,9.99999e-01,9.99999e-01,9.99999e-01,3.45747e-01,9.99999e-01
7.027890234e-01,3.53076e-01,9.99999e-01,9.99999e-01,9.99999e-01,3.53076e-01,9.99999e-01
7.063029686e-01,3.60412e-01,9.99999e-01,9.99999e-01,9.99999e-01,3.60412e-01,9.99999e-01
7.098344834e-01,3.67751e-01,9.99999e-01,9.99999e-01,9.99999e-01,3.67751e-01,9.99999e-01
7.133836558e-01,3.75090e-01,9.99999e-01,9.99999e-01,9.99999e-01,3.75090e-01,9.99999e-01
7.169505741e-01,3.82426e-01,9.99999e-01,9.99999e-01,9.99999e-01,3.82426e-01,9.99999e-01
7.205353270e-01,3.89756e-01,9.99999e-01,9.99999e-01,9.99999e-01,3.89756e-01,9.99999e-01
7.241380036e-01,3.97078e-01,9.99999e-01,9.99999e-01,9.99999e-01,3.97078e-01,9.99999e-01
7.277586936e-01,4.04388e-01,9.99999e-01,9.99999e-01,9.99999e-01,4.04388e-01,9.99999e-01
7.313974871e-01,4.11685e-01,9.99999e-01,9.99999e-01,9.99999e-01,4.11685e-01,9.99999e-01
7.350544745e-01,4.18966e-01,9.99999e-01,9.99999e-01,9.99999e-01,4.18966e-01,9.99999e-01
7.387297469e-01,4.26228e-01,9.99999e-01,9.99999e-01,9.99999e-01,4.26228e-01,9.99999e-01
7.424233956e-01,4.33468e-01,9.99999e-01,9.99999e-01,9.99999e-01,4.33468e-01,9.99999e-01
7.461355126e-01,4.40685e-01,9.99999e-01,9.99999e-01,9.99999e-01,4.40685e-01,9.99999e-01
7.498661902e-01,4.47876e-01,9.99999e-01,9.99999e-01,9.99999e-01,4.47876e-01,9.99999e-01
7.536155211e-01,4.55038e-01,9.99999e-01,9.99999e-01,9.99999e-01,4.55038e-01,9.99999e-01
7.573835987e-01,4.62171e-01,9.99999e-01,9.99999e-01,9.99999e-01,4.62171e-01,9.99999e-01
7.611705167e-01,4.69270e-01,9.99999e-01,9.99999e-01,9.99999e-01,4.69270e-01,9.99999e-01
7.649763693e-01,4.76336e-01,9.99999e-01,9.99999e-01,9.99999e-01,4.76336e-01,9.99999e-01
7.688012511e-01,4.83365e-01,9.99999e-01,9.99999e-01,9.99999e-01,4.83365e-01,9.99999e-01
7.726452574e-01,4.90356e-01,9.99999e-01,9.99999e-01,9.99999e-01,4.90356e-01,9.99999e-01
7.765084837e-01,4.97307e-01,9.99999e-01,9.99999e-01,9.99999e-01,4.97307e-01,9.99999e-01
7.803910261e-01,4.88889e-01,9.99999e-01,9.99999e-01,9.69599e-01,5.04217e-01,9.99999e-01
7.842929812e-01,4.42804e-01,9.99999e-01,9.99999e-01,8.66402e-01,5.11083e-01,9.99999e-01
7.882144461e-01,4.44676e-01,9.99999e-01,9.99999e-01,8.58607e-01,5.17904e-01,9.99999e-01
7.921555184e-01,4.80158e-01,9.99999e-01,9.99999e-01,9.15145e-01,5.24679e-01,9.99999e-01
7.961162960e-01,5.00529e-01,9.99999e-01,9.99999e-01,9.41894e-01,5.31406e-01,9.99999e-01
8.000968774e-01,5.20940e-01,9.99999e-01,9.99999e-01,9.68139e-01,5.38084e-01,9.99999e-01
8.040973618e-01,5.35609e-01,9.99999e-01,9.99999e-01,9.83289e-01,5.44711e-01,9.99999e-01
8.081178486e-01,5.47061e-01,9.99999e-01,9.99999e-01,9.92334e-01,5.51287e-01,9.99999e-01
8.121584379e-01,5.56473e-01,9.99999e-01,9.99999e-01,9.97603e-01,5.57810e-01,9.99999e-01
8.162192301e-01,5.63980e-01,9.99999e-01,9.99999e-01,9.99469e-01,5.64279e-01,9.99999e-01
8.203003262e-01,5.70687e-01,9.99999e-01,9.99999e-01,9.99990e-01,5.70693e-01,9.99999e-01
8.244018279e-01,5.77051e-01,9.99999e-01,9.99999e-01,9.99999e-01,5.77051e-01,9.99999e-01
8.285238370e-01,5.83352e-01,9.99999e-01,9.99999e-01,9.99999e-01,5.83352e-01,9.99999e-01
8.326664562e-01,5.89595e-01,9.99999e-01,9.99999e-01,9.99999e-01,5.89595e-01,9.99999e-01
8.368297885e-01,5.95780e-01,9.99999e-01,9.99999e-01,9.99999e-01,5.95780e-01,9.99999e-01
8.410139374e-01,6.01906e-01,9.99999e-01,9.99999e-01,9.99999e-01,6.01906e-01,9.99999e-01
8.452190071e-01,6.07972e-01,9.99999e-01,9.99999e-01,9.99999e-01,6.07972e-01,9.99999e-01
8.494451021e-01,6.13977e-01,9.99999e-01,9.99999e-01,9.99999e-01,6.13977e-01,9.99999e-01
8.536923276e-01,6.19922e-01,9.99999e-01,9.99999e-01,9.99999e-01,6.19922e-01,9.99999e-01
8.579607893e-01,6.25804e-01,9.99999e-01,9.99999e-01,9.99999e-01,6.25804e-01,9.99999e-01
8.622505932e-01,6.31625e-01,9.99999e-01,9.99999e-01,9.99999e-01,6.31625e-01,9.99999e-01
8.665618462e-01,5.93414e-01,9.99999e-01,9.99999e-01,9.31014e-01,6.37384e-01,9.99999e-01
8.708946554e-01,4.47494e-01,9.99999e-01,9.99999e-01,6.95860e-01,6.43079e-01,9.99999e-01
8.752491287e-01,4.83906e-01,9.99999e-01,9.99999e-01,7.45949e-01,6.48712e-01,9.99999e-01
8.796253743e-01,5.56960e-01,9.99999e-01,9.99999e-01,8.51254e-01,6.54281e-01,9.99999e-01
8.840235012e-01,6.07001e-01,9.99999e-01,9.99999e-01,9.19995e-01,6.59786e-01,9.99999e-01
8.884436187e-01,6.43618e-01,9.99999e-01,9.99999e-01,9.67513e-01,6.65228e-01,9.99999e-01
8.928858368e-01,6.61730e-01,9.99999e-01,9.99999e-01,9.86763e-01,6.70606e-01,9.99999e-01
8.973502660e-01,6.73720e-01,9.99999e-01,9.99999e-01,9.96745e-01,6.75919e-01,9.99999e-01
9.018370173e-01,6.80924e-01,9.99999e-01,9.99999e-01,9.99639e-01,6.81169e-01,9.99999e-01
9.063462024e-01,6.80282e-01,9.99999e-01,9.99999e-01,9.91152e-01,6.86355e-01,9.99999e-01
9.108779334e-01,6.77114e-01,9.99999e-01,9.99999e-01,9.79229e-01,6.91476e-01,9.99999e-01
9.154323231e-01,6.93073e-01,9.99999e-01,9.99999e-01,9.95031e-01,6.96533e-01,9.99999e-01
9.200094847e-01,6.53744e-01,9.99999e-01,9.99999e-01,9.31886e-01,7.01527e-01,9.99999e-01
9.246095321e-01,6.37547e-01,9.99999e-01,9.99999e-01,9.02457e-01,7.06456e-01,9.99999e-01
9.292325798e-01,6.56968e-01,9.99999e-01,9.99999e-01,9.23587e-01,7.11322e-01,9.99999e-01
9.338787427e-01,6.62576e-01,9.99999e-01,9.99999e-01,9.25225e-01,7.16124e-01,9.99999e-01
9.385481364e-01,6.80875e-01,9.99999e-01,9.99999e-01,9.44527e-01,7.20863e-01,9.99999e-01
9.432408771e-01,7.00527e-01,9.99999e-01,9.99999e-01,9.65527e-01,7.25538e-01,9.99999e-01
9.479570815e-01,7.17179e-01,9.99999e-01,9.99999e-01,9.82234e-01,7.30151e-01,9.99999e-01
9.526968669e-01,7.28366e-01,9.99999e-01,9.99999e-01,9.91376e-01,7.34701e-01,9.99999e-01
9.574603512e-01,7.36455e-01,9.99999e-01,9.99999e-01,9.96301e-01,7.39188e-01,9.99999e-01
9.622476530e-01,7.42754e-01,9.99999e-01,9.99999e-01,9.98843e-01,7.43614e-01,9.99999e-01
9.670588912e-01,7.47718e-01,9.99999e-01,9.99999e-01,9.99652e-01,7.47978e-01,9.99999e-01
9.718941857e-01,7.52262e-01,9.99999e-01,9.99999e-01,9.99974e-01,7.52280e-01,9.99999e-01
9.767536566e-01,7.56522e-01,9.99999e-01,9.99999e-01,9.99999e-01,7.56522e-01,9.99999e-01
9.816374249e-01,7.60703e-01,9.99999e-01,9.99999e-01,9.99999e-01,7.60703e-01,9.99999e-01
9.865456120e-01,7.64824e-01,9.99999e-01,9.99999e-01,9.99999e-01,7.64824e-01,9.99999e-01
9.914783401e-01,7.68885e-01,9.99999e-01,9.99999e-01,9.99999e-01,7.68885e-01,9.99999e-01
9.964357318e-01,7.72887e-01,9.99999e-01,9.99999e-01,9.99999e-01,7.72887e-01,9.99999e-01
1.001417910e+00,7.76830e-01,9.99999e-01,9.99999e-01,9.99999e-01,7.76830e-01,9.99999e-01
1.006425000e+00,7.80714e-01,9.99999e-01,9.99999e-01,9.99999e-01,7.80714e-01,9.99999e-01
1.011457125e+00,7.84541e-01,9.99999e-01,9.99999e-01,9.99999e-01,7.84541e-01,9.99999e-01
1.016514411e+00,7.88310e-01,9.99999e-01,9.99999e-01,9.99999e-01,7.88310e-01,9.99999e-01
1.021596983e+00,7.91990e-01,9.99999e-01,9.99999e-01,9.99957e-01,7.92023e-01,9.99999e-01
1.026704968e+00,7.92939e-01,9.99999e-01,9.99999e-01,9.96556e-01,7.95679e-01,9.99999e-01
1.031838492e+00,7.68212e-01,9.99999e-01,9.99999e-01,9.61130e-01,7.99279e-01,9.99999e-01
1.036997685e+00,1.31341e-01,9.99999e-01,9.99999e-01,1.63598e-01,8.02824e-01,9.99999e-01
1.042182673e+00,1.07607e-01,9.99999e-01,9.99999e-01,1.33455e-01,8.06315e-01,9.99999e-01
1.047393587e+00,1.26640e-01,9.99999e-01,9.99999e-01,1.56393e-01,8.09751e-01,9.99999e-01
1.052630555e+00,4.19307e-03,9.99999e-01,9.99999e-01,5.15668e-03,8.13133e-01,9.99999e-01
1.057893707e+00,1.01860e-02,9.99999e-01,9.99999e-01,1.24758e-02,8.16462e-01,9.99999e-01
1.063183176e+00,3.25676e-02,9.99999e-01,9.99999e-01,3.97291e-02,8.19739e-01,9.99999e-01
1.068499092e+00,8.86663e-02,9.99999e-01,9.99999e-01,1.07740e-01,8.22964e-01,9.99999e-01
1.073841587e+00,2.01169e-01,9.99999e-01,9.99999e-01,2.43505e-01,8.26137e-01,9.99999e-01
1.079210795e+00,3.39203e-01,9.99999e-01,9.99999e-01,4.09043e-01,8.29260e-01,9.99999e-01
1.084606849e+00,5.08594e-01,9.99999e-01,9.99999e-01,6.11046e-01,8.32332e-01,9.99999e-01
1.090029883e+00,6.47110e-01,9.99999e-01,9.99999e-01,7.74653e-01,8.35355e-01,9.99999e-01
1.095480033e+00,7.39082e-01,9.99999e-01,9.99999e-01,8.81613e-01,8.38328e-01,9.99999e-01
1.100957433e+00,7.91725e-01,9.99999e-01,9.99999e-01,9.41125e-01,8.41253e-01,9.99999e-01
1.106462220e+00,8.23188e-01,9.99999e-01,9.99999e-01,9.75189e-01,8.44131e-01,9.99999e-01
1.111994531e+00,8.39113e-01,9.99999e-01,9.99999e-01,9.90733e-01,8.46961e-01,9.99999e-01
1.117554504e+00,8.47805e-01,9.99999e-01,9.99999e-01,9.97717e-01,8.49744e-01,9.99999e-01
1.123142276e+00,8.52353e-01,9.99999e-01,9.99999e-01,9.99848e-01,8.52481e-01,9.99999e-01
1.128757988e+00,8.55173e-01,9.99999e-01,9.99999e-01,9.99999e-01,8.55173e-01,9.99999e-01
1.134401778e+00,8.57820e-01,9.99999e-01,9.99999e-01,9.99999e-01,8.57820e-01,9.99999e-01
1.140073787e+00,8.60422e-01,9.99999e-01,9.99999e-01,9.99999e-01,8.60422e-01,9.99999e-01
1.145774156e+00,8.62981e-01,9.99999e-01,9.99999e-01,9.99999e-01,8.62981e-01,9.99999e-01
1.151503026e+00,8.65497e-01,9.99999e-01,9.99999e-01,9.99999e-01,8.65497e-01,9.99999e-01
1.157260541e+00,8.67970e-01,9.99999e-01,9.99999e-01,9.99999e-01,8.67970e-01,9.99999e-01
1.163046844e+00,8.70401e-01,9.99999e-01,9.99999e-01,9.99999e-01,8.70401e-01,9.99999e-01
1.168862078e+00,8.72790e-01,9.99999e-01,9.99999e-01,9.99999e-01,8.72790e-01,9.99999e-01
1.174706389e+00,8.75139e-01,9.99999e-01,9.99999e-01,9.99999e-01,8.75139e-01,9.99999e-01
1.180579921e+00,8.77448e-01,9.99999e-01,9.99999e-01,9.99999e-01,8.77448e-01,9.99999e-01
1.186482820e+00,8.79713e-01,9.99999e-01,9.99999e-01,9.99995e-01,8.79717e-01,9.99999e-01
1.192415234e+00,8.71220e-01,9.99999e-01,9.99999e-01,9.87837e-01,8.81946e-01,9.99999e-01
1.198377311e+00,4.98799e-01,9.99999e-01,9.99999e-01,5.64164e-01,8.84137e-01,9.99999e-01
1.204369197e+00,1.05511e-10,9.99999e-01,9.99999e-01,1.19048e-10,8.86291e-01,9.99999e-01
1.210391043e+00,1.44325e-38,9.99999e-01,9.99999e-01,1.62453e-38,8.88406e-01,9.99999e-01
1.216442998e+00,1.38645e-33,9.99999e-01,9.99999e-01,1.55695e-33,8.90485e-01,9.99999e-01
1.222525213e+00,4.19781e-33,9.99999e-01,9.99999e-01,4.70328e-33,8.92528e-01,9.99999e-01
1.228637839e+00,1.23466e-25,9.99999e-01,9.99999e-01,1.38023e-25,8.94534e-01,9.99999e-01
