#,Wave/freq,Total,N2,O2,CO2,Rayleigh,CIA
4.000000000e-01,2.31302e-14,9.99999e-01,9.99999e-01,9.99999e-01,2.31302e-14,9.99999e-01
4.020000000e-01,4.30332e-14,9.99999e-01,9.99999e-01,9.99999e-01,4.30332e-14,9.99999e-01
4.040100000e-01,7.90349e-14,9.99999e-01,9.99999e-01,9.99999e-01,7.90349e-14,9.99999e-01
4.060300500e-01,1.43423e-13,9.99999e-01,9.99999e-01,9.99999e-01,1.43423e-13,9.99999e-01
4.080602003e-01,2.57222e-13,9.99999e-01,9.99999e-01,9.99999e-01,2.57222e-13,9.99999e-01
4.101005013e-01,4.56022e-13,9.99999e-01,9.99999e-01,9.99999e-01,4.56022e-13,9.99999e-01
4.121510038e-01,7.99377e-13,9.99999e-01,9.99999e-01,9.99999e-01,7.99377e-13,9.99999e-01
4.142117588e-01,1.38580e-12,9.99999e-01,9.99999e-01,9.99999e-01,1.38580e-12,9.99999e-01
4.162828176e-01,2.37647e-12,9.99999e-01,9.99999e-01,9.99999e-01,2.37647e-12,9.99999e-01
4.183642317e-01,4.03215e-12,9.99999e-01,9.99999e-01,9.99999e-01,4.03215e-12,9.99999e-01
4.204560528e-01,6.77027e-12,9.99999e-01,9.99999e-01,9.99999e-01,6.77027e-12,9.99999e-01
4.225583331e-01,1.12520e-11,9.99999e-01,9.99999e-01,9.99999e-01,1.12520e-11,9.99999e-01
4.246711247e-01,1.85137e-11,9.99999e-01,9.99999e-01,9.99999e-01,1.85137e-11,9.99999e-01
4.267944804e-01,3.01639e-11,9.99999e-01,9.99999e-01,9.99999e-01,3.01639e-11,9.99999e-01
4.289284528e-01,4.86737e-11,9.99999e-01,9.99999e-01,9.99999e-01,4.86737e-11,9.99999e-01
4.310730950e-01,7.78029e-11,9.99999e-01,9.99999e-01,9.99999e-01,7.78029e-11,9.99999e-01
4.332284605e-01,1.23218e-10,9.99999e-01,9.99999e-01,9.99999e-01,1.23218e-10,9.99999e-01
4.353946028e-01,1.93378e-10,9.99999e-01,9.99999e-01,9.99999e-01,1.93378e-10,9.99999e-01
4.375715758e-01,3.00798e-10,9.99999e-01,9.99999e-01,9.99999e-01,3.00798e-10,9.99999e-01
4.397594337e-01,4.63823e-10,9.99999e-01,9.99999e-01,9.99999e-01,4.63823e-10,9.99999e-01
4.419582309e-01,7.09112e-10,9.99999e-01,9.99999e-01,9.99999e-01,7.09112e-10,9.99999e-01
4.441680220e-01,1.07507e-09,9.99999e-01,9.99999e-01,9.99999e-01,1.07507e-09,9.99999e-01
4.463888621e-01,1.61654e-09,9.99999e-01,9.99999e-01,9.99999e-01,1.61654e-09,9.99999e-01
4.486208064e-01,2.41124e-09,9.99999e-01,9.99999e-01,9.99999e-01,2.41124e-09,9.99999e-01
4.508639105e-01,3.56830e-09,9.99999e-01,9.99999e-01,9.99999e-01,3.56830e-09,9.99999e-01
4.531182300e-01,5.23988e-09,9.99999e-01,9.99999e-01,9.99999e-01,5.23988e-09,9.99999e-01
4.553838212e-01,7.63634e-09,9.99999e-01,9.99999e-01,9.99999e-01,7.63634e-09,9.99999e-01
4.576607403e-01,1.10463e-08,9.99999e-01,9.99999e-01,9.99999e-01,1.10463e-08,9.99999e-01
4.599490440e-01,1.58630e-08,9.99999e-01,9.99999e-01,9.99999e-01,1.58630e-08,9.99999e-01
4.622487892e-01,2.26176e-08,9.99999e-01,9.99999e-01,9.99999e-01,2.26176e-08,9.99999e-01
4.645600332e-01,3.20232e-08,9.99999e-01,9.99999e-01,9.99999e-01,3.20232e-08,9.99999e-01
4.668828333e-01,4.50299e-08,9.99999e-01,9.99999e-01,9.99999e-01,4.50299e-08,9.99999e-01
4.692172475e-01,6.28944e-08,9.99999e-01,9.99999e-01,9.99999e-01,6.28944e-08,9.99999e-01
4.715633337e-01,8.72685e-08,9.99999e-01,9.99999e-01,9.99999e-01,8.72685e-08,9.99999e-01
4.739211504e-01,1.20308e-07,9.99999e-01,9.99999e-01,9.99999e-01,1.20308e-07,9.99999e-01
4.762907561e-01,1.64807e-07,9.99999e-01,9.99999e-01,9.99999e-01,1.64807e-07,9.99999e-01
4.786722099e-01,2.24365e-07,9.99999e-01,9.99999e-01,9.99999e-01,2.24365e-07,9.99999e-01
4.810655710e-01,3.03593e-07,9.99999e-01,9.99999e-01,9.99999e-01,3.03593e-07,9.99999e-01
4.834708988e-01,4.08349e-07,9.99999e-01,9.99999e-01,9.99999e-01,4.08349e-07,9.99999e-01
4.858882533e-01,5.46047e-07,9.99999e-01,9.99999e-01,9.99999e-01,5.46047e-07,9.99999e-01
4.883176946e-01,7.25998e-07,9.99999e-01,9.99999e-01,9.99999e-01,7.25998e-07,9.99999e-01
4.907592831e-01,9.59836e-07,9.99999e-01,9.99999e-01,9.99999e-01,9.59836e-07,9.99999e-01
4.932130795e-01,1.26201e-06,9.99999e-01,9.99999e-01,9.99999e-01,1.26201e-06,9.99999e-01
4.956791449e-01,1.65037e-06,9.99999e-01,9.99999e-01,9.99999e-01,1.65037e-06,9.99999e-01
4.981575406e-01,2.14684e-06,9.99999e-01,9.99999e-01,9.99999e-01,2.14684e-06,9.99999e-01
5.006483283e-01,2.77818e-06,9.99999e-01,9.99999e-01,9.99999e-01,2.77818e-06,9.99999e-01
5.031515699e-01,3.57692e-06,9.99999e-01,9.99999e-01,9.99999e-01,3.57692e-06,9.99999e-01
5.056673278e-01,4.58238e-06,9.99999e-01,9.99999e-01,9.99999e-01,4.58238e-06,9.99999e-01
5.081956644e-01,5.84182e-06,9.99999e-01,9.99999e-01,9.99999e-01,5.84182e-06,9.99999e-01
5.107366428e-01,7.41176e-06,9.99999e-01,9.99999e-01,9.99999e-01,7.41176e-06,9.99999e-01
5.132903260e-01,9.35951e-06,9.99999e-01,9.99999e-01,9.99999e-01,9.35951e-06,9.99999e-01
5.158567776e-01,1.17648e-05,9.99999e-01,9.99999e-01,9.99999e-01,1.17648e-05,9.99999e-01
5.184360615e-01,1.47215e-05,9.99999e-01,9.99999e-01,9.99999e-01,1.47215e-05,9.99999e-01
5.210282418e-01,1.83399e-05,9.99999e-01,9.99999e-01,9.99999e-01,1.83399e-05,9.99999e-01
5.236333830e-01,2.27487e-05,9.99999e-01,9.99999e-01,9.99999e-01,2.27487e-05,9.99999e-01
5.262515499e-01,2.80975e-05,9.99999e-01,9.99999e-01,9.99999e-01,2.80975e-05,9.99999e-01
5.288828077e-01,3.45595e-05,9.99999e-01,9.99999e-01,9.99999e-01,3.45595e-05,9.99999e-01
5.315272217e-01,4.23343e-05,9.99999e-01,9.99999e-01,9.99999e-01,4.23343e-05,9.99999e-01
5.341848578e-01,5.16507e-05,9.99999e-01,9.99999e-01,9.99999e-01,5.16507e-05,9.99999e-01
5.368557821e-01,6.27702e-05,9.99999e-01,9.99999e-01,9.99999e-01,6.27702e-05,9.99999e-01
5.395400610e-01,7.59903e-05,9.99999e-01,9.99999e-01,9.99999e-01,7.59903e-05,9.99999e-01
5.422377613e-01,9.16481e-05,9.99999e-01,9.99999e-01,9.99999e-01,9.16481e-05,9.99999e-01
5.449489501e-01,1.10124e-04,9.99999e-01,9.99999e-01,9.99999e-01,1.10124e-04,9.99999e-01
5.476736949e-01,1.31845e-04,9.99999e-01,9.99999e-01,9.99999e-01,1.31845e-04,9.99999e-01
5.504120634e-01,1.57290e-04,9.99999e-01,9.99999e-01,9.99999e-01,1.57290e-04,9.99999e-01
5.531641237e-01,1.86994e-04,9.99999e-01,9.99999e-01,9.99999e-01,1.86994e-04,9.99999e-01
5.559299443e-01,2.21548e-04,9.99999e-01,9.99999e-01,9.99999e-01,2.21548e-04,9.99999e-01
5.587095940e-01,2.61610e-04,9.99999e-01,9.99999e-01,9.99999e-01,2.61610e-04,9.99999e-01
5.615031420e-01,3.07903e-04,9.99999e-01,9.99999e-01,9.99999e-01,3.07903e-04,9.99999e-01
5.643106577e-01,3.61224e-04,9.99999e-01,9.99999e-01,9.99999e-01,3.61224e-04,9.99999e-01
5.671322110e-01,4.22444e-04,9.99999e-01,9.99999e-01,9.99999e-01,4.22444e-04,9.99999e-01
5.699678720e-01,4.92514e-04,9.99999e-01,9.99999e-01,9.99999e-01,4.92514e-04,9.99999e-01
5.728177114e-01,5.72468e-04,9.99999e-01,9.99999e-01,9.99999e-01,5.72468e-04,9.99999e-01
5.756818000e-01,6.63428e-04,9.99999e-01,9.99999e-01,9.99999e-01,6.63428e-04,9.99999e-01
5.785602090e-01,7.66604e-04,9.99999e-01,9.99999e-01,9.99999e-01,7.66604e-04,9.99999e-01
5.814530100e-01,8.83300e-04,9.99999e-01,9.99999e-01,9.99999e-01,8.83300e-04,9.99999e-01
5.843602750e-01,1.01492e-03,9.99999e-01,9.99999e-01,9.99999e-01,1.01492e-03,9.99999e-01
5.872820764e-01,1.16295e-03,9.99999e-01,9.99999e-01,9.99999e-01,1.16295e-03,9.99999e-01
5.902184868e-01,1.32899e-03,9.99999e-01,9.99999e-01,9.99999e-01,1.32899e-03,9.99999e-01
5.931695792e-01,1.51475e-03,9.99999e-01,9.99999e-01,9.99999e-01,1.51475e-03,9.99999e-01
5.961354271e-01,1.72201e-03,9.99999e-01,9.99999e-01,9.99999e-01,1.72201e-03,9.99999e-01
5.991161043e-01,1.95268e-03,9.99999e-01,9.99999e-01,9.99999e-01,1.95268e-03,9.99999e-01
6.021116848e-01,2.20876e-03,9.99999e-01,9.99999e-01,9.99999e-01,2.20876e-03,9.99999e-01
6.051222432e-01,2.49234e-03,9.99999e-01,9.99999e-01,9.99999e-01,2.49234e-03,9.99999e-01
6.081478544e-01,2.80563e-03,9.99999e-01,9.99999e-01,9.99999e-01,2.80563e-03,9.99999e-01
6.111885937e-01,3.15093e-03,9.99999e-01,9.99999e-01,9.99999e-01,3.15093e-03,9.99999e-01
6.142445367e-01,3.53062e-03,9.99999e-01,9.99999e-01,9.99999e-01,3.53062e-03,9.99999e-01
6.173157594e-01,3.94718e-03,9.99999e-01,9.99999e-01,9.99999e-01,3.94718e-03,9.99999e-01
6.204023382e-01,4.40318e-03,9.99999e-01,9.99999e-01,9.99999e-01,4.40318e-03,9.99999e-01
6.235043498e-01,4.90126e-03,9.99999e-01,9.99999e-01,9.99999e-01,4.90126e-03,9.99999e-01
6.266218716e-01,5.44414e-03,9.99999e-01,9.99999e-01,9.99999e-01,5.44414e-03,9.99999e-01
6.297549810e-01,6.03463e-03,9.99999e-01,9.99999e-01,9.99999e-01,6.03463e-03,9.99999e-01
6.329037559e-01,6.67557e-03,9.99999e-01,9.99999e-01,9.99999e-01,6.67557e-03,9.99999e-01
6.360682746e-01,7.36987e-03,9.99999e-01,9.99999e-01,9.99999e-01,7.36987e-03,9.99999e-01
6.392486160e-01,8.12050e-03,9.99999e-01,9.99999e-01,9.99999e-01,8.12050e-03,9.99999e-01
6.424448591e-01,8.93046e-03,9.99999e-01,9.99999e-01,9.99999e-01,8.93046e-03,9.99999e-01
6.456570834e-01,9.80278e-03,9.99999e-01,9.99999e-01,9.99999e-01,9.80278e-03,9.99999e-01
6.488853688e-01,1.07405e-02,9.99999e-01,9.99999e-01,9.99999e-01,1.07405e-02,9.99999e-01
6.521297956e-01,1.17467e-02,9.99999e-01,9.99999e-01,9.99999e-01,1.17467e-02,9.99999e-01
6.553904446e-01,1.28245e-02,9.99999e-01,9.99999e-01,9.99999e-01,1.28245e-02,9.99999e-01
6.586673968e-01,1.39769e-02,9.99999e-01,9.99999e-01,9.99999e-01,1.39769e-02,9.99999e-01
6.619607338e-01,1.52070e-02,9.99999e-01,9.99999e-01,9.99999e-01,1.52070e-02,9.99999e-01
6.652705375e-01,1.65179e-02,9.99999e-01,9.99999e-01,9.99999e-01,1.65179e-02,9.99999e-01
6.685968902e-01,1.79124e-02,9.99999e-01,9.99999e-01,9.99999e-01,1.79124e-02,9.99999e-01
6.719398746e-01,1.93936e-02,9.99999e-01,9.99999e-01,9.99999e-01,1.93936e-02,9.99999e-01
6.752995740e-01,2.09643e-02,9.99999e-01,9.99999e-01,9.99999e-01,2.09643e-02,9.99999e-01
6.786760719e-01,2.26275e-02,9.99999e-01,9.99999e-01,9.99999e-01,2.26275e-02,9.99999e-01
6.820694522e-01,2.43857e-02,9.99999e-01,9.99999e-01,9.99999e-01,2.43857e-02,9.99999e-01
6.854797995e-01,2.62418e-02,9.99999e-01,9.99999e-01,9.99999e-01,2.62418e-02,9.99999e-01
6.889071985e-01,2.81983e-02,9.99999e-01,9.99999e-01,9.99999e-01,2.81983e-02,9.99999e-01
6.923517345e-01,3.02576e-02,9.99999e-01,9.99999e-01,9.99999e-01,3.02576e-02,9.99999e-01
6.958134932e-01,3.24222e-02,9.99999e-01,9.99999e-01,9.99999e-01,3.24222e-02,9.99999e-01
6.992925606e-01,3.46942e-02,9.99999e-01,9.99999e-01,9.99999e-01,3.46942e-02,9.99999e-01
7.027890234e-01,3.70758e-02,9.99999e-01,9.99999e-01,9.99999e-01,3.70758e-02,9.99999e-01
7.063029686e-01,3.95689e-02,9.99999e-01,9.99999e-01,9.99999e-01,3.95689e-02,9.99999e-01
7.098344834e-01,4.21755e-02,9.99999e-01,9.99999e-01,9.99999e-01,4.21755e-02,9.99999e-01
7.133836558e-01,4.48971e-02,9.99999e-01,9.99999e-01,9.99999e-01,4.48971e-02,9.99999e-01
7.169505741e-01,4.77354e-02,9.99999e-01,9.99999e-01,9.99999e-01,4.77354e-02,9.99999e-01
7.205353270e-01,5.06917e-02,9.99999e-01,9.99999e-01,9.99999e-01,5.06917e-02,9.99999e-01
7.241380036e-01,5.37672e-02,9.99999e-01,9.99999e-01,9.99999e-01,5.37672e-02,9.99999e-01
7.277586936e-01,5.69630e-02,9.99999e-01,9.99999e-01,9.99999e-01,5.69630e-02,9.99999e-01
7.313974871e-01,6.02799e-02,9.99999e-01,9.99999e-01,9.99999e-01,6.02799e-02,9.99999e-01
7.350544745e-01,6.37188e-02,9.99999e-01,9.99999e-01,9.99999e-01,6.37188e-02,9.99999e-01
7.387297469e-01,6.72800e-02,9.99999e-01,9.99999e-01,9.99999e-01,6.72800e-02,9.99999e-01
7.424233956e-01,7.09640e-02,9.99999e-01,9.99999e-01,9.99999e-01,7.09640e-02,9.99999e-01
7.461355126e-01,7.47710e-02,9.99999e-01,9.99999e-01,9.99999e-01,7.47710e-02,9.99999e-01
7.498661902e-01,7.87009e-02,9.99999e-01,9.99999e-01,9.99999e-01,7.87009e-02,9.99999e-01
7.536155211e-01,8.27536e-02,9.99999e-01,9.99999e-01,9.99999e-01,8.27536e-02,9.99999e-01
7.573835987e-01,8.69287e-02,9.99999e-01,9.99999e-01,9.99999e-01,8.69287e-02,9.99999e-01
7.611705167e-01,9.12257e-02,9.99999e-01,9.99999e-01,9.99999e-01,9.12257e-02,9.99999e-01
7.649763693e-01,9.56439e-02,9.99999e-01,9.99999e-01,9.99999e-01,9.56439e-02,9.99999e-01
7.688012511e-01,1.00183e-01,9.99999e-01,9.99999e-01,9.99999e-01,1.00183e-01,9.99999e-01
7.726452574e-01,1.04840e-01,9.99999e-01,9.99999e-01,9.99999e-01,1.04840e-01,9.99999e-01
7.765084837e-01,1.09616e-01,9.99999e-01,9.99999e-01,9.99999e-01,1.09616e-01,9.99999e-01
7.803910261e-01,1.05312e-01,9.99999e-01,9.99999e-01,9.19679e-01,1.14509e-01,9.99999e-01
7.842929812e-01,7.78238e-02,9.99999e-01,9.99999e-01,6.51150e-01,1.19517e-01,9.99999e-01
7.882144461e-01,7.94447e-02,9.99999e-01,9.99999e-01,6.37398e-01,1.24639e-01,9.99999e-01
7.921555184e-01,9.85479e-02,9.99999e-01,9.99999e-01,7.58805e-01,1.29872e-01,9.99999e-01
7.961162960e-01,1.12029e-01,9.99999e-01,9.99999e-01,8.28519e-01,1.35216e-01,9.99999e-01
8.000968774e-01,1.27028e-01,9.99999e-01,9.99999e-01,9.03044e-01,1.40667e-01,9.99999e-01
8.040973618e-01,1.38654e-01,9.99999e-01,9.99999e-01,9.48231e-01,1.46223e-01,9.99999e-01
8.081178486e-01,1.48235e-01,9.99999e-01,9.99999e-01,9.75981e-01,1.51883e-01,9.99999e-01
8.121584379e-01,1.56454e-01,9.99999e-01,9.99999e-01,9.92454e-01,1.57644e-01,9.99999e-01
8.162192301e-01,1.63229e-01,9.99999e-01,9.99999e-01,9.98327e-01,1.63503e-01,9.99999e-01
8.203003262e-01,1.69452e-01,9.99999e-01,9.99999e-01,9.99971e-01,1.69457e-01,9.99999e-01
8.244018279e-01,1.75504e-01,9.99999e-01,9.99999e-01,9.99999e-01,1.75504e-01,9.99999e-01
8.285238370e-01,1.81641e-01,9.99999e-01,9.99999e-01,9.99999e-01,1.81641e-01,9.99999e-01
8.326664562e-01,1.87866e-01,9.99999e-01,9.99999e-01,9.99999e-01,1.87866e-01,9.99999e-01
8.368297885e-01,1.94174e-01,9.99999e-01,9.99999e-01,9.99999e-01,1.94174e-01,9.99999e-01
8.410139374e-01,2.00563e-01,9.99999e-01,9.99999e-01,9.99999e-01,2.00563e-01,9.99999e-01
8.452190071e-01,2.07030e-01,9.99999e-01,9.99999e-01,9.99999e-01,2.07030e-01,9.99999e-01
8.494451021e-01,2.13571e-01,9.99999e-01,9.99999e-01,9.99999e-01,2.13571e-01,9.99999e-01
8.536923276e-01,2.20184e-01,9.99999e-01,9.99999e-01,9.99999e-01,2.20184e-01,9.99999e-01
8.579607893e-01,2.26865e-01,9.99999e-01,9.99999e-01,9.99999e-01,2.26865e-01,9.99999e-01
8.622505932e-01,2.33611e-01,9.99999e-01,9.99999e-01,9.99999e-01,2.33611e-01,9.99999e-01
8.665618462e-01,2.10560e-01,9.99999e-01,9.99999e-01,8.75808e-01,2.40418e-01,9.99999e-01
8.708946554e-01,8.65716e-02,9.99999e-01,9.99999e-01,3.50091e-01,2.47283e-01,9.99999e-01
8.752491287e-01,1.05743e-01,9.99999e-01,9.99999e-01,4.15981e-01,2.54203e-01,9.99999e-01
8.796253743e-01,1.59299e-01,9.99999e-01,9.99999e-01,6.09935e-01,2.61173e-01,9.99999e-01
8.840235012e-01,2.06640e-01,9.99999e-01,9.99999e-01,7.70493e-01,2.68192e-01,9.99999e-01
8.884436187e-01,2.48095e-01,9.99999e-01,9.99999e-01,9.01325e-01,2.75255e-01,9.99999e-01
8.928858368e-01,2.70731e-01,9.99999e-01,9.99999e-01,9.58817e-01,2.82359e-01,9.99999e-01
8.973502660e-01,2.86539e-01,9.99999e-01,9.99999e-01,9.89765e-01,2.89501e-01,9.99999e-01
9.018370173e-01,2.96340e-01,9.99999e-01,9.99999e-01,9.98864e-01,2.96677e-01,9.99999e-01
9.063462024e-01,2.95595e-01,9.99999e-01,9.99999e-01,9.72721e-01,3.03884e-01,9.99999e-01
9.108779334e-01,2.91211e-01,9.99999e-01,9.99999e-01,9.36013e-01,3.11118e-01,9.99999e-01
9.154323231e-01,3.13422e-01,9.99999e-01,9.99999e-01,9.84435e-01,3.18377e-01,9.99999e-01
9.200094847e-01,2.67830e-01,9.99999e-01,9.99999e-01,8.22430e-01,3.25656e-01,9.99999e-01
9.246095321e-01,2.41447e-01,9.99999e-01,9.99999e-01,7.25165e-01,3.32954e-01,9.99999e-01
9.292325798e-01,2.66287e-01,9.99999e-01,9.99999e-01,7.82586e-01,3.40266e-01,9.99999e-01
9.338787427e-01,2.72912e-01,9.99999e-01,9.99999e-01,7.85156e-01,3.47589e-01,9.99999e-01
9.385481364e-01,2.96716e-01,9.99999e-01,9.99999e-01,8.36006e-01,3.54920e-01,9.99999e-01
9.432408771e-01,3.24312e-01,9.99999e-01,9.99999e-01,8.95253e-01,3.62257e-01,9.99999e-01
9.479570815e-01,3.49246e-01,9.99999e-01,9.99999e-01,9.44940e-01,3.69596e-01,9.99999e-01
9.526968669e-01,3.66771e-01,9.99999e-01,9.99999e-01,9.73036e-01,3.76934e-01,9.99999e-01
9.574603512e-01,3.79797e-01,9.99999e-01,9.99999e-01,9.88362e-01,3.84269e-01,9.99999e-01
9.622476530e-01,3.90169e-01,9.99999e-01,9.99999e-01,9.96351e-01,3.91598e-01,9.99999e-01
9.670588912e-01,3.98479e-01,9.99999e-01,9.99999e-01,9.98902e-01,3.98917e-01,9.99999e-01
9.718941857e-01,4.06192e-01,9.99999e-01,9.99999e-01,9.99920e-01,4.06224e-01,9.99999e-01
9.767536566e-01,4.13517e-01,9.99999e-01,9.99999e-01,9.99999e-01,4.13517e-01,9.99999e-01
9.816374249e-01,4.20794e-01,9.99999e-01,9.99999e-01,9.99999e-01,4.20794e-01,9.99999e-01
9.865456120e-01,4.28050e-01,9.99999e-01,9.99999e-01,9.99999e-01,4.28050e-01,9.99999e-01
9.914783401e-01,4.35285e-01,9.99999e-01,9.99999e-01,9.99999e-01,4.35285e-01,9.99999e-01
9.964357318e-01,4.42495e-01,9.99999e-01,9.99999e-01,9.99999e-01,4.42495e-01,9.99999e-01
1.001417910e+00,4.49679e-01,9.99999e-01,9.99999e-01,9.99999e-01,4.49679e-01,9.99999e-01
1.006425000e+00,4.56834e-01,9.99999e-01,9.99999e-01,9.99999e-01,4.56834e-01,9.99999e-01
1.011457125e+00,4.63959e-01,9.99999e-01,9.99999e-01,9.99999e-01,4.63959e-01,9.99999e-01
1.016514411e+00,4.71050e-01,9.99999e-01,9.99999e-01,9.99999e-01,4.71050e-01,9.99999e-01
1.021596983e+00,4.78043e-01,9.99999e-01,9.99999e-01,9.99865e-01,4.78107e-01,9.99999e-01
1.026704968e+00,4.79878e-01,9.99999e-01,9.99999e-01,9.89179e-01,4.85127e-01,9.99999e-01
1.031838492e+00,4.49212e-01,9.99999e-01,9.99999e-01,9.12831e-01,4.92108e-01,9.99999e-01
1.036997685e+00,2.74990e-02,9.99999e-01,9.99999e-01,5.51027e-02,4.99049e-01,9.99999e-01
1.042182673e+00,2.16451e-03,9.99999e-01,9.99999e-01,4.27812e-03,5.05947e-01,9.99999e-01
1.047393587e+00,5.58681e-03,9.99999e-01,9.99999e-01,1.08947e-02,5.12802e-01,9.99999e-01
1.052630555e+00,9.35757e-07,9.99999e-01,9.99999e-01,1.80087e-06,5.19612e-01,9.99999e-01
1.057893707e+00,3.43732e-06,9.99999e-01,9.99999e-01,6.53017e-06,5.26375e-01,9.99999e-01
1.063183176e+00,7.66669e-05,9.99999e-01,9.99999e-01,1.43816e-04,5.33090e-01,9.99999e-01
1.068499092e+00,7.20925e-04,9.99999e-01,9.99999e-01,1.33565e-03,5.39755e-01,9.99999e-01
1.073841587e+00,7.66957e-03,9.99999e-01,9.99999e-01,1.40373e-02,5.46369e-01,9.99999e-01
1.079210795e+00,3.78813e-02,9.99999e-01,9.99999e-01,6.85098e-02,5.52932e-01,9.99999e-01
1.084606849e+00,1.22075e-01,9.99999e-01,9.99999e-01,2.18209e-01,5.59441e-01,9.99999e-01
1.090029883e+00,2.55128e-01,9.99999e-01,9.99999e-01,4.50838e-01,5.65896e-01,9.99999e-01
1.095480033e+00,3.85708e-01,9.99999e-01,9.99999e-01,6.73964e-01,5.72296e-01,9.99999e-01
1.100957433e+00,4.77998e-01,9.99999e-01,9.99999e-01,8.26071e-01,5.78640e-01,9.99999e-01
1.106462220e+00,5.40369e-01,9.99999e-01,9.99999e-01,9.23821e-01,5.84927e-01,9.99999e-01
1.111994531e+00,5.74027e-01,9.99999e-01,9.99999e-01,9.71025e-01,5.91156e-01,9.99999e-01
1.117554504e+00,5.93033e-01,9.99999e-01,9.99999e-01,9.92813e-01,5.97326e-01,9.99999e-01
1.123142276e+00,6.03149e-01,9.99999e-01,9.99999e-01,9.99523e-01,6.03437e-01,9.99999e-01
1.128757988e+00,6.09487e-01,9.99999e-01,9.99999e-01,9.99999e-01,6.09487e-01,9.99999e-01
1.134401778e+00,6.15478e-01,9.99999e-01,9.99999e-01,9.99999e-01,6.15478e-01,9.99999e-01
1.140073787e+00,6.21407e-01,9.99999e-01,9.99999e-01,9.99999e-01,6.21407e-01,9.99999e-01
1.145774156e+00,6.27274e-01,9.99999e-01,9.99999e-01,9.99999e-01,6.27274e-01,9.99999e-01
1.151503026e+00,6.33079e-01,9.99999e-01,9.99999e-01,9.99999e-01,6.33079e-01,9.99999e-01
1.157260541e+00,6.38822e-01,9.99999e-01,9.99999e-01,9.99999e-01,6.38822e-01,9.99999e-01
1.163046844e+00,6.44501e-01,9.99999e-01,9.99999e-01,9.99999e-01,6.44501e-01,9.99999e-01
1.168862078e+00,6.50118e-01,9.99999e-01,9.99999e-01,9.99999e-01,6.50118e-01,9.99999e-01
1.174706389e+00,6.55671e-01,9.99999e-01,9.99999e-01,9.99999e-01,6.55671e-01,9.99999e-01
1.180579921e+00,6.61160e-01,9.99999e-01,9.99999e-01,9.99999e-01,6.61160e-01,9.99999e-01
1.186482820e+00,6.66577e-01,9.99999e-01,9.99999e-01,9.99985e-01,6.66586e-01,9.99999e-01
1.192415234e+00,6.47274e-01,9.99999e-01,9.99999e-01,9.63279e-01,6.71948e-01,9.99999e-01
1.198377311e+00,3.53524e-01,9.99999e-01,9.99999e-01,5.22002e-01,6.77245e-01,9.99999e-01
1.204369197e+00,5.34840e-29,9.99999e-01,9.99999e-01,7.83672e-29,6.82479e-01,9.99999e-01
1.210391043e+00,3.58761e-117,9.99999e-01,9.99999e-01,5.21722e-117,6.87648e-01,9.99999e-01
1.216442998e+00,2.10233e-101,9.99999e-01,9.99999e-01,3.03474e-101,6.92754e-01,9.99999e-01
1.222525213e+00,6.96434e-100,9.99999e-01,9.99999e-01,9.98049e-100,6.97795e-01,9.99999e-01
1.228637839e+00,4.56736e-77,9.99999e-01,9.99999e-01,6.49905e-77,7.02772e-01,9.99999e-01
