#,Wave/freq,Total,N2,O2,CO2,Rayleigh,CIA
4.000000000e-01,1.88462e-07,9.99999e-01,9.99999e-01,9.99999e-01,1.88462e-07,9.99999e-01
4.020000000e-01,2.55970e-07,9.99999e-01,9.99999e-01,9.99999e-01,2.55970e-07,9.99999e-01
4.040100000e-01,3.45457e-07,9.99999e-01,9.99999e-01,9.99999e-01,3.45457e-07,9.99999e-01
4.060300500e-01,4.63476e-07,9.99999e-01,9.99999e-01,9.99999e-01,4.63476e-07,9.99999e-01
4.080602003e-01,6.18214e-07,9.99999e-01,9.99999e-01,9.99999e-01,6.18214e-07,9.99999e-01
4.101005013e-01,8.19934e-07,9.99999e-01,9.99999e-01,9.99999e-01,8.19934e-07,9.99999e-01
4.121510038e-01,1.08143e-06,9.99999e-01,9.99999e-01,9.99999e-01,1.08143e-06,9.99999e-01
4.142117588e-01,1.41854e-06,9.99999e-01,9.99999e-01,9.99999e-01,1.41854e-06,9.99999e-01
4.162828176e-01,1.85078e-06,9.99999e-01,9.99999e-01,9.99999e-01,1.85078e-06,9.99999e-01
4.183642317e-01,2.40209e-06,9.99999e-01,9.99999e-01,9.99999e-01,2.40209e-06,9.99999e-01
4.204560528e-01,3.10161e-06,9.99999e-01,9.99999e-01,9.99999e-01,3.10161e-06,9.99999e-01
4.225583331e-01,3.98467e-06,9.99999e-01,9.99999e-01,9.99999e-01,3.98467e-06,9.99999e-01
4.246711247e-01,5.09387e-06,9.99999e-01,9.99999e-01,9.99999e-01,5.09387e-06,9.99999e-01
4.267944804e-01,6.48032e-06,9.99999e-01,9.99999e-01,9.99999e-01,6.48032e-06,9.99999e-01
4.289284528e-01,8.20503e-06,9.99999e-01,9.99999e-01,9.99999e-01,8.20503e-06,9.99999e-01
4.310730950e-01,1.03405e-05,9.99999e-01,9.99999e-01,9.99999e-01,1.03405e-05,9.99999e-01
4.332284605e-01,1.29722e-05,9.99999e-01,9.99999e-01,9.99999e-01,1.29722e-05,9.99999e-01
4.353946028e-01,1.62011e-05,9.99999e-01,9.99999e-01,9.99999e-01,1.62011e-05,9.99999e-01
4.375715758e-01,2.01451e-05,9.99999e-01,9.99999e-01,9.99999e-01,2.01451e-05,9.99999e-01
4.397594337e-01,2.49415e-05,9.99999e-01,9.99999e-01,9.99999e-01,2.49415e-05,9.99999e-01
4.419582309e-01,3.07500e-05,9.99999e-01,9.99999e-01,9.99999e-01,3.07500e-05,9.99999e-01
4.441680220e-01,3.77547e-05,9.99999e-01,9.99999e-01,9.99999e-01,3.77547e-05,9.99999e-01
4.463888621e-01,4.61676e-05,9.99999e-01,9.99999e-01,9.99999e-01,4.61676e-05,9.99999e-01
4.486208064e-01,5.62312e-05,9.99999e-01,9.99999e-01,9.99999e-01,5.62312e-05,9.99999e-01
4.508639105e-01,6.82222e-05,9.99999e-01,9.99999e-01,9.99999e-01,6.82222e-05,9.99999e-01
4.531182300e-01,8.24548e-05,9.99999e-01,9.99999e-01,9.99999e-01,8.24548e-05,9.99999e-01
4.553838212e-01,9.92843e-05,9.99999e-01,9.99999e-01,9.99999e-01,9.92843e-05,9.99999e-01
4.576607403e-01,1.19111e-04,9.99999e-01,9.99999e-01,9.99999e-01,1.19111e-04,9.99999e-01
4.599490440e-01,1.42384e-04,9.99999e-01,9.99999e-01,9.99999e-01,1.42384e-04,9.99999e-01
4.622487892e-01,1.69606e-04,9.99999e-01,9.99999e-01,9.99999e-01,1.69606e-04,9.99999e-01
4.645600332e-01,2.01335e-04,9.99999e-01,9.99999e-01,9.99999e-01,2.01335e-04,9.99999e-01
4.668828333e-01,2.38191e-04,9.99999e-01,9.99999e-01,9.99999e-01,2.38191e-04,9.99999e-01
4.692172475e-01,2.80860e-04,9.99999e-01,9.99999e-01,9.99999e-01,2.80860e-04,9.99999e-01
4.715633337e-01,3.30096e-04,9.99999e-01,9.99999e-01,9.99999e-01,3.30096e-04,9.99999e-01
4.739211504e-01,3.86729e-04,9.99999e-01,9.99999e-01,9.99999e-01,3.86729e-04,9.99999e-01
4.762907561e-01,4.51662e-04,9.99999e-01,9.99999e-01,9.99999e-01,4.51662e-04,9.99999e-01
4.786722099e-01,5.25883e-04,9.99999e-01,9.99999e-01,9.99999e-01,5.25883e-04,9.99999e-01
4.810655710e-01,6.10464e-04,9.99999e-01,9.99999e-01,9.99999e-01,6.10464e-04,9.99999e-01
4.834708988e-01,7.06563e-04,9.99999e-01,9.99999e-01,9.99999e-01,7.06563e-04,9.99999e-01
4.858882533e-01,8.15433e-04,9.99999e-01,9.99999e-01,9.99999e-01,8.15433e-04,9.99999e-01
4.883176946e-01,9.38417e-04,9.99999e-01,9.99999e-01,9.99999e-01,9.38417e-04,9.99999e-01
4.907592831e-01,1.07696e-03,9.99999e-01,9.99999e-01,9.99999e-01,1.07696e-03,9.99999e-01
4.932130795e-01,1.23259e-03,9.99999e-01,9.99999e-01,9.99999e-01,1.23259e-03,9.99999e-01
4.956791449e-01,1.40697e-03,9.99999e-01,9.99999e-01,9.99999e-01,1.40697e-03,9.99999e-01
4.981575406e-01,1.60181e-03,9.99999e-01,9.99999e-01,9.99999e-01,1.60181e-03,9.99999e-01
5.006483283e-01,1.81898e-03,9.99999e-01,9.99999e-01,9.99999e-01,1.81898e-03,9.99999e-01
5.031515699e-01,2.06041e-03,9.99999e-01,9.99999e-01,9.99999e-01,2.06041e-03,9.99999e-01
5.056673278e-01,2.32814e-03,9.99999e-01,9.99999e-01,9.99999e-01,2.32814e-03,9.99999e-01
5.081956644e-01,2.62432e-03,9.99999e-01,9.99999e-01,9.99999e-01,2.62432e-03,9.99999e-01
5.107366428e-01,2.95119e-03,9.99999e-01,9.99999e-01,9.99999e-01,2.95119e-03,9.99999e-01
5.132903260e-01,3.31110e-03,9.99999e-01,9.99999e-01,9.99999e-01,3.31110e-03,9.99999e-01
5.158567776e-01,3.70645e-03,9.99999e-01,9.99999e-01,9.99999e-01,3.70645e-03,9.99999e-01
5.184360615e-01,4.13978e-03,9.99999e-01,9.99999e-01,9.99999e-01,4.13978e-03,9.99999e-01
5.210282418e-01,4.61369e-03,9.99999e-01,9.99999e-01,9.99999e-01,4.61369e-03,9.99999e-01
5.236333830e-01,5.13084e-03,9.99999e-01,9.99999e-01,9.99999e-01,5.13084e-03,9.99999e-01
5.262515499e-01,5.69401e-03,9.99999e-01,9.99999e-01,9.99999e-01,5.69401e-03,9.99999e-01
5.288828077e-01,6.30601e-03,9.99999e-01,9.99999e-01,9.99999e-01,6.30601e-03,9.99999e-01
5.315272217e-01,6.96971e-03,9.99999e-01,9.99999e-01,9.99999e-01,6.96971e-03,9.99999e-01
5.341848578e-01,7.68806e-03,9.99999e-01,9.99999e-01,9.99999e-01,7.68806e-03,9.99999e-01
5.368557821e-01,8.46402e-03,9.99999e-01,9.99999e-01,9.99999e-01,8.46402e-03,9.99999e-01
5.395400610e-01,9.30063e-03,9.99999e-01,9.99999e-01,9.99999e-01,9.30063e-03,9.99999e-01
5.422377613e-01,1.02009e-02,9.99999e-01,9.99999e-01,9.99999e-01,1.02009e-02,9.99999e-01
5.449489501e-01,1.11680e-02,9.99999e-01,9.99999e-01,9.99999e-01,1.11680e-02,9.99999e-01
5.476736949e-01,1.22048e-02,9.99999e-01,9.99999e-01,9.99999e-01,1.22048e-02,9.99999e-01
5.504120634e-01,1.33146e-02,9.99999e-01,9.99999e-01,9.99999e-01,1.33146e-02,9.99999e-01
5.531641237e-01,1.45003e-02,9.99999e-01,9.99999e-01,9.99999e-01,1.45003e-02,9.99999e-01
5.559299443e-01,1.57650e-02,9.99999e-01,9.99999e-01,9.99999e-01,1.57650e-02,9.99999e-01
5.587095940e-01,1.71117e-02,9.99999e-01,9.99999e-01,9.99999e-01,1.71117e-02,9.99999e-01
5.615031420e-01,1.85434e-02,9.99999e-01,9.99999e-01,9.99999e-01,1.85434e-02,9.99999e-01
5.643106577e-01,2.00631e-02,9.99999e-01,9.99999e-01,9.99999e-01,2.00631e-02,9.99999e-01
5.671322110e-01,2.16735e-02,9.99999e-01,9.99999e-01,9.99999e-01,2.16735e-02,9.99999e-01
5.699678720e-01,2.33775e-02,9.99999e-01,9.99999e-01,9.99999e-01,2.33775e-02,9.99999e-01
5.728177114e-01,2.51779e-02,9.99999e-01,9.99999e-01,9.99999e-01,2.51779e-02,9.99999e-01
5.756818000e-01,2.70772e-02,9.99999e-01,9.99999e-01,9.99999e-01,2.70772e-02,9.99999e-01
5.785602090e-01,2.90779e-02,9.99999e-01,9.99999e-01,9.99999e-01,2.90779e-02,9.99999e-01
5.814530100e-01,3.11825e-02,9.99999e-01,9.99999e-01,9.99999e-01,3.11825e-02,9.99999e-01
5.843602750e-01,3.33934e-02,9.99999e-01,9.99999e-01,9.99999e-01,3.33934e-02,9.99999e-01
5.872820764e-01,3.57126e-02,9.99999e-01,9.99999e-01,9.99999e-01,3.57126e-02,9.99999e-01
5.902184868e-01,3.81423e-02,9.99999e-01,9.99999e-01,9.99999e-01,3.81423e-02,9.99999e-01
5.931695792e-01,4.06844e-02,9.99999e-01,9.99999e-01,9.99999e-01,4.06844e-02,9.99999e-01
5.961354271e-01,4.33406e-02,9.99999e-01,9.99999e-01,9.99999e-01,4.33406e-02,9.99999e-01
5.991161043e-01,4.61126e-02,9.99999e-01,9.99999e-01,9.99999e-01,4.61126e-02,9.99999e-01
6.021116848e-01,4.90019e-02,9.99999e-01,9.99999e-01,9.99999e-01,4.90019e-02,9.99999e-01
6.051222432e-01,5.20097e-02,9.99999e-01,9.99999e-01,9.99999e-01,5.20097e-02,9.99999e-01
6.081478544e-01,5.51372e-02,9.99999e-01,9.99999e-01,9.99999e-01,5.51372e-02,9.99999e-01
6.111885937e-01,5.83854e-02,9.99999e-01,9.99999e-01,9.99999e-01,5.83854e-02,9.99999e-01
6.142445367e-01,6.17551e-02,9.99999e-01,9.99999e-01,9.99999e-01,6.17551e-02,9.99999e-01
6.173157594e-01,6.52469e-02,9.99999e-01,9.99999e-01,9.99999e-01,6.52469e-02,9.99999e-01
6.204023382e-01,6.88613e-02,9.99999e-01,9.99999e-01,9.99999e-01,6.88613e-02,9.99999e-01
6.235043498e-01,7.25986e-02,9.99999e-01,9.99999e-01,9.99999e-01,7.25986e-02,9.99999e-01
6.266218716e-01,7.64588e-02,9.99999e-01,9.99999e-01,9.99999e-01,7.64588e-02,9.99999e-01
6.297549810e-01,8.04420e-02,9.99999e-01,9.99999e-01,9.99999e-01,8.04420e-02,9.99999e-01
6.329037559e-01,8.45478e-02,9.99999e-01,9.99999e-01,9.99999e-01,8.45478e-02,9.99999e-01
6.360682746e-01,8.87758e-02,9.99999e-01,9.99999e-01,9.99999e-01,8.87758e-02,9.99999e-01
6.392486160e-01,9.31254e-02,9.99999e-01,9.99999e-01,9.99999e-01,9.31254e-02,9.99999e-01
6.424448591e-01,9.75959e-02,9.99999e-01,9.99999e-01,9.99999e-01,9.75959e-02,9.99999e-01
6.456570834e-01,1.02186e-01,9.99999e-01,9.99999e-01,9.99999e-01,1.02186e-01,9.99999e-01
6.488853688e-01,1.06896e-01,9.99999e-01,9.99999e-01,9.99999e-01,1.06896e-01,9.99999e-01
6.521297956e-01,1.11722e-01,9.99999e-01,9.99999e-01,9.99999e-01,1.11722e-01,9.99999e-01
6.553904446e-01,1.16665e-01,9.99999e-01,9.99999e-01,9.99999e-01,1.16665e-01,9.99999e-01
6.586673968e-01,1.21723e-01,9.99999e-01,9.99999e-01,9.99999e-01,1.21723e-01,9.99999e-01
6.619607338e-01,1.26893e-01,9.99999e-01,9.99999e-01,9.99999e-01,1.26893e-01,9.99999e-01
6.652705375e-01,1.32174e-01,9.99999e-01,9.99999e-01,9.99999e-01,1.32174e-01,9.99999e-01
6.685968902e-01,1.37565e-01,9.99999e-01,9.99999e-01,9.99999e-01,1.37565e-01,9.99999e-01
6.719398746e-01,1.43062e-01,9.99999e-01,9.99999e-01,9.99999e-01,1.43062e-01,9.99999e-01
6.752995740e-01,1.48663e-01,9.99999e-01,9.99999e-01,9.99999e-01,1.48663e-01,9.99999e-01
6.786760719e-01,1.54367e-01,9.99999e-01,9.99999e-01,9.99999e-01,1.54367e-01,9.99999e-01
6.820694522e-01,1.60171e-01,9.99999e-01,9.99999e-01,9.99999e-01,1.60171e-01,9.99999e-01
6.854797995e-01,1.66071e-01,9.99999e-01,9.99999e-01,9.99999e-01,1.66071e-01,9.99999e-01
6.889071985e-01,1.72066e-01,9.99999e-01,9.99999e-01,9.99999e-01,1.72066e-01,9.99999e-01
6.923517345e-01,1.78153e-01,9.99999e-01,9.99999e-01,9.99999e-01,1.78153e-01,9.99999e-01
6.958134932e-01,1.84328e-01,9.99999e-01,9.99999e-01,9.99999e-01,1.84328e-01,9.99999e-01
6.992925606e-01,1.90589e-01,9.99999e-01,9.99999e-01,9.99999e-01,1.90589e-01,9.99999e-01
7.027890234e-01,1.96933e-01,9.99999e-01,9.99999e-01,9.99999e-01,1.96933e-01,9.99999e-01
7.063029686e-01,2.03356e-01,9.99999e-01,9.99999e-01,9.99999e-01,2.03356e-01,9.99999e-01
7.098344834e-01,2.09855e-01,9.99999e-01,9.99999e-01,9.99999e-01,2.09855e-01,9.99999e-01
7.133836558e-01,2.16428e-01,9.99999e-01,9.99999e-01,9.99999e-01,2.16428e-01,9.99999e-01
7.169505741e-01,2.23071e-01,9.99999e-01,9.99999e-01,9.99999e-01,2.23071e-01,9.99999e-01
7.205353270e-01,2.29780e-01,9.99999e-01,9.99999e-01,9.99999e-01,2.29780e-01,9.99999e-01
7.241380036e-01,2.36553e-01,9.99999e-01,9.99999e-01,9.99999e-01,2.36553e-01,9.99999e-01
7.277586936e-01,2.43386e-01,9.99999e-01,9.99999e-01,9.99999e-01,2.43386e-01,9.99999e-01
7.313974871e-01,2.50275e-01,9.99999e-01,9.99999e-01,9.99999e-01,2.50275e-01,9.99999e-01
7.350544745e-01,2.57217e-01,9.99999e-01,9.99999e-01,9.99999e-01,2.57217e-01,9.99999e-01
7.387297469e-01,2.64209e-01,9.99999e-01,9.99999e-01,9.99999e-01,2.64209e-01,9.99999e-01
7.424233956e-01,2.71248e-01,9.99999e-01,9.99999e-01,9.99999e-01,2.71248e-01,9.99999e-01
7.461355126e-01,2.78329e-01,9.99999e-01,9.99999e-01,9.99999e-01,2.78329e-01,9.99999e-01
7.498661902e-01,2.85450e-01,9.99999e-01,9.99999e-01,9.99999e-01,2.85450e-01,9.99999e-01
7.536155211e-01,2.92607e-01,9.99999e-01,9.99999e-01,9.99999e-01,2.92607e-01,9.99999e-01
7.573835987e-01,2.99797e-01,9.99999e-01,9.99999e-01,9.99999e-01,2.99797e-01,9.99999e-01
7.611705167e-01,3.07016e-01,9.99999e-01,9.99999e-01,9.99999e-01,3.07016e-01,9.99999e-01
7.649763693e-01,3.14261e-01,9.99999e-01,9.99999e-01,9.99999e-01,3.14261e-01,9.99999e-01
7.688012511e-01,3.21529e-01,9.99999e-01,9.99999e-01,9.99999e-01,3.21529e-01,9.99999e-01
7.726452574e-01,3.28817e-01,9.99999e-01,9.99999e-01,9.99999e-01,3.28817e-01,9.99999e-01
7.765084837e-01,3.36121e-01,9.99999e-01,9.99999e-01,9.99999e-01,3.36121e-01,9.99999e-01
7.803910261e-01,3.27084e-01,9.99999e-01,9.99999e-01,9.52380e-01,3.43438e-01,9.99999e-01
7.842929812e-01,2.81877e-01,9.99999e-01,9.99999e-01,8.03607e-01,3.50765e-01,9.99999e-01
7.882144461e-01,2.83453e-01,9.99999e-01,9.99999e-01,7.91548e-01,3.58099e-01,9.99999e-01
7.921555184e-01,3.18288e-01,9.99999e-01,9.99999e-01,8.70978e-01,3.65437e-01,9.99999e-01
7.961162960e-01,3.39829e-01,9.99999e-01,9.99999e-01,9.11615e-01,3.72776e-01,9.99999e-01
8.000968774e-01,3.61504e-01,9.99999e-01,9.99999e-01,9.51040e-01,3.80113e-01,9.99999e-01
8.040973618e-01,3.77509e-01,9.99999e-01,9.99999e-01,9.74352e-01,3.87446e-01,9.99999e-01
8.081178486e-01,3.90085e-01,9.99999e-01,9.99999e-01,9.88130e-01,3.94771e-01,9.99999e-01
8.121584379e-01,4.00609e-01,9.99999e-01,9.99999e-01,9.96328e-01,4.02085e-01,9.99999e-01
8.162192301e-01,4.09054e-01,9.99999e-01,9.99999e-01,9.99188e-01,4.09387e-01,9.99999e-01
8.203003262e-01,4.16668e-01,9.99999e-01,9.99999e-01,9.99987e-01,4.16673e-01,9.99999e-01
8.244018279e-01,4.23941e-01,9.99999e-01,9.99999e-01,9.99999e-01,4.23941e-01,9.99999e-01
8.285238370e-01,4.31188e-01,9.99999e-01,9.99999e-01,9.99999e-01,4.31188e-01,9.99999e-01
8.326664562e-01,4.38412e-01,9.99999e-01,9.99999e-01,9.99999e-01,4.38412e-01,9.99999e-01
8.368297885e-01,4.45612e-01,9.99999e-01,9.99999e-01,9.99999e-01,4.45612e-01,9.99999e-01
8.410139374e-01,4.52783e-01,9.99999e-01,9.99999e-01,9.99999e-01,4.52783e-01,9.99999e-01
8.452190071e-01,4.59926e-01,9.99999e-01,9.99999e-01,9.99999e-01,4.59926e-01,9.99999e-01
8.494451021e-01,4.67036e-01,9.99999e-01,9.99999e-01,9.99999e-01,4.67036e-01,9.99999e-01
8.536923276e-01,4.74112e-01,9.99999e-01,9.99999e-01,9.99999e-01,4.74112e-01,9.99999e-01
8.579607893e-01,4.81153e-01,9.99999e-01,9.99999e-01,9.99999e-01,4.81153e-01,9.99999e-01
8.622505932e-01,4.88157e-01,9.99999e-01,9.99999e-01,9.99999e-01,4.88157e-01,9.99999e-01
8.665618462e-01,4.48978e-01,9.99999e-01,9.99999e-01,9.06804e-01,4.95121e-01,9.99999e-01
8.708946554e-01,2.89453e-01,9.99999e-01,9.99999e-01,5.76549e-01,5.02043e-01,9.99999e-01
8.752491287e-01,3.25400e-01,9.99999e-01,9.99999e-01,6.39389e-01,5.08923e-01,9.99999e-01
8.796253743e-01,4.02692e-01,9.99999e-01,9.99999e-01,7.80775e-01,5.15759e-01,9.99999e-01
8.840235012e-01,4.59356e-01,9.99999e-01,9.99999e-01,8.79068e-01,5.22548e-01,9.99999e-01
8.884436187e-01,5.03065e-01,9.99999e-01,9.99999e-01,9.50451e-01,5.29291e-01,9.99999e-01
8.928858368e-01,5.25054e-01,9.99999e-01,9.99999e-01,9.79607e-01,5.35984e-01,9.99999e-01
8.973502660e-01,5.39925e-01,9.99999e-01,9.99999e-01,9.95018e-01,5.42627e-01,9.99999e-01
9.018370173e-01,5.48918e-01,9.99999e-01,9.99999e-01,9.99450e-01,5.49220e-01,9.99999e-01
9.063462024e-01,5.47928e-01,9.99999e-01,9.99999e-01,9.85909e-01,5.55759e-01,9.99999e-01
9.108779334e-01,5.44258e-01,9.99999e-01,9.99999e-01,9.68008e-01,5.62245e-01,9.99999e-01
9.154323231e-01,5.64365e-01,9.99999e-01,9.99999e-01,9.92417e-01,5.68677e-01,9.99999e-01
9.200094847e-01,5.16159e-01,9.99999e-01,9.99999e-01,8.97586e-01,5.75052e-01,9.99999e-01
9.246095321e-01,4.95923e-01,9.99999e-01,9.99999e-01,8.53022e-01,5.81371e-01,9.99999e-01
9.292325798e-01,5.18921e-01,9.99999e-01,9.99999e-01,8.83069e-01,5.87633e-01,9.99999e-01
9.338787427e-01,5.26548e-01,9.99999e-01,9.99999e-01,8.86687e-01,5.93837e-01,9.99999e-01
9.385481364e-01,5.49137e-01,9.99999e-01,9.99999e-01,9.15256e-01,5.99981e-01,9.99999e-01
9.432408771e-01,5.74073e-01,9.99999e-01,9.99999e-01,9.47211e-01,6.06066e-01,9.99999e-01
9.479570815e-01,5.95284e-01,9.99999e-01,9.99999e-01,9.72542e-01,6.12091e-01,9.99999e-01
9.526968669e-01,6.09820e-01,9.99999e-01,9.99999e-01,9.86677e-01,6.18054e-01,9.99999e-01
9.574603512e-01,6.20389e-01,9.99999e-01,9.99999e-01,9.94282e-01,6.23957e-01,9.99999e-01
9.622476530e-01,6.28672e-01,9.99999e-01,9.99999e-01,9.98213e-01,6.29797e-01,9.99999e-01
9.670588912e-01,6.35235e-01,9.99999e-01,9.99999e-01,9.99464e-01,6.35575e-01,9.99999e-01
9.718941857e-01,6.41266e-01,9.99999e-01,9.99999e-01,9.99961e-01,6.41291e-01,9.99999e-01
9.767536566e-01,6.46943e-01,9.99999e-01,9.99999e-01,9.99999e-01,6.46943e-01,9.99999e-01
9.816374249e-01,6.52532e-01,9.99999e-01,9.99999e-01,9.99999e-01,6.52532e-01,9.99999e-01
9.865456120e-01,6.58058e-01,9.99999e-01,9.99999e-01,9.99999e-01,6.58058e-01,9.99999e-01
9.914783401e-01,6.63519e-01,9.99999e-01,9.99999e-01,9.99999e-01,6.63519e-01,9.99999e-01
9.964357318e-01,6.68917e-01,9.99999e-01,9.99999e-01,9.99999e-01,6.68917e-01,9.99999e-01
1.001417910e+00,6.74251e-01,9.99999e-01,9.99999e-01,9.99999e-01,6.74251e-01,9.99999e-01
1.006425000e+00,6.79521e-01,9.99999e-01,9.99999e-01,9.99999e-01,6.79521e-01,9.99999e-01
1.011457125e+00,6.84727e-01,9.99999e-01,9.99999e-01,9.99999e-01,6.84727e-01,9.99999e-01
1.016514411e+00,6.89868e-01,9.99999e-01,9.99999e-01,9.99999e-01,6.89868e-01,9.99999e-01
1.021596983e+00,6.94892e-01,9.99999e-01,9.99999e-01,9.99922e-01,6.94946e-01,9.99999e-01
1.026704968e+00,6.96085e-01,9.99999e-01,9.99999e-01,9.94464e-01,6.99959e-01,9.99999e-01
1.031838492e+00,6.63727e-01,9.99999e-01,9.99999e-01,9.41577e-01,7.04909e-01,9.99999e-01
1.036997685e+00,7.58486e-02,9.99999e-01,9.99999e-01,1.06860e-01,7.09795e-01,9.99999e-01
1.042182673e+00,3.56308e-02,9.99999e-01,9.99999e-01,4.98600e-02,7.14617e-01,9.99999e-01
1.047393587e+00,5.26483e-02,9.99999e-01,9.99999e-01,7.31860e-02,7.19376e-01,9.99999e-01
1.052630555e+00,3.79118e-04,9.99999e-01,9.99999e-01,5.23591e-04,7.24071e-01,9.99999e-01
1.057893707e+00,1.17106e-03,9.99999e-01,9.99999e-01,1.60704e-03,7.28703e-01,9.99999e-01
1.063183176e+00,6.13962e-03,9.99999e-01,9.99999e-01,8.37289e-03,7.33273e-01,9.99999e-01
1.068499092e+00,2.43083e-02,9.99999e-01,9.99999e-01,3.29479e-02,7.37780e-01,9.99999e-01
1.073841587e+00,8.52361e-02,9.99999e-01,9.99999e-01,1.14838e-01,7.42225e-01,9.99999e-01
1.079210795e+00,1.89641e-01,9.99999e-01,9.99999e-01,2.54003e-01,7.46609e-01,9.99999e-01
1.084606849e+00,3.51208e-01,9.99999e-01,9.99999e-01,4.67697e-01,7.50931e-01,9.99999e-01
1.090029883e+00,5.08464e-01,9.99999e-01,9.99999e-01,6.73290e-01,7.55191e-01,9.99999e-01
1.095480033e+00,6.24842e-01,9.99999e-01,9.99999e-01,8.22819e-01,7.59391e-01,9.99999e-01
1.100957433e+00,6.94977e-01,9.99999e-01,9.99999e-01,9.10213e-01,7.63531e-01,9.99999e-01
1.106462220e+00,7.38324e-01,9.99999e-01,9.99999e-01,9.61845e-01,7.67611e-01,9.99999e-01
1.111994531e+00,7.60583e-01,9.99999e-01,9.99999e-01,9.85681e-01,7.71632e-01,9.99999e-01
1.117554504e+00,7.72872e-01,9.99999e-01,9.99999e-01,9.96490e-01,7.75593e-01,9.99999e-01
1.123142276e+00,7.79317e-01,9.99999e-01,9.99999e-01,9.99769e-01,7.79496e-01,9.99999e-01
1.128757988e+00,7.83341e-01,9.99999e-01,9.99999e-01,9.99999e-01,7.83341e-01,9.99999e-01
1.134401778e+00,7.87128e-01,9.99999e-01,9.99999e-01,9.99999e-01,7.87128e-01,9.99999e-01
1.140073787e+00,7.90859e-01,9.99999e-01,9.99999e-01,9.99999e-01,7.90859e-01,9.99999e-01
1.145774156e+00,7.94533e-01,9.99999e-01,9.99999e-01,9.99999e-01,7.94533e-01,9.99999e-01
1.151503026e+00,7.98150e-01,9.99999e-01,9.99999e-01,9.99999e-01,7.98150e-01,9.99999e-01
1.157260541e+00,8.01713e-01,9.99999e-01,9.99999e-01,9.99999e-01,8.01713e-01,9.99999e-01
1.163046844e+00,8.05220e-01,9.99999e-01,9.99999e-01,9.99999e-01,8.05220e-01,9.99999e-01
1.168862078e+00,8.08673e-01,9.99999e-01,9.99999e-01,9.99999e-01,8.08673e-01,9.99999e-01
1.174706389e+00,8.12072e-01,9.99999e-01,9.99999e-01,9.99999e-01,8.12072e-01,9.99999e-01
1.180579921e+00,8.15418e-01,9.99999e-01,9.99999e-01,9.99999e-01,8.15418e-01,9.99999e-01
1.186482820e+00,8.18703e-01,9.99999e-01,9.99999e-01,9.99988e-01,8.18712e-01,9.99999e-01
1.192415234e+00,8.05929e-01,9.99999e-01,9.99999e-01,9.80504e-01,8.21953e-01,9.99999e-01
1.198377311e+00,4.54035e-01,9.99999e-01,9.99999e-01,5.50250e-01,8.25142e-01,9.99999e-01
1.204369197e+00,1.90325e-15,9.99999e-01,9.99999e-01,2.29783e-15,8.28281e-01,9.99999e-01
1.210391043e+00,6.01448e-59,9.99999e-01,9.99999e-01,7.23443e-59,8.31369e-01,9.99999e-01
1.216442998e+00,3.61299e-51,9.99999e-01,9.99999e-01,4.33000e-51,8.34407e-01,9.99999e-01
1.222525213e+00,2.03335e-50,9.99999e-01,9.99999e-01,2.42818e-50,8.37396e-01,9.99999e-01
1.228637839e+00,4.87816e-39,9.99999e-01,9.99999e-01,5.80500e-39,8.40337e-01,9.99999e-01
