#,Wave/freq,Total,N2,O2,CO2,Rayleigh,CIA
4.000000000e-01,2.71998e-05,9.99999e-01,9.99999e-01,9.99999e-01,2.71998e-05,9.99999e-01
4.020000000e-01,3.34838e-05,9.99999e-01,9.99999e-01,9.99999e-01,3.34838e-05,9.99999e-01
4.040100000e-01,4.10421e-05,9.99999e-01,9.99999e-01,9.99999e-01,4.10421e-05,9.99999e-01
4.060300500e-01,5.01048e-05,9.99999e-01,9.99999e-01,9.99999e-01,5.01048e-05,9.99999e-01
4.080602003e-01,6.09281e-05,9.99999e-01,9.99999e-01,9.99999e-01,6.09281e-05,9.99999e-01
4.101005013e-01,7.38036e-05,9.99999e-01,9.99999e-01,9.99999e-01,7.38036e-05,9.99999e-01
4.121510038e-01,8.90622e-05,9.99999e-01,9.99999e-01,9.99999e-01,8.90622e-05,9.99999e-01
4.142117588e-01,1.07077e-04,9.99999e-01,9.99999e-01,9.99999e-01,1.07077e-04,9.99999e-01
4.162828176e-01,1.28269e-04,9.99999e-01,9.99999e-01,9.99999e-01,1.28269e-04,9.99999e-01
4.183642317e-01,1.53107e-04,9.99999e-01,9.99999e-01,9.99999e-01,1.53107e-04,9.99999e-01
4.204560528e-01,1.82117e-04,9.99999e-01,9.99999e-01,9.99999e-01,1.82117e-04,9.99999e-01
4.225583331e-01,2.15883e-04,9.99999e-01,9.99999e-01,9.99999e-01,2.15883e-04,9.99999e-01
4.246711247e-01,2.55050e-04,9.99999e-01,9.99999e-01,9.99999e-01,2.55050e-04,9.99999e-01
4.267944804e-01,3.00334e-04,9.99999e-01,9.99999e-01,9.99999e-01,3.00334e-04,9.99999e-01
4.289284528e-01,3.52517e-04,9.99999e-01,9.99999e-01,9.99999e-01,3.52517e-04,9.99999e-01
4.310730950e-01,4.12460e-04,9.99999e-01,9.99999e-01,9.99999e-01,4.12460e-04,9.99999e-01
4.332284605e-01,4.81101e-04,9.99999e-01,9.99999e-01,9.99999e-01,4.81101e-04,9.99999e-01
4.353946028e-01,5.59462e-04,9.99999e-01,9.99999e-01,9.99999e-01,5.59462e-04,9.99999e-01
4.375715758e-01,6.48649e-04,9.99999e-01,9.99999e-01,9.99999e-01,6.48649e-04,9.99999e-01
4.397594337e-01,7.49861e-04,9.99999e-01,9.99999e-01,9.99999e-01,7.49861e-04,9.99999e-01
4.419582309e-01,8.64386e-04,9.99999e-01,9.99999e-01,9.99999e-01,8.64386e-04,9.99999e-01
4.441680220e-01,9.93608e-04,9.99999e-01,9.99999e-01,9.99999e-01,9.93608e-04,9.99999e-01
4.463888621e-01,1.13901e-03,9.99999e-01,9.99999e-01,9.99999e-01,1.13901e-03,9.99999e-01
4.486208064e-01,1.30217e-03,9.99999e-01,9.99999e-01,9.99999e-01,1.30217e-03,9.99999e-01
4.508639105e-01,1.48478e-03,9.99999e-01,9.99999e-01,9.99999e-01,1.48478e-03,9.99999e-01
4.531182300e-01,1.68860e-03,9.99999e-01,9.99999e-01,9.99999e-01,1.68860e-03,9.99999e-01
4.553838212e-01,1.91554e-03,9.99999e-01,9.99999e-01,9.99999e-01,1.91554e-03,9.99999e-01
4.576607403e-01,2.16757e-03,9.99999e-01,9.99999e-01,9.99999e-01,2.16757e-03,9.99999e-01
4.599490440e-01,2.44677e-03,9.99999e-01,9.99999e-01,9.99999e-01,2.44677e-03,9.99999e-01
4.622487892e-01,2.75534e-03,9.99999e-01,9.99999e-01,9.99999e-01,2.75534e-03,9.99999e-01
4.645600332e-01,3.09555e-03,9.99999e-01,9.99999e-01,9.99999e-01,3.09555e-03,9.99999e-01
4.668828333e-01,3.46978e-03,9.99999e-01,9.99999e-01,9.99999e-01,3.46978e-03,9.99999e-01
4.692172475e-01,3.88050e-03,9.99999e-01,9.99999e-01,9.99999e-01,3.88050e-03,9.99999e-01
4.715633337e-01,4.33025e-03,9.99999e-01,9.99999e-01,9.99999e-01,4.33025e-03,9.99999e-01
4.739211504e-01,4.82167e-03,9.99999e-01,9.99999e-01,9.99999e-01,4.82167e-03,9.99999e-01
4.762907561e-01,5.35747e-03,9.99999e-01,9.99999e-01,9.99999e-01,5.35747e-03,9.99999e-01
4.786722099e-01,5.94044e-03,9.99999e-01,9.99999e-01,9.99999e-01,5.94044e-03,9.99999e-01
4.810655710e-01,6.57342e-03,9.99999e-01,9.99999e-01,9.99999e-01,6.57342e-03,9.99999e-01
4.834708988e-01,7.25931e-03,9.99999e-01,9.99999e-01,9.99999e-01,7.25931e-03,9.99999e-01
4.858882533e-01,8.00107e-03,9.99999e-01,9.99999e-01,9.99999e-01,8.00107e-03,9.99999e-01
4.883176946e-01,8.80169e-03,9.99999e-01,9.99999e-01,9.99999e-01,8.80169e-03,9.99999e-01
4.907592831e-01,9.66420e-03,9.99999e-01,9.99999e-01,9.99999e-01,9.66420e-03,9.99999e-01
4.932130795e-01,1.05917e-02,9.99999e-01,9.99999e-01,9.99999e-01,1.05917e-02,9.99999e-01
4.956791449e-01,1.15871e-02,9.99999e-01,9.99999e-01,9.99999e-01,1.15871e-02,9.99999e-01
4.981575406e-01,1.26537e-02,9.99999e-01,9.99999e-01,9.99999e-01,1.26537e-02,9.99999e-01
5.006483283e-01,1.37944e-02,9.99999e-01,9.99999e-01,9.99999e-01,1.37944e-02,9.99999e-01
5.031515699e-01,1.50123e-02,9.99999e-01,9.99999e-01,9.99999e-01,1.50123e-02,9.99999e-01
5.056673278e-01,1.63105e-02,9.99999e-01,9.99999e-01,9.99999e-01,1.63105e-02,9.99999e-01
5.081956644e-01,1.76920e-02,9.99999e-01,9.99999e-01,9.99999e-01,1.76920e-02,9.99999e-01
5.107366428e-01,1.91596e-02,9.99999e-01,9.99999e-01,9.99999e-01,1.91596e-02,9.99999e-01
5.132903260e-01,2.07164e-02,9.99999e-01,9.99999e-01,9.99999e-01,2.07164e-02,9.99999e-01
5.158567776e-01,2.23651e-02,9.99999e-01,9.99999e-01,9.99999e-01,2.23651e-02,9.99999e-01
5.184360615e-01,2.41085e-02,9.99999e-01,9.99999e-01,9.99999e-01,2.41085e-02,9.99999e-01
5.210282418e-01,2.59494e-02,9.99999e-01,9.99999e-01,9.99999e-01,2.59494e-02,9.99999e-01
5.236333830e-01,2.78902e-02,9.99999e-01,9.99999e-01,9.99999e-01,2.78902e-02,9.99999e-01
5.262515499e-01,2.99336e-02,9.99999e-01,9.99999e-01,9.99999e-01,2.99336e-02,9.99999e-01
5.288828077e-01,3.20817e-02,9.99999e-01,9.99999e-01,9.99999e-01,3.20817e-02,9.99999e-01
5.315272217e-01,3.43371e-02,9.99999e-01,9.99999e-01,9.99999e-01,3.43371e-02,9.99999e-01
5.341848578e-01,3.67016e-02,9.99999e-01,9.99999e-01,9.99999e-01,3.67016e-02,9.99999e-01
5.368557821e-01,3.91775e-02,9.99999e-01,9.99999e-01,9.99999e-01,3.91775e-02,9.99999e-01
5.395400610e-01,4.17664e-02,9.99999e-01,9.99999e-01,9.99999e-01,4.17664e-02,9.99999e-01
5.422377613e-01,4.44702e-02,9.99999e-01,9.99999e-01,9.99999e-01,4.44702e-02,9.99999e-01
5.449489501e-01,4.72904e-02,9.99999e-01,9.99999e-01,9.99999e-01,4.72904e-02,9.99999e-01
5.476736949e-01,5.02285e-02,9.99999e-01,9.99999e-01,9.99999e-01,5.02285e-02,9.99999e-01
5.504120634e-01,5.32855e-02,9.99999e-01,9.99999e-01,9.99999e-01,5.32855e-02,9.99999e-01
5.531641237e-01,5.64627e-02,9.99999e-01,9.99999e-01,9.99999e-01,5.64627e-02,9.99999e-01
5.559299443e-01,5.97610e-02,9.99999e-01,9.99999e-01,9.99999e-01,5.97610e-02,9.99999e-01
5.587095940e-01,6.31810e-02,9.99999e-01,9.99999e-01,9.99999e-01,6.31810e-02,9.99999e-01
5.615031420e-01,6.67234e-02,9.99999e-01,9.99999e-01,9.99999e-01,6.67234e-02,9.99999e-01
5.643106577e-01,7.03884e-02,9.99999e-01,9.99999e-01,9.99999e-01,7.03884e-02,9.99999e-01
5.671322110e-01,7.41764e-02,9.99999e-01,9.99999e-01,9.99999e-01,7.41764e-02,9.99999e-01
5.699678720e-01,7.80874e-02,9.99999e-01,9.99999e-01,9.99999e-01,7.80874e-02,9.99999e-01
5.728177114e-01,8.21212e-02,9.99999e-01,9.99999e-01,9.99999e-01,8.21212e-02,9.99999e-01
5.756818000e-01,8.62775e-02,9.99999e-01,9.99999e-01,9.99999e-01,8.62775e-02,9.99999e-01
5.785602090e-01,9.05558e-02,9.99999e-01,9.99999e-01,9.99999e-01,9.05558e-02,9.99999e-01
5.814530100e-01,9.49554e-02,9.99999e-01,9.99999e-01,9.99999e-01,9.49554e-02,9.99999e-01
5.843602750e-01,9.94755e-02,9.99999e-01,9.99999e-01,9.99999e-01,9.94755e-02,9.99999e-01
5.872820764e-01,1.04115e-01,9.99999e-01,9.99999e-01,9.99999e-01,1.04115e-01,9.99999e-01
5.902184868e-01,1.08873e-01,9.99999e-01,9.99999e-01,9.99999e-01,1.08873e-01,9.99999e-01
5.931695792e-01,1.13748e-01,9.99999e-01,9.99999e-01,9.99999e-01,1.13748e-01,9.99999e-01
5.961354271e-01,1.18738e-01,9.99999e-01,9.99999e-01,9.99999e-01,1.18738e-01,9.99999e-01
5.991161043e-01,1.23843e-01,9.99999e-01,9.99999e-01,9.99999e-01,1.23843e-01,9.99999e-01
6.021116848e-01,1.29059e-01,9.99999e-01,9.99999e-01,9.99999e-01,1.29059e-01,9.99999e-01
6.051222432e-01,1.34385e-01,9.99999e-01,9.99999e-01,9.99999e-01,1.34385e-01,9.99999e-01
6.081478544e-01,1.39820e-01,9.99999e-01,9.99999e-01,9.99999e-01,1.39820e-01,9.99999e-01
6.111885937e-01,1.45361e-01,9.99999e-01,9.99999e-01,9.99999e-01,1.45361e-01,9.99999e-01
6.142445367e-01,1.51005e-01,9.99999e-01,9.99999e-01,9.99999e-01,1.51005e-01,9.99999e-01
6.173157594e-01,1.56750e-01,9.99999e-01,9.99999e-01,9.99999e-01,1.56750e-01,9.99999e-01
6.204023382e-01,1.62594e-01,9.99999e-01,9.99999e-01,9.99999e-01,1.62594e-01,9.99999e-01
6.235043498e-01,1.68534e-01,9.99999e-01,9.99999e-01,9.99999e-01,1.68534e-01,9.99999e-01
6.266218716e-01,1.74567e-01,9.99999e-01,9.99999e-01,9.99999e-01,1.74567e-01,9.99999e-01
6.297549810e-01,1.80690e-01,9.99999e-01,9.99999e-01,9.99999e-01,1.80690e-01,9.99999e-01
6.329037559e-01,1.86901e-01,9.99999e-01,9.99999e-01,9.99999e-01,1.86901e-01,9.99999e-01
6.360682746e-01,1.93197e-01,9.99999e-01,9.99999e-01,9.99999e-01,1.93197e-01,9.99999e-01
6.392486160e-01,1.99573e-01,9.99999e-01,9.99999e-01,9.99999e-01,1.99573e-01,9.99999e-01
6.424448591e-01,2.06028e-01,9.99999e-01,9.99999e-01,9.99999e-01,2.06028e-01,9.99999e-01
6.456570834e-01,2.12559e-01,9.99999e-01,9.99999e-01,9.99999e-01,2.12559e-01,9.99999e-01
6.488853688e-01,2.19161e-01,9.99999e-01,9.99999e-01,9.99999e-01,2.19161e-01,9.99999e-01
6.521297956e-01,2.25831e-01,9.99999e-01,9.99999e-01,9.99999e-01,2.25831e-01,9.99999e-01
6.553904446e-01,2.32567e-01,9.99999e-01,9.99999e-01,9.99999e-01,2.32567e-01,9.99999e-01
6.586673968e-01,2.39365e-01,9.99999e-01,9.99999e-01,9.99999e-01,2.39365e-01,9.99999e-01
6.619607338e-01,2.46222e-01,9.99999e-01,9.99999e-01,9.99999e-01,2.46222e-01,9.99999e-01
6.652705375e-01,2.53133e-01,9.99999e-01,9.99999e-01,9.99999e-01,2.53133e-01,9.99999e-01
6.685968902e-01,2.60096e-01,9.99999e-01,9.99999e-01,9.99999e-01,2.60096e-01,9.99999e-01
6.719398746e-01,2.67108e-01,9.99999e-01,9.99999e-01,9.99999e-01,2.67108e-01,9.99999e-01
6.752995740e-01,2.74164e-01,9.99999e-01,9.99999e-01,9.99999e-01,2.74164e-01,9.99999e-01
6.786760719e-01,2.81262e-01,9.99999e-01,9.99999e-01,9.99999e-01,2.81262e-01,9.99999e-01
6.820694522e-01,2.88399e-01,9.99999e-01,9.99999e-01,9.99999e-01,2.88399e-01,9.99999e-01
6.854797995e-01,2.95570e-01,9.99999e-01,9.99999e-01,9.99999e-01,2.95570e-01,9.99999e-01
6.889071985e-01,3.02772e-01,9.99999e-01,9.99999e-01,9.99999e-01,3.02772e-01,9.99999e-01
6.923517345e-01,3.10002e-01,9.99999e-01,9.99999e-01,9.99999e-01,3.10002e-01,9.99999e-01
6.958134932e-01,3.17257e-01,9.99999e-01,9.99999e-01,9.99999e-01,3.17257e-01,9.99999e-01
6.992925606e-01,3.24534e-01,9.99999e-01,9.99999e-01,9.99999e-01,3.24534e-01,9.99999e-01
7.027890234e-01,3.31828e-01,9.99999e-01,9.99999e-01,9.99999e-01,3.31828e-01,9.99999e-01
7.063029686e-01,3.39138e-01,9.99999e-01,9.99999e-01,9.99999e-01,3.39138e-01,9.99999e-01
7.098344834e-01,3.46460e-01,9.99999e-01,9.99999e-01,9.99999e-01,3.46460e-01,9.99999e-01
7.133836558e-01,3.53790e-01,9.99999e-01,9.99999e-01,9.99999e-01,3.53790e-01,9.99999e-01
7.169505741e-01,3.61126e-01,9.99999e-01,9.99999e-01,9.99999e-01,3.61126e-01,9.99999e-01
7.205353270e-01,3.68465e-01,9.99999e-01,9.99999e-01,9.99999e-01,3.68465e-01,9.99999e-01
7.241380036e-01,3.75804e-01,9.99999e-01,9.99999e-01,9.99999e-01,3.75804e-01,9.99999e-01
7.277586936e-01,3.83140e-01,9.99999e-01,9.99999e-01,9.99999e-01,3.83140e-01,9.99999e-01
7.313974871e-01,3.90469e-01,9.99999e-01,9.99999e-01,9.99999e-01,3.90469e-01,9.99999e-01
7.350544745e-01,3.97790e-01,9.99999e-01,9.99999e-01,9.99999e-01,3.97790e-01,9.99999e-01
7.387297469e-01,4.05099e-01,9.99999e-01,9.99999e-01,9.99999e-01,4.05099e-01,9.99999e-01
7.424233956e-01,4.12395e-01,9.99999e-01,9.99999e-01,9.99999e-01,4.12395e-01,9.99999e-01
7.461355126e-01,4.19674e-01,9.99999e-01,9.99999e-01,9.99999e-01,4.19674e-01,9.99999e-01
7.498661902e-01,4.26933e-01,9.99999e-01,9.99999e-01,9.99999e-01,4.26933e-01,9.99999e-01
7.536155211e-01,4.34172e-01,9.99999e-01,9.99999e-01,9.99999e-01,4.34172e-01,9.99999e-01
7.573835987e-01,4.41386e-01,9.99999e-01,9.99999e-01,9.99999e-01,4.41386e-01,9.99999e-01
7.611705167e-01,4.48574e-01,9.99999e-01,9.99999e-01,9.99999e-01,4.48574e-01,9.99999e-01
7.649763693e-01,4.55734e-01,9.99999e-01,9.99999e-01,9.99999e-01,4.55734e-01,9.99999e-01
7.688012511e-01,4.62863e-01,9.99999e-01,9.99999e-01,9.99999e-01,4.62863e-01,9.99999e-01
7.726452574e-01,4.69960e-01,9.99999e-01,9.99999e-01,9.99999e-01,4.69960e-01,9.99999e-01
7.765084837e-01,4.77022e-01,9.99999e-01,9.99999e-01,9.99999e-01,4.77022e-01,9.99999e-01
7.803910261e-01,4.67053e-01,9.99999e-01,9.99999e-01,9.64890e-01,4.84048e-01,9.99999e-01
7.842929812e-01,4.22697e-01,9.99999e-01,9.99999e-01,8.60829e-01,4.91035e-01,9.99999e-01
7.882144461e-01,4.23643e-01,9.99999e-01,9.99999e-01,8.50719e-01,4.97982e-01,9.99999e-01
7.921555184e-01,4.59445e-01,9.99999e-01,9.99999e-01,9.09994e-01,5.04887e-01,9.99999e-01
7.961162960e-01,4.80694e-01,9.99999e-01,9.99999e-01,9.39314e-01,5.11749e-01,9.99999e-01
8.000968774e-01,5.01228e-01,9.99999e-01,9.99999e-01,9.66566e-01,5.18566e-01,9.99999e-01
8.040973618e-01,5.16203e-01,9.99999e-01,9.99999e-01,9.82615e-01,5.25336e-01,9.99999e-01
8.081178486e-01,5.27775e-01,9.99999e-01,9.99999e-01,9.91949e-01,5.32058e-01,9.99999e-01
8.121584379e-01,5.37403e-01,9.99999e-01,9.99999e-01,9.97534e-01,5.38731e-01,9.99999e-01
8.162192301e-01,5.45057e-01,9.99999e-01,9.99999e-01,9.99454e-01,5.45354e-01,9.99999e-01
8.203003262e-01,5.51920e-01,9.99999e-01,9.99999e-01,9.99992e-01,5.51924e-01,9.99999e-01
8.244018279e-01,5.58442e-01,9.99999e-01,9.99999e-01,9.99999e-01,5.58442e-01,9.99999e-01
8.285238370e-01,5.64906e-01,9.99999e-01,9.99999e-01,9.99999e-01,5.64906e-01,9.99999e-01
8.326664562e-01,5.71314e-01,9.99999e-01,9.99999e-01,9.99999e-01,5.71314e-01,9.99999e-01
8.368297885e-01,5.77667e-01,9.99999e-01,9.99999e-01,9.99999e-01,5.77667e-01,9.99999e-01
8.410139374e-01,5.83962e-01,9.99999e-01,9.99999e-01,9.99999e-01,5.83962e-01,9.99999e-01
8.452190071e-01,5.90200e-01,9.99999e-01,9.99999e-01,9.99999e-01,5.90200e-01,9.99999e-01
8.494451021e-01,5.96379e-01,9.99999e-01,9.99999e-01,9.99999e-01,5.96379e-01,9.99999e-01
8.536923276e-01,6.02499e-01,9.99999e-01,9.99999e-01,9.99999e-01,6.02499e-01,9.99999e-01
8.579607893e-01,6.08559e-01,9.99999e-01,9.99999e-01,9.99999e-01,6.08559e-01,9.99999e-01
8.622505932e-01,6.14559e-01,9.99999e-01,9.99999e-01,9.99999e-01,6.14559e-01,9.99999e-01
8.665618462e-01,5.72571e-01,9.99999e-01,9.99999e-01,9.22761e-01,6.20497e-01,9.99999e-01
8.708946554e-01,4.27060e-01,9.99999e-01,9.99999e-01,6.81797e-01,6.26374e-01,9.99999e-01
8.752491287e-01,4.65002e-01,9.99999e-01,9.99999e-01,7.35543e-01,6.32189e-01,9.99999e-01
8.796253743e-01,5.39034e-01,9.99999e-01,9.99999e-01,8.44959e-01,6.37941e-01,9.99999e-01
8.840235012e-01,5.89793e-01,9.99999e-01,9.99999e-01,9.16353e-01,6.43630e-01,9.99999e-01
8.884436187e-01,6.27386e-01,9.99999e-01,9.99999e-01,9.66313e-01,6.49257e-01,9.99999e-01
8.928858368e-01,6.45778e-01,9.99999e-01,9.99999e-01,9.86191e-01,6.54820e-01,9.99999e-01
8.973502660e-01,6.58107e-01,9.99999e-01,9.99999e-01,9.96649e-01,6.60319e-01,9.99999e-01
9.018370173e-01,6.65509e-01,9.99999e-01,9.99999e-01,9.99631e-01,6.65754e-01,9.99999e-01
9.063462024e-01,6.64560e-01,9.99999e-01,9.99999e-01,9.90215e-01,6.71126e-01,9.99999e-01
9.108779334e-01,6.61709e-01,9.99999e-01,9.99999e-01,9.78232e-01,6.76433e-01,9.99999e-01
9.154323231e-01,6.78207e-01,9.99999e-01,9.99999e-01,9.94908e-01,6.81677e-01,9.99999e-01
9.200094847e-01,6.36239e-01,9.99999e-01,9.99999e-01,9.26305e-01,6.86856e-01,9.99999e-01
9.246095321e-01,6.21219e-01,9.99999e-01,9.99999e-01,8.97752e-01,6.91971e-01,9.99999e-01
9.292325798e-01,6.39906e-01,9.99999e-01,9.99999e-01,9.18056e-01,6.97022e-01,9.99999e-01
9.338787427e-01,6.46910e-01,9.99999e-01,9.99999e-01,9.21511e-01,7.02009e-01,9.99999e-01
9.385481364e-01,6.65702e-01,9.99999e-01,9.99999e-01,9.41675e-01,7.06933e-01,9.99999e-01
9.432408771e-01,6.86154e-01,9.99999e-01,9.99999e-01,9.63980e-01,7.11792e-01,9.99999e-01
9.479570815e-01,7.03202e-01,9.99999e-01,9.99999e-01,9.81318e-01,7.16588e-01,9.99999e-01
9.526968669e-01,7.14808e-01,9.99999e-01,9.99999e-01,9.90970e-01,7.21321e-01,9.99999e-01
9.574603512e-01,7.23183e-01,9.99999e-01,9.99999e-01,9.96133e-01,7.25990e-01,9.99999e-01
9.622476530e-01,7.29716e-01,9.99999e-01,9.99999e-01,9.98794e-01,7.30597e-01,9.99999e-01
9.670588912e-01,7.34875e-01,9.99999e-01,9.99999e-01,9.99639e-01,7.35140e-01,9.99999e-01
9.718941857e-01,7.39604e-01,9.99999e-01,9.99999e-01,9.99974e-01,7.39622e-01,9.99999e-01
9.767536566e-01,7.44042e-01,9.99999e-01,9.99999e-01,9.99999e-01,7.44042e-01,9.99999e-01
9.816374249e-01,7.48399e-01,9.99999e-01,9.99999e-01,9.99999e-01,7.48399e-01,9.99999e-01
9.865456120e-01,7.52696e-01,9.99999e-01,9.99999e-01,9.99999e-01,7.52696e-01,9.99999e-01
9.914783401e-01,7.56932e-01,9.99999e-01,9.99999e-01,9.99999e-01,7.56932e-01,9.99999e-01
9.964357318e-01,7.61107e-01,9.99999e-01,9.99999e-01,9.99999e-01,7.61107e-01,9.99999e-01
1.001417910e+00,7.65222e-01,9.99999e-01,9.99999e-01,9.99999e-01,7.65222e-01,9.99999e-01
1.006425000e+00,7.69277e-01,9.99999e-01,9.99999e-01,9.99999e-01,7.69277e-01,9.99999e-01
1.011457125e+00,7.73273e-01,9.99999e-01,9.99999e-01,9.99999e-01,7.73273e-01,9.99999e-01
1.016514411e+00,7.77210e-01,9.99999e-01,9.99999e-01,9.99999e-01,7.77210e-01,9.99999e-01
1.021596983e+00,7.81043e-01,9.99999e-01,9.99999e-01,9.99940e-01,7.81089e-01,9.99999e-01
1.026704968e+00,7.81896e-01,9.99999e-01,9.99999e-01,9.96158e-01,7.84911e-01,9.99999e-01
1.031838492e+00,7.51049e-01,9.99999e-01,9.99999e-01,9.52293e-01,7.88674e-01,9.99999e-01
1.036997685e+00,1.19566e-01,9.99999e-01,9.99999e-01,1.50895e-01,7.92381e-01,9.99999e-01
1.042182673e+00,9.66039e-02,9.99999e-01,9.99999e-01,1.21357e-01,7.96032e-01,9.99999e-01
1.047393587e+00,1.12336e-01,9.99999e-01,9.99999e-01,1.40485e-01,7.99627e-01,9.99999e-01
1.052630555e+00,3.17759e-03,9.99999e-01,9.99999e-01,3.95633e-03,8.03167e-01,9.99999e-01
1.057893707e+00,8.25715e-03,9.99999e-01,9.99999e-01,1.02363e-02,8.06651e-01,9.99999e-01
1.063183176e+00,2.75256e-02,9.99999e-01,9.99999e-01,3.39788e-02,8.10082e-01,9.99999e-01
1.068499092e+00,7.69637e-02,9.99999e-01,9.99999e-01,9.46128e-02,8.13459e-01,9.99999e-01
1.073841587e+00,1.84862e-01,9.99999e-01,9.99999e-01,2.26329e-01,8.16783e-01,9.99999e-01
1.079210795e+00,3.20005e-01,9.99999e-01,9.99999e-01,3.90223e-01,8.20055e-01,9.99999e-01
1.084606849e+00,4.90851e-01,9.99999e-01,9.99999e-01,5.96217e-01,8.23275e-01,9.99999e-01
1.090029883e+00,6.31642e-01,9.99999e-01,9.99999e-01,7.64289e-01,8.26443e-01,9.99999e-01
1.095480033e+00,7.26814e-01,9.99999e-01,9.99999e-01,8.76143e-01,8.29561e-01,9.99999e-01
1.100957433e+00,7.81217e-01,9.99999e-01,9.99999e-01,9.38254e-01,8.32628e-01,9.99999e-01
1.106462220e+00,8.13949e-01,9.99999e-01,9.99999e-01,9.74035e-01,8.35646e-01,9.99999e-01
1.111994531e+00,8.30478e-01,9.99999e-01,9.99999e-01,9.90296e-01,8.38615e-01,9.99999e-01
1.117554504e+00,8.39547e-01,9.99999e-01,9.99999e-01,9.97635e-01,8.41536e-01,9.99999e-01
1.123142276e+00,8.44278e-01,9.99999e-01,9.99999e-01,9.99845e-01,8.44408e-01,9.99999e-01
1.128757988e+00,8.47234e-01,9.99999e-01,9.99999e-01,9.99999e-01,8.47234e-01,9.99999e-01
1.134401778e+00,8.50013e-01,9.99999e-01,9.99999e-01,9.99999e-01,8.50013e-01,9.99999e-01
1.140073787e+00,8.52745e-01,9.99999e-01,9.99999e-01,9.99999e-01,8.52745e-01,9.99999e-01
1.145774156e+00,8.55433e-01,9.99999e-01,9.99999e-01,9.99999e-01,8.55433e-01,9.99999e-01
1.151503026e+00,8.58075e-01,9.99999e-01,9.99999e-01,9.99999e-01,8.58075e-01,9.99999e-01
1.157260541e+00,8.60673e-01,9.99999e-01,9.99999e-01,9.99999e-01,8.60673e-01,9.99999e-01
1.163046844e+00,8.63228e-01,9.99999e-01,9.99999e-01,9.99999e-01,8.63228e-01,9.99999e-01
1.168862078e+00,8.65739e-01,9.99999e-01,9.99999e-01,9.99999e-01,8.65739e-01,9.99999e-01
1.174706389e+00,8.68208e-01,9.99999e-01,9.99999e-01,9.99999e-01,8.68208e-01,9.99999e-01
1.180579921e+00,8.70635e-01,9.99999e-01,9.99999e-01,9.99999e-01,8.70635e-01,9.99999e-01
1.186482820e+00,8.73013e-01,9.99999e-01,9.99999e-01,9.99990e-01,8.73021e-01,9.99999e-01
1.192415234e+00,8.63359e-01,9.99999e-01,9.99999e-01,9.86283e-01,8.75366e-01,9.99999e-01
1.198377311e+00,4.91857e-01,9.99999e-01,9.99999e-01,5.60411e-01,8.77670e-01,9.99999e-01
1.204369197e+00,3.27697e-11,9.99999e-01,9.99999e-01,3.72410e-11,8.79935e-01,9.99999e-01
1.210391043e+00,9.50089e-41,9.99999e-01,9.99999e-01,1.07700e-40,8.82161e-01,9.99999e-01
1.216442998e+00,1.81804e-35,9.99999e-01,9.99999e-01,2.05580e-35,8.84349e-01,9.99999e-01
1.222525213e+00,5.88049e-35,9.99999e-01,9.99999e-01,6.63339e-35,8.86498e-01,9.99999e-01
1.228637839e+00,4.45434e-27,9.99999e-01,9.99999e-01,5.01269e-27,8.88610e-01,9.99999e-01
