#,Wave/freq,Total,N2,O2,CO2,Rayleigh,CIA
4.000000000e-01,1.24727e-22,9.99999e-01,9.99999e-01,9.99999e-01,1.24727e-22,9.99999e-01
4.020000000e-01,3.38103e-22,9.99999e-01,9.99999e-01,9.99999e-01,3.38103e-22,9.99999e-01
4.040100000e-01,8.97747e-22,9.99999e-01,9.99999e-01,9.99999e-01,8.97747e-22,9.99999e-01
4.060300500e-01,2.33820e-21,9.99999e-01,9.99999e-01,9.99999e-01,2.33820e-21,9.99999e-01
4.080602003e-01,5.97581e-21,9.99999e-01,9.99999e-01,9.99999e-01,5.97581e-21,9.99999e-01
4.101005013e-01,1.49921e-20,9.99999e-01,9.99999e-01,9.99999e-01,1.49921e-20,9.99999e-01
4.121510038e-01,3.69351e-20,9.99999e-01,9.99999e-01,9.99999e-01,3.69351e-20,9.99999e-01
4.142117588e-01,8.93882e-20,9.99999e-01,9.99999e-01,9.99999e-01,8.93882e-20,9.99999e-01
4.162828176e-01,2.12588e-19,9.99999e-01,9.99999e-01,9.99999e-01,2.12588e-19,9.99999e-01
4.183642317e-01,4.97012e-19,9.99999e-01,9.99999e-01,9.99999e-01,4.97012e-19,9.99999e-01
4.204560528e-01,1.14264e-18,9.99999e-01,9.99999e-01,9.99999e-01,1.14264e-18,9.99999e-01
4.225583331e-01,2.58410e-18,9.99999e-01,9.99999e-01,9.99999e-01,2.58410e-18,9.99999e-01
4.246711247e-01,5.75056e-18,9.99999e-01,9.99999e-01,9.99999e-01,5.75056e-18,9.99999e-01
4.267944804e-01,1.25965e-17,9.99999e-01,9.99999e-01,9.99999e-01,1.25965e-17,9.99999e-01
4.289284528e-01,2.71682e-17,9.99999e-01,9.99999e-01,9.99999e-01,2.71682e-17,9.99999e-01
4.310730950e-01,5.77137e-17,9.99999e-01,9.99999e-01,9.99999e-01,5.77137e-17,9.99999e-01
4.332284605e-01,1.20791e-16,9.99999e-01,9.99999e-01,9.99999e-01,1.20791e-16,9.99999e-01
4.353946028e-01,2.49146e-16,9.99999e-01,9.99999e-01,9.99999e-01,2.49146e-16,9.99999e-01
4.375715758e-01,5.06596e-16,9.99999e-01,9.99999e-01,9.99999e-01,5.06596e-16,9.99999e-01
4.397594337e-01,1.01574e-15,9.99999e-01,9.99999e-01,9.99999e-01,1.01574e-15,9.99999e-01
4.419582309e-01,2.00880e-15,9.99999e-01,9.99999e-01,9.99999e-01,2.00880e-15,9.99999e-01
4.441680220e-01,3.91958e-15,9.99999e-01,9.99999e-01,9.99999e-01,3.91958e-15,9.99999e-01
4.463888621e-01,7.54760e-15,9.99999e-01,9.99999e-01,9.99999e-01,7.54760e-15,9.99999e-01
4.486208064e-01,1.43469e-14,9.99999e-01,9.99999e-01,9.99999e-01,1.43469e-14,9.99999e-01
4.508639105e-01,2.69275e-14,9.99999e-01,9.99999e-01,9.99999e-01,2.69275e-14,9.99999e-01
4.531182300e-01,4.99152e-14,9.99999e-01,9.99999e-01,9.99999e-01,4.99152e-14,9.99999e-01
4.553838212e-01,9.14062e-14,9.99999e-01,9.99999e-01,9.99999e-01,9.14062e-14,9.99999e-01
4.576607403e-01,1.65397e-13,9.99999e-01,9.99999e-01,9.99999e-01,1.65397e-13,9.99999e-01
4.599490440e-01,2.95797e-13,9.99999e-01,9.99999e-01,9.99999e-01,2.95797e-13,9.99999e-01
4.622487892e-01,5.22966e-13,9.99999e-01,9.99999e-01,9.99999e-01,5.22966e-13,9.99999e-01
4.645600332e-01,9.14247e-13,9.99999e-01,9.99999e-01,9.99999e-01,9.14247e-13,9.99999e-01
4.668828333e-01,1.58075e-12,9.99999e-01,9.99999e-01,9.99999e-01,1.58075e-12,9.99999e-01
4.692172475e-01,2.70374e-12,9.99999e-01,9.99999e-01,9.99999e-01,2.70374e-12,9.99999e-01
4.715633337e-01,4.57574e-12,9.99999e-01,9.99999e-01,9.99999e-01,4.57574e-12,9.99999e-01
4.739211504e-01,7.66382e-12,9.99999e-01,9.99999e-01,9.99999e-01,7.66382e-12,9.99999e-01
4.762907561e-01,1.27059e-11,9.99999e-01,9.99999e-01,9.99999e-01,1.27059e-11,9.99999e-01
4.786722099e-01,2.08559e-11,9.99999e-01,9.99999e-01,9.99999e-01,2.08559e-11,9.99999e-01
4.810655710e-01,3.39000e-11,9.99999e-01,9.99999e-01,9.99999e-01,3.39000e-11,9.99999e-01
4.834708988e-01,5.45763e-11,9.99999e-01,9.99999e-01,9.99999e-01,5.45763e-11,9.99999e-01
4.858882533e-01,8.70410e-11,9.99999e-01,9.99999e-01,9.99999e-01,8.70410e-11,9.99999e-01
4.883176946e-01,1.37543e-10,9.99999e-01,9.99999e-01,9.99999e-01,1.37543e-10,9.99999e-01
4.907592831e-01,2.15392e-10,9.99999e-01,9.99999e-01,9.99999e-01,2.15392e-10,9.99999e-01
4.932130795e-01,3.34328e-10,9.99999e-01,9.99999e-01,9.99999e-01,3.34328e-10,9.99999e-01
4.956791449e-01,5.14450e-10,9.99999e-01,9.99999e-01,9.99999e-01,5.14450e-10,9.99999e-01
4.981575406e-01,7.84905e-10,9.99999e-01,9.99999e-01,9.99999e-01,7.84905e-10,9.99999e-01
5.006483283e-01,1.18759e-09,9.99999e-01,9.99999e-01,9.99999e-01,1.18759e-09,9.99999e-01
5.031515699e-01,1.78223e-09,9.99999e-01,9.99999e-01,9.99999e-01,1.78223e-09,9.99999e-01
5.056673278e-01,2.65326e-09,9.99999e-01,9.99999e-01,9.99999e-01,2.65326e-09,9.99999e-01
5.081956644e-01,3.91906e-09,9.99999e-01,9.99999e-01,9.99999e-01,3.91906e-09,9.99999e-01
5.107366428e-01,5.74430e-09,9.99999e-01,9.99999e-01,9.99999e-01,5.74430e-09,9.99999e-01
5.132903260e-01,8.35627e-09,9.99999e-01,9.99999e-01,9.99999e-01,8.35627e-09,9.99999e-01
5.158567776e-01,1.20663e-08,9.99999e-01,9.99999e-01,9.99999e-01,1.20663e-08,9.99999e-01
5.184360615e-01,1.72974e-08,9.99999e-01,9.99999e-01,9.99999e-01,1.72974e-08,9.99999e-01
5.210282418e-01,2.46207e-08,9.99999e-01,9.99999e-01,9.99999e-01,2.46207e-08,9.99999e-01
5.236333830e-01,3.48009e-08,9.99999e-01,9.99999e-01,9.99999e-01,3.48009e-08,9.99999e-01
5.262515499e-01,4.88554e-08,9.99999e-01,9.99999e-01,9.99999e-01,4.88554e-08,9.99999e-01
5.288828077e-01,6.81279e-08,9.99999e-01,9.99999e-01,9.99999e-01,6.81279e-08,9.99999e-01
5.315272217e-01,9.43810e-08,9.99999e-01,9.99999e-01,9.99999e-01,9.43810e-08,9.99999e-01
5.341848578e-01,1.29912e-07,9.99999e-01,9.99999e-01,9.99999e-01,1.29912e-07,9.99999e-01
5.368557821e-01,1.77693e-07,9.99999e-01,9.99999e-01,9.99999e-01,1.77693e-07,9.99999e-01
5.395400610e-01,2.41550e-07,9.99999e-01,9.99999e-01,9.99999e-01,2.41550e-07,9.99999e-01
5.422377613e-01,3.26369e-07,9.99999e-01,9.99999e-01,9.99999e-01,3.26369e-07,9.99999e-01
5.449489501e-01,4.38358e-07,9.99999e-01,9.99999e-01,9.99999e-01,4.38358e-07,9.99999e-01
5.476736949e-01,5.85354e-07,9.99999e-01,9.99999e-01,9.99999e-01,5.85354e-07,9.99999e-01
5.504120634e-01,7.77190e-07,9.99999e-01,9.99999e-01,9.99999e-01,7.77190e-07,9.99999e-01
5.531641237e-01,1.02613e-06,9.99999e-01,9.99999e-01,9.99999e-01,1.02613e-06,9.99999e-01
5.559299443e-01,1.34740e-06,9.99999e-01,9.99999e-01,9.99999e-01,1.34740e-06,9.99999e-01
5.587095940e-01,1.75977e-06,9.99999e-01,9.99999e-01,9.99999e-01,1.75977e-06,9.99999e-01
5.615031420e-01,2.28624e-06,9.99999e-01,9.99999e-01,9.99999e-01,2.28624e-06,9.99999e-01
5.643106577e-01,2.95490e-06,9.99999e-01,9.99999e-01,9.99999e-01,2.95490e-06,9.99999e-01
5.671322110e-01,3.79982e-06,9.99999e-01,9.99999e-01,9.99999e-01,3.79982e-06,9.99999e-01
5.699678720e-01,4.86213e-06,9.99999e-01,9.99999e-01,9.99999e-01,4.86213e-06,9.99999e-01
5.728177114e-01,6.19120e-06,9.99999e-01,9.99999e-01,9.99999e-01,6.19120e-06,9.99999e-01
5.756818000e-01,7.84603e-06,9.99999e-01,9.99999e-01,9.99999e-01,7.84603e-06,9.99999e-01
5.785602090e-01,9.89677e-06,9.99999e-01,9.99999e-01,9.99999e-01,9.89677e-06,9.99999e-01
5.814530100e-01,1.24264e-05,9.99999e-01,9.99999e-01,9.99999e-01,1.24264e-05,9.99999e-01
5.843602750e-01,1.55326e-05,9.99999e-01,9.99999e-01,9.99999e-01,1.55326e-05,9.99999e-01
5.872820764e-01,1.93298e-05,9.99999e-01,9.99999e-01,9.99999e-01,1.93298e-05,9.99999e-01
5.902184868e-01,2.39517e-05,9.99999e-01,9.99999e-01,9.99999e-01,2.39517e-05,9.99999e-01
5.931695792e-01,2.95533e-05,9.99999e-01,9.99999e-01,9.99999e-01,2.95533e-05,9.99999e-01
5.961354271e-01,3.63139e-05,9.99999e-01,9.99999e-01,9.99999e-01,3.63139e-05,9.99999e-01
5.991161043e-01,4.44399e-05,9.99999e-01,9.99999e-01,9.99999e-01,4.44399e-05,9.99999e-01
6.021116848e-01,5.41677e-05,9.99999e-01,9.99999e-01,9.99999e-01,5.41677e-05,9.99999e-01
6.051222432e-01,6.57672e-05,9.99999e-01,9.99999e-01,9.99999e-01,6.57672e-05,9.99999e-01
6.081478544e-01,7.95452e-05,9.99999e-01,9.99999e-01,9.99999e-01,7.95452e-05,9.99999e-01
6.111885937e-01,9.58489e-05,9.99999e-01,9.99999e-01,9.99999e-01,9.58489e-05,9.99999e-01
6.142445367e-01,1.15070e-04,9.99999e-01,9.99999e-01,9.99999e-01,1.15070e-04,9.99999e-01
6.173157594e-01,1.37647e-04,9.99999e-01,9.99999e-01,9.99999e-01,1.37647e-04,9.99999e-01
6.204023382e-01,1.64072e-04,9.99999e-01,9.99999e-01,9.99999e-01,1.64072e-04,9.99999e-01
6.235043498e-01,1.94894e-04,9.99999e-01,9.99999e-01,9.99999e-01,1.94894e-04,9.99999e-01
6.266218716e-01,2.30719e-04,9.99999e-01,9.99999e-01,9.99999e-01,2.30719e-04,9.99999e-01
6.297549810e-01,2.72221e-04,9.99999e-01,9.99999e-01,9.99999e-01,2.72221e-04,9.99999e-01
6.329037559e-01,3.20141e-04,9.99999e-01,9.99999e-01,9.99999e-01,3.20141e-04,9.99999e-01
6.360682746e-01,3.75292e-04,9.99999e-01,9.99999e-01,9.99999e-01,3.75292e-04,9.99999e-01
6.392486160e-01,4.38565e-04,9.99999e-01,9.99999e-01,9.99999e-01,4.38565e-04,9.99999e-01
6.424448591e-01,5.10930e-04,9.99999e-01,9.99999e-01,9.99999e-01,5.10930e-04,9.99999e-01
6.456570834e-01,5.93444e-04,9.99999e-01,9.99999e-01,9.99999e-01,5.93444e-04,9.99999e-01
6.488853688e-01,6.87248e-04,9.99999e-01,9.99999e-01,9.99999e-01,6.87248e-04,9.99999e-01
6.521297956e-01,7.93576e-04,9.99999e-01,9.99999e-01,9.99999e-01,7.93576e-04,9.99999e-01
6.553904446e-01,9.13754e-04,9.99999e-01,9.99999e-01,9.99999e-01,9.13754e-04,9.99999e-01
6.586673968e-01,1.04920e-03,9.99999e-01,9.99999e-01,9.99999e-01,1.04920e-03,9.99999e-01
6.619607338e-01,1.20145e-03,9.99999e-01,9.99999e-01,9.99999e-01,1.20145e-03,9.99999e-01
6.652705375e-01,1.37211e-03,9.99999e-01,9.99999e-01,9.99999e-01,1.37211e-03,9.99999e-01
6.685968902e-01,1.56290e-03,9.99999e-01,9.99999e-01,9.99999e-01,1.56290e-03,9.99999e-01
6.719398746e-01,1.77566e-03,9.99999e-01,9.99999e-01,9.99999e-01,1.77566e-03,9.99999e-01
6.752995740e-01,2.01229e-03,9.99999e-01,9.99999e-01,9.99999e-01,2.01229e-03,9.99999e-01
6.786760719e-01,2.27483e-03,9.99999e-01,9.99999e-01,9.99999e-01,2.27483e-03,9.99999e-01
6.820694522e-01,2.56541e-03,9.99999e-01,9.99999e-01,9.99999e-01,2.56541e-03,9.99999e-01
6.854797995e-01,2.88624e-03,9.99999e-01,9.99999e-01,9.99999e-01,2.88624e-03,9.99999e-01
6.889071985e-01,3.23964e-03,9.99999e-01,9.99999e-01,9.99999e-01,3.23964e-03,9.99999e-01
6.923517345e-01,3.62803e-03,9.99999e-01,9.99999e-01,9.99999e-01,3.62803e-03,9.99999e-01
6.958134932e-01,4.05390e-03,9.99999e-01,9.99999e-01,9.99999e-01,4.05390e-03,9.99999e-01
6.992925606e-01,4.51985e-03,9.99999e-01,9.99999e-01,9.99999e-01,4.51985e-03,9.99999e-01
7.027890234e-01,5.02853e-03,9.99999e-01,9.99999e-01,9.99999e-01,5.02853e-03,9.99999e-01
7.063029686e-01,5.58268e-03,9.99999e-01,9.99999e-01,9.99999e-01,5.58268e-03,9.99999e-01
7.098344834e-01,6.18513e-03,9.99999e-01,9.99999e-01,9.99999e-01,6.18513e-03,9.99999e-01
7.133836558e-01,6.83872e-03,9.99999e-01,9.99999e-01,9.99999e-01,6.83872e-03,9.99999e-01
7.169505741e-01,7.54639e-03,9.99999e-01,9.99999e-01,9.99999e-01,7.54639e-03,9.99999e-01
7.205353270e-01,8.31112e-03,9.99999e-01,9.99999e-01,9.99999e-01,8.31112e-03,9.99999e-01
7.241380036e-01,9.13590e-03,9.99999e-01,9.99999e-01,9.99999e-01,9.13590e-03,9.99999e-01
7.277586936e-01,1.00238e-02,9.99999e-01,9.99999e-01,9.99999e-01,1.00238e-02,9.99999e-01
7.313974871e-01,1.09778e-02,9.99999e-01,9.99999e-01,9.99999e-01,1.09778e-02,9.99999e-01
7.350544745e-01,1.20011e-02,9.99999e-01,9.99999e-01,9.99999e-01,1.20011e-02,9.99999e-01
7.387297469e-01,1.30967e-02,9.99999e-01,9.99999e-01,9.99999e-01,1.30967e-02,9.99999e-01
7.424233956e-01,1.42676e-02,9.99999e-01,9.99999e-01,9.99999e-01,1.42676e-02,9.99999e-01
7.461355126e-01,1.55170e-02,9.99999e-01,9.99999e-01,9.99999e-01,1.55170e-02,9.99999e-01
7.498661902e-01,1.68478e-02,9.99999e-01,9.99999e-01,9.99999e-01,1.68478e-02,9.99999e-01
7.536155211e-01,1.82631e-02,9.99999e-01,9.99999e-01,9.99999e-01,1.82631e-02,9.99999e-01
7.573835987e-01,1.97657e-02,9.99999e-01,9.99999e-01,9.99999e-01,1.97657e-02,9.99999e-01
7.611705167e-01,2.13586e-02,9.99999e-01,9.99999e-01,9.99999e-01,2.13586e-02,9.99999e-01
7.649763693e-01,2.30445e-02,9.99999e-01,9.99999e-01,9.99999e-01,2.30445e-02,9.99999e-01
7.688012511e-01,2.48262e-02,9.99999e-01,9.99999e-01,9.99999e-01,2.48262e-02,9.99999e-01
7.726452574e-01,2.67064e-02,9.99999e-01,9.99999e-01,9.99999e-01,2.67064e-02,9.99999e-01
7.765084837e-01,2.86875e-02,9.99999e-01,9.99999e-01,9.99999e-01,2.86875e-02,9.99999e-01
7.803910261e-01,2.69741e-02,9.99999e-01,9.99999e-01,8.76575e-01,3.07721e-02,9.99999e-01
7.842929812e-01,1.71043e-02,9.99999e-01,9.99999e-01,5.18902e-01,3.29625e-02,9.99999e-01
7.882144461e-01,1.76579e-02,9.99999e-01,9.99999e-01,5.00777e-01,3.52609e-02,9.99999e-01
7.921555184e-01,2.42843e-02,9.99999e-01,9.99999e-01,6.44670e-01,3.76693e-02,9.99999e-01
7.961162960e-01,2.98649e-02,9.99999e-01,9.99999e-01,7.43096e-01,4.01897e-02,9.99999e-01
8.000968774e-01,3.64298e-02,9.99999e-01,9.99999e-01,8.50686e-01,4.28240e-02,9.99999e-01
8.040973618e-01,4.19187e-02,9.99999e-01,9.99999e-01,9.19798e-01,4.55738e-02,9.99999e-01
8.081178486e-01,4.66041e-02,9.99999e-01,9.99999e-01,9.62088e-01,4.84405e-02,9.99999e-01
8.121584379e-01,5.08242e-02,9.99999e-01,9.99999e-01,9.88305e-01,5.14256e-02,9.99999e-01
8.162192301e-01,5.43884e-02,9.99999e-01,9.99999e-01,9.97401e-01,5.45301e-02,9.99999e-01
8.203003262e-01,5.77532e-02,9.99999e-01,9.99999e-01,9.99965e-01,5.77552e-02,9.99999e-01
8.244018279e-01,6.11016e-02,9.99999e-01,9.99999e-01,9.99999e-01,6.11016e-02,9.99999e-01
8.285238370e-01,6.45700e-02,9.99999e-01,9.99999e-01,9.99999e-01,6.45700e-02,9.99999e-01
8.326664562e-01,6.81610e-02,9.99999e-01,9.99999e-01,9.99999e-01,6.81610e-02,9.99999e-01
8.368297885e-01,7.18748e-02,9.99999e-01,9.99999e-01,9.99999e-01,7.18748e-02,9.99999e-01
8.410139374e-01,7.57115e-02,9.99999e-01,9.99999e-01,9.99999e-01,7.57115e-02,9.99999e-01
8.452190071e-01,7.96712e-02,9.99999e-01,9.99999e-01,9.99999e-01,7.96712e-02,9.99999e-01
8.494451021e-01,8.37536e-02,9.99999e-01,9.99999e-01,9.99999e-01,8.37536e-02,9.99999e-01
8.536923276e-01,8.79583e-02,9.99999e-01,9.99999e-01,9.99999e-01,8.79583e-02,9.99999e-01
8.579607893e-01,9.22847e-02,9.99999e-01,9.99999e-01,9.99999e-01,9.22847e-02,9.99999e-01
8.622505932e-01,9.67322e-02,9.99999e-01,9.99999e-01,9.99999e-01,9.67322e-02,9.99999e-01
8.665618462e-01,8.48202e-02,9.99999e-01,9.99999e-01,8.37318e-01,1.01300e-01,9.99999e-01
8.708946554e-01,2.14908e-02,9.99999e-01,9.99999e-01,2.02769e-01,1.05986e-01,9.99999e-01
8.752491287e-01,2.85632e-02,9.99999e-01,9.99999e-01,2.57812e-01,1.10791e-01,9.99999e-01
8.796253743e-01,5.37505e-02,9.99999e-01,9.99999e-01,4.64520e-01,1.15712e-01,9.99999e-01
8.840235012e-01,8.01706e-02,9.99999e-01,9.99999e-01,6.63952e-01,1.20747e-01,9.99999e-01
8.884436187e-01,1.07002e-01,9.99999e-01,9.99999e-01,8.49924e-01,1.25896e-01,9.99999e-01
8.928858368e-01,1.22744e-01,9.99999e-01,9.99999e-01,9.35854e-01,1.31157e-01,9.99999e-01
8.973502660e-01,1.34359e-01,9.99999e-01,9.99999e-01,9.84125e-01,1.36526e-01,9.99999e-01
9.018370173e-01,1.41754e-01,9.99999e-01,9.99999e-01,9.98246e-01,1.42003e-01,9.99999e-01
9.063462024e-01,1.40980e-01,9.99999e-01,9.99999e-01,9.55247e-01,1.47585e-01,9.99999e-01
9.108779334e-01,1.38036e-01,9.99999e-01,9.99999e-01,9.00613e-01,1.53269e-01,9.99999e-01
9.154323231e-01,1.55248e-01,9.99999e-01,9.99999e-01,9.76073e-01,1.59054e-01,9.99999e-01
9.200094847e-01,1.23154e-01,9.99999e-01,9.99999e-01,7.46673e-01,1.64936e-01,9.99999e-01
9.246095321e-01,1.02841e-01,9.99999e-01,9.99999e-01,6.01712e-01,1.70913e-01,9.99999e-01
9.292325798e-01,1.19663e-01,9.99999e-01,9.99999e-01,6.76128e-01,1.76983e-01,9.99999e-01
9.338787427e-01,1.25070e-01,9.99999e-01,9.99999e-01,6.82914e-01,1.83141e-01,9.99999e-01
9.385481364e-01,1.42562e-01,9.99999e-01,9.99999e-01,7.52759e-01,1.89386e-01,9.99999e-01
9.432408771e-01,1.64300e-01,9.99999e-01,9.99999e-01,8.39489e-01,1.95714e-01,9.99999e-01
9.479570815e-01,1.84696e-01,9.99999e-01,9.99999e-01,9.13782e-01,2.02122e-01,9.99999e-01
9.526968669e-01,1.99771e-01,9.99999e-01,9.99999e-01,9.57642e-01,2.08607e-01,9.99999e-01
9.574603512e-01,2.11219e-01,9.99999e-01,9.99999e-01,9.81654e-01,2.15166e-01,9.99999e-01
9.622476530e-01,2.20521e-01,9.99999e-01,9.99999e-01,9.94250e-01,2.21796e-01,9.99999e-01
9.670588912e-01,2.28100e-01,9.99999e-01,9.99999e-01,9.98278e-01,2.28493e-01,9.99999e-01
9.718941857e-01,2.35226e-01,9.99999e-01,9.99999e-01,9.99881e-01,2.35254e-01,9.99999e-01
9.767536566e-01,2.42075e-01,9.99999e-01,9.99999e-01,9.99999e-01,2.42075e-01,9.99999e-01
9.816374249e-01,2.48954e-01,9.99999e-01,9.99999e-01,9.99999e-01,2.48954e-01,9.99999e-01
9.865456120e-01,2.55886e-01,9.99999e-01,9.99999e-01,9.99999e-01,2.55886e-01,9.99999e-01
9.914783401e-01,2.62869e-01,9.99999e-01,9.99999e-01,9.99999e-01,2.62869e-01,9.99999e-01
9.964357318e-01,2.69899e-01,9.99999e-01,9.99999e-01,9.99999e-01,2.69899e-01,9.99999e-01
1.001417910e+00,2.76972e-01,9.99999e-01,9.99999e-01,9.99999e-01,2.76972e-01,9.99999e-01
1.006425000e+00,2.84086e-01,9.99999e-01,9.99999e-01,9.99999e-01,2.84086e-01,9.99999e-01
1.011457125e+00,2.91236e-01,9.99999e-01,9.99999e-01,9.99999e-01,2.91236e-01,9.99999e-01
1.016514411e+00,2.98420e-01,9.99999e-01,9.99999e-01,9.99999e-01,2.98420e-01,9.99999e-01
1.021596983e+00,3.05545e-01,9.99999e-01,9.99999e-01,9.99707e-01,3.05634e-01,9.99999e-01
1.026704968e+00,3.07177e-01,9.99999e-01,9.99999e-01,9.81791e-01,3.12874e-01,9.99999e-01
1.031838492e+00,2.78409e-01,9.99999e-01,9.99999e-01,8.69651e-01,3.20138e-01,9.99999e-01
1.036997685e+00,9.58864e-03,9.99999e-01,9.99999e-01,2.92852e-02,3.27422e-01,9.99999e-01
1.042182673e+00,1.52238e-04,9.99999e-01,9.99999e-01,4.54816e-04,3.34723e-01,9.99999e-01
1.047393587e+00,4.36362e-04,9.99999e-01,9.99999e-01,1.27577e-03,3.42038e-01,9.99999e-01
1.052630555e+00,1.25350e-09,9.99999e-01,9.99999e-01,3.58794e-09,3.49364e-01,9.99999e-01
1.057893707e+00,4.79440e-09,9.99999e-01,9.99999e-01,1.34411e-08,3.56697e-01,9.99999e-01
1.063183176e+00,7.26494e-07,9.99999e-01,9.99999e-01,1.99567e-06,3.64034e-01,9.99999e-01
1.068499092e+00,1.43458e-05,9.99999e-01,9.99999e-01,3.86291e-05,3.71374e-01,9.99999e-01
1.073841587e+00,4.89486e-04,9.99999e-01,9.99999e-01,1.29250e-03,3.78711e-01,9.99999e-01
1.079210795e+00,6.17254e-03,9.99999e-01,9.99999e-01,1.59892e-02,3.86045e-01,9.99999e-01
1.084606849e+00,3.62299e-02,9.99999e-01,9.99999e-01,9.21009e-02,3.93371e-01,9.99999e-01
1.090029883e+00,1.14016e-01,9.99999e-01,9.99999e-01,2.84550e-01,4.00688e-01,9.99999e-01
1.095480033e+00,2.18901e-01,9.99999e-01,9.99999e-01,5.36532e-01,4.07992e-01,9.99999e-01
1.100957433e+00,3.06759e-01,9.99999e-01,9.99999e-01,7.38676e-01,4.15281e-01,9.99999e-01
1.106462220e+00,3.72763e-01,9.99999e-01,9.99999e-01,8.82169e-01,4.22553e-01,9.99999e-01
1.111994531e+00,4.10243e-01,9.99999e-01,9.99999e-01,9.54486e-01,4.29804e-01,9.99999e-01
1.117554504e+00,4.32127e-01,9.99999e-01,9.99999e-01,9.88773e-01,4.37033e-01,9.99999e-01
1.123142276e+00,4.43912e-01,9.99999e-01,9.99999e-01,9.99266e-01,4.44238e-01,9.99999e-01
1.128757988e+00,4.51415e-01,9.99999e-01,9.99999e-01,9.99999e-01,4.51415e-01,9.99999e-01
1.134401778e+00,4.58563e-01,9.99999e-01,9.99999e-01,9.99999e-01,4.58563e-01,9.99999e-01
1.140073787e+00,4.65679e-01,9.99999e-01,9.99999e-01,9.99999e-01,4.65679e-01,9.99999e-01
1.145774156e+00,4.72763e-01,9.99999e-01,9.99999e-01,9.99999e-01,4.72763e-01,9.99999e-01
1.151503026e+00,4.79810e-01,9.99999e-01,9.99999e-01,9.99999e-01,4.79810e-01,9.99999e-01
1.157260541e+00,4.86821e-01,9.99999e-01,9.99999e-01,9.99999e-01,4.86821e-01,9.99999e-01
1.163046844e+00,4.93793e-01,9.99999e-01,9.99999e-01,9.99999e-01,4.93793e-01,9.99999e-01
1.168862078e+00,5.00723e-01,9.99999e-01,9.99999e-01,9.99999e-01,5.00723e-01,9.99999e-01
1.174706389e+00,5.07612e-01,9.99999e-01,9.99999e-01,9.99999e-01,5.07612e-01,9.99999e-01
1.180579921e+00,5.14456e-01,9.99999e-01,9.99999e-01,9.99999e-01,5.14456e-01,9.99999e-01
1.186482820e+00,5.21230e-01,9.99999e-01,9.99999e-01,9.99953e-01,5.21254e-01,9.99999e-01
1.192415234e+00,4.96149e-01,9.99999e-01,9.99999e-01,9.39664e-01,5.28006e-01,9.99999e-01
1.198377311e+00,2.58407e-01,9.99999e-01,9.99999e-01,4.83266e-01,5.34709e-01,9.99999e-01
1.204369197e+00,3.14667e-45,9.99999e-01,9.99999e-01,5.81250e-45,5.41362e-01,9.99999e-01
1.210391043e+00,6.48196e-187,9.99999e-01,9.99999e-01,1.18292e-186,5.47964e-01,9.99999e-01
1.216442998e+00,1.41414e-161,9.99999e-01,9.99999e-01,2.55024e-161,5.54513e-01,9.99999e-01
1.222525213e+00,3.90952e-159,9.99999e-01,9.99999e-01,6.96872e-159,5.61010e-01,9.99999e-01
1.228637839e+00,1.68035e-122,9.99999e-01,9.99999e-01,2.96122e-122,5.67452e-01,9.99999e-01
