#,Wave/freq,Total,N2,O2,CO2,Rayleigh,CIA
4.000000000e-01,9.56708e-26,9.99999e-01,9.99999e-01,9.99999e-01,9.56708e-26,9.99999e-01
4.020000000e-01,2.98865e-25,9.99999e-01,9.99999e-01,9.99999e-01,2.98865e-25,9.99999e-01
4.040100000e-01,9.11790e-25,9.99999e-01,9.99999e-01,9.99999e-01,9.11790e-25,9.99999e-01
4.060300500e-01,2.72111e-24,9.99999e-01,9.99999e-01,9.99999e-01,2.72111e-24,9.99999e-01
4.080602003e-01,7.94728e-24,9.99999e-01,9.99999e-01,9.99999e-01,7.94728e-24,9.99999e-01
4.101005013e-01,2.27246e-23,9.99999e-01,9.99999e-01,9.99999e-01,2.27246e-23,9.99999e-01
4.121510038e-01,6.36447e-23,9.99999e-01,9.99999e-01,9.99999e-01,6.36447e-23,9.99999e-01
4.142117588e-01,1.74660e-22,9.99999e-01,9.99999e-01,9.99999e-01,1.74660e-22,9.99999e-01
4.162828176e-01,4.69854e-22,9.99999e-01,9.99999e-01,9.99999e-01,4.69854e-22,9.99999e-01
4.183642317e-01,1.23950e-21,9.99999e-01,9.99999e-01,9.99999e-01,1.23950e-21,9.99999e-01
4.204560528e-01,3.20778e-21,9.99999e-01,9.99999e-01,9.99999e-01,3.20778e-21,9.99999e-01
4.225583331e-01,8.14720e-21,9.99999e-01,9.99999e-01,9.99999e-01,8.14720e-21,9.99999e-01
4.246711247e-01,2.03149e-20,9.99999e-01,9.99999e-01,9.99999e-01,2.03149e-20,9.99999e-01
4.267944804e-01,4.97491e-20,9.99999e-01,9.99999e-01,9.99999e-01,4.97491e-20,9.99999e-01
4.289284528e-01,1.19694e-19,9.99999e-01,9.99999e-01,9.99999e-01,1.19694e-19,9.99999e-01
4.310730950e-01,2.83026e-19,9.99999e-01,9.99999e-01,9.99999e-01,2.83026e-19,9.99999e-01
4.332284605e-01,6.57959e-19,9.99999e-01,9.99999e-01,9.99999e-01,6.57959e-19,9.99999e-01
4.353946028e-01,1.50430e-18,9.99999e-01,9.99999e-01,9.99999e-01,1.50430e-18,9.99999e-01
4.375715758e-01,3.38358e-18,9.99999e-01,9.99999e-01,9.99999e-01,3.38358e-18,9.99999e-01
4.397594337e-01,7.48970e-18,9.99999e-01,9.99999e-01,9.99999e-01,7.48970e-18,9.99999e-01
4.419582309e-01,1.63206e-17,9.99999e-01,9.99999e-01,9.99999e-01,1.63206e-17,9.99999e-01
4.441680220e-01,3.50208e-17,9.99999e-01,9.99999e-01,9.99999e-01,3.50208e-17,9.99999e-01
4.463888621e-01,7.40230e-17,9.99999e-01,9.99999e-01,9.99999e-01,7.40230e-17,9.99999e-01
4.486208064e-01,1.54165e-16,9.99999e-01,9.99999e-01,9.99999e-01,1.54165e-16,9.99999e-01
4.508639105e-01,3.16456e-16,9.99999e-01,9.99999e-01,9.99999e-01,3.16456e-16,9.99999e-01
4.531182300e-01,6.40428e-16,9.99999e-01,9.99999e-01,9.99999e-01,6.40428e-16,9.99999e-01
4.553838212e-01,1.27814e-15,9.99999e-01,9.99999e-01,9.99999e-01,1.27814e-15,9.99999e-01
4.576607403e-01,2.51630e-15,9.99999e-01,9.99999e-01,9.99999e-01,2.51630e-15,9.99999e-01
4.599490440e-01,4.88802e-15,9.99999e-01,9.99999e-01,9.99999e-01,4.88802e-15,9.99999e-01
4.622487892e-01,9.37148e-15,9.99999e-01,9.99999e-01,9.99999e-01,9.37148e-15,9.99999e-01
4.645600332e-01,1.77378e-14,9.99999e-01,9.99999e-01,9.99999e-01,1.77378e-14,9.99999e-01
4.668828333e-01,3.31526e-14,9.99999e-01,9.99999e-01,9.99999e-01,3.31526e-14,9.99999e-01
4.692172475e-01,6.12028e-14,9.99999e-01,9.99999e-01,9.99999e-01,6.12028e-14,9.99999e-01
4.715633337e-01,1.11626e-13,9.99999e-01,9.99999e-01,9.99999e-01,1.11626e-13,9.99999e-01
4.739211504e-01,2.01189e-13,9.99999e-01,9.99999e-01,9.99999e-01,2.01189e-13,9.99999e-01
4.762907561e-01,3.58417e-13,9.99999e-01,9.99999e-01,9.99999e-01,3.58417e-13,9.99999e-01
4.786722099e-01,6.31278e-13,9.99999e-01,9.99999e-01,9.99999e-01,6.31278e-13,9.99999e-01
4.810655710e-01,1.09950e-12,9.99999e-01,9.99999e-01,9.99999e-01,1.09950e-12,9.99999e-01
4.834708988e-01,1.89414e-12,9.99999e-01,9.99999e-01,9.99999e-01,1.89414e-12,9.99999e-01
4.858882533e-01,3.22822e-12,9.99999e-01,9.99999e-01,9.99999e-01,3.22822e-12,9.99999e-01
4.883176946e-01,5.44427e-12,9.99999e-01,9.99999e-01,9.99999e-01,5.44427e-12,9.99999e-01
4.907592831e-01,9.08725e-12,9.99999e-01,9.99999e-01,9.99999e-01,9.08725e-12,9.99999e-01
4.932130795e-01,1.50152e-11,9.99999e-01,9.99999e-01,9.99999e-01,1.50152e-11,9.99999e-01
4.956791449e-01,2.45652e-11,9.99999e-01,9.99999e-01,9.99999e-01,2.45652e-11,9.99999e-01
4.981575406e-01,3.98005e-11,9.99999e-01,9.99999e-01,9.99999e-01,3.98005e-11,9.99999e-01
5.006483283e-01,6.38729e-11,9.99999e-01,9.99999e-01,9.99999e-01,6.38729e-11,9.99999e-01
5.031515699e-01,1.01552e-10,9.99999e-01,9.99999e-01,9.99999e-01,1.01552e-10,9.99999e-01
5.056673278e-01,1.59985e-10,9.99999e-01,9.99999e-01,9.99999e-01,1.59985e-10,9.99999e-01
5.081956644e-01,2.49789e-10,9.99999e-01,9.99999e-01,9.99999e-01,2.49789e-10,9.99999e-01
5.107366428e-01,3.86585e-10,9.99999e-01,9.99999e-01,9.99999e-01,3.86585e-10,9.99999e-01
5.132903260e-01,5.93158e-10,9.99999e-01,9.99999e-01,9.99999e-01,5.93158e-10,9.99999e-01
5.158567776e-01,9.02449e-10,9.99999e-01,9.99999e-01,9.99999e-01,9.02449e-10,9.99999e-01
5.184360615e-01,1.36168e-09,9.99999e-01,9.99999e-01,9.99999e-01,1.36168e-09,9.99999e-01
5.210282418e-01,2.03798e-09,9.99999e-01,9.99999e-01,9.99999e-01,2.03798e-09,9.99999e-01
5.236333830e-01,3.02597e-09,9.99999e-01,9.99999e-01,9.99999e-01,3.02597e-09,9.99999e-01
5.262515499e-01,4.45798e-09,9.99999e-01,9.99999e-01,9.99999e-01,4.45798e-09,9.99999e-01
5.288828077e-01,6.51761e-09,9.99999e-01,9.99999e-01,9.99999e-01,6.51761e-09,9.99999e-01
5.315272217e-01,9.45759e-09,9.99999e-01,9.99999e-01,9.99999e-01,9.45759e-09,9.99999e-01
5.341848578e-01,1.36232e-08,9.99999e-01,9.99999e-01,9.99999e-01,1.36232e-08,9.99999e-01
5.368557821e-01,1.94826e-08,9.99999e-01,9.99999e-01,9.99999e-01,1.94826e-08,9.99999e-01
5.395400610e-01,2.76659e-08,9.99999e-01,9.99999e-01,9.99999e-01,2.76659e-08,9.99999e-01
5.422377613e-01,3.90153e-08,9.99999e-01,9.99999e-01,9.99999e-01,3.90153e-08,9.99999e-01
5.449489501e-01,5.46483e-08,9.99999e-01,9.99999e-01,9.99999e-01,5.46483e-08,9.99999e-01
5.476736949e-01,7.60375e-08,9.99999e-01,9.99999e-01,9.99999e-01,7.60375e-08,9.99999e-01
5.504120634e-01,1.05110e-07,9.99999e-01,9.99999e-01,9.99999e-01,1.05110e-07,9.99999e-01
5.531641237e-01,1.44373e-07,9.99999e-01,9.99999e-01,9.99999e-01,1.44373e-07,9.99999e-01
5.559299443e-01,1.97062e-07,9.99999e-01,9.99999e-01,9.99999e-01,1.97062e-07,9.99999e-01
5.587095940e-01,2.67331e-07,9.99999e-01,9.99999e-01,9.99999e-01,2.67331e-07,9.99999e-01
5.615031420e-01,3.60481e-07,9.99999e-01,9.99999e-01,9.99999e-01,3.60481e-07,9.99999e-01
5.643106577e-01,4.83225e-07,9.99999e-01,9.99999e-01,9.99999e-01,4.83225e-07,9.99999e-01
5.671322110e-01,6.44026e-07,9.99999e-01,9.99999e-01,9.99999e-01,6.44026e-07,9.99999e-01
5.699678720e-01,8.53479e-07,9.99999e-01,9.99999e-01,9.99999e-01,8.53479e-07,9.99999e-01
5.728177114e-01,1.12478e-06,9.99999e-01,9.99999e-01,9.99999e-01,1.12478e-06,9.99999e-01
5.756818000e-01,1.47426e-06,9.99999e-01,9.99999e-01,9.99999e-01,1.47426e-06,9.99999e-01
5.785602090e-01,1.92202e-06,9.99999e-01,9.99999e-01,9.99999e-01,1.92202e-06,9.99999e-01
5.814530100e-01,2.49269e-06,9.99999e-01,9.99999e-01,9.99999e-01,2.49269e-06,9.99999e-01
5.843602750e-01,3.21623e-06,9.99999e-01,9.99999e-01,9.99999e-01,3.21623e-06,9.99999e-01
5.872820764e-01,4.12896e-06,9.99999e-01,9.99999e-01,9.99999e-01,4.12896e-06,9.99999e-01
5.902184868e-01,5.27463e-06,9.99999e-01,9.99999e-01,9.99999e-01,5.27463e-06,9.99999e-01
5.931695792e-01,6.70566e-06,9.99999e-01,9.99999e-01,9.99999e-01,6.70566e-06,9.99999e-01
5.961354271e-01,8.48461e-06,9.99999e-01,9.99999e-01,9.99999e-01,8.48461e-06,9.99999e-01
5.991161043e-01,1.06857e-05,9.99999e-01,9.99999e-01,9.99999e-01,1.06857e-05,9.99999e-01
6.021116848e-01,1.33967e-05,9.99999e-01,9.99999e-01,9.99999e-01,1.33967e-05,9.99999e-01
6.051222432e-01,1.67206e-05,9.99999e-01,9.99999e-01,9.99999e-01,1.67206e-05,9.99999e-01
6.081478544e-01,2.07780e-05,9.99999e-01,9.99999e-01,9.99999e-01,2.07780e-05,9.99999e-01
6.111885937e-01,2.57095e-05,9.99999e-01,9.99999e-01,9.99999e-01,2.57095e-05,9.99999e-01
6.142445367e-01,3.16778e-05,9.99999e-01,9.99999e-01,9.99999e-01,3.16778e-05,9.99999e-01
6.173157594e-01,3.88710e-05,9.99999e-01,9.99999e-01,9.99999e-01,3.88710e-05,9.99999e-01
6.204023382e-01,4.75053e-05,9.99999e-01,9.99999e-01,9.99999e-01,4.75053e-05,9.99999e-01
6.235043498e-01,5.78279e-05,9.99999e-01,9.99999e-01,9.99999e-01,5.78279e-05,9.99999e-01
6.266218716e-01,7.01206e-05,9.99999e-01,9.99999e-01,9.99999e-01,7.01206e-05,9.99999e-01
6.297549810e-01,8.47033e-05,9.99999e-01,9.99999e-01,9.99999e-01,8.47033e-05,9.99999e-01
6.329037559e-01,1.01938e-04,9.99999e-01,9.99999e-01,9.99999e-01,1.01938e-04,9.99999e-01
6.360682746e-01,1.22230e-04,9.99999e-01,9.99999e-01,9.99999e-01,1.22230e-04,9.99999e-01
6.392486160e-01,1.46039e-04,9.99999e-01,9.99999e-01,9.99999e-01,1.46039e-04,9.99999e-01
6.424448591e-01,1.73872e-04,9.99999e-01,9.99999e-01,9.99999e-01,1.73872e-04,9.99999e-01
6.456570834e-01,2.06297e-04,9.99999e-01,9.99999e-01,9.99999e-01,2.06297e-04,9.99999e-01
6.488853688e-01,2.43945e-04,9.99999e-01,9.99999e-01,9.99999e-01,2.43945e-04,9.99999e-01
6.521297956e-01,2.87509e-04,9.99999e-01,9.99999e-01,9.99999e-01,2.87509e-04,9.99999e-01
6.553904446e-01,3.37755e-04,9.99999e-01,9.99999e-01,9.99999e-01,3.37755e-04,9.99999e-01
6.586673968e-01,3.95522e-04,9.99999e-01,9.99999e-01,9.99999e-01,3.95522e-04,9.99999e-01
6.619607338e-01,4.61726e-04,9.99999e-01,9.99999e-01,9.99999e-01,4.61726e-04,9.99999e-01
6.652705375e-01,5.37367e-04,9.99999e-01,9.99999e-01,9.99999e-01,5.37367e-04,9.99999e-01
6.685968902e-01,6.23529e-04,9.99999e-01,9.99999e-01,9.99999e-01,6.23529e-04,9.99999e-01
6.719398746e-01,7.21383e-04,9.99999e-01,9.99999e-01,9.99999e-01,7.21383e-04,9.99999e-01
6.752995740e-01,8.32195e-04,9.99999e-01,9.99999e-01,9.99999e-01,8.32195e-04,9.99999e-01
6.786760719e-01,9.57323e-04,9.99999e-01,9.99999e-01,9.99999e-01,9.57323e-04,9.99999e-01
6.820694522e-01,1.09822e-03,9.99999e-01,9.99999e-01,9.99999e-01,1.09822e-03,9.99999e-01
6.854797995e-01,1.25645e-03,9.99999e-01,9.99999e-01,9.99999e-01,1.25645e-03,9.99999e-01
6.889071985e-01,1.43365e-03,9.99999e-01,9.99999e-01,9.99999e-01,1.43365e-03,9.99999e-01
6.923517345e-01,1.63159e-03,9.99999e-01,9.99999e-01,9.99999e-01,1.63159e-03,9.99999e-01
6.958134932e-01,1.85211e-03,9.99999e-01,9.99999e-01,9.99999e-01,1.85211e-03,9.99999e-01
6.992925606e-01,2.09719e-03,9.99999e-01,9.99999e-01,9.99999e-01,2.09719e-03,9.99999e-01
7.027890234e-01,2.36888e-03,9.99999e-01,9.99999e-01,9.99999e-01,2.36888e-03,9.99999e-01
7.063029686e-01,2.66933e-03,9.99999e-01,9.99999e-01,9.99999e-01,2.66933e-03,9.99999e-01
7.098344834e-01,3.00080e-03,9.99999e-01,9.99999e-01,9.99999e-01,3.00080e-03,9.99999e-01
7.133836558e-01,3.36564e-03,9.99999e-01,9.99999e-01,9.99999e-01,3.36564e-03,9.99999e-01
7.169505741e-01,3.76629e-03,9.99999e-01,9.99999e-01,9.99999e-01,3.76629e-03,9.99999e-01
7.205353270e-01,4.20529e-03,9.99999e-01,9.99999e-01,9.99999e-01,4.20529e-03,9.99999e-01
7.241380036e-01,4.68524e-03,9.99999e-01,9.99999e-01,9.99999e-01,4.68524e-03,9.99999e-01
7.277586936e-01,5.20883e-03,9.99999e-01,9.99999e-01,9.99999e-01,5.20883e-03,9.99999e-01
7.313974871e-01,5.77884e-03,9.99999e-01,9.99999e-01,9.99999e-01,5.77884e-03,9.99999e-01
7.350544745e-01,6.39808e-03,9.99999e-01,9.99999e-01,9.99999e-01,6.39808e-03,9.99999e-01
7.387297469e-01,7.06945e-03,9.99999e-01,9.99999e-01,9.99999e-01,7.06945e-03,9.99999e-01
7.424233956e-01,7.79589e-03,9.99999e-01,9.99999e-01,9.99999e-01,7.79589e-03,9.99999e-01
7.461355126e-01,8.58038e-03,9.99999e-01,9.99999e-01,9.99999e-01,8.58038e-03,9.99999e-01
7.498661902e-01,9.42594e-03,9.99999e-01,9.99999e-01,9.99999e-01,9.42594e-03,9.99999e-01
7.536155211e-01,1.03356e-02,9.99999e-01,9.99999e-01,9.99999e-01,1.03356e-02,9.99999e-01
7.573835987e-01,1.13125e-02,9.99999e-01,9.99999e-01,9.99999e-01,1.13125e-02,9.99999e-01
7.611705167e-01,1.23596e-02,9.99999e-01,9.99999e-01,9.99999e-01,1.23596e-02,9.99999e-01
7.649763693e-01,1.34801e-02,9.99999e-01,9.99999e-01,9.99999e-01,1.34801e-02,9.99999e-01
7.688012511e-01,1.46770e-02,9.99999e-01,9.99999e-01,9.99999e-01,1.46770e-02,9.99999e-01
7.726452574e-01,1.59533e-02,9.99999e-01,9.99999e-01,9.99999e-01,1.59533e-02,9.99999e-01
7.765084837e-01,1.73120e-02,9.99999e-01,9.99999e-01,9.99999e-01,1.73120e-02,9.99999e-01
7.803910261e-01,1.63099e-02,9.99999e-01,9.99999e-01,8.69572e-01,1.87562e-02,9.99999e-01
7.842929812e-01,9.64706e-03,9.99999e-01,9.99999e-01,4.75488e-01,2.02887e-02,9.99999e-01
7.882144461e-01,1.00810e-02,9.99999e-01,9.99999e-01,4.60057e-01,2.19124e-02,9.99999e-01
7.921555184e-01,1.43570e-02,9.99999e-01,9.99999e-01,6.07571e-01,2.36301e-02,9.99999e-01
7.961162960e-01,1.81052e-02,9.99999e-01,9.99999e-01,7.11554e-01,2.54445e-02,9.99999e-01
8.000968774e-01,2.27341e-02,9.99999e-01,9.99999e-01,8.30979e-01,2.73582e-02,9.99999e-01
8.040973618e-01,2.66819e-02,9.99999e-01,9.99999e-01,9.08358e-01,2.93737e-02,9.99999e-01
8.081178486e-01,3.01287e-02,9.99999e-01,9.99999e-01,9.56664e-01,3.14935e-02,9.99999e-01
8.121584379e-01,3.32634e-02,9.99999e-01,9.99999e-01,9.86466e-01,3.37198e-02,9.99999e-01
8.162192301e-01,3.59464e-02,9.99999e-01,9.99999e-01,9.96994e-01,3.60547e-02,9.99999e-01
8.203003262e-01,3.84988e-02,9.99999e-01,9.99999e-01,9.99956e-01,3.85005e-02,9.99999e-01
8.244018279e-01,4.10588e-02,9.99999e-01,9.99999e-01,9.99999e-01,4.10588e-02,9.99999e-01
8.285238370e-01,4.37316e-02,9.99999e-01,9.99999e-01,9.99999e-01,4.37316e-02,9.99999e-01
8.326664562e-01,4.65203e-02,9.99999e-01,9.99999e-01,9.99999e-01,4.65203e-02,9.99999e-01
8.368297885e-01,4.94265e-02,9.99999e-01,9.99999e-01,9.99999e-01,4.94265e-02,9.99999e-01
8.410139374e-01,5.24515e-02,9.99999e-01,9.99999e-01,9.99999e-01,5.24515e-02,9.99999e-01
8.452190071e-01,5.55963e-02,9.99999e-01,9.99999e-01,9.99999e-01,5.55963e-02,9.99999e-01
8.494451021e-01,5.88619e-02,9.99999e-01,9.99999e-01,9.99999e-01,5.88619e-02,9.99999e-01
8.536923276e-01,6.22491e-02,9.99999e-01,9.99999e-01,9.99999e-01,6.22491e-02,9.99999e-01
8.579607893e-01,6.57585e-02,9.99999e-01,9.99999e-01,9.99999e-01,6.57585e-02,9.99999e-01
8.622505932e-01,6.93905e-02,9.99999e-01,9.99999e-01,9.99999e-01,6.93905e-02,9.99999e-01
8.665618462e-01,6.10251e-02,9.99999e-01,9.99999e-01,8.34297e-01,7.31454e-02,9.99999e-01
8.708946554e-01,1.29277e-02,9.99999e-01,9.99999e-01,1.67840e-01,7.70233e-02,9.99999e-01
8.752491287e-01,1.74040e-02,9.99999e-01,9.99999e-01,2.14800e-01,8.10241e-02,9.99999e-01
8.796253743e-01,3.55644e-02,9.99999e-01,9.99999e-01,4.17680e-01,8.51475e-02,9.99999e-01
8.840235012e-01,5.59526e-02,9.99999e-01,9.99999e-01,6.25916e-01,8.93930e-02,9.99999e-01
8.884436187e-01,7.77646e-02,9.99999e-01,9.99999e-01,8.29399e-01,9.37601e-02,9.99999e-01
8.928858368e-01,9.10338e-02,9.99999e-01,9.99999e-01,9.26572e-01,9.82479e-02,9.99999e-01
8.973502660e-01,1.00971e-01,9.99999e-01,9.99999e-01,9.81677e-01,1.02855e-01,9.99999e-01
9.018370173e-01,1.07363e-01,9.99999e-01,9.99999e-01,9.97965e-01,1.07582e-01,9.99999e-01
9.063462024e-01,1.06834e-01,9.99999e-01,9.99999e-01,9.50267e-01,1.12425e-01,9.99999e-01
9.108779334e-01,1.04116e-01,9.99999e-01,9.99999e-01,8.86965e-01,1.17385e-01,9.99999e-01
9.154323231e-01,1.19068e-01,9.99999e-01,9.99999e-01,9.72310e-01,1.22459e-01,9.99999e-01
9.200094847e-01,9.29736e-02,9.99999e-01,9.99999e-01,7.28376e-01,1.27645e-01,9.99999e-01
9.246095321e-01,7.44107e-02,9.99999e-01,9.99999e-01,5.59723e-01,1.32942e-01,9.99999e-01
9.292325798e-01,8.89716e-02,9.99999e-01,9.99999e-01,6.43100e-01,1.38348e-01,9.99999e-01
9.338787427e-01,9.31358e-02,9.99999e-01,9.99999e-01,6.47406e-01,1.43860e-01,9.99999e-01
9.385481364e-01,1.08064e-01,9.99999e-01,9.99999e-01,7.22951e-01,1.49476e-01,9.99999e-01
9.432408771e-01,1.26981e-01,9.99999e-01,9.99999e-01,8.18205e-01,1.55195e-01,9.99999e-01
9.479570815e-01,1.45214e-01,9.99999e-01,9.99999e-01,9.01882e-01,1.61012e-01,9.99999e-01
9.526968669e-01,1.58840e-01,9.99999e-01,9.99999e-01,9.51555e-01,1.66927e-01,9.99999e-01
9.574603512e-01,1.69295e-01,9.99999e-01,9.99999e-01,9.78952e-01,1.72935e-01,9.99999e-01
9.622476530e-01,1.77850e-01,9.99999e-01,9.99999e-01,9.93386e-01,1.79034e-01,9.99999e-01
9.670588912e-01,1.84855e-01,9.99999e-01,9.99999e-01,9.98015e-01,1.85222e-01,9.99999e-01
9.718941857e-01,1.91469e-01,9.99999e-01,9.99999e-01,9.99860e-01,1.91495e-01,9.99999e-01
9.767536566e-01,1.97850e-01,9.99999e-01,9.99999e-01,9.99999e-01,1.97850e-01,9.99999e-01
9.816374249e-01,2.04285e-01,9.99999e-01,9.99999e-01,9.99999e-01,2.04285e-01,9.99999e-01
9.865456120e-01,2.10795e-01,9.99999e-01,9.99999e-01,9.99999e-01,2.10795e-01,9.99999e-01
9.914783401e-01,2.17378e-01,9.99999e-01,9.99999e-01,9.99999e-01,2.17378e-01,9.99999e-01
9.964357318e-01,2.24031e-01,9.99999e-01,9.99999e-01,9.99999e-01,2.24031e-01,9.99999e-01
1.001417910e+00,2.30749e-01,9.99999e-01,9.99999e-01,9.99999e-01,2.30749e-01,9.99999e-01
1.006425000e+00,2.37531e-01,9.99999e-01,9.99999e-01,9.99999e-01,2.37531e-01,9.99999e-01
1.011457125e+00,2.44372e-01,9.99999e-01,9.99999e-01,9.99999e-01,2.44372e-01,9.99999e-01
1.016514411e+00,2.51269e-01,9.99999e-01,9.99999e-01,9.99999e-01,2.51269e-01,9.99999e-01
1.021596983e+00,2.58142e-01,9.99999e-01,9.99999e-01,9.99702e-01,2.58218e-01,9.99999e-01
1.026704968e+00,2.59841e-01,9.99999e-01,9.99999e-01,9.79726e-01,2.65217e-01,9.99999e-01
1.031838492e+00,2.35055e-01,9.99999e-01,9.99999e-01,8.63341e-01,2.72262e-01,9.99999e-01
1.036997685e+00,6.86700e-03,9.99999e-01,9.99999e-01,2.45821e-02,2.79349e-01,9.99999e-01
1.042182673e+00,6.28063e-05,9.99999e-01,9.99999e-01,2.19238e-04,2.86476e-01,9.99999e-01
1.047393587e+00,1.78173e-04,9.99999e-01,9.99999e-01,6.06780e-04,2.93637e-01,9.99999e-01
1.052630555e+00,1.09426e-10,9.99999e-01,9.99999e-01,3.63745e-10,3.00832e-01,9.99999e-01
1.057893707e+00,4.11768e-10,9.99999e-01,9.99999e-01,1.33667e-09,3.08055e-01,9.99999e-01
1.063183176e+00,1.37863e-07,9.99999e-01,9.99999e-01,4.37239e-07,3.15303e-01,9.99999e-01
1.068499092e+00,3.54355e-06,9.99999e-01,9.99999e-01,1.09852e-05,3.22575e-01,9.99999e-01
1.073841587e+00,1.75535e-04,9.99999e-01,9.99999e-01,5.32141e-04,3.29865e-01,9.99999e-01
1.079210795e+00,3.14243e-03,9.99999e-01,9.99999e-01,9.31997e-03,3.37171e-01,9.99999e-01
1.084606849e+00,2.27693e-02,9.99999e-01,9.99999e-01,6.60957e-02,3.44490e-01,9.99999e-01
1.090029883e+00,8.39010e-02,9.99999e-01,9.99999e-01,2.38478e-01,3.51818e-01,9.99999e-01
1.095480033e+00,1.76226e-01,9.99999e-01,9.99999e-01,4.90670e-01,3.59153e-01,9.99999e-01
1.100957433e+00,2.59092e-01,9.99999e-01,9.99999e-01,7.06951e-01,3.66491e-01,9.99999e-01
1.106462220e+00,3.23742e-01,9.99999e-01,9.99999e-01,8.66014e-01,3.73830e-01,9.99999e-01
1.111994531e+00,3.61322e-01,9.99999e-01,9.99999e-01,9.47935e-01,3.81167e-01,9.99999e-01
1.117554504e+00,3.83471e-01,9.99999e-01,9.99999e-01,9.87058e-01,3.88498e-01,9.99999e-01
1.123142276e+00,3.95485e-01,9.99999e-01,9.99999e-01,9.99147e-01,3.95822e-01,9.99999e-01
1.128757988e+00,4.03134e-01,9.99999e-01,9.99999e-01,9.99999e-01,4.03135e-01,9.99999e-01
1.134401778e+00,4.10434e-01,9.99999e-01,9.99999e-01,9.99999e-01,4.10434e-01,9.99999e-01
1.140073787e+00,4.17718e-01,9.99999e-01,9.99999e-01,9.99999e-01,4.17718e-01,9.99999e-01
1.145774156e+00,4.24983e-01,9.99999e-01,9.99999e-01,9.99999e-01,4.24983e-01,9.99999e-01
1.151503026e+00,4.32227e-01,9.99999e-01,9.99999e-01,9.99999e-01,4.32227e-01,9.99999e-01
1.157260541e+00,4.39448e-01,9.99999e-01,9.99999e-01,9.99999e-01,4.39448e-01,9.99999e-01
1.163046844e+00,4.46643e-01,9.99999e-01,9.99999e-01,9.99999e-01,4.46643e-01,9.99999e-01
1.168862078e+00,4.53811e-01,9.99999e-01,9.99999e-01,9.99999e-01,4.53811e-01,9.99999e-01
1.174706389e+00,4.60949e-01,9.99999e-01,9.99999e-01,9.99999e-01,4.60949e-01,9.99999e-01
1.180579921e+00,4.68054e-01,9.99999e-01,9.99999e-01,9.99999e-01,4.68054e-01,9.99999e-01
1.186482820e+00,4.75106e-01,9.99999e-01,9.99999e-01,9.99957e-01,4.75126e-01,9.99999e-01
1.192415234e+00,4.50304e-01,9.99999e-01,9.99999e-01,9.33926e-01,4.82162e-01,9.99999e-01
1.198377311e+00,2.32192e-01,9.99999e-01,9.99999e-01,4.74674e-01,4.89159e-01,9.99999e-01
1.204369197e+00,2.44025e-51,9.99999e-01,9.99999e-01,4.91868e-51,4.96117e-01,9.99999e-01
1.210391043e+00,3.68797e-213,9.99999e-01,9.99999e-01,7.33144e-213,5.03034e-01,9.99999e-01
1.216442998e+00,3.20155e-184,9.99999e-01,9.99999e-01,6.27868e-184,5.09908e-01,9.99999e-01
1.222525213e+00,1.97177e-181,9.99999e-01,9.99999e-01,3.81580e-181,5.16737e-01,9.99999e-01
1.228637839e+00,1.36069e-139,9.99999e-01,9.99999e-01,2.59912e-139,5.23520e-01,9.99999e-01
