#,Wave/freq,Total,N2,O2,CO2,Rayleigh,CIA
4.000000000e-01,1.45712e-08,9.99999e-01,9.99999e-01,9.99999e-01,1.45712e-08,9.99999e-01
4.020000000e-01,2.08181e-08,9.99999e-01,9.99999e-01,9.99999e-01,2.08181e-08,9.99999e-01
4.040100000e-01,2.95237e-08,9.99999e-01,9.99999e-01,9.99999e-01,2.95237e-08,9.99999e-01
4.060300500e-01,4.15818e-08,9.99999e-01,9.99999e-01,9.99999e-01,4.15818e-08,9.99999e-01
4.080602003e-01,5.81699e-08,9.99999e-01,9.99999e-01,9.99999e-01,5.81699e-08,9.99999e-01
4.101005013e-01,8.08377e-08,9.99999e-01,9.99999e-01,9.99999e-01,8.08377e-08,9.99999e-01
4.121510038e-01,1.11611e-07,9.99999e-01,9.99999e-01,9.99999e-01,1.11611e-07,9.99999e-01
4.142117588e-01,1.53120e-07,9.99999e-01,9.99999e-01,9.99999e-01,1.53120e-07,9.99999e-01
4.162828176e-01,2.08758e-07,9.99999e-01,9.99999e-01,9.99999e-01,2.08758e-07,9.99999e-01
4.183642317e-01,2.82877e-07,9.99999e-01,9.99999e-01,9.99999e-01,2.82877e-07,9.99999e-01
4.204560528e-01,3.81017e-07,9.99999e-01,9.99999e-01,9.99999e-01,3.81017e-07,9.99999e-01
4.225583331e-01,5.10195e-07,9.99999e-01,9.99999e-01,9.99999e-01,5.10195e-07,9.99999e-01
4.246711247e-01,6.79242e-07,9.99999e-01,9.99999e-01,9.99999e-01,6.79242e-07,9.99999e-01
4.267944804e-01,8.99202e-07,9.99999e-01,9.99999e-01,9.99999e-01,8.99202e-07,9.99999e-01
4.289284528e-01,1.18381e-06,9.99999e-01,9.99999e-01,9.99999e-01,1.18381e-06,9.99999e-01
4.310730950e-01,1.55007e-06,9.99999e-01,9.99999e-01,9.99999e-01,1.55007e-06,9.99999e-01
4.332284605e-01,2.01886e-06,9.99999e-01,9.99999e-01,9.99999e-01,2.01886e-06,9.99999e-01
4.353946028e-01,2.61574e-06,9.99999e-01,9.99999e-01,9.99999e-01,2.61574e-06,9.99999e-01
4.375715758e-01,3.37179e-06,9.99999e-01,9.99999e-01,9.99999e-01,3.37179e-06,9.99999e-01
4.397594337e-01,4.32463e-06,9.99999e-01,9.99999e-01,9.99999e-01,4.32463e-06,9.99999e-01
4.419582309e-01,5.51953e-06,9.99999e-01,9.99999e-01,9.99999e-01,5.51953e-06,9.99999e-01
4.441680220e-01,7.01072e-06,9.99999e-01,9.99999e-01,9.99999e-01,7.01072e-06,9.99999e-01
4.463888621e-01,8.86281e-06,9.99999e-01,9.99999e-01,9.99999e-01,8.86281e-06,9.99999e-01
4.486208064e-01,1.11524e-05,9.99999e-01,9.99999e-01,9.99999e-01,1.11524e-05,9.99999e-01
4.508639105e-01,1.39700e-05,9.99999e-01,9.99999e-01,9.99999e-01,1.39700e-05,9.99999e-01
4.531182300e-01,1.74217e-05,9.99999e-01,9.99999e-01,9.99999e-01,1.74217e-05,9.99999e-01
4.553838212e-01,2.16317e-05,9.99999e-01,9.99999e-01,9.99999e-01,2.16317e-05,9.99999e-01
4.576607403e-01,2.67445e-05,9.99999e-01,9.99999e-01,9.99999e-01,2.67445e-05,9.99999e-01
4.599490440e-01,3.29274e-05,9.99999e-01,9.99999e-01,9.99999e-01,3.29274e-05,9.99999e-01
4.622487892e-01,4.03736e-05,9.99999e-01,9.99999e-01,9.99999e-01,4.03736e-05,9.99999e-01
4.645600332e-01,4.93046e-05,9.99999e-01,9.99999e-01,9.99999e-01,4.93046e-05,9.99999e-01
4.668828333e-01,5.99741e-05,9.99999e-01,9.99999e-01,9.99999e-01,5.99741e-05,9.99999e-01
4.692172475e-01,7.26707e-05,9.99999e-01,9.99999e-01,9.99999e-01,7.26707e-05,9.99999e-01
4.715633337e-01,8.77218e-05,9.99999e-01,9.99999e-01,9.99999e-01,8.77218e-05,9.99999e-01
4.739211504e-01,1.05497e-04,9.99999e-01,9.99999e-01,9.99999e-01,1.05497e-04,9.99999e-01
4.762907561e-01,1.26413e-04,9.99999e-01,9.99999e-01,9.99999e-01,1.26413e-04,9.99999e-01
4.786722099e-01,1.50935e-04,9.99999e-01,9.99999e-01,9.99999e-01,1.50935e-04,9.99999e-01
4.810655710e-01,1.79585e-04,9.99999e-01,9.99999e-01,9.99999e-01,1.79585e-04,9.99999e-01
4.834708988e-01,2.12940e-04,9.99999e-01,9.99999e-01,9.99999e-01,2.12940e-04,9.99999e-01
4.858882533e-01,2.51642e-04,9.99999e-01,9.99999e-01,9.99999e-01,2.51642e-04,9.99999e-01
4.883176946e-01,2.96399e-04,9.99999e-01,9.99999e-01,9.99999e-01,2.96399e-04,9.99999e-01
4.907592831e-01,3.47989e-04,9.99999e-01,9.99999e-01,9.99999e-01,3.47989e-04,9.99999e-01
4.932130795e-01,4.07266e-04,9.99999e-01,9.99999e-01,9.99999e-01,4.07266e-04,9.99999e-01
4.956791449e-01,4.75162e-04,9.99999e-01,9.99999e-01,9.99999e-01,4.75162e-04,9.99999e-01
4.981575406e-01,5.52691e-04,9.99999e-01,9.99999e-01,9.99999e-01,5.52691e-04,9.99999e-01
5.006483283e-01,6.40953e-04,9.99999e-01,9.99999e-01,9.99999e-01,6.40953e-04,9.99999e-01
5.031515699e-01,7.41139e-04,9.99999e-01,9.99999e-01,9.99999e-01,7.41139e-04,9.99999e-01
5.056673278e-01,8.54529e-04,9.99999e-01,9.99999e-01,9.99999e-01,8.54529e-04,9.99999e-01
5.081956644e-01,9.82500e-04,9.99999e-01,9.99999e-01,9.99999e-01,9.82500e-04,9.99999e-01
5.107366428e-01,1.12653e-03,9.99999e-01,9.99999e-01,9.99999e-01,1.12653e-03,9.99999e-01
5.132903260e-01,1.28818e-03,9.99999e-01,9.99999e-01,9.99999e-01,1.28818e-03,9.99999e-01
5.158567776e-01,1.46914e-03,9.99999e-01,9.99999e-01,9.99999e-01,1.46914e-03,9.99999e-01
5.184360615e-01,1.67117e-03,9.99999e-01,9.99999e-01,9.99999e-01,1.67117e-03,9.99999e-01
5.210282418e-01,1.89615e-03,9.99999e-01,9.99999e-01,9.99999e-01,1.89615e-03,9.99999e-01
5.236333830e-01,2.14605e-03,9.99999e-01,9.99999e-01,9.99999e-01,2.14605e-03,9.99999e-01
5.262515499e-01,2.42297e-03,9.99999e-01,9.99999e-01,9.99999e-01,2.42297e-03,9.99999e-01
5.288828077e-01,2.72906e-03,9.99999e-01,9.99999e-01,9.99999e-01,2.72906e-03,9.99999e-01
5.315272217e-01,3.06661e-03,9.99999e-01,9.99999e-01,9.99999e-01,3.06661e-03,9.99999e-01
5.341848578e-01,3.43798e-03,9.99999e-01,9.99999e-01,9.99999e-01,3.43798e-03,9.99999e-01
5.368557821e-01,3.84562e-03,9.99999e-01,9.99999e-01,9.99999e-01,3.84562e-03,9.99999e-01
5.395400610e-01,4.29210e-03,9.99999e-01,9.99999e-01,9.99999e-01,4.29210e-03,9.99999e-01
5.422377613e-01,4.78003e-03,9.99999e-01,9.99999e-01,9.99999e-01,4.78003e-03,9.99999e-01
5.449489501e-01,5.31211e-03,9.99999e-01,9.99999e-01,9.99999e-01,5.31211e-03,9.99999e-01
5.476736949e-01,5.89113e-03,9.99999e-01,9.99999e-01,9.99999e-01,5.89113e-03,9.99999e-01
5.504120634e-01,6.51993e-03,9.99999e-01,9.99999e-01,9.99999e-01,6.51993e-03,9.99999e-01
5.531641237e-01,7.20140e-03,9.99999e-01,9.99999e-01,9.99999e-01,7.20140e-03,9.99999e-01
5.559299443e-01,7.93850e-03,9.99999e-01,9.99999e-01,9.99999e-01,7.93850e-03,9.99999e-01
5.587095940e-01,8.73421e-03,9.99999e-01,9.99999e-01,9.99999e-01,8.73421e-03,9.99999e-01
5.615031420e-01,9.59157e-03,9.99999e-01,9.99999e-01,9.99999e-01,9.59157e-03,9.99999e-01
5.643106577e-01,1.05136e-02,9.99999e-01,9.99999e-01,9.99999e-01,1.05136e-02,9.99999e-01
5.671322110e-01,1.15034e-02,9.99999e-01,9.99999e-01,9.99999e-01,1.15034e-02,9.99999e-01
5.699678720e-01,1.25641e-02,9.99999e-01,9.99999e-01,9.99999e-01,1.25641e-02,9.99999e-01
5.728177114e-01,1.36987e-02,9.99999e-01,9.99999e-01,9.99999e-01,1.36987e-02,9.99999e-01
5.756818000e-01,1.49102e-02,9.99999e-01,9.99999e-01,9.99999e-01,1.49102e-02,9.99999e-01
5.785602090e-01,1.62017e-02,9.99999e-01,9.99999e-01,9.99999e-01,1.62017e-02,9.99999e-01
5.814530100e-01,1.75763e-02,9.99999e-01,9.99999e-01,9.99999e-01,1.75763e-02,9.99999e-01
5.843602750e-01,1.90368e-02,9.99999e-01,9.99999e-01,9.99999e-01,1.90368e-02,9.99999e-01
5.872820764e-01,2.05862e-02,9.99999e-01,9.99999e-01,9.99999e-01,2.05862e-02,9.99999e-01
5.902184868e-01,2.22273e-02,9.99999e-01,9.99999e-01,9.99999e-01,2.22273e-02,9.99999e-01
5.931695792e-01,2.39630e-02,9.99999e-01,9.99999e-01,9.99999e-01,2.39630e-02,9.99999e-01
5.961354271e-01,2.57958e-02,9.99999e-01,9.99999e-01,9.99999e-01,2.57958e-02,9.99999e-01
5.991161043e-01,2.77284e-02,9.99999e-01,9.99999e-01,9.99999e-01,2.77284e-02,9.99999e-01
6.021116848e-01,2.97633e-02,9.99999e-01,9.99999e-01,9.99999e-01,2.97633e-02,9.99999e-01
6.051222432e-01,3.19028e-02,9.99999e-01,9.99999e-01,9.99999e-01,3.19028e-02,9.99999e-01
6.081478544e-01,3.41493e-02,9.99999e-01,9.99999e-01,9.99999e-01,3.41493e-02,9.99999e-01
6.111885937e-01,3.65049e-02,9.99999e-01,9.99999e-01,9.99999e-01,3.65049e-02,9.99999e-01
6.142445367e-01,3.89716e-02,9.99999e-01,9.99999e-01,9.99999e-01,3.89716e-02,9.99999e-01
6.173157594e-01,4.15513e-02,9.99999e-01,9.99999e-01,9.99999e-01,4.15513e-02,9.99999e-01
6.204023382e-01,4.42457e-02,9.99999e-01,9.99999e-01,9.99999e-01,4.42457e-02,9.99999e-01
6.235043498e-01,4.70564e-02,9.99999e-01,9.99999e-01,9.99999e-01,4.70564e-02,9.99999e-01
6.266218716e-01,4.99848e-02,9.99999e-01,9.99999e-01,9.99999e-01,4.99848e-02,9.99999e-01
6.297549810e-01,5.30321e-02,9.99999e-01,9.99999e-01,9.99999e-01,5.30321e-02,9.99999e-01
6.329037559e-01,5.61995e-02,9.99999e-01,9.99999e-01,9.99999e-01,5.61995e-02,9.99999e-01
6.360682746e-01,5.94878e-02,9.99999e-01,9.99999e-01,9.99999e-01,5.94878e-02,9.99999e-01
6.392486160e-01,6.28979e-02,9.99999e-01,9.99999e-01,9.99999e-01,6.28979e-02,9.99999e-01
6.424448591e-01,6.64303e-02,9.99999e-01,9.99999e-01,9.99999e-01,6.64303e-02,9.99999e-01
6.456570834e-01,7.00854e-02,9.99999e-01,9.99999e-01,9.99999e-01,7.00854e-02,9.99999e-01
6.488853688e-01,7.38634e-02,9.99999e-01,9.99999e-01,9.99999e-01,7.38634e-02,9.99999e-01
6.521297956e-01,7.77643e-02,9.99999e-01,9.99999e-01,9.99999e-01,7.77643e-02,9.99999e-01
6.553904446e-01,8.17881e-02,9.99999e-01,9.99999e-01,9.99999e-01,8.17881e-02,9.99999e-01
6.586673968e-01,8.59344e-02,9.99999e-01,9.99999e-01,9.99999e-01,8.59344e-02,9.99999e-01
6.619607338e-01,9.02028e-02,9.99999e-01,9.99999e-01,9.99999e-01,9.02028e-02,9.99999e-01
6.652705375e-01,9.45926e-02,9.99999e-01,9.99999e-01,9.99999e-01,9.45926e-02,9.99999e-01
6.685968902e-01,9.91029e-02,9.99999e-01,9.99999e-01,9.99999e-01,9.91029e-02,9.99999e-01
6.719398746e-01,1.03733e-01,9.99999e-01,9.99999e-01,9.99999e-01,1.03733e-01,9.99999e-01
6.752995740e-01,1.08481e-01,9.99999e-01,9.99999e-01,9.99999e-01,1.08481e-01,9.99999e-01
6.786760719e-01,1.13347e-01,9.99999e-01,9.99999e-01,9.99999e-01,1.13347e-01,9.99999e-01
6.820694522e-01,1.18328e-01,9.99999e-01,9.99999e-01,9.99999e-01,1.18328e-01,9.99999e-01
6.854797995e-01,1.23423e-01,9.99999e-01,9.99999e-01,9.99999e-01,1.23423e-01,9.99999e-01
6.889071985e-01,1.28630e-01,9.99999e-01,9.99999e-01,9.99999e-01,1.28630e-01,9.99999e-01
6.923517345e-01,1.33948e-01,9.99999e-01,9.99999e-01,9.99999e-01,1.33948e-01,9.99999e-01
6.958134932e-01,1.39373e-01,9.99999e-01,9.99999e-01,9.99999e-01,1.39373e-01,9.99999e-01
6.992925606e-01,1.44905e-01,9.99999e-01,9.99999e-01,9.99999e-01,1.44905e-01,9.99999e-01
7.027890234e-01,1.50541e-01,9.99999e-01,9.99999e-01,9.99999e-01,1.50541e-01,9.99999e-01
7.063029686e-01,1.56278e-01,9.99999e-01,9.99999e-01,9.99999e-01,1.56278e-01,9.99999e-01
7.098344834e-01,1.62114e-01,9.99999e-01,9.99999e-01,9.99999e-01,1.62114e-01,9.99999e-01
7.133836558e-01,1.68046e-01,9.99999e-01,9.99999e-01,9.99999e-01,1.68046e-01,9.99999e-01
7.169505741e-01,1.74072e-01,9.99999e-01,9.99999e-01,9.99999e-01,1.74072e-01,9.99999e-01
7.205353270e-01,1.80188e-01,9.99999e-01,9.99999e-01,9.99999e-01,1.80188e-01,9.99999e-01
7.241380036e-01,1.86392e-01,9.99999e-01,9.99999e-01,9.99999e-01,1.86392e-01,9.99999e-01
7.277586936e-01,1.92681e-01,9.99999e-01,9.99999e-01,9.99999e-01,1.92681e-01,9.99999e-01
7.313974871e-01,1.99051e-01,9.99999e-01,9.99999e-01,9.99999e-01,1.99051e-01,9.99999e-01
7.350544745e-01,2.05500e-01,9.99999e-01,9.99999e-01,9.99999e-01,2.05500e-01,9.99999e-01
7.387297469e-01,2.12024e-01,9.99999e-01,9.99999e-01,9.99999e-01,2.12024e-01,9.99999e-01
7.424233956e-01,2.18621e-01,9.99999e-01,9.99999e-01,9.99999e-01,2.18621e-01,9.99999e-01
7.461355126e-01,2.25286e-01,9.99999e-01,9.99999e-01,9.99999e-01,2.25286e-01,9.99999e-01
7.498661902e-01,2.32016e-01,9.99999e-01,9.99999e-01,9.99999e-01,2.32016e-01,9.99999e-01
7.536155211e-01,2.38809e-01,9.99999e-01,9.99999e-01,9.99999e-01,2.38809e-01,9.99999e-01
7.573835987e-01,2.45661e-01,9.99999e-01,9.99999e-01,9.99999e-01,2.45661e-01,9.99999e-01
7.611705167e-01,2.52568e-01,9.99999e-01,9.99999e-01,9.99999e-01,2.52568e-01,9.99999e-01
7.649763693e-01,2.59527e-01,9.99999e-01,9.99999e-01,9.99999e-01,2.59527e-01,9.99999e-01
7.688012511e-01,2.66535e-01,9.99999e-01,9.99999e-01,9.99999e-01,2.66535e-01,9.99999e-01
7.726452574e-01,2.73588e-01,9.99999e-01,9.99999e-01,9.99999e-01,2.73588e-01,9.99999e-01
7.765084837e-01,2.80683e-01,9.99999e-01,9.99999e-01,9.99999e-01,2.80683e-01,9.99999e-01
7.803910261e-01,2.71904e-01,9.99999e-01,9.99999e-01,9.44712e-01,2.87816e-01,9.99999e-01
7.842929812e-01,2.29191e-01,9.99999e-01,9.99999e-01,7.76960e-01,2.94984e-01,9.99999e-01
7.882144461e-01,2.30618e-01,9.99999e-01,9.99999e-01,7.63169e-01,3.02184e-01,9.99999e-01
7.921555184e-01,2.63455e-01,9.99999e-01,9.99999e-01,8.51467e-01,3.09412e-01,9.99999e-01
7.961162960e-01,2.84404e-01,9.99999e-01,9.99999e-01,8.98120e-01,3.16666e-01,9.99999e-01
8.000968774e-01,3.05577e-01,9.99999e-01,9.99999e-01,9.43313e-01,3.23940e-01,9.99999e-01
8.040973618e-01,3.21396e-01,9.99999e-01,9.99999e-01,9.70298e-01,3.31234e-01,9.99999e-01
8.081178486e-01,3.33874e-01,9.99999e-01,9.99999e-01,9.86209e-01,3.38542e-01,9.99999e-01
8.121584379e-01,3.44395e-01,9.99999e-01,9.99999e-01,9.95753e-01,3.45863e-01,9.99999e-01
8.162192301e-01,3.52861e-01,9.99999e-01,9.99999e-01,9.99060e-01,3.53193e-01,9.99999e-01
8.203003262e-01,3.60524e-01,9.99999e-01,9.99999e-01,9.99986e-01,3.60529e-01,9.99999e-01
8.244018279e-01,3.67868e-01,9.99999e-01,9.99999e-01,9.99999e-01,3.67868e-01,9.99999e-01
8.285238370e-01,3.75206e-01,9.99999e-01,9.99999e-01,9.99999e-01,3.75206e-01,9.99999e-01
8.326664562e-01,3.82542e-01,9.99999e-01,9.99999e-01,9.99999e-01,3.82542e-01,9.99999e-01
8.368297885e-01,3.89872e-01,9.99999e-01,9.99999e-01,9.99999e-01,3.89872e-01,9.99999e-01
8.410139374e-01,3.97194e-01,9.99999e-01,9.99999e-01,9.99999e-01,3.97194e-01,9.99999e-01
8.452190071e-01,4.04505e-01,9.99999e-01,9.99999e-01,9.99999e-01,4.04505e-01,9.99999e-01
8.494451021e-01,4.11801e-01,9.99999e-01,9.99999e-01,9.99999e-01,4.11801e-01,9.99999e-01
8.536923276e-01,4.19082e-01,9.99999e-01,9.99999e-01,9.99999e-01,4.19082e-01,9.99999e-01
8.579607893e-01,4.26343e-01,9.99999e-01,9.99999e-01,9.99999e-01,4.26343e-01,9.99999e-01
8.622505932e-01,4.33583e-01,9.99999e-01,9.99999e-01,9.99999e-01,4.33583e-01,9.99999e-01
8.665618462e-01,3.95607e-01,9.99999e-01,9.99999e-01,8.97474e-01,4.40799e-01,9.99999e-01
8.708946554e-01,2.37461e-01,9.99999e-01,9.99999e-01,5.30059e-01,4.47990e-01,9.99999e-01
8.752491287e-01,2.71535e-01,9.99999e-01,9.99999e-01,5.96581e-01,4.55152e-01,9.99999e-01
8.796253743e-01,3.47096e-01,9.99999e-01,9.99999e-01,7.50827e-01,4.62284e-01,9.99999e-01
8.840235012e-01,4.04167e-01,9.99999e-01,9.99999e-01,8.61059e-01,4.69383e-01,9.99999e-01
8.884436187e-01,4.49208e-01,9.99999e-01,9.99999e-01,9.42826e-01,4.76448e-01,9.99999e-01
8.928858368e-01,4.72054e-01,9.99999e-01,9.99999e-01,9.76373e-01,4.83477e-01,9.99999e-01
8.973502660e-01,4.87640e-01,9.99999e-01,9.99999e-01,9.94235e-01,4.90467e-01,9.99999e-01
9.018370173e-01,4.97102e-01,9.99999e-01,9.99999e-01,9.99364e-01,4.97418e-01,9.99999e-01
9.063462024e-01,4.95995e-01,9.99999e-01,9.99999e-01,9.83478e-01,5.04326e-01,9.99999e-01
9.108779334e-01,4.92239e-01,9.99999e-01,9.99999e-01,9.62923e-01,5.11192e-01,9.99999e-01
9.154323231e-01,5.13475e-01,9.99999e-01,9.99999e-01,9.91241e-01,5.18012e-01,9.99999e-01
9.200094847e-01,4.63247e-01,9.99999e-01,9.99999e-01,8.82733e-01,5.24786e-01,9.99999e-01
9.246095321e-01,4.41875e-01,9.99999e-01,9.99999e-01,8.31354e-01,5.31513e-01,9.99999e-01
9.292325798e-01,4.65583e-01,9.99999e-01,9.99999e-01,8.65089e-01,5.38190e-01,9.99999e-01
9.338787427e-01,4.73805e-01,9.99999e-01,9.99999e-01,8.69659e-01,5.44816e-01,9.99999e-01
9.385481364e-01,4.97448e-01,9.99999e-01,9.99999e-01,9.02168e-01,5.51391e-01,9.99999e-01
9.432408771e-01,5.23842e-01,9.99999e-01,9.99999e-01,9.38930e-01,5.57913e-01,9.99999e-01
9.479570815e-01,5.46395e-01,9.99999e-01,9.99999e-01,9.68130e-01,5.64381e-01,9.99999e-01
9.526968669e-01,5.61968e-01,9.99999e-01,9.99999e-01,9.84536e-01,5.70794e-01,9.99999e-01
9.574603512e-01,5.73320e-01,9.99999e-01,9.99999e-01,9.93361e-01,5.77151e-01,9.99999e-01
9.622476530e-01,5.82242e-01,9.99999e-01,9.99999e-01,9.97926e-01,5.83452e-01,9.99999e-01
9.670588912e-01,5.89328e-01,9.99999e-01,9.99999e-01,9.99379e-01,5.89694e-01,9.99999e-01
9.718941857e-01,5.95853e-01,9.99999e-01,9.99999e-01,9.99956e-01,5.95878e-01,9.99999e-01
9.767536566e-01,6.02003e-01,9.99999e-01,9.99999e-01,9.99999e-01,6.02003e-01,9.99999e-01
9.816374249e-01,6.08068e-01,9.99999e-01,9.99999e-01,9.99999e-01,6.08068e-01,9.99999e-01
9.865456120e-01,6.14072e-01,9.99999e-01,9.99999e-01,9.99999e-01,6.14072e-01,9.99999e-01
9.914783401e-01,6.20016e-01,9.99999e-01,9.99999e-01,9.99999e-01,6.20016e-01,9.99999e-01
9.964357318e-01,6.25898e-01,9.99999e-01,9.99999e-01,9.99999e-01,6.25898e-01,9.99999e-01
1.001417910e+00,6.31717e-01,9.99999e-01,9.99999e-01,9.99999e-01,6.31717e-01,9.99999e-01
1.006425000e+00,6.37475e-01,9.99999e-01,9.99999e-01,9.99999e-01,6.37475e-01,9.99999e-01
1.011457125e+00,6.43169e-01,9.99999e-01,9.99999e-01,9.99999e-01,6.43169e-01,9.99999e-01
1.016514411e+00,6.48801e-01,9.99999e-01,9.99999e-01,9.99999e-01,6.48801e-01,9.99999e-01
1.021596983e+00,6.54305e-01,9.99999e-01,9.99999e-01,9.99902e-01,6.54369e-01,9.99999e-01
1.026704968e+00,6.55572e-01,9.99999e-01,9.99999e-01,9.93480e-01,6.59873e-01,9.99999e-01
1.031838492e+00,6.20974e-01,9.99999e-01,9.99999e-01,9.33354e-01,6.65314e-01,9.99999e-01
1.036997685e+00,6.15791e-02,9.99999e-01,9.99999e-01,9.18144e-02,6.70691e-01,9.99999e-01
1.042182673e+00,2.19879e-02,9.99999e-01,9.99999e-01,3.25263e-02,6.76004e-01,9.99999e-01
1.047393587e+00,3.57513e-02,9.99999e-01,9.99999e-01,5.24788e-02,6.81252e-01,9.99999e-01
1.052630555e+00,1.34240e-04,9.99999e-01,9.99999e-01,1.95561e-04,6.86437e-01,9.99999e-01
1.057893707e+00,4.48792e-04,9.99999e-01,9.99999e-01,6.48958e-04,6.91557e-01,9.99999e-01
1.063183176e+00,2.94134e-03,9.99999e-01,9.99999e-01,4.22233e-03,6.96613e-01,9.99999e-01
1.068499092e+00,1.35646e-02,9.99999e-01,9.99999e-01,1.93337e-02,7.01606e-01,9.99999e-01
1.073841587e+00,5.77163e-02,9.99999e-01,9.99999e-01,8.16893e-02,7.06534e-01,9.99999e-01
1.079210795e+00,1.45829e-01,9.99999e-01,9.99999e-01,2.04989e-01,7.11399e-01,9.99999e-01
1.084606849e+00,2.96636e-01,9.99999e-01,9.99999e-01,4.14180e-01,7.16200e-01,9.99999e-01
1.090029883e+00,4.55307e-01,9.99999e-01,9.99999e-01,6.31548e-01,7.20938e-01,9.99999e-01
1.095480033e+00,5.78538e-01,9.99999e-01,9.99999e-01,7.97310e-01,7.25612e-01,9.99999e-01
1.100957433e+00,6.54576e-01,9.99999e-01,9.99999e-01,8.96404e-01,7.30224e-01,9.99999e-01
1.106462220e+00,7.02303e-01,9.99999e-01,9.99999e-01,9.55810e-01,7.34773e-01,9.99999e-01
1.111994531e+00,7.26974e-01,9.99999e-01,9.99999e-01,9.83380e-01,7.39259e-01,9.99999e-01
1.117554504e+00,7.40660e-01,9.99999e-01,9.99999e-01,9.95933e-01,7.43684e-01,9.99999e-01
1.123142276e+00,7.47848e-01,9.99999e-01,9.99999e-01,9.99733e-01,7.48047e-01,9.99999e-01
1.128757988e+00,7.52348e-01,9.99999e-01,9.99999e-01,9.99999e-01,7.52348e-01,9.99999e-01
1.134401778e+00,7.56589e-01,9.99999e-01,9.99999e-01,9.99999e-01,7.56589e-01,9.99999e-01
1.140073787e+00,7.60769e-01,9.99999e-01,9.99999e-01,9.99999e-01,7.60769e-01,9.99999e-01
1.145774156e+00,7.64889e-01,9.99999e-01,9.99999e-01,9.99999e-01,7.64889e-01,9.99999e-01
1.151503026e+00,7.68949e-01,9.99999e-01,9.99999e-01,9.99999e-01,7.68949e-01,9.99999e-01
1.157260541e+00,7.72950e-01,9.99999e-01,9.99999e-01,9.99999e-01,7.72950e-01,9.99999e-01
1.163046844e+00,7.76892e-01,9.99999e-01,9.99999e-01,9.99999e-01,7.76892e-01,9.99999e-01
1.168862078e+00,7.80776e-01,9.99999e-01,9.99999e-01,9.99999e-01,7.80776e-01,9.99999e-01
1.174706389e+00,7.84602e-01,9.99999e-01,9.99999e-01,9.99999e-01,7.84602e-01,9.99999e-01
1.180579921e+00,7.88370e-01,9.99999e-01,9.99999e-01,9.99999e-01,7.88370e-01,9.99999e-01
1.186482820e+00,7.92070e-01,9.99999e-01,9.99999e-01,9.99985e-01,7.92082e-01,9.99999e-01
1.192415234e+00,7.77521e-01,9.99999e-01,9.99999e-01,9.77108e-01,7.95737e-01,9.99999e-01
1.198377311e+00,4.35126e-01,9.99999e-01,9.99999e-01,5.44359e-01,7.99336e-01,9.99999e-01
1.204369197e+00,1.24705e-17,9.99999e-01,9.99999e-01,1.55322e-17,8.02880e-01,9.99999e-01
1.210391043e+00,2.50421e-68,9.99999e-01,9.99999e-01,3.10553e-68,8.06370e-01,9.99999e-01
1.216442998e+00,2.91228e-59,9.99999e-01,9.99999e-01,3.59627e-59,8.09805e-01,9.99999e-01
1.222525213e+00,2.18151e-58,9.99999e-01,9.99999e-01,2.68267e-58,8.13186e-01,9.99999e-01
1.228637839e+00,3.49854e-45,9.99999e-01,9.99999e-01,4.28472e-45,8.16515e-01,9.99999e-01
