#,Wave/freq,Total,N2,O2,CO2,Rayleigh,CIA
4.000000000e-01,3.37927e-04,9.99999e-01,9.99999e-01,9.99999e-01,3.37927e-04,9.99999e-01
4.020000000e-01,3.95784e-04,9.99999e-01,9.99999e-01,9.99999e-01,3.95784e-04,9.99999e-01
4.040100000e-01,4.62027e-04,9.99999e-01,9.99999e-01,9.99999e-01,4.62027e-04,9.99999e-01
4.060300500e-01,5.37710e-04,9.99999e-01,9.99999e-01,9.99999e-01,5.37710e-04,9.99999e-01
4.080602003e-01,6.23919e-04,9.99999e-01,9.99999e-01,9.99999e-01,6.23919e-04,9.99999e-01
4.101005013e-01,7.21826e-04,9.99999e-01,9.99999e-01,9.99999e-01,7.21826e-04,9.99999e-01
4.121510038e-01,8.32695e-04,9.99999e-01,9.99999e-01,9.99999e-01,8.32695e-04,9.99999e-01
4.142117588e-01,9.57887e-04,9.99999e-01,9.99999e-01,9.99999e-01,9.57887e-04,9.99999e-01
4.162828176e-01,1.09886e-03,9.99999e-01,9.99999e-01,9.99999e-01,1.09886e-03,9.99999e-01
4.183642317e-01,1.25716e-03,9.99999e-01,9.99999e-01,9.99999e-01,1.25716e-03,9.99999e-01
4.204560528e-01,1.43444e-03,9.99999e-01,9.99999e-01,9.99999e-01,1.43444e-03,9.99999e-01
4.225583331e-01,1.63247e-03,9.99999e-01,9.99999e-01,9.99999e-01,1.63247e-03,9.99999e-01
4.246711247e-01,1.85310e-03,9.99999e-01,9.99999e-01,9.99999e-01,1.85310e-03,9.99999e-01
4.267944804e-01,2.09829e-03,9.99999e-01,9.99999e-01,9.99999e-01,2.09829e-03,9.99999e-01
4.289284528e-01,2.37009e-03,9.99999e-01,9.99999e-01,9.99999e-01,2.37009e-03,9.99999e-01
4.310730950e-01,2.67067e-03,9.99999e-01,9.99999e-01,9.99999e-01,2.67067e-03,9.99999e-01
4.332284605e-01,3.00227e-03,9.99999e-01,9.99999e-01,9.99999e-01,3.00227e-03,9.99999e-01
4.353946028e-01,3.36726e-03,9.99999e-01,9.99999e-01,9.99999e-01,3.36726e-03,9.99999e-01
4.375715758e-01,3.76807e-03,9.99999e-01,9.99999e-01,9.99999e-01,3.76807e-03,9.99999e-01
4.397594337e-01,4.20724e-03,9.99999e-01,9.99999e-01,9.99999e-01,4.20724e-03,9.99999e-01
4.419582309e-01,4.68737e-03,9.99999e-01,9.99999e-01,9.99999e-01,4.68737e-03,9.99999e-01
4.441680220e-01,5.21115e-03,9.99999e-01,9.99999e-01,9.99999e-01,5.21115e-03,9.99999e-01
4.463888621e-01,5.78136e-03,9.99999e-01,9.99999e-01,9.99999e-01,5.78136e-03,9.99999e-01
4.486208064e-01,6.40082e-03,9.99999e-01,9.99999e-01,9.99999e-01,6.40082e-03,9.99999e-01
4.508639105e-01,7.07242e-03,9.99999e-01,9.99999e-01,9.99999e-01,7.07242e-03,9.99999e-01
4.531182300e-01,7.79909e-03,9.99999e-01,9.99999e-01,9.99999e-01,7.79909e-03,9.99999e-01
4.553838212e-01,8.58384e-03,9.99999e-01,9.99999e-01,9.99999e-01,8.58384e-03,9.99999e-01
4.576607403e-01,9.42967e-03,9.99999e-01,9.99999e-01,9.99999e-01,9.42967e-03,9.99999e-01
4.599490440e-01,1.03396e-02,9.99999e-01,9.99999e-01,9.99999e-01,1.03396e-02,9.99999e-01
4.622487892e-01,1.13168e-02,9.99999e-01,9.99999e-01,9.99999e-01,1.13168e-02,9.99999e-01
4.645600332e-01,1.23642e-02,9.99999e-01,9.99999e-01,9.99999e-01,1.23642e-02,9.99999e-01
4.668828333e-01,1.34850e-02,9.99999e-01,9.99999e-01,9.99999e-01,1.34850e-02,9.99999e-01
4.692172475e-01,1.46822e-02,9.99999e-01,9.99999e-01,9.99999e-01,1.46822e-02,9.99999e-01
4.715633337e-01,1.59589e-02,9.99999e-01,9.99999e-01,9.99999e-01,1.59589e-02,9.99999e-01
4.739211504e-01,1.73180e-02,9.99999e-01,9.99999e-01,9.99999e-01,1.73180e-02,9.99999e-01
4.762907561e-01,1.87625e-02,9.99999e-01,9.99999e-01,9.99999e-01,1.87625e-02,9.99999e-01
4.786722099e-01,2.02954e-02,9.99999e-01,9.99999e-01,9.99999e-01,2.02954e-02,9.99999e-01
4.810655710e-01,2.19195e-02,9.99999e-01,9.99999e-01,9.99999e-01,2.19195e-02,9.99999e-01
4.834708988e-01,2.36376e-02,9.99999e-01,9.99999e-01,9.99999e-01,2.36376e-02,9.99999e-01
4.858882533e-01,2.54524e-02,9.99999e-01,9.99999e-01,9.99999e-01,2.54524e-02,9.99999e-01
4.883176946e-01,2.73666e-02,9.99999e-01,9.99999e-01,9.99999e-01,2.73666e-02,9.99999e-01
4.907592831e-01,2.93825e-02,9.99999e-01,9.99999e-01,9.99999e-01,2.93825e-02,9.99999e-01
4.932130795e-01,3.15027e-02,9.99999e-01,9.99999e-01,9.99999e-01,3.15027e-02,9.99999e-01
4.956791449e-01,3.37294e-02,9.99999e-01,9.99999e-01,9.99999e-01,3.37294e-02,9.99999e-01
4.981575406e-01,3.60649e-02,9.99999e-01,9.99999e-01,9.99999e-01,3.60649e-02,9.99999e-01
5.006483283e-01,3.85111e-02,9.99999e-01,9.99999e-01,9.99999e-01,3.85111e-02,9.99999e-01
5.031515699e-01,4.10699e-02,9.99999e-01,9.99999e-01,9.99999e-01,4.10699e-02,9.99999e-01
5.056673278e-01,4.37432e-02,9.99999e-01,9.99999e-01,9.99999e-01,4.37432e-02,9.99999e-01
5.081956644e-01,4.65324e-02,9.99999e-01,9.99999e-01,9.99999e-01,4.65324e-02,9.99999e-01
5.107366428e-01,4.94391e-02,9.99999e-01,9.99999e-01,9.99999e-01,4.94391e-02,9.99999e-01
5.132903260e-01,5.24646e-02,9.99999e-01,9.99999e-01,9.99999e-01,5.24646e-02,9.99999e-01
5.158567776e-01,5.56099e-02,9.99999e-01,9.99999e-01,9.99999e-01,5.56099e-02,9.99999e-01
5.184360615e-01,5.88760e-02,9.99999e-01,9.99999e-01,9.99999e-01,5.88760e-02,9.99999e-01
5.210282418e-01,6.22637e-02,9.99999e-01,9.99999e-01,9.99999e-01,6.22637e-02,9.99999e-01
5.236333830e-01,6.57736e-02,9.99999e-01,9.99999e-01,9.99999e-01,6.57736e-02,9.99999e-01
5.262515499e-01,6.94062e-02,9.99999e-01,9.99999e-01,9.99999e-01,6.94062e-02,9.99999e-01
5.288828077e-01,7.31617e-02,9.99999e-01,9.99999e-01,9.99999e-01,7.31617e-02,9.99999e-01
5.315272217e-01,7.70401e-02,9.99999e-01,9.99999e-01,9.99999e-01,7.70401e-02,9.99999e-01
5.341848578e-01,8.10414e-02,9.99999e-01,9.99999e-01,9.99999e-01,8.10414e-02,9.99999e-01
5.368557821e-01,8.51653e-02,9.99999e-01,9.99999e-01,9.99999e-01,8.51653e-02,9.99999e-01
5.395400610e-01,8.94113e-02,9.99999e-01,9.99999e-01,9.99999e-01,8.94113e-02,9.99999e-01
5.422377613e-01,9.37789e-02,9.99999e-01,9.99999e-01,9.99999e-01,9.37789e-02,9.99999e-01
5.449489501e-01,9.82672e-02,9.99999e-01,9.99999e-01,9.99999e-01,9.82672e-02,9.99999e-01
5.476736949e-01,1.02875e-01,9.99999e-01,9.99999e-01,9.99999e-01,1.02875e-01,9.99999e-01
5.504120634e-01,1.07602e-01,9.99999e-01,9.99999e-01,9.99999e-01,1.07602e-01,9.99999e-01
5.531641237e-01,1.12446e-01,9.99999e-01,9.99999e-01,9.99999e-01,1.12446e-01,9.99999e-01
5.559299443e-01,1.17406e-01,9.99999e-01,9.99999e-01,9.99999e-01,1.17406e-01,9.99999e-01
5.587095940e-01,1.22480e-01,9.99999e-01,9.99999e-01,9.99999e-01,1.22480e-01,9.99999e-01
5.615031420e-01,1.27667e-01,9.99999e-01,9.99999e-01,9.99999e-01,1.27667e-01,9.99999e-01
5.643106577e-01,1.32965e-01,9.99999e-01,9.99999e-01,9.99999e-01,1.32965e-01,9.99999e-01
5.671322110e-01,1.38371e-01,9.99999e-01,9.99999e-01,9.99999e-01,1.38371e-01,9.99999e-01
5.699678720e-01,1.43884e-01,9.99999e-01,9.99999e-01,9.99999e-01,1.43884e-01,9.99999e-01
5.728177114e-01,1.49500e-01,9.99999e-01,9.99999e-01,9.99999e-01,1.49500e-01,9.99999e-01
5.756818000e-01,1.55219e-01,9.99999e-01,9.99999e-01,9.99999e-01,1.55219e-01,9.99999e-01
5.785602090e-01,1.61037e-01,9.99999e-01,9.99999e-01,9.99999e-01,1.61037e-01,9.99999e-01
5.814530100e-01,1.66952e-01,9.99999e-01,9.99999e-01,9.99999e-01,1.66952e-01,9.99999e-01
5.843602750e-01,1.72961e-01,9.99999e-01,9.99999e-01,9.99999e-01,1.72961e-01,9.99999e-01
5.872820764e-01,1.79060e-01,9.99999e-01,9.99999e-01,9.99999e-01,1.79060e-01,9.99999e-01
5.902184868e-01,1.85249e-01,9.99999e-01,9.99999e-01,9.99999e-01,1.85249e-01,9.99999e-01
5.931695792e-01,1.91522e-01,9.99999e-01,9.99999e-01,9.99999e-01,1.91522e-01,9.99999e-01
5.961354271e-01,1.97877e-01,9.99999e-01,9.99999e-01,9.99999e-01,1.97877e-01,9.99999e-01
5.991161043e-01,2.04312e-01,9.99999e-01,9.99999e-01,9.99999e-01,2.04312e-01,9.99999e-01
6.021116848e-01,2.10823e-01,9.99999e-01,9.99999e-01,9.99999e-01,2.10823e-01,9.99999e-01
6.051222432e-01,2.17406e-01,9.99999e-01,9.99999e-01,9.99999e-01,2.17406e-01,9.99999e-01
6.081478544e-01,2.24059e-01,9.99999e-01,9.99999e-01,9.99999e-01,2.24059e-01,9.99999e-01
6.111885937e-01,2.30778e-01,9.99999e-01,9.99999e-01,9.99999e-01,2.30778e-01,9.99999e-01
6.142445367e-01,2.37560e-01,9.99999e-01,9.99999e-01,9.99999e-01,2.37560e-01,9.99999e-01
6.173157594e-01,2.44401e-01,9.99999e-01,9.99999e-01,9.99999e-01,2.44401e-01,9.99999e-01
6.204023382e-01,2.51298e-01,9.99999e-01,9.99999e-01,9.99999e-01,2.51298e-01,9.99999e-01
6.235043498e-01,2.58248e-01,9.99999e-01,9.99999e-01,9.99999e-01,2.58248e-01,9.99999e-01
6.266218716e-01,2.65247e-01,9.99999e-01,9.99999e-01,9.99999e-01,2.65247e-01,9.99999e-01
6.297549810e-01,2.72292e-01,9.99999e-01,9.99999e-01,9.99999e-01,2.72292e-01,9.99999e-01
6.329037559e-01,2.79380e-01,9.99999e-01,9.99999e-01,9.99999e-01,2.79380e-01,9.99999e-01
6.360682746e-01,2.86506e-01,9.99999e-01,9.99999e-01,9.99999e-01,2.86506e-01,9.99999e-01
6.392486160e-01,2.93668e-01,9.99999e-01,9.99999e-01,9.99999e-01,2.93668e-01,9.99999e-01
6.424448591e-01,3.00862e-01,9.99999e-01,9.99999e-01,9.99999e-01,3.00862e-01,9.99999e-01
6.456570834e-01,3.08085e-01,9.99999e-01,9.99999e-01,9.99999e-01,3.08085e-01,9.99999e-01
6.488853688e-01,3.15334e-01,9.99999e-01,9.99999e-01,9.99999e-01,3.15334e-01,9.99999e-01
6.521297956e-01,3.22605e-01,9.99999e-01,9.99999e-01,9.99999e-01,3.22605e-01,9.99999e-01
6.553904446e-01,3.29896e-01,9.99999e-01,9.99999e-01,9.99999e-01,3.29896e-01,9.99999e-01
6.586673968e-01,3.37202e-01,9.99999e-01,9.99999e-01,9.99999e-01,3.37202e-01,9.99999e-01
6.619607338e-01,3.44521e-01,9.99999e-01,9.99999e-01,9.99999e-01,3.44521e-01,9.99999e-01
6.652705375e-01,3.51849e-01,9.99999e-01,9.99999e-01,9.99999e-01,3.51849e-01,9.99999e-01
6.685968902e-01,3.59184e-01,9.99999e-01,9.99999e-01,9.99999e-01,3.59184e-01,9.99999e-01
6.719398746e-01,3.66522e-01,9.99999e-01,9.99999e-01,9.99999e-01,3.66522e-01,9.99999e-01
6.752995740e-01,3.73861e-01,9.99999e-01,9.99999e-01,9.99999e-01,3.73861e-01,9.99999e-01
6.786760719e-01,3.81198e-01,9.99999e-01,9.99999e-01,9.99999e-01,3.81198e-01,9.99999e-01
6.820694522e-01,3.88529e-01,9.99999e-01,9.99999e-01,9.99999e-01,3.88529e-01,9.99999e-01
6.854797995e-01,3.95853e-01,9.99999e-01,9.99999e-01,9.99999e-01,3.95853e-01,9.99999e-01
6.889071985e-01,4.03166e-01,9.99999e-01,9.99999e-01,9.99999e-01,4.03166e-01,9.99999e-01
6.923517345e-01,4.10465e-01,9.99999e-01,9.99999e-01,9.99999e-01,4.10465e-01,9.99999e-01
6.958134932e-01,4.17749e-01,9.99999e-01,9.99999e-01,9.99999e-01,4.17749e-01,9.99999e-01
6.992925606e-01,4.25014e-01,9.99999e-01,9.99999e-01,9.99999e-01,4.25014e-01,9.99999e-01
7.027890234e-01,4.32258e-01,9.99999e-01,9.99999e-01,9.99999e-01,4.32258e-01,9.99999e-01
7.063029686e-01,4.39479e-01,9.99999e-01,9.99999e-01,9.99999e-01,4.39479e-01,9.99999e-01
7.098344834e-01,4.46674e-01,9.99999e-01,9.99999e-01,9.99999e-01,4.46674e-01,9.99999e-01
7.133836558e-01,4.53841e-01,9.99999e-01,9.99999e-01,9.99999e-01,4.53841e-01,9.99999e-01
7.169505741e-01,4.60979e-01,9.99999e-01,9.99999e-01,9.99999e-01,4.60979e-01,9.99999e-01
7.205353270e-01,4.68084e-01,9.99999e-01,9.99999e-01,9.99999e-01,4.68084e-01,9.99999e-01
7.241380036e-01,4.75156e-01,9.99999e-01,9.99999e-01,9.99999e-01,4.75156e-01,9.99999e-01
7.277586936e-01,4.82191e-01,9.99999e-01,9.99999e-01,9.99999e-01,4.82191e-01,9.99999e-01
7.313974871e-01,4.89189e-01,9.99999e-01,9.99999e-01,9.99999e-01,4.89189e-01,9.99999e-01
7.350544745e-01,4.96147e-01,9.99999e-01,9.99999e-01,9.99999e-01,4.96147e-01,9.99999e-01
7.387297469e-01,5.03063e-01,9.99999e-01,9.99999e-01,9.99999e-01,5.03063e-01,9.99999e-01
7.424233956e-01,5.09937e-01,9.99999e-01,9.99999e-01,9.99999e-01,5.09937e-01,9.99999e-01
7.461355126e-01,5.16766e-01,9.99999e-01,9.99999e-01,9.99999e-01,5.16766e-01,9.99999e-01
7.498661902e-01,5.23548e-01,9.99999e-01,9.99999e-01,9.99999e-01,5.23548e-01,9.99999e-01
7.536155211e-01,5.30283e-01,9.99999e-01,9.99999e-01,9.99999e-01,5.30283e-01,9.99999e-01
7.573835987e-01,5.36970e-01,9.99999e-01,9.99999e-01,9.99999e-01,5.36970e-01,9.99999e-01
7.611705167e-01,5.43606e-01,9.99999e-01,9.99999e-01,9.99999e-01,5.43606e-01,9.99999e-01
7.649763693e-01,5.50190e-01,9.99999e-01,9.99999e-01,9.99999e-01,5.50190e-01,9.99999e-01
7.688012511e-01,5.56722e-01,9.99999e-01,9.99999e-01,9.99999e-01,5.56722e-01,9.99999e-01
7.726452574e-01,5.63200e-01,9.99999e-01,9.99999e-01,9.99999e-01,5.63200e-01,9.99999e-01
7.765084837e-01,5.69623e-01,9.99999e-01,9.99999e-01,9.99999e-01,5.69623e-01,9.99999e-01
7.803910261e-01,5.61173e-01,9.99999e-01,9.99999e-01,9.74273e-01,5.75990e-01,9.99999e-01
7.842929812e-01,5.18642e-01,9.99999e-01,9.99999e-01,8.90676e-01,5.82301e-01,9.99999e-01
7.882144461e-01,5.20019e-01,9.99999e-01,9.99999e-01,8.83553e-01,5.88554e-01,9.99999e-01
7.921555184e-01,5.53626e-01,9.99999e-01,9.99999e-01,9.30855e-01,5.94749e-01,9.99999e-01
7.961162960e-01,5.72686e-01,9.99999e-01,9.99999e-01,9.53070e-01,6.00885e-01,9.99999e-01
8.000968774e-01,5.91371e-01,9.99999e-01,9.99999e-01,9.74313e-01,6.06961e-01,9.99999e-01
8.040973618e-01,6.04757e-01,9.99999e-01,9.99999e-01,9.86590e-01,6.12976e-01,9.99999e-01
8.081178486e-01,6.15116e-01,9.99999e-01,9.99999e-01,9.93836e-01,6.18931e-01,9.99999e-01
8.121584379e-01,6.23628e-01,9.99999e-01,9.99999e-01,9.98085e-01,6.24824e-01,9.99999e-01
8.162192301e-01,6.30389e-01,9.99999e-01,9.99999e-01,9.99576e-01,6.30655e-01,9.99999e-01
8.203003262e-01,6.36420e-01,9.99999e-01,9.99999e-01,9.99992e-01,6.36424e-01,9.99999e-01
8.244018279e-01,6.42130e-01,9.99999e-01,9.99999e-01,9.99999e-01,6.42130e-01,9.99999e-01
8.285238370e-01,6.47773e-01,9.99999e-01,9.99999e-01,9.99999e-01,6.47773e-01,9.99999e-01
8.326664562e-01,6.53353e-01,9.99999e-01,9.99999e-01,9.99999e-01,6.53353e-01,9.99999e-01
8.368297885e-01,6.58869e-01,9.99999e-01,9.99999e-01,9.99999e-01,6.58869e-01,9.99999e-01
8.410139374e-01,6.64322e-01,9.99999e-01,9.99999e-01,9.99999e-01,6.64322e-01,9.99999e-01
8.452190071e-01,6.69710e-01,9.99999e-01,9.99999e-01,9.99999e-01,6.69710e-01,9.99999e-01
8.494451021e-01,6.75035e-01,9.99999e-01,9.99999e-01,9.99999e-01,6.75035e-01,9.99999e-01
8.536923276e-01,6.80295e-01,9.99999e-01,9.99999e-01,9.99999e-01,6.80295e-01,9.99999e-01
8.579607893e-01,6.85491e-01,9.99999e-01,9.99999e-01,9.99999e-01,6.85491e-01,9.99999e-01
8.622505932e-01,6.90623e-01,9.99999e-01,9.99999e-01,9.99999e-01,6.90623e-01,9.99999e-01
8.665618462e-01,6.52793e-01,9.99999e-01,9.99999e-01,9.38337e-01,6.95691e-01,9.99999e-01
8.708946554e-01,5.21510e-01,9.99999e-01,9.99999e-01,7.44274e-01,7.00695e-01,9.99999e-01
8.752491287e-01,5.56739e-01,9.99999e-01,9.99999e-01,7.88988e-01,7.05635e-01,9.99999e-01
8.796253743e-01,6.24129e-01,9.99999e-01,9.99999e-01,8.78421e-01,7.10512e-01,9.99999e-01
8.840235012e-01,6.68946e-01,9.99999e-01,9.99999e-01,9.35164e-01,7.15325e-01,9.99999e-01
8.884436187e-01,7.01287e-01,9.99999e-01,9.99999e-01,9.73909e-01,7.20074e-01,9.99999e-01
8.928858368e-01,7.17054e-01,9.99999e-01,9.99999e-01,9.89367e-01,7.24760e-01,9.99999e-01
8.973502660e-01,7.27487e-01,9.99999e-01,9.99999e-01,9.97400e-01,7.29383e-01,9.99999e-01
9.018370173e-01,7.33733e-01,9.99999e-01,9.99999e-01,9.99712e-01,7.33944e-01,9.99999e-01
9.063462024e-01,7.33088e-01,9.99999e-01,9.99999e-01,9.92749e-01,7.38442e-01,9.99999e-01
9.108779334e-01,7.30457e-01,9.99999e-01,9.99999e-01,9.83280e-01,7.42878e-01,9.99999e-01
9.154323231e-01,7.44289e-01,9.99999e-01,9.99999e-01,9.96035e-01,7.47252e-01,9.99999e-01
9.200094847e-01,7.09189e-01,9.99999e-01,9.99999e-01,9.43615e-01,7.51564e-01,9.99999e-01
9.246095321e-01,6.95923e-01,9.99999e-01,9.99999e-01,9.20756e-01,7.55816e-01,9.99999e-01
9.292325798e-01,7.12512e-01,9.99999e-01,9.99999e-01,9.37506e-01,7.60007e-01,9.99999e-01
9.338787427e-01,7.17783e-01,9.99999e-01,9.99999e-01,9.39336e-01,7.64138e-01,9.99999e-01
9.385481364e-01,7.33729e-01,9.99999e-01,9.99999e-01,9.55116e-01,7.68209e-01,9.99999e-01
9.432408771e-01,7.50802e-01,9.99999e-01,9.99999e-01,9.72262e-01,7.72221e-01,9.99999e-01
9.479570815e-01,7.65070e-01,9.99999e-01,9.99999e-01,9.85693e-01,7.76174e-01,9.99999e-01
9.526968669e-01,7.74663e-01,9.99999e-01,9.99999e-01,9.93070e-01,7.80068e-01,9.99999e-01
9.574603512e-01,7.81578e-01,9.99999e-01,9.99999e-01,9.97031e-01,7.83905e-01,9.99999e-01
9.622476530e-01,7.86953e-01,9.99999e-01,9.99999e-01,9.99072e-01,7.87684e-01,9.99999e-01
9.670588912e-01,7.91186e-01,9.99999e-01,9.99999e-01,9.99721e-01,7.91405e-01,9.99999e-01
9.718941857e-01,7.95055e-01,9.99999e-01,9.99999e-01,9.99979e-01,7.95071e-01,9.99999e-01
9.767536566e-01,7.98681e-01,9.99999e-01,9.99999e-01,9.99999e-01,7.98681e-01,9.99999e-01
9.816374249e-01,8.02235e-01,9.99999e-01,9.99999e-01,9.99999e-01,8.02235e-01,9.99999e-01
9.865456120e-01,8.05734e-01,9.99999e-01,9.99999e-01,9.99999e-01,8.05734e-01,9.99999e-01
9.914783401e-01,8.09179e-01,9.99999e-01,9.99999e-01,9.99999e-01,8.09179e-01,9.99999e-01
9.964357318e-01,8.12571e-01,9.99999e-01,9.99999e-01,9.99999e-01,8.12571e-01,9.99999e-01
1.001417910e+00,8.15909e-01,9.99999e-01,9.99999e-01,9.99999e-01,8.15909e-01,9.99999e-01
1.006425000e+00,8.19194e-01,9.99999e-01,9.99999e-01,9.99999e-01,8.19194e-01,9.99999e-01
1.011457125e+00,8.22427e-01,9.99999e-01,9.99999e-01,9.99999e-01,8.22427e-01,9.99999e-01
1.016514411e+00,8.25609e-01,9.99999e-01,9.99999e-01,9.99999e-01,8.25609e-01,9.99999e-01
1.021596983e+00,8.28710e-01,9.99999e-01,9.99999e-01,9.99962e-01,8.28740e-01,9.99999e-01
1.026704968e+00,8.29474e-01,9.99999e-01,9.99999e-01,9.97178e-01,8.31821e-01,9.99999e-01
1.031838492e+00,8.05415e-01,9.99999e-01,9.99999e-01,9.64738e-01,8.34852e-01,9.99999e-01
1.036997685e+00,1.65017e-01,9.99999e-01,9.99999e-01,1.96957e-01,8.37834e-01,9.99999e-01
1.042182673e+00,1.62240e-01,9.99999e-01,9.99999e-01,1.92966e-01,8.40767e-01,9.99999e-01
1.047393587e+00,1.72361e-01,9.99999e-01,9.99999e-01,2.04303e-01,8.43653e-01,9.99999e-01
1.052630555e+00,1.02098e-02,9.99999e-01,9.99999e-01,1.20613e-02,8.46490e-01,9.99999e-01
1.057893707e+00,2.27841e-02,9.99999e-01,9.99999e-01,2.68275e-02,8.49282e-01,9.99999e-01
1.063183176e+00,6.02480e-02,9.99999e-01,9.99999e-01,7.07113e-02,8.52026e-01,9.99999e-01
1.068499092e+00,1.40009e-01,9.99999e-01,9.99999e-01,1.63805e-01,8.54726e-01,9.99999e-01
1.073841587e+00,2.73252e-01,9.99999e-01,9.99999e-01,3.18706e-01,8.57380e-01,9.99999e-01
1.079210795e+00,4.17335e-01,9.99999e-01,9.99999e-01,4.85278e-01,8.59990e-01,9.99999e-01
1.084606849e+00,5.80081e-01,9.99999e-01,9.99999e-01,6.72513e-01,8.62556e-01,9.99999e-01
1.090029883e+00,7.04319e-01,9.99999e-01,9.99999e-01,8.14167e-01,8.65079e-01,9.99999e-01
1.095480033e+00,7.83967e-01,9.99999e-01,9.99999e-01,9.03647e-01,8.67559e-01,9.99999e-01
1.100957433e+00,8.28588e-01,9.99999e-01,9.99999e-01,9.52402e-01,8.69997e-01,9.99999e-01
1.106462220e+00,8.54972e-01,9.99999e-01,9.99999e-01,9.80029e-01,8.72393e-01,9.99999e-01
1.111994531e+00,8.68235e-01,9.99999e-01,9.99999e-01,9.92552e-01,8.74749e-01,9.99999e-01
1.117554504e+00,8.75462e-01,9.99999e-01,9.99999e-01,9.98173e-01,8.77064e-01,9.99999e-01
1.123142276e+00,8.79234e-01,9.99999e-01,9.99999e-01,9.99879e-01,8.79340e-01,9.99999e-01
1.128757988e+00,8.81576e-01,9.99999e-01,9.99999e-01,9.99999e-01,8.81576e-01,9.99999e-01
1.134401778e+00,8.83773e-01,9.99999e-01,9.99999e-01,9.99999e-01,8.83773e-01,9.99999e-01
1.140073787e+00,8.85933e-01,9.99999e-01,9.99999e-01,9.99999e-01,8.85933e-01,9.99999e-01
1.145774156e+00,8.88055e-01,9.99999e-01,9.99999e-01,9.99999e-01,8.88055e-01,9.99999e-01
1.151503026e+00,8.90140e-01,9.99999e-01,9.99999e-01,9.99999e-01,8.90140e-01,9.99999e-01
1.157260541e+00,8.92188e-01,9.99999e-01,9.99999e-01,9.99999e-01,8.92188e-01,9.99999e-01
1.163046844e+00,8.94201e-01,9.99999e-01,9.99999e-01,9.99999e-01,8.94201e-01,9.99999e-01
1.168862078e+00,8.96178e-01,9.99999e-01,9.99999e-01,9.99999e-01,8.96178e-01,9.99999e-01
1.174706389e+00,8.98121e-01,9.99999e-01,9.99999e-01,9.99999e-01,8.98121e-01,9.99999e-01
1.180579921e+00,9.00029e-01,9.99999e-01,9.99999e-01,9.99999e-01,9.00029e-01,9.99999e-01
1.186482820e+00,9.01899e-01,9.99999e-01,9.99999e-01,9.99995e-01,9.01903e-01,9.99999e-01
1.192415234e+00,8.94656e-01,9.99999e-01,9.99999e-01,9.89943e-01,9.03744e-01,9.99999e-01
1.198377311e+00,5.15734e-01,9.99999e-01,9.99999e-01,5.69524e-01,9.05553e-01,9.99999e-01
1.204369197e+00,4.62809e-09,9.99999e-01,9.99999e-01,5.10078e-09,9.07329e-01,9.99999e-01
1.210391043e+00,1.63586e-31,9.99999e-01,9.99999e-01,1.79948e-31,9.09074e-01,9.99999e-01
1.216442998e+00,1.69285e-27,9.99999e-01,9.99999e-01,1.85866e-27,9.10787e-01,9.99999e-01
1.222525213e+00,4.14839e-27,9.99999e-01,9.99999e-01,4.54633e-27,9.12470e-01,9.99999e-01
1.228637839e+00,5.71444e-21,9.99999e-01,9.99999e-01,6.25128e-21,9.14122e-01,9.99999e-01
