#,Wave/freq,Total,N2,O2,CO2,Rayleigh,CIA
4.000000000e-01,1.08050e-09,9.99999e-01,9.99999e-01,9.99999e-01,1.08050e-09,9.99999e-01
4.020000000e-01,1.62525e-09,9.99999e-01,9.99999e-01,9.99999e-01,1.62525e-09,9.99999e-01
4.040100000e-01,2.42396e-09,9.99999e-01,9.99999e-01,9.99999e-01,2.42396e-09,9.99999e-01
4.060300500e-01,3.58677e-09,9.99999e-01,9.99999e-01,9.99999e-01,3.58677e-09,9.99999e-01
4.080602003e-01,5.26646e-09,9.99999e-01,9.99999e-01,9.99999e-01,5.26646e-09,9.99999e-01
4.101005013e-01,7.67431e-09,9.99999e-01,9.99999e-01,9.99999e-01,7.67431e-09,9.99999e-01
4.121510038e-01,1.11002e-08,9.99999e-01,9.99999e-01,9.99999e-01,1.11002e-08,9.99999e-01
4.142117588e-01,1.59387e-08,9.99999e-01,9.99999e-01,9.99999e-01,1.59387e-08,9.99999e-01
4.162828176e-01,2.27235e-08,9.99999e-01,9.99999e-01,9.99999e-01,2.27235e-08,9.99999e-01
4.183642317e-01,3.21702e-08,9.99999e-01,9.99999e-01,9.99999e-01,3.21702e-08,9.99999e-01
4.204560528e-01,4.52324e-08,9.99999e-01,9.99999e-01,9.99999e-01,4.52324e-08,9.99999e-01
4.225583331e-01,6.31718e-08,9.99999e-01,9.99999e-01,9.99999e-01,6.31718e-08,9.99999e-01
4.246711247e-01,8.76457e-08,9.99999e-01,9.99999e-01,9.99999e-01,8.76457e-08,9.99999e-01
4.267944804e-01,1.20817e-07,9.99999e-01,9.99999e-01,9.99999e-01,1.20817e-07,9.99999e-01
4.289284528e-01,1.65491e-07,9.99999e-01,9.99999e-01,9.99999e-01,1.65491e-07,9.99999e-01
4.310730950e-01,2.25279e-07,9.99999e-01,9.99999e-01,9.99999e-01,2.25279e-07,9.99999e-01
4.332284605e-01,3.04804e-07,9.99999e-01,9.99999e-01,9.99999e-01,3.04804e-07,9.99999e-01
4.353946028e-01,4.09946e-07,9.99999e-01,9.99999e-01,9.99999e-01,4.09946e-07,9.99999e-01
4.375715758e-01,5.48140e-07,9.99999e-01,9.99999e-01,9.99999e-01,5.48140e-07,9.99999e-01
4.397594337e-01,7.28726e-07,9.99999e-01,9.99999e-01,9.99999e-01,7.28726e-07,9.99999e-01
4.419582309e-01,9.63371e-07,9.99999e-01,9.99999e-01,9.99999e-01,9.63371e-07,9.99999e-01
4.441680220e-01,1.26657e-06,9.99999e-01,9.99999e-01,9.99999e-01,1.26657e-06,9.99999e-01
4.463888621e-01,1.65621e-06,9.99999e-01,9.99999e-01,9.99999e-01,1.65621e-06,9.99999e-01
4.486208064e-01,2.15428e-06,9.99999e-01,9.99999e-01,9.99999e-01,2.15428e-06,9.99999e-01
4.508639105e-01,2.78762e-06,9.99999e-01,9.99999e-01,9.99999e-01,2.78762e-06,9.99999e-01
4.531182300e-01,3.58884e-06,9.99999e-01,9.99999e-01,9.99999e-01,3.58884e-06,9.99999e-01
4.553838212e-01,4.59735e-06,9.99999e-01,9.99999e-01,9.99999e-01,4.59735e-06,9.99999e-01
4.576607403e-01,5.86052e-06,9.99999e-01,9.99999e-01,9.99999e-01,5.86052e-06,9.99999e-01
4.599490440e-01,7.43503e-06,9.99999e-01,9.99999e-01,9.99999e-01,7.43503e-06,9.99999e-01
4.622487892e-01,9.38831e-06,9.99999e-01,9.99999e-01,9.99999e-01,9.38831e-06,9.99999e-01
4.645600332e-01,1.18003e-05,9.99999e-01,9.99999e-01,9.99999e-01,1.18003e-05,9.99999e-01
4.668828333e-01,1.47650e-05,9.99999e-01,9.99999e-01,9.99999e-01,1.47650e-05,9.99999e-01
4.692172475e-01,1.83930e-05,9.99999e-01,9.99999e-01,9.99999e-01,1.83930e-05,9.99999e-01
4.715633337e-01,2.28133e-05,9.99999e-01,9.99999e-01,9.99999e-01,2.28133e-05,9.99999e-01
4.739211504e-01,2.81757e-05,9.99999e-01,9.99999e-01,9.99999e-01,2.81757e-05,9.99999e-01
4.762907561e-01,3.46539e-05,9.99999e-01,9.99999e-01,9.99999e-01,3.46539e-05,9.99999e-01
4.786722099e-01,4.24476e-05,9.99999e-01,9.99999e-01,9.99999e-01,4.24476e-05,9.99999e-01
4.810655710e-01,5.17861e-05,9.99999e-01,9.99999e-01,9.99999e-01,5.17861e-05,9.99999e-01
4.834708988e-01,6.29315e-05,9.99999e-01,9.99999e-01,9.99999e-01,6.29315e-05,9.99999e-01
4.858882533e-01,7.61818e-05,9.99999e-01,9.99999e-01,9.99999e-01,7.61818e-05,9.99999e-01
4.883176946e-01,9.18744e-05,9.99999e-01,9.99999e-01,9.99999e-01,9.18744e-05,9.99999e-01
4.907592831e-01,1.10390e-04,9.99999e-01,9.99999e-01,9.99999e-01,1.10390e-04,9.99999e-01
4.932130795e-01,1.32158e-04,9.99999e-01,9.99999e-01,9.99999e-01,1.32158e-04,9.99999e-01
4.956791449e-01,1.57656e-04,9.99999e-01,9.99999e-01,9.99999e-01,1.57656e-04,9.99999e-01
4.981575406e-01,1.87420e-04,9.99999e-01,9.99999e-01,9.99999e-01,1.87420e-04,9.99999e-01
5.006483283e-01,2.22043e-04,9.99999e-01,9.99999e-01,9.99999e-01,2.22043e-04,9.99999e-01
5.031515699e-01,2.62183e-04,9.99999e-01,9.99999e-01,9.99999e-01,2.62183e-04,9.99999e-01
5.056673278e-01,3.08564e-04,9.99999e-01,9.99999e-01,9.99999e-01,3.08564e-04,9.99999e-01
5.081956644e-01,3.61984e-04,9.99999e-01,9.99999e-01,9.99999e-01,3.61984e-04,9.99999e-01
5.107366428e-01,4.23315e-04,9.99999e-01,9.99999e-01,9.99999e-01,4.23315e-04,9.99999e-01
5.132903260e-01,4.93510e-04,9.99999e-01,9.99999e-01,9.99999e-01,4.93510e-04,9.99999e-01
5.158567776e-01,5.73603e-04,9.99999e-01,9.99999e-01,9.99999e-01,5.73603e-04,9.99999e-01
5.184360615e-01,6.64717e-04,9.99999e-01,9.99999e-01,9.99999e-01,6.64717e-04,9.99999e-01
5.210282418e-01,7.68064e-04,9.99999e-01,9.99999e-01,9.99999e-01,7.68064e-04,9.99999e-01
5.236333830e-01,8.84950e-04,9.99999e-01,9.99999e-01,9.99999e-01,8.84950e-04,9.99999e-01
5.262515499e-01,1.01677e-03,9.99999e-01,9.99999e-01,9.99999e-01,1.01677e-03,9.99999e-01
5.288828077e-01,1.16504e-03,9.99999e-01,9.99999e-01,9.99999e-01,1.16504e-03,9.99999e-01
5.315272217e-01,1.33133e-03,9.99999e-01,9.99999e-01,9.99999e-01,1.33133e-03,9.99999e-01
5.341848578e-01,1.51736e-03,9.99999e-01,9.99999e-01,9.99999e-01,1.51736e-03,9.99999e-01
5.368557821e-01,1.72492e-03,9.99999e-01,9.99999e-01,9.99999e-01,1.72492e-03,9.99999e-01
5.395400610e-01,1.95592e-03,9.99999e-01,9.99999e-01,9.99999e-01,1.95592e-03,9.99999e-01
5.422377613e-01,2.21234e-03,9.99999e-01,9.99999e-01,9.99999e-01,2.21234e-03,9.99999e-01
5.449489501e-01,2.49631e-03,9.99999e-01,9.99999e-01,9.99999e-01,2.49631e-03,9.99999e-01
5.476736949e-01,2.81001e-03,9.99999e-01,9.99999e-01,9.99999e-01,2.81001e-03,9.99999e-01
5.504120634e-01,3.15575e-03,9.99999e-01,9.99999e-01,9.99999e-01,3.15575e-03,9.99999e-01
5.531641237e-01,3.53591e-03,9.99999e-01,9.99999e-01,9.99999e-01,3.53591e-03,9.99999e-01
5.559299443e-01,3.95298e-03,9.99999e-01,9.99999e-01,9.99999e-01,3.95298e-03,9.99999e-01
5.587095940e-01,4.40952e-03,9.99999e-01,9.99999e-01,9.99999e-01,4.40952e-03,9.99999e-01
5.615031420e-01,4.90818e-03,9.99999e-01,9.99999e-01,9.99999e-01,4.90818e-03,9.99999e-01
5.643106577e-01,5.45168e-03,9.99999e-01,9.99999e-01,9.99999e-01,5.45168e-03,9.99999e-01
5.671322110e-01,6.04282e-03,9.99999e-01,9.99999e-01,9.99999e-01,6.04282e-03,9.99999e-01
5.699678720e-01,6.68445e-03,9.99999e-01,9.99999e-01,9.99999e-01,6.68445e-03,9.99999e-01
5.728177114e-01,7.37948e-03,9.99999e-01,9.99999e-01,9.99999e-01,7.37948e-03,9.99999e-01
5.756818000e-01,8.13088e-03,9.99999e-01,9.99999e-01,9.99999e-01,8.13088e-03,9.99999e-01
5.785602090e-01,8.94165e-03,9.99999e-01,9.99999e-01,9.99999e-01,8.94165e-03,9.99999e-01
5.814530100e-01,9.81481e-03,9.99999e-01,9.99999e-01,9.99999e-01,9.81481e-03,9.99999e-01
5.843602750e-01,1.07534e-02,9.99999e-01,9.99999e-01,9.99999e-01,1.07534e-02,9.99999e-01
5.872820764e-01,1.17606e-02,9.99999e-01,9.99999e-01,9.99999e-01,1.17606e-02,9.99999e-01
5.902184868e-01,1.28393e-02,9.99999e-01,9.99999e-01,9.99999e-01,1.28393e-02,9.99999e-01
5.931695792e-01,1.39928e-02,9.99999e-01,9.99999e-01,9.99999e-01,1.39928e-02,9.99999e-01
5.961354271e-01,1.52239e-02,9.99999e-01,9.99999e-01,9.99999e-01,1.52239e-02,9.99999e-01
5.991161043e-01,1.65359e-02,9.99999e-01,9.99999e-01,9.99999e-01,1.65359e-02,9.99999e-01
6.021116848e-01,1.79315e-02,9.99999e-01,9.99999e-01,9.99999e-01,1.79315e-02,9.99999e-01
6.051222432e-01,1.94139e-02,9.99999e-01,9.99999e-01,9.99999e-01,1.94139e-02,9.99999e-01
6.081478544e-01,2.09858e-02,9.99999e-01,9.99999e-01,9.99999e-01,2.09858e-02,9.99999e-01
6.111885937e-01,2.26502e-02,9.99999e-01,9.99999e-01,9.99999e-01,2.26502e-02,9.99999e-01
6.142445367e-01,2.44098e-02,9.99999e-01,9.99999e-01,9.99999e-01,2.44098e-02,9.99999e-01
6.173157594e-01,2.62672e-02,9.99999e-01,9.99999e-01,9.99999e-01,2.62672e-02,9.99999e-01
6.204023382e-01,2.82250e-02,9.99999e-01,9.99999e-01,9.99999e-01,2.82250e-02,9.99999e-01
6.235043498e-01,3.02857e-02,9.99999e-01,9.99999e-01,9.99999e-01,3.02857e-02,9.99999e-01
6.266218716e-01,3.24517e-02,9.99999e-01,9.99999e-01,9.99999e-01,3.24517e-02,9.99999e-01
6.297549810e-01,3.47251e-02,9.99999e-01,9.99999e-01,9.99999e-01,3.47251e-02,9.99999e-01
6.329037559e-01,3.71082e-02,9.99999e-01,9.99999e-01,9.99999e-01,3.71082e-02,9.99999e-01
6.360682746e-01,3.96028e-02,9.99999e-01,9.99999e-01,9.99999e-01,3.96028e-02,9.99999e-01
6.392486160e-01,4.22109e-02,9.99999e-01,9.99999e-01,9.99999e-01,4.22109e-02,9.99999e-01
6.424448591e-01,4.49341e-02,9.99999e-01,9.99999e-01,9.99999e-01,4.49341e-02,9.99999e-01
6.456570834e-01,4.77739e-02,9.99999e-01,9.99999e-01,9.99999e-01,4.77739e-02,9.99999e-01
6.488853688e-01,5.07318e-02,9.99999e-01,9.99999e-01,9.99999e-01,5.07318e-02,9.99999e-01
6.521297956e-01,5.38089e-02,9.99999e-01,9.99999e-01,9.99999e-01,5.38089e-02,9.99999e-01
6.553904446e-01,5.70063e-02,9.99999e-01,9.99999e-01,9.99999e-01,5.70063e-02,9.99999e-01
6.586673968e-01,6.03249e-02,9.99999e-01,9.99999e-01,9.99999e-01,6.03249e-02,9.99999e-01
6.619607338e-01,6.37653e-02,9.99999e-01,9.99999e-01,9.99999e-01,6.37653e-02,9.99999e-01
6.652705375e-01,6.73282e-02,9.99999e-01,9.99999e-01,9.99999e-01,6.73282e-02,9.99999e-01
6.685968902e-01,7.10138e-02,9.99999e-01,9.99999e-01,9.99999e-01,7.10138e-02,9.99999e-01
6.719398746e-01,7.48224e-02,9.99999e-01,9.99999e-01,9.99999e-01,7.48224e-02,9.99999e-01
6.752995740e-01,7.87540e-02,9.99999e-01,9.99999e-01,9.99999e-01,7.87540e-02,9.99999e-01
6.786760719e-01,8.28083e-02,9.99999e-01,9.99999e-01,9.99999e-01,8.28083e-02,9.99999e-01
6.820694522e-01,8.69850e-02,9.99999e-01,9.99999e-01,9.99999e-01,8.69850e-02,9.99999e-01
6.854797995e-01,9.12837e-02,9.99999e-01,9.99999e-01,9.99999e-01,9.12837e-02,9.99999e-01
6.889071985e-01,9.57035e-02,9.99999e-01,9.99999e-01,9.99999e-01,9.57035e-02,9.99999e-01
6.923517345e-01,1.00244e-01,9.99999e-01,9.99999e-01,9.99999e-01,1.00244e-01,9.99999e-01
6.958134932e-01,1.04903e-01,9.99999e-01,9.99999e-01,9.99999e-01,1.04903e-01,9.99999e-01
6.992925606e-01,1.09681e-01,9.99999e-01,9.99999e-01,9.99999e-01,1.09681e-01,9.99999e-01
7.027890234e-01,1.14575e-01,9.99999e-01,9.99999e-01,9.99999e-01,1.14575e-01,9.99999e-01
7.063029686e-01,1.19585e-01,9.99999e-01,9.99999e-01,9.99999e-01,1.19585e-01,9.99999e-01
7.098344834e-01,1.24708e-01,9.99999e-01,9.99999e-01,9.99999e-01,1.24708e-01,9.99999e-01
7.133836558e-01,1.29943e-01,9.99999e-01,9.99999e-01,9.99999e-01,1.29943e-01,9.99999e-01
7.169505741e-01,1.35288e-01,9.99999e-01,9.99999e-01,9.99999e-01,1.35288e-01,9.99999e-01
7.205353270e-01,1.40740e-01,9.99999e-01,9.99999e-01,9.99999e-01,1.40740e-01,9.99999e-01
7.241380036e-01,1.46298e-01,9.99999e-01,9.99999e-01,9.99999e-01,1.46298e-01,9.99999e-01
7.277586936e-01,1.51959e-01,9.99999e-01,9.99999e-01,9.99999e-01,1.51959e-01,9.99999e-01
7.313974871e-01,1.57721e-01,9.99999e-01,9.99999e-01,9.99999e-01,1.57721e-01,9.99999e-01
7.350544745e-01,1.63581e-01,9.99999e-01,9.99999e-01,9.99999e-01,1.63581e-01,9.99999e-01
7.387297469e-01,1.69537e-01,9.99999e-01,9.99999e-01,9.99999e-01,1.69537e-01,9.99999e-01
7.424233956e-01,1.75585e-01,9.99999e-01,9.99999e-01,9.99999e-01,1.75585e-01,9.99999e-01
7.461355126e-01,1.81724e-01,9.99999e-01,9.99999e-01,9.99999e-01,1.81724e-01,9.99999e-01
7.498661902e-01,1.87949e-01,9.99999e-01,9.99999e-01,9.99999e-01,1.87949e-01,9.99999e-01
7.536155211e-01,1.94258e-01,9.99999e-01,9.99999e-01,9.99999e-01,1.94258e-01,9.99999e-01
7.573835987e-01,2.00648e-01,9.99999e-01,9.99999e-01,9.99999e-01,2.00648e-01,9.99999e-01
7.611705167e-01,2.07116e-01,9.99999e-01,9.99999e-01,9.99999e-01,2.07116e-01,9.99999e-01
7.649763693e-01,2.13659e-01,9.99999e-01,9.99999e-01,9.99999e-01,2.13659e-01,9.99999e-01
7.688012511e-01,2.20273e-01,9.99999e-01,9.99999e-01,9.99999e-01,2.20273e-01,9.99999e-01
7.726452574e-01,2.26954e-01,9.99999e-01,9.99999e-01,9.99999e-01,2.26954e-01,9.99999e-01
7.765084837e-01,2.33701e-01,9.99999e-01,9.99999e-01,9.99999e-01,2.33701e-01,9.99999e-01
7.803910261e-01,2.26481e-01,9.99999e-01,9.99999e-01,9.41672e-01,2.40509e-01,9.99999e-01
7.842929812e-01,1.85286e-01,9.99999e-01,9.99999e-01,7.49010e-01,2.47375e-01,9.99999e-01
7.882144461e-01,1.87256e-01,9.99999e-01,9.99999e-01,7.36371e-01,2.54295e-01,9.99999e-01
7.921555184e-01,2.17552e-01,9.99999e-01,9.99999e-01,8.32683e-01,2.61267e-01,9.99999e-01
7.961162960e-01,2.37028e-01,9.99999e-01,9.99999e-01,8.83489e-01,2.68286e-01,9.99999e-01
8.000968774e-01,2.57475e-01,9.99999e-01,9.99999e-01,9.35083e-01,2.75350e-01,9.99999e-01
8.040973618e-01,2.72766e-01,9.99999e-01,9.99999e-01,9.65700e-01,2.82454e-01,9.99999e-01
8.081178486e-01,2.85007e-01,9.99999e-01,9.99999e-01,9.84150e-01,2.89596e-01,9.99999e-01
8.121584379e-01,2.95303e-01,9.99999e-01,9.99999e-01,9.95048e-01,2.96773e-01,9.99999e-01
8.162192301e-01,3.03647e-01,9.99999e-01,9.99999e-01,9.98904e-01,3.03980e-01,9.99999e-01
8.203003262e-01,3.11209e-01,9.99999e-01,9.99999e-01,9.99981e-01,3.11215e-01,9.99999e-01
8.244018279e-01,3.18474e-01,9.99999e-01,9.99999e-01,9.99999e-01,3.18474e-01,9.99999e-01
8.285238370e-01,3.25753e-01,9.99999e-01,9.99999e-01,9.99999e-01,3.25753e-01,9.99999e-01
8.326664562e-01,3.33051e-01,9.99999e-01,9.99999e-01,9.99999e-01,3.33051e-01,9.99999e-01
8.368297885e-01,3.40363e-01,9.99999e-01,9.99999e-01,9.99999e-01,3.40363e-01,9.99999e-01
8.410139374e-01,3.47686e-01,9.99999e-01,9.99999e-01,9.99999e-01,3.47686e-01,9.99999e-01
8.452190071e-01,3.55018e-01,9.99999e-01,9.99999e-01,9.99999e-01,3.55018e-01,9.99999e-01
8.494451021e-01,3.62355e-01,9.99999e-01,9.99999e-01,9.99999e-01,3.62355e-01,9.99999e-01
8.536923276e-01,3.69694e-01,9.99999e-01,9.99999e-01,9.99999e-01,3.69694e-01,9.99999e-01
8.579607893e-01,3.77032e-01,9.99999e-01,9.99999e-01,9.99999e-01,3.77032e-01,9.99999e-01
8.622505932e-01,3.84367e-01,9.99999e-01,9.99999e-01,9.99999e-01,3.84367e-01,9.99999e-01
8.665618462e-01,3.50924e-01,9.99999e-01,9.99999e-01,8.95911e-01,3.91695e-01,9.99999e-01
8.708946554e-01,1.94628e-01,9.99999e-01,9.99999e-01,4.87772e-01,3.99014e-01,9.99999e-01
8.752491287e-01,2.25177e-01,9.99999e-01,9.99999e-01,5.54185e-01,4.06322e-01,9.99999e-01
8.796253743e-01,2.97576e-01,9.99999e-01,9.99999e-01,7.19452e-01,4.13614e-01,9.99999e-01
8.840235012e-01,3.54312e-01,9.99999e-01,9.99999e-01,8.41816e-01,4.20890e-01,9.99999e-01
8.884436187e-01,3.99895e-01,9.99999e-01,9.99999e-01,9.34013e-01,4.28146e-01,9.99999e-01
8.928858368e-01,4.23518e-01,9.99999e-01,9.99999e-01,9.72751e-01,4.35381e-01,9.99999e-01
8.973502660e-01,4.39618e-01,9.99999e-01,9.99999e-01,9.93281e-01,4.42591e-01,9.99999e-01
9.018370173e-01,4.49440e-01,9.99999e-01,9.99999e-01,9.99256e-01,4.49775e-01,9.99999e-01
9.063462024e-01,4.48559e-01,9.99999e-01,9.99999e-01,9.81681e-01,4.56929e-01,9.99999e-01
9.108779334e-01,4.44299e-01,9.99999e-01,9.99999e-01,9.57429e-01,4.64053e-01,9.99999e-01
9.154323231e-01,4.66325e-01,9.99999e-01,9.99999e-01,9.89770e-01,4.71144e-01,9.99999e-01
9.200094847e-01,4.16662e-01,9.99999e-01,9.99999e-01,8.71312e-01,4.78200e-01,9.99999e-01
9.246095321e-01,3.92471e-01,9.99999e-01,9.99999e-01,8.08852e-01,4.85220e-01,9.99999e-01
9.292325798e-01,4.17906e-01,9.99999e-01,9.99999e-01,8.49055e-01,4.92200e-01,9.99999e-01
9.338787427e-01,4.25266e-01,9.99999e-01,9.99999e-01,8.51996e-01,4.99141e-01,9.99999e-01
9.385481364e-01,4.49649e-01,9.99999e-01,9.99999e-01,8.88565e-01,5.06039e-01,9.99999e-01
9.432408771e-01,4.76937e-01,9.99999e-01,9.99999e-01,9.29895e-01,5.12893e-01,9.99999e-01
9.479570815e-01,5.00712e-01,9.99999e-01,9.99999e-01,9.63458e-01,5.19702e-01,9.99999e-01
9.526968669e-01,5.17092e-01,9.99999e-01,9.99999e-01,9.82196e-01,5.26464e-01,9.99999e-01
9.574603512e-01,5.29096e-01,9.99999e-01,9.99999e-01,9.92342e-01,5.33179e-01,9.99999e-01
9.622476530e-01,5.38550e-01,9.99999e-01,9.99999e-01,9.97603e-01,5.39843e-01,9.99999e-01
9.670588912e-01,5.46064e-01,9.99999e-01,9.99999e-01,9.99280e-01,5.46457e-01,9.99999e-01
9.718941857e-01,5.52990e-01,9.99999e-01,9.99999e-01,9.99948e-01,5.53019e-01,9.99999e-01
9.767536566e-01,5.59527e-01,9.99999e-01,9.99999e-01,9.99999e-01,5.59527e-01,9.99999e-01
9.816374249e-01,5.65982e-01,9.99999e-01,9.99999e-01,9.99999e-01,5.65982e-01,9.99999e-01
9.865456120e-01,5.72381e-01,9.99999e-01,9.99999e-01,9.99999e-01,5.72381e-01,9.99999e-01
9.914783401e-01,5.78724e-01,9.99999e-01,9.99999e-01,9.99999e-01,5.78724e-01,9.99999e-01
9.964357318e-01,5.85010e-01,9.99999e-01,9.99999e-01,9.99999e-01,5.85010e-01,9.99999e-01
1.001417910e+00,5.91238e-01,9.99999e-01,9.99999e-01,9.99999e-01,5.91238e-01,9.99999e-01
1.006425000e+00,5.97408e-01,9.99999e-01,9.99999e-01,9.99999e-01,5.97408e-01,9.99999e-01
1.011457125e+00,6.03518e-01,9.99999e-01,9.99999e-01,9.99999e-01,6.03518e-01,9.99999e-01
1.016514411e+00,6.09568e-01,9.99999e-01,9.99999e-01,9.99999e-01,6.09568e-01,9.99999e-01
1.021596983e+00,6.15501e-01,9.99999e-01,9.99999e-01,9.99907e-01,6.15557e-01,9.99999e-01
1.026704968e+00,6.17008e-01,9.99999e-01,9.99999e-01,9.92796e-01,6.21485e-01,9.99999e-01
1.031838492e+00,5.85537e-01,9.99999e-01,9.99999e-01,9.33346e-01,6.27351e-01,9.99999e-01
1.036997685e+00,5.27415e-02,9.99999e-01,9.99999e-01,8.32993e-02,6.33156e-01,9.99999e-01
1.042182673e+00,1.34245e-02,9.99999e-01,9.99999e-01,2.10120e-02,6.38898e-01,9.99999e-01
1.047393587e+00,2.49916e-02,9.99999e-01,9.99999e-01,3.87722e-02,6.44576e-01,9.99999e-01
1.052630555e+00,4.91296e-05,9.99999e-01,9.99999e-01,7.55616e-05,6.50192e-01,9.99999e-01
1.057893707e+00,1.66908e-04,9.99999e-01,9.99999e-01,2.54531e-04,6.55744e-01,9.99999e-01
1.063183176e+00,1.38911e-03,9.99999e-01,9.99999e-01,2.10079e-03,6.61233e-01,9.99999e-01
1.068499092e+00,7.56680e-03,9.99999e-01,9.99999e-01,1.13503e-02,6.66658e-01,9.99999e-01
1.073841587e+00,3.85530e-02,9.99999e-01,9.99999e-01,5.73689e-02,6.72019e-01,9.99999e-01
1.079210795e+00,1.11206e-01,9.99999e-01,9.99999e-01,1.64186e-01,6.77315e-01,9.99999e-01
1.084606849e+00,2.48332e-01,9.99999e-01,9.99999e-01,3.63830e-01,6.82548e-01,9.99999e-01
1.090029883e+00,4.05991e-01,9.99999e-01,9.99999e-01,5.90346e-01,6.87717e-01,9.99999e-01
1.095480033e+00,5.33968e-01,9.99999e-01,9.99999e-01,7.70716e-01,6.92821e-01,9.99999e-01
1.100957433e+00,6.15386e-01,9.99999e-01,9.99999e-01,8.81816e-01,6.97861e-01,9.99999e-01
1.106462220e+00,6.67162e-01,9.99999e-01,9.99999e-01,9.49240e-01,7.02838e-01,9.99999e-01
1.111994531e+00,6.94209e-01,9.99999e-01,9.99999e-01,9.80867e-01,7.07750e-01,9.99999e-01
1.117554504e+00,7.09236e-01,9.99999e-01,9.99999e-01,9.95280e-01,7.12599e-01,9.99999e-01
1.123142276e+00,7.17161e-01,9.99999e-01,9.99999e-01,9.99687e-01,7.17385e-01,9.99999e-01
1.128757988e+00,7.22106e-01,9.99999e-01,9.99999e-01,9.99999e-01,7.22106e-01,9.99999e-01
1.134401778e+00,7.26765e-01,9.99999e-01,9.99999e-01,9.99999e-01,7.26765e-01,9.99999e-01
1.140073787e+00,7.31361e-01,9.99999e-01,9.99999e-01,9.99999e-01,7.31361e-01,9.99999e-01
1.145774156e+00,7.35895e-01,9.99999e-01,9.99999e-01,9.99999e-01,7.35895e-01,9.99999e-01
1.151503026e+00,7.40366e-01,9.99999e-01,9.99999e-01,9.99999e-01,7.40366e-01,9.99999e-01
1.157260541e+00,7.44775e-01,9.99999e-01,9.99999e-01,9.99999e-01,7.44775e-01,9.99999e-01
1.163046844e+00,7.49123e-01,9.99999e-01,9.99999e-01,9.99999e-01,7.49123e-01,9.99999e-01
1.168862078e+00,7.53409e-01,9.99999e-01,9.99999e-01,9.99999e-01,7.53409e-01,9.99999e-01
1.174706389e+00,7.57635e-01,9.99999e-01,9.99999e-01,9.99999e-01,7.57635e-01,9.99999e-01
1.180579921e+00,7.61800e-01,9.99999e-01,9.99999e-01,9.99999e-01,7.61800e-01,9.99999e-01
1.186482820e+00,7.65897e-01,9.99999e-01,9.99999e-01,9.99989e-01,7.65905e-01,9.99999e-01
1.192415234e+00,7.50701e-01,9.99999e-01,9.99999e-01,9.74999e-01,7.69950e-01,9.99999e-01
1.198377311e+00,4.18896e-01,9.99999e-01,9.99999e-01,5.41253e-01,7.73936e-01,9.99999e-01
1.204369197e+00,7.65464e-20,9.99999e-01,9.99999e-01,9.84058e-20,7.77864e-01,9.99999e-01
1.210391043e+00,7.85156e-78,9.99999e-01,9.99999e-01,1.00438e-77,7.81733e-01,9.99999e-01
1.216442998e+00,1.83884e-67,9.99999e-01,9.99999e-01,2.34085e-67,7.85544e-01,9.99999e-01
1.222525213e+00,1.83966e-66,9.99999e-01,9.99999e-01,2.33075e-66,7.89299e-01,9.99999e-01
1.228637839e+00,2.13855e-51,9.99999e-01,9.99999e-01,2.69680e-51,7.92996e-01,9.99999e-01
