#,Wave/freq,Total,N2,O2,CO2,Rayleigh,CIA
4.000000000e-01,2.96517e-05,9.99999e-01,9.99999e-01,9.99999e-01,2.96517e-05,9.99999e-01
4.020000000e-01,3.64399e-05,9.99999e-01,9.99999e-01,9.99999e-01,3.64399e-05,9.99999e-01
4.040100000e-01,4.45910e-05,9.99999e-01,9.99999e-01,9.99999e-01,4.45910e-05,9.99999e-01
4.060300500e-01,5.43482e-05,9.99999e-01,9.99999e-01,9.99999e-01,5.43482e-05,9.99999e-01
4.080602003e-01,6.59821e-05,9.99999e-01,9.99999e-01,9.99999e-01,6.59821e-05,9.99999e-01
4.101005013e-01,7.98000e-05,9.99999e-01,9.99999e-01,9.99999e-01,7.98000e-05,9.99999e-01
4.121510038e-01,9.61498e-05,9.99999e-01,9.99999e-01,9.99999e-01,9.61498e-05,9.99999e-01
4.142117588e-01,1.15424e-04,9.99999e-01,9.99999e-01,9.99999e-01,1.15424e-04,9.99999e-01
4.162828176e-01,1.38062e-04,9.99999e-01,9.99999e-01,9.99999e-01,1.38062e-04,9.99999e-01
4.183642317e-01,1.64557e-04,9.99999e-01,9.99999e-01,9.99999e-01,1.64557e-04,9.99999e-01
4.204560528e-01,1.95459e-04,9.99999e-01,9.99999e-01,9.99999e-01,1.95459e-04,9.99999e-01
4.225583331e-01,2.31374e-04,9.99999e-01,9.99999e-01,9.99999e-01,2.31374e-04,9.99999e-01
4.246711247e-01,2.72979e-04,9.99999e-01,9.99999e-01,9.99999e-01,2.72979e-04,9.99999e-01
4.267944804e-01,3.21014e-04,9.99999e-01,9.99999e-01,9.99999e-01,3.21014e-04,9.99999e-01
4.289284528e-01,3.76296e-04,9.99999e-01,9.99999e-01,9.99999e-01,3.76296e-04,9.99999e-01
4.310730950e-01,4.39715e-04,9.99999e-01,9.99999e-01,9.99999e-01,4.39715e-04,9.99999e-01
4.332284605e-01,5.12244e-04,9.99999e-01,9.99999e-01,9.99999e-01,5.12244e-04,9.99999e-01
4.353946028e-01,5.94939e-04,9.99999e-01,9.99999e-01,9.99999e-01,5.94939e-04,9.99999e-01
4.375715758e-01,6.88946e-04,9.99999e-01,9.99999e-01,9.99999e-01,6.88946e-04,9.99999e-01
4.397594337e-01,7.95497e-04,9.99999e-01,9.99999e-01,9.99999e-01,7.95497e-04,9.99999e-01
4.419582309e-01,9.15922e-04,9.99999e-01,9.99999e-01,9.99999e-01,9.15922e-04,9.99999e-01
4.441680220e-01,1.05165e-03,9.99999e-01,9.99999e-01,9.99999e-01,1.05165e-03,9.99999e-01
4.463888621e-01,1.20419e-03,9.99999e-01,9.99999e-01,9.99999e-01,1.20419e-03,9.99999e-01
4.486208064e-01,1.37518e-03,9.99999e-01,9.99999e-01,9.99999e-01,1.37518e-03,9.99999e-01
4.508639105e-01,1.56633e-03,9.99999e-01,9.99999e-01,9.99999e-01,1.56633e-03,9.99999e-01
4.531182300e-01,1.77947e-03,9.99999e-01,9.99999e-01,9.99999e-01,1.77947e-03,9.99999e-01
4.553838212e-01,2.01653e-03,9.99999e-01,9.99999e-01,9.99999e-01,2.01653e-03,9.99999e-01
4.576607403e-01,2.27953e-03,9.99999e-01,9.99999e-01,9.99999e-01,2.27953e-03,9.99999e-01
4.599490440e-01,2.57060e-03,9.99999e-01,9.99999e-01,9.99999e-01,2.57060e-03,9.99999e-01
4.622487892e-01,2.89196e-03,9.99999e-01,9.99999e-01,9.99999e-01,2.89196e-03,9.99999e-01
4.645600332e-01,3.24594e-03,9.99999e-01,9.99999e-01,9.99999e-01,3.24594e-03,9.99999e-01
4.668828333e-01,3.63494e-03,9.99999e-01,9.99999e-01,9.99999e-01,3.63494e-03,9.99999e-01
4.692172475e-01,4.06147e-03,9.99999e-01,9.99999e-01,9.99999e-01,4.06147e-03,9.99999e-01
4.715633337e-01,4.52812e-03,9.99999e-01,9.99999e-01,9.99999e-01,4.52812e-03,9.99999e-01
4.739211504e-01,5.03755e-03,9.99999e-01,9.99999e-01,9.99999e-01,5.03755e-03,9.99999e-01
4.762907561e-01,5.59250e-03,9.99999e-01,9.99999e-01,9.99999e-01,5.59250e-03,9.99999e-01
4.786722099e-01,6.19579e-03,9.99999e-01,9.99999e-01,9.99999e-01,6.19579e-03,9.99999e-01
4.810655710e-01,6.85028e-03,9.99999e-01,9.99999e-01,9.99999e-01,6.85028e-03,9.99999e-01
4.834708988e-01,7.55890e-03,9.99999e-01,9.99999e-01,9.99999e-01,7.55890e-03,9.99999e-01
4.858882533e-01,8.32461e-03,9.99999e-01,9.99999e-01,9.99999e-01,8.32461e-03,9.99999e-01
4.883176946e-01,9.15044e-03,9.99999e-01,9.99999e-01,9.99999e-01,9.15044e-03,9.99999e-01
4.907592831e-01,1.00394e-02,9.99999e-01,9.99999e-01,9.99999e-01,1.00394e-02,9.99999e-01
4.932130795e-01,1.09946e-02,9.99999e-01,9.99999e-01,9.99999e-01,1.09946e-02,9.99999e-01
4.956791449e-01,1.20191e-02,9.99999e-01,9.99999e-01,9.99999e-01,1.20191e-02,9.99999e-01
4.981575406e-01,1.31159e-02,9.99999e-01,9.99999e-01,9.99999e-01,1.31159e-02,9.99999e-01
5.006483283e-01,1.42882e-02,9.99999e-01,9.99999e-01,9.99999e-01,1.42882e-02,9.99999e-01
5.031515699e-01,1.55389e-02,9.99999e-01,9.99999e-01,9.99999e-01,1.55389e-02,9.99999e-01
5.056673278e-01,1.68711e-02,9.99999e-01,9.99999e-01,9.99999e-01,1.68711e-02,9.99999e-01
5.081956644e-01,1.82879e-02,9.99999e-01,9.99999e-01,9.99999e-01,1.82879e-02,9.99999e-01
5.107366428e-01,1.97920e-02,9.99999e-01,9.99999e-01,9.99999e-01,1.97920e-02,9.99999e-01
5.132903260e-01,2.13864e-02,9.99999e-01,9.99999e-01,9.99999e-01,2.13864e-02,9.99999e-01
5.158567776e-01,2.30739e-02,9.99999e-01,9.99999e-01,9.99999e-01,2.30739e-02,9.99999e-01
5.184360615e-01,2.48573e-02,9.99999e-01,9.99999e-01,9.99999e-01,2.48573e-02,9.99999e-01
5.210282418e-01,2.67392e-02,9.99999e-01,9.99999e-01,9.99999e-01,2.67392e-02,9.99999e-01
5.236333830e-01,2.87221e-02,9.99999e-01,9.99999e-01,9.99999e-01,2.87221e-02,9.99999e-01
5.262515499e-01,3.08084e-02,9.99999e-01,9.99999e-01,9.99999e-01,3.08084e-02,9.99999e-01
5.288828077e-01,3.30006e-02,9.99999e-01,9.99999e-01,9.99999e-01,3.30006e-02,9.99999e-01
5.315272217e-01,3.53008e-02,9.99999e-01,9.99999e-01,9.99999e-01,3.53008e-02,9.99999e-01
5.341848578e-01,3.77112e-02,9.99999e-01,9.99999e-01,9.99999e-01,3.77112e-02,9.99999e-01
5.368557821e-01,4.02335e-02,9.99999e-01,9.99999e-01,9.99999e-01,4.02335e-02,9.99999e-01
5.395400610e-01,4.28698e-02,9.99999e-01,9.99999e-01,9.99999e-01,4.28698e-02,9.99999e-01
5.422377613e-01,4.56215e-02,9.99999e-01,9.99999e-01,9.99999e-01,4.56215e-02,9.99999e-01
5.449489501e-01,4.84902e-02,9.99999e-01,9.99999e-01,9.99999e-01,4.84902e-02,9.99999e-01
5.476736949e-01,5.14773e-02,9.99999e-01,9.99999e-01,9.99999e-01,5.14773e-02,9.99999e-01
5.504120634e-01,5.45839e-02,9.99999e-01,9.99999e-01,9.99999e-01,5.45839e-02,9.99999e-01
5.531641237e-01,5.78110e-02,9.99999e-01,9.99999e-01,9.99999e-01,5.78110e-02,9.99999e-01
5.559299443e-01,6.11595e-02,9.99999e-01,9.99999e-01,9.99999e-01,6.11595e-02,9.99999e-01
5.587095940e-01,6.46300e-02,9.99999e-01,9.99999e-01,9.99999e-01,6.46300e-02,9.99999e-01
5.615031420e-01,6.82230e-02,9.99999e-01,9.99999e-01,9.99999e-01,6.82230e-02,9.99999e-01
5.643106577e-01,7.19389e-02,9.99999e-01,9.99999e-01,9.99999e-01,7.19389e-02,9.99999e-01
5.671322110e-01,7.57777e-02,9.99999e-01,9.99999e-01,9.99999e-01,7.57777e-02,9.99999e-01
5.699678720e-01,7.97395e-02,9.99999e-01,9.99999e-01,9.99999e-01,7.97395e-02,9.99999e-01
5.728177114e-01,8.38239e-02,9.99999e-01,9.99999e-01,9.99999e-01,8.38239e-02,9.99999e-01
5.756818000e-01,8.80307e-02,9.99999e-01,9.99999e-01,9.99999e-01,8.80307e-02,9.99999e-01
5.785602090e-01,9.23592e-02,9.99999e-01,9.99999e-01,9.99999e-01,9.23592e-02,9.99999e-01
5.814530100e-01,9.68088e-02,9.99999e-01,9.99999e-01,9.99999e-01,9.68088e-02,9.99999e-01
5.843602750e-01,1.01378e-01,9.99999e-01,9.99999e-01,9.99999e-01,1.01378e-01,9.99999e-01
5.872820764e-01,1.06067e-01,9.99999e-01,9.99999e-01,9.99999e-01,1.06067e-01,9.99999e-01
5.902184868e-01,1.10873e-01,9.99999e-01,9.99999e-01,9.99999e-01,1.10873e-01,9.99999e-01
5.931695792e-01,1.15796e-01,9.99999e-01,9.99999e-01,9.99999e-01,1.15796e-01,9.99999e-01
5.961354271e-01,1.20834e-01,9.99999e-01,9.99999e-01,9.99999e-01,1.20834e-01,9.99999e-01
5.991161043e-01,1.25985e-01,9.99999e-01,9.99999e-01,9.99999e-01,1.25985e-01,9.99999e-01
6.021116848e-01,1.31247e-01,9.99999e-01,9.99999e-01,9.99999e-01,1.31247e-01,9.99999e-01
6.051222432e-01,1.36618e-01,9.99999e-01,9.99999e-01,9.99999e-01,1.36618e-01,9.99999e-01
6.081478544e-01,1.42097e-01,9.99999e-01,9.99999e-01,9.99999e-01,1.42097e-01,9.99999e-01
6.111885937e-01,1.47681e-01,9.99999e-01,9.99999e-01,9.99999e-01,1.47681e-01,9.99999e-01
6.142445367e-01,1.53367e-01,9.99999e-01,9.99999e-01,9.99999e-01,1.53367e-01,9.99999e-01
6.173157594e-01,1.59153e-01,9.99999e-01,9.99999e-01,9.99999e-01,1.59153e-01,9.99999e-01
6.204023382e-01,1.65037e-01,9.99999e-01,9.99999e-01,9.99999e-01,1.65037e-01,9.99999e-01
6.235043498e-01,1.71016e-01,9.99999e-01,9.99999e-01,9.99999e-01,1.71016e-01,9.99999e-01
6.266218716e-01,1.77086e-01,9.99999e-01,9.99999e-01,9.99999e-01,1.77086e-01,9.99999e-01
6.297549810e-01,1.83246e-01,9.99999e-01,9.99999e-01,9.99999e-01,1.83246e-01,9.99999e-01
6.329037559e-01,1.89493e-01,9.99999e-01,9.99999e-01,9.99999e-01,1.89493e-01,9.99999e-01
6.360682746e-01,1.95822e-01,9.99999e-01,9.99999e-01,9.99999e-01,1.95822e-01,9.99999e-01
6.392486160e-01,2.02232e-01,9.99999e-01,9.99999e-01,9.99999e-01,2.02232e-01,9.99999e-01
6.424448591e-01,2.08718e-01,9.99999e-01,9.99999e-01,9.99999e-01,2.08718e-01,9.99999e-01
6.456570834e-01,2.15278e-01,9.99999e-01,9.99999e-01,9.99999e-01,2.15278e-01,9.99999e-01
6.488853688e-01,2.21909e-01,9.99999e-01,9.99999e-01,9.99999e-01,2.21909e-01,9.99999e-01
6.521297956e-01,2.28607e-01,9.99999e-01,9.99999e-01,9.99999e-01,2.28607e-01,9.99999e-01
6.553904446e-01,2.35369e-01,9.99999e-01,9.99999e-01,9.99999e-01,2.35369e-01,9.99999e-01
6.586673968e-01,2.42192e-01,9.99999e-01,9.99999e-01,9.99999e-01,2.42192e-01,9.99999e-01
6.619607338e-01,2.49071e-01,9.99999e-01,9.99999e-01,9.99999e-01,2.49071e-01,9.99999e-01
6.652705375e-01,2.56005e-01,9.99999e-01,9.99999e-01,9.99999e-01,2.56005e-01,9.99999e-01
6.685968902e-01,2.62988e-01,9.99999e-01,9.99999e-01,9.99999e-01,2.62988e-01,9.99999e-01
6.719398746e-01,2.70019e-01,9.99999e-01,9.99999e-01,9.99999e-01,2.70019e-01,9.99999e-01
6.752995740e-01,2.77093e-01,9.99999e-01,9.99999e-01,9.99999e-01,2.77093e-01,9.99999e-01
6.786760719e-01,2.84207e-01,9.99999e-01,9.99999e-01,9.99999e-01,2.84207e-01,9.99999e-01
6.820694522e-01,2.91358e-01,9.99999e-01,9.99999e-01,9.99999e-01,2.91358e-01,9.99999e-01
6.854797995e-01,2.98542e-01,9.99999e-01,9.99999e-01,9.99999e-01,2.98542e-01,9.99999e-01
6.889071985e-01,3.05756e-01,9.99999e-01,9.99999e-01,9.99999e-01,3.05756e-01,9.99999e-01
6.923517345e-01,3.12997e-01,9.99999e-01,9.99999e-01,9.99999e-01,3.12997e-01,9.99999e-01
6.958134932e-01,3.20262e-01,9.99999e-01,9.99999e-01,9.99999e-01,3.20262e-01,9.99999e-01
6.992925606e-01,3.27546e-01,9.99999e-01,9.99999e-01,9.99999e-01,3.27546e-01,9.99999e-01
7.027890234e-01,3.34848e-01,9.99999e-01,9.99999e-01,9.99999e-01,3.34848e-01,9.99999e-01
7.063029686e-01,3.42163e-01,9.99999e-01,9.99999e-01,9.99999e-01,3.42163e-01,9.99999e-01
7.098344834e-01,3.49488e-01,9.99999e-01,9.99999e-01,9.99999e-01,3.49488e-01,9.99999e-01
7.133836558e-01,3.56821e-01,9.99999e-01,9.99999e-01,9.99999e-01,3.56821e-01,9.99999e-01
7.169505741e-01,3.64159e-01,9.99999e-01,9.99999e-01,9.99999e-01,3.64159e-01,9.99999e-01
7.205353270e-01,3.71498e-01,9.99999e-01,9.99999e-01,9.99999e-01,3.71498e-01,9.99999e-01
7.241380036e-01,3.78836e-01,9.99999e-01,9.99999e-01,9.99999e-01,3.78836e-01,9.99999e-01
7.277586936e-01,3.86169e-01,9.99999e-01,9.99999e-01,9.99999e-01,3.86169e-01,9.99999e-01
7.313974871e-01,3.93496e-01,9.99999e-01,9.99999e-01,9.99999e-01,3.93496e-01,9.99999e-01
7.350544745e-01,4.00812e-01,9.99999e-01,9.99999e-01,9.99999e-01,4.00812e-01,9.99999e-01
7.387297469e-01,4.08116e-01,9.99999e-01,9.99999e-01,9.99999e-01,4.08116e-01,9.99999e-01
7.424233956e-01,4.15405e-01,9.99999e-01,9.99999e-01,9.99999e-01,4.15405e-01,9.99999e-01
7.461355126e-01,4.22676e-01,9.99999e-01,9.99999e-01,9.99999e-01,4.22676e-01,9.99999e-01
7.498661902e-01,4.29927e-01,9.99999e-01,9.99999e-01,9.99999e-01,4.29927e-01,9.99999e-01
7.536155211e-01,4.37156e-01,9.99999e-01,9.99999e-01,9.99999e-01,4.37156e-01,9.99999e-01
7.573835987e-01,4.44360e-01,9.99999e-01,9.99999e-01,9.99999e-01,4.44360e-01,9.99999e-01
7.611705167e-01,4.51537e-01,9.99999e-01,9.99999e-01,9.99999e-01,4.51537e-01,9.99999e-01
7.649763693e-01,4.58684e-01,9.99999e-01,9.99999e-01,9.99999e-01,4.58684e-01,9.99999e-01
7.688012511e-01,4.65800e-01,9.99999e-01,9.99999e-01,9.99999e-01,4.65800e-01,9.99999e-01
7.726452574e-01,4.72883e-01,9.99999e-01,9.99999e-01,9.99999e-01,4.72883e-01,9.99999e-01
7.765084837e-01,4.79930e-01,9.99999e-01,9.99999e-01,9.99999e-01,4.79930e-01,9.99999e-01
7.803910261e-01,4.69879e-01,9.99999e-01,9.99999e-01,9.64962e-01,4.86940e-01,9.99999e-01
7.842929812e-01,4.25726e-01,9.99999e-01,9.99999e-01,8.61948e-01,4.93911e-01,9.99999e-01
7.882144461e-01,4.26607e-01,9.99999e-01,9.99999e-01,8.51782e-01,5.00841e-01,9.99999e-01
7.921555184e-01,4.62374e-01,9.99999e-01,9.99999e-01,9.10672e-01,5.07728e-01,9.99999e-01
7.961162960e-01,4.83616e-01,9.99999e-01,9.99999e-01,9.39841e-01,5.14572e-01,9.99999e-01
8.000968774e-01,5.04087e-01,9.99999e-01,9.99999e-01,9.66851e-01,5.21369e-01,9.99999e-01
8.040973618e-01,5.19022e-01,9.99999e-01,9.99999e-01,9.82772e-01,5.28120e-01,9.99999e-01
8.081178486e-01,5.30554e-01,9.99999e-01,9.99999e-01,9.92019e-01,5.34822e-01,9.99999e-01
8.121584379e-01,5.40153e-01,9.99999e-01,9.99999e-01,9.97559e-01,5.41474e-01,9.99999e-01
8.162192301e-01,5.47780e-01,9.99999e-01,9.99999e-01,9.99459e-01,5.48075e-01,9.99999e-01
8.203003262e-01,5.54620e-01,9.99999e-01,9.99999e-01,9.99992e-01,5.54624e-01,9.99999e-01
8.244018279e-01,5.61120e-01,9.99999e-01,9.99999e-01,9.99999e-01,5.61120e-01,9.99999e-01
8.285238370e-01,5.67561e-01,9.99999e-01,9.99999e-01,9.99999e-01,5.67561e-01,9.99999e-01
8.326664562e-01,5.73946e-01,9.99999e-01,9.99999e-01,9.99999e-01,5.73946e-01,9.99999e-01
8.368297885e-01,5.80275e-01,9.99999e-01,9.99999e-01,9.99999e-01,5.80275e-01,9.99999e-01
8.410139374e-01,5.86547e-01,9.99999e-01,9.99999e-01,9.99999e-01,5.86547e-01,9.99999e-01
8.452190071e-01,5.92761e-01,9.99999e-01,9.99999e-01,9.99999e-01,5.92761e-01,9.99999e-01
8.494451021e-01,5.98915e-01,9.99999e-01,9.99999e-01,9.99999e-01,5.98915e-01,9.99999e-01
8.536923276e-01,6.05011e-01,9.99999e-01,9.99999e-01,9.99999e-01,6.05011e-01,9.99999e-01
8.579607893e-01,6.11046e-01,9.99999e-01,9.99999e-01,9.99999e-01,6.11046e-01,9.99999e-01
8.622505932e-01,6.17020e-01,9.99999e-01,9.99999e-01,9.99999e-01,6.17020e-01,9.99999e-01
8.665618462e-01,5.74842e-01,9.99999e-01,9.99999e-01,9.22798e-01,6.22933e-01,9.99999e-01
8.708946554e-01,4.29979e-01,9.99999e-01,9.99999e-01,6.83825e-01,6.28784e-01,9.99999e-01
8.752491287e-01,4.67972e-01,9.99999e-01,9.99999e-01,7.37459e-01,6.34573e-01,9.99999e-01
8.796253743e-01,5.41826e-01,9.99999e-01,9.99999e-01,8.46206e-01,6.40300e-01,9.99999e-01
8.840235012e-01,5.92390e-01,9.99999e-01,9.99999e-01,9.17063e-01,6.45963e-01,9.99999e-01
8.884436187e-01,6.29811e-01,9.99999e-01,9.99999e-01,9.66615e-01,6.51563e-01,9.99999e-01
8.928858368e-01,6.48110e-01,9.99999e-01,9.99999e-01,9.86318e-01,6.57100e-01,9.99999e-01
8.973502660e-01,6.60375e-01,9.99999e-01,9.99999e-01,9.96682e-01,6.62573e-01,9.99999e-01
9.018370173e-01,6.67739e-01,9.99999e-01,9.99999e-01,9.99635e-01,6.67982e-01,9.99999e-01
9.063462024e-01,6.66777e-01,9.99999e-01,9.99999e-01,9.90271e-01,6.73327e-01,9.99999e-01
9.108779334e-01,6.63965e-01,9.99999e-01,9.99999e-01,9.78421e-01,6.78608e-01,9.99999e-01
9.154323231e-01,6.80380e-01,9.99999e-01,9.99999e-01,9.94961e-01,6.83825e-01,9.99999e-01
9.200094847e-01,6.38498e-01,9.99999e-01,9.99999e-01,9.26732e-01,6.88978e-01,9.99999e-01
9.246095321e-01,6.23680e-01,9.99999e-01,9.99999e-01,8.98588e-01,6.94066e-01,9.99999e-01
9.292325798e-01,6.42201e-01,9.99999e-01,9.99999e-01,9.18622e-01,6.99091e-01,9.99999e-01
9.338787427e-01,6.49246e-01,9.99999e-01,9.99999e-01,9.22156e-01,7.04052e-01,9.99999e-01
9.385481364e-01,6.67942e-01,9.99999e-01,9.99999e-01,9.42157e-01,7.08949e-01,9.99999e-01
9.432408771e-01,6.88294e-01,9.99999e-01,9.99999e-01,9.64291e-01,7.13782e-01,9.99999e-01
9.479570815e-01,7.05243e-01,9.99999e-01,9.99999e-01,9.81477e-01,7.18551e-01,9.99999e-01
9.526968669e-01,7.16786e-01,9.99999e-01,9.99999e-01,9.91050e-01,7.23258e-01,9.99999e-01
9.574603512e-01,7.25112e-01,9.99999e-01,9.99999e-01,9.96168e-01,7.27901e-01,9.99999e-01
9.622476530e-01,7.31607e-01,9.99999e-01,9.99999e-01,9.98805e-01,7.32482e-01,9.99999e-01
9.670588912e-01,7.36737e-01,9.99999e-01,9.99999e-01,9.99642e-01,7.37000e-01,9.99999e-01
9.718941857e-01,7.41438e-01,9.99999e-01,9.99999e-01,9.99975e-01,7.41456e-01,9.99999e-01
9.767536566e-01,7.45850e-01,9.99999e-01,9.99999e-01,9.99999e-01,7.45850e-01,9.99999e-01
9.816374249e-01,7.50182e-01,9.99999e-01,9.99999e-01,9.99999e-01,7.50182e-01,9.99999e-01
9.865456120e-01,7.54454e-01,9.99999e-01,9.99999e-01,9.99999e-01,7.54454e-01,9.99999e-01
9.914783401e-01,7.58664e-01,9.99999e-01,9.99999e-01,9.99999e-01,7.58664e-01,9.99999e-01
9.964357318e-01,7.62815e-01,9.99999e-01,9.99999e-01,9.99999e-01,7.62815e-01,9.99999e-01
1.001417910e+00,7.66905e-01,9.99999e-01,9.99999e-01,9.99999e-01,7.66905e-01,9.99999e-01
1.006425000e+00,7.70936e-01,9.99999e-01,9.99999e-01,9.99999e-01,7.70936e-01,9.99999e-01
1.011457125e+00,7.74907e-01,9.99999e-01,9.99999e-01,9.99999e-01,7.74907e-01,9.99999e-01
1.016514411e+00,7.78820e-01,9.99999e-01,9.99999e-01,9.99999e-01,7.78820e-01,9.99999e-01
1.021596983e+00,7.82629e-01,9.99999e-01,9.99999e-01,9.99940e-01,7.82675e-01,9.99999e-01
1.026704968e+00,7.83468e-01,9.99999e-01,9.99999e-01,9.96178e-01,7.86473e-01,9.99999e-01
1.031838492e+00,7.52401e-01,9.99999e-01,9.99999e-01,9.52148e-01,7.90213e-01,9.99999e-01
1.036997685e+00,1.20501e-01,9.99999e-01,9.99999e-01,1.51784e-01,7.93897e-01,9.99999e-01
1.042182673e+00,9.84171e-02,9.99999e-01,9.99999e-01,1.23403e-01,7.97524e-01,9.99999e-01
1.047393587e+00,1.13729e-01,9.99999e-01,9.99999e-01,1.41966e-01,8.01096e-01,9.99999e-01
1.052630555e+00,3.30100e-03,9.99999e-01,9.99999e-01,4.10259e-03,8.04613e-01,9.99999e-01
1.057893707e+00,8.56307e-03,9.99999e-01,9.99999e-01,1.05969e-02,8.08076e-01,9.99999e-01
1.063183176e+00,2.82966e-02,9.99999e-01,9.99999e-01,3.48702e-02,8.11484e-01,9.99999e-01
1.068499092e+00,7.85319e-02,9.99999e-01,9.99999e-01,9.63771e-02,8.14839e-01,9.99999e-01
1.073841587e+00,1.87468e-01,9.99999e-01,9.99999e-01,2.29138e-01,8.18142e-01,9.99999e-01
1.079210795e+00,3.23032e-01,9.99999e-01,9.99999e-01,3.93273e-01,8.21392e-01,9.99999e-01
1.084606849e+00,4.93839e-01,9.99999e-01,9.99999e-01,5.98889e-01,8.24590e-01,9.99999e-01
1.090029883e+00,6.34081e-01,9.99999e-01,9.99999e-01,7.66040e-01,8.27738e-01,9.99999e-01
1.095480033e+00,7.28773e-01,9.99999e-01,9.99999e-01,8.77157e-01,8.30835e-01,9.99999e-01
1.100957433e+00,7.82825e-01,9.99999e-01,9.99999e-01,9.38772e-01,8.33882e-01,9.99999e-01
1.106462220e+00,8.15341e-01,9.99999e-01,9.99999e-01,9.74263e-01,8.36879e-01,9.99999e-01
1.111994531e+00,8.31751e-01,9.99999e-01,9.99999e-01,9.90381e-01,8.39828e-01,9.99999e-01
1.117554504e+00,8.40756e-01,9.99999e-01,9.99999e-01,9.97658e-01,8.42729e-01,9.99999e-01
1.123142276e+00,8.45453e-01,9.99999e-01,9.99999e-01,9.99847e-01,8.45582e-01,9.99999e-01
1.128757988e+00,8.48388e-01,9.99999e-01,9.99999e-01,9.99999e-01,8.48388e-01,9.99999e-01
1.134401778e+00,8.51148e-01,9.99999e-01,9.99999e-01,9.99999e-01,8.51148e-01,9.99999e-01
1.140073787e+00,8.53861e-01,9.99999e-01,9.99999e-01,9.99999e-01,8.53861e-01,9.99999e-01
1.145774156e+00,8.56530e-01,9.99999e-01,9.99999e-01,9.99999e-01,8.56530e-01,9.99999e-01
1.151503026e+00,8.59154e-01,9.99999e-01,9.99999e-01,9.99999e-01,8.59154e-01,9.99999e-01
1.157260541e+00,8.61734e-01,9.99999e-01,9.99999e-01,9.99999e-01,8.61734e-01,9.99999e-01
1.163046844e+00,8.64271e-01,9.99999e-01,9.99999e-01,9.99999e-01,8.64271e-01,9.99999e-01
1.168862078e+00,8.66765e-01,9.99999e-01,9.99999e-01,9.99999e-01,8.66765e-01,9.99999e-01
1.174706389e+00,8.69216e-01,9.99999e-01,9.99999e-01,9.99999e-01,8.69216e-01,9.99999e-01
1.180579921e+00,8.71626e-01,9.99999e-01,9.99999e-01,9.99999e-01,8.71626e-01,9.99999e-01
1.186482820e+00,8.73987e-01,9.99999e-01,9.99999e-01,9.99990e-01,8.73995e-01,9.99999e-01
1.192415234e+00,8.64354e-01,9.99999e-01,9.99999e-01,9.86341e-01,8.76323e-01,9.99999e-01
1.198377311e+00,4.92456e-01,9.99999e-01,9.99999e-01,5.60493e-01,8.78611e-01,9.99999e-01
1.204369197e+00,3.87998e-11,9.99999e-01,9.99999e-01,4.40476e-11,8.80860e-01,9.99999e-01
1.210391043e+00,1.96297e-40,9.99999e-01,9.99999e-01,2.22289e-40,8.83070e-01,9.99999e-01
1.216442998e+00,3.40029e-35,9.99999e-01,9.99999e-01,3.84108e-35,8.85242e-01,9.99999e-01
1.222525213e+00,1.08936e-34,9.99999e-01,9.99999e-01,1.22762e-34,8.87375e-01,9.99999e-01
1.228637839e+00,7.18503e-27,9.99999e-01,9.99999e-01,8.07785e-27,8.89472e-01,9.99999e-01
