#,Wave/freq,Total,N2,O2,CO2,Rayleigh,CIA
4.000000000e-01,1.21142e-03,9.99999e-01,9.99999e-01,9.99999e-01,1.21142e-03,9.99999e-01
4.020000000e-01,1.38346e-03,9.99999e-01,9.99999e-01,9.99999e-01,1.38346e-03,9.99999e-01
4.040100000e-01,1.57558e-03,9.99999e-01,9.99999e-01,9.99999e-01,1.57558e-03,9.99999e-01
4.060300500e-01,1.78977e-03,9.99999e-01,9.99999e-01,9.99999e-01,1.78977e-03,9.99999e-01
4.080602003e-01,2.02797e-03,9.99999e-01,9.99999e-01,9.99999e-01,2.02797e-03,9.99999e-01
4.101005013e-01,2.29220e-03,9.99999e-01,9.99999e-01,9.99999e-01,2.29220e-03,9.99999e-01
4.121510038e-01,2.58461e-03,9.99999e-01,9.99999e-01,9.99999e-01,2.58461e-03,9.99999e-01
4.142117588e-01,2.90741e-03,9.99999e-01,9.99999e-01,9.99999e-01,2.90741e-03,9.99999e-01
4.162828176e-01,3.26294e-03,9.99999e-01,9.99999e-01,9.99999e-01,3.26294e-03,9.99999e-01
4.183642317e-01,3.65360e-03,9.99999e-01,9.99999e-01,9.99999e-01,3.65360e-03,9.99999e-01
4.204560528e-01,4.08191e-03,9.99999e-01,9.99999e-01,9.99999e-01,4.08191e-03,9.99999e-01
4.225583331e-01,4.55045e-03,9.99999e-01,9.99999e-01,9.99999e-01,4.55045e-03,9.99999e-01
4.246711247e-01,5.06190e-03,9.99999e-01,9.99999e-01,9.99999e-01,5.06190e-03,9.99999e-01
4.267944804e-01,5.61900e-03,9.99999e-01,9.99999e-01,9.99999e-01,5.61900e-03,9.99999e-01
4.289284528e-01,6.22456e-03,9.99999e-01,9.99999e-01,9.99999e-01,6.22456e-03,9.99999e-01
4.310730950e-01,6.88146e-03,9.99999e-01,9.99999e-01,9.99999e-01,6.88146e-03,9.99999e-01
4.332284605e-01,7.59263e-03,9.99999e-01,9.99999e-01,9.99999e-01,7.59263e-03,9.99999e-01
4.353946028e-01,8.36102e-03,9.99999e-01,9.99999e-01,9.99999e-01,8.36102e-03,9.99999e-01
4.375715758e-01,9.18967e-03,9.99999e-01,9.99999e-01,9.99999e-01,9.18967e-03,9.99999e-01
4.397594337e-01,1.00816e-02,9.99999e-01,9.99999e-01,9.99999e-01,1.00816e-02,9.99999e-01
4.419582309e-01,1.10399e-02,9.99999e-01,9.99999e-01,9.99999e-01,1.10399e-02,9.99999e-01
4.441680220e-01,1.20676e-02,9.99999e-01,9.99999e-01,9.99999e-01,1.20676e-02,9.99999e-01
4.463888621e-01,1.31678e-02,9.99999e-01,9.99999e-01,9.99999e-01,1.31678e-02,9.99999e-01
4.486208064e-01,1.43436e-02,9.99999e-01,9.99999e-01,9.99999e-01,1.43436e-02,9.99999e-01
4.508639105e-01,1.55980e-02,9.99999e-01,9.99999e-01,9.99999e-01,1.55980e-02,9.99999e-01
4.531182300e-01,1.69340e-02,9.99999e-01,9.99999e-01,9.99999e-01,1.69340e-02,9.99999e-01
4.553838212e-01,1.83547e-02,9.99999e-01,9.99999e-01,9.99999e-01,1.83547e-02,9.99999e-01
4.576607403e-01,1.98629e-02,9.99999e-01,9.99999e-01,9.99999e-01,1.98629e-02,9.99999e-01
4.599490440e-01,2.14615e-02,9.99999e-01,9.99999e-01,9.99999e-01,2.14615e-02,9.99999e-01
4.622487892e-01,2.31533e-02,9.99999e-01,9.99999e-01,9.99999e-01,2.31533e-02,9.99999e-01
4.645600332e-01,2.49412e-02,9.99999e-01,9.99999e-01,9.99999e-01,2.49412e-02,9.99999e-01
4.668828333e-01,2.68276e-02,9.99999e-01,9.99999e-01,9.99999e-01,2.68276e-02,9.99999e-01
4.692172475e-01,2.88151e-02,9.99999e-01,9.99999e-01,9.99999e-01,2.88151e-02,9.99999e-01
4.715633337e-01,3.09063e-02,9.99999e-01,9.99999e-01,9.99999e-01,3.09063e-02,9.99999e-01
4.739211504e-01,3.31034e-02,9.99999e-01,9.99999e-01,9.99999e-01,3.31034e-02,9.99999e-01
4.762907561e-01,3.54086e-02,9.99999e-01,9.99999e-01,9.99999e-01,3.54086e-02,9.99999e-01
4.786722099e-01,3.78240e-02,9.99999e-01,9.99999e-01,9.99999e-01,3.78240e-02,9.99999e-01
4.810655710e-01,4.03515e-02,9.99999e-01,9.99999e-01,9.99999e-01,4.03515e-02,9.99999e-01
4.834708988e-01,4.29930e-02,9.99999e-01,9.99999e-01,9.99999e-01,4.29930e-02,9.99999e-01
4.858882533e-01,4.57500e-02,9.99999e-01,9.99999e-01,9.99999e-01,4.57500e-02,9.99999e-01
4.883176946e-01,4.86241e-02,9.99999e-01,9.99999e-01,9.99999e-01,4.86241e-02,9.99999e-01
4.907592831e-01,5.16167e-02,9.99999e-01,9.99999e-01,9.99999e-01,5.16167e-02,9.99999e-01
4.932130795e-01,5.47287e-02,9.99999e-01,9.99999e-01,9.99999e-01,5.47287e-02,9.99999e-01
4.956791449e-01,5.79614e-02,9.99999e-01,9.99999e-01,9.99999e-01,5.79614e-02,9.99999e-01
4.981575406e-01,6.13154e-02,9.99999e-01,9.99999e-01,9.99999e-01,6.13154e-02,9.99999e-01
5.006483283e-01,6.47916e-02,9.99999e-01,9.99999e-01,9.99999e-01,6.47916e-02,9.99999e-01
5.031515699e-01,6.83902e-02,9.99999e-01,9.99999e-01,9.99999e-01,6.83902e-02,9.99999e-01
5.056673278e-01,7.21117e-02,9.99999e-01,9.99999e-01,9.99999e-01,7.21117e-02,9.99999e-01
5.081956644e-01,7.59561e-02,9.99999e-01,9.99999e-01,9.99999e-01,7.59561e-02,9.99999e-01
5.107366428e-01,7.99235e-02,9.99999e-01,9.99999e-01,9.99999e-01,7.99235e-02,9.99999e-01
5.132903260e-01,8.40136e-02,9.99999e-01,9.99999e-01,9.99999e-01,8.40136e-02,9.99999e-01
5.158567776e-01,8.82259e-02,9.99999e-01,9.99999e-01,9.99999e-01,8.82259e-02,9.99999e-01
5.184360615e-01,9.25600e-02,9.99999e-01,9.99999e-01,9.99999e-01,9.25600e-02,9.99999e-01
5.210282418e-01,9.70150e-02,9.99999e-01,9.99999e-01,9.99999e-01,9.70150e-02,9.99999e-01
5.236333830e-01,1.01590e-01,9.99999e-01,9.99999e-01,9.99999e-01,1.01590e-01,9.99999e-01
5.262515499e-01,1.06284e-01,9.99999e-01,9.99999e-01,9.99999e-01,1.06284e-01,9.99999e-01
5.288828077e-01,1.11096e-01,9.99999e-01,9.99999e-01,9.99999e-01,1.11096e-01,9.99999e-01
5.315272217e-01,1.16024e-01,9.99999e-01,9.99999e-01,9.99999e-01,1.16024e-01,9.99999e-01
5.341848578e-01,1.21067e-01,9.99999e-01,9.99999e-01,9.99999e-01,1.21067e-01,9.99999e-01
5.368557821e-01,1.26223e-01,9.99999e-01,9.99999e-01,9.99999e-01,1.26223e-01,9.99999e-01
5.395400610e-01,1.31490e-01,9.99999e-01,9.99999e-01,9.99999e-01,1.31490e-01,9.99999e-01
5.422377613e-01,1.36866e-01,9.99999e-01,9.99999e-01,9.99999e-01,1.36866e-01,9.99999e-01
5.449489501e-01,1.42350e-01,9.99999e-01,9.99999e-01,9.99999e-01,1.42350e-01,9.99999e-01
5.476736949e-01,1.47938e-01,9.99999e-01,9.99999e-01,9.99999e-01,1.47938e-01,9.99999e-01
5.504120634e-01,1.53629e-01,9.99999e-01,9.99999e-01,9.99999e-01,1.53629e-01,9.99999e-01
5.531641237e-01,1.59420e-01,9.99999e-01,9.99999e-01,9.99999e-01,1.59420e-01,9.99999e-01
5.559299443e-01,1.65308e-01,9.99999e-01,9.99999e-01,9.99999e-01,1.65308e-01,9.99999e-01
5.587095940e-01,1.71291e-01,9.99999e-01,9.99999e-01,9.99999e-01,1.71291e-01,9.99999e-01
5.615031420e-01,1.77366e-01,9.99999e-01,9.99999e-01,9.99999e-01,1.77366e-01,9.99999e-01
5.643106577e-01,1.83530e-01,9.99999e-01,9.99999e-01,9.99999e-01,1.83530e-01,9.99999e-01
5.671322110e-01,1.89780e-01,9.99999e-01,9.99999e-01,9.99999e-01,1.89780e-01,9.99999e-01
5.699678720e-01,1.96113e-01,9.99999e-01,9.99999e-01,9.99999e-01,1.96113e-01,9.99999e-01
5.728177114e-01,2.02526e-01,9.99999e-01,9.99999e-01,9.99999e-01,2.02526e-01,9.99999e-01
5.756818000e-01,2.09016e-01,9.99999e-01,9.99999e-01,9.99999e-01,2.09016e-01,9.99999e-01
5.785602090e-01,2.15580e-01,9.99999e-01,9.99999e-01,9.99999e-01,2.15580e-01,9.99999e-01
5.814530100e-01,2.22214e-01,9.99999e-01,9.99999e-01,9.99999e-01,2.22214e-01,9.99999e-01
5.843602750e-01,2.28915e-01,9.99999e-01,9.99999e-01,9.99999e-01,2.28915e-01,9.99999e-01
5.872820764e-01,2.35680e-01,9.99999e-01,9.99999e-01,9.99999e-01,2.35680e-01,9.99999e-01
5.902184868e-01,2.42505e-01,9.99999e-01,9.99999e-01,9.99999e-01,2.42505e-01,9.99999e-01
5.931695792e-01,2.49387e-01,9.99999e-01,9.99999e-01,9.99999e-01,2.49387e-01,9.99999e-01
5.961354271e-01,2.56323e-01,9.99999e-01,9.99999e-01,9.99999e-01,2.56323e-01,9.99999e-01
5.991161043e-01,2.63309e-01,9.99999e-01,9.99999e-01,9.99999e-01,2.63309e-01,9.99999e-01
6.021116848e-01,2.70341e-01,9.99999e-01,9.99999e-01,9.99999e-01,2.70341e-01,9.99999e-01
6.051222432e-01,2.77417e-01,9.99999e-01,9.99999e-01,9.99999e-01,2.77417e-01,9.99999e-01
6.081478544e-01,2.84533e-01,9.99999e-01,9.99999e-01,9.99999e-01,2.84533e-01,9.99999e-01
6.111885937e-01,2.91686e-01,9.99999e-01,9.99999e-01,9.99999e-01,2.91686e-01,9.99999e-01
6.142445367e-01,2.98871e-01,9.99999e-01,9.99999e-01,9.99999e-01,2.98871e-01,9.99999e-01
6.173157594e-01,3.06087e-01,9.99999e-01,9.99999e-01,9.99999e-01,3.06087e-01,9.99999e-01
6.204023382e-01,3.13329e-01,9.99999e-01,9.99999e-01,9.99999e-01,3.13329e-01,9.99999e-01
6.235043498e-01,3.20594e-01,9.99999e-01,9.99999e-01,9.99999e-01,3.20594e-01,9.99999e-01
6.266218716e-01,3.27880e-01,9.99999e-01,9.99999e-01,9.99999e-01,3.27880e-01,9.99999e-01
6.297549810e-01,3.35182e-01,9.99999e-01,9.99999e-01,9.99999e-01,3.35182e-01,9.99999e-01
6.329037559e-01,3.42497e-01,9.99999e-01,9.99999e-01,9.99999e-01,3.42497e-01,9.99999e-01
6.360682746e-01,3.49823e-01,9.99999e-01,9.99999e-01,9.99999e-01,3.49823e-01,9.99999e-01
6.392486160e-01,3.57157e-01,9.99999e-01,9.99999e-01,9.99999e-01,3.57157e-01,9.99999e-01
6.424448591e-01,3.64495e-01,9.99999e-01,9.99999e-01,9.99999e-01,3.64495e-01,9.99999e-01
6.456570834e-01,3.71834e-01,9.99999e-01,9.99999e-01,9.99999e-01,3.71834e-01,9.99999e-01
6.488853688e-01,3.79171e-01,9.99999e-01,9.99999e-01,9.99999e-01,3.79171e-01,9.99999e-01
6.521297956e-01,3.86504e-01,9.99999e-01,9.99999e-01,9.99999e-01,3.86504e-01,9.99999e-01
6.553904446e-01,3.93830e-01,9.99999e-01,9.99999e-01,9.99999e-01,3.93830e-01,9.99999e-01
6.586673968e-01,4.01146e-01,9.99999e-01,9.99999e-01,9.99999e-01,4.01146e-01,9.99999e-01
6.619607338e-01,4.08450e-01,9.99999e-01,9.99999e-01,9.99999e-01,4.08450e-01,9.99999e-01
6.652705375e-01,4.15738e-01,9.99999e-01,9.99999e-01,9.99999e-01,4.15738e-01,9.99999e-01
6.685968902e-01,4.23008e-01,9.99999e-01,9.99999e-01,9.99999e-01,4.23008e-01,9.99999e-01
6.719398746e-01,4.30258e-01,9.99999e-01,9.99999e-01,9.99999e-01,4.30258e-01,9.99999e-01
6.752995740e-01,4.37486e-01,9.99999e-01,9.99999e-01,9.99999e-01,4.37486e-01,9.99999e-01
6.786760719e-01,4.44688e-01,9.99999e-01,9.99999e-01,9.99999e-01,4.44688e-01,9.99999e-01
6.820694522e-01,4.51864e-01,9.99999e-01,9.99999e-01,9.99999e-01,4.51864e-01,9.99999e-01
6.854797995e-01,4.59010e-01,9.99999e-01,9.99999e-01,9.99999e-01,4.59010e-01,9.99999e-01
6.889071985e-01,4.66124e-01,9.99999e-01,9.99999e-01,9.99999e-01,4.66124e-01,9.99999e-01
6.923517345e-01,4.73206e-01,9.99999e-01,9.99999e-01,9.99999e-01,4.73206e-01,9.99999e-01
6.958134932e-01,4.80251e-01,9.99999e-01,9.99999e-01,9.99999e-01,4.80251e-01,9.99999e-01
6.992925606e-01,4.87259e-01,9.99999e-01,9.99999e-01,9.99999e-01,4.87259e-01,9.99999e-01
7.027890234e-01,4.94228e-01,9.99999e-01,9.99999e-01,9.99999e-01,4.94228e-01,9.99999e-01
7.063029686e-01,5.01156e-01,9.99999e-01,9.99999e-01,9.99999e-01,5.01156e-01,9.99999e-01
7.098344834e-01,5.08042e-01,9.99999e-01,9.99999e-01,9.99999e-01,5.08042e-01,9.99999e-01
7.133836558e-01,5.14883e-01,9.99999e-01,9.99999e-01,9.99999e-01,5.14883e-01,9.99999e-01
7.169505741e-01,5.21679e-01,9.99999e-01,9.99999e-01,9.99999e-01,5.21679e-01,9.99999e-01
7.205353270e-01,5.28427e-01,9.99999e-01,9.99999e-01,9.99999e-01,5.28427e-01,9.99999e-01
7.241380036e-01,5.35127e-01,9.99999e-01,9.99999e-01,9.99999e-01,5.35127e-01,9.99999e-01
7.277586936e-01,5.41777e-01,9.99999e-01,9.99999e-01,9.99999e-01,5.41777e-01,9.99999e-01
7.313974871e-01,5.48376e-01,9.99999e-01,9.99999e-01,9.99999e-01,5.48376e-01,9.99999e-01
7.350544745e-01,5.54922e-01,9.99999e-01,9.99999e-01,9.99999e-01,5.54922e-01,9.99999e-01
7.387297469e-01,5.61415e-01,9.99999e-01,9.99999e-01,9.99999e-01,5.61415e-01,9.99999e-01
7.424233956e-01,5.67854e-01,9.99999e-01,9.99999e-01,9.99999e-01,5.67854e-01,9.99999e-01
7.461355126e-01,5.74237e-01,9.99999e-01,9.99999e-01,9.99999e-01,5.74237e-01,9.99999e-01
7.498661902e-01,5.80563e-01,9.99999e-01,9.99999e-01,9.99999e-01,5.80563e-01,9.99999e-01
7.536155211e-01,5.86832e-01,9.99999e-01,9.99999e-01,9.99999e-01,5.86832e-01,9.99999e-01
7.573835987e-01,5.93043e-01,9.99999e-01,9.99999e-01,9.99999e-01,5.93043e-01,9.99999e-01
7.611705167e-01,5.99195e-01,9.99999e-01,9.99999e-01,9.99999e-01,5.99195e-01,9.99999e-01
7.649763693e-01,6.05288e-01,9.99999e-01,9.99999e-01,9.99999e-01,6.05288e-01,9.99999e-01
7.688012511e-01,6.11320e-01,9.99999e-01,9.99999e-01,9.99999e-01,6.11320e-01,9.99999e-01
7.726452574e-01,6.17292e-01,9.99999e-01,9.99999e-01,9.99999e-01,6.17292e-01,9.99999e-01
7.765084837e-01,6.23202e-01,9.99999e-01,9.99999e-01,9.99999e-01,6.23202e-01,9.99999e-01
7.803910261e-01,6.15232e-01,9.99999e-01,9.99999e-01,9.78032e-01,6.29050e-01,9.99999e-01
7.842929812e-01,5.75785e-01,9.99999e-01,9.99999e-01,9.06981e-01,6.34836e-01,9.99999e-01
7.882144461e-01,5.76980e-01,9.99999e-01,9.99999e-01,9.00743e-01,6.40560e-01,9.99999e-01
7.921555184e-01,6.08419e-01,9.99999e-01,9.99999e-01,9.41502e-01,6.46220e-01,9.99999e-01
7.961162960e-01,6.26016e-01,9.99999e-01,9.99999e-01,9.60415e-01,6.51818e-01,9.99999e-01
8.000968774e-01,6.43135e-01,9.99999e-01,9.99999e-01,9.78372e-01,6.57351e-01,9.99999e-01
8.040973618e-01,6.55348e-01,9.99999e-01,9.99999e-01,9.88724e-01,6.62821e-01,9.99999e-01
8.081178486e-01,6.64766e-01,9.99999e-01,9.99999e-01,9.94819e-01,6.68228e-01,9.99999e-01
8.121584379e-01,6.72487e-01,9.99999e-01,9.99999e-01,9.98391e-01,6.73570e-01,9.99999e-01
8.162192301e-01,6.78607e-01,9.99999e-01,9.99999e-01,9.99644e-01,6.78848e-01,9.99999e-01
8.203003262e-01,6.84058e-01,9.99999e-01,9.99999e-01,9.99993e-01,6.84062e-01,9.99999e-01
8.244018279e-01,6.89212e-01,9.99999e-01,9.99999e-01,9.99999e-01,6.89212e-01,9.99999e-01
8.285238370e-01,6.94297e-01,9.99999e-01,9.99999e-01,9.99999e-01,6.94297e-01,9.99999e-01
8.326664562e-01,6.99319e-01,9.99999e-01,9.99999e-01,9.99999e-01,6.99319e-01,9.99999e-01
8.368297885e-01,7.04277e-01,9.99999e-01,9.99999e-01,9.99999e-01,7.04277e-01,9.99999e-01
8.410139374e-01,7.09171e-01,9.99999e-01,9.99999e-01,9.99999e-01,7.09171e-01,9.99999e-01
8.452190071e-01,7.14001e-01,9.99999e-01,9.99999e-01,9.99999e-01,7.14001e-01,9.99999e-01
8.494451021e-01,7.18768e-01,9.99999e-01,9.99999e-01,9.99999e-01,7.18768e-01,9.99999e-01
8.536923276e-01,7.23471e-01,9.99999e-01,9.99999e-01,9.99999e-01,7.23471e-01,9.99999e-01
8.579607893e-01,7.28112e-01,9.99999e-01,9.99999e-01,9.99999e-01,7.28112e-01,9.99999e-01
8.622505932e-01,7.32690e-01,9.99999e-01,9.99999e-01,9.99999e-01,7.32690e-01,9.99999e-01
8.665618462e-01,6.96688e-01,9.99999e-01,9.99999e-01,9.45039e-01,7.37205e-01,9.99999e-01
8.708946554e-01,5.77561e-01,9.99999e-01,9.99999e-01,7.78742e-01,7.41658e-01,9.99999e-01
8.752491287e-01,6.10820e-01,9.99999e-01,9.99999e-01,8.18739e-01,7.46049e-01,9.99999e-01
8.796253743e-01,6.72825e-01,9.99999e-01,9.99999e-01,8.96646e-01,7.50379e-01,9.99999e-01
8.840235012e-01,7.13302e-01,9.99999e-01,9.99999e-01,9.45211e-01,7.54648e-01,9.99999e-01
8.884436187e-01,7.42189e-01,9.99999e-01,9.99999e-01,9.78037e-01,7.58855e-01,9.99999e-01
8.928858368e-01,7.56183e-01,9.99999e-01,9.99999e-01,9.91060e-01,7.63003e-01,9.99999e-01
8.973502660e-01,7.65416e-01,9.99999e-01,9.99999e-01,9.97816e-01,7.67090e-01,9.99999e-01
9.018370173e-01,7.70933e-01,9.99999e-01,9.99999e-01,9.99758e-01,7.71118e-01,9.99999e-01
9.063462024e-01,7.70351e-01,9.99999e-01,9.99999e-01,9.93889e-01,7.75087e-01,9.99999e-01
9.108779334e-01,7.68040e-01,9.99999e-01,9.99999e-01,9.85932e-01,7.78998e-01,9.99999e-01
9.154323231e-01,7.80244e-01,9.99999e-01,9.99999e-01,9.96669e-01,7.82850e-01,9.99999e-01
9.200094847e-01,7.48865e-01,9.99999e-01,9.99999e-01,9.51972e-01,7.86645e-01,9.99999e-01
9.246095321e-01,7.37390e-01,9.99999e-01,9.99999e-01,9.32952e-01,7.90383e-01,9.99999e-01
9.292325798e-01,7.52062e-01,9.99999e-01,9.99999e-01,9.47104e-01,7.94064e-01,9.99999e-01
9.338787427e-01,7.56793e-01,9.99999e-01,9.99999e-01,9.48731e-01,7.97689e-01,9.99999e-01
9.385481364e-01,7.70920e-01,9.99999e-01,9.99999e-01,9.62136e-01,8.01258e-01,9.99999e-01
9.432408771e-01,7.85979e-01,9.99999e-01,9.99999e-01,9.76646e-01,8.04773e-01,9.99999e-01
9.479570815e-01,7.98507e-01,9.99999e-01,9.99999e-01,9.87966e-01,8.08233e-01,9.99999e-01
9.526968669e-01,8.06912e-01,9.99999e-01,9.99999e-01,9.94175e-01,8.11639e-01,9.99999e-01
9.574603512e-01,8.12959e-01,9.99999e-01,9.99999e-01,9.97505e-01,8.14992e-01,9.99999e-01
9.622476530e-01,8.17654e-01,9.99999e-01,9.99999e-01,9.99220e-01,8.18291e-01,9.99999e-01
9.670588912e-01,8.21347e-01,9.99999e-01,9.99999e-01,9.99766e-01,8.21539e-01,9.99999e-01
9.718941857e-01,8.24722e-01,9.99999e-01,9.99999e-01,9.99982e-01,8.24735e-01,9.99999e-01
9.767536566e-01,8.27880e-01,9.99999e-01,9.99999e-01,9.99999e-01,8.27880e-01,9.99999e-01
9.816374249e-01,8.30975e-01,9.99999e-01,9.99999e-01,9.99999e-01,8.30975e-01,9.99999e-01
9.865456120e-01,8.34020e-01,9.99999e-01,9.99999e-01,9.99999e-01,8.34020e-01,9.99999e-01
9.914783401e-01,8.37015e-01,9.99999e-01,9.99999e-01,9.99999e-01,8.37015e-01,9.99999e-01
9.964357318e-01,8.39962e-01,9.99999e-01,9.99999e-01,9.99999e-01,8.39962e-01,9.99999e-01
1.001417910e+00,8.42860e-01,9.99999e-01,9.99999e-01,9.99999e-01,8.42860e-01,9.99999e-01
1.006425000e+00,8.45711e-01,9.99999e-01,9.99999e-01,9.99999e-01,8.45711e-01,9.99999e-01
1.011457125e+00,8.48515e-01,9.99999e-01,9.99999e-01,9.99999e-01,8.48515e-01,9.99999e-01
1.016514411e+00,8.51273e-01,9.99999e-01,9.99999e-01,9.99999e-01,8.51273e-01,9.99999e-01
1.021596983e+00,8.53958e-01,9.99999e-01,9.99999e-01,9.99968e-01,8.53984e-01,9.99999e-01
1.026704968e+00,8.54616e-01,9.99999e-01,9.99999e-01,9.97624e-01,8.56651e-01,9.99999e-01
1.031838492e+00,8.32299e-01,9.99999e-01,9.99999e-01,9.68607e-01,8.59273e-01,9.99999e-01
1.036997685e+00,1.97456e-01,9.99999e-01,9.99999e-01,2.29107e-01,8.61851e-01,9.99999e-01
1.042182673e+00,2.13678e-01,9.99999e-01,9.99999e-01,2.47202e-01,8.64386e-01,9.99999e-01
1.047393587e+00,2.14000e-01,9.99999e-01,9.99999e-01,2.46863e-01,8.66878e-01,9.99999e-01
1.052630555e+00,1.88909e-02,9.99999e-01,9.99999e-01,2.17305e-02,8.69327e-01,9.99999e-01
1.057893707e+00,3.92758e-02,9.99999e-01,9.99999e-01,4.50547e-02,8.71735e-01,9.99999e-01
1.063183176e+00,9.12524e-02,9.99999e-01,9.99999e-01,1.04396e-01,8.74102e-01,9.99999e-01
1.068499092e+00,1.90129e-01,9.99999e-01,9.99999e-01,2.16936e-01,8.76428e-01,9.99999e-01
1.073841587e+00,3.34705e-01,9.99999e-01,9.99999e-01,3.80903e-01,8.78715e-01,9.99999e-01
1.079210795e+00,4.78830e-01,9.99999e-01,9.99999e-01,5.43530e-01,8.80962e-01,9.99999e-01
1.084606849e+00,6.32524e-01,9.99999e-01,9.99999e-01,7.16196e-01,8.83170e-01,9.99999e-01
1.090029883e+00,7.44793e-01,9.99999e-01,9.99999e-01,8.41250e-01,8.85340e-01,9.99999e-01
1.095480033e+00,8.15023e-01,9.99999e-01,9.99999e-01,9.18363e-01,8.87472e-01,9.99999e-01
1.100957433e+00,8.53852e-01,9.99999e-01,9.99999e-01,9.59850e-01,8.89567e-01,9.99999e-01
1.106462220e+00,8.76643e-01,9.99999e-01,9.99999e-01,9.83195e-01,8.91626e-01,9.99999e-01
1.111994531e+00,8.88055e-01,9.99999e-01,9.99999e-01,9.93740e-01,8.93648e-01,9.99999e-01
1.117554504e+00,8.94262e-01,9.99999e-01,9.99999e-01,9.98465e-01,8.95635e-01,9.99999e-01
1.123142276e+00,8.97497e-01,9.99999e-01,9.99999e-01,9.99898e-01,8.97587e-01,9.99999e-01
1.128757988e+00,8.99505e-01,9.99999e-01,9.99999e-01,9.99999e-01,8.99505e-01,9.99999e-01
1.134401778e+00,9.01389e-01,9.99999e-01,9.99999e-01,9.99999e-01,9.01389e-01,9.99999e-01
1.140073787e+00,9.03239e-01,9.99999e-01,9.99999e-01,9.99999e-01,9.03239e-01,9.99999e-01
1.145774156e+00,9.05056e-01,9.99999e-01,9.99999e-01,9.99999e-01,9.05056e-01,9.99999e-01
1.151503026e+00,9.06842e-01,9.99999e-01,9.99999e-01,9.99999e-01,9.06842e-01,9.99999e-01
1.157260541e+00,9.08595e-01,9.99999e-01,9.99999e-01,9.99999e-01,9.08595e-01,9.99999e-01
1.163046844e+00,9.10317e-01,9.99999e-01,9.99999e-01,9.99999e-01,9.10317e-01,9.99999e-01
1.168862078e+00,9.12008e-01,9.99999e-01,9.99999e-01,9.99999e-01,9.12008e-01,9.99999e-01
1.174706389e+00,9.13669e-01,9.99999e-01,9.99999e-01,9.99999e-01,9.13669e-01,9.99999e-01
1.180579921e+00,9.15300e-01,9.99999e-01,9.99999e-01,9.99999e-01,9.15300e-01,9.99999e-01
1.186482820e+00,9.16898e-01,9.99999e-01,9.99999e-01,9.99995e-01,9.16901e-01,9.99999e-01
1.192415234e+00,9.10674e-01,9.99999e-01,9.99999e-01,9.91507e-01,9.18474e-01,9.99999e-01
1.198377311e+00,5.29034e-01,9.99999e-01,9.99999e-01,5.75025e-01,9.20018e-01,9.99999e-01
1.204369197e+00,5.66993e-08,9.99999e-01,9.99999e-01,6.15270e-08,9.21534e-01,9.99999e-01
1.210391043e+00,7.72239e-27,9.99999e-01,9.99999e-01,8.36641e-27,9.23022e-01,9.99999e-01
1.216442998e+00,1.82780e-23,9.99999e-01,9.99999e-01,1.97710e-23,9.24484e-01,9.99999e-01
1.222525213e+00,3.91399e-23,9.99999e-01,9.99999e-01,4.22713e-23,9.25919e-01,9.99999e-01
1.228637839e+00,7.26681e-18,9.99999e-01,9.99999e-01,7.83628e-18,9.27328e-01,9.99999e-01
