#,Wave/freq,Total,N2,O2,CO2,Rayleigh,CIA
4.000000000e-01,1.95160e-02,9.99999e-01,9.99999e-01,9.99999e-01,1.95160e-02,9.99999e-01
4.020000000e-01,2.10958e-02,9.99999e-01,9.99999e-01,9.99999e-01,2.10958e-02,9.99999e-01
4.040100000e-01,2.27665e-02,9.99999e-01,9.99999e-01,9.99999e-01,2.27665e-02,9.99999e-01
4.060300500e-01,2.45326e-02,9.99999e-01,9.99999e-01,9.99999e-01,2.45326e-02,9.99999e-01
4.080602003e-01,2.63968e-02,9.99999e-01,9.99999e-01,9.99999e-01,2.63968e-02,9.99999e-01
4.101005013e-01,2.83615e-02,9.99999e-01,9.99999e-01,9.99999e-01,2.83615e-02,9.99999e-01
4.121510038e-01,3.04293e-02,9.99999e-01,9.99999e-01,9.99999e-01,3.04293e-02,9.99999e-01
4.142117588e-01,3.26024e-02,9.99999e-01,9.99999e-01,9.99999e-01,3.26024e-02,9.99999e-01
4.162828176e-01,3.48833e-02,9.99999e-01,9.99999e-01,9.99999e-01,3.48833e-02,9.99999e-01
4.183642317e-01,3.72738e-02,9.99999e-01,9.99999e-01,9.99999e-01,3.72738e-02,9.99999e-01
4.204560528e-01,3.97761e-02,9.99999e-01,9.99999e-01,9.99999e-01,3.97761e-02,9.99999e-01
4.225583331e-01,4.23919e-02,9.99999e-01,9.99999e-01,9.99999e-01,4.23919e-02,9.99999e-01
4.246711247e-01,4.51230e-02,9.99999e-01,9.99999e-01,9.99999e-01,4.51230e-02,9.99999e-01
4.267944804e-01,4.79708e-02,9.99999e-01,9.99999e-01,9.99999e-01,4.79708e-02,9.99999e-01
4.289284528e-01,5.09367e-02,9.99999e-01,9.99999e-01,9.99999e-01,5.09367e-02,9.99999e-01
4.310730950e-01,5.40219e-02,9.99999e-01,9.99999e-01,9.99999e-01,5.40219e-02,9.99999e-01
4.332284605e-01,5.72275e-02,9.99999e-01,9.99999e-01,9.99999e-01,5.72275e-02,9.99999e-01
4.353946028e-01,6.05543e-02,9.99999e-01,9.99999e-01,9.99999e-01,6.05543e-02,9.99999e-01
4.375715758e-01,6.40031e-02,9.99999e-01,9.99999e-01,9.99999e-01,6.40031e-02,9.99999e-01
4.397594337e-01,6.75743e-02,9.99999e-01,9.99999e-01,9.99999e-01,6.75743e-02,9.99999e-01
4.419582309e-01,7.12683e-02,9.99999e-01,9.99999e-01,9.99999e-01,7.12683e-02,9.99999e-01
4.441680220e-01,7.50852e-02,9.99999e-01,9.99999e-01,9.99999e-01,7.50852e-02,9.99999e-01
4.463888621e-01,7.90251e-02,9.99999e-01,9.99999e-01,9.99999e-01,7.90251e-02,9.99999e-01
4.486208064e-01,8.30877e-02,9.99999e-01,9.99999e-01,9.99999e-01,8.30877e-02,9.99999e-01
4.508639105e-01,8.72727e-02,9.99999e-01,9.99999e-01,9.99999e-01,8.72727e-02,9.99999e-01
4.531182300e-01,9.15796e-02,9.99999e-01,9.99999e-01,9.99999e-01,9.15796e-02,9.99999e-01
4.553838212e-01,9.60077e-02,9.99999e-01,9.99999e-01,9.99999e-01,9.60077e-02,9.99999e-01
4.576607403e-01,1.00556e-01,9.99999e-01,9.99999e-01,9.99999e-01,1.00556e-01,9.99999e-01
4.599490440e-01,1.05223e-01,9.99999e-01,9.99999e-01,9.99999e-01,1.05223e-01,9.99999e-01
4.622487892e-01,1.10009e-01,9.99999e-01,9.99999e-01,9.99999e-01,1.10009e-01,9.99999e-01
4.645600332e-01,1.14911e-01,9.99999e-01,9.99999e-01,9.99999e-01,1.14911e-01,9.99999e-01
4.668828333e-01,1.19929e-01,9.99999e-01,9.99999e-01,9.99999e-01,1.19929e-01,9.99999e-01
4.692172475e-01,1.25059e-01,9.99999e-01,9.99999e-01,9.99999e-01,1.25059e-01,9.99999e-01
4.715633337e-01,1.30302e-01,9.99999e-01,9.99999e-01,9.99999e-01,1.30302e-01,9.99999e-01
4.739211504e-01,1.35654e-01,9.99999e-01,9.99999e-01,9.99999e-01,1.35654e-01,9.99999e-01
4.762907561e-01,1.41114e-01,9.99999e-01,9.99999e-01,9.99999e-01,1.41114e-01,9.99999e-01
4.786722099e-01,1.46679e-01,9.99999e-01,9.99999e-01,9.99999e-01,1.46679e-01,9.99999e-01
4.810655710e-01,1.52347e-01,9.99999e-01,9.99999e-01,9.99999e-01,1.52347e-01,9.99999e-01
4.834708988e-01,1.58116e-01,9.99999e-01,9.99999e-01,9.99999e-01,1.58116e-01,9.99999e-01
4.858882533e-01,1.63982e-01,9.99999e-01,9.99999e-01,9.99999e-01,1.63982e-01,9.99999e-01
4.883176946e-01,1.69944e-01,9.99999e-01,9.99999e-01,9.99999e-01,1.69944e-01,9.99999e-01
4.907592831e-01,1.75999e-01,9.99999e-01,9.99999e-01,9.99999e-01,1.75999e-01,9.99999e-01
4.932130795e-01,1.82143e-01,9.99999e-01,9.99999e-01,9.99999e-01,1.82143e-01,9.99999e-01
4.956791449e-01,1.88374e-01,9.99999e-01,9.99999e-01,9.99999e-01,1.88374e-01,9.99999e-01
4.981575406e-01,1.94689e-01,9.99999e-01,9.99999e-01,9.99999e-01,1.94689e-01,9.99999e-01
5.006483283e-01,2.01085e-01,9.99999e-01,9.99999e-01,9.99999e-01,2.01085e-01,9.99999e-01
5.031515699e-01,2.07558e-01,9.99999e-01,9.99999e-01,9.99999e-01,2.07558e-01,9.99999e-01
5.056673278e-01,2.14105e-01,9.99999e-01,9.99999e-01,9.99999e-01,2.14105e-01,9.99999e-01
5.081956644e-01,2.20724e-01,9.99999e-01,9.99999e-01,9.99999e-01,2.20724e-01,9.99999e-01
5.107366428e-01,2.27410e-01,9.99999e-01,9.99999e-01,9.99999e-01,2.27410e-01,9.99999e-01
5.132903260e-01,2.34161e-01,9.99999e-01,9.99999e-01,9.99999e-01,2.34161e-01,9.99999e-01
5.158567776e-01,2.40973e-01,9.99999e-01,9.99999e-01,9.99999e-01,2.40973e-01,9.99999e-01
5.184360615e-01,2.47842e-01,9.99999e-01,9.99999e-01,9.99999e-01,2.47842e-01,9.99999e-01
5.210282418e-01,2.54766e-01,9.99999e-01,9.99999e-01,9.99999e-01,2.54766e-01,9.99999e-01
5.236333830e-01,2.61741e-01,9.99999e-01,9.99999e-01,9.99999e-01,2.61741e-01,9.99999e-01
5.262515499e-01,2.68764e-01,9.99999e-01,9.99999e-01,9.99999e-01,2.68764e-01,9.99999e-01
5.288828077e-01,2.75830e-01,9.99999e-01,9.99999e-01,9.99999e-01,2.75830e-01,9.99999e-01
5.315272217e-01,2.82937e-01,9.99999e-01,9.99999e-01,9.99999e-01,2.82937e-01,9.99999e-01
5.341848578e-01,2.90082e-01,9.99999e-01,9.99999e-01,9.99999e-01,2.90082e-01,9.99999e-01
5.368557821e-01,2.97261e-01,9.99999e-01,9.99999e-01,9.99999e-01,2.97261e-01,9.99999e-01
5.395400610e-01,3.04470e-01,9.99999e-01,9.99999e-01,9.99999e-01,3.04470e-01,9.99999e-01
5.422377613e-01,3.11706e-01,9.99999e-01,9.99999e-01,9.99999e-01,3.11706e-01,9.99999e-01
5.449489501e-01,3.18967e-01,9.99999e-01,9.99999e-01,9.99999e-01,3.18967e-01,9.99999e-01
5.476736949e-01,3.26248e-01,9.99999e-01,9.99999e-01,9.99999e-01,3.26248e-01,9.99999e-01
5.504120634e-01,3.33546e-01,9.99999e-01,9.99999e-01,9.99999e-01,3.33546e-01,9.99999e-01
5.531641237e-01,3.40859e-01,9.99999e-01,9.99999e-01,9.99999e-01,3.40859e-01,9.99999e-01
5.559299443e-01,3.48183e-01,9.99999e-01,9.99999e-01,9.99999e-01,3.48183e-01,9.99999e-01
5.587095940e-01,3.55515e-01,9.99999e-01,9.99999e-01,9.99999e-01,3.55515e-01,9.99999e-01
5.615031420e-01,3.62852e-01,9.99999e-01,9.99999e-01,9.99999e-01,3.62852e-01,9.99999e-01
5.643106577e-01,3.70191e-01,9.99999e-01,9.99999e-01,9.99999e-01,3.70191e-01,9.99999e-01
5.671322110e-01,3.77530e-01,9.99999e-01,9.99999e-01,9.99999e-01,3.77530e-01,9.99999e-01
5.699678720e-01,3.84864e-01,9.99999e-01,9.99999e-01,9.99999e-01,3.84864e-01,9.99999e-01
5.728177114e-01,3.92192e-01,9.99999e-01,9.99999e-01,9.99999e-01,3.92192e-01,9.99999e-01
5.756818000e-01,3.99510e-01,9.99999e-01,9.99999e-01,9.99999e-01,3.99510e-01,9.99999e-01
5.785602090e-01,4.06817e-01,9.99999e-01,9.99999e-01,9.99999e-01,4.06817e-01,9.99999e-01
5.814530100e-01,4.14108e-01,9.99999e-01,9.99999e-01,9.99999e-01,4.14108e-01,9.99999e-01
5.843602750e-01,4.21383e-01,9.99999e-01,9.99999e-01,9.99999e-01,4.21383e-01,9.99999e-01
5.872820764e-01,4.28638e-01,9.99999e-01,9.99999e-01,9.99999e-01,4.28638e-01,9.99999e-01
5.902184868e-01,4.35871e-01,9.99999e-01,9.99999e-01,9.99999e-01,4.35871e-01,9.99999e-01
5.931695792e-01,4.43079e-01,9.99999e-01,9.99999e-01,9.99999e-01,4.43079e-01,9.99999e-01
5.961354271e-01,4.50261e-01,9.99999e-01,9.99999e-01,9.99999e-01,4.50261e-01,9.99999e-01
5.991161043e-01,4.57414e-01,9.99999e-01,9.99999e-01,9.99999e-01,4.57414e-01,9.99999e-01
6.021116848e-01,4.64535e-01,9.99999e-01,9.99999e-01,9.99999e-01,4.64535e-01,9.99999e-01
6.051222432e-01,4.71624e-01,9.99999e-01,9.99999e-01,9.99999e-01,4.71624e-01,9.99999e-01
6.081478544e-01,4.78678e-01,9.99999e-01,9.99999e-01,9.99999e-01,4.78678e-01,9.99999e-01
6.111885937e-01,4.85694e-01,9.99999e-01,9.99999e-01,9.99999e-01,4.85694e-01,9.99999e-01
6.142445367e-01,4.92672e-01,9.99999e-01,9.99999e-01,9.99999e-01,4.92672e-01,9.99999e-01
6.173157594e-01,4.99610e-01,9.99999e-01,9.99999e-01,9.99999e-01,4.99610e-01,9.99999e-01
6.204023382e-01,5.06505e-01,9.99999e-01,9.99999e-01,9.99999e-01,5.06505e-01,9.99999e-01
6.235043498e-01,5.13356e-01,9.99999e-01,9.99999e-01,9.99999e-01,5.13356e-01,9.99999e-01
6.266218716e-01,5.20162e-01,9.99999e-01,9.99999e-01,9.99999e-01,5.20162e-01,9.99999e-01
6.297549810e-01,5.26921e-01,9.99999e-01,9.99999e-01,9.99999e-01,5.26921e-01,9.99999e-01
6.329037559e-01,5.33632e-01,9.99999e-01,9.99999e-01,9.99999e-01,5.33632e-01,9.99999e-01
6.360682746e-01,5.40293e-01,9.99999e-01,9.99999e-01,9.99999e-01,5.40293e-01,9.99999e-01
6.392486160e-01,5.46904e-01,9.99999e-01,9.99999e-01,9.99999e-01,5.46904e-01,9.99999e-01
6.424448591e-01,5.53462e-01,9.99999e-01,9.99999e-01,9.99999e-01,5.53462e-01,9.99999e-01
6.456570834e-01,5.59967e-01,9.99999e-01,9.99999e-01,9.99999e-01,5.59967e-01,9.99999e-01
6.488853688e-01,5.66418e-01,9.99999e-01,9.99999e-01,9.99999e-01,5.66418e-01,9.99999e-01
6.521297956e-01,5.72813e-01,9.99999e-01,9.99999e-01,9.99999e-01,5.72813e-01,9.99999e-01
6.553904446e-01,5.79152e-01,9.99999e-01,9.99999e-01,9.99999e-01,5.79152e-01,9.99999e-01
6.586673968e-01,5.85434e-01,9.99999e-01,9.99999e-01,9.99999e-01,5.85434e-01,9.99999e-01
6.619607338e-01,5.91658e-01,9.99999e-01,9.99999e-01,9.99999e-01,5.91658e-01,9.99999e-01
6.652705375e-01,5.97824e-01,9.99999e-01,9.99999e-01,9.99999e-01,5.97824e-01,9.99999e-01
6.685968902e-01,6.03930e-01,9.99999e-01,9.99999e-01,9.99999e-01,6.03930e-01,9.99999e-01
6.719398746e-01,6.09976e-01,9.99999e-01,9.99999e-01,9.99999e-01,6.09976e-01,9.99999e-01
6.752995740e-01,6.15961e-01,9.99999e-01,9.99999e-01,9.99999e-01,6.15961e-01,9.99999e-01
6.786760719e-01,6.21885e-01,9.99999e-01,9.99999e-01,9.99999e-01,6.21885e-01,9.99999e-01
6.820694522e-01,6.27747e-01,9.99999e-01,9.99999e-01,9.99999e-01,6.27747e-01,9.99999e-01
6.854797995e-01,6.33547e-01,9.99999e-01,9.99999e-01,9.99999e-01,6.33547e-01,9.99999e-01
6.889071985e-01,6.39285e-01,9.99999e-01,9.99999e-01,9.99999e-01,6.39285e-01,9.99999e-01
6.923517345e-01,6.44959e-01,9.99999e-01,9.99999e-01,9.99999e-01,6.44959e-01,9.99999e-01
6.958134932e-01,6.50571e-01,9.99999e-01,9.99999e-01,9.99999e-01,6.50571e-01,9.99999e-01
6.992925606e-01,6.56119e-01,9.99999e-01,9.99999e-01,9.99999e-01,6.56119e-01,9.99999e-01
7.027890234e-01,6.61603e-01,9.99999e-01,9.99999e-01,9.99999e-01,6.61603e-01,9.99999e-01
7.063029686e-01,6.67023e-01,9.99999e-01,9.99999e-01,9.99999e-01,6.67023e-01,9.99999e-01
7.098344834e-01,6.72380e-01,9.99999e-01,9.99999e-01,9.99999e-01,6.72380e-01,9.99999e-01
7.133836558e-01,6.77672e-01,9.99999e-01,9.99999e-01,9.99999e-01,6.77672e-01,9.99999e-01
7.169505741e-01,6.82901e-01,9.99999e-01,9.99999e-01,9.99999e-01,6.82901e-01,9.99999e-01
7.205353270e-01,6.88065e-01,9.99999e-01,9.99999e-01,9.99999e-01,6.88065e-01,9.99999e-01
7.241380036e-01,6.93165e-01,9.99999e-01,9.99999e-01,9.99999e-01,6.93165e-01,9.99999e-01
7.277586936e-01,6.98201e-01,9.99999e-01,9.99999e-01,9.99999e-01,6.98201e-01,9.99999e-01
7.313974871e-01,7.03173e-01,9.99999e-01,9.99999e-01,9.99999e-01,7.03173e-01,9.99999e-01
7.350544745e-01,7.08081e-01,9.99999e-01,9.99999e-01,9.99999e-01,7.08081e-01,9.99999e-01
7.387297469e-01,7.12926e-01,9.99999e-01,9.99999e-01,9.99999e-01,7.12926e-01,9.99999e-01
7.424233956e-01,7.17707e-01,9.99999e-01,9.99999e-01,9.99999e-01,7.17707e-01,9.99999e-01
7.461355126e-01,7.22424e-01,9.99999e-01,9.99999e-01,9.99999e-01,7.22424e-01,9.99999e-01
7.498661902e-01,7.27079e-01,9.99999e-01,9.99999e-01,9.99999e-01,7.27079e-01,9.99999e-01
7.536155211e-01,7.31671e-01,9.99999e-01,9.99999e-01,9.99999e-01,7.31671e-01,9.99999e-01
7.573835987e-01,7.36200e-01,9.99999e-01,9.99999e-01,9.99999e-01,7.36200e-01,9.99999e-01
7.611705167e-01,7.40667e-01,9.99999e-01,9.99999e-01,9.99999e-01,7.40667e-01,9.99999e-01
7.649763693e-01,7.45072e-01,9.99999e-01,9.99999e-01,9.99999e-01,7.45072e-01,9.99999e-01
7.688012511e-01,7.49415e-01,9.99999e-01,9.99999e-01,9.99999e-01,7.49415e-01,9.99999e-01
7.726452574e-01,7.53698e-01,9.99999e-01,9.99999e-01,9.99999e-01,7.53698e-01,9.99999e-01
7.765084837e-01,7.57919e-01,9.99999e-01,9.99999e-01,9.99999e-01,7.57919e-01,9.99999e-01
7.803910261e-01,7.52022e-01,9.99999e-01,9.99999e-01,9.86801e-01,7.62080e-01,9.99999e-01
7.842929812e-01,7.23165e-01,9.99999e-01,9.99999e-01,9.43856e-01,7.66181e-01,9.99999e-01
7.882144461e-01,7.23978e-01,9.99999e-01,9.99999e-01,9.39958e-01,7.70222e-01,9.99999e-01
7.921555184e-01,7.47273e-01,9.99999e-01,9.99999e-01,9.65213e-01,7.74204e-01,9.99999e-01
7.961162960e-01,7.59895e-01,9.99999e-01,9.99999e-01,9.76567e-01,7.78128e-01,9.99999e-01
8.000968774e-01,7.72025e-01,9.99999e-01,9.99999e-01,9.87251e-01,7.81993e-01,9.99999e-01
8.040973618e-01,7.80589e-01,9.99999e-01,9.99999e-01,9.93366e-01,7.85801e-01,9.99999e-01
8.081178486e-01,7.87150e-01,9.99999e-01,9.99999e-01,9.96957e-01,7.89551e-01,9.99999e-01
8.121584379e-01,7.92496e-01,9.99999e-01,9.99999e-01,9.99055e-01,7.93245e-01,9.99999e-01
8.162192301e-01,7.96716e-01,9.99999e-01,9.99999e-01,9.99791e-01,7.96882e-01,9.99999e-01
8.203003262e-01,8.00462e-01,9.99999e-01,9.99999e-01,9.99996e-01,8.00464e-01,9.99999e-01
8.244018279e-01,8.03991e-01,9.99999e-01,9.99999e-01,9.99999e-01,8.03991e-01,9.99999e-01
8.285238370e-01,8.07463e-01,9.99999e-01,9.99999e-01,9.99999e-01,8.07463e-01,9.99999e-01
8.326664562e-01,8.10881e-01,9.99999e-01,9.99999e-01,9.99999e-01,8.10881e-01,9.99999e-01
8.368297885e-01,8.14246e-01,9.99999e-01,9.99999e-01,9.99999e-01,8.14246e-01,9.99999e-01
8.410139374e-01,8.17558e-01,9.99999e-01,9.99999e-01,9.99999e-01,8.17558e-01,9.99999e-01
8.452190071e-01,8.20817e-01,9.99999e-01,9.99999e-01,9.99999e-01,8.20817e-01,9.99999e-01
8.494451021e-01,8.24025e-01,9.99999e-01,9.99999e-01,9.99999e-01,8.24025e-01,9.99999e-01
8.536923276e-01,8.27181e-01,9.99999e-01,9.99999e-01,9.99999e-01,8.27181e-01,9.99999e-01
8.579607893e-01,8.30287e-01,9.99999e-01,9.99999e-01,9.99999e-01,8.30287e-01,9.99999e-01
8.622505932e-01,8.33343e-01,9.99999e-01,9.99999e-01,9.99999e-01,8.33343e-01,9.99999e-01
8.665618462e-01,8.05576e-01,9.99999e-01,9.99999e-01,9.63204e-01,8.36349e-01,9.99999e-01
8.708946554e-01,7.22907e-01,9.99999e-01,9.99999e-01,8.61314e-01,8.39306e-01,9.99999e-01
8.752491287e-01,7.48095e-01,9.99999e-01,9.99999e-01,8.88245e-01,8.42216e-01,9.99999e-01
8.796253743e-01,7.92482e-01,9.99999e-01,9.99999e-01,9.37762e-01,8.45077e-01,9.99999e-01
8.840235012e-01,8.20288e-01,9.99999e-01,9.99999e-01,9.67444e-01,8.47892e-01,9.99999e-01
8.884436187e-01,8.39639e-01,9.99999e-01,9.99999e-01,9.87044e-01,8.50660e-01,9.99999e-01
8.928858368e-01,8.48897e-01,9.99999e-01,9.99999e-01,9.94744e-01,8.53382e-01,9.99999e-01
8.973502660e-01,8.54961e-01,9.99999e-01,9.99999e-01,9.98717e-01,8.56058e-01,9.99999e-01
9.018370173e-01,8.58569e-01,9.99999e-01,9.99999e-01,9.99858e-01,8.58690e-01,9.99999e-01
9.063462024e-01,8.58189e-01,9.99999e-01,9.99999e-01,9.96413e-01,8.61278e-01,9.99999e-01
9.108779334e-01,8.56671e-01,9.99999e-01,9.99999e-01,9.91720e-01,8.63822e-01,9.99999e-01
9.154323231e-01,8.64628e-01,9.99999e-01,9.99999e-01,9.98042e-01,8.66324e-01,9.99999e-01
9.200094847e-01,8.43656e-01,9.99999e-01,9.99999e-01,9.71077e-01,8.68783e-01,9.99999e-01
9.246095321e-01,8.36408e-01,9.99999e-01,9.99999e-01,9.60064e-01,8.71200e-01,9.99999e-01
9.292325798e-01,8.46105e-01,9.99999e-01,9.99999e-01,9.68552e-01,8.73576e-01,9.99999e-01
9.338787427e-01,8.49232e-01,9.99999e-01,9.99999e-01,9.69540e-01,8.75911e-01,9.99999e-01
9.385481364e-01,8.58534e-01,9.99999e-01,9.99999e-01,9.77598e-01,8.78207e-01,9.99999e-01
9.432408771e-01,8.68338e-01,9.99999e-01,9.99999e-01,9.86229e-01,8.80462e-01,9.99999e-01
9.479570815e-01,8.76434e-01,9.99999e-01,9.99999e-01,9.92924e-01,8.82679e-01,9.99999e-01
9.526968669e-01,8.81831e-01,9.99999e-01,9.99999e-01,9.96578e-01,8.84858e-01,9.99999e-01
9.574603512e-01,8.85700e-01,9.99999e-01,9.99999e-01,9.98535e-01,8.86998e-01,9.99999e-01
9.622476530e-01,8.88695e-01,9.99999e-01,9.99999e-01,9.99542e-01,8.89102e-01,9.99999e-01
9.670588912e-01,8.91046e-01,9.99999e-01,9.99999e-01,9.99862e-01,8.91168e-01,9.99999e-01
9.718941857e-01,8.93190e-01,9.99999e-01,9.99999e-01,9.99989e-01,8.93199e-01,9.99999e-01
9.767536566e-01,8.95194e-01,9.99999e-01,9.99999e-01,9.99999e-01,8.95194e-01,9.99999e-01
9.816374249e-01,8.97154e-01,9.99999e-01,9.99999e-01,9.99999e-01,8.97154e-01,9.99999e-01
9.865456120e-01,8.99079e-01,9.99999e-01,9.99999e-01,9.99999e-01,8.99079e-01,9.99999e-01
9.914783401e-01,9.00970e-01,9.99999e-01,9.99999e-01,9.99999e-01,9.00970e-01,9.99999e-01
9.964357318e-01,9.02828e-01,9.99999e-01,9.99999e-01,9.99999e-01,9.02828e-01,9.99999e-01
1.001417910e+00,9.04653e-01,9.99999e-01,9.99999e-01,9.99999e-01,9.04653e-01,9.99999e-01
1.006425000e+00,9.06445e-01,9.99999e-01,9.99999e-01,9.99999e-01,9.06445e-01,9.99999e-01
1.011457125e+00,9.08205e-01,9.99999e-01,9.99999e-01,9.99999e-01,9.08205e-01,9.99999e-01
1.016514411e+00,9.09934e-01,9.99999e-01,9.99999e-01,9.99999e-01,9.09934e-01,9.99999e-01
1.021596983e+00,9.11616e-01,9.99999e-01,9.99999e-01,9.99981e-01,9.11632e-01,9.99999e-01
1.026704968e+00,9.12030e-01,9.99999e-01,9.99999e-01,9.98609e-01,9.13300e-01,9.99999e-01
1.031838492e+00,8.95607e-01,9.99999e-01,9.99999e-01,9.78872e-01,9.14937e-01,9.99999e-01
1.036997685e+00,3.20928e-01,9.99999e-01,9.99999e-01,3.50149e-01,9.16545e-01,9.99999e-01
1.042182673e+00,3.96078e-01,9.99999e-01,9.99999e-01,4.31399e-01,9.18124e-01,9.99999e-01
1.047393587e+00,3.55626e-01,9.99999e-01,9.99999e-01,3.86686e-01,9.19675e-01,9.99999e-01
1.052630555e+00,7.91833e-02,9.99999e-01,9.99999e-01,8.59568e-02,9.21197e-01,9.99999e-01
1.057893707e+00,1.36606e-01,9.99999e-01,9.99999e-01,1.48051e-01,9.22692e-01,9.99999e-01
1.063183176e+00,2.33474e-01,9.99999e-01,9.99999e-01,2.52634e-01,9.24159e-01,9.99999e-01
1.068499092e+00,3.73789e-01,9.99999e-01,9.99999e-01,4.03834e-01,9.25600e-01,9.99999e-01
1.073841587e+00,5.22841e-01,9.99999e-01,9.99999e-01,5.64005e-01,9.27015e-01,9.99999e-01
1.079210795e+00,6.47495e-01,9.99999e-01,9.99999e-01,6.97428e-01,9.28403e-01,9.99999e-01
1.084606849e+00,7.63946e-01,9.99999e-01,9.99999e-01,8.21653e-01,9.29767e-01,9.99999e-01
1.090029883e+00,8.41197e-01,9.99999e-01,9.99999e-01,9.03439e-01,9.31105e-01,9.99999e-01
1.095480033e+00,8.86936e-01,9.99999e-01,9.99999e-01,9.51219e-01,9.32419e-01,9.99999e-01
1.100957433e+00,9.11526e-01,9.99999e-01,9.99999e-01,9.76241e-01,9.33708e-01,9.99999e-01
1.106462220e+00,9.25724e-01,9.99999e-01,9.99999e-01,9.90105e-01,9.34974e-01,9.99999e-01
1.111994531e+00,9.32775e-01,9.99999e-01,9.99999e-01,9.96322e-01,9.36217e-01,9.99999e-01
1.117554504e+00,9.36592e-01,9.99999e-01,9.99999e-01,9.99098e-01,9.37436e-01,9.99999e-01
1.123142276e+00,9.38578e-01,9.99999e-01,9.99999e-01,9.99940e-01,9.38633e-01,9.99999e-01
1.128757988e+00,9.39808e-01,9.99999e-01,9.99999e-01,9.99999e-01,9.39808e-01,9.99999e-01
1.134401778e+00,9.40961e-01,9.99999e-01,9.99999e-01,9.99999e-01,9.40961e-01,9.99999e-01
1.140073787e+00,9.42093e-01,9.99999e-01,9.99999e-01,9.99999e-01,9.42093e-01,9.99999e-01
1.145774156e+00,9.43204e-01,9.99999e-01,9.99999e-01,9.99999e-01,9.43204e-01,9.99999e-01
1.151503026e+00,9.44294e-01,9.99999e-01,9.99999e-01,9.99999e-01,9.44294e-01,9.99999e-01
1.157260541e+00,9.45364e-01,9.99999e-01,9.99999e-01,9.99999e-01,9.45364e-01,9.99999e-01
1.163046844e+00,9.46413e-01,9.99999e-01,9.99999e-01,9.99999e-01,9.46413e-01,9.99999e-01
1.168862078e+00,9.47443e-01,9.99999e-01,9.99999e-01,9.99999e-01,9.47443e-01,9.99999e-01
1.174706389e+00,9.48454e-01,9.99999e-01,9.99999e-01,9.99999e-01,9.48454e-01,9.99999e-01
1.180579921e+00,9.49446e-01,9.99999e-01,9.99999e-01,9.99999e-01,9.49446e-01,9.99999e-01
1.186482820e+00,9.50418e-01,9.99999e-01,9.99999e-01,9.99997e-01,9.50420e-01,9.99999e-01
1.192415234e+00,9.46623e-01,9.99999e-01,9.99999e-01,9.95005e-01,9.51375e-01,9.99999e-01
1.198377311e+00,5.72620e-01,9.99999e-01,9.99999e-01,6.01294e-01,9.52312e-01,9.99999e-01
1.204369197e+00,1.34850e-05,9.99999e-01,9.99999e-01,1.41466e-05,9.53231e-01,9.99999e-01
1.210391043e+00,1.16006e-16,9.99999e-01,9.99999e-01,1.21583e-16,9.54134e-01,9.99999e-01
1.216442998e+00,1.15291e-14,9.99999e-01,9.99999e-01,1.20721e-14,9.55019e-01,9.99999e-01
1.222525213e+00,1.98050e-14,9.99999e-01,9.99999e-01,2.07190e-14,9.55887e-01,9.99999e-01
1.228637839e+00,4.73902e-11,9.99999e-01,9.99999e-01,4.95330e-11,9.56740e-01,9.99999e-01
