#,Wave/freq,Total,N2,O2,CO2,Rayleigh,CIA
4.000000000e-01,3.29050e-03,9.99999e-01,9.99999e-01,9.99999e-01,3.29050e-03,9.99999e-01
4.020000000e-01,3.68428e-03,9.99999e-01,9.99999e-01,9.99999e-01,3.68428e-03,9.99999e-01
4.040100000e-01,4.11550e-03,9.99999e-01,9.99999e-01,9.99999e-01,4.11550e-03,9.99999e-01
4.060300500e-01,4.58716e-03,9.99999e-01,9.99999e-01,9.99999e-01,4.58716e-03,9.99999e-01
4.080602003e-01,5.10193e-03,9.99999e-01,9.99999e-01,9.99999e-01,5.10193e-03,9.99999e-01
4.101005013e-01,5.66255e-03,9.99999e-01,9.99999e-01,9.99999e-01,5.66255e-03,9.99999e-01
4.121510038e-01,6.27185e-03,9.99999e-01,9.99999e-01,9.99999e-01,6.27185e-03,9.99999e-01
4.142117588e-01,6.93271e-03,9.99999e-01,9.99999e-01,9.99999e-01,6.93271e-03,9.99999e-01
4.162828176e-01,7.64804e-03,9.99999e-01,9.99999e-01,9.99999e-01,7.64804e-03,9.99999e-01
4.183642317e-01,8.42084e-03,9.99999e-01,9.99999e-01,9.99999e-01,8.42084e-03,9.99999e-01
4.204560528e-01,9.25411e-03,9.99999e-01,9.99999e-01,9.99999e-01,9.25411e-03,9.99999e-01
4.225583331e-01,1.01509e-02,9.99999e-01,9.99999e-01,9.99999e-01,1.01509e-02,9.99999e-01
4.246711247e-01,1.11143e-02,9.99999e-01,9.99999e-01,9.99999e-01,1.11143e-02,9.99999e-01
4.267944804e-01,1.21473e-02,9.99999e-01,9.99999e-01,9.99999e-01,1.21473e-02,9.99999e-01
4.289284528e-01,1.32531e-02,9.99999e-01,9.99999e-01,9.99999e-01,1.32531e-02,9.99999e-01
4.310730950e-01,1.44346e-02,9.99999e-01,9.99999e-01,9.99999e-01,1.44346e-02,9.99999e-01
4.332284605e-01,1.56950e-02,9.99999e-01,9.99999e-01,9.99999e-01,1.56950e-02,9.99999e-01
4.353946028e-01,1.70372e-02,9.99999e-01,9.99999e-01,9.99999e-01,1.70372e-02,9.99999e-01
4.375715758e-01,1.84643e-02,9.99999e-01,9.99999e-01,9.99999e-01,1.84643e-02,9.99999e-01
4.397594337e-01,1.99792e-02,9.99999e-01,9.99999e-01,9.99999e-01,1.99792e-02,9.99999e-01
4.419582309e-01,2.15847e-02,9.99999e-01,9.99999e-01,9.99999e-01,2.15847e-02,9.99999e-01
4.441680220e-01,2.32836e-02,9.99999e-01,9.99999e-01,9.99999e-01,2.32836e-02,9.99999e-01
4.463888621e-01,2.50787e-02,9.99999e-01,9.99999e-01,9.99999e-01,2.50787e-02,9.99999e-01
4.486208064e-01,2.69726e-02,9.99999e-01,9.99999e-01,9.99999e-01,2.69726e-02,9.99999e-01
4.508639105e-01,2.89678e-02,9.99999e-01,9.99999e-01,9.99999e-01,2.89678e-02,9.99999e-01
4.531182300e-01,3.10668e-02,9.99999e-01,9.99999e-01,9.99999e-01,3.10668e-02,9.99999e-01
4.553838212e-01,3.32719e-02,9.99999e-01,9.99999e-01,9.99999e-01,3.32719e-02,9.99999e-01
4.576607403e-01,3.55853e-02,9.99999e-01,9.99999e-01,9.99999e-01,3.55853e-02,9.99999e-01
4.599490440e-01,3.80090e-02,9.99999e-01,9.99999e-01,9.99999e-01,3.80090e-02,9.99999e-01
4.622487892e-01,4.05450e-02,9.99999e-01,9.99999e-01,9.99999e-01,4.05450e-02,9.99999e-01
4.645600332e-01,4.31950e-02,9.99999e-01,9.99999e-01,9.99999e-01,4.31950e-02,9.99999e-01
4.668828333e-01,4.59608e-02,9.99999e-01,9.99999e-01,9.99999e-01,4.59608e-02,9.99999e-01
4.692172475e-01,4.88437e-02,9.99999e-01,9.99999e-01,9.99999e-01,4.88437e-02,9.99999e-01
4.715633337e-01,5.18451e-02,9.99999e-01,9.99999e-01,9.99999e-01,5.18451e-02,9.99999e-01
4.739211504e-01,5.49662e-02,9.99999e-01,9.99999e-01,9.99999e-01,5.49662e-02,9.99999e-01
4.762907561e-01,5.82079e-02,9.99999e-01,9.99999e-01,9.99999e-01,5.82079e-02,9.99999e-01
4.786722099e-01,6.15710e-02,9.99999e-01,9.99999e-01,9.99999e-01,6.15710e-02,9.99999e-01
4.810655710e-01,6.50563e-02,9.99999e-01,9.99999e-01,9.99999e-01,6.50563e-02,9.99999e-01
4.834708988e-01,6.86641e-02,9.99999e-01,9.99999e-01,9.99999e-01,6.86641e-02,9.99999e-01
4.858882533e-01,7.23948e-02,9.99999e-01,9.99999e-01,9.99999e-01,7.23948e-02,9.99999e-01
4.883176946e-01,7.62484e-02,9.99999e-01,9.99999e-01,9.99999e-01,7.62484e-02,9.99999e-01
4.907592831e-01,8.02250e-02,9.99999e-01,9.99999e-01,9.99999e-01,8.02250e-02,9.99999e-01
4.932130795e-01,8.43242e-02,9.99999e-01,9.99999e-01,9.99999e-01,8.43242e-02,9.99999e-01
4.956791449e-01,8.85456e-02,9.99999e-01,9.99999e-01,9.99999e-01,8.85456e-02,9.99999e-01
4.981575406e-01,9.28888e-02,9.99999e-01,9.99999e-01,9.99999e-01,9.28888e-02,9.99999e-01
5.006483283e-01,9.73528e-02,9.99999e-01,9.99999e-01,9.99999e-01,9.73528e-02,9.99999e-01
5.031515699e-01,1.01937e-01,9.99999e-01,9.99999e-01,9.99999e-01,1.01937e-01,9.99999e-01
5.056673278e-01,1.06640e-01,9.99999e-01,9.99999e-01,9.99999e-01,1.06640e-01,9.99999e-01
5.081956644e-01,1.11460e-01,9.99999e-01,9.99999e-01,9.99999e-01,1.11460e-01,9.99999e-01
5.107366428e-01,1.16397e-01,9.99999e-01,9.99999e-01,9.99999e-01,1.16397e-01,9.99999e-01
5.132903260e-01,1.21448e-01,9.99999e-01,9.99999e-01,9.99999e-01,1.21448e-01,9.99999e-01
5.158567776e-01,1.26613e-01,9.99999e-01,9.99999e-01,9.99999e-01,1.26613e-01,9.99999e-01
5.184360615e-01,1.31888e-01,9.99999e-01,9.99999e-01,9.99999e-01,1.31888e-01,9.99999e-01
5.210282418e-01,1.37273e-01,9.99999e-01,9.99999e-01,9.99999e-01,1.37273e-01,9.99999e-01
5.236333830e-01,1.42764e-01,9.99999e-01,9.99999e-01,9.99999e-01,1.42764e-01,9.99999e-01
5.262515499e-01,1.48360e-01,9.99999e-01,9.99999e-01,9.99999e-01,1.48360e-01,9.99999e-01
5.288828077e-01,1.54058e-01,9.99999e-01,9.99999e-01,9.99999e-01,1.54058e-01,9.99999e-01
5.315272217e-01,1.59857e-01,9.99999e-01,9.99999e-01,9.99999e-01,1.59857e-01,9.99999e-01
5.341848578e-01,1.65752e-01,9.99999e-01,9.99999e-01,9.99999e-01,1.65752e-01,9.99999e-01
5.368557821e-01,1.71742e-01,9.99999e-01,9.99999e-01,9.99999e-01,1.71742e-01,9.99999e-01
5.395400610e-01,1.77824e-01,9.99999e-01,9.99999e-01,9.99999e-01,1.77824e-01,9.99999e-01
5.422377613e-01,1.83994e-01,9.99999e-01,9.99999e-01,9.99999e-01,1.83994e-01,9.99999e-01
5.449489501e-01,1.90251e-01,9.99999e-01,9.99999e-01,9.99999e-01,1.90251e-01,9.99999e-01
5.476736949e-01,1.96590e-01,9.99999e-01,9.99999e-01,9.99999e-01,1.96590e-01,9.99999e-01
5.504120634e-01,2.03009e-01,9.99999e-01,9.99999e-01,9.99999e-01,2.03009e-01,9.99999e-01
5.531641237e-01,2.09505e-01,9.99999e-01,9.99999e-01,9.99999e-01,2.09505e-01,9.99999e-01
5.559299443e-01,2.16073e-01,9.99999e-01,9.99999e-01,9.99999e-01,2.16073e-01,9.99999e-01
5.587095940e-01,2.22713e-01,9.99999e-01,9.99999e-01,9.99999e-01,2.22713e-01,9.99999e-01
5.615031420e-01,2.29418e-01,9.99999e-01,9.99999e-01,9.99999e-01,2.29418e-01,9.99999e-01
5.643106577e-01,2.36188e-01,9.99999e-01,9.99999e-01,9.99999e-01,2.36188e-01,9.99999e-01
5.671322110e-01,2.43017e-01,9.99999e-01,9.99999e-01,9.99999e-01,2.43017e-01,9.99999e-01
5.699678720e-01,2.49904e-01,9.99999e-01,9.99999e-01,9.99999e-01,2.49904e-01,9.99999e-01
5.728177114e-01,2.56843e-01,9.99999e-01,9.99999e-01,9.99999e-01,2.56843e-01,9.99999e-01
5.756818000e-01,2.63833e-01,9.99999e-01,9.99999e-01,9.99999e-01,2.63833e-01,9.99999e-01
5.785602090e-01,2.70869e-01,9.99999e-01,9.99999e-01,9.99999e-01,2.70869e-01,9.99999e-01
5.814530100e-01,2.77948e-01,9.99999e-01,9.99999e-01,9.99999e-01,2.77948e-01,9.99999e-01
5.843602750e-01,2.85066e-01,9.99999e-01,9.99999e-01,9.99999e-01,2.85066e-01,9.99999e-01
5.872820764e-01,2.92222e-01,9.99999e-01,9.99999e-01,9.99999e-01,2.92222e-01,9.99999e-01
5.902184868e-01,2.99410e-01,9.99999e-01,9.99999e-01,9.99999e-01,2.99410e-01,9.99999e-01
5.931695792e-01,3.06627e-01,9.99999e-01,9.99999e-01,9.99999e-01,3.06627e-01,9.99999e-01
5.961354271e-01,3.13871e-01,9.99999e-01,9.99999e-01,9.99999e-01,3.13871e-01,9.99999e-01
5.991161043e-01,3.21138e-01,9.99999e-01,9.99999e-01,9.99999e-01,3.21138e-01,9.99999e-01
6.021116848e-01,3.28425e-01,9.99999e-01,9.99999e-01,9.99999e-01,3.28425e-01,9.99999e-01
6.051222432e-01,3.35728e-01,9.99999e-01,9.99999e-01,9.99999e-01,3.35728e-01,9.99999e-01
6.081478544e-01,3.43045e-01,9.99999e-01,9.99999e-01,9.99999e-01,3.43045e-01,9.99999e-01
6.111885937e-01,3.50371e-01,9.99999e-01,9.99999e-01,9.99999e-01,3.50371e-01,9.99999e-01
6.142445367e-01,3.57705e-01,9.99999e-01,9.99999e-01,9.99999e-01,3.57705e-01,9.99999e-01
6.173157594e-01,3.65043e-01,9.99999e-01,9.99999e-01,9.99999e-01,3.65043e-01,9.99999e-01
6.204023382e-01,3.72382e-01,9.99999e-01,9.99999e-01,9.99999e-01,3.72382e-01,9.99999e-01
6.235043498e-01,3.79720e-01,9.99999e-01,9.99999e-01,9.99999e-01,3.79720e-01,9.99999e-01
6.266218716e-01,3.87052e-01,9.99999e-01,9.99999e-01,9.99999e-01,3.87052e-01,9.99999e-01
6.297549810e-01,3.94377e-01,9.99999e-01,9.99999e-01,9.99999e-01,3.94377e-01,9.99999e-01
6.329037559e-01,4.01693e-01,9.99999e-01,9.99999e-01,9.99999e-01,4.01693e-01,9.99999e-01
6.360682746e-01,4.08995e-01,9.99999e-01,9.99999e-01,9.99999e-01,4.08995e-01,9.99999e-01
6.392486160e-01,4.16282e-01,9.99999e-01,9.99999e-01,9.99999e-01,4.16282e-01,9.99999e-01
6.424448591e-01,4.23551e-01,9.99999e-01,9.99999e-01,9.99999e-01,4.23551e-01,9.99999e-01
6.456570834e-01,4.30799e-01,9.99999e-01,9.99999e-01,9.99999e-01,4.30799e-01,9.99999e-01
6.488853688e-01,4.38025e-01,9.99999e-01,9.99999e-01,9.99999e-01,4.38025e-01,9.99999e-01
6.521297956e-01,4.45226e-01,9.99999e-01,9.99999e-01,9.99999e-01,4.45226e-01,9.99999e-01
6.553904446e-01,4.52399e-01,9.99999e-01,9.99999e-01,9.99999e-01,4.52399e-01,9.99999e-01
6.586673968e-01,4.59543e-01,9.99999e-01,9.99999e-01,9.99999e-01,4.59543e-01,9.99999e-01
6.619607338e-01,4.66655e-01,9.99999e-01,9.99999e-01,9.99999e-01,4.66655e-01,9.99999e-01
6.652705375e-01,4.73733e-01,9.99999e-01,9.99999e-01,9.99999e-01,4.73733e-01,9.99999e-01
6.685968902e-01,4.80776e-01,9.99999e-01,9.99999e-01,9.99999e-01,4.80776e-01,9.99999e-01
6.719398746e-01,4.87782e-01,9.99999e-01,9.99999e-01,9.99999e-01,4.87782e-01,9.99999e-01
6.752995740e-01,4.94748e-01,9.99999e-01,9.99999e-01,9.99999e-01,4.94748e-01,9.99999e-01
6.786760719e-01,5.01673e-01,9.99999e-01,9.99999e-01,9.99999e-01,5.01673e-01,9.99999e-01
6.820694522e-01,5.08555e-01,9.99999e-01,9.99999e-01,9.99999e-01,5.08555e-01,9.99999e-01
6.854797995e-01,5.15393e-01,9.99999e-01,9.99999e-01,9.99999e-01,5.15393e-01,9.99999e-01
6.889071985e-01,5.22185e-01,9.99999e-01,9.99999e-01,9.99999e-01,5.22185e-01,9.99999e-01
6.923517345e-01,5.28930e-01,9.99999e-01,9.99999e-01,9.99999e-01,5.28930e-01,9.99999e-01
6.958134932e-01,5.35626e-01,9.99999e-01,9.99999e-01,9.99999e-01,5.35626e-01,9.99999e-01
6.992925606e-01,5.42272e-01,9.99999e-01,9.99999e-01,9.99999e-01,5.42272e-01,9.99999e-01
7.027890234e-01,5.48867e-01,9.99999e-01,9.99999e-01,9.99999e-01,5.48867e-01,9.99999e-01
7.063029686e-01,5.55409e-01,9.99999e-01,9.99999e-01,9.99999e-01,5.55409e-01,9.99999e-01
7.098344834e-01,5.61898e-01,9.99999e-01,9.99999e-01,9.99999e-01,5.61898e-01,9.99999e-01
7.133836558e-01,5.68333e-01,9.99999e-01,9.99999e-01,9.99999e-01,5.68333e-01,9.99999e-01
7.169505741e-01,5.74711e-01,9.99999e-01,9.99999e-01,9.99999e-01,5.74711e-01,9.99999e-01
7.205353270e-01,5.81034e-01,9.99999e-01,9.99999e-01,9.99999e-01,5.81034e-01,9.99999e-01
7.241380036e-01,5.87298e-01,9.99999e-01,9.99999e-01,9.99999e-01,5.87298e-01,9.99999e-01
7.277586936e-01,5.93505e-01,9.99999e-01,9.99999e-01,9.99999e-01,5.93505e-01,9.99999e-01
7.313974871e-01,5.99653e-01,9.99999e-01,9.99999e-01,9.99999e-01,5.99653e-01,9.99999e-01
7.350544745e-01,6.05741e-01,9.99999e-01,9.99999e-01,9.99999e-01,6.05741e-01,9.99999e-01
7.387297469e-01,6.11769e-01,9.99999e-01,9.99999e-01,9.99999e-01,6.11769e-01,9.99999e-01
7.424233956e-01,6.17736e-01,9.99999e-01,9.99999e-01,9.99999e-01,6.17736e-01,9.99999e-01
7.461355126e-01,6.23641e-01,9.99999e-01,9.99999e-01,9.99999e-01,6.23641e-01,9.99999e-01
7.498661902e-01,6.29485e-01,9.99999e-01,9.99999e-01,9.99999e-01,6.29485e-01,9.99999e-01
7.536155211e-01,6.35266e-01,9.99999e-01,9.99999e-01,9.99999e-01,6.35266e-01,9.99999e-01
7.573835987e-01,6.40985e-01,9.99999e-01,9.99999e-01,9.99999e-01,6.40985e-01,9.99999e-01
7.611705167e-01,6.46641e-01,9.99999e-01,9.99999e-01,9.99999e-01,6.46641e-01,9.99999e-01
7.649763693e-01,6.52233e-01,9.99999e-01,9.99999e-01,9.99999e-01,6.52233e-01,9.99999e-01
7.688012511e-01,6.57762e-01,9.99999e-01,9.99999e-01,9.99999e-01,6.57762e-01,9.99999e-01
7.726452574e-01,6.63228e-01,9.99999e-01,9.99999e-01,9.99999e-01,6.63228e-01,9.99999e-01
7.765084837e-01,6.68629e-01,9.99999e-01,9.99999e-01,9.99999e-01,6.68629e-01,9.99999e-01
7.803910261e-01,6.61228e-01,9.99999e-01,9.99999e-01,9.81099e-01,6.73966e-01,9.99999e-01
7.842929812e-01,6.24908e-01,9.99999e-01,9.99999e-01,9.20010e-01,6.79240e-01,9.99999e-01
7.882144461e-01,6.25965e-01,9.99999e-01,9.99999e-01,9.14553e-01,6.84449e-01,9.99999e-01
7.921555184e-01,6.55076e-01,9.99999e-01,9.99999e-01,9.49943e-01,6.89594e-01,9.99999e-01
7.961162960e-01,6.71192e-01,9.99999e-01,9.99999e-01,9.66194e-01,6.94675e-01,9.99999e-01
8.000968774e-01,6.86788e-01,9.99999e-01,9.99999e-01,9.81556e-01,6.99692e-01,9.99999e-01
8.040973618e-01,6.97876e-01,9.99999e-01,9.99999e-01,9.90393e-01,7.04645e-01,9.99999e-01
8.081178486e-01,7.06404e-01,9.99999e-01,9.99999e-01,9.95588e-01,7.09534e-01,9.99999e-01
8.121584379e-01,7.13382e-01,9.99999e-01,9.99999e-01,9.98630e-01,7.14360e-01,9.99999e-01
8.162192301e-01,7.18904e-01,9.99999e-01,9.99999e-01,9.99697e-01,7.19122e-01,9.99999e-01
8.203003262e-01,7.23817e-01,9.99999e-01,9.99999e-01,9.99994e-01,7.23820e-01,9.99999e-01
8.244018279e-01,7.28456e-01,9.99999e-01,9.99999e-01,9.99999e-01,7.28456e-01,9.99999e-01
8.285238370e-01,7.33029e-01,9.99999e-01,9.99999e-01,9.99999e-01,7.33029e-01,9.99999e-01
8.326664562e-01,7.37540e-01,9.99999e-01,9.99999e-01,9.99999e-01,7.37540e-01,9.99999e-01
8.368297885e-01,7.41988e-01,9.99999e-01,9.99999e-01,9.99999e-01,7.41988e-01,9.99999e-01
8.410139374e-01,7.46375e-01,9.99999e-01,9.99999e-01,9.99999e-01,7.46375e-01,9.99999e-01
8.452190071e-01,7.50700e-01,9.99999e-01,9.99999e-01,9.99999e-01,7.50700e-01,9.99999e-01
8.494451021e-01,7.54964e-01,9.99999e-01,9.99999e-01,9.99999e-01,7.54964e-01,9.99999e-01
8.536923276e-01,7.59167e-01,9.99999e-01,9.99999e-01,9.99999e-01,7.59167e-01,9.99999e-01
8.579607893e-01,7.63310e-01,9.99999e-01,9.99999e-01,9.99999e-01,7.63310e-01,9.99999e-01
8.622505932e-01,7.67393e-01,9.99999e-01,9.99999e-01,9.99999e-01,7.67393e-01,9.99999e-01
8.665618462e-01,7.33588e-01,9.99999e-01,9.99999e-01,9.50961e-01,7.71417e-01,9.99999e-01
8.708946554e-01,6.25871e-01,9.99999e-01,9.99999e-01,8.07177e-01,7.75382e-01,9.99999e-01
8.752491287e-01,6.56898e-01,9.99999e-01,9.99999e-01,8.42946e-01,7.79288e-01,9.99999e-01
8.796253743e-01,7.13588e-01,9.99999e-01,9.99999e-01,9.11192e-01,7.83136e-01,9.99999e-01
8.840235012e-01,7.50055e-01,9.99999e-01,9.99999e-01,9.53144e-01,7.86926e-01,9.99999e-01
8.884436187e-01,7.75851e-01,9.99999e-01,9.99999e-01,9.81270e-01,7.90660e-01,9.99999e-01
8.928858368e-01,7.88288e-01,9.99999e-01,9.99999e-01,9.92385e-01,7.94337e-01,9.99999e-01
8.973502660e-01,7.96475e-01,9.99999e-01,9.99999e-01,9.98141e-01,7.97958e-01,9.99999e-01
9.018370173e-01,8.01359e-01,9.99999e-01,9.99999e-01,9.99794e-01,8.01523e-01,9.99999e-01
9.063462024e-01,8.00840e-01,9.99999e-01,9.99999e-01,9.94791e-01,8.05033e-01,9.99999e-01
9.108779334e-01,7.98796e-01,9.99999e-01,9.99999e-01,9.88010e-01,8.08489e-01,9.99999e-01
9.154323231e-01,8.09589e-01,9.99999e-01,9.99999e-01,9.97164e-01,8.11891e-01,9.99999e-01
9.200094847e-01,7.81571e-01,9.99999e-01,9.99999e-01,9.58699e-01,8.15240e-01,9.99999e-01
9.246095321e-01,7.71559e-01,9.99999e-01,9.99999e-01,9.42607e-01,8.18536e-01,9.99999e-01
9.292325798e-01,7.84579e-01,9.99999e-01,9.99999e-01,9.54730e-01,8.21780e-01,9.99999e-01
9.338787427e-01,7.88801e-01,9.99999e-01,9.99999e-01,9.56154e-01,8.24972e-01,9.99999e-01
9.385481364e-01,8.01338e-01,9.99999e-01,9.99999e-01,9.67666e-01,8.28113e-01,9.99999e-01
9.432408771e-01,8.14651e-01,9.99999e-01,9.99999e-01,9.80084e-01,8.31204e-01,9.99999e-01
9.479570815e-01,8.25692e-01,9.99999e-01,9.99999e-01,9.89747e-01,8.34245e-01,9.99999e-01
9.526968669e-01,8.33084e-01,9.99999e-01,9.99999e-01,9.95039e-01,8.37237e-01,9.99999e-01
9.574603512e-01,8.38396e-01,9.99999e-01,9.99999e-01,9.97876e-01,8.40180e-01,9.99999e-01
9.622476530e-01,8.42516e-01,9.99999e-01,9.99999e-01,9.99336e-01,8.43075e-01,9.99999e-01
9.670588912e-01,8.45754e-01,9.99999e-01,9.99999e-01,9.99800e-01,8.45922e-01,9.99999e-01
9.718941857e-01,8.48711e-01,9.99999e-01,9.99999e-01,9.99985e-01,8.48723e-01,9.99999e-01
9.767536566e-01,8.51477e-01,9.99999e-01,9.99999e-01,9.99999e-01,8.51477e-01,9.99999e-01
9.816374249e-01,8.54185e-01,9.99999e-01,9.99999e-01,9.99999e-01,8.54185e-01,9.99999e-01
9.865456120e-01,8.56849e-01,9.99999e-01,9.99999e-01,9.99999e-01,8.56849e-01,9.99999e-01
9.914783401e-01,8.59467e-01,9.99999e-01,9.99999e-01,9.99999e-01,8.59467e-01,9.99999e-01
9.964357318e-01,8.62042e-01,9.99999e-01,9.99999e-01,9.99999e-01,8.62042e-01,9.99999e-01
1.001417910e+00,8.64574e-01,9.99999e-01,9.99999e-01,9.99999e-01,8.64574e-01,9.99999e-01
1.006425000e+00,8.67062e-01,9.99999e-01,9.99999e-01,9.99999e-01,8.67062e-01,9.99999e-01
1.011457125e+00,8.69509e-01,9.99999e-01,9.99999e-01,9.99999e-01,8.69509e-01,9.99999e-01
1.016514411e+00,8.71914e-01,9.99999e-01,9.99999e-01,9.99999e-01,8.71914e-01,9.99999e-01
1.021596983e+00,8.74254e-01,9.99999e-01,9.99999e-01,9.99973e-01,8.74277e-01,9.99999e-01
1.026704968e+00,8.74827e-01,9.99999e-01,9.99999e-01,9.97976e-01,8.76601e-01,9.99999e-01
1.031838492e+00,8.54264e-01,9.99999e-01,9.99999e-01,9.71986e-01,8.78884e-01,9.99999e-01
1.036997685e+00,2.31136e-01,9.99999e-01,9.99999e-01,2.62318e-01,8.81128e-01,9.99999e-01
1.042182673e+00,2.65976e-01,9.99999e-01,9.99999e-01,3.01105e-01,8.83333e-01,9.99999e-01
1.047393587e+00,2.55103e-01,9.99999e-01,9.99999e-01,2.88089e-01,8.85501e-01,9.99999e-01
1.052630555e+00,3.10918e-02,9.99999e-01,9.99999e-01,3.50279e-02,8.87630e-01,9.99999e-01
1.057893707e+00,6.08147e-02,9.99999e-01,9.99999e-01,6.83524e-02,8.89722e-01,9.99999e-01
1.063183176e+00,1.27124e-01,9.99999e-01,9.99999e-01,1.42551e-01,8.91778e-01,9.99999e-01
1.068499092e+00,2.42044e-01,9.99999e-01,9.99999e-01,2.70804e-01,8.93798e-01,9.99999e-01
1.073841587e+00,3.92614e-01,9.99999e-01,9.99999e-01,4.38291e-01,8.95782e-01,9.99999e-01
1.079210795e+00,5.33478e-01,9.99999e-01,9.99999e-01,5.94250e-01,8.97732e-01,9.99999e-01
1.084606849e+00,6.76895e-01,9.99999e-01,9.99999e-01,7.52400e-01,8.99647e-01,9.99999e-01
1.090029883e+00,7.78095e-01,9.99999e-01,9.99999e-01,8.63084e-01,9.01528e-01,9.99999e-01
1.095480033e+00,8.40179e-01,9.99999e-01,9.99999e-01,9.30042e-01,9.03376e-01,9.99999e-01
1.100957433e+00,8.74156e-01,9.99999e-01,9.99999e-01,9.65713e-01,9.05191e-01,9.99999e-01
1.106462220e+00,8.93983e-01,9.99999e-01,9.99999e-01,9.85675e-01,9.06974e-01,9.99999e-01
1.111994531e+00,9.03881e-01,9.99999e-01,9.99999e-01,9.94668e-01,9.08725e-01,9.99999e-01
1.117554504e+00,9.09255e-01,9.99999e-01,9.99999e-01,9.98693e-01,9.10444e-01,9.99999e-01
1.123142276e+00,9.12055e-01,9.99999e-01,9.99999e-01,9.99913e-01,9.12133e-01,9.99999e-01
1.128757988e+00,9.13792e-01,9.99999e-01,9.99999e-01,9.99999e-01,9.13792e-01,9.99999e-01
1.134401778e+00,9.15420e-01,9.99999e-01,9.99999e-01,9.99999e-01,9.15420e-01,9.99999e-01
1.140073787e+00,9.17020e-01,9.99999e-01,9.99999e-01,9.99999e-01,9.17020e-01,9.99999e-01
1.145774156e+00,9.18590e-01,9.99999e-01,9.99999e-01,9.99999e-01,9.18590e-01,9.99999e-01
1.151503026e+00,9.20132e-01,9.99999e-01,9.99999e-01,9.99999e-01,9.20132e-01,9.99999e-01
1.157260541e+00,9.21646e-01,9.99999e-01,9.99999e-01,9.99999e-01,9.21646e-01,9.99999e-01
1.163046844e+00,9.23133e-01,9.99999e-01,9.99999e-01,9.99999e-01,9.23133e-01,9.99999e-01
1.168862078e+00,9.24592e-01,9.99999e-01,9.99999e-01,9.99999e-01,9.24592e-01,9.99999e-01
1.174706389e+00,9.26025e-01,9.99999e-01,9.99999e-01,9.99999e-01,9.26025e-01,9.99999e-01
1.180579921e+00,9.27432e-01,9.99999e-01,9.99999e-01,9.99999e-01,9.27432e-01,9.99999e-01
1.186482820e+00,9.28810e-01,9.99999e-01,9.99999e-01,9.99996e-01,9.28813e-01,9.99999e-01
1.192415234e+00,9.23428e-01,9.99999e-01,9.99999e-01,9.92752e-01,9.30169e-01,9.99999e-01
1.198377311e+00,5.41376e-01,9.99999e-01,9.99999e-01,5.81187e-01,9.31500e-01,9.99999e-01
1.204369197e+00,4.03462e-07,9.99999e-01,9.99999e-01,4.32525e-07,9.32806e-01,9.99999e-01
1.210391043e+00,3.51828e-23,9.99999e-01,9.99999e-01,3.76654e-23,9.34089e-01,9.99999e-01
1.216442998e+00,2.63144e-20,9.99999e-01,9.99999e-01,2.81332e-20,9.35348e-01,9.99999e-01
1.222525213e+00,5.11194e-20,9.99999e-01,9.99999e-01,5.45807e-20,9.36583e-01,9.99999e-01
1.228637839e+00,1.99855e-15,9.99999e-01,9.99999e-01,2.13111e-15,9.37796e-01,9.99999e-01
