#,Wave/freq,Total,N2,O2,CO2,Rayleigh,CIA
4.000000000e-01,1.71258e-08,9.99999e-01,9.99999e-01,9.99999e-01,1.71258e-08,9.99999e-01
4.020000000e-01,2.43900e-08,9.99999e-01,9.99999e-01,9.99999e-01,2.43900e-08,9.99999e-01
4.040100000e-01,3.44813e-08,9.99999e-01,9.99999e-01,9.99999e-01,3.44813e-08,9.99999e-01
4.060300500e-01,4.84155e-08,9.99999e-01,9.99999e-01,9.99999e-01,4.84155e-08,9.99999e-01
4.080602003e-01,6.75265e-08,9.99999e-01,9.99999e-01,9.99999e-01,6.75265e-08,9.99999e-01
4.101005013e-01,9.35642e-08,9.99999e-01,9.99999e-01,9.99999e-01,9.35642e-08,9.99999e-01
4.121510038e-01,1.28809e-07,9.99999e-01,9.99999e-01,9.99999e-01,1.28809e-07,9.99999e-01
4.142117588e-01,1.76215e-07,9.99999e-01,9.99999e-01,9.99999e-01,1.76215e-07,9.99999e-01
4.162828176e-01,2.39580e-07,9.99999e-01,9.99999e-01,9.99999e-01,2.39580e-07,9.99999e-01
4.183642317e-01,3.23760e-07,9.99999e-01,9.99999e-01,9.99999e-01,3.23760e-07,9.99999e-01
4.204560528e-01,4.34923e-07,9.99999e-01,9.99999e-01,9.99999e-01,4.34923e-07,9.99999e-01
4.225583331e-01,5.80857e-07,9.99999e-01,9.99999e-01,9.99999e-01,5.80857e-07,9.99999e-01
4.246711247e-01,7.71337e-07,9.99999e-01,9.99999e-01,9.99999e-01,7.71337e-07,9.99999e-01
4.267944804e-01,1.01856e-06,9.99999e-01,9.99999e-01,9.99999e-01,1.01856e-06,9.99999e-01
4.289284528e-01,1.33765e-06,9.99999e-01,9.99999e-01,9.99999e-01,1.33765e-06,9.99999e-01
4.310730950e-01,1.74728e-06,9.99999e-01,9.99999e-01,9.99999e-01,1.74728e-06,9.99999e-01
4.332284605e-01,2.27034e-06,9.99999e-01,9.99999e-01,9.99999e-01,2.27034e-06,9.99999e-01
4.353946028e-01,2.93475e-06,9.99999e-01,9.99999e-01,9.99999e-01,2.93475e-06,9.99999e-01
4.375715758e-01,3.77442e-06,9.99999e-01,9.99999e-01,9.99999e-01,3.77442e-06,9.99999e-01
4.397594337e-01,4.83027e-06,9.99999e-01,9.99999e-01,9.99999e-01,4.83027e-06,9.99999e-01
4.419582309e-01,6.15143e-06,9.99999e-01,9.99999e-01,9.99999e-01,6.15143e-06,9.99999e-01
4.441680220e-01,7.79663e-06,9.99999e-01,9.99999e-01,9.99999e-01,7.79663e-06,9.99999e-01
4.463888621e-01,9.83568e-06,9.99999e-01,9.99999e-01,9.99999e-01,9.83568e-06,9.99999e-01
4.486208064e-01,1.23512e-05,9.99999e-01,9.99999e-01,9.99999e-01,1.23512e-05,9.99999e-01
4.508639105e-01,1.54404e-05,9.99999e-01,9.99999e-01,9.99999e-01,1.54404e-05,9.99999e-01
4.531182300e-01,1.92174e-05,9.99999e-01,9.99999e-01,9.99999e-01,1.92174e-05,9.99999e-01
4.553838212e-01,2.38152e-05,9.99999e-01,9.99999e-01,9.99999e-01,2.38152e-05,9.99999e-01
4.576607403e-01,2.93882e-05,9.99999e-01,9.99999e-01,9.99999e-01,2.93882e-05,9.99999e-01
4.599490440e-01,3.61150e-05,9.99999e-01,9.99999e-01,9.99999e-01,3.61150e-05,9.99999e-01
4.622487892e-01,4.42012e-05,9.99999e-01,9.99999e-01,9.99999e-01,4.42012e-05,9.99999e-01
4.645600332e-01,5.38825e-05,9.99999e-01,9.99999e-01,9.99999e-01,5.38825e-05,9.99999e-01
4.668828333e-01,6.54278e-05,9.99999e-01,9.99999e-01,9.99999e-01,6.54278e-05,9.99999e-01
4.692172475e-01,7.91428e-05,9.99999e-01,9.99999e-01,9.99999e-01,7.91428e-05,9.99999e-01
4.715633337e-01,9.53735e-05,9.99999e-01,9.99999e-01,9.99999e-01,9.53735e-05,9.99999e-01
4.739211504e-01,1.14510e-04,9.99999e-01,9.99999e-01,9.99999e-01,1.14510e-04,9.99999e-01
4.762907561e-01,1.36991e-04,9.99999e-01,9.99999e-01,9.99999e-01,1.36991e-04,9.99999e-01
4.786722099e-01,1.63306e-04,9.99999e-01,9.99999e-01,9.99999e-01,1.63306e-04,9.99999e-01
4.810655710e-01,1.94001e-04,9.99999e-01,9.99999e-01,9.99999e-01,1.94001e-04,9.99999e-01
4.834708988e-01,2.29683e-04,9.99999e-01,9.99999e-01,9.99999e-01,2.29683e-04,9.99999e-01
4.858882533e-01,2.71023e-04,9.99999e-01,9.99999e-01,9.99999e-01,2.71023e-04,9.99999e-01
4.883176946e-01,3.18759e-04,9.99999e-01,9.99999e-01,9.99999e-01,3.18759e-04,9.99999e-01
4.907592831e-01,3.73704e-04,9.99999e-01,9.99999e-01,9.99999e-01,3.73704e-04,9.99999e-01
4.932130795e-01,4.36746e-04,9.99999e-01,9.99999e-01,9.99999e-01,4.36746e-04,9.99999e-01
4.956791449e-01,5.08854e-04,9.99999e-01,9.99999e-01,9.99999e-01,5.08854e-04,9.99999e-01
4.981575406e-01,5.91080e-04,9.99999e-01,9.99999e-01,9.99999e-01,5.91080e-04,9.99999e-01
5.006483283e-01,6.84564e-04,9.99999e-01,9.99999e-01,9.99999e-01,6.84564e-04,9.99999e-01
5.031515699e-01,7.90537e-04,9.99999e-01,9.99999e-01,9.99999e-01,7.90537e-04,9.99999e-01
5.056673278e-01,9.10324e-04,9.99999e-01,9.99999e-01,9.99999e-01,9.10324e-04,9.99999e-01
5.081956644e-01,1.04534e-03,9.99999e-01,9.99999e-01,9.99999e-01,1.04534e-03,9.99999e-01
5.107366428e-01,1.19712e-03,9.99999e-01,9.99999e-01,9.99999e-01,1.19712e-03,9.99999e-01
5.132903260e-01,1.36726e-03,9.99999e-01,9.99999e-01,9.99999e-01,1.36726e-03,9.99999e-01
5.158567776e-01,1.55749e-03,9.99999e-01,9.99999e-01,9.99999e-01,1.55749e-03,9.99999e-01
5.184360615e-01,1.76962e-03,9.99999e-01,9.99999e-01,9.99999e-01,1.76962e-03,9.99999e-01
5.210282418e-01,2.00559e-03,9.99999e-01,9.99999e-01,9.99999e-01,2.00559e-03,9.99999e-01
5.236333830e-01,2.26741e-03,9.99999e-01,9.99999e-01,9.99999e-01,2.26741e-03,9.99999e-01
5.262515499e-01,2.55720e-03,9.99999e-01,9.99999e-01,9.99999e-01,2.55720e-03,9.99999e-01
5.288828077e-01,2.87718e-03,9.99999e-01,9.99999e-01,9.99999e-01,2.87718e-03,9.99999e-01
5.315272217e-01,3.22968e-03,9.99999e-01,9.99999e-01,9.99999e-01,3.22968e-03,9.99999e-01
5.341848578e-01,3.61709e-03,9.99999e-01,9.99999e-01,9.99999e-01,3.61709e-03,9.99999e-01
5.368557821e-01,4.04192e-03,9.99999e-01,9.99999e-01,9.99999e-01,4.04192e-03,9.99999e-01
5.395400610e-01,4.50675e-03,9.99999e-01,9.99999e-01,9.99999e-01,4.50675e-03,9.99999e-01
5.422377613e-01,5.01425e-03,9.99999e-01,9.99999e-01,9.99999e-01,5.01425e-03,9.99999e-01
5.449489501e-01,5.56714e-03,9.99999e-01,9.99999e-01,9.99999e-01,5.56714e-03,9.99999e-01
5.476736949e-01,6.16825e-03,9.99999e-01,9.99999e-01,9.99999e-01,6.16825e-03,9.99999e-01
5.504120634e-01,6.82043e-03,9.99999e-01,9.99999e-01,9.99999e-01,6.82043e-03,9.99999e-01
5.531641237e-01,7.52660e-03,9.99999e-01,9.99999e-01,9.99999e-01,7.52660e-03,9.99999e-01
5.559299443e-01,8.28975e-03,9.99999e-01,9.99999e-01,9.99999e-01,8.28975e-03,9.99999e-01
5.587095940e-01,9.11288e-03,9.99999e-01,9.99999e-01,9.99999e-01,9.11288e-03,9.99999e-01
5.615031420e-01,9.99902e-03,9.99999e-01,9.99999e-01,9.99999e-01,9.99902e-03,9.99999e-01
5.643106577e-01,1.09512e-02,9.99999e-01,9.99999e-01,9.99999e-01,1.09512e-02,9.99999e-01
5.671322110e-01,1.19726e-02,9.99999e-01,9.99999e-01,9.99999e-01,1.19726e-02,9.99999e-01
5.699678720e-01,1.30662e-02,9.99999e-01,9.99999e-01,9.99999e-01,1.30662e-02,9.99999e-01
5.728177114e-01,1.42351e-02,9.99999e-01,9.99999e-01,9.99999e-01,1.42351e-02,9.99999e-01
5.756818000e-01,1.54823e-02,9.99999e-01,9.99999e-01,9.99999e-01,1.54823e-02,9.99999e-01
5.785602090e-01,1.68109e-02,9.99999e-01,9.99999e-01,9.99999e-01,1.68109e-02,9.99999e-01
5.814530100e-01,1.82238e-02,9.99999e-01,9.99999e-01,9.99999e-01,1.82238e-02,9.99999e-01
5.843602750e-01,1.97241e-02,9.99999e-01,9.99999e-01,9.99999e-01,1.97241e-02,9.99999e-01
5.872820764e-01,2.13145e-02,9.99999e-01,9.99999e-01,9.99999e-01,2.13145e-02,9.99999e-01
5.902184868e-01,2.29978e-02,9.99999e-01,9.99999e-01,9.99999e-01,2.29978e-02,9.99999e-01
5.931695792e-01,2.47770e-02,9.99999e-01,9.99999e-01,9.99999e-01,2.47770e-02,9.99999e-01
5.961354271e-01,2.66544e-02,9.99999e-01,9.99999e-01,9.99999e-01,2.66544e-02,9.99999e-01
5.991161043e-01,2.86328e-02,9.99999e-01,9.99999e-01,9.99999e-01,2.86328e-02,9.99999e-01
6.021116848e-01,3.07146e-02,9.99999e-01,9.99999e-01,9.99999e-01,3.07146e-02,9.99999e-01
6.051222432e-01,3.29021e-02,9.99999e-01,9.99999e-01,9.99999e-01,3.29021e-02,9.99999e-01
6.081478544e-01,3.51975e-02,9.99999e-01,9.99999e-01,9.99999e-01,3.51975e-02,9.99999e-01
6.111885937e-01,3.76030e-02,9.99999e-01,9.99999e-01,9.99999e-01,3.76030e-02,9.99999e-01
6.142445367e-01,4.01204e-02,9.99999e-01,9.99999e-01,9.99999e-01,4.01204e-02,9.99999e-01
6.173157594e-01,4.27516e-02,9.99999e-01,9.99999e-01,9.99999e-01,4.27516e-02,9.99999e-01
6.204023382e-01,4.54982e-02,9.99999e-01,9.99999e-01,9.99999e-01,4.54982e-02,9.99999e-01
6.235043498e-01,4.83618e-02,9.99999e-01,9.99999e-01,9.99999e-01,4.83618e-02,9.99999e-01
6.266218716e-01,5.13436e-02,9.99999e-01,9.99999e-01,9.99999e-01,5.13436e-02,9.99999e-01
6.297549810e-01,5.44450e-02,9.99999e-01,9.99999e-01,9.99999e-01,5.44450e-02,9.99999e-01
6.329037559e-01,5.76668e-02,9.99999e-01,9.99999e-01,9.99999e-01,5.76668e-02,9.99999e-01
6.360682746e-01,6.10099e-02,9.99999e-01,9.99999e-01,9.99999e-01,6.10099e-02,9.99999e-01
6.392486160e-01,6.44751e-02,9.99999e-01,9.99999e-01,9.99999e-01,6.44751e-02,9.99999e-01
6.424448591e-01,6.80627e-02,9.99999e-01,9.99999e-01,9.99999e-01,6.80627e-02,9.99999e-01
6.456570834e-01,7.17732e-02,9.99999e-01,9.99999e-01,9.99999e-01,7.17732e-02,9.99999e-01
6.488853688e-01,7.56066e-02,9.99999e-01,9.99999e-01,9.99999e-01,7.56066e-02,9.99999e-01
6.521297956e-01,7.95629e-02,9.99999e-01,9.99999e-01,9.99999e-01,7.95629e-02,9.99999e-01
6.553904446e-01,8.36420e-02,9.99999e-01,9.99999e-01,9.99999e-01,8.36420e-02,9.99999e-01
6.586673968e-01,8.78434e-02,9.99999e-01,9.99999e-01,9.99999e-01,8.78434e-02,9.99999e-01
6.619607338e-01,9.21666e-02,9.99999e-01,9.99999e-01,9.99999e-01,9.21666e-02,9.99999e-01
6.652705375e-01,9.66109e-02,9.99999e-01,9.99999e-01,9.99999e-01,9.66109e-02,9.99999e-01
6.685968902e-01,1.01175e-01,9.99999e-01,9.99999e-01,9.99999e-01,1.01175e-01,9.99999e-01
6.719398746e-01,1.05859e-01,9.99999e-01,9.99999e-01,9.99999e-01,1.05859e-01,9.99999e-01
6.752995740e-01,1.10660e-01,9.99999e-01,9.99999e-01,9.99999e-01,1.10660e-01,9.99999e-01
6.786760719e-01,1.15578e-01,9.99999e-01,9.99999e-01,9.99999e-01,1.15578e-01,9.99999e-01
6.820694522e-01,1.20610e-01,9.99999e-01,9.99999e-01,9.99999e-01,1.20610e-01,9.99999e-01
6.854797995e-01,1.25756e-01,9.99999e-01,9.99999e-01,9.99999e-01,1.25756e-01,9.99999e-01
6.889071985e-01,1.31013e-01,9.99999e-01,9.99999e-01,9.99999e-01,1.31013e-01,9.99999e-01
6.923517345e-01,1.36380e-01,9.99999e-01,9.99999e-01,9.99999e-01,1.36380e-01,9.99999e-01
6.958134932e-01,1.41854e-01,9.99999e-01,9.99999e-01,9.99999e-01,1.41854e-01,9.99999e-01
6.992925606e-01,1.47433e-01,9.99999e-01,9.99999e-01,9.99999e-01,1.47433e-01,9.99999e-01
7.027890234e-01,1.53115e-01,9.99999e-01,9.99999e-01,9.99999e-01,1.53115e-01,9.99999e-01
7.063029686e-01,1.58897e-01,9.99999e-01,9.99999e-01,9.99999e-01,1.58897e-01,9.99999e-01
7.098344834e-01,1.64777e-01,9.99999e-01,9.99999e-01,9.99999e-01,1.64777e-01,9.99999e-01
7.133836558e-01,1.70751e-01,9.99999e-01,9.99999e-01,9.99999e-01,1.70751e-01,9.99999e-01
7.169505741e-01,1.76818e-01,9.99999e-01,9.99999e-01,9.99999e-01,1.76818e-01,9.99999e-01
7.205353270e-01,1.82974e-01,9.99999e-01,9.99999e-01,9.99999e-01,1.82974e-01,9.99999e-01
7.241380036e-01,1.89217e-01,9.99999e-01,9.99999e-01,9.99999e-01,1.89217e-01,9.99999e-01
7.277586936e-01,1.95542e-01,9.99999e-01,9.99999e-01,9.99999e-01,1.95542e-01,9.99999e-01
7.313974871e-01,2.01949e-01,9.99999e-01,9.99999e-01,9.99999e-01,2.01949e-01,9.99999e-01
7.350544745e-01,2.08432e-01,9.99999e-01,9.99999e-01,9.99999e-01,2.08432e-01,9.99999e-01
7.387297469e-01,2.14989e-01,9.99999e-01,9.99999e-01,9.99999e-01,2.14989e-01,9.99999e-01
7.424233956e-01,2.21617e-01,9.99999e-01,9.99999e-01,9.99999e-01,2.21617e-01,9.99999e-01
7.461355126e-01,2.28312e-01,9.99999e-01,9.99999e-01,9.99999e-01,2.28312e-01,9.99999e-01
7.498661902e-01,2.35071e-01,9.99999e-01,9.99999e-01,9.99999e-01,2.35071e-01,9.99999e-01
7.536155211e-01,2.41891e-01,9.99999e-01,9.99999e-01,9.99999e-01,2.41891e-01,9.99999e-01
7.573835987e-01,2.48768e-01,9.99999e-01,9.99999e-01,9.99999e-01,2.48768e-01,9.99999e-01
7.611705167e-01,2.55699e-01,9.99999e-01,9.99999e-01,9.99999e-01,2.55699e-01,9.99999e-01
7.649763693e-01,2.62681e-01,9.99999e-01,9.99999e-01,9.99999e-01,2.62681e-01,9.99999e-01
7.688012511e-01,2.69709e-01,9.99999e-01,9.99999e-01,9.99999e-01,2.69709e-01,9.99999e-01
7.726452574e-01,2.76781e-01,9.99999e-01,9.99999e-01,9.99999e-01,2.76781e-01,9.99999e-01
7.765084837e-01,2.83894e-01,9.99999e-01,9.99999e-01,9.99999e-01,2.83894e-01,9.99999e-01
7.803910261e-01,2.75153e-01,9.99999e-01,9.99999e-01,9.45403e-01,2.91043e-01,9.99999e-01
7.842929812e-01,2.32170e-01,9.99999e-01,9.99999e-01,7.78502e-01,2.98226e-01,9.99999e-01
7.882144461e-01,2.33644e-01,9.99999e-01,9.99999e-01,7.64945e-01,3.05439e-01,9.99999e-01
7.921555184e-01,2.66624e-01,9.99999e-01,9.99999e-01,8.52709e-01,3.12679e-01,9.99999e-01
7.961162960e-01,2.87600e-01,9.99999e-01,9.99999e-01,8.98912e-01,3.19942e-01,9.99999e-01
8.000968774e-01,3.08829e-01,9.99999e-01,9.99999e-01,9.43778e-01,3.27226e-01,9.99999e-01
8.040973618e-01,3.24669e-01,9.99999e-01,9.99999e-01,9.70532e-01,3.34527e-01,9.99999e-01
8.081178486e-01,3.37167e-01,9.99999e-01,9.99999e-01,9.86325e-01,3.41841e-01,9.99999e-01
8.121584379e-01,3.47694e-01,9.99999e-01,9.99999e-01,9.95783e-01,3.49166e-01,9.99999e-01
8.162192301e-01,3.56167e-01,9.99999e-01,9.99999e-01,9.99067e-01,3.56499e-01,9.99999e-01
8.203003262e-01,3.63832e-01,9.99999e-01,9.99999e-01,9.99986e-01,3.63837e-01,9.99999e-01
8.244018279e-01,3.71176e-01,9.99999e-01,9.99999e-01,9.99999e-01,3.71176e-01,9.99999e-01
8.285238370e-01,3.78514e-01,9.99999e-01,9.99999e-01,9.99999e-01,3.78514e-01,9.99999e-01
8.326664562e-01,3.85847e-01,9.99999e-01,9.99999e-01,9.99999e-01,3.85847e-01,9.99999e-01
8.368297885e-01,3.93174e-01,9.99999e-01,9.99999e-01,9.99999e-01,3.93174e-01,9.99999e-01
8.410139374e-01,4.00491e-01,9.99999e-01,9.99999e-01,9.99999e-01,4.00491e-01,9.99999e-01
8.452190071e-01,4.07796e-01,9.99999e-01,9.99999e-01,9.99999e-01,4.07796e-01,9.99999e-01
8.494451021e-01,4.15085e-01,9.99999e-01,9.99999e-01,9.99999e-01,4.15085e-01,9.99999e-01
8.536923276e-01,4.22357e-01,9.99999e-01,9.99999e-01,9.99999e-01,4.22357e-01,9.99999e-01
8.579607893e-01,4.29609e-01,9.99999e-01,9.99999e-01,9.99999e-01,4.29609e-01,9.99999e-01
8.622505932e-01,4.36839e-01,9.99999e-01,9.99999e-01,9.99999e-01,4.36839e-01,9.99999e-01
8.665618462e-01,3.98921e-01,9.99999e-01,9.99999e-01,8.98380e-01,4.44044e-01,9.99999e-01
8.708946554e-01,2.40444e-01,9.99999e-01,9.99999e-01,5.32873e-01,4.51222e-01,9.99999e-01
8.752491287e-01,2.74595e-01,9.99999e-01,9.99999e-01,5.99068e-01,4.58371e-01,9.99999e-01
8.796253743e-01,3.50311e-01,9.99999e-01,9.99999e-01,7.52567e-01,4.65488e-01,9.99999e-01
8.840235012e-01,4.07413e-01,9.99999e-01,9.99999e-01,8.62117e-01,4.72572e-01,9.99999e-01
8.884436187e-01,4.52388e-01,9.99999e-01,9.99999e-01,9.43218e-01,4.79621e-01,9.99999e-01
8.928858368e-01,4.75227e-01,9.99999e-01,9.99999e-01,9.76560e-01,4.86633e-01,9.99999e-01
8.973502660e-01,4.90781e-01,9.99999e-01,9.99999e-01,9.94278e-01,4.93605e-01,9.99999e-01
9.018370173e-01,5.00222e-01,9.99999e-01,9.99999e-01,9.99368e-01,5.00537e-01,9.99999e-01
9.063462024e-01,4.99137e-01,9.99999e-01,9.99999e-01,9.83662e-01,5.07427e-01,9.99999e-01
9.108779334e-01,4.95361e-01,9.99999e-01,9.99999e-01,9.63226e-01,5.14272e-01,9.99999e-01
9.154323231e-01,5.16540e-01,9.99999e-01,9.99999e-01,9.91301e-01,5.21072e-01,9.99999e-01
9.200094847e-01,4.66491e-01,9.99999e-01,9.99999e-01,8.83798e-01,5.27824e-01,9.99999e-01
9.246095321e-01,4.45076e-01,9.99999e-01,9.99999e-01,8.32650e-01,5.34529e-01,9.99999e-01
9.292325798e-01,4.68824e-01,9.99999e-01,9.99999e-01,8.66294e-01,5.41183e-01,9.99999e-01
9.338787427e-01,4.76951e-01,9.99999e-01,9.99999e-01,8.70686e-01,5.47787e-01,9.99999e-01
9.385481364e-01,5.00547e-01,9.99999e-01,9.99999e-01,9.02963e-01,5.54338e-01,9.99999e-01
9.432408771e-01,5.26861e-01,9.99999e-01,9.99999e-01,9.39421e-01,5.60836e-01,9.99999e-01
9.479570815e-01,5.49353e-01,9.99999e-01,9.99999e-01,9.68398e-01,5.67279e-01,9.99999e-01
9.526968669e-01,5.64869e-01,9.99999e-01,9.99999e-01,9.84663e-01,5.73667e-01,9.99999e-01
9.574603512e-01,5.76180e-01,9.99999e-01,9.99999e-01,9.93415e-01,5.79998e-01,9.99999e-01
9.622476530e-01,5.85067e-01,9.99999e-01,9.99999e-01,9.97943e-01,5.86273e-01,9.99999e-01
9.670588912e-01,5.92124e-01,9.99999e-01,9.99999e-01,9.99384e-01,5.92489e-01,9.99999e-01
9.718941857e-01,5.98621e-01,9.99999e-01,9.99999e-01,9.99956e-01,5.98646e-01,9.99999e-01
9.767536566e-01,6.04744e-01,9.99999e-01,9.99999e-01,9.99999e-01,6.04744e-01,9.99999e-01
9.816374249e-01,6.10782e-01,9.99999e-01,9.99999e-01,9.99999e-01,6.10782e-01,9.99999e-01
9.865456120e-01,6.16759e-01,9.99999e-01,9.99999e-01,9.99999e-01,6.16759e-01,9.99999e-01
9.914783401e-01,6.22675e-01,9.99999e-01,9.99999e-01,9.99999e-01,6.22675e-01,9.99999e-01
9.964357318e-01,6.28529e-01,9.99999e-01,9.99999e-01,9.99999e-01,6.28529e-01,9.99999e-01
1.001417910e+00,6.34320e-01,9.99999e-01,9.99999e-01,9.99999e-01,6.34320e-01,9.99999e-01
1.006425000e+00,6.40050e-01,9.99999e-01,9.99999e-01,9.99999e-01,6.40050e-01,9.99999e-01
1.011457125e+00,6.45716e-01,9.99999e-01,9.99999e-01,9.99999e-01,6.45716e-01,9.99999e-01
1.016514411e+00,6.51319e-01,9.99999e-01,9.99999e-01,9.99999e-01,6.51319e-01,9.99999e-01
1.021596983e+00,6.56796e-01,9.99999e-01,9.99999e-01,9.99904e-01,6.56858e-01,9.99999e-01
1.026704968e+00,6.58068e-01,9.99999e-01,9.99999e-01,9.93558e-01,6.62334e-01,9.99999e-01
1.031838492e+00,6.23828e-01,9.99999e-01,9.99999e-01,9.34229e-01,6.67746e-01,9.99999e-01
1.036997685e+00,6.24806e-02,9.99999e-01,9.99999e-01,9.28259e-02,6.73094e-01,9.99999e-01
1.042182673e+00,2.26385e-02,9.99999e-01,9.99999e-01,3.33715e-02,6.78377e-01,9.99999e-01
1.047393587e+00,3.66762e-02,9.99999e-01,9.99999e-01,5.36517e-02,6.83597e-01,9.99999e-01
1.052630555e+00,1.43301e-04,9.99999e-01,9.99999e-01,2.08058e-04,6.88753e-01,9.99999e-01
1.057893707e+00,4.75878e-04,9.99999e-01,9.99999e-01,6.85857e-04,6.93844e-01,9.99999e-01
1.063183176e+00,3.07694e-03,9.99999e-01,9.99999e-01,4.40272e-03,6.98872e-01,9.99999e-01
1.068499092e+00,1.40723e-02,9.99999e-01,9.99999e-01,1.99937e-02,7.03835e-01,9.99999e-01
1.073841587e+00,5.91210e-02,9.99999e-01,9.99999e-01,8.34176e-02,7.08735e-01,9.99999e-01
1.079210795e+00,1.48208e-01,9.99999e-01,9.99999e-01,2.07699e-01,7.13571e-01,9.99999e-01
1.084606849e+00,2.99714e-01,9.99999e-01,9.99999e-01,4.17230e-01,7.18343e-01,9.99999e-01
1.090029883e+00,4.58434e-01,9.99999e-01,9.99999e-01,6.34025e-01,7.23053e-01,9.99999e-01
1.095480033e+00,5.81301e-01,9.99999e-01,9.99999e-01,7.98821e-01,7.27699e-01,9.99999e-01
1.100957433e+00,6.57029e-01,9.99999e-01,9.99999e-01,8.97234e-01,7.32282e-01,9.99999e-01
1.106462220e+00,7.04507e-01,9.99999e-01,9.99999e-01,9.56167e-01,7.36803e-01,9.99999e-01
1.111994531e+00,7.29044e-01,9.99999e-01,9.99999e-01,9.83517e-01,7.41261e-01,9.99999e-01
1.117554504e+00,7.42650e-01,9.99999e-01,9.99999e-01,9.95964e-01,7.45658e-01,9.99999e-01
1.123142276e+00,7.49795e-01,9.99999e-01,9.99999e-01,9.99735e-01,7.49993e-01,9.99999e-01
1.128757988e+00,7.54267e-01,9.99999e-01,9.99999e-01,9.99999e-01,7.54267e-01,9.99999e-01
1.134401778e+00,7.58481e-01,9.99999e-01,9.99999e-01,9.99999e-01,7.58481e-01,9.99999e-01
1.140073787e+00,7.62634e-01,9.99999e-01,9.99999e-01,9.99999e-01,7.62634e-01,9.99999e-01
1.145774156e+00,7.66726e-01,9.99999e-01,9.99999e-01,9.99999e-01,7.66726e-01,9.99999e-01
1.151503026e+00,7.70760e-01,9.99999e-01,9.99999e-01,9.99999e-01,7.70760e-01,9.99999e-01
1.157260541e+00,7.74734e-01,9.99999e-01,9.99999e-01,9.99999e-01,7.74734e-01,9.99999e-01
1.163046844e+00,7.78650e-01,9.99999e-01,9.99999e-01,9.99999e-01,7.78650e-01,9.99999e-01
1.168862078e+00,7.82507e-01,9.99999e-01,9.99999e-01,9.99999e-01,7.82507e-01,9.99999e-01
1.174706389e+00,7.86307e-01,9.99999e-01,9.99999e-01,9.99999e-01,7.86307e-01,9.99999e-01
1.180579921e+00,7.90050e-01,9.99999e-01,9.99999e-01,9.99999e-01,7.90050e-01,9.99999e-01
1.186482820e+00,7.93725e-01,9.99999e-01,9.99999e-01,9.99985e-01,7.93736e-01,9.99999e-01
1.192415234e+00,7.79336e-01,9.99999e-01,9.99999e-01,9.77387e-01,7.97366e-01,9.99999e-01
1.198377311e+00,4.36407e-01,9.99999e-01,9.99999e-01,5.44868e-01,8.00941e-01,9.99999e-01
1.204369197e+00,1.71482e-17,9.99999e-01,9.99999e-01,2.13164e-17,8.04460e-01,9.99999e-01
1.210391043e+00,9.83132e-68,9.99999e-01,9.99999e-01,1.21686e-67,8.07925e-01,9.99999e-01
1.216442998e+00,9.47859e-59,9.99999e-01,9.99999e-01,1.16827e-58,8.11336e-01,9.99999e-01
1.222525213e+00,6.97226e-58,9.99999e-01,9.99999e-01,8.55813e-58,8.14693e-01,9.99999e-01
1.228637839e+00,8.56435e-45,9.99999e-01,9.99999e-01,1.04699e-44,8.17998e-01,9.99999e-01
