#,Wave/freq,Total,N2,O2,CO2,Rayleigh,CIA
4.000000000e-01,8.09323e-16,9.99999e-01,9.99999e-01,9.99999e-01,8.09323e-16,9.99999e-01
4.020000000e-01,1.60893e-15,9.99999e-01,9.99999e-01,9.99999e-01,1.60893e-15,9.99999e-01
4.040100000e-01,3.15316e-15,9.99999e-01,9.99999e-01,9.99999e-01,3.15316e-15,9.99999e-01
4.060300500e-01,6.09791e-15,9.99999e-01,9.99999e-01,9.99999e-01,6.09791e-15,9.99999e-01
4.080602003e-01,1.16402e-14,9.99999e-01,9.99999e-01,9.99999e-01,1.16402e-14,9.99999e-01
4.101005013e-01,2.19377e-14,9.99999e-01,9.99999e-01,9.99999e-01,2.19377e-14,9.99999e-01
4.121510038e-01,4.08307e-14,9.99999e-01,9.99999e-01,9.99999e-01,4.08307e-14,9.99999e-01
4.142117588e-01,7.50676e-14,9.99999e-01,9.99999e-01,9.99999e-01,7.50676e-14,9.99999e-01
4.162828176e-01,1.36362e-13,9.99999e-01,9.99999e-01,9.99999e-01,1.36362e-13,9.99999e-01
4.183642317e-01,2.44803e-13,9.99999e-01,9.99999e-01,9.99999e-01,2.44803e-13,9.99999e-01
4.204560528e-01,4.34429e-13,9.99999e-01,9.99999e-01,9.99999e-01,4.34429e-13,9.99999e-01
4.225583331e-01,7.62255e-13,9.99999e-01,9.99999e-01,9.99999e-01,7.62255e-13,9.99999e-01
4.246711247e-01,1.32269e-12,9.99999e-01,9.99999e-01,9.99999e-01,1.32269e-12,9.99999e-01
4.267944804e-01,2.27033e-12,9.99999e-01,9.99999e-01,9.99999e-01,2.27033e-12,9.99999e-01
4.289284528e-01,3.85554e-12,9.99999e-01,9.99999e-01,9.99999e-01,3.85554e-12,9.99999e-01
4.310730950e-01,6.47946e-12,9.99999e-01,9.99999e-01,9.99999e-01,6.47946e-12,9.99999e-01
4.332284605e-01,1.07780e-11,9.99999e-01,9.99999e-01,9.99999e-01,1.07780e-11,9.99999e-01
4.353946028e-01,1.77490e-11,9.99999e-01,9.99999e-01,9.99999e-01,1.77490e-11,9.99999e-01
4.375715758e-01,2.89420e-11,9.99999e-01,9.99999e-01,9.99999e-01,2.89420e-11,9.99999e-01
4.397594337e-01,4.67401e-11,9.99999e-01,9.99999e-01,9.99999e-01,4.67401e-11,9.99999e-01
4.419582309e-01,7.47719e-11,9.99999e-01,9.99999e-01,9.99999e-01,7.47719e-11,9.99999e-01
4.441680220e-01,1.18511e-10,9.99999e-01,9.99999e-01,9.99999e-01,1.18511e-10,9.99999e-01
4.463888621e-01,1.86134e-10,9.99999e-01,9.99999e-01,9.99999e-01,1.86134e-10,9.99999e-01
4.486208064e-01,2.89748e-10,9.99999e-01,9.99999e-01,9.99999e-01,2.89748e-10,9.99999e-01
4.508639105e-01,4.47115e-10,9.99999e-01,9.99999e-01,9.99999e-01,4.47115e-10,9.99999e-01
4.531182300e-01,6.84064e-10,9.99999e-01,9.99999e-01,9.99999e-01,6.84064e-10,9.99999e-01
4.553838212e-01,1.03783e-09,9.99999e-01,9.99999e-01,9.99999e-01,1.03783e-09,9.99999e-01
4.576607403e-01,1.56164e-09,9.99999e-01,9.99999e-01,9.99999e-01,1.56164e-09,9.99999e-01
4.599490440e-01,2.33093e-09,9.99999e-01,9.99999e-01,9.99999e-01,2.33093e-09,9.99999e-01
4.622487892e-01,3.45176e-09,9.99999e-01,9.99999e-01,9.99999e-01,3.45176e-09,9.99999e-01
4.645600332e-01,5.07208e-09,9.99999e-01,9.99999e-01,9.99999e-01,5.07208e-09,9.99999e-01
4.668828333e-01,7.39655e-09,9.99999e-01,9.99999e-01,9.99999e-01,7.39655e-09,9.99999e-01
4.692172475e-01,1.07062e-08,9.99999e-01,9.99999e-01,9.99999e-01,1.07062e-08,9.99999e-01
4.715633337e-01,1.53840e-08,9.99999e-01,9.99999e-01,9.99999e-01,1.53840e-08,9.99999e-01
4.739211504e-01,2.19480e-08,9.99999e-01,9.99999e-01,9.99999e-01,2.19480e-08,9.99999e-01
4.762907561e-01,3.10936e-08,9.99999e-01,9.99999e-01,9.99999e-01,3.10936e-08,9.99999e-01
4.786722099e-01,4.37481e-08,9.99999e-01,9.99999e-01,9.99999e-01,4.37481e-08,9.99999e-01
4.810655710e-01,6.11391e-08,9.99999e-01,9.99999e-01,9.99999e-01,6.11391e-08,9.99999e-01
4.834708988e-01,8.48803e-08,9.99999e-01,9.99999e-01,9.99999e-01,8.48803e-08,9.99999e-01
4.858882533e-01,1.17079e-07,9.99999e-01,9.99999e-01,9.99999e-01,1.17079e-07,9.99999e-01
4.883176946e-01,1.60471e-07,9.99999e-01,9.99999e-01,9.99999e-01,1.60471e-07,9.99999e-01
4.907592831e-01,2.18578e-07,9.99999e-01,9.99999e-01,9.99999e-01,2.18578e-07,9.99999e-01
4.932130795e-01,2.95914e-07,9.99999e-01,9.99999e-01,9.99999e-01,2.95914e-07,9.99999e-01
4.956791449e-01,3.98222e-07,9.99999e-01,9.99999e-01,9.99999e-01,3.98222e-07,9.99999e-01
4.981575406e-01,5.32769e-07,9.99999e-01,9.99999e-01,9.99999e-01,5.32769e-07,9.99999e-01
5.006483283e-01,7.08688e-07,9.99999e-01,9.99999e-01,9.99999e-01,7.08688e-07,9.99999e-01
5.031515699e-01,9.37398e-07,9.99999e-01,9.99999e-01,9.99999e-01,9.37398e-07,9.99999e-01
5.056673278e-01,1.23309e-06,9.99999e-01,9.99999e-01,9.99999e-01,1.23309e-06,9.99999e-01
5.081956644e-01,1.61328e-06,9.99999e-01,9.99999e-01,9.99999e-01,1.61328e-06,9.99999e-01
5.107366428e-01,2.09953e-06,9.99999e-01,9.99999e-01,9.99999e-01,2.09953e-06,9.99999e-01
5.132903260e-01,2.71816e-06,9.99999e-01,9.99999e-01,9.99999e-01,2.71816e-06,9.99999e-01
5.158567776e-01,3.50116e-06,9.99999e-01,9.99999e-01,9.99999e-01,3.50116e-06,9.99999e-01
5.184360615e-01,4.48722e-06,9.99999e-01,9.99999e-01,9.99999e-01,4.48722e-06,9.99999e-01
5.210282418e-01,5.72287e-06,9.99999e-01,9.99999e-01,9.99999e-01,5.72287e-06,9.99999e-01
5.236333830e-01,7.26380e-06,9.99999e-01,9.99999e-01,9.99999e-01,7.26380e-06,9.99999e-01
5.262515499e-01,9.17633e-06,9.99999e-01,9.99999e-01,9.99999e-01,9.17633e-06,9.99999e-01
5.288828077e-01,1.15390e-05,9.99999e-01,9.99999e-01,9.99999e-01,1.15390e-05,9.99999e-01
5.315272217e-01,1.44445e-05,9.99999e-01,9.99999e-01,9.99999e-01,1.44445e-05,9.99999e-01
5.341848578e-01,1.80016e-05,9.99999e-01,9.99999e-01,9.99999e-01,1.80016e-05,9.99999e-01
5.368557821e-01,2.23373e-05,9.99999e-01,9.99999e-01,9.99999e-01,2.23373e-05,9.99999e-01
5.395400610e-01,2.75993e-05,9.99999e-01,9.99999e-01,9.99999e-01,2.75993e-05,9.99999e-01
5.422377613e-01,3.39588e-05,9.99999e-01,9.99999e-01,9.99999e-01,3.39588e-05,9.99999e-01
5.449489501e-01,4.16128e-05,9.99999e-01,9.99999e-01,9.99999e-01,4.16128e-05,9.99999e-01
5.476736949e-01,5.07876e-05,9.99999e-01,9.99999e-01,9.99999e-01,5.07876e-05,9.99999e-01
5.504120634e-01,6.17419e-05,9.99999e-01,9.99999e-01,9.99999e-01,6.17419e-05,9.99999e-01
5.531641237e-01,7.47698e-05,9.99999e-01,9.99999e-01,9.99999e-01,7.47698e-05,9.99999e-01
5.559299443e-01,9.02049e-05,9.99999e-01,9.99999e-01,9.99999e-01,9.02049e-05,9.99999e-01
5.587095940e-01,1.08424e-04,9.99999e-01,9.99999e-01,9.99999e-01,1.08424e-04,9.99999e-01
5.615031420e-01,1.29850e-04,9.99999e-01,9.99999e-01,9.99999e-01,1.29850e-04,9.99999e-01
5.643106577e-01,1.54957e-04,9.99999e-01,9.99999e-01,9.99999e-01,1.54957e-04,9.99999e-01
5.671322110e-01,1.84273e-04,9.99999e-01,9.99999e-01,9.99999e-01,1.84273e-04,9.99999e-01
5.699678720e-01,2.18388e-04,9.99999e-01,9.99999e-01,9.99999e-01,2.18388e-04,9.99999e-01
5.728177114e-01,2.57952e-04,9.99999e-01,9.99999e-01,9.99999e-01,2.57952e-04,9.99999e-01
5.756818000e-01,3.03682e-04,9.99999e-01,9.99999e-01,9.99999e-01,3.03682e-04,9.99999e-01
5.785602090e-01,3.56369e-04,9.99999e-01,9.99999e-01,9.99999e-01,3.56369e-04,9.99999e-01
5.814530100e-01,4.16878e-04,9.99999e-01,9.99999e-01,9.99999e-01,4.16878e-04,9.99999e-01
5.843602750e-01,4.86152e-04,9.99999e-01,9.99999e-01,9.99999e-01,4.86152e-04,9.99999e-01
5.872820764e-01,5.65218e-04,9.99999e-01,9.99999e-01,9.99999e-01,5.65218e-04,9.99999e-01
5.902184868e-01,6.55191e-04,9.99999e-01,9.99999e-01,9.99999e-01,6.55191e-04,9.99999e-01
5.931695792e-01,7.57273e-04,9.99999e-01,9.99999e-01,9.99999e-01,7.57273e-04,9.99999e-01
5.961354271e-01,8.72761e-04,9.99999e-01,9.99999e-01,9.99999e-01,8.72761e-04,9.99999e-01
5.991161043e-01,1.00304e-03,9.99999e-01,9.99999e-01,9.99999e-01,1.00304e-03,9.99999e-01
6.021116848e-01,1.14961e-03,9.99999e-01,9.99999e-01,9.99999e-01,1.14961e-03,9.99999e-01
6.051222432e-01,1.31405e-03,9.99999e-01,9.99999e-01,9.99999e-01,1.31405e-03,9.99999e-01
6.081478544e-01,1.49805e-03,9.99999e-01,9.99999e-01,9.99999e-01,1.49805e-03,9.99999e-01
6.111885937e-01,1.70340e-03,9.99999e-01,9.99999e-01,9.99999e-01,1.70340e-03,9.99999e-01
6.142445367e-01,1.93200e-03,9.99999e-01,9.99999e-01,9.99999e-01,1.93200e-03,9.99999e-01
6.173157594e-01,2.18582e-03,9.99999e-01,9.99999e-01,9.99999e-01,2.18582e-03,9.99999e-01
6.204023382e-01,2.46697e-03,9.99999e-01,9.99999e-01,9.99999e-01,2.46697e-03,9.99999e-01
6.235043498e-01,2.77763e-03,9.99999e-01,9.99999e-01,9.99999e-01,2.77763e-03,9.99999e-01
6.266218716e-01,3.12010e-03,9.99999e-01,9.99999e-01,9.99999e-01,3.12010e-03,9.99999e-01
6.297549810e-01,3.49675e-03,9.99999e-01,9.99999e-01,9.99999e-01,3.49675e-03,9.99999e-01
6.329037559e-01,3.91006e-03,9.99999e-01,9.99999e-01,9.99999e-01,3.91006e-03,9.99999e-01
6.360682746e-01,4.36258e-03,9.99999e-01,9.99999e-01,9.99999e-01,4.36258e-03,9.99999e-01
6.392486160e-01,4.85696e-03,9.99999e-01,9.99999e-01,9.99999e-01,4.85696e-03,9.99999e-01
6.424448591e-01,5.39591e-03,9.99999e-01,9.99999e-01,9.99999e-01,5.39591e-03,9.99999e-01
6.456570834e-01,5.98221e-03,9.99999e-01,9.99999e-01,9.99999e-01,5.98221e-03,9.99999e-01
6.488853688e-01,6.61873e-03,9.99999e-01,9.99999e-01,9.99999e-01,6.61873e-03,9.99999e-01
6.521297956e-01,7.30835e-03,9.99999e-01,9.99999e-01,9.99999e-01,7.30835e-03,9.99999e-01
6.553904446e-01,8.05405e-03,9.99999e-01,9.99999e-01,9.99999e-01,8.05405e-03,9.99999e-01
6.586673968e-01,8.85882e-03,9.99999e-01,9.99999e-01,9.99999e-01,8.85882e-03,9.99999e-01
6.619607338e-01,9.72569e-03,9.99999e-01,9.99999e-01,9.99999e-01,9.72569e-03,9.99999e-01
6.652705375e-01,1.06577e-02,9.99999e-01,9.99999e-01,9.99999e-01,1.06577e-02,9.99999e-01
6.685968902e-01,1.16580e-02,9.99999e-01,9.99999e-01,9.99999e-01,1.16580e-02,9.99999e-01
6.719398746e-01,1.27295e-02,9.99999e-01,9.99999e-01,9.99999e-01,1.27295e-02,9.99999e-01
6.752995740e-01,1.38754e-02,9.99999e-01,9.99999e-01,9.99999e-01,1.38754e-02,9.99999e-01
6.786760719e-01,1.50988e-02,9.99999e-01,9.99999e-01,9.99999e-01,1.50988e-02,9.99999e-01
6.820694522e-01,1.64026e-02,9.99999e-01,9.99999e-01,9.99999e-01,1.64026e-02,9.99999e-01
6.854797995e-01,1.77898e-02,9.99999e-01,9.99999e-01,9.99999e-01,1.77898e-02,9.99999e-01
6.889071985e-01,1.92635e-02,9.99999e-01,9.99999e-01,9.99999e-01,1.92635e-02,9.99999e-01
6.923517345e-01,2.08265e-02,9.99999e-01,9.99999e-01,9.99999e-01,2.08265e-02,9.99999e-01
6.958134932e-01,2.24816e-02,9.99999e-01,9.99999e-01,9.99999e-01,2.24816e-02,9.99999e-01
6.992925606e-01,2.42316e-02,9.99999e-01,9.99999e-01,9.99999e-01,2.42316e-02,9.99999e-01
7.027890234e-01,2.60793e-02,9.99999e-01,9.99999e-01,9.99999e-01,2.60793e-02,9.99999e-01
7.063029686e-01,2.80270e-02,9.99999e-01,9.99999e-01,9.99999e-01,2.80270e-02,9.99999e-01
7.098344834e-01,3.00775e-02,9.99999e-01,9.99999e-01,9.99999e-01,3.00775e-02,9.99999e-01
7.133836558e-01,3.22329e-02,9.99999e-01,9.99999e-01,9.99999e-01,3.22329e-02,9.99999e-01
7.169505741e-01,3.44957e-02,9.99999e-01,9.99999e-01,9.99999e-01,3.44957e-02,9.99999e-01
7.205353270e-01,3.68678e-02,9.99999e-01,9.99999e-01,9.99999e-01,3.68678e-02,9.99999e-01
7.241380036e-01,3.93514e-02,9.99999e-01,9.99999e-01,9.99999e-01,3.93514e-02,9.99999e-01
7.277586936e-01,4.19481e-02,9.99999e-01,9.99999e-01,9.99999e-01,4.19481e-02,9.99999e-01
7.313974871e-01,4.46599e-02,9.99999e-01,9.99999e-01,9.99999e-01,4.46599e-02,9.99999e-01
7.350544745e-01,4.74881e-02,9.99999e-01,9.99999e-01,9.99999e-01,4.74881e-02,9.99999e-01
7.387297469e-01,5.04343e-02,9.99999e-01,9.99999e-01,9.99999e-01,5.04343e-02,9.99999e-01
7.424233956e-01,5.34995e-02,9.99999e-01,9.99999e-01,9.99999e-01,5.34995e-02,9.99999e-01
7.461355126e-01,5.66850e-02,9.99999e-01,9.99999e-01,9.99999e-01,5.66850e-02,9.99999e-01
7.498661902e-01,5.99916e-02,9.99999e-01,9.99999e-01,9.99999e-01,5.99916e-02,9.99999e-01
7.536155211e-01,6.34200e-02,9.99999e-01,9.99999e-01,9.99999e-01,6.34200e-02,9.99999e-01
7.573835987e-01,6.69707e-02,9.99999e-01,9.99999e-01,9.99999e-01,6.69707e-02,9.99999e-01
7.611705167e-01,7.06442e-02,9.99999e-01,9.99999e-01,9.99999e-01,7.06442e-02,9.99999e-01
7.649763693e-01,7.44407e-02,9.99999e-01,9.99999e-01,9.99999e-01,7.44407e-02,9.99999e-01
7.688012511e-01,7.83601e-02,9.99999e-01,9.99999e-01,9.99999e-01,7.83601e-02,9.99999e-01
7.726452574e-01,8.24023e-02,9.99999e-01,9.99999e-01,9.99999e-01,8.24023e-02,9.99999e-01
7.765084837e-01,8.65670e-02,9.99999e-01,9.99999e-01,9.99999e-01,8.65670e-02,9.99999e-01
7.803910261e-01,8.29745e-02,9.99999e-01,9.99999e-01,9.13276e-01,9.08536e-02,9.99999e-01
7.842929812e-01,5.94591e-02,9.99999e-01,9.99999e-01,6.24166e-01,9.52615e-02,9.99999e-01
7.882144461e-01,6.09000e-02,9.99999e-01,9.99999e-01,6.10282e-01,9.97898e-02,9.99999e-01
7.921555184e-01,7.70037e-02,9.99999e-01,9.99999e-01,7.37317e-01,1.04438e-01,9.99999e-01
7.961162960e-01,8.86941e-02,9.99999e-01,9.99999e-01,8.12189e-01,1.09204e-01,9.99999e-01
8.000968774e-01,1.01916e-01,9.99999e-01,9.99999e-01,8.93319e-01,1.14086e-01,9.99999e-01
8.040973618e-01,1.12282e-01,9.99999e-01,9.99999e-01,9.42877e-01,1.19085e-01,9.99999e-01
8.081178486e-01,1.20900e-01,9.99999e-01,9.99999e-01,9.73451e-01,1.24197e-01,9.99999e-01
8.121584379e-01,1.28340e-01,9.99999e-01,9.99999e-01,9.91652e-01,1.29421e-01,9.99999e-01
8.162192301e-01,1.34505e-01,9.99999e-01,9.99999e-01,9.98149e-01,1.34755e-01,9.99999e-01
8.203003262e-01,1.40192e-01,9.99999e-01,9.99999e-01,9.99968e-01,1.40197e-01,9.99999e-01
8.244018279e-01,1.45744e-01,9.99999e-01,9.99999e-01,9.99999e-01,1.45744e-01,9.99999e-01
8.285238370e-01,1.51395e-01,9.99999e-01,9.99999e-01,9.99999e-01,1.51395e-01,9.99999e-01
8.326664562e-01,1.57147e-01,9.99999e-01,9.99999e-01,9.99999e-01,1.57147e-01,9.99999e-01
8.368297885e-01,1.62998e-01,9.99999e-01,9.99999e-01,9.99999e-01,1.62998e-01,9.99999e-01
8.410139374e-01,1.68944e-01,9.99999e-01,9.99999e-01,9.99999e-01,1.68944e-01,9.99999e-01
8.452190071e-01,1.74984e-01,9.99999e-01,9.99999e-01,9.99999e-01,1.74984e-01,9.99999e-01
8.494451021e-01,1.81113e-01,9.99999e-01,9.99999e-01,9.99999e-01,1.81113e-01,9.99999e-01
8.536923276e-01,1.87330e-01,9.99999e-01,9.99999e-01,9.99999e-01,1.87330e-01,9.99999e-01
8.579607893e-01,1.93631e-01,9.99999e-01,9.99999e-01,9.99999e-01,1.93631e-01,9.99999e-01
8.622505932e-01,2.00014e-01,9.99999e-01,9.99999e-01,9.99999e-01,2.00014e-01,9.99999e-01
8.665618462e-01,1.79721e-01,9.99999e-01,9.99999e-01,8.70430e-01,2.06474e-01,9.99999e-01
8.708946554e-01,6.75152e-02,9.99999e-01,9.99999e-01,3.16959e-01,2.13009e-01,9.99999e-01
8.752491287e-01,8.37092e-02,9.99999e-01,9.99999e-01,3.81161e-01,2.19616e-01,9.99999e-01
8.796253743e-01,1.31226e-01,9.99999e-01,9.99999e-01,5.79900e-01,2.26291e-01,9.99999e-01
8.840235012e-01,1.74703e-01,9.99999e-01,9.99999e-01,7.49697e-01,2.33032e-01,9.99999e-01
8.884436187e-01,2.13798e-01,9.99999e-01,9.99999e-01,8.91441e-01,2.39834e-01,9.99999e-01
8.928858368e-01,2.35476e-01,9.99999e-01,9.99999e-01,9.54526e-01,2.46694e-01,9.99999e-01
8.973502660e-01,2.50738e-01,9.99999e-01,9.99999e-01,9.88679e-01,2.53609e-01,9.99999e-01
9.018370173e-01,2.60248e-01,9.99999e-01,9.99999e-01,9.98743e-01,2.60576e-01,9.99999e-01
9.063462024e-01,2.59547e-01,9.99999e-01,9.99999e-01,9.69942e-01,2.67590e-01,9.99999e-01
9.108779334e-01,2.55279e-01,9.99999e-01,9.99999e-01,9.29470e-01,2.74650e-01,9.99999e-01
9.154323231e-01,2.76903e-01,9.99999e-01,9.99999e-01,9.82794e-01,2.81751e-01,9.99999e-01
9.200094847e-01,2.33664e-01,9.99999e-01,9.99999e-01,8.08835e-01,2.88889e-01,9.99999e-01
9.246095321e-01,2.07565e-01,9.99999e-01,9.99999e-01,7.01083e-01,2.96062e-01,9.99999e-01
9.292325798e-01,2.31434e-01,9.99999e-01,9.99999e-01,7.63135e-01,3.03267e-01,9.99999e-01
9.338787427e-01,2.37724e-01,9.99999e-01,9.99999e-01,7.65619e-01,3.10499e-01,9.99999e-01
9.385481364e-01,2.60673e-01,9.99999e-01,9.99999e-01,8.20357e-01,3.17755e-01,9.99999e-01
9.432408771e-01,2.87579e-01,9.99999e-01,9.99999e-01,8.84768e-01,3.25033e-01,9.99999e-01
9.479570815e-01,3.12140e-01,9.99999e-01,9.99999e-01,9.39248e-01,3.32329e-01,9.99999e-01
9.526968669e-01,3.29521e-01,9.99999e-01,9.99999e-01,9.70206e-01,3.39640e-01,9.99999e-01
9.574603512e-01,3.42497e-01,9.99999e-01,9.99999e-01,9.87128e-01,3.46962e-01,9.99999e-01
9.622476530e-01,3.52863e-01,9.99999e-01,9.99999e-01,9.95962e-01,3.54293e-01,9.99999e-01
9.670588912e-01,3.61191e-01,9.99999e-01,9.99999e-01,9.98785e-01,3.61630e-01,9.99999e-01
9.718941857e-01,3.68936e-01,9.99999e-01,9.99999e-01,9.99912e-01,3.68969e-01,9.99999e-01
9.767536566e-01,3.76307e-01,9.99999e-01,9.99999e-01,9.99999e-01,3.76307e-01,9.99999e-01
9.816374249e-01,3.83642e-01,9.99999e-01,9.99999e-01,9.99999e-01,3.83642e-01,9.99999e-01
9.865456120e-01,3.90971e-01,9.99999e-01,9.99999e-01,9.99999e-01,3.90971e-01,9.99999e-01
9.914783401e-01,3.98292e-01,9.99999e-01,9.99999e-01,9.99999e-01,3.98292e-01,9.99999e-01
9.964357318e-01,4.05600e-01,9.99999e-01,9.99999e-01,9.99999e-01,4.05600e-01,9.99999e-01
1.001417910e+00,4.12895e-01,9.99999e-01,9.99999e-01,9.99999e-01,4.12895e-01,9.99999e-01
1.006425000e+00,4.20172e-01,9.99999e-01,9.99999e-01,9.99999e-01,4.20172e-01,9.99999e-01
1.011457125e+00,4.27431e-01,9.99999e-01,9.99999e-01,9.99999e-01,4.27431e-01,9.99999e-01
1.016514411e+00,4.34667e-01,9.99999e-01,9.99999e-01,9.99999e-01,4.34667e-01,9.99999e-01
1.021596983e+00,4.41814e-01,9.99999e-01,9.99999e-01,9.99851e-01,4.41880e-01,9.99999e-01
1.026704968e+00,4.43696e-01,9.99999e-01,9.99999e-01,9.88041e-01,4.49066e-01,9.99999e-01
1.031838492e+00,4.13650e-01,9.99999e-01,9.99999e-01,9.06681e-01,4.56224e-01,9.99999e-01
1.036997685e+00,2.28025e-02,9.99999e-01,9.99999e-01,4.92121e-02,4.63351e-01,9.99999e-01
1.042182673e+00,1.29086e-03,9.99999e-01,9.99999e-01,2.74391e-03,4.70445e-01,9.99999e-01
1.047393587e+00,3.54759e-03,9.99999e-01,9.99999e-01,7.42942e-03,4.77505e-01,9.99999e-01
1.052630555e+00,2.85362e-07,9.99999e-01,9.99999e-01,5.88948e-07,4.84528e-01,9.99999e-01
1.057893707e+00,1.05288e-06,9.99999e-01,9.99999e-01,2.14211e-06,4.91513e-01,9.99999e-01
1.063183176e+00,3.24342e-05,9.99999e-01,9.99999e-01,6.50692e-05,4.98457e-01,9.99999e-01
1.068499092e+00,3.53441e-04,9.99999e-01,9.99999e-01,6.99385e-04,5.05359e-01,9.99999e-01
1.073841587e+00,4.67093e-03,9.99999e-01,9.99999e-01,9.11901e-03,5.12218e-01,9.99999e-01
1.079210795e+00,2.72749e-02,9.99999e-01,9.99999e-01,5.25495e-02,5.19032e-01,9.99999e-01
1.084606849e+00,9.80350e-02,9.99999e-01,9.99999e-01,1.86449e-01,5.25799e-01,9.99999e-01
1.090029883e+00,2.20884e-01,9.99999e-01,9.99999e-01,4.14791e-01,5.32517e-01,9.99999e-01
1.095480033e+00,3.48607e-01,9.99999e-01,9.99999e-01,6.46541e-01,5.39187e-01,9.99999e-01
1.100957433e+00,4.41818e-01,9.99999e-01,9.99999e-01,8.09478e-01,5.45806e-01,9.99999e-01
1.106462220e+00,5.06006e-01,9.99999e-01,9.99999e-01,9.16058e-01,5.52373e-01,9.99999e-01
1.111994531e+00,5.40993e-01,9.99999e-01,9.99999e-01,9.67982e-01,5.58887e-01,9.99999e-01
1.117554504e+00,5.60852e-01,9.99999e-01,9.99999e-01,9.92049e-01,5.65347e-01,9.99999e-01
1.123142276e+00,5.71450e-01,9.99999e-01,9.99999e-01,9.99472e-01,5.71751e-01,9.99999e-01
1.128757988e+00,5.78100e-01,9.99999e-01,9.99999e-01,9.99999e-01,5.78100e-01,9.99999e-01
1.134401778e+00,5.84392e-01,9.99999e-01,9.99999e-01,9.99999e-01,5.84392e-01,9.99999e-01
1.140073787e+00,5.90626e-01,9.99999e-01,9.99999e-01,9.99999e-01,5.90626e-01,9.99999e-01
1.145774156e+00,5.96801e-01,9.99999e-01,9.99999e-01,9.99999e-01,5.96801e-01,9.99999e-01
1.151503026e+00,6.02917e-01,9.99999e-01,9.99999e-01,9.99999e-01,6.02917e-01,9.99999e-01
1.157260541e+00,6.08973e-01,9.99999e-01,9.99999e-01,9.99999e-01,6.08973e-01,9.99999e-01
1.163046844e+00,6.14968e-01,9.99999e-01,9.99999e-01,9.99999e-01,6.14968e-01,9.99999e-01
1.168862078e+00,6.20902e-01,9.99999e-01,9.99999e-01,9.99999e-01,6.20902e-01,9.99999e-01
1.174706389e+00,6.26775e-01,9.99999e-01,9.99999e-01,9.99999e-01,6.26775e-01,9.99999e-01
1.180579921e+00,6.32585e-01,9.99999e-01,9.99999e-01,9.99999e-01,6.32585e-01,9.99999e-01
1.186482820e+00,6.38323e-01,9.99999e-01,9.99999e-01,9.99984e-01,6.38333e-01,9.99999e-01
1.192415234e+00,6.18043e-01,9.99999e-01,9.99999e-01,9.59666e-01,6.44018e-01,9.99999e-01
1.198377311e+00,3.35289e-01,9.99999e-01,9.99999e-01,5.16115e-01,6.49640e-01,9.99999e-01
1.204369197e+00,7.38925e-32,9.99999e-01,9.99999e-01,1.12779e-31,6.55199e-01,9.99999e-01
1.210391043e+00,1.87656e-129,9.99999e-01,9.99999e-01,2.84028e-129,6.60694e-01,9.99999e-01
1.216442998e+00,5.31670e-112,9.99999e-01,9.99999e-01,7.98153e-112,6.66125e-01,9.99999e-01
1.222525213e+00,2.56272e-110,9.99999e-01,9.99999e-01,3.81646e-110,6.71492e-01,9.99999e-01
1.228637839e+00,4.52316e-85,9.99999e-01,9.99999e-01,6.68320e-85,6.76795e-01,9.99999e-01
