#,Wave/freq,Total,N2,O2,CO2,Rayleigh,CIA
4.000000000e-01,9.07204e-03,9.99999e-01,9.99999e-01,9.99999e-01,9.07204e-03,9.99999e-01
4.020000000e-01,9.95602e-03,9.99999e-01,9.99999e-01,9.99999e-01,9.95602e-03,9.99999e-01
4.040100000e-01,1.09051e-02,9.99999e-01,9.99999e-01,9.99999e-01,1.09051e-02,9.99999e-01
4.060300500e-01,1.19231e-02,9.99999e-01,9.99999e-01,9.99999e-01,1.19231e-02,9.99999e-01
4.080602003e-01,1.30133e-02,9.99999e-01,9.99999e-01,9.99999e-01,1.30133e-02,9.99999e-01
4.101005013e-01,1.41786e-02,9.99999e-01,9.99999e-01,9.99999e-01,1.41786e-02,9.99999e-01
4.121510038e-01,1.54220e-02,9.99999e-01,9.99999e-01,9.99999e-01,1.54220e-02,9.99999e-01
4.142117588e-01,1.67467e-02,9.99999e-01,9.99999e-01,9.99999e-01,1.67467e-02,9.99999e-01
4.162828176e-01,1.81557e-02,9.99999e-01,9.99999e-01,9.99999e-01,1.81557e-02,9.99999e-01
4.183642317e-01,1.96517e-02,9.99999e-01,9.99999e-01,9.99999e-01,1.96517e-02,9.99999e-01
4.204560528e-01,2.12378e-02,9.99999e-01,9.99999e-01,9.99999e-01,2.12378e-02,9.99999e-01
4.225583331e-01,2.29168e-02,9.99999e-01,9.99999e-01,9.99999e-01,2.29168e-02,9.99999e-01
4.246711247e-01,2.46914e-02,9.99999e-01,9.99999e-01,9.99999e-01,2.46914e-02,9.99999e-01
4.267944804e-01,2.65642e-02,9.99999e-01,9.99999e-01,9.99999e-01,2.65642e-02,9.99999e-01
4.289284528e-01,2.85378e-02,9.99999e-01,9.99999e-01,9.99999e-01,2.85378e-02,9.99999e-01
4.310730950e-01,3.06147e-02,9.99999e-01,9.99999e-01,9.99999e-01,3.06147e-02,9.99999e-01
4.332284605e-01,3.27972e-02,9.99999e-01,9.99999e-01,9.99999e-01,3.27972e-02,9.99999e-01
4.353946028e-01,3.50875e-02,9.99999e-01,9.99999e-01,9.99999e-01,3.50875e-02,9.99999e-01
4.375715758e-01,3.74877e-02,9.99999e-01,9.99999e-01,9.99999e-01,3.74877e-02,9.99999e-01
4.397594337e-01,3.99998e-02,9.99999e-01,9.99999e-01,9.99999e-01,3.99998e-02,9.99999e-01
4.419582309e-01,4.26257e-02,9.99999e-01,9.99999e-01,9.99999e-01,4.26257e-02,9.99999e-01
4.441680220e-01,4.53668e-02,9.99999e-01,9.99999e-01,9.99999e-01,4.53668e-02,9.99999e-01
4.463888621e-01,4.82249e-02,9.99999e-01,9.99999e-01,9.99999e-01,4.82249e-02,9.99999e-01
4.486208064e-01,5.12012e-02,9.99999e-01,9.99999e-01,9.99999e-01,5.12012e-02,9.99999e-01
4.508639105e-01,5.42969e-02,9.99999e-01,9.99999e-01,9.99999e-01,5.42969e-02,9.99999e-01
4.531182300e-01,5.75130e-02,9.99999e-01,9.99999e-01,9.99999e-01,5.75130e-02,9.99999e-01
4.553838212e-01,6.08505e-02,9.99999e-01,9.99999e-01,9.99999e-01,6.08505e-02,9.99999e-01
4.576607403e-01,6.43099e-02,9.99999e-01,9.99999e-01,9.99999e-01,6.43099e-02,9.99999e-01
4.599490440e-01,6.78918e-02,9.99999e-01,9.99999e-01,9.99999e-01,6.78918e-02,9.99999e-01
4.622487892e-01,7.15965e-02,9.99999e-01,9.99999e-01,9.99999e-01,7.15965e-02,9.99999e-01
4.645600332e-01,7.54241e-02,9.99999e-01,9.99999e-01,9.99999e-01,7.54241e-02,9.99999e-01
4.668828333e-01,7.93747e-02,9.99999e-01,9.99999e-01,9.99999e-01,7.93747e-02,9.99999e-01
4.692172475e-01,8.34481e-02,9.99999e-01,9.99999e-01,9.99999e-01,8.34481e-02,9.99999e-01
4.715633337e-01,8.76437e-02,9.99999e-01,9.99999e-01,9.99999e-01,8.76437e-02,9.99999e-01
4.739211504e-01,9.19612e-02,9.99999e-01,9.99999e-01,9.99999e-01,9.19612e-02,9.99999e-01
4.762907561e-01,9.63998e-02,9.99999e-01,9.99999e-01,9.99999e-01,9.63998e-02,9.99999e-01
4.786722099e-01,1.00959e-01,9.99999e-01,9.99999e-01,9.99999e-01,1.00959e-01,9.99999e-01
4.810655710e-01,1.05636e-01,9.99999e-01,9.99999e-01,9.99999e-01,1.05636e-01,9.99999e-01
4.834708988e-01,1.10432e-01,9.99999e-01,9.99999e-01,9.99999e-01,1.10432e-01,9.99999e-01
4.858882533e-01,1.15345e-01,9.99999e-01,9.99999e-01,9.99999e-01,1.15345e-01,9.99999e-01
4.883176946e-01,1.20372e-01,9.99999e-01,9.99999e-01,9.99999e-01,1.20372e-01,9.99999e-01
4.907592831e-01,1.25512e-01,9.99999e-01,9.99999e-01,9.99999e-01,1.25512e-01,9.99999e-01
4.932130795e-01,1.30765e-01,9.99999e-01,9.99999e-01,9.99999e-01,1.30765e-01,9.99999e-01
4.956791449e-01,1.36126e-01,9.99999e-01,9.99999e-01,9.99999e-01,1.36126e-01,9.99999e-01
4.981575406e-01,1.41595e-01,9.99999e-01,9.99999e-01,9.99999e-01,1.41595e-01,9.99999e-01
5.006483283e-01,1.47169e-01,9.99999e-01,9.99999e-01,9.99999e-01,1.47169e-01,9.99999e-01
5.031515699e-01,1.52846e-01,9.99999e-01,9.99999e-01,9.99999e-01,1.52846e-01,9.99999e-01
5.056673278e-01,1.58624e-01,9.99999e-01,9.99999e-01,9.99999e-01,1.58624e-01,9.99999e-01
5.081956644e-01,1.64499e-01,9.99999e-01,9.99999e-01,9.99999e-01,1.64499e-01,9.99999e-01
5.107366428e-01,1.70469e-01,9.99999e-01,9.99999e-01,9.99999e-01,1.70469e-01,9.99999e-01
5.132903260e-01,1.76531e-01,9.99999e-01,9.99999e-01,9.99999e-01,1.76531e-01,9.99999e-01
5.158567776e-01,1.82684e-01,9.99999e-01,9.99999e-01,9.99999e-01,1.82684e-01,9.99999e-01
5.184360615e-01,1.88922e-01,9.99999e-01,9.99999e-01,9.99999e-01,1.88922e-01,9.99999e-01
5.210282418e-01,1.95244e-01,9.99999e-01,9.99999e-01,9.99999e-01,1.95244e-01,9.99999e-01
5.236333830e-01,2.01646e-01,9.99999e-01,9.99999e-01,9.99999e-01,2.01646e-01,9.99999e-01
5.262515499e-01,2.08126e-01,9.99999e-01,9.99999e-01,9.99999e-01,2.08126e-01,9.99999e-01
5.288828077e-01,2.14680e-01,9.99999e-01,9.99999e-01,9.99999e-01,2.14680e-01,9.99999e-01
5.315272217e-01,2.21304e-01,9.99999e-01,9.99999e-01,9.99999e-01,2.21304e-01,9.99999e-01
5.341848578e-01,2.27997e-01,9.99999e-01,9.99999e-01,9.99999e-01,2.27997e-01,9.99999e-01
5.368557821e-01,2.34753e-01,9.99999e-01,9.99999e-01,9.99999e-01,2.34753e-01,9.99999e-01
5.395400610e-01,2.41570e-01,9.99999e-01,9.99999e-01,9.99999e-01,2.41570e-01,9.99999e-01
5.422377613e-01,2.48444e-01,9.99999e-01,9.99999e-01,9.99999e-01,2.48444e-01,9.99999e-01
5.449489501e-01,2.55373e-01,9.99999e-01,9.99999e-01,9.99999e-01,2.55373e-01,9.99999e-01
5.476736949e-01,2.62352e-01,9.99999e-01,9.99999e-01,9.99999e-01,2.62352e-01,9.99999e-01
5.504120634e-01,2.69379e-01,9.99999e-01,9.99999e-01,9.99999e-01,2.69379e-01,9.99999e-01
5.531641237e-01,2.76449e-01,9.99999e-01,9.99999e-01,9.99999e-01,2.76449e-01,9.99999e-01
5.559299443e-01,2.83560e-01,9.99999e-01,9.99999e-01,9.99999e-01,2.83560e-01,9.99999e-01
5.587095940e-01,2.90707e-01,9.99999e-01,9.99999e-01,9.99999e-01,2.90707e-01,9.99999e-01
5.615031420e-01,2.97889e-01,9.99999e-01,9.99999e-01,9.99999e-01,2.97889e-01,9.99999e-01
5.643106577e-01,3.05100e-01,9.99999e-01,9.99999e-01,9.99999e-01,3.05100e-01,9.99999e-01
5.671322110e-01,3.12339e-01,9.99999e-01,9.99999e-01,9.99999e-01,3.12339e-01,9.99999e-01
5.699678720e-01,3.19601e-01,9.99999e-01,9.99999e-01,9.99999e-01,3.19601e-01,9.99999e-01
5.728177114e-01,3.26884e-01,9.99999e-01,9.99999e-01,9.99999e-01,3.26884e-01,9.99999e-01
5.756818000e-01,3.34184e-01,9.99999e-01,9.99999e-01,9.99999e-01,3.34184e-01,9.99999e-01
5.785602090e-01,3.41498e-01,9.99999e-01,9.99999e-01,9.99999e-01,3.41498e-01,9.99999e-01
5.814530100e-01,3.48823e-01,9.99999e-01,9.99999e-01,9.99999e-01,3.48823e-01,9.99999e-01
5.843602750e-01,3.56155e-01,9.99999e-01,9.99999e-01,9.99999e-01,3.56155e-01,9.99999e-01
5.872820764e-01,3.63493e-01,9.99999e-01,9.99999e-01,9.99999e-01,3.63493e-01,9.99999e-01
5.902184868e-01,3.70832e-01,9.99999e-01,9.99999e-01,9.99999e-01,3.70832e-01,9.99999e-01
5.931695792e-01,3.78170e-01,9.99999e-01,9.99999e-01,9.99999e-01,3.78170e-01,9.99999e-01
5.961354271e-01,3.85504e-01,9.99999e-01,9.99999e-01,9.99999e-01,3.85504e-01,9.99999e-01
5.991161043e-01,3.92831e-01,9.99999e-01,9.99999e-01,9.99999e-01,3.92831e-01,9.99999e-01
6.021116848e-01,4.00148e-01,9.99999e-01,9.99999e-01,9.99999e-01,4.00148e-01,9.99999e-01
6.051222432e-01,4.07454e-01,9.99999e-01,9.99999e-01,9.99999e-01,4.07454e-01,9.99999e-01
6.081478544e-01,4.14744e-01,9.99999e-01,9.99999e-01,9.99999e-01,4.14744e-01,9.99999e-01
6.111885937e-01,4.22017e-01,9.99999e-01,9.99999e-01,9.99999e-01,4.22017e-01,9.99999e-01
6.142445367e-01,4.29270e-01,9.99999e-01,9.99999e-01,9.99999e-01,4.29270e-01,9.99999e-01
6.173157594e-01,4.36501e-01,9.99999e-01,9.99999e-01,9.99999e-01,4.36501e-01,9.99999e-01
6.204023382e-01,4.43707e-01,9.99999e-01,9.99999e-01,9.99999e-01,4.43707e-01,9.99999e-01
6.235043498e-01,4.50886e-01,9.99999e-01,9.99999e-01,9.99999e-01,4.50886e-01,9.99999e-01
6.266218716e-01,4.58036e-01,9.99999e-01,9.99999e-01,9.99999e-01,4.58036e-01,9.99999e-01
6.297549810e-01,4.65155e-01,9.99999e-01,9.99999e-01,9.99999e-01,4.65155e-01,9.99999e-01
6.329037559e-01,4.72241e-01,9.99999e-01,9.99999e-01,9.99999e-01,4.72241e-01,9.99999e-01
6.360682746e-01,4.79292e-01,9.99999e-01,9.99999e-01,9.99999e-01,4.79292e-01,9.99999e-01
6.392486160e-01,4.86305e-01,9.99999e-01,9.99999e-01,9.99999e-01,4.86305e-01,9.99999e-01
6.424448591e-01,4.93279e-01,9.99999e-01,9.99999e-01,9.99999e-01,4.93279e-01,9.99999e-01
6.456570834e-01,5.00213e-01,9.99999e-01,9.99999e-01,9.99999e-01,5.00213e-01,9.99999e-01
6.488853688e-01,5.07105e-01,9.99999e-01,9.99999e-01,9.99999e-01,5.07105e-01,9.99999e-01
6.521297956e-01,5.13952e-01,9.99999e-01,9.99999e-01,9.99999e-01,5.13952e-01,9.99999e-01
6.553904446e-01,5.20754e-01,9.99999e-01,9.99999e-01,9.99999e-01,5.20754e-01,9.99999e-01
6.586673968e-01,5.27509e-01,9.99999e-01,9.99999e-01,9.99999e-01,5.27509e-01,9.99999e-01
6.619607338e-01,5.34215e-01,9.99999e-01,9.99999e-01,9.99999e-01,5.34215e-01,9.99999e-01
6.652705375e-01,5.40872e-01,9.99999e-01,9.99999e-01,9.99999e-01,5.40872e-01,9.99999e-01
6.685968902e-01,5.47478e-01,9.99999e-01,9.99999e-01,9.99999e-01,5.47478e-01,9.99999e-01
6.719398746e-01,5.54032e-01,9.99999e-01,9.99999e-01,9.99999e-01,5.54032e-01,9.99999e-01
6.752995740e-01,5.60532e-01,9.99999e-01,9.99999e-01,9.99999e-01,5.60532e-01,9.99999e-01
6.786760719e-01,5.66978e-01,9.99999e-01,9.99999e-01,9.99999e-01,5.66978e-01,9.99999e-01
6.820694522e-01,5.73369e-01,9.99999e-01,9.99999e-01,9.99999e-01,5.73369e-01,9.99999e-01
6.854797995e-01,5.79703e-01,9.99999e-01,9.99999e-01,9.99999e-01,5.79703e-01,9.99999e-01
6.889071985e-01,5.85980e-01,9.99999e-01,9.99999e-01,9.99999e-01,5.85980e-01,9.99999e-01
6.923517345e-01,5.92199e-01,9.99999e-01,9.99999e-01,9.99999e-01,5.92199e-01,9.99999e-01
6.958134932e-01,5.98359e-01,9.99999e-01,9.99999e-01,9.99999e-01,5.98359e-01,9.99999e-01
6.992925606e-01,6.04460e-01,9.99999e-01,9.99999e-01,9.99999e-01,6.04460e-01,9.99999e-01
7.027890234e-01,6.10500e-01,9.99999e-01,9.99999e-01,9.99999e-01,6.10500e-01,9.99999e-01
7.063029686e-01,6.16480e-01,9.99999e-01,9.99999e-01,9.99999e-01,6.16480e-01,9.99999e-01
7.098344834e-01,6.22399e-01,9.99999e-01,9.99999e-01,9.99999e-01,6.22399e-01,9.99999e-01
7.133836558e-01,6.28256e-01,9.99999e-01,9.99999e-01,9.99999e-01,6.28256e-01,9.99999e-01
7.169505741e-01,6.34050e-01,9.99999e-01,9.99999e-01,9.99999e-01,6.34050e-01,9.99999e-01
7.205353270e-01,6.39782e-01,9.99999e-01,9.99999e-01,9.99999e-01,6.39782e-01,9.99999e-01
7.241380036e-01,6.45452e-01,9.99999e-01,9.99999e-01,9.99999e-01,6.45452e-01,9.99999e-01
7.277586936e-01,6.51057e-01,9.99999e-01,9.99999e-01,9.99999e-01,6.51057e-01,9.99999e-01
7.313974871e-01,6.56600e-01,9.99999e-01,9.99999e-01,9.99999e-01,6.56600e-01,9.99999e-01
7.350544745e-01,6.62079e-01,9.99999e-01,9.99999e-01,9.99999e-01,6.62079e-01,9.99999e-01
7.387297469e-01,6.67493e-01,9.99999e-01,9.99999e-01,9.99999e-01,6.67493e-01,9.99999e-01
7.424233956e-01,6.72844e-01,9.99999e-01,9.99999e-01,9.99999e-01,6.72844e-01,9.99999e-01
7.461355126e-01,6.78131e-01,9.99999e-01,9.99999e-01,9.99999e-01,6.78131e-01,9.99999e-01
7.498661902e-01,6.83354e-01,9.99999e-01,9.99999e-01,9.99999e-01,6.83354e-01,9.99999e-01
7.536155211e-01,6.88512e-01,9.99999e-01,9.99999e-01,9.99999e-01,6.88512e-01,9.99999e-01
7.573835987e-01,6.93607e-01,9.99999e-01,9.99999e-01,9.99999e-01,6.93607e-01,9.99999e-01
7.611705167e-01,6.98637e-01,9.99999e-01,9.99999e-01,9.99999e-01,6.98637e-01,9.99999e-01
7.649763693e-01,7.03604e-01,9.99999e-01,9.99999e-01,9.99999e-01,7.03604e-01,9.99999e-01
7.688012511e-01,7.08507e-01,9.99999e-01,9.99999e-01,9.99999e-01,7.08507e-01,9.99999e-01
7.726452574e-01,7.13346e-01,9.99999e-01,9.99999e-01,9.99999e-01,7.13346e-01,9.99999e-01
7.765084837e-01,7.18121e-01,9.99999e-01,9.99999e-01,9.99999e-01,7.18121e-01,9.99999e-01
7.803910261e-01,7.10715e-01,9.99999e-01,9.99999e-01,9.83234e-01,7.22833e-01,9.99999e-01
7.842929812e-01,6.79515e-01,9.99999e-01,9.99999e-01,9.34063e-01,7.27482e-01,9.99999e-01
7.882144461e-01,6.79910e-01,9.99999e-01,9.99999e-01,9.28751e-01,7.32069e-01,9.99999e-01
7.921555184e-01,7.06009e-01,9.99999e-01,9.99999e-01,9.58479e-01,7.36592e-01,9.99999e-01
7.961162960e-01,7.20565e-01,9.99999e-01,9.99999e-01,9.72351e-01,7.41054e-01,9.99999e-01
8.000968774e-01,7.34190e-01,9.99999e-01,9.99999e-01,9.84889e-01,7.45453e-01,9.99999e-01
8.040973618e-01,7.43932e-01,9.99999e-01,9.99999e-01,9.92184e-01,7.49792e-01,9.99999e-01
8.081178486e-01,7.51347e-01,9.99999e-01,9.99999e-01,9.96390e-01,7.54068e-01,9.99999e-01
8.121584379e-01,7.57448e-01,9.99999e-01,9.99999e-01,9.98896e-01,7.58285e-01,9.99999e-01
8.162192301e-01,7.62254e-01,9.99999e-01,9.99999e-01,9.99755e-01,7.62440e-01,9.99999e-01
8.203003262e-01,7.66533e-01,9.99999e-01,9.99999e-01,9.99996e-01,7.66536e-01,9.99999e-01
8.244018279e-01,7.70572e-01,9.99999e-01,9.99999e-01,9.99999e-01,7.70572e-01,9.99999e-01
8.285238370e-01,7.74549e-01,9.99999e-01,9.99999e-01,9.99999e-01,7.74549e-01,9.99999e-01
8.326664562e-01,7.78468e-01,9.99999e-01,9.99999e-01,9.99999e-01,7.78468e-01,9.99999e-01
8.368297885e-01,7.82328e-01,9.99999e-01,9.99999e-01,9.99999e-01,7.82328e-01,9.99999e-01
8.410139374e-01,7.86130e-01,9.99999e-01,9.99999e-01,9.99999e-01,7.86130e-01,9.99999e-01
8.452190071e-01,7.89876e-01,9.99999e-01,9.99999e-01,9.99999e-01,7.89876e-01,9.99999e-01
8.494451021e-01,7.93565e-01,9.99999e-01,9.99999e-01,9.99999e-01,7.93565e-01,9.99999e-01
8.536923276e-01,7.97197e-01,9.99999e-01,9.99999e-01,9.99999e-01,7.97197e-01,9.99999e-01
8.579607893e-01,8.00774e-01,9.99999e-01,9.99999e-01,9.99999e-01,8.00774e-01,9.99999e-01
8.622505932e-01,8.04296e-01,9.99999e-01,9.99999e-01,9.99999e-01,8.04296e-01,9.99999e-01
8.665618462e-01,7.71597e-01,9.99999e-01,9.99999e-01,9.55225e-01,8.07764e-01,9.99999e-01
8.708946554e-01,6.79471e-01,9.99999e-01,9.99999e-01,8.37635e-01,8.11177e-01,9.99999e-01
8.752491287e-01,7.08044e-01,9.99999e-01,9.99999e-01,8.69259e-01,8.14537e-01,9.99999e-01
8.796253743e-01,7.58001e-01,9.99999e-01,9.99999e-01,9.26828e-01,8.17844e-01,9.99999e-01
8.840235012e-01,7.89547e-01,9.99999e-01,9.99999e-01,9.61572e-01,8.21099e-01,9.99999e-01
8.884436187e-01,8.11753e-01,9.99999e-01,9.99999e-01,9.84776e-01,8.24302e-01,9.99999e-01
8.928858368e-01,8.22324e-01,9.99999e-01,9.99999e-01,9.93799e-01,8.27454e-01,9.99999e-01
8.973502660e-01,8.29310e-01,9.99999e-01,9.99999e-01,9.98500e-01,8.30555e-01,9.99999e-01
9.018370173e-01,8.33470e-01,9.99999e-01,9.99999e-01,9.99834e-01,8.33607e-01,9.99999e-01
9.063462024e-01,8.32914e-01,9.99999e-01,9.99999e-01,9.95582e-01,8.36609e-01,9.99999e-01
9.108779334e-01,8.31331e-01,9.99999e-01,9.99999e-01,9.90195e-01,8.39562e-01,9.99999e-01
9.154323231e-01,8.40547e-01,9.99999e-01,9.99999e-01,9.97719e-01,8.42467e-01,9.99999e-01
9.200094847e-01,8.15760e-01,9.99999e-01,9.99999e-01,9.65025e-01,8.45325e-01,9.99999e-01
9.246095321e-01,8.08084e-01,9.99999e-01,9.99999e-01,9.52776e-01,8.48135e-01,9.99999e-01
9.292325798e-01,8.18689e-01,9.99999e-01,9.99999e-01,9.62146e-01,8.50899e-01,9.99999e-01
9.338787427e-01,8.22838e-01,9.99999e-01,9.99999e-01,9.63941e-01,8.53617e-01,9.99999e-01
9.385481364e-01,8.33533e-01,9.99999e-01,9.99999e-01,9.73423e-01,8.56290e-01,9.99999e-01
9.432408771e-01,8.44933e-01,9.99999e-01,9.99999e-01,9.83717e-01,8.58918e-01,9.99999e-01
9.479570815e-01,8.54264e-01,9.99999e-01,9.99999e-01,9.91598e-01,8.61502e-01,9.99999e-01
9.526968669e-01,8.60543e-01,9.99999e-01,9.99999e-01,9.95949e-01,8.64042e-01,9.99999e-01
9.574603512e-01,8.65040e-01,9.99999e-01,9.99999e-01,9.98268e-01,8.66540e-01,9.99999e-01
9.622476530e-01,8.68527e-01,9.99999e-01,9.99999e-01,9.99460e-01,8.68995e-01,9.99999e-01
9.670588912e-01,8.71269e-01,9.99999e-01,9.99999e-01,9.99838e-01,8.71409e-01,9.99999e-01
9.718941857e-01,8.73772e-01,9.99999e-01,9.99999e-01,9.99988e-01,8.73781e-01,9.99999e-01
9.767536566e-01,8.76113e-01,9.99999e-01,9.99999e-01,9.99999e-01,8.76113e-01,9.99999e-01
9.816374249e-01,8.78405e-01,9.99999e-01,9.99999e-01,9.99999e-01,8.78405e-01,9.99999e-01
9.865456120e-01,8.80657e-01,9.99999e-01,9.99999e-01,9.99999e-01,8.80657e-01,9.99999e-01
9.914783401e-01,8.82871e-01,9.99999e-01,9.99999e-01,9.99999e-01,8.82871e-01,9.99999e-01
9.964357318e-01,8.85046e-01,9.99999e-01,9.99999e-01,9.99999e-01,8.85046e-01,9.99999e-01
1.001417910e+00,8.87183e-01,9.99999e-01,9.99999e-01,9.99999e-01,8.87183e-01,9.99999e-01
1.006425000e+00,8.89283e-01,9.99999e-01,9.99999e-01,9.99999e-01,8.89283e-01,9.99999e-01
1.011457125e+00,8.91347e-01,9.99999e-01,9.99999e-01,9.99999e-01,8.91347e-01,9.99999e-01
1.016514411e+00,8.93374e-01,9.99999e-01,9.99999e-01,9.99999e-01,8.93374e-01,9.99999e-01
1.021596983e+00,8.95342e-01,9.99999e-01,9.99999e-01,9.99972e-01,8.95366e-01,9.99999e-01
1.026704968e+00,8.95775e-01,9.99999e-01,9.99999e-01,9.98274e-01,8.97323e-01,9.99999e-01
1.031838492e+00,8.74200e-01,9.99999e-01,9.99999e-01,9.72148e-01,8.99245e-01,9.99999e-01
1.036997685e+00,2.74180e-01,9.99999e-01,9.99999e-01,3.04261e-01,9.01134e-01,9.99999e-01
1.042182673e+00,3.35091e-01,9.99999e-01,9.99999e-01,3.71090e-01,9.02988e-01,9.99999e-01
1.047393587e+00,3.02899e-01,9.99999e-01,9.99999e-01,3.34764e-01,9.04810e-01,9.99999e-01
1.052630555e+00,5.24539e-02,9.99999e-01,9.99999e-01,5.78577e-02,9.06600e-01,9.99999e-01
1.057893707e+00,9.70973e-02,9.99999e-01,9.99999e-01,1.06893e-01,9.08357e-01,9.99999e-01
1.063183176e+00,1.80259e-01,9.99999e-01,9.99999e-01,1.98068e-01,9.10084e-01,9.99999e-01
1.068499092e+00,3.09486e-01,9.99999e-01,9.99999e-01,3.39430e-01,9.11779e-01,9.99999e-01
1.073841587e+00,4.63643e-01,9.99999e-01,9.99999e-01,5.07576e-01,9.13444e-01,9.99999e-01
1.079210795e+00,5.96568e-01,9.99999e-01,9.99999e-01,6.51930e-01,9.15079e-01,9.99999e-01
1.084606849e+00,7.26253e-01,9.99999e-01,9.99999e-01,7.92260e-01,9.16684e-01,9.99999e-01
1.090029883e+00,8.13867e-01,9.99999e-01,9.99999e-01,8.86313e-01,9.18261e-01,9.99999e-01
1.095480033e+00,8.66859e-01,9.99999e-01,9.99999e-01,9.42433e-01,9.19809e-01,9.99999e-01
1.100957433e+00,8.95408e-01,9.99999e-01,9.99999e-01,9.71865e-01,9.21329e-01,9.99999e-01
1.106462220e+00,9.12021e-01,9.99999e-01,9.99999e-01,9.88296e-01,9.22821e-01,9.99999e-01
1.111994531e+00,9.20263e-01,9.99999e-01,9.99999e-01,9.95647e-01,9.24286e-01,9.99999e-01
1.117554504e+00,9.24746e-01,9.99999e-01,9.99999e-01,9.98941e-01,9.25725e-01,9.99999e-01
1.123142276e+00,9.27073e-01,9.99999e-01,9.99999e-01,9.99930e-01,9.27137e-01,9.99999e-01
1.128757988e+00,9.28523e-01,9.99999e-01,9.99999e-01,9.99999e-01,9.28523e-01,9.99999e-01
1.134401778e+00,9.29885e-01,9.99999e-01,9.99999e-01,9.99999e-01,9.29885e-01,9.99999e-01
1.140073787e+00,9.31221e-01,9.99999e-01,9.99999e-01,9.99999e-01,9.31221e-01,9.99999e-01
1.145774156e+00,9.32532e-01,9.99999e-01,9.99999e-01,9.99999e-01,9.32532e-01,9.99999e-01
1.151503026e+00,9.33820e-01,9.99999e-01,9.99999e-01,9.99999e-01,9.33820e-01,9.99999e-01
1.157260541e+00,9.35084e-01,9.99999e-01,9.99999e-01,9.99999e-01,9.35084e-01,9.99999e-01
1.163046844e+00,9.36324e-01,9.99999e-01,9.99999e-01,9.99999e-01,9.36324e-01,9.99999e-01
1.168862078e+00,9.37542e-01,9.99999e-01,9.99999e-01,9.99999e-01,9.37542e-01,9.99999e-01
1.174706389e+00,9.38737e-01,9.99999e-01,9.99999e-01,9.99999e-01,9.38737e-01,9.99999e-01
1.180579921e+00,9.39910e-01,9.99999e-01,9.99999e-01,9.99999e-01,9.39910e-01,9.99999e-01
1.186482820e+00,9.41057e-01,9.99999e-01,9.99999e-01,9.99995e-01,9.41061e-01,9.99999e-01
1.192415234e+00,9.36313e-01,9.99999e-01,9.99999e-01,9.93760e-01,9.42191e-01,9.99999e-01
1.198377311e+00,5.54356e-01,9.99999e-01,9.99999e-01,5.87676e-01,9.43300e-01,9.99999e-01
1.204369197e+00,2.95398e-06,9.99999e-01,9.99999e-01,3.12792e-06,9.44388e-01,9.99999e-01
1.210391043e+00,1.79669e-19,9.99999e-01,9.99999e-01,1.90034e-19,9.45456e-01,9.99999e-01
1.216442998e+00,4.22089e-17,9.99999e-01,9.99999e-01,4.45945e-17,9.46504e-01,9.99999e-01
1.222525213e+00,7.53363e-17,9.99999e-01,9.99999e-01,7.95078e-17,9.47532e-01,9.99999e-01
1.228637839e+00,6.04040e-13,9.99999e-01,9.99999e-01,6.36808e-13,9.48542e-01,9.99999e-01
