#,Wave/freq,Total,N2,O2,CO2,Rayleigh,CIA
4.000000000e-01,1.86284e-19,9.99999e-01,9.99999e-01,9.99999e-01,1.86284e-19,9.99999e-01
4.020000000e-01,4.37038e-19,9.99999e-01,9.99999e-01,9.99999e-01,4.37038e-19,9.99999e-01
4.040100000e-01,1.00731e-18,9.99999e-01,9.99999e-01,9.99999e-01,1.00731e-18,9.99999e-01
4.060300500e-01,2.28374e-18,9.99999e-01,9.99999e-01,9.99999e-01,2.28374e-18,9.99999e-01
4.080602003e-01,5.09456e-18,9.99999e-01,9.99999e-01,9.99999e-01,5.09456e-18,9.99999e-01
4.101005013e-01,1.11862e-17,9.99999e-01,9.99999e-01,9.99999e-01,1.11862e-17,9.99999e-01
4.121510038e-01,2.41832e-17,9.99999e-01,9.99999e-01,9.99999e-01,2.41832e-17,9.99999e-01
4.142117588e-01,5.14910e-17,9.99999e-01,9.99999e-01,9.99999e-01,5.14910e-17,9.99999e-01
4.162828176e-01,1.08010e-16,9.99999e-01,9.99999e-01,9.99999e-01,1.08010e-16,9.99999e-01
4.183642317e-01,2.23277e-16,9.99999e-01,9.99999e-01,9.99999e-01,2.23277e-16,9.99999e-01
4.204560528e-01,4.54980e-16,9.99999e-01,9.99999e-01,9.99999e-01,4.54980e-16,9.99999e-01
4.225583331e-01,9.14188e-16,9.99999e-01,9.99999e-01,9.99999e-01,9.14188e-16,9.99999e-01
4.246711247e-01,1.81172e-15,9.99999e-01,9.99999e-01,9.99999e-01,1.81172e-15,9.99999e-01
4.267944804e-01,3.54227e-15,9.99999e-01,9.99999e-01,9.99999e-01,3.54227e-15,9.99999e-01
4.289284528e-01,6.83469e-15,9.99999e-01,9.99999e-01,9.99999e-01,6.83469e-15,9.99999e-01
4.310730950e-01,1.30172e-14,9.99999e-01,9.99999e-01,9.99999e-01,1.30172e-14,9.99999e-01
4.332284605e-01,2.44788e-14,9.99999e-01,9.99999e-01,9.99999e-01,2.44788e-14,9.99999e-01
4.353946028e-01,4.54617e-14,9.99999e-01,9.99999e-01,9.99999e-01,4.54617e-14,9.99999e-01
4.375715758e-01,8.34047e-14,9.99999e-01,9.99999e-01,9.99999e-01,8.34047e-14,9.99999e-01
4.397594337e-01,1.51192e-13,9.99999e-01,9.99999e-01,9.99999e-01,1.51192e-13,9.99999e-01
4.419582309e-01,2.70873e-13,9.99999e-01,9.99999e-01,9.99999e-01,2.70873e-13,9.99999e-01
4.441680220e-01,4.79733e-13,9.99999e-01,9.99999e-01,9.99999e-01,4.79733e-13,9.99999e-01
4.463888621e-01,8.40099e-13,9.99999e-01,9.99999e-01,9.99999e-01,8.40099e-13,9.99999e-01
4.486208064e-01,1.45497e-12,9.99999e-01,9.99999e-01,9.99999e-01,1.45497e-12,9.99999e-01
4.508639105e-01,2.49269e-12,9.99999e-01,9.99999e-01,9.99999e-01,2.49269e-12,9.99999e-01
4.531182300e-01,4.22535e-12,9.99999e-01,9.99999e-01,9.99999e-01,4.22535e-12,9.99999e-01
4.553838212e-01,7.08810e-12,9.99999e-01,9.99999e-01,9.99999e-01,7.08810e-12,9.99999e-01
4.576607403e-01,1.17695e-11,9.99999e-01,9.99999e-01,9.99999e-01,1.17695e-11,9.99999e-01
4.599490440e-01,1.93481e-11,9.99999e-01,9.99999e-01,9.99999e-01,1.93481e-11,9.99999e-01
4.622487892e-01,3.14959e-11,9.99999e-01,9.99999e-01,9.99999e-01,3.14959e-11,9.99999e-01
4.645600332e-01,5.07797e-11,9.99999e-01,9.99999e-01,9.99999e-01,5.07797e-11,9.99999e-01
4.668828333e-01,8.11013e-11,9.99999e-01,9.99999e-01,9.99999e-01,8.11013e-11,9.99999e-01
4.692172475e-01,1.28336e-10,9.99999e-01,9.99999e-01,9.99999e-01,1.28336e-10,9.99999e-01
4.715633337e-01,2.01249e-10,9.99999e-01,9.99999e-01,9.99999e-01,2.01249e-10,9.99999e-01
4.739211504e-01,3.12795e-10,9.99999e-01,9.99999e-01,9.99999e-01,3.12795e-10,9.99999e-01
4.762907561e-01,4.81950e-10,9.99999e-01,9.99999e-01,9.99999e-01,4.81950e-10,9.99999e-01
4.786722099e-01,7.36267e-10,9.99999e-01,9.99999e-01,9.99999e-01,7.36267e-10,9.99999e-01
4.810655710e-01,1.11541e-09,9.99999e-01,9.99999e-01,9.99999e-01,1.11541e-09,9.99999e-01
4.834708988e-01,1.67598e-09,9.99999e-01,9.99999e-01,9.99999e-01,1.67598e-09,9.99999e-01
4.858882533e-01,2.49811e-09,9.99999e-01,9.99999e-01,9.99999e-01,2.49811e-09,9.99999e-01
4.883176946e-01,3.69429e-09,9.99999e-01,9.99999e-01,9.99999e-01,3.69429e-09,9.99999e-01
4.907592831e-01,5.42116e-09,9.99999e-01,9.99999e-01,9.99999e-01,5.42116e-09,9.99999e-01
4.932130795e-01,7.89523e-09,9.99999e-01,9.99999e-01,9.99999e-01,7.89523e-09,9.99999e-01
4.956791449e-01,1.14133e-08,9.99999e-01,9.99999e-01,9.99999e-01,1.14133e-08,9.99999e-01
4.981575406e-01,1.63794e-08,9.99999e-01,9.99999e-01,9.99999e-01,1.63794e-08,9.99999e-01
5.006483283e-01,2.33391e-08,9.99999e-01,9.99999e-01,9.99999e-01,2.33391e-08,9.99999e-01
5.031515699e-01,3.30243e-08,9.99999e-01,9.99999e-01,9.99999e-01,3.30243e-08,9.99999e-01
5.056673278e-01,4.64093e-08,9.99999e-01,9.99999e-01,9.99999e-01,4.64093e-08,9.99999e-01
5.081956644e-01,6.47826e-08,9.99999e-01,9.99999e-01,9.99999e-01,6.47826e-08,9.99999e-01
5.107366428e-01,8.98358e-08,9.99999e-01,9.99999e-01,9.99999e-01,8.98358e-08,9.99999e-01
5.132903260e-01,1.23776e-07,9.99999e-01,9.99999e-01,9.99999e-01,1.23776e-07,9.99999e-01
5.158567776e-01,1.69463e-07,9.99999e-01,9.99999e-01,9.99999e-01,1.69463e-07,9.99999e-01
5.184360615e-01,2.30577e-07,9.99999e-01,9.99999e-01,9.99999e-01,2.30577e-07,9.99999e-01
5.210282418e-01,3.11830e-07,9.99999e-01,9.99999e-01,9.99999e-01,3.11830e-07,9.99999e-01
5.236333830e-01,4.19207e-07,9.99999e-01,9.99999e-01,9.99999e-01,4.19207e-07,9.99999e-01
5.262515499e-01,5.60275e-07,9.99999e-01,9.99999e-01,9.99999e-01,5.60275e-07,9.99999e-01
5.288828077e-01,7.44536e-07,9.99999e-01,9.99999e-01,9.99999e-01,7.44536e-07,9.99999e-01
5.315272217e-01,9.83856e-07,9.99999e-01,9.99999e-01,9.99999e-01,9.83856e-07,9.99999e-01
5.341848578e-01,1.29296e-06,9.99999e-01,9.99999e-01,9.99999e-01,1.29296e-06,9.99999e-01
5.368557821e-01,1.69004e-06,9.99999e-01,9.99999e-01,9.99999e-01,1.69004e-06,9.99999e-01
5.395400610e-01,2.19740e-06,9.99999e-01,9.99999e-01,9.99999e-01,2.19740e-06,9.99999e-01
5.422377613e-01,2.84231e-06,9.99999e-01,9.99999e-01,9.99999e-01,2.84231e-06,9.99999e-01
5.449489501e-01,3.65784e-06,9.99999e-01,9.99999e-01,9.99999e-01,3.65784e-06,9.99999e-01
5.476736949e-01,4.68398e-06,9.99999e-01,9.99999e-01,9.99999e-01,4.68398e-06,9.99999e-01
5.504120634e-01,5.96875e-06,9.99999e-01,9.99999e-01,9.99999e-01,5.96875e-06,9.99999e-01
5.531641237e-01,7.56959e-06,9.99999e-01,9.99999e-01,9.99999e-01,7.56959e-06,9.99999e-01
5.559299443e-01,9.55484e-06,9.99999e-01,9.99999e-01,9.99999e-01,9.55484e-06,9.99999e-01
5.587095940e-01,1.20054e-05,9.99999e-01,9.99999e-01,9.99999e-01,1.20054e-05,9.99999e-01
5.615031420e-01,1.50166e-05,9.99999e-01,9.99999e-01,9.99999e-01,1.50166e-05,9.99999e-01
5.643106577e-01,1.87002e-05,9.99999e-01,9.99999e-01,9.99999e-01,1.87002e-05,9.99999e-01
5.671322110e-01,2.31867e-05,9.99999e-01,9.99999e-01,9.99999e-01,2.31867e-05,9.99999e-01
5.699678720e-01,2.86277e-05,9.99999e-01,9.99999e-01,9.99999e-01,2.86277e-05,9.99999e-01
5.728177114e-01,3.51987e-05,9.99999e-01,9.99999e-01,9.99999e-01,3.51987e-05,9.99999e-01
5.756818000e-01,4.31016e-05,9.99999e-01,9.99999e-01,9.99999e-01,4.31016e-05,9.99999e-01
5.785602090e-01,5.25682e-05,9.99999e-01,9.99999e-01,9.99999e-01,5.25682e-05,9.99999e-01
5.814530100e-01,6.38630e-05,9.99999e-01,9.99999e-01,9.99999e-01,6.38630e-05,9.99999e-01
5.843602750e-01,7.72869e-05,9.99999e-01,9.99999e-01,9.99999e-01,7.72869e-05,9.99999e-01
5.872820764e-01,9.31807e-05,9.99999e-01,9.99999e-01,9.99999e-01,9.31807e-05,9.99999e-01
5.902184868e-01,1.11929e-04,9.99999e-01,9.99999e-01,9.99999e-01,1.11929e-04,9.99999e-01
5.931695792e-01,1.33963e-04,9.99999e-01,9.99999e-01,9.99999e-01,1.33963e-04,9.99999e-01
5.961354271e-01,1.59767e-04,9.99999e-01,9.99999e-01,9.99999e-01,1.59767e-04,9.99999e-01
5.991161043e-01,1.89879e-04,9.99999e-01,9.99999e-01,9.99999e-01,1.89879e-04,9.99999e-01
6.021116848e-01,2.24898e-04,9.99999e-01,9.99999e-01,9.99999e-01,2.24898e-04,9.99999e-01
6.051222432e-01,2.65487e-04,9.99999e-01,9.99999e-01,9.99999e-01,2.65487e-04,9.99999e-01
6.081478544e-01,3.12376e-04,9.99999e-01,9.99999e-01,9.99999e-01,3.12376e-04,9.99999e-01
6.111885937e-01,3.66367e-04,9.99999e-01,9.99999e-01,9.99999e-01,3.66367e-04,9.99999e-01
6.142445367e-01,4.28339e-04,9.99999e-01,9.99999e-01,9.99999e-01,4.28339e-04,9.99999e-01
6.173157594e-01,4.99250e-04,9.99999e-01,9.99999e-01,9.99999e-01,4.99250e-04,9.99999e-01
6.204023382e-01,5.80142e-04,9.99999e-01,9.99999e-01,9.99999e-01,5.80142e-04,9.99999e-01
6.235043498e-01,6.72145e-04,9.99999e-01,9.99999e-01,9.99999e-01,6.72145e-04,9.99999e-01
6.266218716e-01,7.76477e-04,9.99999e-01,9.99999e-01,9.99999e-01,7.76477e-04,9.99999e-01
6.297549810e-01,8.94450e-04,9.99999e-01,9.99999e-01,9.99999e-01,8.94450e-04,9.99999e-01
6.329037559e-01,1.02747e-03,9.99999e-01,9.99999e-01,9.99999e-01,1.02747e-03,9.99999e-01
6.360682746e-01,1.17705e-03,9.99999e-01,9.99999e-01,9.99999e-01,1.17705e-03,9.99999e-01
6.392486160e-01,1.34479e-03,9.99999e-01,9.99999e-01,9.99999e-01,1.34479e-03,9.99999e-01
6.424448591e-01,1.53239e-03,9.99999e-01,9.99999e-01,9.99999e-01,1.53239e-03,9.99999e-01
6.456570834e-01,1.74167e-03,9.99999e-01,9.99999e-01,9.99999e-01,1.74167e-03,9.99999e-01
6.488853688e-01,1.97453e-03,9.99999e-01,9.99999e-01,9.99999e-01,1.97453e-03,9.99999e-01
6.521297956e-01,2.23298e-03,9.99999e-01,9.99999e-01,9.99999e-01,2.23298e-03,9.99999e-01
6.553904446e-01,2.51914e-03,9.99999e-01,9.99999e-01,9.99999e-01,2.51914e-03,9.99999e-01
6.586673968e-01,2.83520e-03,9.99999e-01,9.99999e-01,9.99999e-01,2.83520e-03,9.99999e-01
6.619607338e-01,3.18347e-03,9.99999e-01,9.99999e-01,9.99999e-01,3.18347e-03,9.99999e-01
6.652705375e-01,3.56636e-03,9.99999e-01,9.99999e-01,9.99999e-01,3.56636e-03,9.99999e-01
6.685968902e-01,3.98634e-03,9.99999e-01,9.99999e-01,9.99999e-01,3.98634e-03,9.99999e-01
6.719398746e-01,4.44600e-03,9.99999e-01,9.99999e-01,9.99999e-01,4.44600e-03,9.99999e-01
6.752995740e-01,4.94797e-03,9.99999e-01,9.99999e-01,9.99999e-01,4.94797e-03,9.99999e-01
6.786760719e-01,5.49501e-03,9.99999e-01,9.99999e-01,9.99999e-01,5.49501e-03,9.99999e-01
6.820694522e-01,6.08989e-03,9.99999e-01,9.99999e-01,9.99999e-01,6.08989e-03,9.99999e-01
6.854797995e-01,6.73549e-03,9.99999e-01,9.99999e-01,9.99999e-01,6.73549e-03,9.99999e-01
6.889071985e-01,7.43471e-03,9.99999e-01,9.99999e-01,9.99999e-01,7.43471e-03,9.99999e-01
6.923517345e-01,8.19053e-03,9.99999e-01,9.99999e-01,9.99999e-01,8.19053e-03,9.99999e-01
6.958134932e-01,9.00594e-03,9.99999e-01,9.99999e-01,9.99999e-01,9.00594e-03,9.99999e-01
6.992925606e-01,9.88399e-03,9.99999e-01,9.99999e-01,9.99999e-01,9.88399e-03,9.99999e-01
7.027890234e-01,1.08277e-02,9.99999e-01,9.99999e-01,9.99999e-01,1.08277e-02,9.99999e-01
7.063029686e-01,1.18402e-02,9.99999e-01,9.99999e-01,9.99999e-01,1.18402e-02,9.99999e-01
7.098344834e-01,1.29246e-02,9.99999e-01,9.99999e-01,9.99999e-01,1.29246e-02,9.99999e-01
7.133836558e-01,1.40838e-02,9.99999e-01,9.99999e-01,9.99999e-01,1.40838e-02,9.99999e-01
7.169505741e-01,1.53210e-02,9.99999e-01,9.99999e-01,9.99999e-01,1.53210e-02,9.99999e-01
7.205353270e-01,1.66392e-02,9.99999e-01,9.99999e-01,9.99999e-01,1.66392e-02,9.99999e-01
7.241380036e-01,1.80414e-02,9.99999e-01,9.99999e-01,9.99999e-01,1.80414e-02,9.99999e-01
7.277586936e-01,1.95305e-02,9.99999e-01,9.99999e-01,9.99999e-01,1.95305e-02,9.99999e-01
7.313974871e-01,2.11094e-02,9.99999e-01,9.99999e-01,9.99999e-01,2.11094e-02,9.99999e-01
7.350544745e-01,2.27809e-02,9.99999e-01,9.99999e-01,9.99999e-01,2.27809e-02,9.99999e-01
7.387297469e-01,2.45478e-02,9.99999e-01,9.99999e-01,9.99999e-01,2.45478e-02,9.99999e-01
7.424233956e-01,2.64128e-02,9.99999e-01,9.99999e-01,9.99999e-01,2.64128e-02,9.99999e-01
7.461355126e-01,2.83784e-02,9.99999e-01,9.99999e-01,9.99999e-01,2.83784e-02,9.99999e-01
7.498661902e-01,3.04470e-02,9.99999e-01,9.99999e-01,9.99999e-01,3.04470e-02,9.99999e-01
7.536155211e-01,3.26211e-02,9.99999e-01,9.99999e-01,9.99999e-01,3.26211e-02,9.99999e-01
7.573835987e-01,3.49028e-02,9.99999e-01,9.99999e-01,9.99999e-01,3.49028e-02,9.99999e-01
7.611705167e-01,3.72943e-02,9.99999e-01,9.99999e-01,9.99999e-01,3.72943e-02,9.99999e-01
7.649763693e-01,3.97975e-02,9.99999e-01,9.99999e-01,9.99999e-01,3.97975e-02,9.99999e-01
7.688012511e-01,4.24143e-02,9.99999e-01,9.99999e-01,9.99999e-01,4.24143e-02,9.99999e-01
7.726452574e-01,4.51463e-02,9.99999e-01,9.99999e-01,9.99999e-01,4.51463e-02,9.99999e-01
7.765084837e-01,4.79951e-02,9.99999e-01,9.99999e-01,9.99999e-01,4.79951e-02,9.99999e-01
7.803910261e-01,4.56536e-02,9.99999e-01,9.99999e-01,8.95835e-01,5.09620e-02,9.99999e-01
7.842929812e-01,3.04693e-02,9.99999e-01,9.99999e-01,5.63742e-01,5.40483e-02,9.99999e-01
7.882144461e-01,3.14146e-02,9.99999e-01,9.99999e-01,5.48679e-01,5.72549e-02,9.99999e-01
7.921555184e-01,4.15826e-02,9.99999e-01,9.99999e-01,6.86376e-01,6.05827e-02,9.99999e-01
7.961162960e-01,4.95380e-02,9.99999e-01,9.99999e-01,7.73638e-01,6.40325e-02,9.99999e-01
8.000968774e-01,5.88099e-02,9.99999e-01,9.99999e-01,8.69908e-01,6.76047e-02,9.99999e-01
8.040973618e-01,6.63135e-02,9.99999e-01,9.99999e-01,9.30066e-01,7.12997e-02,9.99999e-01
8.081178486e-01,7.26589e-02,9.99999e-01,9.99999e-01,9.67267e-01,7.51177e-02,9.99999e-01
8.121584379e-01,7.82479e-02,9.99999e-01,9.99999e-01,9.89745e-01,7.90586e-02,9.99999e-01
8.162192301e-01,8.29332e-02,9.99999e-01,9.99999e-01,9.97725e-01,8.31222e-02,9.99999e-01
8.203003262e-01,8.73052e-02,9.99999e-01,9.99999e-01,9.99964e-01,8.73083e-02,9.99999e-01
8.244018279e-01,9.16162e-02,9.99999e-01,9.99999e-01,9.99999e-01,9.16162e-02,9.99999e-01
8.285238370e-01,9.60452e-02,9.99999e-01,9.99999e-01,9.99999e-01,9.60452e-02,9.99999e-01
8.326664562e-01,1.00595e-01,9.99999e-01,9.99999e-01,9.99999e-01,1.00595e-01,9.99999e-01
8.368297885e-01,1.05263e-01,9.99999e-01,9.99999e-01,9.99999e-01,1.05263e-01,9.99999e-01
8.410139374e-01,1.10050e-01,9.99999e-01,9.99999e-01,9.99999e-01,1.10050e-01,9.99999e-01
8.452190071e-01,1.14953e-01,9.99999e-01,9.99999e-01,9.99999e-01,1.14953e-01,9.99999e-01
8.494451021e-01,1.19971e-01,9.99999e-01,9.99999e-01,9.99999e-01,1.19971e-01,9.99999e-01
8.536923276e-01,1.25103e-01,9.99999e-01,9.99999e-01,9.99999e-01,1.25103e-01,9.99999e-01
8.579607893e-01,1.30346e-01,9.99999e-01,9.99999e-01,9.99999e-01,1.30346e-01,9.99999e-01
8.622505932e-01,1.35699e-01,9.99999e-01,9.99999e-01,9.99999e-01,1.35699e-01,9.99999e-01
8.665618462e-01,1.20741e-01,9.99999e-01,9.99999e-01,8.55353e-01,1.41160e-01,9.99999e-01
8.708946554e-01,3.65137e-02,9.99999e-01,9.99999e-01,2.48856e-01,1.46726e-01,9.99999e-01
8.752491287e-01,4.69503e-02,9.99999e-01,9.99999e-01,3.08083e-01,1.52395e-01,9.99999e-01
8.796253743e-01,8.11861e-02,9.99999e-01,9.99999e-01,5.13302e-01,1.58164e-01,9.99999e-01
8.840235012e-01,1.15046e-01,9.99999e-01,9.99999e-01,7.01363e-01,1.64032e-01,9.99999e-01
8.884436187e-01,1.47581e-01,9.99999e-01,9.99999e-01,8.68150e-01,1.69995e-01,9.99999e-01
8.928858368e-01,1.66221e-01,9.99999e-01,9.99999e-01,9.44170e-01,1.76050e-01,9.99999e-01
8.973502660e-01,1.79664e-01,9.99999e-01,9.99999e-01,9.86107e-01,1.82195e-01,9.99999e-01
9.018370173e-01,1.88136e-01,9.99999e-01,9.99999e-01,9.98458e-01,1.88427e-01,9.99999e-01
9.063462024e-01,1.87457e-01,9.99999e-01,9.99999e-01,9.62591e-01,1.94742e-01,9.99999e-01
9.108779334e-01,1.83763e-01,9.99999e-01,9.99999e-01,9.13615e-01,2.01138e-01,9.99999e-01
9.154323231e-01,2.03238e-01,9.99999e-01,9.99999e-01,9.78930e-01,2.07612e-01,9.99999e-01
9.200094847e-01,1.66218e-01,9.99999e-01,9.99999e-01,7.76139e-01,2.14160e-01,9.99999e-01
9.246095321e-01,1.42458e-01,9.99999e-01,9.99999e-01,6.45252e-01,2.20779e-01,9.99999e-01
9.292325798e-01,1.62902e-01,9.99999e-01,9.99999e-01,7.16160e-01,2.27466e-01,9.99999e-01
9.338787427e-01,1.68550e-01,9.99999e-01,9.99999e-01,7.19629e-01,2.34217e-01,9.99999e-01
9.385481364e-01,1.88742e-01,9.99999e-01,9.99999e-01,7.83065e-01,2.41030e-01,9.99999e-01
9.432408771e-01,2.13141e-01,9.99999e-01,9.99999e-01,8.59785e-01,2.47900e-01,9.99999e-01
9.479570815e-01,2.35809e-01,9.99999e-01,9.99999e-01,9.25376e-01,2.54824e-01,9.99999e-01
9.526968669e-01,2.52198e-01,9.99999e-01,9.99999e-01,9.63321e-01,2.61800e-01,9.99999e-01
9.574603512e-01,2.64554e-01,9.99999e-01,9.99999e-01,9.84122e-01,2.68823e-01,9.99999e-01
9.622476530e-01,2.74515e-01,9.99999e-01,9.99999e-01,9.95017e-01,2.75890e-01,9.99999e-01
9.670588912e-01,2.82574e-01,9.99999e-01,9.99999e-01,9.98503e-01,2.82997e-01,9.99999e-01
9.718941857e-01,2.90111e-01,9.99999e-01,9.99999e-01,9.99893e-01,2.90142e-01,9.99999e-01
9.767536566e-01,2.97321e-01,9.99999e-01,9.99999e-01,9.99999e-01,2.97321e-01,9.99999e-01
9.816374249e-01,3.04530e-01,9.99999e-01,9.99999e-01,9.99999e-01,3.04530e-01,9.99999e-01
9.865456120e-01,3.11767e-01,9.99999e-01,9.99999e-01,9.99999e-01,3.11767e-01,9.99999e-01
9.914783401e-01,3.19028e-01,9.99999e-01,9.99999e-01,9.99999e-01,3.19028e-01,9.99999e-01
9.964357318e-01,3.26309e-01,9.99999e-01,9.99999e-01,9.99999e-01,3.26309e-01,9.99999e-01
1.001417910e+00,3.33608e-01,9.99999e-01,9.99999e-01,9.99999e-01,3.33608e-01,9.99999e-01
1.006425000e+00,3.40921e-01,9.99999e-01,9.99999e-01,9.99999e-01,3.40921e-01,9.99999e-01
1.011457125e+00,3.48245e-01,9.99999e-01,9.99999e-01,9.99999e-01,3.48245e-01,9.99999e-01
1.016514411e+00,3.55577e-01,9.99999e-01,9.99999e-01,9.99999e-01,3.55577e-01,9.99999e-01
1.021596983e+00,3.62841e-01,9.99999e-01,9.99999e-01,9.99800e-01,3.62914e-01,9.99999e-01
1.026704968e+00,3.64694e-01,9.99999e-01,9.99999e-01,9.84986e-01,3.70253e-01,9.99999e-01
1.031838492e+00,3.35762e-01,9.99999e-01,9.99999e-01,8.89221e-01,3.77591e-01,9.99999e-01
1.036997685e+00,1.43816e-02,9.99999e-01,9.99999e-01,3.73620e-02,3.84925e-01,9.99999e-01
1.042182673e+00,3.92444e-04,9.99999e-01,9.99999e-01,1.00049e-03,3.92253e-01,9.99999e-01
1.047393587e+00,1.15660e-03,9.99999e-01,9.99999e-01,2.89461e-03,3.99571e-01,9.99999e-01
1.052630555e+00,1.54749e-08,9.99999e-01,9.99999e-01,3.80332e-08,4.06878e-01,9.99999e-01
1.057893707e+00,5.77060e-08,9.99999e-01,9.99999e-01,1.39329e-07,4.14169e-01,9.99999e-01
1.063183176e+00,4.10122e-06,9.99999e-01,9.99999e-01,9.73136e-06,4.21444e-01,9.99999e-01
1.068499092e+00,6.22496e-05,9.99999e-01,9.99999e-01,1.45206e-04,4.28698e-01,9.99999e-01
1.073841587e+00,1.38160e-03,9.99999e-01,9.99999e-01,3.16930e-03,4.35931e-01,9.99999e-01
1.079210795e+00,1.22122e-02,9.99999e-01,9.99999e-01,2.75584e-02,4.43139e-01,9.99999e-01
1.084606849e+00,5.71949e-02,9.99999e-01,9.99999e-01,1.27009e-01,4.50321e-01,9.99999e-01
1.090029883e+00,1.54684e-01,9.99999e-01,9.99999e-01,3.38127e-01,4.57473e-01,9.99999e-01
1.095480033e+00,2.71361e-01,9.99999e-01,9.99999e-01,5.84081e-01,4.64595e-01,9.99999e-01
1.100957433e+00,3.63300e-01,9.99999e-01,9.99999e-01,7.70220e-01,4.71683e-01,9.99999e-01
1.106462220e+00,4.29605e-01,9.99999e-01,9.99999e-01,8.97371e-01,4.78737e-01,9.99999e-01
1.111994531e+00,4.66607e-01,9.99999e-01,9.99999e-01,9.60584e-01,4.85753e-01,9.99999e-01
1.117554504e+00,4.87910e-01,9.99999e-01,9.99999e-01,9.90216e-01,4.92731e-01,9.99999e-01
1.123142276e+00,4.99345e-01,9.99999e-01,9.99999e-01,9.99353e-01,4.99668e-01,9.99999e-01
1.128757988e+00,5.06562e-01,9.99999e-01,9.99999e-01,9.99999e-01,5.06563e-01,9.99999e-01
1.134401778e+00,5.13413e-01,9.99999e-01,9.99999e-01,9.99999e-01,5.13413e-01,9.99999e-01
1.140073787e+00,5.20219e-01,9.99999e-01,9.99999e-01,9.99999e-01,5.20219e-01,9.99999e-01
1.145774156e+00,5.26978e-01,9.99999e-01,9.99999e-01,9.99999e-01,5.26978e-01,9.99999e-01
1.151503026e+00,5.33688e-01,9.99999e-01,9.99999e-01,9.99999e-01,5.33688e-01,9.99999e-01
1.157260541e+00,5.40349e-01,9.99999e-01,9.99999e-01,9.99999e-01,5.40349e-01,9.99999e-01
1.163046844e+00,5.46959e-01,9.99999e-01,9.99999e-01,9.99999e-01,5.46959e-01,9.99999e-01
1.168862078e+00,5.53517e-01,9.99999e-01,9.99999e-01,9.99999e-01,5.53517e-01,9.99999e-01
1.174706389e+00,5.60021e-01,9.99999e-01,9.99999e-01,9.99999e-01,5.60021e-01,9.99999e-01
1.180579921e+00,5.66471e-01,9.99999e-01,9.99999e-01,9.99999e-01,5.66471e-01,9.99999e-01
1.186482820e+00,5.72852e-01,9.99999e-01,9.99999e-01,9.99974e-01,5.72866e-01,9.99999e-01
1.192415234e+00,5.50192e-01,9.99999e-01,9.99999e-01,9.49908e-01,5.79205e-01,9.99999e-01
1.198377311e+00,2.92928e-01,9.99999e-01,9.99999e-01,5.00315e-01,5.85487e-01,9.99999e-01
1.204369197e+00,5.45017e-39,9.99999e-01,9.99999e-01,9.21087e-39,5.91710e-01,9.99999e-01
1.210391043e+00,4.15756e-160,9.99999e-01,9.99999e-01,6.95389e-160,5.97875e-01,9.99999e-01
1.216442998e+00,1.90084e-138,9.99999e-01,9.99999e-01,3.14719e-138,6.03981e-01,9.99999e-01
1.222525213e+00,2.32459e-136,9.99999e-01,9.99999e-01,3.81063e-136,6.10026e-01,9.99999e-01
1.228637839e+00,4.84049e-105,9.99999e-01,9.99999e-01,7.85780e-105,6.16011e-01,9.99999e-01
