#,Wave/freq,Total,N2,O2,CO2,Rayleigh,CIA
4.000000000e-01,1.12618e-03,9.99999e-01,9.99999e-01,9.99999e-01,1.12618e-03,9.99999e-01
4.020000000e-01,1.28797e-03,9.99999e-01,9.99999e-01,9.99999e-01,1.28797e-03,9.99999e-01
4.040100000e-01,1.46890e-03,9.99999e-01,9.99999e-01,9.99999e-01,1.46890e-03,9.99999e-01
4.060300500e-01,1.67091e-03,9.99999e-01,9.99999e-01,9.99999e-01,1.67091e-03,9.99999e-01
4.080602003e-01,1.89586e-03,9.99999e-01,9.99999e-01,9.99999e-01,1.89586e-03,9.99999e-01
4.101005013e-01,2.14573e-03,9.99999e-01,9.99999e-01,9.99999e-01,2.14573e-03,9.99999e-01
4.121510038e-01,2.42261e-03,9.99999e-01,9.99999e-01,9.99999e-01,2.42261e-03,9.99999e-01
4.142117588e-01,2.72867e-03,9.99999e-01,9.99999e-01,9.99999e-01,2.72867e-03,9.99999e-01
4.162828176e-01,3.06617e-03,9.99999e-01,9.99999e-01,9.99999e-01,3.06617e-03,9.99999e-01
4.183642317e-01,3.43750e-03,9.99999e-01,9.99999e-01,9.99999e-01,3.43750e-03,9.99999e-01
4.204560528e-01,3.84510e-03,9.99999e-01,9.99999e-01,9.99999e-01,3.84510e-03,9.99999e-01
4.225583331e-01,4.29153e-03,9.99999e-01,9.99999e-01,9.99999e-01,4.29153e-03,9.99999e-01
4.246711247e-01,4.77941e-03,9.99999e-01,9.99999e-01,9.99999e-01,4.77941e-03,9.99999e-01
4.267944804e-01,5.31144e-03,9.99999e-01,9.99999e-01,9.99999e-01,5.31144e-03,9.99999e-01
4.289284528e-01,5.89040e-03,9.99999e-01,9.99999e-01,9.99999e-01,5.89040e-03,9.99999e-01
4.310730950e-01,6.51913e-03,9.99999e-01,9.99999e-01,9.99999e-01,6.51913e-03,9.99999e-01
4.332284605e-01,7.20054e-03,9.99999e-01,9.99999e-01,9.99999e-01,7.20054e-03,9.99999e-01
4.353946028e-01,7.93757e-03,9.99999e-01,9.99999e-01,9.99999e-01,7.93757e-03,9.99999e-01
4.375715758e-01,8.73321e-03,9.99999e-01,9.99999e-01,9.99999e-01,8.73321e-03,9.99999e-01
4.397594337e-01,9.59049e-03,9.99999e-01,9.99999e-01,9.99999e-01,9.59049e-03,9.99999e-01
4.419582309e-01,1.05125e-02,9.99999e-01,9.99999e-01,9.99999e-01,1.05125e-02,9.99999e-01
4.441680220e-01,1.15022e-02,9.99999e-01,9.99999e-01,9.99999e-01,1.15022e-02,9.99999e-01
4.463888621e-01,1.25628e-02,9.99999e-01,9.99999e-01,9.99999e-01,1.25628e-02,9.99999e-01
4.486208064e-01,1.36972e-02,9.99999e-01,9.99999e-01,9.99999e-01,1.36972e-02,9.99999e-01
4.508639105e-01,1.49087e-02,9.99999e-01,9.99999e-01,9.99999e-01,1.49087e-02,9.99999e-01
4.531182300e-01,1.62001e-02,9.99999e-01,9.99999e-01,9.99999e-01,1.62001e-02,9.99999e-01
4.553838212e-01,1.75746e-02,9.99999e-01,9.99999e-01,9.99999e-01,1.75746e-02,9.99999e-01
4.576607403e-01,1.90350e-02,9.99999e-01,9.99999e-01,9.99999e-01,1.90350e-02,9.99999e-01
4.599490440e-01,2.05843e-02,9.99999e-01,9.99999e-01,9.99999e-01,2.05843e-02,9.99999e-01
4.622487892e-01,2.22253e-02,9.99999e-01,9.99999e-01,9.99999e-01,2.22253e-02,9.99999e-01
4.645600332e-01,2.39608e-02,9.99999e-01,9.99999e-01,9.99999e-01,2.39608e-02,9.99999e-01
4.668828333e-01,2.57935e-02,9.99999e-01,9.99999e-01,9.99999e-01,2.57935e-02,9.99999e-01
4.692172475e-01,2.77260e-02,9.99999e-01,9.99999e-01,9.99999e-01,2.77260e-02,9.99999e-01
4.715633337e-01,2.97607e-02,9.99999e-01,9.99999e-01,9.99999e-01,2.97607e-02,9.99999e-01
4.739211504e-01,3.19001e-02,9.99999e-01,9.99999e-01,9.99999e-01,3.19001e-02,9.99999e-01
4.762907561e-01,3.41465e-02,9.99999e-01,9.99999e-01,9.99999e-01,3.41465e-02,9.99999e-01
4.786722099e-01,3.65020e-02,9.99999e-01,9.99999e-01,9.99999e-01,3.65020e-02,9.99999e-01
4.810655710e-01,3.89686e-02,9.99999e-01,9.99999e-01,9.99999e-01,3.89686e-02,9.99999e-01
4.834708988e-01,4.15481e-02,9.99999e-01,9.99999e-01,9.99999e-01,4.15481e-02,9.99999e-01
4.858882533e-01,4.42424e-02,9.99999e-01,9.99999e-01,9.99999e-01,4.42424e-02,9.99999e-01
4.883176946e-01,4.70529e-02,9.99999e-01,9.99999e-01,9.99999e-01,4.70529e-02,9.99999e-01
4.907592831e-01,4.99811e-02,9.99999e-01,9.99999e-01,9.99999e-01,4.99811e-02,9.99999e-01
4.932130795e-01,5.30283e-02,9.99999e-01,9.99999e-01,9.99999e-01,5.30283e-02,9.99999e-01
4.956791449e-01,5.61955e-02,9.99999e-01,9.99999e-01,9.99999e-01,5.61955e-02,9.99999e-01
4.981575406e-01,5.94838e-02,9.99999e-01,9.99999e-01,9.99999e-01,5.94838e-02,9.99999e-01
5.006483283e-01,6.28937e-02,9.99999e-01,9.99999e-01,9.99999e-01,6.28937e-02,9.99999e-01
5.031515699e-01,6.64259e-02,9.99999e-01,9.99999e-01,9.99999e-01,6.64259e-02,9.99999e-01
5.056673278e-01,7.00808e-02,9.99999e-01,9.99999e-01,9.99999e-01,7.00808e-02,9.99999e-01
5.081956644e-01,7.38587e-02,9.99999e-01,9.99999e-01,9.99999e-01,7.38587e-02,9.99999e-01
5.107366428e-01,7.77595e-02,9.99999e-01,9.99999e-01,9.99999e-01,7.77595e-02,9.99999e-01
5.132903260e-01,8.17831e-02,9.99999e-01,9.99999e-01,9.99999e-01,8.17831e-02,9.99999e-01
5.158567776e-01,8.59293e-02,9.99999e-01,9.99999e-01,9.99999e-01,8.59293e-02,9.99999e-01
5.184360615e-01,9.01975e-02,9.99999e-01,9.99999e-01,9.99999e-01,9.01975e-02,9.99999e-01
5.210282418e-01,9.45872e-02,9.99999e-01,9.99999e-01,9.99999e-01,9.45872e-02,9.99999e-01
5.236333830e-01,9.90973e-02,9.99999e-01,9.99999e-01,9.99999e-01,9.90973e-02,9.99999e-01
5.262515499e-01,1.03727e-01,9.99999e-01,9.99999e-01,9.99999e-01,1.03727e-01,9.99999e-01
5.288828077e-01,1.08475e-01,9.99999e-01,9.99999e-01,9.99999e-01,1.08475e-01,9.99999e-01
5.315272217e-01,1.13341e-01,9.99999e-01,9.99999e-01,9.99999e-01,1.13341e-01,9.99999e-01
5.341848578e-01,1.18321e-01,9.99999e-01,9.99999e-01,9.99999e-01,1.18321e-01,9.99999e-01
5.368557821e-01,1.23416e-01,9.99999e-01,9.99999e-01,9.99999e-01,1.23416e-01,9.99999e-01
5.395400610e-01,1.28624e-01,9.99999e-01,9.99999e-01,9.99999e-01,1.28624e-01,9.99999e-01
5.422377613e-01,1.33941e-01,9.99999e-01,9.99999e-01,9.99999e-01,1.33941e-01,9.99999e-01
5.449489501e-01,1.39367e-01,9.99999e-01,9.99999e-01,9.99999e-01,1.39367e-01,9.99999e-01
5.476736949e-01,1.44899e-01,9.99999e-01,9.99999e-01,9.99999e-01,1.44899e-01,9.99999e-01
5.504120634e-01,1.50534e-01,9.99999e-01,9.99999e-01,9.99999e-01,1.50534e-01,9.99999e-01
5.531641237e-01,1.56271e-01,9.99999e-01,9.99999e-01,9.99999e-01,1.56271e-01,9.99999e-01
5.559299443e-01,1.62107e-01,9.99999e-01,9.99999e-01,9.99999e-01,1.62107e-01,9.99999e-01
5.587095940e-01,1.68039e-01,9.99999e-01,9.99999e-01,9.99999e-01,1.68039e-01,9.99999e-01
5.615031420e-01,1.74065e-01,9.99999e-01,9.99999e-01,9.99999e-01,1.74065e-01,9.99999e-01
5.643106577e-01,1.80181e-01,9.99999e-01,9.99999e-01,9.99999e-01,1.80181e-01,9.99999e-01
5.671322110e-01,1.86384e-01,9.99999e-01,9.99999e-01,9.99999e-01,1.86384e-01,9.99999e-01
5.699678720e-01,1.92673e-01,9.99999e-01,9.99999e-01,9.99999e-01,1.92673e-01,9.99999e-01
5.728177114e-01,1.99043e-01,9.99999e-01,9.99999e-01,9.99999e-01,1.99043e-01,9.99999e-01
5.756818000e-01,2.05492e-01,9.99999e-01,9.99999e-01,9.99999e-01,2.05492e-01,9.99999e-01
5.785602090e-01,2.12016e-01,9.99999e-01,9.99999e-01,9.99999e-01,2.12016e-01,9.99999e-01
5.814530100e-01,2.18612e-01,9.99999e-01,9.99999e-01,9.99999e-01,2.18612e-01,9.99999e-01
5.843602750e-01,2.25278e-01,9.99999e-01,9.99999e-01,9.99999e-01,2.25278e-01,9.99999e-01
5.872820764e-01,2.32008e-01,9.99999e-01,9.99999e-01,9.99999e-01,2.32008e-01,9.99999e-01
5.902184868e-01,2.38801e-01,9.99999e-01,9.99999e-01,9.99999e-01,2.38801e-01,9.99999e-01
5.931695792e-01,2.45653e-01,9.99999e-01,9.99999e-01,9.99999e-01,2.45653e-01,9.99999e-01
5.961354271e-01,2.52560e-01,9.99999e-01,9.99999e-01,9.99999e-01,2.52560e-01,9.99999e-01
5.991161043e-01,2.59519e-01,9.99999e-01,9.99999e-01,9.99999e-01,2.59519e-01,9.99999e-01
6.021116848e-01,2.66527e-01,9.99999e-01,9.99999e-01,9.99999e-01,2.66527e-01,9.99999e-01
6.051222432e-01,2.73580e-01,9.99999e-01,9.99999e-01,9.99999e-01,2.73580e-01,9.99999e-01
6.081478544e-01,2.80674e-01,9.99999e-01,9.99999e-01,9.99999e-01,2.80674e-01,9.99999e-01
6.111885937e-01,2.87807e-01,9.99999e-01,9.99999e-01,9.99999e-01,2.87807e-01,9.99999e-01
6.142445367e-01,2.94976e-01,9.99999e-01,9.99999e-01,9.99999e-01,2.94976e-01,9.99999e-01
6.173157594e-01,3.02175e-01,9.99999e-01,9.99999e-01,9.99999e-01,3.02175e-01,9.99999e-01
6.204023382e-01,3.09404e-01,9.99999e-01,9.99999e-01,9.99999e-01,3.09404e-01,9.99999e-01
6.235043498e-01,3.16657e-01,9.99999e-01,9.99999e-01,9.99999e-01,3.16657e-01,9.99999e-01
6.266218716e-01,3.23932e-01,9.99999e-01,9.99999e-01,9.99999e-01,3.23932e-01,9.99999e-01
6.297549810e-01,3.31225e-01,9.99999e-01,9.99999e-01,9.99999e-01,3.31225e-01,9.99999e-01
6.329037559e-01,3.38534e-01,9.99999e-01,9.99999e-01,9.99999e-01,3.38534e-01,9.99999e-01
6.360682746e-01,3.45854e-01,9.99999e-01,9.99999e-01,9.99999e-01,3.45854e-01,9.99999e-01
6.392486160e-01,3.53184e-01,9.99999e-01,9.99999e-01,9.99999e-01,3.53184e-01,9.99999e-01
6.424448591e-01,3.60520e-01,9.99999e-01,9.99999e-01,9.99999e-01,3.60520e-01,9.99999e-01
6.456570834e-01,3.67859e-01,9.99999e-01,9.99999e-01,9.99999e-01,3.67859e-01,9.99999e-01
6.488853688e-01,3.75197e-01,9.99999e-01,9.99999e-01,9.99999e-01,3.75197e-01,9.99999e-01
6.521297956e-01,3.82533e-01,9.99999e-01,9.99999e-01,9.99999e-01,3.82533e-01,9.99999e-01
6.553904446e-01,3.89864e-01,9.99999e-01,9.99999e-01,9.99999e-01,3.89864e-01,9.99999e-01
6.586673968e-01,3.97185e-01,9.99999e-01,9.99999e-01,9.99999e-01,3.97185e-01,9.99999e-01
6.619607338e-01,4.04496e-01,9.99999e-01,9.99999e-01,9.99999e-01,4.04496e-01,9.99999e-01
6.652705375e-01,4.11792e-01,9.99999e-01,9.99999e-01,9.99999e-01,4.11792e-01,9.99999e-01
6.685968902e-01,4.19073e-01,9.99999e-01,9.99999e-01,9.99999e-01,4.19073e-01,9.99999e-01
6.719398746e-01,4.26334e-01,9.99999e-01,9.99999e-01,9.99999e-01,4.26334e-01,9.99999e-01
6.752995740e-01,4.33574e-01,9.99999e-01,9.99999e-01,9.99999e-01,4.33574e-01,9.99999e-01
6.786760719e-01,4.40791e-01,9.99999e-01,9.99999e-01,9.99999e-01,4.40791e-01,9.99999e-01
6.820694522e-01,4.47981e-01,9.99999e-01,9.99999e-01,9.99999e-01,4.47981e-01,9.99999e-01
6.854797995e-01,4.55143e-01,9.99999e-01,9.99999e-01,9.99999e-01,4.55143e-01,9.99999e-01
6.889071985e-01,4.62275e-01,9.99999e-01,9.99999e-01,9.99999e-01,4.62275e-01,9.99999e-01
6.923517345e-01,4.69375e-01,9.99999e-01,9.99999e-01,9.99999e-01,4.69375e-01,9.99999e-01
6.958134932e-01,4.76440e-01,9.99999e-01,9.99999e-01,9.99999e-01,4.76440e-01,9.99999e-01
6.992925606e-01,4.83468e-01,9.99999e-01,9.99999e-01,9.99999e-01,4.83468e-01,9.99999e-01
7.027890234e-01,4.90459e-01,9.99999e-01,9.99999e-01,9.99999e-01,4.90459e-01,9.99999e-01
7.063029686e-01,4.97409e-01,9.99999e-01,9.99999e-01,9.99999e-01,4.97409e-01,9.99999e-01
7.098344834e-01,5.04318e-01,9.99999e-01,9.99999e-01,9.99999e-01,5.04318e-01,9.99999e-01
7.133836558e-01,5.11184e-01,9.99999e-01,9.99999e-01,9.99999e-01,5.11184e-01,9.99999e-01
7.169505741e-01,5.18004e-01,9.99999e-01,9.99999e-01,9.99999e-01,5.18004e-01,9.99999e-01
7.205353270e-01,5.24778e-01,9.99999e-01,9.99999e-01,9.99999e-01,5.24778e-01,9.99999e-01
7.241380036e-01,5.31505e-01,9.99999e-01,9.99999e-01,9.99999e-01,5.31505e-01,9.99999e-01
7.277586936e-01,5.38182e-01,9.99999e-01,9.99999e-01,9.99999e-01,5.38182e-01,9.99999e-01
7.313974871e-01,5.44808e-01,9.99999e-01,9.99999e-01,9.99999e-01,5.44808e-01,9.99999e-01
7.350544745e-01,5.51383e-01,9.99999e-01,9.99999e-01,9.99999e-01,5.51383e-01,9.99999e-01
7.387297469e-01,5.57905e-01,9.99999e-01,9.99999e-01,9.99999e-01,5.57905e-01,9.99999e-01
7.424233956e-01,5.64373e-01,9.99999e-01,9.99999e-01,9.99999e-01,5.64373e-01,9.99999e-01
7.461355126e-01,5.70786e-01,9.99999e-01,9.99999e-01,9.99999e-01,5.70786e-01,9.99999e-01
7.498661902e-01,5.77144e-01,9.99999e-01,9.99999e-01,9.99999e-01,5.77144e-01,9.99999e-01
7.536155211e-01,5.83444e-01,9.99999e-01,9.99999e-01,9.99999e-01,5.83444e-01,9.99999e-01
7.573835987e-01,5.89687e-01,9.99999e-01,9.99999e-01,9.99999e-01,5.89687e-01,9.99999e-01
7.611705167e-01,5.95871e-01,9.99999e-01,9.99999e-01,9.99999e-01,5.95871e-01,9.99999e-01
7.649763693e-01,6.01996e-01,9.99999e-01,9.99999e-01,9.99999e-01,6.01996e-01,9.99999e-01
7.688012511e-01,6.08061e-01,9.99999e-01,9.99999e-01,9.99999e-01,6.08061e-01,9.99999e-01
7.726452574e-01,6.14065e-01,9.99999e-01,9.99999e-01,9.99999e-01,6.14065e-01,9.99999e-01
7.765084837e-01,6.20009e-01,9.99999e-01,9.99999e-01,9.99999e-01,6.20009e-01,9.99999e-01
7.803910261e-01,6.11777e-01,9.99999e-01,9.99999e-01,9.77450e-01,6.25891e-01,9.99999e-01
7.842929812e-01,5.72475e-01,9.99999e-01,9.99999e-01,9.06229e-01,6.31710e-01,9.99999e-01
7.882144461e-01,5.73529e-01,9.99999e-01,9.99999e-01,8.99698e-01,6.37468e-01,9.99999e-01
7.921555184e-01,6.05118e-01,9.99999e-01,9.99999e-01,9.40847e-01,6.43162e-01,9.99999e-01
7.961162960e-01,6.22897e-01,9.99999e-01,9.99999e-01,9.60084e-01,6.48794e-01,9.99999e-01
8.000968774e-01,6.40081e-01,9.99999e-01,9.99999e-01,9.78174e-01,6.54362e-01,9.99999e-01
8.040973618e-01,6.52370e-01,9.99999e-01,9.99999e-01,9.88639e-01,6.59867e-01,9.99999e-01
8.081178486e-01,6.61829e-01,9.99999e-01,9.99999e-01,9.94770e-01,6.65307e-01,9.99999e-01
8.121584379e-01,6.69600e-01,9.99999e-01,9.99999e-01,9.98382e-01,6.70684e-01,9.99999e-01
8.162192301e-01,6.75756e-01,9.99999e-01,9.99999e-01,9.99642e-01,6.75997e-01,9.99999e-01
8.203003262e-01,6.81242e-01,9.99999e-01,9.99999e-01,9.99994e-01,6.81246e-01,9.99999e-01
8.244018279e-01,6.86430e-01,9.99999e-01,9.99999e-01,9.99999e-01,6.86430e-01,9.99999e-01
8.285238370e-01,6.91551e-01,9.99999e-01,9.99999e-01,9.99999e-01,6.91551e-01,9.99999e-01
8.326664562e-01,6.96607e-01,9.99999e-01,9.99999e-01,9.99999e-01,6.96607e-01,9.99999e-01
8.368297885e-01,7.01600e-01,9.99999e-01,9.99999e-01,9.99999e-01,7.01600e-01,9.99999e-01
8.410139374e-01,7.06528e-01,9.99999e-01,9.99999e-01,9.99999e-01,7.06528e-01,9.99999e-01
8.452190071e-01,7.11393e-01,9.99999e-01,9.99999e-01,9.99999e-01,7.11393e-01,9.99999e-01
8.494451021e-01,7.16194e-01,9.99999e-01,9.99999e-01,9.99999e-01,7.16194e-01,9.99999e-01
8.536923276e-01,7.20932e-01,9.99999e-01,9.99999e-01,9.99999e-01,7.20932e-01,9.99999e-01
8.579607893e-01,7.25606e-01,9.99999e-01,9.99999e-01,9.99999e-01,7.25606e-01,9.99999e-01
8.622505932e-01,7.30218e-01,9.99999e-01,9.99999e-01,9.99999e-01,7.30218e-01,9.99999e-01
8.665618462e-01,6.93532e-01,9.99999e-01,9.99999e-01,9.43879e-01,7.34767e-01,9.99999e-01
8.708946554e-01,5.74222e-01,9.99999e-01,9.99999e-01,7.76758e-01,7.39254e-01,9.99999e-01
8.752491287e-01,6.07791e-01,9.99999e-01,9.99999e-01,8.17275e-01,7.43679e-01,9.99999e-01
8.796253743e-01,6.70096e-01,9.99999e-01,9.99999e-01,8.95800e-01,7.48042e-01,9.99999e-01
8.840235012e-01,7.10766e-01,9.99999e-01,9.99999e-01,9.44735e-01,7.52343e-01,9.99999e-01
8.884436187e-01,7.39845e-01,9.99999e-01,9.99999e-01,9.77875e-01,7.56584e-01,9.99999e-01
8.928858368e-01,7.53907e-01,9.99999e-01,9.99999e-01,9.90985e-01,7.60764e-01,9.99999e-01
8.973502660e-01,7.63205e-01,9.99999e-01,9.99999e-01,9.97804e-01,7.64884e-01,9.99999e-01
9.018370173e-01,7.68758e-01,9.99999e-01,9.99999e-01,9.99757e-01,7.68944e-01,9.99999e-01
9.063462024e-01,7.68136e-01,9.99999e-01,9.99999e-01,9.93777e-01,7.72945e-01,9.99999e-01
9.108779334e-01,7.65861e-01,9.99999e-01,9.99999e-01,9.85806e-01,7.76887e-01,9.99999e-01
9.154323231e-01,7.78157e-01,9.99999e-01,9.99999e-01,9.96651e-01,7.80771e-01,9.99999e-01
9.200094847e-01,7.46359e-01,9.99999e-01,9.99999e-01,9.51263e-01,7.84597e-01,9.99999e-01
9.246095321e-01,7.35026e-01,9.99999e-01,9.99999e-01,9.32341e-01,7.88365e-01,9.99999e-01
9.292325798e-01,7.49628e-01,9.99999e-01,9.99999e-01,9.46407e-01,7.92077e-01,9.99999e-01
9.338787427e-01,7.54557e-01,9.99999e-01,9.99999e-01,9.48253e-01,7.95732e-01,9.99999e-01
9.385481364e-01,7.68777e-01,9.99999e-01,9.99999e-01,9.61773e-01,7.99332e-01,9.99999e-01
9.432408771e-01,7.83967e-01,9.99999e-01,9.99999e-01,9.76448e-01,8.02876e-01,9.99999e-01
9.479570815e-01,7.96570e-01,9.99999e-01,9.99999e-01,9.87851e-01,8.06365e-01,9.99999e-01
9.526968669e-01,8.05043e-01,9.99999e-01,9.99999e-01,9.94124e-01,8.09801e-01,9.99999e-01
9.574603512e-01,8.11137e-01,9.99999e-01,9.99999e-01,9.97484e-01,8.13182e-01,9.99999e-01
9.622476530e-01,8.15870e-01,9.99999e-01,9.99999e-01,9.99214e-01,8.16511e-01,9.99999e-01
9.670588912e-01,8.19594e-01,9.99999e-01,9.99999e-01,9.99764e-01,8.19787e-01,9.99999e-01
9.718941857e-01,8.22997e-01,9.99999e-01,9.99999e-01,9.99982e-01,8.23011e-01,9.99999e-01
9.767536566e-01,8.26183e-01,9.99999e-01,9.99999e-01,9.99999e-01,8.26183e-01,9.99999e-01
9.816374249e-01,8.29305e-01,9.99999e-01,9.99999e-01,9.99999e-01,8.29305e-01,9.99999e-01
9.865456120e-01,8.32377e-01,9.99999e-01,9.99999e-01,9.99999e-01,8.32377e-01,9.99999e-01
9.914783401e-01,8.35399e-01,9.99999e-01,9.99999e-01,9.99999e-01,8.35399e-01,9.99999e-01
9.964357318e-01,8.38372e-01,9.99999e-01,9.99999e-01,9.99999e-01,8.38372e-01,9.99999e-01
1.001417910e+00,8.41296e-01,9.99999e-01,9.99999e-01,9.99999e-01,8.41296e-01,9.99999e-01
1.006425000e+00,8.44173e-01,9.99999e-01,9.99999e-01,9.99999e-01,8.44173e-01,9.99999e-01
1.011457125e+00,8.47002e-01,9.99999e-01,9.99999e-01,9.99999e-01,8.47002e-01,9.99999e-01
1.016514411e+00,8.49785e-01,9.99999e-01,9.99999e-01,9.99999e-01,8.49785e-01,9.99999e-01
1.021596983e+00,8.52493e-01,9.99999e-01,9.99999e-01,9.99966e-01,8.52521e-01,9.99999e-01
1.026704968e+00,8.53141e-01,9.99999e-01,9.99999e-01,9.97577e-01,8.55212e-01,9.99999e-01
1.031838492e+00,8.29792e-01,9.99999e-01,9.99999e-01,9.67282e-01,8.57859e-01,9.99999e-01
1.036997685e+00,1.94734e-01,9.99999e-01,9.99999e-01,2.26313e-01,8.60460e-01,9.99999e-01
1.042182673e+00,2.10703e-01,9.99999e-01,9.99999e-01,2.44147e-01,8.63018e-01,9.99999e-01
1.047393587e+00,2.10526e-01,9.99999e-01,9.99999e-01,2.43233e-01,8.65533e-01,9.99999e-01
1.052630555e+00,1.82113e-02,9.99999e-01,9.99999e-01,2.09805e-02,8.68006e-01,9.99999e-01
1.057893707e+00,3.82069e-02,9.99999e-01,9.99999e-01,4.38940e-02,8.70436e-01,9.99999e-01
1.063183176e+00,8.92645e-02,9.99999e-01,9.99999e-01,1.02271e-01,8.72825e-01,9.99999e-01
1.068499092e+00,1.86760e-01,9.99999e-01,9.99999e-01,2.13398e-01,8.75173e-01,9.99999e-01
1.073841587e+00,3.31181e-01,9.99999e-01,9.99999e-01,3.77421e-01,8.77481e-01,9.99999e-01
1.079210795e+00,4.75323e-01,9.99999e-01,9.99999e-01,5.40293e-01,8.79750e-01,9.99999e-01
1.084606849e+00,6.29719e-01,9.99999e-01,9.99999e-01,7.13983e-01,8.81979e-01,9.99999e-01
1.090029883e+00,7.42556e-01,9.99999e-01,9.99999e-01,8.39834e-01,8.84169e-01,9.99999e-01
1.095480033e+00,8.13331e-01,9.99999e-01,9.99999e-01,9.17646e-01,8.86322e-01,9.99999e-01
1.100957433e+00,8.52441e-01,9.99999e-01,9.99999e-01,9.59482e-01,8.88437e-01,9.99999e-01
1.106462220e+00,8.75420e-01,9.99999e-01,9.99999e-01,9.83048e-01,8.90515e-01,9.99999e-01
1.111994531e+00,8.86921e-01,9.99999e-01,9.99999e-01,9.93684e-01,8.92557e-01,9.99999e-01
1.117554504e+00,8.93182e-01,9.99999e-01,9.99999e-01,9.98454e-01,8.94564e-01,9.99999e-01
1.123142276e+00,8.96444e-01,9.99999e-01,9.99999e-01,9.99898e-01,8.96534e-01,9.99999e-01
1.128757988e+00,8.98471e-01,9.99999e-01,9.99999e-01,9.99999e-01,8.98471e-01,9.99999e-01
1.134401778e+00,9.00373e-01,9.99999e-01,9.99999e-01,9.99999e-01,9.00373e-01,9.99999e-01
1.140073787e+00,9.02241e-01,9.99999e-01,9.99999e-01,9.99999e-01,9.02241e-01,9.99999e-01
1.145774156e+00,9.04076e-01,9.99999e-01,9.99999e-01,9.99999e-01,9.04076e-01,9.99999e-01
1.151503026e+00,9.05879e-01,9.99999e-01,9.99999e-01,9.99999e-01,9.05879e-01,9.99999e-01
1.157260541e+00,9.07649e-01,9.99999e-01,9.99999e-01,9.99999e-01,9.07649e-01,9.99999e-01
1.163046844e+00,9.09388e-01,9.99999e-01,9.99999e-01,9.99999e-01,9.09388e-01,9.99999e-01
1.168862078e+00,9.11096e-01,9.99999e-01,9.99999e-01,9.99999e-01,9.11096e-01,9.99999e-01
1.174706389e+00,9.12773e-01,9.99999e-01,9.99999e-01,9.99999e-01,9.12773e-01,9.99999e-01
1.180579921e+00,9.14420e-01,9.99999e-01,9.99999e-01,9.99999e-01,9.14420e-01,9.99999e-01
1.186482820e+00,9.16033e-01,9.99999e-01,9.99999e-01,9.99995e-01,9.16037e-01,9.99999e-01
1.192415234e+00,9.09666e-01,9.99999e-01,9.99999e-01,9.91325e-01,9.17625e-01,9.99999e-01
1.198377311e+00,5.27759e-01,9.99999e-01,9.99999e-01,5.74159e-01,9.19185e-01,9.99999e-01
1.204369197e+00,4.90872e-08,9.99999e-01,9.99999e-01,5.33141e-08,9.20716e-01,9.99999e-01
1.210391043e+00,4.15823e-27,9.99999e-01,9.99999e-01,4.50893e-27,9.22220e-01,9.99999e-01
1.216442998e+00,1.07133e-23,9.99999e-01,9.99999e-01,1.15983e-23,9.23696e-01,9.99999e-01
1.222525213e+00,2.31107e-23,9.99999e-01,9.99999e-01,2.49806e-23,9.25145e-01,9.99999e-01
1.228637839e+00,4.80572e-18,9.99999e-01,9.99999e-01,5.18658e-18,9.26568e-01,9.99999e-01
