#,Wave/freq,Total,N2,O2,CO2,Rayleigh,CIA
4.000000000e-01,5.50803e-11,9.99999e-01,9.99999e-01,9.99999e-01,5.50803e-11,9.99999e-01
4.020000000e-01,8.78712e-11,9.99999e-01,9.99999e-01,9.99999e-01,8.78712e-11,9.99999e-01
4.040100000e-01,1.38829e-10,9.99999e-01,9.99999e-01,9.99999e-01,1.38829e-10,9.99999e-01
4.060300500e-01,2.17366e-10,9.99999e-01,9.99999e-01,9.99999e-01,2.17366e-10,9.99999e-01
4.080602003e-01,3.37330e-10,9.99999e-01,9.99999e-01,9.99999e-01,3.37330e-10,9.99999e-01
4.101005013e-01,5.18979e-10,9.99999e-01,9.99999e-01,9.99999e-01,5.18979e-10,9.99999e-01
4.121510038e-01,7.91678e-10,9.99999e-01,9.99999e-01,9.99999e-01,7.91678e-10,9.99999e-01
4.142117588e-01,1.19764e-09,9.99999e-01,9.99999e-01,9.99999e-01,1.19764e-09,9.99999e-01
4.162828176e-01,1.79701e-09,9.99999e-01,9.99999e-01,9.99999e-01,1.79701e-09,9.99999e-01
4.183642317e-01,2.67482e-09,9.99999e-01,9.99999e-01,9.99999e-01,2.67482e-09,9.99999e-01
4.204560528e-01,3.95026e-09,9.99999e-01,9.99999e-01,9.99999e-01,3.95026e-09,9.99999e-01
4.225583331e-01,5.78913e-09,9.99999e-01,9.99999e-01,9.99999e-01,5.78913e-09,9.99999e-01
4.246711247e-01,8.42020e-09,9.99999e-01,9.99999e-01,9.99999e-01,8.42020e-09,9.99999e-01
4.267944804e-01,1.21567e-08,9.99999e-01,9.99999e-01,9.99999e-01,1.21567e-08,9.99999e-01
4.289284528e-01,1.74246e-08,9.99999e-01,9.99999e-01,9.99999e-01,1.74246e-08,9.99999e-01
4.310730950e-01,2.47981e-08,9.99999e-01,9.99999e-01,9.99999e-01,2.47981e-08,9.99999e-01
4.332284605e-01,3.50467e-08,9.99999e-01,9.99999e-01,9.99999e-01,3.50467e-08,9.99999e-01
4.353946028e-01,4.91936e-08,9.99999e-01,9.99999e-01,9.99999e-01,4.91936e-08,9.99999e-01
4.375715758e-01,6.85902e-08,9.99999e-01,9.99999e-01,9.99999e-01,6.85902e-08,9.99999e-01
4.397594337e-01,9.50087e-08,9.99999e-01,9.99999e-01,9.99999e-01,9.50087e-08,9.99999e-01
4.419582309e-01,1.30758e-07,9.99999e-01,9.99999e-01,9.99999e-01,1.30758e-07,9.99999e-01
4.441680220e-01,1.78828e-07,9.99999e-01,9.99999e-01,9.99999e-01,1.78828e-07,9.99999e-01
4.463888621e-01,2.43062e-07,9.99999e-01,9.99999e-01,9.99999e-01,2.43062e-07,9.99999e-01
4.486208064e-01,3.28372e-07,9.99999e-01,9.99999e-01,9.99999e-01,3.28372e-07,9.99999e-01
4.508639105e-01,4.40995e-07,9.99999e-01,9.99999e-01,9.99999e-01,4.40995e-07,9.99999e-01
4.531182300e-01,5.88806e-07,9.99999e-01,9.99999e-01,9.99999e-01,5.88806e-07,9.99999e-01
4.553838212e-01,7.81683e-07,9.99999e-01,9.99999e-01,9.99999e-01,7.81683e-07,9.99999e-01
4.576607403e-01,1.03195e-06,9.99999e-01,9.99999e-01,9.99999e-01,1.03195e-06,9.99999e-01
4.599490440e-01,1.35489e-06,9.99999e-01,9.99999e-01,9.99999e-01,1.35489e-06,9.99999e-01
4.622487892e-01,1.76935e-06,9.99999e-01,9.99999e-01,9.99999e-01,1.76935e-06,9.99999e-01
4.645600332e-01,2.29844e-06,9.99999e-01,9.99999e-01,9.99999e-01,2.29844e-06,9.99999e-01
4.668828333e-01,2.97036e-06,9.99999e-01,9.99999e-01,9.99999e-01,2.97036e-06,9.99999e-01
4.692172475e-01,3.81930e-06,9.99999e-01,9.99999e-01,9.99999e-01,3.81930e-06,9.99999e-01
4.715633337e-01,4.88656e-06,9.99999e-01,9.99999e-01,9.99999e-01,4.88656e-06,9.99999e-01
4.739211504e-01,6.22170e-06,9.99999e-01,9.99999e-01,9.99999e-01,6.22170e-06,9.99999e-01
4.762907561e-01,7.88392e-06,9.99999e-01,9.99999e-01,9.99999e-01,7.88392e-06,9.99999e-01
4.786722099e-01,9.94361e-06,9.99999e-01,9.99999e-01,9.99999e-01,9.94361e-06,9.99999e-01
4.810655710e-01,1.24840e-05,9.99999e-01,9.99999e-01,9.99999e-01,1.24840e-05,9.99999e-01
4.834708988e-01,1.56032e-05,9.99999e-01,9.99999e-01,9.99999e-01,1.56032e-05,9.99999e-01
4.858882533e-01,1.94160e-05,9.99999e-01,9.99999e-01,9.99999e-01,1.94160e-05,9.99999e-01
4.883176946e-01,2.40564e-05,9.99999e-01,9.99999e-01,9.99999e-01,2.40564e-05,9.99999e-01
4.907592831e-01,2.96799e-05,9.99999e-01,9.99999e-01,9.99999e-01,2.96799e-05,9.99999e-01
4.932130795e-01,3.64664e-05,9.99999e-01,9.99999e-01,9.99999e-01,3.64664e-05,9.99999e-01
4.956791449e-01,4.46227e-05,9.99999e-01,9.99999e-01,9.99999e-01,4.46227e-05,9.99999e-01
4.981575406e-01,5.43862e-05,9.99999e-01,9.99999e-01,9.99999e-01,5.43862e-05,9.99999e-01
5.006483283e-01,6.60272e-05,9.99999e-01,9.99999e-01,9.99999e-01,6.60272e-05,9.99999e-01
5.031515699e-01,7.98535e-05,9.99999e-01,9.99999e-01,9.99999e-01,7.98535e-05,9.99999e-01
5.056673278e-01,9.62130e-05,9.99999e-01,9.99999e-01,9.99999e-01,9.62130e-05,9.99999e-01
5.081956644e-01,1.15498e-04,9.99999e-01,9.99999e-01,9.99999e-01,1.15498e-04,9.99999e-01
5.107366428e-01,1.38149e-04,9.99999e-01,9.99999e-01,9.99999e-01,1.38149e-04,9.99999e-01
5.132903260e-01,1.64659e-04,9.99999e-01,9.99999e-01,9.99999e-01,1.64659e-04,9.99999e-01
5.158567776e-01,1.95577e-04,9.99999e-01,9.99999e-01,9.99999e-01,1.95577e-04,9.99999e-01
5.184360615e-01,2.31512e-04,9.99999e-01,9.99999e-01,9.99999e-01,2.31512e-04,9.99999e-01
5.210282418e-01,2.73138e-04,9.99999e-01,9.99999e-01,9.99999e-01,2.73138e-04,9.99999e-01
5.236333830e-01,3.21198e-04,9.99999e-01,9.99999e-01,9.99999e-01,3.21198e-04,9.99999e-01
5.262515499e-01,3.76507e-04,9.99999e-01,9.99999e-01,9.99999e-01,3.76507e-04,9.99999e-01
5.288828077e-01,4.39956e-04,9.99999e-01,9.99999e-01,9.99999e-01,4.39956e-04,9.99999e-01
5.315272217e-01,5.12520e-04,9.99999e-01,9.99999e-01,9.99999e-01,5.12520e-04,9.99999e-01
5.341848578e-01,5.95253e-04,9.99999e-01,9.99999e-01,9.99999e-01,5.95253e-04,9.99999e-01
5.368557821e-01,6.89302e-04,9.99999e-01,9.99999e-01,9.99999e-01,6.89302e-04,9.99999e-01
5.395400610e-01,7.95900e-04,9.99999e-01,9.99999e-01,9.99999e-01,7.95900e-04,9.99999e-01
5.422377613e-01,9.16378e-04,9.99999e-01,9.99999e-01,9.99999e-01,9.16378e-04,9.99999e-01
5.449489501e-01,1.05216e-03,9.99999e-01,9.99999e-01,9.99999e-01,1.05216e-03,9.99999e-01
5.476736949e-01,1.20476e-03,9.99999e-01,9.99999e-01,9.99999e-01,1.20476e-03,9.99999e-01
5.504120634e-01,1.37582e-03,9.99999e-01,9.99999e-01,9.99999e-01,1.37582e-03,9.99999e-01
5.531641237e-01,1.56705e-03,9.99999e-01,9.99999e-01,9.99999e-01,1.56705e-03,9.99999e-01
5.559299443e-01,1.78027e-03,9.99999e-01,9.99999e-01,9.99999e-01,1.78027e-03,9.99999e-01
5.587095940e-01,2.01742e-03,9.99999e-01,9.99999e-01,9.99999e-01,2.01742e-03,9.99999e-01
5.615031420e-01,2.28051e-03,9.99999e-01,9.99999e-01,9.99999e-01,2.28051e-03,9.99999e-01
5.643106577e-01,2.57169e-03,9.99999e-01,9.99999e-01,9.99999e-01,2.57169e-03,9.99999e-01
5.671322110e-01,2.89316e-03,9.99999e-01,9.99999e-01,9.99999e-01,2.89316e-03,9.99999e-01
5.699678720e-01,3.24726e-03,9.99999e-01,9.99999e-01,9.99999e-01,3.24726e-03,9.99999e-01
5.728177114e-01,3.63639e-03,9.99999e-01,9.99999e-01,9.99999e-01,3.63639e-03,9.99999e-01
5.756818000e-01,4.06306e-03,9.99999e-01,9.99999e-01,9.99999e-01,4.06306e-03,9.99999e-01
5.785602090e-01,4.52986e-03,9.99999e-01,9.99999e-01,9.99999e-01,4.52986e-03,9.99999e-01
5.814530100e-01,5.03945e-03,9.99999e-01,9.99999e-01,9.99999e-01,5.03945e-03,9.99999e-01
5.843602750e-01,5.59457e-03,9.99999e-01,9.99999e-01,9.99999e-01,5.59457e-03,9.99999e-01
5.872820764e-01,6.19803e-03,9.99999e-01,9.99999e-01,9.99999e-01,6.19803e-03,9.99999e-01
5.902184868e-01,6.85270e-03,9.99999e-01,9.99999e-01,9.99999e-01,6.85270e-03,9.99999e-01
5.931695792e-01,7.56152e-03,9.99999e-01,9.99999e-01,9.99999e-01,7.56152e-03,9.99999e-01
5.961354271e-01,8.32745e-03,9.99999e-01,9.99999e-01,9.99999e-01,8.32745e-03,9.99999e-01
5.991161043e-01,9.15349e-03,9.99999e-01,9.99999e-01,9.99999e-01,9.15349e-03,9.99999e-01
6.021116848e-01,1.00427e-02,9.99999e-01,9.99999e-01,9.99999e-01,1.00427e-02,9.99999e-01
6.051222432e-01,1.09981e-02,9.99999e-01,9.99999e-01,9.99999e-01,1.09981e-02,9.99999e-01
6.081478544e-01,1.20229e-02,9.99999e-01,9.99999e-01,9.99999e-01,1.20229e-02,9.99999e-01
6.111885937e-01,1.31200e-02,9.99999e-01,9.99999e-01,9.99999e-01,1.31200e-02,9.99999e-01
6.142445367e-01,1.42925e-02,9.99999e-01,9.99999e-01,9.99999e-01,1.42925e-02,9.99999e-01
6.173157594e-01,1.55435e-02,9.99999e-01,9.99999e-01,9.99999e-01,1.55435e-02,9.99999e-01
6.204023382e-01,1.68760e-02,9.99999e-01,9.99999e-01,9.99999e-01,1.68760e-02,9.99999e-01
6.235043498e-01,1.82931e-02,9.99999e-01,9.99999e-01,9.99999e-01,1.82931e-02,9.99999e-01
6.266218716e-01,1.97975e-02,9.99999e-01,9.99999e-01,9.99999e-01,1.97975e-02,9.99999e-01
6.297549810e-01,2.13923e-02,9.99999e-01,9.99999e-01,9.99999e-01,2.13923e-02,9.99999e-01
6.329037559e-01,2.30801e-02,9.99999e-01,9.99999e-01,9.99999e-01,2.30801e-02,9.99999e-01
6.360682746e-01,2.48638e-02,9.99999e-01,9.99999e-01,9.99999e-01,2.48638e-02,9.99999e-01
6.392486160e-01,2.67461e-02,9.99999e-01,9.99999e-01,9.99999e-01,2.67461e-02,9.99999e-01
6.424448591e-01,2.87293e-02,9.99999e-01,9.99999e-01,9.99999e-01,2.87293e-02,9.99999e-01
6.456570834e-01,3.08161e-02,9.99999e-01,9.99999e-01,9.99999e-01,3.08161e-02,9.99999e-01
6.488853688e-01,3.30086e-02,9.99999e-01,9.99999e-01,9.99999e-01,3.30086e-02,9.99999e-01
6.521297956e-01,3.53092e-02,9.99999e-01,9.99999e-01,9.99999e-01,3.53092e-02,9.99999e-01
6.553904446e-01,3.77199e-02,9.99999e-01,9.99999e-01,9.99999e-01,3.77199e-02,9.99999e-01
6.586673968e-01,4.02427e-02,9.99999e-01,9.99999e-01,9.99999e-01,4.02427e-02,9.99999e-01
6.619607338e-01,4.28793e-02,9.99999e-01,9.99999e-01,9.99999e-01,4.28793e-02,9.99999e-01
6.652705375e-01,4.56315e-02,9.99999e-01,9.99999e-01,9.99999e-01,4.56315e-02,9.99999e-01
6.685968902e-01,4.85006e-02,9.99999e-01,9.99999e-01,9.99999e-01,4.85006e-02,9.99999e-01
6.719398746e-01,5.14881e-02,9.99999e-01,9.99999e-01,9.99999e-01,5.14881e-02,9.99999e-01
6.752995740e-01,5.45952e-02,9.99999e-01,9.99999e-01,9.99999e-01,5.45952e-02,9.99999e-01
6.786760719e-01,5.78227e-02,9.99999e-01,9.99999e-01,9.99999e-01,5.78227e-02,9.99999e-01
6.820694522e-01,6.11716e-02,9.99999e-01,9.99999e-01,9.99999e-01,6.11716e-02,9.99999e-01
6.854797995e-01,6.46426e-02,9.99999e-01,9.99999e-01,9.99999e-01,6.46426e-02,9.99999e-01
6.889071985e-01,6.82361e-02,9.99999e-01,9.99999e-01,9.99999e-01,6.82361e-02,9.99999e-01
6.923517345e-01,7.19524e-02,9.99999e-01,9.99999e-01,9.99999e-01,7.19524e-02,9.99999e-01
6.958134932e-01,7.57916e-02,9.99999e-01,9.99999e-01,9.99999e-01,7.57916e-02,9.99999e-01
6.992925606e-01,7.97538e-02,9.99999e-01,9.99999e-01,9.99999e-01,7.97538e-02,9.99999e-01
7.027890234e-01,8.38387e-02,9.99999e-01,9.99999e-01,9.99999e-01,8.38387e-02,9.99999e-01
7.063029686e-01,8.80459e-02,9.99999e-01,9.99999e-01,9.99999e-01,8.80459e-02,9.99999e-01
7.098344834e-01,9.23749e-02,9.99999e-01,9.99999e-01,9.99999e-01,9.23749e-02,9.99999e-01
7.133836558e-01,9.68248e-02,9.99999e-01,9.99999e-01,9.99999e-01,9.68248e-02,9.99999e-01
7.169505741e-01,1.01395e-01,9.99999e-01,9.99999e-01,9.99999e-01,1.01395e-01,9.99999e-01
7.205353270e-01,1.06084e-01,9.99999e-01,9.99999e-01,9.99999e-01,1.06084e-01,9.99999e-01
7.241380036e-01,1.10891e-01,9.99999e-01,9.99999e-01,9.99999e-01,1.10891e-01,9.99999e-01
7.277586936e-01,1.15814e-01,9.99999e-01,9.99999e-01,9.99999e-01,1.15814e-01,9.99999e-01
7.313974871e-01,1.20852e-01,9.99999e-01,9.99999e-01,9.99999e-01,1.20852e-01,9.99999e-01
7.350544745e-01,1.26003e-01,9.99999e-01,9.99999e-01,9.99999e-01,1.26003e-01,9.99999e-01
7.387297469e-01,1.31266e-01,9.99999e-01,9.99999e-01,9.99999e-01,1.31266e-01,9.99999e-01
7.424233956e-01,1.36638e-01,9.99999e-01,9.99999e-01,9.99999e-01,1.36638e-01,9.99999e-01
7.461355126e-01,1.42117e-01,9.99999e-01,9.99999e-01,9.99999e-01,1.42117e-01,9.99999e-01
7.498661902e-01,1.47701e-01,9.99999e-01,9.99999e-01,9.99999e-01,1.47701e-01,9.99999e-01
7.536155211e-01,1.53387e-01,9.99999e-01,9.99999e-01,9.99999e-01,1.53387e-01,9.99999e-01
7.573835987e-01,1.59174e-01,9.99999e-01,9.99999e-01,9.99999e-01,1.59174e-01,9.99999e-01
7.611705167e-01,1.65058e-01,9.99999e-01,9.99999e-01,9.99999e-01,1.65058e-01,9.99999e-01
7.649763693e-01,1.71037e-01,9.99999e-01,9.99999e-01,9.99999e-01,1.71037e-01,9.99999e-01
7.688012511e-01,1.77108e-01,9.99999e-01,9.99999e-01,9.99999e-01,1.77108e-01,9.99999e-01
7.726452574e-01,1.83268e-01,9.99999e-01,9.99999e-01,9.99999e-01,1.83268e-01,9.99999e-01
7.765084837e-01,1.89515e-01,9.99999e-01,9.99999e-01,9.99999e-01,1.89515e-01,9.99999e-01
7.803910261e-01,1.82844e-01,9.99999e-01,9.99999e-01,9.33617e-01,1.95845e-01,9.99999e-01
7.842929812e-01,1.45791e-01,9.99999e-01,9.99999e-01,7.20827e-01,2.02255e-01,9.99999e-01
7.882144461e-01,1.47523e-01,9.99999e-01,9.99999e-01,7.06723e-01,2.08741e-01,9.99999e-01
7.921555184e-01,1.74659e-01,9.99999e-01,9.99999e-01,8.11229e-01,2.15302e-01,9.99999e-01
7.961162960e-01,1.92704e-01,9.99999e-01,9.99999e-01,8.68296e-01,2.21933e-01,9.99999e-01
8.000968774e-01,2.11774e-01,9.99999e-01,9.99999e-01,9.26268e-01,2.28631e-01,9.99999e-01
8.040973618e-01,2.26220e-01,9.99999e-01,9.99999e-01,9.61027e-01,2.35393e-01,9.99999e-01
8.081178486e-01,2.37838e-01,9.99999e-01,9.99999e-01,9.81924e-01,2.42216e-01,9.99999e-01
8.121584379e-01,2.47695e-01,9.99999e-01,9.99999e-01,9.94373e-01,2.49096e-01,9.99999e-01
8.162192301e-01,2.55711e-01,9.99999e-01,9.99999e-01,9.98754e-01,2.56029e-01,9.99999e-01
8.203003262e-01,2.63008e-01,9.99999e-01,9.99999e-01,9.99980e-01,2.63013e-01,9.99999e-01
8.244018279e-01,2.70044e-01,9.99999e-01,9.99999e-01,9.99999e-01,2.70044e-01,9.99999e-01
8.285238370e-01,2.77118e-01,9.99999e-01,9.99999e-01,9.99999e-01,2.77118e-01,9.99999e-01
8.326664562e-01,2.84232e-01,9.99999e-01,9.99999e-01,9.99999e-01,2.84232e-01,9.99999e-01
8.368297885e-01,2.91383e-01,9.99999e-01,9.99999e-01,9.99999e-01,2.91383e-01,9.99999e-01
8.410139374e-01,2.98568e-01,9.99999e-01,9.99999e-01,9.99999e-01,2.98568e-01,9.99999e-01
8.452190071e-01,3.05782e-01,9.99999e-01,9.99999e-01,9.99999e-01,3.05782e-01,9.99999e-01
8.494451021e-01,3.13023e-01,9.99999e-01,9.99999e-01,9.99999e-01,3.13023e-01,9.99999e-01
8.536923276e-01,3.20288e-01,9.99999e-01,9.99999e-01,9.99999e-01,3.20288e-01,9.99999e-01
8.579607893e-01,3.27572e-01,9.99999e-01,9.99999e-01,9.99999e-01,3.27572e-01,9.99999e-01
8.622505932e-01,3.34874e-01,9.99999e-01,9.99999e-01,9.99999e-01,3.34874e-01,9.99999e-01
8.665618462e-01,3.03606e-01,9.99999e-01,9.99999e-01,8.87246e-01,3.42189e-01,9.99999e-01
8.708946554e-01,1.55136e-01,9.99999e-01,9.99999e-01,4.43860e-01,3.49514e-01,9.99999e-01
8.752491287e-01,1.82736e-01,9.99999e-01,9.99999e-01,5.12082e-01,3.56848e-01,9.99999e-01
8.796253743e-01,2.50498e-01,9.99999e-01,9.99999e-01,6.87832e-01,3.64185e-01,9.99999e-01
8.840235012e-01,3.05331e-01,9.99999e-01,9.99999e-01,8.21832e-01,3.71524e-01,9.99999e-01
8.884436187e-01,3.50541e-01,9.99999e-01,9.99999e-01,9.25245e-01,3.78862e-01,9.99999e-01
8.928858368e-01,3.74220e-01,9.99999e-01,9.99999e-01,9.68990e-01,3.86195e-01,9.99999e-01
8.973502660e-01,3.90519e-01,9.99999e-01,9.99999e-01,9.92369e-01,3.93522e-01,9.99999e-01
9.018370173e-01,4.00500e-01,9.99999e-01,9.99999e-01,9.99155e-01,4.00838e-01,9.99999e-01
9.063462024e-01,3.99537e-01,9.99999e-01,9.99999e-01,9.78915e-01,4.08142e-01,9.99999e-01
9.108779334e-01,3.95317e-01,9.99999e-01,9.99999e-01,9.51581e-01,4.15431e-01,9.99999e-01
9.154323231e-01,4.17796e-01,9.99999e-01,9.99999e-01,9.88393e-01,4.22702e-01,9.99999e-01
9.200094847e-01,3.67938e-01,9.99999e-01,9.99999e-01,8.55763e-01,4.29953e-01,9.99999e-01
9.246095321e-01,3.43225e-01,9.99999e-01,9.99999e-01,7.85084e-01,4.37182e-01,9.99999e-01
9.292325798e-01,3.68533e-01,9.99999e-01,9.99999e-01,8.29309e-01,4.44385e-01,9.99999e-01
9.338787427e-01,3.76198e-01,9.99999e-01,9.99999e-01,8.33102e-01,4.51562e-01,9.99999e-01
9.385481364e-01,4.00844e-01,9.99999e-01,9.99999e-01,8.73851e-01,4.58709e-01,9.99999e-01
9.432408771e-01,4.28779e-01,9.99999e-01,9.99999e-01,9.20471e-01,4.65825e-01,9.99999e-01
9.479570815e-01,4.53224e-01,9.99999e-01,9.99999e-01,9.58375e-01,4.72908e-01,9.99999e-01
9.526968669e-01,4.70219e-01,9.99999e-01,9.99999e-01,9.79714e-01,4.79955e-01,9.99999e-01
9.574603512e-01,4.82714e-01,9.99999e-01,9.99999e-01,9.91270e-01,4.86965e-01,9.99999e-01
9.622476530e-01,4.92586e-01,9.99999e-01,9.99999e-01,9.97268e-01,4.93935e-01,9.99999e-01
9.670588912e-01,5.00455e-01,9.99999e-01,9.99999e-01,9.99180e-01,5.00865e-01,9.99999e-01
9.718941857e-01,5.07723e-01,9.99999e-01,9.99999e-01,9.99941e-01,5.07753e-01,9.99999e-01
9.767536566e-01,5.14596e-01,9.99999e-01,9.99999e-01,9.99999e-01,5.14596e-01,9.99999e-01
9.816374249e-01,5.21393e-01,9.99999e-01,9.99999e-01,9.99999e-01,5.21393e-01,9.99999e-01
9.865456120e-01,5.28144e-01,9.99999e-01,9.99999e-01,9.99999e-01,5.28144e-01,9.99999e-01
9.914783401e-01,5.34846e-01,9.99999e-01,9.99999e-01,9.99999e-01,5.34846e-01,9.99999e-01
9.964357318e-01,5.41498e-01,9.99999e-01,9.99999e-01,9.99999e-01,5.41498e-01,9.99999e-01
1.001417910e+00,5.48099e-01,9.99999e-01,9.99999e-01,9.99999e-01,5.48099e-01,9.99999e-01
1.006425000e+00,5.54647e-01,9.99999e-01,9.99999e-01,9.99999e-01,5.54647e-01,9.99999e-01
1.011457125e+00,5.61143e-01,9.99999e-01,9.99999e-01,9.99999e-01,5.61143e-01,9.99999e-01
1.016514411e+00,5.67583e-01,9.99999e-01,9.99999e-01,9.99999e-01,5.67583e-01,9.99999e-01
1.021596983e+00,5.73905e-01,9.99999e-01,9.99999e-01,9.99888e-01,5.73969e-01,9.99999e-01
1.026704968e+00,5.75467e-01,9.99999e-01,9.99999e-01,9.91675e-01,5.80298e-01,9.99999e-01
1.031838492e+00,5.42417e-01,9.99999e-01,9.99999e-01,9.24727e-01,5.86569e-01,9.99999e-01
1.036997685e+00,4.29585e-02,9.99999e-01,9.99999e-01,7.24692e-02,5.92783e-01,9.99999e-01
1.042182673e+00,7.93800e-03,9.99999e-01,9.99999e-01,1.32535e-02,5.98937e-01,9.99999e-01
1.047393587e+00,1.62228e-02,9.99999e-01,9.99999e-01,2.68130e-02,6.05032e-01,9.99999e-01
1.052630555e+00,1.58037e-05,9.99999e-01,9.99999e-01,2.58625e-05,6.11067e-01,9.99999e-01
1.057893707e+00,5.65562e-05,9.99999e-01,9.99999e-01,9.16570e-05,6.17041e-01,9.99999e-01
1.063183176e+00,6.12144e-04,9.99999e-01,9.99999e-01,9.82646e-04,6.22954e-01,9.99999e-01
1.068499092e+00,3.90263e-03,9.99999e-01,9.99999e-01,6.20641e-03,6.28805e-01,9.99999e-01
1.073841587e+00,2.46402e-02,9.99999e-01,9.99999e-01,3.88282e-02,6.34594e-01,9.99999e-01
1.079210795e+00,8.24001e-02,9.99999e-01,9.99999e-01,1.28686e-01,6.40320e-01,9.99999e-01
1.084606849e+00,2.04304e-01,9.99999e-01,9.99999e-01,3.16268e-01,6.45983e-01,9.99999e-01
1.090029883e+00,3.57213e-01,9.99999e-01,9.99999e-01,5.48223e-01,6.51583e-01,9.99999e-01
1.095480033e+00,4.88283e-01,9.99999e-01,9.99999e-01,7.43065e-01,6.57119e-01,9.99999e-01
1.100957433e+00,5.74002e-01,9.99999e-01,9.99999e-01,8.66296e-01,6.62592e-01,9.99999e-01
1.106462220e+00,6.29460e-01,9.99999e-01,9.99999e-01,9.42303e-01,6.68001e-01,9.99999e-01
1.111994531e+00,6.58666e-01,9.99999e-01,9.99999e-01,9.78198e-01,6.73346e-01,9.99999e-01
1.117554504e+00,6.74982e-01,9.99999e-01,9.99999e-01,9.94629e-01,6.78627e-01,9.99999e-01
1.123142276e+00,6.83602e-01,9.99999e-01,9.99999e-01,9.99645e-01,6.83843e-01,9.99999e-01
1.128757988e+00,6.88996e-01,9.99999e-01,9.99999e-01,9.99999e-01,6.88996e-01,9.99999e-01
1.134401778e+00,6.94084e-01,9.99999e-01,9.99999e-01,9.99999e-01,6.94084e-01,9.99999e-01
1.140073787e+00,6.99109e-01,9.99999e-01,9.99999e-01,9.99999e-01,6.99109e-01,9.99999e-01
1.145774156e+00,7.04069e-01,9.99999e-01,9.99999e-01,9.99999e-01,7.04069e-01,9.99999e-01
1.151503026e+00,7.08966e-01,9.99999e-01,9.99999e-01,9.99999e-01,7.08966e-01,9.99999e-01
1.157260541e+00,7.13799e-01,9.99999e-01,9.99999e-01,9.99999e-01,7.13799e-01,9.99999e-01
1.163046844e+00,7.18568e-01,9.99999e-01,9.99999e-01,9.99999e-01,7.18568e-01,9.99999e-01
1.168862078e+00,7.23275e-01,9.99999e-01,9.99999e-01,9.99999e-01,7.23275e-01,9.99999e-01
1.174706389e+00,7.27918e-01,9.99999e-01,9.99999e-01,9.99999e-01,7.27918e-01,9.99999e-01
1.180579921e+00,7.32498e-01,9.99999e-01,9.99999e-01,9.99999e-01,7.32498e-01,9.99999e-01
1.186482820e+00,7.37005e-01,9.99999e-01,9.99999e-01,9.99985e-01,7.37016e-01,9.99999e-01
1.192415234e+00,7.20108e-01,9.99999e-01,9.99999e-01,9.71187e-01,7.41472e-01,9.99999e-01
1.198377311e+00,3.98943e-01,9.99999e-01,9.99999e-01,5.34873e-01,7.45865e-01,9.99999e-01
1.204369197e+00,2.21695e-22,9.99999e-01,9.99999e-01,2.95516e-22,7.50198e-01,9.99999e-01
1.210391043e+00,9.78582e-89,9.99999e-01,9.99999e-01,1.29705e-88,7.54469e-01,9.99999e-01
1.216442998e+00,7.18190e-77,9.99999e-01,9.99999e-01,9.46632e-77,7.58679e-01,9.99999e-01
1.222525213e+00,1.00166e-75,9.99999e-01,9.99999e-01,1.31309e-75,7.62829e-01,9.99999e-01
1.228637839e+00,1.61147e-58,9.99999e-01,9.99999e-01,2.10123e-58,7.66919e-01,9.99999e-01
