#,Wave/freq,Total,N2,O2,CO2,Rayleigh,CIA
4.000000000e-01,4.93418e-03,9.99999e-01,9.99999e-01,9.99999e-01,4.93418e-03,9.99999e-01
4.020000000e-01,5.48059e-03,9.99999e-01,9.99999e-01,9.99999e-01,5.48059e-03,9.99999e-01
4.040100000e-01,6.07422e-03,9.99999e-01,9.99999e-01,9.99999e-01,6.07422e-03,9.99999e-01
4.060300500e-01,6.71850e-03,9.99999e-01,9.99999e-01,9.99999e-01,6.71850e-03,9.99999e-01
4.080602003e-01,7.41633e-03,9.99999e-01,9.99999e-01,9.99999e-01,7.41633e-03,9.99999e-01
4.101005013e-01,8.17068e-03,9.99999e-01,9.99999e-01,9.99999e-01,8.17068e-03,9.99999e-01
4.121510038e-01,8.98455e-03,9.99999e-01,9.99999e-01,9.99999e-01,8.98455e-03,9.99999e-01
4.142117588e-01,9.86097e-03,9.99999e-01,9.99999e-01,9.99999e-01,9.86097e-03,9.99999e-01
4.162828176e-01,1.08030e-02,9.99999e-01,9.99999e-01,9.99999e-01,1.08030e-02,9.99999e-01
4.183642317e-01,1.18137e-02,9.99999e-01,9.99999e-01,9.99999e-01,1.18137e-02,9.99999e-01
4.204560528e-01,1.28962e-02,9.99999e-01,9.99999e-01,9.99999e-01,1.28962e-02,9.99999e-01
4.225583331e-01,1.40535e-02,9.99999e-01,9.99999e-01,9.99999e-01,1.40535e-02,9.99999e-01
4.246711247e-01,1.52887e-02,9.99999e-01,9.99999e-01,9.99999e-01,1.52887e-02,9.99999e-01
4.267944804e-01,1.66048e-02,9.99999e-01,9.99999e-01,9.99999e-01,1.66048e-02,9.99999e-01
4.289284528e-01,1.80048e-02,9.99999e-01,9.99999e-01,9.99999e-01,1.80048e-02,9.99999e-01
4.310730950e-01,1.94917e-02,9.99999e-01,9.99999e-01,9.99999e-01,1.94917e-02,9.99999e-01
4.332284605e-01,2.10683e-02,9.99999e-01,9.99999e-01,9.99999e-01,2.10683e-02,9.99999e-01
4.353946028e-01,2.27374e-02,9.99999e-01,9.99999e-01,9.99999e-01,2.27374e-02,9.99999e-01
4.375715758e-01,2.45019e-02,9.99999e-01,9.99999e-01,9.99999e-01,2.45019e-02,9.99999e-01
4.397594337e-01,2.63644e-02,9.99999e-01,9.99999e-01,9.99999e-01,2.63644e-02,9.99999e-01
4.419582309e-01,2.83274e-02,9.99999e-01,9.99999e-01,9.99999e-01,2.83274e-02,9.99999e-01
4.441680220e-01,3.03934e-02,9.99999e-01,9.99999e-01,9.99999e-01,3.03934e-02,9.99999e-01
4.463888621e-01,3.25648e-02,9.99999e-01,9.99999e-01,9.99999e-01,3.25648e-02,9.99999e-01
4.486208064e-01,3.48437e-02,9.99999e-01,9.99999e-01,9.99999e-01,3.48437e-02,9.99999e-01
4.508639105e-01,3.72324e-02,9.99999e-01,9.99999e-01,9.99999e-01,3.72324e-02,9.99999e-01
4.531182300e-01,3.97328e-02,9.99999e-01,9.99999e-01,9.99999e-01,3.97328e-02,9.99999e-01
4.553838212e-01,4.23467e-02,9.99999e-01,9.99999e-01,9.99999e-01,4.23467e-02,9.99999e-01
4.576607403e-01,4.50758e-02,9.99999e-01,9.99999e-01,9.99999e-01,4.50758e-02,9.99999e-01
4.599490440e-01,4.79216e-02,9.99999e-01,9.99999e-01,9.99999e-01,4.79216e-02,9.99999e-01
4.622487892e-01,5.08855e-02,9.99999e-01,9.99999e-01,9.99999e-01,5.08855e-02,9.99999e-01
4.645600332e-01,5.39687e-02,9.99999e-01,9.99999e-01,9.99999e-01,5.39687e-02,9.99999e-01
4.668828333e-01,5.71722e-02,9.99999e-01,9.99999e-01,9.99999e-01,5.71722e-02,9.99999e-01
4.692172475e-01,6.04970e-02,9.99999e-01,9.99999e-01,9.99999e-01,6.04970e-02,9.99999e-01
4.715633337e-01,6.39437e-02,9.99999e-01,9.99999e-01,9.99999e-01,6.39437e-02,9.99999e-01
4.739211504e-01,6.75128e-02,9.99999e-01,9.99999e-01,9.99999e-01,6.75128e-02,9.99999e-01
4.762907561e-01,7.12047e-02,9.99999e-01,9.99999e-01,9.99999e-01,7.12047e-02,9.99999e-01
4.786722099e-01,7.50195e-02,9.99999e-01,9.99999e-01,9.99999e-01,7.50195e-02,9.99999e-01
4.810655710e-01,7.89573e-02,9.99999e-01,9.99999e-01,9.99999e-01,7.89573e-02,9.99999e-01
4.834708988e-01,8.30179e-02,9.99999e-01,9.99999e-01,9.99999e-01,8.30179e-02,9.99999e-01
4.858882533e-01,8.72008e-02,9.99999e-01,9.99999e-01,9.99999e-01,8.72008e-02,9.99999e-01
4.883176946e-01,9.15057e-02,9.99999e-01,9.99999e-01,9.99999e-01,9.15057e-02,9.99999e-01
4.907592831e-01,9.59317e-02,9.99999e-01,9.99999e-01,9.99999e-01,9.59317e-02,9.99999e-01
4.932130795e-01,1.00478e-01,9.99999e-01,9.99999e-01,9.99999e-01,1.00478e-01,9.99999e-01
4.956791449e-01,1.05143e-01,9.99999e-01,9.99999e-01,9.99999e-01,1.05143e-01,9.99999e-01
4.981575406e-01,1.09927e-01,9.99999e-01,9.99999e-01,9.99999e-01,1.09927e-01,9.99999e-01
5.006483283e-01,1.14827e-01,9.99999e-01,9.99999e-01,9.99999e-01,1.14827e-01,9.99999e-01
5.031515699e-01,1.19843e-01,9.99999e-01,9.99999e-01,9.99999e-01,1.19843e-01,9.99999e-01
5.056673278e-01,1.24972e-01,9.99999e-01,9.99999e-01,9.99999e-01,1.24972e-01,9.99999e-01
5.081956644e-01,1.30212e-01,9.99999e-01,9.99999e-01,9.99999e-01,1.30212e-01,9.99999e-01
5.107366428e-01,1.35562e-01,9.99999e-01,9.99999e-01,9.99999e-01,1.35562e-01,9.99999e-01
5.132903260e-01,1.41020e-01,9.99999e-01,9.99999e-01,9.99999e-01,1.41020e-01,9.99999e-01
5.158567776e-01,1.46584e-01,9.99999e-01,9.99999e-01,9.99999e-01,1.46584e-01,9.99999e-01
5.184360615e-01,1.52250e-01,9.99999e-01,9.99999e-01,9.99999e-01,1.52250e-01,9.99999e-01
5.210282418e-01,1.58017e-01,9.99999e-01,9.99999e-01,9.99999e-01,1.58017e-01,9.99999e-01
5.236333830e-01,1.63882e-01,9.99999e-01,9.99999e-01,9.99999e-01,1.63882e-01,9.99999e-01
5.262515499e-01,1.69842e-01,9.99999e-01,9.99999e-01,9.99999e-01,1.69842e-01,9.99999e-01
5.288828077e-01,1.75896e-01,9.99999e-01,9.99999e-01,9.99999e-01,1.75896e-01,9.99999e-01
5.315272217e-01,1.82038e-01,9.99999e-01,9.99999e-01,9.99999e-01,1.82038e-01,9.99999e-01
5.341848578e-01,1.88268e-01,9.99999e-01,9.99999e-01,9.99999e-01,1.88268e-01,9.99999e-01
5.368557821e-01,1.94581e-01,9.99999e-01,9.99999e-01,9.99999e-01,1.94581e-01,9.99999e-01
5.395400610e-01,2.00976e-01,9.99999e-01,9.99999e-01,9.99999e-01,2.00976e-01,9.99999e-01
5.422377613e-01,2.07447e-01,9.99999e-01,9.99999e-01,9.99999e-01,2.07447e-01,9.99999e-01
5.449489501e-01,2.13994e-01,9.99999e-01,9.99999e-01,9.99999e-01,2.13994e-01,9.99999e-01
5.476736949e-01,2.20611e-01,9.99999e-01,9.99999e-01,9.99999e-01,2.20611e-01,9.99999e-01
5.504120634e-01,2.27296e-01,9.99999e-01,9.99999e-01,9.99999e-01,2.27296e-01,9.99999e-01
5.531641237e-01,2.34046e-01,9.99999e-01,9.99999e-01,9.99999e-01,2.34046e-01,9.99999e-01
5.559299443e-01,2.40857e-01,9.99999e-01,9.99999e-01,9.99999e-01,2.40857e-01,9.99999e-01
5.587095940e-01,2.47725e-01,9.99999e-01,9.99999e-01,9.99999e-01,2.47725e-01,9.99999e-01
5.615031420e-01,2.54649e-01,9.99999e-01,9.99999e-01,9.99999e-01,2.54649e-01,9.99999e-01
5.643106577e-01,2.61623e-01,9.99999e-01,9.99999e-01,9.99999e-01,2.61623e-01,9.99999e-01
5.671322110e-01,2.68644e-01,9.99999e-01,9.99999e-01,9.99999e-01,2.68644e-01,9.99999e-01
5.699678720e-01,2.75710e-01,9.99999e-01,9.99999e-01,9.99999e-01,2.75710e-01,9.99999e-01
5.728177114e-01,2.82817e-01,9.99999e-01,9.99999e-01,9.99999e-01,2.82817e-01,9.99999e-01
5.756818000e-01,2.89961e-01,9.99999e-01,9.99999e-01,9.99999e-01,2.89961e-01,9.99999e-01
5.785602090e-01,2.97139e-01,9.99999e-01,9.99999e-01,9.99999e-01,2.97139e-01,9.99999e-01
5.814530100e-01,3.04348e-01,9.99999e-01,9.99999e-01,9.99999e-01,3.04348e-01,9.99999e-01
5.843602750e-01,3.11584e-01,9.99999e-01,9.99999e-01,9.99999e-01,3.11584e-01,9.99999e-01
5.872820764e-01,3.18844e-01,9.99999e-01,9.99999e-01,9.99999e-01,3.18844e-01,9.99999e-01
5.902184868e-01,3.26124e-01,9.99999e-01,9.99999e-01,9.99999e-01,3.26124e-01,9.99999e-01
5.931695792e-01,3.33423e-01,9.99999e-01,9.99999e-01,9.99999e-01,3.33423e-01,9.99999e-01
5.961354271e-01,3.40735e-01,9.99999e-01,9.99999e-01,9.99999e-01,3.40735e-01,9.99999e-01
5.991161043e-01,3.48059e-01,9.99999e-01,9.99999e-01,9.99999e-01,3.48059e-01,9.99999e-01
6.021116848e-01,3.55391e-01,9.99999e-01,9.99999e-01,9.99999e-01,3.55391e-01,9.99999e-01
6.051222432e-01,3.62728e-01,9.99999e-01,9.99999e-01,9.99999e-01,3.62728e-01,9.99999e-01
6.081478544e-01,3.70067e-01,9.99999e-01,9.99999e-01,9.99999e-01,3.70067e-01,9.99999e-01
6.111885937e-01,3.77405e-01,9.99999e-01,9.99999e-01,9.99999e-01,3.77405e-01,9.99999e-01
6.142445367e-01,3.84740e-01,9.99999e-01,9.99999e-01,9.99999e-01,3.84740e-01,9.99999e-01
6.173157594e-01,3.92068e-01,9.99999e-01,9.99999e-01,9.99999e-01,3.92068e-01,9.99999e-01
6.204023382e-01,3.99386e-01,9.99999e-01,9.99999e-01,9.99999e-01,3.99386e-01,9.99999e-01
6.235043498e-01,4.06693e-01,9.99999e-01,9.99999e-01,9.99999e-01,4.06693e-01,9.99999e-01
6.266218716e-01,4.13985e-01,9.99999e-01,9.99999e-01,9.99999e-01,4.13985e-01,9.99999e-01
6.297549810e-01,4.21260e-01,9.99999e-01,9.99999e-01,9.99999e-01,4.21260e-01,9.99999e-01
6.329037559e-01,4.28515e-01,9.99999e-01,9.99999e-01,9.99999e-01,4.28515e-01,9.99999e-01
6.360682746e-01,4.35748e-01,9.99999e-01,9.99999e-01,9.99999e-01,4.35748e-01,9.99999e-01
6.392486160e-01,4.42957e-01,9.99999e-01,9.99999e-01,9.99999e-01,4.42957e-01,9.99999e-01
6.424448591e-01,4.50139e-01,9.99999e-01,9.99999e-01,9.99999e-01,4.50139e-01,9.99999e-01
6.456570834e-01,4.57293e-01,9.99999e-01,9.99999e-01,9.99999e-01,4.57293e-01,9.99999e-01
6.488853688e-01,4.64415e-01,9.99999e-01,9.99999e-01,9.99999e-01,4.64415e-01,9.99999e-01
6.521297956e-01,4.71504e-01,9.99999e-01,9.99999e-01,9.99999e-01,4.71504e-01,9.99999e-01
6.553904446e-01,4.78559e-01,9.99999e-01,9.99999e-01,9.99999e-01,4.78559e-01,9.99999e-01
6.586673968e-01,4.85576e-01,9.99999e-01,9.99999e-01,9.99999e-01,4.85576e-01,9.99999e-01
6.619607338e-01,4.92555e-01,9.99999e-01,9.99999e-01,9.99999e-01,4.92555e-01,9.99999e-01
6.652705375e-01,4.99493e-01,9.99999e-01,9.99999e-01,9.99999e-01,4.99493e-01,9.99999e-01
6.685968902e-01,5.06389e-01,9.99999e-01,9.99999e-01,9.99999e-01,5.06389e-01,9.99999e-01
6.719398746e-01,5.13241e-01,9.99999e-01,9.99999e-01,9.99999e-01,5.13241e-01,9.99999e-01
6.752995740e-01,5.20047e-01,9.99999e-01,9.99999e-01,9.99999e-01,5.20047e-01,9.99999e-01
6.786760719e-01,5.26807e-01,9.99999e-01,9.99999e-01,9.99999e-01,5.26807e-01,9.99999e-01
6.820694522e-01,5.33519e-01,9.99999e-01,9.99999e-01,9.99999e-01,5.33519e-01,9.99999e-01
6.854797995e-01,5.40181e-01,9.99999e-01,9.99999e-01,9.99999e-01,5.40181e-01,9.99999e-01
6.889071985e-01,5.46792e-01,9.99999e-01,9.99999e-01,9.99999e-01,5.46792e-01,9.99999e-01
6.923517345e-01,5.53351e-01,9.99999e-01,9.99999e-01,9.99999e-01,5.53351e-01,9.99999e-01
6.958134932e-01,5.59857e-01,9.99999e-01,9.99999e-01,9.99999e-01,5.59857e-01,9.99999e-01
6.992925606e-01,5.66309e-01,9.99999e-01,9.99999e-01,9.99999e-01,5.66309e-01,9.99999e-01
7.027890234e-01,5.72705e-01,9.99999e-01,9.99999e-01,9.99999e-01,5.72705e-01,9.99999e-01
7.063029686e-01,5.79045e-01,9.99999e-01,9.99999e-01,9.99999e-01,5.79045e-01,9.99999e-01
7.098344834e-01,5.85328e-01,9.99999e-01,9.99999e-01,9.99999e-01,5.85328e-01,9.99999e-01
7.133836558e-01,5.91554e-01,9.99999e-01,9.99999e-01,9.99999e-01,5.91554e-01,9.99999e-01
7.169505741e-01,5.97720e-01,9.99999e-01,9.99999e-01,9.99999e-01,5.97720e-01,9.99999e-01
7.205353270e-01,6.03827e-01,9.99999e-01,9.99999e-01,9.99999e-01,6.03827e-01,9.99999e-01
7.241380036e-01,6.09874e-01,9.99999e-01,9.99999e-01,9.99999e-01,6.09874e-01,9.99999e-01
7.277586936e-01,6.15860e-01,9.99999e-01,9.99999e-01,9.99999e-01,6.15860e-01,9.99999e-01
7.313974871e-01,6.21785e-01,9.99999e-01,9.99999e-01,9.99999e-01,6.21785e-01,9.99999e-01
7.350544745e-01,6.27648e-01,9.99999e-01,9.99999e-01,9.99999e-01,6.27648e-01,9.99999e-01
7.387297469e-01,6.33449e-01,9.99999e-01,9.99999e-01,9.99999e-01,6.33449e-01,9.99999e-01
7.424233956e-01,6.39188e-01,9.99999e-01,9.99999e-01,9.99999e-01,6.39188e-01,9.99999e-01
7.461355126e-01,6.44864e-01,9.99999e-01,9.99999e-01,9.99999e-01,6.44864e-01,9.99999e-01
7.498661902e-01,6.50476e-01,9.99999e-01,9.99999e-01,9.99999e-01,6.50476e-01,9.99999e-01
7.536155211e-01,6.56025e-01,9.99999e-01,9.99999e-01,9.99999e-01,6.56025e-01,9.99999e-01
7.573835987e-01,6.61511e-01,9.99999e-01,9.99999e-01,9.99999e-01,6.61511e-01,9.99999e-01
7.611705167e-01,6.66932e-01,9.99999e-01,9.99999e-01,9.99999e-01,6.66932e-01,9.99999e-01
7.649763693e-01,6.72290e-01,9.99999e-01,9.99999e-01,9.99999e-01,6.72290e-01,9.99999e-01
7.688012511e-01,6.77583e-01,9.99999e-01,9.99999e-01,9.99999e-01,6.77583e-01,9.99999e-01
7.726452574e-01,6.82813e-01,9.99999e-01,9.99999e-01,9.99999e-01,6.82813e-01,9.99999e-01
7.765084837e-01,6.87978e-01,9.99999e-01,9.99999e-01,9.99999e-01,6.87978e-01,9.99999e-01
7.803910261e-01,6.80755e-01,9.99999e-01,9.99999e-01,9.82217e-01,6.93079e-01,9.99999e-01
7.842929812e-01,6.46070e-01,9.99999e-01,9.99999e-01,9.25446e-01,6.98116e-01,9.99999e-01
7.882144461e-01,6.46999e-01,9.99999e-01,9.99999e-01,9.20222e-01,7.03089e-01,9.99999e-01
7.921555184e-01,6.74988e-01,9.99999e-01,9.99999e-01,9.53374e-01,7.07999e-01,9.99999e-01
7.961162960e-01,6.90450e-01,9.99999e-01,9.99999e-01,9.68583e-01,7.12844e-01,9.99999e-01
8.000968774e-01,7.05330e-01,9.99999e-01,9.99999e-01,9.82864e-01,7.17626e-01,9.99999e-01
8.040973618e-01,7.15906e-01,9.99999e-01,9.99999e-01,9.91084e-01,7.22345e-01,9.99999e-01
8.081178486e-01,7.24023e-01,9.99999e-01,9.99999e-01,9.95903e-01,7.27001e-01,9.99999e-01
8.121584379e-01,7.30665e-01,9.99999e-01,9.99999e-01,9.98730e-01,7.31594e-01,9.99999e-01
8.162192301e-01,7.35918e-01,9.99999e-01,9.99999e-01,9.99719e-01,7.36124e-01,9.99999e-01
8.203003262e-01,7.40589e-01,9.99999e-01,9.99999e-01,9.99995e-01,7.40592e-01,9.99999e-01
8.244018279e-01,7.44998e-01,9.99999e-01,9.99999e-01,9.99999e-01,7.44998e-01,9.99999e-01
8.285238370e-01,7.49342e-01,9.99999e-01,9.99999e-01,9.99999e-01,7.49342e-01,9.99999e-01
8.326664562e-01,7.53626e-01,9.99999e-01,9.99999e-01,9.99999e-01,7.53626e-01,9.99999e-01
8.368297885e-01,7.57848e-01,9.99999e-01,9.99999e-01,9.99999e-01,7.57848e-01,9.99999e-01
8.410139374e-01,7.62010e-01,9.99999e-01,9.99999e-01,9.99999e-01,7.62010e-01,9.99999e-01
8.452190071e-01,7.66112e-01,9.99999e-01,9.99999e-01,9.99999e-01,7.66112e-01,9.99999e-01
8.494451021e-01,7.70154e-01,9.99999e-01,9.99999e-01,9.99999e-01,7.70154e-01,9.99999e-01
8.536923276e-01,7.74137e-01,9.99999e-01,9.99999e-01,9.99999e-01,7.74137e-01,9.99999e-01
8.579607893e-01,7.78062e-01,9.99999e-01,9.99999e-01,9.99999e-01,7.78062e-01,9.99999e-01
8.622505932e-01,7.81928e-01,9.99999e-01,9.99999e-01,9.99999e-01,7.81928e-01,9.99999e-01
8.665618462e-01,7.48974e-01,9.99999e-01,9.99999e-01,9.53211e-01,7.85737e-01,9.99999e-01
8.708946554e-01,6.46685e-01,9.99999e-01,9.99999e-01,8.19118e-01,7.89488e-01,9.99999e-01
8.752491287e-01,6.76684e-01,9.99999e-01,9.99999e-01,8.53124e-01,7.93183e-01,9.99999e-01
8.796253743e-01,7.30885e-01,9.99999e-01,9.99999e-01,9.17250e-01,7.96821e-01,9.99999e-01
8.840235012e-01,7.65525e-01,9.99999e-01,9.99999e-01,9.56422e-01,8.00404e-01,9.99999e-01
8.884436187e-01,7.89955e-01,9.99999e-01,9.99999e-01,9.82613e-01,8.03932e-01,9.99999e-01
8.928858368e-01,8.01698e-01,9.99999e-01,9.99999e-01,9.92931e-01,8.07405e-01,9.99999e-01
8.973502660e-01,8.09427e-01,9.99999e-01,9.99999e-01,9.98277e-01,8.10824e-01,9.99999e-01
9.018370173e-01,8.14035e-01,9.99999e-01,9.99999e-01,9.99809e-01,8.14189e-01,9.99999e-01
9.063462024e-01,8.13529e-01,9.99999e-01,9.99999e-01,9.95139e-01,8.17502e-01,9.99999e-01
9.108779334e-01,8.11623e-01,9.99999e-01,9.99999e-01,9.88864e-01,8.20762e-01,9.99999e-01
9.154323231e-01,8.21806e-01,9.99999e-01,9.99999e-01,9.97371e-01,8.23971e-01,9.99999e-01
9.200094847e-01,7.95184e-01,9.99999e-01,9.99999e-01,9.61379e-01,8.27128e-01,9.99999e-01
9.246095321e-01,7.85892e-01,9.99999e-01,9.99999e-01,9.46589e-01,8.30235e-01,9.99999e-01
9.292325798e-01,7.98118e-01,9.99999e-01,9.99999e-01,9.57789e-01,8.33291e-01,9.99999e-01
9.338787427e-01,8.02185e-01,9.99999e-01,9.99999e-01,9.59208e-01,8.36298e-01,9.99999e-01
9.385481364e-01,8.14024e-01,9.99999e-01,9.99999e-01,9.69934e-01,8.39257e-01,9.99999e-01
9.432408771e-01,8.26589e-01,9.99999e-01,9.99999e-01,9.81502e-01,8.42167e-01,9.99999e-01
9.479570815e-01,8.36981e-01,9.99999e-01,9.99999e-01,9.90475e-01,8.45029e-01,9.99999e-01
9.526968669e-01,8.43940e-01,9.99999e-01,9.99999e-01,9.95394e-01,8.47844e-01,9.99999e-01
9.574603512e-01,8.48937e-01,9.99999e-01,9.99999e-01,9.98028e-01,8.50613e-01,9.99999e-01
9.622476530e-01,8.52811e-01,9.99999e-01,9.99999e-01,9.99384e-01,8.53336e-01,9.99999e-01
9.670588912e-01,8.55856e-01,9.99999e-01,9.99999e-01,9.99815e-01,8.56013e-01,9.99999e-01
9.718941857e-01,8.58635e-01,9.99999e-01,9.99999e-01,9.99986e-01,8.58646e-01,9.99999e-01
9.767536566e-01,8.61235e-01,9.99999e-01,9.99999e-01,9.99999e-01,8.61235e-01,9.99999e-01
9.816374249e-01,8.63780e-01,9.99999e-01,9.99999e-01,9.99999e-01,8.63780e-01,9.99999e-01
9.865456120e-01,8.66282e-01,9.99999e-01,9.99999e-01,9.99999e-01,8.66282e-01,9.99999e-01
9.914783401e-01,8.68742e-01,9.99999e-01,9.99999e-01,9.99999e-01,8.68742e-01,9.99999e-01
9.964357318e-01,8.71159e-01,9.99999e-01,9.99999e-01,9.99999e-01,8.71159e-01,9.99999e-01
1.001417910e+00,8.73536e-01,9.99999e-01,9.99999e-01,9.99999e-01,8.73536e-01,9.99999e-01
1.006425000e+00,8.75872e-01,9.99999e-01,9.99999e-01,9.99999e-01,8.75872e-01,9.99999e-01
1.011457125e+00,8.78168e-01,9.99999e-01,9.99999e-01,9.99999e-01,8.78168e-01,9.99999e-01
1.016514411e+00,8.80424e-01,9.99999e-01,9.99999e-01,9.99999e-01,8.80424e-01,9.99999e-01
1.021596983e+00,8.82620e-01,9.99999e-01,9.99999e-01,9.99974e-01,8.82642e-01,9.99999e-01
1.026704968e+00,8.83150e-01,9.99999e-01,9.99999e-01,9.98111e-01,8.84821e-01,9.99999e-01
1.031838492e+00,8.62952e-01,9.99999e-01,9.99999e-01,9.72928e-01,8.86962e-01,9.99999e-01
1.036997685e+00,2.47321e-01,9.99999e-01,9.99999e-01,2.78180e-01,8.89066e-01,9.99999e-01
1.042182673e+00,2.91161e-01,9.99999e-01,9.99999e-01,3.26730e-01,8.91134e-01,9.99999e-01
1.047393587e+00,2.73956e-01,9.99999e-01,9.99999e-01,3.06725e-01,8.93165e-01,9.99999e-01
1.052630555e+00,3.82298e-02,9.99999e-01,9.99999e-01,4.27071e-02,8.95160e-01,9.99999e-01
1.057893707e+00,7.29708e-02,9.99999e-01,9.99999e-01,8.13388e-02,8.97121e-01,9.99999e-01
1.063183176e+00,1.45804e-01,9.99999e-01,9.99999e-01,1.62176e-01,8.99047e-01,9.99999e-01
1.068499092e+00,2.67028e-01,9.99999e-01,9.99999e-01,2.96388e-01,9.00938e-01,9.99999e-01
1.073841587e+00,4.19150e-01,9.99999e-01,9.99999e-01,4.64279e-01,9.02797e-01,9.99999e-01
1.079210795e+00,5.57569e-01,9.99999e-01,9.99999e-01,6.16355e-01,9.04622e-01,9.99999e-01
1.084606849e+00,6.95921e-01,9.99999e-01,9.99999e-01,7.67772e-01,9.06415e-01,9.99999e-01
1.090029883e+00,7.92082e-01,9.99999e-01,9.99999e-01,8.72167e-01,9.08176e-01,9.99999e-01
1.095480033e+00,8.50647e-01,9.99999e-01,9.99999e-01,9.34874e-01,9.09905e-01,9.99999e-01
1.100957433e+00,8.82547e-01,9.99999e-01,9.99999e-01,9.68124e-01,9.11604e-01,9.99999e-01
1.106462220e+00,9.01122e-01,9.99999e-01,9.99999e-01,9.86696e-01,9.13272e-01,9.99999e-01
1.111994531e+00,9.10382e-01,9.99999e-01,9.99999e-01,9.95050e-01,9.14910e-01,9.99999e-01
1.117554504e+00,9.15408e-01,9.99999e-01,9.99999e-01,9.98788e-01,9.16518e-01,9.99999e-01
1.123142276e+00,9.18025e-01,9.99999e-01,9.99999e-01,9.99919e-01,9.18098e-01,9.99999e-01
1.128757988e+00,9.19649e-01,9.99999e-01,9.99999e-01,9.99999e-01,9.19649e-01,9.99999e-01
1.134401778e+00,9.21171e-01,9.99999e-01,9.99999e-01,9.99999e-01,9.21171e-01,9.99999e-01
1.140073787e+00,9.22667e-01,9.99999e-01,9.99999e-01,9.99999e-01,9.22667e-01,9.99999e-01
1.145774156e+00,9.24135e-01,9.99999e-01,9.99999e-01,9.99999e-01,9.24135e-01,9.99999e-01
1.151503026e+00,9.25576e-01,9.99999e-01,9.99999e-01,9.99999e-01,9.25576e-01,9.99999e-01
1.157260541e+00,9.26991e-01,9.99999e-01,9.99999e-01,9.99999e-01,9.26991e-01,9.99999e-01
1.163046844e+00,9.28380e-01,9.99999e-01,9.99999e-01,9.99999e-01,9.28380e-01,9.99999e-01
1.168862078e+00,9.29744e-01,9.99999e-01,9.99999e-01,9.99999e-01,9.29744e-01,9.99999e-01
1.174706389e+00,9.31083e-01,9.99999e-01,9.99999e-01,9.99999e-01,9.31083e-01,9.99999e-01
1.180579921e+00,9.32397e-01,9.99999e-01,9.99999e-01,9.99999e-01,9.32397e-01,9.99999e-01
1.186482820e+00,9.33684e-01,9.99999e-01,9.99999e-01,9.99996e-01,9.33687e-01,9.99999e-01
1.192415234e+00,9.28618e-01,9.99999e-01,9.99999e-01,9.93223e-01,9.34953e-01,9.99999e-01
1.198377311e+00,5.46829e-01,9.99999e-01,9.99999e-01,5.84096e-01,9.36196e-01,9.99999e-01
1.204369197e+00,8.94156e-07,9.99999e-01,9.99999e-01,9.53851e-07,9.37416e-01,9.99999e-01
1.210391043e+00,1.06893e-21,9.99999e-01,9.99999e-01,1.13884e-21,9.38613e-01,9.99999e-01
1.216442998e+00,5.02195e-19,9.99999e-01,9.99999e-01,5.34370e-19,9.39789e-01,9.99999e-01
1.222525213e+00,9.41300e-19,9.99999e-01,9.99999e-01,1.00038e-18,9.40942e-01,9.99999e-01
1.228637839e+00,1.95782e-14,9.99999e-01,9.99999e-01,2.07820e-14,9.42074e-01,9.99999e-01
