#,Wave/freq,Total,N2,O2,CO2,Rayleigh,CIA
4.000000000e-01,8.85109e-08,9.99999e-01,9.99999e-01,9.99999e-01,8.85109e-08,9.99999e-01
4.020000000e-01,1.22027e-07,9.99999e-01,9.99999e-01,9.99999e-01,1.22027e-07,9.99999e-01
4.040100000e-01,1.67115e-07,9.99999e-01,9.99999e-01,9.99999e-01,1.67115e-07,9.99999e-01
4.060300500e-01,2.27445e-07,9.99999e-01,9.99999e-01,9.99999e-01,2.27445e-07,9.99999e-01
4.080602003e-01,3.07677e-07,9.99999e-01,9.99999e-01,9.99999e-01,3.07677e-07,9.99999e-01
4.101005013e-01,4.13734e-07,9.99999e-01,9.99999e-01,9.99999e-01,4.13734e-07,9.99999e-01
4.121510038e-01,5.53104e-07,9.99999e-01,9.99999e-01,9.99999e-01,5.53104e-07,9.99999e-01
4.142117588e-01,7.35194e-07,9.99999e-01,9.99999e-01,9.99999e-01,7.35194e-07,9.99999e-01
4.162828176e-01,9.71753e-07,9.99999e-01,9.99999e-01,9.99999e-01,9.71753e-07,9.99999e-01
4.183642317e-01,1.27737e-06,9.99999e-01,9.99999e-01,9.99999e-01,1.27737e-06,9.99999e-01
4.204560528e-01,1.67006e-06,9.99999e-01,9.99999e-01,9.99999e-01,1.67006e-06,9.99999e-01
4.225583331e-01,2.17193e-06,9.99999e-01,9.99999e-01,9.99999e-01,2.17193e-06,9.99999e-01
4.246711247e-01,2.81001e-06,9.99999e-01,9.99999e-01,9.99999e-01,2.81001e-06,9.99999e-01
4.267944804e-01,3.61709e-06,9.99999e-01,9.99999e-01,9.99999e-01,3.61709e-06,9.99999e-01
4.289284528e-01,4.63282e-06,9.99999e-01,9.99999e-01,9.99999e-01,4.63282e-06,9.99999e-01
4.310730950e-01,5.90484e-06,9.99999e-01,9.99999e-01,9.99999e-01,5.90484e-06,9.99999e-01
4.332284605e-01,7.49014e-06,9.99999e-01,9.99999e-01,9.99999e-01,7.49014e-06,9.99999e-01
4.353946028e-01,9.45652e-06,9.99999e-01,9.99999e-01,9.99999e-01,9.45652e-06,9.99999e-01
4.375715758e-01,1.18843e-05,9.99999e-01,9.99999e-01,9.99999e-01,1.18843e-05,9.99999e-01
4.397594337e-01,1.48681e-05,9.99999e-01,9.99999e-01,9.99999e-01,1.48681e-05,9.99999e-01
4.419582309e-01,1.85189e-05,9.99999e-01,9.99999e-01,9.99999e-01,1.85189e-05,9.99999e-01
4.441680220e-01,2.29663e-05,9.99999e-01,9.99999e-01,9.99999e-01,2.29663e-05,9.99999e-01
4.463888621e-01,2.83610e-05,9.99999e-01,9.99999e-01,9.99999e-01,2.83610e-05,9.99999e-01
4.486208064e-01,3.48772e-05,9.99999e-01,9.99999e-01,9.99999e-01,3.48772e-05,9.99999e-01
4.508639105e-01,4.27156e-05,9.99999e-01,9.99999e-01,9.99999e-01,4.27156e-05,9.99999e-01
4.531182300e-01,5.21067e-05,9.99999e-01,9.99999e-01,9.99999e-01,5.21067e-05,9.99999e-01
4.553838212e-01,6.33134e-05,9.99999e-01,9.99999e-01,9.99999e-01,6.33134e-05,9.99999e-01
4.576607403e-01,7.66349e-05,9.99999e-01,9.99999e-01,9.99999e-01,7.66349e-05,9.99999e-01
4.599490440e-01,9.24100e-05,9.99999e-01,9.99999e-01,9.99999e-01,9.24100e-05,9.99999e-01
4.622487892e-01,1.11021e-04,9.99999e-01,9.99999e-01,9.99999e-01,1.11021e-04,9.99999e-01
4.645600332e-01,1.32898e-04,9.99999e-01,9.99999e-01,9.99999e-01,1.32898e-04,9.99999e-01
4.668828333e-01,1.58522e-04,9.99999e-01,9.99999e-01,9.99999e-01,1.58522e-04,9.99999e-01
4.692172475e-01,1.88429e-04,9.99999e-01,9.99999e-01,9.99999e-01,1.88429e-04,9.99999e-01
4.715633337e-01,2.23214e-04,9.99999e-01,9.99999e-01,9.99999e-01,2.23214e-04,9.99999e-01
4.739211504e-01,2.63538e-04,9.99999e-01,9.99999e-01,9.99999e-01,2.63538e-04,9.99999e-01
4.762907561e-01,3.10128e-04,9.99999e-01,9.99999e-01,9.99999e-01,3.10128e-04,9.99999e-01
4.786722099e-01,3.63782e-04,9.99999e-01,9.99999e-01,9.99999e-01,3.63782e-04,9.99999e-01
4.810655710e-01,4.25377e-04,9.99999e-01,9.99999e-01,9.99999e-01,4.25377e-04,9.99999e-01
4.834708988e-01,4.95865e-04,9.99999e-01,9.99999e-01,9.99999e-01,4.95865e-04,9.99999e-01
4.858882533e-01,5.76287e-04,9.99999e-01,9.99999e-01,9.99999e-01,5.76287e-04,9.99999e-01
4.883176946e-01,6.67765e-04,9.99999e-01,9.99999e-01,9.99999e-01,6.67765e-04,9.99999e-01
4.907592831e-01,7.71517e-04,9.99999e-01,9.99999e-01,9.99999e-01,7.71517e-04,9.99999e-01
4.932130795e-01,8.88849e-04,9.99999e-01,9.99999e-01,9.99999e-01,8.88849e-04,9.99999e-01
4.956791449e-01,1.02117e-03,9.99999e-01,9.99999e-01,9.99999e-01,1.02117e-03,9.99999e-01
4.981575406e-01,1.16997e-03,9.99999e-01,9.99999e-01,9.99999e-01,1.16997e-03,9.99999e-01
5.006483283e-01,1.33686e-03,9.99999e-01,9.99999e-01,9.99999e-01,1.33686e-03,9.99999e-01
5.031515699e-01,1.52353e-03,9.99999e-01,9.99999e-01,9.99999e-01,1.52353e-03,9.99999e-01
5.056673278e-01,1.73180e-03,9.99999e-01,9.99999e-01,9.99999e-01,1.73180e-03,9.99999e-01
5.081956644e-01,1.96356e-03,9.99999e-01,9.99999e-01,9.99999e-01,1.96356e-03,9.99999e-01
5.107366428e-01,2.22082e-03,9.99999e-01,9.99999e-01,9.99999e-01,2.22082e-03,9.99999e-01
5.132903260e-01,2.50568e-03,9.99999e-01,9.99999e-01,9.99999e-01,2.50568e-03,9.99999e-01
5.158567776e-01,2.82035e-03,9.99999e-01,9.99999e-01,9.99999e-01,2.82035e-03,9.99999e-01
5.184360615e-01,3.16713e-03,9.99999e-01,9.99999e-01,9.99999e-01,3.16713e-03,9.99999e-01
5.210282418e-01,3.54842e-03,9.99999e-01,9.99999e-01,9.99999e-01,3.54842e-03,9.99999e-01
5.236333830e-01,3.96668e-03,9.99999e-01,9.99999e-01,9.99999e-01,3.96668e-03,9.99999e-01
5.262515499e-01,4.42450e-03,9.99999e-01,9.99999e-01,9.99999e-01,4.42450e-03,9.99999e-01
5.288828077e-01,4.92452e-03,9.99999e-01,9.99999e-01,9.99999e-01,4.92452e-03,9.99999e-01
5.315272217e-01,5.46948e-03,9.99999e-01,9.99999e-01,9.99999e-01,5.46948e-03,9.99999e-01
5.341848578e-01,6.06215e-03,9.99999e-01,9.99999e-01,9.99999e-01,6.06215e-03,9.99999e-01
5.368557821e-01,6.70541e-03,9.99999e-01,9.99999e-01,9.99999e-01,6.70541e-03,9.99999e-01
5.395400610e-01,7.40217e-03,9.99999e-01,9.99999e-01,9.99999e-01,7.40217e-03,9.99999e-01
5.422377613e-01,8.15539e-03,9.99999e-01,9.99999e-01,9.99999e-01,8.15539e-03,9.99999e-01
5.449489501e-01,8.96806e-03,9.99999e-01,9.99999e-01,9.99999e-01,8.96806e-03,9.99999e-01
5.476736949e-01,9.84324e-03,9.99999e-01,9.99999e-01,9.99999e-01,9.84324e-03,9.99999e-01
5.504120634e-01,1.07840e-02,9.99999e-01,9.99999e-01,9.99999e-01,1.07840e-02,9.99999e-01
5.531641237e-01,1.17933e-02,9.99999e-01,9.99999e-01,9.99999e-01,1.17933e-02,9.99999e-01
5.559299443e-01,1.28744e-02,9.99999e-01,9.99999e-01,9.99999e-01,1.28744e-02,9.99999e-01
5.587095940e-01,1.40302e-02,9.99999e-01,9.99999e-01,9.99999e-01,1.40302e-02,9.99999e-01
5.615031420e-01,1.52638e-02,9.99999e-01,9.99999e-01,9.99999e-01,1.52638e-02,9.99999e-01
5.643106577e-01,1.65783e-02,9.99999e-01,9.99999e-01,9.99999e-01,1.65783e-02,9.99999e-01
5.671322110e-01,1.79767e-02,9.99999e-01,9.99999e-01,9.99999e-01,1.79767e-02,9.99999e-01
5.699678720e-01,1.94618e-02,9.99999e-01,9.99999e-01,9.99999e-01,1.94618e-02,9.99999e-01
5.728177114e-01,2.10366e-02,9.99999e-01,9.99999e-01,9.99999e-01,2.10366e-02,9.99999e-01
5.756818000e-01,2.27039e-02,9.99999e-01,9.99999e-01,9.99999e-01,2.27039e-02,9.99999e-01
5.785602090e-01,2.44665e-02,9.99999e-01,9.99999e-01,9.99999e-01,2.44665e-02,9.99999e-01
5.814530100e-01,2.63270e-02,9.99999e-01,9.99999e-01,9.99999e-01,2.63270e-02,9.99999e-01
5.843602750e-01,2.82880e-02,9.99999e-01,9.99999e-01,9.99999e-01,2.82880e-02,9.99999e-01
5.872820764e-01,3.03520e-02,9.99999e-01,9.99999e-01,9.99999e-01,3.03520e-02,9.99999e-01
5.902184868e-01,3.25213e-02,9.99999e-01,9.99999e-01,9.99999e-01,3.25213e-02,9.99999e-01
5.931695792e-01,3.47982e-02,9.99999e-01,9.99999e-01,9.99999e-01,3.47982e-02,9.99999e-01
5.961354271e-01,3.71847e-02,9.99999e-01,9.99999e-01,9.99999e-01,3.71847e-02,9.99999e-01
5.991161043e-01,3.96829e-02,9.99999e-01,9.99999e-01,9.99999e-01,3.96829e-02,9.99999e-01
6.021116848e-01,4.22945e-02,9.99999e-01,9.99999e-01,9.99999e-01,4.22945e-02,9.99999e-01
6.051222432e-01,4.50214e-02,9.99999e-01,9.99999e-01,9.99999e-01,4.50214e-02,9.99999e-01
6.081478544e-01,4.78649e-02,9.99999e-01,9.99999e-01,9.99999e-01,4.78649e-02,9.99999e-01
6.111885937e-01,5.08264e-02,9.99999e-01,9.99999e-01,9.99999e-01,5.08264e-02,9.99999e-01
6.142445367e-01,5.39073e-02,9.99999e-01,9.99999e-01,9.99999e-01,5.39073e-02,9.99999e-01
6.173157594e-01,5.71085e-02,9.99999e-01,9.99999e-01,9.99999e-01,5.71085e-02,9.99999e-01
6.204023382e-01,6.04309e-02,9.99999e-01,9.99999e-01,9.99999e-01,6.04309e-02,9.99999e-01
6.235043498e-01,6.38752e-02,9.99999e-01,9.99999e-01,9.99999e-01,6.38752e-02,9.99999e-01
6.266218716e-01,6.74419e-02,9.99999e-01,9.99999e-01,9.99999e-01,6.74419e-02,9.99999e-01
6.297549810e-01,7.11314e-02,9.99999e-01,9.99999e-01,9.99999e-01,7.11314e-02,9.99999e-01
6.329037559e-01,7.49438e-02,9.99999e-01,9.99999e-01,9.99999e-01,7.49438e-02,9.99999e-01
6.360682746e-01,7.88792e-02,9.99999e-01,9.99999e-01,9.99999e-01,7.88792e-02,9.99999e-01
6.392486160e-01,8.29374e-02,9.99999e-01,9.99999e-01,9.99999e-01,8.29374e-02,9.99999e-01
6.424448591e-01,8.71180e-02,9.99999e-01,9.99999e-01,9.99999e-01,8.71180e-02,9.99999e-01
6.456570834e-01,9.14204e-02,9.99999e-01,9.99999e-01,9.99999e-01,9.14204e-02,9.99999e-01
6.488853688e-01,9.58441e-02,9.99999e-01,9.99999e-01,9.99999e-01,9.58441e-02,9.99999e-01
6.521297956e-01,1.00388e-01,9.99999e-01,9.99999e-01,9.99999e-01,1.00388e-01,9.99999e-01
6.553904446e-01,1.05051e-01,9.99999e-01,9.99999e-01,9.99999e-01,1.05051e-01,9.99999e-01
6.586673968e-01,1.09832e-01,9.99999e-01,9.99999e-01,9.99999e-01,1.09832e-01,9.99999e-01
6.619607338e-01,1.14730e-01,9.99999e-01,9.99999e-01,9.99999e-01,1.14730e-01,9.99999e-01
6.652705375e-01,1.19744e-01,9.99999e-01,9.99999e-01,9.99999e-01,1.19744e-01,9.99999e-01
6.685968902e-01,1.24870e-01,9.99999e-01,9.99999e-01,9.99999e-01,1.24870e-01,9.99999e-01
6.719398746e-01,1.30109e-01,9.99999e-01,9.99999e-01,9.99999e-01,1.30109e-01,9.99999e-01
6.752995740e-01,1.35457e-01,9.99999e-01,9.99999e-01,9.99999e-01,1.35457e-01,9.99999e-01
6.786760719e-01,1.40913e-01,9.99999e-01,9.99999e-01,9.99999e-01,1.40913e-01,9.99999e-01
6.820694522e-01,1.46474e-01,9.99999e-01,9.99999e-01,9.99999e-01,1.46474e-01,9.99999e-01
6.854797995e-01,1.52138e-01,9.99999e-01,9.99999e-01,9.99999e-01,1.52138e-01,9.99999e-01
6.889071985e-01,1.57903e-01,9.99999e-01,9.99999e-01,9.99999e-01,1.57903e-01,9.99999e-01
6.923517345e-01,1.63767e-01,9.99999e-01,9.99999e-01,9.99999e-01,1.63767e-01,9.99999e-01
6.958134932e-01,1.69725e-01,9.99999e-01,9.99999e-01,9.99999e-01,1.69725e-01,9.99999e-01
6.992925606e-01,1.75776e-01,9.99999e-01,9.99999e-01,9.99999e-01,1.75776e-01,9.99999e-01
7.027890234e-01,1.81918e-01,9.99999e-01,9.99999e-01,9.99999e-01,1.81918e-01,9.99999e-01
7.063029686e-01,1.88146e-01,9.99999e-01,9.99999e-01,9.99999e-01,1.88146e-01,9.99999e-01
7.098344834e-01,1.94457e-01,9.99999e-01,9.99999e-01,9.99999e-01,1.94457e-01,9.99999e-01
7.133836558e-01,2.00850e-01,9.99999e-01,9.99999e-01,9.99999e-01,2.00850e-01,9.99999e-01
7.169505741e-01,2.07320e-01,9.99999e-01,9.99999e-01,9.99999e-01,2.07320e-01,9.99999e-01
7.205353270e-01,2.13865e-01,9.99999e-01,9.99999e-01,9.99999e-01,2.13865e-01,9.99999e-01
7.241380036e-01,2.20481e-01,9.99999e-01,9.99999e-01,9.99999e-01,2.20481e-01,9.99999e-01
7.277586936e-01,2.27165e-01,9.99999e-01,9.99999e-01,9.99999e-01,2.27165e-01,9.99999e-01
7.313974871e-01,2.33913e-01,9.99999e-01,9.99999e-01,9.99999e-01,2.33913e-01,9.99999e-01
7.350544745e-01,2.40723e-01,9.99999e-01,9.99999e-01,9.99999e-01,2.40723e-01,9.99999e-01
7.387297469e-01,2.47591e-01,9.99999e-01,9.99999e-01,9.99999e-01,2.47591e-01,9.99999e-01
7.424233956e-01,2.54513e-01,9.99999e-01,9.99999e-01,9.99999e-01,2.54513e-01,9.99999e-01
7.461355126e-01,2.61486e-01,9.99999e-01,9.99999e-01,9.99999e-01,2.61486e-01,9.99999e-01
7.498661902e-01,2.68507e-01,9.99999e-01,9.99999e-01,9.99999e-01,2.68507e-01,9.99999e-01
7.536155211e-01,2.75572e-01,9.99999e-01,9.99999e-01,9.99999e-01,2.75572e-01,9.99999e-01
7.573835987e-01,2.82678e-01,9.99999e-01,9.99999e-01,9.99999e-01,2.82678e-01,9.99999e-01
7.611705167e-01,2.89821e-01,9.99999e-01,9.99999e-01,9.99999e-01,2.89821e-01,9.99999e-01
7.649763693e-01,2.96998e-01,9.99999e-01,9.99999e-01,9.99999e-01,2.96998e-01,9.99999e-01
7.688012511e-01,3.04206e-01,9.99999e-01,9.99999e-01,9.99999e-01,3.04206e-01,9.99999e-01
7.726452574e-01,3.11442e-01,9.99999e-01,9.99999e-01,9.99999e-01,3.11442e-01,9.99999e-01
7.765084837e-01,3.18702e-01,9.99999e-01,9.99999e-01,9.99999e-01,3.18702e-01,9.99999e-01
7.803910261e-01,3.10143e-01,9.99999e-01,9.99999e-01,9.51410e-01,3.25982e-01,9.99999e-01
7.842929812e-01,2.64945e-01,9.99999e-01,9.99999e-01,7.94963e-01,3.33280e-01,9.99999e-01
7.882144461e-01,2.66750e-01,9.99999e-01,9.99999e-01,7.83193e-01,3.40592e-01,9.99999e-01
7.921555184e-01,3.01059e-01,9.99999e-01,9.99999e-01,8.65320e-01,3.47916e-01,9.99999e-01
7.961162960e-01,3.22303e-01,9.99999e-01,9.99999e-01,9.07262e-01,3.55248e-01,9.99999e-01
8.000968774e-01,3.43956e-01,9.99999e-01,9.99999e-01,9.48621e-01,3.62585e-01,9.99999e-01
8.040973618e-01,3.59939e-01,9.99999e-01,9.99999e-01,9.73007e-01,3.69924e-01,9.99999e-01
8.081178486e-01,3.72558e-01,9.99999e-01,9.99999e-01,9.87530e-01,3.77262e-01,9.99999e-01
8.121584379e-01,3.83106e-01,9.99999e-01,9.99999e-01,9.96124e-01,3.84597e-01,9.99999e-01
8.162192301e-01,3.91589e-01,9.99999e-01,9.99999e-01,9.99142e-01,3.91925e-01,9.99999e-01
8.203003262e-01,3.99238e-01,9.99999e-01,9.99999e-01,9.99986e-01,3.99244e-01,9.99999e-01
8.244018279e-01,4.06550e-01,9.99999e-01,9.99999e-01,9.99999e-01,4.06550e-01,9.99999e-01
8.285238370e-01,4.13843e-01,9.99999e-01,9.99999e-01,9.99999e-01,4.13843e-01,9.99999e-01
8.326664562e-01,4.21118e-01,9.99999e-01,9.99999e-01,9.99999e-01,4.21118e-01,9.99999e-01
8.368297885e-01,4.28374e-01,9.99999e-01,9.99999e-01,9.99999e-01,4.28374e-01,9.99999e-01
8.410139374e-01,4.35607e-01,9.99999e-01,9.99999e-01,9.99999e-01,4.35607e-01,9.99999e-01
8.452190071e-01,4.42817e-01,9.99999e-01,9.99999e-01,9.99999e-01,4.42817e-01,9.99999e-01
8.494451021e-01,4.49999e-01,9.99999e-01,9.99999e-01,9.99999e-01,4.49999e-01,9.99999e-01
8.536923276e-01,4.57153e-01,9.99999e-01,9.99999e-01,9.99999e-01,4.57153e-01,9.99999e-01
8.579607893e-01,4.64276e-01,9.99999e-01,9.99999e-01,9.99999e-01,4.64276e-01,9.99999e-01
8.622505932e-01,4.71366e-01,9.99999e-01,9.99999e-01,9.99999e-01,4.71366e-01,9.99999e-01
8.665618462e-01,4.33516e-01,9.99999e-01,9.99999e-01,9.06139e-01,4.78421e-01,9.99999e-01
8.708946554e-01,2.73024e-01,9.99999e-01,9.99999e-01,5.62427e-01,4.85439e-01,9.99999e-01
8.752491287e-01,3.08071e-01,9.99999e-01,9.99999e-01,6.25628e-01,4.92419e-01,9.99999e-01
8.796253743e-01,3.85035e-01,9.99999e-01,9.99999e-01,7.71059e-01,4.99358e-01,9.99999e-01
8.840235012e-01,4.42113e-01,9.99999e-01,9.99999e-01,8.73302e-01,5.06254e-01,9.99999e-01
8.884436187e-01,4.86363e-01,9.99999e-01,9.99999e-01,9.47877e-01,5.13107e-01,9.99999e-01
8.928858368e-01,5.08766e-01,9.99999e-01,9.99999e-01,9.78555e-01,5.19915e-01,9.99999e-01
8.973502660e-01,5.23906e-01,9.99999e-01,9.99999e-01,9.94741e-01,5.26676e-01,9.99999e-01
9.018370173e-01,5.33079e-01,9.99999e-01,9.99999e-01,9.99418e-01,5.33388e-01,9.99999e-01
9.063462024e-01,5.32155e-01,9.99999e-01,9.99999e-01,9.85377e-01,5.40051e-01,9.99999e-01
9.108779334e-01,5.28296e-01,9.99999e-01,9.99999e-01,9.66400e-01,5.46664e-01,9.99999e-01
9.154323231e-01,5.48793e-01,9.99999e-01,9.99999e-01,9.91991e-01,5.53224e-01,9.99999e-01
9.200094847e-01,5.00405e-01,9.99999e-01,9.99999e-01,8.94010e-01,5.59731e-01,9.99999e-01
9.246095321e-01,4.79122e-01,9.99999e-01,9.99999e-01,8.46229e-01,5.66183e-01,9.99999e-01
9.292325798e-01,5.02864e-01,9.99999e-01,9.99999e-01,8.78240e-01,5.72581e-01,9.99999e-01
9.338787427e-01,5.10256e-01,9.99999e-01,9.99999e-01,8.81389e-01,5.78922e-01,9.99999e-01
9.385481364e-01,5.33251e-01,9.99999e-01,9.99999e-01,9.11218e-01,5.85206e-01,9.99999e-01
9.432408771e-01,5.58642e-01,9.99999e-01,9.99999e-01,9.44557e-01,5.91433e-01,9.99999e-01
9.479570815e-01,5.80375e-01,9.99999e-01,9.99999e-01,9.71176e-01,5.97600e-01,9.99999e-01
9.526968669e-01,5.95254e-01,9.99999e-01,9.99999e-01,9.85995e-01,6.03708e-01,9.99999e-01
9.574603512e-01,6.06089e-01,9.99999e-01,9.99999e-01,9.93985e-01,6.09756e-01,9.99999e-01
9.622476530e-01,6.14586e-01,9.99999e-01,9.99999e-01,9.98119e-01,6.15744e-01,9.99999e-01
9.670588912e-01,6.21320e-01,9.99999e-01,9.99999e-01,9.99435e-01,6.21670e-01,9.99999e-01
9.718941857e-01,6.27509e-01,9.99999e-01,9.99999e-01,9.99959e-01,6.27534e-01,9.99999e-01
9.767536566e-01,6.33337e-01,9.99999e-01,9.99999e-01,9.99999e-01,6.33337e-01,9.99999e-01
9.816374249e-01,6.39077e-01,9.99999e-01,9.99999e-01,9.99999e-01,6.39077e-01,9.99999e-01
9.865456120e-01,6.44753e-01,9.99999e-01,9.99999e-01,9.99999e-01,6.44753e-01,9.99999e-01
9.914783401e-01,6.50367e-01,9.99999e-01,9.99999e-01,9.99999e-01,6.50367e-01,9.99999e-01
9.964357318e-01,6.55917e-01,9.99999e-01,9.99999e-01,9.99999e-01,6.55917e-01,9.99999e-01
1.001417910e+00,6.61404e-01,9.99999e-01,9.99999e-01,9.99999e-01,6.61404e-01,9.99999e-01
1.006425000e+00,6.66827e-01,9.99999e-01,9.99999e-01,9.99999e-01,6.66827e-01,9.99999e-01
1.011457125e+00,6.72186e-01,9.99999e-01,9.99999e-01,9.99999e-01,6.72186e-01,9.99999e-01
1.016514411e+00,6.77480e-01,9.99999e-01,9.99999e-01,9.99999e-01,6.77480e-01,9.99999e-01
1.021596983e+00,6.82659e-01,9.99999e-01,9.99999e-01,9.99923e-01,6.82711e-01,9.99999e-01
1.026704968e+00,6.83933e-01,9.99999e-01,9.99999e-01,9.94264e-01,6.87878e-01,9.99999e-01
1.031838492e+00,6.52583e-01,9.99999e-01,9.99999e-01,9.41705e-01,6.92980e-01,9.99999e-01
1.036997685e+00,7.20365e-02,9.99999e-01,9.99999e-01,1.03201e-01,6.98018e-01,9.99999e-01
1.042182673e+00,3.06709e-02,9.99999e-01,9.99999e-01,4.36290e-02,7.02993e-01,9.99999e-01
1.047393587e+00,4.73338e-02,9.99999e-01,9.99999e-01,6.68647e-02,7.07903e-01,9.99999e-01
1.052630555e+00,2.79377e-04,9.99999e-01,9.99999e-01,3.91970e-04,7.12750e-01,9.99999e-01
1.057893707e+00,8.71853e-04,9.99999e-01,9.99999e-01,1.21507e-03,7.17534e-01,9.99999e-01
1.063183176e+00,4.90191e-03,9.99999e-01,9.99999e-01,6.78696e-03,7.22254e-01,9.99999e-01
1.068499092e+00,2.04618e-02,9.99999e-01,9.99999e-01,2.81490e-02,7.26910e-01,9.99999e-01
1.073841587e+00,7.57172e-02,9.99999e-01,9.99999e-01,1.03509e-01,7.31504e-01,9.99999e-01
1.079210795e+00,1.75090e-01,9.99999e-01,9.99999e-01,2.37882e-01,7.36036e-01,9.99999e-01
1.084606849e+00,3.33443e-01,9.99999e-01,9.99999e-01,4.50290e-01,7.40505e-01,9.99999e-01
1.090029883e+00,4.91764e-01,9.99999e-01,9.99999e-01,6.60162e-01,7.44912e-01,9.99999e-01
1.095480033e+00,6.10438e-01,9.99999e-01,9.99999e-01,8.14723e-01,7.49258e-01,9.99999e-01
1.100957433e+00,6.82620e-01,9.99999e-01,9.99999e-01,9.05880e-01,7.53543e-01,9.99999e-01
1.106462220e+00,7.27394e-01,9.99999e-01,9.99999e-01,9.59918e-01,7.57766e-01,9.99999e-01
1.111994531e+00,7.50462e-01,9.99999e-01,9.99999e-01,9.84948e-01,7.61929e-01,9.99999e-01
1.117554504e+00,7.63199e-01,9.99999e-01,9.99999e-01,9.96300e-01,7.66032e-01,9.99999e-01
1.123142276e+00,7.69888e-01,9.99999e-01,9.99999e-01,9.99756e-01,7.70076e-01,9.99999e-01
1.128757988e+00,7.74060e-01,9.99999e-01,9.99999e-01,9.99999e-01,7.74060e-01,9.99999e-01
1.134401778e+00,7.77986e-01,9.99999e-01,9.99999e-01,9.99999e-01,7.77986e-01,9.99999e-01
1.140073787e+00,7.81853e-01,9.99999e-01,9.99999e-01,9.99999e-01,7.81853e-01,9.99999e-01
1.145774156e+00,7.85663e-01,9.99999e-01,9.99999e-01,9.99999e-01,7.85663e-01,9.99999e-01
1.151503026e+00,7.89416e-01,9.99999e-01,9.99999e-01,9.99999e-01,7.89416e-01,9.99999e-01
1.157260541e+00,7.93111e-01,9.99999e-01,9.99999e-01,9.99999e-01,7.93111e-01,9.99999e-01
1.163046844e+00,7.96751e-01,9.99999e-01,9.99999e-01,9.99999e-01,7.96751e-01,9.99999e-01
1.168862078e+00,8.00335e-01,9.99999e-01,9.99999e-01,9.99999e-01,8.00335e-01,9.99999e-01
1.174706389e+00,8.03863e-01,9.99999e-01,9.99999e-01,9.99999e-01,8.03863e-01,9.99999e-01
1.180579921e+00,8.07338e-01,9.99999e-01,9.99999e-01,9.99999e-01,8.07338e-01,9.99999e-01
1.186482820e+00,8.10750e-01,9.99999e-01,9.99999e-01,9.99989e-01,8.10758e-01,9.99999e-01
1.192415234e+00,7.97736e-01,9.99999e-01,9.99999e-01,9.79870e-01,8.14124e-01,9.99999e-01
1.198377311e+00,4.49025e-01,9.99999e-01,9.99999e-01,5.49308e-01,8.17438e-01,9.99999e-01
1.204369197e+00,4.33021e-16,9.99999e-01,9.99999e-01,5.27624e-16,8.20699e-01,9.99999e-01
1.210391043e+00,1.04022e-61,9.99999e-01,9.99999e-01,1.26254e-61,8.23909e-01,9.99999e-01
1.216442998e+00,1.49521e-53,9.99999e-01,9.99999e-01,1.80785e-53,8.27067e-01,9.99999e-01
1.222525213e+00,9.15418e-53,9.99999e-01,9.99999e-01,1.10268e-52,8.30174e-01,9.99999e-01
1.228637839e+00,7.56110e-41,9.99999e-01,9.99999e-01,9.07442e-41,8.33232e-01,9.99999e-01
