#,Wave/freq,Total,N2,O2,CO2,Rayleigh,CIA
4.000000000e-01,1.14891e-17,9.99999e-01,9.99999e-01,9.99999e-01,1.14891e-17,9.99999e-01
4.020000000e-01,2.48444e-17,9.99999e-01,9.99999e-01,9.99999e-01,2.48444e-17,9.99999e-01
4.040100000e-01,5.28706e-17,9.99999e-01,9.99999e-01,9.99999e-01,5.28706e-17,9.99999e-01
4.060300500e-01,1.10846e-16,9.99999e-01,9.99999e-01,9.99999e-01,1.10846e-16,9.99999e-01
4.080602003e-01,2.29022e-16,9.99999e-01,9.99999e-01,9.99999e-01,2.29022e-16,9.99999e-01
4.101005013e-01,4.66454e-16,9.99999e-01,9.99999e-01,9.99999e-01,4.66454e-16,9.99999e-01
4.121510038e-01,9.36780e-16,9.99999e-01,9.99999e-01,9.99999e-01,9.36780e-16,9.99999e-01
4.142117588e-01,1.85560e-15,9.99999e-01,9.99999e-01,9.99999e-01,1.85560e-15,9.99999e-01
4.162828176e-01,3.62635e-15,9.99999e-01,9.99999e-01,9.99999e-01,3.62635e-15,9.99999e-01
4.183642317e-01,6.99367e-15,9.99999e-01,9.99999e-01,9.99999e-01,6.99367e-15,9.99999e-01
4.204560528e-01,1.33140e-14,9.99999e-01,9.99999e-01,9.99999e-01,1.33140e-14,9.99999e-01
4.225583331e-01,2.50257e-14,9.99999e-01,9.99999e-01,9.99999e-01,2.50257e-14,9.99999e-01
4.246711247e-01,4.64571e-14,9.99999e-01,9.99999e-01,9.99999e-01,4.64571e-14,9.99999e-01
4.267944804e-01,8.51944e-14,9.99999e-01,9.99999e-01,9.99999e-01,8.51944e-14,9.99999e-01
4.289284528e-01,1.54372e-13,9.99999e-01,9.99999e-01,9.99999e-01,1.54372e-13,9.99999e-01
4.310730950e-01,2.76456e-13,9.99999e-01,9.99999e-01,9.99999e-01,2.76456e-13,9.99999e-01
4.332284605e-01,4.89423e-13,9.99999e-01,9.99999e-01,9.99999e-01,4.89423e-13,9.99999e-01
4.353946028e-01,8.56729e-13,9.99999e-01,9.99999e-01,9.99999e-01,8.56729e-13,9.99999e-01
4.375715758e-01,1.48320e-12,9.99999e-01,9.99999e-01,9.99999e-01,1.48320e-12,9.99999e-01
4.397594337e-01,2.54008e-12,9.99999e-01,9.99999e-01,9.99999e-01,2.54008e-12,9.99999e-01
4.419582309e-01,4.30409e-12,9.99999e-01,9.99999e-01,9.99999e-01,4.30409e-12,9.99999e-01
4.441680220e-01,7.21755e-12,9.99999e-01,9.99999e-01,9.99999e-01,7.21755e-12,9.99999e-01
4.463888621e-01,1.19802e-11,9.99999e-01,9.99999e-01,9.99999e-01,1.19802e-11,9.99999e-01
4.486208064e-01,1.96876e-11,9.99999e-01,9.99999e-01,9.99999e-01,1.96876e-11,9.99999e-01
4.508639105e-01,3.20375e-11,9.99999e-01,9.99999e-01,9.99999e-01,3.20375e-11,9.99999e-01
4.531182300e-01,5.16354e-11,9.99999e-01,9.99999e-01,9.99999e-01,5.16354e-11,9.99999e-01
4.553838212e-01,8.24408e-11,9.99999e-01,9.99999e-01,9.99999e-01,8.24408e-11,9.99999e-01
4.576607403e-01,1.30414e-10,9.99999e-01,9.99999e-01,9.99999e-01,1.30414e-10,9.99999e-01
4.599490440e-01,2.04442e-10,9.99999e-01,9.99999e-01,9.99999e-01,2.04442e-10,9.99999e-01
4.622487892e-01,3.17658e-10,9.99999e-01,9.99999e-01,9.99999e-01,3.17658e-10,9.99999e-01
4.645600332e-01,4.89294e-10,9.99999e-01,9.99999e-01,9.99999e-01,4.89294e-10,9.99999e-01
4.668828333e-01,7.47264e-10,9.99999e-01,9.99999e-01,9.99999e-01,7.47264e-10,9.99999e-01
4.692172475e-01,1.13174e-09,9.99999e-01,9.99999e-01,9.99999e-01,1.13174e-09,9.99999e-01
4.715633337e-01,1.70003e-09,9.99999e-01,9.99999e-01,9.99999e-01,1.70003e-09,9.99999e-01
4.739211504e-01,2.53324e-09,9.99999e-01,9.99999e-01,9.99999e-01,2.53324e-09,9.99999e-01
4.762907561e-01,3.74520e-09,9.99999e-01,9.99999e-01,9.99999e-01,3.74520e-09,9.99999e-01
4.786722099e-01,5.49440e-09,9.99999e-01,9.99999e-01,9.99999e-01,5.49440e-09,9.99999e-01
4.810655710e-01,7.99976e-09,9.99999e-01,9.99999e-01,9.99999e-01,7.99976e-09,9.99999e-01
4.834708988e-01,1.15614e-08,9.99999e-01,9.99999e-01,9.99999e-01,1.15614e-08,9.99999e-01
4.858882533e-01,1.65877e-08,9.99999e-01,9.99999e-01,9.99999e-01,1.65877e-08,9.99999e-01
4.883176946e-01,2.36301e-08,9.99999e-01,9.99999e-01,9.99999e-01,2.36301e-08,9.99999e-01
4.907592831e-01,3.34278e-08,9.99999e-01,9.99999e-01,9.99999e-01,3.34278e-08,9.99999e-01
4.932130795e-01,4.69651e-08,9.99999e-01,9.99999e-01,9.99999e-01,4.69651e-08,9.99999e-01
4.956791449e-01,6.55429e-08,9.99999e-01,9.99999e-01,9.99999e-01,6.55429e-08,9.99999e-01
4.981575406e-01,9.08693e-08,9.99999e-01,9.99999e-01,9.99999e-01,9.08693e-08,9.99999e-01
5.006483283e-01,1.25172e-07,9.99999e-01,9.99999e-01,9.99999e-01,1.25172e-07,9.99999e-01
5.031515699e-01,1.71336e-07,9.99999e-01,9.99999e-01,9.99999e-01,1.71336e-07,9.99999e-01
5.056673278e-01,2.33075e-07,9.99999e-01,9.99999e-01,9.99999e-01,2.33075e-07,9.99999e-01
5.081956644e-01,3.15140e-07,9.99999e-01,9.99999e-01,9.99999e-01,3.15140e-07,9.99999e-01
5.107366428e-01,4.23570e-07,9.99999e-01,9.99999e-01,9.99999e-01,4.23570e-07,9.99999e-01
5.132903260e-01,5.65990e-07,9.99999e-01,9.99999e-01,9.99999e-01,5.65990e-07,9.99999e-01
5.158567776e-01,7.51980e-07,9.99999e-01,9.99999e-01,9.99999e-01,7.51980e-07,9.99999e-01
5.184360615e-01,9.93497e-07,9.99999e-01,9.99999e-01,9.99999e-01,9.93497e-07,9.99999e-01
5.210282418e-01,1.30538e-06,9.99999e-01,9.99999e-01,9.99999e-01,1.30538e-06,9.99999e-01
5.236333830e-01,1.70595e-06,9.99999e-01,9.99999e-01,9.99999e-01,1.70595e-06,9.99999e-01
5.262515499e-01,2.21768e-06,9.99999e-01,9.99999e-01,9.99999e-01,2.21768e-06,9.99999e-01
5.288828077e-01,2.86801e-06,9.99999e-01,9.99999e-01,9.99999e-01,2.86801e-06,9.99999e-01
5.315272217e-01,3.69027e-06,9.99999e-01,9.99999e-01,9.99999e-01,3.69027e-06,9.99999e-01
5.341848578e-01,4.72468e-06,9.99999e-01,9.99999e-01,9.99999e-01,4.72468e-06,9.99999e-01
5.368557821e-01,6.01958e-06,9.99999e-01,9.99999e-01,9.99999e-01,6.01958e-06,9.99999e-01
5.395400610e-01,7.63278e-06,9.99999e-01,9.99999e-01,9.99999e-01,7.63278e-06,9.99999e-01
5.422377613e-01,9.63302e-06,9.99999e-01,9.99999e-01,9.99999e-01,9.63302e-06,9.99999e-01
5.449489501e-01,1.21017e-05,9.99999e-01,9.99999e-01,9.99999e-01,1.21017e-05,9.99999e-01
5.476736949e-01,1.51346e-05,9.99999e-01,9.99999e-01,9.99999e-01,1.51346e-05,9.99999e-01
5.504120634e-01,1.88443e-05,9.99999e-01,9.99999e-01,9.99999e-01,1.88443e-05,9.99999e-01
5.531641237e-01,2.33618e-05,9.99999e-01,9.99999e-01,9.99999e-01,2.33618e-05,9.99999e-01
5.559299443e-01,2.88396e-05,9.99999e-01,9.99999e-01,9.99999e-01,2.88396e-05,9.99999e-01
5.587095940e-01,3.54541e-05,9.99999e-01,9.99999e-01,9.99999e-01,3.54541e-05,9.99999e-01
5.615031420e-01,4.34081e-05,9.99999e-01,9.99999e-01,9.99999e-01,4.34081e-05,9.99999e-01
5.643106577e-01,5.29346e-05,9.99999e-01,9.99999e-01,9.99999e-01,5.29346e-05,9.99999e-01
5.671322110e-01,6.42993e-05,9.99999e-01,9.99999e-01,9.99999e-01,6.42993e-05,9.99999e-01
5.699678720e-01,7.78045e-05,9.99999e-01,9.99999e-01,9.99999e-01,7.78045e-05,9.99999e-01
5.728177114e-01,9.37924e-05,9.99999e-01,9.99999e-01,9.99999e-01,9.37924e-05,9.99999e-01
5.756818000e-01,1.12649e-04,9.99999e-01,9.99999e-01,9.99999e-01,1.12649e-04,9.99999e-01
5.785602090e-01,1.34808e-04,9.99999e-01,9.99999e-01,9.99999e-01,1.34808e-04,9.99999e-01
5.814530100e-01,1.60755e-04,9.99999e-01,9.99999e-01,9.99999e-01,1.60755e-04,9.99999e-01
5.843602750e-01,1.91030e-04,9.99999e-01,9.99999e-01,9.99999e-01,1.91030e-04,9.99999e-01
5.872820764e-01,2.26234e-04,9.99999e-01,9.99999e-01,9.99999e-01,2.26234e-04,9.99999e-01
5.902184868e-01,2.67033e-04,9.99999e-01,9.99999e-01,9.99999e-01,2.67033e-04,9.99999e-01
5.931695792e-01,3.14159e-04,9.99999e-01,9.99999e-01,9.99999e-01,3.14159e-04,9.99999e-01
5.961354271e-01,3.68416e-04,9.99999e-01,9.99999e-01,9.99999e-01,3.68416e-04,9.99999e-01
5.991161043e-01,4.30688e-04,9.99999e-01,9.99999e-01,9.99999e-01,4.30688e-04,9.99999e-01
6.021116848e-01,5.01933e-04,9.99999e-01,9.99999e-01,9.99999e-01,5.01933e-04,9.99999e-01
6.051222432e-01,5.83198e-04,9.99999e-01,9.99999e-01,9.99999e-01,5.83198e-04,9.99999e-01
6.081478544e-01,6.75615e-04,9.99999e-01,9.99999e-01,9.99999e-01,6.75615e-04,9.99999e-01
6.111885937e-01,7.80406e-04,9.99999e-01,9.99999e-01,9.99999e-01,7.80406e-04,9.99999e-01
6.142445367e-01,8.98887e-04,9.99999e-01,9.99999e-01,9.99999e-01,8.98887e-04,9.99999e-01
6.173157594e-01,1.03247e-03,9.99999e-01,9.99999e-01,9.99999e-01,1.03247e-03,9.99999e-01
6.204023382e-01,1.18266e-03,9.99999e-01,9.99999e-01,9.99999e-01,1.18266e-03,9.99999e-01
6.235043498e-01,1.35107e-03,9.99999e-01,9.99999e-01,9.99999e-01,1.35107e-03,9.99999e-01
6.266218716e-01,1.53941e-03,9.99999e-01,9.99999e-01,9.99999e-01,1.53941e-03,9.99999e-01
6.297549810e-01,1.74949e-03,9.99999e-01,9.99999e-01,9.99999e-01,1.74949e-03,9.99999e-01
6.329037559e-01,1.98322e-03,9.99999e-01,9.99999e-01,9.99999e-01,1.98322e-03,9.99999e-01
6.360682746e-01,2.24261e-03,9.99999e-01,9.99999e-01,9.99999e-01,2.24261e-03,9.99999e-01
6.392486160e-01,2.52978e-03,9.99999e-01,9.99999e-01,9.99999e-01,2.52978e-03,9.99999e-01
6.424448591e-01,2.84695e-03,9.99999e-01,9.99999e-01,9.99999e-01,2.84695e-03,9.99999e-01
6.456570834e-01,3.19640e-03,9.99999e-01,9.99999e-01,9.99999e-01,3.19640e-03,9.99999e-01
6.488853688e-01,3.58056e-03,9.99999e-01,9.99999e-01,9.99999e-01,3.58056e-03,9.99999e-01
6.521297956e-01,4.00190e-03,9.99999e-01,9.99999e-01,9.99999e-01,4.00190e-03,9.99999e-01
6.553904446e-01,4.46300e-03,9.99999e-01,9.99999e-01,9.99999e-01,4.46300e-03,9.99999e-01
6.586673968e-01,4.96653e-03,9.99999e-01,9.99999e-01,9.99999e-01,4.96653e-03,9.99999e-01
6.619607338e-01,5.51520e-03,9.99999e-01,9.99999e-01,9.99999e-01,5.51520e-03,9.99999e-01
6.652705375e-01,6.11183e-03,9.99999e-01,9.99999e-01,9.99999e-01,6.11183e-03,9.99999e-01
6.685968902e-01,6.75927e-03,9.99999e-01,9.99999e-01,9.99999e-01,6.75927e-03,9.99999e-01
6.719398746e-01,7.46045e-03,9.99999e-01,9.99999e-01,9.99999e-01,7.46045e-03,9.99999e-01
6.752995740e-01,8.21832e-03,9.99999e-01,9.99999e-01,9.99999e-01,8.21832e-03,9.99999e-01
6.786760719e-01,9.03589e-03,9.99999e-01,9.99999e-01,9.99999e-01,9.03589e-03,9.99999e-01
6.820694522e-01,9.91621e-03,9.99999e-01,9.99999e-01,9.99999e-01,9.91621e-03,9.99999e-01
6.854797995e-01,1.08623e-02,9.99999e-01,9.99999e-01,9.99999e-01,1.08623e-02,9.99999e-01
6.889071985e-01,1.18773e-02,9.99999e-01,9.99999e-01,9.99999e-01,1.18773e-02,9.99999e-01
6.923517345e-01,1.29642e-02,9.99999e-01,9.99999e-01,9.99999e-01,1.29642e-02,9.99999e-01
6.958134932e-01,1.41262e-02,9.99999e-01,9.99999e-01,9.99999e-01,1.41262e-02,9.99999e-01
6.992925606e-01,1.53662e-02,9.99999e-01,9.99999e-01,9.99999e-01,1.53662e-02,9.99999e-01
7.027890234e-01,1.66873e-02,9.99999e-01,9.99999e-01,9.99999e-01,1.66873e-02,9.99999e-01
7.063029686e-01,1.80925e-02,9.99999e-01,9.99999e-01,9.99999e-01,1.80925e-02,9.99999e-01
7.098344834e-01,1.95847e-02,9.99999e-01,9.99999e-01,9.99999e-01,1.95847e-02,9.99999e-01
7.133836558e-01,2.11669e-02,9.99999e-01,9.99999e-01,9.99999e-01,2.11669e-02,9.99999e-01
7.169505741e-01,2.28417e-02,9.99999e-01,9.99999e-01,9.99999e-01,2.28417e-02,9.99999e-01
7.205353270e-01,2.46121e-02,9.99999e-01,9.99999e-01,9.99999e-01,2.46121e-02,9.99999e-01
7.241380036e-01,2.64805e-02,9.99999e-01,9.99999e-01,9.99999e-01,2.64805e-02,9.99999e-01
7.277586936e-01,2.84497e-02,9.99999e-01,9.99999e-01,9.99999e-01,2.84497e-02,9.99999e-01
7.313974871e-01,3.05221e-02,9.99999e-01,9.99999e-01,9.99999e-01,3.05221e-02,9.99999e-01
7.350544745e-01,3.26999e-02,9.99999e-01,9.99999e-01,9.99999e-01,3.26999e-02,9.99999e-01
7.387297469e-01,3.49855e-02,9.99999e-01,9.99999e-01,9.99999e-01,3.49855e-02,9.99999e-01
7.424233956e-01,3.73809e-02,9.99999e-01,9.99999e-01,9.99999e-01,3.73809e-02,9.99999e-01
7.461355126e-01,3.98881e-02,9.99999e-01,9.99999e-01,9.99999e-01,3.98881e-02,9.99999e-01
7.498661902e-01,4.25089e-02,9.99999e-01,9.99999e-01,9.99999e-01,4.25089e-02,9.99999e-01
7.536155211e-01,4.52450e-02,9.99999e-01,9.99999e-01,9.99999e-01,4.52450e-02,9.99999e-01
7.573835987e-01,4.80980e-02,9.99999e-01,9.99999e-01,9.99999e-01,4.80980e-02,9.99999e-01
7.611705167e-01,5.10691e-02,9.99999e-01,9.99999e-01,9.99999e-01,5.10691e-02,9.99999e-01
7.649763693e-01,5.41596e-02,9.99999e-01,9.99999e-01,9.99999e-01,5.41596e-02,9.99999e-01
7.688012511e-01,5.73704e-02,9.99999e-01,9.99999e-01,9.99999e-01,5.73704e-02,9.99999e-01
7.726452574e-01,6.07026e-02,9.99999e-01,9.99999e-01,9.99999e-01,6.07026e-02,9.99999e-01
7.765084837e-01,6.41567e-02,9.99999e-01,9.99999e-01,9.99999e-01,6.41567e-02,9.99999e-01
7.803910261e-01,6.09827e-02,9.99999e-01,9.99999e-01,9.00336e-01,6.77332e-02,9.99999e-01
7.842929812e-01,4.24366e-02,9.99999e-01,9.99999e-01,5.94079e-01,7.14326e-02,9.99999e-01
7.882144461e-01,4.34533e-02,9.99999e-01,9.99999e-01,5.77414e-01,7.52549e-02,9.99999e-01
7.921555184e-01,5.62709e-02,9.99999e-01,9.99999e-01,7.10489e-01,7.92001e-02,9.99999e-01
7.961162960e-01,6.60659e-02,9.99999e-01,9.99999e-01,7.93411e-01,8.32681e-02,9.99999e-01
8.000968774e-01,7.71219e-02,9.99999e-01,9.99999e-01,8.81811e-01,8.74585e-02,9.99999e-01
8.040973618e-01,8.59791e-02,9.99999e-01,9.99999e-01,9.36890e-01,9.17707e-02,9.99999e-01
8.081178486e-01,9.33591e-02,9.99999e-01,9.99999e-01,9.70428e-01,9.62040e-02,9.99999e-01
8.121584379e-01,9.98318e-02,9.99999e-01,9.99999e-01,9.90811e-01,1.00758e-01,9.99999e-01
8.162192301e-01,1.05216e-01,9.99999e-01,9.99999e-01,9.97963e-01,1.05430e-01,9.99999e-01
8.203003262e-01,1.10218e-01,9.99999e-01,9.99999e-01,9.99970e-01,1.10221e-01,9.99999e-01
8.244018279e-01,1.15128e-01,9.99999e-01,9.99999e-01,9.99999e-01,1.15128e-01,9.99999e-01
8.285238370e-01,1.20151e-01,9.99999e-01,9.99999e-01,9.99999e-01,1.20151e-01,9.99999e-01
8.326664562e-01,1.25286e-01,9.99999e-01,9.99999e-01,9.99999e-01,1.25286e-01,9.99999e-01
8.368297885e-01,1.30534e-01,9.99999e-01,9.99999e-01,9.99999e-01,1.30534e-01,9.99999e-01
8.410139374e-01,1.35890e-01,9.99999e-01,9.99999e-01,9.99999e-01,1.35890e-01,9.99999e-01
8.452190071e-01,1.41355e-01,9.99999e-01,9.99999e-01,9.99999e-01,1.41355e-01,9.99999e-01
8.494451021e-01,1.46924e-01,9.99999e-01,9.99999e-01,9.99999e-01,1.46924e-01,9.99999e-01
8.536923276e-01,1.52597e-01,9.99999e-01,9.99999e-01,9.99999e-01,1.52597e-01,9.99999e-01
8.579607893e-01,1.58370e-01,9.99999e-01,9.99999e-01,9.99999e-01,1.58370e-01,9.99999e-01
8.622505932e-01,1.64241e-01,9.99999e-01,9.99999e-01,9.99999e-01,1.64241e-01,9.99999e-01
8.665618462e-01,1.45934e-01,9.99999e-01,9.99999e-01,8.57391e-01,1.70207e-01,9.99999e-01
8.708946554e-01,4.92744e-02,9.99999e-01,9.99999e-01,2.79546e-01,1.76266e-01,9.99999e-01
8.752491287e-01,6.25955e-02,9.99999e-01,9.99999e-01,3.43151e-01,1.82414e-01,9.99999e-01
8.796253743e-01,1.03145e-01,9.99999e-01,9.99999e-01,5.46754e-01,1.88649e-01,9.99999e-01
8.840235012e-01,1.41536e-01,9.99999e-01,9.99999e-01,7.25948e-01,1.94967e-01,9.99999e-01
8.884436187e-01,1.77327e-01,9.99999e-01,9.99999e-01,8.80621e-01,2.01366e-01,9.99999e-01
8.928858368e-01,1.97369e-01,9.99999e-01,9.99999e-01,9.49608e-01,2.07842e-01,9.99999e-01
8.973502660e-01,2.11724e-01,9.99999e-01,9.99999e-01,9.87548e-01,2.14393e-01,9.99999e-01
9.018370173e-01,2.20710e-01,9.99999e-01,9.99999e-01,9.98621e-01,2.21015e-01,9.99999e-01
9.063462024e-01,2.19846e-01,9.99999e-01,9.99999e-01,9.65490e-01,2.27704e-01,9.99999e-01
9.108779334e-01,2.16110e-01,9.99999e-01,9.99999e-01,9.21747e-01,2.34457e-01,9.99999e-01
9.154323231e-01,2.36718e-01,9.99999e-01,9.99999e-01,9.81124e-01,2.41272e-01,9.99999e-01
9.200094847e-01,1.95771e-01,9.99999e-01,9.99999e-01,7.88943e-01,2.48144e-01,9.99999e-01
9.246095321e-01,1.71670e-01,9.99999e-01,9.99999e-01,6.73030e-01,2.55070e-01,9.99999e-01
9.292325798e-01,1.93217e-01,9.99999e-01,9.99999e-01,7.37334e-01,2.62047e-01,9.99999e-01
9.338787427e-01,1.99774e-01,9.99999e-01,9.99999e-01,7.42457e-01,2.69072e-01,9.99999e-01
9.385481364e-01,2.21374e-01,9.99999e-01,9.99999e-01,8.01673e-01,2.76140e-01,9.99999e-01
9.432408771e-01,2.47205e-01,9.99999e-01,9.99999e-01,8.72747e-01,2.83249e-01,9.99999e-01
9.479570815e-01,2.70766e-01,9.99999e-01,9.99999e-01,9.32405e-01,2.90395e-01,9.99999e-01
9.526968669e-01,2.87722e-01,9.99999e-01,9.99999e-01,9.66886e-01,2.97575e-01,9.99999e-01
9.574603512e-01,3.00425e-01,9.99999e-01,9.99999e-01,9.85691e-01,3.04786e-01,9.99999e-01
9.622476530e-01,3.10624e-01,9.99999e-01,9.99999e-01,9.95516e-01,3.12023e-01,9.99999e-01
9.670588912e-01,3.18856e-01,9.99999e-01,9.99999e-01,9.98655e-01,3.19285e-01,9.99999e-01
9.718941857e-01,3.26536e-01,9.99999e-01,9.99999e-01,9.99905e-01,3.26567e-01,9.99999e-01
9.767536566e-01,3.33866e-01,9.99999e-01,9.99999e-01,9.99999e-01,3.33866e-01,9.99999e-01
9.816374249e-01,3.41179e-01,9.99999e-01,9.99999e-01,9.99999e-01,3.41179e-01,9.99999e-01
9.865456120e-01,3.48504e-01,9.99999e-01,9.99999e-01,9.99999e-01,3.48504e-01,9.99999e-01
9.914783401e-01,3.55836e-01,9.99999e-01,9.99999e-01,9.99999e-01,3.55836e-01,9.99999e-01
9.964357318e-01,3.63173e-01,9.99999e-01,9.99999e-01,9.99999e-01,3.63173e-01,9.99999e-01
1.001417910e+00,3.70512e-01,9.99999e-01,9.99999e-01,9.99999e-01,3.70512e-01,9.99999e-01
1.006425000e+00,3.77850e-01,9.99999e-01,9.99999e-01,9.99999e-01,3.77850e-01,9.99999e-01
1.011457125e+00,3.85185e-01,9.99999e-01,9.99999e-01,9.99999e-01,3.85185e-01,9.99999e-01
1.016514411e+00,3.92512e-01,9.99999e-01,9.99999e-01,9.99999e-01,3.92512e-01,9.99999e-01
1.021596983e+00,3.99750e-01,9.99999e-01,9.99999e-01,9.99798e-01,3.99830e-01,9.99999e-01
1.026704968e+00,4.01499e-01,9.99999e-01,9.99999e-01,9.86153e-01,4.07136e-01,9.99999e-01
1.031838492e+00,3.69858e-01,9.99999e-01,9.99999e-01,8.92455e-01,4.14427e-01,9.99999e-01
1.036997685e+00,1.75654e-02,9.99999e-01,9.99999e-01,4.16536e-02,4.21701e-01,9.99999e-01
1.042182673e+00,7.00170e-04,9.99999e-01,9.99999e-01,1.63227e-03,4.28955e-01,9.99999e-01
1.047393587e+00,1.96516e-03,9.99999e-01,9.99999e-01,4.50532e-03,4.36186e-01,9.99999e-01
1.052630555e+00,6.40453e-08,9.99999e-01,9.99999e-01,1.44443e-07,4.43394e-01,9.99999e-01
1.057893707e+00,2.43423e-07,9.99999e-01,9.99999e-01,5.40251e-07,4.50574e-01,9.99999e-01
1.063183176e+00,1.12977e-05,9.99999e-01,9.99999e-01,2.46821e-05,4.57726e-01,9.99999e-01
1.068499092e+00,1.45163e-04,9.99999e-01,9.99999e-01,3.12281e-04,4.64846e-01,9.99999e-01
1.073841587e+00,2.52914e-03,9.99999e-01,9.99999e-01,5.35911e-03,4.71933e-01,9.99999e-01
1.079210795e+00,1.81975e-02,9.99999e-01,9.99999e-01,3.79918e-02,4.78985e-01,9.99999e-01
1.084606849e+00,7.50110e-02,9.99999e-01,9.99999e-01,1.54343e-01,4.86000e-01,9.99999e-01
1.090029883e+00,1.84804e-01,9.99999e-01,9.99999e-01,3.74873e-01,4.92977e-01,9.99999e-01
1.095480033e+00,3.07577e-01,9.99999e-01,9.99999e-01,6.15261e-01,4.99912e-01,9.99999e-01
1.100957433e+00,4.00414e-01,9.99999e-01,9.99999e-01,7.90074e-01,5.06805e-01,9.99999e-01
1.106462220e+00,4.65894e-01,9.99999e-01,9.99999e-01,9.07017e-01,5.13655e-01,9.99999e-01
1.111994531e+00,5.01939e-01,9.99999e-01,9.99999e-01,9.64415e-01,5.20459e-01,9.99999e-01
1.117554504e+00,5.22584e-01,9.99999e-01,9.99999e-01,9.91213e-01,5.27216e-01,9.99999e-01
1.123142276e+00,5.33616e-01,9.99999e-01,9.99999e-01,9.99422e-01,5.33924e-01,9.99999e-01
1.128757988e+00,5.40583e-01,9.99999e-01,9.99999e-01,9.99999e-01,5.40583e-01,9.99999e-01
1.134401778e+00,5.47192e-01,9.99999e-01,9.99999e-01,9.99999e-01,5.47192e-01,9.99999e-01
1.140073787e+00,5.53747e-01,9.99999e-01,9.99999e-01,9.99999e-01,5.53747e-01,9.99999e-01
1.145774156e+00,5.60250e-01,9.99999e-01,9.99999e-01,9.99999e-01,5.60250e-01,9.99999e-01
1.151503026e+00,5.66698e-01,9.99999e-01,9.99999e-01,9.99999e-01,5.66698e-01,9.99999e-01
1.157260541e+00,5.73091e-01,9.99999e-01,9.99999e-01,9.99999e-01,5.73091e-01,9.99999e-01
1.163046844e+00,5.79428e-01,9.99999e-01,9.99999e-01,9.99999e-01,5.79428e-01,9.99999e-01
1.168862078e+00,5.85708e-01,9.99999e-01,9.99999e-01,9.99999e-01,5.85708e-01,9.99999e-01
1.174706389e+00,5.91929e-01,9.99999e-01,9.99999e-01,9.99999e-01,5.91929e-01,9.99999e-01
1.180579921e+00,5.98092e-01,9.99999e-01,9.99999e-01,9.99999e-01,5.98092e-01,9.99999e-01
1.186482820e+00,6.04178e-01,9.99999e-01,9.99999e-01,9.99971e-01,6.04195e-01,9.99999e-01
1.192415234e+00,5.81769e-01,9.99999e-01,9.99999e-01,9.53345e-01,6.10239e-01,9.99999e-01
1.198377311e+00,3.11535e-01,9.99999e-01,9.99999e-01,5.05557e-01,6.16221e-01,9.99999e-01
1.204369197e+00,1.74607e-35,9.99999e-01,9.99999e-01,2.80654e-35,6.22142e-01,9.99999e-01
1.210391043e+00,4.81260e-145,9.99999e-01,9.99999e-01,7.66334e-145,6.28002e-01,9.99999e-01
1.216442998e+00,1.88523e-125,9.99999e-01,9.99999e-01,2.97448e-125,6.33799e-01,9.99999e-01
1.222525213e+00,1.45785e-123,9.99999e-01,9.99999e-01,2.27954e-123,6.39534e-01,9.99999e-01
1.228637839e+00,3.14138e-95,9.99999e-01,9.99999e-01,4.86879e-95,6.45206e-01,9.99999e-01
