#,Wave/freq,Total,N2,O2,CO2,Rayleigh,CIA
4.000000000e-01,1.66607e-04,9.99999e-01,9.99999e-01,9.99999e-01,1.66607e-04,9.99999e-01
4.020000000e-01,1.97879e-04,9.99999e-01,9.99999e-01,9.99999e-01,1.97879e-04,9.99999e-01
4.040100000e-01,2.34183e-04,9.99999e-01,9.99999e-01,9.99999e-01,2.34183e-04,9.99999e-01
4.060300500e-01,2.76227e-04,9.99999e-01,9.99999e-01,9.99999e-01,2.76227e-04,9.99999e-01
4.080602003e-01,3.24758e-04,9.99999e-01,9.99999e-01,9.99999e-01,3.24758e-04,9.99999e-01
4.101005013e-01,3.80597e-04,9.99999e-01,9.99999e-01,9.99999e-01,3.80597e-04,9.99999e-01
4.121510038e-01,4.44641e-04,9.99999e-01,9.99999e-01,9.99999e-01,4.44641e-04,9.99999e-01
4.142117588e-01,5.17869e-04,9.99999e-01,9.99999e-01,9.99999e-01,5.17869e-04,9.99999e-01
4.162828176e-01,6.01343e-04,9.99999e-01,9.99999e-01,9.99999e-01,6.01343e-04,9.99999e-01
4.183642317e-01,6.96213e-04,9.99999e-01,9.99999e-01,9.99999e-01,6.96213e-04,9.99999e-01
4.204560528e-01,8.03722e-04,9.99999e-01,9.99999e-01,9.99999e-01,8.03722e-04,9.99999e-01
4.225583331e-01,9.25205e-04,9.99999e-01,9.99999e-01,9.99999e-01,9.25205e-04,9.99999e-01
4.246711247e-01,1.06209e-03,9.99999e-01,9.99999e-01,9.99999e-01,1.06209e-03,9.99999e-01
4.267944804e-01,1.21591e-03,9.99999e-01,9.99999e-01,9.99999e-01,1.21591e-03,9.99999e-01
4.289284528e-01,1.38830e-03,9.99999e-01,9.99999e-01,9.99999e-01,1.38830e-03,9.99999e-01
4.310730950e-01,1.58098e-03,9.99999e-01,9.99999e-01,9.99999e-01,1.58098e-03,9.99999e-01
4.332284605e-01,1.79578e-03,9.99999e-01,9.99999e-01,9.99999e-01,1.79578e-03,9.99999e-01
4.353946028e-01,2.03465e-03,9.99999e-01,9.99999e-01,9.99999e-01,2.03465e-03,9.99999e-01
4.375715758e-01,2.29961e-03,9.99999e-01,9.99999e-01,9.99999e-01,2.29961e-03,9.99999e-01
4.397594337e-01,2.59279e-03,9.99999e-01,9.99999e-01,9.99999e-01,2.59279e-03,9.99999e-01
4.419582309e-01,2.91643e-03,9.99999e-01,9.99999e-01,9.99999e-01,2.91643e-03,9.99999e-01
4.441680220e-01,3.27286e-03,9.99999e-01,9.99999e-01,9.99999e-01,3.27286e-03,9.99999e-01
4.463888621e-01,3.66449e-03,9.99999e-01,9.99999e-01,9.99999e-01,3.66449e-03,9.99999e-01
4.486208064e-01,4.09384e-03,9.99999e-01,9.99999e-01,9.99999e-01,4.09384e-03,9.99999e-01
4.508639105e-01,4.56349e-03,9.99999e-01,9.99999e-01,9.99999e-01,4.56349e-03,9.99999e-01
4.531182300e-01,5.07612e-03,9.99999e-01,9.99999e-01,9.99999e-01,5.07612e-03,9.99999e-01
4.553838212e-01,5.63447e-03,9.99999e-01,9.99999e-01,9.99999e-01,5.63447e-03,9.99999e-01
4.576607403e-01,6.24136e-03,9.99999e-01,9.99999e-01,9.99999e-01,6.24136e-03,9.99999e-01
4.599490440e-01,6.89966e-03,9.99999e-01,9.99999e-01,9.99999e-01,6.89966e-03,9.99999e-01
4.622487892e-01,7.61231e-03,9.99999e-01,9.99999e-01,9.99999e-01,7.61231e-03,9.99999e-01
4.645600332e-01,8.38227e-03,9.99999e-01,9.99999e-01,9.99999e-01,8.38227e-03,9.99999e-01
4.668828333e-01,9.21256e-03,9.99999e-01,9.99999e-01,9.99999e-01,9.21256e-03,9.99999e-01
4.692172475e-01,1.01062e-02,9.99999e-01,9.99999e-01,9.99999e-01,1.01062e-02,9.99999e-01
4.715633337e-01,1.10663e-02,9.99999e-01,9.99999e-01,9.99999e-01,1.10663e-02,9.99999e-01
4.739211504e-01,1.20959e-02,9.99999e-01,9.99999e-01,9.99999e-01,1.20959e-02,9.99999e-01
4.762907561e-01,1.31981e-02,9.99999e-01,9.99999e-01,9.99999e-01,1.31981e-02,9.99999e-01
4.786722099e-01,1.43759e-02,9.99999e-01,9.99999e-01,9.99999e-01,1.43759e-02,9.99999e-01
4.810655710e-01,1.56325e-02,9.99999e-01,9.99999e-01,9.99999e-01,1.56325e-02,9.99999e-01
4.834708988e-01,1.69707e-02,9.99999e-01,9.99999e-01,9.99999e-01,1.69707e-02,9.99999e-01
4.858882533e-01,1.83936e-02,9.99999e-01,9.99999e-01,9.99999e-01,1.83936e-02,9.99999e-01
4.883176946e-01,1.99042e-02,9.99999e-01,9.99999e-01,9.99999e-01,1.99042e-02,9.99999e-01
4.907592831e-01,2.15053e-02,9.99999e-01,9.99999e-01,9.99999e-01,2.15053e-02,9.99999e-01
4.932130795e-01,2.31996e-02,9.99999e-01,9.99999e-01,9.99999e-01,2.31996e-02,9.99999e-01
4.956791449e-01,2.49900e-02,9.99999e-01,9.99999e-01,9.99999e-01,2.49900e-02,9.99999e-01
4.981575406e-01,2.68791e-02,9.99999e-01,9.99999e-01,9.99999e-01,2.68791e-02,9.99999e-01
5.006483283e-01,2.88694e-02,9.99999e-01,9.99999e-01,9.99999e-01,2.88694e-02,9.99999e-01
5.031515699e-01,3.09634e-02,9.99999e-01,9.99999e-01,9.99999e-01,3.09634e-02,9.99999e-01
5.056673278e-01,3.31633e-02,9.99999e-01,9.99999e-01,9.99999e-01,3.31633e-02,9.99999e-01
5.081956644e-01,3.54714e-02,9.99999e-01,9.99999e-01,9.99999e-01,3.54714e-02,9.99999e-01
5.107366428e-01,3.78897e-02,9.99999e-01,9.99999e-01,9.99999e-01,3.78897e-02,9.99999e-01
5.132903260e-01,4.04203e-02,9.99999e-01,9.99999e-01,9.99999e-01,4.04203e-02,9.99999e-01
5.158567776e-01,4.30648e-02,9.99999e-01,9.99999e-01,9.99999e-01,4.30648e-02,9.99999e-01
5.184360615e-01,4.58249e-02,9.99999e-01,9.99999e-01,9.99999e-01,4.58249e-02,9.99999e-01
5.210282418e-01,4.87022e-02,9.99999e-01,9.99999e-01,9.99999e-01,4.87022e-02,9.99999e-01
5.236333830e-01,5.16979e-02,9.99999e-01,9.99999e-01,9.99999e-01,5.16979e-02,9.99999e-01
5.262515499e-01,5.48132e-02,9.99999e-01,9.99999e-01,9.99999e-01,5.48132e-02,9.99999e-01
5.288828077e-01,5.80490e-02,9.99999e-01,9.99999e-01,9.99999e-01,5.80490e-02,9.99999e-01
5.315272217e-01,6.14063e-02,9.99999e-01,9.99999e-01,9.99999e-01,6.14063e-02,9.99999e-01
5.341848578e-01,6.48857e-02,9.99999e-01,9.99999e-01,9.99999e-01,6.48857e-02,9.99999e-01
5.368557821e-01,6.84876e-02,9.99999e-01,9.99999e-01,9.99999e-01,6.84876e-02,9.99999e-01
5.395400610e-01,7.22123e-02,9.99999e-01,9.99999e-01,9.99999e-01,7.22123e-02,9.99999e-01
5.422377613e-01,7.60601e-02,9.99999e-01,9.99999e-01,9.99999e-01,7.60601e-02,9.99999e-01
5.449489501e-01,8.00307e-02,9.99999e-01,9.99999e-01,9.99999e-01,8.00307e-02,9.99999e-01
5.476736949e-01,8.41240e-02,9.99999e-01,9.99999e-01,9.99999e-01,8.41240e-02,9.99999e-01
5.504120634e-01,8.83396e-02,9.99999e-01,9.99999e-01,9.99999e-01,8.83396e-02,9.99999e-01
5.531641237e-01,9.26769e-02,9.99999e-01,9.99999e-01,9.99999e-01,9.26769e-02,9.99999e-01
5.559299443e-01,9.71351e-02,9.99999e-01,9.99999e-01,9.99999e-01,9.71351e-02,9.99999e-01
5.587095940e-01,1.01713e-01,9.99999e-01,9.99999e-01,9.99999e-01,1.01713e-01,9.99999e-01
5.615031420e-01,1.06411e-01,9.99999e-01,9.99999e-01,9.99999e-01,1.06411e-01,9.99999e-01
5.643106577e-01,1.11225e-01,9.99999e-01,9.99999e-01,9.99999e-01,1.11225e-01,9.99999e-01
5.671322110e-01,1.16157e-01,9.99999e-01,9.99999e-01,9.99999e-01,1.16157e-01,9.99999e-01
5.699678720e-01,1.21203e-01,9.99999e-01,9.99999e-01,9.99999e-01,1.21203e-01,9.99999e-01
5.728177114e-01,1.26361e-01,9.99999e-01,9.99999e-01,9.99999e-01,1.26361e-01,9.99999e-01
5.756818000e-01,1.31632e-01,9.99999e-01,9.99999e-01,9.99999e-01,1.31632e-01,9.99999e-01
5.785602090e-01,1.37011e-01,9.99999e-01,9.99999e-01,9.99999e-01,1.37011e-01,9.99999e-01
5.814530100e-01,1.42497e-01,9.99999e-01,9.99999e-01,9.99999e-01,1.42497e-01,9.99999e-01
5.843602750e-01,1.48088e-01,9.99999e-01,9.99999e-01,9.99999e-01,1.48088e-01,9.99999e-01
5.872820764e-01,1.53782e-01,9.99999e-01,9.99999e-01,9.99999e-01,1.53782e-01,9.99999e-01
5.902184868e-01,1.59575e-01,9.99999e-01,9.99999e-01,9.99999e-01,1.59575e-01,9.99999e-01
5.931695792e-01,1.65466e-01,9.99999e-01,9.99999e-01,9.99999e-01,1.65466e-01,9.99999e-01
5.961354271e-01,1.71451e-01,9.99999e-01,9.99999e-01,9.99999e-01,1.71451e-01,9.99999e-01
5.991161043e-01,1.77529e-01,9.99999e-01,9.99999e-01,9.99999e-01,1.77529e-01,9.99999e-01
6.021116848e-01,1.83695e-01,9.99999e-01,9.99999e-01,9.99999e-01,1.83695e-01,9.99999e-01
6.051222432e-01,1.89947e-01,9.99999e-01,9.99999e-01,9.99999e-01,1.89947e-01,9.99999e-01
6.081478544e-01,1.96283e-01,9.99999e-01,9.99999e-01,9.99999e-01,1.96283e-01,9.99999e-01
6.111885937e-01,2.02698e-01,9.99999e-01,9.99999e-01,9.99999e-01,2.02698e-01,9.99999e-01
6.142445367e-01,2.09190e-01,9.99999e-01,9.99999e-01,9.99999e-01,2.09190e-01,9.99999e-01
6.173157594e-01,2.15756e-01,9.99999e-01,9.99999e-01,9.99999e-01,2.15756e-01,9.99999e-01
6.204023382e-01,2.22391e-01,9.99999e-01,9.99999e-01,9.99999e-01,2.22391e-01,9.99999e-01
6.235043498e-01,2.29094e-01,9.99999e-01,9.99999e-01,9.99999e-01,2.29094e-01,9.99999e-01
6.266218716e-01,2.35861e-01,9.99999e-01,9.99999e-01,9.99999e-01,2.35861e-01,9.99999e-01
6.297549810e-01,2.42687e-01,9.99999e-01,9.99999e-01,9.99999e-01,2.42687e-01,9.99999e-01
6.329037559e-01,2.49571e-01,9.99999e-01,9.99999e-01,9.99999e-01,2.49571e-01,9.99999e-01
6.360682746e-01,2.56508e-01,9.99999e-01,9.99999e-01,9.99999e-01,2.56508e-01,9.99999e-01
6.392486160e-01,2.63495e-01,9.99999e-01,9.99999e-01,9.99999e-01,2.63495e-01,9.99999e-01
6.424448591e-01,2.70529e-01,9.99999e-01,9.99999e-01,9.99999e-01,2.70529e-01,9.99999e-01
6.456570834e-01,2.77606e-01,9.99999e-01,9.99999e-01,9.99999e-01,2.77606e-01,9.99999e-01
6.488853688e-01,2.84723e-01,9.99999e-01,9.99999e-01,9.99999e-01,2.84723e-01,9.99999e-01
6.521297956e-01,2.91876e-01,9.99999e-01,9.99999e-01,9.99999e-01,2.91876e-01,9.99999e-01
6.553904446e-01,2.99063e-01,9.99999e-01,9.99999e-01,9.99999e-01,2.99063e-01,9.99999e-01
6.586673968e-01,3.06279e-01,9.99999e-01,9.99999e-01,9.99999e-01,3.06279e-01,9.99999e-01
6.619607338e-01,3.13522e-01,9.99999e-01,9.99999e-01,9.99999e-01,3.13522e-01,9.99999e-01
6.652705375e-01,3.20788e-01,9.99999e-01,9.99999e-01,9.99999e-01,3.20788e-01,9.99999e-01
6.685968902e-01,3.28074e-01,9.99999e-01,9.99999e-01,9.99999e-01,3.28074e-01,9.99999e-01
6.719398746e-01,3.35376e-01,9.99999e-01,9.99999e-01,9.99999e-01,3.35376e-01,9.99999e-01
6.752995740e-01,3.42692e-01,9.99999e-01,9.99999e-01,9.99999e-01,3.42692e-01,9.99999e-01
6.786760719e-01,3.50018e-01,9.99999e-01,9.99999e-01,9.99999e-01,3.50018e-01,9.99999e-01
6.820694522e-01,3.57352e-01,9.99999e-01,9.99999e-01,9.99999e-01,3.57352e-01,9.99999e-01
6.854797995e-01,3.64690e-01,9.99999e-01,9.99999e-01,9.99999e-01,3.64690e-01,9.99999e-01
6.889071985e-01,3.72029e-01,9.99999e-01,9.99999e-01,9.99999e-01,3.72029e-01,9.99999e-01
6.923517345e-01,3.79366e-01,9.99999e-01,9.99999e-01,9.99999e-01,3.79366e-01,9.99999e-01
6.958134932e-01,3.86699e-01,9.99999e-01,9.99999e-01,9.99999e-01,3.86699e-01,9.99999e-01
6.992925606e-01,3.94025e-01,9.99999e-01,9.99999e-01,9.99999e-01,3.94025e-01,9.99999e-01
7.027890234e-01,4.01341e-01,9.99999e-01,9.99999e-01,9.99999e-01,4.01341e-01,9.99999e-01
7.063029686e-01,4.08644e-01,9.99999e-01,9.99999e-01,9.99999e-01,4.08644e-01,9.99999e-01
7.098344834e-01,4.15931e-01,9.99999e-01,9.99999e-01,9.99999e-01,4.15931e-01,9.99999e-01
7.133836558e-01,4.23201e-01,9.99999e-01,9.99999e-01,9.99999e-01,4.23201e-01,9.99999e-01
7.169505741e-01,4.30451e-01,9.99999e-01,9.99999e-01,9.99999e-01,4.30451e-01,9.99999e-01
7.205353270e-01,4.37678e-01,9.99999e-01,9.99999e-01,9.99999e-01,4.37678e-01,9.99999e-01
7.241380036e-01,4.44880e-01,9.99999e-01,9.99999e-01,9.99999e-01,4.44880e-01,9.99999e-01
7.277586936e-01,4.52054e-01,9.99999e-01,9.99999e-01,9.99999e-01,4.52054e-01,9.99999e-01
7.313974871e-01,4.59200e-01,9.99999e-01,9.99999e-01,9.99999e-01,4.59200e-01,9.99999e-01
7.350544745e-01,4.66313e-01,9.99999e-01,9.99999e-01,9.99999e-01,4.66313e-01,9.99999e-01
7.387297469e-01,4.73393e-01,9.99999e-01,9.99999e-01,9.99999e-01,4.73393e-01,9.99999e-01
7.424233956e-01,4.80438e-01,9.99999e-01,9.99999e-01,9.99999e-01,4.80438e-01,9.99999e-01
7.461355126e-01,4.87445e-01,9.99999e-01,9.99999e-01,9.99999e-01,4.87445e-01,9.99999e-01
7.498661902e-01,4.94413e-01,9.99999e-01,9.99999e-01,9.99999e-01,4.94413e-01,9.99999e-01
7.536155211e-01,5.01340e-01,9.99999e-01,9.99999e-01,9.99999e-01,5.01340e-01,9.99999e-01
7.573835987e-01,5.08224e-01,9.99999e-01,9.99999e-01,9.99999e-01,5.08224e-01,9.99999e-01
7.611705167e-01,5.15065e-01,9.99999e-01,9.99999e-01,9.99999e-01,5.15065e-01,9.99999e-01
7.649763693e-01,5.21859e-01,9.99999e-01,9.99999e-01,9.99999e-01,5.21859e-01,9.99999e-01
7.688012511e-01,5.28606e-01,9.99999e-01,9.99999e-01,9.99999e-01,5.28606e-01,9.99999e-01
7.726452574e-01,5.35305e-01,9.99999e-01,9.99999e-01,9.99999e-01,5.35305e-01,9.99999e-01
7.765084837e-01,5.41953e-01,9.99999e-01,9.99999e-01,9.99999e-01,5.41953e-01,9.99999e-01
7.803910261e-01,5.32934e-01,9.99999e-01,9.99999e-01,9.71530e-01,5.48551e-01,9.99999e-01
7.842929812e-01,4.89698e-01,9.99999e-01,9.99999e-01,8.82187e-01,5.55096e-01,9.99999e-01
7.882144461e-01,4.90909e-01,9.99999e-01,9.99999e-01,8.74144e-01,5.61587e-01,9.99999e-01
7.921555184e-01,5.25386e-01,9.99999e-01,9.99999e-01,9.24935e-01,5.68024e-01,9.99999e-01
7.961162960e-01,5.45228e-01,9.99999e-01,9.99999e-01,9.49204e-01,5.74406e-01,9.99999e-01
8.000968774e-01,5.64552e-01,9.99999e-01,9.99999e-01,9.72140e-01,5.80731e-01,9.99999e-01
8.040973618e-01,5.78477e-01,9.99999e-01,9.99999e-01,9.85482e-01,5.86998e-01,9.99999e-01
8.081178486e-01,5.89238e-01,9.99999e-01,9.99999e-01,9.93307e-01,5.93208e-01,9.99999e-01
8.121584379e-01,5.98119e-01,9.99999e-01,9.99999e-01,9.97931e-01,5.99358e-01,9.99999e-01
8.162192301e-01,6.05173e-01,9.99999e-01,9.99999e-01,9.99542e-01,6.05449e-01,9.99999e-01
8.203003262e-01,6.11476e-01,9.99999e-01,9.99999e-01,9.99992e-01,6.11480e-01,9.99999e-01
8.244018279e-01,6.17450e-01,9.99999e-01,9.99999e-01,9.99999e-01,6.17450e-01,9.99999e-01
8.285238370e-01,6.23358e-01,9.99999e-01,9.99999e-01,9.99999e-01,6.23358e-01,9.99999e-01
8.326664562e-01,6.29205e-01,9.99999e-01,9.99999e-01,9.99999e-01,6.29205e-01,9.99999e-01
8.368297885e-01,6.34989e-01,9.99999e-01,9.99999e-01,9.99999e-01,6.34989e-01,9.99999e-01
8.410139374e-01,6.40711e-01,9.99999e-01,9.99999e-01,9.99999e-01,6.40711e-01,9.99999e-01
8.452190071e-01,6.46370e-01,9.99999e-01,9.99999e-01,9.99999e-01,6.46370e-01,9.99999e-01
8.494451021e-01,6.51966e-01,9.99999e-01,9.99999e-01,9.99999e-01,6.51966e-01,9.99999e-01
8.536923276e-01,6.57498e-01,9.99999e-01,9.99999e-01,9.99999e-01,6.57498e-01,9.99999e-01
8.579607893e-01,6.62966e-01,9.99999e-01,9.99999e-01,9.99999e-01,6.62966e-01,9.99999e-01
8.622505932e-01,6.68370e-01,9.99999e-01,9.99999e-01,9.99999e-01,6.68370e-01,9.99999e-01
8.665618462e-01,6.28939e-01,9.99999e-01,9.99999e-01,9.33543e-01,6.73711e-01,9.99999e-01
8.708946554e-01,4.92986e-01,9.99999e-01,9.99999e-01,7.26060e-01,6.78987e-01,9.99999e-01
8.752491287e-01,5.29280e-01,9.99999e-01,9.99999e-01,7.73575e-01,6.84200e-01,9.99999e-01
8.796253743e-01,5.98984e-01,9.99999e-01,9.99999e-01,8.68913e-01,6.89348e-01,9.99999e-01
8.840235012e-01,6.45717e-01,9.99999e-01,9.99999e-01,9.29849e-01,6.94432e-01,9.99999e-01
8.884436187e-01,6.79713e-01,9.99999e-01,9.99999e-01,9.71779e-01,6.99452e-01,9.99999e-01
8.928858368e-01,6.96290e-01,9.99999e-01,9.99999e-01,9.88474e-01,7.04408e-01,9.99999e-01
8.973502660e-01,7.07309e-01,9.99999e-01,9.99999e-01,9.97192e-01,7.09300e-01,9.99999e-01
9.018370173e-01,7.13908e-01,9.99999e-01,9.99999e-01,9.99690e-01,7.14129e-01,9.99999e-01
9.063462024e-01,7.13163e-01,9.99999e-01,9.99999e-01,9.92028e-01,7.18894e-01,9.99999e-01
9.108779334e-01,7.10473e-01,9.99999e-01,9.99999e-01,9.81864e-01,7.23596e-01,9.99999e-01
9.154323231e-01,7.25119e-01,9.99999e-01,9.99999e-01,9.95720e-01,7.28235e-01,9.99999e-01
9.200094847e-01,6.87845e-01,9.99999e-01,9.99999e-01,9.38638e-01,7.32811e-01,9.99999e-01
9.246095321e-01,6.74100e-01,9.99999e-01,9.99999e-01,9.14250e-01,7.37324e-01,9.99999e-01
9.292325798e-01,6.91310e-01,9.99999e-01,9.99999e-01,9.31965e-01,7.41776e-01,9.99999e-01
9.338787427e-01,6.97144e-01,9.99999e-01,9.99999e-01,9.34301e-01,7.46165e-01,9.99999e-01
9.385481364e-01,7.13967e-01,9.99999e-01,9.99999e-01,9.51329e-01,7.50493e-01,9.99999e-01
9.432408771e-01,7.32077e-01,9.99999e-01,9.99999e-01,9.69945e-01,7.54760e-01,9.99999e-01
9.479570815e-01,7.47177e-01,9.99999e-01,9.99999e-01,9.84466e-01,7.58966e-01,9.99999e-01
9.526968669e-01,7.57376e-01,9.99999e-01,9.99999e-01,9.92482e-01,7.63112e-01,9.99999e-01
9.574603512e-01,7.64728e-01,9.99999e-01,9.99999e-01,9.96779e-01,7.67198e-01,9.99999e-01
9.622476530e-01,7.70450e-01,9.99999e-01,9.99999e-01,9.98994e-01,7.71225e-01,9.99999e-01
9.670588912e-01,7.74959e-01,9.99999e-01,9.99999e-01,9.99698e-01,7.75192e-01,9.99999e-01
9.718941857e-01,7.79085e-01,9.99999e-01,9.99999e-01,9.99978e-01,7.79101e-01,9.99999e-01
9.767536566e-01,7.82952e-01,9.99999e-01,9.99999e-01,9.99999e-01,7.82952e-01,9.99999e-01
9.816374249e-01,7.86745e-01,9.99999e-01,9.99999e-01,9.99999e-01,7.86745e-01,9.99999e-01
9.865456120e-01,7.90481e-01,9.99999e-01,9.99999e-01,9.99999e-01,7.90481e-01,9.99999e-01
9.914783401e-01,7.94161e-01,9.99999e-01,9.99999e-01,9.99999e-01,7.94161e-01,9.99999e-01
9.964357318e-01,7.97784e-01,9.99999e-01,9.99999e-01,9.99999e-01,7.97784e-01,9.99999e-01
1.001417910e+00,8.01352e-01,9.99999e-01,9.99999e-01,9.99999e-01,8.01352e-01,9.99999e-01
1.006425000e+00,8.04865e-01,9.99999e-01,9.99999e-01,9.99999e-01,8.04865e-01,9.99999e-01
1.011457125e+00,8.08324e-01,9.99999e-01,9.99999e-01,9.99999e-01,8.08324e-01,9.99999e-01
1.016514411e+00,8.11729e-01,9.99999e-01,9.99999e-01,9.99999e-01,8.11729e-01,9.99999e-01
1.021596983e+00,8.15045e-01,9.99999e-01,9.99999e-01,9.99957e-01,8.15080e-01,9.99999e-01
1.026704968e+00,8.15833e-01,9.99999e-01,9.99999e-01,9.96888e-01,8.18379e-01,9.99999e-01
1.031838492e+00,7.89396e-01,9.99999e-01,9.99999e-01,9.60773e-01,8.21625e-01,9.99999e-01
1.036997685e+00,1.49738e-01,9.99999e-01,9.99999e-01,1.81540e-01,8.24820e-01,9.99999e-01
1.042182673e+00,1.40075e-01,9.99999e-01,9.99999e-01,1.69180e-01,8.27963e-01,9.99999e-01
1.047393587e+00,1.52347e-01,9.99999e-01,9.99999e-01,1.83318e-01,8.31057e-01,9.99999e-01
1.052630555e+00,7.30813e-03,9.99999e-01,9.99999e-01,8.76169e-03,8.34100e-01,9.99999e-01
1.057893707e+00,1.70772e-02,9.99999e-01,9.99999e-01,2.04005e-02,8.37094e-01,9.99999e-01
1.063183176e+00,4.82310e-02,9.99999e-01,9.99999e-01,5.74151e-02,8.40039e-01,9.99999e-01
1.068499092e+00,1.18240e-01,9.99999e-01,9.99999e-01,1.40272e-01,8.42936e-01,9.99999e-01
1.073841587e+00,2.44810e-01,9.99999e-01,9.99999e-01,2.89446e-01,8.45786e-01,9.99999e-01
1.079210795e+00,3.87265e-01,9.99999e-01,9.99999e-01,4.56364e-01,8.48589e-01,9.99999e-01
1.084606849e+00,5.53520e-01,9.99999e-01,9.99999e-01,6.50171e-01,8.51345e-01,9.99999e-01
1.090029883e+00,6.83122e-01,9.99999e-01,9.99999e-01,7.99855e-01,8.54056e-01,9.99999e-01
1.095480033e+00,7.67499e-01,9.99999e-01,9.99999e-01,8.95855e-01,8.56721e-01,9.99999e-01
1.100957433e+00,8.15019e-01,9.99999e-01,9.99999e-01,9.48420e-01,8.59342e-01,9.99999e-01
1.106462220e+00,8.43257e-01,9.99999e-01,9.99999e-01,9.78347e-01,8.61919e-01,9.99999e-01
1.111994531e+00,8.57469e-01,9.99999e-01,9.99999e-01,9.91920e-01,8.64453e-01,9.99999e-01
1.117554504e+00,8.65230e-01,9.99999e-01,9.99999e-01,9.98023e-01,8.66943e-01,9.99999e-01
1.123142276e+00,8.69279e-01,9.99999e-01,9.99999e-01,9.99869e-01,8.69392e-01,9.99999e-01
1.128757988e+00,8.71799e-01,9.99999e-01,9.99999e-01,9.99999e-01,8.71799e-01,9.99999e-01
1.134401778e+00,8.74164e-01,9.99999e-01,9.99999e-01,9.99999e-01,8.74164e-01,9.99999e-01
1.140073787e+00,8.76490e-01,9.99999e-01,9.99999e-01,9.99999e-01,8.76490e-01,9.99999e-01
1.145774156e+00,8.78775e-01,9.99999e-01,9.99999e-01,9.99999e-01,8.78775e-01,9.99999e-01
1.151503026e+00,8.81021e-01,9.99999e-01,9.99999e-01,9.99999e-01,8.81021e-01,9.99999e-01
1.157260541e+00,8.83228e-01,9.99999e-01,9.99999e-01,9.99999e-01,8.83228e-01,9.99999e-01
1.163046844e+00,8.85397e-01,9.99999e-01,9.99999e-01,9.99999e-01,8.85397e-01,9.99999e-01
1.168862078e+00,8.87528e-01,9.99999e-01,9.99999e-01,9.99999e-01,8.87528e-01,9.99999e-01
1.174706389e+00,8.89622e-01,9.99999e-01,9.99999e-01,9.99999e-01,8.89622e-01,9.99999e-01
1.180579921e+00,8.91680e-01,9.99999e-01,9.99999e-01,9.99999e-01,8.91680e-01,9.99999e-01
1.186482820e+00,8.93696e-01,9.99999e-01,9.99999e-01,9.99993e-01,8.93702e-01,9.99999e-01
1.192415234e+00,8.85745e-01,9.99999e-01,9.99999e-01,9.88898e-01,8.95688e-01,9.99999e-01
1.198377311e+00,5.08498e-01,9.99999e-01,9.99999e-01,5.66483e-01,8.97639e-01,9.99999e-01
1.204369197e+00,1.15309e-09,9.99999e-01,9.99999e-01,1.28185e-09,8.99556e-01,9.99999e-01
1.210391043e+00,4.17905e-34,9.99999e-01,9.99999e-01,4.63598e-34,9.01438e-01,9.99999e-01
1.216442998e+00,9.80746e-30,9.99999e-01,9.99999e-01,1.08575e-29,9.03288e-01,9.99999e-01
1.222525213e+00,2.59588e-29,9.99999e-01,9.99999e-01,2.86805e-29,9.05104e-01,9.99999e-01
1.228637839e+00,1.09311e-22,9.99999e-01,9.99999e-01,1.20534e-22,9.06889e-01,9.99999e-01
