#,Wave/freq,Total,N2,O2,CO2,Rayleigh,CIA
4.000000000e-01,3.09756e-09,9.99999e-01,9.99999e-01,9.99999e-01,3.09756e-09,9.99999e-01
4.020000000e-01,4.56312e-09,9.99999e-01,9.99999e-01,9.99999e-01,4.56312e-09,9.99999e-01
4.040100000e-01,6.66825e-09,9.99999e-01,9.99999e-01,9.99999e-01,6.66825e-09,9.99999e-01
4.060300500e-01,9.67182e-09,9.99999e-01,9.99999e-01,9.99999e-01,9.67182e-09,9.99999e-01
4.080602003e-01,1.39256e-08,9.99999e-01,9.99999e-01,9.99999e-01,1.39256e-08,9.99999e-01
4.101005013e-01,1.99064e-08,9.99999e-01,9.99999e-01,9.99999e-01,1.99064e-08,9.99999e-01
4.121510038e-01,2.82558e-08,9.99999e-01,9.99999e-01,9.99999e-01,2.82558e-08,9.99999e-01
4.142117588e-01,3.98306e-08,9.99999e-01,9.99999e-01,9.99999e-01,3.98306e-08,9.99999e-01
4.162828176e-01,5.57674e-08,9.99999e-01,9.99999e-01,9.99999e-01,5.57674e-08,9.99999e-01
4.183642317e-01,7.75635e-08,9.99999e-01,9.99999e-01,9.99999e-01,7.75635e-08,9.99999e-01
4.204560528e-01,1.07178e-07,9.99999e-01,9.99999e-01,9.99999e-01,1.07178e-07,9.99999e-01
4.225583331e-01,1.47156e-07,9.99999e-01,9.99999e-01,9.99999e-01,1.47156e-07,9.99999e-01
4.246711247e-01,2.00785e-07,9.99999e-01,9.99999e-01,9.99999e-01,2.00785e-07,9.99999e-01
4.267944804e-01,2.72281e-07,9.99999e-01,9.99999e-01,9.99999e-01,2.72281e-07,9.99999e-01
4.289284528e-01,3.67023e-07,9.99999e-01,9.99999e-01,9.99999e-01,3.67023e-07,9.99999e-01
4.310730950e-01,4.91820e-07,9.99999e-01,9.99999e-01,9.99999e-01,4.91820e-07,9.99999e-01
4.332284605e-01,6.55252e-07,9.99999e-01,9.99999e-01,9.99999e-01,6.55252e-07,9.99999e-01
4.353946028e-01,8.68060e-07,9.99999e-01,9.99999e-01,9.99999e-01,8.68060e-07,9.99999e-01
4.375715758e-01,1.14361e-06,9.99999e-01,9.99999e-01,9.99999e-01,1.14361e-06,9.99999e-01
4.397594337e-01,1.49845e-06,9.99999e-01,9.99999e-01,9.99999e-01,1.49845e-06,9.99999e-01
4.419582309e-01,1.95293e-06,9.99999e-01,9.99999e-01,9.99999e-01,1.95293e-06,9.99999e-01
4.441680220e-01,2.53198e-06,9.99999e-01,9.99999e-01,9.99999e-01,2.53198e-06,9.99999e-01
4.463888621e-01,3.26592e-06,9.99999e-01,9.99999e-01,9.99999e-01,3.26592e-06,9.99999e-01
4.486208064e-01,4.19149e-06,9.99999e-01,9.99999e-01,9.99999e-01,4.19149e-06,9.99999e-01
4.508639105e-01,5.35291e-06,9.99999e-01,9.99999e-01,9.99999e-01,5.35291e-06,9.99999e-01
4.531182300e-01,6.80320e-06,9.99999e-01,9.99999e-01,9.99999e-01,6.80320e-06,9.99999e-01
4.553838212e-01,8.60557e-06,9.99999e-01,9.99999e-01,9.99999e-01,8.60557e-06,9.99999e-01
4.576607403e-01,1.08350e-05,9.99999e-01,9.99999e-01,9.99999e-01,1.08350e-05,9.99999e-01
4.599490440e-01,1.35802e-05,9.99999e-01,9.99999e-01,9.99999e-01,1.35802e-05,9.99999e-01
4.622487892e-01,1.69450e-05,9.99999e-01,9.99999e-01,9.99999e-01,1.69450e-05,9.99999e-01
4.645600332e-01,2.10514e-05,9.99999e-01,9.99999e-01,9.99999e-01,2.10514e-05,9.99999e-01
4.668828333e-01,2.60410e-05,9.99999e-01,9.99999e-01,9.99999e-01,2.60410e-05,9.99999e-01
4.692172475e-01,3.20781e-05,9.99999e-01,9.99999e-01,9.99999e-01,3.20781e-05,9.99999e-01
4.715633337e-01,3.93525e-05,9.99999e-01,9.99999e-01,9.99999e-01,3.93525e-05,9.99999e-01
4.739211504e-01,4.80820e-05,9.99999e-01,9.99999e-01,9.99999e-01,4.80820e-05,9.99999e-01
4.762907561e-01,5.85160e-05,9.99999e-01,9.99999e-01,9.99999e-01,5.85160e-05,9.99999e-01
4.786722099e-01,7.09384e-05,9.99999e-01,9.99999e-01,9.99999e-01,7.09384e-05,9.99999e-01
4.810655710e-01,8.56715e-05,9.99999e-01,9.99999e-01,9.99999e-01,8.56715e-05,9.99999e-01
4.834708988e-01,1.03080e-04,9.99999e-01,9.99999e-01,9.99999e-01,1.03080e-04,9.99999e-01
4.858882533e-01,1.23573e-04,9.99999e-01,9.99999e-01,9.99999e-01,1.23573e-04,9.99999e-01
4.883176946e-01,1.47610e-04,9.99999e-01,9.99999e-01,9.99999e-01,1.47610e-04,9.99999e-01
4.907592831e-01,1.75706e-04,9.99999e-01,9.99999e-01,9.99999e-01,1.75706e-04,9.99999e-01
4.932130795e-01,2.08430e-04,9.99999e-01,9.99999e-01,9.99999e-01,2.08430e-04,9.99999e-01
4.956791449e-01,2.46417e-04,9.99999e-01,9.99999e-01,9.99999e-01,2.46417e-04,9.99999e-01
4.981575406e-01,2.90365e-04,9.99999e-01,9.99999e-01,9.99999e-01,2.90365e-04,9.99999e-01
5.006483283e-01,3.41044e-04,9.99999e-01,9.99999e-01,9.99999e-01,3.41044e-04,9.99999e-01
5.031515699e-01,3.99296e-04,9.99999e-01,9.99999e-01,9.99999e-01,3.99296e-04,9.99999e-01
5.056673278e-01,4.66045e-04,9.99999e-01,9.99999e-01,9.99999e-01,4.66045e-04,9.99999e-01
5.081956644e-01,5.42294e-04,9.99999e-01,9.99999e-01,9.99999e-01,5.42294e-04,9.99999e-01
5.107366428e-01,6.29132e-04,9.99999e-01,9.99999e-01,9.99999e-01,6.29132e-04,9.99999e-01
5.132903260e-01,7.27738e-04,9.99999e-01,9.99999e-01,9.99999e-01,7.27738e-04,9.99999e-01
5.158567776e-01,8.39380e-04,9.99999e-01,9.99999e-01,9.99999e-01,8.39380e-04,9.99999e-01
5.184360615e-01,9.65424e-04,9.99999e-01,9.99999e-01,9.99999e-01,9.65424e-04,9.99999e-01
5.210282418e-01,1.10733e-03,9.99999e-01,9.99999e-01,9.99999e-01,1.10733e-03,9.99999e-01
5.236333830e-01,1.26666e-03,9.99999e-01,9.99999e-01,9.99999e-01,1.26666e-03,9.99999e-01
5.262515499e-01,1.44507e-03,9.99999e-01,9.99999e-01,9.99999e-01,1.44507e-03,9.99999e-01
5.288828077e-01,1.64433e-03,9.99999e-01,9.99999e-01,9.99999e-01,1.64433e-03,9.99999e-01
5.315272217e-01,1.86629e-03,9.99999e-01,9.99999e-01,9.99999e-01,1.86629e-03,9.99999e-01
5.341848578e-01,2.11293e-03,9.99999e-01,9.99999e-01,9.99999e-01,2.11293e-03,9.99999e-01
5.368557821e-01,2.38630e-03,9.99999e-01,9.99999e-01,9.99999e-01,2.38630e-03,9.99999e-01
5.395400610e-01,2.68857e-03,9.99999e-01,9.99999e-01,9.99999e-01,2.68857e-03,9.99999e-01
5.422377613e-01,3.02200e-03,9.99999e-01,9.99999e-01,9.99999e-01,3.02200e-03,9.99999e-01
5.449489501e-01,3.38895e-03,9.99999e-01,9.99999e-01,9.99999e-01,3.38895e-03,9.99999e-01
5.476736949e-01,3.79186e-03,9.99999e-01,9.99999e-01,9.99999e-01,3.79186e-03,9.99999e-01
5.504120634e-01,4.23327e-03,9.99999e-01,9.99999e-01,9.99999e-01,4.23327e-03,9.99999e-01
5.531641237e-01,4.71580e-03,9.99999e-01,9.99999e-01,9.99999e-01,4.71580e-03,9.99999e-01
5.559299443e-01,5.24214e-03,9.99999e-01,9.99999e-01,9.99999e-01,5.24214e-03,9.99999e-01
5.587095940e-01,5.81505e-03,9.99999e-01,9.99999e-01,9.99999e-01,5.81505e-03,9.99999e-01
5.615031420e-01,6.43738e-03,9.99999e-01,9.99999e-01,9.99999e-01,6.43738e-03,9.99999e-01
5.643106577e-01,7.11201e-03,9.99999e-01,9.99999e-01,9.99999e-01,7.11201e-03,9.99999e-01
5.671322110e-01,7.84190e-03,9.99999e-01,9.99999e-01,9.99999e-01,7.84190e-03,9.99999e-01
5.699678720e-01,8.63001e-03,9.99999e-01,9.99999e-01,9.99999e-01,8.63001e-03,9.99999e-01
5.728177114e-01,9.47939e-03,9.99999e-01,9.99999e-01,9.99999e-01,9.47939e-03,9.99999e-01
5.756818000e-01,1.03931e-02,9.99999e-01,9.99999e-01,9.99999e-01,1.03931e-02,9.99999e-01
5.785602090e-01,1.13741e-02,9.99999e-01,9.99999e-01,9.99999e-01,1.13741e-02,9.99999e-01
5.814530100e-01,1.24256e-02,9.99999e-01,9.99999e-01,9.99999e-01,1.24256e-02,9.99999e-01
5.843602750e-01,1.35507e-02,9.99999e-01,9.99999e-01,9.99999e-01,1.35507e-02,9.99999e-01
5.872820764e-01,1.47523e-02,9.99999e-01,9.99999e-01,9.99999e-01,1.47523e-02,9.99999e-01
5.902184868e-01,1.60335e-02,9.99999e-01,9.99999e-01,9.99999e-01,1.60335e-02,9.99999e-01
5.931695792e-01,1.73974e-02,9.99999e-01,9.99999e-01,9.99999e-01,1.73974e-02,9.99999e-01
5.961354271e-01,1.88468e-02,9.99999e-01,9.99999e-01,9.99999e-01,1.88468e-02,9.99999e-01
5.991161043e-01,2.03848e-02,9.99999e-01,9.99999e-01,9.99999e-01,2.03848e-02,9.99999e-01
6.021116848e-01,2.20142e-02,9.99999e-01,9.99999e-01,9.99999e-01,2.20142e-02,9.99999e-01
6.051222432e-01,2.37377e-02,9.99999e-01,9.99999e-01,9.99999e-01,2.37377e-02,9.99999e-01
6.081478544e-01,2.55580e-02,9.99999e-01,9.99999e-01,9.99999e-01,2.55580e-02,9.99999e-01
6.111885937e-01,2.74778e-02,9.99999e-01,9.99999e-01,9.99999e-01,2.74778e-02,9.99999e-01
6.142445367e-01,2.94996e-02,9.99999e-01,9.99999e-01,9.99999e-01,2.94996e-02,9.99999e-01
6.173157594e-01,3.16258e-02,9.99999e-01,9.99999e-01,9.99999e-01,3.16258e-02,9.99999e-01
6.204023382e-01,3.38586e-02,9.99999e-01,9.99999e-01,9.99999e-01,3.38586e-02,9.99999e-01
6.235043498e-01,3.62003e-02,9.99999e-01,9.99999e-01,9.99999e-01,3.62003e-02,9.99999e-01
6.266218716e-01,3.86528e-02,9.99999e-01,9.99999e-01,9.99999e-01,3.86528e-02,9.99999e-01
6.297549810e-01,4.12180e-02,9.99999e-01,9.99999e-01,9.99999e-01,4.12180e-02,9.99999e-01
6.329037559e-01,4.38978e-02,9.99999e-01,9.99999e-01,9.99999e-01,4.38978e-02,9.99999e-01
6.360682746e-01,4.66937e-02,9.99999e-01,9.99999e-01,9.99999e-01,4.66937e-02,9.99999e-01
6.392486160e-01,4.96070e-02,9.99999e-01,9.99999e-01,9.99999e-01,4.96070e-02,9.99999e-01
6.424448591e-01,5.26392e-02,9.99999e-01,9.99999e-01,9.99999e-01,5.26392e-02,9.99999e-01
6.456570834e-01,5.57914e-02,9.99999e-01,9.99999e-01,9.99999e-01,5.57914e-02,9.99999e-01
6.488853688e-01,5.90643e-02,9.99999e-01,9.99999e-01,9.99999e-01,5.90643e-02,9.99999e-01
6.521297956e-01,6.24589e-02,9.99999e-01,9.99999e-01,9.99999e-01,6.24589e-02,9.99999e-01
6.553904446e-01,6.59758e-02,9.99999e-01,9.99999e-01,9.99999e-01,6.59758e-02,9.99999e-01
6.586673968e-01,6.96153e-02,9.99999e-01,9.99999e-01,9.99999e-01,6.96153e-02,9.99999e-01
6.619607338e-01,7.33777e-02,9.99999e-01,9.99999e-01,9.99999e-01,7.33777e-02,9.99999e-01
6.652705375e-01,7.72631e-02,9.99999e-01,9.99999e-01,9.99999e-01,7.72631e-02,9.99999e-01
6.685968902e-01,8.12713e-02,9.99999e-01,9.99999e-01,9.99999e-01,8.12713e-02,9.99999e-01
6.719398746e-01,8.54022e-02,9.99999e-01,9.99999e-01,9.99999e-01,8.54022e-02,9.99999e-01
6.752995740e-01,8.96551e-02,9.99999e-01,9.99999e-01,9.99999e-01,8.96551e-02,9.99999e-01
6.786760719e-01,9.40295e-02,9.99999e-01,9.99999e-01,9.99999e-01,9.40295e-02,9.99999e-01
6.820694522e-01,9.85246e-02,9.99999e-01,9.99999e-01,9.99999e-01,9.85246e-02,9.99999e-01
6.854797995e-01,1.03139e-01,9.99999e-01,9.99999e-01,9.99999e-01,1.03139e-01,9.99999e-01
6.889071985e-01,1.07873e-01,9.99999e-01,9.99999e-01,9.99999e-01,1.07873e-01,9.99999e-01
6.923517345e-01,1.12723e-01,9.99999e-01,9.99999e-01,9.99999e-01,1.12723e-01,9.99999e-01
6.958134932e-01,1.17690e-01,9.99999e-01,9.99999e-01,9.99999e-01,1.17690e-01,9.99999e-01
6.992925606e-01,1.22771e-01,9.99999e-01,9.99999e-01,9.99999e-01,1.22771e-01,9.99999e-01
7.027890234e-01,1.27964e-01,9.99999e-01,9.99999e-01,9.99999e-01,1.27964e-01,9.99999e-01
7.063029686e-01,1.33268e-01,9.99999e-01,9.99999e-01,9.99999e-01,1.33268e-01,9.99999e-01
7.098344834e-01,1.38680e-01,9.99999e-01,9.99999e-01,9.99999e-01,1.38680e-01,9.99999e-01
7.133836558e-01,1.44198e-01,9.99999e-01,9.99999e-01,9.99999e-01,1.44198e-01,9.99999e-01
7.169505741e-01,1.49821e-01,9.99999e-01,9.99999e-01,9.99999e-01,1.49821e-01,9.99999e-01
7.205353270e-01,1.55546e-01,9.99999e-01,9.99999e-01,9.99999e-01,1.55546e-01,9.99999e-01
7.241380036e-01,1.61369e-01,9.99999e-01,9.99999e-01,9.99999e-01,1.61369e-01,9.99999e-01
7.277586936e-01,1.67289e-01,9.99999e-01,9.99999e-01,9.99999e-01,1.67289e-01,9.99999e-01
7.313974871e-01,1.73303e-01,9.99999e-01,9.99999e-01,9.99999e-01,1.73303e-01,9.99999e-01
7.350544745e-01,1.79408e-01,9.99999e-01,9.99999e-01,9.99999e-01,1.79408e-01,9.99999e-01
7.387297469e-01,1.85601e-01,9.99999e-01,9.99999e-01,9.99999e-01,1.85601e-01,9.99999e-01
7.424233956e-01,1.91879e-01,9.99999e-01,9.99999e-01,9.99999e-01,1.91879e-01,9.99999e-01
7.461355126e-01,1.98239e-01,9.99999e-01,9.99999e-01,9.99999e-01,1.98239e-01,9.99999e-01
7.498661902e-01,2.04678e-01,9.99999e-01,9.99999e-01,9.99999e-01,2.04678e-01,9.99999e-01
7.536155211e-01,2.11193e-01,9.99999e-01,9.99999e-01,9.99999e-01,2.11193e-01,9.99999e-01
7.573835987e-01,2.17781e-01,9.99999e-01,9.99999e-01,9.99999e-01,2.17781e-01,9.99999e-01
7.611705167e-01,2.24437e-01,9.99999e-01,9.99999e-01,9.99999e-01,2.24437e-01,9.99999e-01
7.649763693e-01,2.31160e-01,9.99999e-01,9.99999e-01,9.99999e-01,2.31160e-01,9.99999e-01
7.688012511e-01,2.37945e-01,9.99999e-01,9.99999e-01,9.99999e-01,2.37945e-01,9.99999e-01
7.726452574e-01,2.44790e-01,9.99999e-01,9.99999e-01,9.99999e-01,2.44790e-01,9.99999e-01
7.765084837e-01,2.51690e-01,9.99999e-01,9.99999e-01,9.99999e-01,2.51690e-01,9.99999e-01
7.803910261e-01,2.43102e-01,9.99999e-01,9.99999e-01,9.39912e-01,2.58643e-01,9.99999e-01
7.842929812e-01,2.02305e-01,9.99999e-01,9.99999e-01,7.61564e-01,2.65644e-01,9.99999e-01
7.882144461e-01,2.03608e-01,9.99999e-01,9.99999e-01,7.46659e-01,2.72692e-01,9.99999e-01
7.921555184e-01,2.34984e-01,9.99999e-01,9.99999e-01,8.39883e-01,2.79782e-01,9.99999e-01
7.961162960e-01,2.55394e-01,9.99999e-01,9.99999e-01,8.90151e-01,2.86910e-01,9.99999e-01
8.000968774e-01,2.76050e-01,9.99999e-01,9.99999e-01,9.38708e-01,2.94074e-01,9.99999e-01
8.040973618e-01,2.91595e-01,9.99999e-01,9.99999e-01,9.67887e-01,3.01270e-01,9.99999e-01
8.081178486e-01,3.03886e-01,9.99999e-01,9.99999e-01,9.85059e-01,3.08495e-01,9.99999e-01
8.121584379e-01,3.14298e-01,9.99999e-01,9.99999e-01,9.95416e-01,3.15745e-01,9.99999e-01
8.162192301e-01,3.22690e-01,9.99999e-01,9.99999e-01,9.98985e-01,3.23017e-01,9.99999e-01
8.203003262e-01,3.30304e-01,9.99999e-01,9.99999e-01,9.99985e-01,3.30308e-01,9.99999e-01
8.244018279e-01,3.37615e-01,9.99999e-01,9.99999e-01,9.99999e-01,3.37615e-01,9.99999e-01
8.285238370e-01,3.44935e-01,9.99999e-01,9.99999e-01,9.99999e-01,3.44935e-01,9.99999e-01
8.326664562e-01,3.52264e-01,9.99999e-01,9.99999e-01,9.99999e-01,3.52264e-01,9.99999e-01
8.368297885e-01,3.59599e-01,9.99999e-01,9.99999e-01,9.99999e-01,3.59599e-01,9.99999e-01
8.410139374e-01,3.66937e-01,9.99999e-01,9.99999e-01,9.99999e-01,3.66937e-01,9.99999e-01
8.452190071e-01,3.74276e-01,9.99999e-01,9.99999e-01,9.99999e-01,3.74276e-01,9.99999e-01
8.494451021e-01,3.81613e-01,9.99999e-01,9.99999e-01,9.99999e-01,3.81613e-01,9.99999e-01
8.536923276e-01,3.88944e-01,9.99999e-01,9.99999e-01,9.99999e-01,3.88944e-01,9.99999e-01
8.579607893e-01,3.96267e-01,9.99999e-01,9.99999e-01,9.99999e-01,3.96267e-01,9.99999e-01
8.622505932e-01,4.03579e-01,9.99999e-01,9.99999e-01,9.99999e-01,4.03579e-01,9.99999e-01
8.665618462e-01,3.66441e-01,9.99999e-01,9.99999e-01,8.91849e-01,4.10877e-01,9.99999e-01
8.708946554e-01,2.10787e-01,9.99999e-01,9.99999e-01,5.04082e-01,4.18160e-01,9.99999e-01
8.752491287e-01,2.43534e-01,9.99999e-01,9.99999e-01,5.72450e-01,4.25424e-01,9.99999e-01
8.796253743e-01,3.17378e-01,9.99999e-01,9.99999e-01,7.33539e-01,4.32667e-01,9.99999e-01
8.840235012e-01,3.74116e-01,9.99999e-01,9.99999e-01,8.50482e-01,4.39886e-01,9.99999e-01
8.884436187e-01,4.19486e-01,9.99999e-01,9.99999e-01,9.38278e-01,4.47080e-01,9.99999e-01
8.928858368e-01,4.42641e-01,9.99999e-01,9.99999e-01,9.74451e-01,4.54246e-01,9.99999e-01
8.973502660e-01,4.58509e-01,9.99999e-01,9.99999e-01,9.93772e-01,4.61382e-01,9.99999e-01
9.018370173e-01,4.68164e-01,9.99999e-01,9.99999e-01,9.99314e-01,4.68485e-01,9.99999e-01
9.063462024e-01,4.66980e-01,9.99999e-01,9.99999e-01,9.81967e-01,4.75555e-01,9.99999e-01
9.108779334e-01,4.63231e-01,9.99999e-01,9.99999e-01,9.59888e-01,4.82588e-01,9.99999e-01
9.154323231e-01,4.84959e-01,9.99999e-01,9.99999e-01,9.90553e-01,4.89583e-01,9.99999e-01
9.200094847e-01,4.33906e-01,9.99999e-01,9.99999e-01,8.73861e-01,4.96539e-01,9.99999e-01
9.246095321e-01,4.12137e-01,9.99999e-01,9.99999e-01,8.18619e-01,5.03453e-01,9.99999e-01
9.292325798e-01,4.35987e-01,9.99999e-01,9.99999e-01,8.54333e-01,5.10324e-01,9.99999e-01
9.338787427e-01,4.44542e-01,9.99999e-01,9.99999e-01,8.59597e-01,5.17150e-01,9.99999e-01
9.385481364e-01,4.68600e-01,9.99999e-01,9.99999e-01,8.94393e-01,5.23930e-01,9.99999e-01
9.432408771e-01,4.95638e-01,9.99999e-01,9.99999e-01,9.33997e-01,5.30663e-01,9.99999e-01
9.479570815e-01,5.18802e-01,9.99999e-01,9.99999e-01,9.65489e-01,5.37346e-01,9.99999e-01
9.526968669e-01,5.34872e-01,9.99999e-01,9.99999e-01,9.83257e-01,5.43979e-01,9.99999e-01
9.574603512e-01,5.46603e-01,9.99999e-01,9.99999e-01,9.92811e-01,5.50561e-01,9.99999e-01
9.622476530e-01,5.55840e-01,9.99999e-01,9.99999e-01,9.97755e-01,5.57089e-01,9.99999e-01
9.670588912e-01,5.63186e-01,9.99999e-01,9.99999e-01,9.99328e-01,5.63564e-01,9.99999e-01
9.718941857e-01,5.69958e-01,9.99999e-01,9.99999e-01,9.99953e-01,5.69985e-01,9.99999e-01
9.767536566e-01,5.76349e-01,9.99999e-01,9.99999e-01,9.99999e-01,5.76349e-01,9.99999e-01
9.816374249e-01,5.82656e-01,9.99999e-01,9.99999e-01,9.99999e-01,5.82656e-01,9.99999e-01
9.865456120e-01,5.88906e-01,9.99999e-01,9.99999e-01,9.99999e-01,5.88906e-01,9.99999e-01
9.914783401e-01,5.95098e-01,9.99999e-01,9.99999e-01,9.99999e-01,5.95098e-01,9.99999e-01
9.964357318e-01,6.01230e-01,9.99999e-01,9.99999e-01,9.99999e-01,6.01230e-01,9.99999e-01
1.001417910e+00,6.07303e-01,9.99999e-01,9.99999e-01,9.99999e-01,6.07303e-01,9.99999e-01
1.006425000e+00,6.13315e-01,9.99999e-01,9.99999e-01,9.99999e-01,6.13315e-01,9.99999e-01
1.011457125e+00,6.19266e-01,9.99999e-01,9.99999e-01,9.99999e-01,6.19266e-01,9.99999e-01
1.016514411e+00,6.25156e-01,9.99999e-01,9.99999e-01,9.99999e-01,6.25156e-01,9.99999e-01
1.021596983e+00,6.30913e-01,9.99999e-01,9.99999e-01,9.99888e-01,6.30983e-01,9.99999e-01
1.026704968e+00,6.32204e-01,9.99999e-01,9.99999e-01,9.92862e-01,6.36749e-01,9.99999e-01
1.031838492e+00,5.96334e-01,9.99999e-01,9.99999e-01,9.28215e-01,6.42451e-01,9.99999e-01
1.036997685e+00,5.46382e-02,9.99999e-01,9.99999e-01,8.43064e-02,6.48091e-01,9.99999e-01
1.042182673e+00,1.65585e-02,9.99999e-01,9.99999e-01,2.53317e-02,6.53667e-01,9.99999e-01
1.047393587e+00,2.83617e-02,9.99999e-01,9.99999e-01,4.30257e-02,6.59179e-01,9.99999e-01
1.052630555e+00,7.27832e-05,9.99999e-01,9.99999e-01,1.09510e-04,6.64628e-01,9.99999e-01
1.057893707e+00,2.53620e-04,9.99999e-01,9.99999e-01,3.78530e-04,6.70013e-01,9.99999e-01
1.063183176e+00,1.90177e-03,9.99999e-01,9.99999e-01,2.81604e-03,6.75334e-01,9.99999e-01
1.068499092e+00,9.56466e-03,9.99999e-01,9.99999e-01,1.40535e-02,6.80590e-01,9.99999e-01
1.073841587e+00,4.56833e-02,9.99999e-01,9.99999e-01,6.66148e-02,6.85783e-01,9.99999e-01
1.079210795e+00,1.24627e-01,9.99999e-01,9.99999e-01,1.80380e-01,6.90912e-01,9.99999e-01
1.084606849e+00,2.68067e-01,9.99999e-01,9.99999e-01,3.85167e-01,6.95976e-01,9.99999e-01
1.090029883e+00,4.26033e-01,9.99999e-01,9.99999e-01,6.07770e-01,7.00976e-01,9.99999e-01
1.095480033e+00,5.52325e-01,9.99999e-01,9.99999e-01,7.82426e-01,7.05913e-01,9.99999e-01
1.100957433e+00,6.31338e-01,9.99999e-01,9.99999e-01,8.88224e-01,7.10786e-01,9.99999e-01
1.106462220e+00,6.81405e-01,9.99999e-01,9.99999e-01,9.52220e-01,7.15595e-01,9.99999e-01
1.111994531e+00,7.07380e-01,9.99999e-01,9.99999e-01,9.82007e-01,7.20341e-01,9.99999e-01
1.117554504e+00,7.21836e-01,9.99999e-01,9.99999e-01,9.95604e-01,7.25023e-01,9.99999e-01
1.123142276e+00,7.29434e-01,9.99999e-01,9.99999e-01,9.99712e-01,7.29643e-01,9.99999e-01
1.128757988e+00,7.34200e-01,9.99999e-01,9.99999e-01,9.99999e-01,7.34200e-01,9.99999e-01
1.134401778e+00,7.38694e-01,9.99999e-01,9.99999e-01,9.99999e-01,7.38694e-01,9.99999e-01
1.140073787e+00,7.43127e-01,9.99999e-01,9.99999e-01,9.99999e-01,7.43127e-01,9.99999e-01
1.145774156e+00,7.47497e-01,9.99999e-01,9.99999e-01,9.99999e-01,7.47497e-01,9.99999e-01
1.151503026e+00,7.51807e-01,9.99999e-01,9.99999e-01,9.99999e-01,7.51807e-01,9.99999e-01
1.157260541e+00,7.56055e-01,9.99999e-01,9.99999e-01,9.99999e-01,7.56055e-01,9.99999e-01
1.163046844e+00,7.60243e-01,9.99999e-01,9.99999e-01,9.99999e-01,7.60243e-01,9.99999e-01
1.168862078e+00,7.64370e-01,9.99999e-01,9.99999e-01,9.99999e-01,7.64370e-01,9.99999e-01
1.174706389e+00,7.68438e-01,9.99999e-01,9.99999e-01,9.99999e-01,7.68438e-01,9.99999e-01
1.180579921e+00,7.72446e-01,9.99999e-01,9.99999e-01,9.99999e-01,7.72446e-01,9.99999e-01
1.186482820e+00,7.76382e-01,9.99999e-01,9.99999e-01,9.99982e-01,7.76396e-01,9.99999e-01
1.192415234e+00,7.60751e-01,9.99999e-01,9.99999e-01,9.74962e-01,7.80287e-01,9.99999e-01
1.198377311e+00,4.23923e-01,9.99999e-01,9.99999e-01,5.40635e-01,7.84120e-01,9.99999e-01
1.204369197e+00,5.97314e-19,9.99999e-01,9.99999e-01,7.58113e-19,7.87896e-01,9.99999e-01
1.210391043e+00,5.33735e-74,9.99999e-01,9.99999e-01,6.74236e-74,7.91614e-01,9.99999e-01
1.216442998e+00,3.72614e-64,9.99999e-01,9.99999e-01,4.68533e-64,7.95277e-01,9.99999e-01
1.222525213e+00,3.31634e-63,9.99999e-01,9.99999e-01,4.15121e-63,7.98883e-01,9.99999e-01
1.228637839e+00,6.82021e-49,9.99999e-01,9.99999e-01,8.49939e-49,8.02434e-01,9.99999e-01
