#,Wave/freq,Total,N2,O2,CO2,Rayleigh,CIA
4.000000000e-01,1.34249e-02,9.99999e-01,9.99999e-01,9.99999e-01,1.34249e-02,9.99999e-01
4.020000000e-01,1.46194e-02,9.99999e-01,9.99999e-01,9.99999e-01,1.46194e-02,9.99999e-01
4.040100000e-01,1.58919e-02,9.99999e-01,9.99999e-01,9.99999e-01,1.58919e-02,9.99999e-01
4.060300500e-01,1.72467e-02,9.99999e-01,9.99999e-01,9.99999e-01,1.72467e-02,9.99999e-01
4.080602003e-01,1.86868e-02,9.99999e-01,9.99999e-01,9.99999e-01,1.86868e-02,9.99999e-01
4.101005013e-01,2.02152e-02,9.99999e-01,9.99999e-01,9.99999e-01,2.02152e-02,9.99999e-01
4.121510038e-01,2.18346e-02,9.99999e-01,9.99999e-01,9.99999e-01,2.18346e-02,9.99999e-01
4.142117588e-01,2.35478e-02,9.99999e-01,9.99999e-01,9.99999e-01,2.35478e-02,9.99999e-01
4.162828176e-01,2.53576e-02,9.99999e-01,9.99999e-01,9.99999e-01,2.53576e-02,9.99999e-01
4.183642317e-01,2.72666e-02,9.99999e-01,9.99999e-01,9.99999e-01,2.72666e-02,9.99999e-01
4.204560528e-01,2.92773e-02,9.99999e-01,9.99999e-01,9.99999e-01,2.92773e-02,9.99999e-01
4.225583331e-01,3.13922e-02,9.99999e-01,9.99999e-01,9.99999e-01,3.13922e-02,9.99999e-01
4.246711247e-01,3.36134e-02,9.99999e-01,9.99999e-01,9.99999e-01,3.36134e-02,9.99999e-01
4.267944804e-01,3.59433e-02,9.99999e-01,9.99999e-01,9.99999e-01,3.59433e-02,9.99999e-01
4.289284528e-01,3.83838e-02,9.99999e-01,9.99999e-01,9.99999e-01,3.83838e-02,9.99999e-01
4.310730950e-01,4.09369e-02,9.99999e-01,9.99999e-01,9.99999e-01,4.09369e-02,9.99999e-01
4.332284605e-01,4.36042e-02,9.99999e-01,9.99999e-01,9.99999e-01,4.36042e-02,9.99999e-01
4.353946028e-01,4.63875e-02,9.99999e-01,9.99999e-01,9.99999e-01,4.63875e-02,9.99999e-01
4.375715758e-01,4.92882e-02,9.99999e-01,9.99999e-01,9.99999e-01,4.92882e-02,9.99999e-01
4.397594337e-01,5.23076e-02,9.99999e-01,9.99999e-01,9.99999e-01,5.23076e-02,9.99999e-01
4.419582309e-01,5.54468e-02,9.99999e-01,9.99999e-01,9.99999e-01,5.54468e-02,9.99999e-01
4.441680220e-01,5.87067e-02,9.99999e-01,9.99999e-01,9.99999e-01,5.87067e-02,9.99999e-01
4.463888621e-01,6.20882e-02,9.99999e-01,9.99999e-01,9.99999e-01,6.20882e-02,9.99999e-01
4.486208064e-01,6.55919e-02,9.99999e-01,9.99999e-01,9.99999e-01,6.55919e-02,9.99999e-01
4.508639105e-01,6.92182e-02,9.99999e-01,9.99999e-01,9.99999e-01,6.92182e-02,9.99999e-01
4.531182300e-01,7.29674e-02,9.99999e-01,9.99999e-01,9.99999e-01,7.29674e-02,9.99999e-01
4.553838212e-01,7.68396e-02,9.99999e-01,9.99999e-01,9.99999e-01,7.68396e-02,9.99999e-01
4.576607403e-01,8.08346e-02,9.99999e-01,9.99999e-01,9.99999e-01,8.08346e-02,9.99999e-01
4.599490440e-01,8.49523e-02,9.99999e-01,9.99999e-01,9.99999e-01,8.49523e-02,9.99999e-01
4.622487892e-01,8.91921e-02,9.99999e-01,9.99999e-01,9.99999e-01,8.91921e-02,9.99999e-01
4.645600332e-01,9.35535e-02,9.99999e-01,9.99999e-01,9.99999e-01,9.35535e-02,9.99999e-01
4.668828333e-01,9.80357e-02,9.99999e-01,9.99999e-01,9.99999e-01,9.80357e-02,9.99999e-01
4.692172475e-01,1.02638e-01,9.99999e-01,9.99999e-01,9.99999e-01,1.02638e-01,9.99999e-01
4.715633337e-01,1.07358e-01,9.99999e-01,9.99999e-01,9.99999e-01,1.07358e-01,9.99999e-01
4.739211504e-01,1.12197e-01,9.99999e-01,9.99999e-01,9.99999e-01,1.12197e-01,9.99999e-01
4.762907561e-01,1.17151e-01,9.99999e-01,9.99999e-01,9.99999e-01,1.17151e-01,9.99999e-01
4.786722099e-01,1.22219e-01,9.99999e-01,9.99999e-01,9.99999e-01,1.22219e-01,9.99999e-01
4.810655710e-01,1.27400e-01,9.99999e-01,9.99999e-01,9.99999e-01,1.27400e-01,9.99999e-01
4.834708988e-01,1.32692e-01,9.99999e-01,9.99999e-01,9.99999e-01,1.32692e-01,9.99999e-01
4.858882533e-01,1.38093e-01,9.99999e-01,9.99999e-01,9.99999e-01,1.38093e-01,9.99999e-01
4.883176946e-01,1.43600e-01,9.99999e-01,9.99999e-01,9.99999e-01,1.43600e-01,9.99999e-01
4.907592831e-01,1.49212e-01,9.99999e-01,9.99999e-01,9.99999e-01,1.49212e-01,9.99999e-01
4.932130795e-01,1.54926e-01,9.99999e-01,9.99999e-01,9.99999e-01,1.54926e-01,9.99999e-01
4.956791449e-01,1.60739e-01,9.99999e-01,9.99999e-01,9.99999e-01,1.60739e-01,9.99999e-01
4.981575406e-01,1.66648e-01,9.99999e-01,9.99999e-01,9.99999e-01,1.66648e-01,9.99999e-01
5.006483283e-01,1.72652e-01,9.99999e-01,9.99999e-01,9.99999e-01,1.72652e-01,9.99999e-01
5.031515699e-01,1.78748e-01,9.99999e-01,9.99999e-01,9.99999e-01,1.78748e-01,9.99999e-01
5.056673278e-01,1.84931e-01,9.99999e-01,9.99999e-01,9.99999e-01,1.84931e-01,9.99999e-01
5.081956644e-01,1.91200e-01,9.99999e-01,9.99999e-01,9.99999e-01,1.91200e-01,9.99999e-01
5.107366428e-01,1.97552e-01,9.99999e-01,9.99999e-01,9.99999e-01,1.97552e-01,9.99999e-01
5.132903260e-01,2.03983e-01,9.99999e-01,9.99999e-01,9.99999e-01,2.03983e-01,9.99999e-01
5.158567776e-01,2.10489e-01,9.99999e-01,9.99999e-01,9.99999e-01,2.10489e-01,9.99999e-01
5.184360615e-01,2.17069e-01,9.99999e-01,9.99999e-01,9.99999e-01,2.17069e-01,9.99999e-01
5.210282418e-01,2.23719e-01,9.99999e-01,9.99999e-01,9.99999e-01,2.23719e-01,9.99999e-01
5.236333830e-01,2.30434e-01,9.99999e-01,9.99999e-01,9.99999e-01,2.30434e-01,9.99999e-01
5.262515499e-01,2.37213e-01,9.99999e-01,9.99999e-01,9.99999e-01,2.37213e-01,9.99999e-01
5.288828077e-01,2.44051e-01,9.99999e-01,9.99999e-01,9.99999e-01,2.44051e-01,9.99999e-01
5.315272217e-01,2.50946e-01,9.99999e-01,9.99999e-01,9.99999e-01,2.50946e-01,9.99999e-01
5.341848578e-01,2.57893e-01,9.99999e-01,9.99999e-01,9.99999e-01,2.57893e-01,9.99999e-01
5.368557821e-01,2.64890e-01,9.99999e-01,9.99999e-01,9.99999e-01,2.64890e-01,9.99999e-01
5.395400610e-01,2.71932e-01,9.99999e-01,9.99999e-01,9.99999e-01,2.71932e-01,9.99999e-01
5.422377613e-01,2.79018e-01,9.99999e-01,9.99999e-01,9.99999e-01,2.79018e-01,9.99999e-01
5.449489501e-01,2.86142e-01,9.99999e-01,9.99999e-01,9.99999e-01,2.86142e-01,9.99999e-01
5.476736949e-01,2.93302e-01,9.99999e-01,9.99999e-01,9.99999e-01,2.93302e-01,9.99999e-01
5.504120634e-01,3.00495e-01,9.99999e-01,9.99999e-01,9.99999e-01,3.00495e-01,9.99999e-01
5.531641237e-01,3.07717e-01,9.99999e-01,9.99999e-01,9.99999e-01,3.07717e-01,9.99999e-01
5.559299443e-01,3.14965e-01,9.99999e-01,9.99999e-01,9.99999e-01,3.14965e-01,9.99999e-01
5.587095940e-01,3.22235e-01,9.99999e-01,9.99999e-01,9.99999e-01,3.22235e-01,9.99999e-01
5.615031420e-01,3.29524e-01,9.99999e-01,9.99999e-01,9.99999e-01,3.29524e-01,9.99999e-01
5.643106577e-01,3.36829e-01,9.99999e-01,9.99999e-01,9.99999e-01,3.36829e-01,9.99999e-01
5.671322110e-01,3.44148e-01,9.99999e-01,9.99999e-01,9.99999e-01,3.44148e-01,9.99999e-01
5.699678720e-01,3.51476e-01,9.99999e-01,9.99999e-01,9.99999e-01,3.51476e-01,9.99999e-01
5.728177114e-01,3.58810e-01,9.99999e-01,9.99999e-01,9.99999e-01,3.58810e-01,9.99999e-01
5.756818000e-01,3.66149e-01,9.99999e-01,9.99999e-01,9.99999e-01,3.66149e-01,9.99999e-01
5.785602090e-01,3.73488e-01,9.99999e-01,9.99999e-01,9.99999e-01,3.73488e-01,9.99999e-01
5.814530100e-01,3.80824e-01,9.99999e-01,9.99999e-01,9.99999e-01,3.80824e-01,9.99999e-01
5.843602750e-01,3.88156e-01,9.99999e-01,9.99999e-01,9.99999e-01,3.88156e-01,9.99999e-01
5.872820764e-01,3.95480e-01,9.99999e-01,9.99999e-01,9.99999e-01,3.95480e-01,9.99999e-01
5.902184868e-01,4.02794e-01,9.99999e-01,9.99999e-01,9.99999e-01,4.02794e-01,9.99999e-01
5.931695792e-01,4.10094e-01,9.99999e-01,9.99999e-01,9.99999e-01,4.10094e-01,9.99999e-01
5.961354271e-01,4.17378e-01,9.99999e-01,9.99999e-01,9.99999e-01,4.17378e-01,9.99999e-01
5.991161043e-01,4.24644e-01,9.99999e-01,9.99999e-01,9.99999e-01,4.24644e-01,9.99999e-01
6.021116848e-01,4.31889e-01,9.99999e-01,9.99999e-01,9.99999e-01,4.31889e-01,9.99999e-01
6.051222432e-01,4.39111e-01,9.99999e-01,9.99999e-01,9.99999e-01,4.39111e-01,9.99999e-01
6.081478544e-01,4.46308e-01,9.99999e-01,9.99999e-01,9.99999e-01,4.46308e-01,9.99999e-01
6.111885937e-01,4.53477e-01,9.99999e-01,9.99999e-01,9.99999e-01,4.53477e-01,9.99999e-01
6.142445367e-01,4.60616e-01,9.99999e-01,9.99999e-01,9.99999e-01,4.60616e-01,9.99999e-01
6.173157594e-01,4.67723e-01,9.99999e-01,9.99999e-01,9.99999e-01,4.67723e-01,9.99999e-01
6.204023382e-01,4.74797e-01,9.99999e-01,9.99999e-01,9.99999e-01,4.74797e-01,9.99999e-01
6.235043498e-01,4.81834e-01,9.99999e-01,9.99999e-01,9.99999e-01,4.81834e-01,9.99999e-01
6.266218716e-01,4.88833e-01,9.99999e-01,9.99999e-01,9.99999e-01,4.88833e-01,9.99999e-01
6.297549810e-01,4.95793e-01,9.99999e-01,9.99999e-01,9.99999e-01,4.95793e-01,9.99999e-01
6.329037559e-01,5.02712e-01,9.99999e-01,9.99999e-01,9.99999e-01,5.02712e-01,9.99999e-01
6.360682746e-01,5.09588e-01,9.99999e-01,9.99999e-01,9.99999e-01,5.09588e-01,9.99999e-01
6.392486160e-01,5.16419e-01,9.99999e-01,9.99999e-01,9.99999e-01,5.16419e-01,9.99999e-01
6.424448591e-01,5.23204e-01,9.99999e-01,9.99999e-01,9.99999e-01,5.23204e-01,9.99999e-01
6.456570834e-01,5.29942e-01,9.99999e-01,9.99999e-01,9.99999e-01,5.29942e-01,9.99999e-01
6.488853688e-01,5.36630e-01,9.99999e-01,9.99999e-01,9.99999e-01,5.36630e-01,9.99999e-01
6.521297956e-01,5.43269e-01,9.99999e-01,9.99999e-01,9.99999e-01,5.43269e-01,9.99999e-01
6.553904446e-01,5.49856e-01,9.99999e-01,9.99999e-01,9.99999e-01,5.49856e-01,9.99999e-01
6.586673968e-01,5.56390e-01,9.99999e-01,9.99999e-01,9.99999e-01,5.56390e-01,9.99999e-01
6.619607338e-01,5.62871e-01,9.99999e-01,9.99999e-01,9.99999e-01,5.62871e-01,9.99999e-01
6.652705375e-01,5.69297e-01,9.99999e-01,9.99999e-01,9.99999e-01,5.69297e-01,9.99999e-01
6.685968902e-01,5.75667e-01,9.99999e-01,9.99999e-01,9.99999e-01,5.75667e-01,9.99999e-01
6.719398746e-01,5.81981e-01,9.99999e-01,9.99999e-01,9.99999e-01,5.81981e-01,9.99999e-01
6.752995740e-01,5.88237e-01,9.99999e-01,9.99999e-01,9.99999e-01,5.88237e-01,9.99999e-01
6.786760719e-01,5.94435e-01,9.99999e-01,9.99999e-01,9.99999e-01,5.94435e-01,9.99999e-01
6.820694522e-01,6.00574e-01,9.99999e-01,9.99999e-01,9.99999e-01,6.00574e-01,9.99999e-01
6.854797995e-01,6.06653e-01,9.99999e-01,9.99999e-01,9.99999e-01,6.06653e-01,9.99999e-01
6.889071985e-01,6.12671e-01,9.99999e-01,9.99999e-01,9.99999e-01,6.12671e-01,9.99999e-01
6.923517345e-01,6.18629e-01,9.99999e-01,9.99999e-01,9.99999e-01,6.18629e-01,9.99999e-01
6.958134932e-01,6.24526e-01,9.99999e-01,9.99999e-01,9.99999e-01,6.24526e-01,9.99999e-01
6.992925606e-01,6.30360e-01,9.99999e-01,9.99999e-01,9.99999e-01,6.30360e-01,9.99999e-01
7.027890234e-01,6.36132e-01,9.99999e-01,9.99999e-01,9.99999e-01,6.36132e-01,9.99999e-01
7.063029686e-01,6.41841e-01,9.99999e-01,9.99999e-01,9.99999e-01,6.41841e-01,9.99999e-01
7.098344834e-01,6.47487e-01,9.99999e-01,9.99999e-01,9.99999e-01,6.47487e-01,9.99999e-01
7.133836558e-01,6.53070e-01,9.99999e-01,9.99999e-01,9.99999e-01,6.53070e-01,9.99999e-01
7.169505741e-01,6.58590e-01,9.99999e-01,9.99999e-01,9.99999e-01,6.58590e-01,9.99999e-01
7.205353270e-01,6.64045e-01,9.99999e-01,9.99999e-01,9.99999e-01,6.64045e-01,9.99999e-01
7.241380036e-01,6.69437e-01,9.99999e-01,9.99999e-01,9.99999e-01,6.69437e-01,9.99999e-01
7.277586936e-01,6.74765e-01,9.99999e-01,9.99999e-01,9.99999e-01,6.74765e-01,9.99999e-01
7.313974871e-01,6.80029e-01,9.99999e-01,9.99999e-01,9.99999e-01,6.80029e-01,9.99999e-01
7.350544745e-01,6.85228e-01,9.99999e-01,9.99999e-01,9.99999e-01,6.85228e-01,9.99999e-01
7.387297469e-01,6.90363e-01,9.99999e-01,9.99999e-01,9.99999e-01,6.90363e-01,9.99999e-01
7.424233956e-01,6.95435e-01,9.99999e-01,9.99999e-01,9.99999e-01,6.95435e-01,9.99999e-01
7.461355126e-01,7.00442e-01,9.99999e-01,9.99999e-01,9.99999e-01,7.00442e-01,9.99999e-01
7.498661902e-01,7.05385e-01,9.99999e-01,9.99999e-01,9.99999e-01,7.05385e-01,9.99999e-01
7.536155211e-01,7.10265e-01,9.99999e-01,9.99999e-01,9.99999e-01,7.10265e-01,9.99999e-01
7.573835987e-01,7.15081e-01,9.99999e-01,9.99999e-01,9.99999e-01,7.15081e-01,9.99999e-01
7.611705167e-01,7.19834e-01,9.99999e-01,9.99999e-01,9.99999e-01,7.19834e-01,9.99999e-01
7.649763693e-01,7.24523e-01,9.99999e-01,9.99999e-01,9.99999e-01,7.24523e-01,9.99999e-01
7.688012511e-01,7.29149e-01,9.99999e-01,9.99999e-01,9.99999e-01,7.29149e-01,9.99999e-01
7.726452574e-01,7.33713e-01,9.99999e-01,9.99999e-01,9.99999e-01,7.33713e-01,9.99999e-01
7.765084837e-01,7.38214e-01,9.99999e-01,9.99999e-01,9.99999e-01,7.38214e-01,9.99999e-01
7.803910261e-01,7.31788e-01,9.99999e-01,9.99999e-01,9.85369e-01,7.42653e-01,9.99999e-01
7.842929812e-01,7.01378e-01,9.99999e-01,9.99999e-01,9.38887e-01,7.47030e-01,9.99999e-01
7.882144461e-01,7.02136e-01,9.99999e-01,9.99999e-01,9.34503e-01,7.51346e-01,9.99999e-01
7.921555184e-01,7.26854e-01,9.99999e-01,9.99999e-01,9.61954e-01,7.55601e-01,9.99999e-01
7.961162960e-01,7.40367e-01,9.99999e-01,9.99999e-01,9.74429e-01,7.59795e-01,9.99999e-01
8.000968774e-01,7.53290e-01,9.99999e-01,9.99999e-01,9.86071e-01,7.63929e-01,9.99999e-01
8.040973618e-01,7.62445e-01,9.99999e-01,9.99999e-01,9.92761e-01,7.68003e-01,9.99999e-01
8.081178486e-01,7.69451e-01,9.99999e-01,9.99999e-01,9.96674e-01,7.72018e-01,9.99999e-01
8.121584379e-01,7.75176e-01,9.99999e-01,9.99999e-01,9.98970e-01,7.75974e-01,9.99999e-01
8.162192301e-01,7.79694e-01,9.99999e-01,9.99999e-01,9.99772e-01,7.79871e-01,9.99999e-01
8.203003262e-01,7.83708e-01,9.99999e-01,9.99999e-01,9.99996e-01,7.83711e-01,9.99999e-01
8.244018279e-01,7.87492e-01,9.99999e-01,9.99999e-01,9.99999e-01,7.87492e-01,9.99999e-01
8.285238370e-01,7.91217e-01,9.99999e-01,9.99999e-01,9.99999e-01,7.91217e-01,9.99999e-01
8.326664562e-01,7.94886e-01,9.99999e-01,9.99999e-01,9.99999e-01,7.94886e-01,9.99999e-01
8.368297885e-01,7.98498e-01,9.99999e-01,9.99999e-01,9.99999e-01,7.98498e-01,9.99999e-01
8.410139374e-01,8.02055e-01,9.99999e-01,9.99999e-01,9.99999e-01,8.02055e-01,9.99999e-01
8.452190071e-01,8.05557e-01,9.99999e-01,9.99999e-01,9.99999e-01,8.05557e-01,9.99999e-01
8.494451021e-01,8.09005e-01,9.99999e-01,9.99999e-01,9.99999e-01,8.09005e-01,9.99999e-01
8.536923276e-01,8.12399e-01,9.99999e-01,9.99999e-01,9.99999e-01,8.12399e-01,9.99999e-01
8.579607893e-01,8.15740e-01,9.99999e-01,9.99999e-01,9.99999e-01,8.15740e-01,9.99999e-01
8.622505932e-01,8.19028e-01,9.99999e-01,9.99999e-01,9.99999e-01,8.19028e-01,9.99999e-01
8.665618462e-01,7.89340e-01,9.99999e-01,9.99999e-01,9.59958e-01,8.22264e-01,9.99999e-01
8.708946554e-01,7.01293e-01,9.99999e-01,9.99999e-01,8.49590e-01,8.25449e-01,9.99999e-01
8.752491287e-01,7.28037e-01,9.99999e-01,9.99999e-01,8.78652e-01,8.28582e-01,9.99999e-01
8.796253743e-01,7.75301e-01,9.99999e-01,9.99999e-01,9.32225e-01,8.31665e-01,9.99999e-01
8.840235012e-01,8.05049e-01,9.99999e-01,9.99999e-01,9.64478e-01,8.34699e-01,9.99999e-01
8.884436187e-01,8.25848e-01,9.99999e-01,9.99999e-01,9.85871e-01,8.37683e-01,9.99999e-01
8.928858368e-01,8.35795e-01,9.99999e-01,9.99999e-01,9.94261e-01,8.40619e-01,9.99999e-01
8.973502660e-01,8.42328e-01,9.99999e-01,9.99999e-01,9.98602e-01,8.43507e-01,9.99999e-01
9.018370173e-01,8.46217e-01,9.99999e-01,9.99999e-01,9.99845e-01,8.46347e-01,9.99999e-01
9.063462024e-01,8.45783e-01,9.99999e-01,9.99999e-01,9.96045e-01,8.49141e-01,9.99999e-01
9.108779334e-01,8.44182e-01,9.99999e-01,9.99999e-01,9.90954e-01,8.51888e-01,9.99999e-01
9.154323231e-01,8.52768e-01,9.99999e-01,9.99999e-01,9.97868e-01,8.54589e-01,9.99999e-01
9.200094847e-01,8.30079e-01,9.99999e-01,9.99999e-01,9.68308e-01,8.57246e-01,9.99999e-01
9.246095321e-01,8.22386e-01,9.99999e-01,9.99999e-01,9.56419e-01,8.59858e-01,9.99999e-01
9.292325798e-01,8.32708e-01,9.99999e-01,9.99999e-01,9.65540e-01,8.62426e-01,9.99999e-01
9.338787427e-01,8.36188e-01,9.99999e-01,9.99999e-01,9.66745e-01,8.64951e-01,9.99999e-01
9.385481364e-01,8.46203e-01,9.99999e-01,9.99999e-01,9.75524e-01,8.67434e-01,9.99999e-01
9.432408771e-01,8.56796e-01,9.99999e-01,9.99999e-01,9.84965e-01,8.69874e-01,9.99999e-01
9.479570815e-01,8.65525e-01,9.99999e-01,9.99999e-01,9.92264e-01,8.72272e-01,9.99999e-01
9.526968669e-01,8.71361e-01,9.99999e-01,9.99999e-01,9.96261e-01,8.74630e-01,9.99999e-01
9.574603512e-01,8.75545e-01,9.99999e-01,9.99999e-01,9.98400e-01,8.76947e-01,9.99999e-01
9.622476530e-01,8.78786e-01,9.99999e-01,9.99999e-01,9.99500e-01,8.79225e-01,9.99999e-01
9.670588912e-01,8.81331e-01,9.99999e-01,9.99999e-01,9.99850e-01,8.81463e-01,9.99999e-01
9.718941857e-01,8.83653e-01,9.99999e-01,9.99999e-01,9.99988e-01,8.83662e-01,9.99999e-01
9.767536566e-01,8.85824e-01,9.99999e-01,9.99999e-01,9.99999e-01,8.85824e-01,9.99999e-01
9.816374249e-01,8.87948e-01,9.99999e-01,9.99999e-01,9.99999e-01,8.87948e-01,9.99999e-01
9.865456120e-01,8.90034e-01,9.99999e-01,9.99999e-01,9.99999e-01,8.90034e-01,9.99999e-01
9.914783401e-01,8.92085e-01,9.99999e-01,9.99999e-01,9.99999e-01,8.92085e-01,9.99999e-01
9.964357318e-01,8.94099e-01,9.99999e-01,9.99999e-01,9.99999e-01,8.94099e-01,9.99999e-01
1.001417910e+00,8.96078e-01,9.99999e-01,9.99999e-01,9.99999e-01,8.96078e-01,9.99999e-01
1.006425000e+00,8.98023e-01,9.99999e-01,9.99999e-01,9.99999e-01,8.98023e-01,9.99999e-01
1.011457125e+00,8.99932e-01,9.99999e-01,9.99999e-01,9.99999e-01,8.99932e-01,9.99999e-01
1.016514411e+00,9.01809e-01,9.99999e-01,9.99999e-01,9.99999e-01,9.01809e-01,9.99999e-01
1.021596983e+00,9.03633e-01,9.99999e-01,9.99999e-01,9.99979e-01,9.03652e-01,9.99999e-01
1.026704968e+00,9.04071e-01,9.99999e-01,9.99999e-01,9.98464e-01,9.05462e-01,9.99999e-01
1.031838492e+00,8.85963e-01,9.99999e-01,9.99999e-01,9.76547e-01,9.07240e-01,9.99999e-01
1.036997685e+00,2.97343e-01,9.99999e-01,9.99999e-01,3.27115e-01,9.08986e-01,9.99999e-01
1.042182673e+00,3.64345e-01,9.99999e-01,9.99999e-01,4.00071e-01,9.10701e-01,9.99999e-01
1.047393587e+00,3.29843e-01,9.99999e-01,9.99999e-01,3.61517e-01,9.12385e-01,9.99999e-01
1.052630555e+00,6.46629e-02,9.99999e-01,9.99999e-01,7.07441e-02,9.14039e-01,9.99999e-01
1.057893707e+00,1.15096e-01,9.99999e-01,9.99999e-01,1.25697e-01,9.15663e-01,9.99999e-01
1.063183176e+00,2.05283e-01,9.99999e-01,9.99999e-01,2.23800e-01,9.17258e-01,9.99999e-01
1.068499092e+00,3.40921e-01,9.99999e-01,9.99999e-01,3.71040e-01,9.18824e-01,9.99999e-01
1.073841587e+00,4.92495e-01,9.99999e-01,9.99999e-01,5.35110e-01,9.20362e-01,9.99999e-01
1.079210795e+00,6.21774e-01,9.99999e-01,9.99999e-01,6.74469e-01,9.21872e-01,9.99999e-01
1.084606849e+00,7.44963e-01,9.99999e-01,9.99999e-01,8.06800e-01,9.23354e-01,9.99999e-01
1.090029883e+00,8.27604e-01,9.99999e-01,9.99999e-01,8.94890e-01,9.24810e-01,9.99999e-01
1.095480033e+00,8.76966e-01,9.99999e-01,9.99999e-01,9.46803e-01,9.26239e-01,9.99999e-01
1.100957433e+00,9.03573e-01,9.99999e-01,9.99999e-01,9.74053e-01,9.27642e-01,9.99999e-01
1.106462220e+00,9.18979e-01,9.99999e-01,9.99999e-01,9.89192e-01,9.29019e-01,9.99999e-01
1.111994531e+00,9.26633e-01,9.99999e-01,9.99999e-01,9.95982e-01,9.30371e-01,9.99999e-01
1.117554504e+00,9.30783e-01,9.99999e-01,9.99999e-01,9.99017e-01,9.31698e-01,9.99999e-01
1.123142276e+00,9.32941e-01,9.99999e-01,9.99999e-01,9.99935e-01,9.33001e-01,9.99999e-01
1.128757988e+00,9.34280e-01,9.99999e-01,9.99999e-01,9.99999e-01,9.34280e-01,9.99999e-01
1.134401778e+00,9.35535e-01,9.99999e-01,9.99999e-01,9.99999e-01,9.35535e-01,9.99999e-01
1.140073787e+00,9.36767e-01,9.99999e-01,9.99999e-01,9.99999e-01,9.36767e-01,9.99999e-01
1.145774156e+00,9.37977e-01,9.99999e-01,9.99999e-01,9.99999e-01,9.37977e-01,9.99999e-01
1.151503026e+00,9.39164e-01,9.99999e-01,9.99999e-01,9.99999e-01,9.39164e-01,9.99999e-01
1.157260541e+00,9.40329e-01,9.99999e-01,9.99999e-01,9.99999e-01,9.40329e-01,9.99999e-01
1.163046844e+00,9.41472e-01,9.99999e-01,9.99999e-01,9.99999e-01,9.41472e-01,9.99999e-01
1.168862078e+00,9.42595e-01,9.99999e-01,9.99999e-01,9.99999e-01,9.42595e-01,9.99999e-01
1.174706389e+00,9.43696e-01,9.99999e-01,9.99999e-01,9.99999e-01,9.43696e-01,9.99999e-01
1.180579921e+00,9.44777e-01,9.99999e-01,9.99999e-01,9.99999e-01,9.44777e-01,9.99999e-01
1.186482820e+00,9.45835e-01,9.99999e-01,9.99999e-01,9.99996e-01,9.45837e-01,9.99999e-01
1.192415234e+00,9.41649e-01,9.99999e-01,9.99999e-01,9.94477e-01,9.46878e-01,9.99999e-01
1.198377311e+00,5.63822e-01,9.99999e-01,9.99999e-01,5.94812e-01,9.47900e-01,9.99999e-01
1.204369197e+00,6.42230e-06,9.99999e-01,9.99999e-01,6.76813e-06,9.48902e-01,9.99999e-01
1.210391043e+00,4.93860e-18,9.99999e-01,9.99999e-01,5.19915e-18,9.49886e-01,9.99999e-01
1.216442998e+00,7.44255e-16,9.99999e-01,9.99999e-01,7.82725e-16,9.50851e-01,9.99999e-01
1.222525213e+00,1.29941e-15,9.99999e-01,9.99999e-01,1.36521e-15,9.51798e-01,9.99999e-01
1.228637839e+00,5.63667e-12,9.99999e-01,9.99999e-01,5.91635e-12,9.52727e-01,9.99999e-01
