#,Wave/freq,Total,N2,O2,CO2,Rayleigh,CIA
4.000000000e-01,1.58139e-14,9.99999e-01,9.99999e-01,9.99999e-01,1.58139e-14,9.99999e-01
4.020000000e-01,2.96431e-14,9.99999e-01,9.99999e-01,9.99999e-01,2.96431e-14,9.99999e-01
4.040100000e-01,5.48449e-14,9.99999e-01,9.99999e-01,9.99999e-01,5.48449e-14,9.99999e-01
4.060300500e-01,1.00247e-13,9.99999e-01,9.99999e-01,9.99999e-01,1.00247e-13,9.99999e-01
4.080602003e-01,1.81064e-13,9.99999e-01,9.99999e-01,9.99999e-01,1.81064e-13,9.99999e-01
4.101005013e-01,3.23237e-13,9.99999e-01,9.99999e-01,9.99999e-01,3.23237e-13,9.99999e-01
4.121510038e-01,5.70479e-13,9.99999e-01,9.99999e-01,9.99999e-01,5.70479e-13,9.99999e-01
4.142117588e-01,9.95598e-13,9.99999e-01,9.99999e-01,9.99999e-01,9.95598e-13,9.99999e-01
4.162828176e-01,1.71851e-12,9.99999e-01,9.99999e-01,9.99999e-01,1.71851e-12,9.99999e-01
4.183642317e-01,2.93452e-12,9.99999e-01,9.99999e-01,9.99999e-01,2.93452e-12,9.99999e-01
4.204560528e-01,4.95828e-12,9.99999e-01,9.99999e-01,9.99999e-01,4.95828e-12,9.99999e-01
4.225583331e-01,8.29137e-12,9.99999e-01,9.99999e-01,9.99999e-01,8.29137e-12,9.99999e-01
4.246711247e-01,1.37250e-11,9.99999e-01,9.99999e-01,9.99999e-01,1.37250e-11,9.99999e-01
4.267944804e-01,2.24943e-11,9.99999e-01,9.99999e-01,9.99999e-01,2.24943e-11,9.99999e-01
4.289284528e-01,3.65086e-11,9.99999e-01,9.99999e-01,9.99999e-01,3.65086e-11,9.99999e-01
4.310730950e-01,5.86899e-11,9.99999e-01,9.99999e-01,9.99999e-01,5.86899e-11,9.99999e-01
4.332284605e-01,9.34673e-11,9.99999e-01,9.99999e-01,9.99999e-01,9.34673e-11,9.99999e-01
4.353946028e-01,1.47491e-10,9.99999e-01,9.99999e-01,9.99999e-01,1.47491e-10,9.99999e-01
4.375715758e-01,2.30651e-10,9.99999e-01,9.99999e-01,9.99999e-01,2.30651e-10,9.99999e-01
4.397594337e-01,3.57529e-10,9.99999e-01,9.99999e-01,9.99999e-01,3.57529e-10,9.99999e-01
4.419582309e-01,5.49422e-10,9.99999e-01,9.99999e-01,9.99999e-01,5.49422e-10,9.99999e-01
4.441680220e-01,8.37175e-10,9.99999e-01,9.99999e-01,9.99999e-01,8.37175e-10,9.99999e-01
4.463888621e-01,1.26507e-09,9.99999e-01,9.99999e-01,9.99999e-01,1.26507e-09,9.99999e-01
4.486208064e-01,1.89613e-09,9.99999e-01,9.99999e-01,9.99999e-01,1.89613e-09,9.99999e-01
4.508639105e-01,2.81937e-09,9.99999e-01,9.99999e-01,9.99999e-01,2.81937e-09,9.99999e-01
4.531182300e-01,4.15942e-09,9.99999e-01,9.99999e-01,9.99999e-01,4.15942e-09,9.99999e-01
4.553838212e-01,6.08944e-09,9.99999e-01,9.99999e-01,9.99999e-01,6.08944e-09,9.99999e-01
4.576607403e-01,8.84815e-09,9.99999e-01,9.99999e-01,9.99999e-01,8.84815e-09,9.99999e-01
4.599490440e-01,1.27621e-08,9.99999e-01,9.99999e-01,9.99999e-01,1.27621e-08,9.99999e-01
4.622487892e-01,1.82747e-08,9.99999e-01,9.99999e-01,9.99999e-01,1.82747e-08,9.99999e-01
4.645600332e-01,2.59835e-08,9.99999e-01,9.99999e-01,9.99999e-01,2.59835e-08,9.99999e-01
4.668828333e-01,3.66882e-08,9.99999e-01,9.99999e-01,9.99999e-01,3.66882e-08,9.99999e-01
4.692172475e-01,5.14511e-08,9.99999e-01,9.99999e-01,9.99999e-01,5.14511e-08,9.99999e-01
4.715633337e-01,7.16742e-08,9.99999e-01,9.99999e-01,9.99999e-01,7.16742e-08,9.99999e-01
4.739211504e-01,9.91944e-08,9.99999e-01,9.99999e-01,9.99999e-01,9.91944e-08,9.99999e-01
4.762907561e-01,1.36403e-07,9.99999e-01,9.99999e-01,9.99999e-01,1.36403e-07,9.99999e-01
4.786722099e-01,1.86392e-07,9.99999e-01,9.99999e-01,9.99999e-01,1.86392e-07,9.99999e-01
4.810655710e-01,2.53136e-07,9.99999e-01,9.99999e-01,9.99999e-01,2.53136e-07,9.99999e-01
4.834708988e-01,3.41707e-07,9.99999e-01,9.99999e-01,9.99999e-01,3.41707e-07,9.99999e-01
4.858882533e-01,4.58543e-07,9.99999e-01,9.99999e-01,9.99999e-01,4.58543e-07,9.99999e-01
4.883176946e-01,6.11764e-07,9.99999e-01,9.99999e-01,9.99999e-01,6.11764e-07,9.99999e-01
4.907592831e-01,8.11548e-07,9.99999e-01,9.99999e-01,9.99999e-01,8.11548e-07,9.99999e-01
4.932130795e-01,1.07058e-06,9.99999e-01,9.99999e-01,9.99999e-01,1.07058e-06,9.99999e-01
4.956791449e-01,1.40459e-06,9.99999e-01,9.99999e-01,9.99999e-01,1.40459e-06,9.99999e-01
4.981575406e-01,1.83295e-06,9.99999e-01,9.99999e-01,9.99999e-01,1.83295e-06,9.99999e-01
5.006483283e-01,2.37940e-06,9.99999e-01,9.99999e-01,9.99999e-01,2.37940e-06,9.99999e-01
5.031515699e-01,3.07288e-06,9.99999e-01,9.99999e-01,9.99999e-01,3.07288e-06,9.99999e-01
5.056673278e-01,3.94849e-06,9.99999e-01,9.99999e-01,9.99999e-01,3.94849e-06,9.99999e-01
5.081956644e-01,5.04853e-06,9.99999e-01,9.99999e-01,9.99999e-01,5.04853e-06,9.99999e-01
5.107366428e-01,6.42377e-06,9.99999e-01,9.99999e-01,9.99999e-01,6.42377e-06,9.99999e-01
5.132903260e-01,8.13484e-06,9.99999e-01,9.99999e-01,9.99999e-01,8.13484e-06,9.99999e-01
5.158567776e-01,1.02537e-05,9.99999e-01,9.99999e-01,9.99999e-01,1.02537e-05,9.99999e-01
5.184360615e-01,1.28656e-05,9.99999e-01,9.99999e-01,9.99999e-01,1.28656e-05,9.99999e-01
5.210282418e-01,1.60706e-05,9.99999e-01,9.99999e-01,9.99999e-01,1.60706e-05,9.99999e-01
5.236333830e-01,1.99859e-05,9.99999e-01,9.99999e-01,9.99999e-01,1.99859e-05,9.99999e-01
5.262515499e-01,2.47483e-05,9.99999e-01,9.99999e-01,9.99999e-01,2.47483e-05,9.99999e-01
5.288828077e-01,3.05165e-05,9.99999e-01,9.99999e-01,9.99999e-01,3.05165e-05,9.99999e-01
5.315272217e-01,3.74737e-05,9.99999e-01,9.99999e-01,9.99999e-01,3.74737e-05,9.99999e-01
5.341848578e-01,4.58307e-05,9.99999e-01,9.99999e-01,9.99999e-01,4.58307e-05,9.99999e-01
5.368557821e-01,5.58289e-05,9.99999e-01,9.99999e-01,9.99999e-01,5.58289e-05,9.99999e-01
5.395400610e-01,6.77437e-05,9.99999e-01,9.99999e-01,9.99999e-01,6.77437e-05,9.99999e-01
5.422377613e-01,8.18879e-05,9.99999e-01,9.99999e-01,9.99999e-01,8.18879e-05,9.99999e-01
5.449489501e-01,9.86152e-05,9.99999e-01,9.99999e-01,9.99999e-01,9.86152e-05,9.99999e-01
5.476736949e-01,1.18324e-04,9.99999e-01,9.99999e-01,9.99999e-01,1.18324e-04,9.99999e-01
5.504120634e-01,1.41462e-04,9.99999e-01,9.99999e-01,9.99999e-01,1.41462e-04,9.99999e-01
5.531641237e-01,1.68529e-04,9.99999e-01,9.99999e-01,9.99999e-01,1.68529e-04,9.99999e-01
5.559299443e-01,2.00081e-04,9.99999e-01,9.99999e-01,9.99999e-01,2.00081e-04,9.99999e-01
5.587095940e-01,2.36738e-04,9.99999e-01,9.99999e-01,9.99999e-01,2.36738e-04,9.99999e-01
5.615031420e-01,2.79180e-04,9.99999e-01,9.99999e-01,9.99999e-01,2.79180e-04,9.99999e-01
5.643106577e-01,3.28161e-04,9.99999e-01,9.99999e-01,9.99999e-01,3.28161e-04,9.99999e-01
5.671322110e-01,3.84506e-04,9.99999e-01,9.99999e-01,9.99999e-01,3.84506e-04,9.99999e-01
5.699678720e-01,4.49117e-04,9.99999e-01,9.99999e-01,9.99999e-01,4.49117e-04,9.99999e-01
5.728177114e-01,5.22978e-04,9.99999e-01,9.99999e-01,9.99999e-01,5.22978e-04,9.99999e-01
5.756818000e-01,6.07158e-04,9.99999e-01,9.99999e-01,9.99999e-01,6.07158e-04,9.99999e-01
5.785602090e-01,7.02813e-04,9.99999e-01,9.99999e-01,9.99999e-01,7.02813e-04,9.99999e-01
5.814530100e-01,8.11189e-04,9.99999e-01,9.99999e-01,9.99999e-01,8.11189e-04,9.99999e-01
5.843602750e-01,9.33630e-04,9.99999e-01,9.99999e-01,9.99999e-01,9.33630e-04,9.99999e-01
5.872820764e-01,1.07157e-03,9.99999e-01,9.99999e-01,9.99999e-01,1.07157e-03,9.99999e-01
5.902184868e-01,1.22655e-03,9.99999e-01,9.99999e-01,9.99999e-01,1.22655e-03,9.99999e-01
5.931695792e-01,1.40020e-03,9.99999e-01,9.99999e-01,9.99999e-01,1.40020e-03,9.99999e-01
5.961354271e-01,1.59427e-03,9.99999e-01,9.99999e-01,9.99999e-01,1.59427e-03,9.99999e-01
5.991161043e-01,1.81058e-03,9.99999e-01,9.99999e-01,9.99999e-01,1.81058e-03,9.99999e-01
6.021116848e-01,2.05108e-03,9.99999e-01,9.99999e-01,9.99999e-01,2.05108e-03,9.99999e-01
6.051222432e-01,2.31781e-03,9.99999e-01,9.99999e-01,9.99999e-01,2.31781e-03,9.99999e-01
6.081478544e-01,2.61291e-03,9.99999e-01,9.99999e-01,9.99999e-01,2.61291e-03,9.99999e-01
6.111885937e-01,2.93861e-03,9.99999e-01,9.99999e-01,9.99999e-01,2.93861e-03,9.99999e-01
6.142445367e-01,3.29725e-03,9.99999e-01,9.99999e-01,9.99999e-01,3.29725e-03,9.99999e-01
6.173157594e-01,3.69126e-03,9.99999e-01,9.99999e-01,9.99999e-01,3.69126e-03,9.99999e-01
6.204023382e-01,4.12315e-03,9.99999e-01,9.99999e-01,9.99999e-01,4.12315e-03,9.99999e-01
6.235043498e-01,4.59552e-03,9.99999e-01,9.99999e-01,9.99999e-01,4.59552e-03,9.99999e-01
6.266218716e-01,5.11104e-03,9.99999e-01,9.99999e-01,9.99999e-01,5.11104e-03,9.99999e-01
6.297549810e-01,5.67246e-03,9.99999e-01,9.99999e-01,9.99999e-01,5.67246e-03,9.99999e-01
6.329037559e-01,6.28261e-03,9.99999e-01,9.99999e-01,9.99999e-01,6.28261e-03,9.99999e-01
6.360682746e-01,6.94436e-03,9.99999e-01,9.99999e-01,9.99999e-01,6.94436e-03,9.99999e-01
6.392486160e-01,7.66065e-03,9.99999e-01,9.99999e-01,9.99999e-01,7.66065e-03,9.99999e-01
6.424448591e-01,8.43444e-03,9.99999e-01,9.99999e-01,9.99999e-01,8.43444e-03,9.99999e-01
6.456570834e-01,9.26877e-03,9.99999e-01,9.99999e-01,9.99999e-01,9.26877e-03,9.99999e-01
6.488853688e-01,1.01667e-02,9.99999e-01,9.99999e-01,9.99999e-01,1.01667e-02,9.99999e-01
6.521297956e-01,1.11312e-02,9.99999e-01,9.99999e-01,9.99999e-01,1.11312e-02,9.99999e-01
6.553904446e-01,1.21654e-02,9.99999e-01,9.99999e-01,9.99999e-01,1.21654e-02,9.99999e-01
6.586673968e-01,1.32724e-02,9.99999e-01,9.99999e-01,9.99999e-01,1.32724e-02,9.99999e-01
6.619607338e-01,1.44553e-02,9.99999e-01,9.99999e-01,9.99999e-01,1.44553e-02,9.99999e-01
6.652705375e-01,1.57170e-02,9.99999e-01,9.99999e-01,9.99999e-01,1.57170e-02,9.99999e-01
6.685968902e-01,1.70607e-02,9.99999e-01,9.99999e-01,9.99999e-01,1.70607e-02,9.99999e-01
6.719398746e-01,1.84893e-02,9.99999e-01,9.99999e-01,9.99999e-01,1.84893e-02,9.99999e-01
6.752995740e-01,2.00056e-02,9.99999e-01,9.99999e-01,9.99999e-01,2.00056e-02,9.99999e-01
6.786760719e-01,2.16127e-02,9.99999e-01,9.99999e-01,9.99999e-01,2.16127e-02,9.99999e-01
6.820694522e-01,2.33132e-02,9.99999e-01,9.99999e-01,9.99999e-01,2.33132e-02,9.99999e-01
6.854797995e-01,2.51100e-02,9.99999e-01,9.99999e-01,9.99999e-01,2.51100e-02,9.99999e-01
6.889071985e-01,2.70056e-02,9.99999e-01,9.99999e-01,9.99999e-01,2.70056e-02,9.99999e-01
6.923517345e-01,2.90025e-02,9.99999e-01,9.99999e-01,9.99999e-01,2.90025e-02,9.99999e-01
6.958134932e-01,3.11033e-02,9.99999e-01,9.99999e-01,9.99999e-01,3.11033e-02,9.99999e-01
6.992925606e-01,3.33102e-02,9.99999e-01,9.99999e-01,9.99999e-01,3.33102e-02,9.99999e-01
7.027890234e-01,3.56254e-02,9.99999e-01,9.99999e-01,9.99999e-01,3.56254e-02,9.99999e-01
7.063029686e-01,3.80510e-02,9.99999e-01,9.99999e-01,9.99999e-01,3.80510e-02,9.99999e-01
7.098344834e-01,4.05889e-02,9.99999e-01,9.99999e-01,9.99999e-01,4.05889e-02,9.99999e-01
7.133836558e-01,4.32409e-02,9.99999e-01,9.99999e-01,9.99999e-01,4.32409e-02,9.99999e-01
7.169505741e-01,4.60087e-02,9.99999e-01,9.99999e-01,9.99999e-01,4.60087e-02,9.99999e-01
7.205353270e-01,4.88936e-02,9.99999e-01,9.99999e-01,9.99999e-01,4.88936e-02,9.99999e-01
7.241380036e-01,5.18970e-02,9.99999e-01,9.99999e-01,9.99999e-01,5.18970e-02,9.99999e-01
7.277586936e-01,5.50201e-02,9.99999e-01,9.99999e-01,9.99999e-01,5.50201e-02,9.99999e-01
7.313974871e-01,5.82639e-02,9.99999e-01,9.99999e-01,9.99999e-01,5.82639e-02,9.99999e-01
7.350544745e-01,6.16291e-02,9.99999e-01,9.99999e-01,9.99999e-01,6.16291e-02,9.99999e-01
7.387297469e-01,6.51164e-02,9.99999e-01,9.99999e-01,9.99999e-01,6.51164e-02,9.99999e-01
7.424233956e-01,6.87263e-02,9.99999e-01,9.99999e-01,9.99999e-01,6.87263e-02,9.99999e-01
7.461355126e-01,7.24590e-02,9.99999e-01,9.99999e-01,9.99999e-01,7.24590e-02,9.99999e-01
7.498661902e-01,7.63148e-02,9.99999e-01,9.99999e-01,9.99999e-01,7.63148e-02,9.99999e-01
7.536155211e-01,8.02934e-02,9.99999e-01,9.99999e-01,9.99999e-01,8.02934e-02,9.99999e-01
7.573835987e-01,8.43947e-02,9.99999e-01,9.99999e-01,9.99999e-01,8.43947e-02,9.99999e-01
7.611705167e-01,8.86182e-02,9.99999e-01,9.99999e-01,9.99999e-01,8.86182e-02,9.99999e-01
7.649763693e-01,9.29634e-02,9.99999e-01,9.99999e-01,9.99999e-01,9.29634e-02,9.99999e-01
7.688012511e-01,9.74295e-02,9.99999e-01,9.99999e-01,9.99999e-01,9.74295e-02,9.99999e-01
7.726452574e-01,1.02016e-01,9.99999e-01,9.99999e-01,9.99999e-01,1.02016e-01,9.99999e-01
7.765084837e-01,1.06720e-01,9.99999e-01,9.99999e-01,9.99999e-01,1.06720e-01,9.99999e-01
7.803910261e-01,1.02168e-01,9.99999e-01,9.99999e-01,9.15947e-01,1.11543e-01,9.99999e-01
7.842929812e-01,7.56338e-02,9.99999e-01,9.99999e-01,6.49319e-01,1.16482e-01,9.99999e-01
7.882144461e-01,7.70357e-02,9.99999e-01,9.99999e-01,6.33856e-01,1.21535e-01,9.99999e-01
7.921555184e-01,9.57839e-02,9.99999e-01,9.99999e-01,7.55982e-01,1.26701e-01,9.99999e-01
7.961162960e-01,1.09204e-01,9.99999e-01,9.99999e-01,8.27436e-01,1.31978e-01,9.99999e-01
8.000968774e-01,1.23944e-01,9.99999e-01,9.99999e-01,9.02294e-01,1.37365e-01,9.99999e-01
8.040973618e-01,1.35433e-01,9.99999e-01,9.99999e-01,9.48026e-01,1.42858e-01,9.99999e-01
8.081178486e-01,1.44861e-01,9.99999e-01,9.99999e-01,9.75783e-01,1.48456e-01,9.99999e-01
8.121584379e-01,1.52993e-01,9.99999e-01,9.99999e-01,9.92454e-01,1.54156e-01,9.99999e-01
8.162192301e-01,1.59688e-01,9.99999e-01,9.99999e-01,9.98328e-01,1.59956e-01,9.99999e-01
8.203003262e-01,1.65849e-01,9.99999e-01,9.99999e-01,9.99974e-01,1.65853e-01,9.99999e-01
8.244018279e-01,1.71844e-01,9.99999e-01,9.99999e-01,9.99999e-01,1.71844e-01,9.99999e-01
8.285238370e-01,1.77928e-01,9.99999e-01,9.99999e-01,9.99999e-01,1.77928e-01,9.99999e-01
8.326664562e-01,1.84100e-01,9.99999e-01,9.99999e-01,9.99999e-01,1.84100e-01,9.99999e-01
8.368297885e-01,1.90357e-01,9.99999e-01,9.99999e-01,9.99999e-01,1.90357e-01,9.99999e-01
8.410139374e-01,1.96698e-01,9.99999e-01,9.99999e-01,9.99999e-01,1.96698e-01,9.99999e-01
8.452190071e-01,2.03118e-01,9.99999e-01,9.99999e-01,9.99999e-01,2.03118e-01,9.99999e-01
8.494451021e-01,2.09615e-01,9.99999e-01,9.99999e-01,9.99999e-01,2.09615e-01,9.99999e-01
8.536923276e-01,2.16185e-01,9.99999e-01,9.99999e-01,9.99999e-01,2.16185e-01,9.99999e-01
8.579607893e-01,2.22826e-01,9.99999e-01,9.99999e-01,9.99999e-01,2.22826e-01,9.99999e-01
8.622505932e-01,2.29533e-01,9.99999e-01,9.99999e-01,9.99999e-01,2.29533e-01,9.99999e-01
8.665618462e-01,2.05842e-01,9.99999e-01,9.99999e-01,8.71094e-01,2.36303e-01,9.99999e-01
8.708946554e-01,8.40755e-02,9.99999e-01,9.99999e-01,3.45799e-01,2.43134e-01,9.99999e-01
8.752491287e-01,1.03253e-01,9.99999e-01,9.99999e-01,4.12978e-01,2.50021e-01,9.99999e-01
8.796253743e-01,1.56215e-01,9.99999e-01,9.99999e-01,6.07932e-01,2.56961e-01,9.99999e-01
8.840235012e-01,2.02983e-01,9.99999e-01,9.99999e-01,7.69017e-01,2.63951e-01,9.99999e-01
8.884436187e-01,2.44170e-01,9.99999e-01,9.99999e-01,9.01034e-01,2.70988e-01,9.99999e-01
8.928858368e-01,2.66549e-01,9.99999e-01,9.99999e-01,9.58573e-01,2.78068e-01,9.99999e-01
8.973502660e-01,2.82270e-01,9.99999e-01,9.99999e-01,9.89771e-01,2.85187e-01,9.99999e-01
9.018370173e-01,2.92012e-01,9.99999e-01,9.99999e-01,9.98867e-01,2.92343e-01,9.99999e-01
9.063462024e-01,2.91109e-01,9.99999e-01,9.99999e-01,9.71878e-01,2.99532e-01,9.99999e-01
9.108779334e-01,2.86978e-01,9.99999e-01,9.99999e-01,9.35543e-01,3.06750e-01,9.99999e-01
9.154323231e-01,3.09116e-01,9.99999e-01,9.99999e-01,9.84463e-01,3.13994e-01,9.99999e-01
9.200094847e-01,2.63054e-01,9.99999e-01,9.99999e-01,8.18816e-01,3.21261e-01,9.99999e-01
9.246095321e-01,2.37585e-01,9.99999e-01,9.99999e-01,7.23133e-01,3.28548e-01,9.99999e-01
9.292325798e-01,2.61687e-01,9.99999e-01,9.99999e-01,7.79173e-01,3.35852e-01,9.99999e-01
9.338787427e-01,2.68833e-01,9.99999e-01,9.99999e-01,7.83383e-01,3.43169e-01,9.99999e-01
9.385481364e-01,2.92524e-01,9.99999e-01,9.99999e-01,8.34600e-01,3.50495e-01,9.99999e-01
9.432408771e-01,3.20142e-01,9.99999e-01,9.99999e-01,8.94676e-01,3.57829e-01,9.99999e-01
9.479570815e-01,3.44887e-01,9.99999e-01,9.99999e-01,9.44461e-01,3.65167e-01,9.99999e-01
9.526968669e-01,3.62392e-01,9.99999e-01,9.99999e-01,9.72846e-01,3.72507e-01,9.99999e-01
9.574603512e-01,3.75395e-01,9.99999e-01,9.99999e-01,9.88287e-01,3.79844e-01,9.99999e-01
9.622476530e-01,3.85756e-01,9.99999e-01,9.99999e-01,9.96331e-01,3.87176e-01,9.99999e-01
9.670588912e-01,3.94067e-01,9.99999e-01,9.99999e-01,9.98899e-01,3.94502e-01,9.99999e-01
9.718941857e-01,4.01785e-01,9.99999e-01,9.99999e-01,9.99921e-01,4.01816e-01,9.99999e-01
9.767536566e-01,4.09119e-01,9.99999e-01,9.99999e-01,9.99999e-01,4.09119e-01,9.99999e-01
9.816374249e-01,4.16405e-01,9.99999e-01,9.99999e-01,9.99999e-01,4.16405e-01,9.99999e-01
9.865456120e-01,4.23674e-01,9.99999e-01,9.99999e-01,9.99999e-01,4.23674e-01,9.99999e-01
9.914783401e-01,4.30922e-01,9.99999e-01,9.99999e-01,9.99999e-01,4.30922e-01,9.99999e-01
9.964357318e-01,4.38147e-01,9.99999e-01,9.99999e-01,9.99999e-01,4.38147e-01,9.99999e-01
1.001417910e+00,4.45347e-01,9.99999e-01,9.99999e-01,9.99999e-01,4.45347e-01,9.99999e-01
1.006425000e+00,4.52520e-01,9.99999e-01,9.99999e-01,9.99999e-01,4.52520e-01,9.99999e-01
1.011457125e+00,4.59664e-01,9.99999e-01,9.99999e-01,9.99999e-01,4.59664e-01,9.99999e-01
1.016514411e+00,4.66775e-01,9.99999e-01,9.99999e-01,9.99999e-01,4.66775e-01,9.99999e-01
1.021596983e+00,4.73781e-01,9.99999e-01,9.99999e-01,9.99848e-01,4.73853e-01,9.99999e-01
1.026704968e+00,4.75515e-01,9.99999e-01,9.99999e-01,9.88812e-01,4.80895e-01,9.99999e-01
1.031838492e+00,4.42950e-01,9.99999e-01,9.99999e-01,9.07869e-01,4.87900e-01,9.99999e-01
1.036997685e+00,2.63658e-02,9.99999e-01,9.99999e-01,5.32787e-02,4.94865e-01,9.99999e-01
1.042182673e+00,2.05639e-03,9.99999e-01,9.99999e-01,4.09810e-03,5.01790e-01,9.99999e-01
1.047393587e+00,5.22660e-03,9.99999e-01,9.99999e-01,1.02750e-02,5.08671e-01,9.99999e-01
1.052630555e+00,8.11476e-07,9.99999e-01,9.99999e-01,1.57413e-06,5.15508e-01,9.99999e-01
1.057893707e+00,3.04717e-06,9.99999e-01,9.99999e-01,5.83414e-06,5.22300e-01,9.99999e-01
1.063183176e+00,7.00112e-05,9.99999e-01,9.99999e-01,1.32335e-04,5.29044e-01,9.99999e-01
1.068499092e+00,6.64077e-04,9.99999e-01,9.99999e-01,1.23955e-03,5.35739e-01,9.99999e-01
1.073841587e+00,7.29184e-03,9.99999e-01,9.99999e-01,1.34440e-02,5.42384e-01,9.99999e-01
1.079210795e+00,3.66420e-02,9.99999e-01,9.99999e-01,6.67458e-02,5.48978e-01,9.99999e-01
1.084606849e+00,1.19649e-01,9.99999e-01,9.99999e-01,2.15382e-01,5.55520e-01,9.99999e-01
1.090029883e+00,2.51490e-01,9.99999e-01,9.99999e-01,4.47485e-01,5.62008e-01,9.99999e-01
1.095480033e+00,3.81873e-01,9.99999e-01,9.99999e-01,6.71789e-01,5.68441e-01,9.99999e-01
1.100957433e+00,4.74095e-01,9.99999e-01,9.99999e-01,8.24772e-01,5.74819e-01,9.99999e-01
1.106462220e+00,5.36565e-01,9.99999e-01,9.99999e-01,9.23296e-01,5.81140e-01,9.99999e-01
1.111994531e+00,5.70263e-01,9.99999e-01,9.99999e-01,9.70818e-01,5.87404e-01,9.99999e-01
1.117554504e+00,5.89333e-01,9.99999e-01,9.99999e-01,9.92794e-01,5.93610e-01,9.99999e-01
1.123142276e+00,5.99472e-01,9.99999e-01,9.99999e-01,9.99525e-01,5.99756e-01,9.99999e-01
1.128757988e+00,6.05843e-01,9.99999e-01,9.99999e-01,9.99999e-01,6.05844e-01,9.99999e-01
1.134401778e+00,6.11870e-01,9.99999e-01,9.99999e-01,9.99999e-01,6.11870e-01,9.99999e-01
1.140073787e+00,6.17836e-01,9.99999e-01,9.99999e-01,9.99999e-01,6.17836e-01,9.99999e-01
1.145774156e+00,6.23741e-01,9.99999e-01,9.99999e-01,9.99999e-01,6.23741e-01,9.99999e-01
1.151503026e+00,6.29583e-01,9.99999e-01,9.99999e-01,9.99999e-01,6.29583e-01,9.99999e-01
1.157260541e+00,6.35364e-01,9.99999e-01,9.99999e-01,9.99999e-01,6.35364e-01,9.99999e-01
1.163046844e+00,6.41082e-01,9.99999e-01,9.99999e-01,9.99999e-01,6.41082e-01,9.99999e-01
1.168862078e+00,6.46736e-01,9.99999e-01,9.99999e-01,9.99999e-01,6.46736e-01,9.99999e-01
1.174706389e+00,6.52328e-01,9.99999e-01,9.99999e-01,9.99999e-01,6.52328e-01,9.99999e-01
1.180579921e+00,6.57856e-01,9.99999e-01,9.99999e-01,9.99999e-01,6.57856e-01,9.99999e-01
1.186482820e+00,6.63307e-01,9.99999e-01,9.99999e-01,9.99979e-01,6.63320e-01,9.99999e-01
1.192415234e+00,6.43211e-01,9.99999e-01,9.99999e-01,9.61853e-01,6.68720e-01,9.99999e-01
1.198377311e+00,3.50209e-01,9.99999e-01,9.99999e-01,5.19554e-01,6.74056e-01,9.99999e-01
1.204369197e+00,2.50336e-29,9.99999e-01,9.99999e-01,3.68504e-29,6.79329e-01,9.99999e-01
1.210391043e+00,1.37844e-118,9.99999e-01,9.99999e-01,2.01369e-118,6.84537e-01,9.99999e-01
1.216442998e+00,1.26272e-102,9.99999e-01,9.99999e-01,1.83087e-102,6.89681e-01,9.99999e-01
1.222525213e+00,4.36839e-101,9.99999e-01,9.99999e-01,6.28761e-101,6.94760e-01,9.99999e-01
1.228637839e+00,5.45449e-78,9.99999e-01,9.99999e-01,7.79461e-78,6.99776e-01,9.99999e-01
