#,Wave/freq,Total,N2,O2,CO2,Rayleigh,CIA
4.000000000e-01,1.24725e-03,9.99999e-01,9.99999e-01,9.99999e-01,1.24725e-03,9.99999e-01
4.020000000e-01,1.42355e-03,9.99999e-01,9.99999e-01,9.99999e-01,1.42355e-03,9.99999e-01
4.040100000e-01,1.62032e-03,9.99999e-01,9.99999e-01,9.99999e-01,1.62032e-03,9.99999e-01
4.060300500e-01,1.83958e-03,9.99999e-01,9.99999e-01,9.99999e-01,1.83958e-03,9.99999e-01
4.080602003e-01,2.08328e-03,9.99999e-01,9.99999e-01,9.99999e-01,2.08328e-03,9.99999e-01
4.101005013e-01,2.35347e-03,9.99999e-01,9.99999e-01,9.99999e-01,2.35347e-03,9.99999e-01
4.121510038e-01,2.65231e-03,9.99999e-01,9.99999e-01,9.99999e-01,2.65231e-03,9.99999e-01
4.142117588e-01,2.98204e-03,9.99999e-01,9.99999e-01,9.99999e-01,2.98204e-03,9.99999e-01
4.162828176e-01,3.34502e-03,9.99999e-01,9.99999e-01,9.99999e-01,3.34502e-03,9.99999e-01
4.183642317e-01,3.74367e-03,9.99999e-01,9.99999e-01,9.99999e-01,3.74367e-03,9.99999e-01
4.204560528e-01,4.18053e-03,9.99999e-01,9.99999e-01,9.99999e-01,4.18053e-03,9.99999e-01
4.225583331e-01,4.65820e-03,9.99999e-01,9.99999e-01,9.99999e-01,4.65820e-03,9.99999e-01
4.246711247e-01,5.17936e-03,9.99999e-01,9.99999e-01,9.99999e-01,5.17936e-03,9.99999e-01
4.267944804e-01,5.74678e-03,9.99999e-01,9.99999e-01,9.99999e-01,5.74678e-03,9.99999e-01
4.289284528e-01,6.36329e-03,9.99999e-01,9.99999e-01,9.99999e-01,6.36329e-03,9.99999e-01
4.310730950e-01,7.03177e-03,9.99999e-01,9.99999e-01,9.99999e-01,7.03177e-03,9.99999e-01
4.332284605e-01,7.75515e-03,9.99999e-01,9.99999e-01,9.99999e-01,7.75515e-03,9.99999e-01
4.353946028e-01,8.53643e-03,9.99999e-01,9.99999e-01,9.99999e-01,8.53643e-03,9.99999e-01
4.375715758e-01,9.37861e-03,9.99999e-01,9.99999e-01,9.99999e-01,9.37861e-03,9.99999e-01
4.397594337e-01,1.02848e-02,9.99999e-01,9.99999e-01,9.99999e-01,1.02848e-02,9.99999e-01
4.419582309e-01,1.12579e-02,9.99999e-01,9.99999e-01,9.99999e-01,1.12579e-02,9.99999e-01
4.441680220e-01,1.23012e-02,9.99999e-01,9.99999e-01,9.99999e-01,1.23012e-02,9.99999e-01
4.463888621e-01,1.34176e-02,9.99999e-01,9.99999e-01,9.99999e-01,1.34176e-02,9.99999e-01
4.486208064e-01,1.46103e-02,9.99999e-01,9.99999e-01,9.99999e-01,1.46103e-02,9.99999e-01
4.508639105e-01,1.58822e-02,9.99999e-01,9.99999e-01,9.99999e-01,1.58822e-02,9.99999e-01
4.531182300e-01,1.72364e-02,9.99999e-01,9.99999e-01,9.99999e-01,1.72364e-02,9.99999e-01
4.553838212e-01,1.86759e-02,9.99999e-01,9.99999e-01,9.99999e-01,1.86759e-02,9.99999e-01
4.576607403e-01,2.02036e-02,9.99999e-01,9.99999e-01,9.99999e-01,2.02036e-02,9.99999e-01
4.599490440e-01,2.18223e-02,9.99999e-01,9.99999e-01,9.99999e-01,2.18223e-02,9.99999e-01
4.622487892e-01,2.35348e-02,9.99999e-01,9.99999e-01,9.99999e-01,2.35348e-02,9.99999e-01
4.645600332e-01,2.53439e-02,9.99999e-01,9.99999e-01,9.99999e-01,2.53439e-02,9.99999e-01
4.668828333e-01,2.72522e-02,9.99999e-01,9.99999e-01,9.99999e-01,2.72522e-02,9.99999e-01
4.692172475e-01,2.92621e-02,9.99999e-01,9.99999e-01,9.99999e-01,2.92621e-02,9.99999e-01
4.715633337e-01,3.13762e-02,9.99999e-01,9.99999e-01,9.99999e-01,3.13762e-02,9.99999e-01
4.739211504e-01,3.35966e-02,9.99999e-01,9.99999e-01,9.99999e-01,3.35966e-02,9.99999e-01
4.762907561e-01,3.59257e-02,9.99999e-01,9.99999e-01,9.99999e-01,3.59257e-02,9.99999e-01
4.786722099e-01,3.83654e-02,9.99999e-01,9.99999e-01,9.99999e-01,3.83654e-02,9.99999e-01
4.810655710e-01,4.09176e-02,9.99999e-01,9.99999e-01,9.99999e-01,4.09176e-02,9.99999e-01
4.834708988e-01,4.35841e-02,9.99999e-01,9.99999e-01,9.99999e-01,4.35841e-02,9.99999e-01
4.858882533e-01,4.63666e-02,9.99999e-01,9.99999e-01,9.99999e-01,4.63666e-02,9.99999e-01
4.883176946e-01,4.92664e-02,9.99999e-01,9.99999e-01,9.99999e-01,4.92664e-02,9.99999e-01
4.907592831e-01,5.22849e-02,9.99999e-01,9.99999e-01,9.99999e-01,5.22849e-02,9.99999e-01
4.932130795e-01,5.54231e-02,9.99999e-01,9.99999e-01,9.99999e-01,5.54231e-02,9.99999e-01
4.956791449e-01,5.86822e-02,9.99999e-01,9.99999e-01,9.99999e-01,5.86822e-02,9.99999e-01
4.981575406e-01,6.20628e-02,9.99999e-01,9.99999e-01,9.99999e-01,6.20628e-02,9.99999e-01
5.006483283e-01,6.55656e-02,9.99999e-01,9.99999e-01,9.99999e-01,6.55656e-02,9.99999e-01
5.031515699e-01,6.91910e-02,9.99999e-01,9.99999e-01,9.99999e-01,6.91910e-02,9.99999e-01
5.056673278e-01,7.29393e-02,9.99999e-01,9.99999e-01,9.99999e-01,7.29393e-02,9.99999e-01
5.081956644e-01,7.68105e-02,9.99999e-01,9.99999e-01,9.99999e-01,7.68105e-02,9.99999e-01
5.107366428e-01,8.08047e-02,9.99999e-01,9.99999e-01,9.99999e-01,8.08047e-02,9.99999e-01
5.132903260e-01,8.49214e-02,9.99999e-01,9.99999e-01,9.99999e-01,8.49214e-02,9.99999e-01
5.158567776e-01,8.91604e-02,9.99999e-01,9.99999e-01,9.99999e-01,8.91604e-02,9.99999e-01
5.184360615e-01,9.35209e-02,9.99999e-01,9.99999e-01,9.99999e-01,9.35209e-02,9.99999e-01
5.210282418e-01,9.80022e-02,9.99999e-01,9.99999e-01,9.99999e-01,9.80022e-02,9.99999e-01
5.236333830e-01,1.02603e-01,9.99999e-01,9.99999e-01,9.99999e-01,1.02603e-01,9.99999e-01
5.262515499e-01,1.07323e-01,9.99999e-01,9.99999e-01,9.99999e-01,1.07323e-01,9.99999e-01
5.288828077e-01,1.12160e-01,9.99999e-01,9.99999e-01,9.99999e-01,1.12160e-01,9.99999e-01
5.315272217e-01,1.17114e-01,9.99999e-01,9.99999e-01,9.99999e-01,1.17114e-01,9.99999e-01
5.341848578e-01,1.22181e-01,9.99999e-01,9.99999e-01,9.99999e-01,1.22181e-01,9.99999e-01
5.368557821e-01,1.27362e-01,9.99999e-01,9.99999e-01,9.99999e-01,1.27362e-01,9.99999e-01
5.395400610e-01,1.32653e-01,9.99999e-01,9.99999e-01,9.99999e-01,1.32653e-01,9.99999e-01
5.422377613e-01,1.38053e-01,9.99999e-01,9.99999e-01,9.99999e-01,1.38053e-01,9.99999e-01
5.449489501e-01,1.43559e-01,9.99999e-01,9.99999e-01,9.99999e-01,1.43559e-01,9.99999e-01
5.476736949e-01,1.49170e-01,9.99999e-01,9.99999e-01,9.99999e-01,1.49170e-01,9.99999e-01
5.504120634e-01,1.54883e-01,9.99999e-01,9.99999e-01,9.99999e-01,1.54883e-01,9.99999e-01
5.531641237e-01,1.60695e-01,9.99999e-01,9.99999e-01,9.99999e-01,1.60695e-01,9.99999e-01
5.559299443e-01,1.66604e-01,9.99999e-01,9.99999e-01,9.99999e-01,1.66604e-01,9.99999e-01
5.587095940e-01,1.72608e-01,9.99999e-01,9.99999e-01,9.99999e-01,1.72608e-01,9.99999e-01
5.615031420e-01,1.78702e-01,9.99999e-01,9.99999e-01,9.99999e-01,1.78702e-01,9.99999e-01
5.643106577e-01,1.84885e-01,9.99999e-01,9.99999e-01,9.99999e-01,1.84885e-01,9.99999e-01
5.671322110e-01,1.91154e-01,9.99999e-01,9.99999e-01,9.99999e-01,1.91154e-01,9.99999e-01
5.699678720e-01,1.97505e-01,9.99999e-01,9.99999e-01,9.99999e-01,1.97505e-01,9.99999e-01
5.728177114e-01,2.03935e-01,9.99999e-01,9.99999e-01,9.99999e-01,2.03935e-01,9.99999e-01
5.756818000e-01,2.10441e-01,9.99999e-01,9.99999e-01,9.99999e-01,2.10441e-01,9.99999e-01
5.785602090e-01,2.17020e-01,9.99999e-01,9.99999e-01,9.99999e-01,2.17020e-01,9.99999e-01
5.814530100e-01,2.23669e-01,9.99999e-01,9.99999e-01,9.99999e-01,2.23669e-01,9.99999e-01
5.843602750e-01,2.30384e-01,9.99999e-01,9.99999e-01,9.99999e-01,2.30384e-01,9.99999e-01
5.872820764e-01,2.37163e-01,9.99999e-01,9.99999e-01,9.99999e-01,2.37163e-01,9.99999e-01
5.902184868e-01,2.44000e-01,9.99999e-01,9.99999e-01,9.99999e-01,2.44000e-01,9.99999e-01
5.931695792e-01,2.50894e-01,9.99999e-01,9.99999e-01,9.99999e-01,2.50894e-01,9.99999e-01
5.961354271e-01,2.57841e-01,9.99999e-01,9.99999e-01,9.99999e-01,2.57841e-01,9.99999e-01
5.991161043e-01,2.64838e-01,9.99999e-01,9.99999e-01,9.99999e-01,2.64838e-01,9.99999e-01
6.021116848e-01,2.71880e-01,9.99999e-01,9.99999e-01,9.99999e-01,2.71880e-01,9.99999e-01
6.051222432e-01,2.78965e-01,9.99999e-01,9.99999e-01,9.99999e-01,2.78965e-01,9.99999e-01
6.081478544e-01,2.86089e-01,9.99999e-01,9.99999e-01,9.99999e-01,2.86089e-01,9.99999e-01
6.111885937e-01,2.93249e-01,9.99999e-01,9.99999e-01,9.99999e-01,2.93249e-01,9.99999e-01
6.142445367e-01,3.00442e-01,9.99999e-01,9.99999e-01,9.99999e-01,3.00442e-01,9.99999e-01
6.173157594e-01,3.07664e-01,9.99999e-01,9.99999e-01,9.99999e-01,3.07664e-01,9.99999e-01
6.204023382e-01,3.14911e-01,9.99999e-01,9.99999e-01,9.99999e-01,3.14911e-01,9.99999e-01
6.235043498e-01,3.22181e-01,9.99999e-01,9.99999e-01,9.99999e-01,3.22181e-01,9.99999e-01
6.266218716e-01,3.29470e-01,9.99999e-01,9.99999e-01,9.99999e-01,3.29470e-01,9.99999e-01
6.297549810e-01,3.36775e-01,9.99999e-01,9.99999e-01,9.99999e-01,3.36775e-01,9.99999e-01
6.329037559e-01,3.44094e-01,9.99999e-01,9.99999e-01,9.99999e-01,3.44094e-01,9.99999e-01
6.360682746e-01,3.51421e-01,9.99999e-01,9.99999e-01,9.99999e-01,3.51421e-01,9.99999e-01
6.392486160e-01,3.58756e-01,9.99999e-01,9.99999e-01,9.99999e-01,3.58756e-01,9.99999e-01
6.424448591e-01,3.66094e-01,9.99999e-01,9.99999e-01,9.99999e-01,3.66094e-01,9.99999e-01
6.456570834e-01,3.73433e-01,9.99999e-01,9.99999e-01,9.99999e-01,3.73433e-01,9.99999e-01
6.488853688e-01,3.80770e-01,9.99999e-01,9.99999e-01,9.99999e-01,3.80770e-01,9.99999e-01
6.521297956e-01,3.88102e-01,9.99999e-01,9.99999e-01,9.99999e-01,3.88102e-01,9.99999e-01
6.553904446e-01,3.95426e-01,9.99999e-01,9.99999e-01,9.99999e-01,3.95426e-01,9.99999e-01
6.586673968e-01,4.02740e-01,9.99999e-01,9.99999e-01,9.99999e-01,4.02740e-01,9.99999e-01
6.619607338e-01,4.10040e-01,9.99999e-01,9.99999e-01,9.99999e-01,4.10040e-01,9.99999e-01
6.652705375e-01,4.17324e-01,9.99999e-01,9.99999e-01,9.99999e-01,4.17324e-01,9.99999e-01
6.685968902e-01,4.24590e-01,9.99999e-01,9.99999e-01,9.99999e-01,4.24590e-01,9.99999e-01
6.719398746e-01,4.31836e-01,9.99999e-01,9.99999e-01,9.99999e-01,4.31836e-01,9.99999e-01
6.752995740e-01,4.39058e-01,9.99999e-01,9.99999e-01,9.99999e-01,4.39058e-01,9.99999e-01
6.786760719e-01,4.46255e-01,9.99999e-01,9.99999e-01,9.99999e-01,4.46255e-01,9.99999e-01
6.820694522e-01,4.53424e-01,9.99999e-01,9.99999e-01,9.99999e-01,4.53424e-01,9.99999e-01
6.854797995e-01,4.60564e-01,9.99999e-01,9.99999e-01,9.99999e-01,4.60564e-01,9.99999e-01
6.889071985e-01,4.67671e-01,9.99999e-01,9.99999e-01,9.99999e-01,4.67671e-01,9.99999e-01
6.923517345e-01,4.74745e-01,9.99999e-01,9.99999e-01,9.99999e-01,4.74745e-01,9.99999e-01
6.958134932e-01,4.81782e-01,9.99999e-01,9.99999e-01,9.99999e-01,4.81782e-01,9.99999e-01
6.992925606e-01,4.88782e-01,9.99999e-01,9.99999e-01,9.99999e-01,4.88782e-01,9.99999e-01
7.027890234e-01,4.95742e-01,9.99999e-01,9.99999e-01,9.99999e-01,4.95742e-01,9.99999e-01
7.063029686e-01,5.02661e-01,9.99999e-01,9.99999e-01,9.99999e-01,5.02661e-01,9.99999e-01
7.098344834e-01,5.09537e-01,9.99999e-01,9.99999e-01,9.99999e-01,5.09537e-01,9.99999e-01
7.133836558e-01,5.16369e-01,9.99999e-01,9.99999e-01,9.99999e-01,5.16369e-01,9.99999e-01
7.169505741e-01,5.23154e-01,9.99999e-01,9.99999e-01,9.99999e-01,5.23154e-01,9.99999e-01
7.205353270e-01,5.29892e-01,9.99999e-01,9.99999e-01,9.99999e-01,5.29892e-01,9.99999e-01
7.241380036e-01,5.36581e-01,9.99999e-01,9.99999e-01,9.99999e-01,5.36581e-01,9.99999e-01
7.277586936e-01,5.43220e-01,9.99999e-01,9.99999e-01,9.99999e-01,5.43220e-01,9.99999e-01
7.313974871e-01,5.49807e-01,9.99999e-01,9.99999e-01,9.99999e-01,5.49807e-01,9.99999e-01
7.350544745e-01,5.56342e-01,9.99999e-01,9.99999e-01,9.99999e-01,5.56342e-01,9.99999e-01
7.387297469e-01,5.62823e-01,9.99999e-01,9.99999e-01,9.99999e-01,5.62823e-01,9.99999e-01
7.424233956e-01,5.69250e-01,9.99999e-01,9.99999e-01,9.99999e-01,5.69250e-01,9.99999e-01
7.461355126e-01,5.75621e-01,9.99999e-01,9.99999e-01,9.99999e-01,5.75621e-01,9.99999e-01
7.498661902e-01,5.81935e-01,9.99999e-01,9.99999e-01,9.99999e-01,5.81935e-01,9.99999e-01
7.536155211e-01,5.88191e-01,9.99999e-01,9.99999e-01,9.99999e-01,5.88191e-01,9.99999e-01
7.573835987e-01,5.94389e-01,9.99999e-01,9.99999e-01,9.99999e-01,5.94389e-01,9.99999e-01
7.611705167e-01,6.00529e-01,9.99999e-01,9.99999e-01,9.99999e-01,6.00529e-01,9.99999e-01
7.649763693e-01,6.06608e-01,9.99999e-01,9.99999e-01,9.99999e-01,6.06608e-01,9.99999e-01
7.688012511e-01,6.12627e-01,9.99999e-01,9.99999e-01,9.99999e-01,6.12627e-01,9.99999e-01
7.726452574e-01,6.18585e-01,9.99999e-01,9.99999e-01,9.99999e-01,6.18585e-01,9.99999e-01
7.765084837e-01,6.24482e-01,9.99999e-01,9.99999e-01,9.99999e-01,6.24482e-01,9.99999e-01
7.803910261e-01,6.16601e-01,9.99999e-01,9.99999e-01,9.78238e-01,6.30317e-01,9.99999e-01
7.842929812e-01,5.77121e-01,9.99999e-01,9.99999e-01,9.07295e-01,6.36090e-01,9.99999e-01
7.882144461e-01,5.78362e-01,9.99999e-01,9.99999e-01,9.01157e-01,6.41799e-01,9.99999e-01
7.921555184e-01,6.09740e-01,9.99999e-01,9.99999e-01,9.41761e-01,6.47446e-01,9.99999e-01
7.961162960e-01,6.27271e-01,9.99999e-01,9.99999e-01,9.60555e-01,6.53029e-01,9.99999e-01
8.000968774e-01,6.44360e-01,9.99999e-01,9.99999e-01,9.78453e-01,6.58549e-01,9.99999e-01
8.040973618e-01,6.56543e-01,9.99999e-01,9.99999e-01,9.88761e-01,6.64005e-01,9.99999e-01
8.081178486e-01,6.65943e-01,9.99999e-01,9.99999e-01,9.94839e-01,6.69398e-01,9.99999e-01
8.121584379e-01,6.73644e-01,9.99999e-01,9.99999e-01,9.98396e-01,6.74726e-01,9.99999e-01
8.162192301e-01,6.79749e-01,9.99999e-01,9.99999e-01,9.99645e-01,6.79990e-01,9.99999e-01
8.203003262e-01,6.85186e-01,9.99999e-01,9.99999e-01,9.99993e-01,6.85190e-01,9.99999e-01
8.244018279e-01,6.90326e-01,9.99999e-01,9.99999e-01,9.99999e-01,6.90326e-01,9.99999e-01
8.285238370e-01,6.95398e-01,9.99999e-01,9.99999e-01,9.99999e-01,6.95398e-01,9.99999e-01
8.326664562e-01,7.00405e-01,9.99999e-01,9.99999e-01,9.99999e-01,7.00405e-01,9.99999e-01
8.368297885e-01,7.05349e-01,9.99999e-01,9.99999e-01,9.99999e-01,7.05349e-01,9.99999e-01
8.410139374e-01,7.10229e-01,9.99999e-01,9.99999e-01,9.99999e-01,7.10229e-01,9.99999e-01
8.452190071e-01,7.15046e-01,9.99999e-01,9.99999e-01,9.99999e-01,7.15046e-01,9.99999e-01
8.494451021e-01,7.19799e-01,9.99999e-01,9.99999e-01,9.99999e-01,7.19799e-01,9.99999e-01
8.536923276e-01,7.24488e-01,9.99999e-01,9.99999e-01,9.99999e-01,7.24488e-01,9.99999e-01
8.579607893e-01,7.29115e-01,9.99999e-01,9.99999e-01,9.99999e-01,7.29115e-01,9.99999e-01
8.622505932e-01,7.33679e-01,9.99999e-01,9.99999e-01,9.99999e-01,7.33679e-01,9.99999e-01
8.665618462e-01,6.97912e-01,9.99999e-01,9.99999e-01,9.45447e-01,7.38181e-01,9.99999e-01
8.708946554e-01,5.78905e-01,9.99999e-01,9.99999e-01,7.79543e-01,7.42621e-01,9.99999e-01
8.752491287e-01,6.12049e-01,9.99999e-01,9.99999e-01,8.19344e-01,7.46998e-01,9.99999e-01
8.796253743e-01,6.73930e-01,9.99999e-01,9.99999e-01,8.97000e-01,7.51315e-01,9.99999e-01
8.840235012e-01,7.14323e-01,9.99999e-01,9.99999e-01,9.45408e-01,7.55570e-01,9.99999e-01
8.884436187e-01,7.43131e-01,9.99999e-01,9.99999e-01,9.78106e-01,7.59765e-01,9.99999e-01
8.928858368e-01,7.57095e-01,9.99999e-01,9.99999e-01,9.91092e-01,7.63899e-01,9.99999e-01
8.973502660e-01,7.66302e-01,9.99999e-01,9.99999e-01,9.97822e-01,7.67974e-01,9.99999e-01
9.018370173e-01,7.71803e-01,9.99999e-01,9.99999e-01,9.99759e-01,7.71989e-01,9.99999e-01
9.063462024e-01,7.71236e-01,9.99999e-01,9.99999e-01,9.93930e-01,7.75945e-01,9.99999e-01
9.108779334e-01,7.68914e-01,9.99999e-01,9.99999e-01,9.85984e-01,7.79843e-01,9.99999e-01
9.154323231e-01,7.81080e-01,9.99999e-01,9.99999e-01,9.96678e-01,7.83682e-01,9.99999e-01
9.200094847e-01,7.49854e-01,9.99999e-01,9.99999e-01,9.52238e-01,7.87465e-01,9.99999e-01
9.246095321e-01,7.38341e-01,9.99999e-01,9.99999e-01,9.33203e-01,7.91190e-01,9.99999e-01
9.292325798e-01,7.53028e-01,9.99999e-01,9.99999e-01,9.47372e-01,7.94859e-01,9.99999e-01
9.338787427e-01,7.57692e-01,9.99999e-01,9.99999e-01,9.48926e-01,7.98472e-01,9.99999e-01
9.385481364e-01,7.71780e-01,9.99999e-01,9.99999e-01,9.62284e-01,8.02029e-01,9.99999e-01
9.432408771e-01,7.86786e-01,9.99999e-01,9.99999e-01,9.76728e-01,8.05532e-01,9.99999e-01
9.479570815e-01,7.99283e-01,9.99999e-01,9.99999e-01,9.88013e-01,8.08980e-01,9.99999e-01
9.526968669e-01,8.07660e-01,9.99999e-01,9.99999e-01,9.94196e-01,8.12374e-01,9.99999e-01
9.574603512e-01,8.13688e-01,9.99999e-01,9.99999e-01,9.97514e-01,8.15715e-01,9.99999e-01
9.622476530e-01,8.18368e-01,9.99999e-01,9.99999e-01,9.99223e-01,8.19004e-01,9.99999e-01
9.670588912e-01,8.22049e-01,9.99999e-01,9.99999e-01,9.99766e-01,8.22240e-01,9.99999e-01
9.718941857e-01,8.25412e-01,9.99999e-01,9.99999e-01,9.99982e-01,8.25425e-01,9.99999e-01
9.767536566e-01,8.28559e-01,9.99999e-01,9.99999e-01,9.99999e-01,8.28559e-01,9.99999e-01
9.816374249e-01,8.31643e-01,9.99999e-01,9.99999e-01,9.99999e-01,8.31643e-01,9.99999e-01
9.865456120e-01,8.34677e-01,9.99999e-01,9.99999e-01,9.99999e-01,8.34677e-01,9.99999e-01
9.914783401e-01,8.37661e-01,9.99999e-01,9.99999e-01,9.99999e-01,8.37661e-01,9.99999e-01
9.964357318e-01,8.40597e-01,9.99999e-01,9.99999e-01,9.99999e-01,8.40597e-01,9.99999e-01
1.001417910e+00,8.43486e-01,9.99999e-01,9.99999e-01,9.99999e-01,8.43486e-01,9.99999e-01
1.006425000e+00,8.46326e-01,9.99999e-01,9.99999e-01,9.99999e-01,8.46326e-01,9.99999e-01
1.011457125e+00,8.49120e-01,9.99999e-01,9.99999e-01,9.99999e-01,8.49120e-01,9.99999e-01
1.016514411e+00,8.51868e-01,9.99999e-01,9.99999e-01,9.99999e-01,8.51868e-01,9.99999e-01
1.021596983e+00,8.54544e-01,9.99999e-01,9.99999e-01,9.99969e-01,8.54570e-01,9.99999e-01
1.026704968e+00,8.55205e-01,9.99999e-01,9.99999e-01,9.97641e-01,8.57226e-01,9.99999e-01
1.031838492e+00,8.33251e-01,9.99999e-01,9.99999e-01,9.69077e-01,8.59839e-01,9.99999e-01
1.036997685e+00,1.98513e-01,9.99999e-01,9.99999e-01,2.30185e-01,8.62407e-01,9.99999e-01
1.042182673e+00,2.14908e-01,9.99999e-01,9.99999e-01,2.48468e-01,8.64933e-01,9.99999e-01
1.047393587e+00,2.15351e-01,9.99999e-01,9.99999e-01,2.48267e-01,8.67415e-01,9.99999e-01
1.052630555e+00,1.91686e-02,9.99999e-01,9.99999e-01,2.20366e-02,8.69856e-01,9.99999e-01
1.057893707e+00,3.97225e-02,9.99999e-01,9.99999e-01,4.55400e-02,8.72255e-01,9.99999e-01
1.063183176e+00,9.20738e-02,9.99999e-01,9.99999e-01,1.05274e-01,8.74613e-01,9.99999e-01
1.068499092e+00,1.91489e-01,9.99999e-01,9.99999e-01,2.18363e-01,8.76930e-01,9.99999e-01
1.073841587e+00,3.36144e-01,9.99999e-01,9.99999e-01,3.82326e-01,8.79208e-01,9.99999e-01
1.079210795e+00,4.80257e-01,9.99999e-01,9.99999e-01,5.44850e-01,8.81446e-01,9.99999e-01
1.084606849e+00,6.33671e-01,9.99999e-01,9.99999e-01,7.17109e-01,8.83646e-01,9.99999e-01
1.090029883e+00,7.45700e-01,9.99999e-01,9.99999e-01,8.41829e-01,8.85808e-01,9.99999e-01
1.095480033e+00,8.15709e-01,9.99999e-01,9.99999e-01,9.18660e-01,8.87932e-01,9.99999e-01
1.100957433e+00,8.54420e-01,9.99999e-01,9.99999e-01,9.60001e-01,8.90019e-01,9.99999e-01
1.106462220e+00,8.77134e-01,9.99999e-01,9.99999e-01,9.83256e-01,8.92070e-01,9.99999e-01
1.111994531e+00,8.88509e-01,9.99999e-01,9.99999e-01,9.93763e-01,8.94084e-01,9.99999e-01
1.117554504e+00,8.94694e-01,9.99999e-01,9.99999e-01,9.98470e-01,8.96064e-01,9.99999e-01
1.123142276e+00,8.97918e-01,9.99999e-01,9.99999e-01,9.99898e-01,8.98008e-01,9.99999e-01
1.128757988e+00,8.99918e-01,9.99999e-01,9.99999e-01,9.99999e-01,8.99918e-01,9.99999e-01
1.134401778e+00,9.01795e-01,9.99999e-01,9.99999e-01,9.99999e-01,9.01795e-01,9.99999e-01
1.140073787e+00,9.03638e-01,9.99999e-01,9.99999e-01,9.99999e-01,9.03638e-01,9.99999e-01
1.145774156e+00,9.05448e-01,9.99999e-01,9.99999e-01,9.99999e-01,9.05448e-01,9.99999e-01
1.151503026e+00,9.07227e-01,9.99999e-01,9.99999e-01,9.99999e-01,9.07227e-01,9.99999e-01
1.157260541e+00,9.08973e-01,9.99999e-01,9.99999e-01,9.99999e-01,9.08973e-01,9.99999e-01
1.163046844e+00,9.10688e-01,9.99999e-01,9.99999e-01,9.99999e-01,9.10688e-01,9.99999e-01
1.168862078e+00,9.12373e-01,9.99999e-01,9.99999e-01,9.99999e-01,9.12373e-01,9.99999e-01
1.174706389e+00,9.14027e-01,9.99999e-01,9.99999e-01,9.99999e-01,9.14027e-01,9.99999e-01
1.180579921e+00,9.15651e-01,9.99999e-01,9.99999e-01,9.99999e-01,9.15651e-01,9.99999e-01
1.186482820e+00,9.17243e-01,9.99999e-01,9.99999e-01,9.99995e-01,9.17246e-01,9.99999e-01
1.192415234e+00,9.11071e-01,9.99999e-01,9.99999e-01,9.91574e-01,9.18813e-01,9.99999e-01
1.198377311e+00,5.29518e-01,9.99999e-01,9.99999e-01,5.75343e-01,9.20351e-01,9.99999e-01
1.204369197e+00,6.00616e-08,9.99999e-01,9.99999e-01,6.51525e-08,9.21861e-01,9.99999e-01
1.210391043e+00,9.88852e-27,9.99999e-01,9.99999e-01,1.07095e-26,9.23343e-01,9.99999e-01
1.216442998e+00,2.26258e-23,9.99999e-01,9.99999e-01,2.44656e-23,9.24799e-01,9.99999e-01
1.222525213e+00,4.83074e-23,9.99999e-01,9.99999e-01,5.21549e-23,9.26228e-01,9.99999e-01
1.228637839e+00,8.57106e-18,9.99999e-01,9.99999e-01,9.23972e-18,9.27631e-01,9.99999e-01
