#,Wave/freq,Total,N2,O2,CO2,Rayleigh,CIA
4.000000000e-01,6.39017e-13,9.99999e-01,9.99999e-01,9.99999e-01,6.39017e-13,9.99999e-01
4.020000000e-01,1.11334e-12,9.99999e-01,9.99999e-01,9.99999e-01,1.11334e-12,9.99999e-01
4.040100000e-01,1.91750e-12,9.99999e-01,9.99999e-01,9.99999e-01,1.91750e-12,9.99999e-01
4.060300500e-01,3.26723e-12,9.99999e-01,9.99999e-01,9.99999e-01,3.26723e-12,9.99999e-01
4.080602003e-01,5.50875e-12,9.99999e-01,9.99999e-01,9.99999e-01,5.50875e-12,9.99999e-01
4.101005013e-01,9.19275e-12,9.99999e-01,9.99999e-01,9.99999e-01,9.19275e-12,9.99999e-01
4.121510038e-01,1.51860e-11,9.99999e-01,9.99999e-01,9.99999e-01,1.51860e-11,9.99999e-01
4.142117588e-01,2.48392e-11,9.99999e-01,9.99999e-01,9.99999e-01,2.48392e-11,9.99999e-01
4.162828176e-01,4.02356e-11,9.99999e-01,9.99999e-01,9.99999e-01,4.02356e-11,9.99999e-01
4.183642317e-01,6.45572e-11,9.99999e-01,9.99999e-01,9.99999e-01,6.45572e-11,9.99999e-01
4.204560528e-01,1.02618e-10,9.99999e-01,9.99999e-01,9.99999e-01,1.02618e-10,9.99999e-01
4.225583331e-01,1.61632e-10,9.99999e-01,9.99999e-01,9.99999e-01,1.61632e-10,9.99999e-01
4.246711247e-01,2.52309e-10,9.99999e-01,9.99999e-01,9.99999e-01,2.52309e-10,9.99999e-01
4.267944804e-01,3.90408e-10,9.99999e-01,9.99999e-01,9.99999e-01,3.90408e-10,9.99999e-01
4.289284528e-01,5.98907e-10,9.99999e-01,9.99999e-01,9.99999e-01,5.98907e-10,9.99999e-01
4.310730950e-01,9.11023e-10,9.99999e-01,9.99999e-01,9.99999e-01,9.11023e-10,9.99999e-01
4.332284605e-01,1.37436e-09,9.99999e-01,9.99999e-01,9.99999e-01,1.37436e-09,9.99999e-01
4.353946028e-01,2.05658e-09,9.99999e-01,9.99999e-01,9.99999e-01,2.05658e-09,9.99999e-01
4.375715758e-01,3.05304e-09,9.99999e-01,9.99999e-01,9.99999e-01,3.05304e-09,9.99999e-01
4.397594337e-01,4.49707e-09,9.99999e-01,9.99999e-01,9.99999e-01,4.49707e-09,9.99999e-01
4.419582309e-01,6.57363e-09,9.99999e-01,9.99999e-01,9.99999e-01,6.57363e-09,9.99999e-01
4.441680220e-01,9.53726e-09,9.99999e-01,9.99999e-01,9.99999e-01,9.53726e-09,9.99999e-01
4.463888621e-01,1.37357e-08,9.99999e-01,9.99999e-01,9.99999e-01,1.37357e-08,9.99999e-01
4.486208064e-01,1.96402e-08,9.99999e-01,9.99999e-01,9.99999e-01,1.96402e-08,9.99999e-01
4.508639105e-01,2.78854e-08,9.99999e-01,9.99999e-01,9.99999e-01,2.78854e-08,9.99999e-01
4.531182300e-01,3.93187e-08,9.99999e-01,9.99999e-01,9.99999e-01,3.93187e-08,9.99999e-01
4.553838212e-01,5.50648e-08,9.99999e-01,9.99999e-01,9.99999e-01,5.50648e-08,9.99999e-01
4.576607403e-01,7.66055e-08,9.99999e-01,9.99999e-01,9.99999e-01,7.66055e-08,9.99999e-01
4.599490440e-01,1.05880e-07,9.99999e-01,9.99999e-01,9.99999e-01,1.05880e-07,9.99999e-01
4.622487892e-01,1.45409e-07,9.99999e-01,9.99999e-01,9.99999e-01,1.45409e-07,9.99999e-01
4.645600332e-01,1.98448e-07,9.99999e-01,9.99999e-01,9.99999e-01,1.98448e-07,9.99999e-01
4.668828333e-01,2.69175e-07,9.99999e-01,9.99999e-01,9.99999e-01,2.69175e-07,9.99999e-01
4.692172475e-01,3.62917e-07,9.99999e-01,9.99999e-01,9.99999e-01,3.62917e-07,9.99999e-01
4.715633337e-01,4.86426e-07,9.99999e-01,9.99999e-01,9.99999e-01,4.86426e-07,9.99999e-01
4.739211504e-01,6.48208e-07,9.99999e-01,9.99999e-01,9.99999e-01,6.48208e-07,9.99999e-01
4.762907561e-01,8.58911e-07,9.99999e-01,9.99999e-01,9.99999e-01,8.58911e-07,9.99999e-01
4.786722099e-01,1.13179e-06,9.99999e-01,9.99999e-01,9.99999e-01,1.13179e-06,9.99999e-01
4.810655710e-01,1.48327e-06,9.99999e-01,9.99999e-01,9.99999e-01,1.48327e-06,9.99999e-01
4.834708988e-01,1.93354e-06,9.99999e-01,9.99999e-01,9.99999e-01,1.93354e-06,9.99999e-01
4.858882533e-01,2.50733e-06,9.99999e-01,9.99999e-01,9.99999e-01,2.50733e-06,9.99999e-01
4.883176946e-01,3.23476e-06,9.99999e-01,9.99999e-01,9.99999e-01,3.23476e-06,9.99999e-01
4.907592831e-01,4.15227e-06,9.99999e-01,9.99999e-01,9.99999e-01,4.15227e-06,9.99999e-01
4.932130795e-01,5.30381e-06,9.99999e-01,9.99999e-01,9.99999e-01,5.30381e-06,9.99999e-01
4.956791449e-01,6.74202e-06,9.99999e-01,9.99999e-01,9.99999e-01,6.74202e-06,9.99999e-01
4.981575406e-01,8.52972e-06,9.99999e-01,9.99999e-01,9.99999e-01,8.52972e-06,9.99999e-01
5.006483283e-01,1.07414e-05,9.99999e-01,9.99999e-01,9.99999e-01,1.07414e-05,9.99999e-01
5.031515699e-01,1.34651e-05,9.99999e-01,9.99999e-01,9.99999e-01,1.34651e-05,9.99999e-01
5.056673278e-01,1.68043e-05,9.99999e-01,9.99999e-01,9.99999e-01,1.68043e-05,9.99999e-01
5.081956644e-01,2.08800e-05,9.99999e-01,9.99999e-01,9.99999e-01,2.08800e-05,9.99999e-01
5.107366428e-01,2.58331e-05,9.99999e-01,9.99999e-01,9.99999e-01,2.58331e-05,9.99999e-01
5.132903260e-01,3.18271e-05,9.99999e-01,9.99999e-01,9.99999e-01,3.18271e-05,9.99999e-01
5.158567776e-01,3.90507e-05,9.99999e-01,9.99999e-01,9.99999e-01,3.90507e-05,9.99999e-01
5.184360615e-01,4.77205e-05,9.99999e-01,9.99999e-01,9.99999e-01,4.77205e-05,9.99999e-01
5.210282418e-01,5.80846e-05,9.99999e-01,9.99999e-01,9.99999e-01,5.80846e-05,9.99999e-01
5.236333830e-01,7.04257e-05,9.99999e-01,9.99999e-01,9.99999e-01,7.04257e-05,9.99999e-01
5.262515499e-01,8.50646e-05,9.99999e-01,9.99999e-01,9.99999e-01,8.50646e-05,9.99999e-01
5.288828077e-01,1.02364e-04,9.99999e-01,9.99999e-01,9.99999e-01,1.02364e-04,9.99999e-01
5.315272217e-01,1.22731e-04,9.99999e-01,9.99999e-01,9.99999e-01,1.22731e-04,9.99999e-01
5.341848578e-01,1.46625e-04,9.99999e-01,9.99999e-01,9.99999e-01,1.46625e-04,9.99999e-01
5.368557821e-01,1.74556e-04,9.99999e-01,9.99999e-01,9.99999e-01,1.74556e-04,9.99999e-01
5.395400610e-01,2.07094e-04,9.99999e-01,9.99999e-01,9.99999e-01,2.07094e-04,9.99999e-01
5.422377613e-01,2.44868e-04,9.99999e-01,9.99999e-01,9.99999e-01,2.44868e-04,9.99999e-01
5.449489501e-01,2.88575e-04,9.99999e-01,9.99999e-01,9.99999e-01,2.88575e-04,9.99999e-01
5.476736949e-01,3.38983e-04,9.99999e-01,9.99999e-01,9.99999e-01,3.38983e-04,9.99999e-01
5.504120634e-01,3.96931e-04,9.99999e-01,9.99999e-01,9.99999e-01,3.96931e-04,9.99999e-01
5.531641237e-01,4.63339e-04,9.99999e-01,9.99999e-01,9.99999e-01,4.63339e-04,9.99999e-01
5.559299443e-01,5.39207e-04,9.99999e-01,9.99999e-01,9.99999e-01,5.39207e-04,9.99999e-01
5.587095940e-01,6.25622e-04,9.99999e-01,9.99999e-01,9.99999e-01,6.25622e-04,9.99999e-01
5.615031420e-01,7.23757e-04,9.99999e-01,9.99999e-01,9.99999e-01,7.23757e-04,9.99999e-01
5.643106577e-01,8.34879e-04,9.99999e-01,9.99999e-01,9.99999e-01,8.34879e-04,9.99999e-01
5.671322110e-01,9.60349e-04,9.99999e-01,9.99999e-01,9.99999e-01,9.60349e-04,9.99999e-01
5.699678720e-01,1.10162e-03,9.99999e-01,9.99999e-01,9.99999e-01,1.10162e-03,9.99999e-01
5.728177114e-01,1.26026e-03,9.99999e-01,9.99999e-01,9.99999e-01,1.26026e-03,9.99999e-01
5.756818000e-01,1.43792e-03,9.99999e-01,9.99999e-01,9.99999e-01,1.43792e-03,9.99999e-01
5.785602090e-01,1.63635e-03,9.99999e-01,9.99999e-01,9.99999e-01,1.63635e-03,9.99999e-01
5.814530100e-01,1.85741e-03,9.99999e-01,9.99999e-01,9.99999e-01,1.85741e-03,9.99999e-01
5.843602750e-01,2.10307e-03,9.99999e-01,9.99999e-01,9.99999e-01,2.10307e-03,9.99999e-01
5.872820764e-01,2.37539e-03,9.99999e-01,9.99999e-01,9.99999e-01,2.37539e-03,9.99999e-01
5.902184868e-01,2.67652e-03,9.99999e-01,9.99999e-01,9.99999e-01,2.67652e-03,9.99999e-01
5.931695792e-01,3.00872e-03,9.99999e-01,9.99999e-01,9.99999e-01,3.00872e-03,9.99999e-01
5.961354271e-01,3.37435e-03,9.99999e-01,9.99999e-01,9.99999e-01,3.37435e-03,9.99999e-01
5.991161043e-01,3.77585e-03,9.99999e-01,9.99999e-01,9.99999e-01,3.77585e-03,9.99999e-01
6.021116848e-01,4.21575e-03,9.99999e-01,9.99999e-01,9.99999e-01,4.21575e-03,9.99999e-01
6.051222432e-01,4.69666e-03,9.99999e-01,9.99999e-01,9.99999e-01,4.69666e-03,9.99999e-01
6.081478544e-01,5.22128e-03,9.99999e-01,9.99999e-01,9.99999e-01,5.22128e-03,9.99999e-01
6.111885937e-01,5.79237e-03,9.99999e-01,9.99999e-01,9.99999e-01,5.79237e-03,9.99999e-01
6.142445367e-01,6.41277e-03,9.99999e-01,9.99999e-01,9.99999e-01,6.41277e-03,9.99999e-01
6.173157594e-01,7.08536e-03,9.99999e-01,9.99999e-01,9.99999e-01,7.08536e-03,9.99999e-01
6.204023382e-01,7.81309e-03,9.99999e-01,9.99999e-01,9.99999e-01,7.81309e-03,9.99999e-01
6.235043498e-01,8.59893e-03,9.99999e-01,9.99999e-01,9.99999e-01,8.59893e-03,9.99999e-01
6.266218716e-01,9.44592e-03,9.99999e-01,9.99999e-01,9.99999e-01,9.44592e-03,9.99999e-01
6.297549810e-01,1.03571e-02,9.99999e-01,9.99999e-01,9.99999e-01,1.03571e-02,9.99999e-01
6.329037559e-01,1.13355e-02,9.99999e-01,9.99999e-01,9.99999e-01,1.13355e-02,9.99999e-01
6.360682746e-01,1.23843e-02,9.99999e-01,9.99999e-01,9.99999e-01,1.23843e-02,9.99999e-01
6.392486160e-01,1.35065e-02,9.99999e-01,9.99999e-01,9.99999e-01,1.35065e-02,9.99999e-01
6.424448591e-01,1.47051e-02,9.99999e-01,9.99999e-01,9.99999e-01,1.47051e-02,9.99999e-01
6.456570834e-01,1.59833e-02,9.99999e-01,9.99999e-01,9.99999e-01,1.59833e-02,9.99999e-01
6.488853688e-01,1.73439e-02,9.99999e-01,9.99999e-01,9.99999e-01,1.73439e-02,9.99999e-01
6.521297956e-01,1.87901e-02,9.99999e-01,9.99999e-01,9.99999e-01,1.87901e-02,9.99999e-01
6.553904446e-01,2.03247e-02,9.99999e-01,9.99999e-01,9.99999e-01,2.03247e-02,9.99999e-01
6.586673968e-01,2.19505e-02,9.99999e-01,9.99999e-01,9.99999e-01,2.19505e-02,9.99999e-01
6.619607338e-01,2.36703e-02,9.99999e-01,9.99999e-01,9.99999e-01,2.36703e-02,9.99999e-01
6.652705375e-01,2.54870e-02,9.99999e-01,9.99999e-01,9.99999e-01,2.54870e-02,9.99999e-01
6.685968902e-01,2.74029e-02,9.99999e-01,9.99999e-01,9.99999e-01,2.74029e-02,9.99999e-01
6.719398746e-01,2.94208e-02,9.99999e-01,9.99999e-01,9.99999e-01,2.94208e-02,9.99999e-01
6.752995740e-01,3.15430e-02,9.99999e-01,9.99999e-01,9.99999e-01,3.15430e-02,9.99999e-01
6.786760719e-01,3.37717e-02,9.99999e-01,9.99999e-01,9.99999e-01,3.37717e-02,9.99999e-01
6.820694522e-01,3.61092e-02,9.99999e-01,9.99999e-01,9.99999e-01,3.61092e-02,9.99999e-01
6.854797995e-01,3.85574e-02,9.99999e-01,9.99999e-01,9.99999e-01,3.85574e-02,9.99999e-01
6.889071985e-01,4.11184e-02,9.99999e-01,9.99999e-01,9.99999e-01,4.11184e-02,9.99999e-01
6.923517345e-01,4.37938e-02,9.99999e-01,9.99999e-01,9.99999e-01,4.37938e-02,9.99999e-01
6.958134932e-01,4.65852e-02,9.99999e-01,9.99999e-01,9.99999e-01,4.65852e-02,9.99999e-01
6.992925606e-01,4.94941e-02,9.99999e-01,9.99999e-01,9.99999e-01,4.94941e-02,9.99999e-01
7.027890234e-01,5.25217e-02,9.99999e-01,9.99999e-01,9.99999e-01,5.25217e-02,9.99999e-01
7.063029686e-01,5.56693e-02,9.99999e-01,9.99999e-01,9.99999e-01,5.56693e-02,9.99999e-01
7.098344834e-01,5.89376e-02,9.99999e-01,9.99999e-01,9.99999e-01,5.89376e-02,9.99999e-01
7.133836558e-01,6.23276e-02,9.99999e-01,9.99999e-01,9.99999e-01,6.23276e-02,9.99999e-01
7.169505741e-01,6.58398e-02,9.99999e-01,9.99999e-01,9.99999e-01,6.58398e-02,9.99999e-01
7.205353270e-01,6.94746e-02,9.99999e-01,9.99999e-01,9.99999e-01,6.94746e-02,9.99999e-01
7.241380036e-01,7.32323e-02,9.99999e-01,9.99999e-01,9.99999e-01,7.32323e-02,9.99999e-01
7.277586936e-01,7.71131e-02,9.99999e-01,9.99999e-01,9.99999e-01,7.71131e-02,9.99999e-01
7.313974871e-01,8.11166e-02,9.99999e-01,9.99999e-01,9.99999e-01,8.11166e-02,9.99999e-01
7.350544745e-01,8.52428e-02,9.99999e-01,9.99999e-01,9.99999e-01,8.52428e-02,9.99999e-01
7.387297469e-01,8.94911e-02,9.99999e-01,9.99999e-01,9.99999e-01,8.94911e-02,9.99999e-01
7.424233956e-01,9.38609e-02,9.99999e-01,9.99999e-01,9.99999e-01,9.38609e-02,9.99999e-01
7.461355126e-01,9.83514e-02,9.99999e-01,9.99999e-01,9.99999e-01,9.83514e-02,9.99999e-01
7.498661902e-01,1.02962e-01,9.99999e-01,9.99999e-01,9.99999e-01,1.02962e-01,9.99999e-01
7.536155211e-01,1.07691e-01,9.99999e-01,9.99999e-01,9.99999e-01,1.07691e-01,9.99999e-01
7.573835987e-01,1.12537e-01,9.99999e-01,9.99999e-01,9.99999e-01,1.12537e-01,9.99999e-01
7.611705167e-01,1.17499e-01,9.99999e-01,9.99999e-01,9.99999e-01,1.17499e-01,9.99999e-01
7.649763693e-01,1.22575e-01,9.99999e-01,9.99999e-01,9.99999e-01,1.22575e-01,9.99999e-01
7.688012511e-01,1.27764e-01,9.99999e-01,9.99999e-01,9.99999e-01,1.27764e-01,9.99999e-01
7.726452574e-01,1.33064e-01,9.99999e-01,9.99999e-01,9.99999e-01,1.33064e-01,9.99999e-01
7.765084837e-01,1.38472e-01,9.99999e-01,9.99999e-01,9.99999e-01,1.38472e-01,9.99999e-01
7.803910261e-01,1.32545e-01,9.99999e-01,9.99999e-01,9.20538e-01,1.43987e-01,9.99999e-01
7.842929812e-01,1.02022e-01,9.99999e-01,9.99999e-01,6.81943e-01,1.49605e-01,9.99999e-01
7.882144461e-01,1.03313e-01,9.99999e-01,9.99999e-01,6.65137e-01,1.55326e-01,9.99999e-01
7.921555184e-01,1.25713e-01,9.99999e-01,9.99999e-01,7.80117e-01,1.61146e-01,9.99999e-01
7.961162960e-01,1.41426e-01,9.99999e-01,9.99999e-01,8.46543e-01,1.67062e-01,9.99999e-01
8.000968774e-01,1.58087e-01,9.99999e-01,9.99999e-01,9.13415e-01,1.73073e-01,9.99999e-01
8.040973618e-01,1.70982e-01,9.99999e-01,9.99999e-01,9.54275e-01,1.79174e-01,9.99999e-01
8.081178486e-01,1.81407e-01,9.99999e-01,9.99999e-01,9.78650e-01,1.85364e-01,9.99999e-01
8.121584379e-01,1.90378e-01,9.99999e-01,9.99999e-01,9.93421e-01,1.91639e-01,9.99999e-01
8.162192301e-01,1.97707e-01,9.99999e-01,9.99999e-01,9.98542e-01,1.97996e-01,9.99999e-01
8.203003262e-01,2.04428e-01,9.99999e-01,9.99999e-01,9.99979e-01,2.04432e-01,9.99999e-01
8.244018279e-01,2.10944e-01,9.99999e-01,9.99999e-01,9.99999e-01,2.10944e-01,9.99999e-01
8.285238370e-01,2.17529e-01,9.99999e-01,9.99999e-01,9.99999e-01,2.17529e-01,9.99999e-01
8.326664562e-01,2.24183e-01,9.99999e-01,9.99999e-01,9.99999e-01,2.24183e-01,9.99999e-01
8.368297885e-01,2.30903e-01,9.99999e-01,9.99999e-01,9.99999e-01,2.30903e-01,9.99999e-01
8.410139374e-01,2.37686e-01,9.99999e-01,9.99999e-01,9.99999e-01,2.37686e-01,9.99999e-01
8.452190071e-01,2.44528e-01,9.99999e-01,9.99999e-01,9.99999e-01,2.44528e-01,9.99999e-01
8.494451021e-01,2.51426e-01,9.99999e-01,9.99999e-01,9.99999e-01,2.51426e-01,9.99999e-01
8.536923276e-01,2.58377e-01,9.99999e-01,9.99999e-01,9.99999e-01,2.58377e-01,9.99999e-01
8.579607893e-01,2.65377e-01,9.99999e-01,9.99999e-01,9.99999e-01,2.65377e-01,9.99999e-01
8.622505932e-01,2.72423e-01,9.99999e-01,9.99999e-01,9.99999e-01,2.72423e-01,9.99999e-01
8.665618462e-01,2.44128e-01,9.99999e-01,9.99999e-01,8.73411e-01,2.79511e-01,9.99999e-01
8.708946554e-01,1.10746e-01,9.99999e-01,9.99999e-01,3.86360e-01,2.86638e-01,9.99999e-01
8.752491287e-01,1.34062e-01,9.99999e-01,9.99999e-01,4.56301e-01,2.93801e-01,9.99999e-01
8.796253743e-01,1.93944e-01,9.99999e-01,9.99999e-01,6.44342e-01,3.00996e-01,9.99999e-01
8.840235012e-01,2.44576e-01,9.99999e-01,9.99999e-01,7.93511e-01,3.08219e-01,9.99999e-01
8.884436187e-01,2.87953e-01,9.99999e-01,9.99999e-01,9.12776e-01,3.15469e-01,9.99999e-01
8.928858368e-01,3.10980e-01,9.99999e-01,9.99999e-01,9.63561e-01,3.22740e-01,9.99999e-01
8.973502660e-01,3.27084e-01,9.99999e-01,9.99999e-01,9.91071e-01,3.30031e-01,9.99999e-01
9.018370173e-01,3.37005e-01,9.99999e-01,9.99999e-01,9.99014e-01,3.37337e-01,9.99999e-01
9.063462024e-01,3.35884e-01,9.99999e-01,9.99999e-01,9.74546e-01,3.44656e-01,9.99999e-01
9.108779334e-01,3.31941e-01,9.99999e-01,9.99999e-01,9.43053e-01,3.51985e-01,9.99999e-01
9.154323231e-01,3.54456e-01,9.99999e-01,9.99999e-01,9.86462e-01,3.59320e-01,9.99999e-01
9.200094847e-01,3.05316e-01,9.99999e-01,9.99999e-01,8.32697e-01,3.66658e-01,9.99999e-01
9.246095321e-01,2.80993e-01,9.99999e-01,9.99999e-01,7.51323e-01,3.73997e-01,9.99999e-01
9.292325798e-01,3.05139e-01,9.99999e-01,9.99999e-01,8.00187e-01,3.81334e-01,9.99999e-01
9.338787427e-01,3.13271e-01,9.99999e-01,9.99999e-01,8.06017e-01,3.88665e-01,9.99999e-01
9.385481364e-01,3.37593e-01,9.99999e-01,9.99999e-01,8.52532e-01,3.95988e-01,9.99999e-01
9.432408771e-01,3.65706e-01,9.99999e-01,9.99999e-01,9.06782e-01,4.03301e-01,9.99999e-01
9.479570815e-01,3.90443e-01,9.99999e-01,9.99999e-01,9.50908e-01,4.10600e-01,9.99999e-01
9.526968669e-01,4.07891e-01,9.99999e-01,9.99999e-01,9.76088e-01,4.17883e-01,9.99999e-01
9.574603512e-01,4.20772e-01,9.99999e-01,9.99999e-01,9.89705e-01,4.25148e-01,9.99999e-01
9.622476530e-01,4.31000e-01,9.99999e-01,9.99999e-01,9.96781e-01,4.32392e-01,9.99999e-01
9.670588912e-01,4.39189e-01,9.99999e-01,9.99999e-01,9.99036e-01,4.39612e-01,9.99999e-01
9.718941857e-01,4.46777e-01,9.99999e-01,9.99999e-01,9.99933e-01,4.46807e-01,9.99999e-01
9.767536566e-01,4.53974e-01,9.99999e-01,9.99999e-01,9.99999e-01,4.53974e-01,9.99999e-01
9.816374249e-01,4.61111e-01,9.99999e-01,9.99999e-01,9.99999e-01,4.61111e-01,9.99999e-01
9.865456120e-01,4.68216e-01,9.99999e-01,9.99999e-01,9.99999e-01,4.68216e-01,9.99999e-01
9.914783401e-01,4.75287e-01,9.99999e-01,9.99999e-01,9.99999e-01,4.75287e-01,9.99999e-01
9.964357318e-01,4.82321e-01,9.99999e-01,9.99999e-01,9.99999e-01,4.82321e-01,9.99999e-01
1.001417910e+00,4.89318e-01,9.99999e-01,9.99999e-01,9.99999e-01,4.89318e-01,9.99999e-01
1.006425000e+00,4.96275e-01,9.99999e-01,9.99999e-01,9.99999e-01,4.96275e-01,9.99999e-01
1.011457125e+00,5.03191e-01,9.99999e-01,9.99999e-01,9.99999e-01,5.03191e-01,9.99999e-01
1.016514411e+00,5.10064e-01,9.99999e-01,9.99999e-01,9.99999e-01,5.10064e-01,9.99999e-01
1.021596983e+00,5.16812e-01,9.99999e-01,9.99999e-01,9.99844e-01,5.16892e-01,9.99999e-01
1.026704968e+00,5.18363e-01,9.99999e-01,9.99999e-01,9.89859e-01,5.23673e-01,9.99999e-01
1.031838492e+00,4.82979e-01,9.99999e-01,9.99999e-01,9.10581e-01,5.30408e-01,9.99999e-01
1.036997685e+00,3.19079e-02,9.99999e-01,9.99999e-01,5.94084e-02,5.37093e-01,9.99999e-01
1.042182673e+00,3.76547e-03,9.99999e-01,9.99999e-01,6.92527e-03,5.43728e-01,9.99999e-01
1.047393587e+00,8.54733e-03,9.99999e-01,9.99999e-01,1.55318e-02,5.50311e-01,9.99999e-01
1.052630555e+00,3.03664e-06,9.99999e-01,9.99999e-01,5.45333e-06,5.56842e-01,9.99999e-01
1.057893707e+00,1.15390e-05,9.99999e-01,9.99999e-01,2.04840e-05,5.63319e-01,9.99999e-01
1.063183176e+00,1.86258e-04,9.99999e-01,9.99999e-01,3.26917e-04,5.69741e-01,9.99999e-01
1.068499092e+00,1.47059e-03,9.99999e-01,9.99999e-01,2.55263e-03,5.76108e-01,9.99999e-01
1.073841587e+00,1.27162e-02,9.99999e-01,9.99999e-01,2.18335e-02,5.82417e-01,9.99999e-01
1.079210795e+00,5.30338e-02,9.99999e-01,9.99999e-01,9.00908e-02,5.88669e-01,9.99999e-01
1.084606849e+00,1.53183e-01,9.99999e-01,9.99999e-01,2.57510e-01,5.94863e-01,9.99999e-01
1.090029883e+00,2.95419e-01,9.99999e-01,9.99999e-01,4.91547e-01,6.00998e-01,9.99999e-01
1.095480033e+00,4.27539e-01,9.99999e-01,9.99999e-01,7.04262e-01,6.07073e-01,9.99999e-01
1.100957433e+00,5.17398e-01,9.99999e-01,9.99999e-01,8.43922e-01,6.13087e-01,9.99999e-01
1.106462220e+00,5.77095e-01,9.99999e-01,9.99999e-01,9.32239e-01,6.19041e-01,9.99999e-01
1.111994531e+00,6.08874e-01,9.99999e-01,9.99999e-01,9.74302e-01,6.24933e-01,9.99999e-01
1.117554504e+00,6.26787e-01,9.99999e-01,9.99999e-01,9.93696e-01,6.30763e-01,9.99999e-01
1.123142276e+00,6.36268e-01,9.99999e-01,9.99999e-01,9.99587e-01,6.36530e-01,9.99999e-01
1.128757988e+00,6.42235e-01,9.99999e-01,9.99999e-01,9.99999e-01,6.42235e-01,9.99999e-01
1.134401778e+00,6.47877e-01,9.99999e-01,9.99999e-01,9.99999e-01,6.47877e-01,9.99999e-01
1.140073787e+00,6.53456e-01,9.99999e-01,9.99999e-01,9.99999e-01,6.53456e-01,9.99999e-01
1.145774156e+00,6.58971e-01,9.99999e-01,9.99999e-01,9.99999e-01,6.58971e-01,9.99999e-01
1.151503026e+00,6.64422e-01,9.99999e-01,9.99999e-01,9.99999e-01,6.64422e-01,9.99999e-01
1.157260541e+00,6.69809e-01,9.99999e-01,9.99999e-01,9.99999e-01,6.69809e-01,9.99999e-01
1.163046844e+00,6.75133e-01,9.99999e-01,9.99999e-01,9.99999e-01,6.75133e-01,9.99999e-01
1.168862078e+00,6.80392e-01,9.99999e-01,9.99999e-01,9.99999e-01,6.80392e-01,9.99999e-01
1.174706389e+00,6.85587e-01,9.99999e-01,9.99999e-01,9.99999e-01,6.85587e-01,9.99999e-01
1.180579921e+00,6.90718e-01,9.99999e-01,9.99999e-01,9.99999e-01,6.90718e-01,9.99999e-01
1.186482820e+00,6.95768e-01,9.99999e-01,9.99999e-01,9.99976e-01,6.95785e-01,9.99999e-01
1.192415234e+00,6.76293e-01,9.99999e-01,9.99999e-01,9.65047e-01,7.00787e-01,9.99999e-01
1.198377311e+00,3.70040e-01,9.99999e-01,9.99999e-01,5.24339e-01,7.05726e-01,9.99999e-01
1.204369197e+00,3.50691e-26,9.99999e-01,9.99999e-01,4.93512e-26,7.10602e-01,9.99999e-01
1.210391043e+00,4.55578e-105,9.99999e-01,9.99999e-01,6.36803e-105,7.15413e-01,9.99999e-01
1.216442998e+00,5.82629e-91,9.99999e-01,9.99999e-01,8.09026e-91,7.20161e-01,9.99999e-01
1.222525213e+00,1.33566e-89,9.99999e-01,9.99999e-01,1.84268e-89,7.24846e-01,9.99999e-01
1.228637839e+00,3.55193e-69,9.99999e-01,9.99999e-01,4.86920e-69,7.29468e-01,9.99999e-01
