#,Wave/freq,Total,N2,O2,CO2,Rayleigh,CIA
4.000000000e-01,3.66041e-10,9.99999e-01,9.99999e-01,9.99999e-01,3.66041e-10,9.99999e-01
4.020000000e-01,5.62488e-10,9.99999e-01,9.99999e-01,9.99999e-01,5.62488e-10,9.99999e-01
4.040100000e-01,8.56685e-10,9.99999e-01,9.99999e-01,9.99999e-01,8.56685e-10,9.99999e-01
4.060300500e-01,1.29396e-09,9.99999e-01,9.99999e-01,9.99999e-01,1.29396e-09,9.99999e-01
4.080602003e-01,1.93857e-09,9.99999e-01,9.99999e-01,9.99999e-01,1.93857e-09,9.99999e-01
4.101005013e-01,2.88122e-09,9.99999e-01,9.99999e-01,9.99999e-01,2.88122e-09,9.99999e-01
4.121510038e-01,4.24884e-09,9.99999e-01,9.99999e-01,9.99999e-01,4.24884e-09,9.99999e-01
4.142117588e-01,6.21774e-09,9.99999e-01,9.99999e-01,9.99999e-01,6.21774e-09,9.99999e-01
4.162828176e-01,9.03086e-09,9.99999e-01,9.99999e-01,9.99999e-01,9.03086e-09,9.99999e-01
4.183642317e-01,1.30204e-08,9.99999e-01,9.99999e-01,9.99999e-01,1.30204e-08,9.99999e-01
4.204560528e-01,1.86371e-08,9.99999e-01,9.99999e-01,9.99999e-01,1.86371e-08,9.99999e-01
4.225583331e-01,2.64885e-08,9.99999e-01,9.99999e-01,9.99999e-01,2.64885e-08,9.99999e-01
4.246711247e-01,3.73871e-08,9.99999e-01,9.99999e-01,9.99999e-01,3.73871e-08,9.99999e-01
4.267944804e-01,5.24117e-08,9.99999e-01,9.99999e-01,9.99999e-01,5.24117e-08,9.99999e-01
4.289284528e-01,7.29857e-08,9.99999e-01,9.99999e-01,9.99999e-01,7.29857e-08,9.99999e-01
4.310730950e-01,1.00973e-07,9.99999e-01,9.99999e-01,9.99999e-01,1.00973e-07,9.99999e-01
4.332284605e-01,1.38800e-07,9.99999e-01,9.99999e-01,9.99999e-01,1.38800e-07,9.99999e-01
4.353946028e-01,1.89603e-07,9.99999e-01,9.99999e-01,9.99999e-01,1.89603e-07,9.99999e-01
4.375715758e-01,2.57410e-07,9.99999e-01,9.99999e-01,9.99999e-01,2.57410e-07,9.99999e-01
4.397594337e-01,3.47361e-07,9.99999e-01,9.99999e-01,9.99999e-01,3.47361e-07,9.99999e-01
4.419582309e-01,4.65980e-07,9.99999e-01,9.99999e-01,9.99999e-01,4.65980e-07,9.99999e-01
4.441680220e-01,6.21487e-07,9.99999e-01,9.99999e-01,9.99999e-01,6.21487e-07,9.99999e-01
4.463888621e-01,8.24190e-07,9.99999e-01,9.99999e-01,9.99999e-01,8.24190e-07,9.99999e-01
4.486208064e-01,1.08693e-06,9.99999e-01,9.99999e-01,9.99999e-01,1.08693e-06,9.99999e-01
4.508639105e-01,1.42561e-06,9.99999e-01,9.99999e-01,9.99999e-01,1.42561e-06,9.99999e-01
4.531182300e-01,1.85983e-06,9.99999e-01,9.99999e-01,9.99999e-01,1.85983e-06,9.99999e-01
4.553838212e-01,2.41360e-06,9.99999e-01,9.99999e-01,9.99999e-01,2.41360e-06,9.99999e-01
4.576607403e-01,3.11618e-06,9.99999e-01,9.99999e-01,9.99999e-01,3.11618e-06,9.99999e-01
4.599490440e-01,4.00301e-06,9.99999e-01,9.99999e-01,9.99999e-01,4.00301e-06,9.99999e-01
4.622487892e-01,5.11685e-06,9.99999e-01,9.99999e-01,9.99999e-01,5.11685e-06,9.99999e-01
4.645600332e-01,6.50898e-06,9.99999e-01,9.99999e-01,9.99999e-01,6.50898e-06,9.99999e-01
4.668828333e-01,8.24061e-06,9.99999e-01,9.99999e-01,9.99999e-01,8.24061e-06,9.99999e-01
4.692172475e-01,1.03844e-05,9.99999e-01,9.99999e-01,9.99999e-01,1.03844e-05,9.99999e-01
4.715633337e-01,1.30263e-05,9.99999e-01,9.99999e-01,9.99999e-01,1.30263e-05,9.99999e-01
4.739211504e-01,1.62673e-05,9.99999e-01,9.99999e-01,9.99999e-01,1.62673e-05,9.99999e-01
4.762907561e-01,2.02257e-05,9.99999e-01,9.99999e-01,9.99999e-01,2.02257e-05,9.99999e-01
4.786722099e-01,2.50394e-05,9.99999e-01,9.99999e-01,9.99999e-01,2.50394e-05,9.99999e-01
4.810655710e-01,3.08682e-05,9.99999e-01,9.99999e-01,9.99999e-01,3.08682e-05,9.99999e-01
4.834708988e-01,3.78970e-05,9.99999e-01,9.99999e-01,9.99999e-01,3.78970e-05,9.99999e-01
4.858882533e-01,4.63381e-05,9.99999e-01,9.99999e-01,9.99999e-01,4.63381e-05,9.99999e-01
4.883176946e-01,5.64348e-05,9.99999e-01,9.99999e-01,9.99999e-01,5.64348e-05,9.99999e-01
4.907592831e-01,6.84644e-05,9.99999e-01,9.99999e-01,9.99999e-01,6.84644e-05,9.99999e-01
4.932130795e-01,8.27417e-05,9.99999e-01,9.99999e-01,9.99999e-01,8.27417e-05,9.99999e-01
4.956791449e-01,9.96230e-05,9.99999e-01,9.99999e-01,9.99999e-01,9.96230e-05,9.99999e-01
4.981575406e-01,1.19509e-04,9.99999e-01,9.99999e-01,9.99999e-01,1.19509e-04,9.99999e-01
5.006483283e-01,1.42851e-04,9.99999e-01,9.99999e-01,9.99999e-01,1.42851e-04,9.99999e-01
5.031515699e-01,1.70151e-04,9.99999e-01,9.99999e-01,9.99999e-01,1.70151e-04,9.99999e-01
5.056673278e-01,2.01969e-04,9.99999e-01,9.99999e-01,9.99999e-01,2.01969e-04,9.99999e-01
5.081956644e-01,2.38926e-04,9.99999e-01,9.99999e-01,9.99999e-01,2.38926e-04,9.99999e-01
5.107366428e-01,2.81710e-04,9.99999e-01,9.99999e-01,9.99999e-01,2.81710e-04,9.99999e-01
5.132903260e-01,3.31075e-04,9.99999e-01,9.99999e-01,9.99999e-01,3.31075e-04,9.99999e-01
5.158567776e-01,3.87853e-04,9.99999e-01,9.99999e-01,9.99999e-01,3.87853e-04,9.99999e-01
5.184360615e-01,4.52949e-04,9.99999e-01,9.99999e-01,9.99999e-01,4.52949e-04,9.99999e-01
5.210282418e-01,5.27352e-04,9.99999e-01,9.99999e-01,9.99999e-01,5.27352e-04,9.99999e-01
5.236333830e-01,6.12135e-04,9.99999e-01,9.99999e-01,9.99999e-01,6.12135e-04,9.99999e-01
5.262515499e-01,7.08459e-04,9.99999e-01,9.99999e-01,9.99999e-01,7.08459e-04,9.99999e-01
5.288828077e-01,8.17578e-04,9.99999e-01,9.99999e-01,9.99999e-01,8.17578e-04,9.99999e-01
5.315272217e-01,9.40837e-04,9.99999e-01,9.99999e-01,9.99999e-01,9.40837e-04,9.99999e-01
5.341848578e-01,1.07968e-03,9.99999e-01,9.99999e-01,9.99999e-01,1.07968e-03,9.99999e-01
5.368557821e-01,1.23565e-03,9.99999e-01,9.99999e-01,9.99999e-01,1.23565e-03,9.99999e-01
5.395400610e-01,1.41038e-03,9.99999e-01,9.99999e-01,9.99999e-01,1.41038e-03,9.99999e-01
5.422377613e-01,1.60563e-03,9.99999e-01,9.99999e-01,9.99999e-01,1.60563e-03,9.99999e-01
5.449489501e-01,1.82322e-03,9.99999e-01,9.99999e-01,9.99999e-01,1.82322e-03,9.99999e-01
5.476736949e-01,2.06512e-03,9.99999e-01,9.99999e-01,9.99999e-01,2.06512e-03,9.99999e-01
5.504120634e-01,2.33336e-03,9.99999e-01,9.99999e-01,9.99999e-01,2.33336e-03,9.99999e-01
5.531641237e-01,2.63009e-03,9.99999e-01,9.99999e-01,9.99999e-01,2.63009e-03,9.99999e-01
5.559299443e-01,2.95755e-03,9.99999e-01,9.99999e-01,9.99999e-01,2.95755e-03,9.99999e-01
5.587095940e-01,3.31809e-03,9.99999e-01,9.99999e-01,9.99999e-01,3.31809e-03,9.99999e-01
5.615031420e-01,3.71412e-03,9.99999e-01,9.99999e-01,9.99999e-01,3.71412e-03,9.99999e-01
5.643106577e-01,4.14818e-03,9.99999e-01,9.99999e-01,9.99999e-01,4.14818e-03,9.99999e-01
5.671322110e-01,4.62286e-03,9.99999e-01,9.99999e-01,9.99999e-01,4.62286e-03,9.99999e-01
5.699678720e-01,5.14085e-03,9.99999e-01,9.99999e-01,9.99999e-01,5.14085e-03,9.99999e-01
5.728177114e-01,5.70489e-03,9.99999e-01,9.99999e-01,9.99999e-01,5.70489e-03,9.99999e-01
5.756818000e-01,6.31782e-03,9.99999e-01,9.99999e-01,9.99999e-01,6.31782e-03,9.99999e-01
5.785602090e-01,6.98251e-03,9.99999e-01,9.99999e-01,9.99999e-01,6.98251e-03,9.99999e-01
5.814530100e-01,7.70189e-03,9.99999e-01,9.99999e-01,9.99999e-01,7.70189e-03,9.99999e-01
5.843602750e-01,8.47896e-03,9.99999e-01,9.99999e-01,9.99999e-01,8.47896e-03,9.99999e-01
5.872820764e-01,9.31672e-03,9.99999e-01,9.99999e-01,9.99999e-01,9.31672e-03,9.99999e-01
5.902184868e-01,1.02182e-02,9.99999e-01,9.99999e-01,9.99999e-01,1.02182e-02,9.99999e-01
5.931695792e-01,1.11865e-02,9.99999e-01,9.99999e-01,9.99999e-01,1.11865e-02,9.99999e-01
5.961354271e-01,1.22247e-02,9.99999e-01,9.99999e-01,9.99999e-01,1.22247e-02,9.99999e-01
5.991161043e-01,1.33358e-02,9.99999e-01,9.99999e-01,9.99999e-01,1.33358e-02,9.99999e-01
6.021116848e-01,1.45230e-02,9.99999e-01,9.99999e-01,9.99999e-01,1.45230e-02,9.99999e-01
6.051222432e-01,1.57892e-02,9.99999e-01,9.99999e-01,9.99999e-01,1.57892e-02,9.99999e-01
6.081478544e-01,1.71374e-02,9.99999e-01,9.99999e-01,9.99999e-01,1.71374e-02,9.99999e-01
6.111885937e-01,1.85708e-02,9.99999e-01,9.99999e-01,9.99999e-01,1.85708e-02,9.99999e-01
6.142445367e-01,2.00921e-02,9.99999e-01,9.99999e-01,9.99999e-01,2.00921e-02,9.99999e-01
6.173157594e-01,2.17042e-02,9.99999e-01,9.99999e-01,9.99999e-01,2.17042e-02,9.99999e-01
6.204023382e-01,2.34100e-02,9.99999e-01,9.99999e-01,9.99999e-01,2.34100e-02,9.99999e-01
6.235043498e-01,2.52122e-02,9.99999e-01,9.99999e-01,9.99999e-01,2.52122e-02,9.99999e-01
6.266218716e-01,2.71133e-02,9.99999e-01,9.99999e-01,9.99999e-01,2.71133e-02,9.99999e-01
6.297549810e-01,2.91159e-02,9.99999e-01,9.99999e-01,9.99999e-01,2.91159e-02,9.99999e-01
6.329037559e-01,3.12225e-02,9.99999e-01,9.99999e-01,9.99999e-01,3.12225e-02,9.99999e-01
6.360682746e-01,3.34353e-02,9.99999e-01,9.99999e-01,9.99999e-01,3.34353e-02,9.99999e-01
6.392486160e-01,3.57566e-02,9.99999e-01,9.99999e-01,9.99999e-01,3.57566e-02,9.99999e-01
6.424448591e-01,3.81884e-02,9.99999e-01,9.99999e-01,9.99999e-01,3.81884e-02,9.99999e-01
6.456570834e-01,4.07325e-02,9.99999e-01,9.99999e-01,9.99999e-01,4.07325e-02,9.99999e-01
6.488853688e-01,4.33909e-02,9.99999e-01,9.99999e-01,9.99999e-01,4.33909e-02,9.99999e-01
6.521297956e-01,4.61651e-02,9.99999e-01,9.99999e-01,9.99999e-01,4.61651e-02,9.99999e-01
6.553904446e-01,4.90565e-02,9.99999e-01,9.99999e-01,9.99999e-01,4.90565e-02,9.99999e-01
6.586673968e-01,5.20665e-02,9.99999e-01,9.99999e-01,9.99999e-01,5.20665e-02,9.99999e-01
6.619607338e-01,5.51963e-02,9.99999e-01,9.99999e-01,9.99999e-01,5.51963e-02,9.99999e-01
6.652705375e-01,5.84467e-02,9.99999e-01,9.99999e-01,9.99999e-01,5.84467e-02,9.99999e-01
6.685968902e-01,6.18187e-02,9.99999e-01,9.99999e-01,9.99999e-01,6.18187e-02,9.99999e-01
6.719398746e-01,6.53127e-02,9.99999e-01,9.99999e-01,9.99999e-01,6.53127e-02,9.99999e-01
6.752995740e-01,6.89294e-02,9.99999e-01,9.99999e-01,9.99999e-01,6.89294e-02,9.99999e-01
6.786760719e-01,7.26690e-02,9.99999e-01,9.99999e-01,9.99999e-01,7.26690e-02,9.99999e-01
6.820694522e-01,7.65315e-02,9.99999e-01,9.99999e-01,9.99999e-01,7.65315e-02,9.99999e-01
6.854797995e-01,8.05169e-02,9.99999e-01,9.99999e-01,9.99999e-01,8.05169e-02,9.99999e-01
6.889071985e-01,8.46250e-02,9.99999e-01,9.99999e-01,9.99999e-01,8.46250e-02,9.99999e-01
6.923517345e-01,8.88552e-02,9.99999e-01,9.99999e-01,9.99999e-01,8.88552e-02,9.99999e-01
6.958134932e-01,9.32071e-02,9.99999e-01,9.99999e-01,9.99999e-01,9.32071e-02,9.99999e-01
6.992925606e-01,9.76799e-02,9.99999e-01,9.99999e-01,9.99999e-01,9.76799e-02,9.99999e-01
7.027890234e-01,1.02273e-01,9.99999e-01,9.99999e-01,9.99999e-01,1.02273e-01,9.99999e-01
7.063029686e-01,1.06984e-01,9.99999e-01,9.99999e-01,9.99999e-01,1.06984e-01,9.99999e-01
7.098344834e-01,1.11813e-01,9.99999e-01,9.99999e-01,9.99999e-01,1.11813e-01,9.99999e-01
7.133836558e-01,1.16758e-01,9.99999e-01,9.99999e-01,9.99999e-01,1.16758e-01,9.99999e-01
7.169505741e-01,1.21818e-01,9.99999e-01,9.99999e-01,9.99999e-01,1.21818e-01,9.99999e-01
7.205353270e-01,1.26990e-01,9.99999e-01,9.99999e-01,9.99999e-01,1.26990e-01,9.99999e-01
7.241380036e-01,1.32273e-01,9.99999e-01,9.99999e-01,9.99999e-01,1.32273e-01,9.99999e-01
7.277586936e-01,1.37666e-01,9.99999e-01,9.99999e-01,9.99999e-01,1.37666e-01,9.99999e-01
7.313974871e-01,1.43165e-01,9.99999e-01,9.99999e-01,9.99999e-01,1.43165e-01,9.99999e-01
7.350544745e-01,1.48768e-01,9.99999e-01,9.99999e-01,9.99999e-01,1.48768e-01,9.99999e-01
7.387297469e-01,1.54474e-01,9.99999e-01,9.99999e-01,9.99999e-01,1.54474e-01,9.99999e-01
7.424233956e-01,1.60279e-01,9.99999e-01,9.99999e-01,9.99999e-01,1.60279e-01,9.99999e-01
7.461355126e-01,1.66182e-01,9.99999e-01,9.99999e-01,9.99999e-01,1.66182e-01,9.99999e-01
7.498661902e-01,1.72178e-01,9.99999e-01,9.99999e-01,9.99999e-01,1.72178e-01,9.99999e-01
7.536155211e-01,1.78266e-01,9.99999e-01,9.99999e-01,9.99999e-01,1.78266e-01,9.99999e-01
7.573835987e-01,1.84443e-01,9.99999e-01,9.99999e-01,9.99999e-01,1.84443e-01,9.99999e-01
7.611705167e-01,1.90706e-01,9.99999e-01,9.99999e-01,9.99999e-01,1.90706e-01,9.99999e-01
7.649763693e-01,1.97051e-01,9.99999e-01,9.99999e-01,9.99999e-01,1.97051e-01,9.99999e-01
7.688012511e-01,2.03476e-01,9.99999e-01,9.99999e-01,9.99999e-01,2.03476e-01,9.99999e-01
7.726452574e-01,2.09977e-01,9.99999e-01,9.99999e-01,9.99999e-01,2.09977e-01,9.99999e-01
7.765084837e-01,2.16551e-01,9.99999e-01,9.99999e-01,9.99999e-01,2.16551e-01,9.99999e-01
7.803910261e-01,2.09032e-01,9.99999e-01,9.99999e-01,9.36543e-01,2.23195e-01,9.99999e-01
7.842929812e-01,1.70039e-01,9.99999e-01,9.99999e-01,7.39603e-01,2.29905e-01,9.99999e-01
7.882144461e-01,1.71617e-01,9.99999e-01,9.99999e-01,7.25105e-01,2.36679e-01,9.99999e-01
7.921555184e-01,2.00789e-01,9.99999e-01,9.99999e-01,8.24550e-01,2.43513e-01,9.99999e-01
7.961162960e-01,2.19979e-01,9.99999e-01,9.99999e-01,8.78500e-01,2.50403e-01,9.99999e-01
8.000968774e-01,2.39871e-01,9.99999e-01,9.99999e-01,9.32093e-01,2.57346e-01,9.99999e-01
8.040973618e-01,2.54890e-01,9.99999e-01,9.99999e-01,9.64254e-01,2.64339e-01,9.99999e-01
8.081178486e-01,2.66873e-01,9.99999e-01,9.99999e-01,9.83396e-01,2.71378e-01,9.99999e-01
8.121584379e-01,2.77030e-01,9.99999e-01,9.99999e-01,9.94862e-01,2.78461e-01,9.99999e-01
8.162192301e-01,2.85258e-01,9.99999e-01,9.99999e-01,9.98863e-01,2.85582e-01,9.99999e-01
8.203003262e-01,2.92735e-01,9.99999e-01,9.99999e-01,9.99983e-01,2.92740e-01,9.99999e-01
8.244018279e-01,2.99930e-01,9.99999e-01,9.99999e-01,9.99999e-01,2.99930e-01,9.99999e-01
8.285238370e-01,3.07150e-01,9.99999e-01,9.99999e-01,9.99999e-01,3.07150e-01,9.99999e-01
8.326664562e-01,3.14395e-01,9.99999e-01,9.99999e-01,9.99999e-01,3.14395e-01,9.99999e-01
8.368297885e-01,3.21664e-01,9.99999e-01,9.99999e-01,9.99999e-01,3.21664e-01,9.99999e-01
8.410139374e-01,3.28952e-01,9.99999e-01,9.99999e-01,9.99999e-01,3.28952e-01,9.99999e-01
8.452190071e-01,3.36256e-01,9.99999e-01,9.99999e-01,9.99999e-01,3.36256e-01,9.99999e-01
8.494451021e-01,3.43573e-01,9.99999e-01,9.99999e-01,9.99999e-01,3.43573e-01,9.99999e-01
8.536923276e-01,3.50901e-01,9.99999e-01,9.99999e-01,9.99999e-01,3.50901e-01,9.99999e-01
8.579607893e-01,3.58235e-01,9.99999e-01,9.99999e-01,9.99999e-01,3.58235e-01,9.99999e-01
8.622505932e-01,3.65573e-01,9.99999e-01,9.99999e-01,9.99999e-01,3.65573e-01,9.99999e-01
8.665618462e-01,3.31654e-01,9.99999e-01,9.99999e-01,8.89361e-01,3.72912e-01,9.99999e-01
8.708946554e-01,1.79100e-01,9.99999e-01,9.99999e-01,4.71007e-01,3.80249e-01,9.99999e-01
8.752491287e-01,2.09098e-01,9.99999e-01,9.99999e-01,5.39494e-01,3.87582e-01,9.99999e-01
8.796253743e-01,2.79954e-01,9.99999e-01,9.99999e-01,7.08912e-01,3.94906e-01,9.99999e-01
8.840235012e-01,3.35915e-01,9.99999e-01,9.99999e-01,8.35151e-01,4.02220e-01,9.99999e-01
8.884436187e-01,3.81402e-01,9.99999e-01,9.99999e-01,9.31335e-01,4.09522e-01,9.99999e-01
8.928858368e-01,4.04948e-01,9.99999e-01,9.99999e-01,9.71545e-01,4.16807e-01,9.99999e-01
8.973502660e-01,4.21120e-01,9.99999e-01,9.99999e-01,9.93030e-01,4.24075e-01,9.99999e-01
9.018370173e-01,4.30990e-01,9.99999e-01,9.99999e-01,9.99230e-01,4.31322e-01,9.99999e-01
9.063462024e-01,4.29927e-01,9.99999e-01,9.99999e-01,9.80346e-01,4.38546e-01,9.99999e-01
9.108779334e-01,4.25899e-01,9.99999e-01,9.99999e-01,9.55475e-01,4.45745e-01,9.99999e-01
9.154323231e-01,4.48118e-01,9.99999e-01,9.99999e-01,9.89405e-01,4.52916e-01,9.99999e-01
9.200094847e-01,3.97541e-01,9.99999e-01,9.99999e-01,8.64111e-01,4.60058e-01,9.99999e-01
9.246095321e-01,3.74040e-01,9.99999e-01,9.99999e-01,8.00655e-01,4.67167e-01,9.99999e-01
9.292325798e-01,3.98814e-01,9.99999e-01,9.99999e-01,8.40947e-01,4.74243e-01,9.99999e-01
9.338787427e-01,4.06892e-01,9.99999e-01,9.99999e-01,8.45431e-01,4.81283e-01,9.99999e-01
9.385481364e-01,4.31371e-01,9.99999e-01,9.99999e-01,8.83439e-01,4.88286e-01,9.99999e-01
9.432408771e-01,4.59006e-01,9.99999e-01,9.99999e-01,9.26818e-01,4.95249e-01,9.99999e-01
9.479570815e-01,4.82945e-01,9.99999e-01,9.99999e-01,9.61712e-01,5.02171e-01,9.99999e-01
9.526968669e-01,4.99571e-01,9.99999e-01,9.99999e-01,9.81378e-01,5.09050e-01,9.99999e-01
9.574603512e-01,5.11755e-01,9.99999e-01,9.99999e-01,9.91994e-01,5.15885e-01,9.99999e-01
9.622476530e-01,5.21366e-01,9.99999e-01,9.99999e-01,9.97497e-01,5.22674e-01,9.99999e-01
9.670588912e-01,5.29018e-01,9.99999e-01,9.99999e-01,9.99250e-01,5.29415e-01,9.99999e-01
9.718941857e-01,5.36079e-01,9.99999e-01,9.99999e-01,9.99947e-01,5.36108e-01,9.99999e-01
9.767536566e-01,5.42750e-01,9.99999e-01,9.99999e-01,9.99999e-01,5.42750e-01,9.99999e-01
9.816374249e-01,5.49341e-01,9.99999e-01,9.99999e-01,9.99999e-01,5.49341e-01,9.99999e-01
9.865456120e-01,5.55880e-01,9.99999e-01,9.99999e-01,9.99999e-01,5.55880e-01,9.99999e-01
9.914783401e-01,5.62365e-01,9.99999e-01,9.99999e-01,9.99999e-01,5.62365e-01,9.99999e-01
9.964357318e-01,5.68795e-01,9.99999e-01,9.99999e-01,9.99999e-01,5.68795e-01,9.99999e-01
1.001417910e+00,5.75170e-01,9.99999e-01,9.99999e-01,9.99999e-01,5.75170e-01,9.99999e-01
1.006425000e+00,5.81488e-01,9.99999e-01,9.99999e-01,9.99999e-01,5.81488e-01,9.99999e-01
1.011457125e+00,5.87749e-01,9.99999e-01,9.99999e-01,9.99999e-01,5.87749e-01,9.99999e-01
1.016514411e+00,5.93951e-01,9.99999e-01,9.99999e-01,9.99999e-01,5.93951e-01,9.99999e-01
1.021596983e+00,6.00028e-01,9.99999e-01,9.99999e-01,9.99888e-01,6.00095e-01,9.99999e-01
1.026704968e+00,6.01471e-01,9.99999e-01,9.99999e-01,9.92233e-01,6.06178e-01,9.99999e-01
1.031838492e+00,5.67121e-01,9.99999e-01,9.99999e-01,9.26361e-01,6.12202e-01,9.99999e-01
1.036997685e+00,4.79878e-02,9.99999e-01,9.99999e-01,7.76295e-02,6.18164e-01,9.99999e-01
1.042182673e+00,1.11593e-02,9.99999e-01,9.99999e-01,1.78816e-02,6.24065e-01,9.99999e-01
1.047393587e+00,2.10676e-02,9.99999e-01,9.99999e-01,3.34457e-02,6.29905e-01,9.99999e-01
1.052630555e+00,3.21633e-05,9.99999e-01,9.99999e-01,5.05965e-05,6.35682e-01,9.99999e-01
1.057893707e+00,1.13978e-04,9.99999e-01,9.99999e-01,1.77703e-04,6.41396e-01,9.99999e-01
1.063183176e+00,1.03777e-03,9.99999e-01,9.99999e-01,1.60386e-03,6.47047e-01,9.99999e-01
1.068499092e+00,5.93620e-03,9.99999e-01,9.99999e-01,9.09573e-03,6.52635e-01,9.99999e-01
1.073841587e+00,3.29011e-02,9.99999e-01,9.99999e-01,4.99896e-02,6.58159e-01,9.99999e-01
1.079210795e+00,1.00001e-01,9.99999e-01,9.99999e-01,1.50690e-01,6.63620e-01,9.99999e-01
1.084606849e+00,2.32066e-01,9.99999e-01,9.99999e-01,3.46876e-01,6.69017e-01,9.99999e-01
1.090029883e+00,3.88024e-01,9.99999e-01,9.99999e-01,5.75405e-01,6.74349e-01,9.99999e-01
1.095480033e+00,5.17385e-01,9.99999e-01,9.99999e-01,7.61287e-01,6.79618e-01,9.99999e-01
1.100957433e+00,6.00270e-01,9.99999e-01,9.99999e-01,8.76533e-01,6.84823e-01,9.99999e-01
1.106462220e+00,6.53360e-01,9.99999e-01,9.99999e-01,9.46948e-01,6.89963e-01,9.99999e-01
1.111994531e+00,6.81129e-01,9.99999e-01,9.99999e-01,9.79986e-01,6.95039e-01,9.99999e-01
1.117554504e+00,6.96613e-01,9.99999e-01,9.99999e-01,9.95086e-01,7.00052e-01,9.99999e-01
1.123142276e+00,7.04773e-01,9.99999e-01,9.99999e-01,9.99677e-01,7.05000e-01,9.99999e-01
1.128757988e+00,7.09885e-01,9.99999e-01,9.99999e-01,9.99999e-01,7.09885e-01,9.99999e-01
1.134401778e+00,7.14706e-01,9.99999e-01,9.99999e-01,9.99999e-01,7.14706e-01,9.99999e-01
1.140073787e+00,7.19463e-01,9.99999e-01,9.99999e-01,9.99999e-01,7.19463e-01,9.99999e-01
1.145774156e+00,7.24157e-01,9.99999e-01,9.99999e-01,9.99999e-01,7.24157e-01,9.99999e-01
1.151503026e+00,7.28789e-01,9.99999e-01,9.99999e-01,9.99999e-01,7.28789e-01,9.99999e-01
1.157260541e+00,7.33357e-01,9.99999e-01,9.99999e-01,9.99999e-01,7.33357e-01,9.99999e-01
1.163046844e+00,7.37863e-01,9.99999e-01,9.99999e-01,9.99999e-01,7.37863e-01,9.99999e-01
1.168862078e+00,7.42307e-01,9.99999e-01,9.99999e-01,9.99999e-01,7.42307e-01,9.99999e-01
1.174706389e+00,7.46689e-01,9.99999e-01,9.99999e-01,9.99999e-01,7.46689e-01,9.99999e-01
1.180579921e+00,7.51010e-01,9.99999e-01,9.99999e-01,9.99999e-01,7.51010e-01,9.99999e-01
1.186482820e+00,7.55258e-01,9.99999e-01,9.99999e-01,9.99984e-01,7.55270e-01,9.99999e-01
1.192415234e+00,7.38937e-01,9.99999e-01,9.99999e-01,9.72965e-01,7.59469e-01,9.99999e-01
1.198377311e+00,4.10528e-01,9.99999e-01,9.99999e-01,5.37616e-01,7.63607e-01,9.99999e-01
1.204369197e+00,9.07129e-21,9.99999e-01,9.99999e-01,1.18164e-20,7.67686e-01,9.99999e-01
1.210391043e+00,8.23596e-82,9.99999e-01,9.99999e-01,1.06724e-81,7.71705e-01,9.99999e-01
1.216442998e+00,6.77991e-71,9.99999e-01,9.99999e-01,8.74076e-71,7.75666e-01,9.99999e-01
1.222525213e+00,7.65747e-70,9.99999e-01,9.99999e-01,9.82270e-70,7.79568e-01,9.99999e-01
1.228637839e+00,5.36093e-54,9.99999e-01,9.99999e-01,6.84305e-54,7.83412e-01,9.99999e-01
