#,Wave/freq,Total,N2,O2,CO2,Rayleigh,CIA
4.000000000e-01,7.73632e-05,9.99999e-01,9.99999e-01,9.99999e-01,7.73632e-05,9.99999e-01
4.020000000e-01,9.32883e-05,9.99999e-01,9.99999e-01,9.99999e-01,9.32883e-05,9.99999e-01
4.040100000e-01,1.12055e-04,9.99999e-01,9.99999e-01,9.99999e-01,1.12055e-04,9.99999e-01
4.060300500e-01,1.34112e-04,9.99999e-01,9.99999e-01,9.99999e-01,1.34112e-04,9.99999e-01
4.080602003e-01,1.59941e-04,9.99999e-01,9.99999e-01,9.99999e-01,1.59941e-04,9.99999e-01
4.101005013e-01,1.90081e-04,9.99999e-01,9.99999e-01,9.99999e-01,1.90081e-04,9.99999e-01
4.121510038e-01,2.25133e-04,9.99999e-01,9.99999e-01,9.99999e-01,2.25133e-04,9.99999e-01
4.142117588e-01,2.65759e-04,9.99999e-01,9.99999e-01,9.99999e-01,2.65759e-04,9.99999e-01
4.162828176e-01,3.12690e-04,9.99999e-01,9.99999e-01,9.99999e-01,3.12690e-04,9.99999e-01
4.183642317e-01,3.66728e-04,9.99999e-01,9.99999e-01,9.99999e-01,3.66728e-04,9.99999e-01
4.204560528e-01,4.28752e-04,9.99999e-01,9.99999e-01,9.99999e-01,4.28752e-04,9.99999e-01
4.225583331e-01,4.99722e-04,9.99999e-01,9.99999e-01,9.99999e-01,4.99722e-04,9.99999e-01
4.246711247e-01,5.80680e-04,9.99999e-01,9.99999e-01,9.99999e-01,5.80680e-04,9.99999e-01
4.267944804e-01,6.72755e-04,9.99999e-01,9.99999e-01,9.99999e-01,6.72755e-04,9.99999e-01
4.289284528e-01,7.77168e-04,9.99999e-01,9.99999e-01,9.99999e-01,7.77168e-04,9.99999e-01
4.310730950e-01,8.95230e-04,9.99999e-01,9.99999e-01,9.99999e-01,8.95230e-04,9.99999e-01
4.332284605e-01,1.02835e-03,9.99999e-01,9.99999e-01,9.99999e-01,1.02835e-03,9.99999e-01
4.353946028e-01,1.17804e-03,9.99999e-01,9.99999e-01,9.99999e-01,1.17804e-03,9.99999e-01
4.375715758e-01,1.34589e-03,9.99999e-01,9.99999e-01,9.99999e-01,1.34589e-03,9.99999e-01
4.397594337e-01,1.53363e-03,9.99999e-01,9.99999e-01,9.99999e-01,1.53363e-03,9.99999e-01
4.419582309e-01,1.74305e-03,9.99999e-01,9.99999e-01,9.99999e-01,1.74305e-03,9.99999e-01
4.441680220e-01,1.97606e-03,9.99999e-01,9.99999e-01,9.99999e-01,1.97606e-03,9.99999e-01
4.463888621e-01,2.23468e-03,9.99999e-01,9.99999e-01,9.99999e-01,2.23468e-03,9.99999e-01
4.486208064e-01,2.52101e-03,9.99999e-01,9.99999e-01,9.99999e-01,2.52101e-03,9.99999e-01
4.508639105e-01,2.83726e-03,9.99999e-01,9.99999e-01,9.99999e-01,2.83726e-03,9.99999e-01
4.531182300e-01,3.18575e-03,9.99999e-01,9.99999e-01,9.99999e-01,3.18575e-03,9.99999e-01
4.553838212e-01,3.56886e-03,9.99999e-01,9.99999e-01,9.99999e-01,3.56886e-03,9.99999e-01
4.576607403e-01,3.98908e-03,9.99999e-01,9.99999e-01,9.99999e-01,3.98908e-03,9.99999e-01
4.599490440e-01,4.44899e-03,9.99999e-01,9.99999e-01,9.99999e-01,4.44899e-03,9.99999e-01
4.622487892e-01,4.95124e-03,9.99999e-01,9.99999e-01,9.99999e-01,4.95124e-03,9.99999e-01
4.645600332e-01,5.49856e-03,9.99999e-01,9.99999e-01,9.99999e-01,5.49856e-03,9.99999e-01
4.668828333e-01,6.09375e-03,9.99999e-01,9.99999e-01,9.99999e-01,6.09375e-03,9.99999e-01
4.692172475e-01,6.73967e-03,9.99999e-01,9.99999e-01,9.99999e-01,6.73967e-03,9.99999e-01
4.715633337e-01,7.43924e-03,9.99999e-01,9.99999e-01,9.99999e-01,7.43924e-03,9.99999e-01
4.739211504e-01,8.19542e-03,9.99999e-01,9.99999e-01,9.99999e-01,8.19542e-03,9.99999e-01
4.762907561e-01,9.01121e-03,9.99999e-01,9.99999e-01,9.99999e-01,9.01121e-03,9.99999e-01
4.786722099e-01,9.88966e-03,9.99999e-01,9.99999e-01,9.99999e-01,9.88966e-03,9.99999e-01
4.810655710e-01,1.08338e-02,9.99999e-01,9.99999e-01,9.99999e-01,1.08338e-02,9.99999e-01
4.834708988e-01,1.18468e-02,9.99999e-01,9.99999e-01,9.99999e-01,1.18468e-02,9.99999e-01
4.858882533e-01,1.29316e-02,9.99999e-01,9.99999e-01,9.99999e-01,1.29316e-02,9.99999e-01
4.883176946e-01,1.40913e-02,9.99999e-01,9.99999e-01,9.99999e-01,1.40913e-02,9.99999e-01
4.907592831e-01,1.53290e-02,9.99999e-01,9.99999e-01,9.99999e-01,1.53290e-02,9.99999e-01
4.932130795e-01,1.66477e-02,9.99999e-01,9.99999e-01,9.99999e-01,1.66477e-02,9.99999e-01
4.956791449e-01,1.80504e-02,9.99999e-01,9.99999e-01,9.99999e-01,1.80504e-02,9.99999e-01
4.981575406e-01,1.95400e-02,9.99999e-01,9.99999e-01,9.99999e-01,1.95400e-02,9.99999e-01
5.006483283e-01,2.11195e-02,9.99999e-01,9.99999e-01,9.99999e-01,2.11195e-02,9.99999e-01
5.031515699e-01,2.27916e-02,9.99999e-01,9.99999e-01,9.99999e-01,2.27916e-02,9.99999e-01
5.056673278e-01,2.45591e-02,9.99999e-01,9.99999e-01,9.99999e-01,2.45591e-02,9.99999e-01
5.081956644e-01,2.64247e-02,9.99999e-01,9.99999e-01,9.99999e-01,2.64247e-02,9.99999e-01
5.107366428e-01,2.83909e-02,9.99999e-01,9.99999e-01,9.99999e-01,2.83909e-02,9.99999e-01
5.132903260e-01,3.04602e-02,9.99999e-01,9.99999e-01,9.99999e-01,3.04602e-02,9.99999e-01
5.158567776e-01,3.26350e-02,9.99999e-01,9.99999e-01,9.99999e-01,3.26350e-02,9.99999e-01
5.184360615e-01,3.49174e-02,9.99999e-01,9.99999e-01,9.99999e-01,3.49174e-02,9.99999e-01
5.210282418e-01,3.73096e-02,9.99999e-01,9.99999e-01,9.99999e-01,3.73096e-02,9.99999e-01
5.236333830e-01,3.98135e-02,9.99999e-01,9.99999e-01,9.99999e-01,3.98135e-02,9.99999e-01
5.262515499e-01,4.24310e-02,9.99999e-01,9.99999e-01,9.99999e-01,4.24310e-02,9.99999e-01
5.288828077e-01,4.51637e-02,9.99999e-01,9.99999e-01,9.99999e-01,4.51637e-02,9.99999e-01
5.315272217e-01,4.80132e-02,9.99999e-01,9.99999e-01,9.99999e-01,4.80132e-02,9.99999e-01
5.341848578e-01,5.09809e-02,9.99999e-01,9.99999e-01,9.99999e-01,5.09809e-02,9.99999e-01
5.368557821e-01,5.40679e-02,9.99999e-01,9.99999e-01,9.99999e-01,5.40679e-02,9.99999e-01
5.395400610e-01,5.72752e-02,9.99999e-01,9.99999e-01,9.99999e-01,5.72752e-02,9.99999e-01
5.422377613e-01,6.06038e-02,9.99999e-01,9.99999e-01,9.99999e-01,6.06038e-02,9.99999e-01
5.449489501e-01,6.40543e-02,9.99999e-01,9.99999e-01,9.99999e-01,6.40543e-02,9.99999e-01
5.476736949e-01,6.76273e-02,9.99999e-01,9.99999e-01,9.99999e-01,6.76273e-02,9.99999e-01
5.504120634e-01,7.13231e-02,9.99999e-01,9.99999e-01,9.99999e-01,7.13231e-02,9.99999e-01
5.531641237e-01,7.51418e-02,9.99999e-01,9.99999e-01,9.99999e-01,7.51418e-02,9.99999e-01
5.559299443e-01,7.90835e-02,9.99999e-01,9.99999e-01,9.99999e-01,7.90835e-02,9.99999e-01
5.587095940e-01,8.31479e-02,9.99999e-01,9.99999e-01,9.99999e-01,8.31479e-02,9.99999e-01
5.615031420e-01,8.73347e-02,9.99999e-01,9.99999e-01,9.99999e-01,8.73347e-02,9.99999e-01
5.643106577e-01,9.16434e-02,9.99999e-01,9.99999e-01,9.99999e-01,9.16434e-02,9.99999e-01
5.671322110e-01,9.60732e-02,9.99999e-01,9.99999e-01,9.99999e-01,9.60732e-02,9.99999e-01
5.699678720e-01,1.00623e-01,9.99999e-01,9.99999e-01,9.99999e-01,1.00623e-01,9.99999e-01
5.728177114e-01,1.05293e-01,9.99999e-01,9.99999e-01,9.99999e-01,1.05293e-01,9.99999e-01
5.756818000e-01,1.10080e-01,9.99999e-01,9.99999e-01,9.99999e-01,1.10080e-01,9.99999e-01
5.785602090e-01,1.14984e-01,9.99999e-01,9.99999e-01,9.99999e-01,1.14984e-01,9.99999e-01
5.814530100e-01,1.20003e-01,9.99999e-01,9.99999e-01,9.99999e-01,1.20003e-01,9.99999e-01
5.843602750e-01,1.25135e-01,9.99999e-01,9.99999e-01,9.99999e-01,1.25135e-01,9.99999e-01
5.872820764e-01,1.30379e-01,9.99999e-01,9.99999e-01,9.99999e-01,1.30379e-01,9.99999e-01
5.902184868e-01,1.35733e-01,9.99999e-01,9.99999e-01,9.99999e-01,1.35733e-01,9.99999e-01
5.931695792e-01,1.41194e-01,9.99999e-01,9.99999e-01,9.99999e-01,1.41194e-01,9.99999e-01
5.961354271e-01,1.46761e-01,9.99999e-01,9.99999e-01,9.99999e-01,1.46761e-01,9.99999e-01
5.991161043e-01,1.52430e-01,9.99999e-01,9.99999e-01,9.99999e-01,1.52430e-01,9.99999e-01
6.021116848e-01,1.58200e-01,9.99999e-01,9.99999e-01,9.99999e-01,1.58200e-01,9.99999e-01
6.051222432e-01,1.64069e-01,9.99999e-01,9.99999e-01,9.99999e-01,1.64069e-01,9.99999e-01
6.081478544e-01,1.70032e-01,9.99999e-01,9.99999e-01,9.99999e-01,1.70032e-01,9.99999e-01
6.111885937e-01,1.76088e-01,9.99999e-01,9.99999e-01,9.99999e-01,1.76088e-01,9.99999e-01
6.142445367e-01,1.82233e-01,9.99999e-01,9.99999e-01,9.99999e-01,1.82233e-01,9.99999e-01
6.173157594e-01,1.88466e-01,9.99999e-01,9.99999e-01,9.99999e-01,1.88466e-01,9.99999e-01
6.204023382e-01,1.94782e-01,9.99999e-01,9.99999e-01,9.99999e-01,1.94782e-01,9.99999e-01
6.235043498e-01,2.01179e-01,9.99999e-01,9.99999e-01,9.99999e-01,2.01179e-01,9.99999e-01
6.266218716e-01,2.07653e-01,9.99999e-01,9.99999e-01,9.99999e-01,2.07653e-01,9.99999e-01
6.297549810e-01,2.14201e-01,9.99999e-01,9.99999e-01,9.99999e-01,2.14201e-01,9.99999e-01
6.329037559e-01,2.20821e-01,9.99999e-01,9.99999e-01,9.99999e-01,2.20821e-01,9.99999e-01
6.360682746e-01,2.27508e-01,9.99999e-01,9.99999e-01,9.99999e-01,2.27508e-01,9.99999e-01
6.392486160e-01,2.34260e-01,9.99999e-01,9.99999e-01,9.99999e-01,2.34260e-01,9.99999e-01
6.424448591e-01,2.41072e-01,9.99999e-01,9.99999e-01,9.99999e-01,2.41072e-01,9.99999e-01
6.456570834e-01,2.47943e-01,9.99999e-01,9.99999e-01,9.99999e-01,2.47943e-01,9.99999e-01
6.488853688e-01,2.54868e-01,9.99999e-01,9.99999e-01,9.99999e-01,2.54868e-01,9.99999e-01
6.521297956e-01,2.61843e-01,9.99999e-01,9.99999e-01,9.99999e-01,2.61843e-01,9.99999e-01
6.553904446e-01,2.68866e-01,9.99999e-01,9.99999e-01,9.99999e-01,2.68866e-01,9.99999e-01
6.586673968e-01,2.75934e-01,9.99999e-01,9.99999e-01,9.99999e-01,2.75934e-01,9.99999e-01
6.619607338e-01,2.83042e-01,9.99999e-01,9.99999e-01,9.99999e-01,2.83042e-01,9.99999e-01
6.652705375e-01,2.90187e-01,9.99999e-01,9.99999e-01,9.99999e-01,2.90187e-01,9.99999e-01
6.685968902e-01,2.97366e-01,9.99999e-01,9.99999e-01,9.99999e-01,2.97366e-01,9.99999e-01
6.719398746e-01,3.04575e-01,9.99999e-01,9.99999e-01,9.99999e-01,3.04575e-01,9.99999e-01
6.752995740e-01,3.11812e-01,9.99999e-01,9.99999e-01,9.99999e-01,3.11812e-01,9.99999e-01
6.786760719e-01,3.19073e-01,9.99999e-01,9.99999e-01,9.99999e-01,3.19073e-01,9.99999e-01
6.820694522e-01,3.26354e-01,9.99999e-01,9.99999e-01,9.99999e-01,3.26354e-01,9.99999e-01
6.854797995e-01,3.33653e-01,9.99999e-01,9.99999e-01,9.99999e-01,3.33653e-01,9.99999e-01
6.889071985e-01,3.40966e-01,9.99999e-01,9.99999e-01,9.99999e-01,3.40966e-01,9.99999e-01
6.923517345e-01,3.48290e-01,9.99999e-01,9.99999e-01,9.99999e-01,3.48290e-01,9.99999e-01
6.958134932e-01,3.55622e-01,9.99999e-01,9.99999e-01,9.99999e-01,3.55622e-01,9.99999e-01
6.992925606e-01,3.62959e-01,9.99999e-01,9.99999e-01,9.99999e-01,3.62959e-01,9.99999e-01
7.027890234e-01,3.70299e-01,9.99999e-01,9.99999e-01,9.99999e-01,3.70299e-01,9.99999e-01
7.063029686e-01,3.77637e-01,9.99999e-01,9.99999e-01,9.99999e-01,3.77637e-01,9.99999e-01
7.098344834e-01,3.84971e-01,9.99999e-01,9.99999e-01,9.99999e-01,3.84971e-01,9.99999e-01
7.133836558e-01,3.92299e-01,9.99999e-01,9.99999e-01,9.99999e-01,3.92299e-01,9.99999e-01
7.169505741e-01,3.99617e-01,9.99999e-01,9.99999e-01,9.99999e-01,3.99617e-01,9.99999e-01
7.205353270e-01,4.06923e-01,9.99999e-01,9.99999e-01,9.99999e-01,4.06923e-01,9.99999e-01
7.241380036e-01,4.14215e-01,9.99999e-01,9.99999e-01,9.99999e-01,4.14215e-01,9.99999e-01
7.277586936e-01,4.21489e-01,9.99999e-01,9.99999e-01,9.99999e-01,4.21489e-01,9.99999e-01
7.313974871e-01,4.28744e-01,9.99999e-01,9.99999e-01,9.99999e-01,4.28744e-01,9.99999e-01
7.350544745e-01,4.35976e-01,9.99999e-01,9.99999e-01,9.99999e-01,4.35976e-01,9.99999e-01
7.387297469e-01,4.43184e-01,9.99999e-01,9.99999e-01,9.99999e-01,4.43184e-01,9.99999e-01
7.424233956e-01,4.50365e-01,9.99999e-01,9.99999e-01,9.99999e-01,4.50365e-01,9.99999e-01
7.461355126e-01,4.57518e-01,9.99999e-01,9.99999e-01,9.99999e-01,4.57518e-01,9.99999e-01
7.498661902e-01,4.64639e-01,9.99999e-01,9.99999e-01,9.99999e-01,4.64639e-01,9.99999e-01
7.536155211e-01,4.71727e-01,9.99999e-01,9.99999e-01,9.99999e-01,4.71727e-01,9.99999e-01
7.573835987e-01,4.78780e-01,9.99999e-01,9.99999e-01,9.99999e-01,4.78780e-01,9.99999e-01
7.611705167e-01,4.85797e-01,9.99999e-01,9.99999e-01,9.99999e-01,4.85797e-01,9.99999e-01
7.649763693e-01,4.92774e-01,9.99999e-01,9.99999e-01,9.99999e-01,4.92774e-01,9.99999e-01
7.688012511e-01,4.99711e-01,9.99999e-01,9.99999e-01,9.99999e-01,4.99711e-01,9.99999e-01
7.726452574e-01,5.06605e-01,9.99999e-01,9.99999e-01,9.99999e-01,5.06605e-01,9.99999e-01
7.765084837e-01,5.13456e-01,9.99999e-01,9.99999e-01,9.99999e-01,5.13456e-01,9.99999e-01
7.803910261e-01,5.03499e-01,9.99999e-01,9.99999e-01,9.67781e-01,5.20261e-01,9.99999e-01
7.842929812e-01,4.60361e-01,9.99999e-01,9.99999e-01,8.73516e-01,5.27020e-01,9.99999e-01
7.882144461e-01,4.61140e-01,9.99999e-01,9.99999e-01,8.63994e-01,5.33730e-01,9.99999e-01
7.921555184e-01,4.96333e-01,9.99999e-01,9.99999e-01,9.18471e-01,5.40390e-01,9.99999e-01
7.961162960e-01,5.17040e-01,9.99999e-01,9.99999e-01,9.45229e-01,5.47000e-01,9.99999e-01
8.000968774e-01,5.36871e-01,9.99999e-01,9.99999e-01,9.69856e-01,5.53557e-01,9.99999e-01
8.040973618e-01,5.51297e-01,9.99999e-01,9.99999e-01,9.84350e-01,5.60062e-01,9.99999e-01
8.081178486e-01,5.62406e-01,9.99999e-01,9.99999e-01,9.92752e-01,5.66511e-01,9.99999e-01
8.121584379e-01,5.71638e-01,9.99999e-01,9.99999e-01,9.97785e-01,5.72906e-01,9.99999e-01
8.162192301e-01,5.78961e-01,9.99999e-01,9.99999e-01,9.99510e-01,5.79244e-01,9.99999e-01
8.203003262e-01,5.85522e-01,9.99999e-01,9.99999e-01,9.99993e-01,5.85526e-01,9.99999e-01
8.244018279e-01,5.91749e-01,9.99999e-01,9.99999e-01,9.99999e-01,5.91749e-01,9.99999e-01
8.285238370e-01,5.97913e-01,9.99999e-01,9.99999e-01,9.99999e-01,5.97913e-01,9.99999e-01
8.326664562e-01,6.04019e-01,9.99999e-01,9.99999e-01,9.99999e-01,6.04019e-01,9.99999e-01
8.368297885e-01,6.10064e-01,9.99999e-01,9.99999e-01,9.99999e-01,6.10064e-01,9.99999e-01
8.410139374e-01,6.16048e-01,9.99999e-01,9.99999e-01,9.99999e-01,6.16048e-01,9.99999e-01
8.452190071e-01,6.21971e-01,9.99999e-01,9.99999e-01,9.99999e-01,6.21971e-01,9.99999e-01
8.494451021e-01,6.27832e-01,9.99999e-01,9.99999e-01,9.99999e-01,6.27832e-01,9.99999e-01
8.536923276e-01,6.33631e-01,9.99999e-01,9.99999e-01,9.99999e-01,6.33631e-01,9.99999e-01
8.579607893e-01,6.39368e-01,9.99999e-01,9.99999e-01,9.99999e-01,6.39368e-01,9.99999e-01
8.622505932e-01,6.45042e-01,9.99999e-01,9.99999e-01,9.99999e-01,6.45042e-01,9.99999e-01
8.665618462e-01,6.03185e-01,9.99999e-01,9.99999e-01,9.27046e-01,6.50652e-01,9.99999e-01
8.708946554e-01,4.63878e-01,9.99999e-01,9.99999e-01,7.06916e-01,6.56199e-01,9.99999e-01
8.752491287e-01,5.01438e-01,9.99999e-01,9.99999e-01,7.57821e-01,6.61683e-01,9.99999e-01
8.796253743e-01,5.73152e-01,9.99999e-01,9.99999e-01,8.59166e-01,6.67102e-01,9.99999e-01
8.840235012e-01,6.21610e-01,9.99999e-01,9.99999e-01,9.24385e-01,6.72458e-01,9.99999e-01
8.884436187e-01,6.57178e-01,9.99999e-01,9.99999e-01,9.69646e-01,6.77749e-01,9.99999e-01
8.928858368e-01,6.74490e-01,9.99999e-01,9.99999e-01,9.87574e-01,6.82976e-01,9.99999e-01
8.973502660e-01,6.86068e-01,9.99999e-01,9.99999e-01,9.96989e-01,6.88140e-01,9.99999e-01
9.018370173e-01,6.93010e-01,9.99999e-01,9.99999e-01,9.99669e-01,6.93239e-01,9.99999e-01
9.063462024e-01,6.92090e-01,9.99999e-01,9.99999e-01,9.91143e-01,6.98274e-01,9.99999e-01
9.108779334e-01,6.89454e-01,9.99999e-01,9.99999e-01,9.80389e-01,7.03245e-01,9.99999e-01
9.154323231e-01,7.04916e-01,9.99999e-01,9.99999e-01,9.95428e-01,7.08152e-01,9.99999e-01
9.200094847e-01,6.65074e-01,9.99999e-01,9.99999e-01,9.32786e-01,7.12996e-01,9.99999e-01
9.246095321e-01,6.51347e-01,9.99999e-01,9.99999e-01,9.07450e-01,7.17776e-01,9.99999e-01
9.292325798e-01,6.68807e-01,9.99999e-01,9.99999e-01,9.25693e-01,7.22493e-01,9.99999e-01
9.338787427e-01,6.75534e-01,9.99999e-01,9.99999e-01,9.29020e-01,7.27147e-01,9.99999e-01
9.385481364e-01,6.93194e-01,9.99999e-01,9.99999e-01,9.47326e-01,7.31737e-01,9.99999e-01
9.432408771e-01,7.12358e-01,9.99999e-01,9.99999e-01,9.67528e-01,7.36266e-01,9.99999e-01
9.479570815e-01,7.28265e-01,9.99999e-01,9.99999e-01,9.83169e-01,7.40732e-01,9.99999e-01
9.526968669e-01,7.39080e-01,9.99999e-01,9.99999e-01,9.91872e-01,7.45136e-01,9.99999e-01
9.574603512e-01,7.46871e-01,9.99999e-01,9.99999e-01,9.96521e-01,7.49478e-01,9.99999e-01
9.622476530e-01,7.52943e-01,9.99999e-01,9.99999e-01,9.98915e-01,7.53760e-01,9.99999e-01
9.670588912e-01,7.57735e-01,9.99999e-01,9.99999e-01,9.99675e-01,7.57980e-01,9.99999e-01
9.718941857e-01,7.62123e-01,9.99999e-01,9.99999e-01,9.99977e-01,7.62140e-01,9.99999e-01
9.767536566e-01,7.66240e-01,9.99999e-01,9.99999e-01,9.99999e-01,7.66240e-01,9.99999e-01
9.816374249e-01,7.70281e-01,9.99999e-01,9.99999e-01,9.99999e-01,7.70281e-01,9.99999e-01
9.865456120e-01,7.74262e-01,9.99999e-01,9.99999e-01,9.99999e-01,7.74262e-01,9.99999e-01
9.914783401e-01,7.78185e-01,9.99999e-01,9.99999e-01,9.99999e-01,7.78185e-01,9.99999e-01
9.964357318e-01,7.82049e-01,9.99999e-01,9.99999e-01,9.99999e-01,7.82049e-01,9.99999e-01
1.001417910e+00,7.85856e-01,9.99999e-01,9.99999e-01,9.99999e-01,7.85856e-01,9.99999e-01
1.006425000e+00,7.89606e-01,9.99999e-01,9.99999e-01,9.99999e-01,7.89606e-01,9.99999e-01
1.011457125e+00,7.93298e-01,9.99999e-01,9.99999e-01,9.99999e-01,7.93298e-01,9.99999e-01
1.016514411e+00,7.96935e-01,9.99999e-01,9.99999e-01,9.99999e-01,7.96935e-01,9.99999e-01
1.021596983e+00,8.00473e-01,9.99999e-01,9.99999e-01,9.99945e-01,8.00516e-01,9.99999e-01
1.026704968e+00,8.01247e-01,9.99999e-01,9.99999e-01,9.96523e-01,8.04042e-01,9.99999e-01
1.031838492e+00,7.71099e-01,9.99999e-01,9.99999e-01,9.54905e-01,8.07513e-01,9.99999e-01
1.036997685e+00,1.34478e-01,9.99999e-01,9.99999e-01,1.65832e-01,8.10931e-01,9.99999e-01
1.042182673e+00,1.20081e-01,9.99999e-01,9.99999e-01,1.47466e-01,8.14295e-01,9.99999e-01
1.047393587e+00,1.32676e-01,9.99999e-01,9.99999e-01,1.62273e-01,8.17606e-01,9.99999e-01
1.052630555e+00,5.10113e-03,9.99999e-01,9.99999e-01,6.21434e-03,8.20864e-01,9.99999e-01
1.057893707e+00,1.26372e-02,9.99999e-01,9.99999e-01,1.53351e-02,8.24071e-01,9.99999e-01
1.063183176e+00,3.81572e-02,9.99999e-01,9.99999e-01,4.61266e-02,8.27227e-01,9.99999e-01
1.068499092e+00,9.84665e-02,9.99999e-01,9.99999e-01,1.18587e-01,8.30332e-01,9.99999e-01
1.073841587e+00,2.17885e-01,9.99999e-01,9.99999e-01,2.61445e-01,8.33387e-01,9.99999e-01
1.079210795e+00,3.57664e-01,9.99999e-01,9.99999e-01,4.27627e-01,8.36392e-01,9.99999e-01
1.084606849e+00,5.26751e-01,9.99999e-01,9.99999e-01,6.27570e-01,8.39349e-01,9.99999e-01
1.090029883e+00,6.61148e-01,9.99999e-01,9.99999e-01,7.84971e-01,8.42258e-01,9.99999e-01
1.095480033e+00,7.50283e-01,9.99999e-01,9.99999e-01,8.87783e-01,8.45119e-01,9.99999e-01
1.100957433e+00,8.00658e-01,9.99999e-01,9.99999e-01,9.44246e-01,8.47932e-01,9.99999e-01
1.106462220e+00,8.30801e-01,9.99999e-01,9.99999e-01,9.76608e-01,8.50700e-01,9.99999e-01
1.111994531e+00,8.45967e-01,9.99999e-01,9.99999e-01,9.91265e-01,8.53421e-01,9.99999e-01
1.117554504e+00,8.54278e-01,9.99999e-01,9.99999e-01,9.97875e-01,8.56097e-01,9.99999e-01
1.123142276e+00,8.58610e-01,9.99999e-01,9.99999e-01,9.99861e-01,8.58728e-01,9.99999e-01
1.128757988e+00,8.61316e-01,9.99999e-01,9.99999e-01,9.99999e-01,8.61316e-01,9.99999e-01
1.134401778e+00,8.63859e-01,9.99999e-01,9.99999e-01,9.99999e-01,8.63859e-01,9.99999e-01
1.140073787e+00,8.66360e-01,9.99999e-01,9.99999e-01,9.99999e-01,8.66360e-01,9.99999e-01
1.145774156e+00,8.68818e-01,9.99999e-01,9.99999e-01,9.99999e-01,8.68818e-01,9.99999e-01
1.151503026e+00,8.71235e-01,9.99999e-01,9.99999e-01,9.99999e-01,8.71235e-01,9.99999e-01
1.157260541e+00,8.73610e-01,9.99999e-01,9.99999e-01,9.99999e-01,8.73610e-01,9.99999e-01
1.163046844e+00,8.75945e-01,9.99999e-01,9.99999e-01,9.99999e-01,8.75945e-01,9.99999e-01
1.168862078e+00,8.78240e-01,9.99999e-01,9.99999e-01,9.99999e-01,8.78240e-01,9.99999e-01
1.174706389e+00,8.80495e-01,9.99999e-01,9.99999e-01,9.99999e-01,8.80495e-01,9.99999e-01
1.180579921e+00,8.82711e-01,9.99999e-01,9.99999e-01,9.99999e-01,8.82711e-01,9.99999e-01
1.186482820e+00,8.84882e-01,9.99999e-01,9.99999e-01,9.99991e-01,8.84889e-01,9.99999e-01
1.192415234e+00,8.75981e-01,9.99999e-01,9.99999e-01,9.87544e-01,8.87029e-01,9.99999e-01
1.198377311e+00,5.00575e-01,9.99999e-01,9.99999e-01,5.62992e-01,8.89132e-01,9.99999e-01
1.204369197e+00,2.54920e-10,9.99999e-01,9.99999e-01,2.86042e-10,8.91198e-01,9.99999e-01
1.210391043e+00,6.38334e-37,9.99999e-01,9.99999e-01,7.14637e-37,8.93228e-01,9.99999e-01
1.216442998e+00,3.64634e-32,9.99999e-01,9.99999e-01,4.07310e-32,8.95223e-01,9.99999e-01
1.222525213e+00,1.05030e-31,9.99999e-01,9.99999e-01,1.17067e-31,8.97182e-01,9.99999e-01
1.228637839e+00,1.49520e-24,9.99999e-01,9.99999e-01,1.66298e-24,8.99107e-01,9.99999e-01
