#,Wave/freq,Total,N2,O2,CO2,Rayleigh,CIA
4.000000000e-01,1.36609e-04,9.99999e-01,9.99999e-01,9.99999e-01,1.36609e-04,9.99999e-01
4.020000000e-01,1.62888e-04,9.99999e-01,9.99999e-01,9.99999e-01,1.62888e-04,9.99999e-01
4.040100000e-01,1.93514e-04,9.99999e-01,9.99999e-01,9.99999e-01,1.93514e-04,9.99999e-01
4.060300500e-01,2.29118e-04,9.99999e-01,9.99999e-01,9.99999e-01,2.29118e-04,9.99999e-01
4.080602003e-01,2.70369e-04,9.99999e-01,9.99999e-01,9.99999e-01,2.70369e-04,9.99999e-01
4.101005013e-01,3.18006e-04,9.99999e-01,9.99999e-01,9.99999e-01,3.18006e-04,9.99999e-01
4.121510038e-01,3.72838e-04,9.99999e-01,9.99999e-01,9.99999e-01,3.72838e-04,9.99999e-01
4.142117588e-01,4.35754e-04,9.99999e-01,9.99999e-01,9.99999e-01,4.35754e-04,9.99999e-01
4.162828176e-01,5.07721e-04,9.99999e-01,9.99999e-01,9.99999e-01,5.07721e-04,9.99999e-01
4.183642317e-01,5.89789e-04,9.99999e-01,9.99999e-01,9.99999e-01,5.89789e-04,9.99999e-01
4.204560528e-01,6.83099e-04,9.99999e-01,9.99999e-01,9.99999e-01,6.83099e-04,9.99999e-01
4.225583331e-01,7.88879e-04,9.99999e-01,9.99999e-01,9.99999e-01,7.88879e-04,9.99999e-01
4.246711247e-01,9.08452e-04,9.99999e-01,9.99999e-01,9.99999e-01,9.08452e-04,9.99999e-01
4.267944804e-01,1.04324e-03,9.99999e-01,9.99999e-01,9.99999e-01,1.04324e-03,9.99999e-01
4.289284528e-01,1.19475e-03,9.99999e-01,9.99999e-01,9.99999e-01,1.19475e-03,9.99999e-01
4.310730950e-01,1.36461e-03,9.99999e-01,9.99999e-01,9.99999e-01,1.36461e-03,9.99999e-01
4.332284605e-01,1.55453e-03,9.99999e-01,9.99999e-01,9.99999e-01,1.55453e-03,9.99999e-01
4.353946028e-01,1.76633e-03,9.99999e-01,9.99999e-01,9.99999e-01,1.76633e-03,9.99999e-01
4.375715758e-01,2.00193e-03,9.99999e-01,9.99999e-01,9.99999e-01,2.00193e-03,9.99999e-01
4.397594337e-01,2.26335e-03,9.99999e-01,9.99999e-01,9.99999e-01,2.26335e-03,9.99999e-01
4.419582309e-01,2.55272e-03,9.99999e-01,9.99999e-01,9.99999e-01,2.55272e-03,9.99999e-01
4.441680220e-01,2.87224e-03,9.99999e-01,9.99999e-01,9.99999e-01,2.87224e-03,9.99999e-01
4.463888621e-01,3.22424e-03,9.99999e-01,9.99999e-01,9.99999e-01,3.22424e-03,9.99999e-01
4.486208064e-01,3.61112e-03,9.99999e-01,9.99999e-01,9.99999e-01,3.61112e-03,9.99999e-01
4.508639105e-01,4.03538e-03,9.99999e-01,9.99999e-01,9.99999e-01,4.03538e-03,9.99999e-01
4.531182300e-01,4.49960e-03,9.99999e-01,9.99999e-01,9.99999e-01,4.49960e-03,9.99999e-01
4.553838212e-01,5.00645e-03,9.99999e-01,9.99999e-01,9.99999e-01,5.00645e-03,9.99999e-01
4.576607403e-01,5.55865e-03,9.99999e-01,9.99999e-01,9.99999e-01,5.55865e-03,9.99999e-01
4.599490440e-01,6.15903e-03,9.99999e-01,9.99999e-01,9.99999e-01,6.15903e-03,9.99999e-01
4.622487892e-01,6.81043e-03,9.99999e-01,9.99999e-01,9.99999e-01,6.81043e-03,9.99999e-01
4.645600332e-01,7.51579e-03,9.99999e-01,9.99999e-01,9.99999e-01,7.51579e-03,9.99999e-01
4.668828333e-01,8.27808e-03,9.99999e-01,9.99999e-01,9.99999e-01,8.27808e-03,9.99999e-01
4.692172475e-01,9.10030e-03,9.99999e-01,9.99999e-01,9.99999e-01,9.10030e-03,9.99999e-01
4.715633337e-01,9.98549e-03,9.99999e-01,9.99999e-01,9.99999e-01,9.98549e-03,9.99999e-01
4.739211504e-01,1.09367e-02,9.99999e-01,9.99999e-01,9.99999e-01,1.09367e-02,9.99999e-01
4.762907561e-01,1.19570e-02,9.99999e-01,9.99999e-01,9.99999e-01,1.19570e-02,9.99999e-01
4.786722099e-01,1.30495e-02,9.99999e-01,9.99999e-01,9.99999e-01,1.30495e-02,9.99999e-01
4.810655710e-01,1.42173e-02,9.99999e-01,9.99999e-01,9.99999e-01,1.42173e-02,9.99999e-01
4.834708988e-01,1.54633e-02,9.99999e-01,9.99999e-01,9.99999e-01,1.54633e-02,9.99999e-01
4.858882533e-01,1.67907e-02,9.99999e-01,9.99999e-01,9.99999e-01,1.67907e-02,9.99999e-01
4.883176946e-01,1.82024e-02,9.99999e-01,9.99999e-01,9.99999e-01,1.82024e-02,9.99999e-01
4.907592831e-01,1.97013e-02,9.99999e-01,9.99999e-01,9.99999e-01,1.97013e-02,9.99999e-01
4.932130795e-01,2.12904e-02,9.99999e-01,9.99999e-01,9.99999e-01,2.12904e-02,9.99999e-01
4.956791449e-01,2.29724e-02,9.99999e-01,9.99999e-01,9.99999e-01,2.29724e-02,9.99999e-01
4.981575406e-01,2.47500e-02,9.99999e-01,9.99999e-01,9.99999e-01,2.47500e-02,9.99999e-01
5.006483283e-01,2.66260e-02,9.99999e-01,9.99999e-01,9.99999e-01,2.66260e-02,9.99999e-01
5.031515699e-01,2.86029e-02,9.99999e-01,9.99999e-01,9.99999e-01,2.86029e-02,9.99999e-01
5.056673278e-01,3.06832e-02,9.99999e-01,9.99999e-01,9.99999e-01,3.06832e-02,9.99999e-01
5.081956644e-01,3.28691e-02,9.99999e-01,9.99999e-01,9.99999e-01,3.28691e-02,9.99999e-01
5.107366428e-01,3.51629e-02,9.99999e-01,9.99999e-01,9.99999e-01,3.51629e-02,9.99999e-01
5.132903260e-01,3.75667e-02,9.99999e-01,9.99999e-01,9.99999e-01,3.75667e-02,9.99999e-01
5.158567776e-01,4.00825e-02,9.99999e-01,9.99999e-01,9.99999e-01,4.00825e-02,9.99999e-01
5.184360615e-01,4.27120e-02,9.99999e-01,9.99999e-01,9.99999e-01,4.27120e-02,9.99999e-01
5.210282418e-01,4.54569e-02,9.99999e-01,9.99999e-01,9.99999e-01,4.54569e-02,9.99999e-01
5.236333830e-01,4.83187e-02,9.99999e-01,9.99999e-01,9.99999e-01,4.83187e-02,9.99999e-01
5.262515499e-01,5.12988e-02,9.99999e-01,9.99999e-01,9.99999e-01,5.12988e-02,9.99999e-01
5.288828077e-01,5.43984e-02,9.99999e-01,9.99999e-01,9.99999e-01,5.43984e-02,9.99999e-01
5.315272217e-01,5.76184e-02,9.99999e-01,9.99999e-01,9.99999e-01,5.76184e-02,9.99999e-01
5.341848578e-01,6.09598e-02,9.99999e-01,9.99999e-01,9.99999e-01,6.09598e-02,9.99999e-01
5.368557821e-01,6.44231e-02,9.99999e-01,9.99999e-01,9.99999e-01,6.44231e-02,9.99999e-01
5.395400610e-01,6.80090e-02,9.99999e-01,9.99999e-01,9.99999e-01,6.80090e-02,9.99999e-01
5.422377613e-01,7.17176e-02,9.99999e-01,9.99999e-01,9.99999e-01,7.17176e-02,9.99999e-01
5.449489501e-01,7.55492e-02,9.99999e-01,9.99999e-01,9.99999e-01,7.55492e-02,9.99999e-01
5.476736949e-01,7.95038e-02,9.99999e-01,9.99999e-01,9.99999e-01,7.95038e-02,9.99999e-01
5.504120634e-01,8.35810e-02,9.99999e-01,9.99999e-01,9.99999e-01,8.35810e-02,9.99999e-01
5.531641237e-01,8.77807e-02,9.99999e-01,9.99999e-01,9.99999e-01,8.77807e-02,9.99999e-01
5.559299443e-01,9.21021e-02,9.99999e-01,9.99999e-01,9.99999e-01,9.21021e-02,9.99999e-01
5.587095940e-01,9.65445e-02,9.99999e-01,9.99999e-01,9.99999e-01,9.65445e-02,9.99999e-01
5.615031420e-01,1.01107e-01,9.99999e-01,9.99999e-01,9.99999e-01,1.01107e-01,9.99999e-01
5.643106577e-01,1.05789e-01,9.99999e-01,9.99999e-01,9.99999e-01,1.05789e-01,9.99999e-01
5.671322110e-01,1.10588e-01,9.99999e-01,9.99999e-01,9.99999e-01,1.10588e-01,9.99999e-01
5.699678720e-01,1.15504e-01,9.99999e-01,9.99999e-01,9.99999e-01,1.15504e-01,9.99999e-01
5.728177114e-01,1.20535e-01,9.99999e-01,9.99999e-01,9.99999e-01,1.20535e-01,9.99999e-01
5.756818000e-01,1.25680e-01,9.99999e-01,9.99999e-01,9.99999e-01,1.25680e-01,9.99999e-01
5.785602090e-01,1.30935e-01,9.99999e-01,9.99999e-01,9.99999e-01,1.30935e-01,9.99999e-01
5.814530100e-01,1.36300e-01,9.99999e-01,9.99999e-01,9.99999e-01,1.36300e-01,9.99999e-01
5.843602750e-01,1.41773e-01,9.99999e-01,9.99999e-01,9.99999e-01,1.41773e-01,9.99999e-01
5.872820764e-01,1.47350e-01,9.99999e-01,9.99999e-01,9.99999e-01,1.47350e-01,9.99999e-01
5.902184868e-01,1.53030e-01,9.99999e-01,9.99999e-01,9.99999e-01,1.53030e-01,9.99999e-01
5.931695792e-01,1.58811e-01,9.99999e-01,9.99999e-01,9.99999e-01,1.58811e-01,9.99999e-01
5.961354271e-01,1.64689e-01,9.99999e-01,9.99999e-01,9.99999e-01,1.64689e-01,9.99999e-01
5.991161043e-01,1.70662e-01,9.99999e-01,9.99999e-01,9.99999e-01,1.70662e-01,9.99999e-01
6.021116848e-01,1.76728e-01,9.99999e-01,9.99999e-01,9.99999e-01,1.76728e-01,9.99999e-01
6.051222432e-01,1.82883e-01,9.99999e-01,9.99999e-01,9.99999e-01,1.82883e-01,9.99999e-01
6.081478544e-01,1.89124e-01,9.99999e-01,9.99999e-01,9.99999e-01,1.89124e-01,9.99999e-01
6.111885937e-01,1.95449e-01,9.99999e-01,9.99999e-01,9.99999e-01,1.95449e-01,9.99999e-01
6.142445367e-01,2.01854e-01,9.99999e-01,9.99999e-01,9.99999e-01,2.01854e-01,9.99999e-01
6.173157594e-01,2.08336e-01,9.99999e-01,9.99999e-01,9.99999e-01,2.08336e-01,9.99999e-01
6.204023382e-01,2.14892e-01,9.99999e-01,9.99999e-01,9.99999e-01,2.14892e-01,9.99999e-01
6.235043498e-01,2.21519e-01,9.99999e-01,9.99999e-01,9.99999e-01,2.21519e-01,9.99999e-01
6.266218716e-01,2.28213e-01,9.99999e-01,9.99999e-01,9.99999e-01,2.28213e-01,9.99999e-01
6.297549810e-01,2.34971e-01,9.99999e-01,9.99999e-01,9.99999e-01,2.34971e-01,9.99999e-01
6.329037559e-01,2.41790e-01,9.99999e-01,9.99999e-01,9.99999e-01,2.41790e-01,9.99999e-01
6.360682746e-01,2.48666e-01,9.99999e-01,9.99999e-01,9.99999e-01,2.48666e-01,9.99999e-01
6.392486160e-01,2.55597e-01,9.99999e-01,9.99999e-01,9.99999e-01,2.55597e-01,9.99999e-01
6.424448591e-01,2.62577e-01,9.99999e-01,9.99999e-01,9.99999e-01,2.62577e-01,9.99999e-01
6.456570834e-01,2.69605e-01,9.99999e-01,9.99999e-01,9.99999e-01,2.69605e-01,9.99999e-01
6.488853688e-01,2.76677e-01,9.99999e-01,9.99999e-01,9.99999e-01,2.76677e-01,9.99999e-01
6.521297956e-01,2.83789e-01,9.99999e-01,9.99999e-01,9.99999e-01,2.83789e-01,9.99999e-01
6.553904446e-01,2.90938e-01,9.99999e-01,9.99999e-01,9.99999e-01,2.90938e-01,9.99999e-01
6.586673968e-01,2.98120e-01,9.99999e-01,9.99999e-01,9.99999e-01,2.98120e-01,9.99999e-01
6.619607338e-01,3.05333e-01,9.99999e-01,9.99999e-01,9.99999e-01,3.05333e-01,9.99999e-01
6.652705375e-01,3.12572e-01,9.99999e-01,9.99999e-01,9.99999e-01,3.12572e-01,9.99999e-01
6.685968902e-01,3.19835e-01,9.99999e-01,9.99999e-01,9.99999e-01,3.19835e-01,9.99999e-01
6.719398746e-01,3.27119e-01,9.99999e-01,9.99999e-01,9.99999e-01,3.27119e-01,9.99999e-01
6.752995740e-01,3.34419e-01,9.99999e-01,9.99999e-01,9.99999e-01,3.34419e-01,9.99999e-01
6.786760719e-01,3.41733e-01,9.99999e-01,9.99999e-01,9.99999e-01,3.41733e-01,9.99999e-01
6.820694522e-01,3.49058e-01,9.99999e-01,9.99999e-01,9.99999e-01,3.49058e-01,9.99999e-01
6.854797995e-01,3.56391e-01,9.99999e-01,9.99999e-01,9.99999e-01,3.56391e-01,9.99999e-01
6.889071985e-01,3.63729e-01,9.99999e-01,9.99999e-01,9.99999e-01,3.63729e-01,9.99999e-01
6.923517345e-01,3.71068e-01,9.99999e-01,9.99999e-01,9.99999e-01,3.71068e-01,9.99999e-01
6.958134932e-01,3.78406e-01,9.99999e-01,9.99999e-01,9.99999e-01,3.78406e-01,9.99999e-01
6.992925606e-01,3.85739e-01,9.99999e-01,9.99999e-01,9.99999e-01,3.85739e-01,9.99999e-01
7.027890234e-01,3.93066e-01,9.99999e-01,9.99999e-01,9.99999e-01,3.93066e-01,9.99999e-01
7.063029686e-01,4.00383e-01,9.99999e-01,9.99999e-01,9.99999e-01,4.00383e-01,9.99999e-01
7.098344834e-01,4.07688e-01,9.99999e-01,9.99999e-01,9.99999e-01,4.07688e-01,9.99999e-01
7.133836558e-01,4.14978e-01,9.99999e-01,9.99999e-01,9.99999e-01,4.14978e-01,9.99999e-01
7.169505741e-01,4.22250e-01,9.99999e-01,9.99999e-01,9.99999e-01,4.22250e-01,9.99999e-01
7.205353270e-01,4.29503e-01,9.99999e-01,9.99999e-01,9.99999e-01,4.29503e-01,9.99999e-01
7.241380036e-01,4.36733e-01,9.99999e-01,9.99999e-01,9.99999e-01,4.36733e-01,9.99999e-01
7.277586936e-01,4.43938e-01,9.99999e-01,9.99999e-01,9.99999e-01,4.43938e-01,9.99999e-01
7.313974871e-01,4.51116e-01,9.99999e-01,9.99999e-01,9.99999e-01,4.51116e-01,9.99999e-01
7.350544745e-01,4.58266e-01,9.99999e-01,9.99999e-01,9.99999e-01,4.58266e-01,9.99999e-01
7.387297469e-01,4.65384e-01,9.99999e-01,9.99999e-01,9.99999e-01,4.65384e-01,9.99999e-01
7.424233956e-01,4.72468e-01,9.99999e-01,9.99999e-01,9.99999e-01,4.72468e-01,9.99999e-01
7.461355126e-01,4.79518e-01,9.99999e-01,9.99999e-01,9.99999e-01,4.79518e-01,9.99999e-01
7.498661902e-01,4.86530e-01,9.99999e-01,9.99999e-01,9.99999e-01,4.86530e-01,9.99999e-01
7.536155211e-01,4.93503e-01,9.99999e-01,9.99999e-01,9.99999e-01,4.93503e-01,9.99999e-01
7.573835987e-01,5.00435e-01,9.99999e-01,9.99999e-01,9.99999e-01,5.00435e-01,9.99999e-01
7.611705167e-01,5.07326e-01,9.99999e-01,9.99999e-01,9.99999e-01,5.07326e-01,9.99999e-01
7.649763693e-01,5.14172e-01,9.99999e-01,9.99999e-01,9.99999e-01,5.14172e-01,9.99999e-01
7.688012511e-01,5.20972e-01,9.99999e-01,9.99999e-01,9.99999e-01,5.20972e-01,9.99999e-01
7.726452574e-01,5.27725e-01,9.99999e-01,9.99999e-01,9.99999e-01,5.27725e-01,9.99999e-01
7.765084837e-01,5.34430e-01,9.99999e-01,9.99999e-01,9.99999e-01,5.34430e-01,9.99999e-01
7.803910261e-01,5.24558e-01,9.99999e-01,9.99999e-01,9.69453e-01,5.41085e-01,9.99999e-01
7.842929812e-01,4.82236e-01,9.99999e-01,9.99999e-01,8.80491e-01,5.47690e-01,9.99999e-01
7.882144461e-01,4.82941e-01,9.99999e-01,9.99999e-01,8.71353e-01,5.54242e-01,9.99999e-01
7.921555184e-01,5.17636e-01,9.99999e-01,9.99999e-01,9.23130e-01,5.60740e-01,9.99999e-01
7.961162960e-01,5.37943e-01,9.99999e-01,9.99999e-01,9.48444e-01,5.67184e-01,9.99999e-01
8.000968774e-01,5.57309e-01,9.99999e-01,9.99999e-01,9.71644e-01,5.73573e-01,9.99999e-01
8.040973618e-01,5.71375e-01,9.99999e-01,9.99999e-01,9.85289e-01,5.79906e-01,9.99999e-01
8.081178486e-01,5.82188e-01,9.99999e-01,9.99999e-01,9.93187e-01,5.86181e-01,9.99999e-01
8.121584379e-01,5.91166e-01,9.99999e-01,9.99999e-01,9.97920e-01,5.92398e-01,9.99999e-01
8.162192301e-01,5.98281e-01,9.99999e-01,9.99999e-01,9.99539e-01,5.98556e-01,9.99999e-01
8.203003262e-01,6.04651e-01,9.99999e-01,9.99999e-01,9.99993e-01,6.04655e-01,9.99999e-01
8.244018279e-01,6.10694e-01,9.99999e-01,9.99999e-01,9.99999e-01,6.10694e-01,9.99999e-01
8.285238370e-01,6.16672e-01,9.99999e-01,9.99999e-01,9.99999e-01,6.16672e-01,9.99999e-01
8.326664562e-01,6.22588e-01,9.99999e-01,9.99999e-01,9.99999e-01,6.22588e-01,9.99999e-01
8.368297885e-01,6.28443e-01,9.99999e-01,9.99999e-01,9.99999e-01,6.28443e-01,9.99999e-01
8.410139374e-01,6.34236e-01,9.99999e-01,9.99999e-01,9.99999e-01,6.34236e-01,9.99999e-01
8.452190071e-01,6.39966e-01,9.99999e-01,9.99999e-01,9.99999e-01,6.39966e-01,9.99999e-01
8.494451021e-01,6.45633e-01,9.99999e-01,9.99999e-01,9.99999e-01,6.45633e-01,9.99999e-01
8.536923276e-01,6.51237e-01,9.99999e-01,9.99999e-01,9.99999e-01,6.51237e-01,9.99999e-01
8.579607893e-01,6.56777e-01,9.99999e-01,9.99999e-01,9.99999e-01,6.56777e-01,9.99999e-01
8.622505932e-01,6.62254e-01,9.99999e-01,9.99999e-01,9.99999e-01,6.62254e-01,9.99999e-01
8.665618462e-01,6.20707e-01,9.99999e-01,9.99999e-01,9.29665e-01,6.67666e-01,9.99999e-01
8.708946554e-01,4.85295e-01,9.99999e-01,9.99999e-01,7.21075e-01,6.73015e-01,9.99999e-01
8.752491287e-01,5.22448e-01,9.99999e-01,9.99999e-01,7.70231e-01,6.78300e-01,9.99999e-01
8.796253743e-01,5.92595e-01,9.99999e-01,9.99999e-01,8.66973e-01,6.83521e-01,9.99999e-01
8.840235012e-01,6.39619e-01,9.99999e-01,9.99999e-01,9.28763e-01,6.88677e-01,9.99999e-01
8.884436187e-01,6.73965e-01,9.99999e-01,9.99999e-01,9.71452e-01,6.93770e-01,9.99999e-01
8.928858368e-01,6.90638e-01,9.99999e-01,9.99999e-01,9.88321e-01,6.98798e-01,9.99999e-01
8.973502660e-01,7.01772e-01,9.99999e-01,9.99999e-01,9.97171e-01,7.03762e-01,9.99999e-01
9.018370173e-01,7.08443e-01,9.99999e-01,9.99999e-01,9.99689e-01,7.08663e-01,9.99999e-01
9.063462024e-01,7.07549e-01,9.99999e-01,9.99999e-01,9.91658e-01,7.13500e-01,9.99999e-01
9.108779334e-01,7.05029e-01,9.99999e-01,9.99999e-01,9.81559e-01,7.18273e-01,9.99999e-01
9.154323231e-01,7.19881e-01,9.99999e-01,9.99999e-01,9.95707e-01,7.22984e-01,9.99999e-01
9.200094847e-01,6.81366e-01,9.99999e-01,9.99999e-01,9.36416e-01,7.27631e-01,9.99999e-01
9.246095321e-01,6.68334e-01,9.99999e-01,9.99999e-01,9.12756e-01,7.32215e-01,9.99999e-01
9.292325798e-01,6.85100e-01,9.99999e-01,9.99999e-01,9.29910e-01,7.36737e-01,9.99999e-01
9.338787427e-01,6.91628e-01,9.99999e-01,9.99999e-01,9.33123e-01,7.41196e-01,9.99999e-01
9.385481364e-01,7.08619e-01,9.99999e-01,9.99999e-01,9.50408e-01,7.45594e-01,9.99999e-01
9.432408771e-01,7.27024e-01,9.99999e-01,9.99999e-01,9.69455e-01,7.49930e-01,9.99999e-01
9.479570815e-01,7.42270e-01,9.99999e-01,9.99999e-01,9.84175e-01,7.54205e-01,9.99999e-01
9.526968669e-01,7.52626e-01,9.99999e-01,9.99999e-01,9.92360e-01,7.58419e-01,9.99999e-01
9.574603512e-01,7.60080e-01,9.99999e-01,9.99999e-01,9.96731e-01,7.62573e-01,9.99999e-01
9.622476530e-01,7.65886e-01,9.99999e-01,9.99999e-01,9.98981e-01,7.66667e-01,9.99999e-01
9.670588912e-01,7.70466e-01,9.99999e-01,9.99999e-01,9.99695e-01,7.70701e-01,9.99999e-01
9.718941857e-01,7.74660e-01,9.99999e-01,9.99999e-01,9.99978e-01,7.74676e-01,9.99999e-01
9.767536566e-01,7.78593e-01,9.99999e-01,9.99999e-01,9.99999e-01,7.78593e-01,9.99999e-01
9.816374249e-01,7.82451e-01,9.99999e-01,9.99999e-01,9.99999e-01,7.82451e-01,9.99999e-01
9.865456120e-01,7.86252e-01,9.99999e-01,9.99999e-01,9.99999e-01,7.86252e-01,9.99999e-01
9.914783401e-01,7.89995e-01,9.99999e-01,9.99999e-01,9.99999e-01,7.89995e-01,9.99999e-01
9.964357318e-01,7.93682e-01,9.99999e-01,9.99999e-01,9.99999e-01,7.93682e-01,9.99999e-01
1.001417910e+00,7.97313e-01,9.99999e-01,9.99999e-01,9.99999e-01,7.97313e-01,9.99999e-01
1.006425000e+00,8.00888e-01,9.99999e-01,9.99999e-01,9.99999e-01,8.00888e-01,9.99999e-01
1.011457125e+00,8.04409e-01,9.99999e-01,9.99999e-01,9.99999e-01,8.04409e-01,9.99999e-01
1.016514411e+00,8.07874e-01,9.99999e-01,9.99999e-01,9.99999e-01,8.07874e-01,9.99999e-01
1.021596983e+00,8.11244e-01,9.99999e-01,9.99999e-01,9.99948e-01,8.11286e-01,9.99999e-01
1.026704968e+00,8.11978e-01,9.99999e-01,9.99999e-01,9.96726e-01,8.14644e-01,9.99999e-01
1.031838492e+00,7.82391e-01,9.99999e-01,9.99999e-01,9.56526e-01,8.17950e-01,9.99999e-01
1.036997685e+00,1.44064e-01,9.99999e-01,9.99999e-01,1.75430e-01,8.21203e-01,9.99999e-01
1.042182673e+00,1.35294e-01,9.99999e-01,9.99999e-01,1.64111e-01,8.24404e-01,9.99999e-01
1.047393587e+00,1.45514e-01,9.99999e-01,9.99999e-01,1.75836e-01,8.27555e-01,9.99999e-01
1.052630555e+00,6.63129e-03,9.99999e-01,9.99999e-01,7.98320e-03,8.30654e-01,9.99999e-01
1.057893707e+00,1.59657e-02,9.99999e-01,9.99999e-01,1.91503e-02,8.33704e-01,9.99999e-01
1.063183176e+00,4.56499e-02,9.99999e-01,9.99999e-01,5.45591e-02,8.36705e-01,9.99999e-01
1.068499092e+00,1.12665e-01,9.99999e-01,9.99999e-01,1.34180e-01,8.39656e-01,9.99999e-01
1.073841587e+00,2.38280e-01,9.99999e-01,9.99999e-01,2.82804e-01,8.42560e-01,9.99999e-01
1.079210795e+00,3.80015e-01,9.99999e-01,9.99999e-01,4.49500e-01,8.45416e-01,9.99999e-01
1.084606849e+00,5.47333e-01,9.99999e-01,9.99999e-01,6.45268e-01,8.48225e-01,9.99999e-01
1.090029883e+00,6.77755e-01,9.99999e-01,9.99999e-01,7.96433e-01,8.50987e-01,9.99999e-01
1.095480033e+00,7.63345e-01,9.99999e-01,9.99999e-01,8.94156e-01,8.53704e-01,9.99999e-01
1.100957433e+00,8.11426e-01,9.99999e-01,9.99999e-01,9.47511e-01,8.56375e-01,9.99999e-01
1.106462220e+00,8.40108e-01,9.99999e-01,9.99999e-01,9.78004e-01,8.59002e-01,9.99999e-01
1.111994531e+00,8.54511e-01,9.99999e-01,9.99999e-01,9.91790e-01,8.61584e-01,9.99999e-01
1.117554504e+00,8.62399e-01,9.99999e-01,9.99999e-01,9.98003e-01,8.64123e-01,9.99999e-01
1.123142276e+00,8.66507e-01,9.99999e-01,9.99999e-01,9.99869e-01,8.66620e-01,9.99999e-01
1.128757988e+00,8.69074e-01,9.99999e-01,9.99999e-01,9.99999e-01,8.69074e-01,9.99999e-01
1.134401778e+00,8.71486e-01,9.99999e-01,9.99999e-01,9.99999e-01,8.71486e-01,9.99999e-01
1.140073787e+00,8.73857e-01,9.99999e-01,9.99999e-01,9.99999e-01,8.73857e-01,9.99999e-01
1.145774156e+00,8.76188e-01,9.99999e-01,9.99999e-01,9.99999e-01,8.76188e-01,9.99999e-01
1.151503026e+00,8.78478e-01,9.99999e-01,9.99999e-01,9.99999e-01,8.78478e-01,9.99999e-01
1.157260541e+00,8.80729e-01,9.99999e-01,9.99999e-01,9.99999e-01,8.80729e-01,9.99999e-01
1.163046844e+00,8.82941e-01,9.99999e-01,9.99999e-01,9.99999e-01,8.82941e-01,9.99999e-01
1.168862078e+00,8.85115e-01,9.99999e-01,9.99999e-01,9.99999e-01,8.85115e-01,9.99999e-01
1.174706389e+00,8.87251e-01,9.99999e-01,9.99999e-01,9.99999e-01,8.87251e-01,9.99999e-01
1.180579921e+00,8.89350e-01,9.99999e-01,9.99999e-01,9.99999e-01,8.89350e-01,9.99999e-01
1.186482820e+00,8.91406e-01,9.99999e-01,9.99999e-01,9.99991e-01,8.91413e-01,9.99999e-01
1.192415234e+00,8.82944e-01,9.99999e-01,9.99999e-01,9.88253e-01,8.93439e-01,9.99999e-01
1.198377311e+00,5.05548e-01,9.99999e-01,9.99999e-01,5.64586e-01,8.95430e-01,9.99999e-01
1.204369197e+00,7.78024e-10,9.99999e-01,9.99999e-01,8.66990e-10,8.97385e-01,9.99999e-01
1.210391043e+00,7.70772e-35,9.99999e-01,9.99999e-01,8.57073e-35,8.99306e-01,9.99999e-01
1.216442998e+00,2.28102e-30,9.99999e-01,9.99999e-01,2.53111e-30,9.01194e-01,9.99999e-01
1.222525213e+00,6.17107e-30,9.99999e-01,9.99999e-01,6.83360e-30,9.03047e-01,9.99999e-01
1.228637839e+00,3.55566e-23,9.99999e-01,9.99999e-01,3.92948e-23,9.04868e-01,9.99999e-01
