#,Wave/freq,Total,N2,O2,CO2,Rayleigh,CIA
4.000000000e-01,6.44558e-09,9.99999e-01,9.99999e-01,9.99999e-01,6.44558e-09,9.99999e-01
4.020000000e-01,9.35880e-09,9.99999e-01,9.99999e-01,9.99999e-01,9.35880e-09,9.99999e-01
4.040100000e-01,1.34837e-08,9.99999e-01,9.99999e-01,9.99999e-01,1.34837e-08,9.99999e-01
4.060300500e-01,1.92870e-08,9.99999e-01,9.99999e-01,9.99999e-01,1.92870e-08,9.99999e-01
4.080602003e-01,2.73936e-08,9.99999e-01,9.99999e-01,9.99999e-01,2.73936e-08,9.99999e-01
4.101005013e-01,3.86389e-08,9.99999e-01,9.99999e-01,9.99999e-01,3.86389e-08,9.99999e-01
4.121510038e-01,5.41314e-08,9.99999e-01,9.99999e-01,9.99999e-01,5.41314e-08,9.99999e-01
4.142117588e-01,7.53323e-08,9.99999e-01,9.99999e-01,9.99999e-01,7.53323e-08,9.99999e-01
4.162828176e-01,1.04155e-07,9.99999e-01,9.99999e-01,9.99999e-01,1.04155e-07,9.99999e-01
4.183642317e-01,1.43086e-07,9.99999e-01,9.99999e-01,9.99999e-01,1.43086e-07,9.99999e-01
4.204560528e-01,1.95340e-07,9.99999e-01,9.99999e-01,9.99999e-01,1.95340e-07,9.99999e-01
4.225583331e-01,2.65042e-07,9.99999e-01,9.99999e-01,9.99999e-01,2.65042e-07,9.99999e-01
4.246711247e-01,3.57454e-07,9.99999e-01,9.99999e-01,9.99999e-01,3.57454e-07,9.99999e-01
4.267944804e-01,4.79248e-07,9.99999e-01,9.99999e-01,9.99999e-01,4.79248e-07,9.99999e-01
4.289284528e-01,6.38829e-07,9.99999e-01,9.99999e-01,9.99999e-01,6.38829e-07,9.99999e-01
4.310730950e-01,8.46727e-07,9.99999e-01,9.99999e-01,9.99999e-01,8.46727e-07,9.99999e-01
4.332284605e-01,1.11606e-06,9.99999e-01,9.99999e-01,9.99999e-01,1.11606e-06,9.99999e-01
4.353946028e-01,1.46305e-06,9.99999e-01,9.99999e-01,9.99999e-01,1.46305e-06,9.99999e-01
4.375715758e-01,1.90770e-06,9.99999e-01,9.99999e-01,9.99999e-01,1.90770e-06,9.99999e-01
4.397594337e-01,2.47448e-06,9.99999e-01,9.99999e-01,9.99999e-01,2.47448e-06,9.99999e-01
4.419582309e-01,3.19320e-06,9.99999e-01,9.99999e-01,9.99999e-01,3.19320e-06,9.99999e-01
4.441680220e-01,4.09997e-06,9.99999e-01,9.99999e-01,9.99999e-01,4.09997e-06,9.99999e-01
4.463888621e-01,5.23832e-06,9.99999e-01,9.99999e-01,9.99999e-01,5.23832e-06,9.99999e-01
4.486208064e-01,6.66041e-06,9.99999e-01,9.99999e-01,9.99999e-01,6.66041e-06,9.99999e-01
4.508639105e-01,8.42849e-06,9.99999e-01,9.99999e-01,9.99999e-01,8.42849e-06,9.99999e-01
4.531182300e-01,1.06164e-05,9.99999e-01,9.99999e-01,9.99999e-01,1.06164e-05,9.99999e-01
4.553838212e-01,1.33115e-05,9.99999e-01,9.99999e-01,9.99999e-01,1.33115e-05,9.99999e-01
4.576607403e-01,1.66164e-05,9.99999e-01,9.99999e-01,9.99999e-01,1.66164e-05,9.99999e-01
4.599490440e-01,2.06511e-05,9.99999e-01,9.99999e-01,9.99999e-01,2.06511e-05,9.99999e-01
4.622487892e-01,2.55555e-05,9.99999e-01,9.99999e-01,9.99999e-01,2.55555e-05,9.99999e-01
4.645600332e-01,3.14918e-05,9.99999e-01,9.99999e-01,9.99999e-01,3.14918e-05,9.99999e-01
4.668828333e-01,3.86473e-05,9.99999e-01,9.99999e-01,9.99999e-01,3.86473e-05,9.99999e-01
4.692172475e-01,4.72373e-05,9.99999e-01,9.99999e-01,9.99999e-01,4.72373e-05,9.99999e-01
4.715633337e-01,5.75080e-05,9.99999e-01,9.99999e-01,9.99999e-01,5.75080e-05,9.99999e-01
4.739211504e-01,6.97404e-05,9.99999e-01,9.99999e-01,9.99999e-01,6.97404e-05,9.99999e-01
4.762907561e-01,8.42531e-05,9.99999e-01,9.99999e-01,9.99999e-01,8.42531e-05,9.99999e-01
4.786722099e-01,1.01406e-04,9.99999e-01,9.99999e-01,9.99999e-01,1.01406e-04,9.99999e-01
4.810655710e-01,1.21606e-04,9.99999e-01,9.99999e-01,9.99999e-01,1.21606e-04,9.99999e-01
4.834708988e-01,1.45307e-04,9.99999e-01,9.99999e-01,9.99999e-01,1.45307e-04,9.99999e-01
4.858882533e-01,1.73018e-04,9.99999e-01,9.99999e-01,9.99999e-01,1.73018e-04,9.99999e-01
4.883176946e-01,2.05305e-04,9.99999e-01,9.99999e-01,9.99999e-01,2.05305e-04,9.99999e-01
4.907592831e-01,2.42794e-04,9.99999e-01,9.99999e-01,9.99999e-01,2.42794e-04,9.99999e-01
4.932130795e-01,2.86180e-04,9.99999e-01,9.99999e-01,9.99999e-01,2.86180e-04,9.99999e-01
4.956791449e-01,3.36224e-04,9.99999e-01,9.99999e-01,9.99999e-01,3.36224e-04,9.99999e-01
4.981575406e-01,3.93764e-04,9.99999e-01,9.99999e-01,9.99999e-01,3.93764e-04,9.99999e-01
5.006483283e-01,4.59715e-04,9.99999e-01,9.99999e-01,9.99999e-01,4.59715e-04,9.99999e-01
5.031515699e-01,5.35073e-04,9.99999e-01,9.99999e-01,9.99999e-01,5.35073e-04,9.99999e-01
5.056673278e-01,6.20919e-04,9.99999e-01,9.99999e-01,9.99999e-01,6.20919e-04,9.99999e-01
5.081956644e-01,7.18423e-04,9.99999e-01,9.99999e-01,9.99999e-01,7.18423e-04,9.99999e-01
5.107366428e-01,8.28848e-04,9.99999e-01,9.99999e-01,9.99999e-01,8.28848e-04,9.99999e-01
5.132903260e-01,9.53548e-04,9.99999e-01,9.99999e-01,9.99999e-01,9.53548e-04,9.99999e-01
5.158567776e-01,1.09398e-03,9.99999e-01,9.99999e-01,9.99999e-01,1.09398e-03,9.99999e-01
5.184360615e-01,1.25168e-03,9.99999e-01,9.99999e-01,9.99999e-01,1.25168e-03,9.99999e-01
5.210282418e-01,1.42832e-03,9.99999e-01,9.99999e-01,9.99999e-01,1.42832e-03,9.99999e-01
5.236333830e-01,1.62565e-03,9.99999e-01,9.99999e-01,9.99999e-01,1.62565e-03,9.99999e-01
5.262515499e-01,1.84550e-03,9.99999e-01,9.99999e-01,9.99999e-01,1.84550e-03,9.99999e-01
5.288828077e-01,2.08985e-03,9.99999e-01,9.99999e-01,9.99999e-01,2.08985e-03,9.99999e-01
5.315272217e-01,2.36075e-03,9.99999e-01,9.99999e-01,9.99999e-01,2.36075e-03,9.99999e-01
5.341848578e-01,2.66035e-03,9.99999e-01,9.99999e-01,9.99999e-01,2.66035e-03,9.99999e-01
5.368557821e-01,2.99091e-03,9.99999e-01,9.99999e-01,9.99999e-01,2.99091e-03,9.99999e-01
5.395400610e-01,3.35476e-03,9.99999e-01,9.99999e-01,9.99999e-01,3.35476e-03,9.99999e-01
5.422377613e-01,3.75436e-03,9.99999e-01,9.99999e-01,9.99999e-01,3.75436e-03,9.99999e-01
5.449489501e-01,4.19223e-03,9.99999e-01,9.99999e-01,9.99999e-01,4.19223e-03,9.99999e-01
5.476736949e-01,4.67098e-03,9.99999e-01,9.99999e-01,9.99999e-01,4.67098e-03,9.99999e-01
5.504120634e-01,5.19329e-03,9.99999e-01,9.99999e-01,9.99999e-01,5.19329e-03,9.99999e-01
5.531641237e-01,5.76194e-03,9.99999e-01,9.99999e-01,9.99999e-01,5.76194e-03,9.99999e-01
5.559299443e-01,6.37974e-03,9.99999e-01,9.99999e-01,9.99999e-01,6.37974e-03,9.99999e-01
5.587095940e-01,7.04958e-03,9.99999e-01,9.99999e-01,9.99999e-01,7.04958e-03,9.99999e-01
5.615031420e-01,7.77441e-03,9.99999e-01,9.99999e-01,9.99999e-01,7.77441e-03,9.99999e-01
5.643106577e-01,8.55720e-03,9.99999e-01,9.99999e-01,9.99999e-01,8.55720e-03,9.99999e-01
5.671322110e-01,9.40099e-03,9.99999e-01,9.99999e-01,9.99999e-01,9.40099e-03,9.99999e-01
5.699678720e-01,1.03088e-02,9.99999e-01,9.99999e-01,9.99999e-01,1.03088e-02,9.99999e-01
5.728177114e-01,1.12837e-02,9.99999e-01,9.99999e-01,9.99999e-01,1.12837e-02,9.99999e-01
5.756818000e-01,1.23288e-02,9.99999e-01,9.99999e-01,9.99999e-01,1.23288e-02,9.99999e-01
5.785602090e-01,1.34472e-02,9.99999e-01,9.99999e-01,9.99999e-01,1.34472e-02,9.99999e-01
5.814530100e-01,1.46418e-02,9.99999e-01,9.99999e-01,9.99999e-01,1.46418e-02,9.99999e-01
5.843602750e-01,1.59158e-02,9.99999e-01,9.99999e-01,9.99999e-01,1.59158e-02,9.99999e-01
5.872820764e-01,1.72722e-02,9.99999e-01,9.99999e-01,9.99999e-01,1.72722e-02,9.99999e-01
5.902184868e-01,1.87139e-02,9.99999e-01,9.99999e-01,9.99999e-01,1.87139e-02,9.99999e-01
5.931695792e-01,2.02438e-02,9.99999e-01,9.99999e-01,9.99999e-01,2.02438e-02,9.99999e-01
5.961354271e-01,2.18649e-02,9.99999e-01,9.99999e-01,9.99999e-01,2.18649e-02,9.99999e-01
5.991161043e-01,2.35799e-02,9.99999e-01,9.99999e-01,9.99999e-01,2.35799e-02,9.99999e-01
6.021116848e-01,2.53915e-02,9.99999e-01,9.99999e-01,9.99999e-01,2.53915e-02,9.99999e-01
6.051222432e-01,2.73023e-02,9.99999e-01,9.99999e-01,9.99999e-01,2.73023e-02,9.99999e-01
6.081478544e-01,2.93149e-02,9.99999e-01,9.99999e-01,9.99999e-01,2.93149e-02,9.99999e-01
6.111885937e-01,3.14316e-02,9.99999e-01,9.99999e-01,9.99999e-01,3.14316e-02,9.99999e-01
6.142445367e-01,3.36549e-02,9.99999e-01,9.99999e-01,9.99999e-01,3.36549e-02,9.99999e-01
6.173157594e-01,3.59867e-02,9.99999e-01,9.99999e-01,9.99999e-01,3.59867e-02,9.99999e-01
6.204023382e-01,3.84293e-02,9.99999e-01,9.99999e-01,9.99999e-01,3.84293e-02,9.99999e-01
6.235043498e-01,4.09844e-02,9.99999e-01,9.99999e-01,9.99999e-01,4.09844e-02,9.99999e-01
6.266218716e-01,4.36539e-02,9.99999e-01,9.99999e-01,9.99999e-01,4.36539e-02,9.99999e-01
6.297549810e-01,4.64393e-02,9.99999e-01,9.99999e-01,9.99999e-01,4.64393e-02,9.99999e-01
6.329037559e-01,4.93421e-02,9.99999e-01,9.99999e-01,9.99999e-01,4.93421e-02,9.99999e-01
6.360682746e-01,5.23637e-02,9.99999e-01,9.99999e-01,9.99999e-01,5.23637e-02,9.99999e-01
6.392486160e-01,5.55050e-02,9.99999e-01,9.99999e-01,9.99999e-01,5.55050e-02,9.99999e-01
6.424448591e-01,5.87672e-02,9.99999e-01,9.99999e-01,9.99999e-01,5.87672e-02,9.99999e-01
6.456570834e-01,6.21509e-02,9.99999e-01,9.99999e-01,9.99999e-01,6.21509e-02,9.99999e-01
6.488853688e-01,6.56568e-02,9.99999e-01,9.99999e-01,9.99999e-01,6.56568e-02,9.99999e-01
6.521297956e-01,6.92854e-02,9.99999e-01,9.99999e-01,9.99999e-01,6.92854e-02,9.99999e-01
6.553904446e-01,7.30368e-02,9.99999e-01,9.99999e-01,9.99999e-01,7.30368e-02,9.99999e-01
6.586673968e-01,7.69112e-02,9.99999e-01,9.99999e-01,9.99999e-01,7.69112e-02,9.99999e-01
6.619607338e-01,8.09085e-02,9.99999e-01,9.99999e-01,9.99999e-01,8.09085e-02,9.99999e-01
6.652705375e-01,8.50284e-02,9.99999e-01,9.99999e-01,9.99999e-01,8.50284e-02,9.99999e-01
6.685968902e-01,8.92704e-02,9.99999e-01,9.99999e-01,9.99999e-01,8.92704e-02,9.99999e-01
6.719398746e-01,9.36340e-02,9.99999e-01,9.99999e-01,9.99999e-01,9.36340e-02,9.99999e-01
6.752995740e-01,9.81184e-02,9.99999e-01,9.99999e-01,9.99999e-01,9.81184e-02,9.99999e-01
6.786760719e-01,1.02723e-01,9.99999e-01,9.99999e-01,9.99999e-01,1.02723e-01,9.99999e-01
6.820694522e-01,1.07445e-01,9.99999e-01,9.99999e-01,9.99999e-01,1.07445e-01,9.99999e-01
6.854797995e-01,1.12286e-01,9.99999e-01,9.99999e-01,9.99999e-01,1.12286e-01,9.99999e-01
6.889071985e-01,1.17242e-01,9.99999e-01,9.99999e-01,9.99999e-01,1.17242e-01,9.99999e-01
6.923517345e-01,1.22312e-01,9.99999e-01,9.99999e-01,9.99999e-01,1.22312e-01,9.99999e-01
6.958134932e-01,1.27496e-01,9.99999e-01,9.99999e-01,9.99999e-01,1.27496e-01,9.99999e-01
6.992925606e-01,1.32790e-01,9.99999e-01,9.99999e-01,9.99999e-01,1.32790e-01,9.99999e-01
7.027890234e-01,1.38192e-01,9.99999e-01,9.99999e-01,9.99999e-01,1.38192e-01,9.99999e-01
7.063029686e-01,1.43702e-01,9.99999e-01,9.99999e-01,9.99999e-01,1.43702e-01,9.99999e-01
7.098344834e-01,1.49315e-01,9.99999e-01,9.99999e-01,9.99999e-01,1.49315e-01,9.99999e-01
7.133836558e-01,1.55030e-01,9.99999e-01,9.99999e-01,9.99999e-01,1.55030e-01,9.99999e-01
7.169505741e-01,1.60845e-01,9.99999e-01,9.99999e-01,9.99999e-01,1.60845e-01,9.99999e-01
7.205353270e-01,1.66757e-01,9.99999e-01,9.99999e-01,9.99999e-01,1.66757e-01,9.99999e-01
7.241380036e-01,1.72762e-01,9.99999e-01,9.99999e-01,9.99999e-01,1.72762e-01,9.99999e-01
7.277586936e-01,1.78859e-01,9.99999e-01,9.99999e-01,9.99999e-01,1.78859e-01,9.99999e-01
7.313974871e-01,1.85045e-01,9.99999e-01,9.99999e-01,9.99999e-01,1.85045e-01,9.99999e-01
7.350544745e-01,1.91315e-01,9.99999e-01,9.99999e-01,9.99999e-01,1.91315e-01,9.99999e-01
7.387297469e-01,1.97668e-01,9.99999e-01,9.99999e-01,9.99999e-01,1.97668e-01,9.99999e-01
7.424233956e-01,2.04100e-01,9.99999e-01,9.99999e-01,9.99999e-01,2.04100e-01,9.99999e-01
7.461355126e-01,2.10609e-01,9.99999e-01,9.99999e-01,9.99999e-01,2.10609e-01,9.99999e-01
7.498661902e-01,2.17190e-01,9.99999e-01,9.99999e-01,9.99999e-01,2.17190e-01,9.99999e-01
7.536155211e-01,2.23840e-01,9.99999e-01,9.99999e-01,9.99999e-01,2.23840e-01,9.99999e-01
7.573835987e-01,2.30557e-01,9.99999e-01,9.99999e-01,9.99999e-01,2.30557e-01,9.99999e-01
7.611705167e-01,2.37337e-01,9.99999e-01,9.99999e-01,9.99999e-01,2.37337e-01,9.99999e-01
7.649763693e-01,2.44176e-01,9.99999e-01,9.99999e-01,9.99999e-01,2.44176e-01,9.99999e-01
7.688012511e-01,2.51072e-01,9.99999e-01,9.99999e-01,9.99999e-01,2.51072e-01,9.99999e-01
7.726452574e-01,2.58020e-01,9.99999e-01,9.99999e-01,9.99999e-01,2.58020e-01,9.99999e-01
7.765084837e-01,2.65017e-01,9.99999e-01,9.99999e-01,9.99999e-01,2.65017e-01,9.99999e-01
7.803910261e-01,2.57562e-01,9.99999e-01,9.99999e-01,9.46705e-01,2.72061e-01,9.99999e-01
7.842929812e-01,2.14003e-01,9.99999e-01,9.99999e-01,7.66630e-01,2.79147e-01,9.99999e-01
7.882144461e-01,2.16138e-01,9.99999e-01,9.99999e-01,7.55010e-01,2.86272e-01,9.99999e-01
7.921555184e-01,2.48209e-01,9.99999e-01,9.99999e-01,8.45879e-01,2.93433e-01,9.99999e-01
7.961162960e-01,2.68384e-01,9.99999e-01,9.99999e-01,8.92748e-01,3.00626e-01,9.99999e-01
8.000968774e-01,2.89507e-01,9.99999e-01,9.99999e-01,9.40419e-01,3.07849e-01,9.99999e-01
8.040973618e-01,3.05176e-01,9.99999e-01,9.99999e-01,9.68516e-01,3.15097e-01,9.99999e-01
8.081178486e-01,3.17689e-01,9.99999e-01,9.99999e-01,9.85488e-01,3.22367e-01,9.99999e-01
8.121584379e-01,3.28158e-01,9.99999e-01,9.99999e-01,9.95454e-01,3.29657e-01,9.99999e-01
8.162192301e-01,3.36624e-01,9.99999e-01,9.99999e-01,9.98993e-01,3.36962e-01,9.99999e-01
8.203003262e-01,3.44275e-01,9.99999e-01,9.99999e-01,9.99982e-01,3.44281e-01,9.99999e-01
8.244018279e-01,3.51609e-01,9.99999e-01,9.99999e-01,9.99999e-01,3.51609e-01,9.99999e-01
8.285238370e-01,3.58944e-01,9.99999e-01,9.99999e-01,9.99999e-01,3.58944e-01,9.99999e-01
8.326664562e-01,3.66282e-01,9.99999e-01,9.99999e-01,9.99999e-01,3.66282e-01,9.99999e-01
8.368297885e-01,3.73621e-01,9.99999e-01,9.99999e-01,9.99999e-01,3.73621e-01,9.99999e-01
8.410139374e-01,3.80958e-01,9.99999e-01,9.99999e-01,9.99999e-01,3.80958e-01,9.99999e-01
8.452190071e-01,3.88290e-01,9.99999e-01,9.99999e-01,9.99999e-01,3.88290e-01,9.99999e-01
8.494451021e-01,3.95613e-01,9.99999e-01,9.99999e-01,9.99999e-01,3.95613e-01,9.99999e-01
8.536923276e-01,4.02927e-01,9.99999e-01,9.99999e-01,9.99999e-01,4.02927e-01,9.99999e-01
8.579607893e-01,4.10226e-01,9.99999e-01,9.99999e-01,9.99999e-01,4.10226e-01,9.99999e-01
8.622505932e-01,4.17510e-01,9.99999e-01,9.99999e-01,9.99999e-01,4.17510e-01,9.99999e-01
8.665618462e-01,3.83009e-01,9.99999e-01,9.99999e-01,9.01672e-01,4.24776e-01,9.99999e-01
8.708946554e-01,2.23186e-01,9.99999e-01,9.99999e-01,5.16608e-01,4.32021e-01,9.99999e-01
8.752491287e-01,2.55344e-01,9.99999e-01,9.99999e-01,5.81326e-01,4.39243e-01,9.99999e-01
8.796253743e-01,3.30024e-01,9.99999e-01,9.99999e-01,7.39236e-01,4.46439e-01,9.99999e-01
8.840235012e-01,3.87422e-01,9.99999e-01,9.99999e-01,8.54091e-01,4.53607e-01,9.99999e-01
8.884436187e-01,4.32779e-01,9.99999e-01,9.99999e-01,9.39299e-01,4.60746e-01,9.99999e-01
8.928858368e-01,4.56164e-01,9.99999e-01,9.99999e-01,9.75016e-01,4.67852e-01,9.99999e-01
8.973502660e-01,4.71995e-01,9.99999e-01,9.99999e-01,9.93829e-01,4.74925e-01,9.99999e-01
9.018370173e-01,4.81632e-01,9.99999e-01,9.99999e-01,9.99316e-01,4.81962e-01,9.99999e-01
9.063462024e-01,4.80824e-01,9.99999e-01,9.99999e-01,9.83359e-01,4.88961e-01,9.99999e-01
9.108779334e-01,4.76559e-01,9.99999e-01,9.99999e-01,9.60959e-01,4.95920e-01,9.99999e-01
9.154323231e-01,4.98109e-01,9.99999e-01,9.99999e-01,9.90596e-01,5.02838e-01,9.99999e-01
9.200094847e-01,4.49067e-01,9.99999e-01,9.99999e-01,8.81020e-01,5.09713e-01,9.99999e-01
9.246095321e-01,4.25365e-01,9.99999e-01,9.99999e-01,8.23484e-01,5.16543e-01,9.99999e-01
9.292325798e-01,4.50690e-01,9.99999e-01,9.99999e-01,8.61201e-01,5.23327e-01,9.99999e-01
9.338787427e-01,4.57753e-01,9.99999e-01,9.99999e-01,8.63579e-01,5.30064e-01,9.99999e-01
9.385481364e-01,4.81750e-01,9.99999e-01,9.99999e-01,8.97527e-01,5.36752e-01,9.99999e-01
9.432408771e-01,5.08384e-01,9.99999e-01,9.99999e-01,9.35578e-01,5.43389e-01,9.99999e-01
9.479570815e-01,5.31563e-01,9.99999e-01,9.99999e-01,9.66520e-01,5.49975e-01,9.99999e-01
9.526968669e-01,5.47432e-01,9.99999e-01,9.99999e-01,9.83689e-01,5.56509e-01,9.99999e-01
9.574603512e-01,5.59040e-01,9.99999e-01,9.99999e-01,9.92986e-01,5.62989e-01,9.99999e-01
9.622476530e-01,5.68164e-01,9.99999e-01,9.99999e-01,9.97804e-01,5.69414e-01,9.99999e-01
9.670588912e-01,5.75403e-01,9.99999e-01,9.99999e-01,9.99340e-01,5.75783e-01,9.99999e-01
9.718941857e-01,5.82068e-01,9.99999e-01,9.99999e-01,9.99951e-01,5.82095e-01,9.99999e-01
9.767536566e-01,5.88350e-01,9.99999e-01,9.99999e-01,9.99999e-01,5.88350e-01,9.99999e-01
9.816374249e-01,5.94547e-01,9.99999e-01,9.99999e-01,9.99999e-01,5.94547e-01,9.99999e-01
9.865456120e-01,6.00685e-01,9.99999e-01,9.99999e-01,9.99999e-01,6.00685e-01,9.99999e-01
9.914783401e-01,6.06763e-01,9.99999e-01,9.99999e-01,9.99999e-01,6.06763e-01,9.99999e-01
9.964357318e-01,6.12780e-01,9.99999e-01,9.99999e-01,9.99999e-01,6.12780e-01,9.99999e-01
1.001417910e+00,6.18737e-01,9.99999e-01,9.99999e-01,9.99999e-01,6.18737e-01,9.99999e-01
1.006425000e+00,6.24632e-01,9.99999e-01,9.99999e-01,9.99999e-01,6.24632e-01,9.99999e-01
1.011457125e+00,6.30466e-01,9.99999e-01,9.99999e-01,9.99999e-01,6.30466e-01,9.99999e-01
1.016514411e+00,6.36236e-01,9.99999e-01,9.99999e-01,9.99999e-01,6.36236e-01,9.99999e-01
1.021596983e+00,6.41893e-01,9.99999e-01,9.99999e-01,9.99919e-01,6.41945e-01,9.99999e-01
1.026704968e+00,6.43362e-01,9.99999e-01,9.99999e-01,9.93471e-01,6.47590e-01,9.99999e-01
1.031838492e+00,6.13144e-01,9.99999e-01,9.99999e-01,9.38717e-01,6.53171e-01,9.99999e-01
1.036997685e+00,6.01292e-02,9.99999e-01,9.99999e-01,9.12861e-02,6.58690e-01,9.99999e-01
1.042182673e+00,1.85698e-02,9.99999e-01,9.99999e-01,2.79605e-02,6.64144e-01,9.99999e-01
1.047393587e+00,3.25387e-02,9.99999e-01,9.99999e-01,4.85990e-02,6.69535e-01,9.99999e-01
1.052630555e+00,9.87168e-05,9.99999e-01,9.99999e-01,1.46277e-04,6.74861e-01,9.99999e-01
1.057893707e+00,3.21685e-04,9.99999e-01,9.99999e-01,4.72979e-04,6.80124e-01,9.99999e-01
1.063183176e+00,2.29134e-03,9.99999e-01,9.99999e-01,3.34345e-03,6.85322e-01,9.99999e-01
1.068499092e+00,1.13052e-02,9.99999e-01,9.99999e-01,1.63735e-02,6.90456e-01,9.99999e-01
1.073841587e+00,5.05029e-02,9.99999e-01,9.99999e-01,7.26110e-02,6.95526e-01,9.99999e-01
1.079210795e+00,1.33321e-01,9.99999e-01,9.99999e-01,1.90313e-01,7.00533e-01,9.99999e-01
1.084606849e+00,2.79289e-01,9.99999e-01,9.99999e-01,3.95888e-01,7.05475e-01,9.99999e-01
1.090029883e+00,4.38459e-01,9.99999e-01,9.99999e-01,6.17241e-01,7.10353e-01,9.99999e-01
1.095480033e+00,5.63437e-01,9.99999e-01,9.99999e-01,7.87838e-01,7.15168e-01,9.99999e-01
1.100957433e+00,6.41641e-01,9.99999e-01,9.99999e-01,8.91267e-01,7.19919e-01,9.99999e-01
1.106462220e+00,6.90862e-01,9.99999e-01,9.99999e-01,9.53428e-01,7.24608e-01,9.99999e-01
1.111994531e+00,7.16452e-01,9.99999e-01,9.99999e-01,9.82472e-01,7.29233e-01,9.99999e-01
1.117554504e+00,7.30619e-01,9.99999e-01,9.99999e-01,9.95670e-01,7.33795e-01,9.99999e-01
1.123142276e+00,7.38084e-01,9.99999e-01,9.99999e-01,9.99712e-01,7.38295e-01,9.99999e-01
1.128757988e+00,7.42733e-01,9.99999e-01,9.99999e-01,9.99999e-01,7.42733e-01,9.99999e-01
1.134401778e+00,7.47110e-01,9.99999e-01,9.99999e-01,9.99999e-01,7.47110e-01,9.99999e-01
1.140073787e+00,7.51424e-01,9.99999e-01,9.99999e-01,9.99999e-01,7.51424e-01,9.99999e-01
1.145774156e+00,7.55678e-01,9.99999e-01,9.99999e-01,9.99999e-01,7.55678e-01,9.99999e-01
1.151503026e+00,7.59871e-01,9.99999e-01,9.99999e-01,9.99999e-01,7.59871e-01,9.99999e-01
1.157260541e+00,7.64004e-01,9.99999e-01,9.99999e-01,9.99999e-01,7.64004e-01,9.99999e-01
1.163046844e+00,7.68077e-01,9.99999e-01,9.99999e-01,9.99999e-01,7.68077e-01,9.99999e-01
1.168862078e+00,7.72091e-01,9.99999e-01,9.99999e-01,9.99999e-01,7.72091e-01,9.99999e-01
1.174706389e+00,7.76045e-01,9.99999e-01,9.99999e-01,9.99999e-01,7.76045e-01,9.99999e-01
1.180579921e+00,7.79942e-01,9.99999e-01,9.99999e-01,9.99999e-01,7.79942e-01,9.99999e-01
1.186482820e+00,7.83774e-01,9.99999e-01,9.99999e-01,9.99991e-01,7.83780e-01,9.99999e-01
1.192415234e+00,7.69705e-01,9.99999e-01,9.99999e-01,9.77327e-01,7.87561e-01,9.99999e-01
1.198377311e+00,4.31351e-01,9.99999e-01,9.99999e-01,5.45128e-01,7.91285e-01,9.99999e-01
1.204369197e+00,2.55158e-18,9.99999e-01,9.99999e-01,3.20973e-18,7.94952e-01,9.99999e-01
1.210391043e+00,2.73949e-71,9.99999e-01,9.99999e-01,3.43052e-71,7.98563e-01,9.99999e-01
1.216442998e+00,8.12057e-62,9.99999e-01,9.99999e-01,1.01239e-61,8.02119e-01,9.99999e-01
1.222525213e+00,6.65610e-61,9.99999e-01,9.99999e-01,8.26207e-61,8.05621e-01,9.99999e-01
1.228637839e+00,4.05791e-47,9.99999e-01,9.99999e-01,5.01553e-47,8.09067e-01,9.99999e-01
