#,Wave/freq,Total,N2,O2,CO2,Rayleigh,CIA
4.000000000e-01,2.12801e-17,9.99999e-01,9.99999e-01,9.99999e-01,2.12801e-17,9.99999e-01
4.020000000e-01,4.54596e-17,9.99999e-01,9.99999e-01,9.99999e-01,4.54596e-17,9.99999e-01
4.040100000e-01,9.55934e-17,9.99999e-01,9.99999e-01,9.99999e-01,9.55934e-17,9.99999e-01
4.060300500e-01,1.98086e-16,9.99999e-01,9.99999e-01,9.99999e-01,1.98086e-16,9.99999e-01
4.080602003e-01,4.04604e-16,9.99999e-01,9.99999e-01,9.99999e-01,4.04604e-16,9.99999e-01
4.101005013e-01,8.14853e-16,9.99999e-01,9.99999e-01,9.99999e-01,8.14853e-16,9.99999e-01
4.121510038e-01,1.61854e-15,9.99999e-01,9.99999e-01,9.99999e-01,1.61854e-15,9.99999e-01
4.142117588e-01,3.17161e-15,9.99999e-01,9.99999e-01,9.99999e-01,3.17161e-15,9.99999e-01
4.162828176e-01,6.13289e-15,9.99999e-01,9.99999e-01,9.99999e-01,6.13289e-15,9.99999e-01
4.183642317e-01,1.17056e-14,9.99999e-01,9.99999e-01,9.99999e-01,1.17056e-14,9.99999e-01
4.204560528e-01,2.20586e-14,9.99999e-01,9.99999e-01,9.99999e-01,2.20586e-14,9.99999e-01
4.225583331e-01,4.10512e-14,9.99999e-01,9.99999e-01,9.99999e-01,4.10512e-14,9.99999e-01
4.246711247e-01,7.54651e-14,9.99999e-01,9.99999e-01,9.99999e-01,7.54651e-14,9.99999e-01
4.267944804e-01,1.37070e-13,9.99999e-01,9.99999e-01,9.99999e-01,1.37070e-13,9.99999e-01
4.289284528e-01,2.46048e-13,9.99999e-01,9.99999e-01,9.99999e-01,2.46048e-13,9.99999e-01
4.310730950e-01,4.36595e-13,9.99999e-01,9.99999e-01,9.99999e-01,4.36595e-13,9.99999e-01
4.332284605e-01,7.65981e-13,9.99999e-01,9.99999e-01,9.99999e-01,7.65981e-13,9.99999e-01
4.353946028e-01,1.32903e-12,9.99999e-01,9.99999e-01,9.99999e-01,1.32903e-12,9.99999e-01
4.375715758e-01,2.28099e-12,9.99999e-01,9.99999e-01,9.99999e-01,2.28099e-12,9.99999e-01
4.397594337e-01,3.87329e-12,9.99999e-01,9.99999e-01,9.99999e-01,3.87329e-12,9.99999e-01
4.419582309e-01,6.50869e-12,9.99999e-01,9.99999e-01,9.99999e-01,6.50869e-12,9.99999e-01
4.441680220e-01,1.08257e-11,9.99999e-01,9.99999e-01,9.99999e-01,1.08257e-11,9.99999e-01
4.463888621e-01,1.78259e-11,9.99999e-01,9.99999e-01,9.99999e-01,1.78259e-11,9.99999e-01
4.486208064e-01,2.90650e-11,9.99999e-01,9.99999e-01,9.99999e-01,2.90650e-11,9.99999e-01
4.508639105e-01,4.69348e-11,9.99999e-01,9.99999e-01,9.99999e-01,4.69348e-11,9.99999e-01
4.531182300e-01,7.50772e-11,9.99999e-01,9.99999e-01,9.99999e-01,7.50772e-11,9.99999e-01
4.553838212e-01,1.18985e-10,9.99999e-01,9.99999e-01,9.99999e-01,1.18985e-10,9.99999e-01
4.576607403e-01,1.86864e-10,9.99999e-01,9.99999e-01,9.99999e-01,1.86864e-10,9.99999e-01
4.599490440e-01,2.90862e-10,9.99999e-01,9.99999e-01,9.99999e-01,2.90862e-10,9.99999e-01
4.622487892e-01,4.48800e-10,9.99999e-01,9.99999e-01,9.99999e-01,4.48800e-10,9.99999e-01
4.645600332e-01,6.86591e-10,9.99999e-01,9.99999e-01,9.99999e-01,6.86591e-10,9.99999e-01
4.668828333e-01,1.04159e-09,9.99999e-01,9.99999e-01,9.99999e-01,1.04159e-09,9.99999e-01
4.692172475e-01,1.56718e-09,9.99999e-01,9.99999e-01,9.99999e-01,1.56718e-09,9.99999e-01
4.715633337e-01,2.33904e-09,9.99999e-01,9.99999e-01,9.99999e-01,2.33904e-09,9.99999e-01
4.739211504e-01,3.46354e-09,9.99999e-01,9.99999e-01,9.99999e-01,3.46354e-09,9.99999e-01
4.762907561e-01,5.08903e-09,9.99999e-01,9.99999e-01,9.99999e-01,5.08903e-09,9.99999e-01
4.786722099e-01,7.42078e-09,9.99999e-01,9.99999e-01,9.99999e-01,7.42078e-09,9.99999e-01
4.810655710e-01,1.07406e-08,9.99999e-01,9.99999e-01,9.99999e-01,1.07406e-08,9.99999e-01
4.834708988e-01,1.54325e-08,9.99999e-01,9.99999e-01,9.99999e-01,1.54325e-08,9.99999e-01
4.858882533e-01,2.20157e-08,9.99999e-01,9.99999e-01,9.99999e-01,2.20157e-08,9.99999e-01
4.883176946e-01,3.11877e-08,9.99999e-01,9.99999e-01,9.99999e-01,3.11877e-08,9.99999e-01
4.907592831e-01,4.38779e-08,9.99999e-01,9.99999e-01,9.99999e-01,4.38779e-08,9.99999e-01
4.932130795e-01,6.13168e-08,9.99999e-01,9.99999e-01,9.99999e-01,6.13168e-08,9.99999e-01
4.956791449e-01,8.51221e-08,9.99999e-01,9.99999e-01,9.99999e-01,8.51221e-08,9.99999e-01
4.981575406e-01,1.17406e-07,9.99999e-01,9.99999e-01,9.99999e-01,1.17406e-07,9.99999e-01
5.006483283e-01,1.60910e-07,9.99999e-01,9.99999e-01,9.99999e-01,1.60910e-07,9.99999e-01
5.031515699e-01,2.19164e-07,9.99999e-01,9.99999e-01,9.99999e-01,2.19164e-07,9.99999e-01
5.056673278e-01,2.96692e-07,9.99999e-01,9.99999e-01,9.99999e-01,2.96692e-07,9.99999e-01
5.081956644e-01,3.99249e-07,9.99999e-01,9.99999e-01,9.99999e-01,3.99249e-07,9.99999e-01
5.107366428e-01,5.34115e-07,9.99999e-01,9.99999e-01,9.99999e-01,5.34115e-07,9.99999e-01
5.132903260e-01,7.10444e-07,9.99999e-01,9.99999e-01,9.99999e-01,7.10444e-07,9.99999e-01
5.158567776e-01,9.39674e-07,9.99999e-01,9.99999e-01,9.99999e-01,9.39674e-07,9.99999e-01
5.184360615e-01,1.23602e-06,9.99999e-01,9.99999e-01,9.99999e-01,1.23602e-06,9.99999e-01
5.210282418e-01,1.61705e-06,9.99999e-01,9.99999e-01,9.99999e-01,1.61705e-06,9.99999e-01
5.236333830e-01,2.10434e-06,9.99999e-01,9.99999e-01,9.99999e-01,2.10434e-06,9.99999e-01
5.262515499e-01,2.72425e-06,9.99999e-01,9.99999e-01,9.99999e-01,2.72425e-06,9.99999e-01
5.288828077e-01,3.50885e-06,9.99999e-01,9.99999e-01,9.99999e-01,3.50885e-06,9.99999e-01
5.315272217e-01,4.49689e-06,9.99999e-01,9.99999e-01,9.99999e-01,4.49689e-06,9.99999e-01
5.341848578e-01,5.73496e-06,9.99999e-01,9.99999e-01,9.99999e-01,5.73496e-06,9.99999e-01
5.368557821e-01,7.27884e-06,9.99999e-01,9.99999e-01,9.99999e-01,7.27884e-06,9.99999e-01
5.395400610e-01,9.19494e-06,9.99999e-01,9.99999e-01,9.99999e-01,9.19494e-06,9.99999e-01
5.422377613e-01,1.15620e-05,9.99999e-01,9.99999e-01,9.99999e-01,1.15620e-05,9.99999e-01
5.449489501e-01,1.44727e-05,9.99999e-01,9.99999e-01,9.99999e-01,1.44727e-05,9.99999e-01
5.476736949e-01,1.80360e-05,9.99999e-01,9.99999e-01,9.99999e-01,1.80360e-05,9.99999e-01
5.504120634e-01,2.23791e-05,9.99999e-01,9.99999e-01,9.99999e-01,2.23791e-05,9.99999e-01
5.531641237e-01,2.76500e-05,9.99999e-01,9.99999e-01,9.99999e-01,2.76500e-05,9.99999e-01
5.559299443e-01,3.40199e-05,9.99999e-01,9.99999e-01,9.99999e-01,3.40199e-05,9.99999e-01
5.587095940e-01,4.16862e-05,9.99999e-01,9.99999e-01,9.99999e-01,4.16862e-05,9.99999e-01
5.615031420e-01,5.08754e-05,9.99999e-01,9.99999e-01,9.99999e-01,5.08754e-05,9.99999e-01
5.643106577e-01,6.18465e-05,9.99999e-01,9.99999e-01,9.99999e-01,6.18465e-05,9.99999e-01
5.671322110e-01,7.48940e-05,9.99999e-01,9.99999e-01,9.99999e-01,7.48940e-05,9.99999e-01
5.699678720e-01,9.03519e-05,9.99999e-01,9.99999e-01,9.99999e-01,9.03519e-05,9.99999e-01
5.728177114e-01,1.08597e-04,9.99999e-01,9.99999e-01,9.99999e-01,1.08597e-04,9.99999e-01
5.756818000e-01,1.30053e-04,9.99999e-01,9.99999e-01,9.99999e-01,1.30053e-04,9.99999e-01
5.785602090e-01,1.55194e-04,9.99999e-01,9.99999e-01,9.99999e-01,1.55194e-04,9.99999e-01
5.814530100e-01,1.84550e-04,9.99999e-01,9.99999e-01,9.99999e-01,1.84550e-04,9.99999e-01
5.843602750e-01,2.18710e-04,9.99999e-01,9.99999e-01,9.99999e-01,2.18710e-04,9.99999e-01
5.872820764e-01,2.58324e-04,9.99999e-01,9.99999e-01,9.99999e-01,2.58324e-04,9.99999e-01
5.902184868e-01,3.04112e-04,9.99999e-01,9.99999e-01,9.99999e-01,3.04112e-04,9.99999e-01
5.931695792e-01,3.56864e-04,9.99999e-01,9.99999e-01,9.99999e-01,3.56864e-04,9.99999e-01
5.961354271e-01,4.17445e-04,9.99999e-01,9.99999e-01,9.99999e-01,4.17445e-04,9.99999e-01
5.991161043e-01,4.86800e-04,9.99999e-01,9.99999e-01,9.99999e-01,4.86800e-04,9.99999e-01
6.021116848e-01,5.65958e-04,9.99999e-01,9.99999e-01,9.99999e-01,5.65958e-04,9.99999e-01
6.051222432e-01,6.56031e-04,9.99999e-01,9.99999e-01,9.99999e-01,6.56031e-04,9.99999e-01
6.081478544e-01,7.58225e-04,9.99999e-01,9.99999e-01,9.99999e-01,7.58225e-04,9.99999e-01
6.111885937e-01,8.73836e-04,9.99999e-01,9.99999e-01,9.99999e-01,8.73836e-04,9.99999e-01
6.142445367e-01,1.00426e-03,9.99999e-01,9.99999e-01,9.99999e-01,1.00426e-03,9.99999e-01
6.173157594e-01,1.15097e-03,9.99999e-01,9.99999e-01,9.99999e-01,1.15097e-03,9.99999e-01
6.204023382e-01,1.31558e-03,9.99999e-01,9.99999e-01,9.99999e-01,1.31558e-03,9.99999e-01
6.235043498e-01,1.49976e-03,9.99999e-01,9.99999e-01,9.99999e-01,1.49976e-03,9.99999e-01
6.266218716e-01,1.70530e-03,9.99999e-01,9.99999e-01,9.99999e-01,1.70530e-03,9.99999e-01
6.297549810e-01,1.93411e-03,9.99999e-01,9.99999e-01,9.99999e-01,1.93411e-03,9.99999e-01
6.329037559e-01,2.18816e-03,9.99999e-01,9.99999e-01,9.99999e-01,2.18816e-03,9.99999e-01
6.360682746e-01,2.46956e-03,9.99999e-01,9.99999e-01,9.99999e-01,2.46956e-03,9.99999e-01
6.392486160e-01,2.78049e-03,9.99999e-01,9.99999e-01,9.99999e-01,2.78049e-03,9.99999e-01
6.424448591e-01,3.12325e-03,9.99999e-01,9.99999e-01,9.99999e-01,3.12325e-03,9.99999e-01
6.456570834e-01,3.50021e-03,9.99999e-01,9.99999e-01,9.99999e-01,3.50021e-03,9.99999e-01
6.488853688e-01,3.91385e-03,9.99999e-01,9.99999e-01,9.99999e-01,3.91385e-03,9.99999e-01
6.521297956e-01,4.36673e-03,9.99999e-01,9.99999e-01,9.99999e-01,4.36673e-03,9.99999e-01
6.553904446e-01,4.86148e-03,9.99999e-01,9.99999e-01,9.99999e-01,4.86148e-03,9.99999e-01
6.586673968e-01,5.40084e-03,9.99999e-01,9.99999e-01,9.99999e-01,5.40084e-03,9.99999e-01
6.619607338e-01,5.98757e-03,9.99999e-01,9.99999e-01,9.99999e-01,5.98757e-03,9.99999e-01
6.652705375e-01,6.62453e-03,9.99999e-01,9.99999e-01,9.99999e-01,6.62453e-03,9.99999e-01
6.685968902e-01,7.31464e-03,9.99999e-01,9.99999e-01,9.99999e-01,7.31464e-03,9.99999e-01
6.719398746e-01,8.06084e-03,9.99999e-01,9.99999e-01,9.99999e-01,8.06084e-03,9.99999e-01
6.752995740e-01,8.86614e-03,9.99999e-01,9.99999e-01,9.99999e-01,8.86614e-03,9.99999e-01
6.786760719e-01,9.73356e-03,9.99999e-01,9.99999e-01,9.99999e-01,9.73356e-03,9.99999e-01
6.820694522e-01,1.06662e-02,9.99999e-01,9.99999e-01,9.99999e-01,1.06662e-02,9.99999e-01
6.854797995e-01,1.16670e-02,9.99999e-01,9.99999e-01,9.99999e-01,1.16670e-02,9.99999e-01
6.889071985e-01,1.27392e-02,9.99999e-01,9.99999e-01,9.99999e-01,1.27392e-02,9.99999e-01
6.923517345e-01,1.38858e-02,9.99999e-01,9.99999e-01,9.99999e-01,1.38858e-02,9.99999e-01
6.958134932e-01,1.51098e-02,9.99999e-01,9.99999e-01,9.99999e-01,1.51098e-02,9.99999e-01
6.992925606e-01,1.64143e-02,9.99999e-01,9.99999e-01,9.99999e-01,1.64143e-02,9.99999e-01
7.027890234e-01,1.78023e-02,9.99999e-01,9.99999e-01,9.99999e-01,1.78023e-02,9.99999e-01
7.063029686e-01,1.92768e-02,9.99999e-01,9.99999e-01,9.99999e-01,1.92768e-02,9.99999e-01
7.098344834e-01,2.08406e-02,9.99999e-01,9.99999e-01,9.99999e-01,2.08406e-02,9.99999e-01
7.133836558e-01,2.24965e-02,9.99999e-01,9.99999e-01,9.99999e-01,2.24965e-02,9.99999e-01
7.169505741e-01,2.42474e-02,9.99999e-01,9.99999e-01,9.99999e-01,2.42474e-02,9.99999e-01
7.205353270e-01,2.60959e-02,9.99999e-01,9.99999e-01,9.99999e-01,2.60959e-02,9.99999e-01
7.241380036e-01,2.80445e-02,9.99999e-01,9.99999e-01,9.99999e-01,2.80445e-02,9.99999e-01
7.277586936e-01,3.00959e-02,9.99999e-01,9.99999e-01,9.99999e-01,3.00959e-02,9.99999e-01
7.313974871e-01,3.22523e-02,9.99999e-01,9.99999e-01,9.99999e-01,3.22523e-02,9.99999e-01
7.350544745e-01,3.45160e-02,9.99999e-01,9.99999e-01,9.99999e-01,3.45160e-02,9.99999e-01
7.387297469e-01,3.68891e-02,9.99999e-01,9.99999e-01,9.99999e-01,3.68891e-02,9.99999e-01
7.424233956e-01,3.93736e-02,9.99999e-01,9.99999e-01,9.99999e-01,3.93736e-02,9.99999e-01
7.461355126e-01,4.19714e-02,9.99999e-01,9.99999e-01,9.99999e-01,4.19714e-02,9.99999e-01
7.498661902e-01,4.46841e-02,9.99999e-01,9.99999e-01,9.99999e-01,4.46841e-02,9.99999e-01
7.536155211e-01,4.75134e-02,9.99999e-01,9.99999e-01,9.99999e-01,4.75134e-02,9.99999e-01
7.573835987e-01,5.04606e-02,9.99999e-01,9.99999e-01,9.99999e-01,5.04606e-02,9.99999e-01
7.611705167e-01,5.35269e-02,9.99999e-01,9.99999e-01,9.99999e-01,5.35269e-02,9.99999e-01
7.649763693e-01,5.67135e-02,9.99999e-01,9.99999e-01,9.99999e-01,5.67135e-02,9.99999e-01
7.688012511e-01,6.00211e-02,9.99999e-01,9.99999e-01,9.99999e-01,6.00211e-02,9.99999e-01
7.726452574e-01,6.34506e-02,9.99999e-01,9.99999e-01,9.99999e-01,6.34506e-02,9.99999e-01
7.765084837e-01,6.70024e-02,9.99999e-01,9.99999e-01,9.99999e-01,6.70024e-02,9.99999e-01
7.803910261e-01,6.37777e-02,9.99999e-01,9.99999e-01,9.02383e-01,7.06770e-02,9.99999e-01
7.842929812e-01,4.45533e-02,9.99999e-01,9.99999e-01,5.98235e-01,7.44745e-02,9.99999e-01
7.882144461e-01,4.56302e-02,9.99999e-01,9.99999e-01,5.82055e-01,7.83950e-02,9.99999e-01
7.921555184e-01,5.88875e-02,9.99999e-01,9.99999e-01,7.14322e-01,8.24382e-02,9.99999e-01
7.961162960e-01,6.89393e-02,9.99999e-01,9.99999e-01,7.96028e-01,8.66040e-02,9.99999e-01
8.000968774e-01,8.02975e-02,9.99999e-01,9.99999e-01,8.83441e-01,9.08917e-02,9.99999e-01
8.040973618e-01,8.93659e-02,9.99999e-01,9.99999e-01,9.37725e-01,9.53006e-02,9.99999e-01
8.081178486e-01,9.69207e-02,9.99999e-01,9.99999e-01,9.70857e-01,9.98300e-02,9.99999e-01
8.121584379e-01,1.03531e-01,9.99999e-01,9.99999e-01,9.90924e-01,1.04479e-01,9.99999e-01
8.162192301e-01,1.09026e-01,9.99999e-01,9.99999e-01,9.97988e-01,1.09246e-01,9.99999e-01
8.203003262e-01,1.14126e-01,9.99999e-01,9.99999e-01,9.99970e-01,1.14130e-01,9.99999e-01
8.244018279e-01,1.19129e-01,9.99999e-01,9.99999e-01,9.99999e-01,1.19129e-01,9.99999e-01
8.285238370e-01,1.24242e-01,9.99999e-01,9.99999e-01,9.99999e-01,1.24242e-01,9.99999e-01
8.326664562e-01,1.29467e-01,9.99999e-01,9.99999e-01,9.99999e-01,1.29467e-01,9.99999e-01
8.368297885e-01,1.34802e-01,9.99999e-01,9.99999e-01,9.99999e-01,1.34802e-01,9.99999e-01
8.410139374e-01,1.40245e-01,9.99999e-01,9.99999e-01,9.99999e-01,1.40245e-01,9.99999e-01
8.452190071e-01,1.45793e-01,9.99999e-01,9.99999e-01,9.99999e-01,1.45793e-01,9.99999e-01
8.494451021e-01,1.51445e-01,9.99999e-01,9.99999e-01,9.99999e-01,1.51445e-01,9.99999e-01
8.536923276e-01,1.57198e-01,9.99999e-01,9.99999e-01,9.99999e-01,1.57198e-01,9.99999e-01
8.579607893e-01,1.63050e-01,9.99999e-01,9.99999e-01,9.99999e-01,1.63050e-01,9.99999e-01
8.622505932e-01,1.68997e-01,9.99999e-01,9.99999e-01,9.99999e-01,1.68997e-01,9.99999e-01
8.665618462e-01,1.50443e-01,9.99999e-01,9.99999e-01,8.59494e-01,1.75037e-01,9.99999e-01
8.708946554e-01,5.15705e-02,9.99999e-01,9.99999e-01,2.84656e-01,1.81167e-01,9.99999e-01
8.752491287e-01,6.52694e-02,9.99999e-01,9.99999e-01,3.48317e-01,1.87385e-01,9.99999e-01
8.796253743e-01,1.06779e-01,9.99999e-01,9.99999e-01,5.51296e-01,1.93687e-01,9.99999e-01
8.840235012e-01,1.45896e-01,9.99999e-01,9.99999e-01,7.29224e-01,2.00070e-01,9.99999e-01
8.884436187e-01,1.82184e-01,9.99999e-01,9.99999e-01,8.82115e-01,2.06531e-01,9.99999e-01
8.928858368e-01,2.02473e-01,9.99999e-01,9.99999e-01,9.50280e-01,2.13067e-01,9.99999e-01
8.973502660e-01,2.16973e-01,9.99999e-01,9.99999e-01,9.87701e-01,2.19674e-01,9.99999e-01
9.018370173e-01,2.26042e-01,9.99999e-01,9.99999e-01,9.98637e-01,2.26350e-01,9.99999e-01
9.063462024e-01,2.25205e-01,9.99999e-01,9.99999e-01,9.66167e-01,2.33091e-01,9.99999e-01
9.108779334e-01,2.21384e-01,9.99999e-01,9.99999e-01,9.22841e-01,2.39893e-01,9.99999e-01
9.154323231e-01,2.42151e-01,9.99999e-01,9.99999e-01,9.81346e-01,2.46754e-01,9.99999e-01
9.200094847e-01,2.00887e-01,9.99999e-01,9.99999e-01,7.91922e-01,2.53670e-01,9.99999e-01
9.246095321e-01,1.76443e-01,9.99999e-01,9.99999e-01,6.76968e-01,2.60637e-01,9.99999e-01
9.292325798e-01,1.98352e-01,9.99999e-01,9.99999e-01,7.41080e-01,2.67652e-01,9.99999e-01
9.338787427e-01,2.04858e-01,9.99999e-01,9.99999e-01,7.45720e-01,2.74712e-01,9.99999e-01
9.385481364e-01,2.26668e-01,9.99999e-01,9.99999e-01,8.04319e-01,2.81813e-01,9.99999e-01
9.432408771e-01,2.52674e-01,9.99999e-01,9.99999e-01,8.74448e-01,2.88952e-01,9.99999e-01
9.479570815e-01,2.76397e-01,9.99999e-01,9.99999e-01,9.33377e-01,2.96125e-01,9.99999e-01
9.526968669e-01,2.93427e-01,9.99999e-01,9.99999e-01,9.67353e-01,3.03330e-01,9.99999e-01
9.574603512e-01,3.06181e-01,9.99999e-01,9.99999e-01,9.85893e-01,3.10562e-01,9.99999e-01
9.622476530e-01,3.16414e-01,9.99999e-01,9.99999e-01,9.95578e-01,3.17819e-01,9.99999e-01
9.670588912e-01,3.24666e-01,9.99999e-01,9.99999e-01,9.98673e-01,3.25097e-01,9.99999e-01
9.718941857e-01,3.32362e-01,9.99999e-01,9.99999e-01,9.99906e-01,3.32393e-01,9.99999e-01
9.767536566e-01,3.39704e-01,9.99999e-01,9.99999e-01,9.99999e-01,3.39704e-01,9.99999e-01
9.816374249e-01,3.47026e-01,9.99999e-01,9.99999e-01,9.99999e-01,3.47026e-01,9.99999e-01
9.865456120e-01,3.54357e-01,9.99999e-01,9.99999e-01,9.99999e-01,3.54357e-01,9.99999e-01
9.914783401e-01,3.61694e-01,9.99999e-01,9.99999e-01,9.99999e-01,3.61694e-01,9.99999e-01
9.964357318e-01,3.69033e-01,9.99999e-01,9.99999e-01,9.99999e-01,3.69033e-01,9.99999e-01
1.001417910e+00,3.76371e-01,9.99999e-01,9.99999e-01,9.99999e-01,3.76371e-01,9.99999e-01
1.006425000e+00,3.83707e-01,9.99999e-01,9.99999e-01,9.99999e-01,3.83707e-01,9.99999e-01
1.011457125e+00,3.91036e-01,9.99999e-01,9.99999e-01,9.99999e-01,3.91036e-01,9.99999e-01
1.016514411e+00,3.98356e-01,9.99999e-01,9.99999e-01,9.99999e-01,3.98356e-01,9.99999e-01
1.021596983e+00,4.05588e-01,9.99999e-01,9.99999e-01,9.99810e-01,4.05664e-01,9.99999e-01
1.026704968e+00,4.07362e-01,9.99999e-01,9.99999e-01,9.86447e-01,4.12958e-01,9.99999e-01
1.031838492e+00,3.75982e-01,9.99999e-01,9.99999e-01,8.94691e-01,4.20236e-01,9.99999e-01
1.036997685e+00,1.82483e-02,9.99999e-01,9.99999e-01,4.26867e-02,4.27494e-01,9.99999e-01
1.042182673e+00,7.63139e-04,9.99999e-01,9.99999e-01,1.75543e-03,4.34730e-01,9.99999e-01
1.047393587e+00,2.14068e-03,9.99999e-01,9.99999e-01,4.84379e-03,4.41943e-01,9.99999e-01
1.052630555e+00,7.93968e-08,9.99999e-01,9.99999e-01,1.76779e-07,4.49129e-01,9.99999e-01
1.057893707e+00,3.00348e-07,9.99999e-01,9.99999e-01,6.58243e-07,4.56286e-01,9.99999e-01
1.063183176e+00,1.31322e-05,9.99999e-01,9.99999e-01,2.83379e-05,4.63413e-01,9.99999e-01
1.068499092e+00,1.64913e-04,9.99999e-01,9.99999e-01,3.50499e-04,4.70507e-01,9.99999e-01
1.073841587e+00,2.76158e-03,9.99999e-01,9.99999e-01,5.78260e-03,4.77567e-01,9.99999e-01
1.079210795e+00,1.92810e-02,9.99999e-01,9.99999e-01,3.97884e-02,4.84589e-01,9.99999e-01
1.084606849e+00,7.79313e-02,9.99999e-01,9.99999e-01,1.58534e-01,4.91574e-01,9.99999e-01
1.090029883e+00,1.89589e-01,9.99999e-01,9.99999e-01,3.80304e-01,4.98517e-01,9.99999e-01
1.095480033e+00,3.13152e-01,9.99999e-01,9.99999e-01,6.19587e-01,5.05419e-01,9.99999e-01
1.100957433e+00,4.06132e-01,9.99999e-01,9.99999e-01,7.92796e-01,5.12278e-01,9.99999e-01
1.106462220e+00,4.71481e-01,9.99999e-01,9.99999e-01,9.08280e-01,5.19091e-01,9.99999e-01
1.111994531e+00,5.07408e-01,9.99999e-01,9.99999e-01,9.64915e-01,5.25858e-01,9.99999e-01
1.117554504e+00,5.27958e-01,9.99999e-01,9.99999e-01,9.91327e-01,5.32576e-01,9.99999e-01
1.123142276e+00,5.38938e-01,9.99999e-01,9.99999e-01,9.99429e-01,5.39245e-01,9.99999e-01
1.128757988e+00,5.45864e-01,9.99999e-01,9.99999e-01,9.99999e-01,5.45864e-01,9.99999e-01
1.134401778e+00,5.52430e-01,9.99999e-01,9.99999e-01,9.99999e-01,5.52430e-01,9.99999e-01
1.140073787e+00,5.58944e-01,9.99999e-01,9.99999e-01,9.99999e-01,5.58944e-01,9.99999e-01
1.145774156e+00,5.65403e-01,9.99999e-01,9.99999e-01,9.99999e-01,5.65403e-01,9.99999e-01
1.151503026e+00,5.71807e-01,9.99999e-01,9.99999e-01,9.99999e-01,5.71807e-01,9.99999e-01
1.157260541e+00,5.78155e-01,9.99999e-01,9.99999e-01,9.99999e-01,5.78155e-01,9.99999e-01
1.163046844e+00,5.84447e-01,9.99999e-01,9.99999e-01,9.99999e-01,5.84447e-01,9.99999e-01
1.168862078e+00,5.90680e-01,9.99999e-01,9.99999e-01,9.99999e-01,5.90680e-01,9.99999e-01
1.174706389e+00,5.96855e-01,9.99999e-01,9.99999e-01,9.99999e-01,5.96855e-01,9.99999e-01
1.180579921e+00,6.02970e-01,9.99999e-01,9.99999e-01,9.99999e-01,6.02970e-01,9.99999e-01
1.186482820e+00,6.09009e-01,9.99999e-01,9.99999e-01,9.99973e-01,6.09025e-01,9.99999e-01
1.192415234e+00,5.86925e-01,9.99999e-01,9.99999e-01,9.54317e-01,6.15020e-01,9.99999e-01
1.198377311e+00,3.14974e-01,9.99999e-01,9.99999e-01,5.07241e-01,6.20954e-01,9.99999e-01
1.204369197e+00,5.82097e-35,9.99999e-01,9.99999e-01,9.28641e-35,6.26826e-01,9.99999e-01
1.210391043e+00,8.59626e-143,9.99999e-01,9.99999e-01,1.35880e-142,6.32636e-01,9.99999e-01
1.216442998e+00,1.65011e-123,9.99999e-01,9.99999e-01,2.58483e-123,6.38383e-01,9.99999e-01
1.222525213e+00,1.19280e-121,9.99999e-01,9.99999e-01,1.85198e-121,6.44068e-01,9.99999e-01
1.228637839e+00,9.20881e-94,9.99999e-01,9.99999e-01,1.41742e-93,6.49689e-01,9.99999e-01
