#,Wave/freq,Total,N2,O2,CO2,Rayleigh,CIA
4.000000000e-01,2.74321e-02,9.99999e-01,9.99999e-01,9.99999e-01,2.74321e-02,9.99999e-01
4.020000000e-01,2.94537e-02,9.99999e-01,9.99999e-01,9.99999e-01,2.94537e-02,9.99999e-01
4.040100000e-01,3.15775e-02,9.99999e-01,9.99999e-01,9.99999e-01,3.15775e-02,9.99999e-01
4.060300500e-01,3.38080e-02,9.99999e-01,9.99999e-01,9.99999e-01,3.38080e-02,9.99999e-01
4.080602003e-01,3.61472e-02,9.99999e-01,9.99999e-01,9.99999e-01,3.61472e-02,9.99999e-01
4.101005013e-01,3.85972e-02,9.99999e-01,9.99999e-01,9.99999e-01,3.85972e-02,9.99999e-01
4.121510038e-01,4.11600e-02,9.99999e-01,9.99999e-01,9.99999e-01,4.11600e-02,9.99999e-01
4.142117588e-01,4.38372e-02,9.99999e-01,9.99999e-01,9.99999e-01,4.38372e-02,9.99999e-01
4.162828176e-01,4.66304e-02,9.99999e-01,9.99999e-01,9.99999e-01,4.66304e-02,9.99999e-01
4.183642317e-01,4.95412e-02,9.99999e-01,9.99999e-01,9.99999e-01,4.95412e-02,9.99999e-01
4.204560528e-01,5.25708e-02,9.99999e-01,9.99999e-01,9.99999e-01,5.25708e-02,9.99999e-01
4.225583331e-01,5.57202e-02,9.99999e-01,9.99999e-01,9.99999e-01,5.57202e-02,9.99999e-01
4.246711247e-01,5.89905e-02,9.99999e-01,9.99999e-01,9.99999e-01,5.89905e-02,9.99999e-01
4.267944804e-01,6.23824e-02,9.99999e-01,9.99999e-01,9.99999e-01,6.23824e-02,9.99999e-01
4.289284528e-01,6.58966e-02,9.99999e-01,9.99999e-01,9.99999e-01,6.58966e-02,9.99999e-01
4.310730950e-01,6.95333e-02,9.99999e-01,9.99999e-01,9.99999e-01,6.95333e-02,9.99999e-01
4.332284605e-01,7.32930e-02,9.99999e-01,9.99999e-01,9.99999e-01,7.32930e-02,9.99999e-01
4.353946028e-01,7.71757e-02,9.99999e-01,9.99999e-01,9.99999e-01,7.71757e-02,9.99999e-01
4.375715758e-01,8.11812e-02,9.99999e-01,9.99999e-01,9.99999e-01,8.11812e-02,9.99999e-01
4.397594337e-01,8.53093e-02,9.99999e-01,9.99999e-01,9.99999e-01,8.53093e-02,9.99999e-01
4.419582309e-01,8.95595e-02,9.99999e-01,9.99999e-01,9.99999e-01,8.95595e-02,9.99999e-01
4.441680220e-01,9.39313e-02,9.99999e-01,9.99999e-01,9.99999e-01,9.39313e-02,9.99999e-01
4.463888621e-01,9.84237e-02,9.99999e-01,9.99999e-01,9.99999e-01,9.84237e-02,9.99999e-01
4.486208064e-01,1.03036e-01,9.99999e-01,9.99999e-01,9.99999e-01,1.03036e-01,9.99999e-01
4.508639105e-01,1.07767e-01,9.99999e-01,9.99999e-01,9.99999e-01,1.07767e-01,9.99999e-01
4.531182300e-01,1.12615e-01,9.99999e-01,9.99999e-01,9.99999e-01,1.12615e-01,9.99999e-01
4.553838212e-01,1.17579e-01,9.99999e-01,9.99999e-01,9.99999e-01,1.17579e-01,9.99999e-01
4.576607403e-01,1.22657e-01,9.99999e-01,9.99999e-01,9.99999e-01,1.22657e-01,9.99999e-01
4.599490440e-01,1.27848e-01,9.99999e-01,9.99999e-01,9.99999e-01,1.27848e-01,9.99999e-01
4.622487892e-01,1.33149e-01,9.99999e-01,9.99999e-01,9.99999e-01,1.33149e-01,9.99999e-01
4.645600332e-01,1.38559e-01,9.99999e-01,9.99999e-01,9.99999e-01,1.38559e-01,9.99999e-01
4.668828333e-01,1.44075e-01,9.99999e-01,9.99999e-01,9.99999e-01,1.44075e-01,9.99999e-01
4.692172475e-01,1.49696e-01,9.99999e-01,9.99999e-01,9.99999e-01,1.49696e-01,9.99999e-01
4.715633337e-01,1.55418e-01,9.99999e-01,9.99999e-01,9.99999e-01,1.55418e-01,9.99999e-01
4.739211504e-01,1.61239e-01,9.99999e-01,9.99999e-01,9.99999e-01,1.61239e-01,9.99999e-01
4.762907561e-01,1.67157e-01,9.99999e-01,9.99999e-01,9.99999e-01,1.67157e-01,9.99999e-01
4.786722099e-01,1.73169e-01,9.99999e-01,9.99999e-01,9.99999e-01,1.73169e-01,9.99999e-01
4.810655710e-01,1.79272e-01,9.99999e-01,9.99999e-01,9.99999e-01,1.79272e-01,9.99999e-01
4.834708988e-01,1.85463e-01,9.99999e-01,9.99999e-01,9.99999e-01,1.85463e-01,9.99999e-01
4.858882533e-01,1.91739e-01,9.99999e-01,9.99999e-01,9.99999e-01,1.91739e-01,9.99999e-01
4.883176946e-01,1.98098e-01,9.99999e-01,9.99999e-01,9.99999e-01,1.98098e-01,9.99999e-01
4.907592831e-01,2.04535e-01,9.99999e-01,9.99999e-01,9.99999e-01,2.04535e-01,9.99999e-01
4.932130795e-01,2.11048e-01,9.99999e-01,9.99999e-01,9.99999e-01,2.11048e-01,9.99999e-01
4.956791449e-01,2.17634e-01,9.99999e-01,9.99999e-01,9.99999e-01,2.17634e-01,9.99999e-01
4.981575406e-01,2.24289e-01,9.99999e-01,9.99999e-01,9.99999e-01,2.24289e-01,9.99999e-01
5.006483283e-01,2.31010e-01,9.99999e-01,9.99999e-01,9.99999e-01,2.31010e-01,9.99999e-01
5.031515699e-01,2.37794e-01,9.99999e-01,9.99999e-01,9.99999e-01,2.37794e-01,9.99999e-01
5.056673278e-01,2.44637e-01,9.99999e-01,9.99999e-01,9.99999e-01,2.44637e-01,9.99999e-01
5.081956644e-01,2.51536e-01,9.99999e-01,9.99999e-01,9.99999e-01,2.51536e-01,9.99999e-01
5.107366428e-01,2.58488e-01,9.99999e-01,9.99999e-01,9.99999e-01,2.58488e-01,9.99999e-01
5.132903260e-01,2.65489e-01,9.99999e-01,9.99999e-01,9.99999e-01,2.65489e-01,9.99999e-01
5.158567776e-01,2.72535e-01,9.99999e-01,9.99999e-01,9.99999e-01,2.72535e-01,9.99999e-01
5.184360615e-01,2.79624e-01,9.99999e-01,9.99999e-01,9.99999e-01,2.79624e-01,9.99999e-01
5.210282418e-01,2.86752e-01,9.99999e-01,9.99999e-01,9.99999e-01,2.86752e-01,9.99999e-01
5.236333830e-01,2.93915e-01,9.99999e-01,9.99999e-01,9.99999e-01,2.93915e-01,9.99999e-01
5.262515499e-01,3.01110e-01,9.99999e-01,9.99999e-01,9.99999e-01,3.01110e-01,9.99999e-01
5.288828077e-01,3.08334e-01,9.99999e-01,9.99999e-01,9.99999e-01,3.08334e-01,9.99999e-01
5.315272217e-01,3.15584e-01,9.99999e-01,9.99999e-01,9.99999e-01,3.15584e-01,9.99999e-01
5.341848578e-01,3.22856e-01,9.99999e-01,9.99999e-01,9.99999e-01,3.22856e-01,9.99999e-01
5.368557821e-01,3.30147e-01,9.99999e-01,9.99999e-01,9.99999e-01,3.30147e-01,9.99999e-01
5.395400610e-01,3.37453e-01,9.99999e-01,9.99999e-01,9.99999e-01,3.37453e-01,9.99999e-01
5.422377613e-01,3.44773e-01,9.99999e-01,9.99999e-01,9.99999e-01,3.44773e-01,9.99999e-01
5.449489501e-01,3.52101e-01,9.99999e-01,9.99999e-01,9.99999e-01,3.52101e-01,9.99999e-01
5.476736949e-01,3.59436e-01,9.99999e-01,9.99999e-01,9.99999e-01,3.59436e-01,9.99999e-01
5.504120634e-01,3.66775e-01,9.99999e-01,9.99999e-01,9.99999e-01,3.66775e-01,9.99999e-01
5.531641237e-01,3.74114e-01,9.99999e-01,9.99999e-01,9.99999e-01,3.74114e-01,9.99999e-01
5.559299443e-01,3.81450e-01,9.99999e-01,9.99999e-01,9.99999e-01,3.81450e-01,9.99999e-01
5.587095940e-01,3.88782e-01,9.99999e-01,9.99999e-01,9.99999e-01,3.88782e-01,9.99999e-01
5.615031420e-01,3.96105e-01,9.99999e-01,9.99999e-01,9.99999e-01,3.96105e-01,9.99999e-01
5.643106577e-01,4.03417e-01,9.99999e-01,9.99999e-01,9.99999e-01,4.03417e-01,9.99999e-01
5.671322110e-01,4.10716e-01,9.99999e-01,9.99999e-01,9.99999e-01,4.10716e-01,9.99999e-01
5.699678720e-01,4.17999e-01,9.99999e-01,9.99999e-01,9.99999e-01,4.17999e-01,9.99999e-01
5.728177114e-01,4.25263e-01,9.99999e-01,9.99999e-01,9.99999e-01,4.25263e-01,9.99999e-01
5.756818000e-01,4.32506e-01,9.99999e-01,9.99999e-01,9.99999e-01,4.32506e-01,9.99999e-01
5.785602090e-01,4.39727e-01,9.99999e-01,9.99999e-01,9.99999e-01,4.39727e-01,9.99999e-01
5.814530100e-01,4.46921e-01,9.99999e-01,9.99999e-01,9.99999e-01,4.46921e-01,9.99999e-01
5.843602750e-01,4.54087e-01,9.99999e-01,9.99999e-01,9.99999e-01,4.54087e-01,9.99999e-01
5.872820764e-01,4.61224e-01,9.99999e-01,9.99999e-01,9.99999e-01,4.61224e-01,9.99999e-01
5.902184868e-01,4.68328e-01,9.99999e-01,9.99999e-01,9.99999e-01,4.68328e-01,9.99999e-01
5.931695792e-01,4.75399e-01,9.99999e-01,9.99999e-01,9.99999e-01,4.75399e-01,9.99999e-01
5.961354271e-01,4.82433e-01,9.99999e-01,9.99999e-01,9.99999e-01,4.82433e-01,9.99999e-01
5.991161043e-01,4.89429e-01,9.99999e-01,9.99999e-01,9.99999e-01,4.89429e-01,9.99999e-01
6.021116848e-01,4.96385e-01,9.99999e-01,9.99999e-01,9.99999e-01,4.96385e-01,9.99999e-01
6.051222432e-01,5.03300e-01,9.99999e-01,9.99999e-01,9.99999e-01,5.03300e-01,9.99999e-01
6.081478544e-01,5.10172e-01,9.99999e-01,9.99999e-01,9.99999e-01,5.10172e-01,9.99999e-01
6.111885937e-01,5.17000e-01,9.99999e-01,9.99999e-01,9.99999e-01,5.17000e-01,9.99999e-01
6.142445367e-01,5.23781e-01,9.99999e-01,9.99999e-01,9.99999e-01,5.23781e-01,9.99999e-01
6.173157594e-01,5.30514e-01,9.99999e-01,9.99999e-01,9.99999e-01,5.30514e-01,9.99999e-01
6.204023382e-01,5.37199e-01,9.99999e-01,9.99999e-01,9.99999e-01,5.37199e-01,9.99999e-01
6.235043498e-01,5.43833e-01,9.99999e-01,9.99999e-01,9.99999e-01,5.43833e-01,9.99999e-01
6.266218716e-01,5.50415e-01,9.99999e-01,9.99999e-01,9.99999e-01,5.50415e-01,9.99999e-01
6.297549810e-01,5.56945e-01,9.99999e-01,9.99999e-01,9.99999e-01,5.56945e-01,9.99999e-01
6.329037559e-01,5.63422e-01,9.99999e-01,9.99999e-01,9.99999e-01,5.63422e-01,9.99999e-01
6.360682746e-01,5.69843e-01,9.99999e-01,9.99999e-01,9.99999e-01,5.69843e-01,9.99999e-01
6.392486160e-01,5.76208e-01,9.99999e-01,9.99999e-01,9.99999e-01,5.76208e-01,9.99999e-01
6.424448591e-01,5.82517e-01,9.99999e-01,9.99999e-01,9.99999e-01,5.82517e-01,9.99999e-01
6.456570834e-01,5.88768e-01,9.99999e-01,9.99999e-01,9.99999e-01,5.88768e-01,9.99999e-01
6.488853688e-01,5.94961e-01,9.99999e-01,9.99999e-01,9.99999e-01,5.94961e-01,9.99999e-01
6.521297956e-01,6.01095e-01,9.99999e-01,9.99999e-01,9.99999e-01,6.01095e-01,9.99999e-01
6.553904446e-01,6.07169e-01,9.99999e-01,9.99999e-01,9.99999e-01,6.07169e-01,9.99999e-01
6.586673968e-01,6.13182e-01,9.99999e-01,9.99999e-01,9.99999e-01,6.13182e-01,9.99999e-01
6.619607338e-01,6.19135e-01,9.99999e-01,9.99999e-01,9.99999e-01,6.19135e-01,9.99999e-01
6.652705375e-01,6.25026e-01,9.99999e-01,9.99999e-01,9.99999e-01,6.25026e-01,9.99999e-01
6.685968902e-01,6.30855e-01,9.99999e-01,9.99999e-01,9.99999e-01,6.30855e-01,9.99999e-01
6.719398746e-01,6.36622e-01,9.99999e-01,9.99999e-01,9.99999e-01,6.36622e-01,9.99999e-01
6.752995740e-01,6.42325e-01,9.99999e-01,9.99999e-01,9.99999e-01,6.42325e-01,9.99999e-01
6.786760719e-01,6.47966e-01,9.99999e-01,9.99999e-01,9.99999e-01,6.47966e-01,9.99999e-01
6.820694522e-01,6.53544e-01,9.99999e-01,9.99999e-01,9.99999e-01,6.53544e-01,9.99999e-01
6.854797995e-01,6.59058e-01,9.99999e-01,9.99999e-01,9.99999e-01,6.59058e-01,9.99999e-01
6.889071985e-01,6.64508e-01,9.99999e-01,9.99999e-01,9.99999e-01,6.64508e-01,9.99999e-01
6.923517345e-01,6.69894e-01,9.99999e-01,9.99999e-01,9.99999e-01,6.69894e-01,9.99999e-01
6.958134932e-01,6.75217e-01,9.99999e-01,9.99999e-01,9.99999e-01,6.75217e-01,9.99999e-01
6.992925606e-01,6.80475e-01,9.99999e-01,9.99999e-01,9.99999e-01,6.80475e-01,9.99999e-01
7.027890234e-01,6.85669e-01,9.99999e-01,9.99999e-01,9.99999e-01,6.85669e-01,9.99999e-01
7.063029686e-01,6.90799e-01,9.99999e-01,9.99999e-01,9.99999e-01,6.90799e-01,9.99999e-01
7.098344834e-01,6.95865e-01,9.99999e-01,9.99999e-01,9.99999e-01,6.95865e-01,9.99999e-01
7.133836558e-01,7.00866e-01,9.99999e-01,9.99999e-01,9.99999e-01,7.00866e-01,9.99999e-01
7.169505741e-01,7.05804e-01,9.99999e-01,9.99999e-01,9.99999e-01,7.05804e-01,9.99999e-01
7.205353270e-01,7.10678e-01,9.99999e-01,9.99999e-01,9.99999e-01,7.10678e-01,9.99999e-01
7.241380036e-01,7.15489e-01,9.99999e-01,9.99999e-01,9.99999e-01,7.15489e-01,9.99999e-01
7.277586936e-01,7.20236e-01,9.99999e-01,9.99999e-01,9.99999e-01,7.20236e-01,9.99999e-01
7.313974871e-01,7.24920e-01,9.99999e-01,9.99999e-01,9.99999e-01,7.24920e-01,9.99999e-01
7.350544745e-01,7.29541e-01,9.99999e-01,9.99999e-01,9.99999e-01,7.29541e-01,9.99999e-01
7.387297469e-01,7.34099e-01,9.99999e-01,9.99999e-01,9.99999e-01,7.34099e-01,9.99999e-01
7.424233956e-01,7.38595e-01,9.99999e-01,9.99999e-01,9.99999e-01,7.38595e-01,9.99999e-01
7.461355126e-01,7.43029e-01,9.99999e-01,9.99999e-01,9.99999e-01,7.43029e-01,9.99999e-01
7.498661902e-01,7.47401e-01,9.99999e-01,9.99999e-01,9.99999e-01,7.47401e-01,9.99999e-01
7.536155211e-01,7.51712e-01,9.99999e-01,9.99999e-01,9.99999e-01,7.51712e-01,9.99999e-01
7.573835987e-01,7.55961e-01,9.99999e-01,9.99999e-01,9.99999e-01,7.55961e-01,9.99999e-01
7.611705167e-01,7.60150e-01,9.99999e-01,9.99999e-01,9.99999e-01,7.60150e-01,9.99999e-01
7.649763693e-01,7.64279e-01,9.99999e-01,9.99999e-01,9.99999e-01,7.64279e-01,9.99999e-01
7.688012511e-01,7.68348e-01,9.99999e-01,9.99999e-01,9.99999e-01,7.68348e-01,9.99999e-01
7.726452574e-01,7.72358e-01,9.99999e-01,9.99999e-01,9.99999e-01,7.72358e-01,9.99999e-01
7.765084837e-01,7.76309e-01,9.99999e-01,9.99999e-01,9.99999e-01,7.76309e-01,9.99999e-01
7.803910261e-01,7.70811e-01,9.99999e-01,9.99999e-01,9.87963e-01,7.80201e-01,9.99999e-01
7.842929812e-01,7.43653e-01,9.99999e-01,9.99999e-01,9.48493e-01,7.84036e-01,9.99999e-01
7.882144461e-01,7.44439e-01,9.99999e-01,9.99999e-01,9.44944e-01,7.87812e-01,9.99999e-01
7.921555184e-01,7.66340e-01,9.99999e-01,9.99999e-01,9.68172e-01,7.91533e-01,9.99999e-01
7.961162960e-01,7.78143e-01,9.99999e-01,9.99999e-01,9.78554e-01,7.95196e-01,9.99999e-01
8.000968774e-01,7.89491e-01,9.99999e-01,9.99999e-01,9.88341e-01,7.98804e-01,9.99999e-01
8.040973618e-01,7.97488e-01,9.99999e-01,9.99999e-01,9.93931e-01,8.02356e-01,9.99999e-01
8.081178486e-01,8.03613e-01,9.99999e-01,9.99999e-01,9.97219e-01,8.05854e-01,9.99999e-01
8.121584379e-01,8.08597e-01,9.99999e-01,9.99999e-01,9.99135e-01,8.09297e-01,9.99999e-01
8.162192301e-01,8.12531e-01,9.99999e-01,9.99999e-01,9.99808e-01,8.12686e-01,9.99999e-01
8.203003262e-01,8.16020e-01,9.99999e-01,9.99999e-01,9.99996e-01,8.16022e-01,9.99999e-01
8.244018279e-01,8.19306e-01,9.99999e-01,9.99999e-01,9.99999e-01,8.19306e-01,9.99999e-01
8.285238370e-01,8.22538e-01,9.99999e-01,9.99999e-01,9.99999e-01,8.22538e-01,9.99999e-01
8.326664562e-01,8.25718e-01,9.99999e-01,9.99999e-01,9.99999e-01,8.25718e-01,9.99999e-01
8.368297885e-01,8.28847e-01,9.99999e-01,9.99999e-01,9.99999e-01,8.28847e-01,9.99999e-01
8.410139374e-01,8.31926e-01,9.99999e-01,9.99999e-01,9.99999e-01,8.31926e-01,9.99999e-01
8.452190071e-01,8.34956e-01,9.99999e-01,9.99999e-01,9.99999e-01,8.34956e-01,9.99999e-01
8.494451021e-01,8.37936e-01,9.99999e-01,9.99999e-01,9.99999e-01,8.37936e-01,9.99999e-01
8.536923276e-01,8.40867e-01,9.99999e-01,9.99999e-01,9.99999e-01,8.40867e-01,9.99999e-01
8.579607893e-01,8.43751e-01,9.99999e-01,9.99999e-01,9.99999e-01,8.43751e-01,9.99999e-01
8.622505932e-01,8.46587e-01,9.99999e-01,9.99999e-01,9.99999e-01,8.46587e-01,9.99999e-01
8.665618462e-01,8.20430e-01,9.99999e-01,9.99999e-01,9.65919e-01,8.49377e-01,9.99999e-01
8.708946554e-01,7.43227e-01,9.99999e-01,9.99999e-01,8.72208e-01,8.52120e-01,9.99999e-01
8.752491287e-01,7.66955e-01,9.99999e-01,9.99999e-01,8.97213e-01,8.54818e-01,9.99999e-01
8.796253743e-01,8.08529e-01,9.99999e-01,9.99999e-01,9.42922e-01,8.57471e-01,9.99999e-01
8.840235012e-01,8.34444e-01,9.99999e-01,9.99999e-01,9.70194e-01,8.60079e-01,9.99999e-01
8.884436187e-01,8.52416e-01,9.99999e-01,9.99999e-01,9.88143e-01,8.62643e-01,9.99999e-01
8.928858368e-01,8.61008e-01,9.99999e-01,9.99999e-01,9.95194e-01,8.65165e-01,9.99999e-01
8.973502660e-01,8.66625e-01,9.99999e-01,9.99999e-01,9.98826e-01,8.67643e-01,9.99999e-01
9.018370173e-01,8.69967e-01,9.99999e-01,9.99999e-01,9.99870e-01,8.70080e-01,9.99999e-01
9.063462024e-01,8.69623e-01,9.99999e-01,9.99999e-01,9.96730e-01,8.72475e-01,9.99999e-01
9.108779334e-01,8.68207e-01,9.99999e-01,9.99999e-01,9.92429e-01,8.74829e-01,9.99999e-01
9.154323231e-01,8.75572e-01,9.99999e-01,9.99999e-01,9.98207e-01,8.77143e-01,9.99999e-01
9.200094847e-01,8.56134e-01,9.99999e-01,9.99999e-01,9.73524e-01,8.79417e-01,9.99999e-01
9.246095321e-01,8.49412e-01,9.99999e-01,9.99999e-01,9.63431e-01,8.81652e-01,9.99999e-01
9.292325798e-01,8.58434e-01,9.99999e-01,9.99999e-01,9.71245e-01,8.83848e-01,9.99999e-01
9.338787427e-01,8.61304e-01,9.99999e-01,9.99999e-01,9.72119e-01,8.86006e-01,9.99999e-01
9.385481364e-01,8.69926e-01,9.99999e-01,9.99999e-01,9.79505e-01,8.88127e-01,9.99999e-01
9.432408771e-01,8.78996e-01,9.99999e-01,9.99999e-01,9.87402e-01,8.90211e-01,9.99999e-01
9.479570815e-01,8.86487e-01,9.99999e-01,9.99999e-01,9.93531e-01,8.92258e-01,9.99999e-01
9.526968669e-01,8.91472e-01,9.99999e-01,9.99999e-01,9.96871e-01,8.94269e-01,9.99999e-01
9.574603512e-01,8.95046e-01,9.99999e-01,9.99999e-01,9.98661e-01,8.96246e-01,9.99999e-01
9.622476530e-01,8.97812e-01,9.99999e-01,9.99999e-01,9.99581e-01,8.98187e-01,9.99999e-01
9.670588912e-01,8.99981e-01,9.99999e-01,9.99999e-01,9.99874e-01,9.00094e-01,9.99999e-01
9.718941857e-01,9.01959e-01,9.99999e-01,9.99999e-01,9.99990e-01,9.01967e-01,9.99999e-01
9.767536566e-01,9.03807e-01,9.99999e-01,9.99999e-01,9.99999e-01,9.03807e-01,9.99999e-01
9.816374249e-01,9.05615e-01,9.99999e-01,9.99999e-01,9.99999e-01,9.05615e-01,9.99999e-01
9.865456120e-01,9.07390e-01,9.99999e-01,9.99999e-01,9.99999e-01,9.07390e-01,9.99999e-01
9.914783401e-01,9.09133e-01,9.99999e-01,9.99999e-01,9.99999e-01,9.09133e-01,9.99999e-01
9.964357318e-01,9.10846e-01,9.99999e-01,9.99999e-01,9.99999e-01,9.10846e-01,9.99999e-01
1.001417910e+00,9.12527e-01,9.99999e-01,9.99999e-01,9.99999e-01,9.12527e-01,9.99999e-01
1.006425000e+00,9.14179e-01,9.99999e-01,9.99999e-01,9.99999e-01,9.14179e-01,9.99999e-01
1.011457125e+00,9.15800e-01,9.99999e-01,9.99999e-01,9.99999e-01,9.15800e-01,9.99999e-01
1.016514411e+00,9.17393e-01,9.99999e-01,9.99999e-01,9.99999e-01,9.17393e-01,9.99999e-01
1.021596983e+00,9.18942e-01,9.99999e-01,9.99999e-01,9.99983e-01,9.18956e-01,9.99999e-01
1.026704968e+00,9.19326e-01,9.99999e-01,9.99999e-01,9.98732e-01,9.20492e-01,9.99999e-01
1.031838492e+00,9.04001e-01,9.99999e-01,9.99999e-01,9.80478e-01,9.21999e-01,9.99999e-01
1.036997685e+00,3.44788e-01,9.99999e-01,9.99999e-01,3.73358e-01,9.23479e-01,9.99999e-01
1.042182673e+00,4.27884e-01,9.99999e-01,9.99999e-01,4.62610e-01,9.24933e-01,9.99999e-01
1.047393587e+00,3.80652e-01,9.99999e-01,9.99999e-01,4.10912e-01,9.26359e-01,9.99999e-01
1.052630555e+00,9.55248e-02,9.99999e-01,9.99999e-01,1.02963e-01,9.27760e-01,9.99999e-01
1.057893707e+00,1.60239e-01,9.99999e-01,9.99999e-01,1.72460e-01,9.29135e-01,9.99999e-01
1.063183176e+00,2.62970e-01,9.99999e-01,9.99999e-01,2.82616e-01,9.30485e-01,9.99999e-01
1.068499092e+00,4.06485e-01,9.99999e-01,9.99999e-01,4.36231e-01,9.31810e-01,9.99999e-01
1.073841587e+00,5.52415e-01,9.99999e-01,9.99999e-01,5.92014e-01,9.33111e-01,9.99999e-01
1.079210795e+00,6.72015e-01,9.99999e-01,9.99999e-01,7.19202e-01,9.34388e-01,9.99999e-01
1.084606849e+00,7.81815e-01,9.99999e-01,9.99999e-01,8.35592e-01,9.35641e-01,9.99999e-01
1.090029883e+00,8.53828e-01,9.99999e-01,9.99999e-01,9.11360e-01,9.36872e-01,9.99999e-01
1.095480033e+00,8.96160e-01,9.99999e-01,9.99999e-01,9.55313e-01,9.38079e-01,9.99999e-01
1.100957433e+00,9.18847e-01,9.99999e-01,9.99999e-01,9.78261e-01,9.39264e-01,9.99999e-01
1.106462220e+00,9.31918e-01,9.99999e-01,9.99999e-01,9.90951e-01,9.40427e-01,9.99999e-01
1.111994531e+00,9.38404e-01,9.99999e-01,9.99999e-01,9.96638e-01,9.41569e-01,9.99999e-01
1.117554504e+00,9.41913e-01,9.99999e-01,9.99999e-01,9.99175e-01,9.42689e-01,9.99999e-01
1.123142276e+00,9.43738e-01,9.99999e-01,9.99999e-01,9.99945e-01,9.43789e-01,9.99999e-01
1.128757988e+00,9.44868e-01,9.99999e-01,9.99999e-01,9.99999e-01,9.44868e-01,9.99999e-01
1.134401778e+00,9.45927e-01,9.99999e-01,9.99999e-01,9.99999e-01,9.45927e-01,9.99999e-01
1.140073787e+00,9.46966e-01,9.99999e-01,9.99999e-01,9.99999e-01,9.46966e-01,9.99999e-01
1.145774156e+00,9.47986e-01,9.99999e-01,9.99999e-01,9.99999e-01,9.47986e-01,9.99999e-01
1.151503026e+00,9.48987e-01,9.99999e-01,9.99999e-01,9.99999e-01,9.48987e-01,9.99999e-01
1.157260541e+00,9.49969e-01,9.99999e-01,9.99999e-01,9.99999e-01,9.49969e-01,9.99999e-01
1.163046844e+00,9.50932e-01,9.99999e-01,9.99999e-01,9.99999e-01,9.50932e-01,9.99999e-01
1.168862078e+00,9.51878e-01,9.99999e-01,9.99999e-01,9.99999e-01,9.51878e-01,9.99999e-01
1.174706389e+00,9.52805e-01,9.99999e-01,9.99999e-01,9.99999e-01,9.52805e-01,9.99999e-01
1.180579921e+00,9.53716e-01,9.99999e-01,9.99999e-01,9.99999e-01,9.53716e-01,9.99999e-01
1.186482820e+00,9.54607e-01,9.99999e-01,9.99999e-01,9.99997e-01,9.54609e-01,9.99999e-01
1.192415234e+00,9.51139e-01,9.99999e-01,9.99999e-01,9.95450e-01,9.55485e-01,9.99999e-01
1.198377311e+00,5.81344e-01,9.99999e-01,9.99999e-01,6.07881e-01,9.56345e-01,9.99999e-01
1.204369197e+00,2.65578e-05,9.99999e-01,9.99999e-01,2.77456e-05,9.57189e-01,9.99999e-01
1.210391043e+00,2.04835e-15,9.99999e-01,9.99999e-01,2.13811e-15,9.58016e-01,9.99999e-01
1.216442998e+00,1.40602e-13,9.99999e-01,9.99999e-01,1.46639e-13,9.58828e-01,9.99999e-01
1.222525213e+00,2.39332e-13,9.99999e-01,9.99999e-01,2.49401e-13,9.59625e-01,9.99999e-01
1.228637839e+00,3.30052e-10,9.99999e-01,9.99999e-01,3.43659e-10,9.60406e-01,9.99999e-01
