#,Wave/freq,Total,N2,O2,CO2,Rayleigh,CIA
4.000000000e-01,1.40869e-05,9.99999e-01,9.99999e-01,9.99999e-01,1.40869e-05,9.99999e-01
4.020000000e-01,1.75685e-05,9.99999e-01,9.99999e-01,9.99999e-01,1.75685e-05,9.99999e-01
4.040100000e-01,2.18104e-05,9.99999e-01,9.99999e-01,9.99999e-01,2.18104e-05,9.99999e-01
4.060300500e-01,2.69611e-05,9.99999e-01,9.99999e-01,9.99999e-01,2.69611e-05,9.99999e-01
4.080602003e-01,3.31888e-05,9.99999e-01,9.99999e-01,9.99999e-01,3.31888e-05,9.99999e-01
4.101005013e-01,4.06877e-05,9.99999e-01,9.99999e-01,9.99999e-01,4.06877e-05,9.99999e-01
4.121510038e-01,4.96806e-05,9.99999e-01,9.99999e-01,9.99999e-01,4.96806e-05,9.99999e-01
4.142117588e-01,6.04224e-05,9.99999e-01,9.99999e-01,9.99999e-01,6.04224e-05,9.99999e-01
4.162828176e-01,7.32031e-05,9.99999e-01,9.99999e-01,9.99999e-01,7.32031e-05,9.99999e-01
4.183642317e-01,8.83518e-05,9.99999e-01,9.99999e-01,9.99999e-01,8.83518e-05,9.99999e-01
4.204560528e-01,1.06240e-04,9.99999e-01,9.99999e-01,9.99999e-01,1.06240e-04,9.99999e-01
4.225583331e-01,1.27285e-04,9.99999e-01,9.99999e-01,9.99999e-01,1.27285e-04,9.99999e-01
4.246711247e-01,1.51956e-04,9.99999e-01,9.99999e-01,9.99999e-01,1.51956e-04,9.99999e-01
4.267944804e-01,1.80775e-04,9.99999e-01,9.99999e-01,9.99999e-01,1.80775e-04,9.99999e-01
4.289284528e-01,2.14324e-04,9.99999e-01,9.99999e-01,9.99999e-01,2.14324e-04,9.99999e-01
4.310730950e-01,2.53245e-04,9.99999e-01,9.99999e-01,9.99999e-01,2.53245e-04,9.99999e-01
4.332284605e-01,2.98249e-04,9.99999e-01,9.99999e-01,9.99999e-01,2.98249e-04,9.99999e-01
4.353946028e-01,3.50119e-04,9.99999e-01,9.99999e-01,9.99999e-01,3.50119e-04,9.99999e-01
4.375715758e-01,4.09709e-04,9.99999e-01,9.99999e-01,9.99999e-01,4.09709e-04,9.99999e-01
4.397594337e-01,4.77955e-04,9.99999e-01,9.99999e-01,9.99999e-01,4.77955e-04,9.99999e-01
4.419582309e-01,5.55876e-04,9.99999e-01,9.99999e-01,9.99999e-01,5.55876e-04,9.99999e-01
4.441680220e-01,6.44574e-04,9.99999e-01,9.99999e-01,9.99999e-01,6.44574e-04,9.99999e-01
4.463888621e-01,7.45242e-04,9.99999e-01,9.99999e-01,9.99999e-01,7.45242e-04,9.99999e-01
4.486208064e-01,8.59166e-04,9.99999e-01,9.99999e-01,9.99999e-01,8.59166e-04,9.99999e-01
4.508639105e-01,9.87726e-04,9.99999e-01,9.99999e-01,9.99999e-01,9.87726e-04,9.99999e-01
4.531182300e-01,1.13240e-03,9.99999e-01,9.99999e-01,9.99999e-01,1.13240e-03,9.99999e-01
4.553838212e-01,1.29476e-03,9.99999e-01,9.99999e-01,9.99999e-01,1.29476e-03,9.99999e-01
4.576607403e-01,1.47650e-03,9.99999e-01,9.99999e-01,9.99999e-01,1.47650e-03,9.99999e-01
4.599490440e-01,1.67937e-03,9.99999e-01,9.99999e-01,9.99999e-01,1.67937e-03,9.99999e-01
4.622487892e-01,1.90527e-03,9.99999e-01,9.99999e-01,9.99999e-01,1.90527e-03,9.99999e-01
4.645600332e-01,2.15618e-03,9.99999e-01,9.99999e-01,9.99999e-01,2.15618e-03,9.99999e-01
4.668828333e-01,2.43417e-03,9.99999e-01,9.99999e-01,9.99999e-01,2.43417e-03,9.99999e-01
4.692172475e-01,2.74143e-03,9.99999e-01,9.99999e-01,9.99999e-01,2.74143e-03,9.99999e-01
4.715633337e-01,3.08023e-03,9.99999e-01,9.99999e-01,9.99999e-01,3.08023e-03,9.99999e-01
4.739211504e-01,3.45295e-03,9.99999e-01,9.99999e-01,9.99999e-01,3.45295e-03,9.99999e-01
4.762907561e-01,3.86204e-03,9.99999e-01,9.99999e-01,9.99999e-01,3.86204e-03,9.99999e-01
4.786722099e-01,4.31006e-03,9.99999e-01,9.99999e-01,9.99999e-01,4.31006e-03,9.99999e-01
4.810655710e-01,4.79963e-03,9.99999e-01,9.99999e-01,9.99999e-01,4.79963e-03,9.99999e-01
4.834708988e-01,5.33347e-03,9.99999e-01,9.99999e-01,9.99999e-01,5.33347e-03,9.99999e-01
4.858882533e-01,5.91435e-03,9.99999e-01,9.99999e-01,9.99999e-01,5.91435e-03,9.99999e-01
4.883176946e-01,6.54512e-03,9.99999e-01,9.99999e-01,9.99999e-01,6.54512e-03,9.99999e-01
4.907592831e-01,7.22867e-03,9.99999e-01,9.99999e-01,9.99999e-01,7.22867e-03,9.99999e-01
4.932130795e-01,7.96796e-03,9.99999e-01,9.99999e-01,9.99999e-01,7.96796e-03,9.99999e-01
4.956791449e-01,8.76599e-03,9.99999e-01,9.99999e-01,9.99999e-01,8.76599e-03,9.99999e-01
4.981575406e-01,9.62578e-03,9.99999e-01,9.99999e-01,9.99999e-01,9.62578e-03,9.99999e-01
5.006483283e-01,1.05504e-02,9.99999e-01,9.99999e-01,9.99999e-01,1.05504e-02,9.99999e-01
5.031515699e-01,1.15429e-02,9.99999e-01,9.99999e-01,9.99999e-01,1.15429e-02,9.99999e-01
5.056673278e-01,1.26063e-02,9.99999e-01,9.99999e-01,9.99999e-01,1.26063e-02,9.99999e-01
5.081956644e-01,1.37438e-02,9.99999e-01,9.99999e-01,9.99999e-01,1.37438e-02,9.99999e-01
5.107366428e-01,1.49583e-02,9.99999e-01,9.99999e-01,9.99999e-01,1.49583e-02,9.99999e-01
5.132903260e-01,1.62530e-02,9.99999e-01,9.99999e-01,9.99999e-01,1.62530e-02,9.99999e-01
5.158567776e-01,1.76308e-02,9.99999e-01,9.99999e-01,9.99999e-01,1.76308e-02,9.99999e-01
5.184360615e-01,1.90947e-02,9.99999e-01,9.99999e-01,9.99999e-01,1.90947e-02,9.99999e-01
5.210282418e-01,2.06475e-02,9.99999e-01,9.99999e-01,9.99999e-01,2.06475e-02,9.99999e-01
5.236333830e-01,2.22922e-02,9.99999e-01,9.99999e-01,9.99999e-01,2.22922e-02,9.99999e-01
5.262515499e-01,2.40316e-02,9.99999e-01,9.99999e-01,9.99999e-01,2.40316e-02,9.99999e-01
5.288828077e-01,2.58681e-02,9.99999e-01,9.99999e-01,9.99999e-01,2.58681e-02,9.99999e-01
5.315272217e-01,2.78046e-02,9.99999e-01,9.99999e-01,9.99999e-01,2.78046e-02,9.99999e-01
5.341848578e-01,2.98435e-02,9.99999e-01,9.99999e-01,9.99999e-01,2.98435e-02,9.99999e-01
5.368557821e-01,3.19871e-02,9.99999e-01,9.99999e-01,9.99999e-01,3.19871e-02,9.99999e-01
5.395400610e-01,3.42378e-02,9.99999e-01,9.99999e-01,9.99999e-01,3.42378e-02,9.99999e-01
5.422377613e-01,3.65976e-02,9.99999e-01,9.99999e-01,9.99999e-01,3.65976e-02,9.99999e-01
5.449489501e-01,3.90686e-02,9.99999e-01,9.99999e-01,9.99999e-01,3.90686e-02,9.99999e-01
5.476736949e-01,4.16527e-02,9.99999e-01,9.99999e-01,9.99999e-01,4.16527e-02,9.99999e-01
5.504120634e-01,4.43515e-02,9.99999e-01,9.99999e-01,9.99999e-01,4.43515e-02,9.99999e-01
5.531641237e-01,4.71667e-02,9.99999e-01,9.99999e-01,9.99999e-01,4.71667e-02,9.99999e-01
5.559299443e-01,5.00996e-02,9.99999e-01,9.99999e-01,9.99999e-01,5.00996e-02,9.99999e-01
5.587095940e-01,5.31515e-02,9.99999e-01,9.99999e-01,9.99999e-01,5.31515e-02,9.99999e-01
5.615031420e-01,5.63236e-02,9.99999e-01,9.99999e-01,9.99999e-01,5.63236e-02,9.99999e-01
5.643106577e-01,5.96166e-02,9.99999e-01,9.99999e-01,9.99999e-01,5.96166e-02,9.99999e-01
5.671322110e-01,6.30313e-02,9.99999e-01,9.99999e-01,9.99999e-01,6.30313e-02,9.99999e-01
5.699678720e-01,6.65684e-02,9.99999e-01,9.99999e-01,9.99999e-01,6.65684e-02,9.99999e-01
5.728177114e-01,7.02282e-02,9.99999e-01,9.99999e-01,9.99999e-01,7.02282e-02,9.99999e-01
5.756818000e-01,7.40109e-02,9.99999e-01,9.99999e-01,9.99999e-01,7.40109e-02,9.99999e-01
5.785602090e-01,7.79166e-02,9.99999e-01,9.99999e-01,9.99999e-01,7.79166e-02,9.99999e-01
5.814530100e-01,8.19451e-02,9.99999e-01,9.99999e-01,9.99999e-01,8.19451e-02,9.99999e-01
5.843602750e-01,8.60961e-02,9.99999e-01,9.99999e-01,9.99999e-01,8.60961e-02,9.99999e-01
5.872820764e-01,9.03692e-02,9.99999e-01,9.99999e-01,9.99999e-01,9.03692e-02,9.99999e-01
5.902184868e-01,9.47636e-02,9.99999e-01,9.99999e-01,9.99999e-01,9.47636e-02,9.99999e-01
5.931695792e-01,9.92786e-02,9.99999e-01,9.99999e-01,9.99999e-01,9.92786e-02,9.99999e-01
5.961354271e-01,1.03913e-01,9.99999e-01,9.99999e-01,9.99999e-01,1.03913e-01,9.99999e-01
5.991161043e-01,1.08666e-01,9.99999e-01,9.99999e-01,9.99999e-01,1.08666e-01,9.99999e-01
6.021116848e-01,1.13536e-01,9.99999e-01,9.99999e-01,9.99999e-01,1.13536e-01,9.99999e-01
6.051222432e-01,1.18521e-01,9.99999e-01,9.99999e-01,9.99999e-01,1.18521e-01,9.99999e-01
6.081478544e-01,1.23621e-01,9.99999e-01,9.99999e-01,9.99999e-01,1.23621e-01,9.99999e-01
6.111885937e-01,1.28832e-01,9.99999e-01,9.99999e-01,9.99999e-01,1.28832e-01,9.99999e-01
6.142445367e-01,1.34154e-01,9.99999e-01,9.99999e-01,9.99999e-01,1.34154e-01,9.99999e-01
6.173157594e-01,1.39584e-01,9.99999e-01,9.99999e-01,9.99999e-01,1.39584e-01,9.99999e-01
6.204023382e-01,1.45120e-01,9.99999e-01,9.99999e-01,9.99999e-01,1.45120e-01,9.99999e-01
6.235043498e-01,1.50760e-01,9.99999e-01,9.99999e-01,9.99999e-01,1.50760e-01,9.99999e-01
6.266218716e-01,1.56501e-01,9.99999e-01,9.99999e-01,9.99999e-01,1.56501e-01,9.99999e-01
6.297549810e-01,1.62340e-01,9.99999e-01,9.99999e-01,9.99999e-01,1.62340e-01,9.99999e-01
6.329037559e-01,1.68276e-01,9.99999e-01,9.99999e-01,9.99999e-01,1.68276e-01,9.99999e-01
6.360682746e-01,1.74305e-01,9.99999e-01,9.99999e-01,9.99999e-01,1.74305e-01,9.99999e-01
6.392486160e-01,1.80425e-01,9.99999e-01,9.99999e-01,9.99999e-01,1.80425e-01,9.99999e-01
6.424448591e-01,1.86632e-01,9.99999e-01,9.99999e-01,9.99999e-01,1.86632e-01,9.99999e-01
6.456570834e-01,1.92924e-01,9.99999e-01,9.99999e-01,9.99999e-01,1.92924e-01,9.99999e-01
6.488853688e-01,1.99297e-01,9.99999e-01,9.99999e-01,9.99999e-01,1.99297e-01,9.99999e-01
6.521297956e-01,2.05749e-01,9.99999e-01,9.99999e-01,9.99999e-01,2.05749e-01,9.99999e-01
6.553904446e-01,2.12276e-01,9.99999e-01,9.99999e-01,9.99999e-01,2.12276e-01,9.99999e-01
6.586673968e-01,2.18875e-01,9.99999e-01,9.99999e-01,9.99999e-01,2.18875e-01,9.99999e-01
6.619607338e-01,2.25543e-01,9.99999e-01,9.99999e-01,9.99999e-01,2.25543e-01,9.99999e-01
6.652705375e-01,2.32276e-01,9.99999e-01,9.99999e-01,9.99999e-01,2.32276e-01,9.99999e-01
6.685968902e-01,2.39071e-01,9.99999e-01,9.99999e-01,9.99999e-01,2.39071e-01,9.99999e-01
6.719398746e-01,2.45925e-01,9.99999e-01,9.99999e-01,9.99999e-01,2.45925e-01,9.99999e-01
6.752995740e-01,2.52835e-01,9.99999e-01,9.99999e-01,9.99999e-01,2.52835e-01,9.99999e-01
6.786760719e-01,2.59796e-01,9.99999e-01,9.99999e-01,9.99999e-01,2.59796e-01,9.99999e-01
6.820694522e-01,2.66805e-01,9.99999e-01,9.99999e-01,9.99999e-01,2.66805e-01,9.99999e-01
6.854797995e-01,2.73860e-01,9.99999e-01,9.99999e-01,9.99999e-01,2.73860e-01,9.99999e-01
6.889071985e-01,2.80956e-01,9.99999e-01,9.99999e-01,9.99999e-01,2.80956e-01,9.99999e-01
6.923517345e-01,2.88091e-01,9.99999e-01,9.99999e-01,9.99999e-01,2.88091e-01,9.99999e-01
6.958134932e-01,2.95260e-01,9.99999e-01,9.99999e-01,9.99999e-01,2.95260e-01,9.99999e-01
6.992925606e-01,3.02461e-01,9.99999e-01,9.99999e-01,9.99999e-01,3.02461e-01,9.99999e-01
7.027890234e-01,3.09691e-01,9.99999e-01,9.99999e-01,9.99999e-01,3.09691e-01,9.99999e-01
7.063029686e-01,3.16945e-01,9.99999e-01,9.99999e-01,9.99999e-01,3.16945e-01,9.99999e-01
7.098344834e-01,3.24220e-01,9.99999e-01,9.99999e-01,9.99999e-01,3.24220e-01,9.99999e-01
7.133836558e-01,3.31514e-01,9.99999e-01,9.99999e-01,9.99999e-01,3.31514e-01,9.99999e-01
7.169505741e-01,3.38823e-01,9.99999e-01,9.99999e-01,9.99999e-01,3.38823e-01,9.99999e-01
7.205353270e-01,3.46145e-01,9.99999e-01,9.99999e-01,9.99999e-01,3.46145e-01,9.99999e-01
7.241380036e-01,3.53475e-01,9.99999e-01,9.99999e-01,9.99999e-01,3.53475e-01,9.99999e-01
7.277586936e-01,3.60811e-01,9.99999e-01,9.99999e-01,9.99999e-01,3.60811e-01,9.99999e-01
7.313974871e-01,3.68150e-01,9.99999e-01,9.99999e-01,9.99999e-01,3.68150e-01,9.99999e-01
7.350544745e-01,3.75488e-01,9.99999e-01,9.99999e-01,9.99999e-01,3.75488e-01,9.99999e-01
7.387297469e-01,3.82824e-01,9.99999e-01,9.99999e-01,9.99999e-01,3.82824e-01,9.99999e-01
7.424233956e-01,3.90154e-01,9.99999e-01,9.99999e-01,9.99999e-01,3.90154e-01,9.99999e-01
7.461355126e-01,3.97475e-01,9.99999e-01,9.99999e-01,9.99999e-01,3.97475e-01,9.99999e-01
7.498661902e-01,4.04785e-01,9.99999e-01,9.99999e-01,9.99999e-01,4.04785e-01,9.99999e-01
7.536155211e-01,4.12081e-01,9.99999e-01,9.99999e-01,9.99999e-01,4.12081e-01,9.99999e-01
7.573835987e-01,4.19361e-01,9.99999e-01,9.99999e-01,9.99999e-01,4.19361e-01,9.99999e-01
7.611705167e-01,4.26622e-01,9.99999e-01,9.99999e-01,9.99999e-01,4.26622e-01,9.99999e-01
7.649763693e-01,4.33861e-01,9.99999e-01,9.99999e-01,9.99999e-01,4.33861e-01,9.99999e-01
7.688012511e-01,4.41076e-01,9.99999e-01,9.99999e-01,9.99999e-01,4.41076e-01,9.99999e-01
7.726452574e-01,4.48265e-01,9.99999e-01,9.99999e-01,9.99999e-01,4.48265e-01,9.99999e-01
7.765084837e-01,4.55427e-01,9.99999e-01,9.99999e-01,9.99999e-01,4.55427e-01,9.99999e-01
7.803910261e-01,4.46113e-01,9.99999e-01,9.99999e-01,9.64449e-01,4.62557e-01,9.99999e-01
7.842929812e-01,4.00284e-01,9.99999e-01,9.99999e-01,8.52293e-01,4.69655e-01,9.99999e-01
7.882144461e-01,4.01730e-01,9.99999e-01,9.99999e-01,8.42697e-01,4.76719e-01,9.99999e-01
7.921555184e-01,4.37725e-01,9.99999e-01,9.99999e-01,9.04864e-01,4.83746e-01,9.99999e-01
7.961162960e-01,4.58973e-01,9.99999e-01,9.99999e-01,9.35276e-01,4.90735e-01,9.99999e-01
8.000968774e-01,4.79957e-01,9.99999e-01,9.99999e-01,9.64380e-01,4.97684e-01,9.99999e-01
8.040973618e-01,4.95203e-01,9.99999e-01,9.99999e-01,9.81393e-01,5.04591e-01,9.99999e-01
8.081178486e-01,5.07064e-01,9.99999e-01,9.99999e-01,9.91414e-01,5.11455e-01,9.99999e-01
8.121584379e-01,5.16897e-01,9.99999e-01,9.99999e-01,9.97342e-01,5.18273e-01,9.99999e-01
8.162192301e-01,5.24738e-01,9.99999e-01,9.99999e-01,9.99412e-01,5.25046e-01,9.99999e-01
8.203003262e-01,5.31765e-01,9.99999e-01,9.99999e-01,9.99990e-01,5.31770e-01,9.99999e-01
8.244018279e-01,5.38445e-01,9.99999e-01,9.99999e-01,9.99999e-01,5.38445e-01,9.99999e-01
8.285238370e-01,5.45070e-01,9.99999e-01,9.99999e-01,9.99999e-01,5.45070e-01,9.99999e-01
8.326664562e-01,5.51643e-01,9.99999e-01,9.99999e-01,9.99999e-01,5.51643e-01,9.99999e-01
8.368297885e-01,5.58163e-01,9.99999e-01,9.99999e-01,9.99999e-01,5.58163e-01,9.99999e-01
8.410139374e-01,5.64629e-01,9.99999e-01,9.99999e-01,9.99999e-01,5.64629e-01,9.99999e-01
8.452190071e-01,5.71039e-01,9.99999e-01,9.99999e-01,9.99999e-01,5.71039e-01,9.99999e-01
8.494451021e-01,5.77394e-01,9.99999e-01,9.99999e-01,9.99999e-01,5.77394e-01,9.99999e-01
8.536923276e-01,5.83692e-01,9.99999e-01,9.99999e-01,9.99999e-01,5.83692e-01,9.99999e-01
8.579607893e-01,5.89933e-01,9.99999e-01,9.99999e-01,9.99999e-01,5.89933e-01,9.99999e-01
8.622505932e-01,5.96115e-01,9.99999e-01,9.99999e-01,9.99999e-01,5.96115e-01,9.99999e-01
8.665618462e-01,5.55704e-01,9.99999e-01,9.99999e-01,9.22731e-01,6.02237e-01,9.99999e-01
8.708946554e-01,4.05481e-01,9.99999e-01,9.99999e-01,6.66580e-01,6.08300e-01,9.99999e-01
8.752491287e-01,4.42931e-01,9.99999e-01,9.99999e-01,7.21031e-01,6.14302e-01,9.99999e-01
8.796253743e-01,5.18164e-01,9.99999e-01,9.99999e-01,8.35420e-01,6.20243e-01,9.99999e-01
8.840235012e-01,5.70354e-01,9.99999e-01,9.99999e-01,9.10929e-01,6.26122e-01,9.99999e-01
8.884436187e-01,6.09134e-01,9.99999e-01,9.99999e-01,9.63911e-01,6.31940e-01,9.99999e-01
8.928858368e-01,6.28272e-01,9.99999e-01,9.99999e-01,9.85223e-01,6.37695e-01,9.99999e-01
8.973502660e-01,6.41067e-01,9.99999e-01,9.99999e-01,9.96394e-01,6.43387e-01,9.99999e-01
9.018370173e-01,6.48758e-01,9.99999e-01,9.99999e-01,9.99601e-01,6.49016e-01,9.99999e-01
9.063462024e-01,6.47913e-01,9.99999e-01,9.99999e-01,9.89811e-01,6.54582e-01,9.99999e-01
9.108779334e-01,6.44756e-01,9.99999e-01,9.99999e-01,9.76778e-01,6.60084e-01,9.99999e-01
9.154323231e-01,6.61866e-01,9.99999e-01,9.99999e-01,9.94505e-01,6.65522e-01,9.99999e-01
9.200094847e-01,6.19353e-01,9.99999e-01,9.99999e-01,9.23172e-01,6.70896e-01,9.99999e-01
9.246095321e-01,6.02751e-01,9.99999e-01,9.99999e-01,8.91371e-01,6.76206e-01,9.99999e-01
9.292325798e-01,6.22730e-01,9.99999e-01,9.99999e-01,9.13826e-01,6.81452e-01,9.99999e-01
9.338787427e-01,6.29360e-01,9.99999e-01,9.99999e-01,9.16586e-01,6.86635e-01,9.99999e-01
9.385481364e-01,6.48858e-01,9.99999e-01,9.99999e-01,9.37991e-01,6.91752e-01,9.99999e-01
9.432408771e-01,6.70032e-01,9.99999e-01,9.99999e-01,9.61575e-01,6.96806e-01,9.99999e-01
9.479570815e-01,6.87830e-01,9.99999e-01,9.99999e-01,9.80098e-01,7.01796e-01,9.99999e-01
9.526968669e-01,6.99908e-01,9.99999e-01,9.99999e-01,9.90357e-01,7.06722e-01,9.99999e-01
9.574603512e-01,7.08643e-01,9.99999e-01,9.99999e-01,9.95866e-01,7.11584e-01,9.99999e-01
9.622476530e-01,7.15459e-01,9.99999e-01,9.99999e-01,9.98709e-01,7.16383e-01,9.99999e-01
9.670588912e-01,7.20840e-01,9.99999e-01,9.99999e-01,9.99612e-01,7.21118e-01,9.99999e-01
9.718941857e-01,7.25771e-01,9.99999e-01,9.99999e-01,9.99972e-01,7.25790e-01,9.99999e-01
9.767536566e-01,7.30400e-01,9.99999e-01,9.99999e-01,9.99999e-01,7.30400e-01,9.99999e-01
9.816374249e-01,7.34946e-01,9.99999e-01,9.99999e-01,9.99999e-01,7.34946e-01,9.99999e-01
9.865456120e-01,7.39430e-01,9.99999e-01,9.99999e-01,9.99999e-01,7.39430e-01,9.99999e-01
9.914783401e-01,7.43853e-01,9.99999e-01,9.99999e-01,9.99999e-01,7.43853e-01,9.99999e-01
9.964357318e-01,7.48213e-01,9.99999e-01,9.99999e-01,9.99999e-01,7.48213e-01,9.99999e-01
1.001417910e+00,7.52512e-01,9.99999e-01,9.99999e-01,9.99999e-01,7.52512e-01,9.99999e-01
1.006425000e+00,7.56751e-01,9.99999e-01,9.99999e-01,9.99999e-01,7.56751e-01,9.99999e-01
1.011457125e+00,7.60928e-01,9.99999e-01,9.99999e-01,9.99999e-01,7.60928e-01,9.99999e-01
1.016514411e+00,7.65046e-01,9.99999e-01,9.99999e-01,9.99999e-01,7.65046e-01,9.99999e-01
1.021596983e+00,7.69062e-01,9.99999e-01,9.99999e-01,9.99945e-01,7.69104e-01,9.99999e-01
1.026704968e+00,7.70023e-01,9.99999e-01,9.99999e-01,9.96016e-01,7.73102e-01,9.99999e-01
1.031838492e+00,7.41078e-01,9.99999e-01,9.99999e-01,9.53715e-01,7.77042e-01,9.99999e-01
1.036997685e+00,1.13008e-01,9.99999e-01,9.99999e-01,1.44710e-01,7.80924e-01,9.99999e-01
1.042182673e+00,8.38413e-02,9.99999e-01,9.99999e-01,1.06838e-01,7.84747e-01,9.99999e-01
1.047393587e+00,1.02399e-01,9.99999e-01,9.99999e-01,1.29863e-01,7.88514e-01,9.99999e-01
1.052630555e+00,2.38332e-03,9.99999e-01,9.99999e-01,3.00839e-03,7.92223e-01,9.99999e-01
1.057893707e+00,6.25985e-03,9.99999e-01,9.99999e-01,7.86535e-03,7.95876e-01,9.99999e-01
1.063183176e+00,2.23074e-02,9.99999e-01,9.99999e-01,2.79026e-02,7.99473e-01,9.99999e-01
1.068499092e+00,6.60217e-02,9.99999e-01,9.99999e-01,8.22171e-02,8.03015e-01,9.99999e-01
1.073841587e+00,1.66153e-01,9.99999e-01,9.99999e-01,2.06017e-01,8.06503e-01,9.99999e-01
1.079210795e+00,2.97816e-01,9.99999e-01,9.99999e-01,3.67702e-01,8.09936e-01,9.99999e-01
1.084606849e+00,4.68635e-01,9.99999e-01,9.99999e-01,5.76203e-01,8.13315e-01,9.99999e-01
1.090029883e+00,6.13315e-01,9.99999e-01,9.99999e-01,7.51021e-01,8.16642e-01,9.99999e-01
1.095480033e+00,7.12032e-01,9.99999e-01,9.99999e-01,8.68420e-01,8.19915e-01,9.99999e-01
1.100957433e+00,7.69044e-01,9.99999e-01,9.99999e-01,9.34283e-01,8.23137e-01,9.99999e-01
1.106462220e+00,8.03407e-01,9.99999e-01,9.99999e-01,9.72284e-01,8.26308e-01,9.99999e-01
1.111994531e+00,8.20833e-01,9.99999e-01,9.99999e-01,9.89636e-01,8.29428e-01,9.99999e-01
1.117554504e+00,8.30385e-01,9.99999e-01,9.99999e-01,9.97461e-01,8.32497e-01,9.99999e-01
1.123142276e+00,8.35378e-01,9.99999e-01,9.99999e-01,9.99832e-01,8.35517e-01,9.99999e-01
1.128757988e+00,8.38488e-01,9.99999e-01,9.99999e-01,9.99999e-01,8.38488e-01,9.99999e-01
1.134401778e+00,8.41411e-01,9.99999e-01,9.99999e-01,9.99999e-01,8.41411e-01,9.99999e-01
1.140073787e+00,8.44286e-01,9.99999e-01,9.99999e-01,9.99999e-01,8.44286e-01,9.99999e-01
1.145774156e+00,8.47113e-01,9.99999e-01,9.99999e-01,9.99999e-01,8.47113e-01,9.99999e-01
1.151503026e+00,8.49894e-01,9.99999e-01,9.99999e-01,9.99999e-01,8.49894e-01,9.99999e-01
1.157260541e+00,8.52629e-01,9.99999e-01,9.99999e-01,9.99999e-01,8.52629e-01,9.99999e-01
1.163046844e+00,8.55318e-01,9.99999e-01,9.99999e-01,9.99999e-01,8.55318e-01,9.99999e-01
1.168862078e+00,8.57963e-01,9.99999e-01,9.99999e-01,9.99999e-01,8.57963e-01,9.99999e-01
1.174706389e+00,8.60563e-01,9.99999e-01,9.99999e-01,9.99999e-01,8.60563e-01,9.99999e-01
1.180579921e+00,8.63119e-01,9.99999e-01,9.99999e-01,9.99999e-01,8.63119e-01,9.99999e-01
1.186482820e+00,8.65626e-01,9.99999e-01,9.99999e-01,9.99992e-01,8.65632e-01,9.99999e-01
1.192415234e+00,8.55827e-01,9.99999e-01,9.99999e-01,9.85858e-01,8.68103e-01,9.99999e-01
1.198377311e+00,4.87368e-01,9.99999e-01,9.99999e-01,5.59851e-01,8.70532e-01,9.99999e-01
1.204369197e+00,9.04832e-12,9.99999e-01,9.99999e-01,1.03656e-11,8.72919e-01,9.99999e-01
1.210391043e+00,3.77140e-43,9.99999e-01,9.99999e-01,4.30886e-43,8.75266e-01,9.99999e-01
1.216442998e+00,1.54102e-37,9.99999e-01,9.99999e-01,1.75601e-37,8.77572e-01,9.99999e-01
1.222525213e+00,5.36146e-37,9.99999e-01,9.99999e-01,6.09368e-37,8.79839e-01,9.99999e-01
1.228637839e+00,1.16838e-28,9.99999e-01,9.99999e-01,1.32460e-28,8.82066e-01,9.99999e-01
