#,Wave/freq,Total,N2,O2,CO2,Rayleigh,CIA
4.000000000e-01,1.37596e-09,9.99999e-01,9.99999e-01,9.99999e-01,1.37596e-09,9.99999e-01
4.020000000e-01,2.05975e-09,9.99999e-01,9.99999e-01,9.99999e-01,2.05975e-09,9.99999e-01
4.040100000e-01,3.05766e-09,9.99999e-01,9.99999e-01,9.99999e-01,3.05766e-09,9.99999e-01
4.060300500e-01,4.50374e-09,9.99999e-01,9.99999e-01,9.99999e-01,4.50374e-09,9.99999e-01
4.080602003e-01,6.58318e-09,9.99999e-01,9.99999e-01,9.99999e-01,6.58318e-09,9.99999e-01
4.101005013e-01,9.55085e-09,9.99999e-01,9.99999e-01,9.99999e-01,9.55085e-09,9.99999e-01
4.121510038e-01,1.37549e-08,9.99999e-01,9.99999e-01,9.99999e-01,1.37549e-08,9.99999e-01
4.142117588e-01,1.96671e-08,9.99999e-01,9.99999e-01,9.99999e-01,1.96671e-08,9.99999e-01
4.162828176e-01,2.79228e-08,9.99999e-01,9.99999e-01,9.99999e-01,2.79228e-08,9.99999e-01
4.183642317e-01,3.93704e-08,9.99999e-01,9.99999e-01,9.99999e-01,3.93704e-08,9.99999e-01
4.204560528e-01,5.51358e-08,9.99999e-01,9.99999e-01,9.99999e-01,5.51358e-08,9.99999e-01
4.225583331e-01,7.67023e-08,9.99999e-01,9.99999e-01,9.99999e-01,7.67023e-08,9.99999e-01
4.246711247e-01,1.06011e-07,9.99999e-01,9.99999e-01,9.99999e-01,1.06011e-07,9.99999e-01
4.267944804e-01,1.45585e-07,9.99999e-01,9.99999e-01,9.99999e-01,1.45585e-07,9.99999e-01
4.289284528e-01,1.98684e-07,9.99999e-01,9.99999e-01,9.99999e-01,1.98684e-07,9.99999e-01
4.310730950e-01,2.69489e-07,9.99999e-01,9.99999e-01,9.99999e-01,2.69489e-07,9.99999e-01
4.332284605e-01,3.63332e-07,9.99999e-01,9.99999e-01,9.99999e-01,3.63332e-07,9.99999e-01
4.353946028e-01,4.86972e-07,9.99999e-01,9.99999e-01,9.99999e-01,4.86972e-07,9.99999e-01
4.375715758e-01,6.48920e-07,9.99999e-01,9.99999e-01,9.99999e-01,6.48920e-07,9.99999e-01
4.397594337e-01,8.59836e-07,9.99999e-01,9.99999e-01,9.99999e-01,8.59836e-07,9.99999e-01
4.419582309e-01,1.13299e-06,9.99999e-01,9.99999e-01,9.99999e-01,1.13299e-06,9.99999e-01
4.441680220e-01,1.48481e-06,9.99999e-01,9.99999e-01,9.99999e-01,1.48481e-06,9.99999e-01
4.463888621e-01,1.93550e-06,9.99999e-01,9.99999e-01,9.99999e-01,1.93550e-06,9.99999e-01
4.486208064e-01,2.50983e-06,9.99999e-01,9.99999e-01,9.99999e-01,2.50983e-06,9.99999e-01
4.508639105e-01,3.23791e-06,9.99999e-01,9.99999e-01,9.99999e-01,3.23791e-06,9.99999e-01
4.531182300e-01,4.15624e-06,9.99999e-01,9.99999e-01,9.99999e-01,4.15624e-06,9.99999e-01
4.553838212e-01,5.30878e-06,9.99999e-01,9.99999e-01,9.99999e-01,5.30878e-06,9.99999e-01
4.576607403e-01,6.74822e-06,9.99999e-01,9.99999e-01,9.99999e-01,6.74822e-06,9.99999e-01
4.599490440e-01,8.53739e-06,9.99999e-01,9.99999e-01,9.99999e-01,8.53739e-06,9.99999e-01
4.622487892e-01,1.07509e-05,9.99999e-01,9.99999e-01,9.99999e-01,1.07509e-05,9.99999e-01
4.645600332e-01,1.34768e-05,9.99999e-01,9.99999e-01,9.99999e-01,1.34768e-05,9.99999e-01
4.668828333e-01,1.68185e-05,9.99999e-01,9.99999e-01,9.99999e-01,1.68185e-05,9.99999e-01
4.692172475e-01,2.08973e-05,9.99999e-01,9.99999e-01,9.99999e-01,2.08973e-05,9.99999e-01
4.715633337e-01,2.58542e-05,9.99999e-01,9.99999e-01,9.99999e-01,2.58542e-05,9.99999e-01
4.739211504e-01,3.18526e-05,9.99999e-01,9.99999e-01,9.99999e-01,3.18526e-05,9.99999e-01
4.762907561e-01,3.90812e-05,9.99999e-01,9.99999e-01,9.99999e-01,3.90812e-05,9.99999e-01
4.786722099e-01,4.77571e-05,9.99999e-01,9.99999e-01,9.99999e-01,4.77571e-05,9.99999e-01
4.810655710e-01,5.81283e-05,9.99999e-01,9.99999e-01,9.99999e-01,5.81283e-05,9.99999e-01
4.834708988e-01,7.04777e-05,9.99999e-01,9.99999e-01,9.99999e-01,7.04777e-05,9.99999e-01
4.858882533e-01,8.51261e-05,9.99999e-01,9.99999e-01,9.99999e-01,8.51261e-05,9.99999e-01
4.883176946e-01,1.02436e-04,9.99999e-01,9.99999e-01,9.99999e-01,1.02436e-04,9.99999e-01
4.907592831e-01,1.22817e-04,9.99999e-01,9.99999e-01,9.99999e-01,1.22817e-04,9.99999e-01
4.932130795e-01,1.46725e-04,9.99999e-01,9.99999e-01,9.99999e-01,1.46725e-04,9.99999e-01
4.956791449e-01,1.74673e-04,9.99999e-01,9.99999e-01,9.99999e-01,1.74673e-04,9.99999e-01
4.981575406e-01,2.07229e-04,9.99999e-01,9.99999e-01,9.99999e-01,2.07229e-04,9.99999e-01
5.006483283e-01,2.45025e-04,9.99999e-01,9.99999e-01,9.99999e-01,2.45025e-04,9.99999e-01
5.031515699e-01,2.88757e-04,9.99999e-01,9.99999e-01,9.99999e-01,2.88757e-04,9.99999e-01
5.056673278e-01,3.39192e-04,9.99999e-01,9.99999e-01,9.99999e-01,3.39192e-04,9.99999e-01
5.081956644e-01,3.97171e-04,9.99999e-01,9.99999e-01,9.99999e-01,3.97171e-04,9.99999e-01
5.107366428e-01,4.63614e-04,9.99999e-01,9.99999e-01,9.99999e-01,4.63614e-04,9.99999e-01
5.132903260e-01,5.39520e-04,9.99999e-01,9.99999e-01,9.99999e-01,5.39520e-04,9.99999e-01
5.158567776e-01,6.25978e-04,9.99999e-01,9.99999e-01,9.99999e-01,6.25978e-04,9.99999e-01
5.184360615e-01,7.24160e-04,9.99999e-01,9.99999e-01,9.99999e-01,7.24160e-04,9.99999e-01
5.210282418e-01,8.35335e-04,9.99999e-01,9.99999e-01,9.99999e-01,8.35335e-04,9.99999e-01
5.236333830e-01,9.60863e-04,9.99999e-01,9.99999e-01,9.99999e-01,9.60863e-04,9.99999e-01
5.262515499e-01,1.10220e-03,9.99999e-01,9.99999e-01,9.99999e-01,1.10220e-03,9.99999e-01
5.288828077e-01,1.26091e-03,9.99999e-01,9.99999e-01,9.99999e-01,1.26091e-03,9.99999e-01
5.315272217e-01,1.43864e-03,9.99999e-01,9.99999e-01,9.99999e-01,1.43864e-03,9.99999e-01
5.341848578e-01,1.63716e-03,9.99999e-01,9.99999e-01,9.99999e-01,1.63716e-03,9.99999e-01
5.368557821e-01,1.85831e-03,9.99999e-01,9.99999e-01,9.99999e-01,1.85831e-03,9.99999e-01
5.395400610e-01,2.10407e-03,9.99999e-01,9.99999e-01,9.99999e-01,2.10407e-03,9.99999e-01
5.422377613e-01,2.37649e-03,9.99999e-01,9.99999e-01,9.99999e-01,2.37649e-03,9.99999e-01
5.449489501e-01,2.67774e-03,9.99999e-01,9.99999e-01,9.99999e-01,2.67774e-03,9.99999e-01
5.476736949e-01,3.01007e-03,9.99999e-01,9.99999e-01,9.99999e-01,3.01007e-03,9.99999e-01
5.504120634e-01,3.37583e-03,9.99999e-01,9.99999e-01,9.99999e-01,3.37583e-03,9.99999e-01
5.531641237e-01,3.77747e-03,9.99999e-01,9.99999e-01,9.99999e-01,3.77747e-03,9.99999e-01
5.559299443e-01,4.21752e-03,9.99999e-01,9.99999e-01,9.99999e-01,4.21752e-03,9.99999e-01
5.587095940e-01,4.69860e-03,9.99999e-01,9.99999e-01,9.99999e-01,4.69860e-03,9.99999e-01
5.615031420e-01,5.22340e-03,9.99999e-01,9.99999e-01,9.99999e-01,5.22340e-03,9.99999e-01
5.643106577e-01,5.79467e-03,9.99999e-01,9.99999e-01,9.99999e-01,5.79467e-03,9.99999e-01
5.671322110e-01,6.41527e-03,9.99999e-01,9.99999e-01,9.99999e-01,6.41527e-03,9.99999e-01
5.699678720e-01,7.08807e-03,9.99999e-01,9.99999e-01,9.99999e-01,7.08807e-03,9.99999e-01
5.728177114e-01,7.81601e-03,9.99999e-01,9.99999e-01,9.99999e-01,7.81601e-03,9.99999e-01
5.756818000e-01,8.60209e-03,9.99999e-01,9.99999e-01,9.99999e-01,8.60209e-03,9.99999e-01
5.785602090e-01,9.44932e-03,9.99999e-01,9.99999e-01,9.99999e-01,9.44932e-03,9.99999e-01
5.814530100e-01,1.03608e-02,9.99999e-01,9.99999e-01,9.99999e-01,1.03608e-02,9.99999e-01
5.843602750e-01,1.13395e-02,9.99999e-01,9.99999e-01,9.99999e-01,1.13395e-02,9.99999e-01
5.872820764e-01,1.23885e-02,9.99999e-01,9.99999e-01,9.99999e-01,1.23885e-02,9.99999e-01
5.902184868e-01,1.35110e-02,9.99999e-01,9.99999e-01,9.99999e-01,1.35110e-02,9.99999e-01
5.931695792e-01,1.47099e-02,9.99999e-01,9.99999e-01,9.99999e-01,1.47099e-02,9.99999e-01
5.961354271e-01,1.59884e-02,9.99999e-01,9.99999e-01,9.99999e-01,1.59884e-02,9.99999e-01
5.991161043e-01,1.73494e-02,9.99999e-01,9.99999e-01,9.99999e-01,1.73494e-02,9.99999e-01
6.021116848e-01,1.87959e-02,9.99999e-01,9.99999e-01,9.99999e-01,1.87959e-02,9.99999e-01
6.051222432e-01,2.03308e-02,9.99999e-01,9.99999e-01,9.99999e-01,2.03308e-02,9.99999e-01
6.081478544e-01,2.19569e-02,9.99999e-01,9.99999e-01,9.99999e-01,2.19569e-02,9.99999e-01
6.111885937e-01,2.36772e-02,9.99999e-01,9.99999e-01,9.99999e-01,2.36772e-02,9.99999e-01
6.142445367e-01,2.54942e-02,9.99999e-01,9.99999e-01,9.99999e-01,2.54942e-02,9.99999e-01
6.173157594e-01,2.74105e-02,9.99999e-01,9.99999e-01,9.99999e-01,2.74105e-02,9.99999e-01
6.204023382e-01,2.94288e-02,9.99999e-01,9.99999e-01,9.99999e-01,2.94288e-02,9.99999e-01
6.235043498e-01,3.15514e-02,9.99999e-01,9.99999e-01,9.99999e-01,3.15514e-02,9.99999e-01
6.266218716e-01,3.37805e-02,9.99999e-01,9.99999e-01,9.99999e-01,3.37805e-02,9.99999e-01
6.297549810e-01,3.61184e-02,9.99999e-01,9.99999e-01,9.99999e-01,3.61184e-02,9.99999e-01
6.329037559e-01,3.85671e-02,9.99999e-01,9.99999e-01,9.99999e-01,3.85671e-02,9.99999e-01
6.360682746e-01,4.11285e-02,9.99999e-01,9.99999e-01,9.99999e-01,4.11285e-02,9.99999e-01
6.392486160e-01,4.38043e-02,9.99999e-01,9.99999e-01,9.99999e-01,4.38043e-02,9.99999e-01
6.424448591e-01,4.65962e-02,9.99999e-01,9.99999e-01,9.99999e-01,4.65962e-02,9.99999e-01
6.456570834e-01,4.95055e-02,9.99999e-01,9.99999e-01,9.99999e-01,4.95055e-02,9.99999e-01
6.488853688e-01,5.25336e-02,9.99999e-01,9.99999e-01,9.99999e-01,5.25336e-02,9.99999e-01
6.521297956e-01,5.56816e-02,9.99999e-01,9.99999e-01,9.99999e-01,5.56816e-02,9.99999e-01
6.553904446e-01,5.89505e-02,9.99999e-01,9.99999e-01,9.99999e-01,5.89505e-02,9.99999e-01
6.586673968e-01,6.23409e-02,9.99999e-01,9.99999e-01,9.99999e-01,6.23409e-02,9.99999e-01
6.619607338e-01,6.58536e-02,9.99999e-01,9.99999e-01,9.99999e-01,6.58536e-02,9.99999e-01
6.652705375e-01,6.94889e-02,9.99999e-01,9.99999e-01,9.99999e-01,6.94889e-02,9.99999e-01
6.685968902e-01,7.32471e-02,9.99999e-01,9.99999e-01,9.99999e-01,7.32471e-02,9.99999e-01
6.719398746e-01,7.71283e-02,9.99999e-01,9.99999e-01,9.99999e-01,7.71283e-02,9.99999e-01
6.752995740e-01,8.11323e-02,9.99999e-01,9.99999e-01,9.99999e-01,8.11323e-02,9.99999e-01
6.786760719e-01,8.52590e-02,9.99999e-01,9.99999e-01,9.99999e-01,8.52590e-02,9.99999e-01
6.820694522e-01,8.95077e-02,9.99999e-01,9.99999e-01,9.99999e-01,8.95077e-02,9.99999e-01
6.854797995e-01,9.38780e-02,9.99999e-01,9.99999e-01,9.99999e-01,9.38780e-02,9.99999e-01
6.889071985e-01,9.83690e-02,9.99999e-01,9.99999e-01,9.99999e-01,9.83690e-02,9.99999e-01
6.923517345e-01,1.02980e-01,9.99999e-01,9.99999e-01,9.99999e-01,1.02980e-01,9.99999e-01
6.958134932e-01,1.07709e-01,9.99999e-01,9.99999e-01,9.99999e-01,1.07709e-01,9.99999e-01
6.992925606e-01,1.12556e-01,9.99999e-01,9.99999e-01,9.99999e-01,1.12556e-01,9.99999e-01
7.027890234e-01,1.17518e-01,9.99999e-01,9.99999e-01,9.99999e-01,1.17518e-01,9.99999e-01
7.063029686e-01,1.22595e-01,9.99999e-01,9.99999e-01,9.99999e-01,1.22595e-01,9.99999e-01
7.098344834e-01,1.27785e-01,9.99999e-01,9.99999e-01,9.99999e-01,1.27785e-01,9.99999e-01
7.133836558e-01,1.33085e-01,9.99999e-01,9.99999e-01,9.99999e-01,1.33085e-01,9.99999e-01
7.169505741e-01,1.38493e-01,9.99999e-01,9.99999e-01,9.99999e-01,1.38493e-01,9.99999e-01
7.205353270e-01,1.44008e-01,9.99999e-01,9.99999e-01,9.99999e-01,1.44008e-01,9.99999e-01
7.241380036e-01,1.49627e-01,9.99999e-01,9.99999e-01,9.99999e-01,1.49627e-01,9.99999e-01
7.277586936e-01,1.55348e-01,9.99999e-01,9.99999e-01,9.99999e-01,1.55348e-01,9.99999e-01
7.313974871e-01,1.61169e-01,9.99999e-01,9.99999e-01,9.99999e-01,1.61169e-01,9.99999e-01
7.350544745e-01,1.67085e-01,9.99999e-01,9.99999e-01,9.99999e-01,1.67085e-01,9.99999e-01
7.387297469e-01,1.73096e-01,9.99999e-01,9.99999e-01,9.99999e-01,1.73096e-01,9.99999e-01
7.424233956e-01,1.79198e-01,9.99999e-01,9.99999e-01,9.99999e-01,1.79198e-01,9.99999e-01
7.461355126e-01,1.85388e-01,9.99999e-01,9.99999e-01,9.99999e-01,1.85388e-01,9.99999e-01
7.498661902e-01,1.91663e-01,9.99999e-01,9.99999e-01,9.99999e-01,1.91663e-01,9.99999e-01
7.536155211e-01,1.98021e-01,9.99999e-01,9.99999e-01,9.99999e-01,1.98021e-01,9.99999e-01
7.573835987e-01,2.04457e-01,9.99999e-01,9.99999e-01,9.99999e-01,2.04457e-01,9.99999e-01
7.611705167e-01,2.10969e-01,9.99999e-01,9.99999e-01,9.99999e-01,2.10969e-01,9.99999e-01
7.649763693e-01,2.17554e-01,9.99999e-01,9.99999e-01,9.99999e-01,2.17554e-01,9.99999e-01
7.688012511e-01,2.24209e-01,9.99999e-01,9.99999e-01,9.99999e-01,2.24209e-01,9.99999e-01
7.726452574e-01,2.30929e-01,9.99999e-01,9.99999e-01,9.99999e-01,2.30929e-01,9.99999e-01
7.765084837e-01,2.37712e-01,9.99999e-01,9.99999e-01,9.99999e-01,2.37712e-01,9.99999e-01
7.803910261e-01,2.29401e-01,9.99999e-01,9.99999e-01,9.38036e-01,2.44555e-01,9.99999e-01
7.842929812e-01,1.89443e-01,9.99999e-01,9.99999e-01,7.53390e-01,2.51453e-01,9.99999e-01
7.882144461e-01,1.90776e-01,9.99999e-01,9.99999e-01,7.38285e-01,2.58404e-01,9.99999e-01
7.921555184e-01,2.21334e-01,9.99999e-01,9.99999e-01,8.33951e-01,2.65404e-01,9.99999e-01
7.961162960e-01,2.41351e-01,9.99999e-01,9.99999e-01,8.85852e-01,2.72450e-01,9.99999e-01
8.000968774e-01,2.61717e-01,9.99999e-01,9.99999e-01,9.36246e-01,2.79539e-01,9.99999e-01
8.040973618e-01,2.77082e-01,9.99999e-01,9.99999e-01,9.66566e-01,2.86666e-01,9.99999e-01
8.081178486e-01,2.89257e-01,9.99999e-01,9.99999e-01,9.84441e-01,2.93829e-01,9.99999e-01
8.121584379e-01,2.99586e-01,9.99999e-01,9.99999e-01,9.95222e-01,3.01024e-01,9.99999e-01
8.162192301e-01,3.07922e-01,9.99999e-01,9.99999e-01,9.98942e-01,3.08247e-01,9.99999e-01
8.203003262e-01,3.15492e-01,9.99999e-01,9.99999e-01,9.99985e-01,3.15497e-01,9.99999e-01
8.244018279e-01,3.22768e-01,9.99999e-01,9.99999e-01,9.99999e-01,3.22768e-01,9.99999e-01
8.285238370e-01,3.30059e-01,9.99999e-01,9.99999e-01,9.99999e-01,3.30059e-01,9.99999e-01
8.326664562e-01,3.37365e-01,9.99999e-01,9.99999e-01,9.99999e-01,3.37365e-01,9.99999e-01
8.368297885e-01,3.44685e-01,9.99999e-01,9.99999e-01,9.99999e-01,3.44685e-01,9.99999e-01
8.410139374e-01,3.52013e-01,9.99999e-01,9.99999e-01,9.99999e-01,3.52013e-01,9.99999e-01
8.452190071e-01,3.59348e-01,9.99999e-01,9.99999e-01,9.99999e-01,3.59348e-01,9.99999e-01
8.494451021e-01,3.66687e-01,9.99999e-01,9.99999e-01,9.99999e-01,3.66687e-01,9.99999e-01
8.536923276e-01,3.74026e-01,9.99999e-01,9.99999e-01,9.99999e-01,3.74026e-01,9.99999e-01
8.579607893e-01,3.81362e-01,9.99999e-01,9.99999e-01,9.99999e-01,3.81362e-01,9.99999e-01
8.622505932e-01,3.88693e-01,9.99999e-01,9.99999e-01,9.99999e-01,3.88693e-01,9.99999e-01
8.665618462e-01,3.52443e-01,9.99999e-01,9.99999e-01,8.89969e-01,3.96017e-01,9.99999e-01
8.708946554e-01,1.98089e-01,9.99999e-01,9.99999e-01,4.91135e-01,4.03329e-01,9.99999e-01
8.752491287e-01,2.29934e-01,9.99999e-01,9.99999e-01,5.59955e-01,4.10628e-01,9.99999e-01
8.796253743e-01,3.02720e-01,9.99999e-01,9.99999e-01,7.24364e-01,4.17911e-01,9.99999e-01
8.840235012e-01,3.59192e-01,9.99999e-01,9.99999e-01,8.44806e-01,4.25176e-01,9.99999e-01
8.884436187e-01,4.04653e-01,9.99999e-01,9.99999e-01,9.35786e-01,4.32420e-01,9.99999e-01
8.928858368e-01,4.27944e-01,9.99999e-01,9.99999e-01,9.73395e-01,4.39640e-01,9.99999e-01
8.973502660e-01,4.43935e-01,9.99999e-01,9.99999e-01,9.93510e-01,4.46835e-01,9.99999e-01
9.018370173e-01,4.53677e-01,9.99999e-01,9.99999e-01,9.99285e-01,4.54001e-01,9.99999e-01
9.063462024e-01,4.52499e-01,9.99999e-01,9.99999e-01,9.81264e-01,4.61138e-01,9.99999e-01
9.108779334e-01,4.48697e-01,9.99999e-01,9.99999e-01,9.58256e-01,4.68243e-01,9.99999e-01
9.154323231e-01,4.70634e-01,9.99999e-01,9.99999e-01,9.90154e-01,4.75314e-01,9.99999e-01
9.200094847e-01,4.19503e-01,9.99999e-01,9.99999e-01,8.69708e-01,4.82348e-01,9.99999e-01
9.246095321e-01,3.97293e-01,9.99999e-01,9.99999e-01,8.11886e-01,4.89345e-01,9.99999e-01
9.292325798e-01,4.21354e-01,9.99999e-01,9.99999e-01,8.48987e-01,4.96302e-01,9.99999e-01
9.338787427e-01,4.29889e-01,9.99999e-01,9.99999e-01,8.54280e-01,5.03218e-01,9.99999e-01
9.385481364e-01,4.54123e-01,9.99999e-01,9.99999e-01,8.90280e-01,5.10090e-01,9.99999e-01
9.432408771e-01,4.81429e-01,9.99999e-01,9.99999e-01,9.31345e-01,5.16918e-01,9.99999e-01
9.479570815e-01,5.04889e-01,9.99999e-01,9.99999e-01,9.64080e-01,5.23700e-01,9.99999e-01
9.526968669e-01,5.21186e-01,9.99999e-01,9.99999e-01,9.82565e-01,5.30434e-01,9.99999e-01
9.574603512e-01,5.33097e-01,9.99999e-01,9.99999e-01,9.92512e-01,5.37119e-01,9.99999e-01
9.622476530e-01,5.42482e-01,9.99999e-01,9.99999e-01,9.97661e-01,5.43753e-01,9.99999e-01
9.670588912e-01,5.49952e-01,9.99999e-01,9.99999e-01,9.99300e-01,5.50337e-01,9.99999e-01
9.718941857e-01,5.56840e-01,9.99999e-01,9.99999e-01,9.99951e-01,5.56867e-01,9.99999e-01
9.767536566e-01,5.63344e-01,9.99999e-01,9.99999e-01,9.99999e-01,5.63344e-01,9.99999e-01
9.816374249e-01,5.69766e-01,9.99999e-01,9.99999e-01,9.99999e-01,5.69766e-01,9.99999e-01
9.865456120e-01,5.76132e-01,9.99999e-01,9.99999e-01,9.99999e-01,5.76132e-01,9.99999e-01
9.914783401e-01,5.82442e-01,9.99999e-01,9.99999e-01,9.99999e-01,5.82442e-01,9.99999e-01
9.964357318e-01,5.88694e-01,9.99999e-01,9.99999e-01,9.99999e-01,5.88694e-01,9.99999e-01
1.001417910e+00,5.94887e-01,9.99999e-01,9.99999e-01,9.99999e-01,5.94887e-01,9.99999e-01
1.006425000e+00,6.01021e-01,9.99999e-01,9.99999e-01,9.99999e-01,6.01021e-01,9.99999e-01
1.011457125e+00,6.07096e-01,9.99999e-01,9.99999e-01,9.99999e-01,6.07096e-01,9.99999e-01
1.016514411e+00,6.13110e-01,9.99999e-01,9.99999e-01,9.99999e-01,6.13110e-01,9.99999e-01
1.021596983e+00,6.18993e-01,9.99999e-01,9.99999e-01,9.99884e-01,6.19064e-01,9.99999e-01
1.026704968e+00,6.20319e-01,9.99999e-01,9.99999e-01,9.92580e-01,6.24955e-01,9.99999e-01
1.031838492e+00,5.84467e-01,9.99999e-01,9.99999e-01,9.26570e-01,6.30785e-01,9.99999e-01
1.036997685e+00,5.17039e-02,9.99999e-01,9.99999e-01,8.12248e-02,6.36553e-01,9.99999e-01
1.042182673e+00,1.42667e-02,9.99999e-01,9.99999e-01,2.22134e-02,6.42257e-01,9.99999e-01
1.047393587e+00,2.52354e-02,9.99999e-01,9.99999e-01,3.89495e-02,6.47899e-01,9.99999e-01
1.052630555e+00,5.31454e-05,9.99999e-01,9.99999e-01,8.13271e-05,6.53477e-01,9.99999e-01
1.057893707e+00,1.87621e-04,9.99999e-01,9.99999e-01,2.84710e-04,6.58992e-01,9.99999e-01
1.063183176e+00,1.51240e-03,9.99999e-01,9.99999e-01,2.27618e-03,6.64443e-01,9.99999e-01
1.068499092e+00,7.97307e-03,9.99999e-01,9.99999e-01,1.19031e-02,6.69830e-01,9.99999e-01
1.073841587e+00,4.03698e-02,9.99999e-01,9.99999e-01,5.97936e-02,6.75153e-01,9.99999e-01
1.079210795e+00,1.14705e-01,9.99999e-01,9.99999e-01,1.68581e-01,6.80412e-01,9.99999e-01
1.084606849e+00,2.53986e-01,9.99999e-01,9.99999e-01,3.70454e-01,6.85607e-01,9.99999e-01
1.090029883e+00,4.11308e-01,9.99999e-01,9.99999e-01,5.95461e-01,6.90737e-01,9.99999e-01
1.095480033e+00,5.38919e-01,9.99999e-01,9.99999e-01,7.74527e-01,6.95804e-01,9.99999e-01
1.100957433e+00,6.19418e-01,9.99999e-01,9.99999e-01,8.83864e-01,7.00807e-01,9.99999e-01
1.106462220e+00,6.70655e-01,9.99999e-01,9.99999e-01,9.50278e-01,7.05745e-01,9.99999e-01
1.111994531e+00,6.97306e-01,9.99999e-01,9.99999e-01,9.81263e-01,7.10620e-01,9.99999e-01
1.117554504e+00,7.12155e-01,9.99999e-01,9.99999e-01,9.95419e-01,7.15432e-01,9.99999e-01
1.123142276e+00,7.19964e-01,9.99999e-01,9.99999e-01,9.99700e-01,7.20179e-01,9.99999e-01
1.128757988e+00,7.24864e-01,9.99999e-01,9.99999e-01,9.99999e-01,7.24864e-01,9.99999e-01
1.134401778e+00,7.29486e-01,9.99999e-01,9.99999e-01,9.99999e-01,7.29486e-01,9.99999e-01
1.140073787e+00,7.34045e-01,9.99999e-01,9.99999e-01,9.99999e-01,7.34045e-01,9.99999e-01
1.145774156e+00,7.38542e-01,9.99999e-01,9.99999e-01,9.99999e-01,7.38542e-01,9.99999e-01
1.151503026e+00,7.42976e-01,9.99999e-01,9.99999e-01,9.99999e-01,7.42976e-01,9.99999e-01
1.157260541e+00,7.47349e-01,9.99999e-01,9.99999e-01,9.99999e-01,7.47349e-01,9.99999e-01
1.163046844e+00,7.51660e-01,9.99999e-01,9.99999e-01,9.99999e-01,7.51660e-01,9.99999e-01
1.168862078e+00,7.55911e-01,9.99999e-01,9.99999e-01,9.99999e-01,7.55911e-01,9.99999e-01
1.174706389e+00,7.60100e-01,9.99999e-01,9.99999e-01,9.99999e-01,7.60100e-01,9.99999e-01
1.180579921e+00,7.64230e-01,9.99999e-01,9.99999e-01,9.99999e-01,7.64230e-01,9.99999e-01
1.186482820e+00,7.68286e-01,9.99999e-01,9.99999e-01,9.99982e-01,7.68300e-01,9.99999e-01
1.192415234e+00,7.52250e-01,9.99999e-01,9.99999e-01,9.74025e-01,7.72310e-01,9.99999e-01
1.198377311e+00,4.18484e-01,9.99999e-01,9.99999e-01,5.39101e-01,7.76262e-01,9.99999e-01
1.204369197e+00,1.21437e-19,9.99999e-01,9.99999e-01,1.55657e-19,7.80155e-01,9.99999e-01
1.210391043e+00,5.69522e-77,9.99999e-01,9.99999e-01,7.26440e-77,7.83990e-01,9.99999e-01
1.216442998e+00,1.01648e-66,9.99999e-01,9.99999e-01,1.29032e-66,7.87767e-01,9.99999e-01
1.222525213e+00,9.90524e-66,9.99999e-01,9.99999e-01,1.25147e-65,7.91488e-01,9.99999e-01
1.228637839e+00,7.78260e-51,9.99999e-01,9.99999e-01,9.78755e-51,7.95152e-01,9.99999e-01
