#,Wave/freq,Total,N2,O2,CO2,Rayleigh,CIA
4.000000000e-01,1.45642e-03,9.99999e-01,9.99999e-01,9.99999e-01,1.45642e-03,9.99999e-01
4.020000000e-01,1.65720e-03,9.99999e-01,9.99999e-01,9.99999e-01,1.65720e-03,9.99999e-01
4.040100000e-01,1.88061e-03,9.99999e-01,9.99999e-01,9.99999e-01,1.88061e-03,9.99999e-01
4.060300500e-01,2.12881e-03,9.99999e-01,9.99999e-01,9.99999e-01,2.12881e-03,9.99999e-01
4.080602003e-01,2.40389e-03,9.99999e-01,9.99999e-01,9.99999e-01,2.40389e-03,9.99999e-01
4.101005013e-01,2.70799e-03,9.99999e-01,9.99999e-01,9.99999e-01,2.70799e-03,9.99999e-01
4.121510038e-01,3.04340e-03,9.99999e-01,9.99999e-01,9.99999e-01,3.04340e-03,9.99999e-01
4.142117588e-01,3.41247e-03,9.99999e-01,9.99999e-01,9.99999e-01,3.41247e-03,9.99999e-01
4.162828176e-01,3.81765e-03,9.99999e-01,9.99999e-01,9.99999e-01,3.81765e-03,9.99999e-01
4.183642317e-01,4.26150e-03,9.99999e-01,9.99999e-01,9.99999e-01,4.26150e-03,9.99999e-01
4.204560528e-01,4.74662e-03,9.99999e-01,9.99999e-01,9.99999e-01,4.74662e-03,9.99999e-01
4.225583331e-01,5.27572e-03,9.99999e-01,9.99999e-01,9.99999e-01,5.27572e-03,9.99999e-01
4.246711247e-01,5.85156e-03,9.99999e-01,9.99999e-01,9.99999e-01,5.85156e-03,9.99999e-01
4.267944804e-01,6.47700e-03,9.99999e-01,9.99999e-01,9.99999e-01,6.47700e-03,9.99999e-01
4.289284528e-01,7.15492e-03,9.99999e-01,9.99999e-01,9.99999e-01,7.15492e-03,9.99999e-01
4.310730950e-01,7.88826e-03,9.99999e-01,9.99999e-01,9.99999e-01,7.88826e-03,9.99999e-01
4.332284605e-01,8.68003e-03,9.99999e-01,9.99999e-01,9.99999e-01,8.68003e-03,9.99999e-01
4.353946028e-01,9.53324e-03,9.99999e-01,9.99999e-01,9.99999e-01,9.53324e-03,9.99999e-01
4.375715758e-01,1.04509e-02,9.99999e-01,9.99999e-01,9.99999e-01,1.04509e-02,9.99999e-01
4.397594337e-01,1.14362e-02,9.99999e-01,9.99999e-01,9.99999e-01,1.14362e-02,9.99999e-01
4.419582309e-01,1.24921e-02,9.99999e-01,9.99999e-01,9.99999e-01,1.24921e-02,9.99999e-01
4.441680220e-01,1.36217e-02,9.99999e-01,9.99999e-01,9.99999e-01,1.36217e-02,9.99999e-01
4.463888621e-01,1.48281e-02,9.99999e-01,9.99999e-01,9.99999e-01,1.48281e-02,9.99999e-01
4.486208064e-01,1.61143e-02,9.99999e-01,9.99999e-01,9.99999e-01,1.61143e-02,9.99999e-01
4.508639105e-01,1.74833e-02,9.99999e-01,9.99999e-01,9.99999e-01,1.74833e-02,9.99999e-01
4.531182300e-01,1.89381e-02,9.99999e-01,9.99999e-01,9.99999e-01,1.89381e-02,9.99999e-01
4.553838212e-01,2.04815e-02,9.99999e-01,9.99999e-01,9.99999e-01,2.04815e-02,9.99999e-01
4.576607403e-01,2.21165e-02,9.99999e-01,9.99999e-01,9.99999e-01,2.21165e-02,9.99999e-01
4.599490440e-01,2.38459e-02,9.99999e-01,9.99999e-01,9.99999e-01,2.38459e-02,9.99999e-01
4.622487892e-01,2.56722e-02,9.99999e-01,9.99999e-01,9.99999e-01,2.56722e-02,9.99999e-01
4.645600332e-01,2.75982e-02,9.99999e-01,9.99999e-01,9.99999e-01,2.75982e-02,9.99999e-01
4.668828333e-01,2.96263e-02,9.99999e-01,9.99999e-01,9.99999e-01,2.96263e-02,9.99999e-01
4.692172475e-01,3.17589e-02,9.99999e-01,9.99999e-01,9.99999e-01,3.17589e-02,9.99999e-01
4.715633337e-01,3.39983e-02,9.99999e-01,9.99999e-01,9.99999e-01,3.39983e-02,9.99999e-01
4.739211504e-01,3.63466e-02,9.99999e-01,9.99999e-01,9.99999e-01,3.63466e-02,9.99999e-01
4.762907561e-01,3.88060e-02,9.99999e-01,9.99999e-01,9.99999e-01,3.88060e-02,9.99999e-01
4.786722099e-01,4.13782e-02,9.99999e-01,9.99999e-01,9.99999e-01,4.13782e-02,9.99999e-01
4.810655710e-01,4.40650e-02,9.99999e-01,9.99999e-01,9.99999e-01,4.40650e-02,9.99999e-01
4.834708988e-01,4.68680e-02,9.99999e-01,9.99999e-01,9.99999e-01,4.68680e-02,9.99999e-01
4.858882533e-01,4.97886e-02,9.99999e-01,9.99999e-01,9.99999e-01,4.97886e-02,9.99999e-01
4.883176946e-01,5.28280e-02,9.99999e-01,9.99999e-01,9.99999e-01,5.28280e-02,9.99999e-01
4.907592831e-01,5.59875e-02,9.99999e-01,9.99999e-01,9.99999e-01,5.59875e-02,9.99999e-01
4.932130795e-01,5.92679e-02,9.99999e-01,9.99999e-01,9.99999e-01,5.92679e-02,9.99999e-01
4.956791449e-01,6.26699e-02,9.99999e-01,9.99999e-01,9.99999e-01,6.26699e-02,9.99999e-01
4.981575406e-01,6.61943e-02,9.99999e-01,9.99999e-01,9.99999e-01,6.61943e-02,9.99999e-01
5.006483283e-01,6.98412e-02,9.99999e-01,9.99999e-01,9.99999e-01,6.98412e-02,9.99999e-01
5.031515699e-01,7.36112e-02,9.99999e-01,9.99999e-01,9.99999e-01,7.36112e-02,9.99999e-01
5.056673278e-01,7.75040e-02,9.99999e-01,9.99999e-01,9.99999e-01,7.75040e-02,9.99999e-01
5.081956644e-01,8.15198e-02,9.99999e-01,9.99999e-01,9.99999e-01,8.15198e-02,9.99999e-01
5.107366428e-01,8.56580e-02,9.99999e-01,9.99999e-01,9.99999e-01,8.56580e-02,9.99999e-01
5.132903260e-01,8.99184e-02,9.99999e-01,9.99999e-01,9.99999e-01,8.99184e-02,9.99999e-01
5.158567776e-01,9.43002e-02,9.99999e-01,9.99999e-01,9.99999e-01,9.43002e-02,9.99999e-01
5.184360615e-01,9.88026e-02,9.99999e-01,9.99999e-01,9.99999e-01,9.88026e-02,9.99999e-01
5.210282418e-01,1.03425e-01,9.99999e-01,9.99999e-01,9.99999e-01,1.03425e-01,9.99999e-01
5.236333830e-01,1.08165e-01,9.99999e-01,9.99999e-01,9.99999e-01,1.08165e-01,9.99999e-01
5.262515499e-01,1.13023e-01,9.99999e-01,9.99999e-01,9.99999e-01,1.13023e-01,9.99999e-01
5.288828077e-01,1.17997e-01,9.99999e-01,9.99999e-01,9.99999e-01,1.17997e-01,9.99999e-01
5.315272217e-01,1.23084e-01,9.99999e-01,9.99999e-01,9.99999e-01,1.23084e-01,9.99999e-01
5.341848578e-01,1.28284e-01,9.99999e-01,9.99999e-01,9.99999e-01,1.28284e-01,9.99999e-01
5.368557821e-01,1.33595e-01,9.99999e-01,9.99999e-01,9.99999e-01,1.33595e-01,9.99999e-01
5.395400610e-01,1.39013e-01,9.99999e-01,9.99999e-01,9.99999e-01,1.39013e-01,9.99999e-01
5.422377613e-01,1.44538e-01,9.99999e-01,9.99999e-01,9.99999e-01,1.44538e-01,9.99999e-01
5.449489501e-01,1.50167e-01,9.99999e-01,9.99999e-01,9.99999e-01,1.50167e-01,9.99999e-01
5.476736949e-01,1.55898e-01,9.99999e-01,9.99999e-01,9.99999e-01,1.55898e-01,9.99999e-01
5.504120634e-01,1.61727e-01,9.99999e-01,9.99999e-01,9.99999e-01,1.61727e-01,9.99999e-01
5.531641237e-01,1.67653e-01,9.99999e-01,9.99999e-01,9.99999e-01,1.67653e-01,9.99999e-01
5.559299443e-01,1.73673e-01,9.99999e-01,9.99999e-01,9.99999e-01,1.73673e-01,9.99999e-01
5.587095940e-01,1.79783e-01,9.99999e-01,9.99999e-01,9.99999e-01,1.79783e-01,9.99999e-01
5.615031420e-01,1.85982e-01,9.99999e-01,9.99999e-01,9.99999e-01,1.85982e-01,9.99999e-01
5.643106577e-01,1.92265e-01,9.99999e-01,9.99999e-01,9.99999e-01,1.92265e-01,9.99999e-01
5.671322110e-01,1.98630e-01,9.99999e-01,9.99999e-01,9.99999e-01,1.98630e-01,9.99999e-01
5.699678720e-01,2.05074e-01,9.99999e-01,9.99999e-01,9.99999e-01,2.05074e-01,9.99999e-01
5.728177114e-01,2.11593e-01,9.99999e-01,9.99999e-01,9.99999e-01,2.11593e-01,9.99999e-01
5.756818000e-01,2.18185e-01,9.99999e-01,9.99999e-01,9.99999e-01,2.18185e-01,9.99999e-01
5.785602090e-01,2.24845e-01,9.99999e-01,9.99999e-01,9.99999e-01,2.24845e-01,9.99999e-01
5.814530100e-01,2.31572e-01,9.99999e-01,9.99999e-01,9.99999e-01,2.31572e-01,9.99999e-01
5.843602750e-01,2.38361e-01,9.99999e-01,9.99999e-01,9.99999e-01,2.38361e-01,9.99999e-01
5.872820764e-01,2.45209e-01,9.99999e-01,9.99999e-01,9.99999e-01,2.45209e-01,9.99999e-01
5.902184868e-01,2.52112e-01,9.99999e-01,9.99999e-01,9.99999e-01,2.52112e-01,9.99999e-01
5.931695792e-01,2.59068e-01,9.99999e-01,9.99999e-01,9.99999e-01,2.59068e-01,9.99999e-01
5.961354271e-01,2.66073e-01,9.99999e-01,9.99999e-01,9.99999e-01,2.66073e-01,9.99999e-01
5.991161043e-01,2.73123e-01,9.99999e-01,9.99999e-01,9.99999e-01,2.73123e-01,9.99999e-01
6.021116848e-01,2.80215e-01,9.99999e-01,9.99999e-01,9.99999e-01,2.80215e-01,9.99999e-01
6.051222432e-01,2.87346e-01,9.99999e-01,9.99999e-01,9.99999e-01,2.87346e-01,9.99999e-01
6.081478544e-01,2.94512e-01,9.99999e-01,9.99999e-01,9.99999e-01,2.94512e-01,9.99999e-01
6.111885937e-01,3.01710e-01,9.99999e-01,9.99999e-01,9.99999e-01,3.01710e-01,9.99999e-01
6.142445367e-01,3.08936e-01,9.99999e-01,9.99999e-01,9.99999e-01,3.08936e-01,9.99999e-01
6.173157594e-01,3.16188e-01,9.99999e-01,9.99999e-01,9.99999e-01,3.16188e-01,9.99999e-01
6.204023382e-01,3.23461e-01,9.99999e-01,9.99999e-01,9.99999e-01,3.23461e-01,9.99999e-01
6.235043498e-01,3.30754e-01,9.99999e-01,9.99999e-01,9.99999e-01,3.30754e-01,9.99999e-01
6.266218716e-01,3.38061e-01,9.99999e-01,9.99999e-01,9.99999e-01,3.38061e-01,9.99999e-01
6.297549810e-01,3.45382e-01,9.99999e-01,9.99999e-01,9.99999e-01,3.45382e-01,9.99999e-01
6.329037559e-01,3.52711e-01,9.99999e-01,9.99999e-01,9.99999e-01,3.52711e-01,9.99999e-01
6.360682746e-01,3.60046e-01,9.99999e-01,9.99999e-01,9.99999e-01,3.60046e-01,9.99999e-01
6.392486160e-01,3.67385e-01,9.99999e-01,9.99999e-01,9.99999e-01,3.67385e-01,9.99999e-01
6.424448591e-01,3.74724e-01,9.99999e-01,9.99999e-01,9.99999e-01,3.74724e-01,9.99999e-01
6.456570834e-01,3.82060e-01,9.99999e-01,9.99999e-01,9.99999e-01,3.82060e-01,9.99999e-01
6.488853688e-01,3.89391e-01,9.99999e-01,9.99999e-01,9.99999e-01,3.89391e-01,9.99999e-01
6.521297956e-01,3.96713e-01,9.99999e-01,9.99999e-01,9.99999e-01,3.96713e-01,9.99999e-01
6.553904446e-01,4.04024e-01,9.99999e-01,9.99999e-01,9.99999e-01,4.04024e-01,9.99999e-01
6.586673968e-01,4.11322e-01,9.99999e-01,9.99999e-01,9.99999e-01,4.11322e-01,9.99999e-01
6.619607338e-01,4.18603e-01,9.99999e-01,9.99999e-01,9.99999e-01,4.18603e-01,9.99999e-01
6.652705375e-01,4.25866e-01,9.99999e-01,9.99999e-01,9.99999e-01,4.25866e-01,9.99999e-01
6.685968902e-01,4.33108e-01,9.99999e-01,9.99999e-01,9.99999e-01,4.33108e-01,9.99999e-01
6.719398746e-01,4.40326e-01,9.99999e-01,9.99999e-01,9.99999e-01,4.40326e-01,9.99999e-01
6.752995740e-01,4.47518e-01,9.99999e-01,9.99999e-01,9.99999e-01,4.47518e-01,9.99999e-01
6.786760719e-01,4.54682e-01,9.99999e-01,9.99999e-01,9.99999e-01,4.54682e-01,9.99999e-01
6.820694522e-01,4.61816e-01,9.99999e-01,9.99999e-01,9.99999e-01,4.61816e-01,9.99999e-01
6.854797995e-01,4.68917e-01,9.99999e-01,9.99999e-01,9.99999e-01,4.68917e-01,9.99999e-01
6.889071985e-01,4.75985e-01,9.99999e-01,9.99999e-01,9.99999e-01,4.75985e-01,9.99999e-01
6.923517345e-01,4.83016e-01,9.99999e-01,9.99999e-01,9.99999e-01,4.83016e-01,9.99999e-01
6.958134932e-01,4.90009e-01,9.99999e-01,9.99999e-01,9.99999e-01,4.90009e-01,9.99999e-01
6.992925606e-01,4.96962e-01,9.99999e-01,9.99999e-01,9.99999e-01,4.96962e-01,9.99999e-01
7.027890234e-01,5.03874e-01,9.99999e-01,9.99999e-01,9.99999e-01,5.03874e-01,9.99999e-01
7.063029686e-01,5.10742e-01,9.99999e-01,9.99999e-01,9.99999e-01,5.10742e-01,9.99999e-01
7.098344834e-01,5.17565e-01,9.99999e-01,9.99999e-01,9.99999e-01,5.17565e-01,9.99999e-01
7.133836558e-01,5.24342e-01,9.99999e-01,9.99999e-01,9.99999e-01,5.24342e-01,9.99999e-01
7.169505741e-01,5.31072e-01,9.99999e-01,9.99999e-01,9.99999e-01,5.31072e-01,9.99999e-01
7.205353270e-01,5.37752e-01,9.99999e-01,9.99999e-01,9.99999e-01,5.37752e-01,9.99999e-01
7.241380036e-01,5.44382e-01,9.99999e-01,9.99999e-01,9.99999e-01,5.44382e-01,9.99999e-01
7.277586936e-01,5.50960e-01,9.99999e-01,9.99999e-01,9.99999e-01,5.50960e-01,9.99999e-01
7.313974871e-01,5.57486e-01,9.99999e-01,9.99999e-01,9.99999e-01,5.57486e-01,9.99999e-01
7.350544745e-01,5.63958e-01,9.99999e-01,9.99999e-01,9.99999e-01,5.63958e-01,9.99999e-01
7.387297469e-01,5.70374e-01,9.99999e-01,9.99999e-01,9.99999e-01,5.70374e-01,9.99999e-01
7.424233956e-01,5.76735e-01,9.99999e-01,9.99999e-01,9.99999e-01,5.76735e-01,9.99999e-01
7.461355126e-01,5.83039e-01,9.99999e-01,9.99999e-01,9.99999e-01,5.83039e-01,9.99999e-01
7.498661902e-01,5.89285e-01,9.99999e-01,9.99999e-01,9.99999e-01,5.89285e-01,9.99999e-01
7.536155211e-01,5.95473e-01,9.99999e-01,9.99999e-01,9.99999e-01,5.95473e-01,9.99999e-01
7.573835987e-01,6.01602e-01,9.99999e-01,9.99999e-01,9.99999e-01,6.01602e-01,9.99999e-01
7.611705167e-01,6.07671e-01,9.99999e-01,9.99999e-01,9.99999e-01,6.07671e-01,9.99999e-01
7.649763693e-01,6.13679e-01,9.99999e-01,9.99999e-01,9.99999e-01,6.13679e-01,9.99999e-01
7.688012511e-01,6.19627e-01,9.99999e-01,9.99999e-01,9.99999e-01,6.19627e-01,9.99999e-01
7.726452574e-01,6.25513e-01,9.99999e-01,9.99999e-01,9.99999e-01,6.25513e-01,9.99999e-01
7.765084837e-01,6.31337e-01,9.99999e-01,9.99999e-01,9.99999e-01,6.31337e-01,9.99999e-01
7.803910261e-01,6.22715e-01,9.99999e-01,9.99999e-01,9.77423e-01,6.37098e-01,9.99999e-01
7.842929812e-01,5.84930e-01,9.99999e-01,9.99999e-01,9.09976e-01,6.42797e-01,9.99999e-01
7.882144461e-01,5.85604e-01,9.99999e-01,9.99999e-01,9.03106e-01,6.48433e-01,9.99999e-01
7.921555184e-01,6.16670e-01,9.99999e-01,9.99999e-01,9.42913e-01,6.54005e-01,9.99999e-01
7.961162960e-01,6.34297e-01,9.99999e-01,9.99999e-01,9.61764e-01,6.59513e-01,9.99999e-01
8.000968774e-01,6.51035e-01,9.99999e-01,9.99999e-01,9.79061e-01,6.64958e-01,9.99999e-01
8.040973618e-01,6.63061e-01,9.99999e-01,9.99999e-01,9.89142e-01,6.70339e-01,9.99999e-01
8.081178486e-01,6.72268e-01,9.99999e-01,9.99999e-01,9.94985e-01,6.75656e-01,9.99999e-01
8.121584379e-01,6.79862e-01,9.99999e-01,9.99999e-01,9.98462e-01,6.80909e-01,9.99999e-01
8.162192301e-01,6.85865e-01,9.99999e-01,9.99999e-01,9.99659e-01,6.86098e-01,9.99999e-01
8.203003262e-01,6.91219e-01,9.99999e-01,9.99999e-01,9.99994e-01,6.91222e-01,9.99999e-01
8.244018279e-01,6.96283e-01,9.99999e-01,9.99999e-01,9.99999e-01,6.96283e-01,9.99999e-01
8.285238370e-01,7.01279e-01,9.99999e-01,9.99999e-01,9.99999e-01,7.01279e-01,9.99999e-01
8.326664562e-01,7.06212e-01,9.99999e-01,9.99999e-01,9.99999e-01,7.06212e-01,9.99999e-01
8.368297885e-01,7.11081e-01,9.99999e-01,9.99999e-01,9.99999e-01,7.11081e-01,9.99999e-01
8.410139374e-01,7.15886e-01,9.99999e-01,9.99999e-01,9.99999e-01,7.15886e-01,9.99999e-01
8.452190071e-01,7.20628e-01,9.99999e-01,9.99999e-01,9.99999e-01,7.20628e-01,9.99999e-01
8.494451021e-01,7.25307e-01,9.99999e-01,9.99999e-01,9.99999e-01,7.25307e-01,9.99999e-01
8.536923276e-01,7.29922e-01,9.99999e-01,9.99999e-01,9.99999e-01,7.29922e-01,9.99999e-01
8.579607893e-01,7.34475e-01,9.99999e-01,9.99999e-01,9.99999e-01,7.34475e-01,9.99999e-01
8.622505932e-01,7.38966e-01,9.99999e-01,9.99999e-01,9.99999e-01,7.38966e-01,9.99999e-01
8.665618462e-01,7.01486e-01,9.99999e-01,9.99999e-01,9.43624e-01,7.43395e-01,9.99999e-01
8.708946554e-01,5.86255e-01,9.99999e-01,9.99999e-01,7.84012e-01,7.47762e-01,9.99999e-01
8.752491287e-01,6.19722e-01,9.99999e-01,9.99999e-01,8.24024e-01,7.52067e-01,9.99999e-01
8.796253743e-01,6.80655e-01,9.99999e-01,9.99999e-01,8.99964e-01,7.56312e-01,9.99999e-01
8.840235012e-01,7.20196e-01,9.99999e-01,9.99999e-01,9.47007e-01,7.60496e-01,9.99999e-01
8.884436187e-01,7.48475e-01,9.99999e-01,9.99999e-01,9.78884e-01,7.64620e-01,9.99999e-01
8.928858368e-01,7.62060e-01,9.99999e-01,9.99999e-01,9.91381e-01,7.68684e-01,9.99999e-01
8.973502660e-01,7.71075e-01,9.99999e-01,9.99999e-01,9.97911e-01,7.72689e-01,9.99999e-01
9.018370173e-01,7.76456e-01,9.99999e-01,9.99999e-01,9.99769e-01,7.76635e-01,9.99999e-01
9.063462024e-01,7.75769e-01,9.99999e-01,9.99999e-01,9.93909e-01,7.80522e-01,9.99999e-01
9.108779334e-01,7.73682e-01,9.99999e-01,9.99999e-01,9.86395e-01,7.84352e-01,9.99999e-01
9.154323231e-01,7.85620e-01,9.99999e-01,9.99999e-01,9.96821e-01,7.88124e-01,9.99999e-01
9.200094847e-01,7.54203e-01,9.99999e-01,9.99999e-01,9.52469e-01,7.91839e-01,9.99999e-01
9.246095321e-01,7.43801e-01,9.99999e-01,9.99999e-01,9.35012e-01,7.95498e-01,9.99999e-01
9.292325798e-01,7.57582e-01,9.99999e-01,9.99999e-01,9.48041e-01,7.99101e-01,9.99999e-01
9.338787427e-01,7.62756e-01,9.99999e-01,9.99999e-01,9.50298e-01,8.02649e-01,9.99999e-01
9.385481364e-01,7.76539e-01,9.99999e-01,9.99999e-01,9.63277e-01,8.06142e-01,9.99999e-01
9.432408771e-01,7.91312e-01,9.99999e-01,9.99999e-01,9.77433e-01,8.09581e-01,9.99999e-01
9.479570815e-01,8.03488e-01,9.99999e-01,9.99999e-01,9.88341e-01,8.12966e-01,9.99999e-01
9.526968669e-01,8.11704e-01,9.99999e-01,9.99999e-01,9.94372e-01,8.16298e-01,9.99999e-01
9.574603512e-01,8.17604e-01,9.99999e-01,9.99999e-01,9.97592e-01,8.19577e-01,9.99999e-01
9.622476530e-01,8.22187e-01,9.99999e-01,9.99999e-01,9.99249e-01,8.22804e-01,9.99999e-01
9.670588912e-01,8.25795e-01,9.99999e-01,9.99999e-01,9.99775e-01,8.25980e-01,9.99999e-01
9.718941857e-01,8.29092e-01,9.99999e-01,9.99999e-01,9.99984e-01,8.29105e-01,9.99999e-01
9.767536566e-01,8.32180e-01,9.99999e-01,9.99999e-01,9.99999e-01,8.32180e-01,9.99999e-01
9.816374249e-01,8.35205e-01,9.99999e-01,9.99999e-01,9.99999e-01,8.35205e-01,9.99999e-01
9.865456120e-01,8.38181e-01,9.99999e-01,9.99999e-01,9.99999e-01,8.38181e-01,9.99999e-01
9.914783401e-01,8.41109e-01,9.99999e-01,9.99999e-01,9.99999e-01,8.41109e-01,9.99999e-01
9.964357318e-01,8.43989e-01,9.99999e-01,9.99999e-01,9.99999e-01,8.43989e-01,9.99999e-01
1.001417910e+00,8.46821e-01,9.99999e-01,9.99999e-01,9.99999e-01,8.46821e-01,9.99999e-01
1.006425000e+00,8.49607e-01,9.99999e-01,9.99999e-01,9.99999e-01,8.49607e-01,9.99999e-01
1.011457125e+00,8.52346e-01,9.99999e-01,9.99999e-01,9.99999e-01,8.52346e-01,9.99999e-01
1.016514411e+00,8.55040e-01,9.99999e-01,9.99999e-01,9.99999e-01,8.55040e-01,9.99999e-01
1.021596983e+00,8.57658e-01,9.99999e-01,9.99999e-01,9.99963e-01,8.57689e-01,9.99999e-01
1.026704968e+00,8.58246e-01,9.99999e-01,9.99999e-01,9.97619e-01,8.60294e-01,9.99999e-01
1.031838492e+00,8.33337e-01,9.99999e-01,9.99999e-01,9.65790e-01,8.62855e-01,9.99999e-01
1.036997685e+00,2.01055e-01,9.99999e-01,9.99999e-01,2.32333e-01,8.65372e-01,9.99999e-01
1.042182673e+00,2.23731e-01,9.99999e-01,9.99999e-01,2.57800e-01,8.67848e-01,9.99999e-01
1.047393587e+00,2.18211e-01,9.99999e-01,9.99999e-01,2.50736e-01,8.70281e-01,9.99999e-01
1.052630555e+00,2.06280e-02,9.99999e-01,9.99999e-01,2.36377e-02,8.72672e-01,9.99999e-01
1.057893707e+00,4.30802e-02,9.99999e-01,9.99999e-01,4.92331e-02,8.75023e-01,9.99999e-01
1.063183176e+00,9.75756e-02,9.99999e-01,9.99999e-01,1.11218e-01,8.77334e-01,9.99999e-01
1.068499092e+00,1.98549e-01,9.99999e-01,9.99999e-01,2.25725e-01,8.79604e-01,9.99999e-01
1.073841587e+00,3.45884e-01,9.99999e-01,9.99999e-01,3.92231e-01,8.81836e-01,9.99999e-01
1.079210795e+00,4.89308e-01,9.99999e-01,9.99999e-01,5.53497e-01,8.84029e-01,9.99999e-01
1.084606849e+00,6.41522e-01,9.99999e-01,9.99999e-01,7.23914e-01,8.86184e-01,9.99999e-01
1.090029883e+00,7.51268e-01,9.99999e-01,9.99999e-01,8.45734e-01,8.88302e-01,9.99999e-01
1.095480033e+00,8.19975e-01,9.99999e-01,9.99999e-01,9.20924e-01,8.90382e-01,9.99999e-01
1.100957433e+00,8.57725e-01,9.99999e-01,9.99999e-01,9.61114e-01,8.92427e-01,9.99999e-01
1.106462220e+00,8.79912e-01,9.99999e-01,9.99999e-01,9.83761e-01,8.94435e-01,9.99999e-01
1.111994531e+00,8.90987e-01,9.99999e-01,9.99999e-01,9.93951e-01,8.96408e-01,9.99999e-01
1.117554504e+00,8.97024e-01,9.99999e-01,9.99999e-01,9.98527e-01,8.98347e-01,9.99999e-01
1.123142276e+00,9.00164e-01,9.99999e-01,9.99999e-01,9.99903e-01,9.00251e-01,9.99999e-01
1.128757988e+00,9.02121e-01,9.99999e-01,9.99999e-01,9.99999e-01,9.02121e-01,9.99999e-01
1.134401778e+00,9.03959e-01,9.99999e-01,9.99999e-01,9.99999e-01,9.03959e-01,9.99999e-01
1.140073787e+00,9.05763e-01,9.99999e-01,9.99999e-01,9.99999e-01,9.05763e-01,9.99999e-01
1.145774156e+00,9.07536e-01,9.99999e-01,9.99999e-01,9.99999e-01,9.07536e-01,9.99999e-01
1.151503026e+00,9.09277e-01,9.99999e-01,9.99999e-01,9.99999e-01,9.09277e-01,9.99999e-01
1.157260541e+00,9.10987e-01,9.99999e-01,9.99999e-01,9.99999e-01,9.10987e-01,9.99999e-01
1.163046844e+00,9.12666e-01,9.99999e-01,9.99999e-01,9.99999e-01,9.12666e-01,9.99999e-01
1.168862078e+00,9.14315e-01,9.99999e-01,9.99999e-01,9.99999e-01,9.14315e-01,9.99999e-01
1.174706389e+00,9.15934e-01,9.99999e-01,9.99999e-01,9.99999e-01,9.15934e-01,9.99999e-01
1.180579921e+00,9.17524e-01,9.99999e-01,9.99999e-01,9.99999e-01,9.17524e-01,9.99999e-01
1.186482820e+00,9.19080e-01,9.99999e-01,9.99999e-01,9.99994e-01,9.19085e-01,9.99999e-01
1.192415234e+00,9.12737e-01,9.99999e-01,9.99999e-01,9.91439e-01,9.20618e-01,9.99999e-01
1.198377311e+00,5.29617e-01,9.99999e-01,9.99999e-01,5.74344e-01,9.22123e-01,9.99999e-01
1.204369197e+00,8.11353e-08,9.99999e-01,9.99999e-01,8.78466e-08,9.23601e-01,9.99999e-01
1.210391043e+00,3.60061e-26,9.99999e-01,9.99999e-01,3.89232e-26,9.25052e-01,9.99999e-01
1.216442998e+00,6.90290e-23,9.99999e-01,9.99999e-01,7.45069e-23,9.26477e-01,9.99999e-01
1.222525213e+00,1.45013e-22,9.99999e-01,9.99999e-01,1.56285e-22,9.27875e-01,9.99999e-01
1.228637839e+00,2.01446e-17,9.99999e-01,9.99999e-01,2.16783e-17,9.29248e-01,9.99999e-01
