#,Wave/freq,Total,N2,O2,CO2,Rayleigh,CIA
4.000000000e-01,4.79910e-09,9.99999e-01,9.99999e-01,9.99999e-01,4.79910e-09,9.99999e-01
4.020000000e-01,7.00888e-09,9.99999e-01,9.99999e-01,9.99999e-01,7.00888e-09,9.99999e-01
4.040100000e-01,1.01559e-08,9.99999e-01,9.99999e-01,9.99999e-01,1.01559e-08,9.99999e-01
4.060300500e-01,1.46085e-08,9.99999e-01,9.99999e-01,9.99999e-01,1.46085e-08,9.99999e-01
4.080602003e-01,2.08628e-08,9.99999e-01,9.99999e-01,9.99999e-01,2.08628e-08,9.99999e-01
4.101005013e-01,2.95859e-08,9.99999e-01,9.99999e-01,9.99999e-01,2.95859e-08,9.99999e-01
4.121510038e-01,4.16677e-08,9.99999e-01,9.99999e-01,9.99999e-01,4.16677e-08,9.99999e-01
4.142117588e-01,5.82876e-08,9.99999e-01,9.99999e-01,9.99999e-01,5.82876e-08,9.99999e-01
4.162828176e-01,8.09980e-08,9.99999e-01,9.99999e-01,9.99999e-01,8.09980e-08,9.99999e-01
4.183642317e-01,1.11828e-07,9.99999e-01,9.99999e-01,9.99999e-01,1.11828e-07,9.99999e-01
4.204560528e-01,1.53411e-07,9.99999e-01,9.99999e-01,9.99999e-01,1.53411e-07,9.99999e-01
4.225583331e-01,2.09148e-07,9.99999e-01,9.99999e-01,9.99999e-01,2.09148e-07,9.99999e-01
4.246711247e-01,2.83395e-07,9.99999e-01,9.99999e-01,9.99999e-01,2.83395e-07,9.99999e-01
4.267944804e-01,3.81701e-07,9.99999e-01,9.99999e-01,9.99999e-01,3.81701e-07,9.99999e-01
4.289284528e-01,5.11093e-07,9.99999e-01,9.99999e-01,9.99999e-01,5.11093e-07,9.99999e-01
4.310730950e-01,6.80413e-07,9.99999e-01,9.99999e-01,9.99999e-01,6.80413e-07,9.99999e-01
4.332284605e-01,9.00722e-07,9.99999e-01,9.99999e-01,9.99999e-01,9.00722e-07,9.99999e-01
4.353946028e-01,1.18578e-06,9.99999e-01,9.99999e-01,9.99999e-01,1.18578e-06,9.99999e-01
4.375715758e-01,1.55259e-06,9.99999e-01,9.99999e-01,9.99999e-01,1.55259e-06,9.99999e-01
4.397594337e-01,2.02207e-06,9.99999e-01,9.99999e-01,9.99999e-01,2.02207e-06,9.99999e-01
4.419582309e-01,2.61982e-06,9.99999e-01,9.99999e-01,9.99999e-01,2.61982e-06,9.99999e-01
4.441680220e-01,3.37695e-06,9.99999e-01,9.99999e-01,9.99999e-01,3.37695e-06,9.99999e-01
4.463888621e-01,4.33111e-06,9.99999e-01,9.99999e-01,9.99999e-01,4.33111e-06,9.99999e-01
4.486208064e-01,5.52764e-06,9.99999e-01,9.99999e-01,9.99999e-01,5.52764e-06,9.99999e-01
4.508639105e-01,7.02082e-06,9.99999e-01,9.99999e-01,9.99999e-01,7.02082e-06,9.99999e-01
4.531182300e-01,8.87533e-06,9.99999e-01,9.99999e-01,9.99999e-01,8.87533e-06,9.99999e-01
4.553838212e-01,1.11679e-05,9.99999e-01,9.99999e-01,9.99999e-01,1.11679e-05,9.99999e-01
4.576607403e-01,1.39889e-05,9.99999e-01,9.99999e-01,9.99999e-01,1.39889e-05,9.99999e-01
4.599490440e-01,1.74449e-05,9.99999e-01,9.99999e-01,9.99999e-01,1.74449e-05,9.99999e-01
4.622487892e-01,2.16599e-05,9.99999e-01,9.99999e-01,9.99999e-01,2.16599e-05,9.99999e-01
4.645600332e-01,2.67787e-05,9.99999e-01,9.99999e-01,9.99999e-01,2.67787e-05,9.99999e-01
4.668828333e-01,3.29687e-05,9.99999e-01,9.99999e-01,9.99999e-01,3.29687e-05,9.99999e-01
4.692172475e-01,4.04231e-05,9.99999e-01,9.99999e-01,9.99999e-01,4.04231e-05,9.99999e-01
4.715633337e-01,4.93640e-05,9.99999e-01,9.99999e-01,9.99999e-01,4.93640e-05,9.99999e-01
4.739211504e-01,6.00449e-05,9.99999e-01,9.99999e-01,9.99999e-01,6.00449e-05,9.99999e-01
4.762907561e-01,7.27548e-05,9.99999e-01,9.99999e-01,9.99999e-01,7.27548e-05,9.99999e-01
4.786722099e-01,8.78213e-05,9.99999e-01,9.99999e-01,9.99999e-01,8.78213e-05,9.99999e-01
4.810655710e-01,1.05615e-04,9.99999e-01,9.99999e-01,9.99999e-01,1.05615e-04,9.99999e-01
4.834708988e-01,1.26551e-04,9.99999e-01,9.99999e-01,9.99999e-01,1.26551e-04,9.99999e-01
4.858882533e-01,1.51097e-04,9.99999e-01,9.99999e-01,9.99999e-01,1.51097e-04,9.99999e-01
4.883176946e-01,1.79773e-04,9.99999e-01,9.99999e-01,9.99999e-01,1.79773e-04,9.99999e-01
4.907592831e-01,2.13159e-04,9.99999e-01,9.99999e-01,9.99999e-01,2.13159e-04,9.99999e-01
4.932130795e-01,2.51895e-04,9.99999e-01,9.99999e-01,9.99999e-01,2.51895e-04,9.99999e-01
4.956791449e-01,2.96691e-04,9.99999e-01,9.99999e-01,9.99999e-01,2.96691e-04,9.99999e-01
4.981575406e-01,3.48326e-04,9.99999e-01,9.99999e-01,9.99999e-01,3.48326e-04,9.99999e-01
5.006483283e-01,4.07652e-04,9.99999e-01,9.99999e-01,9.99999e-01,4.07652e-04,9.99999e-01
5.031515699e-01,4.75603e-04,9.99999e-01,9.99999e-01,9.99999e-01,4.75603e-04,9.99999e-01
5.056673278e-01,5.53194e-04,9.99999e-01,9.99999e-01,9.99999e-01,5.53194e-04,9.99999e-01
5.081956644e-01,6.41525e-04,9.99999e-01,9.99999e-01,9.99999e-01,6.41525e-04,9.99999e-01
5.107366428e-01,7.41787e-04,9.99999e-01,9.99999e-01,9.99999e-01,7.41787e-04,9.99999e-01
5.132903260e-01,8.55262e-04,9.99999e-01,9.99999e-01,9.99999e-01,8.55262e-04,9.99999e-01
5.158567776e-01,9.83326e-04,9.99999e-01,9.99999e-01,9.99999e-01,9.83326e-04,9.99999e-01
5.184360615e-01,1.12746e-03,9.99999e-01,9.99999e-01,9.99999e-01,1.12746e-03,9.99999e-01
5.210282418e-01,1.28922e-03,9.99999e-01,9.99999e-01,9.99999e-01,1.28922e-03,9.99999e-01
5.236333830e-01,1.47030e-03,9.99999e-01,9.99999e-01,9.99999e-01,1.47030e-03,9.99999e-01
5.262515499e-01,1.67246e-03,9.99999e-01,9.99999e-01,9.99999e-01,1.67246e-03,9.99999e-01
5.288828077e-01,1.89759e-03,9.99999e-01,9.99999e-01,9.99999e-01,1.89759e-03,9.99999e-01
5.315272217e-01,2.14765e-03,9.99999e-01,9.99999e-01,9.99999e-01,2.14765e-03,9.99999e-01
5.341848578e-01,2.42474e-03,9.99999e-01,9.99999e-01,9.99999e-01,2.42474e-03,9.99999e-01
5.368557821e-01,2.73101e-03,9.99999e-01,9.99999e-01,9.99999e-01,2.73101e-03,9.99999e-01
5.395400610e-01,3.06876e-03,9.99999e-01,9.99999e-01,9.99999e-01,3.06876e-03,9.99999e-01
5.422377613e-01,3.44034e-03,9.99999e-01,9.99999e-01,9.99999e-01,3.44034e-03,9.99999e-01
5.449489501e-01,3.84822e-03,9.99999e-01,9.99999e-01,9.99999e-01,3.84822e-03,9.99999e-01
5.476736949e-01,4.29494e-03,9.99999e-01,9.99999e-01,9.99999e-01,4.29494e-03,9.99999e-01
5.504120634e-01,4.78313e-03,9.99999e-01,9.99999e-01,9.99999e-01,4.78313e-03,9.99999e-01
5.531641237e-01,5.31549e-03,9.99999e-01,9.99999e-01,9.99999e-01,5.31549e-03,9.99999e-01
5.559299443e-01,5.89481e-03,9.99999e-01,9.99999e-01,9.99999e-01,5.89481e-03,9.99999e-01
5.587095940e-01,6.52391e-03,9.99999e-01,9.99999e-01,9.99999e-01,6.52391e-03,9.99999e-01
5.615031420e-01,7.20572e-03,9.99999e-01,9.99999e-01,9.99999e-01,7.20572e-03,9.99999e-01
5.643106577e-01,7.94316e-03,9.99999e-01,9.99999e-01,9.99999e-01,7.94316e-03,9.99999e-01
5.671322110e-01,8.73924e-03,9.99999e-01,9.99999e-01,9.99999e-01,8.73924e-03,9.99999e-01
5.699678720e-01,9.59698e-03,9.99999e-01,9.99999e-01,9.99999e-01,9.59698e-03,9.99999e-01
5.728177114e-01,1.05194e-02,9.99999e-01,9.99999e-01,9.99999e-01,1.05194e-02,9.99999e-01
5.756818000e-01,1.15097e-02,9.99999e-01,9.99999e-01,9.99999e-01,1.15097e-02,9.99999e-01
5.785602090e-01,1.25708e-02,9.99999e-01,9.99999e-01,9.99999e-01,1.25708e-02,9.99999e-01
5.814530100e-01,1.37058e-02,9.99999e-01,9.99999e-01,9.99999e-01,1.37058e-02,9.99999e-01
5.843602750e-01,1.49178e-02,9.99999e-01,9.99999e-01,9.99999e-01,1.49178e-02,9.99999e-01
5.872820764e-01,1.62098e-02,9.99999e-01,9.99999e-01,9.99999e-01,1.62098e-02,9.99999e-01
5.902184868e-01,1.75849e-02,9.99999e-01,9.99999e-01,9.99999e-01,1.75849e-02,9.99999e-01
5.931695792e-01,1.90460e-02,9.99999e-01,9.99999e-01,9.99999e-01,1.90460e-02,9.99999e-01
5.961354271e-01,2.05959e-02,9.99999e-01,9.99999e-01,9.99999e-01,2.05959e-02,9.99999e-01
5.991161043e-01,2.22376e-02,9.99999e-01,9.99999e-01,9.99999e-01,2.22376e-02,9.99999e-01
6.021116848e-01,2.39738e-02,9.99999e-01,9.99999e-01,9.99999e-01,2.39738e-02,9.99999e-01
6.051222432e-01,2.58072e-02,9.99999e-01,9.99999e-01,9.99999e-01,2.58072e-02,9.99999e-01
6.081478544e-01,2.77404e-02,9.99999e-01,9.99999e-01,9.99999e-01,2.77404e-02,9.99999e-01
6.111885937e-01,2.97760e-02,9.99999e-01,9.99999e-01,9.99999e-01,2.97760e-02,9.99999e-01
6.142445367e-01,3.19162e-02,9.99999e-01,9.99999e-01,9.99999e-01,3.19162e-02,9.99999e-01
6.173157594e-01,3.41633e-02,9.99999e-01,9.99999e-01,9.99999e-01,3.41633e-02,9.99999e-01
6.204023382e-01,3.65196e-02,9.99999e-01,9.99999e-01,9.99999e-01,3.65196e-02,9.99999e-01
6.235043498e-01,3.89870e-02,9.99999e-01,9.99999e-01,9.99999e-01,3.89870e-02,9.99999e-01
6.266218716e-01,4.15674e-02,9.99999e-01,9.99999e-01,9.99999e-01,4.15674e-02,9.99999e-01
6.297549810e-01,4.42625e-02,9.99999e-01,9.99999e-01,9.99999e-01,4.42625e-02,9.99999e-01
6.329037559e-01,4.70738e-02,9.99999e-01,9.99999e-01,9.99999e-01,4.70738e-02,9.99999e-01
6.360682746e-01,5.00029e-02,9.99999e-01,9.99999e-01,9.99999e-01,5.00029e-02,9.99999e-01
6.392486160e-01,5.30510e-02,9.99999e-01,9.99999e-01,9.99999e-01,5.30510e-02,9.99999e-01
6.424448591e-01,5.62191e-02,9.99999e-01,9.99999e-01,9.99999e-01,5.62191e-02,9.99999e-01
6.456570834e-01,5.95082e-02,9.99999e-01,9.99999e-01,9.99999e-01,5.95082e-02,9.99999e-01
6.488853688e-01,6.29190e-02,9.99999e-01,9.99999e-01,9.99999e-01,6.29190e-02,9.99999e-01
6.521297956e-01,6.64521e-02,9.99999e-01,9.99999e-01,9.99999e-01,6.64521e-02,9.99999e-01
6.553904446e-01,7.01080e-02,9.99999e-01,9.99999e-01,9.99999e-01,7.01080e-02,9.99999e-01
6.586673968e-01,7.38867e-02,9.99999e-01,9.99999e-01,9.99999e-01,7.38867e-02,9.99999e-01
6.619607338e-01,7.77884e-02,9.99999e-01,9.99999e-01,9.99999e-01,7.77884e-02,9.99999e-01
6.652705375e-01,8.18130e-02,9.99999e-01,9.99999e-01,9.99999e-01,8.18130e-02,9.99999e-01
6.685968902e-01,8.59600e-02,9.99999e-01,9.99999e-01,9.99999e-01,8.59600e-02,9.99999e-01
6.719398746e-01,9.02291e-02,9.99999e-01,9.99999e-01,9.99999e-01,9.02291e-02,9.99999e-01
6.752995740e-01,9.46196e-02,9.99999e-01,9.99999e-01,9.99999e-01,9.46196e-02,9.99999e-01
6.786760719e-01,9.91307e-02,9.99999e-01,9.99999e-01,9.99999e-01,9.91307e-02,9.99999e-01
6.820694522e-01,1.03761e-01,9.99999e-01,9.99999e-01,9.99999e-01,1.03761e-01,9.99999e-01
6.854797995e-01,1.08510e-01,9.99999e-01,9.99999e-01,9.99999e-01,1.08510e-01,9.99999e-01
6.889071985e-01,1.13377e-01,9.99999e-01,9.99999e-01,9.99999e-01,1.13377e-01,9.99999e-01
6.923517345e-01,1.18358e-01,9.99999e-01,9.99999e-01,9.99999e-01,1.18358e-01,9.99999e-01
6.958134932e-01,1.23454e-01,9.99999e-01,9.99999e-01,9.99999e-01,1.23454e-01,9.99999e-01
6.992925606e-01,1.28662e-01,9.99999e-01,9.99999e-01,9.99999e-01,1.28662e-01,9.99999e-01
7.027890234e-01,1.33980e-01,9.99999e-01,9.99999e-01,9.99999e-01,1.33980e-01,9.99999e-01
7.063029686e-01,1.39407e-01,9.99999e-01,9.99999e-01,9.99999e-01,1.39407e-01,9.99999e-01
7.098344834e-01,1.44939e-01,9.99999e-01,9.99999e-01,9.99999e-01,1.44939e-01,9.99999e-01
7.133836558e-01,1.50576e-01,9.99999e-01,9.99999e-01,9.99999e-01,1.50576e-01,9.99999e-01
7.169505741e-01,1.56313e-01,9.99999e-01,9.99999e-01,9.99999e-01,1.56313e-01,9.99999e-01
7.205353270e-01,1.62150e-01,9.99999e-01,9.99999e-01,9.99999e-01,1.62150e-01,9.99999e-01
7.241380036e-01,1.68083e-01,9.99999e-01,9.99999e-01,9.99999e-01,1.68083e-01,9.99999e-01
7.277586936e-01,1.74109e-01,9.99999e-01,9.99999e-01,9.99999e-01,1.74109e-01,9.99999e-01
7.313974871e-01,1.80226e-01,9.99999e-01,9.99999e-01,9.99999e-01,1.80226e-01,9.99999e-01
7.350544745e-01,1.86430e-01,9.99999e-01,9.99999e-01,9.99999e-01,1.86430e-01,9.99999e-01
7.387297469e-01,1.92719e-01,9.99999e-01,9.99999e-01,9.99999e-01,1.92719e-01,9.99999e-01
7.424233956e-01,1.99090e-01,9.99999e-01,9.99999e-01,9.99999e-01,1.99090e-01,9.99999e-01
7.461355126e-01,2.05539e-01,9.99999e-01,9.99999e-01,9.99999e-01,2.05539e-01,9.99999e-01
7.498661902e-01,2.12064e-01,9.99999e-01,9.99999e-01,9.99999e-01,2.12064e-01,9.99999e-01
7.536155211e-01,2.18661e-01,9.99999e-01,9.99999e-01,9.99999e-01,2.18661e-01,9.99999e-01
7.573835987e-01,2.25326e-01,9.99999e-01,9.99999e-01,9.99999e-01,2.25326e-01,9.99999e-01
7.611705167e-01,2.32058e-01,9.99999e-01,9.99999e-01,9.99999e-01,2.32058e-01,9.99999e-01
7.649763693e-01,2.38851e-01,9.99999e-01,9.99999e-01,9.99999e-01,2.38851e-01,9.99999e-01
7.688012511e-01,2.45703e-01,9.99999e-01,9.99999e-01,9.99999e-01,2.45703e-01,9.99999e-01
7.726452574e-01,2.52610e-01,9.99999e-01,9.99999e-01,9.99999e-01,2.52610e-01,9.99999e-01
7.765084837e-01,2.59570e-01,9.99999e-01,9.99999e-01,9.99999e-01,2.59570e-01,9.99999e-01
7.803910261e-01,2.51813e-01,9.99999e-01,9.99999e-01,9.44613e-01,2.66578e-01,9.99999e-01
7.842929812e-01,2.09132e-01,9.99999e-01,9.99999e-01,7.64284e-01,2.73631e-01,9.99999e-01
7.882144461e-01,2.11028e-01,9.99999e-01,9.99999e-01,7.51721e-01,2.80726e-01,9.99999e-01
7.921555184e-01,2.42818e-01,9.99999e-01,9.99999e-01,8.43530e-01,2.87860e-01,9.99999e-01
7.961162960e-01,2.63025e-01,9.99999e-01,9.99999e-01,8.91526e-01,2.95028e-01,9.99999e-01
8.000968774e-01,2.83995e-01,9.99999e-01,9.99999e-01,9.39670e-01,3.02228e-01,9.99999e-01
8.040973618e-01,2.99616e-01,9.99999e-01,9.99999e-01,9.68199e-01,3.09456e-01,9.99999e-01
8.081178486e-01,3.12054e-01,9.99999e-01,9.99999e-01,9.85300e-01,3.16710e-01,9.99999e-01
8.121584379e-01,3.22501e-01,9.99999e-01,9.99999e-01,9.95419e-01,3.23985e-01,9.99999e-01
8.162192301e-01,3.30943e-01,9.99999e-01,9.99999e-01,9.98986e-01,3.31278e-01,9.99999e-01
8.203003262e-01,3.38582e-01,9.99999e-01,9.99999e-01,9.99983e-01,3.38587e-01,9.99999e-01
8.244018279e-01,3.45908e-01,9.99999e-01,9.99999e-01,9.99999e-01,3.45908e-01,9.99999e-01
8.285238370e-01,3.53238e-01,9.99999e-01,9.99999e-01,9.99999e-01,3.53238e-01,9.99999e-01
8.326664562e-01,3.60574e-01,9.99999e-01,9.99999e-01,9.99999e-01,3.60574e-01,9.99999e-01
8.368297885e-01,3.67912e-01,9.99999e-01,9.99999e-01,9.99999e-01,3.67912e-01,9.99999e-01
8.410139374e-01,3.75251e-01,9.99999e-01,9.99999e-01,9.99999e-01,3.75251e-01,9.99999e-01
8.452190071e-01,3.82587e-01,9.99999e-01,9.99999e-01,9.99999e-01,3.82587e-01,9.99999e-01
8.494451021e-01,3.89917e-01,9.99999e-01,9.99999e-01,9.99999e-01,3.89917e-01,9.99999e-01
8.536923276e-01,3.97239e-01,9.99999e-01,9.99999e-01,9.99999e-01,3.97239e-01,9.99999e-01
8.579607893e-01,4.04549e-01,9.99999e-01,9.99999e-01,9.99999e-01,4.04549e-01,9.99999e-01
8.622505932e-01,4.11846e-01,9.99999e-01,9.99999e-01,9.99999e-01,4.11846e-01,9.99999e-01
8.665618462e-01,3.76679e-01,9.99999e-01,9.99999e-01,8.98723e-01,4.19126e-01,9.99999e-01
8.708946554e-01,2.18132e-01,9.99999e-01,9.99999e-01,5.11581e-01,4.26387e-01,9.99999e-01
8.752491287e-01,2.50375e-01,9.99999e-01,9.99999e-01,5.77396e-01,4.33627e-01,9.99999e-01
8.796253743e-01,3.24725e-01,9.99999e-01,9.99999e-01,7.36599e-01,4.40843e-01,9.99999e-01
8.840235012e-01,3.81907e-01,9.99999e-01,9.99999e-01,8.52407e-01,4.48033e-01,9.99999e-01
8.884436187e-01,4.27315e-01,9.99999e-01,9.99999e-01,9.38749e-01,4.55195e-01,9.99999e-01
8.928858368e-01,4.50645e-01,9.99999e-01,9.99999e-01,9.74730e-01,4.62327e-01,9.99999e-01
8.973502660e-01,4.66509e-01,9.99999e-01,9.99999e-01,9.93785e-01,4.69426e-01,9.99999e-01
9.018370173e-01,4.76164e-01,9.99999e-01,9.99999e-01,9.99312e-01,4.76491e-01,9.99999e-01
9.063462024e-01,4.75244e-01,9.99999e-01,9.99999e-01,9.82884e-01,4.83520e-01,9.99999e-01
9.108779334e-01,4.71124e-01,9.99999e-01,9.99999e-01,9.60477e-01,4.90510e-01,9.99999e-01
9.154323231e-01,4.92754e-01,9.99999e-01,9.99999e-01,9.90538e-01,4.97460e-01,9.99999e-01
9.200094847e-01,4.43141e-01,9.99999e-01,9.99999e-01,8.78605e-01,5.04368e-01,9.99999e-01
9.246095321e-01,4.19910e-01,9.99999e-01,9.99999e-01,8.21366e-01,5.11233e-01,9.99999e-01
9.292325798e-01,4.44841e-01,9.99999e-01,9.99999e-01,8.58677e-01,5.18054e-01,9.99999e-01
9.338787427e-01,4.52326e-01,9.99999e-01,9.99999e-01,8.61856e-01,5.24827e-01,9.99999e-01
9.385481364e-01,4.76375e-01,9.99999e-01,9.99999e-01,8.96193e-01,5.31553e-01,9.99999e-01
9.432408771e-01,5.03183e-01,9.99999e-01,9.99999e-01,9.34883e-01,5.38230e-01,9.99999e-01
9.479570815e-01,5.26373e-01,9.99999e-01,9.99999e-01,9.66076e-01,5.44856e-01,9.99999e-01
9.526968669e-01,5.42328e-01,9.99999e-01,9.99999e-01,9.83490e-01,5.51431e-01,9.99999e-01
9.574603512e-01,5.53993e-01,9.99999e-01,9.99999e-01,9.92903e-01,5.57953e-01,9.99999e-01
9.622476530e-01,5.63168e-01,9.99999e-01,9.99999e-01,9.97780e-01,5.64420e-01,9.99999e-01
9.670588912e-01,5.70453e-01,9.99999e-01,9.99999e-01,9.99333e-01,5.70833e-01,9.99999e-01
9.718941857e-01,5.77162e-01,9.99999e-01,9.99999e-01,9.99952e-01,5.77190e-01,9.99999e-01
9.767536566e-01,5.83490e-01,9.99999e-01,9.99999e-01,9.99999e-01,5.83490e-01,9.99999e-01
9.816374249e-01,5.89732e-01,9.99999e-01,9.99999e-01,9.99999e-01,5.89732e-01,9.99999e-01
9.865456120e-01,5.95916e-01,9.99999e-01,9.99999e-01,9.99999e-01,5.95916e-01,9.99999e-01
9.914783401e-01,6.02040e-01,9.99999e-01,9.99999e-01,9.99999e-01,6.02040e-01,9.99999e-01
9.964357318e-01,6.08105e-01,9.99999e-01,9.99999e-01,9.99999e-01,6.08105e-01,9.99999e-01
1.001417910e+00,6.14109e-01,9.99999e-01,9.99999e-01,9.99999e-01,6.14109e-01,9.99999e-01
1.006425000e+00,6.20052e-01,9.99999e-01,9.99999e-01,9.99999e-01,6.20052e-01,9.99999e-01
1.011457125e+00,6.25933e-01,9.99999e-01,9.99999e-01,9.99999e-01,6.25933e-01,9.99999e-01
1.016514411e+00,6.31753e-01,9.99999e-01,9.99999e-01,9.99999e-01,6.31753e-01,9.99999e-01
1.021596983e+00,6.37454e-01,9.99999e-01,9.99999e-01,9.99912e-01,6.37510e-01,9.99999e-01
1.026704968e+00,6.38878e-01,9.99999e-01,9.99999e-01,9.93273e-01,6.43204e-01,9.99999e-01
1.031838492e+00,6.07100e-01,9.99999e-01,9.99999e-01,9.35676e-01,6.48835e-01,9.99999e-01
1.036997685e+00,5.81853e-02,9.99999e-01,9.99999e-01,8.89135e-02,6.54403e-01,9.99999e-01
1.042182673e+00,1.76845e-02,9.99999e-01,9.99999e-01,2.67985e-02,6.59907e-01,9.99999e-01
1.047393587e+00,3.09013e-02,9.99999e-01,9.99999e-01,4.64439e-02,6.65347e-01,9.99999e-01
1.052630555e+00,8.74821e-05,9.99999e-01,9.99999e-01,1.30429e-04,6.70723e-01,9.99999e-01
1.057893707e+00,2.91070e-04,9.99999e-01,9.99999e-01,4.30554e-04,6.76036e-01,9.99999e-01
1.063183176e+00,2.11934e-03,9.99999e-01,9.99999e-01,3.11081e-03,6.81284e-01,9.99999e-01
1.068499092e+00,1.05707e-02,9.99999e-01,9.99999e-01,1.53986e-02,6.86468e-01,9.99999e-01
1.073841587e+00,4.84316e-02,9.99999e-01,9.99999e-01,7.00294e-02,6.91588e-01,9.99999e-01
1.079210795e+00,1.29610e-01,9.99999e-01,9.99999e-01,1.86049e-01,6.96644e-01,9.99999e-01
1.084606849e+00,2.74431e-01,9.99999e-01,9.99999e-01,3.91130e-01,7.01636e-01,9.99999e-01
1.090029883e+00,4.33237e-01,9.99999e-01,9.99999e-01,6.13159e-01,7.06564e-01,9.99999e-01
1.095480033e+00,5.58762e-01,9.99999e-01,9.99999e-01,7.85409e-01,7.11428e-01,9.99999e-01
1.100957433e+00,6.37397e-01,9.99999e-01,9.99999e-01,8.89934e-01,7.16229e-01,9.99999e-01
1.106462220e+00,6.86986e-01,9.99999e-01,9.99999e-01,9.52868e-01,7.20966e-01,9.99999e-01
1.111994531e+00,7.12766e-01,9.99999e-01,9.99999e-01,9.82257e-01,7.25640e-01,9.99999e-01
1.117554504e+00,7.27061e-01,9.99999e-01,9.99999e-01,9.95630e-01,7.30252e-01,9.99999e-01
1.123142276e+00,7.34589e-01,9.99999e-01,9.99999e-01,9.99711e-01,7.34800e-01,9.99999e-01
1.128757988e+00,7.39286e-01,9.99999e-01,9.99999e-01,9.99999e-01,7.39286e-01,9.99999e-01
1.134401778e+00,7.43711e-01,9.99999e-01,9.99999e-01,9.99999e-01,7.43711e-01,9.99999e-01
1.140073787e+00,7.48073e-01,9.99999e-01,9.99999e-01,9.99999e-01,7.48073e-01,9.99999e-01
1.145774156e+00,7.52374e-01,9.99999e-01,9.99999e-01,9.99999e-01,7.52374e-01,9.99999e-01
1.151503026e+00,7.56615e-01,9.99999e-01,9.99999e-01,9.99999e-01,7.56615e-01,9.99999e-01
1.157260541e+00,7.60794e-01,9.99999e-01,9.99999e-01,9.99999e-01,7.60794e-01,9.99999e-01
1.163046844e+00,7.64914e-01,9.99999e-01,9.99999e-01,9.99999e-01,7.64914e-01,9.99999e-01
1.168862078e+00,7.68974e-01,9.99999e-01,9.99999e-01,9.99999e-01,7.68974e-01,9.99999e-01
1.174706389e+00,7.72974e-01,9.99999e-01,9.99999e-01,9.99999e-01,7.72974e-01,9.99999e-01
1.180579921e+00,7.76916e-01,9.99999e-01,9.99999e-01,9.99999e-01,7.76916e-01,9.99999e-01
1.186482820e+00,7.80791e-01,9.99999e-01,9.99999e-01,9.99988e-01,7.80799e-01,9.99999e-01
1.192415234e+00,7.66224e-01,9.99999e-01,9.99999e-01,9.76547e-01,7.84625e-01,9.99999e-01
1.198377311e+00,4.28721e-01,9.99999e-01,9.99999e-01,5.43791e-01,7.88393e-01,9.99999e-01
1.204369197e+00,1.42303e-18,9.99999e-01,9.99999e-01,1.79651e-18,7.92104e-01,9.99999e-01
1.210391043e+00,2.23132e-72,9.99999e-01,9.99999e-01,2.80402e-72,7.95759e-01,9.99999e-01
1.216442998e+00,9.32909e-63,9.99999e-01,9.99999e-01,1.16707e-62,7.99358e-01,9.99999e-01
1.222525213e+00,7.90540e-62,9.99999e-01,9.99999e-01,9.84602e-62,8.02902e-01,9.99999e-01
1.228637839e+00,7.85947e-48,9.99999e-01,9.99999e-01,9.74646e-48,8.06391e-01,9.99999e-01
