#,Wave/freq,Total,N2,O2,CO2,Rayleigh,CIA
4.000000000e-01,1.65429e-03,9.99999e-01,9.99999e-01,9.99999e-01,1.65429e-03,9.99999e-01
4.020000000e-01,1.87762e-03,9.99999e-01,9.99999e-01,9.99999e-01,1.87762e-03,9.99999e-01
4.040100000e-01,2.12550e-03,9.99999e-01,9.99999e-01,9.99999e-01,2.12550e-03,9.99999e-01
4.060300500e-01,2.40022e-03,9.99999e-01,9.99999e-01,9.99999e-01,2.40022e-03,9.99999e-01
4.080602003e-01,2.70394e-03,9.99999e-01,9.99999e-01,9.99999e-01,2.70394e-03,9.99999e-01
4.101005013e-01,3.03894e-03,9.99999e-01,9.99999e-01,9.99999e-01,3.03894e-03,9.99999e-01
4.121510038e-01,3.40757e-03,9.99999e-01,9.99999e-01,9.99999e-01,3.40757e-03,9.99999e-01
4.142117588e-01,3.81228e-03,9.99999e-01,9.99999e-01,9.99999e-01,3.81228e-03,9.99999e-01
4.162828176e-01,4.25561e-03,9.99999e-01,9.99999e-01,9.99999e-01,4.25561e-03,9.99999e-01
4.183642317e-01,4.74019e-03,9.99999e-01,9.99999e-01,9.99999e-01,4.74019e-03,9.99999e-01
4.204560528e-01,5.26872e-03,9.99999e-01,9.99999e-01,9.99999e-01,5.26872e-03,9.99999e-01
4.225583331e-01,5.84395e-03,9.99999e-01,9.99999e-01,9.99999e-01,5.84395e-03,9.99999e-01
4.246711247e-01,6.46874e-03,9.99999e-01,9.99999e-01,9.99999e-01,6.46874e-03,9.99999e-01
4.267944804e-01,7.14598e-03,9.99999e-01,9.99999e-01,9.99999e-01,7.14598e-03,9.99999e-01
4.289284528e-01,7.87860e-03,9.99999e-01,9.99999e-01,9.99999e-01,7.87860e-03,9.99999e-01
4.310730950e-01,8.66961e-03,9.99999e-01,9.99999e-01,9.99999e-01,8.66961e-03,9.99999e-01
4.332284605e-01,9.52202e-03,9.99999e-01,9.99999e-01,9.99999e-01,9.52202e-03,9.99999e-01
4.353946028e-01,1.04389e-02,9.99999e-01,9.99999e-01,9.99999e-01,1.04389e-02,9.99999e-01
4.375715758e-01,1.14233e-02,9.99999e-01,9.99999e-01,9.99999e-01,1.14233e-02,9.99999e-01
4.397594337e-01,1.24783e-02,9.99999e-01,9.99999e-01,9.99999e-01,1.24783e-02,9.99999e-01
4.419582309e-01,1.36069e-02,9.99999e-01,9.99999e-01,9.99999e-01,1.36069e-02,9.99999e-01
4.441680220e-01,1.48123e-02,9.99999e-01,9.99999e-01,9.99999e-01,1.48123e-02,9.99999e-01
4.463888621e-01,1.60975e-02,9.99999e-01,9.99999e-01,9.99999e-01,1.60975e-02,9.99999e-01
4.486208064e-01,1.74654e-02,9.99999e-01,9.99999e-01,9.99999e-01,1.74654e-02,9.99999e-01
4.508639105e-01,1.89191e-02,9.99999e-01,9.99999e-01,9.99999e-01,1.89191e-02,9.99999e-01
4.531182300e-01,2.04614e-02,9.99999e-01,9.99999e-01,9.99999e-01,2.04614e-02,9.99999e-01
4.553838212e-01,2.20952e-02,9.99999e-01,9.99999e-01,9.99999e-01,2.20952e-02,9.99999e-01
4.576607403e-01,2.38233e-02,9.99999e-01,9.99999e-01,9.99999e-01,2.38233e-02,9.99999e-01
4.599490440e-01,2.56484e-02,9.99999e-01,9.99999e-01,9.99999e-01,2.56484e-02,9.99999e-01
4.622487892e-01,2.75731e-02,9.99999e-01,9.99999e-01,9.99999e-01,2.75731e-02,9.99999e-01
4.645600332e-01,2.95999e-02,9.99999e-01,9.99999e-01,9.99999e-01,2.95999e-02,9.99999e-01
4.668828333e-01,3.17311e-02,9.99999e-01,9.99999e-01,9.99999e-01,3.17311e-02,9.99999e-01
4.692172475e-01,3.39692e-02,9.99999e-01,9.99999e-01,9.99999e-01,3.39692e-02,9.99999e-01
4.715633337e-01,3.63162e-02,9.99999e-01,9.99999e-01,9.99999e-01,3.63162e-02,9.99999e-01
4.739211504e-01,3.87741e-02,9.99999e-01,9.99999e-01,9.99999e-01,3.87741e-02,9.99999e-01
4.762907561e-01,4.13448e-02,9.99999e-01,9.99999e-01,9.99999e-01,4.13448e-02,9.99999e-01
4.786722099e-01,4.40302e-02,9.99999e-01,9.99999e-01,9.99999e-01,4.40302e-02,9.99999e-01
4.810655710e-01,4.68317e-02,9.99999e-01,9.99999e-01,9.99999e-01,4.68317e-02,9.99999e-01
4.834708988e-01,4.97508e-02,9.99999e-01,9.99999e-01,9.99999e-01,4.97508e-02,9.99999e-01
4.858882533e-01,5.27887e-02,9.99999e-01,9.99999e-01,9.99999e-01,5.27887e-02,9.99999e-01
4.883176946e-01,5.59467e-02,9.99999e-01,9.99999e-01,9.99999e-01,5.59467e-02,9.99999e-01
4.907592831e-01,5.92255e-02,9.99999e-01,9.99999e-01,9.99999e-01,5.92255e-02,9.99999e-01
4.932130795e-01,6.26260e-02,9.99999e-01,9.99999e-01,9.99999e-01,6.26260e-02,9.99999e-01
4.956791449e-01,6.61488e-02,9.99999e-01,9.99999e-01,9.99999e-01,6.61488e-02,9.99999e-01
4.981575406e-01,6.97942e-02,9.99999e-01,9.99999e-01,9.99999e-01,6.97942e-02,9.99999e-01
5.006483283e-01,7.35626e-02,9.99999e-01,9.99999e-01,9.99999e-01,7.35626e-02,9.99999e-01
5.031515699e-01,7.74539e-02,9.99999e-01,9.99999e-01,9.99999e-01,7.74539e-02,9.99999e-01
5.056673278e-01,8.14680e-02,9.99999e-01,9.99999e-01,9.99999e-01,8.14680e-02,9.99999e-01
5.081956644e-01,8.56048e-02,9.99999e-01,9.99999e-01,9.99999e-01,8.56048e-02,9.99999e-01
5.107366428e-01,8.98636e-02,9.99999e-01,9.99999e-01,9.99999e-01,8.98636e-02,9.99999e-01
5.132903260e-01,9.42439e-02,9.99999e-01,9.99999e-01,9.99999e-01,9.42439e-02,9.99999e-01
5.158567776e-01,9.87448e-02,9.99999e-01,9.99999e-01,9.99999e-01,9.87448e-02,9.99999e-01
5.184360615e-01,1.03365e-01,9.99999e-01,9.99999e-01,9.99999e-01,1.03365e-01,9.99999e-01
5.210282418e-01,1.08104e-01,9.99999e-01,9.99999e-01,9.99999e-01,1.08104e-01,9.99999e-01
5.236333830e-01,1.12961e-01,9.99999e-01,9.99999e-01,9.99999e-01,1.12961e-01,9.99999e-01
5.262515499e-01,1.17933e-01,9.99999e-01,9.99999e-01,9.99999e-01,1.17933e-01,9.99999e-01
5.288828077e-01,1.23019e-01,9.99999e-01,9.99999e-01,9.99999e-01,1.23019e-01,9.99999e-01
5.315272217e-01,1.28217e-01,9.99999e-01,9.99999e-01,9.99999e-01,1.28217e-01,9.99999e-01
5.341848578e-01,1.33527e-01,9.99999e-01,9.99999e-01,9.99999e-01,1.33527e-01,9.99999e-01
5.368557821e-01,1.38944e-01,9.99999e-01,9.99999e-01,9.99999e-01,1.38944e-01,9.99999e-01
5.395400610e-01,1.44468e-01,9.99999e-01,9.99999e-01,9.99999e-01,1.44468e-01,9.99999e-01
5.422377613e-01,1.50095e-01,9.99999e-01,9.99999e-01,9.99999e-01,1.50095e-01,9.99999e-01
5.449489501e-01,1.55825e-01,9.99999e-01,9.99999e-01,9.99999e-01,1.55825e-01,9.99999e-01
5.476736949e-01,1.61653e-01,9.99999e-01,9.99999e-01,9.99999e-01,1.61653e-01,9.99999e-01
5.504120634e-01,1.67578e-01,9.99999e-01,9.99999e-01,9.99999e-01,1.67578e-01,9.99999e-01
5.531641237e-01,1.73596e-01,9.99999e-01,9.99999e-01,9.99999e-01,1.73596e-01,9.99999e-01
5.559299443e-01,1.79705e-01,9.99999e-01,9.99999e-01,9.99999e-01,1.79705e-01,9.99999e-01
5.587095940e-01,1.85902e-01,9.99999e-01,9.99999e-01,9.99999e-01,1.85902e-01,9.99999e-01
5.615031420e-01,1.92184e-01,9.99999e-01,9.99999e-01,9.99999e-01,1.92184e-01,9.99999e-01
5.643106577e-01,1.98549e-01,9.99999e-01,9.99999e-01,9.99999e-01,1.98549e-01,9.99999e-01
5.671322110e-01,2.04991e-01,9.99999e-01,9.99999e-01,9.99999e-01,2.04991e-01,9.99999e-01
5.699678720e-01,2.11510e-01,9.99999e-01,9.99999e-01,9.99999e-01,2.11510e-01,9.99999e-01
5.728177114e-01,2.18101e-01,9.99999e-01,9.99999e-01,9.99999e-01,2.18101e-01,9.99999e-01
5.756818000e-01,2.24760e-01,9.99999e-01,9.99999e-01,9.99999e-01,2.24760e-01,9.99999e-01
5.785602090e-01,2.31486e-01,9.99999e-01,9.99999e-01,9.99999e-01,2.31486e-01,9.99999e-01
5.814530100e-01,2.38274e-01,9.99999e-01,9.99999e-01,9.99999e-01,2.38274e-01,9.99999e-01
5.843602750e-01,2.45122e-01,9.99999e-01,9.99999e-01,9.99999e-01,2.45122e-01,9.99999e-01
5.872820764e-01,2.52024e-01,9.99999e-01,9.99999e-01,9.99999e-01,2.52024e-01,9.99999e-01
5.902184868e-01,2.58980e-01,9.99999e-01,9.99999e-01,9.99999e-01,2.58980e-01,9.99999e-01
5.931695792e-01,2.65984e-01,9.99999e-01,9.99999e-01,9.99999e-01,2.65984e-01,9.99999e-01
5.961354271e-01,2.73033e-01,9.99999e-01,9.99999e-01,9.99999e-01,2.73033e-01,9.99999e-01
5.991161043e-01,2.80125e-01,9.99999e-01,9.99999e-01,9.99999e-01,2.80125e-01,9.99999e-01
6.021116848e-01,2.87255e-01,9.99999e-01,9.99999e-01,9.99999e-01,2.87255e-01,9.99999e-01
6.051222432e-01,2.94421e-01,9.99999e-01,9.99999e-01,9.99999e-01,2.94421e-01,9.99999e-01
6.081478544e-01,3.01618e-01,9.99999e-01,9.99999e-01,9.99999e-01,3.01618e-01,9.99999e-01
6.111885937e-01,3.08844e-01,9.99999e-01,9.99999e-01,9.99999e-01,3.08844e-01,9.99999e-01
6.142445367e-01,3.16096e-01,9.99999e-01,9.99999e-01,9.99999e-01,3.16096e-01,9.99999e-01
6.173157594e-01,3.23369e-01,9.99999e-01,9.99999e-01,9.99999e-01,3.23369e-01,9.99999e-01
6.204023382e-01,3.30661e-01,9.99999e-01,9.99999e-01,9.99999e-01,3.30661e-01,9.99999e-01
6.235043498e-01,3.37969e-01,9.99999e-01,9.99999e-01,9.99999e-01,3.37969e-01,9.99999e-01
6.266218716e-01,3.45289e-01,9.99999e-01,9.99999e-01,9.99999e-01,3.45289e-01,9.99999e-01
6.297549810e-01,3.52618e-01,9.99999e-01,9.99999e-01,9.99999e-01,3.52618e-01,9.99999e-01
6.329037559e-01,3.59953e-01,9.99999e-01,9.99999e-01,9.99999e-01,3.59953e-01,9.99999e-01
6.360682746e-01,3.67292e-01,9.99999e-01,9.99999e-01,9.99999e-01,3.67292e-01,9.99999e-01
6.392486160e-01,3.74631e-01,9.99999e-01,9.99999e-01,9.99999e-01,3.74631e-01,9.99999e-01
6.424448591e-01,3.81967e-01,9.99999e-01,9.99999e-01,9.99999e-01,3.81967e-01,9.99999e-01
6.456570834e-01,3.89298e-01,9.99999e-01,9.99999e-01,9.99999e-01,3.89298e-01,9.99999e-01
6.488853688e-01,3.96620e-01,9.99999e-01,9.99999e-01,9.99999e-01,3.96620e-01,9.99999e-01
6.521297956e-01,4.03932e-01,9.99999e-01,9.99999e-01,9.99999e-01,4.03932e-01,9.99999e-01
6.553904446e-01,4.11230e-01,9.99999e-01,9.99999e-01,9.99999e-01,4.11230e-01,9.99999e-01
6.586673968e-01,4.18511e-01,9.99999e-01,9.99999e-01,9.99999e-01,4.18511e-01,9.99999e-01
6.619607338e-01,4.25774e-01,9.99999e-01,9.99999e-01,9.99999e-01,4.25774e-01,9.99999e-01
6.652705375e-01,4.33016e-01,9.99999e-01,9.99999e-01,9.99999e-01,4.33016e-01,9.99999e-01
6.685968902e-01,4.40234e-01,9.99999e-01,9.99999e-01,9.99999e-01,4.40234e-01,9.99999e-01
6.719398746e-01,4.47427e-01,9.99999e-01,9.99999e-01,9.99999e-01,4.47427e-01,9.99999e-01
6.752995740e-01,4.54591e-01,9.99999e-01,9.99999e-01,9.99999e-01,4.54591e-01,9.99999e-01
6.786760719e-01,4.61726e-01,9.99999e-01,9.99999e-01,9.99999e-01,4.61726e-01,9.99999e-01
6.820694522e-01,4.68828e-01,9.99999e-01,9.99999e-01,9.99999e-01,4.68828e-01,9.99999e-01
6.854797995e-01,4.75895e-01,9.99999e-01,9.99999e-01,9.99999e-01,4.75895e-01,9.99999e-01
6.889071985e-01,4.82927e-01,9.99999e-01,9.99999e-01,9.99999e-01,4.82927e-01,9.99999e-01
6.923517345e-01,4.89920e-01,9.99999e-01,9.99999e-01,9.99999e-01,4.89920e-01,9.99999e-01
6.958134932e-01,4.96874e-01,9.99999e-01,9.99999e-01,9.99999e-01,4.96874e-01,9.99999e-01
6.992925606e-01,5.03786e-01,9.99999e-01,9.99999e-01,9.99999e-01,5.03786e-01,9.99999e-01
7.027890234e-01,5.10655e-01,9.99999e-01,9.99999e-01,9.99999e-01,5.10655e-01,9.99999e-01
7.063029686e-01,5.17479e-01,9.99999e-01,9.99999e-01,9.99999e-01,5.17479e-01,9.99999e-01
7.098344834e-01,5.24257e-01,9.99999e-01,9.99999e-01,9.99999e-01,5.24257e-01,9.99999e-01
7.133836558e-01,5.30987e-01,9.99999e-01,9.99999e-01,9.99999e-01,5.30987e-01,9.99999e-01
7.169505741e-01,5.37668e-01,9.99999e-01,9.99999e-01,9.99999e-01,5.37668e-01,9.99999e-01
7.205353270e-01,5.44298e-01,9.99999e-01,9.99999e-01,9.99999e-01,5.44298e-01,9.99999e-01
7.241380036e-01,5.50877e-01,9.99999e-01,9.99999e-01,9.99999e-01,5.50877e-01,9.99999e-01
7.277586936e-01,5.57403e-01,9.99999e-01,9.99999e-01,9.99999e-01,5.57403e-01,9.99999e-01
7.313974871e-01,5.63876e-01,9.99999e-01,9.99999e-01,9.99999e-01,5.63876e-01,9.99999e-01
7.350544745e-01,5.70293e-01,9.99999e-01,9.99999e-01,9.99999e-01,5.70293e-01,9.99999e-01
7.387297469e-01,5.76655e-01,9.99999e-01,9.99999e-01,9.99999e-01,5.76655e-01,9.99999e-01
7.424233956e-01,5.82959e-01,9.99999e-01,9.99999e-01,9.99999e-01,5.82959e-01,9.99999e-01
7.461355126e-01,5.89207e-01,9.99999e-01,9.99999e-01,9.99999e-01,5.89207e-01,9.99999e-01
7.498661902e-01,5.95395e-01,9.99999e-01,9.99999e-01,9.99999e-01,5.95395e-01,9.99999e-01
7.536155211e-01,6.01525e-01,9.99999e-01,9.99999e-01,9.99999e-01,6.01525e-01,9.99999e-01
7.573835987e-01,6.07594e-01,9.99999e-01,9.99999e-01,9.99999e-01,6.07594e-01,9.99999e-01
7.611705167e-01,6.13604e-01,9.99999e-01,9.99999e-01,9.99999e-01,6.13604e-01,9.99999e-01
7.649763693e-01,6.19552e-01,9.99999e-01,9.99999e-01,9.99999e-01,6.19552e-01,9.99999e-01
7.688012511e-01,6.25439e-01,9.99999e-01,9.99999e-01,9.99999e-01,6.25439e-01,9.99999e-01
7.726452574e-01,6.31263e-01,9.99999e-01,9.99999e-01,9.99999e-01,6.31263e-01,9.99999e-01
7.765084837e-01,6.37025e-01,9.99999e-01,9.99999e-01,9.99999e-01,6.37025e-01,9.99999e-01
7.803910261e-01,6.29253e-01,9.99999e-01,9.99999e-01,9.79038e-01,6.42725e-01,9.99999e-01
7.842929812e-01,5.90648e-01,9.99999e-01,9.99999e-01,9.10986e-01,6.48361e-01,9.99999e-01
7.882144461e-01,5.91826e-01,9.99999e-01,9.99999e-01,9.05023e-01,6.53934e-01,9.99999e-01
7.921555184e-01,6.22602e-01,9.99999e-01,9.99999e-01,9.44131e-01,6.59444e-01,9.99999e-01
7.961162960e-01,6.39757e-01,9.99999e-01,9.99999e-01,9.62199e-01,6.64890e-01,9.99999e-01
8.000968774e-01,6.56436e-01,9.99999e-01,9.99999e-01,9.79358e-01,6.70271e-01,9.99999e-01
8.040973618e-01,6.68320e-01,9.99999e-01,9.99999e-01,9.89239e-01,6.75589e-01,9.99999e-01
8.081178486e-01,6.77478e-01,9.99999e-01,9.99999e-01,9.95057e-01,6.80843e-01,9.99999e-01
8.121584379e-01,6.84980e-01,9.99999e-01,9.99999e-01,9.98465e-01,6.86032e-01,9.99999e-01
8.162192301e-01,6.90923e-01,9.99999e-01,9.99999e-01,9.99660e-01,6.91158e-01,9.99999e-01
8.203003262e-01,6.96215e-01,9.99999e-01,9.99999e-01,9.99994e-01,6.96219e-01,9.99999e-01
8.244018279e-01,7.01216e-01,9.99999e-01,9.99999e-01,9.99999e-01,7.01216e-01,9.99999e-01
8.285238370e-01,7.06150e-01,9.99999e-01,9.99999e-01,9.99999e-01,7.06150e-01,9.99999e-01
8.326664562e-01,7.11019e-01,9.99999e-01,9.99999e-01,9.99999e-01,7.11019e-01,9.99999e-01
8.368297885e-01,7.15826e-01,9.99999e-01,9.99999e-01,9.99999e-01,7.15826e-01,9.99999e-01
8.410139374e-01,7.20568e-01,9.99999e-01,9.99999e-01,9.99999e-01,7.20568e-01,9.99999e-01
8.452190071e-01,7.25248e-01,9.99999e-01,9.99999e-01,9.99999e-01,7.25248e-01,9.99999e-01
8.494451021e-01,7.29864e-01,9.99999e-01,9.99999e-01,9.99999e-01,7.29864e-01,9.99999e-01
8.536923276e-01,7.34418e-01,9.99999e-01,9.99999e-01,9.99999e-01,7.34418e-01,9.99999e-01
8.579607893e-01,7.38910e-01,9.99999e-01,9.99999e-01,9.99999e-01,7.38910e-01,9.99999e-01
8.622505932e-01,7.43339e-01,9.99999e-01,9.99999e-01,9.99999e-01,7.43339e-01,9.99999e-01
8.665618462e-01,7.08038e-01,9.99999e-01,9.99999e-01,9.46945e-01,7.47707e-01,9.99999e-01
8.708946554e-01,5.92181e-01,9.99999e-01,9.99999e-01,7.87460e-01,7.52013e-01,9.99999e-01
8.752491287e-01,6.24785e-01,9.99999e-01,9.99999e-01,8.26151e-01,7.56259e-01,9.99999e-01
8.796253743e-01,6.85251e-01,9.99999e-01,9.99999e-01,9.01120e-01,7.60443e-01,9.99999e-01
8.840235012e-01,7.24552e-01,9.99999e-01,9.99999e-01,9.47661e-01,7.64568e-01,9.99999e-01
8.884436187e-01,7.52516e-01,9.99999e-01,9.99999e-01,9.79032e-01,7.68633e-01,9.99999e-01
8.928858368e-01,7.66048e-01,9.99999e-01,9.99999e-01,9.91470e-01,7.72638e-01,9.99999e-01
8.973502660e-01,7.74967e-01,9.99999e-01,9.99999e-01,9.97916e-01,7.76585e-01,9.99999e-01
9.018370173e-01,7.80294e-01,9.99999e-01,9.99999e-01,9.99769e-01,7.80473e-01,9.99999e-01
9.063462024e-01,7.79737e-01,9.99999e-01,9.99999e-01,9.94177e-01,7.84304e-01,9.99999e-01
9.108779334e-01,7.77498e-01,9.99999e-01,9.99999e-01,9.86576e-01,7.88076e-01,9.99999e-01
9.154323231e-01,7.89276e-01,9.99999e-01,9.99999e-01,9.96820e-01,7.91792e-01,9.99999e-01
9.200094847e-01,7.58933e-01,9.99999e-01,9.99999e-01,9.54089e-01,7.95452e-01,9.99999e-01
9.246095321e-01,7.47867e-01,9.99999e-01,9.99999e-01,9.35937e-01,7.99056e-01,9.99999e-01
9.292325798e-01,7.62070e-01,9.99999e-01,9.99999e-01,9.49496e-01,8.02604e-01,9.99999e-01
9.338787427e-01,7.66623e-01,9.99999e-01,9.99999e-01,9.51028e-01,8.06098e-01,9.99999e-01
9.385481364e-01,7.80274e-01,9.99999e-01,9.99999e-01,9.63850e-01,8.09537e-01,9.99999e-01
9.432408771e-01,7.94802e-01,9.99999e-01,9.99999e-01,9.77708e-01,8.12923e-01,9.99999e-01
9.479570815e-01,8.06885e-01,9.99999e-01,9.99999e-01,9.88519e-01,8.16256e-01,9.99999e-01
9.526968669e-01,8.14982e-01,9.99999e-01,9.99999e-01,9.94442e-01,8.19536e-01,9.99999e-01
9.574603512e-01,8.20806e-01,9.99999e-01,9.99999e-01,9.97620e-01,8.22764e-01,9.99999e-01
9.622476530e-01,8.25327e-01,9.99999e-01,9.99999e-01,9.99256e-01,8.25940e-01,9.99999e-01
9.670588912e-01,8.28881e-01,9.99999e-01,9.99999e-01,9.99776e-01,8.29066e-01,9.99999e-01
9.718941857e-01,8.32128e-01,9.99999e-01,9.99999e-01,9.99983e-01,8.32141e-01,9.99999e-01
9.767536566e-01,8.35167e-01,9.99999e-01,9.99999e-01,9.99999e-01,8.35167e-01,9.99999e-01
9.816374249e-01,8.38144e-01,9.99999e-01,9.99999e-01,9.99999e-01,8.38144e-01,9.99999e-01
9.865456120e-01,8.41072e-01,9.99999e-01,9.99999e-01,9.99999e-01,8.41072e-01,9.99999e-01
9.914783401e-01,8.43952e-01,9.99999e-01,9.99999e-01,9.99999e-01,8.43952e-01,9.99999e-01
9.964357318e-01,8.46785e-01,9.99999e-01,9.99999e-01,9.99999e-01,8.46785e-01,9.99999e-01
1.001417910e+00,8.49572e-01,9.99999e-01,9.99999e-01,9.99999e-01,8.49572e-01,9.99999e-01
1.006425000e+00,8.52312e-01,9.99999e-01,9.99999e-01,9.99999e-01,8.52312e-01,9.99999e-01
1.011457125e+00,8.55006e-01,9.99999e-01,9.99999e-01,9.99999e-01,8.55006e-01,9.99999e-01
1.016514411e+00,8.57656e-01,9.99999e-01,9.99999e-01,9.99999e-01,8.57656e-01,9.99999e-01
1.021596983e+00,8.60236e-01,9.99999e-01,9.99999e-01,9.99970e-01,8.60261e-01,9.99999e-01
1.026704968e+00,8.60870e-01,9.99999e-01,9.99999e-01,9.97737e-01,8.62822e-01,9.99999e-01
1.031838492e+00,8.39227e-01,9.99999e-01,9.99999e-01,9.69821e-01,8.65341e-01,9.99999e-01
1.036997685e+00,2.07134e-01,9.99999e-01,9.99999e-01,2.38684e-01,8.67816e-01,9.99999e-01
1.042182673e+00,2.28628e-01,9.99999e-01,9.99999e-01,2.62715e-01,8.70250e-01,9.99999e-01
1.047393587e+00,2.26049e-01,9.99999e-01,9.99999e-01,2.59040e-01,8.72642e-01,9.99999e-01
1.052630555e+00,2.20315e-02,9.99999e-01,9.99999e-01,2.51790e-02,8.74994e-01,9.99999e-01
1.057893707e+00,4.49312e-02,9.99999e-01,9.99999e-01,5.12150e-02,8.77305e-01,9.99999e-01
1.063183176e+00,1.01091e-01,9.99999e-01,9.99999e-01,1.14931e-01,8.79576e-01,9.99999e-01
1.068499092e+00,2.04967e-01,9.99999e-01,9.99999e-01,2.32440e-01,8.81808e-01,9.99999e-01
1.073841587e+00,3.51687e-01,9.99999e-01,9.99999e-01,3.97835e-01,8.84002e-01,9.99999e-01
1.079210795e+00,4.95173e-01,9.99999e-01,9.99999e-01,5.58787e-01,8.86157e-01,9.99999e-01
1.084606849e+00,6.45979e-01,9.99999e-01,9.99999e-01,7.27228e-01,8.88275e-01,9.99999e-01
1.090029883e+00,7.54997e-01,9.99999e-01,9.99999e-01,8.47971e-01,8.90356e-01,9.99999e-01
1.095480033e+00,8.22766e-01,9.99999e-01,9.99999e-01,9.21968e-01,8.92401e-01,9.99999e-01
1.100957433e+00,8.60123e-01,9.99999e-01,9.99999e-01,9.61664e-01,8.94410e-01,9.99999e-01
1.106462220e+00,8.82008e-01,9.99999e-01,9.99999e-01,9.83962e-01,8.96383e-01,9.99999e-01
1.111994531e+00,8.92958e-01,9.99999e-01,9.99999e-01,9.94027e-01,8.98322e-01,9.99999e-01
1.117554504e+00,8.98909e-01,9.99999e-01,9.99999e-01,9.98535e-01,9.00227e-01,9.99999e-01
1.123142276e+00,9.02011e-01,9.99999e-01,9.99999e-01,9.99903e-01,9.02098e-01,9.99999e-01
1.128757988e+00,9.03936e-01,9.99999e-01,9.99999e-01,9.99999e-01,9.03936e-01,9.99999e-01
1.134401778e+00,9.05741e-01,9.99999e-01,9.99999e-01,9.99999e-01,9.05741e-01,9.99999e-01
1.140073787e+00,9.07514e-01,9.99999e-01,9.99999e-01,9.99999e-01,9.07514e-01,9.99999e-01
1.145774156e+00,9.09255e-01,9.99999e-01,9.99999e-01,9.99999e-01,9.09255e-01,9.99999e-01
1.151503026e+00,9.10965e-01,9.99999e-01,9.99999e-01,9.99999e-01,9.10965e-01,9.99999e-01
1.157260541e+00,9.12645e-01,9.99999e-01,9.99999e-01,9.99999e-01,9.12645e-01,9.99999e-01
1.163046844e+00,9.14294e-01,9.99999e-01,9.99999e-01,9.99999e-01,9.14294e-01,9.99999e-01
1.168862078e+00,9.15913e-01,9.99999e-01,9.99999e-01,9.99999e-01,9.15913e-01,9.99999e-01
1.174706389e+00,9.17504e-01,9.99999e-01,9.99999e-01,9.99999e-01,9.17504e-01,9.99999e-01
1.180579921e+00,9.19065e-01,9.99999e-01,9.99999e-01,9.99999e-01,9.19065e-01,9.99999e-01
1.186482820e+00,9.20596e-01,9.99999e-01,9.99999e-01,9.99995e-01,9.20599e-01,9.99999e-01
1.192415234e+00,9.14645e-01,9.99999e-01,9.99999e-01,9.91909e-01,9.22104e-01,9.99999e-01
1.198377311e+00,5.32734e-01,9.99999e-01,9.99999e-01,5.76812e-01,9.23583e-01,9.99999e-01
1.204369197e+00,1.04547e-07,9.99999e-01,9.99999e-01,1.13019e-07,9.25034e-01,9.99999e-01
1.210391043e+00,1.06862e-25,9.99999e-01,9.99999e-01,1.15344e-25,9.26459e-01,9.99999e-01
1.216442998e+00,1.76509e-22,9.99999e-01,9.99999e-01,1.90233e-22,9.27858e-01,9.99999e-01
1.222525213e+00,3.66271e-22,9.99999e-01,9.99999e-01,3.94165e-22,9.29231e-01,9.99999e-01
1.228637839e+00,4.18104e-17,9.99999e-01,9.99999e-01,4.49294e-17,9.30579e-01,9.99999e-01
