#,Wave/freq,Total,N2,O2,CO2,Rayleigh,CIA
4.000000000e-01,1.76080e-04,9.99999e-01,9.99999e-01,9.99999e-01,1.76080e-04,9.99999e-01
4.020000000e-01,2.08902e-04,9.99999e-01,9.99999e-01,9.99999e-01,2.08902e-04,9.99999e-01
4.040100000e-01,2.46964e-04,9.99999e-01,9.99999e-01,9.99999e-01,2.46964e-04,9.99999e-01
4.060300500e-01,2.90997e-04,9.99999e-01,9.99999e-01,9.99999e-01,2.90997e-04,9.99999e-01
4.080602003e-01,3.41771e-04,9.99999e-01,9.99999e-01,9.99999e-01,3.41771e-04,9.99999e-01
4.101005013e-01,4.00131e-04,9.99999e-01,9.99999e-01,9.99999e-01,4.00131e-04,9.99999e-01
4.121510038e-01,4.67000e-04,9.99999e-01,9.99999e-01,9.99999e-01,4.67000e-04,9.99999e-01
4.142117588e-01,5.43383e-04,9.99999e-01,9.99999e-01,9.99999e-01,5.43383e-04,9.99999e-01
4.162828176e-01,6.30371e-04,9.99999e-01,9.99999e-01,9.99999e-01,6.30371e-04,9.99999e-01
4.183642317e-01,7.29142e-04,9.99999e-01,9.99999e-01,9.99999e-01,7.29142e-04,9.99999e-01
4.204560528e-01,8.40967e-04,9.99999e-01,9.99999e-01,9.99999e-01,8.40967e-04,9.99999e-01
4.225583331e-01,9.67214e-04,9.99999e-01,9.99999e-01,9.99999e-01,9.67214e-04,9.99999e-01
4.246711247e-01,1.10934e-03,9.99999e-01,9.99999e-01,9.99999e-01,1.10934e-03,9.99999e-01
4.267944804e-01,1.26892e-03,9.99999e-01,9.99999e-01,9.99999e-01,1.26892e-03,9.99999e-01
4.289284528e-01,1.44760e-03,9.99999e-01,9.99999e-01,9.99999e-01,1.44760e-03,9.99999e-01
4.310730950e-01,1.64714e-03,9.99999e-01,9.99999e-01,9.99999e-01,1.64714e-03,9.99999e-01
4.332284605e-01,1.86943e-03,9.99999e-01,9.99999e-01,9.99999e-01,1.86943e-03,9.99999e-01
4.353946028e-01,2.11640e-03,9.99999e-01,9.99999e-01,9.99999e-01,2.11640e-03,9.99999e-01
4.375715758e-01,2.39015e-03,9.99999e-01,9.99999e-01,9.99999e-01,2.39015e-03,9.99999e-01
4.397594337e-01,2.69282e-03,9.99999e-01,9.99999e-01,9.99999e-01,2.69282e-03,9.99999e-01
4.419582309e-01,3.02668e-03,9.99999e-01,9.99999e-01,9.99999e-01,3.02668e-03,9.99999e-01
4.441680220e-01,3.39410e-03,9.99999e-01,9.99999e-01,9.99999e-01,3.39410e-03,9.99999e-01
4.463888621e-01,3.79751e-03,9.99999e-01,9.99999e-01,9.99999e-01,3.79751e-03,9.99999e-01
4.486208064e-01,4.23945e-03,9.99999e-01,9.99999e-01,9.99999e-01,4.23945e-03,9.99999e-01
4.508639105e-01,4.72254e-03,9.99999e-01,9.99999e-01,9.99999e-01,4.72254e-03,9.99999e-01
4.531182300e-01,5.24948e-03,9.99999e-01,9.99999e-01,9.99999e-01,5.24948e-03,9.99999e-01
4.553838212e-01,5.82304e-03,9.99999e-01,9.99999e-01,9.99999e-01,5.82304e-03,9.99999e-01
4.576607403e-01,6.44605e-03,9.99999e-01,9.99999e-01,9.99999e-01,6.44605e-03,9.99999e-01
4.599490440e-01,7.12140e-03,9.99999e-01,9.99999e-01,9.99999e-01,7.12140e-03,9.99999e-01
4.622487892e-01,7.85205e-03,9.99999e-01,9.99999e-01,9.99999e-01,7.85205e-03,9.99999e-01
4.645600332e-01,8.64096e-03,9.99999e-01,9.99999e-01,9.99999e-01,8.64096e-03,9.99999e-01
4.668828333e-01,9.49118e-03,9.99999e-01,9.99999e-01,9.99999e-01,9.49118e-03,9.99999e-01
4.692172475e-01,1.04057e-02,9.99999e-01,9.99999e-01,9.99999e-01,1.04057e-02,9.99999e-01
4.715633337e-01,1.13877e-02,9.99999e-01,9.99999e-01,9.99999e-01,1.13877e-02,9.99999e-01
4.739211504e-01,1.24402e-02,9.99999e-01,9.99999e-01,9.99999e-01,1.24402e-02,9.99999e-01
4.762907561e-01,1.35662e-02,9.99999e-01,9.99999e-01,9.99999e-01,1.35662e-02,9.99999e-01
4.786722099e-01,1.47689e-02,9.99999e-01,9.99999e-01,9.99999e-01,1.47689e-02,9.99999e-01
4.810655710e-01,1.60512e-02,9.99999e-01,9.99999e-01,9.99999e-01,1.60512e-02,9.99999e-01
4.834708988e-01,1.74162e-02,9.99999e-01,9.99999e-01,9.99999e-01,1.74162e-02,9.99999e-01
4.858882533e-01,1.88668e-02,9.99999e-01,9.99999e-01,9.99999e-01,1.88668e-02,9.99999e-01
4.883176946e-01,2.04060e-02,9.99999e-01,9.99999e-01,9.99999e-01,2.04060e-02,9.99999e-01
4.907592831e-01,2.20366e-02,9.99999e-01,9.99999e-01,9.99999e-01,2.20366e-02,9.99999e-01
4.932130795e-01,2.37614e-02,9.99999e-01,9.99999e-01,9.99999e-01,2.37614e-02,9.99999e-01
4.956791449e-01,2.55830e-02,9.99999e-01,9.99999e-01,9.99999e-01,2.55830e-02,9.99999e-01
4.981575406e-01,2.75042e-02,9.99999e-01,9.99999e-01,9.99999e-01,2.75042e-02,9.99999e-01
5.006483283e-01,2.95273e-02,9.99999e-01,9.99999e-01,9.99999e-01,2.95273e-02,9.99999e-01
5.031515699e-01,3.16549e-02,9.99999e-01,9.99999e-01,9.99999e-01,3.16549e-02,9.99999e-01
5.056673278e-01,3.38892e-02,9.99999e-01,9.99999e-01,9.99999e-01,3.38892e-02,9.99999e-01
5.081956644e-01,3.62323e-02,9.99999e-01,9.99999e-01,9.99999e-01,3.62323e-02,9.99999e-01
5.107366428e-01,3.86863e-02,9.99999e-01,9.99999e-01,9.99999e-01,3.86863e-02,9.99999e-01
5.132903260e-01,4.12531e-02,9.99999e-01,9.99999e-01,9.99999e-01,4.12531e-02,9.99999e-01
5.158567776e-01,4.39344e-02,9.99999e-01,9.99999e-01,9.99999e-01,4.39344e-02,9.99999e-01
5.184360615e-01,4.67318e-02,9.99999e-01,9.99999e-01,9.99999e-01,4.67318e-02,9.99999e-01
5.210282418e-01,4.96468e-02,9.99999e-01,9.99999e-01,9.99999e-01,4.96468e-02,9.99999e-01
5.236333830e-01,5.26806e-02,9.99999e-01,9.99999e-01,9.99999e-01,5.26806e-02,9.99999e-01
5.262515499e-01,5.58343e-02,9.99999e-01,9.99999e-01,9.99999e-01,5.58343e-02,9.99999e-01
5.288828077e-01,5.91089e-02,9.99999e-01,9.99999e-01,9.99999e-01,5.91089e-02,9.99999e-01
5.315272217e-01,6.25052e-02,9.99999e-01,9.99999e-01,9.99999e-01,6.25052e-02,9.99999e-01
5.341848578e-01,6.60237e-02,9.99999e-01,9.99999e-01,9.99999e-01,6.60237e-02,9.99999e-01
5.368557821e-01,6.96648e-02,9.99999e-01,9.99999e-01,9.99999e-01,6.96648e-02,9.99999e-01
5.395400610e-01,7.34289e-02,9.99999e-01,9.99999e-01,9.99999e-01,7.34289e-02,9.99999e-01
5.422377613e-01,7.73159e-02,9.99999e-01,9.99999e-01,9.99999e-01,7.73159e-02,9.99999e-01
5.449489501e-01,8.13258e-02,9.99999e-01,9.99999e-01,9.99999e-01,8.13258e-02,9.99999e-01
5.476736949e-01,8.54582e-02,9.99999e-01,9.99999e-01,9.99999e-01,8.54582e-02,9.99999e-01
5.504120634e-01,8.97128e-02,9.99999e-01,9.99999e-01,9.99999e-01,8.97128e-02,9.99999e-01
5.531641237e-01,9.40888e-02,9.99999e-01,9.99999e-01,9.99999e-01,9.40888e-02,9.99999e-01
5.559299443e-01,9.85855e-02,9.99999e-01,9.99999e-01,9.99999e-01,9.85855e-02,9.99999e-01
5.587095940e-01,1.03202e-01,9.99999e-01,9.99999e-01,9.99999e-01,1.03202e-01,9.99999e-01
5.615031420e-01,1.07937e-01,9.99999e-01,9.99999e-01,9.99999e-01,1.07937e-01,9.99999e-01
5.643106577e-01,1.12789e-01,9.99999e-01,9.99999e-01,9.99999e-01,1.12789e-01,9.99999e-01
5.671322110e-01,1.17757e-01,9.99999e-01,9.99999e-01,9.99999e-01,1.17757e-01,9.99999e-01
5.699678720e-01,1.22839e-01,9.99999e-01,9.99999e-01,9.99999e-01,1.22839e-01,9.99999e-01
5.728177114e-01,1.28034e-01,9.99999e-01,9.99999e-01,9.99999e-01,1.28034e-01,9.99999e-01
5.756818000e-01,1.33339e-01,9.99999e-01,9.99999e-01,9.99999e-01,1.33339e-01,9.99999e-01
5.785602090e-01,1.38753e-01,9.99999e-01,9.99999e-01,9.99999e-01,1.38753e-01,9.99999e-01
5.814530100e-01,1.44273e-01,9.99999e-01,9.99999e-01,9.99999e-01,1.44273e-01,9.99999e-01
5.843602750e-01,1.49897e-01,9.99999e-01,9.99999e-01,9.99999e-01,1.49897e-01,9.99999e-01
5.872820764e-01,1.55623e-01,9.99999e-01,9.99999e-01,9.99999e-01,1.55623e-01,9.99999e-01
5.902184868e-01,1.61448e-01,9.99999e-01,9.99999e-01,9.99999e-01,1.61448e-01,9.99999e-01
5.931695792e-01,1.67369e-01,9.99999e-01,9.99999e-01,9.99999e-01,1.67369e-01,9.99999e-01
5.961354271e-01,1.73384e-01,9.99999e-01,9.99999e-01,9.99999e-01,1.73384e-01,9.99999e-01
5.991161043e-01,1.79490e-01,9.99999e-01,9.99999e-01,9.99999e-01,1.79490e-01,9.99999e-01
6.021116848e-01,1.85684e-01,9.99999e-01,9.99999e-01,9.99999e-01,1.85684e-01,9.99999e-01
6.051222432e-01,1.91964e-01,9.99999e-01,9.99999e-01,9.99999e-01,1.91964e-01,9.99999e-01
6.081478544e-01,1.98325e-01,9.99999e-01,9.99999e-01,9.99999e-01,1.98325e-01,9.99999e-01
6.111885937e-01,2.04765e-01,9.99999e-01,9.99999e-01,9.99999e-01,2.04765e-01,9.99999e-01
6.142445367e-01,2.11281e-01,9.99999e-01,9.99999e-01,9.99999e-01,2.11281e-01,9.99999e-01
6.173157594e-01,2.17869e-01,9.99999e-01,9.99999e-01,9.99999e-01,2.17869e-01,9.99999e-01
6.204023382e-01,2.24527e-01,9.99999e-01,9.99999e-01,9.99999e-01,2.24527e-01,9.99999e-01
6.235043498e-01,2.31250e-01,9.99999e-01,9.99999e-01,9.99999e-01,2.31250e-01,9.99999e-01
6.266218716e-01,2.38036e-01,9.99999e-01,9.99999e-01,9.99999e-01,2.38036e-01,9.99999e-01
6.297549810e-01,2.44881e-01,9.99999e-01,9.99999e-01,9.99999e-01,2.44881e-01,9.99999e-01
6.329037559e-01,2.51782e-01,9.99999e-01,9.99999e-01,9.99999e-01,2.51782e-01,9.99999e-01
6.360682746e-01,2.58736e-01,9.99999e-01,9.99999e-01,9.99999e-01,2.58736e-01,9.99999e-01
6.392486160e-01,2.65738e-01,9.99999e-01,9.99999e-01,9.99999e-01,2.65738e-01,9.99999e-01
6.424448591e-01,2.72786e-01,9.99999e-01,9.99999e-01,9.99999e-01,2.72786e-01,9.99999e-01
6.456570834e-01,2.79877e-01,9.99999e-01,9.99999e-01,9.99999e-01,2.79877e-01,9.99999e-01
6.488853688e-01,2.87006e-01,9.99999e-01,9.99999e-01,9.99999e-01,2.87006e-01,9.99999e-01
6.521297956e-01,2.94170e-01,9.99999e-01,9.99999e-01,9.99999e-01,2.94170e-01,9.99999e-01
6.553904446e-01,3.01366e-01,9.99999e-01,9.99999e-01,9.99999e-01,3.01366e-01,9.99999e-01
6.586673968e-01,3.08592e-01,9.99999e-01,9.99999e-01,9.99999e-01,3.08592e-01,9.99999e-01
6.619607338e-01,3.15842e-01,9.99999e-01,9.99999e-01,9.99999e-01,3.15842e-01,9.99999e-01
6.652705375e-01,3.23115e-01,9.99999e-01,9.99999e-01,9.99999e-01,3.23115e-01,9.99999e-01
6.685968902e-01,3.30406e-01,9.99999e-01,9.99999e-01,9.99999e-01,3.30406e-01,9.99999e-01
6.719398746e-01,3.37713e-01,9.99999e-01,9.99999e-01,9.99999e-01,3.37713e-01,9.99999e-01
6.752995740e-01,3.45033e-01,9.99999e-01,9.99999e-01,9.99999e-01,3.45033e-01,9.99999e-01
6.786760719e-01,3.52362e-01,9.99999e-01,9.99999e-01,9.99999e-01,3.52362e-01,9.99999e-01
6.820694522e-01,3.59697e-01,9.99999e-01,9.99999e-01,9.99999e-01,3.59697e-01,9.99999e-01
6.854797995e-01,3.67036e-01,9.99999e-01,9.99999e-01,9.99999e-01,3.67036e-01,9.99999e-01
6.889071985e-01,3.74375e-01,9.99999e-01,9.99999e-01,9.99999e-01,3.74375e-01,9.99999e-01
6.923517345e-01,3.81711e-01,9.99999e-01,9.99999e-01,9.99999e-01,3.81711e-01,9.99999e-01
6.958134932e-01,3.89042e-01,9.99999e-01,9.99999e-01,9.99999e-01,3.89042e-01,9.99999e-01
6.992925606e-01,3.96365e-01,9.99999e-01,9.99999e-01,9.99999e-01,3.96365e-01,9.99999e-01
7.027890234e-01,4.03677e-01,9.99999e-01,9.99999e-01,9.99999e-01,4.03677e-01,9.99999e-01
7.063029686e-01,4.10975e-01,9.99999e-01,9.99999e-01,9.99999e-01,4.10975e-01,9.99999e-01
7.098344834e-01,4.18257e-01,9.99999e-01,9.99999e-01,9.99999e-01,4.18257e-01,9.99999e-01
7.133836558e-01,4.25521e-01,9.99999e-01,9.99999e-01,9.99999e-01,4.25521e-01,9.99999e-01
7.169505741e-01,4.32763e-01,9.99999e-01,9.99999e-01,9.99999e-01,4.32763e-01,9.99999e-01
7.205353270e-01,4.39983e-01,9.99999e-01,9.99999e-01,9.99999e-01,4.39983e-01,9.99999e-01
7.241380036e-01,4.47176e-01,9.99999e-01,9.99999e-01,9.99999e-01,4.47176e-01,9.99999e-01
7.277586936e-01,4.54342e-01,9.99999e-01,9.99999e-01,9.99999e-01,4.54342e-01,9.99999e-01
7.313974871e-01,4.61477e-01,9.99999e-01,9.99999e-01,9.99999e-01,4.61477e-01,9.99999e-01
7.350544745e-01,4.68580e-01,9.99999e-01,9.99999e-01,9.99999e-01,4.68580e-01,9.99999e-01
7.387297469e-01,4.75649e-01,9.99999e-01,9.99999e-01,9.99999e-01,4.75649e-01,9.99999e-01
7.424233956e-01,4.82682e-01,9.99999e-01,9.99999e-01,9.99999e-01,4.82682e-01,9.99999e-01
7.461355126e-01,4.89677e-01,9.99999e-01,9.99999e-01,9.99999e-01,4.89677e-01,9.99999e-01
7.498661902e-01,4.96632e-01,9.99999e-01,9.99999e-01,9.99999e-01,4.96632e-01,9.99999e-01
7.536155211e-01,5.03545e-01,9.99999e-01,9.99999e-01,9.99999e-01,5.03545e-01,9.99999e-01
7.573835987e-01,5.10416e-01,9.99999e-01,9.99999e-01,9.99999e-01,5.10416e-01,9.99999e-01
7.611705167e-01,5.17241e-01,9.99999e-01,9.99999e-01,9.99999e-01,5.17241e-01,9.99999e-01
7.649763693e-01,5.24021e-01,9.99999e-01,9.99999e-01,9.99999e-01,5.24021e-01,9.99999e-01
7.688012511e-01,5.30753e-01,9.99999e-01,9.99999e-01,9.99999e-01,5.30753e-01,9.99999e-01
7.726452574e-01,5.37435e-01,9.99999e-01,9.99999e-01,9.99999e-01,5.37435e-01,9.99999e-01
7.765084837e-01,5.44068e-01,9.99999e-01,9.99999e-01,9.99999e-01,5.44068e-01,9.99999e-01
7.803910261e-01,5.35632e-01,9.99999e-01,9.99999e-01,9.72729e-01,5.50648e-01,9.99999e-01
7.842929812e-01,4.91616e-01,9.99999e-01,9.99999e-01,8.82334e-01,5.57176e-01,9.99999e-01
7.882144461e-01,4.93199e-01,9.99999e-01,9.99999e-01,8.75008e-01,5.63651e-01,9.99999e-01
7.921555184e-01,5.27609e-01,9.99999e-01,9.99999e-01,9.25515e-01,5.70070e-01,9.99999e-01
7.961162960e-01,5.47186e-01,9.99999e-01,9.99999e-01,9.49261e-01,5.76433e-01,9.99999e-01
8.000968774e-01,5.66550e-01,9.99999e-01,9.99999e-01,9.72215e-01,5.82740e-01,9.99999e-01
8.040973618e-01,5.80430e-01,9.99999e-01,9.99999e-01,9.85467e-01,5.88989e-01,9.99999e-01
8.081178486e-01,5.91209e-01,9.99999e-01,9.99999e-01,9.93327e-01,5.95180e-01,9.99999e-01
8.121584379e-01,6.00062e-01,9.99999e-01,9.99999e-01,9.97920e-01,6.01312e-01,9.99999e-01
8.162192301e-01,6.07104e-01,9.99999e-01,9.99999e-01,9.99540e-01,6.07383e-01,9.99999e-01
8.203003262e-01,6.13390e-01,9.99999e-01,9.99999e-01,9.99992e-01,6.13395e-01,9.99999e-01
8.244018279e-01,6.19345e-01,9.99999e-01,9.99999e-01,9.99999e-01,6.19345e-01,9.99999e-01
8.285238370e-01,6.25234e-01,9.99999e-01,9.99999e-01,9.99999e-01,6.25234e-01,9.99999e-01
8.326664562e-01,6.31061e-01,9.99999e-01,9.99999e-01,9.99999e-01,6.31061e-01,9.99999e-01
8.368297885e-01,6.36825e-01,9.99999e-01,9.99999e-01,9.99999e-01,6.36825e-01,9.99999e-01
8.410139374e-01,6.42527e-01,9.99999e-01,9.99999e-01,9.99999e-01,6.42527e-01,9.99999e-01
8.452190071e-01,6.48166e-01,9.99999e-01,9.99999e-01,9.99999e-01,6.48166e-01,9.99999e-01
8.494451021e-01,6.53741e-01,9.99999e-01,9.99999e-01,9.99999e-01,6.53741e-01,9.99999e-01
8.536923276e-01,6.59253e-01,9.99999e-01,9.99999e-01,9.99999e-01,6.59253e-01,9.99999e-01
8.579607893e-01,6.64700e-01,9.99999e-01,9.99999e-01,9.99999e-01,6.64700e-01,9.99999e-01
8.622505932e-01,6.70084e-01,9.99999e-01,9.99999e-01,9.99999e-01,6.70084e-01,9.99999e-01
8.665618462e-01,6.32069e-01,9.99999e-01,9.99999e-01,9.35837e-01,6.75404e-01,9.99999e-01
8.708946554e-01,4.95131e-01,9.99999e-01,9.99999e-01,7.27426e-01,6.80660e-01,9.99999e-01
8.752491287e-01,5.30895e-01,9.99999e-01,9.99999e-01,7.74066e-01,6.85852e-01,9.99999e-01
8.796253743e-01,6.00527e-01,9.99999e-01,9.99999e-01,8.69094e-01,6.90980e-01,9.99999e-01
8.840235012e-01,6.47311e-01,9.99999e-01,9.99999e-01,9.29986e-01,6.96043e-01,9.99999e-01
8.884436187e-01,6.81227e-01,9.99999e-01,9.99999e-01,9.71733e-01,7.01043e-01,9.99999e-01
8.928858368e-01,6.97848e-01,9.99999e-01,9.99999e-01,9.88482e-01,7.05979e-01,9.99999e-01
8.973502660e-01,7.08844e-01,9.99999e-01,9.99999e-01,9.97177e-01,7.10850e-01,9.99999e-01
9.018370173e-01,7.15436e-01,9.99999e-01,9.99999e-01,9.99687e-01,7.15659e-01,9.99999e-01
9.063462024e-01,7.14794e-01,9.99999e-01,9.99999e-01,9.92213e-01,7.20404e-01,9.99999e-01
9.108779334e-01,7.11965e-01,9.99999e-01,9.99999e-01,9.81904e-01,7.25085e-01,9.99999e-01
9.154323231e-01,7.26562e-01,9.99999e-01,9.99999e-01,9.95692e-01,7.29704e-01,9.99999e-01
9.200094847e-01,6.89939e-01,9.99999e-01,9.99999e-01,9.39637e-01,7.34260e-01,9.99999e-01
9.246095321e-01,6.75599e-01,9.99999e-01,9.99999e-01,9.14510e-01,7.38754e-01,9.99999e-01
9.292325798e-01,6.93237e-01,9.99999e-01,9.99999e-01,9.32790e-01,7.43185e-01,9.99999e-01
9.338787427e-01,6.98611e-01,9.99999e-01,9.99999e-01,9.34526e-01,7.47555e-01,9.99999e-01
9.385481364e-01,7.15410e-01,9.99999e-01,9.99999e-01,9.51514e-01,7.51864e-01,9.99999e-01
9.432408771e-01,7.33409e-01,9.99999e-01,9.99999e-01,9.69974e-01,7.56111e-01,9.99999e-01
9.479570815e-01,7.48529e-01,9.99999e-01,9.99999e-01,9.84520e-01,7.60298e-01,9.99999e-01
9.526968669e-01,7.58689e-01,9.99999e-01,9.99999e-01,9.92495e-01,7.64425e-01,9.99999e-01
9.574603512e-01,7.66020e-01,9.99999e-01,9.99999e-01,9.96783e-01,7.68492e-01,9.99999e-01
9.622476530e-01,7.71723e-01,9.99999e-01,9.99999e-01,9.98994e-01,7.72499e-01,9.99999e-01
9.670588912e-01,7.76214e-01,9.99999e-01,9.99999e-01,9.99698e-01,7.76448e-01,9.99999e-01
9.718941857e-01,7.80321e-01,9.99999e-01,9.99999e-01,9.99977e-01,7.80338e-01,9.99999e-01
9.767536566e-01,7.84171e-01,9.99999e-01,9.99999e-01,9.99999e-01,7.84171e-01,9.99999e-01
9.816374249e-01,7.87946e-01,9.99999e-01,9.99999e-01,9.99999e-01,7.87946e-01,9.99999e-01
9.865456120e-01,7.91664e-01,9.99999e-01,9.99999e-01,9.99999e-01,7.91664e-01,9.99999e-01
9.914783401e-01,7.95325e-01,9.99999e-01,9.99999e-01,9.99999e-01,7.95325e-01,9.99999e-01
9.964357318e-01,7.98931e-01,9.99999e-01,9.99999e-01,9.99999e-01,7.98931e-01,9.99999e-01
1.001417910e+00,8.02481e-01,9.99999e-01,9.99999e-01,9.99999e-01,8.02481e-01,9.99999e-01
1.006425000e+00,8.05977e-01,9.99999e-01,9.99999e-01,9.99999e-01,8.05977e-01,9.99999e-01
1.011457125e+00,8.09418e-01,9.99999e-01,9.99999e-01,9.99999e-01,8.09418e-01,9.99999e-01
1.016514411e+00,8.12806e-01,9.99999e-01,9.99999e-01,9.99999e-01,8.12806e-01,9.99999e-01
1.021596983e+00,8.16109e-01,9.99999e-01,9.99999e-01,9.99961e-01,8.16140e-01,9.99999e-01
1.026704968e+00,8.16940e-01,9.99999e-01,9.99999e-01,9.96970e-01,8.19422e-01,9.99999e-01
1.031838492e+00,7.92782e-01,9.99999e-01,9.99999e-01,9.63690e-01,8.22652e-01,9.99999e-01
1.036997685e+00,1.52186e-01,9.99999e-01,9.99999e-01,1.84282e-01,8.25830e-01,9.99999e-01
1.042182673e+00,1.40993e-01,9.99999e-01,9.99999e-01,1.70084e-01,8.28958e-01,9.99999e-01
1.047393587e+00,1.55204e-01,9.99999e-01,9.99999e-01,1.86535e-01,8.32035e-01,9.99999e-01
1.052630555e+00,7.52376e-03,9.99999e-01,9.99999e-01,9.00981e-03,8.35062e-01,9.99999e-01
1.057893707e+00,1.72882e-02,9.99999e-01,9.99999e-01,2.06292e-02,8.38041e-01,9.99999e-01
1.063183176e+00,4.88195e-02,9.99999e-01,9.99999e-01,5.80513e-02,8.40971e-01,9.99999e-01
1.068499092e+00,1.19906e-01,9.99999e-01,9.99999e-01,1.42093e-01,8.43852e-01,9.99999e-01
1.073841587e+00,2.46251e-01,9.99999e-01,9.99999e-01,2.90840e-01,8.46687e-01,9.99999e-01
1.079210795e+00,3.88975e-01,9.99999e-01,9.99999e-01,4.57900e-01,8.49475e-01,9.99999e-01
1.084606849e+00,5.54776e-01,9.99999e-01,9.99999e-01,6.50979e-01,8.52217e-01,9.99999e-01
1.090029883e+00,6.84403e-01,9.99999e-01,9.99999e-01,8.00552e-01,8.54913e-01,9.99999e-01
1.095480033e+00,7.68473e-01,9.99999e-01,9.99999e-01,8.96111e-01,8.57564e-01,9.99999e-01
1.100957433e+00,8.15928e-01,9.99999e-01,9.99999e-01,9.48564e-01,8.60171e-01,9.99999e-01
1.106462220e+00,8.44086e-01,9.99999e-01,9.99999e-01,9.78385e-01,8.62734e-01,9.99999e-01
1.111994531e+00,8.58276e-01,9.99999e-01,9.99999e-01,9.91935e-01,8.65254e-01,9.99999e-01
1.117554504e+00,8.66011e-01,9.99999e-01,9.99999e-01,9.98018e-01,8.67731e-01,9.99999e-01
1.123142276e+00,8.70052e-01,9.99999e-01,9.99999e-01,9.99868e-01,8.70166e-01,9.99999e-01
1.128757988e+00,8.72559e-01,9.99999e-01,9.99999e-01,9.99999e-01,8.72559e-01,9.99999e-01
1.134401778e+00,8.74912e-01,9.99999e-01,9.99999e-01,9.99999e-01,8.74912e-01,9.99999e-01
1.140073787e+00,8.77225e-01,9.99999e-01,9.99999e-01,9.99999e-01,8.77225e-01,9.99999e-01
1.145774156e+00,8.79497e-01,9.99999e-01,9.99999e-01,9.99999e-01,8.79497e-01,9.99999e-01
1.151503026e+00,8.81731e-01,9.99999e-01,9.99999e-01,9.99999e-01,8.81731e-01,9.99999e-01
1.157260541e+00,8.83926e-01,9.99999e-01,9.99999e-01,9.99999e-01,8.83926e-01,9.99999e-01
1.163046844e+00,8.86082e-01,9.99999e-01,9.99999e-01,9.99999e-01,8.86082e-01,9.99999e-01
1.168862078e+00,8.88202e-01,9.99999e-01,9.99999e-01,9.99999e-01,8.88202e-01,9.99999e-01
1.174706389e+00,8.90284e-01,9.99999e-01,9.99999e-01,9.99999e-01,8.90284e-01,9.99999e-01
1.180579921e+00,8.92330e-01,9.99999e-01,9.99999e-01,9.99999e-01,8.92330e-01,9.99999e-01
1.186482820e+00,8.94337e-01,9.99999e-01,9.99999e-01,9.99995e-01,8.94340e-01,9.99999e-01
1.192415234e+00,8.86674e-01,9.99999e-01,9.99999e-01,9.89243e-01,8.96315e-01,9.99999e-01
1.198377311e+00,5.09839e-01,9.99999e-01,9.99999e-01,5.67588e-01,8.98255e-01,9.99999e-01
1.204369197e+00,1.28889e-09,9.99999e-01,9.99999e-01,1.43184e-09,9.00161e-01,9.99999e-01
1.210391043e+00,6.74251e-34,9.99999e-01,9.99999e-01,7.47478e-34,9.02033e-01,9.99999e-01
1.216442998e+00,1.48182e-29,9.99999e-01,9.99999e-01,1.63941e-29,9.03872e-01,9.99999e-01
1.222525213e+00,3.89824e-29,9.99999e-01,9.99999e-01,4.30422e-29,9.05678e-01,9.99999e-01
1.228637839e+00,1.50526e-22,9.99999e-01,9.99999e-01,1.65878e-22,9.07452e-01,9.99999e-01
