#,Wave/freq,Total,N2,O2,CO2,Rayleigh,CIA
4.000000000e-01,1.20167e-07,9.99999e-01,9.99999e-01,9.99999e-01,1.20167e-07,9.99999e-01
4.020000000e-01,1.64670e-07,9.99999e-01,9.99999e-01,9.99999e-01,1.64670e-07,9.99999e-01
4.040100000e-01,2.24183e-07,9.99999e-01,9.99999e-01,9.99999e-01,2.24183e-07,9.99999e-01
4.060300500e-01,3.03351e-07,9.99999e-01,9.99999e-01,9.99999e-01,3.03351e-07,9.99999e-01
4.080602003e-01,4.08030e-07,9.99999e-01,9.99999e-01,9.99999e-01,4.08030e-07,9.99999e-01
4.101005013e-01,5.45629e-07,9.99999e-01,9.99999e-01,9.99999e-01,5.45629e-07,9.99999e-01
4.121510038e-01,7.25453e-07,9.99999e-01,9.99999e-01,9.99999e-01,7.25453e-07,9.99999e-01
4.142117588e-01,9.59129e-07,9.99999e-01,9.99999e-01,9.99999e-01,9.59129e-07,9.99999e-01
4.162828176e-01,1.26110e-06,9.99999e-01,9.99999e-01,9.99999e-01,1.26110e-06,9.99999e-01
4.183642317e-01,1.64921e-06,9.99999e-01,9.99999e-01,9.99999e-01,1.64921e-06,9.99999e-01
4.204560528e-01,2.14535e-06,9.99999e-01,9.99999e-01,9.99999e-01,2.14535e-06,9.99999e-01
4.225583331e-01,2.77629e-06,9.99999e-01,9.99999e-01,9.99999e-01,2.77629e-06,9.99999e-01
4.246711247e-01,3.57454e-06,9.99999e-01,9.99999e-01,9.99999e-01,3.57454e-06,9.99999e-01
4.267944804e-01,4.57939e-06,9.99999e-01,9.99999e-01,9.99999e-01,4.57939e-06,9.99999e-01
4.289284528e-01,5.83808e-06,9.99999e-01,9.99999e-01,9.99999e-01,5.83808e-06,9.99999e-01
4.310730950e-01,7.40711e-06,9.99999e-01,9.99999e-01,9.99999e-01,7.40711e-06,9.99999e-01
4.332284605e-01,9.35376e-06,9.99999e-01,9.99999e-01,9.99999e-01,9.35376e-06,9.99999e-01
4.353946028e-01,1.17577e-05,9.99999e-01,9.99999e-01,9.99999e-01,1.17577e-05,9.99999e-01
4.375715758e-01,1.47128e-05,9.99999e-01,9.99999e-01,9.99999e-01,1.47128e-05,9.99999e-01
4.397594337e-01,1.83293e-05,9.99999e-01,9.99999e-01,9.99999e-01,1.83293e-05,9.99999e-01
4.419582309e-01,2.27358e-05,9.99999e-01,9.99999e-01,9.99999e-01,2.27358e-05,9.99999e-01
4.441680220e-01,2.80819e-05,9.99999e-01,9.99999e-01,9.99999e-01,2.80819e-05,9.99999e-01
4.463888621e-01,3.45407e-05,9.99999e-01,9.99999e-01,9.99999e-01,3.45407e-05,9.99999e-01
4.486208064e-01,4.23117e-05,9.99999e-01,9.99999e-01,9.99999e-01,4.23117e-05,9.99999e-01
4.508639105e-01,5.16236e-05,9.99999e-01,9.99999e-01,9.99999e-01,5.16236e-05,9.99999e-01
4.531182300e-01,6.27379e-05,9.99999e-01,9.99999e-01,9.99999e-01,6.27379e-05,9.99999e-01
4.553838212e-01,7.59520e-05,9.99999e-01,9.99999e-01,9.99999e-01,7.59520e-05,9.99999e-01
4.576607403e-01,9.16028e-05,9.99999e-01,9.99999e-01,9.99999e-01,9.16028e-05,9.99999e-01
4.599490440e-01,1.10071e-04,9.99999e-01,9.99999e-01,9.99999e-01,1.10071e-04,9.99999e-01
4.622487892e-01,1.31783e-04,9.99999e-01,9.99999e-01,9.99999e-01,1.31783e-04,9.99999e-01
4.645600332e-01,1.57217e-04,9.99999e-01,9.99999e-01,9.99999e-01,1.57217e-04,9.99999e-01
4.668828333e-01,1.86908e-04,9.99999e-01,9.99999e-01,9.99999e-01,1.86908e-04,9.99999e-01
4.692172475e-01,2.21449e-04,9.99999e-01,9.99999e-01,9.99999e-01,2.21449e-04,9.99999e-01
4.715633337e-01,2.61495e-04,9.99999e-01,9.99999e-01,9.99999e-01,2.61495e-04,9.99999e-01
4.739211504e-01,3.07771e-04,9.99999e-01,9.99999e-01,9.99999e-01,3.07771e-04,9.99999e-01
4.762907561e-01,3.61072e-04,9.99999e-01,9.99999e-01,9.99999e-01,3.61072e-04,9.99999e-01
4.786722099e-01,4.22269e-04,9.99999e-01,9.99999e-01,9.99999e-01,4.22269e-04,9.99999e-01
4.810655710e-01,4.92314e-04,9.99999e-01,9.99999e-01,9.99999e-01,4.92314e-04,9.99999e-01
4.834708988e-01,5.72241e-04,9.99999e-01,9.99999e-01,9.99999e-01,5.72241e-04,9.99999e-01
4.858882533e-01,6.63170e-04,9.99999e-01,9.99999e-01,9.99999e-01,6.63170e-04,9.99999e-01
4.883176946e-01,7.66312e-04,9.99999e-01,9.99999e-01,9.99999e-01,7.66312e-04,9.99999e-01
4.907592831e-01,8.82971e-04,9.99999e-01,9.99999e-01,9.99999e-01,8.82971e-04,9.99999e-01
4.932130795e-01,1.01455e-03,9.99999e-01,9.99999e-01,9.99999e-01,1.01455e-03,9.99999e-01
4.956791449e-01,1.16253e-03,9.99999e-01,9.99999e-01,9.99999e-01,1.16253e-03,9.99999e-01
4.981575406e-01,1.32853e-03,9.99999e-01,9.99999e-01,9.99999e-01,1.32853e-03,9.99999e-01
5.006483283e-01,1.51423e-03,9.99999e-01,9.99999e-01,9.99999e-01,1.51423e-03,9.99999e-01
5.031515699e-01,1.72143e-03,9.99999e-01,9.99999e-01,9.99999e-01,1.72143e-03,9.99999e-01
5.056673278e-01,1.95203e-03,9.99999e-01,9.99999e-01,9.99999e-01,1.95203e-03,9.99999e-01
5.081956644e-01,2.20804e-03,9.99999e-01,9.99999e-01,9.99999e-01,2.20804e-03,9.99999e-01
5.107366428e-01,2.49155e-03,9.99999e-01,9.99999e-01,9.99999e-01,2.49155e-03,9.99999e-01
5.132903260e-01,2.80476e-03,9.99999e-01,9.99999e-01,9.99999e-01,2.80476e-03,9.99999e-01
5.158567776e-01,3.14997e-03,9.99999e-01,9.99999e-01,9.99999e-01,3.14997e-03,9.99999e-01
5.184360615e-01,3.52956e-03,9.99999e-01,9.99999e-01,9.99999e-01,3.52956e-03,9.99999e-01
5.210282418e-01,3.94602e-03,9.99999e-01,9.99999e-01,9.99999e-01,3.94602e-03,9.99999e-01
5.236333830e-01,4.40191e-03,9.99999e-01,9.99999e-01,9.99999e-01,4.40191e-03,9.99999e-01
5.262515499e-01,4.89987e-03,9.99999e-01,9.99999e-01,9.99999e-01,4.89987e-03,9.99999e-01
5.288828077e-01,5.44264e-03,9.99999e-01,9.99999e-01,9.99999e-01,5.44264e-03,9.99999e-01
5.315272217e-01,6.03299e-03,9.99999e-01,9.99999e-01,9.99999e-01,6.03299e-03,9.99999e-01
5.341848578e-01,6.67379e-03,9.99999e-01,9.99999e-01,9.99999e-01,6.67379e-03,9.99999e-01
5.368557821e-01,7.36795e-03,9.99999e-01,9.99999e-01,9.99999e-01,7.36795e-03,9.99999e-01
5.395400610e-01,8.11843e-03,9.99999e-01,9.99999e-01,9.99999e-01,8.11843e-03,9.99999e-01
5.422377613e-01,8.92822e-03,9.99999e-01,9.99999e-01,9.99999e-01,8.92822e-03,9.99999e-01
5.449489501e-01,9.80037e-03,9.99999e-01,9.99999e-01,9.99999e-01,9.80037e-03,9.99999e-01
5.476736949e-01,1.07379e-02,9.99999e-01,9.99999e-01,9.99999e-01,1.07379e-02,9.99999e-01
5.504120634e-01,1.17440e-02,9.99999e-01,9.99999e-01,9.99999e-01,1.17440e-02,9.99999e-01
5.531641237e-01,1.28215e-02,9.99999e-01,9.99999e-01,9.99999e-01,1.28215e-02,9.99999e-01
5.559299443e-01,1.39738e-02,9.99999e-01,9.99999e-01,9.99999e-01,1.39738e-02,9.99999e-01
5.587095940e-01,1.52037e-02,9.99999e-01,9.99999e-01,9.99999e-01,1.52037e-02,9.99999e-01
5.615031420e-01,1.65143e-02,9.99999e-01,9.99999e-01,9.99999e-01,1.65143e-02,9.99999e-01
5.643106577e-01,1.79086e-02,9.99999e-01,9.99999e-01,9.99999e-01,1.79086e-02,9.99999e-01
5.671322110e-01,1.93895e-02,9.99999e-01,9.99999e-01,9.99999e-01,1.93895e-02,9.99999e-01
5.699678720e-01,2.09600e-02,9.99999e-01,9.99999e-01,9.99999e-01,2.09600e-02,9.99999e-01
5.728177114e-01,2.26229e-02,9.99999e-01,9.99999e-01,9.99999e-01,2.26229e-02,9.99999e-01
5.756818000e-01,2.43809e-02,9.99999e-01,9.99999e-01,9.99999e-01,2.43809e-02,9.99999e-01
5.785602090e-01,2.62367e-02,9.99999e-01,9.99999e-01,9.99999e-01,2.62367e-02,9.99999e-01
5.814530100e-01,2.81929e-02,9.99999e-01,9.99999e-01,9.99999e-01,2.81929e-02,9.99999e-01
5.843602750e-01,3.02520e-02,9.99999e-01,9.99999e-01,9.99999e-01,3.02520e-02,9.99999e-01
5.872820764e-01,3.24163e-02,9.99999e-01,9.99999e-01,9.99999e-01,3.24163e-02,9.99999e-01
5.902184868e-01,3.46880e-02,9.99999e-01,9.99999e-01,9.99999e-01,3.46880e-02,9.99999e-01
5.931695792e-01,3.70693e-02,9.99999e-01,9.99999e-01,9.99999e-01,3.70693e-02,9.99999e-01
5.961354271e-01,3.95621e-02,9.99999e-01,9.99999e-01,9.99999e-01,3.95621e-02,9.99999e-01
5.991161043e-01,4.21684e-02,9.99999e-01,9.99999e-01,9.99999e-01,4.21684e-02,9.99999e-01
6.021116848e-01,4.48897e-02,9.99999e-01,9.99999e-01,9.99999e-01,4.48897e-02,9.99999e-01
6.051222432e-01,4.77277e-02,9.99999e-01,9.99999e-01,9.99999e-01,4.77277e-02,9.99999e-01
6.081478544e-01,5.06836e-02,9.99999e-01,9.99999e-01,9.99999e-01,5.06836e-02,9.99999e-01
6.111885937e-01,5.37588e-02,9.99999e-01,9.99999e-01,9.99999e-01,5.37588e-02,9.99999e-01
6.142445367e-01,5.69543e-02,9.99999e-01,9.99999e-01,9.99999e-01,5.69543e-02,9.99999e-01
6.173157594e-01,6.02709e-02,9.99999e-01,9.99999e-01,9.99999e-01,6.02709e-02,9.99999e-01
6.204023382e-01,6.37094e-02,9.99999e-01,9.99999e-01,9.99999e-01,6.37094e-02,9.99999e-01
6.235043498e-01,6.72704e-02,9.99999e-01,9.99999e-01,9.99999e-01,6.72704e-02,9.99999e-01
6.266218716e-01,7.09540e-02,9.99999e-01,9.99999e-01,9.99999e-01,7.09540e-02,9.99999e-01
6.297549810e-01,7.47607e-02,9.99999e-01,9.99999e-01,9.99999e-01,7.47607e-02,9.99999e-01
6.329037559e-01,7.86902e-02,9.99999e-01,9.99999e-01,9.99999e-01,7.86902e-02,9.99999e-01
6.360682746e-01,8.27426e-02,9.99999e-01,9.99999e-01,9.99999e-01,8.27426e-02,9.99999e-01
6.392486160e-01,8.69174e-02,9.99999e-01,9.99999e-01,9.99999e-01,8.69174e-02,9.99999e-01
6.424448591e-01,9.12141e-02,9.99999e-01,9.99999e-01,9.99999e-01,9.12141e-02,9.99999e-01
6.456570834e-01,9.56320e-02,9.99999e-01,9.99999e-01,9.99999e-01,9.56320e-02,9.99999e-01
6.488853688e-01,1.00170e-01,9.99999e-01,9.99999e-01,9.99999e-01,1.00170e-01,9.99999e-01
6.521297956e-01,1.04828e-01,9.99999e-01,9.99999e-01,9.99999e-01,1.04828e-01,9.99999e-01
6.553904446e-01,1.09604e-01,9.99999e-01,9.99999e-01,9.99999e-01,1.09604e-01,9.99999e-01
6.586673968e-01,1.14496e-01,9.99999e-01,9.99999e-01,9.99999e-01,1.14496e-01,9.99999e-01
6.619607338e-01,1.19504e-01,9.99999e-01,9.99999e-01,9.99999e-01,1.19504e-01,9.99999e-01
6.652705375e-01,1.24625e-01,9.99999e-01,9.99999e-01,9.99999e-01,1.24625e-01,9.99999e-01
6.685968902e-01,1.29858e-01,9.99999e-01,9.99999e-01,9.99999e-01,1.29858e-01,9.99999e-01
6.719398746e-01,1.35201e-01,9.99999e-01,9.99999e-01,9.99999e-01,1.35201e-01,9.99999e-01
6.752995740e-01,1.40652e-01,9.99999e-01,9.99999e-01,9.99999e-01,1.40652e-01,9.99999e-01
6.786760719e-01,1.46208e-01,9.99999e-01,9.99999e-01,9.99999e-01,1.46208e-01,9.99999e-01
6.820694522e-01,1.51868e-01,9.99999e-01,9.99999e-01,9.99999e-01,1.51868e-01,9.99999e-01
6.854797995e-01,1.57628e-01,9.99999e-01,9.99999e-01,9.99999e-01,1.57628e-01,9.99999e-01
6.889071985e-01,1.63487e-01,9.99999e-01,9.99999e-01,9.99999e-01,1.63487e-01,9.99999e-01
6.923517345e-01,1.69441e-01,9.99999e-01,9.99999e-01,9.99999e-01,1.69441e-01,9.99999e-01
6.958134932e-01,1.75488e-01,9.99999e-01,9.99999e-01,9.99999e-01,1.75488e-01,9.99999e-01
6.992925606e-01,1.81625e-01,9.99999e-01,9.99999e-01,9.99999e-01,1.81625e-01,9.99999e-01
7.027890234e-01,1.87849e-01,9.99999e-01,9.99999e-01,9.99999e-01,1.87849e-01,9.99999e-01
7.063029686e-01,1.94157e-01,9.99999e-01,9.99999e-01,9.99999e-01,1.94157e-01,9.99999e-01
7.098344834e-01,2.00546e-01,9.99999e-01,9.99999e-01,9.99999e-01,2.00546e-01,9.99999e-01
7.133836558e-01,2.07012e-01,9.99999e-01,9.99999e-01,9.99999e-01,2.07012e-01,9.99999e-01
7.169505741e-01,2.13554e-01,9.99999e-01,9.99999e-01,9.99999e-01,2.13554e-01,9.99999e-01
7.205353270e-01,2.20166e-01,9.99999e-01,9.99999e-01,9.99999e-01,2.20166e-01,9.99999e-01
7.241380036e-01,2.26847e-01,9.99999e-01,9.99999e-01,9.99999e-01,2.26847e-01,9.99999e-01
7.277586936e-01,2.33593e-01,9.99999e-01,9.99999e-01,9.99999e-01,2.33593e-01,9.99999e-01
7.313974871e-01,2.40400e-01,9.99999e-01,9.99999e-01,9.99999e-01,2.40400e-01,9.99999e-01
7.350544745e-01,2.47265e-01,9.99999e-01,9.99999e-01,9.99999e-01,2.47265e-01,9.99999e-01
7.387297469e-01,2.54184e-01,9.99999e-01,9.99999e-01,9.99999e-01,2.54184e-01,9.99999e-01
7.424233956e-01,2.61155e-01,9.99999e-01,9.99999e-01,9.99999e-01,2.61155e-01,9.99999e-01
7.461355126e-01,2.68173e-01,9.99999e-01,9.99999e-01,9.99999e-01,2.68173e-01,9.99999e-01
7.498661902e-01,2.75236e-01,9.99999e-01,9.99999e-01,9.99999e-01,2.75236e-01,9.99999e-01
7.536155211e-01,2.82341e-01,9.99999e-01,9.99999e-01,9.99999e-01,2.82341e-01,9.99999e-01
7.573835987e-01,2.89482e-01,9.99999e-01,9.99999e-01,9.99999e-01,2.89482e-01,9.99999e-01
7.611705167e-01,2.96658e-01,9.99999e-01,9.99999e-01,9.99999e-01,2.96658e-01,9.99999e-01
7.649763693e-01,3.03865e-01,9.99999e-01,9.99999e-01,9.99999e-01,3.03865e-01,9.99999e-01
7.688012511e-01,3.11099e-01,9.99999e-01,9.99999e-01,9.99999e-01,3.11099e-01,9.99999e-01
7.726452574e-01,3.18358e-01,9.99999e-01,9.99999e-01,9.99999e-01,3.18358e-01,9.99999e-01
7.765084837e-01,3.25637e-01,9.99999e-01,9.99999e-01,9.99999e-01,3.25637e-01,9.99999e-01
7.803910261e-01,3.16186e-01,9.99999e-01,9.99999e-01,9.49694e-01,3.32934e-01,9.99999e-01
7.842929812e-01,2.72017e-01,9.99999e-01,9.99999e-01,7.99469e-01,3.40246e-01,9.99999e-01
7.882144461e-01,2.73286e-01,9.99999e-01,9.99999e-01,7.86276e-01,3.47569e-01,9.99999e-01
7.921555184e-01,3.07826e-01,9.99999e-01,9.99999e-01,8.67357e-01,3.54901e-01,9.99999e-01
7.961162960e-01,3.29475e-01,9.99999e-01,9.99999e-01,9.09555e-01,3.62237e-01,9.99999e-01
8.000968774e-01,3.51024e-01,9.99999e-01,9.99999e-01,9.49799e-01,3.69577e-01,9.99999e-01
8.040973618e-01,3.67028e-01,9.99999e-01,9.99999e-01,9.73768e-01,3.76915e-01,9.99999e-01
8.081178486e-01,3.79571e-01,9.99999e-01,9.99999e-01,9.87822e-01,3.84250e-01,9.99999e-01
8.121584379e-01,3.90115e-01,9.99999e-01,9.99999e-01,9.96262e-01,3.91578e-01,9.99999e-01
8.162192301e-01,3.98568e-01,9.99999e-01,9.99999e-01,9.99173e-01,3.98897e-01,9.99999e-01
8.203003262e-01,4.06200e-01,9.99999e-01,9.99999e-01,9.99988e-01,4.06205e-01,9.99999e-01
8.244018279e-01,4.13498e-01,9.99999e-01,9.99999e-01,9.99999e-01,4.13498e-01,9.99999e-01
8.285238370e-01,4.20774e-01,9.99999e-01,9.99999e-01,9.99999e-01,4.20774e-01,9.99999e-01
8.326664562e-01,4.28031e-01,9.99999e-01,9.99999e-01,9.99999e-01,4.28031e-01,9.99999e-01
8.368297885e-01,4.35266e-01,9.99999e-01,9.99999e-01,9.99999e-01,4.35266e-01,9.99999e-01
8.410139374e-01,4.42476e-01,9.99999e-01,9.99999e-01,9.99999e-01,4.42476e-01,9.99999e-01
8.452190071e-01,4.49660e-01,9.99999e-01,9.99999e-01,9.99999e-01,4.49660e-01,9.99999e-01
8.494451021e-01,4.56815e-01,9.99999e-01,9.99999e-01,9.99999e-01,4.56815e-01,9.99999e-01
8.536923276e-01,4.63940e-01,9.99999e-01,9.99999e-01,9.99999e-01,4.63940e-01,9.99999e-01
8.579607893e-01,4.71031e-01,9.99999e-01,9.99999e-01,9.99999e-01,4.71031e-01,9.99999e-01
8.622505932e-01,4.78088e-01,9.99999e-01,9.99999e-01,9.99999e-01,4.78088e-01,9.99999e-01
8.665618462e-01,4.37989e-01,9.99999e-01,9.99999e-01,9.02868e-01,4.85108e-01,9.99999e-01
8.708946554e-01,2.79477e-01,9.99999e-01,9.99999e-01,5.67940e-01,4.92089e-01,9.99999e-01
8.752491287e-01,3.15568e-01,9.99999e-01,9.99999e-01,6.32362e-01,4.99030e-01,9.99999e-01
8.796253743e-01,3.92651e-01,9.99999e-01,9.99999e-01,7.76098e-01,5.05929e-01,9.99999e-01
8.840235012e-01,4.49343e-01,9.99999e-01,9.99999e-01,8.76280e-01,5.12784e-01,9.99999e-01
8.884436187e-01,4.93312e-01,9.99999e-01,9.99999e-01,9.49418e-01,5.19594e-01,9.99999e-01
8.928858368e-01,5.15379e-01,9.99999e-01,9.99999e-01,9.79142e-01,5.26357e-01,9.99999e-01
8.973502660e-01,5.30366e-01,9.99999e-01,9.99999e-01,9.94923e-01,5.33072e-01,9.99999e-01
9.018370173e-01,5.39436e-01,9.99999e-01,9.99999e-01,9.99441e-01,5.39737e-01,9.99999e-01
9.063462024e-01,5.38319e-01,9.99999e-01,9.99999e-01,9.85297e-01,5.46352e-01,9.99999e-01
9.108779334e-01,5.34787e-01,9.99999e-01,9.99999e-01,9.67213e-01,5.52914e-01,9.99999e-01
9.154323231e-01,5.55111e-01,9.99999e-01,9.99999e-01,9.92290e-01,5.59424e-01,9.99999e-01
9.200094847e-01,5.05923e-01,9.99999e-01,9.99999e-01,8.94047e-01,5.65879e-01,9.99999e-01
9.246095321e-01,4.86148e-01,9.99999e-01,9.99999e-01,8.49493e-01,5.72279e-01,9.99999e-01
9.292325798e-01,5.08818e-01,9.99999e-01,9.99999e-01,8.79358e-01,5.78623e-01,9.99999e-01
9.338787427e-01,5.16998e-01,9.99999e-01,9.99999e-01,8.83891e-01,5.84910e-01,9.99999e-01
9.385481364e-01,5.39762e-01,9.99999e-01,9.99999e-01,9.13086e-01,5.91139e-01,9.99999e-01
9.432408771e-01,5.65012e-01,9.99999e-01,9.99999e-01,9.45927e-01,5.97310e-01,9.99999e-01
9.479570815e-01,5.86418e-01,9.99999e-01,9.99999e-01,9.71822e-01,6.03421e-01,9.99999e-01
9.526968669e-01,6.01151e-01,9.99999e-01,9.99999e-01,9.86347e-01,6.09471e-01,9.99999e-01
9.574603512e-01,6.11858e-01,9.99999e-01,9.99999e-01,9.94144e-01,6.15462e-01,9.99999e-01
9.622476530e-01,6.20255e-01,9.99999e-01,9.99999e-01,9.98172e-01,6.21391e-01,9.99999e-01
9.670588912e-01,6.26916e-01,9.99999e-01,9.99999e-01,9.99453e-01,6.27258e-01,9.99999e-01
9.718941857e-01,6.33040e-01,9.99999e-01,9.99999e-01,9.99961e-01,6.33064e-01,9.99999e-01
9.767536566e-01,6.38806e-01,9.99999e-01,9.99999e-01,9.99999e-01,6.38806e-01,9.99999e-01
9.816374249e-01,6.44486e-01,9.99999e-01,9.99999e-01,9.99999e-01,6.44486e-01,9.99999e-01
9.865456120e-01,6.50103e-01,9.99999e-01,9.99999e-01,9.99999e-01,6.50103e-01,9.99999e-01
9.914783401e-01,6.55656e-01,9.99999e-01,9.99999e-01,9.99999e-01,6.55656e-01,9.99999e-01
9.964357318e-01,6.61146e-01,9.99999e-01,9.99999e-01,9.99999e-01,6.61146e-01,9.99999e-01
1.001417910e+00,6.66572e-01,9.99999e-01,9.99999e-01,9.99999e-01,6.66572e-01,9.99999e-01
1.006425000e+00,6.71934e-01,9.99999e-01,9.99999e-01,9.99999e-01,6.71934e-01,9.99999e-01
1.011457125e+00,6.77231e-01,9.99999e-01,9.99999e-01,9.99999e-01,6.77231e-01,9.99999e-01
1.016514411e+00,6.82465e-01,9.99999e-01,9.99999e-01,9.99999e-01,6.82465e-01,9.99999e-01
1.021596983e+00,6.87574e-01,9.99999e-01,9.99999e-01,9.99910e-01,6.87635e-01,9.99999e-01
1.026704968e+00,6.88724e-01,9.99999e-01,9.99999e-01,9.94202e-01,6.92740e-01,9.99999e-01
1.031838492e+00,6.54252e-01,9.99999e-01,9.99999e-01,9.37617e-01,6.97781e-01,9.99999e-01
1.036997685e+00,7.21051e-02,9.99999e-01,9.99999e-01,1.02603e-01,7.02759e-01,9.99999e-01
1.042182673e+00,3.28820e-02,9.99999e-01,9.99999e-01,4.64649e-02,7.07672e-01,9.99999e-01
1.047393587e+00,4.87180e-02,9.99999e-01,9.99999e-01,6.83739e-02,7.12522e-01,9.99999e-01
1.052630555e+00,3.13398e-04,9.99999e-01,9.99999e-01,4.36908e-04,7.17309e-01,9.99999e-01
1.057893707e+00,9.98080e-04,9.99999e-01,9.99999e-01,1.38232e-03,7.22032e-01,9.99999e-01
1.063183176e+00,5.42082e-03,9.99999e-01,9.99999e-01,7.45958e-03,7.26691e-01,9.99999e-01
1.068499092e+00,2.19106e-02,9.99999e-01,9.99999e-01,2.99616e-02,7.31288e-01,9.99999e-01
1.073841587e+00,7.98279e-02,9.99999e-01,9.99999e-01,1.08488e-01,7.35823e-01,9.99999e-01
1.079210795e+00,1.81415e-01,9.99999e-01,9.99999e-01,2.45057e-01,7.40295e-01,9.99999e-01
1.084606849e+00,3.41586e-01,9.99999e-01,9.99999e-01,4.58686e-01,7.44705e-01,9.99999e-01
1.090029883e+00,4.99050e-01,9.99999e-01,9.99999e-01,6.66239e-01,7.49054e-01,9.99999e-01
1.095480033e+00,6.16787e-01,9.99999e-01,9.99999e-01,8.18734e-01,7.53341e-01,9.99999e-01
1.100957433e+00,6.87862e-01,9.99999e-01,9.99999e-01,9.07987e-01,7.57568e-01,9.99999e-01
1.106462220e+00,7.31964e-01,9.99999e-01,9.99999e-01,9.60918e-01,7.61734e-01,9.99999e-01
1.111994531e+00,7.54603e-01,9.99999e-01,9.99999e-01,9.85327e-01,7.65840e-01,9.99999e-01
1.117554504e+00,7.67128e-01,9.99999e-01,9.99999e-01,9.96417e-01,7.69886e-01,9.99999e-01
1.123142276e+00,7.73692e-01,9.99999e-01,9.99999e-01,9.99765e-01,7.73873e-01,9.99999e-01
1.128757988e+00,7.77801e-01,9.99999e-01,9.99999e-01,9.99999e-01,7.77801e-01,9.99999e-01
1.134401778e+00,7.81672e-01,9.99999e-01,9.99999e-01,9.99999e-01,7.81672e-01,9.99999e-01
1.140073787e+00,7.85484e-01,9.99999e-01,9.99999e-01,9.99999e-01,7.85484e-01,9.99999e-01
1.145774156e+00,7.89239e-01,9.99999e-01,9.99999e-01,9.99999e-01,7.89239e-01,9.99999e-01
1.151503026e+00,7.92938e-01,9.99999e-01,9.99999e-01,9.99999e-01,7.92938e-01,9.99999e-01
1.157260541e+00,7.96580e-01,9.99999e-01,9.99999e-01,9.99999e-01,7.96580e-01,9.99999e-01
1.163046844e+00,8.00166e-01,9.99999e-01,9.99999e-01,9.99999e-01,8.00166e-01,9.99999e-01
1.168862078e+00,8.03698e-01,9.99999e-01,9.99999e-01,9.99999e-01,8.03698e-01,9.99999e-01
1.174706389e+00,8.07174e-01,9.99999e-01,9.99999e-01,9.99999e-01,8.07174e-01,9.99999e-01
1.180579921e+00,8.10597e-01,9.99999e-01,9.99999e-01,9.99999e-01,8.10597e-01,9.99999e-01
1.186482820e+00,8.13955e-01,9.99999e-01,9.99999e-01,9.99986e-01,8.13966e-01,9.99999e-01
1.192415234e+00,8.00551e-01,9.99999e-01,9.99999e-01,9.79527e-01,8.17282e-01,9.99999e-01
1.198377311e+00,4.49942e-01,9.99999e-01,9.99999e-01,5.48344e-01,8.20546e-01,9.99999e-01
1.204369197e+00,7.82537e-16,9.99999e-01,9.99999e-01,9.49960e-16,8.23758e-01,9.99999e-01
1.210391043e+00,1.32303e-60,9.99999e-01,9.99999e-01,1.59995e-60,8.26919e-01,9.99999e-01
1.216442998e+00,1.34140e-52,9.99999e-01,9.99999e-01,1.61608e-52,8.30029e-01,9.99999e-01
1.222525213e+00,7.94146e-52,9.99999e-01,9.99999e-01,9.53254e-52,8.33088e-01,9.99999e-01
1.228637839e+00,3.98955e-40,9.99999e-01,9.99999e-01,4.77162e-40,8.36099e-01,9.99999e-01
