#,Wave/freq,Total,N2,O2,CO2,Rayleigh,CIA
4.000000000e-01,2.23885e-04,9.99999e-01,9.99999e-01,9.99999e-01,2.23885e-04,9.99999e-01
4.020000000e-01,2.64359e-04,9.99999e-01,9.99999e-01,9.99999e-01,2.64359e-04,9.99999e-01
4.040100000e-01,3.11075e-04,9.99999e-01,9.99999e-01,9.99999e-01,3.11075e-04,9.99999e-01
4.060300500e-01,3.64871e-04,9.99999e-01,9.99999e-01,9.99999e-01,3.64871e-04,9.99999e-01
4.080602003e-01,4.26624e-04,9.99999e-01,9.99999e-01,9.99999e-01,4.26624e-04,9.99999e-01
4.101005013e-01,4.97291e-04,9.99999e-01,9.99999e-01,9.99999e-01,4.97291e-04,9.99999e-01
4.121510038e-01,5.77911e-04,9.99999e-01,9.99999e-01,9.99999e-01,5.77911e-04,9.99999e-01
4.142117588e-01,6.69610e-04,9.99999e-01,9.99999e-01,9.99999e-01,6.69610e-04,9.99999e-01
4.162828176e-01,7.73606e-04,9.99999e-01,9.99999e-01,9.99999e-01,7.73606e-04,9.99999e-01
4.183642317e-01,8.91208e-04,9.99999e-01,9.99999e-01,9.99999e-01,8.91208e-04,9.99999e-01
4.204560528e-01,1.02382e-03,9.99999e-01,9.99999e-01,9.99999e-01,1.02382e-03,9.99999e-01
4.225583331e-01,1.17295e-03,9.99999e-01,9.99999e-01,9.99999e-01,1.17295e-03,9.99999e-01
4.246711247e-01,1.34020e-03,9.99999e-01,9.99999e-01,9.99999e-01,1.34020e-03,9.99999e-01
4.267944804e-01,1.52727e-03,9.99999e-01,9.99999e-01,9.99999e-01,1.52727e-03,9.99999e-01
4.289284528e-01,1.73596e-03,9.99999e-01,9.99999e-01,9.99999e-01,1.73596e-03,9.99999e-01
4.310730950e-01,1.96818e-03,9.99999e-01,9.99999e-01,9.99999e-01,1.96818e-03,9.99999e-01
4.332284605e-01,2.22594e-03,9.99999e-01,9.99999e-01,9.99999e-01,2.22594e-03,9.99999e-01
4.353946028e-01,2.51135e-03,9.99999e-01,9.99999e-01,9.99999e-01,2.51135e-03,9.99999e-01
4.375715758e-01,2.82661e-03,9.99999e-01,9.99999e-01,9.99999e-01,2.82661e-03,9.99999e-01
4.397594337e-01,3.17402e-03,9.99999e-01,9.99999e-01,9.99999e-01,3.17402e-03,9.99999e-01
4.419582309e-01,3.55598e-03,9.99999e-01,9.99999e-01,9.99999e-01,3.55598e-03,9.99999e-01
4.441680220e-01,3.97497e-03,9.99999e-01,9.99999e-01,9.99999e-01,3.97497e-03,9.99999e-01
4.463888621e-01,4.43356e-03,9.99999e-01,9.99999e-01,9.99999e-01,4.43356e-03,9.99999e-01
4.486208064e-01,4.93441e-03,9.99999e-01,9.99999e-01,9.99999e-01,4.93441e-03,9.99999e-01
4.508639105e-01,5.48024e-03,9.99999e-01,9.99999e-01,9.99999e-01,5.48024e-03,9.99999e-01
4.531182300e-01,6.07384e-03,9.99999e-01,9.99999e-01,9.99999e-01,6.07384e-03,9.99999e-01
4.553838212e-01,6.71809e-03,9.99999e-01,9.99999e-01,9.99999e-01,6.71809e-03,9.99999e-01
4.576607403e-01,7.41588e-03,9.99999e-01,9.99999e-01,9.99999e-01,7.41588e-03,9.99999e-01
4.599490440e-01,8.17020e-03,9.99999e-01,9.99999e-01,9.99999e-01,8.17020e-03,9.99999e-01
4.622487892e-01,8.98403e-03,9.99999e-01,9.99999e-01,9.99999e-01,8.98403e-03,9.99999e-01
4.645600332e-01,9.86041e-03,9.99999e-01,9.99999e-01,9.99999e-01,9.86041e-03,9.99999e-01
4.668828333e-01,1.08024e-02,9.99999e-01,9.99999e-01,9.99999e-01,1.08024e-02,9.99999e-01
4.692172475e-01,1.18131e-02,9.99999e-01,9.99999e-01,9.99999e-01,1.18131e-02,9.99999e-01
4.715633337e-01,1.28955e-02,9.99999e-01,9.99999e-01,9.99999e-01,1.28955e-02,9.99999e-01
4.739211504e-01,1.40528e-02,9.99999e-01,9.99999e-01,9.99999e-01,1.40528e-02,9.99999e-01
4.762907561e-01,1.52879e-02,9.99999e-01,9.99999e-01,9.99999e-01,1.52879e-02,9.99999e-01
4.786722099e-01,1.66040e-02,9.99999e-01,9.99999e-01,9.99999e-01,1.66040e-02,9.99999e-01
4.810655710e-01,1.80039e-02,9.99999e-01,9.99999e-01,9.99999e-01,1.80039e-02,9.99999e-01
4.834708988e-01,1.94907e-02,9.99999e-01,9.99999e-01,9.99999e-01,1.94907e-02,9.99999e-01
4.858882533e-01,2.10673e-02,9.99999e-01,9.99999e-01,9.99999e-01,2.10673e-02,9.99999e-01
4.883176946e-01,2.27364e-02,9.99999e-01,9.99999e-01,9.99999e-01,2.27364e-02,9.99999e-01
4.907592831e-01,2.45008e-02,9.99999e-01,9.99999e-01,9.99999e-01,2.45008e-02,9.99999e-01
4.932130795e-01,2.63632e-02,9.99999e-01,9.99999e-01,9.99999e-01,2.63632e-02,9.99999e-01
4.956791449e-01,2.83261e-02,9.99999e-01,9.99999e-01,9.99999e-01,2.83261e-02,9.99999e-01
4.981575406e-01,3.03921e-02,9.99999e-01,9.99999e-01,9.99999e-01,3.03921e-02,9.99999e-01
5.006483283e-01,3.25634e-02,9.99999e-01,9.99999e-01,9.99999e-01,3.25634e-02,9.99999e-01
5.031515699e-01,3.48423e-02,9.99999e-01,9.99999e-01,9.99999e-01,3.48423e-02,9.99999e-01
5.056673278e-01,3.72309e-02,9.99999e-01,9.99999e-01,9.99999e-01,3.72309e-02,9.99999e-01
5.081956644e-01,3.97312e-02,9.99999e-01,9.99999e-01,9.99999e-01,3.97312e-02,9.99999e-01
5.107366428e-01,4.23450e-02,9.99999e-01,9.99999e-01,9.99999e-01,4.23450e-02,9.99999e-01
5.132903260e-01,4.50740e-02,9.99999e-01,9.99999e-01,9.99999e-01,4.50740e-02,9.99999e-01
5.158567776e-01,4.79198e-02,9.99999e-01,9.99999e-01,9.99999e-01,4.79198e-02,9.99999e-01
5.184360615e-01,5.08836e-02,9.99999e-01,9.99999e-01,9.99999e-01,5.08836e-02,9.99999e-01
5.210282418e-01,5.39667e-02,9.99999e-01,9.99999e-01,9.99999e-01,5.39667e-02,9.99999e-01
5.236333830e-01,5.71702e-02,9.99999e-01,9.99999e-01,9.99999e-01,5.71702e-02,9.99999e-01
5.262515499e-01,6.04949e-02,9.99999e-01,9.99999e-01,9.99999e-01,6.04949e-02,9.99999e-01
5.288828077e-01,6.39415e-02,9.99999e-01,9.99999e-01,9.99999e-01,6.39415e-02,9.99999e-01
5.315272217e-01,6.75105e-02,9.99999e-01,9.99999e-01,9.99999e-01,6.75105e-02,9.99999e-01
5.341848578e-01,7.12024e-02,9.99999e-01,9.99999e-01,9.99999e-01,7.12024e-02,9.99999e-01
5.368557821e-01,7.50171e-02,9.99999e-01,9.99999e-01,9.99999e-01,7.50171e-02,9.99999e-01
5.395400610e-01,7.89549e-02,9.99999e-01,9.99999e-01,9.99999e-01,7.89549e-02,9.99999e-01
5.422377613e-01,8.30153e-02,9.99999e-01,9.99999e-01,9.99999e-01,8.30153e-02,9.99999e-01
5.449489501e-01,8.71982e-02,9.99999e-01,9.99999e-01,9.99999e-01,8.71982e-02,9.99999e-01
5.476736949e-01,9.15030e-02,9.99999e-01,9.99999e-01,9.99999e-01,9.15030e-02,9.99999e-01
5.504120634e-01,9.59289e-02,9.99999e-01,9.99999e-01,9.99999e-01,9.59289e-02,9.99999e-01
5.531641237e-01,1.00475e-01,9.99999e-01,9.99999e-01,9.99999e-01,1.00475e-01,9.99999e-01
5.559299443e-01,1.05141e-01,9.99999e-01,9.99999e-01,9.99999e-01,1.05141e-01,9.99999e-01
5.587095940e-01,1.09924e-01,9.99999e-01,9.99999e-01,9.99999e-01,1.09924e-01,9.99999e-01
5.615031420e-01,1.14824e-01,9.99999e-01,9.99999e-01,9.99999e-01,1.14824e-01,9.99999e-01
5.643106577e-01,1.19840e-01,9.99999e-01,9.99999e-01,9.99999e-01,1.19840e-01,9.99999e-01
5.671322110e-01,1.24968e-01,9.99999e-01,9.99999e-01,9.99999e-01,1.24968e-01,9.99999e-01
5.699678720e-01,1.30209e-01,9.99999e-01,9.99999e-01,9.99999e-01,1.30209e-01,9.99999e-01
5.728177114e-01,1.35559e-01,9.99999e-01,9.99999e-01,9.99999e-01,1.35559e-01,9.99999e-01
5.756818000e-01,1.41017e-01,9.99999e-01,9.99999e-01,9.99999e-01,1.41017e-01,9.99999e-01
5.785602090e-01,1.46580e-01,9.99999e-01,9.99999e-01,9.99999e-01,1.46580e-01,9.99999e-01
5.814530100e-01,1.52246e-01,9.99999e-01,9.99999e-01,9.99999e-01,1.52246e-01,9.99999e-01
5.843602750e-01,1.58013e-01,9.99999e-01,9.99999e-01,9.99999e-01,1.58013e-01,9.99999e-01
5.872820764e-01,1.63878e-01,9.99999e-01,9.99999e-01,9.99999e-01,1.63878e-01,9.99999e-01
5.902184868e-01,1.69839e-01,9.99999e-01,9.99999e-01,9.99999e-01,1.69839e-01,9.99999e-01
5.931695792e-01,1.75892e-01,9.99999e-01,9.99999e-01,9.99999e-01,1.75892e-01,9.99999e-01
5.961354271e-01,1.82035e-01,9.99999e-01,9.99999e-01,9.99999e-01,1.82035e-01,9.99999e-01
5.991161043e-01,1.88264e-01,9.99999e-01,9.99999e-01,9.99999e-01,1.88264e-01,9.99999e-01
6.021116848e-01,1.94578e-01,9.99999e-01,9.99999e-01,9.99999e-01,1.94578e-01,9.99999e-01
6.051222432e-01,2.00972e-01,9.99999e-01,9.99999e-01,9.99999e-01,2.00972e-01,9.99999e-01
6.081478544e-01,2.07443e-01,9.99999e-01,9.99999e-01,9.99999e-01,2.07443e-01,9.99999e-01
6.111885937e-01,2.13990e-01,9.99999e-01,9.99999e-01,9.99999e-01,2.13990e-01,9.99999e-01
6.142445367e-01,2.20607e-01,9.99999e-01,9.99999e-01,9.99999e-01,2.20607e-01,9.99999e-01
6.173157594e-01,2.27292e-01,9.99999e-01,9.99999e-01,9.99999e-01,2.27292e-01,9.99999e-01
6.204023382e-01,2.34042e-01,9.99999e-01,9.99999e-01,9.99999e-01,2.34042e-01,9.99999e-01
6.235043498e-01,2.40853e-01,9.99999e-01,9.99999e-01,9.99999e-01,2.40853e-01,9.99999e-01
6.266218716e-01,2.47721e-01,9.99999e-01,9.99999e-01,9.99999e-01,2.47721e-01,9.99999e-01
6.297549810e-01,2.54644e-01,9.99999e-01,9.99999e-01,9.99999e-01,2.54644e-01,9.99999e-01
6.329037559e-01,2.61618e-01,9.99999e-01,9.99999e-01,9.99999e-01,2.61618e-01,9.99999e-01
6.360682746e-01,2.68640e-01,9.99999e-01,9.99999e-01,9.99999e-01,2.68640e-01,9.99999e-01
6.392486160e-01,2.75706e-01,9.99999e-01,9.99999e-01,9.99999e-01,2.75706e-01,9.99999e-01
6.424448591e-01,2.82812e-01,9.99999e-01,9.99999e-01,9.99999e-01,2.82812e-01,9.99999e-01
6.456570834e-01,2.89956e-01,9.99999e-01,9.99999e-01,9.99999e-01,2.89956e-01,9.99999e-01
6.488853688e-01,2.97134e-01,9.99999e-01,9.99999e-01,9.99999e-01,2.97134e-01,9.99999e-01
6.521297956e-01,3.04343e-01,9.99999e-01,9.99999e-01,9.99999e-01,3.04343e-01,9.99999e-01
6.553904446e-01,3.11579e-01,9.99999e-01,9.99999e-01,9.99999e-01,3.11579e-01,9.99999e-01
6.586673968e-01,3.18839e-01,9.99999e-01,9.99999e-01,9.99999e-01,3.18839e-01,9.99999e-01
6.619607338e-01,3.26120e-01,9.99999e-01,9.99999e-01,9.99999e-01,3.26120e-01,9.99999e-01
6.652705375e-01,3.33418e-01,9.99999e-01,9.99999e-01,9.99999e-01,3.33418e-01,9.99999e-01
6.685968902e-01,3.40731e-01,9.99999e-01,9.99999e-01,9.99999e-01,3.40731e-01,9.99999e-01
6.719398746e-01,3.48055e-01,9.99999e-01,9.99999e-01,9.99999e-01,3.48055e-01,9.99999e-01
6.752995740e-01,3.55387e-01,9.99999e-01,9.99999e-01,9.99999e-01,3.55387e-01,9.99999e-01
6.786760719e-01,3.62724e-01,9.99999e-01,9.99999e-01,9.99999e-01,3.62724e-01,9.99999e-01
6.820694522e-01,3.70063e-01,9.99999e-01,9.99999e-01,9.99999e-01,3.70063e-01,9.99999e-01
6.854797995e-01,3.77401e-01,9.99999e-01,9.99999e-01,9.99999e-01,3.77401e-01,9.99999e-01
6.889071985e-01,3.84735e-01,9.99999e-01,9.99999e-01,9.99999e-01,3.84735e-01,9.99999e-01
6.923517345e-01,3.92063e-01,9.99999e-01,9.99999e-01,9.99999e-01,3.92063e-01,9.99999e-01
6.958134932e-01,3.99382e-01,9.99999e-01,9.99999e-01,9.99999e-01,3.99382e-01,9.99999e-01
6.992925606e-01,4.06688e-01,9.99999e-01,9.99999e-01,9.99999e-01,4.06688e-01,9.99999e-01
7.027890234e-01,4.13981e-01,9.99999e-01,9.99999e-01,9.99999e-01,4.13981e-01,9.99999e-01
7.063029686e-01,4.21255e-01,9.99999e-01,9.99999e-01,9.99999e-01,4.21255e-01,9.99999e-01
7.098344834e-01,4.28511e-01,9.99999e-01,9.99999e-01,9.99999e-01,4.28511e-01,9.99999e-01
7.133836558e-01,4.35744e-01,9.99999e-01,9.99999e-01,9.99999e-01,4.35744e-01,9.99999e-01
7.169505741e-01,4.42953e-01,9.99999e-01,9.99999e-01,9.99999e-01,4.42953e-01,9.99999e-01
7.205353270e-01,4.50135e-01,9.99999e-01,9.99999e-01,9.99999e-01,4.50135e-01,9.99999e-01
7.241380036e-01,4.57288e-01,9.99999e-01,9.99999e-01,9.99999e-01,4.57288e-01,9.99999e-01
7.277586936e-01,4.64411e-01,9.99999e-01,9.99999e-01,9.99999e-01,4.64411e-01,9.99999e-01
7.313974871e-01,4.71500e-01,9.99999e-01,9.99999e-01,9.99999e-01,4.71500e-01,9.99999e-01
7.350544745e-01,4.78554e-01,9.99999e-01,9.99999e-01,9.99999e-01,4.78554e-01,9.99999e-01
7.387297469e-01,4.85572e-01,9.99999e-01,9.99999e-01,9.99999e-01,4.85572e-01,9.99999e-01
7.424233956e-01,4.92550e-01,9.99999e-01,9.99999e-01,9.99999e-01,4.92550e-01,9.99999e-01
7.461355126e-01,4.99488e-01,9.99999e-01,9.99999e-01,9.99999e-01,4.99488e-01,9.99999e-01
7.498661902e-01,5.06384e-01,9.99999e-01,9.99999e-01,9.99999e-01,5.06384e-01,9.99999e-01
7.536155211e-01,5.13236e-01,9.99999e-01,9.99999e-01,9.99999e-01,5.13236e-01,9.99999e-01
7.573835987e-01,5.20043e-01,9.99999e-01,9.99999e-01,9.99999e-01,5.20043e-01,9.99999e-01
7.611705167e-01,5.26803e-01,9.99999e-01,9.99999e-01,9.99999e-01,5.26803e-01,9.99999e-01
7.649763693e-01,5.33515e-01,9.99999e-01,9.99999e-01,9.99999e-01,5.33515e-01,9.99999e-01
7.688012511e-01,5.40177e-01,9.99999e-01,9.99999e-01,9.99999e-01,5.40177e-01,9.99999e-01
7.726452574e-01,5.46788e-01,9.99999e-01,9.99999e-01,9.99999e-01,5.46788e-01,9.99999e-01
7.765084837e-01,5.53347e-01,9.99999e-01,9.99999e-01,9.99999e-01,5.53347e-01,9.99999e-01
7.803910261e-01,5.44245e-01,9.99999e-01,9.99999e-01,9.72120e-01,5.59853e-01,9.99999e-01
7.842929812e-01,5.01750e-01,9.99999e-01,9.99999e-01,8.86005e-01,5.66305e-01,9.99999e-01
7.882144461e-01,5.02823e-01,9.99999e-01,9.99999e-01,8.77983e-01,5.72701e-01,9.99999e-01
7.921555184e-01,5.36968e-01,9.99999e-01,9.99999e-01,9.27338e-01,5.79042e-01,9.99999e-01
7.961162960e-01,5.56619e-01,9.99999e-01,9.99999e-01,9.50956e-01,5.85325e-01,9.99999e-01
8.000968774e-01,5.75636e-01,9.99999e-01,9.99999e-01,9.73097e-01,5.91550e-01,9.99999e-01
8.040973618e-01,5.89349e-01,9.99999e-01,9.99999e-01,9.86000e-01,5.97716e-01,9.99999e-01
8.081178486e-01,5.99923e-01,9.99999e-01,9.99999e-01,9.93540e-01,6.03823e-01,9.99999e-01
8.121584379e-01,6.08656e-01,9.99999e-01,9.99999e-01,9.98008e-01,6.09870e-01,9.99999e-01
8.162192301e-01,6.15586e-01,9.99999e-01,9.99999e-01,9.99559e-01,6.15856e-01,9.99999e-01
8.203003262e-01,6.21777e-01,9.99999e-01,9.99999e-01,9.99993e-01,6.21781e-01,9.99999e-01
8.244018279e-01,6.27645e-01,9.99999e-01,9.99999e-01,9.99999e-01,6.27645e-01,9.99999e-01
8.285238370e-01,6.33446e-01,9.99999e-01,9.99999e-01,9.99999e-01,6.33446e-01,9.99999e-01
8.326664562e-01,6.39185e-01,9.99999e-01,9.99999e-01,9.99999e-01,6.39185e-01,9.99999e-01
8.368297885e-01,6.44860e-01,9.99999e-01,9.99999e-01,9.99999e-01,6.44860e-01,9.99999e-01
8.410139374e-01,6.50473e-01,9.99999e-01,9.99999e-01,9.99999e-01,6.50473e-01,9.99999e-01
8.452190071e-01,6.56022e-01,9.99999e-01,9.99999e-01,9.99999e-01,6.56022e-01,9.99999e-01
8.494451021e-01,6.61507e-01,9.99999e-01,9.99999e-01,9.99999e-01,6.61507e-01,9.99999e-01
8.536923276e-01,6.66929e-01,9.99999e-01,9.99999e-01,9.99999e-01,6.66929e-01,9.99999e-01
8.579607893e-01,6.72286e-01,9.99999e-01,9.99999e-01,9.99999e-01,6.72286e-01,9.99999e-01
8.622505932e-01,6.77580e-01,9.99999e-01,9.99999e-01,9.99999e-01,6.77580e-01,9.99999e-01
8.665618462e-01,6.38031e-01,9.99999e-01,9.99999e-01,9.34419e-01,6.82809e-01,9.99999e-01
8.708946554e-01,5.04719e-01,9.99999e-01,9.99999e-01,7.33630e-01,6.87975e-01,9.99999e-01
8.752491287e-01,5.40855e-01,9.99999e-01,9.99999e-01,7.80368e-01,6.93076e-01,9.99999e-01
8.796253743e-01,6.09584e-01,9.99999e-01,9.99999e-01,8.73187e-01,6.98113e-01,9.99999e-01
8.840235012e-01,6.55437e-01,9.99999e-01,9.99999e-01,9.32228e-01,7.03086e-01,9.99999e-01
8.884436187e-01,6.88727e-01,9.99999e-01,9.99999e-01,9.72783e-01,7.07996e-01,9.99999e-01
8.928858368e-01,7.04918e-01,9.99999e-01,9.99999e-01,9.88884e-01,7.12841e-01,9.99999e-01
8.973502660e-01,7.15684e-01,9.99999e-01,9.99999e-01,9.97296e-01,7.17623e-01,9.99999e-01
9.018370173e-01,7.22127e-01,9.99999e-01,9.99999e-01,9.99701e-01,7.22342e-01,9.99999e-01
9.063462024e-01,7.21371e-01,9.99999e-01,9.99999e-01,9.92258e-01,7.26998e-01,9.99999e-01
9.108779334e-01,7.18784e-01,9.99999e-01,9.99999e-01,9.82494e-01,7.31591e-01,9.99999e-01
9.154323231e-01,7.33090e-01,9.99999e-01,9.99999e-01,9.95881e-01,7.36121e-01,9.99999e-01
9.200094847e-01,6.96423e-01,9.99999e-01,9.99999e-01,9.40363e-01,7.40589e-01,9.99999e-01
9.246095321e-01,6.83235e-01,9.99999e-01,9.99999e-01,9.17099e-01,7.44995e-01,9.99999e-01
9.292325798e-01,6.99926e-01,9.99999e-01,9.99999e-01,9.34056e-01,7.49340e-01,9.99999e-01
9.338787427e-01,7.05767e-01,9.99999e-01,9.99999e-01,9.36498e-01,7.53623e-01,9.99999e-01
9.385481364e-01,7.22204e-01,9.99999e-01,9.99999e-01,9.52969e-01,7.57845e-01,9.99999e-01
9.432408771e-01,7.39903e-01,9.99999e-01,9.99999e-01,9.70990e-01,7.62007e-01,9.99999e-01
9.479570815e-01,7.54620e-01,9.99999e-01,9.99999e-01,9.85001e-01,7.66109e-01,9.99999e-01
9.526968669e-01,7.64566e-01,9.99999e-01,9.99999e-01,9.92746e-01,7.70152e-01,9.99999e-01
9.574603512e-01,7.71731e-01,9.99999e-01,9.99999e-01,9.96893e-01,7.74135e-01,9.99999e-01
9.622476530e-01,7.77306e-01,9.99999e-01,9.99999e-01,9.99030e-01,7.78060e-01,9.99999e-01
9.670588912e-01,7.81699e-01,9.99999e-01,9.99999e-01,9.99709e-01,7.81926e-01,9.99999e-01
9.718941857e-01,7.85719e-01,9.99999e-01,9.99999e-01,9.99979e-01,7.85735e-01,9.99999e-01
9.767536566e-01,7.89486e-01,9.99999e-01,9.99999e-01,9.99999e-01,7.89486e-01,9.99999e-01
9.816374249e-01,7.93181e-01,9.99999e-01,9.99999e-01,9.99999e-01,7.93181e-01,9.99999e-01
9.865456120e-01,7.96819e-01,9.99999e-01,9.99999e-01,9.99999e-01,7.96819e-01,9.99999e-01
9.914783401e-01,8.00402e-01,9.99999e-01,9.99999e-01,9.99999e-01,8.00402e-01,9.99999e-01
9.964357318e-01,8.03930e-01,9.99999e-01,9.99999e-01,9.99999e-01,8.03930e-01,9.99999e-01
1.001417910e+00,8.07403e-01,9.99999e-01,9.99999e-01,9.99999e-01,8.07403e-01,9.99999e-01
1.006425000e+00,8.10822e-01,9.99999e-01,9.99999e-01,9.99999e-01,8.10822e-01,9.99999e-01
1.011457125e+00,8.14187e-01,9.99999e-01,9.99999e-01,9.99999e-01,8.14187e-01,9.99999e-01
1.016514411e+00,8.17500e-01,9.99999e-01,9.99999e-01,9.99999e-01,8.17500e-01,9.99999e-01
1.021596983e+00,8.20725e-01,9.99999e-01,9.99999e-01,9.99956e-01,8.20760e-01,9.99999e-01
1.026704968e+00,8.21478e-01,9.99999e-01,9.99999e-01,9.96976e-01,8.23969e-01,9.99999e-01
1.031838492e+00,7.94808e-01,9.99999e-01,9.99999e-01,9.60926e-01,8.27126e-01,9.99999e-01
1.036997685e+00,1.55066e-01,9.99999e-01,9.99999e-01,1.86774e-01,8.30233e-01,9.99999e-01
1.042182673e+00,1.49324e-01,9.99999e-01,9.99999e-01,1.79198e-01,8.33289e-01,9.99999e-01
1.047393587e+00,1.59545e-01,9.99999e-01,9.99999e-01,1.90775e-01,8.36297e-01,9.99999e-01
1.052630555e+00,8.38395e-03,9.99999e-01,9.99999e-01,9.98974e-03,8.39255e-01,9.99999e-01
1.057893707e+00,1.93650e-02,9.99999e-01,9.99999e-01,2.29942e-02,8.42165e-01,9.99999e-01
1.063183176e+00,5.30712e-02,9.99999e-01,9.99999e-01,6.28041e-02,8.45027e-01,9.99999e-01
1.068499092e+00,1.26822e-01,9.99999e-01,9.99999e-01,1.49582e-01,8.47843e-01,9.99999e-01
1.073841587e+00,2.56700e-01,9.99999e-01,9.99999e-01,3.01783e-01,8.50611e-01,9.99999e-01
1.079210795e+00,3.99880e-01,9.99999e-01,9.99999e-01,4.68609e-01,8.53334e-01,9.99999e-01
1.084606849e+00,5.64906e-01,9.99999e-01,9.99999e-01,6.59927e-01,8.56012e-01,9.99999e-01
1.090029883e+00,6.92100e-01,9.99999e-01,9.99999e-01,8.06037e-01,8.58644e-01,9.99999e-01
1.095480033e+00,7.74508e-01,9.99999e-01,9.99999e-01,8.99300e-01,8.61233e-01,9.99999e-01
1.100957433e+00,8.20739e-01,9.99999e-01,9.99999e-01,9.50173e-01,8.63778e-01,9.99999e-01
1.106462220e+00,8.48178e-01,9.99999e-01,9.99999e-01,9.79103e-01,8.66280e-01,9.99999e-01
1.111994531e+00,8.61968e-01,9.99999e-01,9.99999e-01,9.92204e-01,8.68740e-01,9.99999e-01
1.117554504e+00,8.69499e-01,9.99999e-01,9.99999e-01,9.98095e-01,8.71158e-01,9.99999e-01
1.123142276e+00,8.73426e-01,9.99999e-01,9.99999e-01,9.99874e-01,8.73535e-01,9.99999e-01
1.128757988e+00,8.75871e-01,9.99999e-01,9.99999e-01,9.99999e-01,8.75871e-01,9.99999e-01
1.134401778e+00,8.78167e-01,9.99999e-01,9.99999e-01,9.99999e-01,8.78167e-01,9.99999e-01
1.140073787e+00,8.80423e-01,9.99999e-01,9.99999e-01,9.99999e-01,8.80423e-01,9.99999e-01
1.145774156e+00,8.82641e-01,9.99999e-01,9.99999e-01,9.99999e-01,8.82641e-01,9.99999e-01
1.151503026e+00,8.84820e-01,9.99999e-01,9.99999e-01,9.99999e-01,8.84820e-01,9.99999e-01
1.157260541e+00,8.86961e-01,9.99999e-01,9.99999e-01,9.99999e-01,8.86961e-01,9.99999e-01
1.163046844e+00,8.89065e-01,9.99999e-01,9.99999e-01,9.99999e-01,8.89065e-01,9.99999e-01
1.168862078e+00,8.91132e-01,9.99999e-01,9.99999e-01,9.99999e-01,8.91132e-01,9.99999e-01
1.174706389e+00,8.93164e-01,9.99999e-01,9.99999e-01,9.99999e-01,8.93164e-01,9.99999e-01
1.180579921e+00,8.95159e-01,9.99999e-01,9.99999e-01,9.99999e-01,8.95159e-01,9.99999e-01
1.186482820e+00,8.97114e-01,9.99999e-01,9.99999e-01,9.99993e-01,8.97119e-01,9.99999e-01
1.192415234e+00,8.89330e-01,9.99999e-01,9.99999e-01,9.89193e-01,8.99045e-01,9.99999e-01
1.198377311e+00,5.10992e-01,9.99999e-01,9.99999e-01,5.67177e-01,9.00937e-01,9.99999e-01
1.204369197e+00,2.05807e-09,9.99999e-01,9.99999e-01,2.27966e-09,9.02796e-01,9.99999e-01
1.210391043e+00,5.03274e-33,9.99999e-01,9.99999e-01,5.56336e-33,9.04621e-01,9.99999e-01
1.216442998e+00,8.39577e-29,9.99999e-01,9.99999e-01,9.26262e-29,9.06414e-01,9.99999e-01
1.222525213e+00,2.15152e-28,9.99999e-01,9.99999e-01,2.36906e-28,9.08175e-01,9.99999e-01
1.228637839e+00,5.67191e-22,9.99999e-01,9.99999e-01,6.23352e-22,9.09904e-01,9.99999e-01
