#,Wave/freq,Total,N2,O2,CO2,Rayleigh,CIA
4.000000000e-01,2.56972e-02,9.99999e-01,9.99999e-01,9.99999e-01,2.56972e-02,9.99999e-01
4.020000000e-01,2.76266e-02,9.99999e-01,9.99999e-01,9.99999e-01,2.76266e-02,9.99999e-01
4.040100000e-01,2.96561e-02,9.99999e-01,9.99999e-01,9.99999e-01,2.96561e-02,9.99999e-01
4.060300500e-01,3.17903e-02,9.99999e-01,9.99999e-01,9.99999e-01,3.17903e-02,9.99999e-01
4.080602003e-01,3.40312e-02,9.99999e-01,9.99999e-01,9.99999e-01,3.40312e-02,9.99999e-01
4.101005013e-01,3.63812e-02,9.99999e-01,9.99999e-01,9.99999e-01,3.63812e-02,9.99999e-01
4.121510038e-01,3.88421e-02,9.99999e-01,9.99999e-01,9.99999e-01,3.88421e-02,9.99999e-01
4.142117588e-01,4.14159e-02,9.99999e-01,9.99999e-01,9.99999e-01,4.14159e-02,9.99999e-01
4.162828176e-01,4.41044e-02,9.99999e-01,9.99999e-01,9.99999e-01,4.41044e-02,9.99999e-01
4.183642317e-01,4.69091e-02,9.99999e-01,9.99999e-01,9.99999e-01,4.69091e-02,9.99999e-01
4.204560528e-01,4.98314e-02,9.99999e-01,9.99999e-01,9.99999e-01,4.98314e-02,9.99999e-01
4.225583331e-01,5.28726e-02,9.99999e-01,9.99999e-01,9.99999e-01,5.28726e-02,9.99999e-01
4.246711247e-01,5.60337e-02,9.99999e-01,9.99999e-01,9.99999e-01,5.60337e-02,9.99999e-01
4.267944804e-01,5.93159e-02,9.99999e-01,9.99999e-01,9.99999e-01,5.93159e-02,9.99999e-01
4.289284528e-01,6.27197e-02,9.99999e-01,9.99999e-01,9.99999e-01,6.27197e-02,9.99999e-01
4.310730950e-01,6.62458e-02,9.99999e-01,9.99999e-01,9.99999e-01,6.62458e-02,9.99999e-01
4.332284605e-01,6.98945e-02,9.99999e-01,9.99999e-01,9.99999e-01,6.98945e-02,9.99999e-01
4.353946028e-01,7.36662e-02,9.99999e-01,9.99999e-01,9.99999e-01,7.36662e-02,9.99999e-01
4.375715758e-01,7.75608e-02,9.99999e-01,9.99999e-01,9.99999e-01,7.75608e-02,9.99999e-01
4.397594337e-01,8.15783e-02,9.99999e-01,9.99999e-01,9.99999e-01,8.15783e-02,9.99999e-01
4.419582309e-01,8.57184e-02,9.99999e-01,9.99999e-01,9.99999e-01,8.57184e-02,9.99999e-01
4.441680220e-01,8.99805e-02,9.99999e-01,9.99999e-01,9.99999e-01,8.99805e-02,9.99999e-01
4.463888621e-01,9.43640e-02,9.99999e-01,9.99999e-01,9.99999e-01,9.43640e-02,9.99999e-01
4.486208064e-01,9.88682e-02,9.99999e-01,9.99999e-01,9.99999e-01,9.88682e-02,9.99999e-01
4.508639105e-01,1.03492e-01,9.99999e-01,9.99999e-01,9.99999e-01,1.03492e-01,9.99999e-01
4.531182300e-01,1.08234e-01,9.99999e-01,9.99999e-01,9.99999e-01,1.08234e-01,9.99999e-01
4.553838212e-01,1.13094e-01,9.99999e-01,9.99999e-01,9.99999e-01,1.13094e-01,9.99999e-01
4.576607403e-01,1.18069e-01,9.99999e-01,9.99999e-01,9.99999e-01,1.18069e-01,9.99999e-01
4.599490440e-01,1.23158e-01,9.99999e-01,9.99999e-01,9.99999e-01,1.23158e-01,9.99999e-01
4.622487892e-01,1.28360e-01,9.99999e-01,9.99999e-01,9.99999e-01,1.28360e-01,9.99999e-01
4.645600332e-01,1.33672e-01,9.99999e-01,9.99999e-01,9.99999e-01,1.33672e-01,9.99999e-01
4.668828333e-01,1.39092e-01,9.99999e-01,9.99999e-01,9.99999e-01,1.39092e-01,9.99999e-01
4.692172475e-01,1.44619e-01,9.99999e-01,9.99999e-01,9.99999e-01,1.44619e-01,9.99999e-01
4.715633337e-01,1.50249e-01,9.99999e-01,9.99999e-01,9.99999e-01,1.50249e-01,9.99999e-01
4.739211504e-01,1.55981e-01,9.99999e-01,9.99999e-01,9.99999e-01,1.55981e-01,9.99999e-01
4.762907561e-01,1.61812e-01,9.99999e-01,9.99999e-01,9.99999e-01,1.61812e-01,9.99999e-01
4.786722099e-01,1.67739e-01,9.99999e-01,9.99999e-01,9.99999e-01,1.67739e-01,9.99999e-01
4.810655710e-01,1.73760e-01,9.99999e-01,9.99999e-01,9.99999e-01,1.73760e-01,9.99999e-01
4.834708988e-01,1.79872e-01,9.99999e-01,9.99999e-01,9.99999e-01,1.79872e-01,9.99999e-01
4.858882533e-01,1.86071e-01,9.99999e-01,9.99999e-01,9.99999e-01,1.86071e-01,9.99999e-01
4.883176946e-01,1.92356e-01,9.99999e-01,9.99999e-01,9.99999e-01,1.92356e-01,9.99999e-01
4.907592831e-01,1.98722e-01,9.99999e-01,9.99999e-01,9.99999e-01,1.98722e-01,9.99999e-01
4.932130795e-01,2.05167e-01,9.99999e-01,9.99999e-01,9.99999e-01,2.05167e-01,9.99999e-01
4.956791449e-01,2.11687e-01,9.99999e-01,9.99999e-01,9.99999e-01,2.11687e-01,9.99999e-01
4.981575406e-01,2.18280e-01,9.99999e-01,9.99999e-01,9.99999e-01,2.18280e-01,9.99999e-01
5.006483283e-01,2.24942e-01,9.99999e-01,9.99999e-01,9.99999e-01,2.24942e-01,9.99999e-01
5.031515699e-01,2.31669e-01,9.99999e-01,9.99999e-01,9.99999e-01,2.31669e-01,9.99999e-01
5.056673278e-01,2.38459e-01,9.99999e-01,9.99999e-01,9.99999e-01,2.38459e-01,9.99999e-01
5.081956644e-01,2.45308e-01,9.99999e-01,9.99999e-01,9.99999e-01,2.45308e-01,9.99999e-01
5.107366428e-01,2.52212e-01,9.99999e-01,9.99999e-01,9.99999e-01,2.52212e-01,9.99999e-01
5.132903260e-01,2.59169e-01,9.99999e-01,9.99999e-01,9.99999e-01,2.59169e-01,9.99999e-01
5.158567776e-01,2.66174e-01,9.99999e-01,9.99999e-01,9.99999e-01,2.66174e-01,9.99999e-01
5.184360615e-01,2.73225e-01,9.99999e-01,9.99999e-01,9.99999e-01,2.73225e-01,9.99999e-01
5.210282418e-01,2.80317e-01,9.99999e-01,9.99999e-01,9.99999e-01,2.80317e-01,9.99999e-01
5.236333830e-01,2.87449e-01,9.99999e-01,9.99999e-01,9.99999e-01,2.87449e-01,9.99999e-01
5.262515499e-01,2.94615e-01,9.99999e-01,9.99999e-01,9.99999e-01,2.94615e-01,9.99999e-01
5.288828077e-01,3.01813e-01,9.99999e-01,9.99999e-01,9.99999e-01,3.01813e-01,9.99999e-01
5.315272217e-01,3.09040e-01,9.99999e-01,9.99999e-01,9.99999e-01,3.09040e-01,9.99999e-01
5.341848578e-01,3.16292e-01,9.99999e-01,9.99999e-01,9.99999e-01,3.16292e-01,9.99999e-01
5.368557821e-01,3.23566e-01,9.99999e-01,9.99999e-01,9.99999e-01,3.23566e-01,9.99999e-01
5.395400610e-01,3.30859e-01,9.99999e-01,9.99999e-01,9.99999e-01,3.30859e-01,9.99999e-01
5.422377613e-01,3.38167e-01,9.99999e-01,9.99999e-01,9.99999e-01,3.38167e-01,9.99999e-01
5.449489501e-01,3.45487e-01,9.99999e-01,9.99999e-01,9.99999e-01,3.45487e-01,9.99999e-01
5.476736949e-01,3.52816e-01,9.99999e-01,9.99999e-01,9.99999e-01,3.52816e-01,9.99999e-01
5.504120634e-01,3.60152e-01,9.99999e-01,9.99999e-01,9.99999e-01,3.60152e-01,9.99999e-01
5.531641237e-01,3.67490e-01,9.99999e-01,9.99999e-01,9.99999e-01,3.67490e-01,9.99999e-01
5.559299443e-01,3.74829e-01,9.99999e-01,9.99999e-01,9.99999e-01,3.74829e-01,9.99999e-01
5.587095940e-01,3.82165e-01,9.99999e-01,9.99999e-01,9.99999e-01,3.82165e-01,9.99999e-01
5.615031420e-01,3.89496e-01,9.99999e-01,9.99999e-01,9.99999e-01,3.89496e-01,9.99999e-01
5.643106577e-01,3.96818e-01,9.99999e-01,9.99999e-01,9.99999e-01,3.96818e-01,9.99999e-01
5.671322110e-01,4.04129e-01,9.99999e-01,9.99999e-01,9.99999e-01,4.04129e-01,9.99999e-01
5.699678720e-01,4.11427e-01,9.99999e-01,9.99999e-01,9.99999e-01,4.11427e-01,9.99999e-01
5.728177114e-01,4.18708e-01,9.99999e-01,9.99999e-01,9.99999e-01,4.18708e-01,9.99999e-01
5.756818000e-01,4.25970e-01,9.99999e-01,9.99999e-01,9.99999e-01,4.25970e-01,9.99999e-01
5.785602090e-01,4.33212e-01,9.99999e-01,9.99999e-01,9.99999e-01,4.33212e-01,9.99999e-01
5.814530100e-01,4.40429e-01,9.99999e-01,9.99999e-01,9.99999e-01,4.40429e-01,9.99999e-01
5.843602750e-01,4.47621e-01,9.99999e-01,9.99999e-01,9.99999e-01,4.47621e-01,9.99999e-01
5.872820764e-01,4.54785e-01,9.99999e-01,9.99999e-01,9.99999e-01,4.54785e-01,9.99999e-01
5.902184868e-01,4.61918e-01,9.99999e-01,9.99999e-01,9.99999e-01,4.61918e-01,9.99999e-01
5.931695792e-01,4.69019e-01,9.99999e-01,9.99999e-01,9.99999e-01,4.69019e-01,9.99999e-01
5.961354271e-01,4.76086e-01,9.99999e-01,9.99999e-01,9.99999e-01,4.76086e-01,9.99999e-01
5.991161043e-01,4.83117e-01,9.99999e-01,9.99999e-01,9.99999e-01,4.83117e-01,9.99999e-01
6.021116848e-01,4.90109e-01,9.99999e-01,9.99999e-01,9.99999e-01,4.90109e-01,9.99999e-01
6.051222432e-01,4.97062e-01,9.99999e-01,9.99999e-01,9.99999e-01,4.97062e-01,9.99999e-01
6.081478544e-01,5.03972e-01,9.99999e-01,9.99999e-01,9.99999e-01,5.03972e-01,9.99999e-01
6.111885937e-01,5.10840e-01,9.99999e-01,9.99999e-01,9.99999e-01,5.10840e-01,9.99999e-01
6.142445367e-01,5.17663e-01,9.99999e-01,9.99999e-01,9.99999e-01,5.17663e-01,9.99999e-01
6.173157594e-01,5.24439e-01,9.99999e-01,9.99999e-01,9.99999e-01,5.24439e-01,9.99999e-01
6.204023382e-01,5.31168e-01,9.99999e-01,9.99999e-01,9.99999e-01,5.31168e-01,9.99999e-01
6.235043498e-01,5.37848e-01,9.99999e-01,9.99999e-01,9.99999e-01,5.37848e-01,9.99999e-01
6.266218716e-01,5.44477e-01,9.99999e-01,9.99999e-01,9.99999e-01,5.44477e-01,9.99999e-01
6.297549810e-01,5.51055e-01,9.99999e-01,9.99999e-01,9.99999e-01,5.51055e-01,9.99999e-01
6.329037559e-01,5.57579e-01,9.99999e-01,9.99999e-01,9.99999e-01,5.57579e-01,9.99999e-01
6.360682746e-01,5.64050e-01,9.99999e-01,9.99999e-01,9.99999e-01,5.64050e-01,9.99999e-01
6.392486160e-01,5.70466e-01,9.99999e-01,9.99999e-01,9.99999e-01,5.70466e-01,9.99999e-01
6.424448591e-01,5.76826e-01,9.99999e-01,9.99999e-01,9.99999e-01,5.76826e-01,9.99999e-01
6.456570834e-01,5.83129e-01,9.99999e-01,9.99999e-01,9.99999e-01,5.83129e-01,9.99999e-01
6.488853688e-01,5.89375e-01,9.99999e-01,9.99999e-01,9.99999e-01,5.89375e-01,9.99999e-01
6.521297956e-01,5.95562e-01,9.99999e-01,9.99999e-01,9.99999e-01,5.95562e-01,9.99999e-01
6.553904446e-01,6.01690e-01,9.99999e-01,9.99999e-01,9.99999e-01,6.01690e-01,9.99999e-01
6.586673968e-01,6.07758e-01,9.99999e-01,9.99999e-01,9.99999e-01,6.07758e-01,9.99999e-01
6.619607338e-01,6.13765e-01,9.99999e-01,9.99999e-01,9.99999e-01,6.13765e-01,9.99999e-01
6.652705375e-01,6.19712e-01,9.99999e-01,9.99999e-01,9.99999e-01,6.19712e-01,9.99999e-01
6.685968902e-01,6.25597e-01,9.99999e-01,9.99999e-01,9.99999e-01,6.25597e-01,9.99999e-01
6.719398746e-01,6.31420e-01,9.99999e-01,9.99999e-01,9.99999e-01,6.31420e-01,9.99999e-01
6.752995740e-01,6.37180e-01,9.99999e-01,9.99999e-01,9.99999e-01,6.37180e-01,9.99999e-01
6.786760719e-01,6.42878e-01,9.99999e-01,9.99999e-01,9.99999e-01,6.42878e-01,9.99999e-01
6.820694522e-01,6.48513e-01,9.99999e-01,9.99999e-01,9.99999e-01,6.48513e-01,9.99999e-01
6.854797995e-01,6.54084e-01,9.99999e-01,9.99999e-01,9.99999e-01,6.54084e-01,9.99999e-01
6.889071985e-01,6.59592e-01,9.99999e-01,9.99999e-01,9.99999e-01,6.59592e-01,9.99999e-01
6.923517345e-01,6.65036e-01,9.99999e-01,9.99999e-01,9.99999e-01,6.65036e-01,9.99999e-01
6.958134932e-01,6.70416e-01,9.99999e-01,9.99999e-01,9.99999e-01,6.70416e-01,9.99999e-01
6.992925606e-01,6.75732e-01,9.99999e-01,9.99999e-01,9.99999e-01,6.75732e-01,9.99999e-01
7.027890234e-01,6.80984e-01,9.99999e-01,9.99999e-01,9.99999e-01,6.80984e-01,9.99999e-01
7.063029686e-01,6.86172e-01,9.99999e-01,9.99999e-01,9.99999e-01,6.86172e-01,9.99999e-01
7.098344834e-01,6.91295e-01,9.99999e-01,9.99999e-01,9.99999e-01,6.91295e-01,9.99999e-01
7.133836558e-01,6.96355e-01,9.99999e-01,9.99999e-01,9.99999e-01,6.96355e-01,9.99999e-01
7.169505741e-01,7.01351e-01,9.99999e-01,9.99999e-01,9.99999e-01,7.01351e-01,9.99999e-01
7.205353270e-01,7.06282e-01,9.99999e-01,9.99999e-01,9.99999e-01,7.06282e-01,9.99999e-01
7.241380036e-01,7.11150e-01,9.99999e-01,9.99999e-01,9.99999e-01,7.11150e-01,9.99999e-01
7.277586936e-01,7.15955e-01,9.99999e-01,9.99999e-01,9.99999e-01,7.15955e-01,9.99999e-01
7.313974871e-01,7.20696e-01,9.99999e-01,9.99999e-01,9.99999e-01,7.20696e-01,9.99999e-01
7.350544745e-01,7.25373e-01,9.99999e-01,9.99999e-01,9.99999e-01,7.25373e-01,9.99999e-01
7.387297469e-01,7.29988e-01,9.99999e-01,9.99999e-01,9.99999e-01,7.29988e-01,9.99999e-01
7.424233956e-01,7.34540e-01,9.99999e-01,9.99999e-01,9.99999e-01,7.34540e-01,9.99999e-01
7.461355126e-01,7.39030e-01,9.99999e-01,9.99999e-01,9.99999e-01,7.39030e-01,9.99999e-01
7.498661902e-01,7.43458e-01,9.99999e-01,9.99999e-01,9.99999e-01,7.43458e-01,9.99999e-01
7.536155211e-01,7.47824e-01,9.99999e-01,9.99999e-01,9.99999e-01,7.47824e-01,9.99999e-01
7.573835987e-01,7.52129e-01,9.99999e-01,9.99999e-01,9.99999e-01,7.52129e-01,9.99999e-01
7.611705167e-01,7.56373e-01,9.99999e-01,9.99999e-01,9.99999e-01,7.56373e-01,9.99999e-01
7.649763693e-01,7.60556e-01,9.99999e-01,9.99999e-01,9.99999e-01,7.60556e-01,9.99999e-01
7.688012511e-01,7.64679e-01,9.99999e-01,9.99999e-01,9.99999e-01,7.64679e-01,9.99999e-01
7.726452574e-01,7.68742e-01,9.99999e-01,9.99999e-01,9.99999e-01,7.68742e-01,9.99999e-01
7.765084837e-01,7.72746e-01,9.99999e-01,9.99999e-01,9.99999e-01,7.72746e-01,9.99999e-01
7.803910261e-01,7.66837e-01,9.99999e-01,9.99999e-01,9.87312e-01,7.76691e-01,9.99999e-01
7.842929812e-01,7.39856e-01,9.99999e-01,9.99999e-01,9.47831e-01,7.80578e-01,9.99999e-01
7.882144461e-01,7.40422e-01,9.99999e-01,9.99999e-01,9.43926e-01,7.84406e-01,9.99999e-01
7.921555184e-01,7.62604e-01,9.99999e-01,9.99999e-01,9.67552e-01,7.88178e-01,9.99999e-01
7.961162960e-01,7.74690e-01,9.99999e-01,9.99999e-01,9.78276e-01,7.91892e-01,9.99999e-01
8.000968774e-01,7.86140e-01,9.99999e-01,9.99999e-01,9.88170e-01,7.95550e-01,9.99999e-01
8.040973618e-01,7.94250e-01,9.99999e-01,9.99999e-01,9.93864e-01,7.99153e-01,9.99999e-01
8.081178486e-01,8.00435e-01,9.99999e-01,9.99999e-01,9.97177e-01,8.02700e-01,9.99999e-01
8.121584379e-01,8.05490e-01,9.99999e-01,9.99999e-01,9.99129e-01,8.06192e-01,9.99999e-01
8.162192301e-01,8.09474e-01,9.99999e-01,9.99999e-01,9.99807e-01,8.09630e-01,9.99999e-01
8.203003262e-01,8.13012e-01,9.99999e-01,9.99999e-01,9.99996e-01,8.13014e-01,9.99999e-01
8.244018279e-01,8.16345e-01,9.99999e-01,9.99999e-01,9.99999e-01,8.16345e-01,9.99999e-01
8.285238370e-01,8.19624e-01,9.99999e-01,9.99999e-01,9.99999e-01,8.19624e-01,9.99999e-01
8.326664562e-01,8.22850e-01,9.99999e-01,9.99999e-01,9.99999e-01,8.22850e-01,9.99999e-01
8.368297885e-01,8.26025e-01,9.99999e-01,9.99999e-01,9.99999e-01,8.26025e-01,9.99999e-01
8.410139374e-01,8.29150e-01,9.99999e-01,9.99999e-01,9.99999e-01,8.29150e-01,9.99999e-01
8.452190071e-01,8.32224e-01,9.99999e-01,9.99999e-01,9.99999e-01,8.32224e-01,9.99999e-01
8.494451021e-01,8.35248e-01,9.99999e-01,9.99999e-01,9.99999e-01,8.35248e-01,9.99999e-01
8.536923276e-01,8.38224e-01,9.99999e-01,9.99999e-01,9.99999e-01,8.38224e-01,9.99999e-01
8.579607893e-01,8.41151e-01,9.99999e-01,9.99999e-01,9.99999e-01,8.41151e-01,9.99999e-01
8.622505932e-01,8.44030e-01,9.99999e-01,9.99999e-01,9.99999e-01,8.44030e-01,9.99999e-01
8.665618462e-01,8.16712e-01,9.99999e-01,9.99999e-01,9.64398e-01,8.46861e-01,9.99999e-01
8.708946554e-01,7.39367e-01,9.99999e-01,9.99999e-01,8.70205e-01,8.49646e-01,9.99999e-01
8.752491287e-01,7.63599e-01,9.99999e-01,9.99999e-01,8.95837e-01,8.52385e-01,9.99999e-01
8.796253743e-01,8.05635e-01,9.99999e-01,9.99999e-01,9.42175e-01,8.55078e-01,9.99999e-01
8.840235012e-01,8.31809e-01,9.99999e-01,9.99999e-01,9.69783e-01,8.57727e-01,9.99999e-01
8.884436187e-01,8.50023e-01,9.99999e-01,9.99999e-01,9.88018e-01,8.60331e-01,9.99999e-01
8.928858368e-01,8.58692e-01,9.99999e-01,9.99999e-01,9.95132e-01,8.62891e-01,9.99999e-01
8.973502660e-01,8.64386e-01,9.99999e-01,9.99999e-01,9.98817e-01,8.65408e-01,9.99999e-01
9.018370173e-01,8.67770e-01,9.99999e-01,9.99999e-01,9.99869e-01,8.67883e-01,9.99999e-01
9.063462024e-01,8.67372e-01,9.99999e-01,9.99999e-01,9.96617e-01,8.70315e-01,9.99999e-01
9.108779334e-01,8.66006e-01,9.99999e-01,9.99999e-01,9.92321e-01,8.72706e-01,9.99999e-01
9.154323231e-01,8.73479e-01,9.99999e-01,9.99999e-01,9.98197e-01,8.75057e-01,9.99999e-01
9.200094847e-01,8.53499e-01,9.99999e-01,9.99999e-01,9.72795e-01,8.77367e-01,9.99999e-01
9.246095321e-01,8.46994e-01,9.99999e-01,9.99999e-01,9.62890e-01,8.79637e-01,9.99999e-01
9.292325798e-01,8.55905e-01,9.99999e-01,9.99999e-01,9.70558e-01,8.81868e-01,9.99999e-01
9.338787427e-01,8.59039e-01,9.99999e-01,9.99999e-01,9.71697e-01,8.84060e-01,9.99999e-01
9.385481364e-01,8.67769e-01,9.99999e-01,9.99999e-01,9.79185e-01,8.86215e-01,9.99999e-01
9.432408771e-01,8.76994e-01,9.99999e-01,9.99999e-01,9.87236e-01,8.88332e-01,9.99999e-01
9.479570815e-01,8.84564e-01,9.99999e-01,9.99999e-01,9.93432e-01,8.90412e-01,9.99999e-01
9.526968669e-01,8.89626e-01,9.99999e-01,9.99999e-01,9.96828e-01,8.92456e-01,9.99999e-01
9.574603512e-01,8.93251e-01,9.99999e-01,9.99999e-01,9.98643e-01,8.94464e-01,9.99999e-01
9.622476530e-01,8.96057e-01,9.99999e-01,9.99999e-01,9.99576e-01,8.96436e-01,9.99999e-01
9.670588912e-01,8.98261e-01,9.99999e-01,9.99999e-01,9.99872e-01,8.98374e-01,9.99999e-01
9.718941857e-01,9.00270e-01,9.99999e-01,9.99999e-01,9.99990e-01,9.00278e-01,9.99999e-01
9.767536566e-01,9.02148e-01,9.99999e-01,9.99999e-01,9.99999e-01,9.02148e-01,9.99999e-01
9.816374249e-01,9.03985e-01,9.99999e-01,9.99999e-01,9.99999e-01,9.03985e-01,9.99999e-01
9.865456120e-01,9.05789e-01,9.99999e-01,9.99999e-01,9.99999e-01,9.05789e-01,9.99999e-01
9.914783401e-01,9.07561e-01,9.99999e-01,9.99999e-01,9.99999e-01,9.07561e-01,9.99999e-01
9.964357318e-01,9.09302e-01,9.99999e-01,9.99999e-01,9.99999e-01,9.09302e-01,9.99999e-01
1.001417910e+00,9.11011e-01,9.99999e-01,9.99999e-01,9.99999e-01,9.11011e-01,9.99999e-01
1.006425000e+00,9.12690e-01,9.99999e-01,9.99999e-01,9.99999e-01,9.12690e-01,9.99999e-01
1.011457125e+00,9.14338e-01,9.99999e-01,9.99999e-01,9.99999e-01,9.14338e-01,9.99999e-01
1.016514411e+00,9.15957e-01,9.99999e-01,9.99999e-01,9.99999e-01,9.15957e-01,9.99999e-01
1.021596983e+00,9.17530e-01,9.99999e-01,9.99999e-01,9.99981e-01,9.17546e-01,9.99999e-01
1.026704968e+00,9.17899e-01,9.99999e-01,9.99999e-01,9.98685e-01,9.19107e-01,9.99999e-01
1.031838492e+00,9.00873e-01,9.99999e-01,9.99999e-01,9.78528e-01,9.20640e-01,9.99999e-01
1.036997685e+00,3.39142e-01,9.99999e-01,9.99999e-01,3.67774e-01,9.22145e-01,9.99999e-01
1.042182673e+00,4.22518e-01,9.99999e-01,9.99999e-01,4.57457e-01,9.23622e-01,9.99999e-01
1.047393587e+00,3.73256e-01,9.99999e-01,9.99999e-01,4.03487e-01,9.25073e-01,9.99999e-01
1.052630555e+00,9.21365e-02,9.99999e-01,9.99999e-01,9.94459e-02,9.26497e-01,9.99999e-01
1.057893707e+00,1.56156e-01,9.99999e-01,9.99999e-01,1.68290e-01,9.27895e-01,9.99999e-01
1.063183176e+00,2.57601e-01,9.99999e-01,9.99999e-01,2.77208e-01,9.29268e-01,9.99999e-01
1.068499092e+00,3.99811e-01,9.99999e-01,9.99999e-01,4.29620e-01,9.30615e-01,9.99999e-01
1.073841587e+00,5.47362e-01,9.99999e-01,9.99999e-01,5.87336e-01,9.31938e-01,9.99999e-01
1.079210795e+00,6.67646e-01,9.99999e-01,9.99999e-01,7.15408e-01,9.33237e-01,9.99999e-01
1.084606849e+00,7.78806e-01,9.99999e-01,9.99999e-01,8.33383e-01,9.34511e-01,9.99999e-01
1.090029883e+00,8.51567e-01,9.99999e-01,9.99999e-01,9.10024e-01,9.35762e-01,9.99999e-01
1.095480033e+00,8.94525e-01,9.99999e-01,9.99999e-01,9.54678e-01,9.36990e-01,9.99999e-01
1.100957433e+00,9.17501e-01,9.99999e-01,9.99999e-01,9.77942e-01,9.38196e-01,9.99999e-01
1.106462220e+00,9.30762e-01,9.99999e-01,9.99999e-01,9.90827e-01,9.39379e-01,9.99999e-01
1.111994531e+00,9.37335e-01,9.99999e-01,9.99999e-01,9.96591e-01,9.40540e-01,9.99999e-01
1.117554504e+00,9.40896e-01,9.99999e-01,9.99999e-01,9.99167e-01,9.41679e-01,9.99999e-01
1.123142276e+00,9.42746e-01,9.99999e-01,9.99999e-01,9.99945e-01,9.42797e-01,9.99999e-01
1.128757988e+00,9.43895e-01,9.99999e-01,9.99999e-01,9.99999e-01,9.43895e-01,9.99999e-01
1.134401778e+00,9.44972e-01,9.99999e-01,9.99999e-01,9.99999e-01,9.44972e-01,9.99999e-01
1.140073787e+00,9.46029e-01,9.99999e-01,9.99999e-01,9.99999e-01,9.46029e-01,9.99999e-01
1.145774156e+00,9.47067e-01,9.99999e-01,9.99999e-01,9.99999e-01,9.47067e-01,9.99999e-01
1.151503026e+00,9.48084e-01,9.99999e-01,9.99999e-01,9.99999e-01,9.48084e-01,9.99999e-01
1.157260541e+00,9.49083e-01,9.99999e-01,9.99999e-01,9.99999e-01,9.49083e-01,9.99999e-01
1.163046844e+00,9.50063e-01,9.99999e-01,9.99999e-01,9.99999e-01,9.50063e-01,9.99999e-01
1.168862078e+00,9.51025e-01,9.99999e-01,9.99999e-01,9.99999e-01,9.51025e-01,9.99999e-01
1.174706389e+00,9.51969e-01,9.99999e-01,9.99999e-01,9.99999e-01,9.51969e-01,9.99999e-01
1.180579921e+00,9.52895e-01,9.99999e-01,9.99999e-01,9.99999e-01,9.52895e-01,9.99999e-01
1.186482820e+00,9.53801e-01,9.99999e-01,9.99999e-01,9.99997e-01,9.53804e-01,9.99999e-01
1.192415234e+00,9.50170e-01,9.99999e-01,9.99999e-01,9.95259e-01,9.54695e-01,9.99999e-01
1.198377311e+00,5.77716e-01,9.99999e-01,9.99999e-01,6.04576e-01,9.55570e-01,9.99999e-01
1.204369197e+00,2.32325e-05,9.99999e-01,9.99999e-01,2.42908e-05,9.56428e-01,9.99999e-01
1.210391043e+00,1.17521e-15,9.99999e-01,9.99999e-01,1.22767e-15,9.57270e-01,9.99999e-01
1.216442998e+00,8.66546e-14,9.99999e-01,9.99999e-01,9.04445e-14,9.58096e-01,9.99999e-01
1.222525213e+00,1.47304e-13,9.99999e-01,9.99999e-01,1.53616e-13,9.58906e-01,9.99999e-01
1.228637839e+00,2.25801e-10,9.99999e-01,9.99999e-01,2.35282e-10,9.59702e-01,9.99999e-01
