#,Wave/freq,Total,N2,O2,CO2,Rayleigh,CIA
4.000000000e-01,5.91442e-03,9.99999e-01,9.99999e-01,9.99999e-01,5.91442e-03,9.99999e-01
4.020000000e-01,6.54588e-03,9.99999e-01,9.99999e-01,9.99999e-01,6.54588e-03,9.99999e-01
4.040100000e-01,7.22950e-03,9.99999e-01,9.99999e-01,9.99999e-01,7.22950e-03,9.99999e-01
4.060300500e-01,7.96886e-03,9.99999e-01,9.99999e-01,9.99999e-01,7.96886e-03,9.99999e-01
4.080602003e-01,8.76695e-03,9.99999e-01,9.99999e-01,9.99999e-01,8.76695e-03,9.99999e-01
4.101005013e-01,9.62681e-03,9.99999e-01,9.99999e-01,9.99999e-01,9.62681e-03,9.99999e-01
4.121510038e-01,1.05515e-02,9.99999e-01,9.99999e-01,9.99999e-01,1.05515e-02,9.99999e-01
4.142117588e-01,1.15440e-02,9.99999e-01,9.99999e-01,9.99999e-01,1.15440e-02,9.99999e-01
4.162828176e-01,1.26076e-02,9.99999e-01,9.99999e-01,9.99999e-01,1.26076e-02,9.99999e-01
4.183642317e-01,1.37451e-02,9.99999e-01,9.99999e-01,9.99999e-01,1.37451e-02,9.99999e-01
4.204560528e-01,1.49598e-02,9.99999e-01,9.99999e-01,9.99999e-01,1.49598e-02,9.99999e-01
4.225583331e-01,1.62545e-02,9.99999e-01,9.99999e-01,9.99999e-01,1.62545e-02,9.99999e-01
4.246711247e-01,1.76324e-02,9.99999e-01,9.99999e-01,9.99999e-01,1.76324e-02,9.99999e-01
4.267944804e-01,1.90964e-02,9.99999e-01,9.99999e-01,9.99999e-01,1.90964e-02,9.99999e-01
4.289284528e-01,2.06494e-02,9.99999e-01,9.99999e-01,9.99999e-01,2.06494e-02,9.99999e-01
4.310730950e-01,2.22942e-02,9.99999e-01,9.99999e-01,9.99999e-01,2.22942e-02,9.99999e-01
4.332284605e-01,2.40336e-02,9.99999e-01,9.99999e-01,9.99999e-01,2.40336e-02,9.99999e-01
4.353946028e-01,2.58703e-02,9.99999e-01,9.99999e-01,9.99999e-01,2.58703e-02,9.99999e-01
4.375715758e-01,2.78069e-02,9.99999e-01,9.99999e-01,9.99999e-01,2.78069e-02,9.99999e-01
4.397594337e-01,2.98459e-02,9.99999e-01,9.99999e-01,9.99999e-01,2.98459e-02,9.99999e-01
4.419582309e-01,3.19897e-02,9.99999e-01,9.99999e-01,9.99999e-01,3.19897e-02,9.99999e-01
4.441680220e-01,3.42405e-02,9.99999e-01,9.99999e-01,9.99999e-01,3.42405e-02,9.99999e-01
4.463888621e-01,3.66004e-02,9.99999e-01,9.99999e-01,9.99999e-01,3.66004e-02,9.99999e-01
4.486208064e-01,3.90716e-02,9.99999e-01,9.99999e-01,9.99999e-01,3.90716e-02,9.99999e-01
4.508639105e-01,4.16558e-02,9.99999e-01,9.99999e-01,9.99999e-01,4.16558e-02,9.99999e-01
4.531182300e-01,4.43547e-02,9.99999e-01,9.99999e-01,9.99999e-01,4.43547e-02,9.99999e-01
4.553838212e-01,4.71700e-02,9.99999e-01,9.99999e-01,9.99999e-01,4.71700e-02,9.99999e-01
4.576607403e-01,5.01031e-02,9.99999e-01,9.99999e-01,9.99999e-01,5.01031e-02,9.99999e-01
4.599490440e-01,5.31552e-02,9.99999e-01,9.99999e-01,9.99999e-01,5.31552e-02,9.99999e-01
4.622487892e-01,5.63273e-02,9.99999e-01,9.99999e-01,9.99999e-01,5.63273e-02,9.99999e-01
4.645600332e-01,5.96205e-02,9.99999e-01,9.99999e-01,9.99999e-01,5.96205e-02,9.99999e-01
4.668828333e-01,6.30354e-02,9.99999e-01,9.99999e-01,9.99999e-01,6.30354e-02,9.99999e-01
4.692172475e-01,6.65726e-02,9.99999e-01,9.99999e-01,9.99999e-01,6.65726e-02,9.99999e-01
4.715633337e-01,7.02325e-02,9.99999e-01,9.99999e-01,9.99999e-01,7.02325e-02,9.99999e-01
4.739211504e-01,7.40154e-02,9.99999e-01,9.99999e-01,9.99999e-01,7.40154e-02,9.99999e-01
4.762907561e-01,7.79212e-02,9.99999e-01,9.99999e-01,9.99999e-01,7.79212e-02,9.99999e-01
4.786722099e-01,8.19499e-02,9.99999e-01,9.99999e-01,9.99999e-01,8.19499e-02,9.99999e-01
4.810655710e-01,8.61010e-02,9.99999e-01,9.99999e-01,9.99999e-01,8.61010e-02,9.99999e-01
4.834708988e-01,9.03742e-02,9.99999e-01,9.99999e-01,9.99999e-01,9.03742e-02,9.99999e-01
4.858882533e-01,9.47688e-02,9.99999e-01,9.99999e-01,9.99999e-01,9.47688e-02,9.99999e-01
4.883176946e-01,9.92839e-02,9.99999e-01,9.99999e-01,9.99999e-01,9.92839e-02,9.99999e-01
4.907592831e-01,1.03918e-01,9.99999e-01,9.99999e-01,9.99999e-01,1.03918e-01,9.99999e-01
4.932130795e-01,1.08671e-01,9.99999e-01,9.99999e-01,9.99999e-01,1.08671e-01,9.99999e-01
4.956791449e-01,1.13542e-01,9.99999e-01,9.99999e-01,9.99999e-01,1.13542e-01,9.99999e-01
4.981575406e-01,1.18527e-01,9.99999e-01,9.99999e-01,9.99999e-01,1.18527e-01,9.99999e-01
5.006483283e-01,1.23627e-01,9.99999e-01,9.99999e-01,9.99999e-01,1.23627e-01,9.99999e-01
5.031515699e-01,1.28838e-01,9.99999e-01,9.99999e-01,9.99999e-01,1.28838e-01,9.99999e-01
5.056673278e-01,1.34160e-01,9.99999e-01,9.99999e-01,9.99999e-01,1.34160e-01,9.99999e-01
5.081956644e-01,1.39590e-01,9.99999e-01,9.99999e-01,9.99999e-01,1.39590e-01,9.99999e-01
5.107366428e-01,1.45127e-01,9.99999e-01,9.99999e-01,9.99999e-01,1.45127e-01,9.99999e-01
5.132903260e-01,1.50766e-01,9.99999e-01,9.99999e-01,9.99999e-01,1.50766e-01,9.99999e-01
5.158567776e-01,1.56507e-01,9.99999e-01,9.99999e-01,9.99999e-01,1.56507e-01,9.99999e-01
5.184360615e-01,1.62347e-01,9.99999e-01,9.99999e-01,9.99999e-01,1.62347e-01,9.99999e-01
5.210282418e-01,1.68283e-01,9.99999e-01,9.99999e-01,9.99999e-01,1.68283e-01,9.99999e-01
5.236333830e-01,1.74312e-01,9.99999e-01,9.99999e-01,9.99999e-01,1.74312e-01,9.99999e-01
5.262515499e-01,1.80432e-01,9.99999e-01,9.99999e-01,9.99999e-01,1.80432e-01,9.99999e-01
5.288828077e-01,1.86639e-01,9.99999e-01,9.99999e-01,9.99999e-01,1.86639e-01,9.99999e-01
5.315272217e-01,1.92931e-01,9.99999e-01,9.99999e-01,9.99999e-01,1.92931e-01,9.99999e-01
5.341848578e-01,1.99305e-01,9.99999e-01,9.99999e-01,9.99999e-01,1.99305e-01,9.99999e-01
5.368557821e-01,2.05757e-01,9.99999e-01,9.99999e-01,9.99999e-01,2.05757e-01,9.99999e-01
5.395400610e-01,2.12284e-01,9.99999e-01,9.99999e-01,9.99999e-01,2.12284e-01,9.99999e-01
5.422377613e-01,2.18883e-01,9.99999e-01,9.99999e-01,9.99999e-01,2.18883e-01,9.99999e-01
5.449489501e-01,2.25551e-01,9.99999e-01,9.99999e-01,9.99999e-01,2.25551e-01,9.99999e-01
5.476736949e-01,2.32284e-01,9.99999e-01,9.99999e-01,9.99999e-01,2.32284e-01,9.99999e-01
5.504120634e-01,2.39079e-01,9.99999e-01,9.99999e-01,9.99999e-01,2.39079e-01,9.99999e-01
5.531641237e-01,2.45933e-01,9.99999e-01,9.99999e-01,9.99999e-01,2.45933e-01,9.99999e-01
5.559299443e-01,2.52843e-01,9.99999e-01,9.99999e-01,9.99999e-01,2.52843e-01,9.99999e-01
5.587095940e-01,2.59804e-01,9.99999e-01,9.99999e-01,9.99999e-01,2.59804e-01,9.99999e-01
5.615031420e-01,2.66813e-01,9.99999e-01,9.99999e-01,9.99999e-01,2.66813e-01,9.99999e-01
5.643106577e-01,2.73868e-01,9.99999e-01,9.99999e-01,9.99999e-01,2.73868e-01,9.99999e-01
5.671322110e-01,2.80965e-01,9.99999e-01,9.99999e-01,9.99999e-01,2.80965e-01,9.99999e-01
5.699678720e-01,2.88099e-01,9.99999e-01,9.99999e-01,9.99999e-01,2.88099e-01,9.99999e-01
5.728177114e-01,2.95269e-01,9.99999e-01,9.99999e-01,9.99999e-01,2.95269e-01,9.99999e-01
5.756818000e-01,3.02470e-01,9.99999e-01,9.99999e-01,9.99999e-01,3.02470e-01,9.99999e-01
5.785602090e-01,3.09699e-01,9.99999e-01,9.99999e-01,9.99999e-01,3.09699e-01,9.99999e-01
5.814530100e-01,3.16953e-01,9.99999e-01,9.99999e-01,9.99999e-01,3.16953e-01,9.99999e-01
5.843602750e-01,3.24229e-01,9.99999e-01,9.99999e-01,9.99999e-01,3.24229e-01,9.99999e-01
5.872820764e-01,3.31523e-01,9.99999e-01,9.99999e-01,9.99999e-01,3.31523e-01,9.99999e-01
5.902184868e-01,3.38832e-01,9.99999e-01,9.99999e-01,9.99999e-01,3.38832e-01,9.99999e-01
5.931695792e-01,3.46153e-01,9.99999e-01,9.99999e-01,9.99999e-01,3.46153e-01,9.99999e-01
5.961354271e-01,3.53483e-01,9.99999e-01,9.99999e-01,9.99999e-01,3.53483e-01,9.99999e-01
5.991161043e-01,3.60819e-01,9.99999e-01,9.99999e-01,9.99999e-01,3.60819e-01,9.99999e-01
6.021116848e-01,3.68158e-01,9.99999e-01,9.99999e-01,9.99999e-01,3.68158e-01,9.99999e-01
6.051222432e-01,3.75497e-01,9.99999e-01,9.99999e-01,9.99999e-01,3.75497e-01,9.99999e-01
6.081478544e-01,3.82833e-01,9.99999e-01,9.99999e-01,9.99999e-01,3.82833e-01,9.99999e-01
6.111885937e-01,3.90162e-01,9.99999e-01,9.99999e-01,9.99999e-01,3.90162e-01,9.99999e-01
6.142445367e-01,3.97484e-01,9.99999e-01,9.99999e-01,9.99999e-01,3.97484e-01,9.99999e-01
6.173157594e-01,4.04794e-01,9.99999e-01,9.99999e-01,9.99999e-01,4.04794e-01,9.99999e-01
6.204023382e-01,4.12090e-01,9.99999e-01,9.99999e-01,9.99999e-01,4.12090e-01,9.99999e-01
6.235043498e-01,4.19369e-01,9.99999e-01,9.99999e-01,9.99999e-01,4.19369e-01,9.99999e-01
6.266218716e-01,4.26630e-01,9.99999e-01,9.99999e-01,9.99999e-01,4.26630e-01,9.99999e-01
6.297549810e-01,4.33869e-01,9.99999e-01,9.99999e-01,9.99999e-01,4.33869e-01,9.99999e-01
6.329037559e-01,4.41085e-01,9.99999e-01,9.99999e-01,9.99999e-01,4.41085e-01,9.99999e-01
6.360682746e-01,4.48274e-01,9.99999e-01,9.99999e-01,9.99999e-01,4.48274e-01,9.99999e-01
6.392486160e-01,4.55435e-01,9.99999e-01,9.99999e-01,9.99999e-01,4.55435e-01,9.99999e-01
6.424448591e-01,4.62565e-01,9.99999e-01,9.99999e-01,9.99999e-01,4.62565e-01,9.99999e-01
6.456570834e-01,4.69664e-01,9.99999e-01,9.99999e-01,9.99999e-01,4.69664e-01,9.99999e-01
6.488853688e-01,4.76727e-01,9.99999e-01,9.99999e-01,9.99999e-01,4.76727e-01,9.99999e-01
6.521297956e-01,4.83754e-01,9.99999e-01,9.99999e-01,9.99999e-01,4.83754e-01,9.99999e-01
6.553904446e-01,4.90743e-01,9.99999e-01,9.99999e-01,9.99999e-01,4.90743e-01,9.99999e-01
6.586673968e-01,4.97692e-01,9.99999e-01,9.99999e-01,9.99999e-01,4.97692e-01,9.99999e-01
6.619607338e-01,5.04599e-01,9.99999e-01,9.99999e-01,9.99999e-01,5.04599e-01,9.99999e-01
6.652705375e-01,5.11463e-01,9.99999e-01,9.99999e-01,9.99999e-01,5.11463e-01,9.99999e-01
6.685968902e-01,5.18281e-01,9.99999e-01,9.99999e-01,9.99999e-01,5.18281e-01,9.99999e-01
6.719398746e-01,5.25054e-01,9.99999e-01,9.99999e-01,9.99999e-01,5.25054e-01,9.99999e-01
6.752995740e-01,5.31778e-01,9.99999e-01,9.99999e-01,9.99999e-01,5.31778e-01,9.99999e-01
6.786760719e-01,5.38453e-01,9.99999e-01,9.99999e-01,9.99999e-01,5.38453e-01,9.99999e-01
6.820694522e-01,5.45078e-01,9.99999e-01,9.99999e-01,9.99999e-01,5.45078e-01,9.99999e-01
6.854797995e-01,5.51650e-01,9.99999e-01,9.99999e-01,9.99999e-01,5.51650e-01,9.99999e-01
6.889071985e-01,5.58170e-01,9.99999e-01,9.99999e-01,9.99999e-01,5.58170e-01,9.99999e-01
6.923517345e-01,5.64636e-01,9.99999e-01,9.99999e-01,9.99999e-01,5.64636e-01,9.99999e-01
6.958134932e-01,5.71047e-01,9.99999e-01,9.99999e-01,9.99999e-01,5.71047e-01,9.99999e-01
6.992925606e-01,5.77402e-01,9.99999e-01,9.99999e-01,9.99999e-01,5.77402e-01,9.99999e-01
7.027890234e-01,5.83700e-01,9.99999e-01,9.99999e-01,9.99999e-01,5.83700e-01,9.99999e-01
7.063029686e-01,5.89940e-01,9.99999e-01,9.99999e-01,9.99999e-01,5.89940e-01,9.99999e-01
7.098344834e-01,5.96122e-01,9.99999e-01,9.99999e-01,9.99999e-01,5.96122e-01,9.99999e-01
7.133836558e-01,6.02244e-01,9.99999e-01,9.99999e-01,9.99999e-01,6.02244e-01,9.99999e-01
7.169505741e-01,6.08307e-01,9.99999e-01,9.99999e-01,9.99999e-01,6.08307e-01,9.99999e-01
7.205353270e-01,6.14309e-01,9.99999e-01,9.99999e-01,9.99999e-01,6.14309e-01,9.99999e-01
7.241380036e-01,6.20250e-01,9.99999e-01,9.99999e-01,9.99999e-01,6.20250e-01,9.99999e-01
7.277586936e-01,6.26129e-01,9.99999e-01,9.99999e-01,9.99999e-01,6.26129e-01,9.99999e-01
7.313974871e-01,6.31947e-01,9.99999e-01,9.99999e-01,9.99999e-01,6.31947e-01,9.99999e-01
7.350544745e-01,6.37701e-01,9.99999e-01,9.99999e-01,9.99999e-01,6.37701e-01,9.99999e-01
7.387297469e-01,6.43393e-01,9.99999e-01,9.99999e-01,9.99999e-01,6.43393e-01,9.99999e-01
7.424233956e-01,6.49022e-01,9.99999e-01,9.99999e-01,9.99999e-01,6.49022e-01,9.99999e-01
7.461355126e-01,6.54588e-01,9.99999e-01,9.99999e-01,9.99999e-01,6.54588e-01,9.99999e-01
7.498661902e-01,6.60090e-01,9.99999e-01,9.99999e-01,9.99999e-01,6.60090e-01,9.99999e-01
7.536155211e-01,6.65528e-01,9.99999e-01,9.99999e-01,9.99999e-01,6.65528e-01,9.99999e-01
7.573835987e-01,6.70902e-01,9.99999e-01,9.99999e-01,9.99999e-01,6.70902e-01,9.99999e-01
7.611705167e-01,6.76212e-01,9.99999e-01,9.99999e-01,9.99999e-01,6.76212e-01,9.99999e-01
7.649763693e-01,6.81459e-01,9.99999e-01,9.99999e-01,9.99999e-01,6.81459e-01,9.99999e-01
7.688012511e-01,6.86641e-01,9.99999e-01,9.99999e-01,9.99999e-01,6.86641e-01,9.99999e-01
7.726452574e-01,6.91758e-01,9.99999e-01,9.99999e-01,9.99999e-01,6.91758e-01,9.99999e-01
7.765084837e-01,6.96812e-01,9.99999e-01,9.99999e-01,9.99999e-01,6.96812e-01,9.99999e-01
7.803910261e-01,6.89822e-01,9.99999e-01,9.99999e-01,9.82929e-01,7.01802e-01,9.99999e-01
7.842929812e-01,6.55689e-01,9.99999e-01,9.99999e-01,9.27781e-01,7.06728e-01,9.99999e-01
7.882144461e-01,6.56658e-01,9.99999e-01,9.99999e-01,9.22803e-01,7.11590e-01,9.99999e-01
7.921555184e-01,6.84107e-01,9.99999e-01,9.99999e-01,9.54938e-01,7.16389e-01,9.99999e-01
7.961162960e-01,6.99204e-01,9.99999e-01,9.99999e-01,9.69603e-01,7.21124e-01,9.99999e-01
8.000968774e-01,7.13770e-01,9.99999e-01,9.99999e-01,9.83430e-01,7.25796e-01,9.99999e-01
8.040973618e-01,7.24105e-01,9.99999e-01,9.99999e-01,9.91373e-01,7.30405e-01,9.99999e-01
8.081178486e-01,7.32041e-01,9.99999e-01,9.99999e-01,9.96039e-01,7.34951e-01,9.99999e-01
8.121584379e-01,7.38527e-01,9.99999e-01,9.99999e-01,9.98771e-01,7.39436e-01,9.99999e-01
8.162192301e-01,7.43656e-01,9.99999e-01,9.99999e-01,9.99728e-01,7.43858e-01,9.99999e-01
8.203003262e-01,7.48215e-01,9.99999e-01,9.99999e-01,9.99995e-01,7.48218e-01,9.99999e-01
8.244018279e-01,7.52517e-01,9.99999e-01,9.99999e-01,9.99999e-01,7.52517e-01,9.99999e-01
8.285238370e-01,7.56756e-01,9.99999e-01,9.99999e-01,9.99999e-01,7.56756e-01,9.99999e-01
8.326664562e-01,7.60933e-01,9.99999e-01,9.99999e-01,9.99999e-01,7.60933e-01,9.99999e-01
8.368297885e-01,7.65051e-01,9.99999e-01,9.99999e-01,9.99999e-01,7.65051e-01,9.99999e-01
8.410139374e-01,7.69109e-01,9.99999e-01,9.99999e-01,9.99999e-01,7.69109e-01,9.99999e-01
8.452190071e-01,7.73107e-01,9.99999e-01,9.99999e-01,9.99999e-01,7.73107e-01,9.99999e-01
8.494451021e-01,7.77047e-01,9.99999e-01,9.99999e-01,9.99999e-01,7.77047e-01,9.99999e-01
8.536923276e-01,7.80928e-01,9.99999e-01,9.99999e-01,9.99999e-01,7.80928e-01,9.99999e-01
8.579607893e-01,7.84752e-01,9.99999e-01,9.99999e-01,9.99999e-01,7.84752e-01,9.99999e-01
8.622505932e-01,7.88518e-01,9.99999e-01,9.99999e-01,9.99999e-01,7.88518e-01,9.99999e-01
8.665618462e-01,7.56344e-01,9.99999e-01,9.99999e-01,9.54705e-01,7.92227e-01,9.99999e-01
8.708946554e-01,6.56204e-01,9.99999e-01,9.99999e-01,8.24500e-01,7.95880e-01,9.99999e-01
8.752491287e-01,6.85602e-01,9.99999e-01,9.99999e-01,8.57561e-01,7.99478e-01,9.99999e-01
8.796253743e-01,7.38664e-01,9.99999e-01,9.99999e-01,9.19857e-01,8.03019e-01,9.99999e-01
8.840235012e-01,7.72500e-01,9.99999e-01,9.99999e-01,9.57834e-01,8.06507e-01,9.99999e-01
8.884436187e-01,7.96311e-01,9.99999e-01,9.99999e-01,9.83172e-01,8.09940e-01,9.99999e-01
8.928858368e-01,8.07759e-01,9.99999e-01,9.99999e-01,9.93163e-01,8.13319e-01,9.99999e-01
8.973502660e-01,8.15283e-01,9.99999e-01,9.99999e-01,9.98331e-01,8.16645e-01,9.99999e-01
9.018370173e-01,8.19768e-01,9.99999e-01,9.99999e-01,9.99815e-01,8.19919e-01,9.99999e-01
9.063462024e-01,8.19291e-01,9.99999e-01,9.99999e-01,9.95321e-01,8.23141e-01,9.99999e-01
9.108779334e-01,8.17415e-01,9.99999e-01,9.99999e-01,9.89232e-01,8.26312e-01,9.99999e-01
9.154323231e-01,8.27320e-01,9.99999e-01,9.99999e-01,9.97454e-01,8.29431e-01,9.99999e-01
9.200094847e-01,8.01460e-01,9.99999e-01,9.99999e-01,9.62712e-01,8.32501e-01,9.99999e-01
9.246095321e-01,7.92346e-01,9.99999e-01,9.99999e-01,9.48324e-01,8.35521e-01,9.99999e-01
9.292325798e-01,8.04319e-01,9.99999e-01,9.99999e-01,9.59244e-01,8.38492e-01,9.99999e-01
9.338787427e-01,8.08215e-01,9.99999e-01,9.99999e-01,9.60542e-01,8.41414e-01,9.99999e-01
9.385481364e-01,8.19744e-01,9.99999e-01,9.99999e-01,9.70927e-01,8.44289e-01,9.99999e-01
9.432408771e-01,8.31960e-01,9.99999e-01,9.99999e-01,9.82107e-01,8.47117e-01,9.99999e-01
9.479570815e-01,8.42073e-01,9.99999e-01,9.99999e-01,9.90793e-01,8.49897e-01,9.99999e-01
9.526968669e-01,8.48835e-01,9.99999e-01,9.99999e-01,9.95546e-01,8.52632e-01,9.99999e-01
9.574603512e-01,8.53691e-01,9.99999e-01,9.99999e-01,9.98093e-01,8.55321e-01,9.99999e-01
9.622476530e-01,8.57455e-01,9.99999e-01,9.99999e-01,9.99404e-01,8.57966e-01,9.99999e-01
9.670588912e-01,8.60412e-01,9.99999e-01,9.99999e-01,9.99821e-01,8.60566e-01,9.99999e-01
9.718941857e-01,8.63111e-01,9.99999e-01,9.99999e-01,9.99986e-01,8.63122e-01,9.99999e-01
9.767536566e-01,8.65635e-01,9.99999e-01,9.99999e-01,9.99999e-01,8.65635e-01,9.99999e-01
9.816374249e-01,8.68106e-01,9.99999e-01,9.99999e-01,9.99999e-01,8.68106e-01,9.99999e-01
9.865456120e-01,8.70535e-01,9.99999e-01,9.99999e-01,9.99999e-01,8.70535e-01,9.99999e-01
9.914783401e-01,8.72922e-01,9.99999e-01,9.99999e-01,9.99999e-01,8.72922e-01,9.99999e-01
9.964357318e-01,8.75268e-01,9.99999e-01,9.99999e-01,9.99999e-01,8.75268e-01,9.99999e-01
1.001417910e+00,8.77575e-01,9.99999e-01,9.99999e-01,9.99999e-01,8.77575e-01,9.99999e-01
1.006425000e+00,8.79841e-01,9.99999e-01,9.99999e-01,9.99999e-01,8.79841e-01,9.99999e-01
1.011457125e+00,8.82069e-01,9.99999e-01,9.99999e-01,9.99999e-01,8.82069e-01,9.99999e-01
1.016514411e+00,8.84258e-01,9.99999e-01,9.99999e-01,9.99999e-01,8.84258e-01,9.99999e-01
1.021596983e+00,8.86388e-01,9.99999e-01,9.99999e-01,9.99975e-01,8.86409e-01,9.99999e-01
1.026704968e+00,8.86909e-01,9.99999e-01,9.99999e-01,9.98183e-01,8.88523e-01,9.99999e-01
1.031838492e+00,8.67504e-01,9.99999e-01,9.99999e-01,9.74067e-01,8.90599e-01,9.99999e-01
1.036997685e+00,2.55575e-01,9.99999e-01,9.99999e-01,2.86313e-01,8.92640e-01,9.99999e-01
1.042182673e+00,3.02913e-01,9.99999e-01,9.99999e-01,3.38584e-01,8.94645e-01,9.99999e-01
1.047393587e+00,2.83656e-01,9.99999e-01,9.99999e-01,3.16363e-01,8.96614e-01,9.99999e-01
1.052630555e+00,4.19871e-02,9.99999e-01,9.99999e-01,4.67276e-02,8.98549e-01,9.99999e-01
1.057893707e+00,7.90344e-02,9.99999e-01,9.99999e-01,8.77720e-02,9.00450e-01,9.99999e-01
1.063183176e+00,1.54911e-01,9.99999e-01,9.99999e-01,1.71681e-01,9.02316e-01,9.99999e-01
1.068499092e+00,2.79104e-01,9.99999e-01,9.99999e-01,3.08692e-01,9.04150e-01,9.99999e-01
1.073841587e+00,4.31339e-01,9.99999e-01,9.99999e-01,4.76117e-01,9.05952e-01,9.99999e-01
1.079210795e+00,5.68539e-01,9.99999e-01,9.99999e-01,6.26336e-01,9.07721e-01,9.99999e-01
1.084606849e+00,7.04406e-01,9.99999e-01,9.99999e-01,7.74532e-01,9.09458e-01,9.99999e-01
1.090029883e+00,7.98338e-01,9.99999e-01,9.99999e-01,8.76172e-01,9.11165e-01,9.99999e-01
1.095480033e+00,8.55304e-01,9.99999e-01,9.99999e-01,9.36969e-01,9.12841e-01,9.99999e-01
1.100957433e+00,8.86295e-01,9.99999e-01,9.99999e-01,9.69171e-01,9.14486e-01,9.99999e-01
1.106462220e+00,9.04317e-01,9.99999e-01,9.99999e-01,9.87134e-01,9.16103e-01,9.99999e-01
1.111994531e+00,9.13298e-01,9.99999e-01,9.99999e-01,9.95214e-01,9.17690e-01,9.99999e-01
1.117554504e+00,9.18171e-01,9.99999e-01,9.99999e-01,9.98827e-01,9.19248e-01,9.99999e-01
1.123142276e+00,9.20707e-01,9.99999e-01,9.99999e-01,9.99922e-01,9.20778e-01,9.99999e-01
1.128757988e+00,9.22280e-01,9.99999e-01,9.99999e-01,9.99999e-01,9.22280e-01,9.99999e-01
1.134401778e+00,9.23755e-01,9.99999e-01,9.99999e-01,9.99999e-01,9.23755e-01,9.99999e-01
1.140073787e+00,9.25204e-01,9.99999e-01,9.99999e-01,9.99999e-01,9.25204e-01,9.99999e-01
1.145774156e+00,9.26625e-01,9.99999e-01,9.99999e-01,9.99999e-01,9.26625e-01,9.99999e-01
1.151503026e+00,9.28021e-01,9.99999e-01,9.99999e-01,9.99999e-01,9.28021e-01,9.99999e-01
1.157260541e+00,9.29392e-01,9.99999e-01,9.99999e-01,9.99999e-01,9.29392e-01,9.99999e-01
1.163046844e+00,9.30737e-01,9.99999e-01,9.99999e-01,9.99999e-01,9.30737e-01,9.99999e-01
1.168862078e+00,9.32057e-01,9.99999e-01,9.99999e-01,9.99999e-01,9.32057e-01,9.99999e-01
1.174706389e+00,9.33354e-01,9.99999e-01,9.99999e-01,9.99999e-01,9.33354e-01,9.99999e-01
1.180579921e+00,9.34626e-01,9.99999e-01,9.99999e-01,9.99999e-01,9.34626e-01,9.99999e-01
1.186482820e+00,9.35872e-01,9.99999e-01,9.99999e-01,9.99996e-01,9.35875e-01,9.99999e-01
1.192415234e+00,9.30998e-01,9.99999e-01,9.99999e-01,9.93486e-01,9.37101e-01,9.99999e-01
1.198377311e+00,5.49889e-01,9.99999e-01,9.99999e-01,5.86045e-01,9.38304e-01,9.99999e-01
1.204369197e+00,1.27763e-06,9.99999e-01,9.99999e-01,1.35992e-06,9.39485e-01,9.99999e-01
1.210391043e+00,4.93299e-21,9.99999e-01,9.99999e-01,5.24426e-21,9.40644e-01,9.99999e-01
1.216442998e+00,1.88286e-18,9.99999e-01,9.99999e-01,1.99925e-18,9.41782e-01,9.99999e-01
1.222525213e+00,3.47779e-18,9.99999e-01,9.99999e-01,3.68840e-18,9.42898e-01,9.99999e-01
1.228637839e+00,5.45593e-14,9.99999e-01,9.99999e-01,5.77962e-14,9.43994e-01,9.99999e-01
