#,Wave/freq,Total,N2,O2,CO2,Rayleigh,CIA
4.000000000e-01,9.83083e-24,9.99999e-01,9.99999e-01,9.99999e-01,9.83083e-24,9.99999e-01
4.020000000e-01,2.80227e-23,9.99999e-01,9.99999e-01,9.99999e-01,2.80227e-23,9.99999e-01
4.040100000e-01,7.81587e-23,9.99999e-01,9.99999e-01,9.99999e-01,7.81587e-23,9.99999e-01
4.060300500e-01,2.13622e-22,9.99999e-01,9.99999e-01,9.99999e-01,2.13622e-22,9.99999e-01
4.080602003e-01,5.72386e-22,9.99999e-01,9.99999e-01,9.99999e-01,5.72386e-22,9.99999e-01
4.101005013e-01,1.50410e-21,9.99999e-01,9.99999e-01,9.99999e-01,1.50410e-21,9.99999e-01
4.121510038e-01,3.87773e-21,9.99999e-01,9.99999e-01,9.99999e-01,3.87773e-21,9.99999e-01
4.142117588e-01,9.81191e-21,9.99999e-01,9.99999e-01,9.99999e-01,9.81191e-21,9.99999e-01
4.162828176e-01,2.43762e-20,9.99999e-01,9.99999e-01,9.99999e-01,2.43762e-20,9.99999e-01
4.183642317e-01,5.94802e-20,9.99999e-01,9.99999e-01,9.99999e-01,5.94802e-20,9.99999e-01
4.204560528e-01,1.42602e-19,9.99999e-01,9.99999e-01,9.99999e-01,1.42602e-19,9.99999e-01
4.225583331e-01,3.36030e-19,9.99999e-01,9.99999e-01,9.99999e-01,3.36030e-19,9.99999e-01
4.246711247e-01,7.78535e-19,9.99999e-01,9.99999e-01,9.99999e-01,7.78535e-19,9.99999e-01
4.267944804e-01,1.77407e-18,9.99999e-01,9.99999e-01,9.99999e-01,1.77407e-18,9.99999e-01
4.289284528e-01,3.97738e-18,9.99999e-01,9.99999e-01,9.99999e-01,3.97738e-18,9.99999e-01
4.310730950e-01,8.77604e-18,9.99999e-01,9.99999e-01,9.99999e-01,8.77604e-18,9.99999e-01
4.332284605e-01,1.90638e-17,9.99999e-01,9.99999e-01,9.99999e-01,1.90638e-17,9.99999e-01
4.353946028e-01,4.07819e-17,9.99999e-01,9.99999e-01,9.99999e-01,4.07819e-17,9.99999e-01
4.375715758e-01,8.59412e-17,9.99999e-01,9.99999e-01,9.99999e-01,8.59412e-17,9.99999e-01
4.397594337e-01,1.78460e-16,9.99999e-01,9.99999e-01,9.99999e-01,1.78460e-16,9.99999e-01
4.419582309e-01,3.65268e-16,9.99999e-01,9.99999e-01,9.99999e-01,3.65268e-16,9.99999e-01
4.441680220e-01,7.37121e-16,9.99999e-01,9.99999e-01,9.99999e-01,7.37121e-16,9.99999e-01
4.463888621e-01,1.46704e-15,9.99999e-01,9.99999e-01,9.99999e-01,1.46704e-15,9.99999e-01
4.486208064e-01,2.88033e-15,9.99999e-01,9.99999e-01,9.99999e-01,2.88033e-15,9.99999e-01
4.508639105e-01,5.58025e-15,9.99999e-01,9.99999e-01,9.99999e-01,5.58025e-15,9.99999e-01
4.531182300e-01,1.06707e-14,9.99999e-01,9.99999e-01,9.99999e-01,1.06707e-14,9.99999e-01
4.553838212e-01,2.01452e-14,9.99999e-01,9.99999e-01,9.99999e-01,2.01452e-14,9.99999e-01
4.576607403e-01,3.75575e-14,9.99999e-01,9.99999e-01,9.99999e-01,3.75575e-14,9.99999e-01
4.599490440e-01,6.91640e-14,9.99999e-01,9.99999e-01,9.99999e-01,6.91640e-14,9.99999e-01
4.622487892e-01,1.25842e-13,9.99999e-01,9.99999e-01,9.99999e-01,1.25842e-13,9.99999e-01
4.645600332e-01,2.26274e-13,9.99999e-01,9.99999e-01,9.99999e-01,2.26274e-13,9.99999e-01
4.668828333e-01,4.02173e-13,9.99999e-01,9.99999e-01,9.99999e-01,4.02173e-13,9.99999e-01
4.692172475e-01,7.06735e-13,9.99999e-01,9.99999e-01,9.99999e-01,7.06735e-13,9.99999e-01
4.715633337e-01,1.22818e-12,9.99999e-01,9.99999e-01,9.99999e-01,1.22818e-12,9.99999e-01
4.739211504e-01,2.11120e-12,9.99999e-01,9.99999e-01,9.99999e-01,2.11120e-12,9.99999e-01
4.762907561e-01,3.59046e-12,9.99999e-01,9.99999e-01,9.99999e-01,3.59046e-12,9.99999e-01
4.786722099e-01,6.04246e-12,9.99999e-01,9.99999e-01,9.99999e-01,6.04246e-12,9.99999e-01
4.810655710e-01,1.00650e-11,9.99999e-01,9.99999e-01,9.99999e-01,1.00650e-11,9.99999e-01
4.834708988e-01,1.65972e-11,9.99999e-01,9.99999e-01,9.99999e-01,1.65972e-11,9.99999e-01
4.858882533e-01,2.70998e-11,9.99999e-01,9.99999e-01,9.99999e-01,2.70998e-11,9.99999e-01
4.883176946e-01,4.38218e-11,9.99999e-01,9.99999e-01,9.99999e-01,4.38218e-11,9.99999e-01
4.907592831e-01,7.01928e-11,9.99999e-01,9.99999e-01,9.99999e-01,7.01928e-11,9.99999e-01
4.932130795e-01,1.11392e-10,9.99999e-01,9.99999e-01,9.99999e-01,1.11392e-10,9.99999e-01
4.956791449e-01,1.75167e-10,9.99999e-01,9.99999e-01,9.99999e-01,1.75167e-10,9.99999e-01
4.981575406e-01,2.73004e-10,9.99999e-01,9.99999e-01,9.99999e-01,2.73004e-10,9.99999e-01
5.006483283e-01,4.21773e-10,9.99999e-01,9.99999e-01,9.99999e-01,4.21773e-10,9.99999e-01
5.031515699e-01,6.46035e-10,9.99999e-01,9.99999e-01,9.99999e-01,6.46035e-10,9.99999e-01
5.056673278e-01,9.81243e-10,9.99999e-01,9.99999e-01,9.99999e-01,9.81243e-10,9.99999e-01
5.081956644e-01,1.47812e-09,9.99999e-01,9.99999e-01,9.99999e-01,1.47812e-09,9.99999e-01
5.107366428e-01,2.20867e-09,9.99999e-01,9.99999e-01,9.99999e-01,2.20867e-09,9.99999e-01
5.132903260e-01,3.27421e-09,9.99999e-01,9.99999e-01,9.99999e-01,3.27421e-09,9.99999e-01
5.158567776e-01,4.81619e-09,9.99999e-01,9.99999e-01,9.99999e-01,4.81619e-09,9.99999e-01
5.184360615e-01,7.03058e-09,9.99999e-01,9.99999e-01,9.99999e-01,7.03058e-09,9.99999e-01
5.210282418e-01,1.01867e-08,9.99999e-01,9.99999e-01,9.99999e-01,1.01867e-08,9.99999e-01
5.236333830e-01,1.46519e-08,9.99999e-01,9.99999e-01,9.99999e-01,1.46519e-08,9.99999e-01
5.262515499e-01,2.09236e-08,9.99999e-01,9.99999e-01,9.99999e-01,2.09236e-08,9.99999e-01
5.288828077e-01,2.96704e-08,9.99999e-01,9.99999e-01,9.99999e-01,2.96704e-08,9.99999e-01
5.315272217e-01,4.17844e-08,9.99999e-01,9.99999e-01,9.99999e-01,4.17844e-08,9.99999e-01
5.341848578e-01,5.84477e-08,9.99999e-01,9.99999e-01,9.99999e-01,5.84477e-08,9.99999e-01
5.368557821e-01,8.12160e-08,9.99999e-01,9.99999e-01,9.99999e-01,8.12160e-08,9.99999e-01
5.395400610e-01,1.12123e-07,9.99999e-01,9.99999e-01,9.99999e-01,1.12123e-07,9.99999e-01
5.422377613e-01,1.53808e-07,9.99999e-01,9.99999e-01,9.99999e-01,1.53808e-07,9.99999e-01
5.449489501e-01,2.09678e-07,9.99999e-01,9.99999e-01,9.99999e-01,2.09678e-07,9.99999e-01
5.476736949e-01,2.84099e-07,9.99999e-01,9.99999e-01,9.99999e-01,2.84099e-07,9.99999e-01
5.504120634e-01,3.82630e-07,9.99999e-01,9.99999e-01,9.99999e-01,3.82630e-07,9.99999e-01
5.531641237e-01,5.12313e-07,9.99999e-01,9.99999e-01,9.99999e-01,5.12313e-07,9.99999e-01
5.559299443e-01,6.82005e-07,9.99999e-01,9.99999e-01,9.99999e-01,6.82005e-07,9.99999e-01
5.587095940e-01,9.02788e-07,9.99999e-01,9.99999e-01,9.99999e-01,9.02788e-07,9.99999e-01
5.615031420e-01,1.18844e-06,9.99999e-01,9.99999e-01,9.99999e-01,1.18844e-06,9.99999e-01
5.643106577e-01,1.55601e-06,9.99999e-01,9.99999e-01,9.99999e-01,1.55601e-06,9.99999e-01
5.671322110e-01,2.02644e-06,9.99999e-01,9.99999e-01,9.99999e-01,2.02644e-06,9.99999e-01
5.699678720e-01,2.62537e-06,9.99999e-01,9.99999e-01,9.99999e-01,2.62537e-06,9.99999e-01
5.728177114e-01,3.38396e-06,9.99999e-01,9.99999e-01,9.99999e-01,3.38396e-06,9.99999e-01
5.756818000e-01,4.33992e-06,9.99999e-01,9.99999e-01,9.99999e-01,4.33992e-06,9.99999e-01
5.785602090e-01,5.53867e-06,9.99999e-01,9.99999e-01,9.99999e-01,5.53867e-06,9.99999e-01
5.814530100e-01,7.03454e-06,9.99999e-01,9.99999e-01,9.99999e-01,7.03454e-06,9.99999e-01
5.843602750e-01,8.89233e-06,9.99999e-01,9.99999e-01,9.99999e-01,8.89233e-06,9.99999e-01
5.872820764e-01,1.11888e-05,9.99999e-01,9.99999e-01,9.99999e-01,1.11888e-05,9.99999e-01
5.902184868e-01,1.40147e-05,9.99999e-01,9.99999e-01,9.99999e-01,1.40147e-05,9.99999e-01
5.931695792e-01,1.74764e-05,9.99999e-01,9.99999e-01,9.99999e-01,1.74764e-05,9.99999e-01
5.961354271e-01,2.16982e-05,9.99999e-01,9.99999e-01,9.99999e-01,2.16982e-05,9.99999e-01
5.991161043e-01,2.68251e-05,9.99999e-01,9.99999e-01,9.99999e-01,2.68251e-05,9.99999e-01
6.021116848e-01,3.30247e-05,9.99999e-01,9.99999e-01,9.99999e-01,3.30247e-05,9.99999e-01
6.051222432e-01,4.04905e-05,9.99999e-01,9.99999e-01,9.99999e-01,4.04905e-05,9.99999e-01
6.081478544e-01,4.94446e-05,9.99999e-01,9.99999e-01,9.99999e-01,4.94446e-05,9.99999e-01
6.111885937e-01,6.01410e-05,9.99999e-01,9.99999e-01,9.99999e-01,6.01410e-05,9.99999e-01
6.142445367e-01,7.28689e-05,9.99999e-01,9.99999e-01,9.99999e-01,7.28689e-05,9.99999e-01
6.173157594e-01,8.79564e-05,9.99999e-01,9.99999e-01,9.99999e-01,8.79564e-05,9.99999e-01
6.204023382e-01,1.05774e-04,9.99999e-01,9.99999e-01,9.99999e-01,1.05774e-04,9.99999e-01
6.235043498e-01,1.26738e-04,9.99999e-01,9.99999e-01,9.99999e-01,1.26738e-04,9.99999e-01
6.266218716e-01,1.51316e-04,9.99999e-01,9.99999e-01,9.99999e-01,1.51316e-04,9.99999e-01
6.297549810e-01,1.80028e-04,9.99999e-01,9.99999e-01,9.99999e-01,1.80028e-04,9.99999e-01
6.329037559e-01,2.13455e-04,9.99999e-01,9.99999e-01,9.99999e-01,2.13455e-04,9.99999e-01
6.360682746e-01,2.52239e-04,9.99999e-01,9.99999e-01,9.99999e-01,2.52239e-04,9.99999e-01
6.392486160e-01,2.97088e-04,9.99999e-01,9.99999e-01,9.99999e-01,2.97088e-04,9.99999e-01
6.424448591e-01,3.48782e-04,9.99999e-01,9.99999e-01,9.99999e-01,3.48782e-04,9.99999e-01
6.456570834e-01,4.08176e-04,9.99999e-01,9.99999e-01,9.99999e-01,4.08176e-04,9.99999e-01
6.488853688e-01,4.76203e-04,9.99999e-01,9.99999e-01,9.99999e-01,4.76203e-04,9.99999e-01
6.521297956e-01,5.53877e-04,9.99999e-01,9.99999e-01,9.99999e-01,5.53877e-04,9.99999e-01
6.553904446e-01,6.42302e-04,9.99999e-01,9.99999e-01,9.99999e-01,6.42302e-04,9.99999e-01
6.586673968e-01,7.42667e-04,9.99999e-01,9.99999e-01,9.99999e-01,7.42667e-04,9.99999e-01
6.619607338e-01,8.56257e-04,9.99999e-01,9.99999e-01,9.99999e-01,8.56257e-04,9.99999e-01
6.652705375e-01,9.84448e-04,9.99999e-01,9.99999e-01,9.99999e-01,9.84448e-04,9.99999e-01
6.685968902e-01,1.12872e-03,9.99999e-01,9.99999e-01,9.99999e-01,1.12872e-03,9.99999e-01
6.719398746e-01,1.29063e-03,9.99999e-01,9.99999e-01,9.99999e-01,1.29063e-03,9.99999e-01
6.752995740e-01,1.47188e-03,9.99999e-01,9.99999e-01,9.99999e-01,1.47188e-03,9.99999e-01
6.786760719e-01,1.67422e-03,9.99999e-01,9.99999e-01,9.99999e-01,1.67422e-03,9.99999e-01
6.820694522e-01,1.89955e-03,9.99999e-01,9.99999e-01,9.99999e-01,1.89955e-03,9.99999e-01
6.854797995e-01,2.14983e-03,9.99999e-01,9.99999e-01,9.99999e-01,2.14983e-03,9.99999e-01
6.889071985e-01,2.42714e-03,9.99999e-01,9.99999e-01,9.99999e-01,2.42714e-03,9.99999e-01
6.923517345e-01,2.73367e-03,9.99999e-01,9.99999e-01,9.99999e-01,2.73367e-03,9.99999e-01
6.958134932e-01,3.07168e-03,9.99999e-01,9.99999e-01,9.99999e-01,3.07168e-03,9.99999e-01
6.992925606e-01,3.44356e-03,9.99999e-01,9.99999e-01,9.99999e-01,3.44356e-03,9.99999e-01
7.027890234e-01,3.85174e-03,9.99999e-01,9.99999e-01,9.99999e-01,3.85174e-03,9.99999e-01
7.063029686e-01,4.29879e-03,9.99999e-01,9.99999e-01,9.99999e-01,4.29879e-03,9.99999e-01
7.098344834e-01,4.78734e-03,9.99999e-01,9.99999e-01,9.99999e-01,4.78734e-03,9.99999e-01
7.133836558e-01,5.32007e-03,9.99999e-01,9.99999e-01,9.99999e-01,5.32007e-03,9.99999e-01
7.169505741e-01,5.89979e-03,9.99999e-01,9.99999e-01,9.99999e-01,5.89979e-03,9.99999e-01
7.205353270e-01,6.52932e-03,9.99999e-01,9.99999e-01,9.99999e-01,6.52932e-03,9.99999e-01
7.241380036e-01,7.21157e-03,9.99999e-01,9.99999e-01,9.99999e-01,7.21157e-03,9.99999e-01
7.277586936e-01,7.94948e-03,9.99999e-01,9.99999e-01,9.99999e-01,7.94948e-03,9.99999e-01
7.313974871e-01,8.74606e-03,9.99999e-01,9.99999e-01,9.99999e-01,8.74606e-03,9.99999e-01
7.350544745e-01,9.60432e-03,9.99999e-01,9.99999e-01,9.99999e-01,9.60432e-03,9.99999e-01
7.387297469e-01,1.05273e-02,9.99999e-01,9.99999e-01,9.99999e-01,1.05273e-02,9.99999e-01
7.424233956e-01,1.15181e-02,9.99999e-01,9.99999e-01,9.99999e-01,1.15181e-02,9.99999e-01
7.461355126e-01,1.25798e-02,9.99999e-01,9.99999e-01,9.99999e-01,1.25798e-02,9.99999e-01
7.498661902e-01,1.37155e-02,9.99999e-01,9.99999e-01,9.99999e-01,1.37155e-02,9.99999e-01
7.536155211e-01,1.49281e-02,9.99999e-01,9.99999e-01,9.99999e-01,1.49281e-02,9.99999e-01
7.573835987e-01,1.62208e-02,9.99999e-01,9.99999e-01,9.99999e-01,1.62208e-02,9.99999e-01
7.611705167e-01,1.75966e-02,9.99999e-01,9.99999e-01,9.99999e-01,1.75966e-02,9.99999e-01
7.649763693e-01,1.90584e-02,9.99999e-01,9.99999e-01,9.99999e-01,1.90584e-02,9.99999e-01
7.688012511e-01,2.06091e-02,9.99999e-01,9.99999e-01,9.99999e-01,2.06091e-02,9.99999e-01
7.726452574e-01,2.22515e-02,9.99999e-01,9.99999e-01,9.99999e-01,2.22515e-02,9.99999e-01
7.765084837e-01,2.39885e-02,9.99999e-01,9.99999e-01,9.99999e-01,2.39885e-02,9.99999e-01
7.803910261e-01,2.26652e-02,9.99999e-01,9.99999e-01,8.77723e-01,2.58228e-02,9.99999e-01
7.842929812e-01,1.39246e-02,9.99999e-01,9.99999e-01,5.01664e-01,2.77568e-02,9.99999e-01
7.882144461e-01,1.44882e-02,9.99999e-01,9.99999e-01,4.86292e-01,2.97932e-02,9.99999e-01
7.921555184e-01,2.01703e-02,9.99999e-01,9.99999e-01,6.31618e-01,3.19343e-02,9.99999e-01
7.961162960e-01,2.49791e-02,9.99999e-01,9.99999e-01,7.30761e-01,3.41823e-02,9.99999e-01
8.000968774e-01,3.08102e-02,9.99999e-01,9.99999e-01,8.43201e-01,3.65395e-02,9.99999e-01
8.040973618e-01,3.57005e-02,9.99999e-01,9.99999e-01,9.15214e-01,3.90078e-02,9.99999e-01
8.081178486e-01,3.99271e-02,9.99999e-01,9.99999e-01,9.60037e-01,4.15891e-02,9.99999e-01
8.121584379e-01,4.37318e-02,9.99999e-01,9.99999e-01,9.87504e-01,4.42852e-02,9.99999e-01
8.162192301e-01,4.69669e-02,9.99999e-01,9.99999e-01,9.97226e-01,4.70975e-02,9.99999e-01
8.203003262e-01,5.00256e-02,9.99999e-01,9.99999e-01,9.99959e-01,5.00276e-02,9.99999e-01
8.244018279e-01,5.30766e-02,9.99999e-01,9.99999e-01,9.99999e-01,5.30766e-02,9.99999e-01
8.285238370e-01,5.62458e-02,9.99999e-01,9.99999e-01,9.99999e-01,5.62458e-02,9.99999e-01
8.326664562e-01,5.95359e-02,9.99999e-01,9.99999e-01,9.99999e-01,5.95359e-02,9.99999e-01
8.368297885e-01,6.29477e-02,9.99999e-01,9.99999e-01,9.99999e-01,6.29477e-02,9.99999e-01
8.410139374e-01,6.64818e-02,9.99999e-01,9.99999e-01,9.99999e-01,6.64818e-02,9.99999e-01
8.452190071e-01,7.01386e-02,9.99999e-01,9.99999e-01,9.99999e-01,7.01386e-02,9.99999e-01
8.494451021e-01,7.39184e-02,9.99999e-01,9.99999e-01,9.99999e-01,7.39184e-02,9.99999e-01
8.536923276e-01,7.78211e-02,9.99999e-01,9.99999e-01,9.99999e-01,7.78211e-02,9.99999e-01
8.579607893e-01,8.18467e-02,9.99999e-01,9.99999e-01,9.99999e-01,8.18467e-02,9.99999e-01
8.622505932e-01,8.59948e-02,9.99999e-01,9.99999e-01,9.99999e-01,8.59948e-02,9.99999e-01
8.665618462e-01,7.58910e-02,9.99999e-01,9.99999e-01,8.40758e-01,9.02649e-02,9.99999e-01
8.708946554e-01,1.79622e-02,9.99999e-01,9.99999e-01,1.89762e-01,9.46564e-02,9.99999e-01
8.752491287e-01,2.38812e-02,9.99999e-01,9.99999e-01,2.40814e-01,9.91684e-02,9.99999e-01
8.796253743e-01,4.62743e-02,9.99999e-01,9.99999e-01,4.45802e-01,1.03800e-01,9.99999e-01
8.840235012e-01,7.04414e-02,9.99999e-01,9.99999e-01,6.48929e-01,1.08550e-01,9.99999e-01
8.884436187e-01,9.54429e-02,9.99999e-01,9.99999e-01,8.41520e-01,1.13417e-01,9.99999e-01
8.928858368e-01,1.10364e-01,9.99999e-01,9.99999e-01,9.32129e-01,1.18400e-01,9.99999e-01
8.973502660e-01,1.21407e-01,9.99999e-01,9.99999e-01,9.83081e-01,1.23497e-01,9.99999e-01
9.018370173e-01,1.28464e-01,9.99999e-01,9.99999e-01,9.98121e-01,1.28705e-01,9.99999e-01
9.063462024e-01,1.27887e-01,9.99999e-01,9.99999e-01,9.54205e-01,1.34025e-01,9.99999e-01
9.108779334e-01,1.24860e-01,9.99999e-01,9.99999e-01,8.95363e-01,1.39452e-01,9.99999e-01
9.154323231e-01,1.41274e-01,9.99999e-01,9.99999e-01,9.74398e-01,1.44985e-01,9.99999e-01
9.200094847e-01,1.11875e-01,9.99999e-01,9.99999e-01,7.42748e-01,1.50623e-01,9.99999e-01
9.246095321e-01,9.15689e-02,9.99999e-01,9.99999e-01,5.85624e-01,1.56361e-01,9.99999e-01
9.292325798e-01,1.07946e-01,9.99999e-01,9.99999e-01,6.65515e-01,1.62199e-01,9.99999e-01
9.338787427e-01,1.12571e-01,9.99999e-01,9.99999e-01,6.69536e-01,1.68132e-01,9.99999e-01
9.385481364e-01,1.29152e-01,9.99999e-01,9.99999e-01,7.41577e-01,1.74159e-01,9.99999e-01
9.432408771e-01,1.49852e-01,9.99999e-01,9.99999e-01,8.31234e-01,1.80276e-01,9.99999e-01
9.479570815e-01,1.69571e-01,9.99999e-01,9.99999e-01,9.09318e-01,1.86482e-01,9.99999e-01
9.526968669e-01,1.84153e-01,9.99999e-01,9.99999e-01,9.55290e-01,1.92771e-01,9.99999e-01
9.574603512e-01,1.95279e-01,9.99999e-01,9.99999e-01,9.80597e-01,1.99143e-01,9.99999e-01
9.622476530e-01,2.04340e-01,9.99999e-01,9.99999e-01,9.93905e-01,2.05593e-01,9.99999e-01
9.670588912e-01,2.11730e-01,9.99999e-01,9.99999e-01,9.98170e-01,2.12118e-01,9.99999e-01
9.718941857e-01,2.18687e-01,9.99999e-01,9.99999e-01,9.99871e-01,2.18716e-01,9.99999e-01
9.767536566e-01,2.25382e-01,9.99999e-01,9.99999e-01,9.99999e-01,2.25382e-01,9.99999e-01
9.816374249e-01,2.32113e-01,9.99999e-01,9.99999e-01,9.99999e-01,2.32113e-01,9.99999e-01
9.865456120e-01,2.38907e-01,9.99999e-01,9.99999e-01,9.99999e-01,2.38907e-01,9.99999e-01
9.914783401e-01,2.45760e-01,9.99999e-01,9.99999e-01,9.99999e-01,2.45760e-01,9.99999e-01
9.964357318e-01,2.52668e-01,9.99999e-01,9.99999e-01,9.99999e-01,2.52668e-01,9.99999e-01
1.001417910e+00,2.59628e-01,9.99999e-01,9.99999e-01,9.99999e-01,2.59628e-01,9.99999e-01
1.006425000e+00,2.66636e-01,9.99999e-01,9.99999e-01,9.99999e-01,2.66636e-01,9.99999e-01
1.011457125e+00,2.73690e-01,9.99999e-01,9.99999e-01,9.99999e-01,2.73690e-01,9.99999e-01
1.016514411e+00,2.80785e-01,9.99999e-01,9.99999e-01,9.99999e-01,2.80785e-01,9.99999e-01
1.021596983e+00,2.87844e-01,9.99999e-01,9.99999e-01,9.99739e-01,2.87919e-01,9.99999e-01
1.026704968e+00,2.89607e-01,9.99999e-01,9.99999e-01,9.81426e-01,2.95087e-01,9.99999e-01
1.031838492e+00,2.63378e-01,9.99999e-01,9.99999e-01,8.71281e-01,3.02288e-01,9.99999e-01
1.036997685e+00,8.65618e-03,9.99999e-01,9.99999e-01,2.79668e-02,3.09516e-01,9.99999e-01
1.042182673e+00,1.10277e-04,9.99999e-01,9.99999e-01,3.48129e-04,3.16770e-01,9.99999e-01
1.047393587e+00,3.21929e-04,9.99999e-01,9.99999e-01,9.93469e-04,3.24045e-01,9.99999e-01
1.052630555e+00,5.30317e-10,9.99999e-01,9.99999e-01,1.60053e-09,3.31338e-01,9.99999e-01
1.057893707e+00,1.98412e-09,9.99999e-01,9.99999e-01,5.85896e-09,3.38647e-01,9.99999e-01
1.063183176e+00,4.00183e-07,9.99999e-01,9.99999e-01,1.15670e-06,3.45968e-01,9.99999e-01
1.068499092e+00,8.70734e-06,9.99999e-01,9.99999e-01,2.46458e-05,3.53298e-01,9.99999e-01
1.073841587e+00,3.37566e-04,9.99999e-01,9.99999e-01,9.36033e-04,3.60634e-01,9.99999e-01
1.079210795e+00,4.83206e-03,9.99999e-01,9.99999e-01,1.31315e-02,3.67973e-01,9.99999e-01
1.084606849e+00,3.05181e-02,9.99999e-01,9.99999e-01,8.13140e-02,3.75312e-01,9.99999e-01
1.090029883e+00,1.01967e-01,9.99999e-01,9.99999e-01,2.66478e-01,3.82647e-01,9.99999e-01
1.095480033e+00,2.02264e-01,9.99999e-01,9.99999e-01,5.18656e-01,3.89978e-01,9.99999e-01
1.100957433e+00,2.88655e-01,9.99999e-01,9.99999e-01,7.26543e-01,3.97299e-01,9.99999e-01
1.106462220e+00,3.54394e-01,9.99999e-01,9.99999e-01,8.75890e-01,4.04609e-01,9.99999e-01
1.111994531e+00,3.92115e-01,9.99999e-01,9.99999e-01,9.51953e-01,4.11906e-01,9.99999e-01
1.117554504e+00,4.14182e-01,9.99999e-01,9.99999e-01,9.88061e-01,4.19186e-01,9.99999e-01
1.123142276e+00,4.26111e-01,9.99999e-01,9.99999e-01,9.99212e-01,4.26447e-01,9.99999e-01
1.128757988e+00,4.33687e-01,9.99999e-01,9.99999e-01,9.99999e-01,4.33687e-01,9.99999e-01
1.134401778e+00,4.40903e-01,9.99999e-01,9.99999e-01,9.99999e-01,4.40903e-01,9.99999e-01
1.140073787e+00,4.48093e-01,9.99999e-01,9.99999e-01,9.99999e-01,4.48093e-01,9.99999e-01
1.145774156e+00,4.55254e-01,9.99999e-01,9.99999e-01,9.99999e-01,4.55254e-01,9.99999e-01
1.151503026e+00,4.62386e-01,9.99999e-01,9.99999e-01,9.99999e-01,4.62386e-01,9.99999e-01
1.157260541e+00,4.69485e-01,9.99999e-01,9.99999e-01,9.99999e-01,4.69485e-01,9.99999e-01
1.163046844e+00,4.76549e-01,9.99999e-01,9.99999e-01,9.99999e-01,4.76549e-01,9.99999e-01
1.168862078e+00,4.83577e-01,9.99999e-01,9.99999e-01,9.99999e-01,4.83577e-01,9.99999e-01
1.174706389e+00,4.90567e-01,9.99999e-01,9.99999e-01,9.99999e-01,4.90567e-01,9.99999e-01
1.180579921e+00,4.97517e-01,9.99999e-01,9.99999e-01,9.99999e-01,4.97517e-01,9.99999e-01
1.186482820e+00,5.04407e-01,9.99999e-01,9.99999e-01,9.99963e-01,5.04425e-01,9.99999e-01
1.192415234e+00,4.80108e-01,9.99999e-01,9.99999e-01,9.39013e-01,5.11290e-01,9.99999e-01
1.198377311e+00,2.50139e-01,9.99999e-01,9.99999e-01,4.82790e-01,5.18110e-01,9.99999e-01
1.204369197e+00,2.20008e-47,9.99999e-01,9.99999e-01,4.19156e-47,5.24883e-01,9.99999e-01
1.210391043e+00,3.56348e-196,9.99999e-01,9.99999e-01,6.70320e-196,5.31609e-01,9.99999e-01
1.216442998e+00,1.44909e-169,9.99999e-01,9.99999e-01,2.69204e-169,5.38285e-01,9.99999e-01
1.222525213e+00,5.31186e-167,9.99999e-01,9.99999e-01,9.74811e-167,5.44911e-01,9.99999e-01
1.228637839e+00,1.56669e-128,9.99999e-01,9.99999e-01,2.84086e-128,5.51485e-01,9.99999e-01
