#,Wave/freq,Total,N2,O2,CO2,Rayleigh,CIA
4.000000000e-01,7.68645e-11,9.99999e-01,9.99999e-01,9.99999e-01,7.68645e-11,9.99999e-01
4.020000000e-01,1.21818e-10,9.99999e-01,9.99999e-01,9.99999e-01,1.21818e-10,9.99999e-01
4.040100000e-01,1.91224e-10,9.99999e-01,9.99999e-01,9.99999e-01,1.91224e-10,9.99999e-01
4.060300500e-01,2.97513e-10,9.99999e-01,9.99999e-01,9.99999e-01,2.97513e-10,9.99999e-01
4.080602003e-01,4.58858e-10,9.99999e-01,9.99999e-01,9.99999e-01,4.58858e-10,9.99999e-01
4.101005013e-01,7.01670e-10,9.99999e-01,9.99999e-01,9.99999e-01,7.01670e-10,9.99999e-01
4.121510038e-01,1.06401e-09,9.99999e-01,9.99999e-01,9.99999e-01,1.06401e-09,9.99999e-01
4.142117588e-01,1.60024e-09,9.99999e-01,9.99999e-01,9.99999e-01,1.60024e-09,9.99999e-01
4.162828176e-01,2.38739e-09,9.99999e-01,9.99999e-01,9.99999e-01,2.38739e-09,9.99999e-01
4.183642317e-01,3.53371e-09,9.99999e-01,9.99999e-01,9.99999e-01,3.53371e-09,9.99999e-01
4.204560528e-01,5.19009e-09,9.99999e-01,9.99999e-01,9.99999e-01,5.19009e-09,9.99999e-01
4.225583331e-01,7.56520e-09,9.99999e-01,9.99999e-01,9.99999e-01,7.56520e-09,9.99999e-01
4.246711247e-01,1.09455e-08,9.99999e-01,9.99999e-01,9.99999e-01,1.09455e-08,9.99999e-01
4.267944804e-01,1.57209e-08,9.99999e-01,9.99999e-01,9.99999e-01,1.57209e-08,9.99999e-01
4.289284528e-01,2.24191e-08,9.99999e-01,9.99999e-01,9.99999e-01,2.24191e-08,9.99999e-01
4.310730950e-01,3.17477e-08,9.99999e-01,9.99999e-01,9.99999e-01,3.17477e-08,9.99999e-01
4.332284605e-01,4.46500e-08,9.99999e-01,9.99999e-01,9.99999e-01,4.46500e-08,9.99999e-01
4.353946028e-01,6.23743e-08,9.99999e-01,9.99999e-01,9.99999e-01,6.23743e-08,9.99999e-01
4.375715758e-01,8.65610e-08,9.99999e-01,9.99999e-01,9.99999e-01,8.65610e-08,9.99999e-01
4.397594337e-01,1.19351e-07,9.99999e-01,9.99999e-01,9.99999e-01,1.19351e-07,9.99999e-01
4.419582309e-01,1.63522e-07,9.99999e-01,9.99999e-01,9.99999e-01,1.63522e-07,9.99999e-01
4.441680220e-01,2.22652e-07,9.99999e-01,9.99999e-01,9.99999e-01,2.22652e-07,9.99999e-01
4.463888621e-01,3.01319e-07,9.99999e-01,9.99999e-01,9.99999e-01,3.01319e-07,9.99999e-01
4.486208064e-01,4.05352e-07,9.99999e-01,9.99999e-01,9.99999e-01,4.05352e-07,9.99999e-01
4.508639105e-01,5.42118e-07,9.99999e-01,9.99999e-01,9.99999e-01,5.42118e-07,9.99999e-01
4.531182300e-01,7.20876e-07,9.99999e-01,9.99999e-01,9.99999e-01,7.20876e-07,9.99999e-01
4.553838212e-01,9.53198e-07,9.99999e-01,9.99999e-01,9.99999e-01,9.53198e-07,9.99999e-01
4.576607403e-01,1.25346e-06,9.99999e-01,9.99999e-01,9.99999e-01,1.25346e-06,9.99999e-01
4.599490440e-01,1.63940e-06,9.99999e-01,9.99999e-01,9.99999e-01,1.63940e-06,9.99999e-01
4.622487892e-01,2.13285e-06,9.99999e-01,9.99999e-01,9.99999e-01,2.13285e-06,9.99999e-01
4.645600332e-01,2.76043e-06,9.99999e-01,9.99999e-01,9.99999e-01,2.76043e-06,9.99999e-01
4.668828333e-01,3.55453e-06,9.99999e-01,9.99999e-01,9.99999e-01,3.55453e-06,9.99999e-01
4.692172475e-01,4.55426e-06,9.99999e-01,9.99999e-01,9.99999e-01,4.55426e-06,9.99999e-01
4.715633337e-01,5.80667e-06,9.99999e-01,9.99999e-01,9.99999e-01,5.80667e-06,9.99999e-01
4.739211504e-01,7.36805e-06,9.99999e-01,9.99999e-01,9.99999e-01,7.36805e-06,9.99999e-01
4.762907561e-01,9.30540e-06,9.99999e-01,9.99999e-01,9.99999e-01,9.30540e-06,9.99999e-01
4.786722099e-01,1.16981e-05,9.99999e-01,9.99999e-01,9.99999e-01,1.16981e-05,9.99999e-01
4.810655710e-01,1.46397e-05,9.99999e-01,9.99999e-01,9.99999e-01,1.46397e-05,9.99999e-01
4.834708988e-01,1.82400e-05,9.99999e-01,9.99999e-01,9.99999e-01,1.82400e-05,9.99999e-01
4.858882533e-01,2.26272e-05,9.99999e-01,9.99999e-01,9.99999e-01,2.26272e-05,9.99999e-01
4.883176946e-01,2.79504e-05,9.99999e-01,9.99999e-01,9.99999e-01,2.79504e-05,9.99999e-01
4.907592831e-01,3.43822e-05,9.99999e-01,9.99999e-01,9.99999e-01,3.43822e-05,9.99999e-01
4.932130795e-01,4.21213e-05,9.99999e-01,9.99999e-01,9.99999e-01,4.21213e-05,9.99999e-01
4.956791449e-01,5.13960e-05,9.99999e-01,9.99999e-01,9.99999e-01,5.13960e-05,9.99999e-01
4.981575406e-01,6.24667e-05,9.99999e-01,9.99999e-01,9.99999e-01,6.24667e-05,9.99999e-01
5.006483283e-01,7.56302e-05,9.99999e-01,9.99999e-01,9.99999e-01,7.56302e-05,9.99999e-01
5.031515699e-01,9.12223e-05,9.99999e-01,9.99999e-01,9.99999e-01,9.12223e-05,9.99999e-01
5.056673278e-01,1.09622e-04,9.99999e-01,9.99999e-01,9.99999e-01,1.09622e-04,9.99999e-01
5.081956644e-01,1.31257e-04,9.99999e-01,9.99999e-01,9.99999e-01,1.31257e-04,9.99999e-01
5.107366428e-01,1.56602e-04,9.99999e-01,9.99999e-01,9.99999e-01,1.56602e-04,9.99999e-01
5.132903260e-01,1.86191e-04,9.99999e-01,9.99999e-01,9.99999e-01,1.86191e-04,9.99999e-01
5.158567776e-01,2.20616e-04,9.99999e-01,9.99999e-01,9.99999e-01,2.20616e-04,9.99999e-01
5.184360615e-01,2.60531e-04,9.99999e-01,9.99999e-01,9.99999e-01,2.60531e-04,9.99999e-01
5.210282418e-01,3.06659e-04,9.99999e-01,9.99999e-01,9.99999e-01,3.06659e-04,9.99999e-01
5.236333830e-01,3.59793e-04,9.99999e-01,9.99999e-01,9.99999e-01,3.59793e-04,9.99999e-01
5.262515499e-01,4.20803e-04,9.99999e-01,9.99999e-01,9.99999e-01,4.20803e-04,9.99999e-01
5.288828077e-01,4.90639e-04,9.99999e-01,9.99999e-01,9.99999e-01,4.90639e-04,9.99999e-01
5.315272217e-01,5.70332e-04,9.99999e-01,9.99999e-01,9.99999e-01,5.70332e-04,9.99999e-01
5.341848578e-01,6.61001e-04,9.99999e-01,9.99999e-01,9.99999e-01,6.61001e-04,9.99999e-01
5.368557821e-01,7.63855e-04,9.99999e-01,9.99999e-01,9.99999e-01,7.63855e-04,9.99999e-01
5.395400610e-01,8.80195e-04,9.99999e-01,9.99999e-01,9.99999e-01,8.80195e-04,9.99999e-01
5.422377613e-01,1.01142e-03,9.99999e-01,9.99999e-01,9.99999e-01,1.01142e-03,9.99999e-01
5.449489501e-01,1.15902e-03,9.99999e-01,9.99999e-01,9.99999e-01,1.15902e-03,9.99999e-01
5.476736949e-01,1.32459e-03,9.99999e-01,9.99999e-01,9.99999e-01,1.32459e-03,9.99999e-01
5.504120634e-01,1.50983e-03,9.99999e-01,9.99999e-01,9.99999e-01,1.50983e-03,9.99999e-01
5.531641237e-01,1.71653e-03,9.99999e-01,9.99999e-01,9.99999e-01,1.71653e-03,9.99999e-01
5.559299443e-01,1.94659e-03,9.99999e-01,9.99999e-01,9.99999e-01,1.94659e-03,9.99999e-01
5.587095940e-01,2.20200e-03,9.99999e-01,9.99999e-01,9.99999e-01,2.20200e-03,9.99999e-01
5.615031420e-01,2.48487e-03,9.99999e-01,9.99999e-01,9.99999e-01,2.48487e-03,9.99999e-01
5.643106577e-01,2.79739e-03,9.99999e-01,9.99999e-01,9.99999e-01,2.79739e-03,9.99999e-01
5.671322110e-01,3.14185e-03,9.99999e-01,9.99999e-01,9.99999e-01,3.14185e-03,9.99999e-01
5.699678720e-01,3.52065e-03,9.99999e-01,9.99999e-01,9.99999e-01,3.52065e-03,9.99999e-01
5.728177114e-01,3.93625e-03,9.99999e-01,9.99999e-01,9.99999e-01,3.93625e-03,9.99999e-01
5.756818000e-01,4.39123e-03,9.99999e-01,9.99999e-01,9.99999e-01,4.39123e-03,9.99999e-01
5.785602090e-01,4.88822e-03,9.99999e-01,9.99999e-01,9.99999e-01,4.88822e-03,9.99999e-01
5.814530100e-01,5.42995e-03,9.99999e-01,9.99999e-01,9.99999e-01,5.42995e-03,9.99999e-01
5.843602750e-01,6.01921e-03,9.99999e-01,9.99999e-01,9.99999e-01,6.01921e-03,9.99999e-01
5.872820764e-01,6.65884e-03,9.99999e-01,9.99999e-01,9.99999e-01,6.65884e-03,9.99999e-01
5.902184868e-01,7.35177e-03,9.99999e-01,9.99999e-01,9.99999e-01,7.35177e-03,9.99999e-01
5.931695792e-01,8.10095e-03,9.99999e-01,9.99999e-01,9.99999e-01,8.10095e-03,9.99999e-01
5.961354271e-01,8.90938e-03,9.99999e-01,9.99999e-01,9.99999e-01,8.90938e-03,9.99999e-01
5.991161043e-01,9.78010e-03,9.99999e-01,9.99999e-01,9.99999e-01,9.78010e-03,9.99999e-01
6.021116848e-01,1.07162e-02,9.99999e-01,9.99999e-01,9.99999e-01,1.07162e-02,9.99999e-01
6.051222432e-01,1.17206e-02,9.99999e-01,9.99999e-01,9.99999e-01,1.17206e-02,9.99999e-01
6.081478544e-01,1.27966e-02,9.99999e-01,9.99999e-01,9.99999e-01,1.27966e-02,9.99999e-01
6.111885937e-01,1.39471e-02,9.99999e-01,9.99999e-01,9.99999e-01,1.39471e-02,9.99999e-01
6.142445367e-01,1.51752e-02,9.99999e-01,9.99999e-01,9.99999e-01,1.51752e-02,9.99999e-01
6.173157594e-01,1.64839e-02,9.99999e-01,9.99999e-01,9.99999e-01,1.64839e-02,9.99999e-01
6.204023382e-01,1.78763e-02,9.99999e-01,9.99999e-01,9.99999e-01,1.78763e-02,9.99999e-01
6.235043498e-01,1.93553e-02,9.99999e-01,9.99999e-01,9.99999e-01,1.93553e-02,9.99999e-01
6.266218716e-01,2.09238e-02,9.99999e-01,9.99999e-01,9.99999e-01,2.09238e-02,9.99999e-01
6.297549810e-01,2.25846e-02,9.99999e-01,9.99999e-01,9.99999e-01,2.25846e-02,9.99999e-01
6.329037559e-01,2.43404e-02,9.99999e-01,9.99999e-01,9.99999e-01,2.43404e-02,9.99999e-01
6.360682746e-01,2.61940e-02,9.99999e-01,9.99999e-01,9.99999e-01,2.61940e-02,9.99999e-01
6.392486160e-01,2.81479e-02,9.99999e-01,9.99999e-01,9.99999e-01,2.81479e-02,9.99999e-01
6.424448591e-01,3.02047e-02,9.99999e-01,9.99999e-01,9.99999e-01,3.02047e-02,9.99999e-01
6.456570834e-01,3.23665e-02,9.99999e-01,9.99999e-01,9.99999e-01,3.23665e-02,9.99999e-01
6.488853688e-01,3.46358e-02,9.99999e-01,9.99999e-01,9.99999e-01,3.46358e-02,9.99999e-01
6.521297956e-01,3.70146e-02,9.99999e-01,9.99999e-01,9.99999e-01,3.70146e-02,9.99999e-01
6.553904446e-01,3.95050e-02,9.99999e-01,9.99999e-01,9.99999e-01,3.95050e-02,9.99999e-01
6.586673968e-01,4.21086e-02,9.99999e-01,9.99999e-01,9.99999e-01,4.21086e-02,9.99999e-01
6.619607338e-01,4.48274e-02,9.99999e-01,9.99999e-01,9.99999e-01,4.48274e-02,9.99999e-01
6.652705375e-01,4.76627e-02,9.99999e-01,9.99999e-01,9.99999e-01,4.76627e-02,9.99999e-01
6.685968902e-01,5.06160e-02,9.99999e-01,9.99999e-01,9.99999e-01,5.06160e-02,9.99999e-01
6.719398746e-01,5.36885e-02,9.99999e-01,9.99999e-01,9.99999e-01,5.36885e-02,9.99999e-01
6.752995740e-01,5.68813e-02,9.99999e-01,9.99999e-01,9.99999e-01,5.68813e-02,9.99999e-01
6.786760719e-01,6.01952e-02,9.99999e-01,9.99999e-01,9.99999e-01,6.01952e-02,9.99999e-01
6.820694522e-01,6.36310e-02,9.99999e-01,9.99999e-01,9.99999e-01,6.36310e-02,9.99999e-01
6.854797995e-01,6.71891e-02,9.99999e-01,9.99999e-01,9.99999e-01,6.71891e-02,9.99999e-01
6.889071985e-01,7.08701e-02,9.99999e-01,9.99999e-01,9.99999e-01,7.08701e-02,9.99999e-01
6.923517345e-01,7.46739e-02,9.99999e-01,9.99999e-01,9.99999e-01,7.46739e-02,9.99999e-01
6.958134932e-01,7.86007e-02,9.99999e-01,9.99999e-01,9.99999e-01,7.86007e-02,9.99999e-01
6.992925606e-01,8.26504e-02,9.99999e-01,9.99999e-01,9.99999e-01,8.26504e-02,9.99999e-01
7.027890234e-01,8.68224e-02,9.99999e-01,9.99999e-01,9.99999e-01,8.68224e-02,9.99999e-01
7.063029686e-01,9.11164e-02,9.99999e-01,9.99999e-01,9.99999e-01,9.11164e-02,9.99999e-01
7.098344834e-01,9.55316e-02,9.99999e-01,9.99999e-01,9.99999e-01,9.55316e-02,9.99999e-01
7.133836558e-01,1.00067e-01,9.99999e-01,9.99999e-01,9.99999e-01,1.00067e-01,9.99999e-01
7.169505741e-01,1.04722e-01,9.99999e-01,9.99999e-01,9.99999e-01,1.04722e-01,9.99999e-01
7.205353270e-01,1.09495e-01,9.99999e-01,9.99999e-01,9.99999e-01,1.09495e-01,9.99999e-01
7.241380036e-01,1.14385e-01,9.99999e-01,9.99999e-01,9.99999e-01,1.14385e-01,9.99999e-01
7.277586936e-01,1.19390e-01,9.99999e-01,9.99999e-01,9.99999e-01,1.19390e-01,9.99999e-01
7.313974871e-01,1.24509e-01,9.99999e-01,9.99999e-01,9.99999e-01,1.24509e-01,9.99999e-01
7.350544745e-01,1.29740e-01,9.99999e-01,9.99999e-01,9.99999e-01,1.29740e-01,9.99999e-01
7.387297469e-01,1.35080e-01,9.99999e-01,9.99999e-01,9.99999e-01,1.35080e-01,9.99999e-01
7.424233956e-01,1.40529e-01,9.99999e-01,9.99999e-01,9.99999e-01,1.40529e-01,9.99999e-01
7.461355126e-01,1.46083e-01,9.99999e-01,9.99999e-01,9.99999e-01,1.46083e-01,9.99999e-01
7.498661902e-01,1.51740e-01,9.99999e-01,9.99999e-01,9.99999e-01,1.51740e-01,9.99999e-01
7.536155211e-01,1.57498e-01,9.99999e-01,9.99999e-01,9.99999e-01,1.57498e-01,9.99999e-01
7.573835987e-01,1.63354e-01,9.99999e-01,9.99999e-01,9.99999e-01,1.63354e-01,9.99999e-01
7.611705167e-01,1.69306e-01,9.99999e-01,9.99999e-01,9.99999e-01,1.69306e-01,9.99999e-01
7.649763693e-01,1.75351e-01,9.99999e-01,9.99999e-01,9.99999e-01,1.75351e-01,9.99999e-01
7.688012511e-01,1.81486e-01,9.99999e-01,9.99999e-01,9.99999e-01,1.81486e-01,9.99999e-01
7.726452574e-01,1.87708e-01,9.99999e-01,9.99999e-01,9.99999e-01,1.87708e-01,9.99999e-01
7.765084837e-01,1.94014e-01,9.99999e-01,9.99999e-01,9.99999e-01,1.94014e-01,9.99999e-01
7.803910261e-01,1.86855e-01,9.99999e-01,9.99999e-01,9.32400e-01,2.00402e-01,9.99999e-01
7.842929812e-01,1.49954e-01,9.99999e-01,9.99999e-01,7.24883e-01,2.06867e-01,9.99999e-01
7.882144461e-01,1.51450e-01,9.99999e-01,9.99999e-01,7.09681e-01,2.13406e-01,9.99999e-01
7.921555184e-01,1.78952e-01,9.99999e-01,9.99999e-01,8.13353e-01,2.20017e-01,9.99999e-01
7.961162960e-01,1.97349e-01,9.99999e-01,9.99999e-01,8.70541e-01,2.26697e-01,9.99999e-01
8.000968774e-01,2.16509e-01,9.99999e-01,9.99999e-01,9.27468e-01,2.33441e-01,9.99999e-01
8.040973618e-01,2.31069e-01,9.99999e-01,9.99999e-01,9.61798e-01,2.40246e-01,9.99999e-01
8.081178486e-01,2.42719e-01,9.99999e-01,9.99999e-01,9.82228e-01,2.47110e-01,9.99999e-01
8.121584379e-01,2.52633e-01,9.99999e-01,9.99999e-01,9.94508e-01,2.54028e-01,9.99999e-01
8.162192301e-01,2.60681e-01,9.99999e-01,9.99999e-01,9.98784e-01,2.60998e-01,9.99999e-01
8.203003262e-01,2.68011e-01,9.99999e-01,9.99999e-01,9.99982e-01,2.68016e-01,9.99999e-01
8.244018279e-01,2.75078e-01,9.99999e-01,9.99999e-01,9.99999e-01,2.75078e-01,9.99999e-01
8.285238370e-01,2.82181e-01,9.99999e-01,9.99999e-01,9.99999e-01,2.82181e-01,9.99999e-01
8.326664562e-01,2.89322e-01,9.99999e-01,9.99999e-01,9.99999e-01,2.89322e-01,9.99999e-01
8.368297885e-01,2.96497e-01,9.99999e-01,9.99999e-01,9.99999e-01,2.96497e-01,9.99999e-01
8.410139374e-01,3.03703e-01,9.99999e-01,9.99999e-01,9.99999e-01,3.03703e-01,9.99999e-01
8.452190071e-01,3.10936e-01,9.99999e-01,9.99999e-01,9.99999e-01,3.10936e-01,9.99999e-01
8.494451021e-01,3.18194e-01,9.99999e-01,9.99999e-01,9.99999e-01,3.18194e-01,9.99999e-01
8.536923276e-01,3.25474e-01,9.99999e-01,9.99999e-01,9.99999e-01,3.25474e-01,9.99999e-01
8.579607893e-01,3.32770e-01,9.99999e-01,9.99999e-01,9.99999e-01,3.32770e-01,9.99999e-01
8.622505932e-01,3.40082e-01,9.99999e-01,9.99999e-01,9.99999e-01,3.40082e-01,9.99999e-01
8.665618462e-01,3.07458e-01,9.99999e-01,9.99999e-01,8.85012e-01,3.47405e-01,9.99999e-01
8.708946554e-01,1.59033e-01,9.99999e-01,9.99999e-01,4.48313e-01,3.54736e-01,9.99999e-01
8.752491287e-01,1.87411e-01,9.99999e-01,9.99999e-01,5.17604e-01,3.62073e-01,9.99999e-01
8.796253743e-01,2.55779e-01,9.99999e-01,9.99999e-01,6.92395e-01,3.69412e-01,9.99999e-01
8.840235012e-01,3.10710e-01,9.99999e-01,9.99999e-01,8.24709e-01,3.76750e-01,9.99999e-01
8.884436187e-01,3.55946e-01,9.99999e-01,9.99999e-01,9.26737e-01,3.84085e-01,9.99999e-01
8.928858368e-01,3.79508e-01,9.99999e-01,9.99999e-01,9.69583e-01,3.91414e-01,9.99999e-01
8.973502660e-01,3.95763e-01,9.99999e-01,9.99999e-01,9.92550e-01,3.98733e-01,9.99999e-01
9.018370173e-01,4.05707e-01,9.99999e-01,9.99999e-01,9.99177e-01,4.06041e-01,9.99999e-01
9.063462024e-01,4.04615e-01,9.99999e-01,9.99999e-01,9.78904e-01,4.13335e-01,9.99999e-01
9.108779334e-01,4.00594e-01,9.99999e-01,9.99999e-01,9.52409e-01,4.20611e-01,9.99999e-01
9.154323231e-01,4.23027e-01,9.99999e-01,9.99999e-01,9.88684e-01,4.27868e-01,9.99999e-01
9.200094847e-01,3.72460e-01,9.99999e-01,9.99999e-01,8.56025e-01,4.35103e-01,9.99999e-01
9.246095321e-01,3.48645e-01,9.99999e-01,9.99999e-01,7.88227e-01,4.42315e-01,9.99999e-01
9.292325798e-01,3.73381e-01,9.99999e-01,9.99999e-01,8.30659e-01,4.49499e-01,9.99999e-01
9.338787427e-01,3.81560e-01,9.99999e-01,9.99999e-01,8.35553e-01,4.56655e-01,9.99999e-01
9.385481364e-01,4.06149e-01,9.99999e-01,9.99999e-01,8.75734e-01,4.63780e-01,9.99999e-01
9.432408771e-01,4.34079e-01,9.99999e-01,9.99999e-01,9.21861e-01,4.70873e-01,9.99999e-01
9.479570815e-01,4.58358e-01,9.99999e-01,9.99999e-01,9.59048e-01,4.77930e-01,9.99999e-01
9.526968669e-01,4.75289e-01,9.99999e-01,9.99999e-01,9.80076e-01,4.84951e-01,9.99999e-01
9.574603512e-01,4.87718e-01,9.99999e-01,9.99999e-01,9.91432e-01,4.91933e-01,9.99999e-01
9.622476530e-01,4.97539e-01,9.99999e-01,9.99999e-01,9.97321e-01,4.98875e-01,9.99999e-01
9.670588912e-01,5.05369e-01,9.99999e-01,9.99999e-01,9.99197e-01,5.05775e-01,9.99999e-01
9.718941857e-01,5.12602e-01,9.99999e-01,9.99999e-01,9.99943e-01,5.12631e-01,9.99999e-01
9.767536566e-01,5.19442e-01,9.99999e-01,9.99999e-01,9.99999e-01,5.19442e-01,9.99999e-01
9.816374249e-01,5.26206e-01,9.99999e-01,9.99999e-01,9.99999e-01,5.26206e-01,9.99999e-01
9.865456120e-01,5.32922e-01,9.99999e-01,9.99999e-01,9.99999e-01,5.32922e-01,9.99999e-01
9.914783401e-01,5.39588e-01,9.99999e-01,9.99999e-01,9.99999e-01,5.39588e-01,9.99999e-01
9.964357318e-01,5.46204e-01,9.99999e-01,9.99999e-01,9.99999e-01,5.46204e-01,9.99999e-01
1.001417910e+00,5.52768e-01,9.99999e-01,9.99999e-01,9.99999e-01,5.52768e-01,9.99999e-01
1.006425000e+00,5.59279e-01,9.99999e-01,9.99999e-01,9.99999e-01,5.59279e-01,9.99999e-01
1.011457125e+00,5.65735e-01,9.99999e-01,9.99999e-01,9.99999e-01,5.65735e-01,9.99999e-01
1.016514411e+00,5.72136e-01,9.99999e-01,9.99999e-01,9.99999e-01,5.72136e-01,9.99999e-01
1.021596983e+00,5.78411e-01,9.99999e-01,9.99999e-01,9.99877e-01,5.78482e-01,9.99999e-01
1.026704968e+00,5.79884e-01,9.99999e-01,9.99999e-01,9.91645e-01,5.84770e-01,9.99999e-01
1.031838492e+00,5.44996e-01,9.99999e-01,9.99999e-01,9.22158e-01,5.91000e-01,9.99999e-01
1.036997685e+00,4.31731e-02,9.99999e-01,9.99999e-01,7.22959e-02,5.97172e-01,9.99999e-01
1.042182673e+00,8.47794e-03,9.99999e-01,9.99999e-01,1.40530e-02,6.03284e-01,9.99999e-01
1.047393587e+00,1.68181e-02,9.99999e-01,9.99999e-01,2.76007e-02,6.09336e-01,9.99999e-01
1.052630555e+00,1.77953e-05,9.99999e-01,9.99999e-01,2.89199e-05,6.15328e-01,9.99999e-01
1.057893707e+00,6.46138e-05,9.99999e-01,9.99999e-01,1.04005e-04,6.21259e-01,9.99999e-01
1.063183176e+00,6.75748e-04,9.99999e-01,9.99999e-01,1.07753e-03,6.27127e-01,9.99999e-01
1.068499092e+00,4.19789e-03,9.99999e-01,9.99999e-01,6.63242e-03,6.32934e-01,9.99999e-01
1.073841587e+00,2.60183e-02,9.99999e-01,9.99999e-01,4.07377e-02,6.38678e-01,9.99999e-01
1.079210795e+00,8.54698e-02,9.99999e-01,9.99999e-01,1.32643e-01,6.44360e-01,9.99999e-01
1.084606849e+00,2.09495e-01,9.99999e-01,9.99999e-01,3.22311e-01,6.49978e-01,9.99999e-01
1.090029883e+00,3.62843e-01,9.99999e-01,9.99999e-01,5.53508e-01,6.55532e-01,9.99999e-01
1.095480033e+00,4.93683e-01,9.99999e-01,9.99999e-01,7.46846e-01,6.61023e-01,9.99999e-01
1.100957433e+00,5.78749e-01,9.99999e-01,9.99999e-01,8.68404e-01,6.66451e-01,9.99999e-01
1.106462220e+00,6.33733e-01,9.99999e-01,9.99999e-01,9.43315e-01,6.71814e-01,9.99999e-01
1.111994531e+00,6.62615e-01,9.99999e-01,9.99999e-01,9.78587e-01,6.77113e-01,9.99999e-01
1.117554504e+00,6.78764e-01,9.99999e-01,9.99999e-01,9.94745e-01,6.82348e-01,9.99999e-01
1.123142276e+00,6.87283e-01,9.99999e-01,9.99999e-01,9.99655e-01,6.87519e-01,9.99999e-01
1.128757988e+00,6.92626e-01,9.99999e-01,9.99999e-01,9.99999e-01,6.92626e-01,9.99999e-01
1.134401778e+00,6.97669e-01,9.99999e-01,9.99999e-01,9.99999e-01,6.97669e-01,9.99999e-01
1.140073787e+00,7.02648e-01,9.99999e-01,9.99999e-01,9.99999e-01,7.02648e-01,9.99999e-01
1.145774156e+00,7.07563e-01,9.99999e-01,9.99999e-01,9.99999e-01,7.07563e-01,9.99999e-01
1.151503026e+00,7.12414e-01,9.99999e-01,9.99999e-01,9.99999e-01,7.12414e-01,9.99999e-01
1.157260541e+00,7.17202e-01,9.99999e-01,9.99999e-01,9.99999e-01,7.17202e-01,9.99999e-01
1.163046844e+00,7.21926e-01,9.99999e-01,9.99999e-01,9.99999e-01,7.21926e-01,9.99999e-01
1.168862078e+00,7.26588e-01,9.99999e-01,9.99999e-01,9.99999e-01,7.26588e-01,9.99999e-01
1.174706389e+00,7.31186e-01,9.99999e-01,9.99999e-01,9.99999e-01,7.31186e-01,9.99999e-01
1.180579921e+00,7.35722e-01,9.99999e-01,9.99999e-01,9.99999e-01,7.35722e-01,9.99999e-01
1.186482820e+00,7.40183e-01,9.99999e-01,9.99999e-01,9.99982e-01,7.40195e-01,9.99999e-01
1.192415234e+00,7.23004e-01,9.99999e-01,9.99999e-01,9.70986e-01,7.44607e-01,9.99999e-01
1.198377311e+00,4.00143e-01,9.99999e-01,9.99999e-01,5.34266e-01,7.48957e-01,9.99999e-01
1.204369197e+00,4.23664e-22,9.99999e-01,9.99999e-01,5.62450e-22,7.53246e-01,9.99999e-01
1.210391043e+00,1.58026e-87,9.99999e-01,9.99999e-01,2.08622e-87,7.57473e-01,9.99999e-01
1.216442998e+00,7.91855e-76,9.99999e-01,9.99999e-01,1.03967e-75,7.61641e-01,9.99999e-01
1.222525213e+00,1.06445e-74,9.99999e-01,9.99999e-01,1.39008e-74,7.65748e-01,9.99999e-01
1.228637839e+00,9.89663e-58,9.99999e-01,9.99999e-01,1.28562e-57,7.69796e-01,9.99999e-01
