#,Wave/freq,Total,N2,O2,CO2,Rayleigh,CIA
4.000000000e-01,3.51889e-20,9.99999e-01,9.99999e-01,9.99999e-01,3.51889e-20,9.99999e-01
4.020000000e-01,8.53193e-20,9.99999e-01,9.99999e-01,9.99999e-01,8.53193e-20,9.99999e-01
4.040100000e-01,2.03098e-19,9.99999e-01,9.99999e-01,9.99999e-01,2.03098e-19,9.99999e-01
4.060300500e-01,4.75254e-19,9.99999e-01,9.99999e-01,9.99999e-01,4.75254e-19,9.99999e-01
4.080602003e-01,1.09358e-18,9.99999e-01,9.99999e-01,9.99999e-01,1.09358e-18,9.99999e-01
4.101005013e-01,2.47531e-18,9.99999e-01,9.99999e-01,9.99999e-01,2.47531e-18,9.99999e-01
4.121510038e-01,5.51313e-18,9.99999e-01,9.99999e-01,9.99999e-01,5.51313e-18,9.99999e-01
4.142117588e-01,1.20864e-17,9.99999e-01,9.99999e-01,9.99999e-01,1.20864e-17,9.99999e-01
4.162828176e-01,2.60895e-17,9.99999e-01,9.99999e-01,9.99999e-01,2.60895e-17,9.99999e-01
4.183642317e-01,5.54665e-17,9.99999e-01,9.99999e-01,9.99999e-01,5.54665e-17,9.99999e-01
4.204560528e-01,1.16179e-16,9.99999e-01,9.99999e-01,9.99999e-01,1.16179e-16,9.99999e-01
4.225583331e-01,2.39817e-16,9.99999e-01,9.99999e-01,9.99999e-01,2.39817e-16,9.99999e-01
4.246711247e-01,4.87996e-16,9.99999e-01,9.99999e-01,9.99999e-01,4.87996e-16,9.99999e-01
4.267944804e-01,9.79169e-16,9.99999e-01,9.99999e-01,9.99999e-01,9.79169e-16,9.99999e-01
4.289284528e-01,1.93787e-15,9.99999e-01,9.99999e-01,9.99999e-01,1.93787e-15,9.99999e-01
4.310730950e-01,3.78388e-15,9.99999e-01,9.99999e-01,9.99999e-01,3.78388e-15,9.99999e-01
4.332284605e-01,7.29136e-15,9.99999e-01,9.99999e-01,9.99999e-01,7.29136e-15,9.99999e-01
4.353946028e-01,1.38693e-14,9.99999e-01,9.99999e-01,9.99999e-01,1.38693e-14,9.99999e-01
4.375715758e-01,2.60485e-14,9.99999e-01,9.99999e-01,9.99999e-01,2.60485e-14,9.99999e-01
4.397594337e-01,4.83175e-14,9.99999e-01,9.99999e-01,9.99999e-01,4.83175e-14,9.99999e-01
4.419582309e-01,8.85372e-14,9.99999e-01,9.99999e-01,9.99999e-01,8.85372e-14,9.99999e-01
4.441680220e-01,1.60307e-13,9.99999e-01,9.99999e-01,9.99999e-01,1.60307e-13,9.99999e-01
4.463888621e-01,2.86871e-13,9.99999e-01,9.99999e-01,9.99999e-01,2.86871e-13,9.99999e-01
4.486208064e-01,5.07491e-13,9.99999e-01,9.99999e-01,9.99999e-01,5.07491e-13,9.99999e-01
4.508639105e-01,8.87721e-13,9.99999e-01,9.99999e-01,9.99999e-01,8.87721e-13,9.99999e-01
4.531182300e-01,1.53578e-12,9.99999e-01,9.99999e-01,9.99999e-01,1.53578e-12,9.99999e-01
4.553838212e-01,2.62831e-12,9.99999e-01,9.99999e-01,9.99999e-01,2.62831e-12,9.99999e-01
4.576607403e-01,4.45059e-12,9.99999e-01,9.99999e-01,9.99999e-01,4.45059e-12,9.99999e-01
4.599490440e-01,7.45829e-12,9.99999e-01,9.99999e-01,9.99999e-01,7.45829e-12,9.99999e-01
4.622487892e-01,1.23718e-11,9.99999e-01,9.99999e-01,9.99999e-01,1.23718e-11,9.99999e-01
4.645600332e-01,2.03181e-11,9.99999e-01,9.99999e-01,9.99999e-01,2.03181e-11,9.99999e-01
4.668828333e-01,3.30430e-11,9.99999e-01,9.99999e-01,9.99999e-01,3.30430e-11,9.99999e-01
4.692172475e-01,5.32235e-11,9.99999e-01,9.99999e-01,9.99999e-01,5.32235e-11,9.99999e-01
4.715633337e-01,8.49256e-11,9.99999e-01,9.99999e-01,9.99999e-01,8.49256e-11,9.99999e-01
4.739211504e-01,1.34266e-10,9.99999e-01,9.99999e-01,9.99999e-01,1.34266e-10,9.99999e-01
4.762907561e-01,2.10359e-10,9.99999e-01,9.99999e-01,9.99999e-01,2.10359e-10,9.99999e-01
4.786722099e-01,3.26669e-10,9.99999e-01,9.99999e-01,9.99999e-01,3.26669e-10,9.99999e-01
4.810655710e-01,5.02895e-10,9.99999e-01,9.99999e-01,9.99999e-01,5.02895e-10,9.99999e-01
4.834708988e-01,7.67620e-10,9.99999e-01,9.99999e-01,9.99999e-01,7.67620e-10,9.99999e-01
4.858882533e-01,1.16195e-09,9.99999e-01,9.99999e-01,9.99999e-01,1.16195e-09,9.99999e-01
4.883176946e-01,1.74450e-09,9.99999e-01,9.99999e-01,9.99999e-01,1.74450e-09,9.99999e-01
4.907592831e-01,2.59819e-09,9.99999e-01,9.99999e-01,9.99999e-01,2.59819e-09,9.99999e-01
4.932130795e-01,3.83930e-09,9.99999e-01,9.99999e-01,9.99999e-01,3.83930e-09,9.99999e-01
4.956791449e-01,5.62968e-09,9.99999e-01,9.99999e-01,9.99999e-01,5.62968e-09,9.99999e-01
4.981575406e-01,8.19280e-09,9.99999e-01,9.99999e-01,9.99999e-01,8.19280e-09,9.99999e-01
5.006483283e-01,1.18348e-08,9.99999e-01,9.99999e-01,9.99999e-01,1.18348e-08,9.99999e-01
5.031515699e-01,1.69721e-08,9.99999e-01,9.99999e-01,9.99999e-01,1.69721e-08,9.99999e-01
5.056673278e-01,2.41668e-08,9.99999e-01,9.99999e-01,9.99999e-01,2.41668e-08,9.99999e-01
5.081956644e-01,3.41719e-08,9.99999e-01,9.99999e-01,9.99999e-01,3.41719e-08,9.99999e-01
5.107366428e-01,4.79896e-08,9.99999e-01,9.99999e-01,9.99999e-01,4.79896e-08,9.99999e-01
5.132903260e-01,6.69442e-08,9.99999e-01,9.99999e-01,9.99999e-01,6.69442e-08,9.99999e-01
5.158567776e-01,9.27733e-08,9.99999e-01,9.99999e-01,9.99999e-01,9.27733e-08,9.99999e-01
5.184360615e-01,1.27742e-07,9.99999e-01,9.99999e-01,9.99999e-01,1.27742e-07,9.99999e-01
5.210282418e-01,1.74784e-07,9.99999e-01,9.99999e-01,9.99999e-01,1.74784e-07,9.99999e-01
5.236333830e-01,2.37672e-07,9.99999e-01,9.99999e-01,9.99999e-01,2.37672e-07,9.99999e-01
5.262515499e-01,3.21232e-07,9.99999e-01,9.99999e-01,9.99999e-01,3.21232e-07,9.99999e-01
5.288828077e-01,4.31594e-07,9.99999e-01,9.99999e-01,9.99999e-01,4.31594e-07,9.99999e-01
5.315272217e-01,5.76499e-07,9.99999e-01,9.99999e-01,9.99999e-01,5.76499e-07,9.99999e-01
5.341848578e-01,7.65664e-07,9.99999e-01,9.99999e-01,9.99999e-01,7.65664e-07,9.99999e-01
5.368557821e-01,1.01121e-06,9.99999e-01,9.99999e-01,9.99999e-01,1.01121e-06,9.99999e-01
5.395400610e-01,1.32820e-06,9.99999e-01,9.99999e-01,9.99999e-01,1.32820e-06,9.99999e-01
5.422377613e-01,1.73517e-06,9.99999e-01,9.99999e-01,9.99999e-01,1.73517e-06,9.99999e-01
5.449489501e-01,2.25491e-06,9.99999e-01,9.99999e-01,9.99999e-01,2.25491e-06,9.99999e-01
5.476736949e-01,2.91521e-06,9.99999e-01,9.99999e-01,9.99999e-01,2.91521e-06,9.99999e-01
5.504120634e-01,3.74978e-06,9.99999e-01,9.99999e-01,9.99999e-01,3.74978e-06,9.99999e-01
5.531641237e-01,4.79936e-06,9.99999e-01,9.99999e-01,9.99999e-01,4.79936e-06,9.99999e-01
5.559299443e-01,6.11284e-06,9.99999e-01,9.99999e-01,9.99999e-01,6.11284e-06,9.99999e-01
5.587095940e-01,7.74867e-06,9.99999e-01,9.99999e-01,9.99999e-01,7.74867e-06,9.99999e-01
5.615031420e-01,9.77637e-06,9.99999e-01,9.99999e-01,9.99999e-01,9.77637e-06,9.99999e-01
5.643106577e-01,1.22782e-05,9.99999e-01,9.99999e-01,9.99999e-01,1.22782e-05,9.99999e-01
5.671322110e-01,1.53510e-05,9.99999e-01,9.99999e-01,9.99999e-01,1.53510e-05,9.99999e-01
5.699678720e-01,1.91083e-05,9.99999e-01,9.99999e-01,9.99999e-01,1.91083e-05,9.99999e-01
5.728177114e-01,2.36826e-05,9.99999e-01,9.99999e-01,9.99999e-01,2.36826e-05,9.99999e-01
5.756818000e-01,2.92278e-05,9.99999e-01,9.99999e-01,9.99999e-01,2.92278e-05,9.99999e-01
5.785602090e-01,3.59218e-05,9.99999e-01,9.99999e-01,9.99999e-01,3.59218e-05,9.99999e-01
5.814530100e-01,4.39694e-05,9.99999e-01,9.99999e-01,9.99999e-01,4.39694e-05,9.99999e-01
5.843602750e-01,5.36054e-05,9.99999e-01,9.99999e-01,9.99999e-01,5.36054e-05,9.99999e-01
5.872820764e-01,6.50980e-05,9.99999e-01,9.99999e-01,9.99999e-01,6.50980e-05,9.99999e-01
5.902184868e-01,7.87517e-05,9.99999e-01,9.99999e-01,9.99999e-01,7.87517e-05,9.99999e-01
5.931695792e-01,9.49115e-05,9.99999e-01,9.99999e-01,9.99999e-01,9.49115e-05,9.99999e-01
5.961354271e-01,1.13966e-04,9.99999e-01,9.99999e-01,9.99999e-01,1.13966e-04,9.99999e-01
5.991161043e-01,1.36353e-04,9.99999e-01,9.99999e-01,9.99999e-01,1.36353e-04,9.99999e-01
6.021116848e-01,1.62561e-04,9.99999e-01,9.99999e-01,9.99999e-01,1.62561e-04,9.99999e-01
6.051222432e-01,1.93133e-04,9.99999e-01,9.99999e-01,9.99999e-01,1.93133e-04,9.99999e-01
6.081478544e-01,2.28676e-04,9.99999e-01,9.99999e-01,9.99999e-01,2.28676e-04,9.99999e-01
6.111885937e-01,2.69858e-04,9.99999e-01,9.99999e-01,9.99999e-01,2.69858e-04,9.99999e-01
6.142445367e-01,3.17416e-04,9.99999e-01,9.99999e-01,9.99999e-01,3.17416e-04,9.99999e-01
6.173157594e-01,3.72161e-04,9.99999e-01,9.99999e-01,9.99999e-01,3.72161e-04,9.99999e-01
6.204023382e-01,4.34978e-04,9.99999e-01,9.99999e-01,9.99999e-01,4.34978e-04,9.99999e-01
6.235043498e-01,5.06834e-04,9.99999e-01,9.99999e-01,9.99999e-01,5.06834e-04,9.99999e-01
6.266218716e-01,5.88779e-04,9.99999e-01,9.99999e-01,9.99999e-01,5.88779e-04,9.99999e-01
6.297549810e-01,6.81952e-04,9.99999e-01,9.99999e-01,9.99999e-01,6.81952e-04,9.99999e-01
6.329037559e-01,7.87581e-04,9.99999e-01,9.99999e-01,9.99999e-01,7.87581e-04,9.99999e-01
6.360682746e-01,9.06987e-04,9.99999e-01,9.99999e-01,9.99999e-01,9.06987e-04,9.99999e-01
6.392486160e-01,1.04159e-03,9.99999e-01,9.99999e-01,9.99999e-01,1.04159e-03,9.99999e-01
6.424448591e-01,1.19290e-03,9.99999e-01,9.99999e-01,9.99999e-01,1.19290e-03,9.99999e-01
6.456570834e-01,1.36254e-03,9.99999e-01,9.99999e-01,9.99999e-01,1.36254e-03,9.99999e-01
6.488853688e-01,1.55222e-03,9.99999e-01,9.99999e-01,9.99999e-01,1.55222e-03,9.99999e-01
6.521297956e-01,1.76375e-03,9.99999e-01,9.99999e-01,9.99999e-01,1.76375e-03,9.99999e-01
6.553904446e-01,1.99907e-03,9.99999e-01,9.99999e-01,9.99999e-01,1.99907e-03,9.99999e-01
6.586673968e-01,2.26018e-03,9.99999e-01,9.99999e-01,9.99999e-01,2.26018e-03,9.99999e-01
6.619607338e-01,2.54921e-03,9.99999e-01,9.99999e-01,9.99999e-01,2.54921e-03,9.99999e-01
6.652705375e-01,2.86837e-03,9.99999e-01,9.99999e-01,9.99999e-01,2.86837e-03,9.99999e-01
6.685968902e-01,3.21998e-03,9.99999e-01,9.99999e-01,9.99999e-01,3.21998e-03,9.99999e-01
6.719398746e-01,3.60644e-03,9.99999e-01,9.99999e-01,9.99999e-01,3.60644e-03,9.99999e-01
6.752995740e-01,4.03026e-03,9.99999e-01,9.99999e-01,9.99999e-01,4.03026e-03,9.99999e-01
6.786760719e-01,4.49400e-03,9.99999e-01,9.99999e-01,9.99999e-01,4.49400e-03,9.99999e-01
6.820694522e-01,5.00034e-03,9.99999e-01,9.99999e-01,9.99999e-01,5.00034e-03,9.99999e-01
6.854797995e-01,5.55201e-03,9.99999e-01,9.99999e-01,9.99999e-01,5.55201e-03,9.99999e-01
6.889071985e-01,6.15181e-03,9.99999e-01,9.99999e-01,9.99999e-01,6.15181e-03,9.99999e-01
6.923517345e-01,6.80261e-03,9.99999e-01,9.99999e-01,9.99999e-01,6.80261e-03,9.99999e-01
6.958134932e-01,7.50733e-03,9.99999e-01,9.99999e-01,9.99999e-01,7.50733e-03,9.99999e-01
6.992925606e-01,8.26894e-03,9.99999e-01,9.99999e-01,9.99999e-01,8.26894e-03,9.99999e-01
7.027890234e-01,9.09045e-03,9.99999e-01,9.99999e-01,9.99999e-01,9.09045e-03,9.99999e-01
7.063029686e-01,9.97489e-03,9.99999e-01,9.99999e-01,9.99999e-01,9.97489e-03,9.99999e-01
7.098344834e-01,1.09253e-02,9.99999e-01,9.99999e-01,9.99999e-01,1.09253e-02,9.99999e-01
7.133836558e-01,1.19448e-02,9.99999e-01,9.99999e-01,9.99999e-01,1.19448e-02,9.99999e-01
7.169505741e-01,1.30365e-02,9.99999e-01,9.99999e-01,9.99999e-01,1.30365e-02,9.99999e-01
7.205353270e-01,1.42034e-02,9.99999e-01,9.99999e-01,9.99999e-01,1.42034e-02,9.99999e-01
7.241380036e-01,1.54485e-02,9.99999e-01,9.99999e-01,9.99999e-01,1.54485e-02,9.99999e-01
7.277586936e-01,1.67749e-02,9.99999e-01,9.99999e-01,9.99999e-01,1.67749e-02,9.99999e-01
7.313974871e-01,1.81856e-02,9.99999e-01,9.99999e-01,9.99999e-01,1.81856e-02,9.99999e-01
7.350544745e-01,1.96835e-02,9.99999e-01,9.99999e-01,9.99999e-01,1.96835e-02,9.99999e-01
7.387297469e-01,2.12715e-02,9.99999e-01,9.99999e-01,9.99999e-01,2.12715e-02,9.99999e-01
7.424233956e-01,2.29524e-02,9.99999e-01,9.99999e-01,9.99999e-01,2.29524e-02,9.99999e-01
7.461355126e-01,2.47289e-02,9.99999e-01,9.99999e-01,9.99999e-01,2.47289e-02,9.99999e-01
7.498661902e-01,2.66038e-02,9.99999e-01,9.99999e-01,9.99999e-01,2.66038e-02,9.99999e-01
7.536155211e-01,2.85795e-02,9.99999e-01,9.99999e-01,9.99999e-01,2.85795e-02,9.99999e-01
7.573835987e-01,3.06586e-02,9.99999e-01,9.99999e-01,9.99999e-01,3.06586e-02,9.99999e-01
7.611705167e-01,3.28432e-02,9.99999e-01,9.99999e-01,9.99999e-01,3.28432e-02,9.99999e-01
7.649763693e-01,3.51358e-02,9.99999e-01,9.99999e-01,9.99999e-01,3.51358e-02,9.99999e-01
7.688012511e-01,3.75383e-02,9.99999e-01,9.99999e-01,9.99999e-01,3.75383e-02,9.99999e-01
7.726452574e-01,4.00528e-02,9.99999e-01,9.99999e-01,9.99999e-01,4.00528e-02,9.99999e-01
7.765084837e-01,4.26810e-02,9.99999e-01,9.99999e-01,9.99999e-01,4.26810e-02,9.99999e-01
7.803910261e-01,4.02907e-02,9.99999e-01,9.99999e-01,8.86980e-01,4.54245e-02,9.99999e-01
7.842929812e-01,2.67874e-02,9.99999e-01,9.99999e-01,5.54776e-01,4.82850e-02,9.99999e-01
7.882144461e-01,2.75141e-02,9.99999e-01,9.99999e-01,5.36717e-01,5.12637e-02,9.99999e-01
7.921555184e-01,3.67563e-02,9.99999e-01,9.99999e-01,6.76141e-01,5.43619e-02,9.99999e-01
7.961162960e-01,4.42064e-02,9.99999e-01,9.99999e-01,7.67731e-01,5.75805e-02,9.99999e-01
8.000968774e-01,5.27572e-02,9.99999e-01,9.99999e-01,8.66000e-01,6.09205e-02,9.99999e-01
8.040973618e-01,5.97667e-02,9.99999e-01,9.99999e-01,9.28308e-01,6.43824e-02,9.99999e-01
8.081178486e-01,6.56712e-02,9.99999e-01,9.99999e-01,9.66223e-01,6.79668e-02,9.99999e-01
8.121584379e-01,7.09268e-02,9.99999e-01,9.99999e-01,9.89574e-01,7.16741e-02,9.99999e-01
8.162192301e-01,7.53295e-02,9.99999e-01,9.99999e-01,9.97685e-01,7.55043e-02,9.99999e-01
8.203003262e-01,7.94549e-02,9.99999e-01,9.99999e-01,9.99968e-01,7.94574e-02,9.99999e-01
8.244018279e-01,8.35332e-02,9.99999e-01,9.99999e-01,9.99999e-01,8.35332e-02,9.99999e-01
8.285238370e-01,8.77314e-02,9.99999e-01,9.99999e-01,9.99999e-01,8.77314e-02,9.99999e-01
8.326664562e-01,9.20514e-02,9.99999e-01,9.99999e-01,9.99999e-01,9.20514e-02,9.99999e-01
8.368297885e-01,9.64925e-02,9.99999e-01,9.99999e-01,9.99999e-01,9.64925e-02,9.99999e-01
8.410139374e-01,1.01054e-01,9.99999e-01,9.99999e-01,9.99999e-01,1.01054e-01,9.99999e-01
8.452190071e-01,1.05734e-01,9.99999e-01,9.99999e-01,9.99999e-01,1.05734e-01,9.99999e-01
8.494451021e-01,1.10532e-01,9.99999e-01,9.99999e-01,9.99999e-01,1.10532e-01,9.99999e-01
8.536923276e-01,1.15447e-01,9.99999e-01,9.99999e-01,9.99999e-01,1.15447e-01,9.99999e-01
8.579607893e-01,1.20477e-01,9.99999e-01,9.99999e-01,9.99999e-01,1.20477e-01,9.99999e-01
8.622505932e-01,1.25620e-01,9.99999e-01,9.99999e-01,9.99999e-01,1.25620e-01,9.99999e-01
8.665618462e-01,1.10656e-01,9.99999e-01,9.99999e-01,8.45512e-01,1.30874e-01,9.99999e-01
8.708946554e-01,3.22807e-02,9.99999e-01,9.99999e-01,2.36944e-01,1.36238e-01,9.99999e-01
8.752491287e-01,4.20771e-02,9.99999e-01,9.99999e-01,2.96926e-01,1.41709e-01,9.99999e-01
8.796253743e-01,7.41723e-02,9.99999e-01,9.99999e-01,5.03596e-01,1.47285e-01,9.99999e-01
8.840235012e-01,1.06169e-01,9.99999e-01,9.99999e-01,6.94075e-01,1.52964e-01,9.99999e-01
8.884436187e-01,1.37347e-01,9.99999e-01,9.99999e-01,8.65213e-01,1.58744e-01,9.99999e-01
8.928858368e-01,1.55190e-01,9.99999e-01,9.99999e-01,9.42709e-01,1.64621e-01,9.99999e-01
8.973502660e-01,1.68180e-01,9.99999e-01,9.99999e-01,9.85853e-01,1.70593e-01,9.99999e-01
9.018370173e-01,1.76381e-01,9.99999e-01,9.99999e-01,9.98437e-01,1.76657e-01,9.99999e-01
9.063462024e-01,1.75517e-01,9.99999e-01,9.99999e-01,9.60101e-01,1.82811e-01,9.99999e-01
9.108779334e-01,1.72237e-01,9.99999e-01,9.99999e-01,9.11060e-01,1.89051e-01,9.99999e-01
9.154323231e-01,1.91200e-01,9.99999e-01,9.99999e-01,9.78628e-01,1.95375e-01,9.99999e-01
9.200094847e-01,1.54554e-01,9.99999e-01,9.99999e-01,7.65957e-01,2.01779e-01,9.99999e-01
9.246095321e-01,1.32464e-01,9.99999e-01,9.99999e-01,6.36050e-01,2.08260e-01,9.99999e-01
9.292325798e-01,1.51484e-01,9.99999e-01,9.99999e-01,7.05179e-01,2.14816e-01,9.99999e-01
9.338787427e-01,1.57608e-01,9.99999e-01,9.99999e-01,7.11734e-01,2.21442e-01,9.99999e-01
9.385481364e-01,1.77167e-01,9.99999e-01,9.99999e-01,7.76588e-01,2.28135e-01,9.99999e-01
9.432408771e-01,2.01042e-01,9.99999e-01,9.99999e-01,8.55887e-01,2.34893e-01,9.99999e-01
9.479570815e-01,2.23094e-01,9.99999e-01,9.99999e-01,9.22979e-01,2.41711e-01,9.99999e-01
9.526968669e-01,2.39200e-01,9.99999e-01,9.99999e-01,9.62238e-01,2.48587e-01,9.99999e-01
9.574603512e-01,2.51343e-01,9.99999e-01,9.99999e-01,9.83667e-01,2.55516e-01,9.99999e-01
9.622476530e-01,2.61153e-01,9.99999e-01,9.99999e-01,9.94883e-01,2.62496e-01,9.99999e-01
9.670588912e-01,2.69111e-01,9.99999e-01,9.99999e-01,9.98467e-01,2.69524e-01,9.99999e-01
9.718941857e-01,2.76566e-01,9.99999e-01,9.99999e-01,9.99894e-01,2.76595e-01,9.99999e-01
9.767536566e-01,2.83706e-01,9.99999e-01,9.99999e-01,9.99999e-01,2.83706e-01,9.99999e-01
9.816374249e-01,2.90855e-01,9.99999e-01,9.99999e-01,9.99999e-01,2.90855e-01,9.99999e-01
9.865456120e-01,2.98037e-01,9.99999e-01,9.99999e-01,9.99999e-01,2.98037e-01,9.99999e-01
9.914783401e-01,3.05249e-01,9.99999e-01,9.99999e-01,9.99999e-01,3.05249e-01,9.99999e-01
9.964357318e-01,3.12488e-01,9.99999e-01,9.99999e-01,9.99999e-01,3.12488e-01,9.99999e-01
1.001417910e+00,3.19751e-01,9.99999e-01,9.99999e-01,9.99999e-01,3.19751e-01,9.99999e-01
1.006425000e+00,3.27034e-01,9.99999e-01,9.99999e-01,9.99999e-01,3.27034e-01,9.99999e-01
1.011457125e+00,3.34335e-01,9.99999e-01,9.99999e-01,9.99999e-01,3.34335e-01,9.99999e-01
1.016514411e+00,3.41649e-01,9.99999e-01,9.99999e-01,9.99999e-01,3.41649e-01,9.99999e-01
1.021596983e+00,3.48885e-01,9.99999e-01,9.99999e-01,9.99744e-01,3.48974e-01,9.99999e-01
1.026704968e+00,3.50555e-01,9.99999e-01,9.99999e-01,9.83856e-01,3.56307e-01,9.99999e-01
1.031838492e+00,3.19778e-01,9.99999e-01,9.99999e-01,8.79371e-01,3.63644e-01,9.99999e-01
1.036997685e+00,1.27882e-02,9.99999e-01,9.99999e-01,3.44711e-02,3.70983e-01,9.99999e-01
1.042182673e+00,3.16537e-04,9.99999e-01,9.99999e-01,8.36689e-04,3.78321e-01,9.99999e-01
1.047393587e+00,9.07438e-04,9.99999e-01,9.99999e-01,2.35298e-03,3.85655e-01,9.99999e-01
1.052630555e+00,8.65338e-09,9.99999e-01,9.99999e-01,2.20198e-08,3.92982e-01,9.99999e-01
1.057893707e+00,3.31674e-08,9.99999e-01,9.99999e-01,8.28565e-08,4.00299e-01,9.99999e-01
1.063183176e+00,2.76815e-06,9.99999e-01,9.99999e-01,6.79127e-06,4.07604e-01,9.99999e-01
1.068499092e+00,4.43547e-05,9.99999e-01,9.99999e-01,1.06906e-04,4.14894e-01,9.99999e-01
1.073841587e+00,1.09836e-03,9.99999e-01,9.99999e-01,2.60172e-03,4.22166e-01,9.99999e-01
1.079210795e+00,1.05065e-02,9.99999e-01,9.99999e-01,2.44667e-02,4.29419e-01,9.99999e-01
1.084606849e+00,5.19180e-02,9.99999e-01,9.99999e-01,1.18901e-01,4.36649e-01,9.99999e-01
1.090029883e+00,1.44749e-01,9.99999e-01,9.99999e-01,3.26116e-01,4.43855e-01,9.99999e-01
1.095480033e+00,2.59009e-01,9.99999e-01,9.99999e-01,5.74257e-01,4.51034e-01,9.99999e-01
1.100957433e+00,3.49946e-01,9.99999e-01,9.99999e-01,7.63767e-01,4.58183e-01,9.99999e-01
1.106462220e+00,4.16195e-01,9.99999e-01,9.99999e-01,8.94462e-01,4.65302e-01,9.99999e-01
1.111994531e+00,4.53218e-01,9.99999e-01,9.99999e-01,9.59421e-01,4.72387e-01,9.99999e-01
1.117554504e+00,4.74642e-01,9.99999e-01,9.99999e-01,9.90000e-01,4.79436e-01,9.99999e-01
1.123142276e+00,4.86131e-01,9.99999e-01,9.99999e-01,9.99345e-01,4.86449e-01,9.99999e-01
1.128757988e+00,4.93423e-01,9.99999e-01,9.99999e-01,9.99999e-01,4.93423e-01,9.99999e-01
1.134401778e+00,5.00356e-01,9.99999e-01,9.99999e-01,9.99999e-01,5.00356e-01,9.99999e-01
1.140073787e+00,5.07246e-01,9.99999e-01,9.99999e-01,9.99999e-01,5.07246e-01,9.99999e-01
1.145774156e+00,5.14093e-01,9.99999e-01,9.99999e-01,9.99999e-01,5.14093e-01,9.99999e-01
1.151503026e+00,5.20894e-01,9.99999e-01,9.99999e-01,9.99999e-01,5.20894e-01,9.99999e-01
1.157260541e+00,5.27648e-01,9.99999e-01,9.99999e-01,9.99999e-01,5.27648e-01,9.99999e-01
1.163046844e+00,5.34353e-01,9.99999e-01,9.99999e-01,9.99999e-01,5.34353e-01,9.99999e-01
1.168862078e+00,5.41009e-01,9.99999e-01,9.99999e-01,9.99999e-01,5.41009e-01,9.99999e-01
1.174706389e+00,5.47614e-01,9.99999e-01,9.99999e-01,9.99999e-01,5.47614e-01,9.99999e-01
1.180579921e+00,5.54166e-01,9.99999e-01,9.99999e-01,9.99999e-01,5.54166e-01,9.99999e-01
1.186482820e+00,5.60643e-01,9.99999e-01,9.99999e-01,9.99960e-01,5.60665e-01,9.99999e-01
1.192415234e+00,5.36492e-01,9.99999e-01,9.99999e-01,9.46009e-01,5.67110e-01,9.99999e-01
1.198377311e+00,2.82981e-01,9.99999e-01,9.99999e-01,4.93429e-01,5.73500e-01,9.99999e-01
1.204369197e+00,2.03054e-40,9.99999e-01,9.99999e-01,3.50194e-40,5.79833e-01,9.99999e-01
1.210391043e+00,3.00010e-166,9.99999e-01,9.99999e-01,5.11867e-166,5.86109e-01,9.99999e-01
1.216442998e+00,9.55801e-144,9.99999e-01,9.99999e-01,1.61364e-143,5.92326e-01,9.99999e-01
1.222525213e+00,1.40843e-141,9.99999e-01,9.99999e-01,2.35332e-141,5.98485e-01,9.99999e-01
1.228637839e+00,4.83572e-109,9.99999e-01,9.99999e-01,7.99840e-109,6.04585e-01,9.99999e-01
