#,Wave/freq,Total,N2,O2,CO2,Rayleigh,CIA
4.000000000e-01,4.85402e-10,9.99999e-01,9.99999e-01,9.99999e-01,4.85402e-10,9.99999e-01
4.020000000e-01,7.41754e-10,9.99999e-01,9.99999e-01,9.99999e-01,7.41754e-10,9.99999e-01
4.040100000e-01,1.12356e-09,9.99999e-01,9.99999e-01,9.99999e-01,1.12356e-09,9.99999e-01
4.060300500e-01,1.68798e-09,9.99999e-01,9.99999e-01,9.99999e-01,1.68798e-09,9.99999e-01
4.080602003e-01,2.51564e-09,9.99999e-01,9.99999e-01,9.99999e-01,2.51564e-09,9.99999e-01
4.101005013e-01,3.71970e-09,9.99999e-01,9.99999e-01,9.99999e-01,3.71970e-09,9.99999e-01
4.121510038e-01,5.45772e-09,9.99999e-01,9.99999e-01,9.99999e-01,5.45772e-09,9.99999e-01
4.142117588e-01,7.94741e-09,9.99999e-01,9.99999e-01,9.99999e-01,7.94741e-09,9.99999e-01
4.162828176e-01,1.14873e-08,9.99999e-01,9.99999e-01,9.99999e-01,1.14873e-08,9.99999e-01
4.183642317e-01,1.64834e-08,9.99999e-01,9.99999e-01,9.99999e-01,1.64834e-08,9.99999e-01
4.204560528e-01,2.34844e-08,9.99999e-01,9.99999e-01,9.99999e-01,2.34844e-08,9.99999e-01
4.225583331e-01,3.32258e-08,9.99999e-01,9.99999e-01,9.99999e-01,3.32258e-08,9.99999e-01
4.246711247e-01,4.66869e-08,9.99999e-01,9.99999e-01,9.99999e-01,4.66869e-08,9.99999e-01
4.267944804e-01,6.51623e-08,9.99999e-01,9.99999e-01,9.99999e-01,6.51623e-08,9.99999e-01
4.289284528e-01,9.03520e-08,9.99999e-01,9.99999e-01,9.99999e-01,9.03520e-08,9.99999e-01
4.310730950e-01,1.24473e-07,9.99999e-01,9.99999e-01,9.99999e-01,1.24473e-07,9.99999e-01
4.332284605e-01,1.70398e-07,9.99999e-01,9.99999e-01,9.99999e-01,1.70398e-07,9.99999e-01
4.353946028e-01,2.31825e-07,9.99999e-01,9.99999e-01,9.99999e-01,2.31825e-07,9.99999e-01
4.375715758e-01,3.13483e-07,9.99999e-01,9.99999e-01,9.99999e-01,3.13483e-07,9.99999e-01
4.397594337e-01,4.21386e-07,9.99999e-01,9.99999e-01,9.99999e-01,4.21386e-07,9.99999e-01
4.419582309e-01,5.63130e-07,9.99999e-01,9.99999e-01,9.99999e-01,5.63130e-07,9.99999e-01
4.441680220e-01,7.48255e-07,9.99999e-01,9.99999e-01,9.99999e-01,7.48255e-07,9.99999e-01
4.463888621e-01,9.88672e-07,9.99999e-01,9.99999e-01,9.99999e-01,9.88672e-07,9.99999e-01
4.486208064e-01,1.29917e-06,9.99999e-01,9.99999e-01,9.99999e-01,1.29917e-06,9.99999e-01
4.508639105e-01,1.69799e-06,9.99999e-01,9.99999e-01,9.99999e-01,1.69799e-06,9.99999e-01
4.531182300e-01,2.20754e-06,9.99999e-01,9.99999e-01,9.99999e-01,2.20754e-06,9.99999e-01
4.553838212e-01,2.85515e-06,9.99999e-01,9.99999e-01,9.99999e-01,2.85515e-06,9.99999e-01
4.576607403e-01,3.67405e-06,9.99999e-01,9.99999e-01,9.99999e-01,3.67405e-06,9.99999e-01
4.599490440e-01,4.70432e-06,9.99999e-01,9.99999e-01,9.99999e-01,4.70432e-06,9.99999e-01
4.622487892e-01,5.99415e-06,9.99999e-01,9.99999e-01,9.99999e-01,5.99415e-06,9.99999e-01
4.645600332e-01,7.60117e-06,9.99999e-01,9.99999e-01,9.99999e-01,7.60117e-06,9.99999e-01
4.668828333e-01,9.59392e-06,9.99999e-01,9.99999e-01,9.99999e-01,9.59392e-06,9.99999e-01
4.692172475e-01,1.20535e-05,9.99999e-01,9.99999e-01,9.99999e-01,1.20535e-05,9.99999e-01
4.715633337e-01,1.50756e-05,9.99999e-01,9.99999e-01,9.99999e-01,1.50756e-05,9.99999e-01
4.739211504e-01,1.87722e-05,9.99999e-01,9.99999e-01,9.99999e-01,1.87722e-05,9.99999e-01
4.762907561e-01,2.32742e-05,9.99999e-01,9.99999e-01,9.99999e-01,2.32742e-05,9.99999e-01
4.786722099e-01,2.87336e-05,9.99999e-01,9.99999e-01,9.99999e-01,2.87336e-05,9.99999e-01
4.810655710e-01,3.53263e-05,9.99999e-01,9.99999e-01,9.99999e-01,3.53263e-05,9.99999e-01
4.834708988e-01,4.32548e-05,9.99999e-01,9.99999e-01,9.99999e-01,4.32548e-05,9.99999e-01
4.858882533e-01,5.27514e-05,9.99999e-01,9.99999e-01,9.99999e-01,5.27514e-05,9.99999e-01
4.883176946e-01,6.40812e-05,9.99999e-01,9.99999e-01,9.99999e-01,6.40812e-05,9.99999e-01
4.907592831e-01,7.75457e-05,9.99999e-01,9.99999e-01,9.99999e-01,7.75457e-05,9.99999e-01
4.932130795e-01,9.34866e-05,9.99999e-01,9.99999e-01,9.99999e-01,9.34866e-05,9.99999e-01
4.956791449e-01,1.12289e-04,9.99999e-01,9.99999e-01,9.99999e-01,1.12289e-04,9.99999e-01
4.981575406e-01,1.34386e-04,9.99999e-01,9.99999e-01,9.99999e-01,1.34386e-04,9.99999e-01
5.006483283e-01,1.60261e-04,9.99999e-01,9.99999e-01,9.99999e-01,1.60261e-04,9.99999e-01
5.031515699e-01,1.90454e-04,9.99999e-01,9.99999e-01,9.99999e-01,1.90454e-04,9.99999e-01
5.056673278e-01,2.25566e-04,9.99999e-01,9.99999e-01,9.99999e-01,2.25566e-04,9.99999e-01
5.081956644e-01,2.66260e-04,9.99999e-01,9.99999e-01,9.99999e-01,2.66260e-04,9.99999e-01
5.107366428e-01,3.13268e-04,9.99999e-01,9.99999e-01,9.99999e-01,3.13268e-04,9.99999e-01
5.132903260e-01,3.67392e-04,9.99999e-01,9.99999e-01,9.99999e-01,3.67392e-04,9.99999e-01
5.158567776e-01,4.29514e-04,9.99999e-01,9.99999e-01,9.99999e-01,4.29514e-04,9.99999e-01
5.184360615e-01,5.00592e-04,9.99999e-01,9.99999e-01,9.99999e-01,5.00592e-04,9.99999e-01
5.210282418e-01,5.81671e-04,9.99999e-01,9.99999e-01,9.99999e-01,5.81671e-04,9.99999e-01
5.236333830e-01,6.73881e-04,9.99999e-01,9.99999e-01,9.99999e-01,6.73881e-04,9.99999e-01
5.262515499e-01,7.78442e-04,9.99999e-01,9.99999e-01,9.99999e-01,7.78442e-04,9.99999e-01
5.288828077e-01,8.96669e-04,9.99999e-01,9.99999e-01,9.99999e-01,8.96669e-04,9.99999e-01
5.315272217e-01,1.02997e-03,9.99999e-01,9.99999e-01,9.99999e-01,1.02997e-03,9.99999e-01
5.341848578e-01,1.17986e-03,9.99999e-01,9.99999e-01,9.99999e-01,1.17986e-03,9.99999e-01
5.368557821e-01,1.34793e-03,9.99999e-01,9.99999e-01,9.99999e-01,1.34793e-03,9.99999e-01
5.395400610e-01,1.53590e-03,9.99999e-01,9.99999e-01,9.99999e-01,1.53590e-03,9.99999e-01
5.422377613e-01,1.74558e-03,9.99999e-01,9.99999e-01,9.99999e-01,1.74558e-03,9.99999e-01
5.449489501e-01,1.97888e-03,9.99999e-01,9.99999e-01,9.99999e-01,1.97888e-03,9.99999e-01
5.476736949e-01,2.23780e-03,9.99999e-01,9.99999e-01,9.99999e-01,2.23780e-03,9.99999e-01
5.504120634e-01,2.52446e-03,9.99999e-01,9.99999e-01,9.99999e-01,2.52446e-03,9.99999e-01
5.531641237e-01,2.84107e-03,9.99999e-01,9.99999e-01,9.99999e-01,2.84107e-03,9.99999e-01
5.559299443e-01,3.18994e-03,9.99999e-01,9.99999e-01,9.99999e-01,3.18994e-03,9.99999e-01
5.587095940e-01,3.57346e-03,9.99999e-01,9.99999e-01,9.99999e-01,3.57346e-03,9.99999e-01
5.615031420e-01,3.99412e-03,9.99999e-01,9.99999e-01,9.99999e-01,3.99412e-03,9.99999e-01
5.643106577e-01,4.45451e-03,9.99999e-01,9.99999e-01,9.99999e-01,4.45451e-03,9.99999e-01
5.671322110e-01,4.95726e-03,9.99999e-01,9.99999e-01,9.99999e-01,4.95726e-03,9.99999e-01
5.699678720e-01,5.50511e-03,9.99999e-01,9.99999e-01,9.99999e-01,5.50511e-03,9.99999e-01
5.728177114e-01,6.10087e-03,9.99999e-01,9.99999e-01,9.99999e-01,6.10087e-03,9.99999e-01
5.756818000e-01,6.74739e-03,9.99999e-01,9.99999e-01,9.99999e-01,6.74739e-03,9.99999e-01
5.785602090e-01,7.44759e-03,9.99999e-01,9.99999e-01,9.99999e-01,7.44759e-03,9.99999e-01
5.814530100e-01,8.20443e-03,9.99999e-01,9.99999e-01,9.99999e-01,8.20443e-03,9.99999e-01
5.843602750e-01,9.02093e-03,9.99999e-01,9.99999e-01,9.99999e-01,9.02093e-03,9.99999e-01
5.872820764e-01,9.90011e-03,9.99999e-01,9.99999e-01,9.99999e-01,9.90011e-03,9.99999e-01
5.902184868e-01,1.08450e-02,9.99999e-01,9.99999e-01,9.99999e-01,1.08450e-02,9.99999e-01
5.931695792e-01,1.18588e-02,9.99999e-01,9.99999e-01,9.99999e-01,1.18588e-02,9.99999e-01
5.961354271e-01,1.29444e-02,9.99999e-01,9.99999e-01,9.99999e-01,1.29444e-02,9.99999e-01
5.991161043e-01,1.41050e-02,9.99999e-01,9.99999e-01,9.99999e-01,1.41050e-02,9.99999e-01
6.021116848e-01,1.53436e-02,9.99999e-01,9.99999e-01,9.99999e-01,1.53436e-02,9.99999e-01
6.051222432e-01,1.66633e-02,9.99999e-01,9.99999e-01,9.99999e-01,1.66633e-02,9.99999e-01
6.081478544e-01,1.80670e-02,9.99999e-01,9.99999e-01,9.99999e-01,1.80670e-02,9.99999e-01
6.111885937e-01,1.95576e-02,9.99999e-01,9.99999e-01,9.99999e-01,1.95576e-02,9.99999e-01
6.142445367e-01,2.11381e-02,9.99999e-01,9.99999e-01,9.99999e-01,2.11381e-02,9.99999e-01
6.173157594e-01,2.28113e-02,9.99999e-01,9.99999e-01,9.99999e-01,2.28113e-02,9.99999e-01
6.204023382e-01,2.45800e-02,9.99999e-01,9.99999e-01,9.99999e-01,2.45800e-02,9.99999e-01
6.235043498e-01,2.64467e-02,9.99999e-01,9.99999e-01,9.99999e-01,2.64467e-02,9.99999e-01
6.266218716e-01,2.84141e-02,9.99999e-01,9.99999e-01,9.99999e-01,2.84141e-02,9.99999e-01
6.297549810e-01,3.04846e-02,9.99999e-01,9.99999e-01,9.99999e-01,3.04846e-02,9.99999e-01
6.329037559e-01,3.26605e-02,9.99999e-01,9.99999e-01,9.99999e-01,3.26605e-02,9.99999e-01
6.360682746e-01,3.49442e-02,9.99999e-01,9.99999e-01,9.99999e-01,3.49442e-02,9.99999e-01
6.392486160e-01,3.73376e-02,9.99999e-01,9.99999e-01,9.99999e-01,3.73376e-02,9.99999e-01
6.424448591e-01,3.98429e-02,9.99999e-01,9.99999e-01,9.99999e-01,3.98429e-02,9.99999e-01
6.456570834e-01,4.24617e-02,9.99999e-01,9.99999e-01,9.99999e-01,4.24617e-02,9.99999e-01
6.488853688e-01,4.51957e-02,9.99999e-01,9.99999e-01,9.99999e-01,4.51957e-02,9.99999e-01
6.521297956e-01,4.80466e-02,9.99999e-01,9.99999e-01,9.99999e-01,4.80466e-02,9.99999e-01
6.553904446e-01,5.10156e-02,9.99999e-01,9.99999e-01,9.99999e-01,5.10156e-02,9.99999e-01
6.586673968e-01,5.41040e-02,9.99999e-01,9.99999e-01,9.99999e-01,5.41040e-02,9.99999e-01
6.619607338e-01,5.73127e-02,9.99999e-01,9.99999e-01,9.99999e-01,5.73127e-02,9.99999e-01
6.652705375e-01,6.06427e-02,9.99999e-01,9.99999e-01,9.99999e-01,6.06427e-02,9.99999e-01
6.685968902e-01,6.40946e-02,9.99999e-01,9.99999e-01,9.99999e-01,6.40946e-02,9.99999e-01
6.719398746e-01,6.76690e-02,9.99999e-01,9.99999e-01,9.99999e-01,6.76690e-02,9.99999e-01
6.752995740e-01,7.13662e-02,9.99999e-01,9.99999e-01,9.99999e-01,7.13662e-02,9.99999e-01
6.786760719e-01,7.51863e-02,9.99999e-01,9.99999e-01,9.99999e-01,7.51863e-02,9.99999e-01
6.820694522e-01,7.91294e-02,9.99999e-01,9.99999e-01,9.99999e-01,7.91294e-02,9.99999e-01
6.854797995e-01,8.31953e-02,9.99999e-01,9.99999e-01,9.99999e-01,8.31953e-02,9.99999e-01
6.889071985e-01,8.73835e-02,9.99999e-01,9.99999e-01,9.99999e-01,8.73835e-02,9.99999e-01
6.923517345e-01,9.16935e-02,9.99999e-01,9.99999e-01,9.99999e-01,9.16935e-02,9.99999e-01
6.958134932e-01,9.61247e-02,9.99999e-01,9.99999e-01,9.99999e-01,9.61247e-02,9.99999e-01
6.992925606e-01,1.00676e-01,9.99999e-01,9.99999e-01,9.99999e-01,1.00676e-01,9.99999e-01
7.027890234e-01,1.05347e-01,9.99999e-01,9.99999e-01,9.99999e-01,1.05347e-01,9.99999e-01
7.063029686e-01,1.10135e-01,9.99999e-01,9.99999e-01,9.99999e-01,1.10135e-01,9.99999e-01
7.098344834e-01,1.15041e-01,9.99999e-01,9.99999e-01,9.99999e-01,1.15041e-01,9.99999e-01
7.133836558e-01,1.20061e-01,9.99999e-01,9.99999e-01,9.99999e-01,1.20061e-01,9.99999e-01
7.169505741e-01,1.25195e-01,9.99999e-01,9.99999e-01,9.99999e-01,1.25195e-01,9.99999e-01
7.205353270e-01,1.30440e-01,9.99999e-01,9.99999e-01,9.99999e-01,1.30440e-01,9.99999e-01
7.241380036e-01,1.35795e-01,9.99999e-01,9.99999e-01,9.99999e-01,1.35795e-01,9.99999e-01
7.277586936e-01,1.41257e-01,9.99999e-01,9.99999e-01,9.99999e-01,1.41257e-01,9.99999e-01
7.313974871e-01,1.46825e-01,9.99999e-01,9.99999e-01,9.99999e-01,1.46825e-01,9.99999e-01
7.350544745e-01,1.52496e-01,9.99999e-01,9.99999e-01,9.99999e-01,1.52496e-01,9.99999e-01
7.387297469e-01,1.58267e-01,9.99999e-01,9.99999e-01,9.99999e-01,1.58267e-01,9.99999e-01
7.424233956e-01,1.64136e-01,9.99999e-01,9.99999e-01,9.99999e-01,1.64136e-01,9.99999e-01
7.461355126e-01,1.70101e-01,9.99999e-01,9.99999e-01,9.99999e-01,1.70101e-01,9.99999e-01
7.498661902e-01,1.76158e-01,9.99999e-01,9.99999e-01,9.99999e-01,1.76158e-01,9.99999e-01
7.536155211e-01,1.82304e-01,9.99999e-01,9.99999e-01,9.99999e-01,1.82304e-01,9.99999e-01
7.573835987e-01,1.88538e-01,9.99999e-01,9.99999e-01,9.99999e-01,1.88538e-01,9.99999e-01
7.611705167e-01,1.94855e-01,9.99999e-01,9.99999e-01,9.99999e-01,1.94855e-01,9.99999e-01
7.649763693e-01,2.01252e-01,9.99999e-01,9.99999e-01,9.99999e-01,2.01252e-01,9.99999e-01
7.688012511e-01,2.07727e-01,9.99999e-01,9.99999e-01,9.99999e-01,2.07727e-01,9.99999e-01
7.726452574e-01,2.14277e-01,9.99999e-01,9.99999e-01,9.99999e-01,2.14277e-01,9.99999e-01
7.765084837e-01,2.20897e-01,9.99999e-01,9.99999e-01,9.99999e-01,2.20897e-01,9.99999e-01
7.803910261e-01,2.13010e-01,9.99999e-01,9.99999e-01,9.35956e-01,2.27585e-01,9.99999e-01
7.842929812e-01,1.74097e-01,9.99999e-01,9.99999e-01,7.42932e-01,2.34338e-01,9.99999e-01
7.882144461e-01,1.75502e-01,9.99999e-01,9.99999e-01,7.27766e-01,2.41151e-01,9.99999e-01
7.921555184e-01,2.04976e-01,9.99999e-01,9.99999e-01,8.26440e-01,2.48022e-01,9.99999e-01
7.961162960e-01,2.24428e-01,9.99999e-01,9.99999e-01,8.80292e-01,2.54947e-01,9.99999e-01
8.000968774e-01,2.44393e-01,9.99999e-01,9.99999e-01,9.33067e-01,2.61924e-01,9.99999e-01
8.040973618e-01,2.59492e-01,9.99999e-01,9.99999e-01,9.64844e-01,2.68947e-01,9.99999e-01
8.081178486e-01,2.71500e-01,9.99999e-01,9.99999e-01,9.83642e-01,2.76015e-01,9.99999e-01
8.121584379e-01,2.81698e-01,9.99999e-01,9.99999e-01,9.94964e-01,2.83123e-01,9.99999e-01
8.162192301e-01,2.89946e-01,9.99999e-01,9.99999e-01,9.98885e-01,2.90269e-01,9.99999e-01
8.203003262e-01,2.97444e-01,9.99999e-01,9.99999e-01,9.99984e-01,2.97448e-01,9.99999e-01
8.244018279e-01,3.04658e-01,9.99999e-01,9.99999e-01,9.99999e-01,3.04658e-01,9.99999e-01
8.285238370e-01,3.11895e-01,9.99999e-01,9.99999e-01,9.99999e-01,3.11895e-01,9.99999e-01
8.326664562e-01,3.19156e-01,9.99999e-01,9.99999e-01,9.99999e-01,3.19156e-01,9.99999e-01
8.368297885e-01,3.26438e-01,9.99999e-01,9.99999e-01,9.99999e-01,3.26438e-01,9.99999e-01
8.410139374e-01,3.33737e-01,9.99999e-01,9.99999e-01,9.99999e-01,3.33737e-01,9.99999e-01
8.452190071e-01,3.41050e-01,9.99999e-01,9.99999e-01,9.99999e-01,3.41050e-01,9.99999e-01
8.494451021e-01,3.48374e-01,9.99999e-01,9.99999e-01,9.99999e-01,3.48374e-01,9.99999e-01
8.536923276e-01,3.55707e-01,9.99999e-01,9.99999e-01,9.99999e-01,3.55707e-01,9.99999e-01
8.579607893e-01,3.63044e-01,9.99999e-01,9.99999e-01,9.99999e-01,3.63044e-01,9.99999e-01
8.622505932e-01,3.70383e-01,9.99999e-01,9.99999e-01,9.99999e-01,3.70383e-01,9.99999e-01
8.665618462e-01,3.35452e-01,9.99999e-01,9.99999e-01,8.88095e-01,3.77721e-01,9.99999e-01
8.708946554e-01,1.82948e-01,9.99999e-01,9.99999e-01,4.75120e-01,3.85055e-01,9.99999e-01
8.752491287e-01,2.13546e-01,9.99999e-01,9.99999e-01,5.44228e-01,3.92383e-01,9.99999e-01
8.796253743e-01,2.84841e-01,9.99999e-01,9.99999e-01,7.12635e-01,3.99701e-01,9.99999e-01
8.840235012e-01,3.40866e-01,9.99999e-01,9.99999e-01,8.37493e-01,4.07007e-01,9.99999e-01
8.884436187e-01,3.86350e-01,9.99999e-01,9.99999e-01,9.32539e-01,4.14298e-01,9.99999e-01
8.928858368e-01,4.09776e-01,9.99999e-01,9.99999e-01,9.72017e-01,4.21572e-01,9.99999e-01
8.973502660e-01,4.25896e-01,9.99999e-01,9.99999e-01,9.93165e-01,4.28827e-01,9.99999e-01
9.018370173e-01,4.35731e-01,9.99999e-01,9.99999e-01,9.99246e-01,4.36059e-01,9.99999e-01
9.063462024e-01,4.34582e-01,9.99999e-01,9.99999e-01,9.80407e-01,4.43267e-01,9.99999e-01
9.108779334e-01,4.30692e-01,9.99999e-01,9.99999e-01,9.56141e-01,4.50448e-01,9.99999e-01
9.154323231e-01,4.52852e-01,9.99999e-01,9.99999e-01,9.89623e-01,4.57600e-01,9.99999e-01
9.200094847e-01,4.01828e-01,9.99999e-01,9.99999e-01,8.64664e-01,4.64721e-01,9.99999e-01
9.246095321e-01,3.78984e-01,9.99999e-01,9.99999e-01,8.03257e-01,4.71808e-01,9.99999e-01
9.292325798e-01,4.03345e-01,9.99999e-01,9.99999e-01,8.42300e-01,4.78861e-01,9.99999e-01
9.338787427e-01,4.11762e-01,9.99999e-01,9.99999e-01,8.47462e-01,4.85877e-01,9.99999e-01
9.385481364e-01,4.36175e-01,9.99999e-01,9.99999e-01,8.84998e-01,4.92854e-01,9.99999e-01
9.432408771e-01,4.63762e-01,9.99999e-01,9.99999e-01,9.27913e-01,4.99790e-01,9.99999e-01
9.479570815e-01,4.87563e-01,9.99999e-01,9.99999e-01,9.62260e-01,5.06684e-01,9.99999e-01
9.526968669e-01,5.04120e-01,9.99999e-01,9.99999e-01,9.81666e-01,5.13534e-01,9.99999e-01
9.574603512e-01,5.16240e-01,9.99999e-01,9.99999e-01,9.92122e-01,5.20339e-01,9.99999e-01
9.622476530e-01,5.25800e-01,9.99999e-01,9.99999e-01,9.97538e-01,5.27097e-01,9.99999e-01
9.670588912e-01,5.33413e-01,9.99999e-01,9.99999e-01,9.99263e-01,5.33806e-01,9.99999e-01
9.718941857e-01,5.40439e-01,9.99999e-01,9.99999e-01,9.99948e-01,5.40466e-01,9.99999e-01
9.767536566e-01,5.47075e-01,9.99999e-01,9.99999e-01,9.99999e-01,5.47075e-01,9.99999e-01
9.816374249e-01,5.53632e-01,9.99999e-01,9.99999e-01,9.99999e-01,5.53632e-01,9.99999e-01
9.865456120e-01,5.60136e-01,9.99999e-01,9.99999e-01,9.99999e-01,5.60136e-01,9.99999e-01
9.914783401e-01,5.66585e-01,9.99999e-01,9.99999e-01,9.99999e-01,5.66585e-01,9.99999e-01
9.964357318e-01,5.72979e-01,9.99999e-01,9.99999e-01,9.99999e-01,5.72979e-01,9.99999e-01
1.001417910e+00,5.79317e-01,9.99999e-01,9.99999e-01,9.99999e-01,5.79317e-01,9.99999e-01
1.006425000e+00,5.85597e-01,9.99999e-01,9.99999e-01,9.99999e-01,5.85597e-01,9.99999e-01
1.011457125e+00,5.91820e-01,9.99999e-01,9.99999e-01,9.99999e-01,5.91820e-01,9.99999e-01
1.016514411e+00,5.97984e-01,9.99999e-01,9.99999e-01,9.99999e-01,5.97984e-01,9.99999e-01
1.021596983e+00,6.04017e-01,9.99999e-01,9.99999e-01,9.99882e-01,6.04088e-01,9.99999e-01
1.026704968e+00,6.05399e-01,9.99999e-01,9.99999e-01,9.92241e-01,6.10133e-01,9.99999e-01
1.031838492e+00,5.69876e-01,9.99999e-01,9.99999e-01,9.24948e-01,6.16116e-01,9.99999e-01
1.036997685e+00,4.83731e-02,9.99999e-01,9.99999e-01,7.77653e-02,6.22038e-01,9.99999e-01
1.042182673e+00,1.17964e-02,9.99999e-01,9.99999e-01,1.87871e-02,6.27899e-01,9.99999e-01
1.047393587e+00,2.17781e-02,9.99999e-01,9.99999e-01,3.43667e-02,6.33698e-01,9.99999e-01
1.052630555e+00,3.56719e-05,9.99999e-01,9.99999e-01,5.57868e-05,6.39433e-01,9.99999e-01
1.057893707e+00,1.27445e-04,9.99999e-01,9.99999e-01,1.97557e-04,6.45106e-01,9.99999e-01
1.063183176e+00,1.12825e-03,9.99999e-01,9.99999e-01,1.73386e-03,6.50716e-01,9.99999e-01
1.068499092e+00,6.31868e-03,9.99999e-01,9.99999e-01,9.62827e-03,6.56262e-01,9.99999e-01
1.073841587e+00,3.44356e-02,9.99999e-01,9.99999e-01,5.20375e-02,6.61745e-01,9.99999e-01
1.079210795e+00,1.03109e-01,9.99999e-01,9.99999e-01,1.54549e-01,6.67164e-01,9.99999e-01
1.084606849e+00,2.36906e-01,9.99999e-01,9.99999e-01,3.52266e-01,6.72519e-01,9.99999e-01
1.090029883e+00,3.93094e-01,9.99999e-01,9.99999e-01,5.79947e-01,6.77809e-01,9.99999e-01
1.095480033e+00,5.22123e-01,9.99999e-01,9.99999e-01,7.64414e-01,6.83036e-01,9.99999e-01
1.100957433e+00,6.04413e-01,9.99999e-01,9.99999e-01,8.78252e-01,6.88199e-01,9.99999e-01
1.106462220e+00,6.57079e-01,9.99999e-01,9.99999e-01,9.47759e-01,6.93297e-01,9.99999e-01
1.111994531e+00,6.84573e-01,9.99999e-01,9.99999e-01,9.80297e-01,6.98331e-01,9.99999e-01
1.117554504e+00,6.99910e-01,9.99999e-01,9.99999e-01,9.95176e-01,7.03302e-01,9.99999e-01
1.123142276e+00,7.07985e-01,9.99999e-01,9.99999e-01,9.99684e-01,7.08208e-01,9.99999e-01
1.128757988e+00,7.13051e-01,9.99999e-01,9.99999e-01,9.99999e-01,7.13051e-01,9.99999e-01
1.134401778e+00,7.17831e-01,9.99999e-01,9.99999e-01,9.99999e-01,7.17831e-01,9.99999e-01
1.140073787e+00,7.22547e-01,9.99999e-01,9.99999e-01,9.99999e-01,7.22547e-01,9.99999e-01
1.145774156e+00,7.27200e-01,9.99999e-01,9.99999e-01,9.99999e-01,7.27200e-01,9.99999e-01
1.151503026e+00,7.31790e-01,9.99999e-01,9.99999e-01,9.99999e-01,7.31790e-01,9.99999e-01
1.157260541e+00,7.36317e-01,9.99999e-01,9.99999e-01,9.99999e-01,7.36317e-01,9.99999e-01
1.163046844e+00,7.40783e-01,9.99999e-01,9.99999e-01,9.99999e-01,7.40783e-01,9.99999e-01
1.168862078e+00,7.45186e-01,9.99999e-01,9.99999e-01,9.99999e-01,7.45186e-01,9.99999e-01
1.174706389e+00,7.49528e-01,9.99999e-01,9.99999e-01,9.99999e-01,7.49528e-01,9.99999e-01
1.180579921e+00,7.53808e-01,9.99999e-01,9.99999e-01,9.99999e-01,7.53808e-01,9.99999e-01
1.186482820e+00,7.58015e-01,9.99999e-01,9.99999e-01,9.99982e-01,7.58028e-01,9.99999e-01
1.192415234e+00,7.41548e-01,9.99999e-01,9.99999e-01,9.72919e-01,7.62188e-01,9.99999e-01
1.198377311e+00,4.11758e-01,9.99999e-01,9.99999e-01,5.37341e-01,7.66287e-01,9.99999e-01
1.204369197e+00,1.57410e-20,9.99999e-01,9.99999e-01,2.04342e-20,7.70327e-01,9.99999e-01
1.210391043e+00,8.77519e-81,9.99999e-01,9.99999e-01,1.13329e-80,7.74307e-01,9.99999e-01
1.216442998e+00,5.22287e-70,9.99999e-01,9.99999e-01,6.71121e-70,7.78229e-01,9.99999e-01
1.222525213e+00,5.71611e-69,9.99999e-01,9.99999e-01,7.30873e-69,7.82093e-01,9.99999e-01
1.228637839e+00,2.51263e-53,9.99999e-01,9.99999e-01,3.19714e-53,7.85899e-01,9.99999e-01
