#,Wave/freq,Total,N2,O2,CO2,Rayleigh,CIA
4.000000000e-01,3.46968e-19,9.99999e-01,9.99999e-01,9.99999e-01,3.46968e-19,9.99999e-01
4.020000000e-01,8.04058e-19,9.99999e-01,9.99999e-01,9.99999e-01,8.04058e-19,9.99999e-01
4.040100000e-01,1.83106e-18,9.99999e-01,9.99999e-01,9.99999e-01,1.83106e-18,9.99999e-01
4.060300500e-01,4.10259e-18,9.99999e-01,9.99999e-01,9.99999e-01,4.10259e-18,9.99999e-01
4.080602003e-01,9.04677e-18,9.99999e-01,9.99999e-01,9.99999e-01,9.04677e-18,9.99999e-01
4.101005013e-01,1.96402e-17,9.99999e-01,9.99999e-01,9.99999e-01,1.96402e-17,9.99999e-01
4.121510038e-01,4.19901e-17,9.99999e-01,9.99999e-01,9.99999e-01,4.19901e-17,9.99999e-01
4.142117588e-01,8.84363e-17,9.99999e-01,9.99999e-01,9.99999e-01,8.84363e-17,9.99999e-01
4.162828176e-01,1.83537e-16,9.99999e-01,9.99999e-01,9.99999e-01,1.83537e-16,9.99999e-01
4.183642317e-01,3.75452e-16,9.99999e-01,9.99999e-01,9.99999e-01,3.75452e-16,9.99999e-01
4.204560528e-01,7.57261e-16,9.99999e-01,9.99999e-01,9.99999e-01,7.57261e-16,9.99999e-01
4.225583331e-01,1.50632e-15,9.99999e-01,9.99999e-01,9.99999e-01,1.50632e-15,9.99999e-01
4.246711247e-01,2.95591e-15,9.99999e-01,9.99999e-01,9.99999e-01,2.95591e-15,9.99999e-01
4.267944804e-01,5.72375e-15,9.99999e-01,9.99999e-01,9.99999e-01,5.72375e-15,9.99999e-01
4.289284528e-01,1.09396e-14,9.99999e-01,9.99999e-01,9.99999e-01,1.09396e-14,9.99999e-01
4.310730950e-01,2.06427e-14,9.99999e-01,9.99999e-01,9.99999e-01,2.06427e-14,9.99999e-01
4.332284605e-01,3.84665e-14,9.99999e-01,9.99999e-01,9.99999e-01,3.84665e-14,9.99999e-01
4.353946028e-01,7.08045e-14,9.99999e-01,9.99999e-01,9.99999e-01,7.08045e-14,9.99999e-01
4.375715758e-01,1.28767e-13,9.99999e-01,9.99999e-01,9.99999e-01,1.28767e-13,9.99999e-01
4.397594337e-01,2.31429e-13,9.99999e-01,9.99999e-01,9.99999e-01,2.31429e-13,9.99999e-01
4.419582309e-01,4.11152e-13,9.99999e-01,9.99999e-01,9.99999e-01,4.11152e-13,9.99999e-01
4.441680220e-01,7.22198e-13,9.99999e-01,9.99999e-01,9.99999e-01,7.22198e-13,9.99999e-01
4.463888621e-01,1.25452e-12,9.99999e-01,9.99999e-01,9.99999e-01,1.25452e-12,9.99999e-01
4.486208064e-01,2.15557e-12,9.99999e-01,9.99999e-01,9.99999e-01,2.15557e-12,9.99999e-01
4.508639105e-01,3.66441e-12,9.99999e-01,9.99999e-01,9.99999e-01,3.66441e-12,9.99999e-01
4.531182300e-01,6.16443e-12,9.99999e-01,9.99999e-01,9.99999e-01,6.16443e-12,9.99999e-01
4.553838212e-01,1.02641e-11,9.99999e-01,9.99999e-01,9.99999e-01,1.02641e-11,9.99999e-01
4.576607403e-01,1.69190e-11,9.99999e-01,9.99999e-01,9.99999e-01,1.69190e-11,9.99999e-01
4.599490440e-01,2.76147e-11,9.99999e-01,9.99999e-01,9.99999e-01,2.76147e-11,9.99999e-01
4.622487892e-01,4.46379e-11,9.99999e-01,9.99999e-01,9.99999e-01,4.46379e-11,9.99999e-01
4.645600332e-01,7.14740e-11,9.99999e-01,9.99999e-01,9.99999e-01,7.14740e-11,9.99999e-01
4.668828333e-01,1.13384e-10,9.99999e-01,9.99999e-01,9.99999e-01,1.13384e-10,9.99999e-01
4.692172475e-01,1.78238e-10,9.99999e-01,9.99999e-01,9.99999e-01,1.78238e-10,9.99999e-01
4.715633337e-01,2.77695e-10,9.99999e-01,9.99999e-01,9.99999e-01,2.77695e-10,9.99999e-01
4.739211504e-01,4.28875e-10,9.99999e-01,9.99999e-01,9.99999e-01,4.28875e-10,9.99999e-01
4.762907561e-01,6.56698e-10,9.99999e-01,9.99999e-01,9.99999e-01,6.56698e-10,9.99999e-01
4.786722099e-01,9.97115e-10,9.99999e-01,9.99999e-01,9.99999e-01,9.97115e-10,9.99999e-01
4.810655710e-01,1.50156e-09,9.99999e-01,9.99999e-01,9.99999e-01,1.50156e-09,9.99999e-01
4.834708988e-01,2.24299e-09,9.99999e-01,9.99999e-01,9.99999e-01,2.24299e-09,9.99999e-01
4.858882533e-01,3.32407e-09,9.99999e-01,9.99999e-01,9.99999e-01,3.32407e-09,9.99999e-01
4.883176946e-01,4.88808e-09,9.99999e-01,9.99999e-01,9.99999e-01,4.88808e-09,9.99999e-01
4.907592831e-01,7.13343e-09,9.99999e-01,9.99999e-01,9.99999e-01,7.13343e-09,9.99999e-01
4.932130795e-01,1.03327e-08,9.99999e-01,9.99999e-01,9.99999e-01,1.03327e-08,9.99999e-01
4.956791449e-01,1.48578e-08,9.99999e-01,9.99999e-01,9.99999e-01,1.48578e-08,9.99999e-01
4.981575406e-01,2.12118e-08,9.99999e-01,9.99999e-01,9.99999e-01,2.12118e-08,9.99999e-01
5.006483283e-01,3.00710e-08,9.99999e-01,9.99999e-01,9.99999e-01,3.00710e-08,9.99999e-01
5.031515699e-01,4.23372e-08,9.99999e-01,9.99999e-01,9.99999e-01,4.23372e-08,9.99999e-01
5.056673278e-01,5.92056e-08,9.99999e-01,9.99999e-01,9.99999e-01,5.92056e-08,9.99999e-01
5.081956644e-01,8.22482e-08,9.99999e-01,9.99999e-01,9.99999e-01,8.22482e-08,9.99999e-01
5.107366428e-01,1.13519e-07,9.99999e-01,9.99999e-01,9.99999e-01,1.13519e-07,9.99999e-01
5.132903260e-01,1.55686e-07,9.99999e-01,9.99999e-01,9.99999e-01,1.55686e-07,9.99999e-01
5.158567776e-01,2.12188e-07,9.99999e-01,9.99999e-01,9.99999e-01,2.12188e-07,9.99999e-01
5.184360615e-01,2.87431e-07,9.99999e-01,9.99999e-01,9.99999e-01,2.87431e-07,9.99999e-01
5.210282418e-01,3.87029e-07,9.99999e-01,9.99999e-01,9.99999e-01,3.87029e-07,9.99999e-01
5.236333830e-01,5.18086e-07,9.99999e-01,9.99999e-01,9.99999e-01,5.18086e-07,9.99999e-01
5.262515499e-01,6.89538e-07,9.99999e-01,9.99999e-01,9.99999e-01,6.89538e-07,9.99999e-01
5.288828077e-01,9.12561e-07,9.99999e-01,9.99999e-01,9.99999e-01,9.12561e-07,9.99999e-01
5.315272217e-01,1.20105e-06,9.99999e-01,9.99999e-01,9.99999e-01,1.20105e-06,9.99999e-01
5.341848578e-01,1.57219e-06,9.99999e-01,9.99999e-01,9.99999e-01,1.57219e-06,9.99999e-01
5.368557821e-01,2.04710e-06,9.99999e-01,9.99999e-01,9.99999e-01,2.04710e-06,9.99999e-01
5.395400610e-01,2.65160e-06,9.99999e-01,9.99999e-01,9.99999e-01,2.65160e-06,9.99999e-01
5.422377613e-01,3.41709e-06,9.99999e-01,9.99999e-01,9.99999e-01,3.41709e-06,9.99999e-01
5.449489501e-01,4.38158e-06,9.99999e-01,9.99999e-01,9.99999e-01,4.38158e-06,9.99999e-01
5.476736949e-01,5.59077e-06,9.99999e-01,9.99999e-01,9.99999e-01,5.59077e-06,9.99999e-01
5.504120634e-01,7.09941e-06,9.99999e-01,9.99999e-01,9.99999e-01,7.09941e-06,9.99999e-01
5.531641237e-01,8.97270e-06,9.99999e-01,9.99999e-01,9.99999e-01,8.97270e-06,9.99999e-01
5.559299443e-01,1.12880e-05,9.99999e-01,9.99999e-01,9.99999e-01,1.12880e-05,9.99999e-01
5.587095940e-01,1.41364e-05,9.99999e-01,9.99999e-01,9.99999e-01,1.41364e-05,9.99999e-01
5.615031420e-01,1.76251e-05,9.99999e-01,9.99999e-01,9.99999e-01,1.76251e-05,9.99999e-01
5.643106577e-01,2.18792e-05,9.99999e-01,9.99999e-01,9.99999e-01,2.18792e-05,9.99999e-01
5.671322110e-01,2.70444e-05,9.99999e-01,9.99999e-01,9.99999e-01,2.70444e-05,9.99999e-01
5.699678720e-01,3.32894e-05,9.99999e-01,9.99999e-01,9.99999e-01,3.32894e-05,9.99999e-01
5.728177114e-01,4.08086e-05,9.99999e-01,9.99999e-01,9.99999e-01,4.08086e-05,9.99999e-01
5.756818000e-01,4.98253e-05,9.99999e-01,9.99999e-01,9.99999e-01,4.98253e-05,9.99999e-01
5.785602090e-01,6.05949e-05,9.99999e-01,9.99999e-01,9.99999e-01,6.05949e-05,9.99999e-01
5.814530100e-01,7.34080e-05,9.99999e-01,9.99999e-01,9.99999e-01,7.34080e-05,9.99999e-01
5.843602750e-01,8.85942e-05,9.99999e-01,9.99999e-01,9.99999e-01,8.85942e-05,9.99999e-01
5.872820764e-01,1.06526e-04,9.99999e-01,9.99999e-01,9.99999e-01,1.06526e-04,9.99999e-01
5.902184868e-01,1.27621e-04,9.99999e-01,9.99999e-01,9.99999e-01,1.27621e-04,9.99999e-01
5.931695792e-01,1.52349e-04,9.99999e-01,9.99999e-01,9.99999e-01,1.52349e-04,9.99999e-01
5.961354271e-01,1.81233e-04,9.99999e-01,9.99999e-01,9.99999e-01,1.81233e-04,9.99999e-01
5.991161043e-01,2.14856e-04,9.99999e-01,9.99999e-01,9.99999e-01,2.14856e-04,9.99999e-01
6.021116848e-01,2.53861e-04,9.99999e-01,9.99999e-01,9.99999e-01,2.53861e-04,9.99999e-01
6.051222432e-01,2.98961e-04,9.99999e-01,9.99999e-01,9.99999e-01,2.98961e-04,9.99999e-01
6.081478544e-01,3.50937e-04,9.99999e-01,9.99999e-01,9.99999e-01,3.50937e-04,9.99999e-01
6.111885937e-01,4.10648e-04,9.99999e-01,9.99999e-01,9.99999e-01,4.10648e-04,9.99999e-01
6.142445367e-01,4.79029e-04,9.99999e-01,9.99999e-01,9.99999e-01,4.79029e-04,9.99999e-01
6.173157594e-01,5.57100e-04,9.99999e-01,9.99999e-01,9.99999e-01,5.57100e-04,9.99999e-01
6.204023382e-01,6.45965e-04,9.99999e-01,9.99999e-01,9.99999e-01,6.45965e-04,9.99999e-01
6.235043498e-01,7.46819e-04,9.99999e-01,9.99999e-01,9.99999e-01,7.46819e-04,9.99999e-01
6.266218716e-01,8.60948e-04,9.99999e-01,9.99999e-01,9.99999e-01,8.60948e-04,9.99999e-01
6.297549810e-01,9.89734e-04,9.99999e-01,9.99999e-01,9.99999e-01,9.89734e-04,9.99999e-01
6.329037559e-01,1.13466e-03,9.99999e-01,9.99999e-01,9.99999e-01,1.13466e-03,9.99999e-01
6.360682746e-01,1.29729e-03,9.99999e-01,9.99999e-01,9.99999e-01,1.29729e-03,9.99999e-01
6.392486160e-01,1.47932e-03,9.99999e-01,9.99999e-01,9.99999e-01,1.47932e-03,9.99999e-01
6.424448591e-01,1.68252e-03,9.99999e-01,9.99999e-01,9.99999e-01,1.68252e-03,9.99999e-01
6.456570834e-01,1.90878e-03,9.99999e-01,9.99999e-01,9.99999e-01,1.90878e-03,9.99999e-01
6.488853688e-01,2.16007e-03,9.99999e-01,9.99999e-01,9.99999e-01,2.16007e-03,9.99999e-01
6.521297956e-01,2.43847e-03,9.99999e-01,9.99999e-01,9.99999e-01,2.43847e-03,9.99999e-01
6.553904446e-01,2.74618e-03,9.99999e-01,9.99999e-01,9.99999e-01,2.74618e-03,9.99999e-01
6.586673968e-01,3.08546e-03,9.99999e-01,9.99999e-01,9.99999e-01,3.08546e-03,9.99999e-01
6.619607338e-01,3.45870e-03,9.99999e-01,9.99999e-01,9.99999e-01,3.45870e-03,9.99999e-01
6.652705375e-01,3.86834e-03,9.99999e-01,9.99999e-01,9.99999e-01,3.86834e-03,9.99999e-01
6.685968902e-01,4.31695e-03,9.99999e-01,9.99999e-01,9.99999e-01,4.31695e-03,9.99999e-01
6.719398746e-01,4.80716e-03,9.99999e-01,9.99999e-01,9.99999e-01,4.80716e-03,9.99999e-01
6.752995740e-01,5.34167e-03,9.99999e-01,9.99999e-01,9.99999e-01,5.34167e-03,9.99999e-01
6.786760719e-01,5.92326e-03,9.99999e-01,9.99999e-01,9.99999e-01,5.92326e-03,9.99999e-01
6.820694522e-01,6.55478e-03,9.99999e-01,9.99999e-01,9.99999e-01,6.55478e-03,9.99999e-01
6.854797995e-01,7.23914e-03,9.99999e-01,9.99999e-01,9.99999e-01,7.23914e-03,9.99999e-01
6.889071985e-01,7.97927e-03,9.99999e-01,9.99999e-01,9.99999e-01,7.97927e-03,9.99999e-01
6.923517345e-01,8.77818e-03,9.99999e-01,9.99999e-01,9.99999e-01,8.77818e-03,9.99999e-01
6.958134932e-01,9.63890e-03,9.99999e-01,9.99999e-01,9.99999e-01,9.63890e-03,9.99999e-01
6.992925606e-01,1.05645e-02,9.99999e-01,9.99999e-01,9.99999e-01,1.05645e-02,9.99999e-01
7.027890234e-01,1.15580e-02,9.99999e-01,9.99999e-01,9.99999e-01,1.15580e-02,9.99999e-01
7.063029686e-01,1.26225e-02,9.99999e-01,9.99999e-01,9.99999e-01,1.26225e-02,9.99999e-01
7.098344834e-01,1.37611e-02,9.99999e-01,9.99999e-01,9.99999e-01,1.37611e-02,9.99999e-01
7.133836558e-01,1.49768e-02,9.99999e-01,9.99999e-01,9.99999e-01,1.49768e-02,9.99999e-01
7.169505741e-01,1.62726e-02,9.99999e-01,9.99999e-01,9.99999e-01,1.62726e-02,9.99999e-01
7.205353270e-01,1.76517e-02,9.99999e-01,9.99999e-01,9.99999e-01,1.76517e-02,9.99999e-01
7.241380036e-01,1.91169e-02,9.99999e-01,9.99999e-01,9.99999e-01,1.91169e-02,9.99999e-01
7.277586936e-01,2.06711e-02,9.99999e-01,9.99999e-01,9.99999e-01,2.06711e-02,9.99999e-01
7.313974871e-01,2.23171e-02,9.99999e-01,9.99999e-01,9.99999e-01,2.23171e-02,9.99999e-01
7.350544745e-01,2.40579e-02,9.99999e-01,9.99999e-01,9.99999e-01,2.40579e-02,9.99999e-01
7.387297469e-01,2.58959e-02,9.99999e-01,9.99999e-01,9.99999e-01,2.58959e-02,9.99999e-01
7.424233956e-01,2.78339e-02,9.99999e-01,9.99999e-01,9.99999e-01,2.78339e-02,9.99999e-01
7.461355126e-01,2.98743e-02,9.99999e-01,9.99999e-01,9.99999e-01,2.98743e-02,9.99999e-01
7.498661902e-01,3.20195e-02,9.99999e-01,9.99999e-01,9.99999e-01,3.20195e-02,9.99999e-01
7.536155211e-01,3.42717e-02,9.99999e-01,9.99999e-01,9.99999e-01,3.42717e-02,9.99999e-01
7.573835987e-01,3.66332e-02,9.99999e-01,9.99999e-01,9.99999e-01,3.66332e-02,9.99999e-01
7.611705167e-01,3.91058e-02,9.99999e-01,9.99999e-01,9.99999e-01,3.91058e-02,9.99999e-01
7.649763693e-01,4.16916e-02,9.99999e-01,9.99999e-01,9.99999e-01,4.16916e-02,9.99999e-01
7.688012511e-01,4.43921e-02,9.99999e-01,9.99999e-01,9.99999e-01,4.43921e-02,9.99999e-01
7.726452574e-01,4.72090e-02,9.99999e-01,9.99999e-01,9.99999e-01,4.72090e-02,9.99999e-01
7.765084837e-01,5.01436e-02,9.99999e-01,9.99999e-01,9.99999e-01,5.01436e-02,9.99999e-01
7.803910261e-01,4.75980e-02,9.99999e-01,9.99999e-01,8.94744e-01,5.31973e-02,9.99999e-01
7.842929812e-01,3.20692e-02,9.99999e-01,9.99999e-01,5.68894e-01,5.63711e-02,9.99999e-01
7.882144461e-01,3.29755e-02,9.99999e-01,9.99999e-01,5.52668e-01,5.96659e-02,9.99999e-01
7.921555184e-01,4.35118e-02,9.99999e-01,9.99999e-01,6.89760e-01,6.30825e-02,9.99999e-01
7.961162960e-01,5.17697e-02,9.99999e-01,9.99999e-01,7.77072e-01,6.66214e-02,9.99999e-01
8.000968774e-01,6.12803e-02,9.99999e-01,9.99999e-01,8.71907e-01,7.02830e-02,9.99999e-01
8.040973618e-01,6.89827e-02,9.99999e-01,9.99999e-01,9.31348e-01,7.40675e-02,9.99999e-01
8.081178486e-01,7.54642e-02,9.99999e-01,9.99999e-01,9.67799e-01,7.79750e-02,9.99999e-01
8.121584379e-01,8.11826e-02,9.99999e-01,9.99999e-01,9.89966e-01,8.20053e-02,9.99999e-01
8.162192301e-01,8.59665e-02,9.99999e-01,9.99999e-01,9.97775e-01,8.61581e-02,9.99999e-01
8.203003262e-01,9.04301e-02,9.99999e-01,9.99999e-01,9.99967e-01,9.04330e-02,9.99999e-01
8.244018279e-01,9.48292e-02,9.99999e-01,9.99999e-01,9.99999e-01,9.48292e-02,9.99999e-01
8.285238370e-01,9.93459e-02,9.99999e-01,9.99999e-01,9.99999e-01,9.93459e-02,9.99999e-01
8.326664562e-01,1.03982e-01,9.99999e-01,9.99999e-01,9.99999e-01,1.03982e-01,9.99999e-01
8.368297885e-01,1.08737e-01,9.99999e-01,9.99999e-01,9.99999e-01,1.08737e-01,9.99999e-01
8.410139374e-01,1.13608e-01,9.99999e-01,9.99999e-01,9.99999e-01,1.13608e-01,9.99999e-01
8.452190071e-01,1.18595e-01,9.99999e-01,9.99999e-01,9.99999e-01,1.18595e-01,9.99999e-01
8.494451021e-01,1.23697e-01,9.99999e-01,9.99999e-01,9.99999e-01,1.23697e-01,9.99999e-01
8.536923276e-01,1.28910e-01,9.99999e-01,9.99999e-01,9.99999e-01,1.28910e-01,9.99999e-01
8.579607893e-01,1.34233e-01,9.99999e-01,9.99999e-01,9.99999e-01,1.34233e-01,9.99999e-01
8.622505932e-01,1.39665e-01,9.99999e-01,9.99999e-01,9.99999e-01,1.39665e-01,9.99999e-01
8.665618462e-01,1.23914e-01,9.99999e-01,9.99999e-01,8.53388e-01,1.45202e-01,9.99999e-01
8.708946554e-01,3.81706e-02,9.99999e-01,9.99999e-01,2.53048e-01,1.50843e-01,9.99999e-01
8.752491287e-01,4.91076e-02,9.99999e-01,9.99999e-01,3.13614e-01,1.56586e-01,9.99999e-01
8.796253743e-01,8.43024e-02,9.99999e-01,9.99999e-01,5.19016e-01,1.62427e-01,9.99999e-01
8.840235012e-01,1.18795e-01,9.99999e-01,9.99999e-01,7.05582e-01,1.68364e-01,9.99999e-01
8.884436187e-01,1.51813e-01,9.99999e-01,9.99999e-01,8.70516e-01,1.74395e-01,9.99999e-01
8.928858368e-01,1.70614e-01,9.99999e-01,9.99999e-01,9.45145e-01,1.80516e-01,9.99999e-01
8.973502660e-01,1.84186e-01,9.99999e-01,9.99999e-01,9.86407e-01,1.86724e-01,9.99999e-01
9.018370173e-01,1.92727e-01,9.99999e-01,9.99999e-01,9.98493e-01,1.93017e-01,9.99999e-01
9.063462024e-01,1.91955e-01,9.99999e-01,9.99999e-01,9.62701e-01,1.99392e-01,9.99999e-01
9.108779334e-01,1.88350e-01,9.99999e-01,9.99999e-01,9.15011e-01,2.05845e-01,9.99999e-01
9.154323231e-01,2.07998e-01,9.99999e-01,9.99999e-01,9.79398e-01,2.12373e-01,9.99999e-01
9.200094847e-01,1.70083e-01,9.99999e-01,9.99999e-01,7.76731e-01,2.18973e-01,9.99999e-01
9.246095321e-01,1.46619e-01,9.99999e-01,9.99999e-01,6.49785e-01,2.25642e-01,9.99999e-01
9.292325798e-01,1.66994e-01,9.99999e-01,9.99999e-01,7.18638e-01,2.32376e-01,9.99999e-01
9.338787427e-01,1.72992e-01,9.99999e-01,9.99999e-01,7.23294e-01,2.39172e-01,9.99999e-01
9.385481364e-01,1.93394e-01,9.99999e-01,9.99999e-01,7.86067e-01,2.46027e-01,9.99999e-01
9.432408771e-01,2.18049e-01,9.99999e-01,9.99999e-01,8.62067e-01,2.52937e-01,9.99999e-01
9.479570815e-01,2.40806e-01,9.99999e-01,9.99999e-01,9.26538e-01,2.59899e-01,9.99999e-01
9.526968669e-01,2.57285e-01,9.99999e-01,9.99999e-01,9.63944e-01,2.66909e-01,9.99999e-01
9.574603512e-01,2.69691e-01,9.99999e-01,9.99999e-01,9.84401e-01,2.73964e-01,9.99999e-01
9.622476530e-01,2.79686e-01,9.99999e-01,9.99999e-01,9.95108e-01,2.81061e-01,9.99999e-01
9.670588912e-01,2.87773e-01,9.99999e-01,9.99999e-01,9.98532e-01,2.88196e-01,9.99999e-01
9.718941857e-01,2.95336e-01,9.99999e-01,9.99999e-01,9.99896e-01,2.95366e-01,9.99999e-01
9.767536566e-01,3.02567e-01,9.99999e-01,9.99999e-01,9.99999e-01,3.02567e-01,9.99999e-01
9.816374249e-01,3.09797e-01,9.99999e-01,9.99999e-01,9.99999e-01,3.09797e-01,9.99999e-01
9.865456120e-01,3.17051e-01,9.99999e-01,9.99999e-01,9.99999e-01,3.17051e-01,9.99999e-01
9.914783401e-01,3.24327e-01,9.99999e-01,9.99999e-01,9.99999e-01,3.24327e-01,9.99999e-01
9.964357318e-01,3.31622e-01,9.99999e-01,9.99999e-01,9.99999e-01,3.31622e-01,9.99999e-01
1.001417910e+00,3.38931e-01,9.99999e-01,9.99999e-01,9.99999e-01,3.38931e-01,9.99999e-01
1.006425000e+00,3.46252e-01,9.99999e-01,9.99999e-01,9.99999e-01,3.46252e-01,9.99999e-01
1.011457125e+00,3.53583e-01,9.99999e-01,9.99999e-01,9.99999e-01,3.53583e-01,9.99999e-01
1.016514411e+00,3.60919e-01,9.99999e-01,9.99999e-01,9.99999e-01,3.60919e-01,9.99999e-01
1.021596983e+00,3.68180e-01,9.99999e-01,9.99999e-01,9.99788e-01,3.68258e-01,9.99999e-01
1.026704968e+00,3.69963e-01,9.99999e-01,9.99999e-01,9.85002e-01,3.75596e-01,9.99999e-01
1.031838492e+00,3.39816e-01,9.99999e-01,9.99999e-01,8.87405e-01,3.82932e-01,9.99999e-01
1.036997685e+00,1.46766e-02,9.99999e-01,9.99999e-01,3.76070e-02,3.90262e-01,9.99999e-01
1.042182673e+00,4.28692e-04,9.99999e-01,9.99999e-01,1.07824e-03,3.97583e-01,9.99999e-01
1.047393587e+00,1.24290e-03,9.99999e-01,9.99999e-01,3.06970e-03,4.04893e-01,9.99999e-01
1.052630555e+00,1.91072e-08,9.99999e-01,9.99999e-01,4.63554e-08,4.12189e-01,9.99999e-01
1.057893707e+00,7.20941e-08,9.99999e-01,9.99999e-01,1.71870e-07,4.19468e-01,9.99999e-01
1.063183176e+00,4.78356e-06,9.99999e-01,9.99999e-01,1.12098e-05,4.26728e-01,9.99999e-01
1.068499092e+00,7.06445e-05,9.99999e-01,9.99999e-01,1.62788e-04,4.33967e-01,9.99999e-01
1.073841587e+00,1.51803e-03,9.99999e-01,9.99999e-01,3.44082e-03,4.41182e-01,9.99999e-01
1.079210795e+00,1.29960e-02,9.99999e-01,9.99999e-01,2.89848e-02,4.48371e-01,9.99999e-01
1.084606849e+00,5.97571e-02,9.99999e-01,9.99999e-01,1.31181e-01,4.55532e-01,9.99999e-01
1.090029883e+00,1.59094e-01,9.99999e-01,9.99999e-01,3.43867e-01,4.62662e-01,9.99999e-01
1.095480033e+00,2.76803e-01,9.99999e-01,9.99999e-01,5.89243e-01,4.69759e-01,9.99999e-01
1.100957433e+00,3.68840e-01,9.99999e-01,9.99999e-01,7.73536e-01,4.76823e-01,9.99999e-01
1.106462220e+00,4.35005e-01,9.99999e-01,9.99999e-01,8.99050e-01,4.83849e-01,9.99999e-01
1.111994531e+00,4.71820e-01,9.99999e-01,9.99999e-01,9.61253e-01,4.90838e-01,9.99999e-01
1.117554504e+00,4.93013e-01,9.99999e-01,9.99999e-01,9.90411e-01,4.97786e-01,9.99999e-01
1.123142276e+00,5.04374e-01,9.99999e-01,9.99999e-01,9.99368e-01,5.04692e-01,9.99999e-01
1.128757988e+00,5.11555e-01,9.99999e-01,9.99999e-01,9.99999e-01,5.11555e-01,9.99999e-01
1.134401778e+00,5.18373e-01,9.99999e-01,9.99999e-01,9.99999e-01,5.18373e-01,9.99999e-01
1.140073787e+00,5.25145e-01,9.99999e-01,9.99999e-01,9.99999e-01,5.25145e-01,9.99999e-01
1.145774156e+00,5.31869e-01,9.99999e-01,9.99999e-01,9.99999e-01,5.31869e-01,9.99999e-01
1.151503026e+00,5.38543e-01,9.99999e-01,9.99999e-01,9.99999e-01,5.38543e-01,9.99999e-01
1.157260541e+00,5.45167e-01,9.99999e-01,9.99999e-01,9.99999e-01,5.45167e-01,9.99999e-01
1.163046844e+00,5.51739e-01,9.99999e-01,9.99999e-01,9.99999e-01,5.51739e-01,9.99999e-01
1.168862078e+00,5.58258e-01,9.99999e-01,9.99999e-01,9.99999e-01,5.58258e-01,9.99999e-01
1.174706389e+00,5.64723e-01,9.99999e-01,9.99999e-01,9.99999e-01,5.64723e-01,9.99999e-01
1.180579921e+00,5.71133e-01,9.99999e-01,9.99999e-01,9.99999e-01,5.71133e-01,9.99999e-01
1.186482820e+00,5.77471e-01,9.99999e-01,9.99999e-01,9.99970e-01,5.77487e-01,9.99999e-01
1.192415234e+00,5.54489e-01,9.99999e-01,9.99999e-01,9.49816e-01,5.83785e-01,9.99999e-01
1.198377311e+00,2.94996e-01,9.99999e-01,9.99999e-01,4.99972e-01,5.90024e-01,9.99999e-01
1.204369197e+00,1.82607e-38,9.99999e-01,9.99999e-01,3.06281e-38,5.96205e-01,9.99999e-01
1.210391043e+00,7.51682e-158,9.99999e-01,9.99999e-01,1.24796e-157,6.02327e-01,9.99999e-01
1.216442998e+00,1.68366e-136,9.99999e-01,9.99999e-01,2.76741e-136,6.08388e-01,9.99999e-01
1.222525213e+00,1.92271e-134,9.99999e-01,9.99999e-01,3.12946e-134,6.14390e-01,9.99999e-01
1.228637839e+00,1.42912e-103,9.99999e-01,9.99999e-01,2.30381e-103,6.20330e-01,9.99999e-01
