#,Wave/freq,Total,N2,O2,CO2,Rayleigh,CIA
4.000000000e-01,8.34671e-04,9.99999e-01,9.99999e-01,9.99999e-01,8.34671e-04,9.99999e-01
4.020000000e-01,9.60251e-04,9.99999e-01,9.99999e-01,9.99999e-01,9.60251e-04,9.99999e-01
4.040100000e-01,1.10151e-03,9.99999e-01,9.99999e-01,9.99999e-01,1.10151e-03,9.99999e-01
4.060300500e-01,1.26014e-03,9.99999e-01,9.99999e-01,9.99999e-01,1.26014e-03,9.99999e-01
4.080602003e-01,1.43778e-03,9.99999e-01,9.99999e-01,9.99999e-01,1.43778e-03,9.99999e-01
4.101005013e-01,1.63619e-03,9.99999e-01,9.99999e-01,9.99999e-01,1.63619e-03,9.99999e-01
4.121510038e-01,1.85724e-03,9.99999e-01,9.99999e-01,9.99999e-01,1.85724e-03,9.99999e-01
4.142117588e-01,2.10288e-03,9.99999e-01,9.99999e-01,9.99999e-01,2.10288e-03,9.99999e-01
4.162828176e-01,2.37518e-03,9.99999e-01,9.99999e-01,9.99999e-01,2.37518e-03,9.99999e-01
4.183642317e-01,2.67629e-03,9.99999e-01,9.99999e-01,9.99999e-01,2.67629e-03,9.99999e-01
4.204560528e-01,3.00847e-03,9.99999e-01,9.99999e-01,9.99999e-01,3.00847e-03,9.99999e-01
4.225583331e-01,3.37407e-03,9.99999e-01,9.99999e-01,9.99999e-01,3.37407e-03,9.99999e-01
4.246711247e-01,3.77554e-03,9.99999e-01,9.99999e-01,9.99999e-01,3.77554e-03,9.99999e-01
4.267944804e-01,4.21541e-03,9.99999e-01,9.99999e-01,9.99999e-01,4.21541e-03,9.99999e-01
4.289284528e-01,4.69629e-03,9.99999e-01,9.99999e-01,9.99999e-01,4.69629e-03,9.99999e-01
4.310730950e-01,5.22088e-03,9.99999e-01,9.99999e-01,9.99999e-01,5.22088e-03,9.99999e-01
4.332284605e-01,5.79194e-03,9.99999e-01,9.99999e-01,9.99999e-01,5.79194e-03,9.99999e-01
4.353946028e-01,6.41230e-03,9.99999e-01,9.99999e-01,9.99999e-01,6.41230e-03,9.99999e-01
4.375715758e-01,7.08485e-03,9.99999e-01,9.99999e-01,9.99999e-01,7.08485e-03,9.99999e-01
4.397594337e-01,7.81253e-03,9.99999e-01,9.99999e-01,9.99999e-01,7.81253e-03,9.99999e-01
4.419582309e-01,8.59834e-03,9.99999e-01,9.99999e-01,9.99999e-01,8.59834e-03,9.99999e-01
4.441680220e-01,9.44528e-03,9.99999e-01,9.99999e-01,9.99999e-01,9.44528e-03,9.99999e-01
4.463888621e-01,1.03564e-02,9.99999e-01,9.99999e-01,9.99999e-01,1.03564e-02,9.99999e-01
4.486208064e-01,1.13348e-02,9.99999e-01,9.99999e-01,9.99999e-01,1.13348e-02,9.99999e-01
4.508639105e-01,1.23835e-02,9.99999e-01,9.99999e-01,9.99999e-01,1.23835e-02,9.99999e-01
4.531182300e-01,1.35056e-02,9.99999e-01,9.99999e-01,9.99999e-01,1.35056e-02,9.99999e-01
4.553838212e-01,1.47042e-02,9.99999e-01,9.99999e-01,9.99999e-01,1.47042e-02,9.99999e-01
4.576607403e-01,1.59823e-02,9.99999e-01,9.99999e-01,9.99999e-01,1.59823e-02,9.99999e-01
4.599490440e-01,1.73429e-02,9.99999e-01,9.99999e-01,9.99999e-01,1.73429e-02,9.99999e-01
4.622487892e-01,1.87890e-02,9.99999e-01,9.99999e-01,9.99999e-01,1.87890e-02,9.99999e-01
4.645600332e-01,2.03235e-02,9.99999e-01,9.99999e-01,9.99999e-01,2.03235e-02,9.99999e-01
4.668828333e-01,2.19493e-02,9.99999e-01,9.99999e-01,9.99999e-01,2.19493e-02,9.99999e-01
4.692172475e-01,2.36690e-02,9.99999e-01,9.99999e-01,9.99999e-01,2.36690e-02,9.99999e-01
4.715633337e-01,2.54856e-02,9.99999e-01,9.99999e-01,9.99999e-01,2.54856e-02,9.99999e-01
4.739211504e-01,2.74015e-02,9.99999e-01,9.99999e-01,9.99999e-01,2.74015e-02,9.99999e-01
4.762907561e-01,2.94193e-02,9.99999e-01,9.99999e-01,9.99999e-01,2.94193e-02,9.99999e-01
4.786722099e-01,3.15414e-02,9.99999e-01,9.99999e-01,9.99999e-01,3.15414e-02,9.99999e-01
4.810655710e-01,3.37700e-02,9.99999e-01,9.99999e-01,9.99999e-01,3.37700e-02,9.99999e-01
4.834708988e-01,3.61074e-02,9.99999e-01,9.99999e-01,9.99999e-01,3.61074e-02,9.99999e-01
4.858882533e-01,3.85556e-02,9.99999e-01,9.99999e-01,9.99999e-01,3.85556e-02,9.99999e-01
4.883176946e-01,4.11165e-02,9.99999e-01,9.99999e-01,9.99999e-01,4.11165e-02,9.99999e-01
4.907592831e-01,4.37918e-02,9.99999e-01,9.99999e-01,9.99999e-01,4.37918e-02,9.99999e-01
4.932130795e-01,4.65831e-02,9.99999e-01,9.99999e-01,9.99999e-01,4.65831e-02,9.99999e-01
4.956791449e-01,4.94919e-02,9.99999e-01,9.99999e-01,9.99999e-01,4.94919e-02,9.99999e-01
4.981575406e-01,5.25195e-02,9.99999e-01,9.99999e-01,9.99999e-01,5.25195e-02,9.99999e-01
5.006483283e-01,5.56669e-02,9.99999e-01,9.99999e-01,9.99999e-01,5.56669e-02,9.99999e-01
5.031515699e-01,5.89352e-02,9.99999e-01,9.99999e-01,9.99999e-01,5.89352e-02,9.99999e-01
5.056673278e-01,6.23251e-02,9.99999e-01,9.99999e-01,9.99999e-01,6.23251e-02,9.99999e-01
5.081956644e-01,6.58372e-02,9.99999e-01,9.99999e-01,9.99999e-01,6.58372e-02,9.99999e-01
5.107366428e-01,6.94719e-02,9.99999e-01,9.99999e-01,9.99999e-01,6.94719e-02,9.99999e-01
5.132903260e-01,7.32295e-02,9.99999e-01,9.99999e-01,9.99999e-01,7.32295e-02,9.99999e-01
5.158567776e-01,7.71102e-02,9.99999e-01,9.99999e-01,9.99999e-01,7.71102e-02,9.99999e-01
5.184360615e-01,8.11136e-02,9.99999e-01,9.99999e-01,9.99999e-01,8.11136e-02,9.99999e-01
5.210282418e-01,8.52397e-02,9.99999e-01,9.99999e-01,9.99999e-01,8.52397e-02,9.99999e-01
5.236333830e-01,8.94879e-02,9.99999e-01,9.99999e-01,9.99999e-01,8.94879e-02,9.99999e-01
5.262515499e-01,9.38577e-02,9.99999e-01,9.99999e-01,9.99999e-01,9.38577e-02,9.99999e-01
5.288828077e-01,9.83481e-02,9.99999e-01,9.99999e-01,9.99999e-01,9.83481e-02,9.99999e-01
5.315272217e-01,1.02958e-01,9.99999e-01,9.99999e-01,9.99999e-01,1.02958e-01,9.99999e-01
5.341848578e-01,1.07687e-01,9.99999e-01,9.99999e-01,9.99999e-01,1.07687e-01,9.99999e-01
5.368557821e-01,1.12533e-01,9.99999e-01,9.99999e-01,9.99999e-01,1.12533e-01,9.99999e-01
5.395400610e-01,1.17495e-01,9.99999e-01,9.99999e-01,9.99999e-01,1.17495e-01,9.99999e-01
5.422377613e-01,1.22572e-01,9.99999e-01,9.99999e-01,9.99999e-01,1.22572e-01,9.99999e-01
5.449489501e-01,1.27760e-01,9.99999e-01,9.99999e-01,9.99999e-01,1.27760e-01,9.99999e-01
5.476736949e-01,1.33060e-01,9.99999e-01,9.99999e-01,9.99999e-01,1.33060e-01,9.99999e-01
5.504120634e-01,1.38468e-01,9.99999e-01,9.99999e-01,9.99999e-01,1.38468e-01,9.99999e-01
5.531641237e-01,1.43983e-01,9.99999e-01,9.99999e-01,9.99999e-01,1.43983e-01,9.99999e-01
5.559299443e-01,1.49601e-01,9.99999e-01,9.99999e-01,9.99999e-01,1.49601e-01,9.99999e-01
5.587095940e-01,1.55322e-01,9.99999e-01,9.99999e-01,9.99999e-01,1.55322e-01,9.99999e-01
5.615031420e-01,1.61142e-01,9.99999e-01,9.99999e-01,9.99999e-01,1.61142e-01,9.99999e-01
5.643106577e-01,1.67058e-01,9.99999e-01,9.99999e-01,9.99999e-01,1.67058e-01,9.99999e-01
5.671322110e-01,1.73068e-01,9.99999e-01,9.99999e-01,9.99999e-01,1.73068e-01,9.99999e-01
5.699678720e-01,1.79170e-01,9.99999e-01,9.99999e-01,9.99999e-01,1.79170e-01,9.99999e-01
5.728177114e-01,1.85359e-01,9.99999e-01,9.99999e-01,9.99999e-01,1.85359e-01,9.99999e-01
5.756818000e-01,1.91634e-01,9.99999e-01,9.99999e-01,9.99999e-01,1.91634e-01,9.99999e-01
5.785602090e-01,1.97991e-01,9.99999e-01,9.99999e-01,9.99999e-01,1.97991e-01,9.99999e-01
5.814530100e-01,2.04427e-01,9.99999e-01,9.99999e-01,9.99999e-01,2.04427e-01,9.99999e-01
5.843602750e-01,2.10939e-01,9.99999e-01,9.99999e-01,9.99999e-01,2.10939e-01,9.99999e-01
5.872820764e-01,2.17524e-01,9.99999e-01,9.99999e-01,9.99999e-01,2.17524e-01,9.99999e-01
5.902184868e-01,2.24178e-01,9.99999e-01,9.99999e-01,9.99999e-01,2.24178e-01,9.99999e-01
5.931695792e-01,2.30898e-01,9.99999e-01,9.99999e-01,9.99999e-01,2.30898e-01,9.99999e-01
5.961354271e-01,2.37681e-01,9.99999e-01,9.99999e-01,9.99999e-01,2.37681e-01,9.99999e-01
5.991161043e-01,2.44523e-01,9.99999e-01,9.99999e-01,9.99999e-01,2.44523e-01,9.99999e-01
6.021116848e-01,2.51421e-01,9.99999e-01,9.99999e-01,9.99999e-01,2.51421e-01,9.99999e-01
6.051222432e-01,2.58372e-01,9.99999e-01,9.99999e-01,9.99999e-01,2.58372e-01,9.99999e-01
6.081478544e-01,2.65372e-01,9.99999e-01,9.99999e-01,9.99999e-01,2.65372e-01,9.99999e-01
6.111885937e-01,2.72418e-01,9.99999e-01,9.99999e-01,9.99999e-01,2.72418e-01,9.99999e-01
6.142445367e-01,2.79506e-01,9.99999e-01,9.99999e-01,9.99999e-01,2.79506e-01,9.99999e-01
6.173157594e-01,2.86633e-01,9.99999e-01,9.99999e-01,9.99999e-01,2.86633e-01,9.99999e-01
6.204023382e-01,2.93796e-01,9.99999e-01,9.99999e-01,9.99999e-01,2.93796e-01,9.99999e-01
6.235043498e-01,3.00990e-01,9.99999e-01,9.99999e-01,9.99999e-01,3.00990e-01,9.99999e-01
6.266218716e-01,3.08214e-01,9.99999e-01,9.99999e-01,9.99999e-01,3.08214e-01,9.99999e-01
6.297549810e-01,3.15463e-01,9.99999e-01,9.99999e-01,9.99999e-01,3.15463e-01,9.99999e-01
6.329037559e-01,3.22735e-01,9.99999e-01,9.99999e-01,9.99999e-01,3.22735e-01,9.99999e-01
6.360682746e-01,3.30025e-01,9.99999e-01,9.99999e-01,9.99999e-01,3.30025e-01,9.99999e-01
6.392486160e-01,3.37332e-01,9.99999e-01,9.99999e-01,9.99999e-01,3.37332e-01,9.99999e-01
6.424448591e-01,3.44651e-01,9.99999e-01,9.99999e-01,9.99999e-01,3.44651e-01,9.99999e-01
6.456570834e-01,3.51979e-01,9.99999e-01,9.99999e-01,9.99999e-01,3.51979e-01,9.99999e-01
6.488853688e-01,3.59314e-01,9.99999e-01,9.99999e-01,9.99999e-01,3.59314e-01,9.99999e-01
6.521297956e-01,3.66653e-01,9.99999e-01,9.99999e-01,9.99999e-01,3.66653e-01,9.99999e-01
6.553904446e-01,3.73992e-01,9.99999e-01,9.99999e-01,9.99999e-01,3.73992e-01,9.99999e-01
6.586673968e-01,3.81328e-01,9.99999e-01,9.99999e-01,9.99999e-01,3.81328e-01,9.99999e-01
6.619607338e-01,3.88660e-01,9.99999e-01,9.99999e-01,9.99999e-01,3.88660e-01,9.99999e-01
6.652705375e-01,3.95983e-01,9.99999e-01,9.99999e-01,9.99999e-01,3.95983e-01,9.99999e-01
6.685968902e-01,4.03296e-01,9.99999e-01,9.99999e-01,9.99999e-01,4.03296e-01,9.99999e-01
6.719398746e-01,4.10595e-01,9.99999e-01,9.99999e-01,9.99999e-01,4.10595e-01,9.99999e-01
6.752995740e-01,4.17878e-01,9.99999e-01,9.99999e-01,9.99999e-01,4.17878e-01,9.99999e-01
6.786760719e-01,4.25143e-01,9.99999e-01,9.99999e-01,9.99999e-01,4.25143e-01,9.99999e-01
6.820694522e-01,4.32386e-01,9.99999e-01,9.99999e-01,9.99999e-01,4.32386e-01,9.99999e-01
6.854797995e-01,4.39607e-01,9.99999e-01,9.99999e-01,9.99999e-01,4.39607e-01,9.99999e-01
6.889071985e-01,4.46802e-01,9.99999e-01,9.99999e-01,9.99999e-01,4.46802e-01,9.99999e-01
6.923517345e-01,4.53969e-01,9.99999e-01,9.99999e-01,9.99999e-01,4.53969e-01,9.99999e-01
6.958134932e-01,4.61106e-01,9.99999e-01,9.99999e-01,9.99999e-01,4.61106e-01,9.99999e-01
6.992925606e-01,4.68211e-01,9.99999e-01,9.99999e-01,9.99999e-01,4.68211e-01,9.99999e-01
7.027890234e-01,4.75281e-01,9.99999e-01,9.99999e-01,9.99999e-01,4.75281e-01,9.99999e-01
7.063029686e-01,4.82316e-01,9.99999e-01,9.99999e-01,9.99999e-01,4.82316e-01,9.99999e-01
7.098344834e-01,4.89313e-01,9.99999e-01,9.99999e-01,9.99999e-01,4.89313e-01,9.99999e-01
7.133836558e-01,4.96270e-01,9.99999e-01,9.99999e-01,9.99999e-01,4.96270e-01,9.99999e-01
7.169505741e-01,5.03186e-01,9.99999e-01,9.99999e-01,9.99999e-01,5.03186e-01,9.99999e-01
7.205353270e-01,5.10059e-01,9.99999e-01,9.99999e-01,9.99999e-01,5.10059e-01,9.99999e-01
7.241380036e-01,5.16887e-01,9.99999e-01,9.99999e-01,9.99999e-01,5.16887e-01,9.99999e-01
7.277586936e-01,5.23668e-01,9.99999e-01,9.99999e-01,9.99999e-01,5.23668e-01,9.99999e-01
7.313974871e-01,5.30403e-01,9.99999e-01,9.99999e-01,9.99999e-01,5.30403e-01,9.99999e-01
7.350544745e-01,5.37088e-01,9.99999e-01,9.99999e-01,9.99999e-01,5.37088e-01,9.99999e-01
7.387297469e-01,5.43723e-01,9.99999e-01,9.99999e-01,9.99999e-01,5.43723e-01,9.99999e-01
7.424233956e-01,5.50307e-01,9.99999e-01,9.99999e-01,9.99999e-01,5.50307e-01,9.99999e-01
7.461355126e-01,5.56837e-01,9.99999e-01,9.99999e-01,9.99999e-01,5.56837e-01,9.99999e-01
7.498661902e-01,5.63314e-01,9.99999e-01,9.99999e-01,9.99999e-01,5.63314e-01,9.99999e-01
7.536155211e-01,5.69737e-01,9.99999e-01,9.99999e-01,9.99999e-01,5.69737e-01,9.99999e-01
7.573835987e-01,5.76103e-01,9.99999e-01,9.99999e-01,9.99999e-01,5.76103e-01,9.99999e-01
7.611705167e-01,5.82413e-01,9.99999e-01,9.99999e-01,9.99999e-01,5.82413e-01,9.99999e-01
7.649763693e-01,5.88665e-01,9.99999e-01,9.99999e-01,9.99999e-01,5.88665e-01,9.99999e-01
7.688012511e-01,5.94859e-01,9.99999e-01,9.99999e-01,9.99999e-01,5.94859e-01,9.99999e-01
7.726452574e-01,6.00993e-01,9.99999e-01,9.99999e-01,9.99999e-01,6.00993e-01,9.99999e-01
7.765084837e-01,6.07068e-01,9.99999e-01,9.99999e-01,9.99999e-01,6.07068e-01,9.99999e-01
7.803910261e-01,5.98426e-01,9.99999e-01,9.99999e-01,9.76093e-01,6.13083e-01,9.99999e-01
7.842929812e-01,5.58753e-01,9.99999e-01,9.99999e-01,9.02616e-01,6.19036e-01,9.99999e-01
7.882144461e-01,5.59663e-01,9.99999e-01,9.99999e-01,8.95563e-01,6.24928e-01,9.99999e-01
7.921555184e-01,5.91830e-01,9.99999e-01,9.99999e-01,9.38282e-01,6.30758e-01,9.99999e-01
7.961162960e-01,6.10094e-01,9.99999e-01,9.99999e-01,9.58474e-01,6.36526e-01,9.99999e-01
8.000968774e-01,6.27628e-01,9.99999e-01,9.99999e-01,9.77261e-01,6.42231e-01,9.99999e-01
8.040973618e-01,6.40218e-01,9.99999e-01,9.99999e-01,9.88183e-01,6.47873e-01,9.99999e-01
8.081178486e-01,6.49891e-01,9.99999e-01,9.99999e-01,9.94550e-01,6.53452e-01,9.99999e-01
8.121584379e-01,6.57861e-01,9.99999e-01,9.99999e-01,9.98321e-01,6.58967e-01,9.99999e-01
8.162192301e-01,6.64172e-01,9.99999e-01,9.99999e-01,9.99628e-01,6.64418e-01,9.99999e-01
8.203003262e-01,6.69802e-01,9.99999e-01,9.99999e-01,9.99994e-01,6.69805e-01,9.99999e-01
8.244018279e-01,6.75129e-01,9.99999e-01,9.99999e-01,9.99999e-01,6.75129e-01,9.99999e-01
8.285238370e-01,6.80388e-01,9.99999e-01,9.99999e-01,9.99999e-01,6.80388e-01,9.99999e-01
8.326664562e-01,6.85583e-01,9.99999e-01,9.99999e-01,9.99999e-01,6.85583e-01,9.99999e-01
8.368297885e-01,6.90714e-01,9.99999e-01,9.99999e-01,9.99999e-01,6.90714e-01,9.99999e-01
8.410139374e-01,6.95781e-01,9.99999e-01,9.99999e-01,9.99999e-01,6.95781e-01,9.99999e-01
8.452190071e-01,7.00784e-01,9.99999e-01,9.99999e-01,9.99999e-01,7.00784e-01,9.99999e-01
8.494451021e-01,7.05723e-01,9.99999e-01,9.99999e-01,9.99999e-01,7.05723e-01,9.99999e-01
8.536923276e-01,7.10598e-01,9.99999e-01,9.99999e-01,9.99999e-01,7.10598e-01,9.99999e-01
8.579607893e-01,7.15410e-01,9.99999e-01,9.99999e-01,9.99999e-01,7.15410e-01,9.99999e-01
8.622505932e-01,7.20158e-01,9.99999e-01,9.99999e-01,9.99999e-01,7.20158e-01,9.99999e-01
8.665618462e-01,6.82285e-01,9.99999e-01,9.99999e-01,9.41286e-01,7.24843e-01,9.99999e-01
8.708946554e-01,5.60632e-01,9.99999e-01,9.99999e-01,7.68552e-01,7.29465e-01,9.99999e-01
8.752491287e-01,5.94958e-01,9.99999e-01,9.99999e-01,8.10542e-01,7.34024e-01,9.99999e-01
8.796253743e-01,6.58583e-01,9.99999e-01,9.99999e-01,8.91759e-01,7.38521e-01,9.99999e-01
8.840235012e-01,7.00242e-01,9.99999e-01,9.99999e-01,9.42507e-01,7.42956e-01,9.99999e-01
8.884436187e-01,7.30142e-01,9.99999e-01,9.99999e-01,9.77002e-01,7.47329e-01,9.99999e-01
8.928858368e-01,7.44591e-01,9.99999e-01,9.99999e-01,9.90620e-01,7.51641e-01,9.99999e-01
8.973502660e-01,7.54169e-01,9.99999e-01,9.99999e-01,9.97720e-01,7.55891e-01,9.99999e-01
9.018370173e-01,7.59891e-01,9.99999e-01,9.99999e-01,9.99748e-01,7.60081e-01,9.99999e-01
9.063462024e-01,7.59207e-01,9.99999e-01,9.99999e-01,9.93451e-01,7.64211e-01,9.99999e-01
9.108779334e-01,7.56923e-01,9.99999e-01,9.99999e-01,9.85215e-01,7.68281e-01,9.99999e-01
9.154323231e-01,7.69611e-01,9.99999e-01,9.99999e-01,9.96527e-01,7.72292e-01,9.99999e-01
9.200094847e-01,7.36649e-01,9.99999e-01,9.99999e-01,9.48992e-01,7.76244e-01,9.99999e-01
9.246095321e-01,7.25201e-01,9.99999e-01,9.99999e-01,9.29581e-01,7.80137e-01,9.99999e-01
9.292325798e-01,7.40038e-01,9.99999e-01,9.99999e-01,9.43959e-01,7.83972e-01,9.99999e-01
9.338787427e-01,7.45310e-01,9.99999e-01,9.99999e-01,9.46124e-01,7.87750e-01,9.99999e-01
9.385481364e-01,7.59949e-01,9.99999e-01,9.99999e-01,9.60171e-01,7.91471e-01,9.99999e-01
9.432408771e-01,7.75640e-01,9.99999e-01,9.99999e-01,9.75481e-01,7.95136e-01,9.99999e-01
9.479570815e-01,7.88630e-01,9.99999e-01,9.99999e-01,9.87336e-01,7.98744e-01,9.99999e-01
9.526968669e-01,7.97388e-01,9.99999e-01,9.99999e-01,9.93880e-01,8.02298e-01,9.99999e-01
9.574603512e-01,8.03685e-01,9.99999e-01,9.99999e-01,9.97380e-01,8.05796e-01,9.99999e-01
9.622476530e-01,8.08579e-01,9.99999e-01,9.99999e-01,9.99182e-01,8.09240e-01,9.99999e-01
9.670588912e-01,8.12432e-01,9.99999e-01,9.99999e-01,9.99755e-01,8.12630e-01,9.99999e-01
9.718941857e-01,8.15954e-01,9.99999e-01,9.99999e-01,9.99982e-01,8.15967e-01,9.99999e-01
9.767536566e-01,8.19252e-01,9.99999e-01,9.99999e-01,9.99999e-01,8.19252e-01,9.99999e-01
9.816374249e-01,8.22485e-01,9.99999e-01,9.99999e-01,9.99999e-01,8.22485e-01,9.99999e-01
9.865456120e-01,8.25666e-01,9.99999e-01,9.99999e-01,9.99999e-01,8.25666e-01,9.99999e-01
9.914783401e-01,8.28796e-01,9.99999e-01,9.99999e-01,9.99999e-01,8.28796e-01,9.99999e-01
9.964357318e-01,8.31875e-01,9.99999e-01,9.99999e-01,9.99999e-01,8.31875e-01,9.99999e-01
1.001417910e+00,8.34906e-01,9.99999e-01,9.99999e-01,9.99999e-01,8.34906e-01,9.99999e-01
1.006425000e+00,8.37887e-01,9.99999e-01,9.99999e-01,9.99999e-01,8.37887e-01,9.99999e-01
1.011457125e+00,8.40819e-01,9.99999e-01,9.99999e-01,9.99999e-01,8.40819e-01,9.99999e-01
1.016514411e+00,8.43703e-01,9.99999e-01,9.99999e-01,9.99999e-01,8.43703e-01,9.99999e-01
1.021596983e+00,8.46509e-01,9.99999e-01,9.99999e-01,9.99962e-01,8.46540e-01,9.99999e-01
1.026704968e+00,8.47161e-01,9.99999e-01,9.99999e-01,9.97444e-01,8.49331e-01,9.99999e-01
1.031838492e+00,8.22291e-01,9.99999e-01,9.99999e-01,9.65044e-01,8.52075e-01,9.99999e-01
1.036997685e+00,1.85633e-01,9.99999e-01,9.99999e-01,2.17172e-01,8.54773e-01,9.99999e-01
1.042182673e+00,1.97903e-01,9.99999e-01,9.99999e-01,2.30810e-01,8.57427e-01,9.99999e-01
1.047393587e+00,1.99056e-01,9.99999e-01,9.99999e-01,2.31451e-01,8.60036e-01,9.99999e-01
1.052630555e+00,1.57167e-02,9.99999e-01,9.99999e-01,1.82201e-02,8.62601e-01,9.99999e-01
1.057893707e+00,3.37527e-02,9.99999e-01,9.99999e-01,3.90148e-02,8.65123e-01,9.99999e-01
1.063183176e+00,8.11294e-02,9.99999e-01,9.99999e-01,9.35097e-02,8.67603e-01,9.99999e-01
1.068499092e+00,1.73717e-01,9.99999e-01,9.99999e-01,1.99666e-01,8.70040e-01,9.99999e-01
1.073841587e+00,3.16183e-01,9.99999e-01,9.99999e-01,3.62414e-01,8.72436e-01,9.99999e-01
1.079210795e+00,4.60538e-01,9.99999e-01,9.99999e-01,5.26455e-01,8.74790e-01,9.99999e-01
1.084606849e+00,6.17459e-01,9.99999e-01,9.99999e-01,7.03973e-01,8.77105e-01,9.99999e-01
1.090029883e+00,7.33060e-01,9.99999e-01,9.99999e-01,8.33609e-01,8.79380e-01,9.99999e-01
1.095480033e+00,8.06099e-01,9.99999e-01,9.99999e-01,9.14342e-01,8.81615e-01,9.99999e-01
1.100957433e+00,8.46521e-01,9.99999e-01,9.99999e-01,9.57806e-01,8.83812e-01,9.99999e-01
1.106462220e+00,8.70333e-01,9.99999e-01,9.99999e-01,9.82349e-01,8.85971e-01,9.99999e-01
1.111994531e+00,8.82251e-01,9.99999e-01,9.99999e-01,9.93422e-01,8.88092e-01,9.99999e-01
1.117554504e+00,8.88747e-01,9.99999e-01,9.99999e-01,9.98394e-01,8.90176e-01,9.99999e-01
1.123142276e+00,8.92131e-01,9.99999e-01,9.99999e-01,9.99894e-01,8.92224e-01,9.99999e-01
1.128757988e+00,8.94236e-01,9.99999e-01,9.99999e-01,9.99999e-01,8.94236e-01,9.99999e-01
1.134401778e+00,8.96213e-01,9.99999e-01,9.99999e-01,9.99999e-01,8.96213e-01,9.99999e-01
1.140073787e+00,8.98155e-01,9.99999e-01,9.99999e-01,9.99999e-01,8.98155e-01,9.99999e-01
1.145774156e+00,9.00062e-01,9.99999e-01,9.99999e-01,9.99999e-01,9.00062e-01,9.99999e-01
1.151503026e+00,9.01936e-01,9.99999e-01,9.99999e-01,9.99999e-01,9.01936e-01,9.99999e-01
1.157260541e+00,9.03777e-01,9.99999e-01,9.99999e-01,9.99999e-01,9.03777e-01,9.99999e-01
1.163046844e+00,9.05585e-01,9.99999e-01,9.99999e-01,9.99999e-01,9.05585e-01,9.99999e-01
1.168862078e+00,9.07361e-01,9.99999e-01,9.99999e-01,9.99999e-01,9.07361e-01,9.99999e-01
1.174706389e+00,9.09105e-01,9.99999e-01,9.99999e-01,9.99999e-01,9.09105e-01,9.99999e-01
1.180579921e+00,9.10817e-01,9.99999e-01,9.99999e-01,9.99999e-01,9.10817e-01,9.99999e-01
1.186482820e+00,9.12495e-01,9.99999e-01,9.99999e-01,9.99994e-01,9.12499e-01,9.99999e-01
1.192415234e+00,9.05778e-01,9.99999e-01,9.99999e-01,9.90839e-01,9.14151e-01,9.99999e-01
1.198377311e+00,5.23993e-01,9.99999e-01,9.99999e-01,5.72186e-01,9.15774e-01,9.99999e-01
1.204369197e+00,2.72323e-08,9.99999e-01,9.99999e-01,2.96853e-08,9.17366e-01,9.99999e-01
1.210391043e+00,3.31086e-28,9.99999e-01,9.99999e-01,3.60294e-28,9.18931e-01,9.99999e-01
1.216442998e+00,1.20654e-24,9.99999e-01,9.99999e-01,1.31079e-24,9.20466e-01,9.99999e-01
1.222525213e+00,2.68471e-24,9.99999e-01,9.99999e-01,2.91191e-24,9.21974e-01,9.99999e-01
1.228637839e+00,8.91518e-19,9.99999e-01,9.99999e-01,9.65415e-19,9.23455e-01,9.99999e-01
