#,Wave/freq,Total,N2,O2,CO2,Rayleigh,CIA
4.000000000e-01,2.17000e-04,9.99999e-01,9.99999e-01,9.99999e-01,2.17000e-04,9.99999e-01
4.020000000e-01,2.56389e-04,9.99999e-01,9.99999e-01,9.99999e-01,2.56389e-04,9.99999e-01
4.040100000e-01,3.01878e-04,9.99999e-01,9.99999e-01,9.99999e-01,3.01878e-04,9.99999e-01
4.060300500e-01,3.54294e-04,9.99999e-01,9.99999e-01,9.99999e-01,3.54294e-04,9.99999e-01
4.080602003e-01,4.14498e-04,9.99999e-01,9.99999e-01,9.99999e-01,4.14498e-04,9.99999e-01
4.101005013e-01,4.83431e-04,9.99999e-01,9.99999e-01,9.99999e-01,4.83431e-04,9.99999e-01
4.121510038e-01,5.62118e-04,9.99999e-01,9.99999e-01,9.99999e-01,5.62118e-04,9.99999e-01
4.142117588e-01,6.51668e-04,9.99999e-01,9.99999e-01,9.99999e-01,6.51668e-04,9.99999e-01
4.162828176e-01,7.53281e-04,9.99999e-01,9.99999e-01,9.99999e-01,7.53281e-04,9.99999e-01
4.183642317e-01,8.68251e-04,9.99999e-01,9.99999e-01,9.99999e-01,8.68251e-04,9.99999e-01
4.204560528e-01,9.97963e-04,9.99999e-01,9.99999e-01,9.99999e-01,9.97963e-04,9.99999e-01
4.225583331e-01,1.14390e-03,9.99999e-01,9.99999e-01,9.99999e-01,1.14390e-03,9.99999e-01
4.246711247e-01,1.30766e-03,9.99999e-01,9.99999e-01,9.99999e-01,1.30766e-03,9.99999e-01
4.267944804e-01,1.49090e-03,9.99999e-01,9.99999e-01,9.99999e-01,1.49090e-03,9.99999e-01
4.289284528e-01,1.69544e-03,9.99999e-01,9.99999e-01,9.99999e-01,1.69544e-03,9.99999e-01
4.310730950e-01,1.92313e-03,9.99999e-01,9.99999e-01,9.99999e-01,1.92313e-03,9.99999e-01
4.332284605e-01,2.17599e-03,9.99999e-01,9.99999e-01,9.99999e-01,2.17599e-03,9.99999e-01
4.353946028e-01,2.45609e-03,9.99999e-01,9.99999e-01,9.99999e-01,2.45609e-03,9.99999e-01
4.375715758e-01,2.76563e-03,9.99999e-01,9.99999e-01,9.99999e-01,2.76563e-03,9.99999e-01
4.397594337e-01,3.10688e-03,9.99999e-01,9.99999e-01,9.99999e-01,3.10688e-03,9.99999e-01
4.419582309e-01,3.48223e-03,9.99999e-01,9.99999e-01,9.99999e-01,3.48223e-03,9.99999e-01
4.441680220e-01,3.89415e-03,9.99999e-01,9.99999e-01,9.99999e-01,3.89415e-03,9.99999e-01
4.463888621e-01,4.34518e-03,9.99999e-01,9.99999e-01,9.99999e-01,4.34518e-03,9.99999e-01
4.486208064e-01,4.83797e-03,9.99999e-01,9.99999e-01,9.99999e-01,4.83797e-03,9.99999e-01
4.508639105e-01,5.37522e-03,9.99999e-01,9.99999e-01,9.99999e-01,5.37522e-03,9.99999e-01
4.531182300e-01,5.95973e-03,9.99999e-01,9.99999e-01,9.99999e-01,5.95973e-03,9.99999e-01
4.553838212e-01,6.59434e-03,9.99999e-01,9.99999e-01,9.99999e-01,6.59434e-03,9.99999e-01
4.576607403e-01,7.28196e-03,9.99999e-01,9.99999e-01,9.99999e-01,7.28196e-03,9.99999e-01
4.599490440e-01,8.02554e-03,9.99999e-01,9.99999e-01,9.99999e-01,8.02554e-03,9.99999e-01
4.622487892e-01,8.82807e-03,9.99999e-01,9.99999e-01,9.99999e-01,8.82807e-03,9.99999e-01
4.645600332e-01,9.69260e-03,9.99999e-01,9.99999e-01,9.99999e-01,9.69260e-03,9.99999e-01
4.668828333e-01,1.06222e-02,9.99999e-01,9.99999e-01,9.99999e-01,1.06222e-02,9.99999e-01
4.692172475e-01,1.16198e-02,9.99999e-01,9.99999e-01,9.99999e-01,1.16198e-02,9.99999e-01
4.715633337e-01,1.26887e-02,9.99999e-01,9.99999e-01,9.99999e-01,1.26887e-02,9.99999e-01
4.739211504e-01,1.38318e-02,9.99999e-01,9.99999e-01,9.99999e-01,1.38318e-02,9.99999e-01
4.762907561e-01,1.50523e-02,9.99999e-01,9.99999e-01,9.99999e-01,1.50523e-02,9.99999e-01
4.786722099e-01,1.63530e-02,9.99999e-01,9.99999e-01,9.99999e-01,1.63530e-02,9.99999e-01
4.810655710e-01,1.77372e-02,9.99999e-01,9.99999e-01,9.99999e-01,1.77372e-02,9.99999e-01
4.834708988e-01,1.92076e-02,9.99999e-01,9.99999e-01,9.99999e-01,1.92076e-02,9.99999e-01
4.858882533e-01,2.07672e-02,9.99999e-01,9.99999e-01,9.99999e-01,2.07672e-02,9.99999e-01
4.883176946e-01,2.24189e-02,9.99999e-01,9.99999e-01,9.99999e-01,2.24189e-02,9.99999e-01
4.907592831e-01,2.41654e-02,9.99999e-01,9.99999e-01,9.99999e-01,2.41654e-02,9.99999e-01
4.932130795e-01,2.60094e-02,9.99999e-01,9.99999e-01,9.99999e-01,2.60094e-02,9.99999e-01
4.956791449e-01,2.79534e-02,9.99999e-01,9.99999e-01,9.99999e-01,2.79534e-02,9.99999e-01
4.981575406e-01,3.00001e-02,9.99999e-01,9.99999e-01,9.99999e-01,3.00001e-02,9.99999e-01
5.006483283e-01,3.21516e-02,9.99999e-01,9.99999e-01,9.99999e-01,3.21516e-02,9.99999e-01
5.031515699e-01,3.44104e-02,9.99999e-01,9.99999e-01,9.99999e-01,3.44104e-02,9.99999e-01
5.056673278e-01,3.67784e-02,9.99999e-01,9.99999e-01,9.99999e-01,3.67784e-02,9.99999e-01
5.081956644e-01,3.92578e-02,9.99999e-01,9.99999e-01,9.99999e-01,3.92578e-02,9.99999e-01
5.107366428e-01,4.18504e-02,9.99999e-01,9.99999e-01,9.99999e-01,4.18504e-02,9.99999e-01
5.132903260e-01,4.45579e-02,9.99999e-01,9.99999e-01,9.99999e-01,4.45579e-02,9.99999e-01
5.158567776e-01,4.73818e-02,9.99999e-01,9.99999e-01,9.99999e-01,4.73818e-02,9.99999e-01
5.184360615e-01,5.03236e-02,9.99999e-01,9.99999e-01,9.99999e-01,5.03236e-02,9.99999e-01
5.210282418e-01,5.33844e-02,9.99999e-01,9.99999e-01,9.99999e-01,5.33844e-02,9.99999e-01
5.236333830e-01,5.65655e-02,9.99999e-01,9.99999e-01,9.99999e-01,5.65655e-02,9.99999e-01
5.262515499e-01,5.98676e-02,9.99999e-01,9.99999e-01,9.99999e-01,5.98676e-02,9.99999e-01
5.288828077e-01,6.32915e-02,9.99999e-01,9.99999e-01,9.99999e-01,6.32915e-02,9.99999e-01
5.315272217e-01,6.68377e-02,9.99999e-01,9.99999e-01,9.99999e-01,6.68377e-02,9.99999e-01
5.341848578e-01,7.05067e-02,9.99999e-01,9.99999e-01,9.99999e-01,7.05067e-02,9.99999e-01
5.368557821e-01,7.42986e-02,9.99999e-01,9.99999e-01,9.99999e-01,7.42986e-02,9.99999e-01
5.395400610e-01,7.82135e-02,9.99999e-01,9.99999e-01,9.99999e-01,7.82135e-02,9.99999e-01
5.422377613e-01,8.22511e-02,9.99999e-01,9.99999e-01,9.99999e-01,8.22511e-02,9.99999e-01
5.449489501e-01,8.64113e-02,9.99999e-01,9.99999e-01,9.99999e-01,8.64113e-02,9.99999e-01
5.476736949e-01,9.06934e-02,9.99999e-01,9.99999e-01,9.99999e-01,9.06934e-02,9.99999e-01
5.504120634e-01,9.50969e-02,9.99999e-01,9.99999e-01,9.99999e-01,9.50969e-02,9.99999e-01
5.531641237e-01,9.96208e-02,9.99999e-01,9.99999e-01,9.99999e-01,9.96208e-02,9.99999e-01
5.559299443e-01,1.04264e-01,9.99999e-01,9.99999e-01,9.99999e-01,1.04264e-01,9.99999e-01
5.587095940e-01,1.09026e-01,9.99999e-01,9.99999e-01,9.99999e-01,1.09026e-01,9.99999e-01
5.615031420e-01,1.13904e-01,9.99999e-01,9.99999e-01,9.99999e-01,1.13904e-01,9.99999e-01
5.643106577e-01,1.18898e-01,9.99999e-01,9.99999e-01,9.99999e-01,1.18898e-01,9.99999e-01
5.671322110e-01,1.24006e-01,9.99999e-01,9.99999e-01,9.99999e-01,1.24006e-01,9.99999e-01
5.699678720e-01,1.29226e-01,9.99999e-01,9.99999e-01,9.99999e-01,1.29226e-01,9.99999e-01
5.728177114e-01,1.34556e-01,9.99999e-01,9.99999e-01,9.99999e-01,1.34556e-01,9.99999e-01
5.756818000e-01,1.39994e-01,9.99999e-01,9.99999e-01,9.99999e-01,1.39994e-01,9.99999e-01
5.785602090e-01,1.45538e-01,9.99999e-01,9.99999e-01,9.99999e-01,1.45538e-01,9.99999e-01
5.814530100e-01,1.51185e-01,9.99999e-01,9.99999e-01,9.99999e-01,1.51185e-01,9.99999e-01
5.843602750e-01,1.56934e-01,9.99999e-01,9.99999e-01,9.99999e-01,1.56934e-01,9.99999e-01
5.872820764e-01,1.62781e-01,9.99999e-01,9.99999e-01,9.99999e-01,1.62781e-01,9.99999e-01
5.902184868e-01,1.68724e-01,9.99999e-01,9.99999e-01,9.99999e-01,1.68724e-01,9.99999e-01
5.931695792e-01,1.74760e-01,9.99999e-01,9.99999e-01,9.99999e-01,1.74760e-01,9.99999e-01
5.961354271e-01,1.80886e-01,9.99999e-01,9.99999e-01,9.99999e-01,1.80886e-01,9.99999e-01
5.991161043e-01,1.87099e-01,9.99999e-01,9.99999e-01,9.99999e-01,1.87099e-01,9.99999e-01
6.021116848e-01,1.93398e-01,9.99999e-01,9.99999e-01,9.99999e-01,1.93398e-01,9.99999e-01
6.051222432e-01,1.99777e-01,9.99999e-01,9.99999e-01,9.99999e-01,1.99777e-01,9.99999e-01
6.081478544e-01,2.06234e-01,9.99999e-01,9.99999e-01,9.99999e-01,2.06234e-01,9.99999e-01
6.111885937e-01,2.12767e-01,9.99999e-01,9.99999e-01,9.99999e-01,2.12767e-01,9.99999e-01
6.142445367e-01,2.19371e-01,9.99999e-01,9.99999e-01,9.99999e-01,2.19371e-01,9.99999e-01
6.173157594e-01,2.26044e-01,9.99999e-01,9.99999e-01,9.99999e-01,2.26044e-01,9.99999e-01
6.204023382e-01,2.32782e-01,9.99999e-01,9.99999e-01,9.99999e-01,2.32782e-01,9.99999e-01
6.235043498e-01,2.39582e-01,9.99999e-01,9.99999e-01,9.99999e-01,2.39582e-01,9.99999e-01
6.266218716e-01,2.46440e-01,9.99999e-01,9.99999e-01,9.99999e-01,2.46440e-01,9.99999e-01
6.297549810e-01,2.53353e-01,9.99999e-01,9.99999e-01,9.99999e-01,2.53353e-01,9.99999e-01
6.329037559e-01,2.60318e-01,9.99999e-01,9.99999e-01,9.99999e-01,2.60318e-01,9.99999e-01
6.360682746e-01,2.67331e-01,9.99999e-01,9.99999e-01,9.99999e-01,2.67331e-01,9.99999e-01
6.392486160e-01,2.74389e-01,9.99999e-01,9.99999e-01,9.99999e-01,2.74389e-01,9.99999e-01
6.424448591e-01,2.81488e-01,9.99999e-01,9.99999e-01,9.99999e-01,2.81488e-01,9.99999e-01
6.456570834e-01,2.88626e-01,9.99999e-01,9.99999e-01,9.99999e-01,2.88626e-01,9.99999e-01
6.488853688e-01,2.95797e-01,9.99999e-01,9.99999e-01,9.99999e-01,2.95797e-01,9.99999e-01
6.521297956e-01,3.03001e-01,9.99999e-01,9.99999e-01,9.99999e-01,3.03001e-01,9.99999e-01
6.553904446e-01,3.10232e-01,9.99999e-01,9.99999e-01,9.99999e-01,3.10232e-01,9.99999e-01
6.586673968e-01,3.17488e-01,9.99999e-01,9.99999e-01,9.99999e-01,3.17488e-01,9.99999e-01
6.619607338e-01,3.24765e-01,9.99999e-01,9.99999e-01,9.99999e-01,3.24765e-01,9.99999e-01
6.652705375e-01,3.32060e-01,9.99999e-01,9.99999e-01,9.99999e-01,3.32060e-01,9.99999e-01
6.685968902e-01,3.39370e-01,9.99999e-01,9.99999e-01,9.99999e-01,3.39370e-01,9.99999e-01
6.719398746e-01,3.46692e-01,9.99999e-01,9.99999e-01,9.99999e-01,3.46692e-01,9.99999e-01
6.752995740e-01,3.54023e-01,9.99999e-01,9.99999e-01,9.99999e-01,3.54023e-01,9.99999e-01
6.786760719e-01,3.61359e-01,9.99999e-01,9.99999e-01,9.99999e-01,3.61359e-01,9.99999e-01
6.820694522e-01,3.68698e-01,9.99999e-01,9.99999e-01,9.99999e-01,3.68698e-01,9.99999e-01
6.854797995e-01,3.76037e-01,9.99999e-01,9.99999e-01,9.99999e-01,3.76037e-01,9.99999e-01
6.889071985e-01,3.83372e-01,9.99999e-01,9.99999e-01,9.99999e-01,3.83372e-01,9.99999e-01
6.923517345e-01,3.90701e-01,9.99999e-01,9.99999e-01,9.99999e-01,3.90701e-01,9.99999e-01
6.958134932e-01,3.98022e-01,9.99999e-01,9.99999e-01,9.99999e-01,3.98022e-01,9.99999e-01
6.992925606e-01,4.05331e-01,9.99999e-01,9.99999e-01,9.99999e-01,4.05331e-01,9.99999e-01
7.027890234e-01,4.12626e-01,9.99999e-01,9.99999e-01,9.99999e-01,4.12626e-01,9.99999e-01
7.063029686e-01,4.19904e-01,9.99999e-01,9.99999e-01,9.99999e-01,4.19904e-01,9.99999e-01
7.098344834e-01,4.27163e-01,9.99999e-01,9.99999e-01,9.99999e-01,4.27163e-01,9.99999e-01
7.133836558e-01,4.34401e-01,9.99999e-01,9.99999e-01,9.99999e-01,4.34401e-01,9.99999e-01
7.169505741e-01,4.41614e-01,9.99999e-01,9.99999e-01,9.99999e-01,4.41614e-01,9.99999e-01
7.205353270e-01,4.48802e-01,9.99999e-01,9.99999e-01,9.99999e-01,4.48802e-01,9.99999e-01
7.241380036e-01,4.55961e-01,9.99999e-01,9.99999e-01,9.99999e-01,4.55961e-01,9.99999e-01
7.277586936e-01,4.63089e-01,9.99999e-01,9.99999e-01,9.99999e-01,4.63089e-01,9.99999e-01
7.313974871e-01,4.70184e-01,9.99999e-01,9.99999e-01,9.99999e-01,4.70184e-01,9.99999e-01
7.350544745e-01,4.77245e-01,9.99999e-01,9.99999e-01,9.99999e-01,4.77245e-01,9.99999e-01
7.387297469e-01,4.84270e-01,9.99999e-01,9.99999e-01,9.99999e-01,4.84270e-01,9.99999e-01
7.424233956e-01,4.91256e-01,9.99999e-01,9.99999e-01,9.99999e-01,4.91256e-01,9.99999e-01
7.461355126e-01,4.98202e-01,9.99999e-01,9.99999e-01,9.99999e-01,4.98202e-01,9.99999e-01
7.498661902e-01,5.05106e-01,9.99999e-01,9.99999e-01,9.99999e-01,5.05106e-01,9.99999e-01
7.536155211e-01,5.11966e-01,9.99999e-01,9.99999e-01,9.99999e-01,5.11966e-01,9.99999e-01
7.573835987e-01,5.18781e-01,9.99999e-01,9.99999e-01,9.99999e-01,5.18781e-01,9.99999e-01
7.611705167e-01,5.25550e-01,9.99999e-01,9.99999e-01,9.99999e-01,5.25550e-01,9.99999e-01
7.649763693e-01,5.32271e-01,9.99999e-01,9.99999e-01,9.99999e-01,5.32271e-01,9.99999e-01
7.688012511e-01,5.38942e-01,9.99999e-01,9.99999e-01,9.99999e-01,5.38942e-01,9.99999e-01
7.726452574e-01,5.45563e-01,9.99999e-01,9.99999e-01,9.99999e-01,5.45563e-01,9.99999e-01
7.765084837e-01,5.52132e-01,9.99999e-01,9.99999e-01,9.99999e-01,5.52132e-01,9.99999e-01
7.803910261e-01,5.43509e-01,9.99999e-01,9.99999e-01,9.72900e-01,5.58648e-01,9.99999e-01
7.842929812e-01,5.00215e-01,9.99999e-01,9.99999e-01,8.85164e-01,5.65110e-01,9.99999e-01
7.882144461e-01,5.01615e-01,9.99999e-01,9.99999e-01,8.77690e-01,5.71516e-01,9.99999e-01
7.921555184e-01,5.35789e-01,9.99999e-01,9.99999e-01,9.27184e-01,5.77867e-01,9.99999e-01
7.961162960e-01,5.55280e-01,9.99999e-01,9.99999e-01,9.50559e-01,5.84161e-01,9.99999e-01
8.000968774e-01,5.74409e-01,9.99999e-01,9.99999e-01,9.72919e-01,5.90397e-01,9.99999e-01
8.040973618e-01,5.88139e-01,9.99999e-01,9.99999e-01,9.85860e-01,5.96574e-01,9.99999e-01
8.081178486e-01,5.98774e-01,9.99999e-01,9.99999e-01,9.93497e-01,6.02692e-01,9.99999e-01
8.121584379e-01,6.07522e-01,9.99999e-01,9.99999e-01,9.97980e-01,6.08750e-01,9.99999e-01
8.162192301e-01,6.14474e-01,9.99999e-01,9.99999e-01,9.99553e-01,6.14748e-01,9.99999e-01
8.203003262e-01,6.20680e-01,9.99999e-01,9.99999e-01,9.99992e-01,6.20684e-01,9.99999e-01
8.244018279e-01,6.26559e-01,9.99999e-01,9.99999e-01,9.99999e-01,6.26559e-01,9.99999e-01
8.285238370e-01,6.32372e-01,9.99999e-01,9.99999e-01,9.99999e-01,6.32372e-01,9.99999e-01
8.326664562e-01,6.38122e-01,9.99999e-01,9.99999e-01,9.99999e-01,6.38122e-01,9.99999e-01
8.368297885e-01,6.43810e-01,9.99999e-01,9.99999e-01,9.99999e-01,6.43810e-01,9.99999e-01
8.410139374e-01,6.49434e-01,9.99999e-01,9.99999e-01,9.99999e-01,6.49434e-01,9.99999e-01
8.452190071e-01,6.54995e-01,9.99999e-01,9.99999e-01,9.99999e-01,6.54995e-01,9.99999e-01
8.494451021e-01,6.60492e-01,9.99999e-01,9.99999e-01,9.99999e-01,6.60492e-01,9.99999e-01
8.536923276e-01,6.65926e-01,9.99999e-01,9.99999e-01,9.99999e-01,6.65926e-01,9.99999e-01
8.579607893e-01,6.71295e-01,9.99999e-01,9.99999e-01,9.99999e-01,6.71295e-01,9.99999e-01
8.622505932e-01,6.76601e-01,9.99999e-01,9.99999e-01,9.99999e-01,6.76601e-01,9.99999e-01
8.665618462e-01,6.38201e-01,9.99999e-01,9.99999e-01,9.35995e-01,6.81842e-01,9.99999e-01
8.708946554e-01,5.03435e-01,9.99999e-01,9.99999e-01,7.32780e-01,6.87019e-01,9.99999e-01
8.752491287e-01,5.39200e-01,9.99999e-01,9.99999e-01,7.79041e-01,6.92132e-01,9.99999e-01
8.796253743e-01,6.08119e-01,9.99999e-01,9.99999e-01,8.72253e-01,6.97181e-01,9.99999e-01
8.840235012e-01,6.54232e-01,9.99999e-01,9.99999e-01,9.31733e-01,7.02167e-01,9.99999e-01
8.884436187e-01,6.87644e-01,9.99999e-01,9.99999e-01,9.72501e-01,7.07088e-01,9.99999e-01
8.928858368e-01,7.03962e-01,9.99999e-01,9.99999e-01,9.88786e-01,7.11945e-01,9.99999e-01
8.973502660e-01,7.14775e-01,9.99999e-01,9.99999e-01,9.97259e-01,7.16739e-01,9.99999e-01
9.018370173e-01,7.21251e-01,9.99999e-01,9.99999e-01,9.99697e-01,7.21470e-01,9.99999e-01
9.063462024e-01,7.20577e-01,9.99999e-01,9.99999e-01,9.92342e-01,7.26137e-01,9.99999e-01
9.108779334e-01,7.17858e-01,9.99999e-01,9.99999e-01,9.82368e-01,7.30742e-01,9.99999e-01
9.154323231e-01,7.32210e-01,9.99999e-01,9.99999e-01,9.95819e-01,7.35283e-01,9.99999e-01
9.200094847e-01,6.95903e-01,9.99999e-01,9.99999e-01,9.40710e-01,7.39763e-01,9.99999e-01
9.246095321e-01,6.82108e-01,9.99999e-01,9.99999e-01,9.16588e-01,7.44181e-01,9.99999e-01
9.292325798e-01,6.99261e-01,9.99999e-01,9.99999e-01,9.34170e-01,7.48537e-01,9.99999e-01
9.338787427e-01,7.04740e-01,9.99999e-01,9.99999e-01,9.36119e-01,7.52831e-01,9.99999e-01
9.385481364e-01,7.21260e-01,9.99999e-01,9.99999e-01,9.52704e-01,7.57065e-01,9.99999e-01
9.432408771e-01,7.38980e-01,9.99999e-01,9.99999e-01,9.70760e-01,7.61238e-01,9.99999e-01
9.479570815e-01,7.53803e-01,9.99999e-01,9.99999e-01,9.84910e-01,7.65351e-01,9.99999e-01
9.526968669e-01,7.63781e-01,9.99999e-01,9.99999e-01,9.92690e-01,7.69405e-01,9.99999e-01
9.574603512e-01,7.70977e-01,9.99999e-01,9.99999e-01,9.96868e-01,7.73399e-01,9.99999e-01
9.622476530e-01,7.76574e-01,9.99999e-01,9.99999e-01,9.99021e-01,7.77334e-01,9.99999e-01
9.670588912e-01,7.80982e-01,9.99999e-01,9.99999e-01,9.99706e-01,7.81211e-01,9.99999e-01
9.718941857e-01,7.85014e-01,9.99999e-01,9.99999e-01,9.99978e-01,7.85031e-01,9.99999e-01
9.767536566e-01,7.88793e-01,9.99999e-01,9.99999e-01,9.99999e-01,7.88793e-01,9.99999e-01
9.816374249e-01,7.92498e-01,9.99999e-01,9.99999e-01,9.99999e-01,7.92498e-01,9.99999e-01
9.865456120e-01,7.96147e-01,9.99999e-01,9.99999e-01,9.99999e-01,7.96147e-01,9.99999e-01
9.914783401e-01,7.99740e-01,9.99999e-01,9.99999e-01,9.99999e-01,7.99740e-01,9.99999e-01
9.964357318e-01,8.03278e-01,9.99999e-01,9.99999e-01,9.99999e-01,8.03278e-01,9.99999e-01
1.001417910e+00,8.06761e-01,9.99999e-01,9.99999e-01,9.99999e-01,8.06761e-01,9.99999e-01
1.006425000e+00,8.10190e-01,9.99999e-01,9.99999e-01,9.99999e-01,8.10190e-01,9.99999e-01
1.011457125e+00,8.13566e-01,9.99999e-01,9.99999e-01,9.99999e-01,8.13566e-01,9.99999e-01
1.016514411e+00,8.16888e-01,9.99999e-01,9.99999e-01,9.99999e-01,8.16888e-01,9.99999e-01
1.021596983e+00,8.20126e-01,9.99999e-01,9.99999e-01,9.99960e-01,8.20158e-01,9.99999e-01
1.026704968e+00,8.20921e-01,9.99999e-01,9.99999e-01,9.97018e-01,8.23376e-01,9.99999e-01
1.031838492e+00,7.96110e-01,9.99999e-01,9.99999e-01,9.63179e-01,8.26543e-01,9.99999e-01
1.036997685e+00,1.55664e-01,9.99999e-01,9.99999e-01,1.87624e-01,8.29659e-01,9.99999e-01
1.042182673e+00,1.47698e-01,9.99999e-01,9.99999e-01,1.77367e-01,8.32725e-01,9.99999e-01
1.047393587e+00,1.60009e-01,9.99999e-01,9.99999e-01,1.91457e-01,8.35741e-01,9.99999e-01
1.052630555e+00,8.28448e-03,9.99999e-01,9.99999e-01,9.87765e-03,8.38709e-01,9.99999e-01
1.057893707e+00,1.89439e-02,9.99999e-01,9.99999e-01,2.25087e-02,8.41628e-01,9.99999e-01
1.063183176e+00,5.23002e-02,9.99999e-01,9.99999e-01,6.19304e-02,8.44499e-01,9.99999e-01
1.068499092e+00,1.25972e-01,9.99999e-01,9.99999e-01,1.48671e-01,8.47323e-01,9.99999e-01
1.073841587e+00,2.54826e-01,9.99999e-01,9.99999e-01,2.99759e-01,8.50100e-01,9.99999e-01
1.079210795e+00,3.98028e-01,9.99999e-01,9.99999e-01,4.66713e-01,8.52831e-01,9.99999e-01
1.084606849e+00,5.63020e-01,9.99999e-01,9.99999e-01,6.58104e-01,8.55517e-01,9.99999e-01
1.090029883e+00,6.90840e-01,9.99999e-01,9.99999e-01,8.05025e-01,8.58158e-01,9.99999e-01
1.095480033e+00,7.73504e-01,9.99999e-01,9.99999e-01,8.98633e-01,8.60755e-01,9.99999e-01
1.100957433e+00,8.20013e-01,9.99999e-01,9.99999e-01,9.49848e-01,8.63308e-01,9.99999e-01
1.106462220e+00,8.47587e-01,9.99999e-01,9.99999e-01,9.78942e-01,8.65818e-01,9.99999e-01
1.111994531e+00,8.61466e-01,9.99999e-01,9.99999e-01,9.92144e-01,8.68286e-01,9.99999e-01
1.117554504e+00,8.69034e-01,9.99999e-01,9.99999e-01,9.98073e-01,8.70712e-01,9.99999e-01
1.123142276e+00,8.72985e-01,9.99999e-01,9.99999e-01,9.99872e-01,8.73096e-01,9.99999e-01
1.128757988e+00,8.75439e-01,9.99999e-01,9.99999e-01,9.99999e-01,8.75439e-01,9.99999e-01
1.134401778e+00,8.77743e-01,9.99999e-01,9.99999e-01,9.99999e-01,8.77743e-01,9.99999e-01
1.140073787e+00,8.80007e-01,9.99999e-01,9.99999e-01,9.99999e-01,8.80007e-01,9.99999e-01
1.145774156e+00,8.82231e-01,9.99999e-01,9.99999e-01,9.99999e-01,8.82231e-01,9.99999e-01
1.151503026e+00,8.84417e-01,9.99999e-01,9.99999e-01,9.99999e-01,8.84417e-01,9.99999e-01
1.157260541e+00,8.86566e-01,9.99999e-01,9.99999e-01,9.99999e-01,8.86566e-01,9.99999e-01
1.163046844e+00,8.88677e-01,9.99999e-01,9.99999e-01,9.99999e-01,8.88677e-01,9.99999e-01
1.168862078e+00,8.90751e-01,9.99999e-01,9.99999e-01,9.99999e-01,8.90751e-01,9.99999e-01
1.174706389e+00,8.92789e-01,9.99999e-01,9.99999e-01,9.99999e-01,8.92789e-01,9.99999e-01
1.180579921e+00,8.94791e-01,9.99999e-01,9.99999e-01,9.99999e-01,8.94791e-01,9.99999e-01
1.186482820e+00,8.96753e-01,9.99999e-01,9.99999e-01,9.99994e-01,8.96758e-01,9.99999e-01
1.192415234e+00,8.89145e-01,9.99999e-01,9.99999e-01,9.89378e-01,8.98690e-01,9.99999e-01
1.198377311e+00,5.11433e-01,9.99999e-01,9.99999e-01,5.67888e-01,9.00588e-01,9.99999e-01
1.204369197e+00,1.94013e-09,9.99999e-01,9.99999e-01,2.14984e-09,9.02453e-01,9.99999e-01
1.210391043e+00,3.90624e-33,9.99999e-01,9.99999e-01,4.31970e-33,9.04284e-01,9.99999e-01
1.216442998e+00,6.74678e-29,9.99999e-01,9.99999e-01,7.44608e-29,9.06083e-01,9.99999e-01
1.222525213e+00,1.73481e-28,9.99999e-01,9.99999e-01,1.91090e-28,9.07850e-01,9.99999e-01
1.228637839e+00,4.80968e-22,9.99999e-01,9.99999e-01,5.28777e-22,9.09585e-01,9.99999e-01
