#,Wave/freq,Total,N2,O2,CO2,Rayleigh,CIA
4.000000000e-01,8.82528e-07,9.99999e-01,9.99999e-01,9.99999e-01,8.82528e-07,9.99999e-01
4.020000000e-01,1.16262e-06,9.99999e-01,9.99999e-01,9.99999e-01,1.16262e-06,9.99999e-01
4.040100000e-01,1.52285e-06,9.99999e-01,9.99999e-01,9.99999e-01,1.52285e-06,9.99999e-01
4.060300500e-01,1.98411e-06,9.99999e-01,9.99999e-01,9.99999e-01,1.98411e-06,9.99999e-01
4.080602003e-01,2.57159e-06,9.99999e-01,9.99999e-01,9.99999e-01,2.57159e-06,9.99999e-01
4.101005013e-01,3.31600e-06,9.99999e-01,9.99999e-01,9.99999e-01,3.31600e-06,9.99999e-01
4.121510038e-01,4.25448e-06,9.99999e-01,9.99999e-01,9.99999e-01,4.25448e-06,9.99999e-01
4.142117588e-01,5.43175e-06,9.99999e-01,9.99999e-01,9.99999e-01,5.43175e-06,9.99999e-01
4.162828176e-01,6.90141e-06,9.99999e-01,9.99999e-01,9.99999e-01,6.90141e-06,9.99999e-01
4.183642317e-01,8.72733e-06,9.99999e-01,9.99999e-01,9.99999e-01,8.72733e-06,9.99999e-01
4.204560528e-01,1.09853e-05,9.99999e-01,9.99999e-01,9.99999e-01,1.09853e-05,9.99999e-01
4.225583331e-01,1.37647e-05,9.99999e-01,9.99999e-01,9.99999e-01,1.37647e-05,9.99999e-01
4.246711247e-01,1.71708e-05,9.99999e-01,9.99999e-01,9.99999e-01,1.71708e-05,9.99999e-01
4.267944804e-01,2.13262e-05,9.99999e-01,9.99999e-01,9.99999e-01,2.13262e-05,9.99999e-01
4.289284528e-01,2.63742e-05,9.99999e-01,9.99999e-01,9.99999e-01,2.63742e-05,9.99999e-01
4.310730950e-01,3.24805e-05,9.99999e-01,9.99999e-01,9.99999e-01,3.24805e-05,9.99999e-01
4.332284605e-01,3.98363e-05,9.99999e-01,9.99999e-01,9.99999e-01,3.98363e-05,9.99999e-01
4.353946028e-01,4.86614e-05,9.99999e-01,9.99999e-01,9.99999e-01,4.86614e-05,9.99999e-01
4.375715758e-01,5.92070e-05,9.99999e-01,9.99999e-01,9.99999e-01,5.92070e-05,9.99999e-01
4.397594337e-01,7.17595e-05,9.99999e-01,9.99999e-01,9.99999e-01,7.17595e-05,9.99999e-01
4.419582309e-01,8.66435e-05,9.99999e-01,9.99999e-01,9.99999e-01,8.66435e-05,9.99999e-01
4.441680220e-01,1.04226e-04,9.99999e-01,9.99999e-01,9.99999e-01,1.04226e-04,9.99999e-01
4.463888621e-01,1.24920e-04,9.99999e-01,9.99999e-01,9.99999e-01,1.24920e-04,9.99999e-01
4.486208064e-01,1.49187e-04,9.99999e-01,9.99999e-01,9.99999e-01,1.49187e-04,9.99999e-01
4.508639105e-01,1.77546e-04,9.99999e-01,9.99999e-01,9.99999e-01,1.77546e-04,9.99999e-01
4.531182300e-01,2.10570e-04,9.99999e-01,9.99999e-01,9.99999e-01,2.10570e-04,9.99999e-01
4.553838212e-01,2.48896e-04,9.99999e-01,9.99999e-01,9.99999e-01,2.48896e-04,9.99999e-01
4.576607403e-01,2.93228e-04,9.99999e-01,9.99999e-01,9.99999e-01,2.93228e-04,9.99999e-01
4.599490440e-01,3.44339e-04,9.99999e-01,9.99999e-01,9.99999e-01,3.44339e-04,9.99999e-01
4.622487892e-01,4.03079e-04,9.99999e-01,9.99999e-01,9.99999e-01,4.03079e-04,9.99999e-01
4.645600332e-01,4.70372e-04,9.99999e-01,9.99999e-01,9.99999e-01,4.70372e-04,9.99999e-01
4.668828333e-01,5.47229e-04,9.99999e-01,9.99999e-01,9.99999e-01,5.47229e-04,9.99999e-01
4.692172475e-01,6.34744e-04,9.99999e-01,9.99999e-01,9.99999e-01,6.34744e-04,9.99999e-01
4.715633337e-01,7.34100e-04,9.99999e-01,9.99999e-01,9.99999e-01,7.34100e-04,9.99999e-01
4.739211504e-01,8.46572e-04,9.99999e-01,9.99999e-01,9.99999e-01,8.46572e-04,9.99999e-01
4.762907561e-01,9.73532e-04,9.99999e-01,9.99999e-01,9.99999e-01,9.73532e-04,9.99999e-01
4.786722099e-01,1.11645e-03,9.99999e-01,9.99999e-01,9.99999e-01,1.11645e-03,9.99999e-01
4.810655710e-01,1.27688e-03,9.99999e-01,9.99999e-01,9.99999e-01,1.27688e-03,9.99999e-01
4.834708988e-01,1.45650e-03,9.99999e-01,9.99999e-01,9.99999e-01,1.45650e-03,9.99999e-01
4.858882533e-01,1.65708e-03,9.99999e-01,9.99999e-01,9.99999e-01,1.65708e-03,9.99999e-01
4.883176946e-01,1.88047e-03,9.99999e-01,9.99999e-01,9.99999e-01,1.88047e-03,9.99999e-01
4.907592831e-01,2.12867e-03,9.99999e-01,9.99999e-01,9.99999e-01,2.12867e-03,9.99999e-01
4.932130795e-01,2.40372e-03,9.99999e-01,9.99999e-01,9.99999e-01,2.40372e-03,9.99999e-01
4.956791449e-01,2.70781e-03,9.99999e-01,9.99999e-01,9.99999e-01,2.70781e-03,9.99999e-01
4.981575406e-01,3.04320e-03,9.99999e-01,9.99999e-01,9.99999e-01,3.04320e-03,9.99999e-01
5.006483283e-01,3.41225e-03,9.99999e-01,9.99999e-01,9.99999e-01,3.41225e-03,9.99999e-01
5.031515699e-01,3.81741e-03,9.99999e-01,9.99999e-01,9.99999e-01,3.81741e-03,9.99999e-01
5.056673278e-01,4.26123e-03,9.99999e-01,9.99999e-01,9.99999e-01,4.26123e-03,9.99999e-01
5.081956644e-01,4.74633e-03,9.99999e-01,9.99999e-01,9.99999e-01,4.74633e-03,9.99999e-01
5.107366428e-01,5.27540e-03,9.99999e-01,9.99999e-01,9.99999e-01,5.27540e-03,9.99999e-01
5.132903260e-01,5.85122e-03,9.99999e-01,9.99999e-01,9.99999e-01,5.85122e-03,9.99999e-01
5.158567776e-01,6.47663e-03,9.99999e-01,9.99999e-01,9.99999e-01,6.47663e-03,9.99999e-01
5.184360615e-01,7.15452e-03,9.99999e-01,9.99999e-01,9.99999e-01,7.15452e-03,9.99999e-01
5.210282418e-01,7.88783e-03,9.99999e-01,9.99999e-01,9.99999e-01,7.88783e-03,9.99999e-01
5.236333830e-01,8.67956e-03,9.99999e-01,9.99999e-01,9.99999e-01,8.67956e-03,9.99999e-01
5.262515499e-01,9.53274e-03,9.99999e-01,9.99999e-01,9.99999e-01,9.53274e-03,9.99999e-01
5.288828077e-01,1.04504e-02,9.99999e-01,9.99999e-01,9.99999e-01,1.04504e-02,9.99999e-01
5.315272217e-01,1.14356e-02,9.99999e-01,9.99999e-01,9.99999e-01,1.14356e-02,9.99999e-01
5.341848578e-01,1.24915e-02,9.99999e-01,9.99999e-01,9.99999e-01,1.24915e-02,9.99999e-01
5.368557821e-01,1.36211e-02,9.99999e-01,9.99999e-01,9.99999e-01,1.36211e-02,9.99999e-01
5.395400610e-01,1.48274e-02,9.99999e-01,9.99999e-01,9.99999e-01,1.48274e-02,9.99999e-01
5.422377613e-01,1.61135e-02,9.99999e-01,9.99999e-01,9.99999e-01,1.61135e-02,9.99999e-01
5.449489501e-01,1.74825e-02,9.99999e-01,9.99999e-01,9.99999e-01,1.74825e-02,9.99999e-01
5.476736949e-01,1.89372e-02,9.99999e-01,9.99999e-01,9.99999e-01,1.89372e-02,9.99999e-01
5.504120634e-01,2.04806e-02,9.99999e-01,9.99999e-01,9.99999e-01,2.04806e-02,9.99999e-01
5.531641237e-01,2.21156e-02,9.99999e-01,9.99999e-01,9.99999e-01,2.21156e-02,9.99999e-01
5.559299443e-01,2.38449e-02,9.99999e-01,9.99999e-01,9.99999e-01,2.38449e-02,9.99999e-01
5.587095940e-01,2.56711e-02,9.99999e-01,9.99999e-01,9.99999e-01,2.56711e-02,9.99999e-01
5.615031420e-01,2.75971e-02,9.99999e-01,9.99999e-01,9.99999e-01,2.75971e-02,9.99999e-01
5.643106577e-01,2.96251e-02,9.99999e-01,9.99999e-01,9.99999e-01,2.96251e-02,9.99999e-01
5.671322110e-01,3.17576e-02,9.99999e-01,9.99999e-01,9.99999e-01,3.17576e-02,9.99999e-01
5.699678720e-01,3.39970e-02,9.99999e-01,9.99999e-01,9.99999e-01,3.39970e-02,9.99999e-01
5.728177114e-01,3.63453e-02,9.99999e-01,9.99999e-01,9.99999e-01,3.63453e-02,9.99999e-01
5.756818000e-01,3.88045e-02,9.99999e-01,9.99999e-01,9.99999e-01,3.88045e-02,9.99999e-01
5.785602090e-01,4.13767e-02,9.99999e-01,9.99999e-01,9.99999e-01,4.13767e-02,9.99999e-01
5.814530100e-01,4.40634e-02,9.99999e-01,9.99999e-01,9.99999e-01,4.40634e-02,9.99999e-01
5.843602750e-01,4.68663e-02,9.99999e-01,9.99999e-01,9.99999e-01,4.68663e-02,9.99999e-01
5.872820764e-01,4.97869e-02,9.99999e-01,9.99999e-01,9.99999e-01,4.97869e-02,9.99999e-01
5.902184868e-01,5.28263e-02,9.99999e-01,9.99999e-01,9.99999e-01,5.28263e-02,9.99999e-01
5.931695792e-01,5.59857e-02,9.99999e-01,9.99999e-01,9.99999e-01,5.59857e-02,9.99999e-01
5.961354271e-01,5.92660e-02,9.99999e-01,9.99999e-01,9.99999e-01,5.92660e-02,9.99999e-01
5.991161043e-01,6.26680e-02,9.99999e-01,9.99999e-01,9.99999e-01,6.26680e-02,9.99999e-01
6.021116848e-01,6.61922e-02,9.99999e-01,9.99999e-01,9.99999e-01,6.61922e-02,9.99999e-01
6.051222432e-01,6.98391e-02,9.99999e-01,9.99999e-01,9.99999e-01,6.98391e-02,9.99999e-01
6.081478544e-01,7.36090e-02,9.99999e-01,9.99999e-01,9.99999e-01,7.36090e-02,9.99999e-01
6.111885937e-01,7.75018e-02,9.99999e-01,9.99999e-01,9.99999e-01,7.75018e-02,9.99999e-01
6.142445367e-01,8.15174e-02,9.99999e-01,9.99999e-01,9.99999e-01,8.15174e-02,9.99999e-01
6.173157594e-01,8.56556e-02,9.99999e-01,9.99999e-01,9.99999e-01,8.56556e-02,9.99999e-01
6.204023382e-01,8.99159e-02,9.99999e-01,9.99999e-01,9.99999e-01,8.99159e-02,9.99999e-01
6.235043498e-01,9.42977e-02,9.99999e-01,9.99999e-01,9.99999e-01,9.42977e-02,9.99999e-01
6.266218716e-01,9.88000e-02,9.99999e-01,9.99999e-01,9.99999e-01,9.88000e-02,9.99999e-01
6.297549810e-01,1.03422e-01,9.99999e-01,9.99999e-01,9.99999e-01,1.03422e-01,9.99999e-01
6.329037559e-01,1.08163e-01,9.99999e-01,9.99999e-01,9.99999e-01,1.08163e-01,9.99999e-01
6.360682746e-01,1.13020e-01,9.99999e-01,9.99999e-01,9.99999e-01,1.13020e-01,9.99999e-01
6.392486160e-01,1.17994e-01,9.99999e-01,9.99999e-01,9.99999e-01,1.17994e-01,9.99999e-01
6.424448591e-01,1.23081e-01,9.99999e-01,9.99999e-01,9.99999e-01,1.23081e-01,9.99999e-01
6.456570834e-01,1.28281e-01,9.99999e-01,9.99999e-01,9.99999e-01,1.28281e-01,9.99999e-01
6.488853688e-01,1.33592e-01,9.99999e-01,9.99999e-01,9.99999e-01,1.33592e-01,9.99999e-01
6.521297956e-01,1.39010e-01,9.99999e-01,9.99999e-01,9.99999e-01,1.39010e-01,9.99999e-01
6.553904446e-01,1.44535e-01,9.99999e-01,9.99999e-01,9.99999e-01,1.44535e-01,9.99999e-01
6.586673968e-01,1.50164e-01,9.99999e-01,9.99999e-01,9.99999e-01,1.50164e-01,9.99999e-01
6.619607338e-01,1.55895e-01,9.99999e-01,9.99999e-01,9.99999e-01,1.55895e-01,9.99999e-01
6.652705375e-01,1.61724e-01,9.99999e-01,9.99999e-01,9.99999e-01,1.61724e-01,9.99999e-01
6.685968902e-01,1.67650e-01,9.99999e-01,9.99999e-01,9.99999e-01,1.67650e-01,9.99999e-01
6.719398746e-01,1.73669e-01,9.99999e-01,9.99999e-01,9.99999e-01,1.73669e-01,9.99999e-01
6.752995740e-01,1.79780e-01,9.99999e-01,9.99999e-01,9.99999e-01,1.79780e-01,9.99999e-01
6.786760719e-01,1.85978e-01,9.99999e-01,9.99999e-01,9.99999e-01,1.85978e-01,9.99999e-01
6.820694522e-01,1.92261e-01,9.99999e-01,9.99999e-01,9.99999e-01,1.92261e-01,9.99999e-01
6.854797995e-01,1.98626e-01,9.99999e-01,9.99999e-01,9.99999e-01,1.98626e-01,9.99999e-01
6.889071985e-01,2.05070e-01,9.99999e-01,9.99999e-01,9.99999e-01,2.05070e-01,9.99999e-01
6.923517345e-01,2.11589e-01,9.99999e-01,9.99999e-01,9.99999e-01,2.11589e-01,9.99999e-01
6.958134932e-01,2.18181e-01,9.99999e-01,9.99999e-01,9.99999e-01,2.18181e-01,9.99999e-01
6.992925606e-01,2.24842e-01,9.99999e-01,9.99999e-01,9.99999e-01,2.24842e-01,9.99999e-01
7.027890234e-01,2.31568e-01,9.99999e-01,9.99999e-01,9.99999e-01,2.31568e-01,9.99999e-01
7.063029686e-01,2.38357e-01,9.99999e-01,9.99999e-01,9.99999e-01,2.38357e-01,9.99999e-01
7.098344834e-01,2.45205e-01,9.99999e-01,9.99999e-01,9.99999e-01,2.45205e-01,9.99999e-01
7.133836558e-01,2.52108e-01,9.99999e-01,9.99999e-01,9.99999e-01,2.52108e-01,9.99999e-01
7.169505741e-01,2.59064e-01,9.99999e-01,9.99999e-01,9.99999e-01,2.59064e-01,9.99999e-01
7.205353270e-01,2.66069e-01,9.99999e-01,9.99999e-01,9.99999e-01,2.66069e-01,9.99999e-01
7.241380036e-01,2.73119e-01,9.99999e-01,9.99999e-01,9.99999e-01,2.73119e-01,9.99999e-01
7.277586936e-01,2.80211e-01,9.99999e-01,9.99999e-01,9.99999e-01,2.80211e-01,9.99999e-01
7.313974871e-01,2.87342e-01,9.99999e-01,9.99999e-01,9.99999e-01,2.87342e-01,9.99999e-01
7.350544745e-01,2.94508e-01,9.99999e-01,9.99999e-01,9.99999e-01,2.94508e-01,9.99999e-01
7.387297469e-01,3.01706e-01,9.99999e-01,9.99999e-01,9.99999e-01,3.01706e-01,9.99999e-01
7.424233956e-01,3.08932e-01,9.99999e-01,9.99999e-01,9.99999e-01,3.08932e-01,9.99999e-01
7.461355126e-01,3.16184e-01,9.99999e-01,9.99999e-01,9.99999e-01,3.16184e-01,9.99999e-01
7.498661902e-01,3.23457e-01,9.99999e-01,9.99999e-01,9.99999e-01,3.23457e-01,9.99999e-01
7.536155211e-01,3.30750e-01,9.99999e-01,9.99999e-01,9.99999e-01,3.30750e-01,9.99999e-01
7.573835987e-01,3.38057e-01,9.99999e-01,9.99999e-01,9.99999e-01,3.38057e-01,9.99999e-01
7.611705167e-01,3.45377e-01,9.99999e-01,9.99999e-01,9.99999e-01,3.45377e-01,9.99999e-01
7.649763693e-01,3.52707e-01,9.99999e-01,9.99999e-01,9.99999e-01,3.52707e-01,9.99999e-01
7.688012511e-01,3.60042e-01,9.99999e-01,9.99999e-01,9.99999e-01,3.60042e-01,9.99999e-01
7.726452574e-01,3.67381e-01,9.99999e-01,9.99999e-01,9.99999e-01,3.67381e-01,9.99999e-01
7.765084837e-01,3.74720e-01,9.99999e-01,9.99999e-01,9.99999e-01,3.74720e-01,9.99999e-01
7.803910261e-01,3.65003e-01,9.99999e-01,9.99999e-01,9.55364e-01,3.82056e-01,9.99999e-01
7.842929812e-01,3.19758e-01,9.99999e-01,9.99999e-01,8.21183e-01,3.89387e-01,9.99999e-01
7.882144461e-01,3.21000e-01,9.99999e-01,9.99999e-01,8.09158e-01,3.96709e-01,9.99999e-01
7.921555184e-01,3.56664e-01,9.99999e-01,9.99999e-01,8.82786e-01,4.04020e-01,9.99999e-01
7.961162960e-01,3.78542e-01,9.99999e-01,9.99999e-01,9.20314e-01,4.11318e-01,9.99999e-01
8.000968774e-01,4.00141e-01,9.99999e-01,9.99999e-01,9.55904e-01,4.18599e-01,9.99999e-01
8.040973618e-01,4.16062e-01,9.99999e-01,9.99999e-01,9.76987e-01,4.25862e-01,9.99999e-01
8.081178486e-01,4.28484e-01,9.99999e-01,9.99999e-01,9.89332e-01,4.33104e-01,9.99999e-01
8.121584379e-01,4.38879e-01,9.99999e-01,9.99999e-01,9.96722e-01,4.40322e-01,9.99999e-01
8.162192301e-01,4.47190e-01,9.99999e-01,9.99999e-01,9.99275e-01,4.47514e-01,9.99999e-01
8.203003262e-01,4.54673e-01,9.99999e-01,9.99999e-01,9.99989e-01,4.54678e-01,9.99999e-01
8.244018279e-01,4.61812e-01,9.99999e-01,9.99999e-01,9.99999e-01,4.61812e-01,9.99999e-01
8.285238370e-01,4.68913e-01,9.99999e-01,9.99999e-01,9.99999e-01,4.68913e-01,9.99999e-01
8.326664562e-01,4.75981e-01,9.99999e-01,9.99999e-01,9.99999e-01,4.75981e-01,9.99999e-01
8.368297885e-01,4.83012e-01,9.99999e-01,9.99999e-01,9.99999e-01,4.83012e-01,9.99999e-01
8.410139374e-01,4.90005e-01,9.99999e-01,9.99999e-01,9.99999e-01,4.90005e-01,9.99999e-01
8.452190071e-01,4.96958e-01,9.99999e-01,9.99999e-01,9.99999e-01,4.96958e-01,9.99999e-01
8.494451021e-01,5.03870e-01,9.99999e-01,9.99999e-01,9.99999e-01,5.03870e-01,9.99999e-01
8.536923276e-01,5.10738e-01,9.99999e-01,9.99999e-01,9.99999e-01,5.10738e-01,9.99999e-01
8.579607893e-01,5.17561e-01,9.99999e-01,9.99999e-01,9.99999e-01,5.17561e-01,9.99999e-01
8.622505932e-01,5.24339e-01,9.99999e-01,9.99999e-01,9.99999e-01,5.24339e-01,9.99999e-01
8.665618462e-01,4.83220e-01,9.99999e-01,9.99999e-01,9.09901e-01,5.31068e-01,9.99999e-01
8.708946554e-01,3.26348e-01,9.99999e-01,9.99999e-01,6.06878e-01,5.37748e-01,9.99999e-01
8.752491287e-01,3.63664e-01,9.99999e-01,9.99999e-01,6.68035e-01,5.44378e-01,9.99999e-01
8.796253743e-01,4.41036e-01,9.99999e-01,9.99999e-01,8.00490e-01,5.50957e-01,9.99999e-01
8.840235012e-01,4.96552e-01,9.99999e-01,9.99999e-01,8.90704e-01,5.57482e-01,9.99999e-01
8.884436187e-01,5.38883e-01,9.99999e-01,9.99999e-01,9.55544e-01,5.63954e-01,9.99999e-01
8.928858368e-01,5.59938e-01,9.99999e-01,9.99999e-01,9.81708e-01,5.70371e-01,9.99999e-01
8.973502660e-01,5.74165e-01,9.99999e-01,9.99999e-01,9.95550e-01,5.76731e-01,9.99999e-01
9.018370173e-01,5.82750e-01,9.99999e-01,9.99999e-01,9.99509e-01,5.83035e-01,9.99999e-01
9.063462024e-01,5.81700e-01,9.99999e-01,9.99999e-01,9.87133e-01,5.89282e-01,9.99999e-01
9.108779334e-01,5.78338e-01,9.99999e-01,9.99999e-01,9.71228e-01,5.95470e-01,9.99999e-01
9.154323231e-01,5.97530e-01,9.99999e-01,9.99999e-01,9.93236e-01,6.01599e-01,9.99999e-01
9.200094847e-01,5.50357e-01,9.99999e-01,9.99999e-01,9.05687e-01,6.07668e-01,9.99999e-01
9.246095321e-01,5.31958e-01,9.99999e-01,9.99999e-01,8.66837e-01,6.13676e-01,9.99999e-01
9.292325798e-01,5.53593e-01,9.99999e-01,9.99999e-01,8.93433e-01,6.19624e-01,9.99999e-01
9.338787427e-01,5.61373e-01,9.99999e-01,9.99999e-01,8.97465e-01,6.25509e-01,9.99999e-01
9.385481364e-01,5.83009e-01,9.99999e-01,9.99999e-01,9.23456e-01,6.31333e-01,9.99999e-01
9.432408771e-01,6.06828e-01,9.99999e-01,9.99999e-01,9.52492e-01,6.37095e-01,9.99999e-01
9.479570815e-01,6.26912e-01,9.99999e-01,9.99999e-01,9.75292e-01,6.42794e-01,9.99999e-01
9.526968669e-01,6.40672e-01,9.99999e-01,9.99999e-01,9.88035e-01,6.48429e-01,9.99999e-01
9.574603512e-01,6.50647e-01,9.99999e-01,9.99999e-01,9.94870e-01,6.54002e-01,9.99999e-01
9.622476530e-01,6.58455e-01,9.99999e-01,9.99999e-01,9.98399e-01,6.59510e-01,9.99999e-01
9.670588912e-01,6.64637e-01,9.99999e-01,9.99999e-01,9.99520e-01,6.64955e-01,9.99999e-01
9.718941857e-01,6.70314e-01,9.99999e-01,9.99999e-01,9.99966e-01,6.70336e-01,9.99999e-01
9.767536566e-01,6.75653e-01,9.99999e-01,9.99999e-01,9.99999e-01,6.75653e-01,9.99999e-01
9.816374249e-01,6.80906e-01,9.99999e-01,9.99999e-01,9.99999e-01,6.80906e-01,9.99999e-01
9.865456120e-01,6.86095e-01,9.99999e-01,9.99999e-01,9.99999e-01,6.86095e-01,9.99999e-01
9.914783401e-01,6.91219e-01,9.99999e-01,9.99999e-01,9.99999e-01,6.91219e-01,9.99999e-01
9.964357318e-01,6.96280e-01,9.99999e-01,9.99999e-01,9.99999e-01,6.96280e-01,9.99999e-01
1.001417910e+00,7.01277e-01,9.99999e-01,9.99999e-01,9.99999e-01,7.01277e-01,9.99999e-01
1.006425000e+00,7.06209e-01,9.99999e-01,9.99999e-01,9.99999e-01,7.06209e-01,9.99999e-01
1.011457125e+00,7.11078e-01,9.99999e-01,9.99999e-01,9.99999e-01,7.11078e-01,9.99999e-01
1.016514411e+00,7.15883e-01,9.99999e-01,9.99999e-01,9.99999e-01,7.15883e-01,9.99999e-01
1.021596983e+00,7.20570e-01,9.99999e-01,9.99999e-01,9.99923e-01,7.20625e-01,9.99999e-01
1.026704968e+00,7.21633e-01,9.99999e-01,9.99999e-01,9.94938e-01,7.25304e-01,9.99999e-01
1.031838492e+00,6.88513e-01,9.99999e-01,9.99999e-01,9.43272e-01,7.29920e-01,9.99999e-01
1.036997685e+00,8.55340e-02,9.99999e-01,9.99999e-01,1.16456e-01,7.34473e-01,9.99999e-01
1.042182673e+00,4.84079e-02,9.99999e-01,9.99999e-01,6.55077e-02,7.38964e-01,9.99999e-01
1.047393587e+00,6.59640e-02,9.99999e-01,9.99999e-01,8.87336e-02,7.43392e-01,9.99999e-01
1.052630555e+00,7.17561e-04,9.99999e-01,9.99999e-01,9.59614e-04,7.47759e-01,9.99999e-01
1.057893707e+00,2.13780e-03,9.99999e-01,9.99999e-01,2.84257e-03,7.52065e-01,9.99999e-01
1.063183176e+00,9.73471e-03,9.99999e-01,9.99999e-01,1.28713e-02,7.56310e-01,9.99999e-01
1.068499092e+00,3.46425e-02,9.99999e-01,9.99999e-01,4.55526e-02,7.60494e-01,9.99999e-01
1.073841587e+00,1.08456e-01,9.99999e-01,9.99999e-01,1.41844e-01,7.64618e-01,9.99999e-01
1.079210795e+00,2.23107e-01,9.99999e-01,9.99999e-01,2.90246e-01,7.68682e-01,9.99999e-01
1.084606849e+00,3.90020e-01,9.99999e-01,9.99999e-01,5.04758e-01,7.72686e-01,9.99999e-01
1.090029883e+00,5.44085e-01,9.99999e-01,9.99999e-01,7.00568e-01,7.76632e-01,9.99999e-01
1.095480033e+00,6.55071e-01,9.99999e-01,9.99999e-01,8.39274e-01,7.80520e-01,9.99999e-01
1.100957433e+00,7.20782e-01,9.99999e-01,9.99999e-01,9.18954e-01,7.84350e-01,9.99999e-01
1.106462220e+00,7.61084e-01,9.99999e-01,9.99999e-01,9.65693e-01,7.88122e-01,9.99999e-01
1.111994531e+00,7.81656e-01,9.99999e-01,9.99999e-01,9.87142e-01,7.91837e-01,9.99999e-01
1.117554504e+00,7.92999e-01,9.99999e-01,9.99999e-01,9.96860e-01,7.95496e-01,9.99999e-01
1.123142276e+00,7.98936e-01,9.99999e-01,9.99999e-01,9.99794e-01,7.99099e-01,9.99999e-01
1.128757988e+00,8.02647e-01,9.99999e-01,9.99999e-01,9.99999e-01,8.02647e-01,9.99999e-01
1.134401778e+00,8.06140e-01,9.99999e-01,9.99999e-01,9.99999e-01,8.06140e-01,9.99999e-01
1.140073787e+00,8.09579e-01,9.99999e-01,9.99999e-01,9.99999e-01,8.09579e-01,9.99999e-01
1.145774156e+00,8.12964e-01,9.99999e-01,9.99999e-01,9.99999e-01,8.12964e-01,9.99999e-01
1.151503026e+00,8.16296e-01,9.99999e-01,9.99999e-01,9.99999e-01,8.16296e-01,9.99999e-01
1.157260541e+00,8.19575e-01,9.99999e-01,9.99999e-01,9.99999e-01,8.19575e-01,9.99999e-01
1.163046844e+00,8.22802e-01,9.99999e-01,9.99999e-01,9.99999e-01,8.22802e-01,9.99999e-01
1.168862078e+00,8.25978e-01,9.99999e-01,9.99999e-01,9.99999e-01,8.25978e-01,9.99999e-01
1.174706389e+00,8.29103e-01,9.99999e-01,9.99999e-01,9.99999e-01,8.29103e-01,9.99999e-01
1.180579921e+00,8.32178e-01,9.99999e-01,9.99999e-01,9.99999e-01,8.32178e-01,9.99999e-01
1.186482820e+00,8.35194e-01,9.99999e-01,9.99999e-01,9.99988e-01,8.35203e-01,9.99999e-01
1.192415234e+00,8.23149e-01,9.99999e-01,9.99999e-01,9.82067e-01,8.38180e-01,9.99999e-01
1.198377311e+00,4.64911e-01,9.99999e-01,9.99999e-01,5.52736e-01,8.41107e-01,9.99999e-01
1.204369197e+00,3.92497e-14,9.99999e-01,9.99999e-01,4.65050e-14,8.43987e-01,9.99999e-01
1.210391043e+00,2.66586e-53,9.99999e-01,9.99999e-01,3.14808e-53,8.46819e-01,9.99999e-01
1.216442998e+00,2.69023e-46,9.99999e-01,9.99999e-01,3.16644e-46,8.49605e-01,9.99999e-01
1.222525213e+00,1.27478e-45,9.99999e-01,9.99999e-01,1.49562e-45,8.52345e-01,9.99999e-01
1.228637839e+00,2.46505e-35,9.99999e-01,9.99999e-01,2.88297e-35,8.55039e-01,9.99999e-01
