#,Wave/freq,Total,N2,O2,CO2,Rayleigh,CIA
4.000000000e-01,9.99575e-04,9.99999e-01,9.99999e-01,9.99999e-01,9.99575e-04,9.99999e-01
4.020000000e-01,1.14588e-03,9.99999e-01,9.99999e-01,9.99999e-01,1.14588e-03,9.99999e-01
4.040100000e-01,1.30987e-03,9.99999e-01,9.99999e-01,9.99999e-01,1.30987e-03,9.99999e-01
4.060300500e-01,1.49338e-03,9.99999e-01,9.99999e-01,9.99999e-01,1.49338e-03,9.99999e-01
4.080602003e-01,1.69819e-03,9.99999e-01,9.99999e-01,9.99999e-01,1.69819e-03,9.99999e-01
4.101005013e-01,1.92620e-03,9.99999e-01,9.99999e-01,9.99999e-01,1.92620e-03,9.99999e-01
4.121510038e-01,2.17939e-03,9.99999e-01,9.99999e-01,9.99999e-01,2.17939e-03,9.99999e-01
4.142117588e-01,2.45986e-03,9.99999e-01,9.99999e-01,9.99999e-01,2.45986e-03,9.99999e-01
4.162828176e-01,2.76978e-03,9.99999e-01,9.99999e-01,9.99999e-01,2.76978e-03,9.99999e-01
4.183642317e-01,3.11146e-03,9.99999e-01,9.99999e-01,9.99999e-01,3.11146e-03,9.99999e-01
4.204560528e-01,3.48726e-03,9.99999e-01,9.99999e-01,9.99999e-01,3.48726e-03,9.99999e-01
4.225583331e-01,3.89966e-03,9.99999e-01,9.99999e-01,9.99999e-01,3.89966e-03,9.99999e-01
4.246711247e-01,4.35120e-03,9.99999e-01,9.99999e-01,9.99999e-01,4.35120e-03,9.99999e-01
4.267944804e-01,4.84454e-03,9.99999e-01,9.99999e-01,9.99999e-01,4.84454e-03,9.99999e-01
4.289284528e-01,5.38238e-03,9.99999e-01,9.99999e-01,9.99999e-01,5.38238e-03,9.99999e-01
4.310730950e-01,5.96752e-03,9.99999e-01,9.99999e-01,9.99999e-01,5.96752e-03,9.99999e-01
4.332284605e-01,6.60279e-03,9.99999e-01,9.99999e-01,9.99999e-01,6.60279e-03,9.99999e-01
4.353946028e-01,7.29110e-03,9.99999e-01,9.99999e-01,9.99999e-01,7.29110e-03,9.99999e-01
4.375715758e-01,8.03541e-03,9.99999e-01,9.99999e-01,9.99999e-01,8.03541e-03,9.99999e-01
4.397594337e-01,8.83872e-03,9.99999e-01,9.99999e-01,9.99999e-01,8.83872e-03,9.99999e-01
4.419582309e-01,9.70405e-03,9.99999e-01,9.99999e-01,9.99999e-01,9.70405e-03,9.99999e-01
4.441680220e-01,1.06345e-02,9.99999e-01,9.99999e-01,9.99999e-01,1.06345e-02,9.99999e-01
4.463888621e-01,1.16330e-02,9.99999e-01,9.99999e-01,9.99999e-01,1.16330e-02,9.99999e-01
4.486208064e-01,1.27028e-02,9.99999e-01,9.99999e-01,9.99999e-01,1.27028e-02,9.99999e-01
4.508639105e-01,1.38469e-02,9.99999e-01,9.99999e-01,9.99999e-01,1.38469e-02,9.99999e-01
4.531182300e-01,1.50684e-02,9.99999e-01,9.99999e-01,9.99999e-01,1.50684e-02,9.99999e-01
4.553838212e-01,1.63702e-02,9.99999e-01,9.99999e-01,9.99999e-01,1.63702e-02,9.99999e-01
4.576607403e-01,1.77554e-02,9.99999e-01,9.99999e-01,9.99999e-01,1.77554e-02,9.99999e-01
4.599490440e-01,1.92270e-02,9.99999e-01,9.99999e-01,9.99999e-01,1.92270e-02,9.99999e-01
4.622487892e-01,2.07878e-02,9.99999e-01,9.99999e-01,9.99999e-01,2.07878e-02,9.99999e-01
4.645600332e-01,2.24406e-02,9.99999e-01,9.99999e-01,9.99999e-01,2.24406e-02,9.99999e-01
4.668828333e-01,2.41883e-02,9.99999e-01,9.99999e-01,9.99999e-01,2.41883e-02,9.99999e-01
4.692172475e-01,2.60336e-02,9.99999e-01,9.99999e-01,9.99999e-01,2.60336e-02,9.99999e-01
4.715633337e-01,2.79789e-02,9.99999e-01,9.99999e-01,9.99999e-01,2.79789e-02,9.99999e-01
4.739211504e-01,3.00269e-02,9.99999e-01,9.99999e-01,9.99999e-01,3.00269e-02,9.99999e-01
4.762907561e-01,3.21798e-02,9.99999e-01,9.99999e-01,9.99999e-01,3.21798e-02,9.99999e-01
4.786722099e-01,3.44399e-02,9.99999e-01,9.99999e-01,9.99999e-01,3.44399e-02,9.99999e-01
4.810655710e-01,3.68094e-02,9.99999e-01,9.99999e-01,9.99999e-01,3.68094e-02,9.99999e-01
4.834708988e-01,3.92902e-02,9.99999e-01,9.99999e-01,9.99999e-01,3.92902e-02,9.99999e-01
4.858882533e-01,4.18843e-02,9.99999e-01,9.99999e-01,9.99999e-01,4.18843e-02,9.99999e-01
4.883176946e-01,4.45932e-02,9.99999e-01,9.99999e-01,9.99999e-01,4.45932e-02,9.99999e-01
4.907592831e-01,4.74186e-02,9.99999e-01,9.99999e-01,9.99999e-01,4.74186e-02,9.99999e-01
4.932130795e-01,5.03619e-02,9.99999e-01,9.99999e-01,9.99999e-01,5.03619e-02,9.99999e-01
4.956791449e-01,5.34243e-02,9.99999e-01,9.99999e-01,9.99999e-01,5.34243e-02,9.99999e-01
4.981575406e-01,5.66069e-02,9.99999e-01,9.99999e-01,9.99999e-01,5.66069e-02,9.99999e-01
5.006483283e-01,5.99105e-02,9.99999e-01,9.99999e-01,9.99999e-01,5.99105e-02,9.99999e-01
5.031515699e-01,6.33360e-02,9.99999e-01,9.99999e-01,9.99999e-01,6.33360e-02,9.99999e-01
5.056673278e-01,6.68838e-02,9.99999e-01,9.99999e-01,9.99999e-01,6.68838e-02,9.99999e-01
5.081956644e-01,7.05543e-02,9.99999e-01,9.99999e-01,9.99999e-01,7.05543e-02,9.99999e-01
5.107366428e-01,7.43478e-02,9.99999e-01,9.99999e-01,9.99999e-01,7.43478e-02,9.99999e-01
5.132903260e-01,7.82642e-02,9.99999e-01,9.99999e-01,9.99999e-01,7.82642e-02,9.99999e-01
5.158567776e-01,8.23035e-02,9.99999e-01,9.99999e-01,9.99999e-01,8.23035e-02,9.99999e-01
5.184360615e-01,8.64652e-02,9.99999e-01,9.99999e-01,9.99999e-01,8.64652e-02,9.99999e-01
5.210282418e-01,9.07489e-02,9.99999e-01,9.99999e-01,9.99999e-01,9.07489e-02,9.99999e-01
5.236333830e-01,9.51539e-02,9.99999e-01,9.99999e-01,9.99999e-01,9.51539e-02,9.99999e-01
5.262515499e-01,9.96794e-02,9.99999e-01,9.99999e-01,9.99999e-01,9.96794e-02,9.99999e-01
5.288828077e-01,1.04324e-01,9.99999e-01,9.99999e-01,9.99999e-01,1.04324e-01,9.99999e-01
5.315272217e-01,1.09087e-01,9.99999e-01,9.99999e-01,9.99999e-01,1.09087e-01,9.99999e-01
5.341848578e-01,1.13967e-01,9.99999e-01,9.99999e-01,9.99999e-01,1.13967e-01,9.99999e-01
5.368557821e-01,1.18963e-01,9.99999e-01,9.99999e-01,9.99999e-01,1.18963e-01,9.99999e-01
5.395400610e-01,1.24072e-01,9.99999e-01,9.99999e-01,9.99999e-01,1.24072e-01,9.99999e-01
5.422377613e-01,1.29294e-01,9.99999e-01,9.99999e-01,9.99999e-01,1.29294e-01,9.99999e-01
5.449489501e-01,1.34625e-01,9.99999e-01,9.99999e-01,9.99999e-01,1.34625e-01,9.99999e-01
5.476736949e-01,1.40064e-01,9.99999e-01,9.99999e-01,9.99999e-01,1.40064e-01,9.99999e-01
5.504120634e-01,1.45609e-01,9.99999e-01,9.99999e-01,9.99999e-01,1.45609e-01,9.99999e-01
5.531641237e-01,1.51258e-01,9.99999e-01,9.99999e-01,9.99999e-01,1.51258e-01,9.99999e-01
5.559299443e-01,1.57008e-01,9.99999e-01,9.99999e-01,9.99999e-01,1.57008e-01,9.99999e-01
5.587095940e-01,1.62856e-01,9.99999e-01,9.99999e-01,9.99999e-01,1.62856e-01,9.99999e-01
5.615031420e-01,1.68800e-01,9.99999e-01,9.99999e-01,9.99999e-01,1.68800e-01,9.99999e-01
5.643106577e-01,1.74837e-01,9.99999e-01,9.99999e-01,9.99999e-01,1.74837e-01,9.99999e-01
5.671322110e-01,1.80965e-01,9.99999e-01,9.99999e-01,9.99999e-01,1.80965e-01,9.99999e-01
5.699678720e-01,1.87179e-01,9.99999e-01,9.99999e-01,9.99999e-01,1.87179e-01,9.99999e-01
5.728177114e-01,1.93479e-01,9.99999e-01,9.99999e-01,9.99999e-01,1.93479e-01,9.99999e-01
5.756818000e-01,1.99859e-01,9.99999e-01,9.99999e-01,9.99999e-01,1.99859e-01,9.99999e-01
5.785602090e-01,2.06317e-01,9.99999e-01,9.99999e-01,9.99999e-01,2.06317e-01,9.99999e-01
5.814530100e-01,2.12851e-01,9.99999e-01,9.99999e-01,9.99999e-01,2.12851e-01,9.99999e-01
5.843602750e-01,2.19456e-01,9.99999e-01,9.99999e-01,9.99999e-01,2.19456e-01,9.99999e-01
5.872820764e-01,2.26130e-01,9.99999e-01,9.99999e-01,9.99999e-01,2.26130e-01,9.99999e-01
5.902184868e-01,2.32868e-01,9.99999e-01,9.99999e-01,9.99999e-01,2.32868e-01,9.99999e-01
5.931695792e-01,2.39669e-01,9.99999e-01,9.99999e-01,9.99999e-01,2.39669e-01,9.99999e-01
5.961354271e-01,2.46528e-01,9.99999e-01,9.99999e-01,9.99999e-01,2.46528e-01,9.99999e-01
5.991161043e-01,2.53442e-01,9.99999e-01,9.99999e-01,9.99999e-01,2.53442e-01,9.99999e-01
6.021116848e-01,2.60407e-01,9.99999e-01,9.99999e-01,9.99999e-01,2.60407e-01,9.99999e-01
6.051222432e-01,2.67421e-01,9.99999e-01,9.99999e-01,9.99999e-01,2.67421e-01,9.99999e-01
6.081478544e-01,2.74479e-01,9.99999e-01,9.99999e-01,9.99999e-01,2.74479e-01,9.99999e-01
6.111885937e-01,2.81579e-01,9.99999e-01,9.99999e-01,9.99999e-01,2.81579e-01,9.99999e-01
6.142445367e-01,2.88717e-01,9.99999e-01,9.99999e-01,9.99999e-01,2.88717e-01,9.99999e-01
6.173157594e-01,2.95889e-01,9.99999e-01,9.99999e-01,9.99999e-01,2.95889e-01,9.99999e-01
6.204023382e-01,3.03093e-01,9.99999e-01,9.99999e-01,9.99999e-01,3.03093e-01,9.99999e-01
6.235043498e-01,3.10324e-01,9.99999e-01,9.99999e-01,9.99999e-01,3.10324e-01,9.99999e-01
6.266218716e-01,3.17580e-01,9.99999e-01,9.99999e-01,9.99999e-01,3.17580e-01,9.99999e-01
6.297549810e-01,3.24858e-01,9.99999e-01,9.99999e-01,9.99999e-01,3.24858e-01,9.99999e-01
6.329037559e-01,3.32153e-01,9.99999e-01,9.99999e-01,9.99999e-01,3.32153e-01,9.99999e-01
6.360682746e-01,3.39464e-01,9.99999e-01,9.99999e-01,9.99999e-01,3.39464e-01,9.99999e-01
6.392486160e-01,3.46786e-01,9.99999e-01,9.99999e-01,9.99999e-01,3.46786e-01,9.99999e-01
6.424448591e-01,3.54117e-01,9.99999e-01,9.99999e-01,9.99999e-01,3.54117e-01,9.99999e-01
6.456570834e-01,3.61453e-01,9.99999e-01,9.99999e-01,9.99999e-01,3.61453e-01,9.99999e-01
6.488853688e-01,3.68792e-01,9.99999e-01,9.99999e-01,9.99999e-01,3.68792e-01,9.99999e-01
6.521297956e-01,3.76130e-01,9.99999e-01,9.99999e-01,9.99999e-01,3.76130e-01,9.99999e-01
6.553904446e-01,3.83466e-01,9.99999e-01,9.99999e-01,9.99999e-01,3.83466e-01,9.99999e-01
6.586673968e-01,3.90795e-01,9.99999e-01,9.99999e-01,9.99999e-01,3.90795e-01,9.99999e-01
6.619607338e-01,3.98115e-01,9.99999e-01,9.99999e-01,9.99999e-01,3.98115e-01,9.99999e-01
6.652705375e-01,4.05424e-01,9.99999e-01,9.99999e-01,9.99999e-01,4.05424e-01,9.99999e-01
6.685968902e-01,4.12719e-01,9.99999e-01,9.99999e-01,9.99999e-01,4.12719e-01,9.99999e-01
6.719398746e-01,4.19997e-01,9.99999e-01,9.99999e-01,9.99999e-01,4.19997e-01,9.99999e-01
6.752995740e-01,4.27256e-01,9.99999e-01,9.99999e-01,9.99999e-01,4.27256e-01,9.99999e-01
6.786760719e-01,4.34493e-01,9.99999e-01,9.99999e-01,9.99999e-01,4.34493e-01,9.99999e-01
6.820694522e-01,4.41706e-01,9.99999e-01,9.99999e-01,9.99999e-01,4.41706e-01,9.99999e-01
6.854797995e-01,4.48893e-01,9.99999e-01,9.99999e-01,9.99999e-01,4.48893e-01,9.99999e-01
6.889071985e-01,4.56052e-01,9.99999e-01,9.99999e-01,9.99999e-01,4.56052e-01,9.99999e-01
6.923517345e-01,4.63180e-01,9.99999e-01,9.99999e-01,9.99999e-01,4.63180e-01,9.99999e-01
6.958134932e-01,4.70275e-01,9.99999e-01,9.99999e-01,9.99999e-01,4.70275e-01,9.99999e-01
6.992925606e-01,4.77335e-01,9.99999e-01,9.99999e-01,9.99999e-01,4.77335e-01,9.99999e-01
7.027890234e-01,4.84359e-01,9.99999e-01,9.99999e-01,9.99999e-01,4.84359e-01,9.99999e-01
7.063029686e-01,4.91345e-01,9.99999e-01,9.99999e-01,9.99999e-01,4.91345e-01,9.99999e-01
7.098344834e-01,4.98290e-01,9.99999e-01,9.99999e-01,9.99999e-01,4.98290e-01,9.99999e-01
7.133836558e-01,5.05193e-01,9.99999e-01,9.99999e-01,9.99999e-01,5.05193e-01,9.99999e-01
7.169505741e-01,5.12053e-01,9.99999e-01,9.99999e-01,9.99999e-01,5.12053e-01,9.99999e-01
7.205353270e-01,5.18868e-01,9.99999e-01,9.99999e-01,9.99999e-01,5.18868e-01,9.99999e-01
7.241380036e-01,5.25636e-01,9.99999e-01,9.99999e-01,9.99999e-01,5.25636e-01,9.99999e-01
7.277586936e-01,5.32356e-01,9.99999e-01,9.99999e-01,9.99999e-01,5.32356e-01,9.99999e-01
7.313974871e-01,5.39027e-01,9.99999e-01,9.99999e-01,9.99999e-01,5.39027e-01,9.99999e-01
7.350544745e-01,5.45647e-01,9.99999e-01,9.99999e-01,9.99999e-01,5.45647e-01,9.99999e-01
7.387297469e-01,5.52215e-01,9.99999e-01,9.99999e-01,9.99999e-01,5.52215e-01,9.99999e-01
7.424233956e-01,5.58731e-01,9.99999e-01,9.99999e-01,9.99999e-01,5.58731e-01,9.99999e-01
7.461355126e-01,5.65192e-01,9.99999e-01,9.99999e-01,9.99999e-01,5.65192e-01,9.99999e-01
7.498661902e-01,5.71598e-01,9.99999e-01,9.99999e-01,9.99999e-01,5.71598e-01,9.99999e-01
7.536155211e-01,5.77948e-01,9.99999e-01,9.99999e-01,9.99999e-01,5.77948e-01,9.99999e-01
7.573835987e-01,5.84241e-01,9.99999e-01,9.99999e-01,9.99999e-01,5.84241e-01,9.99999e-01
7.611705167e-01,5.90476e-01,9.99999e-01,9.99999e-01,9.99999e-01,5.90476e-01,9.99999e-01
7.649763693e-01,5.96653e-01,9.99999e-01,9.99999e-01,9.99999e-01,5.96653e-01,9.99999e-01
7.688012511e-01,6.02770e-01,9.99999e-01,9.99999e-01,9.99999e-01,6.02770e-01,9.99999e-01
7.726452574e-01,6.08827e-01,9.99999e-01,9.99999e-01,9.99999e-01,6.08827e-01,9.99999e-01
7.765084837e-01,6.14824e-01,9.99999e-01,9.99999e-01,9.99999e-01,6.14824e-01,9.99999e-01
7.803910261e-01,6.07098e-01,9.99999e-01,9.99999e-01,9.77991e-01,6.20760e-01,9.99999e-01
7.842929812e-01,5.66615e-01,9.99999e-01,9.99999e-01,9.04219e-01,6.26634e-01,9.99999e-01
7.882144461e-01,5.68060e-01,9.99999e-01,9.99999e-01,8.98195e-01,6.32446e-01,9.99999e-01
7.921555184e-01,5.99876e-01,9.99999e-01,9.99999e-01,9.39955e-01,6.38195e-01,9.99999e-01
7.961162960e-01,6.17598e-01,9.99999e-01,9.99999e-01,9.59178e-01,6.43882e-01,9.99999e-01
8.000968774e-01,6.35028e-01,9.99999e-01,9.99999e-01,9.77709e-01,6.49505e-01,9.99999e-01
8.040973618e-01,6.47434e-01,9.99999e-01,9.99999e-01,9.88348e-01,6.55066e-01,9.99999e-01
8.081178486e-01,6.57034e-01,9.99999e-01,9.99999e-01,9.94659e-01,6.60562e-01,9.99999e-01
8.121584379e-01,6.64885e-01,9.99999e-01,9.99999e-01,9.98333e-01,6.65995e-01,9.99999e-01
8.162192301e-01,6.71116e-01,9.99999e-01,9.99999e-01,9.99631e-01,6.71363e-01,9.99999e-01
8.203003262e-01,6.76664e-01,9.99999e-01,9.99999e-01,9.99993e-01,6.76668e-01,9.99999e-01
8.244018279e-01,6.81909e-01,9.99999e-01,9.99999e-01,9.99999e-01,6.81909e-01,9.99999e-01
8.285238370e-01,6.87085e-01,9.99999e-01,9.99999e-01,9.99999e-01,6.87085e-01,9.99999e-01
8.326664562e-01,6.92197e-01,9.99999e-01,9.99999e-01,9.99999e-01,6.92197e-01,9.99999e-01
8.368297885e-01,6.97246e-01,9.99999e-01,9.99999e-01,9.99999e-01,6.97246e-01,9.99999e-01
8.410139374e-01,7.02230e-01,9.99999e-01,9.99999e-01,9.99999e-01,7.02230e-01,9.99999e-01
8.452190071e-01,7.07150e-01,9.99999e-01,9.99999e-01,9.99999e-01,7.07150e-01,9.99999e-01
8.494451021e-01,7.12007e-01,9.99999e-01,9.99999e-01,9.99999e-01,7.12007e-01,9.99999e-01
8.536923276e-01,7.16800e-01,9.99999e-01,9.99999e-01,9.99999e-01,7.16800e-01,9.99999e-01
8.579607893e-01,7.21530e-01,9.99999e-01,9.99999e-01,9.99999e-01,7.21530e-01,9.99999e-01
8.622505932e-01,7.26196e-01,9.99999e-01,9.99999e-01,9.99999e-01,7.26196e-01,9.99999e-01
8.665618462e-01,6.90663e-01,9.99999e-01,9.99999e-01,9.45077e-01,7.30800e-01,9.99999e-01
8.708946554e-01,5.68705e-01,9.99999e-01,9.99999e-01,7.73388e-01,7.35341e-01,9.99999e-01
8.752491287e-01,6.02049e-01,9.99999e-01,9.99999e-01,8.13777e-01,7.39820e-01,9.99999e-01
8.796253743e-01,6.65030e-01,9.99999e-01,9.99999e-01,8.93572e-01,7.44237e-01,9.99999e-01
8.840235012e-01,7.06332e-01,9.99999e-01,9.99999e-01,9.43547e-01,7.48592e-01,9.99999e-01
8.884436187e-01,7.35792e-01,9.99999e-01,9.99999e-01,9.77295e-01,7.52886e-01,9.99999e-01
8.928858368e-01,7.50133e-01,9.99999e-01,9.99999e-01,9.90773e-01,7.57119e-01,9.99999e-01
8.973502660e-01,7.59569e-01,9.99999e-01,9.99999e-01,9.97737e-01,7.61291e-01,9.99999e-01
9.018370173e-01,7.65212e-01,9.99999e-01,9.99999e-01,9.99749e-01,7.65403e-01,9.99999e-01
9.063462024e-01,7.64676e-01,9.99999e-01,9.99999e-01,9.93787e-01,7.69456e-01,9.99999e-01
9.108779334e-01,7.62231e-01,9.99999e-01,9.99999e-01,9.85495e-01,7.73450e-01,9.99999e-01
9.154323231e-01,7.74699e-01,9.99999e-01,9.99999e-01,9.96545e-01,7.77384e-01,9.99999e-01
9.200094847e-01,7.42991e-01,9.99999e-01,9.99999e-01,9.51015e-01,7.81261e-01,9.99999e-01
9.246095321e-01,7.30886e-01,9.99999e-01,9.99999e-01,9.30970e-01,7.85079e-01,9.99999e-01
9.292325798e-01,7.46136e-01,9.99999e-01,9.99999e-01,9.45863e-01,7.88840e-01,9.99999e-01
9.338787427e-01,7.50716e-01,9.99999e-01,9.99999e-01,9.47221e-01,7.92545e-01,9.99999e-01
9.385481364e-01,7.65155e-01,9.99999e-01,9.99999e-01,9.61016e-01,7.96193e-01,9.99999e-01
9.432408771e-01,7.80508e-01,9.99999e-01,9.99999e-01,9.75896e-01,7.99786e-01,9.99999e-01
9.479570815e-01,7.93363e-01,9.99999e-01,9.99999e-01,9.87601e-01,8.03323e-01,9.99999e-01
9.526968669e-01,8.01958e-01,9.99999e-01,9.99999e-01,9.93991e-01,8.06805e-01,9.99999e-01
9.574603512e-01,8.08148e-01,9.99999e-01,9.99999e-01,9.97425e-01,8.10234e-01,9.99999e-01
9.622476530e-01,8.12954e-01,9.99999e-01,9.99999e-01,9.99195e-01,8.13608e-01,9.99999e-01
9.670588912e-01,8.16733e-01,9.99999e-01,9.99999e-01,9.99758e-01,8.16930e-01,9.99999e-01
9.718941857e-01,8.20185e-01,9.99999e-01,9.99999e-01,9.99982e-01,8.20199e-01,9.99999e-01
9.767536566e-01,8.23417e-01,9.99999e-01,9.99999e-01,9.99999e-01,8.23417e-01,9.99999e-01
9.816374249e-01,8.26583e-01,9.99999e-01,9.99999e-01,9.99999e-01,8.26583e-01,9.99999e-01
9.865456120e-01,8.29698e-01,9.99999e-01,9.99999e-01,9.99999e-01,8.29698e-01,9.99999e-01
9.914783401e-01,8.32764e-01,9.99999e-01,9.99999e-01,9.99999e-01,8.32764e-01,9.99999e-01
9.964357318e-01,8.35779e-01,9.99999e-01,9.99999e-01,9.99999e-01,8.35779e-01,9.99999e-01
1.001417910e+00,8.38746e-01,9.99999e-01,9.99999e-01,9.99999e-01,8.38746e-01,9.99999e-01
1.006425000e+00,8.41665e-01,9.99999e-01,9.99999e-01,9.99999e-01,8.41665e-01,9.99999e-01
1.011457125e+00,8.44535e-01,9.99999e-01,9.99999e-01,9.99999e-01,8.44535e-01,9.99999e-01
1.016514411e+00,8.47358e-01,9.99999e-01,9.99999e-01,9.99999e-01,8.47358e-01,9.99999e-01
1.021596983e+00,8.50110e-01,9.99999e-01,9.99999e-01,9.99969e-01,8.50135e-01,9.99999e-01
1.026704968e+00,8.50809e-01,9.99999e-01,9.99999e-01,9.97587e-01,8.52866e-01,9.99999e-01
1.031838492e+00,8.29458e-01,9.99999e-01,9.99999e-01,9.69500e-01,8.55551e-01,9.99999e-01
1.036997685e+00,1.92761e-01,9.99999e-01,9.99999e-01,2.24612e-01,8.58192e-01,9.99999e-01
1.042182673e+00,2.04380e-01,9.99999e-01,9.99999e-01,2.37433e-01,8.60788e-01,9.99999e-01
1.047393587e+00,2.08188e-01,9.99999e-01,9.99999e-01,2.41142e-01,8.63341e-01,9.99999e-01
1.052630555e+00,1.72177e-02,9.99999e-01,9.99999e-01,1.98853e-02,8.65850e-01,9.99999e-01
1.057893707e+00,3.59379e-02,9.99999e-01,9.99999e-01,4.13880e-02,8.68317e-01,9.99999e-01
1.063183176e+00,8.54321e-02,9.99999e-01,9.99999e-01,9.81140e-02,8.70742e-01,9.99999e-01
1.068499092e+00,1.81626e-01,9.99999e-01,9.99999e-01,2.08017e-01,8.73126e-01,9.99999e-01
1.073841587e+00,3.24100e-01,9.99999e-01,9.99999e-01,3.70201e-01,8.75469e-01,9.99999e-01
1.079210795e+00,4.68636e-01,9.99999e-01,9.99999e-01,5.33892e-01,8.77772e-01,9.99999e-01
1.084606849e+00,6.23866e-01,9.99999e-01,9.99999e-01,7.08909e-01,8.80035e-01,9.99999e-01
1.090029883e+00,7.38354e-01,9.99999e-01,9.99999e-01,8.36889e-01,8.82259e-01,9.99999e-01
1.095480033e+00,8.10104e-01,9.99999e-01,9.99999e-01,9.15946e-01,8.84445e-01,9.99999e-01
1.100957433e+00,8.49919e-01,9.99999e-01,9.99999e-01,9.58634e-01,8.86593e-01,9.99999e-01
1.106462220e+00,8.73301e-01,9.99999e-01,9.99999e-01,9.82668e-01,8.88703e-01,9.99999e-01
1.111994531e+00,8.85026e-01,9.99999e-01,9.99999e-01,9.93543e-01,8.90777e-01,9.99999e-01
1.117554504e+00,8.91398e-01,9.99999e-01,9.99999e-01,9.98412e-01,8.92814e-01,9.99999e-01
1.123142276e+00,8.94722e-01,9.99999e-01,9.99999e-01,9.99894e-01,8.94816e-01,9.99999e-01
1.128757988e+00,8.96782e-01,9.99999e-01,9.99999e-01,9.99999e-01,8.96783e-01,9.99999e-01
1.134401778e+00,8.98714e-01,9.99999e-01,9.99999e-01,9.99999e-01,8.98714e-01,9.99999e-01
1.140073787e+00,9.00612e-01,9.99999e-01,9.99999e-01,9.99999e-01,9.00612e-01,9.99999e-01
1.145774156e+00,9.02476e-01,9.99999e-01,9.99999e-01,9.99999e-01,9.02476e-01,9.99999e-01
1.151503026e+00,9.04307e-01,9.99999e-01,9.99999e-01,9.99999e-01,9.04307e-01,9.99999e-01
1.157260541e+00,9.06106e-01,9.99999e-01,9.99999e-01,9.99999e-01,9.06106e-01,9.99999e-01
1.163046844e+00,9.07872e-01,9.99999e-01,9.99999e-01,9.99999e-01,9.07872e-01,9.99999e-01
1.168862078e+00,9.09607e-01,9.99999e-01,9.99999e-01,9.99999e-01,9.09607e-01,9.99999e-01
1.174706389e+00,9.11311e-01,9.99999e-01,9.99999e-01,9.99999e-01,9.11311e-01,9.99999e-01
1.180579921e+00,9.12984e-01,9.99999e-01,9.99999e-01,9.99999e-01,9.12984e-01,9.99999e-01
1.186482820e+00,9.14624e-01,9.99999e-01,9.99999e-01,9.99996e-01,9.14627e-01,9.99999e-01
1.192415234e+00,9.08377e-01,9.99999e-01,9.99999e-01,9.91417e-01,9.16241e-01,9.99999e-01
1.198377311e+00,5.27543e-01,9.99999e-01,9.99999e-01,5.74775e-01,9.17825e-01,9.99999e-01
1.204369197e+00,3.89391e-08,9.99999e-01,9.99999e-01,4.23536e-08,9.19381e-01,9.99999e-01
1.210391043e+00,1.53737e-27,9.99999e-01,9.99999e-01,1.66940e-27,9.20909e-01,9.99999e-01
1.216442998e+00,4.53912e-24,9.99999e-01,9.99999e-01,4.92094e-24,9.22409e-01,9.99999e-01
1.222525213e+00,9.91525e-24,9.99999e-01,9.99999e-01,1.07322e-23,9.23882e-01,9.99999e-01
1.228637839e+00,2.48876e-18,9.99999e-01,9.99999e-01,2.68960e-18,9.25327e-01,9.99999e-01
