#,Wave/freq,Total,N2,O2,CO2,Rayleigh,CIA
4.000000000e-01,2.51829e-07,9.99999e-01,9.99999e-01,9.99999e-01,2.51829e-07,9.99999e-01
4.020000000e-01,3.40083e-07,9.99999e-01,9.99999e-01,9.99999e-01,3.40083e-07,9.99999e-01
4.040100000e-01,4.56407e-07,9.99999e-01,9.99999e-01,9.99999e-01,4.56407e-07,9.99999e-01
4.060300500e-01,6.08969e-07,9.99999e-01,9.99999e-01,9.99999e-01,6.08969e-07,9.99999e-01
4.080602003e-01,8.07914e-07,9.99999e-01,9.99999e-01,9.99999e-01,8.07914e-07,9.99999e-01
4.101005013e-01,1.06588e-06,9.99999e-01,9.99999e-01,9.99999e-01,1.06588e-06,9.99999e-01
4.121510038e-01,1.39855e-06,9.99999e-01,9.99999e-01,9.99999e-01,1.39855e-06,9.99999e-01
4.142117588e-01,1.82522e-06,9.99999e-01,9.99999e-01,9.99999e-01,1.82522e-06,9.99999e-01
4.162828176e-01,2.36956e-06,9.99999e-01,9.99999e-01,9.99999e-01,2.36956e-06,9.99999e-01
4.183642317e-01,3.06043e-06,9.99999e-01,9.99999e-01,9.99999e-01,3.06043e-06,9.99999e-01
4.204560528e-01,3.93280e-06,9.99999e-01,9.99999e-01,9.99999e-01,3.93280e-06,9.99999e-01
4.225583331e-01,5.02886e-06,9.99999e-01,9.99999e-01,9.99999e-01,5.02886e-06,9.99999e-01
4.246711247e-01,6.39924e-06,9.99999e-01,9.99999e-01,9.99999e-01,6.39924e-06,9.99999e-01
4.267944804e-01,8.10439e-06,9.99999e-01,9.99999e-01,9.99999e-01,8.10439e-06,9.99999e-01
4.289284528e-01,1.02161e-05,9.99999e-01,9.99999e-01,9.99999e-01,1.02161e-05,9.99999e-01
4.310730950e-01,1.28193e-05,9.99999e-01,9.99999e-01,9.99999e-01,1.28193e-05,9.99999e-01
4.332284605e-01,1.60139e-05,9.99999e-01,9.99999e-01,9.99999e-01,1.60139e-05,9.99999e-01
4.353946028e-01,1.99168e-05,9.99999e-01,9.99999e-01,9.99999e-01,1.99168e-05,9.99999e-01
4.375715758e-01,2.46645e-05,9.99999e-01,9.99999e-01,9.99999e-01,2.46645e-05,9.99999e-01
4.397594337e-01,3.04151e-05,9.99999e-01,9.99999e-01,9.99999e-01,3.04151e-05,9.99999e-01
4.419582309e-01,3.73517e-05,9.99999e-01,9.99999e-01,9.99999e-01,3.73517e-05,9.99999e-01
4.441680220e-01,4.56844e-05,9.99999e-01,9.99999e-01,9.99999e-01,4.56844e-05,9.99999e-01
4.463888621e-01,5.56542e-05,9.99999e-01,9.99999e-01,9.99999e-01,5.56542e-05,9.99999e-01
4.486208064e-01,6.75359e-05,9.99999e-01,9.99999e-01,9.99999e-01,6.75359e-05,9.99999e-01
4.508639105e-01,8.16417e-05,9.99999e-01,9.99999e-01,9.99999e-01,8.16417e-05,9.99999e-01
4.531182300e-01,9.83245e-05,9.99999e-01,9.99999e-01,9.99999e-01,9.83245e-05,9.99999e-01
4.553838212e-01,1.17982e-04,9.99999e-01,9.99999e-01,9.99999e-01,1.17982e-04,9.99999e-01
4.576607403e-01,1.41061e-04,9.99999e-01,9.99999e-01,9.99999e-01,1.41061e-04,9.99999e-01
4.599490440e-01,1.68061e-04,9.99999e-01,9.99999e-01,9.99999e-01,1.68061e-04,9.99999e-01
4.622487892e-01,1.99537e-04,9.99999e-01,9.99999e-01,9.99999e-01,1.99537e-04,9.99999e-01
4.645600332e-01,2.36106e-04,9.99999e-01,9.99999e-01,9.99999e-01,2.36106e-04,9.99999e-01
4.668828333e-01,2.78450e-04,9.99999e-01,9.99999e-01,9.99999e-01,2.78450e-04,9.99999e-01
4.692172475e-01,3.27320e-04,9.99999e-01,9.99999e-01,9.99999e-01,3.27320e-04,9.99999e-01
4.715633337e-01,3.83539e-04,9.99999e-01,9.99999e-01,9.99999e-01,3.83539e-04,9.99999e-01
4.739211504e-01,4.48010e-04,9.99999e-01,9.99999e-01,9.99999e-01,4.48010e-04,9.99999e-01
4.762907561e-01,5.21715e-04,9.99999e-01,9.99999e-01,9.99999e-01,5.21715e-04,9.99999e-01
4.786722099e-01,6.05721e-04,9.99999e-01,9.99999e-01,9.99999e-01,6.05721e-04,9.99999e-01
4.810655710e-01,7.01181e-04,9.99999e-01,9.99999e-01,9.99999e-01,7.01181e-04,9.99999e-01
4.834708988e-01,8.09344e-04,9.99999e-01,9.99999e-01,9.99999e-01,8.09344e-04,9.99999e-01
4.858882533e-01,9.31548e-04,9.99999e-01,9.99999e-01,9.99999e-01,9.31548e-04,9.99999e-01
4.883176946e-01,1.06923e-03,9.99999e-01,9.99999e-01,9.99999e-01,1.06923e-03,9.99999e-01
4.907592831e-01,1.22392e-03,9.99999e-01,9.99999e-01,9.99999e-01,1.22392e-03,9.99999e-01
4.932130795e-01,1.39726e-03,9.99999e-01,9.99999e-01,9.99999e-01,1.39726e-03,9.99999e-01
4.956791449e-01,1.59098e-03,9.99999e-01,9.99999e-01,9.99999e-01,1.59098e-03,9.99999e-01
4.981575406e-01,1.80692e-03,9.99999e-01,9.99999e-01,9.99999e-01,1.80692e-03,9.99999e-01
5.006483283e-01,2.04702e-03,9.99999e-01,9.99999e-01,9.99999e-01,2.04702e-03,9.99999e-01
5.031515699e-01,2.31331e-03,9.99999e-01,9.99999e-01,9.99999e-01,2.31331e-03,9.99999e-01
5.056673278e-01,2.60794e-03,9.99999e-01,9.99999e-01,9.99999e-01,2.60794e-03,9.99999e-01
5.081956644e-01,2.93313e-03,9.99999e-01,9.99999e-01,9.99999e-01,2.93313e-03,9.99999e-01
5.107366428e-01,3.29123e-03,9.99999e-01,9.99999e-01,9.99999e-01,3.29123e-03,9.99999e-01
5.132903260e-01,3.68465e-03,9.99999e-01,9.99999e-01,9.99999e-01,3.68465e-03,9.99999e-01
5.158567776e-01,4.11591e-03,9.99999e-01,9.99999e-01,9.99999e-01,4.11591e-03,9.99999e-01
5.184360615e-01,4.58761e-03,9.99999e-01,9.99999e-01,9.99999e-01,4.58761e-03,9.99999e-01
5.210282418e-01,5.10241e-03,9.99999e-01,9.99999e-01,9.99999e-01,5.10241e-03,9.99999e-01
5.236333830e-01,5.66308e-03,9.99999e-01,9.99999e-01,9.99999e-01,5.66308e-03,9.99999e-01
5.262515499e-01,6.27243e-03,9.99999e-01,9.99999e-01,9.99999e-01,6.27243e-03,9.99999e-01
5.288828077e-01,6.93333e-03,9.99999e-01,9.99999e-01,9.99999e-01,6.93333e-03,9.99999e-01
5.315272217e-01,7.64871e-03,9.99999e-01,9.99999e-01,9.99999e-01,7.64871e-03,9.99999e-01
5.341848578e-01,8.42157e-03,9.99999e-01,9.99999e-01,9.99999e-01,8.42157e-03,9.99999e-01
5.368557821e-01,9.25489e-03,9.99999e-01,9.99999e-01,9.99999e-01,9.25489e-03,9.99999e-01
5.395400610e-01,1.01517e-02,9.99999e-01,9.99999e-01,9.99999e-01,1.01517e-02,9.99999e-01
5.422377613e-01,1.11152e-02,9.99999e-01,9.99999e-01,9.99999e-01,1.11152e-02,9.99999e-01
5.449489501e-01,1.21483e-02,9.99999e-01,9.99999e-01,9.99999e-01,1.21483e-02,9.99999e-01
5.476736949e-01,1.32541e-02,9.99999e-01,9.99999e-01,9.99999e-01,1.32541e-02,9.99999e-01
5.504120634e-01,1.44357e-02,9.99999e-01,9.99999e-01,9.99999e-01,1.44357e-02,9.99999e-01
5.531641237e-01,1.56962e-02,9.99999e-01,9.99999e-01,9.99999e-01,1.56962e-02,9.99999e-01
5.559299443e-01,1.70385e-02,9.99999e-01,9.99999e-01,9.99999e-01,1.70385e-02,9.99999e-01
5.587095940e-01,1.84657e-02,9.99999e-01,9.99999e-01,9.99999e-01,1.84657e-02,9.99999e-01
5.615031420e-01,1.99806e-02,9.99999e-01,9.99999e-01,9.99999e-01,1.99806e-02,9.99999e-01
5.643106577e-01,2.15862e-02,9.99999e-01,9.99999e-01,9.99999e-01,2.15862e-02,9.99999e-01
5.671322110e-01,2.32852e-02,9.99999e-01,9.99999e-01,9.99999e-01,2.32852e-02,9.99999e-01
5.699678720e-01,2.50804e-02,9.99999e-01,9.99999e-01,9.99999e-01,2.50804e-02,9.99999e-01
5.728177114e-01,2.69744e-02,9.99999e-01,9.99999e-01,9.99999e-01,2.69744e-02,9.99999e-01
5.756818000e-01,2.89697e-02,9.99999e-01,9.99999e-01,9.99999e-01,2.89697e-02,9.99999e-01
5.785602090e-01,3.10688e-02,9.99999e-01,9.99999e-01,9.99999e-01,3.10688e-02,9.99999e-01
5.814530100e-01,3.32740e-02,9.99999e-01,9.99999e-01,9.99999e-01,3.32740e-02,9.99999e-01
5.843602750e-01,3.55874e-02,9.99999e-01,9.99999e-01,9.99999e-01,3.55874e-02,9.99999e-01
5.872820764e-01,3.80112e-02,9.99999e-01,9.99999e-01,9.99999e-01,3.80112e-02,9.99999e-01
5.902184868e-01,4.05473e-02,9.99999e-01,9.99999e-01,9.99999e-01,4.05473e-02,9.99999e-01
5.931695792e-01,4.31975e-02,9.99999e-01,9.99999e-01,9.99999e-01,4.31975e-02,9.99999e-01
5.961354271e-01,4.59633e-02,9.99999e-01,9.99999e-01,9.99999e-01,4.59633e-02,9.99999e-01
5.991161043e-01,4.88464e-02,9.99999e-01,9.99999e-01,9.99999e-01,4.88464e-02,9.99999e-01
6.021116848e-01,5.18479e-02,9.99999e-01,9.99999e-01,9.99999e-01,5.18479e-02,9.99999e-01
6.051222432e-01,5.49691e-02,9.99999e-01,9.99999e-01,9.99999e-01,5.49691e-02,9.99999e-01
6.081478544e-01,5.82109e-02,9.99999e-01,9.99999e-01,9.99999e-01,5.82109e-02,9.99999e-01
6.111885937e-01,6.15741e-02,9.99999e-01,9.99999e-01,9.99999e-01,6.15741e-02,9.99999e-01
6.142445367e-01,6.50595e-02,9.99999e-01,9.99999e-01,9.99999e-01,6.50595e-02,9.99999e-01
6.173157594e-01,6.86674e-02,9.99999e-01,9.99999e-01,9.99999e-01,6.86674e-02,9.99999e-01
6.204023382e-01,7.23982e-02,9.99999e-01,9.99999e-01,9.99999e-01,7.23982e-02,9.99999e-01
6.235043498e-01,7.62520e-02,9.99999e-01,9.99999e-01,9.99999e-01,7.62520e-02,9.99999e-01
6.266218716e-01,8.02286e-02,9.99999e-01,9.99999e-01,9.99999e-01,8.02286e-02,9.99999e-01
6.297549810e-01,8.43279e-02,9.99999e-01,9.99999e-01,9.99999e-01,8.43279e-02,9.99999e-01
6.329037559e-01,8.85495e-02,9.99999e-01,9.99999e-01,9.99999e-01,8.85495e-02,9.99999e-01
6.360682746e-01,9.28928e-02,9.99999e-01,9.99999e-01,9.99999e-01,9.28928e-02,9.99999e-01
6.392486160e-01,9.73569e-02,9.99999e-01,9.99999e-01,9.99999e-01,9.73569e-02,9.99999e-01
6.424448591e-01,1.01941e-01,9.99999e-01,9.99999e-01,9.99999e-01,1.01941e-01,9.99999e-01
6.456570834e-01,1.06644e-01,9.99999e-01,9.99999e-01,9.99999e-01,1.06644e-01,9.99999e-01
6.488853688e-01,1.11465e-01,9.99999e-01,9.99999e-01,9.99999e-01,1.11465e-01,9.99999e-01
6.521297956e-01,1.16402e-01,9.99999e-01,9.99999e-01,9.99999e-01,1.16402e-01,9.99999e-01
6.553904446e-01,1.21453e-01,9.99999e-01,9.99999e-01,9.99999e-01,1.21453e-01,9.99999e-01
6.586673968e-01,1.26617e-01,9.99999e-01,9.99999e-01,9.99999e-01,1.26617e-01,9.99999e-01
6.619607338e-01,1.31893e-01,9.99999e-01,9.99999e-01,9.99999e-01,1.31893e-01,9.99999e-01
6.652705375e-01,1.37277e-01,9.99999e-01,9.99999e-01,9.99999e-01,1.37277e-01,9.99999e-01
6.685968902e-01,1.42769e-01,9.99999e-01,9.99999e-01,9.99999e-01,1.42769e-01,9.99999e-01
6.719398746e-01,1.48365e-01,9.99999e-01,9.99999e-01,9.99999e-01,1.48365e-01,9.99999e-01
6.752995740e-01,1.54064e-01,9.99999e-01,9.99999e-01,9.99999e-01,1.54064e-01,9.99999e-01
6.786760719e-01,1.59862e-01,9.99999e-01,9.99999e-01,9.99999e-01,1.59862e-01,9.99999e-01
6.820694522e-01,1.65757e-01,9.99999e-01,9.99999e-01,9.99999e-01,1.65757e-01,9.99999e-01
6.854797995e-01,1.71747e-01,9.99999e-01,9.99999e-01,9.99999e-01,1.71747e-01,9.99999e-01
6.889071985e-01,1.77829e-01,9.99999e-01,9.99999e-01,9.99999e-01,1.77829e-01,9.99999e-01
6.923517345e-01,1.84000e-01,9.99999e-01,9.99999e-01,9.99999e-01,1.84000e-01,9.99999e-01
6.958134932e-01,1.90256e-01,9.99999e-01,9.99999e-01,9.99999e-01,1.90256e-01,9.99999e-01
6.992925606e-01,1.96596e-01,9.99999e-01,9.99999e-01,9.99999e-01,1.96596e-01,9.99999e-01
7.027890234e-01,2.03015e-01,9.99999e-01,9.99999e-01,9.99999e-01,2.03015e-01,9.99999e-01
7.063029686e-01,2.09510e-01,9.99999e-01,9.99999e-01,9.99999e-01,2.09510e-01,9.99999e-01
7.098344834e-01,2.16079e-01,9.99999e-01,9.99999e-01,9.99999e-01,2.16079e-01,9.99999e-01
7.133836558e-01,2.22719e-01,9.99999e-01,9.99999e-01,9.99999e-01,2.22719e-01,9.99999e-01
7.169505741e-01,2.29425e-01,9.99999e-01,9.99999e-01,9.99999e-01,2.29425e-01,9.99999e-01
7.205353270e-01,2.36194e-01,9.99999e-01,9.99999e-01,9.99999e-01,2.36194e-01,9.99999e-01
7.241380036e-01,2.43024e-01,9.99999e-01,9.99999e-01,9.99999e-01,2.43024e-01,9.99999e-01
7.277586936e-01,2.49910e-01,9.99999e-01,9.99999e-01,9.99999e-01,2.49910e-01,9.99999e-01
7.313974871e-01,2.56849e-01,9.99999e-01,9.99999e-01,9.99999e-01,2.56849e-01,9.99999e-01
7.350544745e-01,2.63839e-01,9.99999e-01,9.99999e-01,9.99999e-01,2.63839e-01,9.99999e-01
7.387297469e-01,2.70875e-01,9.99999e-01,9.99999e-01,9.99999e-01,2.70875e-01,9.99999e-01
7.424233956e-01,2.77954e-01,9.99999e-01,9.99999e-01,9.99999e-01,2.77954e-01,9.99999e-01
7.461355126e-01,2.85073e-01,9.99999e-01,9.99999e-01,9.99999e-01,2.85073e-01,9.99999e-01
7.498661902e-01,2.92228e-01,9.99999e-01,9.99999e-01,9.99999e-01,2.92228e-01,9.99999e-01
7.536155211e-01,2.99416e-01,9.99999e-01,9.99999e-01,9.99999e-01,2.99416e-01,9.99999e-01
7.573835987e-01,3.06634e-01,9.99999e-01,9.99999e-01,9.99999e-01,3.06634e-01,9.99999e-01
7.611705167e-01,3.13878e-01,9.99999e-01,9.99999e-01,9.99999e-01,3.13878e-01,9.99999e-01
7.649763693e-01,3.21145e-01,9.99999e-01,9.99999e-01,9.99999e-01,3.21145e-01,9.99999e-01
7.688012511e-01,3.28431e-01,9.99999e-01,9.99999e-01,9.99999e-01,3.28431e-01,9.99999e-01
7.726452574e-01,3.35735e-01,9.99999e-01,9.99999e-01,9.99999e-01,3.35735e-01,9.99999e-01
7.765084837e-01,3.43051e-01,9.99999e-01,9.99999e-01,9.99999e-01,3.43051e-01,9.99999e-01
7.803910261e-01,3.34293e-01,9.99999e-01,9.99999e-01,9.54093e-01,3.50378e-01,9.99999e-01
7.842929812e-01,2.88423e-01,9.99999e-01,9.99999e-01,8.06298e-01,3.57712e-01,9.99999e-01
7.882144461e-01,2.90203e-01,9.99999e-01,9.99999e-01,7.94967e-01,3.65050e-01,9.99999e-01
7.921555184e-01,3.25214e-01,9.99999e-01,9.99999e-01,8.73317e-01,3.72389e-01,9.99999e-01
7.961162960e-01,3.46667e-01,9.99999e-01,9.99999e-01,9.12940e-01,3.79726e-01,9.99999e-01
8.000968774e-01,3.68418e-01,9.99999e-01,9.99999e-01,9.51838e-01,3.87059e-01,9.99999e-01
8.040973618e-01,3.84414e-01,9.99999e-01,9.99999e-01,9.74720e-01,3.94384e-01,9.99999e-01
8.081178486e-01,3.97011e-01,9.99999e-01,9.99999e-01,9.88328e-01,4.01699e-01,9.99999e-01
8.121584379e-01,4.07518e-01,9.99999e-01,9.99999e-01,9.96373e-01,4.09002e-01,9.99999e-01
8.162192301e-01,4.15955e-01,9.99999e-01,9.99999e-01,9.99197e-01,4.16288e-01,9.99999e-01
8.203003262e-01,4.23552e-01,9.99999e-01,9.99999e-01,9.99987e-01,4.23557e-01,9.99999e-01
8.244018279e-01,4.30806e-01,9.99999e-01,9.99999e-01,9.99999e-01,4.30806e-01,9.99999e-01
8.285238370e-01,4.38032e-01,9.99999e-01,9.99999e-01,9.99999e-01,4.38032e-01,9.99999e-01
8.326664562e-01,4.45232e-01,9.99999e-01,9.99999e-01,9.99999e-01,4.45232e-01,9.99999e-01
8.368297885e-01,4.52405e-01,9.99999e-01,9.99999e-01,9.99999e-01,4.52405e-01,9.99999e-01
8.410139374e-01,4.59549e-01,9.99999e-01,9.99999e-01,9.99999e-01,4.59549e-01,9.99999e-01
8.452190071e-01,4.66661e-01,9.99999e-01,9.99999e-01,9.99999e-01,4.66661e-01,9.99999e-01
8.494451021e-01,4.73740e-01,9.99999e-01,9.99999e-01,9.99999e-01,4.73740e-01,9.99999e-01
8.536923276e-01,4.80783e-01,9.99999e-01,9.99999e-01,9.99999e-01,4.80783e-01,9.99999e-01
8.579607893e-01,4.87788e-01,9.99999e-01,9.99999e-01,9.99999e-01,4.87788e-01,9.99999e-01
8.622505932e-01,4.94754e-01,9.99999e-01,9.99999e-01,9.99999e-01,4.94754e-01,9.99999e-01
8.665618462e-01,4.56194e-01,9.99999e-01,9.99999e-01,9.09333e-01,5.01679e-01,9.99999e-01
8.708946554e-01,2.96069e-01,9.99999e-01,9.99999e-01,5.82169e-01,5.08561e-01,9.99999e-01
8.752491287e-01,3.31902e-01,9.99999e-01,9.99999e-01,6.43970e-01,5.15399e-01,9.99999e-01
8.796253743e-01,4.09289e-01,9.99999e-01,9.99999e-01,7.83792e-01,5.22191e-01,9.99999e-01
8.840235012e-01,4.65935e-01,9.99999e-01,9.99999e-01,8.80890e-01,5.28936e-01,9.99999e-01
8.884436187e-01,5.09461e-01,9.99999e-01,9.99999e-01,9.51138e-01,5.35632e-01,9.99999e-01
8.928858368e-01,5.31389e-01,9.99999e-01,9.99999e-01,9.79920e-01,5.42278e-01,9.99999e-01
8.973502660e-01,5.46172e-01,9.99999e-01,9.99999e-01,9.95078e-01,5.48873e-01,9.99999e-01
9.018370173e-01,5.55113e-01,9.99999e-01,9.99999e-01,9.99456e-01,5.55415e-01,9.99999e-01
9.063462024e-01,5.54206e-01,9.99999e-01,9.99999e-01,9.86299e-01,5.61904e-01,9.99999e-01
9.108779334e-01,5.50449e-01,9.99999e-01,9.99999e-01,9.68523e-01,5.68338e-01,9.99999e-01
9.154323231e-01,5.70409e-01,9.99999e-01,9.99999e-01,9.92503e-01,5.74717e-01,9.99999e-01
9.200094847e-01,5.22849e-01,9.99999e-01,9.99999e-01,8.99851e-01,5.81039e-01,9.99999e-01
9.246095321e-01,5.02327e-01,9.99999e-01,9.99999e-01,8.55308e-01,5.87304e-01,9.99999e-01
9.292325798e-01,5.25532e-01,9.99999e-01,9.99999e-01,8.85463e-01,5.93511e-01,9.99999e-01
9.338787427e-01,5.32796e-01,9.99999e-01,9.99999e-01,8.88498e-01,5.99658e-01,9.99999e-01
9.385481364e-01,5.55263e-01,9.99999e-01,9.99999e-01,9.16658e-01,6.05746e-01,9.99999e-01
9.432408771e-01,5.79979e-01,9.99999e-01,9.99999e-01,9.48027e-01,6.11774e-01,9.99999e-01
9.479570815e-01,6.01066e-01,9.99999e-01,9.99999e-01,9.73005e-01,6.17741e-01,9.99999e-01
9.526968669e-01,6.15471e-01,9.99999e-01,9.99999e-01,9.86889e-01,6.23647e-01,9.99999e-01
9.574603512e-01,6.25948e-01,9.99999e-01,9.99999e-01,9.94371e-01,6.29490e-01,9.99999e-01
9.622476530e-01,6.34154e-01,9.99999e-01,9.99999e-01,9.98240e-01,6.35272e-01,9.99999e-01
9.670588912e-01,6.40652e-01,9.99999e-01,9.99999e-01,9.99472e-01,6.40990e-01,9.99999e-01
9.718941857e-01,6.46622e-01,9.99999e-01,9.99999e-01,9.99962e-01,6.46646e-01,9.99999e-01
9.767536566e-01,6.52239e-01,9.99999e-01,9.99999e-01,9.99999e-01,6.52239e-01,9.99999e-01
9.816374249e-01,6.57767e-01,9.99999e-01,9.99999e-01,9.99999e-01,6.57767e-01,9.99999e-01
9.865456120e-01,6.63233e-01,9.99999e-01,9.99999e-01,9.99999e-01,6.63233e-01,9.99999e-01
9.914783401e-01,6.68634e-01,9.99999e-01,9.99999e-01,9.99999e-01,6.68634e-01,9.99999e-01
9.964357318e-01,6.73971e-01,9.99999e-01,9.99999e-01,9.99999e-01,6.73971e-01,9.99999e-01
1.001417910e+00,6.79244e-01,9.99999e-01,9.99999e-01,9.99999e-01,6.79244e-01,9.99999e-01
1.006425000e+00,6.84454e-01,9.99999e-01,9.99999e-01,9.99999e-01,6.84454e-01,9.99999e-01
1.011457125e+00,6.89599e-01,9.99999e-01,9.99999e-01,9.99999e-01,6.89599e-01,9.99999e-01
1.016514411e+00,6.94679e-01,9.99999e-01,9.99999e-01,9.99999e-01,6.94679e-01,9.99999e-01
1.021596983e+00,6.99647e-01,9.99999e-01,9.99999e-01,9.99928e-01,6.99696e-01,9.99999e-01
1.026704968e+00,7.00867e-01,9.99999e-01,9.99999e-01,9.94631e-01,7.04649e-01,9.99999e-01
1.031838492e+00,6.70000e-01,9.99999e-01,9.99999e-01,9.44275e-01,7.09538e-01,9.99999e-01
1.036997685e+00,7.83660e-02,9.99999e-01,9.99999e-01,1.09700e-01,7.14364e-01,9.99999e-01
1.042182673e+00,3.75273e-02,9.99999e-01,9.99999e-01,5.21846e-02,7.19126e-01,9.99999e-01
1.047393587e+00,5.53523e-02,9.99999e-01,9.99999e-01,7.64719e-02,7.23825e-01,9.99999e-01
1.052630555e+00,4.28781e-04,9.99999e-01,9.99999e-01,5.88613e-04,7.28460e-01,9.99999e-01
1.057893707e+00,1.29813e-03,9.99999e-01,9.99999e-01,1.77090e-03,7.33033e-01,9.99999e-01
1.063183176e+00,6.65383e-03,9.99999e-01,9.99999e-01,9.02159e-03,7.37544e-01,9.99999e-01
1.068499092e+00,2.59917e-02,9.99999e-01,9.99999e-01,3.50295e-02,7.41992e-01,9.99999e-01
1.073841587e+00,8.89290e-02,9.99999e-01,9.99999e-01,1.19147e-01,7.46379e-01,9.99999e-01
1.079210795e+00,1.95158e-01,9.99999e-01,9.99999e-01,2.59967e-01,7.50704e-01,9.99999e-01
1.084606849e+00,3.57564e-01,9.99999e-01,9.99999e-01,4.73614e-01,7.54968e-01,9.99999e-01
1.090029883e+00,5.14622e-01,9.99999e-01,9.99999e-01,6.77872e-01,7.59171e-01,9.99999e-01
1.095480033e+00,6.30090e-01,9.99999e-01,9.99999e-01,8.25466e-01,7.63314e-01,9.99999e-01
1.100957433e+00,6.99595e-01,9.99999e-01,9.99999e-01,9.11646e-01,7.67397e-01,9.99999e-01
1.106462220e+00,7.42451e-01,9.99999e-01,9.99999e-01,9.62445e-01,7.71421e-01,9.99999e-01
1.111994531e+00,7.64460e-01,9.99999e-01,9.99999e-01,9.85909e-01,7.75385e-01,9.99999e-01
1.117554504e+00,7.76594e-01,9.99999e-01,9.99999e-01,9.96538e-01,7.79291e-01,9.99999e-01
1.123142276e+00,7.82961e-01,9.99999e-01,9.99999e-01,9.99771e-01,7.83139e-01,9.99999e-01
1.128757988e+00,7.86930e-01,9.99999e-01,9.99999e-01,9.99999e-01,7.86930e-01,9.99999e-01
1.134401778e+00,7.90663e-01,9.99999e-01,9.99999e-01,9.99999e-01,7.90663e-01,9.99999e-01
1.140073787e+00,7.94340e-01,9.99999e-01,9.99999e-01,9.99999e-01,7.94340e-01,9.99999e-01
1.145774156e+00,7.97961e-01,9.99999e-01,9.99999e-01,9.99999e-01,7.97961e-01,9.99999e-01
1.151503026e+00,8.01526e-01,9.99999e-01,9.99999e-01,9.99999e-01,8.01526e-01,9.99999e-01
1.157260541e+00,8.05036e-01,9.99999e-01,9.99999e-01,9.99999e-01,8.05036e-01,9.99999e-01
1.163046844e+00,8.08492e-01,9.99999e-01,9.99999e-01,9.99999e-01,8.08492e-01,9.99999e-01
1.168862078e+00,8.11894e-01,9.99999e-01,9.99999e-01,9.99999e-01,8.11894e-01,9.99999e-01
1.174706389e+00,8.15243e-01,9.99999e-01,9.99999e-01,9.99999e-01,8.15243e-01,9.99999e-01
1.180579921e+00,8.18539e-01,9.99999e-01,9.99999e-01,9.99999e-01,8.18539e-01,9.99999e-01
1.186482820e+00,8.21775e-01,9.99999e-01,9.99999e-01,9.99990e-01,8.21783e-01,9.99999e-01
1.192415234e+00,8.09398e-01,9.99999e-01,9.99999e-01,9.81118e-01,8.24975e-01,9.99999e-01
1.198377311e+00,4.56645e-01,9.99999e-01,9.99999e-01,5.51425e-01,8.28116e-01,9.99999e-01
1.204369197e+00,3.36940e-15,9.99999e-01,9.99999e-01,4.05362e-15,8.31207e-01,9.99999e-01
1.210391043e+00,7.00178e-58,9.99999e-01,9.99999e-01,8.39292e-58,8.34248e-01,9.99999e-01
1.216442998e+00,3.00314e-50,9.99999e-01,9.99999e-01,3.58696e-50,8.37240e-01,9.99999e-01
1.222525213e+00,1.63624e-49,9.99999e-01,9.99999e-01,1.94747e-49,8.40182e-01,9.99999e-01
1.228637839e+00,2.44224e-38,9.99999e-01,9.99999e-01,2.89682e-38,8.43077e-01,9.99999e-01
